 $NMID ID='MM_0lb_SNR200_8hz_g55_94.RAW', FMTDAT='(8E13.5)'
 TRAMP=1., VOLUME=1. $END
  3.09199E+05  4.28116E+02  3.38613E+05  2.49766E+05  8.42923E+04  3.38169E+05 -1.33896E+05  2.51827E+05
 -1.90771E+05  8.32739E+04 -1.13187E+05 -3.29037E+04  1.44851E+03 -4.95513E+04  5.53085E+04  5.26104E+02
  3.48481E+04  5.33569E+04 -1.55386E+04  7.59004E+04 -6.01100E+04  6.28666E+04 -8.69610E+04  3.38512E+04
 -8.33646E+04 -1.24241E+04 -5.84539E+04 -5.39559E+04 -1.63642E+04 -7.26827E+04  2.83008E+04 -4.63542E+04
  4.10766E+04  3.16455E+03  1.65941E+04  4.99565E+04 -3.48711E+04  4.81535E+04 -6.84682E+04 -1.73994E+01
 -5.46368E+04 -5.83234E+04 -7.62235E+03 -7.87992E+04  3.46982E+04 -5.64639E+04  4.90786E+04 -1.79957E+04
  4.61805E+04  1.21084E+04  3.25754E+04  2.69090E+04  1.57348E+04  3.06033E+04 -5.76043E+03  2.79149E+04
 -2.26241E+04  1.09853E+04 -1.83328E+04 -5.35025E+03  7.97114E+03 -7.65995E+03  2.19668E+04  1.38545E+04
  8.41479E+03  3.93983E+04 -3.39594E+04  3.83876E+04 -6.56595E+04  2.50480E+03 -5.89141E+04 -4.63040E+04
 -1.32469E+04 -6.70389E+04  4.18458E+04 -4.73110E+04  6.20882E+04 -2.24851E+03  3.86301E+04  3.62984E+04
 -4.92806E+03  3.92133E+04 -3.18332E+04  1.99066E+04 -3.48927E+04 -3.07062E+03 -2.07047E+04 -1.33106E+04
 -1.02384E+04 -1.52756E+04 -5.58679E+02 -2.11970E+04  8.37749E+03 -2.36824E+04  1.65179E+04 -1.20682E+04
  1.03664E+04  5.57760E+03 -1.10061E+04  1.26933E+04 -2.36502E+04 -7.16880E+03 -7.36709E+03 -3.89582E+04
  2.49713E+04 -4.55367E+04  5.22658E+04 -2.14605E+04  4.96691E+04  1.92125E+04  1.74383E+04  4.89555E+04
 -1.78718E+04  3.71948E+04 -3.04672E+04  3.90971E+03 -1.29966E+04 -3.15698E+04  2.21379E+04 -3.74271E+04
  4.33475E+04 -1.27327E+04  4.06444E+04  2.50168E+04  2.25385E+04  5.30471E+04 -9.02356E+03  5.93815E+04
 -3.63403E+04  4.05413E+04 -4.86171E+04  1.14890E+04 -4.92752E+04 -1.96312E+04 -2.73694E+04 -4.38747E+04
  8.97723E+03 -4.45052E+04  3.49114E+04 -1.71729E+04  3.21324E+04  1.21953E+04  5.61906E+03  2.22474E+04
 -1.33136E+04  8.90191E+03 -1.13595E+04 -8.41193E+03  6.08346E+03 -1.36485E+04  1.79047E+04  3.66389E+03
  1.59565E+04  2.18610E+04 -4.38648E+03  2.76926E+04 -2.25300E+04  1.65929E+04 -3.20228E+04 -2.76038E+03
 -2.73879E+04 -1.88660E+04 -1.21157E+04 -2.57252E+04  3.63024E+03 -2.68748E+04  2.26360E+04 -2.17212E+04
  3.36557E+04 -1.39250E+04  4.00503E+04  4.87257E+03  2.81360E+04  2.67881E+04  4.76039E+03  4.43695E+04
 -1.98386E+04  3.51801E+04 -2.89419E+04  1.21864E+04 -2.29759E+04 -1.12670E+04 -4.08597E+03 -1.25855E+04
  8.15434E+02 -1.76260E+03 -1.04014E+04  9.58511E+03 -2.19497E+04  4.65401E+03 -2.08830E+04 -1.20158E+04
 -1.18842E+04 -2.26744E+04  6.05384E+03 -2.91022E+04  1.84214E+04 -2.02672E+04  2.50817E+04 -2.47315E+03
  1.34846E+04  1.68540E+04 -5.28796E+02  2.35867E+04 -1.69174E+04  1.31858E+04 -2.65220E+04 -4.91156E+03
 -1.76937E+04 -2.19634E+04 -2.99735E+03 -3.00122E+04  1.20642E+04 -2.36200E+04  2.05434E+04 -1.23752E+04
  2.29532E+04  3.84187E+02  1.69584E+04  6.37964E+03  1.01163E+04  1.62658E+03  1.34092E+04 -2.72199E+03
  2.35018E+04  3.34521E+03  2.69525E+04  2.00966E+04  1.83233E+04  4.02503E+04 -1.02384E+03  4.56918E+04
 -2.72806E+04  3.98636E+04 -4.50065E+04  2.09945E+04 -4.84259E+04 -5.03199E+03 -3.81787E+04 -2.81146E+04
 -1.53525E+04 -4.17316E+04  1.38029E+04 -3.40153E+04  2.98076E+04 -1.55920E+04  2.60347E+04  7.18502E+03
  9.03428E+03  1.93955E+04 -1.24701E+04  1.68705E+04 -2.16664E+04  3.29543E+03 -1.56405E+04 -1.32426E+04
 -1.96349E+03 -2.20727E+04  1.25428E+04 -1.54563E+04  1.32979E+04 -2.32935E+03  3.73435E+03  8.78499E+03
 -8.59395E+03  4.65675E+03 -1.11899E+04 -5.51877E+03 -3.86658E+03 -2.02798E+04  1.16665E+04 -1.99349E+04
  2.40513E+04 -1.51446E+04  2.95392E+04  2.33100E+03  2.54837E+04  2.05042E+04  1.21133E+04  3.17059E+04
 -7.22834E+03  3.32658E+04 -2.30415E+04  2.07788E+04 -2.41452E+04  3.22980E+03 -1.78963E+04 -6.64390E+03
 -8.07286E+03 -7.20966E+03 -1.81887E+03  1.07100E+03 -3.66571E+03  5.18759E+03 -8.84709E+03  4.96473E+03
 -1.64849E+04 -1.26257E+03 -1.51083E+04 -1.18592E+04 -6.09614E+03 -2.09100E+04  6.14600E+03 -1.73966E+04
  1.33620E+04 -6.84552E+03  1.00690E+04  4.27949E+03 -1.84957E+03  8.44119E+03 -9.01066E+03  6.69366E+01
 -8.51663E+03 -1.12718E+04  1.78878E+03 -1.78582E+04  1.03487E+04 -1.81047E+04  2.15052E+04 -9.75150E+03
  2.60428E+04  4.69236E+03  1.82556E+04  1.55508E+04  3.24366E+03  2.25293E+04 -1.11158E+04  1.76352E+04
 -1.45789E+04  3.25399E+03 -7.00890E+03 -2.88419E+03  1.77762E+03 -4.74608E+03  9.02219E+03  8.62507E+02
  8.25868E+03  8.24781E+03  5.59705E+02  1.48336E+04 -1.00486E+04  1.44708E+04 -1.61908E+04  1.67600E+03
 -1.26222E+04 -9.28247E+03 -6.84003E+02 -1.53966E+04  9.98185E+03 -8.23648E+03  9.23411E+03  3.81406E+03
  1.94163E+03  1.13132E+04 -8.74400E+03  1.24415E+04 -1.52093E+04  3.86657E+03 -1.64251E+04 -5.42039E+03
 -9.44395E+03 -1.90650E+04  4.38449E+03 -2.13287E+04  1.71465E+04 -1.23963E+04  1.87733E+04  4.44260E+03
  1.07070E+04  1.64292E+04 -5.64259E+02  1.71564E+04 -1.49142E+04  9.74321E+03 -1.37412E+04 -2.08819E+03
 -1.24324E+04 -1.27892E+04 -2.21519E+03 -1.39736E+04  7.58234E+03 -1.18779E+04  8.99718E+03 -3.61113E+03
  6.04001E+03  4.75603E+03  7.64985E+02  3.22826E+03 -4.37016E+02 -4.18067E+03  3.71012E+03 -9.00879E+03
  1.25512E+04 -6.02764E+03  1.76171E+04  1.37434E+03  1.72908E+04  1.24139E+04  1.10280E+04  2.35058E+04
 -6.22896E+03  2.68840E+04 -2.16278E+04  2.00650E+04 -2.91609E+04  2.77826E+03 -2.34896E+04 -9.45284E+03
 -1.19226E+04 -1.79852E+04 -1.84901E+03 -1.57556E+04  6.89029E+03 -7.51246E+03  6.62539E+03 -4.88617E+03
  3.21395E+03 -2.54866E+03  3.56088E+03 -3.61065E+03  6.90875E+03 -5.96386E+03  8.65356E+03 -9.31738E+02
  1.13346E+04  3.71379E+03  6.80299E+03  1.06504E+04  6.02941E+02  1.26498E+04 -1.14557E+04  1.08970E+04
 -1.76342E+04  5.22431E+01 -1.08216E+04 -1.10463E+04 -2.19298E+03 -1.86791E+04  9.92917E+03 -1.85521E+04
  1.97782E+04 -1.12970E+04  2.26637E+04  3.94272E+03  1.51982E+04  1.78323E+04  2.66059E+03  2.06276E+04
 -7.59445E+03  1.66970E+04 -1.32822E+04  4.21214E+03 -7.61595E+03 -2.38767E+03 -4.81473E+03 -3.36431E+03
 -1.40996E+03 -9.43447E+02 -2.47483E+03  3.08259E+03 -6.48289E+03  3.02437E+03 -1.04827E+04 -1.95332E+03
 -9.38171E+03 -1.09977E+04  7.66360E+02 -1.81121E+04  1.06053E+04 -1.50397E+04  1.52910E+04 -3.85253E+03
  1.76529E+04  6.75370E+03  6.08970E+03  1.54976E+04 -4.37543E+03  1.59444E+04 -1.38473E+04  1.14496E+04
 -1.47636E+04  3.68098E+02 -1.36756E+04 -1.15543E+04 -1.23605E+03 -1.51904E+04  7.81178E+03 -1.05411E+04
  1.10991E+04 -3.34892E+03  7.78544E+03  3.40342E+03  3.62238E+03  4.78146E+03  3.38094E+03  1.64645E+03
  1.25063E+03  1.31776E+03  3.67532E+03  2.41194E+03  3.58472E+03  5.57321E+03  4.60677E+03  8.96734E+03
 -3.89339E+03  1.42183E+04 -1.12442E+04  1.33853E+04 -1.82483E+04  2.23483E+03 -1.79577E+04 -7.78218E+03
 -9.33352E+03 -1.82167E+04  1.98581E+03 -1.94341E+04  1.13120E+04 -1.31905E+04  1.33537E+04 -4.59445E+03
  1.41222E+04  6.59799E+03  3.69029E+03  9.93575E+03 -4.60391E+03  6.40357E+03 -8.31938E+03 -1.26563E+03
 -3.41552E+03 -8.68540E+03  4.42000E+03 -8.26470E+03  6.45569E+03 -3.09863E+03  7.17288E+03  2.34432E+03
  4.62106E+03  2.75400E+03  1.12876E+03  3.33315E+03 -1.13165E+03  2.75026E+03  2.07575E+03  1.29981E+03
  1.48654E+03  3.01405E+02  7.55371E+03  1.98429E+03  5.58089E+03  9.62201E+03 -2.92327E+03  1.05913E+04
 -8.36941E+03  8.75874E+03 -1.28615E+04  1.25883E+03 -9.51573E+03 -4.52512E+03 -4.77316E+03 -6.82592E+03
  6.46349E+02 -7.09551E+03  5.64870E+03 -2.81670E+03  4.70615E+03  4.64359E+03 -1.00949E+03  6.22404E+03
 -5.45710E+03  4.09981E+03 -1.03808E+04 -4.70658E+03 -5.01556E+03 -1.03648E+04  2.42433E+03 -1.26383E+04
  7.39092E+03 -6.73055E+03  8.97890E+03  3.27315E+01  4.92162E+03  3.83655E+03 -1.32464E+02  5.35855E+03
 -4.23738E+03  2.52320E+03 -3.67229E+03 -2.85411E+03  1.44744E+03 -8.01374E+03  8.75515E+03 -6.27617E+03
  1.30167E+04  2.18786E+03  1.19502E+04  8.52888E+03  3.64679E+03  1.33084E+04 -3.32986E+03  1.11057E+04
 -1.04442E+04  5.02254E+03 -8.36760E+03 -2.69541E+03 -7.48100E+03 -7.48068E+03  8.81020E+02 -8.41424E+03
  6.34667E+03 -2.14377E+03  7.70840E+03  1.92062E+03  2.90808E+03  7.29992E+03 -2.30194E+03  5.02524E+03
 -1.70329E+03  3.83545E+03 -2.05134E+03  1.78938E+03 -2.77987E+03  4.23369E+02 -3.09206E+03  1.37418E+03
 -2.50153E+03  4.68222E+03 -7.90557E+03  4.40323E+03 -1.31166E+04  5.68580E+02 -1.46750E+04 -6.99830E+03
 -7.18107E+03 -1.77472E+04  3.39174E+03 -1.84888E+04  1.20425E+04 -1.46740E+04  1.91491E+04 -4.70725E+03
  1.53733E+04  3.61426E+03  1.09388E+04  1.20627E+04 -8.62822E+02  1.30825E+04 -5.56227E+03  8.97162E+03
 -6.15508E+03  5.28118E+03 -4.24529E+03 -1.58459E+03 -1.47215E+03 -2.47495E+03 -1.59844E+03  5.84723E+01
 -3.09416E+03 -1.81808E+02 -3.03834E+03 -5.04480E+01  4.81423E+02 -2.85863E+03 -9.05733E+02 -6.08829E+03
  5.49532E+03 -3.53230E+03  8.25283E+03 -7.61521E+02  8.18377E+03  8.72968E+03  5.11922E+03  1.24866E+04
 -5.09086E+03  1.30751E+04 -1.33659E+04  8.91757E+03 -1.55738E+04 -1.35518E+03 -1.18421E+04 -9.24357E+03
 -4.18940E+03 -1.45844E+04  2.17180E+03 -1.24707E+04  9.07276E+03 -6.34365E+03  9.42194E+03 -4.45121E+02
  4.72908E+03  3.99026E+03  2.69297E+02  4.78694E+03 -3.02526E+03 -3.32193E+02  4.34827E+02 -3.01611E+03
  4.32470E+03  3.59454E+02  6.85907E+03  1.76712E+03  2.99904E+03  5.69809E+03 -2.25594E+02  6.94902E+03
 -5.88326E+03  5.32626E+03 -9.54120E+03 -1.01289E+03 -6.13178E+03 -6.64865E+03 -2.99923E+03 -1.07918E+04
  6.57696E+03 -7.96879E+03  1.05228E+04 -1.79565E+03  1.02632E+04  3.60848E+03  6.28879E+03  7.64344E+03
  2.23259E+03  1.04921E+04 -3.59420E+03  7.10196E+03 -4.07323E+03  3.16400E+03 -4.11599E+03  2.20440E+02
 -2.21502E+03 -1.40246E+03 -1.97667E+03 -1.95282E+02 -5.73209E+03  2.11862E+03 -7.60281E+03 -1.21524E+03
 -6.96711E+03 -4.75119E+03 -6.36866E+02 -1.09029E+04  6.91948E+03 -8.96560E+03  8.35457E+03 -4.51652E+03
  7.70673E+03  2.47636E+03  5.98876E+03  5.95659E+03 -1.82233E+02  8.30849E+03 -6.27227E+03  5.33688E+03
