 $NMID ID='MM_0lb_SNR200_20hz_g40_76.RAW', FMTDAT='(8E13.5)'
 TRAMP=1., VOLUME=1. $END
  3.09353E+05  1.17301E+03  3.37187E+05  2.50975E+05  8.45857E+04  3.36268E+05 -1.32391E+05  2.49597E+05
 -1.90489E+05  8.20622E+04 -1.11054E+05 -3.30518E+04  1.83784E+03 -4.99493E+04  5.40155E+04  1.12989E+02
  3.59854E+04  5.32595E+04 -1.63229E+04  7.37231E+04 -5.92885E+04  6.33338E+04 -8.23621E+04  3.11395E+04
 -7.88338E+04 -1.16749E+04 -5.56665E+04 -5.00215E+04 -1.57980E+04 -6.74367E+04  2.56613E+04 -4.43382E+04
  3.81693E+04  3.82598E+03  1.49892E+04  4.66958E+04 -3.44670E+04  4.56566E+04 -6.45225E+04 -6.87335E+02
 -5.12103E+04 -5.55219E+04 -6.21231E+03 -7.45753E+04  3.29973E+04 -5.25478E+04  4.42678E+04 -1.54109E+04
  4.09877E+04  1.13021E+04  3.00084E+04  2.33512E+04  1.63839E+04  2.75953E+04 -3.63692E+03  2.59998E+04
 -2.06724E+04  1.37564E+04 -1.84915E+04 -3.32778E+03  3.83657E+03 -7.92519E+03  2.03425E+04  1.12645E+04
  7.71253E+03  3.16164E+04 -2.91993E+04  3.34604E+04 -5.89241E+04  2.55520E+03 -5.42115E+04 -3.96353E+04
 -1.25401E+04 -5.95425E+04  3.69301E+04 -4.22336E+04  5.38413E+04 -1.19741E+03  3.06367E+04  2.94216E+04
 -7.15598E+03  3.12560E+04 -2.71907E+04  1.19582E+04 -2.66564E+04 -4.87345E+03 -1.38427E+04 -9.34928E+03
 -6.76186E+03 -1.06640E+04 -3.48134E+02 -1.52222E+04  6.18920E+03 -2.28637E+04  1.51433E+04 -1.38382E+04
  1.25009E+04  4.02305E+03 -5.20386E+03  1.41520E+04 -1.91988E+04 -1.58196E+03 -8.10234E+03 -2.87206E+04
  1.97721E+04 -3.95631E+04  4.35283E+04 -1.77347E+04  4.09876E+04  1.83101E+04  1.38508E+04  4.02874E+04
 -1.44091E+04  3.12149E+04 -2.24621E+04  1.13932E+03 -7.25384E+03 -2.60428E+04  2.08949E+04 -3.01472E+04
  3.60297E+04 -5.77278E+03  2.96208E+04  2.21239E+04  1.35287E+04  4.07249E+04 -7.97494E+03  4.30370E+04
 -2.60345E+04  2.79404E+04 -3.46802E+04  7.14229E+03 -3.64350E+04 -1.36639E+04 -1.91050E+04 -3.32672E+04
  7.09458E+03 -3.26245E+04  2.86986E+04 -1.23495E+04  2.57842E+04  1.04128E+04  1.96853E+03  1.66574E+04
 -1.24066E+04  6.99255E+03 -1.02328E+04 -7.94052E+03  5.56886E+03 -9.45859E+03  1.64589E+04  6.08770E+03
  1.17202E+04  2.07520E+04 -7.50071E+03  2.28837E+04 -2.11075E+04  7.90569E+03 -2.40549E+04 -7.14534E+03
 -1.51114E+04 -1.54675E+04 -4.41836E+03 -1.55584E+04  4.02406E+03 -1.26851E+04  1.09356E+04 -1.32591E+04
  1.94468E+04 -1.16257E+04  2.61688E+04 -5.53373E+02  2.00896E+04  1.40488E+04  3.08866E+03  3.06892E+04
 -1.57151E+04  2.61615E+04 -2.45490E+04  8.25050E+03 -1.95553E+04 -1.09195E+04 -3.27832E+03 -1.47111E+04
  1.44760E+03 -4.90807E+03 -1.30071E+03  4.73800E+03 -1.15087E+04  4.64789E+03 -1.23932E+04 -5.31069E+03
 -8.64248E+03 -1.36990E+04  5.93734E+03 -1.88115E+04  1.10939E+04 -1.22436E+04  1.31017E+04 -1.19572E+03
  8.26075E+03  9.67818E+03 -9.58775E+02  1.43618E+04 -8.87309E+03  7.61973E+03 -1.38647E+04 -3.90124E+03
 -1.00409E+04 -1.22400E+04 -1.44830E+03 -1.68766E+04  9.28942E+03 -1.26408E+04  1.48108E+04 -6.35365E+03
  1.37812E+04  3.85483E+02  8.94880E+03  3.18589E+03  4.23776E+03  5.84882E+02  8.70669E+03 -9.08211E+02
  1.23598E+04  3.04446E+03  1.26114E+04  1.23796E+04  7.70975E+03  2.30243E+04 -3.44191E+03  2.42878E+04
 -1.42337E+04  1.83237E+04 -2.27368E+04  7.66835E+03 -2.05995E+04 -9.75107E+02 -1.97567E+04 -1.14752E+04
 -7.84323E+03 -1.77208E+04  6.51943E+03 -1.64842E+04  1.47303E+04 -1.01637E+04  1.33491E+04  2.41977E+03
  6.23509E+03  9.63107E+03 -6.21980E+03  1.07893E+04 -1.24625E+04  1.26145E+03 -9.29434E+03 -6.29392E+03
  1.51588E+02 -1.05958E+04  5.57697E+03 -9.07981E+03  6.29813E+03 -5.16578E+02  1.18427E+03  4.82808E+03
 -5.15760E+03  3.01096E+02 -2.41566E+03 -3.77809E+03  2.01363E+03 -9.41106E+03  7.15487E+03 -8.51167E+03
  1.04688E+04 -3.48243E+03  9.89685E+03  2.66761E+03  8.31795E+03  8.02181E+03  3.86863E+03  1.19505E+04
 -4.23260E+02  1.34653E+04 -8.75110E+03  9.30120E+03 -8.53652E+03  2.41006E+03 -7.85336E+03 -1.55907E+03
 -4.17071E+03 -3.58971E+03  8.79796E+00  2.04969E+03 -1.83285E+03  2.24205E+03 -2.93637E+03  3.56065E+03
 -6.72082E+03 -1.46190E+03 -8.27784E+03 -6.47494E+03 -3.46044E+03 -1.02614E+04  3.04379E+03 -6.15585E+03
  4.98588E+03 -3.34920E+03  4.63187E+03  1.88771E+03  1.36401E+03  2.83654E+03 -3.25878E+03  1.01536E+03
 -3.29467E+03 -5.04965E+03 -1.66164E+03 -6.44874E+03  4.13518E+03 -6.48373E+03  8.09304E+03 -2.56774E+03
  1.01829E+04  1.99442E+02  7.93612E+03  4.83152E+03  1.38292E+03  7.77941E+03 -4.66320E+03  8.03600E+03
 -6.62196E+03  3.52740E+03 -4.06448E+03 -5.73048E+02  2.40422E+03 -1.91227E+03  3.43256E+03  1.32403E+02
  3.76460E+03  1.83377E+03  1.30858E+03  5.71764E+03 -3.14379E+03  6.26902E+03 -6.91716E+03  1.44313E+03
 -3.53780E+03 -3.36609E+03  7.58780E+02 -6.99314E+03  3.37142E+03 -4.08329E+03  3.74775E+03  6.12288E+02
  5.77402E+02  3.01397E+03 -3.45328E+03  3.73793E+03 -3.94000E+03  2.33879E+03 -3.50623E+03 -1.23555E+02
 -2.56683E+03 -3.95105E+03  8.07246E+02 -5.30576E+03  6.76198E+03 -4.12721E+03  4.83261E+03  6.43019E+02
  3.93641E+03  4.68298E+03  6.30253E+02  5.64431E+03 -3.74379E+03  3.71259E+03 -3.52836E+03 -3.70731E+01
 -5.94244E+03 -4.27765E+03 -1.30414E+03 -3.79394E+03  1.08819E+03 -4.18562E+03  3.62858E+03 -2.00835E+03
  2.59773E+03  1.88660E+02 -4.22095E+02  1.08844E+03 -1.05863E+02 -2.25464E+02 -9.57196E+01 -1.97343E+03
  2.76183E+03 -5.79628E+02  3.18012E+03 -9.90353E+02  4.19001E+03  1.66526E+03  5.41909E+03  5.85735E+03
  1.07448E+02  5.78927E+03 -6.05597E+03  5.84972E+03 -8.09536E+03  1.43173E+03 -6.47174E+03 -2.13938E+03
 -4.01026E+03 -5.48529E+03  4.47184E+02 -3.78368E+03  2.15859E+03 -1.46847E+03  8.20847E+02 -1.44261E+03
  1.62669E+03  3.14973E+02  1.83547E+03 -1.59025E+03  3.45828E+03 -1.25002E+03  3.59171E+03  1.12011E+03
  3.84923E+03  2.31496E+03  1.03199E+03  3.10347E+03 -4.21353E+02  2.05297E+03 -4.82883E+03  5.13544E+02
 -2.41245E+03 -9.18198E+02 -7.35946E+01 -3.55544E+03  4.53993E+02 -4.79939E+03  1.77200E+03 -4.89148E+03
  3.78175E+03 -2.79455E+03  5.44259E+03 -9.58208E+02  3.93560E+03  3.28651E+03  2.40751E+02  5.36335E+03
 -9.20428E+02  4.82220E+03 -2.80497E+03  3.79232E+02 -8.07512E+02 -1.73800E+03  1.55320E+02  2.68304E+02
  3.77221E+02  2.57672E+02 -4.38967E+02  1.19086E+03 -1.45436E+03  3.48849E+02 -3.55508E+03 -3.90860E+02
 -1.31461E+03 -3.80347E+03  1.45253E+03 -3.20376E+03  1.93874E+03 -4.25873E+03  2.23451E+03 -1.50089E+02
  3.99592E+03  2.09176E+03  1.68885E+03  2.75724E+03  2.20078E-01  3.50787E+03 -1.83114E+03  2.68325E+03
 -3.15231E+03  8.31848E+02 -2.69074E+03 -1.71303E+03  3.79287E+02 -2.12775E+03  1.12952E+03 -2.40445E+03
  2.47112E+03 -1.01531E+03  9.21659E+01  8.37594E+02  7.23178E+02  1.85410E+03  6.18828E+02  1.49867E+03
  8.76351E+02  1.95509E+02  4.07210E+02  1.38217E+03  1.39184E+03  2.93833E+03  2.98048E+02  1.36871E+03
 -1.99286E+03  2.54909E+03 -1.92178E+03  3.50200E+03 -1.94041E+03  6.40912E+02 -4.18847E+03  6.57481E+02
 -1.23048E+03 -3.32957E+03 -1.32675E+02 -4.10629E+03  1.46167E+03 -2.04243E+03  2.41777E+03 -8.54936E+02
  1.51162E+03  1.07939E+03  3.53367E+02  1.88683E+03 -6.68457E+02  6.25900E+02 -1.19756E+03 -7.55858E+02
 -7.15760E+02 -9.51731E+02  2.12639E+03  2.67023E+01  7.24473E+02 -1.83475E+03  1.49995E+03  5.53398E+02
 -4.37455E+01  4.92482E+02  1.01790E+03 -4.60527E+01 -5.74113E+02  6.49562E+02  1.88674E+03  1.16437E+02
 -9.79962E+02 -5.15985E+01  1.36862E+03  6.56184E+01  8.26891E+02  2.49847E+03  4.06196E+02  2.47124E+03
 -1.37762E+03  6.90020E+02 -1.66489E+03  3.09644E+01 -1.06944E+03 -6.03930E+02  1.67800E+02 -5.49828E+02
  6.68409E+02 -6.44681E+02  7.75881E+02 -1.18633E+02  3.14627E+02  5.23569E+02 -9.54744E+02  6.31870E+02
 -1.33114E+03  7.84719E+02  1.87034E+02 -1.18668E+03  2.84929E+02 -2.29822E+03  4.69746E+01 -1.27326E+03
  9.65180E+02  3.96471E+02  4.89386E+02  4.31585E+02  1.35533E+03 -4.62945E+01  7.56704E+02  5.56183E+02
  2.13824E+02  4.31172E+02  3.53194E+01 -5.34415E+02  3.99037E+02 -1.15052E+03  1.78122E+03  1.99617E+00
  7.80580E+02 -1.01021E+03  2.24043E+03  5.40856E+02  1.01767E+03  9.50978E+02 -1.36318E+02  1.14604E+03
 -1.03970E+03  4.30248E+02 -6.00058E+02 -2.84783E+02 -6.08269E+02 -2.02260E+03  1.28679E+02 -6.02037E+02
  1.41446E+03 -1.14410E+02  5.20367E+02  1.15904E+03  3.24767E+02  1.10701E+03 -2.29873E+02  5.17363E+02
 -1.92281E+02  1.26653E+03 -3.88617E+02  2.91096E+02  6.58995E+02  2.85609E+02 -1.28764E+03  6.87422E+02
  9.33526E+00  8.58219E+02 -2.17934E+03  1.51798E+02 -5.06973E+02  3.78673E+01 -1.45264E+03 -2.55498E+03
  4.31635E+02 -1.03214E+03  6.85714E+02 -2.11572E+03 -1.25472E+02 -1.89327E+03  1.88963E+03 -1.03745E+03
  2.37693E+03  4.27775E+02  3.05204E+02  9.78659E+02 -1.10220E+03  1.48891E+02 -7.00136E+02 -1.54844E+02
 -6.14960E+02  8.40932E+02 -1.24340E+03 -1.49956E+02 -8.17542E+02 -3.64325E+00 -2.62443E+02 -3.28884E+02
 -1.81790E+03 -9.66462E+01 -2.34770E+02  1.72250E+02  8.29412E+01 -1.19501E+02 -8.97042E+02 -6.01954E+02
  1.64729E+03 -1.22637E+03  3.82884E+02 -2.29751E+02  9.61444E+02 -3.98348E+02 -1.03437E+03  1.21062E+03
 -9.08480E+02  1.45735E+03 -1.05260E+03  4.59573E+02 -9.73019E+02 -1.56517E+03 -1.72513E+03 -8.87603E+02
 -4.71994E+02 -7.83396E+02 -5.64707E+02 -1.27670E+03  7.40722E+02  7.97618E+01  4.12893E+01  4.39607E+02
  2.63469E+02  3.44517E+02  2.77864E+02  7.47283E+02 -5.25261E+02  3.62629E+02  4.06082E+02 -1.11311E+03
  4.04482E+02  9.97136E+02  8.71657E+02  1.10359E+03 -1.33229E+02  8.32465E+02  7.35226E+02 -1.61277E+02
 -2.36150E+00  3.45968E+02 -8.65414E+02  8.03056E+02  2.35929E+02 -1.29158E+03  1.37258E+03 -6.03735E+02
  1.12144E+02 -5.90882E+02 -2.05333E+02  1.81051E+02  5.79637E+02 -3.13300E+02  8.52658E+02 -3.46353E+02
 -3.64018E+02 -3.49920E+01 -7.23135E+02 -1.50113E+02  2.20944E+02  9.15254E+01 -5.37013E+02  1.25204E+03
 -1.43672E+02 -6.96041E+02 -1.46475E+02  3.73462E+02 -1.94602E+02  1.08621E+03 -1.12050E+03  8.79428E+02
 -1.40599E+03  1.24989E+02 -1.69519E+02 -1.22437E+03  2.81473E+02 -1.92738E+03  2.79895E+02 -2.13509E+02
 -5.40145E+00  1.40588E+02 -6.33697E+02  2.50452E+02  2.82040E+02  4.41440E+02 -8.54517E+02  8.73152E+02
