 $NMID ID='MM_0lb_SNR200_11hz_g55_61.RAW', FMTDAT='(8E13.5)'
 TRAMP=1., VOLUME=1. $END
  3.09378E+05 -1.89248E+01  3.38507E+05  2.50384E+05  8.55169E+04  3.37330E+05 -1.33410E+05  2.51354E+05
 -1.91051E+05  8.41580E+04 -1.12213E+05 -3.35759E+04  2.78269E+02 -5.03238E+04  5.44010E+04 -6.98311E+02
  3.65184E+04  5.43386E+04 -1.63959E+04  7.67097E+04 -6.12314E+04  6.49174E+04 -8.52005E+04  3.21760E+04
 -8.26106E+04 -1.22456E+04 -5.57903E+04 -5.18533E+04 -1.47510E+04 -7.00355E+04  2.86377E+04 -4.58977E+04
  4.00262E+04  3.78423E+03  1.75405E+04  4.93970E+04 -3.46449E+04  4.84206E+04 -6.66691E+04  2.33994E+02
 -5.43953E+04 -5.87728E+04 -5.87296E+03 -7.86243E+04  3.48943E+04 -5.87260E+04  4.75757E+04 -1.85785E+04
  4.40073E+04  1.10375E+04  3.37478E+04  2.64242E+04  1.63006E+04  3.22333E+04 -7.24848E+03  2.85378E+04
 -2.23562E+04  1.26327E+04 -1.73638E+04 -4.72924E+03  6.39089E+03 -6.97287E+03  2.26828E+04  1.36155E+04
  7.45373E+03  3.78435E+04 -3.26448E+04  3.69432E+04 -6.70100E+04  1.73595E+03 -5.85621E+04 -4.39765E+04
 -1.25061E+04 -6.48962E+04  4.14810E+04 -4.71454E+04  6.18234E+04 -3.15755E+03  3.64397E+04  3.45785E+04
 -4.18100E+03  3.75770E+04 -3.04684E+04  1.93744E+04 -3.31596E+04 -2.98899E+03 -1.90911E+04 -1.14358E+04
 -9.38013E+03 -1.49224E+04 -1.08655E+02 -1.93276E+04  9.05775E+03 -2.26078E+04  1.53142E+04 -1.27466E+04
  9.77636E+03  5.88254E+03 -1.06739E+04  1.29062E+04 -2.20413E+04 -6.43451E+03 -7.83929E+03 -3.61951E+04
  2.53722E+04 -4.52666E+04  5.07142E+04 -2.02377E+04  4.78314E+04  2.02771E+04  1.83383E+04  4.62151E+04
 -1.53811E+04  3.40799E+04 -2.63403E+04  2.28327E+03 -1.15485E+04 -2.99713E+04  2.02827E+04 -3.58050E+04
  4.37873E+04 -9.98383E+03  3.96353E+04  2.53842E+04  2.06822E+04  4.83435E+04 -8.10836E+03  5.51087E+04
 -3.46036E+04  3.74711E+04 -4.62719E+04  9.02115E+03 -4.66843E+04 -1.83734E+04 -2.68338E+04 -4.17305E+04
  6.15908E+03 -4.08424E+04  3.31497E+04 -1.60608E+04  2.95568E+04  1.33669E+04  4.67760E+03  2.20258E+04
 -1.32489E+04  8.62171E+03 -1.04800E+04 -6.48661E+03  6.98220E+03 -1.23896E+04  1.79573E+04  6.10366E+03
  1.41191E+04  2.19098E+04 -3.95283E+03  2.57946E+04 -2.35670E+04  1.22390E+04 -3.11102E+04 -3.33697E+03
 -2.37537E+04 -1.84529E+04 -1.04414E+04 -2.24828E+04  5.02445E+03 -2.41314E+04  1.73456E+04 -2.22940E+04
  2.93148E+04 -1.29151E+04  3.68679E+04  5.73091E+03  2.41696E+04  2.38336E+04  4.00342E+03  4.05562E+04
 -1.83809E+04  3.29105E+04 -3.01038E+04  1.12385E+04 -2.13233E+04 -9.69331E+03 -5.47031E+03 -1.24964E+04
  1.98853E+03 -1.30010E+03 -6.97017E+03  6.50199E+03 -1.86377E+04  4.35840E+03 -1.81161E+04 -9.74835E+03
 -1.32299E+04 -2.32563E+04  5.11447E+03 -2.70839E+04  1.81089E+04 -1.80045E+04  2.01945E+04 -1.69882E+03
  1.47961E+04  1.52003E+04 -7.41349E+02  2.21842E+04 -1.53125E+04  1.26769E+04 -2.23274E+04 -3.87636E+03
 -1.53497E+04 -1.87661E+04 -1.86645E+03 -2.67379E+04  1.12971E+04 -2.34578E+04  2.19386E+04 -1.06460E+04
  2.10571E+04  9.40531E+02  1.50506E+04  4.70047E+03  8.61595E+03  8.46936E+02  1.08789E+04 -9.28982E+02
  1.99164E+04  1.16204E+03  2.33862E+04  1.84465E+04  1.60149E+04  3.57259E+04 -1.97571E+03  4.02482E+04
 -2.29847E+04  3.38463E+04 -3.80669E+04  1.69001E+04 -4.10239E+04 -3.33045E+03 -3.34039E+04 -2.44812E+04
 -1.35220E+04 -3.52070E+04  1.20733E+04 -2.99879E+04  2.62242E+04 -1.44516E+04  2.35032E+04  7.10899E+03
  8.18400E+03  1.74256E+04 -1.11597E+04  1.55603E+04 -1.83557E+04  2.75677E+03 -1.44557E+04 -1.13188E+04
  3.39875E+02 -1.70894E+04  9.74511E+03 -1.31057E+04  1.33105E+04 -1.78253E+03  4.16007E+03  7.82792E+03
 -6.85155E+03  2.26871E+03 -8.73996E+03 -6.45203E+03 -1.84888E+03 -1.64456E+04  1.24675E+04 -1.73177E+04
  2.22175E+04 -8.15306E+03  2.26957E+04  2.84792E+03  2.27101E+04  1.72056E+04  9.33407E+03  2.65401E+04
 -6.06033E+03  2.83022E+04 -1.76517E+04  1.78673E+04 -2.18057E+04  5.06302E+03 -1.37109E+04 -5.89807E+03
 -7.40580E+03 -7.35943E+03 -2.79983E+03 -2.61981E+02 -2.37506E+03  2.04666E+03 -6.51041E+03  5.50516E+03
 -1.36824E+04 -1.48941E+03 -1.38359E+04 -1.02163E+04 -6.33484E+03 -1.70883E+04  6.09559E+03 -1.43707E+04
  1.23041E+04 -5.17765E+03  8.56236E+03  3.65868E+03  1.56997E+03  6.48341E+03 -7.33470E+03  1.63811E+02
 -5.90196E+03 -8.54877E+03  4.84277E+02 -1.31590E+04  7.43199E+03 -1.37990E+04  1.97920E+04 -6.85439E+03
  2.16557E+04  2.71196E+03  1.62234E+04  1.34422E+04  4.03037E+03  1.65147E+04 -8.03105E+03  1.43345E+04
 -1.06761E+04  3.98097E+03 -5.63036E+03 -1.78964E+03  2.79710E+03 -4.28105E+03  6.34405E+03 -5.84625E+02
  7.32214E+03  5.88133E+03  2.09513E+03  1.26706E+04 -8.88481E+03  1.08531E+04 -1.33466E+04  1.97027E+03
 -9.27897E+03 -7.47520E+03  6.15905E+02 -1.27326E+04  6.55040E+03 -6.85719E+03  7.53750E+03  1.59251E+03
  2.25376E+03  9.55810E+03 -7.38365E+03  9.61275E+03 -1.24603E+04  3.72401E+03 -1.12223E+04 -5.31618E+03
 -8.58272E+03 -1.39899E+04  3.72353E+03 -1.52916E+04  1.28040E+04 -9.79859E+03  1.46832E+04  1.79177E+03
  8.37697E+03  1.13978E+04 -1.70159E+03  1.39691E+04 -1.08805E+04  8.03611E+03 -1.08122E+04 -1.10144E+03
 -9.45474E+03 -8.41709E+03 -1.80273E+03 -1.11174E+04  6.12098E+03 -7.51957E+03  6.85334E+03 -4.59596E+03
  2.83267E+03  1.99384E+03 -1.82438E+03  2.63600E+03 -4.16269E+02 -2.82677E+03  1.52518E+03 -6.37699E+03
  9.45620E+03 -3.14251E+03  1.49805E+04  2.30508E+03  1.24051E+04  1.00475E+04  9.11420E+03  1.96264E+04
 -3.65834E+03  2.03855E+04 -1.79459E+04  1.55468E+04 -2.34220E+04  1.20762E+03 -1.86329E+04 -9.16109E+03
 -8.94984E+03 -1.50732E+04  3.07886E+02 -1.27590E+04  2.96997E+03 -7.20330E+03  3.82800E+03 -4.52041E+03
  2.19696E+03 -2.62318E+03  2.95829E+03 -3.75243E+03  7.19836E+03 -4.36581E+03  5.98507E+03 -5.04485E+02
  8.78423E+03  2.70419E+03  4.19362E+03  7.90430E+03 -1.79957E+03  8.65479E+03 -8.71005E+03  8.36990E+03
 -1.16867E+04 -2.06659E+03 -7.87843E+03 -9.87667E+03  4.03601E+02 -1.34242E+04  7.06398E+03 -1.31521E+04
  1.32054E+04 -6.30448E+03  1.63325E+04  2.39474E+03  1.01928E+04  1.18261E+04  2.11590E+03  1.41190E+04
 -7.41945E+03  1.13744E+04 -8.78238E+03  4.34641E+03 -5.09798E+03 -2.34381E+03 -1.64664E+03 -2.08868E+02
 -2.32787E+03  1.93683E+03 -3.12683E+02  2.30466E+03 -5.57868E+03  2.23354E+03 -8.49534E+03 -1.75118E+03
 -6.37345E+03 -9.14775E+03 -3.03516E+02 -1.30309E+04  8.47554E+03 -1.08508E+04  1.03726E+04 -3.63685E+03
  1.29566E+04  6.80769E+03  6.48237E+03  1.12898E+04 -2.71143E+03  1.21244E+04 -8.40613E+03  7.57694E+03
 -1.12842E+04  5.23262E+02 -8.47007E+03 -6.63012E+03 -6.83951E+02 -1.03439E+04  6.02851E+03 -6.92946E+03
  9.32438E+03 -2.11665E+03  5.94047E+03  3.10834E+03  1.07411E+03  3.42402E+03  1.08407E+03  2.34662E+03
  2.51157E+03  9.62040E+02  2.41695E+03  9.07219E+02  2.05920E+03  4.02486E+03  4.01421E+03  7.33591E+03
 -1.08153E+03  1.06691E+04 -8.84028E+03  9.84449E+03 -1.09669E+04  4.25903E+03 -1.20077E+04 -3.83636E+03
 -5.10359E+03 -1.19215E+04  7.85060E+02 -1.38673E+04  7.51651E+03 -8.49044E+03  1.02664E+04 -1.50686E+03
  7.99501E+03  6.32456E+03  1.97142E+03  6.26310E+03 -4.01182E+03  4.02659E+03 -4.98900E+03 -5.31826E+02
 -1.56121E+03 -5.05253E+03  3.02823E+03 -5.40173E+03  4.64235E+03 -3.30817E+03  4.99608E+03  1.29898E+03
  3.04026E+03  1.35194E+03  1.56336E+03  5.53264E+02 -7.94394E+02  2.15709E+03  1.48034E+03 -1.90391E+02
  2.47555E+03 -1.09213E+03  4.83789E+03  1.38204E+03  4.02704E+02  6.04882E+03  2.34248E+02  9.11764E+03
 -6.87368E+03  3.85533E+03 -7.68279E+03  1.56686E+03 -5.86269E+03 -2.92202E+03 -1.84536E+03 -4.20560E+03
  6.75283E+02 -5.47655E+03  2.56218E+03 -8.60896E+02  2.38199E+03  2.57427E+03  2.79157E+01  4.55772E+03
 -4.92119E+03  3.00202E+03 -5.58935E+03 -1.83731E+03 -7.59548E+02 -7.16642E+03  1.12208E+03 -7.20184E+03
  5.40728E+03 -4.05851E+03  5.01100E+03 -1.31243E+03  3.95527E+03  1.69640E+03  9.23856E+02  3.36194E+03
 -2.39759E+03  2.07290E+02 -3.11605E+03 -2.32657E+03  8.50047E+02 -6.35370E+03  5.26864E+03 -4.85479E+03
  7.06969E+03 -4.17277E+02  9.17232E+03  4.33713E+03  1.22779E+03  6.48759E+03 -2.02745E+03  6.30255E+03
 -6.47717E+03  3.46174E+03 -7.48481E+03 -8.06106E+02 -4.62139E+03 -6.37159E+03  1.85019E+03 -3.71946E+03
  7.80327E+03 -2.55646E+03  4.13590E+03  1.53168E+03  1.76724E+03  3.88175E+03 -1.29364E+03  3.58182E+03
 -2.50825E+03  2.34605E+03 -4.48609E+02 -6.72331E+01 -1.72704E+02  5.68856E+02 -1.65751E+03  1.80786E+03
 -1.76463E+03  3.35129E+03 -4.47231E+03  3.44714E+03 -7.11942E+03 -1.77300E+02 -7.57696E+03 -3.02949E+03
 -4.65272E+03 -1.04371E+04  1.62941E+03 -1.19439E+04  6.13915E+03 -9.43489E+03  1.09558E+04 -3.10902E+03
  1.04701E+04  3.18835E+03  6.26053E+03  6.86991E+03  2.66112E+02  8.84910E+03 -2.83023E+03  5.67573E+03
 -3.66591E+03  1.97584E+03 -2.56858E+03 -7.29495E+02 -2.91474E+01  6.98806E+02 -1.66698E+03  3.38336E+02
 -1.03395E+03  2.11497E+01 -2.50753E+03 -1.39526E+03  7.12883E+02 -1.12301E+03 -3.30431E+01 -3.38937E+03
  4.15920E+03 -1.85830E+03  3.59807E+03  6.18259E+02  4.54284E+03  4.88707E+03  1.89942E+03  8.04476E+03
 -4.23248E+03  7.97067E+03 -9.02371E+03  4.21695E+03 -8.75779E+03 -2.09390E+03 -6.88246E+03 -5.93434E+03
 -2.76799E+03 -8.82534E+03  9.55773E+02 -7.49354E+03  4.78079E+03 -4.11405E+03  4.92734E+03 -5.35291E+02
  2.16459E+03  3.28127E+03  1.02066E+03  1.96903E+03 -1.41027E+03  6.24294E+02  7.12954E+02 -1.16880E+03
  2.04000E+03  3.82200E+02  3.50335E+03 -8.86301E+02  1.83241E+03  2.08239E+03  2.26367E+02  2.89964E+03
 -3.35346E+03  2.49564E+03 -4.24675E+03  1.40364E+03 -5.86643E+03 -2.45593E+03  2.74166E+02 -6.31527E+03
  3.82422E+03 -3.25426E+03  5.04890E+03 -1.52061E+03  5.63969E+03  5.60718E+02  2.16672E+03  4.24466E+03
  3.63298E+02  5.11385E+03 -9.86802E+02  3.86450E+03 -1.38978E+03  1.56740E+03 -3.00802E+03 -2.29253E+03
 -1.24199E+03 -1.32660E+02 -1.90873E+03 -2.77399E+02 -3.21550E+03  2.42600E+02 -5.01347E+03 -2.11599E+02
 -3.70069E+03 -2.57239E+03 -1.79781E+03 -5.84550E+03  2.94315E+03 -5.52984E+03  4.06751E+03 -4.26080E+03
  4.91871E+03  3.85538E+02  1.51997E+03  3.30352E+03  7.16241E+02  3.94137E+03 -4.12114E+03  3.37090E+03
