 $NMID ID='MM_0lb_SNR200_14hz_g60_90.RAW', FMTDAT='(8E13.5)'
 TRAMP=1., VOLUME=1. $END
  3.09609E+05  8.56616E+02  3.36920E+05  2.50308E+05  8.47676E+04  3.38093E+05 -1.32440E+05  2.52117E+05
 -1.90979E+05  8.43142E+04 -1.12332E+05 -3.07469E+04 -5.67878E+02 -5.16848E+04  5.31780E+04  3.91763E+01
  3.53879E+04  5.24895E+04 -1.66131E+04  7.56423E+04 -6.15172E+04  6.39860E+04 -8.43160E+04  3.31084E+04
 -8.21312E+04 -1.25068E+04 -5.73462E+04 -5.03247E+04 -1.56413E+04 -6.98231E+04  2.78566E+04 -4.52257E+04
  4.04699E+04  3.35944E+03  1.71377E+04  4.77584E+04 -3.31868E+04  4.59826E+04 -6.72003E+04  1.80278E+02
 -5.41074E+04 -5.75103E+04 -6.96306E+03 -7.83715E+04  3.44423E+04 -5.50874E+04  4.88290E+04 -1.78599E+04
  4.58715E+04  1.03208E+04  3.09606E+04  2.57726E+04  1.42333E+04  3.05884E+04 -4.92627E+03  2.70621E+04
 -2.28950E+04  1.17367E+04 -1.84016E+04 -5.87836E+03  6.53262E+03 -6.90957E+03  2.30050E+04  1.20520E+04
  7.51282E+03  3.62767E+04 -3.15431E+04  3.55959E+04 -6.37999E+04  2.19008E+03 -5.76931E+04 -4.29735E+04
 -1.32705E+04 -6.34267E+04  4.01620E+04 -4.43178E+04  5.99073E+04 -1.92870E+03  3.54799E+04  3.33429E+04
 -4.88717E+03  3.76522E+04 -3.08631E+04  1.67028E+04 -3.20276E+04 -5.90000E+03 -1.78433E+04 -1.12612E+04
 -8.29291E+03 -1.30267E+04 -1.17267E+03 -1.79999E+04  8.10652E+03 -2.32566E+04  1.51080E+04 -1.34462E+04
  1.12999E+04  6.57818E+03 -1.00716E+04  1.21109E+04 -2.35903E+04 -6.38549E+03 -9.16867E+03 -3.54498E+04
  2.34007E+04 -4.39947E+04  5.07257E+04 -2.11460E+04  4.56744E+04  1.95230E+04  1.68592E+04  4.69186E+04
 -1.66107E+04  3.41167E+04 -2.59444E+04  1.69753E+03 -1.16983E+04 -2.79821E+04  2.15498E+04 -3.52697E+04
  4.21540E+04 -1.06142E+04  3.69946E+04  2.38759E+04  1.84105E+04  4.67524E+04 -8.08004E+03  5.33133E+04
 -3.29349E+04  3.39594E+04 -4.33146E+04  1.15325E+04 -4.49866E+04 -1.73648E+04 -2.48450E+04 -3.80460E+04
  8.08655E+03 -4.01543E+04  3.16397E+04 -1.65702E+04  2.99974E+04  1.01183E+04  5.91807E+03  2.01571E+04
 -1.35978E+04  8.56574E+03 -1.05555E+04 -8.61096E+03  6.07143E+03 -1.20854E+04  1.78847E+04  6.39005E+03
  1.42377E+04  2.27850E+04 -5.43743E+03  2.63221E+04 -2.15178E+04  1.33945E+04 -2.89901E+04 -3.10448E+03
 -2.27368E+04 -1.70093E+04 -1.05060E+04 -2.21503E+04  3.66408E+03 -2.07280E+04  1.80919E+04 -1.88278E+04
  2.71729E+04 -1.24893E+04  3.43026E+04  3.22868E+03  2.39403E+04  2.19647E+04  4.66659E+03  3.84331E+04
 -1.96850E+04  3.09242E+04 -2.93631E+04  1.00581E+04 -2.24661E+04 -9.72071E+03 -5.07553E+03 -1.30576E+04
 -7.60454E+02 -2.38593E+03 -4.53515E+03  6.41706E+03 -1.77278E+04  5.34047E+03 -1.72440E+04 -7.23126E+03
 -1.05144E+04 -1.94383E+04  4.90936E+03 -2.51643E+04  1.60870E+04 -1.84710E+04  1.85029E+04 -2.09729E+03
  1.18596E+04  1.42565E+04 -1.54733E+03  1.98915E+04 -1.29605E+04  1.17085E+04 -1.88436E+04 -5.30868E+03
 -1.28261E+04 -1.80067E+04 -1.88179E+03 -2.45726E+04  1.12774E+04 -2.11096E+04  2.02546E+04 -1.06269E+04
  1.86130E+04 -3.89184E+02  1.38227E+04  6.11713E+03  7.93818E+03  7.30043E+02  1.12669E+04 -8.49164E+02
  1.98567E+04  3.99748E+03  2.08598E+04  1.51603E+04  1.23749E+04  3.24090E+04 -2.68349E+03  3.61720E+04
 -2.08318E+04  2.95978E+04 -3.35984E+04  1.61784E+04 -3.63268E+04 -2.08359E+03 -2.83616E+04 -2.11180E+04
 -1.11579E+04 -3.09305E+04  1.08272E+04 -2.74971E+04  2.27279E+04 -1.21624E+04  2.09063E+04  7.43824E+03
  9.61645E+03  1.57363E+04 -9.10281E+03  1.33972E+04 -1.61435E+04  1.27533E+03 -1.28889E+04 -1.11001E+04
  1.00356E+03 -1.60762E+04  8.43037E+03 -1.17092E+04  1.25876E+04 -2.79239E+03  1.95865E+03  6.94722E+03
 -7.31856E+03  2.33422E+03 -5.74354E+03 -5.36183E+03 -1.29525E+03 -1.40460E+04  9.81313E+03 -1.50713E+04
  1.90840E+04 -9.52124E+03  2.11655E+04  2.33665E+03  1.69770E+04  1.38816E+04  7.87793E+03  2.22610E+04
 -3.16461E+03  2.45931E+04 -1.50942E+04  1.57501E+04 -1.79969E+04  3.11196E+03 -1.23188E+04 -4.79733E+03
 -5.53276E+03 -4.61513E+03 -5.98086E+02  9.66444E+00 -2.32232E+03  2.38147E+03 -5.04269E+03  4.78241E+03
 -1.23646E+04 -6.87025E+02 -1.00806E+04 -9.31089E+03 -4.57089E+03 -1.57425E+04  4.36957E+03 -1.36240E+04
  9.77518E+03 -4.30714E+03  5.74586E+03  2.80016E+03 -2.04510E+02  5.22543E+03 -4.46334E+03 -1.06368E+03
 -6.06973E+03 -7.99731E+03 -1.47442E+03 -1.14852E+04  6.78728E+03 -1.18738E+04  1.52200E+04 -6.94106E+03
  1.81122E+04  1.68752E+03  1.30999E+04  1.06134E+04  2.02416E+03  1.39029E+04 -7.05999E+03  1.21132E+04
 -1.01789E+04  2.62227E+03 -4.92078E+03 -2.88117E+03  4.59369E+02 -2.93722E+03  7.60053E+03 -3.95873E+02
  5.65410E+03  5.91566E+03  1.48035E+03  9.83308E+03 -5.74810E+03  8.25815E+03 -1.20011E+04  1.89718E+03
 -7.81706E+03 -7.58006E+03 -8.68990E+02 -1.05827E+04  7.00180E+03 -4.92398E+03  6.44161E+03  2.27573E+03
  1.12338E+03  6.80059E+03 -5.91579E+03  9.38878E+03 -8.31223E+03  4.77680E+03 -8.77319E+03 -3.60663E+03
 -5.70319E+03 -1.08872E+04  1.80774E+03 -1.24102E+04  1.02703E+04 -7.77878E+03  1.09242E+04  1.62231E+03
  6.22821E+03  9.18273E+03 -2.19019E+03  1.20817E+04 -5.97099E+03  7.35812E+03 -8.35511E+03 -1.68728E+03
 -8.38680E+03 -8.70463E+03 -1.02567E+03 -8.28907E+03  4.59781E+03 -7.90403E+03  6.31583E+03 -3.71956E+03
  3.25843E+03  7.46067E+01 -8.20228E+02  1.58407E+03  8.68982E+02 -1.80191E+03  6.30919E+02 -5.20383E+03
  7.90709E+03 -2.69717E+03  9.93600E+03  1.01506E+02  9.20093E+03  7.59928E+03  8.66936E+03  1.49081E+04
 -2.80722E+03  1.49159E+04 -1.37675E+04  1.22348E+04 -1.72131E+04  2.22133E+03 -1.40467E+04 -4.78757E+03
 -6.61480E+03 -1.20144E+04  1.03984E+02 -1.02127E+04  2.37218E+03 -4.85966E+03  2.88864E+03 -3.09355E+03
  3.40702E+03 -2.38568E+03  1.59408E+03 -2.69856E+03  5.28847E+03 -3.79480E+03  5.67010E+03 -1.31095E+03
  7.58871E+03  1.29599E+03  4.22147E+03  6.03418E+03 -1.39915E+03  6.06123E+03 -7.49756E+03  4.24233E+03
 -9.25552E+03 -1.55749E+03 -5.13782E+03 -6.17794E+03 -1.59618E+03 -1.06574E+04  6.24318E+03 -9.97877E+03
  9.23659E+03 -5.60321E+03  1.27859E+04  9.28356E+02  9.46774E+03  8.14441E+03  2.43657E+02  1.20346E+04
 -4.53233E+03  9.22895E+03 -6.19017E+03  3.08807E+03 -4.81388E+03 -2.68030E+03 -1.87861E+03 -1.75956E+03
 -7.73692E+02 -1.55209E+03 -8.53722E+02  2.70761E+03 -4.04781E+03  1.79654E+03 -6.46761E+03 -1.65998E+03
 -3.80505E+03 -6.72946E+03  9.97030E+01 -9.23015E+03  5.45601E+03 -7.73481E+03  9.06334E+03 -1.71817E+03
  8.78136E+03  5.18351E+03  3.46723E+03  7.15200E+03 -2.36274E+03  9.72057E+03 -5.60040E+03  5.71218E+03
 -7.56566E+03  5.78179E+02 -6.65661E+03 -5.17163E+03 -4.43481E+02 -6.99611E+03  2.48922E+03 -4.52916E+03
  5.84946E+03 -8.16238E+02  3.47210E+03 -1.24645E+02  5.05313E+02  3.08258E+03  6.67765E+02  2.36863E+02
  2.73118E+03 -1.40290E+02  2.96715E+03  1.96954E+03  2.36628E+03  3.71337E+03  2.70684E+03  3.42197E+03
 -1.83261E+03  7.08691E+03 -5.89299E+03  6.52426E+03 -5.77480E+03  1.45531E+03 -8.20688E+03 -3.38341E+03
 -3.44537E+03 -8.26451E+03  2.02764E+03 -8.65541E+03  4.77348E+03 -5.08894E+03  8.05505E+03 -1.19422E+03
  5.60920E+03  2.26212E+03  2.22645E+03  4.56425E+03 -1.63660E+03  2.36914E+03 -2.23202E+03  9.60086E+02
 -8.50700E+02 -2.91681E+03  1.03485E+03 -3.84373E+03  4.38216E+03 -2.24222E+03  3.46440E+03  3.19494E+01
  1.83630E+03  1.62205E+03  9.65303E+02  1.26886E+03 -5.68180E+02  4.85342E+02  1.08043E+03  1.07563E+02
  3.66170E+02 -5.75012E+02  2.19332E+03  2.82926E+03  1.99067E+03  5.83435E+03  9.17898E+02  5.54012E+03
 -3.68512E+03  2.07552E+03 -5.16517E+03  2.29572E+03 -4.07370E+03 -1.94944E+03 -1.88176E+03 -3.31209E+03
  1.02414E+03 -4.61689E+03  1.55062E+03  7.01406E+02  7.00895E+02  1.41127E+03 -2.32678E+03  1.83482E+03
 -3.49253E+03  1.42521E+03 -3.39740E+03 -3.18955E+03 -1.98461E+03 -4.09537E+03  1.10132E+02 -3.72586E+03
  3.13591E+03 -2.14588E+03  2.45862E+03  3.35055E+02  3.51457E+03  1.03496E+03  4.61706E+02  2.26109E+03
 -1.27125E+03  8.14609E+01 -2.18669E+03 -1.22287E+03  1.18064E+03 -2.35048E+03  3.07484E+03 -9.03879E+02
  4.32358E+03  1.31560E+02  5.08699E+03  2.67226E+03  2.11253E+03  4.71192E+03 -2.75694E+03  4.78456E+03
 -4.02344E+03  5.66730E+02 -4.13694E+03 -3.77471E+02 -4.90633E+02 -2.19250E+03  4.61384E+02 -2.71647E+03
  4.18668E+03 -1.09248E+03  1.89447E+03  1.92565E+03 -3.39238E+02  2.88444E+03 -8.50687E+02  2.41656E+03
 -1.15730E+03  1.45996E+03 -1.11423E+03  1.77481E+03 -3.13763E+02  1.23837E+03 -3.01444E+01  3.29395E+03
 -2.45525E+01  1.23243E+03 -2.49528E+03  2.18933E+03 -5.45538E+03 -3.92094E+02 -5.47020E+03 -3.82935E+03
 -3.11457E+03 -6.72654E+03  8.37987E+02 -6.33939E+03  4.40214E+03 -7.02084E+03  5.91637E+03 -1.59711E+03
  6.25958E+03  7.03288E+02  2.09541E+03  3.41419E+03 -4.12082E+02  3.86652E+03 -3.01349E+03  2.71507E+03
 -2.57555E+03  1.68208E+03 -1.64295E+03  4.24791E+01  3.84049E+02 -1.15827E+03  9.35435E+02  2.24173E+02
 -2.73044E+03 -2.81302E+02 -3.06299E+03  7.26589E+02 -1.09285E+03  1.33031E+02  1.59095E+03 -2.18317E+03
  2.19380E+03 -1.99083E+03  2.24964E+03 -6.83005E+02  1.80172E+03  2.74802E+03  2.77767E+01  3.32818E+03
 -2.47088E+03  4.96874E+03 -4.45067E+03  2.30000E+03 -4.94619E+03 -9.74271E+02 -2.51639E+03 -3.39053E+03
 -1.63068E+03 -3.15597E+03  1.73428E+03 -3.60798E+03  2.41839E+03 -7.71842E+02  2.74079E+03  3.09747E+02
  3.36393E+03  8.97295E+02 -9.59433E+01  1.78178E+03 -1.37702E+03 -7.92121E+02 -6.08507E+02 -1.97286E+03
  7.51182E+02 -3.21999E+02  1.01566E+03  2.01881E+02  1.55745E+03  4.88946E+02  5.06701E+02  1.81207E+03
 -1.79941E+03  1.85478E+03 -3.20176E+03 -7.95975E+02 -1.56535E+03 -3.32824E+03 -3.75022E+02 -3.77402E+03
  8.11362E+02 -2.38110E+03  2.06482E+03 -3.42241E+02  3.00445E+03 -5.21498E+01  1.98446E+03  2.38968E+03
 -9.62000E+01  1.66984E+03 -8.21655E+02  1.18220E+03 -1.76572E+03  1.21201E+03 -5.42021E+02  4.70752E+02
 -1.10890E+03 -1.53027E+02 -5.00312E+02 -6.61342E+02 -1.05210E+03 -6.54767E+02 -1.94867E+03 -1.33537E+02
 -2.23231E+03 -1.38810E+03 -7.32890E+02 -2.79412E+03  7.37267E+02 -1.54076E+03  2.62724E+03 -1.13400E+03
  1.58557E+03  3.54051E+02  1.93063E+02  1.87371E+03 -4.36240E+02  2.58679E+03 -2.07224E+03  6.79893E+02
