 $NMID ID='MM_0lb_SNR200_16hz_g50_51.RAW', FMTDAT='(8E13.5)'
 TRAMP=1., VOLUME=1. $END
  3.09577E+05 -3.64694E+02  3.36196E+05  2.50364E+05  8.43545E+04  3.36992E+05 -1.32042E+05  2.51016E+05
 -1.89334E+05  8.29259E+04 -1.11990E+05 -3.37910E+04  1.32916E+03 -5.01194E+04  5.34264E+04  1.12472E+02
  3.67623E+04  5.27497E+04 -1.67336E+04  7.59505E+04 -6.03633E+04  6.33112E+04 -8.40952E+04  3.18629E+04
 -8.01497E+04 -1.12340E+04 -5.67934E+04 -4.89506E+04 -1.57012E+04 -6.96075E+04  2.71815E+04 -4.59049E+04
  4.03424E+04  3.86940E+03  1.62919E+04  4.60954E+04 -3.37234E+04  4.64783E+04 -6.61388E+04 -3.51101E+02
 -5.39565E+04 -5.62700E+04 -6.51993E+03 -7.60049E+04  3.31414E+04 -5.55334E+04  4.77411E+04 -1.69688E+04
  4.22824E+04  1.11602E+04  3.16354E+04  2.46245E+04  1.56245E+04  2.77517E+04 -4.80833E+03  2.83433E+04
 -2.25327E+04  1.23469E+04 -1.88013E+04 -4.28920E+03  5.40123E+03 -7.03098E+03  2.10374E+04  1.20564E+04
  7.23329E+03  3.32749E+04 -3.14618E+04  3.46907E+04 -6.18995E+04  2.47099E+03 -5.60087E+04 -4.24432E+04
 -1.22535E+04 -6.14728E+04  4.08951E+04 -4.40296E+04  5.60187E+04 -1.94917E+03  3.39136E+04  3.03363E+04
 -6.59965E+03  3.42624E+04 -2.98539E+04  1.47191E+04 -2.99350E+04 -5.09359E+03 -1.56612E+04 -1.11303E+04
 -8.13293E+03 -1.38230E+04 -1.35448E+03 -1.72192E+04  7.34846E+03 -2.31386E+04  1.52892E+04 -1.18024E+04
  1.22270E+04  3.47296E+03 -7.25893E+03  1.45073E+04 -1.98590E+04 -3.74659E+03 -8.96968E+03 -3.18028E+04
  2.21561E+04 -4.37984E+04  4.73460E+04 -1.95436E+04  4.36102E+04  1.91138E+04  1.46463E+04  4.30087E+04
 -1.55542E+04  3.19301E+04 -2.38040E+04  8.54004E+02 -9.40804E+03 -2.72044E+04  2.15363E+04 -3.19294E+04
  4.01404E+04 -9.30402E+03  3.35016E+04  2.36330E+04  1.75015E+04  4.39608E+04 -7.38108E+03  4.88892E+04
 -3.02016E+04  3.20914E+04 -4.04139E+04  9.91634E+03 -4.20229E+04 -1.56403E+04 -2.25254E+04 -3.71772E+04
  7.83845E+03 -3.68457E+04  3.14993E+04 -1.40256E+04  2.86933E+04  1.01936E+04  3.89868E+03  1.93392E+04
 -1.33286E+04  8.60348E+03 -1.06604E+04 -7.86164E+03  5.61977E+03 -1.04146E+04  1.72184E+04  5.30924E+03
  1.42256E+04  2.12243E+04 -6.74649E+03  2.34581E+04 -2.17799E+04  1.00014E+04 -2.61817E+04 -4.26522E+03
 -1.95605E+04 -1.67247E+04 -8.10799E+03 -1.85126E+04  3.89675E+03 -1.77898E+04  1.50328E+04 -1.57394E+04
  2.33236E+04 -1.32994E+04  3.07114E+04  1.31024E+03  2.30269E+04  1.83923E+04  4.64001E+03  3.48587E+04
 -1.61316E+04  3.08494E+04 -2.63357E+04  1.01110E+04 -2.00560E+04 -1.02369E+04 -1.64711E+03 -1.34870E+04
  2.62550E+03 -3.74082E+03 -3.20778E+03  6.49318E+03 -1.58688E+04  5.79013E+03 -1.43653E+04 -4.64284E+03
 -9.18143E+03 -1.76870E+04  5.28159E+03 -2.16849E+04  1.45116E+04 -1.49658E+04  1.66072E+04 -2.64415E+03
  1.12912E+04  1.21459E+04 -1.00185E+03  1.74623E+04 -1.23915E+04  9.36234E+03 -1.84667E+04 -4.20560E+03
 -1.23529E+04 -1.65007E+04 -1.92659E+03 -2.02266E+04  9.88286E+03 -1.73267E+04  1.79902E+04 -7.95788E+03
  1.54254E+04  1.03960E+03  1.34040E+04  4.68636E+03  7.05134E+03  5.67224E+02  8.95532E+03 -2.06755E+03
  1.65518E+04  2.57455E+03  1.77348E+04  1.54952E+04  1.18603E+04  2.84787E+04 -3.52644E+03  3.13432E+04
 -1.76959E+04  2.56003E+04 -2.96054E+04  1.32268E+04 -2.99659E+04 -2.70978E+03 -2.47264E+04 -1.71830E+04
 -1.08546E+04 -2.43900E+04  8.46821E+03 -2.35738E+04  1.91238E+04 -1.23398E+04  1.80999E+04  4.34844E+03
  6.68229E+03  1.23430E+04 -7.89036E+03  1.19151E+04 -1.45307E+04  2.47315E+03 -1.17326E+04 -8.71740E+03
 -1.63136E+03 -1.46029E+04  7.96238E+03 -1.08008E+04  8.68820E+03 -1.59324E+03  1.58701E+03  5.60345E+03
 -6.33865E+03  2.37312E+03 -4.56615E+03 -5.32201E+03  9.44212E+02 -1.22614E+04  9.30779E+03 -1.27408E+04
  1.61699E+04 -7.51692E+03  1.53991E+04  2.39114E+03  1.27513E+04  1.08514E+04  6.73534E+03  1.80472E+04
 -2.19672E+03  1.95008E+04 -1.22618E+04  1.06269E+04 -1.53502E+04  3.04809E+03 -9.88906E+03 -2.06317E+03
 -4.18434E+03 -4.30802E+03 -4.05761E+02  8.63197E+02 -2.13287E+03  2.64285E+03 -5.10903E+03  4.38456E+03
 -9.42770E+03  4.14111E+02 -9.89596E+03 -9.10756E+03 -4.63727E+03 -1.22632E+04  3.57248E+03 -9.91824E+03
  9.11463E+03 -5.28843E+03  6.11465E+03  1.69776E+03  9.83566E+02  3.33170E+03 -4.23314E+03 -4.30189E+02
 -3.38036E+03 -6.17869E+03  3.67054E+02 -8.74163E+03  5.36607E+03 -9.37129E+03  1.25576E+04 -5.35448E+03
  1.45965E+04  1.86555E+03  1.03650E+04  6.89112E+03  2.40209E+03  1.11998E+04 -6.37789E+03  1.00903E+04
 -9.12481E+03  3.58675E+03 -4.96086E+03 -2.04925E+03  1.57483E+03 -1.99738E+03  5.91533E+03 -1.94396E+02
  5.31961E+03  4.15570E+03  5.40116E+02  7.66829E+03 -5.82696E+03  7.80329E+03 -9.75659E+03  1.55417E+03
 -6.14733E+03 -3.43669E+03  3.51170E+02 -8.61995E+03  5.57610E+03 -4.64595E+03  5.15016E+03  1.38065E+03
  3.45184E+02  4.88190E+03 -5.41307E+03  6.81318E+03 -6.73389E+03  3.55133E+03 -6.61892E+03 -2.85559E+03
 -3.25745E+03 -7.48491E+03  1.98268E+03 -9.07060E+03  8.64734E+03 -6.13079E+03  8.40814E+03  7.51602E+02
  4.94955E+03  7.00586E+03  6.07943E+02  8.29620E+03 -6.08491E+03  7.11069E+03 -5.87749E+03 -9.58546E+02
 -5.96588E+03 -7.18068E+03 -7.68920E+02 -6.33662E+03  3.12946E+03 -5.11514E+03  5.17176E+03 -2.74036E+03
  3.09320E+03  2.10592E+02 -7.13552E+02  5.18145E+02  3.36954E+02 -4.42750E+02 -2.23376E+02 -2.19023E+03
  6.37322E+03 -2.33170E+03  7.66214E+03  9.84783E+02  8.21138E+03  5.30025E+03  6.41103E+03  8.86945E+03
 -2.51789E+03  1.19548E+04 -9.86855E+03  9.10622E+03 -1.28262E+04  1.32002E+03 -9.59804E+03 -2.96961E+03
 -4.77322E+03 -8.63739E+03 -5.62751E+02 -8.21718E+03  3.14638E+03 -3.70087E+03  3.68289E+03 -2.49880E+03
  2.57725E+03 -3.38160E+03  3.67046E+03 -2.33976E+03  3.39511E+03 -1.39740E+03  5.39331E+03  2.92857E+02
  5.56461E+03  1.20085E+03  1.96639E+03  4.69204E+03 -1.68414E+03  3.52407E+03 -6.64979E+03  4.39781E+03
 -5.98143E+03 -7.16914E+02 -2.21921E+03 -4.55988E+03 -1.41000E+03 -7.79011E+03  4.45424E+03 -7.32630E+03
  7.23781E+03 -5.10573E+03  8.13420E+03  6.75101E+02  5.81425E+03  5.46228E+03  1.37358E+03  6.64685E+03
 -2.23601E+03  7.44965E+03 -4.22340E+03  2.91364E+03 -2.63854E+03 -1.63161E+03 -1.34434E+03 -1.18204E+03
 -4.88476E+02  1.88963E+03 -2.39073E+03  2.63149E+03 -2.07753E+03  6.64034E+02 -5.23044E+03 -7.55094E+02
 -1.44805E+03 -5.16241E+03  1.32954E+03 -6.53471E+03  3.29837E+03 -6.37811E+03  6.09573E+03 -3.13710E+02
  5.30752E+03  3.81476E+03  5.17525E+02  5.46575E+03 -1.53531E+03  4.88820E+03 -4.44553E+03  2.94460E+03
 -5.94518E+03  4.69436E+01 -4.77132E+03 -2.45311E+03 -1.09877E+03 -4.50828E+03  3.14533E+03 -4.54149E+03
  4.45020E+03 -2.13290E+03  2.66744E+03  4.65160E+02 -4.33199E+01  2.49683E+03  1.54046E+03  6.89577E+02
  2.97588E+03 -3.50783E+02  1.95873E+03  1.35937E+03  1.76089E+03  2.21680E+03  2.51360E+03  2.47659E+03
 -2.01317E+03  5.05099E+03 -3.53429E+03  5.66793E+03 -5.39108E+03  2.33203E+03 -6.06760E+03 -1.64466E+03
 -2.83776E+03 -5.22611E+03  1.68616E+03 -7.37930E+03  2.47886E+03 -5.13433E+03  5.27531E+03 -1.62134E+03
  3.63723E+03  3.18079E+03  1.32005E+03  3.50523E+03 -2.12840E+03  1.60374E+03 -1.65799E+03 -6.93963E+01
 -1.53636E+03 -2.63679E+03  7.38924E+02 -2.20938E+03  2.28573E+03 -1.48654E+03  1.81523E+03  7.25129E+02
  9.51281E+02  1.93692E+03  6.48672E+02  3.78734E+02 -4.65266E+02  5.65040E+02  1.09806E+03 -3.31511E+02
  7.88410E+01  3.03590E+01  2.26427E+03  8.85344E+02  1.01902E+03  3.77209E+03 -3.41794E+01  4.34142E+03
 -4.31936E+03  1.33371E+03 -2.87099E+03  7.78500E+02 -3.58081E+03 -1.18631E+03 -9.79513E+02 -1.01199E+03
  5.33367E+02 -1.06540E+03  6.87421E+02 -8.21923E+02  1.58912E+03  9.57377E+02 -1.19204E+03  1.27182E+03
 -2.07439E+03  2.25869E+03 -2.93692E+03 -1.45991E+03 -2.65803E+02 -4.63955E+03 -9.22055E+02 -3.81022E+03
  6.85955E+02 -8.81640E+01  1.95319E+03  1.36714E+03  1.80014E+03  2.33819E+02  3.08567E+02  1.95243E+03
 -2.59941E+01  7.76759E+02 -1.37533E+03 -1.65946E+03  1.08665E+03 -2.13144E+03  3.66065E+03 -1.42996E+03
  3.14938E+03 -1.14545E+03  4.54422E+03  1.87458E+03  9.99728E+02  3.47861E+03 -1.83387E+03  2.80328E+03
 -1.42283E+03  3.20141E+02 -2.21997E+03  6.40623E+02 -2.06634E+03 -1.20041E+03  1.52474E+02 -1.41974E+03
  2.66761E+03 -2.16403E+03  1.65446E+03  4.24908E+02 -2.33402E+02  1.68201E+03  2.73538E+02  2.28933E+03
 -6.39080E+02  1.28176E+03  1.42455E+02 -5.15100E+02 -8.73704E+02  7.10437E+02 -2.21675E+02  1.02764E+03
  5.01154E+01  1.05021E+03 -4.04488E+03  1.03173E+03 -3.35742E+03 -2.06666E+02 -3.55484E+03 -2.35789E+03
 -1.88553E+03 -4.40223E+03  1.84853E+02 -4.28748E+03  1.38911E+03 -3.42807E+03  4.05299E+03 -1.22993E+03
  4.30174E+03  9.89613E+02  2.54615E+03  1.15103E+03 -8.14103E+02  2.76380E+03 -2.17747E+02  2.20633E+03
 -4.80974E+02  4.11250E+02 -1.67859E+03  9.21091E+02 -1.68588E+03  4.96715E+02 -7.61637E+01  6.01022E+02
 -3.40130E+02  8.86663E+01 -2.94280E+02 -4.59782E+02 -1.86679E+03 -1.17900E+03 -9.42325E+02 -1.34713E+03
  1.13729E+03 -7.58169E+02  7.04409E+02  1.17643E+03  1.29510E+03  2.01121E+03 -1.62806E+02  1.35850E+03
 -1.33343E+03  2.78107E+03 -2.40246E+03  2.51126E+03 -3.71957E+03  1.14279E+02 -2.20894E+03 -2.83122E+03
 -1.58323E+03 -3.31976E+03  2.24424E+02 -1.71829E+03  2.28717E+03  2.58991E+02  1.81856E+03 -1.08523E+03
  2.22740E+02  8.77923E+01 -4.53606E+02  4.11224E+02 -9.53880E+02 -7.13131E+02 -6.63669E+02 -1.25441E+03
  5.05371E+02 -2.60192E+02  1.12695E+03  1.64331E+02  6.22055E+02  1.83406E+03  5.31379E+02  1.41286E+03
 -6.18620E+02  8.80896E+02 -1.36725E+03  7.35525E+02 -1.30044E+03 -1.28260E+03 -2.41799E+02 -2.24882E+03
  6.10884E+02 -2.62697E+03  2.22506E+03  8.49704E+01  2.57255E+03 -1.62169E+03  7.04809E+02  1.70293E+03
  1.56036E+03  1.25931E+03  1.61729E+02  2.35277E+03 -1.36683E+03  1.27022E+03 -6.94812E+02  7.06025E+02
 -5.63228E+02  1.58467E+02 -3.71339E+02  8.14076E+02 -1.00090E+03  8.31037E+02 -1.55000E+03 -8.57258E+02
 -8.35669E+02 -5.58905E+02 -7.87654E+02 -2.08585E+03  5.87171E+02 -1.57938E+03  1.56918E+03 -2.64019E+01
  2.13970E+03  4.39948E+02  2.87069E+02  1.16089E+03 -5.54048E+02  1.29641E+03 -1.96156E+02  1.39568E+03
