 $NMID ID='MM_0lb_SNR200_10hz_g60_44.RAW', FMTDAT='(8E13.5)'
 TRAMP=1., VOLUME=1. $END
  3.08268E+05  1.27325E+02  3.37790E+05  2.50625E+05  8.61010E+04  3.38165E+05 -1.32306E+05  2.50405E+05
 -1.90517E+05  8.35422E+04 -1.11588E+05 -3.25470E+04 -5.15605E+02 -5.14568E+04  5.21317E+04 -2.10936E+03
  3.60538E+04  5.42873E+04 -1.74536E+04  7.59750E+04 -5.94379E+04  6.42114E+04 -8.36696E+04  3.27783E+04
 -8.31729E+04 -1.14728E+04 -5.88618E+04 -5.26956E+04 -1.48269E+04 -7.35093E+04  2.96910E+04 -4.64368E+04
  4.02846E+04  4.46400E+03  1.63553E+04  4.81734E+04 -3.53231E+04  4.90849E+04 -6.90224E+04  6.99051E+02
 -5.40225E+04 -5.77574E+04 -7.90108E+03 -7.94766E+04  3.48503E+04 -5.95169E+04  5.00965E+04 -1.74153E+04
  4.41486E+04  1.34419E+04  3.22579E+04  2.58960E+04  1.74911E+04  3.04403E+04 -6.02221E+03  2.84944E+04
 -2.23254E+04  1.09606E+04 -1.65053E+04 -4.33274E+03  7.63663E+03 -7.36452E+03  2.40946E+04  1.35488E+04
  4.29854E+03  3.67971E+04 -3.48601E+04  3.75029E+04 -6.55308E+04  1.14299E+03 -5.89685E+04 -4.42719E+04
 -1.25385E+04 -6.45030E+04  4.13766E+04 -4.69618E+04  6.21845E+04 -3.40540E+03  3.84802E+04  3.55103E+04
 -6.40477E+03  4.00781E+04 -3.12765E+04  1.89769E+04 -3.27276E+04 -4.54896E+03 -1.91323E+04 -1.24152E+04
 -8.86992E+03 -1.43932E+04  5.46309E+02 -1.88956E+04  7.53457E+03 -2.35612E+04  1.52674E+04 -1.21104E+04
  1.04635E+04  6.14607E+03 -1.09675E+04  1.20690E+04 -2.23543E+04 -6.16660E+03 -8.30869E+03 -3.67476E+04
  2.36901E+04 -4.63800E+04  5.24553E+04 -2.12239E+04  4.90509E+04  2.06499E+04  1.72837E+04  4.68039E+04
 -1.61732E+04  3.70530E+04 -2.78958E+04  2.87435E+03 -1.14625E+04 -2.90787E+04  2.18796E+04 -3.68520E+04
  4.50091E+04 -9.98908E+03  4.12128E+04  2.62190E+04  1.97446E+04  5.10458E+04 -7.57051E+03  5.56288E+04
 -3.36012E+04  3.90814E+04 -4.91674E+04  1.15272E+04 -4.81636E+04 -1.89911E+04 -2.78454E+04 -4.32989E+04
  9.91618E+03 -4.20312E+04  3.44213E+04 -1.74247E+04  3.22078E+04  1.06692E+04  6.51451E+03  1.99135E+04
 -1.55704E+04  1.09161E+04 -1.06298E+04 -6.24867E+03  6.20873E+03 -1.08588E+04  1.92556E+04  4.62902E+03
  1.57047E+04  2.29447E+04 -5.45977E+03  2.68052E+04 -2.31260E+04  1.51493E+04 -3.11165E+04 -2.44862E+03
 -2.52248E+04 -1.77512E+04 -1.24620E+04 -2.59390E+04  3.70838E+03 -2.62920E+04  2.08830E+04 -2.23370E+04
  3.36666E+04 -1.63378E+04  3.83199E+04  2.45113E+03  2.84203E+04  2.45427E+04  3.64779E+03  4.04437E+04
 -1.79316E+04  3.42260E+04 -3.01985E+04  1.25797E+04 -2.22683E+04 -1.07446E+04 -5.12375E+03 -1.28315E+04
  1.18632E+03 -1.16509E+03 -7.80183E+03  6.80322E+03 -1.95336E+04  4.73476E+03 -2.04867E+04 -9.91452E+03
 -1.16193E+04 -2.28803E+04  5.38791E+03 -2.79908E+04  2.02640E+04 -2.07343E+04  2.28228E+04 -3.52760E+03
  1.41563E+04  1.38743E+04 -2.02745E+03  2.38785E+04 -1.84497E+04  1.41972E+04 -2.40966E+04 -4.76204E+03
 -1.73448E+04 -2.15982E+04 -1.44302E+03 -2.77829E+04  1.41998E+04 -2.28332E+04  2.29595E+04 -1.18367E+04
  2.27680E+04 -1.11130E+03  1.63059E+04  5.13389E+03  9.52746E+03  2.97681E+02  1.26596E+04 -2.07984E+03
  2.11751E+04  2.70754E+03  2.54824E+04  1.73538E+04  1.72178E+04  3.64924E+04 -1.60848E+03  4.53835E+04
 -2.54697E+04  3.77272E+04 -4.25432E+04  1.96850E+04 -4.50225E+04 -3.14910E+03 -3.70082E+04 -2.68690E+04
 -1.49555E+04 -3.77427E+04  1.49157E+04 -3.18279E+04  2.83306E+04 -1.56720E+04  2.45755E+04  8.23212E+03
  8.52999E+03  1.87218E+04 -1.22440E+04  1.52365E+04 -1.87551E+04  2.35918E+03 -1.61878E+04 -1.33659E+04
 -6.05060E+01 -2.05324E+04  1.04349E+04 -1.42556E+04  1.25915E+04 -2.42341E+03  2.23693E+03  9.58637E+03
 -8.29575E+03  4.14846E+03 -8.49155E+03 -7.10152E+03 -1.84331E+03 -1.82170E+04  1.13935E+04 -2.03748E+04
  2.34228E+04 -1.11981E+04  2.64836E+04  4.52354E+03  2.20656E+04  1.83959E+04  9.71703E+03  2.88403E+04
 -5.93468E+03  3.07324E+04 -2.02636E+04  1.99209E+04 -2.08441E+04  2.60928E+03 -1.52057E+04 -6.13422E+03
 -6.71233E+03 -7.11506E+03 -5.82474E+01 -7.81891E+02 -3.16595E+03  4.31105E+03 -7.50119E+03  4.48046E+03
 -1.51034E+04 -1.43255E+03 -1.47510E+04 -1.17544E+04 -5.09828E+03 -1.84382E+04  6.19924E+03 -1.69571E+04
  1.25954E+04 -7.74733E+03  8.86329E+03  5.37009E+03  1.67641E+01  5.26421E+03 -9.01958E+03 -1.93593E+03
 -5.93947E+03 -1.01277E+04 -6.86933E+02 -1.44345E+04  8.67712E+03 -1.67400E+04  1.92624E+04 -9.00439E+03
  2.51935E+04  6.49329E+02  1.88647E+04  1.42447E+04  2.82018E+03  1.87590E+04 -9.31700E+03  1.61653E+04
 -1.26092E+04  3.86950E+03 -7.79971E+03 -2.71899E+03  5.66705E+02 -5.91921E+03  9.05680E+03 -3.94290E+02
  6.28664E+03  7.87789E+03  1.42803E+03  1.50846E+04 -8.50534E+03  1.25451E+04 -1.31539E+04  2.84311E+03
 -9.79534E+03 -8.38338E+03 -5.05406E+02 -1.20203E+04  7.65794E+03 -6.84354E+03  1.05033E+04  3.45650E+03
  1.93766E+03  9.80400E+03 -9.49551E+03  1.05544E+04 -1.45939E+04  4.46515E+03 -1.26324E+04 -5.54319E+03
 -7.68616E+03 -1.61390E+04  4.22551E+03 -1.76246E+04  1.47257E+04 -1.00937E+04  1.66045E+04  2.99354E+03
  1.00387E+04  1.25965E+04 -1.33767E+03  1.57164E+04 -1.10226E+04  8.73472E+03 -1.23353E+04 -9.84020E+02
 -1.13375E+04 -1.02644E+04 -5.83906E+02 -1.16921E+04  6.40500E+03 -1.10229E+04  7.17546E+03 -4.18978E+03
  3.73341E+03  3.63773E+03 -1.62673E+03  2.80795E+03 -1.23066E+02 -3.45323E+03  3.57274E+03 -6.48987E+03
  1.04854E+04 -5.84665E+03  1.66926E+04  2.15699E+03  1.51678E+04  1.11836E+04  9.82145E+03  2.04250E+04
 -4.99873E+03  2.24133E+04 -1.92089E+04  1.87869E+04 -2.53120E+04  3.65996E+03 -2.03114E+04 -8.06338E+03
 -1.12645E+04 -1.71352E+04  1.63619E+03 -1.41581E+04  5.23647E+03 -8.02870E+03  5.21224E+03 -5.31094E+03
  2.94659E+03 -3.61278E+03  3.39866E+03 -4.09853E+03  6.23909E+03 -4.02429E+03  8.23508E+03 -1.49747E+03
  1.12738E+04  2.95060E+03  5.54341E+03  9.13896E+03 -2.36870E+03  1.22497E+04 -1.09883E+04  8.38400E+03
 -1.59695E+04 -9.12419E+01 -8.18414E+03 -1.06038E+04  2.65135E+01 -1.43332E+04  8.74611E+03 -1.36266E+04
  1.59173E+04 -9.42273E+03  1.91393E+04  3.68639E+03  1.28309E+04  1.38369E+04  3.93702E+03  1.78578E+04
 -6.70448E+03  1.39088E+04 -1.00709E+04  5.51168E+03 -6.31596E+03 -4.34689E+02 -4.09587E+03 -2.72606E+03
 -3.82285E+02  4.26481E+02 -2.36953E+03  3.49563E+03 -6.28458E+03  2.67500E+03 -9.93410E+03 -2.71916E+03
 -6.93033E+03 -9.79648E+03 -1.49873E+03 -1.54758E+04  9.30885E+03 -1.26186E+04  1.36385E+04 -3.66786E+03
  1.47373E+04  8.28891E+03  8.29353E+03  1.23465E+04 -3.56520E+03  1.51953E+04 -9.19365E+03  8.88376E+03
 -1.23070E+04  1.49351E+00 -1.06825E+04 -8.35789E+03 -2.27550E+03 -1.21239E+04  4.90715E+03 -8.96943E+03
  8.71590E+03 -1.81075E+03  6.98702E+03  1.91559E+03  2.13022E+03  4.53668E+03  1.38225E+03  3.62247E+03
  4.73675E+02  1.58788E+03  2.50914E+03  3.30218E+03  3.60507E+03  5.91002E+03  4.24076E+03  7.30217E+03
 -3.16262E+03  1.05053E+04 -1.05064E+04  1.03650E+04 -1.41350E+04  2.77910E+03 -1.69517E+04 -6.69205E+03
 -7.54821E+03 -1.35315E+04  2.99436E+03 -1.65958E+04  9.19509E+03 -1.02187E+04  1.14207E+04 -1.20248E+03
  9.06267E+03  6.92583E+03  2.20277E+03  9.34717E+03 -4.75003E+03  5.97217E+03 -6.20135E+03 -2.08922E+03
 -3.95201E+03 -5.65639E+03  3.94839E+03 -7.14505E+03  6.11229E+03 -3.28859E+03  6.89293E+03  6.80112E+02
  2.91191E+03  2.73641E+03  6.79656E+02  1.20417E+03 -1.73710E+03  2.35148E+03  1.23150E+03 -2.33319E+02
  2.29353E+03 -2.12197E+03  5.89425E+03  2.48568E+03  5.90547E+03  8.56337E+03 -1.60406E+03  1.07202E+04
 -6.04257E+03  6.66393E+03 -1.02664E+04  2.88571E+03 -7.24935E+03 -2.53794E+03 -2.89740E+03 -4.54178E+03
  1.31374E+03 -6.49823E+03  4.39497E+03 -4.21731E+03  3.75482E+03  3.55083E+03 -1.16483E+03  3.13410E+03
 -6.12506E+03  2.05921E+03 -5.72349E+03 -2.84267E+03 -3.04040E+03 -8.32318E+03  2.56801E+03 -8.31611E+03
  3.42793E+03 -4.58301E+03  7.04777E+03 -1.96769E+02  5.28274E+03  4.87691E+02 -4.96876E+02  4.18236E+03
 -1.81760E+03  2.24978E+03 -4.18496E+03 -2.27638E+03  2.57422E+02 -6.73801E+03  6.52324E+03 -4.62187E+03
  8.23668E+03  8.33961E+02  9.01109E+03  5.01694E+03  2.20455E+03  9.36315E+03 -3.20642E+03  1.07790E+04
 -7.73757E+03  3.22021E+03 -9.50714E+03 -4.24480E+02 -4.15894E+03 -7.19045E+03  1.41338E+03 -4.47135E+03
  6.01778E+03 -2.66869E+03  5.43258E+03  2.57942E+03  1.74110E+03  5.43981E+03 -6.92430E+02  5.21139E+03
 -1.74805E+03  3.33137E+03 -2.21355E+03  7.56075E+02 -8.34088E+02 -7.71742E+02 -1.78125E+03  1.69444E+03
 -1.72595E+03  4.46371E+03 -6.45895E+03  3.77072E+03 -8.41814E+03 -5.21695E+02 -1.13030E+04 -6.38286E+03
 -6.12748E+03 -1.21017E+04  2.97738E+03 -1.42115E+04  7.97760E+03 -1.08328E+04  1.37814E+04 -4.31838E+03
  1.30544E+04  4.27340E+03  8.73636E+03  7.64383E+03  9.18374E+02  9.37462E+03 -3.25033E+03  6.49127E+03
 -5.21520E+03  1.93092E+03 -3.24496E+03 -2.29869E+03 -9.14708E+02 -5.94563E+02 -1.16682E+03  8.54848E+02
 -2.09487E+03 -6.22912E+02 -2.40030E+03 -1.93084E+03 -1.35660E+03 -2.67692E+03  1.04786E+03 -4.07538E+03
  4.81411E+03 -2.70272E+03  5.33286E+03 -1.72149E+03  7.64921E+03  4.69210E+03  1.79733E+03  9.32157E+03
 -5.85281E+03  1.02804E+04 -9.52417E+03  6.15605E+03 -1.20560E+04 -5.41755E+02 -9.45986E+03 -7.69383E+03
 -4.05296E+03 -8.51545E+03  2.27195E+03 -9.39876E+03  6.72373E+03 -5.62962E+03  6.36868E+03  1.45269E+03
  8.01406E+02  2.11690E+03 -5.36679E+02  3.56143E+03 -7.98433E+02 -7.03986E+01  2.80235E+02 -4.07419E+03
  3.17049E+03  1.03135E+01  3.19402E+03  2.00608E+03  2.25486E+03  4.91904E+03  4.30501E+02  4.04242E+03
 -4.46304E+03  4.39156E+03 -7.47590E+03 -7.17545E+01 -5.97288E+03 -2.68614E+03 -7.14639E+02 -7.66419E+03
  5.24701E+03 -5.77551E+03  7.83402E+03 -1.30185E+03  7.55961E+03  2.03574E+03  4.34095E+03  4.61274E+03
  1.75648E+03  5.55704E+03 -3.35743E+03  4.66419E+03 -3.97817E+03  2.46416E+03 -3.49757E+03  1.50648E+03
 -3.36223E+02  8.22860E+02 -5.49000E+02 -1.52296E+02 -2.56309E+03 -2.49838E+02 -5.20955E+03 -1.43628E+03
 -4.96102E+03 -3.73692E+03 -2.35719E+03 -6.39577E+03  2.41842E+03 -5.34968E+03  5.37832E+03 -2.78176E+03
  5.64754E+03  5.21504E+02  4.19187E+03  4.25415E+03 -2.50445E+02  7.12005E+03 -4.41560E+03  4.57809E+03
