 $NMID ID='MM_0lb_SNR200_17hz_g40_96.RAW', FMTDAT='(8E13.5)'
 TRAMP=1., VOLUME=1. $END
  3.09886E+05  1.17291E+03  3.37941E+05  2.50169E+05  8.41905E+04  3.37708E+05 -1.32616E+05  2.49972E+05
 -1.89466E+05  8.24575E+04 -1.10203E+05 -3.32268E+04  1.33528E+03 -4.99619E+04  5.42397E+04  9.68638E+01
  3.45617E+04  5.28873E+04 -1.74910E+04  7.54189E+04 -6.08188E+04  6.32486E+04 -8.31937E+04  3.17742E+04
 -7.92490E+04 -1.10653E+04 -5.57082E+04 -5.03998E+04 -1.45288E+04 -6.86414E+04  2.62592E+04 -4.41562E+04
  3.91186E+04  3.33012E+03  1.57577E+04  4.75892E+04 -3.30043E+04  4.67622E+04 -6.63248E+04 -1.95087E+02
 -5.25034E+04 -5.58668E+04 -5.95237E+03 -7.54270E+04  3.28970E+04 -5.34312E+04  4.66410E+04 -1.68737E+04
  4.09708E+04  1.18342E+04  3.20588E+04  2.51243E+04  1.64809E+04  2.84291E+04 -5.24814E+03  2.66321E+04
 -2.21440E+04  1.26412E+04 -1.92057E+04 -4.02130E+03  4.31988E+03 -6.13100E+03  2.15827E+04  9.82235E+03
  7.10352E+03  3.39346E+04 -3.14085E+04  3.39164E+04 -6.15513E+04  1.41966E+03 -5.56872E+04 -4.17100E+04
 -1.20540E+04 -6.07725E+04  3.85238E+04 -4.41911E+04  5.66387E+04 -1.95249E+03  3.19554E+04  3.07639E+04
 -6.64762E+03  3.22108E+04 -2.92653E+04  1.35328E+04 -2.80349E+04 -5.90293E+03 -1.47091E+04 -1.07516E+04
 -7.11395E+03 -1.14383E+04 -1.98586E+03 -1.68690E+04  6.18589E+03 -2.19372E+04  1.49359E+04 -1.32042E+04
  1.26830E+04  3.74373E+03 -6.21469E+03  1.28991E+04 -1.89983E+04 -1.73309E+03 -8.52080E+03 -3.09595E+04
  2.05085E+04 -4.05811E+04  4.54636E+04 -1.90638E+04  4.22618E+04  1.80310E+04  1.38954E+04  4.16538E+04
 -1.57754E+04  3.20935E+04 -2.37935E+04  9.85390E+02 -7.91024E+03 -2.72239E+04  1.94985E+04 -3.07623E+04
  3.80750E+04 -7.20004E+03  3.20721E+04  2.24205E+04  1.55998E+04  4.22368E+04 -8.04609E+03  4.55842E+04
 -2.94305E+04  2.91941E+04 -3.83372E+04  8.79757E+03 -3.82768E+04 -1.49912E+04 -2.05149E+04 -3.42245E+04
  7.22791E+03 -3.53010E+04  2.93687E+04 -1.21785E+04  2.65166E+04  1.16801E+04  3.02196E+03  1.70944E+04
 -1.35288E+04  8.37636E+03 -9.00844E+03 -7.94065E+03  5.32366E+03 -1.01155E+04  1.64774E+04  6.08574E+03
  1.21110E+04  2.13153E+04 -5.88925E+03  2.46534E+04 -2.13178E+04  9.95755E+03 -2.47434E+04 -5.88913E+03
 -1.73172E+04 -1.75956E+04 -6.00481E+03 -1.62943E+04  3.44125E+03 -1.59052E+04  1.25510E+04 -1.37367E+04
  2.20545E+04 -1.15328E+04  2.75415E+04  1.42038E+03  2.20321E+04  1.66997E+04  3.83700E+03  3.34794E+04
 -1.64184E+04  2.69612E+04 -2.63702E+04  9.61439E+03 -2.01156E+04 -1.10818E+04 -3.59285E+03 -1.38091E+04
  1.54705E+03 -3.36927E+03 -3.08257E+03  5.37842E+03 -1.39226E+04  5.18429E+03 -1.29811E+04 -5.15060E+03
 -8.36601E+03 -1.51733E+04  4.41793E+03 -1.99610E+04  1.22520E+04 -1.42690E+04  1.40853E+04 -1.81513E+03
  8.47884E+03  1.05602E+04 -3.42991E+02  1.58121E+04 -1.04880E+04  9.43908E+03 -1.61855E+04 -4.00891E+03
 -1.13446E+04 -1.55675E+04 -1.37967E+03 -1.92110E+04  7.46194E+03 -1.61312E+04  1.69199E+04 -6.65234E+03
  1.51175E+04  6.03651E+02  1.04164E+04  3.76453E+03  5.58265E+03  1.18494E+03  8.08457E+03 -2.12466E+03
  1.46167E+04  2.59300E+03  1.46278E+04  1.29114E+04  9.18189E+03  2.63090E+04 -3.15552E+03  2.83485E+04
 -1.79714E+04  2.04618E+04 -2.63098E+04  9.68608E+03 -2.58449E+04 -2.14042E+03 -2.23519E+04 -1.46924E+04
 -1.01090E+04 -2.25429E+04  6.35518E+03 -1.89486E+04  1.69224E+04 -1.03635E+04  1.65186E+04  3.97851E+03
  6.26920E+03  1.11660E+04 -8.01009E+03  1.08460E+04 -1.35259E+04  2.52242E+03 -1.05325E+04 -7.96697E+03
 -9.81369E+02 -1.45492E+04  6.25182E+03 -9.96071E+03  7.74734E+03 -2.30794E+03  1.34506E+03  4.30848E+03
 -6.55012E+03  1.06098E+03 -3.64908E+03 -4.77333E+03 -1.21182E+02 -1.02830E+04  9.09630E+03 -1.08259E+04
  1.32891E+04 -5.09327E+03  1.22568E+04  3.37991E+03  1.18768E+04  1.07654E+04  4.33860E+03  1.48790E+04
 -1.65018E+03  1.72989E+04 -1.02514E+04  9.36036E+03 -1.24250E+04  4.39989E+03 -9.60250E+03 -2.10795E+03
 -3.56019E+03 -4.34671E+03 -1.44239E+03  2.16561E+03 -3.16665E+03  2.00672E+03 -5.34519E+03  3.18759E+03
 -8.70904E+03  3.22649E+02 -9.97459E+03 -8.32346E+03 -4.02265E+03 -1.16967E+04  4.16480E+03 -9.03639E+03
  7.69184E+03 -3.73738E+03  5.42832E+03  1.92173E+03  5.11528E+02  2.85506E+03 -3.36968E+03 -4.90382E+02
 -3.96971E+03 -5.35509E+03  3.58445E+02 -8.84850E+03  4.82659E+03 -7.50657E+03  1.00359E+04 -5.55557E+03
  1.25590E+04  6.75280E+02  1.01789E+04  5.75427E+03  2.30891E+03  8.58205E+03 -5.74941E+03  8.43708E+03
 -7.31990E+03  3.21107E+03 -3.81872E+03 -1.07251E+03  6.30953E+02 -2.42399E+03  4.04185E+03 -1.52312E+03
  4.79519E+03  4.84504E+03  1.07854E+03  7.77503E+03 -4.45561E+03  7.18461E+03 -8.42850E+03  2.75409E+03
 -5.10915E+03 -3.69665E+03  8.21859E+02 -7.23921E+03  3.91206E+03 -3.77036E+03  5.14720E+03  1.29574E+03
  6.42037E+01  3.51461E+03 -4.12087E+03  6.08321E+03 -6.42769E+03  3.09309E+03 -5.11382E+03 -4.77453E+02
 -1.81066E+03 -6.88948E+03  1.77302E+03 -8.32103E+03  6.92693E+03 -6.08899E+03  7.49658E+03  2.60390E+02
  5.47193E+03  6.59719E+03 -9.06530E+01  8.67466E+03 -4.69317E+03  5.23351E+03 -5.85194E+03  3.10898E+02
 -5.56519E+03 -4.56540E+03 -5.16736E+02 -6.31051E+03  2.62147E+03 -5.39976E+03  1.97400E+03 -1.79917E+03
  2.97228E+03 -1.08740E+02  8.29988E+02  7.77023E+02 -6.81339E+00 -1.07230E+03  9.43482E+02 -1.75893E+03
  4.71974E+03 -6.84389E+02  6.14916E+03  3.22350E+02  6.68293E+03  2.93492E+03  4.91284E+03  7.53228E+03
 -1.93150E+03  1.06153E+04 -9.07299E+03  7.74413E+03 -1.15353E+04  6.04936E+02 -8.29162E+03 -2.33659E+03
 -4.98026E+03 -7.22148E+03 -4.64485E+02 -5.89048E+03  2.91118E+03 -1.42120E+03  1.82088E+03 -3.54010E+03
  1.52811E+03 -2.05719E+03  2.48318E+03 -1.95253E+03  4.11276E+03 -1.72580E+03  3.86629E+03 -1.05775E+03
  4.79018E+03  1.24397E+03  2.13955E+03  4.06966E+03 -2.15625E+03  3.32892E+03 -6.09462E+03  2.27990E+03
 -5.02699E+03 -8.26595E+02 -2.37399E+03 -4.85215E+03  1.07835E+02 -6.62685E+03  3.78135E+03 -5.61230E+03
  6.76533E+03 -3.82548E+03  7.88596E+03  2.45618E+02  5.39964E+03  4.05745E+03  1.19346E+03  6.80619E+03
 -1.89051E+03  7.16576E+03 -3.73499E+03  1.80661E+03 -1.84718E+03 -1.11137E+03 -4.29255E+02 -1.27809E+03
 -7.11365E+02  4.54362E+02 -1.15259E+03  1.16431E+03 -3.11727E+03  5.86301E+02 -5.39971E+03 -9.27504E+02
 -2.48434E+03 -5.00668E+03  2.70202E+02 -4.85064E+03  2.36488E+03 -4.53188E+03  3.77300E+03 -1.15579E+03
  4.68593E+03  3.08730E+03  2.43308E+03  4.60022E+03 -4.45544E+02  5.10213E+03 -3.16269E+03  4.06927E+03
 -3.76174E+03  1.06470E+03 -5.00842E+03 -3.32635E+03  5.73422E+01 -3.81277E+03  2.54233E+03 -3.37208E+03
  3.19887E+03 -1.38938E+03  2.02111E+03 -5.83660E+02  1.45860E+03  2.67394E+03  6.89793E+02  1.60264E+03
  1.36416E+03  2.93402E+02  1.46687E+03  9.30242E+02  1.07142E+03  2.55914E+03  1.45386E+03  3.11581E+03
 -2.46813E+03  4.87711E+03 -3.84061E+03  5.14996E+03 -3.38650E+03  1.57391E+03 -4.66627E+03 -1.70855E+03
 -2.48779E+03 -3.99614E+03  3.74518E+02 -6.35084E+03  1.61227E+03 -3.03377E+03  2.90340E+03 -1.32164E+03
  2.43408E+03  3.14427E+03  3.20828E+02  2.25780E+03 -1.32796E+03  1.52664E+03 -1.94834E+03 -1.02211E+03
 -2.65311E+02 -2.12148E+03  2.03956E+03 -2.57602E+03  3.06287E+03 -9.98529E+02  2.19971E+03 -2.06158E+02
  1.51229E+03  1.79497E+02  1.05928E+03  6.47599E+02  3.83763E+02 -3.70941E+02  1.42498E+03 -5.28628E+02
  7.86776E+02 -4.16391E+02  1.60056E+03  9.96830E+02  1.77650E+03  2.10716E+03 -1.29284E+03  3.66917E+03
 -2.45874E+03  1.00194E+03 -2.45868E+03  8.25505E+02 -1.24438E+03 -2.46151E+03  1.16644E+02 -1.59883E+03
 -4.05342E+02 -1.62349E+03  2.81317E+03 -1.26240E+02 -4.68455E+01  1.13236E+03 -3.27533E+02  1.68774E+03
 -1.44129E+03  4.30131E+02 -1.56080E+03 -1.70690E+03 -1.09300E+03 -1.73522E+03  2.11493E+02 -1.99936E+03
  3.76488E+02 -2.73805E+02  9.78835E+02  1.06958E+03  2.21415E+03 -5.84236E+02  7.18592E+02  9.50388E+02
 -4.17634E+02  2.20606E+02 -8.30942E+02 -5.65401E+02  5.03930E+02 -1.33018E+03  1.81813E+03 -1.78362E+03
  3.03787E+03  5.44228E+02  3.35115E+03  2.33732E+03  1.22896E+03  3.54414E+03 -2.10319E+02  2.45850E+03
 -3.34834E+03 -4.76288E+01 -1.62851E+03 -8.46360E+02 -1.11706E+03 -1.55293E+03 -6.22998E+01 -5.81045E+02
  1.28711E+03 -1.63002E+03  8.38851E+01  3.97759E+01  4.15877E+02  2.27625E+03  6.03560E+02  1.33197E+03
 -6.30495E+01  9.74444E+02  2.05364E+02 -3.30802E+01  1.33875E+03  8.22513E+02 -5.73729E+02  9.60694E+02
 -1.55653E+03  1.91560E+03 -2.04552E+03  1.13359E+03 -2.60535E+03  1.81329E+03 -2.24368E+03 -1.54422E+03
 -9.53554E+02 -1.67984E+03  4.19172E+02 -4.34232E+03  2.58808E+03 -2.44512E+03  3.54579E+03 -1.22129E+03
  3.11215E+03 -1.29717E+03  2.38056E+03  1.72745E+03 -9.77116E+02  1.48854E+03 -1.14212E+03  2.10187E+03
 -2.25977E+03  7.50809E+02 -1.08369E+03 -7.54888E+02 -3.66742E+02 -5.84142E+02 -6.69236E+02 -1.00914E+03
 -1.98423E+03  7.93831E+02 -4.52138E+02  6.92345E+02 -2.19048E+02 -4.95171E+02 -4.78022E+02 -1.17227E+03
  1.70368E+03 -1.15410E+03  1.31072E+03 -6.18809E+02  1.44734E+03  1.29475E+03  6.85216E+02  2.00749E+03
  1.16567E+02  3.02189E+03 -2.24901E+03  6.92936E+02 -2.25021E+03 -4.93509E+02 -2.02069E+03 -8.97576E+02
 -1.93314E+03 -2.33861E+03  9.61849E+02 -1.01139E+03  1.11949E+03 -5.74337E+01  1.39320E+03 -8.48201E+01
  1.07468E+03  1.06232E+03  5.75598E+02 -6.96063E+02 -4.64641E+02 -2.40467E+02 -4.50283E+02 -4.68164E+02
  3.77246E+02  1.40385E+02  2.80594E+02  4.93077E+02  1.46273E+02  6.18485E+02  3.02745E+02  5.95510E+02
  5.74638E+02  1.37055E+03 -1.50449E+03 -9.96545E+02 -1.80362E+03 -8.79726E+02  7.93538E+01 -6.45469E+02
  5.77556E+02 -1.10760E+03  2.48804E+03  4.58017E+02  8.46183E+02 -1.56266E+03  2.08531E+03  7.83242E+02
  1.86219E+02  1.76014E+03 -4.20357E+02  5.35477E+01 -4.08038E+02  1.27964E+03 -8.35057E+01 -6.29114E+01
 -1.15898E+02 -4.13722E+02 -2.02761E+03 -8.28850E+02 -3.18019E+02  2.72230E+01 -2.04258E+03  5.41810E+01
 -2.59593E+03  4.09098E+02  3.51582E+02 -1.38976E+03  2.43413E+03 -2.35274E+03  1.18219E+03 -2.77525E+01
  4.27165E+02  3.83980E+02  3.27053E+01  1.43446E+03  1.86258E+02  1.84535E+03 -1.00037E+03  1.94747E+03
