 $NMID ID='MM_0lb_SNR200_16hz_g50_96.RAW', FMTDAT='(8E13.5)'
 TRAMP=1., VOLUME=1. $END
  3.10315E+05  1.55844E+03  3.37896E+05  2.49898E+05  8.48068E+04  3.38598E+05 -1.32755E+05  2.50923E+05
 -1.89405E+05  8.30386E+04 -1.11962E+05 -3.22282E+04  2.01396E+03 -5.07932E+04  5.40617E+04 -6.82571E+02
  3.52778E+04  5.31953E+04 -1.72705E+04  7.60318E+04 -5.99775E+04  6.36374E+04 -8.28092E+04  3.15105E+04
 -8.02569E+04 -1.16185E+04 -5.77107E+04 -5.14697E+04 -1.41430E+04 -6.98412E+04  2.69904E+04 -4.55921E+04
  4.01153E+04  4.48990E+03  1.52708E+04  4.71583E+04 -3.46362E+04  4.67576E+04 -6.51068E+04 -7.85453E+02
 -5.35654E+04 -5.67168E+04 -6.93987E+03 -7.65493E+04  3.34107E+04 -5.42568E+04  4.73764E+04 -1.63707E+04
  4.20335E+04  1.18328E+04  3.10333E+04  2.54715E+04  1.58756E+04  3.07475E+04 -5.00499E+03  2.81183E+04
 -2.16031E+04  1.31220E+04 -1.80185E+04 -4.60267E+03  5.38179E+03 -7.36575E+03  2.26973E+04  1.24297E+04
  7.46982E+03  3.34562E+04 -3.09478E+04  3.42065E+04 -6.22630E+04  2.13188E+03 -5.64785E+04 -4.17635E+04
 -1.27282E+04 -6.33475E+04  4.02005E+04 -4.47123E+04  5.74367E+04 -2.83034E+03  3.49008E+04  3.14823E+04
 -6.05297E+03  3.53941E+04 -2.99732E+04  1.50228E+04 -3.05539E+04 -6.47015E+03 -1.45458E+04 -1.05065E+04
 -8.33149E+03 -1.18801E+04 -2.09521E+02 -1.77926E+04  5.95076E+03 -2.32056E+04  1.47050E+04 -1.38933E+04
  1.26069E+04  5.11261E+03 -6.63800E+03  1.29902E+04 -1.98157E+04 -2.29702E+03 -6.88171E+03 -3.20690E+04
  2.17218E+04 -4.21567E+04  4.73038E+04 -1.86594E+04  4.38201E+04  1.88689E+04  1.52782E+04  4.35049E+04
 -1.63748E+04  3.31811E+04 -2.52644E+04  8.61727E+02 -9.00097E+03 -2.88303E+04  1.99161E+04 -3.24168E+04
  3.96383E+04 -7.94317E+03  3.39822E+04  2.41508E+04  1.66349E+04  4.52303E+04 -8.09732E+03  4.78171E+04
 -3.09800E+04  3.33363E+04 -3.94812E+04  8.19829E+03 -4.00364E+04 -1.63675E+04 -2.30117E+04 -3.70261E+04
  6.34188E+03 -3.68031E+04  3.05571E+04 -1.31057E+04  2.79362E+04  1.09046E+04  3.81458E+03  1.86906E+04
 -1.39727E+04  7.94312E+03 -9.19004E+03 -7.77740E+03  5.52456E+03 -1.10959E+04  1.75189E+04  4.85797E+03
  1.34338E+04  2.22705E+04 -6.00740E+03  2.47548E+04 -2.15641E+04  1.15940E+04 -2.64520E+04 -5.88197E+03
 -1.89335E+04 -1.71948E+04 -6.62152E+03 -1.87882E+04  4.38785E+03 -1.78424E+04  1.43742E+04 -1.83078E+04
  2.35924E+04 -1.19363E+04  3.03969E+04  2.78166E+03  2.40161E+04  1.85219E+04  3.59060E+03  3.44805E+04
 -1.69713E+04  2.93311E+04 -2.63803E+04  9.12237E+03 -2.07664E+04 -1.09831E+04 -3.55601E+03 -1.36319E+04
  1.32915E+03 -2.69437E+03 -3.44047E+03  6.16313E+03 -1.48187E+04  5.65765E+03 -1.43462E+04 -5.96913E+03
 -1.04628E+04 -1.81479E+04  5.67808E+03 -2.14316E+04  1.48894E+04 -1.51124E+04  1.54168E+04 -3.17793E+03
  1.15914E+04  1.27855E+04 -1.93566E+03  1.76149E+04 -1.27957E+04  1.14398E+04 -1.77458E+04 -3.44643E+03
 -1.29555E+04 -1.48351E+04 -1.70418E+03 -2.16552E+04  1.02625E+04 -1.83838E+04  1.83679E+04 -8.58786E+03
  1.61527E+04  4.27622E+02  1.14513E+04  3.46546E+03  6.30345E+03  7.07037E+02  8.03120E+03 -2.16332E+03
  1.70690E+04  2.64723E+03  1.67459E+04  1.38180E+04  1.03454E+04  2.76639E+04 -3.03515E+03  3.04820E+04
 -1.82242E+04  2.49436E+04 -2.88652E+04  1.22123E+04 -3.01470E+04 -2.15355E+03 -2.47598E+04 -1.62287E+04
 -1.07337E+04 -2.46575E+04  7.61013E+03 -2.17007E+04  1.85603E+04 -1.08580E+04  1.70554E+04  5.03250E+03
  7.35031E+03  1.47007E+04 -8.08390E+03  1.26150E+04 -1.44987E+04  2.96732E+03 -1.19242E+04 -1.06119E+04
  7.99053E+02 -1.43608E+04  7.55696E+03 -1.06978E+04  8.41158E+03 -2.67817E+02  2.18988E+03  6.76069E+03
 -5.56258E+03  1.79290E+03 -4.62450E+03 -5.05075E+03 -2.11552E+02 -1.15215E+04  8.05181E+03 -1.26790E+04
  1.44977E+04 -6.23550E+03  1.44252E+04  3.41264E+03  1.28601E+04  1.11864E+04  5.38551E+03  1.85360E+04
 -2.58571E+03  1.96508E+04 -1.19587E+04  1.24443E+04 -1.41015E+04  3.19285E+03 -9.27719E+03 -1.94821E+03
 -5.72811E+03 -3.83031E+03 -2.26541E+02  1.30374E+03 -1.58591E+03  1.91269E+03 -5.00909E+03  3.91671E+03
 -9.07195E+03 -9.86411E+02 -1.02947E+04 -8.73715E+03 -3.51042E+03 -1.34856E+04  3.53799E+03 -1.16501E+04
  8.20736E+03 -4.33313E+03  6.46199E+03  2.26901E+03 -7.41971E+02  5.06980E+03 -4.77551E+03 -1.96601E+02
 -5.07210E+03 -6.64165E+03 -1.28446E+03 -8.08978E+03  4.93905E+03 -9.50706E+03  1.23376E+04 -4.78180E+03
  1.52009E+04  7.33345E+02  1.01757E+04  7.96229E+03  1.99914E+03  1.08460E+04 -6.59751E+03  9.46276E+03
 -8.13100E+03  3.12742E+03 -3.97958E+03 -1.52387E+03  1.72555E+03 -2.88499E+03  5.50041E+03 -1.61179E+03
  5.45414E+03  5.11832E+03  1.21929E+03  7.98510E+03 -5.63494E+03  7.64424E+03 -9.52302E+03  1.07992E+03
 -7.43994E+03 -5.69727E+03  3.99723E+02 -7.48260E+03  3.99783E+03 -3.70336E+03  4.82502E+03  1.60614E+03
  3.97659E+02  5.16599E+03 -4.90491E+03  6.59048E+03 -7.00361E+03  4.51051E+03 -6.23219E+03 -1.00316E+03
 -5.12561E+03 -7.60927E+03  1.90790E+03 -9.53773E+03  7.56318E+03 -5.15831E+03  9.90236E+03  6.11821E+02
  6.15449E+03  7.44048E+03 -6.19678E+02  1.00528E+04 -6.31856E+03  4.20161E+03 -7.10379E+03 -1.27483E+03
 -6.02305E+03 -7.28986E+03 -9.49575E+02 -6.13869E+03  3.60233E+03 -5.12252E+03  3.41465E+03 -4.76004E+03
  2.32196E+03  7.04961E+02 -1.08739E+03  4.31791E+02  1.27100E+03 -5.69714E+02  1.10470E+03 -3.05703E+03
  5.41380E+03 -2.30551E+03  7.48197E+03 -3.73302E+02  7.50978E+03  4.77377E+03  6.57473E+03  9.92953E+03
 -1.67627E+03  1.12959E+04 -1.05927E+04  8.56772E+03 -1.30815E+04  1.78378E+03 -9.60835E+03 -4.37041E+03
 -4.96225E+03 -9.16011E+03 -7.16093E+02 -6.68792E+03  3.05467E+03 -3.07182E+03  2.80289E+03 -1.47304E+03
  1.59066E+03 -3.31176E+02  2.64960E+03 -1.74594E+03  4.39716E+03 -1.84869E+03  3.06339E+03  3.06118E+02
  5.68277E+03  1.99583E+03  2.45481E+03  5.04267E+03 -1.79039E+03  4.63206E+03 -6.24385E+03  4.26551E+03
 -5.59436E+03 -2.14772E+03 -3.78831E+03 -4.64817E+03  1.51831E+03 -6.31797E+03  4.67294E+03 -7.55559E+03
  7.29003E+03 -4.02099E+03  9.51597E+03  5.67264E+02  6.12045E+03  5.75389E+03  2.07783E+03  8.65001E+03
 -3.24959E+03  7.22504E+03 -4.28531E+03  3.28366E+03 -2.50085E+03 -9.55910E+02 -1.14684E+03 -1.46249E+03
 -1.17267E+03  7.00815E+01 -1.42876E+03  3.31813E+03 -2.73253E+03  5.54578E+02 -4.27250E+03 -9.13128E+02
 -2.76081E+03 -3.83755E+03  1.63117E+03 -6.75945E+03  3.51812E+03 -6.55669E+03  4.76441E+03 -2.30043E+03
  6.21590E+03  3.64032E+03  2.01705E+03  5.93713E+03 -2.20459E+03  6.00681E+03 -3.77666E+03  5.33812E+03
 -5.05456E+03 -2.68116E+00 -4.98474E+03 -3.14361E+03  8.12453E+00 -3.82197E+03  2.79124E+03 -3.82381E+03
  3.04459E+03 -1.65904E+03  3.49358E+03  1.43554E+02  1.46383E+03  2.25792E+03  1.70771E+03  2.01741E+03
  2.08875E+03 -4.58506E+02  1.82819E+03  1.23944E+03  1.41423E+03  1.75636E+03  1.56196E+03  2.44235E+03
 -4.20100E+02  3.14430E+03 -3.45542E+03  5.17391E+03 -5.81716E+03  1.37740E+03 -5.64061E+03 -1.06929E+03
 -2.92244E+03 -5.10062E+03  1.43535E+03 -5.22122E+03  3.36789E+03 -3.98824E+03  5.12218E+03 -6.10485E+02
  2.33395E+03  1.49692E+03  8.05345E+02  3.07381E+03 -8.41234E+02  1.52204E+03 -2.32543E+03 -8.36153E+01
 -1.18664E+03 -3.07074E+03  2.17256E+03 -2.43601E+03  2.15816E+03 -9.57918E+02  2.69667E+03  1.00267E+03
  1.40438E+03  8.64243E+02  6.88370E+02 -1.95914E+02 -1.14344E+03  9.31097E+02  1.40865E+03 -1.76805E+02
 -2.09261E+02 -2.83794E+02  3.57826E+03  1.78303E+03  4.04001E+02  2.91793E+03 -6.75566E+02  3.78185E+03
 -1.78060E+03  1.96621E+03 -2.49989E+03  1.37130E+03 -2.10040E+03 -1.63017E+03 -4.04409E+02 -1.79537E+03
  4.19946E+02 -2.05831E+03  1.25750E+03 -2.25478E+03 -3.74460E+02  1.78298E+03  2.94546E+02  8.83504E+02
 -3.22895E+03  1.53090E+03 -1.45216E+03 -1.57767E+03 -8.05423E+02 -4.35015E+03 -5.15858E+02 -3.25721E+03
  1.78905E+03  4.15970E+02  1.50903E+03  1.74782E+02  1.15099E+03 -5.48426E+02 -1.12253E+03  1.55240E+03
  2.14118E+02  9.65005E+02 -1.01404E+03 -6.57910E+02  1.14129E+03 -2.52130E+03  2.42041E+03 -1.68229E+03
  1.95068E+03  3.44696E+02  2.72327E+03  1.38924E+03  1.72602E+03  2.69031E+03 -2.00385E+03  1.93245E+03
 -2.07151E+03  2.49447E+03 -1.47080E+03 -5.46776E+02 -1.46009E+03 -1.69462E+03  7.01040E+02 -1.46009E+03
  1.92196E+03 -1.03407E+03  1.73143E+03  1.89658E+03  6.24792E+02  1.91023E+03  1.29337E+03  1.08539E+03
 -4.96862E+01  6.29572E+02 -1.21294E+03  1.08050E+03 -4.85866E+02  2.84606E+02  7.91755E+02  1.42465E+03
 -2.02051E+03  1.96223E+03 -2.51825E+03  1.29854E+03 -3.56377E+03 -3.22409E+02 -4.05706E+03 -1.57511E+03
 -1.56829E+03 -2.98291E+03  9.20225E+02 -2.35380E+03  2.80883E+03 -3.16096E+03  4.71802E+03 -2.22239E+03
  4.02130E+03  1.62813E+03  1.48353E+03  2.11648E+03  1.31825E+02  1.70011E+03 -8.33651E+02  2.27914E+03
 -1.79331E+03  3.93545E+02 -1.15425E+03  9.10215E+02 -4.41228E+02  1.47577E+02 -7.29637E+02 -1.95657E+02
 -1.00658E+03 -1.04712E+02 -2.15224E+03  1.15693E+03 -3.27643E+02 -6.47895E+02  1.36839E+02 -1.94030E+03
  1.64800E+03 -7.35339E+02  4.53615E+02  1.19263E+02  2.03511E+03  2.21700E+03  9.64350E+02  1.90290E+03
 -1.18266E+03  3.66249E+03 -2.33691E+03  2.14601E+03 -3.99630E+03  5.93799E+02 -2.25797E+03 -2.16027E+03
 -7.98236E+02 -2.72491E+03  4.89652E+02 -2.05715E+03  1.65591E+03 -6.62347E+02  1.01976E+03  6.86742E+02
  4.32296E+02  1.27431E+03 -1.25248E+02 -5.93368E+02 -4.71278E+02  8.87234E+02  2.42288E+02 -5.74978E+02
  1.46014E+03  3.50648E+02  1.34389E+03  4.22341E+02 -7.32870E+02 -7.17029E+02  2.58732E+02  1.17400E+03
 -1.95283E+03  5.70511E+02 -1.05409E+03 -1.52074E+02 -7.82972E+02 -2.45231E+03  9.09738E+01 -2.09871E+03
  1.67493E+03 -1.30147E+03  1.04860E+03 -1.28684E+03  1.78240E+03 -3.58338E+02  5.33994E+02  1.65215E+03
  4.15192E+02  6.75958E+02 -2.73638E+02  1.91430E+03 -1.43641E+03  5.60577E+02  2.45336E+02  9.97073E+02
 -3.21263E+02 -2.57735E+02 -4.50850E+02 -4.02571E+02 -6.53305E+02 -8.37323E+02 -1.58683E+03 -2.60221E+02
 -1.08618E+03  2.47891E+02  1.99748E+02 -1.83153E+03  1.63834E+03 -1.22520E+03  8.15979E+02 -1.01010E+03
  1.25781E+03  5.75251E+02  4.89217E+02  1.87246E+02 -1.09468E+03  1.47078E+03 -8.18005E+02  1.07535E+03
