 $NMID ID='MM_0lb_SNR200_12hz_g55_13.RAW', FMTDAT='(8E13.5)'
 TRAMP=1., VOLUME=1. $END
  3.10189E+05 -5.05980E+01  3.37720E+05  2.50636E+05  8.59983E+04  3.38127E+05 -1.32439E+05  2.51551E+05
 -1.91343E+05  8.33273E+04 -1.11846E+05 -3.28565E+04  7.28443E+02 -5.09312E+04  5.45019E+04 -2.12059E+02
  3.63020E+04  5.22797E+04 -1.76115E+04  7.51749E+04 -6.05496E+04  6.33733E+04 -8.32226E+04  3.19382E+04
 -8.09117E+04 -1.03425E+04 -5.79179E+04 -5.13113E+04 -1.50590E+04 -7.13797E+04  2.80821E+04 -4.58707E+04
  4.02254E+04  3.96488E+03  1.68700E+04  4.83088E+04 -3.38036E+04  4.79164E+04 -6.86826E+04  6.14735E+02
 -5.34876E+04 -5.84662E+04 -7.43956E+03 -7.88138E+04  3.38856E+04 -5.42112E+04  4.76240E+04 -1.69629E+04
  4.45922E+04  1.07392E+04  3.24188E+04  2.65345E+04  1.51683E+04  2.93009E+04 -5.20646E+03  2.68817E+04
 -2.24254E+04  1.24519E+04 -1.78897E+04 -5.27732E+03  6.31179E+03 -8.33700E+03  2.33275E+04  1.30716E+04
  7.74395E+03  3.68769E+04 -3.38702E+04  3.54363E+04 -6.38354E+04  1.64720E+03 -5.81231E+04 -4.34820E+04
 -1.25588E+04 -6.52105E+04  4.05032E+04 -4.74771E+04  6.03065E+04 -2.22968E+03  3.63155E+04  3.25347E+04
 -5.85015E+03  3.75814E+04 -3.11068E+04  1.64935E+04 -3.24150E+04 -2.29641E+03 -1.89265E+04 -1.13993E+04
 -9.12379E+03 -1.46155E+04 -2.02965E+02 -1.95771E+04  7.69826E+03 -2.25853E+04  1.47772E+04 -1.24566E+04
  1.09586E+04  6.53602E+03 -8.25441E+03  1.33411E+04 -2.24229E+04 -6.18696E+03 -8.55510E+03 -3.60906E+04
  2.39477E+04 -4.49592E+04  5.00550E+04 -2.02877E+04  4.74482E+04  2.06323E+04  1.79460E+04  4.66442E+04
 -1.56743E+04  3.43921E+04 -2.66132E+04  1.64073E+03 -1.09800E+04 -2.86348E+04  2.11423E+04 -3.54826E+04
  4.29877E+04 -1.05032E+04  3.80145E+04  2.34425E+04  2.02189E+04  4.84766E+04 -7.53663E+03  5.33463E+04
 -3.25958E+04  3.54316E+04 -4.58556E+04  1.07655E+04 -4.46586E+04 -1.72455E+04 -2.47460E+04 -3.81535E+04
  7.40028E+03 -4.10087E+04  3.34552E+04 -1.69190E+04  3.07308E+04  1.00956E+04  5.48985E+03  2.07408E+04
 -1.38497E+04  8.92156E+03 -1.08364E+04 -7.83690E+03  5.46297E+03 -1.18794E+04  1.88884E+04  5.76773E+03
  1.36511E+04  2.26886E+04 -5.88101E+03  2.53170E+04 -2.35506E+04  1.29344E+04 -3.17360E+04 -3.86243E+03
 -2.40931E+04 -1.69075E+04 -1.04463E+04 -2.32046E+04  4.45340E+03 -2.26272E+04  1.82923E+04 -2.24999E+04
  2.82285E+04 -1.23141E+04  3.59217E+04  4.75478E+03  2.62797E+04  2.30333E+04  3.60734E+03  3.85243E+04
 -1.78955E+04  3.11012E+04 -2.97346E+04  1.07017E+04 -2.10114E+04 -1.05565E+04 -4.26610E+03 -1.16421E+04
  8.44974E+02 -1.90655E+03 -5.80031E+03  7.89610E+03 -1.87468E+04  5.45846E+03 -1.88192E+04 -1.07744E+04
 -1.09052E+04 -2.24437E+04  4.47658E+03 -2.62247E+04  1.61698E+04 -1.81246E+04  2.06872E+04 -1.20047E+03
  1.41159E+04  1.54581E+04  3.31630E+02  2.16710E+04 -1.49217E+04  1.09750E+04 -2.05364E+04 -4.54353E+03
 -1.46861E+04 -1.98074E+04 -9.70278E+02 -2.51854E+04  1.21656E+04 -2.11623E+04  2.17039E+04 -1.18578E+04
  1.86793E+04  2.97866E+02  1.42960E+04  5.23077E+03  7.78811E+03  1.37234E+03  1.07667E+04 -2.15819E+02
  2.01138E+04  4.24824E+03  2.16398E+04  1.62115E+04  1.45149E+04  3.44970E+04 -2.18844E+03  3.97299E+04
 -2.32001E+04  3.10846E+04 -3.64489E+04  1.57551E+04 -3.73509E+04 -2.50973E+03 -3.18075E+04 -2.28215E+04
 -1.27245E+04 -3.30722E+04  1.05049E+04 -2.82247E+04  2.40781E+04 -1.36933E+04  2.27874E+04  6.79197E+03
  6.37578E+03  1.60437E+04 -9.77678E+03  1.34965E+04 -1.68529E+04  3.15211E+03 -1.47525E+04 -1.08710E+04
 -1.06096E+02 -1.90997E+04  8.91743E+03 -1.26594E+04  1.18654E+04 -1.70136E+03  2.85765E+03  7.84611E+03
 -6.56882E+03  3.19254E+03 -6.72141E+03 -7.73045E+03 -1.04571E+03 -1.52339E+04  1.04699E+04 -1.64281E+04
  1.86984E+04 -9.34271E+03  2.07375E+04  3.05976E+03  1.86117E+04  1.61334E+04  9.45301E+03  2.44615E+04
 -4.79456E+03  2.60327E+04 -1.79268E+04  1.59482E+04 -1.86688E+04  2.25471E+03 -1.55215E+04 -4.38119E+03
 -6.91744E+03 -7.28518E+03 -3.16345E+02 -9.95207E+01 -1.33232E+03  2.71686E+03 -5.53116E+03  5.56775E+03
 -1.13645E+04 -1.74661E+03 -1.26948E+04 -9.90077E+03 -6.27301E+03 -1.74642E+04  5.10205E+03 -1.36521E+04
  1.21916E+04 -5.32752E+03  7.54290E+03  3.86850E+03  4.57274E+02  4.90165E+03 -7.29612E+03 -2.60508E+02
 -5.28960E+03 -9.47641E+03 -8.58640E+02 -1.26937E+04  7.29861E+03 -1.30995E+04  1.65525E+04 -7.60559E+03
  1.97987E+04  1.56723E+03  1.36220E+04  1.17407E+04  2.31357E+03  1.55971E+04 -9.14964E+03  1.38345E+04
 -1.05532E+04  3.54682E+03 -6.56153E+03 -3.53175E+03  2.43814E+03 -3.15355E+03  6.20217E+03  1.36190E+03
  6.20856E+03  4.49925E+03  2.52369E+02  1.25055E+04 -7.42080E+03  1.12499E+04 -1.42066E+04  2.99466E+03
 -7.91983E+03 -8.11967E+03  5.87894E+02 -1.11336E+04  8.13821E+03 -6.05475E+03  7.64896E+03  2.63447E+03
  1.59173E+03  8.15354E+03 -8.18951E+03  8.80870E+03 -9.90994E+03  4.30171E+03 -1.09057E+04 -4.11814E+03
 -5.86773E+03 -1.25205E+04  2.26374E+03 -1.45657E+04  1.12265E+04 -8.58914E+03  1.32790E+04  2.15439E+03
  8.15759E+03  1.03266E+04 -1.36748E+02  1.25876E+04 -9.29768E+03  8.17372E+03 -8.42653E+03 -8.87829E+02
 -8.44741E+03 -8.88612E+03 -1.49346E+03 -8.84036E+03  4.32582E+03 -6.91534E+03  5.75420E+03 -3.26920E+03
  5.31245E+03  1.64209E+03  1.45715E+03  1.49657E+03 -4.31120E+02 -1.91391E+03  2.65394E+03 -4.81950E+03
  8.66078E+03 -2.23251E+03  1.15694E+04  2.28866E+02  1.26676E+04  8.02805E+03  7.48170E+03  1.64676E+04
 -4.79652E+03  2.00631E+04 -1.59924E+04  1.32194E+04 -2.01426E+04  3.15220E+03 -1.63976E+04 -6.50315E+03
 -8.46126E+03 -1.39889E+04  7.85440E+02 -1.28711E+04  3.85102E+03 -7.25376E+03  3.81413E+03 -3.76676E+03
  3.50650E+03 -2.27524E+03  2.24394E+03 -4.31811E+03  6.51014E+03 -2.25317E+03  6.85639E+03 -8.91944E+02
  8.15600E+03  1.97752E+03  4.60820E+03  5.80099E+03 -1.91407E+03  7.90267E+03 -7.54660E+03  7.11018E+03
 -1.16370E+04 -1.12412E+03 -6.26101E+03 -5.65133E+03  1.09614E+02 -1.14897E+04  6.61734E+03 -1.22857E+04
  1.31608E+04 -7.38928E+03  1.37843E+04  1.06271E+03  9.88720E+03  9.26017E+03  1.70147E+03  1.41855E+04
 -5.14388E+03  1.08304E+04 -8.27481E+03  3.58299E+03 -5.75950E+03 -5.10056E+02 -2.05887E+03 -3.54637E+03
 -8.81072E+02 -2.92267E+02 -1.71112E+03  3.70665E+03 -3.77260E+03  1.78947E+03 -7.00699E+03  5.29086E+02
 -5.99136E+03 -7.57016E+03 -1.25385E+03 -1.07551E+04  8.08236E+03 -9.07573E+03  1.09890E+04 -4.73439E+03
  1.00445E+04  4.03998E+03  4.91484E+03  9.73471E+03 -2.47497E+03  1.15100E+04 -8.38381E+03  7.41251E+03
 -8.87168E+03  1.76913E+03 -7.20192E+03 -7.21049E+03 -6.81176E+02 -8.51657E+03  4.16801E+03 -8.35616E+03
  7.33144E+03 -3.20060E+03  6.18739E+03  8.06494E+02  2.32705E+03  3.29043E+03  7.00399E+02  1.56876E+03
  3.17413E+03  4.07222E+02  2.95191E+03  5.28953E+02  2.40145E+03  2.93381E+03  3.00751E+03  6.24392E+03
 -5.28474E+02  7.55345E+03 -7.47849E+03  9.62687E+03 -9.45404E+03  1.86002E+03 -1.13743E+04 -4.47946E+03
 -5.64278E+03 -1.19220E+04  1.58274E+03 -1.20370E+04  6.48098E+03 -6.23059E+03  9.46295E+03 -2.69016E+03
  5.30739E+03  4.60984E+03  1.76058E+03  5.85675E+03 -2.84144E+03  2.76004E+03 -4.31526E+03 -1.09148E+03
 -2.06933E+03 -4.08607E+03  8.98955E+02 -4.06441E+03  3.90041E+03 -1.77847E+03  4.08476E+03  1.41283E+03
  4.04494E+03  8.24757E+02  5.39290E+02  1.32215E+03 -5.42230E+02  1.70102E+03  1.60965E+03 -1.22280E+03
 -3.44611E+02 -1.34971E+03  3.84554E+03  5.27292E+02  2.92452E+03  6.99282E+03 -8.75539E+02  6.72258E+03
 -4.06291E+03  4.16436E+03 -6.27066E+03 -3.32760E+02 -6.33761E+03 -1.38050E+03 -1.94593E+03 -2.95046E+03
  1.54477E+03 -4.79191E+03  1.62327E+03 -3.26649E+03  1.61893E+03  2.75398E+03 -1.20086E+03  3.01739E+03
 -3.71339E+03  1.62277E+03 -4.38096E+03 -2.84133E+03 -4.01215E+03 -5.88720E+03  8.68301E+01 -5.31352E+03
  2.49254E+03 -3.53002E+03  5.07746E+03 -1.53997E+02  4.39104E+03  1.81032E+03  1.69684E+03  2.78310E+03
 -5.32339E+02  9.82885E+02 -1.15092E+03 -8.18711E+02  1.10697E+03 -3.41194E+03  3.97359E+03 -3.41041E+03
  6.00833E+03 -4.35592E+02  7.12039E+03  4.92667E+03  2.30816E+03  7.02686E+03 -1.85562E+03  6.35824E+03
 -5.93135E+03  1.78838E+03 -3.98456E+03 -1.75533E+03 -2.56465E+03 -4.10672E+03  9.63867E+02 -5.22060E+03
  2.10333E+03 -3.35629E+03  2.46528E+03  1.14959E+03  1.50048E+03  4.75148E+03 -3.47301E+01  5.87298E+02
 -1.52504E+03  2.29338E+03 -1.25711E+03  1.37919E+03 -6.64572E+02  5.90951E+02 -3.04493E+03  3.61295E+03
 -1.49458E+03  2.72211E+03 -5.00956E+03  2.94426E+03 -5.95854E+03  7.06157E+02 -7.46556E+03 -2.87933E+03
 -4.26224E+03 -8.87053E+03  1.53289E+03 -8.82364E+03  6.39991E+03 -8.06346E+03  9.31244E+03 -3.66450E+03
  8.59370E+03  4.97053E+02  5.13128E+03  5.96037E+03  6.88179E+02  6.44177E+03 -3.01511E+03  4.59952E+03
 -3.95822E+03  1.62058E+03 -2.37353E+03  7.85613E+02 -4.10704E+02 -5.11332E+02  7.29248E+02 -7.05742E+02
 -2.31872E+03  6.99238E+02 -9.35537E+02  8.08785E+02  3.64968E+02 -9.42195E+02  1.69323E+02 -2.08585E+03
  2.32387E+03 -2.29986E+03  3.69937E+03 -6.29513E+02  4.46993E+03  3.87467E+03  1.70612E+03  4.77035E+03
 -2.50989E+03  8.38002E+03 -5.70399E+03  3.82485E+03 -7.30858E+03 -1.04214E+03 -6.21435E+03 -3.89341E+03
 -2.68113E+03 -5.95197E+03  2.23884E+03 -6.39804E+03  4.01636E+03 -2.10584E+03  4.09165E+03  8.63078E+02
  2.53849E+03  2.68588E+03 -2.42172E+02  1.48209E+03 -1.31843E+03 -9.33681E+02  1.05736E+03 -2.26819E+03
  2.06362E+03 -9.92438E+02  2.94214E+03  2.77600E+03  1.95602E+03  3.88621E+03  5.82111E+02  3.85706E+02
 -2.72634E+03  1.65603E+03 -3.93141E+03  9.95212E+02 -2.79039E+03 -3.50230E+03 -9.88020E+02 -5.55508E+03
  3.52417E+03 -4.14013E+03  4.17880E+03 -1.55559E+03  4.11486E+03 -3.93979E+02  1.96990E+03  2.51612E+03
  1.60409E+03  4.35201E+03 -2.79673E+03  3.11206E+03 -2.42672E+03  1.13589E+03 -2.91134E+03  2.83579E+02
 -2.22027E+03 -2.20277E+02 -2.85569E+03  7.55961E+02 -2.95342E+03  7.52684E+02 -4.49537E+03 -5.55455E+02
 -1.39723E+03 -2.26125E+03 -4.21831E+02 -4.76486E+03  1.56229E+03 -3.75509E+03  3.49903E+03 -1.77102E+03
  4.26377E+03 -5.12889E+02  2.82299E+03  2.16105E+03  7.02168E+02  4.02309E+03 -3.95636E+03  1.60524E+03
