 $NMID ID='MM_0lb_SNR200_19hz_g60_66.RAW', FMTDAT='(8E13.5)'
 TRAMP=1., VOLUME=1. $END
  3.09948E+05 -1.63291E+02  3.36888E+05  2.50850E+05  8.45548E+04  3.35985E+05 -1.32026E+05  2.50797E+05
 -1.90062E+05  8.25404E+04 -1.11348E+05 -3.26036E+04  7.96290E+02 -4.99658E+04  5.37316E+04  4.42667E+02
  3.43214E+04  5.35379E+04 -1.65875E+04  7.46799E+04 -6.02708E+04  6.38997E+04 -8.30174E+04  3.25933E+04
 -8.06497E+04 -1.18439E+04 -5.72904E+04 -5.12161E+04 -1.48297E+04 -7.02680E+04  2.65849E+04 -4.49901E+04
  3.87601E+04  4.17367E+03  1.65933E+04  4.76371E+04 -3.43183E+04  4.76774E+04 -6.51509E+04 -1.12223E+03
 -5.17543E+04 -5.77795E+04 -6.26375E+03 -7.64181E+04  3.34939E+04 -5.42570E+04  4.74075E+04 -1.73018E+04
  4.18614E+04  1.04913E+04  3.19861E+04  2.62472E+04  1.58327E+04  2.88055E+04 -4.33623E+03  2.72287E+04
 -2.16682E+04  1.25813E+04 -1.88072E+04 -5.13603E+03  5.28533E+03 -7.96749E+03  2.18187E+04  1.23132E+04
  8.19758E+03  3.34946E+04 -3.21692E+04  3.59746E+04 -6.34759E+04  2.23027E+03 -5.61824E+04 -4.23143E+04
 -1.16961E+04 -6.14007E+04  3.96618E+04 -4.46539E+04  5.68904E+04 -2.39089E+03  3.30264E+04  3.17633E+04
 -6.76168E+03  3.49066E+04 -2.89637E+04  1.51718E+04 -2.92382E+04 -4.56803E+03 -1.50007E+04 -1.02793E+04
 -8.09692E+03 -1.10801E+04 -9.43009E+02 -1.64710E+04  7.37686E+03 -2.30232E+04  1.45932E+04 -1.33027E+04
  1.18731E+04  4.60381E+03 -6.44017E+03  1.29647E+04 -2.00167E+04 -3.75197E+03 -8.10050E+03 -3.27292E+04
  2.18739E+04 -4.28182E+04  4.66344E+04 -1.92859E+04  4.46059E+04  1.92692E+04  1.45493E+04  4.30505E+04
 -1.51429E+04  3.18669E+04 -2.36289E+04  1.59240E+03 -8.43180E+03 -2.63519E+04  2.12324E+04 -3.22403E+04
  3.91321E+04 -7.62377E+03  3.32150E+04  2.26607E+04  1.65231E+04  4.32536E+04 -7.74645E+03  4.63104E+04
 -3.03947E+04  3.13464E+04 -3.87286E+04  9.60012E+03 -4.05558E+04 -1.63961E+04 -2.29207E+04 -3.61138E+04
  7.12767E+03 -3.57129E+04  3.02728E+04 -1.43192E+04  2.72939E+04  1.09771E+04  3.69669E+03  1.90680E+04
 -1.29418E+04  7.57721E+03 -9.70640E+03 -6.82445E+03  5.21166E+03 -1.06709E+04  1.68788E+04  5.80806E+03
  1.30907E+04  2.19486E+04 -6.39353E+03  2.29330E+04 -2.13247E+04  9.56801E+03 -2.63880E+04 -5.11130E+03
 -1.75507E+04 -1.78186E+04 -6.72037E+03 -1.75606E+04  4.26033E+03 -1.52062E+04  1.30056E+04 -1.56547E+04
  2.30748E+04 -1.31855E+04  2.93125E+04  1.16333E+03  2.22899E+04  1.69578E+04  4.05802E+03  3.33212E+04
 -1.81035E+04  2.84114E+04 -2.57394E+04  9.55285E+03 -1.94544E+04 -9.69276E+03 -3.31942E+03 -1.31526E+04
  2.45547E+03 -3.79408E+03 -2.92934E+03  5.65988E+03 -1.28075E+04  6.13005E+03 -1.47281E+04 -5.20910E+03
 -8.19684E+03 -1.64785E+04  4.96238E+03 -2.10315E+04  1.37312E+04 -1.47273E+04  1.63602E+04 -1.55549E+03
  9.57930E+03  1.20526E+04 -5.19040E+02  1.67276E+04 -1.13437E+04  9.30192E+03 -1.69282E+04 -3.57015E+03
 -1.21991E+04 -1.45931E+04 -6.54790E+02 -1.98511E+04  9.81477E+03 -1.63999E+04  1.72566E+04 -8.07525E+03
  1.40736E+04 -3.76069E+02  1.12802E+04  3.33323E+03  5.64084E+03  9.04792E+02  7.68954E+03 -1.50325E+03
  1.42685E+04  2.07742E+03  1.66925E+04  1.38506E+04  8.95014E+03  2.61833E+04 -2.30666E+03  2.78820E+04
 -1.71436E+04  2.22766E+04 -2.56365E+04  1.03231E+04 -2.78141E+04 -1.98495E+03 -2.36783E+04 -1.63384E+04
 -1.11197E+04 -2.12158E+04  6.90222E+03 -2.07044E+04  1.83748E+04 -1.07833E+04  1.64153E+04  4.79452E+03
  6.69060E+03  1.09824E+04 -7.54915E+03  1.10460E+04 -1.33323E+04  2.73792E+03 -9.36232E+03 -8.58605E+03
  8.90033E+02 -1.31152E+04  6.87250E+03 -1.02791E+04  8.16870E+03 -2.06228E+03  1.34444E+03  5.52884E+03
 -6.18282E+03  1.44465E+03 -3.81546E+03 -5.07603E+03  2.04426E+02 -1.01746E+04  9.00960E+03 -9.99828E+03
  1.30539E+04 -5.05364E+03  1.37015E+04  3.26907E+03  1.18225E+04  1.00229E+04  4.91624E+03  1.47393E+04
 -2.04277E+03  1.78096E+04 -9.28698E+03  1.15615E+04 -1.23990E+04  3.31284E+03 -9.19438E+03 -2.32008E+03
 -4.22104E+03 -2.67471E+03 -2.24120E+03  2.17683E+03 -5.18202E+02  2.15402E+03 -4.32776E+03  4.05030E+03
 -8.14570E+03 -1.57054E+03 -8.68645E+03 -7.38967E+03 -4.27544E+03 -1.13413E+04  2.06218E+03 -8.99896E+03
  7.40628E+03 -3.80751E+03  6.28767E+03  1.65425E+03  9.64489E+02  3.63562E+03 -3.10061E+03 -1.66496E+02
 -2.63181E+03 -5.92472E+03 -2.14738E+03 -6.84089E+03  4.29140E+03 -7.54666E+03  1.09629E+04 -3.84741E+03
  1.28091E+04 -1.06784E+03  8.35023E+03  7.44896E+03  5.50617E+02  1.00253E+04 -5.12403E+03  9.06535E+03
 -6.44948E+03  2.00528E+03 -3.39861E+03 -1.10148E+03  1.78813E+03 -2.10191E+03  5.58756E+03 -9.79914E+02
  4.74866E+03  3.57556E+03  5.31568E+02  5.95037E+03 -4.68702E+03  7.59407E+03 -7.72779E+03  1.61105E+03
 -4.66934E+03 -3.13286E+03  2.02686E+02 -6.05144E+03  2.73027E+03 -4.13712E+03  3.69994E+03  1.90753E+03
  4.20127E+02  3.01020E+03 -4.59060E+03  5.00441E+03 -5.54191E+03  2.38519E+03 -4.09128E+03 -1.54058E+03
 -3.71884E+03 -7.39831E+03  1.78337E+03 -7.13131E+03  5.21022E+03 -5.23382E+03  7.09582E+03  2.32931E+03
  4.93312E+03  4.20231E+03  2.20402E+02  6.95175E+03 -4.66112E+03  4.72145E+03 -5.98446E+03 -2.12704E+02
 -6.58680E+03 -6.19481E+03 -2.25231E+03 -5.17785E+03  1.50326E+03 -4.48473E+03  2.93259E+03 -2.58718E+03
  4.22123E+03 -2.46162E+02 -5.91386E+01  8.50363E+02 -4.49949E+02 -9.45571E+02  1.42814E+01 -8.36369E+02
  4.29161E+03 -1.14039E+03  6.14757E+03  1.89535E+03  5.81293E+03  2.64555E+03  5.02949E+03  6.44318E+03
 -1.69165E+03  8.74089E+03 -7.22892E+03  6.49893E+03 -1.07931E+04  2.25122E+03 -8.07754E+03 -2.22859E+03
 -4.73599E+03 -6.50404E+03 -9.12169E+02 -4.38323E+03  2.18495E+03 -1.61965E+03  2.58424E+03 -2.02088E+03
  2.09718E+03 -1.93376E+03  2.55678E+03 -1.86905E+03  5.01522E+03 -9.56191E+02  4.25115E+03  2.67312E+02
  3.69867E+03  6.07048E+02  2.42521E+03  3.77585E+03 -7.39853E+02  2.68805E+03 -4.97874E+03  3.56311E+03
 -4.33398E+03 -9.52055E+02 -1.81376E+03 -3.35256E+03 -3.29381E+01 -4.92707E+03  3.27793E+03 -5.62729E+03
  6.05471E+03 -3.99672E+03  7.51260E+03 -8.33731E+01  5.23949E+03  3.64152E+03  1.58092E+03  5.63939E+03
 -1.99153E+03  6.41245E+03 -2.89490E+03  2.32799E+03 -2.51526E+03 -1.08871E+03 -1.17527E+03 -1.30841E+03
 -1.79219E+02  6.50609E+02 -1.27996E+03  2.69533E+03 -2.20698E+03  1.32346E+03 -3.56554E+03  2.44832E+02
 -1.03461E+03 -3.84217E+03 -1.98193E+02 -4.95822E+03  2.75963E+03 -3.63350E+03  3.26765E+03 -1.83193E+03
  3.88112E+03  2.81290E+03  1.94271E+03  3.38079E+03 -9.76322E+02  4.22425E+03 -3.26120E+03  2.69938E+03
 -3.08798E+03 -4.30907E+01 -4.24842E+03 -2.52717E+03 -5.72798E+01 -2.12387E+03  8.97117E+02 -3.14474E+03
  2.22145E+03 -1.40150E+03  1.19220E+03  2.07470E+03  1.35454E+02  1.46141E+03  9.07371E+02  4.43950E+02
  1.17379E+03  1.68066E+03  7.03551E+02 -2.19717E+02  4.03838E+02  1.70850E+03  1.41380E+03  1.24791E+03
 -1.41341E+03  3.43177E+03 -1.80356E+03  3.42199E+03 -3.43895E+03  3.90186E+02 -5.57837E+03  2.03718E+02
 -1.05615E+03 -3.71049E+03  5.72918E+01 -4.37882E+03  1.19945E+03 -2.50426E+03  3.56266E+03 -1.23718E+03
  1.91569E+03  2.04715E+03  8.22458E+02  2.24713E+03 -4.00263E+02  1.22226E+03 -8.42091E+02  1.88332E+02
 -7.08094E+02 -1.53975E+03  3.05263E+02 -3.00389E+02  1.57176E+03 -5.60805E+02  5.53293E+02  3.72621E+02
 -1.75042E+02  2.75981E+02  4.79175E+02 -1.37846E+03 -6.53196E+01  8.57116E+02  2.82052E+03 -2.42418E+02
  3.36933E+02 -3.36099E+02  1.41481E+03  1.34016E+03 -8.61272E+01  2.67885E+03 -6.82974E+02  1.39136E+03
 -2.09676E+03  5.53664E+02 -1.56998E+03  1.33280E+03 -2.51936E+03 -6.30865E+02  5.72871E+02  1.52345E+02
  2.26267E+03 -2.53840E+02  7.10344E+02 -1.21559E+02  9.89863E+02  1.01157E+03 -2.35427E+02  3.26454E+02
 -8.35389E+02  1.18719E+03 -1.33204E+03 -1.01622E+03  2.90500E+02 -1.96633E+03 -3.47372E+02 -1.40635E+03
 -1.50464E+02 -4.60551E+02  5.13910E+02  5.81508E+02  3.67663E+02  3.98367E+02  2.81555E+02  2.09622E+02
 -5.65642E+02 -6.17713E+02 -1.16822E+03  8.92703E+02  1.16373E+03 -2.99862E+02  2.09257E+03 -7.49669E+02
  5.40970E+02  4.25676E+02  2.69958E+03  2.33040E+02  8.66644E+02  1.98166E+03  4.05452E+02  1.42692E+03
 -5.51981E+02 -9.61235E+02 -2.41187E+03  1.77553E+02 -1.36916E+02 -1.33495E+03 -5.67418E+02 -1.15373E+03
  1.60173E+03 -5.03368E+02  9.69189E+01  8.67218E+02  2.03677E+02  1.50314E+03 -2.23151E+02  1.07677E+03
 -7.12676E+02  7.43736E+02 -9.10267E+02 -3.70050E+02  2.19372E+02  1.12320E+03 -1.01562E+03  1.86685E+03
 -1.52279E+03  5.29635E+02 -2.03777E+03 -8.29569E+01 -1.42698E+03 -1.48604E+03 -2.53044E+03 -2.07529E+02
 -2.07824E+02 -3.32219E+03  2.83771E+02 -1.69456E+03  6.60435E+02 -2.06097E+03  2.97291E+03  1.96691E+02
  2.10499E+03  5.60752E+02  7.96134E+02  1.14647E+03  1.55245E+02  1.93793E+03 -6.21537E+02  1.73816E+03
 -1.17945E+03  3.41437E+02 -1.04304E+03 -1.15442E+03  2.52224E+02 -1.07725E+02 -4.33634E+02  2.90659E+02
 -1.24166E+03  1.23491E+03  5.12210E+01  1.01170E+03  1.57494E+02 -6.12070E+02 -9.21915E+01 -5.71408E+02
  1.00538E+03  2.23382E+01  1.16877E+02  9.76356E+02  6.25127E+02  5.66186E+02 -7.51809E+02  1.51114E+03
 -1.49749E+03  1.80482E+03 -1.34442E+03  1.34042E+03 -2.44848E+03 -8.28654E+02 -8.66354E+02  1.23640E+02
 -1.72400E+02 -1.85596E+03 -1.13909E+03 -5.40615E+02 -3.83590E+02 -1.97082E+02  1.15247E+02 -1.15777E+02
 -1.06478E+03  8.47666E+02  9.22262E+02  3.98408E+02 -3.34724E+02  7.13526E+01  1.71204E+01 -2.31158E+02
  6.13462E+02  1.41939E+03  5.49187E+02 -5.60049E+02  4.77214E+01  5.96063E+02  7.24408E+02  3.29544E+02
  8.84699E+02  1.20265E+03  5.20322E+02  1.45350E+02 -1.21152E+03 -4.13939E+02  1.61612E+02 -1.03860E+03
 -8.53667E+01 -4.16038E+02  8.61258E+02 -3.22339E+02  9.46752E+02 -1.16093E+03  8.21511E+00  7.22179E+02
  7.04063E+01  7.39710E+02 -1.43424E+02  2.84807E+02 -2.78559E+02  7.29304E+02  4.08710E+02  5.59880E+02
  1.32861E+03  2.08174E+02 -4.19945E+01 -8.94899E+02  9.58602E+01  6.35311E+02  6.22917E+02 -4.42934E+02
 -9.87310E+02  4.60423E+02 -5.94800E+02 -8.85037E+02  1.28288E+03 -9.19124E+02  4.92073E+02  3.96853E+02
  1.71173E+03 -7.65754E+02 -6.61574E+02  8.53811E+02 -1.59115E+03  1.42089E+03  3.37730E+02  5.91077E+02
