 $NMID ID='MM_0lb_SNR200_12hz_g50_61.RAW', FMTDAT='(8E13.5)'
 TRAMP=1., VOLUME=1. $END
  3.09179E+05  1.72075E+03  3.39012E+05  2.50554E+05  8.44878E+04  3.38618E+05 -1.31275E+05  2.50869E+05
 -1.90935E+05  8.39124E+04 -1.11899E+05 -3.11777E+04  2.06672E+03 -4.99482E+04  5.44907E+04 -6.79183E+00
  3.45125E+04  5.20990E+04 -1.57391E+04  7.67335E+04 -6.15849E+04  6.37545E+04 -8.48530E+04  3.19304E+04
 -8.05955E+04 -1.26057E+04 -5.65272E+04 -5.25047E+04 -1.54166E+04 -6.97672E+04  2.75721E+04 -4.64635E+04
  4.04477E+04  2.29817E+03  1.69407E+04  4.88086E+04 -3.38435E+04  4.76185E+04 -6.61156E+04  5.67660E+02
 -5.33748E+04 -5.78175E+04 -6.19583E+03 -7.71376E+04  3.33198E+04 -5.61339E+04  4.85687E+04 -1.77483E+04
  4.39222E+04  1.05935E+04  3.20525E+04  2.57312E+04  1.63140E+04  2.96830E+04 -5.49485E+03  2.72328E+04
 -2.31521E+04  1.28976E+04 -1.87684E+04 -6.68863E+03  5.70873E+03 -7.83604E+03  2.27327E+04  1.30748E+04
  6.55825E+03  3.72710E+04 -3.34961E+04  3.56044E+04 -6.42412E+04  2.99569E+03 -5.73403E+04 -4.26975E+04
 -1.16336E+04 -6.56232E+04  4.01765E+04 -4.75350E+04  5.96762E+04 -2.02139E+03  3.57505E+04  3.27754E+04
 -5.16932E+03  3.78148E+04 -3.03993E+04  1.72744E+04 -3.12030E+04 -5.88708E+03 -1.90737E+04 -1.26071E+04
 -8.07222E+03 -1.46393E+04 -5.98150E+02 -1.87987E+04  7.27311E+03 -2.33260E+04  1.52203E+04 -1.25048E+04
  1.01813E+04  5.17970E+03 -7.64650E+03  1.35040E+04 -2.04114E+04 -4.85261E+03 -8.68636E+03 -3.58493E+04
  2.34777E+04 -4.39573E+04  5.09855E+04 -1.90372E+04  4.63765E+04  1.98946E+04  1.67889E+04  4.52161E+04
 -1.70548E+04  3.36736E+04 -2.48575E+04  1.70034E+03 -1.12253E+04 -2.77883E+04  2.14588E+04 -3.55502E+04
  4.08881E+04 -9.16022E+03  3.84147E+04  2.30788E+04  2.06243E+04  4.75033E+04 -6.74940E+03  5.21647E+04
 -3.34278E+04  3.56299E+04 -4.39297E+04  9.81056E+03 -4.35601E+04 -1.66397E+04 -2.50433E+04 -3.96660E+04
  8.01382E+03 -3.90516E+04  3.30995E+04 -1.48840E+04  3.15853E+04  1.09637E+04  3.02624E+03  2.12939E+04
 -1.39402E+04  9.85547E+03 -9.48211E+03 -6.95063E+03  6.55222E+03 -1.04691E+04  1.79025E+04  5.51829E+03
  1.36678E+04  2.28024E+04 -5.47133E+03  2.67727E+04 -2.37405E+04  1.28407E+04 -2.92067E+04 -3.71036E+03
 -2.24026E+04 -1.70250E+04 -9.41069E+03 -2.32337E+04  4.01857E+03 -2.22490E+04  1.75122E+04 -2.00392E+04
  2.84857E+04 -1.29898E+04  3.48094E+04  3.35868E+03  2.45187E+04  2.21021E+04  2.34924E+03  3.79000E+04
 -1.94242E+04  3.03195E+04 -2.93944E+04  1.21971E+04 -2.14764E+04 -1.09627E+04 -5.66627E+03 -1.29546E+04
  9.48010E+02 -1.00931E+03 -5.77226E+03  7.24993E+03 -1.71001E+04  5.77132E+03 -1.86274E+04 -8.08650E+03
 -9.23121E+03 -2.06020E+04  4.90965E+03 -2.45984E+04  1.70198E+04 -1.75411E+04  2.14135E+04 -1.19921E+03
  1.15778E+04  1.50756E+04 -2.71393E+03  2.02394E+04 -1.42009E+04  1.17654E+04 -2.13980E+04 -3.53354E+03
 -1.62859E+04 -1.87603E+04 -2.21851E+03 -2.50204E+04  1.15811E+04 -2.21093E+04  2.14485E+04 -1.24637E+04
  1.98231E+04 -5.31778E+02  1.48054E+04  4.22423E+03  7.19668E+03  1.10437E+03  1.06272E+04 -1.96785E+03
  2.01441E+04  3.06356E+03  2.25773E+04  1.64426E+04  1.43174E+04  3.30616E+04 -3.02502E+03  3.69136E+04
 -2.19314E+04  3.08459E+04 -3.50012E+04  1.62734E+04 -3.71429E+04 -2.57337E+03 -3.16906E+04 -2.13187E+04
 -1.30717E+04 -2.94517E+04  1.03000E+04 -2.73838E+04  2.29192E+04 -1.37660E+04  2.20121E+04  6.65930E+03
  7.80687E+03  1.67764E+04 -9.12733E+03  1.44731E+04 -1.66650E+04  1.69529E+03 -1.45716E+04 -1.15452E+04
 -1.06073E+03 -1.67587E+04  1.00027E+04 -1.29940E+04  1.17980E+04 -2.76939E+02  2.96814E+03  7.32844E+03
 -8.89534E+03  4.08624E+03 -7.94315E+03 -6.73232E+03 -2.02834E+03 -1.48773E+04  1.12874E+04 -1.60345E+04
  1.88764E+04 -7.92514E+03  2.15680E+04  2.72783E+03  1.84667E+04  1.48414E+04  8.33410E+03  2.33241E+04
 -4.25220E+03  2.47153E+04 -1.70375E+04  1.70171E+04 -1.93198E+04  4.07596E+03 -1.28632E+04 -4.26900E+03
 -6.08028E+03 -5.32449E+03 -1.19095E+03  6.48825E+02 -1.51112E+03  2.89981E+03 -5.91798E+03  5.26711E+03
 -1.19793E+04 -1.74810E+03 -1.31742E+04 -1.07589E+04 -5.19137E+03 -1.61876E+04  3.89708E+03 -1.32789E+04
  1.00196E+04 -6.11204E+03  7.27764E+03  3.48826E+03 -9.70690E+02  4.09648E+03 -5.81264E+03 -1.33930E+03
 -6.33608E+03 -8.60337E+03 -2.15672E+03 -1.27241E+04  6.25011E+03 -1.35936E+04  1.73646E+04 -7.56078E+03
  1.81254E+04  1.28641E+03  1.42679E+04  1.01504E+04  1.40831E+03  1.47172E+04 -8.37546E+03  1.33056E+04
 -1.02547E+04  4.67759E+03 -5.06843E+03 -3.11412E+03  1.45881E+03 -2.88522E+03  6.14881E+03 -3.47287E+02
  5.63075E+03  5.94898E+03  1.38127E+03  1.12910E+04 -7.49402E+03  1.01537E+04 -1.30720E+04  1.42956E+03
 -9.05973E+03 -6.54233E+03  9.12393E+01 -1.18149E+04  7.08574E+03 -5.18518E+03  6.87752E+03  3.24836E+03
  7.08353E+02  8.25505E+03 -6.43251E+03  8.48588E+03 -1.03286E+04  3.89850E+03 -1.11169E+04 -3.93811E+03
 -6.35166E+03 -1.15933E+04  2.54749E+03 -1.43002E+04  1.20287E+04 -9.15985E+03  1.29441E+04  1.87978E+03
  8.43516E+03  1.10312E+04 -8.63669E+02  1.28724E+04 -9.13502E+03  8.20483E+03 -1.06046E+04 -1.94854E+03
 -8.67403E+03 -8.60083E+03  2.27766E+02 -9.50657E+03  4.86166E+03 -7.48318E+03  5.25927E+03 -3.21006E+03
  4.04583E+03  5.18076E+02 -1.19073E+03  1.04756E+03 -6.56298E+02 -3.27275E+03  1.66341E+03 -6.13880E+03
  8.47688E+03 -2.83350E+03  1.24190E+04  1.24941E+03  1.18949E+04  8.90835E+03  7.54260E+03  1.54510E+04
 -3.91590E+03  1.88477E+04 -1.41803E+04  1.29931E+04 -1.79188E+04  1.76052E+03 -1.57084E+04 -5.62886E+03
 -7.31288E+03 -1.21891E+04 -6.24676E+02 -9.82224E+03  4.75602E+03 -5.68443E+03  3.57505E+03 -3.61111E+03
  2.41816E+03 -3.09959E+03  4.53202E+03 -3.46558E+03  5.14665E+03 -1.65239E+03  5.73213E+03 -9.12811E+02
  7.60589E+03  2.12546E+03  5.17123E+03  8.20888E+03 -1.15070E+03  7.49718E+03 -7.49582E+03  7.11047E+03
 -9.57966E+03 -5.23907E+02 -5.54916E+03 -8.15331E+03 -9.60201E+02 -1.15446E+04  6.39816E+03 -1.22069E+04
  1.15254E+04 -6.85441E+03  1.47680E+04  1.39454E+03  8.85129E+03  9.73891E+03  2.08891E+03  1.33549E+04
 -3.54971E+03  9.55710E+03 -7.69564E+03  4.51449E+03 -5.18840E+03 -1.01369E+03 -2.54584E+03 -1.42144E+03
 -7.85137E+02 -9.53891E+02 -1.64975E+03  1.26250E+03 -4.58626E+03  2.97815E+03 -9.07283E+03 -1.06873E+03
 -6.16517E+03 -7.13272E+03 -2.05025E+02 -9.72536E+03  5.82826E+03 -1.01495E+04  9.73680E+03 -3.23595E+03
  9.42852E+03  5.13785E+03  4.72605E+03  9.81313E+03 -2.18885E+03  1.01629E+04 -7.60962E+03  6.29046E+03
 -9.98681E+03  4.34511E+02 -7.36145E+03 -6.13236E+03 -1.29487E+03 -7.77246E+03  4.28417E+03 -7.13802E+03
  5.47486E+03 -2.45974E+03  4.57928E+03  3.03938E+03  1.67055E+03  4.02005E+03  2.50220E+03  4.50648E+02
  1.96683E+03  9.22457E+02  3.47589E+03  2.21501E+03  2.83341E+03  3.40970E+03  1.82357E+03  6.21483E+03
 -2.63526E+03  6.56488E+03 -7.01558E+03  8.37255E+03 -9.18942E+03  2.39266E+03 -1.06789E+04 -3.23720E+03
 -4.60663E+03 -9.07675E+03  2.25510E+03 -1.14431E+04  6.81440E+03 -7.22310E+03  7.27568E+03 -1.41487E+03
  5.31480E+03  3.56264E+03  6.69917E+02  6.80431E+03 -3.39772E+03  2.39733E+03 -3.19759E+03 -1.11441E+03
 -1.04320E+03 -3.18228E+03  2.34345E+03 -4.85530E+03  4.68384E+03 -3.05360E+03  4.43856E+03  1.83033E+03
  1.74626E+03  2.40271E+03 -1.22390E+02 -1.47168E+02  2.69707E+02  1.56038E+03  7.95944E+02 -1.23085E+03
  1.63979E+03 -9.17979E+02  3.09254E+03  2.60029E+03  2.35943E+03  5.48278E+03 -2.74813E+02  6.94718E+03
 -3.68155E+03  3.71978E+03 -5.87535E+03  1.74202E+03 -4.88864E+03 -2.37370E+03 -2.65892E+03 -3.06711E+03
  1.00743E+03 -4.60739E+03  2.47559E+03 -1.36041E+03  2.74191E+03  1.63194E+03 -2.65226E+02  3.07990E+03
 -3.78305E+03  3.08344E+03 -3.53036E+03 -2.39684E+03 -3.42304E+03 -5.41852E+03  1.84119E+03 -5.69098E+03
  3.22224E+03 -4.48327E+03  4.09324E+03 -9.42869E+02  3.23282E+03  1.94608E+03 -2.79882E+02  3.19392E+03
 -1.94275E+03  6.25096E+02 -2.96030E+03 -1.17371E+03  2.48514E+03 -4.41831E+03  4.96754E+03 -3.97682E+03
  5.35110E+03  1.64829E+03  6.52921E+03  4.77728E+03  3.66171E+03  5.26172E+03 -8.03469E+02  6.42662E+03
 -5.74531E+03  3.62270E+03 -5.14372E+03  2.59166E+02 -3.40953E+03 -3.98632E+03  2.11460E+03 -3.60389E+03
  4.34066E+03 -1.29664E+03  3.60286E+03  2.84062E+03  7.64848E+02  4.37357E+03 -2.51062E+02  3.61633E+03
 -1.91645E+03  2.81073E+03 -1.89386E+03  1.22642E+03 -3.28601E+02 -1.05428E+02 -2.42402E+03  2.00916E+03
 -8.73817E+02  2.18374E+03 -5.05554E+03  7.30971E+02 -5.80478E+03 -9.30807E+02 -5.66846E+03 -3.87760E+03
 -2.34483E+03 -7.39048E+03  1.41845E+03 -1.01910E+04  6.19450E+03 -7.72634E+03  9.84198E+03 -2.69079E+03
  7.62439E+03  5.87516E+02  5.55515E+03  5.85296E+03  1.54321E+02  6.90380E+03 -2.04258E+03  4.07939E+03
 -3.90687E+03  1.90901E+03 -2.57555E+03 -6.91927E+02 -3.86946E+02 -1.06858E+03 -1.35860E+03  7.66529E+02
 -1.44925E+03  5.07331E+02 -8.81709E+02 -2.04990E+03 -7.06777E+02 -2.42427E+02  2.75072E+02 -3.06693E+03
  1.07479E+03 -1.47996E+03  3.78264E+03 -4.69587E+02  3.45250E+03  2.11764E+03  1.42543E+03  5.68159E+03
 -2.05403E+03  6.64626E+03 -6.82397E+03  4.59448E+03 -8.16492E+03 -6.18648E+02 -4.23364E+03 -5.41178E+03
 -2.69215E+03 -6.19752E+03  1.12656E+03 -4.26016E+03  3.29246E+03 -3.15098E+03  4.01863E+03  1.11452E+03
  2.02059E+03  1.92522E+03 -4.29119E+02  1.59675E+03 -4.18102E+02 -8.28927E+02 -8.41606E+02 -2.08255E+03
  1.45840E+03 -1.83453E+02  2.53630E+03  1.18089E+03  2.19330E+03  3.27243E+03 -5.92693E+01  2.96638E+03
 -3.09406E+03  3.43476E+03 -2.51673E+03 -1.02451E+03 -3.35359E+03 -1.66654E+03  5.77229E+01 -4.44540E+03
  2.95017E+03 -3.54890E+03  4.90592E+03 -8.33313E+02  5.09404E+03  1.86787E+02  1.77330E+03  4.45272E+03
 -1.92940E+02  3.63370E+03 -2.79525E+03  3.57214E+03 -2.62866E+03  1.91260E+03 -1.43053E+03  4.45162E+02
 -3.96598E+02  6.06491E+02 -1.20194E+03  4.61840E+01 -2.67584E+03  6.50574E+02 -3.83750E+03 -7.32104E+02
 -3.39883E+03 -1.83161E+03 -1.42538E+03 -3.64952E+03  1.27895E+03 -3.66376E+03  2.95918E+03 -1.23501E+03
  3.80819E+03  6.26332E+02  1.14774E+03  2.03394E+03 -7.04055E+02  2.60459E+03 -3.16738E+03  2.86349E+03
