 $NMID ID='MM_0lb_SNR200_10hz_g60_39.RAW', FMTDAT='(8E13.5)'
 TRAMP=1., VOLUME=1. $END
  3.10154E+05  7.18215E+02  3.36793E+05  2.50727E+05  8.43229E+04  3.37873E+05 -1.30282E+05  2.52153E+05
 -1.89435E+05  8.27901E+04 -1.12253E+05 -3.29630E+04  1.14052E+03 -4.93530E+04  5.45120E+04 -1.75310E+03
  3.51240E+04  5.19783E+04 -1.73671E+04  7.67944E+04 -6.15303E+04  6.45771E+04 -8.41929E+04  3.30237E+04
 -8.20847E+04 -1.12662E+04 -5.71082E+04 -5.19793E+04 -1.57513E+04 -7.14261E+04  2.89761E+04 -4.69433E+04
  4.18890E+04  3.66022E+03  1.67583E+04  4.77983E+04 -3.42728E+04  4.75570E+04 -6.90196E+04  1.42670E+03
 -5.55083E+04 -5.71344E+04 -7.49343E+03 -7.93794E+04  3.57880E+04 -5.67757E+04  5.02441E+04 -1.80965E+04
  4.57836E+04  1.13705E+04  3.28070E+04  2.72192E+04  1.64286E+04  2.95698E+04 -5.83527E+03  2.92375E+04
 -2.25020E+04  1.24293E+04 -1.78719E+04 -5.60899E+03  6.45319E+03 -6.05359E+03  2.39800E+04  1.32875E+04
  6.86017E+03  3.65705E+04 -3.48741E+04  3.87634E+04 -6.54616E+04  2.15336E+03 -5.84130E+04 -4.43428E+04
 -1.38742E+04 -6.68902E+04  4.14995E+04 -4.66736E+04  6.18342E+04 -4.54624E+03  3.70466E+04  3.44498E+04
 -6.47981E+03  4.11668E+04 -3.29010E+04  1.87741E+04 -3.33181E+04 -2.54654E+03 -2.00975E+04 -1.15579E+04
 -9.00447E+03 -1.52174E+04  4.87909E+02 -2.14329E+04  7.41620E+03 -2.30988E+04  1.60596E+04 -1.25101E+04
  8.88893E+03  6.27018E+03 -1.18810E+04  1.20585E+04 -2.26579E+04 -6.56545E+03 -8.54289E+03 -3.71977E+04
  2.47872E+04 -4.60313E+04  5.12289E+04 -2.09758E+04  4.76850E+04  1.90082E+04  1.63761E+04  4.68992E+04
 -1.62313E+04  3.85141E+04 -2.70180E+04  1.89395E+03 -1.35981E+04 -2.82670E+04  1.99748E+04 -3.75226E+04
  4.50541E+04 -1.06015E+04  4.08207E+04  2.63766E+04  2.27022E+04  5.23668E+04 -7.94097E+03  5.71707E+04
 -3.51504E+04  3.82973E+04 -4.91669E+04  1.14497E+04 -4.91377E+04 -1.98087E+04 -2.58305E+04 -4.42246E+04
  5.94921E+03 -4.21333E+04  3.44339E+04 -1.76936E+04  3.42555E+04  1.19938E+04  3.86345E+03  1.99511E+04
 -1.42562E+04  8.78967E+03 -1.06605E+04 -7.41783E+03  6.35661E+03 -1.10412E+04  1.74145E+04  5.70731E+03
  1.64962E+04  2.21453E+04 -4.37324E+03  2.79586E+04 -2.24573E+04  1.48398E+04 -3.09876E+04 -2.42000E+03
 -2.49931E+04 -1.89652E+04 -1.14647E+04 -2.39709E+04  3.79545E+03 -2.49992E+04  2.04031E+04 -2.23570E+04
  3.31406E+04 -1.55511E+04  3.91646E+04  6.33042E+03  2.74623E+04  2.35183E+04  5.10820E+03  4.29395E+04
 -1.95808E+04  3.30928E+04 -3.14308E+04  1.22176E+04 -2.17155E+04 -1.06003E+04 -2.85356E+03 -1.19867E+04
  9.63299E+02 -7.27740E+02 -6.47795E+03  7.76541E+03 -2.22371E+04  6.16606E+03 -1.95164E+04 -9.62631E+03
 -1.22357E+04 -2.41165E+04  7.97145E+03 -2.90904E+04  1.95049E+04 -1.86179E+04  2.21207E+04 -1.07851E+03
  1.38147E+04  1.72502E+04 -3.79678E+02  2.18928E+04 -1.60237E+04  1.32589E+04 -2.50543E+04 -3.91861E+03
 -1.93986E+04 -2.00205E+04 -1.94597E+03 -2.78653E+04  1.25376E+04 -2.37031E+04  2.32168E+04 -1.06496E+04
  2.21795E+04  9.83752E+02  1.59984E+04  4.88411E+03  6.34626E+03  3.18753E+03  1.30153E+04 -2.05731E+03
  2.41721E+04  2.04513E+03  2.56164E+04  1.83511E+04  1.82145E+04  3.78904E+04 -1.79044E+03  4.39568E+04
 -2.41873E+04  3.68884E+04 -4.17479E+04  1.93944E+04 -4.39652E+04 -2.65102E+03 -3.54661E+04 -2.75742E+04
 -1.47465E+04 -3.66833E+04  1.30260E+04 -3.23862E+04  2.73123E+04 -1.58364E+04  2.31799E+04  8.56431E+03
  8.30371E+03  1.78585E+04 -1.21941E+04  1.57462E+04 -2.14682E+04  2.68743E+03 -1.66148E+04 -1.38089E+04
  5.52801E+02 -1.89874E+04  1.28474E+04 -1.51876E+04  1.30438E+04 -2.92416E+03  2.95947E+03  8.62035E+03
 -7.85701E+03  2.63496E+03 -9.06402E+03 -7.19802E+03 -2.13270E+03 -1.85945E+04  1.08514E+04 -2.01540E+04
  2.46206E+04 -1.15869E+04  2.54497E+04  2.94014E+03  2.12575E+04  1.79925E+04  1.01013E+04  3.05396E+04
 -4.00940E+03  3.20239E+04 -2.13315E+04  2.05028E+04 -2.32251E+04  5.15814E+03 -1.56204E+04 -5.97624E+03
 -7.89623E+03 -7.56700E+03  9.04388E+02 -4.47109E+02 -3.23727E+03  2.09356E+03 -8.29147E+03  5.59614E+03
 -1.41551E+04 -6.20451E+02 -1.70294E+04 -1.06580E+04 -6.08426E+03 -2.04958E+04  5.13999E+03 -1.56124E+04
  1.20531E+04 -8.38282E+03  9.57413E+03  4.44998E+03 -4.10254E+02  5.33435E+03 -7.35321E+03  8.27306E+02
 -7.94916E+03 -9.48215E+03 -1.43711E+03 -1.60729E+04  9.32081E+03 -1.65668E+04  1.98322E+04 -9.35979E+03
  2.25140E+04  1.26713E+03  1.74691E+04  1.38624E+04  3.13342E+03  1.80055E+04 -7.57017E+03  1.41686E+04
 -1.18046E+04  4.84487E+03 -6.23975E+03 -4.73002E+03  3.07546E+03 -4.66547E+03  8.43716E+03 -6.72655E+01
  5.93617E+03  5.46356E+03  3.56179E+02  1.23167E+04 -8.48197E+03  1.30143E+04 -1.53761E+04  3.08139E+03
 -9.98609E+03 -8.42603E+03  2.48946E+02 -1.33261E+04  8.68532E+03 -6.17180E+03  9.42806E+03  4.13957E+03
  2.67298E+03  1.04991E+04 -7.78742E+03  1.24500E+04 -1.24545E+04  5.47187E+03 -1.43679E+04 -2.64215E+03
 -7.89950E+03 -1.67050E+04  4.93651E+03 -1.94690E+04  1.42712E+04 -9.55396E+03  1.73482E+04  4.42124E+03
  1.01314E+04  1.32104E+04 -5.97549E+02  1.53767E+04 -9.71544E+03  8.86593E+03 -1.27685E+04 -1.56530E+03
 -1.13452E+04 -1.07321E+04 -1.48376E+03 -1.22398E+04  6.72024E+03 -9.22780E+03  7.60876E+03 -3.75279E+03
  4.41858E+03  2.79068E+03 -1.24116E+03  3.02585E+03 -1.76934E+03 -3.70193E+03  5.16896E+02 -7.31859E+03
  1.14667E+04 -4.65940E+03  1.47442E+04  9.04842E+02  1.70025E+04  1.02625E+04  9.25272E+03  2.11748E+04
 -4.05801E+03  2.39181E+04 -1.86406E+04  1.81251E+04 -2.32856E+04  3.06748E+03 -1.96798E+04 -1.01322E+04
 -1.14879E+04 -1.79318E+04 -2.19672E+02 -1.44765E+04  5.49633E+03 -7.38950E+03  5.71897E+03 -4.66857E+03
  3.63135E+03 -2.29423E+03  2.83534E+03 -4.06426E+03  5.60806E+03 -3.84900E+03  8.84943E+03 -1.14935E+03
  1.11915E+04  3.19265E+03  5.11306E+03  8.04959E+03 -1.96875E+03  1.14246E+04 -1.11646E+04  8.29371E+03
 -1.44829E+04 -8.68332E+02 -1.03203E+04 -9.73869E+03 -8.28424E+02 -1.55050E+04  9.34421E+03 -1.60544E+04
  1.66317E+04 -8.43648E+03  1.88168E+04  1.94998E+03  1.33892E+04  1.49760E+04  1.58585E+03  1.76899E+04
 -6.16213E+03  1.39181E+04 -1.10920E+04  4.22532E+03 -6.93282E+03 -2.25850E+03 -1.59057E+03 -1.27317E+03
 -1.35199E+03 -1.58354E+03 -4.10458E+03  1.02888E+03 -7.13887E+03  2.49339E+03 -1.04628E+04 -1.70045E+03
 -7.16965E+03 -9.88109E+03 -1.43127E+03 -1.42443E+04  9.08773E+03 -1.16345E+04  1.44144E+04 -3.41019E+03
  1.29849E+04  6.27529E+03  8.97142E+03  1.31469E+04 -6.52743E+02  1.41436E+04 -1.11289E+04  9.01017E+03
 -1.40867E+04  6.03883E+02 -9.08977E+03 -8.66025E+03 -2.99523E+02 -1.20357E+04  4.94839E+03 -8.61049E+03
  8.91051E+03 -3.28301E+03  7.39344E+03  3.36775E+03  2.33926E+03  4.02027E+03  1.97462E+03  1.60581E+03
  2.51331E+03  2.62912E+03  3.73790E+03  1.23867E+03  5.08082E+03  5.04029E+03  4.33375E+03  8.82538E+03
 -3.50594E+03  9.83707E+03 -9.15060E+03  1.07538E+04 -1.32799E+04  3.43128E+03 -1.55422E+04 -6.47160E+03
 -8.03771E+03 -1.51657E+04  1.07014E+03 -1.50913E+04  9.71176E+03 -8.88885E+03  1.17319E+04 -2.68151E+03
  8.41430E+03  6.97440E+03  2.28221E+03  6.34874E+03 -4.52806E+03  3.82400E+03 -5.98841E+03 -1.42246E+03
 -2.05786E+03 -5.95139E+03  2.36959E+03 -7.69546E+03  5.23212E+03 -3.55115E+03  7.07751E+03  9.59067E+02
  5.03134E+03  3.54664E+03  1.53028E+03  2.03252E+03 -2.09997E+02  3.53209E+03  1.12442E+03 -6.44116E+00
  2.61355E+03 -1.01316E+03  6.13206E+03  1.42758E+03  3.69057E+03  6.63733E+03 -2.08353E+03  9.15214E+03
 -5.48589E+03  6.70109E+03 -8.92994E+03  2.38504E+03 -6.53062E+03 -3.47865E+03 -3.14895E+03 -6.40142E+03
  5.18017E+02 -6.93157E+03  3.52629E+03 -2.41372E+03  4.22520E+03  2.75047E+03 -2.46385E+03  4.16191E+03
 -6.01842E+03  3.71897E+03 -6.33884E+03 -2.84436E+03 -3.79843E+03 -6.79401E+03  3.90393E+02 -6.92723E+03
  4.45206E+03 -4.74920E+03  6.69063E+03 -1.65383E+03  4.49160E+03  3.39974E+03  1.45924E+03  3.56113E+03
 -2.81204E+03  1.09932E+03 -2.62648E+03 -3.41589E+03  1.19464E+03 -5.80124E+03  7.59608E+03 -5.11518E+03
  8.54824E+03  1.79669E+03  9.69256E+03  6.87397E+03  3.27947E+03  8.29072E+03 -3.02278E+03  8.20861E+03
 -8.40258E+03  3.87111E+03 -7.23837E+03 -1.75193E+03 -4.50267E+03 -7.42090E+03  7.25012E+02 -6.95007E+03
  4.99685E+03 -3.19710E+03  6.40870E+03  2.21733E+03  2.11738E+03  5.67254E+03  4.34454E+02  5.39536E+03
 -4.30634E+03  2.74443E+03 -1.72714E+03  9.89226E+02 -2.43639E+01  5.83676E+02  2.62285E+02  2.09419E+03
 -1.76743E+03  3.11772E+03 -6.19393E+03  2.55003E+03 -9.40469E+03 -5.97291E+02 -9.50122E+03 -6.34782E+03
 -5.60709E+03 -9.82948E+03  2.00425E+03 -1.54476E+04  7.83344E+03 -1.04355E+04  1.29943E+04 -3.86933E+03
  1.18264E+04  2.01711E+03  7.07198E+03  8.42643E+03 -7.23249E+01  1.00478E+04 -3.63971E+03  6.33616E+03
 -6.45064E+03  3.23924E+03 -4.19515E+03 -8.37329E+02 -3.62948E+03 -6.62070E+02 -4.05639E+02 -7.11887E+02
 -1.29437E+03  4.82576E+02 -1.95207E+03 -9.48297E+02 -8.83162E+02 -2.20668E+03 -8.56427E+02 -2.49418E+03
  4.79634E+03 -3.27927E+03  6.32086E+03 -2.37749E+03  6.84120E+03  3.88053E+03  3.42037E+03  1.03805E+04
 -3.95855E+03  1.12984E+04 -1.04379E+04  5.86037E+03 -1.09998E+04 -5.42087E+02 -9.34736E+03 -7.19450E+03
 -2.01063E+03 -9.93877E+03  2.03754E+03 -9.07672E+03  5.75945E+03 -5.20805E+03  7.10006E+03  4.46714E+02
  4.12103E+03  3.09332E+03 -3.09819E+02  2.39952E+03 -1.68639E+03  3.33724E+01 -1.88429E+02 -2.43818E+03
  2.76250E+03 -2.75778E+02  2.15145E+03  1.06890E+03  2.24215E+03  3.62593E+03  6.21889E+02  4.69618E+03
 -5.02701E+03  3.98371E+03 -7.22050E+03 -2.46560E+02 -5.56570E+03 -4.51240E+03 -8.36294E+02 -7.38695E+03
  3.88801E+03 -6.14207E+03  7.33117E+03 -3.17324E+03  7.32292E+03 -2.48286E+02  3.26783E+03  5.69981E+03
  1.57531E+03  6.73313E+03 -2.28802E+03  3.78715E+03 -4.41738E+03  2.14879E+03 -2.76442E+03  6.20180E+00
 -2.97554E+03  5.89411E+02 -9.56675E+02  2.10999E+03 -2.61140E+03  1.21429E+03 -3.11411E+03  2.59490E+02
 -5.56687E+03 -3.01727E+03 -2.40541E+03 -6.87399E+03  3.20437E+03 -6.39757E+03  5.08329E+03 -4.29645E+03
  6.03111E+03  8.12365E+02  3.24199E+03  4.18188E+03 -1.41097E+03  5.84341E+03 -4.62118E+03  3.99775E+03
