 $NMID ID='MM_0lb_SNR200_10hz_g55_84.RAW', FMTDAT='(8E13.5)'
 TRAMP=1., VOLUME=1. $END
  3.10127E+05  1.88689E+02  3.38294E+05  2.50585E+05  8.60970E+04  3.39438E+05 -1.33954E+05  2.52769E+05
 -1.90901E+05  8.36898E+04 -1.09496E+05 -3.34617E+04  4.70629E+02 -5.13080E+04  5.30492E+04 -7.16701E+02
  3.32021E+04  5.29346E+04 -1.71684E+04  7.53337E+04 -6.06680E+04  6.36257E+04 -8.64442E+04  3.20485E+04
 -8.52816E+04 -1.23174E+04 -5.76555E+04 -5.26513E+04 -1.50151E+04 -7.11644E+04  2.77668E+04 -4.66058E+04
  4.22538E+04  3.07533E+03  1.67132E+04  4.86318E+04 -3.49075E+04  4.82581E+04 -6.74803E+04  1.83447E+02
 -5.60093E+04 -5.92781E+04 -6.67814E+03 -7.86303E+04  3.46155E+04 -5.77513E+04  4.91070E+04 -1.85515E+04
  4.39355E+04  1.11086E+04  3.31257E+04  2.69416E+04  1.68834E+04  3.13598E+04 -4.79283E+03  2.81264E+04
 -2.17028E+04  1.03815E+04 -1.78764E+04 -5.40998E+03  5.94236E+03 -8.39357E+03  2.31634E+04  1.43569E+04
  6.61689E+03  3.69185E+04 -3.25867E+04  3.64538E+04 -6.47172E+04  1.83909E+03 -5.85657E+04 -4.45520E+04
 -1.19078E+04 -6.63401E+04  4.12521E+04 -4.74778E+04  6.31439E+04 -4.53154E+02  3.66661E+04  3.50691E+04
 -5.19548E+03  3.81157E+04 -3.10844E+04  1.96513E+04 -3.23248E+04 -2.75376E+03 -1.83064E+04 -1.25789E+04
 -9.99298E+03 -1.44354E+04 -1.11442E+03 -1.89279E+04  9.90031E+03 -2.34231E+04  1.53294E+04 -1.34055E+04
  1.08258E+04  6.52502E+03 -1.07549E+04  1.21512E+04 -2.28471E+04 -7.07172E+03 -8.29688E+03 -3.72677E+04
  2.59485E+04 -4.74003E+04  5.17185E+04 -2.14711E+04  4.78805E+04  2.17490E+04  1.76712E+04  4.65859E+04
 -1.68254E+04  3.64478E+04 -2.71589E+04  2.40362E+03 -1.12605E+04 -2.89493E+04  2.11015E+04 -3.55306E+04
  4.37018E+04 -1.14616E+04  3.98418E+04  2.51967E+04  2.05568E+04  5.02776E+04 -8.02149E+03  5.54814E+04
 -3.54388E+04  3.78088E+04 -4.60040E+04  1.02745E+04 -4.64033E+04 -1.77464E+04 -2.53425E+04 -4.18670E+04
  7.47153E+03 -4.10286E+04  3.32976E+04 -1.83277E+04  3.17620E+04  1.15301E+04  4.69624E+03  2.00166E+04
 -1.33404E+04  9.53309E+03 -1.10800E+04 -8.23450E+03  6.97501E+03 -1.10903E+04  1.81883E+04  5.83954E+03
  1.51772E+04  2.30109E+04 -5.13885E+03  2.79386E+04 -2.27190E+04  1.35540E+04 -3.19043E+04 -2.69202E+03
 -2.55781E+04 -1.81926E+04 -1.16389E+04 -2.55503E+04  4.16453E+03 -2.56547E+04  1.99663E+04 -2.27292E+04
  3.23728E+04 -1.27486E+04  3.73327E+04  4.45815E+03  2.66362E+04  2.56142E+04  4.67040E+03  4.09281E+04
 -1.92251E+04  3.27062E+04 -2.98934E+04  1.16733E+04 -2.25683E+04 -1.12377E+04 -4.35087E+03 -1.20636E+04
  2.65497E+03 -1.45176E+03 -6.34596E+03  9.36628E+03 -2.05212E+04  5.80013E+03 -1.97281E+04 -9.50120E+03
 -1.18519E+04 -2.32252E+04  5.27777E+03 -2.70746E+04  1.86276E+04 -1.79853E+04  2.17626E+04 -2.23167E+03
  1.39537E+04  1.51212E+04 -1.66234E+03  2.29791E+04 -1.47200E+04  1.32582E+04 -2.32758E+04 -4.42777E+03
 -1.71165E+04 -1.95898E+04 -5.18668E+02 -2.86204E+04  1.26926E+04 -2.53754E+04  2.16872E+04 -1.06193E+04
  2.02752E+04 -2.60185E+02  1.67752E+04  5.67493E+03  8.66112E+03  1.61502E+03  1.34260E+04 -1.29875E+03
  2.27186E+04  1.50619E+03  2.52710E+04  1.77702E+04  1.68367E+04  3.75735E+04 -1.56788E+03  4.32119E+04
 -2.59146E+04  3.61264E+04 -4.10990E+04  1.95785E+04 -4.17064E+04 -3.32990E+03 -3.64523E+04 -2.49114E+04
 -1.42579E+04 -3.62768E+04  1.36776E+04 -3.14789E+04  2.70609E+04 -1.40906E+04  2.42292E+04  8.70586E+03
  8.48927E+03  1.90971E+04 -1.21713E+04  1.39059E+04 -1.96866E+04  3.38248E+03 -1.49245E+04 -1.33425E+04
 -2.70787E+01 -1.94195E+04  1.04385E+04 -1.33949E+04  1.38119E+04 -5.69751E+02  5.40483E+03  8.70382E+03
 -8.47103E+03  3.24837E+03 -8.39098E+03 -6.59030E+03 -7.08269E+02 -1.76293E+04  1.21234E+04 -2.02332E+04
  2.26208E+04 -1.07470E+04  2.36665E+04  2.46469E+03  2.14138E+04  1.85884E+04  1.00341E+04  2.80547E+04
 -4.98886E+03  3.14243E+04 -1.95307E+04  1.88739E+04 -2.33066E+04  2.96297E+03 -1.37373E+04 -5.97344E+03
 -5.76513E+03 -7.13111E+03 -1.81859E+02 -1.94096E+02 -6.37110E+02  2.55606E+03 -8.51591E+03  5.03763E+03
 -1.37689E+04 -1.34179E+03 -1.37954E+04 -1.16632E+04 -6.72054E+03 -1.81958E+04  4.92713E+03 -1.56139E+04
  1.17801E+04 -7.26671E+03  8.88299E+03  2.71354E+03 -3.78443E+02  7.49900E+03 -7.54194E+03  5.57063E+02
 -7.68887E+03 -8.05432E+03 -1.05228E+03 -1.45551E+04  9.29044E+03 -1.50864E+04  1.81882E+04 -8.84880E+03
  2.27006E+04  4.42948E+03  1.61156E+04  1.41595E+04  2.19547E+03  1.88868E+04 -8.88132E+03  1.61798E+04
 -1.42213E+04  3.16613E+03 -5.77337E+03 -2.45545E+03  1.02353E+03 -4.31225E+03  6.88269E+03 -2.20056E+03
  7.87192E+03  7.79233E+03  7.11102E+02  1.30724E+04 -8.60017E+03  1.04117E+04 -1.47541E+04  4.62560E+03
 -1.13164E+04 -9.65333E+03  4.83273E+02 -1.19124E+04  7.91786E+03 -6.19873E+03  9.29226E+03  2.83652E+03
  1.89926E+03  1.03570E+04 -8.52372E+03  1.18102E+04 -1.30550E+04  6.09477E+03 -1.17926E+04 -3.59469E+03
 -7.56161E+03 -1.37580E+04  4.54893E+03 -1.78798E+04  1.39208E+04 -1.02026E+04  1.66602E+04  3.88749E+03
  1.09426E+04  1.08741E+04 -1.05309E+03  1.38485E+04 -1.12085E+04  8.94078E+03 -1.27957E+04 -8.41521E+02
 -1.01497E+04 -9.35903E+03 -1.06030E+03 -1.16367E+04  5.53290E+03 -9.16066E+03  6.45857E+03 -5.20831E+03
  4.41770E+03  2.96658E+03 -1.10257E+03  2.96632E+03  2.40553E+02 -3.53281E+03  4.93968E+03 -7.20389E+03
  1.00479E+04 -5.20473E+03  1.42514E+04  1.12025E+03  1.46784E+04  1.02960E+04  9.69229E+03  1.95802E+04
 -5.20591E+03  2.36535E+04 -1.88953E+04  1.62886E+04 -2.30461E+04  3.96164E+03 -1.98063E+04 -7.20596E+03
 -8.47827E+03 -1.65818E+04 -3.91156E+02 -1.27571E+04  3.84883E+03 -8.01344E+03  5.06185E+03 -2.94942E+03
  3.24997E+03 -4.90936E+03  3.07779E+03 -3.80556E+03  5.56774E+03 -2.94970E+03  8.58487E+03 -4.97379E+02
  1.10471E+04  1.78952E+03  5.02005E+03  9.07755E+03 -1.32741E+03  1.05210E+04 -1.25509E+04  8.03092E+03
 -1.46032E+04 -3.17806E+02 -7.47523E+03 -1.00896E+04 -1.86560E+03 -1.41013E+04  7.50473E+03 -1.43591E+04
  1.58531E+04 -8.02779E+03  1.76833E+04  1.15788E+03  1.24709E+04  1.27378E+04  2.16216E+03  1.71469E+04
 -7.00030E+03  1.32529E+04 -1.08807E+04  5.43885E+03 -7.35975E+03 -1.94328E+03 -2.90030E+03 -1.03448E+03
 -1.42142E+03 -1.64459E+03 -4.92386E+02  3.82390E+03 -5.70481E+03  9.56980E+02 -9.36471E+03 -1.51063E+03
 -7.03657E+03 -9.10063E+03  9.74203E+02 -1.44323E+04  7.22353E+03 -1.14365E+04  1.33939E+04 -4.52130E+03
  1.35153E+04  7.30060E+03  7.01321E+03  1.07339E+04 -1.61541E+03  1.33136E+04 -1.10841E+04  7.95645E+03
 -1.13258E+04  8.55385E+02 -1.11131E+04 -7.11465E+03 -1.41779E+03 -1.09588E+04  4.04352E+03 -8.24404E+03
  8.77999E+03 -3.39409E+03  5.72974E+03  1.98441E+03  3.26416E+03  4.03906E+03  1.76323E+03  4.06198E+03
  3.13924E+03  1.41141E+03  2.81903E+03  1.44957E+03  3.39631E+03  5.15842E+03  2.92990E+03  6.91147E+03
 -4.48836E+03  1.18396E+04 -8.50283E+03  9.86031E+03 -1.39823E+04  3.40476E+03 -1.43685E+04 -5.59014E+03
 -6.87666E+03 -1.34845E+04  3.56650E+02 -1.51740E+04  8.29134E+03 -9.69716E+03  1.13690E+04 -1.94459E+03
  8.08857E+03  4.96231E+03  1.21377E+03  9.09650E+03 -3.88468E+03  3.86663E+03 -6.49001E+03 -2.86182E+02
 -2.03549E+03 -6.08423E+03  2.78660E+03 -5.52345E+03  6.09392E+03 -2.18220E+03  7.45246E+03  1.18489E+03
  1.99323E+03  2.73610E+03  1.71994E+03  2.91908E+03 -3.91878E+02  5.27643E+02  2.10451E+03  8.38546E+02
  2.86056E+03 -1.04915E+03  6.01839E+03  4.02799E+03  3.57421E+03  7.95956E+03 -2.84219E+02  9.01536E+03
 -6.51674E+03  6.33576E+03 -7.94373E+03  2.88597E+03 -7.10540E+03 -3.94382E+03 -2.58601E+03 -5.30060E+03
  7.40137E+02 -4.61997E+03  4.22198E+03 -2.52159E+03  2.95152E+03  1.88769E+03 -3.44245E+00  5.80081E+03
 -7.90445E+03  2.93234E+03 -5.84800E+03 -4.73649E+03 -2.27329E+03 -8.17577E+03  1.95620E+03 -7.24994E+03
  4.42086E+03 -5.12058E+03  4.34478E+03 -6.78747E+02  5.44398E+03  2.18826E+03  6.60904E+02  5.64987E+03
 -1.41811E+03  1.10845E+03 -4.06900E+03 -3.85847E+03  9.00532E+02 -6.14571E+03  6.07027E+03 -5.10542E+03
  7.19681E+03  4.47502E+02  1.01783E+04  5.45656E+03  3.65157E+03  1.02165E+04 -3.99450E+03  9.40845E+03
 -8.45286E+03  3.79288E+03 -6.27972E+03  6.70434E+01 -5.43573E+03 -4.96261E+03  6.88810E+02 -5.95498E+03
  4.79819E+03 -2.05667E+03  5.38274E+03  3.65994E+03  8.32905E+02  5.92284E+03 -5.09053E+02  3.89582E+03
 -1.44666E+03  1.37004E+03 -3.10026E+03  1.58049E+03  1.08178E+01  4.60014E+02 -1.36031E+03  1.56155E+03
 -1.54191E+03  3.95169E+03 -5.45103E+03  2.92662E+03 -8.01487E+03  1.08745E+03 -9.86877E+03 -4.46412E+03
 -6.38703E+03 -1.10895E+04  6.69040E+02 -1.38792E+04  7.49605E+03 -1.14688E+04  1.31683E+04 -4.32913E+03
  1.32848E+04  1.58484E+03  7.17954E+03  7.66165E+03 -2.67900E+02  9.69747E+03 -2.54912E+03  5.91510E+03
 -4.56164E+03  2.97393E+03 -2.47028E+03 -1.13803E+03 -1.12332E+03 -1.28094E+03 -7.34230E+02 -1.46613E+02
 -2.08803E+03 -7.97369E+02 -3.44064E+03  2.83518E+02 -6.03003E+02 -2.57001E+03  1.69772E+03 -3.57125E+03
  4.18261E+03 -2.64151E+03  5.84225E+03  1.48146E+03  6.63604E+03  6.02357E+03  1.39977E+03  9.07549E+03
 -4.70905E+03  1.09464E+04 -9.47707E+03  5.28539E+03 -1.06404E+04 -7.74857E+02 -7.29231E+03 -6.24925E+03
 -2.35804E+03 -8.05680E+03  1.60496E+03 -9.57374E+03  6.07588E+03 -3.59019E+03  4.49759E+03 -1.18801E+03
  3.32723E+03  3.69807E+03  4.03182E+02  2.71161E+03 -2.24005E+03 -3.67565E+01 -5.30531E+02 -2.35055E+03
  3.33965E+03 -1.49298E+03  2.25551E+03  2.30594E+03  3.45166E+03  3.60815E+03 -1.22378E+03  3.21126E+03
 -5.03340E+03  4.25821E+03 -6.64098E+03  2.25644E+02 -4.94282E+03 -5.16571E+03 -7.49429E+02 -8.60009E+03
  3.56431E+03 -6.19721E+03  6.05021E+03 -7.73385E+02  7.52566E+03  2.08551E+03  2.70852E+03  6.37546E+03
  1.06052E+03  5.65509E+03 -2.07984E+03  4.84192E+03 -5.17930E+03  2.30116E+03 -2.37581E+03 -3.46479E+02
 -1.82167E+03 -1.10701E+03 -4.19959E+02  2.65884E+01 -2.59197E+03  2.06658E+02 -4.09114E+03  1.04431E+02
 -5.17646E+03 -3.15672E+03 -1.56374E+03 -5.47086E+03  2.83607E+03 -7.25607E+03  4.40201E+03 -2.90189E+03
  4.36434E+03  6.49966E+02  4.09956E+03  4.89864E+03 -1.71339E+03  6.17047E+03 -5.49484E+03  3.20373E+03
