 $NMID ID='MM_0lb_SNR200_18hz_g45_26.RAW', FMTDAT='(8E13.5)'
 TRAMP=1., VOLUME=1. $END
  3.10326E+05  5.03157E+02  3.36936E+05  2.50304E+05  8.36881E+04  3.36691E+05 -1.33038E+05  2.49985E+05
 -1.89309E+05  8.18677E+04 -1.10665E+05 -3.26695E+04  1.47524E+03 -4.98959E+04  5.43177E+04  5.41193E+02
  3.56481E+04  5.23296E+04 -1.63584E+04  7.48907E+04 -6.11188E+04  6.33775E+04 -8.33231E+04  3.21044E+04
 -7.91082E+04 -1.08981E+04 -5.63542E+04 -5.04018E+04 -1.59634E+04 -6.80262E+04  2.63147E+04 -4.43269E+04
  3.92276E+04  3.49625E+03  1.58379E+04  4.68307E+04 -3.42864E+04  4.63264E+04 -6.49650E+04 -1.85371E+02
 -5.20627E+04 -5.61432E+04 -6.98279E+03 -7.54207E+04  3.33582E+04 -5.30340E+04  4.58911E+04 -1.69938E+04
  4.12554E+04  1.05936E+04  3.09025E+04  2.49123E+04  1.52141E+04  2.78797E+04 -4.74459E+03  2.64272E+04
 -2.16979E+04  1.29909E+04 -1.88322E+04 -4.06948E+03  4.42399E+03 -7.30059E+03  2.02664E+04  1.16011E+04
  7.57926E+03  3.28530E+04 -3.01497E+04  3.40320E+04 -6.02078E+04  1.57303E+03 -5.48686E+04 -4.12969E+04
 -1.30377E+04 -6.12094E+04  3.81725E+04 -4.30829E+04  5.56237E+04 -1.37166E+03  3.21369E+04  2.93224E+04
 -6.28294E+03  3.38359E+04 -2.88147E+04  1.29190E+04 -2.77822E+04 -5.44899E+03 -1.40208E+04 -9.04943E+03
 -6.55891E+03 -1.19605E+04 -4.45764E+02 -1.61845E+04  6.66744E+03 -2.26570E+04  1.42501E+04 -1.37697E+04
  1.23559E+04  4.80421E+03 -5.97887E+03  1.34384E+04 -1.99037E+04 -2.92660E+03 -7.14485E+03 -3.08026E+04
  2.11980E+04 -4.06943E+04  4.46572E+04 -1.86960E+04  4.14283E+04  1.81400E+04  1.50996E+04  4.25228E+04
 -1.48144E+04  3.14898E+04 -2.36892E+04  1.27173E+03 -7.94470E+03 -2.56869E+04  2.04461E+04 -3.17169E+04
  3.81334E+04 -6.88296E+03  3.29688E+04  2.32649E+04  1.53049E+04  4.16334E+04 -7.71163E+03  4.51747E+04
 -2.93099E+04  2.88317E+04 -3.80100E+04  9.19959E+03 -3.80692E+04 -1.50410E+04 -2.03781E+04 -3.48931E+04
  6.20738E+03 -3.40897E+04  2.94770E+04 -1.27512E+04  2.61965E+04  1.04582E+04  2.73898E+03  1.84161E+04
 -1.17531E+04  7.22924E+03 -9.86630E+03 -7.99801E+03  6.25613E+03 -1.13838E+04  1.68166E+04  6.48045E+03
  1.26476E+04  2.18290E+04 -6.03620E+03  2.33275E+04 -2.09912E+04  9.55047E+03 -2.38936E+04 -5.87822E+03
 -1.68747E+04 -1.62730E+04 -5.21560E+03 -1.68099E+04  3.26403E+03 -1.46165E+04  1.18154E+04 -1.46474E+04
  2.21655E+04 -1.19946E+04  2.84716E+04  1.52075E+03  2.14790E+04  1.77735E+04  3.84356E+03  3.34406E+04
 -1.56869E+04  2.69808E+04 -2.69845E+04  9.82764E+03 -1.92693E+04 -9.68615E+03 -4.69991E+03 -1.35111E+04
  2.71447E+03 -4.50538E+03 -3.01562E+03  5.33747E+03 -1.27022E+04  3.90026E+03 -1.29676E+04 -5.91304E+03
 -8.94924E+03 -1.62678E+04  4.75058E+03 -1.89470E+04  1.25016E+04 -1.44571E+04  1.54998E+04 -1.91813E+03
  9.69627E+03  1.05735E+04 -3.89070E+01  1.58229E+04 -1.10348E+04  9.76146E+03 -1.52102E+04 -2.18421E+03
 -1.17464E+04 -1.46280E+04 -4.19724E+02 -1.87444E+04  9.01755E+03 -1.53551E+04  1.63580E+04 -6.88157E+03
  1.49540E+04 -5.10863E+02  1.22150E+04  3.18746E+03  5.32421E+03  1.14810E+03  8.21921E+03 -1.56198E+03
  1.44660E+04  2.72025E+03  1.52748E+04  1.39350E+04  8.68369E+03  2.59081E+04 -3.33348E+03  2.80658E+04
 -1.65185E+04  2.08230E+04 -2.46119E+04  1.04240E+04 -2.58968E+04 -1.11380E+03 -2.13291E+04 -1.49052E+04
 -9.88773E+03 -2.06775E+04  6.38321E+03 -1.95845E+04  1.70520E+04 -1.21779E+04  1.52394E+04  3.90880E+03
  6.75950E+03  1.17914E+04 -8.05894E+03  1.08563E+04 -1.44222E+04  1.14204E+03 -1.07748E+04 -7.10823E+03
  1.01341E+01 -1.26758E+04  5.51917E+03 -9.80623E+03  7.86635E+03 -6.17680E+02  1.25769E+03  4.86380E+03
 -4.84238E+03  2.60034E+03 -3.72866E+03 -3.98616E+03  2.16796E+02 -9.74050E+03  8.91372E+03 -1.06208E+04
  1.23376E+04 -5.66149E+03  1.32531E+04  1.71854E+03  1.04871E+04  1.04584E+04  5.75986E+03  1.37536E+04
 -2.46968E+03  1.59796E+04 -1.03604E+04  1.01833E+04 -1.25161E+04  2.33853E+03 -8.19771E+03 -2.85002E+03
 -4.39483E+03 -3.11549E+03 -1.13370E+03  1.23022E+03 -3.03708E+03  2.12305E+03 -3.99620E+03  3.95284E+03
 -7.95439E+03  8.29810E+02 -9.18374E+03 -8.03361E+03 -3.08224E+03 -1.13836E+04  2.39468E+03 -9.44543E+03
  7.61795E+03 -3.97109E+03  5.00567E+03  1.44239E+03  1.78721E+03  2.85668E+03 -3.49988E+03  6.72284E+02
 -2.26000E+03 -6.07525E+03 -9.46127E+02 -8.05921E+03  4.37354E+03 -6.21441E+03  1.05685E+04 -2.80341E+03
  1.23632E+04  1.88361E+03  8.47710E+03  6.10089E+03  2.07858E+03  9.43586E+03 -5.57919E+03  8.33302E+03
 -6.26794E+03  2.19359E+03 -2.51265E+03 -1.26815E+03  1.27585E+03 -1.82079E+03  5.99339E+03 -1.24092E+03
  5.41231E+03  3.64295E+03  1.58125E+03  6.02546E+03 -3.26110E+03  6.39993E+03 -7.93999E+03  2.30691E+03
 -5.31521E+03 -3.24095E+03  7.07175E+02 -7.19120E+03  4.99405E+03 -2.95731E+03  2.71069E+03  1.15977E+03
  9.27102E+02  3.23819E+03 -4.06047E+03  5.02828E+03 -5.07556E+03  2.53580E+03 -3.85060E+03 -1.63876E+03
 -3.12632E+03 -6.48186E+03  1.59602E+03 -7.57007E+03  5.91221E+03 -4.64182E+03  7.38631E+03  9.57909E+02
  3.55526E+03  4.86632E+03 -7.07105E+01  6.79992E+03 -3.95557E+03  3.28177E+03 -5.89833E+03 -9.11164E+02
 -7.32836E+03 -5.04016E+03 -1.93899E+03 -4.74812E+03  4.01381E+03 -5.11749E+03  3.36258E+03 -3.51186E+03
  2.36650E+03  1.73846E+02 -8.70836E+02  9.85350E+02  1.73601E+03 -5.36549E+02 -5.75645E+02 -2.77086E+03
  3.55673E+03 -2.44012E+02  5.46908E+03  1.84823E+02  5.05534E+03  3.40449E+03  5.05054E+03  6.77487E+03
 -2.03916E+03  8.20767E+03 -8.26464E+03  6.38981E+03 -9.88653E+03  7.49671E+02 -7.24866E+03 -3.02920E+03
 -4.70481E+03 -6.59139E+03 -4.96271E+02 -5.32015E+03  2.39328E+03 -3.71805E+03  2.09433E+03 -2.92616E+03
  5.89351E+02 -2.06917E+03  1.82919E+03 -3.43701E+03  3.55486E+03 -1.23179E+03  2.17754E+03  3.22961E+02
  4.12519E+03  8.14634E+02  3.51559E+02  2.97153E+03 -8.71585E+02  1.81468E+03 -4.69211E+03  2.52237E+03
 -4.67739E+03 -1.58252E+03 -2.01429E+03 -3.57854E+03 -5.51266E+01 -4.57462E+03  4.02496E+03 -5.59669E+03
  4.69978E+03 -3.66901E+03  6.92330E+03 -1.47570E+02  6.27175E+03  3.77078E+03  6.13436E+02  5.71345E+03
 -1.80236E+03  5.51023E+03 -2.71933E+03  2.00058E+03 -1.58009E+03 -9.18853E+02 -1.25575E+03 -3.85043E+02
 -1.01281E+03  1.93146E+03 -1.03250E+03  1.39309E+03 -2.60743E+03  1.52410E+03 -3.90166E+03 -3.33124E+02
 -1.02091E+03 -3.58763E+03 -5.86675E+02 -4.83283E+03  2.68977E+03 -4.54917E+03  3.52578E+03 -6.53870E+02
  4.61414E+03  2.15306E+03  1.13594E+03  4.03109E+03 -4.86006E+02  4.79261E+03 -2.39292E+03  3.07202E+03
 -4.42418E+03  9.15776E+02 -3.18910E+03 -2.05157E+03 -9.77601E+02 -3.01596E+03  1.10184E+03 -2.48851E+03
  2.57099E+03 -1.35940E+03  1.41596E+03  1.86698E+03  1.22624E+03  1.83201E+03  2.09750E+02  2.34556E+02
  2.01727E+03  6.15522E+01  1.76129E+03  7.65096E+02  1.80084E+03  1.80688E+03  1.60669E+03  1.64727E+03
 -6.28605E+02  3.23373E+03 -2.22675E+03  4.87029E+03 -2.85994E+03  1.48970E+03 -4.05532E+03  1.84096E+02
 -2.25890E+03 -3.78156E+03  7.30545E+02 -4.69928E+03  1.75006E+03 -3.87773E+03  3.37035E+03 -1.42008E+03
  1.00815E+03  2.35679E+03  1.53426E+03  2.03981E+03 -1.00071E+03  1.84671E+03 -1.56175E+03  4.93631E+02
 -6.70171E+02 -1.88051E+03  1.32327E+03 -3.33415E+03  1.83607E+03 -1.47974E+03  4.83218E+02  5.67799E+02
  1.20013E+03  2.48598E+02  7.77426E+02  1.79775E+02  2.62355E+01  1.27698E+03  9.32030E+02 -1.65832E+02
  5.19468E+01 -6.61952E+02  1.98557E+03  2.43834E+01 -9.57484E+02  2.11707E+03 -6.04654E+02  3.06072E+03
 -1.80397E+03  1.43872E+03 -1.70463E+03  1.07950E+03 -1.92098E+03 -8.28940E+02 -6.09173E+02 -1.17812E+03
  1.31273E+03 -1.58862E+03  1.58443E+03 -7.00421E+02  3.11182E+02  1.95711E+03 -1.03623E+03  2.16830E+03
 -1.84885E+03  1.07907E+03 -1.04565E+03 -1.31223E+03 -8.63284E+02 -1.55440E+03  7.07702E+02 -2.10291E+03
  8.75702E+02 -1.38708E+03  5.91829E+02 -6.53467E+02  5.92402E+02  3.47633E+02 -5.96916E+01 -4.64386E+02
  4.37579E+01  3.89538E+02 -1.58741E+03 -4.40464E+02 -1.10672E+02 -6.15068E+02  1.94528E+03  5.76716E+02
  1.13516E+03  1.91221E+02  1.63503E+03  2.24498E+03  8.09894E+02  2.43037E+03 -1.37634E+02  2.39035E+03
 -1.72590E+03  1.20641E+03 -1.72666E+03 -8.14094E+02 -2.06818E+03 -1.49455E+03  8.68044E+02 -1.88422E+03
  1.89461E+03 -3.81649E+02  1.34804E+03  3.30970E+02  6.18198E+02  2.46741E+02  1.35373E+02  5.84975E+02
  2.73961E+01  2.73833E+02 -1.47156E+02  5.81155E+01  3.02905E+02 -9.88552E+01 -4.49242E+02  5.41658E+01
 -6.00983E+02  1.38464E+03 -1.53750E+03  8.02163E+01 -1.93259E+03  8.21717E+02 -1.02336E+03 -1.74208E+03
 -1.54131E+03 -2.51511E+03 -1.85708E+02 -3.26341E+03  1.97810E+03 -3.80479E+03  3.64720E+03 -7.73317E+02
  3.65518E+03  5.35761E+02  1.79406E+03  9.19831E+02 -1.63755E+03  1.34566E+03 -1.05152E+03  6.86691E+02
 -1.54419E+03  1.83360E+02 -1.26965E+03  4.47729E+02 -9.82245E+02 -4.70666E+01 -1.30350E+02  1.89676E+02
 -6.92304E+02 -7.25830E+02 -1.01531E+03  8.02293E+02  5.83640E+02 -6.69214E+02  1.46262E+02 -1.19595E+03
  2.43785E+03 -5.22696E+02  7.60077E+02  9.60518E+02  7.32294E+02  1.76776E+03 -4.49505E+00  1.07941E+03
 -1.80696E+03  2.85322E+03 -2.03379E+03  1.38752E+03 -1.69010E+03 -4.07414E+02 -1.74673E+03 -1.13857E+03
 -2.41638E+03 -2.10715E+03 -2.95023E+01 -8.75002E+02  5.93619E+02 -1.14427E+03  1.38625E+02  5.79448E+02
  1.32164E+03  9.33987E+02 -7.58193E+02  1.90797E+03 -4.49728E+02 -2.80721E+02 -7.02609E+01 -1.23635E+02
  6.04310E+02  5.77409E+02 -1.84604E+02  1.48820E+03 -5.00924E+02 -1.29637E+02  1.30538E+02  7.89093E+02
 -5.97182E+02  7.12235E+02 -1.06308E+03 -2.24514E+02 -7.71655E+02 -6.69585E+02  9.92848E+02 -1.31179E+03
  3.17954E+02 -1.48877E+03  2.36802E+02 -2.51932E+02  8.97509E+02 -1.05045E+03  1.14907E+03  1.52219E+03
  3.23353E+02  9.59982E+02 -3.53739E+02  1.85780E+03  1.00111E+02  5.57623E+02 -7.53898E+02 -2.69999E+02
 -4.62637E+02  6.26815E+02 -4.34061E+02  9.28691E+02 -6.32489E+02  1.19276E+02 -8.09656E+02 -8.46194E+02
 -5.77481E+02  1.22259E+03 -8.86094E+02 -1.14682E+03  5.83293E+02 -1.85438E+03  1.29604E+03  1.27341E+02
  1.48416E+03  1.65435E+02  4.46068E+02  9.60780E+02  9.09411E+02  1.19290E+03 -1.59360E+02  7.03940E+02
