 $NMID ID='MM_0lb_SNR200_12hz_g60_2.RAW', FMTDAT='(8E13.5)'
 TRAMP=1., VOLUME=1. $END
  3.08611E+05  2.08435E+02  3.37666E+05  2.49058E+05  8.39011E+04  3.37973E+05 -1.32526E+05  2.51760E+05
 -1.90352E+05  8.34188E+04 -1.11193E+05 -3.10353E+04 -4.89004E+02 -5.01258E+04  5.28441E+04 -5.98075E+02
  3.51781E+04  5.36519E+04 -1.55550E+04  7.74693E+04 -5.91588E+04  6.44762E+04 -8.58985E+04  3.12992E+04
 -8.14686E+04 -1.09642E+04 -5.78255E+04 -5.30798E+04 -1.50672E+04 -7.19106E+04  2.82758E+04 -4.63646E+04
  4.01717E+04  4.89723E+03  1.68459E+04  4.96301E+04 -3.44355E+04  4.93961E+04 -6.84006E+04  3.60076E+02
 -5.34872E+04 -5.90015E+04 -6.74861E+03 -7.84716E+04  3.52902E+04 -5.59662E+04  4.88615E+04 -1.64362E+04
  4.46952E+04  1.12619E+04  3.33864E+04  2.61764E+04  1.60589E+04  3.02500E+04 -6.93286E+03  2.66986E+04
 -2.27414E+04  1.35778E+04 -1.92028E+04 -5.36239E+03  6.88185E+03 -6.86985E+03  2.29389E+04  1.33091E+04
  7.96848E+03  3.69949E+04 -3.19492E+04  3.57917E+04 -6.53388E+04  2.10568E+03 -5.97527E+04 -4.33524E+04
 -1.30639E+04 -6.53393E+04  4.03434E+04 -4.63681E+04  6.03750E+04 -1.97984E+03  3.59770E+04  3.27703E+04
 -6.73513E+03  3.82428E+04 -3.13920E+04  1.85012E+04 -3.32127E+04 -3.97941E+03 -1.91214E+04 -1.13031E+04
 -9.00119E+03 -1.32694E+04 -7.52108E+02 -1.93240E+04  8.72262E+03 -2.22597E+04  1.57399E+04 -1.22407E+04
  1.05682E+04  5.94369E+03 -1.09230E+04  1.34976E+04 -2.23936E+04 -7.13794E+03 -9.25939E+03 -3.59088E+04
  2.54899E+04 -4.58261E+04  5.05724E+04 -1.93250E+04  4.75047E+04  2.06866E+04  1.79650E+04  4.55600E+04
 -1.66052E+04  3.37395E+04 -2.73295E+04  2.52317E+03 -1.10918E+04 -2.82921E+04  2.11679E+04 -3.61271E+04
  4.26245E+04 -1.16220E+04  3.90510E+04  2.49744E+04  2.06407E+04  5.00311E+04 -8.17923E+03  5.39941E+04
 -3.34857E+04  3.72410E+04 -4.56349E+04  1.03574E+04 -4.54252E+04 -1.74851E+04 -2.51409E+04 -4.01837E+04
  6.83445E+03 -4.12019E+04  3.27481E+04 -1.57885E+04  3.03573E+04  9.75136E+03  3.62613E+03  2.03752E+04
 -1.26555E+04  1.00129E+04 -1.03513E+04 -7.89919E+03  6.27015E+03 -9.75872E+03  1.89309E+04  6.28887E+03
  1.36250E+04  2.30169E+04 -4.58357E+03  2.55842E+04 -2.30453E+04  1.20334E+04 -3.00868E+04 -3.64905E+03
 -2.33890E+04 -1.90272E+04 -1.07151E+04 -2.13276E+04  4.07633E+03 -2.24142E+04  1.77573E+04 -2.18472E+04
  2.88519E+04 -1.46863E+04  3.43671E+04  3.33477E+03  2.59034E+04  2.21612E+04  4.81292E+03  4.01230E+04
 -1.92631E+04  3.29849E+04 -2.94733E+04  1.15720E+04 -2.16418E+04 -1.18138E+04 -3.65651E+03 -1.47055E+04
  1.83847E+03 -1.07539E+03 -5.84673E+03  8.01203E+03 -1.77945E+04  3.77160E+03 -1.90725E+04 -6.82964E+03
 -1.17782E+04 -2.27060E+04  6.17149E+03 -2.69462E+04  1.86015E+04 -1.87625E+04  1.99249E+04 -2.54373E+03
  1.35825E+04  1.46319E+04 -1.38580E+03  2.09030E+04 -1.44175E+04  1.25537E+04 -2.20531E+04 -4.74019E+03
 -1.71950E+04 -1.92503E+04 -1.95051E+03 -2.61457E+04  1.15273E+04 -2.15988E+04  2.13710E+04 -1.07167E+04
  2.00005E+04  7.89670E+02  1.35827E+04  6.05620E+03  8.44486E+03  1.91165E+03  1.11529E+04 -3.38495E+03
  2.04799E+04  3.47286E+03  2.38893E+04  1.69803E+04  1.50178E+04  3.59477E+04 -3.12338E+03  4.02300E+04
 -2.44073E+04  3.32485E+04 -3.73624E+04  1.66528E+04 -3.98348E+04 -3.14189E+03 -3.23000E+04 -2.44214E+04
 -1.36910E+04 -3.27768E+04  1.08317E+04 -2.98078E+04  2.63750E+04 -1.50504E+04  2.20188E+04  6.77071E+03
  8.54887E+03  1.67514E+04 -9.31130E+03  1.40797E+04 -1.93322E+04  3.70755E+03 -1.56523E+04 -1.19227E+04
 -8.66365E+02 -1.73573E+04  1.01982E+04 -1.33484E+04  1.24276E+04 -1.75251E+03  3.11632E+03  7.15661E+03
 -7.79834E+03  5.20246E+03 -8.19706E+03 -6.18747E+03 -1.86593E+03 -1.68024E+04  1.10231E+04 -1.83378E+04
  1.88659E+04 -9.45757E+03  2.50539E+04  2.40281E+03  2.03463E+04  1.53523E+04  8.69965E+03  2.45481E+04
 -4.71043E+03  2.74613E+04 -1.80915E+04  1.70405E+04 -1.97984E+04  4.05420E+03 -1.22587E+04 -4.78732E+03
 -5.43439E+03 -7.09053E+03 -8.25286E+02  4.49241E+02 -3.37172E+03  3.90023E+03 -6.24372E+03  4.08980E+03
 -1.31468E+04 -1.92538E+03 -1.34354E+04 -1.04592E+04 -5.37185E+03 -1.77945E+04  5.81900E+03 -1.44469E+04
  1.04021E+04 -6.09838E+03  7.34778E+03  3.78233E+03  4.04195E+02  4.63678E+03 -7.25827E+03  1.39148E+03
 -6.90659E+03 -8.68836E+03 -1.64718E+03 -1.28706E+04  7.07285E+03 -1.50442E+04  1.63188E+04 -6.53412E+03
  1.92368E+04  5.70279E+02  1.61086E+04  1.21572E+04  2.33196E+03  1.53273E+04 -7.24698E+03  1.28372E+04
 -9.27130E+03  4.46956E+03 -6.16747E+03 -3.08021E+03  2.39474E+03 -3.79395E+03  5.46785E+03 -2.86713E+02
  6.57547E+03  6.64753E+03  6.81615E+02  1.22520E+04 -8.56604E+03  1.15029E+04 -1.40770E+04  1.73245E+03
 -9.70167E+03 -7.32139E+03 -6.24873E+01 -1.20829E+04  8.49141E+03 -5.81012E+03  6.33351E+03  2.74583E+03
  1.65329E+03  9.22489E+03 -6.55931E+03  1.01257E+04 -1.12850E+04  4.05908E+03 -1.25621E+04 -4.43944E+03
 -5.23297E+03 -1.22257E+04  2.94720E+03 -1.59055E+04  1.30487E+04 -9.69775E+03  1.37910E+04  1.67303E+03
  9.61685E+03  1.03222E+04 -1.33935E+03  1.20169E+04 -9.39318E+03  7.74616E+03 -1.02647E+04  4.65168E+02
 -1.00568E+04 -8.28866E+03 -1.80369E+03 -9.61793E+03  5.01565E+03 -7.30155E+03  5.48116E+03 -4.34311E+03
  3.04241E+03  1.83848E+03 -6.71653E+02  1.82734E+03 -1.23033E+03 -3.18026E+03  1.23996E+03 -5.66917E+03
  8.08340E+03 -3.09442E+03  1.33686E+04  4.92159E+02  1.26377E+04  7.29879E+03  8.98546E+03  1.60752E+04
 -5.22747E+03  1.95825E+04 -1.69893E+04  1.37084E+04 -2.17893E+04  1.61477E+03 -1.70922E+04 -6.24544E+03
 -8.40320E+03 -1.36072E+04  8.63857E+02 -9.94172E+03  2.84267E+03 -7.74503E+03  4.21373E+03 -4.16280E+03
  3.59955E+03 -2.85237E+03  1.60072E+03 -4.18308E+03  4.61741E+03 -1.52775E+03  6.07384E+03 -5.37595E+02
  8.28899E+03  2.43202E+03  5.73271E+03  6.47411E+03 -3.33024E+03  8.88156E+03 -7.15675E+03  7.00545E+03
 -1.01020E+04 -1.12498E+03 -8.06586E+03 -7.69430E+03 -3.93386E+02 -1.08600E+04  7.42062E+03 -1.27573E+04
  1.34527E+04 -7.94592E+03  1.50642E+04  1.95094E+03  1.12813E+04  1.07041E+04  1.24520E+03  1.29248E+04
 -5.57985E+03  1.40488E+04 -7.65077E+03  5.29642E+03 -6.39652E+03 -6.59512E+02 -1.97470E+03 -2.63134E+03
 -4.77243E+02  4.81022E+02 -1.72203E+03  4.17371E+03 -3.71571E+03  1.22559E+03 -7.16357E+03  3.13752E+02
 -5.95883E+03 -8.38890E+03  4.01993E+02 -1.15690E+04  6.68000E+03 -9.99367E+03  1.11074E+04 -3.32726E+03
  1.08403E+04  5.62068E+03  5.16301E+03  1.02608E+04 -2.58618E+03  1.20047E+04 -7.96507E+03  7.36806E+03
 -1.10225E+04  3.83310E+02 -7.54532E+03 -6.34359E+03 -3.34955E+02 -8.70190E+03  5.11085E+03 -6.70481E+03
  8.22857E+03 -1.60635E+03  5.74265E+03  1.06988E+03  2.83662E+02  3.17182E+03  1.21163E+03  4.72605E+01
  1.66793E+03  1.83947E+03  2.53033E+03  3.46287E+03  3.71546E+03  5.12873E+03  4.13149E+03  5.53004E+03
 -1.55380E+03  9.91617E+03 -7.20002E+03  8.97865E+03 -1.01294E+04  1.86238E+03 -1.19611E+04 -5.01550E+03
 -4.78978E+03 -1.05924E+04  2.43569E+03 -1.20763E+04  7.31930E+03 -7.24242E+03  9.89360E+03 -3.59962E+03
  7.37738E+03  4.33550E+03  6.61555E+02  6.11754E+03 -2.71957E+03  3.94396E+03 -5.04274E+03  1.09151E+02
 -1.55280E+03 -3.40423E+03  3.12335E+03 -4.31769E+03  4.63581E+03 -3.30358E+03  3.78894E+03  8.00704E+02
  3.25992E+03  2.58395E+03  1.07930E+03  1.69106E+03 -9.99513E+02  2.51619E+03  2.20340E+03 -5.39307E+02
  1.57515E+03 -1.49392E+03  4.40024E+03  3.33905E+03  3.45121E+03  5.68578E+03 -2.70331E+02  5.98681E+03
 -5.39687E+03  5.10664E+03 -4.89675E+03  4.19896E+02 -5.32532E+03 -2.89423E+03 -3.12072E+03 -3.95433E+03
  1.70188E+02 -4.60096E+03  3.90876E+03 -2.10688E+03  1.89244E+03  2.40691E+03  1.58939E+02  3.77730E+03
 -3.09021E+03  2.20530E+03 -4.35126E+03 -3.60030E+03 -2.64561E+03 -7.14778E+03  8.89794E+02 -4.68491E+03
  1.40413E+03 -2.91824E+03  4.69512E+03 -1.01560E+03  3.48605E+03  2.02072E+03  8.09018E+02  2.24890E+03
 -1.71621E+03  6.16007E+02 -1.65103E+03 -1.50762E+03  4.35339E+02 -4.24372E+03  5.16314E+03 -3.69474E+03
  6.95961E+03  1.30988E+03  7.11297E+03  3.28036E+03  2.84599E+03  6.20747E+03 -2.29132E+03  5.92289E+03
 -5.11228E+03  3.64933E+03 -6.16243E+03 -1.16561E+03 -2.61587E+03 -3.51810E+03  6.43156E+02 -2.94041E+03
  4.49139E+03 -9.13598E+02  4.45997E+03  1.40882E+03  1.14679E+03  3.61816E+03 -3.83000E+02  4.00815E+03
 -1.43790E+03  3.70597E+03 -1.94460E+03  7.88729E+02  3.15131E+02 -9.89249E+01 -2.01646E+03  1.21674E+03
 -1.38046E+03  3.32147E+03 -5.56853E+03  3.33319E+03 -6.83549E+03 -6.67844E+02 -6.46261E+03 -4.48128E+03
 -3.62189E+03 -8.10017E+03  2.40998E+03 -9.94042E+03  5.00073E+03 -7.99880E+03  1.01071E+04 -3.90393E+03
  7.08240E+03  1.68606E+03  5.70799E+03  5.08091E+03 -3.72472E+02  6.14747E+03 -2.33212E+03  4.14857E+03
 -3.73317E+03  1.26988E+03 -2.39521E+03 -1.16154E+03  2.61297E+02  4.00089E+02 -3.14902E+02  4.92188E+02
 -1.97267E+03  4.51473E+02 -2.67472E+03  5.17317E+02  3.81739E+02 -4.19698E+02 -1.59329E+03 -3.46817E+03
  2.68859E+03 -1.60751E+03  2.42404E+03  9.05526E+01  4.98055E+03  3.77354E+03  1.21417E+03  5.54288E+03
 -2.49405E+03  8.25462E+03 -6.38575E+03  5.40578E+03 -8.42035E+03 -2.44155E+03 -4.79178E+03 -2.89031E+03
 -2.92795E+03 -5.20247E+03  1.75849E+03 -7.23634E+03  2.77584E+03 -3.93023E+03  4.63780E+03  9.14321E+02
  1.25200E+03  3.64698E+02 -9.53494E+01  7.73013E+02 -6.59802E+02 -7.15753E+02  1.82290E+03 -1.74154E+03
  1.45964E+03 -6.05292E+02  4.07332E+03  1.48368E+03  1.91230E+03  2.27254E+03  4.58789E+02  2.28259E+03
 -1.47442E+03  2.09260E+03 -4.19937E+03 -5.27195E+02 -3.58465E+03 -2.49804E+03 -9.58225E+02 -4.24846E+03
  1.55816E+03 -3.24196E+03  5.11440E+03 -5.07745E+02  3.73364E+03  6.47998E+02  2.81596E+03  2.97926E+03
  2.21480E+03  4.98101E+03  2.94286E-01  2.63009E+03 -3.00641E+03  5.19391E+02 -2.80616E+03 -3.32398E+02
 -1.17437E+03 -2.07327E+02 -7.70066E+02  8.36778E+02 -3.36539E+03  1.87298E+03 -2.23224E+03 -1.70167E+03
 -2.51588E+03 -1.55402E+03 -2.87764E+03 -3.33356E+03  1.52044E+03 -4.83146E+03  3.50836E+03 -2.98106E+03
  5.72580E+03  7.14499E+02  1.50801E+03  2.25989E+03 -1.00414E+03  4.77371E+03 -2.71782E+03  1.51446E+03
