 $NMID ID='MM_0lb_SNR200_11hz_g40_16.RAW', FMTDAT='(8E13.5)'
 TRAMP=1., VOLUME=1. $END
  3.10923E+05 -1.19311E+02  3.37439E+05  2.49823E+05  8.48772E+04  3.36920E+05 -1.32393E+05  2.51935E+05
 -1.90647E+05  8.33506E+04 -1.12046E+05 -3.26113E+04  8.74734E+00 -5.24036E+04  5.31703E+04  7.22147E+02
  3.51046E+04  5.28155E+04 -1.65936E+04  7.57676E+04 -5.94211E+04  6.42857E+04 -8.49700E+04  3.20013E+04
 -8.13107E+04 -1.26723E+04 -5.63008E+04 -5.27356E+04 -1.42224E+04 -6.96239E+04  2.75014E+04 -4.62026E+04
  3.91130E+04  3.45453E+03  1.53667E+04  4.75752E+04 -3.56773E+04  4.78363E+04 -6.79977E+04 -6.08490E+02
 -5.38227E+04 -5.78746E+04 -7.81210E+03 -7.74548E+04  3.53295E+04 -5.54535E+04  4.83977E+04 -1.78391E+04
  4.36886E+04  1.21632E+04  3.18087E+04  2.58602E+04  1.71080E+04  2.92421E+04 -5.32800E+03  2.65317E+04
 -2.30443E+04  1.26698E+04 -1.75795E+04 -6.43041E+03  6.28143E+03 -6.97083E+03  2.26379E+04  1.19742E+04
  6.26993E+03  3.63630E+04 -3.33567E+04  3.55638E+04 -6.40412E+04  1.64362E+03 -5.74016E+04 -4.32446E+04
 -1.33746E+04 -6.50709E+04  3.96265E+04 -4.64775E+04  5.95272E+04 -4.11928E+03  3.52099E+04  3.34351E+04
 -5.43564E+03  3.54852E+04 -3.01340E+04  1.79687E+04 -3.00755E+04 -3.16422E+03 -1.68427E+04 -1.05606E+04
 -9.61461E+03 -1.45683E+04 -2.38348E+02 -1.84115E+04  8.40772E+03 -2.28046E+04  1.54482E+04 -1.30470E+04
  1.06780E+04  6.27145E+03 -9.53075E+03  1.28130E+04 -2.09243E+04 -4.09645E+03 -8.73316E+03 -3.65930E+04
  2.28098E+04 -4.40190E+04  5.01956E+04 -1.97647E+04  4.64651E+04  1.98348E+04  1.59258E+04  4.56159E+04
 -1.54883E+04  3.52923E+04 -2.55385E+04  2.51885E+03 -9.48948E+03 -2.85745E+04  2.12142E+04 -3.48397E+04
  4.27688E+04 -9.01075E+03  3.78006E+04  2.53673E+04  1.81805E+04  4.90707E+04 -8.94577E+03  5.31687E+04
 -3.21590E+04  3.55133E+04 -4.43344E+04  9.76148E+03 -4.50088E+04 -1.70398E+04 -2.57909E+04 -3.82815E+04
  7.20040E+03 -3.96544E+04  3.26018E+04 -1.56835E+04  3.14756E+04  1.16299E+04  2.83303E+03  2.05486E+04
 -1.34234E+04  8.36010E+03 -1.07466E+04 -8.21163E+03  6.04437E+03 -1.06667E+04  1.65824E+04  4.91268E+03
  1.40780E+04  2.32765E+04 -6.24153E+03  2.63977E+04 -2.27297E+04  1.36653E+04 -3.05029E+04 -3.16235E+03
 -2.26642E+04 -1.82026E+04 -1.09732E+04 -2.26994E+04  2.88312E+03 -2.30728E+04  1.64771E+04 -2.01505E+04
  2.69705E+04 -1.28118E+04  3.61899E+04  3.54907E+03  2.53357E+04  2.21310E+04  4.73394E+03  3.91681E+04
 -1.86360E+04  3.12582E+04 -2.96149E+04  1.09625E+04 -1.98098E+04 -1.00995E+04 -4.94019E+03 -1.24401E+04
  2.07243E+03 -2.73600E+03 -4.93461E+03  6.66568E+03 -1.85986E+04  3.70527E+03 -1.85580E+04 -7.72795E+03
 -1.11463E+04 -2.06871E+04  6.02831E+03 -2.58843E+04  1.76571E+04 -1.58645E+04  1.96582E+04 -1.87436E+03
  1.21095E+04  1.44433E+04 -1.02714E+03  2.06494E+04 -1.31561E+04  1.12313E+04 -2.15168E+04 -5.18112E+03
 -1.59047E+04 -1.72952E+04 -2.27613E+03 -2.54531E+04  1.08136E+04 -2.13541E+04  2.10642E+04 -1.05466E+04
  1.98183E+04  6.42166E+02  1.44709E+04  4.32808E+03  7.56157E+03  7.12303E+02  9.66931E+03 -3.29227E+03
  1.99670E+04  3.50729E+03  2.26954E+04  1.61158E+04  1.52557E+04  3.19665E+04 -2.88614E+03  3.76417E+04
 -2.12437E+04  3.08163E+04 -3.69641E+04  1.57829E+04 -3.87014E+04 -3.54798E+03 -3.10610E+04 -2.26318E+04
 -1.36748E+04 -3.27866E+04  1.16359E+04 -2.85446E+04  2.37943E+04 -1.36573E+04  2.02595E+04  5.24701E+03
  6.43430E+03  1.66071E+04 -1.00231E+04  1.44024E+04 -1.67100E+04  2.75067E+03 -1.42591E+04 -1.01003E+04
 -1.03585E+02 -1.81744E+04  8.38842E+03 -1.33188E+04  1.24268E+04 -1.86317E+03  2.12287E+03  7.77507E+03
 -8.32299E+03  2.30908E+03 -7.11307E+03 -5.51908E+03 -1.08257E+03 -1.44401E+04  9.67566E+03 -1.89461E+04
  1.88331E+04 -9.98213E+03  2.05246E+04  3.69844E+03  1.83234E+04  1.58368E+04  8.73210E+03  2.32554E+04
 -3.47587E+03  2.58208E+04 -1.61572E+04  1.62560E+04 -1.92684E+04  2.23169E+03 -1.30209E+04 -4.49436E+03
 -5.51597E+03 -4.00445E+03 -1.43330E+03  2.34956E+01 -2.21394E+03  3.70638E+03 -5.58935E+03  4.57723E+03
 -1.18753E+04 -1.77563E+03 -1.23387E+04 -1.06631E+04 -5.83836E+03 -1.56785E+04  5.01909E+03 -1.32427E+04
  1.06773E+04 -6.59162E+03  8.40814E+03  2.67637E+03  8.99656E+01  4.13569E+03 -7.38266E+03 -3.22777E+02
 -5.98246E+03 -7.06534E+03 -1.24806E+03 -1.19702E+04  7.05190E+03 -1.37994E+04  1.63677E+04 -7.51207E+03
  1.93366E+04  1.62874E+03  1.43008E+04  9.83445E+03  8.93880E+02  1.59239E+04 -8.53112E+03  1.31866E+04
 -8.98627E+03  3.98307E+03 -5.32431E+03 -2.82888E+03  2.34492E+03 -4.11434E+03  6.01042E+03 -1.76380E+03
  4.96802E+03  6.39722E+03  6.54241E+01  1.09674E+04 -8.00922E+03  1.07958E+04 -1.23031E+04  2.03123E+03
 -8.52166E+03 -7.40911E+03 -7.77853E+02 -1.21251E+04  7.94566E+03 -4.37957E+03  7.05019E+03  2.95278E+03
  1.75685E+03  8.81887E+03 -5.55221E+03  8.59591E+03 -1.04919E+04  5.23290E+03 -1.03336E+04 -3.67231E+03
 -6.30899E+03 -1.26996E+04  1.96061E+03 -1.49661E+04  1.13080E+04 -7.38904E+03  1.35899E+04  1.90948E+03
  8.69360E+03  1.07597E+04 -5.14242E+02  1.28201E+04 -8.75212E+03  7.93170E+03 -9.80451E+03 -1.23308E+03
 -8.38232E+03 -1.04081E+04 -5.40750E+02 -9.24081E+03  4.66343E+03 -8.54238E+03  7.72863E+03 -3.41902E+03
  4.18669E+03  2.01403E+03 -4.14627E+02  3.02914E+03 -1.04058E+03 -1.79001E+03  2.03301E+03 -5.25274E+03
  9.38613E+03 -2.67705E+03  1.22653E+04  1.29904E+03  1.19123E+04  9.26201E+03  8.98628E+03  1.65031E+04
 -3.26548E+03  1.85155E+04 -1.47968E+04  1.29526E+04 -1.84578E+04  4.61808E+03 -1.75147E+04 -5.84097E+03
 -7.77675E+03 -1.45244E+04 -1.42297E+02 -1.08595E+04  3.98357E+03 -6.34822E+03  5.33079E+03 -4.77160E+03
  2.41041E+03 -3.24374E+03  2.89628E+03 -2.15976E+03  5.81498E+03 -3.59144E+03  7.07550E+03  3.14090E+02
  8.57083E+03  2.36420E+03  4.69806E+03  7.76575E+03 -2.40783E+03  8.93141E+03 -9.16728E+03  5.28136E+03
 -1.10890E+04 -2.58487E+03 -6.53098E+03 -7.23565E+03 -3.93700E+00 -1.12222E+04  4.61888E+03 -1.08199E+04
  1.38664E+04 -7.34474E+03  1.52632E+04  1.43754E+03  1.03957E+04  1.10912E+04  2.02986E+02  1.37492E+04
 -4.70169E+03  9.67557E+03 -8.48463E+03  4.65973E+03 -5.55167E+03 -1.59691E+03 -2.86104E+03 -2.75252E+03
 -2.06522E+03  6.25031E+02 -1.49419E+03  2.23895E+03 -5.05605E+03  2.05203E+03 -8.92576E+03 -1.24644E+03
 -5.79744E+03 -8.67399E+03  3.84899E+02 -1.10892E+04  6.83128E+03 -9.66064E+03  1.00553E+04 -2.77519E+03
  1.10063E+04  5.50246E+03  6.30060E+03  9.26597E+03 -2.85266E+03  1.13706E+04 -7.36427E+03  6.30814E+03
 -1.02465E+04  5.32336E+02 -6.23973E+03 -7.78863E+03 -9.73143E+02 -8.77438E+03  4.19533E+03 -7.24002E+03
  7.31579E+03 -1.93661E+03  4.48622E+03  2.30560E+03  5.86133E+02  3.53987E+03  1.68239E+03  1.80215E+03
  3.15270E+03  1.04301E+03  3.21804E+03  1.70531E+03  3.26626E+03  3.12888E+03  3.62580E+03  6.56902E+03
 -2.00936E+03  9.58671E+03 -7.08682E+03  7.13835E+03 -1.03450E+04  3.38239E+03 -1.02560E+04 -3.57524E+03
 -5.07442E+03 -1.04552E+04  2.55927E+03 -1.09197E+04  6.10986E+03 -7.77061E+03  9.88521E+03 -2.28029E+03
  6.82501E+03  3.60397E+03  1.65830E+03  7.34761E+03 -1.31226E+03  4.01283E+03 -4.15135E+03 -2.91974E+02
 -2.63022E+03 -4.98766E+03  1.36711E+03 -3.56738E+03  4.78531E+03 -3.07461E+03  4.79303E+03  1.13444E+03
  2.01557E+03  1.79562E+03  7.45106E+02  3.61409E+02 -2.01238E+03  1.48067E+03  1.28473E+03 -5.63693E+02
  1.98824E+03 -2.12069E+03  5.42025E+03  2.95314E+03  1.62623E+03  5.35643E+03 -5.44320E+02  6.75056E+03
 -5.79176E+03  3.47375E+03 -7.12450E+03  3.58066E+02 -6.12787E+03 -1.75082E+03 -2.87037E+03 -3.39572E+03
  8.95454E+02 -5.15239E+03  2.48621E+03 -1.38212E+03  3.05505E+03  2.35755E+03 -2.68810E+03  3.50544E+03
 -3.45058E+03  2.53393E+03 -5.62013E+03 -3.02839E+03 -2.46709E+03 -5.54280E+03  9.01287E+01 -6.97801E+03
  2.53192E+03 -3.34337E+03  3.80281E+03 -6.10963E+01  3.37887E+03  1.79920E+03  5.67725E+02  3.15075E+03
 -4.06116E+02  9.82156E+02 -3.05284E+03 -2.18545E+03  1.35286E+03 -6.01912E+03  4.85743E+03 -2.83303E+03
  5.95760E+03  7.73472E+02  7.46667E+03  5.02807E+03  2.70760E+03  6.67281E+03 -2.03268E+03  7.63618E+03
 -4.53334E+03  1.90189E+03 -6.31261E+03 -3.11111E+02 -3.38083E+03 -3.32784E+03  1.58901E+03 -3.45702E+03
  4.26131E+03 -2.54282E+03  2.09025E+03  1.76489E+03  1.46296E+03  4.70620E+03 -5.59097E+02  2.69273E+03
 -2.17219E+03  1.82856E+03 -3.50539E+02  1.45475E+03 -1.07470E+03  2.76229E+03 -1.81756E+03  4.38074E+02
 -3.34956E+03  1.69672E+03 -2.91881E+03  1.51795E+03 -7.04845E+03  1.15361E+03 -7.20200E+03 -2.99275E+03
 -4.08082E+03 -8.78374E+03  1.97890E+03 -1.08626E+04  6.79090E+03 -8.36169E+03  1.13293E+04 -3.24353E+03
  9.29633E+03  1.25878E+03  5.28816E+03  5.97976E+03  1.05635E+03  6.00878E+03 -4.14028E+03  6.84499E+03
 -4.24193E+03  2.78882E+03 -2.29017E+03 -1.49146E+03 -1.09260E+03 -1.15400E+03 -6.88971E+02  1.08695E+03
 -2.28869E+03 -1.41720E+03 -1.00063E+03 -1.52152E+01 -1.18096E+03 -2.02768E+03  2.36393E+02 -4.19932E+03
  3.55751E+03 -1.21607E+03  4.07658E+03 -7.60050E+02  5.11240E+03  4.65552E+03  1.58101E+03  6.05089E+03
 -3.85082E+03  7.72241E+03 -7.83336E+03  4.24626E+03 -7.96181E+03 -4.60258E+02 -6.45978E+03 -6.58862E+03
 -2.83589E+03 -6.07520E+03  1.88414E+03 -6.60732E+03  3.10687E+03 -2.91947E+03  5.33480E+03 -2.31596E+02
  2.73706E+03  2.85450E+03  1.81137E+02  4.92916E+02 -4.88820E+02 -2.24675E+02 -1.46603E+02 -1.71834E+03
  2.26928E+03 -6.49421E+02  2.61974E+03  3.31002E+02  3.41018E+02  3.68237E+03 -8.31390E+02  3.21847E+03
 -3.49695E+03  2.42494E+03 -4.36582E+03  1.62579E+01 -5.10605E+03 -2.74010E+03  5.00822E+02 -4.15203E+03
  3.44092E+03 -5.59082E+03  6.34947E+03 -1.03292E+03  6.54160E+03  1.16228E+03  2.76568E+03  4.17743E+03
  6.41738E+02  4.58870E+03 -2.26284E+03  4.36541E+03 -3.06281E+03  1.16162E+03 -1.57669E+03 -3.75919E+02
 -1.28992E+03 -2.24595E+03 -4.89052E+02  1.03154E+03 -2.07605E+03  4.43344E+02 -2.94527E+03 -6.88213E+02
 -3.57909E+03 -2.53940E+03 -1.65760E+03 -4.12768E+03  1.22607E+03 -5.65222E+03  4.64212E+03 -1.77862E+03
  4.99988E+03  2.86234E+02  3.85080E+03  3.51335E+03  3.98295E+02  4.32290E+03 -3.18159E+03  4.29557E+03
