 $NMID ID='MM_0lb_SNR200_19hz_g60_89.RAW', FMTDAT='(8E13.5)'
 TRAMP=1., VOLUME=1. $END
  3.09412E+05  1.36104E+03  3.37208E+05  2.50841E+05  8.47625E+04  3.38995E+05 -1.32260E+05  2.51212E+05
 -1.90026E+05  8.31606E+04 -1.11679E+05 -3.20635E+04  1.66302E+03 -5.02137E+04  5.34793E+04  7.11713E+02
  3.43489E+04  5.26230E+04 -1.53605E+04  7.55879E+04 -6.01681E+04  6.27023E+04 -8.35677E+04  3.25298E+04
 -8.01424E+04 -1.22001E+04 -5.63114E+04 -5.08182E+04 -1.43502E+04 -6.92444E+04  2.64302E+04 -4.52759E+04
  4.10862E+04  2.98799E+03  1.52025E+04  4.74977E+04 -3.40034E+04  4.75291E+04 -6.61936E+04 -1.69733E+03
 -5.29457E+04 -5.61720E+04 -6.89524E+03 -7.59005E+04  3.34385E+04 -5.34128E+04  4.69341E+04 -1.67603E+04
  4.20563E+04  1.17554E+04  3.07152E+04  2.47415E+04  1.47894E+04  2.88498E+04 -4.12549E+03  2.64353E+04
 -2.26591E+04  1.27468E+04 -1.87820E+04 -5.15206E+03  4.25974E+03 -7.48919E+03  2.18996E+04  1.19088E+04
  7.16396E+03  3.34752E+04 -3.15051E+04  3.64646E+04 -6.27537E+04  2.06628E+03 -5.53820E+04 -4.21306E+04
 -1.20500E+04 -6.19729E+04  3.90509E+04 -4.41275E+04  5.72961E+04 -1.13612E+03  3.19981E+04  3.21535E+04
 -6.06233E+03  3.46413E+04 -2.98300E+04  1.47790E+04 -2.88489E+04 -5.64348E+03 -1.55009E+04 -1.00345E+04
 -7.62097E+03 -1.19734E+04 -7.99042E+02 -1.76694E+04  6.76000E+03 -2.31430E+04  1.47997E+04 -1.41818E+04
  1.12254E+04  4.21445E+03 -7.97813E+03  1.32354E+04 -1.95687E+04 -3.41140E+03 -8.31968E+03 -3.13112E+04
  2.10482E+04 -4.19956E+04  4.57680E+04 -1.95820E+04  4.29923E+04  1.89205E+04  1.56598E+04  4.21194E+04
 -1.50802E+04  3.22583E+04 -2.57042E+04  1.02523E+03 -8.96816E+03 -2.64069E+04  2.21219E+04 -3.25182E+04
  3.82681E+04 -6.98535E+03  3.24924E+04  2.29126E+04  1.66387E+04  4.46110E+04 -7.53453E+03  4.66108E+04
 -2.93319E+04  3.06958E+04 -3.94935E+04  8.89752E+03 -4.06751E+04 -1.55928E+04 -2.13748E+04 -3.47672E+04
  6.11856E+03 -3.59412E+04  2.99742E+04 -1.34743E+04  2.81278E+04  1.08783E+04  3.01564E+03  1.82964E+04
 -1.28823E+04  7.09200E+03 -9.10285E+03 -7.48230E+03  5.77996E+03 -9.83841E+03  1.73675E+04  6.17331E+03
  1.31339E+04  2.15452E+04 -6.92387E+03  2.39726E+04 -2.21230E+04  9.45403E+03 -2.61027E+04 -5.79343E+03
 -1.77475E+04 -1.67113E+04 -6.52914E+03 -1.74505E+04  4.48237E+03 -1.70842E+04  1.40921E+04 -1.58478E+04
  2.25549E+04 -1.24941E+04  3.03374E+04  2.73308E+03  2.20120E+04  1.70002E+04  3.17782E+03  3.38386E+04
 -1.69475E+04  2.81253E+04 -2.65140E+04  9.88914E+03 -2.05979E+04 -1.08696E+04 -4.58653E+03 -1.34917E+04
  3.01344E+03 -4.20942E+03 -3.67736E+03  4.85684E+03 -1.35241E+04  5.59020E+03 -1.43019E+04 -5.78557E+03
 -9.87635E+03 -1.65960E+04  4.20561E+03 -1.96390E+04  1.43071E+04 -1.49085E+04  1.60549E+04 -2.68549E+03
  1.10272E+04  1.22741E+04 -8.91422E+02  1.65834E+04 -1.02405E+04  8.96692E+03 -1.67363E+04 -3.45282E+03
 -1.23997E+04 -1.45596E+04 -1.55411E+03 -2.00335E+04  9.36800E+03 -1.64451E+04  1.66866E+04 -7.25855E+03
  1.54352E+04  9.13767E+02  1.01943E+04  4.42507E+03  5.83687E+03  7.92207E+02  7.93828E+03 -1.15734E+03
  1.45495E+04  2.75746E+03  1.53675E+04  1.42322E+04  1.07921E+04  2.58552E+04 -2.62467E+03  2.81247E+04
 -1.63081E+04  2.15750E+04 -2.57403E+04  1.10904E+04 -2.69929E+04 -1.94067E+03 -2.34311E+04 -1.46613E+04
 -9.92494E+03 -2.23654E+04  7.95816E+03 -1.96920E+04  1.78386E+04 -1.10935E+04  1.57005E+04  3.93818E+03
  7.65749E+03  1.27902E+04 -7.84879E+03  1.17399E+04 -1.33911E+04  2.54433E+03 -1.16946E+04 -9.03653E+03
 -3.16491E+02 -1.34505E+04  6.94574E+03 -1.04442E+04  7.76687E+03 -1.09787E+03  1.63714E+03  5.34325E+03
 -5.64804E+03  1.42116E+03 -4.20703E+03 -5.69446E+03  7.61272E+02 -1.01231E+04  8.56926E+03 -1.02701E+04
  1.29440E+04 -5.41240E+03  1.25555E+04  2.65509E+03  1.10565E+04  8.15533E+03  5.82352E+03  1.49389E+04
 -2.37988E+03  1.77963E+04 -1.02982E+04  1.04144E+04 -1.20685E+04  3.97948E+03 -9.06369E+03 -3.16765E+03
 -3.18868E+03 -3.41856E+03  3.22380E+02  1.23318E+03 -1.57435E+03  2.17927E+03 -4.39638E+03  3.08852E+03
 -7.88501E+03 -4.42276E+02 -8.49756E+03 -7.06663E+03 -4.12350E+03 -1.26536E+04  2.65565E+03 -9.41260E+03
  6.93451E+03 -4.07288E+03  5.05305E+03  2.42192E+03  1.24398E+03  3.23124E+03 -4.20566E+03  2.88374E+02
 -4.66336E+03 -6.66643E+03 -9.38592E+02 -7.11541E+03  3.89456E+03 -8.12004E+03  9.91653E+03 -4.10045E+03
  1.21712E+04 -3.53830E+02  9.43515E+03  6.82844E+03  2.82129E+03  8.59331E+03 -5.87863E+03  8.66234E+03
 -6.96877E+03  2.96866E+03 -3.46596E+03 -1.59436E+03  3.56106E+02 -1.89821E+03  4.52734E+03 -4.89332E+02
  3.76313E+03  4.26853E+03  7.37364E+02  6.53945E+03 -4.97057E+03  7.03078E+03 -7.97746E+03  9.18309E+02
 -5.72271E+03 -3.81580E+03  3.57058E+02 -7.77904E+03  4.75464E+03 -2.63915E+03  3.16074E+03  6.78056E+01
  7.12833E+02  4.57735E+03 -4.06678E+03  4.96361E+03 -5.24990E+03  2.27810E+03 -4.39384E+03 -1.53960E+03
 -2.15439E+03 -6.00945E+03  1.01973E+03 -7.24394E+03  6.20788E+03 -3.33159E+03  7.26607E+03 -5.97615E+01
  4.31025E+03  6.24624E+03  5.30102E+02  7.89662E+03 -4.65579E+03  4.11603E+03 -4.91548E+03  5.00379E+01
 -6.21657E+03 -5.15926E+03 -1.91510E+03 -5.15319E+03  2.40325E+03 -5.29443E+03  3.58610E+03 -4.12557E+03
  2.91658E+03  1.02612E+03 -5.19923E+02  1.21244E+03  8.68719E+01  3.91083E+02 -1.99197E+02 -1.37916E+03
  4.16283E+03 -2.02282E+03  5.58477E+03  6.39601E+02  5.54378E+03  2.91344E+03  5.03415E+03  7.77851E+03
 -8.88920E+02  8.42775E+03 -8.37305E+03  6.51573E+03 -1.03932E+04  6.89373E+02 -7.68801E+03 -2.47159E+03
 -4.59132E+03 -6.80445E+03  4.85825E+02 -5.65837E+03  2.17661E+03 -2.42146E+03  1.98662E+03 -1.78671E+03
  1.17749E+03 -1.25049E+03  2.14726E+03 -2.16633E+03  4.15604E+03 -1.92980E+03  3.65603E+03  1.79455E+03
  5.95461E+03  6.35687E+02  4.42396E+02  3.42455E+03 -1.21016E+03  2.14837E+03 -4.93834E+03  3.21837E+03
 -5.23617E+03 -2.27932E+03 -1.14741E+03 -2.49726E+03 -1.89191E+02 -4.77291E+03  2.59851E+03 -5.66218E+03
  3.98459E+03 -3.96672E+03  6.07594E+03  8.49618E+02  4.88066E+03  4.91171E+03  5.45318E+02  5.25522E+03
 -1.63292E+03  5.41729E+03 -2.22939E+03  2.23741E+03 -2.70054E+03 -1.16573E+03 -5.85781E+02 -7.83214E+02
 -4.74449E+02 -1.29649E+02 -4.02579E+02  1.71824E+03 -3.03807E+03  3.78919E+02 -3.24121E+03  5.40900E+01
 -2.01829E+03 -3.52124E+03  1.39056E+03 -4.40766E+03  3.15260E+03 -3.65629E+03  1.91619E+03 -2.20144E+03
  4.55431E+03  2.99033E+03  1.91277E+03  3.41677E+03 -8.99110E+01  4.36032E+03 -2.20510E+03  2.43402E+03
 -3.84259E+03 -1.75024E+02 -3.07763E+03 -2.77793E+03  4.53513E+02 -3.25335E+03  1.96427E+03 -2.47604E+03
  3.09267E+03 -1.07773E+03  9.51265E+02 -6.12939E+02 -1.04964E+02  2.15954E+03  2.63228E+02  7.54451E+02
  1.55031E+03  3.41064E+02  2.11535E+03  7.27552E+02  9.40400E+01  2.30737E+03  1.45042E+03  2.30808E+03
 -9.28826E+02  2.10267E+03 -1.95376E+03  2.63746E+03 -2.34673E+03  9.61671E+02 -3.57454E+03 -5.85387E+02
 -2.27056E+03 -2.98581E+03  1.44554E+03 -4.35158E+03  7.75440E+02 -2.61055E+03  4.02630E+03 -1.28438E+03
  2.31345E+03  2.09010E+03 -1.17717E+01  2.21988E+03 -6.29605E+02  1.07159E+03 -9.86975E+02 -1.69976E+02
 -4.17109E+02 -8.89543E+02  5.47272E+02 -1.13278E+03  2.58252E+03 -1.18439E+03  7.58059E+02 -1.96421E+02
  7.43736E+02  5.30517E+02  1.07141E+03  5.49565E+02 -1.02048E+02 -6.45512E+01  1.23457E+03  6.06764E+02
 -8.98933E+02 -2.06882E+02  2.37042E+03  6.79732E+02  4.60795E+02  1.79786E+03 -1.91548E+02  3.64166E+03
 -2.45202E+03  7.44901E+02 -9.51614E+02  6.96414E+02 -2.51283E+03 -5.80378E+02 -1.92806E+01 -9.22688E+02
  9.62158E+02 -3.63545E+02  9.69181E+02 -4.83145E+02  7.69567E+02  1.70535E+03 -7.74577E+02  2.30199E+02
 -4.88139E+02  1.68182E+01 -1.48491E+02 -1.33202E+03 -3.49808E+02 -1.88850E+03 -2.99527E+02 -2.10678E+03
  4.52245E+02  3.69086E+02  1.08385E+03  7.50512E+02  1.32126E+03  5.00751E+02 -3.98593E+02  6.91261E+02
 -8.65237E+02 -6.36314E+01 -1.65672E+03 -9.01680E+02  1.09701E+03 -5.28842E+02  1.05699E+03 -7.08284E+02
  1.20882E+03 -2.04334E+02  3.93138E+03  2.68326E+01  7.40186E+02  1.22665E+03 -4.14920E+02  1.41785E+03
 -2.29127E+02  2.54001E+02 -2.11900E+03  2.26406E+02 -6.58972E+02 -1.14655E+03  1.54976E+02 -8.40524E+02
  9.66813E+02 -7.12119E+02  1.74879E+03 -7.49394E+02  7.15617E+02  1.14219E+03 -2.80036E+02  4.18792E+02
 -1.61648E+03  7.02891E+02 -5.79536E+02 -1.56182E+02  1.05456E+03  6.05414E+02 -8.30226E+02  7.69794E+02
 -1.78478E+02  4.06038E+02 -1.44809E+02 -2.87643E+02 -1.18161E+03  4.88887E+02 -1.36734E+03 -8.87547E+02
 -1.38075E+03 -1.56744E+03  6.02588E+02 -2.01081E+03  1.13847E+03 -1.89734E+03  2.76935E+03 -6.44736E+02
  2.67412E+03  4.62663E+02 -1.20628E+02  1.20095E+03  4.44183E+02  1.01554E+03 -6.77083E+02  2.74143E+02
 -1.19492E+03 -6.70536E+01  2.58866E+02 -1.50673E+03  9.10835E+02  3.43987E+02 -2.98820E+02  7.33996E+02
 -7.92983E+02 -6.81926E+01 -6.48957E+02  5.23695E+01  1.08715E+02 -8.27283E+02  8.46138E+01 -8.27882E+02
  9.02665E+02 -7.40319E+02  2.80724E+02  1.04357E+02  7.80807E+02  1.17548E+03 -9.76321E+02  7.70050E+02
 -1.29954E+03  2.07871E+03 -1.15718E+03  1.30844E+03 -1.60074E+03  3.60162E+02 -8.22067E+02 -1.60979E+03
 -6.22522E+02 -1.56822E+00  5.75799E+02 -1.04267E+03  1.45042E+03 -5.21897E+02  1.44704E+02 -3.59270E+02
  6.89114E+02 -1.80555E+02 -4.54519E+01  2.65640E+02  1.74309E+02  9.12293E+02 -1.04319E+03  3.28735E+02
  2.98281E+01  1.50110E+02  2.81153E+02 -1.34549E+02  9.05073E+02 -2.58690E+02  3.41597E+02  3.84927E+02
  6.34725E+01  4.65251E+02 -2.59956E+02  1.01914E+02 -4.94057E+02 -9.62631E+02 -8.82920E+02 -1.13355E+03
  5.07800E+02 -1.12133E+03  9.57815E+02 -2.61191E+02  1.02730E+02 -9.88521E+02  3.10972E+02  1.05951E+03
  5.03257E+02  2.95538E+02 -1.05274E+02  2.57938E+02  1.43485E+02 -6.01430E+02 -1.84450E+03  4.68261E+00
 -1.13313E+02 -1.47824E+01 -1.13466E+03  8.13772E+02  2.11200E+02 -1.86380E+02 -2.32733E+02 -4.80643E+02
 -6.40667E+02 -7.53610E+02 -9.31296E+02 -7.30376E+02  5.77393E+02 -1.22554E+03  5.48689E+02  5.54021E+01
  5.35858E+02 -1.09793E+03 -6.05782E+01  2.49953E+02 -1.42335E+01  1.14010E+03 -1.59027E+03  4.63300E+02
