 $NMID ID='MM_0lb_SNR200_8hz_g50_33.RAW', FMTDAT='(8E13.5)'
 TRAMP=1., VOLUME=1. $END
  3.09925E+05  1.49854E+03  3.37477E+05  2.51047E+05  8.57998E+04  3.38218E+05 -1.31620E+05  2.51801E+05
 -1.89465E+05  8.26322E+04 -1.13798E+05 -3.16301E+04  1.03562E+03 -5.14645E+04  5.29372E+04 -1.56167E+03
  3.60480E+04  5.24916E+04 -1.69597E+04  7.64964E+04 -6.25369E+04  6.57447E+04 -8.48806E+04  3.32725E+04
 -8.29616E+04 -1.12105E+04 -5.80613E+04 -5.33219E+04 -1.53125E+04 -7.08213E+04  2.70693E+04 -4.80665E+04
  3.96241E+04  3.62136E+03  1.86017E+04  4.75240E+04 -3.50801E+04  4.94840E+04 -6.74633E+04  2.28123E+03
 -5.44768E+04 -5.79701E+04 -8.11040E+03 -7.98301E+04  3.53959E+04 -5.80399E+04  5.14510E+04 -1.86970E+04
  4.57651E+04  1.11019E+04  3.34958E+04  2.78253E+04  1.56524E+04  2.90590E+04 -6.69724E+03  2.91407E+04
 -2.26026E+04  1.24477E+04 -1.76538E+04 -4.92025E+03  7.45528E+03 -8.92734E+03  2.17592E+04  1.57153E+04
  8.39433E+03  3.83067E+04 -3.53570E+04  3.71127E+04 -6.77931E+04  2.34208E+03 -5.93491E+04 -4.45773E+04
 -1.28044E+04 -6.64610E+04  4.19329E+04 -4.72795E+04  6.29170E+04 -1.75836E+03  3.72121E+04  3.38629E+04
 -5.94633E+03  4.17785E+04 -3.27725E+04  1.96954E+04 -3.41119E+04 -1.72447E+03 -1.84332E+04 -1.28789E+04
 -1.12667E+04 -1.66475E+04 -1.26685E+03 -1.95980E+04  8.77841E+03 -2.24841E+04  1.65226E+04 -1.23529E+04
  1.18026E+04  8.89837E+03 -1.15144E+04  1.22749E+04 -2.39548E+04 -6.77731E+03 -6.46932E+03 -3.72431E+04
  2.56864E+04 -4.79751E+04  5.30214E+04 -2.18086E+04  4.91471E+04  2.13516E+04  1.64631E+04  4.65470E+04
 -1.65254E+04  3.58369E+04 -2.86564E+04  2.10220E+03 -1.05875E+04 -3.18634E+04  2.22514E+04 -3.81570E+04
  4.38156E+04 -1.13928E+04  4.06050E+04  2.48636E+04  2.42157E+04  5.24905E+04 -5.60139E+03  5.60557E+04
 -3.70335E+04  3.77406E+04 -4.87388E+04  1.10947E+04 -4.93969E+04 -1.82055E+04 -2.62386E+04 -4.43776E+04
  7.36021E+03 -4.20813E+04  3.53635E+04 -1.81878E+04  3.14747E+04  1.12042E+04  6.17682E+03  2.33663E+04
 -1.38953E+04  1.00031E+04 -1.18195E+04 -6.76106E+03  5.94506E+03 -1.11994E+04  1.95503E+04  6.28304E+03
  1.56333E+04  2.24447E+04 -7.36998E+03  2.71416E+04 -2.18488E+04  1.54798E+04 -3.20226E+04 -6.24059E+02
 -2.62114E+04 -1.92723E+04 -1.16555E+04 -2.44149E+04  4.37515E+03 -2.81879E+04  2.02963E+04 -2.39421E+04
  3.36554E+04 -1.50311E+04  4.07666E+04  6.31660E+03  2.83372E+04  2.64113E+04  5.56959E+03  4.12969E+04
 -1.99102E+04  3.43244E+04 -3.27397E+04  1.22588E+04 -2.39585E+04 -1.13959E+04 -5.99119E+03 -1.21807E+04
  7.52423E+02 -9.91536E+02 -9.54659E+03  8.50679E+03 -2.10292E+04  4.03652E+03 -2.19877E+04 -1.13867E+04
 -1.42398E+04 -2.39967E+04  7.31652E+03 -2.92452E+04  1.96329E+04 -2.08274E+04  2.32758E+04 -1.71472E+03
  1.62018E+04  1.77237E+04 -1.00137E+03  2.43060E+04 -1.68520E+04  1.10463E+04 -2.34283E+04 -5.03201E+03
 -1.74215E+04 -2.30344E+04 -3.06415E+03 -2.75062E+04  1.27010E+04 -2.44688E+04  2.45582E+04 -1.35938E+04
  2.35376E+04  3.16217E+02  1.67910E+04  7.45596E+03  9.39839E+03  9.22144E+02  1.51110E+04 -1.47302E+03
  2.36655E+04  3.29222E+03  2.60106E+04  1.85945E+04  1.81490E+04  3.84438E+04 -2.25784E+03  4.57675E+04
 -2.69770E+04  3.91165E+04 -4.46537E+04  2.05295E+04 -4.61674E+04 -3.37451E+03 -3.93254E+04 -2.65418E+04
 -1.45816E+04 -3.86127E+04  1.42396E+04 -3.34958E+04  2.97670E+04 -1.62598E+04  2.50044E+04  9.28281E+03
  8.21064E+03  1.83262E+04 -1.27022E+04  1.67188E+04 -2.01853E+04  8.46373E+02 -1.54378E+04 -1.39415E+04
  6.81360E+01 -2.07323E+04  9.72513E+03 -1.45302E+04  1.41387E+04 -1.96836E+03  4.25457E+03  1.04566E+04
 -9.80869E+03  4.76240E+03 -8.93339E+03 -5.81975E+03 -3.30750E+03 -2.11541E+04  1.33442E+04 -2.30972E+04
  2.46717E+04 -1.15756E+04  2.86037E+04  3.53280E+03  2.43276E+04  2.02363E+04  1.07199E+04  2.97111E+04
 -7.87350E+03  3.32374E+04 -2.21786E+04  2.00596E+04 -2.43858E+04  5.09351E+03 -1.61273E+04 -6.21389E+03
 -6.61949E+03 -7.63688E+03 -1.50991E+03  1.06726E+03 -4.07107E+03  3.72344E+03 -8.48249E+03  5.60145E+03
 -1.47863E+04 -1.48789E+03 -1.61522E+04 -1.19261E+04 -5.93035E+03 -1.92254E+04  6.04579E+03 -1.66213E+04
  1.44127E+04 -8.65185E+03  1.06099E+04  5.20237E+03 -8.38816E+02  7.10709E+03 -6.99467E+03  1.40352E+03
 -8.74472E+03 -1.12281E+04 -1.28946E+03 -1.60013E+04  8.31120E+03 -1.84399E+04  2.09910E+04 -1.04422E+04
  2.66056E+04  2.28619E+03  1.99686E+04  1.63478E+04  5.71563E+03  2.15786E+04 -9.80402E+03  1.54617E+04
 -1.41454E+04  4.80411E+03 -7.24864E+03 -2.00670E+03  3.96759E+03 -3.87022E+03  7.39696E+03 -2.17848E+03
  7.10929E+03  7.92066E+03  3.24674E+02  1.42524E+04 -1.02752E+04  1.39344E+04 -1.93900E+04  4.11576E+03
 -1.07897E+04 -9.50720E+03 -2.97302E+02 -1.35299E+04  1.00459E+04 -9.82128E+03  1.05135E+04  4.60341E+03
  3.50804E+03  1.14366E+04 -9.34309E+03  1.29667E+04 -1.39688E+04  3.79536E+03 -1.61169E+04 -4.82086E+03
 -8.44880E+03 -1.79830E+04  4.86641E+03 -1.90484E+04  1.61092E+04 -1.25588E+04  1.76127E+04  2.56833E+03
  1.15726E+04  1.43386E+04 -1.88494E+03  1.69889E+04 -1.30330E+04  9.06306E+03 -1.27451E+04 -1.44828E+03
 -1.25792E+04 -1.08859E+04 -1.01805E+03 -1.28794E+04  8.62610E+03 -9.55599E+03  7.12358E+03 -3.57104E+03
  4.39158E+03  8.90441E+02 -9.16201E+02  2.31280E+02 -9.75492E+02 -3.20323E+03  3.05147E+03 -7.22231E+03
  1.19795E+04 -5.31806E+03  1.75140E+04  1.17554E+03  1.78603E+04  1.35169E+04  8.99024E+03  2.22659E+04
 -7.31222E+03  2.69173E+04 -2.18685E+04  2.04408E+04 -2.90232E+04  5.06840E+03 -2.23072E+04 -9.54243E+03
 -1.04169E+04 -1.93239E+04 -8.16684E+00 -1.61943E+04  7.12124E+03 -9.66143E+03  6.58874E+03 -4.77141E+03
  3.98622E+03 -3.89377E+03  3.75563E+03 -3.70798E+03  7.84928E+03 -2.17801E+03  8.76675E+03 -2.28638E+03
  1.30895E+04  3.14322E+03  8.03406E+03  9.78855E+03 -2.46399E+03  1.18875E+04 -1.22203E+04  1.07928E+04
 -1.64544E+04 -8.00456E+02 -1.13353E+04 -1.14388E+04 -3.02639E+03 -1.75785E+04  1.03681E+04 -1.86387E+04
  1.87685E+04 -1.13003E+04  2.08692E+04  3.16360E+03  1.48231E+04  1.47175E+04  2.89015E+03  1.89661E+04
 -8.50973E+03  1.56001E+04 -1.29961E+04  5.99519E+03 -9.15202E+03 -1.96205E+03 -3.22420E+03 -3.28777E+03
 -2.66709E+03 -8.16171E+01 -1.85515E+03  3.46486E+03 -5.94028E+03  3.81265E+03 -1.09695E+04 -3.74264E+02
 -6.24942E+03 -1.15944E+04  2.07483E+03 -1.57240E+04  9.80924E+03 -1.38186E+04  1.66997E+04 -4.32193E+03
  1.58183E+04  8.90383E+03  9.25896E+03  1.53224E+04 -3.99165E+03  1.62262E+04 -1.29386E+04  9.55437E+03
 -1.72053E+04 -3.05106E+02 -1.18683E+04 -1.01574E+04 -3.38001E+02 -1.39333E+04  7.74864E+03 -1.04350E+04
  1.00679E+04 -3.17489E+03  7.79904E+03  2.93296E+03  4.19091E+03  4.05444E+03  9.98429E+02  4.23617E+03
  2.32424E+03 -3.05856E+02  3.93771E+03  1.31234E+03  5.43148E+03  5.72166E+03  4.00018E+03  9.34402E+03
 -2.97162E+03  1.34024E+04 -1.23298E+04  1.28737E+04 -1.71464E+04  3.60877E+03 -1.86819E+04 -5.98223E+03
 -8.03241E+03 -1.63523E+04  4.72357E+03 -1.88653E+04  9.65675E+03 -1.20332E+04  1.33538E+04 -2.25303E+03
  1.10921E+04  7.03635E+03  2.20598E+03  1.04078E+04 -4.40035E+03  5.97291E+03 -8.77923E+03 -7.14551E+02
 -3.21663E+03 -6.34344E+03  4.28398E+03 -8.43911E+03  6.72103E+03 -3.75497E+03  5.99661E+03 -4.38505E+01
  4.71920E+03  2.19328E+03  1.77519E+03  2.68035E+03 -9.37393E+02  1.00217E+03  7.83387E+02 -1.37576E+03
  4.29799E+03 -9.99832E+02  6.91577E+03  2.92859E+03  4.50580E+03  6.89487E+03 -1.83261E+03  1.16849E+04
 -8.07315E+03  8.27341E+03 -1.12352E+04  1.68349E+03 -8.31449E+03 -5.72571E+03 -3.32679E+03 -8.03759E+03
  8.89557E+02 -5.43372E+03  5.95743E+03 -1.61536E+03  4.94672E+03  2.44252E+03 -1.24243E+03  5.12329E+03
 -7.17808E+03  2.80616E+03 -6.75745E+03 -3.01166E+03 -3.37511E+03 -1.02539E+04  7.26871E+02 -1.09769E+04
  4.84356E+03 -6.44110E+03  8.51406E+03 -1.89580E+03  6.45339E+03  3.72917E+03  5.90807E+01  5.22010E+03
 -3.76656E+03  2.02701E+03 -4.49071E+03 -6.06512E+03  1.93784E+03 -8.24124E+03  7.60518E+03 -4.81071E+03
  1.21583E+04  2.20623E+02  1.08451E+04  7.11207E+03  4.39348E+03  1.17198E+04 -3.18740E+03  9.68015E+03
 -1.07494E+04  3.63347E+03 -8.30706E+03 -4.37089E+02 -5.58284E+03 -7.64037E+03  8.24861E+02 -8.16318E+03
  6.69874E+03 -5.30979E+03  6.18110E+03  1.12610E+03  3.03771E+03  7.16248E+03 -1.99119E+02  5.41535E+03
 -4.96194E+03  2.64436E+03 -2.46125E+03  1.76771E+03 -1.86079E+03  2.95934E+03 -1.82940E+03  1.51860E+03
 -1.87562E+03  4.22593E+03 -7.99916E+03  5.37596E+03 -1.33899E+04  1.24687E+03 -1.35388E+04 -7.24558E+03
 -6.75540E+03 -1.55904E+04  1.79072E+03 -1.77179E+04  8.91050E+03 -1.36155E+04  1.84850E+04 -4.40194E+03
  1.50097E+04  4.31298E+03  9.01271E+03  9.41167E+03  7.05941E+02  1.19717E+04 -6.95195E+03  1.00215E+04
 -9.37541E+03  2.36984E+03 -3.62966E+03 -2.83703E+03 -1.23364E+03 -2.53214E+03 -1.10365E+03 -6.93463E+02
 -1.71632E+03 -6.75037E+02 -2.27144E+03  5.27720E+01  4.65144E+02 -3.43755E+03  1.08972E+03 -5.28414E+03
  5.96696E+03 -4.37261E+03  7.84030E+03  4.47789E+02  7.44797E+03  6.01822E+03  1.76966E+03  1.02901E+04
 -7.53352E+03  1.47661E+04 -1.19581E+04  7.55719E+03 -1.50730E+04 -9.57076E+02 -1.20961E+04 -1.02212E+04
 -5.69271E+03 -1.31826E+04  2.90964E+03 -1.27499E+04  7.80215E+03 -6.22761E+03  8.08912E+03  5.15025E+02
  4.80981E+03  6.46193E+03 -1.47363E+03  2.15683E+03 -2.58715E+02 -1.89449E+03  2.83499E+03 -3.51778E+03
  4.31335E+03 -2.50599E+03  6.41071E+03  2.78911E+03  3.16945E+03  5.62704E+03  1.38167E+03  7.73195E+03
 -5.37535E+03  4.54418E+03 -7.90968E+03  4.21698E+02 -8.11172E+03 -6.48915E+03 -1.79557E+03 -1.20452E+04
  6.85926E+03 -9.33426E+03  9.30451E+03 -1.63571E+03  1.02789E+04  2.09175E+03  6.14255E+03  7.35531E+03
  7.91244E+02  8.15049E+03 -2.73623E+03  6.92462E+03 -4.84243E+03  2.71762E+03 -5.56435E+03  2.52156E+02
 -2.92031E+03 -2.99093E+01 -7.33635E+02  5.90053E+02 -3.37312E+03  2.07114E+03 -6.28420E+03  1.51226E+02
 -5.93532E+03 -4.14942E+03 -1.54076E+03 -7.94147E+03  3.97323E+03 -9.57212E+03  8.54783E+03 -5.26713E+03
  8.36243E+03  5.63227E+02  4.24428E+03  6.79573E+03 -2.70982E+03  7.85639E+03 -7.07935E+03  4.40551E+03
