 $NMID ID='MM_0lb_SNR200_15hz_g45_69.RAW', FMTDAT='(8E13.5)'
 TRAMP=1., VOLUME=1. $END
  3.08620E+05  5.87085E+02  3.37997E+05  2.50420E+05  8.51675E+04  3.37867E+05 -1.33997E+05  2.50433E+05
 -1.90776E+05  8.31290E+04 -1.12100E+05 -3.16186E+04  1.61399E+03 -5.00407E+04  5.45093E+04  4.37608E+02
  3.44883E+04  5.24246E+04 -1.60008E+04  7.63910E+04 -6.21515E+04  6.33958E+04 -8.25579E+04  3.24876E+04
 -7.99332E+04 -1.12922E+04 -5.65890E+04 -5.03389E+04 -1.55296E+04 -6.97138E+04  2.67594E+04 -4.59904E+04
  4.02807E+04  3.02187E+03  1.66738E+04  4.77371E+04 -3.40684E+04  4.67594E+04 -6.71850E+04 -1.57046E+03
 -5.19704E+04 -5.67685E+04 -7.40177E+03 -7.58367E+04  3.41590E+04 -5.37941E+04  4.60931E+04 -1.74320E+04
  4.31980E+04  1.16397E+04  3.10476E+04  2.54072E+04  1.60911E+04  2.88536E+04 -4.38599E+03  2.70266E+04
 -2.17581E+04  1.31510E+04 -1.96395E+04 -3.76243E+03  5.67204E+03 -7.24702E+03  2.22687E+04  1.17720E+04
  7.47537E+03  3.51073E+04 -3.07239E+04  3.44910E+04 -6.23750E+04  3.39961E+03 -5.59101E+04 -4.19789E+04
 -1.29493E+04 -6.24257E+04  3.98809E+04 -4.57144E+04  5.79609E+04 -1.59229E+03  3.37365E+04  3.14757E+04
 -6.74138E+03  3.56705E+04 -2.98800E+04  1.50174E+04 -2.97371E+04 -4.57987E+03 -1.63651E+04 -1.08400E+04
 -6.86561E+03 -1.27987E+04 -1.15024E+03 -1.54560E+04  7.16006E+03 -2.28195E+04  1.48603E+04 -1.30699E+04
  1.16514E+04  6.19566E+03 -7.58886E+03  1.34452E+04 -2.19307E+04 -3.96316E+03 -7.58755E+03 -3.31893E+04
  2.20302E+04 -4.17970E+04  4.74720E+04 -1.93936E+04  4.46403E+04  1.90581E+04  1.46658E+04  4.26112E+04
 -1.63294E+04  3.28129E+04 -2.46786E+04  8.36097E+02 -8.94566E+03 -2.72728E+04  2.11819E+04 -3.31443E+04
  3.94503E+04 -9.06633E+03  3.42056E+04  2.34108E+04  1.76282E+04  4.58433E+04 -8.38500E+03  4.96209E+04
 -3.03736E+04  3.25953E+04 -4.00207E+04  9.04557E+03 -4.11745E+04 -1.56440E+04 -2.31434E+04 -3.70727E+04
  6.92451E+03 -3.72741E+04  3.07933E+04 -1.44430E+04  2.88587E+04  1.21299E+04  4.10043E+03  1.87562E+04
 -1.25018E+04  7.82056E+03 -1.05024E+04 -8.31365E+03  5.93642E+03 -1.11927E+04  1.77141E+04  6.32982E+03
  1.27279E+04  2.13940E+04 -5.47317E+03  2.48491E+04 -2.20710E+04  9.56889E+03 -2.71288E+04 -5.09044E+03
 -2.00142E+04 -1.64531E+04 -6.88803E+03 -1.92341E+04  4.22376E+03 -1.82688E+04  1.44621E+04 -1.72327E+04
  2.40198E+04 -1.25004E+04  3.06897E+04  2.35368E+03  2.29682E+04  1.79483E+04  3.38244E+03  3.56990E+04
 -1.65963E+04  2.97634E+04 -2.63379E+04  9.66678E+03 -2.07866E+04 -1.10722E+04 -2.84685E+03 -1.31939E+04
  9.07395E+02 -2.87641E+03 -4.56480E+03  6.15379E+03 -1.39234E+04  6.07179E+03 -1.42238E+04 -6.96465E+03
 -1.04649E+04 -1.80480E+04  5.68859E+03 -2.11653E+04  1.45308E+04 -1.62580E+04  1.64345E+04 -1.76906E+03
  1.07482E+04  1.17487E+04 -1.18202E+03  1.68243E+04 -1.24255E+04  1.06433E+04 -1.75031E+04 -4.31303E+03
 -1.42682E+04 -1.59751E+04 -5.29627E+02 -2.22163E+04  8.55290E+03 -1.73355E+04  1.73872E+04 -9.55612E+03
  1.66489E+04 -1.60046E+01  1.11418E+04  4.20971E+03  6.36858E+03  9.16902E+02  9.41488E+03 -2.19644E+03
  1.65349E+04  2.59871E+03  1.67889E+04  1.34206E+04  1.11062E+04  2.89305E+04 -2.73437E+03  3.21069E+04
 -1.81641E+04  2.56279E+04 -3.02704E+04  1.23188E+04 -3.05811E+04 -2.13552E+03 -2.51413E+04 -1.77595E+04
 -1.09460E+04 -2.56202E+04  8.11411E+03 -2.21656E+04  2.00902E+04 -1.11621E+04  1.70420E+04  4.20422E+03
  8.94282E+03  1.30890E+04 -8.60097E+03  1.12918E+04 -1.48624E+04  3.26560E+03 -1.09549E+04 -9.87380E+03
 -6.45228E+02 -1.45732E+04  6.55263E+03 -1.07129E+04  9.59555E+03 -1.90280E+03  1.66422E+03  5.39952E+03
 -5.95071E+03  2.42596E+03 -5.85071E+03 -5.67517E+03 -8.79083E+02 -1.21134E+04  9.20302E+03 -1.27103E+04
  1.50696E+04 -6.82359E+03  1.63704E+04  3.32002E+03  1.44155E+04  1.14043E+04  6.58183E+03  1.84229E+04
 -2.11025E+03  1.97718E+04 -1.31064E+04  1.23121E+04 -1.51536E+04  3.21313E+03 -1.10425E+04 -2.25490E+03
 -6.04020E+03 -4.04085E+03 -1.17644E+03  6.51852E+02 -2.56430E+03  3.25068E+03 -4.52730E+03  3.71301E+03
 -9.46170E+03 -6.11795E+02 -9.71744E+03 -8.58495E+03 -5.37855E+03 -1.23109E+04  4.29543E+03 -9.70160E+03
  9.35642E+03 -3.91558E+03  5.96021E+03  2.47045E+03  2.94454E+02  4.18788E+03 -5.07739E+03  7.38265E+02
 -4.83557E+03 -6.61682E+03 -2.89236E+02 -8.55174E+03  4.91785E+03 -1.02782E+04  1.36026E+04 -5.55512E+03
  1.56882E+04  9.19137E+02  1.09275E+04  7.98152E+03  1.83095E+03  1.17714E+04 -7.31931E+03  9.88392E+03
 -7.53461E+03  4.09420E+03 -4.66563E+03 -1.24523E+03  1.95974E+03 -2.45825E+03  5.42963E+03 -1.19248E+03
  5.46535E+03  4.31182E+03  1.99321E+02  8.74779E+03 -5.20391E+03  8.17904E+03 -9.51372E+03  1.69042E+03
 -5.90507E+03 -4.69811E+03  9.32517E+02 -9.62391E+03  5.80725E+03 -3.43664E+03  4.28396E+03  2.04903E+03
  1.14818E+03  5.70242E+03 -4.41042E+03  5.95039E+03 -7.34814E+03  2.47061E+03 -6.39343E+03 -1.98636E+03
 -4.91335E+03 -7.38913E+03  1.14082E+03 -9.66192E+03  8.37586E+03 -5.33306E+03  8.47320E+03  1.06304E+03
  6.56181E+03  6.47861E+03  9.46093E+00  9.00106E+03 -5.95870E+03  5.59313E+03 -6.63586E+03 -1.13452E+03
 -6.93759E+03 -6.11347E+03 -1.42053E+03 -7.98719E+03  3.38406E+03 -6.20987E+03  4.98835E+03 -3.44543E+03
  4.65009E+03  3.73873E+02  7.25809E+02  1.97650E+03  7.59355E+02 -1.22322E+03  6.55402E+02 -3.07875E+03
  7.39235E+03 -2.18816E+03  9.28502E+03  1.61640E+03  8.11581E+03  4.78535E+03  6.00326E+03  1.09704E+04
 -1.85086E+03  1.24145E+04 -9.64996E+03  9.65966E+03 -1.36923E+04  1.69000E+03 -1.02515E+04 -5.11672E+03
 -6.11697E+03 -9.10040E+03 -1.58245E+03 -7.21835E+03  3.14923E+03 -3.72557E+03  3.03862E+03 -2.33206E+03
  1.18688E+03 -2.70138E+03  2.66896E+03 -2.74311E+03  4.33701E+03 -1.73502E+03  4.92951E+03  4.02340E+02
  6.59606E+03  1.36531E+03  3.37655E+03  4.32994E+03 -2.06323E+03  5.39355E+03 -6.72748E+03  3.80918E+03
 -8.76018E+03 -1.28331E+03 -5.33622E+03 -4.39069E+03 -2.87907E+02 -6.59460E+03  3.67282E+03 -7.65159E+03
  7.27227E+03 -4.39931E+03  9.77362E+03  2.28142E+02  6.33640E+03  7.03828E+03  1.18913E+03  9.01343E+03
 -2.89116E+03  7.66697E+03 -5.16740E+03  3.18580E+03 -3.59059E+03 -1.84924E+03 -1.59979E+03 -2.07373E+03
 -1.03522E+03  6.19708E+01 -1.55440E+03  1.80897E+03 -3.52104E+03  8.55825E+02 -5.02405E+03 -2.89009E+01
 -3.61846E+03 -6.38608E+03  2.02770E+03 -8.46919E+03  4.12909E+03 -7.64573E+03  6.49205E+03 -1.43857E+03
  6.67288E+03  3.75232E+03  3.40701E+03  5.49900E+03 -1.38927E+03  7.89980E+03 -4.78287E+03  3.48458E+03
 -6.28551E+03  3.14004E+02 -5.32870E+03 -3.83916E+03 -4.52441E+02 -6.53310E+03  2.30521E+03 -2.32453E+03
  4.02895E+03 -1.93500E+03  2.80490E+03 -5.77052E+02  1.90006E+02  3.43761E+03  1.08480E+03  1.21696E+02
  2.19360E+03  2.38347E+02  2.45911E+03  4.61436E+02  2.83454E+03  2.62726E+03  1.97442E+03  3.17541E+03
 -1.51123E+03  4.72600E+03 -4.74630E+03  5.61813E+03 -6.09736E+03  1.02068E+03 -6.65070E+03 -1.03512E+03
 -1.71323E+03 -6.04278E+03  6.42257E+02 -6.86756E+03  4.41475E+03 -3.39856E+03  5.74089E+03 -1.99150E+03
  4.25967E+03  1.79891E+03  1.24547E+03  3.21344E+03 -2.64286E+03  1.23439E+03 -1.91152E+03 -1.00934E+03
 -7.00624E+02 -2.17011E+03  1.09099E+03 -2.83475E+03  2.93839E+03 -9.38045E+02  1.26285E+03  2.27945E+02
  1.09253E+03  6.70203E+02  1.80021E+03  1.10511E+03  2.80862E+02  1.93881E+03  7.75887E+02 -1.54304E+03
  1.50395E+02 -4.94696E+02  2.74262E+03  2.00070E+03  6.18134E+02  4.31451E+03 -4.90246E+02  5.20039E+03
 -3.31713E+03  2.64073E+03 -3.58048E+03 -4.51762E+02 -4.30586E+03 -2.25973E+03 -1.63568E+03 -1.38995E+03
  6.80324E+02 -2.92451E+03  4.49017E+02 -1.59597E+03  5.04768E+02  1.29902E+03 -9.75537E+02  2.88862E+03
 -2.56544E+03  1.02614E+03 -2.79080E+03 -2.13573E+03 -2.00216E+03 -4.57802E+03  8.47050E+02 -3.19754E+03
  7.77349E+02 -1.79193E+03  1.77364E+03 -6.75155E+00  2.09868E+03  1.31208E+01 -6.39474E+01  2.08659E+03
 -1.18050E+03  1.28596E+03 -2.72201E+03 -7.13267E+02 -4.59879E+02 -1.79775E+03  3.26355E+03 -1.19247E+03
  2.44598E+03 -2.52553E+02  5.12747E+03  1.34552E+03  1.42752E+03  3.40489E+03 -2.44096E+01  3.83259E+03
 -3.54319E+03  1.64524E+03 -2.67483E+03 -9.39229E+02 -1.85812E+03 -2.01880E+03  3.17441E+02 -2.17981E+03
  2.74332E+03 -1.14617E+03  1.70455E+03  4.23541E+02  1.03336E+03  1.83531E+03  1.28008E+03  1.43967E+03
 -1.29554E+03  2.39722E+03 -1.51105E+03  6.29975E+02 -4.04736E+02  1.74400E+03 -1.18393E+03  1.33990E+03
 -8.71717E+02  1.06518E+03 -2.46027E+03  1.53769E+02 -2.58249E+03 -4.21812E+02 -4.00332E+03 -3.51291E+03
 -2.04790E+03 -4.97875E+03  1.14372E+03 -5.40261E+03  3.42844E+03 -4.79903E+03  4.40561E+03 -2.28233E+03
  4.73312E+03 -1.03740E+02  2.03573E+03  3.11473E+03  6.88282E+02  3.03767E+03 -5.89128E+02  3.55070E+03
 -1.25993E+03  2.21775E+03 -1.22897E+03  1.73896E+01 -9.60803E+02 -2.12319E+02 -1.26404E+03  3.09442E+02
 -7.89978E+02  4.67599E+02 -2.67081E+01 -1.12895E+03 -5.74995E+02 -1.22540E+03 -7.01342E+02 -1.60690E+03
  1.74637E+03 -1.79453E+03  6.72943E+02 -4.52232E+01  2.36551E+03  1.48037E+03  5.75790E+02  2.94400E+03
 -1.89773E+03  3.79436E+03 -3.34766E+03  3.30540E+03 -3.78328E+03 -8.77355E+02 -3.12440E+03 -2.64798E+03
 -3.76581E+02 -3.02986E+03  1.18443E+03 -3.07015E+03  1.95546E+03 -1.98155E+02  1.98536E+03  1.47322E+02
  8.64735E+02  7.77346E+02  7.21412E+01  8.13030E+02 -2.21461E+02  1.11148E+02  1.07155E+03  2.03099E+02
  1.99323E+03  1.35114E+03  4.62339E+02  1.02856E+03  8.03440E+02 -2.72282E+02 -9.04177E+02  4.43015E+02
 -1.40097E+03  7.36851E+02 -3.25235E+03  4.12845E+02 -1.38879E+03 -7.71407E+02  3.21854E+02 -3.59342E+03
  1.30092E+03 -2.62427E+03  1.94135E+03 -1.00634E+03  1.52695E+03  1.29297E+03  2.38286E+01  1.24386E+03
  1.59511E+02  1.68126E+03 -1.37970E+03  5.57652E+02 -1.18779E+03  1.73090E+03 -7.99869E+02 -5.29994E+02
  7.28221E+02  1.13964E+03 -8.34297E+02  1.47906E+02 -3.84942E+02 -3.26978E+02 -1.43901E+03  7.79067E+02
 -8.50846E+02 -1.24196E+03 -3.50147E+02 -9.16537E+02  1.85364E+03 -2.12298E+03  1.10750E+03 -4.23359E+02
  1.45353E+03  1.75363E+02  1.04464E+03  1.90245E+03  3.76024E+02  9.17798E+02 -1.04093E+03  1.13593E+03
