 $NMID ID='MM_0lb_SNR200_11hz_g45_93.RAW', FMTDAT='(8E13.5)'
 TRAMP=1., VOLUME=1. $END
  3.08851E+05  5.36191E+02  3.36686E+05  2.51159E+05  8.47211E+04  3.38257E+05 -1.32523E+05  2.50107E+05
 -1.89777E+05  8.31322E+04 -1.13352E+05 -3.33038E+04 -1.13385E+02 -5.18876E+04  5.43191E+04 -4.21238E+02
  3.47175E+04  5.35634E+04 -1.81498E+04  7.46899E+04 -6.06651E+04  6.46521E+04 -8.56662E+04  3.22024E+04
 -8.12517E+04 -1.24212E+04 -5.67923E+04 -5.16793E+04 -1.54473E+04 -7.07359E+04  2.76179E+04 -4.61033E+04
  3.99067E+04  3.79713E+03  1.64418E+04  4.87186E+04 -3.46973E+04  4.65565E+04 -6.63117E+04 -2.78219E+02
 -5.45431E+04 -5.81457E+04 -6.55750E+03 -7.90110E+04  3.38972E+04 -5.54674E+04  4.68104E+04 -1.77625E+04
  4.44485E+04  1.27971E+04  3.25085E+04  2.65314E+04  1.57555E+04  2.96798E+04 -4.78828E+03  2.85440E+04
 -2.18403E+04  1.22250E+04 -1.97697E+04 -4.61741E+03  6.61927E+03 -8.02807E+03  2.22086E+04  1.28846E+04
  6.36296E+03  3.66448E+04 -3.26263E+04  3.59102E+04 -6.49031E+04  2.87900E+03 -5.73233E+04 -4.41105E+04
 -1.23785E+04 -6.48646E+04  4.08258E+04 -4.62130E+04  5.89627E+04 -1.98284E+03  3.65691E+04  3.55388E+04
 -6.59808E+03  3.73105E+04 -3.15709E+04  1.76482E+04 -3.26896E+04 -5.28955E+03 -1.97094E+04 -1.08396E+04
 -8.37415E+03 -1.50246E+04 -1.26114E+03 -1.98883E+04  8.47499E+03 -2.33158E+04  1.50699E+04 -1.20440E+04
  1.04686E+04  5.93232E+03 -8.21919E+03  1.36833E+04 -2.28627E+04 -3.90639E+03 -9.68080E+03 -3.55691E+04
  2.41372E+04 -4.58651E+04  5.04726E+04 -2.10119E+04  4.67816E+04  2.03901E+04  1.56737E+04  4.44056E+04
 -1.69490E+04  3.46742E+04 -2.73332E+04  1.08584E+03 -1.19772E+04 -2.79246E+04  2.02769E+04 -3.69789E+04
  4.41777E+04 -1.00278E+04  3.65808E+04  2.50326E+04  2.02203E+04  4.95669E+04 -8.52786E+03  5.49962E+04
 -3.32704E+04  3.54252E+04 -4.34376E+04  1.09303E+04 -4.58129E+04 -1.83182E+04 -2.35795E+04 -3.99343E+04
  7.47124E+03 -4.09326E+04  3.30229E+04 -1.65026E+04  3.06194E+04  1.11826E+04  4.58727E+03  2.14875E+04
 -1.35748E+04  8.80240E+03 -1.10870E+04 -7.07047E+03  6.18514E+03 -1.20445E+04  1.82529E+04  5.20626E+03
  1.43637E+04  2.18376E+04 -4.95695E+03  2.60099E+04 -2.40658E+04  1.17884E+04 -2.93386E+04 -4.08544E+03
 -2.24541E+04 -1.69153E+04 -9.84936E+03 -2.18420E+04  3.08560E+03 -2.28803E+04  1.70812E+04 -2.24288E+04
  2.96621E+04 -1.25380E+04  3.47957E+04  3.55477E+03  2.53726E+04  2.27989E+04  3.28226E+03  3.83639E+04
 -1.73379E+04  3.25895E+04 -2.93706E+04  1.17015E+04 -2.12080E+04 -1.03816E+04 -5.72700E+03 -1.32847E+04
  5.28279E+02 -1.43764E+03 -6.75381E+03  6.71209E+03 -1.86579E+04  5.30583E+03 -1.81585E+04 -9.32479E+03
 -1.13713E+04 -2.13094E+04  3.69419E+03 -2.46797E+04  1.59936E+04 -1.83752E+04  1.81435E+04 -1.43256E+03
  1.31196E+04  1.42506E+04 -2.61873E+03  2.11775E+04 -1.38600E+04  1.17211E+04 -2.12366E+04 -3.87101E+03
 -1.57460E+04 -2.04759E+04 -3.65703E+03 -2.64137E+04  1.07123E+04 -2.11987E+04  2.19841E+04 -1.06592E+04
  1.95548E+04 -3.54635E+02  1.42337E+04  4.77579E+03  7.16494E+03  1.85633E+03  1.01024E+04 -2.91284E+03
  2.08338E+04  3.31189E+03  2.27787E+04  1.62957E+04  1.37540E+04  3.40812E+04 -2.65571E+03  4.02902E+04
 -2.23666E+04  3.11839E+04 -3.64309E+04  1.56792E+04 -3.81079E+04 -2.05576E+03 -3.11697E+04 -2.39873E+04
 -1.21065E+04 -3.17318E+04  1.08530E+04 -2.95325E+04  2.63897E+04 -1.38512E+04  2.31580E+04  7.65728E+03
  8.64210E+03  1.64615E+04 -1.05564E+04  1.36015E+04 -1.72494E+04  2.83806E+03 -1.41510E+04 -1.15311E+04
  9.19240E+01 -1.93934E+04  9.56968E+03 -1.36716E+04  1.18774E+04 -1.47691E+03  2.75246E+03  5.67880E+03
 -8.62954E+03  3.03172E+03 -9.00628E+03 -5.44103E+03 -4.74074E+02 -1.53511E+04  1.05093E+04 -1.53794E+04
  1.87570E+04 -9.72594E+03  2.13971E+04  2.91159E+03  1.92967E+04  1.52737E+04  8.24416E+03  2.51200E+04
 -4.52903E+03  2.71941E+04 -1.67234E+04  1.68690E+04 -2.04659E+04  3.87899E+03 -1.33633E+04 -3.52308E+03
 -6.13704E+03 -7.72882E+03  3.89428E+02  1.44544E+03 -2.70510E+03  2.11927E+03 -6.91215E+03  3.71056E+03
 -1.25842E+04 -1.69936E+03 -1.25022E+04 -1.06128E+04 -6.09478E+03 -1.59883E+04  5.30857E+03 -1.42559E+04
  1.11699E+04 -6.72728E+03  8.57797E+03  4.22184E+03  8.76652E+02  6.01569E+03 -5.32316E+03 -4.08189E+02
 -5.27310E+03 -8.34887E+03 -4.82368E+02 -1.27290E+04  7.83733E+03 -1.48105E+04  1.62826E+04 -6.99844E+03
  2.06906E+04  1.84694E+03  1.27343E+04  1.21137E+04  1.95692E+03  1.61540E+04 -9.75436E+03  1.41282E+04
 -9.49532E+03  4.22625E+03 -6.38555E+03 -4.05353E+03  1.23591E+03 -3.18739E+03  7.16014E+03 -1.34809E+03
  6.06467E+03  7.20398E+03  1.41863E+03  1.04908E+04 -9.11826E+03  1.27385E+04 -1.44864E+04  2.63119E+03
 -1.00699E+04 -7.91706E+03  3.13010E+02 -1.15465E+04  8.08440E+03 -3.94911E+03  8.03759E+03  2.58083E+03
  2.55383E+03  7.78391E+03 -5.99059E+03  1.02079E+04 -1.19972E+04  4.73521E+03 -1.21897E+04 -4.10260E+03
 -5.28294E+03 -1.40065E+04  4.32042E+03 -1.58893E+04  1.33220E+04 -7.89916E+03  1.25290E+04  1.70520E+03
  9.05143E+03  1.00623E+04  7.26274E+00  1.26061E+04 -1.00297E+04  7.91652E+03 -9.83679E+03 -5.55296E+02
 -1.01162E+04 -8.78154E+03 -2.48786E+03 -9.83850E+03  5.28703E+03 -7.77147E+03  6.30910E+03 -4.54392E+03
  4.66677E+03  5.34165E+02  2.84108E+01  1.50195E+03 -4.20414E+02 -2.88114E+03  2.81813E+03 -4.90812E+03
  9.61106E+03 -2.00839E+03  1.25849E+04  1.63623E+03  1.41556E+04  9.00176E+03  7.36342E+03  1.70924E+04
 -5.37422E+03  1.95934E+04 -1.63415E+04  1.36165E+04 -2.27569E+04  1.73323E+03 -1.74281E+04 -6.16165E+03
 -9.08169E+03 -1.40104E+04 -7.38425E+02 -1.04085E+04  5.51729E+03 -5.79831E+03  2.67393E+03 -4.70355E+03
  3.95459E+03 -3.72162E+03  3.45524E+03 -2.77484E+03  4.61519E+03 -4.26617E+03  5.14025E+03 -1.30690E+03
  9.26808E+03  3.15822E+03  5.42484E+03  7.92445E+03 -1.81681E+03  9.34530E+03 -8.83195E+03  5.63631E+03
 -1.11489E+04 -1.53565E+03 -6.41859E+03 -8.67785E+03 -1.43336E+03 -1.25053E+04  7.44150E+03 -1.23395E+04
  1.29062E+04 -6.37607E+03  1.60033E+04  1.83753E+03  1.07565E+04  1.17072E+04  2.35286E+03  1.30139E+04
 -6.00855E+03  1.06437E+04 -8.25459E+03  2.71251E+03 -5.09704E+03 -2.77994E+02 -1.21813E+03 -5.03590E+02
 -4.52339E+02 -1.28548E+03 -8.92601E+02  1.18897E+03 -4.99161E+03  1.97416E+03 -8.83185E+03 -4.63153E+02
 -4.54185E+03 -7.10989E+03  1.34392E+03 -1.14826E+04  7.94100E+03 -1.03668E+04  9.78953E+03 -4.43617E+03
  1.14560E+04  5.02548E+03  4.99183E+03  1.11405E+04 -2.66084E+03  1.12936E+04 -8.55255E+03  8.04845E+03
 -1.21698E+04 -4.54518E+02 -7.87276E+03 -5.76735E+03 -7.93061E+02 -1.03585E+04  3.86541E+03 -7.59135E+03
  5.39378E+03 -2.75554E+03  5.16957E+03  2.62162E+03  9.20052E+02  3.27960E+03  1.30906E+03  1.03133E+03
  2.98368E+03 -5.73718E+02  3.09191E+03  4.42141E+02  2.83463E+03  3.03448E+03  3.69046E+03  5.47639E+03
 -3.67894E+03  1.09941E+04 -8.46537E+03  9.37120E+03 -1.12389E+04  3.34735E+03 -1.32729E+04 -5.53231E+03
 -5.91567E+03 -1.12481E+04  1.25441E+03 -1.19360E+04  7.08346E+03 -8.66037E+03  9.55275E+03 -2.92336E+03
  7.80265E+03  4.21146E+03  9.35152E+02  6.07434E+03 -3.55283E+03  4.37766E+03 -5.24099E+03  1.05269E+03
 -2.20187E+03 -5.52820E+03  2.75207E+03 -5.20887E+03  4.33069E+03 -2.12003E+03  5.65856E+03  1.96620E+02
  3.76445E+03  2.52425E+03  1.49397E+03  1.58124E+03  5.65926E+02  2.02305E+03  1.33295E+03 -1.23294E+03
  1.82307E+03 -2.80820E+02  4.92379E+03  1.26681E+03  2.61858E+03  6.74237E+03 -1.42525E+03  7.22109E+03
 -5.98152E+03  4.30746E+03 -6.88693E+03  1.33466E+03 -6.71198E+03 -2.57885E+03 -1.91222E+03 -2.97079E+03
  1.36830E+03 -4.59618E+03  4.64646E+03 -1.93295E+03  3.48901E+03  3.08663E+03 -1.68428E+03  4.38020E+03
 -3.74482E+03  5.16273E+02 -7.10919E+03 -2.83572E+03 -3.27127E+03 -6.34559E+03  1.80617E+03 -5.70106E+03
  3.89335E+03 -3.67039E+03  3.10811E+03  1.35004E+03  3.45939E+03  1.49686E+03 -5.33898E+01  3.41420E+03
 -9.13651E+02  1.87354E+03 -3.37257E+03 -2.95598E+03  9.58293E+02 -3.77662E+03  6.55385E+03 -4.07566E+03
  6.00358E+03  5.55060E+02  8.58469E+03  5.14063E+03  1.15827E+03  6.59218E+03 -3.60501E+03  6.73038E+03
 -5.74118E+03  3.72829E+03 -6.09015E+03 -1.06171E+03 -2.81812E+03 -4.32151E+03  7.02490E+02 -3.52719E+03
  4.48113E+03 -2.16834E+03  4.36239E+03  9.99176E+02  1.17307E+03  4.16076E+03 -4.47760E+02  3.01255E+03
 -2.34238E+03  2.93258E+03 -2.46212E+03  7.15406E+02 -9.35268E+02  1.59584E+03 -3.05858E+02  9.54264E+02
 -2.41452E+03  3.60293E+03 -3.96430E+03  2.40491E+03 -6.15796E+03 -2.69233E+01 -8.61861E+03 -2.63152E+03
 -4.60796E+03 -8.47522E+03  1.70466E+03 -9.74944E+03  5.52760E+03 -8.81033E+03  1.03972E+04 -3.62815E+03
  9.51186E+03  1.43872E+03  5.62734E+03  6.30522E+03  1.44446E+03  7.36051E+03 -3.50115E+03  5.41015E+03
 -2.56315E+03  1.00686E+03 -1.83503E+03 -2.03509E+02 -6.11273E+02  1.02530E+03 -2.18387E+03 -1.61871E+03
 -2.04174E+03  1.49620E+03 -2.94302E+03  1.26211E+03 -7.29028E+02 -2.78273E+03  2.13606E+02 -3.67269E+03
  2.90541E+03 -1.71324E+03  4.10278E+03  8.24213E+02  4.78983E+03  4.28416E+03  2.31834E+03  8.08321E+03
 -4.72262E+03  7.96599E+03 -7.33715E+03  3.33894E+03 -8.72134E+03 -1.30738E+03 -6.01599E+03 -5.96110E+03
 -3.17377E+03 -7.02243E+03  2.57048E+03 -6.31169E+03  4.35788E+03 -2.98809E+03  4.19991E+03  1.30452E+03
  2.77683E+03  2.67450E+03 -2.73685E+02  1.64133E+03 -2.03769E+03 -5.98405E+02 -1.84703E+02 -1.40581E+03
  2.19908E+03  8.96289E+02  2.67892E+03  1.33965E+03  2.10588E+03  4.21263E+03  8.96946E+02  3.95398E+03
 -2.83380E+03  3.53058E+03 -4.55829E+03 -8.79437E+01 -4.26851E+03 -2.63761E+03  8.44741E+02 -5.22123E+03
  3.20341E+03 -6.36652E+03  6.22871E+03 -1.03603E+03  5.10347E+03  1.72535E+03  3.13077E+03  3.80231E+03
  1.00768E+03  4.38077E+03 -1.10278E+03  3.12907E+03 -2.52900E+03  2.92751E+03 -1.91029E+03  1.32036E+03
 -5.70789E+02  3.90412E+02 -1.24940E+03  1.07881E+03 -3.14348E+03  1.01938E+03 -2.98753E+03 -2.04984E+03
 -2.72723E+03 -2.10325E+03 -1.61492E+03 -5.17387E+03  2.81898E+03 -4.82947E+03  4.16546E+03 -1.71929E+03
  5.86070E+03 -1.25600E+02  1.10134E+03  3.50311E+03  1.16163E+03  4.41972E+03 -3.32226E+03  2.04165E+03
