 $NMID ID='MM_0lb_SNR200_19hz_g40_52.RAW', FMTDAT='(8E13.5)'
 TRAMP=1., VOLUME=1. $END
  3.09636E+05  2.01485E+02  3.37170E+05  2.50117E+05  8.42978E+04  3.36821E+05 -1.32055E+05  2.49826E+05
 -1.88139E+05  8.22246E+04 -1.10187E+05 -3.40068E+04  2.22915E+03 -5.00834E+04  5.42482E+04  8.09248E+02
  3.52117E+04  5.32507E+04 -1.67715E+04  7.42316E+04 -5.99638E+04  6.15293E+04 -8.16892E+04  3.12892E+04
 -7.98764E+04 -1.02050E+04 -5.53521E+04 -4.87134E+04 -1.36293E+04 -6.79751E+04  2.51935E+04 -4.44563E+04
  3.84849E+04  4.10412E+03  1.65401E+04  4.62747E+04 -3.36796E+04  4.52381E+04 -6.48852E+04 -1.21900E+03
 -5.19551E+04 -5.61622E+04 -6.36345E+03 -7.42769E+04  3.33204E+04 -5.34641E+04  4.61428E+04 -1.52214E+04
  3.98248E+04  1.21337E+04  3.07767E+04  2.36414E+04  1.66166E+04  2.85285E+04 -4.73700E+03  2.58237E+04
 -2.11978E+04  1.25425E+04 -2.03007E+04 -4.06527E+03  2.54841E+03 -7.43003E+03  2.13124E+04  1.00983E+04
  8.04315E+03  3.23141E+04 -3.00261E+04  3.33661E+04 -6.12086E+04  2.02433E+03 -5.44220E+04 -4.01253E+04
 -1.18483E+04 -6.04246E+04  3.68530E+04 -4.24259E+04  5.37455E+04 -1.20262E+03  2.98655E+04  2.95490E+04
 -5.49645E+03  3.27885E+04 -2.79570E+04  1.24920E+04 -2.67692E+04 -5.29602E+03 -1.39121E+04 -1.05952E+04
 -7.84045E+03 -1.12698E+04 -1.85890E+03 -1.58851E+04  6.75152E+03 -2.22273E+04  1.50986E+04 -1.41039E+04
  1.29543E+04  2.82470E+03 -6.20565E+03  1.38460E+04 -1.76586E+04 -1.81171E+03 -7.57383E+03 -2.79070E+04
  1.89466E+04 -4.05330E+04  4.32602E+04 -1.80380E+04  4.16544E+04  1.79234E+04  1.37051E+04  4.00913E+04
 -1.51826E+04  3.09611E+04 -2.29181E+04  8.43802E+02 -7.34713E+03 -2.62089E+04  1.99587E+04 -2.99773E+04
  3.78742E+04 -7.61521E+03  3.02351E+04  2.15609E+04  1.42971E+04  4.18983E+04 -8.91949E+03  4.40652E+04
 -2.72685E+04  2.92522E+04 -3.53278E+04  8.26986E+03 -3.71931E+04 -1.41399E+04 -2.04958E+04 -3.20937E+04
  6.84391E+03 -3.34167E+04  2.87327E+04 -1.27914E+04  2.58157E+04  1.05247E+04  2.94402E+03  1.64420E+04
 -1.37153E+04  6.97845E+03 -9.80843E+03 -8.61144E+03  5.04142E+03 -1.04870E+04  1.61577E+04  6.11428E+03
  1.23660E+04  2.08337E+04 -7.37508E+03  2.22568E+04 -2.05197E+04  8.25056E+03 -2.38770E+04 -7.45588E+03
 -1.53734E+04 -1.54380E+04 -5.02781E+03 -1.58269E+04  3.71523E+03 -1.26777E+04  1.23075E+04 -1.24831E+04
  1.93649E+04 -1.13224E+04  2.71207E+04  8.79733E+02  2.08701E+04  1.55581E+04  3.99432E+03  3.02179E+04
 -1.58154E+04  2.69868E+04 -2.69570E+04  9.57876E+03 -1.98618E+04 -9.72057E+03 -3.45414E+03 -1.43964E+04
  2.65518E+03 -4.68154E+03 -2.36003E+03  4.66860E+03 -1.19729E+04  5.50995E+03 -1.17724E+04 -4.35713E+03
 -8.06077E+03 -1.54564E+04  5.09205E+03 -1.80456E+04  1.13350E+04 -1.39197E+04  1.31017E+04 -2.08677E+03
  7.69857E+03  1.03525E+04 -1.11837E+03  1.44152E+04 -9.21488E+03  8.46340E+03 -1.43778E+04 -2.57769E+03
 -1.17772E+04 -1.31687E+04 -8.91016E+02 -1.84673E+04  8.40455E+03 -1.53276E+04  1.53836E+04 -5.86707E+03
  1.47923E+04  1.35698E+03  9.84863E+03  3.17307E+03  4.62578E+03  6.06064E+01  7.19868E+03 -1.15159E+03
  1.33525E+04  3.38893E+03  1.37781E+04  1.19800E+04  8.05974E+03  2.39549E+04 -3.09186E+03  2.48728E+04
 -1.49811E+04  1.89483E+04 -2.35173E+04  8.38126E+03 -2.30159E+04 -1.31009E+03 -1.93387E+04 -1.33693E+04
 -1.07869E+04 -1.82693E+04  7.15365E+03 -1.74728E+04  1.60365E+04 -1.09400E+04  1.49854E+04  3.49027E+03
  6.34604E+03  9.89256E+03 -6.53277E+03  1.03151E+04 -1.24576E+04  2.48040E+03 -8.48140E+03 -8.41947E+03
  3.80310E+02 -1.22542E+04  5.03769E+03 -9.30561E+03  7.90453E+03 -1.54789E+03  9.17872E+02  3.67997E+03
 -5.40952E+03  1.38319E+03 -2.77156E+03 -3.55433E+03  7.31803E+02 -9.80867E+03  7.30411E+03 -9.70609E+03
  1.15862E+04 -3.90504E+03  1.03603E+04  2.52002E+03  9.23546E+03  9.06312E+03  4.90193E+03  1.29686E+04
 -1.57834E+03  1.34485E+04 -9.03134E+03  1.05858E+04 -9.89715E+03  2.12991E+03 -7.57676E+03 -8.51577E+02
 -4.40265E+03 -2.66453E+03 -7.36594E+02  1.10166E+03 -3.40834E+03  2.02831E+03 -3.15112E+03  3.13157E+03
 -7.55870E+03 -8.33593E+02 -8.33382E+03 -6.51663E+03 -3.61617E+03 -1.04909E+04  3.24482E+03 -5.96691E+03
  7.75980E+03 -2.77956E+03  3.97433E+03  1.44540E+03  1.26960E+03  2.56910E+03 -2.84705E+03 -9.39520E+02
 -3.08159E+03 -4.98977E+03 -4.30452E+02 -5.36798E+03  4.38873E+03 -7.81842E+03  9.22156E+03 -4.02181E+03
  1.14154E+04  3.40662E+02  8.45259E+03  5.82824E+03  1.79073E+03  8.26250E+03 -4.87776E+03  8.24905E+03
 -6.77926E+03  2.06651E+03 -4.72552E+03 -6.57152E+02  1.90717E+03 -1.16653E+03  4.45911E+03 -2.10869E+03
  4.37122E+03  2.30814E+03  8.34580E+02  6.31550E+03 -4.05543E+03  6.23408E+03 -7.03752E+03  2.00084E+03
 -4.87812E+03 -3.31953E+03  1.17056E+02 -5.73021E+03  3.56735E+03 -3.55371E+03  3.52540E+03  5.07124E+02
 -5.40924E+02  2.29323E+03 -3.13806E+03  3.08460E+03 -3.50457E+03  2.66350E+03 -3.91360E+03 -1.18899E+03
 -2.56718E+03 -5.43916E+03  1.28188E+03 -7.42252E+03  5.45341E+03 -4.36029E+03  5.63447E+03  7.76053E+02
  3.59273E+03  4.93204E+03  6.05855E+02  7.24175E+03 -4.30349E+03  4.08780E+03 -5.53802E+03  3.26443E+02
 -5.30602E+03 -4.87225E+03 -1.24698E+03 -4.00095E+03  3.05229E+03 -4.51995E+03  2.22589E+03 -2.36649E+03
  2.55716E+03  5.95391E+02 -1.46616E+02  1.04842E+03  1.14946E+03 -6.38785E+02 -9.61830E+02 -1.54569E+03
  3.89905E+03 -5.44845E+02  4.57692E+03  3.05943E+02  3.51873E+03  2.82825E+03  5.50249E+03  7.27797E+03
 -1.32644E+03  7.25617E+03 -7.24824E+03  5.66197E+03 -8.65512E+03  8.67813E+02 -6.04415E+03 -2.61993E+03
 -3.30610E+03 -6.22920E+03 -4.18810E+02 -4.72779E+03  2.47991E+03 -1.26446E+03  1.81204E+03 -1.68802E+03
  4.93651E+02 -9.23909E+02  1.15972E+03 -2.35525E+03  2.42334E+03 -3.51083E+02  3.38446E+03  1.31426E+03
  5.14881E+03  5.90649E+02  4.70129E+02  3.55719E+03 -1.73377E+03  2.56267E+03 -3.89234E+03  2.05390E+03
 -4.69430E+03 -6.63874E+02 -1.67692E+03 -3.71543E+03  6.94098E+02 -4.10185E+03  2.06009E+03 -5.00128E+03
  5.01466E+03 -2.59768E+03  5.02750E+03 -5.00969E+02  5.62803E+03  3.74921E+03  1.47807E+03  4.83244E+03
 -1.26466E+03  4.94121E+03 -2.86543E+03  2.73216E+03 -2.51257E+03 -7.64386E+02 -1.26541E+03 -2.14493E+03
 -1.26070E+03  3.42303E+02 -1.73510E+03  1.82442E+03 -2.10270E+03  5.33572E+02 -3.52055E+03 -5.56974E+02
 -1.17610E+03 -4.52875E+03  1.40310E+03 -3.77758E+03  2.32290E+03 -4.50332E+03  3.72713E+03 -6.64969E+02
  4.24975E+03  1.84705E+03  1.87244E+03  3.15061E+03 -1.01047E+03  4.09107E+03 -2.55634E+03  2.26713E+03
 -3.14561E+03  1.89866E+02 -3.69113E+03 -2.49114E+03 -2.71222E+02 -2.28082E+03  1.25379E+03 -2.25536E+03
  3.46603E+03 -1.44692E+03  3.11450E+03  1.11588E+03  1.26076E+03  8.18174E+02  1.14265E+03  1.45571E+03
  2.01036E+03 -3.67055E+02  1.95021E+03  1.45853E+03  9.56517E+02  2.42009E+03  1.46932E+03  3.23982E+02
 -5.58069E+02  3.20622E+03 -1.95657E+03  4.68247E+03 -2.71584E+03  2.05085E+03 -3.38168E+03 -7.58349E+02
 -1.69761E+03 -3.35981E+03  9.81061E+02 -3.50075E+03  1.36420E+03 -2.77539E+03  3.41763E+03 -3.03085E+02
  2.65540E+03  1.45389E+03 -3.68724E+02  1.66609E+03 -1.03161E+03  5.69144E+02 -1.51526E+03  4.71302E+02
 -9.07020E+02 -1.13938E+03  1.22102E+02 -1.10703E+03  1.09746E+03 -7.31843E+02  9.64646E+02  5.41292E+02
  8.83809E+01  8.90310E+02  6.61701E+02 -7.07694E+02  4.42802E+02  7.76950E+02  1.33936E+03  1.78805E+02
 -4.80246E+01  1.66066E+02  1.54889E+03  5.88191E+02  1.34861E+03  2.09937E+03  5.66853E+02  2.96875E+03
 -6.92791E+02 -3.08208E+02 -1.49304E+03  6.29604E+02 -2.39790E+03  3.73156E+01 -1.41313E+02 -8.54883E+02
  1.14904E+03 -7.19423E+02  1.38846E+03 -6.61949E+02  6.09636E+02  1.50028E+03 -1.19983E+03  1.18844E+03
 -1.03757E+03  1.82598E+03 -1.01846E+03 -1.22940E+03 -8.83968E+02 -2.33391E+03 -4.50570E+02 -1.10897E+03
 -8.16867E+01 -4.68334E+02 -2.87557E+02 -3.22842E+02  1.38592E+03  1.25845E+02  4.58457E+02  7.48345E+02
 -8.64348E+02  3.14882E+02 -1.42317E+03 -6.68467E+02  8.45301E+02 -8.56346E+02  1.42069E+03 -3.35938E+02
  1.08198E+03  1.79317E+02  2.85800E+03 -1.89427E+01  6.54164E+02  1.90164E+03 -4.73533E+02  1.96837E+03
 -7.88701E+02  3.44952E+01 -6.83441E+02 -3.97488E+02 -1.57360E+03 -1.57008E+03  2.73462E+02 -2.30008E+02
  1.82989E+02 -4.71209E+02  1.28715E+03  1.28789E+03  3.45871E+02  1.73455E+03 -9.72365E+02  1.07471E+03
 -4.79507E+01  1.51372E+03 -7.02913E+02 -5.30848E+01 -4.03203E+02  6.49463E+02 -5.23595E+02  1.11624E+03
 -6.93281E+02 -3.37270E+02 -1.03223E+03  1.14192E+03 -1.71344E+03  1.05278E+03 -2.04801E+03 -5.46140E+02
 -8.16057E+02 -1.23089E+03  1.00055E+03 -1.32719E+03  1.19454E+03 -2.78768E+03  3.03369E+03 -6.52164E+02
  2.84465E+03 -6.05626E+02  8.71343E+02  1.27933E+03 -1.13608E+03  1.91956E+03 -8.51964E+02  1.13243E+03
 -8.98418E+02  5.00838E+02 -4.70358E+02 -1.02377E+02 -1.18457E+03  3.30284E+02 -7.00465E+02 -7.62888E+02
 -8.74717E+02 -3.21831E+02 -2.36742E+02  6.90499E+02 -4.96166E+02 -5.31345E+02 -1.71925E+03 -5.31979E+02
  8.48931E+02 -2.98765E+02 -1.14030E+01 -3.27774E+02  7.16130E+02  8.51399E+02  2.25913E+02  1.82230E+03
 -7.73890E+02  2.71828E+03 -2.13013E+03  7.03392E+02 -5.85496E+02  1.17016E+03 -1.25446E+03 -5.16154E+02
 -1.50681E+03 -1.18369E+03 -6.29563E+02 -1.44558E+03  7.11181E+02  2.40172E+02  1.14451E+03 -7.13566E+02
  5.19198E+02  1.66153E+02 -1.13860E+01  5.50740E+01  1.28362E+00 -7.74755E+02 -4.77310E+02 -6.91110E+02
  9.24531E+02  1.37008E+02  3.21259E+02  1.52756E+02  5.63378E+02  6.96503E+02  1.17821E+02  3.45396E+02
  2.75306E+02  2.29680E+02 -5.00655E+02 -4.25300E+02 -5.52344E+02 -6.42537E+02 -4.74122E+02 -1.14121E+03
  1.22944E+03  1.95483E+01  1.13188E+03 -5.45293E+02  5.62694E+02 -4.09577E+02  8.95975E+02  7.63557E+02
  9.48137E+02 -1.06848E+03  3.47542E+02 -6.26704E+02 -2.24820E+02  2.05796E+02 -2.17984E-01  1.97162E+02
  3.82402E+02 -5.00557E+02 -8.45653E+02  2.03347E+02 -9.86419E+02  6.65777E+02 -4.23148E+02  4.29670E+02
 -6.33321E+02 -1.64682E+02 -6.31523E+02 -2.07318E+03  4.11223E+02 -1.31859E+03  5.32605E+02 -1.85614E+02
  8.89074E+02 -6.58456E+02 -1.36727E+03 -1.27813E+03  2.74128E+02  5.41511E+02 -6.33308E+02  7.60039E+02
