 $NMID ID='MM_0lb_SNR200_13hz_g45_51.RAW', FMTDAT='(8E13.5)'
 TRAMP=1., VOLUME=1. $END
  3.09744E+05  1.61548E+03  3.38167E+05  2.51847E+05  8.45081E+04  3.37923E+05 -1.32181E+05  2.52062E+05
 -1.89639E+05  8.32121E+04 -1.11336E+05 -3.17192E+04  1.33074E+03 -5.10018E+04  5.35127E+04 -9.01423E+01
  3.58254E+04  5.27711E+04 -1.63086E+04  7.44472E+04 -6.05551E+04  6.30099E+04 -8.50528E+04  3.24623E+04
 -8.20938E+04 -1.12646E+04 -5.63164E+04 -5.13194E+04 -1.54456E+04 -7.01816E+04  2.75932E+04 -4.59496E+04
  4.10979E+04  2.65576E+03  1.72695E+04  4.98656E+04 -3.42815E+04  4.69161E+04 -6.65119E+04 -8.58636E+02
 -5.41088E+04 -5.66538E+04 -7.35330E+03 -7.81730E+04  3.42710E+04 -5.52297E+04  4.77902E+04 -1.81806E+04
  4.48823E+04  1.06900E+04  3.23415E+04  2.60388E+04  1.51645E+04  2.98647E+04 -5.19931E+03  2.82702E+04
 -2.26165E+04  1.17622E+04 -1.80321E+04 -5.08097E+03  5.36496E+03 -8.70018E+03  2.24586E+04  1.23960E+04
  7.44426E+03  3.49550E+04 -3.11872E+04  3.56045E+04 -6.39477E+04  1.97585E+03 -5.82674E+04 -4.32967E+04
 -1.15196E+04 -6.28144E+04  3.98879E+04 -4.63748E+04  5.96144E+04 -2.17565E+03  3.48601E+04  3.28462E+04
 -5.87967E+03  3.47333E+04 -3.17279E+04  1.67596E+04 -3.03786E+04 -4.71960E+03 -1.61383E+04 -1.24289E+04
 -7.52935E+03 -1.32092E+04 -1.60390E+03 -1.89281E+04  7.70129E+03 -2.31234E+04  1.66696E+04 -1.29048E+04
  1.08828E+04  6.77155E+03 -8.16695E+03  1.25838E+04 -2.11140E+04 -3.67017E+03 -9.10509E+03 -3.59072E+04
  2.36444E+04 -4.34572E+04  4.87721E+04 -1.86156E+04  4.47830E+04  1.99073E+04  1.50967E+04  4.35276E+04
 -1.50071E+04  3.30338E+04 -2.58473E+04  2.19609E+03 -1.04736E+04 -2.77020E+04  2.04344E+04 -3.41891E+04
  4.19263E+04 -9.65125E+03  3.53837E+04  2.42940E+04  1.86987E+04  4.75648E+04 -8.06755E+03  5.00627E+04
 -3.15269E+04  3.39089E+04 -4.30876E+04  9.68677E+03 -4.22571E+04 -1.66035E+04 -2.31343E+04 -3.84370E+04
  8.03370E+03 -3.77192E+04  3.23816E+04 -1.51623E+04  2.99819E+04  1.18551E+04  4.19919E+03  1.83995E+04
 -1.33270E+04  8.31301E+03 -1.08836E+04 -7.24487E+03  5.48111E+03 -1.04698E+04  1.77908E+04  6.16183E+03
  1.37597E+04  2.15218E+04 -5.47423E+03  2.56199E+04 -2.22059E+04  1.21685E+04 -2.80426E+04 -3.93344E+03
 -2.11923E+04 -1.66119E+04 -8.73142E+03 -2.15906E+04  3.96659E+03 -2.03583E+04  1.55721E+04 -2.03442E+04
  2.77288E+04 -1.20975E+04  3.26893E+04  3.42476E+03  2.44807E+04  2.08227E+04  4.76334E+03  3.61701E+04
 -1.76606E+04  3.11363E+04 -2.90277E+04  1.18199E+04 -2.11160E+04 -1.04500E+04 -5.20628E+03 -1.38801E+04
  2.07537E+03 -1.79287E+03 -6.71820E+03  7.85300E+03 -1.66011E+04  4.83319E+03 -1.67233E+04 -8.75049E+03
 -9.42863E+03 -1.88612E+04  5.02192E+03 -2.36207E+04  1.64123E+04 -1.73206E+04  1.75716E+04 -6.47059E+02
  1.29032E+04  1.44069E+04 -1.87459E+03  1.79314E+04 -1.41012E+04  1.11030E+04 -2.01313E+04 -4.29895E+03
 -1.39908E+04 -1.72448E+04 -1.50696E+03 -2.31679E+04  1.16126E+04 -1.85840E+04  1.91385E+04 -9.55631E+03
  1.75125E+04  1.14390E+03  1.51090E+04  4.08208E+03  6.63856E+03  1.35194E+03  1.05567E+04 -1.60223E+03
  1.79459E+04  2.35428E+03  1.96568E+04  1.45291E+04  1.33360E+04  3.09446E+04 -2.25874E+03  3.54826E+04
 -2.08065E+04  2.85475E+04 -3.28184E+04  1.30750E+04 -3.44989E+04 -2.14961E+03 -2.78104E+04 -1.99338E+04
 -1.26513E+04 -2.84510E+04  9.33699E+03 -2.62022E+04  2.15071E+04 -1.23540E+04  2.02242E+04  5.00035E+03
  8.12077E+03  1.60504E+04 -9.31935E+03  1.29295E+04 -1.71764E+04  2.36295E+03 -1.31241E+04 -1.05729E+04
 -1.74880E+03 -1.63695E+04  8.27174E+03 -1.16214E+04  9.66099E+03 -1.97141E+03  3.59536E+03  7.02853E+03
 -7.28888E+03  2.26290E+03 -7.13641E+03 -6.70029E+03  1.16300E+03 -1.36635E+04  1.05192E+04 -1.48710E+04
  1.61186E+04 -7.87957E+03  2.00624E+04  3.69866E+03  1.68484E+04  1.31714E+04  7.35805E+03  2.12611E+04
 -2.47382E+03  2.40553E+04 -1.53389E+04  1.52548E+04 -1.65692E+04  2.83759E+03 -1.25055E+04 -3.51715E+03
 -6.36124E+03 -4.23328E+03 -2.06150E+03  1.53051E+03 -2.49009E+03  2.74803E+03 -5.96997E+03  4.53894E+03
 -1.19746E+04 -4.40475E+02 -1.15690E+04 -1.08879E+04 -5.63105E+03 -1.52226E+04  3.71834E+03 -1.26313E+04
  9.71937E+03 -4.37458E+03  7.15732E+03  3.48110E+03  2.05517E+02  3.56542E+03 -5.39503E+03 -6.29514E+02
 -4.82914E+03 -7.57836E+03 -8.47432E+02 -1.18161E+04  6.73574E+03 -1.00514E+04  1.39736E+04 -5.48322E+03
  1.63786E+04  1.81657E+03  1.27004E+04  1.18820E+04  2.19467E+03  1.39929E+04 -7.27807E+03  1.18576E+04
 -1.02676E+04  3.78133E+03 -5.36944E+03 -2.99160E+03  2.21405E+03 -2.00262E+03  6.37176E+03 -1.09139E+03
  6.39952E+03  3.97149E+03  9.06904E+00  9.25174E+03 -7.46639E+03  9.58239E+03 -1.07427E+04  2.13709E+03
 -7.96089E+03 -6.11234E+03  1.55209E+02 -1.04656E+04  6.42938E+03 -5.79208E+03  5.83635E+03  8.98733E+02
  2.27887E+03  7.21886E+03 -5.49564E+03  7.18966E+03 -9.96876E+03  4.11581E+03 -8.54511E+03 -2.65625E+03
 -5.36137E+03 -1.11743E+04  2.52132E+03 -1.21662E+04  1.02173E+04 -7.93842E+03  1.17093E+04  1.29612E+03
  6.75734E+03  9.31356E+03 -8.24304E+02  1.00786E+04 -7.77873E+03  7.60789E+03 -9.20810E+03 -9.44521E+02
 -9.65029E+03 -8.27025E+03 -1.93188E+03 -8.28944E+03  4.36383E+03 -6.84183E+03  3.75615E+03 -4.07419E+03
  3.60415E+03 -5.62184E+00 -6.52633E+02 -5.27932E+02  7.89709E+02 -6.76589E+02  1.67308E+03 -5.32801E+03
  7.26690E+03 -1.07303E+03  1.01234E+04  1.63774E+03  1.05469E+04  6.30254E+03  6.26455E+03  1.28898E+04
 -2.97612E+03  1.58550E+04 -1.35326E+04  1.27353E+04 -1.75771E+04  2.66261E+03 -1.43755E+04 -3.74563E+03
 -7.55768E+03 -1.13662E+04 -1.74214E+03 -9.70600E+03  2.73074E+03 -5.49021E+03  3.77361E+03 -4.45942E+03
  1.82124E+03 -1.12231E+03  4.76397E+03 -3.28818E+03  4.17348E+03 -2.04620E+03  5.93915E+03  6.25098E+02
  6.10545E+03  2.52530E+03  2.19432E+03  6.28705E+03 -1.32697E+03  6.34192E+03 -7.47485E+03  4.57148E+03
 -9.55357E+03 -1.22426E+03 -5.30911E+03 -5.79144E+03  3.34939E+01 -1.05707E+04  5.25394E+03 -1.06479E+04
  9.53924E+03 -6.27168E+03  1.31864E+04  1.55712E+03  8.62430E+03  7.36798E+03  2.14093E+03  1.11745E+04
 -5.04812E+03  9.60318E+03 -7.52239E+03  3.00032E+03 -5.93330E+03 -2.80594E+03 -1.42529E+03 -1.27223E+03
 -4.08030E+02  1.43158E+02 -2.02889E+03  1.75604E+03 -4.61688E+03  1.35766E+03 -6.52077E+03 -1.11697E+03
 -3.61793E+03 -5.27964E+03  3.84899E+02 -9.46160E+03  5.43034E+03 -8.24990E+03  9.07101E+03 -2.39451E+03
  9.22962E+03  5.70054E+03  3.71746E+03  6.89122E+03 -1.18366E+03  1.02520E+04 -5.59380E+03  5.86484E+03
 -8.63598E+03  4.30981E+02 -6.03753E+03 -5.07819E+03 -2.12498E+02 -7.92591E+03  4.67555E+03 -6.16512E+03
  6.15335E+03 -2.03176E+03  4.42152E+03  1.36964E+03  2.26716E+03  3.25489E+03  1.10016E+03  1.55743E+03
  1.96524E+03  8.82465E+02  2.48479E+03  2.75351E+03  2.70168E+03  3.95303E+03  1.82070E+03  4.36767E+03
 -1.98747E+03  6.92436E+03 -5.46991E+03  7.75906E+03 -7.32368E+03  2.97672E+03 -9.03761E+03 -3.93354E+03
 -4.71172E+03 -7.84637E+03  9.91778E+02 -9.20068E+03  4.50520E+03 -5.04101E+03  5.96931E+03 -2.20002E+03
  6.68006E+03  4.28464E+03  4.27571E+02  5.04686E+03 -2.44738E+03  1.96027E+03 -3.63090E+03  3.88887E+02
 -1.13424E+03 -3.59797E+03  2.00087E+03 -2.69286E+03  3.03602E+03 -3.18268E+03  4.15455E+03  4.75223E+02
  7.69528E+02  2.32599E+03 -4.06710E+02  1.01675E+03 -1.70231E+02  1.97857E+03  2.19173E+03 -2.20864E+02
  2.23195E+03 -3.59039E+02  4.31949E+03  1.09878E+03  1.19185E+03  5.19531E+03 -6.25278E+02  5.47117E+03
 -4.97699E+03  4.37511E+03 -5.51459E+03  1.01922E+03 -5.34963E+03 -3.08850E+03 -2.12076E+03 -2.71270E+03
 -3.91831E+02 -2.14814E+03  2.15549E+03  7.92530E+02  2.56329E+03  2.14116E+03 -1.85662E+03  1.75790E+03
 -1.87882E+03  1.27632E+03 -3.33738E+03 -2.24167E+03 -2.23567E+03 -4.68837E+03  9.32477E+02 -4.25577E+03
  2.51471E+03 -2.70173E+03  2.56202E+03 -1.15230E+03  2.44063E+03  1.61496E+03  1.05466E+02  1.66783E+03
 -2.16617E+03  2.56819E+02 -1.91998E+03 -2.24999E+03  5.69572E+02 -4.33111E+03  2.97496E+03 -4.12972E+03
  4.01315E+03 -6.10294E+02  5.17943E+03  2.98586E+03  2.26773E+03  5.13235E+03 -1.38860E+03  4.77253E+03
 -3.93183E+03  1.78474E+03 -3.82583E+03 -9.97116E+02 -2.31749E+03 -3.53028E+03  9.95627E+02 -2.79930E+03
  3.23577E+03 -5.22435E+02  3.44089E+03  8.88579E+02  1.26884E+03  2.74764E+03 -9.17631E+01  2.49472E+03
 -7.29563E+02  2.84411E+03 -1.36438E+03 -5.84907E+02 -6.55137E+02  7.14012E+02 -1.96483E+03  2.10100E+03
 -8.47488E+02  8.99210E+02 -5.24140E+03  9.31467E+02 -4.78705E+03  2.76110E+02 -5.78126E+03 -2.72177E+03
 -2.37839E+03 -6.74946E+03  1.53767E+03 -6.12791E+03  3.58649E+03 -5.57659E+03  6.43896E+03 -3.47479E+03
  7.04475E+03  5.71208E+02  4.51550E+03  4.86661E+03 -8.23880E+02  4.98863E+03 -1.70612E+03  4.33727E+03
 -3.69834E+03  2.76523E+03 -6.79200E+02 -1.98068E+03 -3.46344E+01  9.75875E+02 -2.81474E+03 -1.56352E+02
 -8.45401E+02 -3.31809E+02 -1.72643E+03  3.84822E+02  2.68843E+02 -1.11192E+03 -5.17805E+01 -2.88276E+03
  8.73747E+02 -1.99994E+03  1.53729E+03  1.78558E+02  2.80010E+03  3.19720E+03  8.16226E+02  6.29423E+03
 -2.71430E+03  4.78909E+03 -5.85194E+03  2.43714E+03 -4.76799E+03 -6.56332E+02 -5.45348E+03 -3.74106E+03
 -1.64951E+03 -4.50386E+03  1.14337E+03 -3.60590E+03  3.72342E+03 -2.35320E+03  3.04114E+03 -6.49109E+02
  2.14218E+03  1.31503E+03  1.91272E+02  2.28790E+03 -5.25154E+02  1.08476E+03  1.07688E+03 -1.21913E+03
  1.60590E+03  8.15256E+02  1.59729E+03  1.35318E+03  1.39222E+03  1.93785E+03  1.91209E+03  1.13049E+03
 -2.80247E+03  2.68089E+03 -2.71563E+03  1.14424E+03 -3.29489E+03 -2.41561E+03 -1.01650E+03 -3.77146E+03
  2.65662E+03 -2.24974E+03  2.50634E+03 -1.61422E+03  3.48074E+03  2.48931E+02  2.34351E+03  2.24131E+03
  1.43404E+03  2.24560E+03 -1.83922E+03  3.21673E+03 -3.11306E+03  1.76726E+03 -4.74859E+02  1.03790E+03
 -1.99856E+03 -1.41341E+03 -9.45723E+02  4.97750E+02 -5.47251E+02  2.18455E+02 -7.85594E+02 -1.37303E+03
 -1.98156E+03 -5.06071E+02  6.56094E+02 -3.27130E+03  1.63833E+03 -4.07912E+03  2.49684E+03 -1.08918E+03
  2.26543E+03 -1.40909E+01  1.45154E+03  7.18183E+02  9.07547E+01  4.48008E+03 -1.56962E+03  1.49507E+03
