 $NMID ID='MM_0lb_SNR200_17hz_g60_21.RAW', FMTDAT='(8E13.5)'
 TRAMP=1., VOLUME=1. $END
  3.10240E+05  1.58689E+01  3.37933E+05  2.50882E+05  8.48435E+04  3.38405E+05 -1.32396E+05  2.51730E+05
 -1.90232E+05  8.40753E+04 -1.11134E+05 -3.38352E+04  1.77313E+03 -5.10764E+04  5.33079E+04 -7.68648E+02
  3.50380E+04  5.32549E+04 -1.67630E+04  7.60440E+04 -5.98412E+04  6.27866E+04 -8.30279E+04  3.19321E+04
 -8.13958E+04 -1.12407E+04 -5.62607E+04 -5.04894E+04 -1.48357E+04 -6.90108E+04  2.71009E+04 -4.70637E+04
  3.99296E+04  4.28473E+03  1.69970E+04  4.84299E+04 -3.49357E+04  4.65413E+04 -6.61401E+04 -1.45904E+03
 -5.30874E+04 -5.74817E+04 -6.53284E+03 -7.67720E+04  3.40052E+04 -5.44200E+04  4.86569E+04 -1.70170E+04
  4.29161E+04  1.20463E+04  3.35213E+04  2.48693E+04  1.54830E+04  2.90381E+04 -6.05035E+03  2.69968E+04
 -2.24320E+04  1.17689E+04 -1.97217E+04 -3.58083E+03  5.03400E+03 -7.75166E+03  2.14796E+04  1.20567E+04
  6.92124E+03  3.66088E+04 -3.09373E+04  3.49114E+04 -6.35490E+04  1.52295E+03 -5.71672E+04 -4.29397E+04
 -1.24415E+04 -6.27026E+04  3.89409E+04 -4.45611E+04  5.85316E+04 -9.92800E+02  3.37077E+04  3.18049E+04
 -6.50801E+03  3.70228E+04 -3.03953E+04  1.66684E+04 -2.93706E+04 -4.50093E+03 -1.62454E+04 -1.12218E+04
 -9.32147E+03 -1.26591E+04 -4.80244E+02 -1.77994E+04  6.43755E+03 -2.22110E+04  1.62943E+04 -1.31726E+04
  1.15323E+04  5.22800E+03 -6.61568E+03  1.20681E+04 -2.11514E+04 -4.51792E+03 -9.58366E+03 -3.42231E+04
  2.18548E+04 -4.14511E+04  4.79847E+04 -1.91573E+04  4.34573E+04  1.78918E+04  1.51057E+04  4.43252E+04
 -1.57260E+04  3.28173E+04 -2.50324E+04  3.38171E+02 -8.67232E+03 -2.66599E+04  2.01518E+04 -3.39842E+04
  4.05425E+04 -8.32360E+03  3.49890E+04  2.45905E+04  1.65038E+04  4.61273E+04 -8.19477E+03  4.91551E+04
 -3.00972E+04  3.20215E+04 -3.99780E+04  8.04089E+03 -4.10588E+04 -1.55960E+04 -2.31246E+04 -3.70228E+04
  7.55822E+03 -3.67390E+04  3.09948E+04 -1.38036E+04  2.89125E+04  1.04353E+04  3.82423E+03  1.79956E+04
 -1.38457E+04  7.98299E+03 -1.00943E+04 -7.10827E+03  5.44914E+03 -9.90599E+03  1.71356E+04  5.33673E+03
  1.35387E+04  2.17450E+04 -5.30422E+03  2.38755E+04 -2.29308E+04  1.16754E+04 -2.77157E+04 -6.56551E+03
 -1.86439E+04 -1.72963E+04 -7.53372E+03 -1.98973E+04  3.86384E+03 -1.76972E+04  1.57710E+04 -1.61364E+04
  2.55589E+04 -1.20962E+04  3.02954E+04  2.36201E+03  2.20563E+04  1.87211E+04  4.77306E+03  3.53599E+04
 -1.79034E+04  3.03988E+04 -2.65424E+04  1.06359E+04 -1.98103E+04 -8.91066E+03 -4.74203E+03 -1.37126E+04
  2.13581E+03 -3.86808E+03 -3.89611E+03  6.18223E+03 -1.59898E+04  5.15568E+03 -1.57246E+04 -6.11617E+03
 -1.02879E+04 -1.94533E+04  5.42776E+03 -2.29101E+04  1.50054E+04 -1.60187E+04  1.74740E+04 -1.17357E+03
  1.07740E+04  1.24475E+04 -2.82952E+02  1.82237E+04 -1.06247E+04  9.85748E+03 -1.88817E+04 -4.03722E+03
 -1.33628E+04 -1.73230E+04 -1.61690E+03 -2.05902E+04  1.01645E+04 -1.82372E+04  1.92081E+04 -9.22443E+03
  1.61124E+04  6.84247E+02  1.10224E+04  4.09659E+03  5.49297E+03  1.03838E+03  9.87544E+03 -1.24589E+03
  1.65571E+04  1.00065E+03  1.74332E+04  1.32034E+04  1.23597E+04  2.85004E+04 -2.77215E+03  3.22940E+04
 -1.92346E+04  2.63510E+04 -2.92021E+04  1.29339E+04 -2.91397E+04 -1.71073E+03 -2.57232E+04 -1.68098E+04
 -1.13122E+04 -2.55802E+04  8.10531E+03 -2.29693E+04  1.93753E+04 -1.23847E+04  1.72520E+04  5.43346E+03
  6.28447E+03  1.32235E+04 -9.63792E+03  1.21465E+04 -1.48024E+04  3.11055E+03 -1.09573E+04 -8.72414E+03
 -6.20698E+02 -1.42070E+04  7.00594E+03 -1.16710E+04  9.78495E+03 -5.98670E+02  2.26348E+03  5.52696E+03
 -6.27796E+03  3.13133E+03 -5.49249E+03 -5.28873E+03  5.63001E+01 -1.13092E+04  9.11242E+03 -1.23456E+04
  1.41212E+04 -7.10587E+03  1.60445E+04  2.30443E+03  1.20444E+04  1.29960E+04  5.99982E+03  1.88867E+04
 -2.45986E+03  1.92579E+04 -1.31471E+04  1.20769E+04 -1.41913E+04  2.79893E+03 -1.05740E+04 -2.20508E+03
 -5.72967E+03 -4.82209E+03 -1.47398E+03  1.98229E+03 -6.99701E+02  2.89310E+03 -5.53059E+03  4.36929E+03
 -1.02419E+04 -3.56066E+02 -1.01262E+04 -7.41706E+03 -4.89179E+03 -1.38308E+04  3.29284E+03 -1.06043E+04
  8.62583E+03 -3.51644E+03  5.14412E+03  2.94026E+03  3.31818E+02  3.49480E+03 -3.77810E+03 -1.95967E+02
 -5.81574E+03 -6.00439E+03 -1.35017E+03 -8.80373E+03  6.02429E+03 -9.78470E+03  1.26658E+04 -4.44432E+03
  1.37221E+04  2.32106E+03  1.08554E+04  7.79414E+03  1.93406E+03  1.09698E+04 -6.10228E+03  9.67764E+03
 -7.75813E+03  2.94278E+03 -5.36403E+03 -9.88296E+02  2.32422E+03 -3.13501E+03  5.24850E+03 -1.18762E+03
  4.89739E+03  4.72061E+03  1.10121E+03  7.68072E+03 -5.00361E+03  8.16706E+03 -9.85632E+03  2.25167E+03
 -6.65882E+03 -4.54894E+03  4.56186E+02 -8.75657E+03  5.03285E+03 -2.61717E+03  4.80166E+03  1.49186E+03
 -3.69436E+02  4.04840E+03 -4.77509E+03  6.98072E+03 -7.85765E+03  2.36650E+03 -6.21691E+03 -2.65255E+03
 -3.84490E+03 -7.33156E+03  2.20991E+03 -8.80333E+03  7.93235E+03 -5.99654E+03  9.20671E+03  1.46827E+03
  5.31739E+03  7.26062E+03 -4.46821E+02  9.47893E+03 -6.10683E+03  4.55714E+03 -7.20636E+03 -5.26232E+02
 -6.35616E+03 -6.59510E+03 -1.12238E+03 -6.17968E+03  3.34288E+03 -5.14227E+03  4.37533E+03 -4.07044E+03
  3.27016E+03  4.11852E+02 -5.79584E+02  8.75296E+02 -3.43881E+02  2.41817E+02  8.87063E+02 -2.51253E+03
  4.64311E+03 -2.86482E+03  7.91578E+03  2.26100E+03  7.18296E+03  3.43434E+03  6.87115E+03  1.07974E+04
 -2.32248E+03  1.20491E+04 -9.42086E+03  7.60572E+03 -1.15646E+04  1.16473E+03 -1.01139E+04 -3.45895E+03
 -5.30377E+03 -8.81812E+03 -1.60361E+03 -6.89693E+03  1.84522E+03 -2.81329E+03  1.96585E+03 -1.11129E+03
  2.29347E+03 -2.17637E+03  2.74941E+03 -2.64037E+03  4.40194E+03 -1.77476E+03  3.94638E+03  8.30784E+01
  6.05780E+03  1.65927E+03  1.05005E+03  4.81502E+03 -1.86249E+03  4.01354E+03 -4.91778E+03  4.15344E+03
 -6.79650E+03 -1.03746E+03 -2.49219E+03 -4.14564E+03  1.93604E+02 -6.91725E+03  4.54268E+03 -7.95220E+03
  7.63541E+03 -3.23649E+03  9.50881E+03  1.41805E+03  6.92312E+03  6.37926E+03  7.96267E+02  7.09905E+03
 -2.27236E+03  6.22515E+03 -4.59266E+03  2.08450E+03 -2.32037E+03 -1.96229E+03  2.63839E+02 -1.41052E+03
 -2.08089E+02 -2.13279E+01 -6.85050E+02  2.61380E+03 -2.14424E+03  5.56201E+02 -4.59491E+03  5.54372E+02
 -2.76270E+03 -4.37823E+03 -2.17737E+01 -5.57791E+03  3.86738E+03 -6.48049E+03  4.35082E+03 -1.80099E+03
  5.50662E+03  2.82947E+03  1.99013E+03  4.60504E+03 -8.42157E+02  5.78398E+03 -2.48954E+03  3.20949E+03
 -5.85784E+03  1.59440E+02 -4.15859E+03 -2.60160E+03 -1.58025E+01 -5.82463E+03  2.25417E+03 -3.82225E+03
  3.61144E+03 -7.59387E+02  2.25032E+03  1.84162E+03  1.36050E+03  1.93989E+03  6.28610E+02  3.56469E+02
  3.87672E+03  3.76337E+02  2.27531E+03  1.51206E+03  1.01447E+03  3.15397E+03  1.27431E+03  3.23544E+03
 -2.54694E+03  3.29011E+03 -4.72375E+03  4.72032E+03 -3.54782E+03  1.65905E+03 -4.74445E+03 -1.44992E+03
 -2.35147E+03 -5.01197E+03  4.23344E+01 -6.72466E+03  2.62547E+03 -3.69888E+03  3.71777E+03 -1.26184E+03
  2.34137E+03  3.05628E+03  1.07994E+03  3.03701E+03 -1.58943E+02  2.55758E+03 -1.78800E+03 -4.64943E+02
  4.51432E+02 -2.37142E+03  1.49713E+03 -1.93311E+03  1.75140E+03 -1.30715E+03  1.61843E+03  7.69503E+02
  2.46917E+03  7.14268E+02  2.19405E+02  8.09739E+01  3.94540E+02  6.74430E+02  1.04238E+03 -1.23168E+03
  5.00285E+02 -4.79519E+01  3.05092E+03  8.86630E+02  2.79789E+02  2.14869E+03 -2.58047E+02  4.24952E+03
 -2.29859E+03  2.90612E+03 -3.39173E+03  8.54014E+02 -3.28673E+03 -8.05393E+02 -1.90375E+02 -1.53714E+03
 -8.62793E+01 -1.93835E+03  1.58540E+03 -1.13096E+03  5.85645E+02  1.25711E+03 -1.64101E+03  1.51699E+03
 -1.64262E+03  7.89763E+02 -2.16194E+03 -1.35346E+03 -1.42008E+03 -2.27056E+03  1.38411E+03 -1.69790E+03
  2.39382E+02 -1.83753E+03  1.33888E+03  3.55602E-01  2.74201E+03 -1.35689E+02 -3.01345E+02  3.12055E+02
 -1.58591E+02  1.13287E+03 -1.41576E+03  1.15068E+02  9.08993E+02 -2.07675E+03  2.12658E+03 -8.59662E+02
  1.67967E+03  1.17609E+03  3.46284E+03  1.08674E+03  1.06107E+03  2.71101E+03 -7.34645E+02  2.95321E+03
 -3.09999E+03  4.27308E+01 -1.84554E+03 -7.70188E+02 -1.38333E+02 -1.62382E+03  1.68498E+03 -1.58952E+03
  1.17868E+03 -1.49724E+03  2.13220E+03  8.72652E+02  5.85781E+02  2.07260E+03  9.01066E+02  1.37929E+03
 -9.03387E+02  9.58094E+02 -8.63084E+02  4.65214E+02 -3.13619E+02  1.76812E+02 -1.65172E+03  1.28725E+03
 -8.28477E+02  1.30601E+03 -3.74890E+03  1.05312E+03 -3.03556E+03  4.71552E+02 -3.71686E+03 -7.41521E+02
 -1.28232E+03 -3.23125E+03  2.81303E+01 -3.67749E+03  9.68933E+02 -2.46644E+03  2.85052E+03 -1.75942E+03
  2.69520E+03  2.72176E+02  1.29870E+03  1.75419E+03 -1.92268E+02  2.42626E+03 -3.48017E+02  2.16021E+03
 -1.31858E+03  1.70448E+03 -8.97898E+02  9.80075E+01 -4.17003E+02  3.17465E+02 -7.17572E+02 -1.48400E+03
 -1.78065E+03  1.63512E+02 -1.69342E+03 -6.70090E+02 -9.61025E+02 -2.28205E+03 -2.57297E+02 -1.50032E+03
  1.07773E+03 -9.84420E+01  9.08355E+02  3.71367E+02  1.54207E+03  1.30856E+03  3.69203E+02  1.33361E+03
 -2.93010E+02  3.43053E+03 -2.13909E+03  2.36661E+03 -2.79026E+03 -4.66391E+02 -8.14970E+02 -1.05519E+03
  5.35536E+02 -2.16248E+03  7.37289E+02 -1.48192E+03  7.44089E+02 -1.25017E+03  2.17379E+03  2.79946E+02
  1.84131E+03  5.36377E+02  7.28100E+02 -5.63767E+02  2.37147E+02  7.95664E+02  3.78976E+02 -3.16508E+02
  1.31459E+03 -1.27070E-01  1.13313E+03  1.17079E+03  4.07644E+02  2.09382E+03  2.69385E+02  4.59850E+02
 -3.45577E+02  1.40335E+03 -4.80701E+02  3.97715E+02 -5.89210E+02 -1.60396E+02 -1.11411E+02 -8.37778E+02
  4.09438E+02 -1.68678E+03  1.74600E+03 -2.31148E+02  8.06117E+02 -6.19226E+02  6.66627E+02  1.42577E+03
  2.04727E+02  3.75060E+02 -5.22106E+02 -6.02549E+02 -7.46502E+02  3.65576E+02 -2.81668E+02  2.42471E+02
  1.16489E+03  3.08887E+02 -1.72283E+03  4.13717E+02 -1.36776E+03 -1.07336E+03 -9.69580E+02  3.22177E+02
 -1.04710E+03 -1.61588E+02  1.10571E+03 -1.52918E+03  2.52476E+02 -2.09870E+03  1.29688E+03  3.46562E+02
  1.31803E+03  3.57166E+02 -2.15174E+03  7.56342E+02  1.15121E+03  1.43875E+03 -1.91310E+02  1.20506E+03
