 $NMID ID='MM_0lb_SNR200_16hz_g50_3.RAW', FMTDAT='(8E13.5)'
 TRAMP=1., VOLUME=1. $END
  3.10346E+05 -2.10301E+02  3.37458E+05  2.51328E+05  8.35043E+04  3.37698E+05 -1.31776E+05  2.50452E+05
 -1.89744E+05  8.27568E+04 -1.11357E+05 -3.24150E+04  1.70929E+03 -5.03185E+04  5.44344E+04 -4.06714E+02
  3.68431E+04  5.31951E+04 -1.70093E+04  7.58655E+04 -6.04086E+04  6.34619E+04 -8.28095E+04  3.24092E+04
 -8.07819E+04 -1.06840E+04 -5.62794E+04 -5.17174E+04 -1.32542E+04 -6.87213E+04  2.76195E+04 -4.58032E+04
  4.01948E+04  3.11084E+03  1.50386E+04  4.73996E+04 -3.57180E+04  4.63320E+04 -6.54658E+04  2.56042E+02
 -5.34065E+04 -5.67044E+04 -7.56539E+03 -7.69890E+04  3.46498E+04 -5.42614E+04  4.83407E+04 -1.67385E+04
  4.20976E+04  1.07918E+04  3.28909E+04  2.50557E+04  1.51681E+04  2.92921E+04 -5.50574E+03  2.64530E+04
 -2.24114E+04  1.18230E+04 -1.91499E+04 -4.33014E+03  4.12462E+03 -7.88106E+03  2.16869E+04  1.10464E+04
  7.11251E+03  3.37377E+04 -3.26094E+04  3.56252E+04 -6.31498E+04  2.14848E+03 -5.68906E+04 -4.22757E+04
 -1.22932E+04 -6.29474E+04  3.86340E+04 -4.41199E+04  5.67112E+04 -2.16814E+03  3.47038E+04  3.14069E+04
 -6.60593E+03  3.61475E+04 -2.92601E+04  1.51222E+04 -2.84857E+04 -4.68475E+03 -1.54095E+04 -9.44937E+03
 -6.96020E+03 -1.23642E+04 -8.26115E+02 -1.71609E+04  6.29144E+03 -2.27058E+04  1.52734E+04 -1.29563E+04
  1.14762E+04  5.55025E+03 -7.87355E+03  1.36886E+04 -2.03253E+04 -2.92806E+03 -8.72488E+03 -3.16359E+04
  2.17898E+04 -4.24001E+04  4.75568E+04 -1.97416E+04  4.40454E+04  2.04777E+04  1.58453E+04  4.40333E+04
 -1.47713E+04  3.33858E+04 -2.52051E+04  1.04166E+03 -9.45191E+03 -2.81755E+04  2.15399E+04 -3.27343E+04
  4.05603E+04 -7.53699E+03  3.38267E+04  2.31572E+04  1.76950E+04  4.39145E+04 -7.29775E+03  4.84240E+04
 -3.08036E+04  3.07059E+04 -4.13278E+04  9.71804E+03 -4.13057E+04 -1.46011E+04 -2.22751E+04 -3.77115E+04
  7.06684E+03 -3.61354E+04  3.09158E+04 -1.41623E+04  2.87887E+04  1.09797E+04  3.13257E+03  1.88137E+04
 -1.37361E+04  6.82810E+03 -9.24252E+03 -7.42084E+03  6.08543E+03 -9.68093E+03  1.75616E+04  6.21540E+03
  1.23413E+04  2.11900E+04 -5.67218E+03  2.41449E+04 -2.31848E+04  1.08789E+04 -2.69061E+04 -4.97260E+03
 -1.95063E+04 -1.72329E+04 -8.70964E+03 -1.94866E+04  4.33462E+03 -1.84226E+04  1.46497E+04 -1.63916E+04
  2.32511E+04 -1.19237E+04  3.16110E+04  2.24392E+03  2.32076E+04  1.81661E+04  3.63630E+03  3.52031E+04
 -1.76436E+04  2.91266E+04 -2.75328E+04  1.05499E+04 -2.07471E+04 -9.72204E+03 -4.00475E+03 -1.37362E+04
  2.03989E+03 -2.38024E+03 -3.49995E+03  7.10030E+03 -1.38235E+04  5.54039E+03 -1.61983E+04 -5.30180E+03
 -8.88825E+03 -1.79976E+04  4.50791E+03 -2.14159E+04  1.47216E+04 -1.44872E+04  1.67713E+04 -1.89264E+03
  1.10811E+04  1.23331E+04 -1.94453E+03  1.83395E+04 -1.07573E+04  1.03565E+04 -1.74492E+04 -2.53384E+03
 -1.29488E+04 -1.53810E+04 -1.17468E+03 -2.12122E+04  1.09162E+04 -1.77187E+04  1.86675E+04 -9.61465E+03
  1.73915E+04 -1.24496E+02  1.21570E+04  4.12703E+03  5.25063E+03  2.24968E+03  8.45644E+03 -2.61074E+02
  1.71519E+04  2.67666E+03  1.64991E+04  1.45385E+04  1.07226E+04  2.85472E+04 -2.79640E+03  3.17389E+04
 -1.85691E+04  2.45535E+04 -2.88553E+04  1.19349E+04 -3.04260E+04 -3.23407E+03 -2.47616E+04 -1.76685E+04
 -1.08587E+04 -2.53930E+04  8.41475E+03 -2.12494E+04  1.93703E+04 -1.33417E+04  1.79266E+04  3.88787E+03
  7.20097E+03  1.34125E+04 -8.34660E+03  1.20815E+04 -1.44282E+04  3.12586E+03 -1.12627E+04 -1.00317E+04
  8.80576E+02 -1.45521E+04  6.73928E+03 -1.05108E+04  8.15280E+03 -1.74298E+03  2.36658E+03  5.71039E+03
 -6.01312E+03  7.73081E+02 -5.25614E+03 -5.73031E+03 -2.80620E+02 -1.08691E+04  7.64755E+03 -1.12868E+04
  1.43222E+04 -5.58414E+03  1.54859E+04  2.92532E+03  1.35581E+04  1.21734E+04  5.56360E+03  1.88426E+04
 -2.41142E+03  1.93682E+04 -1.23839E+04  1.29063E+04 -1.30183E+04  3.72113E+03 -9.65191E+03 -2.97695E+03
 -5.73429E+03 -2.56929E+03 -1.70161E+03  1.93939E+03 -1.82165E+03  2.18338E+03 -3.91894E+03  3.80943E+03
 -8.70947E+03 -2.21915E+03 -9.66964E+03 -7.30764E+03 -5.35128E+03 -1.33829E+04  4.58413E+03 -9.42838E+03
  9.53442E+03 -5.36063E+03  7.22210E+03  2.19447E+03  4.51362E+02  3.89744E+03 -5.09883E+03  7.73204E+01
 -4.15908E+03 -5.82916E+03 -7.00029E+02 -8.51169E+03  6.41448E+03 -1.02453E+04  1.18144E+04 -4.49752E+03
  1.43441E+04  1.18910E+03  1.08061E+04  7.54302E+03  2.48372E+03  1.04212E+04 -6.57251E+03  9.64445E+03
 -7.65895E+03  3.89108E+03 -3.15119E+03 -1.90690E+03  1.48777E+03 -2.43348E+03  6.14490E+03 -9.97662E+02
  4.71838E+03  3.82075E+03 -2.42792E+02  6.89852E+03 -5.38346E+03  8.09372E+03 -1.03110E+04  1.52410E+03
 -6.32548E+03 -4.65021E+03  1.76879E+02 -8.47475E+03  5.22908E+03 -3.76305E+03  5.01480E+03  5.56637E+02
  3.18396E+02  4.30956E+03 -4.86535E+03  6.22973E+03 -6.51027E+03  2.70855E+03 -6.61879E+03 -1.55566E+03
 -4.46722E+03 -8.87118E+03  2.73595E+03 -1.01977E+04  6.51809E+03 -5.86221E+03  7.98270E+03  1.18269E+03
  5.69690E+03  7.45053E+03 -5.27661E+01  8.23379E+03 -6.69130E+03  5.03284E+03 -7.52550E+03 -4.77087E+02
 -6.92326E+03 -5.86141E+03 -2.33671E+03 -6.00671E+03  3.43071E+03 -5.04584E+03  4.13644E+03 -2.16713E+03
  3.88295E+03  1.51747E+03  1.41479E+03  9.51454E+02  1.65493E+03 -8.12034E+02  8.57125E+02 -2.71801E+03
  4.68417E+03 -2.61489E+03  7.32749E+03  3.67201E+02  7.83779E+03  4.96490E+03  6.49780E+03  9.96138E+03
 -1.95137E+03  1.14932E+04 -1.01153E+04  7.85760E+03 -1.33921E+04  2.78308E+03 -1.02545E+04 -4.40776E+03
 -5.41325E+03 -8.14051E+03 -8.36655E+02 -7.07705E+03  2.08416E+03 -3.40910E+03  2.58789E+03 -2.21972E+03
  1.38030E+03 -2.08460E+03  1.88932E+03 -2.00865E+03  3.86816E+03 -1.66504E+03  5.31115E+03  7.31674E+01
  6.28058E+03  1.10660E+03  8.93011E+02  4.60854E+03 -9.54394E+02  4.00969E+03 -5.26891E+03  4.27386E+03
 -6.47377E+03 -9.23275E+02 -3.39718E+03 -4.99896E+03 -4.02288E+02 -6.40328E+03  3.55232E+03 -7.00425E+03
  7.11901E+03 -3.34109E+03  8.46486E+03  8.83484E+02  8.18121E+03  5.27839E+03  3.52403E+02  7.48032E+03
 -3.08892E+03  7.69173E+03 -5.24349E+03  2.31796E+03 -1.68714E+03 -1.92629E+03 -4.97985E+02 -3.94668E+01
 -1.09867E+03  1.65740E+03 -8.30615E+02  2.15590E+03 -3.30419E+03  1.87959E+03 -6.07541E+03  3.96547E+02
 -2.95742E+03 -5.09738E+03  1.13756E+03 -6.69911E+03  3.76256E+03 -5.39688E+03  6.14621E+03 -1.87185E+03
  6.14982E+03  2.60933E+03  2.39193E+03  4.87565E+03 -1.10688E+03  5.25246E+03 -3.68554E+03  2.98831E+03
 -5.71859E+03  1.02154E+03 -4.54604E+03 -3.24315E+03 -6.31286E+02 -5.52437E+03  3.02237E+03 -4.48884E+03
  3.73927E+03 -2.50317E+03  2.46569E+03  1.93637E+03  4.62448E+02  2.00460E+03  9.08580E+02  9.86509E+02
  2.81078E+03  7.72590E+02  1.91476E+03  1.60568E+03  7.27367E+00  2.99222E+03  1.64835E+03  3.60607E+03
 -1.61359E+03  5.63552E+03 -2.53879E+03  5.32187E+03 -4.77152E+03  1.99498E+03 -5.53725E+03 -1.42365E+03
 -3.15889E+03 -5.61679E+03  2.23225E+02 -6.22230E+03  3.21883E+03 -3.18979E+03  3.16892E+03 -7.12236E+02
  2.04246E+03  2.43034E+03  2.83154E+02  2.74690E+03 -5.85368E+02  1.91449E+03 -1.66827E+03 -8.01681E+02
 -4.29541E+02 -1.47192E+03  2.46111E+03 -3.25627E+03  2.87142E+03 -6.27541E+02  1.76280E+03  1.17476E+03
  1.29862E+03  5.23052E+01  8.97363E+02  2.23055E+02  9.38663E+02  1.66077E+03  1.65774E+03 -1.50197E+02
  9.36008E+02 -1.87507E+02  2.74671E+03  8.68252E+02  2.01742E+02  3.06900E+03 -9.37639E+02  5.34814E+03
 -3.24015E+03  1.27061E+03 -3.03866E+03  1.51269E+03 -3.04634E+03 -1.12646E+03 -5.80398E+02 -2.05016E+03
  5.24944E+02 -1.97082E+03  7.96143E+02 -6.34132E+02  2.20227E+03  1.55565E+03 -1.65273E+03  2.18325E+03
 -2.93303E+03  1.71160E+03 -1.25758E+03 -2.19793E+03 -1.31701E+03 -2.58601E+03  1.33811E+01 -2.80435E+03
  2.16095E+02 -9.01069E+02  7.22394E+02 -1.22863E+02  2.66767E+03  1.70822E+03 -4.07600E+02  6.49047E+02
 -9.76447E+02 -2.96545E+02 -1.33055E+03 -6.16612E+02  9.58332E+02 -2.44110E+03  1.17160E+03 -1.66040E+03
  2.65042E+03 -4.86390E+02  5.20241E+03  8.98977E+02  1.82067E+03  2.45814E+03 -1.96274E+02  3.61287E+03
 -1.16155E+03  1.36542E+03 -3.22719E+03  6.22513E+00 -2.13118E+03 -2.14962E+03  1.05606E+03 -6.97681E+02
  1.35260E+03 -1.14686E+03  1.00045E+03  1.57964E+03 -6.80375E+02  1.61729E+03 -2.66944E+02  2.38500E+03
  2.65975E+02  1.38344E+03 -9.51070E+02 -1.45333E+02  3.74675E+02  9.84225E+02 -8.49344E+02  7.01015E+02
 -1.32092E+03  1.01511E+03 -2.44649E+03  9.45598E+02 -2.16471E+03 -2.03287E+02 -4.29671E+03 -1.43431E+03
 -1.28880E+03 -3.83830E+03  1.36775E+03 -4.38062E+03  1.05567E+03 -4.05007E+03  4.00525E+03 -1.12888E+03
  4.50611E+03 -5.02542E+02  1.90175E+03  1.93174E+03  3.26183E+01  2.08850E+03 -1.18528E+03  2.98743E+03
 -2.15530E+03  1.96435E+03 -8.58402E+02 -2.87859E+02  3.10704E+02 -6.92156E+02  5.02430E+02 -1.11687E+02
 -2.00880E+03 -1.21015E+02 -1.16913E+03  4.10193E+02  2.29039E+02 -1.12660E+03  2.00184E+02 -2.69536E+03
  1.41027E+03 -2.06712E+03  6.71146E+02  2.65923E+02  2.80509E+03  2.80186E+02  5.47284E+01  2.39344E+03
 -1.19188E+03  3.06948E+03 -3.01066E+03  2.57571E+03 -3.46857E+03 -1.72024E+02 -1.87004E+03 -2.08028E+03
 -8.16328E+02 -2.31622E+03  3.99138E+02 -1.49794E+03  1.18274E+03 -1.62819E+03  9.48028E+02 -9.71194E+02
  1.93354E+03  2.78418E+02 -2.80842E+02  1.28009E+03 -4.64739E+02  1.50014E+02 -1.17879E+03  2.03142E+02
  2.71837E+02  5.48479E+02  7.32434E+02  1.68425E+03  8.90362E+02 -2.91316E+02 -3.11224E+02 -9.47213E+01
 -7.18631E+02  4.48207E+02 -1.48729E+03  8.34961E+02 -4.33157E+02 -2.30546E+03  9.99243E+02 -3.12597E+03
  1.72659E+03 -2.05286E+03  1.95903E+03  3.88525E+02  1.23774E+03 -5.48743E+02  1.63539E+03  2.52320E+03
  5.60459E+02  4.98955E+02 -1.26378E+03  1.87990E+03  1.91704E+02  9.25739E+02 -1.11934E+03 -1.49692E+02
  8.42966E+02 -9.21831E+02 -1.40528E+03 -3.34090E+02 -8.49148E+02  1.21908E+03 -2.05165E+03  7.62809E+02
 -1.77850E+03 -3.60715E+02  5.36120E+02 -1.51401E+03  1.03914E+03 -2.56549E+03  1.30892E+03  3.46388E+02
  1.68175E+03  1.45800E+03 -1.36650E+02  5.99080E+02  6.78472E+02  3.17103E+03 -1.03224E+03  9.70680E+02
