 $NMID ID='MM_0lb_SNR200_20hz_g40_18.RAW', FMTDAT='(8E13.5)'
 TRAMP=1., VOLUME=1. $END
  3.10510E+05  1.14011E+03  3.36725E+05  2.49380E+05  8.46636E+04  3.36673E+05 -1.31928E+05  2.50256E+05
 -1.89403E+05  8.34062E+04 -1.09904E+05 -3.20670E+04  1.80272E+03 -4.92495E+04  5.41755E+04  1.17257E+03
  3.40714E+04  5.28511E+04 -1.59244E+04  7.45951E+04 -5.96674E+04  6.14595E+04 -8.24389E+04  3.18227E+04
 -7.86333E+04 -1.07160E+04 -5.65534E+04 -5.01425E+04 -1.46938E+04 -6.83990E+04  2.66165E+04 -4.44072E+04
  3.87400E+04  4.39297E+03  1.45257E+04  4.66850E+04 -3.30931E+04  4.67673E+04 -6.45970E+04 -2.17770E+02
 -5.08415E+04 -5.60275E+04 -6.16232E+03 -7.31971E+04  3.24403E+04 -5.16549E+04  4.57778E+04 -1.53712E+04
  4.07938E+04  1.00010E+04  3.03653E+04  2.40615E+04  1.61326E+04  2.72268E+04 -3.80687E+03  2.58343E+04
 -2.05829E+04  1.37986E+04 -1.91229E+04 -4.54094E+03  4.48626E+03 -7.76572E+03  1.93086E+04  9.50271E+03
  8.60389E+03  3.22772E+04 -2.90265E+04  3.35851E+04 -5.96759E+04  3.06902E+03 -5.44975E+04 -4.08714E+04
 -1.27349E+04 -6.00492E+04  3.75065E+04 -4.16719E+04  5.45825E+04 -2.40542E+03  3.02798E+04  3.02551E+04
 -7.43234E+03  3.13030E+04 -2.76424E+04  1.30838E+04 -2.58293E+04 -5.46421E+03 -1.28928E+04 -1.03968E+04
 -7.37746E+03 -1.08704E+04 -1.11785E+03 -1.60115E+04  6.28442E+03 -2.29841E+04  1.55895E+04 -1.40622E+04
  1.20291E+04  3.86534E+03 -4.92178E+03  1.25199E+04 -1.85299E+04 -1.11163E+03 -7.92345E+03 -2.91028E+04
  1.99583E+04 -3.87178E+04  4.35572E+04 -1.69055E+04  3.96803E+04  1.82201E+04  1.48626E+04  4.08821E+04
 -1.54676E+04  2.87525E+04 -2.28422E+04  9.31678E+02 -7.37588E+03 -2.66680E+04  2.14310E+04 -3.00573E+04
  3.66769E+04 -6.67723E+03  2.87497E+04  2.23023E+04  1.34545E+04  3.99957E+04 -6.78062E+03  4.27086E+04
 -2.73614E+04  2.65368E+04 -3.47777E+04  8.46035E+03 -3.63842E+04 -1.40721E+04 -2.01035E+04 -3.26974E+04
  6.67268E+03 -3.24810E+04  2.80911E+04 -1.17836E+04  2.55706E+04  1.04114E+04  1.61999E+03  1.70655E+04
 -1.27018E+04  7.12879E+03 -8.31746E+03 -8.13000E+03  7.01797E+03 -1.00917E+04  1.71880E+04  7.78611E+03
  1.19249E+04  2.19879E+04 -7.18806E+03  2.20558E+04 -2.18192E+04  7.70183E+03 -2.38777E+04 -6.24948E+03
 -1.50317E+04 -1.53790E+04 -3.51208E+03 -1.48419E+04  4.27153E+03 -1.27055E+04  1.19824E+04 -1.26942E+04
  2.01186E+04 -1.08537E+04  2.58240E+04  2.91193E+01  2.01186E+04  1.53306E+04  4.32685E+03  3.03996E+04
 -1.52247E+04  2.67947E+04 -2.56013E+04  9.15021E+03 -1.94254E+04 -1.08820E+04 -4.15576E+03 -1.46501E+04
  3.92579E+03 -3.96672E+03 -1.26604E+03  5.04422E+03 -1.22500E+04  5.03008E+03 -1.29671E+04 -3.73811E+03
 -8.26447E+03 -1.31247E+04  4.04752E+03 -1.80410E+04  1.20686E+04 -1.38189E+04  1.23077E+04 -1.16744E+03
  7.94426E+03  9.59151E+03 -1.95118E+02  1.43783E+04 -9.70040E+03  7.61671E+03 -1.40996E+04 -3.44829E+03
 -1.14148E+04 -1.21896E+04 -1.57534E+03 -1.67538E+04  8.37778E+03 -1.38624E+04  1.50360E+04 -7.33737E+03
  1.23634E+04  6.22647E+02  9.94756E+03  3.00311E+03  4.99739E+03  2.80562E+02  6.68029E+03 -4.52523E+02
  1.27406E+04  2.57191E+03  1.27345E+04  1.10339E+04  8.90921E+03  2.21622E+04 -2.91307E+03  2.38960E+04
 -1.44575E+04  1.76217E+04 -2.12210E+04  8.53390E+03 -2.12374E+04 -1.54571E+03 -1.83692E+04 -1.25636E+04
 -9.49755E+03 -1.77884E+04  4.94099E+03 -1.70854E+04  1.48472E+04 -1.06020E+04  1.32454E+04  3.73298E+03
  5.79097E+03  9.88039E+03 -6.15766E+03  9.23095E+03 -1.24817E+04  2.20691E+03 -9.75154E+03 -8.02122E+03
 -4.55760E+02 -1.06855E+04  5.49023E+03 -8.93300E+03  6.53162E+03 -1.10818E+03  4.13884E+02  4.27967E+03
 -3.95002E+03 -1.04371E+02 -3.38472E+03 -3.90421E+03  1.53962E+03 -8.42644E+03  6.03312E+03 -8.60130E+03
  1.01686E+04 -3.85162E+03  1.02241E+04  3.46858E+03  8.57899E+03  8.11138E+03  4.53881E+03  1.16296E+04
 -5.77420E+02  1.39806E+04 -7.78647E+03  8.24117E+03 -8.96963E+03  2.39017E+03 -7.07061E+03 -4.62873E+02
 -5.21497E+03 -2.98906E+03 -1.62219E+03  1.88119E+03 -1.88459E+03  5.72474E+02 -3.04247E+03  3.59809E+03
 -7.91331E+03 -4.94390E+02 -7.78182E+03 -6.61934E+03 -2.81369E+03 -9.76426E+03  3.55388E+03 -7.39395E+03
  6.73161E+03 -2.82548E+03  5.15633E+03  8.56629E+02 -4.75221E+01  3.03682E+03 -2.22784E+03 -1.65647E+01
 -2.21890E+03 -3.80251E+03 -5.02595E+01 -6.41323E+03  3.47803E+03 -6.03002E+03  9.19588E+03 -3.91555E+03
  1.10088E+04 -9.26097E+02  7.89814E+03  5.39359E+03  1.90521E+03  7.64315E+03 -5.22488E+03  6.12053E+03
 -6.48625E+03  2.46297E+03 -3.50497E+03 -4.67266E+02  1.73826E+02 -1.07516E+03  4.19838E+03 -8.17369E+02
  4.35775E+03  2.87171E+03 -4.75758E+01  5.25553E+03 -3.07405E+03  6.63911E+03 -6.99748E+03  1.47345E+03
 -4.02174E+03 -2.38557E+03  6.18767E+02 -5.24525E+03  3.16676E+03 -2.97730E+03  2.88096E+03  9.77501E+02
  1.26177E+02  2.03957E+03 -3.15993E+03  3.40828E+03 -3.13228E+03  2.68116E+03 -4.17307E+03 -1.02710E+03
 -8.96991E+02 -3.52955E+03  6.63390E+02 -4.97896E+03  5.36187E+03 -3.55773E+03  5.56710E+03  5.24958E+02
  4.39406E+03  4.78308E+03  1.09682E+03  6.97385E+03 -4.48390E+03  3.01412E+03 -3.28135E+03  2.94364E+01
 -5.08687E+03 -5.17877E+03 -1.86333E+03 -4.10007E+03  2.71069E+03 -4.56678E+03  2.16243E+03 -2.91797E+03
  2.14675E+03  1.31577E+02  8.94102E+02  3.45778E+02  1.17723E+03 -6.95636E+02 -1.16080E+03 -5.10898E+02
  2.87293E+03 -9.09323E+02  4.58258E+03  4.61740E+02  4.46047E+03  2.06161E+03  4.23507E+03  5.40351E+03
 -4.83233E+02  5.93922E+03 -6.60326E+03  5.45833E+03 -8.23805E+03  6.85328E+02 -5.71228E+03 -2.35808E+03
 -2.49687E+03 -5.42167E+03 -1.45977E+02 -4.45343E+03  1.91067E+03 -1.40147E+03  1.75111E+03 -1.93543E+03
  1.29471E+03 -2.04178E+03  2.08520E+03 -1.70687E+03  3.00189E+03 -1.82614E+03  2.44162E+03  1.33596E+03
  3.90526E+03  1.00635E+03  8.96239E+02  2.25737E+03 -1.76960E+03  2.30252E+03 -2.37325E+03  1.78962E+03
 -4.20627E+03 -1.55539E+03 -8.13109E+02 -2.34942E+03 -4.43137E+02 -4.56827E+03  3.05180E+03 -4.46943E+03
  4.27527E+03 -3.13289E+03  6.20364E+03 -3.86259E+02  4.65772E+03  3.66956E+03  7.91946E+02  4.91527E+03
 -8.80899E+02  5.11602E+03 -3.01773E+03  2.86612E+03 -2.01896E+03  2.76320E+02  2.85419E+02 -1.37280E+02
 -1.04552E+03  7.94114E+02 -4.35567E+02  1.42837E+03 -1.49868E+03  1.23956E+03 -4.15366E+03 -8.56919E+01
 -1.96131E+03 -3.12622E+03  6.03937E+02 -3.65922E+03  1.68559E+03 -3.32429E+03  1.91295E+03 -9.54438E+02
  2.72598E+03  1.91449E+03  1.86772E+03  3.05822E+03  3.71970E+02  2.95835E+03 -1.50339E+03  1.96146E+03
 -3.50658E+03  8.79163E+02 -3.33817E+03 -1.64186E+03 -1.55893E+02 -1.50362E+03  1.06030E+03 -1.01644E+03
  1.99166E+03 -9.27184E+02  1.37806E+03  1.54130E+02 -4.15185E+02  1.69647E+03  6.97909E+02  6.15944E+02
  9.12687E+02  4.05056E+02  1.21225E+03  1.12761E+03  5.05745E+02  2.12684E+03  1.68973E+03  1.51605E+03
 -1.70623E+03  2.21319E+03 -2.50954E+03  2.61490E+03 -2.29067E+03  1.66171E+03 -3.44403E+03  2.07512E+02
 -5.89685E+02 -3.50643E+03  5.31492E+02 -4.02334E+03  2.63470E+02 -1.85657E+03  1.75037E+03 -8.07339E+02
  1.76562E+03  4.27840E+02  1.01150E+03  2.17709E+03 -7.83995E+02  2.15147E+02 -5.23834E+02  2.00319E+02
 -2.94075E+02 -1.40671E+03  1.26231E+03 -2.20539E+03  4.00604E+02 -7.27425E+02  9.40373E+02 -2.47320E+01
  1.82047E+02  3.65419E+02  4.54931E+02 -8.87727E+02  9.64623E+00 -2.55571E+02  1.91434E+03 -4.82361E+02
  4.55688E+02 -1.60648E+01  2.01129E+03  1.20228E+03  4.72116E+02  1.67766E+03 -6.91157E+02  2.17932E+03
 -1.45240E+03 -1.04619E+02 -1.22405E+03  3.95648E+02 -2.27581E+03  1.42272E+02  4.94340E+02 -6.29000E+02
  4.77321E+02 -9.19303E+02  2.97047E+02 -1.50658E+02  3.38087E+02  1.92840E+03 -1.80727E+03  7.47921E+02
 -6.01177E+02  6.94639E+02 -9.68338E+02 -2.18753E+03 -6.84904E+02 -1.64988E+03  6.98928E+02 -1.55041E+03
 -1.84167E+02 -2.45245E+02 -9.24496E+01  2.47516E+02  9.63843E+02 -1.92331E+02  7.43064E+02 -2.24457E+02
 -6.22477E+02 -1.62035E+02 -2.58501E+02 -6.91206E+02  5.33900E+01 -1.31901E+03  1.58563E+03 -3.99661E+02
 -3.51496E+02 -4.27978E+01  2.37327E+03  8.63021E+02  1.07260E+03  1.36101E+03  5.60430E+02  1.34744E+03
 -8.77268E+02 -3.76893E+02 -4.51850E+02  4.04033E+02 -4.26308E+01  2.11466E+02  5.56392E+02 -4.76013E+01
  1.15822E+03  1.03774E+02  6.16118E+02  1.21896E+03 -3.57216E+02  2.36052E+02  1.09140E+03  1.15068E+03
 -4.37974E+02  7.63883E+02 -3.11896E+02  2.69309E+02  1.36371E+02  1.79592E+03  1.78662E+00 -8.06460E+01
 -4.05433E+02  1.06165E+03 -1.24097E+03  4.61365E+02 -9.04304E+02  9.79505E+02 -2.11340E+03 -1.28612E+03
 -3.38533E+02 -1.79889E+03  8.36556E+02 -2.20050E+03  6.05117E+02 -2.14262E+03  2.39042E+03 -1.81552E+03
  2.14468E+03  1.95820E+02  1.65180E+03  3.91487E+02 -1.73296E+02  1.63682E+03 -4.49840E+02  3.82863E+02
 -5.77899E+01  9.51347E+01  2.14779E+02  3.11242E+02 -6.93610E+02  2.88966E+02 -8.42206E+02  8.54953E+02
 -1.76347E+03  4.20369E+02 -6.31789E+02 -3.26579E+02  3.13408E+02 -4.25897E+02 -6.15347E+01 -4.53283E+02
 -3.96626E+02 -6.01791E+02  8.96009E+02  7.26056E+02  6.73757E+02  1.45085E+03 -9.59364E+02  1.49720E+03
 -7.54860E+02  1.86231E+03 -2.18513E+02  1.16669E+03 -1.44201E+03  2.06040E+01 -1.20584E+03 -5.78916E+02
 -1.28856E+03 -1.23156E+03  7.27424E+02  7.07877E+02  3.56390E+02 -1.57359E+02  6.73162E+02 -5.76397E+02
  9.14179E+02  1.61482E+02  6.11574E+02 -3.11989E+02 -4.97105E+02  3.64277E+02  1.07302E+02  7.81958E+02
  2.88426E+02  1.00330E+03  1.02805E+03  3.85220E+01  7.00734E+02  6.15104E+02  8.34518E+02 -4.77926E+02
 -3.00916E+02  1.62506E+03  4.54068E+01  3.47984E+02 -1.24432E+03  2.78045E+02 -1.12726E+01 -8.66736E+02
 -4.58637E+02 -1.90404E+02  1.09227E+02  5.50700E+01  1.68760E+03 -4.38599E+02  4.00990E+02 -2.02024E+02
  1.07438E+03  5.00692E+02 -1.20894E+03  2.48266E+02 -3.56684E+02  1.29876E+03  1.25342E+02  2.91210E+02
  5.19947E+02  1.94590E+02 -4.79863E+02 -8.91881E+00 -5.25685E+00 -2.86424E+01  4.27946E+01 -5.22402E+02
 -1.13174E+03  3.47000E+01 -4.19989E+02 -1.04306E+03  1.13242E+03 -9.47734E+02  1.26754E+03  5.43212E+02
  2.56251E+02  5.42304E+02  9.10459E+01 -8.97489E+01  8.53504E+02  1.25828E+03 -6.40162E+02  8.58417E+02
