 $NMID ID='MM_0lb_SNR200_7hz_g40_69.RAW', FMTDAT='(8E13.5)'
 TRAMP=1., VOLUME=1. $END
  3.10366E+05  2.68633E+03  3.37413E+05  2.50216E+05  8.36016E+04  3.37340E+05 -1.33563E+05  2.52637E+05
 -1.90187E+05  8.28257E+04 -1.12572E+05 -3.22514E+04  1.16052E+03 -5.21646E+04  5.15018E+04 -2.24785E+02
  3.56709E+04  5.36643E+04 -1.65077E+04  7.61863E+04 -6.27938E+04  6.53124E+04 -8.50058E+04  3.17916E+04
 -8.34371E+04 -1.21436E+04 -5.81928E+04 -5.19372E+04 -1.48538E+04 -7.31272E+04  2.80462E+04 -4.77902E+04
  4.22197E+04  1.10214E+03  1.87671E+04  4.80724E+04 -3.32681E+04  4.76893E+04 -6.80775E+04  2.76084E+02
 -5.62675E+04 -5.85251E+04 -8.14203E+03 -8.02689E+04  3.48244E+04 -5.87402E+04  4.90973E+04 -1.99460E+04
  4.52434E+04  1.07817E+04  3.21799E+04  2.69854E+04  1.73945E+04  2.94605E+04 -7.29666E+03  2.77444E+04
 -2.21661E+04  1.22038E+04 -1.63838E+04 -5.37464E+03  8.17226E+03 -8.23583E+03  2.25014E+04  1.24395E+04
  5.37315E+03  3.74087E+04 -3.42601E+04  3.64060E+04 -6.73224E+04  1.25090E+03 -6.04751E+04 -4.44869E+04
 -1.35673E+04 -6.71879E+04  4.32517E+04 -4.86629E+04  6.28130E+04 -1.72983E+03  3.66670E+04  3.60275E+04
 -5.47602E+03  4.01371E+04 -3.23572E+04  1.89707E+04 -3.42061E+04 -4.79369E+03 -2.13035E+04 -1.18281E+04
 -8.51996E+03 -1.47676E+04 -4.37030E+02 -2.16730E+04  9.10221E+03 -2.34246E+04  1.63597E+04 -1.20628E+04
  9.91848E+03  5.55656E+03 -1.03938E+04  1.44614E+04 -2.28405E+04 -9.59793E+03 -1.01635E+04 -3.79135E+04
  2.47239E+04 -4.84954E+04  5.42218E+04 -2.16474E+04  4.94874E+04  2.14888E+04  1.80755E+04  4.82110E+04
 -1.57270E+04  3.68154E+04 -2.96833E+04  9.11873E+02 -1.13004E+04 -3.02388E+04  2.09417E+04 -3.70411E+04
  4.58061E+04 -1.14253E+04  4.30130E+04  2.56651E+04  2.21848E+04  5.35722E+04 -6.97354E+03  5.73728E+04
 -3.64608E+04  4.05632E+04 -5.03185E+04  1.00030E+04 -4.97183E+04 -2.02479E+04 -2.61806E+04 -4.57152E+04
  8.58369E+03 -4.26139E+04  3.56872E+04 -1.78567E+04  3.21513E+04  1.24096E+04  6.21169E+03  2.16689E+04
 -1.57915E+04  7.98911E+03 -1.02011E+04 -8.24595E+03  5.51345E+03 -9.55847E+03  2.11958E+04  4.05129E+03
  1.38117E+04  2.27988E+04 -6.30551E+03  2.87544E+04 -2.48723E+04  1.45574E+04 -3.34340E+04 -1.95539E+03
 -2.62207E+04 -2.00641E+04 -1.19064E+04 -2.63447E+04  4.86001E+03 -2.64591E+04  2.06554E+04 -2.47934E+04
  3.18217E+04 -1.61821E+04  3.90696E+04  4.45339E+03  2.82331E+04  2.70582E+04  5.51231E+03  4.30862E+04
 -2.02550E+04  3.69320E+04 -3.11738E+04  1.27688E+04 -2.34096E+04 -1.11807E+04 -3.55514E+03 -1.26696E+04
  3.83481E+02  1.33921E+02 -9.91626E+03  7.59639E+03 -2.07615E+04  4.85202E+03 -2.03589E+04 -1.09301E+04
 -1.28921E+04 -2.48966E+04  6.75896E+03 -2.78361E+04  1.72265E+04 -1.94065E+04  2.27221E+04 -1.33832E+03
  1.58127E+04  1.83442E+04 -9.55181E+02  2.50180E+04 -1.70331E+04  1.48948E+04 -2.35292E+04 -5.46621E+03
 -1.58823E+04 -2.18924E+04 -9.77966E+02 -2.97549E+04  1.39080E+04 -2.63761E+04  2.64473E+04 -1.42425E+04
  2.46546E+04 -7.71252E+02  1.53659E+04  6.05331E+03  1.02328E+04  1.15387E+03  1.37213E+04 -2.52442E+03
  2.37337E+04  2.36794E+03  2.84061E+04  2.04969E+04  2.00347E+04  4.06545E+04 -2.82220E+03  4.52640E+04
 -2.60318E+04  4.01910E+04 -4.58121E+04  1.86693E+04 -4.84352E+04 -1.83924E+03 -3.86975E+04 -2.80620E+04
 -1.59746E+04 -4.03667E+04  1.36690E+04 -3.64214E+04  2.89132E+04 -1.68851E+04  2.59336E+04  9.18456E+03
  9.06606E+03  1.95494E+04 -1.29898E+04  1.61373E+04 -2.13900E+04  1.60094E+03 -1.52683E+04 -1.24468E+04
 -1.30220E+03 -2.05738E+04  1.08980E+04 -1.50343E+04  1.55058E+04 -1.82868E+03  3.34430E+03  9.07004E+03
 -8.67618E+03  5.64256E+03 -1.02898E+04 -7.40076E+03 -2.52755E+03 -2.00751E+04  1.17921E+04 -2.27701E+04
  2.45311E+04 -1.19115E+04  2.76656E+04  3.64936E+03  2.58022E+04  2.13326E+04  1.22117E+04  3.11975E+04
 -6.87486E+03  3.38467E+04 -2.40895E+04  2.14388E+04 -2.53064E+04  3.71871E+03 -1.71527E+04 -7.11979E+03
 -6.74580E+03 -8.69167E+03 -9.17454E+02  6.46294E+02 -4.31658E+03  2.50168E+03 -8.36894E+03  5.34885E+03
 -1.74149E+04 -2.75795E+02 -1.65784E+04 -1.32748E+04 -8.14038E+03 -1.95813E+04  5.97118E+03 -1.74487E+04
  1.48907E+04 -6.56826E+03  9.89100E+03  5.85824E+03 -1.98302E+02  6.49262E+03 -7.95348E+03 -1.88215E+03
 -9.67361E+03 -1.04532E+04 -2.52681E+03 -1.68205E+04  1.02038E+04 -1.87859E+04  1.95809E+04 -1.04744E+04
  2.59381E+04  1.45046E+03  1.74421E+04  1.42112E+04  4.18421E+03  2.08680E+04 -9.16787E+03  1.81655E+04
 -1.24737E+04  3.41904E+03 -7.56789E+03 -3.70319E+03  4.40885E+03 -4.95148E+03  9.87966E+03  9.40045E+02
  9.02668E+03  8.59789E+03  1.23880E+03  1.63419E+04 -1.04049E+04  1.27112E+04 -1.78898E+04  3.17212E+03
 -1.14767E+04 -9.80465E+03  6.26842E+02 -1.31706E+04  9.99228E+03 -7.41589E+03  1.08350E+04  3.60788E+03
  2.54079E+03  1.00491E+04 -7.83149E+03  1.32606E+04 -1.69345E+04  7.07471E+03 -1.62032E+04 -5.53975E+03
 -9.20101E+03 -1.69181E+04  4.60374E+03 -2.11021E+04  1.56092E+04 -1.22872E+04  1.95866E+04  3.06969E+03
  1.07787E+04  1.53875E+04 -1.44476E+03  1.89173E+04 -1.30812E+04  9.26062E+03 -1.41799E+04 -9.72700E+02
 -1.20669E+04 -1.22087E+04 -2.26798E+03 -1.33697E+04  7.87337E+03 -1.05450E+04  1.00238E+04 -5.56928E+03
  5.54870E+03  2.27961E+03 -2.44420E+03  2.73636E+03 -3.32800E+03 -5.31900E+03  2.20032E+03 -9.94228E+03
  1.33766E+04 -7.28919E+03  1.97337E+04  1.27060E+03  1.76053E+04  1.38260E+04  1.22515E+04  2.39607E+04
 -4.11214E+03  2.78073E+04 -2.24300E+04  1.92754E+04 -2.88536E+04  3.24567E+03 -2.36764E+04 -1.04256E+04
 -1.27251E+04 -1.95105E+04  1.91342E+02 -1.66413E+04  4.75962E+03 -9.25556E+03  5.33983E+03 -6.55321E+03
  4.64574E+03 -3.34838E+03  3.37134E+03 -3.48049E+03  7.87350E+03 -4.12010E+03  8.48586E+03 -2.99771E+03
  1.22355E+04  2.87455E+03  6.02126E+03  1.05693E+04  5.49476E+02  1.27428E+04 -1.23775E+04  1.16198E+04
 -1.79355E+04 -1.38612E+03 -1.07457E+04 -1.14178E+04 -2.48297E+03 -1.95311E+04  1.12215E+04 -1.81466E+04
  2.12613E+04 -9.57109E+03  2.19745E+04  4.58146E+03  1.53315E+04  1.71375E+04  1.78290E+03  1.84548E+04
 -8.23207E+03  1.52612E+04 -1.21837E+04  5.64994E+03 -8.79907E+03 -2.01737E+03 -3.51324E+03 -2.15862E+03
 -2.43074E+03 -7.45919E+02 -8.87279E+02  4.21661E+03 -8.16776E+03  6.35583E+02 -1.22692E+04 -1.81227E+03
 -9.05617E+03 -1.15045E+04 -1.58644E+03 -1.70395E+04  9.99142E+03 -1.64893E+04  1.73358E+04 -6.56514E+03
  1.81309E+04  9.07321E+03  9.12292E+03  1.67717E+04 -2.99304E+03  1.65690E+04 -1.42336E+04  1.04558E+04
 -1.73816E+04 -5.00148E+02 -1.27255E+04 -1.13437E+04 -6.48365E+02 -1.53745E+04  8.85612E+03 -1.21472E+04
  1.14857E+04 -4.89842E+03  8.58204E+03  2.72325E+03  1.53246E+03  5.41859E+03  2.67053E+03  6.04236E+02
  2.21111E+03  2.15284E+03  3.48559E+03  2.78920E+03  4.95648E+03  6.31691E+03  4.12382E+03  8.37552E+03
 -4.15942E+03  1.38800E+04 -1.47759E+04  1.42917E+04 -2.09510E+04  4.34240E+03 -1.91897E+04 -7.50075E+03
 -9.05763E+03 -1.78762E+04  2.37505E+03 -1.95875E+04  9.76085E+03 -1.34212E+04  1.53605E+04 -2.72345E+03
  1.24467E+04  7.59536E+03  2.64269E+03  1.17852E+04 -5.27766E+03  5.74001E+03 -6.73392E+03 -9.86575E+02
 -2.28259E+03 -7.81044E+03  3.91305E+03 -8.02840E+03  7.18918E+03 -2.88404E+03  8.09349E+03  1.06790E+03
  3.86339E+03  4.79567E+03  1.32726E+03  3.98142E+03 -9.52968E+02  2.00144E+03  1.16951E+03 -1.47278E+03
  4.44574E+03  4.83111E+00  7.47468E+03  2.88376E+03  3.80001E+03  8.13160E+03 -1.96215E+03  1.22282E+04
 -8.53361E+03  9.65243E+03 -1.28828E+04  2.60291E+03 -1.08487E+04 -3.28055E+03 -4.80772E+03 -7.04683E+03
 -4.62250E+02 -8.51281E+03  3.24114E+03 -2.78483E+03  3.17946E+03  2.54429E+03 -1.96618E+03  7.03100E+03
 -8.34697E+03  3.27390E+03 -9.93787E+03 -4.76673E+03 -5.37832E+03 -9.54094E+03  6.55899E+02 -9.98048E+03
  6.57414E+03 -6.55800E+03  9.02960E+03 -7.85026E+01  6.82615E+03  2.49006E+03  2.46291E+03  6.74905E+03
 -3.87557E+03  2.02606E+03 -3.75996E+03 -3.97031E+03  3.62268E+03 -7.66968E+03  9.51583E+03 -8.71696E+03
  1.13739E+04  1.76494E+03  1.21221E+04  8.35828E+03  4.29399E+03  1.36851E+04 -4.83146E+03  1.11725E+04
 -1.00676E+04  5.28838E+03 -9.87538E+03 -3.14817E+02 -5.82673E+03 -9.88214E+03  1.13294E+03 -7.76369E+03
  7.39568E+03 -4.13050E+03  6.49012E+03  5.21686E+03  1.20564E+03  6.71799E+03 -1.17116E+03  6.74434E+03
 -4.37111E+03  2.83356E+03 -3.49280E+03  1.16546E+03 -1.31820E+03  1.88516E+03 -1.18535E+03  3.47610E+03
 -1.86069E+03  3.96979E+03 -8.85138E+03  4.59355E+03 -1.18780E+04  1.50112E+03 -1.54096E+04 -9.70334E+03
 -7.51342E+03 -1.85537E+04  4.43259E+03 -2.12181E+04  1.35911E+04 -1.47074E+04  1.77194E+04 -5.93927E+03
  1.70048E+04  4.56211E+03  1.12376E+04  1.24333E+04  2.63680E+03  1.46333E+04 -3.06037E+03  1.16080E+04
 -9.67569E+03  2.63558E+03 -5.18780E+03 -1.88496E+03 -9.37076E+02 -1.49481E+03 -1.04329E+03 -1.16209E+03
 -2.36517E+03  7.89577E+02 -3.24238E+03 -9.98262E+02 -2.84957E+03 -3.62443E+03 -1.12217E+03 -3.68403E+03
  6.26056E+03 -3.86465E+03  8.78146E+03 -1.27598E+02  8.08777E+03  7.16104E+03  3.88807E+03  1.37738E+04
 -5.21832E+03  1.47672E+04 -1.37539E+04  9.70607E+03 -1.78553E+04 -1.14845E+03 -1.31862E+04 -1.05598E+04
 -6.13390E+03 -1.56442E+04  3.94219E+03 -1.32913E+04  1.22192E+04 -6.87970E+03  1.06091E+04 -8.00232E+01
  4.15066E+03  5.12405E+03  4.03384E+02  4.67312E+03 -3.26774E+03 -4.15994E+02 -2.05404E+02 -3.56425E+03
  4.22695E+03 -1.44839E+03  3.77751E+03  1.77152E+03  2.38849E+03  5.68440E+03 -7.22850E+02  8.06095E+03
 -5.20198E+03  6.63494E+03 -1.00564E+04  8.74013E+02 -7.72962E+03 -6.27874E+03 -3.88318E+02 -1.37836E+04
  7.25356E+03 -9.70654E+03  1.23930E+04 -2.60496E+03  1.14035E+04  4.33154E+03  5.90670E+03  8.53848E+03
  6.82841E+02  9.60382E+03 -2.28404E+03  9.70423E+03 -4.43697E+03  3.60385E+03 -5.61473E+03  1.06727E+03
 -3.03151E+03  4.89466E+02 -6.35601E+03  2.36670E+03 -4.76564E+03  1.06805E+03 -7.13674E+03 -2.61653E+03
 -6.41239E+03 -4.10468E+03 -2.31398E+03 -8.61951E+03  5.49794E+03 -9.13643E+03  8.36868E+03 -4.27569E+03
  9.06771E+03  2.04752E+03  5.46193E+03  6.10226E+03 -1.71990E+03  9.16699E+03 -6.32721E+03  7.94810E+03
