 $NMID ID='MM_0lb_SNR200_13hz_g45_50.RAW', FMTDAT='(8E13.5)'
 TRAMP=1., VOLUME=1. $END
  3.09544E+05 -2.31400E+02  3.37899E+05  2.50469E+05  8.46738E+04  3.38094E+05 -1.32933E+05  2.50610E+05
 -1.90621E+05  8.37025E+04 -1.12248E+05 -3.32342E+04  1.03211E+03 -5.06452E+04  5.33191E+04  1.30281E+03
  3.74543E+04  5.25574E+04 -1.77916E+04  7.47990E+04 -6.11860E+04  6.39109E+04 -8.31277E+04  3.31417E+04
 -8.04318E+04 -1.11610E+04 -5.65924E+04 -5.08689E+04 -1.46243E+04 -6.97484E+04  2.76769E+04 -4.61491E+04
  3.95453E+04  5.23451E+03  1.49625E+04  4.94211E+04 -3.44314E+04  4.71052E+04 -6.75940E+04 -9.75985E+02
 -5.24443E+04 -5.80277E+04 -6.72048E+03 -7.61457E+04  3.43799E+04 -5.49560E+04  4.75651E+04 -1.64639E+04
  4.30462E+04  1.13019E+04  3.09027E+04  2.44762E+04  1.54213E+04  2.92963E+04 -5.59953E+03  2.83433E+04
 -2.13453E+04  1.21187E+04 -1.84575E+04 -4.70385E+03  7.26801E+03 -7.92011E+03  2.13729E+04  1.13419E+04
  6.60358E+03  3.61985E+04 -3.09099E+04  3.60080E+04 -6.39678E+04  2.55151E+03 -5.72031E+04 -4.43435E+04
 -1.29622E+04 -6.29720E+04  3.86771E+04 -4.60979E+04  5.90757E+04 -1.92490E+03  3.39243E+04  3.16362E+04
 -5.94261E+03  3.51934E+04 -3.00572E+04  1.68752E+04 -3.20481E+04 -5.03780E+03 -1.76486E+04 -1.10101E+04
 -7.87260E+03 -1.46160E+04  3.13916E+02 -1.83094E+04  7.95865E+03 -2.29719E+04  1.51785E+04 -1.20441E+04
  1.23989E+04  5.50677E+03 -8.95954E+03  1.38715E+04 -2.04969E+04 -4.76325E+03 -8.98845E+03 -3.39259E+04
  2.31904E+04 -4.35638E+04  4.82794E+04 -2.09983E+04  4.60493E+04  2.00151E+04  1.62317E+04  4.52790E+04
 -1.54165E+04  3.27869E+04 -2.46023E+04  8.88977E+02 -9.86359E+03 -2.78766E+04  2.11040E+04 -3.36607E+04
  4.09390E+04 -9.14745E+03  3.58171E+04  2.41520E+04  1.74583E+04  4.75515E+04 -7.32870E+03  5.00894E+04
 -3.25454E+04  3.43701E+04 -4.29892E+04  9.43419E+03 -4.21533E+04 -1.64200E+04 -2.34826E+04 -3.80288E+04
  6.40315E+03 -3.71761E+04  3.14591E+04 -1.49359E+04  2.92236E+04  9.76095E+03  4.46037E+03  1.89125E+04
 -1.26294E+04  8.18371E+03 -1.05413E+04 -7.64208E+03  5.48721E+03 -1.02491E+04  1.80997E+04  5.44920E+03
  1.34094E+04  2.10183E+04 -6.32364E+03  2.51115E+04 -2.20416E+04  1.16089E+04 -2.88108E+04 -4.11455E+03
 -2.21732E+04 -1.75540E+04 -9.21028E+03 -2.05683E+04  3.87183E+03 -2.04583E+04  1.58283E+04 -1.79153E+04
  2.70653E+04 -1.33192E+04  3.26925E+04  2.66287E+03  2.50831E+04  2.06559E+04  3.78357E+03  3.70886E+04
 -1.76488E+04  3.08483E+04 -2.91206E+04  9.54942E+03 -2.16096E+04 -1.05695E+04 -5.10317E+03 -1.39341E+04
  1.76880E+03 -2.75988E+03 -4.84774E+03  6.91126E+03 -1.72975E+04  5.92195E+03 -1.72811E+04 -8.27875E+03
 -9.24337E+03 -1.96458E+04  5.07246E+03 -2.38456E+04  1.50299E+04 -1.66324E+04  1.84433E+04 -1.68627E+03
  1.25137E+04  1.36342E+04 -2.57013E+02  2.04697E+04 -1.35402E+04  1.14324E+04 -1.91288E+04 -4.22657E+03
 -1.52114E+04 -1.65736E+04 -1.50056E+03 -2.43567E+04  1.07545E+04 -1.94417E+04  2.01818E+04 -9.65066E+03
  1.89550E+04  7.22962E+02  1.31564E+04  3.98122E+03  7.58259E+03  6.35525E+02  1.01681E+04 -7.14815E+02
  1.83292E+04  2.85690E+03  2.04460E+04  1.48236E+04  1.11542E+04  3.28302E+04 -2.08562E+03  3.42953E+04
 -2.01895E+04  2.85612E+04 -3.40285E+04  1.38688E+04 -3.48141E+04 -2.24888E+03 -2.86458E+04 -1.92473E+04
 -1.37406E+04 -2.93583E+04  1.10359E+04 -2.60062E+04  2.15492E+04 -1.32422E+04  1.98508E+04  6.98323E+03
  7.28727E+03  1.58201E+04 -9.26795E+03  1.20154E+04 -1.67869E+04  2.75140E+03 -1.15287E+04 -9.94321E+03
 -9.31372E+02 -1.47715E+04  9.01514E+03 -1.22577E+04  9.28663E+03 -6.01070E+02  2.08543E+03  7.53444E+03
 -7.38094E+03  3.01649E+03 -5.60001E+03 -6.32561E+03 -1.41115E+03 -1.38398E+04  1.02640E+04 -1.47164E+04
  1.64800E+04 -8.33769E+03  1.80041E+04  2.88362E+03  1.66813E+04  1.36691E+04  7.56687E+03  2.11952E+04
 -3.58074E+03  2.40659E+04 -1.41868E+04  1.36201E+04 -1.55526E+04  2.04154E+03 -1.18388E+04 -3.11597E+03
 -6.38782E+03 -5.96644E+03 -1.13718E+03  5.80073E+02 -1.89550E+03  2.59750E+03 -4.78098E+03  3.94533E+03
 -1.13324E+04 -9.22736E+02 -1.02339E+04 -8.90697E+03 -5.82060E+03 -1.64422E+04  5.01202E+03 -1.13990E+04
  1.04879E+04 -2.90849E+03  6.65448E+03  2.27577E+03  3.15366E+02  4.47945E+03 -5.89062E+03  1.46797E+02
 -6.44117E+03 -6.02570E+03 -3.02234E+02 -1.20144E+04  5.13458E+03 -1.36285E+04  1.51531E+04 -5.99198E+03
  1.68411E+04  1.21046E+03  1.30786E+04  8.67923E+03  3.34208E+03  1.35204E+04 -6.90241E+03  1.18691E+04
 -1.06621E+04  2.98300E+03 -6.68934E+03 -1.75773E+03  8.53507E+02 -3.00737E+03  6.57232E+03 -6.62234E+02
  5.28368E+03  4.94774E+03  1.64019E+03  8.44699E+03 -7.42293E+03  1.00503E+04 -1.17575E+04  1.72539E+03
 -7.50679E+03 -5.40461E+03  4.20867E+02 -1.08488E+04  5.75690E+03 -4.96244E+03  5.24254E+03  2.26331E+03
  1.38722E+03  7.44430E+03 -4.74782E+03  7.15672E+03 -9.69789E+03  3.83838E+03 -8.99656E+03 -3.55949E+03
 -4.96149E+03 -9.90395E+03  2.87792E+03 -1.18659E+04  1.10649E+04 -7.75174E+03  1.17943E+04  1.06558E+03
  5.69166E+03  8.90219E+03 -5.12605E+02  1.14062E+04 -8.12935E+03  5.94336E+03 -7.48045E+03 -8.06411E+02
 -8.27375E+03 -7.18320E+03 -1.57672E+03 -7.65865E+03  4.66276E+03 -7.42320E+03  5.22799E+03 -3.65312E+03
  4.65178E+03  2.84895E+03 -1.72418E+01  1.54624E+03 -1.95691E+02 -9.03017E+02  1.92462E+03 -2.89714E+03
  8.08005E+03 -3.63290E+03  9.02860E+03  9.37765E+02  7.68427E+03  7.25537E+03  7.38727E+03  1.36716E+04
 -2.89945E+03  1.48477E+04 -1.30742E+04  1.11583E+04 -1.67361E+04  1.75061E+03 -1.36023E+04 -5.75422E+03
 -6.49492E+03 -1.08700E+04 -1.06270E+02 -8.36346E+03  3.39618E+03 -4.58280E+03  2.71482E+03 -3.58415E+03
  3.07499E+03 -4.00981E+03  2.70421E+03 -3.29022E+03  5.67404E+03 -1.85196E+03  6.06651E+03  4.06742E+01
  6.94979E+03  1.20546E+03  2.97741E+03  5.51054E+03 -1.12270E+03  6.50991E+03 -7.93740E+03  4.56971E+03
 -9.45035E+03 -1.53660E+03 -4.54268E+03 -6.36605E+03 -8.36093E+02 -9.10029E+03  6.92300E+03 -9.87735E+03
  1.00246E+04 -6.66234E+03  1.16917E+04  2.48970E+03  8.90534E+03  8.68513E+03  1.88765E+03  1.07178E+04
 -4.39094E+03  9.53458E+03 -7.46450E+03  1.91331E+03 -4.30387E+03 -9.12671E+02 -1.63632E+03 -1.49310E+03
 -1.09099E+03  5.50549E+02 -8.60785E+02  2.61629E+03 -5.07342E+03  2.46440E+03 -6.65900E+03 -6.69395E+02
 -4.07120E+03 -6.93843E+03  7.97942E+02 -9.88687E+03  5.20794E+03 -8.06272E+03  8.82253E+03 -2.56726E+03
  7.80259E+03  4.15118E+03  5.00200E+03  7.25593E+03 -1.40708E+03  8.79428E+03 -6.32925E+03  5.43154E+03
 -8.84510E+03  8.25854E+02 -6.96808E+03 -4.74068E+03 -1.26500E+03 -6.87506E+03  3.07354E+03 -6.38607E+03
  6.21605E+03 -1.55017E+03  2.90724E+03  8.80959E+02  1.77111E+03  2.96559E+03  9.91823E+01  1.11481E+03
  2.52077E+03  1.70042E+03  2.83551E+03  1.82409E+03  1.99094E+03  3.38979E+03  2.12771E+03  4.16637E+03
 -2.62415E+03  6.46658E+03 -4.81305E+03  7.82667E+03 -8.40107E+03  1.96008E+03 -8.75170E+03 -2.95363E+03
 -2.72125E+03 -8.26016E+03  3.18416E+02 -9.08025E+03  5.34003E+03 -6.93433E+03  6.70142E+03 -2.44459E+03
  5.07791E+03  4.20665E+03  8.96818E+02  4.16018E+03 -2.97080E+03  3.57189E+03 -3.61467E+03  2.92959E+02
 -1.63120E+03 -3.06966E+03  1.95756E+03 -4.70692E+03  4.76243E+03 -1.76573E+03  2.49742E+03 -5.04722E+02
  1.97256E+03  1.45757E+03 -2.86270E+02  1.39505E+03 -8.49127E+02  1.58126E+03  1.96382E+03  1.28672E+02
  1.66653E+03 -4.30739E+02  2.33789E+03  1.46950E+03  1.81584E+03  4.76200E+03  4.33297E+02  7.54330E+03
 -3.37537E+03  3.16678E+03 -4.01802E+03  1.99722E+03 -3.98580E+03 -1.32221E+03 -1.45565E+03 -3.83886E+03
  5.14932E+02 -2.82955E+03  1.34118E+03 -8.39286E+02  2.01988E+03  1.72129E+03 -6.27455E+02  1.69456E+03
 -4.12566E+03  1.59153E+03 -3.56265E+03 -8.88212E+02 -3.16763E+03 -4.39685E+03  3.98374E+02 -3.64434E+03
  9.76689E+02 -4.35950E+03  1.96491E+03  9.48350E+01  3.15469E+03 -5.38522E+02  2.31095E+03  3.24613E+03
 -1.27228E+03  9.53028E+02 -2.38027E+03 -1.39901E+03  3.02407E+02 -2.86166E+03  3.18769E+03 -3.32231E+03
  3.84594E+03 -4.38631E+02  4.83113E+03  2.64162E+03  1.31966E+03  4.63420E+03 -1.55631E+03  4.10529E+03
 -3.46557E+03  2.51348E+03 -4.30179E+03 -8.58941E+02 -2.21102E+03 -2.92395E+03  1.31232E+03 -2.51855E+03
  4.03380E+03 -2.93431E+03  2.22523E+03  1.50257E+03  1.40205E+03  2.72325E+03 -9.81511E+02  3.77457E+03
 -1.88029E+03  1.98195E+03 -9.40253E+02  1.15081E+03  3.45627E+02  1.13008E+03  5.65986E+02  1.59539E+03
 -1.31960E+03  3.05215E+03 -3.43188E+03  1.30664E+03 -4.40346E+03  1.03368E+03 -5.00986E+03 -4.36648E+03
 -3.05074E+03 -5.26234E+03  7.14604E+02 -7.56009E+03  4.18307E+03 -6.27213E+03  7.51098E+03 -2.06183E+03
  6.03472E+03  6.24521E+02  3.47148E+03  4.34198E+03 -7.96076E+02  4.53064E+03 -2.39010E+03  3.89961E+03
 -3.41390E+03  2.13647E+03 -4.59479E+02 -1.06312E+03 -4.85697E+02 -2.13717E+03 -1.11016E+03  5.86829E+02
 -1.45515E+03  9.88768E+02 -1.26708E+03 -1.20662E+02 -3.62355E+02 -1.21505E+03  3.49567E+01 -2.61236E+03
  3.30209E+03 -1.23811E+03  2.93290E+03 -1.77194E+02  2.94451E+03  6.30130E+02  1.10744E+03  4.62467E+03
 -1.50380E+03  5.42627E+03 -5.00359E+03  3.76679E+03 -5.62521E+03 -1.05590E+03 -4.17694E+03 -3.32199E+03
 -1.33097E+03 -5.85495E+03  4.80298E+02 -5.02788E+03  2.86925E+03 -2.64656E+03  3.43954E+03 -2.94860E+01
  2.55528E+03  1.90162E+03  6.10970E+02  6.57956E+02 -1.82150E+03  4.73588E+02  5.85008E+02 -8.17321E+02
  1.61676E+02 -4.72251E+02  8.50594E+02  9.15709E+02  1.52753E+03  2.31085E+03  8.75030E+02  3.15104E+03
 -2.25728E+03  3.56720E+03 -2.39034E+03 -4.48035E+02 -4.37565E+03 -3.02424E+03  7.22959E+02 -4.11001E+03
  2.14334E+03 -3.80370E+03  3.73749E+03 -5.37247E+02  2.26083E+03 -2.86863E+01  3.23478E+03  3.88342E+03
 -2.37870E+02  4.42196E+03 -7.44343E+02  1.65706E+03 -1.84459E+03  1.36818E+03 -2.02804E+03  1.39433E+03
 -1.54525E+03  6.03778E+02 -8.87375E+02  7.03901E+02 -9.37822E+02 -3.42613E+02 -2.07879E+03 -8.75146E+02
 -2.29622E+03 -7.15365E+02 -1.03658E+03 -2.78987E+03  1.99211E+03 -3.45508E+03  3.10912E+03 -2.76303E+03
  4.48352E+03  8.90593E+02  3.97396E+02  1.55067E+02  3.37579E+02  3.75746E+03 -1.73570E+03  1.55832E+03
