 $NMID ID='MM_0lb_SNR200_17hz_g50_29.RAW', FMTDAT='(8E13.5)'
 TRAMP=1., VOLUME=1. $END
  3.10442E+05 -6.29338E+02  3.36141E+05  2.50550E+05  8.39322E+04  3.37131E+05 -1.32057E+05  2.51306E+05
 -1.89647E+05  8.27196E+04 -1.11598E+05 -3.27050E+04  1.34132E+02 -5.10417E+04  5.30874E+04 -2.00166E+02
  3.55557E+04  5.26238E+04 -1.74666E+04  7.59799E+04 -6.05613E+04  6.29460E+04 -8.36479E+04  3.13268E+04
 -8.00321E+04 -1.05558E+04 -5.74942E+04 -5.04881E+04 -1.48339E+04 -6.92214E+04  2.77587E+04 -4.43548E+04
  3.84753E+04  4.26023E+03  1.64485E+04  4.66258E+04 -3.44037E+04  4.71707E+04 -6.56295E+04 -5.94044E+02
 -5.34221E+04 -5.66462E+04 -7.43287E+03 -7.61690E+04  3.25202E+04 -5.44470E+04  4.70778E+04 -1.71672E+04
  4.31992E+04  1.05465E+04  3.14108E+04  2.49620E+04  1.67740E+04  2.89695E+04 -5.67702E+03  2.64467E+04
 -2.21972E+04  1.24100E+04 -1.88129E+04 -3.79598E+03  5.20279E+03 -7.46112E+03  2.24892E+04  1.12562E+04
  7.08598E+03  3.43780E+04 -3.14881E+04  3.53766E+04 -6.19437E+04  2.63444E+03 -5.63900E+04 -4.08733E+04
 -1.23864E+04 -6.23975E+04  3.84124E+04 -4.34492E+04  5.75744E+04 -2.21805E+03  3.24308E+04  3.03013E+04
 -5.89119E+03  3.56695E+04 -2.89583E+04  1.37377E+04 -2.83961E+04 -4.98310E+03 -1.49162E+04 -1.01375E+04
 -8.39066E+03 -1.18855E+04 -9.81318E+02 -1.68251E+04  7.06726E+03 -2.31721E+04  1.55032E+04 -1.37133E+04
  1.16541E+04  5.46967E+03 -6.74406E+03  1.42645E+04 -2.00859E+04 -3.64597E+03 -7.89886E+03 -3.13550E+04
  2.22242E+04 -4.11211E+04  4.57060E+04 -1.96504E+04  4.31310E+04  1.92355E+04  1.46204E+04  4.17030E+04
 -1.53948E+04  3.22759E+04 -2.38540E+04  1.76869E+02 -8.44898E+03 -2.65864E+04  2.03703E+04 -3.19856E+04
  3.99492E+04 -7.62929E+03  3.35960E+04  2.29055E+04  1.55482E+04  4.36963E+04 -8.46793E+03  4.71104E+04
 -3.05204E+04  3.14303E+04 -3.92777E+04  9.63750E+03 -3.97095E+04 -1.63919E+04 -2.21338E+04 -3.50960E+04
  7.34180E+03 -3.53182E+04  3.04427E+04 -1.23719E+04  2.79928E+04  9.94730E+03  3.14579E+03  1.86323E+04
 -1.34692E+04  7.86925E+03 -8.63488E+03 -6.73548E+03  5.67860E+03 -1.07644E+04  1.80282E+04  5.39448E+03
  1.31233E+04  2.22610E+04 -6.39458E+03  2.42863E+04 -2.13098E+04  9.84198E+03 -2.54781E+04 -6.63207E+03
 -1.80220E+04 -1.69279E+04 -7.96918E+03 -1.80046E+04  3.63414E+03 -1.64282E+04  1.41513E+04 -1.60675E+04
  2.41639E+04 -1.23425E+04  3.03358E+04  3.13499E+03  2.27104E+04  1.80634E+04  3.90537E+03  3.31845E+04
 -1.80185E+04  2.82364E+04 -2.59865E+04  9.59271E+03 -2.00578E+04 -9.60821E+03 -3.74297E+03 -1.36368E+04
  2.76020E+03 -3.47769E+03 -3.51332E+03  5.54415E+03 -1.40093E+04  4.75856E+03 -1.46837E+04 -5.48335E+03
 -8.95120E+03 -1.71620E+04  4.88536E+03 -2.06734E+04  1.30256E+04 -1.50634E+04  1.64928E+04 -9.82179E+02
  8.56594E+03  1.12195E+04 -9.48646E+02  1.72341E+04 -1.11823E+04  8.50525E+03 -1.79414E+04 -3.69895E+03
 -1.29690E+04 -1.48224E+04 -2.77002E+03 -2.05920E+04  9.71037E+03 -1.72909E+04  1.70865E+04 -7.77151E+03
  1.62813E+04  1.42366E+03  1.17849E+04  3.59198E+03  4.97033E+03 -4.47032E+01  8.40363E+03 -2.05561E+03
  1.53375E+04  3.97345E+03  1.58678E+04  1.43071E+04  1.05094E+04  2.72384E+04 -3.70742E+03  2.97435E+04
 -1.80078E+04  2.32671E+04 -2.64648E+04  1.07855E+04 -2.77142E+04 -2.33001E+03 -2.36011E+04 -1.57451E+04
 -1.03169E+04 -2.30028E+04  7.78672E+03 -2.06200E+04  1.81250E+04 -1.18183E+04  1.64719E+04  4.71623E+03
  7.12666E+03  1.30062E+04 -8.05087E+03  1.16316E+04 -1.51031E+04  2.32001E+03 -1.15467E+04 -7.78948E+03
 -4.56449E+02 -1.35094E+04  7.07877E+03 -1.08275E+04  8.94243E+03 -1.15818E+03  8.98888E+02  5.95544E+03
 -5.15513E+03  1.83735E+03 -4.14822E+03 -4.97211E+03  6.15423E+02 -1.11912E+04  8.78433E+03 -1.16839E+04
  1.45686E+04 -6.37479E+03  1.41461E+04  3.20256E+03  1.22318E+04  1.21793E+04  5.38508E+03  1.65221E+04
 -2.20232E+03  1.83281E+04 -1.17166E+04  1.17105E+04 -1.35931E+04  2.64404E+03 -9.46574E+03 -2.59144E+03
 -4.73634E+03 -3.66191E+03 -5.39182E+02  2.30466E+03 -1.16953E+03  8.59622E+02 -4.24706E+03  3.32894E+03
 -9.16714E+03 -1.20181E+03 -9.28301E+03 -7.02328E+03 -4.69706E+03 -1.19525E+04  3.77755E+03 -1.00819E+04
  7.37742E+03 -4.38621E+03  5.51688E+03  3.43143E+03  7.31385E+02  3.03603E+03 -3.67624E+03 -1.25276E+03
 -5.04260E+03 -6.42451E+03 -1.40437E+03 -7.79105E+03  4.04712E+03 -9.36124E+03  1.00953E+04 -5.43016E+03
  1.35685E+04  1.24027E+03  9.44305E+03  7.01211E+03  1.97908E+03  1.11752E+04 -6.89281E+03  8.44253E+03
 -7.33706E+03  2.82240E+03 -4.32746E+03 -1.84100E+03  9.88607E+02 -1.97069E+03  5.79315E+03 -1.69313E+03
  5.00416E+03  3.34059E+03  7.82231E+02  6.07314E+03 -5.22036E+03  7.67856E+03 -7.74181E+03  1.42999E+03
 -5.07641E+03 -4.60575E+03 -1.53912E+03 -7.61604E+03  4.57092E+03 -3.36216E+03  5.13584E+03  1.38028E+03
  6.23306E+02  3.49451E+03 -4.41040E+03  6.25763E+03 -7.21159E+03  2.31186E+03 -5.62240E+03 -2.04954E+03
 -3.41212E+03 -7.09411E+03 -1.63560E+02 -8.18387E+03  6.61753E+03 -5.37461E+03  8.16583E+03  1.04103E+03
  4.82227E+03  7.69359E+03  1.48322E+02  8.82392E+03 -5.63754E+03  4.64694E+03 -6.19827E+03 -1.02423E+03
 -6.24762E+03 -6.07136E+03 -1.80689E+03 -6.60586E+03  3.04816E+03 -4.61790E+03  3.49448E+03 -2.21582E+03
  3.28889E+03  1.86258E+01 -4.92414E+02  1.42240E+03  6.48942E+01 -5.29765E+01  3.86516E+02 -2.70555E+03
  4.68515E+03 -1.02420E+03  5.37366E+03  8.07796E+02  6.66793E+03  3.47241E+03  4.73765E+03  9.14643E+03
 -2.13857E+03  9.96591E+03 -9.03232E+03  7.25626E+03 -1.10424E+04  2.36153E+02 -1.04544E+04 -3.97204E+03
 -5.02702E+03 -7.96775E+03 -4.61256E+02 -6.09517E+03  2.67499E+03 -3.58634E+03  1.67160E+03 -2.15802E+03
  1.56295E+03 -1.29074E+03  1.91209E+03 -2.73079E+03  4.62230E+03 -1.45482E+03  4.18937E+03 -6.17673E+01
  5.77900E+03  2.89114E+03  1.40551E+03  5.13218E+03 -1.65273E+03  4.37720E+03 -5.43861E+03  4.50764E+03
 -6.43390E+03 -1.79407E+03 -2.66365E+03 -2.11271E+03  1.33033E+03 -6.20485E+03  3.76381E+03 -6.09839E+03
  6.92021E+03 -4.69516E+03  7.01213E+03 -4.92911E+01  6.35982E+03  4.95935E+03  2.54271E+03  5.85870E+03
 -3.04100E+03  6.79347E+03 -3.51417E+03  1.28520E+03 -3.32013E+03 -1.37054E+03 -6.21762E+02 -7.36685E+02
 -1.53936E+03  1.98107E+03 -1.60775E+03  1.60968E+03 -2.97837E+03  6.70951E+02 -4.93179E+03 -7.45104E+02
 -1.77744E+03 -5.64544E+03  1.77424E+02 -7.13987E+03  2.94041E+03 -3.71097E+03  5.19566E+03 -1.19571E+03
  5.30334E+03  3.70436E+03  1.78075E+03  4.90124E+03 -1.04974E+03  5.27078E+03 -2.40358E+03  2.33274E+03
 -4.77204E+03  6.25326E+02 -3.35942E+03 -1.95869E+03  7.04207E+02 -2.99091E+03  1.39370E+03 -3.24782E+03
  3.77410E+03 -1.74966E+03  7.45837E+02  3.31955E+02  2.45196E+02  1.97490E+03  1.47169E+03  7.09954E+02
  2.27446E+03  5.09859E+02  1.01035E+03  7.41589E+02  1.55612E+03  2.26570E+03  1.51173E+03  1.59124E+03
 -2.12895E+03  3.38517E+03 -2.87937E+03  4.28185E+03 -3.74451E+03  1.23902E+03 -5.15224E+03 -8.79030E+02
 -1.68316E+03 -5.29007E+03  1.40000E+03 -6.70255E+03  3.21401E+03 -3.35848E+03  3.81291E+03 -7.17316E+02
  2.75074E+03  3.22933E+03 -5.00310E+02  2.82903E+03 -1.22990E+03  1.57753E+03 -6.63003E+02 -1.20884E+02
 -1.31940E+03 -1.61669E+03  2.45896E+03 -2.15300E+03  2.60566E+03 -2.12287E+03  2.03140E+03  9.83488E+02
  1.17085E+03  6.16983E+02  1.27350E+03  2.57193E+02 -3.07106E+02  8.68891E+02  1.65722E+03 -3.84682E+02
  8.32545E+02 -1.10218E+03  1.48113E+03  1.00157E+02  1.26837E+03  2.14728E+03 -4.94600E+02  3.36442E+03
 -9.48636E+02  1.67432E+03 -3.94322E+03  6.57587E+02 -3.01980E+03 -1.37183E+03  1.25563E+02 -9.46811E+02
 -1.15786E+01 -1.96150E+03  1.51575E+03 -2.66788E+03  6.36770E+02  3.38370E+02 -7.26756E+02  1.58615E+03
 -2.09661E+03  4.29663E+02 -1.53708E+03 -1.74033E+03 -1.43237E+03 -2.65791E+03  4.09212E+02 -2.97828E+03
  4.61453E+02 -1.81863E+03  1.97723E+03  1.04654E+03  1.62726E+03  8.46667E+02  3.32468E+02  7.50593E+02
 -9.88799E+01  5.72944E+02 -9.16003E+02 -8.45587E+02  5.12802E+02 -1.50918E+03  2.06537E+03 -1.43693E+03
  2.86568E+03  2.35500E+02  2.62893E+03  1.22776E+03  1.52736E+03  3.13475E+03 -7.10999E+01  1.28853E+03
 -2.18338E+03  2.16382E+02 -1.31282E+03  9.81533E+02 -3.79779E+02 -1.32812E+03  9.42285E+02 -1.08179E+03
  1.25268E+03  3.33304E+02  7.25449E+02  8.94238E+02 -3.42254E+02  1.90215E+03  1.10027E+01  1.74214E+03
 -7.14539E+01  1.62053E+03 -4.93707E+02  1.16538E+03 -4.19609E+02  7.30556E+02 -5.06527E+02  1.70033E+03
 -2.21655E+02  2.08196E+03 -1.63205E+03  2.52298E+02 -1.84006E+03  8.96830E+01 -3.30536E+03 -8.58257E+02
 -7.49608E+02 -3.02499E+03  2.71970E+02 -3.65582E+03  1.89707E+03 -2.54398E+03  3.09697E+03 -7.39432E+02
  3.11755E+03  6.53502E+02  2.07063E+03  1.22724E+03 -2.09404E+01  1.69856E+03 -1.41078E+03  1.14687E+03
 -1.47523E+03  1.96560E+03 -1.26266E+03  2.57338E+02 -1.85369E+02  8.24574E+01 -7.30784E+02  2.79034E+02
 -1.64633E+03  3.07086E+02 -1.40531E+03 -9.61770E+02  5.23614E+02 -1.42447E+03 -8.66715E+01 -9.33131E+02
  2.83066E+02 -1.26002E+03  4.96259E+02  2.24328E+02  1.43658E+03  1.27381E+03 -5.34069E+02  2.57012E+03
 -1.42653E+03  3.21090E+03 -1.96786E+03  1.73563E+03 -3.39478E+03 -2.92792E+02 -1.80526E+03 -8.25573E+02
 -1.31755E+03 -1.63328E+03  2.29485E+02 -1.61695E+03  2.11429E+03 -4.53011E+02  1.36123E+03 -2.04833E+02
  1.38168E+03 -2.34572E+02 -7.16101E+01  2.94946E+02 -7.37972E+02  3.27364E+02 -1.04818E+03 -7.98661E+02
  7.99478E+02 -4.00567E+02 -2.66791E+02 -4.94787E+02  1.18388E+03  8.41191E+02  1.01845E+03 -2.55217E+02
  1.28071E+02  6.43643E+02 -8.88780E+02 -1.63084E+02 -6.73768E+02 -1.32459E+03  7.11705E+02 -1.65721E+03
  3.01733E+02 -5.71432E+02  1.09817E+03 -5.63584E+02  6.61859E+01 -1.87169E+02  1.76670E+03  6.96674E+02
  1.20894E+02  1.66946E+02  7.30811E+02  5.93129E+02 -1.49592E+03 -4.58535E+02 -8.64942E+02 -5.22615E+02
 -1.36937E+03  5.79980E+02 -1.59819E+03  5.18449E+02 -1.39273E+02  5.32033E+02 -2.92794E+02 -4.43336E+02
 -5.82719E+02  1.12335E+01  3.92966E+01 -5.20531E+02  7.25719E+02 -1.79640E+03  2.29776E+03 -6.89427E+02
  1.60043E+03 -1.36229E+03 -1.83959E+00  5.48726E+02 -1.12125E+02  3.69814E+02 -1.13710E+03  1.32575E+03
