 $NMID ID='MM_0lb_SNR200_9hz_g55_19.RAW', FMTDAT='(8E13.5)'
 TRAMP=1., VOLUME=1. $END
  3.08587E+05  8.21173E+02  3.38386E+05  2.51925E+05  8.51265E+04  3.38164E+05 -1.33212E+05  2.52102E+05
 -1.90325E+05  8.38844E+04 -1.13245E+05 -3.27463E+04 -3.79445E+02 -5.18816E+04  5.50509E+04 -1.46011E+02
  3.56883E+04  5.23126E+04 -1.71361E+04  7.55032E+04 -6.05500E+04  6.47070E+04 -8.48883E+04  3.25764E+04
 -8.24215E+04 -1.10713E+04 -5.82744E+04 -5.29654E+04 -1.54679E+04 -7.18940E+04  2.90611E+04 -4.62422E+04
  4.14685E+04  5.46629E+03  1.73062E+04  4.81255E+04 -3.57845E+04  4.95023E+04 -6.70403E+04 -1.58637E+03
 -5.54286E+04 -5.80188E+04 -7.11047E+03 -7.92543E+04  3.54211E+04 -5.81077E+04  4.90907E+04 -2.01265E+04
  4.43790E+04  1.20959E+04  3.33742E+04  2.47502E+04  1.45410E+04  2.92210E+04 -6.49248E+03  2.80405E+04
 -2.29093E+04  1.21427E+04 -1.87495E+04 -6.15357E+03  8.19518E+03 -7.18352E+03  2.52540E+04  1.52730E+04
  6.57188E+03  3.82042E+04 -3.44405E+04  3.69283E+04 -6.62093E+04  1.76258E+02 -5.80069E+04 -4.57241E+04
 -1.11524E+04 -6.71577E+04  4.14913E+04 -4.78759E+04  6.17992E+04 -1.54818E+03  3.74347E+04  3.50699E+04
 -6.23589E+03  3.98142E+04 -3.22939E+04  1.91247E+04 -3.12909E+04 -2.57191E+03 -1.95505E+04 -1.22415E+04
 -1.04191E+04 -1.55294E+04 -4.97499E+02 -2.03086E+04  7.53660E+03 -2.34418E+04  1.49144E+04 -1.18267E+04
  1.07691E+04  5.35004E+03 -1.24008E+04  1.21340E+04 -2.34480E+04 -6.48950E+03 -8.98873E+03 -3.75867E+04
  2.64344E+04 -4.75561E+04  5.15598E+04 -2.14811E+04  4.94964E+04  2.10913E+04  1.85805E+04  4.73627E+04
 -1.73840E+04  3.72623E+04 -2.72351E+04  2.03413E+03 -1.05931E+04 -3.02465E+04  2.15196E+04 -3.64311E+04
  4.48135E+04 -1.13987E+04  3.99155E+04  2.44493E+04  2.25137E+04  5.25270E+04 -1.00288E+04  5.69266E+04
 -3.56447E+04  3.77078E+04 -4.71347E+04  1.15445E+04 -4.74561E+04 -1.80745E+04 -2.54658E+04 -4.23573E+04
  7.33077E+03 -4.34439E+04  3.43720E+04 -1.71361E+04  3.29719E+04  8.70695E+03  4.99331E+03  2.05302E+04
 -1.61499E+04  9.92278E+03 -1.14788E+04 -7.36076E+03  5.46706E+03 -1.18565E+04  1.70571E+04  6.49174E+03
  1.44929E+04  2.25624E+04 -4.08862E+03  2.75445E+04 -2.38144E+04  1.68501E+04 -3.27566E+04 -2.43103E+03
 -2.64218E+04 -1.93744E+04 -1.23119E+04 -2.51043E+04  4.62115E+03 -2.46163E+04  2.03930E+04 -2.34395E+04
  3.41065E+04 -1.52146E+04  3.86865E+04  5.08915E+03  2.72903E+04  2.46591E+04  4.50810E+03  4.07144E+04
 -1.99414E+04  3.48224E+04 -3.10965E+04  1.18624E+04 -2.28091E+04 -9.10844E+03 -4.56866E+03 -1.26742E+04
  1.28934E+03 -1.04959E+03 -8.66107E+03  7.90968E+03 -2.09567E+04  6.02095E+03 -2.16584E+04 -1.11774E+04
 -1.23161E+04 -2.48371E+04  6.56604E+03 -2.63987E+04  1.94158E+04 -1.91034E+04  2.29374E+04  1.13275E+03
  1.44562E+04  1.86081E+04 -2.47696E+02  2.41895E+04 -1.85648E+04  1.19063E+04 -2.43083E+04 -4.99972E+03
 -1.72498E+04 -2.07667E+04 -2.91170E+03 -2.75462E+04  1.49105E+04 -2.31247E+04  2.41785E+04 -1.24392E+04
  2.11114E+04 -6.54572E+02  1.61544E+04  6.58632E+03  8.47647E+03  2.03424E+03  1.11331E+04 -1.39280E+03
  2.13770E+04  2.39124E+03  2.66516E+04  1.72467E+04  1.73043E+04  3.97958E+04 -3.16049E+03  4.65713E+04
 -2.55524E+04  3.68312E+04 -4.23235E+04  2.03033E+04 -4.76631E+04 -4.67809E+03 -3.74541E+04 -2.72467E+04
 -1.45734E+04 -3.84871E+04  1.24263E+04 -3.34980E+04  2.83985E+04 -1.67662E+04  2.48547E+04  9.10137E+03
  7.42307E+03  1.89544E+04 -1.11079E+04  1.63966E+04 -1.98516E+04  2.15454E+03 -1.62326E+04 -1.28530E+04
 -4.25863E+02 -2.04645E+04  1.02784E+04 -1.50738E+04  1.39315E+04 -1.77012E+03  3.69941E+03  9.63512E+03
 -9.34148E+03  3.46394E+03 -9.80677E+03 -6.20505E+03 -1.58862E+03 -1.92153E+04  1.21833E+04 -2.17561E+04
  2.23489E+04 -1.15076E+04  2.75181E+04  4.33213E+03  2.31698E+04  1.92347E+04  1.21512E+04  3.09415E+04
 -4.90779E+03  3.18869E+04 -2.04870E+04  2.06629E+04 -2.21588E+04  4.24097E+03 -1.53206E+04 -5.81742E+03
 -6.18567E+03 -8.71649E+03  4.01414E+02  8.84333E+02 -2.41039E+03  4.03991E+03 -7.65010E+03  3.27902E+03
 -1.52988E+04 -1.62601E+03 -1.69634E+04 -1.08174E+04 -6.53855E+03 -1.99029E+04  6.37624E+03 -1.67714E+04
  1.39983E+04 -6.91439E+03  1.04275E+04  4.55824E+03 -1.84314E+03  6.84544E+03 -7.25074E+03 -1.38817E+03
 -7.24913E+03 -1.06008E+04 -2.09033E+02 -1.60533E+04  8.16616E+03 -1.56804E+04  2.14338E+04 -9.71713E+03
  2.38953E+04  9.96451E+02  1.88929E+04  1.48256E+04  2.69847E+03  1.99428E+04 -9.53097E+03  1.57227E+04
 -1.19521E+04  5.50765E+03 -6.07142E+03 -3.95649E+03  1.81935E+03 -5.90939E+03  7.90082E+03 -9.67854E+02
  8.16253E+03  5.98818E+03  1.10340E+03  1.09263E+04 -9.05591E+03  1.26463E+04 -1.67740E+04  2.26458E+03
 -1.10021E+04 -6.69770E+03 -9.13816E+02 -1.31774E+04  8.66271E+03 -7.86808E+03  1.11300E+04  3.82135E+03
  8.54786E+02  9.30720E+03 -8.38203E+03  1.09430E+04 -1.59095E+04  5.54118E+03 -1.50856E+04 -4.82699E+03
 -8.12765E+03 -1.70969E+04  3.63383E+03 -2.04957E+04  1.56456E+04 -1.14281E+04  1.81432E+04  2.45656E+03
  1.10910E+04  1.35524E+04 -8.68823E+02  1.67253E+04 -1.03018E+04  9.44756E+03 -1.25276E+04 -2.17865E+03
 -1.17453E+04 -1.08593E+04 -1.03241E+03 -1.28334E+04  6.27068E+03 -9.72430E+03  8.25439E+03 -3.98703E+03
  5.69569E+03  2.14748E+03 -2.76129E+02  6.65361E+02 -4.49730E+02 -4.13367E+03  3.32231E+03 -7.15140E+03
  1.17868E+04 -5.51294E+03  1.67819E+04  1.88695E+03  1.63874E+04  1.22257E+04  1.06143E+04  2.16395E+04
 -3.90724E+03  2.35285E+04 -2.01475E+04  1.83401E+04 -2.62470E+04  3.78976E+03 -2.28183E+04 -9.75628E+03
 -1.09455E+04 -1.80031E+04 -6.40646E+02 -1.48577E+04  4.88522E+03 -8.74709E+03  4.52628E+03 -4.44087E+03
  3.84790E+03 -2.93342E+03  3.28291E+03 -4.63226E+03  5.42166E+03 -3.64278E+03  7.44970E+03 -3.79389E+02
  1.16006E+04  2.10347E+03  6.38790E+03  8.78165E+03 -3.70944E+03  1.06297E+04 -1.17234E+04  8.43616E+03
 -1.64608E+04 -2.10393E+03 -9.10607E+03 -1.12535E+04 -1.34649E+03 -1.62076E+04  1.03420E+04 -1.97880E+04
  1.79169E+04 -9.13225E+03  2.15823E+04  2.99438E+03  1.49213E+04  1.52670E+04  2.39607E+03  1.93305E+04
 -6.50202E+03  1.47388E+04 -1.14482E+04  4.76565E+03 -7.78275E+03 -2.58973E+03 -2.21768E+03 -1.69679E+03
 -1.60602E+03  1.53501E+03 -2.40011E+03  3.45250E+03 -5.61490E+03  2.21478E+03 -9.12484E+03 -1.61370E+03
 -8.40816E+03 -1.04661E+04  6.91815E+01 -1.54273E+04  8.28379E+03 -1.40464E+04  1.54008E+04 -3.83278E+03
  1.65036E+04  7.25529E+03  7.08682E+03  1.43960E+04 -3.28030E+03  1.50718E+04 -1.12959E+04  1.02732E+04
 -1.50838E+04  2.56910E+02 -1.08092E+04 -9.39315E+03 -1.91742E+03 -1.17841E+04  6.10549E+03 -9.01948E+03
  8.70620E+03 -2.58002E+03  5.52177E+03  2.32534E+03  3.65759E+03  4.77591E+03  4.79513E+02  2.25895E+03
  2.65676E+03  2.72195E+03  4.22771E+03  1.38471E+03  5.15478E+03  4.37579E+03  4.10627E+03  7.82668E+03
 -3.31386E+03  1.12343E+04 -1.03168E+04  1.16906E+04 -1.66853E+04  2.36552E+03 -1.49159E+04 -6.52334E+03
 -8.02020E+03 -1.54396E+04  2.84757E+03 -1.83055E+04  9.21331E+03 -1.06265E+04  1.30771E+04 -2.99269E+03
  9.27340E+03  5.67358E+03  1.93435E+03  8.57793E+03 -5.25482E+03  5.21059E+03 -6.12379E+03 -1.64216E+03
 -1.83329E+03 -6.65909E+03  3.54880E+03 -6.19328E+03  6.88588E+03 -4.43894E+03  5.09830E+03  1.47693E+03
  4.05874E+03  3.80677E+03  2.39328E+03  3.72171E+03 -8.98126E+01  2.25569E+03  2.03328E+03 -3.98948E+02
  1.76023E+03 -2.40285E+02  6.78129E+03  3.84912E+03  3.52750E+03  8.26211E+03 -2.33101E+03  1.18382E+04
 -7.42996E+03  7.75001E+03 -1.13277E+04  2.56737E+03 -8.85542E+03 -3.87691E+03 -2.98441E+03 -5.41023E+03
  2.60914E+03 -5.46203E+03  2.66877E+03 -3.20733E+03  3.21440E+03  4.76213E+02 -7.96737E+02  5.00424E+03
 -6.30512E+03  2.75792E+03 -5.63263E+03 -5.44145E+03 -5.32013E+03 -9.72814E+03  2.06517E+03 -1.01793E+04
  5.68816E+03 -4.64908E+03  5.56297E+03  3.71479E+02  4.32748E+03  1.20835E+03  1.01190E+03  6.16423E+03
 -4.38854E+03  3.61704E+02 -5.16597E+03 -2.65773E+03 -1.49089E+02 -6.91008E+03  7.57161E+03 -5.94728E+03
  9.20986E+03  6.46803E+02  9.28893E+03  6.10073E+03  1.70363E+03  1.01941E+04 -3.23571E+03  9.18814E+03
 -8.86620E+03  5.29634E+03 -1.02846E+04 -3.06258E+03 -5.61724E+03 -6.26726E+03  3.04210E+03 -6.62336E+03
  7.67284E+03 -3.38046E+03  3.90055E+03  3.94257E+03  2.17640E+03  5.35075E+03 -2.64942E+03  5.66148E+03
 -3.39082E+03  3.70445E+03 -1.94610E+03  1.94404E+03 -4.03528E+02 -8.85037E+02 -2.51884E+03  4.37771E+03
 -2.17858E+03  1.36390E+03 -6.58182E+03  4.40974E+03 -1.21397E+04  1.90427E+03 -1.17248E+04 -7.92297E+03
 -7.18552E+03 -1.22705E+04  3.52976E+03 -1.56278E+04  9.54008E+03 -1.19469E+04  1.59630E+04 -4.33368E+03
  1.31264E+04  3.46057E+03  1.04622E+04  9.77759E+03  3.73043E+02  1.16047E+04 -3.71976E+03  1.02607E+04
 -7.16503E+03  1.30815E+03 -4.58602E+03 -9.49588E+02 -9.05597E+02 -1.70981E+03 -5.24254E+02 -1.16945E+03
 -1.86113E+03  2.28247E+03 -2.53392E+03 -2.87096E+02  1.02975E+03 -2.08336E+03 -5.64419E+02 -4.93367E+03
  3.84062E+03 -3.28175E+03  7.29122E+03  1.26133E+03  7.62737E+03  5.72075E+03  3.54934E+03  1.01885E+04
 -5.97351E+03  1.19487E+04 -1.28477E+04  6.26252E+03 -1.41782E+04 -2.30345E+03 -9.14060E+03 -8.31598E+03
 -3.69443E+03 -9.91496E+03  4.20950E+03 -9.83147E+03  7.80521E+03 -5.60978E+03  6.77532E+03 -9.82678E+01
  2.96495E+03  2.23687E+03 -8.93479E+02  2.36522E+03 -4.25379E+03  1.08148E+03 -9.15704E+02 -1.82799E+03
  3.89528E+03 -2.62449E+02  3.82958E+03  1.13185E+03  2.85896E+03  4.66268E+03 -1.91885E+02  3.05633E+03
 -4.75126E+03  3.28020E+03 -7.05389E+03  2.40497E+03 -6.02857E+03 -5.17348E+03 -1.27508E+03 -8.93312E+03
  5.53409E+03 -9.24195E+03  8.45836E+03 -1.72301E+03  7.65863E+03  2.84319E+03  4.78288E+03  7.70944E+03
 -1.65138E+01  7.90529E+03 -3.07679E+03  5.01912E+03 -4.03899E+03  3.31530E+03 -3.22818E+03  9.71430E+02
 -1.73873E+03 -1.06585E+03 -3.28716E+02  2.50066E+03 -3.77106E+03  1.48386E+03 -4.20014E+03 -2.06531E+03
 -3.95887E+03 -3.51255E+03 -2.68914E+03 -8.01925E+03  3.85468E+03 -9.95026E+03  6.54315E+03 -4.37182E+03
  7.44389E+03  1.36140E+03  3.60406E+03  5.42365E+03 -1.50972E+03  6.49970E+03 -5.31138E+03  5.14324E+03
