 $NMID ID='MM_0lb_SNR200_11hz_g45_96.RAW', FMTDAT='(8E13.5)'
 TRAMP=1., VOLUME=1. $END
  3.09958E+05  7.24679E+02  3.38242E+05  2.50938E+05  8.47342E+04  3.37015E+05 -1.33247E+05  2.51816E+05
 -1.91521E+05  8.34948E+04 -1.13281E+05 -3.22471E+04  4.12495E+02 -5.15640E+04  5.53710E+04 -1.94835E+02
  3.48068E+04  5.22742E+04 -1.62453E+04  7.57431E+04 -6.04945E+04  6.47881E+04 -8.47677E+04  3.27449E+04
 -8.14181E+04 -1.13970E+04 -5.85839E+04 -5.34858E+04 -1.69796E+04 -7.06662E+04  2.75603E+04 -4.72053E+04
  4.01471E+04  3.70101E+03  1.73762E+04  4.72380E+04 -3.58087E+04  4.79438E+04 -6.72723E+04 -5.06884E+02
 -5.52376E+04 -5.92934E+04 -7.62160E+03 -7.75378E+04  3.57292E+04 -5.45486E+04  4.86624E+04 -1.84225E+04
  4.46226E+04  1.07552E+04  3.21721E+04  2.53067E+04  1.60987E+04  2.94389E+04 -5.58735E+03  2.73271E+04
 -2.16555E+04  1.30516E+04 -1.82637E+04 -5.71175E+03  6.34984E+03 -7.41034E+03  2.22622E+04  1.18279E+04
  8.06510E+03  3.56641E+04 -3.30035E+04  3.64441E+04 -6.53864E+04  1.63884E+03 -5.97081E+04 -4.34500E+04
 -1.28092E+04 -6.39633E+04  3.95013E+04 -4.66207E+04  6.07496E+04 -2.40654E+03  3.59155E+04  3.43935E+04
 -5.80329E+03  3.89725E+04 -3.04517E+04  1.70673E+04 -3.16059E+04 -3.73668E+03 -1.72736E+04 -1.05145E+04
 -8.67633E+03 -1.43881E+04 -1.12503E+03 -1.98614E+04  6.54862E+03 -2.32345E+04  1.46815E+04 -1.24228E+04
  1.08892E+04  5.14179E+03 -9.50705E+03  1.25719E+04 -2.07405E+04 -5.54825E+03 -8.18733E+03 -3.57418E+04
  2.46797E+04 -4.52057E+04  5.02061E+04 -2.11476E+04  4.70611E+04  2.03517E+04  1.54981E+04  4.62807E+04
 -1.61170E+04  3.32295E+04 -2.61468E+04  3.54300E+03 -1.06772E+04 -2.81603E+04  2.10165E+04 -3.32089E+04
  4.27365E+04 -9.68978E+03  3.79704E+04  2.44028E+04  2.07872E+04  4.80028E+04 -8.13463E+03  5.29203E+04
 -3.40959E+04  3.58863E+04 -4.44919E+04  1.05535E+04 -4.45262E+04 -1.77494E+04 -2.46303E+04 -4.00085E+04
  7.67011E+03 -3.94746E+04  3.19303E+04 -1.67720E+04  3.15357E+04  1.10036E+04  3.56456E+03  1.87492E+04
 -1.32602E+04  9.39241E+03 -1.09907E+04 -7.65074E+03  5.16525E+03 -1.10176E+04  1.83194E+04  5.37081E+03
  1.34256E+04  2.25299E+04 -5.33843E+03  2.60735E+04 -2.18522E+04  1.24876E+04 -2.86656E+04 -4.48051E+03
 -2.28574E+04 -1.74872E+04 -9.95485E+03 -2.32092E+04  4.13189E+03 -2.36044E+04  1.70122E+04 -2.17398E+04
  2.86692E+04 -1.26342E+04  3.39884E+04  3.70888E+03  2.36968E+04  2.03289E+04  3.61601E+03  3.94577E+04
 -1.89099E+04  3.29804E+04 -2.85977E+04  1.09453E+04 -2.20567E+04 -1.16173E+04 -4.79395E+03 -1.33391E+04
  1.68495E+03 -1.65882E+03 -6.60616E+03  6.77116E+03 -1.84830E+04  6.10617E+03 -1.83103E+04 -8.69341E+03
 -1.02573E+04 -2.14486E+04  5.55689E+03 -2.59501E+04  1.72413E+04 -1.82126E+04  1.92794E+04 -2.17226E+03
  1.41386E+04  1.53640E+04 -1.30311E+03  2.16193E+04 -1.47344E+04  1.24034E+04 -2.24808E+04 -5.50020E+03
 -1.44080E+04 -1.88534E+04 -1.54085E+03 -2.64988E+04  1.26684E+04 -2.14226E+04  2.04517E+04 -1.07156E+04
  1.96276E+04  4.37899E+01  1.51907E+04  5.82404E+03  8.15916E+03  1.23975E+03  1.18448E+04 -2.68759E+03
  2.00095E+04  2.50016E+03  2.22276E+04  1.78203E+04  1.50534E+04  3.29420E+04 -2.83985E+03  3.93455E+04
 -2.24246E+04  3.34670E+04 -3.62859E+04  1.70244E+04 -3.95168E+04 -1.68603E+03 -3.21023E+04 -2.22524E+04
 -1.35275E+04 -3.24291E+04  1.16233E+04 -2.96596E+04  2.43089E+04 -1.35663E+04  2.11440E+04  6.96756E+03
  7.17573E+03  1.58673E+04 -9.55681E+03  1.36628E+04 -1.76660E+04  1.29359E+03 -1.39721E+04 -1.09530E+04
 -1.30000E+03 -1.80976E+04  9.15235E+03 -1.22580E+04  1.12839E+04 -2.42425E+03  3.81590E+03  7.73760E+03
 -6.90980E+03  1.96331E+03 -6.96391E+03 -4.98635E+03 -1.24562E+02 -1.71305E+04  1.19452E+04 -1.66484E+04
  1.90299E+04 -9.08701E+03  2.23624E+04  3.41451E+03  1.82401E+04  1.51026E+04  9.60912E+03  2.51068E+04
 -3.33573E+03  2.52061E+04 -1.78564E+04  1.62295E+04 -1.92904E+04  2.66961E+03 -1.23531E+04 -3.59297E+03
 -5.89454E+03 -6.25563E+03 -7.90681E+00  1.05655E+03 -2.48647E+03  2.96788E+03 -6.34384E+03  5.11011E+03
 -1.21051E+04 -4.24073E+02 -1.31170E+04 -1.03257E+04 -6.39555E+03 -1.70995E+04  5.72254E+03 -1.50028E+04
  1.21215E+04 -4.74422E+03  8.98973E+03  4.21304E+03  8.79838E+02  5.23478E+03 -5.51783E+03 -5.52036E+02
 -5.78983E+03 -8.93110E+03 -1.30328E+03 -1.30296E+04  6.87440E+03 -1.42463E+04  1.63887E+04 -7.73561E+03
  1.95565E+04  2.14251E+03  1.23990E+04  1.20699E+04  3.81096E+03  1.58658E+04 -8.88917E+03  1.30012E+04
 -1.16044E+04  3.22014E+03 -5.69311E+03 -2.98214E+03  1.04050E+03 -3.09971E+03  5.55096E+03 -5.23600E+02
  5.33372E+03  5.63103E+03  1.59203E+03  9.71519E+03 -6.59746E+03  1.10223E+04 -1.24745E+04  1.10373E+03
 -9.34212E+03 -6.51214E+03 -4.84975E+02 -1.07034E+04  8.01116E+03 -6.77037E+03  6.00876E+03  3.57327E+03
  1.80677E+03  8.07369E+03 -7.87804E+03  9.09147E+03 -1.28146E+04  4.16640E+03 -1.04891E+04 -2.95075E+03
 -6.62957E+03 -1.24377E+04  2.03899E+03 -1.49653E+04  1.05929E+04 -9.74976E+03  1.35214E+04  2.44693E+03
  7.92507E+03  1.13452E+04 -1.91892E+03  1.49889E+04 -9.14995E+03  7.61811E+03 -1.12919E+04  3.64780E+02
 -1.11491E+04 -8.82905E+03 -1.62995E+03 -9.51616E+03  4.61107E+03 -8.98772E+03  6.76876E+03 -3.31567E+03
  3.60406E+03  3.08242E+02 -7.09154E+02  2.75185E+03  3.23119E+02 -2.09659E+03  1.39938E+03 -5.81970E+03
  9.16904E+03 -4.49001E+03  1.33995E+04  1.14048E+03  1.21458E+04  8.32150E+03  9.10195E+03  1.68146E+04
 -4.70700E+03  1.97084E+04 -1.52357E+04  1.47731E+04 -2.10912E+04  2.54536E+03 -1.62441E+04 -6.51287E+03
 -7.50024E+03 -1.41235E+04  7.56149E+01 -1.13703E+04  3.82527E+03 -6.19853E+03  3.34619E+03 -3.57129E+03
  1.16967E+03 -2.37740E+03  2.37030E+03 -3.86091E+03  5.28426E+03 -2.96084E+03  7.66115E+03 -8.21808E+02
  9.54714E+03  2.46543E+03  5.87970E+03  8.38192E+03 -7.48661E+02  9.00857E+03 -9.59199E+03  7.36973E+03
 -1.14632E+04 -3.84325E+02 -5.79301E+03 -8.14392E+03 -1.04282E+03 -1.22719E+04  7.31826E+03 -1.26977E+04
  1.31773E+04 -6.38552E+03  1.54040E+04  2.48839E+03  1.22309E+04  9.77778E+03  1.83491E+03  1.37880E+04
 -5.87607E+03  1.27720E+04 -8.71397E+03  3.95171E+03 -5.27789E+03 -1.40672E+03 -2.29479E+03 -1.71005E+03
 -1.30522E+03  5.92492E+02 -1.81373E+03  3.98099E+03 -4.92275E+03  1.67009E+03 -7.31851E+03 -6.73525E+02
 -5.26729E+03 -7.53202E+03 -6.48958E+01 -1.03279E+04  7.03054E+03 -1.06347E+04  1.14274E+04 -3.96261E+03
  1.08908E+04  4.91047E+03  5.19065E+03  1.08099E+04 -2.43750E+03  1.09881E+04 -7.84749E+03  6.88780E+03
 -1.10286E+04  1.37278E+03 -7.58246E+03 -6.06004E+03 -3.69933E+02 -1.08322E+04  5.58296E+03 -6.83530E+03
  6.42557E+03 -1.22864E+03  4.10337E+03  2.02565E+03  2.02109E+03  3.65332E+03  2.23507E+03  9.88091E+02
  3.36836E+03  1.90192E+03  2.40187E+03  1.03611E+03  2.75684E+03  3.31981E+03  2.03534E+03  4.89507E+03
 -4.07470E+03  9.68834E+03 -8.80860E+03  9.28359E+03 -1.14010E+04  3.11143E+03 -1.31336E+04 -4.24254E+03
 -5.62281E+03 -1.14516E+04  8.67637E+02 -1.31326E+04  6.33547E+03 -8.18652E+03  8.72387E+03 -2.48609E+03
  6.70954E+03  4.20480E+03  9.47407E+02  5.74720E+03 -3.38955E+03  4.43686E+03 -3.20691E+03  1.56584E+03
 -1.76010E+03 -3.71110E+03  1.81837E+03 -5.66374E+03  4.09004E+03 -3.02783E+03  5.44697E+03 -3.82129E+02
  2.41692E+03  2.64064E+03  2.36122E+02  1.83834E+03 -1.93635E+02  5.05055E+02  2.49112E+03 -8.82668E+02
  1.68728E+03  2.53506E+02  3.81495E+03  1.29809E+03  2.30387E+03  5.96196E+03 -2.14701E+02  7.81684E+03
 -4.81167E+03  4.63697E+03 -6.54679E+03  5.88618E+02 -6.25474E+03 -2.57012E+03 -2.09274E+03 -2.51564E+03
  9.64903E+02 -4.26137E+03  2.69415E+03 -1.97172E+03  3.13393E+03  1.08411E+03 -6.05934E+02  4.51649E+03
 -4.52932E+03  3.06943E+03 -6.12405E+03 -3.61963E+03 -3.41019E+03 -6.54277E+03  1.05109E+02 -6.19181E+03
  4.35680E+03 -3.57802E+03  4.72269E+03 -1.15224E+03  4.22952E+03  1.45076E+02  7.42719E+02  3.19065E+03
 -1.76535E+03  9.50911E+02 -2.55791E+03 -2.04242E+03  7.12796E+02 -4.59064E+03  6.16736E+03 -5.90241E+03
  6.55963E+03 -3.21558E+02  6.58598E+03  4.26911E+03  3.15307E+03  7.40678E+03 -2.07558E+03  8.07137E+03
 -5.13365E+03  3.30439E+03 -5.69061E+03 -1.48313E+03 -3.00473E+03 -5.38310E+03  2.06456E+03 -4.18619E+03
  4.79598E+03 -3.38941E+03  3.20284E+03 -1.76361E+02  3.24188E+03  5.08135E+03 -4.77768E+02  3.72729E+03
 -1.88046E+03  1.13311E+03 -1.13652E+03  6.06260E+02 -1.30887E+03  1.11838E+03 -1.42799E+03  1.69542E+03
 -1.42553E+03  2.04102E+03 -5.37524E+03  3.17348E+03 -8.02812E+03  5.67404E+02 -7.28130E+03 -3.84948E+03
 -4.31365E+03 -7.77729E+03  2.04470E+03 -1.11199E+04  6.55796E+03 -8.79455E+03  8.78532E+03 -2.47550E+03
  8.93336E+03  3.36869E+03  5.63415E+03  6.39269E+03  4.20114E+01  7.52720E+03 -2.94732E+03  5.04562E+03
 -3.57544E+03  2.47826E+03 -2.08366E+03 -1.72058E+02  2.43016E+02 -5.89598E+02 -1.49050E+03  3.80071E+02
 -5.69479E+02  8.60931E+02 -2.18076E+03 -1.27300E+03  9.12692E+02 -9.08826E+02  3.32489E+01 -2.66496E+03
  2.94600E+03 -3.18905E+03  4.93065E+03 -9.53480E+02  4.73159E+03  4.71163E+03  8.18188E+02  7.18078E+03
 -3.18360E+03  8.69225E+03 -7.04830E+03  6.59792E+03 -8.69293E+03 -5.68659E+02 -8.13624E+03 -4.83027E+03
 -3.00099E+03 -7.42664E+03  2.54549E+03 -6.30356E+03  5.03045E+03 -3.91628E+03  4.62935E+03  5.99924E+02
  2.54139E+03  2.77257E+03  8.95941E+02  1.48407E+03 -2.42478E+03 -7.04011E+02 -8.76152E+02 -2.31582E+03
  2.34300E+03 -7.98937E+02  3.31696E+03  1.06773E+03  2.25185E+03  3.34977E+03 -1.52394E+02  3.89124E+03
 -3.52460E+03  2.98080E+03 -4.87423E+03 -3.87027E+02 -3.87873E+03 -3.44073E+03 -9.63114E+02 -6.03989E+03
  4.25588E+03 -3.81703E+03  5.88213E+03 -1.46201E+03  5.45473E+03  2.34137E+03  2.86194E+03  4.70703E+03
  6.94906E+02  5.24061E+03 -2.14017E+03  2.20176E+03 -3.07920E+03  1.65940E+03 -3.34811E+03  1.08470E+03
 -1.03721E+03  1.30597E+03  4.31417E+02  1.08630E+03 -2.84828E+03  1.32346E+03 -2.82130E+03 -5.23342E+02
 -4.22134E+03 -1.13791E+03 -1.87282E+03 -4.67221E+03  3.37340E+03 -4.35034E+03  4.63515E+03 -2.02821E+03
  3.48280E+03  8.08295E+02  1.81557E+03  3.73634E+03  1.09478E+03  7.20931E+03 -3.26203E+03  1.82572E+03
