 $NMID ID='MM_0lb_SNR200_9hz_g60_81.RAW', FMTDAT='(8E13.5)'
 TRAMP=1., VOLUME=1. $END
  3.10507E+05  1.33623E+03  3.37668E+05  2.51117E+05  8.50483E+04  3.38983E+05 -1.33471E+05  2.51644E+05
 -1.89826E+05  8.29186E+04 -1.13459E+05 -3.24235E+04  1.08888E+03 -5.06015E+04  5.27272E+04  1.17947E+03
  3.59615E+04  5.33809E+04 -1.60182E+04  7.60635E+04 -6.20516E+04  6.38056E+04 -8.67726E+04  3.31027E+04
 -8.33673E+04 -1.24329E+04 -5.74907E+04 -5.19058E+04 -1.44388E+04 -7.10513E+04  3.01740E+04 -4.86004E+04
  4.04156E+04  1.83244E+03  1.89541E+04  4.77428E+04 -3.44448E+04  4.69856E+04 -6.79614E+04 -9.51943E+02
 -5.50161E+04 -5.94856E+04 -6.65008E+03 -7.92771E+04  3.57293E+04 -5.73965E+04  4.88374E+04 -1.81095E+04
  4.62486E+04  1.12788E+04  3.47759E+04  2.59144E+04  1.55653E+04  3.22696E+04 -3.97362E+03  2.92067E+04
 -2.39181E+04  1.28910E+04 -1.74136E+04 -5.73478E+03  8.61687E+03 -5.17495E+03  2.38804E+04  1.48358E+04
  7.07998E+03  3.68941E+04 -3.41581E+04  3.75554E+04 -6.60146E+04  3.07312E+03 -5.92457E+04 -4.51789E+04
 -1.34300E+04 -6.55748E+04  4.14073E+04 -4.71624E+04  6.21276E+04 -2.12246E+03  3.73393E+04  3.46829E+04
 -4.44597E+03  4.04854E+04 -3.36527E+04  1.91822E+04 -3.29839E+04 -4.73463E+03 -2.01204E+04 -1.22016E+04
 -9.06932E+03 -1.61364E+04  4.68208E+02 -1.80955E+04  7.52249E+03 -2.45182E+04  1.43917E+04 -1.36683E+04
  9.65584E+03  4.60695E+03 -1.14421E+04  1.28553E+04 -2.41218E+04 -7.71182E+03 -8.27829E+03 -3.78245E+04
  2.55912E+04 -4.70304E+04  5.25814E+04 -2.05768E+04  4.92239E+04  2.23065E+04  1.68666E+04  4.71667E+04
 -1.76240E+04  3.66189E+04 -2.84081E+04  2.95581E+03 -1.15361E+04 -3.06273E+04  2.15755E+04 -3.81856E+04
  4.66540E+04 -1.11325E+04  4.19093E+04  2.48285E+04  2.20952E+04  5.19894E+04 -8.47482E+03  5.82838E+04
 -3.56057E+04  3.79425E+04 -4.95952E+04  1.26437E+04 -4.90121E+04 -2.03202E+04 -2.77401E+04 -4.39739E+04
  7.90438E+03 -4.28867E+04  3.52672E+04 -1.65955E+04  3.31826E+04  9.65368E+03  5.70841E+03  2.05237E+04
 -1.22114E+04  9.54783E+03 -1.14765E+04 -7.40536E+03  6.55713E+03 -1.08951E+04  1.93043E+04  6.03378E+03
  1.48833E+04  2.22694E+04 -4.38426E+03  2.77093E+04 -2.44589E+04  1.30812E+04 -3.26577E+04 -1.81181E+03
 -2.66818E+04 -1.83612E+04 -1.17876E+04 -2.60610E+04  7.00092E+03 -2.79522E+04  2.07921E+04 -2.60094E+04
  3.39419E+04 -1.32892E+04  3.90268E+04  4.69553E+03  2.75882E+04  2.65057E+04  6.11399E+03  4.08871E+04
 -2.04795E+04  3.48184E+04 -3.04452E+04  1.26803E+04 -2.39933E+04 -1.16275E+04 -5.88316E+03 -1.31517E+04
 -5.92513E+02 -5.46540E+02 -8.12272E+03  8.82983E+03 -2.16610E+04  3.11088E+03 -2.31577E+04 -1.15354E+04
 -1.40745E+04 -2.52256E+04  7.91557E+03 -2.94498E+04  1.94584E+04 -2.11164E+04  2.29417E+04 -3.75768E+03
  1.54187E+04  1.60566E+04 -3.78561E+03  2.57956E+04 -1.73530E+04  1.49023E+04 -2.61459E+04 -6.40406E+03
 -1.81630E+04 -2.24783E+04 -2.41002E+03 -2.84746E+04  1.25821E+04 -2.44258E+04  2.43400E+04 -1.25380E+04
  2.23791E+04 -1.43631E+03  1.66698E+04  4.77896E+03  9.71802E+03  2.24912E+03  1.18801E+04 -2.26115E+03
  2.28095E+04  3.72649E+03  2.71997E+04  1.92488E+04  1.72506E+04  3.93560E+04 -4.58295E+03  4.56129E+04
 -2.58234E+04  3.86393E+04 -4.34146E+04  2.08373E+04 -4.80031E+04 -4.56511E+03 -3.89375E+04 -2.73776E+04
 -1.42177E+04 -4.04672E+04  1.62634E+04 -3.41187E+04  3.02444E+04 -1.48584E+04  2.46508E+04  9.33106E+03
  9.35516E+03  2.05247E+04 -1.15090E+04  1.55190E+04 -2.11434E+04  3.24415E+03 -1.61303E+04 -1.40643E+04
  5.59527E+02 -1.90147E+04  1.09582E+04 -1.55993E+04  1.45470E+04 -1.69772E+03  2.36419E+03  1.03648E+04
 -9.50767E+03  4.08735E+03 -9.57206E+03 -7.03998E+03 -2.15449E+03 -2.03509E+04  1.22766E+04 -2.03026E+04
  2.48969E+04 -1.36675E+04  2.76788E+04  3.62831E+03  2.59360E+04  2.14073E+04  1.13402E+04  3.00838E+04
 -3.99951E+03  3.26872E+04 -2.21653E+04  1.91080E+04 -2.30116E+04  5.09234E+03 -1.62166E+04 -7.54553E+03
 -7.32534E+03 -7.42211E+03 -1.50131E+03  1.39138E+02 -2.56041E+03  3.51766E+03 -8.81015E+03  6.94438E+03
 -1.42226E+04 -9.12818E+02 -1.47715E+04 -1.26448E+04 -7.65258E+03 -1.97633E+04  7.10637E+03 -1.66656E+04
  1.36064E+04 -6.17580E+03  8.85470E+03  4.12936E+03 -2.43967E+02  7.88635E+03 -7.36970E+03 -4.78958E+02
 -7.78201E+03 -1.19179E+04 -5.73422E+01 -1.64673E+04  9.20336E+03 -1.86791E+04  2.14642E+04 -9.51245E+03
  2.54587E+04  3.92480E+03  1.76315E+04  1.71623E+04  1.95861E+03  2.06420E+04 -9.80135E+03  1.67703E+04
 -1.45906E+04  4.54770E+03 -6.66169E+03 -4.93242E+03  1.98747E+03 -3.65448E+03  9.70118E+03 -1.15756E+03
  7.96131E+03  9.69292E+03  7.11446E+02  1.39798E+04 -9.59199E+03  1.40196E+04 -1.72657E+04  3.25633E+03
 -1.15375E+04 -9.75992E+03  3.57237E+02 -1.39703E+04  8.91256E+03 -6.61119E+03  9.14621E+03  3.77444E+03
  3.55650E+03  1.16816E+04 -8.41288E+03  1.29265E+04 -1.43583E+04  5.10607E+03 -1.48372E+04 -5.70772E+03
 -9.61404E+03 -1.71865E+04  5.11703E+03 -1.86751E+04  1.66048E+04 -1.10496E+04  1.80836E+04  3.17456E+03
  1.09081E+04  1.32642E+04 -1.63063E+03  1.55109E+04 -1.18835E+04  9.73873E+03 -1.44374E+04 -8.59512E+02
 -1.11433E+04 -1.15539E+04 -2.89323E+02 -1.27557E+04  6.47559E+03 -9.48565E+03  9.02178E+03 -4.26799E+03
  5.70808E+03  3.54666E+03 -7.38571E+02  8.34858E+02 -1.14273E+03 -2.74282E+03  3.05324E+03 -8.37654E+03
  1.28197E+04 -5.22631E+03  1.71218E+04  1.03301E+03  1.81538E+04  1.08783E+04  9.37858E+03  2.14522E+04
 -6.20650E+03  2.60444E+04 -2.21061E+04  1.89170E+04 -2.67948E+04  3.65935E+03 -2.50408E+04 -9.60314E+03
 -1.05086E+04 -1.98873E+04  7.19151E+02 -1.49655E+04  3.94749E+03 -8.96226E+03  6.00428E+03 -6.48016E+03
  4.64929E+03 -3.80571E+03  3.49601E+03 -4.58591E+03  4.81209E+03 -5.73844E+03  8.34314E+03 -1.22200E+03
  1.16173E+04  2.55398E+03  8.11749E+03  1.06971E+04 -3.00324E+03  1.34671E+04 -1.17749E+04  8.11886E+03
 -1.63575E+04 -1.22454E+03 -9.83819E+03 -1.28459E+04 -2.74897E+03 -1.78932E+04  9.98022E+03 -1.74997E+04
  1.65971E+04 -7.57773E+03  2.12140E+04  3.16928E+03  1.46561E+04  1.34581E+04  2.41506E+03  1.72698E+04
 -7.56866E+03  1.50743E+04 -1.20218E+04  5.17374E+03 -8.28049E+03 -1.86818E+03 -3.03812E+03 -2.82598E+03
 -9.78357E+02 -7.26973E+02 -2.56515E+03  1.93283E+03 -7.30176E+03  4.30850E+03 -1.41463E+04 -6.98299E+02
 -8.44816E+03 -1.12270E+04 -3.62007E+02 -1.58369E+04  9.06226E+03 -1.33126E+04  1.48127E+04 -5.70749E+03
  1.53670E+04  9.43791E+03  7.68166E+03  1.36308E+04 -1.76795E+03  1.60956E+04 -1.11357E+04  1.16436E+04
 -1.54919E+04  9.69605E+02 -1.12104E+04 -1.02373E+04 -4.44987E+02 -1.21291E+04  7.21690E+03 -8.62966E+03
  1.13351E+04 -1.88074E+03  7.75329E+03  2.02851E+03  2.77881E+03  6.06744E+03  2.26314E+03  3.52575E+03
  3.09092E+03  1.98394E+03  3.21686E+03  1.90416E+03  4.36691E+03  5.50863E+03  5.30630E+03  8.67827E+03
 -2.90603E+03  1.30565E+04 -1.06822E+04  1.25395E+04 -1.62978E+04  4.54866E+03 -1.70799E+04 -6.92163E+03
 -7.39047E+03 -1.66302E+04  3.10108E+03 -1.85114E+04  9.13802E+03 -1.08982E+04  1.23623E+04 -3.15991E+03
  1.00348E+04  5.95922E+03  2.25706E+03  1.04447E+04 -3.74931E+03  5.19437E+03 -6.17014E+03 -1.53534E+03
 -2.63830E+03 -7.21054E+03  3.16306E+03 -9.38139E+03  4.42346E+03 -4.97329E+03  6.12657E+03  1.89460E+03
  4.21039E+03  4.00845E+03  2.95360E+03  2.19448E+03 -1.48920E+03  3.75325E+03  1.20632E+03 -7.40376E+02
  3.53908E+03  2.68790E+02  6.53908E+03  2.99811E+03  4.16732E+03  8.70507E+03 -9.40749E+02  1.11557E+04
 -8.76125E+03  6.53745E+03 -1.12328E+04  1.75540E+03 -8.52605E+03 -4.24292E+03 -3.52891E+03 -7.78082E+03
  2.00840E+03 -7.56789E+03  5.04983E+03 -2.22830E+03  4.46117E+03  3.35586E+03 -2.35055E+03  4.18342E+03
 -4.64933E+03  4.23595E+03 -7.14851E+03 -2.44028E+03 -2.27427E+03 -9.04320E+03  1.97442E+01 -9.93977E+03
  6.45577E+03 -5.17066E+03  6.84079E+03  3.25826E+02  5.72393E+03  3.35214E+03  1.80145E+03  5.58281E+03
 -4.14030E+03  8.05466E+02 -3.28951E+03 -2.76175E+03  2.13445E+03 -8.95408E+03  7.80038E+03 -6.50427E+03
  1.16534E+04  6.94599E+02  1.10791E+04  6.62689E+03  2.78440E+03  1.21921E+04 -4.85576E+03  1.03281E+04
 -9.63046E+03  5.39244E+03 -9.65570E+03 -2.33952E+03 -5.61662E+03 -8.31354E+03  2.45609E+03 -6.80745E+03
  6.61514E+03 -2.54662E+03  6.61899E+03  4.54406E+03  1.59351E+03  5.44652E+03  2.17704E+02  4.94383E+03
 -3.24864E+03  3.26574E+03 -3.46652E+03  1.07861E+03 -3.37328E+02  7.82707E+02 -2.33010E+03  3.40499E+03
 -2.37649E+03  3.97462E+03 -6.03111E+03  3.07509E+03 -9.42593E+03  8.68328E+02 -1.21808E+04 -7.95215E+03
 -4.46062E+03 -1.46520E+04  3.91760E+03 -1.85813E+04  1.00790E+04 -1.24947E+04  1.37857E+04 -4.37968E+03
  1.42431E+04  3.15484E+03  8.62720E+03  9.82634E+03  2.96219E+03  1.16575E+04 -4.75932E+03  8.98578E+03
 -4.99500E+03  3.87812E+03 -2.82303E+03 -1.68565E+03 -1.68982E+02 -1.78025E+03  6.58128E+02  6.03070E+02
 -1.49783E+03  1.99064E+03 -2.19060E+03  1.87377E+01 -1.71929E+02 -1.96142E+03 -9.05945E+02 -4.24220E+03
  5.12792E+03 -3.05934E+03  6.48224E+03  6.36911E+02  8.90368E+03  6.62602E+03  1.54613E+03  1.26497E+04
 -4.89626E+03  1.29088E+04 -1.17478E+04  5.99554E+03 -1.20327E+04 -4.88168E+02 -1.00288E+04 -8.08676E+03
 -4.22618E+03 -1.31487E+04  2.73553E+03 -1.19914E+04  7.55921E+03 -4.14348E+03  8.51530E+03  6.36874E+02
  4.26481E+03  3.42875E+03 -5.63433E+02  4.00203E+03 -9.97039E+02 -1.50873E+03  2.04490E+01 -2.56396E+03
  2.39000E+03 -5.91266E+02  4.72362E+03  2.28160E+03  2.47309E+03  4.66934E+03  1.28862E+03  5.54675E+03
 -4.70586E+03  4.30694E+03 -8.10546E+03 -5.96562E+02 -5.63774E+03 -4.69969E+03 -8.81115E+02 -1.04375E+04
  5.89483E+03 -8.58473E+03  9.62106E+03 -4.47094E+03  9.02496E+03  2.56079E+03  5.17260E+03  7.69282E+03
  7.91951E+02  8.70836E+03 -4.01500E+03  6.12093E+03 -5.61552E+03  4.25868E+03 -5.20174E+03 -7.52112E+02
 -3.07779E+03 -1.64871E+03 -1.97415E+03 -1.32204E+03 -4.27601E+03  1.06180E+03 -3.27810E+03 -2.02615E+03
 -5.79714E+03 -4.96594E+03 -2.29788E+03 -8.38588E+03  3.83529E+03 -7.80312E+03  6.03404E+03 -5.95605E+03
  7.69529E+03 -6.78052E+02  4.70741E+03  5.74326E+03 -1.61742E+03  8.27725E+03 -6.92300E+03  4.16454E+03
