 $NMID ID='MM_0lb_SNR200_20hz_g55_82.RAW', FMTDAT='(8E13.5)'
 TRAMP=1., VOLUME=1. $END
  3.09854E+05  1.63794E+03  3.37838E+05  2.49921E+05  8.41875E+04  3.37149E+05 -1.32369E+05  2.50107E+05
 -1.90142E+05  8.31138E+04 -1.10820E+05 -3.22803E+04  2.44075E+03 -5.03053E+04  5.43475E+04 -2.41083E+02
  3.59599E+04  5.27981E+04 -1.78554E+04  7.58277E+04 -5.98735E+04  6.34056E+04 -8.25656E+04  3.22154E+04
 -7.89706E+04 -1.16611E+04 -5.66965E+04 -4.97820E+04 -1.50257E+04 -6.81394E+04  2.58252E+04 -4.41588E+04
  3.99759E+04  3.80569E+03  1.56121E+04  4.77081E+04 -3.37994E+04  4.64366E+04 -6.51942E+04 -9.74979E+02
 -5.22982E+04 -5.58901E+04 -5.91477E+03 -7.48390E+04  3.30783E+04 -5.34602E+04  4.61558E+04 -1.62149E+04
  4.21162E+04  1.20137E+04  3.19330E+04  2.49895E+04  1.56220E+04  2.82128E+04 -4.97548E+03  2.76765E+04
 -2.13177E+04  1.23960E+04 -1.85055E+04 -4.22248E+03  4.20908E+03 -7.88511E+03  2.13792E+04  1.09760E+04
  6.41942E+03  3.33182E+04 -3.10960E+04  3.31070E+04 -6.04728E+04  1.76056E+03 -5.54805E+04 -4.10475E+04
 -1.26380E+04 -6.15358E+04  3.95130E+04 -4.30699E+04  5.55619E+04 -1.06724E+03  3.19783E+04  3.12324E+04
 -6.20832E+03  3.29629E+04 -2.88155E+04  1.31742E+04 -2.78341E+04 -5.85200E+03 -1.48240E+04 -1.02626E+04
 -7.11863E+03 -1.19546E+04 -5.35157E+02 -1.66607E+04  6.71060E+03 -2.15348E+04  1.49472E+04 -1.33068E+04
  1.20599E+04  3.71040E+03 -5.17311E+03  1.35295E+04 -2.00381E+04 -2.75209E+03 -7.32700E+03 -3.11434E+04
  2.07663E+04 -4.11144E+04  4.43345E+04 -1.93282E+04  4.19429E+04  1.87643E+04  1.39454E+04  4.16361E+04
 -1.50657E+04  3.13818E+04 -2.42756E+04  6.27049E+02 -8.68343E+03 -2.70172E+04  2.08456E+04 -3.25444E+04
  3.79519E+04 -7.71777E+03  3.02661E+04  2.33476E+04  1.59801E+04  4.33814E+04 -7.78648E+03  4.57762E+04
 -2.96558E+04  2.92721E+04 -3.73766E+04  8.97155E+03 -3.78393E+04 -1.54864E+04 -2.02947E+04 -3.48018E+04
  7.21378E+03 -3.43348E+04  2.86711E+04 -1.28106E+04  2.72810E+04  1.10212E+04  2.94716E+03  1.77540E+04
 -1.26305E+04  7.14219E+03 -8.94980E+03 -6.68442E+03  5.36210E+03 -1.06378E+04  1.76453E+04  6.88008E+03
  1.24856E+04  2.17321E+04 -6.69419E+03  2.28538E+04 -2.16907E+04  8.77292E+03 -2.48724E+04 -6.84281E+03
 -1.66897E+04 -1.60838E+04 -5.81572E+03 -1.65057E+04  3.81149E+03 -1.45780E+04  1.25883E+04 -1.46140E+04
  2.05716E+04 -1.26961E+04  2.80417E+04  7.93455E+02  2.09856E+04  1.78716E+04  4.62908E+03  3.20755E+04
 -1.56170E+04  2.71515E+04 -2.55917E+04  8.77693E+03 -1.95781E+04 -9.57835E+03 -3.74404E+03 -1.26386E+04
  1.37070E+03 -3.87882E+03 -2.73806E+03  5.23179E+03 -1.31927E+04  5.49810E+03 -1.26047E+04 -4.70422E+03
 -9.44780E+03 -1.63552E+04  5.65529E+03 -1.87152E+04  1.31024E+04 -1.25185E+04  1.28743E+04 -1.22040E+03
  9.29132E+03  1.05336E+04 -1.14874E+03  1.46990E+04 -1.02758E+04  8.67777E+03 -1.51333E+04 -3.23308E+03
 -1.16877E+04 -1.41729E+04 -1.57799E+03 -1.86180E+04  8.23046E+03 -1.59313E+04  1.53959E+04 -7.66283E+03
  1.43384E+04  4.49074E+02  1.03061E+04  3.54407E+03  5.51823E+03  1.08525E+03  5.70306E+03 -2.90946E+03
  1.20442E+04  2.33766E+03  1.34487E+04  1.22091E+04  8.45260E+03  2.34958E+04 -2.15216E+03  2.55856E+04
 -1.58423E+04  1.93889E+04 -2.39671E+04  8.59986E+03 -2.48187E+04 -2.06827E+03 -2.05913E+04 -1.38146E+04
 -1.05213E+04 -1.96368E+04  6.45904E+03 -1.87290E+04  1.57678E+04 -1.06200E+04  1.47435E+04  3.48683E+03
  5.70418E+03  1.02006E+04 -7.40024E+03  9.71101E+03 -1.29182E+04  3.23283E+03 -1.01915E+04 -8.09777E+03
  4.01030E+02 -1.30434E+04  5.75915E+03 -8.85111E+03  7.48129E+03 -1.57580E+03  1.14308E+03  4.77169E+03
 -5.74019E+03  1.37101E+03 -4.03935E+03 -4.89188E+03  1.00800E+03 -9.72599E+03  6.86595E+03 -9.60183E+03
  1.21110E+04 -4.69400E+03  1.05028E+04  2.98750E+03  9.78992E+03  8.40879E+03  4.43081E+03  1.29799E+04
 -1.25784E+03  1.55185E+04 -8.52057E+03  9.43111E+03 -1.11220E+04  3.46541E+03 -7.74335E+03 -2.77324E+03
 -4.06126E+03 -3.88575E+03 -8.10370E+02  1.95851E+03 -1.87831E+03  2.98919E+03 -3.29685E+03  3.66831E+03
 -6.96072E+03 -1.17966E+03 -8.60375E+03 -7.23626E+03 -3.19101E+03 -1.23269E+04  2.93062E+03 -7.72574E+03
  6.72275E+03 -3.39749E+03  4.97287E+03  1.35200E+03  8.54770E+02  2.95955E+03 -3.55436E+03 -1.68942E+02
 -1.52303E+03 -4.73136E+03 -6.31247E+02 -6.75291E+03  4.36135E+03 -7.27221E+03  9.18569E+03 -3.95794E+03
  1.00524E+04  1.16729E+03  7.89282E+03  4.83058E+03  1.73787E+03  8.46385E+03 -5.02843E+03  8.30580E+03
 -7.28878E+03  2.21990E+03 -3.46529E+03 -1.41085E+03  2.48084E+03 -1.34506E+03  5.30780E+03 -1.44678E+03
  3.65754E+03  2.95464E+03  1.35344E+02  5.66844E+03 -4.45082E+03  6.62209E+03 -7.92887E+03  2.79302E+03
 -5.35403E+03 -3.40851E+03  5.16840E+02 -5.38809E+03  3.38812E+03 -3.32247E+03  3.31932E+03  1.66818E+03
  7.98431E+02  3.37571E+03 -3.42560E+03  4.11086E+03 -4.10369E+03  2.40510E+03 -3.66374E+03 -1.21553E+03
 -2.04511E+03 -5.51964E+03  4.35707E+02 -6.12762E+03  5.53610E+03 -4.13979E+03  6.12134E+03 -2.43775E+02
  3.73356E+03  5.13075E+03  1.16258E+02  6.70082E+03 -4.59443E+03  3.16864E+03 -4.93746E+03 -4.10942E+02
 -5.29961E+03 -5.19744E+03 -3.18093E+02 -4.74595E+03  2.79808E+03 -3.36510E+03  3.22690E+03 -2.61426E+03
  3.14646E+03  5.15997E+01  1.70054E+02  1.49826E+03  9.88871E+02  7.54584E+01  4.81165E+02 -9.05142E+02
  3.57130E+03 -7.74220E+02  4.44433E+03  2.47472E+03  5.70769E+03  2.50819E+03  5.18856E+03  6.84832E+03
 -7.01947E+02  6.99392E+03 -7.54266E+03  6.73649E+03 -8.50746E+03  1.63279E+02 -7.08706E+03 -2.91342E+03
 -3.28607E+03 -6.15782E+03 -8.91362E+02 -4.60574E+03  1.54479E+03 -8.05886E+02  3.73568E+02 -2.30860E+03
  8.57814E+02 -1.67011E+03  3.01966E+03 -2.61950E+03  3.28895E+03 -6.72571E+02  3.96455E+03  1.31839E+03
  3.95016E+03  1.22168E+03 -2.35106E+02  4.56548E+03 -2.54428E+03  2.20717E+03 -4.39439E+03  1.94772E+03
 -3.92790E+03 -1.79976E+03 -7.81982E+02 -2.39168E+03  3.08652E+02 -4.35980E+03  1.79804E+03 -4.62246E+03
  3.74652E+03 -3.87163E+03  5.30564E+03  1.29054E+03  4.88698E+03  3.74554E+03  1.81762E+03  5.46337E+03
 -2.34835E+03  5.54699E+03 -2.00770E+03  1.52708E+03 -1.69241E+02 -1.21107E+03  7.39550E+01 -1.40222E+03
 -1.27270E+03  3.05264E+02 -1.94641E+03  2.00464E+03 -2.11314E+03  9.33334E+02 -3.66598E+03  2.28531E+02
 -9.15857E+02 -3.19127E+03  2.33633E+03 -2.54356E+03  1.59739E+03 -3.97493E+03  1.97035E+03 -2.37574E+03
  3.30049E+03  1.80233E+03  1.20869E+03  2.37294E+03  2.83268E+01  3.61086E+03 -1.96264E+03  8.86163E+02
 -1.46435E+03  5.69522E+02 -2.88690E+03 -2.51940E+03  5.57689E+01 -3.40145E+03  9.80054E+02 -3.43115E+03
  2.26924E+03 -6.54962E+02  1.78066E+03 -6.19988E+02 -5.37893E+01  1.48334E+03  8.75926E+02  4.16311E+02
  1.68102E+03  7.98282E+02  6.92713E+02  7.93091E+02  7.66792E+02  2.19913E+03  1.46373E+03  1.64735E+03
 -1.27992E+03  2.02058E+03 -2.56254E+03  3.09001E+03 -2.31121E+03  1.11263E+03 -3.07831E+03 -4.56525E+02
  5.57892E+01 -2.78680E+03 -2.23791E+02 -3.72351E+03  8.36039E+02 -2.11187E+03  1.17889E+03 -7.91931E+02
  1.21078E+03 -1.55273E+02  1.89059E+02  2.37615E+03  5.70061E+02  8.46586E+02 -1.53618E+01 -4.08848E+02
 -9.05609E+02 -1.58992E+03  7.61004E+02 -1.09414E+03  8.72840E+02 -6.42282E+02  2.66356E+02  3.48197E+02
  1.21592E+03 -6.92397E+01  3.87028E+01 -4.36955E+02 -5.69322E+01  1.54198E+03  1.39139E+03 -6.81723E+02
  1.87858E+02 -6.97448E+01  5.12606E+02  4.94724E+02 -5.79020E+02  2.54506E+03 -3.25444E+02  2.76033E+03
 -1.47162E+02  6.85243E+02 -1.69537E+03 -2.05660E+02 -1.08046E+03 -8.16525E+02 -5.47605E+02 -4.10172E+02
 -1.76408E+01 -1.77661E+03  4.07880E+02  2.73994E+02  9.03621E+02  8.39008E+02 -1.31233E+03  6.02485E+02
  1.96123E+02  1.14794E+03 -7.22258E+02 -1.08637E+03  4.52768E+02 -1.24753E+03  2.33936E+02 -1.66736E+03
  1.19407E+03  6.29145E+02  9.81092E+01  5.34586E+02 -7.75640E+02 -3.35702E+02  3.12499E+02  1.19588E+03
 -1.30556E+02  8.50318E+02 -7.70773E+02  6.51450E+02  7.63144E+02  1.63934E+01  1.21160E+02 -1.57677E+02
  6.69183E+02  1.94688E+02  2.90671E+03  1.17153E+03  6.38073E+02  1.11852E+03  5.56928E+02  1.18404E+03
 -8.22861E+02  2.78267E+02 -3.70313E+02 -6.57008E+02 -5.13278E+02 -1.59437E+03 -4.27579E+02  1.03366E+03
  1.51503E+03  2.25447E+02  5.61303E+02  7.89867E+02 -4.02558E+01  1.76625E+03 -1.61267E+02 -6.42481E+02
  4.39266E+01  4.58997E+02 -1.15912E+02  2.00924E+02  9.26403E+02  1.67931E+02  4.34495E+02  1.40873E+03
 -9.46834E+02  8.52037E+02 -1.96238E+03 -3.07259E+01 -6.32834E+02  7.34232E+02 -1.77225E+03 -9.51630E+02
 -1.02659E+03 -2.84167E+01  8.87947E+02 -2.25499E+03  1.19758E+03 -1.88838E+03  1.29265E+03 -1.62103E+02
  2.39880E+03 -8.77492E+02  4.49638E+01  1.53974E+03 -2.10905E+02  3.12718E+02 -5.23402E+02  1.70642E+03
 -6.01830E+02  5.04325E+02  5.08095E+02 -3.95442E+02 -1.15069E+02 -1.64678E+02 -6.97056E+02 -5.69928E+02
 -1.01875E+03  8.14898E+02 -7.18345E+02  3.42879E+02 -6.17501E+02 -1.10689E+02 -8.49479E+02 -1.14109E+03
  1.35301E+03  1.01591E+02  5.88344E+02 -1.81176E+02  7.85623E+02  5.91452E+02 -6.21780E+02  9.80141E+02
 -1.02319E+03  7.90277E+02 -1.25917E+03 -5.94247E+02 -3.19622E+02  1.99657E+02 -8.16478E+02 -8.52983E+02
 -5.92524E+02 -5.27993E+02  5.82451E+02 -1.02141E+03  1.96309E+01 -5.04358E+02  3.88704E+01  7.59441E+02
 -2.74577E+02  4.51209E+02 -4.40672E+00 -9.12213E+00 -3.50610E+02 -9.84620E+01  2.06028E+02  1.83657E+01
 -6.83179E+02  1.46110E+02 -7.10539E+02  4.39652E+02  5.02830E+02  2.21418E+02  9.26604E+02 -6.94233E+01
  1.16488E+02  2.73764E+02  8.23366E+02  1.11382E+02 -1.61908E+02  3.47061E+02 -1.44532E+02 -2.26926E+03
  8.63264E+02  4.36657E+02  3.82915E+02 -4.01600E+02  3.76711E+02 -2.95419E+02  9.94092E+02  1.19446E+03
  1.05824E+03  1.44052E+02  4.85007E+02  3.64118E+02 -7.54285E-01  1.29631E+01 -7.10600E+02 -5.01178E+02
 -7.70099E+02 -1.57490E+02 -4.09414E+02 -2.27363E+00 -6.73891E+02  5.68717E+02 -1.20152E+03 -1.44166E+02
 -8.92485E+02  3.34222E+02  5.02653E+02 -2.62136E+02  9.51872E+02 -1.43910E+03 -5.25713E+01  6.39710E+02
  6.84732E+02  5.04750E+02  4.41506E+01 -2.76464E+02 -1.96764E+02 -2.00683E+02  3.59328E+02  5.73067E+01
