 $NMID ID='MM_0lb_SNR200_7hz_g40_30.RAW', FMTDAT='(8E13.5)'
 TRAMP=1., VOLUME=1. $END
  3.10361E+05  1.57471E+02  3.37844E+05  2.50385E+05  8.55080E+04  3.39393E+05 -1.32919E+05  2.52877E+05
 -1.91197E+05  8.40671E+04 -1.12472E+05 -3.24300E+04  2.94860E+02 -5.11986E+04  5.35993E+04 -2.66988E+03
  3.48408E+04  5.21439E+04 -1.63271E+04  7.53614E+04 -6.24768E+04  6.44250E+04 -8.36182E+04  3.22501E+04
 -8.49394E+04 -1.14746E+04 -5.84302E+04 -4.94894E+04 -1.45680E+04 -7.08034E+04  2.80324E+04 -4.78150E+04
  4.04788E+04  1.91114E+03  1.76004E+04  4.85052E+04 -3.38351E+04  4.89433E+04 -6.96828E+04  4.22950E+02
 -5.54407E+04 -5.73187E+04 -8.22070E+03 -7.83452E+04  3.41865E+04 -5.78871E+04  5.04545E+04 -1.99520E+04
  4.55525E+04  1.14268E+04  3.23944E+04  2.68445E+04  1.66295E+04  2.98469E+04 -6.48764E+03  2.91508E+04
 -2.27679E+04  1.21275E+04 -1.77410E+04 -5.79864E+03  6.66820E+03 -8.18937E+03  2.49401E+04  1.58025E+04
  7.57677E+03  3.75110E+04 -3.41921E+04  3.86556E+04 -6.58629E+04  3.69153E+03 -5.85861E+04 -4.68556E+04
 -1.23766E+04 -6.72448E+04  4.16473E+04 -4.72560E+04  6.12447E+04 -3.49693E+03  3.69551E+04  3.49975E+04
 -6.12005E+03  4.15197E+04 -3.22367E+04  1.97407E+04 -3.48359E+04 -4.52532E+03 -1.94462E+04 -1.03644E+04
 -1.03415E+04 -1.30297E+04 -9.85415E+01 -1.98893E+04  9.45100E+03 -2.28205E+04  1.74773E+04 -1.14758E+04
  8.55607E+03  5.14759E+03 -9.59143E+03  1.15988E+04 -2.42655E+04 -7.53096E+03 -8.49183E+03 -3.87945E+04
  2.70425E+04 -4.65669E+04  5.39808E+04 -2.10837E+04  5.06534E+04  2.12735E+04  1.77489E+04  4.81785E+04
 -1.73169E+04  3.77936E+04 -2.82313E+04  1.91608E+03 -1.32461E+04 -3.04590E+04  2.40049E+04 -3.69531E+04
  4.57634E+04 -1.14383E+04  4.19521E+04  2.62109E+04  2.22311E+04  5.39048E+04 -8.43361E+03  5.88531E+04
 -3.75995E+04  3.91782E+04 -4.95127E+04  1.09250E+04 -4.88570E+04 -1.85018E+04 -2.77247E+04 -4.31598E+04
  7.12773E+03 -4.20285E+04  3.47806E+04 -1.81844E+04  3.35804E+04  1.12419E+04  6.86089E+03  1.95047E+04
 -1.52220E+04  1.01362E+04 -1.19309E+04 -6.07474E+03  4.50259E+03 -1.14982E+04  1.98493E+04  5.36117E+03
  1.52342E+04  2.35757E+04 -6.47237E+03  2.87561E+04 -2.64443E+04  1.67758E+04 -3.39613E+04 -1.79783E+03
 -2.69912E+04 -1.95505E+04 -1.06404E+04 -2.66951E+04  2.80212E+03 -2.55405E+04  2.14467E+04 -2.52932E+04
  3.31472E+04 -1.61420E+04  3.92557E+04  4.18675E+03  2.63768E+04  2.47925E+04  5.06666E+03  4.31024E+04
 -2.02832E+04  3.45332E+04 -3.10644E+04  1.19159E+04 -2.34136E+04 -1.15267E+04 -4.63620E+03 -1.29923E+04
 -4.48766E+02 -1.15202E+03 -7.43772E+03  9.86406E+03 -2.09925E+04  5.56522E+03 -2.14341E+04 -1.03239E+04
 -1.32587E+04 -2.42149E+04  5.74177E+03 -2.88330E+04  1.94342E+04 -2.06447E+04  2.47269E+04 -9.33648E+02
  1.59962E+04  1.58637E+04 -5.32432E+02  2.45462E+04 -1.67525E+04  1.51041E+04 -2.45186E+04 -3.97327E+03
 -2.01160E+04 -2.04178E+04 -1.44418E+03 -2.97187E+04  1.51664E+04 -2.42347E+04  2.65933E+04 -1.27525E+04
  2.33642E+04  6.54814E+02  1.73170E+04  5.67886E+03  9.67525E+03  2.58032E+03  1.12776E+04 -4.47188E+03
  2.42624E+04  1.45355E+03  2.73239E+04  2.00195E+04  1.91801E+04  3.86967E+04 -3.56022E+03  4.76403E+04
 -2.69560E+04  4.19145E+04 -4.51568E+04  2.16508E+04 -4.96240E+04 -2.86553E+03 -3.83768E+04 -2.87598E+04
 -1.47762E+04 -4.13118E+04  1.45819E+04 -3.56562E+04  2.87105E+04 -1.57930E+04  2.47450E+04  7.83046E+03
  8.75116E+03  1.78036E+04 -1.20067E+04  1.73321E+04 -2.09933E+04  2.38490E+03 -1.35807E+04 -1.38150E+04
 -2.02487E+03 -2.22266E+04  1.26415E+04 -1.37813E+04  1.33746E+04  9.88747E+02  2.28808E+03  8.73249E+03
 -1.13494E+04  4.35565E+03 -9.61703E+03 -8.64148E+03 -2.71103E+03 -2.16134E+04  1.17540E+04 -2.21363E+04
  2.52842E+04 -1.22789E+04  2.98006E+04  5.10014E+03  2.45236E+04  1.75545E+04  1.13590E+04  3.17107E+04
 -6.43216E+03  3.41026E+04 -2.10603E+04  2.08188E+04 -2.61658E+04  4.49789E+03 -1.65572E+04 -6.58029E+03
 -7.42731E+03 -7.33898E+03  1.86807E+02 -1.27916E+03 -3.64704E+03  3.61947E+03 -8.21328E+03  6.93664E+03
 -1.36704E+04 -1.30106E+03 -1.65527E+04 -1.17900E+04 -6.88480E+03 -2.15645E+04  6.45463E+03 -1.95634E+04
  1.44427E+04 -4.73657E+03  1.05781E+04  4.40149E+03 -1.29173E+03  6.55611E+03 -1.02282E+04  1.38708E+03
 -9.62838E+03 -9.97421E+03  5.40120E+02 -1.71227E+04  1.18763E+04 -1.81518E+04  2.14853E+04 -1.05946E+04
  2.57721E+04  2.55556E+03  1.98834E+04  1.59230E+04  3.75129E+03  2.04186E+04 -1.12791E+04  1.71745E+04
 -1.36363E+04  3.81212E+03 -6.84890E+03 -4.26938E+03  2.75528E+03 -5.10110E+03  1.00930E+04 -1.07773E+03
  6.59842E+03  9.39979E+03  2.37621E+03  1.54515E+04 -1.08724E+04  1.23910E+04 -1.56839E+04  2.77636E+03
 -1.24234E+04 -9.73638E+03 -1.06545E+03 -1.53285E+04  1.00851E+04 -7.94984E+03  1.07392E+04  6.44745E+03
  4.32975E+02  1.12668E+04 -8.51837E+03  1.33346E+04 -1.64060E+04  5.33281E+03 -1.51417E+04 -5.07998E+03
 -9.95810E+03 -2.08241E+04  4.22237E+03 -1.97989E+04  1.81625E+04 -1.09197E+04  1.82320E+04  9.55286E+02
  1.02741E+04  1.48596E+04 -1.63216E+03  1.77364E+04 -1.38214E+04  9.40436E+03 -1.49072E+04 -9.60114E+02
 -1.26109E+04 -1.15855E+04 -2.16063E+03 -1.34850E+04  6.12151E+03 -1.06073E+04  8.18917E+03 -4.26599E+03
  5.49129E+03  3.64922E+03 -5.95917E+02  2.50855E+03 -2.75715E+02 -2.63229E+03  2.61241E+03 -7.01132E+03
  1.30550E+04 -6.10179E+03  1.86354E+04  2.92733E+03  1.80523E+04  1.28450E+04  1.23589E+04  2.53293E+04
 -5.47331E+03  2.91334E+04 -2.34395E+04  2.02051E+04 -3.04358E+04  3.11418E+03 -2.32568E+04 -1.00467E+04
 -1.36028E+04 -1.86706E+04 -4.65524E+02 -1.80647E+04  4.73581E+03 -9.51810E+03  4.85093E+03 -5.68469E+03
  5.90490E+03 -2.39552E+03  1.79602E+03 -3.15607E+03  4.72592E+03 -4.68067E+03  7.51414E+03 -2.10204E+03
  9.54113E+03  3.58877E+03  7.58330E+03  1.01312E+04 -1.54111E+03  1.24850E+04 -1.19533E+04  1.16218E+04
 -1.56173E+04 -9.08618E+00 -1.02017E+04 -1.29523E+04 -2.61790E+03 -1.77331E+04  1.02518E+04 -1.92728E+04
  2.02892E+04 -1.05360E+04  2.26791E+04  4.59665E+03  1.72830E+04  1.49070E+04  5.43265E+02  2.09565E+04
 -8.24041E+03  1.70457E+04 -1.29621E+04  8.18150E+03 -9.43900E+03 -2.46408E+03 -3.47802E+03 -4.23741E+03
 -1.90779E+03  4.48131E+02 -2.26947E+03  2.67169E+03 -7.08856E+03  3.68904E+03 -1.15507E+04 -3.16062E+03
 -9.38430E+03 -1.14869E+04 -1.39591E+03 -1.72186E+04  1.09298E+04 -1.49269E+04  1.77091E+04 -4.28109E+03
  1.58127E+04  7.75361E+03  7.36316E+03  1.56007E+04 -4.72203E+03  1.81583E+04 -1.39919E+04  8.41345E+03
 -1.82401E+04  1.15264E+03 -1.35975E+04 -8.87168E+03 -1.09458E+03 -1.54037E+04  8.33010E+03 -1.24080E+04
  1.01076E+04 -4.36143E+03  9.37410E+03  3.79615E+03  3.31300E+03  4.44343E+03  1.05270E+03  2.39459E+03
  2.10972E+03  6.61417E+02  3.26526E+03  2.66808E+03  6.42296E+03  7.84549E+03  4.01240E+03  1.03086E+04
 -3.07916E+03  1.57428E+04 -1.38144E+04  1.41621E+04 -1.90676E+04  5.84513E+03 -1.95774E+04 -7.25275E+03
 -7.45549E+03 -1.88441E+04  1.13919E+03 -2.21869E+04  1.22546E+04 -1.23266E+04  1.39606E+04 -1.90216E+03
  1.21288E+04  6.44312E+03  2.97250E+03  1.20300E+04 -5.09484E+03  5.24169E+03 -8.96913E+03 -3.96989E+02
 -4.65260E+03 -7.81673E+03  3.69613E+03 -9.41804E+03  8.82575E+03 -5.13323E+03  7.49607E+03  1.05206E+03
  2.95646E+03  4.40577E+03  2.14650E+03  2.39762E+03 -5.20008E+02  1.47711E+03  1.39649E+03 -1.87653E+03
  3.28291E+03 -3.04205E+03  7.08587E+03  2.06275E+03  5.27660E+03  1.07416E+04 -2.49171E+03  1.30411E+04
 -7.33986E+03  1.07285E+04 -1.20560E+04  2.98142E+03 -1.16625E+04 -6.46890E+03 -4.82764E+03 -7.31659E+03
  7.30552E+02 -7.71448E+03  5.75895E+03 -3.55879E+03  4.90219E+03  2.34170E+03 -1.75018E+03  5.28908E+03
 -7.21307E+03  5.18320E+03 -7.38718E+03 -3.85939E+03 -3.91454E+03 -9.46510E+03  1.33651E+03 -9.64717E+03
  4.88605E+03 -6.41073E+03  9.49504E+03 -7.82606E+02  6.62745E+03  2.20780E+03  6.20041E+02  6.18456E+03
 -4.19416E+03  2.93301E+03 -3.97291E+03 -3.01361E+03  2.85967E+03 -7.95986E+03  9.48584E+03 -6.89549E+03
  1.18712E+04 -1.04831E+02  1.10057E+04  7.31269E+03  3.38332E+03  1.12799E+04 -5.40517E+03  1.25884E+04
 -1.07476E+04  6.25961E+03 -1.11830E+04 -1.09200E+03 -5.48748E+03 -8.38077E+03  3.16175E+02 -9.42797E+03
  7.36252E+03 -2.90478E+03  6.14530E+03  4.57425E+03  1.24602E+03  5.21906E+03 -3.11099E+02  6.67295E+03
 -2.43446E+03  3.94795E+03 -2.34985E+03  7.46017E+02 -5.00339E+02  7.01741E+02 -1.65865E+03  2.31668E+03
 -2.54257E+03  3.69596E+03 -9.03878E+03  3.51181E+03 -1.37844E+04  6.32119E+02 -1.67018E+04 -8.74078E+03
 -7.48874E+03 -1.78284E+04  2.37857E+03 -2.09071E+04  1.35680E+04 -1.57685E+04  2.04514E+04 -6.07296E+03
  1.86421E+04  2.30865E+03  1.14515E+04  1.10147E+04  1.24424E+03  1.44551E+04 -4.27570E+03  9.67712E+03
 -8.12942E+03  3.68767E+03 -4.18767E+03 -2.11230E+03 -2.19776E+03 -2.44000E+03 -7.89987E+02  1.01073E+03
 -1.90399E+03  1.09827E+02 -4.15061E+03 -1.19077E+03 -1.55096E+03 -3.52772E+03  7.18905E+02 -5.07643E+03
  7.16359E+03 -4.68377E+03  8.00240E+03  8.10575E+01  8.27992E+03  8.34204E+03  2.91202E+03  1.65596E+04
 -6.18721E+03  1.57195E+04 -1.60492E+04  8.85941E+03 -1.68167E+04 -1.32785E+03 -1.17664E+04 -1.08923E+04
 -5.57998E+03 -1.24244E+04  3.85699E+03 -1.49842E+04  8.88774E+03 -6.64888E+03  9.11312E+03 -7.55841E+02
  4.10027E+03  6.18404E+03 -1.88691E+03  5.68456E+03 -3.51447E+03 -1.00503E+02  1.24702E+03 -3.42283E+03
  4.10235E+03 -2.83355E+03  5.98844E+03  1.01739E+03  4.12100E+03  5.38498E+03 -1.34837E+03  6.62972E+03
 -5.19855E+03  6.57801E+03 -9.16227E+03  4.73693E+02 -7.55970E+03 -4.15791E+03  1.80658E+02 -1.16793E+04
  5.89218E+03 -1.16517E+04  9.77122E+03 -3.89676E+03  1.14359E+04  3.17676E+03  6.12273E+03  1.01093E+04
  9.67436E+02  8.79267E+03 -2.08034E+03  7.65444E+03 -4.69828E+03  6.69520E+03 -6.03788E+03  2.04073E+03
 -1.05844E+03  4.24675E+02 -3.59903E+03  4.25184E+03 -4.90652E+03  3.66635E+01 -6.66390E+03 -1.35097E+03
 -8.05522E+03 -4.78905E+03 -1.87809E+03 -1.03829E+04  4.06336E+03 -8.99022E+03  7.65409E+03 -6.69626E+03
  9.05759E+03  9.95340E+02  3.92725E+03  8.17158E+03 -1.26715E+03  9.88556E+03 -7.48299E+03  6.65808E+03
