 $NMID ID='MM_0lb_SNR200_9hz_g40_24.RAW', FMTDAT='(8E13.5)'
 TRAMP=1., VOLUME=1. $END
  3.07895E+05  8.26689E+02  3.37569E+05  2.49687E+05  8.38764E+04  3.39316E+05 -1.32083E+05  2.50917E+05
 -1.89709E+05  8.36902E+04 -1.11853E+05 -3.22235E+04  1.05436E+02 -5.01040E+04  5.29238E+04 -4.94705E+02
  3.52506E+04  5.37832E+04 -1.70021E+04  7.50468E+04 -5.96735E+04  6.29426E+04 -8.46926E+04  3.19228E+04
 -8.21004E+04 -1.14787E+04 -5.80050E+04 -5.18615E+04 -1.67739E+04 -7.11406E+04  2.75252E+04 -4.79936E+04
  4.13976E+04  4.94169E+03  1.60631E+04  4.86034E+04 -3.36022E+04  4.74138E+04 -6.69221E+04  6.40809E+02
 -5.46482E+04 -5.70267E+04 -7.10286E+03 -7.90843E+04  3.49367E+04 -5.67306E+04  4.85680E+04 -1.87847E+04
  4.49632E+04  1.07886E+04  3.42219E+04  2.71804E+04  1.55029E+04  3.11182E+04 -5.15288E+03  2.70580E+04
 -2.29366E+04  1.02514E+04 -1.81141E+04 -6.25769E+03  8.46473E+03 -8.42694E+03  2.27424E+04  1.27498E+04
  5.78367E+03  3.71336E+04 -3.41076E+04  3.64815E+04 -6.65008E+04  1.58533E+03 -5.87235E+04 -4.50454E+04
 -1.19527E+04 -6.76629E+04  4.17662E+04 -4.62870E+04  6.10713E+04 -2.36815E+03  3.66171E+04  3.38179E+04
 -6.47487E+03  3.83861E+04 -3.09928E+04  1.73150E+04 -3.28359E+04 -3.07957E+03 -1.96398E+04 -1.12872E+04
 -9.40123E+03 -1.38810E+04 -9.75759E+02 -1.94197E+04  9.32492E+03 -2.29098E+04  1.64121E+04 -1.23126E+04
  1.14861E+04  6.42800E+03 -1.03035E+04  1.43054E+04 -2.31507E+04 -6.95037E+03 -8.37572E+03 -3.69450E+04
  2.36586E+04 -4.65426E+04  5.17158E+04 -2.08994E+04  4.96748E+04  2.19617E+04  1.81462E+04  4.73377E+04
 -1.60169E+04  3.45556E+04 -2.59449E+04  3.06783E+03 -1.22094E+04 -2.85701E+04  2.13802E+04 -3.56700E+04
  4.41844E+04 -1.08480E+04  3.85552E+04  2.46085E+04  2.13233E+04  4.97206E+04 -9.23417E+03  5.63239E+04
 -3.40544E+04  3.78735E+04 -4.60987E+04  1.06438E+04 -4.66361E+04 -1.87792E+04 -2.57808E+04 -4.08827E+04
  6.85086E+03 -3.98179E+04  3.27487E+04 -1.66309E+04  3.21440E+04  1.00430E+04  3.89735E+03  1.99251E+04
 -1.40637E+04  8.70687E+03 -1.15976E+04 -6.48846E+03  6.63628E+03 -1.20410E+04  1.78417E+04  4.01678E+03
  1.47985E+04  2.45652E+04 -6.58101E+03  2.80071E+04 -2.37553E+04  1.43374E+04 -3.13745E+04 -3.20059E+03
 -2.46882E+04 -1.91043E+04 -9.88691E+03 -2.43834E+04  4.86818E+03 -2.50169E+04  1.91788E+04 -2.23782E+04
  2.98135E+04 -1.34810E+04  3.65965E+04  5.65174E+03  2.64307E+04  2.37200E+04  4.24432E+03  4.02389E+04
 -1.97634E+04  3.28636E+04 -2.99199E+04  1.10903E+04 -2.16292E+04 -1.05001E+04 -4.13073E+03 -1.38766E+04
  1.06057E+03 -2.02334E+03 -7.43926E+03  7.76430E+03 -1.96102E+04  5.63279E+03 -1.94388E+04 -7.58113E+03
 -1.15578E+04 -2.22399E+04  6.12716E+03 -2.75577E+04  1.94725E+04 -1.81397E+04  2.10694E+04 -2.66452E+03
  1.51190E+04  1.53148E+04 -2.48846E+03  2.20573E+04 -1.64340E+04  1.17518E+04 -2.26058E+04 -5.37151E+03
 -1.59485E+04 -2.02457E+04 -9.99194E+02 -2.74404E+04  1.18054E+04 -2.35304E+04  2.14415E+04 -1.17854E+04
  2.20117E+04 -9.48067E+01  1.60808E+04  4.59510E+03  9.78795E+03  3.66702E+02  1.21127E+04 -1.68543E+03
  2.20227E+04  1.45225E+03  2.45910E+04  1.76471E+04  1.52524E+04  3.55255E+04 -1.52278E+03  4.09091E+04
 -2.50424E+04  3.58479E+04 -4.04378E+04  1.69749E+04 -4.20800E+04 -3.55899E+03 -3.45582E+04 -2.63483E+04
 -1.36452E+04 -3.56283E+04  1.39173E+04 -3.27551E+04  2.72002E+04 -1.51275E+04  2.37842E+04  7.09150E+03
  9.27625E+03  1.77925E+04 -1.11068E+04  1.61825E+04 -1.85046E+04  1.59988E+03 -1.39132E+04 -1.23161E+04
  7.23241E+02 -1.91977E+04  9.56326E+03 -1.37784E+04  1.19330E+04 -2.38608E+03  3.53315E+03  9.26226E+03
 -6.31815E+03  2.76125E+03 -7.77273E+03 -7.00556E+03 -2.88793E+03 -1.68797E+04  1.08459E+04 -2.02763E+04
  2.18100E+04 -9.97427E+03  2.42018E+04  2.26429E+03  2.20887E+04  1.87447E+04  1.13390E+04  2.76432E+04
 -3.49974E+03  2.95339E+04 -1.88335E+04  1.83949E+04 -2.21628E+04  3.32720E+03 -1.55042E+04 -6.16349E+03
 -5.53991E+03 -6.96319E+03 -4.98005E+02  1.13079E+03 -2.79968E+03  1.61063E+03 -8.12680E+03  4.04211E+03
 -1.33833E+04 -1.94080E+03 -1.46077E+04 -1.10776E+04 -6.24873E+03 -1.96924E+04  6.28678E+03 -1.51802E+04
  1.30891E+04 -6.60954E+03  8.39535E+03  4.15526E+03 -1.11912E+03  6.49489E+03 -9.00649E+03 -5.62651E+02
 -7.38209E+03 -1.06850E+04 -5.65684E+02 -1.54653E+04  9.22886E+03 -1.54737E+04  1.96408E+04 -8.54404E+03
  2.25487E+04  2.57687E+03  1.73401E+04  1.46994E+04  2.28761E+03  1.85469E+04 -1.04029E+04  1.67093E+04
 -1.12015E+04  5.03822E+03 -4.96220E+03 -2.64134E+03  8.97736E+02 -5.26001E+03  9.64983E+03 -6.48803E+02
  5.94333E+03  4.93355E+03  1.94004E+03  1.20155E+04 -7.93674E+03  9.97427E+03 -1.54398E+04  3.60344E+03
 -1.07794E+04 -7.99161E+03  8.35182E+02 -1.47332E+04  9.34241E+03 -7.08701E+03  9.25059E+03  2.16809E+03
  1.71272E+03  9.59626E+03 -6.05899E+03  1.08578E+04 -1.28647E+04  4.84476E+03 -1.29750E+04 -3.77883E+03
 -8.34479E+03 -1.47644E+04  3.75504E+03 -1.75747E+04  1.53735E+04 -1.08343E+04  1.42528E+04  3.17049E+03
  9.59802E+03  1.11329E+04 -1.89931E+03  1.59330E+04 -1.19354E+04  7.28861E+03 -1.09778E+04 -1.50807E+03
 -9.77937E+03 -1.03942E+04 -2.83047E+03 -1.20117E+04  7.18344E+03 -8.14482E+03  8.02969E+03 -5.04909E+03
  5.65810E+03  1.46107E+03 -2.11462E+03  2.37806E+03 -1.52494E+03 -2.71638E+03  2.76291E+03 -6.28195E+03
  1.03591E+04 -5.33366E+03  1.39362E+04  2.10510E+03  1.64057E+04  1.01926E+04  9.38928E+03  2.04703E+04
 -5.22037E+03  2.25000E+04 -1.87135E+04  1.70459E+04 -2.39993E+04  3.06610E+03 -1.99313E+04 -7.91744E+03
 -8.95124E+03 -1.80401E+04 -5.76094E+02 -1.41907E+04  3.97437E+03 -6.46105E+03  6.19348E+03 -4.55667E+03
  4.78354E+03 -4.04484E+03  3.60983E+03 -4.16819E+03  5.25897E+03 -2.78653E+03  6.96237E+03 -1.16699E+03
  9.81643E+03  2.47166E+03  4.67290E+03  1.08209E+04 -2.52544E+03  9.56070E+03 -1.05296E+04  8.66453E+03
 -1.45990E+04 -1.73012E+03 -9.76458E+03 -1.02313E+04 -7.34085E+02 -1.58561E+04  7.34914E+03 -1.41775E+04
  1.65779E+04 -6.86428E+03  1.72679E+04  2.16627E+03  1.21121E+04  1.21097E+04  2.09676E+03  1.81354E+04
 -6.84549E+03  1.29352E+04 -9.98470E+03  5.11678E+03 -7.38576E+03 -2.20492E+03 -2.47683E+03 -2.15002E+03
 -2.46186E+03 -9.49917E+02 -2.40609E+03  3.75810E+03 -6.59878E+03  8.92814E+01 -1.08131E+04 -1.68527E+03
 -6.93488E+03 -8.55593E+03 -5.82321E+02 -1.35192E+04  7.60919E+03 -1.34400E+04  1.40384E+04 -4.75893E+03
  1.26105E+04  7.38651E+03  7.72428E+03  1.10385E+04 -2.82740E+03  1.49533E+04 -9.86260E+03  9.46336E+03
 -1.29037E+04  3.01734E+02 -9.29275E+03 -8.93670E+03 -1.03804E+03 -1.18082E+04  5.99880E+03 -9.08536E+03
  8.03314E+03 -3.09443E+03  5.31054E+03  1.73145E+03  3.98371E+03  3.58363E+03  1.95389E+03  6.10587E+02
  2.52826E+03  1.12807E+03  4.25074E+03  2.48698E+03  4.22592E+03  4.48651E+03  3.02359E+03  7.44636E+03
 -2.22866E+03  1.02151E+04 -1.13815E+04  1.06874E+04 -1.44362E+04  1.77269E+03 -1.41372E+04 -7.09785E+03
 -7.67906E+03 -1.55899E+04  2.05787E+03 -1.56697E+04  8.34210E+03 -1.04955E+04  1.15562E+04 -4.48591E+03
  9.14275E+03  6.09252E+03  1.88456E+03  8.28702E+03 -1.95951E+03  4.77356E+03 -6.90595E+03  1.48055E+02
 -4.46445E+03 -5.60698E+03  2.32862E+03 -7.84618E+03  5.32920E+03 -3.42221E+03  6.92692E+03  1.23248E+03
  3.41039E+03  2.35399E+03  1.52416E+03  1.03141E+03 -1.66291E+03  2.60568E+02  8.75738E+02 -2.21493E+03
  1.98594E+03 -6.03128E+02  7.39005E+03  2.88682E+03  3.35100E+03  7.71583E+03 -1.59679E+03  1.01593E+04
 -6.51622E+03  7.97090E+03 -9.70800E+03  2.25517E+03 -8.40686E+03 -2.48450E+03 -2.96851E+03 -2.83450E+03
  5.63694E+02 -4.82103E+03  3.07107E+03 -2.45587E+03  3.45379E+03  2.69819E+03 -5.24299E+02  5.32284E+03
 -6.35428E+03  3.57426E+03 -6.30655E+03 -3.03009E+03 -4.79569E+03 -7.54355E+03  1.27071E+03 -7.17228E+03
  5.23883E+03 -5.55409E+03  5.83821E+03 -2.52148E+02  4.06804E+03  1.47868E+03  5.94129E+02  4.85432E+03
 -1.55702E+03  1.60367E+03 -4.59082E+03 -3.09596E+03  1.31357E+03 -4.41043E+03  5.76337E+03 -4.85815E+03
  7.98222E+03  9.16706E+02  1.06264E+04  6.95810E+03  2.01975E+03  1.04441E+04 -3.14805E+03  7.88599E+03
 -7.56673E+03  4.02343E+03 -7.98327E+03 -2.01073E+03 -2.88840E+03 -7.41790E+03  2.24852E+03 -6.25650E+03
  4.85630E+03 -2.07542E+03  4.75720E+03  1.99060E+03  2.44368E+03  6.61469E+03 -6.14035E+02  4.59000E+03
 -3.52532E+03  3.18883E+03 -1.14679E+03  1.71599E+03 -3.72619E+00  1.24412E+03 -2.33689E+03  9.90711E+02
 -2.89226E+03  3.02558E+03 -6.41979E+03  3.32246E+03 -8.97030E+03  1.59719E+03 -9.66127E+03 -5.64818E+03
 -5.11734E+03 -1.32712E+04  2.03626E+03 -1.33308E+04  8.20992E+03 -1.16271E+04  1.45193E+04 -4.63147E+03
  1.42815E+04  2.50686E+03  8.04784E+03  9.54419E+03  9.10434E+02  8.79809E+03 -4.15402E+03  6.96269E+03
 -6.00927E+03  3.12900E+03 -3.61697E+03 -1.46931E+03 -5.53830E+02  7.39651E+02 -2.09328E+03  3.86865E+02
 -2.47313E+03  1.38225E+03 -1.55203E+03 -6.15472E+02 -2.33787E+03 -1.75166E+03  1.02616E+03 -4.79072E+03
  4.13811E+03 -3.19851E+03  5.71770E+03  6.01836E+01  5.68579E+03  4.26772E+03  1.29380E+03  1.00050E+04
 -4.73144E+03  1.16362E+04 -1.14061E+04  7.42401E+03 -1.12345E+04 -1.31478E+03 -9.12357E+03 -9.22533E+03
 -3.91261E+03 -8.95281E+03  2.18381E+03 -1.13897E+04  8.12641E+03 -5.17898E+03  5.40918E+03 -9.14274E+02
  3.76382E+03  3.44744E+03  2.76041E+02  3.25556E+03 -2.22475E+03  6.37250E+02  4.01868E+02 -3.44784E+03
  3.31478E+03 -1.87550E+03  4.23928E+03  1.04855E+03  2.58357E+03  4.51698E+03 -3.17996E+02  4.28433E+03
 -4.51812E+03  6.08267E+03 -6.41058E+03  2.37066E+03 -4.83469E+03 -4.50103E+03 -2.07596E+03 -7.78824E+03
  5.84637E+03 -8.51825E+03  7.53917E+03 -7.77513E+02  7.99577E+03  2.79385E+03  2.61896E+03  6.41336E+03
  2.01092E+03  6.63755E+03 -2.18603E+03  5.64881E+03 -5.72277E+03  1.44651E+03 -3.17460E+03  2.16790E+02
 -2.27818E+03  1.10402E+03 -1.74323E+03  1.38674E+03 -5.74614E+03  3.46923E+02 -4.82072E+03 -6.39183E+01
 -6.29311E+03 -1.70629E+03 -1.18578E+03 -5.63652E+03  3.42530E+03 -7.20537E+03  5.54972E+03 -2.77806E+03
  6.63322E+03  1.88179E+03  4.15602E+03  5.06144E+03 -1.31040E+03  6.43726E+03 -4.73225E+03  5.47420E+03
