 $NMID ID='MM_0lb_SNR200_17hz_g60_23.RAW', FMTDAT='(8E13.5)'
 TRAMP=1., VOLUME=1. $END
  3.09769E+05  1.00115E+03  3.37083E+05  2.51084E+05  8.50225E+04  3.37905E+05 -1.32708E+05  2.50814E+05
 -1.90855E+05  8.31025E+04 -1.12216E+05 -3.21911E+04  1.59562E+03 -4.93944E+04  5.35135E+04 -7.91772E+02
  3.45776E+04  5.31766E+04 -1.70329E+04  7.61607E+04 -6.18731E+04  6.39588E+04 -8.34912E+04  3.26101E+04
 -8.07611E+04 -1.12378E+04 -5.61971E+04 -5.19171E+04 -1.45975E+04 -6.96114E+04  2.76044E+04 -4.42160E+04
  3.93225E+04  3.33742E+03  1.60499E+04  4.74455E+04 -3.35057E+04  4.68749E+04 -6.67812E+04  2.64978E+02
 -5.29758E+04 -5.76375E+04 -6.65178E+03 -7.70520E+04  3.35779E+04 -5.59568E+04  4.83556E+04 -1.72630E+04
  4.39588E+04  1.12628E+04  3.11497E+04  2.48690E+04  1.45512E+04  2.99347E+04 -5.36951E+03  2.75226E+04
 -2.27689E+04  1.11524E+04 -1.93611E+04 -6.01050E+03  6.24853E+03 -8.54267E+03  2.21462E+04  1.24100E+04
  5.87523E+03  3.54863E+04 -3.16397E+04  3.51997E+04 -6.26120E+04  7.89778E+02 -5.64068E+04 -4.28047E+04
 -1.37098E+04 -6.31054E+04  3.95815E+04 -4.47062E+04  5.76186E+04 -2.26880E+03  3.35431E+04  3.21143E+04
 -6.05272E+03  3.58614E+04 -3.01763E+04  1.47735E+04 -3.09164E+04 -5.23538E+03 -1.54338E+04 -1.08935E+04
 -8.83373E+03 -1.26474E+04 -1.46541E+03 -1.76151E+04  7.56599E+03 -2.29396E+04  1.55174E+04 -1.40465E+04
  1.11176E+04  4.00064E+03 -7.07218E+03  1.27960E+04 -2.02736E+04 -3.35624E+03 -7.95666E+03 -3.39209E+04
  2.32603E+04 -4.39289E+04  4.77445E+04 -2.03533E+04  4.42390E+04  1.90411E+04  1.49907E+04  4.40039E+04
 -1.69796E+04  3.29683E+04 -2.50250E+04  2.12568E+03 -9.68871E+03 -2.75261E+04  2.13319E+04 -3.39625E+04
  4.09705E+04 -9.00401E+03  3.48246E+04  2.31217E+04  1.80265E+04  4.61901E+04 -7.42763E+03  4.85875E+04
 -3.10001E+04  3.33997E+04 -4.12568E+04  9.96302E+03 -4.08439E+04 -1.75199E+04 -2.37019E+04 -3.61522E+04
  9.02878E+03 -3.70429E+04  3.21489E+04 -1.42663E+04  3.04095E+04  1.03857E+04  3.33233E+03  1.89343E+04
 -1.32415E+04  8.86270E+03 -9.94363E+03 -7.59652E+03  5.67897E+03 -1.03886E+04  1.73813E+04  7.09464E+03
  1.42302E+04  2.08843E+04 -6.96468E+03  2.46892E+04 -2.11780E+04  1.01368E+04 -2.63108E+04 -5.03315E+03
 -1.91414E+04 -1.68340E+04 -7.70471E+03 -1.92624E+04  5.28319E+03 -1.90534E+04  1.46601E+04 -1.66234E+04
  2.58550E+04 -1.32979E+04  3.09090E+04  2.13786E+03  2.22864E+04  1.87748E+04  3.99299E+03  3.51747E+04
 -1.74443E+04  2.88321E+04 -2.77671E+04  1.03879E+04 -1.95619E+04 -1.04837E+04 -4.15074E+03 -1.50922E+04
  2.23496E+03 -2.47122E+03 -4.31166E+03  8.26251E+03 -1.49117E+04  5.27609E+03 -1.55435E+04 -6.79931E+03
 -9.86472E+03 -1.86141E+04  5.32796E+03 -2.18445E+04  1.36215E+04 -1.60677E+04  1.66974E+04 -1.84061E+03
  1.06168E+04  1.34562E+04 -1.00891E+03  1.70837E+04 -1.14618E+04  1.04452E+04 -1.75708E+04 -4.17513E+03
 -1.36126E+04 -1.64029E+04 -1.35439E+03 -2.14159E+04  9.69196E+03 -1.80383E+04  1.82010E+04 -8.55418E+03
  1.78312E+04  7.58574E+02  1.23619E+04  3.83195E+03  6.18961E+03  2.44650E+02  9.36090E+03 -4.07017E+02
  1.63272E+04  2.75230E+03  1.77998E+04  1.49410E+04  1.17354E+04  2.85179E+04 -3.79215E+03  3.09686E+04
 -1.86315E+04  2.51848E+04 -3.08983E+04  1.11068E+04 -2.94056E+04 -3.70649E+03 -2.53750E+04 -1.83625E+04
 -1.08143E+04 -2.56488E+04  8.17455E+03 -2.21368E+04  1.99046E+04 -1.19575E+04  1.79670E+04  5.05850E+03
  7.75257E+03  1.27350E+04 -7.71008E+03  1.17067E+04 -1.42467E+04  3.32031E+03 -1.10702E+04 -8.73233E+03
 -3.29855E+02 -1.42856E+04  6.98450E+03 -1.09526E+04  1.03721E+04 -1.51005E+03  1.15218E+03  5.84604E+03
 -5.44817E+03  1.33416E+03 -5.33997E+03 -4.74847E+03  4.78891E+02 -1.26591E+04  8.81493E+03 -1.26704E+04
  1.54985E+04 -5.97947E+03  1.69210E+04  3.73224E+03  1.41264E+04  1.06957E+04  6.84623E+03  1.78083E+04
 -2.69558E+03  1.94414E+04 -1.26215E+04  1.11091E+04 -1.42869E+04  3.04680E+03 -1.02096E+04 -2.40101E+03
 -5.66618E+03 -4.03588E+03 -4.95804E+02  2.29700E+03 -1.87739E+03  2.21523E+03 -3.18378E+03  3.59182E+03
 -1.00997E+04 -7.37127E+02 -9.65172E+03 -8.23487E+03 -4.05592E+03 -1.35338E+04  3.53474E+03 -9.97753E+03
  8.63523E+03 -5.55188E+03  5.57802E+03  2.39491E+03  6.02120E+02  4.72614E+03 -5.09983E+03  6.20719E+01
 -4.71201E+03 -6.45578E+03 -1.28447E+03 -9.99122E+03  5.46551E+03 -9.67316E+03  1.10319E+04 -5.03117E+03
  1.51974E+04  2.06630E+03  1.12837E+04  7.06020E+03  1.97501E+03  9.70470E+03 -5.84365E+03  1.10998E+04
 -7.52991E+03  2.76610E+03 -3.23557E+03 -1.81547E+03  1.42592E+03 -2.67225E+03  5.63173E+03 -8.83328E+02
  5.28926E+03  4.26353E+03  1.04738E+03  8.76579E+03 -5.17782E+03  8.44492E+03 -9.85492E+03  2.27502E+03
 -6.36090E+03 -5.57346E+03  1.06655E+03 -8.27071E+03  3.70951E+03 -4.89278E+03  4.54753E+03  4.62213E+02
  3.17964E+02  4.06926E+03 -5.27744E+03  5.26988E+03 -5.85118E+03  2.68390E+03 -5.76064E+03 -1.19344E+03
 -3.97171E+03 -8.24739E+03  2.50587E+03 -9.36186E+03  9.01091E+03 -6.66485E+03  8.62527E+03  8.92627E+02
  6.04156E+03  6.78128E+03 -8.07313E+02  9.22174E+03 -6.21323E+03  5.96783E+03 -6.58164E+03 -1.48023E+03
 -5.92958E+03 -5.55959E+03 -1.78205E+03 -6.61544E+03  5.19434E+03 -4.84165E+03  4.55466E+03 -1.99770E+03
  2.67762E+03 -9.39953E+01 -2.09856E+02  5.61143E+02 -2.83709E+02 -6.20506E+02 -9.91089E+02 -2.79229E+03
  5.86346E+03 -2.00483E+02  6.22103E+03  2.86560E+02  6.13871E+03  5.44809E+03  6.09087E+03  1.01182E+04
 -3.39489E+03  1.12419E+04 -8.82483E+03  8.80079E+03 -1.18080E+04  2.18158E+03 -9.77404E+03 -3.40351E+03
 -5.40039E+03 -9.63308E+03 -5.35865E+01 -8.52426E+03  2.09281E+03 -2.75197E+03  1.59347E+03 -2.98932E+03
  2.13718E+03 -2.57913E+03  2.97774E+03 -1.92964E+03  4.27174E+03 -1.11213E+03  3.72015E+03  3.75138E+02
  6.00746E+03  6.36107E+02  2.72800E+03  3.03205E+03 -9.50147E+02  4.84221E+03 -5.59287E+03  2.25430E+03
 -5.64203E+03 -1.24103E+03 -3.88557E+03 -3.91230E+03 -4.44130E+02 -7.02298E+03  3.62806E+03 -6.53084E+03
  7.87383E+03 -4.55910E+03  9.79531E+03  8.95973E+02  7.03923E+03  5.93407E+03  1.36822E+03  7.33890E+03
 -3.95936E+03  7.97136E+03 -6.02159E+03  2.17133E+03 -2.71546E+03 -1.83145E+03 -1.39891E+03  2.28378E+02
 -1.69688E+03 -1.89158E+02 -1.29246E+03  1.69083E+03 -4.65839E+03  3.70222E+02 -3.93088E+03 -2.34252E+02
 -1.96430E+03 -4.83237E+03  1.27861E+03 -5.60007E+03  3.24653E+03 -4.27988E+03  4.45913E+03 -1.77228E+03
  5.42959E+03  3.32185E+03  3.09104E+03  4.53514E+03 -3.54219E+02  4.22778E+03 -3.77882E+03  3.44070E+03
 -5.16435E+03  1.41306E+03 -4.36802E+03 -3.35828E+03 -4.21438E+01 -4.84045E+03  2.90971E+03 -2.71580E+03
  3.39735E+03 -2.72800E+03  2.66728E+03  4.35505E+02 -2.54094E+01  9.74642E+02  1.99664E+03  1.32982E+03
  1.74866E+03 -1.35590E+02  2.32051E+03  2.19934E+03  1.32701E+03  1.83127E+03  2.64370E+03  2.67113E+03
 -2.87733E+01  4.27574E+03 -4.70677E+03  5.03988E+03 -3.96828E+03  1.14716E+03 -6.01937E+03 -9.76063E+02
 -1.79588E+03 -3.90166E+03  5.39635E+02 -6.76566E+03  1.90681E+03 -2.98064E+03  4.41422E+03 -2.68208E+03
  2.99211E+03  5.19232E+02  1.31875E+03  2.84869E+03 -5.57139E+02  1.82585E+03 -2.89956E+03 -9.62383E+02
 -5.68898E+02 -1.81927E+03  1.81563E+03 -1.45579E+03  1.67777E+03 -2.12539E+03  2.08676E+03  6.55388E+02
  1.33960E+03 -6.90081E+01  1.37354E+03 -7.29469E+02  5.54493E+01  6.66775E+02  6.80459E+02 -1.32171E+02
  3.60655E+02  5.71944E+01  1.53682E+03  7.72093E+02  1.39388E+03  2.51425E+03 -8.83530E+02  3.23437E+03
 -2.02495E+03  1.06624E+03 -2.23280E+03 -1.54532E+02 -3.33022E+03 -7.77717E+02  5.97837E+02 -3.65834E+02
  6.51243E+02 -9.70391E+02  1.39387E+03 -1.31161E+03  1.71895E+02  2.56875E+03 -3.90953E+02  1.93766E+03
 -1.90274E+03  3.65420E+02 -2.19551E+03 -1.69510E+03 -7.67999E+02 -1.04657E+03  1.02057E+03 -3.28160E+03
  9.79719E+02 -1.65209E+03  9.54732E+02 -6.70340E+02  2.18195E+03  5.55787E+02  4.55083E+02  1.74315E+03
 -4.10774E+02  1.17737E+03 -3.45253E+02  7.70083E+02  1.06701E+03 -1.71001E+03  1.69206E+03 -1.07774E+03
  1.55628E+03  6.88645E+02  2.99489E+03  9.98957E+02  9.59098E+02  1.82522E+03 -5.01057E+02  2.04238E+03
 -2.72332E+03  9.34461E+02 -2.96364E+03 -3.33369E+02 -1.02665E+03 -1.85829E+03  1.08209E+03 -1.23037E+03
  7.54948E+02 -9.95627E+01  7.66825E+01  1.90574E+03 -4.76569E+01  1.42869E+03 -4.30162E+02  2.56179E+03
 -7.42956E+01  1.34928E+03 -1.12928E+03  5.80940E+02  1.20452E+03 -6.09138E+02 -2.43963E+02  1.82094E+03
 -1.63125E+03  6.40693E+02 -7.70915E+02  1.14197E+03 -2.16169E+03  7.00926E+02 -3.02224E+03 -1.37654E+03
 -2.31706E+03 -3.27338E+03 -3.54436E+01 -2.07762E+03  1.34543E+03 -3.31604E+03  4.62562E+03 -1.64964E+03
  3.20206E+03  3.66189E+02  2.26707E+03  2.65818E+03 -2.17035E+03  1.16432E+03 -8.12216E+02  1.78297E+03
 -5.98609E+02  1.96323E+03 -4.29737E+02 -4.36438E+02 -5.33692E+02 -1.95516E+02 -1.08719E+03 -2.87384E+02
 -9.92908E+02  1.40450E+03 -2.35477E+03 -1.06311E+03  4.28367E+02 -1.24367E+03 -1.68867E+03 -2.28724E+02
  1.52630E+03 -1.18420E+03  1.24818E+02  1.93445E+02  2.20602E+03  5.93131E+02  1.81038E+02  1.95802E+03
 -2.36459E+03  2.20922E+03 -1.27427E+03  1.53759E+03 -2.17605E+03 -9.95921E+02 -1.69792E+03 -1.80372E+03
 -1.41478E+03 -1.84332E+03  2.85346E+02 -2.05177E+03  1.79707E+03 -1.17977E+02  1.54260E+03  6.19471E+02
  2.02077E+03  4.92496E+02  6.83616E+02  3.14495E+02 -9.30571E+02  1.05956E+02 -1.27222E+02 -6.88808E+02
  1.14195E+03  1.21818E+03  5.24059E+02  9.38850E+02  5.66837E+02  4.81742E+02  1.58001E+02  4.97588E+02
 -3.60411E+02  2.71987E+02 -1.25794E+03 -9.57057E+02 -7.51492E+02 -1.06435E+03  3.10384E+02 -2.44878E+03
  1.16060E+03  3.64958E+02  1.05180E+03  8.26586E+01  1.10295E+03 -1.00618E+03  7.88001E+02  1.17741E+03
  5.76482E+02 -5.70118E+01 -2.91968E+02  1.00414E+03 -1.16434E+03  9.56458E+02 -7.98004E+02 -1.45359E+02
 -7.15994E+02 -4.65237E+02  1.06148E+03  7.97203E+02 -2.50659E+02  3.51272E+02 -9.91951E+01  2.02630E+02
 -5.22054E+02  5.77234E+02 -3.04767E+02 -1.53822E+03  1.37584E+02 -1.34352E+03  3.32266E+02  2.55241E+02
  1.30472E+03 -6.63584E+02  3.55966E+02  4.26784E+02  9.52972E+02  1.82486E+03 -1.00267E+03  8.95340E+02
