 $NMID ID='MM_0lb_SNR200_8hz_g55_45.RAW', FMTDAT='(8E13.5)'
 TRAMP=1., VOLUME=1. $END
  3.09270E+05 -1.13244E+02  3.38101E+05  2.52011E+05  8.42253E+04  3.38037E+05 -1.33735E+05  2.53416E+05
 -1.90407E+05  8.37677E+04 -1.10933E+05 -3.22272E+04 -4.65197E+02 -4.90138E+04  5.20272E+04 -1.81847E+03
  3.69565E+04  5.24575E+04 -1.70672E+04  7.74489E+04 -6.19589E+04  6.51529E+04 -8.53300E+04  3.35987E+04
 -8.25131E+04 -1.15053E+04 -5.88519E+04 -5.14417E+04 -1.53015E+04 -7.06329E+04  3.05361E+04 -4.65371E+04
  4.27976E+04  2.53460E+03  1.72543E+04  4.83460E+04 -3.50802E+04  4.90691E+04 -6.87791E+04 -3.05164E+02
 -5.53841E+04 -5.74561E+04 -8.30979E+03 -7.97592E+04  3.64487E+04 -5.78065E+04  5.15857E+04 -1.79034E+04
  4.46380E+04  1.13137E+04  3.29802E+04  2.64704E+04  1.63107E+04  3.13236E+04 -6.52853E+03  2.63822E+04
 -2.22862E+04  1.27275E+04 -1.85557E+04 -6.36389E+03  7.19847E+03 -6.80442E+03  2.53884E+04  1.39442E+04
  6.68508E+03  3.80500E+04 -3.34503E+04  3.86594E+04 -6.62050E+04  1.34537E+03 -5.97499E+04 -4.51717E+04
 -1.26203E+04 -6.59296E+04  4.30575E+04 -5.02809E+04  6.31463E+04 -1.56432E+03  3.85862E+04  3.57029E+04
 -4.89273E+03  4.02513E+04 -3.32258E+04  2.16104E+04 -3.29451E+04 -5.17462E+03 -1.98799E+04 -1.21399E+04
 -8.56210E+03 -1.43437E+04 -8.51870E+02 -1.98576E+04  7.80526E+03 -2.45496E+04  1.62004E+04 -1.21028E+04
  8.05805E+03  7.28225E+03 -1.02455E+04  1.18958E+04 -2.26698E+04 -6.08521E+03 -8.34811E+03 -3.67573E+04
  2.59674E+04 -4.84359E+04  5.36580E+04 -2.10955E+04  4.93519E+04  2.07516E+04  1.74884E+04  4.80903E+04
 -1.81777E+04  3.55831E+04 -2.83821E+04  1.79610E+03 -1.29733E+04 -3.00580E+04  2.17552E+04 -3.84649E+04
  4.47703E+04 -1.13619E+04  4.19781E+04  2.59002E+04  2.16472E+04  5.32958E+04 -9.07894E+03  5.84762E+04
 -3.73124E+04  4.04479E+04 -4.85294E+04  1.02328E+04 -4.99410E+04 -1.86479E+04 -2.61214E+04 -4.16368E+04
  7.66066E+03 -4.36656E+04  3.52493E+04 -1.81521E+04  3.26970E+04  1.11617E+04  6.56996E+03  2.09618E+04
 -1.22601E+04  9.13058E+03 -1.20154E+04 -6.38986E+03  5.65915E+03 -1.13853E+04  1.81988E+04  6.41534E+03
  1.60233E+04  2.23296E+04 -6.36578E+03  2.78570E+04 -2.39470E+04  1.42338E+04 -3.19802E+04 -3.38549E+03
 -2.68087E+04 -1.92323E+04 -1.38685E+04 -2.71989E+04  4.67543E+03 -2.79465E+04  2.18120E+04 -2.30386E+04
  3.44372E+04 -1.51626E+04  4.04211E+04  5.66317E+03  2.86580E+04  2.46814E+04  4.39704E+03  4.12955E+04
 -2.01690E+04  3.49902E+04 -3.23118E+04  1.30036E+04 -2.28179E+04 -1.09000E+04 -3.21769E+03 -1.22336E+04
 -1.81687E+02  1.37678E+03 -9.34451E+03  8.27095E+03 -2.04317E+04  5.96836E+03 -2.09724E+04 -1.03160E+04
 -1.28606E+04 -2.51841E+04  6.50216E+03 -2.78562E+04  1.94233E+04 -2.06666E+04  2.34584E+04 -1.28253E+03
  1.65521E+04  1.74114E+04 -1.22381E+03  2.50896E+04 -1.69290E+04  1.29813E+04 -2.40609E+04 -3.61211E+03
 -1.72763E+04 -2.20283E+04 -6.54691E+02 -2.90511E+04  1.30254E+04 -2.55555E+04  2.60289E+04 -1.20750E+04
  2.28554E+04 -4.89566E+02  1.60348E+04  5.90452E+03  9.68668E+03  2.32033E+03  1.24548E+04 -1.22716E+03
  2.40557E+04  1.90693E+03  2.67387E+04  1.89500E+04  1.92282E+04  3.89874E+04 -2.60846E+03  4.69672E+04
 -2.70128E+04  4.09260E+04 -4.56063E+04  2.06525E+04 -4.71793E+04 -4.42673E+03 -3.90917E+04 -2.97004E+04
 -1.57029E+04 -4.03838E+04  1.33185E+04 -3.60950E+04  2.94764E+04 -1.80353E+04  2.53238E+04  9.60847E+03
  8.65597E+03  2.09411E+04 -1.35845E+04  1.66343E+04 -2.16124E+04  4.56738E+03 -1.56044E+04 -1.42594E+04
 -1.08009E+02 -1.90572E+04  1.21952E+04 -1.68631E+04  1.42241E+04  8.76187E+01  4.38911E+03  1.02783E+04
 -8.48699E+03  2.70987E+03 -1.01912E+04 -6.69336E+03 -2.19742E+03 -1.92236E+04  1.32178E+04 -2.20234E+04
  2.51600E+04 -1.17132E+04  2.98175E+04  2.94737E+03  2.52783E+04  2.05748E+04  1.09505E+04  3.17910E+04
 -5.04463E+03  3.31754E+04 -2.20785E+04  1.95126E+04 -2.51763E+04  5.06582E+03 -1.60878E+04 -5.74601E+03
 -6.76031E+03 -7.67755E+03 -1.96042E+03  1.33838E+03 -3.34427E+03  2.82948E+03 -8.69767E+03  4.01940E+03
 -1.49826E+04 -1.43626E+03 -1.51688E+04 -1.38782E+04 -6.47227E+03 -2.17833E+04  5.97033E+03 -1.69998E+04
  1.35163E+04 -5.28800E+03  1.04900E+04  5.29361E+03  2.61623E+02  6.66423E+03 -1.02553E+04  1.79290E+02
 -8.13105E+03 -9.96934E+03 -1.66627E+03 -1.83430E+04  1.00946E+04 -1.79242E+04  2.09727E+04 -8.85249E+03
  2.72301E+04  4.61067E+03  1.92313E+04  1.80284E+04  3.30327E+03  2.06697E+04 -8.88829E+03  1.73743E+04
 -1.41174E+04  4.61457E+03 -6.07376E+03 -3.97373E+03  2.56179E+03 -5.09519E+03  9.67184E+03 -2.51044E+03
  9.24074E+03  7.85139E+03  1.29157E+03  1.26435E+04 -8.96005E+03  1.34125E+04 -1.80101E+04  1.91592E+03
 -1.21589E+04 -9.04426E+03  3.89189E+02 -1.49944E+04  1.06723E+04 -8.31868E+03  1.05222E+04  5.72517E+03
  3.82007E+03  1.07574E+04 -8.67872E+03  1.22586E+04 -1.57240E+04  5.49981E+03 -1.40187E+04 -6.07745E+03
 -7.40848E+03 -1.87700E+04  4.01413E+03 -1.98221E+04  1.81471E+04 -1.21377E+04  1.99829E+04  2.28045E+03
  1.13855E+04  1.68129E+04 -8.39366E+02  1.62464E+04 -1.25793E+04  1.05832E+04 -1.51843E+04 -1.26218E+03
 -1.20916E+04 -1.23652E+04 -1.85317E+03 -1.36453E+04  7.92476E+03 -1.13758E+04  1.05541E+04 -2.50767E+03
  5.97055E+03  2.11295E+03 -2.03164E+03  3.02692E+03 -1.16700E+03 -4.47180E+03  4.13233E+03 -9.22018E+03
  1.38642E+04 -6.46246E+03  1.82249E+04  1.54526E+03  1.77824E+04  1.10968E+04  1.14466E+04  2.31559E+04
 -5.33647E+03  2.53110E+04 -2.34539E+04  2.05741E+04 -2.99518E+04  4.92172E+03 -2.17969E+04 -1.02503E+04
 -1.11133E+04 -1.97367E+04 -1.36435E+03 -1.46377E+04  6.67533E+03 -1.06543E+04  6.39048E+03 -5.60709E+03
  4.82141E+03 -3.57195E+03  2.00586E+03 -3.85353E+03  5.92591E+03 -4.64955E+03  8.68347E+03 -1.19874E+03
  1.40137E+04  4.06906E+03  7.71208E+03  1.15802E+04 -2.56060E+03  1.43547E+04 -1.21590E+04  1.03437E+04
 -1.69135E+04 -2.20922E+03 -1.16258E+04 -1.19594E+04 -2.26314E+03 -1.74641E+04  9.55423E+03 -1.93695E+04
  1.98026E+04 -9.59214E+03  2.24651E+04  3.08900E+03  1.61122E+04  1.73209E+04  2.88241E+03  2.12429E+04
 -7.70454E+03  1.86447E+04 -9.13681E+03  3.70917E+03 -7.37825E+03 -1.39838E+03 -2.80081E+03 -3.55305E+03
 -2.13354E+03 -5.82667E+02 -3.67548E+03  4.43761E+03 -6.04100E+03  3.45763E+03 -1.22688E+04 -1.62248E+03
 -9.45435E+03 -1.08478E+04 -1.81849E+03 -1.84616E+04  1.05853E+04 -1.51504E+04  1.83956E+04 -4.06377E+03
  1.76076E+04  9.45318E+03  7.87560E+03  1.49312E+04 -3.57541E+03  1.77368E+04 -1.34828E+04  9.08711E+03
 -1.73400E+04 -1.65933E+02 -1.25146E+04 -1.13914E+04 -1.44848E+03 -1.59530E+04  7.02512E+03 -1.32905E+04
  9.18433E+03 -3.20998E+03  8.46646E+03  2.58227E+03  1.26676E+03  6.00268E+03  4.00435E+02  3.47658E+03
  2.89977E+03  1.84491E+03  4.94541E+03  1.09510E+03  7.10620E+03  4.99202E+03  4.32033E+03  9.35240E+03
 -3.36699E+03  1.52295E+04 -1.29165E+04  1.41298E+04 -1.90624E+04  3.40570E+03 -1.82673E+04 -7.71194E+03
 -9.55458E+03 -1.83066E+04  3.08033E+03 -1.87826E+04  9.23407E+03 -1.29658E+04  1.46411E+04 -2.31482E+03
  9.77184E+03  7.15110E+03  1.93177E+03  9.92850E+03 -3.09614E+03  5.95714E+03 -6.37206E+03 -3.68826E+01
 -4.46483E+03 -8.12550E+03  2.61666E+03 -8.20932E+03  7.55366E+03 -3.02249E+03  8.39058E+03  2.90271E+03
  4.11704E+03  3.60691E+03  1.42463E+03  4.22780E+03 -1.19510E+03  2.36327E+03  3.91209E+02 -4.34717E+02
  3.96219E+03 -1.91917E+02  6.62565E+03  2.18516E+03  5.30013E+03  1.01738E+04 -1.98706E+03  1.34557E+04
 -9.84148E+03  7.57723E+03 -1.18270E+04  1.34106E+03 -1.10231E+04 -3.16357E+03 -2.24930E+03 -7.40749E+03
  1.59379E+03 -6.31393E+03  3.58831E+03 -2.21786E+03  3.64401E+03  2.42071E+03 -1.65996E+03  6.19452E+03
 -7.22146E+03  2.57375E+03 -1.03290E+04 -3.40459E+03 -2.88787E+03 -1.15741E+04  3.32309E+03 -1.10317E+04
  6.28150E+03 -6.99652E+03  6.87399E+03 -2.27995E+03  6.09947E+03  3.77431E+03  9.19462E+02  3.52806E+03
 -2.52625E+03  4.54799E+02 -3.93953E+03 -4.41848E+03  2.59098E+03 -8.28375E+03  8.53696E+03 -5.11590E+03
  1.16344E+04  1.67205E+03  1.06060E+04  8.53841E+03  4.28809E+03  1.24668E+04 -5.04851E+03  1.07835E+04
 -9.18734E+03  5.41214E+03 -1.07924E+04 -2.34398E+03 -6.25873E+03 -7.83334E+03  1.09862E+03 -8.73886E+03
  6.71680E+03 -4.12460E+03  6.02431E+03  2.52356E+03  1.69743E+03  8.26754E+03  6.52281E+02  5.63400E+03
 -3.85932E+03  3.09922E+03 -1.41767E+03  2.23703E+03 -9.77747E+02 -6.24379E+02 -2.93583E+03  3.04395E+03
 -2.98077E+03  5.04261E+03 -8.75867E+03  4.60256E+03 -1.39561E+04 -1.39973E+03 -1.26025E+04 -8.63915E+03
 -6.89182E+03 -1.59405E+04  1.71705E+03 -1.76768E+04  1.30982E+04 -1.58352E+04  1.76230E+04 -5.13220E+03
  1.57046E+04  3.00185E+03  9.25177E+03  1.08305E+04 -1.97254E+02  1.46810E+04 -5.12915E+03  9.56525E+03
 -7.47985E+03  2.81122E+03 -5.26127E+03 -9.08745E+02 -1.47039E+02 -1.68947E+03 -1.45409E+03 -1.15283E+03
 -1.95272E+03 -5.30059E+02 -1.11030E+03  2.71903E+02 -1.76125E+02 -2.19558E+03  1.71317E+03 -5.14029E+03
  6.54428E+03 -4.62843E+03  6.44307E+03  4.33883E+02  1.10475E+04  6.86212E+03  2.68142E+03  1.31715E+04
 -7.01516E+03  1.57685E+04 -1.19417E+04  9.36008E+03 -1.50839E+04 -5.96074E+02 -1.13366E+04 -1.07156E+04
 -5.90986E+03 -1.31532E+04  4.82518E+03 -1.28116E+04  8.16081E+03 -6.29745E+03  8.22953E+03  3.36525E+02
  4.59684E+03  4.21155E+03  2.15057E+02  3.36288E+03 -2.79300E+03 -2.59369E+02  2.60247E+02 -4.36971E+03
  3.79452E+03 -2.99096E+03  2.38853E+03  1.86927E+03  4.71326E+03  5.92673E+03  1.28553E+03  7.58896E+03
 -4.72824E+03  5.09725E+03 -9.79532E+03  2.08514E+02 -8.14530E+03 -7.78932E+03 -8.19877E+02 -1.14492E+04
  6.56210E+03 -9.74680E+03  1.09446E+04 -2.39531E+03  1.14648E+04  1.87060E+03  6.97943E+03  8.09366E+03
 -1.44360E+03  7.39287E+03 -3.98731E+03  6.04301E+03 -6.20699E+03  4.56401E+03 -3.67096E+03 -1.70619E+02
 -8.93709E+02 -1.43387E+03 -2.61179E+03  1.04799E+03 -4.61502E+03  1.96035E+03 -7.03626E+03  9.53201E+00
 -6.83018E+03 -4.56162E+03 -2.10122E+03 -7.02682E+03  5.82121E+03 -9.04696E+03  7.10507E+03 -5.61952E+03
  7.50092E+03 -9.62473E+02  5.99130E+03  6.67793E+03  3.13217E+01  1.06307E+04 -6.56664E+03  4.63024E+03
