 $NMID ID='MM_0lb_SNR200_7hz_g45_2.RAW', FMTDAT='(8E13.5)'
 TRAMP=1., VOLUME=1. $END
  3.09376E+05  1.64936E+03  3.37727E+05  2.52554E+05  8.42004E+04  3.40524E+05 -1.33146E+05  2.53160E+05
 -1.91394E+05  8.22844E+04 -1.13660E+05 -3.29176E+04  2.12576E+02 -5.07669E+04  5.34186E+04  9.30874E+02
  3.58680E+04  5.42046E+04 -1.61284E+04  7.67501E+04 -6.03516E+04  6.39254E+04 -8.48859E+04  3.19140E+04
 -8.28138E+04 -1.12549E+04 -5.85589E+04 -5.07762E+04 -1.51964E+04 -7.29457E+04  2.89129E+04 -4.71812E+04
  3.96365E+04  2.40069E+03  1.64524E+04  5.02645E+04 -3.54090E+04  4.90727E+04 -6.74033E+04  8.95809E+01
 -5.59313E+04 -5.81202E+04 -5.10768E+03 -8.03393E+04  3.43612E+04 -5.86878E+04  5.12314E+04 -1.71503E+04
  4.55255E+04  1.17191E+04  3.32244E+04  2.78425E+04  1.56860E+04  3.31367E+04 -6.78671E+03  2.72204E+04
 -2.31134E+04  1.15193E+04 -1.83090E+04 -6.06357E+03  5.62787E+03 -5.08661E+03  2.46688E+04  1.40244E+04
  7.12633E+03  3.86559E+04 -3.31453E+04  3.79354E+04 -6.65017E+04  7.14215E+02 -6.01431E+04 -4.47218E+04
 -1.41637E+04 -6.60453E+04  4.17478E+04 -5.07673E+04  6.10938E+04 -2.35745E+03  3.66767E+04  3.39201E+04
 -8.23467E+03  3.86877E+04 -3.33821E+04  1.80415E+04 -3.34752E+04 -4.63167E+03 -1.88897E+04 -1.35982E+04
 -1.09051E+04 -1.69638E+04  9.57354E+02 -1.95125E+04  7.52074E+03 -2.37403E+04  1.56465E+04 -1.13241E+04
  1.09406E+04  5.20075E+03 -1.19472E+04  1.30486E+04 -2.34425E+04 -8.60092E+03 -9.23683E+03 -3.96227E+04
  2.63890E+04 -4.78894E+04  5.42505E+04 -2.16910E+04  4.81343E+04  2.16495E+04  1.56840E+04  4.75093E+04
 -1.68515E+04  3.68238E+04 -2.94929E+04  2.90734E+03 -1.24691E+04 -3.01830E+04  2.30857E+04 -3.70987E+04
  4.73194E+04 -1.24689E+04  4.24346E+04  2.62349E+04  2.29788E+04  5.09825E+04 -8.95534E+03  5.85191E+04
 -3.60465E+04  3.82201E+04 -5.02750E+04  9.79644E+03 -4.96164E+04 -2.09192E+04 -2.69750E+04 -4.44746E+04
  8.88249E+03 -4.34743E+04  3.52296E+04 -1.78446E+04  3.44463E+04  1.16383E+04  6.86802E+03  1.89381E+04
 -1.45705E+04  9.69120E+03 -1.10843E+04 -8.34704E+03  5.72528E+03 -1.15204E+04  2.04190E+04  3.21669E+03
  1.46069E+04  2.31189E+04 -6.70316E+03  2.81631E+04 -2.50520E+04  1.67094E+04 -3.32406E+04 -2.80397E+03
 -2.69167E+04 -2.06046E+04 -1.18454E+04 -2.82855E+04  6.15298E+03 -2.85412E+04  2.22413E+04 -2.47453E+04
  3.44375E+04 -1.38942E+04  3.98815E+04  4.28327E+03  2.78246E+04  2.44012E+04  5.57187E+03  4.32208E+04
 -2.22065E+04  3.50867E+04 -2.96226E+04  1.32370E+04 -2.25472E+04 -1.02191E+04 -3.45275E+03 -1.11086E+04
  9.14070E+02 -9.53103E+02 -9.33665E+03  9.05678E+03 -2.24969E+04  4.08510E+03 -2.10013E+04 -1.12785E+04
 -1.25173E+04 -2.42507E+04  4.51209E+03 -3.15390E+04  2.11654E+04 -2.22084E+04  2.41753E+04 -1.80334E+03
  1.71254E+04  1.71413E+04 -1.45677E+03  2.70404E+04 -1.69438E+04  1.28550E+04 -2.47745E+04 -4.40881E+03
 -1.90010E+04 -2.36896E+04 -4.40154E+03 -2.93978E+04  1.40655E+04 -2.37596E+04  2.44441E+04 -1.40462E+04
  2.36091E+04  3.25406E+02  1.73202E+04  5.93716E+03  1.03995E+04  2.37407E+03  1.11590E+04 -3.14569E+03
  2.45518E+04  1.45608E+03  2.84911E+04  2.19412E+04  1.84479E+04  3.99860E+04 -4.44606E+03  4.68511E+04
 -2.48569E+04  3.99168E+04 -4.45402E+04  2.06144E+04 -4.71191E+04 -4.81738E+03 -3.88239E+04 -2.65330E+04
 -1.72047E+04 -3.77579E+04  1.43187E+04 -3.53869E+04  3.09420E+04 -1.72976E+04  2.64664E+04  8.77923E+03
  7.37635E+03  2.05691E+04 -1.09091E+04  1.64896E+04 -2.06700E+04  3.75050E+03 -1.75782E+04 -1.42597E+04
 -2.88211E+02 -2.22356E+04  1.04911E+04 -1.41524E+04  1.41541E+04 -2.25774E+03  3.04354E+03  9.24581E+03
 -9.16832E+03  5.26271E+03 -1.22889E+04 -9.18721E+03 -2.26828E+03 -2.03121E+04  1.28417E+04 -2.13408E+04
  2.37552E+04 -1.23105E+04  2.87414E+04  3.23771E+03  2.73614E+04  2.00208E+04  1.20232E+04  3.22112E+04
 -7.52464E+03  3.45851E+04 -2.15873E+04  2.17579E+04 -2.56280E+04  5.55898E+03 -1.68455E+04 -5.67599E+03
 -6.89883E+03 -5.44323E+03  2.87513E+02 -1.06753E+03 -3.19640E+03  4.91971E+03 -6.68560E+03  4.97832E+03
 -1.51698E+04 -2.56644E+03 -1.72519E+04 -1.43428E+04 -7.79799E+03 -2.02902E+04  7.62253E+03 -1.89959E+04
  1.31534E+04 -7.94900E+03  9.07092E+03  5.98521E+03 -1.05120E+03  6.27855E+03 -8.41700E+03 -5.23099E+00
 -6.62215E+03 -9.25392E+03 -1.23240E+03 -1.77179E+04  8.67096E+03 -1.83906E+04  2.27224E+04 -1.04625E+04
  2.61726E+04  1.27503E+03  1.78985E+04  1.76204E+04  3.25004E+03  2.04801E+04 -1.09962E+04  1.58815E+04
 -1.40377E+04  6.30269E+03 -7.49134E+03 -3.09455E+03  2.44820E+03 -5.79744E+03  8.70489E+03 -5.89941E+02
  7.35897E+03  8.84694E+03  4.06820E+02  1.35420E+04 -1.03712E+04  1.42653E+04 -1.82040E+04  1.97687E+03
 -1.31500E+04 -1.12081E+04 -3.94976E+02 -1.58502E+04  1.08688E+04 -7.08184E+03  9.09516E+03  3.31762E+03
  3.23279E+03  1.21847E+04 -7.93621E+03  1.45872E+04 -1.52599E+04  6.40086E+03 -1.63326E+04 -6.02604E+03
 -9.79516E+03 -1.67729E+04  5.84785E+03 -2.23484E+04  1.69200E+04 -1.10226E+04  2.03035E+04  2.47763E+03
  1.31129E+04  1.62302E+04 -3.11330E+03  1.69218E+04 -1.42439E+04  1.15157E+04 -1.39848E+04  2.05909E+03
 -1.18437E+04 -1.27184E+04 -9.59374E+02 -1.37311E+04  7.97687E+03 -1.16360E+04  9.39364E+03 -3.66113E+03
  6.39443E+03  2.15021E+03 -2.74800E+03  4.29991E+02  2.80499E+02 -4.26593E+03  5.36420E+03 -9.41939E+03
  1.50862E+04 -7.28649E+03  1.95545E+04  1.73661E+03  1.79210E+04  1.03362E+04  1.13342E+04  2.55159E+04
 -5.87810E+03  2.92877E+04 -2.29467E+04  1.95510E+04 -3.05612E+04  3.49509E+03 -2.29928E+04 -9.98749E+03
 -1.09259E+04 -2.02600E+04 -1.51532E+03 -1.58485E+04  6.08795E+03 -9.69309E+03  5.03026E+03 -7.47912E+03
  5.96842E+03 -3.98079E+03  4.97571E+03 -5.70202E+03  6.31108E+03 -3.97732E+03  9.00815E+03 -2.86086E+03
  1.26057E+04  2.90971E+03  6.78475E+03  1.13676E+04 -1.68106E+03  1.21477E+04 -1.37764E+04  1.22181E+04
 -1.80195E+04 -6.77063E+02 -1.34430E+04 -1.33441E+04 -9.43629E+02 -1.97996E+04  9.08251E+03 -1.92607E+04
  1.76755E+04 -1.03748E+04  2.48805E+04  3.33884E+03  1.48518E+04  1.60975E+04  2.07748E+03  2.08221E+04
 -9.21754E+03  1.67489E+04 -1.16506E+04  7.89502E+03 -8.77883E+03 -2.47830E+03 -3.96732E+03 -3.13842E+03
 -1.54223E+03  1.97896E+02 -2.86560E+03  1.94785E+03 -7.32133E+03  4.84725E+03 -1.35944E+04 -2.00164E+03
 -9.13208E+03 -1.06375E+04 -1.33699E+03 -1.76354E+04  1.22376E+04 -1.67194E+04  1.66214E+04 -4.21020E+03
  1.66640E+04  8.87188E+03  8.81635E+03  1.69623E+04 -3.51310E+03  1.78201E+04 -1.45609E+04  1.15476E+04
 -1.70691E+04 -2.25670E+02 -1.52949E+04 -1.14903E+04 -1.29367E+03 -1.40894E+04  7.88709E+03 -1.26021E+04
  1.13931E+04 -2.77138E+03  9.32374E+03  4.51732E+03  3.27831E+03  4.25783E+03  2.07533E+03  2.99197E+03
  2.66213E+03  3.20849E+03  3.91949E+03  1.89164E+03  5.93462E+03  6.11483E+03  4.39599E+03  8.87818E+03
 -3.72254E+03  1.36526E+04 -1.28271E+04  1.38540E+04 -1.87064E+04  1.58902E+03 -1.74992E+04 -7.93785E+03
 -1.22521E+04 -1.91041E+04  3.09169E+03 -2.02008E+04  9.97660E+03 -1.20936E+04  1.58468E+04 -4.11345E+03
  1.15319E+04  7.13569E+03  2.19929E+03  1.11827E+04 -5.89282E+03  8.44731E+03 -7.41518E+03 -4.93271E+02
 -4.63353E+03 -9.32297E+03  4.68403E+03 -9.19271E+03  8.05672E+03 -5.42407E+03  8.06276E+03  1.10805E+03
  4.79727E+03  3.92632E+03  2.57927E+03  2.56497E+03 -1.20145E+03  2.80832E+03  2.76142E+03 -1.26016E+03
  3.88843E+03 -1.03732E+03  1.00981E+04  1.59540E+03  5.59224E+03  1.08393E+04 -7.37806E+02  1.19807E+04
 -8.94897E+03  1.02216E+04 -1.24155E+04  3.14343E+03 -1.22722E+04 -2.00648E+03 -3.76999E+03 -7.96033E+03
  4.61633E+02 -7.29511E+03  3.02408E+03 -2.97372E+03  4.28631E+03  3.17571E+03 -1.74802E+03  7.39747E+03
 -8.63126E+03  2.29855E+03 -1.02214E+04 -4.84713E+03 -4.64176E+03 -1.16101E+04  3.21438E+03 -1.07888E+04
  7.29565E+03 -7.48034E+03  7.18991E+03 -5.72282E+02  6.81140E+03  2.15434E+03  1.73450E+03  6.16236E+03
 -4.27471E+03  2.31891E+03 -5.32166E+03 -4.42161E+03  9.25198E+02 -8.42840E+03  8.50945E+03 -6.87394E+03
  1.44474E+04  2.13105E+03  1.22018E+04  8.16211E+03  5.76576E+03  1.41819E+04 -6.42587E+03  1.24967E+04
 -1.06223E+04  5.00807E+03 -1.19651E+04 -3.20387E+03 -7.12739E+03 -1.12263E+04  2.24803E+03 -9.29058E+03
  8.56061E+03 -3.05260E+03  5.53434E+03  3.08177E+03  2.27620E+03  6.36699E+03 -3.66025E+02  5.57066E+03
 -4.13241E+03  2.18842E+03 -3.84722E+03  1.20067E+03 -7.77866E+02  1.75879E+03 -1.46451E+03  2.52042E+03
 -3.14129E+03  5.33066E+03 -9.61543E+03  5.36060E+03 -1.40846E+04 -4.63367E+02 -1.51876E+04 -7.89597E+03
 -8.31105E+03 -1.75011E+04  2.47189E+03 -2.03015E+04  1.38510E+04 -1.53553E+04  1.92768E+04 -5.60831E+03
  1.68830E+04  5.67517E+03  1.05474E+04  1.35696E+04  1.47592E+03  1.61236E+04 -7.50053E+03  1.07026E+04
 -7.71522E+03  4.87436E+03 -5.89030E+03 -1.87743E+03 -2.48700E+03 -2.34061E+03 -2.08641E+03  4.26889E+02
 -2.31642E+03  7.24196E+02 -4.12620E+03 -2.05157E+02 -1.22289E+03 -5.14453E+03  2.02846E+03 -5.28543E+03
  7.16507E+03 -3.93230E+03  8.55026E+03  8.68216E+02  1.04005E+04  8.21700E+03  2.51536E+03  1.32241E+04
 -7.67003E+03  1.60762E+04 -1.43820E+04  8.56038E+03 -1.67369E+04 -1.36596E+03 -1.34683E+04 -1.18706E+04
 -5.74019E+03 -1.45875E+04  5.60781E+03 -1.42464E+04  9.37378E+03 -8.63526E+03  7.78477E+03  5.52175E+02
  6.97904E+03  4.71556E+03 -5.81764E+02  4.33278E+03 -2.33229E+03  8.44736E+02  1.76371E+03 -4.50550E+03
  4.48625E+03 -1.41359E+03  4.83944E+03  2.97296E+03  5.03902E+03  7.65893E+03 -1.58258E+03  9.75387E+03
 -6.77704E+03  7.14761E+03 -8.88316E+03 -1.92581E+02 -9.04162E+03 -6.45505E+03 -2.57266E+03 -1.27737E+04
  6.09792E+03 -1.02439E+04  1.09180E+04 -2.04885E+03  1.29715E+04  1.13170E+03  8.18823E+03  9.02447E+03
 -9.49675E+01  1.08503E+04 -4.55373E+03  8.13583E+03 -6.74165E+03  4.01785E+03 -6.83394E+03 -6.14630E+02
 -2.52736E+03  1.80224E+02 -2.37904E+03 -6.49176E+02 -7.49586E+03  3.97557E+02 -8.05494E+03 -9.72022E+01
 -8.86822E+03 -5.79039E+03 -3.05302E+03 -1.17114E+04  3.90047E+03 -1.08666E+04  1.05417E+04 -4.37213E+03
  9.46569E+03  1.59445E+03  5.23972E+03  6.84779E+03 -1.04428E+03  1.21575E+04 -6.38551E+03  8.03483E+03
