 $NMID ID='MM_0lb_SNR200_7hz_g55_7.RAW', FMTDAT='(8E13.5)'
 TRAMP=1., VOLUME=1. $END
  3.08865E+05 -6.14880E+02  3.37832E+05  2.52099E+05  8.61311E+04  3.38902E+05 -1.30200E+05  2.52493E+05
 -1.89957E+05  8.21767E+04 -1.12779E+05 -3.07633E+04  3.69359E+02 -5.01839E+04  5.41587E+04  1.24214E+02
  3.47242E+04  5.36818E+04 -1.66430E+04  7.67462E+04 -6.20938E+04  6.48614E+04 -8.56353E+04  3.24267E+04
 -8.35544E+04 -9.51782E+03 -5.74709E+04 -5.29263E+04 -1.54273E+04 -7.34011E+04  2.76946E+04 -4.81596E+04
  4.16262E+04  3.63759E+03  1.69139E+04  4.80702E+04 -3.42562E+04  4.68878E+04 -6.77142E+04  3.18546E+02
 -5.51708E+04 -5.89776E+04 -7.13511E+03 -8.07975E+04  3.55450E+04 -5.78279E+04  5.06012E+04 -2.02642E+04
  4.53071E+04  1.12461E+04  3.36116E+04  2.72000E+04  1.62994E+04  3.17012E+04 -6.56186E+03  2.96331E+04
 -2.41113E+04  1.30505E+04 -1.77653E+04 -5.19845E+03  8.48451E+03 -7.60635E+03  2.51995E+04  1.38878E+04
  8.29904E+03  3.78513E+04 -3.47032E+04  3.72568E+04 -6.65543E+04  1.58890E+03 -6.13413E+04 -4.60461E+04
 -1.25737E+04 -6.66992E+04  4.09577E+04 -4.94557E+04  6.20025E+04 -1.18630E+03  3.79169E+04  3.56621E+04
 -4.48031E+03  4.07683E+04 -3.30364E+04  2.08621E+04 -3.56571E+04 -2.30801E+03 -2.04588E+04 -1.08323E+04
 -9.84977E+03 -1.56524E+04 -1.60314E+03 -2.29000E+04  7.96591E+03 -2.33154E+04  1.75983E+04 -1.30166E+04
  9.79691E+03  8.07686E+03 -1.12811E+04  1.34162E+04 -2.40232E+04 -8.72960E+03 -8.75619E+03 -3.93412E+04
  2.53078E+04 -4.72723E+04  5.51276E+04 -2.25105E+04  4.79913E+04  2.11948E+04  1.85726E+04  4.70133E+04
 -1.69064E+04  3.80938E+04 -2.82488E+04  4.33001E+03 -1.25519E+04 -3.05051E+04  2.12977E+04 -3.83244E+04
  4.70075E+04 -1.05413E+04  4.33204E+04  2.62403E+04  2.18426E+04  5.27367E+04 -6.74537E+03  5.92743E+04
 -3.77584E+04  3.96514E+04 -5.00324E+04  1.17046E+04 -5.06523E+04 -1.96976E+04 -2.93035E+04 -4.54347E+04
  9.35648E+03 -4.36069E+04  3.58455E+04 -1.96841E+04  3.40150E+04  1.36012E+04  6.14294E+03  2.13769E+04
 -1.45846E+04  1.06570E+04 -1.20869E+04 -6.66696E+03  3.83306E+03 -1.24970E+04  1.93958E+04  6.02128E+03
  1.66838E+04  2.12769E+04 -4.68752E+03  2.70325E+04 -2.39222E+04  1.35814E+04 -3.35424E+04 -3.02890E+03
 -2.76812E+04 -2.15312E+04 -1.18481E+04 -2.66336E+04  3.26243E+03 -2.99335E+04  2.13390E+04 -2.61092E+04
  3.64966E+04 -1.50220E+04  4.23728E+04  5.13435E+03  2.96598E+04  2.62761E+04  3.36039E+03  4.32226E+04
 -1.90213E+04  3.62238E+04 -3.16109E+04  1.22937E+04 -2.27997E+04 -9.94676E+03 -5.40948E+03 -1.25286E+04
  1.48949E+03 -3.40579E+02 -7.79192E+03  9.42907E+03 -2.29879E+04  4.87238E+03 -2.29787E+04 -9.65068E+03
 -1.20528E+04 -2.64960E+04  6.44067E+03 -3.07744E+04  2.21126E+04 -2.30574E+04  2.71487E+04 -3.91407E+03
  1.52284E+04  2.02991E+04 -1.06757E+03  2.72013E+04 -1.82428E+04  1.64005E+04 -2.58129E+04 -4.82388E+03
 -1.84138E+04 -2.24201E+04 -1.70497E+03 -3.08364E+04  1.48008E+04 -2.36857E+04  2.69500E+04 -1.20135E+04
  2.37000E+04  4.40493E+01  1.73540E+04  5.71006E+03  1.09335E+04  2.82454E+03  1.16466E+04 -2.44610E+03
  2.36103E+04  8.31035E+02  2.79686E+04  2.04100E+04  2.03507E+04  4.24253E+04 -2.53233E+03  4.93178E+04
 -2.87531E+04  4.23716E+04 -4.69454E+04  2.28805E+04 -5.00065E+04 -2.89208E+03 -3.97508E+04 -2.90562E+04
 -1.53182E+04 -4.14450E+04  1.50598E+04 -3.50625E+04  3.23188E+04 -1.75590E+04  2.75031E+04  8.45219E+03
  9.61444E+03  2.07773E+04 -1.26679E+04  1.84198E+04 -2.06876E+04  4.19790E+03 -1.68799E+04 -1.38655E+04
 -1.63101E+03 -2.01004E+04  1.26747E+04 -1.46187E+04  1.51937E+04 -1.87032E+03  4.56800E+03  1.07213E+04
 -9.18512E+03  5.01943E+03 -1.04664E+04 -6.78873E+03 -2.11732E+03 -2.14613E+04  1.18291E+04 -2.20807E+04
  2.63322E+04 -1.34289E+04  3.12099E+04  3.64097E+03  2.70379E+04  2.18201E+04  1.13134E+04  3.37332E+04
 -5.35734E+03  3.50468E+04 -2.17294E+04  2.32833E+04 -2.77853E+04  4.05620E+03 -1.83886E+04 -7.58906E+03
 -7.65191E+03 -8.27610E+03 -1.70355E+03 -9.20782E+02 -2.72885E+03  4.28499E+03 -9.74596E+03  7.40361E+03
 -1.69295E+04 -1.11025E+03 -1.82541E+04 -1.40349E+04 -6.36088E+03 -2.28708E+04  6.60981E+03 -1.88773E+04
  1.51251E+04 -6.83721E+03  9.88776E+03  7.85765E+03 -8.00814E+02  6.56724E+03 -1.17604E+04 -1.24043E+02
 -9.60990E+03 -1.05179E+04 -2.61993E+03 -1.80317E+04  1.18045E+04 -2.00325E+04  2.41040E+04 -9.95478E+03
  2.61334E+04  2.67769E+03  1.91527E+04  1.78545E+04  3.90178E+03  2.10699E+04 -1.05337E+04  1.70010E+04
 -1.46087E+04  4.62927E+03 -7.77690E+03 -4.67853E+03  2.53328E+03 -2.93997E+03  8.24842E+03 -2.48555E+03
  7.91137E+03  9.28628E+03  1.15641E+03  1.55482E+04 -9.47732E+03  1.61479E+04 -1.80502E+04  1.96210E+03
 -1.20308E+04 -8.59199E+03  2.01908E+02 -1.66118E+04  9.76599E+03 -8.22018E+03  1.21096E+04  3.16800E+03
  3.98528E+03  1.33487E+04 -1.06812E+04  1.44483E+04 -1.52919E+04  5.44492E+03 -1.61153E+04 -5.65429E+03
 -1.02182E+04 -1.95784E+04  3.84247E+03 -2.23769E+04  1.86599E+04 -1.46200E+04  2.09683E+04  3.95077E+03
  1.17848E+04  1.70599E+04 -2.51932E+03  1.99749E+04 -1.38682E+04  1.12440E+04 -1.71046E+04 -1.70659E+03
 -1.25361E+04 -1.12287E+04 -2.55083E+03 -1.35539E+04  7.25214E+03 -1.11924E+04  9.73840E+03 -2.87066E+03
  4.43663E+03  1.16611E+03 -7.04601E+02  2.52818E+03 -1.37132E+03 -2.78095E+03  4.76427E+03 -1.04262E+04
  1.49710E+04 -5.60146E+03  1.93110E+04  2.16817E+03  1.97498E+04  1.31599E+04  1.11577E+04  2.71909E+04
 -5.84880E+03  3.00398E+04 -2.50268E+04  2.29746E+04 -3.24222E+04  5.02170E+03 -2.64037E+04 -1.21884E+04
 -1.36763E+04 -2.23676E+04  2.57888E+02 -1.94967E+04  7.13582E+03 -9.85610E+03  6.70493E+03 -6.18477E+03
  5.49721E+03 -4.55146E+03  3.66959E+03 -4.91404E+03  5.34878E+03 -4.28190E+03  1.05737E+04 -7.71730E+02
  1.14896E+04  2.88600E+03  7.37570E+03  1.26449E+04 -2.03290E+03  1.47396E+04 -1.42484E+04  1.07779E+04
 -1.94826E+04 -3.55098E+03 -1.35310E+04 -1.38198E+04 -4.05598E+03 -2.11577E+04  9.93960E+03 -2.06246E+04
  2.14770E+04 -1.09452E+04  2.47435E+04  2.78948E+03  1.55473E+04  1.56816E+04  6.41108E+02  2.29756E+04
 -9.96900E+03  1.75473E+04 -1.25643E+04  5.43117E+03 -1.00953E+04 -2.00117E+03 -3.21917E+03 -3.65791E+03
 -3.03472E+03  1.51570E+03 -2.92317E+03  4.60322E+03 -6.51484E+03  3.09019E+03 -1.24750E+04 -2.09644E+03
 -8.42170E+03 -1.33260E+04 -4.36605E+02 -1.97669E+04  1.23195E+04 -1.62076E+04  1.96119E+04 -6.69786E+03
  1.96843E+04  9.31636E+03  9.63451E+03  1.86805E+04 -3.64696E+03  1.97862E+04 -1.43466E+04  1.20790E+04
 -1.65841E+04  8.19772E+01 -1.41823E+04 -1.11949E+04 -2.76259E+03 -1.55838E+04  9.59930E+03 -1.22776E+04
  1.17368E+04 -1.84135E+03  9.30387E+03  3.59205E+03  3.97788E+03  5.32925E+03  6.44778E+02  3.06881E+03
  3.86892E+03 -1.35940E+01  4.11671E+03  2.67636E+03  6.12696E+03  5.22469E+03  5.11131E+03  1.18177E+04
 -2.64545E+03  1.64954E+04 -1.38952E+04  1.42481E+04 -2.19015E+04  1.75254E+03 -2.12741E+04 -7.20635E+03
 -1.04958E+04 -1.94821E+04  3.28340E+03 -2.12407E+04  1.25062E+04 -1.54748E+04  1.78203E+04 -2.70471E+03
  1.07445E+04  7.98899E+03  2.50919E+03  9.95190E+03 -5.92401E+03  8.53248E+03 -8.11282E+03 -1.57977E+03
 -4.47674E+03 -8.85506E+03  5.28208E+03 -9.52037E+03  8.11028E+03 -2.43235E+03  1.01481E+04  2.85782E+03
  4.85805E+03  3.12786E+03  3.38995E+03  3.60190E+03 -1.66861E+03  1.28032E+03  6.79741E+02 -2.54728E+03
  4.30118E+03 -1.38727E+03  8.32650E+03  3.25475E+03  3.44160E+03  1.05869E+04  9.86523E+01  1.38614E+04
 -1.01046E+04  7.42234E+03 -1.29395E+04  1.59164E+03 -1.08235E+04 -3.42991E+03 -6.40519E+03 -8.21301E+03
 -1.79770E+02 -8.57816E+03  5.51307E+03 -4.29469E+03  2.78589E+03  4.17793E+03 -3.30790E+03  7.63605E+03
 -8.74089E+03  4.13743E+03 -1.08582E+04 -5.59522E+03 -6.56668E+03 -1.26556E+04  1.52675E+03 -1.18238E+04
  7.60083E+03 -9.08112E+03  9.55899E+03 -1.34168E+03  5.88830E+03  3.63580E+03  1.92172E+03  5.31316E+03
 -3.97234E+03  2.49961E+03 -5.57534E+03 -4.58049E+03  1.71038E+03 -9.95607E+03  9.93429E+03 -5.31318E+03
  1.25094E+04  3.98668E+02  1.28581E+04  9.59984E+03  3.88294E+03  1.47796E+04 -5.00064E+03  1.36221E+04
 -1.10776E+04  6.05412E+03 -1.28844E+04 -2.47699E+03 -6.14844E+03 -9.08255E+03  5.93859E+01 -1.06098E+04
  9.82797E+03 -4.09702E+03  8.39974E+03  3.77560E+03  2.90101E+03  7.29608E+03 -3.39728E+02  4.88652E+03
 -2.21928E+03  3.51488E+03 -5.34048E+03  2.78506E+03 -1.46359E+03  1.60455E+03 -2.52640E+03  2.80485E+03
 -2.42007E+03  5.56854E+03 -9.19675E+03  6.37443E+03 -1.39948E+04  8.16945E+02 -1.42112E+04 -9.98235E+03
 -9.66622E+03 -1.93392E+04  3.93940E+03 -2.21749E+04  1.32613E+04 -1.66519E+04  1.76688E+04 -7.87703E+03
  1.86241E+04  3.96114E+03  1.53947E+04  1.30543E+04  1.02053E+03  1.64564E+04 -6.00524E+03  1.32359E+04
 -1.08207E+04  5.78402E+03 -4.92177E+03 -3.18459E+03 -3.18680E+03 -2.91380E+03 -4.69133E+02 -1.48206E+03
 -1.67279E+03 -8.88494E+00 -2.70148E+03 -2.09135E+03 -1.50025E+03 -3.03572E+03 -1.37367E+02 -3.54566E+03
  6.82997E+03 -3.85316E+03  1.11541E+04  1.16609E+03  9.41976E+03  7.96180E+03  2.12431E+03  1.62040E+04
 -6.78716E+03  1.59844E+04 -1.77640E+04  1.03619E+04 -1.71273E+04 -1.55970E+03 -1.41153E+04 -1.29507E+04
 -7.51274E+03 -1.67476E+04  4.08624E+03 -1.46024E+04  8.32214E+03 -6.41754E+03  1.12513E+04 -5.33844E+02
  5.18990E+03  5.88152E+03 -5.98342E+02  4.46014E+03 -4.26350E+03  6.03500E+02  8.20875E+01 -5.33011E+03
  3.97537E+03 -1.47892E+03  5.87030E+03  2.56425E+03  2.54667E+03  6.06779E+03 -1.62793E+02  8.48966E+03
 -6.49067E+03  8.82336E+03 -9.86821E+03  1.76863E+03 -9.76350E+03 -8.67390E+03 -2.49156E+03 -1.31236E+04
  8.91388E+03 -1.10202E+04  1.29977E+04 -5.05915E+03  1.16479E+04  5.50512E+03  8.26313E+03  9.99404E+03
  1.25190E+03  9.66996E+03 -3.35054E+03  8.58648E+03 -5.49257E+03  4.58637E+03 -5.24398E+03 -8.34454E+02
 -6.43111E+02  7.36851E+02 -2.30784E+03 -3.18079E+02 -5.28088E+03  3.71085E+03 -9.24170E+03 -3.13557E+02
 -9.92560E+03 -5.97407E+03 -2.10341E+03 -1.03906E+04  6.20717E+03 -1.21515E+04  9.23910E+03 -5.82794E+03
  1.39726E+04  1.77818E+03  7.67159E+03  8.24200E+03 -8.29922E+02  1.13609E+04 -8.70676E+03  5.89408E+03
