 $NMID ID='MM_0lb_SNR50_20hz_g55_10.RAW', FMTDAT='(8E13.5)'
 TRAMP=1., VOLUME=1. $END
  3.10605E+05 -5.85541E+02  3.34779E+05  2.52652E+05  8.47116E+04  3.39687E+05 -1.30321E+05  2.49237E+05
 -1.87291E+05  8.17461E+04 -1.12369E+05 -3.14146E+04 -4.41217E+02 -5.17653E+04  5.31179E+04 -3.85373E+03
  2.86701E+04  5.43423E+04 -2.02738E+04  7.20106E+04 -6.01233E+04  6.40469E+04 -8.44143E+04  2.90148E+04
 -7.91028E+04 -8.81331E+03 -5.53126E+04 -5.22610E+04 -1.66584E+04 -6.75701E+04  2.78094E+04 -4.23273E+04
  4.02951E+04  1.92650E+03  1.56596E+04  4.37610E+04 -2.92039E+04  4.30350E+04 -6.51374E+04 -1.06622E+02
 -5.25971E+04 -5.62092E+04 -7.69522E+03 -7.68933E+04  3.32991E+04 -5.34990E+04  4.59408E+04 -1.50284E+04
  3.90793E+04  7.81230E+03  3.51568E+04  2.82536E+04  1.67158E+04  2.79522E+04 -4.90978E+03  2.45797E+04
 -2.23494E+04  1.79290E+04 -1.96676E+04 -8.18589E+03  3.01961E+03 -9.72942E+03  2.26772E+04  1.14562E+04
  6.93310E+03  3.49836E+04 -2.78207E+04  3.14867E+04 -6.30813E+04  1.74510E+03 -5.30041E+04 -3.97113E+04
 -1.18166E+04 -6.30263E+04  3.42718E+04 -4.19938E+04  5.23775E+04 -4.26413E+03  3.50875E+04  3.23005E+04
 -1.08678E+04  2.83244E+04 -2.97583E+04  1.05659E+04 -3.01872E+04 -7.36048E+03 -1.63914E+04 -8.54806E+03
 -1.05257E+04 -1.12484E+04  3.77128E+02 -1.45169E+04  3.43820E+03 -2.49640E+04  1.33673E+04 -1.69028E+04
  1.17538E+04  5.50095E+03 -7.41665E+03  1.19764E+04 -1.83745E+04 -2.71529E+03 -1.12842E+04 -3.09635E+04
  1.99560E+04 -4.30074E+04  4.86807E+04 -2.13613E+04  3.99228E+04  1.96853E+04  1.55163E+04  3.65097E+04
 -1.71713E+04  3.18333E+04 -2.15125E+04 -1.89099E+02 -1.28717E+04 -2.46469E+04  2.13272E+04 -3.48299E+04
  3.75137E+04 -7.76472E+03  3.28570E+04  2.31147E+04  1.34747E+04  4.39736E+04 -5.13399E+03  4.49031E+04
 -2.87789E+04  2.83250E+04 -3.54422E+04  8.29012E+03 -4.18924E+04 -1.35157E+04 -2.06138E+04 -3.75761E+04
  3.84343E+03 -3.31288E+04  2.92420E+04 -1.03381E+04  2.39405E+04  9.27211E+03  1.19891E+03  2.05208E+04
 -1.07506E+04  1.20095E+04 -8.89064E+03 -9.93634E+03  5.87985E+03 -1.08686E+04  1.47059E+04  6.52245E+03
  1.06429E+04  2.23381E+04 -6.16245E+03  2.31540E+04 -2.01392E+04  9.86747E+03 -2.30610E+04 -5.76824E+03
 -1.86621E+04 -1.49867E+04 -8.60338E+03 -1.60927E+04  5.67410E+03 -1.55114E+04  1.41140E+04 -1.55018E+04
  2.38468E+04 -1.10967E+04  2.82002E+04  6.38222E+02  2.51943E+04  1.63655E+04  5.76783E+03  3.31033E+04
 -1.55260E+04  2.86612E+04 -2.87818E+04  7.22314E+03 -1.98641E+04 -8.57959E+03 -8.56385E+03 -1.11607E+04
  4.25563E+03 -5.54015E+03 -5.74709E+03  5.66223E+03 -1.12191E+04  7.24086E+03 -1.30153E+04 -8.26313E+03
 -5.70204E+03 -1.63541E+04  1.12266E+03 -1.95974E+04  8.67944E+03 -1.06030E+04  1.41790E+04  3.28468E+02
  1.17658E+04  7.67934E+03 -2.80375E+03  1.68206E+04 -9.98967E+03  9.62873E+03 -1.40957E+04 -7.28121E+03
 -5.54609E+03 -1.43713E+04 -3.14107E+03 -1.92727E+04  9.04431E+03 -1.20717E+04  1.74853E+04 -5.02348E+03
  1.94203E+04  2.24146E+03  7.93444E+03  3.74259E+03  7.49520E+03  1.31982E+03  6.10795E+03 -9.01876E+02
  1.23858E+04  1.79586E+03  1.71536E+04  1.17539E+04  8.23015E+03  2.57154E+04 -2.32078E+03  3.00055E+04
 -1.67833E+04  2.16828E+04 -2.42813E+04  1.46677E+04 -2.59238E+04  2.76103E+03 -2.24378E+04 -1.50932E+04
 -1.11114E+04 -1.75208E+04  4.49221E+03 -1.62902E+04  1.58960E+04 -1.24326E+04  1.41429E+04  4.41096E+03
  9.65819E+03  9.63403E+03 -7.71259E+03  9.02379E+03 -1.50469E+04  4.20447E+03 -6.30029E+03 -9.16668E+03
  1.98295E+01 -1.36719E+04  7.86173E+03 -6.62232E+03  4.53365E+03 -1.11333E+03  2.79372E+03  3.69049E+03
 -9.86378E+02  7.30101E+03 -5.14895E+03 -6.28117E+03 -2.16617E+03 -8.99607E+03  7.26965E+03 -1.25149E+04
  1.42110E+04 -9.08000E+02  1.12882E+04  3.55555E+03  9.05348E+03  5.99471E+03  1.33805E+03  1.32625E+04
 -9.10696E+02  1.46191E+04 -1.11241E+04  1.18189E+04 -1.34669E+04  2.21579E+03 -3.78114E+03 -2.48865E+03
 -5.72832E+03 -1.22376E+03 -1.76095E+03 -1.14529E+03  2.72195E+03 -8.32854E+02 -3.65257E+03  2.21345E+03
 -9.81294E+03  1.40792E+03 -6.04639E+03 -8.02029E+03 -2.47296E+03 -1.26215E+04 -4.97639E+02 -5.09782E+03
  5.20402E+03 -6.89385E+03  8.65459E+03  3.41633E+03 -2.99916E+02  4.06255E+03 -4.54144E+03  2.39813E+03
 -3.50870E+03 -2.38624E+03  7.72287E+02 -4.70566E+03  4.58536E+03 -5.75319E+03  9.67942E+03  8.75540E+02
  7.52686E+03  6.14615E+03  4.87042E+03  6.20304E+03  1.81164E+03  8.34178E+03 -5.91718E+03  4.83339E+03
 -8.81562E+03  1.20840E+03 -1.09269E+03 -1.15236E+03  3.05015E+03 -2.56294E+03  2.79061E+03  1.06671E+03
  5.00949E+03  3.38626E+03  2.26010E+03  1.10449E+04 -6.52522E+02  3.06027E+03 -3.88908E+03 -1.79306E+03
 -5.69392E+03 -4.83883E+03 -3.60679E+03 -6.63675E+03  2.71469E+03 -1.71940E+03  1.25615E+03  4.90673E+03
 -5.44297E+02  1.45911E+03 -1.89399E+03  3.06125E+03 -9.37287E+03  3.27207E+03 -1.96409E+03  4.00341E+03
 -5.95815E+03  4.97357E+01  6.07957E+02 -8.57765E+03  8.28113E+03 -2.02806E+03  2.68679E+03  1.62585E+03
  5.19140E+03  2.97153E+03  6.47969E+03  8.54166E+03 -5.06211E+03  3.12716E+03 -5.92605E+03  4.83554E+03
 -5.43004E+03 -5.72850E+03  2.58527E+03 -7.28612E+03  2.22689E+03 -6.09199E+03 -1.30467E+02  3.43540E+01
  1.34055E+01 -8.46245E+02  4.79506E+02  1.41257E+03 -2.94822E+03 -2.85707E+02  7.00517E+02 -1.27408E+03
  2.84523E+03 -4.05681E+02  4.38262E+03  1.21089E+03  5.18560E+03  1.55164E+03  5.58837E+03  8.12728E+03
  3.41949E+03  6.61291E+03 -7.06975E+03  4.88593E+03 -9.33555E+03  1.50447E+03 -6.59640E+03 -1.79095E+03
 -4.60385E+03 -7.86693E+03  7.73385E+01 -8.15694E+03  3.45673E+02 -3.37990E+03  2.10494E+03 -3.23991E+03
  7.38033E+03 -2.51141E+03 -2.02217E+03 -4.07772E+03  3.77251E+03 -1.50170E+02  2.98126E+03  1.18188E+03
  2.20981E+03 -1.02858E+03  7.69581E+02 -2.89496E+03  9.95315E+01 -1.27953E+02 -2.93787E+03  5.42396E+03
 -6.29519E+03  3.45268E+03 -1.99354E+03  9.99456E+02  5.70307E+02 -4.12433E+03  2.88525E+03 -2.43194E+03
  3.24637E+03 -2.96750E+03  7.04795E+03 -2.13467E+03  1.97083E+03  1.45560E+03  1.13165E+03  4.03781E+03
 -1.64133E+03  8.96075E+03 -4.61161E+03  1.12580E+03  4.99894E+02 -3.07103E+03  2.75068E+03 -2.80598E+02
 -1.78200E+03  4.63925E+03  3.91184E+03  6.15576E+03 -9.58966E+02 -7.05586E+02 -4.65213E+03 -3.47607E+03
 -8.83109E+03 -7.49234E+03 -3.63478E+03 -1.84938E+03  1.32834E+03 -4.46824E+02  4.32933E+03 -5.34194E+02
  2.45233E+03  1.51976E+03  2.71136E+03  4.51653E+03 -2.81615E+02  1.03859E+03 -3.69707E+03  4.16857E+03
 -1.94398E+03 -1.72530E+03 -3.88538E+02 -2.56055E+03  3.90494E+02 -2.16921E+03  4.18833E+03 -2.14862E+03
  1.52720E+03 -2.27752E+03  5.97372E+03 -2.59006E+02  9.73681E+02  2.38952E+02  1.24770E+03  2.13304E+03
 -3.55380E+03 -2.21293E+03  2.10891E+03  1.02140E+03  2.70999E+03  3.09942E+03  1.30019E+03  2.67198E+03
 -4.49969E+03  2.17341E+03  2.31536E+03  6.39666E+03  2.23975E+02 -4.65863E+02 -5.06373E+03  9.73271E+02
 -9.62467E+01 -5.75753E+03  4.58866E+03 -5.51227E+03  5.99912E+03  3.72779E+02  5.68549E+02 -3.01841E+03
  2.00036E+03 -3.16819E+02 -2.84251E+03  4.38996E+03 -3.03820E+03 -1.10400E+03  3.13075E+02 -5.32014E+03
 -1.38018E+03 -2.41725E+03  1.27742E+03 -1.86233E+03 -3.78443E+03 -1.21470E+03  7.32340E+03 -4.16753E+02
 -3.24066E+02 -6.98371E+01  1.91128E+03 -4.50857E+03 -6.66610E+02  1.32413E+03  1.20482E+03 -4.31115E+03
 -3.23975E+02  5.83485E+00  3.24701E+03  6.06778E+02  3.49118E+03  3.95812E+03 -1.25854E+03  3.32785E+02
 -4.71186E+03 -3.79589E+03 -5.08175E+02  6.20649E+02 -1.57527E+03 -3.40094E+03  1.54623E+03 -7.56140E+02
 -1.59129E+02 -2.65444E+03  3.44689E+03  4.36398E+01 -4.09554E+03 -4.81449E+03 -2.13922E+03  9.61789E+01
 -3.09474E+03  1.54569E+03 -2.42809E+03 -1.41330E+02 -1.51184E+03 -1.40466E+03 -3.34286E+02 -3.44702E+03
 -2.20311E+03 -4.59278E+03 -1.46214E+03  1.46256E+03  1.35934E+03  2.67386E+02 -3.57092E+02 -2.07272E+03
 -7.87979E+02  3.34386E+03  4.76533E+03 -1.44832E+02  1.81783E+03 -1.33374E+02  2.43054E+03  1.62878E+02
  1.69760E+03  2.54475E+03  1.15634E+03 -5.57541E+01 -1.86944E+03  4.65458E+03 -2.76319E+03  1.05273E+03
 -3.66656E+03 -3.77556E+03  1.37329E+03 -2.28308E+03  2.48740E+03 -2.86189E+03 -8.11159E+02 -3.60062E+03
  4.70584E+03  1.14381E+03  1.40695E+03 -9.91005E+01  1.67352E+03  1.31018E+03  4.60674E+03 -1.25938E+03
  5.86330E+02  1.21418E+03 -1.65139E+03  2.86862E+03  1.00387E+03  1.21385E+03  8.62942E+02  1.70838E+03
 -1.49436E+03  3.36981E+02  8.83196E+02 -2.55296E+02 -9.16312E+02 -9.36068E+02 -6.73983E+02 -2.59600E+03
  8.10928E+02  6.85038E+02 -3.02556E+03 -1.84344E+03 -3.42476E+03 -6.64356E+03  5.98427E+02  2.34501E+03
 -1.37768E+03 -1.19359E+03  1.76378E+03  3.49846E+03  3.56253E+03  5.54409E+03  4.89824E+03  2.22077E+02
 -2.33034E+03  2.71353E+03 -3.20640E+03  3.04028E+02  4.75838E+02  5.78291E+02 -2.06013E+03  3.25687E+03
 -2.93779E+03  1.91073E+03  5.76991E+03 -8.68836E+02 -3.06556E+01 -1.25210E+03 -4.72860E+03  1.60584E+01
 -1.58705E+03  2.37020E+03 -9.76175E+02  1.19082E+03 -2.46395E+03  3.39312E+03 -7.31239E+02 -9.38195E+02
  2.65416E+03  4.42397E+03 -5.98189E+02 -1.09380E+03 -2.33145E+03  2.48450E+03  2.32390E+03  2.31359E+03
 -2.61651E+03  1.18876E+03 -1.65918E+03  5.94667E+03  2.68056E+03  2.37610E+03  1.10320E+03 -2.47585E+02
  1.14479E+03 -1.29685E+03  7.80622E+00  1.69801E+03 -1.99056E+03 -1.93877E+03 -1.18123E+03 -1.77034E+03
 -1.72057E+01  1.85966E+03  7.62570E+02  1.29743E+03 -8.38019E+02  2.17883E+03  6.51626E+02  1.39026E+03
  2.43175E+03  1.17393E+03  3.17358E+02  1.43998E+03 -1.31269E+03 -2.39108E+03  1.82052E+03  1.74065E+02
 -1.95953E+03  3.13657E+02 -1.28401E+03  2.25741E+03  2.59354E+02 -8.02363E+02 -3.51169E+03  6.12655E+02
 -7.03871E+01  4.58255E+03  1.76269E+03 -4.06792E+03  2.94901E+02 -2.56962E+02 -2.58420E+03  2.86345E+03
  5.74550E+03 -2.89787E+03  2.11290E+03  1.03662E+03  6.80227E+03  1.94444E+03 -4.73438E+03 -1.00183E+03
 -1.55633E+03  7.24463E+02  4.89574E+02 -2.10297E+03  1.37159E+03  3.46135E+02  6.08461E+02 -1.17981E+01
 -9.54564E+02  7.93958E+02 -1.61645E+03 -3.79669E+02  4.92835E+02  1.52967E+02  1.69577E+03 -3.82485E+03
