 $NMID ID='MM_0lb_SNR50_7hz_g45_97.RAW', FMTDAT='(8E13.5)'
 TRAMP=1., VOLUME=1. $END
  3.08419E+05 -2.72425E+02  3.39309E+05  2.51293E+05  7.95252E+04  3.36781E+05 -1.36318E+05  2.59871E+05
 -1.93223E+05  8.51210E+04 -1.08122E+05 -3.05657E+04 -3.16537E+03 -5.00501E+04  4.98473E+04  1.18199E+03
  3.98308E+04  5.14396E+04 -1.77991E+04  7.60846E+04 -7.10120E+04  6.95643E+04 -8.09760E+04  3.29413E+04
 -7.93864E+04 -1.69743E+04 -6.57137E+04 -5.38623E+04 -1.49376E+04 -6.20398E+04  3.36872E+04 -4.97663E+04
  4.10500E+04  3.98636E+02  1.20371E+04  4.66836E+04 -4.05611E+04  4.86071E+04 -6.78838E+04 -4.22936E+03
 -5.54122E+04 -5.62951E+04 -4.17650E+03 -7.12738E+04  3.81166E+04 -5.08500E+04  4.94032E+04 -2.72207E+04
  4.80090E+04  1.34969E+04  3.52324E+04  2.10166E+04  1.32112E+04  3.29341E+04 -5.11134E+03  2.78128E+04
 -2.29826E+04  1.72411E+04 -1.77129E+04 -1.48471E+03  1.88974E+03 -4.67782E+03  2.66098E+04  2.11734E+04
  8.26101E+03  4.39448E+04 -3.52396E+04  3.99205E+04 -6.41116E+04  3.99915E+03 -6.03411E+04 -4.72771E+04
 -9.25352E+03 -6.95264E+04  4.20952E+04 -5.04043E+04  6.75631E+04  2.22591E+03  3.04973E+04  3.44837E+04
 -3.32559E+03  4.30969E+04 -3.21284E+04  2.24436E+04 -3.43960E+04 -8.56112E+03 -2.11334E+04 -1.30422E+04
 -3.58373E+03 -2.03494E+04  2.28893E+03 -1.49857E+04  1.12309E+04 -2.09825E+04  1.72471E+04 -7.77566E+03
  1.03530E+04  2.98469E+03 -9.86256E+03  8.20344E+03 -2.69321E+04 -4.96236E+03 -1.33502E+04 -4.23855E+04
  2.63312E+04 -5.12413E+04  4.84067E+04 -2.02979E+04  4.36213E+04  1.66070E+04  1.51637E+04  4.77045E+04
 -2.78015E+04  4.05730E+04 -3.12428E+04  1.89826E+02 -1.38866E+04 -2.20160E+04  2.10798E+04 -3.50850E+04
  4.62266E+04 -1.54306E+04  3.99745E+04  2.70556E+04  2.71940E+04  5.70203E+04 -1.35846E+04  5.68976E+04
 -3.87550E+04  4.43802E+04 -4.58284E+04  3.98740E+03 -4.56264E+04 -1.98613E+04 -3.02864E+04 -4.82985E+04
  1.48992E+04 -4.16520E+04  3.63408E+04 -1.72975E+04  4.00818E+04  1.53534E+04  5.97399E+03  2.27794E+04
 -1.62256E+04  1.42931E+04 -1.46911E+04 -6.59973E+03 -4.81963E+03 -1.23131E+04  2.01255E+04  4.02571E+02
  1.27971E+04  2.16195E+04 -1.28006E+04  2.75795E+04 -2.98481E+04  1.40019E+04 -3.52876E+04  2.19422E+01
 -2.47079E+04 -2.33827E+04 -1.26382E+04 -3.24641E+04  3.10992E+03 -3.41697E+04  2.70779E+04 -2.04855E+04
  3.10821E+04 -1.33712E+04  3.47882E+04  7.52470E+03  2.57698E+04  3.17246E+04  7.03331E+03  4.90125E+04
 -1.52357E+04  3.39609E+04 -2.97846E+04  4.35075E+03 -2.65262E+04 -1.32404E+04  1.22697E+03 -1.58346E+04
  4.81961E+03 -3.69441E+03 -6.59112E+03  6.30310E+03 -2.47680E+04  1.05980E+03 -1.53698E+04 -1.55767E+04
 -1.97015E+04 -2.85229E+04  1.01502E+04 -3.02029E+04  1.73436E+04 -2.72552E+04  2.88717E+04 -2.67289E+03
  1.73489E+04  1.96443E+04 -6.07239E+02  2.84490E+04 -1.79107E+04  1.39896E+04 -2.71158E+04 -6.22756E+02
 -1.92487E+04 -1.90362E+04 -7.81393E+03 -3.03033E+04  1.90600E+04 -2.00624E+04  2.53165E+04 -1.43674E+04
  2.32275E+04 -1.35776E+03  1.49001E+04  1.14749E+03  5.54966E+03  3.55408E+03  1.96194E+04 -3.22553E+03
  2.46059E+04  9.70856E+02  2.84427E+04  2.04781E+04  2.12148E+04  4.31152E+04 -5.26320E+03  4.06933E+04
 -3.08170E+04  4.01467E+04 -4.46588E+04  1.98969E+04 -4.49243E+04  5.86272E+02 -3.86791E+04 -3.49294E+04
 -1.36117E+04 -3.69902E+04  1.30139E+04 -3.67189E+04  3.16565E+04 -2.23084E+04  2.55261E+04  9.38115E+03
  4.86276E+03  2.61557E+04 -1.62550E+04  1.38534E+04 -2.08372E+04 -1.72121E+03 -2.09752E+04 -1.29724E+04
  4.40782E+03 -1.76801E+04  9.77225E+03 -1.71629E+04  1.27371E+04 -1.39340E+03  5.20954E+03  1.70459E+04
 -4.52165E+03  6.78538E+03 -2.70138E+03 -9.02618E+03  9.88272E+02 -1.68464E+04  1.09591E+04 -1.92820E+04
  2.22011E+04 -1.43353E+04  3.22250E+04 -3.00558E+02  2.58623E+04  2.19162E+04  7.79523E+03  3.50343E+04
 -4.70373E+03  3.57938E+04 -2.24168E+04  2.45705E+04 -2.91901E+04  1.12982E+04 -2.25777E+04 -1.05682E+04
 -8.33030E+03 -1.34516E+04  6.19136E+02  1.18109E+03 -1.83396E+03  2.79244E+03 -6.63603E+03  4.05524E+03
 -2.09062E+04 -3.97473E+03 -1.91011E+04 -7.80569E+03 -5.97881E+03 -2.16804E+04  2.09285E+03 -2.35361E+04
  2.08159E+04 -1.25298E+04  1.76230E+04  1.35148E+04  1.17952E+03  8.74488E+03 -1.43886E+04 -1.03751E+03
 -7.11214E+03 -1.28245E+04 -7.99686E+02 -2.05746E+04  1.07440E+04 -2.03259E+04  2.48185E+04 -1.31018E+04
  2.52129E+04  4.19593E+03  2.29206E+04  1.92026E+04  7.81456E+03  1.97145E+04 -1.83190E+04  1.78939E+04
 -1.39714E+04  8.71882E+03 -4.73988E+03 -4.48325E+03 -2.56795E+03 -6.26512E+03  9.34233E+03  1.79626E+03
  8.80520E+03  3.77761E+03  3.45233E+03  2.02409E+04 -1.01198E+04  7.59598E+03 -9.72195E+03  6.15570E+03
 -1.17458E+04 -8.83662E+03  2.59021E+03 -1.33653E+04  1.16018E+04 -6.69260E+03  1.01341E+04  8.71875E+03
  2.86713E+03  2.33126E+04 -1.25304E+04  1.03754E+04 -1.63895E+04  2.18140E+03 -1.57524E+04 -7.85481E+03
 -3.79907E+03 -1.73354E+04 -1.02518E+03 -2.53579E+04  1.50526E+04 -1.03602E+04  2.03124E+04 -6.21608E+02
  1.38769E+04  1.34965E+04 -3.64252E+03  2.41939E+04 -1.70526E+04  1.45545E+04 -7.67355E+03  2.43415E+03
 -6.54444E+03 -8.18727E+03 -3.78945E+03 -9.64270E+03  1.21981E+04 -1.00529E+04  8.91826E+03 -3.58522E+03
  7.69556E+03  8.11098E+01  1.25981E+03  5.92016E+03 -1.07787E+04 -3.64228E+03  4.37367E+02 -1.41748E+04
  2.56574E+04 -7.56428E+03  1.90122E+04  4.49542E+03  2.23198E+04  1.09434E+04  1.12396E+04  2.65336E+04
 -1.17439E+04  2.74047E+04 -2.62215E+04  1.92389E+04 -2.78066E+04  3.73763E+03 -1.87089E+04 -1.21928E+04
 -9.73990E+03 -1.35915E+04 -5.19936E+03 -9.08547E+03  9.55201E+02 -3.06424E+03  6.97101E+03 -5.57038E+03
 -8.13166E+02 -1.33557E+03 -5.93445E+02 -3.76408E+03  1.29065E+03 -9.84129E+03  1.03455E+04  2.42070E+03
  1.18961E+04 -9.35140E+02  7.12210E+03  1.19816E+04 -5.91125E+03  9.56588E+03 -1.71372E+04  5.76482E+03
 -2.32926E+04  8.32755E+03 -1.34198E+04 -1.39684E+04 -1.91993E+03 -2.28182E+04  8.32785E+03 -2.24865E+04
  2.21990E+04 -6.98379E+03  2.38074E+04  2.19714E+03  1.52298E+04  1.89978E+04  3.56309E+03  2.36313E+04
 -1.66194E+04  2.13072E+04 -1.90243E+04  9.57569E+03 -9.01212E+03  6.03574E+03 -4.38487E+03 -4.20821E+03
 -9.60933E+02 -3.06949E+03  5.98715E+02  3.90764E+03 -6.34837E+03  5.60709E+03 -1.75148E+04 -5.82079E+03
 -6.01535E+03 -1.90761E+04 -3.25455E+03 -1.76616E+04  1.23683E+04 -2.38117E+04  1.19072E+04  2.42293E+03
  1.84748E+04  1.10522E+04  1.03601E+04  1.93965E+04 -5.21613E+03  1.55175E+04 -1.14477E+04  1.67345E+04
 -2.08091E+04 -1.34629E+03 -2.05807E+04 -1.44750E+04  8.01789E+03 -1.33335E+04  8.97341E+03 -1.54219E+04
  1.51610E+04 -3.15258E+03  4.41130E+03  3.31315E+03  6.17698E+03  5.13916E+03  7.87610E+03 -6.90715E+03
  1.47513E+03 -2.50209E+03  2.97127E+03  1.50357E+03  9.46337E+03  2.27215E+03  2.63635E+03  1.01022E+04
 -6.92842E+03  1.76113E+04 -1.01578E+04  1.55761E+04 -1.54495E+04 -3.36179E+02 -2.40349E+04 -1.05747E+04
 -1.05049E+04 -2.41371E+04  7.33456E+03 -2.26611E+04  3.00365E+03 -1.82779E+04  1.54879E+04 -1.50561E+04
  4.56207E+03  6.47806E+03  6.76050E+02  7.64222E+03 -7.76656E+03  1.25940E+04 -2.00416E+03 -1.27868E+03
 -3.39231E+03 -7.98925E+03 -1.48832E+03 -1.13281E+04  9.74972E+03 -4.79599E+03  1.35366E+04  5.93581E+03
  6.10684E+03  7.00112E+02  5.47892E+03  2.32318E+03 -3.42949E+03  6.56077E+02 -2.20493E+02  1.54909E+03
  5.93506E+03  4.39777E+03  1.16885E+04  4.59149E+03  5.49067E+03  1.36678E+04 -3.09618E+03  1.11571E+04
 -1.52918E+04  9.71746E+03 -7.77395E+03  1.66224E+03 -2.03802E+04  3.52992E+03 -2.98455E+03 -1.03075E+04
  2.79312E+03 -1.17450E+03  7.66033E+03 -6.14902E+02  4.06919E+03  2.74158E+03 -1.36935E+03  4.86778E+03
 -7.48740E+03  1.01354E+04 -8.57804E+03 -6.06119E+03 -1.09127E+04 -1.12475E+04  2.80170E+03 -1.07435E+04
  4.79615E+03 -7.58529E+03  1.01860E+04 -5.43056E+03  4.62186E+03  4.56504E+03  1.65473E+03  9.60763E+03
 -5.75417E+03  6.40710E+03 -4.75928E+03 -5.93001E+03  8.78214E+03 -9.12609E+03  4.13183E+03 -6.52811E+03
  9.74248E+03  3.12310E+03  1.37895E+04  3.57174E+03  1.16461E+04  9.54710E+03 -5.04739E+03  1.34072E+04
 -1.55660E+04  3.90052E+03 -1.57893E+04 -6.33628E+03 -2.71641E+03 -9.69765E+03  5.37390E+03 -1.04489E+04
  7.08329E+03 -4.58000E+03  6.75879E+03  6.55433E+03  7.49643E+03  9.94372E+03 -4.88335E+03  1.47681E+02
 -1.08052E+04  4.77531E+03 -3.19502E+03 -1.92078E+03 -5.78727E+03  3.00217E+03 -1.28185E+03  6.08112E+03
 -2.05691E+03  1.14269E+04 -1.09634E+04  5.15059E+03 -1.93939E+04 -1.34563E+03 -7.02766E+03 -1.06426E+04
 -2.50012E+03 -1.22690E+04 -9.92432E+01 -1.92583E+04  1.02661E+04 -1.79831E+04  1.76268E+04 -2.37066E+03
  1.94319E+04  9.25121E+03  1.52090E+04  1.12144E+04  1.25819E+04  1.48589E+04 -3.74002E+03  1.49786E+04
 -1.17426E+04  3.24010E+03 -1.03507E+04 -6.16955E+03 -1.01077E+04 -5.28483E+02  5.44317E+02 -6.41038E+03
 -2.47919E+03  2.13919E+03 -8.16164E+03  1.84226E+03 -5.98796E+03  8.52474E+02  3.98762E+03 -5.91171E+02
  3.47740E+03 -1.55218E+03  1.26512E+04  2.46778E+03  5.58121E+03  1.32539E+04  3.08509E+03  1.07581E+04
 -1.36022E+04  1.57602E+04 -1.70747E+04  1.28418E+04 -2.60765E+04 -3.33063E+03 -1.06758E+04 -1.13989E+04
 -8.62314E+03 -1.10309E+04  1.08311E+04 -2.32147E+04  5.71292E+03 -7.90379E+03  9.02042E+03 -3.38738E+03
  6.03677E+03 -3.14991E+03 -5.74496E+03  9.62177E+03 -5.75115E+03 -2.82680E+03 -1.17755E+03 -9.45963E+02
  4.24840E+01  5.60703E+03  4.06399E+03  5.43928E+03  4.21542E+03  3.09270E+03  3.36764E+03  8.42284E+03
 -4.79406E+03  7.01285E+03 -4.75768E+03 -2.77045E+03 -8.82575E+03 -1.59062E+03 -8.23099E+03 -1.55392E+04
  4.55515E+03 -6.84581E+03  1.22034E+04 -4.62670E+03  1.79470E+04  1.50123E+03  1.11886E+04  1.26871E+04
 -3.15056E+03  6.23725E+03 -2.27537E+03  6.24121E+03 -4.41209E+03  2.90130E+03 -2.28615E+03 -5.31553E+03
 -1.00926E+04 -1.90479E+03  1.51742E+03  5.95275E+03 -5.24533E+03 -1.31863E+03  3.04754E+02 -3.70121E+03
 -5.56522E+03 -6.33075E+02  1.32509E+03 -1.15032E+04  3.09365E+03 -9.44121E+03  1.60154E+04 -6.49944E+03
  1.21547E+04 -2.75309E+03  1.31521E+04  2.50094E+03  8.69057E+02  1.31790E+04 -1.20301E+04  4.06297E+03
