 $NMID ID='MM_0lb_SNR50_9hz_g50_75.RAW', FMTDAT='(8E13.5)'
 TRAMP=1., VOLUME=1. $END
  3.10686E+05 -2.42085E+03  3.35444E+05  2.48501E+05  8.28907E+04  3.35951E+05 -1.35148E+05  2.51334E+05
 -1.93461E+05  8.22681E+04 -1.12314E+05 -2.89258E+04  2.51132E+03 -5.36567E+04  4.94206E+04 -8.39597E+03
  3.75316E+04  5.50218E+04 -1.35851E+04  7.34155E+04 -6.39623E+04  6.77384E+04 -8.04421E+04  3.39103E+04
 -8.04604E+04 -1.56288E+04 -6.06047E+04 -5.25716E+04 -1.56581E+04 -6.88819E+04  2.71257E+04 -4.12809E+04
  4.23946E+04 -3.09009E+03  1.53830E+04  4.45917E+04 -3.81237E+04  5.07882E+04 -7.08793E+04 -1.20017E+04
 -5.17035E+04 -5.74767E+04 -8.62928E+03 -7.70549E+04  3.62773E+04 -5.81506E+04  4.17678E+04 -2.40815E+04
  4.38217E+04  6.16450E+03  3.09761E+04  2.88543E+04  1.61570E+04  2.87478E+04 -1.42067E+04  2.49686E+04
 -2.36214E+04  9.76553E+03 -1.44915E+04 -3.61091E+03  1.48907E+03 -7.52756E+03  2.26437E+04  1.67763E+04
  1.01694E+04  4.02279E+04 -3.45215E+04  3.73019E+04 -6.18920E+04 -2.49609E+03 -5.93149E+04 -4.97506E+04
 -1.41792E+04 -6.06820E+04  4.56743E+04 -4.66415E+04  5.91494E+04 -3.48967E+03  3.47948E+04  3.92686E+04
 -2.91813E+03  4.21407E+04 -2.87343E+04  1.20109E+04 -3.98001E+04 -4.85022E+03 -1.81274E+04 -7.37587E+03
 -5.15412E+03 -1.70196E+04  2.76304E+03 -2.27991E+04  1.10372E+04 -2.75291E+04  1.15524E+04 -9.75285E+03
  1.67952E+04  3.23997E+03 -1.28175E+04  1.12141E+04 -2.34440E+04 -7.69218E+03 -8.68718E+03 -3.85595E+04
  2.70837E+04 -4.72047E+04  4.85300E+04 -2.59715E+04  4.64584E+04  2.40533E+04  1.27305E+04  4.56963E+04
 -1.18896E+04  3.44313E+04 -2.79565E+04  2.42621E+03 -1.65480E+04 -2.79295E+04  1.82665E+04 -3.56562E+04
  4.62676E+04 -7.76680E+03  4.01579E+04  1.82176E+04  2.06755E+04  5.04444E+04 -1.13430E+04  5.22316E+04
 -2.42486E+04  3.64808E+04 -4.65579E+04  1.07495E+04 -4.65375E+04 -1.13605E+04 -3.23262E+04 -4.58492E+04
  5.27507E+03 -3.88221E+04  3.25677E+04 -2.47002E+04  3.57499E+04  1.24620E+04  3.46821E+03  2.34471E+04
 -1.85818E+04  1.09868E+04 -1.91440E+04 -1.04389E+04  8.12249E+03 -1.30079E+04  1.44351E+04  6.81250E+03
  1.47879E+04  2.38173E+04 -8.92492E+03  2.72292E+04 -2.34495E+04  1.71722E+04 -3.72842E+04 -6.64271E+03
 -2.26354E+04 -2.10568E+04 -1.05381E+04 -2.24144E+04  9.68390E+03 -2.60182E+04  2.03958E+04 -2.40110E+04
  3.19306E+04 -1.73249E+04  3.66072E+04  2.38950E+03  2.30961E+04  2.01917E+04  9.52205E+03  3.73767E+04
 -2.49419E+04  3.22879E+04 -3.72814E+04  1.37141E+04 -2.25237E+04 -5.83961E+03  2.79207E+03 -1.78576E+04
  1.08650E+03  1.23328E+02 -1.05877E+04  9.65089E+03 -1.96838E+04  1.94176E+03 -1.98946E+04 -7.07012E+03
 -9.80082E+03 -2.18443E+04  8.77947E+03 -2.28481E+04  1.08156E+04 -2.06989E+04  1.79227E+04 -6.03880E+03
  1.07091E+04  1.77765E+04 -5.44774E+03  2.43944E+04 -1.32771E+04  1.43320E+04 -2.16898E+04 -7.64973E+03
 -1.39612E+04 -1.94173E+04  1.41651E+03 -3.03609E+04  8.83644E+03 -2.39065E+04  2.50161E+04 -1.33633E+04
  2.08416E+04 -1.42624E+03  1.78800E+04  4.16506E+03  1.56179E+03 -1.10954E+03  1.24008E+04  4.02667E+03
  2.23052E+04  6.14616E+03  2.96275E+04  1.72108E+04  1.87264E+04  3.68696E+04  4.86786E+02  4.83046E+04
 -2.30293E+04  4.01598E+04 -4.34241E+04  1.84987E+04 -4.78535E+04  3.20169E+02 -4.32996E+04 -2.49622E+04
 -1.78445E+04 -3.22753E+04  1.65996E+04 -3.18154E+04  3.15352E+04 -1.56010E+04  2.40886E+04  9.94794E+03
  1.06986E+04  1.83753E+04 -1.81016E+04  1.38366E+04 -2.11112E+04  1.26954E+03 -9.30723E+03 -1.36659E+04
  2.43445E+03 -2.40872E+04  9.71147E+03 -1.21674E+04  1.00322E+04 -2.72276E+03  3.87080E+03  3.48814E+03
 -8.91779E+03  2.84355E+03 -3.04944E+03 -6.43851E+03 -2.14549E+03 -2.24069E+04  1.43361E+04 -2.39229E+04
  2.22442E+04 -1.10245E+04  2.71308E+04  1.83878E+03  1.72055E+04  2.14360E+04  6.31015E+03  3.20074E+04
 -9.70164E+03  3.37544E+04 -2.27026E+04  1.97097E+04 -2.01625E+04  2.88676E+03 -2.00538E+04 -7.24709E+03
 -4.61558E+03 -1.25140E+04 -1.74202E+03 -2.07479E+03  6.25798E+03  4.99527E+01 -3.53512E+03  2.74437E+03
 -1.20996E+04 -2.67980E+03 -1.31473E+04 -1.13270E+04 -6.81637E+03 -1.81434E+04  3.58662E+03 -1.92461E+04
  1.57127E+04 -2.24283E+03 -4.20516E+02  8.44430E+03  1.20977E+02  1.19922E+04 -9.64469E+03 -4.57473E+03
 -1.03307E+04  1.94320E+03 -5.62086E+03 -1.29187E+04  1.09726E+04 -2.21856E+04  2.07086E+04 -7.38488E+03
  2.25995E+04 -1.22575E+03  2.12556E+04  6.82032E+03  7.19630E+03  2.60200E+04 -1.36173E+04  1.61942E+04
 -1.80220E+04  9.47911E+03 -8.62476E+03 -3.35459E+03 -6.89773E+02 -7.58359E+03  1.15252E+04 -1.44176E+03
  9.98070E+03  6.13450E+03  1.65551E+03  1.21940E+04 -8.15103E+03  1.22597E+04 -1.85532E+04  3.84701E+03
 -1.63779E+04 -6.89250E+03  3.64330E+01 -1.11037E+04 -1.09921E+03 -1.02973E+04  3.61729E+03 -2.45266E+02
  2.19912E+03  1.27562E+04 -1.19257E+04  1.31110E+04 -1.69564E+04  1.01083E+04 -1.95629E+04 -8.54895E+03
 -8.64927E+03 -1.53622E+04  9.08817E+03 -1.64771E+04  1.61262E+04 -1.17788E+04  1.85081E+04  8.39736E+03
  1.50237E+04  9.69581E+03 -5.69608E+03  1.47907E+04 -1.03349E+04  5.84780E+03 -1.71510E+04 -5.85240E+03
 -7.98180E+03 -1.29211E+04  6.17367E+02 -7.85203E+03  4.03184E+03 -5.63935E+03  7.28851E+03 -5.34265E+03
  6.44710E+03  4.46067E+03  1.39267E+03  8.01854E+01 -2.10868E+03 -5.18666E+03  1.27604E+04 -4.15555E+03
  9.34904E+03 -1.57297E+03  1.89438E+04  9.37204E+02  1.51086E+04  1.16637E+04  3.49287E+03  1.60255E+04
 -3.03117E+03  3.07468E+04 -1.43121E+04  2.69896E+04 -2.68899E+04  2.95496E+03 -1.96863E+04 -7.09957E+03
 -9.19071E+03 -1.79750E+04 -4.72306E+02 -1.07795E+04  8.62209E+03 -8.37657E+03  7.79931E+03 -7.31010E+02
  4.21100E+03 -5.01124E+03  2.80695E+03 -5.94101E+03  4.44350E+03  2.67603E+03  1.22191E+04 -2.02341E+03
  1.01846E+04  4.44700E+03  1.49811E+03  1.43992E+04 -7.11236E+03  1.52615E+04 -1.75077E+04  1.03353E+04
 -1.82608E+04 -7.77009E+03 -8.81288E+03 -8.64798E+03 -6.26337E+03 -1.90126E+04  5.49319E+03 -1.27296E+04
  2.00095E+04 -7.39737E+03  1.80795E+04  3.84237E+03  1.38665E+04  1.66858E+04  4.57154E+03  1.22347E+04
 -6.87894E+03  1.40039E+04 -1.22241E+04 -6.69362E+03 -4.68420E+03 -1.46036E+03 -1.91101E+03 -1.99843E+03
 -2.60255E+03  2.29196E+03 -5.59475E+03  3.75553E+03 -7.14348E+03 -2.40630E+03 -7.46186E+03 -3.89953E+03
 -1.81259E+03 -1.14969E+04 -1.92391E+03 -1.81992E+04  1.29467E+04 -6.33457E+03  1.59003E+04 -1.07046E+03
  9.80589E+03  9.17138E+03 -1.74387E+03  1.08428E+04  8.69322E+00  8.03115E+03 -9.07149E+03  1.10210E+04
 -1.66680E+04  5.03944E+03 -1.25604E+04 -9.09989E+03 -4.01692E+03 -1.11894E+04  1.46570E+04 -1.82658E+03
  4.73918E+03  1.04851E+03  9.44013E+03  9.45632E+02  3.57875E+03  1.12940E+04  3.45696E+02  4.49772E+03
  1.74952E+03 -5.67679E+02 -4.76272E+03  2.41870E+03  4.54239E+03  4.14725E+03  4.70505E+03  8.23835E+03
 -2.67716E+03  1.55698E+04 -1.29617E+04  1.24221E+04 -1.55859E+04 -4.63692E+02 -1.90708E+04 -9.22191E+03
  2.22263E+02 -1.86554E+04  5.78198E+03 -1.66657E+04  1.04917E+04 -1.31327E+04  1.25279E+04 -7.94862E+03
  9.37937E+03  5.93215E+03  2.66967E+03  7.17045E+03  4.09158E+03  2.74848E+03 -8.20195E+03 -7.05109E+02
  2.45811E+03 -6.21293E+03  1.94276E+03 -1.16328E+04  6.89488E+03 -4.33894E+03  2.71778E+03 -8.00383E+02
  2.84070E+03  1.89039E+03  4.23973E+03  4.26613E+03 -5.70729E+03  1.99283E+03 -5.27911E+03 -2.43152E+03
  4.99619E+03  1.43925E+03  5.82239E+03  4.33254E+02 -2.15582E+03  7.37979E+03 -7.11517E+03  1.16971E+04
  3.44574E+01  3.30551E+03 -1.29765E+04  2.60675E+03 -9.61412E+03 -2.18287E+03 -3.00845E+03 -7.09032E+03
  7.01596E+03 -9.58299E+03  8.20021E+03 -4.09996E+03  1.86436E+03 -1.50596E+03 -7.78090E+02  6.41231E+03
 -6.08828E+03 -3.49618E+03 -4.75202E+03 -2.01410E+03  1.18931E+03 -1.21588E+04 -2.30938E+03 -6.53468E+03
  4.81075E+03 -1.46066E+03  9.92221E+03  4.01055E+03  4.96143E+03  1.64091E+03  1.75129E+03  3.99217E+03
 -8.41450E+03 -4.90503E+02 -2.86948E+03 -3.37942E+03  2.18709E+03 -5.54853E+03  1.63871E+02 -8.20872E+03
  5.63591E+03  1.93215E+03  9.67466E+03  9.78300E+03  5.27417E+03  1.54049E+04 -8.78896E+03  1.15486E+04
 -4.59489E+03  7.89661E+03 -9.96477E+03  2.62823E+03 -6.13553E+03 -7.91260E+03 -5.30977E+02 -3.81908E+03
  1.26749E+04 -4.90513E+03  8.31644E+02  2.79110E+03 -8.42020E+02  2.25560E+03 -3.48438E+03  2.42624E+02
  2.26134E+02  1.93630E+03 -2.01649E+03 -2.71873E+02  5.89732E+03 -7.00233E+02 -1.12438E+03 -1.11575E+02
  8.83102E+02  3.55480E+03 -1.02446E+04 -4.21873E+03 -1.51491E+04  1.86546E+03 -1.18919E+04 -5.84840E+03
 -2.10723E+03 -1.34421E+04  2.79818E+03 -1.58307E+04  1.13927E+04 -8.16849E+03  1.80343E+04 -5.09735E+03
  1.28624E+04  2.43222E+03  5.15582E+03  9.05550E+03  4.82699E+03  1.01390E+04 -6.75569E+03  1.38869E+04
 -4.53227E+03  3.19326E+03 -5.46636E+03  1.74462E+03  1.74576E+03  1.10141E+02 -2.96043E+03 -5.39168E+03
  1.77743E+03  3.38677E+03  5.10710E+03 -1.45251E+03  6.36260E+03 -4.63776E+03 -2.00408E+03 -7.78606E+03
  3.20190E+03 -3.84679E+03  1.03220E+04 -6.20740E+03  2.39914E+03  8.20924E+03  1.27045E+03  1.16198E+04
 -8.61049E+03  1.28884E+04 -1.12667E+04  2.90870E+03 -1.28021E+04  4.52480E+03 -6.91271E+03 -7.97811E+03
  1.29000E+03 -1.05473E+04  1.11266E+04 -4.60229E+03  3.04047E+03 -1.00046E+04  5.92302E+03  4.52757E+03
 -4.72074E+03  6.48671E+03 -6.23911E+03  7.54606E+03  3.35535E+02 -1.74832E+03  2.94589E+03  2.65087E+02
  2.58888E+03  3.47723E+03  4.34789E+01  3.20436E+03 -1.57402E+02  8.23113E+03  2.00480E+03  1.09025E+04
 -5.45637E+03  5.94730E+03 -4.97240E+03 -3.76567E+03 -8.23728E+03 -5.78323E+03 -7.78721E+03 -1.11785E+04
  3.17738E+03 -1.24910E+04  1.58926E+03 -4.75061E+03  8.51248E+03 -1.07336E+03  5.05360E+03  9.48941E+03
 -2.64469E+03  8.43936E+03  2.03831E+03  3.06190E+03 -4.17821E+03  3.61310E+03 -5.87243E+03  2.92249E+02
 -3.63416E+03 -5.90732E+02 -3.50358E+03  2.48496E+03 -5.52597E+03 -4.43848E+02 -3.17266E+03 -4.70826E+03
 -3.75064E+03 -2.87872E+03 -6.53007E+03 -8.84629E+03 -3.02343E+02 -3.16513E+03  7.94296E+03 -4.41451E+03
  9.48066E+03  2.45918E+03 -8.70863E+01  7.70679E+03  1.57794E+03  1.02785E+04 -3.20162E+03  3.77110E+03
