 $NMID ID='MM_0lb_SNR50_11hz_g55_52.RAW', FMTDAT='(8E13.5)'
 TRAMP=1., VOLUME=1. $END
  3.11490E+05  6.66709E+03  3.40539E+05  2.48980E+05  8.43449E+04  3.37014E+05 -1.39782E+05  2.55182E+05
 -1.91417E+05  8.60410E+04 -1.12993E+05 -3.10390E+04 -1.72038E+03 -5.16324E+04  5.21991E+04 -3.60913E+02
  3.72743E+04  5.71096E+04 -1.56139E+04  7.38705E+04 -6.93488E+04  6.72063E+04 -8.78816E+04  2.83003E+04
 -7.57439E+04 -1.12462E+04 -6.05016E+04 -5.42661E+04 -1.83135E+04 -7.38197E+04  2.29767E+04 -4.14857E+04
  3.97165E+04  1.99405E+03  1.36417E+04  4.94111E+04 -3.46436E+04  5.09245E+04 -6.67878E+04  4.84677E+03
 -6.03557E+04 -5.99645E+04 -4.33987E+03 -7.31307E+04  2.98397E+04 -5.40446E+04  5.32146E+04 -1.71405E+04
  4.62498E+04  1.05096E+04  2.88842E+04  2.81768E+04  1.18745E+04  2.92425E+04 -8.09266E+03  2.62454E+04
 -2.21497E+04  1.60165E+04 -1.48740E+04 -7.06528E+02  8.19485E+03 -8.28733E+03  2.18531E+04  1.37203E+04
  1.26042E+04  4.10594E+04 -2.37783E+04  3.61310E+04 -6.15494E+04  1.45118E+03 -6.61129E+04 -3.94279E+04
 -1.24837E+04 -6.13379E+04  3.78549E+04 -4.27206E+04  5.86220E+04  1.94578E+03  3.96950E+04  3.69720E+04
 -1.50979E+03  3.91570E+04 -3.19220E+04  1.32367E+04 -3.22285E+04 -6.85213E+03 -1.64921E+04 -1.42401E+04
 -5.84712E+03 -1.23549E+04 -1.80173E+03 -1.41473E+04  1.09113E+04 -2.20167E+04  1.62672E+04 -1.98217E+04
  1.31627E+04  3.48174E+03 -1.21706E+04  1.65023E+04 -2.27125E+04 -1.02884E+04 -6.20939E+03 -3.99534E+04
  2.61990E+04 -5.07029E+04  4.99438E+04 -2.12039E+04  4.82428E+04  1.87966E+04  1.83251E+04  4.67946E+04
 -1.48487E+04  3.62041E+04 -2.57235E+04  3.82838E+02 -1.52051E+04 -2.79152E+04  2.83830E+04 -3.17325E+04
  4.30502E+04 -9.70613E+03  4.36146E+04  2.52009E+04  2.04809E+04  5.06618E+04 -1.01893E+04  5.62577E+04
 -2.83103E+04  3.65709E+04 -4.21571E+04  7.25499E+03 -4.72023E+04 -2.01835E+04 -2.78459E+04 -3.92838E+04
  7.36625E+03 -3.94717E+04  2.72207E+04 -1.73115E+04  3.14260E+04  9.71949E+03  1.12074E+03  1.09086E+04
 -1.64512E+04  8.49694E+03 -1.06512E+04 -6.44570E+03  6.02234E+03 -1.38385E+04  1.79990E+04  8.97703E+02
  1.88836E+04  2.15864E+04 -7.97696E+03  3.06203E+04 -1.63650E+04  1.19700E+04 -3.31323E+04 -4.55388E+03
 -2.49478E+04 -1.95385E+04 -1.33543E+04 -2.03875E+04  3.67346E+03 -2.81949E+04  1.74743E+04 -2.11936E+04
  3.17128E+04 -9.03557E+03  3.66508E+04  2.52989E+02  2.64675E+04  1.94928E+04  7.16944E+03  4.35615E+04
 -1.77501E+04  3.68668E+04 -2.30096E+04  1.01689E+04 -1.57763E+04 -1.10151E+04 -2.77185E+02 -7.27264E+03
 -1.01674E+03  3.33706E+03 -6.87085E+03  5.32687E+03 -2.29188E+04  5.73873E+03 -2.14998E+04 -9.09872E+03
 -9.53003E+03 -2.62150E+04  9.71100E+03 -2.42967E+04  1.15444E+04 -2.03364E+04  2.41034E+04 -4.72574E+03
  9.92811E+03  2.04259E+04  2.30404E+02  2.13700E+04 -1.16383E+04  1.37254E+04 -2.09735E+04 -2.27811E+03
 -1.74420E+04 -2.32553E+04 -1.77498E+03 -2.53801E+04  1.44963E+04 -2.85550E+04  2.12277E+04 -8.40119E+03
  2.24221E+04 -6.49103E+01  1.52291E+04  3.41564E+03  7.33116E+03  4.45539E+03  1.28586E+04 -4.35436E+02
  1.69239E+04  1.87837E+03  2.34591E+04  1.38628E+04  1.59775E+04  3.18701E+04 -5.29146E+03  4.41753E+04
 -1.83270E+04  3.44006E+04 -3.82603E+04  2.06334E+04 -4.08497E+04 -2.10126E+03 -3.24569E+04 -2.17203E+04
 -8.05124E+03 -3.72658E+04  1.58492E+04 -3.06137E+04  2.40780E+04 -1.96962E+04  2.07208E+04  1.13266E+04
  7.10934E+03  1.58380E+04 -7.64863E+03  1.84116E+04 -2.24768E+04  4.21072E+03 -2.10256E+04 -9.59775E+03
 -2.47985E+03 -1.23254E+04  7.10885E+03 -1.43936E+04  1.38354E+04  1.24030E+03  3.28952E+03  8.65171E+03
 -1.02783E+04  3.95965E+03 -1.04873E+04 -5.42269E+03 -2.95138E+03 -1.38322E+04  1.09111E+04 -1.99490E+04
  2.08420E+04 -9.63631E+03  2.01529E+04  2.07627E+03  2.29811E+04  1.70723E+04  1.20509E+04  2.11470E+04
 -2.15075E+02  3.30936E+04 -2.12272E+04  1.68319E+04 -1.51194E+04  9.22480E+03 -1.80685E+04 -1.52249E+04
 -5.60501E+03 -5.33843E+03 -2.27131E+03  5.26574E+03 -2.43536E+03  4.14408E+03 -1.05213E+04  2.89063E+03
 -9.52878E+03 -9.21370E+02 -1.64192E+04 -1.17332E+04 -6.80207E+03 -1.73702E+04  5.11757E+03 -9.05004E+03
  1.01271E+04 -7.18978E+03  5.17980E+03  1.30652E+03  2.53790E+03  8.82520E+03 -5.31761E+03  4.19790E+02
 -9.68738E+03 -9.20702E+03  5.81399E+03 -1.45247E+04  7.29315E+03 -1.81264E+04  1.12460E+04 -7.06484E+03
  2.06225E+04 -2.36371E+03  1.70230E+04  9.14764E+03  4.81232E+03  1.60913E+04 -8.48476E+03  7.46661E+03
 -1.26756E+04  5.44527E+03 -5.14626E+03  1.17514E+03  3.26526E+03  1.63031E+02  1.06000E+04 -7.77221E+03
  6.72362E+03  7.37893E+03  3.29269E+03  1.64390E+04 -1.44664E+04  1.39820E+04 -1.64670E+04  2.65024E+03
 -1.34989E+04 -7.39348E+03  4.86301E+01 -1.08136E+04  7.79277E+03 -8.22075E+03  1.10021E+04  4.03021E+03
  2.96998E+03  6.81359E+03 -1.03599E+04  1.16624E+04 -7.73403E+03  5.61334E+03 -1.57962E+04 -7.64018E+03
 -3.99502E+03 -1.28026E+04  3.62366E+03 -1.19570E+04  1.12676E+04 -9.18398E+03  1.35867E+04  2.23059E+03
  4.09041E+03  1.37650E+04 -1.99343E+03  1.60683E+04 -1.28004E+04  1.06410E+04 -1.39280E+04 -2.31326E+03
 -1.38332E+04 -7.77793E+03 -1.50895E+03 -1.34564E+04  5.89513E+03 -2.11989E+03  5.14650E+03 -1.02438E+04
  8.60499E+03  3.41866E+03 -1.16625E+00  2.15991E+03 -3.56458E+03 -4.99263E+03  4.79841E+02 -5.99604E+03
  7.78778E+03 -7.57971E+03  7.30159E+03 -2.46780E+03  1.26050E+04  1.13719E+04  1.45699E+04  1.59929E+04
 -7.29845E+02  1.98564E+04 -1.44441E+04  1.53680E+04 -2.45081E+04  3.17675E+03 -1.26847E+04 -9.33792E+03
 -1.18672E+04 -1.29354E+04 -5.25007E+03 -1.12470E+04  2.87401E+03 -6.69214E+02 -5.40322E+02 -5.63328E+02
  2.84937E+02 -3.48253E+03  8.88417E+03  5.01109E+02  3.09188E+03  2.36692E+03  8.00845E+03 -2.22834E+03
  6.72947E+03  1.08811E+03  1.20342E+04  7.66876E+03  3.46472E+03  1.04355E+04 -1.03044E+04  1.08717E+04
 -9.37701E+03 -4.26452E+03 -1.16784E+04 -1.15350E+04 -6.10018E+03 -1.23273E+04  7.63429E+03 -1.68092E+04
  9.74171E+03 -9.54484E+03  1.44515E+04 -1.91637E+03  1.26739E+04  1.52245E+04  1.88022E+03  1.65874E+04
 -7.30526E+03  1.40838E+04 -1.32683E+04  5.84974E+03 -2.73254E+03 -1.26714E+03 -4.37564E+03 -5.26250E+03
  1.74833E+01 -2.35546E+02 -2.02441E+03 -2.08537E+03 -6.00330E+03  6.39688E+03 -8.54285E+03  3.83674E+02
 -7.69488E+03 -8.28071E+03  6.94841E+03 -1.14599E+04  1.10702E+04 -6.56227E+03  1.19720E+04 -1.98254E+03
  1.03143E+04  1.01680E+04  1.15723E+04  1.16534E+04  9.15337E+02  1.54466E+04 -1.56861E+04  1.04801E+04
 -1.29654E+04  2.62967E+03 -7.19171E+03 -7.39234E+03  1.87627E+03 -1.57050E+04  4.49320E+03 -7.46558E+03
  6.29559E+03 -4.37139E+03  3.31462E+03 -2.83735E+03  2.44107E+03  6.66241E+02 -4.52238E+03  5.60699E+03
  2.98969E+03 -4.58695E+03  1.05996E+03  1.16300E+03  3.48459E+03  7.10088E+03  4.55975E+03  4.36578E+03
 -1.39148E+03  1.21583E+04 -6.50021E+03  9.03808E+03 -8.31866E+03  4.76853E+03 -1.07042E+04 -5.64734E+03
 -5.70276E+03 -7.79512E+03 -1.31351E+03 -1.48563E+04  3.86098E+03 -6.87782E+03  1.05017E+04 -8.18164E+03
  5.64559E+03  9.84032E+02  2.46805E+03  3.98195E+03 -1.46817E+03  2.14765E+03 -1.48671E+03 -1.77221E+03
 -3.47408E+03 -5.51760E+03  6.48714E+03 -1.89953E+03  4.92519E+03 -3.69833E+03  6.60730E+03  1.44678E+03
 -1.07951E+03  8.63588E+03 -3.91576E+03  7.63162E+03  3.45530E+03  5.71764E+03  4.19357E+03 -2.40446E+03
  5.39529E+03 -2.18147E+03  8.03075E+03  6.51128E+03  5.25815E+03  4.83722E+03 -2.91958E+03  4.32464E+03
 -7.00386E+03  3.20501E+03 -7.15080E+02 -5.93519E+02 -9.44468E+03 -4.07845E+03 -6.47818E+03 -3.80348E+03
  1.03558E+02 -5.04310E+03  1.03636E+03  5.09951E+03  9.81214E+02  1.36463E+03 -2.65774E+03  2.36081E+03
 -5.29810E+03 -1.76599E+03 -2.28731E+03  2.19896E+03 -6.64891E+03 -1.13602E+04  1.06238E+03 -7.49962E+03
  2.56464E+03 -1.01198E+04  4.77553E+03 -2.06242E+03  5.28869E+03  3.31764E+03  3.52043E+03  5.67718E+03
  3.15855E+01  2.97508E+03  1.45183E+03  5.96886E+03 -5.09276E+03 -2.90608E+03  1.29996E+04 -2.73451E+03
  5.72218E+03 -1.77998E+03  9.67895E+03  6.37146E+03  1.73837E+03  8.45972E+03 -7.30296E+03  9.83316E+03
 -4.27255E+03  3.38475E+03 -4.02261E+03 -4.30577E+03 -5.72821E+03 -5.52805E+03  4.94715E+03 -6.81310E+03
  5.42537E+03 -4.46728E+03  4.15723E+03  1.77877E+03  6.93655E+03  6.73374E+03 -1.45192E+03  1.92447E+03
 -3.58432E+03  8.87460E+03 -1.79214E+03  1.76722E+03 -1.00654E+03 -6.65543E+02 -1.23634E+03  2.07389E+03
  3.54839E+03  7.76548E+03 -9.02215E+03  8.11287E+02 -8.91497E+03  8.93453E+01 -5.29324E+03 -2.78959E+03
 -5.80462E+03 -1.08318E+04  5.53746E+03 -1.20877E+04  4.22787E+03 -1.23533E+04  7.07318E+03 -4.12915E+03
  5.79377E+03  2.62951E+03  9.23412E+03  6.22231E+03  2.91330E+03  8.48728E+03 -6.71193E+03  1.29548E+04
 -8.97691E+03  4.48484E+03 -1.10536E+03  4.47349E+02  2.82394E+03  2.90761E+03 -3.00186E+02 -1.28654E+03
 -2.62160E+03  4.22553E+02 -2.75086E+03 -1.78480E+03 -1.49057E+03 -4.14057E+03 -8.43624E+00 -4.70906E+01
 -4.39595E+02 -5.52098E+03  7.42163E+03  4.38096E+03  3.09824E+03 -1.38909E+03 -3.43021E+02  6.91380E+03
 -6.66037E+03  6.61587E+03 -9.13903E+03  5.03646E+03 -1.19913E+04 -3.57175E+03 -2.80287E+03 -6.52336E+02
 -5.86133E+03 -1.02478E+04 -1.39580E+03 -5.78800E+03  1.90107E+03 -5.62493E+03  8.28256E+03  3.94114E+03
  7.07218E+03 -2.43267E+02  4.68498E+03  9.15010E+03  1.18885E+03 -3.66952E+03 -1.61559E+03  7.73185E+02
  2.00373E+03 -1.62201E+02 -1.07473E+03  3.72738E+03  1.05472E+03  1.41853E+03  2.37306E+03  6.81479E+03
 -1.07863E+03  3.68024E+03 -3.24827E+03 -2.62183E+03 -4.07877E+03 -3.01410E+03 -3.74409E+02 -3.77194E+03
 -6.88392E+01 -2.18044E+03  4.82941E+03  1.30901E+03  8.33471E+03  6.51211E+03  2.99413E+03  6.17615E+03
 -4.25050E+03  7.50452E+03  6.16797E+02  1.44851E+03 -3.76881E+03  2.47288E+03 -5.95165E+03  5.88671E+03
  9.96114E+02 -2.70334E+03 -7.24687E+01 -1.09195E+03 -9.68782E+03 -2.22326E+03 -4.20685E+03 -5.27857E+03
 -3.32679E+03  1.10290E+03  7.19250E+02 -3.16367E+03  3.35470E+03 -6.53393E+03  9.86145E+03 -2.34428E+03
  5.10620E+03 -1.37500E+03  8.67471E+02  5.72025E+03  2.55038E+03  1.20267E+04 -3.53355E+03  3.80307E+03
