 $NMID ID='MM_0lb_SNR50_17hz_g50_21.RAW', FMTDAT='(8E13.5)'
 TRAMP=1., VOLUME=1. $END
  3.11935E+05 -2.68189E+02  3.37582E+05  2.49869E+05  8.46637E+04  3.37280E+05 -1.33678E+05  2.54389E+05
 -1.88279E+05  8.39044E+04 -1.10016E+05 -3.54816E+04  2.85720E+03 -4.93064E+04  5.49445E+04  1.78638E+03
  3.60826E+04  5.55002E+04 -1.97704E+04  7.39880E+04 -6.25224E+04  6.12559E+04 -8.37783E+04  3.36954E+04
 -7.84427E+04 -8.48531E+03 -6.00519E+04 -4.58597E+04 -1.76569E+04 -6.76884E+04  3.26359E+04 -4.51090E+04
  3.93216E+04  6.98327E+03  1.84675E+04  4.53440E+04 -3.00853E+04  4.81818E+04 -6.70898E+04  2.19338E+03
 -5.24485E+04 -5.52014E+04 -6.84177E+03 -7.80615E+04  3.42538E+04 -5.46143E+04  4.76516E+04 -1.47449E+04
  3.88545E+04  1.09015E+04  3.33893E+04  2.72152E+04  1.83065E+04  3.19140E+04 -5.04644E+03  2.50563E+04
 -2.07140E+04  1.37197E+04 -1.40053E+04 -2.60877E+03  3.45835E+03 -9.31059E+03  2.01664E+04  1.15291E+04
  6.30888E+03  3.34103E+04 -3.26633E+04  3.69580E+04 -6.22737E+04 -4.01934E+03 -5.45870E+04 -4.04955E+04
 -1.35418E+04 -6.20842E+04  3.60813E+04 -4.27556E+04  5.63847E+04 -3.63196E+03  2.96486E+04  3.30007E+04
 -5.45483E+03  3.08253E+04 -3.13131E+04  1.35638E+04 -2.93793E+04 -7.10094E+03 -1.75648E+04 -1.13307E+04
 -7.39788E+03 -2.02249E+04 -9.70680E+02 -2.17910E+04  6.31014E+03 -2.31446E+04  1.57344E+04 -1.39311E+04
  8.78275E+03  6.04678E+03 -7.00767E+03  1.52669E+04 -2.05541E+04 -6.37195E+03 -1.05243E+04 -3.51519E+04
  2.31322E+04 -4.10496E+04  4.21681E+04 -1.50596E+04  4.71494E+04  2.19830E+04  1.18171E+04  4.46888E+04
 -1.95085E+04  3.50168E+04 -2.41552E+04  2.58383E+03 -1.93642E+03 -2.55807E+04  2.30031E+04 -3.00654E+04
  4.35889E+04 -1.09718E+04  3.49860E+04  2.53811E+04  1.88684E+04  4.40191E+04 -6.24057E+03  4.59772E+04
 -2.82203E+04  3.22675E+04 -4.05052E+04  9.22024E+03 -3.79281E+04 -1.61465E+04 -2.59039E+04 -3.53005E+04
  6.34712E+03 -4.03702E+04  3.13006E+04 -1.36665E+04  2.52954E+04  1.19300E+04  4.57611E+03  1.85726E+04
 -1.39441E+04  8.51511E+03 -5.90822E+03 -1.02138E+04  6.77565E+03 -1.01512E+04  1.50616E+04  7.47818E+03
  1.33231E+04  1.82150E+04 -6.02535E+03  2.48117E+04 -1.86207E+04  1.17033E+04 -2.28690E+04 -5.23582E+03
 -1.76748E+04 -1.51792E+04 -5.20496E+03 -1.79000E+04  6.32216E+03 -1.82435E+04  1.34653E+04 -1.27426E+04
  2.19606E+04 -1.14053E+04  2.65382E+04  3.28386E+03  1.98171E+04  2.20373E+04  5.21355E+03  3.26517E+04
 -1.87409E+04  2.76859E+04 -2.58777E+04  1.06649E+04 -1.63556E+04 -1.06087E+04 -2.83641E+03 -1.02133E+04
  6.78670E+02 -4.69198E+03 -6.00815E+03  4.50224E+03 -2.08699E+04  5.53242E+03 -1.25852E+04 -1.57459E+03
 -9.95113E+03 -1.51410E+04  6.27787E+03 -2.07518E+04  1.21935E+04 -1.29262E+04  1.71717E+04 -1.32239E+03
  6.18425E+03  1.06699E+04 -7.16916E+02  1.90145E+04 -8.77805E+03  1.28675E+04 -1.58637E+04 -4.63488E+03
 -1.24116E+04 -2.22327E+04 -5.43224E+02 -1.59324E+04  8.63542E+03 -1.72796E+04  1.70825E+04 -5.23322E+03
  1.71070E+04 -1.54647E+03  1.18810E+04  7.35694E+02  1.33203E+03  2.48153E+03  1.31817E+04 -1.95979E+03
  1.37470E+04  3.40848E+03  1.45474E+04  8.90959E+03  1.02081E+04  2.49548E+04 -5.79437E+03  2.92202E+04
 -1.77909E+04  2.41934E+04 -2.86590E+04  1.18619E+04 -2.41596E+04 -4.35066E+03 -2.11732E+04 -1.26490E+04
 -6.34170E+03 -2.40553E+04  8.20892E+03 -2.65704E+04  1.69311E+04 -1.10066E+04  1.47200E+04  5.85141E+03
  5.92304E+03  1.08907E+04 -5.95365E+03  1.10303E+04 -1.41044E+04  4.18371E+03 -9.40575E+03 -8.65637E+03
 -6.13851E+02 -1.20651E+04  3.01978E+03 -9.02720E+03  1.26936E+04  3.06045E+03  2.46676E+02  6.22369E+03
 -6.89153E+03  7.24657E+03  4.15744E+02 -7.81812E+03  3.44650E+02 -1.44623E+04  7.96641E+03 -1.50757E+04
  1.46032E+04 -9.76432E+03  1.43290E+04 -1.02259E+03  1.02871E+04  7.66881E+03  6.38855E+03  1.82743E+04
 -3.91646E+03  1.65165E+04 -1.34670E+04  1.14404E+04 -1.31629E+04  3.63236E+03 -1.39614E+04 -1.67295E+03
 -1.31109E+03 -2.19000E+03 -3.97724E+03  2.27071E+03 -1.44752E+03 -1.12014E+03 -1.97583E+03  7.20305E+03
 -1.09839E+04  1.28796E+03 -6.86630E+03 -8.57102E+03 -3.72288E+03 -1.05306E+04  4.35027E+03 -1.04344E+04
  6.20012E+03 -4.13617E+03  3.90568E+03  7.12042E+03 -2.83863E+03  5.21687E+03 -7.54516E+02  1.29476E+03
 -4.01695E+03 -2.50160E+03 -2.91394E+03 -8.63284E+03  2.18510E+03 -1.03244E+04  1.01751E+04 -1.29574E+03
  1.29099E+04  1.99032E+03  3.54077E+03  8.56356E+03 -1.49186E+03  9.03328E+03 -5.97864E+03  6.75748E+03
 -1.15054E+04 -1.02394E+03 -7.53892E+03 -1.16103E+03 -1.40169E+03 -7.90139E+03  5.81386E+03  1.83487E+03
  1.09315E+03  7.99221E+03  1.89706E+03  7.46578E+03 -4.08641E+03  2.84796E+03 -6.52500E+03  1.81751E+03
 -4.61976E+03 -5.38787E+03 -1.32086E+03 -5.43256E+03  1.75074E+03 -3.61463E+03  2.91195E+03 -9.79581E+02
 -2.87984E+03  4.00416E+03 -2.94125E+03  5.24133E+03 -4.32715E+03  3.39232E+03 -6.26947E+03 -7.28875E+02
 -4.69487E+03 -7.31111E+03 -3.01260E+03 -9.18801E+03  6.92260E+03 -5.80380E+03  6.68705E+03  4.77968E+03
  8.34277E+03  4.41540E+03 -1.43054E+03  7.43786E+03 -3.20889E+03  2.41345E+03 -1.69637E+03 -2.00588E+03
 -6.74045E+03 -5.77075E+03  1.90398E+03 -9.08010E+03  6.33235E+03 -7.01599E+03  2.05271E+03 -6.95353E+03
  2.91013E+03 -2.93347E+03 -1.75728E+03 -2.26523E+03 -3.42471E+03 -1.50215E+03  6.95862E+03 -4.65338E+03
 -4.71308E+02 -1.00864E+03  6.27001E+03 -8.35560E+02  5.56971E+03  4.81257E+03  6.27331E+03  7.89498E+03
 -2.81404E+03  6.64123E+03 -8.76852E+03  1.10037E+04 -1.51814E+04 -8.75399E+01 -1.00354E+04 -4.57745E+03
 -6.28641E+03 -3.71708E+03 -4.88249E+02 -3.34122E+03  7.57468E+03 -5.07959E+03  4.92192E+03 -2.71974E+03
 -9.32714E+02 -5.67611E+02  1.07474E+03 -1.39229E+03  2.80248E+03 -1.27046E+03  3.68075E+03 -2.25863E+03
  4.28609E+03  1.79453E+03 -4.39556E+02  7.58541E+03 -1.92455E+03 -3.84888E+02 -4.92425E+03  1.17566E+03
 -1.02101E+04 -6.51518E+01 -5.16325E+03 -2.55950E+03 -3.30842E+02 -8.72195E+03  4.38903E+03 -8.64134E+03
  9.69485E+03 -3.54582E+03  5.71550E+03 -2.13182E+03  6.85078E+03  8.51658E+03  1.81550E+03  1.09336E+04
 -3.18512E+03  7.02969E+03 -4.12788E+03  3.16978E+03 -1.49178E+03  3.78905E+03  1.85024E+03 -2.74225E+03
  1.85720E+02 -1.20738E+03  5.40513E+02 -2.88057E+02 -5.01366E+03 -7.78918E+02 -2.39071E+03 -6.05972E+03
 -1.60264E+03 -4.91884E+03  7.53103E+03 -5.33237E+03  5.93936E+03 -1.61294E+03  6.24471E+03  3.07108E+02
  6.04206E+03  5.40019E+03  3.07163E+03  2.32256E+03 -1.75990E+03  3.99619E+03 -2.08990E+03  3.53212E+03
 -2.28283E+03 -4.79683E+03 -3.64137E+03 -4.48252E+03  1.06078E+03 -6.74598E+03 -1.92366E+03 -3.89916E+03
 -7.14217E+02  1.91149E+03  4.74962E+03  4.10399E+03  1.97276E+03 -3.53092E+02  1.89977E+02 -3.84862E+03
 -2.06887E+02 -1.41761E+03 -1.29576E+03 -1.19158E+03  2.36978E+03  2.23554E+02 -1.09302E+03  1.14580E+03
  5.28021E+02  3.41993E+02 -2.65011E+03  4.97882E+03 -6.62944E+03  2.80945E+03 -1.07458E+04 -1.55439E+03
 -2.95761E+03 -3.89779E+03 -4.80040E+02 -5.30759E+03  4.17558E+03  1.94062E+03  7.72134E+03 -4.61780E+03
  6.59108E+03  4.25853E+03 -6.71663E+02  2.60126E+03 -2.85000E+03  1.10679E+03  1.14092E+03  2.88323E+03
  2.47851E+03 -3.92083E+03 -1.37220E+03 -2.84676E+03  4.04213E+03 -4.16388E+03  2.99778E+03  4.97399E+02
 -6.38384E+02  2.06346E+03 -2.67068E+03 -3.66510E+03 -4.08866E+01  1.65642E+03  4.35031E+03 -6.49848E+02
  1.11690E+03 -1.70442E+03  6.68075E+03 -5.68339E+02 -5.92426E+01  1.84424E+03  6.27741E+03  4.74843E+03
 -1.04702E+03  6.55266E+02 -5.96123E+03  4.85548E+02 -4.13953E+03 -3.40278E+03  6.83143E+02 -2.15593E+03
 -1.16574E+03 -2.29144E+03  1.77566E+03 -4.03551E+03  3.21047E+03  8.12025E+02 -3.94848E+02  1.65826E+03
 -3.83364E+03  2.69582E+03  4.31743E+03  2.38537E+03  2.74343E+03 -5.17785E+02  4.34917E+03 -4.73196E+03
  5.55136E+03 -2.99850E+03  4.64013E+03  2.80144E+03  2.68523E+03 -3.93929E+03 -2.70200E+03 -5.39731E+02
 -1.87941E+03  7.00082E+01 -7.67858E+02 -3.83996E+03  2.33486E+03 -2.52625E+03  3.29650E+03  4.75751E+03
 -7.63885E+01  5.01443E+03  5.30412E+03  8.36644E+03  5.35994E+03 -5.59762E+02 -3.97104E+03  2.72367E+03
 -6.25739E+01  4.46166E+02  2.44536E+03 -7.79027E+02 -2.19949E+03 -3.16258E+03  1.67595E+03 -3.38197E+03
  6.10464E+02  1.74147E+03 -6.57246E+02  1.17152E+03 -7.89440E+03  1.91394E+02 -1.12880E+03  4.01147E+03
 -3.60195E+03  7.72113E+02 -3.88862E+02 -1.70676E+03 -7.89126E+03  1.76965E+03 -1.88274E+03 -3.18627E+03
  3.10956E+03 -3.87761E+03  2.99924E+03 -3.32510E+03 -5.25718E+03  5.71514E+03 -5.62766E+03  2.28225E+03
 -3.46168E+02 -1.88558E+03  1.83399E+03 -3.75139E+03 -9.76027E+02 -2.02930E+03  7.97368E+03 -7.32898E+03
  4.69377E+03  2.04908E+03  2.48119E+03  7.20961E+03 -1.03742E+03 -4.08920E+02  4.69100E+01  1.08230E+03
 -2.14428E+03  1.54070E+03 -1.23576E+02 -3.84319E+02 -2.87714E+03  1.71407E+03 -5.69089E+02 -3.45464E+03
  3.83193E+03 -2.99689E+02 -6.48193E+02 -3.67737E+03 -4.44353E+03 -3.82847E+03  3.06726E+03  2.02596E+02
 -9.13736E+02 -1.26222E+03 -2.98421E+03 -2.48617E+03  9.89622E+02 -1.70083E+03 -3.47772E+02  1.87674E+02
 -2.69344E+02  3.01043E+03 -3.45844E+03  1.77211E+03  1.93801E+03 -2.85428E+03  1.00846E+03 -2.50801E+02
 -6.20332E+02 -8.27170E+02  2.22387E+03 -1.86975E+03  9.37222E+02  1.93052E+03 -1.52414E+03  1.53631E+03
  5.02667E+03  1.89510E+03 -1.16711E+03  9.14887E+02  5.01744E+02 -3.52012E+02 -1.79627E+03  2.18828E+02
 -9.74102E+02  2.05279E+03  5.13824E+03 -1.95704E+03 -2.14567E+02  3.49178E+03  1.81337E+03  1.17091E+03
 -5.15099E+02  1.88933E+02  2.09014E+02  9.54648E+02 -2.37128E+03  3.27051E+02 -3.29978E+02 -3.63643E+03
  1.57821E+03 -7.68096E+02 -9.73923E+02  3.00092E+03  6.24507E+02  7.52461E+02 -2.57441E+03  3.04149E+03
  2.87744E+03  6.57997E+02 -4.65918E+02  4.11047E+03  4.86399E+03 -1.20142E+03  3.25667E+03 -1.85876E+03
 -2.56589E+03 -3.25289E+03 -5.67405E+03 -2.55195E+03 -3.22092E+03  2.26460E+02  7.45831E+02 -2.65556E+03
 -3.23381E+03 -1.26608E+03 -8.80729E+01  1.02281E+03  1.55075E+03 -3.84710E+03 -5.20552E+02  2.16090E+03
  2.80900E+03  9.08930E+02  2.33675E+03 -2.81443E+03  1.28967E+03  1.54662E+03  9.56506E+02 -3.82377E+02
