 $NMID ID='MM_0lb_SNR50_10hz_g60_9.RAW', FMTDAT='(8E13.5)'
 TRAMP=1., VOLUME=1. $END
  3.09799E+05 -1.23268E+03  3.37204E+05  2.48155E+05  9.02294E+04  3.44924E+05 -1.27006E+05  2.53689E+05
 -1.90315E+05  8.39117E+04 -1.12947E+05 -3.40117E+04  1.19072E+03 -5.11708E+04  5.51592E+04 -3.52779E+03
  3.18882E+04  5.71094E+04 -1.28731E+04  7.90153E+04 -6.40131E+04  6.58290E+04 -8.37184E+04  3.12343E+04
 -7.74137E+04 -1.49592E+04 -6.05998E+04 -5.37720E+04 -1.86188E+04 -7.08902E+04  2.91761E+04 -5.24115E+04
  4.50931E+04  5.34890E+03  1.45989E+04  4.60688E+04 -3.86099E+04  4.76223E+04 -6.97308E+04  3.38191E+02
 -5.38045E+04 -5.39231E+04  1.31647E+02 -7.61813E+04  3.38743E+04 -5.16300E+04  4.78245E+04 -1.58390E+04
  3.93355E+04  7.89727E+03  3.20621E+04  2.02457E+04  1.70491E+04  2.64489E+04 -3.22230E+03  2.60710E+04
 -2.15632E+04  1.26800E+04 -2.02404E+04 -5.02510E+03  1.12330E+04 -1.16134E+04  2.07582E+04  1.67698E+04
  9.12114E+03  3.78011E+04 -3.00324E+04  3.87232E+04 -6.25334E+04 -2.33978E+03 -5.02945E+04 -4.32547E+04
 -1.93274E+04 -6.85738E+04  4.86538E+04 -4.75649E+04  5.72075E+04 -8.31065E+03  3.51099E+04  3.80031E+04
 -8.56304E+03  3.50598E+04 -3.75559E+04  1.86941E+04 -2.96968E+04 -1.59928E+03 -2.01875E+04 -9.64971E+03
 -1.09760E+04 -1.27063E+04  1.65508E+02 -2.16973E+04  7.18538E+03 -2.30450E+04  1.71790E+04 -1.45113E+04
  9.80657E+03  9.58800E+02 -1.29285E+04  1.90350E+04 -2.26767E+04 -4.16946E+03 -5.45952E+03 -3.25011E+04
  2.11596E+04 -4.64222E+04  5.36307E+04 -1.84549E+04  4.65279E+04  2.57561E+04  1.68325E+04  4.22671E+04
 -1.64403E+04  3.52253E+04 -2.51928E+04  5.96285E+03 -1.92029E+04 -2.53983E+04  2.03795E+04 -3.38085E+04
  4.23981E+04 -1.95555E+04  3.83069E+04  1.52754E+04  1.66759E+04  5.96468E+04 -4.83246E+03  5.87528E+04
 -3.47494E+04  4.03871E+04 -5.27787E+04  1.24377E+04 -4.86578E+04 -1.85570E+04 -2.30746E+04 -4.01854E+04
  9.22146E+03 -4.08422E+04  3.30763E+04 -1.95246E+04  2.62031E+04  3.78820E+03 -3.04474E+03  2.74433E+04
 -1.57417E+04  7.66491E+03 -5.88887E+03 -8.26098E+03  1.08307E+04 -1.17597E+04  2.22524E+04  8.08095E+03
  1.79727E+04  2.32059E+04 -7.13937E+03  2.67425E+04 -2.15443E+04  1.56211E+04 -3.17375E+04 -2.14884E+03
 -2.21448E+04 -2.00605E+04 -1.31856E+04 -2.62805E+04  5.38809E+03 -3.02432E+04  2.15823E+04 -1.84104E+04
  2.96044E+04 -1.24975E+04  3.40174E+04  5.98797E+03  2.85072E+04  2.26612E+04  3.72676E+03  3.79296E+04
 -1.91148E+04  2.78700E+04 -2.78263E+04  8.86125E+03 -2.38924E+04 -4.84806E+03 -5.12868E+03 -1.17145E+04
  2.48796E+03  2.04761E+03 -8.79688E+03  1.36148E+04 -2.19383E+04  9.60003E+03 -1.56560E+04 -6.47978E+03
 -1.33358E+04 -2.13782E+04  1.07049E+04 -2.91954E+04  1.66577E+04 -2.10400E+04  2.57571E+04 -5.75946E+02
  1.90887E+04  1.43636E+04 -2.97908E+03  2.35112E+04 -1.33404E+04  1.12830E+04 -2.25806E+04 -8.98484E+03
 -1.67426E+04 -2.47802E+04  3.76367E+02 -2.98340E+04  1.43838E+04 -2.45822E+04  2.22900E+04 -9.77601E+03
  2.19919E+04 -2.97696E+03  1.51817E+04  6.48095E+03  2.79109E+03  9.44858E+03  1.44504E+04 -2.63806E+03
  2.06286E+04  2.75796E+03  2.80601E+04  1.93060E+04  1.15365E+04  3.60930E+04 -3.05640E+03  4.35088E+04
 -2.77920E+04  4.23024E+04 -4.22134E+04  1.73665E+04 -4.83445E+04 -9.01391E+03 -3.62561E+04 -3.25513E+04
 -1.28975E+04 -3.74862E+04  6.27153E+03 -3.46962E+04  2.33602E+04 -1.56746E+04  2.17319E+04  1.01047E+04
  1.05426E+04  2.02551E+04 -1.10686E+04  1.25384E+04 -1.86819E+04  6.73812E+03 -1.62069E+04 -1.52994E+04
 -9.44575E+01 -2.49482E+04  1.05403E+04 -1.08818E+04  1.59440E+04 -3.60969E+03  5.41179E+03  8.98502E+03
 -1.27047E+04  4.02809E+03 -1.05140E+04 -1.09220E+04 -4.36623E+03 -1.26021E+04  1.10577E+04 -1.81761E+04
  2.33884E+04 -1.50727E+04  2.84921E+04  6.23931E+03  2.12955E+04  1.75374E+04  1.65100E+04  2.73440E+04
 -8.92716E+03  3.26218E+04 -1.74730E+04  1.69847E+04 -2.38385E+04  6.75717E+03 -2.02675E+04 -9.56175E+03
 -2.82173E+03 -1.30845E+04 -2.68463E+03 -1.50572E+02 -2.82926E+03 -9.48199E+02 -8.15729E+03  7.31713E+03
 -1.71179E+04 -4.58068E+03 -1.55771E+04 -1.41295E+04 -8.69305E+03 -1.59603E+04  4.73842E+03 -1.78542E+04
  2.08741E+04 -5.02527E+03  1.22015E+04  4.71614E+03 -1.07905E+03  8.33699E+03 -1.08822E+04  2.16843E+03
 -1.28138E+04 -7.37191E+03  4.60446E+03 -2.15296E+04  1.08402E+04 -1.39804E+04  2.40295E+04 -1.68223E+03
  1.81677E+04  2.44124E+03  1.55431E+04  1.14004E+04 -2.71017E+03  1.93914E+04 -1.20295E+04  1.33917E+04
 -1.13808E+04  2.25362E+03 -2.19578E+03 -2.10987E+03  4.23969E+03 -7.69228E+03  1.05212E+04 -2.07906E+03
  5.06959E+03  8.89220E+03  5.28449E+03  1.16681E+04 -1.18829E+04  1.85962E+04 -1.61927E+04  1.11924E+03
 -1.48216E+04 -7.09784E+03  4.17846E+03 -4.52565E+03  5.32747E+03 -4.40652E+03  1.07843E+04  7.81106E+03
  5.56703E+02  8.40531E+03 -1.01636E+04  1.48501E+04 -1.42070E+04  3.84082E+03 -1.66421E+04 -2.20774E+03
 -2.57625E+03 -1.65494E+04 -3.01789E+03 -2.33180E+04  9.37937E+03 -9.04587E+03  1.70670E+04  1.30615E+03
  1.23212E+04  1.55773E+04  1.44069E+03  1.67166E+04 -1.45289E+04  6.49612E+03 -1.91656E+04  5.16820E+03
 -9.00730E+03 -1.02895E+04 -2.49024E+03 -9.62540E+03  1.23162E+04 -8.86401E+03  9.13398E+03  2.55071E+03
  1.98300E+03  3.30015E+03 -3.01631E+03  5.17591E+03  3.98113E+02 -3.04679E+03  2.58315E+02 -2.33941E+03
  1.36346E+04 -3.17103E+03  1.44150E+04  6.76616E+02  1.73215E+04  1.35424E+04  3.38832E+03  1.95409E+04
 -7.11230E+03  2.44542E+04 -1.47976E+04  2.46922E+04 -2.41778E+04  5.08391E+03 -2.36776E+04 -1.02317E+04
 -1.31180E+04 -2.05063E+04  1.63174E+03 -1.12634E+04  5.02511E+03 -1.21962E+04  5.36691E+03 -6.96580E+03
  2.91114E+03 -2.91890E+03  3.61916E+03 -2.25856E+03  1.09764E+04 -2.73838E+03  1.18041E+04  6.24371E+02
  1.66662E+04  6.52028E+03  7.30929E+03  8.01867E+03 -9.63896E+02  9.81530E+03 -8.25198E+03  5.76453E+03
 -1.79654E+04  1.38898E+03 -1.34130E+04 -8.82217E+03  1.03747E+03 -1.37352E+04  5.56788E+03 -1.51597E+04
  1.65951E+04 -1.45410E+04  1.63616E+04  8.48343E+03  1.40654E+04  1.09185E+04  8.11508E+03  2.03493E+04
 -9.63872E+03  1.45519E+04 -1.12027E+04  3.57978E+03 -7.25539E+03 -7.10710E+03 -6.47395E+03 -2.99278E+03
 -2.53338E+03 -2.40069E+02 -1.90163E+03  5.83673E+03 -1.61308E+03  2.16022E+03 -9.70385E+03  1.61673E+03
 -8.59934E+03 -1.39443E+04  5.07362E+02 -1.14884E+04  3.72675E+03 -1.27170E+04  1.35513E+04 -1.32592E+03
  1.24104E+04  4.20465E+03  1.09144E+04  6.92498E+03  2.74093E+03  1.54303E+04 -1.16448E+04  1.25469E+04
 -1.39416E+04  9.90874E+03 -1.10459E+04 -1.25061E+04 -3.31912E+03 -1.19849E+04  4.94072E+03 -7.64706E+03
  1.24639E+04 -4.94419E+03  1.10865E+04  2.71028E+02  6.15980E+03  7.67600E+03  2.96933E+03  8.93351E+02
  3.74844E+03 -1.52829E+03  9.99126E+03 -6.71071E+02  4.78728E+03 -2.22016E+03  5.41007E+03  1.22457E+04
 -3.25255E+03  4.24848E+03 -9.07664E+03  7.02013E+03 -9.89782E+03  5.00929E+03 -1.47909E+04 -6.37516E+03
 -8.66516E+03 -1.99103E+04  3.20269E+03 -1.91944E+04  1.00547E+04 -1.13055E+04  9.67331E+03 -5.31783E+03
  6.61990E+03  3.78679E+03 -4.74139E+03  8.49978E+03 -4.55016E+03  4.04433E+03 -4.09978E+03  1.95335E+03
  1.47612E+03 -1.59243E+03 -1.67101E+03 -6.11373E+03  3.07068E+03 -8.86337E+03  3.75395E+03  1.16015E+03
  2.47300E+03  1.07618E+03  1.81131E+03  1.22047E+04  8.58310E+03  1.27566E+03  7.46459E+02 -1.78374E+03
  5.76325E+03  1.14926E+03  5.79847E+03 -1.95115E+03  6.94363E+03  1.02197E+04 -5.44797E+03  1.70737E+04
 -3.29990E+03  7.87120E+03 -8.12580E+03 -1.86220E+03 -2.51041E+03 -7.15723E+03 -3.66686E+03 -3.22853E+03
  3.02674E+03 -1.05022E+04  2.66523E+03  2.92326E+03 -6.74157E+02  3.62740E+03 -6.68877E+03  3.26824E+03
 -9.98302E+03  6.70342E+03 -2.59258E+03 -4.52370E+03 -1.26969E+03 -5.99530E+03  7.49592E+02 -9.59608E+03
  6.59998E+03 -6.11068E+03  5.44778E+03 -4.44059E+03  1.00740E+04  4.25107E+03 -1.18849E+03 -9.30308E+02
  9.88249E+02 -8.34831E+02 -1.63461E+03 -1.03535E+03 -3.91586E+03 -6.74256E+03  1.17275E+04 -9.37020E+03
  1.07827E+04  3.16466E+03  9.60061E+03  5.98856E+03  2.96193E+03  1.32685E+04 -1.50382E+03  3.58703E+03
 -1.10917E+04  4.64323E+03 -6.07944E+03 -1.31312E+03 -6.07137E+03 -9.81650E+03  2.51712E+03 -4.11923E+03
  3.45777E+03 -4.02970E+03  5.77237E+03  8.66919E+03  2.94683E+03  7.73372E+02 -2.35724E+01  4.24952E+03
 -1.21959E+03  3.77254E+03 -3.62484E+03 -4.84887E+03  1.22394E+03  2.74439E+03  9.63925E+02  2.07605E+03
 -3.27207E+03  2.86374E+03 -7.43135E+03  6.93166E+02 -1.04292E+04  2.54408E+03 -5.60786E+03 -6.60442E+03
 -2.78357E+03 -1.16154E+04 -3.49848E+03 -1.77439E+04  5.82278E+03 -1.67957E+04  5.28955E+03 -7.42572E+03
  1.42983E+04  1.11934E+04  4.27103E+03  7.86321E+03  4.05529E+03  5.45062E+03  2.88177E+02  7.32168E+03
 -1.54135E+04  1.11532E+04  1.72256E+03 -1.57496E+03  1.40636E+03 -4.03893E+03 -2.73177E+03  8.47768E+03
 -1.92770E+03  2.91840E+01 -3.93069E+03 -9.75051E+01 -1.41599E+03  2.20580E+03 -4.61546E+02 -3.53182E+03
  7.37389E+03 -4.66294E+03  3.95691E+03 -1.87083E+03  1.14132E+04  7.05744E+03 -2.68067E+03  7.74433E+03
 -3.84381E+03  9.21455E+03 -4.24028E+03  1.00882E+04 -1.04693E+04 -2.94318E+02 -3.95847E+03 -6.36627E+03
 -1.02089E+04 -1.42458E+04  2.41925E+03 -1.11378E+04  5.12147E+03 -3.95403E+03  5.69548E+03  1.42630E+03
  1.30988E+03 -9.54447E+02  9.19559E+01  4.83715E+03 -6.99533E+03 -2.61866E+03 -5.91434E+03 -2.28399E+03
  5.50509E+03 -1.96917E+03  2.86837E+03 -1.62491E+03  4.28746E+03  2.49320E+03 -3.20096E+03  7.41166E+03
 -1.33476E+03  4.29351E+03 -5.34317E+03 -5.58277E+03  3.37068E+02 -4.69413E+03  8.14285E+02 -4.31202E+03
  7.74868E+03 -1.45133E+03  1.13169E+04 -6.09029E+03  9.22349E+03  5.03535E+03  7.48142E+02  2.42314E+03
  2.82320E+02  6.36942E+03  2.34388E+03  8.57259E+03  3.52445E+02  7.95301E+03 -1.57763E+03 -6.79045E+03
  4.39125E+03 -5.84237E+03 -1.77286E+03  2.58788E+02 -5.36081E+03  1.06899E+03 -6.17416E+03  3.31196E+03
 -1.09467E+03 -2.90875E+03 -6.69003E+01 -1.23912E+04  3.38119E+03 -2.12106E+03  6.73817E+03 -2.80332E+03
  6.79130E+03  2.24650E+02 -1.23407E+03  3.68301E+03 -5.82417E+02  8.18188E+03 -3.04832E+03  5.14648E+03
