 $NMID ID='MM_0lb_SNR50_8hz_g45_21.RAW', FMTDAT='(8E13.5)'
 TRAMP=1., VOLUME=1. $END
  3.03195E+05  3.72747E+03  3.38497E+05  2.44696E+05  8.31997E+04  3.37543E+05 -1.30906E+05  2.52094E+05
 -1.86886E+05  8.16278E+04 -1.12574E+05 -3.43436E+04  6.74296E+03 -4.78756E+04  4.78672E+04  2.76662E+03
  3.21443E+04  4.55533E+04 -1.77892E+04  7.74272E+04 -5.93154E+04  6.89648E+04 -9.05489E+04  3.51236E+04
 -8.34637E+04 -1.23130E+04 -5.15387E+04 -5.22976E+04 -1.72223E+04 -7.36857E+04  2.98153E+04 -4.47160E+04
  3.84495E+04  8.23186E+03  1.82117E+04  5.59345E+04 -3.92841E+04  4.19536E+04 -7.79924E+04  2.63930E+03
 -5.49039E+04 -5.92728E+04 -8.45736E+03 -7.71762E+04  4.14253E+04 -5.07705E+04  4.25942E+04 -1.40241E+04
  3.73312E+04  1.15810E+04  3.22209E+04  2.64201E+04  1.32698E+04  3.49818E+04 -8.68438E+03  3.33861E+04
 -1.70308E+04  1.07651E+04 -2.24474E+04 -4.11429E+03  5.79497E+03 -5.17548E+03  2.31733E+04  1.32601E+04
  8.50449E+03  3.95871E+04 -3.69580E+04  3.97352E+04 -6.85861E+04  1.45737E+03 -6.18826E+04 -4.36366E+04
 -1.28760E+04 -6.44677E+04  4.69151E+04 -5.39270E+04  6.21299E+04  2.94664E+03  4.49018E+04  4.11904E+04
  1.35446E+03  3.98636E+04 -3.03940E+04  1.49811E+04 -3.04956E+04 -2.70299E+03 -2.47596E+04 -9.68930E+03
 -1.11162E+04 -1.48208E+04  1.80870E+03 -1.55851E+04  7.97648E+03 -2.48146E+04  1.16121E+04 -1.21198E+04
  6.79309E+03 -2.08773E+03 -8.93665E+03  8.71354E+03 -1.88524E+04 -3.11004E+03 -9.82133E+03 -3.32783E+04
  2.85344E+04 -4.84522E+04  5.70457E+04 -2.20124E+04  5.16625E+04  2.13637E+04  2.22308E+04  4.44389E+04
 -1.57425E+04  3.11347E+04 -2.93651E+04  3.45507E+03 -6.85401E+03 -2.31991E+04  2.14226E+04 -3.78303E+04
  4.99376E+04 -1.06186E+04  4.25023E+04  2.89711E+04  1.79878E+04  5.01025E+04 -8.75021E+03  5.90071E+04
 -3.41367E+04  4.54272E+04 -4.96421E+04  8.36917E+03 -5.36796E+04 -2.08447E+04 -2.36397E+04 -4.13537E+04
  1.62957E+04 -3.91773E+04  3.24898E+04 -1.54511E+04  3.51240E+04  5.47260E+03  8.65489E+02  2.37327E+04
 -9.25301E+03  6.65463E+03 -9.72249E+03 -5.82137E+03  5.07792E+03 -2.03218E+04  1.98844E+04  6.20749E+03
  1.47153E+04  2.56495E+04 -5.02041E+03  2.53313E+04 -2.72216E+04  1.18719E+04 -3.17810E+04 -4.61775E+01
 -3.11685E+04 -2.41811E+04 -1.66110E+04 -2.70735E+04  9.09406E+03 -2.66831E+04  2.56836E+04 -2.36373E+04
  3.07341E+04 -1.18838E+04  3.29735E+04  9.19622E+03  2.69681E+04  2.01381E+04  4.73358E+03  3.75093E+04
 -2.03748E+04  3.41396E+04 -3.63811E+04  1.03072E+04 -2.21469E+04 -4.06373E+03 -5.34944E+03 -1.81110E+04
  9.54228E+03 -5.34193E+03 -6.00232E+03  1.35530E+04 -2.14804E+04  1.88304E+03 -2.28779E+04 -1.09872E+04
 -1.41492E+04 -2.37737E+04 -2.30428E+03 -2.72388E+04  2.63137E+04 -1.71213E+04  2.11599E+04 -1.53838E+03
  1.22618E+04  1.92518E+04 -3.73507E+03  2.35537E+04 -1.53939E+04  1.37209E+04 -2.36157E+04 -2.68324E+03
 -1.81018E+04 -1.70103E+04  8.24803E+02 -2.87808E+04  1.64253E+04 -2.46916E+04  1.89739E+04 -1.89568E+04
  2.15074E+04  9.07037E+02  1.62755E+04 -1.14382E+03  1.02503E+04  4.60490E+03  1.49290E+04  3.81255E+02
  2.70623E+04  1.42885E+03  2.00992E+04  1.83892E+04  1.40522E+04  4.12910E+04  1.32482E+02  4.42550E+04
 -2.51457E+04  3.83628E+04 -4.54022E+04  2.08771E+04 -4.49752E+04 -3.63872E+03 -3.73719E+04 -3.00274E+04
 -1.52615E+04 -3.68785E+04  1.73087E+04 -3.47964E+04  2.26980E+04 -1.67677E+04  2.99192E+04  1.28883E+04
  9.16210E+03  1.41950E+04 -1.30311E+04  4.95453E+03 -1.84458E+04  4.09645E+03 -8.53285E+03 -1.56467E+04
 -7.91244E+03 -2.41742E+04  6.60988E+03 -1.48996E+04  1.47949E+04 -8.95290E+03  9.44575E+03  1.42327E+04
 -8.12360E+02  9.16405E+03 -9.09159E+03 -1.02914E+04 -4.12193E+03 -1.39017E+04  2.01167E+04 -1.80608E+04
  2.70549E+04 -1.23117E+04  2.44590E+04  5.81030E+03  2.60996E+04  1.54621E+04  1.93232E+03  3.01058E+04
 -1.00219E+04  3.75626E+04 -1.90802E+04  1.81737E+04 -2.58569E+04  8.03906E+03 -2.83523E+04 -5.61953E+03
 -6.46201E+03 -1.35611E+04 -3.33582E+03 -4.32947E+03 -3.57436E+03  2.08698E+03 -7.75368E+03  2.56574E+03
 -9.03704E+03 -1.13221E+03 -1.41711E+04 -1.10466E+04 -8.66891E+03 -1.44023E+04  3.15544E+02 -1.48600E+04
  1.88759E+04  4.87212E+02  1.02385E+04  4.69480E+03 -4.98376E+03  1.18783E+04 -7.24608E+03 -6.72892E+03
  4.02390E+02 -1.27000E+04 -6.65010E+03 -1.04987E+04  1.68610E+04 -1.90623E+04  2.25992E+04 -5.01847E+03
  2.29997E+04  4.47467E+03  2.57193E+04  1.45551E+04  2.74697E+03  2.16361E+04 -2.27306E+03  1.83157E+04
 -1.80206E+04  3.40201E+03 -9.29072E+03 -7.56377E+03  9.07277E+03 -7.56277E+03  6.71335E+03  4.55710E+02
  7.56256E+03  6.63295E+03  6.99619E+02  6.78767E+03 -1.29610E+04  1.49599E+04 -1.65959E+04 -2.19387E+03
 -1.73611E+04 -5.99110E+03  9.22887E+02 -1.42863E+04  9.51499E+03 -1.87383E+03  1.17453E+04  3.63042E+03
  4.56763E+03  1.37349E+04 -1.08377E+04  2.51798E+04 -1.40372E+04  5.49042E+03 -2.02960E+04 -3.96364E+03
 -1.06803E+04 -1.83695E+04  6.56844E+03 -2.06340E+04  8.87583E+03 -5.06765E+03  2.47062E+04 -8.59348E+02
  1.32927E+04  1.76562E+04 -2.17651E+03  1.83114E+04 -1.30525E+04  1.32646E+04 -1.50243E+04  5.83988E+03
 -1.08628E+04 -8.28390E+03 -9.86599E+03 -6.97253E+03  6.40945E+03 -5.83583E+03  1.02001E+04 -1.01627E+03
  5.89445E+03  4.91221E+02 -4.42978E+03  3.50977E+03  1.80584E+03 -9.11196E+03  7.30157E+01 -1.44601E+04
  1.63827E+04  4.43675E+03  8.87012E+03  3.61816E+03  1.88352E+04  1.38882E+04  8.96034E+03  2.06399E+04
 -3.37273E+03  2.13166E+04 -1.98143E+04  1.94565E+04 -2.35099E+04  8.10179E+02 -2.79185E+04 -1.35969E+04
 -1.52772E+04 -1.82024E+04  3.95166E+03 -1.56887E+04  5.09757E+02 -7.75396E+03  1.33197E+04 -6.06308E+02
  5.20814E+03  3.58916E+03  1.25214E+04 -8.26263E+03  2.33077E+03 -1.78262E+03  7.09093E+03 -4.93012E+03
  1.00124E+04  1.50748E+03  6.06081E+03  1.11461E+04  1.71575E+03  1.14139E+04 -1.07087E+04  8.78439E+03
 -1.48785E+04  8.31801E+02 -1.42238E+04 -1.04989E+04 -8.52141E+02 -8.70916E+03  8.16059E+03 -1.73483E+04
  1.08653E+04 -9.32260E+03  2.10051E+04  1.84137E+03  1.57686E+04  1.33068E+04  6.26721E+03  2.39980E+04
 -1.01360E+04  1.74373E+04 -1.10800E+04  8.60713E+03 -6.30260E+03 -6.60445E+03 -2.27488E+03 -3.49516E+03
  1.20309E+03  4.73551E+03  1.14401E+03 -1.82635E+03 -9.71767E+03 -2.20145E+03 -1.48103E+04 -2.93489E+03
 -1.10459E+04 -1.03683E+04 -2.97415E+03 -1.16557E+04  1.64792E+04 -1.46231E+04  1.57756E+04  2.16479E+03
  1.06674E+04  9.12174E+03  5.24112E+03  1.18727E+04  3.04840E+03  2.41637E+04 -1.49799E+04  5.38576E+03
 -2.34898E+04  1.77505E+03 -1.39233E+04 -9.00060E+03 -7.42233E+03 -1.06142E+04  6.46540E+03 -7.63811E+03
  9.60711E+03 -4.12612E+02  6.37461E+03 -1.52895E+03  9.54466E+02  7.88694E+03  6.38229E+03  9.20068E+03
  4.16740E+03  8.41144E+03  2.82041E+03  1.73446E+03  5.14514E+03  7.19398E+03  1.02800E+04  9.21448E+03
  2.10360E+03  1.43215E+04 -6.79653E+03  1.10597E+04 -1.50679E+04  6.47320E+03 -1.58975E+04 -4.55177E+03
 -6.45239E+03 -1.92536E+04 -1.33119E+03 -1.63231E+04  4.71870E+03 -1.36022E+04  1.83710E+04 -4.24594E+03
  1.03287E+04  7.45792E+03  1.23084E+03  1.43216E+04 -6.91234E+02  9.01402E+03 -7.15410E+02 -1.47498E+03
  1.14989E+03 -3.32760E+03  4.63079E+03 -1.04827E+04  1.22260E+04  1.53976E+03  1.14413E+04  9.12571E+02
  8.86143E+03  5.09039E+02 -8.84553E+02  3.15711E+03 -3.23730E+03  9.04056E+02  4.58355E+03  1.75125E+03
 -5.97502E+01 -2.40482E+03  9.06530E+03  6.54375E+03 -5.13770E+02  1.21107E+04  3.86488E+03  8.66184E+03
 -2.93924E+03  9.23363E+03 -9.75379E+03  1.68675E+04 -1.28657E+04 -3.03920E+03 -3.53004E+03 -1.24798E+04
  3.92359E+03 -6.32388E+03  3.52418E+03 -5.42289E+03  8.24662E+02 -2.83767E+02 -2.85676E+03  1.22097E+04
 -4.50996E+03  3.72320E+03 -1.04246E+04 -5.70755E+03 -1.69308E+03 -4.29840E+03  1.01789E+03 -1.41669E+04
 -9.40586E+02 -1.54468E+03  1.05840E+04  2.08020E+03  5.19004E+02  4.78383E+02  7.08375E+03  3.71128E+03
 -8.65101E+03  1.53044E+03 -1.42491E+03 -3.63854E+03  3.30404E+03 -5.62979E+03  9.02243E+03 -4.28459E+03
  1.46222E+04  3.47479E+03  1.03717E+04  1.55320E+04  7.14442E+03  1.45337E+04 -7.12518E+03  1.03817E+04
 -1.01782E+04  2.42593E+03 -4.27229E+03  3.69205E+03 -1.72862E+03 -6.37040E+03  1.74349E+03 -8.22261E+03
  6.14270E+03 -1.29051E+03  8.71384E+03  1.50772E+03 -3.57528E+03  1.08068E+04  4.87878E+01  2.25707E+03
 -7.89707E+03  1.12209E+03 -5.14566E+03  5.48919E+03  7.19527E+01  4.00178E+03 -7.42940E+01  2.52302E+03
  3.77883E+03  2.67522E+03 -1.10371E+04  7.65188E+03 -1.37034E+04 -2.22799E+03 -1.60402E+04 -4.11477E+03
 -7.34430E+03 -1.67187E+04 -1.77220E+03 -1.99957E+04  1.03302E+04 -6.49985E+03  1.10139E+04 -3.01692E+03
  1.43899E+04  5.77985E+02  4.85903E+03  5.67947E+03 -1.67945E+03  1.24459E+04 -8.34324E+03  3.99393E+03
 -5.95767E+03  4.45174E+03 -2.39609E+03  2.88271E+03 -2.64307E+03  9.13628E+03 -1.80793E+03 -1.73393E+03
 -1.80928E+03  8.77594E+02 -2.91284E+03 -6.06487E+03 -4.24557E+03 -1.16253E+04 -3.68255E+02 -3.42413E+03
  3.77190E+03 -6.17326E+03  7.81139E+03 -4.86919E+03  1.64706E+04  2.24498E+03 -1.05940E+03  1.20603E+04
 -9.59302E+03  1.21264E+04 -7.33555E+03  3.64407E+03 -1.68410E+04 -1.99007E+03 -1.78607E+04 -1.04671E+04
 -5.37271E+03 -1.62844E+04  3.03293E+03 -1.48642E+04  8.63867E+03  3.12015E+03  7.74916E+03  1.05688E+03
  5.16512E+03  2.78107E+03 -1.70165E+03  2.42479E+03  1.62239E+03 -2.87993E+03  1.65589E+03 -2.72919E+03
  4.99769E+03 -2.68191E+03  1.90799E+03 -4.73211E+03  2.73542E+03  5.95295E+03 -5.32504E+03  1.27953E+04
 -4.72012E+03  1.78504E+02 -7.37878E+03 -2.15572E+03 -6.21033E+03 -3.66172E+03 -4.03752E+03 -1.54160E+04
  1.01674E+04 -5.56479E+03  1.22780E+04 -2.07208E+03  1.85211E+04  5.82241E+03  9.35069E+03  1.04118E+04
  9.04786E+03  1.00091E+04  2.71996E+03  1.01578E+04 -8.59965E+03  3.46989E+03 -8.87107E+03  5.06177E+03
 -3.32903E+03  1.38813E+03 -6.59833E+03  4.60742E+03 -3.12353E+03 -2.52587E+03 -9.81305E+03  2.12488E+03
 -5.46780E+03 -1.54317E+03 -3.59626E+03 -1.31771E+04  9.33644E+03 -1.15860E+03  4.58834E+03 -4.31552E+03
  1.34136E+04 -3.44626E+03  5.53886E+03  6.28278E+03 -3.09845E+03  3.50834E+03 -3.15409E+03  5.00396E+03
