 $NMID ID='MM_0lb_SNR50_20hz_g40_22.RAW', FMTDAT='(8E13.5)'
 TRAMP=1., VOLUME=1. $END
  3.07011E+05 -3.83004E+03  3.38990E+05  2.49138E+05  8.47019E+04  3.36806E+05 -1.34487E+05  2.48452E+05
 -1.90798E+05  8.33281E+04 -1.14075E+05 -3.14987E+04 -2.79627E+02 -5.10374E+04  5.47347E+04 -7.44316E+02
  3.57172E+04  5.33263E+04 -1.75359E+04  7.39267E+04 -6.08014E+04  6.34819E+04 -8.35665E+04  3.19770E+04
 -7.86838E+04 -1.26940E+04 -5.55857E+04 -4.78263E+04 -1.53114E+04 -6.62066E+04  2.88824E+04 -4.76126E+04
  3.92490E+04  4.86057E+03  1.14840E+04  4.73770E+04 -3.06545E+04  4.20756E+04 -6.26858E+04 -9.30591E+02
 -4.90612E+04 -5.24633E+04 -4.61008E+03 -7.40861E+04  3.30208E+04 -5.35841E+04  4.16881E+04 -1.64616E+04
  4.10662E+04  9.32048E+03  3.00692E+04  2.90896E+04  1.64234E+04  2.69556E+04 -4.24166E+03  2.70651E+04
 -2.10495E+04  1.42364E+04 -2.05097E+04  1.55182E+03  5.25553E+03 -6.16301E+03  2.35975E+04  1.36118E+04
  1.04354E+04  3.34483E+04 -3.17510E+04  3.17119E+04 -6.09235E+04  1.79529E+03 -5.44130E+04 -4.05230E+04
 -1.30861E+04 -5.79068E+04  3.41002E+04 -4.39243E+04  5.44195E+04  4.92392E+02  2.93157E+04  3.07557E+04
 -7.78909E+03  3.09653E+04 -2.41919E+04  1.03895E+04 -2.39363E+04 -3.43444E+03 -1.51211E+04 -1.10107E+04
 -9.33341E+03 -1.35360E+04  1.03275E+03 -1.66139E+04  5.11544E+03 -2.46262E+04  1.08392E+04 -1.66062E+04
  1.34342E+04  2.56459E+03 -1.57947E+03  1.12897E+04 -1.92313E+04  2.00572E+03 -8.25213E+03 -2.78686E+04
  2.08288E+04 -4.18768E+04  4.54559E+04 -1.38946E+04  4.37078E+04  2.02911E+04  1.12115E+04  4.24562E+04
 -1.31216E+04  2.73694E+04 -2.37796E+04  1.15716E+03 -1.20245E+04 -2.77435E+04  2.05404E+04 -2.75293E+04
  3.61190E+04 -3.43801E+03  2.95857E+04  2.27995E+04  1.31717E+04  4.04111E+04 -2.73577E+03  4.22814E+04
 -2.68541E+04  3.02179E+04 -3.74746E+04  9.25886E+03 -3.87241E+04 -1.21195E+04 -2.23703E+04 -3.29930E+04
  8.85665E+03 -3.15256E+04  2.79532E+04 -1.05167E+04  2.47520E+04  1.30418E+04  6.20572E+02  1.86396E+04
 -1.39947E+04  6.60196E+03 -1.07581E+04 -8.76586E+03  9.79332E+03 -1.17055E+04  1.62325E+04  8.38053E+03
  1.35490E+04  1.74553E+04 -8.26702E+03  2.04147E+04 -2.05740E+04  9.28325E+03 -2.32792E+04 -1.00228E+04
 -1.24565E+04 -2.01452E+04 -4.02087E+03 -1.39871E+04  2.13764E+03 -1.58592E+04  1.15567E+04 -1.10201E+04
  1.69869E+04 -1.44088E+04  2.48786E+04  1.39488E+03  2.24362E+04  1.08748E+04  6.05046E+03  3.19323E+04
 -1.59699E+04  2.57753E+04 -2.81064E+04  8.67936E+03 -1.94871E+04 -1.09172E+04 -5.04151E+03 -1.40313E+04
  3.07248E+03 -7.08221E+03 -4.26738E+03  2.79869E+03 -9.55649E+03  6.11550E+03 -1.48017E+04 -2.25713E+03
 -4.89301E+03 -1.48990E+04  5.34302E+03 -1.79958E+04  1.45745E+04 -1.44967E+04  1.42859E+04 -5.16735E+03
  7.71739E+03  7.51800E+03 -3.81072E+03  1.39345E+04 -9.44577E+03  7.72349E+03 -1.65243E+04  3.67549E+02
 -1.10543E+04 -1.61907E+04 -2.57752E+03 -1.63772E+04  4.86344E+03 -1.27110E+04  1.61726E+04 -9.05717E+03
  1.23233E+04  7.24218E+02  1.38565E+04  2.68884E+03  3.04571E+03  4.47551E+02  6.22833E+03 -4.22632E+03
  1.44958E+04  2.72418E+02  1.20420E+04  1.35314E+04  7.61008E+03  2.25785E+04 -4.56958E+03  2.21211E+04
 -1.05626E+04  1.65964E+04 -2.19132E+04  6.29389E+03 -1.72776E+04 -1.06992E+03 -1.58796E+04 -1.39015E+04
 -1.03826E+04 -1.58456E+04  1.02204E+04 -2.15591E+04  1.36222E+04 -1.10781E+04  1.39636E+04  4.28203E+03
  1.19734E+04  8.91026E+03 -6.75914E+03  7.78281E+03 -8.81569E+03  6.22715E+02 -7.45629E+03 -7.52601E+03
  1.54207E+03 -1.11591E+04  7.27528E+03 -8.62189E+03  8.13602E+03 -2.12475E+03  6.25215E+02  4.31818E+03
 -3.41772E+03 -1.62985E+02 -1.57834E+03 -6.51011E+03  6.14275E+02 -8.68973E+03  7.40651E+03 -1.42726E+04
  9.58669E+03 -2.32019E+03  6.74325E+03 -4.07213E+02  9.80502E+03  9.42461E+03  2.71830E+03  1.32595E+04
  2.24773E+03  1.42966E+04 -6.87508E+03  4.48194E+03 -9.93026E+03  1.79779E+03 -7.05111E+03 -3.84668E+03
 -3.68947E+03 -3.20936E+03 -3.28898E+03  2.70892E+03 -1.47924E+03  2.34739E+03  7.22807E+02  2.74505E+03
 -4.23029E+03 -1.30083E+02 -6.82556E+03 -7.78084E+03 -2.48932E+03 -7.22436E+03  3.37798E+03 -7.27094E+03
  3.94448E+03 -4.56299E+03  4.61735E+03  2.34422E+02  4.32280E+03  1.10681E+03 -4.06113E+03  2.16400E+03
  1.05405E+02 -6.77830E+03 -2.34280E+02 -3.74641E+03  4.63489E+03 -6.35657E+03  1.29779E+04 -7.90791E+03
  4.40625E+03  5.54981E+02  5.31159E+03  3.16423E+03  2.94523E+03  8.30628E+03 -4.30041E+03  8.59876E+03
 -6.31781E+03  3.99047E+03 -5.46084E+01 -4.40235E+02  3.32175E+02  2.72847E+02  3.54077E+03 -3.09280E+03
  4.24873E+03  8.78638E+02  3.51205E+03  1.14143E+04 -3.47791E+03  2.08650E+03 -8.00989E+03  3.66492E+03
 -7.72357E+03 -5.28217E+03 -7.48619E+02 -8.07186E+03  1.25421E+03 -5.31913E+03 -7.08787E+02  1.69876E+03
 -1.67965E+03  4.62805E+03 -7.23803E+03  3.53213E+03 -7.09354E+03  5.17491E+02 -1.36256E+03 -4.82969E+02
 -3.12131E+03 -1.03895E+03  7.47449E+02 -8.15252E+03  5.60120E+03  6.77349E+02  6.67533E+03  1.76906E+03
  5.94795E+03  1.57028E+03  1.09050E+03  4.67589E+03 -5.03390E+03  9.06470E+02 -5.37546E+03  4.24953E+02
 -3.38533E+03 -3.79583E+03 -3.19788E+03 -1.28724E+03 -1.37989E+03 -1.62886E+03  3.14944E+03 -5.00758E+03
  1.38436E+03 -3.80283E+02  1.99074E+03  3.37677E+03 -1.33490E+02 -7.40921E+02  7.85590E+02 -1.58195E+03
  1.45072E+03  3.55743E+03  4.05847E+03  6.45778E+02  3.82458E+03 -2.77989E+03  5.39992E+03  4.69500E+03
 -5.87044E+03  6.81880E+03 -3.35156E+03  7.25196E+03 -5.35833E+03 -5.90169E+02 -9.14770E+03 -4.82830E+03
 -3.11273E+03 -2.02579E+03  8.10558E+02 -8.67615E+03  2.86318E+03 -5.50647E+01 -2.00553E+02  1.56417E+03
  3.01909E+03 -3.43207E+03  2.06339E+03 -2.26611E+03  5.44263E+02  2.72484E+03  2.24780E+03 -6.65299E+02
 -4.22478E+02 -1.30570E+03 -1.52112E+03  1.85483E+03  5.53259E+03  4.22740E+03 -4.44268E+03  3.15507E+03
 -5.49395E+02 -4.49813E+03  4.26313E+02  8.45464E+02  3.99975E+03 -6.04369E+03  6.52709E+03 -3.49621E+03
  5.11842E+03 -3.54722E+03  9.43687E+03 -8.48858E+02  7.07213E+03  1.89854E+03 -2.98562E+03  3.63121E+03
 -2.75766E+03  6.72209E+03 -3.05615E+03  1.40220E+02 -4.65334E+03 -2.98295E+03  1.77149E+03  2.60826E+03
  1.08083E+03  4.91203E+03  1.72119E+02  2.61037E+03 -2.88568E+03  1.86666E+03 -1.75481E+03 -1.68938E+03
 -1.60933E+03 -1.49415E+03  1.86493E+03 -2.96205E+03  4.87101E+03 -3.82919E+03 -8.50928E+01 -1.65650E+03
  6.94945E+03  1.21714E+03 -1.78243E+03  1.38593E+03 -1.58167E+03  3.44819E+03 -7.39766E+03  2.25741E+03
 -3.44559E+03 -6.11150E+02 -5.43210E+03 -2.23811E+03 -2.25025E+03 -1.05206E+03  3.41149E+03 -2.81323E+03
  5.57417E+02 -1.25890E+03  3.31776E+03  1.98708E+03 -3.96754E+02 -2.08290E+02 -4.59739E+02 -5.28495E+02
  3.57968E+02  1.34322E+03 -6.56427E+01  1.05046E+02  2.68488E+03  2.56216E+03 -1.75052E+03 -1.31967E+03
  2.50278E+02  2.93184E+03  2.16541E+03  6.28740E+03 -1.88379E+03 -2.57803E+03 -6.20710E+03  1.93347E+02
 -8.51183E+02 -6.44871E+03  1.53230E+03 -5.08690E+02  2.01251E+03 -1.25924E+03  2.36979E+03 -2.18673E+03
  1.85206E+03  2.04094E+02 -9.53477E+02 -1.57337E+03 -3.55494E+03  1.09153E+03 -2.16573E+03 -2.03886E+03
  1.91626E+03  1.34708E+02  1.75803E+03 -9.71777E+02  1.48278E+03 -2.02678E+03  2.05331E+03 -5.93400E+02
  1.08037E+03  1.83484E+03  8.38587E+02  2.29706E+03 -2.43889E+03  2.36359E+03  1.83089E+03  3.26479E+02
  9.47607E+01  1.29483E+03  1.64415E+03 -6.87232E+02  1.73864E+03 -1.82769E+03  1.24587E+02 -3.95212E+02
 -5.44904E+03  2.68843E+03  3.95833E+02  6.93743E+02 -8.10339E+03 -1.55509E+03 -1.21113E+03  1.97254E+03
 -1.02215E+03  5.14595E+02  2.32041E+03  3.18808E+03 -1.17079E+03  2.23944E+03  8.10220E+02  4.13562E+03
  1.97845E+03  6.06783E+03 -1.92771E+02 -2.12635E+03  2.19270E+02 -6.44171E+03  2.62361E+03 -4.05739E+03
 -1.68320E+01  1.56760E+03 -2.27681E+03 -3.90689E+03  2.17021E+03  1.91273E+03  2.22497E+03  1.16876E+03
 -2.59314E+02  2.57765E+03  1.36295E+03  1.81799E+03  9.23460E+02 -1.34548E+03  2.54796E+03 -1.78157E+03
 -2.67200E+03  2.52885E+02  3.28435E+03  4.54137E+03  1.21675E+03 -2.61200E+03  2.69229E+03  1.15029E+03
 -2.79928E+03 -1.62449E+03  7.97263E+02  5.48801E+02 -8.40545E+02 -1.40592E+03 -2.42407E+03  1.50126E+03
 -2.37600E+03 -1.14561E+03  2.36352E+03  1.85230E+03 -2.33783E+03  8.14593E+02  1.96944E+03  1.58803E+03
 -2.49016E+03  8.13259E+02 -3.02462E+03  7.76990E+02  2.92129E+03 -2.33483E+03  1.75458E+03  6.96308E+02
  2.71242E+03 -2.87831E+03 -3.18951E+03  1.00713E+03  1.24118E+03 -6.27869E+02 -2.83410E+03  6.31694E+02
 -9.58936E+02 -1.38635E+03  6.14531E+02  1.71765E+02  8.50360E+01 -5.35563E+03  9.97989E+02 -6.61502E+02
  2.61119E+03 -9.19567E+02  2.45631E+03  6.90006E+03 -2.45238E+02  2.93623E+03 -1.52867E+03  2.67039E+02
  1.48706E+02  4.85586E+02 -3.54415E+03 -2.22587E+03  4.88338E+03  1.24789E+02 -2.66587E+01 -1.02035E+03
 -3.08258E+03  2.64928E+03 -5.95312E+02 -3.49918E+03  4.45277E+03 -3.59627E+03  2.74168E+02 -2.55711E+03
  4.07561E+01 -5.83125E+02  3.35960E+03 -5.21101E+03 -1.19245E+03  2.11542E+03 -1.55107E+03  3.22937E+03
  6.98911E+02  5.62346E+02 -1.48043E+03  4.87307E+03 -3.77562E+03 -3.00610E+03 -1.57116E+02 -2.04330E+01
 -3.14462E+03 -2.50611E+03  5.51771E+02 -2.73044E+03  1.73321E+03  7.40572E+02  3.76697E+03  2.82666E+02
  6.23442E+02 -5.19008E+03  1.11565E+03  2.22630E+03  2.52147E+03 -1.22414E+03  1.92104E+02  2.67745E+03
  1.07264E+03  2.18242E+03  1.61225E+03  1.41145E+03  1.06887E+03 -5.25576E+03 -4.01363E+03 -2.37748E+03
 -3.12599E+03 -2.26026E+03  1.00547E+03  1.21296E+03  2.04016E+03 -3.55664E+03 -1.74419E+03  1.39679E+03
 -4.61462E+02  1.05995E+03 -3.63706E+02  6.68483E+01  3.26000E+03 -1.10796E+03  4.68257E+02  2.01049E+03
  8.07706E+00 -4.14752E+03 -2.45545E+03  6.39934E+02 -2.56954E+02 -2.65373E+03 -9.34695E+02  3.38370E+03
  3.94196E+03 -4.00451E+03 -6.66369E+03  2.17043E+03 -3.13469E+03  3.97842E+03  5.09475E+02 -3.89462E+03
  9.15698E+01 -4.01134E+02  4.64518E+02  5.46171E+02  2.40557E+03 -3.73139E+03 -1.40683E+03  6.13515E+02
 -1.35779E+03  7.31814E+02  3.38323E+02 -1.04620E+03 -5.05497E+03  1.16738E+03  4.92078E+02 -3.35827E+02
