 $NMID ID='MM_0lb_SNR50_12hz_g60_6.RAW', FMTDAT='(8E13.5)'
 TRAMP=1., VOLUME=1. $END
  3.04766E+05 -6.56165E+02  3.38586E+05  2.50981E+05  8.61742E+04  3.41767E+05 -1.34331E+05  2.52202E+05
 -1.87295E+05  8.19860E+04 -1.15826E+05 -2.68669E+04  2.92315E+03 -5.80033E+04  4.91426E+04  6.53453E+03
  3.37917E+04  5.51559E+04 -1.48761E+04  7.76480E+04 -5.84139E+04  6.85730E+04 -8.29552E+04  3.26928E+04
 -8.34452E+04 -1.00485E+04 -6.30341E+04 -5.13499E+04 -1.22456E+04 -7.08829E+04  3.18554E+04 -4.45243E+04
  3.69989E+04  5.85347E+03  2.07515E+04  4.88925E+04 -3.56490E+04  5.27938E+04 -6.99049E+04 -9.84278E+01
 -5.63841E+04 -5.41632E+04 -6.93892E+03 -8.61476E+04  3.32776E+04 -5.43796E+04  5.20251E+04 -1.86107E+04
  4.31655E+04  1.35800E+04  3.48952E+04  2.60220E+04  2.04693E+04  3.10770E+04 -9.10533E+03  2.85251E+04
 -1.91028E+04  1.83859E+04 -1.25627E+04 -6.22745E+03  1.26406E+03 -8.69211E+03  2.34666E+04  1.59241E+04
  6.51943E+03  3.55840E+04 -3.40320E+04  3.17231E+04 -6.21832E+04  2.69221E+03 -5.23578E+04 -4.99173E+04
 -9.29079E+03 -6.61318E+04  4.03930E+04 -5.11437E+04  5.76964E+04 -4.33022E+03  3.66226E+04  3.09539E+04
 -5.97833E+03  3.75477E+04 -2.87075E+04  1.67408E+04 -3.37897E+04 -4.67722E+03 -1.34988E+04 -9.50583E+03
 -7.08173E+03 -1.37260E+04  1.27523E+03 -2.18915E+04  4.12281E+03 -2.39987E+04  1.43610E+04 -1.24441E+04
  1.32058E+04  6.35671E+03 -1.22104E+04  6.65519E+03 -2.22024E+04 -1.01455E+04 -2.22579E+03 -3.76822E+04
  2.16552E+04 -4.64386E+04  5.30837E+04 -2.26604E+04  5.21047E+04  2.40359E+04  1.92305E+04  4.34843E+04
 -1.48690E+04  3.26889E+04 -2.87147E+04  6.06524E+03 -8.29314E+03 -2.96658E+04  2.19935E+04 -3.61149E+04
  3.99139E+04 -1.25563E+04  3.76635E+04  2.33771E+04  1.53514E+04  5.20663E+04 -8.43539E+03  5.48392E+04
 -3.84489E+04  3.43860E+04 -4.69614E+04  1.12987E+04 -4.35762E+04 -2.05737E+04 -2.76138E+04 -4.47950E+04
  1.09054E+04 -4.20663E+04  3.40456E+04 -1.24824E+04  3.53388E+04  4.78754E+03 -2.04172E+02  1.85140E+04
 -1.30902E+04  8.95646E+03 -1.27221E+04 -1.27173E+04  7.28050E+03 -1.05067E+04  2.04185E+04  5.29287E+03
  1.20096E+04  1.95683E+04 -2.70695E+03  2.54759E+04 -2.40271E+04  1.73477E+04 -3.21951E+04 -2.81547E+03
 -2.84151E+04 -2.05341E+04 -8.24042E+03 -3.01239E+04  4.88533E+03 -2.36462E+04  2.14845E+04 -2.05521E+04
  3.15601E+04 -1.57610E+04  3.55252E+04  8.90990E+03  2.52693E+04  2.34700E+04  2.90654E+03  3.70837E+04
 -1.78726E+04  3.43320E+04 -2.90317E+04  1.14849E+04 -2.29108E+04 -4.26735E+03 -4.45415E+03 -1.17398E+04
 -2.67798E+03 -4.57518E+01 -1.29803E+04  9.23605E+03 -1.65780E+04  7.78651E+03 -2.00057E+04 -1.19543E+04
 -8.58423E+03 -2.32974E+04  3.29471E+03 -2.77752E+04  1.79403E+04 -1.82922E+04  2.71883E+04  1.55042E+03
  9.73979E+03  1.46820E+04 -1.09948E+03  2.27611E+04 -1.86983E+04  1.32277E+04 -2.13311E+04 -6.04711E+03
 -1.67894E+04 -2.13808E+04  2.56456E+03 -2.53517E+04  1.26606E+04 -2.26603E+04  1.89725E+04 -9.73308E+03
  2.12500E+04 -1.32547E+03  1.75103E+04  9.01248E+03  1.17894E+04  2.60860E+03  1.39192E+04 -8.81063E+03
  2.04565E+04  4.02546E+03  2.72473E+04  2.08022E+04  1.69103E+04  3.35566E+04 -4.55979E+03  4.03804E+04
 -2.46784E+04  3.64578E+04 -3.43941E+04  1.89816E+04 -3.95241E+04 -6.37440E+03 -3.39811E+04 -2.67340E+04
 -1.30370E+04 -3.98358E+04  7.51020E+03 -2.80039E+04  2.69016E+04 -1.04843E+04  2.32637E+04  4.61178E+03
  2.71466E+03  1.51213E+04 -1.41262E+04  1.35225E+04 -1.71081E+04  6.20499E+03 -1.67144E+04 -1.56975E+04
 -2.01153E+03 -1.90617E+04  6.70222E+03 -1.89600E+04  8.93602E+03 -2.34406E+03  8.15111E+03  3.82791E+03
 -5.60674E+03 -3.95135E+03 -8.28923E+03 -1.37222E+04 -7.36402E+02 -2.08987E+04  1.25303E+04 -2.11134E+04
  2.20495E+04 -1.04479E+04  2.23350E+04  7.83329E+03  2.31114E+04  1.10162E+04  1.06100E+04  2.51613E+04
 -7.15492E+03  3.04911E+04 -1.91343E+04  2.34279E+04 -1.81812E+04  2.37823E+03 -1.29169E+04 -6.34467E+03
 -6.45897E+03 -8.63263E+03 -2.95004E+03  1.34611E+03  1.32912E+01  2.47815E+03 -8.80024E+03  1.82923E+03
 -1.74670E+04  1.98233E+03 -1.50468E+04 -1.25842E+04 -7.96002E+03 -1.76077E+04  4.44979E+03 -1.36717E+04
  1.04867E+04 -6.73393E+03  8.35914E+03  2.36821E+03  5.78618E+03  5.72062E+03 -7.85764E+03 -2.28939E+03
 -8.68559E+03 -8.89503E+03 -3.43948E+03 -1.36856E+04  3.92737E+03 -1.95200E+04  1.81017E+04 -1.54586E+04
  2.16289E+04  3.73799E+03  1.40465E+04  6.91005E+03  5.04613E+03  2.04558E+04 -1.56046E+03  1.66164E+04
 -1.62676E+04  4.90264E+03 -7.97693E+03  6.31182E+02  8.38487E+03 -8.58625E+03  3.51951E+03 -9.71750E+02
  6.11857E+03  4.55371E+03 -3.17781E+02  1.52667E+04 -5.09192E+03  1.04760E+04 -1.18425E+04  5.21750E+02
 -1.09639E+04 -8.14220E+03 -1.90061E+03 -1.69371E+04  1.04141E+04 -6.85932E+03  9.45630E+03  7.58955E+03
  4.34350E+03  1.13133E+04 -8.10062E+03  6.87639E+03 -1.25740E+04  6.09372E+03 -1.16475E+04 -4.68071E+03
 -1.02923E+04 -7.17314E+03  3.79873E+03 -2.10375E+04  1.02067E+04 -7.68282E+03  1.46454E+04  1.01558E+03
  3.75475E+03  1.15729E+04  7.55998E+02  1.14755E+04 -7.06340E+03  4.30861E+03 -1.32016E+04 -4.55824E+03
 -6.32703E+03 -7.95377E+03 -7.76090E+01 -1.02825E+04  1.11136E+02 -1.15056E+04  6.72259E+03  1.78289E+03
  4.66460E+03 -4.54494E+03 -2.38272E+03  3.20848E+02  6.65474E+02 -5.40337E+02  3.87130E+03 -1.10349E+04
  9.31031E+03  4.86273E+02  1.26063E+04  1.74564E+03  2.02932E+04  1.11678E+04  1.36466E+04  2.09269E+04
 -6.43854E+03  1.95080E+04 -1.32584E+04  1.39232E+04 -2.41747E+04  2.51756E+03 -1.47358E+04 -5.18761E+03
 -7.13615E+03 -1.15396E+04  3.15690E+03 -9.53734E+03  6.31990E+03 -3.66300E+03  1.61364E+03 -1.59259E+03
  1.47480E+03  6.47855E+02  1.81403E+03 -7.65940E+03  2.36533E+03 -2.72974E+03  2.02486E+03  2.48507E+03
  8.92613E+03  1.30747E+01  3.57469E+03  2.95396E+03 -5.18696E+03  8.72234E+03 -8.16269E+03  6.54696E+03
 -1.30665E+04 -1.58643E+03 -2.98845E+03 -7.30951E+03 -1.52363E+03 -1.53770E+04  9.95420E+03 -1.23257E+04
  1.13771E+04 -3.78484E+03  1.28150E+04  1.91234E+03  1.07067E+04  7.16017E+03  4.82609E+03  1.59352E+04
 -6.83775E+03  1.19646E+04 -9.90594E+03  2.82843E+02 -5.77636E+03 -8.10358E+03  4.91225E+03 -5.27226E+03
 -8.77951E+02  3.06115E+03 -5.69345E+03  7.05189E+03 -3.09811E+03  9.38989E+02 -8.80048E+03 -5.21359E+03
 -7.78713E+03 -1.28051E+04 -6.28597E+03 -9.89213E+03  5.30157E+03 -8.63982E+03  1.60512E+04 -6.99289E+03
  1.28780E+04  3.73323E+03  2.40382E+03  1.05345E+04 -1.93335E+03  8.54773E+03 -9.00807E+03  6.52538E+03
 -1.07101E+04  1.70033E+03 -1.13311E+04 -6.66447E+03  1.39897E+03 -1.16085E+04  2.99085E+03 -8.76505E+03
  7.99033E+03 -4.50477E+03 -2.48759E+02 -1.27526E+03 -6.87057E+03  6.34397E+02 -5.96920E+02 -4.84755E+02
 -2.95155E+03  6.33092E+02  2.62050E+03  3.33426E+03  5.03306E+03  2.18200E+03  7.40801E+03  1.02194E+04
  5.05198E+02  8.78069E+03 -7.21666E+03  1.14929E+04 -1.30606E+04  9.20448E+02 -6.55312E+03 -3.39401E+03
 -5.17833E+03 -7.22460E+03  2.97438E+03 -1.13535E+04  4.34392E+03 -7.95462E+03  1.41533E+04 -1.22410E+03
  6.26587E+03  5.30640E+03 -1.94511E+03  6.41524E+03 -4.87278E+02  3.51949E+03 -8.33274E+03 -8.90766E+02
 -2.32363E+03 -1.97030E+03  1.06926E+03 -2.86877E+03 -1.62781E+02  8.81888E+02  6.02216E+03  2.08970E+03
  2.54410E+03  1.69634E+03 -1.76713E+03 -4.21255E+02 -5.09888E+03 -1.44822E+03  2.86442E+03  5.35309E+02
 -9.34908E+01 -1.26355E+02  5.23409E+03  5.80633E+03 -1.46731E+03  9.53824E+03  3.08269E+03  2.86008E+03
 -5.28248E+03  5.70099E+03 -9.94535E+03 -2.71334E+03 -4.38804E+03 -2.72639E+03  6.06536E+02 -3.76940E+03
  2.67234E+03 -6.25664E+03  5.32425E+03 -1.91342E+02  5.82441E+03  6.02346E+02 -4.08492E+03  1.32193E+03
 -3.30648E+03 -2.62643E+03 -1.14141E+04 -5.28413E+03 -1.96164E+03 -5.79099E+03 -2.18129E+02 -9.66494E+03
  2.17480E+03 -4.56763E+03 -1.20393E+03  3.67826E+03 -3.24035E+03  1.08817E+03  4.51889E+03  1.53952E+03
 -1.71750E+03 -7.32645E+02 -8.05256E+02  8.92703E+03 -2.60558E+03 -3.61238E+03  2.81217E+03 -3.14418E+03
  6.59297E+03 -2.92224E+03  2.96517E+03  4.54217E+03  1.66407E+03  8.42221E+03  9.71419E+02  6.29067E+03
 -5.86285E+03  3.41071E+03 -1.16399E+03 -7.56824E+02 -5.53151E+02 -4.09257E+03  2.25774E+03 -4.96152E+03
  5.15368E+03  4.06558E+03  5.60022E+03  3.44830E+03 -2.62329E+03  4.32454E+03 -6.49733E+02  1.55808E+03
 -4.68283E+03  2.35160E+03 -2.15873E+03  1.62069E+03  5.18375E+03  6.88551E+03 -2.72622E+03  2.25863E+02
  4.04709E+03  3.51646E+01 -2.12249E+03  8.04952E+03 -4.88854E+03  4.15295E+02 -9.35755E+03  6.19303E+02
 -2.39515E+03 -1.54767E+04  3.29817E+03 -4.47396E+03  9.88137E+03 -1.00541E+04  9.69683E+03 -5.21420E+03
  1.00518E+04  2.30711E+03  8.11302E+03  9.14040E+03  1.39117E+03  2.22912E+03 -6.84514E+02  2.24865E+03
 -3.41033E+03  3.23285E+03 -2.13070E+03  2.17825E+03  2.56709E+03  1.37953E+03  1.95088E+03  1.51590E+02
 -4.42245E+03 -1.00090E+03 -3.48914E+03 -3.07568E+02  3.85402E+03 -2.23282E+02 -5.98995E+03  3.90849E+02
  3.14250E+03 -1.71545E+02 -1.22000E+03 -2.64163E+03 -6.26463E+02  5.25429E+03 -2.07762E+03  6.03240E+03
 -9.54801E+03  1.11201E+04 -2.49492E+03  2.06956E+03 -1.43970E+04  2.59144E+02 -4.57233E+03 -1.45888E+03
 -3.32049E+03 -5.03952E+03 -2.40765E+03 -6.51723E+03  6.05554E+02 -2.95753E+03  8.43690E+03 -1.31355E+03
  2.99372E+03  5.20270E+03  1.55204E+01  6.64358E+03 -2.28543E+03 -3.28281E+02 -1.11723E+02 -2.25688E+03
  1.93750E+03 -1.18156E+03  2.79738E+03  2.86210E+03  5.48430E+02  1.89154E+03  1.07854E+03  5.45473E+02
  9.04600E+02  1.69992E+03 -7.33883E+03 -9.38090E+02 -4.83286E+03 -1.09588E+04 -5.32989E+03 -5.25468E+03
  1.68604E+03 -2.05811E+03  5.03339E+02  2.90677E+03  2.37541E+03  1.29540E+03  6.66384E+03  1.93341E+03
  3.48313E+03  5.76967E+03 -6.07128E+03 -1.56938E+03  1.23239E+02  3.62726E+03  9.98189E+02 -2.57809E+03
 -3.97792E+03  1.29890E+03 -3.81260E+03 -3.39534E+03  1.82550E+03  3.54903E+03  1.95918E+03 -3.25756E+03
 -5.48691E+03  2.67544E+03 -7.06074E+03 -5.86042E+03  1.87689E+02 -6.44533E+03  1.76996E+03 -1.56297E+03
  6.25523E+03 -3.99707E+03  3.56107E+03 -2.33594E+03 -1.96336E+03  8.48704E+03 -7.59329E+03  5.65574E+03
