 $NMID ID='MM_0lb_SNR50_9hz_g60_43.RAW', FMTDAT='(8E13.5)'
 TRAMP=1., VOLUME=1. $END
  3.08395E+05 -5.52411E+02  3.39426E+05  2.54619E+05  8.62564E+04  3.41666E+05 -1.33514E+05  2.45885E+05
 -1.93951E+05  8.79354E+04 -1.07561E+05 -2.59916E+04 -1.37381E+03 -4.75652E+04  5.23563E+04 -3.68896E+02
  3.48279E+04  5.37325E+04 -2.05301E+04  8.21235E+04 -6.24014E+04  6.80186E+04 -8.83098E+04  3.39357E+04
 -8.18246E+04 -1.40613E+04 -5.98155E+04 -5.21639E+04 -1.79596E+04 -7.91089E+04  3.47990E+04 -4.79684E+04
  3.80620E+04  4.27888E+03  1.42007E+04  4.49859E+04 -3.90122E+04  5.16152E+04 -6.55056E+04  7.09724E+03
 -5.58538E+04 -5.04380E+04 -1.24911E+04 -8.12902E+04  3.26204E+04 -6.06854E+04  5.35604E+04 -1.78136E+04
  4.10208E+04  1.23396E+04  3.84534E+04  2.17212E+04  1.79175E+04  2.66911E+04 -5.51257E+03  3.39645E+04
 -2.36103E+04  8.24035E+03 -1.68080E+04 -1.04931E+04  5.40752E+03 -6.32153E+03  2.17146E+04  1.17102E+04
  1.04061E+04  3.37869E+04 -3.99260E+04  3.78139E+04 -6.60330E+04  5.90379E+03 -6.42409E+04 -4.20682E+04
 -9.09123E+03 -6.21749E+04  4.10007E+04 -4.37964E+04  6.28292E+04 -3.25205E+03  3.77152E+04  3.89673E+04
 -6.30475E+03  3.67622E+04 -3.22985E+04  2.38897E+04 -3.34973E+04 -1.90813E+03 -1.53029E+04 -1.60534E+04
 -1.12589E+04 -1.08442E+04  1.45278E+03 -2.14860E+04  1.14316E+04 -2.19321E+04  1.53493E+04 -5.50524E+03
  1.39303E+04  6.83812E+03 -9.37474E+03  1.41288E+04 -2.15832E+04 -2.81938E+03 -1.03943E+04 -4.37146E+04
  2.32849E+04 -4.69782E+04  5.40322E+04 -1.89587E+04  4.52114E+04  2.29630E+04  2.62230E+04  4.70363E+04
 -2.15814E+04  3.25858E+04 -2.77447E+04  9.68237E+02 -1.51563E+04 -3.61151E+04  2.10123E+04 -2.86793E+04
  4.97787E+04 -9.28423E+03  3.63587E+04  3.41369E+04  2.52330E+04  4.95957E+04 -6.51533E+03  6.12241E+04
 -3.48633E+04  3.62703E+04 -5.11057E+04  9.05754E+03 -4.11681E+04 -2.17471E+04 -2.37250E+04 -4.37837E+04
  5.95177E+03 -4.74700E+04  4.01147E+04 -1.81651E+04  2.37904E+04  1.72782E+04  8.64050E+03  2.77560E+04
 -1.15860E+04  1.11412E+04 -5.03607E+03 -1.16053E+04  4.73355E+03 -8.94629E+03  1.70985E+04 -4.87497E+02
  1.02004E+04  2.64664E+04 -2.23968E+03  2.69374E+04 -2.32354E+04  1.14322E+04 -3.30995E+04 -5.70596E+03
 -2.70961E+04 -1.86369E+04 -1.14305E+04 -2.13450E+04  1.05503E+03 -3.31035E+04  1.40873E+04 -2.26503E+04
  3.60652E+04 -1.35635E+04  3.66730E+04  1.15808E+04  3.17672E+04  2.45259E+04  4.90330E+03  3.98794E+04
 -2.02540E+04  3.59836E+04 -3.56148E+04  1.48714E+04 -2.24911E+04 -8.80468E+03 -5.26876E+03 -1.43330E+04
 -2.93605E+03  1.00163E+03 -1.10756E+04  5.79307E+03 -2.49463E+04  5.79546E+03 -1.89648E+04 -1.37446E+04
 -1.20821E+04 -2.30801E+04  2.94649E+03 -3.54567E+04  2.44491E+04 -1.89207E+04  1.91133E+04 -3.78895E+03
  1.30221E+04  1.37547E+04 -1.44991E+03  2.47972E+04 -1.88254E+04  1.10242E+04 -1.42297E+04 -2.85046E+03
 -2.26735E+04 -2.15935E+04  2.31031E+03 -3.06851E+04  8.78261E+03 -1.63582E+04  2.55717E+04 -1.39138E+04
  3.13812E+04 -2.27512E+03  2.57646E+04  1.38477E+03  1.25042E+04  2.06156E+03  1.21433E+04 -4.77305E+03
  2.48663E+04  7.59906E+03  2.78492E+04  1.42878E+04  1.70618E+04  3.31673E+04  3.88170E+03  4.98683E+04
 -2.09829E+04  3.95205E+04 -4.68503E+04  2.80079E+04 -4.99326E+04 -8.31144E+03 -4.27901E+04 -3.49880E+04
 -1.31822E+04 -3.09185E+04  1.63927E+04 -3.67087E+04  2.66982E+04 -1.70612E+04  3.26210E+04  7.28115E+03
  5.95670E+03  1.84373E+04 -1.23666E+04  2.32945E+04 -2.35114E+04  2.34866E+03 -1.40173E+04 -2.00211E+04
 -4.65347E+03 -2.03660E+04  1.15121E+04 -1.33863E+04  1.69852E+04 -1.29393E+03  2.76849E+02  2.69806E+03
 -1.71498E+04  4.63790E+03 -1.15708E+04 -9.12767E+03 -6.12432E+03 -1.99770E+04  8.59069E+03 -1.76570E+04
  2.60219E+04 -9.33625E+03  2.84219E+04  1.03969E+03  2.17085E+04  2.07346E+04  1.03661E+04  2.39072E+04
 -6.43857E+03  3.12416E+04 -2.02465E+04  2.22624E+04 -2.54493E+04  3.14219E+03 -1.49221E+04 -8.30567E+03
 -9.23578E+03 -8.08494E+03 -1.88179E+03 -3.35594E+03 -4.72181E+03  5.57451E+03 -1.20370E+04  1.42506E+03
 -1.89451E+04 -7.83033E+02 -1.26584E+04 -1.30559E+04 -1.18264E+04 -1.31078E+04  6.69714E+03 -1.56165E+04
  1.23110E+04 -9.70920E+03  9.70177E+03  5.35829E+03  2.39258E+03  1.10842E+04 -9.23335E+03 -2.07411E+03
 -6.51493E+03 -1.39587E+04 -7.09852E+03 -1.52056E+04  7.40635E+03 -1.96683E+04  2.22435E+04 -1.21788E+04
  2.51554E+04  7.55209E+02  2.31293E+04  1.90745E+04  1.95372E+03  2.49361E+04 -1.05830E+04  1.81004E+04
 -1.14460E+04  7.37350E+03 -7.86069E+03 -7.14052E+03  3.87964E+03 -4.06931E+03  1.15290E+04  6.13424E+03
  8.15501E+03  3.77140E+03 -4.14706E+03  7.87222E+03 -1.18431E+04  1.69477E+04 -1.47499E+04 -2.37084E+02
 -9.54834E+03 -3.38314E+03 -1.13553E+03 -1.55763E+04  9.25607E+03 -6.67574E+03  1.53544E+04  6.06971E+03
  3.06867E+03  2.00546E+04 -8.76577E+03  1.42492E+04 -1.60981E+04  2.82656E+03 -9.59566E+03 -3.58267E+03
 -9.26143E+03 -1.67052E+04  6.32163E+03 -2.47955E+04  1.24546E+04 -1.13591E+04  1.79535E+04  6.01080E+03
  1.39706E+04  1.43157E+04  2.73691E+03  1.07773E+04 -4.90155E+03  8.37722E+03 -1.30950E+04 -4.54174E+02
 -1.44607E+04 -1.09802E+04  2.04822E+02 -1.29821E+04  9.37793E+03 -7.86155E+03  8.10487E+03 -8.28618E+03
  1.20458E+04  1.63415E+02 -2.14643E+03  3.36677E+03  3.90408E+03  4.33832E+03  6.30196E+03 -4.75077E+03
  1.37152E+04 -4.05812E+03  1.08455E+04  4.38842E+03  1.71776E+04  1.00300E+04  1.27692E+04  2.85141E+04
 -2.39018E+03  2.82984E+04 -2.09708E+04  2.04571E+04 -3.06089E+04 -2.72816E+03 -2.60857E+04 -1.20060E+04
 -7.69138E+03 -2.03287E+04 -2.25082E+03 -1.19478E+04  5.96989E+03 -1.02928E+04  4.94954E+03 -4.55762E+03
  9.46754E+02 -1.37363E+03  5.60955E+03 -7.21949E+03  2.12345E+03  6.71608E+02  8.10957E+03 -5.73697E+02
  1.10397E+04  9.58623E+02  8.19920E+03  1.02448E+04  3.92994E+03  1.31781E+04 -1.52273E+04  1.26358E+04
 -2.26672E+04 -3.23042E+03 -8.87943E+03 -4.29161E+03  1.94058E+03 -1.79648E+04  1.27471E+04 -1.13390E+04
  1.78574E+04 -1.31669E+04  1.95203E+04  5.61225E+03  1.68418E+04  1.64173E+04  1.06829E+04  1.58340E+04
 -1.21731E+04  1.69093E+04 -1.35908E+04  4.01367E+03 -8.47815E+03  3.42652E+03 -1.59544E+03 -3.78523E+03
  1.21908E+03  2.07227E+02 -1.75345E+03  1.91184E+03 -9.66944E+03  2.80945E+03 -7.67475E+03 -1.86488E+03
 -9.27883E+03 -3.71753E+03 -3.37255E+03 -2.03572E+04  4.67773E+03 -1.64102E+04  1.67128E+04 -4.17298E+03
  1.54013E+04  9.99113E+03  7.65435E+03  2.25749E+04  1.75561E+03  1.85535E+04 -1.10806E+04  9.24178E+03
 -1.45076E+04 -3.86010E+03 -1.71679E+04 -1.06730E+04 -3.73063E+03 -1.38484E+04  6.78780E+03 -1.50903E+04
  1.37616E+04 -6.77317E+02  3.14308E+03 -1.07797E+03  5.19767E+03  5.45870E+03 -1.18207E+04  1.56740E+03
 -2.45125E+03  2.84207E+03  4.95071E+03  2.47799E+03  9.71582E+03  4.76530E+03 -2.25438E+03  4.03098E+03
 -7.26078E+03  9.40567E+03 -6.30065E+03  1.69828E+04 -9.99897E+03 -1.91819E+03 -2.43900E+04 -1.64011E+03
 -1.07660E+04 -1.18835E+04  3.34513E+03 -2.25266E+04  4.58670E+03 -1.03534E+04  1.06791E+04  9.19506E+02
  1.12023E+04  9.59879E+03  5.85705E+03  1.29020E+04 -8.53436E+03  5.05454E+03 -4.59860E+03  1.06346E+03
 -5.71125E+03 -7.43968E+03 -1.14071E+02 -8.45846E+03  1.57869E+04 -9.45197E+03  3.27782E+03  4.66680E+03
  3.92340E+03  5.62354E+03  9.14511E+03  4.51320E+03 -5.07866E+03  2.89031E+03 -1.78736E+02  2.57415E+03
  7.25814E+03 -2.03916E+03 -6.41086E+02  2.64127E+03 -1.65094E+03  7.88720E+03  5.89612E+01  2.88397E+03
 -1.00583E+04  5.00893E+03 -8.13309E+03 -1.15406E+03 -1.28960E+04 -5.15114E+03 -7.93375E+03 -1.94158E+03
 -7.15707E+01 -1.11411E+04  4.08002E+03  3.50615E+03  6.63322E+03 -8.95585E+02 -3.49786E+03  5.99288E+03
 -2.71080E+03  2.56898E+03 -9.46751E+03  5.65824E+03 -7.19010E+03 -1.14164E+04  4.66589E+03 -5.73298E+03
  6.42049E+03 -9.45886E+03  9.20686E+03 -4.02360E+03  5.54354E+03 -1.27817E+03  6.00657E+03  4.75466E+03
 -2.28771E+03 -1.19887E+03 -2.94705E+03 -4.47131E+02 -4.50699E+03 -7.86764E+03  5.36945E+03 -3.87263E+03
  1.52050E+04 -6.90482E+02  1.09711E+04  1.20766E+04  6.29222E+03  1.07010E+04 -5.22071E+03  9.28658E+03
 -8.70684E+03  5.64089E+03 -1.23089E+04 -2.87296E+03 -8.68760E+03 -5.22084E+03  3.07364E+03 -3.04393E+03
  4.34119E+03 -1.72431E+03  2.21602E+03  1.53977E+03 -4.97955E+03  1.01540E+04 -2.33700E+03  1.03811E+04
 -2.65005E+03  5.41396E+03 -4.68623E+02  1.15512E+03 -6.25219E+03  1.56065E+03  7.86331E+03  5.19231E+03
  1.93661E+03  4.44881E+03 -4.76367E+03  6.49826E+03 -1.51449E+04 -1.53281E+03 -1.75903E+04 -1.04486E+04
 -1.06270E+04 -1.31513E+04  7.71414E+02 -1.48739E+04  1.45018E+04 -1.08521E+04  2.32404E+04 -6.97461E+03
  1.93568E+04  5.54706E+03  1.04543E+04  1.78777E+04  4.28353E+03  9.65277E+03 -9.02404E+03  1.45994E+04
 -6.97746E+03  2.34357E+03 -5.68080E+03  6.01276E+02 -9.03971E+03 -4.27118E+03  2.59206E+03  1.66466E+03
 -2.95824E+03  9.07335E+03 -6.01044E+03 -2.68701E+03  4.65529E+03 -6.66678E+03 -1.50634E+03 -9.23450E+03
  2.63212E+03 -1.52673E+03  1.27848E+04  2.63310E+03  6.04584E+03  7.14971E+03 -1.68335E+02  9.22384E+03
 -2.93113E+02  9.41260E+03 -9.85506E+03 -2.66145E+03 -1.25512E+04 -2.56958E+03 -1.17158E+04 -9.72235E+03
  1.55922E+03 -9.74072E+03 -1.49526E+02 -7.02496E+03  1.06407E+04 -7.84015E+03  8.97622E+03  5.01650E+03
  5.97794E+03  9.59699E+02  1.08363E+03 -1.13561E+03 -1.80091E+03  3.62821E+03 -1.87994E+03  7.81953E+02
  3.99220E+03  1.51158E+03  9.12001E+03 -1.08903E+02  5.33183E+03  9.58182E+03 -3.07115E+03  6.78112E+03
 -6.78295E+03  1.14590E+04 -9.75538E+03  3.42505E+03 -3.98864E+03 -5.66841E+03 -6.69559E+03 -1.06156E+04
  2.84446E+03 -6.90474E+03  2.53796E+03 -4.49835E+03  1.39340E+04 -2.43141E+01  7.37041E+03  7.27499E+03
  6.10075E+03  4.77291E+03 -3.04403E+03  7.47501E+03 -1.11513E+04  2.41893E+03 -2.09508E+02 -7.66654E+02
 -5.99273E+03 -5.31234E+03 -1.77893E+03 -1.21478E+03 -9.06022E+03  3.12040E+03  4.87399E+00  1.72324E+03
 -8.41440E+03 -3.29905E+03  1.83911E+02 -8.79532E+03  4.46946E+03 -1.30931E+04  8.26581E+03 -4.66490E+03
  1.38121E+04  2.88744E+03  9.07186E+01  5.46774E+03 -1.49702E+03  6.16780E+03 -1.41362E+03  3.93731E+03
