 $NMID ID='MM_0lb_SNR50_18hz_g60_1.RAW', FMTDAT='(8E13.5)'
 TRAMP=1., VOLUME=1. $END
  3.12651E+05  2.38993E+03  3.36420E+05  2.51441E+05  8.59553E+04  3.32875E+05 -1.34097E+05  2.53165E+05
 -1.88540E+05  7.90488E+04 -1.11918E+05 -2.98043E+04 -3.43287E+03 -5.08083E+04  5.27528E+04  1.80009E+03
  3.87716E+04  5.37436E+04 -1.93228E+04  7.28537E+04 -6.10470E+04  6.46047E+04 -8.54266E+04  3.13222E+04
 -8.13920E+04 -1.21658E+04 -5.68306E+04 -5.39855E+04 -1.21175E+04 -6.72469E+04  2.99340E+04 -4.53750E+04
  3.76948E+04  4.49661E+03  1.41489E+04  4.94074E+04 -3.36301E+04  4.54412E+04 -6.94889E+04  7.26415E+02
 -5.29093E+04 -5.20279E+04 -7.60826E+03 -7.42664E+04  2.93955E+04 -5.44994E+04  4.56806E+04 -2.14261E+04
  4.07889E+04  9.27289E+03  3.49545E+04  2.43590E+04  1.77470E+04  2.81871E+04 -7.15545E+03  3.23625E+04
 -2.10391E+04  1.09946E+04 -1.84142E+04 -7.35417E+03  7.58395E+03 -1.13313E+04  2.28183E+04  9.41203E+03
  6.20200E+03  3.29385E+04 -3.31407E+04  3.62216E+04 -6.31413E+04  5.40876E+03 -5.89071E+04 -4.09045E+04
 -1.30809E+04 -6.30392E+04  3.97176E+04 -5.12339E+04  5.76988E+04 -1.89051E+03  3.56173E+04  3.26846E+04
 -7.79796E+03  3.67190E+04 -2.98615E+04  1.47692E+04 -2.81365E+04 -6.72274E+03 -1.77274E+04 -6.00292E+03
 -9.08573E+03 -9.07134E+03 -5.97729E+02 -1.76241E+04  1.03443E+04 -2.42255E+04  1.43263E+04 -1.35684E+04
  9.32368E+03  4.04149E+03 -5.77009E+03  1.73365E+04 -2.27711E+04 -2.98969E+03 -6.60842E+03 -3.79594E+04
  2.08982E+04 -4.26572E+04  4.83044E+04 -2.19345E+04  4.74107E+04  2.10913E+04  1.56721E+04  3.98056E+04
 -1.27583E+04  3.19306E+04 -2.61594E+04  2.89272E+03 -2.96493E+03 -2.62756E+04  2.10118E+04 -3.28184E+04
  4.07157E+04 -9.38314E+03  3.60080E+04  2.21924E+04  1.83547E+04  4.07370E+04 -1.18609E+04  5.25986E+04
 -2.77225E+04  3.44895E+04 -3.90916E+04  7.85526E+03 -4.41903E+04 -1.55731E+04 -2.35298E+04 -3.67951E+04
  3.96827E+03 -3.74347E+04  3.27967E+04 -1.25757E+04  2.37346E+04  7.80094E+03  4.64765E+03  1.74755E+04
 -1.28685E+04  1.03658E+04 -1.04070E+04 -7.14438E+03  6.20249E+03 -7.69873E+03  1.56192E+04  1.26666E+03
  9.84558E+03  2.07830E+04 -6.32574E+03  2.36784E+04 -2.02279E+04  1.31475E+04 -2.86500E+04 -3.09603E+03
 -1.64198E+04 -1.31073E+04 -7.79316E+03 -2.03113E+04  2.97327E+03 -2.12712E+04  1.43214E+04 -1.87858E+04
  2.40103E+04 -1.62562E+04  3.09988E+04  4.90221E+03  2.23184E+04  1.61395E+04  1.71859E+03  3.36816E+04
 -1.72043E+04  2.84127E+04 -3.17076E+04  9.24272E+03 -1.69830E+04 -1.21216E+04 -5.77863E+03 -1.53786E+04
  2.62759E+03 -4.49560E+03 -3.00907E+03  9.60326E+03 -1.65255E+04  3.59764E+03 -1.57953E+04 -7.12278E+03
 -1.08218E+04 -1.76538E+04  3.47382E+03 -2.49888E+04  1.35561E+04 -1.72310E+04  1.67041E+04 -1.45382E+02
  1.79858E+04  9.75182E+03  5.39718E+01  1.88694E+04 -8.53865E+03  1.19925E+04 -1.85659E+04 -2.92411E+03
 -1.58994E+04 -1.38417E+04 -6.38058E+02 -2.46842E+04  4.72786E+03 -2.10775E+04  1.95247E+04 -7.51738E+03
  1.84753E+04 -5.86081E+02  1.36296E+04 -8.76897E+01  6.21934E+03  1.90678E+03  8.07873E+03 -1.24377E+03
  1.55249E+04  4.23394E+02  2.31566E+04  1.77207E+04  1.43791E+04  2.50460E+04 -8.87223E+02  2.85015E+04
 -1.46773E+04  2.83420E+04 -2.86911E+04  1.54246E+04 -2.70920E+04 -2.67559E+03 -2.49132E+04 -1.62199E+04
 -8.49030E+03 -2.56659E+04  9.51475E+03 -2.34513E+04  1.97684E+04 -1.25281E+04  1.97937E+04  2.71808E+03
  9.16531E+03  9.85058E+03 -7.59648E+03  1.05241E+04 -1.11822E+04  2.46489E+03 -1.02369E+04 -1.19166E+04
  2.33165E+02 -1.64509E+04  8.10719E+03 -1.21896E+04  1.40866E+04  1.78411E+03 -1.20198E+02  4.40345E+03
 -7.11204E+03 -1.87960E+03 -4.83614E+03 -2.73229E+03  3.70192E+03 -1.12732E+04  6.86935E+03 -7.34202E+03
  1.45371E+04 -5.08239E+03  1.50928E+04  2.17272E+03  1.25795E+04  1.06601E+04  7.53986E+03  1.42965E+04
 -3.76722E+03  1.84127E+04 -1.16062E+04  9.22276E+03 -1.27317E+04  3.08699E+03 -5.93837E+03 -1.75256E+03
 -7.03075E+02 -3.99864E+03 -2.50280E+03  2.12495E+03 -1.44437E+03  8.92220E+02 -6.46368E+03  6.95319E+03
 -3.26692E+03 -1.55996E+03 -8.17128E+03 -7.15370E+03  7.91522E+02 -1.30189E+04 -5.57091E+02 -8.08490E+03
  1.12368E+04 -8.15599E+03  3.46516E+03  4.06223E+03 -5.88823E+02  4.28572E+03 -6.63886E+03  4.20383E+03
 -5.19100E+03 -5.27837E+03  1.02525E+03 -1.08944E+04  4.32944E+03 -1.15951E+04  1.14695E+04 -2.05363E+03
  1.26681E+04  2.98214E+02  1.00048E+04  7.51737E+03  2.39796E+03  8.97507E+03 -4.69308E+03  9.75664E+03
 -4.15431E+03  7.97145E+03 -2.44990E+03 -3.33978E+03  2.75299E+03 -2.34238E+03  6.91869E+03  8.47119E+02
  3.56048E+03  1.23893E+03  3.43509E+02  8.76434E+03 -4.86048E+03  6.92331E+03 -1.13863E+04  3.34010E+03
 -7.72885E+03 -4.91051E+03  1.70967E+03 -9.18599E+03  3.71221E+03 -1.46359E+03  3.65622E+03  2.16392E+03
  3.92468E+03  4.61423E+03 -3.92861E+03  8.85757E+03 -7.17057E+03  9.96658E+03 -5.21546E+03  4.05557E+03
 -6.37559E+03 -6.83656E+03  1.11941E+03 -1.00089E+04  8.29187E+03 -4.59123E+03  2.73509E+03  2.64034E+03
  4.78478E+03  7.79113E+03 -2.63730E+03  7.13870E+03 -4.98484E+03  4.48160E+03 -7.88559E+03  3.11251E+03
 -2.21321E+03 -7.19986E+03 -2.88943E+03 -4.28507E+03  3.25787E+03 -7.15194E+03  2.17429E+03  1.37751E+03
  6.92294E+03  1.51886E+03 -2.85304E+02  5.43860E+02  3.04608E+02  1.51459E+03 -3.70426E+03  2.52299E+03
  5.51510E+03 -5.89402E+03  6.58335E+03  2.80269E+03  5.77414E+03  5.43744E+03  2.84189E+03  8.86204E+03
 -2.27083E+03  1.23584E+04 -9.95392E+03  7.88701E+03 -9.90371E+03  2.63945E+03 -1.01509E+04 -4.16406E+03
 -1.19030E+04 -6.32811E+03 -2.10215E+03 -6.76986E+03  7.43464E+03 -3.64745E+03  3.38789E+03 -1.33456E+03
  6.15761E+02 -4.61631E+03  3.84709E+03  1.10457E+03  2.08228E+03 -5.83317E+02  2.83854E+03 -2.72100E+03
  1.57246E+03  1.52469E+03 -2.49851E+03  2.45404E+03 -7.38868E+03  4.90961E+03 -5.79538E+03  1.28960E+03
 -5.19926E+03  1.58293E+03  3.51321E+03 -4.37476E+03  1.22753E+03 -6.88661E+03  1.30721E+03 -3.54633E+03
  7.14391E+03 -1.65578E+03  7.28410E+03 -2.10006E+03  8.94929E+03  5.92979E+03  2.68999E+03  5.34845E+03
 -3.65555E+03  6.94332E+03 -5.09534E+03  4.75100E+03 -4.16235E+03  4.82799E+03 -3.22989E+03 -1.50407E+03
  6.62537E+02  1.48091E+03  1.53846E+03 -5.42663E+02 -4.33201E+03 -1.56771E+02 -6.82461E+03  5.37744E+03
  2.47421E+03 -2.48613E+03  2.35847E+03 -5.82785E+03  3.08876E+03 -7.74875E+03  4.32170E+03  1.92409E+00
  4.30211E+03  1.48029E+03  3.66442E+03  6.47927E+03 -1.19386E+03  3.21434E+03 -5.15693E+03  4.91517E+03
 -5.82235E+03  1.80829E+03 -3.41340E+03 -3.42047E+03  3.93970E+01 -1.76298E+03 -2.39412E+03 -6.24980E+03
 -8.69721E+02  3.11718E+02 -1.28841E+03  2.56821E+03 -6.05438E+02  4.96871E+03  1.52585E+03 -1.27005E+03
  6.36175E+02  2.42149E+01 -4.33147E+03  2.98647E+03  1.45750E+03  1.07745E+03  5.01607E+03  2.47003E+03
 -1.82440E+03  1.96094E+03 -6.47611E+03  4.89579E+03 -5.89233E+03  9.97792E+02 -2.32632E+03  3.06503E+02
 -2.80942E+03 -4.64477E+03 -2.05348E+03 -7.50903E+03  2.76044E+03 -4.06012E+02  4.98057E+03 -1.96514E+03
  4.07496E+03  7.19139E+02 -4.03486E+02  2.60457E+03  3.09695E+03  3.93695E+03 -3.44125E+03  2.29359E+03
  2.40670E+03 -2.28860E+03  2.56491E+03  4.64896E+01 -4.07630E+03 -1.88804E+03  6.76389E+02  5.49619E+02
  3.14455E+03 -4.67133E+02  4.83299E+03  9.23676E+01 -3.07949E+02  7.29189E+02 -8.17531E+02  1.54869E+03
  3.23481E+03  9.59791E+02  7.38748E+01  2.16952E+03 -1.75596E+03  1.28595E+03 -4.57058E+03 -1.89762E+03
 -3.79815E+03 -3.77190E+02 -7.58958E+02 -2.48414E+03 -2.49288E+03  2.64879E+03  2.37145E+03  1.19578E+03
  5.47616E+00 -1.41672E+03 -9.97902E+02  1.80361E+03  1.08935E+03  4.43115E+03 -4.43009E+03  2.91114E+03
  1.63002E+03  4.66336E+03 -4.95088E+03 -2.59421E+03 -2.84429E+03 -4.62109E+03  1.88981E+03 -1.66198E+03
 -8.32403E+01  4.77720E+03  4.91102E+03  2.89671E+03  2.43246E+03 -2.71396E+00  5.92548E+02  3.15528E+03
 -5.53278E+03  5.71885E+03 -4.58208E+03 -2.36902E+03  2.30276E+03  9.45391E+02  1.10890E+03 -5.09659E+03
  2.71718E+03  3.16800E+03 -2.45335E+03  5.09043E+03  4.42249E+03  3.93625E+03 -3.47464E+02  5.28317E+03
 -3.99117E+02  1.99607E+03 -1.09180E+02 -1.32243E+03 -2.09030E+03  6.73454E+02  4.36269E+03 -4.66738E+02
  2.28367E+03  5.30998E+00  8.90053E+02  4.35147E+03  8.49739E+02  2.48164E+03 -1.25842E+03  3.68462E+03
 -1.90077E+03  2.86776E+01  3.70192E+03 -1.68194E+02  3.21998E+02  1.17360E+03  1.91770E+03 -3.27322E+02
  2.04279E+03  1.98179E+03 -7.06767E+03 -1.63737E+02 -2.80036E+02  1.83224E+03 -1.10546E+03  8.25046E+02
 -1.10204E+03  1.02416E+03  4.54396E+02 -3.21517E+03  8.86202E+02  7.52237E+02  2.69699E+03  2.73125E+03
  3.55692E+03  3.54713E+03 -6.30744E+01  3.11311E+03 -1.81318E+03  3.83918E+03 -2.71010E+03 -5.17134E+02
 -2.50180E+03  1.30759E+01  2.23614E+02 -2.49931E+03 -2.96506E+03  5.79971E+02 -5.28215E+03  1.72956E+03
 -1.73422E+03 -4.90551E+03  1.18887E+03  1.01740E+03  8.78966E+02  5.50057E+02 -3.74896E+03  3.38205E+03
  1.24800E+03 -3.97228E+03  2.68578E+03 -3.19019E+03 -1.48572E+02  3.53653E+03 -4.27862E+02 -3.24926E+02
 -1.12114E+03  3.23911E+03  1.65804E+01  9.39033E+02  1.91643E+03 -1.41673E+03 -4.06365E+02 -6.61849E+03
  5.98217E+02 -4.82968E+03  4.01221E+02 -9.22508E+02  3.29520E+03  2.21485E+03 -2.30000E+03 -4.45732E+03
  4.73998E+02  1.85625E+03 -3.19047E+03 -1.52742E+03  4.85241E+02  3.92559E+02  4.30619E+02  5.32500E+02
 -4.30847E+03 -2.15465E+03 -7.77085E+02 -1.56925E+03  3.65700E+02  6.97035E+02  1.64823E+03 -1.23307E+03
 -1.67528E+03 -1.52995E+03 -7.62787E+02  6.56388E+02 -1.28583E+03 -1.13191E+03  4.30798E+02 -1.85171E+03
  1.05752E+03 -3.75875E+03 -1.84352E+03 -2.35556E+03 -3.15532E+03 -3.94549E+03 -2.39318E+02  9.11765E+02
 -8.72950E+02 -7.49936E+02  6.53225E+02 -7.41652E+02  3.71988E+03 -1.45061E+03  2.91520E+02  1.41001E+03
 -4.06451E+03  4.50192E+02  1.24633E+03  5.85621E+02  1.66253E+03  5.09237E+03  1.94133E+03 -5.82252E+03
 -4.26415E+02  2.37970E+03 -2.91252E+03 -3.92573E+03 -1.89464E+03 -5.00487E+03  1.73556E+03 -5.02334E+03
 -9.57034E+02  2.32969E+03  5.55308E+01 -5.51326E+02 -3.07885E+03  2.26951E+03 -1.63967E+03  4.18986E+03
