 $NMID ID='MM_0lb_SNR50_16hz_g50_18.RAW', FMTDAT='(8E13.5)'
 TRAMP=1., VOLUME=1. $END
  3.11778E+05  4.45011E+03  3.33000E+05  2.54847E+05  8.61590E+04  3.41074E+05 -1.34097E+05  2.51611E+05
 -1.87602E+05  8.19447E+04 -1.16329E+05 -3.27707E+04  3.27865E+03 -5.19924E+04  4.81441E+04  1.03832E+03
  3.91320E+04  5.24854E+04 -1.90227E+04  7.54839E+04 -5.47995E+04  6.17947E+04 -8.55787E+04  2.90951E+04
 -7.97909E+04 -1.14053E+04 -5.88049E+04 -5.18096E+04 -1.98635E+04 -6.76507E+04  2.92818E+04 -5.12814E+04
  4.72095E+04 -5.78930E+02  1.28527E+04  4.88942E+04 -3.34668E+04  4.65392E+04 -6.40176E+04 -2.44283E+03
 -5.27926E+04 -5.10295E+04 -3.39137E+03 -7.75584E+04  3.08160E+04 -4.94677E+04  4.77170E+04 -2.05351E+04
  4.38628E+04  1.42791E+04  3.24494E+04  2.24902E+04  1.44538E+04  3.12122E+04 -1.10550E+04  2.70659E+04
 -2.00270E+04  1.64702E+04 -1.85954E+04 -4.94803E+03  3.86590E+03 -4.82718E+03  2.16194E+04  8.94536E+03
  6.06984E+03  3.28458E+04 -2.92688E+04  3.76581E+04 -6.24806E+04  5.15787E+03 -5.54352E+04 -4.25026E+04
 -1.30350E+04 -5.94833E+04  3.96755E+04 -4.41015E+04  5.69688E+04 -8.80170E+02  3.34461E+04  3.90619E+04
 -7.11639E+03  3.63856E+04 -3.20592E+04  1.72817E+04 -2.97257E+04 -4.82442E+03 -1.83691E+04 -1.20436E+04
 -1.36933E+04 -1.03594E+04  1.90015E+02 -1.62690E+04  4.89609E+03 -2.00002E+04  1.53921E+04 -1.39983E+04
  1.14420E+04  7.48638E+03 -7.59866E+03  2.15250E+04 -1.51160E+04 -2.55177E+03 -9.03780E+03 -3.18617E+04
  2.18712E+04 -4.16239E+04  4.75740E+04 -2.09474E+04  4.61630E+04  2.27189E+04  1.48590E+04  4.48885E+04
 -1.33385E+04  3.24124E+04 -2.22757E+04  7.45098E+03 -6.90206E+03 -2.86750E+04  2.01032E+04 -3.23261E+04
  3.87446E+04 -8.53969E+03  3.34637E+04  2.32484E+04  1.55447E+04  4.18799E+04 -1.04280E+04  4.47377E+04
 -3.30368E+04  2.97163E+04 -4.06313E+04  9.26600E+03 -4.30043E+04 -1.79351E+04 -1.93842E+04 -3.88781E+04
  1.18445E+04 -3.25038E+04  2.45458E+04 -1.29403E+04  2.93517E+04  1.16651E+04  7.97896E+03  1.68595E+04
 -1.27868E+04  4.59431E+03 -1.13003E+04 -4.66819E+03  7.44806E+03 -9.73923E+03  1.77158E+04  2.30738E+03
  1.18381E+04  2.44699E+04 -6.55627E+03  2.76251E+04 -2.08894E+04  5.88340E+03 -2.71048E+04 -6.79834E+03
 -1.57907E+04 -1.99517E+04 -5.63536E+03 -1.48138E+04  5.80343E+03 -1.75220E+04  1.45146E+04 -1.31452E+04
  2.26327E+04 -1.00149E+04  2.74487E+04  3.57457E+03  2.33084E+04  1.84486E+04  2.66895E+03  3.36013E+04
 -1.75059E+04  2.89306E+04 -2.69138E+04  7.88350E+03 -2.15884E+04 -1.17287E+04 -5.48202E+03 -1.06856E+04
  2.31914E+03 -1.30593E+03 -7.81963E+03  7.77458E+03 -1.65845E+04  3.68278E+03 -1.58461E+04 -7.87045E+03
 -3.55275E+03 -1.91266E+04  3.68460E+03 -1.80505E+04  1.16490E+04 -1.52402E+04  1.65749E+04 -4.97411E+03
  1.28391E+04  1.30308E+04  6.80091E+02  1.45631E+04 -1.19432E+04  1.07287E+04 -2.18578E+04 -3.82915E+03
 -1.30847E+04 -1.24750E+04 -4.59094E+03 -2.35796E+04  7.13385E+03 -1.86937E+04  1.85875E+04 -2.20941E+03
  1.63160E+04 -1.98163E+01  9.92569E+03  6.17337E+03  4.20611E+03 -3.31469E+03  7.71097E+03 -4.76018E+03
  1.48562E+04  5.59117E+03  1.85765E+04  1.18720E+04  1.23526E+04  3.42470E+04  1.00381E+03  2.96157E+04
 -1.93092E+04  2.60689E+04 -2.97345E+04  1.34102E+04 -2.93084E+04 -5.52639E+02 -2.64380E+04 -1.70083E+04
 -1.64122E+04 -2.69932E+04  5.69587E+03 -2.34583E+04  2.05686E+04 -1.33544E+04  1.71659E+04  2.57926E+03
  5.02613E+03  1.26523E+04 -6.33015E+03  1.18022E+04 -1.41667E+04  1.48042E+03 -1.04306E+04 -1.05226E+04
 -9.51936E+01 -1.56507E+04  4.39612E+03 -1.12422E+04  1.00138E+04 -3.04677E+02 -1.94662E+02  9.34160E+03
 -5.21421E+03  5.49671E+03 -6.61841E+03 -2.79753E+03 -4.49304E+03 -1.02613E+04  1.21746E+04 -1.64399E+04
  1.41577E+04 -6.93228E+03  1.34790E+04  1.36785E+03  1.20100E+04  1.15151E+04  6.98077E+03  2.27788E+04
 -6.04020E+03  1.87180E+04 -1.38538E+04  1.00968E+04 -1.43155E+04  8.27863E+03 -9.44325E+03 -5.54595E+03
 -1.30417E+03 -1.55277E+03  4.76042E+03 -2.38130E+02 -2.70219E+03 -1.02805E+03 -3.16773E+03  3.33549E+03
 -6.06565E+03 -3.81373E+03 -1.07227E+04 -7.46036E+03 -3.27510E+03 -1.59187E+04  2.40577E+03 -6.79407E+03
  1.18657E+04 -4.23437E+03  5.59411E+03  2.55772E+03 -6.40361E+02  1.92939E+03 -4.64668E+03  1.61801E+03
 -2.16138E+03 -9.29230E+03  5.97983E+02 -9.85496E+03  2.52860E+02 -1.12463E+04  7.63104E+03 -1.36987E+03
  1.18286E+04 -1.15364E+03  7.67419E+03  8.19087E+03 -1.59241E+03  1.15641E+04 -8.68097E+03  4.57230E+03
 -5.00879E+03 -3.56270E+02 -5.43444E+03 -2.07548E+03  3.11289E+03 -1.13751E+03  6.22336E+03 -2.74806E+03
  1.08764E+04  5.84033E+03  5.86857E+03  8.24829E+03 -2.18578E+03  3.33278E+03 -8.70807E+03  1.90670E+03
 -6.21769E+03 -7.60830E+02  2.23874E+03 -3.08341E+03  6.85600E+03 -8.44938E+03  5.00688E+03  1.10109E+03
  2.59763E+03  4.88388E+02 -5.38425E+03  3.61171E+03 -5.81437E+03  9.86892E+02 -1.14943E+04 -1.62486E+03
 -4.92276E+03 -6.16255E+03  7.39056E+03 -7.84334E+03  1.00396E+04 -7.80962E+03  6.74659E+03  1.05531E+03
  7.31947E+03  6.10025E+03  4.99935E+03  9.68469E+03 -8.36377E+03  5.51835E+03 -8.59551E+03 -2.87944E+03
 -5.42096E+03 -7.43847E+03  3.65467E+02 -4.53416E+03  7.08053E+03 -7.05298E+03  3.89314E+02 -6.42146E+02
 -2.44176E+03  4.73888E+03  1.38589E+03 -1.63490E+03  5.01860E+02 -2.06966E+03  3.79497E+03 -2.53171E+03
  6.63055E+03  2.68766E+03  9.46560E+03  1.97348E+03  1.05422E+04  8.03541E+03  9.31299E+03  1.07201E+04
 -3.31340E+03  1.21517E+04 -1.31278E+04  6.24253E+03 -1.24584E+04 -1.66450E+03 -1.34319E+04 -6.20676E+03
 -4.87663E+03 -6.68683E+03 -3.22616E+03 -7.86366E+03  3.14617E+03 -1.00287E+03  2.62268E+01 -4.33025E+03
  1.34299E+03 -2.19826E+03  2.50647E+03 -1.30641E+03  3.27322E+03 -1.81844E+03  5.31847E+03 -1.61069E+03
  9.06912E+03  2.26508E+03  8.20816E+03  1.41712E+03 -8.84507E+02  2.68020E+03 -1.98058E+03  3.09857E+03
 -6.73004E+03 -2.60058E+03 -3.64468E+03 -8.26167E+03  2.59835E+03 -6.59849E+03  2.93281E+03 -7.83378E+03
  6.60353E+03 -5.26831E+03  1.37121E+04  3.85500E+03  5.40488E+03  3.68998E+03  1.29736E+03  1.11696E+04
  1.11814E+03  6.74855E+03 -2.41172E+03  1.32390E+03 -1.80352E+03 -7.55185E+02 -6.22017E+03  3.85985E+03
  1.78146E+03  2.84219E+03 -8.67202E+02  2.83845E+03 -1.25003E+03  3.73171E+03  3.08809E+02  5.54189E+02
 -2.67906E+03 -5.80679E+03  4.79679E+03 -7.59862E+03  4.63626E+03 -3.75499E+03  2.23234E+03 -1.70140E+03
  5.30046E+03  1.16634E+03  3.22221E+03  9.23910E+03  3.72347E+03  5.27753E+03 -6.40544E+03 -1.84838E+01
 -6.71263E+03 -1.84429E+03 -6.62686E+03 -4.82826E+03  4.02693E+03 -1.52753E+03  5.14748E+03 -6.04403E+03
  4.41574E+03 -4.01075E+02 -9.78156E+02  3.14737E+03  1.50327E+01 -5.52148E+03  2.63488E+03 -1.19022E+03
 -2.39682E+03  5.25906E+02  3.60285E+03  1.36927E+03  5.44555E+03  6.32339E+03  1.36824E+03  2.81004E+03
 -3.63768E+03  5.15311E+03 -2.90964E+03  6.39077E+03 -6.93820E+03 -3.66565E+03 -5.25818E+03 -2.42291E+03
 -7.24915E+03 -5.47806E+03 -1.27838E+03 -1.28341E+03  1.53016E+03 -7.22547E+02  2.37442E+03  4.83051E+02
  4.86045E+03  1.41426E+03  2.25590E+03  6.57409E+03 -1.51722E+03  3.47815E+03 -3.68889E+03 -2.00732E+03
 -2.92455E+03  1.77469E+03  2.96936E+03 -5.30718E+03  7.35091E+03  1.31060E+03  5.98018E+03  1.46970E+03
 -4.81569E+02  1.08255E+03 -2.08468E+03 -2.18578E+01  5.31785E+02  3.13247E+03  4.45026E+03  1.15168E+03
 -1.28905E+03 -1.86164E+03 -2.23337E+03  1.58104E+03  1.86664E+03  1.12172E+03 -2.76418E+03  4.71472E+03
 -2.98466E+03  1.34962E+03 -7.96925E+03  4.84049E+03 -2.23705E+03 -2.56795E+02  8.87057E+02  9.29965E+02
 -5.27035E+02  4.27972E+01  5.08440E+03  2.39574E+02  8.42151E+02  2.53919E+03 -4.74149E+03  4.33362E+03
 -5.12528E+03 -9.18211E+02 -4.13888E+00 -5.48460E+02 -5.25958E+03 -2.12022E+03  1.09566E+03  1.33588E+03
  1.72169E+03  1.31266E+03  5.08143E+03 -1.18013E+02  6.64415E+01 -3.31576E+02  1.69849E+03  4.18407E+03
 -2.61674E+03  2.81041E+03  3.09571E+03 -2.32964E+03  4.39522E+02 -5.97857E+02  7.58335E+03 -3.78237E+03
  2.69044E+03  1.77808E+03  2.57561E+03  5.36150E+02  1.27165E+02  2.74269E+03 -2.95486E+03  4.50221E+03
 -2.89067E+03  3.02547E+03  4.79161E+03  1.34452E+03 -2.86195E+03  6.54811E+02  3.89101E+01 -2.36135E+03
  3.88923E+03 -2.21289E+03  5.97295E+03  2.84945E+03 -8.92629E+02 -1.50044E+03 -2.93291E+03  2.14192E+03
 -1.06200E+03  1.90664E+03 -1.69124E+03  1.52148E+03  2.78477E+03 -5.26627E+02 -3.97644E+03  3.55642E+03
 -9.88803E+03  3.86377E+03 -4.25517E+03  2.08804E+03 -5.03232E+03  1.48084E+03 -2.23280E+03  2.55148E+03
 -1.54428E+03 -3.81690E+02 -2.97049E+03 -6.55254E+03  5.05394E+02 -2.64967E+03  4.14803E+03 -2.14943E+03
  6.62074E+03  4.48027E+03 -3.75721E+02  2.41385E+03 -2.88359E+02  2.39012E+03 -3.11228E+02  4.04761E+03
 -3.32841E+03  8.57182E+02  2.34904E+03  1.73919E+03 -8.15943E+02 -3.08583E+03 -2.67641E+03  1.54484E+01
  2.51324E+03  2.33473E+03 -5.80192E+03 -2.52598E+02  8.46250E+02  1.47372E+03 -2.96444E+03 -1.15933E+03
 -1.32512E+03  2.70694E+03  1.08449E+03 -4.89826E+02 -2.15394E+03  2.36406E+03 -1.95176E+03  1.09264E+03
 -2.56500E+03  5.75249E+03 -5.62243E+03  8.50507E+03 -3.52574E+03 -3.29213E+03 -9.49817E+01 -3.46679E+03
 -3.11551E+03  1.05570E+03  1.22247E+03  3.10551E+02  4.86637E+03 -8.24772E+02  1.19787E+03  4.26686E+03
 -2.46305E+03 -5.53246E+03 -4.06401E+03 -1.85933E+03 -5.14087E+02  1.38133E+03  1.44460E+03 -1.61409E+03
  2.06253E+03 -2.78192E+01  4.62560E+03  2.22867E+03 -2.47057E+03 -6.67229E+02  2.28917E+03  5.86212E+02
 -3.78602E+02  3.65971E+03 -7.12983E+03  3.51656E+03  6.01040E+02 -4.45915E+03  1.17215E+03 -2.06248E+03
  4.33073E+03 -4.71391E+03  1.01994E+03  4.72186E+03  3.64075E+03  1.93288E+03  4.94739E+03  3.51028E+02
  2.97973E+03 -2.13828E+03  1.19610E+03  1.69577E+03 -2.00668E+03 -1.60743E+03 -8.75294E+02  2.85105E+03
 -2.24731E+03  1.95874E+03 -8.60311E+02  3.54578E+03  6.17180E+02  1.63755E+03 -6.13140E+03  4.92120E+02
  2.37559E+03 -1.95190E+03 -3.62825E+03 -1.30032E+03  4.01274E+03 -2.32480E+03  9.77486E+02 -2.15578E+03
 -1.77224E+03  1.67607E+03 -3.54725E+03 -2.43413E+03 -6.56131E+02 -4.09727E+03 -1.20104E+03 -1.62281E+03
