 $NMID ID='MM_0lb_SNR50_18hz_g40_31.RAW', FMTDAT='(8E13.5)'
 TRAMP=1., VOLUME=1. $END
  3.05661E+05  8.37158E+02  3.41733E+05  2.50015E+05  8.59885E+04  3.37157E+05 -1.34315E+05  2.47576E+05
 -1.88090E+05  8.35460E+04 -1.15379E+05 -3.14053E+04 -1.27612E+03 -5.06110E+04  5.35980E+04 -8.22561E+02
  3.44065E+04  5.33156E+04 -1.80419E+04  7.76202E+04 -5.58855E+04  6.64296E+04 -8.26711E+04  2.99599E+04
 -7.86833E+04 -1.03174E+04 -5.41330E+04 -4.88772E+04 -1.51003E+04 -6.98047E+04  2.49500E+04 -4.22446E+04
  3.73669E+04  2.43189E+03  1.58588E+04  4.44709E+04 -2.74896E+04  3.81795E+04 -6.92578E+04 -4.41618E+02
 -5.12001E+04 -5.68671E+04 -5.48357E+03 -7.56988E+04  2.99819E+04 -5.60439E+04  4.58118E+04 -1.62483E+04
  3.83392E+04  7.86674E+03  3.40692E+04  2.90630E+04  1.92474E+04  3.12017E+04 -4.89546E+03  2.88778E+04
 -2.65622E+04  1.94492E+04 -1.67957E+04 -9.89379E+02  6.40930E+03 -1.00456E+04  2.07971E+04  1.11104E+04
  4.04824E+03  3.33067E+04 -2.91800E+04  3.69789E+04 -5.66969E+04  1.21730E+03 -5.51791E+04 -3.91473E+04
 -1.36071E+04 -6.42864E+04  4.08702E+04 -4.40850E+04  6.05359E+04 -1.14485E+03  3.34354E+04  2.93439E+04
 -9.09029E+03  3.38820E+04 -3.37182E+04  1.27514E+04 -2.59828E+04 -4.55165E+03 -1.63053E+04 -5.16345E+03
 -1.02131E+04 -1.56353E+04 -2.99077E+03 -1.87467E+04  6.29193E+03 -1.74714E+04  1.38909E+04 -1.80492E+04
  1.24991E+04  4.45519E+03 -6.84544E+03  1.11188E+04 -1.67735E+04  1.50920E+03 -9.23070E+03 -2.80948E+04
  2.03488E+04 -4.09548E+04  4.26689E+04 -1.58532E+04  4.48160E+04  1.79844E+04  1.31232E+04  4.20811E+04
 -1.35754E+04  3.26246E+04 -2.39001E+04  2.29332E+03 -7.72653E+03 -2.52086E+04  2.05655E+04 -2.74539E+04
  3.34732E+04 -8.46617E+03  2.98711E+04  2.39600E+04  1.53023E+04  4.23271E+04 -6.70543E+03  4.33378E+04
 -3.14365E+04  3.08256E+04 -3.56970E+04  7.13700E+03 -3.81558E+04 -1.41467E+04 -2.20152E+04 -3.67398E+04
  9.75624E+03 -3.72774E+04  2.77649E+04 -1.12995E+04  2.43653E+04  7.79854E+03  6.47215E+03  1.52087E+04
 -1.86964E+04  6.38116E+03 -4.29845E+03 -1.58879E+04  5.03403E+03 -9.68425E+03  1.46100E+04  7.82691E+03
  9.72797E+03  1.79236E+04 -7.08160E+03  2.24040E+04 -1.92369E+04  5.54863E+03 -2.15913E+04 -5.37739E+03
 -1.50423E+04 -1.58312E+04 -2.86805E+03 -1.43240E+04  7.99134E+03 -1.36451E+04  1.60669E+04 -1.59224E+04
  2.01616E+04 -9.33405E+03  3.19850E+04 -2.14220E+03  2.33090E+04  1.72424E+04  7.83405E+03  3.05728E+04
 -1.69194E+04  2.26453E+04 -2.67975E+04  9.28589E+03 -2.10696E+04 -7.41825E+03 -5.05514E+03 -1.34799E+04
  3.73837E+03 -9.10776E+02 -3.34789E+03  2.39516E+03 -1.28049E+04  5.54575E+03 -1.43116E+04 -4.78710E+03
 -1.09105E+04 -1.48590E+04  5.97814E+03 -1.53236E+04  8.24548E+03 -1.72471E+04  1.53461E+04 -2.97324E+03
  1.41216E+04  1.16909E+04 -4.75639E+03  1.54623E+04 -9.39971E+03  9.27073E+03 -1.75564E+04 -3.35057E+03
 -8.90079E+03 -1.67674E+04 -3.59985E+03 -2.28919E+04  9.33903E+03 -1.43837E+04  1.70081E+04 -4.41883E+03
  1.08837E+04  2.80237E+03  1.35380E+04  3.61094E+03  3.99889E+03  5.08680E+03  7.40691E+03 -5.06522E+03
  1.37187E+04  2.64899E+03  1.74339E+04  1.60288E+04  1.00220E+04  2.47932E+04 -4.32853E+03  2.50507E+04
 -1.59735E+04  1.75449E+04 -2.51087E+04  3.55807E+03 -2.21591E+04 -2.67638E+03 -2.23269E+04 -1.62511E+04
 -1.08244E+04 -2.18450E+04  7.58567E+03 -1.92396E+04  1.56081E+04 -8.86407E+03  1.87581E+04  9.03333E+02
  5.61771E+03  1.24218E+04 -8.29359E+03  9.80868E+03 -1.20682E+04  2.79824E+03 -9.18966E+03 -7.87086E+03
 -2.64688E+03 -1.48184E+04  8.35548E+03 -9.81946E+03  7.67105E+03 -5.30664E+03  2.50014E+03  4.01299E+03
 -4.08455E+03  1.07442E+03 -5.51112E+03 -4.79159E+03 -4.08686E+02 -8.18526E+03  1.04092E+04 -9.89295E+03
  1.12314E+04 -4.00245E+03  1.35256E+04  1.30966E+02  4.31176E+03  9.29160E+03  5.27975E+03  1.35474E+04
  1.57495E+03  1.39253E+04 -1.00451E+04  5.01790E+03 -1.14725E+04 -1.86512E+03 -9.78574E+03 -2.66308E+03
 -7.77859E+03 -1.01198E+03 -2.51621E+03  4.60284E+03 -1.76105E+03  5.22100E+02 -1.40700E+03  5.29557E+03
 -6.70824E+03 -4.20668E+03 -9.89923E+03 -8.21610E+03 -4.33710E+03 -1.33484E+04  2.42409E+03 -5.84662E+03
  6.46813E+03 -2.90237E+03  9.85044E+03  4.21065E+03  3.87251E+03  4.69434E+02 -4.71751E+03  2.33014E+03
 -5.04638E+03 -2.94949E+03 -6.93892E+02 -7.20068E+03  3.51826E+03 -6.71919E+03  5.70927E+03 -5.24169E+03
  1.43975E+04  2.13946E+03  3.33456E+03  4.17044E+03  9.57490E+02  7.32989E+03 -9.08356E+03  1.04932E+04
 -4.27236E+03  7.79282E+03 -2.80621E+03 -4.82022E+02  4.05143E+03 -5.66451E+02  6.33401E+03 -1.43622E+03
  3.00386E+03  1.25020E+03  8.39632E+02  2.80989E+03 -3.36896E+03  5.55240E+03 -4.38575E+03 -1.11661E+03
 -6.32981E+03 -2.83776E+03 -3.52492E+03 -1.37009E+04  4.73353E+03 -3.93000E+03  3.07905E+03  1.78845E+03
 -3.03349E+02  6.21810E+02 -4.92826E+03  6.50939E+03 -5.14684E+03  4.80885E+03 -6.03591E+03 -1.12404E+03
 -2.06726E+03 -7.40328E+03 -3.80450E+02 -3.59290E+03  4.10889E+03 -5.04941E+03  9.66913E+03  1.74370E+03
  1.96191E+03  6.94192E+03 -9.89591E+02  3.97842E+03 -5.38009E+03  7.46470E+03 -2.47717E+03  1.18143E+03
 -3.75581E+03 -4.61718E+03 -7.54459E+03 -3.96486E+03  1.94488E+03 -3.73400E+03  2.09136E+03 -4.36551E+03
  6.32505E+03 -1.45008E+02  2.91119E+03  3.93397E+03  4.95972E+03  3.64141E+03  1.38404E+03  3.59272E+03
  4.39312E+03 -2.50878E+03  9.62645E+03  6.46790E+02  6.49565E+03  8.55789E+02  6.99252E+03  5.22471E+03
 -4.82586E+02  7.00065E+03 -6.57764E+03  3.57637E+03 -4.47456E+03  8.75683E+03 -1.02506E+04 -2.79465E+03
 -6.58401E+03 -8.28801E+03 -3.90536E+03 -6.62884E+03  4.84061E+03 -1.91751E+03  1.24235E+03  3.83045E+02
  2.53664E+02  1.60202E+02  6.17191E+03 -2.37859E+03  3.76788E+03 -1.24340E+03  2.69771E+03  5.00270E+03
  2.96490E+03  1.35189E+03  3.08483E+03  4.28469E+02 -1.50597E+03  4.61847E+03 -5.69824E+03  9.12899E+02
 -2.91724E+03 -2.93895E+02 -3.35879E+02 -3.78462E+03  5.80092E+02 -7.18415E+03  4.05339E+03 -4.62404E+03
  2.08549E+03 -5.37559E+03  4.07643E+03  2.93688E+03  8.15477E+03  5.61195E+03 -2.33872E+02  5.25097E+03
 -3.39334E+03  6.79003E+03 -3.74864E+03  2.26078E+03 -1.85770E+03 -3.08980E+03 -1.66850E+02  1.13806E+03
  4.18447E+03  2.03365E+03  6.96592E+02  6.58815E+02  5.72700E+02  1.94676E+03 -6.33297E+03  1.33870E+03
 -7.65671E+03 -3.05267E+03  2.98822E+03 -6.88023E+03  1.72123E+03 -6.42947E+03  3.77423E+03  4.46450E+02
  5.34468E+03  4.39020E+03  2.08353E+03  9.05534E+03 -7.04978E+02  1.81491E+03 -2.23338E+03  1.51163E+03
 -2.84549E+03 -3.01626E+03 -2.53158E+03 -2.24092E+03  8.74604E+02 -3.56842E+03 -1.06245E+03 -2.84501E+03
  4.16603E+03 -3.17873E+03 -2.17620E+03  3.29307E+03 -3.16004E+01  2.91201E+03 -2.38430E+02  1.63467E+03
 -1.46928E+03 -7.21590E+02  4.81394E+03 -3.32552E+03  6.82678E+02  6.01286E+03  1.97781E+03  4.33810E+03
  5.34808E+02  2.59398E+03 -1.09390E+03  1.96436E+03 -6.72236E+02 -1.57663E+03 -2.60581E+02  1.35187E+03
 -3.44423E+03 -5.27440E+01 -1.85858E+03 -2.36616E+03 -3.01407E+02 -3.74262E+03  6.92981E+03  5.13895E+02
  7.22747E+03  2.20633E+03 -1.22922E+03  3.78295E+03 -5.51068E+03  6.17387E+02  2.62182E+03  1.23481E+03
  3.09370E+03  5.22682E+03 -1.43507E+03  5.08007E+02  2.69090E+03 -1.48101E+02 -1.97902E+03 -1.38114E+03
  5.62598E+03  1.49141E+03  3.57793E+03 -1.78513E+02  3.76662E+03  4.02541E+03  7.59298E+02 -9.09540E+02
 -4.29683E+02 -4.49137E+02  4.55407E+03 -1.96012E+03 -2.08455E+03 -1.99351E+03  1.18444E+03  1.61742E+03
 -1.97074E+03 -9.56646E+02 -7.94976E+02  1.05827E+01 -5.80339E+03  1.30047E+03 -7.49732E+02  1.23408E+03
  1.63675E+03  7.10992E+02  2.32131E+03 -7.05247E+01 -2.15273E+03  4.74522E+02 -1.56177E+03  1.56922E+03
 -1.91071E+03 -1.30078E+03 -3.25983E+03  1.91770E+03  2.86930E+02 -3.64062E+03  1.68582E+02 -4.04175E+03
 -1.71060E+03  1.82366E+03 -2.05792E+03 -1.96956E+03  1.67870E+03 -2.48338E+03  1.00736E+03 -8.07846E+02
  3.62003E+03 -3.09304E+03  4.57893E+03 -2.83640E+03 -4.53789E+02  1.68298E+03 -1.28405E+03  1.26025E+03
  3.00639E+03 -4.84489E+03 -2.81785E+02  4.07537E+03  4.66738E+02  3.14430E+02 -9.17944E+02 -2.55874E+03
  1.00469E+03 -1.71337E+03  3.79747E+03 -2.62875E+03 -1.58140E+03 -5.71520E+02 -2.02463E+03 -1.56670E+03
  6.32933E+03  6.52825E+02 -1.40961E+03 -2.90586E+03 -3.33303E+03 -3.56006E+03 -2.75882E+02 -5.34988E+03
 -4.79960E+02  6.80439E+02 -8.52569E+02  2.29122E+03 -9.12779E+02  2.25428E+03 -2.44211E+03 -1.83659E+02
  2.47965E+03  2.79424E+03 -3.55369E+03  4.81623E+03  1.33231E+03  3.10477E+03 -1.37071E+03  1.30847E+03
 -1.59027E+03 -3.91746E+02 -1.36803E+03 -2.31822E+03  1.46379E+03 -3.16141E+02  1.79712E+03 -4.24215E+03
  4.74511E+03  2.98186E+03  1.08883E+03  3.09291E+03  4.10295E+02 -4.90063E+02 -2.84896E+03  3.87685E+03
 -3.98160E+03  4.72762E+03  1.64817E+03  3.65028E+03 -3.66202E+03 -2.10050E+03 -4.06176E+03 -3.60938E+03
  1.07121E+03  2.00364E+03 -5.41894E+03  6.27498E+02 -2.74218E+03 -5.92269E+03 -1.42004E+03 -4.45803E+02
 -2.58749E+03 -4.15093E+03 -2.45115E+03 -7.72743E+02  1.78505E+03  1.23831E+03  2.33581E+01  1.94921E+03
 -3.06888E+03  3.94870E+03 -2.10746E+03  2.99854E+03  1.06618E+02  4.48166E+02 -2.64925E+02 -5.39543E+03
  4.30388E+03  4.88038E+03 -6.97172E+02  2.09292E+03  2.01070E+03  1.78934E+03 -1.95763E+03 -7.24973E+02
  2.55304E+03 -2.35621E+03  7.16656E+02  5.41658E+03 -1.60661E+03 -6.17445E+02 -2.46820E+03 -4.48725E+03
 -1.52531E+03 -4.17386E+03  9.21360E+02 -9.89572E+02 -4.42320E+02 -1.30312E+03  1.55327E+03 -1.96754E+03
 -2.97956E+03 -2.97522E+03 -3.89338E+02 -3.88735E+02 -1.82296E+03 -1.07334E+03  3.03919E+02 -2.71849E+03
  2.47461E+03 -6.81107E+03 -2.37578E+03  1.84013E+03  2.59442E+03  6.44335E+02 -1.48998E+02  2.67926E+03
  5.04605E+03 -7.31746E+02 -8.64352E+02  1.06719E+03  3.34849E+03 -4.99965E+01 -4.65010E+03 -2.24985E+02
 -2.14713E+03  1.13338E+03 -3.03663E+03  1.74105E+03 -4.93061E+02 -3.85122E+03 -3.17392E+03 -9.13379E+02
 -3.18142E+03  6.36721E+02 -5.08802E+02 -2.11711E+03  3.11168E+03  5.35857E+02  4.15397E+02 -5.09710E+02
  6.44795E+03  3.98751E+03 -2.74562E+02  4.39760E+03  1.79283E+03  1.60522E+03 -2.67389E+02  7.48735E+02
