 $NMID ID='MM_0lb_SNR50_14hz_g45_32.RAW', FMTDAT='(8E13.5)'
 TRAMP=1., VOLUME=1. $END
  3.09130E+05  3.17068E+02  3.39593E+05  2.53540E+05  8.20721E+04  3.37291E+05 -1.32236E+05  2.50555E+05
 -1.95447E+05  8.38744E+04 -1.05700E+05 -3.38841E+04  3.30041E+02 -5.24401E+04  5.54474E+04  9.23825E+02
  3.40070E+04  5.36642E+04 -2.15693E+04  7.43712E+04 -5.93330E+04  6.81068E+04 -8.61184E+04  3.35834E+04
 -8.89466E+04 -1.28053E+04 -6.13023E+04 -5.12277E+04 -1.46083E+04 -7.54293E+04  2.61178E+04 -5.00255E+04
  3.70754E+04  4.72979E+03  1.56323E+04  4.85425E+04 -3.70438E+04  4.67449E+04 -6.78957E+04 -1.17338E+03
 -5.19983E+04 -6.03640E+04 -5.86314E+03 -7.55007E+04  3.60958E+04 -5.31328E+04  4.63742E+04 -1.86171E+04
  4.55461E+04  1.15515E+04  2.85117E+04  2.26843E+04  1.76488E+04  3.56820E+04 -4.82179E+03  3.01483E+04
 -1.87745E+04  1.09028E+04 -1.70530E+04 -5.60860E+03  8.06528E+03 -8.69389E+03  2.40721E+04  1.25911E+04
  7.71788E+03  3.61106E+04 -2.89971E+04  3.69870E+04 -6.32414E+04 -1.87128E+03 -5.78596E+04 -4.15867E+04
 -1.14860E+04 -6.48600E+04  3.99213E+04 -4.55340E+04  5.90869E+04 -8.70974E+03  3.18038E+04  3.41718E+04
 -6.49566E+03  3.67118E+04 -2.84156E+04  1.66311E+04 -3.03314E+04 -3.41746E+03 -1.77567E+04 -8.59107E+03
 -1.13334E+04 -1.42065E+04 -8.62832E+02 -1.17056E+04  5.36052E+03 -2.32318E+04  1.32829E+04 -1.36059E+04
  8.02224E+03  6.66780E+03 -1.16441E+04  1.18820E+04 -2.02507E+04 -5.82864E+03 -7.04328E+03 -3.41240E+04
  2.12000E+04 -4.49302E+04  4.99767E+04 -1.88345E+04  4.54005E+04  1.61612E+04  2.04807E+04  4.71956E+04
 -1.86560E+04  3.18505E+04 -2.64812E+04  4.11220E+03 -5.46787E+03 -2.27601E+04  2.29733E+04 -3.20336E+04
  4.27343E+04 -6.76337E+03  3.68750E+04  2.72573E+04  1.61292E+04  4.50531E+04 -9.84988E+03  4.91538E+04
 -3.12834E+04  3.07191E+04 -3.77875E+04  1.42004E+04 -4.27349E+04 -1.48967E+04 -2.31352E+04 -3.68497E+04
  6.04725E+03 -3.50285E+04  2.92936E+04 -1.10393E+04  3.09273E+04  4.98432E+03  4.51541E+03  2.29591E+04
 -1.60007E+04  4.49274E+03 -1.80326E+04 -9.15212E+03  7.51030E+03 -1.40071E+04  1.80016E+04  6.66362E+03
  1.33307E+04  2.97516E+04 -9.68576E+02  2.51140E+04 -2.51353E+04  7.86637E+03 -3.15003E+04 -1.91203E+03
 -1.87431E+04 -1.52963E+04 -9.70851E+03 -2.08028E+04  1.25332E+03 -2.15391E+04  1.01433E+04 -1.44157E+04
  2.65565E+04 -1.32028E+04  3.33106E+04  5.25324E+02  2.21325E+04  1.74888E+04  5.29838E+03  3.34250E+04
 -1.30851E+04  3.21225E+04 -2.23066E+04  1.11852E+04 -2.38136E+04 -1.43414E+04 -5.78289E+03 -1.09053E+04
  3.85315E+03 -3.00821E+03  1.34936E+03  7.14550E+03 -1.38674E+04  8.09656E+03 -1.82459E+04 -7.51937E+03
 -4.08069E+03 -1.98229E+04  2.66186E+03 -2.35276E+04  1.62080E+04 -1.29828E+04  1.67447E+04 -7.87443E+03
  8.26547E+03  1.16224E+04 -1.26418E+03  1.81571E+04 -1.12358E+04  1.32367E+04 -1.43491E+04 -3.03866E+03
 -1.54257E+04 -1.35867E+04 -3.64086E+03 -2.05387E+04  1.58391E+04 -1.93113E+04  1.65017E+04 -4.10592E+03
  1.72708E+04 -8.86350E+02  6.85752E+03  2.00664E+03  4.45005E+03  5.63982E+02  8.84134E+03 -4.17855E+02
  1.36824E+04  8.06054E+03  1.68228E+04  1.04842E+04  7.86624E+03  2.65742E+04 -6.36995E+03  3.52702E+04
 -1.98834E+04  2.43043E+04 -2.53232E+04  1.30805E+04 -2.87558E+04 -2.23940E+03 -2.87627E+04 -1.73498E+04
 -1.00694E+04 -2.80441E+04  1.03472E+04 -2.49068E+04  2.30482E+04 -1.27131E+04  2.09103E+04  9.60956E+03
  1.12756E+04  1.42428E+04 -1.41116E+04  1.42818E+04 -1.54013E+04  5.32473E+03 -1.68757E+04 -8.55544E+03
  1.08764E+03 -1.54101E+04  7.90101E+03 -1.12977E+04  8.79929E+03  3.15027E+02  4.40513E+03  5.63878E+03
 -6.76419E+03  5.26188E+03 -2.82601E+03 -3.51682E+03  2.56091E+03 -1.43299E+04  1.38135E+04 -1.80883E+04
  2.28423E+04 -6.53833E+03  1.32486E+04 -1.74891E+03  1.75027E+04  1.69443E+04  6.83836E+03  2.36000E+04
 -7.28330E+03  2.33570E+04 -1.93196E+04  1.24894E+04 -1.82084E+04  3.86739E+03 -1.31346E+04 -3.53128E+03
 -4.76887E+03 -2.87833E+03 -6.47719E+03  5.47088E+03 -4.13539E+03  7.98404E+03 -1.06777E+04  5.48109E+03
 -8.53997E+03 -5.52230E+03 -1.24130E+04 -6.13657E+03 -5.48007E+03 -1.43285E+04  7.41006E+03 -1.11222E+04
  1.05078E+04 -4.38954E+03  5.65650E+03 -4.02177E+03  2.25645E+03  8.67032E+03 -6.18413E+03  4.24684E+03
 -6.70525E+03 -9.99547E+03 -1.18421E+03 -1.15439E+04  5.67423E+03 -1.45170E+04  2.04655E+04 -5.58280E+03
  1.59770E+04  1.64992E+03  8.85148E+03  6.75071E+03  6.63961E+02  8.81969E+03 -9.64527E+03  8.32502E+03
 -6.09260E+03  5.53362E+01 -4.62655E+03 -7.13058E+01  4.86169E+03 -8.17501E+03  5.35684E+03  2.37946E+03
  5.96447E+03  2.81869E+03 -5.96756E+02  1.36021E+04 -1.15542E+04  6.59808E+03 -8.89145E+03  1.77324E+03
 -1.07140E+04 -3.38154E+03 -8.13898E+02 -9.96997E+03  8.46672E+03 -7.18978E+03  7.30664E+03  6.37877E+03
 -4.12043E+01  6.96026E+03 -3.18216E+01  1.13491E+04 -7.39669E+03  3.52527E+03 -1.12176E+04  2.43971E+03
 -6.41670E+03 -1.47668E+04  4.51250E+02 -9.35606E+03  5.17808E+03 -2.92487E+03  1.03269E+04 -6.62289E+01
  5.61746E+03  8.14204E+03  3.75433E+02  3.86500E+03 -5.17610E+03  4.77792E+03 -1.02774E+04  4.33563E+02
 -1.00027E+04 -7.51257E+03 -2.79262E+03 -9.41364E+03  5.60373E+03 -7.26211E+03  7.37890E+03 -1.09063E+03
  5.79912E+03 -1.53074E+03 -3.19639E+02 -1.19357E+03 -2.46311E+03 -6.36427E+03 -1.65876E+03 -7.25244E+03
  7.49832E+03 -2.56839E+03  1.00890E+04  2.83947E+03  1.05401E+04  3.90060E+03  4.35643E+03  1.10398E+04
  3.02587E+03  9.62860E+03 -9.15149E+03  1.47039E+04 -1.56063E+04  5.53058E+03 -1.62678E+04 -5.34101E+03
 -4.74909E+03 -1.30114E+04 -2.01965E+03 -1.15135E+04  8.78492E+03 -2.20113E+03  1.27980E+04 -1.10168E+03
  1.51832E+03 -1.28002E+03  2.00924E+03 -2.69465E+03  4.95425E+03 -3.54283E+03  3.29324E+03 -1.61508E+03
  7.31821E+03  8.01348E+01  5.00935E+03  3.74715E+03 -3.33978E+02  6.03674E+03 -8.28779E+03  4.19460E+03
 -1.02546E+04 -1.60226E+03 -5.45354E+02 -2.69217E+03  3.95146E+03 -1.60575E+04  7.31924E+03 -8.20489E+03
  6.83415E+03 -2.90095E+03  6.38856E+03  1.56326E+03  9.01975E+03  5.05675E+03 -1.27370E+03  1.05517E+04
 -5.62729E+03  8.87624E+03 -9.63238E+03  9.67698E+02 -3.86275E+03  4.06700E+03 -1.22846E+02 -4.99349E+03
  3.93242E+02  2.98050E+03 -4.72254E+03  4.51726E+03 -4.25485E+03 -1.35803E+03 -5.63758E+03 -4.46156E+03
 -7.99376E+03 -3.71111E+03  4.62842E+03 -6.87514E+03  3.59620E+03 -1.12033E+04  6.71795E+03 -2.94076E+03
  4.31091E+03  4.40612E+03  5.51490E+03  9.30340E+03 -2.38391E+03  1.19666E+03 -8.19734E+03  4.86509E+03
 -5.35612E+03  2.10673E+02 -4.15558E+03 -8.89877E+02 -1.54853E+03 -5.97980E+03  1.32233E+03 -3.29191E+03
  3.04426E+03  2.30299E+03  4.43522E+03 -3.62324E+03  3.94537E+03  4.35268E+03 -1.30933E+03 -6.25778E+03
  3.13628E+03 -3.54649E+03 -5.47866E+02 -4.14912E+02  3.98452E+03  3.99290E+03  2.35692E+03  7.24655E+02
 -1.47320E+03  9.21325E+03 -6.46734E+03  4.50307E+03 -6.81921E+03  1.01517E+03 -2.53098E+03 -4.48002E+03
 -7.11541E+03 -1.49538E+03  3.72920E+03 -1.22847E+04  2.56449E+02 -4.51748E+03  4.06085E+03 -3.56410E+02
  3.06210E+03  5.28577E+03  5.39181E+02  8.26682E+03 -3.05165E+03  6.17745E+02 -3.33371E+03 -3.76568E+03
  3.24749E+02 -2.44390E+02  3.00473E+03 -3.56371E+03 -2.58046E+03 -9.26750E+02  5.39486E+03 -2.21718E+03
  1.88929E+03  2.29299E+03  2.65100E+03  6.62852E+02 -3.37164E+03  4.23699E+03  2.52100E+03 -2.18428E+03
  5.09317E+03  4.27696E+03  2.90941E+03  6.58530E+01  2.28070E+02  4.16605E+03 -1.75027E+03  1.77072E+03
 -4.73730E+03  5.00596E+03 -2.36307E+03 -8.67727E+02 -1.61894E+03  4.27561E+03 -5.21069E+01 -7.58041E+03
 -2.48178E+03  3.31257E+02  4.54502E+03 -4.46320E+03  4.41395E+03  6.18841E+03 -1.81833E+03  3.10861E+03
 -5.28488E+03  2.36793E+03 -2.51362E+03 -4.49525E+03  5.12134E+02  3.53762E+02 -6.08642E+02  9.12745E+02
  1.27954E+03 -1.11905E+03  1.17148E+03  2.35651E+03  3.06083E+03 -4.01960E+03  4.63179E+02  1.30361E+03
 -1.32617E+03  1.19244E+03  1.43223E+03  2.18991E+02 -5.09873E+02 -1.68332E+03  1.37388E+03 -1.00784E+03
  7.79945E+03 -1.03692E+03  5.39736E+03  1.26703E+02 -8.90324E+02  5.16469E+03 -7.21102E+03  2.73203E+03
 -1.63070E+03  9.26140E+02 -5.06795E+03  3.11611E+03 -4.14219E+03 -1.98700E+03  5.82849E+03  2.42176E+02
  2.00820E+03 -4.27585E+03 -5.55136E+02  8.53509E+02 -3.65934E+03  1.45884E+03 -4.19411E+02 -1.10612E+03
 -1.01583E+03  2.50970E+03  4.46871E+03  5.85302E+03 -2.23096E+03  4.42411E+03 -8.59524E+02 -5.24287E+02
 -3.32404E+03  5.19940E+03 -4.61930E+03  5.22754E+03 -3.41437E+03  2.34961E+03 -5.90031E+03  7.61418E+02
 -1.19857E+03 -6.48908E+03  2.67572E+03 -6.94858E+03  1.04480E+03 -4.19004E+03  4.47379E+03 -2.55027E+03
  2.83042E+03  4.72627E+03  1.64275E+03  1.92683E+03 -2.96913E+03  5.91627E+03 -4.27550E+03  7.28521E+03
 -1.09420E+03  1.22045E+03 -4.92092E+03 -2.64775E+03 -4.25579E+03  6.19265E+02 -2.11138E+03  3.51506E+03
  4.54218E+02  2.42331E+02 -3.19900E+03  2.14607E+03  7.62357E+02  9.54289E+02  2.68958E+02 -1.02106E+03
  2.92958E+03 -5.49783E+03  1.07537E+03 -2.03639E+03  2.20078E+03 -2.37943E+03 -2.56261E+03  1.69287E+03
  1.94526E+03  2.18627E+03 -1.51166E+03  1.78427E+03 -4.22222E+03 -1.12831E+02  1.69152E+03 -8.87398E+02
 -5.44350E+03 -3.13231E+03 -7.99593E+02 -4.58131E+03  9.33646E+03 -2.81859E+03  1.29516E+03 -5.79938E+02
  1.95781E+03  4.17302E+03 -1.75010E+03  3.28884E+03  1.08375E+03 -1.16499E+03  5.05589E+02 -1.30910E+03
  1.72625E+03 -5.47811E+03 -1.88521E+03  7.70401E+02 -5.30382E+03  1.23111E+03  9.65494E+01 -5.45251E+01
 -7.97681E+03  1.40287E+03  1.62732E+03  2.14747E+02 -4.85235E+03 -4.07761E+03 -5.40435E+03 -2.17151E+03
  4.22681E+01 -5.45782E+03  5.69704E+03  2.23124E+03  5.13605E+03 -1.55997E+03 -1.01289E+03 -7.19785E+02
  1.83905E+02 -1.11977E+03 -2.78008E+03 -3.32412E+02  6.77330E+02  1.09728E+03 -6.15200E+03  6.27827E+03
  8.81477E+02 -6.11927E+02  1.31116E+02 -3.77414E+02 -1.10627E+03 -3.40344E+02 -6.25411E+03 -2.80889E+03
 -5.23007E+03  3.18619E+02 -5.19990E+02 -5.12907E+03  4.17544E+03 -4.54833E+03  4.49546E+03 -1.27380E+03
  2.60801E+03  1.76329E+02  2.40374E+03  9.26763E+02  3.09266E+01  2.57707E+03 -3.61172E+03  2.39113E+03
