 $NMID ID='MM_0lb_SNR50_10hz_g40_26.RAW', FMTDAT='(8E13.5)'
 TRAMP=1., VOLUME=1. $END
  3.08382E+05  3.44968E+03  3.31924E+05  2.48760E+05  8.50997E+04  3.41978E+05 -1.34156E+05  2.55440E+05
 -1.87370E+05  7.84455E+04 -1.13493E+05 -3.20731E+04 -3.59941E+03 -5.50166E+04  4.88464E+04 -1.65713E+03
  3.84921E+04  5.03314E+04 -2.13099E+04  7.70425E+04 -6.04795E+04  6.22228E+04 -8.62793E+04  3.05511E+04
 -8.10765E+04 -8.12946E+03 -5.68733E+04 -4.99032E+04 -1.80703E+04 -8.01526E+04  3.31157E+04 -4.47729E+04
  4.23516E+04  3.17433E+03  1.70545E+04  4.86442E+04 -3.50921E+04  4.61695E+04 -6.63407E+04 -6.14852E+03
 -5.75031E+04 -6.02572E+04 -9.18176E+03 -8.39946E+04  3.91296E+04 -5.07258E+04  4.77539E+04 -1.38823E+04
  4.59301E+04  1.37819E+04  3.67547E+04  2.06177E+04  2.23884E+04  3.13639E+04 -2.54393E+03  2.14575E+04
 -2.08572E+04  1.73060E+04 -2.36161E+04 -8.26460E+03  5.95967E+03 -1.35203E+04  2.44862E+04  1.51368E+04
  9.67295E+03  3.67304E+04 -3.24598E+04  3.27550E+04 -7.08975E+04  8.11585E+01 -5.79285E+04 -4.50659E+04
 -1.08836E+04 -5.87001E+04  4.15819E+04 -4.78050E+04  6.06714E+04  2.67257E+03  3.68177E+04  3.07371E+04
 -5.15816E+03  4.34235E+04 -3.18238E+04  1.59094E+04 -3.71952E+04 -2.79749E+03 -2.27048E+04 -9.80863E+03
 -2.57670E+03 -1.52837E+04 -3.23908E+03 -2.02944E+04  1.13575E+04 -2.65132E+04  2.21242E+04 -1.25570E+04
  8.59912E+03  9.69080E+03 -3.09344E+03  1.27958E+04 -2.92683E+04 -4.38932E+03 -6.80317E+03 -3.95642E+04
  2.74768E+04 -4.58044E+04  4.85586E+04 -2.32425E+04  5.66500E+04  2.02135E+04  1.90766E+04  4.06627E+04
 -1.39413E+04  4.17627E+04 -3.04018E+04  5.01888E+03 -7.86540E+03 -2.31930E+04  2.32018E+04 -3.46905E+04
  4.54742E+04 -1.15559E+04  3.53398E+04  2.68413E+04  1.61248E+04  4.87423E+04 -1.21211E+04  5.78300E+04
 -3.36432E+04  3.77681E+04 -4.33028E+04  1.08873E+04 -4.30226E+04 -1.87608E+04 -1.93942E+04 -3.75987E+04
  9.02277E+03 -3.79228E+04  3.07977E+04 -1.50430E+04  3.34049E+04  1.31075E+04  6.00581E+03  1.82672E+04
 -1.05161E+04  7.85616E+03 -9.41840E+03 -7.46468E+03  3.27533E+03 -9.90839E+03  2.03330E+04  2.74975E+03
  2.23542E+04  2.23876E+04 -3.29898E+03  2.53369E+04 -1.75215E+04  1.47507E+04 -3.18402E+04 -2.20646E+03
 -2.26265E+04 -2.04820E+04 -1.58264E+04 -2.18666E+04  1.54541E+03 -2.51541E+04  1.55575E+04 -2.12420E+04
  2.98384E+04 -1.60299E+04  3.19514E+04  8.60398E+02  2.65434E+04  2.47716E+04  5.49643E+02  3.72237E+04
 -2.05325E+04  2.80766E+04 -2.97424E+04  1.42836E+04 -2.27807E+04 -1.34193E+04 -8.09973E+03 -1.21147E+04
  9.76517E+02 -3.50938E+03 -9.41667E+03  6.19110E+03 -2.16637E+04  1.84420E+03 -2.40584E+04 -8.22543E+03
 -1.19476E+04 -1.87403E+04  6.74488E+03 -2.76022E+04  1.73328E+04 -1.52752E+04  2.76513E+04  1.14969E+03
  1.31840E+04  1.41673E+04 -2.65296E+03  2.17036E+04 -1.12102E+04  1.53893E+04 -2.83430E+04 -6.61381E+03
 -1.93915E+04 -2.08695E+04 -6.26457E+03 -2.67804E+04  1.25431E+04 -2.37436E+04  2.74148E+04 -1.61860E+04
  1.72172E+04  1.27236E+03  1.62549E+04  4.16947E+03  1.11759E+04  6.85724E+03  1.44802E+04 -1.24156E+03
  1.54188E+04  1.01666E+03  2.45719E+04  2.09447E+04  1.53470E+04  3.54063E+04 -4.76407E+03  4.17395E+04
 -2.78593E+04  2.81531E+04 -3.94560E+04  1.35339E+04 -3.66733E+04 -9.57737E+02 -3.73829E+04 -2.44080E+04
 -1.42926E+04 -3.47022E+04  1.13767E+04 -3.06947E+04  2.48479E+04 -2.14327E+04  2.51654E+04  7.15100E+03
  7.11131E+03  1.58609E+04 -1.15951E+04  1.13350E+04 -2.26304E+04 -1.62424E+02 -1.49646E+04 -1.63004E+04
  1.25678E+02 -2.33146E+04  9.22016E+03 -1.39839E+04  1.37898E+04  1.09863E+03  6.03716E+03  1.03973E+04
 -1.01579E+04  9.70219E+03 -1.27134E+04 -6.92728E+03 -2.24356E+03 -1.58919E+04  1.38127E+04 -2.13046E+04
  1.98963E+04 -4.61707E+03  2.43012E+04  1.08894E+03  1.99568E+04  2.20612E+04  1.18289E+04  2.57681E+04
 -4.80502E+03  2.80654E+04 -1.15332E+04  1.52740E+04 -1.87390E+04 -2.74035E+03 -1.65116E+04 -5.78550E+03
 -7.94250E+03 -8.67289E+03 -1.92062E+03  2.51566E+03 -2.26430E+03 -1.17386E+03 -3.28554E+03  9.14343E+03
 -1.31650E+04 -3.41037E+03 -9.31993E+03 -1.10455E+04 -3.07084E+03 -2.05468E+04  6.62602E+03 -1.02132E+04
  8.67619E+03 -7.77416E+03  2.44291E+03  1.64214E+02 -1.15719E+03  4.25534E+03 -8.48395E+03  1.16918E+03
 -3.11626E+03 -5.34299E+03 -3.02286E+03 -1.36488E+04  7.21537E+03 -1.26062E+04  1.22404E+04 -7.52211E+03
  2.45812E+04  4.83681E+03  1.37739E+04  8.66899E+03  6.63252E+02  1.91870E+04 -6.76578E+03  1.04172E+04
 -7.79669E+03  8.53671E+02 -6.79458E+03  2.84033E+03  9.87869E+02 -2.87278E+03  2.95414E+03 -6.86155E+03
  7.35584E+03  5.60949E+03  2.92839E+03  1.27137E+04 -5.32371E+03  9.62637E+03 -1.74186E+04  1.88833E+03
 -9.95605E+03 -6.45750E+03  9.48966E+02 -1.39225E+04  8.47810E+03 -4.55395E+03  7.50147E+03  3.34606E+03
  8.37164E+02  1.66112E+04 -1.16420E+03  1.49394E+04 -2.52071E+03  8.14419E+03 -9.54307E+03 -4.23005E+03
 -7.34517E+03 -8.12149E+03  4.55493E+02 -1.26950E+04  1.47414E+04 -6.85671E+03  1.55489E+04  2.48345E+03
  1.28574E+04  7.18352E+03  2.01314E+03  1.73352E+04 -6.34690E+03  1.08318E+04 -9.40290E+03  2.07051E+03
 -1.06980E+04 -1.24431E+04  1.39795E+03 -1.07393E+04  5.45879E+03 -8.10161E+03  6.37548E+03 -1.14291E+04
  3.99494E+03  9.50804E+03 -1.63606E+02 -6.74954E+02  2.46908E+03 -1.27314E+03  1.52427E+03 -4.08167E+03
  1.18908E+04 -7.26130E+03  1.03590E+04  2.86697E+03  1.28150E+04  7.55154E+03  1.76328E+04  1.62720E+04
 -9.31104E+03  1.63355E+04 -1.58207E+04  1.94507E+04 -2.27021E+04 -2.69105E+03 -1.45443E+04 -7.92158E+03
 -1.14447E+04 -1.64689E+04  4.49586E+03 -1.30345E+04  8.74724E+03 -3.16236E+03  1.12122E+04 -9.85794E+03
  2.46048E+03  2.79814E+03  4.82294E+03 -5.66432E+03  1.56965E+03  2.38400E+03  3.96039E+03 -2.40638E+03
  1.03118E+04  4.07153E+03  6.05430E+03  7.39712E+03 -7.22506E+03  1.21589E+04 -1.09240E+04  1.08325E+04
 -9.93892E+03  1.20069E+03 -4.84872E+03 -1.07127E+04 -5.09290E+03 -1.33022E+04  3.80640E+03 -1.67467E+04
  8.61039E+03 -5.46070E+03  1.80294E+04 -1.23023E+03  1.12135E+04  3.17676E+03  3.15262E+03  1.76635E+04
 -5.18669E+03  7.93507E+03 -1.08173E+04  7.57182E+03 -4.49484E+03 -2.79993E+03  9.27191E+02  3.46620E+03
  1.48882E+03  8.46172E+02 -5.87145E+03  2.98214E+03 -7.45758E+03 -1.41972E+03 -8.23912E+03 -5.57662E+02
 -1.27058E+04 -2.53115E+03  8.84792E+02 -1.37773E+04  6.87770E+03 -1.38686E+04  1.81927E+04 -4.91957E+03
  1.21016E+04  7.33323E+03  4.28640E+03  1.04463E+04 -2.67847E+03  1.58790E+04 -7.84504E+03  6.34591E+03
 -1.01594E+04 -2.29673E+03 -1.36255E+04 -5.05022E+03 -4.09092E+03 -1.24952E+04  8.46012E+03 -3.22083E+03
  9.75504E+03  1.26687E+03  1.09271E+04  1.60018E+03  2.09325E+03  4.30467E+03  1.48249E+03 -1.06755E+03
  4.77769E+03  3.29036E+03  3.68992E+03  9.19289E+03  7.35963E+02  2.40482E+03  6.16198E+03  8.98017E+03
 -2.72613E+03  1.11128E+04 -7.77718E+03  1.20310E+04 -1.29261E+04  2.36771E+03 -1.62542E+04 -1.85020E+03
 -4.74146E+03 -1.06446E+04  2.27882E+03 -1.58505E+04  4.91637E+03 -4.96194E+03  7.89728E+03 -3.43023E+03
  7.98472E+03  3.15498E+03  2.71554E+03  8.25378E+03 -8.30403E+03  3.97938E+03 -6.16788E+03  2.96780E+01
 -2.23732E+02 -3.82565E+03  3.19442E+03  8.90442E+02  1.35060E+04 -7.29009E+02  6.76815E+03  1.31005E+03
  1.09069E+04  2.95359E+03 -1.27557E+03  6.24473E+02  2.99461E+02  3.16057E+03  3.35271E+03  1.05712E+02
  3.33851E+03 -2.35583E+03  1.11380E+04  6.76916E+03 -3.96418E+02  6.35695E+03 -6.56241E+03  7.47764E+03
 -5.06361E+03  1.07290E+04 -9.33376E+03  1.35405E+03 -6.32743E+03 -6.06195E+03 -4.63019E+01 -6.55946E+03
 -4.86444E+02 -5.31051E+03  9.13750E+02 -6.54805E+03  4.19922E+02 -2.63273E+03 -5.66067E+03  9.93198E+01
 -6.14594E+02 -8.76853E+02 -9.68825E+03 -4.43295E+03 -2.00119E+03 -4.88114E+03 -2.88808E+03 -6.28168E+03
  3.93960E+03 -1.75974E+02  9.04319E+03  1.14764E+03  3.82642E+03 -1.94381E+03  4.54610E+03 -1.41071E+03
  7.00050E+02  7.33584E+02 -2.59959E+03 -1.52980E+03 -3.59052E+03 -9.19335E+03  5.29658E+03 -2.37348E+03
  5.92156E+03  2.30041E+03  1.20737E+04  8.61083E+03  5.00544E+03  9.58752E+03 -5.21959E+03  4.83666E+03
 -1.60878E+03  2.25768E+03 -7.09494E+03 -1.61882E+03 -3.30465E+01 -6.90255E+03 -2.13222E+03 -5.16328E+03
  5.79897E+03 -3.82101E+03  8.63885E+03  1.07499E+03 -1.88745E+03  5.90848E+02  1.28467E+03  8.68407E+03
 -1.40368E+03  2.64696E+03 -3.14705E+03  3.79067E+03 -9.90627E+03  2.29802E+03 -2.26297E+03 -3.41102E+03
 -5.65599E+03  8.54285E+03 -3.02687E+03  9.80495E+03 -1.06317E+04 -1.40192E+03 -1.14895E+04 -2.85478E+03
 -4.40461E+03 -8.84122E+03  4.40672E+03 -1.11396E+04  4.55100E+03 -1.23306E+04  1.19038E+04  8.91779E+02
  5.00072E+03 -2.61260E+03  1.34827E+04  6.79809E+03 -5.83712E+02  9.04423E+03 -8.09677E+03  4.11490E+03
 -4.14945E+03 -8.49554E+02 -4.91103E+03 -5.18075E+03 -4.12486E+03  5.30113E+02 -1.49485E+03  1.23145E+02
  2.81568E+03 -1.02811E+04 -8.73243E+02 -2.79344E+03  5.19844E+03 -2.53302E+03 -5.28261E+03 -6.35277E+03
  3.49241E+03 -3.77852E+03  5.97982E+03  4.91926E+03  2.11869E+03  6.38400E+03  6.14846E+03  5.62776E+03
 -4.94931E+03  8.92019E+03 -3.90656E+03  5.38614E+03 -6.47526E+03 -3.52553E+03 -8.60817E+03 -1.29926E+04
  2.14942E+02 -7.37594E+03 -9.79307E+02 -8.13064E+03  1.08345E+04 -5.73998E+03  7.07160E+03 -3.18702E+03
  4.80740E+03  2.35555E+03  1.12106E+03  4.18376E+03 -1.32731E+03  3.79234E+03 -5.51232E+03 -2.75273E+03
  2.24705E+02  3.28431E+03  6.11839E+03  1.42850E+01  4.16095E+03  5.04818E+02 -1.33663E+03  4.02899E+03
 -8.25414E+03  2.11763E+03 -5.97643E+03 -6.60918E+03 -5.37001E+03 -5.12918E+03 -3.92317E+03 -4.81515E+03
  1.68258E+03 -7.27031E+03  7.02770E+03 -3.76541E+02  6.35405E+03 -2.66826E+03  7.67230E+03  1.00451E+04
  2.61061E+03  7.48794E+03 -4.45512E+03  1.22886E+03 -9.63730E+03 -2.73667E+03 -2.11034E+03  7.61948E+03
  1.04418E+03 -2.00026E+03  3.00933E+03 -2.67218E+03 -3.70991E+03  3.13770E+03 -4.00144E+03  4.66673E+03
  2.18457E+03  2.71021E+03 -2.15078E+02 -8.19321E+03  3.00897E+03 -8.56418E+03  1.85784E+03 -3.40698E+03
  2.23187E+03 -1.04666E+03 -3.64972E+03  3.58202E+03 -5.99781E+03  2.13109E+03  1.85417E+03  2.50092E+03
