 $NMID ID='MM_0lb_SNR50_10hz_g55_75.RAW', FMTDAT='(8E13.5)'
 TRAMP=1., VOLUME=1. $END
  3.10514E+05 -3.51520E+02  3.39026E+05  2.49029E+05  8.57785E+04  3.40419E+05 -1.34771E+05  2.49156E+05
 -1.93352E+05  8.69693E+04 -1.07622E+05 -2.61829E+04  5.39147E+03 -5.39487E+04  5.59404E+04 -3.89190E+03
  3.23602E+04  5.13364E+04 -1.47169E+04  7.45833E+04 -6.58461E+04  6.40675E+04 -8.14527E+04  3.43010E+04
 -7.39918E+04 -7.03308E+03 -5.96952E+04 -5.21693E+04 -1.09068E+04 -7.00428E+04  3.14470E+04 -4.37846E+04
  4.35495E+04  2.68013E+03  1.43186E+04  4.86635E+04 -3.39919E+04  5.04149E+04 -6.83159E+04  3.30850E+03
 -4.88249E+04 -5.24345E+04 -1.18410E+04 -7.61295E+04  3.36932E+04 -5.40674E+04  5.12805E+04 -1.82649E+04
  3.91040E+04  1.18181E+04  3.42206E+04  1.98485E+04  1.64304E+04  2.84408E+04 -1.47080E+03  1.79510E+04
 -2.77485E+04  1.50018E+04 -1.68902E+04 -1.16313E+04  1.22340E+04 -7.85297E+03  2.52614E+04  1.23744E+04
  6.25518E+03  3.88928E+04 -3.05423E+04  3.93155E+04 -6.48377E+04  8.68635E+03 -5.91327E+04 -4.63804E+04
 -1.36299E+04 -6.36882E+04  3.98599E+04 -5.28236E+04  6.16956E+04 -2.97748E+03  3.66816E+04  3.30057E+04
 -4.04219E+03  3.93575E+04 -3.18957E+04  1.81371E+04 -3.02307E+04 -7.56586E+03 -1.89303E+04 -8.12455E+03
 -8.73877E+03 -1.16931E+04  3.70809E+03 -1.98496E+04  9.70386E+03 -2.22395E+04  1.33778E+04 -9.59651E+03
  1.36040E+04  7.71436E+03 -4.49165E+03  1.31934E+04 -2.26662E+04 -7.81569E+03 -1.33535E+04 -3.53609E+04
  2.80673E+04 -4.83337E+04  4.87218E+04 -2.15375E+04  5.25754E+04  1.83589E+04  1.00140E+04  4.60894E+04
 -1.63963E+04  3.33465E+04 -2.83997E+04  3.92864E+03 -2.00607E+04 -2.74746E+04  2.20110E+04 -3.70055E+04
  5.30182E+04 -1.18256E+04  3.64476E+04  1.94325E+04  1.95929E+04  4.96348E+04 -1.02282E+04  5.31628E+04
 -3.91412E+04  4.27469E+04 -4.88098E+04  1.37209E+04 -4.65550E+04 -1.73407E+04 -2.92194E+04 -3.87470E+04
  1.04069E+04 -3.71517E+04  2.90482E+04 -2.70397E+04  3.29540E+04  1.23150E+04  4.06541E+03  2.21758E+04
 -1.55375E+04  1.35662E+04 -9.58033E+03 -8.44714E+03  4.95004E+03 -9.65348E+03  1.84498E+04  2.40428E+03
  1.66762E+04  1.98225E+04 -2.32140E+03  2.60114E+04 -2.31010E+04  1.46106E+04 -3.35504E+04  8.77239E+01
 -3.11240E+04 -1.87649E+04 -1.31742E+04 -2.46408E+04  6.90649E+03 -2.70568E+04  1.81842E+04 -2.10775E+04
  2.71676E+04 -7.58372E+03  3.90527E+04  1.75385E+03  2.69128E+04  2.93581E+04  3.15845E+03  4.82785E+04
 -2.64233E+04  2.64823E+04 -2.49526E+04  1.12879E+04 -2.29804E+04 -1.12613E+04 -7.08609E+03 -1.49706E+04
  2.18833E+03 -4.88191E+03 -5.26411E+03  8.89566E+03 -1.89133E+04  5.36125E+03 -1.88511E+04 -9.09394E+03
 -9.43455E+03 -2.36201E+04  9.81807E+03 -3.44269E+04  1.13569E+04 -1.94186E+04  2.54980E+04 -4.97160E+03
  1.55487E+04  1.84769E+04 -1.10930E+03  2.13619E+04 -1.54122E+04  1.01457E+04 -2.17105E+04 -7.04624E+03
 -2.12167E+04 -1.80057E+04 -2.33381E+03 -3.06888E+04  1.54062E+04 -3.08277E+04  2.12739E+04 -1.84478E+04
  2.41451E+04  2.09484E+03  1.51535E+04  1.15351E+03  9.54956E+03 -5.70091E+02  1.42816E+04 -1.30360E+03
  2.45150E+04  3.92289E+03  2.33027E+04  1.46775E+04  1.47983E+04  3.60993E+04 -6.27238E+02  4.35741E+04
 -2.07852E+04  3.88538E+04 -4.29395E+04  1.71895E+04 -4.59630E+04 -3.01802E+02 -3.43619E+04 -2.96845E+04
 -1.31210E+04 -3.81086E+04  1.55877E+04 -3.36168E+04  2.84631E+04 -2.00129E+04  2.20431E+04  1.05264E+04
  1.00112E+04  1.52234E+04 -1.43344E+04  1.82378E+04 -2.20375E+04 -3.57534E+03 -1.54473E+04 -9.85879E+03
  7.05782E+02 -1.83237E+04  1.26591E+04 -1.25056E+04  1.60528E+04 -4.56423E+03  5.46254E+03  8.48826E+03
 -7.75813E+03  1.94528E+03 -8.61661E+03 -1.40223E+03 -1.85409E+03 -2.25770E+04  1.06370E+04 -1.89232E+04
  2.49081E+04 -7.06035E+03  2.12797E+04  4.24518E+03  2.05728E+04  1.56664E+04  4.22071E+03  2.79120E+04
 -1.46028E+03  2.95245E+04 -2.11278E+04  1.70271E+04 -2.61232E+04  4.58893E+03 -1.11918E+04 -7.39490E+02
 -3.73745E+03 -9.75871E+03 -2.72827E+03  2.85615E+03 -5.56932E+03  4.92084E+03 -1.03331E+04 -2.28383E+03
 -1.21758E+04  3.23413E+03 -2.08609E+04 -1.48684E+04 -1.50208E+03 -1.85123E+04  4.43569E+03 -1.48559E+04
  1.50734E+04 -7.39553E+03  5.63138E+03 -1.04800E+03  2.79940E+03  2.38498E+03 -4.41409E+03 -2.10648E+03
 -7.06249E+03 -9.40802E+03  2.21978E+03 -1.14804E+04  7.65214E+03 -1.70478E+04  1.72401E+04 -1.17992E+04
  1.69930E+04 -4.23725E+03  1.89732E+04  1.24456E+04 -3.40363E+03  1.73186E+04 -1.09773E+04  1.73715E+04
 -9.28731E+03  4.66446E+03 -3.77134E+03 -7.70260E+02 -1.81067E+03 -7.89628E+03  1.33713E+04  3.17668E+03
  1.12077E+04  3.46131E+03 -3.40565E+03  1.12422E+04 -9.18149E+03  1.01572E+04 -1.61521E+04  3.64061E+03
 -6.17192E+03 -5.50450E+03  3.20760E+03 -1.66826E+04  1.14331E+04 -1.62368E+03  7.66908E+03  7.30236E+03
 -6.47318E+03  3.11322E+03 -7.73889E+03  1.41466E+04 -1.16741E+04  2.55701E+03 -1.00926E+04 -6.69475E+03
 -1.18017E+04 -1.64955E+04  4.73652E+03 -1.81036E+04  6.48029E+03 -5.67724E+03  1.17417E+04  6.33625E+03
  6.44185E+03  6.99557E+03 -3.67550E+03  1.99331E+04 -6.28005E+03  8.77571E+03 -1.89133E+04 -6.87339E+03
 -1.03821E+04 -1.40017E+04 -8.24970E+01 -1.20399E+04 -9.19320E+01 -8.74271E+03  4.73636E+03 -3.12878E+03
  4.94578E+03  6.80997E+03 -2.87628E+03 -8.93439E+02  3.98171E+03 -2.95202E+02 -3.66969E+02 -1.53368E+03
  7.09578E+03 -2.46425E+03  1.68692E+04  2.41032E+03  1.97977E+04  1.15560E+04  1.21184E+04  1.87749E+04
 -1.89525E+03  2.58051E+04 -1.87291E+04  1.55548E+04 -2.77121E+04  6.83480E+02 -1.89304E+04 -6.00368E+03
 -5.87183E+03 -1.30266E+04 -3.65850E+02 -1.35696E+04  9.04143E+03 -5.65964E+03  7.00490E+03 -4.76086E+03
  8.90330E+03  1.46212E+03 -2.89310E+03 -2.73435E+03  3.14671E+02  4.66184E+03  5.69907E+03  2.13993E+03
  1.18685E+04  1.63507E+03  8.76921E+03  4.32565E+03 -8.52259E+03  6.99364E+03 -7.95881E+03  1.48428E+04
 -1.21081E+04 -3.85136E+03 -1.46643E+04 -9.20095E+03  1.70701E+03 -1.46072E+04  5.04983E+03 -1.20720E+04
  1.28339E+04 -6.24507E+03  1.97486E+04 -9.37523E+02  1.21151E+04  9.80741E+03  5.00120E+03  9.12944E+03
 -6.86823E+03  1.28187E+04 -7.68338E+03  3.87942E+03 -7.20279E+03  9.63183E+02 -7.67509E+03 -1.10114E+04
  4.54017E+02 -2.51670E+03 -7.89666E+03 -1.98336E+03 -3.78966E+03 -2.58980E+03 -6.65033E+03 -1.15805E+03
 -7.44658E+03 -9.04588E+03  3.42300E+03 -1.62013E+04  1.24722E+04 -1.29144E+04  1.59410E+04 -8.89343E+03
  1.21648E+04  2.95228E+03  9.38063E+03  1.44601E+04 -7.27693E+03  1.91549E+04 -9.93045E+03  7.52084E+03
 -1.08671E+04 -2.57969E+03 -1.37405E+04 -1.49445E+04  2.43480E+02 -1.36262E+04  5.10880E+03 -8.83716E+03
  1.38362E+04 -8.68525E+03  5.22254E+03  1.95312E+02 -5.54846E+02  2.58582E+03 -1.94764E+02  2.79961E+02
 -1.74290E+03  7.09185E+02  2.41027E+03  8.82104E+03  9.09325E+02  2.36040E+03  2.91932E+03  8.55633E+03
 -3.09969E+03  1.39197E+04 -1.58019E+04  1.04153E+04 -1.48788E+04  3.39578E+03 -1.89822E+04 -3.70621E+03
 -7.92952E+03 -1.45112E+04  2.81599E+03 -1.19592E+04  4.99467E+03 -5.03034E+03  1.36228E+04 -1.44246E+03
  6.90930E+03  4.92706E+03 -1.00325E+03  9.75249E+03 -2.26453E+03  3.55671E+03 -4.09440E+03 -6.44925E+02
 -6.47423E+03 -6.39257E+03  5.43060E+03 -1.27526E+04  1.13574E+04 -2.75764E+03  1.10637E+04  1.58937E+03
  7.46986E+02  3.42735E+03 -7.98715E+02 -9.14551E+01 -2.93996E+03  1.66834E+03  2.26093E+03  3.49813E+03
  3.05183E+03  9.65825E+02  8.46726E+03 -7.97372E+02  6.99701E+03  6.42695E+03 -3.06032E+03  9.07268E+03
 -4.27022E+03  8.31546E+03 -5.06631E+03 -1.05633E+03 -5.81081E+03 -5.88504E+03 -6.32123E+03 -5.70136E+03
 -2.68241E+03 -4.73674E+03  6.47864E+03  2.69176E+03  2.43220E+03  6.69055E+03  2.15730E+03  4.65202E+03
 -6.61648E+03  2.26930E+03 -8.74763E+03 -2.01595E+03 -7.43125E+03 -5.47032E+03 -1.82565E+03 -6.90205E+03
  5.73357E+03 -3.93266E+03  1.75471E+04  5.69085E+03  4.62764E+03  1.26721E+03  2.94267E+03 -1.03003E+03
  1.90280E+03  1.64940E+03 -2.02920E+03 -5.30461E+03  2.04691E+03 -2.52938E+03  1.21979E+04 -1.07330E+04
  5.25026E+03  6.46637E+03  7.90885E+03  7.87776E+02  4.31563E+03  6.91218E+03  3.83329E+03  8.10139E+03
 -6.36579E+03 -2.70139E+03 -9.85085E+03 -3.61427E+03 -8.14094E+03 -7.48716E+03  1.05054E+03 -6.49234E+03
  3.42565E+03 -2.21810E+03  5.36227E+03  9.58494E+02  1.25920E+03  7.71362E+03  8.02758E+02  7.13295E+03
 -6.32998E+03  1.93590E+02 -2.37387E+03 -1.68276E+02 -1.11303E+03  1.33426E+03  2.87645E+03  2.49830E+03
  2.21906E+03  3.72511E+03 -2.23661E+03  1.82174E+03 -5.72792E+03 -7.36728E+02 -1.30661E+04 -6.11984E+03
 -7.81086E+03 -1.49410E+04  1.42633E+03 -6.75762E+03  1.06209E+04 -1.21282E+04  2.00261E+04 -2.76535E+03
  1.30371E+04  3.96870E+03  6.20853E+03  1.04111E+04 -6.61719E+02  6.98514E+03 -5.46921E+02  7.47447E+03
 -2.11228E+03  2.99792E+03  7.80620E+02 -1.93340E+01 -2.11943E+03 -3.08646E+03  4.44278E+03  7.10417E+02
 -5.11283E+02  1.63060E+03  5.07879E+03  7.45411E+02  3.91069E+03 -6.22293E+03 -2.32303E+03 -3.50748E+03
  1.96679E+03 -3.15273E+03  2.75273E+03 -3.48871E+03  2.51092E+03  5.53559E+03  3.25020E+03  1.10704E+04
 -3.87999E+02  4.81903E+03 -7.00911E+03 -6.93723E+02 -1.00604E+04  1.01042E+04 -5.53246E+03 -5.28186E+03
 -2.52131E+03 -9.03637E+03  1.26758E+03 -1.43789E+04  7.99450E+03 -5.91480E+03  4.81599E+03 -8.06065E+03
  3.60535E+03  3.31829E+03 -7.08654E+02  2.05330E+02  1.54963E+03  4.05857E+03  6.70332E+03 -3.34524E+01
  2.08594E+03  4.17744E+03  4.94971E+03  1.25684E+03  5.25761E+03  6.71071E+03 -3.29455E+03  6.27644E+02
 -9.14423E+03 -1.49541E+03 -9.82467E+03 -4.07567E+03 -3.24897E+03 -1.14182E+04 -2.32770E+03 -1.45102E+03
  6.80361E+03 -7.48969E+03  4.68865E+03 -2.18220E+03  8.74170E+03 -1.09804E+03  5.26592E+03  4.77766E+03
 -3.32559E+03  7.90956E+03 -6.11636E+03  1.07785E+03 -3.26006E+03  5.85399E+03 -4.06782E+03 -3.67448E+03
  1.17406E+03  3.62110E+03 -7.11509E+03  5.07922E+02 -4.98942E+03  2.07346E+03 -5.17376E+03  1.24642E+03
 -1.15352E+03  1.51324E+02 -3.02606E+03 -5.08481E+03  6.00602E+03  1.75325E+03  4.05105E+03 -6.71692E+03
  6.46515E+03  4.10600E+03 -2.10270E+03  6.00942E+03 -1.51523E+03  6.68658E+03  1.38390E+03  2.99806E+03
