 $NMID ID='MM_0lb_SNR50_20hz_g55_58.RAW', FMTDAT='(8E13.5)'
 TRAMP=1., VOLUME=1. $END
  3.05908E+05  2.60401E+03  3.37472E+05  2.48988E+05  8.68422E+04  3.37051E+05 -1.32132E+05  2.53510E+05
 -1.89819E+05  8.02556E+04 -1.13150E+05 -3.22273E+04  1.65480E+03 -5.04128E+04  5.44210E+04  1.09980E+03
  2.86149E+04  5.23099E+04 -1.69103E+04  7.13213E+04 -5.95635E+04  6.56484E+04 -8.57294E+04  2.78122E+04
 -7.74835E+04 -9.26756E+03 -5.37831E+04 -5.51243E+04 -1.46748E+04 -6.86235E+04  2.94470E+04 -4.62017E+04
  3.83503E+04  6.86857E+03  1.63292E+04  4.78748E+04 -3.05279E+04  4.72839E+04 -6.75800E+04  1.19562E+03
 -4.91463E+04 -6.16201E+04 -9.90431E+03 -7.33367E+04  3.29358E+04 -5.41175E+04  4.48207E+04 -1.99753E+04
  4.06106E+04  1.05948E+04  3.18172E+04  2.46649E+04  1.73665E+04  2.98767E+04 -2.97268E+03  2.52349E+04
 -2.13735E+04  1.13246E+04 -1.90105E+04 -3.05618E+03  6.08421E+03 -8.12723E+03  2.18120E+04  9.49244E+03
  7.85673E+03  3.06094E+04 -2.91839E+04  3.83179E+04 -5.96537E+04 -4.19338E+03 -5.61910E+04 -3.80944E+04
 -9.91390E+03 -5.92072E+04  3.72776E+04 -4.41676E+04  5.64432E+04 -3.01199E+03  3.50421E+04  2.73292E+04
 -7.81660E+03  4.02523E+04 -2.47881E+04  1.54930E+04 -2.92280E+04 -6.04291E+03 -1.69342E+04 -7.98669E+03
 -7.81378E+03 -9.51682E+03 -2.99775E+03 -1.61138E+04  8.85020E+03 -2.46004E+04  1.43594E+04 -1.66013E+04
  1.61181E+04  4.62820E+03 -7.57140E+03  1.30090E+04 -2.05529E+04 -5.61820E+02 -8.01045E+03 -3.04689E+04
  1.44207E+04 -4.36827E+04  4.36054E+04 -1.67895E+04  3.80816E+04  1.83021E+04  1.40676E+04  4.04484E+04
 -1.64610E+04  3.12720E+04 -2.18730E+04  3.86962E+03 -5.39550E+03 -2.94482E+04  1.88496E+04 -3.37953E+04
  3.78465E+04 -1.03517E+04  3.35052E+04  2.25680E+04  1.69871E+04  4.34346E+04 -6.22517E+03  4.26995E+04
 -2.83293E+04  3.22787E+04 -3.93530E+04  7.96131E+03 -3.59107E+04 -2.00386E+04 -1.77914E+04 -2.98998E+04
  7.58463E+03 -3.33636E+04  2.85797E+04 -1.18466E+04  3.01792E+04  7.91146E+03  4.30337E+03  1.71309E+04
 -1.50188E+04  8.97698E+03 -8.71112E+03 -8.34832E+03  5.76910E+03 -5.28294E+03  1.63692E+04  7.85650E+03
  8.68598E+03  2.40683E+04 -6.43658E+03  2.47108E+04 -2.07317E+04  6.84746E+03 -2.56021E+04 -9.80824E+03
 -1.71610E+04 -1.81258E+04 -8.25149E+03 -1.29416E+04  3.46810E+03 -1.42001E+04  1.23173E+04 -1.64457E+04
  2.15273E+04 -9.13965E+03  2.78107E+04  2.03776E+03  2.00605E+04  1.54924E+04  6.69922E+03  3.61734E+04
 -1.91826E+04  2.40273E+04 -2.61091E+04  7.25826E+03 -1.98191E+04 -1.11978E+04 -5.30472E+03 -8.83979E+03
 -2.08966E+03 -1.75701E+03 -4.07540E+02  7.38089E+03 -1.45442E+04  4.35782E+03 -1.29367E+04 -6.50841E+03
 -7.71547E+03 -1.49049E+04  2.51307E+03 -1.92557E+04  1.08336E+04 -1.26353E+04  1.36989E+04 -8.26577E+02
  2.92262E+03  8.68910E+03 -1.12027E+03  1.25796E+04 -8.07687E+03  6.50013E+03 -1.83444E+04 -5.99447E+03
 -1.10211E+04 -1.31045E+04 -2.94452E+03 -1.97311E+04  9.81072E+03 -1.76829E+04  1.52420E+04 -6.63461E+03
  1.71863E+04  4.15480E+03  1.06155E+04  5.89441E+03  6.23454E+03  9.23671E+02  3.91601E+03  2.52993E+03
  1.49254E+04  1.56142E+03  1.31412E+04  1.09194E+04  4.65385E+03  2.67031E+04 -7.11112E+02  2.67977E+04
 -1.53088E+04  1.87895E+04 -2.41678E+04  1.20950E+04 -2.01986E+04  1.74364E+03 -1.93886E+04 -1.07002E+04
 -7.20396E+03 -1.83698E+04  8.94813E+03 -2.02767E+04  1.48820E+04 -9.30982E+03  1.39136E+04  6.59042E+03
  6.51201E+03  1.32544E+04 -6.00169E+03  8.83409E+03 -1.40000E+04  2.58863E+03 -8.63740E+03 -8.58926E+03
  2.57655E+03 -1.26179E+04  3.29241E+03 -9.50372E+03  5.66864E+03 -2.34848E+03 -2.31915E+03  5.48440E+03
 -4.12953E+03 -1.10260E+03 -2.93861E+03 -3.04288E+03  8.16667E+02 -7.20319E+03  4.46922E+03 -1.27039E+04
  1.04085E+04 -4.13743E+03  5.57512E+03  4.52850E+03  8.17581E+03  8.81494E+03  2.50285E+03  1.39344E+04
 -1.26102E+03  1.29222E+04 -8.55459E+03  8.96674E+03 -1.02475E+04  4.55173E+03 -7.36844E+03 -2.21777E+03
 -2.33778E+03 -4.13090E+03 -4.53318E+03  9.79523E+02 -1.57859E+03  3.65915E+02 -4.24058E+03  3.59689E+03
 -4.28260E+03  2.15506E+03 -6.10996E+03 -6.35961E+03 -5.37625E+03 -1.23748E+04  3.32251E+03 -8.36328E+03
  6.67670E+03  1.04924E+03  2.83733E+03  2.69921E+02 -5.24162E+01  1.07538E+03 -3.46916E+03  1.95633E+03
 -1.42078E+03 -7.03024E+03 -2.57252E+03 -5.85232E+03  4.06374E+03 -9.00510E+03  1.08176E+04 -3.11364E+03
  1.05837E+04  4.88757E+03  8.35637E+03  4.01810E+03  2.97567E+03  1.43691E+04 -8.23016E+03  8.78667E+03
 -9.62779E+03  3.28831E+02 -2.19915E+03 -5.76786E+03  2.97402E+03  5.43294E+03  6.44449E+03  7.52258E+02
  5.26125E+03  4.63879E+03  1.19615E+03  2.29902E+03 -3.73602E+03  8.13800E+03 -8.07019E+03  8.18999E+02
 -4.89513E+03 -1.28889E+03  2.60188E+03 -4.09529E+03  5.37317E+03 -1.04324E+03  5.30187E+03  2.14485E+03
  5.86991E+03  1.18248E+03 -5.86115E+03  2.29964E+03 -4.57737E+03  6.03801E+03 -1.06767E+03 -2.59500E+03
  5.62439E+01 -5.54789E+03  3.56232E+02 -9.44907E+03  3.72755E+03 -5.16260E+03  7.91882E+03  3.74209E+03
  2.77708E+03  8.03660E+03  3.70904E+03  7.96885E+03 -6.45293E+03  5.31040E+03 -2.43109E+03  2.53195E+03
 -7.40316E+03 -9.01568E+03 -2.03376E+03 -9.27055E+03  3.01404E+03 -2.78084E+03  3.27433E+03 -2.15717E+03
  3.73292E+03  1.76822E+02 -1.87638E+03  1.40402E+03 -3.21418E+03 -2.79828E+03  9.30123E+02  1.11344E+03
 -1.18785E+02  3.40354E+03  6.11312E+03 -3.79548E+03  4.89357E+03  2.99520E+03  1.75152E+03  9.62981E+03
  2.00669E+03  5.20657E+03 -7.68409E+03  3.02235E+03 -9.73093E+03  1.31240E+03 -5.35427E+03  2.62610E+03
 -3.90232E+02 -5.17469E+03  1.52560E+03 -2.12173E+03 -1.45564E+03 -3.22642E+03  4.13401E+03 -4.20965E+03
  6.40575E+02 -5.21288E+00  3.29123E+03 -7.26987E+03  4.20141E+03 -2.18362E+03  4.43313E+03  8.64178E+02
  5.76192E+03 -1.68698E+03  1.85787E+02  5.20895E+03 -1.72124E+03  8.28644E+02 -6.25483E+03  1.55314E+02
 -3.74083E+03 -7.04558E+02 -4.02904E+01 -4.49276E+03 -2.54069E+03  1.03460E+03  2.34443E+03 -2.65993E+03
  3.38205E+03 -3.47971E+03  1.17179E+04  1.70025E+03  8.15147E+03  1.86759E+03  2.07565E+02  6.48551E+03
 -6.53873E+03  2.81642E+03 -4.83321E+01 -2.89281E+03 -2.25886E+03 -3.39915E+03 -1.50138E+03 -3.53305E+03
 -1.62078E+03  8.13577E+02  3.23292E+03  4.76668E+02 -9.70444E+02  2.09279E+03 -6.90406E+03  6.35532E+03
 -3.11336E+03 -1.77037E+03  1.51938E+02 -2.15300E+02  1.07019E+03 -7.00652E+03  3.47770E+03 -4.23209E+01
  2.11292E+03  1.89090E+03 -1.17109E+03  3.16517E+03 -8.12401E+02  2.24298E+03 -4.88104E+03  1.38175E+03
 -9.43864E+03 -2.63530E+03 -4.41379E+03 -1.94953E+03 -3.38234E+03 -1.89331E+03  1.52563E+02 -2.63922E+03
  6.28991E+02 -5.66574E+03 -1.29280E+03  5.91479E+02 -2.65809E+03  6.45790E+03 -2.46564E+02 -3.40691E+03
  2.03580E+03 -2.73378E+03  2.75134E+03 -3.16592E+03  2.44005E+03  7.36759E+02  3.61796E+02  1.64002E+03
 -1.58560E+03  1.83947E+03 -5.33821E+03  2.21262E+02 -2.12724E+03  4.96800E+02 -3.36160E+03 -1.17780E+03
 -9.13242E+02 -4.39736E+03  2.86184E+03 -4.19823E+03  3.17026E+03 -2.81508E+03  2.44883E+03 -2.17361E+03
  2.26217E+03  1.97849E+03 -1.66031E+03  1.64838E+03  2.89971E+03  1.80301E+03 -3.64014E+03 -2.74229E+03
 -1.65439E+03  4.42112E+02 -1.74886E+03 -3.59124E+03  2.43670E+03 -3.17199E+03 -2.63941E+03  1.22264E+03
  1.02521E+03 -6.38670E+02  2.87476E+03  9.37544E+02  1.98115E+03  2.44338E+03 -2.24620E+03 -2.38840E+02
 -4.03245E+03 -3.62544E+03 -1.22347E+03 -4.26766E+03 -3.10124E+02  3.60762E+03 -4.74377E+01  1.14329E+03
  4.48632E+02  3.01812E+03 -3.66958E+03 -1.38452E+03 -1.31062E+02 -4.00552E+03 -1.28097E+02 -8.58137E+02
  2.04331E+03  1.50372E+03 -1.56389E+03 -1.60076E+02 -4.15933E+02 -1.49550E+02 -1.70515E+03  2.66565E+02
 -2.87151E+03  3.28585E+03  7.91602E+01 -8.99669E+01 -2.72073E+03 -5.43146E+03  4.63392E+03  1.18243E+02
 -4.43434E+03  5.10101E+02  1.57126E+02  5.89198E+02  2.34705E+02 -2.09960E+03  3.32558E+03 -1.25261E+03
 -1.76225E+03 -1.09023E+02  2.85363E+03 -3.10440E+03  1.59485E+03  3.78391E+03  1.08652E+03 -1.98513E+03
 -9.84018E+02 -1.85278E+03  5.09169E+03 -1.91697E+02 -1.63257E+03 -1.03924E+03  2.32519E+03 -3.38344E+02
  1.03256E+03 -1.34154E+03 -1.94325E+02  1.42985E+03  2.99078E+03 -1.31022E+03  1.07379E+03  1.23896E+03
  3.92494E+03 -2.99845E+03 -1.66979E+03 -4.20755E+03  3.98672E+03  7.14455E+02  3.25537E+03  1.64207E+03
  2.22313E+03  4.42396E+03 -2.00828E+03  5.02353E+03  1.62809E+01 -3.13433E+03  8.40873E+01  7.41049E+02
  4.35852E+02 -3.69832E+03 -1.89338E+03 -7.15061E+02 -3.44641E+03  1.77678E+03 -2.98829E+03  2.06276E+03
  7.45387E+02 -5.33539E+03  5.38116E+01 -8.13190E+03  5.70685E+03 -2.38239E+03 -2.11720E+03 -1.72941E+03
  5.90514E+03 -1.87218E+03  8.22252E+02  2.12718E+03 -2.44531E+03 -1.30529E+02 -3.59549E+02  8.65951E+02
 -1.17480E+03 -3.07285E+03 -1.79937E+03  2.27059E+03  1.21803E+02  8.38782E+01 -3.15105E+03  6.92400E+02
 -3.33885E+03  3.69931E+03  5.87140E+02 -9.40111E+02 -2.15583E+03  9.48190E+02  1.68953E+03  7.38397E+02
 -1.14467E+03 -1.78711E+03  2.49248E+03  2.51212E+03 -7.18550E+02  1.28095E+03 -1.98256E+02  3.20112E+02
  1.55405E+03 -3.16447E+03  1.91544E+03  3.25247E+02 -9.10428E+02  6.28613E+02 -1.52499E+03  4.01653E+02
  3.60300E+03 -2.62376E+02 -9.62846E+02  2.08311E+03  3.13446E+03 -3.70875E+03  2.71003E+03 -1.74567E+03
 -2.80171E+03 -2.40765E+03  3.66685E+01 -8.92175E+02 -3.61606E+03 -1.83234E+03  2.82146E+03  2.42082E+03
  9.47597E+02 -1.64467E+03 -5.40570E+03  1.01727E+03  2.57781E+03 -3.42793E+03  1.05296E+03  1.28845E+03
 -3.57821E+03  3.61870E+03 -8.90383E+02  5.35172E+03  1.06169E+03  1.84650E+03 -1.82147E+03  1.68054E+03
 -4.69902E+03  4.61272E+01 -1.00258E+03  3.33355E+03  3.35684E+03 -2.62755E+03  1.01942E+03  4.01830E+03
 -2.08079E+02  2.64839E+03 -1.95692E+03 -8.21645E+02  2.43814E+03  6.40681E+02  3.59744E+03  1.67516E+03
  1.54867E+03  1.41942E+03  2.29154E+03  9.18522E+02 -2.19195E+03 -1.22346E+02 -3.24850E+03 -1.58444E+03
  1.51787E+03  1.32955E+03 -2.45143E+02 -5.60353E+03 -2.61448E+02 -3.43835E+03 -1.80931E+03 -7.38047E+02
  3.06598E+03  1.39728E+03  3.38634E+03 -2.55880E+03  2.33312E+03 -1.96483E+03  4.22837E+02  3.04808E+03
