 $NMID ID='MM_0lb_SNR50_7hz_g55_7.RAW', FMTDAT='(8E13.5)'
 TRAMP=1., VOLUME=1. $END
  3.11703E+05 -2.67142E+03  3.36878E+05  2.51138E+05  8.50579E+04  3.43391E+05 -1.37906E+05  2.44381E+05
 -1.85901E+05  8.71846E+04 -1.10112E+05 -3.47335E+04 -2.56064E+03 -4.97177E+04  5.67477E+04 -9.50205E+02
  3.07150E+04  5.41879E+04 -1.18322E+04  7.69596E+04 -6.07657E+04  6.04677E+04 -8.64031E+04  3.22446E+04
 -8.54338E+04 -1.06620E+04 -5.99969E+04 -4.34428E+04 -2.53908E+04 -7.64753E+04  3.27987E+04 -4.89536E+04
  4.51985E+04  5.91449E+03  2.17948E+04  4.85604E+04 -3.96045E+04  4.47823E+04 -6.72380E+04  5.35805E+03
 -6.02964E+04 -5.99547E+04 -7.20618E+03 -7.90955E+04  3.59522E+04 -6.07869E+04  5.41249E+04 -2.22072E+04
  4.61130E+04  9.37001E+03  3.41527E+04  3.10045E+04  1.70594E+04  3.05587E+04 -1.32485E+04  2.95504E+04
 -1.77551E+04  1.62702E+04 -2.16681E+04 -1.44861E+04  8.82587E+03 -2.95336E+03  2.85028E+04  1.06991E+04
  1.53026E+03  4.23302E+04 -3.41100E+04  3.62481E+04 -7.03813E+04 -1.91332E+03 -6.79777E+04 -5.58530E+04
 -8.08633E+03 -6.96190E+04  4.35433E+04 -3.49084E+04  6.43390E+04 -1.81344E+03  3.83599E+04  3.03529E+04
 -4.34588E+03  4.15177E+04 -3.70275E+04  1.77172E+04 -2.73278E+04 -1.42091E+03 -2.02851E+04 -1.92807E+04
 -8.25406E+03 -7.37243E+03 -6.78765E+03 -1.61786E+04  1.03851E+04 -3.06621E+04  1.03133E+04 -1.49782E+04
  1.39095E+04  8.78391E+03 -1.32281E+04  1.14052E+04 -1.69599E+04 -2.87882E+03 -3.12559E+03 -3.50753E+04
  2.30785E+04 -4.87688E+04  5.52298E+04 -1.90280E+04  5.25476E+04  1.84770E+04  1.47628E+04  5.14404E+04
 -1.85821E+04  3.41677E+04 -2.86357E+04 -2.13534E+03 -1.30591E+04 -2.70667E+04  2.74467E+04 -3.94031E+04
  4.68925E+04 -1.14932E+04  4.08749E+04  2.13372E+04  2.19971E+04  5.12936E+04 -7.50280E+03  6.36123E+04
 -3.52016E+04  3.69072E+04 -4.65770E+04  1.18963E+04 -4.84342E+04 -1.86695E+04 -2.80886E+04 -5.36468E+04
  5.03041E+03 -3.88980E+04  3.25199E+04 -1.50240E+04  3.55173E+04  1.15785E+04 -5.34328E+02  1.93896E+04
 -1.27654E+04  3.94353E+03 -1.04512E+04 -9.04612E+03  6.40569E+03 -6.16726E+03  1.33780E+04  7.36052E+03
  1.07699E+04  2.25573E+04  3.88778E+03  3.44089E+04 -2.43299E+04  1.56939E+04 -3.33415E+04  3.23421E+03
 -3.03971E+04 -1.52454E+04 -8.40032E+03 -2.54578E+04  5.56197E+03 -2.95086E+04  2.14993E+04 -3.08562E+04
  3.64755E+04 -1.28150E+04  3.92213E+04  1.04991E+04  3.40644E+04  2.41440E+04  5.00236E+03  4.35589E+04
 -2.11799E+04  3.99174E+04 -3.17240E+04  1.76233E+04 -2.60477E+04 -9.46466E+03  5.77818E+03 -1.45812E+04
 -1.41685E+03  2.18512E+03 -9.62297E+03  6.35863E+03 -2.32342E+04  2.66891E+03 -2.88957E+04 -1.86185E+04
 -1.95409E+04 -2.94154E+04  1.11864E+04 -2.41691E+04  2.00378E+04 -2.07594E+04  2.25425E+04  4.11176E+03
  1.25502E+04  2.11264E+04 -7.58684E+03  2.53514E+04 -1.96732E+04  1.24514E+04 -3.22970E+04 -9.80894E+03
 -1.74830E+04 -2.59628E+04  2.57955E+03 -3.03916E+04  9.92266E+03 -2.72057E+04  2.24678E+04 -1.78908E+04
  1.96289E+04  9.33716E+02  1.60545E+04  4.18421E+03  1.34700E+04  4.11902E+03  1.07541E+04 -8.66487E+02
  2.43743E+04 -5.42959E+03  3.13763E+04  2.43589E+04  1.65125E+04  3.81053E+04 -7.39498E+03  5.14101E+04
 -2.31630E+04  4.43638E+04 -4.03966E+04  2.45080E+04 -5.21737E+04 -8.52210E+03 -3.99199E+04 -3.00960E+04
 -2.10082E+04 -3.91888E+04  1.22437E+04 -2.97809E+04  3.25816E+04 -1.79976E+04  2.74158E+04  1.15142E+04
  8.55151E+03  1.31325E+04 -1.71649E+04  1.56948E+04 -2.10084E+04  1.26548E+04 -1.61074E+04 -1.53699E+04
  1.21718E+03 -1.92380E+04  1.03279E+04 -1.55433E+04  1.67607E+04  1.83092E+03  1.06443E+04  1.13699E+04
 -7.06341E+02  8.09977E+03 -5.47808E+03 -6.31632E+03  2.35728E+03 -1.54987E+04  1.30009E+04 -1.97538E+04
  2.29945E+04 -1.07120E+04  2.97261E+04  4.62327E+03  2.41529E+04  1.59581E+04  1.04839E+04  4.35410E+04
 -3.60899E+03  3.75115E+04 -2.45485E+04  1.94760E+04 -2.37362E+04  5.44031E+03 -1.32759E+04 -6.02082E+03
 -4.06477E+03 -5.45328E+03 -2.82675E+02 -6.41064E+03 -5.25493E+03  7.08997E+03 -8.33197E+03  1.32832E+04
 -1.20987E+04  7.13622E+03 -1.49392E+04 -1.80761E+04 -1.16384E+04 -1.79986E+04  8.45915E+03 -2.24859E+04
  1.82753E+04 -6.91720E+02  1.21394E+04  2.25144E+03  1.51243E+03  1.17324E+04 -5.12490E+03 -3.19861E+03
 -1.11878E+04 -6.51212E+03 -3.46463E+03 -1.93187E+04  1.08036E+04 -2.41844E+04  2.19776E+04 -7.91570E+03
  2.49809E+04  4.33532E+03  1.76855E+04  1.96910E+04  9.60819E+03  1.62339E+04 -1.39143E+04  2.14130E+04
 -2.24174E+04 -1.40375E+03 -7.96028E+03 -5.38425E+02  1.80213E+03 -5.16938E+03  9.20651E+03  5.38387E+03
  6.47868E+03  1.15822E+04  5.54445E+03  1.88519E+04 -1.48556E+04  1.50803E+04 -1.75371E+04 -5.80986E+03
 -1.15988E+04 -1.45292E+04 -1.98815E+03 -1.28420E+04  1.18975E+04 -4.26101E+03  3.23287E+03  6.77364E+03
  6.17181E+03  6.36869E+03 -9.63404E+03  1.77489E+04 -1.81506E+04  5.89017E+03 -1.63162E+04 -4.52878E+03
 -6.03226E+03 -1.73519E+04  5.30885E+03 -1.62987E+04  1.89995E+04 -1.20617E+04  1.28874E+04  1.38056E+03
  1.38058E+04  1.55545E+04 -1.68527E+03  1.72872E+04 -1.43066E+04  9.38498E+03 -1.03578E+04 -8.09592E+03
 -4.52227E+03 -4.95265E+03 -7.50908E+03 -9.41781E+03  5.57836E+03 -1.51989E+04  1.08292E+04 -1.78018E+03
  2.16621E+03  4.73832E+03 -1.18121E+03 -3.77899E+03 -3.53903E+03 -7.40270E+03  4.15863E+03 -1.16664E+04
  1.56602E+04 -9.27939E+03  2.02624E+04  7.06081E+03  1.30281E+04  1.57780E+04  1.06114E+04  2.11581E+04
 -8.01242E+03  3.18192E+04 -2.54716E+04  1.99622E+04 -2.36101E+04  1.26952E+04 -2.03602E+04 -1.08768E+04
 -1.43230E+04 -2.64016E+04  3.90672E+01 -1.33267E+04  7.03240E+03 -7.43196E+03  8.57551E+03 -4.99129E+03
  1.89690E+03 -6.12227E+03  5.07998E+03 -3.83337E+03  5.78361E+03 -6.20631E+03  2.67571E+03 -5.49623E+03
  9.73501E+03  7.40954E+03  1.31482E+04  2.07679E+04 -8.61969E+03  2.16783E+04 -1.76895E+04  1.14560E+04
 -1.96493E+04 -7.15753E+03 -7.04170E+03 -8.09267E+03 -1.42291E+03 -2.32360E+04  1.47357E+04 -1.70426E+04
  1.96854E+04 -1.23970E+04  2.37358E+04  5.50937E+03  1.32685E+04  1.26500E+04  5.33037E+03  1.66742E+04
 -7.90534E+03  1.53483E+04 -8.34726E+03  6.30511E+03 -8.88914E+03 -1.91614E+03 -5.04456E+03 -2.79275E+03
  9.60040E+02 -3.09470E+03 -2.62839E+03  3.58376E+03 -8.90070E+02  5.17836E+03 -1.48111E+04  7.57655E+01
 -1.20765E+04 -1.54199E+04  8.78607E+02 -2.08533E+04  1.72485E+04 -1.86902E+04  1.73053E+04 -2.15598E+03
  2.40890E+04  6.79368E+03  9.17121E+03  1.60470E+04  2.08183E+03  1.27114E+04 -8.11187E+03  1.04776E+04
 -1.83378E+04  4.48225E+03 -1.59981E+04 -8.98735E+03  2.93309E+02 -1.61844E+04  1.32078E+03 -7.57442E+03
  1.95185E+04  3.13078E+03  1.07007E+04 -1.81275E+03  1.30143E+03  7.26864E+03 -1.65025E+03  8.00632E+03
 -4.04222E+03 -2.18932E+03  7.18017E+03 -1.72759E+03  7.33896E+03  8.15626E+03  6.88489E+03  1.15272E+04
 -4.65060E+03  1.30039E+04 -1.29623E+04  2.19291E+04 -1.98950E+04  3.91334E+03 -2.27928E+04 -3.46408E+03
 -1.07486E+04 -2.43287E+04 -5.96093E+01 -2.68155E+04  1.90726E+04 -1.23616E+04  2.32440E+04 -2.23900E+03
  8.50801E+03  6.01102E+03 -4.25735E+01  1.88256E+04 -5.04752E+03  7.18517E+03 -3.09365E+03 -2.12822E+02
 -4.43166E+03 -1.50947E+04  4.60267E+03 -1.10811E+04  1.11377E+04 -2.93264E+03 -4.39743E+02  6.39207E+03
  6.87462E+03  5.11873E+03  5.60611E+03  3.70380E+02  3.02847E+03  6.32254E+03 -1.35408E+02  3.68313E+03
  6.21632E+03  3.53725E+03  3.76221E+03 -1.65697E+03  3.36861E+03  7.07436E+03  2.43909E+03  9.51879E+03
 -5.31495E+03  5.69984E+03 -1.73429E+04  5.46933E+03 -8.80418E+03  1.42063E+03 -5.53527E+03 -1.55699E+04
  7.94486E+02 -7.21216E+03  3.56730E+03 -3.90138E+03  1.64647E+03  4.77844E+03 -2.72216E+02  9.56964E+03
 -9.92806E+03  5.63014E+03 -1.16069E+04 -5.92475E+03 -1.29890E+04 -1.38363E+04  9.28868E+03 -8.49512E+03
  1.28654E+04 -1.16564E+04  4.89960E+03 -1.90938E+03  9.25648E+03  6.80878E+03 -1.94678E+03  9.84550E+03
 -4.14330E+02  3.36679E+03 -2.95305E+03 -5.65890E+03 -7.03428E+02 -1.23685E+04  1.06429E+04 -7.05342E+03
  2.12648E+04 -6.08658E+03  1.06838E+04  5.29486E+03  7.67223E+03  1.12518E+04 -8.88573E+03  1.32586E+04
 -8.19927E+03  1.14283E+03 -1.23139E+04 -9.56042E+01 -6.86093E+03 -3.52819E+03 -1.84176E+03 -8.60338E+03
  1.03203E+04 -8.55536E+03  1.04059E+04  6.03340E+03  9.06182E+03 -4.60061E+02  1.54330E+03  5.49246E+03
 -5.75409E+03  8.15533E+02  1.93816E+03 -2.40829E+02 -5.69639E+03  3.71460E+03 -9.94533E+02  1.06486E+03
 -4.26148E+03  3.80463E+03 -1.20813E+04  7.84509E+03 -1.54967E+04  2.41024E+03 -1.24499E+04 -1.02358E+04
 -1.43200E+04 -2.87012E+04  4.29548E+03 -2.69800E+04  1.37514E+04 -1.49108E+04  2.47305E+04  5.60201E+02
  1.84700E+04  2.39076E+03  1.58688E+04  1.35692E+04  3.06473E+03  2.16202E+04 -7.35357E+03  9.11799E+03
 -5.58066E+03  6.91745E+03 -1.61497E+03  2.68174E+03 -8.43056E+03 -2.99052E+03  3.15038E+02  8.93912E+03
 -9.16624E+03  1.85132E+03  3.09699E+03 -1.14507E+03 -5.97410E+03 -5.32653E+03  8.43821E+01 -1.02184E+04
  1.09483E+04 -3.93065E+03  1.42044E+04 -3.42483E+03  1.09741E+04  7.21824E+03  6.66910E+03  1.73449E+04
 -1.60249E+04  2.42212E+04 -1.94524E+04  7.16324E+03 -1.99837E+04 -4.24017E+03 -2.34954E+04 -1.00739E+04
  4.00322E+02 -1.84461E+04  4.16949E+03 -1.59865E+04  1.52536E+04 -4.12273E+03  1.11809E+04 -8.47373E+02
  3.92793E+03  3.49999E+03  3.34183E+03  4.19687E+03 -5.35986E+02  1.89439E+03 -2.62760E+03 -3.24367E+03
  3.25341E+03 -5.62482E+03  4.54952E+03  5.35876E+03  3.99918E+03  5.89230E+03  6.28813E+02  3.24301E+03
 -8.90366E+03  8.12849E+03 -3.41862E+03  1.02480E+02 -8.91128E+03 -4.21512E+03 -1.14192E+04 -1.81425E+04
  8.35286E+03 -9.83421E+03  1.41313E+04 -4.58927E+03  1.49490E+04  7.78025E+03  3.16273E+03  4.29585E+03
  2.83493E+03  1.59921E+04  1.26712E+03  1.05637E+04 -5.15314E+03  1.06665E+04 -1.13952E+04  2.73879E+03
  3.69605E+03  4.53002E+03 -5.33287E+02  8.32803E+03 -6.33215E+03  7.51439E+03 -1.13960E+04  5.18273E+03
 -8.94142E+03 -1.02572E+04  3.15718E+02 -1.65955E+04  1.20114E+04 -1.20541E+04  5.64602E+03 -5.64383E+03
  7.95819E+03  4.85764E+03  3.47818E+03  9.58607E+03  6.38761E+03  8.05788E+03 -7.33211E+03  2.19528E+03
