 $NMID ID='MM_0lb_SNR50_15hz_g50_21.RAW', FMTDAT='(8E13.5)'
 TRAMP=1., VOLUME=1. $END
  3.14609E+05 -2.73175E+02  3.39979E+05  2.53949E+05  8.22818E+04  3.38748E+05 -1.31169E+05  2.47493E+05
 -1.86903E+05  8.15733E+04 -1.14714E+05 -3.22471E+04  1.64597E+03 -5.41850E+04  5.45480E+04 -3.83797E+02
  3.67574E+04  6.11978E+04 -1.83257E+04  7.58751E+04 -6.26144E+04  6.40659E+04 -8.81359E+04  3.32501E+04
 -7.49533E+04 -1.43353E+04 -5.92350E+04 -5.39055E+04 -1.57102E+04 -7.06517E+04  3.17719E+04 -4.53247E+04
  4.13467E+04  9.96320E+02  1.33539E+04  4.83860E+04 -3.15778E+04  4.80717E+04 -6.25375E+04  2.34949E+03
 -5.49572E+04 -5.47607E+04 -1.07813E+04 -7.66338E+04  3.22288E+04 -4.91723E+04  4.62462E+04 -1.47675E+04
  3.91473E+04  1.03833E+04  2.90268E+04  2.43489E+04  1.78631E+04  3.10190E+04 -8.78400E+03  2.64948E+04
 -2.48831E+04  1.40253E+04 -1.98890E+04 -6.31952E+03  5.73044E+03 -9.23376E+03  1.82169E+04  9.65510E+03
  6.69350E+03  3.41704E+04 -3.02735E+04  3.36737E+04 -5.82794E+04  2.29147E+03 -5.50150E+04 -4.42253E+04
 -1.42253E+04 -6.50765E+04  3.99448E+04 -4.95604E+04  5.80220E+04 -1.24635E+03  3.87227E+04  3.44719E+04
 -4.15446E+03  3.18922E+04 -3.32961E+04  1.02968E+04 -2.83377E+04 -1.13562E+04 -1.27813E+04 -1.12469E+04
 -5.45151E+03 -1.43504E+04  6.16900E+03 -1.95149E+04  8.57985E+03 -2.68262E+04  1.32011E+04 -9.80174E+03
  1.47565E+04  8.28004E+03 -8.50493E+03  8.86431E+03 -2.22581E+04 -2.90073E+03 -1.29391E+04 -3.31668E+04
  2.38928E+04 -4.28920E+04  4.50266E+04 -2.20349E+04  4.55801E+04  2.00297E+04  6.78244E+03  4.33257E+04
 -1.98110E+04  3.50610E+04 -2.25929E+04 -1.42879E+02 -1.19138E+04 -2.57480E+04  2.33054E+04 -3.41389E+04
  4.11462E+04 -5.83394E+03  3.29398E+04  2.12528E+04  1.87682E+04  4.74703E+04 -8.52090E+03  5.03892E+04
 -2.75030E+04  3.23662E+04 -3.82654E+04  1.13051E+04 -3.92447E+04 -1.62195E+04 -2.49307E+04 -3.90235E+04
  2.92973E+03 -3.87662E+04  2.98672E+04 -1.61260E+04  2.56161E+04  4.66256E+03  3.50916E+03  2.25601E+04
 -1.07997E+04  8.74401E+03 -1.21553E+04 -3.38644E+03  5.98671E+03 -1.12250E+04  2.21545E+04  5.12413E+03
  1.52282E+04  2.11117E+04 -1.72309E+03  2.31006E+04 -1.96030E+04  1.34664E+04 -2.99144E+04  4.81859E+01
 -2.42511E+04 -2.11743E+04 -7.48323E+03 -1.76939E+04  5.83387E+03 -1.93469E+04  1.69215E+04 -1.44365E+04
  2.84135E+04 -1.55469E+04  3.09017E+04  7.13368E+03  2.33413E+04  1.60131E+04  4.72425E+03  3.74032E+04
 -1.78424E+04  2.87693E+04 -2.93671E+04  8.18199E+03 -2.11454E+04 -1.04258E+04 -6.15068E+03 -1.79588E+04
 -7.48685E+02  2.69759E+02 -4.69283E+02  2.29813E+03 -1.84968E+04  2.18214E+03 -1.52098E+04 -9.35277E+03
 -1.03460E+04 -1.81407E+04  4.52054E+03 -2.10403E+04  1.36758E+04 -1.49331E+04  1.69898E+04 -1.33754E+03
  1.24629E+04  1.25819E+04 -2.96955E+03  1.51602E+04 -1.24632E+04  7.92972E+03 -1.46063E+04 -4.09461E+03
 -1.09033E+04 -1.85977E+04  3.84985E+02 -2.59550E+04  9.39428E+03 -1.84067E+04  1.96546E+04 -1.03476E+04
  1.73367E+04  6.12273E+02  1.19453E+04  1.30940E+03  8.21207E+03 -3.36177E+03  1.28725E+04 -8.87709E+02
  1.22789E+04 -3.07712E+02  1.64242E+04  1.30430E+04  1.01920E+04  2.55743E+04 -3.18247E+03  3.28149E+04
 -2.07907E+04  2.69199E+04 -2.71777E+04  5.49446E+03 -3.07249E+04 -3.27848E+03 -2.66615E+04 -2.53331E+04
 -1.42880E+04 -2.33805E+04  9.15303E+03 -2.51868E+04  2.76379E+04 -1.13685E+04  1.76348E+04  2.67700E+03
  5.28611E+03  1.57446E+04 -1.11358E+04  9.06081E+03 -1.45129E+04 -1.53274E+03 -1.13874E+04 -5.07062E+03
 -6.28001E+02 -1.67078E+04  7.38332E+03 -1.28557E+04  1.08770E+04 -5.00539E+03  2.04072E+03  8.30762E+03
 -9.45801E+03  5.22333E+03 -7.43867E+03 -2.21067E+03  1.15749E+02 -1.24501E+04  1.01660E+04 -1.23840E+04
  1.81009E+04 -1.03063E+04  1.94381E+04  5.27420E+03  1.28200E+04  1.45725E+04  6.79316E+03  1.97650E+04
 -5.43845E+03  2.12897E+04 -1.34382E+04  1.35092E+04 -1.41226E+04  2.12903E+03 -6.73722E+03 -1.75789E+03
  2.90955E+02 -4.97290E+03  1.68477E+02  5.04858E+03 -1.72520E+03  6.08230E+03 -7.43249E+03  4.53813E+02
 -1.03690E+04 -6.65124E+02 -6.34811E+03 -5.06937E+03 -4.01467E+03 -1.45552E+04  4.97343E+03 -7.15227E+03
  1.52592E+04 -1.05198E+04  9.75121E+03  6.58059E+03 -7.32347E+02  5.97366E+03 -6.58115E+03 -3.49679E+03
 -3.59496E+03 -6.73697E+03 -7.55192E+02 -1.06944E+04  4.18054E+03 -1.26777E+04  1.49462E+04 -1.90123E+03
  1.29658E+04  8.36204E+02  1.13748E+04  8.20946E+03  2.48777E+03  1.37268E+04 -1.10402E+03  1.44162E+04
 -3.93220E+03  1.58289E+03 -1.96486E+03 -3.89840E+03  2.27002E+03  1.45810E+03  3.21048E+03 -7.55385E+03
  1.93856E+03  1.07160E+04 -6.10352E+02  5.83432E+03 -8.82137E+03  1.63101E+04 -7.66354E+03  5.90897E+03
 -4.80763E+03 -5.90538E+03  4.10882E+03 -7.45088E+03  4.50077E+03 -4.44730E+03  2.27394E+03  4.24712E+03
  5.84550E+03  6.15298E+03 -3.82874E+03  1.05753E+04 -5.56720E+03  2.86012E+03 -9.54062E+03 -6.16788E+03
 -2.17813E+03 -8.71052E+03 -9.53301E+01 -1.34786E+04  9.75407E+03 -6.81594E+03  8.39792E+03  1.65223E+03
  7.28485E+03  8.88762E+03 -5.32461E+02  6.07214E+03 -1.35240E+03  4.28042E+03 -7.36837E+03  3.64585E+03
 -9.90725E+03 -8.77565E+03 -2.72675E+03 -5.28689E+03  2.86723E+03 -8.36219E+03 -6.10236E+02 -3.23804E+03
  6.17405E+03  2.05490E+03  3.75341E+02  3.62993E+03 -2.15768E+03 -2.41280E+03  1.26001E+03 -2.30763E+03
  2.65379E+03 -2.93339E+03  9.97132E+03  4.14131E+03  1.16392E+04  7.61270E+03  5.74676E+03  9.27451E+03
 -3.44683E+03  1.52007E+04 -1.06085E+04  1.05345E+04 -1.34233E+04  2.06184E+03 -1.32163E+04 -7.61605E+03
 -6.12760E+03 -5.08890E+03 -1.74158E+03 -5.12772E+03  5.00907E+03 -2.51834E+03 -9.03198E+02 -3.95759E+03
 -9.93033E+02  2.82742E+03  2.26936E+03 -7.75608E+03 -1.22929E+03 -1.84872E+03  6.39596E+03 -2.79951E+03
  7.23431E+03 -1.82923E+03  3.14819E+03  5.04248E+03  3.96236E+03  7.20177E+03 -5.27756E+03  3.00706E+03
 -7.52474E+03 -6.26661E+02 -4.04478E+03 -8.98652E+03 -2.51274E+03 -1.28704E+04  3.17039E+03 -6.88130E+03
  4.86220E+03 -9.80660E+03  1.21987E+04 -7.11855E+02  7.96606E+03  6.00420E+03  9.08061E+02  7.36567E+03
 -2.72313E+03  1.21332E+04 -3.60436E+03  3.29346E+03 -5.29263E+03 -3.66532E+02 -3.61575E+03 -1.96303E+03
  1.22985E+03 -1.15571E+03  6.40601E+03  7.45733E+03  1.82792E+02  4.37527E+03 -8.26293E+03 -6.11333E+03
  2.68203E+02 -3.36879E+03 -6.96887E+02 -8.98375E+03  2.41532E+03 -7.95924E+03  1.14905E+04 -2.12608E+03
  1.16552E+04 -5.91721E+01 -5.71380E+02  7.05886E+03 -1.42771E+03  4.24322E+03 -4.25146E+03  2.31254E+03
 -5.09588E+03 -1.22469E+03 -5.61958E+03 -9.17116E+03  1.84273E+03 -9.11083E+03  2.82512E+03 -2.15810E+03
  5.17836E+03  2.59478E+02  1.03266E+04 -2.52790E+03 -1.08169E+03  4.25765E+03 -1.18591E+03 -1.67766E+03
  9.14643E+02 -1.91673E+02  6.82143E+03  4.36476E+03  2.56108E+03  4.91132E+03  3.39500E+03  2.29285E+03
 -1.44864E+03  3.64841E+03  2.54613E+02  5.80783E+03 -9.17825E+03  6.53476E+03 -1.48950E+03  1.40966E+02
 -4.56190E+03 -2.61512E+03  3.61931E+03 -7.61215E+03  4.18602E+03 -3.38929E+03  5.84113E+03  1.61522E+03
 -9.01635E+02  4.20209E+03 -4.16633E+03  3.13374E+03 -1.67737E+03  2.00746E+03  2.95681E+03 -2.64083E+03
  7.90076E+02 -8.06085E+03 -1.39862E+03 -5.66800E+03  1.03596E+03  1.04630E+03  1.10520E+03 -2.81016E+03
  4.63555E+03 -6.90459E+02  1.49239E+03  9.33314E+02 -6.38822E+03  1.31778E+03 -1.33259E+03  1.36868E+03
  1.81615E+03 -5.18669E+02  5.83981E+03  1.20227E+03  3.49308E+03  4.06483E+03 -3.37892E+03  2.01855E+03
 -1.65038E+03  1.81981E+03 -4.51192E+03  2.18575E+03 -1.86173E+03 -6.12840E+03 -3.37253E+03  8.66758E+02
 -5.68876E+02  8.13197E+01  1.62895E+03 -1.10389E+03 -4.17980E+02 -2.58005E+03 -4.38122E+02  5.56064E+02
 -3.51959E+03  3.28494E+02  2.15078E+03 -1.89496E+03  1.41487E+03 -5.54090E+03  5.47932E+03 -2.77332E+03
  3.50228E+03  2.93214E+02  2.18937E+03  1.90922E+03  4.97617E+02  9.51063E+02  1.54391E+03  2.76375E+03
 -4.46932E+03 -3.30875E+03 -2.00854E+03  1.51999E+02 -3.36081E+03 -3.37369E+03  9.95894E+02  1.34523E+02
  2.73000E+03  1.42143E+03  4.51828E+03  2.44645E+03  1.77479E+03 -1.14832E+02 -5.68113E+03  3.26788E+03
 -7.79675E+03  3.41214E+03 -5.86518E+02  1.95567E+03 -2.48327E+03 -4.48585E+03  3.07947E+03 -1.19201E+03
  4.65906E+03 -2.40025E+02  3.96173E+03 -3.42183E+03  3.45198E+02  5.09593E+03  6.63914E+01  2.15804E+03
 -1.80636E+03  8.89104E+02 -2.18621E+03 -1.84240E+03 -3.07410E+03  2.25919E+01 -5.61363E+03  2.06306E+03
  1.73052E+03  2.30442E+03 -1.91180E+03 -2.51096E+02 -1.54520E+03 -8.14151E+02 -7.99301E+02 -5.71616E+03
  7.11593E+02 -6.07646E+03  8.50548E+02 -8.65349E+03  6.95420E+03 -4.78033E+03  2.48114E+03 -1.55989E+02
  4.10277E+03 -8.00509E+02 -4.10936E+03 -1.87777E+03 -2.79220E+02 -2.77524E+03 -2.80963E+03 -2.26653E+03
  1.47037E+02  3.77679E+03 -1.33086E+03  4.14933E+03  3.23960E+02  2.14556E+03 -2.36653E+03 -2.96623E+03
  3.18622E+03  2.92469E+03  3.57610E+03  1.95541E+03  4.10546E+03 -4.26901E+03  7.04378E+02  1.69879E+03
  1.73904E+03 -3.22771E+03  5.87808E+02 -6.83168E+02  6.71394E+03  2.11788E+03  8.93157E+02  6.04534E+03
  2.96415E+02  6.25317E+03 -2.63493E+03  3.53441E+03 -5.34787E+03 -1.21174E+03 -1.54694E+03 -2.47274E+03
  3.20520E+02  3.64217E+03  2.12732E+02  3.01497E+02  3.20350E+03 -1.71309E+03  3.91135E+03  1.83854E+03
  6.39395E+02 -1.58574E+03  3.00730E+03  6.47147E+02 -1.86571E+03  2.99915E+03 -1.17915E+03  1.95753E+03
 -2.39007E+03  1.85531E+03  8.50161E+02  3.11006E+03  2.80099E+03 -1.12741E+03  1.57974E+03 -2.36623E+03
 -4.33036E+03  5.18899E+02  7.60799E+02 -2.64388E+03  2.83956E+02  1.22851E+03 -2.02318E+03 -3.83676E+03
  3.39216E+03 -1.60444E+03  3.83870E+03 -6.82930E+02  2.32429E+03  7.65434E+02  1.02396E+03  2.64071E+03
  3.05485E+03  3.57395E+03 -2.56285E+03 -2.12722E+03  2.11646E+03  3.20378E+03 -2.16700E+03  1.72730E+03
 -2.60459E+03  1.71205E+03 -9.49742E+02 -1.52413E+03 -1.03104E+01  3.06106E+03 -5.20546E+03  2.27628E+03
 -5.21541E+03  4.73642E+03  3.92729E+03 -4.09398E+03  2.23544E+03 -3.67845E+03  5.87960E+03 -2.61069E+03
 -2.34641E+03 -2.04292E+03  3.97182E+03 -1.30585E+03  2.22809E+03  4.60701E+03  1.90162E+03  4.81490E+03
