 $NMID ID='MM_0lb_SNR50_9hz_g55_46.RAW', FMTDAT='(8E13.5)'
 TRAMP=1., VOLUME=1. $END
  3.12371E+05  2.57371E+03  3.38752E+05  2.49806E+05  8.87126E+04  3.38443E+05 -1.31286E+05  2.53825E+05
 -1.91859E+05  8.73162E+04 -1.12317E+05 -3.07053E+04 -6.93106E+01 -4.88441E+04  4.62845E+04 -2.17105E+03
  3.31759E+04  5.74766E+04 -1.85688E+04  7.33342E+04 -5.79593E+04  6.29710E+04 -8.93634E+04  3.12267E+04
 -8.60755E+04 -1.27624E+04 -6.01319E+04 -5.13957E+04 -2.09848E+04 -6.91917E+04  2.31993E+04 -5.08399E+04
  3.79800E+04  2.69679E+03  1.07350E+04  4.90267E+04 -3.29751E+04  4.63292E+04 -6.17294E+04  3.18524E+03
 -5.41376E+04 -5.61686E+04 -3.58782E+03 -8.18585E+04  3.93593E+04 -6.05889E+04  4.94903E+04 -1.92629E+04
  4.15720E+04  1.02068E+04  3.10453E+04  2.42611E+04  1.57287E+04  3.21461E+04 -5.64762E+03  2.71965E+04
 -2.20691E+04  5.47849E+03 -1.76314E+04 -2.17257E+03  6.77144E+03 -1.36763E+04  1.15877E+04  1.61071E+04
  5.99149E+03  3.99911E+04 -3.15043E+04  3.75007E+04 -6.28372E+04 -3.54194E+03 -5.83781E+04 -4.83231E+04
 -1.05882E+04 -6.98879E+04  4.24837E+04 -4.15528E+04  6.89045E+04 -5.57147E+03  4.11410E+04  3.48839E+04
 -6.33347E+03  3.72440E+04 -3.17537E+04  2.29689E+04 -4.24451E+04 -1.21614E+02 -1.70334E+04 -2.14601E+04
 -4.74663E+03 -2.08226E+04 -6.01301E+03 -1.47234E+04  1.14781E+04 -1.76101E+04  1.44953E+04 -1.22726E+04
  6.76070E+03 -2.20251E+03 -1.75291E+04  1.11345E+04 -2.44646E+04 -1.18001E+04 -1.28692E+04 -3.76518E+04
  3.06285E+04 -5.11886E+04  5.06100E+04 -1.95854E+04  4.94610E+04  2.21344E+04  2.29828E+04  4.58500E+04
 -2.08707E+04  3.50281E+04 -2.65414E+04  2.70739E+03 -8.67344E+03 -3.20082E+04  2.66347E+04 -3.83671E+04
  4.07202E+04 -1.30367E+04  4.00947E+04  2.86933E+04  2.66245E+04  5.00577E+04 -3.47341E+03  5.52643E+04
 -3.40306E+04  4.19759E+04 -4.33895E+04  9.20610E+03 -6.33867E+04 -1.95440E+04 -3.03646E+04 -3.63857E+04
  1.13611E+04 -4.02024E+04  3.11995E+04 -2.40302E+04  3.12243E+04  9.35025E+03  7.12201E+03  1.76892E+04
 -1.11125E+04  6.93048E+03 -5.92132E+03 -1.33704E+04  2.53358E+03 -6.40990E+03  1.72668E+04 -1.19395E+03
  1.24001E+04  2.40836E+04 -5.86870E+02  2.86503E+04 -2.92730E+04  1.20145E+04 -3.57513E+04 -2.75318E+03
 -2.67170E+04 -2.00532E+04 -9.34921E+03 -1.85450E+04 -1.90372E+03 -2.76243E+04  2.17994E+04 -2.72946E+04
  3.08466E+04 -2.09852E+04  3.73669E+04  8.97528E+03  2.87825E+04  2.91285E+04  1.18754E+04  3.98300E+04
 -2.38482E+04  3.31577E+04 -3.19804E+04  1.18824E+04 -2.17415E+04 -1.29369E+04 -2.47780E+03 -5.86233E+03
  5.79429E+01 -3.00255E+03 -1.42941E+03  6.07508E+03 -2.28354E+04  3.97175E+03 -1.56903E+04 -7.98033E+03
 -1.27732E+04 -2.10562E+04 -6.94512E+02 -3.04368E+04  2.44413E+04 -1.77971E+04  2.47950E+04  8.54223E+02
  2.16958E+04  2.16532E+04 -3.62741E+02  2.87117E+04 -1.38831E+04  8.92472E+03 -2.37815E+04 -2.13646E+03
 -2.09547E+04 -2.17936E+04 -2.23607E+03 -2.74764E+04  2.00385E+03 -1.70156E+04  2.05569E+04 -1.65028E+04
  1.97605E+04 -4.04003E+03  1.00853E+04  4.22720E+03  1.42988E+04  3.55143E+03  9.15183E+03 -1.77458E+03
  2.26879E+04 -3.64595E+03  2.38912E+04  2.89896E+04  1.91332E+04  4.34319E+04  1.03319E+03  4.70727E+04
 -3.03497E+04  3.95104E+04 -4.86823E+04  2.06798E+04 -4.59123E+04  1.28881E+03 -3.87715E+04 -2.28029E+04
 -1.25095E+04 -2.98606E+04  1.15383E+04 -2.95148E+04  3.20223E+04 -8.57694E+03  2.61095E+04  7.37953E+03
  7.27506E+03  2.44877E+04 -8.54973E+03  1.66239E+04 -2.42768E+04  9.39282E+01 -9.52202E+03 -1.26496E+04
 -6.05343E+01 -2.49196E+04  1.70902E+04 -1.29562E+04  1.46107E+04  5.71497E+03  4.52339E+02  8.33930E+03
 -5.59478E+03  1.39662E+03 -8.36971E+03 -7.29650E+03 -1.01371E+03 -2.28056E+04  1.67715E+04 -2.14646E+04
  2.19118E+04 -6.85984E+03  2.52744E+04  3.31957E+03  2.68912E+04  1.71716E+04  8.30651E+03  3.10670E+04
 -3.84183E+03  3.22558E+04 -2.09443E+04  1.11822E+04 -1.79482E+04  1.04693E+04 -1.27531E+04 -6.19840E+03
 -2.03285E+03 -7.75868E+03 -7.00164E+03  6.05892E+02 -6.12793E+02  5.63213E+03 -7.85970E+03  1.60451E+03
 -1.15082E+04 -2.02335E+03 -2.19159E+04 -5.75939E+03 -1.60414E+03 -2.16764E+04  5.26139E+03 -1.47178E+04
  1.01172E+04 -3.59027E+03  1.13455E+04  4.16244E+03 -2.72301E+03 -1.25878E+02 -6.09419E+03 -2.02640E+03
 -9.50263E+03 -1.06718E+04 -5.48536E+03 -1.34003E+04  8.28360E+03 -1.50345E+04  1.28883E+04 -7.80725E+03
  2.67356E+04 -5.58067E+01  1.69269E+04  2.19896E+04 -2.45194E+03  2.48241E+04 -1.36418E+04  1.17401E+04
 -1.25457E+04  5.99439E+03 -5.19762E+03 -4.55819E+02  4.10677E+03  5.19883E+02  7.64369E+03 -1.75468E+03
  5.49044E+03  8.13089E+03  6.15022E+03  9.23367E+03 -6.06777E+03  1.21953E+04 -1.43891E+04  1.95090E+03
 -1.74509E+04 -1.60841E+04  2.15300E+03 -1.88477E+04  7.87458E+03 -1.20085E+04  5.73687E+03  1.61106E+03
 -2.77675E+03  3.82996E+03 -8.65201E+03  9.94078E+03 -8.31418E+03  2.61086E+03 -1.64634E+04 -5.09836E+03
 -1.10347E+04 -1.46776E+04 -1.49918E+03 -1.49180E+04  1.73875E+04 -1.53625E+04  2.11386E+04  5.68548E+02
  1.46825E+04  1.23481E+04 -3.16266E+03  1.97381E+04 -5.81666E+03  8.25396E+03 -6.97571E+03 -5.84427E+02
 -9.71072E+03 -1.28708E+04 -8.47619E+03 -1.17278E+04  5.48206E+03 -7.35811E+03  6.20172E+03 -6.98589E+03
  2.08586E+03  2.76863E+03  3.68923E+03  2.09357E+03  1.36319E+02 -7.09979E+03  2.64193E+03 -7.74754E+03
  1.07613E+04 -2.15572E+03  2.18425E+04  5.52590E+03  1.30276E+04  6.51297E+03  1.23037E+04  1.42760E+04
 -2.51945E+03  2.17384E+04 -1.74552E+04  1.54353E+04 -2.45558E+04  4.86967E+03 -1.51674E+04 -1.34992E+04
 -1.44571E+04 -2.29544E+04  2.65546E+03 -1.65639E+04  3.38931E+03 -1.20415E+04  2.70803E+03 -7.40326E+03
  6.13404E+03 -3.99952E+03  6.83796E+03 -7.61200E+03  2.07646E+03 -6.13081E+03  8.71174E+02 -5.59250E+03
  1.52218E+04  1.27725E+04  1.78439E+03  8.97271E+03 -6.99173E+03  1.18085E+04 -8.47426E+03  1.79143E+04
 -9.35393E+03 -2.19404E+02 -5.45694E+03 -1.79204E+04 -4.78059E+03 -1.35615E+04  1.41760E+04 -1.32491E+04
  9.46342E+03 -6.18405E+03  9.54634E+03 -8.59556E+02  1.81460E+04  1.19046E+04 -5.21311E+03  2.18917E+04
 -1.34006E+04  1.78624E+04 -1.04131E+04  1.05729E+04 -3.54307E+03 -2.20441E+03  2.43460E+03 -4.30931E+03
 -3.69839E+03 -4.04449E+03 -3.64888E+03  2.11758E+03 -1.22282E+03  5.53312E+03 -1.30547E+04 -3.80899E+03
 -1.24805E+04 -9.88442E+03 -4.01016E+03 -2.10371E+04  8.59154E+03 -8.87654E+03  2.00672E+04  1.90454E+03
  1.39121E+04  5.23260E+03  5.20052E+03  2.24035E+04  3.58988E+03  1.65587E+04 -9.42991E+03  1.86100E+04
 -1.37036E+04 -5.56667E+03 -1.41327E+04 -1.63483E+04 -1.10017E+04 -1.18566E+04  5.50431E+03 -5.13621E+03
  9.52642E+03  7.00065E+02  8.58951E+03  3.78796E+02  3.20158E+03  7.57251E+02  8.22314E+01  5.24696E+03
  2.55240E+03 -2.93450E+03  4.97023E+02  5.45543E+03  6.81901E+03  7.40521E+03  5.21782E+03  1.00513E+04
 -5.60222E+02  9.56302E+03 -1.14232E+04  8.18867E+03 -1.59537E+04  3.08104E+03 -1.55882E+04 -6.45966E+03
 -3.24971E+03 -9.94427E+03  9.35885E+03 -1.96589E+04  1.42525E+04 -1.10338E+04  9.81165E+03 -7.17852E+03
  1.35645E+04  6.42152E+03  4.06839E+03  9.30654E+03 -2.93793E+03  9.83548E+03 -8.99906E+03  3.93307E+02
  3.61952E+03 -9.75274E+03  6.93386E+03 -6.22262E+03  1.18702E+04 -3.84756E+03  5.93219E+02  1.19377E+03
  8.66962E+03 -5.03311E+03 -4.33531E+03  4.96514E+03  2.51983E+03  7.57041E+03  3.50412E+03  2.90494E+03
  6.55872E+03 -7.04414E+03  5.28520E+03 -9.59359E+02  2.90944E+03  2.07459E+03  4.70967E+03  4.97579E+03
 -2.60451E+03  7.13270E+03 -8.96777E+03  3.61721E+03 -7.93631E+03 -2.15575E+03 -4.62274E+03 -1.12095E+04
 -1.01354E+03 -7.74987E+03  1.74848E+01 -6.21503E+03  2.67595E+02  5.36677E+03 -6.43630E+02  4.31662E+03
 -6.09068E+03  3.48542E+03 -5.63470E+03  2.52912E+02 -4.37894E+03 -1.04222E+04  1.42042E+03 -7.57804E+03
  7.71592E+03 -8.01918E+03  8.08224E+03 -2.82566E+03  4.98671E+03  3.03554E+03  3.43824E+03  2.17990E+03
  6.07979E+02  3.32858E+03 -3.18400E+03 -2.51064E+03  4.85070E+03 -4.60381E+03  6.22075E+03 -4.58199E+03
  5.36577E+03  1.37237E+03  1.07681E+04  4.00935E+03  2.03737E+03  1.45769E+04 -5.69795E+03  1.01749E+04
 -8.84476E+03  2.48100E+03 -6.17180E+03 -4.54041E+03  2.88810E+02 -6.69072E+03 -2.61556E+03 -6.55573E+03
  6.97870E+03 -6.42693E+03  3.94764E+03 -8.89264E+02  8.93033E+03  7.61544E+03 -3.47283E+03  6.44107E+03
 -8.12722E+03  4.46388E+03 -4.15483E+03 -4.14745E+03 -6.81739E+03  1.52504E+03 -1.16357E+03 -4.20289E+03
 -3.13909E+03  1.71969E+03 -4.14600E+03  2.79073E+03 -7.95975E+03 -4.47012E+03 -8.81905E+03 -1.17497E+04
 -1.04087E+04 -1.31011E+04  8.39102E+03 -2.06015E+04  1.32181E+04 -1.74928E+04  1.18589E+04 -5.28942E+03
  1.26637E+04  1.10397E+03  6.81656E+03  5.04172E+03  2.24704E+02  6.93001E+03 -5.13150E+03  8.98473E+03
 -5.68339E+03 -2.56892E+03 -4.18114E+03 -6.54682E+03 -4.56884E+03  2.04130E+03 -3.57013E+03  1.88296E+03
  1.31075E+03  4.18089E+03 -4.26434E+03  1.10359E+03 -4.09316E+03 -4.43203E+02 -2.46191E+03 -3.53699E+03
  1.66171E+03 -4.56925E+03  9.42909E+03 -2.19178E+03  4.84519E+03  5.54338E+03  7.62266E+03  1.19282E+04
 -1.46221E+03  7.52063E+03 -1.16051E+04  6.89804E+03 -1.13313E+04  1.91332E+03 -1.34099E+04 -1.50509E+04
 -3.89041E+03 -8.10789E+03  3.33517E+02 -1.31358E+04  3.70456E+03 -9.66863E+03  5.23160E+03  6.16475E+01
  5.93929E+03  7.19450E+02  1.72037E+03  4.83936E+03 -6.41553E+01 -1.18201E+04  2.46375E+03 -9.47600E+02
  6.09945E+01 -5.44587E+03  2.50708E+03  6.68740E+03  3.46552E+03  3.32817E+03  4.11990E+02  7.10506E+03
 -5.46695E+03  4.84094E+03 -1.03962E+04  4.89193E+03 -1.32918E+04 -8.02124E+03 -1.42117E+03 -7.32755E+03
  8.88252E+03 -1.23829E+04  1.60299E+04 -8.94635E+03  1.26530E+04  6.29133E+03  7.75267E+03  5.63521E+03
  1.06639E+03  1.05202E+04 -4.97369E+03  1.59871E+03 -5.81634E+03  5.37812E+03 -5.76587E+03  4.65439E+03
  2.42090E+03  2.33953E+03 -3.68919E+03  2.69432E+03 -8.55651E+02  2.59224E+03 -8.67676E+02  2.26813E+03
 -3.97402E+03  1.10178E+03 -6.04553E+03 -8.91178E+03  6.03523E+03 -6.73248E+03  2.91107E+03 -2.08108E+03
  7.36964E+03 -3.25763E+03  5.81565E+03 -3.37692E+03 -8.66227E+03  7.35310E+03 -7.82168E+03 -2.04199E+03
