 $NMID ID='MM_0lb_SNR50_17hz_g60_50.RAW', FMTDAT='(8E13.5)'
 TRAMP=1., VOLUME=1. $END
  3.08121E+05  4.07822E+03  3.37901E+05  2.46785E+05  8.36534E+04  3.34912E+05 -1.32947E+05  2.48859E+05
 -1.90535E+05  8.11083E+04 -1.06748E+05 -3.17240E+04 -1.83695E+03 -5.24344E+04  5.33307E+04 -1.06029E+03
  3.50464E+04  5.34612E+04 -1.71527E+04  7.45882E+04 -6.10278E+04  6.60589E+04 -8.21898E+04  3.17269E+04
 -7.92500E+04 -1.21373E+04 -5.69336E+04 -5.63856E+04 -1.17148E+04 -7.18085E+04  2.62118E+04 -4.45112E+04
  4.18560E+04 -3.46501E+02  1.69349E+04  4.80070E+04 -3.30155E+04  5.10902E+04 -6.75814E+04 -3.48427E+03
 -5.31653E+04 -5.77576E+04 -8.65057E+03 -7.66890E+04  3.76262E+04 -4.61630E+04  5.11447E+04 -1.78814E+04
  4.51602E+04  9.24846E+03  2.83738E+04  2.62451E+04  2.06917E+04  2.84928E+04 -7.34260E+03  2.78408E+04
 -1.93856E+04  1.40933E+04 -1.64037E+04 -2.25188E+03  4.73912E+03 -3.15852E+03  2.39158E+04  9.72840E+03
  7.35162E+03  3.28003E+04 -2.90782E+04  2.99106E+04 -6.26611E+04  3.71722E+03 -5.53755E+04 -4.40110E+04
 -1.44758E+04 -6.42739E+04  4.09119E+04 -4.27607E+04  5.35830E+04 -3.47231E+03  3.72320E+04  3.40046E+04
 -3.38314E+03  3.28189E+04 -2.92007E+04  1.36147E+04 -3.18169E+04 -3.01212E+03 -1.44747E+04 -1.31380E+04
 -6.29888E+03 -1.06281E+04 -2.58339E+03 -1.62193E+04  8.92180E+03 -2.03738E+04  1.67240E+04 -1.43602E+04
  1.28167E+04  4.87922E+03 -8.12997E+03  1.27107E+04 -1.78549E+04 -3.18632E+03 -6.82226E+03 -3.33396E+04
  2.50648E+04 -3.98202E+04  5.04379E+04 -2.31416E+04  4.31723E+04  1.84362E+04  1.58144E+04  4.34364E+04
 -1.49092E+04  3.21890E+04 -2.87643E+04  1.33889E+03 -7.98556E+03 -2.79176E+04  1.60616E+04 -3.48523E+04
  4.09990E+04 -7.71728E+03  3.73973E+04  2.68520E+04  1.65754E+04  4.82101E+04 -5.04932E+03  5.41210E+04
 -3.22016E+04  3.35917E+04 -3.90497E+04  7.38756E+03 -4.42939E+04 -1.80319E+04 -2.52631E+04 -3.76713E+04
  2.96256E+03 -3.45799E+04  3.63468E+04 -1.56696E+04  3.32503E+04  7.88918E+03  1.01367E+03  2.05834E+04
 -1.13942E+04  9.57900E+03 -1.04073E+04 -9.23939E+03  8.23263E+03 -1.10923E+04  1.77838E+04  6.17547E+03
  1.03200E+04  2.10698E+04 -8.26662E+03  2.64949E+04 -2.38591E+04  1.27551E+04 -2.46616E+04 -2.23176E+03
 -1.74176E+04 -1.61161E+04 -8.44488E+03 -1.32657E+04  3.45912E+03 -2.18899E+04  1.44865E+04 -1.88254E+04
  2.55165E+04 -1.26036E+04  2.81476E+04  2.56193E+03  2.05441E+04  1.63534E+04  6.18194E+03  3.87215E+04
 -1.43670E+04  2.76361E+04 -2.58276E+04  1.33557E+04 -2.06296E+04 -9.67388E+03 -3.49324E+03 -1.33472E+04
  2.80813E+03 -7.78296E+03 -6.95403E+03  1.88039E+03 -1.41344E+04  9.49717E+03 -1.69381E+04 -5.32108E+03
 -9.06532E+03 -1.72280E+04  3.12710E+03 -2.29047E+04  1.12556E+04 -1.01763E+04  1.64527E+04 -1.88702E+03
  1.44184E+04  1.32485E+04  1.42568E+02  2.07121E+04 -9.94911E+03  1.15502E+04 -1.91840E+04 -3.87462E+03
 -9.85485E+03 -1.36946E+04 -1.35584E+03 -2.36212E+04  1.16116E+04 -1.69359E+04  2.15761E+04 -8.42806E+03
  1.42108E+04  3.89021E+03  1.23374E+04  3.54048E+02  3.94796E+03  1.18602E+03  9.07751E+03 -3.13325E+03
  1.86424E+04  5.39872E+03  2.02427E+04  1.30038E+04  1.11707E+04  2.87294E+04 -3.36146E+03  3.05349E+04
 -1.97819E+04  2.64262E+04 -2.85218E+04  1.32311E+04 -3.58282E+04 -2.15251E+03 -2.33749E+04 -1.23046E+04
 -1.05760E+04 -2.53020E+04  7.05613E+03 -2.79281E+04  1.91767E+04 -8.15148E+03  1.68835E+04  2.62709E+03
  6.40477E+03  1.24134E+04 -6.00359E+03  7.91708E+03 -1.58086E+04 -2.38656E+02 -1.29543E+04 -1.27395E+04
 -4.24825E+02 -1.30065E+04  6.24940E+03 -9.85128E+03  9.18224E+03 -2.70419E+03  2.36775E+03  9.92691E+03
 -4.39816E+03  4.28760E+03 -5.27232E+03 -3.43181E+03 -4.91732E+03 -1.02800E+04  1.25544E+04 -1.25683E+04
  2.06794E+04 -7.35022E+03  1.56224E+04  6.90225E+03  1.90738E+04  1.11263E+04  7.69637E+03  1.75648E+04
 -4.49583E+03  2.19826E+04 -6.66306E+03  1.34422E+04 -1.61658E+04  3.71809E+03 -6.51576E+03  1.28976E+03
 -4.24950E+03 -1.13429E+04 -1.35624E+03 -1.30436E+03 -1.61783E+03  2.45865E+03 -4.72915E+03  2.35388E+03
 -7.88665E+03  6.79093E+02 -8.59428E+03 -7.36162E+03 -5.13219E+03 -1.25018E+04  4.10406E+03 -9.08708E+03
  6.34214E+03 -5.82667E+03  4.38412E+03  2.65332E+03 -3.95798E+03  6.54073E+03 -8.90229E+03 -4.73690E+03
 -7.19152E+03 -5.94233E+03 -2.19108E+03 -4.86631E+03  5.14145E+03 -1.04454E+04  1.27626E+04 -3.51228E+03
  1.61185E+04  2.04646E+03  1.04809E+04  5.69145E+03  5.88184E+03  4.46878E+03 -6.48523E+03  5.14701E+03
 -6.83928E+03  2.91989E+03 -7.53156E+03 -1.59287E+03  2.55121E+03 -6.90067E+03  1.27267E+03 -3.11936E+03
  6.72208E+03  4.84788E+03 -4.01164E+03  8.17956E+03 -5.85428E+03  4.80771E+03 -1.02439E+04 -1.87314E+03
 -5.14264E+03 -5.59712E+03 -6.59585E+02 -4.06305E+03  4.53069E+03 -4.66335E+03  1.08136E+04  3.83353E+03
  2.81945E+03  3.10446E+03 -5.34612E+03  8.76102E+03 -2.04937E+03  5.71867E+03 -5.80129E+03 -2.17862E+03
 -3.52531E+03 -3.92415E+03 -1.63370E+02 -1.54861E+04  9.86251E+03 -5.15875E+03  1.05807E+04  5.80875E+03
  5.40847E+03  7.68229E+03  5.02762E+03  7.76044E+03 -5.00465E+03  4.24496E+03 -8.06259E+03 -5.13123E+03
 -4.87978E+03 -6.00397E+03 -3.47218E+03 -4.78722E+03 -3.65123E+02 -9.48366E+03  2.31135E+03 -1.03245E+03
  4.63890E+03  2.32465E+03 -7.94881E+02  6.39374E+03 -1.92623E+03 -4.89841E+03  4.83619E+03  4.72404E+02
  6.18470E+03 -2.78985E+03  7.04040E+03 -2.38866E+03  8.66360E+03  4.11312E+03  8.71163E+03  1.08335E+04
 -5.45764E+03  1.26736E+04 -8.63209E+03  7.41214E+03 -1.31708E+04  1.57421E+03 -9.34355E+03 -3.49997E+03
 -5.78195E+03 -5.27330E+03  2.09120E+02  2.92545E+02  2.77608E+03 -1.22400E+03  2.29171E+03 -7.00710E+02
 -3.24466E+03 -2.57964E+03 -3.15875E+02 -7.34300E+03  6.83772E+03  5.65392E+02  6.74762E+03 -1.53200E+03
  3.51084E+03  2.17366E+03  7.95118E+02  4.60808E+02  1.25984E+03  6.06202E+03 -5.12314E+03 -6.29275E+02
 -8.86418E+03 -2.81350E+03 -7.88730E+03 -5.02005E+03  7.50563E+02 -8.01833E+03  1.91954E+03 -8.38595E+03
  1.05403E+04 -5.90735E+03  7.81894E+03  3.91645E+03  7.04111E+03  5.03885E+03  2.62494E+03  1.03394E+04
 -3.89348E+03  6.39147E+03 -6.12523E+03 -4.07356E+02 -3.66826E+03 -2.66465E+03  7.33363E+02  3.64107E+03
 -2.23004E+03 -4.49285E+03 -4.22165E+03  1.58809E+03 -3.12109E+03  3.45802E+03 -6.26832E+03 -5.94432E+03
 -5.64193E+03 -3.10134E+03  7.47693E+02 -6.16917E+03  3.69847E+03 -4.21721E+03  7.26560E+03 -3.45295E+03
  4.64581E+03 -2.39481E+03  6.15179E+02  5.34757E+03  2.34786E+02  6.70603E+03 -1.44549E+03  5.13095E+03
 -7.69879E+03  2.75798E+03 -3.15738E+03 -3.32020E+03  2.70488E+03 -6.08170E+03  1.47988E+02 -1.49375E+03
  1.28419E+03 -6.32103E+03 -1.64865E+03 -5.71486E+03 -1.60562E+03  7.72999E+03 -1.84618E+03 -2.43359E+02
  4.68173E+03 -6.94552E+02  4.77241E+03  9.90003E+02  4.74037E+02  3.18836E+03  1.07476E+03  4.17239E+03
 -1.78598E+03  4.37253E+03 -3.50537E+03  8.25468E+03 -4.07665E+03  1.82131E+03 -3.70369E+03 -1.07645E+03
  3.43594E+03 -3.43100E+03  1.48633E+03 -7.43191E+03 -3.56298E+02 -3.32050E+03 -8.30033E+02 -2.72550E+03
 -6.36841E+02  2.76430E+03  2.11679E+03 -1.92564E+02  2.42698E+03 -2.24189E+03 -3.62151E+03 -1.94290E+02
  2.57280E+02  4.30733E+02  7.34924E+02  3.27087E+03  3.46463E+03  5.99800E+02  1.34782E+03  1.34099E+03
 -2.28988E+03  3.25587E+03 -3.28894E+03  5.80743E+01  2.59018E+03  1.16390E+03  1.74518E+03 -3.71010E+02
 -1.32442E+03  1.07636E+03 -6.46889E+02  3.14180E+02  1.21972E+03  6.44897E+03  4.09325E+02  6.61532E+03
 -6.43252E+03  3.48959E+03 -4.82953E+03  2.42680E+03 -1.45406E+03  1.98269E+03 -9.74346E+02  1.66851E+03
  2.63950E+03 -4.80531E+02  4.64111E+03  3.16584E+03 -2.16024E+03  3.26650E+03 -7.69395E+03  3.09526E+03
 -8.41225E+02  2.21209E+03 -2.19268E+03 -1.23362E+03  1.07021E+02 -3.36554E+03  2.48671E+03 -2.91251E+03
  6.77076E+03 -2.11718E+03  3.32299E+03 -3.41863E+02 -1.73431E+03 -6.36361E+02  1.87535E+03  4.11957E+03
 -1.21800E+03  3.52754E+02 -2.10527E+03  8.98042E+02  2.86015E+03 -1.69131E+03  1.02549E+04 -1.82879E+03
  7.56427E+02 -8.82465E+02  1.06748E+03  3.19168E+03 -8.04386E+02  2.67852E+00 -7.44401E+02  1.97429E+03
 -3.33453E+03  4.60900E+02  1.34444E+03 -5.97936E+02 -5.56477E+03 -2.37073E+02 -8.69777E+02  3.74186E+02
 -3.42598E+03 -1.67291E+03  2.41340E+03  7.88587E+02  9.53061E+03  7.57865E+02 -1.69124E+03 -2.68218E+03
 -2.34677E+03  1.81089E+03 -1.37744E+03 -2.42493E+03 -1.29566E+03  2.90855E+03  2.55594E+02 -1.75542E+03
  1.95342E+03  5.75056E+03 -2.79726E+03  5.62898E+02 -6.05088E+03  2.23886E+03 -6.09069E+02 -7.18022E+03
 -6.44887E+03  1.18776E+03  6.49559E+03 -6.26716E+03  9.11758E+02 -4.87494E+03  4.09123E+03 -7.47880E+03
  2.22751E+03 -1.26636E+03 -1.01862E+02  2.64341E+03  6.05984E+02  8.00231E+02 -3.88539E+03  7.70267E+03
 -3.61207E+03  8.48327E+01  4.53346E+00 -3.23717E+03 -2.16905E+02  2.91949E+03 -7.25022E+02 -8.85233E+03
 -6.07960E+03 -2.17460E+03 -1.46522E+03 -2.29194E+01 -3.73312E+02 -1.36358E+03 -2.67322E+03 -4.06856E+03
  5.09600E+03 -4.57429E+03  2.94762E+03 -3.93727E+03 -1.95992E+03  3.40712E+02  5.63906E+03 -1.98281E+03
  1.51430E+03  4.54232E+03 -3.83788E+01  4.03275E+03 -5.67487E+03  1.41926E+03  1.86127E+03 -1.55260E+03
  5.39812E+02  2.22217E+02  1.07037E+03 -4.84185E+03  3.88587E+02  3.75904E+03 -5.90234E+02  5.56173E+02
 -5.01772E+03 -4.99198E+03 -3.41545E+03  4.72495E+03 -6.87397E+02  3.23070E+02 -2.11766E+03 -4.19861E+02
 -6.25021E+02  4.38922E+03  3.23598E+03  2.15965E+03 -2.37258E+03 -2.25110E+03  2.52363E+03  2.56173E+03
 -2.53192E+03 -1.10716E+03 -2.72498E+03  8.54350E+02  7.57849E+02 -1.96955E+03  3.23622E+03 -2.61852E+03
  2.22470E+03 -1.85714E+03  4.54388E+03 -2.64086E+03  6.37046E+03 -3.08666E+03 -3.48242E+03  1.00437E+03
 -1.39107E+03  1.55336E+03 -2.78300E+03 -8.77986E+02  2.67267E+03 -9.10670E+02 -1.19802E+03  9.72940E+02
  3.03996E+03  8.66984E+02  4.50072E+01 -1.54431E+03 -4.24504E+03 -3.00028E+03  1.55684E+03 -5.15393E+02
  3.45306E+02  3.95362E+02 -9.23127E+02  5.91294E+02 -2.26431E+03  4.18768E+03  1.66513E+03  3.78501E+03
 -2.57811E+03 -1.57930E+03 -1.86417E+03  2.11818E+02  3.02631E+02 -1.39369E+02  1.19540E+01  1.97683E+03
