 $NMID ID='MM_0lb_SNR50_13hz_g40_70.RAW', FMTDAT='(8E13.5)'
 TRAMP=1., VOLUME=1. $END
  3.09626E+05 -2.99973E+03  3.37605E+05  2.52103E+05  8.61668E+04  3.40110E+05 -1.34606E+05  2.48629E+05
 -1.88204E+05  8.50176E+04 -1.12077E+05 -3.33200E+04  5.31515E+03 -5.01517E+04  5.38548E+04 -6.57718E+02
  3.51086E+04  5.61942E+04 -1.75540E+04  7.44548E+04 -5.87270E+04  6.42526E+04 -8.41680E+04  3.01297E+04
 -8.28315E+04 -2.36330E+03 -5.65293E+04 -5.13051E+04 -1.73673E+04 -7.06382E+04  2.63949E+04 -4.76113E+04
  3.86645E+04  3.87590E+03  1.27173E+04  5.33780E+04 -3.26756E+04  5.01114E+04 -6.32059E+04  3.14504E+03
 -5.42812E+04 -5.75732E+04 -1.13769E+04 -7.72574E+04  3.39489E+04 -5.47019E+04  4.69334E+04 -1.64492E+04
  4.59809E+04  1.04602E+04  2.90091E+04  2.33599E+04  2.05195E+04  2.84099E+04 -3.44287E+03  2.70051E+04
 -2.08830E+04  1.16512E+04 -2.35114E+04 -7.83476E+03  5.00434E+03 -9.13186E+03  1.87600E+04  1.39284E+04
  8.45975E+03  3.72667E+04 -3.70766E+04  3.70775E+04 -6.24014E+04 -5.99267E+02 -5.71458E+04 -4.20121E+04
 -1.92337E+04 -6.10883E+04  3.81231E+04 -4.04754E+04  5.60505E+04  6.24746E+02  3.58644E+04  3.02455E+04
 -4.03480E+03  3.89744E+04 -2.55127E+04  1.67346E+04 -2.25135E+04 -7.75655E+03 -1.63790E+04 -1.32165E+04
 -1.44243E+04 -9.43343E+03 -4.03891E+03 -1.85086E+04  7.31367E+03 -2.28061E+04  1.63954E+04 -1.24475E+04
  1.57754E+04  5.44243E+03 -5.34580E+03  1.52917E+04 -2.17756E+04 -7.13500E+02 -8.80193E+03 -3.60405E+04
  2.41043E+04 -4.18624E+04  4.65391E+04 -1.57475E+04  4.54887E+04  1.64429E+04  1.27441E+04  4.27918E+04
 -1.98675E+04  3.30266E+04 -2.21216E+04  1.88721E+03 -7.62541E+03 -2.78649E+04  2.47896E+04 -3.50831E+04
  4.17144E+04 -9.88427E+03  3.34714E+04  2.56503E+04  2.42085E+04  4.78301E+04 -1.12110E+04  4.91379E+04
 -2.94096E+04  3.60115E+04 -4.25140E+04  1.25161E+04 -4.34161E+04 -1.65263E+04 -2.29740E+04 -4.04786E+04
  4.21956E+03 -4.28029E+04  3.22331E+04 -1.43051E+04  3.07990E+04  5.42957E+03  4.45248E+03  2.21629E+04
 -1.67543E+04  9.34531E+03 -1.29668E+04 -1.10265E+04  7.13772E+03 -1.35876E+04  1.60175E+04  4.23999E+03
  1.46750E+04  2.19062E+04 -6.25912E+03  2.27730E+04 -2.46153E+04  7.47977E+03 -3.19656E+04 -1.13493E+03
 -1.73399E+04 -1.74598E+04 -9.31576E+03 -1.98414E+04  6.24365E+03 -1.83965E+04  1.45574E+04 -1.71481E+04
  2.47545E+04 -1.15287E+04  3.54725E+04  3.73805E+02  2.45718E+04  1.80071E+04  5.18133E+03  3.40082E+04
 -1.41919E+04  3.42223E+04 -2.79098E+04  9.48976E+03 -2.14900E+04 -1.03677E+04 -4.75004E+03 -9.89166E+03
  4.11617E+03 -3.98803E+03 -1.09378E+04  5.60923E+03 -1.54056E+04  5.75116E+03 -1.37820E+04 -1.04921E+04
 -9.84422E+03 -1.98979E+04  3.38885E+03 -1.98750E+04  1.27969E+04 -1.25975E+04  1.50511E+04 -1.99384E+03
  9.35245E+03  9.70323E+03 -2.58261E+03  1.85723E+04 -1.14350E+04  5.30326E+03 -1.67898E+04 -9.36470E+02
 -1.08566E+04 -1.72216E+04  4.76874E+02 -2.57915E+04  1.06461E+04 -1.67383E+04  2.08990E+04 -1.43456E+04
  1.61214E+04  3.86769E+03  1.90841E+04  2.91289E+03  5.50116E+03 -2.43143E+03  9.53051E+03  9.85454E+02
  2.08513E+04  1.66438E+03  1.84180E+04  1.20610E+04  1.45873E+04  2.99437E+04 -4.08248E+03  3.34281E+04
 -1.99657E+04  2.81480E+04 -3.01359E+04  1.28227E+04 -3.36670E+04 -2.65244E+03 -2.85773E+04 -1.54169E+04
 -1.14078E+04 -2.75924E+04  1.05317E+04 -2.71935E+04  2.38214E+04 -1.33207E+04  2.13576E+04  7.90927E+03
  8.08012E+03  1.14860E+04 -1.22903E+04  1.68148E+04 -1.67834E+04  3.10362E+03 -1.40864E+04 -8.74291E+03
  2.17327E+03 -1.56542E+04  1.18253E+04 -1.01935E+04  6.94754E+03 -6.69808E+03 -3.83062E+02  5.51311E+03
 -9.63841E+03  1.32876E+03 -9.27481E+03 -6.74514E+03  2.07456E+03 -1.37119E+04  1.20957E+04 -1.59937E+04
  1.69274E+04 -1.23676E+04  1.53599E+04  3.24922E+03  1.45077E+04  1.24766E+04  7.60490E+03  2.01389E+04
  1.74581E+03  2.55948E+04 -1.72030E+04  1.07839E+04 -1.35944E+04  2.81645E+03 -1.53797E+04  6.62460E+02
 -4.72221E+03 -4.84205E+03 -2.12770E+03  3.04087E+03 -2.78772E+03  2.15579E+03 -6.51629E+03  8.55967E+03
 -1.00151E+04 -4.12119E+03 -1.38210E+04 -7.09507E+03 -6.25362E+03 -1.77684E+04  2.07938E+02 -1.16172E+04
  9.36597E+03 -1.89216E+02  5.91190E+03  1.16419E+03  6.59297E+02  3.28195E+03 -7.64845E+03  2.92867E+03
 -7.30730E+03 -1.18376E+04 -1.77986E+03 -1.08268E+04  1.08927E+04 -1.26382E+04  1.04825E+04 -5.54164E+03
  1.93397E+04  6.33153E+03  1.21711E+04  6.00798E+03  4.46554E+03  1.30606E+04 -5.63479E+03  7.73325E+03
 -1.15486E+04  5.78697E+03 -2.98601E+03 -3.32000E+03  8.59045E+02  2.67204E+03  2.15796E+03 -3.34288E+03
  6.87151E+03  5.30432E+03  2.83642E+03  2.91136E+03 -7.99974E+03  8.29225E+03 -1.52396E+04  1.17965E+03
 -1.05685E+04 -4.65111E+03  2.28364E+02 -7.79002E+03  6.60957E+03 -3.08984E+03  2.39814E+03  3.22649E+03
 -5.34549E+03  8.23319E+03 -1.18547E+03  4.48041E+03 -1.27469E+04  5.17005E+03 -5.63953E+03 -6.15282E+03
 -7.06569E+03 -9.16241E+03  1.57488E+03 -1.52432E+04  1.34315E+04 -7.73909E+03  1.23225E+04  5.52496E+03
 -8.48501E+02  7.27169E+03 -4.08376E+03  1.19166E+04 -6.18871E+03  4.78457E+03 -5.39530E+03 -2.24478E+03
 -7.09677E+03 -7.07277E+03 -1.93788E+03 -1.05590E+04  3.70352E+03 -6.82224E+02  7.46861E+03 -1.99054E+03
  1.97504E+03  2.32763E+03 -2.34137E+02  6.03492E+02 -1.74348E+03  4.02903E+03 -4.01145E+03 -3.22574E+03
  4.28190E+03 -7.75011E+03  6.89697E+03  4.43002E+03  1.00095E+04  4.03971E+03  1.51368E+04  1.52660E+04
  8.31788E+02  1.40733E+04 -1.15718E+04  1.02616E+04 -1.59800E+04 -1.02753E+03 -1.81171E+04 -2.75249E+03
 -5.57771E+03 -1.41109E+04  1.14116E+03 -8.78567E+03  6.80129E+03 -6.72765E+03  1.93473E+03 -3.53576E+03
  8.72450E+03 -1.82116E+03  1.12860E+03  2.70851E+03  5.57411E+03 -6.07598E+03  5.45494E+03 -2.05873E+03
  4.14167E+03  4.89954E+01 -2.73248E+03  8.17165E+03 -2.53016E+03  4.55143E+03 -2.79547E+03  2.29568E+03
 -8.55394E+03  2.14735E+03 -2.53897E+03 -4.47137E+03 -2.87494E+03 -8.78054E+03  3.72315E+03 -9.35124E+03
  1.02813E+04 -8.86768E+03  1.16153E+04  2.49517E+03  6.04917E+03  6.79321E+03  1.95355E+03  1.35395E+04
 -3.81129E+03  9.51933E+03 -8.11872E+03  5.16355E+03 -6.72925E+03 -2.68661E+03 -6.74376E+03  1.30254E+03
  8.01741E+03 -2.51566E+03 -6.47028E+03  1.14332E+02 -1.99759E+03  5.08272E+03 -3.69106E+03 -2.39687E+02
 -1.34416E+03 -7.09132E+03 -1.75598E+03 -5.89751E+03  5.64545E+03 -9.73116E+03  1.03576E+04 -4.97375E+03
  6.83613E+03  1.40648E+03 -4.14659E+02  5.64104E+03  9.62797E+01  5.56641E+03 -7.63702E+03  7.20414E+03
 -5.93269E+03  4.76685E+02 -1.21526E+03  8.72616E+02  1.20330E+03 -3.70569E+03  2.24403E+03 -1.00592E+04
  2.24226E+03  8.99263E+02  4.82671E+03 -3.68549E+03  7.89476E+02  5.40457E+03 -1.00358E+03  7.59699E+03
 -6.29259E+02 -1.12056E+03  4.07811E+03  4.44468E+03 -8.31453E+02 -1.10933E+03  5.88385E+03 -2.38442E+03
 -3.09196E+03  4.51909E+03 -3.41231E+03  9.09440E+03  4.16585E+01 -3.87620E+03 -8.00685E+03 -1.77531E+03
 -3.03605E+03 -7.76021E+03 -2.70444E+03 -1.09352E+04  7.17978E+03 -9.09122E+03  1.26895E+03  2.85787E+03
  9.88710E+03  5.79460E+03  3.65047E+03  6.45306E+02 -5.54522E+03  6.04512E+03 -1.10123E+03 -2.03983E+03
 -7.23595E+03 -3.55938E+02  7.92251E+03 -4.86744E+03  3.97244E+03 -2.89406E+03  1.56268E+03  7.45202E+03
  4.08985E+03 -6.66431E+02  9.04951E+02 -3.32061E+02  1.24178E+03 -3.83825E+02  3.47470E+03  6.54601E+02
  2.67807E+03  1.12994E+02 -3.99467E+03 -4.81686E+03  3.99448E+03  2.33807E+03 -3.14376E+03  7.82013E+03
 -5.06610E+03  7.68809E+03 -5.93166E+03 -4.46183E+03 -5.31391E+03  2.31460E+03 -4.55772E+03 -2.50792E+03
 -2.64284E+03 -1.56536E+03  1.35272E+03 -4.40347E+02 -2.04503E+03  2.61235E+03  2.58744E+03 -1.81150E+03
  1.59161E+03  4.18731E+03 -7.75540E+03 -2.90832E+03  4.56262E+02 -5.36274E+03  7.67470E+02 -1.77124E+03
  2.19900E+03 -1.39876E+03  3.62719E+03  2.21606E+03  3.19095E+03  5.60828E+03 -2.99397E+03  1.20655E+03
 -4.87558E+02 -3.62564E+03  2.45093E+03  4.32000E+03  8.09893E+02 -2.91598E+03  3.84298E+03 -2.55218E+03
  1.43876E+03 -1.64220E+03  3.77287E+03  2.10684E+03  7.03367E+02  2.93425E+03  1.52426E+03  2.29921E+03
 -7.95583E+03 -2.12678E+03 -2.84712E+03 -7.91027E+02 -3.48990E+03 -1.11942E+03  1.62435E+03 -6.60272E+03
  1.39731E+03 -3.57319E+02  4.79164E+03  1.89516E+03  3.76763E+03  5.50459E+03  1.23807E+03  3.54495E+03
 -1.53836E+03  1.05738E+03 -1.02994E+03 -2.90932E+03  2.15832E+02  9.36989E+02 -3.53313E+03 -3.24757E+03
 -1.80670E+03  2.55017E+03 -1.60126E+03  1.25491E+03 -6.45872E+03 -1.37127E+03 -2.69028E+03 -3.51987E+03
 -2.99838E+03 -5.61074E+03  5.72924E+03 -8.60447E+03  7.06880E+03 -1.10548E+04  6.67939E+03 -3.49994E+03
  5.22298E+03  1.43225E+03  7.02877E+03  2.73741E+03 -2.99281E+01  4.34287E+02 -5.16638E+03 -7.30373E+02
 -6.41427E+03 -3.04653E+03  1.45174E+03 -4.66515E+03 -1.27198E+03 -2.85983E+03  2.71268E+03  4.28724E+03
 -2.87371E+03 -1.83485E+03 -4.77322E+03 -1.42236E+03  3.74395E+03 -3.83983E+03  2.32442E+02 -3.47272E+03
 -4.89132E+02 -2.43874E+03  1.40814E+03  2.56333E+03  2.73684E+02  3.52966E+03 -2.18747E+03  3.82151E+03
 -4.96627E+03  7.43385E+03 -1.37769E+03  2.05141E+03 -5.46439E+03 -6.05389E+02 -1.37958E+02 -9.68472E+03
 -5.64421E+03 -3.74518E+03 -5.98019E+01 -6.47392E+03  1.34546E+03 -1.21721E+03  4.06681E+03  3.48605E+03
  8.37943E+02  4.05413E+02 -2.99139E+03  5.08420E+03  2.01558E+03  2.24450E+02 -3.12365E+02 -2.49034E+03
  3.25804E+03 -5.86183E+03  2.53022E+03  4.00595E+03  4.25079E+03  1.03375E+03  1.59229E+03  1.18003E+03
 -3.58062E+03 -4.60981E+02 -3.48132E+03 -3.10033E+02  3.76732E+03 -5.30045E+03  2.75859E+03 -1.02858E+04
  2.35080E+03 -1.04106E+03 -1.18753E+03 -3.74121E+03  1.89451E+03 -4.21735E+02  7.20660E+03  4.87877E+02
  3.58701E+03  1.49436E+03 -1.60475E+03  2.88849E+03 -1.00536E+03 -2.83268E+02 -3.42761E+03 -3.16019E+02
  5.16745E+03 -1.23676E+02  4.12500E+03  5.39464E+03 -2.69735E+03 -1.24960E+03  1.20592E+03 -3.24334E+03
 -2.94357E+03  4.08635E+03 -2.43521E+03 -3.37943E+03  3.09786E+03 -7.32711E+03  4.98589E+02 -2.17833E+03
  5.67210E+03 -1.87473E+03  8.50889E+02  2.06917E+03 -2.51740E+03  7.54999E+03 -1.10895E+03  5.33582E+03
