 $NMID ID='MM_0lb_SNR50_11hz_g40_43.RAW', FMTDAT='(8E13.5)'
 TRAMP=1., VOLUME=1. $END
  3.07995E+05  4.52663E+03  3.31021E+05  2.48859E+05  8.13090E+04  3.36515E+05 -1.31399E+05  2.51391E+05
 -1.89175E+05  8.11020E+04 -1.14042E+05 -2.97725E+04 -1.41890E+03 -5.18467E+04  4.99773E+04  1.03640E+03
  3.83021E+04  5.38580E+04 -1.54364E+04  7.46084E+04 -5.86812E+04  6.03373E+04 -8.82445E+04  3.15430E+04
 -8.29877E+04 -6.83529E+03 -5.78091E+04 -5.51404E+04 -1.99686E+04 -7.05734E+04  2.81245E+04 -4.63478E+04
  3.38012E+04  3.49784E+03  1.53742E+04  5.10400E+04 -3.15425E+04  5.26138E+04 -6.42235E+04  1.03717E+03
 -5.46636E+04 -5.81849E+04 -9.15844E+03 -7.63864E+04  3.51104E+04 -5.57195E+04  5.31846E+04 -1.99238E+04
  5.01208E+04  7.42755E+03  3.37330E+04  2.84275E+04  1.64975E+04  2.99272E+04 -4.39792E+03  3.14546E+04
 -2.57368E+04  1.45517E+04 -1.58058E+04 -5.95765E+03  5.87564E+03 -8.37416E+03  2.47072E+04  1.69181E+04
  3.28336E+03  3.75106E+04 -3.21609E+04  3.89780E+04 -6.01621E+04 -1.60171E+03 -5.30407E+04 -4.72658E+04
 -1.37967E+04 -6.56706E+04  4.11707E+04 -4.53768E+04  6.47309E+04 -4.96985E+03  4.00166E+04  2.89654E+04
 -7.85670E+03  3.43914E+04 -2.92687E+04  1.68132E+04 -2.54738E+04 -6.88186E+03 -1.65498E+04 -1.35222E+04
 -5.77988E+03 -1.60905E+04 -1.38915E+03 -1.63487E+04  8.44154E+03 -2.18395E+04  1.76289E+04 -1.23753E+04
  1.54367E+04  2.10413E+03 -1.24566E+04  6.63329E+03 -2.17101E+04 -5.27228E+03 -2.58314E+03 -3.53965E+04
  2.71610E+04 -4.51867E+04  4.95989E+04 -1.97952E+04  4.57301E+04  2.05099E+04  2.05982E+04  4.38409E+04
 -1.42936E+04  3.50716E+04 -3.26545E+04  9.23499E+02 -1.21457E+04 -2.41581E+04  2.39290E+04 -3.64938E+04
  4.11280E+04 -1.28039E+04  3.84371E+04  2.90357E+04  2.09892E+04  4.96652E+04 -1.13959E+04  5.03454E+04
 -2.87915E+04  3.35036E+04 -4.35226E+04  5.54992E+03 -4.01869E+04 -1.68542E+04 -2.38233E+04 -3.97684E+04
  6.18907E+03 -4.01659E+04  2.61811E+04 -1.87721E+04  3.34533E+04  1.04898E+04  4.74619E+03  2.35688E+04
 -1.34306E+04  1.19221E+04 -9.55682E+03 -5.52515E+03  1.33207E+03 -1.11816E+04  2.26961E+04  6.16450E+03
  1.42902E+04  2.24516E+04 -1.17704E+03  2.88109E+04 -2.52885E+04  5.51484E+03 -3.01823E+04 -5.59359E+03
 -2.27625E+04 -1.78061E+04 -5.87076E+03 -2.24113E+04 -1.42521E+03 -2.28923E+04  1.54115E+04 -1.83727E+04
  3.01806E+04 -1.28853E+04  3.07526E+04  1.29961E+03  2.56348E+04  1.94745E+04 -1.23208E+03  4.06492E+04
 -1.83138E+04  2.89439E+04 -3.27790E+04  5.70383E+03 -2.57785E+04 -8.63957E+03 -3.11702E+03 -1.09291E+04
  2.89375E+03 -9.47410E+02 -7.92708E+03  5.41206E+03 -1.84066E+04  2.52889E+03 -1.65870E+04 -1.29897E+04
 -1.42116E+04 -1.92899E+04  7.90466E+03 -2.59370E+04  1.94918E+04 -1.67730E+04  1.41996E+04 -4.44418E+03
  1.54023E+04  1.93437E+04  1.45520E+03  2.29608E+04 -1.76887E+04  1.25446E+04 -1.73674E+04 -4.15850E+03
 -1.65840E+04 -2.21046E+04 -5.49304E+03 -2.60827E+04  7.63005E+03 -1.38086E+04  1.31861E+04 -1.11688E+04
  1.83918E+04 -1.69585E+03  1.36970E+04  3.23627E+03  6.75643E+03  4.43656E+03  4.32444E+03 -9.56784E+01
  2.22837E+04  2.92769E+03  2.19142E+04  1.77721E+04  1.63223E+04  4.00865E+04 -5.59268E+03  3.41344E+04
 -2.23956E+04  3.34734E+04 -3.68653E+04  1.27381E+04 -3.43921E+04 -1.97664E+03 -2.76878E+04 -2.69240E+04
 -9.97682E+03 -3.32954E+04  1.19919E+04 -2.77031E+04  1.79054E+04 -1.45847E+04  2.28704E+04  3.01712E+03
  1.11150E+04  1.21606E+04 -1.65982E+04  1.35383E+04 -1.93006E+04  7.11181E+02 -1.76605E+04 -1.25090E+04
 -2.41748E+03 -1.44256E+04  1.22884E+04 -1.43843E+04  1.25767E+04  3.20312E+03  6.97171E+02  2.60597E+03
 -4.80518E+03  1.50926E+03 -1.05629E+04 -2.99605E+03 -1.39806E+03 -1.47202E+04  1.55935E+04 -1.86120E+04
  1.73707E+04 -1.18301E+04  2.07594E+04  5.86622E+03  2.18019E+04  1.46619E+04  8.71272E+03  1.98563E+04
  3.93093E+01  3.03661E+04 -2.21538E+04  1.73073E+04 -1.61730E+04  2.36438E+03 -1.48607E+04 -1.20823E+04
 -4.18328E+03 -5.38210E+03  3.88532E+03  5.72483E+02 -5.91503E+03  2.83887E+03 -5.19759E+03  7.48058E+03
 -1.38590E+04  1.84214E+03 -1.47872E+04 -1.70920E+04 -4.20977E+03 -1.85055E+04  4.79023E+03 -1.22065E+04
  8.10873E+03 -6.40799E+03  8.57859E+03  5.55922E+02  1.77134E+03  7.37938E+03 -1.76409E+04 -5.17654E+03
 -1.00871E+04 -7.65451E+03 -5.54706E+03 -9.76791E+03  7.93917E+03 -2.03461E+04  1.68063E+04 -6.46644E+03
  2.72966E+04 -9.02826E+02  1.24789E+04  9.21696E+03  2.13793E+03  1.17963E+04 -1.05036E+03  5.93106E+03
 -1.11186E+04  4.82981E+03  1.61024E+03 -2.72740E+03  2.80234E+03 -1.65710E+03  6.99611E+03 -3.43810E+03
  5.93772E+03  9.72559E+02 -1.17446E+03  5.84272E+03 -1.03824E+04  1.18785E+04 -1.49014E+04  2.15125E+03
 -7.39007E+03 -6.04677E+03  3.38782E+01 -5.26488E+03  1.21083E+04 -5.64942E+03  7.25464E+03  6.14205E+03
 -5.44977E+03  7.75241E+03 -4.42917E+03  1.26438E+04 -1.43669E+04  4.17972E+03 -1.15113E+04 -4.38885E+03
 -5.40002E+03 -1.46628E+04  7.83912E+02 -8.59006E+03  9.17564E+03 -1.00318E+04  1.13689E+04  6.03218E+02
  1.07849E+04  1.50707E+04 -2.53864E+03  1.65747E+04 -8.51110E+03  1.08904E+04 -8.75795E+03 -2.43593E+03
 -8.63941E+03 -5.99810E+03 -7.71089E+03 -8.46942E+03  6.60241E+02 -1.15575E+04  2.20987E+03 -4.71072E+03
  8.18410E+03  1.39270E+03  1.88791E+03 -1.03552E+03 -3.84501E+02 -1.68694E+03 -7.28442E+03 -6.95710E+03
  4.58444E+03 -1.08788E+04  1.77958E+04 -2.08393E+03  1.28094E+04  6.69356E+03  5.16212E+03  1.82170E+04
 -5.33785E+03  2.34215E+04 -1.27038E+04  1.45138E+04 -1.57803E+04  4.04559E+03 -1.47385E+04 -1.02370E+04
 -7.90362E+03 -8.03798E+03 -3.26793E+03 -1.25386E+04  6.21686E+03 -7.22933E+03  7.75080E+03 -7.78159E+03
  1.83368E+03 -2.64594E+03  6.99581E+03 -3.80993E+03  1.66729E+03 -4.04362E+03  9.02586E+03 -5.89058E+02
  5.75701E+03 -1.82589E+03  5.83279E+02  6.93763E+03  5.99075E+02  6.42407E+03 -3.99538E+03  1.98921E+03
 -5.92632E+03 -1.50089E+03 -1.02028E+04 -4.37357E+03  6.09568E+02 -1.17926E+04  6.27023E+03 -1.13286E+04
  1.23548E+04 -1.42202E+04  1.72866E+04  1.09797E+03  4.81771E+03  1.60561E+04  3.39179E+03  1.64248E+04
 -5.84299E+03  9.18296E+03 -1.04518E+04  3.63947E+03 -1.00518E+04 -4.27079E+02  7.09858E+02  2.14943E+02
 -1.78077E+03  3.44526E+03  8.74615E+02  5.64637E+03 -4.93859E+03 -6.60242E+02 -7.86123E+03 -3.77127E+03
 -4.33997E+03 -4.10638E+03  5.16107E+02 -1.57155E+04  5.29968E+03 -1.34129E+04  8.54878E+03 -8.82186E+03
  9.21028E+03  8.83138E+03  7.80237E+03  1.05543E+04 -9.97634E+03  1.04829E+04 -5.12579E+03  6.42305E+03
 -1.02763E+04  2.62773E+03 -1.16849E+04 -6.96775E+03 -5.26997E+03 -9.02827E+03  6.47161E+03 -7.38961E+03
  7.74958E+03 -1.83240E+03  3.67301E+03  1.33614E+03  3.55696E+03  2.11595E+03 -9.72766E+02 -3.49822E+02
  4.27956E+03 -4.10106E+02  2.49350E+03  4.81864E+03  1.64028E+03 -7.33715E+02  1.60001E+03  3.50745E+03
 -4.20423E+02  8.26268E+03 -7.41640E+03  3.53461E+03 -1.34143E+04  9.46762E+03 -1.36174E+04 -9.33411E+03
 -3.89113E+03 -7.44221E+03  4.20771E+03 -1.52354E+04  7.51142E+03 -9.51939E+03  7.43944E+03 -3.48007E+03
  5.34859E+03  9.17740E+03 -1.24678E+03  4.06989E+03 -3.18454E+03  6.45416E+02 -1.64254E+03 -8.15361E+02
 -6.54979E+03 -9.86715E+03 -1.85590E+03 -3.41816E+03  6.11281E+03 -1.60606E+03  8.25855E+02  1.50687E+03
  2.49361E+03  5.00328E+02  6.72098E+03 -1.50264E+03  5.51579E+02 -1.53401E+03  5.47319E+03 -4.06918E+03
  3.10124E+03 -3.61891E+02  2.85833E+03  6.33553E+03 -2.93982E+02  8.64915E+03 -2.67282E+03  6.53470E+03
 -9.63966E+03  6.72529E+03 -8.08425E+03  4.27629E+03 -3.34715E+03 -1.00286E+03 -4.32961E+02 -1.60552E+03
  5.37060E+02 -5.28259E+03  2.66947E+03 -4.97099E+03  5.02570E+02 -5.99548E+03 -4.24658E+03 -2.04895E+03
 -2.28421E+03  1.22855E+03 -8.22639E+03 -1.07139E+04 -5.33942E+03 -5.10829E+03  1.19219E+03 -1.75799E+03
  8.42184E+03 -1.17260E+03  4.90103E+03  1.52053E+03  6.44200E+03 -1.03164E+03  1.51191E+03  2.11619E+02
  1.97305E+03  1.27350E+02  3.00749E+01 -4.09862E+03  3.65389E+03  7.03019E+02  7.66592E+03  3.37357E+02
  5.77010E+03 -1.64141E+03  8.20450E+03  5.19322E+03 -2.49390E+03  8.54628E+03 -9.79969E+03  5.23278E+03
 -5.63694E+03  6.94618E+03 -4.95123E+03 -8.30859E+02 -3.76547E+03  7.97457E+01  6.75139E+02 -3.02655E+03
  2.42601E+03 -1.02948E+04  4.39207E+03  7.46791E+02 -9.14932E+02  4.36522E+03 -3.50869E+02 -5.56455E+02
 -2.82976E+03  8.62377E+02 -2.19934E+03 -2.10928E+03 -1.18025E+03 -1.56883E+03  1.21325E+03 -1.32759E+03
  2.18088E+03 -9.24405E+03 -5.96574E+03  3.37953E+03 -4.75563E+03  3.05285E+02 -1.01340E+04  4.38621E+02
  1.14908E+03 -1.23811E+04  6.21450E+03 -1.26633E+04  1.25521E+03 -1.05084E+04  1.19060E+04 -4.97373E+03
  7.83758E+03  6.91719E+03  1.30054E+04  5.15668E+03 -1.02828E+03  3.21246E+03  4.91805E+02  6.06323E+03
 -7.20948E+03 -4.10026E+03 -1.63073E+03 -2.89525E+03  1.16101E+03 -2.93480E+03 -2.54990E+02  5.93865E+03
 -2.20986E+03  4.78311E+03 -1.57058E+03 -4.80645E+03  9.87780E+03 -1.73191E+03  8.49339E+03 -7.54964E+03
  2.98288E+03 -1.41896E+04  2.98800E+03 -1.88376E+02  9.80211E+03  4.12750E+03 -5.95585E+02  6.01475E+03
 -8.59338E+03  8.99919E+03 -6.10372E+03  9.24175E+03 -7.94005E+03 -3.38729E+03 -2.69965E+03 -6.27892E+03
 -3.37169E+03 -4.04298E+03  5.56269E+03 -2.65754E+03  8.00450E+03  5.95259E+02  1.51001E+03 -1.40031E+03
  1.75415E+03  3.32050E+03 -3.21452E+02  1.61288E+03 -3.66869E+03 -2.11704E+03  1.47949E+02 -4.95358E+03
  3.06817E+02  2.68700E+02  9.96588E+02  2.92826E+03 -6.92316E+02  4.09563E+03  1.61501E+03  1.04459E+03
  4.34532E+01 -6.06013E+02 -2.51796E+03  4.41275E+03 -1.00279E+04  1.66022E+03 -6.72255E+03 -5.48489E+03
  1.53863E+03 -4.64047E+03  4.13243E+03 -2.91912E+03  6.86737E+03  4.72160E+03  7.12629E+03  2.81660E+03
  2.27398E+03  5.48059E+03 -2.69910E+01 -1.06580E+03 -2.39959E+03  1.72301E+03 -2.43151E+03 -1.67477E+02
 -1.65109E+03 -9.96498E+02  4.02634E+03 -6.42064E+03  1.11053E+02 -1.33850E+03  8.62370E+02  1.69308E+03
 -4.14801E+03 -1.85807E+03  4.11010E+03 -8.49778E+03  5.86207E+03 -7.55997E+03  1.70745E+03 -5.16569E+03
  1.22296E+03  6.96965E+03  7.01073E+03  9.36949E+02  8.91500E+02  5.31039E+03 -7.97724E+00  3.18716E+03
