 $NMID ID='MM_0lb_SNR50_17hz_g45_17.RAW', FMTDAT='(8E13.5)'
 TRAMP=1., VOLUME=1. $END
  3.07991E+05  2.17524E+01  3.35128E+05  2.52134E+05  8.87461E+04  3.39216E+05 -1.31781E+05  2.47135E+05
 -1.87455E+05  8.60950E+04 -1.11402E+05 -3.80912E+04  1.09193E+03 -5.19331E+04  5.07812E+04  1.48071E+03
  3.38106E+04  5.81415E+04 -1.56508E+04  7.88543E+04 -5.84690E+04  6.88682E+04 -8.37484E+04  3.67441E+04
 -8.21610E+04 -1.29032E+04 -5.91373E+04 -4.67306E+04 -1.66989E+04 -7.18495E+04  2.83139E+04 -4.57896E+04
  3.85425E+04  3.19176E+03  1.28456E+04  4.57956E+04 -3.54881E+04  4.59376E+04 -7.14061E+04 -1.15311E+03
 -5.30999E+04 -5.57362E+04 -8.52335E+03 -7.87403E+04  3.48550E+04 -5.17712E+04  4.89386E+04 -1.41361E+04
  4.13259E+04  9.13712E+03  2.99241E+04  2.46960E+04  1.74084E+04  3.11924E+04 -2.59464E+03  2.65744E+04
 -2.23711E+04  1.20057E+04 -2.09493E+04 -3.37682E+03  9.52034E+03 -9.23939E+03  2.59164E+04  1.25019E+04
  1.02650E+04  3.04336E+04 -3.14108E+04  3.57618E+04 -6.10480E+04  1.01679E+03 -5.47190E+04 -3.78198E+04
 -1.14205E+04 -6.16147E+04  3.99226E+04 -3.93172E+04  5.67065E+04  2.22146E+03  3.47582E+04  3.15303E+04
 -7.65933E+03  3.45610E+04 -2.75542E+04  1.36532E+04 -2.90028E+04 -4.16406E+03 -1.36175E+04 -6.63375E+03
 -9.38256E+03 -1.57834E+04 -9.57214E+02 -1.82187E+04  8.15386E+03 -2.30345E+04  1.84012E+04 -1.41613E+04
  1.03022E+04  3.37159E+03 -4.63611E+03  9.25283E+03 -2.42562E+04 -5.06113E+03 -6.88007E+03 -3.02660E+04
  1.35052E+04 -4.24769E+04  4.70894E+04 -1.41330E+04  4.31213E+04  1.75295E+04  1.67169E+04  4.63974E+04
 -1.76862E+04  3.03833E+04 -1.87344E+04  4.28954E+03 -7.96917E+03 -2.81267E+04  1.61385E+04 -2.88336E+04
  3.62064E+04 -7.35334E+03  3.28602E+04  2.38968E+04  1.82676E+04  4.55706E+04 -1.04580E+04  4.78434E+04
 -3.25282E+04  3.07430E+04 -4.12838E+04  6.59168E+03 -3.80975E+04 -1.09169E+04 -2.29418E+04 -3.71094E+04
  5.47009E+03 -3.11839E+04  3.01900E+04 -1.80512E+04  2.51022E+04  1.20466E+04  4.53415E+03  1.29879E+04
 -1.03942E+04  8.60604E+03 -6.92199E+03 -5.43683E+03  2.70869E+03 -1.26825E+04  1.44632E+04  9.11760E+03
  1.47492E+04  2.07137E+04 -9.35894E+03  2.37160E+04 -2.04394E+04  7.59691E+03 -2.90005E+04 -6.84835E+03
 -1.96371E+04 -1.89964E+04 -6.23008E+03 -1.86022E+04  3.25576E+03 -1.25940E+04  1.35435E+04 -1.58589E+04
  2.08961E+04 -1.23415E+04  2.89402E+04 -1.62287E+03  1.97502E+04  1.34082E+04  3.68769E+03  3.57049E+04
 -1.84681E+04  2.83196E+04 -2.65128E+04  6.36553E+03 -2.30586E+04 -9.71607E+03 -3.41772E+02 -1.37190E+04
 -4.27318E+02 -6.93469E+03 -5.66209E+03  7.24802E+03 -1.25583E+04  4.70989E+03 -1.45660E+04 -8.40995E+03
 -6.46288E+03 -1.76858E+04  4.62561E+03 -2.27370E+04  1.38718E+04 -1.61946E+04  1.27281E+04 -1.47380E+03
  7.90297E+03  1.30908E+04  4.90516E+02  1.45577E+04 -1.03894E+04  6.49681E+03 -1.23126E+04 -4.97292E+03
 -1.36728E+04 -1.38861E+04 -2.71829E+03 -1.64748E+04  4.79419E+03 -1.54582E+04  2.19759E+04 -1.16568E+04
  1.76693E+04  3.83581E+03  9.77998E+03  5.72299E+03  9.36365E+03  2.67491E+03  8.68665E+03 -1.65165E+03
  1.40668E+04  2.84464E+03  1.94037E+04  1.56002E+04  1.23414E+04  2.77110E+04 -9.83051E+01  2.83310E+04
 -1.64777E+04  2.52456E+04 -2.60115E+04  1.20989E+04 -3.18675E+04 -2.54378E+03 -1.83771E+04 -1.28326E+04
 -9.09502E+03 -2.41174E+04  7.04609E+03 -2.34379E+04  1.48544E+04 -1.33601E+04  1.88542E+04  7.22226E+03
  5.91523E+03  9.33175E+03 -8.36925E+03  1.07305E+04 -1.15067E+04  3.87188E+03 -1.36123E+04 -6.36044E+03
 -5.98788E+02 -1.02218E+04  3.99752E+03 -7.19922E+03  1.00128E+04 -6.60609E+03 -9.53660E+02  2.08096E+03
 -6.45475E+03 -3.05907E+02 -5.60916E+03 -5.42392E+03 -1.08782E+03 -1.18549E+04  4.60482E+03 -1.25182E+04
  1.25262E+04 -3.55761E+03  1.08503E+04  1.45515E+02  1.43300E+04  7.35857E+03  3.19994E+03  1.26374E+04
 -7.80782E+02  1.37178E+04 -9.73035E+03  8.94685E+03 -9.71511E+03  2.69116E+03 -1.15278E+04 -1.18354E+03
 -5.94368E+03 -6.11898E+03 -8.18616E+02  6.38453E+02 -2.62853E+03 -4.76353E+03 -4.92451E+03  4.68045E+03
 -9.77489E+03 -4.33059E+03 -1.04692E+04 -7.03041E+03 -8.08787E+02 -1.33561E+04  2.13388E+03 -1.20386E+04
  7.60533E+03 -3.68721E+03  4.26016E+03  2.29172E+03 -1.33979E+03  5.73254E+03 -6.09305E+03  1.00640E+03
 -2.20094E+03 -7.44680E+03 -1.02743E+03 -7.91942E+03  2.34158E+03 -1.20398E+04  1.13078E+04 -4.56377E+03
  1.53546E+04  2.42950E+03  7.18151E+03  6.22052E+03 -3.68086E+03  1.34243E+04 -4.79545E+03  1.16153E+04
 -9.92396E+03  2.80790E+03 -5.97809E+03  2.39244E+03  1.69436E+02 -4.06684E+03  2.34831E+03  1.37063E+02
  4.85016E+03  9.08735E+02  3.47817E+03  9.38094E+03 -1.18446E+02  2.42984E+03 -8.64918E+03  2.41671E+03
 -5.99812E+03 -3.88970E+03  2.33306E+03 -1.09593E+04  5.58796E+03 -2.44311E+03  6.27991E+03  2.70474E+03
  6.72811E+02  2.18393E+03 -5.20361E+03  3.17018E+03 -6.06008E+03  1.22472E+03 -4.67207E+03 -4.20149E+03
 -6.34626E+03 -9.60650E+03  1.82652E+03 -6.74174E+03  8.38470E+03 -1.00425E+04  8.67117E+03 -1.62904E+03
  4.48163E+03  5.41122E+03 -2.31687E+03  8.31991E+03 -7.03071E+03  3.17851E+03 -9.09939E+03  3.87566E+03
 -9.80198E+03 -4.36125E+03 -2.22464E+03 -8.55358E+03  3.85876E+02 -1.39802E+03  3.41850E+03 -5.53257E+03
  1.07497E+03  7.29307E+01  5.96728E+02  6.58138E+03 -1.50231E+03  1.60720E+03 -2.01277E+02 -1.88960E+03
  7.96170E+02  1.43668E+03  5.67248E+03  1.50523E+03  2.70246E+03  3.10939E+02  7.23162E+03  7.25961E+03
 -1.16021E+03  1.04104E+04 -8.68751E+03  6.07720E+03 -1.25544E+04  3.33901E+03 -9.46375E+03 -3.18487E+03
 -6.88593E+03 -1.08066E+04  2.91487E+03 -9.14666E+03  2.46083E+03 -6.72523E+02  4.85999E+03 -4.14551E+03
  2.30899E+03  1.45756E+03  2.15519E+03 -1.00116E+03  2.33193E+03 -3.51319E+03  1.19791E+03  3.51748E+02
  2.49517E+03  2.72562E+03  6.92048E+02  3.58780E+03  3.09582E+00  2.44533E+03 -5.14524E+03  1.23002E+03
 -6.18422E+03 -5.38807E+02 -2.32301E+03 -2.41080E+03 -3.26925E+03 -7.12929E+03  2.94209E+03 -4.69304E+03
  8.09631E+03  5.20422E+02  1.27731E+04  2.45496E+02  4.36463E+03  6.64885E+03  4.48793E+03  6.18339E+03
 -6.11434E+03  8.47616E+03 -2.56527E+03  1.37713E+03 -4.79136E+03 -2.88191E+03 -5.18255E+03 -1.53085E+03
 -3.10542E+03  4.31225E+03 -7.40085E+02  1.69026E+03 -4.20820E+03  4.10404E+03 -2.29221E+03  2.42261E+03
 -1.37261E+02  6.19191E+01 -4.03948E+03 -4.91646E+02 -1.48019E+02 -3.49475E+03  1.27923E+03 -6.25093E+03
  2.90166E+03  8.88208E+02  3.43383E+03  5.80652E+03  8.05854E+02  5.52632E+03 -1.79453E+03  8.44872E+02
 -4.47376E+03  3.56341E+03 -1.61919E+03 -3.27956E+03 -2.74761E+03 -2.92107E+03  2.65622E+03 -2.38723E+03
 -5.38652E+02 -2.41456E+02  1.83862E+03  5.51383E+02  1.29610E+02 -4.97910E+02  2.64099E+03 -4.94810E+02
  1.99248E+03  9.88354E+02 -2.96741E+03  5.55993E+03  5.70220E+01  2.10803E+03  5.51195E+02 -6.46564E+02
 -1.25319E+03  3.98494E+03 -6.47993E+03  3.79593E+03 -1.48095E+03  4.48956E+03 -8.78554E+03 -1.80772E+03
 -8.13779E+02 -2.45551E+03  8.77489E+02 -5.44860E+03 -1.72386E+03 -3.62868E+03  3.46063E+03  5.75227E+02
  2.55340E+03  7.26942E+03  8.72751E+02  1.46240E+03 -2.64482E+02  4.34803E+03  3.61816E+02 -5.46184E+02
  4.46019E+02 -3.67203E+03  3.73775E+03  1.84401E+02  3.14796E+03 -2.12234E+03  3.01458E+03 -2.03852E+03
  2.32144E+03  9.18995E+02 -5.73542E+01 -2.99664E+03 -3.76903E+03  6.59030E+03 -2.91382E+03 -2.50467E+02
  1.62949E+03 -4.06641E+02 -1.24638E+03 -1.66632E+03 -8.57657E+02  4.63072E+03 -3.45015E+03  5.04604E+02
 -8.38121E+02  4.45363E+03 -1.07037E+03  2.99980E+03 -4.45379E+03 -2.51004E+03 -7.86330E+02 -3.69278E+03
  3.74529E+03  7.05749E+02 -8.57685E+02  9.49860E+01  8.79699E+02  3.80929E+03  7.27667E+02  5.33521E+02
 -3.73444E+03 -9.90712E+02 -1.68193E+03 -3.11905E+03 -2.87322E+03 -6.14955E+03  1.98373E+02 -1.51281E+03
 -6.22269E+02  1.92931E+03  1.68348E+03 -2.38523E+03  1.57350E+03  7.16628E+02  3.59523E+03  2.07505E+03
  1.15541E+03  1.01055E+02 -9.99937E+02  1.27990E+02 -2.35958E+03  8.29495E+02 -1.54384E+03  1.26044E+03
 -9.61101E+02 -2.18563E+03  2.06844E+03  7.13277E+02  5.25793E+02  1.04832E+03 -3.82582E+03  3.97913E+03
 -1.14787E+03  6.00934E+02 -2.85758E+03 -4.11959E+03 -3.48252E+02 -4.62118E+03  5.08345E+03  1.76571E+02
  7.72286E+02 -3.74119E+02  5.85258E+03 -6.56018E+02 -3.28384E+03  7.06912E+02 -4.77245E+03  6.37354E+03
  6.06225E+01 -1.94767E+02  3.91258E+03  2.87974E+03  9.36462E+02 -5.83100E+03 -4.70499E+03 -8.25993E+02
 -2.34065E+02  2.17295E+03 -2.21425E+03 -1.18336E+03 -2.38900E+03 -1.71979E+02 -2.66915E+03 -7.38037E+02
 -4.93479E+03 -1.00390E+03  2.18912E+03 -4.59378E+03  2.65191E+03 -4.15874E+03  1.19903E+03 -1.63400E+03
  6.79584E+03 -5.41701E+02  4.27052E+03  8.15184E+02 -2.17871E+03  9.42584E+02 -6.11857E+03 -2.83879E+03
 -4.63728E+03 -6.63760E+02  3.77417E+02 -5.37533E+02 -6.87307E+02 -9.31484E+02  1.97272E+03  1.28696E+03
 -3.07925E+03 -1.88544E+03 -1.81012E+03  2.05844E+03  2.52719E+03  2.34553E+02 -4.25253E+03 -1.96398E+03
  2.92768E+03 -5.42324E+03  5.15877E+03 -2.62728E+02  3.33195E+03 -8.64207E+02 -1.03343E+03  2.42374E+03
 -5.04414E+03  5.08005E+03 -2.87808E+03  1.70437E+03  8.00848E+02 -4.07002E+03 -4.28256E+03  2.11874E+03
  9.37197E+02 -4.77547E+03  1.85223E+03 -5.33797E+02  7.71210E+02 -3.79064E+03  1.19590E+03  1.75379E+03
 -2.55568E+02  2.18810E+03  1.48487E+02 -4.15048E+03  1.11384E+03 -1.06845E+02 -1.39820E+03  1.03942E+03
  6.09213E+02 -2.05846E+03  2.48693E+03  6.42711E+03 -1.91723E+03 -2.19708E+02  1.71324E+03  7.59822E+02
  4.33506E+02  4.07111E+01 -2.18301E+02  1.20141E+03  3.74712E+02 -8.66027E+02 -1.94613E+03  1.64528E+03
 -8.72344E+02 -2.11977E+03  4.97814E+03  4.74911E+01 -9.62518E+02 -7.79543E+03 -5.55452E+02  3.49839E+03
 -5.99755E+02  4.10335E+03 -1.49349E+03  2.38295E+03 -4.59688E+02 -1.74073E+01 -6.06208E+02  1.94971E+03
  1.73727E+03  5.45430E+00 -3.79425E+02  4.19680E+03  9.15745E+02  2.87384E+03 -3.39125E+03 -2.30602E+03
 -3.56891E+03  2.84298E+03  9.21414E+02 -2.35986E+03  2.70763E+03 -2.67924E+03  2.73288E+03 -4.82288E+03
  2.62457E+03  4.52557E+03  1.01101E+03 -1.35221E+02 -3.01268E+03  1.96008E+03 -2.33005E+03  2.89059E+03
