 $NMID ID='MM_0lb_SNR50_20hz_g45_23.RAW', FMTDAT='(8E13.5)'
 TRAMP=1., VOLUME=1. $END
  3.10466E+05  2.06667E+03  3.37320E+05  2.50673E+05  8.22315E+04  3.35956E+05 -1.33660E+05  2.51911E+05
 -1.90362E+05  8.12573E+04 -1.14256E+05 -3.14279E+04  3.13319E+03 -4.90457E+04  5.53117E+04  3.28799E+02
  3.36239E+04  5.23011E+04 -1.57993E+04  7.43324E+04 -5.54450E+04  6.65096E+04 -8.01866E+04  3.14807E+04
 -8.12962E+04 -8.87211E+03 -5.69290E+04 -4.81447E+04 -1.74050E+04 -6.45825E+04  2.65906E+04 -4.68335E+04
  3.76673E+04  1.89406E+03  1.98465E+04  4.82128E+04 -3.17996E+04  4.49649E+04 -6.39405E+04 -3.36835E+03
 -4.78678E+04 -5.50394E+04 -5.82855E+03 -7.37075E+04  3.30227E+04 -5.12594E+04  4.84118E+04 -1.68018E+04
  4.60984E+04  1.09638E+04  2.99338E+04  2.31212E+04  1.71802E+04  2.71140E+04 -5.09490E+03  2.83050E+04
 -2.33663E+04  1.35473E+04 -1.94844E+04 -1.88849E+03 -7.80717E+02 -8.89599E+03  2.47730E+04  1.00199E+04
  1.27713E+04  3.32601E+04 -2.57598E+04  3.62932E+04 -6.01709E+04  7.19250E+03 -5.49237E+04 -4.25373E+04
 -1.21759E+04 -6.07796E+04  4.05284E+04 -4.07989E+04  5.20149E+04 -4.40192E+03  3.00579E+04  3.15470E+04
 -7.00857E+03  3.30170E+04 -3.01960E+04  1.27099E+04 -2.52141E+04 -4.63149E+03 -8.23251E+03 -1.13236E+04
 -6.66234E+03 -9.37044E+03  3.25679E+03 -1.75204E+04  5.46734E+03 -2.46050E+04  1.49767E+04 -1.15932E+04
  1.28471E+04  3.00924E+03 -3.78600E+03  1.58319E+04 -2.17284E+04 -2.66806E+03 -2.84888E+03 -2.53768E+04
  2.23079E+04 -3.80796E+04  4.31552E+04 -2.00227E+04  4.17987E+04  1.99654E+04  1.38826E+04  4.01775E+04
 -1.53136E+04  3.25395E+04 -1.97880E+04  3.15584E+03 -6.90379E+03 -2.57302E+04  2.06240E+04 -3.05729E+04
  3.48989E+04 -7.59683E+03  3.11345E+04  2.34553E+04  1.86988E+04  4.18743E+04 -9.43748E+03  4.13297E+04
 -2.88526E+04  2.51951E+04 -3.44780E+04  6.52948E+03 -3.79260E+04 -1.56954E+04 -2.01842E+04 -3.11059E+04
  4.92857E+03 -3.38177E+04  2.82557E+04 -1.11084E+04  2.73231E+04  1.80625E+04  1.72689E+03  1.44676E+04
 -1.62707E+04  6.97553E+03 -5.98739E+03 -4.63315E+03  9.37588E+03 -1.14531E+04  1.25508E+04  1.52572E+03
  1.23281E+04  2.05679E+04 -8.35962E+03  2.84673E+04 -2.43442E+04  1.02846E+04 -2.30862E+04 -1.55744E+03
 -9.69923E+03 -1.10348E+04 -1.04570E+04 -1.73391E+04  8.73918E+02 -1.25820E+04  1.15789E+04 -1.47428E+04
  2.15983E+04 -9.50468E+03  2.34242E+04  1.60911E+03  2.33044E+04  1.33431E+04  4.55099E+03  3.43732E+04
 -1.28439E+04  2.28232E+04 -2.34935E+04  8.17135E+03 -2.04921E+04 -1.06021E+04 -3.12270E+03 -8.16406E+03
  9.04273E+03 -6.44560E+03 -4.52763E+03  3.16876E+03 -1.32635E+04  6.89816E+03 -1.42241E+04 -4.67509E+03
 -1.16821E+04 -1.57161E+04  5.82517E+03 -1.68232E+04  8.94453E+03 -1.20110E+04  1.59053E+04 -7.23852E+02
  6.11017E+03  1.15194E+04 -2.80307E+03  1.63615E+04 -1.30148E+04  6.44444E+03 -1.45350E+04 -7.05736E+03
 -1.23969E+04 -1.19234E+04 -1.89968E+02 -1.65734E+04  7.37224E+03 -1.36018E+04  1.33342E+04 -9.20264E+03
  1.02872E+04  2.04248E+03  9.33749E+03  9.09625E+02  6.23272E+03  1.65331E+03  9.30196E+03 -4.84825E+03
  1.21085E+04  6.02215E+03  1.67130E+04  1.09266E+04  7.96580E+03  2.28257E+04 -5.68120E+03  2.55449E+04
 -1.61273E+04  1.70925E+04 -1.88718E+04  7.17764E+03 -1.61290E+04  1.58562E+03 -1.84328E+04 -1.50029E+04
 -8.49213E+03 -1.61311E+04  4.68511E+03 -1.34529E+04  1.41991E+04 -8.87147E+03  1.81371E+04  6.77760E+03
  9.79067E+03  1.12611E+04 -1.24537E+04  1.26387E+04 -1.80958E+04 -1.07082E+02 -9.85357E+03 -6.51889E+03
 -3.08536E+03 -1.15311E+04  5.34969E+03 -5.31737E+03  5.56838E+03  2.18819E+03  1.63969E+03  6.02187E+03
 -8.91824E+03  3.68032E+03 -5.70690E+02 -1.03869E+04 -1.37343E+03 -9.99454E+03  9.17018E+03 -5.26823E+03
  1.23817E+04 -4.04631E+03  1.00704E+04  1.22795E+03  6.28745E+03  6.73608E+03  6.95559E+03  7.79413E+03
  9.42816E+02  1.46179E+04 -3.71438E+03  8.39474E+03 -9.29372E+03  5.85650E+03 -5.66046E+03 -4.11429E+03
 -1.64838E+03 -3.37310E+03  3.03953E+03  4.15815E+03 -1.10960E+03  3.64435E+03  7.36069E+02  4.86732E+03
 -8.71937E+03  1.47097E+03 -1.02899E+04 -8.86703E+03 -5.89380E+03 -1.03672E+04  1.45810E+03 -4.27260E+03
  7.57409E+03 -5.49545E+03  3.68540E+03 -4.44636E+02  1.51015E+03 -1.12502E+03 -2.12953E+00  2.29826E+03
 -1.42409E+03 -2.84502E+03 -2.42495E+03 -6.26442E+03  2.88366E+03 -7.08953E+03  9.82288E+03 -1.47221E+03
  1.14211E+04  2.94341E+02  5.08275E+03  8.50064E+03  2.34281E+03  9.82334E+03 -5.06975E+03  4.45491E+03
 -3.10303E+03  2.10657E+03 -2.23027E+03 -5.85563E+03  3.31717E+03 -5.69919E+03  4.96412E+03 -2.17775E+03
  1.34032E+03  1.76240E+03  1.49651E+03  6.33743E+03 -5.13546E+03  6.11743E+03 -8.76470E+03 -1.15776E+03
 -2.05290E+03 -3.52369E+03  2.99927E+02 -4.74510E+03  5.72056E+03 -3.66854E+03  1.86645E+03  1.98216E+03
  1.45144E+03  6.79843E+02 -1.60830E+03  3.37528E+03 -2.02043E+03  2.01575E+03 -3.60318E+03 -2.13228E+03
 -1.68402E+03 -2.69211E+03  2.11343E+03 -4.98220E+03  8.43325E+03  1.73631E+03  4.02125E+03  3.99264E+02
  6.83275E+03  7.13382E+03  3.89714E+03  8.68720E+03 -5.79336E+03  3.02427E+03 -6.37771E+03  8.74403E+02
 -3.61449E+03 -3.29170E+03 -6.71357E+02 -1.42792E+03  2.39261E+03 -3.06941E+03  2.84935E+01 -1.92303E+03
  6.64562E+03  6.55287E+02 -1.42245E+03  2.48600E+03 -3.41919E+03  2.70513E+03 -3.81379E+02  1.74818E+03
  3.05396E+03  3.15822E+03  1.82545E+03  1.24319E+03  4.63441E+03 -2.18677E+03  4.21371E+03  2.09438E+03
 -7.93958E+02  7.65115E+03 -7.62363E+02  6.61961E+03 -5.92634E+03  2.81901E+02 -4.38528E+03 -1.66116E+03
 -3.67653E+03 -6.92049E+03  1.49604E+02 -7.79382E+03  3.13197E+03 -9.06701E+02 -1.51253E+03  1.85078E+03
  2.19678E+03  1.95475E+03  6.78982E+03 -1.44116E+03  4.76336E+03  3.26093E+03  6.90580E+03  9.25509E+01
  2.68826E+03  4.32153E+03  4.35041E+03  3.75186E+03  6.32328E+02  3.92899E+03  6.93469E+02  2.11133E+03
 -6.45806E+03  1.25715E+02 -2.73617E+03 -3.44646E+03 -2.05087E+03 -8.28603E+03  4.76175E+03 -6.58580E+03
  4.75452E+03 -1.67888E+03  4.06078E+03  1.10036E+03  3.12793E+03  3.18978E+03 -1.04675E+03  7.68020E+03
 -4.96236E+03  5.89125E+03 -3.82198E+03  1.16757E+03 -2.97532E+03 -2.53471E+02 -1.51425E+03 -1.98368E+03
 -9.18355E+02 -3.66964E+02 -1.05873E+03 -5.31626E+02 -1.05750E+03  1.10786E+03 -4.55763E+03 -1.44153E+03
  6.73880E+02 -3.18668E+03  3.48503E+03 -3.55623E+03  3.39569E+03 -4.39557E+03  1.37182E+03  5.10994E+02
  6.20023E+03 -1.97598E+03  3.46712E+01  1.13183E+03 -3.02191E+02  3.15356E+03 -2.85296E+03  1.07551E+03
 -2.99775E+03 -2.90157E+03 -1.84923E+03 -5.25578E+03 -2.26468E+03 -2.23488E+03 -3.23879E+02  4.46049E+02
  4.22302E+03 -2.22591E+03  1.93727E+03  6.75072E+02  4.84760E+03  3.51225E+03 -5.78706E+02  6.33380E+02
  3.24738E+03  2.65292E+03 -1.50252E+01  1.36733E+03  3.00030E+03  2.03073E+03  3.03527E+02  3.31086E+03
  2.78492E+03 -4.03735E+02 -3.50104E+03  7.93115E+03 -1.50780E+03 -7.45628E+02 -2.67131E+03  9.53186E+01
  1.31490E+03 -2.05440E+03  1.63187E+03 -6.75464E+03  4.63591E+03 -7.52606E+03  1.68212E+03 -1.50719E+03
  6.97763E+02  1.59953E+03 -4.02474E+03  1.41917E+03 -2.33065E+03 -2.12396E+02  2.40286E+03 -2.67612E+03
  4.64427E+02 -3.90023E+03 -1.49859E+03 -3.16931E+03  2.42402E+02 -3.65651E+03  2.72107E+03  3.74165E+02
 -8.88003E+01  3.73728E+03  1.64245E+03 -2.59864E+03 -1.14923E+02  1.88781E+03  3.32123E+03  1.07887E+03
  3.99441E+03  2.81894E+03  2.93079E+03 -1.22798E+03  1.22235E+03  3.43690E+03  1.94484E+03  9.42326E+02
 -3.78960E+02  7.28218E+02  1.36093E+03 -3.17539E+03 -4.00816E+03 -2.88870E+03 -1.28057E+02 -7.93400E+02
  1.19739E+03 -2.69524E+03  3.34324E+03 -3.26532E+03  2.95998E+02  1.26932E+03 -6.46305E+02 -1.90281E+02
 -2.77142E+01  9.48950E+02 -2.34866E+03  1.07678E+03  1.85691E+03 -2.85022E+03  2.22948E+03 -3.59235E+02
  1.58875E+03 -3.37807E+03  8.36104E+02  1.73651E+02  2.16951E+03 -1.10422E+03  2.12444E+03  1.24067E+03
  4.37549E+02  2.44819E+03  8.13338E+02  7.13655E+02 -3.68196E+03  1.22291E+03 -1.45104E+03 -1.09906E+03
 -8.65251E+02 -1.83278E+03  2.59081E+03 -3.62196E+03  4.67418E+03  4.44106E+03 -5.61358E+03  1.25677E+03
  2.93613E+03  1.55483E+03 -1.37248E+03 -4.07146E+02 -2.85900E+03 -1.56532E+03 -6.93328E+02  4.02455E+02
  3.10877E+03 -5.30900E+03  1.91912E+01  4.45587E+03  4.51220E+02  2.75862E+03 -2.77120E+03 -2.17711E+03
 -1.49168E+03  5.25734E+03  3.29729E+03 -6.85083E+02  4.08299E+02  9.01162E+02  1.18961E+03 -2.15568E+03
 -2.76005E+03  2.96538E+03 -8.83563E+02  5.03681E+02 -9.10196E+02  7.18387E+02  2.65618E+03 -5.10136E+03
  1.27553E+03 -5.03815E+03  2.19430E+03 -3.91396E+03 -2.82068E+03 -2.03619E+03  4.35998E+03  2.03841E+03
  4.73054E+03 -9.92856E+02  4.11125E+02  1.05464E+03 -3.44947E+03  5.97213E+02 -2.68615E+03  2.51629E+03
 -4.91743E+03  1.05563E+03  8.68013E+02 -6.95553E+02 -8.17209E+02  3.61970E+03 -1.43545E+03  6.27595E+02
  8.82582E+02  1.94306E+03 -7.06683E+02  1.41366E+03 -2.16482E+03 -1.77386E+03 -2.86280E+03 -2.01246E+03
  3.58061E+03  1.06348E+03  2.31396E+03  1.06409E+03  3.03156E+03  2.98077E+03  2.83789E+03 -2.71713E+03
  2.26353E+03  2.37763E+03 -3.43592E+03  2.19004E+02 -3.53758E+03  3.81719E+03 -8.02679E+02 -2.31824E+03
  6.35956E+02 -2.92549E+03  2.75145E+03  1.20656E+03  2.11875E+03  3.36172E+03  5.02620E+02 -8.71700E+02
 -1.40839E+03 -1.91037E+03  3.80410E+03  3.69020E+02  3.66070E+03  2.09642E+03  2.22127E+03  3.80371E+03
  1.09974E+03 -2.09476E+03  3.57361E+03  3.34557E+03  1.53317E+03 -4.61413E+03 -1.22489E+03  4.81398E+02
  1.31957E+03 -3.61630E+02 -2.18162E+03  2.77287E+02 -3.26158E+02 -6.05035E+02  1.62688E+01 -3.38374E+02
  2.53501E+03 -4.12620E+03  4.95921E+03 -2.37802E+03  8.88983E+02  7.97196E+02 -4.22886E+03  8.99896E+02
  1.29218E+03  1.66860E+03  2.29612E+02  1.50494E+03  2.74274E+01  2.33986E+02 -9.63886E+02 -1.52677E+03
 -2.01022E+03 -9.12116E+02  5.23737E+02 -1.61569E+03 -4.04966E+01  2.28649E+03  6.38279E+02  1.63000E+03
  2.08265E+03  9.18339E+01  2.90214E+02  1.07688E+03  2.01176E+03  6.42853E+02  3.50879E+03 -5.25219E+02
  3.30640E+03 -1.03853E+03  2.57794E+02  4.50546E+03  1.80764E+03  4.17756E+02 -1.51549E+03 -3.60755E+03
