 $NMID ID='MM_0lb_SNR50_12hz_g45_66.RAW', FMTDAT='(8E13.5)'
 TRAMP=1., VOLUME=1. $END
  3.05958E+05  3.19504E+03  3.35968E+05  2.49901E+05  8.57244E+04  3.38207E+05 -1.30085E+05  2.54948E+05
 -1.91199E+05  7.87899E+04 -1.09890E+05 -3.48426E+04 -2.90915E+01 -4.90121E+04  5.24812E+04 -5.92385E+03
  3.27209E+04  5.53543E+04 -1.69126E+04  8.23638E+04 -5.78318E+04  5.96404E+04 -8.49988E+04  2.84503E+04
 -8.12191E+04 -1.09055E+04 -5.85744E+04 -4.86322E+04 -2.11166E+04 -6.83129E+04  3.08397E+04 -4.22032E+04
  4.01603E+04  3.70383E+03  2.05195E+04  4.97467E+04 -3.69267E+04  4.70444E+04 -6.20738E+04 -5.85772E+03
 -5.44202E+04 -5.94037E+04 -5.25403E+03 -8.06929E+04  3.53101E+04 -5.36452E+04  4.54328E+04 -1.64206E+04
  4.29127E+04  8.92708E+03  4.01525E+04  1.99605E+04  2.27653E+04  3.08485E+04 -1.92924E+03  2.60987E+04
 -1.75982E+04  1.49819E+04 -1.99961E+04 -2.12426E+03  8.18784E+03 -6.51637E+03  2.02070E+04  1.37155E+04
  1.01991E+04  3.91206E+04 -3.58483E+04  4.01292E+04 -6.35741E+04 -2.07499E+03 -5.32270E+04 -4.22168E+04
 -1.09196E+04 -6.26755E+04  4.07877E+04 -4.36225E+04  6.72037E+04 -5.72540E+03  3.52447E+04  3.66887E+04
 -7.20947E+03  3.33309E+04 -2.62590E+04  1.68087E+04 -3.10765E+04 -3.41885E+03 -2.36036E+04 -6.89769E+03
 -8.28208E+03 -1.56318E+04 -3.05967E+03 -2.53124E+04  9.36422E+03 -2.96689E+04  1.59920E+04 -1.09658E+04
  9.84179E+03  7.22304E+03 -1.03522E+04  1.10271E+04 -2.31500E+04 -8.70224E+03 -9.34738E+03 -3.86311E+04
  2.79666E+04 -4.35272E+04  4.87022E+04 -2.12977E+04  4.73366E+04  2.08697E+04  1.01432E+04  4.51868E+04
 -1.75468E+04  3.21320E+04 -2.63282E+04  4.03422E+03 -6.02621E+03 -2.74102E+04  1.96901E+04 -3.21183E+04
  3.75330E+04 -7.28130E+03  3.93137E+04  2.54126E+04  1.66947E+04  4.69771E+04 -9.49868E+03  5.26214E+04
 -3.13548E+04  3.78468E+04 -4.46425E+04  1.27592E+04 -3.67412E+04 -1.61092E+04 -1.96467E+04 -4.64432E+04
  6.25254E+03 -3.97286E+04  3.30647E+04 -1.45297E+04  2.66947E+04  1.56779E+04  1.04774E+02  1.79165E+04
 -1.70316E+04  1.07433E+04 -9.62713E+03 -1.21573E+04  4.74345E+03 -1.57086E+04  1.67365E+04 -2.80922E+00
  1.57145E+04  2.32026E+04 -7.32835E+03  2.51202E+04 -2.66581E+04  1.50592E+04 -2.78479E+04 -6.66493E+03
 -2.70268E+04 -1.67611E+04 -9.40827E+03 -2.40341E+04  3.34379E+03 -2.21629E+04  1.63639E+04 -2.16587E+04
  2.65822E+04 -1.43570E+04  3.20144E+04  4.35510E+03  2.34960E+04  2.14230E+04  5.33403E+03  3.74394E+04
 -1.95716E+04  3.40193E+04 -3.12575E+04  1.25280E+04 -2.13483E+04 -5.54299E+03 -7.57333E+03 -1.29140E+04
  5.07622E+03 -6.06817E+03 -5.93888E+03  6.33758E+03 -1.53022E+04  4.25560E+03 -1.56915E+04 -4.20497E+03
 -7.70627E+03 -2.30527E+04  3.69843E+03 -2.25735E+04  2.12693E+04 -1.98517E+04  2.00174E+04 -1.51433E+03
  7.95080E+03  1.09673E+04  1.01675E+03  1.59040E+04 -1.57796E+04  1.38115E+04 -2.26689E+04 -2.80778E+03
 -2.07596E+04 -2.00876E+04 -4.40672E+03 -2.03114E+04  1.48061E+04 -2.05801E+04  1.98701E+04 -7.49828E+03
  2.05762E+04 -3.74460E+03  8.59842E+03  2.92062E+03  7.08177E+03 -2.80004E+03  1.11779E+04 -6.52577E+03
  1.75236E+04  5.61893E+03  2.03380E+04  1.73734E+04  1.49828E+04  3.20869E+04  1.59220E+03  4.15539E+04
 -2.58748E+04  3.33044E+04 -3.28778E+04  1.39875E+04 -3.68783E+04 -4.65483E+03 -2.97308E+04 -2.48797E+04
 -1.06323E+04 -3.13031E+04  1.00609E+04 -2.62851E+04  2.18936E+04 -9.42679E+03  2.28753E+04  1.89082E+03
  6.00246E+03  1.58987E+04 -7.93156E+03  1.61437E+04 -2.11704E+04  5.55853E+03 -1.56552E+04 -8.99927E+03
 -3.98497E+03 -1.32009E+04  4.15795E+03 -1.38625E+04  8.31418E+03 -5.71069E+03  3.90613E+03 -7.78937E+02
 -9.17619E+03  7.88189E+02 -5.35590E+03 -8.36890E+03 -9.19519E+03 -1.47966E+04  1.24693E+04 -1.73154E+04
  2.11721E+04 -2.17401E+03  1.92538E+04  3.29498E+03  1.69329E+04  1.39921E+04  9.44016E+03  2.82845E+04
 -7.46665E+03  2.96264E+04 -1.87846E+04  1.40411E+04 -2.12548E+04  4.78084E+03 -1.21861E+04 -3.47327E+03
 -8.38051E+03 -6.52854E+03  4.47439E+03  1.07307E+03 -5.64333E+03  5.00622E+03 -8.61899E+03  5.74799E+03
 -8.10600E+03  3.08531E+03 -8.31606E+03 -8.10502E+03 -2.56488E+03 -1.29719E+04  2.72339E+03 -1.14005E+04
  7.40878E+03 -7.07047E+03  5.88835E+03 -3.83583E+03 -5.74891E+02  7.88167E+03 -8.02976E+03 -4.04630E+03
 -6.35704E+03 -9.71216E+03 -1.28976E+03 -1.38849E+04  4.08364E+03 -1.21684E+04  1.24583E+04 -5.19795E+03
  2.16658E+04  1.00660E+03  1.28665E+04  9.71919E+03  2.48646E+03  1.47625E+04 -5.74548E+03  1.36441E+04
 -4.32891E+03  6.92759E+03 -4.61839E+03 -4.89973E+03  6.09678E+03 -9.27997E+03  9.80868E+03  3.45229E+03
  6.62435E+03  8.68513E+03  7.26727E+02  1.08731E+04 -7.01956E+03  6.08942E+03 -8.98290E+03  2.14459E+03
 -8.76570E+03 -4.38254E+03  3.86093E+02 -8.37234E+03  4.72525E+03 -7.26048E+03  4.42736E+03  3.11823E+03
 -8.81871E+01  1.10562E+04 -2.77525E+03  1.69163E+04 -1.41443E+04  1.47108E+03 -1.07603E+04 -5.84240E+03
 -1.38121E+02 -1.10889E+04  6.68200E+03 -1.72183E+04  1.46782E+04 -8.42313E+03  1.41356E+04  3.97013E+02
  6.95594E+03  9.61774E+03  5.55625E+02  8.61686E+03 -7.53318E+03  8.82879E+03 -1.06097E+04 -3.22982E+02
 -6.48868E+03 -4.31712E+03 -3.65184E+02 -1.11316E+04  5.39853E+03 -7.33152E+03  1.03746E+04 -4.73033E+03
  3.82766E+03  1.64293E+03 -5.80307E+02 -2.22501E+03 -3.06761E+02 -5.78246E+03  3.18760E+02 -4.33058E+03
  9.96723E+03  2.57857E+02  6.89075E+03  1.97453E+02  1.22428E+04  1.42862E+04  1.08835E+04  1.57292E+04
 -7.58506E+02  2.08327E+04 -1.64079E+04  1.11980E+04 -2.39224E+04  4.79036E+03 -9.96927E+03 -3.93398E+03
 -3.37354E+03 -1.48416E+04 -3.21570E+03 -1.13906E+04  6.24559E+03 -6.14512E+03  7.37539E+03 -1.02756E+03
  6.69922E+03  8.23119E+02  7.80253E+03 -3.77762E+03  8.69854E+03 -3.69919E+03  6.93990E+03  9.31045E+02
  4.37801E+03  6.23707E+03  1.90374E+03  8.61152E+03 -6.19605E+03  4.60466E+03 -5.75877E+03  6.76213E+03
 -5.67478E+03 -4.73842E+03 -2.19529E+03 -3.37446E+03 -4.81502E+03 -6.94788E+03  8.70647E+03 -1.17085E+04
  5.75369E+03 -4.81258E+03  1.33443E+04  2.43229E+03  9.07551E+03  9.13351E+03 -1.00657E+03  1.55677E+04
 -9.41706E+03  1.26771E+04 -4.98006E+03  1.24331E+03  1.52805E+02  1.84508E+03 -5.04755E+03 -4.08469E+03
  3.42078E+03 -3.41188E+03 -5.99864E+03  1.92907E+03 -9.63464E+03  8.99960E+02 -3.76573E+03 -4.09541E+03
  1.71602E+01 -6.74339E+03 -6.20558E+02 -1.63601E+04  3.29211E+03 -9.88347E+03  7.42173E+03 -3.59030E+03
  1.21307E+04  4.93491E+03  7.90654E+03  6.90968E+03  9.60635E+02  1.20524E+04 -6.45592E+03  7.50726E+03
 -8.09415E+03  1.20721E+03 -1.16888E+04 -7.04292E+03 -1.85657E+03 -8.97774E+03  4.77100E+03 -6.37260E+03
  4.59157E+03 -1.10051E+03  1.34437E+03  4.58561E+03 -8.08225E+02  4.45623E+03  3.42269E+03  5.08385E+03
  6.16845E+03  4.87056E+02  7.83211E+02  5.58709E+03  9.10418E+02  4.46025E+03  5.69443E+03  6.78981E+03
 -5.32446E+03  6.99751E+03 -7.79903E+03  4.79617E+03 -1.02951E+04  3.60639E+01 -7.87726E+03  3.53811E+02
 -8.38599E+03 -1.58883E+04  6.28779E+03 -6.51705E+03 -1.54803E+03 -6.41927E+03  5.38539E+03 -4.56821E+03
  5.45143E+03  3.27331E+02 -8.39272E+02  3.07289E+03 -7.18655E+03  1.26931E+03 -2.42597E+03 -4.00184E+03
 -1.52724E+02 -4.37385E+03  4.61832E+02 -5.78949E+03  4.19673E+03 -1.52593E+03  5.14816E+02 -4.71828E+03
  9.42843E+03  3.48584E+03 -5.88969E+02  2.65113E+03 -1.00983E+03  8.41419E+02  2.01481E+03 -3.73743E+03
 -2.43342E+02 -8.30332E+02  4.88699E+03  4.59209E+03  2.28829E+03  5.67024E+03 -2.36581E+03  8.25661E+03
 -6.16567E+03  7.17107E+03 -3.61840E+03 -9.71509E+02 -2.18509E+03 -3.69600E+03 -8.77974E+02 -5.77480E+03
  6.50310E+03  4.60408E+02  4.95437E+02 -3.71257E+03  1.31000E+03  2.93061E+03 -3.04872E+03 -2.43456E+02
 -7.34578E+03  2.65114E+03 -5.44800E+03  3.41828E+03  2.47459E+03 -6.54128E+03 -1.07676E+03 -4.62926E+03
  4.32878E+03 -4.62041E+03  5.65198E+03 -3.53975E+03  1.91368E+03  1.52579E+03 -5.14745E+03  1.20554E+03
 -2.96604E+03  4.27589E+03 -6.33024E+03  5.05973E+03  2.50976E+03 -8.14418E+03  3.55840E+03 -1.26598E+04
  8.80924E+03  3.51927E+03  8.36956E+03  1.83537E+03  2.00678E+03  1.14975E+04 -2.50753E+03  2.90659E+03
 -7.51747E+03  2.67196E+02 -8.17309E+03 -6.31657E+03 -6.99427E+03 -4.29062E+03  3.34111E+03 -7.70131E+03
 -2.71104E+01  6.22558E+02  5.18566E+03  6.82403E+03  3.42452E+02 -1.99685E+03 -1.89738E+03  4.17651E+03
 -3.81898E+03  1.08901E+03  1.34185E+03  5.95596E+03  2.57312E+03  2.16661E+03  1.97695E+03  1.47752E+03
 -7.75207E+03  9.00481E+02 -2.36932E+03  3.98926E+03 -4.66406E+03 -2.13853E+03 -1.10736E+04 -3.50079E+03
 -5.45296E+03 -9.04825E+02 -1.71327E+03 -1.03764E+04  7.41556E+03 -9.00226E+03  1.07214E+04 -4.93547E+03
  1.03683E+04 -4.08521E+03  3.02115E+03  9.37388E+03 -3.03825E+03  8.76107E+03 -2.98243E+03  6.11217E+03
 -1.11001E+03  2.64358E+03  2.25174E+03  3.20000E+03  2.01225E+02 -2.08850E+03 -1.19047E+03  3.68605E+03
  2.43624E+03 -5.87255E+03 -2.40278E+03  2.04465E+02  3.89708E+03 -3.30509E+03  8.75715E+02 -4.41146E+03
  4.60759E+03  1.61317E+03  5.25706E+03 -8.85113E+03  2.35251E+03  4.91442E+03 -7.51161E+03  7.09344E+03
  6.70168E+02  4.27661E+03 -7.49253E+03  3.39819E+03 -7.73283E+03 -7.38478E+03 -3.52750E+03 -2.53238E+03
 -8.02200E+03 -6.81502E+03  2.65404E+03 -5.44365E+03  1.11427E+03 -7.34020E+02  2.18944E+03 -5.29450E+03
  2.36487E+03  5.34266E+03 -1.55429E+03 -7.46081E+02 -1.93810E+03 -1.30492E+03 -3.45943E+03 -5.98988E+02
 -5.02302E+03 -5.77721E+03  3.72116E+03 -2.13993E+03 -5.34956E+03 -1.38416E+03 -1.68131E+03  5.39814E+03
  2.24529E+03  5.90121E+03 -3.67746E+03 -1.81205E+03 -6.43871E+03  2.36946E+03 -6.83909E+03 -3.05084E+03
  2.79838E+03 -5.20724E+03  6.11144E+03 -3.06773E+03  6.46117E+03 -2.65050E+03  2.61616E+03  4.81479E+03
 -2.47733E+03  2.59251E+03 -2.45963E+03 -1.81783E+03 -1.23605E+02 -6.86381E+02 -6.69444E+03  4.34583E+02
  4.56936E+01  3.65141E+03 -2.30539E+03 -1.66624E+02 -8.71762E+02 -1.82049E+03 -1.92436E+03  5.04258E+03
 -6.34273E+02 -1.71710E+03 -7.03352E+02 -6.29580E+03  4.65771E+03 -6.06193E+03 -1.10537E+03 -2.82761E+03
 -9.49001E+02 -1.68144E+03  8.58045E+02  2.64797E+03 -4.06296E+03  4.13501E+03 -1.83894E+03 -6.16285E+01
