 $NMID ID='MM_0lb_SNR50_17hz_g50_48.RAW', FMTDAT='(8E13.5)'
 TRAMP=1., VOLUME=1. $END
  3.10313E+05  2.84375E+03  3.39817E+05  2.50162E+05  8.21382E+04  3.40226E+05 -1.32179E+05  2.48865E+05
 -1.90139E+05  8.93384E+04 -1.08439E+05 -2.73152E+04  1.82505E+03 -4.62204E+04  5.50101E+04 -2.45220E+03
  3.07978E+04  5.25496E+04 -2.01237E+04  7.87384E+04 -6.35982E+04  6.67943E+04 -8.10564E+04  2.97707E+04
 -8.04320E+04 -7.15629E+03 -5.48836E+04 -5.39931E+04 -1.68614E+04 -6.96716E+04  3.07274E+04 -4.42864E+04
  3.82703E+04  4.76677E+03  1.37910E+04  4.62928E+04 -3.13117E+04  4.76636E+04 -6.45914E+04  5.87617E+03
 -5.33131E+04 -5.77811E+04 -1.41487E+04 -7.75156E+04  3.41812E+04 -5.66384E+04  4.61732E+04 -1.75685E+04
  4.05337E+04  8.10057E+03  3.25212E+04  2.55440E+04  1.68964E+04  2.74526E+04 -6.26642E+03  3.37936E+04
 -2.20249E+04  1.18639E+04 -2.37562E+04 -4.97901E+03  5.43523E+03 -9.01849E+03  1.97763E+04  1.49180E+04
  1.07799E+04  3.38138E+04 -3.15022E+04  3.78029E+04 -6.18110E+04  2.30066E+03 -5.51531E+04 -3.89844E+04
 -1.53082E+04 -6.09554E+04  3.47189E+04 -4.22857E+04  5.53717E+04 -5.34537E+03  3.40842E+04  3.01618E+04
 -3.60395E+03  3.49070E+04 -3.09231E+04  1.36455E+04 -2.72969E+04 -9.14760E+02 -1.42295E+04 -9.91707E+03
 -6.18035E+03 -8.33337E+03 -4.39764E+03 -1.59528E+04  1.01810E+04 -2.36413E+04  1.41802E+04 -1.30939E+04
  1.50169E+04  2.94524E+03 -5.54830E+03  7.47230E+03 -2.49167E+04 -6.77746E+02 -4.88530E+03 -2.54388E+04
  2.16568E+04 -4.37560E+04  4.54775E+04 -2.08011E+04  4.23487E+04  1.28670E+04  1.57458E+04  4.48680E+04
 -1.51140E+04  3.27453E+04 -2.24051E+04 -2.30032E+03 -6.22114E+03 -2.35706E+04  2.19533E+04 -3.47532E+04
  3.82120E+04 -2.50537E+03  3.56310E+04  2.26485E+04  1.50381E+04  4.14603E+04 -5.83843E+03  4.93114E+04
 -3.07395E+04  3.16223E+04 -3.93446E+04  1.05609E+04 -3.86944E+04 -2.08335E+04 -2.43126E+04 -3.66961E+04
  6.36093E+03 -3.61386E+04  2.87424E+04 -1.43015E+04  2.75136E+04  1.04586E+04  6.64555E+03  1.75431E+04
 -1.11637E+04  8.40297E+03 -8.53497E+03 -7.16766E+03  6.24028E+03 -1.39780E+04  1.97447E+04  7.95020E+03
  7.90239E+03  2.77320E+04 -8.92879E+03  2.16938E+04 -2.39114E+04  9.51444E+03 -3.20305E+04 -8.78833E+03
 -1.71327E+04 -1.54596E+04 -5.54140E+03 -1.57898E+04  4.45493E+03 -1.30933E+04  1.89924E+04 -1.04535E+04
  2.73906E+04 -1.35020E+04  2.71226E+04  4.17109E+03  2.51972E+04  2.32839E+04  8.18777E+03  2.81925E+04
 -1.49255E+04  3.06196E+04 -2.65951E+04  1.31514E+04 -2.07934E+04 -1.22711E+04 -4.38164E+03 -1.50839E+04
  3.34231E+03 -4.50369E+03 -5.10040E+03  9.34533E+03 -1.48724E+04  6.93319E+03 -1.52386E+04 -1.03497E+04
 -9.25831E+03 -1.44932E+04  6.98390E+03 -1.80011E+04  1.62153E+04 -8.40338E+03  1.70962E+04 -4.59627E+03
  1.42326E+04  1.15874E+04 -1.18892E+03  1.43695E+04 -1.30120E+04  1.18194E+04 -1.36480E+04 -8.62867E+03
 -1.33349E+04 -1.53946E+04 -1.49697E+03 -2.04962E+04  4.77163E+03 -2.01746E+04  1.41301E+04 -1.16447E+04
  1.61744E+04  3.81766E+03  1.16595E+04  4.68965E+03  4.97772E+03  6.48181E+03  7.51787E+03 -3.05217E+02
  1.38378E+04  4.41014E+02  1.69828E+04  1.20222E+04  5.81043E+03  2.64464E+04 -2.00208E+03  2.95162E+04
 -1.20426E+04  1.92779E+04 -2.80262E+04  9.80742E+03 -2.99107E+04 -3.07271E+03 -2.61646E+04 -1.89258E+04
 -1.30803E+04 -2.66860E+04  3.10060E+03 -2.35307E+04  1.42735E+04 -1.58292E+04  1.33805E+04  1.11244E+03
  6.67454E+03  1.03846E+04 -1.05674E+04  1.18671E+04 -1.23164E+04  4.39639E+03 -1.25209E+04 -6.56168E+03
  5.57062E+03 -1.53928E+04  6.49410E+03 -8.32880E+03  8.71522E+03  4.57283E+03 -4.15825E+02  5.44922E+02
 -9.47934E+03  4.52074E+03  1.09035E+03 -6.89322E+03 -5.13191E+02 -1.34814E+04  4.34028E+03 -1.58913E+04
  1.29305E+04 -5.99505E+03  1.45922E+04  2.49355E+03  1.15261E+04  7.28993E+03  7.99595E+03  1.55819E+04
 -3.68711E+03  1.31622E+04 -1.17095E+04  9.15518E+03 -1.42693E+04  3.24342E+03 -1.05608E+04 -6.18465E+03
 -5.99646E+03  1.09716E+02 -1.64366E+02  7.45398E+02 -4.52255E+03  9.38265E+02  1.17307E+03 -2.42122E+03
 -7.02115E+03 -1.43212E+03 -9.48912E+03 -7.71772E+03 -1.89052E+03 -8.41027E+03  6.17219E+03 -7.93392E+03
  9.13055E+03 -7.17490E+03  6.77675E+03  5.28484E+03 -3.74656E+03  3.74401E+03 -2.53979E+03 -8.41471E+02
 -3.17740E+03 -9.68633E+03 -3.67210E+03 -8.76927E+03  4.50038E+03 -4.63965E+03  1.26960E+04 -6.93628E+03
  1.81474E+04  1.51410E+03  1.08551E+04  1.07755E+04 -6.18899E+02  6.01231E+03 -5.34552E+03  8.26997E+03
 -8.85420E+03  9.94261E+02 -3.02541E+03  1.87218E+02 -4.27082E+03  1.08492E+03  4.38987E+03 -1.19922E+03
  5.75142E+03  7.02386E+03 -2.30175E+03  7.01614E+03 -5.75971E+03  6.07731E+03 -7.24066E+03  1.35385E+03
 -4.76102E+03  2.94718E+03  2.33590E+03 -6.73272E+03  3.93372E+03 -4.37677E+03  3.00082E+03  3.24635E+03
  2.99695E+03  8.93318E+03 -1.32500E+01  4.07053E+03 -8.34639E+03  2.41207E+03 -3.62967E+03  1.16941E+03
 -5.63475E+03 -9.44225E+03  3.31395E+03 -7.57850E+03  5.20448E+03 -6.38843E+03  9.85798E+03 -2.31893E+03
  8.64360E+03  4.24869E+03  9.41715E+02  5.06767E+03 -8.70567E+03  9.09965E+02 -1.02387E+03 -2.56360E+03
 -5.46664E+03 -6.19684E+03  3.03026E+03 -5.02064E+03  3.22136E+03 -3.41340E+03  2.26836E+03  5.64085E+02
  6.79202E+03 -8.99553E+02 -9.03888E+02  7.76033E+02 -7.91449E+02 -1.31339E+03 -4.76854E+03 -1.38160E+03
  6.90194E+03 -3.64878E+03  6.96142E+03 -4.34421E+03  5.69243E+03  4.41645E+03  8.16837E+03  7.32438E+03
  1.68086E+03  1.42339E+04 -8.00075E+03  1.06753E+04 -7.67208E+03  4.95643E+03 -1.17253E+04 -6.81805E+03
 -5.67372E+03 -5.82766E+03 -1.83244E+03 -8.60153E+03 -1.22805E+03 -9.87149E+03  4.41107E+03 -2.25821E+03
 -5.94610E+02  1.37002E+03 -1.38574E+03 -8.37251E+02  5.90402E+03 -2.37253E+03  4.38070E+03  1.17120E+03
  1.31346E+03  2.75973E+03  1.48814E+03  4.20118E+03 -2.04151E+02  5.50631E+03 -6.84790E+03 -1.56791E+03
 -9.48303E+03  1.18237E+03 -2.30361E+02 -2.50191E+03  2.63238E+03 -5.18829E+03  1.70970E+03 -9.28251E+03
  9.77658E+02 -3.80569E+03  5.10271E+03  3.42520E+03  6.40269E+03  6.43719E+03 -2.72450E+03  6.20256E+03
  3.53331E+02  8.57414E+03 -4.97456E+03  1.16102E+02 -7.96846E+02 -2.68999E+03  7.45328E+02  4.39377E+03
  1.97037E+03  8.56935E+02 -8.14457E+02  1.91603E+03 -2.17921E+03  5.29846E+02 -3.06738E+03  3.17687E+03
 -7.40344E+02 -5.98980E+03  2.50987E+03 -4.17620E+03  3.37085E+02 -1.71558E+03  2.24029E+03  3.44280E+03
  4.28023E+03  6.14682E+03  3.33704E+03  3.43760E+03 -1.10611E+03  5.88875E+03 -4.71145E+03  4.91778E+03
 -5.70338E+03 -1.81106E+03 -8.81865E+03 -8.07755E+02 -1.50760E+03 -6.58089E+03  1.69294E+03 -1.05327E+03
  4.66038E+03 -3.77087E+03  7.14609E+02  2.65084E+03  1.51446E+03 -1.47189E+03 -4.94535E+03  2.29105E+03
  1.91994E+03 -4.48262E+03  4.68647E+02 -9.92700E+02 -1.31332E+03 -1.19550E+03 -4.11571E+02  6.53241E+03
 -1.96858E+02  1.12898E+03 -3.25133E+02  4.62456E+03 -3.73754E+03  8.52705E+03 -2.43607E+03 -2.54700E+03
 -3.30131E+03 -5.59449E+03  1.46209E+03 -5.10865E+03  2.50088E+03 -6.47647E+03  2.83078E+03 -3.60299E+02
  2.12995E+03  2.76158E+03 -7.91944E+02  2.55772E+03 -2.44324E+03  1.21574E+03 -2.49756E+03 -3.19189E+02
  1.45134E+03 -2.70235E+03  2.30133E+03 -3.39868E+03 -1.62631E+03 -3.67905E+03  2.58216E+03  1.77398E+03
  2.07910E+03  2.61441E+03  3.20012E+02 -9.39783E+02 -4.73086E+03  2.61767E+03  3.27013E+02  6.71858E+02
  1.70785E+02 -1.31542E+02  3.20711E+03  2.59465E+03 -1.71044E+03  2.20212E+03  3.23815E+02  4.42498E+03
  1.63133E+03  5.12663E+02 -7.88678E+03  1.68925E+03 -2.74687E+03  1.13160E+03 -1.83694E+03 -3.28368E+03
 -3.60027E+03  9.38353E+02 -6.57374E+02 -2.61404E+03  9.07942E+02  8.39498E+03 -6.95772E+02  4.54073E+03
 -1.18246E+03 -1.72842E+03  2.05031E+03  1.47646E+01 -3.06948E+02 -1.21658E+02 -3.98015E+03 -2.60242E+03
 -1.35766E+03  7.41897E+02 -5.31078E+02  2.17611E+03 -6.78645E+02  2.05443E+03  1.56540E+03  4.11157E+03
  3.54898E+03  3.12150E+03 -1.11792E+03 -5.01729E+03  5.37626E+02 -2.64769E+03  3.69601E+03 -1.57562E+03
 -9.49968E+02 -9.33266E+02  1.67202E+03  1.28354E+03  1.59028E+03  4.31420E+03 -2.34104E+03  2.62783E+03
  1.02260E+03 -2.14583E+03 -1.17574E+03  1.39571E+03  2.00384E+03 -3.15554E+03  1.83196E+03 -3.38931E+03
  2.48465E+03 -8.84064E+02 -2.23409E+03  1.03773E+03 -2.12619E+02  2.10454E+03 -2.55468E+03  2.60785E+03
 -5.14788E+02  2.85530E+03  7.63143E+02  2.73911E+03 -2.11829E+03  2.61375E+03  9.71661E+01 -6.51220E+03
 -2.87526E+03  2.58697E+03 -4.72887E+02  3.61057E+03 -6.16746E+03  1.79108E+03 -2.88269E+03 -1.93791E+03
 -2.56268E+03 -4.84778E+03  3.55775E+03 -5.47339E+03  2.40697E+03 -5.25899E+03  3.49900E+03 -3.06536E+03
  4.73876E+03  2.23486E+03  2.84035E+03 -6.71791E+02 -3.52758E+03  4.00330E+03 -5.11820E+03  6.66102E+03
 -2.62510E+03  1.34521E+03 -1.80967E+03 -1.53032E+03  2.88386E+02  1.89495E+03 -7.17462E+02  1.63306E+03
 -2.75431E+03 -2.33814E+03 -1.41845E+03 -5.76234E+00  3.82185E+03 -8.74778E+02  1.24345E+03  5.41672E+02
  8.01815E+03  1.09469E+03  3.72876E+03  2.32597E+03 -2.93625E+03  5.18295E+02  2.41384E+03  3.15036E+03
 -5.00016E+02  1.92781E+03 -6.56669E+03  4.61459E+03 -6.66025E+03 -2.11018E+03 -8.00143E+01 -5.15441E+03
 -2.69160E+03  5.06670E+01 -2.55172E+03 -3.67931E+03 -4.90763E+03  1.04794E+03  3.25071E+03 -2.56586E+03
 -1.58130E+02  8.87051E+02 -3.54081E+03 -1.13839E+03 -9.62456E+02 -1.40301E+03 -2.09657E+03  7.88018E+02
  8.34753E+02 -2.99692E+02  4.14588E+03  1.91665E+03  4.22657E+02  9.21051E+00 -6.20341E+02 -3.02670E+03
 -4.85537E+03  2.99629E+03 -4.57809E+03 -3.67568E+02  3.61233E-01 -2.52321E+03  1.36040E+03 -9.82128E+02
 -3.26288E+03  3.46617E+03 -5.00794E+02  4.19478E+02 -6.18593E+02 -2.44356E+03 -2.58940E+03  3.39261E+03
  3.64067E+02  1.82338E+03  8.19252E+02  5.17585E+03 -2.84989E+03 -4.05738E+02 -1.66284E+03 -8.53634E+02
  1.02038E+02 -2.13941E+03 -7.03033E+03  4.07285E+03 -8.12304E+02  2.20864E+03  2.78264E+02 -9.98444E+02
  4.28174E+03 -3.77130E+01 -2.59048E+03  5.66283E+02  2.62140E+03 -1.96741E+03  2.31362E+03  8.20736E+02
 -5.17402E+03  6.93033E+02  1.67681E+03  2.70160E+03  3.44316E+02 -3.70950E+03 -8.62610E+02 -8.43668E+02
