 $NMID ID='MM_0lb_SNR50_8hz_g55_15.RAW', FMTDAT='(8E13.5)'
 TRAMP=1., VOLUME=1. $END
  3.04150E+05  3.59273E+03  3.40264E+05  2.48114E+05  8.29857E+04  3.37493E+05 -1.33223E+05  2.55496E+05
 -1.99783E+05  8.24497E+04 -1.14809E+05 -3.29684E+04  7.58079E+03 -4.69050E+04  5.25435E+04 -2.55642E+03
  4.18423E+04  5.03035E+04 -1.89217E+04  7.90462E+04 -5.60403E+04  6.08492E+04 -9.07715E+04  3.13070E+04
 -8.32555E+04 -1.57819E+04 -5.71079E+04 -5.70757E+04 -1.72510E+04 -7.02998E+04  2.74240E+04 -4.47905E+04
  3.96935E+04  7.01350E+03  1.99360E+04  5.71147E+04 -3.78764E+04  5.04256E+04 -6.89301E+04 -2.47046E+03
 -5.58405E+04 -5.77746E+04 -1.32644E+02 -8.39634E+04  3.23566E+04 -5.53638E+04  4.86103E+04 -2.33076E+04
  4.59550E+04  1.35489E+04  3.81604E+04  2.15574E+04  1.40307E+04  3.13867E+04 -1.03526E+04  2.18677E+04
 -1.30832E+04  1.66109E+04 -1.76225E+04 -9.24940E+03  5.46620E+03 -5.00562E+03  2.11424E+04  1.93499E+04
  8.33435E+03  3.69719E+04 -3.50884E+04  3.84131E+04 -6.61932E+04  2.80516E+03 -6.60300E+04 -4.47277E+04
 -9.90502E+03 -7.21851E+04  4.10384E+04 -4.79829E+04  6.23689E+04 -3.37565E+03  4.07626E+04  3.64487E+04
 -7.05644E+03  4.30138E+04 -2.90503E+04  1.82014E+04 -3.84913E+04 -9.71717E+03 -1.52637E+04 -1.82112E+04
 -5.10343E+03 -1.36845E+04  7.26474E+02 -2.25056E+04  3.62200E+03 -3.21647E+04  1.53184E+04 -1.28599E+04
  9.80020E+03  4.27197E+03 -6.67464E+03  1.00523E+04 -2.80099E+04 -2.61290E+03 -3.20467E+03 -4.02737E+04
  2.10608E+04 -5.51235E+04  5.96082E+04 -2.34346E+04  4.61989E+04  2.26823E+04  1.63046E+04  5.06404E+04
 -7.75029E+03  3.76796E+04 -3.46244E+04  1.98414E+03 -1.90319E+04 -3.12502E+04  1.80214E+04 -3.64851E+04
  5.02272E+04 -7.24091E+03  4.27533E+04  2.33188E+04  2.02188E+04  4.88934E+04 -7.94395E+03  5.24336E+04
 -3.22764E+04  3.90464E+04 -4.44694E+04  7.93504E+03 -5.58469E+04 -2.11713E+04 -2.67756E+04 -4.58843E+04
  5.70190E+03 -5.03091E+04  3.95649E+04 -2.12694E+04  3.67240E+04  9.69430E+03  8.03109E+03  2.28457E+04
 -2.01457E+04  9.16394E+03 -1.21272E+04 -5.93557E+03  8.16591E+03 -1.11935E+04  2.12584E+04  4.64915E+03
  2.19073E+04  2.38775E+04 -1.61806E+04  3.23914E+04 -2.51725E+04  2.14601E+04 -3.68633E+04 -2.75473E+02
 -1.68543E+04 -1.59352E+04 -1.76727E+04 -2.81458E+04 -4.65763E+03 -2.84190E+04  2.46007E+04 -2.09500E+04
  3.10797E+04 -8.54044E+03  4.08392E+04  1.14609E+04  2.83324E+04  2.82265E+04  1.11416E+04  4.29962E+04
 -2.38937E+04  3.14618E+04 -3.00402E+04  1.32150E+04 -2.20119E+04 -1.38919E+04  1.40999E+03 -1.22071E+04
 -1.97198E+03  5.92975E+03 -1.04982E+04  4.65621E+03 -2.78000E+04  5.52036E+03 -2.49607E+04 -1.61786E+04
 -1.16508E+04 -2.09337E+04  1.10961E+04 -2.84996E+04  1.96072E+04 -1.58251E+04  2.14601E+04 -9.98080E+02
  9.27804E+03  2.64781E+04 -1.23647E+03  1.95215E+04 -2.20352E+04  8.61270E+03 -2.22771E+04 -1.10798E+04
 -1.12424E+04 -1.65884E+04  5.86332E+03 -2.63556E+04  6.91975E+03 -2.80404E+04  2.01625E+04 -1.06994E+04
  2.41836E+04  1.46234E+03  2.58880E+04 -1.45634E+02  9.14275E+03  3.15233E+03  1.60145E+04 -2.09149E+03
  2.50565E+04 -1.01487E+03  2.07666E+04  2.24257E+04  3.78495E+03  4.16775E+04 -2.20873E+03  4.81383E+04
 -3.21663E+04  3.11073E+04 -5.04663E+04  2.40975E+04 -4.98468E+04  3.73472E+03 -4.20114E+04 -2.48770E+04
 -1.43238E+04 -3.47564E+04  1.76831E+04 -3.29677E+04  3.07593E+04 -1.90885E+04  2.73396E+04  1.91160E+03
  3.98510E+03  2.42978E+04 -1.02377E+04  2.22712E+04 -1.91072E+04 -1.85655E+03 -1.90815E+04 -1.40337E+04
 -3.49393E+03 -2.02811E+04  1.37667E+04 -7.82228E+03  2.09474E+04  1.59605E+03  2.60270E+03  4.21157E+03
 -1.55945E+04  1.17934E+04 -1.23053E+04 -1.43778E+04 -2.46035E+03 -2.55386E+04  1.08718E+04 -2.00292E+04
  2.46826E+04 -1.20404E+04  2.71163E+04  1.46106E+03  2.57388E+04  2.69368E+04  7.44017E+03  3.83062E+04
 -3.43641E+03  3.59813E+04 -2.15727E+04  2.99869E+04 -2.07419E+04 -3.38944E+03 -2.26201E+04 -1.49844E+03
 -5.87188E+03 -1.20248E+04  4.12596E+02  3.38345E+03  3.30138E+03  1.10099E+04 -1.54654E+04  2.80618E+03
 -1.39352E+04 -1.07235E+02 -1.66227E+04 -1.48854E+04 -1.50956E+03 -2.72502E+04  1.36314E+03 -1.39265E+04
  8.21976E+03 -7.26854E+03  5.80696E+03 -6.03615E+03  2.36188E+02  9.34883E+03 -8.93554E+03 -2.86024E+03
 -2.73173E+03 -1.37206E+04 -8.10059E+02 -1.70994E+04  7.77088E+03 -1.75962E+04  2.20310E+04 -1.33224E+04
  2.48802E+04  2.28701E+03  1.36235E+04  1.36691E+04  8.79312E+02  2.93748E+04 -7.17025E+03  2.13266E+04
 -2.50996E+04  6.72159E+03 -3.40133E+03 -9.08586E+02 -2.25648E+02 -7.55896E+03  1.78446E+04 -3.44012E+03
  1.08985E+04  7.80644E+03 -1.84649E+03  1.23740E+04 -1.29830E+04  1.61900E+04 -1.46762E+04  7.99407E+02
 -1.28145E+04 -7.20731E+03 -2.27156E+03 -2.23177E+04  1.16659E+04 -9.14094E+03  4.81222E+03  3.17837E+03
  4.93728E+03  1.90147E+04 -4.27932E+03  1.21388E+04 -1.64599E+04  1.90430E+03 -1.56331E+04 -1.23153E+04
 -5.79869E+03 -2.45457E+04  3.55138E+03 -1.68189E+04  1.44984E+04 -1.24245E+04  2.57779E+04  5.27716E+03
  1.85663E+04  9.43819E+03 -4.42945E+03  1.75858E+04 -1.26312E+04  4.29782E+03 -1.45803E+04 -3.27086E+03
 -1.05845E+04 -9.97753E+03 -1.09425E+03 -9.57676E+03  7.82510E+03 -8.18525E+03  1.46915E+04 -3.73570E+03
  4.79589E+03  2.71839E+03  6.70312E+02  1.45758E+02  2.10682E+03 -3.08987E+03  4.40342E+03 -2.65786E+03
  1.26383E+04 -7.41236E+03  1.84416E+04  2.88019E+03  1.15123E+04  1.23333E+04  1.13165E+04  2.47182E+04
 -6.83464E+03  3.53789E+04 -2.13898E+04  2.47903E+04 -3.69126E+04  6.25712E+03 -1.83209E+04 -1.40000E+04
 -9.91002E+03 -1.60340E+04 -7.94787E+03 -2.23302E+04  5.22821E+03 -1.40534E+04  5.38013E+03 -7.29667E+03
  1.95251E+03 -3.99948E+03  5.17189E+03 -3.38005E+03  6.62731E+02 -4.58798E+03  1.08878E+04  6.52793E+02
  1.05667E+04 -3.55429E+03  8.27245E+03  1.67261E+04 -7.21272E+03  1.46844E+04 -1.21938E+04  7.94934E+03
 -1.20526E+04 -7.94500E+02 -1.08807E+04 -1.12369E+04  1.61139E+02 -1.42402E+04  1.37801E+04 -1.63210E+04
  2.18910E+04 -5.86941E+03  2.54387E+04 -1.76858E+03  1.47159E+04  2.20025E+04 -1.21004E+03  2.17098E+04
 -2.96927E+03  2.09999E+04 -1.72079E+04  4.24721E+03 -9.91166E+03 -7.38720E+03 -4.93243E+03  1.63596E+02
  9.07028E+02 -4.96650E+03  7.62042E+02  5.59946E+03 -4.57977E+03  5.72529E+03 -4.49238E+03 -2.59248E+03
 -7.27659E+03 -1.40593E+04  5.35538E+03 -1.48085E+04  1.30364E+04 -1.48470E+04  1.81894E+04  1.29196E+03
  1.91108E+04  5.40230E+03  8.32915E+03  1.38698E+04 -6.93404E+03  5.96234E+03 -1.11313E+04  1.88659E+04
 -1.36338E+04 -1.36591E+03 -1.20026E+04 -6.68695E+03 -2.29314E+03 -1.40396E+04  3.31621E+03 -8.83170E+03
  1.27545E+04  3.13322E+03  7.04510E+03  1.88743E+03  6.86276E+03  6.70381E+03  3.84646E+03  2.89078E+03
  2.63767E+03 -6.59564E+02  8.53958E+03 -1.81937E+03  4.24711E+02  4.29927E+03  6.08396E+03  5.38019E+03
  4.14084E+03  1.41380E+04 -1.98507E+04  2.42275E+04 -2.10288E+04 -7.43186E+02 -1.57977E+04 -1.03197E+04
 -6.73389E+03 -9.41271E+03  2.96441E+03 -1.79035E+04  6.77489E+03 -1.84934E+04  9.71838E+03 -4.40861E+03
  7.83239E+03  6.35242E+03  9.29113E+03  1.15416E+04 -4.44265E+03  7.90413E+03 -5.47442E+03 -1.04984E+04
 -5.65121E+03 -4.29018E+02  3.10285E+03 -1.38345E+04  1.11712E+04 -5.92951E+03  1.09028E+04  2.81951E+03
  5.69864E+03  1.79592E+03  1.08495E+04 -1.97757E+03 -3.40667E+03  7.62789E+03  7.74467E+02  8.62319E+02
  6.02475E+02 -6.71493E+03  6.31075E+03 -3.35099E+02 -3.79420E+03  1.41638E+04 -5.32346E+03  1.62244E+04
 -1.30856E+04  9.21084E+03 -1.10321E+04 -4.80626E+03 -6.05391E+03 -2.62266E+03 -2.20450E+03 -3.58214E+03
 -2.57539E+03 -7.68371E+03  4.28484E+03 -1.08730E+03  2.11277E+03 -2.72738E+03 -1.33443E+03  4.24742E+03
 -4.56014E+03  8.39236E+03 -7.11426E+03 -8.01515E+03 -3.53466E+03 -1.07933E+04  2.12846E+03 -8.76046E+03
  9.07336E+03 -1.66577E+03  4.76085E+03 -1.20161E+04  5.81750E+03  5.38075E+03 -1.42148E+03  9.21085E+03
 -6.06762E+03  4.55322E+03 -7.59499E+03 -8.25746E+03  7.00643E+03 -1.38810E+04  8.57020E+03 -1.24708E+04
  1.28186E+04 -1.39858E+01  8.55187E+03  1.58346E+03  7.18001E+03  1.13090E+04 -8.78249E+03  1.48622E+04
 -1.56256E+04  8.19209E+03 -1.02810E+04 -1.46922E+03 -1.03250E+04 -6.62525E+03 -1.08314E+03 -1.37262E+04
  1.33375E+04 -1.29935E+04  1.20059E+04 -2.85637E+03 -7.88534E+01  1.21411E+04 -3.87226E+03  1.11108E+03
 -3.76856E+03  6.59347E+03 -5.90155E+03 -1.58289E+03  1.13800E+03 -9.06744E+02 -1.12871E+03  1.74437E+03
  4.05946E+03  6.17513E+03 -1.63688E+04  6.92166E+03 -1.44905E+04 -5.44306E+02 -1.32580E+04 -1.06031E+04
 -6.88835E+03 -1.42916E+04  2.19412E+03 -2.14296E+04  9.76189E+03 -1.60315E+04  1.46102E+04 -5.20407E+03
  1.01200E+04  4.44307E+03  1.32122E+04  1.55546E+04  4.34789E+03  1.08590E+04  9.67633E+01  4.53782E+03
 -8.22579E+03  1.76970E+03 -8.67898E+03 -2.03348E+03  3.97109E+03 -2.82458E+03  3.77212E+03  9.32002E+02
 -2.61854E+03  1.12215E+03 -5.26254E+03 -3.91325E+03 -2.28221E+03 -4.86973E+03 -2.38813E+03 -4.55414E+03
  3.85731E+03 -6.81816E+03  8.29695E+03 -7.48144E+02  6.04801E+03  7.98945E+03  4.17501E+01  1.89717E+04
 -8.67240E+03  1.18478E+04 -9.57370E+03  1.26599E+04 -1.21496E+04 -5.62111E+03 -7.99991E+03 -1.25457E+04
 -5.98494E+03 -1.68161E+04  7.08093E+03 -9.86746E+03  5.49921E+03 -6.77925E+03  4.76742E+03 -1.35311E+03
  1.92231E+02  4.50988E+03  1.60827E+02  7.52584E+03 -7.81690E+03 -5.08845E+03 -8.34761E+02 -4.21270E+03
  3.91179E+03 -2.58588E+03  9.43765E+03  8.00656E+03  6.45452E+02  5.14468E+03  2.95487E+03  2.86764E+03
 -2.78164E+03  3.14338E+03 -1.04898E+04 -2.67674E+02 -8.22034E+03 -1.15571E+04  6.87216E+03 -9.80629E+03
  4.47874E+03 -3.45994E+03  3.06951E+03 -2.21491E+03  1.13273E+04  3.74673E+03 -1.15868E+03  1.09045E+04
  4.93862E+03  7.55611E+03 -1.71935E+03  1.44134E+04 -1.92444E+03  5.83359E+03  6.24298E+03 -6.95038E+02
 -5.36529E+03 -5.03415E+03 -7.61593E+01  5.91061E+03 -3.77382E+03  1.14496E+03  2.92299E+03  6.59762E+03
 -4.99608E+03 -2.52664E+03 -2.67405E+03 -1.00839E+04  4.02968E+03 -9.69284E+03  7.59979E+03 -5.94614E+03
  3.80837E+03 -2.65143E+03  2.82812E+03  2.85424E+03 -5.97164E+03  1.15078E+04 -2.05094E+03  6.02983E+03
