 $NMID ID='MM_0lb_SNR50_17hz_g45_21.RAW', FMTDAT='(8E13.5)'
 TRAMP=1., VOLUME=1. $END
  3.08201E+05  6.50465E+02  3.35906E+05  2.51863E+05  8.79784E+04  3.38432E+05 -1.33613E+05  2.46281E+05
 -1.89596E+05  8.11009E+04 -1.11005E+05 -3.26869E+04  4.51951E+02 -5.38964E+04  5.31862E+04  1.15799E+03
  3.42635E+04  5.06023E+04 -1.66691E+04  7.70034E+04 -6.00741E+04  5.89730E+04 -8.32745E+04  3.49485E+04
 -7.79733E+04 -8.51080E+03 -5.48014E+04 -4.56899E+04 -1.76401E+04 -7.37284E+04  2.09075E+04 -4.50690E+04
  3.57985E+04  5.30391E+03  1.23099E+04  4.72093E+04 -2.97730E+04  4.56008E+04 -6.35937E+04 -3.54976E+03
 -5.22562E+04 -5.93622E+04 -9.57446E+03 -7.75341E+04  3.93236E+04 -5.23752E+04  4.44169E+04 -1.63181E+04
  3.72750E+04  1.64909E+04  2.81630E+04  3.07003E+04  1.81967E+04  2.82367E+04 -4.46509E+03  2.58771E+04
 -2.04355E+04  1.34118E+04 -2.13550E+04 -8.36797E+03  7.92880E+03 -5.09167E+03  2.39717E+04  1.32390E+04
  2.56351E+03  3.30722E+04 -3.23759E+04  3.12567E+04 -6.34365E+04  2.93863E+03 -6.00542E+04 -4.47059E+04
 -1.11429E+04 -6.39989E+04  3.51205E+04 -3.89734E+04  5.72934E+04 -3.72279E+03  3.00434E+04  3.29225E+04
 -1.31355E+04  3.49015E+04 -2.90956E+04  1.44656E+04 -2.91740E+04 -1.89008E+03 -1.19367E+04 -7.87040E+03
 -8.01174E+03 -9.41270E+03  1.26806E+03 -1.87508E+04  6.95154E+03 -2.38939E+04  1.61365E+04 -1.53717E+04
  9.56749E+03  9.42126E+02 -6.66023E+03  1.48092E+04 -2.36157E+04 -4.96399E+03 -6.06124E+03 -3.28664E+04
  2.61300E+04 -4.19295E+04  4.73628E+04 -2.09939E+04  4.15588E+04  2.12378E+04  1.15181E+04  4.31054E+04
 -1.66077E+04  3.63072E+04 -2.62769E+04  4.04293E+03 -8.19874E+03 -2.28981E+04  1.57241E+04 -2.59468E+04
  3.98026E+04 -4.39172E+03  3.47035E+04  2.55357E+04  1.19917E+04  4.22333E+04 -9.59923E+03  4.99648E+04
 -2.89589E+04  3.39002E+04 -3.67619E+04  8.20852E+03 -3.79529E+04 -1.71307E+04 -2.08724E+04 -3.92546E+04
  1.11644E+04 -3.65100E+04  3.35087E+04 -1.68440E+04  2.75146E+04  1.12243E+04  1.27665E+03  1.85426E+04
 -1.50532E+04  1.02267E+04 -7.52209E+03 -5.76500E+03  6.59032E+03 -8.22101E+03  1.38553E+04  5.46002E+03
  1.05544E+04  1.67067E+04 -5.01960E+03  2.23710E+04 -2.38481E+04  7.17175E+03 -2.79701E+04 -4.65486E+03
 -1.65680E+04 -1.21211E+04 -6.22127E+03 -1.75283E+04  5.34949E+03 -1.79925E+04  1.20804E+04 -1.72680E+04
  2.59017E+04 -1.09736E+04  2.82262E+04  2.24978E+03  2.01521E+04  1.90967E+04  1.77007E+03  3.71283E+04
 -1.61450E+04  2.59787E+04 -2.29614E+04  1.08157E+04 -2.11532E+04 -1.47201E+04 -2.47748E+03 -1.24719E+04
  3.58293E+03 -5.11384E+03 -6.05469E+03  6.72805E+02 -1.12467E+04  6.64507E+03 -1.21643E+04 -8.91445E+03
 -7.96156E+03 -1.25130E+04  4.15366E+03 -1.87828E+04  1.68258E+04 -1.26668E+04  1.26923E+04  5.89273E+02
  8.15850E+03  8.83380E+03  3.41402E+03  1.57100E+04 -9.52773E+03  1.05396E+04 -1.83628E+04 -4.63575E+03
 -9.03919E+03 -1.78720E+04  1.38552E+03 -1.89895E+04  1.00321E+04 -2.06987E+04  1.71178E+04 -9.30903E+03
  1.53007E+04 -2.10119E+03  6.80049E+03  3.21542E+03 -1.49570E+03  1.59473E+03  7.00746E+03 -3.17701E+03
  1.41298E+04  6.39792E+03  1.87380E+04  1.78362E+04  5.17530E+03  2.43587E+04  1.72583E+03  2.70338E+04
 -1.41736E+04  2.19784E+04 -2.78454E+04  1.64064E+04 -2.81204E+04 -5.53597E+03 -1.76961E+04 -1.38421E+04
 -1.28884E+04 -2.37303E+04  7.02567E+03 -2.15822E+04  1.85353E+04 -8.84597E+03  1.93492E+04  6.37807E+03
  1.76955E+03  1.74354E+04 -9.75760E+03  1.29913E+04 -1.20959E+04  3.10976E+03 -1.27296E+04 -1.01609E+04
 -3.02441E+03 -1.29172E+04  9.73386E+03 -9.22218E+03  5.16499E+03  1.18472E+03  1.72950E+03  2.71641E+02
 -7.34991E+03 -9.90004E+02 -2.24546E+03 -9.57429E+03  3.49477E+03 -8.03394E+03  6.27279E+03 -1.21962E+04
  1.54448E+04 -7.06890E+03  1.45414E+04  4.00202E+03  1.05781E+04  1.34532E+04  1.27629E+04  1.29819E+04
 -2.76326E+03  1.25895E+04 -1.58491E+04  9.70919E+03 -1.38125E+04  4.67814E+03 -6.02084E+03 -4.97546E+03
 -6.73271E+03 -2.70192E+03 -2.50977E+03  3.03463E+03  1.11049E+03  3.10837E+03 -9.16092E+03  5.01965E+03
 -8.06903E+03  8.46323E+02 -1.07646E+04 -7.69870E+03 -3.71391E+03 -1.22337E+04  6.58143E+03 -1.04415E+04
  6.19088E+03 -3.08491E+03  2.35867E+03 -4.49656E+02 -2.61232E+03  1.96831E+03 -1.51040E+03  1.98202E+03
 -4.94853E+03 -8.32966E+03  3.03986E+03 -1.03802E+04  5.24766E+03 -1.37083E+04  6.70798E+03 -4.94436E+03
  1.14524E+04 -2.75750E+02  9.71825E+03  1.01223E+04  5.50961E+03  9.02862E+03 -7.51075E+03  1.26970E+04
 -8.38058E+03  2.58064E+02 -4.88742E+03 -3.25616E+03  5.65104E+03 -2.94595E+03 -2.06725E+03 -5.22663E+03
  8.43907E+03  4.33933E+03 -7.99578E+02  5.37110E+03 -7.10700E+03  7.85159E+03 -9.44165E+03  3.83607E+03
 -5.65536E+03 -6.29008E+02 -1.39266E+03 -1.04789E+04  5.86212E+03 -3.47989E+03  4.24878E+03  3.32455E+03
 -2.40471E+03  2.45763E+03 -2.23334E+03  4.02865E+03 -5.00682E+03  1.34423E+03 -6.92789E+03 -1.22347E+03
 -7.64575E+03 -6.43653E+03  3.12651E+03 -6.87388E+03  8.26672E+03 -2.39979E+03  7.21018E+03  3.06797E+03
  7.50584E+03  3.68164E+03 -1.46429E+03  5.57726E+03 -4.30441E+03  5.89303E+03 -5.49272E+03  6.18213E+03
 -7.52976E+03 -7.09128E+03  3.56347E+02 -6.50372E+03  2.94576E+03 -4.75581E+03  6.06878E+03 -4.89943E+03
  6.61309E+03  3.23439E+03  1.36201E+03  2.17799E+03  7.11660E+02  2.20025E+03  7.92714E+02 -1.64366E+03
  6.30158E+03  3.25009E+03  7.33400E+03 -1.31973E+03  7.70706E+03 -2.98668E+02 -6.00954E+02  8.42545E+03
 -3.28981E+03  7.88387E+03 -7.55634E+03  4.79470E+03 -1.17555E+04  6.33030E+03 -5.52064E+03 -3.42056E+03
 -1.45255E+03 -1.29882E+04 -5.02218E+02 -8.46797E+03  3.28197E+03 -4.34628E+03  3.97322E+03 -1.88642E+03
 -1.96506E+03 -5.08188E+02  1.25759E+03 -4.72148E+03  9.73157E+03 -4.14253E+03  6.49826E+03 -2.40194E+03
  7.93198E+03  4.82727E+03  8.23252E+02  1.14308E+03 -2.19336E+03  2.07708E+03 -5.64713E+03  4.07472E+03
 -5.47186E+03 -4.50425E+03 -1.47239E+03 -2.62002E+03  2.75898E+03 -6.91116E+03  2.22495E+03 -4.80364E+03
  6.64705E+03 -5.78506E+03  8.91660E+03 -4.95627E+02  2.78510E+03  5.03879E+03 -4.95278E+03  5.24647E+03
  9.34760E+02  3.21013E+03 -2.91187E+03  3.65565E+03 -1.11973E+03 -1.86851E+03  2.47144E+02 -2.34125E+03
 -1.53865E+03  5.77906E+03 -2.85072E+02  6.00637E+03 -2.10638E+02  5.51570E+03 -2.73321E+03 -4.63568E+02
 -1.84855E+01 -7.17430E+03  2.45898E+03 -7.39483E+03  2.46688E+03 -4.78629E+03  5.92855E+03 -1.72228E+03
  6.92109E+03  2.46238E+03  1.01494E+03  3.28482E+03 -3.37279E+02  3.44112E+03 -3.12315E+03 -2.00529E+02
 -2.93380E+03  8.05599E+02 -3.81597E+03 -4.09779E+03 -4.56569E+02  1.40095E+03  1.53433E+03 -3.20491E+02
  2.97821E+03 -2.69941E+03  5.50990E+03  1.47480E+03  1.14631E+03  9.49862E+02 -1.49336E+01 -1.87551E+03
  1.27167E+03  2.30730E+02  2.59309E+03  3.42110E+03  5.08822E+03  4.37033E+03 -1.87543E+03  6.42236E+03
 -4.09330E+03  1.05711E+03 -3.54776E+03 -3.08593E+02 -3.66520E+03  1.46507E+03 -5.43265E+03  9.27333E+02
  1.35678E+03 -2.06500E+03  2.24013E+03 -4.16591E+03  2.94503E+03  1.81719E+03  5.30172E+03 -1.96576E+03
  2.93367E+03  3.16054E+03 -1.27025E+03  3.40307E+03  1.14705E+03  8.25251E+02  6.37256E+02 -9.73772E+02
 -3.90188E+03  3.66706E+03  1.82696E+03 -2.83995E+02  1.91967E+03  1.34502E+03  2.31607E+03  2.42738E+03
  1.45574E+03  9.18477E+02  3.00890E+01  1.10610E+03 -2.46866E+03  5.77066E+02 -2.66007E+01 -2.64657E+03
 -2.11792E+03 -2.26167E+03  1.38373E+03 -2.19467E+03 -4.82287E+03 -1.10775E+03 -1.69554E+02  3.05430E+03
 -2.02311E+03 -3.85865E+02 -1.90543E+03 -1.80591E+01 -6.23082E+02 -9.46555E+02  2.36711E+03 -4.88198E+03
 -1.48020E+03 -3.24606E+03  5.02568E+02 -2.65366E+03 -6.65725E+02  1.91545E+03 -4.71663E+02  7.67345E+02
 -2.37933E+02 -1.51141E+03  4.66025E+02 -4.23236E+03 -1.53857E+03 -6.27830E+03  1.07226E+03  7.29751E+02
 -1.00253E+03  1.02572E+02 -3.98012E+02  1.20748E+03  6.05857E+03  6.43831E+02  1.73499E+03 -2.90281E+03
  1.18073E+02  6.39378E+03 -6.97702E+01 -1.80156E+03  2.89389E+03 -3.56387E+03  2.98725E+03 -2.68434E+03
  3.91236E+03 -1.11362E+03  3.08655E+03  5.73381E+03  2.00380E+03  2.37156E+03 -5.54142E+02  4.40266E+03
 -2.73606E+03 -2.70394E+03 -2.73324E+03 -3.60316E+02 -2.66236E+03  1.24726E+03 -2.37760E+03 -5.19735E+03
  2.63914E+03  9.63733E+02  1.24281E+03 -1.07681E+03 -1.04475E+03  2.69906E+03 -3.92252E+02 -1.52103E+03
 -3.32011E+03  1.39588E+03 -1.09313E+03 -1.60844E+03 -5.78532E+02  2.88593E+02 -5.31278E+01  2.83166E+02
  3.61691E+03 -2.69378E+03 -2.96171E+03 -6.92225E+02  5.43091E+02 -5.93685E+02 -8.36986E+02 -3.63084E+03
  8.65088E+02 -2.05002E+03 -2.90259E+03 -1.00179E+04  1.41292E+03 -1.05245E+03  4.01403E+03 -1.77850E+03
  3.99260E+03  1.04434E+03  6.38512E+02  3.38114E+03 -1.05297E+03  1.06832E+03  1.35453E+03  3.14039E+02
  1.43245E+03  7.40044E+03 -2.56435E+03  9.76743E+02  1.44212E+01 -5.46098E+02 -5.64372E+02  2.48693E+03
 -4.16697E+03 -1.44942E+03 -3.79074E+03 -3.75243E+02 -6.82064E+02  1.50497E+03  2.57416E+02 -4.78357E+03
  1.69248E+03 -2.81433E+03  4.81555E+03 -4.53645E+03  4.27293E+03  2.76144E+03 -6.88815E+03  1.03615E+03
 -5.04461E+02  1.59618E+03 -2.60221E+03 -1.72432E+03 -2.62356E+03 -1.16232E+03 -1.51698E+03 -2.37268E+03
 -3.52273E+03  9.30293E+02 -2.81638E+03  2.78759E+02 -2.91339E+03  8.57136E+02  1.04212E+03  4.87339E+03
  9.16283E+00 -2.21473E+03  3.50919E+03  7.66758E+02 -1.84036E+03  2.81238E+03  1.06385E+03 -3.01561E+03
 -1.76603E+03  1.08889E+03 -3.78876E+02  1.84621E+03  3.82962E+03 -1.49156E+03  4.61020E+03  9.90975E+02
  1.90227E+03 -4.22999E+01 -1.81825E+03  1.70802E+03 -1.15531E+03 -1.35981E+02 -6.14142E+02 -2.89020E+03
  1.44163E+03 -1.67690E+03  1.24389E+03 -3.07241E+03 -2.93813E+02  2.24046E+03 -1.30094E+03  7.07832E+02
  3.04272E+03  1.93726E+03  3.51578E+03  2.36229E+03 -3.54631E+03  1.64157E+03 -1.12632E+03  2.77335E+03
 -6.71647E+03  1.84526E+03  2.54739E+03 -7.38991E+02 -2.06567E+03  1.46928E+03 -4.50431E+03 -1.87675E+03
 -4.33809E+03  1.81488E+03 -1.64137E+03 -7.39728E+02 -2.37443E+03 -2.48401E+03  2.33453E+03  2.19720E+03
  2.39636E+03  6.73589E+02  1.26465E+03  1.01901E+02  2.82709E+03 -7.34450E+02  6.29347E+02 -5.70766E+00
