 $NMID ID='MM_0lb_SNR50_8hz_g50_78.RAW', FMTDAT='(8E13.5)'
 TRAMP=1., VOLUME=1. $END
  3.15654E+05  2.17211E+03  3.45163E+05  2.51707E+05  8.17684E+04  3.41719E+05 -1.29469E+05  2.52250E+05
 -1.98388E+05  7.97790E+04 -1.13287E+05 -2.50342E+04 -8.54196E+02 -4.61040E+04  5.64778E+04  3.23355E+03
  3.03192E+04  4.35752E+04 -1.57729E+04  7.55498E+04 -5.92215E+04  6.31682E+04 -8.08327E+04  3.58644E+04
 -7.78648E+04 -1.57085E+04 -6.15027E+04 -5.34197E+04 -8.30876E+03 -7.12217E+04  3.75553E+04 -4.75603E+04
  4.72906E+04  2.07448E+03  1.51444E+04  4.55111E+04 -3.51049E+04  5.67889E+04 -7.28723E+04  6.16435E+03
 -5.25066E+04 -5.62594E+04 -4.63333E+03 -8.01043E+04  3.60423E+04 -5.16406E+04  5.22820E+04 -1.80014E+04
  4.77571E+04  1.12399E+04  3.59460E+04  1.99646E+04  1.72214E+04  2.25262E+04 -4.89341E+03  2.00949E+04
 -2.20004E+04  1.33765E+04 -2.17801E+04 -4.68309E+03  1.26900E+04 -5.84281E+03  2.24230E+04  1.21875E+04
  7.31111E+03  3.94665E+04 -2.99199E+04  3.88705E+04 -6.36044E+04 -5.13609E+03 -5.79382E+04 -5.11854E+04
 -1.32914E+04 -6.84338E+04  4.14018E+04 -4.92532E+04  5.93540E+04 -2.80935E+03  4.20077E+04  3.57002E+04
 -9.04454E+02  4.47963E+04 -3.24754E+04  1.77513E+04 -3.39327E+04 -2.06600E+03 -2.11587E+04 -1.13435E+04
 -3.85659E+03 -1.20722E+04 -2.31599E+03 -2.09393E+04  6.00154E+03 -2.73396E+04  1.38165E+04 -1.10918E+04
  4.04753E+03  4.65847E+03 -1.14927E+04  1.25565E+04 -2.49378E+04 -1.03467E+04 -6.21641E+03 -4.23304E+04
  3.01952E+04 -4.17135E+04  5.77700E+04 -2.36355E+04  4.82019E+04  2.58771E+04  2.35795E+04  4.97557E+04
 -1.34434E+04  3.74091E+04 -2.18155E+04  5.53542E+03 -8.06295E+03 -2.34418E+04  1.51839E+04 -3.70980E+04
  4.14834E+04 -1.37419E+04  4.53870E+04  2.42978E+04  2.82674E+04  5.69781E+04 -7.26334E+03  5.26991E+04
 -3.45873E+04  3.72843E+04 -4.35748E+04  1.44614E+04 -4.77930E+04 -1.72049E+04 -3.43626E+04 -4.01993E+04
  7.41954E+03 -4.33297E+04  4.18806E+04 -2.08949E+04  3.03937E+04  1.00232E+04  4.00283E+03  3.24411E+04
 -1.57810E+04  1.09251E+04 -1.09434E+04 -6.02788E+03  5.54521E+03 -7.87274E+03  2.01700E+04  5.68346E+03
  1.71895E+04  1.90752E+04 -1.02307E+04  3.03490E+04 -2.69989E+04  1.36541E+04 -2.85623E+04 -2.76630E+02
 -2.66874E+04 -1.96882E+04 -2.16572E+04 -1.86746E+04  8.70611E+03 -2.67200E+04  1.61861E+04 -2.43120E+04
  3.25265E+04 -1.41378E+04  3.77298E+04  6.43717E+03  2.54210E+04  2.66566E+04  5.02906E+03  4.63754E+04
 -1.54740E+04  4.11242E+04 -3.07055E+04  1.05500E+04 -2.35532E+04 -1.00024E+04 -2.36235E+03 -1.54260E+04
  1.88886E+03  4.79190E+02 -1.04993E+04  4.45907E+03 -2.20319E+04  1.01409E+04 -2.82874E+04 -1.55772E+04
 -7.35810E+03 -1.91356E+04  4.77549E+03 -3.25998E+04  2.44613E+04 -1.92223E+04  1.13409E+04  5.32344E+03
  1.72431E+04  1.46213E+04  1.01294E+03  2.56293E+04 -1.33235E+04  1.37534E+04 -2.91444E+04 -2.48476E+03
 -2.58500E+04 -1.48467E+04 -6.97548E+03 -3.07766E+04  1.35627E+04 -2.82138E+04  2.74495E+04 -9.27337E+03
  2.13613E+04 -4.38124E+03  1.93197E+04  4.17987E+03  8.88959E+03 -1.33852E+03  1.07413E+04 -1.93868E+03
  1.96587E+04  8.32450E+03  2.46819E+04  2.21275E+04  1.82724E+04  3.97291E+04 -1.34067E+03  5.20810E+04
 -2.87164E+04  3.41541E+04 -4.87164E+04  2.29057E+04 -4.53960E+04 -1.76577E+02 -3.82260E+04 -2.98926E+04
 -1.25852E+04 -3.23550E+04  2.24481E+04 -3.20308E+04  2.59771E+04 -9.18514E+03  2.84840E+04  1.23226E+04
  4.53612E+03  1.54975E+04 -1.34993E+04  1.77893E+04 -2.36119E+04 -2.56754E+03 -1.68962E+04 -1.27063E+04
  1.62635E+03 -2.75468E+04  1.33681E+04 -1.42860E+04  1.13733E+04  1.10576E+02  8.30564E+02  1.85282E+03
 -1.08545E+04  4.09383E+03 -1.07734E+04 -2.65895E+03 -2.44298E+02 -2.13700E+04  1.18496E+04 -1.56259E+04
  2.63684E+04 -9.12912E+03  2.92304E+04  3.85114E+03  3.05657E+04  2.17214E+04  1.82032E+04  3.22793E+04
 -7.83090E+02  3.69736E+04 -2.60325E+04  2.53703E+04 -2.69033E+04  3.72197E+03 -1.37806E+04 -8.75318E+03
 -7.15029E+03 -7.79438E+03  2.93863E+03  2.22411E+03 -2.94673E+03  1.30347E+04 -4.33135E+02  9.80975E+03
 -1.15837E+04  2.69654E+03 -2.10238E+04 -9.72623E+03 -1.01181E+03 -1.88284E+04  8.44625E+03 -1.97813E+04
  9.46362E+03 -5.46030E+03  1.38611E+04  3.74738E+03 -4.57035E+03  1.29714E+04 -8.04853E+03 -1.64532E+03
 -6.47968E+03 -6.49163E+03 -1.28458E+03 -9.78295E+03  7.60816E+03 -1.85390E+04  2.01237E+04 -1.37213E+04
  2.54956E+04  4.61795E+03  1.70191E+04  1.52765E+04  8.06718E+03  1.72931E+04 -1.24651E+04  1.49685E+04
 -1.51225E+04  5.82838E+03 -7.03292E+03 -6.78429E+03 -1.05815E+03 -3.73668E+03  8.17393E+03 -3.66034E+03
  2.09346E+03  7.19360E+03 -2.08507E+03  1.30528E+04 -4.57875E+03  1.39947E+04 -1.73571E+04  2.06921E+03
 -1.50631E+04 -6.51970E+03 -2.88148E+03 -1.16695E+04  7.57013E+03 -8.01506E+03  1.38056E+04  1.21426E+02
  9.15923E+02  4.01450E+03 -8.80339E+03  1.13097E+04 -1.15844E+04  5.74003E+03 -1.25190E+04 -5.70286E+03
 -1.00821E+04 -2.02717E+04  4.80322E+03 -2.60512E+04  2.08437E+04 -1.16896E+04  1.28857E+04  4.33828E+03
  1.84059E+04  1.76974E+04 -6.08086E+03  1.07307E+04 -1.63437E+04  1.53628E+04 -1.45038E+04  7.56794E+01
 -8.61406E+03 -1.69572E+04  1.64302E+03 -1.74164E+04  5.64259E+03 -9.11861E+03  8.63557E+03 -6.73092E+03
  8.29388E+03  5.48110E+03 -3.66510E+03 -2.10910E+03  1.79822E+03 -5.30727E+03 -1.82346E+03 -5.08623E+03
  8.47758E+03 -3.33536E+03  1.32467E+04  4.54782E+03  1.24785E+04  1.47866E+04  1.08307E+04  2.60637E+04
 -4.36265E+03  2.72634E+04 -2.46764E+04  1.77453E+04 -2.70300E+04  7.97892E+01 -2.76475E+04 -1.05429E+04
 -1.40893E+04 -2.37719E+04  8.32317E+02 -1.32378E+04  1.02053E+04 -1.26046E+04  1.61040E+03 -1.29426E+03
  8.62730E+03 -2.45946E+03  4.43655E+02 -7.23929E+03  1.67417E+03 -7.29274E+02  5.55399E+03  3.42634E+03
  1.23609E+04  5.03395E+03  4.78291E+03  2.62367E+03 -1.51142E+03  7.26904E+03 -6.40485E+03  1.10437E+04
 -2.04714E+04 -1.66306E+02 -5.56353E+03 -6.51760E+03 -5.05301E+03 -2.10697E+04  1.33829E+04 -1.79397E+04
  2.08352E+04 -4.94158E+03  2.21152E+04  3.91919E+03  1.01746E+04  9.89566E+03  1.33035E+03  1.50850E+04
 -1.40142E+04  1.42075E+04 -3.09158E+03  3.41519E+03 -8.80341E+03 -3.08247E+03 -3.34379E+03  2.23794E+02
 -4.34754E+03  5.46323E+02 -5.05507E+03  1.48774E+03 -5.25752E+03 -8.64750E+01 -7.10819E+03  2.42278E+03
 -7.63704E+03 -1.87983E+04 -6.14098E+03 -2.06107E+04  1.09913E+04 -9.61154E+03  1.51377E+04 -7.34481E+03
  1.34493E+04  8.46213E+03  7.32393E+03  1.59453E+04 -6.05477E+03  2.45424E+04 -1.28536E+04  1.03344E+04
 -1.67186E+04  1.49121E+03 -3.75219E+03 -1.23750E+04  4.66976E+02 -1.90414E+04  5.03909E+03 -1.14665E+04
  5.38401E+03 -3.42000E+03  8.88701E+03  5.40373E+03  6.20785E+03  5.48095E+03  3.65695E+03  1.44169E+03
  2.19577E+02  1.01647E+03  6.31088E+03 -3.13258E+02 -2.43916E+02 -2.24811E+01  3.12873E+03  6.95680E+03
 -2.63809E+02  1.63896E+04 -8.10014E+03  9.08932E+03 -2.24624E+04 -1.08324E+03 -1.68836E+04 -7.05313E+03
 -8.55598E+03 -1.58289E+04 -1.04133E+03 -2.36588E+04  5.24904E+03 -1.42075E+04  1.08689E+04 -9.54417E+03
  9.83950E+03  2.93086E+03  6.32590E+03  1.11961E+04 -5.96760E+03  2.75841E+03 -5.23581E+03 -1.03139E+04
 -2.73755E+03 -6.94792E+03  4.01183E+00 -1.01167E+04  7.41103E+03 -7.35229E+03  5.29299E+03  4.77345E+03
  4.21031E+03  5.08700E+03  1.19204E+04  1.28845E+04 -4.58265E+03  1.39888E+03  4.43356E+03 -7.27450E+03
 -8.71506E+02 -1.41198E+03  1.34011E+04  8.41906E+03  6.29503E+03  1.28719E+04 -1.63181E+03  2.34187E+04
 -6.37067E+03  7.42066E+03 -1.54100E+04  8.92271E+03 -6.72878E+03  4.80490E+02 -1.61734E+03 -4.63870E+03
 -1.32877E+03 -2.89090E+03  1.64645E+03 -2.01810E+03  6.11706E+03  5.04129E+03 -2.35548E+03  3.69339E+03
 -3.49000E+03  3.96508E+03 -4.03965E+03 -1.15725E+03 -1.72139E+03 -1.30407E+04 -1.85428E+03 -1.43568E+04
  1.13313E+04 -5.62345E+03  6.21084E+03 -6.30940E+03  1.09511E+03  7.55263E+02 -1.67421E+03  3.48558E+03
 -3.63318E+03 -1.71381E+03 -7.80592E+03 -2.18293E+03  3.17864E+02 -1.21007E+04  1.16321E+04 -9.17395E+03
  1.17596E+04  8.59004E+03  9.63535E+03  5.58256E+03  3.73461E+03  8.88422E+03 -2.49446E+03  1.68366E+04
 -3.84041E+03  4.46619E+03 -5.64850E+03  2.93772E+03 -3.48746E+03 -7.53956E+03 -1.96974E+03 -8.59833E+03
  6.56278E+03 -2.75217E+03  1.09649E+04  6.23852E+03  2.65818E+03  6.39835E+03  1.08239E+02  2.25274E+03
 -8.22375E+03  3.94405E+03 -4.51204E+03 -1.71231E+02 -4.26293E+03 -2.61050E+03 -5.86439E+02  2.99341E+02
 -8.11187E+03  9.34245E+03 -3.74103E+03  5.19251E+02 -1.16319E+04 -3.32149E+03 -5.74600E+03 -1.10203E+03
 -1.27507E+04 -1.98938E+04  4.79505E+03 -2.14895E+04  2.16466E+04 -1.63388E+04  2.18714E+04 -5.83068E+03
  1.44788E+04 -9.82077E+01  2.68989E+03  1.51599E+04 -1.21931E+02  1.32858E+04 -2.33949E+03  1.11855E+04
 -1.01634E+04  5.04162E+03 -6.07552E+03 -3.34330E+03 -3.43341E+03 -1.21400E+03  3.83328E+03 -6.52177E+02
  7.01216E+02 -2.58477E+03 -2.92836E+03  1.86400E+03 -5.45635E+02 -6.58732E+03 -8.40368E+02 -3.05220E+03
  2.46978E+03 -3.41868E+03  9.92244E+03 -3.41648E+03  1.19316E+04  8.49667E+03  5.56928E+03  1.04560E+04
 -1.39255E+03  9.69341E+03 -1.64418E+04  3.78349E+02 -2.35733E+04 -3.91112E+03 -1.39692E+04 -9.82019E+03
 -1.10073E+02 -1.11874E+04  3.01929E+03 -1.02918E+04  1.20318E+04 -4.81194E+03  7.56591E+03 -3.72799E+02
  8.31136E+03  1.73071E+03 -3.83513E+02  6.99375E+03  4.92307E+02  4.36344E+03 -2.22918E+03 -8.02795E+03
  3.35971E+03 -2.30553E+03  3.01295E+03  5.63998E+03  1.09768E+03  9.80171E+03 -7.18821E+03 -1.11086E+03
 -1.23625E+03  9.66488E+02 -5.16376E+03  2.40582E+03 -3.96877E+03 -9.47661E+03 -5.48899E+03 -6.02548E+03
  2.81782E+03 -1.07282E+04  1.20011E+04 -6.72423E+03  7.82267E+03  1.20323E+03  9.73726E+03  1.25611E+04
  3.50197E+03  4.46157E+03 -2.96896E+03  7.30332E+03 -9.86316E+03  5.38478E+03 -8.42881E+03  5.99999E+03
 -1.09777E+03  2.48974E+03 -6.53318E+03  3.85269E+03 -7.97092E+03  5.65287E+02 -5.31202E+03 -2.66935E+03
 -7.03883E+03 -1.42197E+04  3.62506E+03 -1.43200E+04  7.59886E+03 -5.75930E+03  9.89189E+03 -5.33811E+03
  3.87714E+03  3.64231E+03  4.35276E+03  4.88443E+03 -4.64896E+02  8.26835E+03 -3.94274E+03  4.70805E+03
