 $NMID ID='MM_0lb_SNR50_13hz_g45_82.RAW', FMTDAT='(8E13.5)'
 TRAMP=1., VOLUME=1. $END
  3.11568E+05  3.80671E+02  3.36352E+05  2.54368E+05  8.53286E+04  3.38045E+05 -1.30965E+05  2.54780E+05
 -1.90174E+05  7.85530E+04 -1.13569E+05 -3.79636E+04 -1.94108E+03 -4.96004E+04  5.48008E+04 -1.18218E+03
  3.32962E+04  5.60710E+04 -2.13742E+04  8.07979E+04 -5.91675E+04  6.61138E+04 -8.27456E+04  3.52585E+04
 -7.89849E+04 -8.52044E+03 -5.66206E+04 -5.23541E+04 -1.36110E+04 -7.43498E+04  2.75384E+04 -4.45224E+04
  3.55819E+04  7.67732E+03  1.92944E+04  4.28348E+04 -3.15829E+04  5.35263E+04 -6.62972E+04  1.15396E+03
 -5.04880E+04 -5.80090E+04 -7.37899E+03 -7.75309E+04  3.68688E+04 -5.78889E+04  5.10422E+04 -1.45629E+04
  3.80383E+04  1.27815E+04  3.23297E+04  3.06955E+04  2.00326E+04  2.88262E+04 -8.75743E+03  2.42327E+04
 -2.27240E+04  7.34035E+03 -2.04784E+04 -2.37656E+03  1.72453E+03 -8.76512E+03  1.72160E+04  1.44306E+04
  8.30390E+03  3.05589E+04 -3.12964E+04  3.46472E+04 -6.54516E+04  8.06754E+02 -5.92468E+04 -4.68647E+04
 -1.27109E+04 -6.05307E+04  3.40281E+04 -4.61890E+04  5.52014E+04 -1.36945E+03  3.31415E+04  3.48896E+04
 -6.05366E+03  3.55313E+04 -2.48765E+04  1.92122E+04 -3.11869E+04 -1.90647E+03 -1.85910E+04 -7.27640E+03
 -1.00275E+04 -7.42796E+03 -1.20480E+03 -2.10209E+04  9.92277E+03 -2.18939E+04  1.50599E+04 -1.11496E+04
  8.87991E+03  5.85760E+03 -1.32622E+04  1.30165E+04 -2.00251E+04 -2.34761E+03 -9.01482E+03 -3.38757E+04
  1.80872E+04 -3.79654E+04  4.79197E+04 -2.44483E+04  4.55168E+04  1.82663E+04  1.44243E+04  4.61297E+04
 -1.84225E+04  3.21660E+04 -2.35672E+04  1.90345E+03 -6.72076E+03 -2.78906E+04  1.69476E+04 -3.14476E+04
  4.00146E+04 -7.11880E+03  3.75699E+04  2.68751E+04  1.96262E+04  4.63757E+04 -1.50962E+04  5.60587E+04
 -3.26296E+04  4.07627E+04 -4.11839E+04  9.83191E+03 -4.41830E+04 -2.18539E+04 -2.51146E+04 -3.94724E+04
  9.32245E+03 -4.19707E+04  2.63378E+04 -1.80503E+04  2.91820E+04  1.20773E+04  8.37045E+01  1.98496E+04
 -8.87795E+03  8.03492E+03 -5.57967E+03 -7.42558E+03  9.10026E+03 -1.13589E+04  1.08656E+04  9.29061E+03
  1.64388E+04  2.09526E+04 -5.43144E+03  2.37630E+04 -2.31874E+04  1.65795E+04 -2.48812E+04 -5.07466E+03
 -2.18505E+04 -1.92591E+04 -6.77335E+03 -1.67854E+04 -3.13284E+03 -1.99581E+04  1.52819E+04 -2.13868E+04
  2.62479E+04 -1.36676E+04  3.34051E+04 -2.96560E+02  2.68200E+04  1.89886E+04  8.26139E+03  3.99974E+04
 -1.73641E+04  3.00484E+04 -2.91699E+04  8.57320E+03 -2.42211E+04 -1.68167E+04 -3.51532E+03 -1.00669E+04
  1.47635E+03  1.33209E+03 -7.50497E+02  1.20429E+04 -2.22725E+04  4.06156E+03 -1.59642E+04 -7.19504E+03
 -1.16842E+04 -2.49507E+04  8.96831E+02 -2.09000E+04  1.58205E+04 -1.84251E+04  2.29978E+04  1.78015E+03
  1.13051E+04  1.71104E+04 -6.98327E+02  1.95587E+04 -1.25643E+04  1.71113E+04 -1.92690E+04 -4.08397E+03
 -7.73449E+03 -2.43969E+04 -3.21884E+03 -2.32305E+04  5.71726E+03 -1.97583E+04  1.41843E+04 -1.38083E+04
  1.87876E+04  1.61188E+02  1.03390E+04  4.58905E+02  4.90024E+03 -3.48881E+03  1.15226E+04 -3.23519E+03
  2.27430E+04  2.36692E+03  1.64485E+04  1.19980E+04  1.89440E+04  2.85471E+04 -1.31631E+03  3.68175E+04
 -2.28926E+04  3.57182E+04 -3.41741E+04  7.33461E+03 -3.33112E+04 -4.38557E+03 -2.89280E+04 -1.75204E+04
 -9.30788E+03 -2.93387E+04  6.83149E+03 -2.44210E+04  2.61446E+04 -1.65689E+04  2.27545E+04  2.88253E+03
  3.14275E+03  1.34223E+04 -1.38176E+04  1.54569E+04 -2.14432E+04  5.41275E+03 -1.74383E+04 -1.44369E+04
  1.85068E+03 -1.61630E+04  8.09419E+03 -1.22229E+04  1.04817E+04  6.15545E+01  4.47271E+03  6.27872E+03
 -9.90771E+03  3.92378E+03 -6.78439E+03 -5.29029E+03  2.01327E+02 -1.54804E+04  1.06150E+04 -1.54709E+04
  1.70834E+04 -1.04107E+04  1.66352E+04  5.08405E+03  2.08220E+04  1.90340E+04  6.88408E+02  2.19541E+04
 -5.42941E+03  2.13445E+04 -1.12471E+04  1.13856E+04 -1.48189E+04  1.01114E+04 -1.68718E+04 -5.06846E+03
 -5.06420E+03 -2.76103E+03 -6.54162E+01  3.23641E+03 -1.63690E+03  2.19203E+03 -4.10724E+03  3.81060E+03
 -1.39446E+04 -2.48055E+03 -1.10380E+04 -9.04943E+03 -8.23377E+03 -1.16657E+04  2.52181E+03 -1.46836E+04
  7.28831E+03 -6.59096E+03  1.24774E+04 -1.97709E+03  1.56529E+03  7.76193E+03 -9.08226E+03 -4.02697E+02
 -1.19602E+04 -8.05117E+03 -2.76133E+03 -9.60853E+03  4.19580E+03 -1.20878E+04  1.85954E+04 -9.23640E+03
  1.55603E+04  3.39790E+03  1.38105E+04  1.15081E+04  4.94113E+02  1.27869E+04 -3.74062E+03  1.23252E+04
 -9.53243E+03  2.10354E+03 -6.22668E+03 -1.59892E+03  2.59265E+03 -9.00528E+03  3.97697E+03 -1.92874E+03
  6.28469E+03  2.36439E+03  1.52441E+02  1.24138E+04 -6.96428E+03  1.28766E+04 -1.05317E+04  5.07559E+03
 -4.38441E+03 -4.23675E+03 -2.76237E+03 -1.15867E+04  9.02385E+03 -3.92830E+03  3.52020E+03 -9.98735E+02
  3.24814E+03  5.08513E+03 -7.34242E+03  3.93347E+03 -8.24590E+03  2.30610E+03 -8.40983E+03 -8.49863E+02
 -5.94218E+03 -1.51838E+04  4.75416E+02 -6.63193E+03  1.43582E+04 -9.96867E+03  1.44695E+04  1.13209E+03
  5.64835E+03  9.54717E+03 -4.09103E+03  1.03282E+04 -1.20301E+04  4.11831E+03 -1.41066E+04 -6.18864E+02
 -8.33478E+03 -9.54231E+03  3.70014E+02 -1.21073E+04 -5.47731E+02 -8.47215E+03  3.19375E+03  1.40257E+03
  2.13107E+03 -3.09149E+01  4.53150E+03 -2.15903E+03  4.37015E+03 -1.73348E+02  3.50583E+03 -5.94600E+03
  1.02172E+04  8.13641E+02  8.64248E+03  1.62718E+03  7.15449E+03  3.18955E+03  7.37653E+03  2.05455E+04
  1.00522E+03  1.42666E+04 -7.68637E+03  1.27461E+04 -1.16015E+04  4.17954E+03 -1.28423E+04 -5.51422E+03
 -9.87444E+03 -1.38567E+04  1.44341E+03 -1.16048E+04  5.90330E+03 -5.56059E+03  4.06668E+03 -4.57215E+03
  1.38024E+03 -1.78287E+03  4.87949E+03 -6.13089E+03  1.91251E+03 -1.27786E+03  2.11937E+03 -8.15375E+02
  7.74951E+03 -6.21971E+02  5.18996E+03  7.37075E+03 -7.87691E+03  4.99318E+03 -8.49518E+03  4.79495E+03
 -1.42639E+04 -5.93287E+03 -4.77319E+03 -1.87083E+03  1.83234E+03 -8.41366E+03  8.03711E+02 -5.95327E+03
  6.49050E+03  2.36086E+03  1.47538E+04  4.95272E+02  6.04472E+03  7.74029E+03 -4.88814E+03  1.15915E+04
 -3.04715E+03  1.09599E+04 -6.76929E+03  7.00949E+02 -5.88862E+03 -2.11741E+03 -1.75576E+03  4.13081E+03
  7.12865E+02  4.69593E+03 -1.82932E+03  4.76150E+03 -7.02778E+03  2.59164E+03 -8.54099E+03 -2.47792E+02
 -4.32199E+03 -9.51427E+03 -6.83139E+01 -7.81422E+03  7.23442E+03 -8.08591E+03  9.23878E+03 -8.38336E+03
  3.19926E+03  5.48709E+03  9.57810E+03  5.98334E+03 -1.39427E+03  1.26769E+04 -6.35758E+03  9.76701E+02
 -6.16422E+03  6.47345E+03 -6.62345E+03 -3.27459E+03 -2.47307E+03 -6.88483E+03  1.10991E+03  4.01894E+03
  2.97897E+03 -1.50005E+03  2.39883E+03  4.59113E+03  1.94543E+03  3.68528E+03 -2.62845E+03  1.10462E+03
 -2.95189E+02 -6.23103E+01 -2.71413E+03  1.82219E+03  1.77946E+03  3.88833E+03  1.40875E+03  3.87632E+03
 -5.42644E+02  7.97651E+03 -4.11843E+03  3.31421E+03 -6.80720E+03  8.07814E+03 -8.55661E+03 -2.24147E+03
 -4.13788E+03 -4.82458E+03  1.05232E+03 -1.08268E+04  9.45460E+03 -8.50741E+03  1.12683E+04 -3.37613E+03
  1.19108E+03  2.65840E+03  2.36619E+03  2.33130E+03 -2.16528E+03  2.39255E+03 -4.13572E+03  1.89330E+03
  1.14444E+03 -2.08816E+03 -2.17544E+02 -7.01539E+03  4.09350E+03  1.78232E+03  3.80159E+03 -3.04060E+03
  3.57791E+03  3.12634E+03 -7.78725E+03  4.48060E+03 -2.24482E+03  1.10386E+02  2.07496E+03 -1.56434E+03
 -1.39935E+03 -6.06820E+02  2.25792E+03  1.45267E+03  1.08233E+03  2.96046E+03 -3.27244E+03  9.88536E+03
 -8.56157E+03  5.32397E+03 -5.15015E+03  2.41586E+03 -2.74999E+03 -4.87174E+03 -1.19050E+03 -8.04953E+03
  4.63046E+03 -1.15871E+03 -5.41619E+02  2.28126E+02 -5.12213E+03  2.27963E+03 -3.56959E+03  1.52315E+03
 -5.26029E+03  2.52982E+03 -1.19890E+03 -3.55126E+03  3.21076E+03  7.39553E+02 -1.07592E+03 -5.54076E+03
  4.76863E+03 -4.50944E+03  4.92435E+03  6.46776E+03  1.69988E+03  3.06570E+02  4.15097E+03  7.00661E+02
 -2.99653E+03 -3.21318E+03 -1.95935E+03 -2.75580E+03 -2.55970E+03 -7.93946E+02  5.68893E+03 -3.11924E+03
  9.40279E+03 -2.09333E+03  6.19819E+03  4.82775E+03  4.25943E+03  3.70023E+03 -4.74685E+03  9.73276E+03
 -6.65658E+03  2.99358E+03 -2.69527E+03 -3.71068E+03 -2.96673E+03 -4.71866E+03  6.08977E+03 -5.58888E+03
  4.66641E+03 -5.34439E+03  1.76853E+03 -3.09643E+02  1.49227E+03  4.14686E+03 -3.08976E+03  1.67589E+03
 -2.51216E+03  2.05630E+03 -2.29867E+02  5.53003E+02  1.42375E+03  2.79376E+03 -2.59657E+01  5.51905E+03
 -2.77011E+03  6.47960E+03 -1.60147E+03 -2.08806E+03 -4.19604E+03 -3.53345E+02 -1.04085E+04 -4.43596E+03
 -4.33427E+03 -7.29369E+03  2.99658E+03 -3.44199E+03 -1.56471E+03 -8.17493E+03  1.36132E+04 -8.97655E+03
  1.22462E+04  3.98118E+03  6.75930E+03  7.75436E+03 -2.91428E+03  3.11459E+03 -4.03428E+03  4.65445E+03
 -2.21401E+03  1.89500E+01 -3.97979E+03  6.45061E+02 -5.82274E+02  3.34692E+03 -1.19538E+03 -1.12831E+03
 -1.18519E+02 -2.16213E+03  6.33670E+02  3.87189E+03  1.11630E+03 -9.42953E+02  1.90430E+03 -2.51723E+03
  1.06231E+03 -1.86664E+03  2.81577E+03  2.09570E+03  1.53332E+03  2.62379E+03 -3.12352E+02  6.21273E+03
 -4.90747E+03  6.93796E+03 -2.97825E+03  3.02273E+03 -1.04052E+04 -3.38253E+03 -4.81430E+03 -2.29656E+03
 -4.43197E+02 -2.36558E+03  4.21027E+03 -2.85771E+03  9.00044E+01 -7.19985E+03  3.64034E+03  2.15066E+03
  4.04196E+03 -4.05869E+03 -1.62104E+03 -1.05229E+03 -2.28004E+03 -1.70994E+03  3.95306E+03  1.77037E+03
 -1.49225E+02 -4.45967E+02  8.26704E+03 -3.62155E+03  2.13502E+03 -1.30188E+02  1.62075E+03  7.19726E+03
 -6.04338E+03 -5.14270E+03 -5.09711E+03  3.59584E+03  3.58695E+03  1.40730E+03 -4.44177E+03 -2.90527E+03
  2.75633E+02  1.06550E+02  1.29337E+03  1.85721E+02  7.07461E+03 -1.94332E+03  2.19387E+03  1.47564E+03
  1.02946E+03  6.16986E+03 -4.72434E+03  2.55199E+03 -9.67023E+02  2.23919E+03 -1.52697E+03 -2.94453E+02
 -4.98052E+02  3.40088E+03  5.45154E+03 -2.13820E+03 -1.05954E+02 -1.09058E+03 -3.39781E+03  3.54752E+03
 -2.10059E+03 -2.03496E+03 -4.78672E+03 -2.81307E+03 -1.94859E+03 -5.94940E+03 -2.82882E+03  1.72357E+03
  8.35388E+01  4.87840E+03 -5.67052E+03 -2.98622E+02  9.22645E+02  1.15339E+03 -8.82179E+02  9.02013E+02
