 $NMID ID='MM_0lb_SNR50_8hz_g40_57.RAW', FMTDAT='(8E13.5)'
 TRAMP=1., VOLUME=1. $END
  3.10492E+05  1.66091E+03  3.31680E+05  2.52213E+05  7.95886E+04  3.35642E+05 -1.36930E+05  2.58091E+05
 -1.87802E+05  8.51797E+04 -1.12605E+05 -3.73037E+04 -7.32774E+02 -5.65194E+04  5.31319E+04  6.06696E+01
  3.76169E+04  5.58938E+04 -2.20432E+04  7.66951E+04 -6.12335E+04  6.67257E+04 -8.39756E+04  3.21080E+04
 -8.02693E+04 -1.58997E+04 -5.42704E+04 -5.40349E+04 -1.31129E+04 -7.92660E+04  2.61503E+04 -5.08214E+04
  2.78935E+04  4.09847E+03  2.17853E+04  4.92999E+04 -3.32614E+04  4.81425E+04 -6.45104E+04 -1.60375E+02
 -5.33766E+04 -5.54202E+04 -9.15985E+03 -7.62478E+04  3.71140E+04 -5.27999E+04  4.87188E+04 -2.21323E+04
  4.57227E+04  1.39800E+04  2.97499E+04  2.92766E+04  1.91061E+04  3.06243E+04 -5.74615E+03  2.54861E+04
 -2.50448E+04  1.05029E+04 -2.10773E+04 -3.30048E+03  1.17597E+04 -1.13571E+04  2.07618E+04  1.70974E+04
  8.77030E+03  3.77645E+04 -3.19445E+04  3.78296E+04 -6.25901E+04  5.50736E+01 -5.49557E+04 -4.59438E+04
 -1.60773E+04 -6.17258E+04  4.11445E+04 -4.68870E+04  7.04179E+04 -4.81790E+03  3.76560E+04  3.32393E+04
 -1.52812E+03  3.94327E+04 -2.79591E+04  1.96792E+04 -2.82151E+04  4.42149E+03 -2.12902E+04 -7.68754E+03
 -9.40100E+03 -1.64577E+04  2.20943E+03 -1.66193E+04  7.96401E+03 -2.44656E+04  1.69866E+04 -1.33745E+04
  1.00531E+04  5.36673E+03 -1.08710E+04  8.69690E+03 -2.29167E+04 -1.13557E+04 -2.23742E+04 -3.80957E+04
  2.48668E+04 -4.10854E+04  5.19974E+04 -2.18345E+04  5.08555E+04  1.32604E+04  1.35330E+04  4.74535E+04
 -2.39500E+04  3.09796E+04 -2.75586E+04  1.79024E+03 -1.55577E+04 -3.24316E+04  1.34122E+04 -3.87998E+04
  4.33566E+04 -1.41431E+04  4.19972E+04  2.49294E+04  2.05560E+04  5.28172E+04 -1.12363E+04  5.61478E+04
 -3.47589E+04  4.48079E+04 -4.29425E+04  1.17530E+04 -4.58477E+04 -2.16708E+04 -2.43931E+04 -4.33469E+04
  9.05485E+03 -4.47210E+04  3.30832E+04 -2.10216E+04  3.41257E+04  2.90527E+03  4.26623E+03  2.26012E+04
 -1.43533E+04  1.44100E+03 -7.27586E+03 -6.62979E+03  7.10902E+03 -8.42722E+03  1.63743E+04  1.94439E+03
  1.37202E+04  2.15714E+04 -2.20342E+03  2.00490E+04 -2.35446E+04  1.38587E+04 -3.67959E+04 -2.31844E+03
 -2.87226E+04 -1.68268E+04 -1.60048E+04 -2.24646E+04  3.85194E+03 -2.89958E+04  2.84082E+04 -2.51662E+04
  2.74732E+04 -1.45564E+04  3.43224E+04  9.31321E+03  2.57310E+04  2.47521E+04  9.29104E+03  3.69150E+04
 -1.82245E+04  3.98160E+04 -3.36487E+04  5.92962E+03 -2.57355E+04 -1.49078E+04 -5.58577E+03 -1.06405E+04
  2.56138E+03 -1.07738E+03 -5.78924E+03  7.33420E+03 -2.28556E+04 -2.02581E+03 -1.89970E+04 -1.08152E+04
 -7.47624E+03 -2.69257E+04  7.24068E+03 -2.57089E+04  1.73975E+04 -2.15851E+04  2.37742E+04 -6.58296E+03
  8.70959E+03  1.62273E+04 -3.36494E+02  2.26847E+04 -2.26364E+04  1.05984E+04 -2.38717E+04 -2.84340E+03
 -2.01036E+04 -1.51269E+04 -6.14535E+03 -3.24551E+04  1.18619E+04 -2.96270E+04  2.70796E+04 -1.44167E+04
  1.68072E+04  4.59875E+02  1.98901E+04  1.05921E+04  1.15214E+04  1.73376E+03  1.40730E+04 -1.90164E+03
  2.09005E+04  1.05386E+04  2.86485E+04  2.09195E+04  1.83796E+04  3.74238E+04  1.64558E+03  3.93188E+04
 -2.70222E+04  3.50454E+04 -4.87988E+04  1.55301E+04 -4.96572E+04 -4.66698E+03 -4.13733E+04 -2.03044E+04
 -1.32658E+04 -3.30224E+04  1.27259E+04 -3.02063E+04  2.71315E+04 -2.43011E+04  1.81085E+04  1.78911E+03
  1.16606E+04  1.92272E+04 -8.76597E+03  1.34165E+04 -1.77082E+04  9.01684E+02 -1.11538E+04 -1.61992E+04
 -1.57991E+02 -2.26137E+04  1.49020E+04 -1.70151E+04  1.11044E+04 -7.46691E+03 -2.26273E+03  9.20901E+03
 -1.07502E+04  7.75375E+03 -1.09047E+04 -4.75465E+03 -6.40923E+03 -1.83335E+04  1.61827E+04 -1.53164E+04
  1.28017E+04 -8.86134E+03  2.45161E+04  3.67431E+03  2.43004E+04  1.79425E+04  1.56928E+04  2.73556E+04
 -9.66544E+03  3.42783E+04 -2.12816E+04  1.69626E+04 -2.31097E+04  2.11246E+03 -1.37756E+04 -9.35926E+03
 -3.40589E+03 -8.72343E+03  5.83284E+03 -4.65094E+03 -1.15225E+04  2.30311E+03 -8.16703E+03  4.35282E+03
 -1.66915E+04 -2.82355E+03 -1.50863E+04 -1.38388E+04 -4.86094E+03 -2.06183E+04  1.56763E+03 -1.89748E+04
  9.70249E+03 -7.86931E+03  2.34520E+03  2.70471E+03 -3.06266E+03  8.99500E+03 -1.26312E+04  4.92826E+03
 -1.38105E+03 -1.36606E+04 -9.42458E+02 -1.77878E+04  1.21197E+04 -1.60352E+04  2.05723E+04 -1.79928E+04
  2.07292E+04  1.84231E+03  2.10155E+04  1.24134E+04  7.71291E+03  1.28762E+04 -8.66958E+03  1.27651E+04
 -1.57959E+04  4.62822E+03 -1.06886E+04 -1.54679E+03  4.49112E+03 -1.69212E+03  1.06863E+04 -4.07941E+03
  1.09670E+04  9.30487E+03 -3.41546E+03  1.52347E+04 -9.25726E+03  1.37502E+04 -1.11164E+04  3.74371E+03
 -7.63404E+03 -4.59592E+03 -6.45373E+03 -1.15007E+04  8.56057E+03 -5.80345E+03  1.27219E+04  7.12886E+03
  3.75645E+03  8.35866E+03 -1.70851E+04  9.52306E+03 -1.15961E+04  6.40004E+03 -1.44256E+04 -1.39239E+04
 -7.56873E+03 -2.73404E+04  7.04978E+03 -1.99926E+04  1.16939E+04 -8.52312E+03  1.44868E+04  8.34752E+02
  8.05926E+03  6.90075E+03  2.93551E+02  1.39127E+04 -1.39504E+04  1.22660E+04 -1.43884E+04 -2.02400E+03
 -1.14818E+04 -1.01471E+04 -2.64202E+03 -1.22202E+04  8.51299E+03 -3.82773E+03  1.48909E+04 -5.99053E+03
  3.51175E+03  3.29822E+03  1.76958E+03  3.13616E+03  2.74887E+03  7.35209E+03  3.32350E+03 -1.09984E+04
  1.78537E+04 -5.73787E+02  1.48771E+04  5.24322E+03  2.03321E+04  9.25968E+03  1.20208E+04  2.13714E+04
 -4.95474E+03  2.50131E+04 -1.94040E+04  1.73930E+04 -2.54205E+04 -1.54032E+02 -2.44113E+04 -8.55065E+03
 -1.12055E+04 -1.47619E+04  4.13782E+03 -1.49234E+04  3.79119E+03 -8.57135E+03  1.01601E+04  6.36215E+02
  6.68742E+03 -3.67476E+03  4.74546E+03 -7.03451E+03 -4.56920E+03 -2.30960E+03  5.29103E+03  1.93343E+03
  1.35513E+04  3.17673E+03  8.39526E+03  1.31065E+04 -3.66683E+03  1.49693E+04 -1.14045E+04  4.67052E+03
 -1.35303E+04  2.72739E+03 -9.36008E+03 -1.08798E+04  8.83739E+02 -1.32028E+04  1.37646E+04 -1.84302E+04
  2.14165E+04 -1.05931E+04  1.54526E+04 -2.82299E+03  1.67273E+04  2.10206E+04  2.48156E+03  1.88672E+04
 -4.77390E+03  1.52995E+04 -1.39382E+04  9.12161E+03 -1.01191E+04 -9.86555E+02 -2.51924E+03 -3.92162E+03
  1.31044E+03 -3.68105E+03  1.60852E+02  8.78909E+03 -3.59216E+03 -1.71597E+03 -9.81791E+03  6.66080E+03
 -1.02545E+04 -1.05419E+04 -3.00503E+03 -1.37537E+04  9.27983E+03 -1.26008E+04  2.35790E+04  1.16440E+03
  1.48273E+04  9.63603E+03  1.86856E+03  1.42517E+04  6.22765E+02  1.27432E+04 -9.06677E+03  1.27454E+04
 -1.85095E+04  2.42167E+03 -1.27453E+04 -5.48854E+03 -2.22050E+03 -1.27457E+04  9.31200E+03 -1.10728E+04
  8.33363E+03 -4.90771E+03  6.73446E+03 -1.68736E+03  2.14276E+03  1.77513E+03  5.10276E+03 -6.81084E+02
 -3.01320E+03 -1.71421E+03  7.78911E+03 -6.60429E+03  1.60432E+03  6.95410E+03  6.15052E+03  8.31227E+03
  1.30995E+03  1.56350E+04 -1.43236E+04  7.09515E+03 -1.45488E+04  7.84358E+03 -1.94378E+04 -5.84544E+03
 -1.12142E+04 -1.72721E+04 -9.93421E+02 -1.45876E+04  1.21125E+04 -1.24600E+04  1.11978E+04 -8.01762E+03
  4.00601E+03  1.07858E+04  4.57487E+03  1.32421E+03 -6.71860E+03  1.19808E+04 -2.00046E+03 -5.66780E+03
 -3.04025E+03 -7.75966E+03  6.88241E+03 -8.01812E+03  5.96530E+02 -1.03343E+04  5.40011E+03  1.74408E+03
  5.40822E+03 -2.35888E+03 -2.21466E+03  5.80311E+03 -1.76704E+03  7.97137E+03  1.01520E+03  1.55461E+03
  3.60713E+02  3.29286E+03  1.09275E+04 -5.84217E+01  3.57291E+03  1.54559E+04 -3.26382E+03  1.35114E+04
 -5.23964E+03  1.23281E+04 -1.12702E+04  2.62433E+03 -1.19458E+04 -5.80481E+03 -1.07195E+02 -2.86035E+03
  8.13791E+03 -1.12678E+04  1.17587E+04  2.15867E+03  7.95013E+03 -7.27110E+02 -1.85001E+03  2.37447E+03
 -3.96152E+03  2.26363E+03 -8.01082E+03 -7.18233E+03 -3.50168E+03 -9.63361E+03  4.27475E+02 -1.17335E+04
  4.47426E+03  1.88226E+01  8.80193E+03  3.60183E+03  1.11216E+04  2.53062E+03  8.44342E+02  6.06006E+03
  5.47851E+02  6.87007E+03  1.72550E+02 -1.99304E+03  3.93030E+03 -6.90310E+03  1.29791E+04 -4.32595E+03
  1.10407E+04  3.40934E+03  7.96591E+03  1.29865E+04  3.68912E+02  6.02190E+03 -1.11482E+04  4.85987E+03
 -1.02678E+04  7.84788E+03 -1.67407E+04 -2.96140E+03 -4.56465E+03 -7.06288E+03  3.56785E+03 -1.45849E+04
  2.25654E+03 -1.68795E+03 -3.54825E+02 -5.61639E+03  3.31580E+03  4.17374E+03  4.86402E+03  5.53319E+03
 -1.45515E+03  2.78004E+03 -1.93597E+03  2.10690E+03 -2.59303E+03  4.52450E+03 -1.39886E+03 -2.73103E+03
 -4.44266E+03  1.13467E+04 -7.98710E+03  6.30287E+03 -1.01671E+04 -1.92266E+03 -1.19911E+04 -8.71127E+03
 -5.45038E+02 -1.71696E+04  1.20713E+04 -1.86594E+04  5.47696E+03 -2.02142E+04  1.95807E+04 -7.53306E+03
  1.05584E+04  7.10177E+03  8.56858E+03  1.31757E+04  7.06831E+03  1.34940E+04 -7.35280E+03  7.43226E+03
 -1.03483E+04  9.22369E+02  1.36228E+03 -5.20598E+03 -2.01770E+03  1.39011E+03 -4.29174E+02  9.83489E+02
  1.37888E+03  1.93168E+03 -7.98527E+03  3.71527E+01 -7.34391E+03 -6.93087E+03  7.01126E+03 -4.32441E+03
  2.66500E+03 -4.29211E+02  1.57504E+04  4.81424E+02  6.37003E+03  6.27541E+03  5.51967E+03  1.05508E+04
 -8.04143E+03  8.29210E+03 -2.20343E+04  4.60441E+03 -1.56526E+04 -7.83976E+03 -4.07833E+03  4.87439E+02
 -5.64406E+03 -6.00671E+03  6.91526E+03 -1.87859E+04  7.91467E+03 -8.13316E+03  1.15608E+04 -9.33944E+03
  1.53319E+03  4.22587E+03 -3.76826E+02  1.65220E+03 -6.78682E+03  1.82652E+03  3.38519E+02 -3.64140E+03
  9.00919E+03 -3.89788E+02  1.24071E+03 -8.17631E+01  5.59016E+03  3.63983E+03 -4.59282E+03  1.15913E+04
 -6.18427E+03  9.45029E+03 -5.72959E+03 -1.67051E+03 -1.38564E+04 -5.69396E+03 -6.93756E+03 -4.63395E+03
  7.82101E+03 -3.82598E+03  7.13366E+03 -7.17760E+03  8.88587E+03 -5.38186E+02  7.24719E+02  5.54762E+03
 -2.82470E+03  9.96077E+03 -4.43379E+03  1.89429E+03 -1.75712E+03  1.32385E+03  5.77220E+02  2.91479E+03
 -2.29207E+03  1.85782E+03 -3.25322E+03  8.01357E+03 -2.80867E+03 -1.89166E+03 -4.88129E+03  1.84792E+03
 -4.16803E+03 -5.73497E+03 -2.19352E+03 -7.99654E+03 -8.49962E+02 -2.95547E+03  1.18516E+04 -5.73872E+03
  3.95051E+03 -2.97620E+03  1.78007E+03  8.41302E+03 -4.10270E+03  6.91110E+03 -1.18064E+04  5.71694E+03
