 $NMID ID='MM_0lb_SNR50_15hz_g50_57.RAW', FMTDAT='(8E13.5)'
 TRAMP=1., VOLUME=1. $END
  3.08431E+05 -5.91846E+03  3.34159E+05  2.54099E+05  8.99023E+04  3.38450E+05 -1.33818E+05  2.51273E+05
 -1.88891E+05  8.24309E+04 -1.11775E+05 -3.53756E+04 -2.94258E+03 -4.72911E+04  5.67419E+04  1.92786E+02
  3.83426E+04  5.25262E+04 -1.61437E+04  7.83268E+04 -6.21167E+04  6.34829E+04 -8.79059E+04  3.26041E+04
 -7.42509E+04 -1.40539E+04 -5.47466E+04 -5.10093E+04 -1.22523E+04 -6.57462E+04  2.31829E+04 -4.60055E+04
  4.29099E+04  5.12889E+03  1.52594E+04  4.80508E+04 -3.82467E+04  4.38116E+04 -6.82231E+04 -1.52087E+03
 -5.48211E+04 -5.90928E+04 -5.33042E+03 -7.48641E+04  3.21705E+04 -5.65228E+04  4.97365E+04 -1.89578E+04
  3.77838E+04  1.08041E+04  3.49836E+04  2.63300E+04  1.52100E+04  2.65776E+04 -4.83473E+03  2.27307E+04
 -1.95479E+04  1.75210E+04 -1.66810E+04 -2.07634E+03  4.01547E+03 -5.14118E+03  1.89748E+04  1.42264E+04
  8.31969E+03  2.81974E+04 -3.30940E+04  3.64374E+04 -6.90363E+04  8.65551E+02 -5.63177E+04 -4.06159E+04
 -1.00524E+04 -6.46940E+04  4.18365E+04 -4.06609E+04  6.12937E+04 -2.04419E+03  3.48637E+04  3.23350E+04
 -1.13836E+04  3.60543E+04 -2.82886E+04  1.60475E+04 -3.51338E+04 -2.87697E+03 -1.47276E+04 -4.84910E+03
 -8.51180E+03 -1.14914E+04  4.13098E+02 -1.75047E+04  9.40089E+03 -2.04666E+04  1.18709E+04 -1.25297E+04
  1.41968E+04  4.30126E+03 -1.00627E+04  1.49873E+04 -1.99531E+04 -5.63884E+03 -2.97008E+03 -3.83773E+04
  2.35383E+04 -4.66771E+04  4.86284E+04 -2.19707E+04  4.29240E+04  2.08772E+04  1.60976E+04  4.28053E+04
 -1.17350E+04  3.47436E+04 -2.75678E+04  3.96805E+03 -7.61825E+03 -2.93416E+04  2.19408E+04 -3.34427E+04
  4.35014E+04 -5.28449E+03  3.51472E+04  2.70344E+04  1.87102E+04  5.08291E+04 -1.34628E+04  5.00871E+04
 -3.20744E+04  3.10399E+04 -4.41348E+04  1.11308E+04 -4.54506E+04 -1.57836E+04 -2.64975E+04 -3.86894E+04
  9.78388E+03 -3.74757E+04  3.31201E+04 -1.06212E+04  2.48705E+04  1.44601E+04  5.86525E+03  1.60882E+04
 -1.66585E+04  7.30598E+03 -1.31305E+04 -9.63305E+03  9.77305E+03 -1.15916E+04  2.34458E+04  3.20424E+03
  1.59605E+04  2.64073E+04 -4.18857E+03  2.54936E+04 -1.91294E+04  1.57178E+04 -2.54157E+04 -7.88150E+03
 -2.03592E+04 -1.85402E+04 -5.73832E+03 -1.45203E+04  4.31833E+03 -2.27945E+04  1.55954E+04 -2.26945E+04
  2.54819E+04 -1.41290E+04  2.83243E+04 -2.56070E+03  2.27245E+04  1.40447E+04  3.57633E+03  4.03396E+04
 -1.61958E+04  3.39045E+04 -3.28096E+04  1.15897E+04 -2.31097E+04 -4.11425E+03 -7.55997E+03 -1.16729E+04
 -2.26965E+03 -5.20157E+03  1.30450E+03  5.94909E+03 -1.24689E+04  3.36714E+03 -1.37030E+04 -4.98021E+03
 -1.06211E+04 -1.54793E+04  6.28610E+03 -2.40792E+04  1.52088E+04 -1.31632E+04  1.70666E+04 -3.58957E+03
  1.09645E+04  1.30158E+04  1.25580E+03  1.59349E+04 -1.26298E+04  1.30909E+04 -2.14061E+04 -1.85571E+03
 -1.53960E+04 -1.80422E+04 -2.10816E+03 -2.00329E+04  1.21419E+04 -1.30435E+04  1.97196E+04 -9.93496E+03
  2.30657E+04  4.02022E+03  1.13152E+04  6.24555E+03  5.27174E+03 -5.64205E+02  7.94754E+03 -3.89898E+03
  2.11079E+04  3.44069E+03  2.33261E+04  1.31850E+04  1.35552E+04  3.09179E+04 -3.47691E+03  3.12510E+04
 -2.06763E+04  1.86731E+04 -2.45249E+04  1.03575E+04 -2.49102E+04 -3.95808E+03 -2.79894E+04 -1.96373E+04
 -5.52328E+03 -2.46840E+04  5.65812E+03 -2.62100E+04  1.80952E+04 -1.17526E+04  1.96402E+04  1.28841E+03
  8.79148E+03  1.32263E+04 -5.58715E+03  4.59591E+03 -1.24217E+04  3.60901E+03 -1.25251E+04 -9.20338E+03
  1.75405E+03 -1.52581E+04  9.98736E+03 -9.83038E+03  1.19052E+04 -3.03506E+03 -8.08988E+02  4.52665E+03
 -7.57295E+03  8.10650E+02 -7.90272E+03 -5.05480E+03  2.50405E+03 -1.65626E+04  1.07245E+04 -1.44796E+04
  1.98938E+04 -7.17098E+03  1.30180E+04  2.59479E+03  1.59482E+04  1.36712E+04  7.36836E+03  1.70481E+04
 -1.62266E+03  1.65638E+04 -1.22589E+04  1.29168E+04 -1.49633E+04  2.44683E+03 -1.35419E+04 -6.22286E+03
 -7.22974E+02 -1.47011E+03 -1.53140E+03  4.26016E+03 -2.14258E+03  7.33266E+03 -1.14243E+03  4.19902E+03
 -1.28542E+04 -2.40847E+03 -8.87645E+03 -1.02506E+04 -5.51334E+03 -1.11749E+04  4.15382E+03 -1.27742E+04
  8.98261E+03 -6.63257E+03  4.80754E+03  3.31779E+03  1.02364E+03 -2.78118E+03 -3.54629E+03  2.72220E+03
 -3.85859E+03 -5.38393E+03 -4.82324E+03 -9.85163E+03  3.39719E+03 -1.01332E+04  1.73950E+04 -7.54034E+03
  1.21642E+04  1.78551E+03  1.58569E+04  6.77644E+03 -8.13368E+02  1.20534E+04 -6.28815E+03  1.12044E+04
 -3.18151E+03  1.68879E+03 -6.74194E+03 -3.02116E+03 -2.32502E+03 -3.44699E+03  1.31421E+04 -4.47531E+03
  4.30653E+03  2.06803E+03  6.74738E+03  9.38899E+03 -6.33150E+03  6.49422E+03 -9.89107E+03  5.51466E+03
 -8.98556E+03 -7.96373E+03  1.41675E+03 -1.07193E+04  7.52133E+03 -6.03394E+03  3.79481E+03  2.77615E+03
  1.62299E+03  6.35634E+03 -9.25438E+03  5.61676E+03 -9.89234E+03  3.93699E+03 -5.42451E+03 -5.20454E+03
 -5.93390E+03 -8.34572E+03 -1.69997E+03 -1.45707E+04  8.76429E+03 -1.04136E+04  1.07219E+04  3.45569E+03
  3.74666E+03  9.19503E+03 -4.80718E+02  1.08426E+04 -7.72248E+03  8.72814E+02 -8.31964E+03 -2.45467E+03
 -1.14386E+04 -7.74820E+03  1.95946E+02 -5.75031E+03  3.32208E+03 -8.50104E+03  4.12843E+03  1.70926E+03
  1.03450E+04  6.58809E+03 -2.90487E+03  1.97286E+03  2.39662E+03  2.88718E+03  2.76732E+03  8.09431E+02
  7.50743E+03 -2.69531E+03  1.05244E+04  5.62124E+03  9.89366E+03  5.59665E+03  7.31708E+03  1.14508E+04
  3.05533E+03  1.21353E+04 -1.26853E+04  1.33689E+04 -1.33509E+04  1.55440E+03 -1.31801E+04 -3.96309E+03
 -8.59736E+03 -4.79261E+03 -4.30404E+03 -7.16016E+03  4.34604E+03 -7.24343E+03  8.72425E+03 -4.99355E+03
 -1.42459E+03  8.93291E+02  3.88735E+03 -6.06777E+02  4.66873E+02  2.66922E+02  7.75645E+03 -2.30300E+03
  5.78556E+03  1.78761E+03  4.57808E+03  5.11069E+03  7.27001E+02  5.73904E+03 -7.42986E+03  7.92749E+03
 -7.09011E+03  1.77401E+02 -4.64295E+03 -1.13433E+03 -6.65176E+03 -5.03763E+03  4.86561E+03 -5.07579E+03
  7.87462E+03 -3.26883E+02  1.18145E+04 -3.42080E+03  6.91125E+03  1.35614E+04  1.16765E+03  1.37645E+04
  2.40065E+03  1.46356E+04 -4.67202E+03  4.68413E+03 -2.22807E+03 -4.12255E+03  4.16972E+03 -6.59789E+02
 -2.47337E+03 -1.26739E+03  1.46860E+03  4.41928E+03 -2.94009E+03  8.30094E+02 -9.70282E+03  2.90864E+03
 -1.06133E+03 -2.67795E+03  2.26707E+03 -6.06414E+03  3.04690E+03 -1.08338E+04  8.92100E+03 -4.46440E+03
  4.57014E+03  3.18674E+03 -3.15165E+02  4.58274E+03 -2.74033E+02  1.23392E+04 -5.16647E+03  5.16835E+03
 -7.96728E+03 -2.91428E+03 -8.34532E+03 -5.11730E+03 -8.49842E+02 -3.94916E+03 -1.14090E+03 -2.31029E+03
  5.91195E+03 -3.16924E+03  1.21353E+03 -6.21400E+03 -2.19375E+03  5.20439E+03 -6.35951E+02  2.56555E+03
  5.32824E+03  5.17120E+03  2.52755E+03  1.64603E+03  2.44217E+03  1.76052E+03  1.16665E+03  3.17754E+03
 -2.87560E+03  2.42020E+03 -7.95622E+03  5.58425E+03 -9.59141E+03  3.22343E+03 -1.12350E+04 -9.96149E+02
 -7.27283E+03 -7.70915E+03 -1.29582E+03 -7.51499E+03  4.87276E+03 -4.92342E+03  5.61000E+03 -2.91852E+03
  3.94050E+03  2.77823E+03  4.81652E+02  3.43504E+03  2.28155E+03  1.83595E+03  5.18197E+01 -4.61214E+03
  1.22235E+03 -9.11087E+02  6.70653E+03 -5.30192E+03  6.32466E+03 -3.23333E+03 -8.62055E+02 -2.69811E+03
  2.62965E+03  5.33173E+03  6.03699E+03  1.15427E+03  4.27959E+03  1.15275E+03 -2.31080E+02 -2.05910E+03
 -2.68907E+03  3.86912E+03  1.61256E+03  3.82067E+03  5.39162E+03  8.83645E+03 -5.65891E+02 -3.45642E+03
 -4.59517E+03  1.98374E+03 -2.63871E+03  4.88445E+03 -4.70928E+03  3.30326E+02 -2.07528E+03 -5.35493E+03
  1.71109E+03 -1.32231E+03  4.74210E+02 -1.99152E+03  2.72379E+03  9.24699E+02  1.08934E+03  1.41143E+03
 -3.37171E+03  2.98177E+02 -1.76623E+03  6.53346E+02 -4.33974E+03 -3.11481E+03 -1.82695E+03 -5.08960E+03
 -1.45550E+02  2.36427E+03 -6.55588E+02  9.97666E+01  9.44597E+03  6.31385E+03  3.13396E+03  5.37420E+03
  3.67426E+03  8.02065E+02 -9.36076E+02  2.11084E+03  4.04821E+03  3.02477E+03  7.04902E+03 -4.21520E+03
  4.82907E+03  3.15579E+03  4.27568E+03  2.35773E+03 -4.96885E+02 -1.72588E+03 -3.63225E+03  4.24405E+03
 -1.71265E+03 -2.78686E+02 -2.69397E+03 -5.13972E+02 -2.66724E+03 -9.78176E+02  2.03596E+03 -4.94698E+02
 -1.73938E+02  4.84391E+03  4.90044E+03  1.98038E+03  1.53482E+03  4.11370E+03  2.70094E+03  4.08626E+02
  1.79190E+03 -1.55056E+03 -2.35139E+03 -7.80512E+02 -6.87512E+01 -1.76949E+03  1.85394E+03  7.75039E+02
 -2.37968E+03  3.19568E+03 -4.60382E+03 -4.89876E+02 -4.10073E+03 -1.88752E+03 -3.40967E+03 -2.08294E+03
 -3.02675E+03 -2.05739E+03  3.48379E+03 -5.11990E+03 -3.31551E+02 -6.72558E+03  7.13206E+03 -4.72010E+03
  8.36788E+03  9.71896E+02  4.81733E+03  1.05188E+03 -4.11932E+03 -4.36046E+02 -2.48338E+03  2.23890E+02
  4.59703E+03 -1.11361E+03 -5.00636E+03 -4.57957E+03  1.28293E+03  2.42068E+02 -4.12906E+03 -3.75221E+03
 -1.61412E+03  3.09365E+02 -7.70929E+03 -5.19394E+03  3.64226E+03 -6.11593E+03  1.00623E+03 -3.26334E+03
 -5.07427E+02  4.03652E+03  1.79714E+03 -3.75292E+02  3.82129E+03  7.44548E+03  1.03893E+03  4.84029E+03
  3.74816E+02  2.58267E+03 -5.36837E+03  1.40376E+03 -5.96396E+03  1.74542E+03  3.08590E+02 -5.12286E+03
 -7.93004E+02 -3.35635E+03  3.02784E+03 -3.90607E+03  4.40930E+03  4.41767E+03  7.10267E+03  2.67662E+03
  1.26042E+03 -1.71281E+03 -3.31072E+02 -2.42688E+03 -7.95626E+02 -7.68473E+02 -2.69584E+03  2.67170E+03
  2.36740E+03  1.23428E+03 -2.68119E+03  7.16569E+02 -1.40950E+03 -1.03416E+03  2.79124E+02  4.34987E+03
  2.05836E+03  5.00040E+02  1.04615E+03  2.03813E+03 -1.65328E+02 -1.30520E+03  1.24959E+03 -2.42454E+03
  3.20011E+03 -1.31513E+03  2.36746E+03 -8.46878E+02  3.05096E+03  5.16264E+02  1.07156E+03  2.11122E+03
 -1.61186E+03  5.57620E+03  1.15047E+03  3.49662E+03  6.45259E+02  4.61341E+03 -1.71705E+03  4.58598E+03
 -1.84708E+03 -3.79060E+03 -5.33345E+02 -4.74310E+03  1.00925E+03  8.89518E+02  4.22828E+02  3.21135E+03
 -3.43942E+03 -4.66194E+02  4.15615E+03 -4.06380E+03 -9.37535E+02  2.46586E+01  1.81956E+03 -2.14747E+03
  4.83720E+03  1.05212E+02  8.71333E+02  1.35218E+03  8.30007E+02  6.94718E+03 -4.31460E+03  3.19382E+03
