 $NMID ID='MM_0lb_SNR50_16hz_g55_14.RAW', FMTDAT='(8E13.5)'
 TRAMP=1., VOLUME=1. $END
  3.08998E+05 -7.22703E+02  3.39862E+05  2.52948E+05  8.52303E+04  3.32579E+05 -1.32415E+05  2.49858E+05
 -1.89722E+05  8.57151E+04 -1.08084E+05 -2.76382E+04 -3.53499E+02 -4.49416E+04  5.20657E+04  3.00269E+02
  3.20627E+04  5.62917E+04 -1.84628E+04  7.49879E+04 -5.85220E+04  6.35360E+04 -8.37657E+04  3.64058E+04
 -8.03865E+04 -1.41222E+04 -5.58296E+04 -5.19578E+04 -1.43835E+04 -6.92382E+04  2.54004E+04 -4.45791E+04
  4.15147E+04  6.70736E+03  1.71850E+04  4.52318E+04 -3.44204E+04  4.84946E+04 -7.03356E+04  3.04119E+03
 -5.04011E+04 -6.06063E+04 -7.08917E+03 -8.20741E+04  3.38415E+04 -4.67703E+04  4.31644E+04 -1.67547E+04
  4.07874E+04  1.21503E+04  3.10667E+04  2.71840E+04  1.84415E+04  2.88026E+04 -5.12481E+03  2.53992E+04
 -2.10659E+04  1.10890E+04 -2.02404E+04 -4.95007E+02  6.13874E+03 -3.10155E+03  2.22988E+04  1.35694E+04
  7.23588E+03  3.32099E+04 -2.93936E+04  3.35122E+04 -6.20538E+04  3.32902E+03 -5.94502E+04 -4.28965E+04
 -1.11937E+04 -6.79428E+04  3.82347E+04 -4.50387E+04  5.91342E+04 -1.81168E+03  3.39801E+04  2.92126E+04
 -6.05094E+03  4.04491E+04 -3.37783E+04  1.42133E+04 -3.03716E+04 -1.26087E+03 -2.34494E+04 -9.17501E+03
 -8.42369E+03 -9.95362E+03  2.57806E+03 -1.55357E+04  7.49910E+03 -2.07708E+04  1.80058E+04 -1.54793E+04
  1.68768E+04  8.13507E+03 -6.50493E+03  1.10987E+04 -1.96200E+04 -3.04887E+03 -6.62808E+03 -3.36423E+04
  1.80965E+04 -4.06355E+04  4.87402E+04 -1.97205E+04  4.63053E+04  1.93696E+04  2.11344E+04  4.67957E+04
 -1.30015E+04  2.99756E+04 -2.69611E+04  7.97625E+03 -1.16209E+04 -2.31478E+04  2.07191E+04 -3.70834E+04
  4.23446E+04 -1.23227E+04  3.40565E+04  3.06448E+04  1.61027E+04  4.48308E+04 -6.78616E+03  5.12587E+04
 -3.31323E+04  3.21737E+04 -4.20378E+04  9.91677E+03 -4.02722E+04 -1.90644E+04 -2.47598E+04 -3.97860E+04
  7.84745E+03 -3.62268E+04  3.55078E+04 -1.35735E+04  2.54205E+04  6.47346E+03  1.33348E+03  1.93405E+04
 -1.40522E+04  1.10497E+04 -7.73530E+03 -5.35937E+03  3.72505E+03 -1.21478E+04  1.76011E+04  3.85582E+03
  1.09840E+04  2.40574E+04  7.24283E+02  2.31506E+04 -2.60760E+04  8.03590E+03 -2.68400E+04 -1.89056E+03
 -2.20515E+04 -2.07189E+04 -6.22662E+03 -1.83609E+04  4.26422E+03 -1.83695E+04  1.67376E+04 -1.71365E+04
  2.47446E+04 -1.34503E+04  2.78880E+04  4.08396E+03  2.38264E+04  1.77544E+04  4.89485E+03  3.92124E+04
 -1.59340E+04  3.23511E+04 -2.34587E+04  1.01701E+04 -2.62363E+04 -5.73687E+03 -5.00688E+03 -1.41936E+04
  3.02042E+03 -2.18025E+03 -1.78331E+03  4.05964E+03 -1.65478E+04  6.82892E+03 -1.35973E+04 -4.53062E+03
 -8.36706E+03 -1.69312E+04  6.35464E+03 -2.16492E+04  9.37336E+03 -6.48853E+03  1.32912E+04 -7.36553E+02
  1.15299E+04  1.70557E+04 -2.42499E+03  1.89906E+04 -1.30929E+04  7.29037E+03 -1.67609E+04 -2.92853E+03
 -1.29323E+04 -1.88949E+04 -5.23735E+03 -2.07020E+04  7.58675E+03 -1.77083E+04  2.33658E+04 -8.98823E+03
  1.54547E+04 -2.31202E+03  8.58255E+03  4.50020E+03  8.43874E+03 -5.82443E+02  4.47116E+03 -8.33642E+02
  1.47267E+04  3.26406E+03  1.52877E+04  1.74301E+04  9.78186E+03  3.24336E+04 -4.61948E+03  3.28580E+04
 -2.00705E+04  2.04208E+04 -2.79854E+04  1.30234E+04 -2.70696E+04 -3.44986E+03 -2.60432E+04 -1.50711E+04
 -1.25542E+04 -2.76377E+04  8.17369E+03 -2.22221E+04  2.27846E+04 -9.87817E+03  2.10845E+04  4.13450E+03
  6.73964E+03  1.20712E+04 -8.79724E+03  1.14440E+04 -1.77598E+04  4.37706E+03 -1.03205E+04 -7.34135E+03
 -1.73523E+03 -1.46705E+04  6.87158E+03 -8.48386E+03  8.56333E+03  1.48413E+02  2.40010E+03  3.28266E+03
 -8.52607E+03  1.22988E+03 -2.80171E+03 -5.76824E+03  2.29010E+03 -1.56948E+04  5.81664E+03 -9.18891E+03
  1.25980E+04 -7.97450E+03  1.72455E+04  2.08315E+03  1.30914E+04  1.27775E+04  4.26534E+03  2.15129E+04
 -8.13704E+01  1.97913E+04 -9.66831E+03  1.25950E+04 -1.40291E+04  1.27011E+03 -5.04408E+03  1.24700E+03
 -2.29716E+03 -3.42745E+03 -1.78021E+01  2.07253E+03  4.59525E+03  5.24044E+03 -4.73327E+03  4.04052E+03
 -7.63966E+03 -7.81780E+02 -9.62540E+03 -5.59015E+03 -5.96288E+03 -1.30576E+04  6.53749E+03 -1.06570E+04
  6.54480E+03 -3.78120E+03  3.39623E+03  5.56019E+03  2.03074E+03 -1.11926E+03 -3.63033E+02 -1.46282E+03
 -7.18023E+03 -7.08099E+03  1.29178E+01 -9.93178E+03  5.65514E+03 -1.17495E+04  1.32290E+04 -7.36035E+03
  2.07012E+04  3.45098E+03  1.42850E+04  1.03820E+04  9.92595E+02  1.00735E+04 -3.81714E+03  1.00838E+04
 -8.83962E+03  2.78857E+03 -2.71912E+03 -4.67781E+03  4.27667E+03 -1.04128E+03  8.19039E+03 -3.95401E+03
  2.04607E+03  4.43971E+03  2.38083E+03  1.07912E+04 -4.92404E+03  6.94475E+03 -7.98594E+03 -8.77213E+02
 -8.34043E+03 -9.82835E+03 -1.26805E+03 -6.45086E+03  3.06106E+03 -5.66140E+03  4.95381E+03 -1.64139E+03
 -2.21079E+02  5.51087E+03 -1.75462E+03  7.22173E+03 -6.45861E+03  4.22096E+02 -4.57081E+03  8.77807E+02
 -3.22817E+03 -7.54067E+03 -1.33016E+03 -1.02729E+04  6.02662E+03 -7.61685E+03  6.37251E+03  6.07324E+03
  4.78263E+03  9.64784E+03 -1.37888E+03  9.99825E+03 -1.01769E+03  3.40056E+03 -7.00445E+03 -9.65108E+02
 -7.02781E+03 -3.67841E+03 -3.11993E+03 -2.69173E+03  3.88049E+03 -6.85046E+03  6.46203E+03  1.18254E+03
  5.85097E+03 -5.34693E+03  5.89587E+02  2.02970E+03  2.75704E+03  1.18093E+03  4.61446E+03 -8.77638E+02
  9.07145E+03 -3.27661E+03  9.33393E+03 -1.59632E+03  4.81307E+03  5.71851E+03  7.38162E+03  7.22747E+03
 -1.03694E+03  1.11187E+04 -1.29790E+04  8.36938E+03 -1.41383E+04  7.85556E+03 -9.69575E+03 -8.78559E+02
 -3.46024E+03 -1.00842E+04 -1.55888E+03 -6.85069E+03  1.90859E+03 -7.62228E+03  7.30577E+03 -5.02545E+03
  1.15405E+03 -1.26853E+03  4.96518E+03 -5.89091E+02  7.11027E+03 -2.67661E+03  4.12180E+03 -4.50476E+03
  2.66082E+03  3.68031E+02  3.42424E+03  6.71237E+03  1.39530E+03  3.68548E+03 -5.96976E+03  7.83220E+03
 -7.54605E+03  1.68140E+03 -8.64743E+03 -6.37551E+03  1.63439E+03 -7.48074E+03  6.43356E+03 -1.12687E+04
  7.35055E+03 -4.53746E+01  6.48790E+03  1.44217E+03  3.65379E+03  7.33742E+03  6.15040E+03  8.43956E+03
 -2.68690E+03  6.45942E+03 -7.71400E+03  1.26968E+03 -4.44678E+03 -1.47350E+03  7.61742E+02 -1.94403E+03
 -2.84141E+03 -1.03419E+03  1.67106E+02  5.03970E+02 -3.12355E+03 -2.96284E+03 -5.33964E+03 -2.02491E+02
 -9.69168E+02 -7.01757E+03 -1.90407E+03 -2.43773E+03  1.22303E+03 -5.78512E+03  4.72516E+03 -5.53753E+03
  9.33044E+03  3.71676E+03  3.74296E+03  9.23232E+03 -5.61679E+03  6.88618E+03 -5.93154E+03  4.09688E+03
 -2.34487E+03  5.63037E+03 -1.20031E+03 -4.91733E+03  7.17387E+02 -3.31937E+03  2.16207E+03 -4.57787E+02
  3.88572E+03 -7.64993E+02  2.92697E+03 -1.08698E+03 -9.47999E+02  3.50356E+03 -1.63290E+03 -3.33527E+03
  3.20008E+03  4.83541E+03 -1.86782E+03 -3.37853E+02  1.02898E+03  4.53765E+03  1.23206E+03  1.26595E+03
  2.33864E+02  2.88574E+03 -4.14390E+03  8.55986E+03 -2.81881E+03  2.71031E+03 -6.67367E+03 -2.01294E+03
 -5.62508E+03 -1.21124E+04  6.64337E+03 -8.36293E+03  4.03211E+03 -6.68297E+03  5.65008E+03  2.02711E+02
  2.92051E+03  4.62954E+03  4.71022E+02  6.24411E+03 -1.86803E+03  2.04497E+03 -1.92487E+03 -1.53286E+03
 -4.04563E+02 -1.11726E+03  6.69319E+03 -3.05385E+03  6.54630E+02 -2.34197E+03  7.36626E+02  2.17487E+03
 -8.33083E+02  1.73767E+03  2.58634E+02  1.34633E+03 -9.27514E+02  6.70019E+02  1.21789E+03  1.98017E+02
 -1.55130E+03  1.28549E+02  4.31379E+03 -2.53729E+03  1.16261E+02  1.43611E+03 -1.45828E+02  2.25731E+03
 -7.92071E+03  3.74884E+03 -5.37541E+03  4.32897E+01 -2.96490E+02 -3.23643E+00 -1.86464E+03 -3.02776E+03
  3.95767E+03 -1.61959E+03  3.82987E+03  2.48636E+03 -1.00703E+03  2.37417E+03 -1.50321E+03 -7.10124E+02
 -5.86567E+03  9.03321E+03  3.41041E+02 -6.52110E+03  1.60939E+03 -1.47544E+03 -1.17928E+02  2.66251E+03
 -1.93179E+02  5.79101E+01 -1.51460E+03 -4.25330E+03  3.99216E+03  1.72420E+03  4.86016E+03  6.06704E+03
 -3.20830E+03  3.13289E+03  9.65829E+02 -2.14719E+03  1.74419E+03 -2.96591E+03  3.68125E+03 -4.68316E+03
  1.33663E+03 -1.35637E+03  2.66163E+03  2.67420E+03  3.98406E+03  2.08060E+03 -2.10472E+03  8.27737E+03
 -5.20177E+03 -2.17691E+03  3.64671E+03 -6.81552E+02  2.03811E+03  7.15997E+02 -2.41266E+03 -1.21947E+03
  5.10805E+03  1.07243E+03  2.88406E+03  1.49522E+03  1.23278E+03 -3.03375E+02  3.63366E+03  2.26450E+03
  4.20174E+03  5.62926E+02 -1.46078E+03  5.89135E+02 -3.56871E+03 -3.97239E+02 -2.55741E+03 -6.78945E+02
 -2.73066E+03 -2.06120E+03 -3.04938E+03 -4.31323E+03 -2.82708E+03 -3.06526E+02 -6.47748E+03 -1.31024E+03
 -1.00186E+03 -2.43594E+03  2.28999E+03 -6.67941E+03  2.61196E+03 -1.69815E+03  4.75069E+03 -8.21574E+02
  3.47990E+03  2.65629E+03  3.82129E+03  3.89811E+03 -2.58712E+03 -5.98505E+02  2.55868E+03  5.42455E+03
  3.04153E+03 -2.55951E+02 -3.72499E+03  1.93234E+03 -3.74290E+00  2.97087E+02 -6.73628E+02  1.64943E+03
  1.87917E+03 -2.60103E+03  1.22926E+03  1.72154E+03 -1.46299E+03 -5.08080E+03 -2.20116E+03  7.92098E+02
  1.69192E+03  1.25913E+03  2.90113E+03  4.72294E+03  7.84954E+03 -1.02061E+03  3.83585E+02  5.07761E+03
 -2.16735E+03  5.59486E+03 -3.95021E+03  1.08152E+03 -2.24251E+03 -1.88283E+03 -1.43404E+03  2.45300E+02
 -1.40393E+03 -7.14148E+03  2.11156E+03 -2.47117E+03  1.82529E+03 -2.32950E+03  1.15040E+03  3.39971E+03
  3.82241E+02 -1.09238E+03 -5.42345E+02  3.08866E+03 -2.30806E+03 -1.06373E+03 -7.53071E+02 -2.24677E+03
 -2.85962E+03  1.81156E+03  3.58139E+03  2.10829E+03  4.57961E+03  5.02900E+02  2.70898E+03  3.40484E+03
 -1.43810E+03 -3.83081E+03  9.95926E+01 -4.66024E+03 -2.60873E+03 -2.68094E+03  9.50341E+02 -1.46198E+03
  2.20678E+03  2.74264E+03 -1.69331E+03  1.41097E+03  1.07945E+03 -4.68839E+02 -1.51506E+03 -3.84079E+02
  4.56127E+02  4.93282E+03  1.09486E+03  4.39972E+03 -2.68338E+03 -4.57223E+01 -2.20916E+03  1.41645E+03
  4.46796E+02 -2.29216E+03 -1.35315E+03  4.77631E+02  3.13482E+03  1.90379E+03  1.23092E+03  4.24408E+03
 -5.68855E+03 -3.74672E+03 -1.53445E+03 -5.40164E+03 -1.74752E+03  1.02890E+03  2.12161E+03 -2.51456E+03
  1.03962E+03 -2.00536E+03  9.63901E+02 -5.27387E+02  1.13747E+03 -2.68176E+03  2.85968E+03 -4.40715E+03
