 $NMID ID='MM_0lb_SNR50_12hz_g60_8.RAW', FMTDAT='(8E13.5)'
 TRAMP=1., VOLUME=1. $END
  3.05412E+05  1.30226E+03  3.40003E+05  2.56817E+05  8.61225E+04  3.41867E+05 -1.38534E+05  2.54938E+05
 -1.88573E+05  8.38613E+04 -1.11127E+05 -3.38257E+04  1.28181E+03 -4.93497E+04  5.17651E+04 -2.85948E+03
  3.31045E+04  5.45040E+04 -2.01358E+04  7.78246E+04 -6.17314E+04  6.49501E+04 -8.56405E+04  3.06294E+04
 -8.17289E+04 -1.06819E+04 -5.71897E+04 -4.91989E+04 -1.35349E+04 -7.41104E+04  2.48185E+04 -4.90860E+04
  3.57048E+04  6.85774E+03  1.64867E+04  4.62746E+04 -3.75951E+04  5.32942E+04 -6.51056E+04  3.33099E+02
 -5.24215E+04 -5.47973E+04 -2.51723E+03 -7.89839E+04  3.34372E+04 -5.76850E+04  5.40975E+04 -2.13070E+04
  4.58638E+04  1.36124E+04  3.23901E+04  2.51315E+04  1.26905E+04  3.27797E+04 -6.47888E+03  2.21544E+04
 -1.97375E+04  1.00446E+04 -1.19133E+04 -8.68921E+03  1.09347E+04 -8.91850E+03  2.56560E+04  1.41180E+04
  5.60012E+03  3.41476E+04 -3.21080E+04  3.63473E+04 -6.53676E+04  4.30987E+03 -5.85673E+04 -3.81079E+04
 -1.00920E+04 -6.50300E+04  4.02572E+04 -4.72911E+04  6.36919E+04 -3.34710E+03  4.04210E+04  3.46492E+04
 -5.75701E+03  4.61312E+04 -3.77843E+04  2.22838E+04 -3.24695E+04 -5.59281E+03 -1.40641E+04 -1.46513E+04
 -6.79953E+03 -1.52499E+04 -1.63065E+03 -1.94287E+04 -4.27772E+02 -2.17212E+04  1.58284E+04 -1.08264E+04
  6.37491E+03 -8.17319E+02 -1.09354E+04  1.32377E+04 -2.35065E+04 -6.98187E+03 -7.81386E+03 -3.74891E+04
  2.41567E+04 -4.62027E+04  4.85287E+04 -2.28779E+04  4.45300E+04  1.82148E+04  1.50764E+04  4.80428E+04
 -1.81584E+04  3.88723E+04 -2.54374E+04  2.14252E+03 -1.30542E+04 -3.22572E+04  1.16209E+04 -3.59441E+04
  3.93525E+04 -3.80885E+03  3.83343E+04  2.41199E+04  1.69570E+04  5.79182E+04 -5.36998E+03  5.27769E+04
 -3.08727E+04  3.89948E+04 -4.13784E+04  1.44342E+04 -4.32829E+04 -1.85127E+04 -2.63821E+04 -3.82981E+04
  5.24511E+03 -3.96498E+04  3.51657E+04 -1.69829E+04  3.33391E+04  1.33529E+04  8.00041E+03  1.17022E+04
 -1.54535E+04  9.71285E+03 -1.19038E+04 -5.85580E+03  9.96369E+03 -8.22973E+03  1.84797E+04  3.02541E+03
  1.40410E+04  2.47285E+04 -6.58427E+03  2.54605E+04 -2.19656E+04  1.07190E+04 -3.42772E+04 -4.34665E+03
 -2.26971E+04 -1.12838E+04 -8.29408E+03 -2.28745E+04  3.82341E+03 -2.38739E+04  1.75188E+04 -1.58890E+04
  3.13647E+04 -1.36151E+04  3.70033E+04  2.86639E+03  2.39359E+04  2.31146E+04  1.87208E+03  3.75338E+04
 -2.15929E+04  3.33992E+04 -2.23759E+04  1.09292E+04 -2.85994E+04 -1.06412E+04 -3.66729E+03 -1.76934E+04
 -3.19452E+02  3.71245E+03 -6.78398E+03  3.68101E+03 -1.96108E+04  2.88398E+03 -1.82276E+04 -7.53147E+03
 -1.11547E+04 -2.21758E+04  3.51944E+03 -3.14089E+04  1.52003E+04 -1.87860E+04  2.43695E+04 -5.92935E+03
  5.06285E+03  1.58762E+04 -5.34142E+03  2.23440E+04 -1.24549E+04  1.34331E+04 -2.06536E+04 -5.88215E+02
 -1.63536E+04 -1.80900E+04 -1.15490E+02 -2.77249E+04  1.38445E+04 -2.34643E+04  2.07213E+04 -1.59744E+04
  1.81918E+04 -9.75039E+02  1.45589E+04  4.68027E+03  1.16186E+04 -2.40691E+03  8.54794E+03 -1.81148E+03
  1.50589E+04  6.77268E+03  2.35190E+04  1.68540E+04  1.41734E+04  3.35056E+04 -1.73527E+03  4.02097E+04
 -2.49025E+04  3.20042E+04 -3.57562E+04  1.93674E+04 -4.03825E+04 -4.98216E+03 -2.97104E+04 -2.11110E+04
 -1.37700E+04 -2.72930E+04  1.41439E+04 -3.03808E+04  2.30517E+04 -1.40308E+04  2.36199E+04  6.07114E+03
  7.08665E+03  1.29702E+04 -8.90037E+03  1.60213E+04 -1.57805E+04  4.77532E+03 -1.54702E+04 -1.54115E+04
 -3.19520E+03 -1.52853E+04  1.52908E+04 -1.36405E+04  1.56163E+04 -7.42024E+02  5.77885E+02  1.20775E+04
 -1.26725E+04  3.11151E+02 -1.04175E+04 -1.13334E+04 -4.33171E+03 -1.78475E+04  9.04640E+03 -2.09353E+04
  1.95476E+04 -9.41701E+03  2.42462E+04 -8.67589E+02  1.97428E+04  1.77092E+04  9.00536E+03  2.66034E+04
 -4.31121E+03  2.57376E+04 -1.74901E+04  1.60124E+04 -1.77412E+04  9.27902E+03 -1.27843E+04 -2.00389E+03
 -5.61329E+03 -8.07357E+03  2.42435E+01  4.33556E+03 -3.85198E+03  5.97069E+03 -4.87629E+03  8.23804E+03
 -1.33626E+04 -2.16926E+03 -1.81985E+04 -6.55914E+03 -4.54660E+03 -1.86492E+04  9.27258E+03 -1.42193E+04
  1.24346E+04 -3.89711E+03  8.27123E+03  6.26788E+03 -1.27021E+01  5.68673E+03 -9.33718E+03  5.05919E+03
 -4.29791E+03 -1.47388E+04 -1.91310E+03 -1.34308E+04  6.60422E+03 -1.49196E+04  1.66577E+04 -5.30866E+03
  1.51191E+04  2.01717E+03  1.53969E+04  8.61867E+03  4.30548E+03  1.36024E+04 -3.54523E+03  9.54170E+03
 -1.27967E+04  1.46975E+03 -9.83569E+03 -1.59406E+03  2.72303E+03 -1.55188E+03  6.68096E+03  3.32643E+03
  4.93553E+02  9.06940E+03 -1.30483E+03  8.91024E+03 -5.41578E+03  1.16729E+04 -9.04273E+03  8.93819E+03
 -6.63848E+03 -2.56147E+03 -3.56971E+02 -1.31135E+04  1.05585E+04 -7.72795E+03  8.70177E+03  9.64156E+02
  3.95074E+03  3.16318E+03 -7.51455E+03  7.89455E+03 -1.53522E+04  5.36474E+03 -1.28066E+04 -1.74372E+03
 -3.90856E+03 -1.36024E+04  1.26959E+03 -1.18139E+04  1.47300E+04 -5.36434E+03  1.36093E+04  5.73387E+03
  5.68135E+03  1.33382E+04  1.88371E+03  8.39630E+03 -7.07405E+03  7.06210E+03 -1.04256E+04 -7.39759E+02
 -7.38149E+03 -6.80051E+03 -5.28708E+03 -1.74954E+04  2.87718E+03 -1.15851E+04  4.92883E+03 -4.92355E+03
  7.53874E+03  1.60843E+03 -2.11127E+03  4.61472E+03  1.50172E+03 -2.40018E+03  4.84172E+03 -7.16491E+03
  8.13782E+03 -6.52313E+03  1.29279E+04  3.00420E+01  1.04087E+04  4.40925E+03  8.94749E+03  1.36080E+04
 -1.23934E+04  1.97926E+04 -1.61943E+04  1.49657E+04 -2.13642E+04 -5.27499E+02 -1.68925E+04 -3.67047E+03
 -1.44981E+04 -1.69509E+04  1.49257E+03 -2.02563E+04  1.00295E+03 -6.76403E+03  8.48639E+03 -5.21700E+03
  4.42254E+03 -3.35106E+03  1.05554E+03 -2.84331E+03  8.50451E+03 -4.03169E+03  4.66955E+03  8.97241E+02
  8.94638E+03  2.71677E+03  3.37401E+03  1.29265E+04 -1.31324E+03  9.07781E+03 -1.00178E+04  1.53981E+02
 -7.14995E+03 -1.76082E+03 -9.47313E+02 -8.16382E+03  2.47921E+03 -1.22410E+04  1.36616E+04 -1.30398E+04
  1.10712E+04 -8.93000E+03  1.99023E+04  2.73738E+03  8.33177E+03  1.69076E+04  1.49837E+03  1.33243E+04
 -9.49097E+03  7.12552E+03 -7.55560E+03  1.74832E+03 -6.20705E+03 -3.74635E+02  1.53136E+03 -2.31446E+03
 -5.22471E+02  1.41272E+03 -1.62186E+01  3.80126E+02 -7.76877E+03  5.71285E+03 -5.32736E+03 -6.59479E+03
 -8.95324E+03 -6.57630E+03  2.45413E+03 -9.12943E+03  5.59658E+03 -1.37553E+04  7.66851E+03 -5.32216E+02
  1.02292E+04  3.23831E+03  9.93168E+03  1.32832E+04  1.28551E+03  1.18719E+04 -8.33374E+03  5.51878E+03
 -7.41591E+03  2.66515E+03 -1.04230E+04 -1.01937E+04  2.59456E+03 -1.00229E+04  3.74005E+03 -8.78216E+03
  9.74154E+03  2.87229E+03  6.23679E+03  4.39439E+03  5.07658E+03  3.92569E+03 -2.37835E+03 -1.29870E+03
  6.97820E+02 -1.72800E+03 -2.66857E+03  1.83163E+02  3.65943E+03  6.95495E+03  7.59738E+03  2.99070E+03
 -7.72097E+03  1.07801E+04 -9.33842E+03  9.23637E+03 -3.64625E+03 -1.86182E+01 -4.59530E+03 -9.00867E+03
 -9.99624E+03 -8.94267E+03 -1.16415E+03 -1.49959E+04  4.39099E+03 -7.96685E+03  8.30970E+03  3.82257E+02
  9.01786E+03  1.14328E+04  1.31658E+03  4.91038E+03 -2.45258E+03 -4.09529E+02 -5.41127E+03 -1.69971E+03
 -2.06861E+03 -5.53667E+03  4.20036E+03 -2.46181E+03  7.33167E+03  1.99973E+03  6.69445E+03 -1.41232E+03
  5.10139E+02  8.91522E+03  1.88388E+03  6.56173E+02 -1.45985E+03 -2.97839E+03 -1.18169E+03  3.19031E+02
 -2.11063E+03  1.31108E+03  1.94230E+03  2.96056E+03  1.12012E+03  4.15664E+03 -2.73506E+03  7.32024E+03
 -5.59443E+03  1.09679E+03 -5.16806E+03  3.93351E+03 -7.27312E+03 -4.67524E+03 -2.62146E+03 -3.06417E+03
  2.65375E+03 -4.29389E+03  3.34404E+03 -1.54247E+03  2.43646E+03  5.99413E+03 -2.05287E+03  1.81503E+03
 -8.51749E+03  3.03721E+03 -1.13002E+03 -2.25565E+03  4.62824E+02 -2.73825E+03  2.74780E+03 -5.13068E+03
  7.88165E+01  7.32083E+02  4.47973E+03 -2.53800E+03  5.78361E+03 -9.89803E+01  1.69156E+03  8.88706E+02
 -1.53615E+03 -1.92483E+03 -5.13325E+03  6.82375E+02  3.74077E+03 -2.57405E+03 -1.87314E+03 -5.43549E+03
  7.35660E+03  1.93565E+03  6.53642E+03  6.10948E+03  6.27051E+03  4.60232E+03 -2.44534E+03  7.94798E+03
 -4.83265E+03  8.88546E+02 -8.07346E+02 -1.88970E+03 -4.33244E+03  8.16124E+02 -8.48118E+02 -3.76225E+03
  8.23482E+03 -3.07911E+03  4.88105E+03  1.14294E+03 -5.98580E+03 -3.17775E+03  1.74147E+03  9.33666E+02
 -2.73443E+03  1.64817E+03 -1.01902E+03 -1.77093E+03  4.17740E+03  6.69208E+02  3.60552E+02  1.46894E+03
  8.02752E+02  1.42108E+03 -2.83296E+03  4.82736E+03 -6.40669E+03 -2.84181E+03 -7.64159E+03 -6.22816E+03
  9.92030E+02 -7.38013E+03  2.43273E+03 -1.29282E+04  8.01666E+03 -9.52861E+03  5.94489E+03 -6.09141E+03
  1.20415E+04  2.78003E+03 -5.90106E+02  8.06463E+03 -6.22738E+03  5.62142E+03  1.99263E+03  5.60869E+03
 -5.30975E+03  1.32901E+03 -4.71273E+03 -1.00292E+03 -2.88784E+03  7.09300E+02 -3.23287E+03  1.01765E+03
 -1.78051E+02  8.18083E+02 -1.25010E+03 -1.66695E+03 -6.11161E+02 -1.06561E+03 -4.26076E+03 -4.05925E+03
  4.79086E+03 -1.39106E+03  2.17783E+03  1.41886E+03  4.62893E+03 -3.98609E+02 -7.94341E+02  7.34749E+03
 -7.96090E+03  2.26204E+03 -3.40253E+03  2.54897E+03 -8.19073E+03  1.09363E+03 -1.13540E+03 -8.50042E+03
 -6.18056E+03 -4.73184E+03 -2.37863E+03  2.46284E+01  4.74639E+03 -5.86780E+03  1.21116E+04  3.98618E+03
  7.50230E+03  2.35647E+02 -3.24430E+03 -2.57170E+03 -1.80210E+03  8.38209E+03 -5.39499E+03  5.51039E+02
 -1.17079E+03  1.19367E+03  5.35177E+02 -3.82343E+03  5.10466E+03  1.51404E+03  8.69151E+02  5.35175E+03
  2.36083E+03  4.16868E+03 -3.07332E+02  6.24277E+02 -8.88720E+03  1.14337E+03  7.86693E+02 -4.81132E+03
  7.40994E+03 -5.56914E+03  2.24994E+03  2.55431E+03 -2.15070E+02  2.67045E+03  9.17330E+03  3.94702E+03
  1.26327E+03  8.15565E+03 -3.12900E+03  1.98777E+03 -3.48476E+03  6.83940E+02 -8.35857E+02 -5.95508E+03
  8.27959E+02  4.72614E+03  8.05109E+02 -2.17312E+03 -1.51360E+03 -2.53412E+03 -9.07758E+03 -9.28161E+03
 -3.33866E+03 -7.38684E+03 -6.11318E+02 -3.63040E+03  5.39790E+03 -1.28071E+03  2.53629E+03 -4.04567E+03
  5.17619E+03 -5.57822E+03  2.74200E+03  9.71605E+03  1.63617E+03  5.61979E+03 -2.94917E+03  9.01289E+03
