 $NMID ID='MM_0lb_SNR50_19hz_g50_2.RAW', FMTDAT='(8E13.5)'
 TRAMP=1., VOLUME=1. $END
  3.06869E+05  3.40016E+03  3.39269E+05  2.51393E+05  8.19447E+04  3.39323E+05 -1.31789E+05  2.49735E+05
 -1.86704E+05  8.00782E+04 -1.11961E+05 -3.15176E+04  4.92272E+02 -4.57135E+04  4.84155E+04 -5.57791E+01
  3.53449E+04  5.54296E+04 -1.42260E+04  6.99701E+04 -5.69742E+04  6.30059E+04 -8.51441E+04  3.08178E+04
 -7.82692E+04 -1.54248E+04 -5.97502E+04 -5.00183E+04 -1.45359E+04 -7.15124E+04  3.01232E+04 -4.73963E+04
  3.71900E+04  7.17677E+03  1.69685E+04  4.82085E+04 -3.41507E+04  4.71313E+04 -6.75115E+04 -1.98554E+02
 -4.98800E+04 -6.04561E+04 -4.18289E+03 -7.66077E+04  3.21155E+04 -5.78558E+04  4.24311E+04 -1.60897E+04
  4.26666E+04  7.35871E+03  3.14565E+04  2.01102E+04  1.65416E+04  2.62276E+04 -4.36115E+03  2.78833E+04
 -1.89826E+04  1.32546E+04 -1.56690E+04 -6.42059E+03  7.95914E+03 -5.83542E+03  2.11117E+04  1.69192E+04
  8.96823E+03  3.26561E+04 -3.12057E+04  3.05360E+04 -6.22232E+04 -2.00066E+03 -5.33230E+04 -4.38027E+04
 -1.17018E+04 -6.20930E+04  4.12356E+04 -4.49677E+04  5.43560E+04 -4.72470E+01  3.23730E+04  3.17483E+04
 -4.92263E+03  3.14012E+04 -2.76163E+04  1.25750E+04 -2.69556E+04 -6.97538E+03 -1.19849E+04 -9.06181E+03
 -7.77352E+03 -1.57449E+04  1.16383E+03 -2.02816E+04  5.78988E+03 -1.72361E+04  1.46705E+04 -1.51030E+04
  1.22456E+04  4.22836E+03 -5.91261E+03  1.14757E+04 -1.87494E+04 -1.92979E+03 -9.32540E+03 -2.77367E+04
  2.48092E+04 -4.10829E+04  4.71633E+04 -1.65038E+04  3.84135E+04  1.75741E+04  1.27104E+04  4.14873E+04
 -1.23965E+04  3.07218E+04 -2.39483E+04  3.30417E+03 -3.40943E+03 -2.24503E+04  2.08002E+04 -3.30305E+04
  4.07064E+04 -9.36793E+03  2.81587E+04  2.09299E+04  1.35190E+04  4.09454E+04 -1.08200E+04  4.51833E+04
 -2.89569E+04  3.08740E+04 -3.55591E+04  7.51626E+03 -3.98190E+04 -1.38921E+04 -2.41101E+04 -3.59265E+04
  7.27406E+03 -3.25853E+04  2.92106E+04 -1.61368E+04  2.85762E+04  1.01567E+04  6.18342E+03  2.07210E+04
 -1.69054E+04  8.91624E+03 -1.47937E+04 -1.04019E+04  5.92421E+03 -1.20407E+04  1.61822E+04  2.59827E+03
  1.33046E+04  1.98815E+04 -6.70419E+03  1.92494E+04 -2.51049E+04  9.83760E+03 -2.72312E+04 -3.61969E+03
 -1.65151E+04 -1.93242E+04 -9.74495E+03 -1.43139E+04  2.51851E+03 -1.41311E+04  1.44519E+04 -9.62661E+03
  1.96277E+04 -1.27470E+04  2.87637E+04 -5.03619E+01  1.92798E+04  1.80555E+04  7.38601E+03  3.06601E+04
 -1.64254E+04  2.76858E+04 -2.86325E+04  7.98426E+03 -2.05147E+04 -1.15316E+04 -5.95417E+03 -1.28277E+04
 -4.81210E+03 -4.59212E+03  6.08034E+02  7.72652E+03 -9.94578E+03  5.40619E+03 -1.56632E+04 -4.27037E+03
 -8.49203E+03 -1.37438E+04  4.17642E+03 -1.57791E+04  1.08905E+04 -1.40732E+04  1.58265E+04  2.45988E+03
  7.99838E+03  1.17897E+04  1.21073E+03  1.96522E+04 -1.34989E+04  9.22714E+03 -1.35809E+04 -2.93302E+03
 -1.31008E+04 -1.48382E+04 -2.31175E+02 -1.47171E+04  6.79406E+03 -1.69986E+04  1.43188E+04 -6.37060E+03
  1.45349E+04  1.24104E+03  1.19445E+04  3.75885E+03  7.36018E+03  2.36026E+03  7.91012E+03  3.40315E+02
  1.92654E+04  5.96133E+03  1.64059E+04  1.16205E+04  1.19030E+04  1.97239E+04 -3.63630E+03  2.42619E+04
 -1.06994E+04  1.90717E+04 -3.12715E+04  1.54009E+04 -2.69379E+04 -2.53471E+03 -2.22638E+04 -1.03793E+04
 -1.48490E+04 -2.23702E+04  4.17618E+03 -1.81459E+04  1.43258E+04 -1.11794E+04  1.31308E+04  2.20295E+02
  6.36140E+03  1.17302E+04 -1.06298E+04  1.28938E+04 -1.05625E+04  2.22257E+03 -1.30241E+04 -7.11037E+03
 -3.91639E+02 -6.90355E+03  4.99524E+03 -8.32591E+03  6.38968E+03 -1.28322E+03  3.20850E+03  4.19925E+03
 -5.94731E+03  2.47493E+03 -8.55703E+02 -7.12268E+03  1.11850E+02 -1.04874E+04  7.42509E+03 -9.53139E+03
  8.97869E+03 -4.16621E+03  1.16496E+04 -2.61606E+02  1.33081E+04  1.24015E+04  4.62061E+03  1.18665E+04
  2.29558E+03  1.61682E+04 -1.05833E+04  1.14821E+04 -1.05776E+04  3.28029E+03 -1.13453E+04  2.06256E+02
 -7.04080E+03 -7.13897E+03 -2.21741E+03  2.84957E+03 -3.63955E+03  3.57394E+03 -1.80109E+03  4.90204E+03
 -9.84167E+03 -1.55531E+03 -8.96662E+03 -4.40182E+03 -3.21596E+03 -1.16564E+04  2.23693E+03 -5.08533E+03
  6.96880E+03 -5.47469E+03  5.69708E+03  3.37766E+03  3.48533E+03 -6.04193E+02 -9.07024E+03 -4.61247E+02
 -2.39711E+03 -9.53060E+03 -4.82193E+02 -9.52545E+03  3.84331E+03 -8.06650E+03  1.18316E+04 -1.68630E+03
  1.20374E+04  9.62399E+02  1.19062E+04  2.98054E+03  2.85883E+03  6.56554E+03 -5.99903E+03  9.12023E+03
 -6.77598E+03  1.10139E+03 -1.42296E+03  1.34379E+03 -1.28768E+02 -1.16407E+03  6.03493E+03 -2.67692E+03
  5.58442E+03  2.49173E+03  4.65703E+03  1.80438E+03 -7.25365E+03  6.84791E+03 -1.04797E+04  2.72335E+03
 -1.43297E+03 -5.74499E+03 -2.95014E+03 -9.22093E+03  4.61302E+03 -2.08928E+03  9.78378E+02 -8.27682E+02
 -2.12699E+03  5.80143E+03 -3.46795E+03  4.51592E+03 -1.09403E+04  2.75989E+03 -7.11148E+03 -4.14355E+03
 -4.73637E+03 -6.12578E+03 -2.29696E+02 -5.64304E+03  6.22919E+03 -4.64324E+03  6.71832E+03  2.23815E+03
  4.03847E+03  6.57840E+03  2.06412E+03  1.14128E+04 -2.06955E+03  3.59777E+03 -1.94788E+03 -1.82800E+03
 -1.79441E+03 -5.45823E+03 -4.87271E+02 -3.12699E+03 -1.26314E+03 -9.47073E+02  3.55260E+03  2.50104E+03
  5.14194E+03  8.66149E+02  3.27478E+03 -4.45579E+02  6.11623E+02  1.66819E+03 -9.14924E+02 -3.58948E+03
  4.22541E+03 -3.82012E+03  3.21044E+03  1.40133E+03  3.34054E+03  2.00944E+03  1.93442E+03  7.94052E+03
 -1.34458E+02  9.31640E+03 -8.05788E+03  4.58197E+03 -6.01115E+03  1.38744E+03 -5.97263E+03 -7.82462E+03
 -5.92962E+03 -6.34251E+03  6.96037E+02 -3.03880E+03  4.37012E+02 -1.50396E+03  2.90166E+03 -2.30318E+03
  1.60112E+02 -4.70370E+03  1.90484E+03 -5.21019E+02  1.53367E+03 -1.94592E+03  4.07641E+03 -6.62477E+02
  6.64589E+03  2.62893E+02 -2.95952E+02  3.80690E+03  1.13396E+03  2.04217E+03 -4.42584E+03  4.13459E+03
 -7.06523E+03  2.73025E+03 -4.70060E+03 -3.48328E+02  4.93185E+03 -6.73650E+03  3.25899E+03 -4.16186E+03
  5.47015E+03 -2.59806E+03  3.33539E+03  1.87750E+03  5.50750E+03  6.06506E+03 -3.27297E+03  6.29882E+03
 -1.28157E+03  8.10582E+03 -3.02807E+03  4.35398E+03 -1.37193E+03 -5.88829E+03 -1.49078E+03 -3.98858E+03
  1.18306E+03 -7.59199E+02 -2.86070E+03  4.78406E+02 -2.18628E+03  4.69194E+03 -1.47412E+03 -2.33666E+03
  2.22738E+02 -6.29749E+03  6.66657E+02 -3.24558E+03  3.29848E+03 -7.14357E+03  4.66428E+03 -3.33825E+02
  4.76167E+03  6.51663E+03 -1.51870E+03  3.21366E+03 -4.59536E+02  4.60035E+03  1.24728E+03  1.71536E+03
 -4.56787E+03  1.98043E+03 -4.79752E+03 -4.71214E+02  1.90790E+03 -4.63916E+03  1.98824E+03 -4.22089E+03
  6.49647E+03 -1.93847E+03 -3.43429E+02  3.41857E+03  7.92305E+01  1.77413E+03  2.18695E+03  1.94950E+03
  3.22158E+02 -3.00001E+03  3.09677E+03 -1.28369E+03 -1.20724E+03  3.73752E+02 -8.66615E+02 -2.12964E+03
 -2.83770E+03  1.54347E+03 -4.20922E+03  6.63169E+03  5.49774E+02  2.18656E+01 -2.69142E+03 -2.95315E+03
 -9.82207E+02 -4.32133E+03 -3.08625E+02 -3.01631E+03  2.56535E+03 -5.77200E+03  4.44473E+03 -3.26063E+02
  4.24614E+03  2.70234E+03 -4.18043E+02  9.33100E+02 -2.09327E+03 -4.03091E+03  6.03825E+02 -4.41066E+02
 -3.07274E+03 -1.47063E+03  3.81181E+03  3.73525E+03 -2.22737E+03  8.83812E+02  5.22202E+03 -3.27748E+03
  3.25218E+03  1.23817E+03  5.75410E+02  2.48937E+03 -1.30061E+03 -4.70367E+02  1.94944E+03 -2.53064E+03
  1.28268E+03  4.15657E+03  2.15562E+03 -4.36671E+03  4.59524E+01  5.57408E+03 -1.44905E+02  2.58521E+03
 -2.33009E+03  1.62842E+03 -1.43521E+03  2.34977E+03 -9.46055E+02 -1.52618E+03  9.43875E+02 -2.02639E+03
  1.85116E+03 -1.43514E+03  3.19481E+03 -1.09440E+03  2.08327E+03 -2.30949E+03  2.05071E+02  1.14634E+03
 -3.59622E+03  1.97361E+03 -9.08545E+02 -2.26909E+03  1.18679E+03 -1.70705E+03 -3.66608E+02  3.18534E+03
 -1.46204E+03  3.95788E+03  1.50366E+03  3.33419E+03 -2.65266E+03 -2.09206E+02 -1.32897E+03  1.67374E+03
 -3.02337E+03 -7.66123E+02 -1.07574E+03 -2.50391E+03  1.98830E+03  1.51489E+03  1.41097E+03 -4.46309E+03
 -6.89259E+02  3.76843E+03 -4.94610E+02  1.43479E+03 -2.99857E+02  2.14735E+03 -2.20540E+03  1.65799E+03
 -9.87914E+02  2.50000E+03 -7.46175E+03  1.51608E+02 -1.21063E+03 -2.88842E+02  5.09079E+02  3.01355E+03
  3.36879E+02 -3.93972E+03  1.56833E+03  2.30261E+03  2.02866E+03  7.85896E+02  2.15093E+03  2.11262E+03
 -2.94158E+03  2.96836E+03 -2.68788E+03 -1.42898E+03 -1.92343E+03 -1.76163E+03  6.78471E+02  1.45464E+03
 -1.26531E+02 -1.97490E+03  1.17151E+02  2.90715E+03 -5.19144E+03  4.82947E+03 -1.41752E+03 -3.06242E+03
 -9.50116E+00  5.65599E+02  7.31450E+02 -6.31677E+03  1.43851E+03 -8.78781E+02  1.90269E+03  1.28410E+03
  5.84100E+03  2.52033E+03 -2.19781E+03  2.01606E+03 -1.37807E+03  7.29512E+03 -1.32139E+03  2.09381E+03
 -9.56820E+01  4.18615E+03  1.93772E+03 -1.68505E+03  5.87979E+02 -2.90010E+01 -7.37036E+03 -3.99740E+02
 -2.59869E+03 -1.36803E+03 -1.57984E+03 -6.47773E+03  6.53471E+02 -5.56221E+03 -2.60687E+03 -2.01494E+02
  3.02250E+03  3.63589E+03 -4.43022E+02 -1.30083E+02  4.85857E+03  3.11862E+03 -1.48345E+03  2.32719E+03
 -1.87466E+03  2.37382E+03 -3.15312E+03  4.85263E+02 -5.38368E+03 -2.83827E+03 -3.14651E+03 -2.29850E+03
 -3.04807E+03 -8.31663E+02  1.50336E+02 -4.93384E+03  1.49664E+03  8.00970E+01  7.69345E+02 -6.12272E+02
  9.11291E+02  2.99713E+03 -5.61155E+03  2.44147E+03  3.07860E+03 -7.45878E+02  9.32779E+02  3.50921E+03
  5.59846E+03  2.07498E+03 -4.92850E+03  1.38518E+03 -8.37533E+02 -7.83133E+03 -2.62018E+03  2.97660E+03
 -1.49240E+03  1.79885E+03 -4.08082E+03  2.29958E+03 -1.77323E+03 -1.52912E+03 -1.49608E+03 -1.07689E+03
  2.39807E+03 -1.56150E+03  2.49826E+03  9.07585E+02 -2.86399E+03  1.65806E+03 -2.97035E+03  1.11397E+03
  1.31515E+03  1.09041E+03 -6.13076E+02 -5.74792E+03 -1.08648E+03  3.00784E+03  3.35594E+03  2.81834E+03
  2.69221E+03 -5.22634E+02  1.29676E+03  6.29970E+03  2.35280E+02  1.40270E+03 -3.44333E+03 -1.72705E+03
  8.07592E+02  3.75701E+03  1.38324E+03  3.21074E+03  2.10468E+03 -4.79591E+03  1.75657E+03 -3.58830E+03
 -1.94413E+03 -2.44141E+03  2.32851E+03 -1.28378E+03  4.07634E+03 -8.98995E+02  2.19922E+03  3.98926E+03
