 $NMID ID='MM_0lb_SNR50_9hz_g55_41.RAW', FMTDAT='(8E13.5)'
 TRAMP=1., VOLUME=1. $END
  3.06984E+05 -5.50351E+03  3.36853E+05  2.51798E+05  8.52723E+04  3.37185E+05 -1.22923E+05  2.50351E+05
 -1.95137E+05  7.65837E+04 -1.18470E+05 -2.71570E+04 -5.04761E+03 -5.47194E+04  5.86549E+04 -1.91846E+03
  2.97911E+04  5.69514E+04 -8.75528E+03  7.41334E+04 -6.34343E+04  6.24097E+04 -8.63731E+04  3.90214E+04
 -8.52623E+04 -1.77126E+04 -5.40203E+04 -5.22780E+04 -2.28164E+04 -6.74960E+04  2.83028E+04 -4.03242E+04
  5.23330E+04  8.45012E+02  1.71241E+04  4.99613E+04 -3.09542E+04  5.33787E+04 -6.58603E+04 -2.04174E+03
 -5.84722E+04 -4.92704E+04 -1.45938E+04 -8.44419E+04  3.11549E+04 -5.67996E+04  5.09318E+04 -1.74538E+04
  4.58632E+04  1.43796E+04  2.89918E+04  3.12658E+04  1.27565E+04  3.51703E+04 -5.90170E+03  3.13747E+04
 -2.28605E+04  1.54235E+04 -2.05189E+04 -1.14140E+04  6.16298E+03 -1.23148E+04  2.51843E+04  2.32593E+04
  8.12685E+02  4.89311E+04 -2.81338E+04  4.40388E+04 -5.52209E+04 -1.03604E+03 -6.36452E+04 -3.50572E+04
 -1.26387E+04 -6.93444E+04  4.27660E+04 -4.61409E+04  6.00604E+04  1.53092E+03  3.25242E+04  3.49797E+04
 -4.89547E+03  4.01559E+04 -2.84885E+04  1.94016E+04 -2.70013E+04 -2.97023E+03 -1.14257E+04 -1.08001E+04
 -7.32771E+03 -1.74039E+04 -4.43644E+02 -1.71312E+04  7.92073E+03 -2.50767E+04  1.66614E+04 -9.81147E+03
  5.93938E+03  7.54233E+03 -1.87183E+04  1.50086E+04 -2.34859E+04 -8.33708E+03 -5.64930E+03 -3.48915E+04
  2.41147E+04 -4.33496E+04  4.81179E+04 -1.89561E+04  4.56653E+04  2.27747E+04  1.53277E+04  4.98355E+04
 -1.11934E+04  3.28879E+04 -2.97269E+04  7.07513E+03 -1.70085E+04 -3.05602E+04  2.17811E+04 -3.65450E+04
  4.04533E+04 -9.08396E+03  3.64922E+04  2.65895E+04  2.62942E+04  4.72099E+04 -1.04053E+04  5.42517E+04
 -4.04419E+04  4.09312E+04 -4.39488E+04  1.24096E+04 -4.89437E+04 -2.24970E+04 -3.34370E+04 -4.46965E+04
  8.51062E+03 -4.46049E+04  3.28743E+04 -1.40629E+04  2.86768E+04  4.76237E+03  4.23846E+03  1.47643E+04
 -1.44958E+04  5.62606E+03 -1.11207E+04 -4.76351E+03  9.49057E+03 -1.00902E+04  1.98671E+04  8.59403E+03
  1.54085E+04  1.83552E+04 -8.34863E+03  3.52226E+04 -1.32182E+04  2.05237E+04 -2.78375E+04 -1.64671E+03
 -2.96705E+04 -2.10711E+04 -1.10969E+04 -1.84998E+04  5.13535E+03 -2.31235E+04  1.79797E+04 -2.15191E+04
  3.03910E+04 -1.51293E+04  4.46692E+04  7.15341E+03  2.33524E+04  2.25452E+04 -6.91977E+02  3.86187E+04
 -2.14267E+04  2.96012E+04 -3.51028E+04  1.26015E+04 -2.37556E+04 -9.88606E+03 -4.81018E+03 -1.04272E+04
  4.81439E+03 -2.06083E+03 -4.60086E+03  9.99306E+03 -1.82914E+04  4.72657E+03 -1.59751E+04 -1.92619E+03
 -1.49740E+04 -2.50143E+04  8.29060E+03 -3.05796E+04  2.00416E+04 -2.43289E+04  2.54967E+04  3.24871E+03
  1.62142E+04  1.23196E+04  2.34618E+03  3.39183E+04 -2.25213E+04  1.60236E+04 -2.86851E+04 -4.82065E+02
 -2.19992E+04 -1.89004E+04  6.44057E+02 -2.99872E+04  9.73730E+03 -2.00026E+04  2.14399E+04 -9.88349E+03
  2.23888E+04 -7.03521E+03  1.70502E+04  3.40287E+03  1.23186E+04 -2.30492E+03  6.73727E+03 -9.25003E+03
  2.74871E+04  5.54661E+03  2.04976E+04  1.73354E+04  2.03000E+04  3.58951E+04 -7.28974E+03  4.54012E+04
 -2.76318E+04  3.82694E+04 -3.83867E+04  1.65783E+04 -4.35775E+04 -4.66195E+03 -3.98147E+04 -2.73730E+04
 -1.13228E+04 -3.40797E+04  5.64301E+03 -3.34424E+04  3.47561E+04 -2.18596E+04  2.68170E+04  8.99043E+03
  3.89760E+03  1.24600E+04 -1.01838E+04  2.21541E+04 -1.71051E+04  3.94489E+03 -1.90484E+04 -9.72732E+03
  3.37842E+03 -1.96556E+04  9.12266E+02 -1.54706E+04  1.73029E+04  1.77474E+03  2.48092E+03  8.93021E+03
 -1.19439E+04  9.74001E+02 -6.81969E+03 -6.37916E+03 -7.63826E+02 -1.77800E+04  1.17928E+04 -1.91565E+04
  2.91404E+04 -1.08755E+04  2.55147E+04  3.87515E+03  2.68822E+04  2.04301E+04  7.84907E+03  3.37210E+04
 -8.21955E+03  2.47727E+04 -1.99111E+04  2.33832E+04 -2.48608E+04  2.82473E+03 -1.81959E+04 -5.12760E+03
 -6.30480E+03 -9.28485E+02  1.48587E+03  1.31935E+03 -4.31571E+03  6.61695E+03 -1.11509E+04  4.81603E+03
 -1.64102E+04 -1.09385E+03 -1.36524E+04 -1.22074E+04 -3.69356E+03 -1.86794E+04  8.18096E+03 -1.73855E+04
  1.26978E+04 -1.31346E+04  1.01668E+04  4.82868E+03 -1.63742E+03  4.15140E+03 -1.66023E+03  5.99284E+03
 -7.00993E+03 -7.77227E+03 -3.77705E+03 -2.00055E+04  4.49133E+03 -9.62646E+03  1.90921E+04 -8.98456E+03
  2.95741E+04  4.08445E+03  1.44147E+04  1.74418E+04  4.25394E+03  1.84825E+04 -1.37014E+04  1.09528E+04
 -1.39445E+04  4.99400E+03 -5.63232E+03 -6.72308E+03  5.30387E+02 -1.01832E+04  8.95183E+03 -4.93567E+02
  6.29893E+03  5.50636E+03 -3.83044E+03  1.14233E+04 -3.36167E+02  1.10462E+04 -1.64254E+04  1.19640E+03
 -8.77152E+03 -1.36175E+04 -4.70931E+03 -1.10666E+04  1.38083E+04 -8.37352E+03  8.84015E+03  2.11413E+03
  1.85644E+03  6.25259E+03 -4.31513E+03  1.19204E+04 -1.30735E+04 -3.41376E+02 -2.45901E+04 -1.87084E+03
 -5.97551E+03 -1.90350E+04 -1.78709E+03 -1.59868E+04  1.53529E+04 -1.13857E+04  1.89927E+04  5.94256E+03
  5.99738E+03  5.93266E+03 -3.54730E+03  1.48086E+04 -1.72349E+04  1.53536E+04 -1.32825E+04 -3.80994E+03
 -1.45855E+04 -8.91133E+03 -1.26896E+03 -1.39235E+04  7.19364E+03 -7.20539E+03  4.48324E+03 -8.51681E+03
  9.72092E+03 -1.73319E+02  5.01145E+03  6.18214E+03 -1.49330E+03 -6.34494E+01  6.28632E+03 -8.43376E+03
  8.90467E+03 -2.02177E+03  1.51643E+04  3.89711E+03  2.02793E+04  1.46509E+04  1.18669E+04  2.26476E+04
 -5.06596E+03  2.32677E+04 -1.36537E+04  2.16633E+04 -2.09962E+04  7.78230E+02 -2.60707E+04 -1.03010E+04
 -1.44226E+04 -1.75130E+04 -1.39669E+03 -2.03406E+04  6.59267E+03 -1.20276E+04  1.06527E+04 -6.59709E+03
  4.86118E+03 -2.43165E+03  2.92641E+03 -6.44992E+03  1.54507E+03 -5.23684E+03  1.04973E+04  9.34499E+02
  1.19468E+04  1.41812E+03  6.82830E+03  5.71142E+03 -4.02085E+03  1.49962E+04 -6.29632E+03  8.58410E+03
 -1.77939E+04 -1.41769E+03 -1.48921E+04 -1.38861E+04 -1.75957E+02 -7.24786E+03  1.18134E+04 -1.29809E+04
  1.55378E+04 -6.40024E+03  2.45273E+04 -8.68688E+02  1.66185E+04  1.25563E+04  3.19207E+03  2.20553E+04
 -8.33804E+03  1.74012E+04 -1.57787E+04  6.53653E+03 -1.43468E+04 -2.90433E+02  2.09446E+02 -7.39525E+03
 -1.65858E+03 -6.07290E+03 -4.53108E+03  1.27380E+03 -1.15749E+03 -2.10069E+03 -6.94358E+03 -7.56763E+03
 -3.78068E+03 -5.75439E+03 -1.36781E+03 -1.16631E+04  2.38829E+03 -1.44254E+04  1.56997E+04  1.79252E+02
  1.82925E+04  7.25524E+03  8.04842E+03  1.31224E+04  4.09443E+03  1.37385E+04 -9.03461E+03  6.04648E+03
 -1.58809E+04 -1.32182E+03 -6.09655E+03 -8.72314E+03 -9.87413E+02 -1.18240E+04  7.62728E+03 -1.16678E+04
  1.02275E+04 -1.95395E+03  9.24521E+03  3.65699E+03  8.30989E+03  4.35733E+03  6.66140E+02  4.88307E+03
  7.82134E+02 -2.19395E+03  1.29769E+04  5.33438E+03  7.52489E+03  4.10057E+03  9.53015E+02  8.88076E+03
 -1.29215E+03  1.10361E+04 -1.11724E+04  6.10917E+03 -1.93715E+04  3.98638E+03 -1.82486E+04 -8.97483E+03
 -6.77039E+03 -1.78159E+04  3.21431E+03 -1.95682E+04  7.74145E+03 -9.96014E+03  1.65138E+04 -2.98553E+03
  1.25744E+04  1.33780E+04 -2.13771E+03  6.76060E+03 -2.77692E+03  1.08313E+04 -8.98669E+03  1.13258E+03
 -4.19315E+03 -8.29456E+03  3.93079E+03 -1.18596E+02 -8.96728E+01  4.52663E+03  9.05795E+03  6.90029E+02
  4.93655E+03  7.43133E+02 -2.45897E+03  2.82931E+02  4.04050E+03  2.15443E+03  1.00968E+03  4.98155E+03
  3.82971E+03 -3.85805E+03  2.19070E+03 -2.99812E+03  2.24149E+03  1.13579E+04  8.03782E+02  2.00253E+04
 -2.00843E+03  1.10439E+04 -8.03830E+03  3.29066E+03 -1.08458E+04  9.25230E+00 -8.93773E+03 -5.49710E+03
  3.37991E+03 -7.97124E+03  6.32612E+01 -1.70699E+03  1.93039E+03  4.90990E+03  2.69468E+03  7.71526E+03
 -3.12588E+03  4.08303E+03 -1.18445E+04 -7.50505E+03 -6.93376E+03 -1.03061E+04 -1.43831E+02 -9.25823E+03
  1.16074E+04 -1.26995E+03  2.17544E+03  2.00119E+03  5.56796E+03 -3.46495E+02 -1.80952E+03  5.59912E+03
 -3.36830E+03 -1.24465E+03 -4.93746E+03 -1.75554E+03  3.15423E+03 -1.33627E+04  3.25370E+03 -3.18128E+03
  5.54271E+03  3.29272E+03  6.75978E+03  5.47436E+03  1.44911E+03  8.76899E+03 -5.92722E+02  1.17676E+04
 -1.49365E+04  4.81836E+03 -8.17058E+03 -4.53899E+03 -6.90618E+03 -7.55715E+03  3.31859E+03 -8.79346E+03
  8.03978E+02 -3.98963E+03  5.18346E+03 -6.05847E+02  1.17472E+03  4.95435E+03  6.01056E+02  1.85861E+03
  1.74976E+03  2.76271E+03 -6.91020E+03  5.77633E+03 -7.32002E+02  1.45538E+02 -1.34619E+03  5.71776E+03
 -2.93530E+03  2.50082E+03 -8.22936E+03  6.13476E+03 -9.60076E+03  5.04055E+03 -1.07618E+04 -5.20224E+03
 -7.47765E+03 -1.08722E+04  2.30947E+03 -1.51928E+04  1.20340E+04 -1.60160E+04  1.87461E+04 -5.64299E+03
  1.57418E+04  2.12823E+03  7.64359E+03  1.55621E+04  1.55506E+03  1.24183E+04 -3.38668E+03  7.40198E+03
 -7.22205E+03 -3.95906E+03 -1.13116E+03 -1.17395E+03 -1.68622E+03 -2.30094E+03  3.28960E+03  5.29442E+03
 -9.49467E+03  1.28459E+03  1.27862E+03  1.86172E+03  3.97033E+03  1.99016E+03  3.55688E+03 -4.14185E+03
  5.13602E+03 -2.13319E+03  7.84314E+03  2.80105E+03  2.74755E+03  4.16947E+03  2.04258E+03  9.94616E+03
 -7.06021E+03  1.24724E+04 -1.70902E+04  8.89240E+03 -1.17446E+04  1.52111E+03 -1.18610E+04 -1.12674E+04
 -5.32169E+03 -1.37585E+04  2.88058E+03 -1.12051E+04  4.82819E+03 -8.88521E+03  2.06352E+03 -3.00441E+03
  7.57265E+03  8.24840E+03 -5.06802E+03  5.35352E+03  4.51729E+03  6.25521E+02 -5.77608E+03 -6.02033E+03
  3.43631E+03  5.22434E+03  6.76644E+03 -9.68882E+02  4.36705E+03  7.48512E+03 -2.62029E+03  5.00183E+03
 -3.99220E+03  6.30272E+03 -7.65373E+03  1.41234E+03 -2.36325E+03 -6.67909E+03 -5.43653E+03 -3.50781E+03
  1.63903E+03 -5.98114E+03  2.08387E+03  1.82882E+03  7.43409E+03  3.88881E+02  3.34217E+02  7.21790E+03
  7.40164E+03  4.59822E+03 -4.03275E+03  3.14099E+03 -7.32002E+03  5.35923E+03 -5.49002E+03  6.21352E+03
 -4.84641E+03 -1.39304E+03  1.41782E+02  4.63271E+03 -1.22028E+04  9.38389E+03 -7.66166E+03 -1.24911E+03
 -1.82802E+03 -6.20645E+03 -2.29856E+03 -1.14973E+04  6.83631E+03 -5.40584E+03  7.56372E+03 -2.75798E+03
  5.26012E+03  2.61735E+03  2.59525E+03  8.13456E+03 -2.60802E+03  1.50412E+04 -3.08354E+03  5.15398E+03
