 $NMID ID='MM_0lb_SNR50_9hz_g40_87.RAW', FMTDAT='(8E13.5)'
 TRAMP=1., VOLUME=1. $END
  3.06394E+05  4.98254E+03  3.35109E+05  2.59621E+05  7.58511E+04  3.35651E+05 -1.34633E+05  2.52622E+05
 -1.96094E+05  8.32965E+04 -1.11319E+05 -3.17478E+04 -9.83218E+02 -4.92296E+04  5.03401E+04  2.77949E+03
  3.91650E+04  5.18561E+04 -1.68844E+04  7.89365E+04 -6.53312E+04  6.16344E+04 -8.47582E+04  3.20738E+04
 -7.95984E+04 -8.88879E+03 -5.94313E+04 -5.44952E+04 -2.42757E+04 -7.28345E+04  3.28741E+04 -4.85402E+04
  3.85497E+04  5.59394E+03  1.54438E+04  4.34011E+04 -3.24503E+04  4.46294E+04 -6.87489E+04 -1.02049E+03
 -4.97268E+04 -5.88194E+04 -1.27015E+03 -8.13616E+04  4.02197E+04 -5.68793E+04  5.08938E+04 -1.64657E+04
  4.66846E+04  7.82606E+03  3.02452E+04  2.34618E+04  1.19551E+04  2.91573E+04 -8.12511E+03  2.66112E+04
 -2.14523E+04  1.08827E+04 -1.69494E+04 -1.03190E+03  8.53587E+03 -1.13177E+04  2.29372E+04  1.40722E+04
  4.38526E+03  3.65994E+04 -2.53841E+04  3.00946E+04 -6.51185E+04  9.58706E+03 -5.56202E+04 -5.05018E+04
 -1.39770E+04 -6.61758E+04  3.87706E+04 -4.53353E+04  6.30164E+04 -1.76442E+03  4.10260E+04  3.55385E+04
 -9.48387E+03  3.54507E+04 -3.89272E+04  1.45753E+04 -3.46787E+04  2.97721E+03 -1.21252E+04 -9.90106E+03
 -6.37421E+03 -1.30543E+04 -1.15789E+03 -1.94035E+04  8.03960E+03 -2.61592E+04  1.45225E+04 -1.29112E+04
  1.68993E+04  9.69094E+03 -1.33649E+04  1.31369E+04 -3.00402E+04 -4.92900E+03 -6.70278E+03 -4.56689E+04
  2.64775E+04 -4.69498E+04  5.33730E+04 -1.78621E+04  4.71918E+04  2.10982E+04  1.94934E+04  4.28887E+04
 -1.88079E+04  3.19817E+04 -3.16881E+04  1.62805E+03 -1.04603E+04 -2.82050E+04  1.92956E+04 -4.10188E+04
  4.52704E+04 -7.36057E+03  3.82154E+04  2.31037E+04  2.18038E+04  5.11818E+04 -8.39930E+03  5.83910E+04
 -3.48541E+04  3.74338E+04 -4.53867E+04  1.00728E+04 -4.06334E+04 -1.60295E+04 -3.04505E+04 -4.55997E+04
  1.30581E+04 -3.98785E+04  3.93076E+04 -1.80463E+04  2.73777E+04  1.83528E+04  1.06902E+04  2.09862E+04
 -1.80340E+04  3.66815E+03 -1.64940E+04 -5.50059E+03  8.39481E+03 -1.25189E+04  1.97176E+04  5.40964E+03
  1.72739E+04  1.89512E+04 -5.82470E+03  2.74893E+04 -1.79535E+04  1.82980E+04 -3.63689E+04 -3.84680E+03
 -2.49284E+04 -1.27738E+04 -9.43177E+03 -2.66819E+04  8.98016E+03 -2.45991E+04  2.21973E+04 -2.13965E+04
  2.92208E+04 -1.76563E+04  3.70452E+04  6.53626E+03  2.57112E+04  2.60000E+04  4.72964E+03  4.35580E+04
 -2.50663E+04  3.46227E+04 -2.45751E+04  8.72016E+03 -2.14089E+04 -1.27341E+04  3.78020E+01 -1.24508E+04
  4.03849E+03 -4.11516E+03 -1.12744E+04  4.48267E+03 -1.64842E+04  8.14560E+03 -2.22962E+04 -9.21138E+03
 -1.12674E+04 -1.46397E+04  1.06943E+04 -2.28357E+04  1.72651E+04 -1.60899E+04  2.03955E+04  1.23478E+03
  1.90904E+04  1.59820E+04 -1.22046E+03  1.51830E+04 -1.50368E+04  9.68943E+03 -2.18521E+04 -5.69971E+03
 -1.44682E+04 -2.32415E+04  1.46290E+03 -2.68743E+04  6.79012E+03 -2.38314E+04  1.71917E+04 -1.39483E+04
  1.85799E+04 -2.57057E+03  2.26498E+04  8.01501E+03  6.48504E+03 -7.36255E+01  1.29572E+04 -6.71226E+03
  2.48946E+04  4.39775E+03  2.47972E+04  2.73492E+04  1.73634E+04  3.74145E+04 -3.17060E+03  4.51032E+04
 -2.20651E+04  3.73959E+04 -3.98935E+04  1.98831E+04 -3.39341E+04 -5.02437E+03 -3.26299E+04 -1.91705E+04
 -1.63543E+04 -3.12810E+04  1.04432E+04 -2.78197E+04  2.28915E+04 -1.33730E+04  1.87143E+04  9.54910E+02
  2.79551E+03  1.82335E+04 -3.99082E+03  1.39625E+04 -1.73736E+04 -1.07915E+03 -1.60491E+04 -1.75995E+04
 -7.39570E+01 -2.07195E+04  1.17905E+04 -1.03110E+04  6.60206E+03  4.81697E+02  3.90993E+03  1.11240E+04
 -7.10733E+03 -6.03106E+00 -4.93123E+03 -1.84444E+03 -2.16357E+03 -1.57765E+04  1.17162E+04 -1.74376E+04
  2.48417E+04 -8.71913E+03  2.09724E+04  6.13253E+03  2.21233E+04  1.45130E+04  1.63721E+03  2.98707E+04
 -3.80820E+03  3.50240E+04 -1.30399E+04  1.94946E+04 -2.49634E+04  1.34453E+03 -1.62439E+04 -4.71139E+03
 -1.32456E+04 -6.38880E+03  3.63236E+02  8.73472E+02 -8.09918E+03  4.66718E+03 -1.18227E+04  1.82633E+03
 -1.52445E+04  6.95510E+01 -8.72776E+03 -1.24499E+04 -4.43566E+03 -1.67184E+04  8.70359E+03 -1.61412E+04
  1.39593E+04  1.10501E+03  1.22972E+04  2.22217E+03  3.59483E+03  2.97648E+03 -1.12464E+04  1.14115E+03
 -5.71271E+03 -8.87350E+03  5.16371E+03 -1.47611E+04  6.01451E+03 -1.42910E+04  1.74597E+04 -9.68455E+03
  2.62109E+04 -2.38525E+02  1.82635E+04  1.75330E+04  4.22636E+03  2.19732E+04 -8.81897E+03  1.65222E+04
 -1.16657E+04  9.04266E+03 -7.67166E+03 -3.39501E+03  2.85686E+02  4.93587E+02  5.04251E+02  1.29422E+03
  6.24378E+03  1.00672E+04 -1.95807E+03  1.22550E+04 -9.82725E+03  1.39056E+04 -1.70397E+04  1.70122E+03
 -5.03260E+03 -4.85340E+03 -4.23549E+03 -1.07700E+04  1.11612E+04 -2.06288E+03  1.32246E+04  6.33479E+03
  4.26165E+03  7.59103E+03 -1.38348E+04  1.44739E+04 -1.00710E+04  6.95112E+03 -1.38664E+04 -8.63781E+03
 -6.60543E+03 -1.61900E+04  4.03134E+03 -2.01599E+04  8.47919E+03 -1.24063E+04  1.44651E+04 -1.22866E+03
  8.87630E+03  1.12562E+04 -1.08015E+03  1.75658E+04 -1.09343E+04  3.39327E+03 -1.83030E+04 -3.59418E+02
 -1.33426E+04 -5.11354E+03 -2.79954E+03 -9.16151E+03  9.90690E+03 -4.05402E+03  4.45439E+03 -1.29688E+04
  2.44369E+03  4.76567E+03 -6.43114E+03  4.89516E+03  1.06841E+03 -4.84053E+03  2.09722E+03 -7.78093E+03
  1.14412E+04 -1.04654E+04  1.39724E+04  8.90347E+02  1.51419E+04  1.06984E+04  5.86773E+03  2.04115E+04
 -7.38066E+03  2.35423E+04 -1.98159E+04  1.45983E+04 -2.49179E+04  4.05357E+03 -1.51846E+04 -3.03665E+02
 -1.16082E+04 -1.22277E+04  3.51449E+03 -1.25861E+04  6.99442E+03 -4.33298E+03  5.61732E+01 -1.31156E+04
  4.19410E+03 -1.10158E+04  1.75422E+03 -3.59098E+02  2.67697E+03  1.51682E+03  2.72556E+03 -2.31338E+03
  5.33974E+03  5.50298E+03  6.91239E+03 -1.38718E+03 -3.67407E+03  6.92479E+03 -9.20286E+03  5.23889E+03
 -9.56553E+03 -3.10089E+02 -1.26657E+04 -4.38336E+03 -3.62479E+03 -1.50535E+04  5.98643E+03 -1.68500E+04
  1.76748E+04 -8.05340E+03  2.02390E+04  1.93006E+03  9.66662E+03  1.19470E+04  5.92209E+03  1.73791E+04
 -1.17196E+04  1.14180E+04 -5.70985E+03  5.54858E+03 -1.04198E+04  6.02795E+02 -6.77786E+03 -2.62888E+03
 -9.63838E+02  3.48932E+03  3.77796E+03  1.76291E+03 -5.53211E+03  4.15620E+03 -1.42531E+04 -9.90810E+02
 -8.94969E+03 -7.19935E+03 -9.35335E+02 -1.14967E+04  3.97410E+03 -7.36120E+03  1.16990E+04 -5.07416E+03
  1.51817E+04  6.45829E+03  5.61794E+03  1.41940E+04 -5.13271E+03  1.83059E+04 -6.73497E+03  1.04000E+04
 -1.13477E+04 -8.56210E+02 -1.07802E+04 -1.40445E+03 -3.14994E+02 -1.44185E+04  6.81788E+03 -1.45916E+04
  1.01734E+04  1.00171E+03  5.92693E+03  3.61606E+03  1.45980E+03  3.34790E+03  5.18027E+02 -8.39763E+02
  6.41511E+03  1.15121E+04  7.54101E+03 -2.07850E+03  4.83706E+03  2.25600E+03  1.84394E+03  8.58945E+02
  1.98289E+03  8.43441E+03 -8.13680E+03  7.08858E+03 -1.76843E+04  2.21998E+03 -1.03484E+04 -7.53073E+03
 -7.79477E+03 -2.15566E+04  9.70969E+03 -1.56157E+04  6.88382E+03 -1.42221E+04  1.05578E+04 -9.20132E+03
  8.58116E+03  6.35581E+03  4.23854E+03  1.19171E+04 -4.47306E+03  1.02291E+04 -1.03430E+04 -1.04526E+03
 -7.83640E+03 -6.03397E+03  3.43140E+03 -4.60248E+03  4.19108E+03 -9.20454E+03  5.94498E+03  6.80478E+03
 -5.47995E+02 -3.86783E+03 -4.59513E+01  9.00588E+03  7.38204E+02  2.42940E+03  7.87254E+03  5.86499E+03
 -2.26763E+02  3.42106E+02  5.14143E+03  2.43777E+03  9.13831E+03  1.12605E+04  2.68411E+03  1.14369E+04
 -1.17698E+04  5.67158E+03 -9.50270E+03  1.30571E+03 -2.98154E+03  2.73272E+02 -6.69393E+03 -4.34273E+03
 -1.60936E+03 -9.11610E+03  7.66701E+03 -6.87430E+02  6.22024E+01  1.55703E+03  1.56344E+03 -6.43178E+02
 -7.01960E+03  7.65271E+03 -7.09397E+03 -5.56744E+03 -7.42629E+03 -5.34348E+03  3.31147E+03 -2.81525E+03
  3.45247E+03 -6.92113E+03  1.16677E+04  6.92012E+02  3.08582E+03  2.47980E+03  7.69718E+03 -2.48514E+03
 -7.19400E+03 -4.89295E+02 -5.27215E+03  6.48046E+03  2.02746E+03 -2.64762E+03  5.48585E+03 -8.29021E+03
  8.78828E+03 -4.12219E+02  1.02847E+04  6.23115E+03  3.01161E+03  1.06092E+04 -2.38947E+03  1.15044E+04
 -1.26670E+04  5.70608E+03 -5.17705E+03  3.77017E+03 -2.30921E+03 -1.34934E+04  2.78696E+03 -2.26106E+03
  5.59724E+03 -1.33809E+03  3.83919E+03 -3.00740E+02  2.61797E+03  1.20328E+03 -1.56632E+03  4.74857E+03
 -8.38398E+03  5.38547E+03  1.23029E+03  8.55687E+02  2.94794E+03 -2.71201E+03 -1.66079E+03  6.29676E+03
 -7.37234E+03  3.35744E+03 -3.24822E+03 -2.68350E+03 -6.23032E+03  1.01430E+03 -8.86150E+03 -7.84069E+03
  8.23649E+02 -1.56107E+04  7.23603E+03 -1.86436E+04  1.74565E+03 -1.49645E+04  1.59890E+04 -3.50197E+03
  1.76501E+04  4.85560E+03  2.24576E+03  2.61733E+03 -7.40354E+02  1.01239E+04 -3.79012E+03  6.04674E+03
 -6.52265E+02  8.18148E+03 -1.52836E+03  1.29699E+03 -3.70027E+03 -4.77796E+03  3.42950E+02 -2.50090E+03
 -4.16893E+03  1.50476E+03  2.83064E+03  3.97619E+02 -1.91380E+03 -5.16053E+03  4.30668E+03 -4.82256E+03
  2.02558E+03  2.54283E+03  7.34914E+03 -1.32222E+03  6.56209E+03  1.43842E+04 -3.47721E+03  8.10448E+03
 -9.00714E+03  8.01645E+03 -5.75448E+03  7.59573E+03 -9.56490E+03 -4.82104E+03 -9.42171E+03 -8.65916E+03
  3.08953E+02 -1.27614E+04  5.46740E+03 -7.45308E+03  5.21885E+03 -3.06905E+03  6.44245E+03 -9.57630E+03
 -3.51956E+03  2.92978E+03 -2.64789E+03  1.95929E+03  6.34796E+01 -1.05896E+03  4.98244E+03 -4.15936E+03
  8.51645E+03  1.60411E+02  5.72784E+03  3.01873E+03  4.41171E+03 -3.02555E+03  1.50341E+02  4.97229E+03
  1.03593E+03  2.26398E+03 -4.14030E+03  7.49575E+03 -7.57114E+03  7.87524E+02  3.80072E+03 -6.06042E+03
  7.58576E+03 -5.60609E+03  4.40879E+03  2.70127E+03  5.01808E+03 -2.13542E+03  4.07670E+02  2.11928E+03
 -1.65399E+03  4.91048E+03 -4.66177E+03  8.62335E+03 -1.60821E+03  4.84129E+03 -7.41363E+03  2.97263E+02
 -1.53237E+03 -4.12029E+03 -5.31516E+03  4.97379E+03 -7.79753E+03  4.41027E+03  2.57281E+02 -1.70986E+03
 -9.68389E+03 -2.19397E+02  3.23049E+03 -4.01099E+03  7.50773E+03 -4.18854E+03  1.13377E+04 -9.04277E+03
  8.99332E+03  4.42245E+03 -2.23742E+03  4.01375E+03 -1.45606E+03  1.10113E+04 -2.04428E+02  1.12422E+04
