 $NMID ID='MM_0lb_SNR50_10hz_g55_61.RAW', FMTDAT='(8E13.5)'
 TRAMP=1., VOLUME=1. $END
  3.13614E+05  4.08745E+02  3.36646E+05  2.53245E+05  8.99520E+04  3.41874E+05 -1.34690E+05  2.50758E+05
 -1.94028E+05  8.94904E+04 -1.19412E+05 -3.69048E+04  6.95309E+01 -4.96810E+04  5.34388E+04  3.27968E+03
  2.74673E+04  4.93033E+04 -1.57223E+04  7.57551E+04 -6.29389E+04  6.82029E+04 -9.22665E+04  3.49860E+04
 -8.52130E+04 -1.25067E+04 -5.49228E+04 -4.80129E+04 -1.53067E+04 -6.21894E+04  3.59629E+04 -4.58296E+04
  3.87135E+04  5.01394E+03  1.55127E+04  4.65257E+04 -3.40303E+04  4.86581E+04 -6.88163E+04 -2.67457E+03
 -5.85946E+04 -5.58783E+04 -9.14968E+03 -7.21663E+04  2.78840E+04 -5.35030E+04  4.78663E+04 -1.84342E+04
  4.78202E+04  5.93071E+03  3.80564E+04  2.59153E+04  1.75765E+04  3.19055E+04 -4.12715E+03  2.60862E+04
 -2.29999E+04  9.54608E+03 -1.64263E+04 -7.44140E+03  1.58670E+03 -6.34928E+03  1.84633E+04  1.08771E+04
  1.33200E+04  4.11381E+04 -3.89051E+04  3.72724E+04 -6.93247E+04  8.99138E+03 -6.25869E+04 -4.31238E+04
 -1.30923E+04 -6.17216E+04  3.93902E+04 -4.88073E+04  6.12699E+04 -5.47496E+02  3.52856E+04  3.29923E+04
  6.44402E+02  3.77804E+04 -2.08961E+04  2.25470E+04 -3.31928E+04 -3.92957E+03 -2.35821E+04 -8.07095E+03
 -1.03682E+04 -1.79810E+04  5.64954E+03 -1.98217E+04  5.30853E+03 -2.66429E+04  1.16586E+04 -1.27186E+04
  9.25130E+03  5.88181E+03 -2.95263E+03  1.29671E+04 -2.63800E+04 -6.27471E+03 -1.00941E+04 -3.49250E+04
  2.92462E+04 -4.45698E+04  4.36836E+04 -1.83467E+04  4.84755E+04  2.04905E+04  1.64999E+04  4.44469E+04
 -1.95095E+04  3.64446E+04 -3.01556E+04  4.50496E+03 -1.16465E+04 -2.94786E+04  1.90203E+04 -3.54053E+04
  4.78401E+04 -5.18871E+03  4.36093E+04  2.24376E+04  1.32783E+04  4.86234E+04 -6.28062E+03  5.72202E+04
 -3.45083E+04  3.76558E+04 -4.69435E+04  1.33282E+04 -4.63767E+04 -1.72136E+04 -2.46399E+04 -4.32503E+04
  4.51345E+03 -4.29916E+04  3.45144E+04 -1.10210E+04  3.28014E+04  8.32041E+03  2.63239E+03  1.64766E+04
 -1.29445E+04  1.11200E+04 -1.09259E+04 -9.89398E+03 -1.28820E+03 -1.20246E+04  1.51030E+04  3.73147E+03
  1.22927E+04  2.97749E+04 -7.00083E+03  2.51178E+04 -2.10211E+04  8.42716E+03 -3.22335E+04 -3.89027E+03
 -2.84694E+04 -1.84018E+04 -8.56670E+03 -2.15088E+04  9.44647E+03 -2.36784E+04  2.00386E+04 -2.11329E+04
  2.94663E+04 -1.23705E+04  3.93392E+04  5.25294E+03  3.02804E+04  2.39745E+04  7.44965E+02  3.59905E+04
 -1.77970E+04  3.22270E+04 -3.25546E+04  1.09891E+04 -2.59332E+04 -8.98991E+03 -8.04649E+03 -1.60949E+04
 -5.50645E+02  4.56701E+03 -5.30987E+03  9.10917E+03 -2.41300E+04  1.06541E+04 -1.65849E+04 -1.42828E+04
 -1.16687E+04 -1.88211E+04  7.21414E+03 -2.23378E+04  1.60848E+04 -1.16087E+04  1.85866E+04 -7.90827E+03
  2.17340E+04  1.84470E+04 -7.91674E+02  1.73695E+04 -1.32854E+04  1.77803E+04 -2.41130E+04 -1.19929E+04
 -1.77239E+04 -1.89618E+04 -2.30780E+02 -3.14794E+04  1.07690E+04 -1.60218E+04  2.14185E+04 -8.05014E+03
  2.13414E+04 -2.97425E+03  2.45526E+04  3.22734E+03  6.32524E+03  4.87214E+03  1.60817E+04 -1.53862E+03
  1.78926E+04  9.65329E+03  2.41841E+04  1.46926E+04  1.89175E+04  3.79452E+04 -4.26889E+03  4.29220E+04
 -2.91881E+04  3.34107E+04 -4.45329E+04  1.20990E+04 -4.42970E+04 -2.75769E+03 -2.81710E+04 -2.58984E+04
 -1.35324E+04 -3.90875E+04  1.44530E+04 -2.93000E+04  2.15632E+04 -1.26880E+04  2.67286E+04  1.12388E+04
  6.06418E+03  1.95871E+04 -1.34118E+04  1.32249E+04 -1.61159E+04  5.84133E+03 -1.58134E+04 -7.89693E+03
  3.62395E+03 -1.20188E+04  1.09897E+04 -1.84982E+04  1.20265E+04 -6.62879E+03  2.57022E+03  2.66532E+03
 -7.97211E+03  3.69686E+02 -7.13063E+03 -3.89065E+03 -2.30109E+03 -1.45431E+04  1.30528E+04 -1.81576E+04
  2.22406E+04 -7.46726E+03  2.55790E+04  8.07711E+03  2.82579E+04  1.49354E+04  1.30825E+04  2.18957E+04
 -3.76566E+03  3.57692E+04 -1.58908E+04  1.64539E+04 -2.55058E+04  4.98134E+03 -1.65513E+04 -1.03391E+04
 -3.90188E+03 -8.85834E+03  2.97534E+03  1.91692E+03 -3.73741E+03  1.75990E+03 -7.00867E+03  1.03539E+04
 -1.17767E+04 -1.19227E+03 -1.82234E+04 -1.33763E+04 -8.04453E+03 -2.27199E+04  9.63906E+03 -1.57222E+04
  1.18962E+04 -1.47136E+04  3.58499E+03  3.62366E+03  3.48552E+02  2.26499E+03 -6.89911E+03 -1.46085E+03
 -8.77117E+03 -7.86772E+03 -1.62368E+03 -1.25634E+04  1.16667E+04 -1.75709E+04  1.88436E+04 -5.18805E+03
  2.46020E+04  5.14237E+03  1.56200E+04  1.27883E+04 -1.17990E+03  1.63540E+04 -1.38648E+04  1.77098E+04
 -1.31597E+04  6.45955E+02 -5.04929E+03 -5.05214E+03 -1.80547E+03 -6.70106E+03  2.30724E+03  2.23360E+02
  8.19114E+03  1.19802E+04  6.47177E+03  9.72372E+03 -6.24221E+03  1.39825E+04 -8.06721E+03 -4.71314E+03
 -1.15766E+04 -1.20030E+04  7.98021E+03 -1.32679E+04  4.43905E+03 -9.75945E+03  7.28423E+03 -1.53972E+03
  4.98902E+03  1.32389E+04 -3.45366E+03  1.28270E+04 -1.82373E+04  3.30665E+03 -1.98178E+04 -4.64661E+03
 -6.88481E+03 -1.49471E+04  9.04791E+03 -1.92628E+04  1.08051E+04 -1.28878E+04  1.76578E+04  6.32018E+01
  6.76073E+03  1.25212E+04  2.63019E+02  1.82174E+04 -1.37332E+04  1.15890E+04 -1.56761E+04 -4.12512E+03
 -1.22298E+04 -9.62043E+03  4.85593E+03 -8.61372E+03  9.32355E+03 -1.23658E+04  7.61476E+03 -8.22627E+03
  7.17384E+03 -6.01323E+02 -4.56970E+03  4.97209E+02 -4.26498E+02 -8.64035E+02  9.34175E+03 -1.08462E+04
  1.26807E+04 -3.29637E+03  1.25471E+04  2.74781E+02  1.64086E+04  1.09522E+04  5.57941E+03  2.44621E+04
 -2.15785E+03  2.69048E+04 -2.06247E+04  1.86435E+04 -2.52907E+04 -6.22758E+03 -1.71665E+04 -8.91289E+03
 -9.03780E+03 -1.51751E+04 -1.35948E+03 -1.51149E+04  7.29839E+03 -6.71395E+03  2.71842E+03 -9.05414E+03
  2.36890E+03 -6.37981E+02  1.59655E+03 -8.04273E+03  7.77690E+03 -7.49119E+02  1.14649E+04  5.37589E+02
  1.04571E+04  4.20644E+03  4.85115E+03  8.86369E+03 -7.16615E+02  1.71747E+04 -7.03684E+03  4.17941E+03
 -1.58059E+04 -4.25044E+03 -7.71705E+03 -1.27861E+04 -3.35321E+02 -1.81679E+04  1.37870E+04 -1.26767E+04
  1.38252E+04 -7.22709E+03  2.31063E+04 -6.14417E+02  1.04195E+04  1.51185E+04  2.76258E+03  1.43256E+04
 -8.03888E+03  1.94892E+04 -9.03900E+03  1.04774E+04 -6.50700E+03 -1.14100E+03 -4.40830E+03 -2.99780E+03
 -5.13679E+03  1.64127E+03 -7.09014E+03 -7.95669E+02 -6.64010E+03  5.21054E+02 -8.09197E+03 -2.06674E+03
 -4.72394E+03 -7.02981E+03 -1.47973E+03 -1.39585E+04  4.43802E+03 -9.71946E+03  9.14669E+03 -8.04914E+03
  1.28974E+04  2.22354E+03  6.98597E+03  1.38780E+04 -2.29923E+03  6.54938E+03 -1.04603E+04  1.14635E+04
 -1.42213E+04 -4.05644E+03 -8.47541E+03 -1.52628E+04  3.01622E+03 -1.30410E+04  4.66997E+03 -1.06837E+04
  8.21826E+03  6.51622E+02  9.42175E+03  4.35698E+03  2.14746E+03  3.77600E+02  5.57097E+03 -9.53955E+02
  3.52361E+03 -1.42875E+03  5.94421E+03  5.31124E+02  1.71963E+03  6.45090E+03 -3.29278E+02  4.02899E+03
 -1.16914E+04  1.36280E+04 -7.51698E+03  8.13498E+03 -1.74904E+04  7.39166E+02 -1.76329E+04 -7.76727E+03
 -8.99302E+03 -1.78017E+04  5.24903E+03 -1.72873E+04  6.75152E+03 -1.75564E+04  1.30745E+04  1.86069E+03
  1.02051E+04  8.18813E+03 -4.50549E+02  6.07337E+03 -6.10680E+03  7.77262E+03 -4.97442E+03 -3.45692E+01
  5.74627E+03 -1.14789E+04  2.83875E+03  4.46114E+03 -1.47370E+03  9.89261E+02  5.68358E+03  4.99757E+03
  9.51436E+02  4.21610E+03  1.76658E+03  1.36466E+03 -5.56377E+02 -3.37355E+03  6.83456E+03 -1.95266E+03
  1.02633E+04 -2.42177E+03  6.87496E+03  3.85701E+03 -5.02137E+02  1.50369E+04 -4.45746E+03  7.22952E+03
 -8.13197E+03  9.49483E+02 -6.41360E+03  4.57210E+03 -1.08191E+04 -1.90909E+03 -2.52152E+03 -5.41760E+03
  3.91319E+03  4.74781E+02 -6.21002E+02 -3.63397E+03  4.55069E+03  3.67813E+03 -7.13236E+03  3.86808E+03
 -4.65822E+03  1.27447E+01 -1.19742E+04 -4.38828E+03 -1.13092E+03 -3.76458E+03  3.37386E+03 -7.96933E+03
  5.57761E+03  1.37732E+03 -4.51907E+02 -3.53758E+02  7.59954E+03  1.20862E+03 -3.25956E+03  7.80427E+01
 -4.70275E+03  9.47238E+02 -5.54718E+03 -5.97094E+03 -6.42795E+02 -7.98262E+03  8.27949E+03 -4.74637E+03
  7.99989E+03 -1.81038E+03  7.62254E+03  7.85563E+03  7.17136E+03  6.53254E+03 -2.46704E+03  7.16883E+03
  1.56321E+03 -5.86581E+02 -8.25558E+03 -5.01105E+03 -5.11681E+03 -7.72101E+03  9.32390E+02 -4.99768E+03
  5.54713E+03  8.48147E+02  7.81434E+03 -9.21829E+02  2.14081E+03  5.84613E+03 -3.57813E+03  4.54915E+03
 -2.62004E+03  5.11589E+03  1.14468E+03  1.29779E+03 -8.36504E+02  2.08791E+03 -1.79347E+03  5.31613E+03
 -3.38355E+03  1.10604E+04 -7.60869E+03  7.02390E+03 -7.01695E+03  3.27256E+03 -1.31700E+04 -3.00468E+03
 -6.89971E+03 -1.34025E+04  6.81179E+03 -1.34656E+04  9.07781E+03 -8.87313E+03  1.23908E+04 -2.12695E+03
  1.20334E+04  2.52993E+03  8.95851E+03  1.09059E+04 -1.89160E+03  1.35888E+04 -2.21471E+03  1.10395E+04
 -1.68112E+03 -1.21219E+03 -6.18822E+03 -3.20201E+03 -6.80361E+03 -3.23573E+03 -3.15636E+03  3.00493E+03
 -8.17535E+02  4.41818E+03 -3.14753E+03 -6.72429E+03 -4.15518E+03 -1.09311E+01  2.42167E+03 -1.16358E+03
  4.46373E+03 -4.12061E+03  3.36936E+03  1.37275E+02  1.12260E+04  5.83312E+03 -8.39931E+02  1.01958E+04
 -4.01369E+03  6.39655E+03 -6.25455E+03  6.46907E+03 -9.58697E+03 -4.13349E+03 -6.27538E+03 -4.50506E+03
 -7.53731E+03 -5.60342E+03 -2.33036E+03 -1.42251E+04  5.14980E+03 -3.53554E+03  4.10171E+03 -2.54926E+02
 -3.87444E+03  3.47844E+03  1.77323E+03  5.92961E+02  2.79885E+02 -1.67780E+03 -4.65916E+03  1.29808E+03
  6.49284E+03 -1.66481E+03  7.30328E+03  8.70308E+02  2.68604E+03  4.17823E+03  7.65170E+02  8.74224E+03
 -5.87711E+03 -3.73466E+03 -6.99454E+03 -1.00800E+03 -8.46013E+03 -4.87166E+03  2.35783E+03 -1.31360E+04
  7.61275E+01 -1.16226E+04 -1.12099E+03  2.74312E+03  4.23618E+03 -2.17831E+03  5.46945E+03  8.30740E+03
 -1.25767E+03  5.08950E+03 -6.82342E+03  2.39137E+03 -2.77388E+03  6.49629E+03 -1.81459E+03  1.67147E+03
 -3.50256E+03  2.17689E+03 -1.49142E+03 -2.75956E+03 -5.56996E+03  2.05170E+03 -4.21133E+03  1.92758E+03
 -1.37362E+04  5.09613E+03 -4.24301E+03 -9.05274E+03 -2.59906E+03 -3.26147E+03  4.56655E+03 -1.84591E+03
  4.89699E+03  3.51614E+03  3.38085E+03 -3.62181E+03  2.71069E+03  5.54881E+03 -9.48850E+03  7.62236E+03
