 $NMID ID='MM_0lb_SNR50_16hz_g60_22.RAW', FMTDAT='(8E13.5)'
 TRAMP=1., VOLUME=1. $END
  3.06477E+05  1.85791E+03  3.40095E+05  2.47141E+05  8.70933E+04  3.38454E+05 -1.27379E+05  2.47221E+05
 -1.88295E+05  8.42568E+04 -1.09837E+05 -2.82953E+04 -9.95679E+02 -4.78557E+04  5.38482E+04  1.77695E+03
  3.64038E+04  5.00150E+04 -1.78198E+04  7.43760E+04 -6.17893E+04  6.49463E+04 -8.50562E+04  3.48170E+04
 -7.85873E+04 -1.43531E+04 -6.00925E+04 -5.10752E+04 -1.03003E+04 -7.11165E+04  3.10098E+04 -4.23308E+04
  3.64129E+04 -4.38623E+02  1.64432E+04  5.24937E+04 -3.68647E+04  4.82556E+04 -6.53193E+04  4.80028E+03
 -5.24708E+04 -6.08550E+04 -4.25267E+03 -7.86725E+04  3.68306E+04 -5.08142E+04  4.87233E+04 -1.77638E+04
  4.55388E+04  1.38776E+04  3.32877E+04  2.90472E+04  1.65720E+04  2.81241E+04 -5.13610E+03  2.91416E+04
 -1.89946E+04  7.87323E+03 -1.96877E+04 -6.12720E+03  4.56451E+03 -9.71355E+03  2.20885E+04  1.55397E+04
  8.30234E+03  3.08116E+04 -3.36798E+04  3.77856E+04 -6.33990E+04 -1.46480E+03 -5.44032E+04 -4.36527E+04
 -1.51456E+04 -6.40340E+04  4.13046E+04 -4.60444E+04  6.22938E+04 -2.38306E+03  3.60098E+04  3.25974E+04
 -1.51296E+03  3.77434E+04 -3.63030E+04  1.34660E+04 -3.02147E+04 -3.88352E+03 -2.16765E+04 -9.05387E+03
 -1.36881E+04 -1.23899E+04 -1.15413E+03 -1.82427E+04  9.89045E+03 -1.99863E+04  1.84331E+04 -1.24737E+04
  7.91641E+03  4.29658E+02 -8.91010E+03  1.50346E+04 -2.43937E+04 -5.76831E+03 -9.53253E+03 -3.62091E+04
  2.92742E+04 -4.40138E+04  4.93500E+04 -2.11464E+04  4.59984E+04  1.80025E+04  1.19368E+04  4.67867E+04
 -2.24626E+04  3.26164E+04 -2.39955E+04  9.17728E+02 -1.03315E+04 -2.70609E+04  2.20552E+04 -3.15140E+04
  4.28282E+04 -1.12257E+04  3.45367E+04  2.56983E+04  1.34831E+04  4.75623E+04 -2.38729E+03  4.88596E+04
 -3.18756E+04  3.08670E+04 -4.12770E+04  8.03634E+03 -4.42540E+04 -1.92054E+04 -2.37385E+04 -4.12648E+04
  5.71331E+03 -3.62505E+04  3.76207E+04 -1.48112E+04  2.78720E+04  7.21222E+03  5.90194E+03  1.69714E+04
 -1.46154E+04  6.83668E+03 -8.28545E+03 -6.26103E+03  6.40322E+03 -9.54635E+03  1.60679E+04  5.95849E+03
  1.17352E+04  2.25365E+04 -6.10443E+03  2.57584E+04 -2.47104E+04  9.25800E+03 -3.03698E+04 -4.59377E+03
 -2.11246E+04 -1.75127E+04 -1.29384E+04 -2.47862E+04  4.35548E+03 -2.56213E+04  1.51825E+04 -1.71258E+04
  2.64024E+04 -1.42490E+04  3.58363E+04  4.60867E+03  2.20073E+04  1.66745E+04  6.29564E+03  3.85400E+04
 -1.61768E+04  2.92923E+04 -2.75547E+04  6.62866E+03 -2.51258E+04 -9.23049E+03 -8.00252E+03 -2.00679E+04
  1.40838E+03 -4.23363E+03 -3.18426E+03  7.01413E+03 -1.50086E+04  2.69711E+03 -1.63054E+04 -7.07420E+03
 -9.95029E+03 -1.79380E+04  1.16102E+04 -2.68106E+04  1.51170E+04 -1.42741E+04  1.80074E+04  2.76661E+03
  1.31191E+04  1.34700E+04  1.15644E+03  2.12863E+04 -7.52121E+03  6.44513E+03 -1.81938E+04 -4.18163E+03
 -1.71719E+04 -1.47228E+04 -9.77166E+02 -2.14500E+04  9.36803E+03 -1.71729E+04  1.92877E+04 -1.03204E+04
  1.62278E+04  2.31101E+03  1.32794E+04  1.88802E+03  8.73701E+03  1.32340E+03  6.89587E+03 -6.40577E+02
  1.66142E+04 -2.08970E+03  2.14191E+04  1.55696E+04  1.17664E+04  2.39692E+04 -2.17782E+03  3.18423E+04
 -2.33865E+04  2.90429E+04 -2.65306E+04  1.42004E+04 -3.55531E+04 -2.72376E+03 -2.95245E+04 -1.42696E+04
 -1.05202E+04 -2.89486E+04  6.53154E+03 -2.42281E+04  2.13047E+04 -1.14299E+04  1.74608E+04  9.09306E+03
  8.14943E+03  8.60018E+03 -9.30326E+03  1.47862E+04 -1.80353E+04  5.56272E+03 -1.27468E+04 -8.28810E+03
  3.42663E+03 -1.34771E+04  8.32160E+03 -1.46185E+04  1.26956E+04 -1.52815E+03  2.05188E+03  6.41605E+03
 -4.24572E+03  2.24010E+03 -5.30934E+03 -6.39960E+03 -8.15518E+02 -1.27789E+04  8.64377E+03 -1.53493E+04
  1.54418E+04 -6.88409E+03  2.06360E+04  2.96079E+03  1.55915E+04  9.60172E+03  6.99555E+03  2.25460E+04
 -3.39745E+03  2.43113E+04 -1.63278E+04  1.17143E+04 -1.67726E+04  6.91930E+03 -1.32763E+04 -8.88278E+03
 -1.20551E+04 -3.66254E+03  7.19473E+02 -1.47543E+03 -3.35119E+03  5.36362E+01 -7.29810E+02  2.79735E+02
 -7.37588E+03  1.30959E+03 -8.49850E+03 -1.03700E+04 -6.03976E+03 -1.06218E+04  6.68844E+03 -9.70444E+03
  6.59856E+03 -4.11234E+03  7.07256E+03  5.98484E+03 -2.61044E+03  6.53866E+03 -2.33861E+03 -2.38691E+01
 -3.35957E+03 -5.58011E+03 -4.31292E+03 -6.10549E+03  3.83829E+03 -1.01632E+04  1.13965E+04 -4.44807E+03
  1.70667E+04  2.44751E+03  1.27089E+04  1.16453E+04  3.51563E+03  1.14773E+04 -2.10276E+03  1.12413E+04
 -1.59862E+04  3.38966E+03 -3.04059E+03  2.29612E+03  6.47227E+03 -4.50878E+02  7.16947E+03 -3.51796E+03
  5.60172E+03  4.15527E+03  2.13133E+03  8.97855E+03 -6.30184E+03  7.70115E+03 -5.53662E+03  6.31669E+03
 -7.53784E+03 -3.91043E+03  7.26470E+02 -1.02140E+04  5.85093E+03 -3.42698E+03  1.25598E+04 -5.14995E+01
  1.21284E+02  3.54983E+03 -8.76619E+03  5.53985E+03 -5.97183E+03  8.68010E+03 -1.29271E+04 -1.34031E+03
 -9.95833E+02 -8.66637E+03  3.54375E+03 -6.67742E+03  6.93855E+03 -5.71163E+03  9.14181E+03 -1.85666E+03
  7.35014E+03  5.00556E+03  4.15081E+03  5.13832E+03 -9.97127E+03  6.76766E+03 -3.74665E+03 -3.50573E+03
 -4.95969E+03 -8.41715E+03  9.80098E+02 -4.74347E+03  8.45151E+03 -3.45671E+03  3.87057E+03 -5.12597E+03
  1.12188E+03 -8.11108E+02  1.74803E+03 -2.81750E+02 -2.07765E+03  5.07402E+03 -1.60740E+03 -4.58110E+03
  6.05210E+03  1.90711E+02  1.00418E+04  2.33288E+03  8.50930E+03  2.73716E+03  3.57492E+03  8.80912E+03
 -2.91959E+03  1.65475E+04 -9.24961E+03  6.77624E+03 -1.53068E+04 -8.84967E+01 -1.01724E+04 -4.17137E+03
 -5.03945E+03 -9.36033E+03 -1.90718E+03 -5.78347E+03  1.72286E+03 -9.53357E+03  2.64250E+03 -1.86319E+03
  3.25705E+03  1.57406E+03  6.64419E+03 -2.05390E+03  6.79392E+03  5.29638E+03  6.74745E+03  3.74272E+03
  6.38411E+03  7.66220E+03  2.18071E+03  4.10075E+03 -6.17939E+03  1.19727E+03 -8.51523E+03  6.61398E+03
 -9.26249E+03  9.00768E+02 -5.88413E+03 -5.70058E+03 -7.78641E+02 -8.83584E+03  3.42520E+03 -4.81403E+03
  6.97858E+03 -4.30245E+03  1.02170E+04  4.80672E+03  1.02616E+04  9.18063E+03  3.73018E+03  1.10483E+04
 -3.36187E+03  5.36458E+03 -8.00660E+02  4.63835E+03 -4.21756E+03 -2.61397E+03  4.71080E+02 -3.15819E+03
 -5.58416E+03  3.57062E+03 -2.63251E+03 -7.19874E+02 -5.07234E+03  1.00364E+03 -7.43722E+03 -1.07441E+03
 -1.67483E+02 -1.23431E+03 -3.58706E+03 -7.48872E+03  2.54440E+03 -3.12665E+03  9.70636E+03 -6.14619E+03
  5.66822E+02  1.17664E+03  1.49176E+03  2.80015E+03 -3.87356E+03  2.08282E+03 -6.82688E+02 -1.79822E+03
 -4.42329E+03  2.23671E+03 -6.97746E+03 -3.70400E+03 -1.82277E+03 -9.37781E+03  6.70017E+03 -3.68143E+02
  6.03889E+03 -2.53456E+03  1.46256E+03  5.88834E+03  4.30014E+03  2.71825E+03  3.02089E+03 -4.98859E+02
  3.36900E+02  2.13438E+03 -2.28966E+03  2.18889E+02  2.14543E+03  2.05738E+03  2.82098E+03  4.31975E+03
 -5.16871E+02  6.99738E+03 -4.10485E+03  7.84325E+03 -6.80402E+03 -7.14343E+02 -1.43785E+04 -4.77470E+03
 -4.72362E+03 -5.31380E+03 -2.48201E+03 -5.34024E+03  6.47887E+03 -9.27481E+02  6.57615E+03 -2.55742E+02
  5.75173E+03  1.40192E+03  1.67752E+03  4.77831E+03 -3.29102E+03  2.79534E+03 -4.04262E+02  9.93790E+02
  3.34549E+02  3.04720E+03  4.42965E+03 -3.77461E+03  5.53786E+03 -3.71699E+02  5.10754E+03  3.46520E+02
  4.62820E+03 -3.82378E+03 -1.97224E+03  2.37293E+03  3.40504E+03  2.30486E+02 -2.31590E+03 -4.85558E+03
  7.51569E+03  1.96590E+03  4.70244E+03 -6.61178E+02 -2.40819E+03  5.57033E+03 -3.12717E+03  8.18480E+03
 -2.29948E+03  2.49743E+03 -1.58217E+03  4.18570E+03 -5.26879E+03 -1.73666E+03 -6.74064E+03 -2.78733E+03
 -1.36549E+03 -8.85867E+02  5.84173E+03 -3.75754E+03  6.79785E+03  2.85074E+03  1.90178E+02  3.77173E+03
  8.50060E+02 -4.14058E+02 -1.94456E+03 -9.99508E+02 -1.45293E+03  9.27351E+01  2.90050E+03 -5.09346E+03
  1.31686E+03 -1.64162E+03  6.83407E+02  3.01555E+03 -2.94800E+03 -3.43704E+03 -3.35688E+03  1.25586E+03
 -1.31538E+03 -6.02310E+02 -9.81375E+02  7.12549E+02  2.48194E+03 -2.06885E+03  2.95105E+03 -5.29010E+00
  3.23638E+03 -8.89420E+02 -3.01736E+03 -4.59484E+01  3.27515E+03  1.05946E+04 -1.68374E+03  2.76015E+03
 -3.16944E+03  1.53195E+03 -5.51730E+03 -5.37473E+03 -4.24682E+03 -2.35272E+03  5.60863E+02  2.92086E+03
  9.67937E+02 -3.79387E+03  5.68431E+03  4.42748E+02  2.89825E+02  3.09226E+03 -1.89138E+03 -2.78668E+03
 -6.72274E+03 -1.01872E+03  6.81156E+02  2.45205E+03  7.95589E+02  4.12054E+03 -2.48732E+03  2.85744E+03
  4.94862E+03  2.43849E+03 -3.56150E+03  6.20320E+03 -2.97288E+03  1.07079E+03 -5.34625E+03 -6.40209E+02
 -5.86346E+03  4.16404E+03 -2.15181E+03 -5.46210E+03  3.09808E+03 -3.47846E+03  5.94058E+03 -1.03282E+03
  1.56109E+03  5.80317E+01  5.42766E+03  1.24497E+03  8.84109E+02  8.77710E+02 -6.17648E+02  6.14034E+03
 -4.55098E+03 -5.11925E+03  2.23257E+03 -1.13756E+03  3.96316E+03 -2.43920E+02  1.52212E+03  1.45271E+03
 -8.61109E+02  4.61611E+03  1.40852E+02 -5.33540E+01  6.92453E+02  3.21817E+03  4.32170E+03 -1.91126E+03
  3.35517E+03 -3.94117E+03 -2.26945E+03  4.71648E+03  3.56959E+03  3.80090E+03  4.32837E+03  1.58857E+03
 -1.10645E+03  3.07873E+03 -1.45358E+03  6.85555E+03 -6.33972E+03 -3.94969E+02 -1.69646E+03 -1.25599E+03
  3.19208E+02 -1.61191E+03  2.49140E+03 -4.71453E+03  2.85645E+03  1.39271E+02  2.47277E+03 -1.20698E+03
  3.06896E+02 -2.09386E+03  1.70514E+03 -9.75293E+01  3.65853E+03 -1.03657E+03  1.67957E+03 -8.75842E+02
 -7.24803E+02 -1.80474E+03  2.92922E+03  1.66512E+03  5.11215E+03  7.47899E+02  5.41830E+02  6.89433E+03
 -4.08125E+02 -7.52288E+02 -1.05037E+03  3.46575E+03 -1.57281E+03 -2.46190E+03  2.87278E+03 -4.99052E+03
 -1.57147E+03 -5.51394E+03  6.76837E+03 -1.78153E+03 -1.93564E+03 -3.71655E+03  4.02745E+03  2.64909E+03
  7.26318E+02  4.75071E+03 -8.43942E+02  3.25431E+03 -3.48224E+03  1.69860E+03  4.01053E+03 -5.24951E+02
 -2.08845E+02 -7.03550E+02 -4.41425E+03  8.91760E+02  4.00899E+03 -2.08015E+03  7.49380E+02 -2.37845E+03
 -2.26220E+03  5.47990E+03 -2.99466E+03  5.15342E+02 -1.76373E+03 -1.01844E+03  3.36435E+03 -1.11089E+03
 -2.46733E+02  7.97345E+02 -1.87326E+03  3.08607E+03 -2.30617E+03  1.57780E+03 -6.33427E+03  1.21997E+03
