 $NMID ID='MM_0lb_SNR50_20hz_g55_28.RAW', FMTDAT='(8E13.5)'
 TRAMP=1., VOLUME=1. $END
  3.11414E+05 -1.29771E+03  3.30068E+05  2.52292E+05  8.18181E+04  3.34850E+05 -1.31397E+05  2.50293E+05
 -1.89043E+05  8.01171E+04 -1.07922E+05 -3.19707E+04  8.89226E+02 -5.64112E+04  5.35365E+04 -5.62170E+02
  3.35694E+04  5.31447E+04 -1.42469E+04  7.57996E+04 -6.16628E+04  6.23139E+04 -8.09865E+04  2.94598E+04
 -8.23247E+04 -8.81488E+03 -5.81229E+04 -4.76732E+04 -1.45790E+04 -7.14360E+04  2.75279E+04 -4.46289E+04
  4.18475E+04  4.31552E+03  1.82438E+04  4.34034E+04 -3.03592E+04  5.13925E+04 -6.34643E+04  3.85289E+02
 -5.33732E+04 -5.86626E+04 -7.10684E+03 -7.30944E+04  3.33314E+04 -5.25201E+04  4.93713E+04 -1.82575E+04
  3.95990E+04  1.08622E+04  3.19877E+04  2.49095E+04  1.24934E+04  2.67145E+04 -4.88086E+03  2.42443E+04
 -2.29236E+04  1.59765E+04 -1.69201E+04 -8.15522E+03  4.37848E+03 -4.90603E+03  2.45054E+04  1.11139E+04
  7.26223E+03  2.82489E+04 -2.71587E+04  3.56659E+04 -6.16331E+04  6.28746E+03 -5.52625E+04 -4.23408E+04
 -1.49557E+04 -6.30344E+04  3.63696E+04 -4.34589E+04  5.77036E+04  3.88067E+03  3.00387E+04  3.11761E+04
 -8.18843E+03  2.97654E+04 -2.79798E+04  1.53353E+04 -2.80940E+04 -8.86503E+03 -1.61929E+04 -1.22311E+04
 -7.79221E+03 -1.15931E+04 -1.49010E+02 -1.73215E+04  8.44722E+03 -2.31503E+04  2.02271E+04 -1.44443E+04
  1.32296E+04  1.65566E+03 -7.99467E+03  1.61002E+04 -2.15576E+04  2.80242E+03 -9.98939E+03 -3.15010E+04
  2.15548E+04 -3.73447E+04  4.62662E+04 -1.67515E+04  3.82521E+04  1.84227E+04  1.21200E+04  4.34905E+04
 -1.56208E+04  2.66399E+04 -2.25601E+04 -2.90529E+03 -9.65219E+03 -2.30629E+04  2.11669E+04 -3.08242E+04
  3.99396E+04 -6.82582E+03  2.86246E+04  2.84288E+04  1.58546E+04  4.13534E+04 -8.76438E+03  4.44454E+04
 -2.80550E+04  3.32968E+04 -3.87456E+04  1.21241E+04 -3.83490E+04 -1.53369E+04 -1.90019E+04 -3.17277E+04
  7.64956E+03 -3.59209E+04  3.10181E+04 -1.10567E+04  2.80652E+04  1.15867E+04 -2.05827E+03  1.89946E+04
 -1.34057E+04  5.79496E+03 -1.17714E+04 -5.04497E+03  6.28717E+03 -5.38750E+03  1.74757E+04  2.97721E+03
  9.96871E+03  1.95194E+04 -1.01122E+04  2.80439E+04 -1.92856E+04  1.11839E+04 -2.65478E+04 -8.45948E+03
 -1.31900E+04 -1.38579E+04 -4.57211E+03 -1.45280E+04  3.86176E+03 -1.55852E+04  1.06336E+04 -1.59529E+04
  1.92798E+04 -1.05169E+04  2.75186E+04  6.85124E+03  2.00360E+04  1.55512E+04  6.93462E+03  3.54656E+04
 -1.82583E+04  3.10629E+04 -2.73756E+04  5.79954E+03 -2.00961E+04 -1.29681E+04 -5.09040E+03 -1.61625E+04
  6.31012E+03 -7.72155E+03 -6.73211E+03  6.14987E+03 -1.21500E+04  4.97405E+03 -1.22371E+04 -5.37662E+03
 -4.20205E+03 -1.62417E+04  7.78723E+03 -1.86863E+04  1.37940E+04 -1.49913E+04  1.04566E+04 -5.32009E+03
  7.46272E+03  1.12643E+04 -2.07733E+03  1.19934E+04 -8.06371E+03  1.03496E+04 -1.36198E+04 -5.86252E+03
 -1.09839E+04 -1.58500E+04 -7.55268E+02 -1.95918E+04  8.62199E+03 -1.47792E+04  1.52974E+04 -3.27539E+03
  1.33062E+04  9.50798E+02  9.62502E+03  7.14683E+03  6.04483E+03 -3.43653E+03  7.19067E+03 -1.87364E+03
  1.41246E+04  7.61647E+03  1.55157E+04  1.32162E+04  1.04717E+04  2.37508E+04 -3.31913E+03  2.89836E+04
 -1.44609E+04  2.54788E+04 -2.33165E+04  1.06894E+04 -2.09248E+04 -3.25436E+03 -1.94114E+04 -1.34458E+04
 -1.23913E+04 -2.12392E+04  8.78620E+03 -1.66036E+04  1.53687E+04 -9.83898E+03  1.75231E+04  1.85607E+03
  7.88655E+03  1.26824E+04 -7.14528E+03  8.86654E+03 -1.38118E+04  2.72061E+03 -8.19408E+03 -9.55966E+03
  2.92441E+03 -1.54885E+04  6.10347E+03 -1.28973E+04  5.08446E+03 -7.20005E+03  6.64519E+02  5.07741E+03
 -2.88362E+03  1.27029E+02 -3.20971E+03 -4.96854E+03 -2.72351E+02 -1.00448E+04  1.17668E+04 -1.39605E+04
  9.44787E+03 -3.81565E+03  1.20421E+04  9.31788E+02  6.49929E+03  7.34302E+03  7.27920E+03  1.30666E+04
 -6.93349E+02  1.59016E+04 -1.19331E+04  1.02342E+04 -1.42627E+04  1.10569E+03 -5.64513E+03  4.03782E+02
 -3.21950E+03 -2.98706E+03 -2.48648E+03  5.30977E+03 -6.77871E+02  8.84407E+02 -5.52794E+03  7.06539E+03
 -6.53587E+03 -4.00829E+03 -6.57188E+03 -3.43951E+03 -5.46861E+03 -1.04928E+04  3.91659E+03 -9.49253E+03
  8.65091E+03 -2.61453E+03  1.07015E+04  6.92363E+02 -1.32891E+03  5.43787E+02 -3.18605E+03 -8.22371E+02
  7.77218E+02 -9.96437E+02  2.03508E+03 -6.01311E+03  4.96186E+03 -9.47430E+03  1.13894E+04 -6.85476E+03
  8.06350E+03  1.80718E+02  9.68893E+03  6.16622E+03  3.19861E+03  9.99651E+03 -6.39704E+03  8.10675E+03
 -1.98063E+03  1.62820E+03 -2.99709E+03  2.65897E+03  7.11678E+03  6.55655E+02  5.25531E+03 -3.55115E+03
  2.39240E+03  3.27323E+03  2.97237E+03  6.79280E+03 -3.70665E+03  4.10621E+03 -6.92245E+03 -1.26811E+03
 -1.55978E+03 -6.06069E+03  1.42034E+02 -4.66784E+03  2.24199E+03 -6.04633E+03 -3.48242E+03 -3.45231E+03
  1.08779E+03 -1.44895E+03 -2.74836E+03  5.82048E+03  1.95923E+03  2.59685E+03 -4.99412E+03 -4.72648E+02
 -2.75746E+02 -4.51423E+03 -4.82004E+03 -7.63354E+03  3.23586E+03 -8.22913E+03  2.95331E+03  8.25841E+02
  3.96358E+03  6.00225E+03  5.17907E+03  5.27234E+03 -3.55056E+03  1.12822E+03 -3.07940E+03 -8.54426E+02
 -3.12589E+03 -2.92296E+03 -1.43534E+03 -8.97474E+03  1.48967E+03 -7.93864E+02  1.92473E+03 -3.34131E+03
  3.67825E+03  2.29715E+03 -8.83189E+02  3.65738E+03 -6.52842E+03  6.07416E+02  1.89922E+03 -2.86333E+03
  3.60778E+03 -5.89579E+02  3.88040E+03 -3.07603E+03  5.31358E+03  2.68976E+03  6.79883E+03  6.19602E+03
 -2.09611E+02  9.06575E+03 -3.72400E+02  1.06125E+03 -9.52153E+03  1.72456E+03 -6.76489E+03 -2.13209E+03
 -2.53000E+03 -5.70372E+03 -5.62563E+02 -7.56818E+03  1.37976E+03  3.12302E+03  5.82931E+03 -6.93474E+03
  4.84016E+03 -1.02023E+03 -1.57085E+03 -5.42272E+03  2.87312E+03  4.41238E+02  5.37167E+03  1.16426E+03
  5.30918E+03 -2.46870E+03  6.26834E+02  9.48109E+02 -2.67308E+03  2.82948E+03 -3.49355E+03 -2.50730E+03
 -5.09324E+03 -3.13144E+03  2.80632E+03 -2.30985E+03 -5.15806E+03 -1.64304E+03  3.11239E+03 -2.17059E+03
  3.74328E+03 -1.43051E+03  5.90648E+03  2.73238E+03  5.24022E+03  5.45163E+03 -2.65454E+03  6.75505E+03
  1.57552E+03  6.96348E+03  1.30613E+03  4.71155E+03 -2.09157E+03 -2.05893E+03  1.19713E+03  2.16810E+03
  1.64198E+03  2.93997E+02 -7.00515E+02  2.96510E+03  2.11000E+02 -1.72266E+03 -2.82282E+03  2.76214E+02
 -9.22419E+02 -3.96206E+03 -9.93883E+02 -5.87692E+03  7.75844E+02  9.79774E+01  2.09553E+03 -3.12972E+03
 -3.25650E+02  7.18889E+02  8.98005E+02  4.58222E+03  1.13790E+03  7.18667E+03 -4.13434E+03 -2.05961E+03
 -4.31551E+03  8.58834E+00 -1.53541E+03 -1.72744E+03  1.06251E+03 -2.65482E+03 -1.82953E+03 -4.59581E+02
  3.06984E+02 -4.04787E+03  1.72590E+03  1.23422E+03 -4.37129E+03  6.02810E+02  3.38976E+03  3.32092E+03
  1.49529E+02  2.07695E+02  3.07026E+03 -1.36062E+02 -7.74210E+02  7.41178E+02  2.53335E+03 -6.29623E+02
 -2.98149E+03  2.07997E+03 -3.85110E+03  4.19541E+03 -3.52539E+03  7.20757E+03 -8.64946E+03  3.29485E+03
 -6.20316E+01  1.44306E+03 -1.60920E+03 -7.24850E+03  8.46618E+02  2.63691E+02  7.24662E+02  2.78814E+03
  5.43632E+03  9.17836E+02  3.58111E+03  4.52768E+02 -1.29573E+03  2.45089E+03  5.40536E+03 -8.78416E+01
 -5.18977E+02 -2.72903E+03  1.96346E+03 -4.51909E+03  4.74487E+03  9.26909E+02  4.04133E+03 -1.77963E+03
  1.05499E+03 -2.25420E+03 -1.50255E+03  1.48958E+03  1.84099E+03  9.35538E+02  3.94236E+03  3.05217E+03
  2.89978E+03 -1.32274E+03  2.76101E+03  5.02282E+02  9.33657E+02  5.83532E+03  5.84528E+02  5.11870E+03
 -1.25555E+02  1.70392E+03 -5.86224E+02  2.61093E+03 -2.76363E+03 -4.58606E+03  7.63933E+01  3.23080E+03
  2.91472E+03 -1.73536E+03 -2.99438E+03  9.74719E+02  3.62434E+03  6.46046E+02 -3.34871E+03  1.02919E+03
 -5.29527E+03  3.16595E+03  2.81972E+03  2.17101E+03  1.15439E+03 -8.43266E+02  5.92279E+02 -3.77679E+03
  4.16866E+02 -5.73279E+02  5.44765E+03 -1.74742E+03  1.99080E+03  1.46604E+03  1.29143E+03  4.15835E+03
 -9.54878E+02  1.49370E+03  1.32848E+03  3.66447E+03  3.12264E+03  8.87261E+02  3.57290E+03  1.52486E+03
  2.98448E+03 -3.09000E+03  7.44035E+02 -1.57514E+03  2.74222E+03 -2.28610E+03  2.38009E+03 -1.90687E+02
 -1.09663E+03 -5.04078E+02 -1.78061E+02  4.68531E+02  1.43417E+03 -9.59181E+02 -1.20564E+02  1.56989E+03
  3.41118E+03 -2.18011E+03  5.55952E+02  7.31454E+00  4.85281E+02  2.83627E+03 -1.02779E+03  3.13898E+03
 -1.55599E+03 -3.46214E+02 -2.05243E+03  5.49940E+02 -3.37575E+02  7.05834E+02  2.74387E+03 -3.60776E+03
 -2.58136E+03  6.83530E+02 -3.18032E+03  2.32281E+03 -4.20456E+03 -9.02068E+02 -1.49916E+03  1.78274E+03
 -3.73164E+03 -6.44723E+03  6.88444E+02 -1.64371E+03  1.03533E+03 -2.63400E+03  5.42604E+03  4.15636E+02
  9.25594E+02  1.48846E+03  3.12891E+03  2.46273E+03 -8.93609E+02  2.74042E+03  7.14763E+00  1.42802E+03
  2.82462E+03  3.53821E+03 -4.14676E+03  4.30679E+03  7.46726E+02 -2.67004E+03 -5.22292E+02 -1.34845E+03
  1.12952E+03 -4.81913E+03 -5.81292E+03  8.53789E+02 -2.21668E+03  3.39307E+02 -3.54969E+03  3.95749E+03
  8.54529E+02  1.24717E+03  4.82800E+03 -9.22409E+02 -6.30323E+02  1.17491E+03  9.68456E+02  2.04651E+03
 -1.67257E+03 -8.93679E+02 -4.13350E+03  2.92112E+03  1.72902E+03  8.25247E+02  2.09564E+03 -2.14081E+03
  4.14853E+02  2.53446E+03  3.44092E+02 -2.47836E+03  1.58375E+03  3.26677E+03  1.75945E+03  6.68217E+02
 -6.89797E+02 -3.07396E+02 -2.71823E+03  1.93219E+03 -1.54112E+03  1.78557E+03 -1.63142E+03 -1.43725E+03
 -3.63264E+02  3.47335E+03  4.68201E+02 -1.48325E+03 -8.79297E+02  2.95525E+03  2.06712E+03 -7.51513E+02
 -1.73452E+03 -1.33873E+03  3.08307E+03 -3.87140E+03 -4.14999E+03 -1.36322E+03  1.13133E+03  4.91505E+02
 -4.81502E+02 -3.18295E+02  1.52077E+03 -1.79321E+02  2.75153E+03  6.18971E+03  3.01367E+03  2.32504E+02
 -3.74076E+03 -3.18463E+03  3.50839E+02 -4.04419E+02 -1.55799E+03  3.60846E+02  1.54908E+03  1.34671E+03
 -2.41205E+03  1.23626E+03 -2.63414E+03 -7.91678E+03 -1.66728E+03 -1.58527E+02 -6.76137E+03  1.51856E+03
  4.96432E+03 -1.06686E+03 -4.33940E+03  3.20893E+02 -4.35687E+03 -8.55896E+02 -4.43820E+02  8.42824E+02
 -2.53165E+03  3.19037E+01  5.67996E+02 -1.93800E+03 -6.42875E+02 -3.01100E+03 -1.83519E+03  5.64652E+03
