 $NMID ID='MM_0lb_SNR50_8hz_g50_11.RAW', FMTDAT='(8E13.5)'
 TRAMP=1., VOLUME=1. $END
  3.09206E+05  3.77665E+01  3.39130E+05  2.45875E+05  8.68083E+04  3.36195E+05 -1.29540E+05  2.55726E+05
 -1.92929E+05  8.09138E+04 -1.11906E+05 -3.52266E+04  4.73859E+02 -4.78023E+04  5.35905E+04 -1.78168E+03
  3.28610E+04  5.12027E+04 -1.62544E+04  7.81169E+04 -5.48379E+04  7.41018E+04 -8.88500E+04  2.58880E+04
 -8.27034E+04 -7.62559E+03 -6.25603E+04 -4.95499E+04 -2.19012E+04 -6.87140E+04  3.03192E+04 -4.10206E+04
  4.10241E+04  2.78928E+03  1.83284E+04  4.77276E+04 -4.01112E+04  4.49394E+04 -7.66844E+04 -2.49892E+03
 -5.33020E+04 -5.69620E+04 -4.31648E+03 -7.60063E+04  3.47938E+04 -5.34625E+04  5.20078E+04 -2.17792E+04
  4.37119E+04  1.10306E+04  3.62859E+04  2.46627E+04  1.96007E+04  3.63020E+04 -3.11588E+03  3.24709E+04
 -2.18888E+04  6.75813E+03 -1.24382E+04 -5.46826E+03  6.92082E+03 -7.61210E+03  2.86650E+04  1.20277E+04
  1.28328E+04  3.30968E+04 -3.65344E+04  2.98360E+04 -5.74489E+04  4.21316E+03 -5.49287E+04 -4.23173E+04
 -1.15768E+04 -6.04719E+04  4.47083E+04 -4.80833E+04  6.43548E+04  4.55853E+03  3.79586E+04  3.61701E+04
 -6.48346E+03  4.16447E+04 -3.33169E+04  1.86348E+04 -3.32101E+04 -2.75007E+03 -1.87433E+04 -1.47430E+04
 -7.87546E+03 -8.39051E+03  3.34634E+03 -1.93301E+04  1.15700E+04 -1.86889E+04  1.67987E+04 -1.50943E+04
  8.06080E+03  7.22659E+03 -1.47774E+04  1.10529E+04 -1.87885E+04 -5.48663E+03 -1.09298E+04 -4.16667E+04
  2.65479E+04 -3.98704E+04  5.11853E+04 -2.02014E+04  5.50191E+04  1.56198E+04  2.31320E+04  4.74881E+04
 -1.24740E+04  3.78283E+04 -3.74930E+04 -8.31353E+03 -1.82036E+04 -3.62860E+04  2.23410E+04 -3.05522E+04
  4.08559E+04 -1.31432E+04  4.35225E+04  3.22933E+04  2.40622E+04  4.88398E+04 -3.36167E+03  5.38345E+04
 -3.68491E+04  3.63274E+04 -4.91667E+04  1.53387E+04 -5.21995E+04 -1.12806E+04 -2.53254E+04 -4.31018E+04
  1.05964E+04 -5.06575E+04  3.76100E+04 -2.55481E+04  2.72702E+04  7.56522E+03  7.45938E+03  1.61308E+04
 -1.33907E+04  3.44010E+03 -4.27472E+03 -6.68290E+03  1.24496E+03 -1.20277E+04  2.50756E+04  7.57252E+03
  8.57262E+03  2.76655E+04 -7.47690E+03  2.82197E+04 -1.65800E+04  1.44336E+04 -3.64739E+04  6.28130E+02
 -2.91803E+04 -2.05479E+04 -1.13032E+04 -3.06423E+04  3.94352E+03 -2.66050E+04  1.66501E+04 -2.46669E+04
  3.46612E+04 -1.52241E+04  4.82439E+04  8.25664E+03  2.23800E+04  2.56890E+04  1.23901E+04  3.34642E+04
 -2.33047E+04  3.28542E+04 -2.70244E+04  9.07517E+03 -3.07406E+04 -1.18238E+04 -7.93936E+03 -1.18013E+04
  6.16060E+03  7.36433E+02 -9.85498E+03  9.26729E+03 -2.39329E+04  4.06120E+03 -2.29834E+04 -1.47263E+04
 -1.23589E+04 -2.38800E+04  5.78244E+03 -3.17265E+04  1.43734E+04 -1.93557E+04  2.79594E+04  2.14218E+03
  1.54706E+04  1.62151E+04 -4.22124E+03  2.83231E+04 -1.40010E+04  1.32186E+04 -2.21768E+04 -9.33192E+02
 -2.27784E+04 -2.31449E+04 -9.50824E+03 -2.12705E+04  1.17044E+04 -2.38445E+04  3.22261E+04 -1.16136E+04
  2.47830E+04 -1.39126E+03  2.07182E+04  2.76346E+03  1.26887E+04  3.04753E+03  1.25009E+04 -8.49956E+03
  2.75461E+04  5.25536E+03  2.23239E+04  2.70659E+04  1.70286E+04  3.90107E+04 -4.95445E+03  4.78733E+04
 -2.68265E+04  3.12684E+04 -3.79858E+04  2.38205E+04 -4.29362E+04 -3.23358E+03 -3.87227E+04 -2.98329E+04
 -1.41986E+04 -3.71666E+04  1.58557E+04 -2.81467E+04  2.59860E+04 -1.32217E+04  2.37989E+04  8.78886E+03
  1.02119E+04  1.61834E+04 -1.66589E+04  1.44730E+04 -2.27463E+04  2.94135E+03 -1.66010E+04 -8.96287E+03
  6.55540E+00 -1.61612E+04  1.53708E+04 -2.12715E+04  1.73205E+04 -2.11594E+03  2.64356E+03  9.70270E+03
 -6.56376E+03  1.14665E+04 -8.85249E+03 -1.25723E+04 -7.34196E+02 -1.83082E+04  1.76194E+04 -2.22060E+04
  2.35414E+04 -6.58126E+03  2.81559E+04  5.71014E+03  2.63780E+04  2.40036E+04  1.64284E+04  2.47704E+04
 -2.81525E+03  3.07122E+04 -2.26350E+04  2.10193E+04 -2.18161E+04  4.93070E+03 -1.77799E+04 -3.47818E+03
 -4.99093E+03 -7.48607E+03 -2.77200E+03  6.68514E+03 -5.77734E+03  2.42558E+03 -1.53397E+04  2.60470E+03
 -1.08376E+04 -1.50874E+03 -1.98512E+04 -1.28422E+04 -3.59815E+03 -1.95887E+04  4.85023E+03 -1.91814E+04
  1.58285E+04 -1.04060E+04  4.47041E+03  1.19255E+03 -1.78951E+03  6.56743E+03 -6.31474E+03  1.04290E+03
 -6.68855E+03 -1.64917E+04  2.28504E+02 -1.60270E+04  1.48072E+04 -1.94638E+04  2.06777E+04 -6.30936E+03
  2.09376E+04 -4.35156E+03  1.85857E+04  1.53946E+04  7.56683E+00  2.22655E+04 -1.15280E+04  1.65587E+04
 -2.00550E+04  7.26095E+03 -4.85261E+03 -5.71220E+03 -1.03992E+03 -2.08811E+03  9.40974E+03  1.20970E+03
  8.10672E+03  5.93772E+03 -1.78627E+03  1.89800E+04 -1.70657E+04  1.75054E+04 -1.93758E+04  7.87193E+03
 -1.23548E+04 -1.01565E+04 -3.04982E+03 -1.99024E+04  1.25446E+04 -6.40165E+03  1.76683E+04  3.08131E+03
 -8.34371E+03  1.42207E+04 -1.02325E+04  1.15915E+04 -9.85009E+03  5.97345E+03 -1.63859E+04 -6.43479E+02
 -5.98883E+03 -2.09835E+04  1.78120E+03 -2.35209E+04  1.70946E+04 -1.25937E+04  2.54716E+04  5.49378E+03
  1.39758E+04  1.03081E+04 -4.44276E+03  1.64736E+04 -1.15261E+04  7.46427E+03 -1.04461E+04 -4.76732E+02
 -1.15565E+04 -9.34919E+03 -1.31543E+03 -1.20680E+04  6.01756E+03 -1.35164E+04  4.82085E+03  2.89473E+03
  2.95317E+03  3.54405E+03 -3.37020E+03 -2.96463E+03 -3.57374E+03 -9.38256E+03  6.31899E+03 -1.42207E+04
  1.55454E+04 -7.89623E+03  1.21063E+04  2.85929E+03  2.21812E+04  1.05185E+04  1.61049E+04  1.85331E+04
 -4.86114E+03  2.33645E+04 -1.65004E+04  1.54306E+04 -2.63567E+04  7.12356E+03 -2.29911E+04 -7.65502E+02
 -1.15992E+04 -2.40082E+04 -2.77970E+03 -2.05343E+04 -3.84618E+02 -1.15136E+04  5.99380E+03 -9.67329E+03
  1.03392E+04 -2.94599E+03  4.43896E+03 -8.11450E+03  7.82866E+02  3.75123E+02  2.01801E+04  9.07824E+02
  1.67558E+04 -7.16619E+03  4.16691E+03  9.76416E+03 -3.80914E+03  1.58177E+04 -1.60645E+04  1.02303E+04
 -1.20632E+04 -3.44242E+03 -1.36533E+04 -9.05388E+03  2.42711E+02 -2.13936E+04  2.43457E+03 -2.46261E+04
  1.49226E+04 -1.34278E+04  2.79007E+04 -1.04379E+03  8.26685E+03  1.44107E+04  5.86625E+03  2.09300E+04
 -6.20675E+03  1.35129E+04 -9.86189E+03  8.45702E+03 -1.18521E+04 -2.76288E+03 -8.56576E+03 -2.57262E+03
  7.47900E+03 -4.58669E+03 -8.46399E+03  4.78005E+03 -1.07341E+04  4.77927E+02 -4.99041E+03  3.67559E+03
 -2.92864E+03 -9.28727E+03  3.34873E+03 -1.80029E+04  1.92990E+04 -1.51848E+04  1.41702E+04 -3.59420E+03
  1.87898E+04  9.37584E+03  7.78844E+03  1.13346E+04  2.52141E+03  1.97875E+04 -1.03504E+04  9.11344E+03
 -1.53606E+04  1.10462E+03 -1.57779E+04 -8.04340E+03 -2.76383E+03 -1.76400E+04  7.48443E+03 -1.25358E+04
  1.54876E+04 -5.37824E+03  6.22938E+03  4.86957E+03  3.93012E+03  6.89508E+03  2.91833E+03  7.28886E+03
  8.72155E+03 -2.57538E+03 -2.58338E+02  3.11783E+03  7.58871E+03  3.04508E+03  1.42932E+03  8.31630E+03
 -2.63688E+03  3.64409E+03 -1.23612E+04  1.08622E+04 -2.29890E+04  2.09211E+03 -1.10355E+04 -6.98270E+03
 -9.37456E+03 -1.68483E+04 -4.78196E+03 -1.97720E+04  7.94149E+03 -1.06755E+04  1.84340E+04 -5.77523E+03
  1.18389E+04  1.83685E+03 -4.09737E+03  1.12720E+04 -8.40705E+03  1.35060E+04 -5.37704E+03 -1.46803E+03
  1.40812E+02 -5.81201E+03  1.10140E+03 -2.17245E+03  1.10169E+04 -3.65935E+03  1.60668E+04 -2.04597E+03
  3.17575E+03  1.07981E+04  3.18255E+03  2.11509E+02 -5.43814E+03  4.32181E+03  1.29445E+03 -1.36491E+03
  3.27893E+03  6.32216E+02  5.74926E+03  9.02828E+03  1.12154E+03  6.78019E+03 -8.78093E+02  1.12170E+04
 -1.35325E+04  1.76512E+04 -1.93412E+04 -4.65959E+03 -9.32482E+03 -1.73645E+03  1.62755E+03 -1.21558E+04
  7.26948E+03 -3.81024E+03  6.01783E+03  2.02493E+03  4.78791E+03  8.02105E+02  2.12523E+03  1.37210E+04
 -2.93749E+03  5.16813E+02 -1.32252E+04  2.25716E+03 -9.38112E+03 -1.30679E+04  9.27835E+03 -1.15922E+04
  1.01689E+04 -7.71727E+03  2.71845E+03  3.02656E+03  2.95848E+02  5.24484E+03  1.53712E+03  9.75183E+03
 -1.32008E+04  6.00075E+03 -2.31085E+03  3.36312E+02  5.77209E+02 -6.96532E+03  4.74456E+03 -1.20676E+04
  1.11747E+04  8.55134E+03  1.40251E+04  9.37164E+03 -7.70797E+01  1.88563E+04 -3.69194E+03  1.16615E+04
 -1.06670E+04  7.54037E+03 -4.12784E+03 -1.59323E+03 -6.28881E+03 -1.50900E+04  4.97546E+03 -9.08003E+03
  1.03740E+04 -1.35504E+03  9.65549E+03  5.15754E+01  1.16514E+03  7.13386E+03  5.57828E+00  2.54570E+03
 -1.90991E+03  4.82761E+03  2.66624E+03  2.85637E+03  1.73503E+03  3.20780E+03 -5.89150E+03  1.22766E+03
 -1.36481E+03  8.07661E+03 -6.41107E+03  4.45530E+03 -1.60328E+04  2.81304E+01 -1.19227E+04 -1.23701E+04
 -6.60159E+03 -1.05794E+04  1.35620E+03 -2.09764E+04  6.36941E+03 -8.53017E+03  1.53282E+04 -2.93957E+02
  1.56592E+04 -1.90302E+03  8.88463E+03  5.08591E+03  8.33021E+02  1.46956E+04 -6.20207E+03  9.02840E+03
 -5.72068E+03 -4.84728E+03 -8.46008E+03 -2.78433E+03 -3.82648E+03  2.70848E+03  3.26736E+03  1.48641E+03
 -1.62335E+03 -9.74825E+02 -1.39647E+03 -8.09383E+03 -5.29692E+03 -5.31281E+02 -1.77158E+03 -3.74629E+03
  7.83805E+03 -6.72488E+03  9.91533E+03  2.44713E+03  1.10806E+04  1.41137E+04  4.97094E+03  6.86589E+03
 -6.88600E+03  1.37423E+04 -1.36483E+04  4.73783E+03 -1.31592E+04  3.62870E+03 -1.10626E+04 -5.34963E+03
 -1.16249E+04 -1.46289E+04  5.54912E+03 -1.16853E+04  6.28676E+03 -1.98434E+03  1.05208E+04  5.66063E+03
  2.02746E+03 -1.56307E+03  1.14490E+03  3.42608E+03 -6.33700E+03  3.42241E+03 -4.57470E+03 -2.31347E+03
  3.10612E+02  7.64841E+01  3.87217E+03 -3.28798E+03  1.65422E+03  3.97844E+03  4.51141E+03  5.32417E+03
 -4.83652E+03  2.75506E+03 -1.17940E+04  3.48597E+03 -5.22546E+03 -6.96471E+03 -9.94995E+03 -8.61054E+03
  7.06666E+03 -8.02813E+03  1.01705E+04 -2.20165E+03  1.11728E+04  8.61929E+03  9.90225E+03  1.64400E+04
  5.85034E+03  9.01865E+03 -7.48267E+03  1.09979E+04 -2.77802E+03  2.69745E+03 -3.40975E+03 -2.83098E+03
 -3.17781E+02 -2.49520E+03 -6.73319E+03 -1.10980E+03 -6.88692E+03  3.60551E+02 -8.45145E+03 -3.47098E+03
 -6.40702E+03 -6.73706E+03  5.74886E+03 -8.42503E+03  1.25294E+02 -1.09179E+04  1.66866E+01 -2.98756E+03
  9.27876E+03 -4.33338E+03  7.41327E+03  7.43436E+03 -1.76900E+03  1.23340E+04 -9.57283E+03  3.59817E+03
