 $NMID ID='MM_0lb_SNR50_19hz_g50_31.RAW', FMTDAT='(8E13.5)'
 TRAMP=1., VOLUME=1. $END
  3.08398E+05  7.40597E+02  3.37997E+05  2.48563E+05  8.96369E+04  3.38096E+05 -1.32936E+05  2.51399E+05
 -1.90182E+05  7.72954E+04 -1.09560E+05 -3.25947E+04  5.75738E+03 -4.75091E+04  5.47664E+04 -1.11052E+03
  3.67723E+04  5.66311E+04 -1.68301E+04  7.39219E+04 -5.78709E+04  6.25984E+04 -8.06237E+04  3.43420E+04
 -8.46980E+04 -9.54094E+03 -5.75017E+04 -5.40730E+04 -1.38909E+04 -6.25668E+04  2.77722E+04 -4.70531E+04
  4.11012E+04  4.42630E+03  1.37667E+04  4.95459E+04 -3.06607E+04  4.80132E+04 -6.89129E+04  3.79117E+03
 -5.17012E+04 -5.69425E+04 -1.01987E+04 -7.39384E+04  3.27499E+04 -5.57589E+04  4.73580E+04 -1.32449E+04
  4.19574E+04  1.46776E+04  2.58461E+04  2.26764E+04  1.45693E+04  2.85424E+04 -4.36588E+03  2.79992E+04
 -2.32279E+04  1.71507E+04 -2.00660E+04 -3.45743E+03  2.11747E+03 -5.38393E+03  2.05766E+04  5.74410E+03
  6.98264E+03  3.36153E+04 -2.71754E+04  3.20012E+04 -5.71370E+04  2.33680E+03 -5.77408E+04 -4.11684E+04
 -9.10046E+03 -5.83521E+04  3.66113E+04 -4.56830E+04  5.86275E+04 -3.94863E+03  3.24081E+04  2.81811E+04
 -4.84270E+03  3.33018E+04 -3.05319E+04  9.16718E+03 -2.79887E+04 -5.76666E+03 -1.52231E+04 -1.30540E+04
 -8.91107E+03 -9.73809E+03 -2.45556E+03 -1.58670E+04  8.69541E+03 -1.82361E+04  1.77324E+04 -1.41815E+04
  1.57904E+04  7.75188E+03 -8.03298E+03  1.77549E+04 -1.50524E+04 -2.79167E+03 -8.53626E+03 -2.93810E+04
  1.75613E+04 -4.22745E+04  4.32003E+04 -2.13404E+04  4.75248E+04  2.04093E+04  1.73891E+04  4.27034E+04
 -1.32805E+04  2.59649E+04 -2.23180E+04  2.46012E+03 -1.07543E+04 -3.21614E+04  2.10360E+04 -2.93867E+04
  3.40939E+04 -7.74148E+03  3.32735E+04  2.21683E+04  1.36859E+04  4.44263E+04 -9.71651E+03  4.76641E+04
 -3.06480E+04  2.85779E+04 -3.70107E+04  7.72002E+03 -3.78896E+04 -1.39112E+04 -2.43661E+04 -3.66762E+04
  7.39568E+03 -3.42035E+04  3.24985E+04 -1.22053E+04  2.82462E+04  7.52629E+03 -8.03006E+02  1.23016E+04
 -1.47151E+04  7.96051E+03 -1.04103E+04 -3.73197E+03  6.95923E+03 -8.51940E+03  1.61660E+04  2.51085E+03
  1.36237E+04  2.33511E+04 -9.46717E+03  2.33393E+04 -2.33709E+04  9.70492E+03 -2.06035E+04 -8.21403E+03
 -1.33465E+04 -1.61862E+04 -7.76783E+03 -1.90916E+04  1.27845E+03 -2.14717E+04  1.07136E+04 -1.16088E+04
  2.29404E+04 -1.36362E+04  2.93475E+04  8.51151E+02  1.90759E+04  1.72252E+04  5.58924E+03  3.39575E+04
 -1.49315E+04  2.74602E+04 -2.66596E+04  9.25048E+03 -1.93738E+04 -9.73346E+03 -4.96406E+03 -1.13791E+04
  7.08130E+03 -4.05338E+03 -1.98916E+03  6.68601E+03 -1.72816E+04  5.93617E+03 -1.49785E+04 -1.32142E+03
 -5.90088E+03 -1.31678E+04  1.10364E+03 -1.68354E+04  7.64340E+03 -1.52149E+04  1.34921E+04 -1.97197E+03
  9.07089E+03  9.63887E+03  2.75522E+03  1.73551E+04 -1.19155E+04  6.63159E+03 -1.28600E+04 -5.64161E+02
 -9.54170E+03 -1.02713E+04 -1.83618E+03 -2.01626E+04  5.41562E+03 -2.11429E+04  1.68365E+04 -5.58900E+03
  1.02796E+04  5.55621E+03  8.73897E+03  4.65095E+03  6.01439E+03  4.73629E+03  4.98883E+03 -1.47424E+03
  1.32792E+04  2.42676E+03  1.39576E+04  1.40753E+04  1.02799E+04  2.36766E+04 -3.01904E+03  2.44455E+04
 -1.29474E+04  2.67224E+04 -2.78515E+04  1.05451E+04 -2.19215E+04  1.61344E+03 -2.32607E+04 -9.44754E+03
 -4.09558E+03 -2.08079E+04  2.24258E+03 -1.51456E+04  1.92439E+04 -1.08784E+04  1.79322E+04  2.52828E+03
  7.08587E+03  7.49699E+03 -3.10027E+03  1.06831E+04 -1.18253E+04  5.51937E+03 -7.07625E+03 -1.07662E+04
  2.59506E+03 -1.44846E+04  5.51234E+03 -1.09744E+04  1.08215E+04  6.76887E+02  4.34271E+03  3.78964E+03
 -2.12856E+03  2.05455E+03 -7.39043E+03 -4.68524E+03  5.43632E+03 -8.61326E+03  8.56591E+03 -9.67565E+03
  1.55137E+04 -4.48950E+03  1.01364E+04  3.08990E+03  1.21490E+04  1.10793E+04  2.36418E+03  1.31801E+04
 -3.22304E+03  1.40897E+04 -7.71755E+03  8.48719E+03 -1.18183E+04  4.81068E+03 -4.66270E+03 -4.86827E+03
 -5.60548E+03 -7.24221E+03  2.28671E+02  1.73482E+03 -4.35054E+03  4.97223E+03 -9.40813E+02  4.03375E+03
 -1.07071E+04  1.16207E+03 -1.00962E+04 -7.36988E+03 -2.93460E+03 -1.09152E+04  3.34854E+02 -4.60797E+03
  8.88405E+03 -5.65828E+03  6.09056E+03 -1.84837E+03 -4.49369E+03  6.47046E+02 -7.78268E+02  4.24451E+03
 -8.42353E+03 -4.12458E+03  1.91357E+03 -5.16193E+03  2.83262E+03 -5.61702E+03  7.63102E+03 -3.76163E+03
  9.00275E+03  2.54196E+03  8.20815E+03  9.12982E+03  2.27641E+03  9.78122E+03 -8.96402E+03  5.22205E+03
 -9.91020E+03  3.44749E+03 -4.28358E+03  9.39964E+02 -4.36820E+02 -1.36230E+03  7.49372E+03 -3.34978E+03
  1.62401E+03  7.64148E+03  2.17244E+03  7.27090E+03 -2.69147E+03  3.67737E+03 -1.17207E+04  3.57086E+03
 -5.46041E+03 -3.30240E+03  3.93862E+02 -3.05833E+03  3.93643E+03 -5.67552E+03  3.67363E+03 -1.11966E+03
  4.92139E+01  1.91500E+03 -3.53497E+03  1.75251E+03 -4.76600E+03  2.85575E+03 -9.01553E+03  7.93494E+02
 -5.30709E+03 -5.61197E+03  4.02321E+03 -7.29966E+03  5.07585E+03 -7.31033E+03  1.09012E+04  4.63462E+03
  6.03938E+03  5.03372E+03  7.80703E+02  8.80663E+03 -7.07197E+03  5.28534E+03 -4.54271E+03  4.32166E+03
 -3.93447E+03 -3.25381E+03 -3.69557E+03 -8.13362E+02  6.47851E+03 -5.38666E+03  4.95137E+03 -4.23882E+03
 -1.08322E+03 -2.68960E+03  8.18924E+02 -1.91228E+03 -1.64397E+03 -4.19297E+02 -3.01215E+03 -5.37151E+03
  4.27125E+03 -1.58795E+03  4.28959E+03  1.71630E+03  4.94840E+03  6.47164E+03  5.53873E+03  7.63704E+03
 -1.17694E+03  6.02976E+03 -9.82728E+03  2.20413E+03 -1.59103E+04  1.11558E+03 -1.26670E+04  5.61986E+02
 -7.16002E+02 -5.34990E+03 -2.50158E+03 -5.69765E+03  1.54235E+03 -9.16931E+02 -9.88667E+01 -2.71204E+03
  1.28386E+03 -1.12250E+03  7.02871E+02 -1.21189E+03  6.52084E+03 -1.65484E+03  5.74468E+03  4.40197E+03
  2.10967E+03  2.51369E+03 -1.37929E+03  9.34991E+02 -1.25373E+03 -4.37692E+02 -4.76262E+03  4.14254E+03
 -4.84575E+03 -3.89233E+03 -3.07009E+03 -6.97288E+03  8.40381E+02 -6.61631E+03  6.04183E+03 -4.58543E+03
  8.63473E+03 -2.10506E+03  6.35561E+03 -2.18184E+03  4.81120E+03  3.62285E+03 -1.44992E+03  6.08731E+03
 -3.30444E+02  5.97028E+03 -4.12653E+03  1.29442E+03 -4.47747E+03  1.59101E+03  1.33422E+03 -7.89523E+02
 -4.17626E+03  1.31188E+03  1.23458E+01 -3.58075E+02 -2.86070E+03  1.44791E+03 -7.55112E+03  1.05083E+03
  1.31112E+03 -3.52601E+03 -8.04934E+02 -4.62573E+03  5.00189E+03 -4.79594E+03  3.45312E+03  1.88441E+03
  7.33277E+03 -2.42154E+02  2.92074E+03  6.74114E+03 -4.47056E+03  1.26589E+03 -2.67083E+03  1.93203E+03
 -5.49742E+02  3.55274E+03 -1.78584E+02 -3.63494E+03 -9.31654E+01 -1.07038E+03  1.67350E+03 -1.74694E+03
  2.13940E+03  1.93588E+03 -5.56263E+03  4.36007E+03  4.57855E+03  3.36680E+03  9.46503E+01  8.26363E+02
  4.02214E+03 -1.47817E+03 -9.80403E+01  7.33595E+02  1.13393E+03 -3.67919E+02  1.23989E+03  1.54086E+03
 -6.70931E+01 -3.08508E+03 -7.52869E+03  2.02183E+03 -2.07685E+03  2.00124E+03 -6.42640E+03 -3.18480E+02
 -3.59822E+03 -5.29553E+03  5.77152E+03  7.59096E+01  2.29241E+03 -9.54101E+02  7.92879E+03  4.89814E+02
  4.04310E+03  3.91939E+03 -1.72947E+02  1.87628E+03  2.80064E+03  7.71667E+02 -2.24725E+03  3.17097E+03
 -1.66502E+03 -3.55063E+03 -4.91976E+02 -1.94540E+03  1.24935E+03 -1.78724E+03  1.99469E+03  1.17850E+03
  9.74489E+02 -4.29891E+03  9.14754E+01 -1.41206E+03  2.41478E+03  2.87273E+03  4.88407E+03 -2.73461E+03
  3.07086E+02 -3.27345E+03 -3.29188E+02  3.83503E+03  8.04059E+02  4.01834E+03 -3.43020E+03  5.56741E+03
 -2.46021E+03 -1.09331E+03 -4.75270E+03 -2.42186E+03 -2.06484E+03 -1.69801E+03  2.40774E+03 -1.30541E+03
 -2.76484E+03  1.13618E+03 -1.15591E+02 -2.10771E+02 -2.69529E+01  4.69945E+02 -2.53563E+03  6.26288E+02
 -5.36148E+02  1.09190E+03  2.28611E+03 -2.12053E+03 -1.94650E+03 -5.16634E+03 -7.33430E+02 -2.33109E+03
 -1.96212E+03 -2.36873E+03  4.98016E+03  2.31870E+03 -1.05078E+03 -2.03908E+03 -1.39111E+03  1.67736E+03
 -1.43106E+03 -2.22591E+03 -3.59045E+03  1.29772E+03 -7.99740E+02 -1.19913E+03  2.18759E+03 -1.16805E+02
 -2.06654E+03  3.07149E+03  1.27235E+02 -3.35665E+03 -2.69714E+03  3.62142E+03  1.60947E+03  2.32350E+03
  8.05414E+02  2.56363E+03  7.97442E+02  1.06032E+03  1.75325E+02  5.68592E+02 -6.84367E+02 -9.47517E+02
  4.39094E+03 -2.25491E+03  3.00422E+03  3.95228E+02  3.64831E+03 -1.59957E+03 -5.59532E+02 -3.06545E+03
 -4.18053E+03  4.00667E+03 -5.00757E+02 -2.03242E+03 -8.93160E+02  3.66153E+03 -2.61575E+03 -2.73093E+03
 -1.34574E+02 -4.47943E+02  9.30556E+00  3.37271E+02 -7.66101E+02 -9.88818E+02 -4.29037E+03 -3.16090E+03
 -3.83848E+03 -2.64553E+03  2.23227E+03  9.02623E+02 -2.48929E+03  1.88640E+03  3.92368E+03  2.45493E+03
  4.08919E+03  1.59791E+02 -3.01325E+03 -3.59717E+03 -3.63594E+03 -2.16029E+03  1.33635E+03  3.70824E+03
  2.83342E+02 -3.82735E+03 -6.57201E+02 -3.02216E+03 -1.16422E+03 -2.68362E+03 -1.02843E+03  1.82906E+03
 -2.25276E+03  2.30989E+03 -2.80353E+03 -2.29621E+03  2.11609E+03  3.59652E+03  3.73237E+03  7.12009E+02
  5.04106E+03 -3.28137E+03 -3.08285E+03 -3.40034E+03 -2.17348E+03 -1.85749E+03 -8.86720E+02  2.12950E+02
 -4.54457E+03  1.99459E+03  2.21315E+03 -1.74462E+03 -3.20995E+03  2.54807E+03 -2.46322E+03  1.03901E+03
 -8.42227E+02 -3.07384E+03 -2.66867E+03 -1.63688E+02 -5.78246E+02  8.63700E+00 -1.10032E+03  1.75209E+03
 -8.14043E+02 -5.16452E+02 -4.54367E+02  4.47757E+01 -1.87623E+03 -2.03380E+03 -6.32084E+02 -5.05597E+02
 -4.53096E+03 -8.06534E+02  1.40285E+03  4.28507E+03  4.37947E+03  5.07548E+03  1.78873E+03 -1.37038E+03
 -1.12832E+03  4.18987E+03 -1.27755E+03  9.96986E+02  1.30651E+03  1.22437E+03  1.79868E+03 -2.42913E+03
  1.60791E+03 -1.38758E+03  1.01446E+03 -2.41429E+03  2.40897E+03 -7.02482E+02  4.08301E+03 -1.65341E+03
 -2.23696E+03 -9.51262E+02 -3.05885E+03  4.85580E+03  3.12657E+03  3.82453E+03 -2.18869E+03 -3.98855E+02
 -2.96120E+02  2.37620E+03 -2.18262E+03  5.30543E+02  1.69543E+03 -5.20315E+03  1.85398E+02 -4.13612E+02
 -9.84062E+02  8.30255E+02 -4.04875E+02 -2.93061E+03  5.71845E+02 -2.08231E+03  1.94687E+03  8.15319E+02
 -1.71834E+03  6.62434E+02 -8.37608E+02 -1.26555E+03 -3.46790E+02 -3.15908E+03 -1.53220E+03 -1.14227E+03
