 $NMID ID='MM_0lb_SNR50_17hz_g55_83.RAW', FMTDAT='(8E13.5)'
 TRAMP=1., VOLUME=1. $END
  3.08857E+05  4.84605E+03  3.35554E+05  2.46559E+05  8.27444E+04  3.41410E+05 -1.29450E+05  2.47758E+05
 -1.89101E+05  8.30038E+04 -1.14949E+05 -3.43570E+04 -3.43346E+03 -5.00425E+04  5.43391E+04 -3.70621E+01
  3.94182E+04  5.37035E+04 -1.30465E+04  7.35615E+04 -6.14692E+04  6.43583E+04 -7.97053E+04  3.65448E+04
 -8.12579E+04 -1.02215E+04 -5.71555E+04 -5.33005E+04 -1.73181E+04 -7.26798E+04  3.02214E+04 -4.61781E+04
  3.78146E+04  8.63820E+03  1.40747E+04  4.17296E+04 -3.56382E+04  4.89001E+04 -6.46633E+04 -2.66354E+03
 -5.19609E+04 -5.44074E+04 -5.80951E+03 -7.67211E+04  3.48423E+04 -5.31384E+04  4.39174E+04 -1.55275E+04
  4.43163E+04  1.23792E+04  2.57670E+04  2.32902E+04  1.38947E+04  2.64132E+04 -6.26256E+03  2.57212E+04
 -1.86616E+04  1.24367E+04 -2.05611E+04 -2.79446E+03  7.95973E+03 -6.07714E+03  2.37872E+04  1.05419E+04
  8.25531E+03  3.11677E+04 -3.32950E+04  3.23158E+04 -6.44146E+04  3.19148E+03 -5.53049E+04 -4.26450E+04
 -1.38682E+04 -6.26526E+04  3.99619E+04 -4.63117E+04  5.94140E+04 -9.00687E+02  3.44916E+04  3.07020E+04
 -2.02084E+03  3.30843E+04 -3.00503E+04  1.47147E+04 -2.25056E+04 -2.96262E+03 -1.62039E+04 -9.78246E+03
 -7.41806E+03 -1.40762E+04 -2.41563E+02 -1.36354E+04  2.98318E+03 -2.24664E+04  1.57523E+04 -1.12256E+04
  1.28222E+04  6.40915E+03 -2.79610E+03  1.23296E+04 -1.84683E+04 -5.06173E+03 -6.12273E+03 -3.19910E+04
  2.26169E+04 -4.35694E+04  4.35555E+04 -1.86233E+04  4.67784E+04  1.90483E+04  2.05425E+04  3.94231E+04
 -1.72031E+04  2.86796E+04 -2.86176E+04  2.75798E+03 -1.14095E+04 -2.49011E+04  2.20224E+04 -3.44247E+04
  4.12777E+04 -9.06170E+03  3.27884E+04  2.70259E+04  1.47368E+04  4.84930E+04 -4.61472E+03  5.03385E+04
 -3.02796E+04  3.39251E+04 -4.24500E+04  9.12239E+03 -4.20148E+04 -2.22611E+04 -2.00496E+04 -3.29117E+04
  6.26923E+03 -3.77262E+04  3.10715E+04 -1.25294E+04  2.70610E+04  1.30048E+04  5.81610E+03  1.99787E+04
 -1.24369E+04  1.04706E+04 -1.10460E+04 -6.94958E+03  3.05833E+03 -1.06786E+04  2.02279E+04  5.30750E+03
  1.25968E+04  2.24009E+04 -1.96629E+03  2.99759E+04 -2.19942E+04  1.39997E+04 -2.43595E+04 -5.98817E+03
 -1.54027E+04 -2.20258E+04 -4.34791E+03 -1.67998E+04  3.44114E+03 -2.29411E+04  1.86934E+04 -1.85505E+04
  2.24847E+04 -1.26935E+04  3.19526E+04  2.27514E+03  1.92577E+04  1.71262E+04  3.51667E+03  3.35340E+04
 -1.45267E+04  2.96884E+04 -2.79079E+04  9.89897E+03 -2.08363E+04 -6.33145E+03 -2.74133E+03 -1.61980E+04
  3.76633E+03 -8.40042E+03 -6.12179E+03  3.04867E+03 -1.25696E+04  7.38392E+03 -1.91448E+04 -4.44403E+03
 -1.17506E+04 -2.01165E+04  5.93366E+03 -2.44408E+04  1.50880E+04 -1.35640E+04  1.71126E+04  2.04868E+02
  8.85324E+03  1.06003E+04 -2.41069E+03  1.58655E+04 -1.15508E+04  1.61575E+04 -1.91712E+04  2.37553E+03
 -8.67713E+03 -2.11465E+04 -3.15932E+03 -1.78805E+04  7.54382E+03 -1.91107E+04  2.57786E+04 -7.22112E+03
  1.93852E+04 -1.09335E+03  1.41868E+04  5.53219E+03  7.78841E+03  1.03555E+03  1.00669E+04 -1.00459E+03
  1.95030E+04 -2.11741E+02  1.70905E+04  9.69845E+03  9.10961E+03  2.36908E+04 -4.67736E+03  3.16879E+04
 -1.80333E+04  2.25610E+04 -2.74603E+04  9.06701E+03 -3.13633E+04 -2.05571E+03 -2.63427E+04 -1.13239E+04
 -7.82960E+03 -2.54392E+04  6.05627E+03 -2.22020E+04  1.49507E+04 -1.10349E+04  1.78233E+04  5.26524E+03
  1.25353E+04  1.43135E+04 -1.32042E+04  1.40856E+04 -1.86244E+04  1.74481E+03 -1.04183E+04 -1.37252E+04
  3.77080E+03 -1.91377E+04  7.93089E+03 -1.12770E+04  1.24475E+04 -1.69982E+03  1.29290E+03  4.14891E+03
 -8.23742E+03  2.47796E+03 -9.14374E+03 -3.36843E+03  2.36551E+03 -1.01742E+04  8.89291E+03 -1.00441E+04
  1.34101E+04 -8.56714E+03  1.66770E+04  1.25473E+03  1.54846E+04  8.81783E+03  6.75729E+03  1.51786E+04
 -3.22222E+03  2.12583E+04 -1.32516E+04  1.43790E+04 -1.07790E+04  4.51739E+03 -5.71670E+03 -7.41179E+02
 -5.84121E+03 -8.83771E+03 -3.33762E+03  3.29467E+03 -3.37995E+03  5.01371E+03 -2.61586E+03  2.19469E+03
 -1.12792E+04 -2.56864E+03 -9.25561E+03 -1.15189E+04 -2.70426E+03 -1.45846E+04  6.26797E+03 -9.45809E+03
  1.16228E+04 -4.89721E+03  1.98920E+03 -5.01965E+01  2.45620E+03  5.80092E+03 -2.70039E+03 -6.90670E+01
 -5.65986E+03 -4.18855E+03  1.65231E+03 -7.04116E+03  3.67834E+03 -1.35815E+04  1.19913E+04 -6.06897E+03
  1.42442E+04  2.31890E+03  7.96550E+03  8.19450E+03  2.09881E+03  1.23660E+04 -7.65032E+03  9.95064E+03
 -1.07619E+04  3.24693E+03 -4.30104E+03 -9.12136E+02  6.93782E+02 -4.07339E+03  3.85189E+03 -6.01432E+03
  7.53338E+03 -7.26881E+02 -1.11274E+03  1.03085E+04 -8.83902E+03  2.88251E+03 -8.52309E+03  2.25032E+03
 -2.73875E+03 -3.56649E+03  1.66046E+03 -1.30821E+04 -8.53371E+01 -4.69631E+03  6.58469E+03 -1.00058E+03
  1.78407E+02  3.88523E+03 -4.51055E+03  3.35504E+02 -4.49840E+03  1.69722E+03 -4.14183E+03 -2.17033E+03
 -1.99956E+03 -6.66741E+02  2.79165E+01 -8.94030E+03  4.66272E+03 -2.14598E+03  1.23697E+04  8.59892E+02
  7.97185E+03  4.02835E+03 -2.19735E+03  5.78436E+03 -7.40831E+03 -1.36924E+03 -4.68420E+03 -7.91710E+02
 -7.00260E+03 -9.30845E+03 -2.14108E+03 -1.03161E+04  3.41425E+03 -7.02718E+03 -1.81732E+03 -5.91784E+03
  9.40798E+02  5.57082E+02 -2.44064E+03  1.27171E+03  2.21192E+03 -4.81638E+03  1.07308E+03  1.92354E+03
  3.82725E+03 -4.09141E+03  8.31315E+02 -3.90586E+03  5.87453E+03  1.11657E+03  7.38401E+03  1.05122E+04
 -4.88486E+03  9.59329E+03 -1.53940E+04  9.48203E+03 -1.42761E+04  3.56068E+03 -8.73440E+03 -4.90813E+03
 -7.33421E+03 -5.97049E+03  2.69921E+02 -7.82065E+03 -3.34982E+03 -4.58656E+03  3.46657E+03 -2.75133E+02
 -2.76163E+03 -4.00712E+02 -8.31273E+02 -4.53939E+03  1.43902E+03 -1.76657E+02  5.54316E+03  5.36803E+03
  5.68268E+03 -4.13456E+03  7.65177E+03  1.05336E+04  5.63441E+02  6.43883E+03 -7.06063E+03  6.83281E+03
 -9.01143E+03 -5.52459E+02  4.41142E+02 -6.30974E+03  2.57996E+03 -3.58418E+03  1.82435E+03 -2.75368E+03
  1.05298E+04 -6.18895E+03  7.60335E+03  4.65697E+03  5.90086E+03  3.37382E+03  4.60406E+03  6.82620E+03
 -1.27617E+03  8.23176E+03 -6.53763E+03  2.97116E+03 -1.02478E+00  9.22512E+02 -9.59631E+02 -4.17461E+03
 -3.86190E+03  1.10325E+03 -3.11858E+03  8.00569E+02  1.36107E+03 -5.23968E+02 -4.10703E+03 -1.68093E+03
 -2.26842E+03 -1.98453E+03  5.66733E+03 -1.07719E+04  7.82563E+03 -6.71776E+03  7.91915E+03  1.19441E+03
  2.92503E+03  1.87075E+03  7.31188E+03  1.24240E+03 -1.70317E+03  4.75437E+03 -2.79363E+03  7.10034E+02
 -5.01861E+03  2.37301E+03 -3.15780E+03 -8.55474E+02 -5.57700E+03 -4.47090E+03  8.05921E+03 -2.48932E+03
  5.15109E+03 -4.74237E+03  2.79763E+03 -3.23914E+03 -4.27084E+03 -7.64750E+01  4.36574E+03  2.60960E+02
 -1.19624E+03 -3.71068E+02 -1.57444E+03  4.22688E+03 -4.87350E+02  3.18654E+03  3.30774E+03  3.94007E+03
 -7.60320E+03  2.81781E+03 -4.11894E+03  8.66275E+03 -2.26301E+03  3.19724E+03 -5.29470E+03  1.32100E+03
 -5.49390E+02 -1.78705E+03  9.42121E+02 -4.45186E+03  6.89661E+02 -7.52570E+03  4.12814E+03  1.29334E+03
  2.85890E+03  4.41874E+03 -1.40804E+03  5.46312E+03  4.49150E+02  9.37927E+02  1.42827E+03 -2.27087E+03
 -4.00069E+03 -3.18681E+03  3.05009E+02 -5.67730E+03  4.77440E+02  4.43919E+03 -7.96298E+01  2.69060E+03
  9.08474E+02  5.92045E+03  1.32792E+03 -1.76018E+03  2.07292E+03  5.50000E+03  3.60786E+03  3.85850E+03
 -2.84592E+03 -2.21291E+03  2.33197E+03  2.32035E+03 -1.41678E+03  1.77874E+03  7.62409E+02 -2.69883E+03
  4.10295E+03  2.91916E+02 -4.93007E+03  2.70598E+02 -4.52343E+03  2.01880E+03 -2.11071E+03 -2.94770E+03
  1.87296E+03 -3.99318E+02  1.88186E+03 -2.71675E+03  4.14353E+03 -8.42049E+02 -2.18215E+03  4.00585E+03
 -9.67841E+01  3.11941E+03 -3.59785E+03 -3.88538E+02  8.87367E+02  7.28570E+02  3.05456E+03 -4.08529E+03
  1.52462E+03 -1.63233E+03 -6.85168E+02  1.27159E+03  2.54134E+02  2.58653E+02  2.43469E+03 -1.98271E+03
 -1.73403E+03  4.94274E+03  1.55831E+03  2.28810E+03  1.36603E+03 -2.18614E+03  2.00936E+01  6.20007E+02
  5.08295E+03  4.07799E+03  7.81731E+02  5.91140E+02  3.05284E+03 -1.85666E+02 -2.20679E+03  8.60322E+03
 -9.53531E+02 -2.70173E+03 -1.04599E+03  3.23983E+03  1.05089E+03 -7.16768E+03  9.90342E+01 -6.12590E+03
  4.59760E+03 -2.29347E+03  5.66895E+03  3.57702E+03  3.28435E+02 -1.76664E+02 -2.35924E+03  5.69922E+03
 -1.54340E+03 -1.80679E+03 -1.76472E+02  1.23853E+03 -8.30978E+02  1.77010E+03 -1.80910E+02 -3.37356E+03
 -2.00434E+03 -1.30619E+03 -3.13445E+03 -2.67602E+03 -3.83288E+03 -2.65963E+03 -2.85867E+03 -4.06376E+03
  2.11609E+03 -2.33006E+03 -1.04897E+03 -3.57146E+03  3.52936E+03 -6.71774E+03  6.34776E+03 -1.59796E+03
  3.46221E+03  2.82500E+03  3.95754E+03  1.79252E+03  7.76929E+02  1.43310E+03  4.90889E+03  3.63194E+03
 -2.91488E+03 -1.40035E+03  2.81717E+01 -2.49018E+03 -1.01042E+03 -4.39004E+03  1.37750E+03 -3.31690E+02
  1.09526E+03  1.72081E+03 -8.68286E+02  1.90240E+03  3.11857E+03 -2.60512E+01  1.87792E+01  1.27584E+03
 -4.18719E+02 -3.16240E+03  3.93974E+03  1.06146E+03  9.49877E+02  1.06719E+03 -1.95493E+03  3.56909E+03
  1.76795E+03  2.63362E+03 -3.54828E+02  2.27860E+03  1.21303E+03 -1.16208E+03 -2.61992E+03 -4.19319E+02
 -4.72956E+03 -6.49063E+01  1.76223E+03  5.70352E+02  1.83283E+03 -1.81038E+03  3.48417E+03  2.01270E+03
  3.80940E+02 -6.42151E+02  4.67717E+02 -2.38367E+03 -1.57050E+03 -5.03102E+03 -5.45069E+03  3.95576E+03
  6.18746E+02 -1.85024E+03  1.43142E+03  2.05563E+03  3.46462E+03  4.15419E+02  8.05054E+02 -1.23750E+03
 -3.57815E+03  2.04690E+03 -1.59613E+03 -3.94570E+03 -1.21558E+03  1.42098E+03 -4.26078E+02  8.95807E+02
 -1.31722E+02 -3.50401E+03  5.89706E+03 -6.29302E+02  3.25690E+03 -5.56532E+03  1.26118E+03 -2.18303E+03
  1.47090E+03  9.15121E+02 -2.21606E+03  6.82947E+02 -1.99675E+03  5.96846E+02 -4.77778E+02  1.86394E+03
  2.98253E+03 -2.47908E+03 -5.08439E+03  2.88975E+03 -2.11887E+03  5.14559E+03 -5.97531E+03 -5.84742E+03
  3.70649E+02  1.11184E+03 -2.95528E+03 -3.58759E+03  5.69125E+03 -2.92233E+03  6.76892E+03 -6.77456E+02
  8.97588E+02  4.32619E+03  3.23575E+03 -1.49494E+02  9.86667E+02  4.73804E+03 -1.44743E+03  2.69081E+03
