 $NMID ID='MM_0lb_SNR50_14hz_g60_78.RAW', FMTDAT='(8E13.5)'
 TRAMP=1., VOLUME=1. $END
  3.06112E+05 -5.19270E+03  3.39169E+05  2.53144E+05  8.22923E+04  3.38481E+05 -1.34659E+05  2.50706E+05
 -1.87232E+05  8.37127E+04 -1.12951E+05 -2.73033E+04  1.49507E+02 -4.96178E+04  5.56545E+04  1.32080E+03
  3.45027E+04  5.15484E+04 -1.87410E+04  7.13309E+04 -6.18087E+04  6.58293E+04 -8.33748E+04  3.48043E+04
 -7.87558E+04 -1.47630E+04 -5.97364E+04 -5.29650E+04 -1.99625E+04 -6.75689E+04  2.26477E+04 -4.85468E+04
  4.37944E+04  1.64475E+03  1.23635E+04  4.20491E+04 -3.35662E+04  4.43827E+04 -6.77154E+04 -2.19485E+03
 -5.35810E+04 -5.65390E+04 -2.74070E+03 -8.29130E+04  3.45999E+04 -5.55971E+04  4.26806E+04 -1.16925E+04
  4.34147E+04  4.87806E+03  3.35360E+04  2.50900E+04  1.73973E+04  2.99900E+04 -3.88716E+03  2.47625E+04
 -2.65999E+04  1.36719E+04 -1.15870E+04 -6.65410E+03  3.90219E+03 -8.55890E+03  1.87566E+04  1.89231E+04
  6.89954E+03  4.07309E+04 -3.06651E+04  3.48893E+04 -6.81616E+04  3.69956E+03 -5.66005E+04 -3.99008E+04
 -1.36215E+04 -6.10708E+04  4.38774E+04 -4.61513E+04  5.79559E+04 -7.39324E+03  3.17329E+04  3.51939E+04
 -4.15032E+03  3.96818E+04 -2.93042E+04  1.88341E+04 -3.32611E+04  9.44427E+02 -1.24800E+04 -8.67274E+03
 -9.49770E+03 -1.49597E+04  1.28532E+03 -2.43771E+04  9.90248E+03 -2.13551E+04  1.10186E+04 -9.95404E+03
  4.36359E+03  4.79072E+03 -5.91606E+03  1.19984E+04 -2.51461E+04 -1.90977E+03 -6.18618E+03 -3.52721E+04
  2.67930E+04 -4.73956E+04  5.42653E+04 -2.09803E+04  4.53271E+04  2.18868E+04  1.61031E+04  4.93086E+04
 -1.40069E+04  3.95751E+04 -2.96544E+04 -2.87676E+03 -8.31349E+03 -3.00058E+04  2.25552E+04 -3.20190E+04
  4.37473E+04 -8.23956E+03  3.50212E+04  2.35017E+04  2.45980E+04  5.13306E+04 -8.09043E+03  4.99410E+04
 -3.20597E+04  3.38703E+04 -4.54937E+04  6.48924E+03 -4.36330E+04 -2.02029E+04 -2.65008E+04 -3.66087E+04
  6.11173E+03 -3.52242E+04  3.10875E+04 -1.34389E+04  2.86335E+04  8.64783E+03  4.67619E+03  2.01277E+04
 -1.58779E+04  8.71095E+03 -9.48597E+03 -4.66167E+03  8.94100E+03 -9.91980E+03  1.48300E+04  5.86060E+03
  1.17510E+04  2.30985E+04 -9.31308E+03  2.48488E+04 -1.77405E+04  1.28815E+04 -2.82014E+04 -2.54832E+03
 -2.24110E+04 -1.97021E+04 -9.52791E+03 -1.90104E+04  6.02007E+03 -1.63329E+04  1.71062E+04 -2.37819E+04
  2.64332E+04 -1.33964E+04  3.91540E+04  9.59161E+03  2.47631E+04  2.26619E+04  5.49513E+03  3.35951E+04
 -1.82483E+04  3.26149E+04 -3.09589E+04  1.25147E+04 -1.87753E+04 -8.75849E+03 -5.72273E+03 -1.42024E+04
  1.38057E+03 -6.49547E+03 -8.33146E+03  5.53909E+03 -1.90095E+04  9.07871E+03 -1.97408E+04 -9.00123E+03
 -1.03661E+04 -1.74329E+04  7.15826E+03 -2.50949E+04  1.69004E+04 -1.82385E+04  1.98968E+04 -4.02067E+03
  9.07940E+03  1.32117E+04  5.86585E+01  2.48088E+04 -8.50769E+03  1.40033E+04 -2.35167E+04 -6.70246E+03
 -1.63447E+04 -2.46989E+04 -3.72631E+03 -2.66125E+04  1.54338E+04 -1.66206E+04  2.63113E+04 -9.24558E+03
  1.50325E+04 -2.64594E+02  1.11934E+04  8.28490E+03  1.36544E+03 -1.12874E+03  9.60592E+03  4.85533E+02
  1.72977E+04  5.68642E+03  2.47193E+04  1.06778E+04  9.46051E+03  3.00987E+04 -3.51023E+03  4.28495E+04
 -1.79511E+04  2.95381E+04 -3.31463E+04  8.51946E+03 -3.43229E+04 -7.78458E+03 -3.57802E+04 -1.83633E+04
 -1.37645E+04 -2.71570E+04  1.14084E+04 -3.29737E+04  1.75014E+04 -1.43059E+04  2.32470E+04  5.82575E+03
  3.67642E+03  1.63322E+04 -9.50736E+03  1.56314E+04 -1.95711E+04  3.80339E+03 -1.44574E+04 -1.40000E+04
 -2.12739E+03 -1.59956E+04  1.19305E+04 -9.17643E+03  8.71408E+03  4.36554E+03 -7.06879E+02  6.95795E+03
 -7.13650E+03  5.83157E+02 -4.68696E+03 -9.41790E+03  1.22704E+03 -1.59750E+04  5.91455E+03 -1.49329E+04
  1.66183E+04 -8.74071E+03  2.14350E+04  3.50749E+03  1.78323E+04  1.59313E+04  8.53091E+03  2.35056E+04
 -6.83067E+03  2.69658E+04 -1.67025E+04  1.37622E+04 -2.06705E+04  5.07284E+03 -1.30693E+04 -7.73831E+03
 -8.56697E+03 -6.94294E+03 -6.48063E+03  1.89563E+03  1.51484E+03  1.79633E+03  4.11643E+02  3.75885E+03
 -6.79491E+03  2.01128E+03 -1.14241E+04 -9.40569E+03 -6.68351E+03 -1.52926E+04  7.85150E+03 -1.10968E+04
  8.82954E+03 -5.75436E+03  9.00163E+03  4.44330E+03 -2.07077E+03  4.41361E+03 -2.67838E+03 -1.49008E+03
 -6.95982E+02 -6.56067E+03 -1.49656E+03 -1.51690E+04  5.48952E+03 -1.22556E+04  1.38137E+04 -6.60022E+03
  1.83126E+04  2.34816E+03  1.50702E+04  1.36031E+04  7.70879E+02  1.08180E+04 -1.23476E+04  1.67842E+04
 -4.87960E+03  1.96104E+03 -4.33644E+03 -5.40367E+03  5.01373E+03  9.34078E+00 -1.04209E+02 -4.85922E+02
  2.49196E+03  6.99185E+03  1.12851E+03  1.09249E+04 -5.58539E+03  1.37703E+04 -1.60703E+04 -8.34925E+02
 -9.16701E+03 -9.02498E+03  2.70839E+03 -8.67150E+03  6.16633E+03 -5.59943E+02  7.08398E+03  3.23423E+02
 -6.30127E+02  4.64073E+03 -4.08558E+03  8.09781E+03 -6.96400E+03  4.04353E+03 -1.18355E+04 -4.41389E+03
 -5.05022E+03 -1.00475E+04  4.39272E+03 -1.08455E+04  1.49710E+04 -1.34853E+04  9.95359E+03  4.63315E+02
  4.23646E+03  9.97526E+03 -3.71912E+03  9.83292E+03 -7.43374E+03  4.26995E+03 -1.22267E+04  4.08112E+03
 -8.06168E+03 -9.68222E+03 -6.69435E+02 -8.74253E+03  3.05059E+03 -7.34085E+03  4.01080E+03  1.77326E+03
  3.91451E+03 -2.51855E+02 -1.50155E+03  4.18056E+02 -4.53155E+03  3.50377E+03  4.99363E+02 -1.78145E+03
  7.42099E+03 -1.21066E+03  8.20274E+03 -2.01354E+03  1.22330E+04  6.60538E+03  4.08694E+03  1.65363E+04
 -4.87764E+03  1.48952E+04 -1.31066E+04  1.15431E+04 -1.46627E+04  3.27365E+03 -8.90418E+03 -6.25210E+03
 -9.30846E+03 -1.19072E+04 -1.24585E+03 -6.19836E+03  4.40673E+01 -8.72766E+03  4.32512E+03 -6.69185E+02
  1.84277E+03 -6.25228E+03  4.74666E+02 -5.89933E+03 -1.20764E+03 -2.76806E+03  2.50239E+03  5.65028E+03
  4.76106E+03  5.60692E+03 -5.18412E+02  4.57909E+03 -9.45155E+02  2.96500E+03 -4.76012E+03  7.17804E+03
 -9.63987E+03 -1.91001E+03 -1.92077E+03 -4.58156E+03 -6.15968E+02 -7.62514E+03  3.72641E+03 -4.06503E+03
  1.12221E+04 -4.34821E+03  1.38930E+04  7.54211E+03  9.08262E+03  4.88677E+03 -2.81298E+02  1.70011E+04
  7.36116E+02  1.15365E+04 -3.96605E+03  2.97992E+03 -4.37435E+03 -6.38459E+02 -1.18841E+02  5.59030E+02
 -3.45495E+02  2.71685E+03 -3.73610E+03  5.22585E+03 -5.27866E+03  6.33097E+02 -5.24748E+03  3.87251E+01
  1.59253E+02 -1.45927E+04  3.05853E+03 -9.94996E+03  1.12381E+03 -1.00801E+04  6.29027E+03 -5.36309E+03
  5.44303E+03 -3.16146E+02  4.13883E+03  1.01375E+04 -3.25543E+03  8.79581E+03 -4.80191E+03  5.52659E+03
 -7.34671E+03 -3.59375E+02 -1.24553E+04 -3.76632E+03  3.33963E+03 -3.03114E+03  1.29296E+03 -4.27329E+03
  1.00255E+04 -4.89040E+03  4.21579E+03  1.51161E+03  4.05217E+03  3.10620E+03  1.40380E+03  3.19716E+03
  1.10159E+03 -9.70860E+02 -1.18299E+03 -1.33636E+03  4.21732E+03  3.94125E+03  1.57064E+03  1.76504E+03
 -1.51823E+03  5.87807E+03 -3.01681E+03  5.67040E+03 -8.30801E+03  6.49163E+03 -6.37975E+03 -6.92004E+03
 -6.72326E+03 -5.50715E+03 -3.30322E+02 -1.07653E+04  5.07685E+03 -2.53183E+03  7.49611E+03  1.70504E+02
  3.27755E+03  4.34876E+03  3.15414E+03  5.09758E+03  1.33520E+03  3.31930E+03 -5.06952E+03 -8.23918E+02
  2.54106E+03 -3.18397E+03 -2.75750E+02 -4.93913E+03  5.58826E+03 -2.58272E+03  3.31369E+03  2.88799E+03
  2.16882E+03  1.91644E+03 -6.13412E+02  8.89820E+02 -3.83646E+03  6.16086E+02  2.79216E+03 -1.39241E+03
 -1.86900E+03  1.69190E+03  5.09079E+02  2.11211E+03 -9.56089E+02  1.26783E+03 -4.49753E+03  2.90050E+03
 -4.91759E+03  2.45694E+03 -5.99949E+03  4.91608E+03 -7.21726E+03 -3.87517E+03 -4.07199E+03 -1.74741E+03
  2.18557E+03 -6.09954E+03  6.95114E+02 -5.40603E+03  3.91026E+03  9.14239E+02 -1.88999E+03  2.83883E+03
 -5.51200E+03  2.36937E+03 -6.39858E+03 -4.49796E+03  1.13770E+03 -6.58488E+03  6.93462E+02 -2.89002E+03
  3.42297E+03 -1.55002E+03  6.30273E+03 -3.45030E+03  4.01272E+03 -6.22634E+02  3.27953E+03 -1.01211E+03
 -2.03947E+03  3.63596E+02 -3.54364E+03 -1.04908E+03 -6.05338E+03 -1.17620E+03  8.41168E+03 -4.99643E+03
 -3.53626E+02 -2.65671E+02  5.18767E+03  4.56165E+02 -7.91361E+02  7.11085E+03  4.31183E+02  3.42219E+03
 -6.67313E+03  2.65967E+03 -4.96961E+03  2.71004E+03 -1.02257E+02 -1.96528E+03  1.17692E+02 -5.43169E+03
  2.15499E+03 -6.12414E+02  6.73405E+03  3.03840E+03  4.95352E+02  2.50127E+03 -4.09025E+03 -2.27045E+03
 -6.54864E+02 -2.75350E+03 -2.66063E+03 -5.52354E+03 -1.15579E+03  2.44851E+03 -4.51867E+02  3.62421E+02
 -2.39016E+03  5.32401E+03 -5.56931E+03 -2.87786E+03 -5.59870E+03 -4.16690E+02 -3.89729E+03 -4.02211E+03
 -1.88269E+03 -8.15698E+03 -3.89351E+03 -5.56557E+03  2.06284E+03 -6.54531E+03  4.24480E+03 -2.78333E+03
  7.59311E+03  4.48686E+02  1.21231E+03  2.91222E+03 -5.38259E+03 -2.31175E+03  1.65580E+02  5.23098E+03
 -3.75930E+03 -2.21734E+03  2.24735E+03 -2.26066E+03 -2.68390E+03 -1.83438E+03  3.36617E+03  3.49256E+03
  1.70023E+03  2.51681E+03 -3.84166E+03  2.37534E+03 -1.98133E+03 -2.82982E+03  9.01893E+02 -5.52273E+03
 -2.99154E+03  5.21688E+02  1.39999E+03  3.67486E+03  6.47424E+03  2.64056E+03  1.25860E+03  2.01029E+03
  3.74440E+02  4.26393E+03 -9.08963E+03  4.83522E+03 -3.75165E+03  5.49483E+03 -4.45880E+03 -2.46995E+03
  4.88772E+03 -7.51692E+02  3.53783E+03 -7.79531E+03  1.97127E+03 -9.98637E+03  3.94535E+03  1.56488E+03
  2.17856E+03  5.34907E+03  2.45559E+02 -3.20201E+03 -4.50846E+03  2.43790E+02 -3.20855E+03  1.52890E+03
  1.94563E+02  1.41167E+03  1.76493E+02 -2.64494E+03  4.55952E+03 -2.94792E+03  7.86338E+02 -2.55950E+03
 -3.05633E+03 -7.77942E+02 -3.44550E+03 -9.01130E+02 -4.11482E+03 -6.18632E+03  1.18050E+03 -2.09419E+03
  1.88187E+03 -5.85821E+03  9.07833E+02 -3.90992E+03  3.67679E+03  3.07688E+03  8.50781E+03  1.87842E+03
 -4.72870E+03  3.79123E+03 -3.18471E+03  4.55678E+03  5.32974E+01  9.48681E+02 -6.04649E+03  2.66453E+03
 -9.10458E+02 -1.39554E+03 -4.21950E+02  4.81545E+02  2.85858E+03 -3.03599E+03 -2.17355E+03 -2.51576E+03
 -6.37836E+03 -1.74988E+03  4.22876E+03 -2.63713E+03  4.14039E+03 -8.01464E+03  1.85992E+03 -1.12866E+03
  2.01796E+03  4.01261E+01  3.46969E+03 -2.62555E+03  4.06401E+03  3.54929E+03 -7.60972E+01 -5.04938E+02
