 $NMID ID='MM_0lb_SNR50_7hz_g40_29.RAW', FMTDAT='(8E13.5)'
 TRAMP=1., VOLUME=1. $END
  3.10692E+05 -1.67683E+03  3.40421E+05  2.48777E+05  7.88323E+04  3.38271E+05 -1.31200E+05  2.47891E+05
 -1.92788E+05  8.84246E+04 -1.08504E+05 -3.09828E+04 -4.86311E+02 -4.89945E+04  4.58391E+04 -1.00874E+04
  3.09453E+04  4.76092E+04 -1.91639E+04  7.83862E+04 -5.81816E+04  6.01758E+04 -8.62444E+04  3.77145E+04
 -7.66727E+04 -1.41231E+04 -6.76662E+04 -5.82667E+04 -1.14050E+04 -6.81968E+04  2.97353E+04 -5.12030E+04
  4.51457E+04  3.31941E+03  2.39581E+04  4.58315E+04 -2.89840E+04  4.83292E+04 -7.29475E+04 -3.28629E+03
 -5.68627E+04 -5.42410E+04  6.09742E+02 -8.90254E+04  2.91389E+04 -5.79872E+04  4.88366E+04 -2.55500E+04
  4.26392E+04  1.14993E+04  3.07671E+04  2.28645E+04  1.47880E+04  2.91570E+04  2.97124E+03  3.33928E+04
 -2.25508E+04  2.11304E+03 -1.41939E+04 -3.61585E+03  9.61008E+03 -7.12134E+03  2.40621E+04  1.53022E+04
  9.11333E+03  3.54495E+04 -3.27730E+04  4.11633E+04 -6.17284E+04  3.91330E+03 -5.31492E+04 -5.06944E+04
 -8.49790E+03 -5.48612E+04  3.92867E+04 -5.19263E+04  6.32040E+04 -8.07927E+03  3.41871E+04  3.45707E+04
 -9.27429E+03  3.34158E+04 -3.59022E+04  1.65085E+04 -3.47920E+04 -1.42749E+03 -1.93030E+04 -1.83801E+04
 -5.62543E+03 -7.25161E+03  2.14274E+03 -1.42967E+04  1.58475E+04 -3.16588E+04  1.78349E+04 -1.27073E+04
  8.24098E+03  9.89223E+03 -1.46892E+04  8.12195E+03 -2.20154E+04 -1.83508E+04 -1.14638E+04 -3.62973E+04
  2.69472E+04 -5.48639E+04  5.29039E+04 -2.20865E+04  4.10227E+04  1.83905E+04  2.11687E+04  5.08479E+04
 -2.15605E+04  3.80166E+04 -2.52168E+04 -4.84192E+02 -1.50059E+04 -2.36209E+04  1.07170E+04 -4.03108E+04
  4.04321E+04 -1.23208E+04  3.89730E+04  1.98731E+04  3.15801E+04  5.96090E+04 -8.16261E+03  6.10570E+04
 -3.01268E+04  4.23602E+04 -5.38168E+04  1.20065E+04 -4.82560E+04 -1.09276E+04 -2.70630E+04 -4.32920E+04
 -8.98471E+02 -3.96916E+04  3.00813E+04 -1.75613E+04  3.80198E+04  1.16469E+04  9.95768E+03  2.28403E+04
 -1.71475E+04  7.81540E+03 -1.17856E+04 -6.40142E+03 -9.39751E+02 -6.99443E+03  1.68919E+04  4.19424E+03
  2.91895E+04  1.85345E+04 -3.16225E+03  2.79742E+04 -2.07985E+04  9.57077E+03 -2.53116E+04  1.69484E+03
 -3.14517E+04 -1.78995E+04 -1.20233E+04 -2.66487E+04  7.22579E+03 -2.77044E+04  2.35089E+04 -3.11680E+04
  2.94373E+04 -1.34055E+04  3.75866E+04  4.67596E+03  2.55333E+04  2.39741E+04  3.23477E+03  4.08654E+04
 -2.19472E+04  3.51132E+04 -3.07542E+04  1.48439E+04 -2.59173E+04 -3.72136E+03 -1.01671E+04 -1.12080E+04
  9.90500E+03  5.56758E+03 -1.72124E+04  6.95184E+03 -1.86858E+04  4.36578E+03 -1.55259E+04 -1.17555E+04
 -1.26409E+04 -2.83216E+04  9.37695E+02 -2.98923E+04  1.68043E+04 -2.10297E+04  2.06754E+04 -3.48486E+03
  1.32649E+04  2.29770E+04  6.61145E+03  3.42613E+04 -1.21699E+04  1.35316E+04 -2.91360E+04 -5.27285E+02
 -2.18834E+04 -2.57808E+04  3.85541E+03 -2.92201E+04  1.79648E+04 -2.26120E+04  1.69030E+04 -2.72334E+03
  2.82315E+04  8.09920E+03  1.84751E+04  6.89610E+03  1.53861E+04  2.72937E+02  1.84416E+04 -6.87099E+03
  1.87888E+04 -2.28952E+03  2.48836E+04  1.52120E+04  2.14031E+04  3.41681E+04  5.80544E+03  4.80690E+04
 -2.80605E+04  4.31313E+04 -4.35178E+04  2.01909E+04 -4.69691E+04  3.10276E+03 -4.10850E+04 -1.92574E+04
 -1.57871E+04 -3.52131E+04  1.07104E+04 -3.75917E+04  2.69668E+04 -1.81457E+04  3.16406E+04  1.12334E+04
  1.17956E+04  2.28825E+04 -7.45065E+03  1.58156E+04 -2.29862E+04  1.62267E+03 -1.68878E+04 -1.34168E+04
  1.01253E+03 -1.90623E+04  1.10623E+04 -1.81792E+04  1.31024E+04  1.41425E+03  1.56893E+02  1.33289E+04
 -1.32475E+04  3.86806E+02 -1.35825E+04 -6.60474E+03 -3.10099E+03 -1.91153E+04  1.59201E+04 -2.21557E+04
  2.49688E+04 -1.25670E+04  3.33895E+04  6.25683E+03  2.60792E+04  2.07632E+04  1.84793E+04  3.80776E+04
  1.56771E+03  3.79974E+04 -1.92803E+04  2.02471E+04 -2.73005E+04  4.88896E+03 -1.47831E+04 -6.88107E+03
 -7.32190E+03 -5.09031E+03  5.95761E+03  4.01948E+02 -4.21122E+03  1.00811E+04 -4.12864E+03  3.96682E+03
 -1.55544E+04 -2.85172E+03 -1.91455E+04 -1.18395E+04 -6.11311E+03 -1.17844E+04  1.25971E+04 -1.66315E+04
  8.53693E+03 -4.93797E+03  2.00396E+04  1.05064E+04  4.90249E+03  3.74880E+03 -1.48716E+04 -6.79833E+03
 -5.47508E+03 -1.01923E+04 -7.04596E+03 -1.76208E+04  9.00546E+03 -1.54741E+04  2.31122E+04 -6.48524E+03
  2.57715E+04  3.22178E+03  1.61599E+04  1.73229E+04  5.31963E+02  1.83524E+04 -1.95214E+04  2.49416E+04
 -1.01149E+04  5.62509E+03 -5.01285E+03 -5.94339E+03  3.75636E+03 -6.44905E+03  1.30357E+04  1.76359E+03
  1.25635E+04  5.65683E+03 -6.59257E+03  2.18238E+04 -1.38963E+04  1.29251E+04 -2.32765E+04 -3.92016E+02
 -1.29410E+04 -8.52361E+03 -4.05834E+03 -7.53589E+03  1.23195E+04 -1.04868E+04  1.40815E+04  7.79633E+03
  5.31240E+01  1.13981E+04 -5.49393E+03  1.47516E+04 -1.72392E+04  1.84020E+03 -5.25714E+03 -5.11533E+03
 -8.57150E+03 -1.72989E+04 -1.32969E+03 -2.34714E+04  2.52004E+04 -9.18238E+03  2.04154E+04  6.55859E+03
  9.71599E+03  1.88095E+04 -2.79438E+03  2.21587E+04 -1.35651E+04  1.77302E+03 -1.62300E+04 -3.28362E+03
 -1.34768E+04 -1.21237E+04 -4.92111E+03 -1.50506E+04  4.81536E+03 -1.20283E+04  1.33863E+04 -1.74885E+03
  2.26781E+03  1.65893E+03  1.14805E+03  2.04109E+03 -1.65624E+03 -4.97917E+03 -1.94124E+03 -6.13658E+03
  1.37562E+04  2.25485E+03  1.95238E+04 -4.82889E+02  2.18541E+04  1.20583E+04  1.16100E+04  2.69405E+04
 -4.16359E+03  2.27870E+04 -2.21777E+04  2.38280E+04 -2.35580E+04  1.41476E+03 -2.15812E+04 -1.47867E+04
 -1.09823E+04 -2.26180E+04 -1.16906E+03 -1.71506E+04  5.01008E+03 -1.26408E+04  3.37931E+03 -6.09543E+03
  9.37461E+03 -6.00478E+03  2.72029E+03 -4.26855E+03  7.59582E+03 -5.02486E+03  8.17746E+03 -3.80810E+02
  6.30885E+03  5.82398E+03  7.84989E+03  1.24502E+04 -3.20463E+03  8.74050E+03 -1.15540E+04  7.42132E+03
 -1.93192E+04 -3.05027E+03 -1.28387E+04 -1.85466E+04  4.08335E+03 -8.49058E+03  1.23190E+04 -1.79469E+04
  1.79670E+04 -1.80339E+04  1.70374E+04  3.84478E+03  1.85136E+04  1.34311E+04  5.69423E+02  1.82067E+04
 -1.52886E+04  2.00206E+04 -1.33384E+04  9.69563E+03 -1.28016E+04 -2.75501E+03 -3.31902E+03 -3.64276E+03
  5.97647E+02 -7.17029E+03 -5.11296E+03  3.77975E+03 -9.00391E+03  6.56306E+02 -1.04719E+04 -3.09327E+03
 -1.68502E+04 -1.36025E+04 -3.09426E+03 -1.98577E+04  1.47868E+04 -1.74508E+04  2.32758E+04 -7.72490E+03
  1.58754E+04  1.03394E+04  6.17312E+03  2.31430E+04 -4.34448E+03  1.79234E+04 -1.60175E+04  4.22281E+03
 -1.69131E+04  8.19249E+02 -1.22955E+04 -1.39736E+04 -7.31926E+03 -1.24691E+04  1.19909E+04 -5.57792E+03
  7.28676E+03 -1.19576E+03  1.05386E+04 -6.61995E+02  3.81423E+03  1.45817E+04  1.25104E+04  1.38738E+04
  2.55103E+03  9.82897E+02  7.00464E+03  1.93316E+03  3.98292E+03  5.39681E+03  7.72790E+03  7.94651E+03
  3.24668E+02  1.44133E+04 -9.76444E+03  1.29047E+04 -2.38959E+04  1.65756E+03 -1.52162E+04 -8.01396E+03
 -9.81582E+03 -2.03515E+04  1.53258E+03 -2.18500E+04  1.08657E+04 -9.93376E+03  1.86014E+04 -8.40820E+02
  1.32516E+04  6.48415E+03  4.40887E+03  8.27509E+03 -8.66576E+03  1.73366E+04 -4.61919E+03 -2.95611E+03
 -1.02515E+04 -8.70663E+03 -1.12526E+03 -9.83100E+03  4.06998E+03 -5.03687E+03 -5.87907E+02  3.82688E+03
  7.01145E+03 -2.57385E+02 -2.32765E+03  6.64862E+02 -5.68192E+03  7.03697E+03 -8.49786E+03 -2.60340E+03
  2.29963E+03 -4.36558E+03  8.93349E+03  3.51496E+03  8.09641E+03  1.32249E+04 -5.05127E+03  1.30383E+04
 -8.00104E+03  1.66509E+04 -9.77615E+03  3.32612E+03 -1.03308E+04 -6.04532E+03 -6.80888E+03 -8.87647E+03
  1.31124E+02 -6.87897E+03  2.45694E+03  1.68073E+03  7.13628E+03  5.50202E+03  1.20177E+03  4.01967E+03
 -5.22690E+03  8.19282E+03 -1.16651E+04 -4.19096E+03 -6.48416E+03 -1.10008E+04  2.48777E+03 -4.82503E+03
  9.63616E+03 -3.30450E+03  1.06872E+04  9.84534E+02  4.13809E+03  4.44943E+03  1.59712E+03  5.13855E+03
  2.86936E+03  5.57800E+03 -1.18281E+04 -1.16807E+04  4.97892E+03 -7.85495E+03  5.70227E+03 -5.52049E+03
  6.29653E+03  1.97381E+03  1.33622E+04  1.24658E+04  2.53633E+03  2.09271E+04 -7.89907E+03  1.01552E+04
 -7.17038E+03  5.95020E+03 -8.21583E+03 -3.75984E+03 -6.30185E+03 -3.59085E+03  1.76813E+03 -8.90210E+03
  3.50579E+03 -9.56609E+03  5.30662E+03  3.46154E+03  9.32397E+03  9.81627E+03 -2.17120E+03  6.98387E+03
 -1.61899E+03  1.23865E+03 -2.14139E+03  2.12027E+03  2.48728E+03  9.14952E+03  1.45803E+03 -2.59051E+03
  1.59665E+03  5.28490E+03 -5.31819E+03  4.29472E+03 -1.61050E+04 -1.28689E+03 -1.39865E+04 -1.01051E+04
 -4.35365E+03 -1.02344E+04  5.78896E+03 -2.67448E+04  1.10664E+04 -2.04242E+04  2.06590E+04 -1.00894E+04
  1.66142E+04  6.98543E+03  7.81983E+03  1.13442E+04  1.57092E+03  1.47122E+04 -7.54447E+03  1.29767E+04
 -9.96449E+03 -2.81742E+02 -5.14098E+03 -4.42852E+03 -1.32478E+03 -1.57223E+02  7.41251E+03  3.61235E+02
  1.93030E+03  5.11661E+03 -1.98163E+03  2.52662E+02 -9.93617E+01 -1.79972E+03  9.87825E+03 -1.06809E+03
  5.54708E+03 -7.35130E+03  9.61120E+03  2.77606E+03  6.73176E+03  4.09489E+03  9.35627E+01  2.32375E+04
 -3.12476E+03  1.39490E+04 -1.96889E+04  4.47056E+03 -2.77925E+04 -1.98896E+03 -1.54382E+04 -2.05631E+03
 -3.39956E+03 -1.05920E+04  1.00731E+04 -1.33515E+04  8.27702E+03 -8.05350E+03  1.14635E+04  3.52211E+02
  6.76896E+03  4.05029E+03 -4.55150E+02  9.15284E+03  3.23717E+02 -3.58026E+03 -2.88315E+03 -7.48133E+03
 -1.01198E+03 -8.04556E+03  4.31428E+03 -3.05582E+02  8.51827E+03 -8.64344E+02  5.01386E+03  1.25068E+04
 -5.42396E+03  8.74842E+03 -9.80273E+03 -1.02792E+03 -5.45286E+03 -4.18268E+03 -2.62560E+03 -1.25481E+04
  4.39191E+03 -7.95532E+03  7.47768E+03 -7.92323E+03  1.07341E+04  7.61761E+03  5.27412E+03  6.51394E+03
  7.82954E+03  9.76487E+03 -6.05114E+03  6.37887E+03 -5.04973E+03  1.17597E+03 -2.35995E+03 -8.47640E+02
 -4.59821E+03 -4.84290E+03 -7.78206E+02  2.07220E+03 -4.50746E+03  8.85407E+03  5.22771E+02 -4.91698E+03
 -5.81734E+03 -7.54440E+03 -6.43509E+03 -1.00162E+04 -2.79407E+03 -1.05141E+04  7.21746E+03 -2.00325E+03
  6.80469E+03 -1.83960E+03  6.64660E+03  9.66759E+03  7.35068E+02  8.60609E+03 -1.23978E+04  7.68070E+03
