 $NMID ID='MM_0lb_SNR50_17hz_g55_19.RAW', FMTDAT='(8E13.5)'
 TRAMP=1., VOLUME=1. $END
  3.09192E+05 -8.66006E+02  3.37123E+05  2.51940E+05  8.56704E+04  3.34087E+05 -1.32443E+05  2.51360E+05
 -1.94294E+05  8.22201E+04 -1.09727E+05 -3.21109E+04  3.48859E+03 -5.02137E+04  5.58111E+04  3.12076E+03
  3.30492E+04  5.51842E+04 -1.60066E+04  7.65750E+04 -5.81418E+04  6.17178E+04 -8.05678E+04  2.95797E+04
 -7.68449E+04 -1.19923E+04 -5.76172E+04 -5.12437E+04 -1.58917E+04 -7.25947E+04  2.47438E+04 -4.84266E+04
  4.05842E+04  7.62438E+03  1.59229E+04  5.19467E+04 -3.69184E+04  4.63105E+04 -6.56235E+04 -5.32518E+03
 -5.71295E+04 -5.38291E+04 -4.67366E+03 -7.40258E+04  3.77423E+04 -5.38888E+04  4.71183E+04 -1.74750E+04
  3.97192E+04  8.26494E+03  2.93380E+04  2.43497E+04  1.68533E+04  2.91973E+04 -6.08852E+03  2.60000E+04
 -2.07322E+04  1.58520E+04 -1.49059E+04 -3.16236E+03  1.13937E+04 -1.11961E+04  1.65990E+04  9.15855E+03
  1.08152E+04  3.56241E+04 -3.18420E+04  3.33191E+04 -6.48216E+04  2.77095E+03 -6.11130E+04 -4.65876E+04
 -1.40505E+04 -6.49124E+04  3.76756E+04 -4.79013E+04  6.12360E+04 -9.75904E+02  3.57279E+04  2.91294E+04
 -4.67739E+03  3.34428E+04 -2.47247E+04  1.73221E+04 -3.30753E+04 -8.47014E+03 -2.02602E+04 -8.86735E+03
 -1.02992E+04 -1.28369E+04 -2.45726E+03 -1.22704E+04  1.07262E+04 -2.08322E+04  1.30744E+04 -1.29599E+04
  1.18270E+04  3.34496E+03 -5.94519E+03  1.19468E+04 -2.03609E+04 -3.38373E+03 -4.04817E+03 -2.95035E+04
  2.72674E+04 -4.02615E+04  4.20549E+04 -2.02507E+04  4.21878E+04  2.41011E+04  1.64478E+04  3.96601E+04
 -1.67484E+04  3.01747E+04 -2.62899E+04 -2.63663E+02 -1.18373E+04 -2.79937E+04  2.25450E+04 -3.63697E+04
  4.06869E+04 -7.21623E+03  3.21639E+04  2.42638E+04  1.63064E+04  4.34543E+04 -5.08118E+03  4.68120E+04
 -2.92995E+04  3.58035E+04 -4.01319E+04  1.04318E+04 -4.15271E+04 -1.78920E+04 -2.22656E+04 -3.68252E+04
  3.66175E+03 -4.12499E+04  3.32842E+04 -1.34288E+04  2.77723E+04  1.30272E+04  5.52280E+03  1.66355E+04
 -1.26177E+04  3.81372E+03 -1.14149E+04 -1.14759E+04  2.23117E+03 -1.19040E+04  1.93120E+04  9.51097E+03
  1.03571E+04  2.09616E+04 -1.63537E+03  2.30457E+04 -2.37981E+04  7.28079E+03 -2.86175E+04 -7.65331E+03
 -1.72943E+04 -1.15704E+04 -9.76490E+03 -1.34613E+04 -9.05726E+02 -1.91487E+04  1.66003E+04 -1.98825E+04
  2.22520E+04 -1.41095E+04  3.09321E+04  4.88071E+03  2.46648E+04  2.04994E+04  4.33780E+03  3.45975E+04
 -1.36788E+04  2.81560E+04 -2.26027E+04  9.78627E+03 -2.32167E+04 -9.10276E+03 -5.99512E+03 -1.30162E+04
  1.44974E+03 -3.11404E+03 -5.66233E+03  3.75413E+03 -1.06430E+04  1.68820E+03 -1.99032E+04 -3.62624E+02
 -7.99362E+03 -1.30347E+04  3.28228E+03 -1.82249E+04  1.54951E+04 -1.50315E+04  1.98787E+04  5.23733E+02
  1.37059E+04  1.10144E+04 -1.10368E+03  1.94882E+04 -1.35134E+04  1.02993E+04 -1.84804E+04 -5.68041E+03
 -1.21346E+04 -1.74253E+04  5.03417E+03 -2.26163E+04  1.00159E+04 -1.64375E+04  2.11904E+04 -8.39340E+02
  1.75507E+04 -2.02195E+03  1.30316E+04  2.60458E+03  6.54700E+03  6.22737E+02  7.88010E+03 -2.77656E+03
  1.55836E+04  7.20845E+03  1.66480E+04  1.22591E+04  1.48064E+04  2.45228E+04 -8.99375E+03  2.83524E+04
 -1.75917E+04  2.20101E+04 -2.07973E+04  1.27629E+04 -2.95635E+04 -3.61573E+02 -2.52964E+04 -1.71660E+04
 -1.00583E+04 -2.37618E+04  7.49295E+03 -2.07592E+04  1.78065E+04 -7.44603E+03  2.00490E+04  5.79784E+03
  4.56164E+03  1.44590E+04 -7.15545E+03  1.36067E+04 -1.69878E+04  1.82682E+03 -1.02863E+04 -8.93350E+03
 -1.07168E+02 -1.72721E+04  7.18283E+03 -1.20241E+04  1.26510E+04 -4.63116E+03  2.31304E+03  5.34804E+03
 -2.53608E+03  4.58364E+03 -1.10106E+04 -4.51261E+03  1.62408E+02 -1.19241E+04  9.99783E+03 -1.01323E+04
  1.53891E+04 -8.73626E+03  1.54633E+04  4.38995E+03  1.63630E+04  8.84016E+03  8.14173E+03  1.53153E+04
 -1.44559E+03  2.00966E+04 -1.33944E+04  1.17321E+04 -1.09264E+04  2.78895E+03 -9.15861E+03 -2.70078E+02
 -6.14692E+03 -7.86122E+03  1.50651E+03 -1.22150E+03  8.61163E+02  4.05723E+02 -4.22744E+03  2.78602E+03
 -9.37705E+03 -3.74420E+03 -9.22341E+03 -6.53965E+03 -6.98956E+03 -1.08496E+04 -6.22542E+02 -1.13756E+04
  6.21168E+03 -4.62107E+02  2.35919E+03  2.21376E+03 -3.16404E+03  4.40878E+03  2.04299E+02 -4.24319E+03
 -4.64596E+03 -6.54069E+03 -1.00592E+03 -6.34039E+03  3.85724E+03 -5.78024E+03  1.11155E+04 -4.41064E+03
  1.75825E+04  3.53145E+03  1.48101E+04  5.55970E+03  2.96185E+03  4.25604E+03 -8.74725E+03  5.09680E+03
 -7.52857E+03  6.79758E+02 -6.60027E+03 -6.87653E+03 -3.55355E+03 -1.51216E+03  1.49210E+03  1.48021E+03
  6.24768E+03  2.29976E+03  1.83423E+03  9.87074E+03 -7.11781E+03  5.84995E+03 -1.10949E+04  2.99277E+03
 -5.28300E+03 -4.28073E+03 -2.05996E+03 -6.64123E+03  5.00637E+03 -9.87172E+02  5.53530E+03  2.08613E+03
  3.66200E+03  4.25096E+03 -7.37352E+03  5.88619E+03 -1.06662E+04  4.84290E+03 -6.12991E+03  9.94170E+02
 -1.31761E+03 -8.07868E+03  4.34793E+03 -5.43229E+03  8.17319E+03 -9.30183E+03  1.07613E+04  6.34753E+02
  2.29013E+03  3.65019E+03  5.11490E+03  1.12685E+04 -8.26355E+03  3.00654E+03 -5.73820E+03 -4.41216E+03
 -1.10542E+04 -4.50485E+03 -5.11588E+03 -5.91626E+03  2.51717E+03 -6.64450E+03  4.93339E+03 -2.36432E+03
  3.44090E+03  3.31529E+03 -8.52433E+02  1.71140E+03  3.89215E+03 -3.78970E+03  4.77904E+03  2.47324E+02
  4.12568E+03 -2.66007E+03  6.09677E+03 -4.24690E+03  2.56864E+03  3.06611E+03  6.15361E+03  6.09625E+03
 -2.79007E+03  1.04118E+04 -9.13652E+03  3.87072E+03 -1.73186E+04 -1.44103E+03 -7.35904E+03 -9.98015E+02
 -9.39323E+03 -5.49053E+03  8.39073E+02 -5.05792E+03  1.96746E+03 -4.59372E+03 -3.26029E+02 -2.44872E+03
 -1.07964E+03 -1.71501E+03  4.04041E+03 -1.04878E+02  5.62840E+03 -1.38059E+03  6.46425E+03 -2.51027E+02
  4.69972E+03 -3.44179E+03  3.05930E+03  3.86524E+03 -1.54414E+03  1.87369E+03 -5.23269E+03  3.40211E+03
 -5.17357E+03 -3.33917E+03  1.94118E+03 -7.27041E+03  2.65020E+03 -6.61988E+03  3.28914E+03 -4.81731E+03
  5.89714E+03 -1.68891E+03  7.73752E+03  1.81423E+03  8.20354E+03  5.13112E+03 -2.42729E+02  3.46556E+03
 -4.88467E+03  5.19576E+03 -1.01103E+03  3.63895E+03 -5.47031E+03 -4.98618E+02  2.56910E+02 -2.30095E+03
  5.67079E+02  1.64495E+03 -1.86622E+03  1.92466E+03 -2.73659E+03  1.81825E+02 -3.15760E+03 -1.86821E+03
 -4.46878E+03 -4.81576E+03  1.36617E+03 -2.92656E+03  3.53968E+03 -5.35671E+03  6.69658E+03 -1.54505E+03
  6.73121E+03  1.93854E+03  4.91315E+03  1.16826E+03 -2.61299E+03  7.90979E+03 -5.34183E+03 -2.00903E+03
 -8.19219E+03 -1.07786E+03 -5.28575E+03  9.42136E+02 -4.93312E+02 -3.58445E+03 -3.51954E+03 -2.88847E+03
  3.21716E+03  1.09060E+03  5.67495E+03  2.32383E+03 -1.01324E+03 -2.49617E+03  5.65596E+02 -2.93659E+01
  4.03267E+03  1.28374E+03  1.06585E+03  2.47082E+03  3.56418E+03  1.37132E+03  6.48552E+02  6.38204E+03
 -2.63026E+03  3.02071E+03 -5.67553E+03  6.36784E+03 -3.90789E+03  3.43352E+03 -9.17497E+02 -2.43227E+03
 -1.23688E+03 -5.84776E+03  3.08816E+02 -4.86382E+03  3.36035E+03 -2.30159E+03  1.21090E+03 -1.59228E+03
  4.28538E+03  2.84881E+03  7.41117E+02  3.08176E+03 -6.16791E+03  4.79580E+02 -3.94685E+03  3.57135E+03
 -5.09144E+03  3.91495E+03 -1.99265E+03  1.21581E+03  2.26498E+02 -1.00927E+03 -1.74345E+03  5.49254E+02
 -3.55628E+02 -8.15758E+02  1.97426E+03  4.51990E+03 -3.46189E+02  5.67352E+03 -1.65864E+03 -1.13559E+03
 -1.76966E+03  9.18626E+02  8.48755E+03 -2.31545E+03 -1.42356E+02  2.66326E+03  6.72256E+02  1.13814E+03
 -2.95000E+03  5.70911E+03 -2.50775E+03 -2.96136E+03 -2.94085E+03  1.96778E+02  1.10441E+03 -1.62875E+03
  3.50950E+02  1.31486E+03  1.95113E+03  5.49363E+03  1.50719E+03  1.46364E+03 -1.09734E+03  2.96164E+03
 -1.03158E+03 -1.49188E+03 -5.10737E+03  2.49325E+03  7.17032E+02 -2.26252E+03  2.02029E+03 -2.41715E+03
  1.55226E+03 -8.83207E+02  2.35014E+03  5.75293E+03  3.24654E+03 -1.74129E+03  2.28763E+02 -2.71431E+02
  6.42072E+02 -2.63123E+02 -4.03434E+02  6.90526E+02  1.63512E+03  1.26593E+03  2.69989E+03  1.37553E+03
  3.17872E+03  7.40535E+03  4.55390E+03 -4.29617E+02 -7.45306E+01  7.97797E+02  1.14557E+03  3.54447E+03
 -3.46080E+03 -1.16747E+03 -1.26278E+03  4.21185E+02  3.85280E+03 -1.56576E+03 -1.71398E+03 -3.24032E+03
  6.24188E+02  6.24019E+02 -2.79399E+03  9.13372E+01  3.73269E+03 -2.01485E+03  2.08387E+03  2.75888E+02
 -2.73654E+03 -8.06425E+02 -1.39047E+03  1.77978E+03 -6.57667E+03  3.20777E+03 -3.38504E+03  9.31472E+03
 -4.84351E+02  3.82540E+03  1.77004E+03 -7.13196E+02 -1.67714E+03 -1.41037E+03 -1.84198E+03 -5.27330E+02
 -4.65140E+03 -2.59537E+03 -3.89241E+02  3.01464E+03  8.20889E+02  3.48617E+02  1.61916E+03 -2.15182E+03
  2.76441E+03 -1.45038E+03  1.03058E+03  1.86063E+03 -4.35984E+03 -2.51226E+03  5.06056E+02  4.29711E+03
 -2.75706E+03  5.41456E+03  3.90461E+02  7.28469E+02 -1.83894E+03 -1.74041E+03 -1.77040E+03  1.41875E+03
 -3.55016E+03  4.49825E+03 -3.71085E+03  1.77286E+03  4.35419E+03 -1.30706E+03  1.75394E+03 -2.15276E+03
  1.85934E+03 -1.04518E+03  8.55265E+02  6.06371E+02  3.77605E+02  4.43325E+01  9.32318E+02  1.35105E+02
 -3.91052E+02  1.36483E+03 -5.92532E+03 -2.57363E+03 -1.64278E+03 -5.89565E+02 -5.37534E+03 -3.81324E+03
 -1.29367E+03 -4.07539E+03 -1.41610E+03 -6.34092E+03 -1.70024E+03  8.03295E+02 -3.26235E+03  1.11659E+03
  7.10470E+03 -6.25350E+03  3.23221E+02  8.19666E+02 -3.65900E+03  8.29247E+02  5.96340E+02 -7.51413E+02
 -4.09736E+03  1.60919E+03 -3.59294E+03  6.16058E+02 -5.03099E+02 -2.95377E+03 -1.60018E+03 -3.99367E+02
  9.73278E+02  5.36508E+03 -2.49161E+02  3.13666E+03 -4.79269E+03  2.45558E+03 -1.10337E+03 -1.47303E+03
 -2.81534E+03 -1.27898E+02 -5.36046E+02  2.84932E+03  6.01079E+00 -4.81566E+03  2.03933E+03 -8.31581E+02
 -1.49846E+03 -3.52041E+03  2.08240E+03  3.65944E+03 -3.77395E+02  2.61620E+03  4.83669E+03 -4.30021E+02
  1.56249E+03 -9.99432E+02  1.62444E+03  8.73508E+02 -5.63891E+03  5.89410E+03 -3.63805E+02 -8.78186E+02
 -2.87721E+03  2.96932E+02 -1.94304E+02  1.96787E+03  5.24472E+03  1.04938E+03 -2.73287E+00  9.79410E+02
 -9.94784E+02 -1.61407E+03 -3.37297E+02 -2.67872E+03 -7.50497E+01 -1.15948E+02 -1.66751E+03 -8.72933E+02
