 $NMID ID='MM_0lb_SNR50_20hz_g60_7.RAW', FMTDAT='(8E13.5)'
 TRAMP=1., VOLUME=1. $END
  3.11029E+05 -1.35185E+03  3.37693E+05  2.50661E+05  8.31108E+04  3.36062E+05 -1.32403E+05  2.52961E+05
 -1.87782E+05  8.41650E+04 -1.15631E+05 -3.23768E+04  1.07925E+03 -4.77948E+04  5.37598E+04  4.19732E+03
  3.44107E+04  5.49651E+04 -2.00530E+04  7.31019E+04 -6.05148E+04  6.44763E+04 -8.25357E+04  3.59429E+04
 -8.05354E+04 -7.39780E+03 -5.91904E+04 -5.10172E+04 -1.46005E+04 -7.08450E+04  2.36555E+04 -4.75496E+04
  3.67492E+04  6.21705E+03  1.88496E+04  4.54675E+04 -3.37416E+04  4.75701E+04 -6.85072E+04  1.77656E+03
 -5.39813E+04 -5.52493E+04 -4.86636E+03 -7.59644E+04  3.25716E+04 -5.48524E+04  4.75309E+04 -1.56719E+04
  4.11513E+04  9.23487E+03  2.91648E+04  2.41578E+04  1.05345E+04  3.07399E+04 -6.44551E+03  2.37699E+04
 -1.92573E+04  1.26951E+04 -1.72023E+04 -6.33827E+03  2.65662E+03 -6.03322E+03  1.96376E+04  8.87269E+03
  8.29877E+03  3.34334E+04 -3.22222E+04  3.73080E+04 -6.31846E+04 -5.50203E+02 -6.02858E+04 -4.08806E+04
 -7.63097E+03 -6.14121E+04  3.91897E+04 -4.54993E+04  5.77048E+04 -1.18922E+03  3.50378E+04  3.27531E+04
 -7.54079E+03  3.34130E+04 -3.24873E+04  1.58227E+04 -3.13183E+04 -3.39890E+03 -1.70448E+04 -9.13165E+03
 -5.53096E+03 -1.20060E+04 -1.96416E+03 -1.81219E+04  7.08397E+03 -2.13334E+04  1.41341E+04 -1.72821E+04
  1.06809E+04  3.08539E+03 -1.89584E+03  1.26574E+04 -1.93433E+04 -6.32338E+03 -8.04929E+03 -3.05173E+04
  2.19563E+04 -4.10148E+04  4.37873E+04 -2.16723E+04  4.14408E+04  1.65590E+04  1.62195E+04  4.32451E+04
 -1.75816E+04  3.02826E+04 -2.60335E+04  5.84701E+03 -3.96893E+03 -2.80690E+04  1.91837E+04 -3.31993E+04
  3.86408E+04 -8.17582E+03  3.38983E+04  2.21690E+04  1.26796E+04  4.53933E+04 -5.17362E+03  4.73177E+04
 -2.89681E+04  3.47419E+04 -4.19169E+04  5.21469E+03 -4.02272E+04 -1.26716E+04 -1.75399E+04 -3.89825E+04
  7.04504E+03 -3.27933E+04  2.94943E+04 -1.30686E+04  2.71258E+04  6.62820E+03  1.21188E+03  1.64842E+04
 -1.29044E+04  5.52643E+03 -1.41182E+04 -5.10098E+03  7.14732E+03 -1.17857E+04  1.84037E+04  8.32263E+03
  1.43419E+04  2.22337E+04 -1.20585E+04  2.12012E+04 -2.39294E+04  5.75470E+03 -3.19196E+04 -1.72344E+03
 -1.52879E+04 -1.86320E+04 -3.44243E+03 -1.53651E+04  5.32467E+03 -1.89915E+04  1.03095E+04 -1.60311E+04
  2.26232E+04 -1.25267E+04  3.24402E+04 -9.01869E+02  1.68047E+04  1.40604E+04  2.08118E+03  3.00552E+04
 -1.59057E+04  2.54572E+04 -2.62534E+04  7.82617E+03 -1.72317E+04 -7.67037E+03 -4.12715E+03 -1.08606E+04
  2.02087E+03 -3.13720E+03 -1.89925E+03  3.89581E+03 -1.10013E+04  3.67883E+03 -1.47871E+04 -8.82162E+03
 -8.36364E+03 -1.59332E+04  3.97358E+03 -2.25582E+04  1.43999E+04 -1.48848E+04  1.33183E+04 -2.22802E+03
  1.18775E+04  1.13156E+04 -1.91481E+03  1.79049E+04 -1.04463E+04  7.95910E+03 -1.79401E+04 -5.24894E+03
 -1.24194E+04 -1.44456E+04  2.03669E+03 -2.05474E+04  9.15928E+03 -1.56231E+04  1.70287E+04 -1.01654E+04
  1.61242E+04  3.20115E+03  1.18096E+04  1.00736E+03  3.52647E+03 -1.92518E+02  8.90586E+03  1.34937E+02
  9.26174E+03  5.37433E+03  1.49362E+04  1.27846E+04  9.89533E+03  2.48646E+04 -5.64055E+03  2.47257E+04
 -2.30427E+04  2.06439E+04 -2.36549E+04  8.28976E+03 -2.27728E+04 -3.52524E+03 -1.47743E+04 -1.42466E+04
 -1.06134E+04 -1.62293E+04  9.96403E+03 -2.13490E+04  1.57997E+04 -1.13543E+04  1.83522E+04  6.06924E+03
  7.53473E+03  1.39382E+04 -4.33113E+03  1.24379E+04 -1.70685E+04  8.90698E+02 -1.08721E+04 -1.32065E+04
 -4.42759E+02 -1.32643E+04  5.78032E+03 -1.35851E+04  6.59515E+03 -4.63495E+03  4.47786E+03 -5.96454E+01
 -5.15124E+03  2.35671E+03 -6.35363E+02 -6.13752E+03  1.03305E+03 -7.71391E+03  1.10185E+04 -9.39507E+03
  1.00316E+04 -6.41524E+03  1.01855E+04  3.19184E+03  1.01428E+04  7.76237E+03  5.33242E+03  1.80812E+04
  2.15907E+03  1.50540E+04 -9.33804E+03  1.09859E+04 -1.27973E+04 -4.78199E+02 -7.68771E+03 -1.65968E+03
 -4.79639E+03 -4.44917E+03  1.03083E+03 -2.44966E+03 -4.74051E+03  1.27146E+03 -3.49028E+03  3.32214E+03
 -8.80421E+03 -3.59111E+03 -8.47364E+03 -6.48969E+03 -8.72072E+03 -8.11891E+03  3.83753E+03 -1.02567E+04
  9.01616E+03 -2.55048E+03  5.94539E+03  2.24469E+03 -3.76371E+03  7.90228E+03 -6.57264E+03 -7.86521E+02
 -1.16511E+03 -7.39131E+03 -2.95701E+02 -1.18328E+04  6.61550E+03 -9.90368E+03  1.14004E+04 -6.64181E+03
  1.00876E+04  4.54004E+01  4.51026E+03  4.25319E+03  2.75044E+01  9.84121E+03 -5.91293E+03  7.93539E+03
  1.45107E+03 -1.22222E+03 -4.00712E+03  2.49123E+03  4.81437E+03 -3.58401E+02  3.95670E+03 -4.62973E+02
  1.08828E+03  2.16914E+03  2.80627E+03  6.43746E+03 -3.74559E+03  4.48026E+03 -6.28897E+03  4.02188E+03
 -1.70238E+03 -4.18288E+03 -4.74845E+02 -6.64732E+03  6.83754E+02 -5.57070E+03  5.32093E+03  4.89922E+02
  1.43454E+03  2.25263E+03 -4.61483E+03  3.56845E+03 -5.58594E+03  3.47500E+03 -2.97290E+03 -1.02950E+03
 -2.87900E+03 -6.29206E+03  1.55993E+03 -8.52473E+03  8.81232E+03 -1.59173E+03  6.37099E+03  5.76058E+03
  5.62437E+03  3.06105E+03 -1.70351E+03  6.13565E+03 -2.11686E+03  4.06099E+03 -7.71651E+03 -2.04513E+03
 -3.31274E+03 -2.74827E+03  3.00374E+02 -5.72825E+03 -7.66263E+02 -3.59621E+03  3.48754E+03 -1.63436E+03
  1.20940E+03  1.76986E+03 -1.80343E+03  5.27522E+02  3.14542E+02  5.67088E+02 -1.62453E+03 -6.32606E+03
  5.71627E+03 -2.41984E+03  6.15127E+03  3.42738E+03  6.83727E+03  2.49285E+03  4.73115E+03  9.07016E+03
  3.80929E+02  6.78300E+03 -1.10240E+04  1.85316E+03 -7.20674E+03 -2.69062E+03 -6.14787E+03 -6.69731E+03
  8.40706E+00 -1.74506E+03 -1.75048E+03 -6.79486E+03  1.75801E+03 -2.38961E+02  2.08971E+03 -1.89445E+03
 -1.29880E+03  2.18408E+03 -2.79372E+02 -2.20431E+02  4.99786E+03 -5.07124E+03  1.88942E+03  5.28557E+01
  5.90057E+03  1.68751E+03 -1.66378E+03  8.67330E+02 -1.74172E+03 -2.29035E+02  6.83289E+02  5.63643E+03
 -1.32102E+03  2.10992E+03 -4.33035E+03  2.04240E+02  9.84955E+01 -1.33019E+03  4.22855E+03 -6.99776E+03
  3.91597E+03 -1.72627E+03  5.32623E+03  4.83519E+03  2.52673E+03  9.59893E+03  3.53102E+03  7.42819E+03
  5.43163E+02  5.64644E+03 -5.39637E+03  6.55516E+02 -1.00036E+03  2.13732E+03 -1.28822E+03  1.58761E+03
  2.93260E+03  7.52220E+02 -4.46619E+02  2.04338E+03 -3.76334E+03  9.46935E+01 -5.77843E+03 -1.60858E+03
 -9.26030E+02 -8.22547E+03  1.45275E+03 -5.05810E+02  2.69295E+03 -4.57535E+03  4.31763E+02 -1.84428E+03
  4.20345E+02  1.72781E+03  1.76470E+03  4.07560E+02  1.13900E+03  2.73284E+03 -2.46861E+03  3.11580E+03
 -3.47540E+03  1.56278E+03 -5.62672E+02  2.31315E+03  8.80002E+02 -4.67178E+03  4.27889E+03 -2.77128E+03
 -2.01915E+01 -4.62924E+02 -1.59456E+03 -1.93155E+03  4.94947E+03  9.81591E+02  4.82716E+03  2.38958E+03
  3.58660E+03 -5.22150E+02  2.38647E+03  3.18059E+03  3.20014E+03 -5.26217E+02 -4.60053E+02  7.46312E+02
  1.11599E+03  1.45266E+03 -3.56226E+03  6.73253E+03 -3.50312E+03  4.28786E+03 -2.48058E+03  1.39908E+03
  5.45300E+02  4.90916E+02 -1.92015E+03 -3.05419E+03 -1.41382E+03 -2.41188E+03  6.14718E+02 -8.19073E+03
  3.35375E+03 -1.88157E+03  1.51769E+03  2.82635E+02 -3.32246E+03  4.56334E+01 -1.04253E+03  2.32479E+03
 -5.13177E+03 -2.47040E+03 -1.07613E+03 -2.70130E+03 -1.49793E+03 -4.62329E+03  2.50664E+03 -1.03558E+02
  4.00304E+03 -6.45685E+00  7.97771E+02  5.08524E+02  8.64711E+02  2.33988E+03  5.74890E+00  6.99430E+02
 -6.50472E+02 -5.64706E+02  6.30553E+03  2.05376E+03 -3.42216E+02  5.52826E+03  7.02289E+02  3.23318E+03
  8.23730E+02  3.99950E+03 -4.18635E+02  3.39180E+03 -2.22807E+03 -2.24998E+03  2.09597E+03 -6.69313E+02
  1.46310E+03 -7.06844E+02  2.44747E+02  1.06529E+03  1.94997E+03  8.28080E+02  2.40540E+03  3.30693E+03
 -2.18344E+03 -2.68107E+03  2.25169E+02 -6.74181E+03 -3.36480E+03 -3.72323E+03 -1.51942E+03 -1.42503E+03
 -1.19986E+03  3.12384E+03  7.51653E+02  3.47770E+03  6.21768E+02 -7.47807E+02  4.02044E+02  5.72661E+03
 -5.28672E+03  2.24164E+03 -6.90307E+02 -4.68388E+02 -4.02807E+03  2.28812E+03 -3.34512E+02  3.29986E+03
  4.09565E+03 -5.95563E+02  3.50322E+03 -2.71953E+03  3.65426E+02  5.69171E+03  3.44620E+02  9.84903E+02
 -1.70410E+03  3.14782E+03 -3.54530E+02 -3.74322E+03 -1.26200E+03 -1.07109E+03 -1.91226E+03 -5.28816E+01
  8.19983E+02 -3.39747E+03  2.91400E+03 -1.00341E+02 -2.33236E+03 -4.56211E+02  1.04197E+03 -5.82428E+02
  2.19480E+03 -3.73530E+03 -2.43335E+03  1.80430E+03 -6.63074E+02 -4.75948E+02 -3.86435E+03  1.91006E+03
 -3.76849E+02 -1.76866E+03 -5.72531E+03 -2.44340E+03  2.14258E+03  9.22793E+02 -6.79441E+02  1.06778E+03
  9.29927E+02 -3.62776E+03  1.10564E+03 -2.33392E+03  3.44374E+03 -2.06090E+03 -2.68903E+03  4.73906E+03
  2.93308E+03 -1.04882E+03  1.68166E+03  3.24557E+03 -5.60972E+02  1.03251E+03 -2.22509E+03  7.45628E+02
  5.22131E+01  3.61817E+03 -1.73338E+03 -3.34123E+03  4.66370E+02  3.32450E+03  1.04536E+03 -3.48323E+03
 -7.37861E+02 -2.12026E+03  2.89457E+02 -2.68800E+03  6.29915E+02  1.71313E+03 -3.35905E+03 -2.01611E+02
  1.91960E+03  2.63834E+03  1.68056E+03  1.36368E+03  7.68515E+02  3.91033E+03 -3.25251E+03 -6.32648E+01
 -5.04555E+03  3.18015E+03  2.37884E+03 -4.62664E+02  6.04836E+02  6.87794E+02  4.68900E+03 -1.55813E+03
 -3.36152E+03 -8.85831E+02 -3.24356E+03  8.31508E+01  3.03444E+03  5.84524E+03 -8.49327E+02  3.13371E+03
  5.93832E+01  2.66949E+03  1.20088E+03 -2.31103E+01  3.02500E+03 -2.63332E+03 -3.39171E+02  1.68109E+03
  2.98622E+03 -9.39813E+02  2.93140E+02 -2.33583E+03 -1.51814E+03 -2.23478E+03  1.07411E+03 -2.59149E+03
  3.91111E+02 -1.37923E+02  1.69662E+02  1.03972E+03 -2.79436E+02 -3.41678E+03 -4.90430E+02  3.67694E+01
 -3.54136E+02 -3.43389E+03 -2.81995E+03 -1.35148E+03 -3.14212E+02 -1.80846E+03  2.88474E+03  1.15496E+03
  3.90612E+02 -1.98288E+03  1.40902E+03  3.91872E+02 -5.66794E+03  2.56914E+03 -2.51018E+02 -8.21786E+01
  1.00942E+03  4.18861E+03 -1.91113E+03  2.27487E+03 -9.93725E+02  3.28129E+02  1.20499E+03 -2.99465E+03
 -4.09415E+03  4.05532E+03  1.07876E+03 -4.45439E+02 -2.13469E+03  3.88159E+02  3.89171E+02 -1.50709E+03
  8.98587E+02 -9.42114E+02  2.32412E+02 -3.81709E+03  4.53725E+02  7.51743E+02  1.21048E+03  1.35554E+03
