 $NMID ID='MM_0lb_SNR50_14hz_g50_64.RAW', FMTDAT='(8E13.5)'
 TRAMP=1., VOLUME=1. $END
  3.10729E+05  2.25216E+03  3.35630E+05  2.48401E+05  8.47650E+04  3.39607E+05 -1.32558E+05  2.48656E+05
 -1.90026E+05  8.40017E+04 -1.12731E+05 -2.77981E+04  2.20835E+03 -5.22522E+04  4.90722E+04  2.58804E+03
  2.79503E+04  5.28851E+04 -1.36334E+04  8.00292E+04 -5.73324E+04  6.00704E+04 -8.57092E+04  3.55427E+04
 -8.02358E+04 -1.56599E+04 -5.52168E+04 -4.80509E+04 -1.54007E+04 -7.14943E+04  2.64138E+04 -4.74591E+04
  4.26894E+04  2.12024E+03  1.45279E+04  5.17784E+04 -3.53776E+04  4.73945E+04 -7.22086E+04  2.92938E+03
 -5.07238E+04 -5.19098E+04 -4.23114E+03 -7.57345E+04  3.45339E+04 -5.85393E+04  5.00983E+04 -1.67753E+04
  4.43863E+04  1.21401E+04  3.30346E+04  2.58071E+04  1.79642E+04  2.33145E+04  4.71888E+02  2.88310E+04
 -2.26421E+04  1.28996E+04 -1.76326E+04 -2.51900E+02  7.89733E+03 -4.58381E+03  1.96560E+04  9.47535E+03
  7.25612E+03  3.52548E+04 -2.92636E+04  3.31089E+04 -6.22472E+04 -3.36199E+03 -5.33015E+04 -4.24235E+04
 -1.04349E+04 -6.27655E+04  3.79811E+04 -4.48787E+04  5.86818E+04 -1.60097E+03  3.40562E+04  3.23219E+04
 -6.16554E+03  3.68412E+04 -3.02181E+04  1.50226E+04 -2.89145E+04 -8.02673E+03 -1.17933E+04 -1.42095E+04
 -9.18500E+03 -1.50572E+04 -1.02690E+03 -1.62780E+04  6.76788E+03 -2.20720E+04  1.58501E+04 -9.62458E+03
  1.22823E+04  8.23534E+03 -6.79022E+03  6.47558E+03 -2.25177E+04 -9.53075E+03 -7.74751E+03 -3.06874E+04
  2.27474E+04 -4.60316E+04  5.20945E+04 -1.99155E+04  4.61272E+04  1.58323E+04  1.56972E+04  4.49885E+04
 -2.27712E+04  3.15683E+04 -2.44302E+04  4.71724E+03 -8.31681E+03 -2.53244E+04  2.45381E+04 -3.16727E+04
  3.85919E+04 -1.39084E+04  3.40588E+04  2.36881E+04  1.88465E+04  5.04324E+04 -7.93040E+03  5.21325E+04
 -3.41061E+04  3.32174E+04 -4.35043E+04  4.94917E+03 -4.23445E+04 -1.41730E+04 -2.65217E+04 -4.09292E+04
  6.94628E+03 -3.82940E+04  3.33484E+04 -1.66795E+04  3.03523E+04  7.95246E+03  2.98232E+03  2.18207E+04
 -1.34862E+04  8.47411E+03 -1.55980E+04 -8.13863E+03 -3.88376E+02 -1.19648E+04  1.94954E+04  6.15923E+03
  1.63844E+04  1.83936E+04 -4.31905E+03  2.57799E+04 -1.98463E+04  1.53480E+04 -2.92912E+04 -7.61211E+03
 -1.72948E+04 -1.68083E+04 -1.11095E+04 -1.81538E+04  2.18400E+03 -2.07192E+04  1.55554E+04 -2.19606E+04
  2.46604E+04 -1.10641E+04  3.66344E+04  3.20108E+03  2.48328E+04  1.63404E+04  8.74074E+03  3.49958E+04
 -1.59341E+04  2.66517E+04 -2.73575E+04  8.71905E+03 -2.11598E+04 -6.63186E+03 -5.03003E+03 -1.00256E+04
  4.07591E+03  4.87846E+02 -6.04498E+03  5.96333E+03 -1.54519E+04  6.12156E+01 -1.65576E+04 -1.27440E+04
 -1.02395E+04 -2.31806E+04  5.94736E+03 -3.09816E+04  1.17138E+04 -1.71063E+04  1.32140E+04 -2.42323E+03
  1.10520E+04  1.40678E+04 -7.36367E+03  1.74246E+04 -1.47550E+04  1.29413E+04 -2.00907E+04  4.59222E+02
 -1.51771E+04 -1.90564E+04  2.27217E+03 -2.96611E+04  1.32747E+04 -2.25379E+04  1.81080E+04 -1.08599E+04
  2.13370E+04  3.05096E+02  1.07480E+04  6.51446E+03  2.01760E+03  3.77955E+03  1.18716E+04 -7.76661E+02
  1.46161E+04 -1.86621E+02  2.03578E+04  1.72537E+04  9.99201E+03  3.48263E+04 -5.05428E+03  3.01224E+04
 -1.96889E+04  2.69576E+04 -3.10055E+04  1.27258E+04 -3.29723E+04 -5.41018E+03 -2.76598E+04 -1.72913E+04
 -5.94977E+03 -2.66684E+04  8.75011E+03 -2.65852E+04  2.30993E+04 -9.18680E+03  2.08232E+04  3.28030E+03
  7.81747E+03  1.34854E+04 -1.26142E+04  1.23207E+04 -1.41851E+04 -7.33250E+02 -1.36265E+04 -6.87295E+03
 -2.50859E+02 -1.63217E+04  7.22438E+03 -1.14940E+04  1.22576E+04 -1.95246E+03  4.51586E+03  1.15355E+04
 -6.93877E+03  5.32028E+03 -1.15334E+04 -6.94690E+03  2.91119E+03 -1.01392E+04  1.07165E+04 -1.58906E+04
  1.71321E+04 -7.15173E+03  1.59752E+04 -2.16088E+03  1.77874E+04  1.38976E+04  7.20715E+03  1.64216E+04
  2.31865E+03  1.96053E+04 -1.28553E+04  1.93650E+04 -1.51997E+04  1.30976E+03 -1.07379E+04 -3.58147E+03
 -4.00921E+03 -5.80842E+03 -5.89424E+03  2.75555E+02 -8.45194E+03  2.38226E+03 -5.51860E+03  4.08121E+03
 -9.29138E+03  2.27626E+03 -8.95649E+03 -1.35430E+04 -2.53655E+03 -1.29355E+04  5.10588E+03 -1.61540E+04
  1.09723E+04 -7.20509E+03  1.00005E+04  3.68895E+03  3.75864E+02  9.36712E+03 -3.96122E+03 -6.05622E+01
 -4.54942E+03 -7.53997E+03 -1.28982E+02 -1.69323E+04  8.68389E+03 -1.10283E+04  1.49352E+04 -5.69014E+03
  1.66406E+04  1.31943E+03  1.29278E+04  6.39527E+03 -1.32118E+03  1.18781E+04 -8.39531E+03  1.31557E+04
 -1.01808E+04  5.10329E+03 -5.54772E+03 -1.06405E+03 -3.44393E+03 -3.58815E+02  4.95147E+03  1.54159E+03
  9.05518E+03  3.41384E+03  9.69347E+02  8.11716E+03 -6.92231E+03  1.45925E+04 -8.53652E+03  3.02422E+03
 -7.00362E+03 -5.93112E+03  3.97918E+03 -8.73306E+03  4.51179E+03 -3.19928E+03  4.56493E+03 -6.69229E+02
  5.72536E+03  7.29889E+03 -4.27620E+03  5.65692E+03 -1.13889E+04  3.80564E+03 -7.66917E+03 -1.54976E+02
  7.95497E+02 -1.18081E+04  3.00077E+03 -8.34941E+03  9.46280E+03 -8.66183E+03  9.66000E+03  3.80010E+03
  5.84854E+03  7.49754E+03 -3.07356E+03  8.54812E+03 -8.88540E+03  9.92783E+03 -5.59728E+03  5.04145E+03
 -8.74299E+03 -6.75774E+03  3.55616E+03 -9.82424E+03  3.25950E+03 -6.70786E+03  6.45947E+02 -1.40362E+03
  5.38723E+03 -3.61131E+03 -1.13895E+03  7.20223E+02 -3.43837E+03 -2.57912E+03  1.99800E+03 -5.87417E+03
  4.10896E+03 -8.04478E+03  7.49686E+03  1.16278E+03  8.32600E+03  9.07819E+03  9.21343E+03  1.15654E+04
 -3.95705E+03  1.68778E+04 -1.45236E+04  1.00458E+04 -1.30150E+04  7.93008E+02 -1.00285E+04 -2.21500E+03
 -8.39122E+03 -1.27099E+04 -2.39509E+03 -7.09537E+03  6.75723E+02 -2.77210E+03 -5.24626E+02 -1.43337E+03
  3.48242E+03  1.83396E+03  7.10760E+03 -1.01490E+03  7.82269E+03  5.94242E+01  6.16747E+03 -1.62930E+03
  7.39304E+03  5.52692E+03  5.41985E+03  5.74200E+03 -2.22200E+02  6.72119E+03 -8.30022E+03  4.43105E+03
 -9.88661E+03 -4.08698E+03 -1.45640E+03 -7.35575E+03 -4.95344E+02 -8.63640E+03  8.62036E+03 -1.23434E+03
  9.10153E+03 -6.02065E+03  2.05302E+04  5.04178E+03  1.07192E+04  7.30223E+03 -2.94515E+03  6.36919E+03
 -5.75188E+02  1.03721E+04 -9.34043E+03  5.86025E+03 -6.23133E+03 -4.26193E+03 -9.51748E+01 -9.75681E+02
  1.84703E+03 -3.71004E+03 -1.33961E+03  3.78232E+02 -4.08121E+03  1.55010E+03 -5.93719E+03 -2.92100E+03
 -1.01741E+03  2.22002E+03 -8.56627E+02 -1.16340E+04  1.14693E+04 -8.20407E+03  5.72770E+03 -6.91571E+02
  8.10276E+03  5.22494E+03  4.06466E+03  9.11459E+03  1.77157E+03  4.97235E+03 -4.27160E+03 -1.46798E+03
 -5.34325E+03  2.80245E+03 -5.07812E+03 -5.53456E+03 -4.38768E+02 -8.06540E+03  1.05729E+03 -3.60129E+03
  4.80855E+03  1.09738E+03  2.04488E+03  1.99453E+03 -3.96709E+03  4.67478E+03 -2.26511E+03 -1.20857E+03
 -8.82754E+02  7.20457E+02 -4.71486E+02  6.79664E+03  1.93294E+03  4.13592E+03  5.13436E+02  3.93953E+03
 -7.33545E+02  5.41314E+02 -3.38325E+03  8.79868E+03 -1.11740E+04  2.23319E+03 -3.47860E+03 -4.28060E+01
 -8.91967E+03 -8.61071E+03 -7.03232E+02 -9.18481E+03  3.85669E+03 -7.32791E+03  5.89301E+03 -7.84233E+03
  3.90638E+03 -8.50719E+02  2.79504E+03  1.21731E+03 -3.34522E+03 -9.93696E+01 -3.22193E+03 -3.83764E+03
  2.71605E+03 -2.43556E+03  5.07719E+03 -2.33625E+03  4.71293E+03  2.03255E+03  6.70562E+03  1.31890E+03
  8.36189E+02  3.34840E+02  2.12324E+02  2.24699E+03 -9.03063E+02  1.82728E+03  4.71463E+03  2.22363E+03
 -1.28966E+03  1.86215E+03 -3.02367E+02 -2.80426E+03  2.70827E+03  2.86166E+03  3.35194E+03  3.07919E+03
 -2.07952E+03  4.98258E+03 -4.81266E+03 -2.06540E+03 -7.61987E+03 -5.23599E+03 -2.81426E+03 -7.30531E+03
 -1.51973E+03 -4.32783E+03  2.95848E+03 -7.24801E+03  1.86261E+03  1.96974E+03 -4.80556E+03  8.39207E+03
 -4.49726E+03  6.84142E+03 -2.97618E+03 -4.67903E+03  2.67260E+02 -2.82212E+03  6.03920E+03 -1.34292E+03
  8.70529E+02  3.98781E+02  6.33712E+03  1.89009E+03  8.71913E+03  1.51121E+03  2.98254E+03  3.96374E+02
 -6.90027E+03  4.17091E+03  4.89204E+01 -2.03964E+03 -4.59854E+03 -2.87503E+03  9.62756E+03 -1.00689E+03
  3.36377E+03  6.28620E+02  6.95390E+03  1.03734E+03  2.60601E+03 -3.64695E+02 -4.53531E+03  2.99833E+03
 -5.31116E+03 -4.82146E+02 -1.90477E+03 -1.39216E+03 -4.74136E+03  2.16224E+03 -4.09449E+03 -1.14567E+03
  6.52023E+03 -3.19737E+03  3.30824E+03 -2.03664E+03  2.41580E+03  4.91730E+03 -1.52035E+03  5.31372E+03
 -8.22652E+02  1.19151E+03 -3.59025E+03 -2.78585E+03 -1.78475E+03  4.77454E+03 -2.12013E+03 -8.99193E+01
 -1.72879E+03 -1.20895E+03 -8.22857E+03  3.04034E+03 -3.65374E+03  3.14762E+03 -5.97777E+03 -9.82691E+03
 -4.01601E+03 -6.40599E+03  2.17858E+03 -6.21349E+03  2.22850E+03 -1.33335E+04  6.15926E+03 -2.21545E+03
  3.76391E+03  1.76671E+03 -2.16100E+02  4.98745E+03 -1.61188E+03  5.20465E+03 -6.37896E+03  5.55664E+03
 -1.80254E+03  9.72415E+02 -1.74556E+03  1.04547E+03  2.31632E+03  7.91365E+02 -5.47974E+03  7.40211E+02
 -1.71050E+03 -1.86988E+03 -1.53631E+03 -4.69155E+02 -4.46294E+02  3.92494E+03 -5.11295E+02 -6.74051E+02
  2.75880E+03 -1.34291E+03 -1.77564E+03  1.22268E+03 -3.67527E+03  5.16306E+03 -2.75668E+03  5.69665E+02
 -8.94479E+02  6.69142E+03 -2.41394E+03 -1.02601E+03 -4.69676E+03 -1.76037E+03 -6.80642E+03 -4.64159E+03
 -4.95746E+03 -7.51378E+03 -6.29653E+03 -3.33605E+03  4.96861E+02  2.11688E+03  5.82673E+03  1.13224E+03
 -1.14539E+03  3.51000E+03 -3.85384E+03  4.02955E+03 -3.58720E+03 -1.92575E+03  4.93428E+03  1.03421E+03
  1.07708E+03  1.14352E+03  2.84614E+03  2.63918E+03  1.36199E+03 -8.77623E+02  1.24504E+03  2.38231E+03
 -2.88655E+03  4.83862E+03 -2.90388E+03  3.21150E+02 -3.13813E+03 -5.51549E+03 -5.52324E+03  1.66619E+03
  3.39830E+03 -1.38905E+03  4.46163E+03 -1.29294E+03  8.34015E+03  1.65999E+03  1.50060E+03  4.00594E+03
 -1.56808E+03  4.76805E+03 -7.60986E+02  1.99564E+03 -6.79166E+03  2.89916E+03 -5.39662E+03  1.24644E+03
 -2.59272E+02 -5.61677E+02  7.74780E+02  1.29934E+03 -4.62708E+03 -8.48767E+02  1.49924E+03  5.31613E+01
 -3.95640E+03  5.33810E+02 -3.15824E+03  8.30165E+02  1.01172E+03 -1.36208E+03  3.19012E+03 -1.28664E+03
  3.94339E+02  6.19750E+03  2.80491E+03 -8.39137E+02  2.15382E+03  2.60738E+03  2.78472E+03  1.62923E+03
