 $NMID ID='MM_0lb_SNR50_20hz_g55_3.RAW', FMTDAT='(8E13.5)'
 TRAMP=1., VOLUME=1. $END
  3.07339E+05 -1.05451E+03  3.38352E+05  2.51565E+05  8.52597E+04  3.36382E+05 -1.29931E+05  2.49036E+05
 -1.87588E+05  8.27503E+04 -1.10044E+05 -3.38878E+04 -1.70643E+03 -5.29435E+04  5.32540E+04  2.81286E+02
  3.78381E+04  5.37948E+04 -1.74151E+04  7.09231E+04 -5.89090E+04  6.03421E+04 -8.36337E+04  3.17527E+04
 -8.19560E+04 -1.46419E+04 -5.14542E+04 -4.92237E+04 -1.51449E+04 -7.37123E+04  2.76525E+04 -4.24094E+04
  4.15258E+04  4.41716E+03  8.87096E+03  5.01449E+04 -3.26167E+04  4.57830E+04 -6.60035E+04  1.08532E+03
 -5.14410E+04 -5.01285E+04 -2.93281E+03 -7.30965E+04  3.60678E+04 -5.20829E+04  4.66687E+04 -2.01892E+04
  3.95340E+04  1.08696E+04  2.62440E+04  2.94937E+04  1.53301E+04  2.80676E+04 -1.82255E+03  2.49516E+04
 -2.23613E+04  1.24942E+04 -2.31937E+04 -7.19973E+03  1.62378E+03 -8.34892E+03  2.25261E+04  1.35114E+04
  8.85736E+03  3.20540E+04 -2.99943E+04  3.82312E+04 -6.49401E+04  3.80544E+03 -5.85440E+04 -3.94502E+04
 -1.32391E+04 -5.96118E+04  3.69014E+04 -4.44308E+04  5.59827E+04 -2.63868E+03  3.15792E+04  3.06235E+04
 -8.22237E+03  3.00331E+04 -2.66954E+04  1.34728E+04 -2.68683E+04 -6.09359E+03 -1.75078E+04 -1.09809E+04
 -8.41178E+03 -1.63184E+04 -1.63982E+03 -1.79122E+04  4.91041E+03 -2.21878E+04  1.10423E+04 -1.42563E+04
  1.28307E+04  6.84876E+03 -8.83709E+03  1.18490E+04 -1.76039E+04 -8.29748E+02 -8.66559E+03 -2.94940E+04
  2.13600E+04 -3.66431E+04  4.69718E+04 -1.91692E+04  3.64292E+04  1.84996E+04  1.51650E+04  4.05816E+04
 -1.14140E+04  3.01843E+04 -2.24793E+04  1.08535E+03 -2.45787E+03 -2.56256E+04  1.97917E+04 -3.33030E+04
  3.84367E+04 -4.24489E+03  2.90011E+04  2.93226E+04  1.61780E+04  4.07351E+04 -9.28330E+03  4.64714E+04
 -2.94947E+04  3.07271E+04 -3.59858E+04  1.44100E+04 -3.70245E+04 -1.11632E+04 -2.03877E+04 -2.96275E+04
  8.98627E+03 -3.58843E+04  2.81420E+04 -1.10360E+04  2.76237E+04  1.30485E+04  1.94338E+03  1.77707E+04
 -1.48414E+04  9.82758E+03 -6.36976E+03 -5.65502E+03  1.93359E+03 -1.25773E+04  2.07912E+04  2.69054E+03
  1.12727E+04  1.91079E+04 -7.66279E+03  2.36099E+04 -2.39419E+04  7.87726E+03 -2.30174E+04 -4.12020E+03
 -1.29197E+04 -1.86231E+04 -7.54774E+03 -1.86295E+04  7.88938E+03 -1.20850E+04  1.23736E+04 -1.61353E+04
  2.26920E+04 -1.37517E+04  2.96049E+04  9.58468E+02  2.30648E+04  1.42978E+04  5.38909E+03  3.54758E+04
 -2.10239E+04  2.72996E+04 -2.73759E+04  1.31065E+04 -1.63838E+04 -1.46280E+04 -4.98293E+03 -1.09144E+04
  5.40244E+03 -8.09789E+03 -3.13658E+03  7.94521E+03 -1.29172E+04  5.83408E+03 -1.24486E+04 -2.56645E+03
 -7.60627E+03 -1.40656E+04  4.45131E+03 -1.87859E+04  1.24873E+04 -1.38290E+04  1.32158E+04 -1.23685E+03
  9.11906E+03  9.36116E+03 -4.00348E+02  1.56063E+04 -1.07172E+04  1.17756E+04 -1.28101E+04 -5.39978E+03
 -1.37657E+04 -1.17829E+04 -3.10316E+03 -1.72143E+04  8.47101E+03 -1.35063E+04  1.56604E+04 -3.49494E+03
  1.37423E+04  1.75024E+02  7.78904E+03  3.36838E+03  8.42009E+03 -3.00463E+02  8.28016E+03 -2.22102E+03
  1.41553E+04  9.01090E+02  1.77671E+04  1.19189E+04  9.98798E+03  2.63527E+04 -7.80528E+02  2.99908E+04
 -1.83237E+04  1.88309E+04 -2.07301E+04  1.02504E+04 -2.34657E+04 -2.57545E+03 -2.05809E+04 -1.19366E+04
 -1.06723E+04 -1.92174E+04  5.82724E+03 -2.14746E+04  1.16077E+04 -8.55870E+03  1.46563E+04  1.61045E+03
  9.08624E+03  5.72090E+03 -5.20093E+03  5.84649E+03 -1.45205E+04 -1.99180E+03 -9.81336E+03 -1.02888E+04
  1.70153E+03 -1.23005E+04  9.86364E+03 -8.78578E+03  5.91183E+03 -2.14464E+03  2.76025E+03  4.72021E+03
 -4.16630E+03 -1.71528E+02 -4.50452E+03 -1.29871E+03  1.80609E+03 -7.88566E+03  6.83778E+03 -1.05086E+04
  1.22737E+04 -6.77278E+03  9.34828E+03  1.32201E+03  9.01853E+03  9.14444E+03  7.98541E+03  1.12633E+04
 -5.03594E+03  1.56474E+04 -8.91432E+03  1.20770E+04 -8.82735E+03  4.18694E+03 -4.65503E+03 -3.53621E+03
 -3.51844E+03 -4.90507E+03  6.70251E+02  3.73956E+03 -6.14829E+03  3.54441E+03 -6.66856E+03  2.79134E+03
 -9.01219E+03 -1.10644E+03 -1.25760E+04 -9.22681E+03  6.30759E+02 -1.19401E+04  4.64858E+03 -5.90102E+03
  7.91583E+03 -1.83710E+03  9.22851E+03  4.01371E+03 -2.52528E+03  1.60495E+03 -5.22175E+03  4.55717E+03
 -3.00594E+03 -4.37258E+03 -8.73916E+02 -1.31267E+04  4.51675E+03 -7.81578E+03  7.15475E+03 -1.87624E+03
  8.70407E+03 -6.80422E+02  9.54981E+03  3.55982E+03  1.62747E+03  9.59960E+03 -4.63808E+03  8.67974E+03
 -4.72939E+03  3.36801E+03 -1.95666E+03 -4.36631E+03  1.06435E+03  2.30613E+03  5.25460E+03  9.86555E+02
  3.96199E+03  4.93676E+03  1.30239E+03  5.01436E+03 -1.92027E+03  4.55085E+03 -6.40880E+03  2.56842E+02
 -3.86145E+03 -2.38856E+03 -1.18459E+03 -6.75724E+03  8.96468E+03 -6.71809E+03  3.76895E+03  2.28049E+03
  2.37209E+03  1.50974E+03 -7.47345E+03  3.68518E+03 -3.80776E+03  4.27583E+03 -5.76440E+03  2.10969E+03
 -1.03055E+03 -4.58270E+03  2.97862E+03 -6.72994E+03  8.93295E+03 -5.69115E+03  6.81750E+03  2.27358E+03
  6.55148E+03  3.13773E+03  3.45903E+03  9.74991E+03 -5.43350E+03  1.66972E+03 -7.68202E+03 -3.12533E+03
 -7.12629E+03 -1.02408E+04 -4.49879E+02 -2.56851E+03 -3.51192E+03 -1.76148E+03 -1.27748E+03 -1.75689E+03
  3.62837E+02  2.16760E+03  2.90582E+03  4.69854E+03  3.19798E+03 -2.27388E+02 -1.02737E+03 -1.96839E+03
  3.16003E+03 -1.57053E+03  6.18925E+03 -4.15516E+01  5.57940E+03  4.05610E+03  4.36115E+03  6.90114E+03
 -6.08806E+02  8.37834E+03 -7.25599E+03  4.05603E+03 -1.06236E+04  4.28139E+03 -7.02574E+03 -2.09949E+03
 -3.67862E+03 -5.58278E+03 -4.46323E+03 -5.36604E+03 -4.20530E+02 -8.08785E+03  1.56382E+03 -7.25705E+03
 -9.50281E+02 -3.18854E+03  7.36313E+02 -1.00403E+03  6.51294E+03 -2.59180E+03  3.63599E+03  2.14857E+02
  5.49361E+03 -2.65353E+02 -4.42783E+02  5.56291E+01 -9.69676E+02  2.68346E+03 -1.79818E+03  1.70773E+03
 -6.51701E+03  4.30883E+02  1.32151E+02 -4.93030E+02 -3.06091E+02 -1.12861E+03 -6.71153E+02 -1.82770E+03
  3.58546E+03 -4.51709E+03  5.79660E+03  9.14121E+01  3.94335E+03  2.66305E+03 -2.37785E+02  4.35176E+03
 -5.52275E+02  6.38968E+03 -6.05777E+03  8.63232E+02 -2.34535E+03 -3.60066E+03 -6.78806E+02 -4.59584E+03
  2.43882E+03  4.74399E+02 -1.73944E+02  1.41626E+03 -2.28317E+03 -1.97016E+03 -2.35017E+03  2.04344E+03
 -7.55545E+02 -3.60822E+03  1.91020E+03 -3.68402E+03  3.81331E+03 -4.61385E+03  4.23953E+03 -6.36604E+02
  2.02233E+03  3.00248E+03  1.27435E+03  2.77776E+02 -2.49043E+03  7.70481E+03 -6.34586E+03  1.45405E+03
 -1.24440E+03 -1.57042E+03 -4.67648E+03  5.81920E+02  9.67446E+02 -7.75395E+02 -7.80175E+02  3.68308E+03
  7.53508E+02  3.03178E+02 -2.55719E+03 -2.12484E+03  5.23024E+02  3.03909E+02  4.27209E+03  7.78756E+02
  3.98940E+03 -1.87759E+03  3.46212E+02 -9.11446E+02 -1.38553E+03  1.99645E+03  9.68552E+02  1.97820E+03
 -7.07108E+03  4.93977E+03 -3.46781E+03  5.27923E+03 -2.68976E+03 -3.47232E+03 -7.09463E+03 -1.95966E+03
 -6.08216E+02 -9.48778E+02 -2.57063E+02 -1.65394E+03  1.14688E+03 -2.43376E+03  9.84681E+02 -4.97294E+03
  2.22812E+03  1.68628E+02 -4.30262E+02  3.35177E+03  7.44262E+01  2.73685E+03 -4.21509E+03 -5.39081E+02
  7.49266E+02 -2.04216E+03  2.33880E+03 -4.11987E+03  1.60741E+03 -1.77535E+02  1.42203E+03  5.45179E+02
  1.97675E+03  9.92824E+02 -4.39366E+02 -1.11407E+03  1.61083E+02 -2.56270E+03  6.41112E+03  8.74412E+02
 -5.69339E+02  3.92884E+03  2.56262E+03  9.42142E+02 -1.10059E+03  2.03481E+03  1.26836E+03  5.16740E+03
 -2.29434E+03 -1.42757E+03 -9.87527E+02 -6.17522E+02 -2.02896E+03 -4.47394E+03 -9.06734E+02 -2.56689E+02
  2.12104E+02 -9.10648E+01  2.07947E+03 -2.58304E+03  4.77499E+03  7.82330E+03  2.06734E+03  2.11647E+03
 -4.90927E+03  4.25085E+02  3.85119E+02 -5.50228E+02  4.86127E+03 -1.39652E+03  5.08761E+02  2.41101E+02
 -3.83765E+03 -1.15183E+03 -2.78356E+03 -6.77704E+02  2.24119E+03 -2.89881E+03  7.55880E+01  1.53494E+02
  8.40802E+02 -1.99912E+03  9.34058E+02 -5.46588E+02  5.54301E+02  3.80436E+03  7.67531E+02  1.09149E+03
  1.73205E+03  8.46951E+02  4.66094E+03 -4.78698E+03  7.60605E+01 -8.79418E+02  2.46553E+03  2.86411E+03
 -1.80349E+03  7.24171E+02  2.87969E+03  3.42009E+02  2.52723E+03  1.14211E+03  2.59459E+02  6.46229E+02
  1.11487E+03  1.70064E+03  1.19311E+03  3.26348E+03 -2.51168E+03 -6.06811E+02 -6.09191E+03 -3.84043E+03
 -3.50898E+03 -2.93439E+03  7.12351E+01  1.02977E+03  3.10579E+03 -4.73917E+03  3.74501E+02  1.83841E+03
 -5.67539E+03  5.69225E+03 -1.49967E+03 -4.55310E+02 -2.89351E+03  2.00062E+03 -2.19707E+03  2.14722E+02
  3.24696E+02 -4.87521E+03  2.40898E+03 -1.09444E+03  2.33055E+02 -4.63060E+03  1.65003E+03  8.86447E+02
 -3.36187E+03  2.50444E+03  1.52071E+03  2.41346E+03  3.58960E+03 -1.20387E+03  8.57418E+02  5.28011E+02
  1.29478E+02  2.34404E+03 -2.15000E+03 -2.83631E+03 -2.53215E+03  2.44647E+03 -1.95341E+03 -3.44517E+03
 -3.94726E+02  4.81981E+03  2.40929E+03 -4.47186E+01  1.46172E+03  1.29281E+02 -2.08620E+03 -7.87230E+02
  2.86292E+03  1.94001E+03 -3.80394E+03 -1.37944E+03  1.00688E+03  1.22156E+02  7.86633E+02 -6.59024E+02
 -7.48462E+02  4.68111E+03  4.80237E+03  1.46320E+03  1.70897E+03  8.25266E+02 -6.18678E+03 -2.42337E+01
 -1.45714E+03 -1.17893E+03  5.16517E+02  3.48092E+02  1.37624E+03 -9.08313E+02  8.02662E+02 -1.33114E+03
  3.66080E+02  5.18467E+03  1.58901E+03 -9.81398E+02  2.81413E+03 -3.23173E+03 -8.50188E+02  1.15932E+02
 -2.30892E+03 -3.31828E+03 -7.52648E+02  1.05374E+03  5.34260E+03  1.32313E+03  1.06754E+03  1.98941E+03
 -1.46480E+02 -3.25240E+03 -9.64623E+02 -3.56900E+03  1.01252E+03 -2.58121E+03 -7.61575E+02 -6.44174E+02
  2.11818E+02 -1.86143E+03 -2.79619E+03  3.13453E+03 -4.42408E+03 -2.67376E+03  1.33456E+03  4.32914E+03
 -4.04081E+03 -7.30276E+01 -8.59162E+02  1.34138E+03  2.76202E+03  2.41042E+01 -2.71874E+01 -1.63734E+03
 -2.03603E+03  2.42145E+03  2.05844E+03 -1.67463E+03 -2.39384E+03 -8.19062E+02 -1.16655E+03  1.38070E+03
 -2.06846E+03  1.99257E+03  1.09551E+03  2.71865E+03  8.22515E+02 -1.43293E+03  2.71270E+03  1.30290E+03
  1.61415E+03  1.04365E+03  5.07956E+02 -3.03399E+03  8.31248E+02  8.83851E+02  2.34171E+03  3.03434E+01
