 $NMID ID='MM_0lb_SNR50_8hz_g55_39.RAW', FMTDAT='(8E13.5)'
 TRAMP=1., VOLUME=1. $END
  3.11357E+05  1.55096E+03  3.35766E+05  2.50105E+05  8.89565E+04  3.41037E+05 -1.37061E+05  2.51782E+05
 -1.83507E+05  7.61249E+04 -1.11326E+05 -2.57150E+04  1.65419E+03 -4.77453E+04  4.82207E+04 -9.37450E+03
  3.13648E+04  5.76753E+04 -1.74814E+04  7.99488E+04 -6.43238E+04  5.99680E+04 -8.63692E+04  3.07475E+04
 -8.31277E+04 -7.95178E+03 -6.01194E+04 -4.91172E+04 -7.31643E+03 -6.59933E+04  3.44137E+04 -4.41323E+04
  4.38160E+04  2.92524E+03  2.05097E+04  4.85842E+04 -2.64277E+04  4.73113E+04 -6.46808E+04 -5.30095E+03
 -6.16229E+04 -5.59805E+04 -5.87931E+03 -8.06442E+04  3.24815E+04 -6.03654E+04  4.25214E+04 -1.20612E+04
  5.10126E+04  9.06883E+03  3.14744E+04  3.00003E+04  1.71080E+04  2.49490E+04 -3.92276E+03  3.17513E+04
 -1.46703E+04  1.09546E+04 -1.17085E+04 -5.99862E+03  4.15261E+03 -2.41126E+03  2.34867E+04  7.47718E+03
  6.07952E+03  4.00758E+04 -2.99868E+04  3.92019E+04 -6.23937E+04  1.11986E+03 -6.10850E+04 -4.96771E+04
 -1.00057E+04 -6.48664E+04  4.17825E+04 -5.32255E+04  6.34584E+04 -4.97832E+03  4.10078E+04  3.50336E+04
 -5.98286E+03  4.25460E+04 -3.81068E+04  2.80957E+04 -3.33030E+04  1.02408E+02 -1.97247E+04 -1.15888E+04
 -9.98215E+03 -2.16963E+04 -4.38559E+03 -1.76569E+04  3.53189E+03 -2.31903E+04  1.01138E+04 -1.01266E+04
  1.09268E+04  5.40529E+03 -1.34387E+04  1.45326E+04 -2.92699E+04 -1.43009E+04 -8.83470E+03 -3.38420E+04
  2.84955E+04 -5.53953E+04  4.81870E+04 -1.91046E+04  5.93546E+04  1.87399E+04  2.03639E+04  5.17326E+04
 -2.54530E+04  3.29481E+04 -2.90612E+04  1.22976E+04 -1.64218E+04 -2.83712E+04  1.92456E+04 -3.76133E+04
  4.33936E+04 -8.28140E+03  3.81817E+04  2.63248E+04  1.96558E+04  5.65819E+04 -1.01468E+04  6.26386E+04
 -3.64507E+04  4.09789E+04 -4.69015E+04  9.33810E+03 -5.01843E+04 -1.36244E+04 -2.83951E+04 -4.27430E+04
  8.35977E+03 -4.93750E+04  3.69166E+04 -1.01157E+04  2.87478E+04  1.63992E+04  6.66114E+03  2.33117E+04
 -1.04928E+04  1.44518E+04 -1.26225E+04 -1.27290E+04  1.80353E+03 -1.03512E+04  1.91438E+04  7.32415E+03
  1.13192E+04  2.06070E+04 -9.74437E+03  2.93246E+04 -2.67737E+04  1.67909E+04 -3.05548E+04  3.94829E+03
 -2.41184E+04 -1.46546E+04 -8.76584E+03 -3.46572E+04  5.67506E+03 -3.40733E+04  2.39990E+04 -2.79412E+04
  3.36147E+04 -1.85542E+04  4.21767E+04  6.43436E+02  2.44611E+04  2.42778E+04  1.01554E+04  4.68094E+04
 -1.77063E+04  3.36087E+04 -3.28544E+04  1.12410E+04 -2.28700E+04 -1.22741E+04 -2.64942E+03 -1.47527E+04
  3.82803E+03  1.45554E+03 -2.19344E+04  8.34292E+03 -2.68527E+04  1.39222E+04 -2.08329E+04 -8.29901E+03
 -8.85326E+03 -2.92872E+04  2.66349E+03 -2.80439E+04  1.74440E+04 -2.23585E+04  2.59695E+04 -3.77137E+03
  1.75361E+04  1.46125E+04 -7.13009E+02  2.31957E+04 -2.26433E+04  1.42355E+04 -2.50361E+04 -8.41336E+03
 -2.49476E+04 -2.05133E+04 -1.76268E+03 -3.16800E+04  1.49885E+04 -2.77738E+04  2.90247E+04 -1.08830E+04
  2.98515E+04  3.34745E+03  1.67746E+04  6.09324E+03  1.00547E+04 -6.29947E+02  1.35532E+04 -4.74665E+03
  3.27398E+04  5.83636E+03  2.87450E+04  7.56755E+03  1.71193E+04  3.57101E+04  2.17913E+03  4.83083E+04
 -2.37139E+04  3.83859E+04 -4.23475E+04  2.36524E+04 -5.12796E+04 -1.06084E+03 -4.26517E+04 -3.01800E+04
 -1.55767E+04 -3.90231E+04  1.31379E+04 -3.40828E+04  3.42746E+04 -1.11963E+04  1.94810E+04  5.81636E+03
  9.21936E+03  2.16124E+04 -1.43960E+04  2.35743E+04 -2.08713E+04  2.12623E+03 -2.04029E+04 -1.69870E+04
 -3.52587E+03 -1.55276E+04  8.97084E+03 -1.58552E+04  1.61272E+04  1.35634E+03 -1.25102E+03  7.36802E+03
 -1.19868E+04  3.40620E+03 -1.57558E+04 -1.23468E+04 -1.17214E+04 -2.25221E+04  9.72365E+03 -1.96996E+04
  2.89431E+04 -7.80849E+03  3.42338E+04 -2.72896E+03  2.43817E+04  2.14198E+04  7.73686E+03  2.84214E+04
 -1.93529E+03  3.33948E+04 -2.04585E+04  2.34680E+04 -2.35918E+04  1.29137E+04 -1.69390E+04 -1.11486E+04
 -5.80463E+03 -1.07880E+04 -7.92739E+02  1.44283E+03 -7.62196E+03  4.13651E+03 -7.38332E+03 -3.32974E+03
 -1.29569E+04  9.99129E+03 -2.17919E+04 -1.05199E+04 -7.25601E+03 -2.39353E+04  5.86678E+03 -1.91726E+04
  9.08783E+03 -6.52109E+03  1.04057E+04 -1.33677E+03  5.25502E+03  8.07843E+03 -3.25886E+03 -3.93550E+03
 -1.12392E+04 -5.88188E+03 -8.28589E+02 -1.91310E+04  7.02902E+03 -2.23218E+04  2.47742E+04 -5.77748E+03
  2.15641E+04  4.17887E+03  1.92949E+04  1.71966E+04  3.22645E+03  2.28432E+04 -7.02800E+03  1.91047E+04
 -1.53340E+04  8.05157E+03 -1.67011E+03  1.25614E+02  2.04901E+03 -1.21475E+03  1.09768E+04 -1.06248E+03
  1.22928E+04  1.08246E+04  4.92214E+03  1.53814E+04 -1.00709E+04  1.24870E+04 -2.11146E+04  9.50358E+02
 -1.08462E+04 -1.20191E+04  8.97714E+02 -1.27578E+04  8.15855E+03 -1.22131E+04  8.94937E+03  5.48202E+03
 -2.79179E+03  1.16909E+04 -4.44404E+02  1.56582E+04 -1.98105E+04  1.14400E+03 -1.29201E+04 -3.35312E+03
 -7.94512E+03 -2.11774E+04  5.10404E+03 -1.77171E+04  1.53923E+04 -1.28844E+04  2.11086E+04  6.53831E+03
  1.37579E+04  1.24030E+04  2.63612E+03  1.90834E+04 -2.16338E+04  1.31306E+04 -1.29208E+04 -6.27044E+03
 -8.92234E+03 -1.53439E+04 -3.94961E+03 -1.48691E+04  7.43524E+03 -8.52269E+03  7.31258E+03 -1.09557E+04
  7.81340E+02  3.94044E+03 -5.54317E+03  1.44567E+03  5.93420E+03 -2.82858E+03  2.28540E+03 -4.68685E+03
  1.70824E+04 -5.86285E+03  2.20857E+04  3.64258E+03  1.96471E+04  1.28376E+04  1.53352E+04  2.31390E+04
 -4.97861E+03  2.43392E+04 -2.51470E+04  1.45422E+04 -2.31342E+04  5.23706E+03 -2.58826E+04 -1.03587E+04
 -1.90058E+04 -2.16543E+04  3.31175E+02 -1.57061E+04  1.10552E+04 -8.19357E+03  2.18478E+03 -1.83453E+03
  6.51081E+03 -2.55971E+03  3.06520E+03 -1.03169E+04  6.74579E+02 -3.99278E+03 -2.39839E+02 -9.04100E+03
  5.51609E+03  5.43834E+03  6.40285E+03  4.17118E+03  1.27719E+03  1.69032E+04 -1.64459E+04  1.12952E+04
 -1.53395E+04  4.49735E+03 -1.70264E+04 -5.68281E+03  6.53090E+02 -2.15879E+04  8.54290E+03 -2.01526E+04
  1.66361E+04 -1.60178E+04  1.54540E+04 -4.35705E+02  1.24011E+04  1.98339E+04  1.57096E+03  2.06991E+04
 -1.27430E+04  1.56256E+04 -1.10175E+04  8.42012E+02 -1.40713E+04 -3.23925E+03 -2.53189E+03 -5.43369E+02
  2.58999E+01  9.43906E+02 -5.65763E+03  1.92426E+02 -7.80403E+03  4.39606E+03 -9.55469E+03  4.13977E+03
 -7.07457E+03 -1.14785E+04  1.65283E+03 -1.78608E+04  1.47390E+04 -1.15075E+04  1.69118E+04 -2.92518E+03
  1.24181E+04  7.75894E+03  9.68865E+03  1.40930E+04 -7.84395E+02  2.04398E+04 -5.88267E+03  9.07446E+03
 -2.20145E+04  2.25997E+03 -1.27759E+04 -1.09811E+04 -3.10882E+03 -1.84525E+04  1.26478E+04 -1.31311E+04
  7.48164E+03 -4.62089E+03  4.62306E+03  8.51134E+03 -3.96140E+03  1.92682E+03  8.34152E+03 -4.60774E+03
  4.27185E+03 -2.69076E+03  7.07420E+03  8.99494E+03  1.11762E+04  3.20927E+03  4.80221E+03  1.08605E+04
  1.03634E+03  1.17545E+04 -6.99306E+03  1.21804E+04 -2.28568E+04  9.69777E+03 -1.97470E+04 -6.62053E+03
 -9.79989E+03 -1.38856E+04  9.76615E+03 -2.13772E+04  8.77495E+03 -1.69972E+04  1.26277E+04 -2.15083E+03
  1.09871E+04 -5.70901E+02  7.37253E+03  9.97549E+03 -9.50633E+03  1.31414E+04 -6.95891E+03 -1.79037E+03
 -2.38604E+03 -7.31336E+03  9.05365E+03 -1.47428E+04  4.87786E+03 -4.64172E+03  1.77028E+03 -6.35252E+01
  1.74800E+03  1.13276E+03 -4.01795E+03  1.59482E+03 -8.93757E+02 -2.60648E+03 -3.40085E+03 -4.47790E+03
  4.42908E+03 -5.54805E+03  9.11942E+03 -6.70658E+02 -2.90629E+03  1.05957E+04 -7.06562E+03  1.31119E+04
 -1.03635E+04  9.32528E+03 -1.34149E+04 -5.24482E+02 -8.18201E+03 -6.91754E+03 -7.88756E+03 -9.22295E+03
  7.50879E+03 -6.66010E+03  5.57459E+03 -4.68057E+03  5.63760E+03  4.85337E+03 -1.20044E+03  6.88367E+03
 -4.16251E+03  1.28305E+03 -7.75166E+03 -6.20525E+03 -2.29685E+02 -8.66583E+03 -2.04103E+03 -1.57116E+04
  1.32780E+03 -4.02174E+03  8.59366E+03 -1.04347E+03  1.02100E+04  3.25795E+03  3.25007E+03  1.04356E+04
 -8.68835E+02 -5.10464E+03 -7.50194E+03 -2.37132E+03  1.37779E+03 -5.85820E+03  6.34938E+03 -3.15706E+03
  6.48387E+03 -6.25861E+02  1.05300E+04  8.95338E+03  3.90416E+03  1.46357E+04 -3.61126E+03  6.30798E+03
 -7.69909E+03  6.10472E+02 -1.43038E+04 -7.21301E+03 -1.45708E+04 -6.85495E+03  1.06091E+03 -1.09330E+04
  5.22436E+03 -1.53102E+03  6.50012E+03  4.16134E+03  8.58240E+03  4.26494E+03  1.04614E+03  5.31444E+03
 -1.01706E+03  2.29328E+03 -6.06829E+03 -8.52360E+03 -2.25185E+03 -1.44184E+02 -4.13688E+03  4.36747E+03
  1.17365E+03  8.70470E+02 -1.52211E+04  1.10793E+04 -1.23445E+04 -1.31368E+03 -1.27462E+04 -9.09829E+03
 -1.01876E+04 -1.98611E+04 -1.44076E+03 -1.71896E+04  9.95825E+03 -8.16135E+03  2.08728E+04 -8.27625E+03
  1.58522E+04  4.20557E+03  9.76234E+03  6.92386E+03  5.60799E+03  1.08857E+04 -2.76112E+03  7.20403E+03
 -4.27645E+03  4.24542E+03 -4.10963E+03  7.65617E+02 -4.36506E+03  2.92788E+02 -6.06552E+02  3.03739E+03
 -1.12220E+03  2.95384E+03 -7.48679E+03 -1.47644E+03 -1.30985E+03 -1.89136E+03 -4.78397E+03 -7.90906E+03
  1.32994E+03 -8.70386E+03  1.09947E+04 -1.30418E+03  4.14389E+03  1.05693E+04 -1.03676E+02  9.13730E+03
 -1.16486E+04  1.50906E+04 -1.15775E+04  1.05524E+04 -1.18676E+04 -3.44780E+03 -1.24182E+04 -6.36986E+03
 -5.90719E+03 -2.31306E+04 -2.23714E+03 -9.45136E+03  1.38913E+04  1.76260E+02  8.91816E+03 -4.77214E+03
  8.00493E+03  6.85795E+03  2.03536E+03  2.26019E+03 -3.85327E+03  2.74326E+03  1.88285E+03 -7.38261E+03
  1.02446E+04 -1.33911E+03  6.02696E+03  2.44840E+03  1.05600E+04  8.13108E+03  6.91192E+03  1.21828E+04
 -5.98090E+03  3.45648E+03 -9.94575E+03 -6.27951E+03 -9.76716E+03  2.54014E+03  7.89719E+02 -1.14507E+04
  2.59046E+03 -1.24630E+04  1.62322E+04 -3.44308E+03  1.33442E+04  1.06435E+04  1.23805E+04  1.01363E+04
  5.89780E+03  4.73796E+03 -1.07175E+03  8.28749E+03 -1.29015E+04  1.41906E+03 -8.16056E+03  2.02762E+03
 -9.36723E+03  1.38763E+03 -3.07430E+03 -1.26269E+02 -2.86751E+03  2.10425E+03 -1.01994E+04 -3.26813E+03
 -1.42348E+02 -8.54190E+03 -5.67280E+03 -9.84112E+03  4.86741E+03 -1.40178E+04  7.82605E+02 -2.94376E+03
  1.13349E+04  2.34167E+03  4.20482E+03  7.37097E+03 -4.61495E+03  1.13193E+04 -7.54403E+03  2.26263E+03
