 $NMID ID='MM_0lb_SNR50_11hz_g50_31.RAW', FMTDAT='(8E13.5)'
 TRAMP=1., VOLUME=1. $END
  3.12715E+05 -1.24699E+03  3.39838E+05  2.49689E+05  7.91665E+04  3.33281E+05 -1.36506E+05  2.54201E+05
 -1.82224E+05  8.13063E+04 -1.18390E+05 -2.84876E+04  2.38392E+03 -5.21053E+04  5.44117E+04  3.88836E+03
  4.19050E+04  5.08058E+04 -2.04943E+04  7.82286E+04 -5.48984E+04  6.82520E+04 -8.22966E+04  3.19930E+04
 -7.87996E+04 -6.68443E+03 -5.64610E+04 -5.66909E+04 -1.23299E+04 -7.03349E+04  2.90615E+04 -5.23806E+04
  4.00654E+04  4.12874E+03  2.08272E+04  4.87111E+04 -3.29549E+04  4.67859E+04 -7.52599E+04 -5.83794E+02
 -5.35976E+04 -5.59298E+04 -4.06060E+03 -7.79988E+04  2.96610E+04 -5.41768E+04  4.27548E+04 -1.93568E+04
  4.32011E+04  1.50298E+04  3.23763E+04  2.26731E+04  1.82146E+04  2.32827E+04 -5.14460E+03  3.20286E+04
 -2.43025E+04  1.61872E+04 -1.96579E+04 -7.01569E+03  5.13864E+03 -7.61239E+03  2.13375E+04  1.45932E+04
  8.50975E+03  3.79640E+04 -3.62711E+04  3.33292E+04 -6.42192E+04 -2.36115E+03 -5.69997E+04 -4.49791E+04
 -1.00120E+04 -6.42871E+04  4.04889E+04 -4.35916E+04  6.47334E+04 -4.44612E+03  3.84743E+04  3.77675E+04
 -4.43650E+03  3.77530E+04 -3.13820E+04  1.85425E+04 -3.98781E+04 -9.67777E+03 -1.65930E+04 -9.61663E+03
 -5.65731E+03 -1.29792E+04 -1.05352E+03 -2.08232E+04  7.98718E+03 -1.94170E+04  1.65017E+04 -1.35326E+04
  8.68185E+03 -4.93233E+02 -1.40213E+04  6.48832E+03 -2.65547E+04 -2.74299E+03 -1.11767E+04 -3.17332E+04
  2.65521E+04 -4.44175E+04  5.08658E+04 -2.19460E+04  4.46895E+04  2.44496E+04  1.50730E+04  5.10846E+04
 -1.31411E+04  3.71846E+04 -2.49386E+04  7.05104E+03 -6.25900E+03 -2.54643E+04  2.01960E+04 -3.74320E+04
  4.69233E+04 -6.64819E+03  3.73515E+04  2.55390E+04  2.15234E+04  5.14580E+04 -9.36937E+03  5.42257E+04
 -3.67121E+04  3.22922E+04 -4.32493E+04  1.41735E+04 -4.73686E+04 -1.11596E+04 -2.07738E+04 -3.76508E+04
  3.88272E+03 -3.51919E+04  2.78392E+04 -1.74014E+04  3.25864E+04  1.56463E+04  1.22557E+03  1.70445E+04
 -1.27633E+04  7.65886E+03 -1.18492E+04 -1.16033E+04  5.13854E+03 -9.58900E+03  2.36093E+04  1.01150E+04
  1.16884E+04  2.42837E+04 -2.32929E+03  3.13490E+04 -2.50062E+04  1.69973E+04 -3.12918E+04  4.93322E+03
 -2.16872E+04 -1.98051E+04 -6.91750E+03 -3.02589E+04  4.16385E+03 -2.53236E+04  2.02915E+04 -2.32806E+04
  3.80393E+04 -9.96893E+03  3.59976E+04  5.05662E+03  2.47283E+04  2.58024E+04  2.74981E+03  4.46923E+04
 -2.27790E+04  3.45663E+04 -2.69642E+04  1.05657E+04 -2.12634E+04 -1.00133E+04 -2.75591E+03 -1.50012E+04
 -7.38723E+03 -3.64854E+03 -7.18500E+03  4.76972E+03 -1.75745E+04  3.06218E+03 -2.39778E+04 -3.83417E+03
 -8.18320E+03 -2.28457E+04  7.38426E+03 -1.83979E+04  1.96171E+04 -1.57179E+04  1.71853E+04 -5.91313E+03
  1.25624E+04  1.89612E+04 -4.94857E+03  2.43472E+04 -1.23634E+04  1.17340E+04 -1.94644E+04  3.25921E+02
 -1.88903E+04 -2.38410E+04 -5.52499E+03 -2.56091E+04  1.71929E+04 -1.93210E+04  2.24460E+04 -1.40496E+04
  1.31238E+04 -2.56581E+03  1.46568E+04  4.02041E+03  4.43555E+03  5.98326E+03  1.01446E+04 -1.22985E+03
  2.09822E+04  3.38050E+03  2.18842E+04  2.07095E+04  1.19147E+04  3.92980E+04 -2.47965E+03  3.55069E+04
 -2.63689E+04  3.70710E+04 -4.14636E+04  1.59782E+04 -3.91403E+04 -4.82131E+03 -3.47313E+04 -2.47366E+04
 -1.24097E+04 -3.11976E+04  1.22903E+04 -2.79685E+04  3.09647E+04 -1.72183E+04  1.87560E+04  1.93391E+03
  7.31752E+03  1.78404E+04 -1.49946E+04  9.32245E+03 -2.27645E+04  4.58602E+03 -1.04272E+04 -9.08946E+03
 -7.09744E+03 -2.07337E+04  9.12670E+03 -1.06000E+04  3.44042E+03 -6.83934E+03  6.97045E+03  7.96234E+03
 -1.14989E+04  3.14924E+03 -7.66894E+03 -5.12406E+03 -1.00171E+03 -1.54968E+04  1.33049E+04 -1.72035E+04
  1.79028E+04 -9.15095E+03  2.07254E+04  4.05906E+03  2.17594E+04  1.44637E+04  9.12763E+03  1.93969E+04
 -6.54504E+03  2.55385E+04 -1.53097E+04  1.87453E+04 -1.92189E+04  2.89733E+03 -1.17538E+04 -1.19236E+04
 -6.38697E+03 -2.72066E+03 -6.40014E+03  2.55440E+03 -8.17007E+03  4.69498E+03 -6.69968E+03  9.49475E+02
 -1.45325E+04  3.12550E+01 -1.43332E+04 -6.34063E+03 -1.07629E+04 -1.87104E+04  1.22676E+04 -1.46833E+04
  9.22218E+03 -1.07061E+04  9.50441E+03  5.89716E+03  9.45061E+02  6.54271E+03 -8.21825E+03  1.21092E+03
 -7.18298E+03 -4.46780E+03 -3.41686E+03 -9.07131E+03  3.88329E+03 -1.12179E+04  9.83558E+03 -2.05740E+03
  2.07448E+04  2.85238E+03  1.06219E+04  4.40432E+03  5.41458E+03  1.29208E+04 -5.97635E+03  1.82317E+04
 -8.98563E+03  6.74736E+03 -5.72036E+03 -2.58419E+03  4.98913E+02 -4.25205E+03  6.24578E+03 -2.77682E+03
  9.69892E+03  4.53698E+03 -2.82001E+03  8.02584E+03 -8.30199E+03  1.19564E+04 -8.95151E+03  1.96949E+03
 -4.04023E+02 -7.39735E+03  3.76724E+03 -9.22465E+03  5.51337E+03 -5.45722E+03  1.30336E+04  2.70923E+03
  3.20492E+03  1.02194E+04 -9.66982E+03  1.01471E+04 -1.19015E+04  5.72835E+03 -1.11523E+04 -4.49834E+03
 -9.94194E+03 -1.11473E+04  2.91641E+03 -1.85490E+04  5.02933E+03 -8.37042E+03  1.36977E+04  1.72152E+03
  9.24928E+03  1.03363E+04  2.46576E+03  1.70171E+04 -1.23716E+04  1.77255E+03 -9.80560E+03  1.57471E+03
 -1.21100E+04 -9.79298E+03  3.49470E+02 -1.23174E+04  7.06263E+03 -9.69366E+03  3.94118E+03 -4.74445E+03
  9.70456E+03  5.04043E+02 -2.29130E+03  2.68719E+03 -8.27299E+01 -2.16652E+03  9.34509E+02 -9.16649E+03
  7.36156E+03 -5.68711E+03  7.34772E+03  4.66251E+03  1.10488E+04  1.00046E+04  8.50601E+03  1.56267E+04
 -1.78968E+03  1.66213E+04 -1.78232E+04  1.73579E+04 -2.24370E+04  1.88778E+02 -2.12523E+04 -6.42629E+03
 -1.25585E+04 -1.57417E+04  2.19180E+03 -1.04684E+04 -2.21512E+02 -6.03435E+03  1.02023E+04 -6.11214E+03
  2.96822E+03  2.27370E+03  4.21519E+03 -1.14877E+03  3.20895E+03 -8.56728E+02  1.69312E+03 -2.80697E+02
  9.21590E+03  4.41731E+03  8.29360E+03  8.87636E+03  2.14373E+03  1.18710E+04 -7.89414E+03  4.18655E+03
 -1.50918E+04  2.96217E+03 -1.25450E+04 -4.54771E+03  4.30140E+03 -1.02452E+04  4.50800E+03 -1.58710E+04
  7.46241E+03 -8.41822E+03  1.20519E+04  9.17778E+02  1.12016E+04  1.13031E+04  2.87469E+03  1.59101E+04
 -4.16120E+03  1.05253E+04 -1.02872E+04  1.92647E+03 -3.66888E+03  5.43866E+03 -3.39258E+03 -2.06594E+03
  1.59408E+03  4.97234E+03  8.52287E+02  1.83896E+03 -2.99946E+03 -8.93480E+02 -1.07168E+04  6.24449E+02
 -1.12364E+03 -1.18572E+04  6.16626E+03 -1.00085E+04  3.77969E+03 -1.26049E+04  8.86695E+03 -3.89048E+03
  1.18548E+04  6.28839E+03  6.01412E+03  5.47758E+03 -5.04535E+03  1.54556E+04 -9.48368E+03  6.84111E+03
 -1.10250E+04 -7.08489E+02 -5.85918E+03 -5.83003E+03 -2.65180E-01 -9.25660E+03  7.67687E+03 -1.11464E+04
  7.30618E+03 -2.95994E+03  1.68829E+03  7.41627E+03 -3.68738E+03  7.02974E+03  4.94618E+03 -3.84864E+03
 -3.45036E+03  5.34392E+03  1.32845E+03 -3.53327E+02  2.85253E+03  2.68412E+03  5.32626E+03  6.99916E+03
  1.59829E+03  1.00244E+04 -6.20569E+03  1.22559E+04 -1.82331E+04  6.52233E+03 -3.95896E+03 -4.61846E+03
 -6.17868E+03 -1.47370E+04 -9.78935E+02 -1.44435E+04  6.80786E+03 -2.09241E+03  7.84231E+03  5.19524E+02
  7.63394E+03  5.21127E+03 -5.77020E+03  7.19306E+03  3.09340E+02  8.42055E+03 -1.22683E+04 -4.86912E+02
  1.45136E+03 -7.26891E+03 -3.46653E+01 -3.73768E+03  1.00852E+04 -3.36440E+03  4.18984E+03  1.21669E+03
  3.29035E+03  6.81846E+01 -8.07531E+02  4.49343E+03  3.82759E+03  4.40043E+03  6.04763E+03  3.04377E+03
 -3.16186E+02  3.16708E+03  4.87793E+03  1.60610E+03  1.59040E+03  4.22275E+03  4.91377E+02  7.18484E+03
 -7.93568E+02  8.99081E+02 -9.59395E+03 -2.16666E+03 -7.51366E+03 -1.98403E+02 -2.16655E+03 -8.50072E+03
  2.34635E+03 -3.87059E+03  7.11065E+03  2.20328E+03  5.38798E+03  3.16177E+03 -6.05138E+01  5.88885E+03
 -3.30142E+03  2.12780E+03 -1.01617E+04 -5.94349E+03 -7.22544E+03 -2.70359E+03  6.83351E+03 -3.34590E+03
  1.93575E+03 -7.37926E+03  1.09969E+03  3.06923E+03  6.70423E+03  3.11668E+03 -2.19019E+03  6.09718E+03
 -3.34719E+03 -4.59215E+02 -3.85912E+03 -5.94217E+03  4.03066E+03 -3.07528E+03  8.30610E+03 -7.96897E+03
  8.75912E+03  2.59422E+03  5.84346E+03  3.10282E+03  4.28580E+03  7.09078E+03  2.00761E+02  8.47079E+03
  1.54211E+03  8.07583E+03 -1.00167E+04 -2.79974E+03 -2.30891E+03 -4.46646E+03  4.07035E+03 -3.56986E+03
  2.93383E+03 -4.33595E+03  7.31843E+03 -5.78544E+02  1.49648E+03 -5.02378E+03  1.55047E+03  3.73721E+03
 -4.40724E+03  7.56469E+03  5.51037E+02 -2.18542E+03 -6.38428E+03 -2.93385E+03 -1.23130E+03  2.41692E+02
 -2.76352E+03  4.79888E+02 -6.88159E+03  1.17760E+03 -7.77472E+03 -3.15361E+03 -9.16886E+03 -4.84855E+03
 -3.11141E+03 -1.00695E+04  1.80806E+03 -1.46470E+04 -6.58810E+02 -1.84198E+03  1.40077E+04 -2.10872E+03
  7.13963E+03  4.59935E+03  3.14206E+03  2.27611E+03  6.89449E+01  2.38052E+03 -4.25729E+02  8.81611E+03
 -2.20144E+03  2.58988E+03  2.12887E+03 -7.67808E+02 -1.23140E+03  3.63565E+02  6.61437E+02 -7.03834E+03
 -3.62848E+03 -1.82326E+03 -2.20484E+03 -2.09612E+03  1.93074E+03  2.21891E+03 -1.75681E+03 -3.19445E+03
 -2.79266E+03 -5.26666E+03 -1.52623E+03  1.13831E+03  5.36957E+03  3.04922E+03 -1.52474E+03  6.21589E+03
 -5.50964E+03  9.64981E+03 -5.80444E+03  3.11886E+03 -9.93732E+03 -1.05065E+03 -3.46743E+03 -4.66442E+03
 -5.92812E+03 -1.24355E+04  1.56511E+03 -9.14178E+03  4.92996E+03 -1.54898E+03  9.16538E+03 -3.87518E+03
  3.07569E+02 -1.91072E+03  4.90753E+03  5.38488E+03 -8.19438E+03  1.50367E+03  2.59578E+01 -2.84569E+03
  4.09133E+03 -7.59625E+01  2.60161E+03 -4.27553E+03 -1.89746E+03  1.88359E+03 -3.40314E+02  3.37243E+03
  1.67628E+03  2.53968E+02  3.51204E+02 -1.16637E+02 -2.21394E+03 -2.90179E+03 -2.12292E+03 -7.10539E+03
  1.05586E+03 -7.17811E+03  5.74571E+03  2.71304E+03  2.02691E+03  5.41545E+03  4.95700E+03  3.37983E+03
  2.68665E+03  9.03087E+03 -6.86747E+03  3.23080E+03 -4.97192E+03  6.41745E+02  2.34137E+03  3.60490E+03
 -5.57415E+02  3.40460E+02  4.09083E+03  1.54255E+02 -5.08282E+03 -2.00777E+03 -1.01524E+04  8.36687E+02
 -2.09462E+02 -4.46646E+03  1.55989E+03 -5.96267E+03  1.46232E+02 -9.42338E+03  3.07527E+02 -2.61641E+02
  7.25425E+03 -8.73362E+02  1.63828E+03  1.38103E+03  9.02834E+02  2.67266E+03 -1.37202E+03 -2.82814E+03
