 $NMID ID='MM_0lb_SNR50_20hz_g50_30.RAW', FMTDAT='(8E13.5)'
 TRAMP=1., VOLUME=1. $END
  3.08824E+05  5.56395E+03  3.37405E+05  2.48854E+05  8.62912E+04  3.35486E+05 -1.33818E+05  2.51907E+05
 -1.90168E+05  8.24541E+04 -1.11982E+05 -3.30431E+04  2.71609E+03 -5.08288E+04  5.17055E+04 -4.13512E+03
  3.55657E+04  5.46044E+04 -1.83309E+04  7.69047E+04 -5.47590E+04  6.00001E+04 -8.51919E+04  3.26539E+04
 -8.26475E+04 -1.05078E+04 -5.90488E+04 -4.42029E+04 -1.68556E+04 -6.97151E+04  2.56149E+04 -4.94488E+04
  3.95148E+04  4.74361E+03  1.57838E+04  5.10940E+04 -3.60941E+04  4.39372E+04 -6.37021E+04 -2.29784E+03
 -5.03914E+04 -5.94922E+04 -7.44803E+03 -7.40351E+04  2.99881E+04 -5.75684E+04  4.94884E+04 -1.84710E+04
  4.06825E+04  6.23738E+03  2.77351E+04  2.54290E+04  1.44229E+04  2.91325E+04 -2.11543E+03  2.82232E+04
 -2.24974E+04  1.79497E+04 -1.78042E+04 -3.03497E+03  5.88823E+03 -6.68994E+03  1.95653E+04  9.45846E+03
  7.25088E+03  3.63280E+04 -3.14290E+04  3.55643E+04 -6.32257E+04  4.08303E+03 -5.59474E+04 -3.80967E+04
 -1.08003E+04 -5.78991E+04  3.82466E+04 -4.28257E+04  5.31838E+04  1.55472E+03  3.13804E+04  3.16998E+04
 -3.99411E+03  2.94762E+04 -2.89068E+04  1.33390E+04 -2.93605E+04 -4.02379E+03 -1.26243E+04 -1.07089E+04
 -6.36082E+03 -9.02995E+03 -1.96187E+03 -1.57504E+04  8.35751E+03 -2.68957E+04  1.45156E+04 -1.30741E+04
  1.36716E+04  1.79055E+03 -5.31283E+03  1.16851E+04 -1.03300E+04  1.85964E+03 -1.11603E+04 -3.03806E+04
  2.20565E+04 -4.05011E+04  4.73591E+04 -1.75046E+04  4.34041E+04  1.42543E+04  1.44705E+04  4.12770E+04
 -1.57700E+04  3.17412E+04 -2.56302E+04  1.03196E+03 -9.31246E+03 -2.49221E+04  2.21678E+04 -3.03940E+04
  3.64156E+04 -7.15083E+03  2.83607E+04  2.12678E+04  1.64334E+04  4.18351E+04 -8.78514E+03  4.42014E+04
 -2.46294E+04  2.91864E+04 -3.33522E+04  5.83232E+03 -4.05536E+04 -1.61570E+04 -1.91527E+04 -3.62751E+04
  5.11843E+03 -3.39369E+04  2.98643E+04 -8.37812E+03  2.74697E+04  8.76347E+03  4.79262E+03  1.64331E+04
 -9.88373E+03  6.75772E+03 -1.26157E+04 -5.76500E+03  5.07573E+03 -8.69757E+03  1.64006E+04  5.75754E+03
  1.63473E+04  1.92709E+04 -7.24764E+03  2.46313E+04 -1.85959E+04  1.10844E+04 -2.25242E+04 -8.71935E+03
 -1.53642E+04 -1.72070E+04 -6.70548E+03 -1.50101E+04  3.36831E+03 -1.78093E+04  1.55215E+04 -1.63485E+04
  1.72778E+04 -9.58196E+03  2.72970E+04  4.34986E+02  2.25636E+04  1.58761E+04  3.57523E+03  3.51066E+04
 -1.51293E+04  2.63290E+04 -2.30897E+04  6.58040E+03 -1.66370E+04 -7.35022E+03 -1.37580E+03 -1.49724E+04
  4.99156E+03 -3.39686E+03 -4.09804E+03  1.89996E+03 -1.64668E+04  7.30074E+03 -1.25977E+04 -3.56762E+03
 -8.33747E+03 -1.93081E+04  2.47659E+03 -1.77024E+04  9.43164E+03 -1.26092E+04  1.70975E+04 -1.92364E+03
  1.19673E+04  1.04416E+04 -8.17762E+02  1.91005E+04 -1.18068E+04  9.97707E+03 -1.43928E+04 -4.56451E+03
 -1.05203E+04 -1.48762E+04 -2.09091E+03 -1.84289E+04  9.18353E+03 -9.34550E+03  1.44641E+04 -9.70018E+03
  1.69741E+04  3.05292E+03  3.75359E+03  6.60452E+03  4.25227E+03 -2.27071E+03  6.19019E+03 -1.86802E+03
  1.11089E+04  5.79242E+02  1.33510E+04  1.29042E+04  1.23535E+04  2.47149E+04 -1.24518E+03  2.37403E+04
 -1.58915E+04  1.95684E+04 -2.50526E+04  8.91144E+03 -2.31269E+04  2.88095E+03 -1.70767E+04 -1.03523E+04
 -1.17733E+04 -2.00315E+04  4.20738E+03 -1.85515E+04  1.84280E+04 -1.05707E+04  1.64185E+04 -2.16126E+02
  5.02886E+03  1.04409E+04 -8.02249E+03  1.06210E+04 -1.07067E+04  8.79274E+02 -7.85156E+03 -6.61638E+03
 -1.08260E+03 -8.54901E+03  1.83556E+03 -1.36462E+04  8.45771E+03  1.73416E+03 -3.69903E+03  4.23600E+03
 -1.16713E+04 -1.05253E+02 -4.48071E+03 -3.41837E+03  4.93846E+03 -1.03923E+04  8.42460E+03 -7.31419E+03
  1.12070E+04 -3.43114E+03  1.42303E+04  2.15593E+03  7.75265E+03  2.50011E+03  2.79584E+03  1.47052E+04
 -1.98221E+03  1.29622E+04 -1.16724E+04  8.41957E+03 -1.23796E+04  1.16283E+03 -8.28476E+03 -2.78531E+03
 -5.33576E+03 -3.85246E+03 -4.87252E+03  3.14606E+02 -2.20251E+03  5.45122E+03 -7.02985E+03  2.10755E+03
 -6.95124E+03  2.31486E+03 -9.45315E+03 -6.14340E+03 -2.73399E+03 -1.15395E+04  3.22133E+03 -1.12656E+04
  1.15980E+04 -2.52141E+03  7.00890E+03  6.66617E+03  4.88779E+02  2.83309E+03 -1.71327E+03  5.98386E+02
 -4.70020E+03 -2.71021E+03  1.22326E+03 -5.05541E+03  6.33450E+03 -5.98087E+03  5.57982E+03  8.07782E+02
  1.76199E+04 -3.64298E+03  8.90964E+03  4.18416E+03  7.05810E+02  6.10736E+03 -3.80214E+03  1.00542E+04
 -6.39202E+03  5.40959E+02 -8.71292E+03 -5.07819E+03 -5.14584E+03  1.77636E+02  3.86369E+03  3.02571E+02
  4.94782E+03  1.95095E+03  1.83764E+03  7.19028E+03 -3.49153E+03  6.53072E+03 -5.38610E+03  2.05594E+03
 -7.20232E+03 -2.31980E+02  2.58761E+03 -4.94151E+03  2.28685E+03 -4.40599E+02  2.30122E+03  1.63601E+03
 -1.18910E+03  2.22707E+03 -2.96523E+03  9.61547E+02 -6.66479E+03  5.98163E+03 -1.76151E+03 -2.75947E+03
 -5.45739E+03 -2.59403E+03 -1.01538E+03 -5.38075E+03  6.66671E+03 -4.16119E+03  8.21021E+03  1.50255E+03
  4.01076E+03  1.08611E+03 -1.90171E+03  6.58489E+03 -4.47729E+03  4.01739E+03 -3.45522E+03  2.34690E+03
 -6.80784E+03 -3.56236E+03 -4.24763E+02 -8.48130E+03  2.10709E+03 -7.20805E+03  1.48626E+03 -1.83089E+03
  1.85824E+03 -1.07398E+03 -2.30753E+03 -8.26634E+02 -7.65207E+02  3.70831E+03 -2.79543E+03 -4.77288E+03
  3.82072E+03  1.79265E+03  2.18613E+03 -7.41981E+02  4.41926E+03 -1.24145E+03 -9.59447E+02  4.91856E+03
  5.68054E+02  6.38671E+03 -8.03509E+03  6.71577E+03 -6.79136E+03 -3.69375E+02 -8.73827E+03 -2.77119E+03
 -7.21734E+03 -5.75785E+03  5.75859E+03 -7.68774E+03  6.48059E+02 -2.52832E+03  3.64832E+03 -5.81711E+03
  3.22511E+03 -1.27799E+03  5.59101E+03 -3.62469E+03  5.95297E+03 -2.55838E+03  6.19040E+03  2.41418E+03
  2.70677E+03  5.15733E+03 -8.74250E+02  3.26589E+03 -4.11845E+03  1.17324E+03 -5.59018E+03  7.79355E+03
 -2.63751E+03 -1.35614E+03  2.46008E+03 -2.88224E+03  8.29475E+03 -2.11707E+03  2.56106E+03 -5.14041E+03
  4.29424E+02 -8.02202E+03  3.59204E+03 -4.51009E+02  4.60532E+03  6.46050E+03 -1.46805E+03  4.19776E+03
 -5.18531E+03  4.28677E+03 -2.54430E+03  1.33205E+03 -2.11817E+03  4.01352E+03 -2.32634E+03 -2.25649E+03
  3.75336E+02  1.16756E+03  2.53589E+03 -8.49819E+02 -6.08018E+03  1.19879E+03 -3.84238E+03  1.12187E+03
  3.99577E+02 -3.31757E+02  8.38588E+01 -9.11985E+03  5.91303E+03 -4.67907E+03  2.46139E+03 -2.52658E+03
  3.95790E+03  2.52961E+03 -2.21782E+03  3.68684E+03  1.28983E+02  6.31162E+02 -3.01277E+03 -2.44579E+03
 -2.00723E+03  1.00163E+03 -7.90655E+02  3.78631E+03 -3.59360E+02 -2.63042E+03 -6.13751E+01 -7.40678E+03
  6.97087E+02 -2.34806E+03  2.83054E+03  1.16904E+03 -4.21611E+03  2.54119E+03  2.73237E+03 -3.44636E+02
  1.67792E+03 -2.08286E+03 -7.55897E+02  2.49538E+03  4.63033E+03  1.80436E+03  4.85551E+03 -4.51548E+03
 -3.05932E+03  3.34969E+03 -4.42688E+03  3.35124E+03 -1.61491E+03  4.04593E+03 -4.50553E+03 -3.46945E+03
 -4.11538E+03 -5.95732E+03  1.37357E+03 -5.14614E+03 -7.14507E+02 -4.55034E+03  4.58591E+03 -6.68184E+01
  3.98010E+03  3.57385E+03  4.34932E+02  3.42322E+03 -1.60108E+03 -1.37905E+03  1.17402E+03  1.66454E+02
  3.62650E+02  1.43147E+03  3.63746E+02  1.56426E+03  1.24564E+03  6.71180E+02  2.17425E+03  1.73703E+03
 -2.26025E+03 -8.01644E+02  1.03788E+03  5.05769E+01 -1.55476E+03  2.74178E+02  3.29316E+03  1.99546E+03
 -1.38714E+03  6.75142E+02  2.08067E+03  2.46545E+03 -2.73822E+03  4.19555E+03 -2.12201E+03  7.39880E+03
 -1.32213E+03  4.87113E+03 -1.43314E+03  2.39731E+03 -3.92878E+03 -1.34074E+03  1.67013E+02 -1.84899E+03
 -1.65312E+03  2.52916E+03  3.46539E+03 -2.18676E+03 -1.95533E+03  4.93093E+02 -1.74900E+03 -3.62354E+02
  2.30071E+03  4.82066E+03  1.73491E+03 -1.97942E+03 -1.45215E+03 -6.66564E+02  2.99301E+03  3.03112E+03
  2.58065E+02 -1.29608E+03  2.76760E+03 -1.95278E+02  7.79280E+02 -2.50739E+03  1.69544E+03  3.54768E+03
 -2.88139E+03 -1.94235E+03  1.61513E+03 -3.60969E+03  4.64347E+03 -1.36242E+02  1.77212E+03  3.50444E+01
 -8.97548E+02  1.50334E+03  5.83960E+03  9.20088E+02 -1.12354E+03  4.68338E+03 -6.12841E+02  7.13967E+02
  1.19341E+03 -4.58116E+03 -6.37493E+02 -3.36521E+03  2.13878E+03 -1.64685E+03 -1.31230E+01 -1.30551E+03
 -3.91842E+02 -1.57958E+02  6.16386E+01 -1.95058E+03 -1.13470E+03 -1.24438E+02 -5.63422E+02  1.10977E+03
 -1.85407E+03  9.26463E+02 -1.49778E+03  1.69276E+03 -1.14863E+03 -2.78526E+03 -2.08602E+03  2.60258E+03
  4.41746E+03  4.12650E+02 -1.40464E+03  2.21224E+03  4.39024E+02 -1.24702E+03 -1.96348E+03  1.50127E+03
 -3.28650E+02  1.21344E+03  2.11039E+03 -1.77989E+03  6.29330E+03  3.93365E+02 -1.80344E+03 -1.15069E+03
  8.47479E+01  5.54845E+03  1.77803E+03 -3.80188E+03 -9.05066E+02 -2.48437E+03 -4.31659E+03  4.17839E+03
 -2.71180E+02  3.14790E+03  8.69993E+02 -1.61027E+03  4.86386E+02 -4.33762E+01  3.31789E+03  2.57114E+03
 -1.72785E+03  2.08067E+03 -4.75992E+01  1.28607E+03  2.92415E+02 -9.81156E+02 -1.41980E+03 -3.02794E+03
 -4.14929E+02  2.10570E+03 -1.48922E+03  7.76781E+02  4.29618E+02  2.70388E+03 -1.18481E+03 -8.41194E+02
 -1.98761E+03  2.59603E+03 -2.21319E+03 -4.29272E+02  9.74188E+02  1.14985E+03  3.36258E+03 -8.90752E+01
  1.30573E+01 -3.40131E+03 -5.13243E+02  9.00804E+01  2.36298E+03 -1.11787E+02  2.54953E+03  4.50153E+02
  2.20670E+03 -1.43987E+01  1.15188E+03  1.74182E+03  1.97281E+03 -1.42575E+03 -3.05549E+03  1.01743E+03
  1.30652E+03 -7.42786E+01 -1.21068E+03 -1.75909E+02  1.01576E+03  6.32698E+02  1.30141E+03 -7.04223E+02
 -5.63465E+03 -2.56450E+03  8.34121E+02  6.75011E+02 -3.01839E+02  5.76902E+01 -1.35304E+03 -1.86238E+03
 -1.76930E+03  1.21210E+03 -1.12853E+02 -2.32335E+03 -1.02553E+03 -3.66228E+03 -1.09704E+02  3.33533E+03
  6.36071E+02  5.29459E+02 -1.82589E+03  2.72365E+03 -2.94720E+02  1.05270E+03  4.22594E+02 -3.59418E+01
 -2.65447E+03 -1.24836E+03  1.76714E+03  7.23062E+02 -4.58230E+02 -2.21950E+03 -2.03899E+03  1.42208E+03
 -3.64516E+03  2.30778E+03 -2.25768E+03  3.07529E+02  2.95062E+03  2.63932E+02 -4.17192E+03 -1.41365E+03
  3.61846E+03 -2.15130E+03  3.04377E+03 -1.34204E+03 -1.56040E+02  1.24383E+03 -5.30913E+03  4.66781E+03
