 $NMID ID='MM_0lb_SNR50_19hz_g55_94.RAW', FMTDAT='(8E13.5)'
 TRAMP=1., VOLUME=1. $END
  3.11850E+05 -1.13444E+03  3.32839E+05  2.50914E+05  8.18114E+04  3.37810E+05 -1.31174E+05  2.48089E+05
 -1.89599E+05  8.15491E+04 -1.09085E+05 -3.07000E+04  2.22941E+03 -5.21063E+04  5.35434E+04 -2.10898E+02
  3.58891E+04  5.45709E+04 -1.52746E+04  7.86460E+04 -5.88691E+04  6.23437E+04 -8.61444E+04  3.04564E+04
 -7.84686E+04 -1.03207E+04 -5.14709E+04 -5.36020E+04 -1.71021E+04 -7.03565E+04  2.52233E+04 -4.34386E+04
  4.09507E+04  5.73928E+03  1.84986E+04  4.67619E+04 -3.37177E+04  4.88385E+04 -6.52970E+04 -1.04290E+03
 -5.19346E+04 -5.91783E+04 -8.72127E+03 -7.44269E+04  3.20566E+04 -4.91166E+04  4.70082E+04 -1.84053E+04
  4.37808E+04  1.30212E+04  3.31067E+04  2.74974E+04  1.49863E+04  3.23156E+04 -3.06314E+03  2.72085E+04
 -2.25171E+04  1.30161E+04 -1.93981E+04 -3.69750E+03  4.03126E+03 -1.22241E+04  2.12711E+04  1.28696E+04
  5.58113E+03  3.26560E+04 -3.13938E+04  2.94285E+04 -5.90546E+04  3.34819E+03 -5.59958E+04 -4.06363E+04
 -9.81912E+03 -5.96428E+04  3.86172E+04 -4.36744E+04  5.26160E+04 -4.73861E+03  3.00830E+04  2.94250E+04
 -6.02789E+03  3.73244E+04 -2.87225E+04  1.29928E+04 -3.01756E+04 -5.15690E+03 -1.22284E+04 -9.35783E+03
 -6.59674E+03 -5.87773E+03 -4.72469E+03 -1.38309E+04  3.51436E+03 -2.32937E+04  1.45523E+04 -1.29709E+04
  9.89612E+03  7.25081E+03 -7.52240E+03  1.13968E+04 -1.77212E+04  5.99725E+02 -5.73923E+03 -3.44798E+04
  2.18007E+04 -3.86136E+04  4.56687E+04 -1.64008E+04  4.32399E+04  1.41031E+04  1.54438E+04  4.39378E+04
 -1.88433E+04  2.90939E+04 -2.23650E+04  3.36817E+03 -8.23447E+03 -2.39781E+04  2.07239E+04 -3.41433E+04
  3.85151E+04 -3.51605E+03  3.05916E+04  2.44764E+04  1.39452E+04  4.09695E+04 -8.36595E+03  4.60115E+04
 -2.63109E+04  3.27822E+04 -3.91711E+04  1.09962E+04 -4.19477E+04 -1.39683E+04 -2.20165E+04 -3.66303E+04
  7.28077E+03 -3.35471E+04  2.98752E+04 -1.35522E+04  2.62975E+04  1.26288E+04  4.78795E+03  1.90175E+04
 -1.28429E+04  1.06959E+04 -5.77391E+03 -7.08267E+03  2.14001E+03 -1.02117E+04  2.05351E+04  4.90079E+03
  9.26987E+03  2.01480E+04 -9.29945E+03  2.17984E+04 -1.58282E+04  9.62066E+03 -2.66507E+04 -7.65422E+03
 -2.07327E+04 -1.58023E+04 -5.37275E+03 -2.09854E+04  2.59773E+03 -1.80030E+04  1.30646E+04 -1.31270E+04
  2.13818E+04 -1.50210E+04  2.83239E+04  5.34026E+03  2.50431E+04  1.85170E+04  4.43631E+03  3.69754E+04
 -1.70514E+04  2.84471E+04 -2.26729E+04  1.10326E+04 -2.01486E+04 -1.50625E+04 -2.96318E+03 -1.46351E+04
 -1.66800E+03 -4.66988E+03 -2.99299E+03  5.62196E+03 -1.04476E+04  3.41337E+03 -1.60092E+04 -7.30843E+03
 -9.47132E+03 -1.45863E+04  2.76062E+03 -1.85458E+04  1.49097E+04 -1.36918E+04  1.76492E+04 -2.54191E+03
  1.04441E+04  1.10270E+04 -1.88013E+03  1.87865E+04 -1.13289E+04  1.00710E+04 -1.52424E+04 -3.87469E+03
 -1.42060E+04 -1.81120E+04 -1.82001E+03 -1.90111E+04  8.09978E+03 -1.90256E+04  1.52058E+04 -6.27874E+03
  1.41600E+04 -1.78414E+02  1.51581E+04  8.61645E+03  3.92545E+03  2.25820E+03  8.59318E+03 -3.88266E+03
  1.89642E+04  1.29359E+03  1.77246E+04  1.55532E+04  1.02460E+04  2.46813E+04 -7.01636E+03  2.71389E+04
 -1.64863E+04  2.04871E+04 -2.38604E+04  1.30476E+04 -2.47453E+04 -1.46340E+03 -2.05717E+04 -1.22688E+04
 -1.85777E+04 -2.32145E+04  6.29451E+03 -2.02648E+04  1.65940E+04 -8.17020E+03  1.55521E+04  1.00541E+03
  7.82356E+03  1.32703E+04 -4.60150E+03  9.48502E+03 -1.77794E+04  2.23016E+03 -8.03676E+03 -1.00623E+04
  1.02082E+03 -1.37812E+04  3.32584E+03 -6.09501E+03  7.92035E+03 -3.72444E+03 -4.61420E+03  5.67028E+03
 -1.42117E+03 -2.28016E+03 -4.63977E+02 -3.25832E+03  9.34634E+02 -1.23183E+04  7.75329E+03 -1.19318E+04
  1.39202E+04 -1.12806E+04  1.53878E+04  2.50109E+03  8.63882E+03  1.04869E+04  7.17393E+03  1.39056E+04
 -2.12238E+03  1.30985E+04 -6.42314E+03  7.34328E+03 -9.06319E+03  7.09789E+03 -6.95413E+03 -3.53584E+03
 -7.02298E+03 -3.54665E+03 -6.87742E+03  2.19362E+03 -4.70409E+03 -2.64119E+02  2.83266E+03  5.97813E+03
 -5.80096E+03 -3.79159E+03 -1.10991E+04 -5.91877E+03 -7.26026E+03 -8.72631E+03  4.63293E+03 -5.52133E+03
  4.96597E+03 -5.38163E+03  5.66742E+03  6.60323E+03  1.05755E+03  2.88250E+03 -5.56527E+03  2.94207E+03
 -4.39660E+03 -6.08430E+03 -3.20211E+03 -7.72041E+03  2.46508E+03 -4.92642E+03  9.31241E+03 -6.52913E+03
  1.02626E+04 -3.67756E+03  9.46731E+03  6.82187E+03  1.43040E+03  5.83992E+03 -5.47657E+03  8.56770E+03
 -9.50650E+03  4.11310E+03 -4.59883E+03  1.65765E+02 -1.30248E+03  8.26068E+02  7.13796E+03 -7.37618E+03
  2.91625E+03  6.03041E+03  1.44772E+03  1.01976E+04 -2.07006E+03  8.96080E+03 -8.29418E+03  9.65919E+02
 -5.27271E+03 -4.38925E+03 -8.83409E+01 -1.09015E+04  4.01225E+03 -3.45850E+03  5.85224E+03 -1.50529E+03
  1.53034E+03  4.87073E+03 -9.96139E+03  2.57405E+03 -3.16907E+03 -2.85034E+03 -6.98980E+03 -1.88691E+02
 -7.05162E+03 -5.10941E+03  6.58456E+02 -4.56663E+03  3.11702E+03 -3.37077E+03  3.40220E+03  3.66925E+03
  3.22478E+03  8.36071E+03 -1.22214E+03  8.01086E+03 -9.99272E+03 -5.76784E+02 -4.74264E+03 -1.42961E+03
 -7.52413E+03 -5.33862E+03 -3.93245E+03 -7.15912E+03  4.52200E+02 -2.06284E+03  3.98470E+03 -4.43124E+03
 -3.26041E+03 -6.82243E+03  2.00872E+03  5.49857E+03  2.13599E+03 -1.08592E+03 -1.05528E+02 -2.93080E+03
  3.98343E+03  4.46144E+03  1.03156E+04  2.39308E+03  9.13139E+03 -7.05936E+02  4.31106E+03  1.00428E+04
  7.43328E+02  6.59788E+03 -7.67613E+03  9.55663E+03 -1.08291E+04  2.50649E+03 -9.98307E+03 -4.28849E+03
 -4.47122E+03 -6.12940E+03  1.42483E+03 -7.58437E+03  1.18735E+03 -1.55217E+03  1.71294E+03 -3.11491E+03
  2.84076E+03 -2.38310E+03  1.51412E+03 -2.25797E+02  3.29713E+03 -2.39468E+02  2.34949E+03 -4.97307E+03
  4.37293E+03  1.86704E+03  2.29657E+03  9.09612E+02 -3.64571E+03  6.81810E+03 -1.49325E+03 -2.27956E+03
 -7.11574E+03 -1.58668E+03  8.09449E+02 -5.44384E+03  8.03777E+02 -3.61135E+03  5.01506E+03 -3.89995E+03
  6.09793E+03 -4.66612E+02  6.41005E+03 -3.46739E+03  3.84726E+03  2.35540E+02  2.96893E+02  9.23557E+03
 -3.04996E+03  3.45194E+03 -1.45447E+02  3.74150E+03 -1.48658E+03  1.32295E+03  1.06170E+03  1.86786E+03
 -1.82832E+02 -1.30336E+03 -1.78195E+03 -7.23563E+02 -1.01656E+03  3.76476E+03 -3.15879E+03 -4.31536E+03
 -2.28933E+02 -5.36958E+02 -8.66702E+02 -4.12701E+03  6.64016E+02 -3.00174E+03  5.33913E+03 -2.81291E+02
  1.01702E+03  5.22576E+03  1.60712E+02  2.95308E+03  3.70552E+03  2.86357E+03 -3.80247E+03  1.26150E+03
 -3.99051E+03 -1.83113E+03 -6.46705E+03 -4.72192E+03 -1.76653E+03 -2.47031E+02  1.26137E+03 -5.97376E+03
  2.28066E+03 -9.35761E+01  2.53469E+03  3.49875E+03 -1.19056E+03 -1.22378E+03  1.35587E+03 -2.48060E+02
 -2.43132E+03  6.02920E+03  3.87102E+03 -2.01503E+03  2.14574E+03  5.95985E+03  4.74707E+03  1.58099E+03
 -1.74807E+03  1.83845E+03  1.13284E+02  4.69018E+03 -6.22652E+03  4.09441E+03 -5.16747E+03  3.14297E+03
 -1.03262E+03 -2.41439E+03  1.12234E+03  1.17523E+03  7.80686E+02 -2.94493E+03  9.17527E+02 -3.35505E+02
  1.67757E+03  1.20587E+03 -1.22363E+03  3.75702E+03 -9.00027E+02 -7.60599E+02 -3.52760E+03 -1.41951E+03
 -1.83717E+03 -3.70450E+03  3.97160E+03  7.90926E+02 -1.87415E+03 -5.28645E+03 -1.21975E+03  3.24846E+03
  1.73710E+03  8.83274E+01  4.85077E+03 -2.14248E+03 -2.15478E+03  4.73328E+03  5.16824E+03  1.38748E+03
  1.91946E+03  1.19508E+03  4.69641E+03 -2.83026E+03  2.43663E+03  3.06723E+03 -3.65624E+03 -1.08570E+03
 -1.20432E+03  5.07074E+03 -6.52309E+03 -1.17164E+03 -2.12163E+03 -1.69496E+03  2.27521E+03 -8.69642E+01
 -6.13422E+02  2.75257E+03  1.37834E+03  1.28784E+03  6.25804E+02  1.72028E+03  7.72590E+02 -8.37633E+02
  1.18791E+03  2.27172E+03 -1.49019E+03 -2.11876E+03  1.13533E+02  4.61712E+02  1.20928E+02 -6.92843E+02
 -3.68963E+03 -2.45701E+03 -3.92655E+03  2.28652E+03  6.97978E+02  2.04877E+03 -1.67781E+03  6.29799E+02
 -2.06225E+02 -3.11959E+02  6.08952E+02 -6.95481E+02  1.43494E+03  3.07661E+03 -7.08775E+02 -4.59609E+03
  3.95479E+03 -2.55027E+03 -6.93679E+02  3.63810E+03  3.42387E+02 -2.82926E+03 -3.58152E+03  5.46527E+02
 -1.30755E+03  1.96164E+02  1.28746E+03  1.25891E+03 -8.84490E+01  1.31987E+03  1.48821E+03 -1.40127E+03
  3.12560E+03  2.91392E+03 -2.08139E+03 -4.81500E+03 -3.34461E+03 -4.95105E+02 -1.66675E+03  1.69589E+03
 -2.70405E+02  3.86910E+03 -9.66205E+02  2.41188E+03  8.40011E+02 -6.31267E+01 -9.50542E+02  1.00675E+03
 -2.70871E+02 -1.35696E+03 -1.27350E+03  1.03004E+03 -3.83118E+03 -1.55558E+03 -4.21323E+03 -1.86048E+03
  5.22999E+02 -4.30609E+03  1.55098E+03 -2.77876E+03  5.76574E+03 -2.40286E+03  2.71295E+02 -3.79779E+03
  2.81709E+03  1.29868E+03 -1.42220E+03  1.42953E+03  3.72065E+03  1.36471E+03 -2.44926E+03  4.95464E+03
  2.24910E+03  4.42709E+03 -1.00010E+03 -1.00311E+03 -9.64118E+02  2.13516E+03  2.02737E+02  2.90568E+02
 -8.48478E+02 -2.94631E+03 -1.78163E+03 -2.85535E+03  1.68491E+02  1.74648E+03 -1.21284E+03  4.41192E+03
  8.00841E+02 -1.78496E+03  1.74809E+03  1.92914E+03  8.37594E+02  8.12568E+03  1.54477E+03  5.64217E+02
  1.29978E+03  4.51851E+03 -1.24316E+03  3.98220E+03 -2.77948E+03  1.54721E+03  5.48064E+02 -3.23339E+02
 -3.24804E+03  1.18913E+03  1.74928E+03 -1.45083E+03  1.45771E+03  2.07760E+03  1.05197E+03  2.25768E+02
 -1.09346E+03 -1.84709E+03  2.86833E+03 -2.72695E+03  8.63872E+02 -1.21035E+03 -7.54175E+02  2.89887E+03
 -1.89021E+03 -3.22245E+02  1.57595E+03 -1.66833E+03 -2.60318E+03  9.99320E+02  6.95551E+02 -8.88477E+02
  2.83424E+03  5.36813E+03 -8.08638E+02 -3.74140E+02 -4.02753E+03  2.83147E+03 -2.56729E+02 -1.43605E+03
 -2.54208E+03 -2.66460E+02 -1.02025E+03  2.55023E+03 -6.51610E+02 -4.03310E+02 -1.01061E+02  5.00922E+03
 -2.88724E+03  6.94209E+02 -3.90458E+02  1.02177E+03  1.87375E+03 -3.13979E+02  1.24673E+03  2.26900E+03
 -1.09591E+03 -1.21937E+02 -6.74608E+03 -3.84589E+02  4.04206E+01  3.39452E+03 -1.86330E+03 -5.51935E+03
 -1.68572E+03 -1.44179E+03 -3.72906E+02 -5.07230E+03  7.66217E+02  1.28303E+03 -8.35536E+02 -2.89368E+02
  1.90314E+03  3.08028E+03  2.12560E+03  3.42477E+03  4.45544E+03  3.62432E+03  2.32007E+03  3.62890E+01
