 $NMID ID='MM_0lb_SNR50_10hz_g50_91.RAW', FMTDAT='(8E13.5)'
 TRAMP=1., VOLUME=1. $END
  3.07221E+05  3.07435E+03  3.41909E+05  2.58018E+05  8.50999E+04  3.42931E+05 -1.28640E+05  2.51980E+05
 -1.93510E+05  8.34950E+04 -1.14536E+05 -2.94268E+04  7.86173E+02 -5.19501E+04  4.86790E+04  1.89998E+03
  3.61081E+04  5.07934E+04 -1.21592E+04  8.17330E+04 -5.71806E+04  6.42633E+04 -7.98098E+04  2.83964E+04
 -8.20283E+04 -1.35419E+04 -5.40169E+04 -4.89022E+04 -1.27993E+04 -7.01926E+04  2.84393E+04 -5.30023E+04
  4.23994E+04  5.25065E+03  2.01333E+04  5.08398E+04 -3.50936E+04  4.73755E+04 -6.02982E+04 -1.29139E+03
 -5.84455E+04 -5.79696E+04 -2.41171E+03 -8.23550E+04  3.89897E+04 -5.88027E+04  5.39785E+04 -1.82641E+04
  4.03752E+04  9.49181E+03  2.94428E+04  3.43977E+04  2.02469E+04  2.80258E+04 -4.08828E+03  2.38171E+04
 -2.20268E+04  1.12913E+04 -1.70586E+04 -6.67074E+03  1.90035E+03 -5.68815E+03  2.65881E+04  9.47516E+03
  1.20874E+04  4.08210E+04 -3.21901E+04  4.35772E+04 -5.54902E+04 -7.03835E+03 -5.87743E+04 -4.67382E+04
 -1.15638E+04 -6.75966E+04  3.78595E+04 -4.56169E+04  5.86150E+04 -1.58372E+03  3.37419E+04  3.44879E+04
  3.01239E+02  3.31508E+04 -2.91789E+04  1.96405E+04 -3.48280E+04 -3.48327E+03 -2.03550E+04 -9.05279E+03
 -1.30578E+04 -1.94692E+04  2.05743E+02 -1.91928E+04  9.85790E+03 -2.16750E+04  1.87071E+04 -1.55468E+04
  6.28189E+03  8.08573E+03 -8.69635E+03  1.55663E+04 -1.62903E+04 -1.85059E+03 -1.09203E+04 -3.51280E+04
  2.84631E+04 -4.52029E+04  5.74823E+04 -1.80252E+04  4.54775E+04  1.46808E+04  1.79548E+04  4.85127E+04
 -1.67721E+04  3.81873E+04 -2.86261E+04 -2.53149E+03 -9.77560E+03 -3.05124E+04  2.56365E+04 -3.72925E+04
  4.12104E+04 -1.79029E+04  3.95471E+04  2.12986E+04  1.34216E+04  5.09879E+04 -8.15150E+03  5.55659E+04
 -3.45994E+04  4.01567E+04 -4.69587E+04  7.74730E+03 -4.25759E+04 -2.16453E+04 -2.47192E+04 -3.78680E+04
  9.75231E+03 -4.07264E+04  3.44165E+04 -2.02650E+04  2.98006E+04  8.71469E+03 -1.05383E+02  2.03755E+04
 -1.75086E+04  8.72544E+03 -1.50987E+04 -5.37279E+03  6.31289E+03 -1.46049E+04  2.24094E+04  5.32749E+03
  1.69163E+04  2.64258E+04  1.74057E+03  2.47627E+04 -2.10108E+04  1.01748E+04 -3.81977E+04 -5.98922E+03
 -2.27381E+04 -1.40463E+04 -8.01159E+03 -2.17050E+04 -7.71427E+02 -2.44981E+04  1.71481E+04 -2.44835E+04
  3.43993E+04 -1.68269E+04  3.71845E+04  4.75279E+03  2.17616E+04  2.14593E+04  2.23725E+03  3.83029E+04
 -2.58216E+04  3.19917E+04 -3.13305E+04  9.15886E+03 -2.62231E+04 -1.52007E+04 -7.43415E+03 -1.28261E+04
  3.95327E+03 -5.12536E+03 -9.73116E+03  9.66225E+03 -2.32123E+04 -3.18650E+02 -2.32142E+04 -1.01881E+04
 -9.99149E+03 -2.80040E+04  6.30297E+03 -3.38731E+04  1.58961E+04 -1.73886E+04  2.22413E+04  5.17073E+03
  1.25280E+04  1.57277E+04 -2.23464E+02  2.42388E+04 -1.17960E+04  1.04786E+04 -2.34964E+04 -8.60739E+03
 -1.75413E+04 -2.43626E+04 -3.20011E+03 -2.44997E+04  1.40841E+04 -2.18585E+04  1.74775E+04 -1.15847E+04
  1.78360E+04 -6.71573E+03  1.37890E+04  2.59436E+03  6.58726E+03  4.85293E+03  1.13701E+04  2.36080E+03
  1.49767E+04  3.72835E+03  2.58466E+04  2.63042E+04  1.29460E+04  3.61767E+04 -8.03933E+03  4.39794E+04
 -2.21103E+04  3.95341E+04 -3.47939E+04  1.45976E+04 -4.19226E+04  2.04909E+03 -3.68376E+04 -2.66032E+04
 -1.21432E+04 -3.66665E+04  1.29754E+04 -3.19591E+04  3.33315E+04 -1.21970E+04  2.38953E+04  8.11731E+03
  3.96421E+03  1.37150E+04 -1.11870E+04  1.40472E+04 -2.22194E+04  4.51428E+01 -1.47345E+04 -2.09253E+04
  3.45777E+02 -1.78594E+04  6.59471E+03 -1.33652E+04  1.45170E+04 -1.20117E+03  3.96041E+03  5.95543E+03
 -5.82246E+03 -4.47351E+02 -7.43044E+03 -3.45924E+03  2.24428E+03 -1.91290E+04  1.01435E+04 -2.26405E+04
  1.96491E+04 -9.77811E+03  2.18424E+04 -1.25170E+03  2.32614E+04  1.43389E+04  1.25137E+04  2.71709E+04
 -2.42962E+03  2.84598E+04 -2.27005E+04  1.83207E+04 -2.55696E+04  5.19012E+03 -1.42237E+04 -6.83788E+03
 -8.68431E+03 -8.87840E+03  3.61340E+03  4.82652E+02 -2.24191E+03  3.87581E+03 -6.69049E+03  8.98130E+03
 -8.98610E+03  1.27585E+03 -1.46649E+04 -1.29104E+04 -6.79471E+03 -2.40820E+04  4.08720E+03 -1.27959E+04
  1.84101E+04 -2.23296E+03  1.55151E+04  2.27218E+03  5.83075E+03  6.39780E+03 -3.75844E+03 -2.38114E+03
 -1.02608E+04 -9.52861E+03 -2.79885E+03 -1.57786E+04  5.64358E+03 -1.21494E+04  1.88040E+04 -8.61383E+03
  2.52425E+04 -9.96203E+02  1.67884E+04  2.31389E+04  4.34742E+03  1.48359E+04 -4.30704E+03  1.85120E+04
 -7.50958E+03  5.43044E+03 -5.97449E+03  8.25985E+02  6.08319E+03 -2.99418E+03  1.13399E+04  1.85515E+03
  2.23076E+03  2.94924E+03  1.06302E+03  1.27091E+04 -1.34834E+04  1.12383E+04 -1.48849E+04 -8.05286E+01
 -8.70277E+03 -1.02927E+04 -5.88691E+01 -1.58936E+04  9.80919E+03 -6.96617E+03  7.28638E+03  2.26546E+03
  1.69813E+03  1.18158E+04 -5.93173E+03  4.62187E+03 -1.31036E+04  1.99676E+03 -1.42565E+04 -1.09790E+04
 -3.10053E+03 -1.14112E+04  3.42372E+02 -1.89313E+04  1.32323E+04 -1.10730E+04  1.79216E+04  5.07090E+03
  9.47623E+03  1.37218E+04 -2.15925E+03  1.34404E+04 -1.28705E+04  8.41579E+03 -7.34429E+03 -2.62795E+03
 -1.17545E+04 -7.16697E+03 -6.32527E+03 -8.76590E+03  8.17773E+03 -9.40444E+03  1.64300E+04 -3.83810E+03
  4.47076E+03  7.34915E+03 -9.69729E+02  4.41259E+02 -2.42426E+03 -8.74055E+02  1.98325E+03 -4.50184E+03
  1.22296E+04 -6.45735E+03  1.60606E+04  6.76585E+03  1.35450E+04  1.27736E+04  5.70273E+03  1.86113E+04
  2.29767E+03  2.79019E+04 -2.04870E+04  1.67563E+04 -1.79029E+04  2.23631E+03 -2.20444E+04 -1.07307E+04
 -3.15217E+03 -1.36840E+04 -3.69627E+03 -1.53678E+04  1.41302E+03 -7.42156E+03  4.11539E+03 -3.26382E+03
  2.73086E+03 -8.72622E+03  2.11202E+03 -1.21588E+03  9.28878E+03 -7.16672E+02  8.21196E+03 -1.32138E+03
  9.79303E+03  2.75309E+03  1.08565E+04  6.68061E+03 -4.61040E+03  8.84703E+03 -1.08030E+04  7.00467E+03
 -1.03364E+04  2.86899E+03 -6.74981E+03 -1.65850E+04 -2.38363E+03 -8.48567E+03  1.18319E+04 -1.08353E+04
  1.21483E+04 -1.05509E+04  2.33913E+04  2.39478E+03  8.88136E+03  1.26348E+04  5.73086E+03  2.08821E+04
 -9.70440E+03  1.62021E+04 -1.39972E+04  5.96381E+03 -7.58305E+03 -4.77280E+03  1.79960E+03 -3.80321E+03
 -6.25993E+03 -2.50408E+03 -3.24470E+03  2.41350E+03 -1.87979E+03  8.87936E+01 -4.27658E+03 -2.10109E+03
 -7.09753E+03 -1.36505E+04  3.73153E+03 -6.67691E+03  8.64404E+03 -1.20177E+04  1.12671E+04  3.05559E+02
  1.68455E+04  1.05995E+04  7.13209E+03  1.36911E+04 -2.66636E+03  1.51027E+04 -1.05322E+04  6.86124E+03
 -1.55106E+04  1.84516E+03 -6.98117E+03 -6.57246E+03 -1.88747E+03 -1.20674E+04  9.36547E+03 -7.39069E+03
  1.02663E+04 -5.29316E+03  3.49930E+03 -7.62327E+02  3.43023E+03  2.71208E+03 -3.27828E+02  2.91242E+02
  4.00382E+03  5.53419E+03 -1.31859E+03  3.83128E+03  7.08815E+03  6.23247E+03  6.81735E+03  1.17618E+04
 -4.81531E+03  9.58687E+03 -5.52713E+03  8.22733E+03 -1.10094E+04 -5.19000E+03 -1.64920E+04 -7.40945E+03
 -1.22688E+04 -1.07238E+04  6.85916E+03 -1.65813E+04  1.29012E+04 -1.21026E+04  1.25473E+04 -1.14087E+03
  1.28654E+04  1.08788E+04  4.74135E+03  7.37002E+03 -7.04163E+03  1.83893E+03 -6.62351E+03 -6.09953E+03
 -3.64170E+03  1.37969E+03  5.18292E+03 -4.14913E+03  1.91528E+03 -7.85931E+01  5.80124E+03  5.54098E+03
  4.75792E+02 -6.47417E+02  6.70317E+03  6.22165E+03 -2.90323E+03  7.62357E+03  2.53173E+03  9.53384E+02
 -1.33653E+03 -5.57689E+03  8.45372E+03 -3.22224E+02  5.33475E+03  5.38480E+03 -4.49379E+03  1.60199E+04
 -3.53798E+03  1.40511E+04 -1.03889E+04 -3.55619E+03 -4.34937E+03 -1.18220E+03 -6.40725E+03 -2.84827E+03
  4.00234E+03 -9.24098E+03 -5.59185E+02 -1.69993E+03  6.07017E+02  4.05100E+03 -1.20853E+03  3.17317E+03
 -8.18047E+03  5.51494E+03 -8.79769E+03 -1.05933E+03  3.63504E+03 -8.80521E+03  2.32824E+03 -9.78275E+03
 -5.96582E+02 -2.93453E+03  2.45540E+03  1.70782E+03  7.31631E+03  7.54516E+02  1.71927E+03  4.36713E+03
  2.64855E+03  3.25036E+03 -6.90754E+03 -4.95642E+02 -5.23963E+02 -1.38320E+03  8.24066E+03 -6.09755E+03
  1.32525E+04  6.06045E+02  6.17206E+03  7.32867E+03  3.11371E+03  9.16040E+03 -6.87821E+03  8.39354E+03
 -4.65320E+03  5.37317E+03 -5.11966E+03  1.29337E+03 -6.43179E+03 -4.60264E+03 -1.81532E+03 -4.92338E+03
  8.02013E+03 -7.21667E+03 -5.51472E+02  8.18747E+03  3.08678E+02  6.76300E+03 -2.43200E+03  4.87319E+03
  3.69969E+03  2.67745E+03 -4.23285E+02 -6.08715E+02 -4.48772E+03 -4.74470E+03 -3.67505E+03  1.05311E+04
  1.75777E+03  8.71392E+03 -3.73700E+03  1.25421E+03 -7.77927E+03 -4.56661E+02 -1.05514E+04 -8.41289E+03
 -5.98642E+03 -3.77778E+03  4.60019E+03 -9.86519E+03  5.14288E+03 -7.08547E+03  1.36544E+04 -5.80676E+03
  6.79975E+03 -3.30280E+02  3.71706E+03  5.39968E+03  1.22538E+03  3.83453E+03 -7.94104E+03  5.37610E+03
 -3.53169E+03  6.43865E+02 -8.56374E+02 -4.25035E+03 -9.74593E+02 -4.91426E+03  6.88466E+03 -2.54360E+03
 -5.73224E+03  1.27642E+03 -2.31148E+02 -1.91753E+03  3.30998E+03 -1.98788E+02  1.03143E+04 -7.28722E+03
  5.93979E+03 -3.46616E+03  2.59787E+03  2.64113E+03  6.03624E+03  3.72423E+03  4.51897E+03  1.34756E+04
  1.62917E+03  8.46264E+03 -6.45323E+03  5.73192E+03 -6.38640E+03 -1.95056E+03 -5.70969E+03 -3.89969E+03
 -1.31719E+03 -1.11902E+04  7.01945E+02 -6.88287E+03  6.94477E+03 -3.21364E+03  3.29474E+03 -3.76310E+02
 -4.27972E+03  4.77171E+03  2.23725E+03 -5.67911E+02 -2.06045E+03 -3.19797E+03 -2.27768E+03 -1.73511E+03
 -7.24169E+02 -1.16722E+03  5.31940E+03 -4.01509E+03  3.06235E+03  5.96823E+03 -2.58369E+03  6.92493E+03
  3.94940E+02  2.43903E+03 -4.60242E+03  4.76478E+02 -1.10667E+04 -6.26029E+02  3.40146E+03 -7.13285E+03
  2.59981E+03 -6.63349E+03  5.97550E+03  1.11542E+03  3.41047E+03 -3.68912E+03  1.42371E+02  1.90721E+03
  2.20675E+03  1.49900E+04 -7.86992E+01  8.38965E+03 -2.19581E+03 -5.58882E+01 -6.03711E+02  4.49448E+03
  2.52379E+03  4.09013E+03 -1.09500E+03 -5.20375E+03 -1.36554E+03  9.82984E+02 -2.43515E+03 -1.52809E+03
 -6.04059E+03 -4.32471E+03  1.28490E+03 -4.15598E+03 -3.50791E+03 -6.87241E+03  5.67890E+03 -1.04078E+03
  6.59004E+03  5.72327E+03 -2.02651E+03  4.59433E+03 -3.66916E+03  6.46445E+02 -3.47514E+03  9.83862E+03
