 $NMID ID='MM_0lb_SNR50_13hz_g45_77.RAW', FMTDAT='(8E13.5)'
 TRAMP=1., VOLUME=1. $END
  3.09549E+05  2.41004E+02  3.35662E+05  2.49125E+05  8.12351E+04  3.44580E+05 -1.27530E+05  2.48682E+05
 -1.88618E+05  8.28724E+04 -1.06928E+05 -2.94384E+04 -2.87552E+03 -5.04306E+04  5.10537E+04 -4.94388E+03
  3.41693E+04  5.16242E+04 -1.44567E+04  7.46886E+04 -6.96728E+04  6.93009E+04 -8.30732E+04  2.99200E+04
 -7.68391E+04 -1.65091E+04 -5.83715E+04 -5.59149E+04 -1.81368E+04 -6.94657E+04  2.67335E+04 -5.01946E+04
  4.29019E+04  4.29471E+03  1.12733E+04  4.57216E+04 -3.77851E+04  4.57748E+04 -6.90443E+04 -4.31738E+03
 -4.85318E+04 -5.89252E+04 -4.56182E+03 -7.54811E+04  3.59796E+04 -5.45049E+04  4.29030E+04 -1.87647E+04
  4.61620E+04  1.04735E+04  3.55746E+04  2.72032E+04  1.71389E+04  2.71574E+04 -1.34091E+04  2.59832E+04
 -2.16125E+04  6.48104E+03 -1.98094E+04 -5.31048E+03  2.31973E+03 -1.03315E+04  2.05095E+04  1.02887E+04
  6.87524E+03  3.40004E+04 -2.91069E+04  3.53493E+04 -6.52947E+04  3.56194E+03 -5.90634E+04 -4.01392E+04
 -1.73374E+04 -6.32806E+04  3.64506E+04 -4.74955E+04  6.39217E+04 -6.69697E+03  3.27139E+04  3.16043E+04
 -6.22661E+03  3.79677E+04 -3.09264E+04  1.84519E+04 -2.74373E+04 -8.13487E+03 -1.28256E+04 -9.08242E+03
 -8.65383E+03 -1.72989E+04  4.83089E+03 -2.05524E+04  7.84498E+03 -2.15696E+04  1.90426E+04 -1.07797E+04
  1.32803E+04  1.11057E+04 -3.23614E+03  1.14024E+04 -2.46474E+04 -7.19249E+03 -8.15717E+03 -3.30683E+04
  2.35128E+04 -4.07351E+04  5.02809E+04 -1.89596E+04  4.21924E+04  1.81848E+04  1.45758E+04  4.42739E+04
 -1.54808E+04  3.43785E+04 -2.35230E+04  1.06493E+03 -1.28900E+04 -2.57212E+04  1.69070E+04 -3.45380E+04
  4.47990E+04 -1.16263E+04  3.34424E+04  2.58488E+04  1.62989E+04  4.67602E+04 -5.53514E+03  4.92118E+04
 -3.37641E+04  3.35242E+04 -4.01099E+04  1.04670E+04 -4.42286E+04 -1.67931E+04 -2.13723E+04 -4.24310E+04
  5.58373E+03 -4.08812E+04  2.75770E+04 -2.03469E+04  3.02924E+04  1.28101E+04  2.98616E+03  2.61641E+04
 -9.91482E+03  1.22602E+04 -1.43540E+04 -6.70965E+03  4.06135E+03 -1.30633E+04  1.85568E+04  4.91838E+03
  1.47830E+04  2.13994E+04 -5.16083E+03  2.85510E+04 -2.38270E+04  1.24339E+04 -3.04291E+04 -1.87311E+03
 -2.40442E+04 -2.02109E+04 -9.29824E+03 -2.03829E+04  9.48594E+02 -2.71504E+04  1.93039E+04 -1.09880E+04
  2.70001E+04 -1.52517E+04  3.25357E+04  2.74561E+03  2.08668E+04  1.82517E+04  1.25168E+03  3.29319E+04
 -1.54816E+04  2.81586E+04 -3.06414E+04  9.55694E+03 -2.69288E+04 -1.22020E+04 -1.17909E+03 -1.33159E+04
  3.72810E+03 -7.08886E+03 -2.09561E+03  7.96847E+03 -1.66892E+04  6.95658E+03 -1.78615E+04 -6.87488E+03
 -9.55158E+03 -1.97663E+04  5.36198E+03 -2.62539E+04  2.03003E+04 -1.63587E+04  1.90320E+04 -4.93973E+03
  4.98353E+03  1.48808E+04 -4.85845E+02  2.14564E+04 -9.94796E+03  1.50930E+04 -1.97818E+04  2.79879E+03
 -1.20516E+04 -1.35043E+04 -4.39190E+03 -3.27026E+04  8.75687E+03 -1.57630E+04  1.66854E+04 -1.06367E+04
  1.71746E+04 -3.56594E+03  1.03999E+04  1.47055E+04  8.30101E+03 -1.41836E+03  1.75331E+04 -4.48402E+03
  1.89831E+04  3.57214E+03  1.95829E+04  1.18857E+04  8.15290E+03  3.21281E+04 -5.88935E+03  3.88460E+04
 -1.59961E+04  3.03764E+04 -3.26414E+04  1.39356E+04 -3.55550E+04 -4.20995E+03 -2.63556E+04 -1.84690E+04
 -1.65073E+04 -2.66987E+04  1.17218E+04 -2.27101E+04  2.13270E+04 -1.50980E+04  2.03067E+04  4.98939E+03
  5.35715E+03  1.44665E+04 -1.36703E+04  1.37163E+04 -1.42088E+04  4.21956E+03 -1.19325E+04 -1.09884E+04
 -4.43017E+03 -1.27746E+04  2.19892E+03 -7.90968E+03  7.57553E+03  1.71647E+03  1.26469E+02  6.24553E+03
 -2.36472E+03  7.33492E+03 -2.40678E+03 -1.63663E+03 -5.00106E+02 -1.17986E+04  6.80175E+03 -1.38685E+04
  1.78450E+04 -8.51999E+03  2.21967E+04  4.17429E+03  1.64253E+04  1.48303E+04  4.24162E+03  2.29843E+04
 -7.02040E+03  2.23828E+04 -1.67091E+04  1.72972E+04 -2.10773E+04  3.05698E+03 -1.28701E+04 -2.69735E+03
 -2.02172E+03 -7.30510E+03  3.64636E+03  5.31158E+03 -3.72302E+03 -1.05609E+03 -8.21058E+03  7.22068E+03
 -1.23758E+04 -1.98744E+03 -1.26049E+04 -8.37419E+03 -5.30492E+03 -1.42695E+04  6.27638E+03 -6.27557E+03
  4.77130E+03 -2.13809E+03  4.41671E+03 -9.81769E+02  3.42891E+03  8.35413E+03 -8.85511E+03 -3.49596E+03
 -6.50939E+03 -9.51189E+03  5.80826E+02 -1.04482E+04  7.03822E+03 -1.35686E+04  1.23006E+04 -3.86817E+03
  1.87273E+04  1.95909E+03  7.13488E+03  9.51252E+03  1.49101E+03  1.24573E+04 -8.14919E+03  1.13499E+04
 -3.59197E+03  3.88327E+03 -8.39569E+03  1.52150E+03 -3.28890E+02 -8.10688E+03  7.46650E+03  3.10329E+03
  7.32752E+03  1.13292E+04  5.30936E+03  6.77839E+03 -1.39561E+04  1.21073E+04 -8.91730E+03  1.70943E+03
 -8.59357E+03 -8.59660E+03  8.59611E+03 -5.29019E+03  9.00850E+03 -5.07750E+03  7.42697E+03  1.22971E+03
  9.48912E+02  6.98171E+03 -4.32899E+03  7.98497E+03 -9.26134E+03  3.96382E+03 -5.91314E+03 -6.52195E+03
 -1.10103E+04 -1.03508E+04  3.29022E+03 -1.23839E+04  1.53837E+04 -1.12048E+04  8.77269E+03  1.62296E+03
  2.49904E+03  8.58664E+03  1.78997E+03  7.02107E+03 -1.43012E+03  4.62016E+03 -9.84157E+03  2.24517E+03
 -4.72778E+03 -4.45946E+03 -2.16435E+03 -6.29890E+03  4.78837E+03 -7.29379E+03  5.45032E+03 -1.32392E+03
  5.51100E+03  2.95693E+03  1.40962E+02 -7.95690E+02 -3.14963E+03 -4.02899E+03  4.98174E+03 -5.67713E+03
  1.34972E+04 -9.17532E+02  9.03350E+03  3.68658E+03  1.11338E+04  2.47599E+03  2.52035E+03  1.22963E+04
 -4.29776E+03  1.29893E+04 -1.16772E+04  1.41901E+04 -1.81574E+04  4.44260E+03 -1.77890E+04 -9.15669E+03
 -9.15571E+03 -1.43759E+04  2.65607E+03 -1.01980E+04  4.16069E+03 -3.19488E+03  5.09832E+03 -2.93159E+03
  2.98093E+02  1.13703E+03 -3.52963E+03 -5.36790E+03  2.06036E+03 -4.93555E+03  8.01768E+03 -2.68667E+03
  5.27593E+03  2.75864E+03 -5.44607E+02 -9.07081E+01 -2.80148E+03  4.40449E+03 -2.08794E+03  2.93200E+03
 -6.23655E+03 -5.42300E+03 -1.74158E+03 -6.02907E+03 -2.82607E+02 -1.14519E+04  4.46321E+03 -1.06760E+04
  1.41175E+04 -1.05697E+04  9.51087E+03 -1.10538E+03  6.56888E+03  7.22582E+03  5.87683E+02  1.18346E+04
 -3.53547E+03  1.09030E+04 -4.35762E+03  6.22883E+03 -3.56687E+03 -4.38349E+03 -1.96417E+03 -3.23584E+03
 -4.50623E+03  4.99147E+01  1.77811E+03  5.66575E+03 -2.99432E+03  3.66103E+03 -9.07476E+03  2.86130E+02
 -1.19164E+04 -8.06434E+03 -3.86119E+03 -1.07249E+04  1.06383E+04 -1.01809E+04  7.76880E+03 -1.02924E+03
  1.16269E+04  2.28095E+03  8.94241E+03  6.41389E+03  2.38283E+03  1.16688E+04 -8.50329E+03  5.93664E+03
 -8.02702E+03  3.72574E+03 -9.34070E+03 -9.15037E+03 -7.18728E+03 -1.14568E+04  9.23310E+03 -1.15916E+04
  8.27555E+03 -9.63664E+02  2.60187E+03 -2.75051E+03  3.63876E+03  6.07745E+03  5.80452E+03 -1.39321E+03
  3.46046E+03 -1.10820E+01  1.32181E+03 -4.02122E+03  3.62549E+03  4.21114E+03  3.57226E+03  6.05391E+03
 -3.71713E+03  6.27443E+03 -6.23526E+03  3.50597E+03 -1.02376E+04 -1.26962E+03 -1.02323E+04  5.02825E+01
 -7.80996E+03 -6.31127E+03 -3.12186E+03 -1.26251E+04  2.12017E+03 -8.28480E+03  1.39978E+04 -4.12534E+03
  1.31098E+04 -1.95228E+03 -2.32789E+02  6.10946E+03 -2.21940E+03 -5.65853E+03 -3.95554E+03  2.13985E+03
 -4.87606E+03 -5.85433E+03  9.53736E+03  1.73154E+03  8.48343E+03 -5.76509E+03  8.07026E+02  1.65658E+03
  3.67150E+03 -1.87536E+03 -7.19156E+02 -5.07288E+03  3.63237E+03  5.96677E+02  1.97708E+03  2.42039E+03
 -3.70759E+03 -2.28639E+03  4.88491E+03  2.31749E+02  4.68883E+03  6.52227E+03 -1.58909E+03  7.24458E+03
 -6.25455E+03  4.29659E+03 -7.29629E+03 -1.49316E+03 -3.91436E+03 -2.41427E+03  1.80584E+03 -1.75135E+03
 -1.59367E+03 -2.66781E+03  1.14344E+03 -5.88043E+02  3.78731E+03  1.34452E+03 -1.45367E+03  4.37996E+03
 -6.92344E+03 -2.08083E+03 -6.47991E+03 -5.80942E+02 -2.17853E+03 -7.91330E+03 -3.87064E+03 -6.50032E+02
  1.76610E+03 -4.36344E+03  7.34436E+03  1.52507E+03  3.15345E+03  5.84428E+02 -4.92861E+03  5.57601E+03
 -1.28468E+03 -2.32438E+03 -2.62860E+03  2.74470E+02  1.02899E+03 -6.28007E+03  7.58204E+03 -1.85596E+03
  2.11386E+03  2.86406E+03 -6.61963E+02 -3.28186E+03  6.92244E+03  6.89030E+03 -1.49314E+03  3.38581E+03
 -1.22068E+03 -3.00842E+03 -3.13795E+03  1.59247E+03  7.82807E+02 -4.59361E+03  6.54988E+03 -4.69251E+03
  5.11470E+03  2.16034E+03 -2.69431E+03  2.60358E+03  2.14232E+02  8.66945E+03  4.95788E+02  4.79446E+03
  4.45290E+01 -3.67120E+03  6.32832E+02  6.03843E+01 -2.46434E+03  1.29527E+03 -2.70604E+03 -2.30669E+03
 -2.15515E+03 -8.88223E+02 -3.52972E+03  1.69566E+03 -4.70415E+03  8.14400E+01 -4.25373E+03 -6.61737E+03
 -6.40296E+02 -1.32714E+03 -3.32854E+03 -6.56076E+03  5.41003E+03 -6.61759E+03  5.39257E+03 -8.91625E+02
  9.77233E+03  5.99743E+03  4.57171E+03  7.18348E+03  2.69237E+02  2.67329E+03  2.11353E+03  5.65873E+03
 -6.48363E+03  5.43531E+03 -7.45998E+03 -4.44569E+03 -3.47814E+03  3.05337E+03 -5.23423E+02  5.15069E+02
  1.38967E+03  4.12709E+01 -6.64026E+03 -9.59162E+02  2.18476E+02 -8.26598E+03 -2.08986E+03 -5.00731E+02
  3.67496E+03 -6.23792E+03  1.31156E+03 -3.74253E+03  5.28828E+03  5.81951E+03 -9.28727E+02  4.15285E+03
 -1.23413E+03  9.37217E+03 -4.17784E+03  6.41624E+03 -2.70013E+03 -2.50893E+03 -2.28253E+03 -4.67968E+03
 -3.17991E+03 -5.65479E+03  6.46012E+03 -5.87104E+03  8.77194E+02  1.32467E+03  8.04672E+03 -7.18870E+02
  5.09472E+03  2.55826E+03  1.26846E+03  3.06077E+03 -6.76198E+03  2.11117E+03  3.34420E+03 -3.56000E+03
  4.03337E+03 -1.02400E+02  3.26984E+03 -5.94851E+02  1.87704E+03  4.23306E+03  3.47203E+03 -8.32250E+02
 -3.49037E+03 -9.11557E+02 -8.82324E+03  5.86240E+02 -6.13815E+02 -1.91379E+03  2.36557E+03 -6.56216E+03
  9.30501E+02 -4.07381E+03  3.72687E+02 -2.12407E+03 -1.33277E+03 -4.05985E+03  1.77641E+03  3.84740E+03
  5.75379E+03  4.28346E+03 -3.50610E+03  1.74166E+03 -3.66367E+03 -8.88311E+02 -1.82754E+02 -3.96596E+02
 -2.77275E+03 -1.43159E+03 -4.87449E+03 -2.88458E+03  6.67586E+03  1.82199E+03 -1.81929E+03 -4.24230E+03
 -5.47690E+03 -3.89757E+03 -2.44050E+03 -4.02884E+03 -2.32229E+03 -7.35546E+03  1.27911E+03 -1.49313E+01
  2.80837E+03  1.57059E+02  1.94939E+03 -1.69891E+03  2.42407E+03  3.60562E+03  2.99984E+03 -7.34360E+02
