 $NMID ID='MM_0lb_SNR50_16hz_g45_98.RAW', FMTDAT='(8E13.5)'
 TRAMP=1., VOLUME=1. $END
  3.14688E+05  1.04692E+03  3.37273E+05  2.52012E+05  8.08049E+04  3.38640E+05 -1.31592E+05  2.51789E+05
 -1.89341E+05  8.49013E+04 -1.07956E+05 -3.58209E+04  1.12896E+03 -5.06321E+04  5.55150E+04 -3.47301E+03
  3.02673E+04  5.01896E+04 -1.38521E+04  7.77669E+04 -6.39566E+04  6.21402E+04 -8.11783E+04  3.42681E+04
 -7.74469E+04 -9.14810E+03 -5.29312E+04 -4.72488E+04 -1.39201E+04 -7.17264E+04  2.61849E+04 -4.39571E+04
  4.03066E+04  8.01162E+03  1.35644E+04  4.15207E+04 -3.40565E+04  4.61114E+04 -6.55914E+04 -2.73888E+03
 -5.14227E+04 -5.57570E+04 -7.75779E+02 -7.57734E+04  3.20771E+04 -4.83197E+04  4.56059E+04 -1.19825E+04
  4.55885E+04  1.03261E+04  3.28469E+04  2.42223E+04  1.69535E+04  3.01618E+04 -3.64738E+03  2.25534E+04
 -2.24945E+04  1.09272E+04 -2.17697E+04 -8.82340E+03  1.44700E+03 -8.33921E+03  2.45296E+04  9.47004E+03
  9.15993E+03  3.78185E+04 -2.84851E+04  3.31015E+04 -6.26155E+04  5.38108E+03 -5.66009E+04 -4.15471E+04
 -7.05339E+03 -6.11245E+04  4.16852E+04 -4.41288E+04  5.76573E+04 -5.61966E+02  3.39216E+04  3.27805E+04
 -6.25417E+03  3.25397E+04 -2.87706E+04  1.39510E+04 -2.72491E+04 -1.94984E+03 -9.43612E+03 -1.50243E+04
 -1.06276E+04 -8.76356E+03  1.95208E+03 -1.27211E+04  9.90649E+03 -2.08981E+04  1.77455E+04 -1.15693E+04
  7.33248E+03  3.47200E+03 -7.75192E+03  9.80312E+03 -1.74069E+04  2.51319E+02 -3.23535E+03 -3.27390E+04
  2.07034E+04 -4.53130E+04  4.72958E+04 -1.71499E+04  4.07893E+04  1.88409E+04  1.40409E+04  4.42532E+04
 -1.71479E+04  3.34865E+04 -2.65812E+04  2.63692E+03 -9.63461E+03 -2.81016E+04  1.99201E+04 -2.97897E+04
  3.79882E+04 -6.71987E+03  3.37444E+04  2.49397E+04  1.40150E+04  4.45390E+04 -5.74082E+03  4.32454E+04
 -2.87313E+04  3.57344E+04 -3.30755E+04  8.50850E+03 -4.08907E+04 -1.68362E+04 -1.83856E+04 -3.50641E+04
  8.34629E+03 -4.06575E+04  2.93544E+04 -1.66659E+04  2.77732E+04  1.07302E+04  4.26739E+03  1.46631E+04
 -1.22636E+04  6.50199E+03 -1.42793E+04 -7.26807E+03  4.54314E+03 -1.28041E+04  1.85744E+04  3.50387E+03
  9.70372E+03  2.14824E+04 -6.45281E+03  2.26637E+04 -2.55510E+04  1.54459E+04 -2.31999E+04 -8.32932E+03
 -1.78871E+04 -1.80982E+04 -3.14139E+03 -1.65774E+04  3.35070E+03 -1.48626E+04  1.93284E+04 -1.64925E+04
  2.26739E+04 -1.06125E+04  3.47283E+04  6.28276E+03  1.67962E+04  1.62803E+04  9.15617E+03  3.64742E+04
 -1.59748E+04  3.01188E+04 -2.57602E+04  1.21989E+04 -2.17048E+04 -1.08311E+04 -6.75977E+03 -1.04193E+04
  5.41222E+03 -2.82601E+03 -6.02218E+02  6.52368E+03 -1.52489E+04  6.08015E+03 -1.66213E+04 -4.14071E+03
 -1.13558E+04 -1.99435E+04  4.36039E+03 -1.96685E+04  1.66743E+04 -1.45012E+04  1.95981E+04 -4.64058E+03
  1.15265E+04  1.03319E+04  7.70673E+02  1.33848E+04 -1.27117E+04  9.58868E+03 -2.06964E+04 -3.07517E+03
 -1.54423E+04 -1.72367E+04 -1.69804E+03 -1.64064E+04  9.39023E+03 -1.64922E+04  1.91229E+04 -1.03115E+04
  1.83048E+04 -2.54434E+03  1.06713E+04  4.98792E+03  6.82762E+03  5.49200E+03  1.25202E+04  1.58081E+03
  1.46902E+04  1.52284E+03  1.66524E+04  1.27781E+04  7.86627E+03  2.38038E+04 -7.90350E+03  2.86632E+04
 -1.82579E+04  2.57937E+04 -3.08903E+04  1.49219E+04 -3.04708E+04 -1.18387E+03 -2.17667E+04 -1.79590E+04
 -4.33661E+03 -2.52956E+04  9.39951E+03 -1.91041E+04  1.94352E+04 -8.49623E+03  1.81556E+04  6.03456E+03
  1.78859E+03  1.29205E+04 -9.67646E+03  1.45018E+04 -1.53313E+04  1.30666E+03 -9.38278E+03 -8.44671E+03
  6.57104E+02 -8.51196E+03  7.45559E+03 -9.45691E+03  1.19619E+04 -9.99836E+02 -8.31016E+02  1.11709E+02
 -6.82269E+03  4.61619E+03 -1.17878E+04 -1.40368E+03  1.70202E+03 -8.71868E+03  5.26477E+03 -1.10503E+04
  1.29672E+04 -5.98581E+03  1.82891E+04  6.95454E+02  1.33390E+04  1.28536E+04  5.53084E+03  1.36176E+04
  9.26533E+02  2.17895E+04 -1.53424E+04  1.13588E+04 -1.24231E+04  2.90999E+03 -1.18952E+04 -3.46335E+03
 -5.97607E+03 -3.30426E+03 -1.06281E+02  4.77992E+03  1.91227E+03  5.15168E+03 -5.37617E+03  2.45409E+03
 -1.08005E+04  1.14329E+02 -1.08606E+04 -1.02564E+04 -6.01383E+01 -1.37089E+04  4.10759E+02 -1.16610E+04
  7.52402E+03 -3.25105E+03  1.01088E+04  6.59171E+03 -1.00792E+03  3.92406E+03 -1.98551E+03  2.96556E+03
  6.20935E+02 -8.82774E+03 -2.25909E+03 -1.00323E+04  4.34729E+03 -1.16347E+04  9.29412E+03 -3.96302E+03
  1.89429E+04  1.35009E+03  9.51250E+03  6.17480E+03  1.91867E+03  5.48663E+03 -7.58739E+03  6.59099E+03
 -7.73579E+03 -4.81530E+02 -4.04982E+03 -3.01597E+03 -5.52857E+03  1.39042E+03  4.02455E+03 -2.64440E+03
  6.05016E+03  6.47282E+03 -3.95460E+02  5.84914E+03 -3.80367E+03  1.03573E+04 -1.13288E+04  6.21901E+03
 -4.77299E+03 -1.11925E+03  2.97454E+03 -7.85038E+03  4.76719E+03 -1.16446E+03  3.64340E+03  3.11028E+01
 -1.81855E+03  2.04817E+02 -2.63175E+03  4.69032E+03 -6.36957E+03  1.33698E+03 -8.13857E+03 -1.75889E+03
 -6.59394E+03 -1.08692E+04  6.99930E+02 -6.55576E+03  1.01191E+04 -1.02640E+04  8.18725E+03 -1.24319E+03
  6.30312E+03  9.46511E+03  2.59853E+03  8.48877E+03 -6.23607E+03  1.46196E+03 -6.53230E+03  1.47209E+03
 -2.64673E+03 -4.63620E+03 -2.22534E+03 -8.39648E+03 -3.56753E+02 -5.41397E+03 -6.78709E+02 -3.87968E+03
  4.98964E+03 -2.96038E+03  2.16727E+03  3.97652E+03  1.02509E+03 -2.06819E+03  7.07754E+01 -3.86565E+03
  4.57836E+03  6.60769E+02  5.21628E+03 -5.46635E+02  1.17071E+04  5.04458E+03  7.69313E+02  1.21144E+04
 -2.84756E+03  9.58202E+03 -1.15086E+04  9.27286E+03 -9.52213E+03  1.78375E+03 -1.02492E+04 -2.93037E+03
 -3.59640E+03 -9.26645E+03 -2.61478E+03 -3.60038E+03 -1.70845E+03 -3.57561E+03  1.98703E+03 -1.29079E+03
  5.19447E+03  8.97302E+02  4.18656E+03 -6.95132E+03  1.93254E+03  2.92572E+03  5.40795E+03  5.22629E+03
  8.12637E+03  2.38957E+03  2.17091E+03  7.46159E+03 -8.80729E+02  2.39528E+03 -6.42342E+03  2.37081E+03
 -9.17022E+03 -1.50185E+03 -2.99380E+03 -3.66311E+03 -1.79011E+03 -9.63842E+03  5.09862E+03 -7.85917E+03
  6.68265E+03 -2.66874E+03  6.01378E+03 -4.29189E+02  1.05404E+04  8.80584E+03 -2.95483E+03  3.77855E+03
 -1.93215E+03  1.26312E+04 -4.65007E+03 -1.41685E+03 -2.69964E+03 -2.59999E+03  3.56555E+02 -1.53690E+03
 -4.63123E+03  2.71299E+03 -1.88852E+03  3.91676E+03  5.01230E+02 -5.37619E+02 -5.92630E+03  4.80108E+03
 -3.25929E+03 -3.14693E+03  2.46817E+02 -8.06861E+03  3.52817E+03 -5.72383E+03  3.26322E+03 -7.90317E+01
  3.75241E+03 -2.19155E+03  4.67583E+03  5.67890E+03 -3.14517E+03  9.57397E+03 -1.92853E+03  5.40781E+03
 -7.11034E+03  6.91035E+03 -5.21929E+03 -6.57815E+03 -4.74870E+03 -3.41245E+03  2.65554E+03 -4.53521E+03
  1.54107E+03 -4.42192E+03  3.20179E+03 -2.46203E+03  4.90661E+03  9.09164E+02  6.83659E+02 -9.98794E+01
  2.29432E+02  5.25400E+03  6.22090E+03 -3.35875E+03 -4.69595E+02  5.18350E+01  2.38690E+03 -2.27185E+01
 -1.25095E+03  2.68610E+03 -4.81459E+03  6.18818E+03 -4.22930E+03  4.48607E+03 -4.05199E+03  1.13771E+03
 -2.31807E+03 -4.44620E+03  3.58210E+03 -5.14045E+03  5.53777E+03 -5.04781E+03  5.98528E+03 -6.26414E+02
  2.20646E+03 -2.87362E+03  1.62011E+03  6.43900E+03 -1.01009E+03  3.17088E+03 -2.25514E+03  7.90223E+02
 -1.37824E+03  2.68594E+03  1.65094E+03  1.62470E+03  1.06309E+03 -4.34410E+03  3.89590E+03  5.28479E+03
 -1.44774E+03 -6.66879E+03  9.60856E+02  3.82227E+03  5.90175E+03  8.95159E+02  2.71672E+03  3.64233E+03
 -4.84962E+02 -2.30743E+03  3.86173E+03  3.39724E+03 -2.42534E+03  1.03942E+04  4.44243E+02  4.68364E+03
 -1.73552E+03 -1.12876E+03 -1.11424E+03  6.44366E+03 -2.90167E+03  2.95341E+02  2.15059E+03  2.12198E+03
  5.52887E+02 -4.71798E+03 -8.01149E+02 -2.17115E+03  9.31930E+03 -3.93532E+02  1.92275E+03  5.36385E+02
 -1.66286E+03  5.09558E+03  3.89561E+02 -1.02131E+03 -2.25388E+03 -2.92645E+03 -4.08164E+03 -5.07432E+02
  1.30606E+03 -8.90339E+02  5.59470E+02  2.71472E+01  4.06295E+03 -2.14350E+03  2.30350E+03  6.21017E+03
 -1.89951E+03  4.55495E+01 -3.30669E+03 -1.62977E+03  3.19574E+02 -3.45045E+00 -2.51980E+02  3.83022E+02
  4.14635E+03 -6.83830E+02  5.16908E+03  4.16909E+03 -7.82822E+02  6.17293E+03 -2.13631E+03  2.98720E+03
 -1.67532E+03  1.08373E+03 -3.25427E+03 -1.03678E+03 -5.37238E+03  5.71933E+02 -3.09168E+03 -3.32711E+02
  3.32113E+02 -1.92546E+03  4.34261E+02 -1.32409E+03  3.33730E+03  9.38186E+02  1.67119E+03 -2.17259E+03
 -3.25627E+03 -2.00924E+02 -4.51890E+03 -2.56653E+03  4.59216E+03 -2.50877E+03 -1.36490E+03 -2.44438E+03
 -1.60134E+03 -1.56217E+03 -3.82510E+03 -1.14560E+03  1.61168E+02 -7.76272E+02 -2.80092E+03 -2.70999E+03
 -1.57220E+03 -3.58095E+03 -1.87108E+03 -6.52825E+03  5.29568E+03 -4.20643E+03  6.44317E+03  1.66844E+03
  7.87385E+03  3.95406E+02  6.31094E+03 -2.60366E+03 -7.41141E+02  3.11486E+03  1.90287E+02  2.38195E+03
  5.35230E+02 -1.13258E+03 -2.96136E+03 -3.45602E+03  5.64526E+03 -5.98945E+02  2.82082E+03  1.64905E+03
 -1.01033E+03  1.08880E+03  1.74848E+02  1.12137E+03  2.62694E+03  3.52464E+02 -4.16474E+03 -1.91560E+03
 -2.87998E+02 -1.16757E+03 -1.27998E+03  1.19175E+03 -6.42165E+02  4.99942E+03  1.48910E+03  6.99295E+02
 -3.69712E+03  8.61908E+03 -2.33337E+03  2.14561E+03 -5.12756E+03  1.06631E+03 -2.25492E+03  1.69539E+01
 -1.94074E+03 -1.34155E+03  7.94722E+02 -3.29448E+03  7.73994E+03  2.04021E+02 -5.35636E+02  1.00891E+03
  6.03705E+02  1.14985E+03  2.81655E+03  1.08264E+03 -2.41571E+02  3.87855E+03  1.65435E+03  2.20737E+03
  8.47065E+02 -2.71421E+03  2.48003E+03  3.60441E+03  4.58990E+03  2.99551E+03  2.24035E+03  1.40823E+03
 -1.63508E+03  3.16621E+03  2.66094E+02  2.48358E+02 -4.09595E+03 -2.95859E+03 -2.25459E+03 -4.43625E+03
  9.29837E+03 -2.84139E+03  5.28365E+03  9.52271E+02  5.54768E+03 -5.53132E+02 -5.81824E+02  7.32901E+02
  2.63172E+03  5.46104E+03  1.18215E+03  4.54664E+03 -5.39238E+03  1.89631E+03 -3.40627E+03 -9.63954E+02
 -1.20463E+03  1.82387E+03 -4.48858E+03  3.35648E+03  6.80921E+02  1.52775E+03 -1.99964E+03 -3.19763E+03
  2.23382E+02  1.43656E+03 -1.05426E+03  5.03664E+02  3.31422E+03  2.04064E+03 -1.17067E+03  1.29096E+03
  1.01887E+03 -1.44533E+03  6.09076E+03  1.06254E+03  3.57481E+03  6.14311E+03 -7.13007E+03  1.10626E+03
