 $NMID ID='MM_0lb_SNR50_20hz_g55_81.RAW', FMTDAT='(8E13.5)'
 TRAMP=1., VOLUME=1. $END
  3.06500E+05  4.01457E+03  3.39480E+05  2.50646E+05  7.84355E+04  3.36471E+05 -1.31659E+05  2.50655E+05
 -1.88025E+05  7.53545E+04 -1.09267E+05 -3.38944E+04  5.11694E+03 -4.98551E+04  5.14429E+04 -1.62403E+03
  3.30671E+04  4.89829E+04 -1.64241E+04  7.56385E+04 -5.78869E+04  6.32643E+04 -8.27989E+04  3.23476E+04
 -8.10300E+04 -1.20074E+04 -5.73580E+04 -5.00807E+04 -1.01759E+04 -6.69166E+04  2.35089E+04 -4.17101E+04
  3.61060E+04  1.52910E+03  1.67727E+04  4.61835E+04 -3.43888E+04  4.72796E+04 -6.64274E+04  3.43896E+03
 -5.33710E+04 -5.55428E+04 -9.29191E+03 -7.21628E+04  3.25321E+04 -5.16181E+04  4.43878E+04 -1.63399E+04
  4.09066E+04  1.20868E+04  3.48564E+04  2.77136E+04  1.43073E+04  2.93443E+04 -2.42327E+03  2.67761E+04
 -2.08389E+04  9.64695E+03 -1.43472E+04 -3.74020E+03  1.19621E+03 -6.92582E+03  2.41102E+04  8.48349E+03
  7.32483E+03  2.86989E+04 -2.71950E+04  3.48421E+04 -6.18164E+04  3.04689E+03 -5.47035E+04 -3.65150E+04
 -1.61100E+04 -6.05148E+04  4.10376E+04 -4.20425E+04  5.46196E+04 -5.88420E+03  2.77864E+04  2.70582E+04
 -1.02494E+04  3.49180E+04 -2.81549E+04  1.20614E+04 -2.90247E+04 -3.84286E+03 -1.54508E+04 -1.00155E+04
 -9.73831E+03 -1.06613E+04 -4.78892E+03 -1.57100E+04  5.85531E+03 -2.41080E+04  1.58933E+04 -1.08012E+04
  1.01543E+04  5.04231E+03 -7.96916E+03  1.17696E+04 -2.27440E+04  1.02829E+02 -8.07623E+03 -3.17023E+04
  1.97327E+04 -4.32882E+04  4.75223E+04 -1.46454E+04  3.94664E+04  1.60684E+04  1.39752E+04  3.79690E+04
 -1.51029E+04  3.39338E+04 -2.03754E+04 -4.54107E+03 -5.31785E+03 -2.30051E+04  2.25087E+04 -3.26028E+04
  3.77903E+04 -5.49870E+03  3.58582E+04  2.40578E+04  1.75587E+04  4.06700E+04 -8.19182E+03  4.17786E+04
 -2.96938E+04  2.80007E+04 -3.72454E+04  9.32971E+03 -4.12811E+04 -1.86532E+04 -1.77826E+04 -3.42848E+04
  1.17919E+04 -3.03246E+04  2.73368E+04 -1.47333E+04  3.13627E+04  1.39720E+04  5.68632E+03  1.98674E+04
 -9.68756E+03  1.08686E+04 -7.29439E+03 -5.57873E+03  1.54165E+03 -5.45452E+03  1.93113E+04  7.80909E+03
  1.33122E+04  2.13313E+04 -9.14946E+03  2.12989E+04 -1.93760E+04  1.02648E+04 -2.54363E+04 -5.74000E+03
 -1.58405E+04 -1.22899E+04 -5.80993E+03 -1.72612E+04  4.75246E+03 -1.16653E+04  1.40922E+04 -1.42730E+04
  2.13996E+04 -1.26675E+04  2.88233E+04 -8.14521E+02  2.00554E+04  1.84689E+04  4.76373E+03  3.35762E+04
 -1.82960E+04  2.58688E+04 -2.73034E+04  1.04512E+04 -2.07933E+04 -1.24536E+04 -7.11933E+03 -1.24706E+04
  5.00451E+02 -1.37979E+03 -2.15037E+03  1.58716E+03 -9.97436E+03  4.07763E+03 -1.36964E+04 -3.06661E+03
 -8.98183E+03 -1.53075E+04  5.25464E+03 -1.24694E+04  8.68686E+03 -1.19529E+04  1.45403E+04  1.80063E+03
  1.18476E+04  1.16694E+04 -2.53161E+03  1.23984E+04 -1.12839E+04  9.03614E+03 -1.73537E+04 -5.20183E+03
 -1.24210E+04 -1.45841E+04 -3.97133E+03 -2.07587E+04  6.74240E+03 -1.82031E+04  1.37414E+04 -4.79287E+03
  1.39284E+04  1.16664E+03  8.98652E+03  3.04031E+03  3.70765E+03  2.31801E+03  5.22716E+03  3.02714E+02
  1.37543E+04  1.66592E+03  1.39207E+04  1.57336E+04  9.30319E+03  2.28459E+04 -2.48782E+03  2.44962E+04
 -1.50905E+04  2.13297E+04 -2.04036E+04  8.27462E+03 -2.61575E+04 -4.04509E+03 -2.10885E+04 -1.04406E+04
 -1.22581E+04 -1.87571E+04  5.95743E+03 -1.99790E+04  1.42971E+04 -7.91071E+03  1.36132E+04  1.52917E+03
  7.84598E+03  1.82639E+04 -8.63005E+03  7.38389E+03 -1.43908E+04  9.34763E+01 -1.23189E+04 -6.31631E+03
  7.80885E+02 -1.49711E+04  6.22760E+03 -1.06821E+04  7.23132E+03 -1.19076E+03  3.03257E+03  5.17887E+03
 -3.47354E+03  4.45067E+03 -5.76730E+03 -2.67310E+03  1.49769E+03 -8.10899E+03  9.86678E+03 -1.47191E+04
  8.52136E+03 -2.63418E+03  1.39490E+04  1.48443E+03  1.03012E+04  6.97477E+03  2.96600E+03  1.31886E+04
  3.13368E+03  1.53557E+04 -7.59338E+03  8.56156E+03 -8.14456E+03  6.04555E+03 -7.47276E+03 -3.07291E+03
 -6.13197E+03 -1.62731E+03  6.55564E+02  3.08317E+03 -1.36545E+03  2.08432E+03 -5.46104E+03  1.06342E+03
 -1.04698E+04  2.80737E+02 -8.95428E+03 -9.09244E+03  1.20571E+03 -1.23222E+04  5.88293E+03 -1.08507E+04
  7.50469E+03 -3.06837E+03  5.86799E+03  1.97686E+03  4.15851E+02  1.40612E+03 -3.99826E+03 -3.76658E+03
  2.45745E+03 -6.73522E+03 -1.14025E+03 -8.37583E+03  5.60848E+03 -1.00420E+04  1.03299E+04 -1.65720E+03
  1.25851E+04  5.22198E+03  1.03892E+04  7.94336E+03  3.34010E+03  7.30323E+03 -5.93940E+03  7.86770E+03
 -5.42632E+03 -6.40183E+02 -2.90990E+03 -1.12135E+03  3.69521E+03  5.22077E+02  1.76353E+03 -3.86498E+03
  3.89539E+03  7.08226E+02  3.10708E+03  1.61449E+03 -4.49641E+02  2.17760E+03 -5.33816E+03  4.17101E+02
 -3.26899E+03 -7.72607E+03  1.62958E+02 -6.92869E+03 -1.82362E+03 -3.67492E+03  5.16242E+03 -8.57976E+02
 -1.33540E+03  4.08018E+03 -6.45475E+03  5.09967E+03 -1.94678E+03 -2.47257E+03 -3.30168E+03  4.48169E+01
 -7.02928E+03 -1.16728E+04 -2.20927E+03 -8.91865E+02  4.44322E+03 -7.18743E+03  5.42076E+03 -4.49184E+02
  4.78082E+03  6.83382E+03 -8.97223E+01  7.02709E+03 -5.62318E+03  4.56150E+03 -7.99559E+03 -1.21081E+03
 -6.07024E+03 -4.02939E+03 -3.37598E+03 -8.09504E+03  5.83409E+03 -4.55879E+03 -3.32288E+02 -2.77324E+03
  4.06699E+03 -2.53435E+03  2.72558E+03  2.64935E+03 -1.07536E+03 -1.14226E+03 -8.39938E+01 -2.75742E+02
  2.16153E+03  1.05438E+03  1.19883E+03 -4.10320E+03  6.96444E+03  2.83546E+03  6.78787E+03  2.66320E+03
 -2.45982E+03  7.98794E+03 -5.71403E+03  7.67270E+03 -6.52390E+03  2.66160E+03 -1.21266E+04 -2.34974E+03
 -2.44247E+03 -3.31144E+03  2.63894E+03 -3.84021E+03  1.36750E+03 -1.39174E+03  2.87531E+03 -5.00873E+02
  1.99372E+03 -3.67511E+03  5.72427E+03 -4.27276E+03  5.67498E+03 -8.33176E+02  3.55022E+03  1.03250E+03
  6.94970E+03  3.46777E+02  3.42570E+03  1.57445E+03 -3.59317E+03  7.23037E+03 -1.74281E+03  2.35321E+03
 -4.82126E+02 -1.95783E+03 -1.67297E+03 -6.46525E+03 -4.19654E+03 -1.50223E+03  5.56498E+03 -7.13062E+03
  2.22099E+03 -3.53162E+03  7.05978E+03  3.01915E+02  8.54023E+03  1.54238E+03  4.59504E+03  7.59455E+03
 -3.92525E+03  2.80389E+03 -3.67042E+03  4.54028E+02 -1.81885E+03 -9.01234E+02 -8.86550E+02  1.48431E+03
 -6.31769E+02  1.79669E+03 -2.41296E+03  4.61524E+03 -1.37009E+03  3.53997E+03 -7.22663E+03 -5.82317E+02
  3.73095E+03 -2.90890E+03 -2.28539E+03 -2.24249E+03  3.11861E+03 -4.23115E+03 -4.13545E+02 -3.91125E+03
  1.88615E+03  3.76105E+03  4.38010E+03  2.97520E+03 -1.07903E+03  4.15647E+03 -2.98445E+03  3.29138E+03
 -1.05146E+03 -1.98569E+02  2.62767E+03  1.68376E+03  1.23271E+03 -2.34445E+03  2.08100E+03 -5.21410E+02
 -1.57468E+03 -1.61057E+03 -5.97314E+03  4.02086E+03  9.85822E+02  6.16195E+03 -5.68442E+02  1.96242E+03
  5.27232E+03 -3.53177E+01  5.98101E+02  3.00622E+03 -6.81912E+02  4.47581E+03  9.92009E+02 -1.25865E+03
 -1.55168E+03  1.23146E+03 -2.83466E+03  9.94292E+02 -3.18148E+03  1.48123E+03 -7.07158E+03  1.94189E+03
 -9.91286E+02 -2.84088E+03  8.82915E+02 -1.39934E+03  2.80541E+03 -8.39880E+02  5.30124E+03 -1.45703E+03
  1.89752E+03  3.09058E+01  1.20703E+03  4.97796E+03 -1.19895E+01  2.34779E+03 -2.25298E+03  1.83645E+03
  1.80434E+03  1.87940E+03  2.84714E+03 -3.50648E+03 -1.02392E+03  3.08269E+03  4.13731E+03  1.92219E+03
  1.35684E+03 -1.30395E+03  4.21758E+03  1.15025E+03  4.23948E+02  4.64635E+03  7.14737E+02  1.61511E+03
  2.40050E+03  3.40939E+02  2.75137E+03  2.44781E+03 -2.82588E+03  1.61563E+03 -1.89696E+03  3.97037E+02
 -4.33489E+03 -1.22139E+03  5.09284E+02  3.36917E+03 -1.48395E+03 -2.60094E+03 -3.21640E+03 -1.35188E+03
 -2.43170E+03  3.67231E+02  3.91480E+03 -2.97937E+03  1.59375E+03  2.61137E+03  2.56026E+01  2.61522E+03
 -1.04312E+03  3.34292E+03 -3.81230E+02 -3.45964E+01 -3.93331E+03 -3.84357E+03  4.52807E+03 -1.92790E+02
  1.26272E+03  4.26903E+03  2.89970E+01 -3.23637E+02  3.99233E+03  1.33609E+03  2.83360E+03 -1.61780E+03
  2.08624E+03 -3.43861E+03 -8.45411E+02  1.79799E+02  3.55000E+02  8.28110E+02 -2.82542E+02 -3.69592E+03
 -1.53652E+02  9.74521E+02  5.42215E+03 -2.12098E+03  1.08927E+03 -1.68303E+03 -4.45570E+02 -3.19098E+03
 -3.71179E+03  2.67142E+03 -1.94483E+03  1.94239E+03  9.24285E+02 -6.25625E+02  4.19478E+03 -1.07802E+03
 -1.85712E+03 -2.71943E+02 -3.46394E+03  2.59461E+02  1.14816E+03  3.68127E+03  1.79686E+03 -1.46422E+03
  1.88705E+03  2.75399E+03 -1.66336E+03  4.44371E+02  9.16923E+02  3.06734E+02 -3.99019E+02 -2.15007E+02
  2.71543E+02  2.96823E+03  1.09322E+03 -2.50521E+03 -1.26280E+03  2.27247E+03 -3.06910E+03 -4.17620E+03
 -1.39404E+03  7.67750E+02  2.14175E+02 -1.29452E+03 -1.55405E+03 -2.85503E+03  1.30919E+03 -5.52381E+02
 -2.57614E+02 -1.59432E+03 -9.76595E+02 -3.16888E+02  3.69702E+03  9.38514E+02  1.90887E+03  3.21661E+03
 -6.75610E+02  4.52643E+03  2.32542E+03  1.71966E+02  1.50959E+03  7.65165E+02 -2.00744E+03 -1.67419E+03
 -2.91381E+03 -4.32336E+02 -1.17908E+03 -1.96534E+03 -3.40196E+03 -1.19140E+03  2.88355E+02 -1.84775E+03
  7.90364E+03 -4.01262E+03 -5.58816E+02 -3.16931E+03 -1.81063E+03  2.04682E+03 -7.93509E+02  2.34323E+03
  2.99978E+03 -1.77106E+03  9.38261E+02 -5.49256E+02  1.92926E+03  8.19373E+02  8.73762E+02 -2.06688E+03
  2.48632E+02 -4.30184E+02 -4.05946E+03 -3.93044E+03  9.61702E-01 -7.63054E+02  6.64267E+00 -3.11704E+03
 -1.08963E+03 -4.12957E+03 -5.39519E+02  4.97433E+02 -2.34296E+03 -3.49859E+03  2.27554E+03  8.16031E+02
 -2.69883E+03 -4.89236E+03  1.41347E+03 -2.42899E+03  5.91143E+03  1.11350E+03  3.86584E+02 -3.49235E+03
  6.57034E+02 -3.96126E+02  2.91078E+03  5.42450E+03 -1.30239E+03 -1.68051E+03  3.54213E+02  2.14214E+03
  1.12402E+03  4.81487E+02  2.21796E+01 -1.62241E+03 -1.42630E+03 -7.36611E+02 -6.22812E+02  3.81593E+03
 -4.74834E+02  7.46243E+02  2.31583E+03  2.44947E+03 -1.23209E+03  1.50598E+03  7.20597E+02 -1.80254E+03
 -5.89978E+03  8.58975E+02 -4.00132E+03 -9.65895E+02  1.39669E+02  1.09295E+03 -8.07608E+02  3.48637E+01
  1.07045E+03 -2.70358E+03 -6.83724E+02 -4.20408E+03 -3.29236E+03  7.46947E+02 -3.07215E+03  5.20655E+02
 -1.61296E+03  2.74021E+03 -3.43915E+03 -1.95305E+03 -9.13547E+02  1.92028E+03 -3.14259E+03  3.34738E+03
