 $NMID ID='MM_0lb_SNR50_11hz_g45_55.RAW', FMTDAT='(8E13.5)'
 TRAMP=1., VOLUME=1. $END
  3.07206E+05 -5.98200E+03  3.40359E+05  2.50439E+05  8.10336E+04  3.32664E+05 -1.37050E+05  2.50484E+05
 -1.87852E+05  7.78565E+04 -1.14370E+05 -3.46965E+04 -3.29857E+03 -4.92568E+04  5.22611E+04 -1.54483E+03
  3.35322E+04  5.18084E+04 -1.67962E+04  7.96813E+04 -6.06206E+04  6.39601E+04 -8.31387E+04  2.92287E+04
 -8.27559E+04 -1.64342E+04 -6.23825E+04 -5.33008E+04 -1.12661E+04 -7.14476E+04  2.43682E+04 -4.81118E+04
  3.91740E+04  4.26629E+03  1.94128E+04  4.56416E+04 -3.22120E+04  4.61936E+04 -6.71939E+04  2.01434E+01
 -5.37673E+04 -5.79161E+04 -6.51458E+03 -7.94899E+04  3.32841E+04 -5.40449E+04  4.18822E+04 -1.45341E+04
  4.49730E+04  1.26552E+04  3.12535E+04  3.12002E+04  1.27924E+04  3.40251E+04 -6.23984E+03  2.72902E+04
 -2.21887E+04  1.84731E+04 -1.68800E+04 -9.68343E+03  4.32205E+03 -1.01289E+04  2.38552E+04  1.13392E+04
  9.87961E+03  2.83633E+04 -3.29315E+04  4.01167E+04 -6.51926E+04  1.78288E+02 -5.31037E+04 -3.95679E+04
 -1.49966E+04 -6.27475E+04  4.33515E+04 -4.65205E+04  5.66969E+04 -6.85004E+02  3.52218E+04  2.96650E+04
 -1.50445E+03  3.96737E+04 -3.13891E+04  9.02373E+03 -3.13324E+04 -6.39379E+03 -2.15514E+04 -2.97512E+03
 -1.24256E+04 -1.82020E+04 -1.23318E+03 -1.90012E+04  5.76650E+03 -2.44201E+04  1.42856E+04 -1.59871E+04
  1.38442E+04  7.10242E+03 -1.20247E+04  1.62972E+04 -2.01874E+04 -8.12653E+03 -1.09077E+04 -3.64812E+04
  2.72794E+04 -4.60345E+04  4.62012E+04 -1.72818E+04  4.89369E+04  2.36464E+04  2.26327E+04  4.82429E+04
 -1.82477E+04  3.55432E+04 -2.79315E+04 -5.03584E+02 -1.53148E+04 -2.70410E+04  2.72620E+04 -2.90996E+04
  3.88191E+04 -1.47398E+04  3.84214E+04  2.62442E+04  2.35461E+04  4.64053E+04 -5.54720E+03  5.45375E+04
 -3.57982E+04  3.42141E+04 -4.57765E+04  8.60735E+03 -4.39287E+04 -1.95930E+04 -2.75296E+04 -3.88665E+04
  1.50931E+04 -4.02575E+04  3.41130E+04 -1.44167E+04  3.52931E+04  1.51471E+04  4.04490E+03  1.99343E+04
 -1.63614E+04  1.01482E+04 -1.25251E+04 -1.04508E+04  1.85231E+03 -6.90276E+03  1.56069E+04  9.40936E+03
  1.16675E+04  2.22376E+04 -3.58758E+03  2.78737E+04 -2.79653E+04  1.59230E+04 -3.02495E+04 -2.69945E+03
 -1.92349E+04 -1.35739E+04 -8.13163E+03 -2.55460E+04  6.17034E+03 -2.16105E+04  1.71898E+04 -2.29891E+04
  2.64587E+04 -1.38212E+04  3.67395E+04  5.48623E+03  2.83171E+04  2.30181E+04  2.53686E+03  3.68183E+04
 -2.47700E+04  3.41146E+04 -2.91425E+04  9.57092E+03 -2.50311E+04 -1.44813E+04 -8.78703E+03 -1.60462E+04
  5.36002E+02 -5.88064E+02 -5.81313E+03  1.35304E+04 -2.10849E+04  2.19695E+03 -2.00797E+04 -5.02611E+03
 -1.10076E+04 -2.84713E+04  3.48671E+03 -2.22642E+04  1.44050E+04 -1.83161E+04  1.90258E+04 -7.31029E+03
  1.04503E+04  1.73125E+04  2.05106E+02  2.27317E+04 -1.45615E+04  1.23047E+04 -2.11212E+04 -1.70799E+03
 -2.17046E+04 -2.36933E+04 -4.67830E+02 -2.12118E+04  9.44542E+03 -2.16275E+04  2.38578E+04 -1.71972E+04
  1.63300E+04  6.38413E+02  1.97767E+04  5.04559E+03  7.42611E+03  2.25320E+03  1.26588E+04  1.00424E+03
  2.17383E+04  2.48275E+03  2.70981E+04  1.68411E+04  1.13417E+04  2.84117E+04 -5.67037E+03  3.42317E+04
 -2.04615E+04  3.43626E+04 -3.26392E+04  1.90310E+04 -3.64499E+04 -6.61557E+03 -3.17483E+04 -2.31550E+04
 -1.16726E+04 -3.50238E+04  8.91725E+03 -2.92464E+04  2.44916E+04 -1.85198E+04  2.27828E+04  8.17855E+03
  1.23767E+04  2.22022E+04 -1.09697E+04  1.33106E+04 -2.37669E+04  2.52261E+03 -1.62633E+04 -1.74342E+04
 -2.25414E+03 -1.53632E+04  1.33113E+04 -9.80730E+03  1.45700E+04  2.09858E+03  6.55973E+03  7.80875E+03
 -3.76391E+03  7.38452E+02 -6.89408E+03 -1.29301E+03 -5.52870E+03 -2.08848E+04  1.39554E+04 -1.97980E+04
  2.34278E+04 -1.23991E+04  2.44536E+04  4.13071E+03  2.17018E+04  1.95967E+04  7.58257E+03  2.64304E+04
 -6.39305E+02  2.92205E+04 -1.93865E+04  1.64265E+04 -1.75058E+04  3.96074E+03 -1.17043E+04 -6.36044E+03
 -8.77635E+03 -9.45995E+03 -3.02231E+03  2.04526E+03 -1.93420E+03  4.60875E+02 -5.51890E+03  3.92879E+03
 -1.61993E+04 -3.50677E+03 -1.27004E+04 -7.64431E+03 -9.85042E+03 -1.50546E+04  6.36777E+03 -8.52385E+03
  1.43686E+04 -2.43490E+03  5.65348E+03  9.26900E+02 -7.14441E+02  5.39054E+03 -4.26479E+03 -1.26809E+03
 -4.05559E+03 -8.39659E+03  3.63278E+03 -1.33214E+04  9.34552E+03 -1.91995E+04  1.66937E+04 -8.65869E+03
  2.11218E+04 -5.68382E+03  1.65757E+04  1.29004E+04  8.19382E+03  6.41502E+03 -3.26182E+03  9.92353E+03
 -1.51837E+04  2.88390E+03 -1.44730E+03 -5.02819E+03  1.13632E+03 -6.05441E+03  8.44983E+03  9.01572E+02
  4.39325E+03  3.83372E+03  2.64155E+03  1.16545E+04 -9.96617E+03  1.17132E+04 -1.58605E+04  6.44526E+03
 -6.82469E+03 -6.01800E+03 -2.37562E+03 -8.29725E+03  5.09577E+03 -1.15086E+04  4.40916E+03  2.96808E+03
  2.06148E+03  7.88927E+03 -7.33248E+03  1.34246E+04 -1.00032E+04  8.28824E+03 -9.82979E+03 -9.59935E+03
 -1.09379E+04 -1.62759E+04  4.69004E+03 -1.32282E+04  1.28475E+04 -9.02533E+03  6.74968E+03 -5.94992E+03
  7.02818E+03  7.19886E+03 -3.29184E+03  1.38388E+04 -8.06850E+03  6.97674E+03 -1.08784E+04 -7.91745E+03
 -7.31645E+03 -8.51599E+03  2.49295E+03 -1.11908E+04  8.59025E+03 -7.37384E+03  7.81020E+03 -6.11195E+03
  2.70880E+03  6.43266E+02 -1.09475E+03  3.51045E+03  3.69487E+03  1.29751E+03  4.91790E+03 -5.41327E+03
  7.07369E+03 -2.00722E+03  1.48508E+04  2.57405E+03  1.28079E+04  8.73852E+03  1.54754E+04  2.04231E+04
 -8.91352E+03  1.54263E+04 -1.85746E+04  1.43972E+04 -2.91787E+04  3.38025E+03 -1.47931E+04 -8.95897E+03
 -8.19370E+03 -1.29877E+04  3.66753E+02 -1.19427E+04  2.89935E+03 -6.41604E+03  4.32646E+03 -1.02203E+04
  8.28938E+03 -1.92626E+03  6.78104E+03 -3.87769E+03  4.19392E+03 -6.32949E+02  7.31817E+03 -8.36465E+02
  1.27468E+04  3.85233E+03  6.06740E+03  5.63278E+03 -4.67369E+03  9.56669E+03 -1.57696E+04  1.16336E+04
 -6.58669E+03  1.62315E+02 -7.81714E+03 -1.40172E+04  1.08322E+03 -1.04407E+04  1.23754E+03 -1.18637E+04
  9.47593E+03 -1.32399E+04  2.00845E+04  2.46560E+03  1.64556E+04  1.04874E+04  2.79608E+03  9.14445E+03
 -6.89853E+03  1.74966E+04 -9.62104E+03  1.05673E+04 -4.33277E+03 -7.88579E+02 -5.62173E+03 -6.16166E+03
  8.83375E+02 -5.75556E+03 -6.25242E+03 -1.23092E+03 -8.76460E+03  8.21085E+03 -8.23070E+03  3.43383E+03
 -6.97598E+03 -7.16881E+03 -2.82080E+03 -1.38262E+04 -9.52917E+02 -9.99582E+03  1.22662E+04 -3.30580E+03
  1.72336E+04  3.35950E+03  2.11348E+03  1.66873E+04 -4.14600E+03  8.71225E+03 -4.25746E+03  6.75974E+03
 -1.04953E+04  4.23053E+02 -8.55911E+03 -3.45724E+03  3.32557E+03 -1.28111E+04  6.95205E+03 -6.09006E+03
  5.76835E+03 -4.11541E+03  2.10306E+03  2.61257E+03  1.35306E+03  8.01555E+03 -2.28917E+03  6.75349E+02
  2.20903E+03  6.09208E+03  3.97062E+03 -6.74037E+02  7.61284E+03  7.91015E+03  3.71349E+03  9.91030E+03
 -3.81057E+03  1.22189E+04 -2.76398E+03  1.28697E+04 -1.26420E+04  5.68498E+03 -1.60389E+04 -3.46676E+03
 -1.75813E+03 -7.29090E+03  2.51126E+03 -6.75647E+03  4.27711E+03 -4.73830E+03  1.46602E+04  1.01759E+03
  1.19350E+04  1.86098E+03  2.59452E+03  8.20553E+03 -7.27049E+03  6.86127E+03 -5.55833E+03 -8.79104E+02
 -5.71850E+03 -9.01749E+03  7.06912E+01 -2.00960E+03  7.42293E+02 -5.05357E+03  9.77350E+03 -3.36655E+01
  7.63562E+02  4.08297E+03  2.36233E+03  1.92071E+03  1.84390E+03  9.27152E+02  4.21302E+03  3.70272E+02
  1.30588E+03  3.36325E+03  8.53439E+03  5.86653E+03 -2.80631E+03  8.53596E+03  8.50990E+02  6.69919E+03
 -2.45445E+03  8.84400E+03 -5.79044E+03  2.06497E+03 -2.64527E+03 -1.46968E+03 -2.99923E+03  1.70092E+03
  2.30364E+03  1.27708E+03  8.36450E+03 -1.12651E+04  6.88459E+03 -1.04735E+03  5.02769E+02 -2.95688E+03
 -6.57896E+03  4.84386E+03 -2.43534E+03  1.48725E+03 -5.25196E+03 -4.93298E+03  3.93017E+02 -5.83987E+03
  2.13772E+03 -6.62124E+03 -1.13674E+03 -1.80312E+03  9.45574E+03  4.59947E+03  7.55406E+02  6.39758E+02
 -6.65089E+03 -5.82925E+03 -8.83985E+03 -1.50624E+03  1.04214E+03 -4.17221E+03  1.10502E+04  4.05440E+02
  7.17691E+03  1.29561E+02  2.56107E+03  7.48597E+03  1.78589E+03  1.35601E+04 -2.46068E+03  2.32318E+03
  4.54800E+02 -4.09897E+03 -4.70144E+03 -5.87892E+03  1.18051E+03 -8.67834E+03 -1.27567E+03 -4.74955E+03
  9.26467E+03 -2.73637E+03  7.09657E+03  7.66942E+02  4.55970E+03  7.37160E+03 -1.30566E+01 -8.86000E+02
 -9.14145E+02 -3.98610E+03 -4.25567E+02 -1.79575E+03  2.36081E+03  3.56173E+03 -1.89123E+03  9.32225E+03
 -6.77220E+03  1.31124E+02  8.87912E+02  3.83009E+03 -1.29275E+04 -1.47948E+03 -1.06246E+04 -3.72228E+03
 -3.80422E+03 -8.25330E+03  1.99411E+03 -1.02533E+04  6.42623E+03 -4.40354E+03  6.21310E+03 -1.14755E+04
  1.05068E+04  4.54091E+03  5.30663E+03  2.31058E+03  3.49724E+03  4.31946E+03 -4.08121E+03  5.80029E+03
  1.16257E+03 -1.77489E+03  2.32795E+03 -3.56135E+03  6.38481E+02  3.73472E+02 -7.06911E+01  1.63299E+03
  1.31743E+03  5.06867E+02  4.06785E+03 -1.82101E+03 -5.66814E+03  2.94240E+02  7.32093E+02 -1.16367E+03
  5.51105E+03 -2.64348E+03  5.47948E+03 -2.76398E+03  1.03655E+04  3.97356E+03 -5.88013E+02  3.67580E+03
 -1.17079E+04  6.95102E+03 -9.77508E+03  3.62346E+03 -1.16344E+04  5.99794E+03 -7.65921E+03 -7.24153E+03
 -4.98447E+02 -8.68210E+03  5.63648E+03  2.74734E+03  2.12708E+03 -1.04674E+04  5.61546E+03  8.86879E+02
  9.65606E+03  4.37646E+03  7.30844E+02  8.63353E+03 -6.71490E+03 -7.94748E+02  7.48668E+01 -2.06830E+03
  3.57409E+03  3.65664E+03  9.98764E+03  6.62614E+03  2.65641E+03  5.34005E+03 -5.76084E+03  4.99166E+03
 -6.52945E+03  2.23916E+03 -2.43423E+03  2.29740E+03 -8.13764E+03  1.08858E+03  5.20943E+03 -1.40973E+04
 -6.34656E+02 -1.49081E+03  6.46491E+03  1.82190E+03  6.61502E+03  3.45488E+03  4.02047E+02  3.50484E+03
  3.98297E+03  3.30741E+03 -1.08747E+03 -4.05948E+03 -1.16726E+03  4.82209E+03 -2.39906E+03 -1.50125E+03
  5.44935E+03  1.80061E+03 -4.75416E+03 -6.34432E+03 -9.45713E+02 -1.37497E+03  2.25681E+03  2.45240E+03
 -4.07793E+03  1.44231E+02  4.35402E+02 -6.23203E+03  6.08118E+03 -6.81818E+03  8.44117E+03 -8.08706E+02
  7.19047E+03  2.42522E+03 -3.28912E+03  3.90293E+03 -3.63885E+03  7.16683E+03 -4.75092E+03  2.57427E+03
