 $NMID ID='MM_0lb_SNR50_9hz_g50_23.RAW', FMTDAT='(8E13.5)'
 TRAMP=1., VOLUME=1. $END
  3.10228E+05 -1.01945E+03  3.40429E+05  2.50625E+05  8.12275E+04  3.46885E+05 -1.39800E+05  2.55104E+05
 -1.95380E+05  8.36892E+04 -1.10810E+05 -2.78227E+04 -6.72933E+03 -4.51235E+04  5.08388E+04  5.09091E+03
  3.43154E+04  5.22864E+04 -1.89518E+04  7.59741E+04 -5.71508E+04  5.92321E+04 -8.30480E+04  2.67265E+04
 -8.49546E+04 -6.71186E+03 -5.45210E+04 -4.96955E+04 -1.59502E+04 -7.01139E+04  3.18318E+04 -4.59148E+04
  4.14741E+04  6.34927E+03  2.31169E+04  4.72492E+04 -3.14674E+04  5.14837E+04 -6.25195E+04 -2.10009E+02
 -5.38630E+04 -5.90656E+04 -5.25758E+03 -8.38123E+04  3.48667E+04 -5.49942E+04  4.56088E+04 -8.21476E+03
  4.42797E+04  1.65924E+04  3.54531E+04  2.12488E+04  1.51472E+04  3.28663E+04 -6.31593E+03  2.17191E+04
 -2.21835E+04  6.57189E+03 -1.80038E+04 -4.64503E+03 -4.55047E+01 -3.87378E+03  2.29393E+04  1.19979E+04
  8.60413E+01  4.13697E+04 -4.02298E+04  3.77316E+04 -6.10767E+04  3.67499E+03 -5.70151E+04 -4.14705E+04
 -8.69693E+03 -6.25887E+04  3.64990E+04 -4.86718E+04  6.20107E+04  5.57794E+03  3.90667E+04  3.85406E+04
 -7.16410E+03  3.82292E+04 -2.41760E+04  1.89674E+04 -3.56116E+04 -1.34501E+03 -1.60783E+04 -1.11939E+04
 -2.17226E+03 -1.71139E+04 -2.66050E+03 -1.90918E+04  7.85060E+03 -2.09618E+04  2.03941E+04 -1.30547E+04
  1.82162E+04 -1.94912E+03 -9.83646E+03  1.16407E+04 -2.62926E+04 -1.17382E+04 -4.48457E+03 -4.09942E+04
  3.11240E+04 -4.29399E+04  5.44851E+04 -2.69604E+04  4.95135E+04  1.74594E+04  1.90234E+04  4.86671E+04
 -2.00569E+04  3.61632E+04 -2.88189E+04  8.22928E+03 -6.88627E+03 -3.72686E+04  2.20752E+04 -4.14790E+04
  4.81921E+04 -1.55109E+04  3.72163E+04  2.02189E+04  2.16269E+04  4.31850E+04 -1.41053E+04  5.72049E+04
 -3.85318E+04  3.78119E+04 -4.52194E+04  1.13611E+04 -4.59365E+04 -2.35683E+04 -2.61258E+04 -4.21451E+04
  1.23965E+04 -4.28482E+04  3.42240E+04 -2.10734E+04  3.24841E+04  5.03061E+03  4.15829E+03  2.09266E+04
 -1.62340E+04  1.45538E+04 -1.12563E+04 -2.83428E+03 -2.83946E+03 -1.03370E+04  2.31288E+04  2.70864E+03
  1.53753E+04  2.14396E+04 -4.74869E+03  2.77595E+04 -2.48189E+04  1.11476E+04 -3.21764E+04 -2.07612E+03
 -2.19273E+04 -2.08586E+04 -1.62290E+04 -2.53179E+04  4.38884E+03 -2.51414E+04  2.01642E+04 -2.41666E+04
  3.57987E+04 -1.29605E+04  3.65283E+04  5.51924E+03  2.49632E+04  2.32335E+04  3.33499E+02  3.82661E+04
 -2.23279E+04  3.93632E+04 -3.24852E+04  7.88586E+03 -1.74821E+04 -1.35336E+04 -8.02397E+03 -7.91227E+03
  5.50053E+03  1.09566E+04 -1.00859E+04  5.88310E+03 -2.04495E+04  7.72374E+03 -1.67939E+04 -7.33353E+03
 -1.21145E+04 -1.82880E+04  4.14605E+03 -3.01309E+04  1.71883E+04 -1.63034E+04  2.43513E+04  2.15099E+03
  1.61044E+04  1.77972E+04 -1.45213E+03  2.24685E+04 -1.66158E+04  1.66613E+04 -2.61963E+04 -4.87913E+03
 -1.26815E+04 -1.82367E+04 -4.43206E+03 -2.80019E+04  1.74062E+04 -2.55762E+04  2.60518E+04 -9.07532E+03
  1.79533E+04 -8.47983E+02  1.17196E+04  2.53332E+03  1.29872E+04 -3.99922E+03  1.54118E+04 -9.28104E+02
  2.80147E+04  7.19140E+03  3.13745E+04  1.69006E+04  1.03290E+04  4.01009E+04 -5.36591E+03  4.04950E+04
 -3.07515E+04  3.54027E+04 -4.33652E+04  2.18135E+04 -4.33232E+04 -3.24406E+03 -3.39673E+04 -2.40022E+04
 -1.45160E+04 -4.12381E+04  1.20876E+04 -2.78965E+04  2.41212E+04 -1.60672E+04  2.70233E+04  9.56995E+03
  3.73449E+03  1.87262E+04 -4.76894E+03  2.08985E+04 -2.19418E+04 -2.51912E+03 -1.24190E+04 -1.94357E+04
  1.31135E+03 -1.79163E+04  1.09237E+04 -1.24182E+04  1.38402E+04 -1.05501E+03  2.59182E+03  8.82760E+03
 -8.86799E+03  4.63208E+03 -3.51204E+03 -7.13754E+03 -3.53362E+03 -1.72649E+04  9.26932E+03 -1.82383E+04
  2.01336E+04 -7.48305E+03  2.73803E+04  6.43915E+03  1.81567E+04  2.65544E+04  1.30366E+04  2.92646E+04
  2.45266E+02  3.03649E+04 -2.37975E+04  1.79884E+04 -2.75066E+04 -5.06283E+03 -1.50561E+04  2.12580E+03
 -8.13776E+03 -8.09136E+03  4.02331E+03  1.42031E+03  2.34673E+03  5.51533E+01 -7.79031E+03  3.31077E+03
 -1.70070E+04  4.61072E+03 -1.40150E+04 -1.13849E+04 -1.18442E+04 -2.27304E+04  3.21464E+03 -9.41671E+03
  1.85345E+04 -5.64482E+03  9.90915E+03  1.22225E+03  1.28657E+03  1.45005E+04 -7.77286E+03 -1.97070E+03
 -7.31708E+03 -1.11618E+04  2.73953E+03 -1.34473E+04  8.44350E+03 -1.64864E+04  2.38097E+04 -9.60609E+03
  2.89383E+04 -3.05508E+03  1.70364E+04  6.29272E+03  3.05540E+03  1.95264E+04 -1.50832E+04  1.05111E+04
 -9.81619E+03  4.25203E+03 -9.10705E+03 -4.50993E+03  1.01312E+03 -1.33875E+03  4.01298E+03  9.02947E+03
  1.14240E+04  8.44973E+03  5.68242E+02  9.29577E+03 -2.03445E+03  1.49288E+04 -9.27998E+03  6.95915E+03
 -9.14010E+03 -1.63341E+04 -2.70919E+03 -1.66204E+04  8.48213E+03 -4.79234E+03  1.08169E+04  3.76174E+03
  4.54509E+03  6.90184E+03 -5.57962E+03  1.45045E+04 -1.78488E+04  1.19645E+04 -1.52637E+04 -4.09560E+03
 -1.04367E+04 -1.91386E+04  6.14616E+03 -1.84985E+04  1.16445E+04 -3.19258E+03  1.58526E+04  7.64012E+03
  1.04760E+04  1.44250E+04 -6.04681E+03  1.22177E+04 -1.00811E+04  2.07239E+03 -1.08819E+04  3.58340E+03
 -9.33157E+03 -1.15100E+04 -4.21573E+03 -7.90704E+03  9.04328E+03 -6.37190E+03  3.30583E+03 -9.87573E+03
  5.44841E+03  6.90896E+03 -6.04650E+03  2.47350E+03  5.57851E+03 -6.96365E+02  1.14400E+04 -5.65224E+03
  1.50686E+04  4.71818E+02  1.31968E+04  6.85308E+02  1.71102E+04  8.12324E+03  1.22011E+04  1.85516E+04
 -8.63135E+03  3.00917E+04 -1.81402E+04  1.96477E+04 -2.79986E+04  2.64192E+03 -2.37749E+04 -2.75404E+03
 -1.05671E+04 -1.71279E+04 -5.12166E+03 -1.28438E+04  1.70331E+03 -8.70436E+03  7.24249E+03  2.18408E+03
  2.64572E+03 -6.19352E+03  9.14039E+03 -6.68710E+03  8.94702E+03 -3.83100E+03  7.37997E+03 -4.57288E+03
  1.32776E+03 -2.69006E+03  1.16563E+04  7.32469E+03 -3.68192E+03  1.69542E+04 -1.49674E+04  5.26029E+03
 -6.06244E+03  3.57426E+03 -2.04584E+03 -1.29314E+04  1.97911E+03 -1.62889E+04  1.16912E+04 -1.92971E+04
  1.02222E+04 -7.03411E+03  1.98199E+04  7.69941E+03  1.05574E+04  3.61124E+03 -2.19938E+03  2.05943E+04
 -2.17892E+03  1.83422E+04 -1.32820E+04  7.74103E+03 -6.17959E+03  1.08378E+03 -8.75926E+03  1.11322E+03
  4.55842E+03  5.68024E+03 -4.10479E+03  2.34068E+03 -7.41877E+03  6.76307E+02 -1.44587E+04 -2.68758E+02
 -1.31547E+03 -1.54723E+04 -3.81432E+03 -1.74346E+04  1.17415E+04 -8.96174E+03  1.14822E+04 -5.37922E+03
  1.62215E+04  8.07784E+03  5.67265E+03  1.83517E+04  1.95914E+02  1.28107E+04 -1.54896E+04  1.45489E+04
 -1.22711E+04  1.54014E+03 -1.19458E+04 -1.23592E+04 -2.17187E+03 -1.38679E+04  4.78755E+03 -5.36573E+03
  1.40071E+04 -8.57419E+03  6.88565E+03  1.88687E+03 -7.07511E+02  5.69812E+03  3.45509E+03 -7.13225E+03
 -3.95245E+03 -6.05595E+03  7.54372E+03  2.05929E+02  5.42209E+03  6.44848E+03  5.63487E+03  9.40344E+03
 -3.21577E+03  1.03363E+04 -4.19627E+03  1.42167E+04 -1.24955E+04  1.69736E+02 -1.67962E+04 -9.10412E+03
 -1.30330E+04 -1.71307E+04  3.12145E+03 -1.72094E+04  7.06799E+03 -5.73684E+03  1.61435E+04 -5.58752E+03
  6.32155E+03 -3.01358E+03  1.70925E+03  9.66656E+03 -5.93797E+03  8.08716E+03 -1.14743E+04  1.26881E+03
 -7.58107E+03 -2.10565E+03  5.03926E+03 -7.98354E+03  3.13909E+03 -7.15832E+03  1.44812E+04  6.37102E+03
  9.19279E+02  8.00010E+03  3.93983E+03  1.43373E+03 -3.09767E+03  2.69275E+03  3.46887E+03 -8.54411E+02
  2.98583E+03 -4.71452E+03  9.07983E+03  2.90155E+03  6.71057E+02  6.57647E+03 -3.74846E+03  9.34497E+03
 -4.41348E+03  5.96584E+02 -1.15151E+04  9.51414E+02 -1.03934E+04 -1.16101E+03 -4.92528E+03 -5.04516E+03
  2.65274E+03 -6.54763E+03  1.54476E+03  1.40973E+03  1.01042E+04  4.11078E+03 -2.61158E+03  3.36972E+03
 -9.28942E+03  2.04641E+03 -7.70310E+03 -6.46921E+03 -6.24786E+02 -1.59589E+04 -1.07226E+03 -1.12558E+04
  5.78382E+03 -5.20098E+03 -6.72913E+02  2.47511E+03  6.83612E+03  2.20634E+03  5.62161E+03  5.47552E+03
 -7.93995E+03  1.66235E+03 -5.59544E+03  7.11195E+02  2.46995E+03 -4.70585E+03  9.49995E+03 -4.29531E+03
  7.43237E+03 -2.89044E+03  6.77934E+03  6.56215E+03  9.28982E+03  7.84015E+03 -1.13344E+03  9.13884E+03
 -6.10979E+03  1.45116E+03 -5.09683E+03 -1.81717E+03 -1.89300E+03 -6.18256E+03  2.87462E+03 -3.53607E+03
  1.59777E+03  1.29648E+03 -7.49303E+02 -1.67745E+03 -2.07713E+03  6.53712E+03 -1.97698E+03 -2.02272E+03
 -4.72549E+03  4.40145E+03 -5.78833E+03 -1.02310E+03 -3.03627E+03  5.17257E+03 -6.69783E+02  1.53506E+03
 -3.54586E+03  3.44496E+03 -8.01917E+03  3.12563E+03 -1.24706E+04 -5.86391E+02 -1.20977E+04 -6.52268E+03
 -4.56970E+03 -1.57909E+04  2.81191E+03 -2.13030E+04  8.24940E+03 -1.14773E+04  2.43699E+04 -9.14292E+03
  1.61192E+04 -1.49195E+03  8.41700E+03  6.46371E+03  4.56758E+03  1.21652E+04 -4.01615E+03  7.95103E+03
 -6.12146E+03  1.02041E+04 -2.86604E+03 -1.83324E+03 -1.03972E+04 -3.03881E+03 -4.44305E+03 -4.20499E+03
 -6.57092E+03  8.67977E+02 -1.51459E+03  6.52212E+02 -1.31473E+03 -1.41483E+03 -2.13336E+03 -3.26752E+03
  5.44171E+03 -6.57752E+03  6.22462E+03  1.68497E+03  1.29280E+04  3.99851E+03  1.33364E+03  1.41136E+04
 -1.06035E+04  8.09470E+03 -1.57710E+04  3.57396E+03 -1.23527E+04 -1.27070E+03 -1.15194E+04 -8.25433E+03
  8.11376E+02 -1.01728E+04 -1.36005E+03 -7.94118E+03  3.32446E+03 -9.94049E+03  7.36309E+03 -6.64440E+03
  2.78051E+03  5.03531E+03 -1.05236E+03  7.67248E+02  3.45486E+03 -1.21366E+03 -1.93675E+03 -2.97011E+03
  7.16607E+03  2.91623E+03  4.38902E+03  9.44882E+01  4.38187E+03  5.51270E+03 -4.07233E+03  1.06882E+04
 -7.60841E+03  7.27080E+03 -7.00328E+03  3.90512E+02 -7.03249E+03 -3.39361E+03 -1.73238E+03 -1.04988E+04
  4.76672E+03 -1.23686E+04  7.35795E+03 -2.58144E+03  3.03206E+03  3.33803E+03 -3.95437E+02  3.53009E+03
 -7.54036E+02  7.36901E+03 -3.38567E+02  4.42544E+03 -4.73407E+03  3.77505E+03  1.59578E+02 -2.96030E+03
  1.83506E+03 -2.58865E+03 -3.14544E+03  2.53915E+03 -3.47488E+03 -3.82697E+03 -6.29676E+03  2.71345E+03
 -7.72929E+03 -7.63716E+03 -1.16033E+03 -9.75782E+03  3.19724E+03 -6.60566E+03  8.57998E+03 -3.43639E+02
  9.65911E+03 -8.89970E+03  3.44277E+03  6.72448E+03  4.63017E+03  1.05621E+03 -5.52851E+03  3.02823E+03
