 $NMID ID='MM_0lb_SNR50_12hz_g50_97.RAW', FMTDAT='(8E13.5)'
 TRAMP=1., VOLUME=1. $END
  3.07555E+05 -1.88347E+03  3.34005E+05  2.53129E+05  8.95474E+04  3.37037E+05 -1.29119E+05  2.49984E+05
 -1.93209E+05  8.37180E+04 -1.16122E+05 -2.68328E+04  5.41516E+02 -4.97190E+04  4.72645E+04 -3.08042E+03
  3.83199E+04  5.22367E+04 -1.51205E+04  7.98804E+04 -5.81906E+04  6.23128E+04 -8.29590E+04  3.16182E+04
 -7.72815E+04 -8.70990E+03 -5.57500E+04 -5.09808E+04 -1.31478E+04 -7.10533E+04  2.61484E+04 -4.77729E+04
  4.02622E+04  1.86071E+03  2.03894E+04  4.91641E+04 -3.48412E+04  5.18978E+04 -7.14412E+04 -2.36687E+02
 -5.13293E+04 -5.17464E+04 -3.84997E+03 -7.96010E+04  3.01764E+04 -5.53405E+04  4.98756E+04 -1.23160E+04
  4.53177E+04  1.28366E+04  3.50193E+04  2.67588E+04  1.29925E+04  2.69839E+04 -3.85942E+03  2.35441E+04
 -2.14605E+04  1.11682E+04 -1.75409E+04 -6.27424E+03  3.67868E+03 -6.76516E+03  2.58959E+04  9.22603E+03
  6.36945E+03  3.96143E+04 -3.35686E+04  3.79459E+04 -6.74562E+04  5.25397E+03 -6.07617E+04 -4.17827E+04
 -1.10951E+04 -6.09047E+04  3.50913E+04 -4.22313E+04  6.06184E+04 -3.35148E+03  3.88011E+04  3.25969E+04
 -7.00344E+03  3.75964E+04 -3.57876E+04  1.86182E+04 -3.13965E+04 -3.23891E+03 -2.03088E+04 -9.94538E+03
 -2.38070E+03 -1.04128E+04  3.25314E+03 -2.04189E+04  7.87390E+03 -2.05095E+04  1.41293E+04 -9.75300E+03
  6.57181E+03  8.36493E+03 -7.24120E+03  1.41428E+04 -2.27309E+04 -5.07727E+03 -1.35011E+04 -3.73213E+04
  1.89565E+04 -3.85264E+04  5.39401E+04 -2.29995E+04  4.89845E+04  1.91809E+04  1.45306E+04  4.39904E+04
 -1.50059E+04  3.51132E+04 -2.66621E+04 -4.12708E+02 -1.01747E+04 -2.52039E+04  1.85410E+04 -3.43151E+04
  4.31218E+04 -9.82998E+03  3.47284E+04  2.75855E+04  2.10542E+04  4.97683E+04 -1.13000E+04  4.88412E+04
 -2.91849E+04  3.87586E+04 -4.33664E+04  8.08054E+03 -4.58208E+04 -1.82222E+04 -2.40496E+04 -4.12470E+04
  5.18255E+03 -4.22333E+04  2.84872E+04 -1.22666E+04  2.11338E+04  1.27600E+04  1.27842E+03  2.08353E+04
 -1.03695E+04  9.00378E+03 -1.18966E+04 -1.07172E+04  1.08214E+04 -1.21630E+04  2.09048E+04  5.08582E+03
  1.48862E+04  2.03130E+04 -4.36475E+03  2.36595E+04 -2.12458E+04  8.48065E+03 -2.55677E+04 -7.24963E+03
 -2.38111E+04 -2.15463E+04 -1.01654E+04 -2.66965E+04  4.59767E+03 -1.99876E+04  1.31515E+04 -2.46119E+04
  3.17235E+04 -1.60476E+04  3.57313E+04  3.06316E+03  2.58863E+04  1.77058E+04  3.02985E+03  4.12820E+04
 -1.57017E+04  3.17975E+04 -2.39310E+04  8.22410E+03 -2.24008E+04 -9.45997E+03 -6.58451E+03 -1.46514E+04
  3.00762E+03  4.90941E+03 -6.00232E+03  9.83449E+03 -1.86621E+04  5.15340E+03 -1.20027E+04 -4.30303E+03
 -1.37458E+04 -2.26630E+04  1.13172E+04 -2.30704E+04  1.90448E+04 -1.71372E+04  2.31938E+04 -3.30941E+03
  1.68752E+04  1.42097E+04 -2.59371E+02  2.16103E+04 -1.20017E+04  1.20665E+04 -2.62374E+04 -5.92820E+03
 -1.60266E+04 -1.37442E+04 -2.38446E+03 -2.45089E+04  1.36834E+04 -2.11138E+04  2.21646E+04 -6.66102E+03
  2.09851E+04 -2.11123E+03  1.55890E+04  6.40741E+03  2.57509E+03  4.19002E+03  7.33859E+03 -1.94708E+03
  1.60570E+04 -2.37462E+03  2.56511E+04  1.49357E+04  1.51755E+04  3.52395E+04  1.05369E+03  4.59410E+04
 -2.04868E+04  2.93299E+04 -3.45113E+04  1.06459E+04 -4.04612E+04 -7.23802E+03 -3.64019E+04 -1.72045E+04
 -7.78488E+03 -3.04028E+04  8.53824E+03 -2.93561E+04  3.04743E+04 -1.65218E+04  1.86734E+04  3.48523E+03
  8.60883E+03  1.29476E+04 -5.08462E+03  1.57383E+04 -1.12528E+04  1.11452E+03 -1.79939E+04 -1.19226E+04
  2.06473E+03 -1.57834E+04  1.38799E+04 -1.33797E+04  1.28480E+04 -8.07347E+02  5.28056E+03  1.17907E+04
 -7.61869E+03  9.71223E+03 -6.40671E+03 -6.85345E+03 -1.09996E+02 -9.52107E+03  7.71743E+03 -1.22584E+04
  2.22445E+04 -4.54380E+03  1.75434E+04  3.89990E+03  2.05473E+04  1.53649E+04  3.73551E+03  2.50279E+04
 -7.82151E+03  3.52263E+04 -1.73194E+04  1.65586E+04 -1.94514E+04  2.50183E+03 -1.38288E+04 -5.93460E+03
 -5.89655E+02 -5.71670E+03  3.96483E+03 -5.46207E+02 -1.02861E+03  3.78241E+03 -2.78039E+03  6.69869E+02
 -1.63377E+04  3.58725E+03 -1.19647E+04 -8.85447E+03 -1.97923E+03 -1.45116E+04  1.06727E+04 -1.26543E+04
  1.39635E+04 -3.16937E+03  9.81172E+03  3.36442E+03 -5.23104E+03  6.78291E+03 -5.45526E+03 -1.57303E+03
 -8.72100E+03 -6.19759E+03 -3.70150E+03 -1.12928E+04  1.00513E+04 -1.69684E+04  1.44690E+04 -6.63494E+03
  1.57281E+04  4.72816E+03  1.67631E+04  7.44569E+03 -4.93251E+02  1.63259E+04 -5.28573E+03  9.55816E+03
 -9.24967E+03  2.85995E+03  8.72580E+02 -6.40005E+03  3.86191E+03 -2.65268E+03  9.55899E+03  3.91151E+03
  6.87211E+03  3.12815E+03 -1.21410E+03  7.45705E+03 -1.07900E+04  1.28026E+04 -1.39967E+04  4.61028E+03
 -9.67099E+03 -6.46472E+03 -1.45631E+03 -1.43511E+04  7.57972E+03 -8.93538E+03  1.00370E+04  3.90509E+03
  5.09211E+03  1.17283E+04 -4.56290E+03  9.40010E+03 -8.65500E+03  7.28982E+03 -8.02486E+03 -9.72884E+03
 -6.21408E+03 -1.47327E+04 -1.77823E+03 -6.65045E+03  1.05392E+04 -1.32475E+04  1.08004E+04  7.61381E+02
  3.62317E+03  1.35594E+04 -6.55140E+03  1.24858E+04 -7.31082E+03  2.74199E+03 -6.53958E+03 -2.75475E+03
 -4.70749E+03 -7.42472E+03 -5.43433E+03 -7.44635E+03  5.95628E+03 -1.02363E+04  1.60031E+03 -3.25731E+03
  7.79130E+03  2.16593E+03 -1.20943E+03 -2.64825E+03  1.45626E+03 -5.24795E+02  3.65437E+03 -4.81659E+03
  1.04729E+04 -6.80716E+03  8.94148E+03 -2.43721E+02  1.17844E+04  8.01054E+03  8.54043E+03  1.75650E+04
 -6.56279E+03  1.90810E+04 -1.90005E+04  1.51802E+04 -2.29153E+04  3.18209E+03 -9.86293E+03 -1.00898E+04
 -1.40627E+04 -1.08382E+04  2.37304E+03 -1.26248E+04  3.68579E+03 -5.19659E+03  4.91950E+03 -6.14673E+03
  6.27745E+02 -3.26648E+03 -1.25073E+02 -3.31269E+03  7.56934E+03 -6.36455E+03  3.53262E+03 -5.22536E+03
  1.16145E+04  1.63669E+03  7.31804E+03  7.28489E+03 -1.61477E+03  6.25130E+03 -1.07255E+04  7.13554E+03
 -1.57186E+04 -3.91982E+03 -9.06059E+02 -9.70440E+03 -2.68670E+03 -1.04735E+04  6.37000E+03 -1.42226E+04
  1.27425E+04 -6.64694E+03  1.81687E+04  5.10722E+03  1.39530E+04  9.78988E+03 -1.72942E+03  1.25503E+04
 -8.97667E+02  1.11003E+04 -1.11540E+04  2.89475E+03 -8.46673E+03 -3.19898E+03 -2.98495E+02 -2.82647E+03
 -2.68900E+03 -2.28289E+03 -3.92946E+02  3.83053E+03 -8.30601E+03  4.01833E+03 -8.13328E+03  7.87864E+02
 -3.39609E+03 -7.63855E+03  3.81723E+03 -7.25786E+03  5.38482E+03 -1.62203E+04  6.46460E+03 -2.56525E+03
  1.46867E+04  5.58587E+03  3.30212E+03  5.96433E+03 -9.39625E+02  1.07886E+04 -9.04002E+03  6.06053E+03
 -9.90355E+03  4.92431E+03 -9.75578E+03 -8.16908E+03 -1.51953E+03 -7.83796E+03  7.06560E+02 -8.50260E+03
  2.28104E+03  1.87430E+03  3.28979E+03  3.50134E+03  1.86016E+03  3.15124E+03  6.08774E+03  1.24992E+03
 -7.82106E+02 -1.11105E+03  2.57921E+03  9.51419E+02  2.22107E+03  3.03274E+03  9.40175E+02  9.79352E+03
  1.18547E+03  7.31101E+03 -6.29976E+03  1.27791E+04 -8.09006E+03  1.28881E+03 -5.70504E+03 -7.47245E+03
 -3.21529E+03 -1.22451E+04  3.71122E+03 -1.09540E+04  7.42949E+03 -3.95556E+03  2.71467E+03 -6.37683E+02
  7.59286E+03  2.86305E+03  5.00641E+03  9.39209E+03 -8.41305E+03  7.97736E+03 -7.72471E+03 -2.01177E+03
 -4.20136E+03 -1.22931E+03  2.14334E+03 -8.97891E+03  7.97640E+03 -9.54112E+03 -1.39434E+03 -1.76310E+03
  6.98244E+03  4.64832E+03 -4.70655E+03  4.90608E+03  2.01885E+03  8.40663E+03  7.19041E+03 -6.28923E+02
  2.51155E+03 -1.17613E+03  4.65024E+03  1.04466E+03  2.58635E+03  8.04855E+03 -3.76746E+03  6.17253E+03
 -1.86446E+03  1.58555E+03 -2.45772E+03 -2.12839E+03  2.66067E+01 -9.26677E+02 -7.42691E+02 -3.35032E+03
  6.18538E+01 -6.42747E+02  3.95297E+03  1.67790E+03  2.71479E+03  4.10307E+03 -3.97811E+02  2.17395E+03
 -3.59659E+03  5.38462E+03 -3.99421E+03 -2.97673E+03 -6.49955E+03 -3.77496E+03  3.70360E+03 -1.03091E+04
  5.51912E+03 -5.16878E+03  1.00872E+04 -4.30383E+03  1.76263E+03  6.87254E+03  1.43910E+03  3.15184E+03
 -1.09968E+03  2.06277E+03 -1.17237E+03  1.14302E+02  2.33759E+03 -6.61020E+03  7.15328E+03 -6.13062E+03
  3.24867E+03  6.13580E+02  1.40128E+03 -1.01613E+03  2.04849E+03  9.84728E+03 -2.68354E+03  9.55750E+03
 -4.39038E+03  1.84591E+03 -7.12167E+03 -4.17800E+03 -4.56545E+03 -2.29948E+03  7.34065E+03 -3.12886E+03
  2.89710E+03 -5.64108E+03  6.31499E+03  1.03362E+03 -1.64731E+03  2.39392E+02 -2.40401E+02  2.55625E+03
 -3.79448E+03  4.40371E+03 -5.45382E+03  4.98043E+02 -3.89430E+02 -3.80768E+02  1.89350E+03  5.28162E+03
 -1.68580E+02  1.59826E+03 -7.11581E+03  1.00031E+03 -9.02701E+03  1.27869E+03 -8.69112E+03 -6.15213E+02
 -5.93009E+03 -1.14220E+04  1.13237E+03 -1.08759E+04  6.24470E+03 -6.46472E+03  9.30594E+03 -2.37551E+03
  4.83834E+03 -2.06741E+03  4.77137E+03  3.39051E+03  3.30374E+03  8.07990E+03 -1.38197E+03 -2.32261E+03
 -3.12036E+03  4.32130E+03  2.24659E+03 -1.62694E+03 -4.85519E+03 -3.31631E+03 -1.27557E+03 -4.50451E+03
 -9.88762E+03  2.27503E+03  8.42346E+02 -3.89139E+02 -9.34993E+02 -5.04640E+02 -8.36442E+02 -2.87581E+02
  1.26063E+03  1.96374E+03  6.23294E+03 -9.97122E+02  9.59816E+03  2.97026E+03 -8.90780E+01  7.96168E+03
  1.86771E+02  6.47314E+03 -8.65648E+03  4.89544E+03 -6.77792E+03  2.56478E+03 -8.16498E+02 -5.48362E+03
 -4.27973E+02 -6.43353E+03  1.82642E+03 -4.70129E+03 -1.85397E+03 -6.08812E+03  4.02922E+03  1.14711E+03
  2.75504E+03  4.38524E+03  1.30952E+03  1.15355E+03 -1.65412E+03 -3.06744E+03  1.65650E+03 -3.26661E+02
  5.95059E+03 -5.71224E+03  2.93523E+03  1.55959E+03  2.81650E+03 -5.14664E+02 -5.55407E+02  4.74346E+03
 -3.61420E+03 -3.04054E+03 -4.90523E+03 -8.18234E+02 -3.69301E+03 -1.44635E+03  5.21334E+03 -2.72987E+03
  1.46877E+03 -7.36903E+03  3.08170E+03 -1.97642E+03  3.60558E+03  9.81588E+02 -8.75006E+02  2.02331E+03
  2.67111E+02  6.95559E+02  1.08298E+03  4.27819E+03 -1.54967E+03  2.47435E+03 -3.96124E+03  7.93057E+02
 -4.09787E+03  1.24659E+03 -4.48416E+03  6.57706E+02 -8.76660E+03 -2.16650E+03 -5.71029E+03 -2.03978E+02
 -3.22734E+03 -1.71691E+03  1.71713E+03 -3.09572E+03  3.31793E+03 -1.41643E+03 -1.70497E+03  1.50341E+03
  7.35801E+03 -1.38383E+03  4.92810E+03  1.40085E+03  4.00194E+03  4.87199E+03 -1.90620E+03 -2.39491E+03
