 $NMID ID='MM_0lb_SNR50_11hz_g40_71.RAW', FMTDAT='(8E13.5)'
 TRAMP=1., VOLUME=1. $END
  3.11945E+05 -2.36264E+03  3.33773E+05  2.49915E+05  8.56358E+04  3.36796E+05 -1.29711E+05  2.55101E+05
 -1.90872E+05  7.98821E+04 -1.14564E+05 -3.50377E+04 -8.25875E+02 -5.29936E+04  5.12631E+04 -3.71534E+01
  3.62212E+04  5.25840E+04 -1.28316E+04  7.79802E+04 -5.71079E+04  6.37219E+04 -8.72327E+04  3.24500E+04
 -7.25121E+04 -8.79945E+03 -4.92878E+04 -5.12052E+04 -1.28891E+04 -7.42656E+04  2.95526E+04 -4.85179E+04
  4.47457E+04  6.26318E+02  1.49469E+04  5.01074E+04 -3.59585E+04  4.49911E+04 -6.49468E+04  6.14075E+02
 -5.36729E+04 -6.10275E+04 -1.19327E+04 -7.71983E+04  3.53950E+04 -5.37500E+04  4.91854E+04 -1.73075E+04
  4.46432E+04  1.22721E+04  3.27702E+04  2.64866E+04  1.69464E+04  2.83124E+04 -7.41457E+03  2.89978E+04
 -2.08447E+04  1.51890E+04 -1.95567E+04 -5.53849E+03  8.06429E+03 -8.95310E+03  2.41922E+04  1.01415E+04
  9.11168E+03  3.51272E+04 -3.35252E+04  2.96828E+04 -6.34576E+04  1.68865E+03 -6.00944E+04 -4.55290E+04
 -1.28420E+04 -6.33167E+04  3.67469E+04 -4.61918E+04  6.40889E+04 -2.39160E+03  3.19132E+04  3.22316E+04
 -6.06484E+03  3.61532E+04 -2.69514E+04  1.70328E+04 -3.27615E+04 -5.18224E+03 -1.18644E+04 -1.16107E+04
 -1.12442E+04 -1.73052E+04  2.62651E+03 -2.28174E+04  7.70112E+03 -2.95021E+04  1.26000E+04 -7.77582E+03
  1.21183E+04  1.00725E+04 -1.11075E+04  1.06650E+04 -2.73455E+04 -4.70078E+03 -8.88994E+03 -2.88059E+04
  2.29255E+04 -4.67809E+04  4.35284E+04 -1.77579E+04  4.76770E+04  1.78409E+04  1.66382E+04  4.38940E+04
 -1.22642E+04  3.46341E+04 -2.52932E+04  2.15616E+02 -3.81599E+03 -2.78110E+04  1.84373E+04 -3.55523E+04
  4.16288E+04 -9.48323E+03  4.13521E+04  2.49057E+04  1.62834E+04  4.99089E+04 -2.82301E+03  5.00666E+04
 -3.50661E+04  4.10921E+04 -3.98331E+04  1.30900E+04 -4.18354E+04 -1.62616E+04 -2.63030E+04 -3.91340E+04
  5.20433E+03 -3.91482E+04  3.16757E+04 -1.62898E+04  3.32809E+04  7.26967E+03  1.98075E+03  2.20194E+04
 -1.44825E+04  8.92793E+03 -1.14450E+04 -7.78938E+03  5.29115E+03 -1.44233E+04  1.96454E+04  1.09034E+04
  8.18649E+03  2.52822E+04 -9.06619E+03  2.44071E+04 -2.35879E+04  1.36806E+04 -2.68904E+04 -6.01539E+03
 -2.12640E+04 -1.85829E+04 -5.39879E+03 -2.07887E+04 -3.55552E+03 -1.92485E+04  1.39116E+04 -2.17237E+04
  2.65610E+04 -1.61969E+04  4.17351E+04  1.25200E+03  2.27903E+04  1.81055E+04  6.02454E+03  4.08508E+04
 -1.64556E+04  3.65214E+04 -2.89681E+04  1.50321E+04 -2.57149E+04 -1.13920E+04 -1.65330E+03 -9.36033E+03
  5.25385E+03 -4.85884E+03 -9.31533E+03  7.48945E+03 -1.83441E+04  4.15591E+03 -1.76131E+04 -1.06675E+04
 -1.02270E+04 -2.17953E+04  9.17702E+03 -2.56221E+04  1.40098E+04 -2.19655E+04  1.65055E+04  2.15361E+03
  1.55126E+04  9.24410E+03  8.39391E+02  1.81666E+04 -1.13784E+04  1.45585E+04 -2.10014E+04 -6.53140E+03
 -1.40076E+04 -1.92179E+04 -6.45166E+03 -2.76607E+04  1.17047E+04 -2.47391E+04  2.07834E+04 -8.81777E+03
  1.73484E+04 -1.16860E+03  1.43846E+04  6.99010E+03  7.38444E+03  6.67992E+02  1.38430E+04 -5.96911E+03
  2.08013E+04  4.13795E+03  1.91542E+04  1.99295E+04  1.56395E+04  2.97790E+04 -1.44106E+03  4.14445E+04
 -2.70838E+04  3.30794E+04 -4.14594E+04  1.89194E+04 -3.88302E+04 -1.95203E+03 -3.40350E+04 -2.37213E+04
 -5.34860E+03 -3.37019E+04  9.39539E+03 -2.87129E+04  2.39070E+04 -1.39181E+04  1.89069E+04 -7.43707E+01
  1.22183E+04  1.81820E+04 -9.55507E+03  1.71840E+04 -1.69833E+04 -7.86294E+02 -8.78141E+03 -1.32865E+04
  1.14028E+03 -1.75992E+04  1.14753E+04 -1.33069E+04  1.16429E+04 -7.17626E+03  3.90979E+03  7.46128E+03
 -1.05162E+04  8.71120E+02 -6.56213E+03 -4.51732E+03  2.32335E+03 -1.67860E+04  4.06498E+03 -1.64089E+04
  1.98691E+04 -1.03948E+04  2.20329E+04  8.73605E+03  1.72289E+04  1.31097E+04  1.16879E+04  1.69791E+04
 -2.69386E+03  3.15965E+04 -1.38573E+04  1.74038E+04 -1.84373E+04  1.18766E+04 -1.31714E+04 -4.51458E+03
 -5.57772E+03 -1.17271E+04 -9.14843E+02 -4.01089E+03  8.25959E+02  5.12714E+03 -1.12920E+04 -1.42460E+03
 -1.20793E+04  2.02541E+03 -1.24525E+04 -1.93239E+04 -4.79830E+03 -1.85961E+04  3.79396E+03 -1.10002E+04
  8.88965E+03 -2.41763E+00  6.67130E+03  1.05256E+03  1.74794E+03  4.19165E+03 -8.60464E+03  2.85291E+03
 -4.66089E+03 -4.46888E+03 -4.35300E+03 -1.55942E+04  1.43938E+04 -1.45125E+04  2.01365E+04 -5.89050E+03
  1.91944E+04  2.22290E+03  1.37283E+04  7.32933E+03  2.66560E+03  1.58899E+04 -2.71897E+03  1.73053E+04
 -1.38835E+04  5.63273E+03 -1.08100E+04  1.86589E+03  2.95099E+03 -7.89975E+03  8.86453E+03 -4.45046E+03
  5.28611E+03  7.02084E+03  3.06344E+03  8.30623E+03 -1.18330E+04  1.04602E+04 -1.40181E+04 -2.61541E+03
 -1.10569E+04 -3.28190E+03 -1.32689E+03 -1.49156E+04  3.01037E+03 -2.66405E+03  6.48909E+03  4.84968E+03
  3.58119E+03  3.56186E+03 -3.45462E+03  9.97503E+03 -1.27379E+04  6.77588E+03 -6.67017E+03 -4.48230E+03
 -1.81136E+03 -8.59831E+03  4.33318E+03 -1.32004E+04  1.06648E+04 -1.01391E+04  2.05886E+04 -7.04476E+02
  6.85525E+03  1.30409E+04 -4.08383E+02  1.54983E+04 -4.28943E+03  7.66205E+03 -9.54264E+03 -8.65201E+02
 -9.65099E+03 -7.17128E+03 -8.85144E+02 -9.86095E+03  3.66041E+03 -3.77848E+03  4.21968E+03  1.53337E+03
  1.01262E+04  3.11889E+03  3.18059E+03  7.66393E+00 -3.19004E+03  1.03484E+03  1.77116E+03 -2.77646E+03
  3.22160E+03 -5.00775E+02  1.14885E+04  8.27011E+03  4.85314E+03  1.24972E+04  1.21507E+04  1.83016E+04
 -3.05162E+03  1.93024E+04 -1.74712E+04  1.67433E+04 -1.72112E+04  1.03516E+03 -1.50367E+04 -7.33619E+03
 -7.33691E+03 -1.89583E+04  8.20809E+02 -1.57575E+04  5.31058E+03 -7.26332E+03  4.80423E+03 -6.99315E+03
  2.60775E+03 -4.90911E+03 -2.31940E+03 -3.71414E+03  8.21431E+03 -1.49668E+03  5.96392E+03  7.58920E+01
  9.89433E+03 -6.98539E+02  1.99139E+03  1.04791E+04 -4.00453E+03  1.45896E+03 -3.18978E+03  4.80823E+03
 -1.03243E+04 -7.17460E+03 -4.68168E+03 -1.10310E+04  5.80796E+02 -7.05500E+03  9.47370E+03 -7.92549E+03
  9.59413E+03 -8.93407E+03  1.17895E+04  6.31876E+03  7.67154E+03  1.16850E+04  2.20354E+03  1.48442E+04
 -1.14960E+03  1.08391E+04 -7.12825E+03  5.10417E+03 -9.45240E+03  4.18531E+02 -8.57219E+02 -3.13640E+03
  3.67770E+03 -9.32224E+02 -7.31515E+02  3.63208E+03 -4.67433E+03  6.32486E+03 -1.23051E+04 -2.40537E+03
 -2.40026E+03 -4.33856E+03 -4.60697E+03 -1.46319E+04  7.23699E+03 -3.34745E+03  9.60112E+03 -6.54455E+02
  9.03588E+03  8.59070E+03  8.49253E+03  8.38246E+03 -4.06333E+03  6.61095E+03 -9.89469E+03  1.07469E+04
 -1.01151E+04 -3.36936E+03 -4.85606E+03 -1.06118E+04  7.26588E+02 -7.86767E+03  1.01535E+04 -7.54637E+03
  5.63747E+03 -4.86661E+03  1.03755E+03  4.24429E+03  7.55415E+02 -1.02428E+03 -4.88653E+03 -1.14277E+03
 -2.32279E+03  2.06244E+03 -2.00812E+03  2.57053E+03 -9.61013E+03  3.16340E+03  2.04988E+03  4.76790E+03
  4.13399E+02  9.09367E+03 -5.39276E+03  1.37412E+04 -1.58227E+04  1.59155E+03 -8.24969E+03 -7.67600E+03
 -1.80188E+03 -1.48784E+04  7.41068E+03 -2.08866E+03  8.21953E+03 -7.84837E+03  1.15867E+04 -2.61232E+03
  9.78505E+03  2.46552E+03  4.24206E+03  4.65957E+03 -2.87337E+02  7.58979E+03 -1.34967E+03 -1.75991E+03
 -2.14551E+03 -5.73774E+02  3.37402E+03 -4.86791E+03  1.81372E+03 -5.06516E+03  2.24899E+03 -6.66625E+02
  4.52727E+03  9.24689E+02 -2.80682E+03  8.46662E+03 -1.22959E+03  7.09586E+03  6.24999E+02 -2.74347E+03
  4.18787E+03  9.73339E+02  6.85729E+03 -1.13825E+03 -2.94815E+03  6.22601E+03 -2.10357E+03  5.22168E+03
 -4.16384E+03  5.88919E+03 -2.90883E+03  3.42320E+03 -5.12112E+03 -2.65039E+03 -1.23040E+02 -8.44966E+03
  2.70492E+03 -6.80527E+02  4.83164E+03  1.00279E+03  3.93888E+03  2.82389E+03  1.06497E+03  1.90586E+03
 -7.36037E+03  7.10661E+02 -4.27836E+03  3.84582E+02 -4.04538E+03 -4.88343E+03 -1.09306E+03 -2.49189E+03
  7.63791E+03 -1.49099E+03  1.69575E+03 -3.73874E+03  5.70084E+03 -6.23651E+02  2.51853E+03 -1.41564E+03
 -5.05482E+03 -1.89190E+03 -2.51673E+03 -3.39631E+03  1.96450E+03 -3.04264E+03  5.23809E+03 -4.52383E+03
  4.95473E+03 -9.61210E+02  1.31505E+04  6.21733E+03  9.55971E+03  6.27693E+03 -3.19306E+03  6.25362E+03
 -4.61638E+03  1.62925E+03 -5.35915E+03  3.89324E+02 -6.50960E+03 -3.01151E+03  5.68846E+03 -6.98555E+03
  5.07448E+03 -5.31597E+03  1.51136E+03  8.23480E+02  3.56727E+03  6.64563E+03 -2.16443E+03  1.96515E+03
 -3.51319E+03  2.04165E+03 -1.95256E+03 -7.16950E+03  1.19766E+03 -8.10115E+02  2.40252E+03  8.89420E+02
 -2.26118E+03 -1.57387E+03 -5.96547E+03  2.00594E+03 -1.10173E+04 -4.46716E+03 -1.52554E+03 -1.07199E+04
 -3.75512E+03 -1.46814E+04  3.01007E+03 -1.31521E+04  2.89206E+03 -7.43830E+03  1.15859E+04  4.18628E+02
  1.43525E+04  3.40541E+03  9.08506E+03  6.32811E+03 -1.84180E+03  4.98802E+03 -6.72536E+03  8.34833E+03
 -1.01362E+03 -6.37718E+02 -1.61233E+03 -2.84941E+03 -7.50685E+03  6.25617E+03 -1.47388E+03 -2.33360E+03
 -3.62895E+03 -3.23588E+03 -1.69219E+03  3.91260E+03 -2.47278E+03 -2.97818E+03 -1.08337E+03  7.72090E+02
  9.62259E+02 -2.59902E+03  3.95885E+03  4.21542E+03  3.03308E+03  5.69927E+03  2.84152E+03  5.95857E+03
 -4.86995E+03  8.87741E+03 -9.72204E+03  6.46274E+02 -5.85411E+03 -1.46593E+03 -2.87847E+03 -6.52538E+03
 -7.11728E+03 -4.53752E+03  2.81949E+03 -5.86944E+03  2.95218E+03 -8.74464E+03  6.26934E+03  4.61423E+03
 -4.01050E+02 -2.78945E+03  5.57463E+03  2.89238E+03 -4.22266E+03  2.50735E+03  4.40227E+03 -5.42657E+03
  2.08031E+02 -1.06533E+03  3.98864E+03  1.88334E+03  1.07131E+03 -6.82252E+02  1.61134E+03  1.50046E+03
 -4.56460E+03  4.96714E+02 -8.58276E+03  6.60527E+03 -3.50513E+03 -2.75683E+03  2.36402E+03 -8.15486E+03
  3.12426E+03 -3.70880E+03  6.71041E+02 -1.10308E+03  3.45462E+03 -1.66010E+03  2.44651E+03  5.92769E+03
 -3.58971E+02  3.00287E+03  7.09040E+01  2.44012E+03 -2.65539E+03  7.10273E+03 -2.88710E+03  3.11870E+03
  1.27576E+03 -1.65015E+02  3.03634E+01  2.91475E+03 -2.04774E+03 -1.50044E+03  2.09317E+03  1.32809E+03
 -4.09010E+03 -1.51107E+03 -2.54206E+03 -1.61095E+03 -2.77615E+03  4.61179E+02  2.19580E+03 -4.36276E+03
  1.25931E+04 -4.13512E+03  8.28212E+03  8.16707E+02 -8.53530E+02 -1.96362E+03 -3.91799E+03  2.72342E+03
