 $NMID ID='MM_0lb_SNR50_19hz_g60_98.RAW', FMTDAT='(8E13.5)'
 TRAMP=1., VOLUME=1. $END
  3.10270E+05  6.40061E+03  3.36807E+05  2.51544E+05  8.91985E+04  3.35265E+05 -1.32712E+05  2.51986E+05
 -1.90640E+05  8.30173E+04 -1.11027E+05 -3.39189E+04  1.81560E+03 -4.83459E+04  5.44750E+04 -2.60468E+03
  3.98294E+04  5.63836E+04 -1.88361E+04  7.51251E+04 -5.99464E+04  6.59104E+04 -8.36930E+04  2.91962E+04
 -8.13626E+04 -1.49238E+04 -5.46333E+04 -5.11427E+04 -1.47033E+04 -6.99215E+04  2.32592E+04 -4.69828E+04
  3.87186E+04  2.09196E+03  1.69719E+04  4.72128E+04 -3.51485E+04  4.70191E+04 -6.56223E+04 -2.72611E+03
 -5.43420E+04 -5.67264E+04 -5.15499E+03 -7.70788E+04  3.42458E+04 -5.35351E+04  4.44921E+04 -1.61677E+04
  4.30590E+04  9.50201E+03  3.24052E+04  2.59490E+04  1.64632E+04  2.93736E+04 -3.72091E+03  2.71149E+04
 -2.09717E+04  1.27992E+04 -1.86639E+04 -4.44370E+03  3.90902E+03 -7.77230E+03  2.35284E+04  9.75637E+03
  2.78989E+03  3.39189E+04 -3.15627E+04  3.74297E+04 -6.40916E+04 -1.08555E+03 -5.65632E+04 -4.05093E+04
 -1.47106E+04 -6.33121E+04  3.96595E+04 -4.41407E+04  5.41028E+04 -2.54118E+03  3.46088E+04  3.15455E+04
 -5.64281E+03  3.22645E+04 -2.93201E+04  1.19456E+04 -2.97225E+04 -5.05551E+03 -1.64249E+04 -1.22772E+04
 -1.00159E+04 -1.52342E+04 -2.52602E+03 -1.39832E+04  5.63763E+03 -2.34704E+04  1.70330E+04 -1.71168E+04
  1.00595E+04  1.24828E+03 -8.84998E+03  1.46936E+04 -2.01718E+04 -2.36608E+03 -1.12240E+04 -3.28446E+04
  2.48119E+04 -4.26355E+04  4.38050E+04 -2.04894E+04  4.70352E+04  1.89119E+04  1.50662E+04  4.36784E+04
 -1.53035E+04  3.34543E+04 -2.56317E+04  4.24764E+03 -6.49597E+03 -2.72698E+04  2.14710E+04 -3.09253E+04
  4.34115E+04 -9.58904E+03  3.58131E+04  2.09224E+04  1.59304E+04  4.51268E+04 -6.52456E+03  4.93339E+04
 -2.59200E+04  3.49257E+04 -4.16968E+04  8.57937E+03 -4.28630E+04 -1.52442E+04 -2.21179E+04 -3.72442E+04
  3.58137E+03 -3.49294E+04  3.22292E+04 -1.18782E+04  2.33554E+04  8.99652E+03  2.07080E+03  2.01126E+04
 -5.74128E+03  8.41991E+03 -8.90839E+03 -4.62347E+03  6.90361E+03 -9.29771E+03  1.36801E+04  6.72657E+03
  1.22108E+04  2.30581E+04 -9.58139E+03  2.89093E+04 -2.19440E+04  4.24826E+03 -2.26696E+04 -3.44937E+03
 -1.75373E+04 -1.42188E+04 -4.03446E+03 -1.56614E+04  1.85552E+03 -1.74108E+04  1.22971E+04 -1.17493E+04
  2.38977E+04 -1.14890E+04  2.84197E+04  9.38711E+02  2.51263E+04  1.95731E+04  8.44570E+03  2.79937E+04
 -1.91838E+04  3.09019E+04 -2.30035E+04  6.73615E+03 -1.87653E+04 -7.67031E+03 -6.20190E+02 -1.13966E+04
  2.80767E+03 -1.86912E+03 -2.55329E+03  3.85097E+03 -1.44353E+04  4.46910E+03 -1.83536E+04 -8.70257E+03
 -9.93120E+03 -1.74486E+04  6.25140E+03 -1.99870E+04  1.75514E+04 -1.19421E+04  1.16333E+04 -6.53992E+02
  5.00762E+03  9.92959E+03 -6.70718E+03  1.42865E+04 -1.68872E+04  1.26729E+04 -1.75782E+04 -4.81202E+03
 -6.51351E+03 -1.50194E+04 -3.50641E+03 -2.15815E+04  7.81035E+02 -1.58280E+04  1.56673E+04 -5.93460E+03
  1.75314E+04 -1.46192E+03  9.03453E+03  3.13460E+03  5.23668E+03  1.80682E+03  6.31075E+03  7.92012E+02
  1.42196E+04  5.41213E+03  1.08021E+04  1.05751E+04  9.99348E+03  2.50934E+04 -7.81787E+02  2.89142E+04
 -1.35355E+04  2.43030E+04 -2.09283E+04  9.77939E+03 -2.73994E+04  1.62653E+03 -2.56802E+04 -1.47318E+04
 -9.78588E+03 -2.02393E+04  6.48250E+03 -1.99073E+04  1.78584E+04 -1.04328E+04  1.26322E+04  3.56591E+03
  3.73116E+03  1.56392E+04 -5.40296E+03  7.36044E+03 -1.68304E+04  8.80342E+03 -1.53507E+04 -6.39536E+03
 -8.61704E+03 -9.43790E+03  6.48926E+03 -5.52063E+03  1.00227E+04 -6.62707E+03 -1.83906E+02  4.87647E+03
 -4.25419E+03 -1.43845E+02 -2.28053E+03 -5.29159E+03  4.39237E+03 -1.15623E+04  6.29928E+03 -1.36869E+04
  1.39885E+04 -2.57580E+03  1.25592E+04 -2.58517E+03  1.09797E+04  9.98779E+03  7.49029E+03  1.47344E+04
 -8.89750E+02  1.82918E+04 -7.08006E+03  1.33343E+04 -9.99633E+03  4.95774E+03 -1.00593E+04 -4.29667E+03
 -3.21868E+03  1.58932E+02 -3.05464E+03  8.26577E+02 -3.57993E+03  3.21918E+03 -2.20471E+03  2.26207E+03
 -6.33041E+03 -2.75370E+03 -8.66571E+03 -4.71214E+03 -3.02265E+03 -9.02589E+03  2.96043E+03 -8.50542E+03
  8.23277E+03 -7.20026E+03  4.31750E+03 -1.50760E+03 -3.49274E+03  4.93079E+03 -5.63451E+03  2.91118E+03
 -2.22436E+03 -6.06604E+03 -2.59132E+03 -6.81119E+03  3.95017E+03 -8.13964E+03  1.13309E+04 -5.36831E+03
  1.54557E+04  1.48415E+03  8.75318E+03  5.29363E+03  3.29071E+03  7.79452E+03 -7.96417E+03  6.32801E+03
 -7.00492E+03  2.23626E+03 -2.13861E+03 -2.85922E+03  1.15528E+03 -2.09583E+03  1.23367E+03 -7.00686E+02
  1.23148E+03  2.78529E+03 -9.74591E+02  5.55511E+03 -2.32769E+02  1.08784E+04 -4.33438E+03  3.73704E+03
 -5.73138E+03 -3.41898E+03  1.75987E+03 -4.00979E+03  8.16121E+01  1.65244E+02  1.08663E+03  2.66834E+03
 -1.93028E+03  1.67283E+03 -3.09291E+03  2.18518E+03 -4.53457E+03  4.80378E+03 -2.47189E+03 -4.43852E+02
 -9.43677E+03 -5.39574E+03 -1.01561E+03 -1.28259E+04  8.76433E+03 -5.83224E+03  8.37746E+03  8.74380E+02
  4.22094E+03  4.10158E+03  3.52587E+03  7.18837E+03 -7.91966E+03  6.26048E+03 -7.34862E+03  5.87297E+01
 -4.24842E+03 -4.82351E+03 -8.32406E+03 -3.82121E+03 -7.60550E+02 -7.09299E+03  2.85749E+03 -2.97982E+03
  2.37283E+03 -2.88025E+03 -1.42358E+03  2.25580E+02  1.89240E+03 -1.92036E+02  4.81735E+02 -2.60618E+03
  2.34951E+03 -3.78297E+03  3.75807E+03  4.12853E+02  6.68142E+03  8.18395E+03  4.09866E+03  5.72851E+03
  3.30302E+03  1.27003E+04 -8.14430E+03  1.22529E+04 -8.77202E+03  3.38013E+03 -3.30538E+03 -4.43736E+03
 -3.66612E+03 -7.55525E+03  6.87119E+02 -9.01275E+03 -6.15827E+02  1.12964E+03  2.35694E+03 -2.89013E+03
  2.14975E+03 -8.50678E+02  5.04127E+03 -9.69873E+02  4.31003E+03 -5.83941E+03  4.38349E+03 -3.94192E+03
  3.85902E+03 -3.00722E+02  6.87770E+02  5.65576E+03 -9.17704E+02 -7.65379E+02  1.02440E+03  4.13708E+03
 -4.33865E+03 -2.34052E+03 -6.54930E+03 -6.37057E+03 -5.10161E+02 -9.64045E+03  7.17649E+03 -7.47809E+03
  9.38363E+03 -3.61117E+03  5.12671E+03  3.59245E+02  7.65885E+03  3.54138E+03 -1.68327E+03  5.21520E+03
  5.50964E+01  6.00223E+03 -1.08813E+03  3.75549E+03 -3.74586E+03 -1.96638E+03  4.65719E+02 -1.30303E+03
 -3.22373E+03  6.32648E+02 -1.19509E+03  1.88942E+03  1.01320E+03  2.26369E+03 -5.19457E+03  4.34977E+03
 -2.79743E+03 -3.40082E+03 -1.19203E+03 -2.72466E+03  7.49648E+03 -5.36706E+03  4.78389E+03 -9.07578E+02
  2.73726E+03  5.10636E+02  3.94597E+03  2.61609E+03  6.65923E+02  3.80241E+02 -1.54506E+03  6.66325E+02
 -2.71724E+03  1.30928E+03 -1.32640E+03 -1.79900E+03  1.74672E+03 -7.04863E+03  3.64370E+03 -4.10885E+03
  3.61856E+03 -1.01994E+03  1.44323E+03  2.45756E+01  1.70623E+03  1.95825E+03  3.42220E+03  1.64573E+03
  1.35783E+03 -1.97812E+02  4.14046E+02  2.29323E+02  1.96281E+03 -1.00178E+03  1.62284E+03 -9.60227E+02
 -4.17403E+02  3.98487E+03 -6.13526E+03 -4.84767E+02 -2.73411E+03 -2.89896E+02 -1.34419E+03 -5.66840E+03
  4.84360E+02 -3.18222E+03 -2.25099E+02 -4.11577E+02 -1.08482E+03 -8.29801E+03  7.08317E+03  1.12287E+03
  1.14642E+03 -1.02200E+03 -3.42431E+03  4.45829E+03  4.10503E+02  1.69406E+03  2.90196E+03 -2.92744E+03
 -2.27140E+03 -8.26545E+02  3.14139E+03 -3.70309E+03 -4.72324E+03 -2.46678E+03 -1.81497E+03 -9.35533E+02
  3.65533E+03  2.38427E+03 -1.30042E+03  4.95945E+01 -3.09934E+03  4.85836E+03  1.80305E+03  4.13091E+03
 -1.09325E+03  4.25605E+03  3.24049E+03  9.25139E+02 -4.57222E+03  4.76379E+03 -2.65331E+03  5.62239E+03
 -1.54670E+03  3.25658E+03  1.23258E+03  1.93869E+03 -4.88160E+03 -1.96737E+03  2.63264E+03 -2.08054E+03
  1.36088E+03 -2.87029E+03  4.00762E+03 -5.66370E+03 -5.88901E+02  3.98554E+02  2.92997E+02  4.10052E+03
 -5.88194E+03  1.70961E+03  4.34773E+03 -2.87280E+03  1.62062E+02 -1.94063E+02 -2.28332E+03 -2.05275E+03
 -4.08713E+03  1.10632E+03  3.90860E+03 -2.95325E+02 -3.05282E+02  3.34062E+03  1.27138E+03  2.55242E+03
  2.75878E+01  3.20016E+02  6.40570E+02  5.11949E+02  2.79303E+03 -4.73500E+03  1.22965E+03 -2.43268E+02
  7.89907E+02 -7.77756E+02  3.49266E+03  3.98896E+03  2.55164E+03  1.72045E+03  9.70143E+02 -3.49483E+03
 -6.17342E+03 -4.97623E+03 -6.18006E+02 -6.26223E+03 -5.46645E+01  9.06764E+01  1.65418E+03 -3.90829E+03
  4.02729E+03 -1.00900E+03  2.70075E+03  1.58624E+03  3.07614E+03  4.66942E+03  1.20921E+03  5.32712E+02
  2.20573E+03 -1.64916E+03 -1.28941E+03 -1.82987E+03 -3.74576E+03  1.42180E+03  4.33722E+02  3.51024E+03
 -1.31187E+03 -5.65410E+02 -2.71487E+03 -2.27289E+03 -1.54312E+03  1.80770E+03  2.29199E+02 -6.57193E+02
 -2.40778E+03 -9.76601E+02  2.30266E+03 -2.62064E+03 -3.48132E+02  1.42729E+03  5.00566E+00  8.79838E+02
  4.15305E+03 -6.82960E+01  2.01556E+03  4.28276E+03  2.46668E+03  1.31455E+03  9.41186E+02  6.75946E+03
 -4.88166E+03  1.65816E+03 -1.16677E+02 -5.35975E+02  2.41915E+03 -3.22532E+03 -7.17483E+02  1.27791E+03
 -2.46479E+03  9.31080E+02 -6.79957E+02  3.49526E+03 -1.12606E+03 -1.97851E+03 -6.49460E+02  2.05514E+03
  1.86768E+03  2.02949E+03 -2.28757E+02 -4.59271E+03  2.96035E+03 -3.44900E+03 -3.16358E+03 -3.73152E+02
  1.83512E+01  4.89960E+03 -3.72142E+03 -2.47078E+03 -2.40944E+03  2.05565E+03 -2.76003E+03  1.21459E+03
  3.56519E+03 -3.14454E+03 -6.17069E+02 -1.22477E+03 -1.82538E+02 -1.03683E+03  5.55564E+03 -6.07542E+02
  2.25197E+03  1.50574E+03  4.23821E+03  2.05416E+03 -3.07406E+03  1.08704E+02 -4.32004E+02 -2.65385E+03
  1.64910E+03  9.33875E+02 -6.42889E+01  3.86031E+03  2.95783E+03  2.75459E+03  1.00182E+03 -1.84269E+03
 -4.77866E+03  2.42549E+03  1.30873E+03  1.15075E+03  2.92219E+03 -2.05007E+03 -1.60974E+01  1.46480E+03
  6.63727E+02 -1.50043E+03 -1.43974E+03 -8.45440E+02 -1.18680E+03  2.69384E+03  4.48647E+01 -1.89640E+03
  1.98066E+03  2.79179E+02 -4.64748E+02  4.56024E+03 -4.86076E+03  3.68641E+03 -2.83106E+03  4.21060E+03
  1.46307E+03  3.29841E+03  1.05634E+03  8.43659E+02 -8.12176E+03  1.05747E+01 -1.58438E+01 -2.77927E+03
 -7.66428E+02 -6.24783E+03 -8.60785E+02 -3.27732E+03  2.59890E+03 -2.21420E+02 -2.26878E+03  2.46267E+01
 -7.61871E+02 -1.21944E+02 -4.30988E+03 -8.70323E+02 -2.29318E+03  1.76621E+03 -1.54463E+03  8.14528E+02
