 $NMID ID='MM_0lb_SNR50_15hz_g45_55.RAW', FMTDAT='(8E13.5)'
 TRAMP=1., VOLUME=1. $END
  3.08821E+05  1.48628E+03  3.36463E+05  2.49577E+05  8.11452E+04  3.38538E+05 -1.32794E+05  2.50195E+05
 -1.93414E+05  8.36670E+04 -1.07075E+05 -3.09698E+04  4.96479E+03 -5.01854E+04  5.64536E+04 -1.33097E+03
  3.44650E+04  5.05199E+04 -1.75813E+04  7.83865E+04 -6.03171E+04  6.36444E+04 -8.67556E+04  3.51286E+04
 -7.97887E+04 -8.87416E+03 -5.16461E+04 -4.97442E+04 -1.44329E+04 -7.02208E+04  2.57450E+04 -4.10313E+04
  4.02704E+04 -1.91896E+02  1.39084E+04  5.12907E+04 -3.81726E+04  4.66685E+04 -6.21393E+04  1.89224E+03
 -5.27729E+04 -5.89004E+04 -7.12981E+03 -7.87675E+04  3.11566E+04 -5.09335E+04  4.82071E+04 -1.60214E+04
  4.73339E+04  1.25619E+04  3.40608E+04  2.26737E+04  1.44680E+04  2.95394E+04 -6.26017E+03  2.64944E+04
 -2.44027E+04  1.04534E+04 -1.99264E+04 -3.16603E+03  4.60320E+03 -8.17874E+03  2.28051E+04  1.16997E+04
  7.01618E+03  3.43531E+04 -3.76015E+04  3.46040E+04 -5.98128E+04  2.13518E+03 -5.73053E+04 -4.83313E+04
 -1.55688E+04 -6.83518E+04  3.91013E+04 -4.22736E+04  5.68259E+04 -4.01677E+03  3.09942E+04  3.03032E+04
 -6.60420E+03  3.80054E+04 -2.93236E+04  1.02676E+04 -2.95030E+04 -2.97795E+03 -1.81383E+04 -1.14962E+04
 -8.14154E+03 -8.68193E+03  1.67915E+03 -1.80676E+04  1.00131E+04 -2.59388E+04  1.45685E+04 -1.78286E+04
  1.02142E+04  2.80213E+03 -5.74405E+03  1.10998E+04 -2.04406E+04 -4.76164E+03 -8.16870E+03 -3.22524E+04
  2.01494E+04 -4.35798E+04  4.53617E+04 -1.86865E+04  3.96252E+04  2.04369E+04  1.54614E+04  4.45558E+04
 -9.55498E+03  3.30839E+04 -2.80108E+04  1.38078E+03 -8.08789E+03 -2.82619E+04  1.92159E+04 -3.58058E+04
  4.22116E+04 -9.62818E+03  3.51080E+04  2.17080E+04  1.79385E+04  4.49333E+04 -8.35848E+03  4.99530E+04
 -2.90963E+04  3.04449E+04 -4.61314E+04  9.27450E+03 -3.41939E+04 -1.32017E+04 -2.13196E+04 -3.53354E+04
  8.89402E+03 -3.85329E+04  3.50929E+04 -1.49749E+04  3.16097E+04  1.43766E+04  3.86968E+03  1.44014E+04
 -1.07776E+04  6.83342E+03 -1.10499E+04 -9.92560E+03  3.16138E+03 -7.60414E+03  1.67944E+04  7.30676E+03
  1.37932E+04  2.11955E+04 -3.54664E+03  2.23225E+04 -2.05371E+04  1.16625E+04 -2.70470E+04 -6.14716E+03
 -1.81935E+04 -1.80137E+04 -8.45559E+03 -2.22878E+04  5.00080E+03 -2.07510E+04  1.40820E+04 -1.70961E+04
  2.55811E+04 -1.35790E+04  2.65086E+04  1.53763E+03  2.36349E+04  2.06761E+04  5.41531E+03  3.43348E+04
 -1.97189E+04  3.12186E+04 -2.23782E+04  9.74192E+03 -1.95279E+04 -1.57024E+04 -2.88633E+03 -1.03446E+04
 -6.59903E+02 -2.75323E+03 -5.80639E+03  2.43892E+03 -1.54523E+04  3.44636E+03 -2.19106E+04 -8.71765E+03
 -7.32658E+03 -1.91887E+04  6.03558E+03 -2.27978E+04  1.52540E+04 -1.78442E+04  1.78204E+04  5.07050E+02
  1.29903E+04  1.08133E+04 -1.20741E+03  1.70556E+04 -1.33680E+04  1.07669E+04 -2.10021E+04 -3.56595E+03
 -1.37325E+04 -1.81670E+04 -3.84583E+03 -1.87873E+04  1.03943E+04 -1.17329E+04  1.63546E+04 -8.91861E+03
  1.33617E+04  4.88470E+02  1.58842E+04  8.23838E+03  6.66496E+03  1.54515E+03  9.30209E+03 -4.60725E+03
  1.62360E+04  6.15554E+03  1.39084E+04  1.99267E+04  7.39660E+03  2.77553E+04 -1.82587E+03  3.49259E+04
 -1.97442E+04  2.49904E+04 -2.80692E+04  1.13820E+04 -2.72553E+04 -6.69685E+02 -2.52784E+04 -1.72334E+04
 -1.08663E+04 -2.66675E+04  5.87337E+03 -1.92753E+04  2.47246E+04 -1.06193E+04  2.18948E+04  2.14028E+03
  7.84069E+03  1.09361E+04 -1.14005E+04  1.36394E+04 -1.31025E+04  2.63993E+03 -1.14775E+04 -7.66689E+03
  1.06822E+03 -1.48615E+04  9.20177E+03 -1.12000E+04  1.22458E+04  1.44104E+02  3.68166E+03  2.94146E+03
 -6.98601E+03 -9.45652E+02 -4.44276E+03 -3.13950E+03 -3.30858E+03 -1.62628E+04  1.20886E+04 -1.78640E+04
  1.79812E+04 -8.55147E+03  1.48499E+04  2.22645E+03  1.57791E+04  1.70883E+04  6.02955E+03  2.32486E+04
 -5.71884E+03  2.20392E+04 -1.30510E+04  1.00449E+04 -1.89960E+04  4.49941E+01 -9.20044E+03 -1.99764E+03
 -8.59495E+03 -4.57658E+03  7.79142E+02  2.79340E+03 -8.23589E+03  2.79421E+03 -5.88069E+03  3.78344E+03
 -9.69841E+03  2.49120E+03 -5.20761E+03 -7.28098E+03 -4.53894E+03 -1.26275E+04  1.54059E+03 -1.40149E+04
  1.25720E+04 -7.02474E+03  5.98984E+03  5.61187E+03  2.52099E+03  4.63920E+03 -5.01892E+03  1.66191E+03
 -8.53428E+03 -7.03732E+03 -1.33895E+03 -1.23047E+04  7.54498E+03 -9.37687E+03  1.34521E+04 -5.18869E+03
  1.73006E+04  1.49756E+03  1.36090E+04  7.82168E+03 -1.83417E+03  1.14577E+04 -8.86892E+03  9.32882E+03
 -9.82045E+03  5.46369E+03 -5.03761E+03  2.20636E+02  1.96546E+03 -4.13058E+03  8.11720E+03 -2.67188E+03
  5.73362E+03  3.91667E+03  2.02861E+03  6.47037E+03 -3.22246E+03  4.01972E+03 -6.91787E+03  6.03042E+03
 -5.30667E+03 -2.59253E+03 -1.57162E+03 -5.19000E+03  2.85643E+03 -2.87413E+03  5.45206E+03  4.03172E+03
 -1.41998E+03  4.69037E+03 -2.76589E+03  3.74210E+03 -8.23163E+03  5.74312E+03 -5.32026E+03 -4.90461E+03
 -3.45628E+03 -8.15523E+03 -1.94949E+03 -1.39329E+04  8.74794E+03 -4.17319E+03  6.85683E+03  2.97635E+02
  2.69850E+03  7.86251E+03  1.84119E+03  7.44822E+03 -7.00021E+03  3.21616E+03 -6.15796E+03 -1.53712E+03
 -1.03087E+04 -5.35706E+03 -4.42019E+03 -7.06907E+02  4.00577E+01 -6.78053E+03  1.30092E+03 -2.47494E+03
  1.10667E+03  4.06127E+03 -1.69588E+02  6.75571E+02 -9.51818E+02 -6.50560E+03  4.73894E+03 -1.08613E+03
  5.37546E+03 -4.36927E+03  5.57956E+03  9.17559E+03  1.12684E+04  9.11804E+02  6.79183E+03  1.36548E+04
 -5.52390E+03  1.59956E+04 -6.33232E+03  8.82118E+03 -1.54678E+04  3.27359E+03 -1.35845E+04 -2.30283E+03
 -8.45093E+03 -1.11175E+04  4.41482E+03 -1.02521E+04  3.37338E+03 -1.02044E+03 -9.29725E+02 -7.00881E+03
  1.12932E+03  2.47973E+03 -3.09590E+03 -8.61615E+02  2.24664E+03 -3.30400E+03  5.75221E+03 -1.64173E+03
  4.06147E+03  8.67334E+02 -1.86098E+03  3.73020E+02 -4.69515E+03  6.33184E+03 -6.34340E+03  1.81492E+03
 -7.66957E+03 -1.75223E+03 -5.07888E+03 -9.88516E+03  1.69394E+03 -9.15211E+03  7.34599E+03 -6.26549E+03
  7.11105E+03 -3.75430E+03  1.22283E+04 -1.80909E+02  9.12025E+03  3.31362E+03  8.48571E+03  9.66043E+03
 -1.08237E+03  1.83551E+03 -2.73207E+03  4.21495E+03  3.98475E+03 -5.30857E+02 -4.00666E+03 -2.89041E+03
  5.31963E+02  8.28476E+02  8.37745E+02 -2.35309E+03 -7.94846E+03  4.07980E+03 -2.72843E+03 -2.15115E+03
 -2.92215E+03 -6.82281E+03 -1.10625E+02 -3.73988E+03  9.64080E+03 -6.57255E+03  3.46248E+03 -1.63286E+03
  4.53524E+03 -1.11045E+03  5.44193E+03  5.32525E+03  1.20221E+03  1.01514E+04 -1.88911E+03  3.89201E+03
 -6.49062E+03 -1.97518E+02 -1.13603E+03 -2.06972E+03 -2.00598E+03 -5.35420E+03  3.37081E+03 -2.06068E+03
  7.55849E+03 -6.07940E+03  6.15214E+02  2.66498E+03 -1.88019E+03  2.56232E+03 -9.81006E+02  1.22110E+03
  1.32108E+03  1.49560E+03 -2.40486E+03  1.09319E+03  2.38077E+03  3.75745E+03 -1.30888E+03  3.88196E+03
 -5.56994E+02  3.55642E+03 -6.41155E+03  1.19144E+03 -4.33857E+03  3.07896E+03 -7.21419E+03 -4.82691E+03
 -3.66977E+03 -5.79572E+03 -3.85903E+02 -7.96668E+03  3.62821E+03 -3.24547E+03  6.74088E+03  4.09480E+03
  1.11605E+03 -1.27044E+03 -5.15837E+03  6.20343E+03 -1.13000E+03  4.22259E+03 -6.16401E+03 -3.07988E+03
 -7.14744E+02 -3.39221E+03  4.95735E+03 -3.68547E+03  5.93949E+03 -5.15946E+03  3.29087E+02  4.00209E+02
 -1.03388E+03  3.71121E+03  2.76451E+03  3.82428E+03 -3.16487E+03  6.48113E+03  3.04107E+03  3.04396E+03
  4.17181E+01 -5.34274E+02  7.73478E+03  1.38038E+03  3.10988E+03  6.23700E+03  2.64349E+03  6.15537E+03
 -8.67419E+03  3.38173E+03 -3.72281E+03  3.42846E+01 -6.89996E+03 -3.04685E+03 -1.43086E+03  2.76657E+03
  3.67673E+02 -2.57943E+03  3.49338E+03 -1.56196E+03 -1.50679E+02  3.86957E+03  1.66973E+03 -4.16229E+02
 -2.83723E+03  8.38246E+01 -6.23574E+03 -3.17685E+03 -2.51983E+03 -4.51337E+03  2.56921E+03 -7.57885E+02
 -8.78161E+02  1.55847E+03  4.19271E+03  1.16816E+03  2.26797E+03  2.08696E+03 -1.04544E+03  2.46269E+03
 -8.22539E+02  3.22649E+02 -3.42021E+02 -1.10908E+03 -9.05918E+02 -2.36208E+03  3.01147E+03 -1.58435E+03
  5.64191E+02 -1.78069E+03  2.77865E+03  5.50126E+01  2.21007E+03  5.01403E+03  3.09045E+03 -5.41584E+02
 -3.03503E+03  4.27999E+03 -2.21668E+03  1.60673E+03 -4.26653E+03 -4.02147E+03  1.97793E+03 -2.33209E+03
  2.52004E+03 -3.85799E+03  1.93375E+03  1.25469E+03 -2.18648E+03 -1.94545E+03  7.44244E+02  2.81284E+03
  1.92103E+03  3.49656E+03 -1.56505E+03 -2.06640E+03  1.46853E+03  1.93471E+03 -5.60921E+03  5.44295E+03
 -2.22683E+03  7.47347E+02 -6.00178E+03  2.49474E+03 -2.30476E+03  6.56428E+03 -1.09869E+03 -6.64876E+03
  4.42328E+03 -3.40613E+03  3.16446E+03 -5.20544E+03 -2.41324E+02 -7.15166E+03  3.26992E+03  4.18778E+03
  4.71160E+03 -2.10007E+02  3.88135E+03  2.03745E+03 -1.13221E+03  3.92788E+03  1.11791E+03  1.48209E+03
 -1.73455E+03  1.70923E+03 -8.66720E+02 -1.61460E+03 -3.07905E+03  1.86948E+03 -2.49503E+03  1.67033E+02
  6.05634E+02 -7.36315E+03 -3.33892E+02 -1.59453E+03  6.51813E+03 -4.40698E+03 -3.45396E+03 -1.32405E+03
  6.63220E+03 -2.40740E+03  1.08056E+03 -5.24521E+01  4.20461E+03 -2.45190E+02  3.25091E+03  3.56623E+03
 -2.53600E+03  5.41316E+03 -4.26178E+03  3.45286E+03 -6.12561E+02  2.04241E+02 -3.33184E+03  5.44780E+02
  1.86261E+03 -3.68248E+03  2.71383E+03 -8.93571E+02 -3.28218E+03  1.54837E+03  1.74733E+03  3.15581E+03
  1.01392E+03 -2.70756E+02  5.56648E+03  3.69906E+03  2.92304E+03 -2.14562E+03  2.12186E+02  1.83125E+03
  1.61097E+02 -6.82053E+02  2.69657E+03 -4.67302E+03 -2.27238E+02  4.91959E+02  1.45099E+03  4.00621E+03
  2.06224E+03  2.74274E+03  1.31165E+03  5.19546E+02 -2.07312E+03 -4.92500E+03  2.08213E+03 -2.98128E+03
  2.87693E+03 -1.32622E+03  6.93370E+03 -5.57154E+03  2.46080E+03  8.33526E+02  3.06464E+03  1.76620E+03
  7.07397E+02  1.46995E+03  5.50135E+01  8.22774E+02  3.91377E+01  2.51792E+03  6.72956E+02  1.85116E+03
  1.86184E+03  2.42440E+03  2.52169E+03 -3.90962E+03  1.76120E+03 -2.55908E+03 -6.34292E+03  4.14388E+03
 -6.42322E+03 -4.36761E+03  5.46744E+02 -7.13329E+03  2.81121E+03 -6.80409E+03  3.01557E+03  1.20536E+03
  5.26550E+03 -6.48393E+03 -3.28452E+03  1.35053E+03  2.35712E+01 -1.93122E+03 -9.53003E+02  1.79634E+03
