 $NMID ID='MM_0lb_SNR50_14hz_g60_32.RAW', FMTDAT='(8E13.5)'
 TRAMP=1., VOLUME=1. $END
  3.09706E+05  8.22420E+02  3.38288E+05  2.53702E+05  8.60374E+04  3.37153E+05 -1.35371E+05  2.54118E+05
 -1.93949E+05  8.08983E+04 -1.05326E+05 -2.89481E+04 -2.78383E+03 -5.04987E+04  5.42000E+04  1.07719E+03
  3.44533E+04  5.56529E+04 -1.56408E+04  6.83276E+04 -6.20288E+04  6.38001E+04 -9.10117E+04  3.41067E+04
 -8.07411E+04 -9.07333E+03 -5.65125E+04 -5.16833E+04 -1.12280E+04 -7.32426E+04  2.48613E+04 -4.27072E+04
  3.74369E+04  7.77456E+03  2.18815E+04  4.64273E+04 -3.67910E+04  4.73991E+04 -6.99307E+04 -1.85085E+03
 -4.94248E+04 -5.66261E+04 -8.01663E+03 -7.76325E+04  3.22998E+04 -5.71365E+04  4.50155E+04 -2.01751E+04
  4.83793E+04  1.40567E+04  2.71843E+04  2.38365E+04  1.32399E+04  2.84523E+04 -2.83770E+03  2.81380E+04
 -1.78628E+04  1.19401E+04 -1.55915E+04 -4.76257E+03  7.50798E+03 -1.08516E+04  2.31766E+04  1.16891E+04
  1.21416E+04  3.92661E+04 -3.14966E+04  3.82729E+04 -6.52471E+04  2.51176E+03 -6.47236E+04 -4.46308E+04
 -1.30163E+04 -6.44611E+04  3.87109E+04 -4.90392E+04  5.83437E+04 -6.53851E+03  3.40265E+04  3.36607E+04
 -8.83829E+03  3.54930E+04 -2.48063E+04  1.47653E+04 -3.22342E+04 -1.03340E+04 -1.89095E+04 -9.66989E+03
 -1.20470E+04 -1.32721E+04  4.50608E+03 -1.41374E+04  1.05690E+04 -2.12555E+04  1.53529E+04 -9.03965E+03
  9.28538E+03  5.82383E+03 -6.28153E+03  1.78530E+04 -2.31727E+04 -6.32647E+03 -8.49936E+03 -3.60027E+04
  2.36343E+04 -4.66705E+04  5.05693E+04 -1.73658E+04  4.61722E+04  1.92992E+04  1.94737E+04  4.54409E+04
 -1.97218E+04  3.23473E+04 -3.13480E+04  1.40898E+03 -8.53653E+03 -2.27441E+04  2.17734E+04 -3.61027E+04
  3.76849E+04 -1.01391E+04  3.39066E+04  1.96262E+04  1.66791E+04  5.04423E+04 -5.32582E+03  5.52109E+04
 -3.08699E+04  3.83782E+04 -4.37648E+04  5.94739E+03 -4.55284E+04 -1.68270E+04 -2.59078E+04 -3.39084E+04
  7.24048E+03 -3.96282E+04  2.83457E+04 -1.24259E+04  2.94350E+04  1.04577E+04  2.73823E+03  1.75956E+04
 -1.05232E+04  7.19397E+03 -1.25007E+04 -7.59164E+03  7.78340E+03 -1.38286E+04  1.95505E+04  1.19406E+03
  1.87985E+04  2.13629E+04 -1.04419E+04  2.54347E+04 -2.50104E+04  1.12822E+04 -3.21158E+04 -2.94759E+03
 -2.30004E+04 -1.74104E+04 -7.63985E+03 -2.47286E+04  1.02923E+04 -2.80758E+04  1.82733E+04 -1.70923E+04
  3.11919E+04 -1.12521E+04  3.67267E+04  6.81512E+03  2.78736E+04  2.48598E+04  3.94969E+03  3.94859E+04
 -1.88714E+04  2.53898E+04 -2.91720E+04  9.23616E+03 -2.17669E+04 -4.42513E+03 -5.86565E+03 -1.26436E+04
  6.20252E+02 -3.25352E+03 -1.15946E+04  4.26299E+03 -2.26564E+04  1.13430E+03 -1.95120E+04 -1.14456E+04
 -1.06361E+04 -1.84179E+04  5.69634E+03 -2.65200E+04  1.87233E+04 -1.94535E+04  1.49840E+04 -6.71556E+03
  1.61592E+04  9.62421E+03 -1.67257E+03  2.62219E+04 -1.05789E+04  6.81354E+03 -2.33816E+04 -5.71117E+03
 -1.49922E+04 -1.22121E+04 -2.29959E+02 -2.91976E+04  1.86339E+04 -1.88618E+04  1.83252E+04 -1.08107E+04
  2.09661E+04 -5.41068E+03  1.30146E+04  6.26413E+03  7.30547E+03  2.97883E+03  1.05735E+04 -4.29633E+03
  1.77346E+04  1.77700E+03  2.33850E+04  1.40467E+04  1.14204E+04  3.42082E+04 -6.86396E+03  3.49261E+04
 -2.21332E+04  2.59489E+04 -2.97172E+04  9.68725E+03 -3.60613E+04 -2.45632E+03 -3.30191E+04 -2.70905E+04
 -1.16790E+04 -3.11744E+04  1.28933E+04 -2.27330E+04  2.18273E+04 -1.11722E+04  1.72986E+04  4.08817E+03
  1.38063E+04  1.45092E+04 -1.25742E+04  1.78624E+04 -1.68750E+04  5.09498E+03 -1.11368E+04 -1.34921E+04
 -2.89194E+03 -1.62566E+04  3.78272E+03 -1.91983E+03  1.23194E+04 -3.70376E+03  1.91400E+03  6.60019E+03
 -1.00337E+04  8.48247E+03 -7.30421E+03 -1.31705E+03 -3.62885E+03 -1.29754E+04  1.18169E+04 -1.78997E+04
  1.31463E+04 -7.23082E+03  2.24002E+04  5.63864E+03  2.07603E+04  1.52159E+04  7.75034E+03  2.31310E+04
 -5.23059E+03  2.34111E+04 -1.56833E+04  1.24370E+04 -1.74971E+04 -1.95287E+03 -1.14237E+04 -3.85993E+03
 -6.57664E+03 -3.79527E+03 -2.96919E+03 -2.62889E+02 -7.46159E+02  1.43225E+03 -1.24488E+03  5.53109E+03
 -1.63824E+04  2.13848E+03 -1.43298E+04 -1.02462E+04 -3.42922E+03 -1.81802E+04  4.35327E+03 -1.60648E+04
  8.66166E+03 -5.52547E+03  7.92253E+03  7.06958E+03 -8.86051E+02  6.43290E+03 -4.08829E+03 -4.39147E+03
 -8.19325E+03 -4.80141E+03 -4.50525E+03 -9.65480E+03  3.74814E+03 -1.22051E+04  9.31934E+03 -4.13183E+03
  1.55174E+04  1.81311E+03  1.15542E+04  1.05528E+04  4.67491E+03  1.24242E+04 -7.14405E+03  1.39716E+04
 -4.73494E+03  1.17628E+03 -6.45172E+03  1.49734E+03  5.18937E+03 -5.53837E+03  5.77293E+03 -1.97310E+03
  7.24365E+03  1.24664E+04  5.46565E+03  9.21261E+03 -5.55338E+03  7.99067E+03 -1.65301E+04  3.63213E+02
 -7.83246E+03 -4.92866E+03 -4.05824E+03 -1.15491E+04  8.10037E+03 -5.52456E+03  5.57942E+03  2.87171E+03
  3.02326E+02  9.81084E+03 -8.71861E+03  8.33790E+03 -1.14017E+04  3.88029E+03 -1.06437E+04 -3.48030E+03
 -5.12714E+03 -1.05112E+04  1.87400E+03 -1.25881E+04  1.25871E+04 -1.35340E+04  9.21219E+03  2.94311E+03
  1.11409E+04  8.29909E+03  2.32993E+03  1.72435E+04 -8.60532E+03  5.93481E+03 -4.40127E+03  9.26993E+02
 -6.23499E+03 -1.05079E+04  1.49095E+03 -7.66940E+03  6.71779E+03 -7.54831E+03  1.44624E+03  1.69647E+03
  5.18826E+03 -1.19902E+03  3.14682E+03  5.31662E+02 -1.03483E+03 -2.66430E+03  6.52102E+01 -7.76908E+02
  8.50283E+03  4.12375E+01  9.34031E+03 -3.18270E+02  1.12625E+04  8.05414E+03  6.41730E+03  1.25518E+04
 -6.55448E+03  1.57395E+04 -1.70487E+04  1.00891E+04 -2.00862E+04 -1.10283E+03 -1.84288E+04 -7.17114E+03
 -9.55190E+03 -1.23948E+04 -6.29125E+02 -2.52832E+03  1.51976E+02  1.04240E+03 -2.85247E+03 -5.95828E+03
  8.75557E+03 -2.72187E+03  6.19609E+02 -2.55207E+03  4.65653E+03 -1.76891E+03  4.34621E+03  2.70801E+02
  5.86346E+03 -6.13912E+02  2.34277E+03  4.97481E+03 -3.70203E+03  1.00732E+04 -8.29685E+03  4.57857E+03
 -7.38365E+03 -1.18341E+03 -4.93919E+03 -6.09459E+03 -2.05570E+03 -1.26323E+04  1.19846E+04 -4.13139E+03
  9.11986E+03 -8.26965E+03  9.83105E+03  1.75754E+03  1.00149E+04  1.28419E+04 -2.40958E+03  1.59557E+04
 -5.46924E+03  1.48651E+04 -9.93517E+03  9.30949E+03 -6.00637E+03  2.22162E+03 -2.03656E+03  5.37097E+03
  3.09448E+02  7.12197E+02  5.16834E+03  1.08405E+03 -8.15629E+02  3.69700E+03 -4.14466E+03  1.09586E+03
 -2.33505E+03 -6.57529E+03  8.65422E+02 -1.09051E+04 -6.13921E+02 -9.96724E+03  9.99107E+03 -2.78563E+03
  1.53252E+04  1.10881E+03  3.64481E+02  1.40391E+04 -6.05010E+03  1.31747E+04 -2.63189E+03  9.71740E+03
 -1.25421E+04  5.69139E+01 -6.88439E+03 -2.83087E+03 -3.95854E+03 -8.60898E+03  4.29155E+03 -5.94964E+03
  6.89063E+03 -4.95150E+03  8.20060E+03 -4.98051E+03 -9.83744E+02  7.02451E+03  1.42080E+03 -1.38804E+03
 -1.55077E+00  7.36632E+03 -2.73278E+03  1.16625E+02  3.79190E+02  7.32785E+03  3.89190E+03  9.90564E+03
 -3.44129E+03  4.01359E+03 -1.01937E+04  7.24284E+03 -7.22778E+03  1.77821E+03 -8.90277E+03  4.36507E+02
 -6.72828E+03 -5.25014E+03 -2.98314E+02 -5.40551E+03 -7.30138E+02 -7.79307E+03  4.04941E+03 -2.35069E+03
  3.87147E+03  9.01721E+03  3.67535E+03  5.59897E+03 -4.03975E+03  4.51380E+03 -4.37273E+03 -1.54753E+03
  8.59418E+02 -1.04453E+04  1.10682E+03 -4.10922E+03  6.34197E+03 -2.32296E+02  1.13637E+03  1.23562E+03
  2.91073E+03  2.22414E+03  7.05069E+03 -1.66163E+03 -1.44170E+03  1.51303E+03  6.02939E+03 -1.34331E+03
 -3.40707E+03 -1.82827E+03  7.59013E+02  5.95777E+01  1.03111E+03  8.56445E+03 -4.25891E+03  6.26261E+03
 -3.58798E+03  1.94471E+03 -2.02523E+03  6.17253E+03 -1.97655E+03 -3.46559E+03  1.53875E+03 -1.50062E+03
 -2.46098E+03 -5.12717E+03  1.52693E+03 -3.92279E+02 -5.96904E+01  3.01819E+03  1.41780E+02  4.94217E+03
 -3.66779E+03  4.47571E+03 -1.29980E+03 -1.05190E+03 -5.75284E+03 -1.08922E+04 -3.31646E+03 -1.31966E+03
  1.75802E+03 -4.37023E+03  6.80964E+02  1.63191E+02  2.81127E+03 -1.73541E+03  6.18814E+03  5.11777E+03
 -6.25889E+02  2.50287E+03 -4.76239E+03  2.36336E+03  7.53323E+02 -8.64186E+02  2.50518E+03 -3.85798E+03
  1.33184E+03 -1.84989E+03  3.73409E+03  2.81190E+03  2.39237E+03  7.54893E+03 -5.11125E+03  4.71130E+03
 -2.21353E+03  1.47622E+03 -2.48010E+03  3.29996E+03 -6.49859E+02 -4.33505E+03 -1.53402E+02 -9.67474E+03
  5.80334E+03 -4.84247E+03  7.88058E+03  2.34295E+03  6.20708E+02  8.55151E+02  2.92155E+03 -2.68056E+03
 -9.15079E+02  2.82349E+03 -1.56619E+03 -9.76837E+02 -1.63123E+03 -2.79245E+03 -4.91339E+03  3.93819E+03
 -3.20385E+03  7.25358E+02  3.18994E+02 -2.52050E+03 -2.73631E+03  1.15808E+03 -1.27503E+03 -1.75189E+03
 -1.33426E+03 -7.95815E+03  1.86467E+03 -8.56776E+03  4.70575E+03 -8.14896E+03  3.33553E+03  2.76285E+03
  8.37100E+03  6.14421E+03  3.83901E+03  2.25238E+03  8.03688E+02  6.60264E+03 -5.82896E+03  5.47166E+03
 -2.25795E+03  3.22977E+03 -5.24861E+03  1.00743E+03 -5.84541E+02  2.18373E+03 -5.83187E+03 -8.19400E+02
  2.38878E+03  8.28480E+02 -3.58954E+03  3.18017E+03  2.13559E+03 -5.41505E+02 -3.13189E+02 -5.69850E+03
  6.39724E+02  2.92825E+03 -8.01793E+02 -7.09346E+03  2.08227E+03  2.98474E+03  2.88667E+03  4.40024E+03
 -5.00198E+02  4.91563E+03 -3.17667E+03  1.36616E+03 -3.09586E+03 -4.37469E+03 -3.03497E+03  3.50741E+03
 -8.22467E+02 -2.90839E+03  5.94468E+02 -5.06749E+02  4.23298E+03 -2.59712E+02  1.19627E+03 -2.70210E+03
 -4.75153E+02  6.96208E+03 -2.06897E+03  4.31749E+03  2.66444E+03 -8.29024E+02  2.38844E+03 -1.36024E+03
  3.16826E+03 -6.20859E+03  3.95730E+03  2.96366E+03  9.51936E+01  3.25668E+03 -1.01441E+03  1.91874E+03
  7.22720E+02  5.09619E+02 -4.71726E+03  2.47713E+03  1.89554E+03  3.76680E+03 -3.58418E+03 -1.67208E+03
  3.37656E+03 -5.44438E+03  3.89322E+03 -1.88316E+03 -2.01873E+03 -1.94511E+03  1.76053E+03  1.15109E+03
 -3.88809E+02  1.30965E+03  5.82805E+02  4.66804E+03 -4.73005E+03 -4.16911E+03 -7.26454E+03  1.72536E+03
 -1.26470E+03  5.87188E+02 -2.50449E+03  1.22900E+03 -2.67502E+03  1.64722E+02 -7.28337E+03 -1.59397E+03
  2.43059E+03 -2.38399E+03  9.32536E+02 -2.89098E+03  1.54305E+03 -1.57359E+03  4.04829E+03 -2.55114E+03
  4.21293E+03  2.56273E+03  1.93660E+03  1.92468E+03  5.14062E+03 -1.33810E+03 -2.58435E+02  5.40358E+02
