 $NMID ID='MM_0lb_SNR50_15hz_g45_7.RAW', FMTDAT='(8E13.5)'
 TRAMP=1., VOLUME=1. $END
  3.11686E+05 -2.99476E+03  3.37024E+05  2.54792E+05  8.13530E+04  3.35894E+05 -1.32653E+05  2.49040E+05
 -1.88215E+05  8.04513E+04 -1.11470E+05 -2.80351E+04  6.39247E+01 -5.17712E+04  5.71365E+04 -5.28817E+03
  3.92185E+04  5.00671E+04 -1.37437E+04  7.58455E+04 -6.13305E+04  6.44439E+04 -8.18085E+04  3.26359E+04
 -8.19694E+04 -9.41931E+03 -5.87136E+04 -4.76106E+04 -1.21908E+04 -6.41725E+04  2.57460E+04 -4.50856E+04
  3.99714E+04  3.02268E+03  1.98423E+04  4.66427E+04 -3.53124E+04  4.53421E+04 -6.72706E+04 -1.28872E+03
 -5.69990E+04 -5.69458E+04 -7.73029E+03 -7.80886E+04  2.94501E+04 -5.50047E+04  4.71973E+04 -1.77670E+04
  3.89521E+04  1.40316E+04  2.54245E+04  2.47788E+04  1.43010E+04  3.04420E+04 -4.29551E+03  2.92553E+04
 -1.85349E+04  9.06740E+03 -1.87285E+04 -8.66550E+03  6.00451E+03 -5.91903E+03  2.02509E+04  1.49180E+04
  6.63099E+03  3.54021E+04 -3.52158E+04  3.64718E+04 -6.15802E+04  2.29286E+03 -5.63689E+04 -4.03217E+04
 -1.55281E+04 -6.16704E+04  3.86032E+04 -4.34159E+04  5.82323E+04  3.92060E+03  2.97916E+04  3.29786E+04
 -4.52055E+03  3.63783E+04 -2.86516E+04  2.03041E+04 -2.93206E+04 -2.91983E+03 -1.59429E+04 -1.17490E+04
 -1.07784E+04 -1.12837E+04 -1.46711E+03 -1.98662E+04  6.69787E+03 -2.50033E+04  1.07664E+04 -9.52140E+03
  1.43030E+04  6.08485E+03 -1.01445E+04  1.71885E+04 -2.22969E+04 -3.43496E+03 -7.63907E+03 -3.10287E+04
  2.03248E+04 -4.35436E+04  4.72208E+04 -2.14621E+04  4.57876E+04  1.84342E+04  1.49582E+04  4.65048E+04
 -1.53009E+04  2.81368E+04 -2.28394E+04  6.99778E+03 -9.03016E+03 -2.89951E+04  2.37961E+04 -2.97090E+04
  3.82277E+04 -2.46559E+03  3.27281E+04  2.63870E+04  2.22740E+04  4.60034E+04 -1.11970E+04  5.15576E+04
 -3.03348E+04  3.62144E+04 -4.24826E+04  9.50154E+03 -4.00730E+04 -1.87867E+04 -1.62979E+04 -3.91052E+04
  5.47293E+03 -3.47727E+04  3.03570E+04 -1.21019E+04  2.82135E+04  1.25626E+04  6.32083E+03  1.82151E+04
 -1.11240E+04  4.95137E+03 -1.18354E+04 -4.68006E+03  7.24480E+03 -1.07029E+04  1.85829E+04  2.24261E+03
  1.49085E+04  2.70703E+04 -6.52031E+03  1.89304E+04 -2.02118E+04  1.35473E+04 -2.28758E+04 -5.89305E+03
 -2.40632E+04 -1.32290E+04 -7.02417E+03 -1.96573E+04  4.19514E+02 -2.10823E+04  1.58116E+04 -1.21607E+04
  2.08343E+04 -1.12057E+04  3.17176E+04 -9.94787E+02  2.16043E+04  2.17545E+04  6.81186E+03  3.12284E+04
 -1.45163E+04  2.73298E+04 -3.09720E+04  1.12464E+04 -2.14122E+04 -1.13852E+04 -6.49881E+03 -1.84870E+04
  1.96698E+03 -4.61611E+03 -5.62434E+02  7.90347E+03 -1.31572E+04  4.46706E+02 -1.85525E+04 -1.81333E+03
 -1.04898E+04 -2.03525E+04  1.83393E+03 -2.04839E+04  1.29513E+04 -1.93654E+04  2.12658E+04  1.98506E+03
  9.51987E+03  9.66237E+03  1.94365E+03  1.68753E+04 -1.67347E+04  7.59220E+03 -1.38335E+04 -2.55681E+03
 -1.32751E+04 -1.57105E+04 -3.49316E+03 -1.74458E+04  7.74800E+03 -2.12331E+04  1.82722E+04 -3.11824E+03
  1.81690E+04  5.90686E+03  8.47383E+03  5.86026E+02  6.58423E+03  1.58912E+03  1.13499E+04 -4.11641E+03
  1.35595E+04  2.11665E+02  1.49296E+04  1.59477E+04  1.08909E+04  2.45566E+04 -4.85592E+03  3.15679E+04
 -2.41033E+04  2.65504E+04 -2.89441E+04  8.94641E+03 -3.20739E+04 -5.27597E+03 -2.54483E+04 -1.16619E+04
 -9.57048E+03 -2.73830E+04  6.15506E+03 -2.26082E+04  1.76987E+04 -1.01752E+04  1.04561E+04  5.00008E+03
  1.04783E+04  1.30969E+04 -6.74849E+03  1.14557E+04 -1.46871E+04  1.21487E+03 -8.64319E+03 -7.90192E+03
  7.19605E+01 -9.67320E+03  6.66253E+03 -8.52473E+03  8.86286E+03 -1.84094E+03  1.35935E+03  5.86490E+03
 -8.09108E+03  3.28563E+03 -8.19115E+03 -1.91939E+03  1.88577E+03 -9.44678E+03  1.00681E+04 -1.15771E+04
  1.25549E+04 -1.56162E+03  1.78219E+04  3.65585E+03  1.45219E+04  1.51012E+04  1.94649E+03  2.17200E+04
 -8.27348E+02  2.19643E+04 -9.98036E+03  1.28930E+04 -1.38692E+04 -4.69908E+02 -1.07172E+04 -2.10142E+03
 -3.32762E+03 -5.94730E+03 -2.16586E+02  4.02449E+03 -1.51139E+03  2.53441E+03 -1.04464E+04  4.12551E+03
 -8.71018E+03  3.78491E+03 -6.97687E+03 -6.14620E+03  1.80619E+03 -1.53655E+04 -1.84232E+03 -7.52149E+03
  1.38061E+04 -1.60420E+03  7.78742E+03  5.29711E+02 -4.94426E+02  1.11270E+03 -3.58611E+03  4.09339E+03
 -7.75103E+03 -4.93638E+03 -1.77207E+03 -6.57077E+03  5.55728E+03 -9.86023E+03  7.69350E+03 -8.90015E+03
  1.22164E+04  8.04301E+02  8.91424E+03  7.33601E+03 -7.49612E+02  9.33965E+03 -5.77579E+03  1.30168E+04
 -1.00756E+04  5.48307E+03 -5.41329E+03 -5.64192E+03 -1.71744E+03 -3.84207E+03  8.64491E+03 -3.58851E+03
  4.94668E+03  4.43194E+03  5.59641E+02  3.07978E+03 -5.47973E+03  9.07552E+03 -1.16009E+04  6.18640E+03
 -4.17669E+03 -2.70648E+03  8.36147E+02 -1.06067E+04  2.96971E+03 -1.96548E+03  5.41258E+03 -1.25380E+03
 -3.69517E+02  1.30082E+03 -1.08790E+03  9.03430E+03 -9.52019E+03  3.03142E+03 -1.07895E+04  3.14146E+01
 -3.41262E+03 -8.43899E+03  1.77007E+03 -1.04734E+04  7.69999E+03 -8.83599E+03  9.57616E+03  1.89148E+03
  2.26441E+03  6.29112E+03  5.62886E+02  6.53383E+03 -3.32132E+03  2.74784E+03 -3.88820E+03 -8.64900E+02
 -6.76634E+03 -1.24595E+04 -4.56597E+03 -5.11675E+03  2.89622E+03 -7.24921E+03  2.89031E+03 -3.12112E+03
  3.36735E+03  1.35384E+03  4.82177E+03 -7.70925E+02 -3.33529E+02  1.60948E+03  2.63338E+03 -5.59888E+03
  5.62636E+03 -8.75730E+02  1.16520E+04  1.78521E+03  1.11925E+04  6.89724E+03  6.92286E+03  1.08016E+04
 -5.32936E+03  1.04287E+04 -6.53437E+03  6.71829E+03 -1.41063E+04  3.55960E+03 -1.21959E+04 -2.49811E+03
 -6.25332E+03 -7.34912E+03  1.10736E+01 -3.99460E+03  5.12765E+03  1.96089E+03 -1.43458E+03 -5.10028E+03
  1.53113E+03 -4.46573E+03 -1.43378E+02 -1.12503E+03  5.42678E+03 -3.50152E+03  1.75536E+03  3.59614E+02
  9.24678E+03  4.20925E+03 -2.01733E+02  8.78456E+03 -3.46225E+03  1.00045E+03 -5.00788E+03  3.42463E+03
 -9.42233E+03  3.08109E+03 -3.15906E+03 -6.70324E+03 -2.60894E+03 -7.34703E+03 -2.48869E+03 -1.22653E+04
  7.81063E+03 -7.04581E+03  9.96795E+03  1.13289E+02  5.18595E+03  7.42737E+03  1.65592E+03  8.53019E+03
 -6.10000E+03  1.22060E+04 -5.79146E+03  7.28870E+02 -5.63499E+03  2.63755E+03 -2.56520E+03  1.30242E+03
  4.78862E+02 -2.86713E+03 -2.54455E+03  1.69699E+03 -4.43956E+03  4.95253E+02 -3.71788E+03  1.96479E+03
 -3.66796E+03 -5.78774E+03  5.81672E+03 -8.13983E+03  1.01800E+04 -2.73610E+03  8.66715E+03 -3.67124E+03
  9.34174E+03  4.04773E+03  4.46032E+03  4.68121E+03 -3.71971E+03  1.23451E+04  1.55990E+02  3.23580E+03
 -7.21501E+03 -3.49097E+03 -5.99786E+03 -4.67029E+03  5.41049E+03  4.80760E+02  1.48233E+03 -1.52369E+03
  9.39412E+03 -4.76335E+03  3.10824E+03  4.90808E+02  2.91269E+03  3.94062E+03 -5.26133E+02  3.14769E+03
  7.49524E+03 -1.11481E+02  1.69305E+03  1.60117E+03 -9.19982E+02  5.02000E+03  4.11050E+03 -3.18679E+03
  7.73878E+01  2.28310E+03 -4.13786E+02  7.02519E+03 -2.70580E+03 -3.70993E+02 -7.88396E+03 -3.92098E+03
 -2.18999E+03 -6.20599E+03  8.07270E+03 -4.83756E+03  6.11093E+03 -5.39942E+03  9.40973E+03 -1.48035E+03
  1.42112E+03  9.69576E+03 -2.24783E+03  6.81448E+02 -2.73573E+03  3.22683E+03 -1.26837E+03 -7.60311E+02
 -3.21746E+03 -4.84215E+03  6.57388E+02  1.06135E+03  3.57880E+03 -6.62092E+03  3.13418E+03  6.69060E+01
 -1.49858E+03 -6.26273E+03  3.11876E+03 -1.66178E+03 -1.76408E+03  3.71856E+03 -9.42814E+02  2.90038E+03
  5.47050E+03 -7.68049E+02  4.51835E+03  1.74462E+03 -3.11891E+03  5.44733E+03 -1.75546E+03  8.51743E+03
 -3.06318E+03 -2.09673E+03 -4.98904E+03  1.69771E+02  5.07822E+02 -2.51309E+03 -4.38535E+02  2.83380E+03
  3.57544E+03  4.52919E+02  1.52122E+03 -3.09790E+03 -1.79961E+03  6.13912E+03 -6.06332E+03  5.30044E+02
 -1.68600E+03  5.04893E+03 -2.49861E+03  3.54610E+03 -2.48896E+03  1.69703E+03 -1.41946E+03 -5.42534E+03
  5.00439E+02 -2.80764E+03  5.36901E+03  1.04727E+03  2.56363E+03  4.37330E+03 -2.12559E+02 -4.78261E+03
 -1.36613E+03  3.19724E+03 -6.02139E+03 -3.10039E+03 -1.85041E+03 -1.23932E+03  2.34967E+03 -9.11400E+02
  5.46537E+03  1.32707E+03  6.25995E+03  3.64272E+03  2.24248E+03  3.63361E+03 -2.18603E+03  6.30799E+03
 -6.78505E+03 -3.75722E+03 -4.88729E+03 -3.71430E+03 -2.36534E+03 -4.33720E+03 -1.85147E+02  1.51535E+03
  2.70330E+03  1.22125E+03  4.02258E+03  3.48336E+03 -3.35234E+02  6.32614E+03 -4.18235E+03  1.07129E+03
  2.03936E+03  3.22580E+03 -5.93636E+02 -1.85249E+03  3.25669E+03 -2.83159E+03  5.29545E+02  1.17972E+03
 -7.28512E+02  1.75539E+03 -6.01460E+03 -6.69233E+02  3.74880E+03  2.35226E+03 -2.71030E+03  2.69853E+01
  1.84599E+03 -3.65587E+03  1.97566E+03 -7.73650E+03  1.71502E+03 -7.20336E+03  3.89647E+03  8.31188E+02
  4.19303E+03 -3.77395E+03  8.53380E+02 -5.40224E+02  5.60071E+03  5.55986E+03 -3.03867E+03  3.10308E+03
 -7.33357E+03  2.77742E+03  3.38407E+02 -1.03274E+03  1.06610E+03 -1.00053E+03 -3.56092E+03  2.10661E+03
  2.74750E+03  4.52474E+02  8.28909E+02 -9.35939E+02  9.06355E+02 -2.35952E+02 -1.82517E+03 -3.02999E+03
  2.87344E+03 -8.22899E+01  4.30898E+02 -3.12021E+03  2.83735E+03  1.69657E+03  3.68997E+03  4.85578E+03
 -1.56844E+02  6.50901E+03 -5.19243E+03  3.07254E+01 -2.81769E+03  1.76541E+03 -1.14351E+03 -1.74080E+03
 -4.01721E+02 -2.61824E+03  2.96851E+03 -4.18187E+03  6.18957E+03  4.15349E+03  2.56495E+03 -4.55246E+01
 -2.10716E+03  3.64941E+03  1.46907E+01  1.65594E+03  1.68864E+03  1.09379E+03 -3.54435E+02 -3.91159E+03
 -1.14202E+03 -5.43313E+03  3.19976E+03  1.26775E+03  7.20534E+02  1.36325E+03 -1.57911E+03  1.36045E+03
 -2.68341E+03  5.97647E+02 -4.26238E+03 -5.01803E+03  1.63885E+03  1.35507E+02  1.22889E+03  1.70314E+03
  2.60455E+03 -2.14386E+03  2.47698E+03 -1.80442E+03 -7.58199E+02 -1.87759E+03 -2.93605E+03  3.44537E+03
  3.85779E+03 -1.17867E+02 -5.35455E+03  1.02005E+03  5.88557E+03  1.30444E+03 -1.36272E+03  2.64631E+03
 -7.37015E+02 -2.25486E+03  1.60932E+03 -1.68854E+03 -1.37821E+03  3.03829E+03 -2.02923E+03  3.24096E+03
 -2.08801E+03 -8.63243E+02 -1.14793E+03  2.35214E+03 -1.30040E+03 -1.59075E+03  3.70367E+03 -3.99255E+03
  8.64906E+02  2.62354E+03  1.91708E+03  4.87790E+03  1.07827E+03  3.24213E+03 -1.38399E+03  2.05710E+03
