 $NMID ID='MM_0lb_SNR50_20hz_g50_29.RAW', FMTDAT='(8E13.5)'
 TRAMP=1., VOLUME=1. $END
  3.08470E+05 -2.84529E+02  3.33873E+05  2.50718E+05  8.31211E+04  3.39194E+05 -1.32771E+05  2.56820E+05
 -1.91324E+05  8.60529E+04 -1.13183E+05 -3.29480E+04  3.03361E+02 -5.23845E+04  5.73259E+04 -1.86983E+03
  3.44306E+04  5.08988E+04 -1.62159E+04  7.18125E+04 -6.19952E+04  6.50215E+04 -8.38302E+04  2.89769E+04
 -7.47605E+04 -1.02156E+04 -5.55683E+04 -5.31477E+04 -1.46895E+04 -6.89179E+04  2.74744E+04 -4.39139E+04
  3.50984E+04  4.40201E+03  1.65042E+04  4.74257E+04 -3.38899E+04  4.62296E+04 -6.53728E+04  2.43550E+03
 -5.24638E+04 -5.26457E+04 -4.66709E+03 -7.33871E+04  3.75849E+04 -5.25870E+04  4.31030E+04 -1.81825E+04
  4.10504E+04  6.27620E+03  3.16059E+04  2.55883E+04  1.51634E+04  2.66200E+04 -4.85445E+03  2.73263E+04
 -2.10741E+04  1.10283E+04 -1.85350E+04 -3.99742E+03  1.89379E+03 -9.28975E+03  2.20334E+04  1.05931E+04
  7.07963E+03  3.18333E+04 -2.78509E+04  2.95084E+04 -6.00968E+04  2.96193E+03 -5.72165E+04 -3.95527E+04
 -1.37039E+04 -6.10900E+04  3.89103E+04 -4.34546E+04  5.51674E+04 -6.29339E+03  3.01592E+04  2.92290E+04
 -5.57437E+03  3.13935E+04 -2.70994E+04  1.75903E+04 -2.66576E+04 -9.26039E+03 -1.33311E+04 -7.99098E+03
 -9.15215E+03 -1.07142E+04  8.68240E+02 -1.35614E+04  9.52930E+03 -2.23164E+04  1.17073E+04 -1.52357E+04
  1.26130E+04  7.87063E+03 -4.99796E+03  1.00544E+04 -1.84055E+04 -6.24246E+02 -1.71908E+03 -2.96232E+04
  2.28521E+04 -3.58085E+04  4.24542E+04 -1.84492E+04  3.70151E+04  2.34668E+04  1.48826E+04  4.41590E+04
 -1.42131E+04  3.10708E+04 -2.05309E+04 -2.70241E+03 -3.99860E+03 -2.57498E+04  2.05715E+04 -3.37686E+04
  4.03124E+04 -4.44256E+03  3.62149E+04  2.01798E+04  1.42042E+04  4.30135E+04 -9.81949E+03  4.82571E+04
 -2.80412E+04  2.60526E+04 -3.93157E+04  1.18942E+04 -4.28645E+04 -1.10611E+04 -2.06573E+04 -3.62478E+04
  6.35909E+03 -3.51288E+04  2.48972E+04 -1.21264E+04  2.82662E+04  1.21202E+04  6.26351E+03  1.87892E+04
 -1.30829E+04  9.93305E+03 -8.96554E+03 -6.97462E+03  3.41004E+03 -5.70375E+03  1.75888E+04  1.01105E+04
  1.32753E+04  2.42714E+04 -6.34276E+03  2.15189E+04 -1.87888E+04  1.17835E+04 -2.50132E+04 -8.71919E+03
 -1.23633E+04 -1.93508E+04 -7.22983E+03 -1.82075E+04  4.23002E+03 -1.56073E+04  1.26566E+04 -1.65379E+04
  2.37598E+04 -1.05239E+04  2.63577E+04  4.03561E+03  1.92051E+04  1.55749E+04  2.80285E+02  3.34445E+04
 -1.35496E+04  2.47601E+04 -2.45611E+04  1.08326E+04 -1.98294E+04 -1.33777E+04 -6.91841E+03 -1.21785E+04
  3.17592E+02 -8.58423E+03 -3.47051E+03  5.88293E+03 -1.20775E+04  8.26466E+03 -1.17126E+04 -4.36096E+03
 -5.58776E+03 -9.99933E+03  7.14705E+02 -1.94406E+04  1.19538E+04 -1.07444E+04  1.26133E+04 -2.51143E+03
  6.73915E+03  9.00368E+03  2.23983E+02  1.19023E+04 -9.60213E+03  9.15094E+03 -1.35171E+04 -1.51905E+03
 -9.72911E+03 -1.49277E+04 -4.01407E+03 -1.54360E+04  9.83495E+03 -1.52069E+04  1.89462E+04 -8.76016E+02
  1.13133E+04 -2.39397E+02  8.40339E+03  2.26078E+03  7.15025E+03 -1.13365E+03  6.03863E+03 -5.36929E+02
  1.15142E+04  5.71219E+03  1.65777E+04  7.32722E+03  1.15570E+04  2.07549E+04 -6.57902E+03  2.54319E+04
 -1.54680E+04  1.86563E+04 -2.07992E+04  1.10133E+04 -2.21708E+04 -3.32998E+03 -2.02929E+04 -1.32708E+04
 -1.30335E+04 -1.68532E+04  3.50666E+03 -1.96318E+04  1.39240E+04 -1.10835E+04  1.72332E+04  2.94944E+03
  6.17960E+03  1.21230E+04 -4.89948E+03  6.34623E+03 -1.23805E+04  1.86005E+03 -1.23843E+04 -8.98073E+03
 -1.17201E+03 -1.10897E+04  3.04748E+03 -1.03457E+04  6.69581E+03 -2.62469E+03  7.34194E+02  6.72237E+03
 -5.57328E+03 -7.86913E+02 -7.74467E+03 -4.18727E+03  5.07340E+03 -7.02831E+03  3.28763E+03 -9.60402E+03
  1.13887E+04 -5.12438E+02  1.54418E+04  1.59813E+03  7.78032E+03  5.66904E+03  6.02858E+03  1.44776E+04
 -1.24780E+03  1.32640E+04 -1.22020E+04  7.75371E+03 -1.16831E+04 -1.15286E+03 -9.98348E+03  5.21737E+02
 -4.80995E+03 -4.15416E+03 -8.19957E+02  2.11089E+03 -3.88726E+03 -1.28131E+03 -4.75483E+03  4.67755E+03
 -6.70078E+03 -3.67286E+02 -5.76591E+03 -6.46419E+03 -1.46153E+03 -1.24194E+04  1.60532E+03 -7.88900E+03
  1.06387E+04 -1.79123E+03  2.31105E+03 -7.61707E+02  2.14132E+03  4.42379E+03 -3.23520E+03  9.67619E+02
 -6.01353E+03 -8.32561E+03  3.67646E+02 -5.03501E+03  5.82852E+03 -6.68169E+03  7.63640E+03 -5.76990E+03
  5.26915E+03 -2.25467E+03  6.78219E+03  5.41186E+03  1.99757E+03  7.97754E+03 -8.46492E+03  9.57230E+03
 -7.99418E+03  1.09204E+03 -6.59170E+03  2.52966E+03  6.08380E+03 -4.39776E+03  5.21190E+03  3.13889E+03
 -3.58350E+03  6.18313E+03 -2.62255E+03  3.32677E+03 -3.93939E+03  6.61185E+03 -9.31966E+03  1.59313E+03
 -5.17031E+03 -3.47758E+03  1.83630E+03 -6.28432E+03  3.75420E+03 -3.66178E+03  2.07305E+02 -2.26108E+03
  1.47444E+03  3.25427E+03 -5.42194E+03  4.49566E+03 -7.55956E+02 -1.03342E+03 -4.82314E+03 -1.11876E+03
 -5.35627E+02 -8.00460E+03  5.27709E+03 -6.81595E+03  4.21571E+03 -6.97191E+03  5.12027E+03 -3.15285E+03
  3.14703E+03  7.30009E+03  1.67226E+03  7.81340E+03 -1.46976E+03 -1.06507E+03 -4.38461E+03  1.26543E+03
 -3.42775E+03 -4.79648E+03 -2.93583E+03 -3.86839E+03  5.10145E+03 -4.33027E+03  3.05591E+03 -6.49236E+03
  1.38164E+03  1.71487E+03  9.29405E+02 -1.38302E+03  3.02885E+03  1.07902E+03  5.17484E+02 -1.77992E+03
  6.91711E+03  7.43863E+02  7.04765E+03  5.46072E+03  5.62712E+03  4.63020E+03  6.25572E+03  1.22953E+03
  7.74260E+02  8.38023E+03 -6.33332E+03  6.55041E+03 -1.05166E+04 -9.78341E+02 -8.56847E+03 -2.23523E+03
 -3.10240E+03 -5.47499E+03 -7.51581E+03 -3.85072E+03  2.03531E+03 -3.10579E+03  1.55376E+03 -8.80783E+02
  4.41671E+03 -1.52422E+03  2.73655E+03 -6.76880E+03  6.96716E+02 -3.41196E+03  4.10064E+03  4.64120E+03
  6.01383E+03  1.81429E+03 -3.54581E+03  1.10172E+03  9.07207E+02  1.96971E+03 -7.57405E+03  3.53032E+03
 -2.76796E+03 -5.34863E+03  1.49834E+03 -1.41129E+03  2.09495E+03 -5.34963E+03  3.69682E+03 -3.20603E+03
  6.78016E+03  4.80411E+02  5.55542E+03 -1.57451E+02  4.03355E+03  7.13878E+03 -1.87904E+03  2.73233E+03
 -2.44335E+03  4.70462E+03 -4.69954E+03  1.05455E+03 -2.33201E+03 -2.94234E+03  2.78326E+03 -1.00658E+03
 -8.14416E+01 -3.81321E+02 -1.10028E+03  7.82210E+02 -7.85693E+03 -5.29588E+01 -5.73840E+03  9.26848E+02
  7.90774E+01 -4.23320E+03 -1.58498E+03 -1.12942E+03 -1.35195E+03 -3.95184E+03  1.33281E+03  1.77140E+03
  1.83327E+03  1.69909E+03 -2.58422E+03  3.21348E+03 -9.70132E+02  2.07771E+03  9.40006E+01  2.61673E+03
 -6.87769E+03 -2.04698E+03 -5.68233E+03 -2.79338E+03  2.89335E+03 -1.03354E+03  1.06007E+03 -4.16585E+03
  1.54519E+03  1.75290E+03  2.72959E+03 -2.15122E+03 -6.30395E+02  9.91665E+02 -1.46858E+03 -7.23499E+02
  9.11280E+01  2.48706E+03  4.77710E+03  3.83451E+03 -2.36626E+03  1.85752E+03  4.46079E+03  8.70208E+02
 -4.36490E+03  1.30868E+03 -3.30473E+02  6.51491E+03 -5.29301E+03  1.16063E+03 -2.74635E+03  4.23576E+03
  1.27439E+03 -2.36326E+03  1.13728E+03 -2.54208E+03 -2.29321E+03  1.76265E+03  1.41434E+03 -1.36997E+03
  2.88332E+03  2.95199E+03 -2.91777E+02  1.71804E+03  8.21149E+02  1.71932E+03  2.08078E+03 -5.64767E+02
 -1.96461E+03 -1.19541E+03  4.51772E+03 -2.94420E+03  3.49723E+02 -7.58638E+02 -1.00186E+03  4.45753E+02
  1.58123E+03 -3.04655E+03  3.42749E+02 -1.06414E+03  3.36783E+03  5.27366E+02  1.11266E+03 -1.14478E+03
 -1.10020E+03 -7.38797E+02 -8.96551E+02  2.66765E+03 -1.71265E+03  7.64658E+03 -1.60189E+03  1.74328E+03
  2.40634E+03  2.53472E+03  2.43276E+03 -1.00909E+03 -8.00984E+03 -4.29190E+03 -3.30525E+03  8.68096E+01
  4.84388E+02 -6.34787E+02  2.53558E+03 -1.34286E+03 -9.66704E+02  5.06819E+02 -1.65209E+03 -2.10007E+02
 -3.52614E+03  7.39820E+02 -1.51843E+03  1.57286E+03 -2.35848E+03 -2.03017E+03 -2.03197E+03 -2.56181E+03
 -1.08917E+03  1.59247E+03  1.95911E+03  9.23161E+02  3.43281E+03  2.02849E+03  2.28280E+03 -2.65666E+02
  2.76769E+03 -2.84163E+03 -3.18278E+02 -5.88525E+02  2.32515E+03 -2.12348E+03  8.35640E+02  5.32631E+02
 -1.56690E+03 -1.98100E+03  4.39216E+03  1.96697E+03 -6.79150E+02 -1.37611E+03 -1.01933E+02  3.10066E+03
 -3.79715E+03 -2.97154E+03 -1.67284E+03  2.61491E+03 -1.31874E+03 -9.39492E+02  7.30219E+02  2.14341E+02
 -2.21301E+03 -2.31613E+03 -9.76077E+01 -5.37335E+02  2.73508E+03  7.40619E+03  8.14620E+00  1.90430E+03
 -2.12899E+03  4.67766E+03  2.55107E+03  2.54813E+03 -7.39037E+02  1.91648E+03 -2.51202E+03  2.66235E+03
 -6.74581E+02  1.79823E+03 -5.18672E+03  5.25805E+03 -2.08859E+03 -1.77152E+03 -2.83927E+03 -1.99692E+03
 -2.41102E+03  7.65612E+02  2.24256E+03 -1.60837E+03 -1.00267E+03 -4.76692E+03  1.26147E+03 -3.22325E+03
 -2.67005E+02 -1.85829E+03  2.09785E+03  4.33216E+03 -4.32525E+03  3.92998E+01  1.18402E+03  5.04473E+03
 -1.85033E+03 -9.93204E+02 -3.09636E+03  6.03808E+02  1.90994E+02 -1.67679E+03 -4.14540E+03  4.25872E+02
 -3.07301E+03 -1.19618E+03  6.26857E+02  1.93568E+03  3.86824E+02 -6.92437E+02  1.88955E+03 -1.97571E+03
  2.36401E+03  9.80795E+02  3.32029E+02 -1.33713E+03  8.54708E+02  2.76056E+03 -1.66007E+03  2.23341E+03
 -8.90715E+02 -2.21879E+03 -7.44602E+01  4.16981E+03 -1.85265E+03 -1.00544E+03 -3.47019E+02 -1.22089E+03
 -3.16501E+03  2.69281E+03  1.35894E+03 -2.46418E+03 -4.66863E+02 -3.10040E+03 -1.66838E+02  2.09935E+03
  6.47213E+02 -3.67293E+02 -1.53256E+03 -3.51183E+02  3.45259E+03 -9.79626E+02  2.84816E+03  5.90478E+02
  5.70059E+02  1.01904E+03  1.33698E+03 -7.35590E+02 -2.16544E+03  2.32303E+03 -4.01585E+03 -2.13790E+03
 -3.79946E+03 -1.11687E+03 -2.55750E+03  2.20120E+03 -2.83126E+03  1.57754E+03 -1.96476E+03 -8.24308E+02
 -2.68704E+03  4.53070E+02  7.19421E+02  2.99554E+03  1.04915E+03 -1.63407E+03  2.88713E+03  2.02548E+03
  1.39937E+03 -2.40103E+03 -3.09919E+02 -2.56030E+02  1.42837E+03  2.87513E+03 -5.62609E+03  1.29861E+03
  3.54119E+03 -2.36613E+03 -1.29722E+02  8.85125E+02 -5.14633E+02 -1.69488E+03  3.24510E+01  5.58569E+02
 -2.22448E+03  2.76585E+03 -3.79639E+03 -6.52086E+02  3.31859E+03 -9.75788E+02  2.64041E+03  6.82959E-02
  2.45704E+03  1.61779E+03 -1.64000E+03 -4.26413E+03  1.11861E+03  1.65668E+03 -1.11231E+03 -2.94560E+03
