 $NMID ID='MM_0lb_SNR50_11hz_g50_96.RAW', FMTDAT='(8E13.5)'
 TRAMP=1., VOLUME=1. $END
  3.06089E+05  4.39794E+03  3.41023E+05  2.47514E+05  7.82709E+04  3.33462E+05 -1.35408E+05  2.48872E+05
 -1.90900E+05  8.51802E+04 -1.14556E+05 -3.10614E+04 -1.46992E+03 -4.74983E+04  5.54630E+04  8.97501E+02
  4.21856E+04  5.21974E+04 -1.61481E+04  7.48842E+04 -5.81078E+04  6.52451E+04 -8.36678E+04  3.38565E+04
 -8.73235E+04 -1.57485E+04 -5.53075E+04 -5.15062E+04 -1.43479E+04 -7.09220E+04  2.91426E+04 -4.60960E+04
  4.09639E+04  4.51490E+03  1.74467E+04  4.80561E+04 -3.11162E+04  4.53155E+04 -6.75708E+04  4.68667E+03
 -5.30069E+04 -5.59905E+04 -8.24974E+03 -7.80046E+04  3.53363E+04 -5.46904E+04  4.86923E+04 -1.83622E+04
  4.85365E+04  1.40720E+04  3.26802E+04  2.16932E+04  1.68026E+04  4.04393E+04 -3.16906E+03  2.84797E+04
 -2.39407E+04  1.63531E+04 -2.50627E+04 -5.91862E+03  5.77464E+03 -5.35797E+03  1.92805E+04  9.57945E+03
  6.80491E+03  3.60506E+04 -3.13072E+04  3.46705E+04 -6.44239E+04 -4.79596E+02 -5.63624E+04 -4.58647E+04
 -1.09807E+04 -6.06435E+04  4.06652E+04 -4.39830E+04  6.44946E+04 -1.47579E+01  3.46734E+04  3.13252E+04
 -1.15897E+04  3.87940E+04 -3.17753E+04  2.26795E+04 -3.40578E+04 -6.91879E+03 -1.68006E+04 -8.85313E+03
 -1.21273E+04 -1.39213E+04 -2.72493E+03 -1.78927E+04  8.92505E+03 -2.45233E+04  2.30531E+04 -1.71898E+04
  1.16135E+04  6.52380E+03 -1.13904E+04  1.34996E+04 -2.21884E+04 -5.62009E+03 -1.09317E+04 -4.03059E+04
  2.67607E+04 -4.68289E+04  4.89790E+04 -2.29945E+04  4.75673E+04  1.81684E+04  2.03705E+04  3.92672E+04
 -1.69899E+04  3.08648E+04 -2.88127E+04  8.60043E+03 -1.36620E+04 -2.99186E+04  2.03092E+04 -3.55781E+04
  4.45156E+04 -1.42854E+04  3.90229E+04  2.42589E+04  1.72496E+04  5.17318E+04 -7.80579E+03  5.01163E+04
 -3.25940E+04  3.55990E+04 -4.20734E+04  5.64504E+03 -4.71265E+04 -2.06615E+04 -2.28104E+04 -3.78551E+04
  2.49850E+03 -4.18896E+04  3.36212E+04 -1.58668E+04  3.26887E+04  3.62455E+03 -7.80334E+02  2.08756E+04
 -1.55513E+04  7.73936E+03 -1.18077E+04 -1.48521E+04  2.10127E+03 -9.98406E+03  1.81243E+04  3.52352E+03
  1.27266E+04  2.17370E+04 -3.56656E+03  2.59235E+04 -2.27212E+04  1.56106E+04 -3.03583E+04 -5.52522E+03
 -2.23155E+04 -2.25948E+04 -6.75383E+03 -2.93214E+04  4.85127E+03 -2.23253E+04  1.51498E+04 -3.00260E+04
  2.54278E+04 -1.21549E+04  3.14494E+04  1.09497E+04  2.51153E+04  2.40783E+04 -9.36700E+02  3.74967E+04
 -2.10166E+04  3.48724E+04 -3.55121E+04  7.38322E+03 -2.10464E+04 -9.58889E+03 -8.29305E+03 -1.60593E+04
  1.98130E+03  8.65836E+02 -8.11906E+03  1.24020E+04 -1.20387E+04  3.40601E+03 -1.74018E+04 -1.23049E+04
 -1.22952E+04 -2.15916E+04  2.99948E+03 -2.62016E+04  1.97131E+04 -2.03972E+04  2.21259E+04 -2.05235E+03
  1.56819E+04  1.63058E+04  1.32687E+03  2.21953E+04 -1.65553E+04  1.50358E+04 -2.40386E+04 -6.81379E+03
 -1.74977E+04 -1.76825E+04 -3.75759E+03 -2.36674E+04  1.08677E+04 -2.47947E+04  2.52049E+04 -1.06519E+04
  2.15038E+04  4.33029E+03  1.45265E+04  1.99004E+03  1.20492E+04  2.31117E+03  1.03803E+04  1.10058E+03
  1.72325E+04  1.28101E+03  2.26092E+04  1.99685E+04  1.78566E+04  3.76016E+04 -1.74996E+03  3.57946E+04
 -2.87875E+04  3.26407E+04 -3.88372E+04  1.95927E+04 -4.14384E+04 -2.20550E+03 -2.73093E+04 -2.16757E+04
 -1.80841E+04 -3.12486E+04  1.17068E+04 -2.61690E+04  2.21893E+04 -1.72176E+04  2.50145E+04  1.00307E+04
  8.85383E+03  1.33942E+04 -1.15973E+04  1.37669E+04 -9.20954E+03  2.10395E+03 -1.69017E+04 -1.32688E+04
 -3.06618E+03 -1.05042E+04  1.57175E+04 -1.89152E+04  1.41321E+04 -4.90786E+03  9.43612E+02  1.50737E+04
 -1.18419E+04  3.00893E+03 -7.01213E+03 -8.51211E+03 -2.59640E+03 -1.44147E+04  1.00634E+04 -2.23219E+04
  1.84000E+04 -1.35282E+04  2.67637E+04  4.29055E+03  1.97013E+04  1.98971E+04  2.68400E+03  1.87554E+04
 -6.78747E+03  2.62672E+04 -1.77210E+04  1.92291E+04 -2.25991E+04  3.34012E+03 -1.26169E+04 -2.10634E+03
 -3.30912E+03 -6.95632E+03 -4.32615E+03 -1.80147E+03 -7.36345E+03  2.74952E+03 -5.41473E+03  7.39630E+02
 -7.11075E+03  2.54827E+02 -1.70650E+04 -7.73380E+03 -7.95553E+03 -1.52169E+04  6.82571E+03 -2.10162E+04
  1.34335E+04 -7.41334E+03  9.04667E+03  6.61173E+03  7.78050E+02  4.21685E+03 -1.02983E+04 -3.33267E+03
  1.15386E+03 -7.33677E+03 -7.82218E+03 -1.57842E+04  1.06730E+04 -7.52123E+03  1.77787E+04 -7.40904E+03
  1.98562E+04  1.13656E+03  1.47837E+04  1.44754E+04  5.31906E+03  1.55004E+04 -6.74862E+02  1.19843E+04
 -1.00846E+04  4.09716E+03 -9.69733E+03 -1.43171E+03  1.89037E+03 -5.95240E+03  1.08420E+04 -1.44219E+03
  3.80549E+03  1.05589E+04  4.19110E+02  1.37520E+04 -7.07875E+03  1.07809E+04 -9.72970E+03  1.23531E+03
 -9.22410E+03 -6.11209E+03 -5.20134E+03 -9.27762E+03  7.40099E+03 -6.95372E+03  8.19141E+03  5.52778E+03
  1.45149E+03  6.27084E+03 -2.61924E+03  6.82440E+03 -8.16623E+03  7.44436E+03 -1.25060E+04 -8.17063E+03
 -2.31861E+03 -1.50613E+04  3.15225E+03 -1.43271E+04  1.57977E+04 -1.26640E+04  1.76760E+04  3.18058E+03
  1.17921E+04  1.20167E+04  4.55264E+03  1.73172E+04 -1.65527E+04  8.40158E+03 -9.26314E+03  8.74188E+02
 -8.19672E+03 -8.89897E+03 -4.72884E+03 -1.03055E+04  7.49697E+03 -8.71171E+03  5.47731E+03 -4.05884E+03
  1.63955E+03 -2.03897E+02 -2.61950E+03 -1.64453E+03  3.74111E+03  1.56321E+03  8.12241E+03 -1.05265E+04
  3.64874E+03 -2.19216E+03  1.79953E+04 -9.01710E+02  1.43239E+04  1.15481E+04  1.03513E+04  1.47520E+04
  2.91804E+03  2.08574E+04 -1.77672E+04  2.20281E+04 -2.32398E+04  3.02686E+03 -1.83235E+04 -2.61255E+03
 -9.40037E+03 -1.40281E+04 -1.95724E+03 -1.35741E+04  1.42144E+03 -1.43971E+03  5.27891E+03 -8.38050E+03
  3.30015E+02 -2.49509E+03  1.96074E+03 -3.84869E+03  7.07053E+03  7.33358E+02  5.47470E+03 -2.57692E+03
  1.15474E+04  4.98460E+03  7.02603E+03  8.15321E+03 -5.32497E+03  1.39973E+04 -1.19264E+04  7.72931E+03
 -1.12483E+04 -3.35153E+03 -9.43729E+03 -1.03449E+04  2.26309E+02 -1.30656E+04  3.48773E+03 -1.25603E+04
  1.74048E+04 -6.75823E+03  1.87549E+04 -2.59818E+03  1.14039E+04  1.16783E+04  6.63897E+03  1.36818E+04
 -9.40883E+03  1.20498E+04 -8.54012E+03  4.98247E+03 -5.24736E+03 -1.77085E+03 -3.60229E+03 -1.45317E+02
 -4.91183E+03 -4.46410E+03 -2.43196E+03  2.07981E+03 -4.47403E+03  4.08189E+03 -7.94813E+03 -3.92913E+03
 -1.03628E+04 -4.88697E+03 -1.04498E+02 -1.63049E+04  1.00923E+04 -1.13992E+04  6.15095E+03 -5.98539E+03
  1.01944E+04  1.96188E+03  7.74701E+03  4.08153E+03 -3.46617E+03  1.39059E+04 -6.73989E+03  7.30757E+03
 -6.28142E+03 -6.14239E+03 -1.02238E+04 -4.03557E+03  3.41246E+03 -9.63647E+03  5.68593E+03 -1.15182E+04
  5.24277E+03 -1.36196E+03  6.61412E+03  5.47889E+03  2.40644E+03  2.54482E+03  2.39142E+03 -2.94384E+02
 -2.20807E+03 -1.12680E+03  3.20290E+03  1.64461E+03 -2.70174E+03  3.02825E+03 -1.57267E+03  7.51606E+03
  1.12201E+03  1.29642E+04 -1.02769E+04  1.12062E+04 -1.26382E+04  4.21692E+03 -1.53688E+04 -7.63510E+03
 -4.88727E+03 -1.36192E+04  5.15800E+03 -1.57553E+04  7.20649E+03 -8.41441E+03  1.13585E+04 -4.10116E+03
  7.07449E+03  1.04459E+04 -4.37217E+02  4.80151E+03 -4.19668E+03  7.30181E+03 -6.76144E+03  2.19782E+03
  2.07059E+01 -6.04312E+03  4.49099E+03 -5.08658E+03  7.57521E+03 -3.77273E+03  4.37490E+03  7.13201E+02
  2.90353E+03  4.52432E+03 -2.56115E+03  6.19261E+03  1.95633E+03  3.57926E+03  6.86242E+03 -2.47326E+02
 -5.92453E+02 -7.16752E+02  7.96509E+03  1.24230E+03  5.39111E+03  5.87278E+03  5.97560E+03  7.01820E+03
 -7.29512E+03  2.63705E+03 -8.80404E+02  3.83439E+03 -8.72559E+03 -1.29953E+03  4.20573E+03 -1.80538E+03
  2.78537E+03 -8.33139E+03  6.75208E+03 -1.52731E+03 -2.10503E+03  2.13851E+03  8.68150E+03  3.89150E+03
 -7.60893E+03  4.35511E+03 -4.34444E+03 -3.02433E+03 -1.68729E+03 -5.38455E+03  5.94744E+03 -1.28570E+04
  4.11473E+03 -3.94063E+03  7.61899E+02  2.97813E+03  2.87792E+03 -2.26429E+02  3.66748E+02  2.72430E+03
 -5.90280E+03 -3.82855E+02 -3.12285E+03 -4.18023E+03 -2.17500E+03 -4.35483E+03  4.57877E+03 -5.49688E+03
  5.83778E+03 -1.42918E+03  6.11225E+03  1.15876E+03  6.72357E+03  8.41952E+03  1.21619E+03  5.87527E+03
 -5.89605E+03 -3.70435E+03 -6.07448E+03  6.36843E+03 -1.66645E+03 -6.22222E+03  2.22219E+03 -1.02901E+04
  7.48929E+03 -2.23002E+03  5.63020E+03  2.37459E+03  1.36369E+03 -9.34193E+02  1.80970E+03 -1.85405E+03
 -2.22446E+02 -4.28023E+02  1.74273E+03 -1.27331E+02 -3.48179E+03  3.04637E+03 -1.79130E+03  1.81752E+03
 -3.07074E+03  7.45499E+03 -3.57502E+03 -2.30766E+03 -9.26467E+03  1.59096E+03 -1.13545E+04 -6.85346E+03
 -6.64784E+02 -9.05274E+03 -7.20051E+03 -7.20565E+03  5.34893E+03 -6.07981E+03  1.19770E+04 -1.76650E+03
  7.55199E+03  7.95096E+02  5.30438E+03  8.18878E+03 -2.50050E+03  1.02192E+04 -2.44511E+03  4.96751E+03
 -1.85996E+03  2.03815E+03 -2.03455E+03  4.36626E+03  3.45567E+03 -6.24013E+03 -6.50019E+02  3.69960E+03
 -3.09410E+03  1.40000E+03 -2.41519E+03 -1.22643E+03 -2.00568E+03  9.66506E+02  1.27527E+03  3.76655E+03
  1.24783E+03 -4.50157E+03  6.92537E+03  1.33823E+03  5.25251E+03  5.72385E+03  4.32478E+03  4.03972E+03
  1.54948E+03  4.70598E+03 -4.68054E+03  3.58212E+03 -5.61167E+03  3.03257E+03 -3.71277E+03 -2.75846E+03
 -2.79222E+02 -6.77901E+03  5.12424E+03 -4.50958E+03  1.54343E+03 -2.56786E+03  5.00098E+03 -4.30514E+03
  1.58247E+03  7.91573E+03  6.35075E+02 -3.63595E+02  2.69360E+03  8.76071E+01  1.69704E+03 -4.24248E+03
  3.44109E+03  4.74624E+03  3.54954E+02 -8.37400E+02  3.21553E+03  1.07741E+03 -1.44008E+02  6.35012E+02
 -4.42221E+03  6.98723E+03 -6.70401E+03  5.46658E+03 -1.66187E+03 -7.69734E+03  1.30084E+03 -4.97898E+03
 -8.38632E+02 -3.66084E+03  9.80606E+03 -4.53634E+03  8.37634E+03 -4.86020E+03 -1.61057E+02  2.99132E+03
  4.09166E+03  2.93159E+03  1.32805E+03  9.98019E+03  1.01849E+03 -1.66446E+03 -1.64181E+03 -3.95714E+03
  2.53219E+03 -1.62169E+03 -9.59814E+02  6.03665E+02 -5.63986E+03 -5.16804E+02 -4.79251E+03 -7.49471E+02
 -9.82980E+03  3.45699E+02 -5.36126E+03 -1.78487E+03  3.03989E+03 -3.50392E+03  4.65007E+03 -8.24908E+01
  4.54405E+03  5.94257E+02  4.67556E+03  7.14481E+03  3.95352E+03  9.15717E+03 -2.20455E+03  6.14645E+02
