 $NMID ID='MM_0lb_SNR50_11hz_g55_21.RAW', FMTDAT='(8E13.5)'
 TRAMP=1., VOLUME=1. $END
  3.10147E+05 -3.02419E+03  3.38495E+05  2.47390E+05  8.25083E+04  3.38559E+05 -1.32521E+05  2.48347E+05
 -1.93890E+05  8.54748E+04 -1.10696E+05 -3.01097E+04 -2.29450E+03 -5.34002E+04  4.67706E+04  2.17140E+03
  3.40267E+04  5.34143E+04 -1.48685E+04  7.87242E+04 -6.42007E+04  6.29564E+04 -8.23109E+04  3.18302E+04
 -8.36479E+04 -1.72580E+04 -5.85810E+04 -5.08676E+04 -1.66895E+04 -7.15935E+04  2.24742E+04 -4.82255E+04
  3.84797E+04  9.36823E+03  1.46713E+04  4.72849E+04 -3.29790E+04  5.00574E+04 -6.72180E+04 -5.50339E+02
 -5.52984E+04 -5.54497E+04 -5.44971E+03 -8.04045E+04  3.62837E+04 -6.10360E+04  4.86787E+04 -1.73481E+04
  4.57795E+04  1.52218E+04  2.61696E+04  2.59755E+04  1.31206E+04  3.05614E+04 -5.76268E+03  2.67491E+04
 -2.27026E+04  1.01580E+04 -1.97950E+04 -3.50709E+03  1.92166E+03 -1.06952E+04  2.19593E+04  1.11647E+04
  1.14587E+04  3.77437E+04 -3.04064E+04  3.30956E+04 -6.52182E+04  1.72497E+03 -5.61658E+04 -4.16169E+04
 -9.59178E+03 -6.42336E+04  4.17021E+04 -5.02499E+04  6.22583E+04 -5.87104E+02  2.74599E+04  3.09682E+04
 -6.48861E+03  3.84054E+04 -3.02480E+04  1.76074E+04 -3.19375E+04 -4.93599E+03 -1.62564E+04 -9.67960E+03
 -1.40440E+04 -1.52469E+04  4.31740E+03 -1.70677E+04  3.67691E+03 -2.53142E+04  1.19316E+04 -1.45086E+04
  1.36607E+04  2.51726E+03 -1.03707E+04  8.97339E+03 -2.35473E+04 -7.22705E+03 -6.88685E+03 -3.48704E+04
  2.34140E+04 -4.63790E+04  4.72749E+04 -2.42352E+04  4.83352E+04  2.41006E+04  9.15235E+03  4.18281E+04
 -1.42257E+04  2.95579E+04 -2.33914E+04  4.46932E+03 -1.31979E+04 -2.75068E+04  2.06206E+04 -3.73019E+04
  3.96945E+04 -8.71665E+03  3.90802E+04  2.36944E+04  1.76541E+04  4.43518E+04 -8.81832E+03  4.97794E+04
 -3.68714E+04  3.92837E+04 -4.35870E+04  1.02246E+04 -4.90394E+04 -1.37772E+04 -2.78269E+04 -4.38530E+04
  4.24493E+03 -3.66132E+04  2.79018E+04 -1.39489E+04  3.01829E+04  9.06515E+03 -9.50177E+02  2.06004E+04
 -1.08151E+04  1.03057E+04 -1.05836E+03 -1.37654E+04  1.58665E+03 -1.20180E+04  1.33129E+04  6.07993E+03
  1.74881E+04  2.30550E+04 -4.91405E+03  2.85193E+04 -2.41898E+04  1.63134E+04 -2.95096E+04 -4.42700E+03
 -2.71013E+04 -1.59592E+04 -1.53859E+04 -1.67732E+04  1.75496E+03 -2.45058E+04  1.92845E+04 -2.11240E+04
  3.24205E+04 -1.96357E+04  3.67091E+04  8.77598E+03  2.26470E+04  2.90979E+04  5.22952E+03  4.22616E+04
 -1.99491E+04  3.40606E+04 -3.19859E+04  8.08670E+03 -2.21026E+04 -1.01534E+04 -2.64303E+03 -1.37884E+04
 -1.12530E+03  1.34934E+02 -2.60411E+03  6.68533E+03 -2.16003E+04  3.84355E+03 -2.06788E+04 -1.06450E+04
 -1.30271E+04 -2.20891E+04  3.07708E+03 -2.81665E+04  1.96659E+04 -2.02113E+04  1.78842E+04 -2.39803E+02
  1.55088E+04  1.71864E+04  2.55424E+03  1.93325E+04 -1.84759E+04  8.39228E+03 -2.36602E+04 -6.46371E+03
 -1.51279E+04 -1.80501E+04 -2.06292E+02 -2.61186E+04  1.59270E+04 -1.48902E+04  2.26099E+04 -1.21674E+04
  1.95783E+04  1.21574E+03  1.21820E+04  8.42044E+03  7.03446E+03  4.37204E+03  1.07517E+04 -3.11373E+03
  2.40309E+04  4.91283E+03  2.35800E+04  1.79658E+04  1.26377E+04  3.67329E+04  4.34532E+02  4.09498E+04
 -2.47129E+04  3.43497E+04 -3.63098E+04  2.39699E+04 -4.72802E+04  9.56959E+02 -3.40611E+04 -2.17272E+04
 -1.50070E+04 -3.77169E+04  1.19223E+04 -3.38560E+04  2.78138E+04 -1.59779E+04  1.98873E+04  5.41081E+03
  4.15194E+03  2.06020E+04 -1.30749E+04  1.44412E+04 -1.73563E+04  3.58666E+03 -1.64624E+04 -1.49580E+04
 -9.46585E+02 -1.67848E+04  1.13393E+04 -1.33971E+04  7.03619E+03 -1.64846E+03 -2.12402E+03  6.23557E+03
 -7.58853E+03  6.75408E+03 -1.10999E+04 -8.80017E+03 -4.70616E+03 -1.47411E+04  1.18025E+04 -2.02143E+04
  1.59626E+04 -1.22920E+04  2.29276E+04  5.25565E+03  2.61975E+04  2.01372E+04  1.14853E+04  2.97938E+04
 -6.02272E+03  2.63964E+04 -2.19708E+04  1.95595E+04 -2.46194E+04 -2.58820E+03 -1.46442E+04 -5.27362E+03
  9.84517E+02 -5.15977E+03 -3.46220E+03  1.32351E+03 -6.46714E+03  1.23030E+03 -1.28450E+04  4.48294E+03
 -4.79701E+03 -1.18799E+03 -1.49614E+04 -1.06524E+04 -5.05745E+03 -1.78828E+04  7.82198E+03 -2.01884E+04
  1.22523E+04 -1.50910E+03  9.77958E+03  3.01244E+03  2.14732E+03  9.05734E+03 -4.76201E+03  3.43711E+03
 -1.06806E+04 -1.03028E+04 -6.23615E+03 -1.22091E+04  6.10189E+03 -1.39824E+04  1.44741E+04 -6.44565E+03
  1.92819E+04  7.10981E+03  1.86953E+04  1.28840E+04  6.95236E+02  1.83114E+04 -1.15229E+04  1.37343E+04
 -1.19206E+04  1.27817E+03 -9.50912E+03 -1.82241E+03 -8.28304E+02 -2.36131E+03  1.87849E+03  2.37459E+03
  5.83715E+03  7.83058E+03  1.85882E+03  1.06063E+04 -1.22707E+04  1.37334E+04 -2.00908E+04  3.49347E+03
 -9.71571E+03 -9.59150E+03 -3.59527E+03 -7.59113E+03  5.55689E+03 -3.15976E+03  9.06384E+03  1.52538E+03
  5.83663E+02  3.32863E+03 -5.70860E+03  1.33737E+04 -1.15062E+04  8.71117E+03 -1.03287E+04  8.06937E+02
 -1.01261E+04 -2.06067E+04  4.77668E+03 -1.88132E+04  1.76825E+04 -1.31573E+04  1.48848E+04 -2.38194E+01
  9.60306E+03  8.93437E+03  2.81455E+03  1.65313E+04 -1.09320E+04  6.94877E+03 -1.10590E+04 -8.47349E+02
 -5.70442E+03 -1.38980E+04  1.19748E+03 -1.33345E+04  8.07601E+03 -1.29306E+04  7.61591E+03  2.41681E+03
  2.68234E+03 -1.14100E+03  6.48927E+03  7.78290E+02  3.09071E+03 -4.91027E+03  1.41202E+03 -3.26497E+03
  7.92741E+03 -6.59973E+02  1.55476E+04  2.17072E+03  9.67722E+03  8.06350E+03  8.28045E+03  2.00079E+04
 -3.15198E+03  2.25840E+04 -1.66236E+04  1.46142E+04 -2.45224E+04  2.31987E+03 -1.66700E+04 -1.25987E+04
 -1.29789E+04 -1.84105E+04 -1.34895E+03 -1.32643E+04  4.66005E+03 -8.27785E+03  3.93255E+03 -4.98607E+03
  4.61018E+03  4.80361E+03  1.86375E+03 -1.08998E+03  6.04215E+03 -8.90062E+03  7.00245E+03 -7.07309E+03
  5.12650E+03  3.63258E+03  5.29809E+03  7.99051E+03 -5.43038E+03  1.30088E+04 -1.11810E+04  9.51750E+03
 -8.20810E+03 -3.80081E+03 -1.14843E+04 -1.01765E+04  1.28756E+02 -9.70759E+03  1.06018E+04 -1.04491E+04
  1.18794E+04 -1.16034E+04  1.27965E+04  3.32923E+03  1.44252E+04  7.99868E+03  6.18541E+03  1.42466E+04
 -4.39982E+03  1.62784E+04 -9.08671E+03  6.66210E+03 -3.09755E+03 -1.39771E+03 -3.98291E+03 -4.57081E+03
  2.49060E+01  3.00050E+03 -2.26945E+03  8.22957E+02 -7.47952E+03  2.67531E+03 -5.28897E+03  2.78491E+03
 -6.31096E+03 -1.04258E+04  1.87642E+03 -1.40452E+04  9.94177E+03 -1.11596E+04  1.66177E+04 -1.21853E+03
  1.34776E+04  8.18254E+03 -1.09928E+03  1.28058E+04 -4.39618E+03  5.77491E+03 -6.00468E+03  1.37837E+03
 -1.28799E+04  3.75090E+03 -6.14140E+03 -5.75274E+03 -5.07142E+03 -9.18980E+03  6.56816E+03 -7.51431E+03
  1.29383E+04 -5.51284E+03  5.17478E+03 -2.95244E+03 -1.22323E+02  2.45821E+03  4.17000E+03  5.96466E+03
  5.44885E+03 -3.19767E+02 -1.76375E+03  4.55451E+03  6.74277E+03  2.36210E+03  3.52128E+03  6.44198E+03
 -6.51871E+03  1.11863E+04 -7.14300E+03  7.85174E+03 -1.10881E+04 -6.99798E+01 -9.48684E+03 -1.11571E+04
 -6.03382E+03 -7.16764E+03  6.18360E+03 -1.45234E+04  7.93711E+03 -3.60613E+03  9.46339E+03 -1.28466E+03
  1.04692E+04  5.90041E+03 -4.00102E+02  2.72513E+03 -7.72653E+03  2.50623E+03 -6.21971E+03  2.08917E+03
 -9.60853E+03 -2.42413E+03  2.36251E+03 -2.28166E+03  7.49946E+03 -6.19721E+03  1.14589E+04  3.60990E+03
  6.00757E+03  2.66834E+03  2.48311E+03 -5.58776E+03 -3.70572E+03  4.03073E+03 -1.64642E+03  1.75727E+03
  3.14980E+03  2.42556E+03  5.41123E+03  3.80232E+03 -1.51659E+03  6.32142E+03 -1.50890E+03  1.32477E+04
 -1.59620E+04  1.14366E+04 -9.95554E+03  2.77382E+03 -3.26807E+03 -1.08172E+03 -5.09713E+03 -4.17462E+03
  2.64305E+03 -4.70729E+03  1.07583E+04 -1.20168E+03  1.36758E+02  6.48643E+03  3.09085E+02  1.06655E+03
 -7.38159E+03 -5.98460E+02 -9.27678E+03  1.48516E+02 -4.02138E+03 -8.87889E+03  5.48817E+03 -7.45124E+03
  2.50623E+03 -1.00216E+04  1.96537E+03 -1.78579E+03  4.27805E+03  4.68030E+03  2.70956E+03 -2.78590E+02
  1.10465E+03  8.57398E+03 -6.91659E+03  7.60248E+02  2.33834E+03 -9.84832E+03  7.56201E+03 -5.56940E+03
  4.67436E+03  5.95216E+03  8.76184E+03  3.90120E+03  4.56504E+03  7.03037E+03 -1.84811E+03  4.01666E+03
 -6.69625E+03  9.80674E+03 -5.86772E+03 -2.57679E+02 -4.66243E+03 -5.80824E+03  1.72416E+02 -7.45673E+03
  1.29724E+03 -7.79327E+03  3.88875E+03  5.19573E+03  7.37978E+02  6.38546E+03 -2.95695E+03  2.30549E+03
 -3.68346E+03  3.41496E+03 -3.47742E+03  2.07189E+03 -3.59314E+03  1.53659E+03  5.98174E+02  3.56965E+03
  1.23821E+03  1.85142E+03 -2.99202E+03  1.72030E+03 -1.21089E+04 -5.37743E+03 -9.54445E+03 -1.40307E+03
 -1.71942E+03 -7.63366E+02  5.97095E+03 -6.90782E+03  9.27202E+03 -7.72716E+03  1.22481E+04  2.72914E+03
  8.98097E+03  1.78945E+03  3.78195E+03  7.25634E+03 -9.36219E+03  5.77718E+03 -7.72009E+03  3.89945E+03
 -2.83516E+03 -1.06935E+03 -3.35631E+02 -5.87522E+02  3.68365E+02 -3.06005E+03 -2.22992E+03 -3.21333E+03
  2.07207E+02 -9.29073E+02  9.70818E+02  3.82522E+03 -3.97441E+03 -1.12557E+03 -7.62742E+02  5.69996E+02
  6.32143E+03 -2.05882E+03  2.89200E+03 -2.71716E+03  3.77630E+03  6.26590E+03  9.67705E+02  6.05998E+03
 -3.98355E+03  9.47137E+03 -9.04311E+03  4.25678E+03 -4.23843E+03  2.04233E+03 -1.87497E+03 -9.84757E+03
 -2.56661E+03 -9.26974E+03  2.50766E+03 -6.91654E+03 -7.89472E+02 -2.82564E+03  5.66276E+03  2.13503E+03
  1.80585E+03 -2.81497E+03  9.33897E+02  3.42461E+03 -1.69750E+03 -9.71701E+02 -2.40780E+03 -7.62698E+03
  6.05609E+03 -1.59765E+03  7.77132E+03 -1.17229E+03  1.54821E+03  5.80086E+03  2.93709E+03  2.27458E+03
  1.29244E+03  2.26457E+03 -3.81043E+03 -1.40174E+03 -2.85575E+02 -4.02022E+03  9.49098E+02 -7.27669E+03
 -2.47867E+02  1.89875E+03 -1.50221E+03 -2.85599E+03  7.03926E+03  3.51533E+03  1.78734E+03 -2.75123E+03
  2.37138E+01  8.86151E+03  3.68171E+03  3.28246E+03 -7.03704E+03  2.49659E+03 -2.38852E+03 -2.53040E+03
  1.44806E+03  1.04161E+03  1.77786E+03 -5.12309E+02 -2.89586E+03  2.75019E+02 -7.71627E+03 -1.42500E+03
 -4.39492E+03 -2.87900E+03 -1.10203E+03  9.04343E+02  2.55614E+03 -5.92115E+03 -1.22286E+03 -3.93804E+02
  4.26450E+03  6.20141E+03 -1.86910E+03  4.70879E+03 -3.01315E+03  6.26064E+03 -6.16117E+02  5.19944E+02
