 $NMID ID='MM_0lb_SNR50_18hz_g50_71.RAW', FMTDAT='(8E13.5)'
 TRAMP=1., VOLUME=1. $END
  3.10442E+05 -3.06436E+03  3.40550E+05  2.46020E+05  8.30545E+04  3.34497E+05 -1.31648E+05  2.50825E+05
 -1.95088E+05  8.73925E+04 -1.10757E+05 -3.21052E+04  2.56452E+03 -4.75813E+04  5.30073E+04 -1.62347E+03
  3.62809E+04  5.55785E+04 -1.42892E+04  7.46711E+04 -5.91907E+04  6.14145E+04 -8.12422E+04  3.59729E+04
 -8.20149E+04 -8.87650E+03 -5.30751E+04 -4.53238E+04 -1.59793E+04 -6.40129E+04  2.38454E+04 -4.39391E+04
  4.33057E+04  4.54531E+03  1.34783E+04  4.90294E+04 -3.44638E+04  5.13382E+04 -6.52877E+04 -9.77563E+02
 -5.00865E+04 -5.42101E+04 -5.97890E+03 -7.35724E+04  2.66657E+04 -5.38480E+04  4.35957E+04 -1.40201E+04
  4.37140E+04  1.43977E+04  3.21910E+04  2.34516E+04  1.72989E+04  3.15465E+04 -2.07467E+03  2.74145E+04
 -2.17103E+04  1.26546E+04 -2.02971E+04 -4.19945E+03  5.09063E+03 -5.24564E+03  2.28949E+04  1.19731E+04
  1.25825E+04  3.68038E+04 -2.78893E+04  3.01687E+04 -6.29093E+04  3.71253E+03 -5.51175E+04 -4.49352E+04
 -1.19423E+04 -5.73574E+04  3.52459E+04 -5.06964E+04  5.78337E+04 -2.73106E+03  3.42292E+04  3.65247E+04
 -9.27231E+03  3.70042E+04 -3.20266E+04  1.19437E+04 -2.39588E+04 -4.00664E+03 -1.51717E+04 -7.38995E+03
 -6.82135E+03 -1.10341E+04  4.47852E+02 -1.70294E+04  3.63139E+03 -2.20191E+04  1.15742E+04 -9.77040E+03
  1.03641E+04  3.63779E+03 -1.00855E+04  1.45446E+04 -2.35732E+04 -7.45578E+03 -7.51660E+03 -3.21460E+04
  2.21589E+04 -3.97093E+04  4.51152E+04 -1.31839E+04  4.05864E+04  2.02140E+04  1.07626E+04  4.15857E+04
 -1.60845E+04  3.15743E+04 -2.28736E+04  1.64153E+03 -9.00323E+03 -2.26823E+04  2.07950E+04 -3.23885E+04
  3.94389E+04 -8.79467E+03  3.56039E+04  1.66703E+04  1.60601E+04  4.24224E+04 -1.03291E+04  4.30287E+04
 -2.93560E+04  3.14370E+04 -3.97083E+04  1.39416E+04 -3.37369E+04 -1.66446E+04 -2.38040E+04 -3.78872E+04
  7.19210E+03 -3.64623E+04  2.39123E+04 -1.44641E+04  2.58782E+04  1.14143E+04  6.30306E+03  1.94312E+04
 -1.44221E+04  1.04594E+04 -8.67875E+03 -5.64070E+03  2.89916E+03 -1.36064E+04  1.61315E+04  7.21147E+03
  8.44753E+03  1.99755E+04 -7.67971E+03  2.19799E+04 -2.41041E+04  9.24991E+03 -2.28331E+04 -6.42504E+03
 -1.79820E+04 -1.64884E+04 -6.92891E+03 -1.21331E+04  1.78903E+03 -1.54151E+04  1.39636E+04 -1.57296E+04
  2.21741E+04 -1.50436E+04  2.63199E+04  1.65464E+02  2.04436E+04  1.73397E+04  3.67340E+02  2.86161E+04
 -1.19991E+04  2.95177E+04 -2.46830E+04  1.06342E+04 -1.66402E+04 -1.06587E+04 -2.36192E+03 -1.32722E+04
  3.03038E+03 -5.42330E+03 -1.08756E+03  5.25719E+03 -1.50787E+04  5.50045E+03 -1.66646E+04 -2.86418E+03
 -7.39507E+03 -1.95261E+04  9.83070E+03 -2.03623E+04  1.50939E+04 -1.67778E+04  1.90476E+04 -6.78196E+02
  1.27057E+04  1.34451E+04  5.98972E+02  1.60718E+04 -1.02246E+04  7.47652E+03 -1.79735E+04 -5.06529E+03
 -1.31409E+04 -1.63671E+04 -6.19839E+03 -2.02289E+04  1.33302E+04 -1.61256E+04  1.71998E+04 -4.78951E+03
  1.28513E+04  1.68081E+03  1.17498E+04  4.37881E+03  3.34520E+03 -3.23593E+03  8.71707E+03 -1.72489E+03
  1.45029E+04 -7.76042E+02  1.87587E+04  8.62072E+03  1.13399E+04  2.43346E+04  1.20777E+03  2.92650E+04
 -1.98499E+04  2.32571E+04 -2.80963E+04  9.09568E+03 -2.88110E+04 -4.08124E+03 -2.25394E+04 -1.51142E+04
 -1.16425E+04 -2.69727E+04  6.56349E+03 -2.16207E+04  1.64947E+04 -1.11927E+04  1.60537E+04  5.48358E+03
  1.07245E+04  9.96531E+03 -5.63681E+03  8.33281E+03 -9.08496E+03  2.38968E+03 -1.20251E+04 -4.44334E+03
  4.56090E+02 -1.35605E+04  8.59014E+03 -1.12494E+04  6.16735E+03 -2.57917E+03  3.53994E+03  1.48945E+03
 -2.22483E+03 -5.81605E+03 -2.59624E+03 -7.71142E+03  1.35231E+03 -8.80750E+03  7.93481E+03 -9.54160E+03
  9.94909E+03 -2.44235E+03  1.39174E+04  4.53224E+03  1.42733E+04  8.12196E+03  6.88072E+03  1.72557E+04
  9.09332E+02  1.91293E+04 -8.62916E+03  9.77178E+03 -9.39974E+03  4.01295E+03 -9.92530E+03 -1.16701E+03
 -8.06282E+03 -5.21005E+03  5.20033E+02  6.09791E+03 -1.93746E+03  2.42440E+03 -4.68743E+03  7.73447E+02
 -7.92510E+03  1.60470E+03 -7.58161E+03 -5.08906E+03 -5.13524E+03 -1.01023E+04  3.24886E+03 -8.15883E+03
  1.00073E+04 -7.08591E+03  6.37787E+03  1.35127E+03 -2.22989E+02  5.63683E+03 -2.32639E+03  1.02699E+03
 -5.41525E+03 -7.97001E+03  3.93516E+03 -4.17131E+03  6.47050E+03 -5.03679E+03  1.20978E+04 -4.19994E+03
  1.16881E+04  8.05951E+00  7.95015E+03  6.62539E+03  3.65619E+03  6.76750E+03 -6.89674E+03  8.28293E+03
 -8.53802E+03  5.64091E+03 -3.01743E+03 -2.44873E+03  2.67484E+03 -1.66224E+03  8.35177E+03 -2.46943E+03
  4.26629E+03  4.80401E+03  1.46445E+03  1.05623E+04 -7.06191E+03  6.67571E+03 -6.24083E+03  1.02345E+03
 -7.43347E+03 -5.76383E+03  8.97849E+02 -6.38086E+03  5.58988E+03 -7.38490E+02  3.67433E+03  2.00193E+03
 -3.56598E+02  1.09823E+03 -7.36741E+03  7.54036E+03 -1.75776E+03  1.57228E+03 -8.71540E+03  1.03515E+03
 -4.60066E+03 -5.63844E+03 -1.51117E+02 -9.99135E+03  5.25542E+03 -2.15323E+03  2.67832E+03 -1.04155E+03
  8.67272E+03  6.94667E+03  7.48247E+02  5.20117E+03 -8.53277E+03  4.72765E+03 -8.29501E+03 -2.97146E+02
 -8.87742E+03 -6.82264E+03 -4.16919E+03 -3.55718E+03  2.69739E+03 -6.11259E+03  4.05107E+02 -4.98902E+02
  2.93492E+03  2.50214E+03 -1.25558E+03  2.97998E+03 -2.28353E+03  1.50814E+03  3.90138E+03 -7.36641E+02
  2.00797E+03 -3.29435E+02  5.54609E+03  3.50050E+03  8.74990E+03  6.92970E+03  7.52798E+03  1.22825E+04
 -2.75275E+03  1.21227E+04 -9.21192E+03  6.86792E+03 -1.10566E+04  3.91919E+03 -1.05215E+04 -2.51595E+03
 -4.13723E+03 -1.02241E+04 -1.20316E+03 -7.15379E+03  2.82272E+03 -3.23109E+03  2.69326E+03 -3.86062E+03
  3.39149E+03 -2.04374E+03  8.66807E+02 -8.54377E+02  5.74444E+02 -6.02155E+03  2.86470E+03 -8.07314E+02
  3.99901E+03  5.02214E+03 -4.15344E+02  1.77700E+03 -1.69170E+03  1.24200E+03 -6.41712E+03  5.76816E+03
 -4.85799E+03 -1.34364E+03 -3.06156E+03 -5.69713E+03  3.43627E+02 -2.99069E+03  4.87035E+03 -4.85644E+03
 -1.22621E+03 -4.08790E+03  6.41279E+03  2.78263E+03  5.76040E+03  7.18939E+02 -1.68661E+03  8.89170E+03
 -2.79744E+03  8.63372E+03 -3.05685E+03 -2.08341E+03 -7.58017E+02 -2.35226E+03  4.56552E+02 -9.94662E+02
 -2.67942E+03 -1.12602E+03 -1.77380E+03  2.00782E+03 -1.95465E+03  3.88092E+03  2.82057E+03  2.09977E+03
  4.37529E+03  2.26732E+02  4.95700E+02 -9.54544E+03  4.19559E+03 -4.15775E+03  2.35333E+03  2.38368E+03
  7.59602E+03  4.09973E+03  1.42193E+03  6.06388E+03  1.51716E+03  4.98833E+03 -2.73054E+03  5.76584E+03
 -8.38819E+03 -1.72130E+03 -2.43165E+03 -2.23639E+03 -1.97288E+03 -5.98492E+03 -6.63872E+02 -1.75910E+03
  5.27000E+03  2.91905E+03 -2.25683E+03  3.38328E+03  2.22138E+03 -3.56699E+03 -4.65201E+02 -1.80507E+03
 -1.18212E+03 -6.69406E+02 -1.74163E+03  1.70700E+03  7.18755E+02  2.42816E+03 -2.78934E+03  3.49622E+03
  1.56343E+03  3.45563E+03 -1.08483E+03 -8.22331E+02 -6.35241E+03 -1.79188E+02 -6.61151E+03 -3.64307E+03
 -2.26981E+02 -3.02351E+03  2.60152E+03 -5.15267E+03  4.74843E+03 -5.61925E+03  6.67858E+03 -5.45635E+02
  3.32988E+03  2.75982E+03 -1.43242E+03  6.76983E+03 -4.79540E+03 -2.19190E+03 -5.15007E+02  3.16044E+03
 -1.91892E+03 -8.83337E+02  9.18488E+02 -1.86797E+03  6.34725E+03  8.48957E+02  3.07752E+03  2.58473E+03
  2.06831E+02 -1.74058E+03 -1.03312E+03  1.04561E+03 -8.46685E+01 -6.95442E+02  6.05128E+03  2.53447E+03
  2.12562E+03 -4.19438E+03  5.38839E+03  2.02816E+03  2.89638E+03  2.50029E+03 -5.96333E+02  2.02139E+03
  6.22593E+02 -1.54810E+03 -3.95216E+03 -1.78319E+03 -5.76332E+03 -2.55154E+02 -2.20446E+03 -5.40822E+03
  1.70763E+03  1.58204E+03  1.20090E+03  2.40091E+02 -1.50755E+03  1.35722E+03  6.08909E+02  1.77398E+03
  1.94169E+03 -1.41375E+03 -8.85315E+02  3.39722E+03 -2.99449E+02 -1.93416E+03  2.85624E+03 -4.70281E+03
 -1.81035E+03 -3.05727E+03  1.32603E+03 -2.46787E+03  8.48735E+02  1.16850E+03  8.04851E+02 -2.56903E+03
 -3.05824E+02  6.88961E+03 -2.23559E+03 -1.47503E+03  9.84908E+01 -9.35201E+02 -1.63017E+03 -2.73742E+02
 -3.28728E+03  1.28881E+03  5.65243E+03 -1.01170E+03  3.56055E+03  3.43670E+03  1.54743E+02  2.95906E+03
  2.03765E+03  1.89093E+03  4.44534E+02  3.78204E+03  3.63476E+02 -5.95456E+02  2.23738E+03 -8.70790E+02
  1.74773E+03 -4.98947E+03  9.96212E+02 -1.97771E+03  3.23829E+03  2.08871E+03  6.82280E+03  2.38155E+03
 -5.27041E+02  2.53914E+02 -1.70796E+02  3.53326E+03  2.54476E+03  2.13696E+03 -3.33074E+03 -1.34985E+03
  3.78966E+02  2.32996E+03  1.12959E+03  4.56534E+03  8.98095E+02 -2.47412E+03 -3.02619E+03  1.12455E+03
 -3.81890E+03 -5.46526E+03  3.00288E+03 -2.92122E+02  2.48939E+03 -2.44991E+03  2.68399E+03  4.28401E+03
  4.26285E+03 -3.80997E+03  1.74154E+03 -6.31302E+02 -1.73570E+03 -7.97124E+02 -3.40124E+03  7.59500E+02
  2.65429E+02 -1.01680E+03  2.04600E+03  2.51101E+03 -1.74183E+03 -7.10192E+02 -3.50338E+03  9.69475E+02
 -2.70069E+03 -1.48298E+03 -2.48395E+03  3.08534E+01  2.43460E+03 -2.33975E+03 -3.39688E+03  1.45014E+03
  1.51359E+02 -5.26389E+02 -5.82161E+02 -3.19712E+03 -1.15668E+03  1.61545E+03 -3.39763E+02  1.37896E+03
  1.59063E+03  7.69835E+02 -2.61258E+03  1.36068E+03  3.10236E+03  1.86125E+03 -1.41905E+03 -4.67957E+03
 -5.54187E+02 -2.79245E+02  2.35948E+03  2.31782E+03  3.54736E+03  2.58049E+03  4.20571E+03  1.73198E+03
  5.91667E+03 -2.49724E+03 -3.79540E+02 -1.19326E+03 -3.56880E+03 -5.45874E+02  4.28503E+03 -2.71690E+03
 -8.09521E+02 -9.93759E+02  2.74128E+03 -2.27215E+02  2.08588E+03  2.56924E+03 -5.00906E+02 -1.66212E+03
 -2.16022E+03  2.48887E+03  1.64385E+02  3.97738E+03 -3.57861E+03 -3.95401E+03  2.48718E+03 -6.56969E+03
  1.09053E+03 -2.27545E+03 -2.21529E+03  1.22103E+02 -1.44889E+03 -1.58998E+02  1.80164E+02  1.90093E+02
  1.15494E+03 -5.81546E+02  3.41733E+03 -1.34286E+03 -2.11997E+03  3.20880E+03 -9.44332E+00 -1.98428E+03
 -4.46100E+03  2.08003E+03 -6.74091E+02  3.80673E+02 -1.24767E+03 -1.22405E+03 -1.06029E+03 -5.17261E+03
  1.59293E+03  6.91663E+02  2.85975E+03  3.40644E+03 -1.62562E+03 -4.56383E+03  1.90585E+03 -2.98522E+03
  3.30466E+03  3.52214E+03 -1.31305E+02 -1.52930E+03 -1.63930E+03  1.46440E+02 -9.89452E+02 -8.48386E+02
