 $NMID ID='MM_0lb_SNR50_19hz_g50_72.RAW', FMTDAT='(8E13.5)'
 TRAMP=1., VOLUME=1. $END
  3.08835E+05 -2.62892E+03  3.36023E+05  2.50940E+05  8.40454E+04  3.35427E+05 -1.31356E+05  2.47341E+05
 -1.87590E+05  8.40422E+04 -1.04967E+05 -3.37851E+04  1.80609E+03 -4.90646E+04  5.23052E+04  1.38647E+03
  3.74015E+04  5.25867E+04 -1.80968E+04  7.54971E+04 -5.87574E+04  6.42784E+04 -8.02595E+04  3.06388E+04
 -8.11806E+04 -1.26607E+04 -5.43022E+04 -4.71993E+04 -1.68800E+04 -7.19544E+04  2.76883E+04 -5.03223E+04
  4.15375E+04  5.13706E+03  1.20086E+04  4.81664E+04 -3.34097E+04  5.03329E+04 -6.42918E+04  1.06699E+03
 -5.07702E+04 -5.73600E+04 -6.29068E+03 -7.22852E+04  3.33596E+04 -5.42613E+04  4.71518E+04 -1.44342E+04
  3.84279E+04  9.35151E+03  2.74577E+04  2.63824E+04  1.42950E+04  2.90345E+04 -3.59327E+03  2.82957E+04
 -2.04196E+04  1.19236E+04 -1.56320E+04 -1.76071E+03  3.58278E+03 -6.35613E+03  1.78524E+04  8.65842E+03
  7.29952E+03  3.36521E+04 -2.98019E+04  3.53550E+04 -6.41336E+04  2.69995E+03 -5.40464E+04 -3.98409E+04
 -9.04224E+03 -6.20837E+04  3.98992E+04 -4.03661E+04  5.16682E+04 -3.10660E+03  3.03823E+04  2.98721E+04
 -6.70031E+03  3.18928E+04 -2.41137E+04  1.51502E+04 -2.73485E+04 -6.51080E+03 -1.51930E+04 -1.17176E+04
 -6.88822E+03 -1.64756E+04 -9.71447E+02 -1.79332E+04  6.03547E+03 -2.10445E+04  1.58731E+04 -1.57214E+04
  1.50173E+04  4.99122E+03 -4.30458E+03  1.39200E+04 -1.92656E+04 -2.31163E+03 -1.18544E+04 -3.05127E+04
  2.09831E+04 -4.10602E+04  4.33265E+04 -1.92636E+04  3.84924E+04  1.57218E+04  1.78601E+04  4.25079E+04
 -1.72398E+04  3.11293E+04 -2.55898E+04 -1.23888E+03 -7.01966E+03 -2.63762E+04  2.17698E+04 -3.20722E+04
  3.80864E+04 -1.27655E+04  3.27720E+04  2.27555E+04  1.37175E+04  4.09746E+04 -8.00351E+03  4.55348E+04
 -2.74457E+04  2.89026E+04 -4.06597E+04  4.52625E+03 -3.95751E+04 -1.79565E+04 -2.30503E+04 -3.27188E+04
  7.79814E+03 -3.11991E+04  3.14805E+04 -1.19390E+04  2.96921E+04  1.19250E+04  1.79105E+03  1.91941E+04
 -1.34921E+04  2.08480E+03 -7.87343E+03 -8.05658E+03  5.03491E+03 -1.04815E+04  2.09841E+04  8.33175E+02
  1.33275E+04  1.82141E+04 -1.25257E+03  2.21617E+04 -2.47862E+04  9.40450E+03 -2.30787E+04 -7.51740E+03
 -2.15878E+04 -1.31576E+04 -6.98299E+03 -1.67450E+04  1.69489E+03 -1.22219E+04  1.29597E+04 -1.49798E+04
  2.08851E+04 -1.03470E+04  2.90304E+04 -2.37811E+03  2.14085E+04  1.84340E+04  6.02475E+03  3.47727E+04
 -1.89598E+04  2.87857E+04 -2.61619E+04  9.93303E+03 -2.08865E+04 -7.34456E+03 -5.80808E+03 -1.41398E+04
  6.90243E+02 -3.77627E+03  1.98626E+02  3.60699E+03 -1.33898E+04  5.70931E+03 -5.91729E+03 -5.77870E+03
 -6.47471E+03 -1.83364E+04  4.77851E+03 -1.48557E+04  1.17450E+04 -1.28784E+04  1.54477E+04  1.40940E+03
  8.58301E+03  7.53072E+03 -2.58188E+03  1.70870E+04 -1.12406E+04  1.29894E+04 -1.47873E+04 -2.54623E+03
 -1.42470E+04 -1.65809E+04 -1.85881E+03 -2.03892E+04  7.40037E+03 -1.08399E+04  1.34738E+04 -9.63468E+03
  1.48338E+04  1.80410E+03  1.18401E+04  2.22083E+03  4.75954E+03 -2.31545E+03  6.41922E+03  2.97667E+03
  1.42069E+04  1.11523E+03  1.27911E+04  1.11652E+04  1.09115E+04  2.29424E+04 -2.21903E+03  2.73653E+04
 -1.74695E+04  1.98252E+04 -2.41752E+04  1.05387E+04 -2.22429E+04 -5.57076E+03 -2.35186E+04 -1.05532E+04
 -1.11310E+04 -2.14542E+04  7.02097E+03 -1.46246E+04  1.75760E+04 -6.90869E+03  1.53948E+04  4.05388E+03
  9.31264E+03  9.95527E+03 -8.24739E+03  7.23040E+03 -1.40077E+04  1.76611E+03 -9.00854E+03 -9.00471E+03
 -1.13618E+03 -1.26489E+04  7.88370E+02 -8.37954E+03  8.05178E+03 -7.37130E+02  5.10293E+03  7.70174E+03
 -2.36113E+03  6.46400E+02 -7.01074E+03 -5.59362E+03 -7.13638E+02 -8.12939E+03  9.03676E+03 -1.09392E+04
  1.46416E+04 -1.54046E+03  8.69654E+03 -1.37009E+03  1.37429E+04  5.35279E+03  7.45059E+03  9.69426E+03
  1.35473E+03  1.89267E+04 -7.07278E+03  1.20825E+04 -1.12272E+04  3.33927E+03 -9.31664E+03  3.86846E+02
 -5.32827E+03 -1.92435E+03  3.33578E+03  2.66050E+03  9.95976E+01 -2.22653E+03 -3.42840E+03  7.15788E+02
 -7.01939E+03 -2.99261E+02 -7.05785E+03 -9.91472E+03 -1.41846E+03 -1.09421E+04  3.28322E+03 -7.59477E+03
  6.99210E+03 -6.19083E+03  6.98808E+03  3.57640E+03 -3.68796E+02  2.92461E+03 -4.86884E+03 -4.04542E+02
 -1.00500E+03 -4.23478E+03  1.35983E+03 -6.09948E+03  1.40172E+03 -4.85700E+03  1.17217E+04 -2.84471E+03
  1.39095E+04  2.71241E+03  4.39167E+03  5.02367E+03  6.06123E+02  4.64553E+03 -9.54662E+03  7.62332E+03
 -6.94315E+03  4.27549E+03 -2.79255E+03  2.77827E+02 -1.03821E+03 -1.13988E+03  6.82208E+02  5.88264E+02
  1.31764E+03 -1.21800E+03  1.12548E+03  4.36881E+03 -5.01947E+03  4.90191E+03 -9.51131E+03  5.27447E+03
 -4.51626E+03 -6.29404E+03 -2.62871E+03 -7.67397E+03  2.91503E+03 -5.65907E+03  7.32315E+03  2.47176E+02
  2.19910E+03  3.63414E+03 -4.00501E+03  5.45758E+03 -5.94830E+03  2.14412E+03 -1.04931E+03  2.04990E+03
  5.65773E+02 -7.27159E+03 -2.01720E+03 -2.34826E+03  5.35171E+03 -2.91255E+03  1.05756E+04 -3.11910E+03
  9.91020E+03  6.67010E+03  2.24007E+03  6.57705E+03 -2.86092E+03  4.30694E+02 -7.23918E+03  1.07978E+03
 -5.15724E+02 -7.82778E+03 -4.20027E+03 -2.33287E+03  5.11230E+03 -7.25574E+03  4.90688E+03 -5.32885E+03
  5.14242E+03  1.52726E+03  3.27106E+03  5.22023E+03  4.18195E+03 -3.17546E+03 -8.50959E+01  6.27314E+02
  1.08525E+03 -3.60144E+03  2.76171E+03  1.00476E+03  6.98884E+03 -1.02471E+03  7.94571E+03  4.09533E+03
 -4.34616E+03  7.64783E+03 -1.22372E+04  7.64382E+03 -8.31270E+03  1.76637E+03 -1.12601E+04  2.53350E+03
 -1.16406E+03 -5.07821E+03  3.13463E+03 -4.46103E+03  1.70281E+03 -6.53265E+03  3.25126E+03 -8.84349E+03
  1.40195E+03  1.20474E+03 -3.30389E+01  1.37996E+03  3.06961E+02 -6.33047E+02  1.50697E+03  1.14020E+03
  7.49390E+03  1.06454E+03  4.74753E+03 -1.03099E+03 -3.14578E+02  8.70158E+02 -4.40413E+03  2.78871E+03
  8.12457E+02 -2.72051E+03 -1.44601E+03 -3.14990E+02  1.18642E+03  1.35338E+01  6.20820E+03 -3.69191E+03
  4.69335E+03 -3.24053E+03  4.31424E+03 -4.28472E+03  6.75253E+03  3.63586E+03 -2.03909E+03  8.54907E+03
 -1.41770E+03  8.93165E+03 -3.18831E+03  4.25054E+03 -2.32220E+03 -4.55547E+02  2.20018E+03  1.08448E+03
 -6.94155E+03  1.51871E+03  1.88256E+03 -1.68565E+03 -2.24786E+03  2.38485E+03 -4.37675E+03 -3.52580E+03
  1.17721E+03 -2.00991E+03 -3.29621E+02 -4.67477E+03  5.10133E+03 -2.62637E+03  3.96123E+03 -1.46583E+03
  1.51200E+03  1.96799E+03  5.36200E+03  1.33710E+03  2.72968E+03  2.92767E+03 -2.80766E+03  1.63514E+03
 -6.97380E+03 -3.61576E+01 -2.61832E+03 -2.25272E+03 -3.03162E+03 -3.13924E+03  4.59116E+03 -4.29324E+03
  3.85213E+03 -5.39996E+02  4.09163E+03  1.05507E+03  2.31267E+03  2.67533E+03  1.69931E+03  2.30957E+03
  2.40739E+03 -3.76594E+03  8.41941E+02 -2.50907E+03  3.95748E+03 -3.67216E+03 -1.64572E+03  1.39527E+03
  4.26384E+03  2.10726E+03  3.05052E+03  6.76078E+03 -2.41773E+03 -2.83877E+03 -7.02201E+03  1.07600E+03
 -3.43549E+02 -1.38048E+03  2.29671E+03 -7.54998E+03  1.56025E+03 -4.45653E+03  6.50414E+02 -4.25900E+03
  7.35010E+02  2.79992E+03  1.58789E+03  2.81288E+03 -3.85655E+03 -2.19757E+02  5.52954E+01 -3.78328E+03
  1.32386E+03 -4.32019E+02  2.92458E+03 -2.23302E+03  2.50905E+03 -2.79733E+03  5.12318E+03 -3.37622E+03
  4.00826E+02 -1.01626E+03  1.31110E+03  8.50429E+02 -4.63494E+02 -1.83483E+02  9.15188E+03  1.06590E+03
 -2.64279E+03 -1.35576E+03  6.71867E+01 -6.60914E+01 -7.44423E+02  3.74415E+03  1.72669E+03  1.14914E+03
 -2.13014E+03  6.24433E+02  4.36949E+01  7.44111E+02 -3.79181E+03  7.87774E+02 -1.28847E+03 -8.86600E+02
 -3.73382E+03 -4.04426E+03  2.48333E+03 -2.66286E+03 -3.94707E+02  8.08994E+02 -9.73622E+02  1.71537E+03
 -1.72486E+03 -2.69490E+02 -2.27724E+03 -3.10870E+03 -8.74972E+02 -3.50170E+03 -1.38062E+03  1.90554E+03
 -2.69016E+03 -3.14394E+03  1.15009E+03  2.96744E+03  2.36724E+03 -2.95534E+02 -4.43730E+02  1.92529E+03
  2.84457E+03 -1.03322E+02  1.93830E+03 -1.43844E+03  2.41380E+03  1.68235E+02 -1.44564E+03 -1.09733E+03
 -2.96463E+03 -1.88704E+02  2.79314E+03  8.79639E+02  4.82775E+02 -6.91694E+02 -7.29565E+03  1.06768E+03
 -6.53805E+02 -8.35726E+02 -1.51283E+03 -1.69809E+03 -1.14173E+03 -3.46409E+03  9.84202E+02 -1.99519E+03
  5.47083E+03  3.11423E+02 -1.18271E+02  1.25411E+03  3.24351E+03  4.66353E+02  1.64098E+03  3.16566E+03
 -3.34051E+02 -4.94174E+02  3.25456E+03 -6.19130E+03 -1.81655E+03  3.47965E+03  2.17788E+03 -6.11845E+02
 -9.43293E+02 -2.32609E+03 -1.54198E+03  1.21187E+03 -2.66200E+03  1.00979E+03 -6.55183E+03 -4.19616E+03
  4.65567E+02 -2.74385E+03  1.70204E+03 -1.64186E+03  4.68472E+03 -3.12787E+03  2.05260E+03  3.35048E+02
 -1.80878E+02 -9.37772E+02  7.91782E+02  1.19124E+03  5.81580E+02  2.77467E+03 -5.59664E+03 -1.84692E+03
 -9.73763E+02  5.33628E+02  1.74571E+03  5.42671E+02  1.24831E+03  2.28330E+03 -2.97495E+03 -5.85626E+03
 -1.74735E+03  1.90683E+03  1.55584E+03  1.50811E+03 -4.35481E+02  1.24549E+03  1.50488E+03 -1.39713E+03
  1.40860E+03  1.78843E+03 -2.48135E+03  1.32313E+03  1.68383E+03 -5.96635E+03 -1.00209E+03  3.99772E+02
 -2.92470E+03 -3.73397E+02 -3.79140E+03  3.05984E+03 -3.49598E+03 -1.28493E+03 -6.60308E+02  1.71599E+03
 -6.63214E+02 -2.44430E+03  2.24325E+03 -4.06059E+03 -2.55938E+02 -2.65942E+03  1.90497E+03 -9.25085E+02
  2.95426E+03 -1.00635E+03 -4.13419E+03  2.57422E+03  6.06930E+02 -6.27986E+02  1.66822E+03  3.37407E+02
 -1.54916E+03 -7.25095E+02 -3.74596E+02  1.01242E+03  2.98012E+03  1.48709E+03  1.89014E+03  3.12175E+03
  1.31432E+03 -5.90216E+02 -2.97790E+03 -4.36767E+02 -2.82031E+03  3.93827E+02 -2.59733E+02 -4.33152E+03
  1.58355E+03  2.91295E+03 -1.75230E+03 -1.04283E+03 -1.85553E+03  1.11418E+03  1.10347E+03 -2.02623E+03
  1.23728E+03  3.95277E+03 -1.33192E+03 -1.64133E+03  1.45838E+03  2.45220E+03  9.80509E+02 -3.64235E+02
 -3.35842E+02 -4.92573E+02 -1.54488E+03 -1.43940E+03  3.12508E+03  4.75425E+03 -2.32654E+03 -9.29205E+00
 -2.26514E+03  1.27422E+03  3.76748E+03 -2.30352E+03 -3.37209E+03 -4.37755E+03  4.06286E+03 -1.56536E+03
 -2.69275E+03 -1.05845E+02 -2.28700E+02  5.18996E+03 -2.09618E+03  3.60773E+03  2.30147E+02 -1.13131E+02
