 $NMID ID='MM_0lb_SNR50_9hz_g55_13.RAW', FMTDAT='(8E13.5)'
 TRAMP=1., VOLUME=1. $END
  3.12663E+05 -3.03155E+03  3.37102E+05  2.52761E+05  8.03547E+04  3.43719E+05 -1.39610E+05  2.51088E+05
 -1.94418E+05  8.35836E+04 -1.11128E+05 -3.10533E+04  5.39304E+03 -4.93003E+04  5.09191E+04 -5.69537E+03
  3.69612E+04  5.35420E+04 -1.70099E+04  7.36606E+04 -5.97529E+04  6.62926E+04 -8.38235E+04  3.75430E+04
 -8.25881E+04 -1.49847E+04 -6.09494E+04 -4.83089E+04 -2.18880E+04 -7.16158E+04  3.09996E+04 -4.68855E+04
  4.57370E+04  6.50616E+02  1.08281E+04  4.93116E+04 -3.72259E+04  4.73825E+04 -6.50957E+04 -1.77513E+03
 -5.14975E+04 -4.83645E+04 -6.12985E+03 -7.61839E+04  3.49446E+04 -5.49691E+04  5.29515E+04 -1.68285E+04
  4.88418E+04  7.20039E+03  3.11996E+04  2.86202E+04  1.43119E+04  2.97366E+04 -1.15135E+03  3.23902E+04
 -2.11158E+04  1.77913E+04 -1.80017E+04 -6.58187E+03  7.73922E+03 -8.89800E+03  2.50206E+04  1.98725E+04
  8.14868E+03  4.08864E+04 -3.65398E+04  3.52127E+04 -6.88279E+04  9.01668E+03 -5.52659E+04 -4.64900E+04
 -1.75712E+04 -6.31275E+04  4.08557E+04 -4.47591E+04  5.89565E+04  1.21664E+03  3.46973E+04  3.41645E+04
 -2.26638E+03  3.99620E+04 -3.23179E+04  1.72928E+04 -3.03824E+04 -1.04526E+03 -2.15481E+04 -1.67341E+04
 -6.54077E+03 -1.57664E+04 -3.37500E+03 -1.81577E+04  4.60517E+03 -2.65886E+04  1.43105E+04 -1.35935E+04
  8.03517E+03  8.99490E+03 -1.24716E+04  1.40406E+04 -2.31191E+04 -9.58081E+03 -1.32412E+04 -3.76841E+04
  2.06354E+04 -4.86331E+04  5.10276E+04 -2.06246E+04  4.51101E+04  1.61168E+04  1.74593E+04  4.49990E+04
 -1.59028E+04  3.29660E+04 -2.47604E+04  2.97165E+03 -1.06932E+04 -3.45341E+04  2.23227E+04 -3.69804E+04
  4.54601E+04 -9.63182E+03  4.02743E+04  2.87106E+04  2.49286E+04  4.58792E+04 -6.92965E+03  5.68949E+04
 -3.53991E+04  3.76781E+04 -4.74855E+04  6.41681E+03 -4.98487E+04 -1.44547E+04 -2.50411E+04 -3.52520E+04
  4.48882E+03 -4.48769E+04  3.05239E+04 -1.59894E+04  3.13697E+04  1.06058E+04  8.54615E+03  1.70216E+04
 -1.41548E+04  8.16610E+03 -9.38742E+03 -6.70531E+03  7.77642E+03 -8.83686E+03  2.17566E+04  5.17340E+03
  9.28468E+03  2.08205E+04 -3.13187E+02  2.77701E+04 -2.57187E+04  1.74049E+04 -3.38419E+04 -2.55208E+03
 -2.59684E+04 -1.85419E+04 -1.62481E+04 -2.38570E+04  5.71486E+03 -2.29078E+04  9.48501E+03 -2.33268E+04
  3.71685E+04 -1.05714E+04  4.25280E+04  1.16918E+04  2.93224E+04  2.15083E+04  8.54344E+03  5.03437E+04
 -2.15661E+04  3.10660E+04 -3.90687E+04  1.92259E+04 -2.30591E+04 -1.17691E+04  2.31902E+02 -1.71800E+04
 -3.79148E+03 -1.98610E+03 -7.10754E+03  9.82698E+03 -2.18917E+04  7.89268E+03 -2.14413E+04 -5.40699E+03
 -1.69314E+04 -2.26493E+04  5.44241E+03 -3.56857E+04  1.51080E+04 -1.71026E+04  2.06416E+04 -1.75495E+03
  1.23499E+04  1.54647E+04 -1.58232E+03  2.24091E+04 -1.54813E+04  9.23810E+03 -2.10247E+04 -8.84525E+03
 -2.18999E+04 -2.76172E+04  2.61135E+03 -2.45626E+04  7.60476E+03 -1.73578E+04  2.45746E+04 -1.01616E+04
  2.14797E+04  9.87269E+02  1.59275E+04  4.50597E+03  1.12881E+04 -3.58944E+03  1.27611E+04 -1.86256E+03
  2.41761E+04  5.07212E+03  2.44292E+04  1.78168E+04  1.44492E+04  3.59369E+04 -6.65588E+03  4.01414E+04
 -1.89219E+04  3.59457E+04 -3.88302E+04  2.12583E+04 -4.39822E+04  6.41605E+02 -3.92516E+04 -2.18996E+04
 -1.74338E+04 -3.68534E+04  1.51989E+04 -2.87337E+04  2.80040E+04 -2.08783E+04  2.72251E+04  8.16708E+03
  5.05694E+03  1.37043E+04 -1.14971E+04  2.03731E+04 -2.00739E+04  3.01497E+03 -1.58253E+04 -8.03149E+03
  4.28115E+03 -2.52558E+04  6.38645E+03 -1.15503E+04  1.24889E+04 -2.98720E+03  6.56980E+03  1.57281E+04
 -1.17884E+04  6.53111E+03 -1.23816E+04 -5.62446E+03  1.82422E+03 -1.92467E+04  1.62223E+04 -2.13810E+04
  2.71488E+04 -8.62828E+03  2.68894E+04  2.60724E+03  2.44280E+04  1.34936E+04  1.06641E+04  2.76269E+04
 -7.51966E+03  3.30639E+04 -2.09609E+04  2.04705E+04 -1.93380E+04  6.55399E+03 -1.56093E+04 -6.55637E+03
 -1.02524E+04 -1.22836E+04 -3.86046E+02 -5.38805E+02 -7.63203E+03  2.48591E+03 -1.04820E+04  4.90793E+02
 -1.17515E+04 -8.09483E+03 -1.31395E+04 -1.02335E+04 -4.30379E+03 -1.82633E+04  4.43106E+03 -2.07610E+04
  1.60751E+04 -2.09580E+03  4.69351E+03  3.43547E+03  3.57105E+03  8.76818E+03 -9.86043E+03  3.74248E+03
 -3.75276E+03 -4.44034E+03 -1.62245E+03 -1.51750E+04  6.92592E+03 -1.73087E+04  2.92714E+04  9.95869E+02
  1.78544E+04  4.11233E+03  1.26112E+04  1.58025E+04  8.10828E+03  1.49645E+04 -1.10139E+04  2.07830E+04
 -1.14730E+04  6.63028E+03 -5.10363E+03 -5.13376E+03  1.03475E+02 -9.44787E+03  1.18673E+04 -4.98257E+03
  7.25461E+03  1.05879E+04  1.23137E+03  9.42531E+03 -6.03541E+03  1.66841E+04 -7.44147E+03  3.45502E+03
 -1.35359E+04 -9.09422E+03  3.04270E+03 -6.97653E+03  1.71463E+04 -1.10431E+04  1.14730E+04  4.24344E+03
 -2.60376E+03  8.05461E+03 -1.39952E+04  1.79127E+04 -1.82936E+04  6.02314E+03 -1.43434E+04 -3.46300E+03
 -6.23420E+03 -2.16773E+04  3.68917E+03 -1.82330E+04  1.32043E+04 -1.07260E+04  1.62110E+04  1.01571E+04
  1.02103E+04  9.57680E+03  7.50310E+02  1.13329E+04 -1.18431E+04  1.48334E+04 -1.61888E+04 -8.08627E+03
 -1.35986E+04 -6.21338E+03 -7.01993E+02 -8.28238E+03  8.17852E+03 -1.19977E+04  3.29542E+03  2.46693E+03
  6.89402E+03  1.57653E+03  1.64793E+03 -1.39330E+02 -7.60343E+03 -7.67312E+03  5.89671E+03 -1.66911E+03
  1.64356E+04 -7.41848E+03  1.73037E+04  2.83303E+03  1.79814E+04  8.52990E+03  1.01862E+04  1.70954E+04
 -1.01682E+04  2.41846E+04 -2.28735E+04  1.77189E+04 -2.81243E+04  7.51425E+03 -2.58421E+04 -7.78423E+03
 -8.17994E+03 -2.14581E+04 -8.05397E+03 -1.81457E+04  6.37700E+03 -3.88269E+03  3.62951E+03 -8.97422E+03
  9.74922E+03  6.80712E+02  6.60831E+03 -2.82727E+03  5.09259E+03 -1.01547E+04  8.13490E+03 -5.21730E+03
  1.65832E+04 -2.01026E+03  6.98030E+03  9.97707E+03 -1.80726E+02  8.79806E+03 -1.47604E+04  4.64505E+03
 -1.17698E+04  2.39714E+03 -1.13751E+04 -8.80592E+03 -7.13085E+03 -1.41412E+04  8.88054E+03 -1.55636E+04
  1.37766E+04 -6.77792E+03  1.79719E+04 -6.30873E+03  8.15827E+03  2.26939E+04  1.69325E+03  1.81285E+04
 -1.20575E+04  1.76557E+04 -7.51254E+03  2.26797E+03 -1.37230E+04  2.87449E+03 -8.40410E+03  1.01353E+03
 -1.30494E+03 -4.43046E+02  4.41360E+01  1.90557E+03 -8.29879E+03  7.11948E+03 -1.72096E+04 -5.61191E+03
 -6.66863E+03 -7.33006E+03 -1.79573E+03 -1.75987E+04  7.96101E+03 -1.76006E+04  1.00401E+04 -4.36367E+03
  1.71730E+04  1.04275E+04  4.16042E+03  1.16862E+04 -7.65956E+03  1.29661E+04 -1.23597E+04  1.36106E+04
 -1.61780E+04 -6.68724E+03 -2.00622E+04 -9.54569E+03  4.61163E+03 -9.17127E+03  2.39593E+03 -7.55871E+03
  1.38687E+04 -1.81450E+03  7.58409E+03  8.99118E+02 -8.81112E+02  5.71067E+03  3.48738E+03  4.01023E+03
  2.29038E+03 -2.13176E+03  8.84270E+02  2.51537E+03  1.08744E+04  2.09915E+03  3.28074E+03  8.97093E+03
 -1.26030E+03  8.95752E+03 -1.37304E+04  1.48527E+04 -1.13704E+04  3.41087E+03 -2.05656E+04 -7.25260E+03
 -7.77041E+03 -1.51157E+04  3.54073E+03 -1.68658E+04  1.10127E+04 -1.27298E+04  9.42623E+03 -2.78018E+03
  9.98131E+03  8.09299E+03 -2.30674E+02  4.90410E+03 -4.56145E+03  3.93767E+03 -1.04409E+04 -5.09182E+03
  2.45099E+03 -3.92082E+03  1.35230E+03 -1.27589E+04  7.69335E+03 -9.58780E+03  1.06154E+04  5.32015E+03
  5.02127E+03  7.14195E+02  4.00192E+02  5.36305E+03 -4.11866E+03  3.39933E+03 -2.81851E+03 -1.03338E+03
  1.11502E+04  7.44090E+03  1.16449E+04  1.31039E+03  4.15638E+03  8.12666E+03  7.36205E+02  6.41686E+03
 -6.37244E+03  4.46844E+03 -9.04063E+03  4.91584E+03 -1.03427E+04 -2.33761E+03 -3.16126E+03 -9.70552E+02
  7.17151E+03 -5.42209E+03  2.82392E+03 -1.50414E+03  1.35963E+03  4.43103E+03 -4.69696E+03 -5.42185E+02
 -1.18630E+04  1.24479E+02 -1.02438E+04 -3.45406E+03 -6.03474E+03 -1.10836E+04 -1.55283E+03 -6.23730E+03
  8.66201E+03 -2.84631E+03  4.84359E+03 -6.90679E+03  4.86281E+03 -2.89402E+03 -3.47837E+03  2.92697E+03
 -4.69582E+03  5.56808E+03 -5.34083E+03 -1.86977E+03 -4.42745E+03  7.93681E+02  1.50651E+04 -4.04511E+03
  9.60173E+03  6.48076E+03  9.79859E+03  1.08269E+04  2.32317E+03  1.31569E+04 -5.50395E+03  1.08577E+04
 -1.31243E+04  6.39303E+03 -1.47637E+04  8.15290E+03 -6.96843E+03 -1.03102E+04  5.79233E+03 -8.20814E+03
  7.93378E+03  2.33576E+02  1.16175E+04  5.05275E+03  1.78014E+02  5.60509E+03 -5.95071E+02  5.15908E+03
  7.39109E+02  1.47804E+03 -2.17450E+03  4.98082E+03 -4.07716E+03 -1.83247E+03 -4.07688E+03  1.06839E+04
 -3.31945E+03  3.62376E+03 -6.07585E+03  3.09405E+03 -1.26888E+04 -2.30390E+03 -1.20224E+04 -1.28410E+04
 -7.99386E+03 -9.12994E+03 -4.54444E+03 -1.51914E+04  2.66727E+03 -1.61394E+04  1.65981E+04 -1.10339E+03
  1.76577E+04  1.01934E+04  3.50516E+03  9.21566E+03  7.29170E+03  8.28555E+03 -5.56794E+03  5.29023E+03
 -9.67743E+03  3.58247E+03 -2.42696E+03 -2.48934E+03 -2.55695E+03  3.75914E+02  2.36712E+03  7.16568E+02
 -6.23057E+03 -4.63246E+03  2.40890E+03  2.58091E+03 -1.36401E+02 -2.09263E+03 -1.86632E+03 -2.07702E+03
  9.77130E+03 -9.75432E+03  5.41165E+03 -1.50348E+03  8.24597E+03  9.43699E+03 -1.26526E+03  1.26575E+04
 -4.24953E+03  1.05920E+04 -1.22080E+04  5.49121E+03 -1.16467E+04  7.15564E+03 -1.11117E+04 -1.02727E+04
 -1.34062E+04 -1.11211E+04  1.03616E+03 -1.09801E+04  7.07791E+03 -1.42102E+03  6.83998E+03  5.13129E+03
  5.57514E+03  9.74649E+02 -5.89390E+03 -9.64350E+02 -4.05280E+03  1.55271E+03  3.67852E+03 -5.00569E+03
  3.17179E+03  1.88104E+03  2.34757E+03  4.10090E+03  3.20470E+03  6.00087E+03 -5.40982E+02  4.96890E+03
 -4.51734E+03  2.94889E+03 -4.07575E+03  1.46132E+03 -4.93289E+03  4.32073E+03 -1.05976E+03 -1.57002E+04
  1.63374E+03 -9.72319E+03  8.00664E+03 -5.25452E+03  7.89515E+03 -2.55760E+03  3.43102E+03  4.07840E+03
  6.90927E+03  6.65734E+03  1.00230E+02  6.44931E+03 -6.20214E+03 -4.88154E+03 -2.13997E+03  3.91164E+03
 -4.71283E+03 -5.33687E+03  2.36938E+03  1.16409E+03 -2.88718E+03 -9.37738E+02 -1.85426E+03 -8.43462E+03
 -8.17943E+03 -1.03184E+03  3.94249E+03 -7.79067E+03 -9.21125E+01 -3.66151E+03  1.19549E+04 -6.29192E+03
  9.59151E+03  5.75646E+03  2.50245E+03  9.73767E+03  7.51691E+03  5.93592E+03 -3.32545E+03  5.49540E+03
