 $NMID ID='MM_0lb_SNR50_16hz_g50_10.RAW', FMTDAT='(8E13.5)'
 TRAMP=1., VOLUME=1. $END
  3.10314E+05 -1.83015E+03  3.40468E+05  2.54145E+05  8.92885E+04  3.34031E+05 -1.33517E+05  2.49729E+05
 -1.91141E+05  8.33711E+04 -1.12221E+05 -3.43464E+04 -9.41294E+02 -4.77901E+04  5.48111E+04  1.04116E+03
  3.82806E+04  5.08452E+04 -1.47020E+04  7.14956E+04 -6.29651E+04  6.38945E+04 -8.20345E+04  2.78116E+04
 -8.13119E+04 -1.35650E+04 -5.74918E+04 -5.04287E+04 -1.65756E+04 -7.04309E+04  2.52143E+04 -4.55652E+04
  3.60513E+04 -1.87375E+02  1.56026E+04  5.09306E+04 -3.39748E+04  4.81177E+04 -7.20378E+04 -1.90656E+03
 -5.04455E+04 -5.49416E+04 -4.38003E+03 -7.55209E+04  2.74212E+04 -5.38927E+04  4.53653E+04 -1.77571E+04
  4.21793E+04  1.42143E+04  3.06127E+04  2.51480E+04  1.57455E+04  3.30656E+04 -4.27329E+03  2.85138E+04
 -2.19794E+04  1.38716E+04 -1.64177E+04 -4.03214E+03  7.82790E+03 -9.03067E+03  2.29695E+04  1.56804E+04
  8.40210E+03  3.83258E+04 -3.23805E+04  3.77453E+04 -6.28252E+04  2.19797E+02 -5.84599E+04 -4.33488E+04
 -1.18452E+04 -6.88861E+04  3.40794E+04 -4.73084E+04  4.84769E+04 -3.98168E+03  3.17269E+04  3.28205E+04
 -7.15619E+03  3.52813E+04 -2.99569E+04  1.46023E+04 -3.10200E+04 -6.95240E+03 -1.81226E+04 -8.43046E+03
 -1.07418E+04 -1.31086E+04 -1.84473E+03 -1.31151E+04  7.05021E+03 -2.08559E+04  1.26723E+04 -1.53504E+04
  1.34474E+04  2.67193E+03 -1.03532E+04  1.23687E+04 -2.22136E+04 -1.20139E+03 -7.37637E+03 -3.27592E+04
  2.22385E+04 -4.23259E+04  4.91371E+04 -2.27277E+04  4.56223E+04  1.99474E+04  1.36927E+04  4.64368E+04
 -1.95945E+04  3.15439E+04 -2.48760E+04  7.95429E+02 -1.39144E+04 -2.78846E+04  2.14163E+04 -3.74500E+04
  3.63066E+04 -6.52392E+03  3.34508E+04  2.13160E+04  1.23276E+04  4.63853E+04 -5.25972E+03  4.36559E+04
 -3.15289E+04  3.33936E+04 -3.67380E+04  1.16776E+04 -4.43022E+04 -1.38981E+04 -2.14926E+04 -3.85046E+04
  8.38518E+03 -3.75470E+04  2.54248E+04 -1.25172E+04  2.93899E+04  7.91159E+03  1.07894E+03  2.20902E+04
 -1.03214E+04  9.64483E+03 -6.91725E+03 -3.77793E+03  5.22437E+03 -1.03645E+04  1.70440E+04  4.57040E+03
  1.06139E+04  1.90969E+04 -4.72024E+03  2.28090E+04 -2.59124E+04  1.22112E+04 -2.83168E+04 -7.65984E+03
 -1.64762E+04 -2.02664E+04 -7.43193E+03 -1.63288E+04  7.48756E+03 -2.05342E+04  1.75257E+04 -1.81797E+04
  2.38595E+04 -1.20535E+04  2.99093E+04 -4.33305E+02  2.29470E+04  2.24801E+04  4.73291E+03  3.59084E+04
 -1.46377E+04  3.27763E+04 -2.68296E+04  9.77559E+03 -1.66881E+04 -1.06775E+04 -3.58361E+03 -1.03841E+04
  6.34863E+03 -4.74768E+03 -6.20647E+03  7.31082E+03 -1.12006E+04  4.40927E+03 -1.66333E+04 -4.21685E+03
 -6.62935E+03 -1.63146E+04  3.73861E+03 -2.22550E+04  1.35213E+04 -1.99764E+04  1.34302E+04 -3.04071E+03
  1.40608E+04  1.26943E+04 -1.97113E+03  1.83498E+04 -1.26752E+04  8.63145E+03 -1.72282E+04 -4.68356E+03
 -9.66687E+03 -1.59590E+04 -5.73248E+02 -2.02248E+04  1.17001E+04 -1.61601E+04  2.25104E+04 -9.77634E+03
  1.15290E+04 -2.99266E+03  1.17422E+04  2.81704E+03  2.84600E+03  7.17498E+02  7.40923E+03 -1.75980E+03
  1.59364E+04  3.75730E+03  1.67007E+04  1.59928E+04  1.01945E+04  2.82321E+04 -1.26578E+03  3.25409E+04
 -1.58217E+04  2.77000E+04 -2.64644E+04  9.18842E+03 -2.87829E+04 -3.81712E+02 -2.90452E+04 -1.85884E+04
 -9.37320E+03 -2.36468E+04  8.42716E+03 -2.51183E+04  2.29701E+04 -1.35857E+04  1.71381E+04  4.97714E+03
  1.65730E+03  1.24035E+04 -6.92710E+03  1.51287E+04 -1.34515E+04  3.84084E+03 -1.23804E+04 -7.41103E+03
  1.15106E+02 -1.50219E+04  1.03688E+04 -7.44303E+03  9.44547E+03 -3.17378E+03  2.92973E+03  4.96621E+03
 -1.02051E+04 -3.61409E+03 -4.37768E+03 -4.94111E+03 -4.96663E+03 -1.28764E+04  1.07383E+04 -1.35232E+04
  1.80190E+04 -5.33203E+03  1.35489E+04  1.79058E+03  1.26607E+04  8.83118E+03  6.52681E+03  1.58012E+04
 -6.15670E+02  2.21111E+04 -9.93007E+03  1.08088E+04 -1.54208E+04  2.33570E+03 -1.05723E+04 -1.40591E+03
 -3.90165E+03 -1.07825E+03  5.92612E+02  3.78405E+03 -5.16000E+03  4.79138E+03 -4.33251E+03  2.07985E+02
 -1.05592E+04 -3.17157E+02 -6.53521E+03 -9.90686E+03 -4.55232E+03 -1.49381E+04  8.50175E+03 -7.17540E+03
  6.26561E+03 -5.38354E+03  6.02769E+03  1.78909E+03 -1.41383E+02  1.83610E+03 -4.04606E+03  9.56398E+02
 -4.62003E+03 -3.28540E+03  3.04394E+00 -8.68668E+03  3.11468E+03 -1.33244E+04  1.60828E+04 -3.07851E+03
  1.69710E+04  3.78315E+03  1.14770E+04  4.90735E+03  2.27907E+03  1.26976E+04 -4.57947E+03  1.26301E+04
 -5.61211E+03  5.19723E+03 -6.81316E+03  1.13138E+03 -1.85134E+03 -3.20324E+03  8.61947E+03 -2.41814E+03
  7.23444E+03  7.61995E+03  2.00971E+03  6.67798E+03 -6.29551E+03  9.84948E+03 -7.79298E+03  4.21594E+03
 -4.81380E+03 -4.04772E+03 -1.81658E+03 -6.09172E+03  5.35888E+03 -6.88723E+03  8.80682E+03  7.53669E+02
  3.67114E+03  2.24487E+03 -6.73198E+03  7.62257E+03 -5.06366E+03  3.21550E+03 -8.98534E+03 -2.38037E+03
 -1.98385E+03 -1.19483E+04  2.72415E+03 -1.27731E+04  7.14678E+03 -9.57237E+03  4.93332E+03  1.25622E+03
  6.60602E+03  5.65132E+03  1.85903E+03  1.01064E+04 -8.57697E+03  4.79065E+03 -4.37299E+03  2.24421E+03
  4.39550E+02 -4.51961E+03 -1.25339E+03 -4.03179E+03  4.90934E+03 -3.61751E+03  3.44867E+03 -7.55093E+03
 -1.77332E+03  4.83652E+03 -5.37489E+02 -1.48279E+03 -1.27674E+03  8.04414E+02  2.19456E+03  8.20226E+02
  2.60860E+03  2.72508E+03  1.09306E+04  2.94256E+03 -3.15476E+01  6.63280E+03  9.88469E+03  9.68308E+03
 -4.92465E+03  1.30807E+04 -1.15145E+04  1.15079E+04 -1.29366E+04  6.08709E+02 -8.75237E+03 -4.87719E+03
 -6.53986E+03 -9.04389E+03 -1.86243E+03 -1.05204E+04  4.11656E+03 -2.60978E+03  1.80348E+03 -5.34247E+03
 -6.79981E+02 -2.23790E+03  1.35225E+03 -5.06078E+03  8.42587E+02 -3.08038E+03  4.22762E+03 -1.44710E+03
  6.69677E+03 -9.97298E+01 -1.27592E+03  6.33088E+03 -5.90943E+03  5.31732E+03 -7.01922E+03 -6.77695E+01
 -7.56056E+03  1.97109E+03  1.86536E+02 -9.29995E+02  1.64329E+03 -5.49246E+03  3.74669E+03 -6.23403E+03
  1.17331E+03 -2.88946E+03  4.73319E+03  4.41150E+03  3.50961E+03  1.23992E+04 -4.70196E+02  5.20711E+03
 -1.08851E+03  5.61799E+03 -5.92108E+03 -1.03484E+03 -6.54579E+03 -1.20184E+03 -4.21486E+03 -1.57584E+02
 -1.80606E+03  9.93719E+02  1.15350E+03  4.92676E+03 -3.41556E+03  1.50426E+03 -5.20688E+03  1.60453E+03
 -3.06229E+02 -7.17345E+03  3.81409E+02 -4.38257E+03 -3.32755E+02 -6.64808E+03  4.07809E+03 -2.99972E+03
 -9.35653E+02  2.85700E+03 -4.90513E+02  9.34795E+03 -4.41196E+02  5.05553E+03 -1.73187E+03  3.30465E+03
 -3.07025E+03  3.79679E+02 -3.45283E+03 -6.64826E+03 -2.31612E+03 -2.71580E+03 -4.88544E+03 -1.53482E+03
  1.23160E+03 -2.43324E+03  4.36775E+03 -5.65249E+03  2.37317E+03  1.99270E+03  7.82809E+02  2.43679E+02
  3.88600E+03  5.88404E+03 -1.35843E+03  3.63732E+03  5.29086E+03 -5.82887E+02  3.41293E+03  2.27907E+03
  2.42419E+02  3.22027E+03 -3.20771E+03  8.28248E+03 -6.07922E+03  6.43735E+03 -4.97376E+03 -1.59840E+03
  1.00973E+03 -1.08988E+03  2.36804E+03 -6.07922E+03  2.65317E+03 -7.59323E+03  1.34672E+04 -3.16732E+03
  1.17100E+03  2.50686E+03 -2.34870E+03  2.38317E+03 -3.17511E+03 -8.19156E+01 -8.51016E+01 -3.12538E+02
  1.76524E+03 -4.55666E+03  1.25101E+03  1.44930E+03 -1.81931E+03 -6.30598E+02  2.43049E+03 -7.09894E+01
 -1.01632E+03 -1.47262E+03 -9.72927E+02  2.89759E+03  4.61844E+01  1.99170E+03  5.66322E+03  2.45809E+03
 -3.52619E+02 -5.28973E+03  5.89057E+03  4.21907E+03 -2.94886E+03  2.58439E+03 -3.54589E+03  4.00176E+03
 -5.39278E+03 -6.17149E+02  1.09286E+03 -1.97313E+03 -2.24723E+03  1.08807E+03  2.93933E+03 -1.96562E+03
 -1.63231E+02 -5.42711E+03  2.49351E+03  8.94891E+01  2.60995E+03  4.63781E+03 -6.18386E+01  1.92953E+03
 -1.96584E+03  3.11059E+02  1.10256E+02 -2.97308E+03  1.63056E+02 -5.51111E+03  2.44636E+03  1.78838E+03
  1.04759E+02 -6.14003E+03  7.88814E+03  4.46599E+02  2.89245E+03 -5.01329E+03  1.76628E+03  4.35116E+03
  2.23435E+03  2.32599E+03  1.66009E+03  2.09698E+03  3.72508E+03  5.90275E+02 -1.60998E+03 -1.99000E+03
  7.67762E+03 -1.72194E+03 -1.46110E+02  2.72098E+03 -5.02195E+01 -9.83366E+02 -3.13289E+03  2.00592E+03
 -3.39528E+03 -2.10279E+03 -1.44312E+03  3.33885E+03 -5.40492E+02 -2.95612E+03  3.12030E+03 -4.90207E+03
  3.74730E+03 -1.02945E+03  2.40648E+03 -2.31837E+03 -4.40976E+03  2.27988E+03 -1.24178E+03  2.81641E+03
 -2.87616E+03  2.60292E+03  5.97198E+03 -3.82167E+02 -9.74703E+02  3.47300E+03 -1.92165E+03  4.38313E+03
  4.06003E+03 -1.31149E+03  2.07776E+02  1.84978E+03 -7.91397E+02  5.06328E+03 -5.86232E+03 -7.32008E+02
 -2.08753E+03  1.40101E+02  5.23663E+03 -1.09437E+04  1.31936E+03 -5.10823E+03  3.53635E+03 -6.10686E+03
 -3.43713E+02 -4.71552E+03  5.00519E+03  2.77950E+03 -1.52338E+03  4.08783E+03  2.81120E+03  4.30308E+03
  1.51229E+03 -3.62382E+03 -2.76406E+03  1.46137E+03  1.46212E+03 -1.27458E+03 -2.71718E+03  1.88116E+03
 -4.15572E+03  4.59526E+01  4.65944E+03 -7.29042E+02 -1.55313E+03 -1.07584E+03  1.07562E+03 -6.22986E+03
  5.88273E+03 -4.15806E+03 -3.62802E+03  1.97979E+03  5.42406E+02  7.55768E+02  2.42217E+03  1.61932E+03
 -2.12105E+03 -7.70066E+02 -2.97990E+03  2.27862E+03 -7.56274E+03 -3.91829E+03  1.23491E+03 -1.00365E+03
 -4.11736E+03 -3.36020E+03  1.44027E+03 -1.98419E+03  9.56073E+02 -2.57179E+03  2.31726E+03  4.45944E+02
  3.99895E+03  3.68922E+03  3.29961E+03  1.47343E+03  7.40291E+03  3.25773E+03 -1.27079E+03  2.45200E+02
 -3.38930E+03  9.12634E+02 -3.74701E+03  6.21804E+02  2.22841E+03  2.99371E+03  1.02913E+03 -5.16438E+01
  4.46937E+02  2.28809E+03 -1.38391E+03 -3.86122E+03 -3.12255E+03  5.50146E+03  9.63083E+02  1.52635E+03
  1.99172E+03 -3.14001E+03  2.53576E+03  3.46984E+02 -1.42538E+03 -1.95562E+03  2.82400E+03  2.57775E+03
  5.35154E+03  3.44293E+02 -1.50352E+03 -1.27103E+03 -2.32851E+03  3.49423E+03 -3.52672E+03  3.16359E+03
 -2.00773E+03 -1.87989E+02 -4.87214E+02 -2.69172E+03 -1.12724E+03 -3.22549E+03  2.43239E+03 -1.42758E+03
 -6.85410E+02  1.59863E+03  2.06859E+02  1.50122E+03  3.77237E+03 -2.34926E+03  5.36287E+02  7.21542E+02
  2.15920E+03  1.48038E+03 -1.85944E+03 -9.91358E+02 -3.28647E+00  1.65470E+03 -2.55392E+03  3.48742E+03
