 $NMID ID='MM_0lb_SNR50_10hz_g60_47.RAW', FMTDAT='(8E13.5)'
 TRAMP=1., VOLUME=1. $END
  3.07164E+05 -8.51224E+03  3.42210E+05  2.51458E+05  8.49424E+04  3.37069E+05 -1.35350E+05  2.58363E+05
 -1.85295E+05  8.46718E+04 -1.06486E+05 -3.23096E+04 -5.36750E+02 -5.63630E+04  5.49318E+04 -1.02690E+03
  3.61773E+04  5.00290E+04 -1.45755E+04  7.45877E+04 -6.34753E+04  6.31124E+04 -8.18862E+04  3.06312E+04
 -7.95405E+04 -1.26232E+04 -5.97069E+04 -5.37372E+04 -1.36140E+04 -6.77975E+04  2.80129E+04 -4.77756E+04
  4.03246E+04  6.16831E+03  1.92836E+04  4.84748E+04 -4.05945E+04  4.96693E+04 -7.01611E+04 -3.01882E+03
 -5.20319E+04 -6.04683E+04 -1.25076E+04 -7.58812E+04  3.53563E+04 -5.70824E+04  4.69285E+04 -1.39846E+04
  4.81774E+04  6.83235E+03  3.40969E+04  2.43035E+04  1.58654E+04  2.96539E+04 -8.45465E+03  2.35502E+04
 -2.19280E+04  1.22725E+04 -1.55917E+04 -2.75849E+03  1.03139E+04 -1.53677E+04  2.53094E+04  1.61672E+04
  1.22817E+04  4.27736E+04 -3.27971E+04  3.45905E+04 -6.74259E+04  1.00459E+03 -5.66424E+04 -5.24922E+04
 -1.23686E+04 -7.32383E+04  4.08676E+04 -5.09730E+04  6.21922E+04 -1.80824E+02  3.55529E+04  3.15068E+04
 -6.42083E+03  4.11916E+04 -2.80294E+04  1.54041E+04 -2.79161E+04  5.17981E+03 -1.90316E+04 -1.56253E+04
 -6.08685E+03 -1.39299E+04 -3.23797E+03 -1.89224E+04  1.23231E+04 -2.20650E+04  1.27600E+04 -1.46442E+04
  1.78932E+04  1.15226E+04 -1.31584E+04  1.71968E+04 -2.28697E+04 -1.43166E+04 -1.16591E+04 -3.55371E+04
  2.74016E+04 -4.53008E+04  5.80298E+04 -1.86263E+04  5.23539E+04  1.26418E+04  1.75043E+04  5.20669E+04
 -1.29832E+04  3.56440E+04 -2.74457E+04  1.96679E+03 -1.61765E+04 -3.17808E+04  2.64817E+04 -3.98048E+04
  4.62295E+04 -8.98774E+03  4.02623E+04  2.45806E+04  2.28079E+04  5.46794E+04 -1.50230E+02  5.51896E+04
 -3.19989E+04  3.92024E+04 -5.24461E+04  1.54170E+04 -4.97899E+04 -1.83424E+04 -2.54575E+04 -4.49576E+04
  7.78529E+03 -4.50516E+04  3.86148E+04 -2.10135E+04  3.17136E+04  1.39195E+04  1.16404E+04  2.44109E+04
 -1.15765E+04  8.01140E+03 -1.18822E+04 -1.01232E+04  2.12615E+03 -4.35489E+03  1.97846E+04  1.21849E+04
  1.81806E+04  2.05353E+04 -6.49319E+03  2.89582E+04 -2.79711E+04  1.67039E+04 -3.10944E+04 -1.61534E+02
 -2.79512E+04 -1.31006E+04 -7.77275E+03 -2.51255E+04  2.01423E+03 -2.55327E+04  2.38822E+04 -1.83738E+04
  2.82783E+04 -1.72859E+04  3.99920E+04  3.83186E+03  3.09079E+04  2.43377E+04  7.89815E+02  3.87445E+04
 -1.07584E+04  3.15044E+04 -3.39176E+04  1.19003E+04 -2.16236E+04 -1.21821E+04 -3.69181E+03 -9.56802E+03
  6.40348E+03 -5.55862E+03 -8.37813E+03  6.13225E+03 -1.41598E+04  5.59111E+03 -1.73858E+04 -1.02608E+04
 -1.24854E+04 -2.34261E+04  4.11517E+03 -3.28446E+04  2.43473E+04 -2.23312E+04  1.60079E+04 -4.27416E+03
  1.26892E+04  1.36679E+04 -9.76327E+02  2.60778E+04 -1.39074E+04  1.39586E+04 -2.91620E+04 -5.44354E+03
 -2.04668E+04 -1.76060E+04  1.88822E+03 -2.75738E+04  6.75956E+03 -2.48688E+04  2.68298E+04 -1.36593E+04
  2.37601E+04 -9.20389E+02  1.30805E+04  2.65475E+03  1.12401E+04 -3.90467E+02  1.56984E+04 -9.78603E+02
  2.17589E+04 -2.63407E+03  1.87759E+04  2.08441E+04  3.11229E+04  3.26957E+04 -8.65157E+03  3.85607E+04
 -3.11916E+04  3.37506E+04 -3.90846E+04  1.86096E+04 -4.85101E+04 -4.52014E+03 -3.25010E+04 -2.82257E+04
 -1.26453E+04 -3.56043E+04  1.49814E+04 -3.25419E+04  2.70344E+04 -1.39667E+04  2.42635E+04  1.25237E+04
  1.89765E+04  2.25970E+04 -1.80959E+04  1.48574E+04 -2.37154E+04  6.50529E+03 -1.39591E+04 -1.49253E+04
 -1.41329E+03 -2.14350E+04  1.70065E+04 -1.26626E+04  1.73585E+04  1.21829E+03 -2.56937E+03  5.24613E+03
 -6.70552E+03  6.11732E+03 -3.59409E+03 -3.00509E+03 -1.92387E+03 -1.78999E+04  1.38661E+04 -1.99296E+04
  2.62580E+04 -1.23653E+04  2.71468E+04  8.87294E+02  2.42444E+04  1.65220E+04  6.98729E+03  3.21304E+04
 -3.57720E+03  2.78237E+04 -2.03354E+04  2.11222E+04 -2.30329E+04  8.56759E+03 -1.61689E+04 -7.21170E+03
 -1.15321E+04 -1.72092E+03  6.00964E+03  3.56356E+03 -7.87542E+03 -8.25268E+02 -6.74620E+03  5.92932E+03
 -1.91164E+04  2.14713E+03 -1.86262E+04 -1.59769E+04 -4.23140E+03 -1.33096E+04  1.21662E+04 -1.19120E+04
  6.31968E+03 -1.95938E+03  1.13379E+04  5.52384E+03  1.33296E+02  4.91457E+03 -1.16501E+04  1.78232E+03
 -6.28615E+03 -1.22019E+04  2.75984E+02 -1.93632E+04  1.01446E+04 -1.85335E+04  2.38815E+04 -1.20729E+04
  2.99283E+04  4.32039E+03  1.38079E+04  9.41219E+03  4.82694E+02  1.69711E+04 -3.53198E+03  1.26392E+04
 -1.04381E+04  3.68143E+03 -3.35356E+03 -1.82133E+03  3.33587E+03 -3.92638E+03  8.11102E+03 -7.77331E+02
  1.32188E+04  8.70285E+03  1.13710E+03  1.04340E+04 -1.12056E+04  1.62541E+04 -1.66934E+04  3.78836E+03
 -6.81017E+03 -1.15774E+04  1.38200E+03 -1.06925E+04  9.19457E+03 -9.00709E+03  1.10159E+04  1.31915E+03
  6.46320E+02  1.62863E+04 -3.79899E+03  1.08141E+04 -1.11310E+04  4.26245E+03 -2.36697E+04 -3.68673E+03
 -4.78414E+03 -1.24192E+04  1.54240E+03 -1.65270E+04  1.42387E+04 -9.78326E+03  1.42011E+04 -5.59986E+02
  1.81516E+04  1.04568E+04 -6.42345E+03  1.85482E+04 -1.07780E+04  3.66665E+03 -1.65737E+04  3.76023E+03
 -6.95401E+03 -6.83795E+03 -4.12212E+03 -1.17623E+04  8.42259E+03 -1.03419E+04  1.16418E+04 -7.18678E+03
  6.94335E+03  5.61478E+03  1.12518E+03  4.14193E+03  6.47098E+02 -4.17935E+03  3.18828E+03 -5.70586E+03
  8.60318E+03 -3.21552E+03  1.13778E+04 -1.43510E+03  1.52037E+04  1.20523E+04  7.79384E+03  1.75011E+04
 -7.30386E+03  2.84312E+04 -2.15408E+04  1.50884E+04 -2.33676E+04  3.00402E+03 -1.89551E+04 -1.71801E+04
 -6.43230E+03 -1.32550E+04 -5.94258E+03 -1.35301E+04  4.25006E+03 -8.17731E+03  6.22929E+03 -8.25578E+03
  8.11381E+03 -4.22991E+02  1.00738E+04 -9.58054E+03  1.94340E+03 -7.45031E+03  1.20299E+04 -3.52649E+02
  6.52837E+03 -8.36194E+02  1.00973E+04  1.10843E+04 -4.77369E+03  1.28819E+04 -1.48636E+04  1.24635E+04
 -1.80743E+04 -2.30112E+03 -6.41157E+03 -1.42969E+04 -6.78686E+03 -1.12657E+04  6.21772E+03 -1.44970E+04
  1.22586E+04 -9.83975E+03  1.83312E+04  2.26472E+03  1.28828E+04  1.94240E+04 -1.97768E+03  1.50477E+04
 -6.64980E+03  1.63442E+04 -9.80938E+03 -3.69389E+03 -8.35401E+03 -5.70277E+03  9.23102E+02 -4.81828E+02
 -1.72109E+03 -4.84169E+03 -2.98084E+03 -1.03495E+03 -1.10549E+04  6.09133E+03 -1.27012E+04  4.25920E+02
 -2.68226E+03 -1.26597E+04  3.54066E+02 -1.22941E+04  7.19130E+03 -1.48246E+04  1.15422E+04 -1.03051E+04
  8.06165E+03  8.45565E+03  6.28847E+03  1.29188E+04  1.75017E+03  1.43525E+04 -1.04707E+04  3.45191E+03
 -1.86229E+04  1.81055E+03 -1.59741E+04 -9.06962E+03 -3.40054E+03 -1.25592E+04  8.01881E+03 -4.72295E+03
  4.85404E+03 -7.47173E+03  6.17321E+03  9.00720E+03  3.45050E+03  1.70421E+03  7.51260E+03  9.69958E+02
  2.49791E+03 -4.51552E+03  4.61461E+03  4.22763E+03 -2.57569E+02  6.00573E+03 -1.63128E+03  1.00488E+04
 -8.03312E+02  1.04125E+04 -1.21820E+04  3.61452E+03 -1.87322E+04  5.91285E+03 -1.25847E+04 -2.60209E+03
 -1.49673E+04 -1.75979E+04  6.09619E+03 -1.25496E+04  7.85556E+03 -7.49431E+03  1.31506E+04  2.34911E+02
  5.56030E+03  4.21290E+03 -6.19622E+01  1.66258E+03 -3.09001E+03  3.67789E+03 -4.84986E+03 -5.44417E+03
  2.92566E+03 -5.82033E+03  1.37140E+03 -9.06384E+03  9.94487E+03 -8.44300E+03  7.52059E+03  5.94564E+03
  3.26732E+03  5.79801E+03 -2.86942E+03 -4.99094E+02 -4.34065E+03  2.15455E+03  7.55741E+03  7.30165E+01
  3.37879E+03  4.10425E+02  2.96680E+03  4.10154E+03  4.80533E+03  2.77154E+03  2.58647E+03  9.51880E+03
 -1.31848E+04  1.41361E+04 -7.35674E+03  1.86510E+03 -7.80009E+03 -3.18542E+03 -3.01507E+03 -6.98892E+03
  2.77738E+03  4.73391E+02  5.00337E+03 -5.61742E+03 -4.41890E+01 -3.31911E+03 -3.23013E+03  1.12274E+04
 -9.28205E+03  3.84707E+03 -9.86543E+03 -1.00610E+03 -3.15559E+03 -6.71222E+03 -1.82056E+03 -9.02496E+03
  5.13086E+03 -3.06847E+03  1.13811E+04 -2.14301E+03  4.05193E+03  2.11734E+03 -1.91359E+03  3.36038E+03
 -6.34766E+02 -1.33355E+02 -8.46659E+03  2.90519E+03  4.04156E+03 -9.71813E+03  1.27588E+04 -3.47552E+03
  1.07996E+04 -5.01734E+02  5.50735E+03  1.45278E+03  5.71998E+03  1.33030E+04 -6.49741E+03  9.87931E+03
 -1.07891E+04  5.40712E+02 -8.41135E+03 -6.21010E+03 -4.91650E+03 -7.12379E+03  8.11130E+03 -3.50599E+03
 -1.33723E+02 -8.55647E+03  5.29495E+03  5.78530E+03  2.26452E+03  8.91585E+03  1.83177E+03  5.98066E+03
 -2.81732E+03  4.64854E+03 -5.68266E+03  4.15428E+03 -4.43654E+03  5.86990E+03 -2.52445E+01 -3.37901E+03
 -1.32722E+03  7.17006E+03 -3.10770E+03  5.88446E+03 -1.02159E+04  5.85637E+03 -1.32362E+04 -8.57662E+03
 -8.36133E+03 -1.12964E+04  1.81961E+03 -1.63160E+04  9.90795E+03 -8.39656E+03  2.04259E+04 -9.16244E+03
  9.00412E+03  3.37427E+03  2.87611E+03  1.17114E+04  1.52736E+03  1.03689E+04 -1.29195E+03  3.10433E+03
 -3.47188E+03  4.18960E+03  1.22313E+03  3.48866E+02  4.76880E+02  2.47437E+03  5.83662E+03  3.80720E+03
 -2.30129E+03 -3.12077E+03 -1.41435E+03  3.12295E+03 -2.22344E+03 -2.67161E+03 -2.13470E+03 -5.04689E+03
  5.97354E+03 -5.21698E+03  4.16200E+02  2.60787E+03  1.33725E+04  5.30137E+03  4.23863E+03  2.66260E+03
 -3.52607E+03  5.46070E+03 -1.13897E+04  2.56906E+03 -1.35723E+04  2.65976E+03 -7.86726E+03 -1.03747E+04
 -8.59047E+03 -9.03872E+03  7.34592E+03 -9.75822E+03  5.55584E+03 -3.75761E+03  9.70674E+03  9.58380E+02
  5.53653E+03  2.59647E+03  3.11129E+03  4.79992E+03 -4.48585E+03 -1.75580E+03 -1.44842E+03 -4.09718E+03
  1.39898E+04 -5.47158E+03  2.89618E+03 -2.24490E+03  2.60581E+03  5.66294E+03  7.63605E+02  9.43634E+03
 -1.20851E+03  6.87514E+03 -3.51473E+03 -2.65854E+02 -7.72990E+03 -1.63756E+03  5.21482E+03 -1.15010E+04
  8.16581E+03 -4.72471E+03  1.18449E+04  1.43424E+03  6.38913E+03  3.81502E+03  6.35669E+03  6.82863E+03
 -3.53672E+03  4.91433E+03 -4.21460E+03  3.39274E+03 -9.05284E+03  1.50422E+03 -5.32904E+03  8.63030E+02
  2.06002E+03  1.39215E+03 -6.71072E+02  3.59950E+03 -3.82416E+03  7.44197E+03 -6.89161E+03 -1.82573E+03
 -5.06048E+03 -1.52102E+03 -8.98955E+02 -1.26527E+04  1.18922E+03 -5.29456E+03  5.34902E+03 -2.64047E+03
  7.62797E+03  5.98292E+03  1.05035E+04 -1.44690E+03 -4.10851E+03  5.54049E+03  1.44691E+03  3.45853E+02
