 $NMID ID='MM_0lb_SNR50_11hz_g60_16.RAW', FMTDAT='(8E13.5)'
 TRAMP=1., VOLUME=1. $END
  3.09110E+05  4.01610E+03  3.39618E+05  2.51085E+05  8.26456E+04  3.41339E+05 -1.32459E+05  2.49948E+05
 -1.90214E+05  8.36437E+04 -1.12288E+05 -3.10864E+04  5.50472E+03 -5.57158E+04  4.90356E+04 -1.11248E+03
  3.88886E+04  5.28510E+04 -1.85891E+04  7.89268E+04 -6.26149E+04  6.39850E+04 -8.92631E+04  3.12136E+04
 -8.58996E+04 -1.19334E+04 -6.31779E+04 -5.52588E+04 -1.14423E+04 -7.00711E+04  2.70508E+04 -4.85874E+04
  4.33178E+04  6.05501E+03  1.82064E+04  4.34621E+04 -3.26359E+04  4.39304E+04 -6.73356E+04  3.28907E+03
 -5.20852E+04 -5.89526E+04 -7.77520E+03 -8.16040E+04  3.03169E+04 -6.06437E+04  5.28117E+04 -1.31861E+04
  4.42743E+04  9.39168E+03  3.29455E+04  2.46354E+04  1.64115E+04  2.79269E+04 -8.16837E+03  3.07277E+04
 -2.54786E+04  9.96796E+03 -2.24032E+04 -2.18851E+03  7.75719E+03 -6.89468E+03  2.04496E+04  1.32428E+04
  7.20150E+03  3.43673E+04 -3.42650E+04  3.86410E+04 -6.94670E+04 -1.32981E+02 -5.51544E+04 -4.09619E+04
 -1.63221E+04 -6.78213E+04  4.52342E+04 -4.61404E+04  5.98008E+04 -9.29585E+02  3.34480E+04  3.79374E+04
 -5.14791E+03  3.69680E+04 -3.28344E+04  1.67545E+04 -3.15429E+04 -9.12336E+03 -1.66980E+04 -8.37908E+03
 -1.05824E+04 -1.14193E+04  1.74114E+03 -2.21404E+04  7.08488E+03 -2.21606E+04  1.23210E+04 -1.00004E+04
  1.51760E+04  8.10022E+03 -6.24948E+03  1.56804E+04 -2.46527E+04 -5.91401E+03 -1.13360E+04 -3.49493E+04
  3.21071E+04 -4.97654E+04  5.42298E+04 -2.06107E+04  4.93726E+04  2.36572E+04  1.98565E+04  4.88678E+04
 -1.55753E+04  3.94806E+04 -3.01173E+04  5.12004E+03 -1.02376E+04 -3.03438E+04  1.68800E+04 -4.10467E+04
  4.26959E+04 -8.46827E+03  3.87703E+04  2.79435E+04  2.27670E+04  4.69784E+04 -6.04788E+03  5.67799E+04
 -3.39032E+04  3.87188E+04 -4.39543E+04  8.76591E+03 -4.89815E+04 -1.79565E+04 -2.87129E+04 -4.00103E+04
  5.33050E+03 -3.67242E+04  2.95106E+04 -1.71045E+04  2.88160E+04  1.15746E+04  5.33499E+03  2.78376E+04
 -1.80490E+04  1.09574E+04 -1.28074E+04 -8.29305E+03  5.21908E+03 -5.69748E+03  2.26144E+04  5.66991E+03
  1.61423E+04  2.59337E+04 -4.24012E+03  2.69219E+04 -2.02697E+04  1.61980E+04 -3.07564E+04  1.83033E+03
 -2.47398E+04 -1.98302E+04 -1.10135E+04 -2.86417E+04  8.98474E+03 -2.36044E+04  1.97394E+04 -2.12774E+04
  2.84674E+04 -9.80097E+03  3.84530E+04  3.41690E+03  2.47077E+04  2.60397E+04  9.44967E+03  3.93504E+04
 -1.24867E+04  2.92245E+04 -2.33393E+04  1.04190E+04 -2.87314E+04 -1.13244E+04 -4.77365E+03 -9.27307E+03
  5.41191E+01 -3.48827E+03 -6.29274E+03  4.47435E+03 -2.57344E+04  3.54087E+03 -2.40607E+04 -4.65550E+03
 -8.86174E+03 -1.77122E+04  3.60108E+03 -2.77001E+04  1.97464E+04 -2.30492E+04  1.84688E+04 -3.14234E+01
  1.18223E+04  1.62930E+04  1.61946E+03  2.64784E+04 -1.56054E+04  9.96898E+03 -2.23816E+04 -3.45371E+03
 -1.44221E+04 -2.64525E+04 -2.92963E+03 -2.36291E+04  5.86209E+03 -2.40698E+04  2.98268E+04 -1.26794E+04
  1.78370E+04 -1.08701E+03  1.69649E+04  7.65892E+03  6.76537E+03  9.33536E+03  1.29884E+04 -2.74547E+03
  2.09135E+04  1.27572E+03  2.78754E+04  1.82873E+04  2.06368E+04  3.20058E+04 -2.21636E+03  3.90848E+04
 -2.27109E+04  3.29552E+04 -4.30172E+04  1.55246E+04 -3.99604E+04 -5.09348E+02 -3.20623E+04 -2.48741E+04
 -1.88815E+04 -3.35427E+04  9.60655E+03 -3.28359E+04  2.95478E+04 -1.61017E+04  1.94849E+04  6.60369E+03
  1.10310E+04  1.89433E+04 -1.25770E+04  2.00615E+04 -1.89823E+04  3.59627E+03 -1.23894E+04 -1.22528E+04
 -1.43991E+03 -1.79888E+04  8.83473E+03 -1.69794E+04  1.36566E+04 -3.94999E+03 -1.75188E+02  6.78913E+03
 -9.68473E+03  5.43707E+03 -1.01543E+04 -6.77322E+03  9.47716E+02 -1.59224E+04  1.67232E+04 -2.23299E+04
  2.34915E+04 -1.44458E+04  2.96666E+04  7.77583E+03  1.74769E+04  1.54187E+04  9.12926E+03  2.82619E+04
 -4.25080E+03  2.89517E+04 -2.10656E+04  1.48043E+04 -1.55862E+04  2.96805E+03 -1.94565E+04 -7.51216E+03
 -5.64325E+03 -1.35960E+04 -4.44552E+03 -5.96767E+02 -2.90579E+03  4.13798E+03 -1.13830E+04  1.65124E+03
 -1.17035E+04 -4.98837E+02 -1.42203E+04 -9.09472E+03 -8.47198E+03 -2.03150E+04  7.88926E+03 -1.19706E+04
  1.45708E+04 -4.20184E+03  3.54709E+03  2.37227E+03 -2.89873E+03  7.68153E+03 -5.69759E+03  2.04646E+02
 -5.16423E+02 -1.14051E+04  3.69956E+03 -1.20144E+04  1.04897E+04 -1.44388E+04  2.51362E+04 -1.23086E+04
  2.18061E+04 -5.17828E+02  1.96257E+04  1.64563E+04  2.17534E+03  1.57384E+04 -9.79508E+03  1.07260E+04
 -1.27351E+04  3.47188E+03 -3.48108E+03 -6.53762E+03  8.92800E+02 -5.19745E+03  1.02574E+04 -3.17762E+03
  8.86083E+03  9.49142E+03  1.13039E+03  8.89053E+03 -1.11994E+04  1.55073E+04 -1.98307E+04  9.49293E+03
 -7.57795E+03 -1.01185E+04  2.43245E+02 -2.05006E+04  4.50788E+03 -1.01477E+04  3.64081E+03  4.45644E+03
  3.85461E+03  1.11112E+04 -1.11137E+04  1.53121E+04 -1.30487E+04  9.70867E+03 -8.66905E+03 -4.17028E+03
 -4.40700E+03 -1.74410E+04  6.78202E+03 -1.38429E+04  1.31084E+04 -1.04682E+04  2.09452E+04  9.16031E+02
  9.18915E+03  9.21418E+03 -3.53931E+03  1.48666E+04 -9.69431E+03  1.33627E+04 -8.94218E+03 -1.79204E+03
 -5.99136E+03 -1.05383E+04  8.71866E+03 -6.02841E+03  3.68236E+02 -3.74868E+03  1.19491E+04 -1.79507E+03
  3.21428E+03  4.29034E+03 -2.22044E+03 -1.27353E+03 -5.34371E+03  2.93708E+03 -3.40631E+02 -4.68256E+03
  1.72424E+04 -9.39512E+03  1.68093E+04  2.41634E+03  1.57421E+04  1.03404E+04  9.93978E+03  2.15143E+04
 -5.68564E+03  1.61788E+04 -2.18166E+04  1.35384E+04 -2.11605E+04 -1.92129E+03 -1.92806E+04 -1.27974E+04
 -8.70046E+03 -9.79037E+03  1.06678E+03 -1.10461E+04  8.13218E+03 -1.61391E+03  7.80279E+03 -9.37325E+03
  4.88634E+03 -1.01220E+03  1.47616E+03 -3.21370E+03  2.34435E+03 -5.76718E+03  3.88748E+03 -1.17281E+03
  1.02601E+04  2.94512E+03  3.24989E+03  7.07386E+03 -7.07692E+02  1.09577E+04 -6.56422E+03  8.35279E+03
 -1.15030E+04  3.72665E+03 -7.29051E+03 -9.58829E+03 -5.96753E+03 -1.18072E+04  5.73646E+03 -1.16595E+04
  1.14372E+04 -1.18225E+04  2.05493E+04  5.45462E+03  1.97940E+04  1.60638E+04 -6.65225E+02  1.15076E+04
 -5.21254E+03  1.02429E+04 -8.09130E+03 -1.70031E+03 -7.97334E+03 -5.85288E+02 -4.46641E+03 -2.55362E+03
 -3.89455E+03  2.93502E+03 -2.84745E+03  8.50666E+03 -7.83739E+03  2.69751E+03 -8.03793E+03 -7.66069E+02
 -3.97946E+03 -8.81720E+03  1.42573E+03 -1.45896E+04  3.33915E+03 -1.12668E+04  1.39979E+04 -5.14664E+03
  1.11088E+04  5.93390E+02  4.24863E+03  1.10425E+04 -5.56505E+03  1.25703E+04 -8.54058E+03  2.91223E+03
 -1.57890E+04 -1.47460E+03 -8.15843E+03 -1.87871E+03 -5.08622E+03 -7.88156E+03  3.69935E+02 -4.63103E+03
  1.32038E+04 -4.58705E+03  1.20350E+03  4.11509E+02 -5.24062E+03  3.22377E+03  2.68942E+03 -9.66971E+02
  3.48460E+03  3.23627E+03  7.77417E+03  3.30048E+03  5.08612E+03  6.43457E+03 -1.59668E+03  7.18858E+03
 -3.11252E+03  7.40633E+03 -1.02417E+04  7.93831E+03 -1.35384E+04  1.48891E+03 -1.36886E+04 -7.45235E+03
 -4.51565E+03 -1.26278E+04  6.31946E+03 -1.51621E+04  2.93077E+03 -9.24031E+03  1.01975E+04  4.14425E+03
  8.89005E+03  4.54396E+03  1.92929E+03  6.91464E+03 -7.81824E+03  7.35469E+03  1.23123E+03 -1.79533E+03
 -1.10616E+03 -7.16470E+03  1.79012E+03 -1.66368E+03  9.67621E+03 -1.21790E+03 -5.79947E+00  3.95001E+03
  9.91012E+02  4.43104E+03 -1.77791E+03 -1.56112E+03  3.80279E+03  3.68338E+02  2.54903E+02 -3.29967E+03
  2.68088E+03  3.05607E+03 -1.82069E+03  5.03985E+03  1.98146E+03  9.03373E+03  4.37365E+02  1.74529E+04
 -3.62759E+03  4.21707E+03 -9.22704E+03  3.57934E+03 -6.20667E+03 -5.19061E+03  1.27853E+03 -5.10911E+03
  2.71431E+03 -9.86518E+03 -8.21596E+02 -2.94941E+02  2.86632E+03  2.09351E+03 -2.97405E+03  3.56074E+03
 -5.60490E+03  1.42722E+03 -1.06662E+04 -4.92232E+03 -5.58407E+03 -2.53120E+03  2.27044E+03 -7.69519E+03
  4.00231E+03  2.33858E+03  9.27516E+03 -4.70932E+03 -3.83926E+02  5.65314E+03  2.13158E+03  3.38326E+03
 -4.61838E+03 -2.47091E+03 -1.54909E+03 -3.46391E+03  4.07406E+03 -4.04368E+03  5.97208E+03 -5.17946E+03
  1.33036E+04 -2.93172E+03  1.15357E+04  8.33050E+03  2.87242E+03  3.76982E+03 -2.03645E+02  6.16445E+03
 -6.17701E+03  3.26446E+03 -8.99367E+03 -1.65712E+03 -2.47798E+03 -5.58893E+03  1.34168E+03  1.76665E+02
  7.01868E+03 -8.71559E+02  1.14925E+04 -1.83986E+03  3.86522E+03 -9.53701E+02  3.73816E+03  7.21206E+03
 -6.20953E+02  4.63729E+03 -1.15084E+03  4.29200E+03  7.06287E+02 -2.08234E+03  9.54613E+02  1.30168E+02
 -6.68089E+03  5.75664E+03 -1.86138E+03  6.14154E+03 -1.19237E+04  2.68392E+03 -8.13626E+03 -2.01224E+03
  2.31009E+03 -1.25232E+04  4.25473E+03 -1.23783E+04  7.52580E+03 -7.69231E+03  1.66872E+04  1.81118E+03
  1.16687E+04  1.80339E+03  7.55205E+03  3.92133E+03 -6.29900E+03  8.96639E+03 -1.77428E+03  4.22142E+03
 -4.71682E+03  2.92890E+03 -2.82890E+03 -3.09709E+02  4.66634E+03 -1.09469E+03 -2.82729E+03  4.72891E+02
 -1.36121E+03 -1.88977E+03  3.20387E+03 -1.85810E+03 -1.25454E+03 -3.63389E+03 -2.68492E+03  2.81114E+03
 -4.19023E+02 -3.61806E+03  8.95621E+02  6.70410E+03  4.47168E+03  6.63720E+03  2.44409E+02  9.15482E+03
 -2.18331E+03  8.11023E+03 -1.26299E+04  8.05386E+03 -9.69317E+03 -1.04476E+04 -3.51016E+03 -8.86175E+03
 -2.90549E+03 -7.35282E+03 -3.97120E+03 -1.10526E+04  2.48820E+03 -1.71253E+03  3.49351E+03 -1.51986E+03
 -2.71159E+03  3.14815E+03  2.78582E+03 -5.34094E+01  2.69942E+03 -2.83288E+02  1.23060E+02 -5.52391E+03
  6.51812E+03 -4.66489E+03  4.49432E+03 -1.08213E+03 -2.10828E+03  5.34016E+03 -3.27952E+03  6.81172E+03
 -3.30033E+03  6.17616E+03 -8.25173E+03 -2.04547E+03 -4.32970E+03 -4.24055E+03 -1.20409E+02 -3.36103E+03
  3.27047E+03 -9.09069E+03  8.30113E+03 -4.43703E+03  9.28105E+03 -2.91131E+03  6.20010E+03 -5.28006E+03
 -1.60563E+03  3.60278E+03 -2.78785E+03  1.19420E+04 -2.17519E+02 -1.15831E+03  5.04063E+03  9.32362E+01
  5.50650E+03 -1.45605E+03  3.40621E+03  4.24630E+03  2.12453E+03  2.89608E+03 -9.78673E+02 -4.54691E+03
 -2.81054E+02 -8.54562E+03  3.04392E+03 -4.12100E+03  1.03166E+02 -9.34545E+02  3.70229E+03 -3.66382E+03
  8.81696E+03  4.46067E+03  3.61343E+03  9.44711E+02  1.90453E+02  5.80042E+03 -1.03821E+03  2.86450E+03
