 $NMID ID='MM_0lb_SNR50_7hz_g60_71.RAW', FMTDAT='(8E13.5)'
 TRAMP=1., VOLUME=1. $END
  3.06233E+05  3.91228E+03  3.31752E+05  2.44163E+05  8.41024E+04  3.34148E+05 -1.31449E+05  2.53011E+05
 -1.94391E+05  8.61323E+04 -1.09263E+05 -1.77851E+04 -2.65982E+03 -5.06238E+04  4.85195E+04  3.18647E+03
  3.79064E+04  5.29112E+04 -1.78256E+04  7.07224E+04 -5.78543E+04  6.50289E+04 -8.21806E+04  3.06772E+04
 -8.30998E+04 -1.66075E+04 -4.81895E+04 -4.83644E+04 -1.24874E+04 -7.27462E+04  2.65028E+04 -4.13789E+04
  4.26989E+04  2.69958E+03  1.46751E+04  5.20961E+04 -2.79443E+04  4.77184E+04 -7.11386E+04 -2.57862E+03
 -5.13855E+04 -5.31623E+04 -5.22896E+03 -8.17780E+04  3.71396E+04 -5.03736E+04  5.20192E+04 -1.70484E+04
  4.91237E+04  1.32773E+04  2.17812E+04  3.27166E+04  1.34213E+04  2.83808E+04 -7.48635E+03  3.18224E+04
 -2.47340E+04  7.73096E+03 -1.82626E+04 -4.54235E+03  3.05933E+03 -1.36445E+04  2.18668E+04  1.39730E+04
  5.73704E+03  3.58164E+04 -3.22494E+04  3.13730E+04 -6.68150E+04  1.70356E+03 -5.91769E+04 -3.99689E+04
 -1.37930E+04 -7.05304E+04  3.99394E+04 -4.78054E+04  5.41941E+04 -1.30436E+03  3.80708E+04  3.60917E+04
 -9.21289E+03  3.96854E+04 -2.96956E+04  1.35362E+04 -3.21720E+04 -7.99501E+03 -2.42556E+04 -1.20790E+04
 -4.14089E+03 -2.15359E+04 -2.63052E+03 -2.02750E+04  1.03705E+04 -2.05204E+04  1.81227E+04 -4.99962E+03
  6.83020E+03  7.58113E+03 -1.30617E+04  1.48401E+04 -1.62053E+04 -4.55562E+03 -2.00924E+04 -3.08274E+04
  2.35656E+04 -5.42897E+04  4.96587E+04 -1.54528E+04  5.22939E+04  1.86750E+04  1.94503E+04  5.29025E+04
 -1.90359E+04  2.89668E+04 -2.77682E+04  1.01394E+03 -1.87528E+04 -3.56660E+04  2.21933E+04 -3.51665E+04
  4.30720E+04 -1.61235E+04  4.23886E+04  1.95783E+04  2.49278E+04  5.46459E+04 -9.92233E+03  6.16822E+04
 -4.13241E+04  4.29976E+04 -5.31034E+04  2.51030E+03 -4.70037E+04 -1.72752E+04 -1.91756E+04 -5.15496E+04
  1.05456E+04 -4.78567E+04  3.51615E+04 -2.59282E+04  3.64986E+04  5.82051E+03  4.29550E+03  2.21166E+04
 -4.71227E+03  1.33661E+04 -1.25570E+04 -6.19022E+03  2.78517E+03 -9.41847E+03  1.49400E+04  2.20848E+03
  1.32901E+04  2.81512E+04  1.32354E+03  3.33020E+04 -3.59940E+04  1.81152E+04 -2.65183E+04 -8.57879E+03
 -2.31222E+04 -1.59627E+04 -1.13016E+04 -3.19211E+04  3.62940E+03 -2.75146E+04  1.54744E+04 -3.16384E+04
  3.79186E+04 -1.42722E+04  4.06512E+04  1.12222E+04  3.12108E+04  3.06330E+04  6.58014E+03  4.04452E+04
 -1.86115E+04  3.59992E+04 -3.12186E+04  1.58540E+04 -3.01751E+04 -4.41585E+03 -1.99950E+03 -2.06940E+04
 -5.54255E+02 -2.88001E+03 -1.09878E+04  1.07240E+04 -1.97408E+04  5.63662E+03 -2.80119E+04 -1.39569E+04
 -9.90423E+03 -2.61239E+04  5.23338E+03 -3.89192E+04  2.90152E+04 -2.53470E+04  1.77757E+04 -1.86672E+03
  1.81437E+04  2.11618E+04  1.91796E+03  2.81842E+04 -1.49074E+04  1.14449E+04 -2.91479E+04 -8.00204E+03
 -2.29111E+04 -2.11201E+04  4.86362E+02 -3.41100E+04  1.56610E+04 -2.96850E+04  2.17394E+04 -1.39617E+04
  1.36114E+04  6.80195E+02  1.72186E+04  4.62243E+03  1.25332E+04  3.74651E+02  2.55877E+04 -1.69705E+03
  2.49944E+04  1.58249E+02  3.13041E+04  1.90411E+04  2.13534E+04  4.41563E+04  2.43264E+03  4.76535E+04
 -2.33341E+04  3.89820E+04 -5.91434E+04  1.56985E+04 -5.35528E+04  5.66125E+03 -4.37688E+04 -2.92022E+04
 -1.49039E+04 -4.08265E+04  1.86601E+04 -5.21383E+04  3.82988E+04 -1.54534E+04  2.84253E+04  9.28553E+03
  1.42160E+04  1.94617E+04 -1.64455E+04  2.01976E+04 -1.73999E+04 -5.42521E+02 -2.05709E+04 -1.53895E+04
 -5.50037E+03 -1.56919E+04  2.59963E+03 -2.34247E+04  1.95905E+04 -1.57654E+03  7.71928E+03 -1.10640E+03
 -1.38259E+04  2.53004E+03 -1.79097E+04 -3.49605E+03 -3.83010E+03 -2.32279E+04  1.44588E+04 -2.72697E+04
  3.06558E+04 -1.06147E+04  3.80423E+04  6.17629E+03  2.80141E+04  3.16952E+04  8.96638E+03  2.99515E+04
 -1.21619E+04  4.01431E+04 -2.63653E+04  1.93754E+04 -2.87259E+04  4.86780E+03 -2.27898E+04 -1.30652E+04
 -6.88680E+03 -6.20838E+03 -6.35563E+03  4.59320E+03  1.69752E+03  3.51427E+03 -6.11066E+03  5.49647E+03
 -2.69976E+04 -7.23239E+03 -2.05397E+04 -1.92931E+04 -5.73625E+03 -1.77701E+04 -1.18427E+03 -2.95190E+04
  1.41505E+04 -1.07021E+04  1.46721E+04  4.00242E+03 -3.96976E+03  7.04733E+03 -2.99445E+03 -2.95811E+03
 -9.66034E+03 -1.43802E+04 -9.43125E+03 -2.35826E+04  1.04916E+04 -2.32118E+04  2.94168E+04 -1.17846E+04
  3.18671E+04  3.50747E+03  1.14036E+04  2.24832E+04 -5.13018E+02  2.40834E+04 -5.01610E+03  9.94716E+03
 -1.69119E+04  5.28614E+03 -9.33904E+03 -3.84392E+03  1.09375E+03 -1.04550E+04  5.01706E+03 -2.60260E+03
  1.29771E+04  1.22238E+04  5.78061E+03  1.64885E+04 -8.88893E+03  1.95926E+04 -1.44750E+04  3.83129E+03
 -1.18228E+04 -6.57313E+03 -2.01672E+02 -1.71242E+04  8.81595E+03 -9.93795E+03  1.65370E+04  2.58607E+03
  1.01731E+03  1.63083E+04 -7.47587E+03  1.01687E+04 -1.98981E+04  6.18665E+03 -2.26282E+04 -1.28174E+04
 -2.86669E+03 -1.85225E+04  4.28361E+03 -2.57538E+04  2.29023E+04 -1.79152E+04  1.65455E+04 -1.70664E+03
  1.40795E+04  2.04891E+04 -7.83294E+03  1.71182E+04 -1.13274E+04  8.40413E+03 -2.10679E+04 -9.19229E+02
 -6.32320E+03 -1.12762E+04  1.19416E+03 -1.44258E+04  6.98005E+03 -1.21776E+04  1.08290E+04 -5.88032E+02
  7.42663E+03  5.60789E+03 -2.89526E+03  5.93113E+03 -8.25339E+03 -1.08297E+04  8.78253E+03 -7.86339E+03
  1.55305E+04 -9.54129E+03  2.30847E+04  1.26285E+03  1.63245E+04  1.37317E+04  9.44527E+03  2.48686E+04
 -8.98378E+03  3.25069E+04 -2.25107E+04  2.43620E+04 -2.87791E+04 -7.81760E+02 -2.62520E+04 -1.14154E+04
 -9.08267E+03 -2.01204E+04  5.44828E+03 -1.93655E+04  8.07536E+03 -4.58795E+03  1.15994E+04 -9.41355E+03
  2.54359E+03 -9.15040E+03  6.07170E+03 -5.19491E+03  6.52883E+03 -5.62918E+03  9.85242E+03  5.75022E+03
  1.33432E+04  4.22504E+03  1.38668E+04  1.53620E+04 -3.90254E+03  8.04826E+03 -2.25109E+04  1.73129E+04
 -2.06020E+04 -5.22330E+03 -1.67602E+04 -1.55561E+04  1.40204E+03 -2.23803E+04  1.01792E+04 -1.60113E+04
  2.32038E+04 -9.51718E+03  2.38780E+04  7.51099E+03  9.63211E+03  1.76433E+04  6.25412E+03  1.73895E+04
 -6.31028E+03  1.62687E+04 -2.21624E+04  5.84997E+03 -1.92054E+04  4.71665E+03 -6.68559E+03 -4.61128E+03
 -8.72329E+03  9.81387E+02 -6.53321E+03  1.17900E+04 -1.04341E+04  2.45638E+03 -8.99938E+03  3.80678E+03
 -1.30483E+04 -1.37082E+04  8.07306E+02 -1.91959E+04  1.60608E+04 -1.77528E+04  1.91127E+04 -2.46466E+03
  1.84633E+04  7.17951E+03  6.92600E+03  1.87510E+04 -2.97714E+03  1.70999E+04 -1.30717E+04  2.27069E+04
 -1.58362E+04 -7.44567E+03 -9.13982E+03 -8.13884E+03 -4.69062E+03 -1.63323E+04  9.65098E+02 -1.17596E+04
  1.64080E+04 -4.82276E+02  5.20048E+03 -1.14006E+03  2.94265E+02  2.74606E+03  3.19657E+03  2.23333E+03
  5.03149E+03  2.13537E+03  7.52399E+03 -3.31733E+03  2.74952E+03  2.21821E+03  7.57129E+03  2.94010E+03
 -6.45933E+03  1.41761E+04 -1.85579E+04  1.82072E+04 -2.41226E+04  4.81299E+03 -2.61147E+04 -1.66367E+04
 -9.00366E+03 -2.62035E+04  2.77660E+03 -1.77154E+04  1.25785E+04 -1.42568E+04  1.91927E+04 -3.83099E+03
  1.51114E+04  5.68322E+03 -3.15754E+02  1.96346E+04 -1.10874E+04  1.25149E+04  2.28439E+03 -8.83206E+02
 -1.58904E+03 -1.34537E+04 -1.17450E+03 -1.27730E+04  1.03044E+04 -3.11738E+03  4.53900E+03  5.66551E+03
  8.79333E+03  1.12357E+03  3.48235E+03  5.38880E+03 -3.01161E+03  2.76941E+03 -2.28145E+03 -3.10228E+03
  9.27452E+03 -8.37204E+03  1.29692E+04  1.72174E+03  5.21169E+03  1.07219E+04 -7.09243E+03  2.62065E+04
 -1.07301E+04  1.13465E+04 -5.67300E+03  1.27677E+04 -1.44018E+04 -1.19862E+04 -8.14112E+03 -1.21553E+04
 -1.89311E+02 -8.99976E+03  8.87642E+03 -1.19950E+03  8.13846E+03  7.22731E+03 -4.07371E+03  1.60676E+04
 -1.31812E+04  4.13574E+03 -1.67601E+04 -1.56278E+04 -6.68273E+03 -1.01865E+04  2.20482E+03 -1.23223E+04
  3.48316E+03 -9.08084E+03  3.07820E+03  3.86909E+03  1.35642E+04 -7.06641E+02  1.37004E+03  2.53729E+03
 -3.32334E+02 -6.39958E+02 -1.23910E+04 -1.27968E+03 -3.50029E+03 -8.97083E+03  1.30328E+04 -1.12919E+04
  2.14331E+04  5.48922E+03  1.73284E+04  1.08462E+04  2.30976E+03  7.49393E+03 -6.34136E+03  2.07404E+04
 -6.79731E+03  3.08817E+03 -9.30195E+03 -1.84326E+03 -1.14755E+04 -1.45288E+04 -1.26381E+03 -1.37220E+04
  6.01050E+03 -2.72949E+03  1.00503E+04  2.58663E+03  4.79903E+03  3.56440E+03 -1.60264E+03  5.81123E+03
 -5.26785E+03  5.13289E+03 -1.35706E+04 -1.83646E+03 -3.69359E+03  1.89176E+03 -5.97664E+03  4.77227E+02
  2.18066E+03  4.81634E+03 -1.22684E+04  2.39585E+02 -1.87678E+04 -3.75377E+03 -2.16447E+04 -1.42114E+04
 -3.30750E+03 -2.00600E+04  8.72767E+03 -2.13811E+04  1.77348E+04 -1.01230E+04  1.55893E+04 -2.41929E+03
  1.80088E+04  4.63895E+03  1.00935E+04  1.65139E+04 -1.66149E+03  1.79676E+04 -2.60611E+03  1.14818E+04
 -6.54668E+03  4.13146E+03 -6.48342E+03  3.17696E+03 -1.03898E+03  4.44805E+03 -2.98264E+03 -7.19851E+03
 -8.14893E+03  1.41003E+03 -6.98948E+03  5.42137E+02 -7.16058E+02 -8.05725E+03  3.64690E+03 -1.10047E+04
  6.76381E+03 -1.21634E+04  6.06870E+03  5.24789E+03  8.85194E+03  4.94687E+03  3.87595E+03  7.80362E+03
 -1.74298E+03  1.45739E+04 -7.12861E+03  1.51454E+04 -2.46515E+04 -3.78874E+03 -1.25042E+04 -1.05739E+04
 -1.14303E+03 -1.94179E+04 -3.43493E+03 -2.37871E+04  8.43456E+03 -1.77214E+04  1.67797E+04 -2.15470E+03
 -3.61088E+02  1.33163E+04 -8.36240E+03  6.27428E+03  3.15963E+03  1.02996E+04 -3.16317E+03  3.33333E+03
  2.75645E+02  3.66265E+03  7.49535E+03  4.08527E+01  7.54034E+03  2.79240E+03 -5.33243E+03  1.71067E+04
 -6.31888E+03  7.67573E+03 -1.30995E+04  1.96633E+03 -1.02523E+04 -8.91833E+03  3.64465E+03 -9.18654E+03
  1.47133E+04 -1.01473E+04  9.89821E+03 -1.73443E+03  8.78413E+03  7.16531E+01 -3.65932E+03  1.48271E+04
  8.17577E+02  8.40526E+03 -5.07274E+03  7.72325E+03 -6.72417E+02  4.68323E+03 -4.35107E+02 -5.27781E+03
  1.22597E+03  5.38322E+03  2.43124E+03 -1.17570E+03 -9.11062E+03  2.63208E+03 -1.01171E+04 -2.51802E+03
 -1.11858E+04 -1.00281E+04 -2.44452E+02 -1.48081E+04  2.78193E+03 -1.40510E+04  1.42617E+04 -1.12475E+04
  8.94620E+03 -1.60476E+03  3.77050E+03  1.00513E+04  8.19036E+02  1.16842E+04 -6.77090E+03  6.07753E+03
