 $NMID ID='MM_0lb_SNR50_11hz_g60_41.RAW', FMTDAT='(8E13.5)'
 TRAMP=1., VOLUME=1. $END
  3.06360E+05  2.00688E+03  3.39668E+05  2.49216E+05  8.43422E+04  3.39952E+05 -1.35288E+05  2.55391E+05
 -1.88919E+05  8.53131E+04 -1.11782E+05 -3.53169E+04 -5.39670E+02 -5.17650E+04  5.26015E+04  5.09793E+02
  3.74720E+04  5.53384E+04 -1.47882E+04  7.23737E+04 -6.10567E+04  6.41372E+04 -8.81725E+04  3.55621E+04
 -8.29160E+04 -1.18082E+04 -6.14073E+04 -5.33214E+04 -1.06941E+04 -6.73159E+04  2.98063E+04 -4.81621E+04
  3.99478E+04  6.37585E+03  1.89073E+04  4.45047E+04 -2.82530E+04  5.35222E+04 -6.89287E+04 -1.47761E+03
 -5.60891E+04 -5.34140E+04 -5.04120E+03 -7.73718E+04  3.66858E+04 -6.05055E+04  5.01459E+04 -1.39075E+04
  5.00198E+04  9.91449E+03  2.61387E+04  2.26710E+04  1.25815E+04  3.11298E+04 -6.25099E+03  2.67316E+04
 -1.76922E+04  1.23668E+04 -1.54958E+04 -2.96037E+03  4.64960E+03 -7.54814E+03  2.66777E+04  1.42806E+04
  1.10571E+04  4.08775E+04 -2.85421E+04  3.70749E+04 -6.50587E+04 -2.60474E+03 -6.26499E+04 -4.27834E+04
 -2.07385E+04 -6.51821E+04  4.32836E+04 -5.49556E+04  6.17221E+04 -2.75016E+03  3.10460E+04  3.57371E+04
  8.99085E+01  4.23776E+04 -3.15949E+04  2.05934E+04 -3.00888E+04 -4.74706E+03 -1.95682E+04 -1.26124E+04
 -7.82004E+03 -2.01818E+04  2.37015E+03 -2.36636E+04  9.49170E+03 -2.35855E+04  1.33921E+04 -1.29387E+04
  1.16677E+04  1.07629E+04 -1.58256E+04  1.31398E+04 -2.32862E+04 -3.00218E+03 -1.17172E+04 -3.79443E+04
  2.42934E+04 -4.36273E+04  5.06690E+04 -2.13774E+04  4.73433E+04  2.00480E+04  2.09614E+04  4.65590E+04
 -1.59267E+04  3.49280E+04 -2.54217E+04 -5.22620E+02 -1.53307E+04 -3.14016E+04  1.78961E+04 -3.65917E+04
  3.81077E+04 -1.07357E+04  4.05985E+04  2.45283E+04  2.44278E+04  4.97433E+04 -8.22153E+03  5.23182E+04
 -3.28125E+04  3.88728E+04 -5.01887E+04  1.18338E+04 -4.57579E+04 -2.02241E+04 -3.26165E+04 -4.21638E+04
  1.35265E+04 -4.23968E+04  3.66100E+04 -9.96762E+03  2.88483E+04  1.21276E+04  3.54270E+03  2.04947E+04
 -1.15277E+04  8.30657E+03 -1.71499E+04 -8.93076E+03  4.30056E+03 -1.30043E+04  2.26113E+04  2.84294E+03
  1.26678E+04  2.18805E+04 -9.53874E+03  2.88212E+04 -2.69340E+04  1.71545E+04 -2.68763E+04 -4.34971E+03
 -2.17774E+04 -1.79716E+04 -7.78471E+03 -2.98713E+04  6.16040E+03 -2.62190E+04  1.92842E+04 -1.69058E+04
  3.03333E+04 -1.85964E+04  4.03603E+04  3.12384E+03  2.96798E+04  2.50077E+04  2.19980E+03  3.79912E+04
 -1.92772E+04  3.72172E+04 -2.67121E+04  1.40194E+04 -2.24012E+04 -8.95721E+03 -7.46160E+03 -1.01999E+04
  3.78020E+02 -1.71479E+03 -6.76078E+03  7.85052E+03 -1.65939E+04  7.30339E+02 -1.78238E+04 -8.16480E+03
 -1.34609E+04 -2.80704E+04  5.51052E+03 -2.39351E+04  1.91800E+04 -1.71683E+04  1.89304E+04 -2.21177E+03
  8.37475E+03  1.80684E+04 -2.98399E+03  2.38061E+04 -2.12221E+04  1.34176E+04 -2.35103E+04  4.26501E+02
 -1.32261E+04 -1.95246E+04 -4.13615E+02 -2.93816E+04  1.05475E+04 -2.32586E+04  2.40403E+04 -1.70331E+04
  2.09257E+04 -6.02460E+03  1.33815E+04  2.00984E+03  5.36496E+03  1.80089E+03  1.16213E+04 -4.25543E+03
  1.83461E+04  1.72874E+03  2.42439E+04  2.00354E+04  1.53096E+04  3.82132E+04 -5.40804E+03  4.16615E+04
 -2.70728E+04  3.60774E+04 -3.47345E+04  1.71719E+04 -4.20481E+04 -2.31645E+03 -3.73851E+04 -1.93174E+04
 -1.40261E+04 -3.70210E+04  1.37594E+04 -3.18797E+04  2.26258E+04 -1.80363E+04  2.08155E+04  9.21352E+03
  7.12092E+03  2.17072E+04 -1.55163E+04  1.41483E+04 -1.84159E+04  3.30682E+03 -1.45850E+04 -9.40373E+03
 -1.62989E+03 -1.55729E+04  6.45528E+03 -1.39765E+04  1.08706E+04 -7.67224E+03 -1.99336E+03  1.16863E+04
 -5.09996E+03  4.21794E+03 -1.61090E+04 -8.27460E+03  7.44551E+02 -1.83078E+04  1.63800E+04 -1.62348E+04
  2.46137E+04 -1.41507E+04  2.08006E+04  4.73711E+03  2.09761E+04  1.48823E+04  6.00486E+03  3.25459E+04
 -4.63942E+03  2.63472E+04 -1.90726E+04  1.62820E+04 -1.76544E+04  4.01316E+03 -1.28804E+04 -7.81560E+03
 -5.77995E+03 -8.13586E+03 -3.88107E+03  5.09417E+03 -5.75747E+03  5.10715E+03 -7.62245E+03  1.25405E+04
 -1.20985E+04  3.97793E+03 -2.18662E+04 -9.43144E+03 -1.95281E+03 -2.45578E+04  1.27168E+04 -1.05366E+04
  1.25682E+04 -4.44217E+03  4.99392E+03  9.16705E+02  1.90972E+03  4.84813E+03 -7.29895E+03  3.36152E+02
 -8.58399E+03 -1.16726E+04  3.38758E+03 -1.85351E+04  1.17447E+04 -1.36593E+04  2.01151E+04 -1.37311E+04
  2.40822E+04  1.14819E+02  1.79876E+04  1.57389E+04  1.34348E+03  2.20174E+04 -7.40532E+03  1.30134E+04
 -7.98020E+03  4.03024E+03 -1.26426E+03 -6.81013E+02 -4.47726E+03 -5.26993E+03  1.34421E+04  7.07849E+02
  1.18178E+04  6.67720E+03 -1.26742E+03  1.37164E+04 -4.84876E+03  1.18319E+04 -1.67629E+04  2.41817E+03
 -1.04369E+04 -1.01278E+04  6.42031E+03 -1.16057E+04  8.79549E+03 -5.81350E+03  9.83012E+03  4.65100E+03
 -3.58209E+03  1.49389E+04 -9.57227E+03  7.61594E+03 -1.56930E+04  8.52202E+03 -1.55711E+04 -1.96402E+03
 -1.08738E+04 -1.62255E+04  4.54333E+03 -1.08431E+04  1.40418E+04 -5.88589E+03  1.40385E+04  6.49485E+03
  1.08391E+04  1.28806E+04  3.39968E+01  1.51803E+04 -1.07546E+04  9.16262E+03 -1.44349E+04  1.39071E+03
 -1.07030E+04 -5.36907E+03  1.07239E+03 -1.16164E+04  7.90054E+03 -8.88984E+03  1.07262E+04 -2.51754E+03
  8.85180E+03  1.15688E+03 -1.87284E+03  5.93994E+03 -7.88288E+02 -1.31976E+03  7.74634E+03 -8.03078E+03
  8.02481E+03 -2.30616E+03  1.48134E+04  5.06887E+03  1.18708E+04  1.25522E+04  1.17272E+04  1.77177E+04
 -4.87096E+03  1.94183E+04 -2.32713E+04  1.53110E+04 -2.21929E+04  2.97811E+02 -2.31725E+04 -1.00919E+04
 -1.49723E+04 -1.62263E+04 -4.48732E+03 -1.27893E+04 -2.74675E+03 -3.14259E+03  1.13525E+04 -6.72352E+03
 -1.21116E+03 -7.97592E+03 -2.32828E+03 -5.22550E+03  7.61880E+03 -1.76693E+03  9.92966E+03 -1.10370E+03
  8.59690E+03  6.35151E+03  1.89062E+03  5.38482E+03 -1.37871E+03  1.28274E+04 -1.17333E+04  9.01322E+03
 -7.43293E+03  2.33307E+03 -5.56935E+03 -2.79266E+03  3.09183E+03 -1.17255E+04  1.28821E+04 -1.77079E+04
  1.45842E+04 -7.13074E+03  1.71059E+04  9.44057E+02  1.28053E+04  7.14488E+03  9.06279E+00  1.48989E+04
 -8.67993E+03  1.49454E+04 -9.69099E+03  5.58091E+03 -2.83397E+03  1.82498E+03 -2.27867E+03 -1.80506E+03
 -4.04051E+02  3.21343E+02 -3.27802E+03  3.35040E+03 -7.04977E+03  5.30570E+03 -4.71074E+03  3.01004E+03
 -4.35088E+03 -5.35874E+03 -3.02250E+03 -7.49273E+03  9.86448E+03 -1.62340E+04  1.19700E+04 -8.74869E+03
  1.26691E+04  5.67600E+02  5.89572E+03  1.43656E+04 -3.05500E+03  9.71427E+03 -5.96062E+03  1.16678E+04
 -5.76244E+03 -4.70610E+02 -5.08780E+03 -7.52707E+03 -2.81141E+03 -7.15118E+03 -8.43414E+02 -5.37386E+03
  5.21014E+03 -3.34217E+03  4.63407E+03  2.14779E+03  4.10994E+03  2.88328E+03 -1.67945E+03  1.11175E+03
  1.97384E+03 -3.82903E+03  6.94576E+02  4.26573E+02  1.82119E+03  5.14330E+03 -5.19112E+02  9.04647E+03
  9.26836E+02  6.59978E+03 -1.35526E+04  9.21177E+03 -1.87044E+04  6.03655E+03 -1.05249E+04 -3.61253E+03
 -6.49239E+03 -1.81709E+04  9.15589E+02 -1.24682E+04  1.06445E+04 -1.01022E+04  1.26024E+04 -5.17885E+03
  8.76752E+03  3.31860E+03  3.45681E+03  6.87516E+03 -7.40300E+03  3.82162E+03 -4.61948E+03  6.76087E+02
  5.85416E+03 -6.32957E+03 -3.12465E+03 -4.78953E+03  1.09937E+04 -1.63858E+03  2.29113E+03 -6.14410E+02
  2.36776E+03  5.65240E+03  1.53247E+03 -1.34156E+03  1.41618E+01  4.38977E+03  4.42534E+03  3.47120E+03
  2.34516E+03  3.84830E+03  1.05118E+04 -8.16272E+02  2.24332E+03  2.34092E+03 -5.88918E+03  1.45887E+03
 -4.38846E+03  9.46341E+03 -5.37945E+03  6.70559E+03 -3.98763E+03 -2.53228E+03 -4.77518E+03 -3.13344E+03
 -2.58467E+03 -1.23348E+04 -5.12475E+02 -3.36365E+03  4.25716E+03  2.17816E+03 -3.97156E+03  5.89189E+03
 -2.34655E+03  3.37516E+03 -3.93083E+03 -3.72087E+03 -4.94733E+03 -7.24656E+03  2.39784E+02 -6.94564E+03
  3.08522E+03 -4.71125E+03  5.33432E+03  4.78170E+02  9.99412E+03  4.61051E+02  1.35773E+03  1.85481E+03
 -1.71518E+03 -1.83806E+03 -7.47093E+02 -4.45816E+03 -6.80801E+03 -8.21671E+03  6.96242E+03 -5.17756E+03
  9.36252E+03  1.46576E+03  1.01894E+04  3.19117E+03  3.51531E+03  1.16631E+04  1.34785E+03  8.25414E+03
 -1.10017E+04  3.93292E+03 -5.52543E+03 -3.56590E+03 -3.72874E+03 -1.00484E+04 -3.27450E+02 -4.63426E+03
  5.69850E+03 -3.28892E+03  5.37995E+03  2.75983E+03  3.25530E+03  4.13156E+03 -3.41060E+02  4.36042E+03
 -8.47094E+02 -2.54595E+03 -1.09105E+03  2.88084E+03 -6.06365E+03 -6.60444E+03 -2.92002E+03 -3.00917E+03
 -5.67105E+02  2.58125E+03 -4.01363E+03  8.22646E+03 -5.28970E+03  2.04960E+03 -1.13847E+04 -7.76173E+03
 -1.01618E+03 -7.05154E+03  6.73217E+03 -9.19066E+03  4.05310E+03 -1.07755E+04  8.98064E+03 -1.46378E+03
  7.03013E+03  2.22097E+03  8.84226E+03  6.92053E+03  2.35448E+03  9.87041E+03 -2.95127E+03  3.74328E+03
 -1.00196E+04  1.75943E+03 -6.20786E+02  2.96486E+03 -3.46093E+03  3.23523E+03 -2.92205E+03  6.38533E+03
  2.15809E+03  2.20903E+03 -1.45581E+03 -3.01417E+03  9.00895E+02 -8.54229E+03 -6.23476E+03 -2.78584E+03
  2.57351E+03 -5.86910E+03  1.54342E+03  1.92670E+03  3.23048E+03  1.69652E+03 -1.52431E+03  7.00804E+03
 -1.96804E+02  1.09841E+04 -8.60987E+03  1.27145E+03 -8.90251E+03  6.66297E+02 -5.12726E+03 -3.77006E+03
  5.94324E+02 -3.97578E+03  1.93136E+03 -8.94175E+03  5.35891E+03 -1.60962E+03 -7.67953E+02  3.14069E+02
  7.57733E+03  3.28543E+03 -2.61580E+03  9.10961E+02 -7.93068E+02  1.91006E+02  3.67207E+03 -2.46351E+03
  4.10104E+03  3.36890E+03  2.25901E+03  2.65951E+03 -1.35550E+02  3.86471E+03 -6.77144E+02  1.09531E+03
 -1.62425E+03  2.75243E+03 -5.24391E+03 -1.85977E+03 -6.95590E+02 -2.78259E+03 -1.84686E+02 -1.15880E+04
  6.38360E+03 -5.27671E+03  4.31848E+03 -2.27547E+03  1.45277E+02  2.95840E+03  7.36345E+03  4.24613E+03
  4.83301E+02  4.69115E+03 -5.30854E+03  5.73365E+03 -9.68234E+01 -2.09366E+03 -6.05840E+03  2.27868E+03
 -2.62898E+03 -6.75126E+03 -5.06539E+03 -4.19394E+01  4.26201E+03  4.40265E+02 -7.89206E+03 -3.48728E+02
 -1.51603E+03  1.95584E+03  1.22044E+03 -2.65870E+03  3.12366E+02 -5.06414E+03  9.02539E+02 -1.06302E+04
  3.29751E+03 -3.80357E+03  1.99754E+03 -1.85351E+03  1.87419E+03  2.34013E+03 -9.59885E+03  7.58324E+03
