 $NMID ID='MM_0lb_SNR50_13hz_g55_34.RAW', FMTDAT='(8E13.5)'
 TRAMP=1., VOLUME=1. $END
  3.11278E+05 -1.07673E+03  3.36601E+05  2.46986E+05  8.43102E+04  3.36660E+05 -1.31107E+05  2.54463E+05
 -1.90257E+05  7.82986E+04 -1.08775E+05 -3.27259E+04 -2.97361E+02 -4.86167E+04  5.32795E+04 -2.23593E+03
  3.62539E+04  5.25431E+04 -1.50312E+04  7.32948E+04 -6.25725E+04  6.47889E+04 -8.52560E+04  3.61923E+04
 -8.27683E+04 -1.31487E+04 -5.88270E+04 -4.88985E+04 -1.64046E+04 -7.33277E+04  2.78119E+04 -4.47366E+04
  4.05726E+04  9.25030E+03  1.43967E+04  4.78529E+04 -3.91668E+04  4.83221E+04 -6.64460E+04 -1.67323E+03
 -5.23955E+04 -5.44890E+04 -7.27596E+03 -7.59739E+04  3.75674E+04 -5.71265E+04  5.34660E+04 -1.66492E+04
  4.19099E+04  1.20868E+04  3.49570E+04  2.94535E+04  1.32462E+04  2.58790E+04 -5.51050E+03  3.02936E+04
 -2.18167E+04  8.64424E+03 -1.87955E+04 -5.42386E+03  2.56349E+03 -8.61289E+03  2.79881E+04  1.38870E+04
  8.18247E+03  3.58770E+04 -3.46052E+04  3.37450E+04 -5.95156E+04 -7.47933E+00 -5.90615E+04 -3.99370E+04
 -6.25027E+03 -6.89422E+04  3.88599E+04 -4.60896E+04  5.63657E+04 -3.88004E+03  3.08314E+04  3.28460E+04
 -7.09577E+03  3.61649E+04 -3.02038E+04  2.04320E+04 -3.07910E+04 -1.33360E+03 -1.96930E+04 -1.12169E+04
 -4.03311E+03 -1.21095E+04  3.46389E+03 -1.63648E+04  8.99600E+03 -2.26920E+04  1.51751E+04 -1.45797E+04
  1.31825E+04  4.86344E+03 -1.35234E+04  1.08439E+04 -2.24198E+04 -2.33108E+03 -1.09770E+04 -3.62431E+04
  2.61628E+04 -4.55702E+04  5.19933E+04 -1.74831E+04  5.20919E+04  2.15786E+04  1.77134E+04  4.58965E+04
 -1.45527E+04  3.28548E+04 -2.92573E+04  4.21546E+03 -1.21960E+04 -3.17579E+04  2.05663E+04 -3.09826E+04
  4.11424E+04 -9.66218E+03  3.62604E+04  2.59142E+04  2.05733E+04  5.04580E+04 -1.44185E+04  5.60915E+04
 -3.36878E+04  3.13591E+04 -4.31138E+04  9.56423E+03 -4.20630E+04 -1.83188E+04 -2.61501E+04 -4.15958E+04
  6.13190E+03 -3.95475E+04  3.01979E+04 -1.87103E+04  2.85868E+04  8.08173E+03  3.13433E+03  1.65445E+04
 -8.00602E+03  7.62627E+03 -1.57420E+04 -7.91260E+03  1.05964E+04 -6.37407E+03  1.72801E+04  8.68066E+03
  1.13242E+04  1.99656E+04 -5.89261E+03  2.85660E+04 -1.87283E+04  1.31518E+04 -3.26478E+04 -2.22547E+03
 -2.29841E+04 -1.97847E+04 -9.77873E+03 -2.11845E+04  3.31505E+03 -2.39235E+04  1.73902E+04 -1.36165E+04
  3.13492E+04 -1.35662E+04  3.16284E+04  1.36251E+03  2.13860E+04  1.97780E+04  4.20304E+03  3.31752E+04
 -1.76646E+04  3.31611E+04 -2.67492E+04  1.33180E+04 -1.89352E+04 -1.11329E+04 -6.75047E+03 -1.73976E+04
  7.68207E+01 -6.20324E+03 -6.39668E+03  2.31716E+03 -2.17224E+04 -7.46155E+02 -1.80052E+04 -1.13326E+04
 -1.43840E+04 -2.02717E+04  7.55240E+02 -2.67678E+04  1.52734E+04 -2.23496E+04  2.31087E+04 -7.73409E+03
  1.45066E+04  1.52995E+04  3.74270E+03  2.31944E+04 -1.28099E+04  1.41056E+04 -2.24130E+04 -1.00285E+04
 -1.28083E+04 -2.31030E+04 -6.66435E+03 -2.80049E+04  1.38950E+04 -1.77527E+04  1.95476E+04 -1.05494E+04
  1.64533E+04 -4.25911E+03  1.03171E+04  6.52256E+03  8.88475E+03 -1.21482E+02  5.86301E+03 -4.11095E+03
  1.99043E+04  1.52072E+03  2.03618E+04  1.63927E+04  1.34841E+04  3.54018E+04 -2.95140E+03  3.72767E+04
 -2.07948E+04  3.35449E+04 -3.43120E+04  1.07879E+04 -3.50842E+04 -5.64103E+03 -3.05791E+04 -2.10895E+04
 -1.11752E+04 -2.86046E+04  9.25407E+03 -2.70815E+04  2.41200E+04 -1.18360E+04  2.07328E+04  1.02719E+03
  5.06713E+03  1.37679E+04 -8.01236E+03  1.47709E+04 -1.47659E+04  3.01285E+03 -7.90463E+03 -1.11362E+04
 -2.71193E+03 -1.41891E+04  8.85155E+03 -1.55368E+04  5.72087E+03 -2.34509E+03  1.57400E+03  4.95759E+03
 -1.22812E+04  4.89986E+03 -1.11392E+04 -5.67546E+03  1.40540E+03 -1.31067E+04  1.16023E+04 -1.32912E+04
  1.50956E+04 -4.57067E+03  1.92639E+04  1.14788E+02  1.98141E+04  1.56724E+04  1.14199E+04  2.04309E+04
 -4.99524E+03  2.70947E+04 -1.33077E+04  1.92510E+04 -2.15751E+04  8.54935E+03 -7.66126E+03 -4.86410E+03
 -3.09611E+03 -4.91752E+03  6.45307E+02 -2.52675E+01 -1.62832E+03  1.17313E+03 -2.68067E+03  6.83989E+03
 -1.12702E+04 -1.33481E+03 -1.15975E+04 -1.12695E+04 -3.98176E+03 -1.36367E+04  6.43392E+03 -1.42960E+04
  1.11376E+04 -6.48279E+03  8.32149E+03  1.65449E+03 -2.52966E+02  3.44632E+03 -4.45293E+03  2.35161E+03
 -1.24135E+03 -7.56452E+03 -3.13434E+03 -6.49869E+03  9.99877E+03 -8.12560E+03  1.15305E+04 -4.33076E+03
  1.86233E+04  4.39396E+03  1.91456E+04  1.49442E+04  1.94421E+03  1.23130E+04 -1.06911E+04  1.32083E+04
 -9.31124E+03  5.62550E+03 -4.75301E+03 -2.43431E+02  1.92687E+03  3.75458E+02  5.88312E+03 -1.54015E+03
  5.88596E+03  5.72876E+03 -3.75393E+03  5.81672E+03 -3.39650E+03  5.85198E+03 -1.00159E+04  2.88360E+03
 -4.95911E+03 -4.15325E+03  1.05206E+03 -1.39985E+04  3.44574E+03 -1.08587E+03  6.77032E+03  4.66018E+03
  6.43256E+02  7.58803E+03 -9.70883E+03  1.07084E+04 -6.50421E+03 -2.46855E+03 -1.10680E+04 -3.27462E+03
 -5.78235E+02 -8.03518E+03  8.24176E+03 -1.26568E+04  8.52496E+03 -6.15939E+03  1.53188E+04  2.00930E+03
  8.96921E+03  9.55527E+03 -6.56056E+02  1.16427E+04 -9.96473E+03  3.64097E+03 -7.71159E+03  1.61451E+03
 -3.96799E+03 -1.09193E+04 -6.15123E+03 -9.90658E+03  9.83748E+02 -6.20401E+03  4.49507E+03 -5.76214E+03
  2.31664E+03  3.95920E+03 -2.29816E+03  1.49405E+03 -1.82939E+03 -2.54317E+03  4.77132E+03 -3.81760E+03
  6.08217E+03 -8.29323E+03  9.23736E+03 -3.40311E+03  1.09904E+04  3.93462E+03  7.18834E+03  1.36709E+04
 -1.06885E+03  1.92304E+04 -1.57781E+04  1.62794E+04 -1.81861E+04  3.33232E+03 -1.50523E+04 -5.78748E+03
 -7.46925E+03 -1.27959E+04  5.81597E+02 -1.02915E+04  4.08462E+03 -8.17701E+03  3.35621E+03 -5.33613E+02
  3.00220E+03 -7.37885E+03  7.82634E+03 -1.31172E+03  7.74090E+03 -2.81908E+03  3.22000E+03 -3.33565E+03
  7.06752E+03  5.73768E+03  4.70386E+03  1.10029E+04 -2.33174E+03  1.10597E+04 -5.68527E+03  2.86520E+03
 -8.70102E+03 -5.14861E+03 -1.11204E+04 -3.88843E+03  4.46621E+02 -1.40342E+04  7.02043E+03 -1.09770E+04
  1.03759E+04 -7.09752E+03  1.51334E+04 -1.79929E+03  9.86146E+03  1.14088E+04 -1.78445E+03  7.07249E+03
 -5.29602E+03  9.33837E+03 -9.32145E+03 -3.46796E+02 -4.38969E+03 -2.89216E+03 -3.52837E+03 -4.20607E+03
  4.89749E+03 -3.47445E+03 -3.72390E+03  3.73991E+02 -4.07309E+03  1.56536E+03 -6.20224E+03 -3.60614E+02
 -5.51392E+03 -4.68099E+03  7.96580E+02 -7.77984E+03  6.82156E+03 -7.19847E+03  8.98969E+03  1.29495E+03
  5.59250E+03  5.46641E+03  6.11141E+03  8.43211E+03 -1.17913E+03  8.19610E+03 -5.55444E+03  1.18501E+03
 -1.00243E+04 -3.77521E+02 -9.48428E+03 -4.26207E+03 -8.97965E+02 -3.07417E+03  5.39379E+03 -2.84433E+03
  6.20950E+03 -2.70313E+03  5.75479E+03  2.20443E+02 -5.72944E+02  2.46046E+03 -1.87195E+03 -2.22994E+03
 -4.73409E+02 -4.91842E+02  7.40243E+02  1.12884E+03  2.83309E+03  4.19434E+02  3.80160E+03  9.28190E+03
  5.00648E+03  6.07207E+03 -8.73374E+03  3.93026E+03 -9.04848E+03  2.24947E+03 -7.89353E+03 -8.21282E+03
 -2.11556E+03 -5.43596E+03 -3.39416E+03 -1.05828E+04  3.56823E+03 -6.15374E+03  7.56730E+03 -4.21987E+02
  4.36976E+03 -2.63346E+03  7.13488E+02  6.54406E+03  3.41483E+03  1.26874E+02 -1.12197E+03  5.28524E+03
 -4.69479E+02 -6.90975E+03  4.81952E+03 -5.39460E+03  2.64478E+03 -4.47844E+03  4.78108E+03  4.05462E+03
 -2.09089E+02  1.80660E+03 -1.41919E+02 -1.27450E+03 -1.75329E+03  4.49018E+03  2.36281E+03 -5.86969E+03
  3.55025E+01 -3.42566E+03 -4.07982E+02  3.95369E+03  9.67241E+02  6.85825E+03 -5.59498E+03  1.80359E+03
 -3.42547E+03  7.59024E+03 -4.22918E+03 -2.81965E+03 -6.24015E+02 -2.43459E+03 -2.17801E+03 -1.09604E+03
  4.68959E+03 -4.32063E+03  3.11534E+03 -4.50860E+03  6.53186E+03  3.24852E+03  1.68253E+03  2.99990E+03
 -2.22344E+03  4.10020E+03 -6.12784E+03  4.81429E+03  6.11907E+02 -6.75338E+03 -6.09846E+03 -2.66975E+03
  4.70749E+03 -3.13249E+03  1.76641E+03  3.58742E+03 -1.65447E+02  3.08928E+03 -7.98971E+03  2.36936E+03
 -3.03026E+03 -4.04980E+03  1.66965E+02 -5.83423E+03  5.19417E+03 -5.36440E+03  7.28986E+03 -1.57080E+03
  7.29748E+03  3.18197E+03  4.29062E+03  8.97598E+03  5.06867E+03  5.99316E+03  6.06260E+02  4.89671E+03
  2.77391E+03  9.29394E+02 -6.03650E+03 -6.83224E+02  2.74631E+03 -3.83693E+03 -4.92946E+03 -4.84440E+03
  4.42269E+03 -4.10964E+03  3.52461E+03  1.06728E+03  4.27582E+03  1.46305E+03  2.40069E+03 -2.21606E+02
 -2.18892E+03 -5.03796E+03  2.21703E+02  5.62935E+03  4.05349E+02  3.14932E+02 -3.78113E+03  3.53434E+02
 -3.26215E+03  4.06257E+03 -1.07707E+04  6.59775E+03 -4.63130E+03  9.41031E+02 -5.55158E+03 -4.50020E+03
  2.92068E+02 -5.04098E+03  4.55056E+02 -7.72979E+03  8.14013E+03 -3.84360E+03  9.57216E+03 -1.80130E+03
  9.19946E+03 -1.37823E+03  6.19861E+03  9.45775E+03  5.07744E+02 -1.31459E+03 -9.78172E+02  3.29432E+03
 -2.21238E+03  4.63096E+03 -1.11443E+03 -1.66149E+03  3.76479E+03 -4.19455E+03 -3.07591E+03 -1.93373E+03
  2.44174E+03  2.57854E+03 -1.13565E+02  3.14758E+03  1.18743E+03 -6.62890E+02 -2.63142E+03 -5.43673E+03
  2.78015E+03 -3.80884E+03  6.72926E+03 -4.40397E+03  3.72434E+03  3.08692E+03  3.28497E+03  5.20434E+03
 -3.31734E+03  5.22313E+03 -9.44679E+03  1.78621E+03 -7.04236E+03  2.14517E+03 -5.21159E+03 -4.40949E+03
 -4.68952E+03 -2.29773E+03  2.48619E+03 -8.57626E+03  1.87070E+03 -6.88198E+03  7.16305E+03 -3.58587E+03
 -5.44687E+02  4.41858E+03  2.24988E+03  3.30608E+03 -3.88658E+03 -2.70032E+03  1.61888E+03 -5.12627E+02
  6.51451E+03 -3.19451E+03  2.34572E+02 -1.57195E+03  2.12796E+03  1.32715E+03  3.73080E+03  2.45748E+03
 -6.42128E+03  7.04887E+03 -6.25949E+03 -8.04679E+02  2.75865E+03 -7.68044E+03  4.45665E+03 -7.08206E+02
 -1.46796E+03 -5.88023E+03  4.79445E+03  1.94285E+02  6.73381E+03 -3.74051E+03  2.15376E+03 -1.27773E+03
  1.31555E+03  4.47814E+03 -3.97948E+01  1.51410E+03 -3.68530E+01  1.10705E+03 -7.84005E+02 -9.87589E+02
 -9.27444E+02 -3.43425E+03 -1.02146E+02  3.29717E+03 -8.26505E+02 -2.82059E+03 -4.34255E+03 -8.50494E+02
 -6.65144E+02 -1.58213E+03  2.73841E+03 -7.56679E+03  5.02792E+03 -5.27648E+03  3.99563E+02 -8.27510E+03
  3.53798E+03  1.21342E+03 -1.49666E+03  3.20244E+03 -2.99756E+02 -1.42902E+03 -6.43489E+03  2.01091E+03
