 $NMID ID='MM_0lb_SNR50_19hz_g40_51.RAW', FMTDAT='(8E13.5)'
 TRAMP=1., VOLUME=1. $END
  3.09645E+05  6.40827E+02  3.37052E+05  2.53234E+05  8.09674E+04  3.36275E+05 -1.32167E+05  2.50519E+05
 -1.92364E+05  8.08706E+04 -1.13032E+05 -3.24837E+04  2.99639E+03 -4.85359E+04  5.11668E+04  7.09469E+02
  3.41147E+04  5.67487E+04 -1.81301E+04  7.64600E+04 -6.12649E+04  6.24463E+04 -7.94440E+04  3.14991E+04
 -8.06873E+04 -1.27736E+04 -6.03795E+04 -5.41345E+04 -1.31582E+04 -6.64942E+04  2.49442E+04 -4.14281E+04
  3.61755E+04  1.77000E+03  1.90734E+04  4.89580E+04 -3.14650E+04  4.24035E+04 -6.69390E+04  8.81399E+02
 -5.52386E+04 -5.42273E+04 -3.58072E+03 -7.21136E+04  3.35005E+04 -5.30505E+04  4.64878E+04 -1.38340E+04
  4.24281E+04  1.39264E+04  3.25255E+04  2.14889E+04  1.51617E+04  2.60195E+04 -5.44849E+03  2.85916E+04
 -2.01184E+04  1.13541E+04 -1.77178E+04 -3.04272E+03  7.62238E+02 -8.44879E+03  2.03812E+04  1.31511E+04
  9.55759E+03  3.17137E+04 -2.97583E+04  3.08963E+04 -5.85283E+04  7.38231E+03 -5.48230E+04 -3.86813E+04
 -9.89391E+03 -6.24480E+04  3.64636E+04 -4.34456E+04  5.66646E+04 -2.92521E+03  3.00364E+04  3.03262E+04
 -6.97797E+03  3.31161E+04 -3.29000E+04  8.43222E+03 -2.54200E+04 -5.67411E+03 -1.32831E+04 -1.41884E+04
 -7.37012E+03 -1.12634E+04 -2.02292E+03 -1.46717E+04  4.51856E+03 -2.51292E+04  1.50176E+04 -1.34169E+04
  6.48863E+03  5.05226E+03 -4.59968E+03  1.35851E+04 -1.77208E+04 -2.05091E+03 -9.15300E+03 -2.92376E+04
  1.78683E+04 -3.93625E+04  4.80472E+04 -1.58344E+04  4.26389E+04  1.68556E+04  1.22001E+04  4.49758E+04
 -1.47595E+04  2.96629E+04 -1.96339E+04  4.87306E+02 -6.63429E+03 -2.81417E+04  2.31439E+04 -2.65194E+04
  3.68648E+04 -4.91852E+03  2.95898E+04  2.19848E+04  1.34325E+04  4.59930E+04 -9.94733E+03  4.50048E+04
 -2.99658E+04  3.31463E+04 -3.35860E+04  7.70985E+03 -3.56618E+04 -1.56995E+04 -2.14055E+04 -3.50693E+04
  5.27631E+03 -3.10833E+04  2.79114E+04 -7.57578E+03  2.23013E+04  1.23381E+04  1.72970E+03  1.86294E+04
 -1.29358E+04  8.87363E+03 -4.42361E+03 -1.10091E+04  8.34921E+03 -1.19125E+04  1.46092E+04  5.84069E+03
  1.39017E+04  1.90775E+04 -4.99731E+03  2.26565E+04 -1.95087E+04  8.15244E+03 -2.16758E+04 -8.91089E+03
 -1.52419E+04 -1.93465E+04 -3.48507E+03 -1.85061E+04  8.76679E+03 -1.33858E+04  1.09526E+04 -9.31262E+03
  2.35151E+04 -1.09484E+04  2.42664E+04  3.01847E+03  2.03626E+04  1.15649E+04  3.41212E+03  3.42647E+04
 -1.24709E+04  2.82430E+04 -2.80251E+04  8.91722E+03 -1.88939E+04 -9.03929E+03 -1.78853E+03 -1.55572E+04
  3.96462E+03 -1.65561E+03 -2.42453E+03  5.75839E+03 -1.22873E+04  1.19704E+03 -1.31599E+04 -3.96204E+03
 -7.76975E+03 -1.07472E+04  4.26670E+03 -1.81590E+04  1.12994E+04 -1.23025E+04  1.66676E+04  3.84412E+03
  8.00477E+03  1.17990E+04 -2.21678E+03  1.67865E+04 -9.02398E+03  7.77274E+03 -1.07330E+04 -3.79566E+03
 -8.38132E+03 -1.30152E+04 -3.45300E+03 -1.90151E+04  7.12963E+03 -1.42814E+04  1.19689E+04 -1.06207E+04
  1.06729E+04  3.75860E+03  1.02014E+04  8.10995E+03  7.90419E+03  4.00626E+03  8.23669E+03 -5.10002E+03
  1.27676E+04  3.91971E+03  1.83839E+04  1.12245E+04  8.95588E+03  2.15917E+04 -4.14700E+03  2.55940E+04
 -1.26229E+04  1.80489E+04 -1.80627E+04  8.86338E+03 -1.94555E+04 -2.72031E+03 -1.91777E+04 -1.25409E+04
 -6.09056E+03 -1.75296E+04  7.50464E+03 -1.58787E+04  2.01256E+04 -1.15184E+04  1.39782E+04  2.02981E+03
  6.35294E+03  8.46769E+03 -2.79655E+03  9.27449E+03 -1.89005E+04  1.28108E+03 -1.56690E+04 -6.61184E+03
  6.27371E+02 -1.15930E+04  5.72154E+03 -2.86867E+03  9.97793E+03  1.99650E+03  6.02735E+02  5.14325E+03
 -5.90598E+03  5.12178E+02 -5.53981E+03  1.01416E+01 -1.97933E+03 -6.91871E+03  9.57393E+03 -1.00390E+04
  1.28505E+04 -5.96107E+03  6.43809E+03  3.88273E+03  8.60349E+03  6.54105E+03 -9.50675E+02  1.38081E+04
 -2.50384E+03  1.64212E+04 -8.34774E+03  5.70337E+03 -1.03299E+04  4.67227E+03 -9.98553E+03 -1.39318E+03
 -4.23145E+03 -9.32323E+02 -3.57463E+03  3.26286E+03 -3.24457E+03  1.33145E+02 -5.52306E+03  5.79712E+03
 -5.70242E+03 -9.69730E+01 -4.44271E+03 -1.02325E+04 -1.51843E+03 -1.01505E+04  2.71485E+03 -5.13788E+03
  6.37504E+03 -3.44955E+03  3.63420E+03  1.65679E+03  3.35346E+03  2.75050E+03 -5.70544E+03  1.47218E+03
 -2.08170E+03 -3.63016E+03  2.72615E+03 -9.42784E+03  6.40111E+03 -4.12360E+03  3.83146E+03 -1.64209E+03
  7.24918E+03  3.72493E+03  9.48764E+03  7.20097E+03  9.48187E+02  4.36374E+03 -5.83127E+03  8.07189E+03
 -1.08090E+04  3.62321E+03 -7.69776E+03 -7.09848E+02 -3.90524E+03  8.62345E+01  8.90337E+03  1.78390E+03
  5.92189E+03  4.52607E+03  2.02741E+03  9.69263E+03 -5.31025E+03  9.87230E+03 -5.80963E+03  1.81028E+01
 -7.98465E+03 -5.29165E+03 -2.12622E+03 -9.10752E+03  5.78000E+02  1.21146E+03  7.26303E+02  1.65109E+03
  1.36415E+03  7.45240E+02 -1.81604E+02  6.39936E+03 -3.04927E+03  2.19204E+03 -3.16538E+03 -5.76885E+02
  1.55872E+03 -9.03220E+03  1.75686E+03 -7.07660E+03  2.93194E+03 -2.25230E+03  9.55317E+03  9.23623E+02
  7.07445E+03  8.02310E+03  1.98891E+03  6.53966E+03 -6.02591E+03  8.15209E+03 -3.85269E+03  3.88869E+03
 -5.11555E+03 -6.68342E+03 -1.19403E+03 -3.22638E+03  5.39478E+02 -5.40891E+03  5.07280E+03 -2.43207E+03
  3.62189E+03  4.62440E+02 -4.10432E+02 -9.10024E+02  2.13556E+03  1.58710E+03 -1.58493E+03 -2.51676E+03
  4.33947E+03 -6.44267E+02  4.40124E+03 -2.77744E+03  5.75753E+03  3.68728E+02  5.19602E+03  6.27755E+03
  4.48060E+03  5.51031E+03 -5.49102E+03  7.68145E+03 -1.18886E+04  8.93281E+02 -9.22942E+03 -5.13111E+03
  1.39603E+02 -8.39717E+03  3.09222E+02 -8.47412E+03  3.03940E+03 -8.55418E+02 -4.26077E+02 -3.41051E+03
  4.90724E+03 -1.16437E+02  4.25405E+02 -5.58238E+03  5.15715E+03 -3.26316E+03  8.34383E+03 -3.69184E+02
  6.90041E+03  1.77696E+02 -3.03867E+03 -1.74380E+02 -4.78473E+02  8.37168E+02 -3.39552E+03 -2.02656E+02
 -7.68863E+03 -3.89707E+03  1.14942E+03 -1.97817E+03  1.53703E+03 -4.72952E+03  6.33611E+03 -3.06047E+03
  4.55688E+03 -3.37340E+03  9.68226E+03 -5.60177E+02  2.25481E+03  3.51997E+03  1.32230E+02  6.35576E+03
 -2.22940E+03  3.41014E+03 -5.83345E+02  6.21231E+02  4.96348E+02 -3.92025E+03  2.41001E+03 -2.91593E+03
  6.29381E+02 -4.07821E+03 -9.78594E+02  1.71402E+03  2.55892E+02 -2.21004E+03 -4.03775E+03 -2.23171E+02
 -3.57698E+03 -1.84957E+03 -6.37519E+02 -3.38304E+03  3.74793E+03  5.47261E+02  3.64812E+02  2.35278E+03
  3.28830E+03  2.52119E+03  7.62491E+02  3.04903E+03 -3.79819E+03  3.05576E+03 -2.92278E+02  1.08509E+03
  1.86169E+03  3.45747E+03 -4.13581E+03 -2.85605E+03  1.07696E+03  7.92200E+02  2.90748E+03 -4.09368E+03
 -3.30169E+03  2.15886E+02  2.63189E+03 -2.14463E+02  3.42016E+03  4.75703E+03  5.26128E+03 -1.70275E+03
  5.78235E+03  1.32964E+03  1.96661E+03  1.73043E+02  6.97489E+02  2.45496E+03 -4.25845E+02  4.14541E+03
  1.95302E+03  4.68853E+03 -1.99562E+02  1.58837E+03 -3.12395E+03  2.72686E+03 -2.88314E+03 -1.69492E+03
 -3.64109E+03 -3.13823E+03 -7.82005E+02 -4.09781E+03  1.12805E+03  8.12016E+02  3.72988E+03  5.10508E+02
  4.68767E+03  1.86882E+03  3.63263E+03  2.25789E+03 -2.78934E+03 -2.02332E+01 -4.84813E+03 -2.40696E+03
 -3.74495E+03  1.32122E+03  1.69930E+03 -3.12191E+03  2.30229E+02  2.09681E+03  4.79031E+03 -1.69616E+03
  2.32216E+02  5.85049E+02  1.70796E+03 -2.36617E+03 -1.48863E+03  1.45610E+03  2.85976E+03 -1.26279E+03
  7.55915E+02  5.85942E+02  6.29662E+03  2.10894E+02 -7.85051E+01  6.22902E+03 -1.31756E+03  4.80389E+03
 -1.54698E+02 -6.78246E+02 -1.22197E+03  5.09494E+02 -3.10176E+03 -1.85038E+03  2.73075E+03 -8.26537E+02
 -1.53183E+02 -2.04836E+03 -1.02348E+03  1.66666E+03  1.24681E+02  5.52425E+02 -2.81040E+03 -1.99786E+03
  6.24743E+01  8.41587E+02 -2.38705E+03 -2.99505E+03 -2.70572E+02 -8.18242E+02  5.42286E+03 -4.59604E+03
  1.84036E+03 -3.78198E+03  4.30482E+02 -1.19219E+03 -7.32811E+02 -9.70724E+02  4.50066E+02  6.26662E+02
 -2.63679E+03 -2.48413E+03  3.43488E+03  9.82912E+02  6.38468E+02 -1.05021E+03  2.55877E+02  3.46484E+03
  1.36454E+03  1.47462E+03 -1.54021E+03  2.46219E+02  1.64525E+03 -6.50508E+02  1.81580E+03  2.84123E+03
 -2.27362E+03  1.84011E+03 -2.47571E+03  3.11728E+03  9.74928E+02  1.07932E+03  3.70851E+02  1.59575E+03
  2.26400E+03 -9.68435E+02 -1.37000E+03  1.52084E+02  2.81141E+03  1.36533E+03 -2.72775E+02  2.39376E+03
 -5.60882E+02  2.15223E+03  6.42471E+01 -4.30564E+03  1.64243E+02  3.83344E+03  1.64142E+03 -5.18348E+02
  1.67623E+03  1.49380E+03 -3.74963E+03  2.85385E+03 -4.19455E+02 -1.42019E+03 -3.53898E+03 -2.28848E+03
 -2.46221E+03 -1.74541E+03  4.72358E+02  3.72449E+03  2.35876E+03 -2.45781E+03  1.73599E+03  7.55393E+02
 -2.59419E+02 -1.63429E+03  1.28548E+02  4.53442E+03 -1.44256E+03  2.97658E+03  3.82648E+02  1.04569E+02
 -3.96668E+02  2.67144E+03 -3.48418E+03 -2.95927E+03  2.06101E+03 -8.77718E+02 -1.96975E+03  5.02646E+02
  3.72482E+03  2.46747E+03 -4.86263E+03  8.28389E+02  6.64918E+02 -2.81495E+02 -5.36951E+02 -6.89758E+02
  1.05340E+03  3.06653E+03  3.84079E+03 -3.90872E+03 -1.61707E+02 -1.94894E+03 -4.47907E+03  3.67208E+03
 -8.24898E+02  2.22615E+03 -1.20752E+03  1.83614E+02 -5.11716E+03 -2.15180E+03 -2.11852E+03 -1.31136E+03
 -4.88109E+02 -2.90015E+03  2.83775E+03  9.39264E+02 -2.30026E+02 -3.92953E+03 -7.16819E+02 -1.97080E+03
  1.81052E+03  2.59550E+03 -2.78235E+03 -5.97961E+02 -1.90552E+03 -7.23385E+02 -2.05548E+03 -2.83621E+03
  2.36253E+03  7.95817E+02 -2.56445E+00 -6.21020E+03 -8.40555E+01  5.03113E+02  9.73448E+02 -2.00660E+03
 -1.34201E+03  5.80185E+03 -9.23459E+02  6.26898E+02 -1.14223E+02  4.72110E+02  1.52970E+03 -2.71869E+03
  3.05336E+03 -1.13731E+03  3.50862E+03  1.76006E+03 -5.65498E+01 -1.03255E+03 -9.28598E+01  2.42713E+02
 -1.43266E+03  3.71806E+03  2.64216E+02  6.16315E+02  2.86424E+02  1.45804E+03  2.22025E+03  3.42226E+02
 -4.64188E+01  1.83403E+03  2.27232E+03  6.01050E+02  4.02887E+03  2.50163E+03  7.99498E+02  9.31744E+01
 -2.25252E+03  1.67252E+02 -3.05014E+02 -8.72019E+02  8.89593E+02 -3.50875E+03  1.39629E+03 -2.23383E+02
  4.12285E+02 -7.11315E+02 -9.57120E+02 -5.18761E+02 -1.41258E+03 -2.98554E+03 -2.57730E+03  2.07312E+03
