 $NMID ID='MM_0lb_SNR50_8hz_g45_60.RAW', FMTDAT='(8E13.5)'
 TRAMP=1., VOLUME=1. $END
  3.08373E+05  1.22955E+03  3.40244E+05  2.50901E+05  8.61311E+04  3.41136E+05 -1.37446E+05  2.52413E+05
 -1.87658E+05  8.59038E+04 -1.13721E+05 -3.00817E+04  2.27926E+03 -4.81154E+04  4.84869E+04 -4.99543E+03
  3.42200E+04  5.50957E+04 -1.86055E+04  7.71506E+04 -6.52486E+04  6.68619E+04 -7.81650E+04  3.44973E+04
 -7.81018E+04 -8.31297E+03 -6.21322E+04 -5.45927E+04 -1.70657E+04 -6.68922E+04  3.37375E+04 -4.86456E+04
  3.45601E+04  1.93062E+03  1.62766E+04  5.19998E+04 -3.75230E+04  4.94675E+04 -7.13618E+04 -4.70634E+03
 -5.19786E+04 -5.32625E+04 -1.02293E+04 -7.92832E+04  3.58749E+04 -5.65683E+04  5.37007E+04 -2.54437E+04
  5.17702E+04  1.08404E+04  3.00820E+04  3.45152E+04  1.51914E+04  3.58873E+04 -4.37498E+03  2.63501E+04
 -2.16523E+04  5.76508E+03 -1.30909E+04 -9.56834E+03  1.36526E+02 -7.59628E+03  2.41066E+04  1.56949E+04
  9.97037E+03  4.05736E+04 -3.42609E+04  3.27970E+04 -6.38400E+04  3.62332E+03 -6.17354E+04 -4.81764E+04
 -9.16038E+03 -6.75494E+04  3.73822E+04 -4.76960E+04  5.43167E+04  3.16250E+03  3.69400E+04  3.37196E+04
 -3.63910E+03  3.80610E+04 -3.14930E+04  2.07905E+04 -3.61304E+04 -1.09698E+04 -1.51197E+04 -1.75770E+04
 -1.26318E+04 -2.23880E+04 -2.56711E+03 -1.33019E+04  8.37227E+03 -2.57600E+04  1.99966E+04 -1.04708E+04
  5.24498E+03  8.89893E+03 -1.30113E+04  1.01954E+04 -2.71035E+04 -8.77114E+03 -1.30952E+04 -3.83740E+04
  2.30200E+04 -4.88253E+04  5.49664E+04 -2.58638E+04  5.17470E+04  1.89291E+04  1.39643E+04  4.61941E+04
 -1.66344E+04  3.43448E+04 -2.51076E+04 -3.83758E+03 -1.37588E+04 -2.67833E+04  2.59853E+04 -3.36927E+04
  4.87004E+04 -2.16513E+03  3.45709E+04  2.44279E+04  1.65586E+04  4.63684E+04 -1.18073E+04  5.30408E+04
 -3.83864E+04  3.97059E+04 -4.88763E+04  1.48273E+04 -5.07315E+04 -1.75276E+04 -3.19303E+04 -4.31564E+04
  1.44775E+04 -4.32686E+04  3.76164E+04 -2.15528E+04  3.54135E+04  1.30013E+04  1.38230E+04  1.85227E+04
 -1.31643E+04  5.02934E+03 -1.26955E+04 -6.12124E+03  2.91894E+03 -1.16708E+04  2.05847E+04  2.36702E+03
  1.43612E+04  2.40872E+04 -2.76354E+03  2.72955E+04 -2.15033E+04  1.29562E+04 -3.58447E+04 -2.49138E+03
 -2.14282E+04 -1.73208E+04 -1.21409E+04 -2.21718E+04  3.91386E+03 -2.86350E+04  1.11462E+04 -2.53380E+04
  3.52574E+04 -1.38234E+04  3.79399E+04  8.62938E+03  2.96355E+04  3.00921E+04  6.00039E+03  3.48164E+04
 -1.65270E+04  3.78598E+04 -2.63075E+04  9.96729E+03 -2.66228E+04 -8.60545E+03 -1.51603E+04 -1.73151E+04
  2.04908E+03 -1.21876E+03 -5.71335E+03  9.62164E+03 -1.56952E+04  9.78744E+03 -1.79933E+04 -1.18587E+04
 -7.04095E+03 -2.08699E+04  2.90233E+03 -2.86146E+04  2.20137E+04 -1.82048E+04  2.14830E+04  3.23868E+03
  1.83051E+04  1.80272E+04 -2.93707E+01  3.04980E+04 -1.10509E+04  1.66272E+04 -2.04256E+04  6.33011E+02
 -1.70593E+04 -2.85257E+04 -3.76893E+03 -2.27188E+04  1.52141E+04 -2.39058E+04  2.48066E+04 -1.08656E+04
  2.37837E+04 -2.76135E+03  2.09239E+04  8.69042E+03  4.36461E+03  4.66666E+03  1.35920E+04 -2.18057E+03
  2.17247E+04  5.87242E+03  2.75037E+04  1.83533E+04  1.69384E+04  3.94282E+04 -2.92654E+03  4.23968E+04
 -3.22989E+04  3.76460E+04 -4.30344E+04  2.11072E+04 -4.62598E+04 -5.11996E+03 -3.94294E+04 -2.79253E+04
 -1.56925E+04 -3.93163E+04  1.48320E+04 -3.61602E+04  3.65800E+04 -1.98662E+04  2.68495E+04  7.89825E+03
  4.39473E+03  2.32407E+04 -4.73668E+03  1.89857E+04 -2.45310E+04  5.73622E+03 -2.10923E+04 -8.64030E+03
  5.57263E+03 -1.87989E+04  9.57967E+03 -1.56012E+04  1.61585E+04 -7.65422E+03  9.43058E+03  2.76436E+03
 -6.61851E+03  2.76406E+03 -1.73842E+03 -8.75214E+03  3.50005E+03 -1.97707E+04  2.01270E+04 -2.06078E+04
  2.44566E+04 -8.78755E+03  2.32618E+04  3.43546E+03  3.05483E+04  1.77790E+04  1.59057E+04  2.45343E+04
 -5.42342E+03  3.22524E+04 -1.53160E+04  1.37141E+04 -2.11198E+04 -1.97441E+03 -1.71947E+04 -4.58306E+03
 -8.13497E+03 -1.02639E+04 -3.38406E+03  6.52568E+02 -8.80134E+02  4.74623E+03 -7.29506E+03  8.61134E+03
 -1.11766E+04  4.79255E+03 -1.36880E+04 -1.77830E+04 -4.73135E+03 -1.66953E+04  3.06297E+03 -1.55706E+04
  1.51869E+04 -1.09126E+04  1.09546E+04  9.43932E+03  8.07654E+02  2.15516E+03 -8.07102E+03  4.41557E+00
 -8.35306E+03 -8.95651E+03 -4.67402E+03 -1.69967E+04  1.18468E+04 -1.15894E+04  1.78444E+04 -7.67437E+03
  2.19000E+04  7.06647E+03  2.19735E+04  1.55526E+04  2.87319E+03  1.26524E+04 -5.68806E+03  1.84152E+04
 -1.52453E+04  2.05621E+02 -3.67589E+03 -6.14669E+03  5.00765E+03 -8.51787E+03  3.78385E+02 -2.26012E+03
  4.81489E+03  9.34316E+02 -1.12342E+03  9.30384E+03 -4.65691E+03  1.15201E+04 -1.18916E+04 -6.18657E+02
 -1.33171E+04 -1.10512E+04  7.06707E+03 -1.74401E+04  4.02260E+03 -7.76156E+03  6.79854E+03 -4.39882E+03
  5.79051E+02  1.07530E+04 -1.57197E+03  1.65052E+04 -1.87186E+04  1.13474E+03 -1.20823E+04 -3.61390E+03
 -8.97109E+03 -1.38908E+04  4.91174E+03 -1.76433E+04  1.50677E+04 -9.61532E+03  1.80417E+04  3.47193E+03
  6.56929E+03  1.34533E+04  2.12731E+03  1.69439E+04 -9.76650E+03  7.13971E+03 -1.15891E+04  4.86356E+03
 -7.20588E+03 -8.92419E+03 -3.98435E+03 -1.18864E+04  1.03783E+03 -6.00680E+03  1.22641E+04 -7.22116E+03
  6.63660E+03  3.20653E+03  8.33622E+02  1.77113E+03  1.95236E+03 -6.72047E+03  6.95594E+03 -9.40717E+03
  1.55888E+04 -5.70136E+03  1.87554E+04  2.69847E+03  1.45195E+04  1.32073E+04  1.16979E+04  2.94996E+04
 -6.57246E+03  3.13781E+04 -1.69723E+04  2.34611E+04 -3.04967E+04  5.16087E+03 -2.48668E+04 -1.04968E+04
 -8.88693E+03 -2.33712E+04 -1.00176E+04 -1.77134E+04  3.46531E+03 -9.69488E+03  6.03685E+03 -9.76961E+03
  8.13317E+03 -1.86327E+03  8.34342E+03 -3.98440E+03  6.02634E+03 -3.56293E+03  1.14947E+04 -3.47423E+03
  1.55152E+04  1.95519E+03  1.32945E+04  1.40196E+04 -5.48428E+03  8.29031E+03 -1.73208E+04  3.34535E+03
 -2.27962E+04 -5.37152E+03 -1.73723E+04 -1.16495E+04 -5.05628E+03 -1.30115E+04  7.75773E+03 -2.79451E+04
  2.04270E+04 -7.83756E+03  2.51378E+04  7.00452E+03  1.43376E+04  1.86006E+04  9.95830E+03  1.40319E+04
 -9.16788E+03  1.77027E+04 -8.94729E+03  7.33623E+03 -6.14364E+03  1.05922E+03 -1.69773E+03 -6.37885E+03
 -7.40361E+03  1.58139E+03 -1.85601E+03  2.05987E+03 -1.34626E+04  1.05612E+04 -1.03666E+04 -4.54491E+02
 -8.91436E+03 -1.53481E+04 -4.10368E+03 -1.41951E+04  1.39236E+04 -9.03816E+03  1.22743E+04 -5.98992E+03
  1.50421E+04  1.28202E+04  4.25348E+03  2.10850E+04 -5.93475E+03  1.63196E+04 -1.61744E+04  7.68725E+03
 -1.28968E+04 -3.45730E+03 -1.05338E+04 -3.76626E+03  4.35328E+03 -1.49986E+04  5.49145E+03 -1.34128E+04
  1.18783E+04 -9.71779E+03  5.20440E+03  1.35911E+03  4.84978E+03  4.68694E+03  7.09106E+03  8.72231E+03
 -2.20596E+02 -4.15696E+03  1.16421E+04 -5.17687E+03  1.25824E+03  6.78522E+03  9.42680E+03  9.71944E+03
 -7.99593E+02  1.52517E+04 -1.53989E+04  1.25752E+04 -1.06292E+04 -2.83226E+03 -2.08151E+04 -9.00267E+03
 -8.19621E+03 -1.39565E+04 -2.47265E+03 -1.58605E+04  1.28483E+04 -1.60822E+04  1.50013E+04  2.88303E+02
  1.78987E+03  7.24284E+03 -2.17816E+03  1.34184E+04  3.42823E+02  9.81314E+03 -5.51121E+03 -1.45346E+03
 -8.47701E+03 -5.13735E+03  5.22390E+03 -9.82742E+03  6.46757E+03 -6.64639E+03  1.06021E+04  4.12357E+03
  6.57607E+03 -2.20673E+03 -9.02205E+02  2.49763E+03 -3.77076E+03  5.30708E+03  3.81475E+03 -1.25494E+03
  2.25365E+03  3.30597E+02  8.19361E+03  2.56868E+03  5.73975E+03  1.06573E+04 -8.68066E+03  1.12094E+04
 -9.70216E+03  4.78255E+03 -1.46340E+04  4.02932E+03 -1.08963E+04  4.46466E+03 -7.84895E+03 -1.55370E+04
  3.70614E+03 -7.23263E+03  7.35315E+03 -9.09354E+03  2.33334E+03  1.08499E+03 -3.38044E+03  5.36948E+03
 -7.46334E+03 -1.35840E+03 -7.81872E+03 -3.44052E+02 -3.19238E+03 -9.26365E+03 -9.24003E+02 -8.89417E+03
  9.64044E+03 -1.38387E+04  6.37298E+03  4.71901E+03  1.82104E+03 -8.29027E+01  2.81529E+03  1.99981E+03
  1.01650E+03 -7.67275E+02  1.19444E+03 -1.07073E+03  3.70416E+03 -4.41741E+03  1.40940E+04 -4.49193E+03
  1.38083E+04 -8.66661E+03  5.78619E+03  8.50637E+03  5.11050E+03  1.46221E+04 -1.69003E+02  1.05351E+04
 -9.08094E+02  1.41654E+04 -7.05695E+03 -6.25266E+02 -4.22154E+03 -9.25710E+03  4.61314E+02 -4.69880E+03
  8.00719E+03 -1.13103E+04  1.23674E+04  3.55297E+03  3.04490E+03  8.56336E+03  3.04904E+03  7.93239E+03
 -3.39414E+02  9.23063E+02  2.14016E+03 -4.80309E+03 -4.12625E+03  6.73110E+02 -2.40805E+03 -2.04747E+03
 -7.20962E+03  5.56197E+03 -9.83425E+03  4.80657E+03 -1.30061E+04  5.49510E+02 -2.00467E+04 -7.04453E+03
 -9.11374E+03 -1.34233E+04  1.18056E+03 -1.84154E+04  1.21109E+04 -1.31528E+04  1.37901E+04 -9.57625E+03
  1.68056E+04  6.70675E+03  1.06955E+04  7.36728E+03  1.60887E+03  9.76525E+03 -1.19611E+04  6.55723E+03
 -1.08975E+04  4.72097E+03 -5.30815E+03 -4.78289E+03 -4.56194E+03 -4.04702E+03  1.31708E+03 -5.02781E+03
 -2.79562E+03 -1.06729E+03 -2.10663E+02  1.08624E+03 -2.47355E+03 -8.04584E+03  3.47562E+03 -4.91896E+03
  3.12646E+03 -5.06342E+03  1.30471E+04 -6.08836E+02  1.03351E+04  9.20146E+03  4.38454E+03  1.45587E+04
 -1.93281E+03  2.06328E+04 -9.64864E+03  5.51741E+03 -1.26715E+04 -3.31504E+03 -9.69750E+03 -1.20559E+04
 -8.08525E+03 -8.42393E+03 -3.10682E+02 -8.98408E+03  6.09038E+03 -8.12938E+03  8.69676E+03  4.42313E+03
  1.26455E+04  5.49706E+03 -1.74636E+03  3.94265E+03 -6.26835E+03 -2.82293E+03  1.65689E+03 -2.36376E+03
  2.22718E+03 -9.86223E+02  4.74456E+03 -1.61552E+03  7.66007E+03  6.49995E+03  1.95688E+03  7.84300E+03
 -8.21939E+03  1.22645E+04 -1.21309E+04  1.98155E+03 -7.24874E+03 -5.98619E+03 -3.43050E+03 -9.95729E+03
  3.37565E+03 -6.60765E+03  1.28191E+04 -4.22738E+03  1.22734E+04  4.32918E+03  7.79208E+03  9.17725E+03
 -3.07926E+03  5.08648E+03 -3.65852E+03 -5.05991E+02 -8.35448E+03  4.18499E+03 -2.89721E+03  3.59074E+03
 -6.67448E+03  4.85554E+03 -2.39781E+03  2.74248E+03 -1.64862E+03  1.17472E+02  9.52847E+02 -1.65396E+03
 -4.91785E+03 -2.25668E+03  2.75309E+02 -1.02616E+04  7.70656E+03 -1.47497E+04  9.46850E+03 -4.16763E+03
  8.20371E+03  2.67847E+03  3.34553E+03  1.06704E+04 -3.05174E+03  1.04824E+04 -1.42604E+04  8.40840E+03
