 $NMID ID='MM_0lb_SNR50_14hz_g55_79.RAW', FMTDAT='(8E13.5)'
 TRAMP=1., VOLUME=1. $END
  3.09343E+05  3.06726E+03  3.40409E+05  2.49906E+05  8.37510E+04  3.36904E+05 -1.34974E+05  2.53516E+05
 -1.89249E+05  8.20571E+04 -1.19150E+05 -3.12955E+04 -5.87045E+03 -5.31478E+04  5.08014E+04 -2.08130E+03
  3.38058E+04  5.29357E+04 -2.05347E+04  7.34945E+04 -6.15182E+04  6.68762E+04 -8.12614E+04  3.59000E+04
 -8.54473E+04 -1.03913E+04 -5.30062E+04 -5.24640E+04 -1.57902E+04 -6.59694E+04  2.19228E+04 -5.03301E+04
  3.66607E+04  1.64534E+03  1.41148E+04  4.67599E+04 -3.51180E+04  5.36925E+04 -6.69079E+04  1.67905E+03
 -5.83286E+04 -5.98963E+04 -6.76935E+03 -8.14619E+04  3.71115E+04 -5.90235E+04  5.38328E+04 -1.64921E+04
  4.42280E+04  8.82622E+03  3.03490E+04  2.14520E+04  1.55203E+04  3.88312E+04 -7.31192E+03  2.88103E+04
 -2.23274E+04  1.23666E+04 -1.69597E+04 -6.07691E+03  8.91049E+03 -8.31592E+03  2.01685E+04  1.13214E+04
  6.21432E+03  3.78128E+04 -3.35555E+04  3.95358E+04 -6.28087E+04  5.86139E+03 -5.83881E+04 -4.28990E+04
 -1.46792E+04 -6.34558E+04  4.13480E+04 -4.49565E+04  5.61057E+04 -6.66199E+03  3.48162E+04  3.26170E+04
 -8.24119E+03  3.69598E+04 -3.07372E+04  1.80928E+04 -3.51183E+04 -9.40629E+02 -1.60430E+04 -1.27341E+04
 -6.78710E+03 -1.43688E+04 -2.56988E+03 -2.17049E+04  8.82396E+03 -2.50952E+04  9.62175E+03 -1.19619E+04
  8.06775E+03 -1.27489E+03 -1.06928E+04  1.06601E+04 -2.05529E+04 -3.46217E+03 -1.04579E+04 -3.17037E+04
  2.49911E+04 -4.22719E+04  5.10538E+04 -2.10729E+04  4.22469E+04  2.16896E+04  1.30461E+04  4.23827E+04
 -1.88340E+04  3.65374E+04 -2.42319E+04  4.49990E+03 -1.52751E+04 -3.11291E+04  2.24263E+04 -3.31049E+04
  3.95728E+04 -1.35389E+04  3.54961E+04  2.54875E+04  1.39064E+04  4.82952E+04 -1.01698E+04  4.82564E+04
 -2.85979E+04  3.38433E+04 -4.30049E+04  9.50809E+03 -4.48377E+04 -1.98616E+04 -2.17682E+04 -3.65008E+04
  1.14537E+04 -4.12777E+04  3.37273E+04 -1.75835E+04  3.01649E+04  9.68925E+03  3.21353E+03  1.89153E+04
 -1.73523E+04  1.10315E+04 -1.15251E+04 -5.88449E+03  1.92193E+03 -1.12526E+04  1.85413E+04  4.93677E+03
  1.32344E+04  2.49345E+04 -6.00542E+03  2.56870E+04 -2.68474E+04  9.88635E+03 -3.08773E+04 -7.07965E+03
 -2.26373E+04 -1.53535E+04 -9.41825E+03 -2.04992E+04  3.97951E+03 -2.54436E+04  1.62249E+04 -2.18449E+04
  2.40571E+04 -1.02163E+04  3.04587E+04  5.21116E+03  2.11792E+04  1.93881E+04  2.92514E+03  3.97422E+04
 -1.79480E+04  2.87592E+04 -2.95633E+04  1.13493E+04 -2.12405E+04 -1.09327E+04 -5.22540E+03 -1.26468E+04
  2.80130E+03 -1.38521E+03 -2.00951E+03  5.35998E+03 -1.74756E+04  7.40009E+03 -1.26290E+04 -6.35626E+03
 -1.22435E+04 -2.08506E+04  9.71101E+03 -2.00008E+04  1.59978E+04 -1.98791E+04  2.33925E+04 -3.37871E+03
  1.44979E+04  1.90044E+04 -2.04662E+03  2.72943E+04 -1.08675E+04  1.16666E+04 -1.61051E+04 -5.39622E+03
 -1.33964E+04 -2.21249E+04  3.15187E+03 -2.36470E+04  1.06979E+04 -1.87405E+04  1.71612E+04 -8.70672E+03
  1.99384E+04 -1.61490E+03  1.16590E+04  6.64804E+03  3.38612E+03 -1.83987E+03  1.36211E+04 -1.01476E+03
  2.05612E+04  7.98543E+02  1.83968E+04  1.47046E+04  1.37875E+04  3.64785E+04  1.49994E+02  4.01504E+04
 -2.39429E+04  2.82508E+04 -3.39969E+04  1.62913E+04 -3.97945E+04 -5.00110E+02 -3.09063E+04 -2.19990E+04
 -1.05448E+04 -2.67962E+04  1.33310E+04 -2.68712E+04  2.09475E+04 -8.55956E+03  1.96989E+04  1.12263E+04
  6.37590E+03  1.62527E+04 -7.81452E+03  1.41397E+04 -1.49076E+04  3.37148E+03 -1.06279E+04 -9.25352E+03
  4.37616E+02 -1.93632E+04  5.40421E+03 -9.70079E+03  1.39522E+04 -1.64303E+03  3.22814E+03  6.64729E+03
 -2.35621E+03  3.80657E+03 -7.13177E+03 -6.73590E+03 -2.21753E+03 -1.89259E+04  9.82113E+03 -1.76876E+04
  2.02387E+04 -8.98346E+03  1.88380E+04  1.18970E+03  1.76069E+04  1.63479E+04  1.00644E+04  2.20723E+04
 -2.51309E+03  3.05146E+04 -1.64499E+04  9.46184E+03 -1.73133E+04  8.16312E+03 -1.27772E+04 -6.21483E+03
 -5.51649E+03 -4.36962E+03  5.23233E+02  7.71013E+02 -4.94829E+03 -1.40289E+03 -1.10823E+04  4.15367E+03
 -8.71869E+03 -2.91758E+03 -1.20040E+04 -1.58695E+04 -7.32935E+03 -1.58040E+04  7.27816E+03 -1.48476E+04
  8.64348E+03 -6.09110E+03  8.33291E+03  1.72976E+03 -4.74783E+03  4.44009E+03  5.73456E+00 -1.37713E+03
 -6.07990E+03 -6.01319E+03  1.76403E+03 -1.28035E+04  6.20115E+03 -1.02532E+04  1.91101E+04 -1.13518E+03
  1.77347E+04  4.93586E+03  1.57775E+04  1.11194E+04 -1.69651E+03  8.83900E+03 -4.38088E+03  1.42033E+04
 -3.07411E+03 -4.98605E+02 -3.99479E+03  2.12244E+03  7.98076E+02 -1.71884E+03  8.41281E+03 -6.52087E+02
  2.87551E+03  6.67898E+03  3.91907E+02  1.09871E+04 -1.24806E+04  6.73683E+03 -9.82996E+03 -4.70396E+02
 -5.88487E+03 -7.13820E+03  2.72178E+03 -1.08270E+04  4.06035E+03 -6.68182E+03  4.88691E+03  1.37375E+03
  2.10609E+03  1.07295E+04 -4.41780E+03  1.04636E+04 -7.00526E+03  4.41568E+03 -1.01499E+04 -2.23793E+03
 -6.59051E+03 -1.25702E+04  3.89662E+03 -1.30552E+04  1.11841E+04 -1.15797E+04  9.61807E+03 -3.47707E+02
  5.74218E+03  8.07522E+03 -3.99566E+03  8.43345E+03 -1.00311E+04  8.65923E+03 -1.75704E+03 -6.85343E+02
 -5.62150E+03 -9.45892E+03 -3.07140E+02 -9.67114E+03  5.94219E+03 -3.48369E+03  4.41515E+03 -1.66268E+03
  6.64769E+03 -3.33149E+03  3.74139E+02  5.10442E+03  1.72087E+03 -3.65434E+03 -1.66626E+03 -8.53013E+03
  5.46999E+03 -4.07409E+03  6.49354E+03 -5.42359E+02  1.09084E+04  7.44419E+03  3.19243E+03  1.49555E+04
 -3.86830E+03  1.51034E+04 -1.46745E+04  1.04040E+04 -1.63212E+04 -4.40321E+01 -1.30432E+04 -4.02926E+03
 -6.53333E+03 -1.21683E+04 -2.42686E+03 -8.25692E+03  4.44787E+03 -7.40439E+02  2.46966E+02 -4.95373E+03
 -5.22127E+03 -3.97505E+03  7.08497E+02 -2.16828E+03  2.30696E+03 -1.70115E+03  9.69638E+03  1.71746E+03
  6.35194E+03 -4.86730E+02  7.68432E+03  3.72280E+03  4.96596E+03  6.90216E+03 -9.17075E+03  5.22792E+03
 -2.77457E+03  1.82656E+03 -5.51351E+03 -7.56612E+03 -8.85617E+02 -6.66637E+03  8.49679E+03 -6.96144E+03
  9.10652E+03 -1.46980E+04  1.41938E+04  2.43577E+02  7.26135E+03  9.63195E+03  3.25008E+03  1.18973E+04
 -6.85754E+03  1.05630E+04 -8.25150E+03  9.67406E+02 -1.11875E+03 -6.48150E+03  2.06056E+03 -1.69814E+03
 -5.26874E+03 -3.17569E+03  2.02782E+03 -2.52287E+03 -4.90769E+03  4.41745E+03 -3.78615E+03  1.62285E+02
 -5.17255E+03 -7.82762E+03  2.83006E+02 -1.21248E+04  3.74202E+03 -5.65393E+03  1.01957E+04 -2.35975E+03
  8.56621E+03  4.73600E+03  3.03051E+03  8.12852E+03  1.67346E+03  9.58646E+03 -4.14438E+02  6.54280E+03
 -6.29780E+03  2.77876E+03 -8.69768E+03 -5.77058E+03 -2.01916E+03 -7.12847E+03 -1.71202E+03 -5.55983E+03
  6.85924E+03 -7.39420E+03  6.27925E+03  5.32436E+02  1.89288E+03  2.50181E+03  1.85136E+03  1.10253E+03
  2.61585E+03  1.54323E+02  3.01527E+03  3.22709E+03 -2.98824E+02  6.09774E+03  1.93240E+03  1.67671E+03
  3.01296E+03  3.08514E+03 -7.02623E+03  4.78892E+03 -8.02081E+03 -3.27886E+02 -9.06120E+03 -3.54072E+03
 -6.91405E+03 -5.64847E+03  3.37291E+03 -1.36550E+04  6.26086E+03 -8.25008E+03  1.00313E+04 -1.94556E+03
  3.06387E+03 -1.26355E+03  1.17600E+03  5.81412E+03 -6.67193E+03  4.14481E+03 -1.82431E+03 -3.98765E+03
  1.59390E+03 -2.53221E+03 -7.71720E+02 -4.83347E+02  8.73860E+01  3.26019E+03  3.81202E+03  2.70241E+03
  5.38964E+03  4.39605E+03 -9.59606E+02  2.80696E+03 -6.07204E+02  1.92446E+03  5.52492E+03 -3.43221E+03
  5.55262E+02  4.78728E+03 -2.41372E+02  4.96608E+03  2.23092E+03  4.29541E+03  2.70696E+03  5.28929E+03
 -5.07080E+03 -8.63858E+02 -3.42871E+03 -7.14572E+02 -3.81073E+03 -4.22994E+03 -8.90888E+02  1.96053E+02
 -2.24779E+03 -1.39874E+02  1.45370E+02  2.24024E+03  1.26858E+03  4.33710E+03  7.60762E+01  1.93887E+03
 -5.35018E+03  4.79008E+03 -1.81477E+03 -1.84705E+03 -3.30868E+03 -2.32717E+03  2.50881E+03 -7.44295E+02
  3.81193E+03 -7.31112E+03  4.81668E+03 -2.61148E+03  3.08368E+03 -2.38077E+03  1.92271E+03  4.27023E+02
 -4.26667E+03 -3.75689E+03  2.48269E+02 -2.56092E+03 -3.65532E+02 -3.02305E+03  2.24057E+03  1.82986E+03
  5.96649E+03  2.10852E+03  1.44495E+03  4.14333E+03  5.67618E+02 -6.90022E+02  2.84957E+03  4.78785E+03
 -7.48085E+03 -1.98366E+02 -7.03495E+03  1.45577E+03  1.60954E+03 -8.22555E+03  1.30952E+03 -5.17374E+03
  9.22288E+01 -1.77921E+03 -1.19243E+03 -2.73676E+02  1.59901E+03  2.91725E+03 -1.04649E+03  4.90300E+03
 -6.30234E+03 -3.83741E+02  1.93915E+03  2.08175E+03 -3.42976E+03 -1.86400E+03 -4.19723E+03  2.81856E+03
 -5.43190E+02 -4.29664E+02 -7.30408E+03  4.49474E+03 -5.28471E+03  3.73285E+03 -3.01468E+03  2.06497E+03
 -2.15421E+02 -6.68708E+03  1.10773E+01 -1.30851E+04  6.53881E+03 -2.91614E+03  6.61571E+03 -2.51813E+03
  7.76756E+03  5.57640E+03  1.19183E+03  2.88093E+03 -2.42676E+03 -2.30600E+03 -3.35615E+03 -1.27208E+03
 -3.74978E+03 -1.34661E+03 -1.96960E+03 -1.55407E+03 -1.81757E+03 -2.23187E+03  5.93847E+03 -3.36452E+03
 -1.19850E+03  5.63455E+02 -7.08068E+02 -2.02097E+03 -3.00774E+03 -1.11732E+02  2.13386E+03 -5.26692E+03
  1.44701E+03  1.51610E+03  3.04896E+03  3.17948E+03  3.36159E+03  3.57716E+03 -2.52512E+03  5.00712E+03
 -9.04113E+03  5.59538E+03 -1.35913E+04  3.61894E+03 -6.25530E+03 -2.02749E+03 -1.55616E+03 -6.88208E+03
 -6.04076E+03 -3.16890E+03  3.44492E+03  2.22302E+02  1.74348E+03 -1.49199E+03 -2.09984E+02 -2.42953E+03
  5.29909E+03  5.00254E+03 -6.97501E+02  2.58465E+03 -1.13473E+03  8.17598E+02  5.06607E+02  4.95783E+02
 -4.34473E+02 -4.58505E+03  3.22887E+02 -2.75314E+03  1.10307E+03 -3.50349E+03  1.10929E+03 -1.31289E+01
  2.83966E+02  1.47137E+03  6.00713E+03  1.49762E+03 -1.69367E+03  5.58867E+02 -3.32252E+03 -2.81709E+03
  2.89368E+02 -1.07924E+03 -8.97340E+03  5.75034E+03  2.57485E+03 -2.19961E+03  3.73987E+03 -3.56601E+03
 -2.21313E+03  2.57617E+03 -6.48810E+02  6.35216E+03 -2.50501E+03 -5.93156E+02 -3.51402E+03 -7.94730E+02
  1.42027E+03 -1.57743E+03 -1.87250E+02 -9.40273E+01  8.17669E+02 -2.54092E+03 -3.62743E+03  2.00797E+03
 -2.30928E+03  4.89346E+03 -1.46429E+03 -2.45997E+02  7.89512E+03 -5.47375E+03 -6.76837E+02  9.99549E+02
 -3.10508E+02  5.20741E+03 -3.44745E+03 -9.34207E-01  2.23673E+03  7.86083E+03 -5.16313E+03  6.09301E+03
