 $NMID ID='MM_0lb_SNR50_20hz_g45_70.RAW', FMTDAT='(8E13.5)'
 TRAMP=1., VOLUME=1. $END
  3.02849E+05  2.84498E+03  3.36091E+05  2.53729E+05  8.31518E+04  3.35234E+05 -1.30883E+05  2.48865E+05
 -1.89807E+05  8.16064E+04 -1.10228E+05 -2.87450E+04 -2.35863E+03 -5.22076E+04  5.21544E+04  2.56971E+03
  3.14142E+04  4.92143E+04 -1.69454E+04  6.96676E+04 -6.30962E+04  5.99071E+04 -8.50142E+04  3.22106E+04
 -7.85839E+04 -1.53949E+04 -5.77021E+04 -4.89296E+04 -1.83938E+04 -6.62340E+04  2.71939E+04 -4.33885E+04
  3.72100E+04  6.13011E+03  1.62534E+04  4.77453E+04 -3.76601E+04  4.63038E+04 -6.36071E+04 -2.68375E+03
 -5.10753E+04 -5.87644E+04 -9.57658E+03 -7.75527E+04  3.18627E+04 -4.76263E+04  4.88757E+04 -1.28852E+04
  4.27712E+04  7.49186E+03  3.22382E+04  2.42597E+04  1.36734E+04  2.55546E+04 -5.61552E+03  2.98047E+04
 -2.66514E+04  1.09668E+04 -1.65715E+04  9.42966E+02  2.39470E+03 -6.17642E+03  2.40290E+04  1.25769E+04
  6.48576E+03  3.00069E+04 -2.83459E+04  3.43905E+04 -6.18954E+04  1.05090E+03 -5.69187E+04 -3.93480E+04
 -1.22870E+04 -5.98109E+04  3.59861E+04 -4.32685E+04  5.69648E+04 -4.42582E+03  3.19523E+04  3.37782E+04
 -3.79875E+03  2.86660E+04 -2.98398E+04  1.25307E+04 -2.34717E+04 -6.15908E+03 -1.02914E+04 -7.88256E+03
 -6.36486E+03 -1.37913E+04 -1.21834E+03 -1.85381E+04  7.03641E+03 -2.34603E+04  1.20237E+04 -1.73185E+04
  1.30282E+04  6.58456E+02 -4.48037E+03  1.36109E+04 -2.07460E+04 -4.08011E+03 -4.38827E+03 -2.95686E+04
  2.06179E+04 -4.06764E+04  4.47736E+04 -1.87616E+04  4.24855E+04  2.05296E+04  1.80896E+04  4.33630E+04
 -1.41421E+04  2.98381E+04 -2.42732E+04  2.69693E+03 -6.87185E+03 -2.09689E+04  1.85770E+04 -2.97913E+04
  3.73974E+04 -4.76334E+03  3.29474E+04  2.53293E+04  1.29691E+04  4.22349E+04 -8.18625E+03  3.98463E+04
 -2.81054E+04  2.80723E+04 -3.41478E+04  9.32190E+03 -3.64100E+04 -1.13210E+04 -2.30265E+04 -3.30908E+04
  6.24482E+03 -3.24778E+04  2.91853E+04 -8.56120E+03  2.61717E+04  9.07904E+03  1.74868E+03  1.80966E+04
 -1.17509E+04  5.96534E+03 -9.94594E+03 -1.13246E+04  6.84683E+03 -9.82985E+03  1.62180E+04  6.47548E+03
  1.36808E+04  2.52740E+04 -8.42890E+03  2.25449E+04 -2.21320E+04  1.27938E+04 -2.51122E+04 -6.72529E+03
 -1.42088E+04 -1.72045E+04 -7.74313E+03 -1.55070E+04  2.14371E+03 -1.26454E+04  9.53145E+03 -1.34683E+04
  2.23395E+04 -9.97813E+03  3.10327E+04  3.19499E+03  2.07474E+04  1.03483E+04  3.12620E+03  2.88523E+04
 -1.38080E+04  2.68292E+04 -2.06602E+04  6.53414E+03 -1.89514E+04 -1.14384E+04 -1.61088E+02 -1.65065E+04
  1.83660E+03 -4.82777E+03 -2.82908E+03  5.07926E+03 -1.22543E+04  6.56568E+03 -1.09813E+04 -5.71999E+03
 -1.30095E+04 -1.22257E+04  3.29156E+03 -1.77989E+04  1.16471E+04 -1.09568E+04  1.29729E+04 -1.98688E+03
  8.21614E+03  4.44609E+03 -7.56214E+02  1.69215E+04 -1.07215E+04  7.11333E+03 -1.49020E+04 -4.39033E+03
 -1.28452E+04 -1.64424E+04 -3.06897E+03 -1.63589E+04  6.81875E+03 -1.56827E+04  1.19508E+04 -6.35245E+03
  1.53147E+04 -1.44186E+03  1.25513E+04  4.34972E+03  4.27198E+03  1.76724E+03  7.09808E+03  1.36737E+03
  5.60643E+03 -7.87193E+02  1.09515E+04  1.12554E+04  6.97450E+03  2.40047E+04  1.02504E+03  2.13202E+04
 -1.28881E+04  1.89533E+04 -1.95488E+04  1.03221E+04 -2.60401E+04 -1.85788E+03 -1.90272E+04 -1.34767E+04
 -1.23048E+04 -1.84383E+04  3.53662E+03 -1.60285E+04  1.64409E+04 -8.93244E+03  1.41382E+04  2.73903E+03
  7.76624E+03  1.26852E+04 -4.64503E+03  9.66114E+03 -1.11346E+04  1.33064E+03 -8.53776E+03 -7.47230E+03
  1.05937E+03 -1.28596E+04  1.36643E+03 -7.95061E+03  8.83600E+03 -9.44139E+02  5.03261E+02  4.54185E+03
 -4.30991E+03 -1.14101E+03 -8.48863E+02 -6.80327E+03  2.57003E+03 -7.84329E+03  4.92916E+03 -5.80912E+03
  8.15072E+03 -7.12480E+03  1.01439E+04  4.88020E+02  7.68795E+03  8.21652E+03  5.34917E+03  1.15383E+04
  5.87211E+02  1.18189E+04 -3.86351E+03  1.42322E+04 -8.91519E+03  4.86210E+03 -1.26425E+04 -2.65133E+03
 -2.72877E+03 -6.57275E+03 -2.12005E+03  1.16310E+03 -1.44301E+03  4.10733E+03 -3.89168E+03  3.60051E+02
 -9.87805E+03 -5.33093E+03 -8.29896E+03 -6.72517E+03 -5.65789E+03 -1.03706E+04  7.66943E+03 -7.52744E+03
  8.32875E+03  2.15699E+03  2.69004E+03 -9.97935E+02  1.92946E+03  9.78486E+02 -2.12510E+03 -2.25916E+03
 -7.25772E+03 -3.27908E+03  1.27506E+03 -5.88328E+03  5.26491E+02 -8.81926E+03  1.06194E+04 -6.81168E+03
  1.01223E+04  9.36267E+02  5.29846E+03  2.76601E+03  3.87079E+03  7.24757E+03 -3.94640E+03  6.62889E+03
 -7.05676E+03  1.41780E+03  1.88744E+02  4.44536E+03  3.85895E+03 -1.67797E+03  2.30460E+03 -5.14568E+03
  1.62865E+03  8.35354E+02 -4.52429E+02  4.96655E+03 -5.09280E+03  1.79914E+03 -9.58558E+03  1.40652E+03
 -4.34448E+03 -2.21051E+03 -1.02539E+03 -6.62685E+03  4.53254E+03 -3.03088E+02  6.20542E+03 -2.65390E+03
  3.94679E+03  4.16582E+03 -2.08205E+03  4.97991E+03 -1.20076E+03  4.09296E+02 -4.74571E+03  2.55077E+03
 -1.68068E+03 -5.14262E+03  2.96414E+02 -1.14947E+04  2.16456E+03 -5.60284E+03  3.02986E+03  1.99162E+03
  2.11880E+03  3.77536E+03  2.26500E+03  3.62250E+03 -5.18598E+03  1.82606E+03 -7.55656E+03 -2.42411E+03
 -7.59427E+03 -5.84294E+03 -3.23427E+03 -2.05333E+03  2.90862E+03 -4.39649E+03 -4.64879E+02 -3.29929E+03
  3.16120E+02  1.76968E+03  2.11093E+03  3.44319E+03 -8.59098E+02  1.91762E+03  9.33286E+02  8.54701E+02
  6.85720E+03  2.16463E+03  3.21606E+03 -2.68971E+02  2.53620E+03  2.08397E+03  5.08013E+03  4.59616E+03
  1.88933E+03  7.33159E+03 -1.03305E+04  8.02375E+03 -6.56924E+03  2.23490E+03 -5.50884E+03 -1.16815E+03
 -2.24406E+03 -4.19078E+03  1.56937E+03 -2.15485E+03  1.19050E+03  5.40250E+02 -3.11539E+02 -2.97855E+03
  2.83956E+03 -4.37648E+03  9.40649E+02 -4.00986E+02  4.16861E+03 -2.13906E+03  7.65688E+02 -1.14492E+03
  5.09836E+03 -3.51477E+03  1.45720E+03  4.46226E+03 -1.12476E+03  6.69127E+02 -1.51116E+03  2.37394E+03
 -2.05400E+03 -2.12844E+03  2.12609E+03 -1.81818E+03  4.16747E+03 -3.79406E+03  2.85768E+03 -3.17599E+03
  3.58722E+03 -2.03994E+03  1.95502E+03  1.89302E+03 -2.49963E+02  7.15232E+02 -2.55941E+03  5.39207E+03
 -5.69489E+03  7.20939E+03 -4.59230E+03  4.87261E+02 -3.58786E+02 -4.65025E+03  2.47457E+03 -2.58049E+03
 -3.97978E+02  2.23473E+03  1.79414E+03 -1.41773E+03  5.18014E+02  2.72337E+03  6.81602E+02  5.87522E+01
 -1.61101E+03 -6.37388E+03  1.52708E+03 -1.20895E+02  1.46918E+03 -3.34356E+03  3.47535E+03 -8.70650E+02
  6.73822E+03  3.51544E+03 -1.55926E+03 -2.16496E+03  8.76832E+01  7.01855E+03  3.82137E+03  6.29506E+03
 -4.21871E+03 -8.37791E+02 -1.91687E+03  2.49627E+03  1.59780E+03 -4.18562E+03  3.42003E+03 -2.06402E+02
  3.29499E+00  1.60274E+03 -1.80580E+03  3.56872E+03 -8.37761E+02  3.79879E+02  1.76099E+03 -8.94840E+02
  3.28857E+03  9.10077E+02  2.48299E+03  3.10368E+03  1.70131E+02 -7.12237E+02 -2.72072E+03 -1.29085E+03
  1.75660E+03  6.14422E+03 -1.30880E+03  3.84790E+03 -2.96563E+03  2.98523E+02 -1.32328E+03 -4.24483E+03
 -1.51065E+03 -3.46753E+03 -2.37012E+02 -4.92421E+03  2.49886E+03 -3.09128E+03  1.56286E+03  5.09511E+02
  2.47222E+03  9.97394E+02  1.29260E+02  3.31286E+03  1.71709E+03  4.74784E+03 -3.71028E+03  1.89338E+03
 -8.65105E+01 -1.64608E+02  1.15947E+03 -1.06240E+03 -1.56566E+03 -3.75728E+03 -4.81435E+02  1.38446E+03
 -1.78927E+03 -1.21276E+03  6.82662E+02 -1.68562E+03  7.23371E+02  3.78583E+03  4.01571E+03 -3.35490E+02
 -1.08892E+03  2.62442E+03  2.99960E+03 -2.19170E+02  7.31133E+02  1.42790E+03 -7.73972E+02  3.39167E+03
  3.28768E+03  2.48512E+03  3.26163E+02  3.12943E+03 -2.99515E+03 -1.44606E+03  3.16518E+03  6.10146E+01
  5.73774E+02 -1.97808E+03  5.58975E+03 -1.20556E+03  1.08998E+03 -2.21655E+03  1.14979E+02  6.31074E+02
 -3.21202E+03 -1.37716E+02  7.59524E+02  3.41371E+02 -3.29725E+03 -3.82765E+03  8.28188E+02  7.50895E+02
  1.49763E+03 -2.00524E+03  1.04991E+03  1.17601E+03  1.89113E+03  2.78898E+03  1.24385E+03 -2.10631E+03
  2.26487E+03 -8.55022E+02 -2.92133E+03 -1.98790E+02 -5.31419E+03 -1.49291E+02  2.49011E+03  1.50652E+03
  7.70964E+02 -1.23917E+03 -2.16034E+03  1.31029E+02 -2.73323E+03  1.99296E+03  5.02003E+03  4.34339E+02
 -3.51217E+03  1.86777E+03 -1.52084E+03  2.50448E+03 -9.73744E+02 -5.08407E+02 -9.40218E+02 -1.01873E+03
  6.75689E+03  2.17458E+03  1.38325E+03 -2.01450E+03  4.66470E+02  7.65673E+02  1.21509E+03  3.34172E+02
 -1.13982E+03 -4.80521E+01  2.03321E+03 -5.87762E+03 -2.08204E+03 -1.39902E+03  1.73043E+03 -3.15569E+03
  6.37265E+02 -2.12430E+03 -2.62764E+02  2.44362E+03  2.13845E+03  2.42200E+03 -6.26316E+02 -2.30048E+03
  2.72880E+02 -3.36031E+03 -3.83359E+03 -1.04475E+03 -2.22216E+03 -2.29247E+02  3.43290E+03  5.92031E+02
 -1.21408E+02  1.64275E+03 -1.25610E+03  3.18394E+02  1.82706E+03  1.09909E+03 -3.11146E+03 -2.72706E+02
  2.14295E+03 -1.37218E+02  2.13909E+03  2.02292E+02  2.21552E+03 -3.28445E+03 -2.41036E+02 -3.72706E+03
 -2.71309E+03 -9.05654E+02 -2.59457E+03 -2.38431E+03 -1.84747E+03 -3.84955E+03 -3.52515E+01  7.57904E+02
  3.37262E+03 -1.00040E+03 -8.24872E+02  2.16375E+03  5.70136E+02  1.15806E+03 -2.92695E+03 -2.69650E+03
  2.06156E+03  3.95600E+03 -2.52719E+03  2.37242E+03 -3.58321E+03 -2.38234E+03 -1.63524E+03 -5.52892E+03
 -5.87527E+02 -2.80404E+02 -3.32740E+01  1.47622E+03 -2.98545E+03  3.79867E+02 -3.52543E+03  2.49602E+03
  5.90982E+02 -3.92227E+03 -9.55670E+02 -1.71146E+03  1.11404E+03 -1.03325E+03 -4.11991E+03  2.91056E+03
  1.53791E+03  1.96770E+03  8.19983E+02 -7.11734E+02 -2.67628E+03  3.33590E+02  1.89388E+03  1.15334E+03
  3.42086E+03  2.55916E+03 -2.77459E+03  1.06798E+03 -4.23137E+03  1.62731E+03  2.12744E+03 -1.69839E+03
 -2.29153E+03  3.97728E+02  2.85768E+03  4.76779E+03  1.19010E+03  1.62513E+03  1.73892E+03 -9.57735E+02
 -5.94892E+02 -6.71066E+02 -1.49417E+03  2.73447E+03  9.95139E+02 -1.36924E+03  2.10779E+03 -2.51436E+03
  9.75731E+02  3.57817E+03 -2.98329E+02 -8.30208E+02  4.01722E+03  5.21126E+03 -3.96640E+03 -6.55369E+02
 -2.34537E+03  9.02078E+02 -2.87014E+03 -2.89142E+03 -2.87190E+03 -1.48209E+02  3.04958E+03  1.62545E+03
 -2.97912E+03 -2.15962E+02  6.24403E+02  8.12558E+01  7.08474E+02  8.46219E+02 -2.46568E+03 -1.95542E+03
