 $NMID ID='MM_0lb_SNR50_15hz_g55_95.RAW', FMTDAT='(8E13.5)'
 TRAMP=1., VOLUME=1. $END
  3.06252E+05  1.25666E+03  3.43147E+05  2.51257E+05  8.42529E+04  3.38420E+05 -1.37121E+05  2.47650E+05
 -1.92671E+05  8.06577E+04 -1.14437E+05 -3.79179E+04 -3.28597E+03 -4.98005E+04  5.37661E+04 -4.47879E+03
  3.40172E+04  5.40702E+04 -1.18469E+04  7.09594E+04 -6.05716E+04  6.59573E+04 -8.37119E+04  3.47174E+04
 -8.24738E+04 -1.04291E+04 -5.88583E+04 -4.80174E+04 -1.92089E+04 -6.89657E+04  2.36436E+04 -4.45856E+04
  4.26069E+04  5.12110E+03  1.73990E+04  4.90077E+04 -3.49384E+04  4.50572E+04 -6.72950E+04 -3.84235E+03
 -5.38976E+04 -5.64931E+04 -7.00779E+03 -7.56736E+04  2.93530E+04 -5.28568E+04  4.79449E+04 -1.81688E+04
  4.48578E+04  1.62584E+04  3.33881E+04  2.70756E+04  1.56722E+04  2.80854E+04 -4.97263E+03  3.11410E+04
 -2.48163E+04  1.65449E+04 -1.58463E+04 -1.08944E+04  5.06542E+03 -6.18441E+03  2.01581E+04  1.65421E+04
  3.71687E+03  3.41306E+04 -3.42502E+04  3.75824E+04 -5.99995E+04  6.79399E+03 -6.07399E+04 -4.08059E+04
 -9.97500E+03 -6.21570E+04  3.94428E+04 -4.12709E+04  5.69608E+04 -3.00529E+03  3.46605E+04  3.30107E+04
 -3.90550E+03  3.35811E+04 -3.09298E+04  1.09210E+04 -2.57971E+04 -5.61836E+03 -1.31721E+04 -8.63700E+03
 -1.07276E+04 -1.10285E+04 -2.20774E+03 -2.03287E+04  9.62928E+03 -2.34062E+04  1.39941E+04 -1.23645E+04
  7.85630E+03  4.20283E+03 -1.12913E+04  1.39650E+04 -1.86827E+04 -8.05442E+03 -5.90911E+03 -3.52351E+04
  2.10328E+04 -4.28899E+04  4.54662E+04 -1.98747E+04  5.00293E+04  1.93925E+04  1.74384E+04  4.53260E+04
 -1.88967E+04  2.82516E+04 -2.42543E+04 -6.77299E+02 -8.78689E+03 -3.01677E+04  2.29678E+04 -3.44055E+04
  4.27020E+04 -6.84911E+03  3.47456E+04  2.45851E+04  1.73376E+04  4.47699E+04 -8.78445E+03  4.78715E+04
 -3.31268E+04  3.29714E+04 -4.30623E+04  1.39915E+04 -3.94547E+04 -1.59699E+04 -2.28276E+04 -3.43591E+04
  8.11346E+03 -3.89304E+04  3.19061E+04 -1.88286E+04  3.24681E+04  1.14928E+04  6.49934E+03  1.68066E+04
 -1.35582E+04  2.90288E+02 -1.06862E+04 -1.19241E+04  3.72173E+03 -1.24103E+04  1.88162E+04  5.67170E+03
  1.56794E+04  2.14793E+04 -6.61758E+03  2.28578E+04 -2.22070E+04  1.02055E+04 -2.82369E+04 -8.69240E+03
 -1.49760E+04 -1.66505E+04 -6.01923E+03 -1.95630E+04  3.42054E+03 -1.87931E+04  1.46676E+04 -1.75986E+04
  2.23942E+04 -1.03152E+04  3.22177E+04  5.54890E+03  2.14527E+04  1.95611E+04  6.14166E+03  3.87247E+04
 -1.92884E+04  2.95466E+04 -3.27898E+04  1.30592E+04 -1.86042E+04 -8.79334E+03 -4.42359E+03 -1.31470E+04
 -7.65752E+02 -1.00300E+03  7.62790E+02  5.02446E+03 -1.51804E+04  4.38030E+03 -1.52711E+04 -8.73472E+03
 -7.92082E+03 -2.23069E+04  5.19287E+03 -2.30628E+04  1.56501E+04 -8.74304E+03  1.52640E+04  1.49510E+02
  1.25453E+04  1.10663E+04 -3.60212E+03  2.04067E+04 -1.09395E+04  1.26926E+04 -1.98163E+04 -2.13086E+03
 -1.27087E+04 -1.56606E+04  8.84227E+02 -2.31672E+04  9.30662E+03 -1.85303E+04  1.78991E+04 -8.91916E+03
  1.89497E+04  2.61055E+03  9.77908E+03  9.10387E+03  4.18545E+03  1.26231E+03  8.78655E+03 -2.62413E+03
  1.78823E+04 -5.19461E+02  1.84758E+04  1.69080E+04  1.07553E+04  3.39646E+04 -1.71993E+03  3.13935E+04
 -1.87373E+04  2.86410E+04 -3.18821E+04  8.88833E+03 -3.49105E+04 -1.06895E+03 -3.25316E+04 -1.67150E+04
 -1.29214E+04 -2.62297E+04  1.03593E+04 -2.00426E+04  2.04400E+04 -1.10747E+04  1.75290E+04  8.27352E+03
  5.28901E+03  1.38084E+04 -1.23489E+04  1.32563E+04 -1.52323E+04 -9.93778E+01 -1.18089E+04 -1.03872E+04
  3.65198E+03 -1.14542E+04  1.00749E+04 -1.30718E+04  6.05923E+03 -1.71183E+03  2.80350E+03  2.97289E+03
 -5.53069E+03  2.01594E+03 -6.81567E+03 -3.49822E+03 -2.40083E+02 -1.27162E+04  9.24371E+03 -1.30725E+04
  9.89989E+03 -8.51512E+03  1.22305E+04  3.92941E+03  1.80574E+04  1.66802E+04  7.65289E+03  1.79362E+04
 -3.54983E+03  1.87968E+04 -1.15673E+04  1.60311E+04 -1.62785E+04 -1.29286E+03 -1.34640E+04 -5.61401E+03
 -5.92425E+03 -2.98586E+03 -1.99582E+03  6.03651E+03 -1.34376E+03  4.68880E+03 -5.41384E+03  7.36196E+03
 -9.76761E+03  9.70813E+02 -8.05180E+03 -1.15976E+04 -4.82046E+03 -1.51683E+04  7.22373E+03 -1.00733E+04
  1.03010E+04 -5.23533E+03  7.81037E+03  4.84080E+03  1.20764E+03  1.12918E+04 -4.67109E+03  1.91233E+03
 -3.75063E+03 -6.79320E+03 -7.78876E+01 -1.12518E+04  1.14472E+04 -1.08608E+04  1.28758E+04 -5.46583E+03
  1.16240E+04  1.59303E+02  7.99858E+03  1.03092E+04  1.82723E+03  1.29321E+04 -7.64575E+03  8.36626E+03
 -1.02571E+04  7.75915E+02 -6.86527E+03  2.77938E+02  5.09855E+03 -6.06172E+03  3.55019E+03 -6.96150E+03
  4.49116E+03  8.25725E+03 -2.50758E+02  4.81883E+03 -1.05273E+04  6.91961E+03 -9.72219E+03  3.25805E+03
 -8.16983E+03 -5.68941E+03  8.50657E+02 -3.89617E+03  6.34244E+03 -5.15465E+03  6.17387E+03  6.52796E+02
  2.48601E+03  6.06952E+03 -5.24884E+02  7.88954E+03 -1.07468E+04  6.46980E+03 -9.47884E+03 -2.00152E+03
 -5.17595E+03 -7.74206E+03  5.41776E+03 -1.58754E+04  5.47362E+03 -6.88828E+03  1.25774E+04  3.75903E+02
  1.34272E+04  5.48948E+03  4.20106E+02  2.24855E+03 -8.89521E+03  7.24141E+03 -7.26214E+03 -1.53063E+01
 -3.76217E+03 -8.01950E+03  6.79071E+03 -5.79786E+03  7.20337E+03 -6.60918E+03  5.22958E+03 -7.31849E+02
  2.88331E+03  2.64093E+03 -2.04694E+03 -1.15217E+03 -2.74740E+03 -2.99933E+03  3.82816E+03 -9.25229E+03
  1.04892E+04 -3.29405E+03  6.40338E+03 -1.51990E+02  1.13388E+04  6.85280E+03  7.99748E+03  1.25351E+04
 -4.18142E+03  1.47887E+04 -1.02177E+04  8.89015E+03 -1.15096E+04  9.92571E+02 -1.46710E+04 -3.85303E+03
 -8.98839E+03 -1.53884E+04  2.86686E+03 -8.53218E+03  3.78470E+03 -4.53934E+03 -2.20055E+02  1.47712E+03
  1.88836E+02 -3.29275E+03 -1.57640E+03 -4.99837E+03  2.86701E+03 -4.27110E+03  5.73329E+03  4.28644E+03
  5.60107E+03  4.48595E+03  2.83314E+03  1.23630E+04  1.86375E+01  9.30624E+03 -7.08185E+03  3.56114E+03
 -3.40555E+03 -2.55457E+03 -2.98464E+03 -7.86327E+02  2.26755E+03 -8.85866E+03  5.48285E+03 -9.02464E+03
  1.01505E+04 -7.00309E+03  1.20239E+04 -7.56459E+02  5.60879E+03  7.04131E+03  3.61223E+03  9.91589E+03
 -1.80933E+03  1.34073E+04 -5.26980E+03 -5.79041E+02 -2.25443E+03 -4.67347E+03  2.77307E+03 -3.31661E+03
  1.35302E+03 -2.55397E+03 -1.54057E+03  8.49302E+02  2.04079E+03  1.05901E+03 -1.79352E+02  2.56504E+03
 -3.83547E+03 -3.71434E+03 -7.18584E+01 -7.56467E+03  8.87274E+03 -9.67450E+03  5.26769E+03 -2.22701E+02
  1.13161E+04  5.64084E+03  3.19651E+03  2.36139E+03 -3.11178E+01  9.33410E+03 -6.68917E+03  5.20040E+03
 -7.10791E+03  2.94012E+03 -6.62176E+03 -5.07091E+03 -2.43908E+03 -8.36943E+03 -2.59964E+03 -4.93240E+03
  6.75872E+03 -2.07320E+03  1.90725E+03 -6.67709E+03  4.42271E+03  5.76259E+03  3.29827E+03  1.00721E+03
 -4.76522E+03  2.46187E+03  9.53750E+02 -4.72970E+02 -3.45187E+00  6.43170E+03  2.53697E+03  5.55802E+03
 -3.42999E+03  6.45972E+03 -4.35424E+03  4.20360E+03 -5.16520E+03 -4.43690E+02 -1.15317E+04 -3.12719E+03
 -5.64128E+03 -9.73161E+03  2.67669E+03 -1.07835E+04  3.66069E+03 -2.99015E+03  4.24804E+03 -1.77379E+03
  2.30494E+03 -1.60423E+03  4.63819E+02  3.90330E+03 -1.74049E+03  1.95940E+03 -5.46500E+02  3.66633E+03
 -6.06600E+03 -3.58640E+03  3.59138E+03 -2.23018E+03 -3.18862E+02 -1.81660E+03 -3.00005E+03 -1.25818E+02
 -1.11064E+03  8.00410E+02  1.07392E+03 -3.53289E+03 -1.36834E+03  4.16871E+03 -1.22823E+03 -1.37716E+03
  2.36509E+03 -3.58023E+03  2.67900E+03  1.39560E+03  9.06244E+02  8.51475E+02  1.89478E+02  5.42400E+03
 -5.94797E+03  6.66990E+03 -7.68979E+03  8.52189E+01 -3.07794E+03  6.72434E+02  2.59376E+03  1.06797E+03
  2.99890E+03 -1.41543E+03 -5.38715E+02 -2.27067E+02 -4.30334E+03  3.86012E+03  1.95079E+03  4.56522E+03
 -6.06658E+03 -1.50418E+03 -3.42360E+03 -2.52954E+03 -3.05353E+03 -6.15385E+03  2.95933E+03 -6.18814E+03
 -1.81036E+03 -5.85272E+03 -4.70480E+02 -1.05332E+03  2.16125E+03  1.22774E+03 -9.93560E+02  6.79929E+03
 -2.73774E+03 -1.14257E+03 -4.60762E+03  2.79228E+03 -1.13520E+03 -2.68524E+03  5.45066E+03 -2.85167E+03
  4.89189E+02  2.10703E+03  5.67650E+03  7.11715E+03 -1.93519E+02  4.52870E+03 -6.31463E+02  3.24431E+03
 -3.67054E+03  1.48618E+01 -8.38264E+03  1.09743E+03 -3.83403E+03 -1.64159E+03 -1.97172E+03 -5.62254E+03
 -2.75302E+03 -1.93031E+03  3.01687E+03  7.73808E+02 -4.01411E+03  2.00104E+03 -2.71205E+03  1.07572E+03
 -3.57360E+03  2.27412E+03  3.11908E+03 -7.37190E+02  1.45660E+03  1.46565E+03  1.98371E+03  8.72050E+02
  1.21837E+03  3.27621E+03 -3.00529E+03  1.27909E+02 -6.87035E+03  1.27231E+03 -4.06018E+03 -1.67705E+03
 -5.60465E+02 -6.20670E+03 -2.49617E+02 -1.00980E+04  3.19082E+03 -7.10374E+02  5.11079E+03 -4.13757E+03
  5.78394E+03  1.02669E+03  6.90212E+02  4.75979E+03 -3.77629E+03  5.37506E+03 -5.14691E+03  4.80170E+03
  1.43565E+03  2.59495E+03  1.99609E+03  3.15658E+03  2.59132E+03 -3.44581E+03 -5.77882E+03  6.36209E+03
  8.01182E+02 -3.34604E+03 -9.68894E+02  1.61985E+03 -9.74892E+02 -1.68966E+03  4.98926E+02  3.83186E+03
  2.12845E+03 -1.47364E+03  1.50102E+03  4.86165E+02  2.03674E+03 -1.77392E+03 -3.76982E+02  7.42235E+03
  3.70235E+03  3.01595E+03 -4.57822E+03  1.81043E+03 -6.28219E+03  2.57265E+02 -1.87902E+03 -4.18258E+03
  1.57229E+03 -5.26769E+03  3.19646E+02 -6.58619E+03  5.20951E+03 -4.43263E+03  2.91704E+03  1.65817E+03
  1.05591E+03  5.04602E+03 -2.23207E+02  3.40204E+03  6.68514E+03  2.15206E+03  5.17673E+02 -3.79667E+03
  2.68351E+03  4.90240E+02  2.34724E+03  2.57475E+02  8.34274E+02 -2.45003E+03  3.11574E+03  2.41947E+03
 -2.82941E+03 -7.58219E+02 -1.72187E+03  2.45785E+03 -3.90543E+03 -1.68524E+03 -3.68453E+02 -3.81528E+03
 -8.87268E+02 -3.21024E+02  7.93495E+03  1.99796E+03 -1.99443E+03 -1.82349E+03  6.52004E+03  1.07500E+03
  1.49884E+02  5.87803E+03  7.70932E+02  1.30406E+03  1.70866E+03  3.31136E+03 -5.83859E+03 -9.86225E+02
  2.09486E+03 -1.38434E+03 -1.09604E+03  2.40181E+03  6.13753E+03  6.75212E+03  4.42626E+02 -2.86188E+03
 -4.90258E+03 -1.99016E+03 -3.67724E+03 -5.21817E+02  8.70980E+02 -2.59265E+03  1.77923E+03 -5.96156E+03
  4.96225E+03  2.43861E+03 -2.97501E+03  6.06645E+01 -2.09814E+03  1.80284E+03  4.37498E+02  2.79384E+03
