 $NMID ID='MM_0lb_SNR50_18hz_g45_60.RAW', FMTDAT='(8E13.5)'
 TRAMP=1., VOLUME=1. $END
  3.07388E+05  2.64989E+02  3.36657E+05  2.49806E+05  8.78478E+04  3.37352E+05 -1.30514E+05  2.52168E+05
 -1.89139E+05  8.25198E+04 -1.13707E+05 -3.41984E+04  1.97210E+03 -5.32727E+04  5.51320E+04  2.25623E+02
  3.29730E+04  5.04456E+04 -1.43974E+04  7.09146E+04 -6.03204E+04  6.19691E+04 -8.59456E+04  3.18670E+04
 -8.21791E+04 -1.36470E+04 -5.75204E+04 -5.09565E+04 -2.05511E+04 -6.73716E+04  2.29678E+04 -4.59265E+04
  4.14371E+04  5.89723E+03  1.36353E+04  4.35516E+04 -3.49225E+04  4.37121E+04 -6.53123E+04  1.96273E+03
 -5.04535E+04 -5.84685E+04 -6.75643E+03 -7.38083E+04  3.23492E+04 -5.40438E+04  4.39358E+04 -1.77426E+04
  4.28320E+04  1.49070E+04  2.84834E+04  2.27766E+04  1.58147E+04  3.10702E+04 -4.45851E+03  2.75936E+04
 -1.93579E+04  1.76725E+04 -1.57791E+04 -4.73465E+03  4.04261E+03 -1.05990E+04  1.81482E+04  1.30957E+04
  6.46410E+03  3.34207E+04 -3.38978E+04  3.28756E+04 -6.57470E+04  5.96144E+03 -5.81028E+04 -4.44546E+04
 -1.02526E+04 -5.94441E+04  3.78278E+04 -4.40846E+04  5.20044E+04 -1.12994E+03  3.22770E+04  3.20755E+04
 -8.78231E+03  3.26417E+04 -2.92056E+04  1.51294E+04 -2.53035E+04 -3.52221E+03 -1.68576E+04 -8.07602E+03
 -8.69835E+03 -1.04648E+04  8.80280E+02 -1.90900E+04  3.64065E+03 -2.40228E+04  1.44612E+04 -1.91452E+04
  1.09741E+04  4.65083E+03 -5.96190E+03  1.27585E+04 -1.58041E+04 -4.08398E+03 -1.08294E+04 -3.21574E+04
  2.02216E+04 -3.90821E+04  4.45283E+04 -1.79153E+04  4.22535E+04  1.82994E+04  1.06120E+04  3.82353E+04
 -1.57349E+04  3.22588E+04 -2.55517E+04  3.51104E+03 -7.23733E+03 -2.28099E+04  2.34561E+04 -2.88567E+04
  3.77886E+04 -5.98460E+03  3.26860E+04  2.40259E+04  1.15618E+04  4.46742E+04 -8.71348E+03  4.64910E+04
 -3.19649E+04  3.20819E+04 -3.51241E+04  1.10646E+04 -3.93627E+04 -1.22329E+04 -2.58005E+04 -3.40388E+04
  7.03319E+03 -3.36039E+04  2.50039E+04 -1.57584E+04  2.35376E+04  1.18717E+04  4.97730E+03  1.45400E+04
 -1.47080E+04  8.16744E+03 -8.80226E+03 -7.51276E+03  5.85526E+03 -9.63216E+03  1.24305E+04  3.27151E+03
  1.49882E+04  1.85222E+04 -3.42940E+03  2.40213E+04 -2.73859E+04  9.60887E+03 -2.47960E+04 -3.69751E+03
 -1.64929E+04 -1.45989E+04 -7.35117E+03 -1.90517E+04  5.60728E+03 -1.49661E+04  1.01455E+04 -7.14740E+03
  2.13667E+04 -1.19934E+04  2.58611E+04  1.48524E+03  2.38632E+04  2.01984E+04  5.84899E+03  3.38328E+04
 -1.61880E+04  2.75894E+04 -2.41129E+04  1.25461E+04 -1.87170E+04 -9.78337E+03 -3.71023E+03 -1.36739E+04
  3.74077E+03 -1.99910E+03 -4.17309E+03  3.81166E+03 -1.17846E+04  1.23953E+03 -1.80787E+04 -4.83176E+03
 -6.48749E+03 -1.72162E+04  7.20100E+03 -1.65249E+04  1.04895E+04 -1.68913E+04  1.66842E+04  1.55989E+03
  8.09896E+03  1.53870E+04 -3.89551E+03  1.47355E+04 -1.61251E+04  1.03951E+04 -1.66661E+04 -4.50965E+03
 -1.18374E+04 -1.59547E+04  1.87611E+02 -1.76950E+04  9.14307E+03 -1.26455E+04  1.79494E+04 -7.57984E+03
  1.63365E+04  2.25191E+03  1.23172E+04 -1.38760E+03  6.50170E+03  3.33295E+02  8.82660E+03 -8.08256E+02
  9.61464E+03  2.57623E+03  1.69235E+04  1.29633E+04  1.03505E+04  2.25216E+04 -4.45237E+03  2.72464E+04
 -1.61123E+04  2.20287E+04 -2.69322E+04  8.17771E+03 -2.20019E+04 -5.77874E+03 -2.42198E+04 -1.25279E+04
 -5.99037E+03 -2.11172E+04  9.24747E+03 -1.87590E+04  1.93590E+04 -1.05657E+04  2.16054E+04  3.41223E+03
  7.23297E+03  1.30209E+04 -6.87095E+03  9.81547E+03 -1.65701E+04  2.11942E+03 -9.24993E+03 -9.91519E+03
  5.58733E+03 -1.26176E+04  6.95024E+03 -1.32436E+04  8.47682E+03 -9.26773E+02  2.00822E+03  4.74340E+03
 -8.83000E+03  1.63221E+03 -4.34612E+03 -3.46873E+03  1.49586E+03 -1.40358E+04  7.26793E+03 -8.97790E+03
  1.47000E+04 -6.34620E+03  1.13849E+04  7.41336E+03  1.16643E+04  9.61447E+03  9.99743E+03  1.21617E+04
 -2.17434E+03  1.74920E+04 -9.99678E+03  6.29431E+03 -1.34920E+04  1.45281E+03 -7.81060E+03 -1.84715E+03
 -7.85664E+03  1.52041E+03 -1.86467E+03  1.70431E+02 -6.54406E+02  3.61160E+03  1.15618E+03  6.12309E+03
 -9.83761E+03 -2.16942E+03 -9.45977E+03 -6.85822E+03 -1.77686E+03 -9.18326E+03  3.18433E+03 -9.28316E+03
  5.86704E+03 -7.61606E+03  4.54168E+03  1.83015E+03  7.71393E+02  1.61637E+03 -5.94207E+03 -1.88417E+02
 -5.01471E+03 -3.87789E+03 -3.30510E+03 -5.73737E+03  2.16730E+03 -8.08275E+03  1.20004E+04 -4.68858E+03
  1.10951E+04  3.10761E+03  6.73099E+03  1.07151E+04  3.04484E+03  8.27801E+03 -7.39783E+03  9.72996E+03
 -4.82567E+03  3.37185E+03 -5.36054E+03 -1.85451E+03  1.52887E+03  6.87836E+02  6.18159E+03  4.97220E+03
  1.77953E+03  3.36779E+03  2.84855E+03  4.88377E+03 -2.98794E+03  5.00436E+03 -7.83902E+03  2.27622E+03
 -2.95018E+03 -7.28030E+03  1.16439E+03 -9.69138E+03  5.73485E+03 -2.48028E+03  7.41709E+03  8.55692E+01
  4.19397E+03  6.94260E+03 -3.21987E+03  5.64799E+03 -2.69964E+03  1.82799E+03 -3.75224E+03  1.28003E+03
 -3.32431E+03 -6.19866E+03 -6.65139E+02 -1.11081E+04  3.30913E+03 -2.02911E+03  1.18536E+04 -3.66147E+03
  8.43819E+03  6.61251E+03 -2.99019E+03  5.25366E+03 -9.32858E+03  4.95316E+03 -2.33642E+03  1.51392E+03
 -2.71481E+03 -6.19474E+03 -2.96888E+03 -4.94690E+03  7.07718E+03 -5.75604E+03  4.35033E+03  5.61849E+02
  3.86731E+03  3.95263E+03  2.22347E+02  2.81390E+03  1.27350E+03 -1.70167E+03 -2.14509E+03  1.05001E+03
 -1.82364E+03 -1.55743E+02  5.78038E+03  1.43558E+03  3.97449E+03  4.60625E+03  4.73998E+03  8.08101E+03
 -1.88026E+03  8.87159E+03 -9.75835E+03  5.11127E+03 -6.50554E+03 -4.47747E+03 -7.31017E+03 -5.54020E+03
 -6.12230E+03 -5.01717E+03 -4.42521E+03 -3.48183E+03  7.46499E+02 -2.87654E+02 -2.08994E+03 -3.54627E+03
  3.41274E+03 -3.63272E+03  2.65076E+03 -1.73578E+03  2.93221E+03  5.70620E+02  2.93906E+03  4.20487E+03
  5.08298E+03  1.83984E+03 -2.80412E+02  3.51039E+03 -6.39263E+03  4.64694E+03 -6.24676E+03  1.91101E+02
 -6.19563E+03  5.02541E+02  1.01616E+03 -3.12097E+03  1.46171E+03 -4.19656E+03  6.49760E+03 -2.68866E+03
  3.72166E+02 -4.34140E+03  5.44032E+03 -1.88469E+03  4.11656E+03  5.65656E+03 -5.14000E+02  7.44823E+03
 -1.50007E+03  4.91621E+03 -4.88961E+03  4.84368E+03 -1.77700E+03  2.91573E+03 -8.82516E+02 -5.45303E+02
  3.72427E+03  9.46227E+02 -1.11866E+03  3.22379E+02 -8.63461E+03 -1.41512E+03 -3.67767E+03 -2.56507E+03
 -4.88818E+03 -2.92959E+03  2.08737E+03 -5.59982E+03  2.50503E+03 -3.30791E+03  5.96802E+03 -4.63501E+03
  3.18376E+03  4.21664E+03  3.84196E+03  2.54406E+03 -6.21637E+02 -2.60155E+03 -1.65059E+03 -7.10300E+02
 -2.64300E+03 -2.33113E+02 -7.24260E+03 -1.80769E+03  5.05444E+03 -5.04408E+03  8.04681E+02 -2.52805E+03
  5.57908E+03  1.33468E+03  1.98561E+03 -6.82521E+02  3.83953E+03  4.65352E+03 -1.45711E+03  3.65547E+03
  4.66898E+03 -1.25632E+03  2.18437E+03 -1.38664E+02  4.17818E+02  2.65637E+03  6.00778E+02  9.47890E+01
 -3.62065E+03  4.95065E+03 -1.26353E+03  8.24806E+03 -4.17025E+03  2.55162E+03 -2.01008E+03  1.64759E+02
  6.96575E+02 -7.96921E+03 -1.29859E+03 -1.12757E+03  2.76894E+03 -3.15693E+03  6.03478E+03 -3.12579E+03
  2.32117E+03 -1.07372E+03 -8.53997E+02 -4.69563E+02 -5.97077E+03 -2.37551E+03  2.71702E+03  5.68187E+02
 -4.88471E+03 -5.98399E+03  3.12505E+03  7.26630E+02 -2.11605E+03  1.28348E+03  3.64837E+03 -2.75436E+03
 -5.14761E+02  3.85690E+03 -3.75006E+03 -1.34510E+03 -3.42384E+02  7.95115E+02  2.76358E+03 -3.18034E+03
  4.72643E+03  1.86142E+03  1.02782E+03  1.17123E+03 -2.86550E+03  5.24877E+03 -5.23968E+02  4.30401E+03
 -5.28105E+03  4.02332E+03 -3.84553E+02 -1.54742E+03  2.40275E+03  1.86250E+03  1.28871E+02 -2.68312E+03
  6.14766E+03  2.69287E+03  5.78000E+02 -7.17258E+02  2.71610E+03 -1.96697E+03  1.83434E+03 -6.49895E+02
  3.94705E+03  2.24135E+03 -1.69949E+02 -3.39760E+03 -1.18464E+03 -4.52776E+03  4.79385E+02 -2.73449E+03
 -1.87319E+03  5.93551E+02  1.61398E+03 -5.52426E+03 -2.93858E+03  1.07302E+03  3.14960E+03  1.20356E+03
 -6.58300E+02  2.85157E+03 -7.72743E+02 -1.26082E+03 -3.06315E+03  1.58905E+03  3.08258E+03  2.17831E+03
  1.11197E+03 -2.23006E+03  3.47655E+03  1.48334E+03  1.78840E+03  1.68568E+03  2.93100E+03  4.34121E+03
 -3.54567E+03 -2.82070E+03 -5.87698E+02 -3.22636E+03  3.61002E+03 -2.12494E+03 -6.54849E+02 -6.02731E+02
 -2.66098E+02 -1.59107E+03  2.84522E+03  1.34966E+03 -1.68703E+03  1.67060E+03 -5.74773E+01 -2.74358E+03
 -4.27119E+03  7.09370E+02 -2.55990E+03  1.07699E+03  1.45039E+03  1.24715E+03  2.14962E+03 -5.30568E+02
  2.66348E+03  2.27225E+03  7.22902E+02 -2.41223E+03 -2.36672E+03 -4.16256E+02 -1.28090E+03 -4.50977E+03
 -1.35325E+03 -4.20873E+03 -1.03701E+02 -5.65522E+03  6.77355E+02 -5.02326E+03  3.40601E+03  3.31491E+03
 -2.82080E+03  1.28024E+03  4.57493E+02 -2.23674E+03 -1.09062E+03  1.98168E+03 -2.27711E+03 -9.12312E+01
 -4.29407E+03 -2.61219E+03 -1.80674E+03  2.48242E+03 -1.25437E+03  1.47704E+03 -2.71425E+03 -4.54108E+03
 -3.20390E+03 -8.94067E+02  7.05841E+02  3.17598E+02  1.91632E+03  5.86647E+03 -2.12069E+03 -6.15851E+03
  2.53628E+03  2.77756E+03  3.30582E+03 -1.96858E+03  5.06866E+03  2.35224E+03  9.44717E+01  1.41663E+03
 -8.93527E+00  1.96816E+03 -2.58418E+03 -1.98368E+03  2.93091E+03  1.92153E+03 -2.67787E+01  1.76400E+03
  5.49318E+02 -2.44382E+03 -1.19170E+03  1.83924E+03  5.51632E+03 -1.01719E+03 -3.94033E+02 -5.32482E+03
  3.80251E+02  8.76299E+02  8.04554E+02  1.74213E+03 -2.52700E+03  2.42991E+02 -4.29539E+03  4.84228E+02
  6.80839E+03  5.32045E+02 -1.27605E+03 -9.38339E+02 -2.73586E+03  3.38850E+03 -2.67589E+03 -3.31955E+03
  1.34310E+02  2.55628E+03 -3.85314E+03 -4.24688E+02 -3.26453E+02 -4.55357E+03  1.29409E+02  2.77184E+03
  2.62585E+03 -2.71630E+02  5.05496E+03  2.02668E+03  4.77343E+03  2.30468E+03 -1.08195E+03  3.97679E+03
 -4.00086E+03 -1.11325E+03  2.10049E+03  2.29166E+03 -5.85932E+02  1.51643E+03 -5.17755E+01 -1.79318E+03
  3.46842E+03 -3.90306E+03 -2.16190E+03  7.41588E+02 -2.11557E+03  1.12407E+02 -1.27579E+03 -2.33868E+03
 -6.28846E+02 -3.54712E+02  1.77497E+02 -2.92546E+03  1.11655E+03  1.44981E+03  5.30670E+03  1.64149E+03
  2.11558E+03  1.52923E+03 -1.48336E+03 -2.89633E+03  6.70784E+02  1.50697E+03 -1.98596E+03 -9.87572E+02
