 $NMID ID='MM_0lb_SNR50_14hz_g55_59.RAW', FMTDAT='(8E13.5)'
 TRAMP=1., VOLUME=1. $END
  3.08845E+05  1.40622E+03  3.36382E+05  2.43120E+05  8.86784E+04  3.38828E+05 -1.35422E+05  2.52164E+05
 -1.95197E+05  8.62263E+04 -1.12268E+05 -3.34178E+04  3.49178E+02 -5.44499E+04  5.23462E+04 -3.31943E+03
  3.53596E+04  4.99045E+04 -1.86111E+04  7.71726E+04 -6.28705E+04  6.33204E+04 -8.83275E+04  3.36389E+04
 -7.86637E+04 -1.40587E+04 -5.43707E+04 -4.68639E+04 -1.45077E+04 -7.34948E+04  2.79889E+04 -4.95541E+04
  4.16576E+04  1.71730E+03  1.39884E+04  5.03687E+04 -3.29390E+04  4.51303E+04 -6.57007E+04  2.50704E+03
 -5.33614E+04 -5.92082E+04 -7.00560E+03 -7.83374E+04  3.36448E+04 -5.60520E+04  4.78458E+04 -2.04584E+04
  3.96044E+04  8.53278E+03  3.04859E+04  2.06052E+04  1.36065E+04  3.06678E+04 -5.01340E+03  2.77585E+04
 -1.72233E+04  1.41988E+04 -2.43099E+04 -5.43145E+03  5.65969E+03 -6.13419E+03  1.73810E+04  1.42762E+04
  1.21783E+04  3.28878E+04 -3.47584E+04  3.70103E+04 -6.11291E+04  6.35242E+03 -5.66875E+04 -4.12902E+04
 -8.88378E+03 -5.96340E+04  3.87329E+04 -4.82435E+04  6.31555E+04 -6.65941E+03  3.58460E+04  3.60709E+04
 -2.25797E+03  4.19458E+04 -3.13176E+04  1.83570E+04 -2.76121E+04 -1.59938E+03 -1.28993E+04 -1.37611E+04
 -8.85040E+03 -1.56778E+04 -9.64799E+02 -1.88873E+04  4.10182E+03 -1.96558E+04  1.57968E+04 -1.61186E+04
  1.24003E+04  3.74823E+03 -9.99128E+03  1.53019E+04 -2.41295E+04 -8.33640E+03 -1.42991E+04 -3.34986E+04
  2.02425E+04 -4.67429E+04  4.36719E+04 -1.88091E+04  4.22659E+04  2.47062E+04  1.44911E+04  4.91871E+04
 -1.29232E+04  3.23911E+04 -2.96119E+04 -1.44912E+02 -5.56015E+03 -2.85608E+04  2.15975E+04 -3.22005E+04
  4.26434E+04 -1.28697E+04  4.06534E+04  2.08503E+04  1.99887E+04  4.36608E+04 -1.56526E+04  4.95821E+04
 -2.87004E+04  3.66128E+04 -3.91819E+04  7.75395E+03 -4.56340E+04 -1.91273E+04 -2.27644E+04 -3.55162E+04
  1.15239E+04 -3.81883E+04  2.78143E+04 -1.49370E+04  3.18077E+04  1.06952E+04  2.21276E+03  2.06436E+04
 -1.11383E+04  9.37740E+03 -1.17976E+04 -7.98766E+03  7.30504E+03 -9.84591E+03  1.81654E+04  2.04844E+03
  1.46095E+04  1.88272E+04 -3.88995E+03  2.60254E+04 -2.41005E+04  1.32695E+04 -3.24149E+04 -5.25977E+03
 -2.20437E+04 -1.72504E+04 -4.03079E+03 -2.44374E+04  4.82921E+03 -2.29722E+04  1.52869E+04 -2.39073E+04
  2.49565E+04 -1.15669E+04  3.55494E+04  4.74680E+03  2.31481E+04  2.40856E+04  3.41893E+03  4.04126E+04
 -1.73036E+04  2.95392E+04 -2.82684E+04  1.32543E+04 -1.81976E+04 -5.20564E+03 -3.98330E+03 -1.80115E+04
 -5.41536E+02 -1.85750E+03 -1.01563E+04  6.92997E+03 -1.43789E+04  6.04682E+03 -1.49728E+04 -9.91486E+03
 -9.86536E+03 -1.56694E+04  5.28460E+02 -2.43775E+04  1.26315E+04 -2.13570E+04  2.19147E+04 -2.97319E+03
  1.16496E+04  1.37943E+04 -3.56297E+03  1.92105E+04 -1.59816E+04  1.02498E+04 -1.99271E+04 -4.34439E+03
 -1.39315E+04 -2.03806E+04 -9.32193E+01 -2.48345E+04  6.15844E+03 -1.88423E+04  2.15369E+04 -1.02373E+04
  1.83058E+04 -4.25547E+03  1.38961E+04  3.65084E+02  7.90281E+03 -3.17631E+02  1.07379E+04 -1.38134E+03
  1.74796E+04  7.60477E+03  2.41716E+04  1.59475E+04  8.45633E+03  3.04731E+04 -5.51886E+03  3.62069E+04
 -1.60125E+04  3.06552E+04 -3.59053E+04  1.61470E+04 -3.59458E+04 -5.22995E+03 -2.85308E+04 -1.64862E+04
 -7.32419E+03 -2.61455E+04  8.99199E+03 -2.63857E+04  2.30903E+04 -1.67883E+04  1.82861E+04  3.01501E+03
  8.52673E+03  1.76624E+04 -1.11952E+04  8.04577E+03 -1.57572E+04  8.79694E+02 -1.18624E+04 -8.26446E+03
 -1.66081E+03 -1.58036E+04  1.04568E+04 -1.44834E+04  1.02236E+04 -1.62796E+03  5.45923E+02  8.36260E+03
 -5.57227E+03  4.97185E+03 -7.50179E+03 -6.32275E+03 -1.00528E+03 -1.33446E+04  8.23440E+03 -1.96774E+04
  2.16135E+04 -7.75170E+03  1.92983E+04  3.89466E+03  1.76669E+04  1.51662E+04  9.97061E+03  1.99606E+04
 -4.69036E+03  2.35294E+04 -1.34208E+04  1.45663E+04 -1.92165E+04  3.18121E+03 -6.82732E+03 -1.45596E+03
 -7.39504E+03 -7.86279E+03 -3.47951E+03  3.01539E+02 -1.52485E+03  1.18127E+03 -8.11760E+03  8.14137E+03
 -8.82276E+03  3.25560E+02 -8.70650E+03 -8.54025E+03 -4.75875E+03 -1.57105E+04  7.43044E+03 -1.49779E+04
  1.15705E+04 -5.98205E+03  4.61215E+03  5.91380E+03 -1.68619E+03  8.73453E+03 -3.09241E+03 -3.59638E+03
 -9.82201E+03 -7.16611E+03 -1.46682E+03 -1.04788E+04  2.53059E+03 -1.71848E+04  1.38535E+04 -2.40931E+03
  1.98148E+04  4.97776E+02  1.15033E+04  9.37271E+03  6.12937E+03  1.46506E+04 -5.94159E+03  5.13543E+03
 -9.35191E+03  6.97036E+03 -6.23652E+03 -4.41660E+02 -1.73563E+02 -2.97560E+03  2.44703E+03 -7.24478E+03
  4.23998E+03  5.85990E+03  8.93898E+03  1.02574E+04 -6.94367E+03  9.86843E+03 -1.39553E+04  1.97932E+03
 -7.98101E+03 -8.77793E+03 -2.41671E+03 -6.01827E+03  4.31856E+03 -1.92662E+03  6.51835E+03  4.20420E+03
  3.71355E+03  2.69967E+03 -6.29674E+03  5.28929E+03 -1.87776E+03  3.33043E+03 -1.11052E+04 -1.48665E+02
 -9.92153E+03 -1.10758E+04  2.02324E+03 -9.95740E+03  1.55919E+04 -6.48099E+03  1.10063E+04  5.78697E+03
  5.85586E+03  6.31001E+03  4.94427E+03  9.73761E+03 -1.49745E+04  8.40223E+03 -1.19193E+04 -5.46942E+03
 -2.86360E+03 -5.92196E+03  2.89055E+03 -9.67699E+03  2.02976E+03 -9.53996E+03 -2.70251E+02 -9.91251E+02
  3.51840E+03 -1.59272E+03  1.26087E+03 -3.03605E+03  1.03163E+03 -9.33076E+02  2.28903E+03 -6.08096E+03
  1.08581E+04 -4.05470E+03  3.82420E+03  4.27878E+02  8.33486E+03  1.12510E+04  6.22029E+03  1.21294E+04
 -3.35068E+03  1.78528E+04 -1.49128E+04  1.13147E+04 -1.45086E+04  6.08518E+03 -1.42798E+04 -4.46772E+03
 -1.21238E+03 -7.29197E+03  5.76424E+02 -6.82989E+03  4.47236E+03 -3.86841E+03  2.31798E+03 -2.52149E+03
 -1.18712E+03 -2.88099E+03  3.32497E+03 -2.98593E+03  6.62160E+03 -7.57023E+03  7.12186E+03  3.96247E+02
  7.52933E+03  3.06151E+03  3.73876E+03  6.09488E+03 -5.86867E+03  6.96073E+03 -7.37128E+03  2.93208E+03
 -8.25019E+03 -2.64199E+03 -1.04353E+04 -2.67900E+03 -1.61427E+02 -9.47248E+03  6.24589E+03 -9.71778E+03
  9.36892E+03 -5.36269E+03  1.20057E+04  3.95099E+03  5.56084E+03  6.89407E+03  1.27585E+03  7.39451E+03
 -2.57358E+03  9.36894E+03 -4.84723E+03  1.37564E+03 -7.50830E+03 -2.26148E+03  1.32229E+03 -5.45471E+03
 -2.97475E+03  1.63021E+03 -2.31028E+03 -1.61268E+03 -2.27818E+03  3.53203E+03 -3.76089E+03  9.32915E+02
  4.68462E+02 -9.63442E+03  9.45937E+01 -1.08834E+04  7.89178E+03 -1.03944E+04  1.11635E+04  4.46665E+03
  9.00400E+03  4.24767E+03  6.43881E+01  9.03798E+03  8.91368E+01  5.88591E+03 -2.57522E+02  3.99388E+03
 -7.36292E+03  2.39957E+02 -6.76891E+03 -8.05098E+03 -9.07225E+02 -8.11668E+03  6.31596E+03 -6.48445E+03
  5.90246E+03 -1.82869E+03  6.79250E+03  6.29849E+03  3.42647E+03  1.23792E+03  2.92194E+02  4.07611E+02
  3.82246E+03  1.08908E+03  5.53678E+03  9.14706E+02  2.77295E+03  5.29251E+02  7.69203E+02  2.77279E+03
 -1.60729E+03  4.59761E+03 -1.12709E+04  1.44530E+04 -1.07531E+04 -3.62597E+03 -1.15335E+04 -1.20636E+03
 -3.07273E+03 -1.23102E+04 -1.14311E+02 -1.42614E+04 -3.07205E+02 -2.73423E+03  1.30585E+03 -4.68879E+03
  6.26630E+03  1.34286E+03 -6.29336E+02  6.28030E+03 -6.22781E+02  5.01237E+03 -4.67598E+03 -5.17537E+02
 -2.65226E+03 -7.15419E+03  2.79545E+03  1.26935E+03  2.49614E+03 -1.07388E+03 -3.79187E+03  1.27716E+03
  7.89505E+01  3.60481E+03  1.48814E+03  2.95769E+03 -9.50066E+02  4.69170E+03  6.80944E+02 -2.05195E+03
  3.00877E+03 -3.20895E+03  3.15159E+03  3.17412E+03  1.06999E+03  5.56707E+03 -1.38847E+03  1.12621E+03
 -2.65615E+03  6.86787E+03 -7.01877E+03 -1.35076E+03 -1.29422E+03 -4.78784E+03 -7.25779E+03  4.23083E+03
 -4.51871E+01 -2.22949E+03  3.65715E+02 -1.74059E+03 -1.11188E+03  4.17777E+03 -4.72929E+03  3.33521E+03
 -3.02289E+02  5.89293E+02 -4.95988E+03 -4.48597E+03 -2.67142E+03 -3.15919E+03 -6.35516E+02 -5.86852E+03
  5.17510E+02 -3.49130E+03  3.63011E+03  2.68761E+02 -1.46331E+03  1.43891E+03  2.61316E+03  1.40829E+01
 -3.20677E+03 -2.43668E+03 -9.29213E+03  3.44814E+03  9.51755E+01 -9.67183E+03  4.64933E+03 -2.89660E+03
 -4.20201E+02 -4.86818E+03  2.70566E+03 -2.73282E+02  4.64932E+03  5.62927E+03 -3.73606E+03  7.40291E+03
 -2.61600E+03  6.96629E+02 -3.28150E+03 -6.98898E+03 -3.32863E+03 -1.15945E+03  1.74213E+03 -2.55586E+03
  1.16343E+03 -1.21955E+03 -2.47228E+03  3.77849E+03 -4.32151E+02  8.14152E+03 -3.84313E+03  3.17096E+03
 -5.92772E+03  1.72097E+03  2.00871E+03  2.92259E+03 -3.60695E+02  1.51226E+02 -6.50801E+02  4.95565E+03
  7.57578E+02 -7.06757E+02 -4.35202E+03 -6.96692E+02 -2.53653E+03 -9.99820E+02 -2.69419E+03 -8.04263E+03
 -1.07067E+03 -5.57434E+03 -6.29286E+02 -2.49717E+03  3.01275E+01 -2.63087E+03  6.46018E+03 -4.73617E+03
  9.91866E+03 -2.66583E+03  3.23398E+03  4.54908E+03  5.47095E+03  2.62242E+03 -2.11346E+03  3.94122E+03
 -2.67632E+03 -2.81607E+03  1.04531E+03  3.22544E+02 -2.86493E+03 -1.82790E+03  3.39690E+03  2.04742E+03
 -2.23106E+03  4.84041E+03 -3.48780E+03  1.68125E+03 -4.14207E+03  1.66277E+03  1.76644E+03  7.66295E+02
  5.38888E+02 -5.71132E+02  1.56507E+03 -1.05250E+03  4.12722E+03 -2.06957E+03 -1.13394E+03  3.42984E+03
 -4.67471E+02  3.55010E+03 -2.05127E+03  1.41392E+03 -2.36056E+03  3.71446E+03 -2.96544E+03 -5.18021E+03
  4.76694E+02 -5.63631E+03  2.70798E+03  3.34791E+02  2.02581E+03 -3.00660E+03  4.95747E+03  3.33961E+03
  2.41373E+03 -5.19696E+02 -7.72172E+02  2.92894E+03 -5.57988E+03 -2.04857E+02 -2.98518E+03 -1.36578E+03
  1.93508E+03 -2.63510E+03  4.21328E+03  4.56404E+01  1.73739E+03  2.23481E+03 -3.25402E+02  5.77161E+03
  3.01348E+03  4.68554E+03  1.42421E+03  1.31602E+03 -2.80346E+03  2.32701E+02  8.81951E+02 -4.23981E+03
  4.49738E+03 -1.34326E+01  2.41304E+03 -8.56421E+01  5.42356E+03  2.97631E+03  2.64630E+03  5.91714E+03
  2.50578E+03  3.97479E+03 -2.90210E+02  2.29779E+03 -3.24937E+03  3.53484E+03  4.90278E+03 -1.32365E+03
  1.86185E+03  2.83089E+03 -1.23354E+03 -9.79333E+01 -1.07848E+03  6.43663E+03 -3.12334E+03 -6.01742E+02
  2.17333E+03 -2.65753E+03  3.15157E+03 -7.91223E+03  3.47690E+03 -2.00211E+03  1.72667E+03 -3.16845E+03
  5.34049E+03  8.83515E+02  2.93629E+03  2.19924E+03  1.52913E+03  6.91187E+03  9.57585E+02  1.39399E+03
