 $NMID ID='MM_0lb_SNR50_15hz_g40_78.RAW', FMTDAT='(8E13.5)'
 TRAMP=1., VOLUME=1. $END
  3.11304E+05 -3.86364E+03  3.37322E+05  2.45095E+05  8.40936E+04  3.36262E+05 -1.31112E+05  2.54362E+05
 -1.89140E+05  8.41450E+04 -1.08112E+05 -3.61055E+04 -3.50308E+01 -4.50522E+04  5.46815E+04  6.68094E+02
  3.55972E+04  5.07053E+04 -1.66378E+04  7.93952E+04 -5.84069E+04  6.33708E+04 -8.07192E+04  3.45236E+04
 -8.24619E+04 -1.20425E+04 -5.53863E+04 -4.69693E+04 -1.78475E+04 -6.69166E+04  2.57773E+04 -4.36746E+04
  3.53867E+04  3.15514E+03  1.27713E+04  4.41548E+04 -3.49272E+04  4.56919E+04 -6.82691E+04  3.85090E+02
 -5.17299E+04 -5.52907E+04 -7.67539E+02 -7.46697E+04  3.65954E+04 -5.56638E+04  4.80359E+04 -2.29021E+04
  4.46380E+04  1.18170E+04  2.65284E+04  2.35528E+04  1.40585E+04  2.67137E+04 -5.96748E+03  2.61290E+04
 -2.14155E+04  1.31465E+04 -1.63182E+04 -3.80277E+03  6.52824E+03 -5.49468E+03  2.20317E+04  1.25709E+04
  7.53197E+03  3.56597E+04 -3.06370E+04  3.88645E+04 -5.97912E+04 -3.72731E+03 -5.90481E+04 -3.87604E+04
 -1.27219E+04 -6.37577E+04  3.78515E+04 -4.38065E+04  5.37816E+04 -1.79710E+03  2.49267E+04  3.50639E+04
 -2.13142E+02  3.30816E+04 -3.08840E+04  1.84071E+04 -2.50808E+04 -5.59677E+03 -1.44830E+04 -1.30967E+04
 -5.50381E+03 -1.10657E+04  1.62918E+03 -1.12354E+04  9.79904E+03 -2.54651E+04  1.32964E+04 -1.32617E+04
  1.35830E+04  4.16047E+03 -5.03126E+03  9.17848E+03 -1.78666E+04 -2.95967E+03 -9.79157E+03 -2.97133E+04
  2.40263E+04 -4.09823E+04  4.82886E+04 -1.68165E+04  4.10772E+04  1.71659E+04  1.64155E+04  4.16278E+04
 -1.39233E+04  3.12422E+04 -2.16812E+04  1.63353E+03 -9.50774E+03 -2.72616E+04  2.55790E+04 -3.07051E+04
  3.71518E+04  1.26127E+02  2.99448E+04  2.49178E+04  1.61512E+04  4.70561E+04 -1.04858E+04  4.53907E+04
 -3.03434E+04  3.28722E+04 -4.42428E+04  1.11604E+04 -4.11079E+04 -1.60678E+04 -2.40857E+04 -4.01879E+04
  8.87332E+03 -3.50073E+04  2.77481E+04 -9.10653E+03  2.76208E+04  1.00539E+04  6.90512E+03  1.75138E+04
 -1.18032E+04  6.70916E+03 -1.02580E+04 -8.12775E+03  7.53518E+03 -9.82183E+03  1.70742E+04  6.86954E+03
  1.03421E+04  2.36215E+04 -7.72886E+03  2.78248E+04 -2.90677E+04  1.25734E+04 -2.61560E+04 -2.47510E+03
 -1.86196E+04 -1.46406E+04  4.01676E+02 -1.83856E+04  5.52050E+02 -1.58847E+04  1.01725E+04 -2.09755E+04
  2.62320E+04 -1.57794E+04  3.00048E+04  2.13967E+03  1.91446E+04  1.89777E+04  4.65227E+03  3.68995E+04
 -1.33307E+04  3.14612E+04 -2.72402E+04  1.38660E+04 -2.57906E+04 -1.17592E+04 -3.49934E+03 -1.57721E+04
  4.23653E+03 -1.26680E+03 -8.27195E+03  8.73698E+03 -1.44540E+04  5.03380E+03 -1.64617E+04 -5.34547E+03
 -6.79173E+03 -1.62786E+04  6.66233E+03 -1.80037E+04  1.52742E+04 -1.57856E+04  1.59625E+04 -3.14483E+02
  1.01228E+04  1.21070E+04  4.49900E+02  1.76536E+04 -1.08839E+04  9.48123E+03 -2.23266E+04 -2.33132E+03
 -1.35650E+04 -1.72333E+04 -9.79774E+02 -2.18025E+04  1.39678E+04 -1.68331E+04  1.74587E+04 -5.35292E+03
  1.60843E+04 -2.26509E+02  1.13485E+04  7.78616E+03  6.25989E+03 -5.59516E+03  1.23457E+04  3.85350E+03
  1.02388E+04  6.61992E+03  2.21834E+04  1.73198E+04  1.02719E+04  2.67962E+04 -1.33305E+03  2.91204E+04
 -1.88833E+04  2.26173E+04 -2.92538E+04  1.23141E+04 -2.74845E+04 -2.25229E+03 -1.93071E+04 -2.08968E+04
 -9.41709E+03 -2.41371E+04  1.01942E+04 -2.43204E+04  1.93889E+04 -1.02515E+04  1.94758E+04  8.38324E+03
  1.08406E+04  1.35120E+04 -6.95013E+03  1.44362E+04 -1.72956E+04  6.41014E+03 -1.01951E+04 -1.05888E+04
  5.77624E+02 -9.51900E+03  7.34659E+03 -1.58128E+04  1.22809E+04 -4.08074E+02  9.21237E+02  8.80695E+03
 -7.14816E+03 -1.81934E+03 -9.44073E+03 -3.31640E+03  6.08489E+03 -1.29863E+04  7.13717E+03 -1.16241E+04
  1.27016E+04 -6.60258E+03  1.63403E+04  1.89964E+03  1.02098E+04  1.23274E+04  6.91610E+03  1.72218E+04
 -2.54447E+03  2.36281E+04 -1.27422E+04  1.30086E+04 -1.16108E+04  2.45888E+03 -9.78689E+03 -3.34610E+03
 -4.77720E+03 -5.71304E+03  1.24810E+03  2.16667E+03 -3.32982E+03  1.75376E+03 -9.17298E+03  5.81215E+03
 -7.68435E+03 -2.69856E+03 -1.58082E+04 -3.96225E+03 -1.22352E+03 -1.10493E+04  5.61257E+03 -6.21531E+03
  2.53186E+03  6.36159E+02  6.23407E+03 -1.21253E+03  2.99097E+03  7.34518E+03 -4.52609E+03 -3.31675E+03
 -3.47866E+03 -5.92785E+03  2.66975E+03 -1.02218E+04  6.25274E+03 -1.31008E+04  1.38112E+04 -7.76810E+03
  1.76889E+04  3.26545E+03  1.35047E+04  8.31213E+03 -1.13168E+03  1.06451E+04 -6.96788E+03  7.49740E+03
 -1.03015E+04 -7.46521E+02 -9.52697E+02 -2.61687E+03 -4.09660E+02 -1.78714E+03  3.86877E+03  5.31072E+02
  4.35284E+03 -2.40563E+03 -2.29672E+03  1.15411E+04 -4.59812E+03  7.41196E+03 -5.27381E+03  6.83932E+03
 -5.43160E+03 -5.09050E+03 -3.25291E+03 -1.30104E+04  5.57270E+03 -8.67261E+03  3.90942E+03 -1.00493E+02
 -2.08458E+03  8.05284E+03 -9.77153E+03  1.25115E+04 -1.35598E+03  4.96492E+03 -8.59702E+03  1.52456E+03
 -5.70643E+03 -8.14764E+03  3.03137E+03 -1.34494E+04  1.00273E+04 -8.44320E+03  1.01548E+04 -1.83977E+02
  2.64197E+03  7.78272E+03  3.20372E+03  1.28400E+04 -4.40674E+03  8.25494E+03 -1.21582E+04 -4.92046E+03
 -5.58506E+03 -2.78093E+03 -3.61128E+03 -9.94881E+03  1.54181E+03 -5.62050E+03  4.95671E+03 -3.96717E+03
  3.33183E+03  4.89990E+03 -1.34376E+03  1.56968E+03  2.55449E+03  2.18148E+03  3.24383E+03 -2.96857E+03
  7.48595E+03 -9.02656E+03  4.91572E+03  5.58092E+03  5.60121E+03  4.06013E+03  5.05528E+03  1.53000E+04
 -4.59867E+02  1.36143E+04 -8.85112E+03  8.33646E+03 -1.10299E+04  3.84934E+03 -8.63407E+03 -8.01481E+03
 -7.18213E+03 -7.00224E+03 -2.14736E+03 -5.54756E+03  5.15920E+03 -4.62897E+03  2.07756E+02 -5.18919E+03
  4.70461E+03  2.54343E+03  1.65578E+03 -5.95063E+03  2.63783E+03 -1.73838E+02  9.96185E+03 -2.84459E+03
  6.10090E+03  1.67519E+03  1.72295E+03  5.23286E+03 -4.30326E+03  5.61656E+03 -1.10643E+04  5.86308E+03
 -7.30467E+03  9.52163E+02 -2.30237E+03 -4.57016E+03 -2.10677E+03 -3.07253E+03  3.15610E+03 -7.68985E+03
  7.15746E+03 -2.35018E+03  1.18178E+04 -6.05872E+03  6.10757E+03  5.62881E+03  2.97638E+03  1.04504E+04
  3.04495E+02  7.46710E+03 -3.66590E+03  6.27034E+03 -9.76132E+02 -4.76807E+03 -2.76642E+03 -7.78546E+02
  1.02665E+03 -5.79049E+02 -3.37487E+03  3.40675E+02 -2.84119E+02  3.96888E+03 -8.30186E+03 -2.91364E+02
 -7.09887E+03 -4.51016E+03 -2.46593E+03 -7.51408E+03  2.81428E+03 -1.94301E+03  6.44771E+03  8.55598E+02
  9.19038E+02  3.47191E+03  3.94842E+03  3.34686E+03 -5.91397E+02  5.41773E+03 -9.69308E+03  2.74230E+03
 -8.90519E+03 -4.66137E+03 -4.97094E+03 -8.89594E+03 -3.77044E+02 -5.54179E+03  2.94995E+03 -2.42852E+03
  2.37256E+03 -1.48715E+03  1.80034E+03 -1.14158E+03 -5.53366E+03  2.55499E+03  2.22852E+03 -1.44887E+03
 -5.28415E+02  3.12353E+03  5.81051E+03  7.23713E+01 -2.91319E+03  2.59094E+03  2.47439E+03  5.16413E+03
  5.86563E+02  3.23374E+03 -3.16627E+03  7.92190E+03 -8.11216E+03  2.24406E+03 -5.08627E+03 -3.36129E+03
 -4.96853E+03 -8.83017E+03  1.69271E+03 -6.40316E+03  1.08261E+03 -4.11645E+03  6.19361E+03  5.62079E+02
  6.40285E+03  4.08303E+03  6.64641E+03  5.90562E+02 -1.12901E+03  4.43896E+03 -3.57862E+03  2.09576E+02
  1.43790E+03 -2.46041E+03  4.30345E+03 -2.46990E+02  4.15719E+03 -1.04762E+03 -2.12456E+03  5.47148E+02
 -1.60487E+03  1.66707E+03  1.00631E+03 -2.40630E+02 -1.40174E+03  8.01716E+02  3.16343E+03 -3.32474E+03
  3.53535E+03 -2.00645E+03 -4.93300E+01 -4.19906E+02  1.76667E+02  5.22853E+03  1.49557E+03  3.41369E+03
 -6.45799E+03 -6.19047E+03  1.46818E+03  1.65010E+03 -4.94609E+02 -1.65145E+03 -2.07158E+02  3.61509E+01
  1.22923E+03 -6.40409E+02  4.35186E+03  1.01985E+03 -3.91890E+02  1.04480E+03 -4.14867E+03  5.73974E+02
 -4.28389E+03  5.70225E+02 -6.19076E+03 -3.05814E+03 -3.48495E+03 -6.60822E+03 -1.21247E+02 -6.00001E+02
 -2.30807E+03 -3.72497E+03 -3.06668E+02 -4.22380E+03  4.19519E+03  7.54750E+02 -2.79338E+03  3.83752E+03
 -2.90907E+03 -1.15288E+02 -2.55675E+03  2.79536E+03  1.54971E+03  3.81753E+03  4.74899E+03 -2.36932E+03
 -2.06705E+02 -3.91103E+03  5.75995E+03 -2.33920E+03 -1.52553E+03  1.81787E+03  3.36656E+02  6.73621E+03
 -1.40714E+03  5.26305E+02 -5.09165E+03 -5.30652E+02 -7.25836E+03 -3.53305E+03  1.43844E+03 -5.76905E+02
  1.53131E+03 -1.48266E+03  8.00233E+03  6.73603E+02  3.10384E+03  2.54461E+02  1.50968E+03  4.51957E+03
  2.51038E+02  2.32180E+03 -2.76054E+03 -1.00633E+03  4.42761E+03 -8.03597E+01  2.75215E+03 -5.24054E+02
  8.34820E+01 -2.85689E+03 -1.19722E+03  1.63469E+03 -1.49362E+03  2.43522E+02 -9.34576E+02 -2.65779E+03
 -7.36771E+03 -1.50704E+03  9.07183E+02 -2.16510E+03  7.04623E+02 -5.27517E+02  7.69965E+03  1.55983E+03
  2.83211E+02  4.56668E+02  2.39084E+03  6.58638E+03  1.10461E+03  4.69454E+03 -5.35816E+03  4.94038E+03
 -1.08203E+03 -5.56882E+03  3.49149E+02 -6.99532E+02 -4.97393E+02  4.37210E+03 -1.76838E+02  5.44988E+02
  5.61362E+02 -3.88186E+03  1.60133E+03 -1.14101E+03 -9.78352E+02 -7.62142E+02  5.09058E+02 -4.43012E+03
 -1.53889E+03  2.60302E+03 -2.75920E+02  6.92257E+02  1.48551E+03  3.00528E+03 -1.83220E+03  1.99228E+03
 -4.92563E+03  6.32892E+03 -7.86574E+03  3.57117E+03 -1.37799E+03  1.49347E+03 -1.67674E+03 -2.24672E+03
  7.38228E+02 -1.86095E+03 -4.49524E+03 -6.68259E+03  3.43947E+03 -5.20414E+02  4.19930E+03 -9.47476E+02
  1.42653E+03  4.88864E+03  7.26960E+02 -1.57897E+03  2.71626E+03 -3.00454E+03 -1.72370E+03  3.88959E+03
  3.18154E+03 -2.64596E+03  3.82011E+03  1.58591E+02  3.21627E+03  2.47424E+03 -4.47173E+02  2.52584E+03
 -3.57520E+03  4.06078E+03  1.13430E+03 -1.51730E+03  3.65524E+03 -4.70287E+03  1.75823E+03  2.54075E+03
  2.49729E+03 -6.11392E+03  3.83953E+03 -7.98998E+01  5.01997E+03 -6.84987E+02 -5.19314E+02  4.72298E+03
 -6.25603E+02  1.76600E+03 -6.02815E+03  1.55513E+03 -1.83964E+03 -2.03143E+03 -9.49292E+02  1.94954E+02
  7.33939E+02 -2.32928E+03 -3.66062E+03 -1.50799E+03 -3.25183E+03  2.81919E+03  1.32348E+03  8.80871E+02
 -3.35762E+03 -7.63926E+02  3.92083E+02 -5.92469E+03  2.09647E+03 -3.26633E+03 -1.46627E+03 -4.69335E+03
  3.25756E+03 -2.74775E+03  1.06286E+03  1.69269E+03  4.46102E+02  2.52890E+03 -4.50553E+03  1.85602E+03
