 $NMID ID='MM_0lb_SNR50_19hz_g55_18.RAW', FMTDAT='(8E13.5)'
 TRAMP=1., VOLUME=1. $END
  3.08465E+05 -3.62530E+03  3.36808E+05  2.50793E+05  8.58341E+04  3.36327E+05 -1.32018E+05  2.49642E+05
 -1.87705E+05  8.01543E+04 -1.09294E+05 -3.20731E+04 -6.46411E+03 -4.72194E+04  5.62299E+04 -5.35982E+03
  2.99774E+04  5.20480E+04 -1.53586E+04  7.04011E+04 -5.84332E+04  6.41647E+04 -8.34014E+04  3.51219E+04
 -7.73213E+04 -1.04061E+04 -5.78202E+04 -5.37503E+04 -1.22865E+04 -6.94584E+04  2.58375E+04 -4.30304E+04
  3.65605E+04  3.52227E+03  1.29370E+04  4.34627E+04 -3.24867E+04  4.59159E+04 -6.71000E+04 -2.28410E+03
 -4.80257E+04 -5.48260E+04 -6.88115E+03 -7.74646E+04  3.17867E+04 -5.41869E+04  4.59647E+04 -1.30001E+04
  4.48175E+04  1.12447E+04  3.03641E+04  2.10687E+04  1.46399E+04  2.95889E+04 -4.62621E+03  2.67202E+04
 -2.06422E+04  9.57604E+03 -1.65402E+04 -5.04491E+03  1.43956E+03 -9.20485E+03  2.26051E+04  9.52063E+03
  6.80197E+03  3.24595E+04 -3.06767E+04  3.45134E+04 -6.19056E+04  4.13406E+03 -5.46882E+04 -4.21022E+04
 -1.30744E+04 -6.09159E+04  3.96839E+04 -4.16766E+04  5.75895E+04 -8.43427E+03  3.18204E+04  3.04957E+04
 -6.95774E+03  3.51744E+04 -2.72103E+04  1.21030E+04 -2.92146E+04 -4.35467E+03 -1.29128E+04 -6.72638E+03
 -4.70384E+03 -1.10791E+04  3.04458E+03 -1.85398E+04  7.47202E+03 -2.16072E+04  1.57205E+04 -1.57096E+04
  1.24718E+04  4.79019E+03 -8.61169E+03  1.38640E+04 -1.85165E+04  3.45686E+03 -7.53095E+03 -3.01998E+04
  2.02325E+04 -4.36220E+04  5.00771E+04 -1.05040E+04  4.37707E+04  1.88190E+04  1.60690E+04  4.38333E+04
 -1.45345E+04  3.24753E+04 -2.09122E+04  1.83269E+03 -6.88348E+03 -2.48323E+04  1.99898E+04 -3.33036E+04
  4.06827E+04 -1.05498E+04  2.87511E+04  2.01448E+04  1.61113E+04  4.37276E+04 -9.27324E+03  4.72915E+04
 -2.93100E+04  3.23474E+04 -4.28745E+04  7.67987E+03 -3.72706E+04 -1.35758E+04 -2.36693E+04 -3.68878E+04
  6.24677E+03 -3.41918E+04  3.03669E+04 -7.41480E+03  3.05704E+04  1.02368E+04  4.74994E+03  1.70567E+04
 -1.29265E+04  1.11314E+04 -6.05902E+03 -1.09197E+04  5.10181E+03 -8.98170E+03  1.92671E+04  6.60477E+03
  1.10874E+04  1.98207E+04 -7.49469E+03  2.59835E+04 -2.27477E+04  1.31657E+04 -2.44746E+04 -5.65075E+03
 -1.63493E+04 -1.26984E+04 -6.22441E+03 -1.67624E+04  2.38208E+03 -1.47848E+04  1.25767E+04 -1.26292E+04
  2.34863E+04 -1.06168E+04  3.11892E+04  2.55135E+03  2.26602E+04  1.40591E+04  2.10183E+03  3.47276E+04
 -1.61600E+04  2.53986E+04 -2.78157E+04  9.70095E+03 -2.02874E+04 -8.84885E+03 -6.76073E+03 -1.41098E+04
  6.41213E+03 -4.03763E+03 -5.82730E+03  4.84297E+03 -1.38411E+04  7.46192E+03 -1.30723E+04 -1.85866E+03
 -2.31865E+03 -1.71281E+04  3.25713E+03 -1.94430E+04  1.12657E+04 -1.76563E+04  1.65096E+04  3.24489E+03
  1.00404E+04  1.39519E+04 -5.41877E+02  1.56886E+04 -1.06138E+04  9.17405E+03 -1.55755E+04 -1.01220E+03
 -1.67510E+04 -1.53072E+04 -2.82097E+03 -1.83470E+04  9.63576E+03 -1.82747E+04  1.42993E+04 -1.06754E+04
  1.00968E+04  2.05558E+03  1.50106E+04  1.79825E+03  5.86995E+03 -3.71067E+03  7.40394E+03 -2.92432E+03
  1.83587E+04  4.30345E+03  1.43612E+04  1.57598E+04  1.31874E+04  2.32214E+04 -5.09559E+03  2.69946E+04
 -1.30437E+04  2.14276E+04 -2.52276E+04  9.46717E+03 -2.54449E+04  1.41459E+03 -1.81698E+04 -1.54244E+04
 -8.79285E+03 -1.95258E+04  6.04471E+03 -2.13258E+04  1.38222E+04 -1.36209E+04  1.94496E+04  4.22270E+03
  8.69730E+03  1.54854E+04 -8.64032E+03  9.47822E+03 -1.35987E+04  2.26588E+03 -1.14860E+04 -9.39025E+03
 -8.60210E+01 -1.15933E+04  6.61229E+03 -6.22789E+03  9.86089E+03 -1.91996E+03  3.42792E+03  5.77391E+03
 -5.08676E+03 -3.98874E+03 -1.49072E+03 -7.86878E+02  2.13635E+03 -1.10422E+04  4.67295E+03 -1.28342E+04
  1.10155E+04 -3.32292E+03  1.57171E+04  1.86390E+03  7.04696E+03  1.29812E+04  6.27365E+03  1.46538E+04
  8.05161E+02  1.88480E+04 -1.10685E+04  1.32606E+04 -1.12874E+04 -2.11051E+03 -6.50187E+03 -2.50140E+03
 -5.94407E+03 -3.43568E+03 -2.51613E+03 -5.94479E+02 -2.89218E+03  1.69641E+03 -5.09201E+03  5.01356E+03
 -7.15932E+03 -1.28733E+03 -8.09264E+03 -8.00568E+03 -8.36890E+03 -1.50376E+04  5.26798E+03 -5.65252E+03
  5.43995E+03 -1.75637E+03  5.89922E+03  2.92372E+03 -2.54706E+03  1.27126E+03 -5.27156E+03 -3.60918E+03
 -6.39149E+03 -7.89184E+03 -6.43969E+02 -3.57339E+03  3.56270E+03 -4.82019E+03  1.25039E+04 -4.90133E+03
  1.53669E+04  2.66456E+03  1.01693E+04  8.55784E+03  1.74123E+03  8.94996E+03 -4.55160E+03  1.11876E+04
 -6.06705E+03  5.12063E+03 -5.08354E+03 -4.65663E+03  9.10315E+02 -3.49159E+03  1.50470E+03  6.07504E+02
  1.94434E+03  1.72177E+03  1.67042E+03  1.10261E+04 -6.76788E+03  2.80383E+03 -6.41067E+03  2.69532E+03
 -6.08572E+03 -1.84107E+03  1.86646E+03 -6.27805E+03  3.07565E+03 -4.87010E+03  9.55708E+02  3.07761E+02
  1.52385E+03  4.31408E+03 -2.69932E+03  6.92267E+03 -4.69386E+03 -3.52327E+02 -4.97730E+03 -2.09909E+03
 -2.79146E+03 -4.91189E+03  4.14402E+03 -4.80756E+03  4.64591E+03 -5.59361E+03  4.85301E+03  4.58087E+03
  2.72629E+03  5.65837E+03  6.10624E+02  7.11756E+03 -4.90175E+03  6.20408E+03 -9.25644E+03  1.84365E+03
 -5.18078E+03 -5.86576E+03 -2.35345E+03 -4.71746E+03  5.15170E+02 -8.80127E+03  5.25825E+03 -4.19248E+03
  4.74229E+03  1.92713E+03  2.20733E+03 -1.18261E+03  1.19159E+02 -3.63717E+03  3.23893E+03 -5.67184E+03
  6.56633E+03 -6.38057E+02  1.33437E+04 -2.17651E+03  5.36938E+03  3.18806E+03  3.09286E+03  5.71939E+03
 -1.53522E+03  1.34615E+04 -1.25511E+04  4.43440E+03 -1.07353E+04 -4.33980E+02 -8.29190E+03 -2.13708E+03
 -5.09408E+03 -6.03607E+03  9.71578E+02 -3.91734E+03  2.93485E+03 -3.42351E+03  4.25045E+03 -2.05008E+03
  7.25055E+02  1.10402E+03  2.90185E+03 -2.53380E+03  2.13284E+03 -2.02175E+03  1.80473E+03  1.81139E+01
  6.01146E+03  1.83161E+03  2.47934E+03  1.24038E+03 -2.11550E+03  4.71206E+03 -7.27025E+03  6.76591E+03
 -2.66827E+03 -1.36319E+03  6.15805E+01 -5.56519E+03 -4.73684E+02 -3.85843E+03  1.53857E+03 -3.66548E+03
  1.13907E+03 -2.52010E+03  5.11588E+03 -6.19435E+03  8.53491E+03  3.22869E+03 -2.50687E+03  4.97075E+03
 -1.05650E+03  9.28405E+03 -9.08677E+02 -9.66963E+01 -5.41462E+03 -1.00019E+03  1.48055E+03 -3.08524E+03
 -2.27826E+03  1.48983E+03 -9.04850E+02  3.39570E+03 -2.51624E+03 -3.40282E+03 -1.19840E+03  6.93033E+02
 -2.07498E+03 -4.59238E+03 -3.21999E+02 -5.71126E+03  6.08122E+03 -5.36613E+03  4.34726E+03  2.72790E+03
  1.88898E+03  1.55363E+03  5.16770E+02  3.40898E+02  1.10281E+03  3.45752E+03 -1.21630E+03  1.31984E+03
 -3.98685E+03 -1.04698E+03 -5.30722E+03  8.93088E+02  3.28624E+03 -2.02434E+03  1.97432E+03 -6.72462E+02
  1.55810E+03 -5.36638E+03 -6.35896E+02 -1.26157E+02  1.05607E+03 -1.45922E+03 -2.59864E+02  3.56119E+03
 -1.25274E+03 -8.12063E+02  3.87380E+03 -4.16394E+02  7.80015E+02  1.30126E+03  4.56967E+03 -1.45342E+03
 -8.57318E+02  8.88991E+01 -4.01600E+03  4.81068E+03 -6.45300E+03  1.30556E+03 -6.90776E+03  8.72662E+02
 -3.70395E+03 -4.66835E+03 -3.19399E+02 -3.45448E+03 -4.68989E+02 -1.43697E+02  6.13492E+02  4.20027E+02
 -4.56809E+02  2.70752E+03 -1.11241E+03  5.57906E+03 -1.75027E+03 -1.32027E+03  2.11984E+02 -2.53888E+03
  1.91100E+03 -1.18209E+03  3.65726E+03 -2.35460E+01 -7.42489E+02  1.61156E+03  9.73758E+00 -1.12956E+02
  1.45793E+03 -7.93222E+02  4.18727E+03  2.77777E+03  1.87514E+03  2.34057E+03 -1.85882E+03  4.09421E+03
  1.29975E+03 -1.64385E+03  1.56816E+03 -1.95073E+03 -5.71518E+02  2.39103E+03  2.91323E+03  3.78261E+03
 -1.78549E+03  2.58952E+03  1.14600E+03  5.00892E+02  8.36895E+02 -1.87568E+03 -4.12258E+02  5.49054E+01
  2.69767E+03 -2.43487E+02  3.44951E+03 -1.70004E+03 -3.47372E+03  3.48240E+03 -1.57527E+03  5.99565E+02
 -2.36034E+03  1.65096E+03  7.52604E+02 -3.25509E+03 -1.61299E+03  1.16331E+03  1.38112E+03 -2.75540E+03
  7.20976E+02  2.28087E+03  1.21812E+03  8.84960E+02 -6.14201E+01  1.64005E+02 -3.10756E+03 -4.03751E+02
  4.92815E+02 -3.66269E+03 -4.13758E+03 -2.66316E+03  1.85863E+03 -2.97530E+03  3.12289E+03 -1.51834E+03
  3.44652E+03 -2.64937E+03 -3.36036E+02  2.18624E+03 -1.96713E+03  4.12139E+03  2.52759E+03  2.14686E+03
 -8.33684E+02 -2.40577E+03 -8.86607E+02 -8.87055E+02  1.83912E+03 -3.03458E+03 -2.13861E+03  3.92503E+03
  2.15175E+03 -2.25211E+03  4.33167E+03 -1.41475E+03 -2.20933E+03  2.63494E+03  3.72459E+02  1.03467E+03
  1.56541E+03 -4.38864E+02 -1.12335E+03  3.42076E+03 -2.13453E+02  1.23260E+03 -1.68686E+03 -2.71703E+02
  1.90189E+03 -9.26405E+02 -3.92289E+03  9.66072E+02 -1.86299E+03 -1.64562E+03  4.78925E+02 -3.95751E+02
 -1.49699E+03 -3.16792E+03  2.30813E+03 -7.52727E+03 -2.81623E+03 -4.84798E+03 -1.31792E+03 -2.31450E+03
  6.30389E+03 -3.28315E+03 -4.77712E+02 -1.00285E+03 -2.28901E+03  6.10809E+02 -2.34281E+03  2.22219E+03
  6.45475E+02  9.98147E+02 -1.16240E+03 -9.35978E+02 -1.46329E+03 -2.03922E+03 -5.43597E+02  2.55890E+03
 -1.97050E+03  9.72700E+02 -1.80907E+03  8.85936E+01 -1.15053E+02 -1.07808E+03  1.40887E+03 -2.71825E+03
  5.21793E+03 -1.91428E+03  8.02606E+03  1.70284E+03  2.03388E+03  2.31843E+03  3.52359E+03  4.53960E+03
 -3.69601E+01  2.44312E+03 -3.04793E+03  5.97600E+02 -3.59347E+02 -2.27000E+02 -1.39444E+03 -6.26915E+01
 -2.15591E+03 -1.67243E+03 -2.11066E+03  3.15763E+02 -2.89088E+03 -2.76784E+02  5.34519E+03  1.99565E+03
 -2.21072E+03  8.67633E+02 -3.28003E+03 -2.96557E+02 -1.57897E+03 -2.03860E+03 -2.00382E+03 -4.92134E+02
 -1.77319E+02 -2.60613E+02 -1.65323E+03 -2.16786E+03  1.91152E+03  3.21591E+03  2.16086E+01 -4.14407E+02
  2.92090E+03 -2.71812E+02  1.27115E+03 -3.46975E+03 -2.14669E+03 -2.66182E+03  2.36025E+03  3.24382E+02
  2.10263E+03 -4.55273E+02  1.93317E+03  2.63004E+02 -2.16292E+03  3.89288E+03  2.74483E+03  4.23654E+03
 -4.14637E+02  1.12473E+03  1.75604E+03  1.37971E+03 -1.83617E+03  1.62533E+03 -2.46636E+03  3.31484E+03
  7.24229E+02  1.81005E+03 -5.82546E+02  1.94781E+03 -2.17503E+03 -6.15278E+02  1.31191E+03  6.12686E+02
 -2.32578E+02 -4.26955E+03  6.43335E+00 -1.10180E+03 -9.71362E+02 -6.67147E+02  6.86122E+02 -9.17228E+02
  2.15529E+03  8.97192E+02 -1.23156E+03  3.54878E+03  1.96067E+03 -1.24261E+03 -1.84707E+03  5.15726E+03
