 $NMID ID='MM_0lb_SNR50_19hz_g60_40.RAW', FMTDAT='(8E13.5)'
 TRAMP=1., VOLUME=1. $END
  3.13177E+05  1.18685E+03  3.38966E+05  2.50784E+05  8.44922E+04  3.40315E+05 -1.30331E+05  2.53765E+05
 -1.86794E+05  8.35102E+04 -1.10166E+05 -3.22193E+04  5.24968E+03 -4.94267E+04  5.89846E+04  4.29628E+02
  3.65854E+04  5.60037E+04 -1.84511E+04  7.81378E+04 -6.04875E+04  6.48109E+04 -8.52903E+04  3.25478E+04
 -8.22322E+04 -1.02748E+04 -5.31593E+04 -5.30335E+04 -1.56981E+04 -6.37665E+04  3.01808E+04 -4.13725E+04
  4.51532E+04  4.30187E+03  1.39199E+04  5.09868E+04 -3.00746E+04  4.37092E+04 -6.45827E+04 -1.32404E+02
 -5.45408E+04 -5.72101E+04 -6.11169E+03 -7.64593E+04  3.32608E+04 -5.84301E+04  5.15559E+04 -1.83904E+04
  4.15862E+04  9.38288E+03  2.89804E+04  2.19756E+04  1.75557E+04  3.22640E+04 -6.66008E+03  2.85153E+04
 -2.05520E+04  1.56878E+04 -1.96440E+04 -3.15131E+03  7.86225E+03 -7.32522E+03  2.66869E+04  1.09360E+04
  3.16708E+03  3.06045E+04 -2.63944E+04  3.36864E+04 -6.30279E+04  3.25579E+03 -5.41368E+04 -4.29397E+04
 -1.37074E+04 -6.04690E+04  3.76453E+04 -4.70772E+04  6.14631E+04 -8.68782E+02  3.48963E+04  2.97840E+04
 -6.56694E+03  3.36597E+04 -2.75923E+04  1.47665E+04 -3.15763E+04 -1.18142E+03 -1.48276E+04 -1.30490E+04
 -5.39722E+03 -1.04208E+04 -8.13000E+02 -1.73920E+04  2.00468E+03 -2.26745E+04  1.60517E+04 -1.65511E+04
  1.12279E+04  2.95018E+03 -9.61034E+03  1.31435E+04 -2.06014E+04 -8.61023E+02 -7.02047E+03 -3.44802E+04
  1.77889E+04 -4.32556E+04  4.51524E+04 -2.37958E+04  4.20991E+04  1.71875E+04  1.35227E+04  4.01431E+04
 -1.50952E+04  3.71889E+04 -2.18323E+04  2.73734E+03 -7.43694E+03 -2.55473E+04  2.52930E+04 -2.87585E+04
  3.99348E+04 -4.47327E+03  3.53150E+04  2.16161E+04  1.73092E+04  4.15587E+04 -7.24741E+03  4.91408E+04
 -2.70652E+04  2.93661E+04 -4.21894E+04  1.36287E+04 -3.49072E+04 -1.62671E+04 -2.67807E+04 -3.82080E+04
  8.96077E+03 -3.62225E+04  2.89003E+04 -1.35662E+04  2.88637E+04  1.06832E+04  3.04594E+03  1.74495E+04
 -1.14240E+04  1.07007E+04 -1.08131E+04 -6.86956E+03  8.65173E+03 -7.80838E+03  1.85352E+04  3.13099E+03
  1.25474E+04  2.11327E+04  2.81776E+02  2.96299E+04 -2.43492E+04  8.69268E+03 -2.79211E+04 -6.02869E+03
 -1.77864E+04 -1.64695E+04 -6.49497E+03 -1.86791E+04 -1.50580E+03 -1.61937E+04  1.26999E+04 -1.71453E+04
  2.50426E+04 -1.18383E+04  3.08571E+04  1.98003E+03  2.42327E+04  1.81417E+04  6.85767E+03  3.06731E+04
 -1.65183E+04  2.43449E+04 -2.41422E+04  7.26558E+03 -2.23589E+04 -1.26293E+04 -8.47766E+03 -1.13250E+04
  2.02644E+03 -2.36629E+03  1.00449E+02  9.67641E+03 -1.43357E+04  7.52420E+03 -1.30912E+04 -1.06906E+04
 -1.13577E+04 -1.77896E+04  5.87720E+03 -1.85508E+04  1.18522E+04 -1.17479E+04  1.66509E+04  1.12324E+03
  7.66934E+03  9.91819E+03 -1.46014E+03  1.90383E+04 -1.11132E+04  5.20262E+03 -1.84835E+04  2.46699E+02
 -1.10796E+04 -1.43172E+04 -2.71608E+03 -2.20302E+04  7.43943E+03 -1.64458E+04  1.78572E+04 -1.20887E+04
  1.78099E+04  9.87979E+02  1.22137E+04  1.77307E+03  6.76285E+03 -1.39033E+03  5.66121E+03  1.48947E+03
  1.32762E+04  4.38875E+03  1.91234E+04  1.55923E+04  8.30941E+03  2.50725E+04  1.23011E+02  2.59730E+04
 -1.76478E+04  2.14342E+04 -2.50833E+04  9.05950E+03 -2.75554E+04 -1.25392E+03 -1.78602E+04 -1.42343E+04
 -6.40800E+03 -1.85673E+04  5.49846E+03 -2.54395E+04  1.70073E+04 -1.23377E+04  1.18880E+04  7.92036E+03
  6.32153E+03  1.27750E+04 -7.01262E+03  5.80092E+03 -1.39900E+04  3.72020E+03 -1.42702E+04 -1.24302E+04
 -3.47780E+03 -1.28696E+04  8.11256E+03 -7.42622E+03  7.23599E+03 -3.26258E+03  8.32618E+01  6.66601E+03
 -4.41529E+03 -1.04755E+03 -2.10302E+03 -2.06707E+03  4.55386E+02 -1.49702E+04  1.05372E+04 -1.11512E+04
  1.18897E+04 -4.99924E+03  1.12731E+04  2.68315E+03  1.56408E+04  8.85689E+03  8.72417E+03  8.90480E+03
 -2.25549E+03  1.82271E+04 -1.17620E+04  1.32524E+04 -1.01529E+04  3.27799E+03 -1.01651E+04 -1.58209E+03
 -9.76883E+02 -4.19009E+03  1.51656E+03  5.30246E+03  2.05315E+03  3.09464E+03 -3.91965E+03  4.35258E+03
 -5.54042E+03 -3.21426E+03 -9.38487E+03 -7.23483E+03 -5.51476E+03 -1.50735E+04  3.46882E+03 -1.07690E+04
  8.41779E+03 -3.90155E+03  2.44560E+03 -1.86635E+03  2.12555E+03 -5.99517E+02 -2.37215E+03 -4.04689E+03
 -4.14775E+03 -1.85015E+03 -1.93838E+03 -9.21249E+03  6.01514E+03 -3.96463E+03  1.02153E+04 -5.45776E+03
  1.37201E+04  2.36111E+03  9.51330E+03  5.75358E+03  3.16465E+03  1.02329E+04 -7.97820E+03  1.17519E+04
 -8.41623E+03  6.35054E+03 -2.05271E+03  3.52529E+03  1.41379E+03 -1.06256E+03  5.24267E+03 -2.77122E+03
  2.27597E+03  4.26019E+03 -2.10123E+02  8.87195E+03 -1.78361E+03  2.92054E+03 -1.08476E+04  4.83388E+03
 -3.62714E+03 -3.19454E+03  7.12345E+02 -5.31589E+03  3.94129E+03 -1.38821E+03  4.74354E+03  2.79295E+01
 -1.74058E+03  7.26082E+03 -1.97165E+03  6.43597E+03 -1.32121E+03 -2.87562E+02 -3.51520E+03 -1.28368E+03
 -1.71439E+03 -7.53291E+03  3.25658E+03 -3.59368E+03  4.21292E+03 -9.28250E+03  3.29921E+03  4.50468E+03
  1.31901E+03  7.37473E+03  1.43641E+03  1.17287E+04 -2.77014E+03  4.72039E+03 -3.20353E+03 -4.41221E+02
 -6.51904E+03 -6.99910E+03  2.37542E+03 -7.26109E+03  6.41331E+03 -7.80071E+03 -1.31031E+03 -3.23023E+03
  6.24123E+02 -8.06490E+01  2.26267E+03 -5.36606E+02  3.40429E+03 -7.84910E+02  2.37635E+03 -2.91185E+03
  4.18893E+03 -1.59014E+03  4.22092E+03  2.26008E+03  4.99051E+03 -1.00913E+02  6.65298E+03  8.84661E+03
 -2.42045E+03  7.97947E+03 -7.86178E+03  5.90621E+03 -9.59956E+03  5.01133E+03 -7.33018E+03 -4.28056E+03
 -2.29659E+03 -7.64356E+03  4.13422E+02 -7.56679E+03  4.06259E+03  2.25052E+03  2.75788E+03 -5.57388E+03
  1.02190E+03 -4.45688E+03 -2.02091E+03  1.26817E+03  3.66850E+03 -3.49213E+03  3.63178E+03 -1.87889E+03
  4.51523E+03  2.37535E+03  9.91268E+02  3.72814E+03  7.06266E+02  1.32737E+03 -2.44657E+03  1.55281E+03
 -7.74067E+03  3.69554E+03 -5.57151E+03 -1.74608E+03 -4.43624E+02 -3.86852E+03  3.79184E+03 -5.25518E+03
  7.45369E+03 -2.45333E+03  7.16683E+03  3.78973E+03  8.55722E+03  3.49458E+03 -1.52033E+03  6.00890E+03
 -3.81330E+03  4.66567E+03 -1.24983E+03  1.99359E+03 -4.40760E+03 -1.21399E+03 -2.58439E+03 -2.15462E+03
 -4.19739E+03 -1.55762E+03 -7.69273E+02  2.00538E+03 -5.38054E+03  2.11308E+03 -2.90941E+03  7.56205E+02
 -3.00523E+03 -1.23288E+03  7.10815E+03 -5.79749E+03  2.00147E+03 -3.55790E+03  3.22745E+03  1.65875E+03
  5.80455E+03 -1.41451E+01  1.45734E+03  3.28969E+03  5.70732E+02  1.81006E+03  1.36185E+02 -2.16899E+03
 -4.85560E+03 -8.84864E+02 -9.47059E+03 -2.16728E+03 -5.12510E+02 -2.12717E+03  3.53513E+03 -6.53910E+02
  6.97232E+03 -2.34048E+03 -2.38757E+02  3.64900E+03 -2.81334E+03  1.77718E+03  2.11063E+03  2.61331E+03
  3.91781E+03 -1.09658E+02  2.98434E+03  2.14575E+03  6.44641E+03  5.27992E+03  1.59813E+03 -2.55324E+03
  1.75992E+03  8.45474E+01 -2.68740E+03  5.45919E+03 -2.43154E+03 -1.44067E+02 -4.59767E+03 -4.57409E+02
  1.45398E+03 -4.05844E+03  2.21329E+03 -5.65667E+03 -3.35600E+03 -3.45502E+03 -1.92828E+03  1.31449E+03
 -4.84806E+02 -1.75062E+03  6.65484E+02  7.75869E+03 -8.40625E+02  2.48978E+03 -1.09355E+03  3.41154E+03
 -2.38803E+03  3.88203E+03  5.03290E+02 -4.89376E+03  2.44026E+03 -7.40924E+03 -2.05127E+03  3.49036E+03
 -7.81119E+02  3.49659E+03 -2.71089E+03  6.45477E+02  1.34813E+02  1.25678E+03 -4.11083E+02 -3.33811E+03
  2.24017E+03 -6.78648E+02  3.61640E+03 -5.34777E+02 -1.35652E+03  1.23383E+03 -7.05362E+02  4.00285E+03
 -2.30622E+03  1.85826E+03  8.18238E+02 -7.51929E+02 -2.08928E+03  7.30446E+02 -4.49423E+02 -3.13151E+03
 -1.33540E+02 -2.01210E+03  4.80613E+02  2.98416E+02  9.52435E+02  1.59093E+03 -2.60462E+02  3.27564E+03
  4.42279E+02 -5.94066E+02 -1.72221E+03  1.04136E+03 -2.27246E+03 -4.17321E+02 -2.72938E+03 -3.72620E+03
 -1.92199E+03  2.31098E+03  3.02731E+03 -4.38108E+02  1.03604E+03 -5.24502E+01  2.02181E+03 -1.40352E+02
  2.52864E+03  5.09954E+02  1.87733E+02 -1.28280E+03  2.17830E+03 -4.67369E+03  4.18418E+01 -3.00983E+03
  2.27612E+03 -1.37157E+03  6.68482E+03 -2.67765E+03  1.46668E+03  5.42437E+03 -7.47071E+02  5.05250E+03
 -2.23191E+02 -1.44563E+03 -7.59327E+02 -1.17210E+03 -1.32908E+03 -1.90591E+03 -2.81824E+03 -1.33551E+03
  2.01859E+03 -3.66253E+03 -1.45189E+03  1.26159E+03 -3.66028E+03  1.37578E+03  1.28952E+03 -4.22778E+02
 -6.80967E+03 -1.77540E+02 -2.41838E+03 -2.05836E+03  2.58452E+02  5.59437E+03  8.65525E+02 -2.14753E+03
  2.02419E+03  1.63776E+03 -2.36396E+03  4.40388E+02  2.96831E+02  2.39478E+02 -1.91563E+03 -9.14616E+02
 -9.59512E+02 -1.27358E+03 -1.02706E+03 -4.48470E+03 -3.25378E+03 -4.12146E+03  3.03905E+03 -1.35049E+03
  3.16028E+03 -1.23243E+03  1.81329E+03  4.60581E+02 -4.80708E+03 -3.81215E+03  8.26569E+02  1.03552E+03
  2.74911E+03 -2.74356E+03 -5.86950E+01 -1.58528E+03 -7.23971E+02  2.31217E+03  1.36639E+03 -3.04705E+03
 -2.39871E+03 -2.31858E+03 -3.61959E+03 -4.29166E+03 -9.28647E+02 -1.68247E+03  4.32591E+00  4.32065E+03
  4.20739E+03  6.80712E+02 -6.65275E+02  2.47963E+02 -6.62761E+03  1.95931E+03  2.00714E+03 -4.39822E+02
  4.44110E+02  3.60709E+03 -4.63139E+03  2.65206E+01 -2.12215E+03  1.09254E+02  3.00216E+03 -4.93615E+03
 -6.03809E+03  2.59066E+02  2.25594E+03  4.35409E+02  2.74413E+03  3.24531E+03 -7.97617E+02 -7.80543E+02
 -2.50406E+03 -1.56831E+03 -1.25103E+03  8.47308E+02 -4.50653E+02 -2.02752E+03 -2.86530E+02  2.15293E+02
  1.23353E+03 -2.90593E+03 -9.61470E+02  2.36975E+03  4.30375E+03 -1.24189E+03  3.80793E+03  1.76993E+02
  2.55631E+03  9.22202E+02 -1.39290E+03  6.60073E+02  1.21836E+03  3.76956E+03 -1.74855E+02  2.46477E+03
  1.38615E+03  1.56579E+03  1.40589E+03  3.78325E+02 -2.80532E+02 -5.97441E+02 -1.12739E+03 -3.25882E+02
 -1.05553E+03 -2.39323E+03 -2.69730E+02 -7.63466E+02  1.52770E+03  5.50890E+02 -2.26885E+03  2.34526E+03
 -5.25531E+03  7.68981E+02  2.76613E+03 -2.21643E+03  4.31777E+03  2.03638E+03 -2.48152E+03  3.83766E+02
 -4.72285E+02  7.43106E+02 -1.17954E+03 -1.35430E+02  1.70291E+03 -6.55893E+03 -4.59272E+02 -2.56779E+03
 -3.19172E+02 -7.94579E+02 -5.22032E+03  7.20519E+02  3.17935E+02 -9.93539E+02 -2.68263E+03  7.66511E+02
