 $NMID ID='MM_0lb_SNR50_17hz_g60_49.RAW', FMTDAT='(8E13.5)'
 TRAMP=1., VOLUME=1. $END
  3.08544E+05 -4.74974E+03  3.36114E+05  2.50542E+05  8.39901E+04  3.37600E+05 -1.31454E+05  2.51014E+05
 -1.92428E+05  8.30988E+04 -1.11309E+05 -3.18292E+04  2.09185E+03 -5.04284E+04  5.52395E+04  9.90825E+02
  3.47550E+04  4.99854E+04 -1.50501E+04  7.60191E+04 -5.81319E+04  6.67531E+04 -8.50562E+04  3.13330E+04
 -8.27201E+04 -1.15289E+04 -5.45608E+04 -5.10043E+04 -1.44895E+04 -6.85423E+04  3.05584E+04 -4.04449E+04
  3.56975E+04  5.61118E+03  2.19202E+04  4.50974E+04 -3.75408E+04  4.61065E+04 -7.03453E+04  2.80799E+03
 -5.34651E+04 -5.75966E+04 -4.62248E+03 -7.89030E+04  3.34365E+04 -5.48182E+04  4.72751E+04 -1.50770E+04
  4.11705E+04  1.18612E+04  3.14461E+04  2.70676E+04  1.49034E+04  3.41936E+04 -3.00464E+03  2.55737E+04
 -2.49497E+04  7.05806E+03 -2.25031E+04 -6.35822E+03  3.69954E+03 -5.28347E+03  2.30337E+04  1.23038E+04
  7.53282E+03  3.83687E+04 -3.18279E+04  3.51036E+04 -6.39001E+04  2.14574E+03 -5.89371E+04 -4.51979E+04
 -1.13270E+04 -6.33767E+04  3.34143E+04 -4.28887E+04  5.82491E+04  4.18775E+02  3.45652E+04  3.32681E+04
 -6.38553E+03  3.51881E+04 -2.85048E+04  1.35836E+04 -2.90966E+04 -6.79759E+03 -1.62925E+04 -1.42635E+04
 -4.38187E+03 -1.14534E+04  5.63434E+03 -1.51869E+04  9.57941E+03 -2.24340E+04  1.41289E+04 -1.35859E+04
  8.51953E+03  4.65216E+03 -8.50550E+03  1.33301E+04 -2.14167E+04 -1.06225E+03 -1.05184E+04 -3.88866E+04
  2.42143E+04 -4.50231E+04  4.65035E+04 -1.73827E+04  4.43931E+04  2.35000E+04  1.88452E+04  4.45072E+04
 -1.74224E+04  3.41148E+04 -2.76658E+04  7.01690E+02 -9.71095E+03 -2.04119E+04  2.31987E+04 -3.45952E+04
  4.54378E+04 -1.23080E+04  3.45912E+04  2.10974E+04  1.59629E+04  4.76786E+04 -1.22604E+04  4.71878E+04
 -2.66530E+04  3.51586E+04 -3.75496E+04  1.01068E+04 -4.30247E+04 -2.02748E+04 -2.34476E+04 -3.56777E+04
  7.41282E+03 -3.56153E+04  3.29421E+04 -1.49041E+04  2.94779E+04  1.03673E+04  4.45312E+03  1.99524E+04
 -1.43147E+04  1.19771E+04 -9.59780E+03 -6.92617E+03  4.22448E+03 -9.76092E+03  1.74919E+04  4.61710E+03
  1.11332E+04  2.18366E+04 -8.04872E+03  2.39478E+04 -2.55047E+04  1.00185E+04 -2.57336E+04 -5.53251E+03
 -2.16702E+04 -2.19323E+04 -6.73570E+03 -1.88268E+04  1.99731E+03 -1.67108E+04  1.83131E+04 -1.64285E+04
  2.28491E+04 -1.46196E+04  2.77748E+04  4.18340E+03  2.06816E+04  1.79114E+04  1.92824E+03  3.64941E+04
 -1.98257E+04  2.69797E+04 -2.89426E+04  1.06171E+04 -2.02757E+04 -7.83396E+03 -2.42746E+03 -1.30603E+04
  4.82364E+03 -1.50967E+03 -2.53329E+02  6.49577E+03 -1.35550E+04  6.00990E+03 -2.15107E+04 -8.90719E+03
 -8.86072E+03 -1.32319E+04  3.61811E+02 -2.17843E+04  1.48955E+04 -8.73319E+03  1.56982E+04 -1.04478E+03
  1.56286E+04  1.32563E+04  3.59136E+03  1.98143E+04 -1.46735E+04  7.60722E+03 -2.40306E+04  2.71158E+03
 -1.44699E+04 -1.30059E+04 -4.01440E+03 -2.66663E+04  1.39204E+04 -1.98812E+04  2.04272E+04 -9.64953E+03
  1.87967E+04  3.53696E+03  1.59644E+04  5.08956E+03  5.36555E+03  3.02179E+03  1.09274E+04  3.60622E+02
  1.82674E+04  3.07152E+03  1.77595E+04  1.34615E+04  1.25240E+04  2.90309E+04 -4.85095E+03  3.39752E+04
 -1.82379E+04  2.49404E+04 -2.86681E+04  1.13776E+04 -2.66920E+04 -5.74026E+03 -2.74052E+04 -1.58821E+04
 -1.21613E+04 -3.04153E+04  1.04237E+04 -2.30420E+04  1.82152E+04 -1.07989E+04  2.39587E+04  2.72094E+03
  4.44789E+03  1.49180E+04 -6.78735E+03  9.54331E+03 -1.54471E+04 -8.15487E+02 -1.17727E+04 -1.10333E+04
 -1.59798E+03 -1.58943E+04  8.77880E+03 -1.06734E+04  5.22880E+03 -3.88547E+03  3.05736E+03  2.66824E+03
 -4.34545E+03  3.56750E+03 -4.71055E+03 -4.94921E+03  4.63126E+03 -1.86993E+04  9.79753E+03 -1.53246E+04
  1.13872E+04 -8.39051E+03  1.92675E+04  5.32548E+03  1.68472E+04  1.13314E+04  6.92970E+03  2.16058E+04
 -6.26671E+03  1.97363E+04 -9.91751E+03  1.46540E+04 -1.39532E+04 -2.81472E+00 -1.05264E+04 -4.05864E+03
 -4.19433E+03 -3.10333E+03  1.36895E+03  2.13758E+03 -2.93875E+03  3.37950E+03 -1.33362E+03  5.48053E+03
 -1.34445E+04 -1.48257E+02 -9.65084E+03 -8.13561E+03 -4.73976E+03 -1.42219E+04  6.39304E+03 -7.63734E+03
  1.08035E+04 -2.74058E+03  1.06249E+04  2.63113E+03 -6.38369E+02  1.77149E+03 -3.31703E+03  2.32919E+02
 -3.08168E+03 -6.36999E+03  4.99412E+03 -9.49934E+03  5.80928E+03 -1.08451E+04  5.02779E+03 -7.66382E+03
  1.18477E+04  9.12595E+02  1.15708E+04  2.78955E+03  1.68520E+03  1.31070E+04 -5.84149E+03  9.41299E+03
 -5.48088E+03  3.29623E+03 -4.20284E+03 -1.24585E+03 -1.38589E+03 -4.34405E+02  6.51094E+03 -2.73369E+03
  3.18222E+03  1.70297E+03  2.07199E+03  8.19724E+03 -5.77826E+03  6.10291E+03 -1.22801E+04  1.52018E+03
 -2.75236E+03 -1.38804E+03  7.01125E+03 -7.16379E+03  3.77959E+03 -1.09632E+03  3.44992E+03  6.50653E+03
 -1.80588E+03  1.20920E+03 -8.30275E+03  4.12386E+03 -7.10141E+03 -5.55057E+03 -1.05575E+04 -1.86520E+03
 -4.50061E+02 -9.54628E+03 -1.00347E+03 -1.00947E+04  4.88588E+03 -5.00583E+03  9.33620E+03  5.33930E+03
  1.03639E+04  9.35653E+03 -2.65293E+03  1.10652E+04 -6.19158E+03  5.46917E+03 -6.40571E+03 -8.44505E+02
 -7.25931E+03 -6.07935E+03  8.58190E+02 -7.40704E+03  5.83515E+03 -8.99665E+03  4.71128E+03 -5.05546E+03
  6.26740E+02 -4.88625E+03  7.35574E+02  2.68342E+03 -5.21059E+03 -4.48528E+02 -4.37516E+02 -2.79544E+01
  5.71526E+03  1.57230E+03  5.28347E+03 -2.23585E+02  4.97489E+03  5.10105E+03  4.75608E+03  5.50870E+03
 -3.33423E+03  1.71064E+04 -5.88011E+03  6.06650E+03 -1.47967E+04  4.01820E+03 -8.78131E+03 -7.19503E+03
 -3.45582E+03 -7.82874E+03  1.80066E+03 -5.99365E+03  2.86831E+03 -1.40763E+03 -4.07223E+02 -4.25474E+03
 -2.33079E+03 -6.37117E+03  2.18810E+03 -2.07929E+03  4.18358E+03  1.08791E+03  7.83747E+03 -3.27510E+02
  2.84057E+03  1.43351E+03  5.90804E+03  6.00447E+03  3.76353E+03  2.75892E+03 -9.63782E+03  5.08757E+03
 -7.36967E+03  1.32676E+02 -1.45773E+03 -4.42009E+03  1.16120E+02 -5.77778E+03  4.46549E+02 -7.97937E+03
  8.95513E+03 -2.56862E+03  3.25810E+03 -2.47633E+03  1.51749E+04  2.06746E+03  1.69449E+02  9.20423E+03
  7.09285E+02  6.18100E+03 -6.52044E+03  2.08876E+03 -2.89240E+03 -1.33018E+03  2.44406E+03 -2.81924E+03
  1.88705E+03 -1.80786E+03 -4.69205E+03 -4.37428E+03 -5.53787E+03  3.80977E+03 -7.80891E+03  3.12234E+03
 -1.75250E+03 -5.41430E+03 -1.11444E+03 -9.02704E+03  1.94292E+03 -2.98526E+03  7.47942E+02  3.34862E+02
  1.26215E+04  2.57240E+03  5.46740E+03  2.88508E+03 -2.14324E+03  4.66508E+03 -3.54532E+03  8.80826E+01
 -4.79074E+03  2.94929E+03 -3.76717E+03 -2.56546E+03  2.85756E+03  9.94581E+01  5.79463E+03 -3.32333E+03
  8.44826E+03  7.92960E+02 -1.61536E+03  4.35715E+03  9.34225E+02  1.88876E+03  8.96102E+02  1.41788E+03
  2.92792E+03 -8.72710E+02  3.80562E+03 -1.90607E+03  4.47635E+03  5.05936E+03 -2.93828E+03 -4.43059E+03
  7.74831E+02  3.04941E+03 -6.44315E+03  6.17237E+03 -3.00656E+03  2.87704E+03 -5.07988E+03 -5.72044E+02
 -1.94337E+03 -8.07919E+03  5.01430E+03 -8.03610E+03  1.99905E+03 -2.32152E+03  9.54487E+03 -1.96782E+03
  4.87627E+03  1.45465E+03 -4.92101E+03  4.67571E+03 -3.38812E+03  4.77697E+03 -5.51176E+03  3.24869E+02
 -3.67603E+03 -2.84468E+03  5.81595E+03 -2.11916E+02  4.85807E+03 -3.18561E+03  2.11191E+03  6.06694E+02
  3.03528E+03  3.71565E+02  2.86783E+03  1.65588E+01 -1.17033E+03  6.66621E+00  4.91869E+03  2.00995E+03
  5.13947E+02  1.33761E+03  1.11405E+03  1.94114E+02 -5.06426E+02  4.75869E+03 -1.24468E+03  2.98308E+03
  1.69724E+03 -2.90206E+03 -3.35046E+03 -1.17404E+03  2.61173E+02  4.23726E+03 -4.23940E+03  4.86603E+02
  1.67841E+03 -3.54918E+03  1.14751E+03  2.80175E+03  3.22926E+02 -7.46500E+01 -1.50710E+02  2.14825E+03
 -2.73410E+03  1.82053E+03 -3.99562E+03 -3.50851E+03 -1.91091E+03 -6.99323E+03  2.76475E+02  1.84856E+03
 -1.22529E+03 -6.69583E+02  3.41997E+03 -2.69352E+03  5.96325E+02  2.45074E+03  6.88392E+03  2.48050E+03
  7.17023E+02  1.18275E+03  1.71658E+03  2.44685E+03 -4.79673E+02  2.46328E+02  9.69439E+02 -5.27063E+03
  2.51930E+03  4.64434E+03  6.47301E+03  3.63699E+03 -1.87703E+03  1.76283E+03 -3.27540E+03  3.07607E+03
  1.55940E+03  3.16220E+03 -6.89045E+03  3.52335E+03 -1.25015E+03  8.50478E+02 -1.26051E+03 -4.55233E+03
  1.42143E+03 -2.69954E+03 -5.24833E+02 -8.63478E+02  4.27736E+02  2.15090E+03  1.33323E+03  5.13490E+02
  4.79701E+03  5.73762E+03  3.34815E+03  2.43476E+03 -3.44982E+03  1.54037E+03 -3.88018E+03  2.03167E+03
 -9.46546E+02 -1.61898E+03 -4.26778E+03 -5.26358E+03 -8.65531E+02 -3.21746E+03  8.17932E+02 -7.93502E+02
 -1.23985E+03 -7.42002E+03 -1.62098E+03 -2.75175E+03 -6.76156E+02 -5.52749E+03 -1.21869E+03 -1.76946E+03
  6.71820E+03 -2.06859E+03 -4.87408E+02  4.42625E+03 -2.29230E+03  1.33691E+03  2.15744E+03 -1.38366E+03
 -1.43966E+03  2.64851E+03  3.76250E+03 -4.78064E+03 -1.33690E+03  2.69949E+03  3.55271E+02  2.36937E+03
 -1.34921E+01  5.05957E+03 -5.08823E+03  1.70772E+03  8.90939E+02 -4.37598E+03 -3.89141E+02 -2.15225E+02
  1.51071E+01  2.14740E+03  2.72644E+03  3.92646E+03  4.72532E+03  2.96621E+03 -3.78160E+02  2.97297E+02
  1.22264E+03  7.66577E+03  1.00479E+03  3.26012E+03  2.04379E+03  3.36748E+03 -5.96443E+03  9.28509E+02
  2.98126E+03 -3.11482E+03  2.66785E+02 -4.61856E+03  4.19306E+03  8.99348E+02  7.05889E+02  3.25528E+03
 -4.62317E+02  9.74767E+02 -2.64890E+03 -6.49081E+02 -5.22153E+02  9.97411E+02 -5.33710E+03 -1.78631E+03
 -5.96819E+03 -8.01420E+02  5.19138E+02  3.33252E+03  1.14452E+02 -2.22386E+03 -1.05590E+03  1.72184E+02
 -6.80054E+03  1.30613E+03  1.89191E+03  2.70012E+03 -2.90298E+03 -2.63933E+03  5.60486E+03 -8.53946E+02
 -2.88509E+02 -8.95883E+01 -2.54822E+03 -2.34259E+03  5.24930E+03 -4.28439E+03 -2.08812E+03  2.48154E+03
 -4.61226E+03 -3.17299E+03 -9.30617E+02 -1.44786E+03 -2.21502E+03  1.67472E+03  1.82598E+03 -1.75977E+03
 -5.78880E+02  7.39575E+02  6.10266E+03 -1.79984E+03 -6.46729E+03 -5.78983E+01 -4.19792E+03 -4.32055E+03
 -2.89544E+03  3.04750E+02  2.18197E+03  9.05168E+02 -4.00546E+03 -2.99318E+03  5.69217E+03 -5.30032E+02
  2.92697E+03  3.72222E+03  9.18004E+02  5.43162E+02  7.48382E+02 -2.79548E+03  8.64683E+02 -2.83828E+03
