 $NMID ID='MM_0lb_SNR50_9hz_g60_10.RAW', FMTDAT='(8E13.5)'
 TRAMP=1., VOLUME=1. $END
  3.12752E+05  5.61874E+03  3.33154E+05  2.55997E+05  9.08525E+04  3.36651E+05 -1.30383E+05  2.53330E+05
 -1.89488E+05  8.67006E+04 -1.16862E+05 -3.34166E+04  3.69076E+02 -5.22706E+04  6.47356E+04  1.12903E+03
  2.87913E+04  4.88951E+04 -2.05585E+04  7.89082E+04 -5.78191E+04  6.45026E+04 -8.35903E+04  3.31313E+04
 -8.89237E+04 -1.10809E+04 -6.21974E+04 -5.34287E+04 -1.77508E+04 -7.31772E+04  2.71563E+04 -5.11282E+04
  4.42187E+04  1.97032E+03  2.56178E+04  4.39723E+04 -3.01241E+04  4.83977E+04 -6.95212E+04  3.02442E+03
 -5.54743E+04 -5.91853E+04 -5.13384E+03 -8.10985E+04  3.49348E+04 -6.41386E+04  5.04195E+04 -2.03044E+04
  4.85811E+04  1.30985E+04  3.69680E+04  2.64650E+04  1.73070E+04  3.36278E+04 -5.75392E+03  2.46860E+04
 -2.08906E+04  1.29330E+04 -1.77169E+04 -6.51463E+03 -5.46879E+02 -1.20609E+04  2.21924E+04  1.29876E+04
  1.35968E+03  3.44445E+04 -3.41350E+04  3.14680E+04 -6.85583E+04 -3.16544E+03 -6.13438E+04 -4.25422E+04
 -7.98595E+03 -6.27697E+04  4.43957E+04 -4.10473E+04  5.97517E+04 -1.63744E+03  3.95803E+04  3.59374E+04
 -5.34923E+03  4.18954E+04 -3.37674E+04  1.67880E+04 -3.04481E+04 -8.16384E+03 -2.67594E+04 -7.57472E+03
 -8.02899E+03 -1.49192E+04  2.26315E+03 -2.37160E+04  1.08380E+04 -2.51885E+04  1.75054E+04 -1.53767E+04
  9.84670E+03  8.15738E+03 -7.13893E+03  1.05381E+04 -1.84074E+04 -4.71304E+03 -1.45968E+04 -4.02400E+04
  2.65702E+04 -5.40198E+04  5.86995E+04 -1.73388E+04  4.71299E+04  2.16532E+04  2.62164E+04  5.68768E+04
 -2.16299E+04  3.50850E+04 -2.77995E+04  3.96079E+03 -1.40628E+04 -3.14836E+04  1.90477E+04 -3.54815E+04
  4.62703E+04 -1.13525E+04  3.85936E+04  2.15104E+04  2.93205E+04  4.92520E+04 -1.21480E+04  6.20845E+04
 -4.00757E+04  3.61872E+04 -5.17279E+04  6.62055E+03 -4.72857E+04 -1.75888E+04 -2.31127E+04 -4.19087E+04
  5.92192E+03 -4.70615E+04  3.73728E+04 -2.38603E+04  3.44138E+04  1.33288E+04  4.92697E+03  1.98305E+04
 -1.20412E+04  1.30912E+04 -1.29103E+04 -6.45558E+03 -2.56504E+03 -1.13837E+04  1.71272E+04  3.21054E+02
  1.74670E+04  1.93986E+04 -6.44470E+03  2.62973E+04 -1.98809E+04  1.29335E+04 -2.95432E+04 -5.73971E+03
 -2.62616E+04 -1.82502E+04 -1.32301E+04 -3.15917E+04  4.32743E+03 -2.58986E+04  2.70540E+04 -2.60371E+04
  3.82979E+04 -1.14264E+04  4.00489E+04  7.51248E+03  2.56800E+04  2.95609E+04  1.35968E+03  3.89374E+04
 -2.21090E+04  4.28451E+04 -2.89624E+04  1.01977E+04 -2.33824E+04 -8.38345E+03  8.16794E+02 -1.36691E+04
 -6.35788E+03  5.50369E+03 -1.39246E+03  4.15425E+03 -2.51502E+04  8.15221E+03 -2.33107E+04 -9.74839E+03
 -1.16539E+04 -2.82748E+04  3.79969E+03 -2.92322E+04  1.81935E+04 -2.24419E+04  2.25249E+04  2.29521E+03
  1.69453E+04  1.57268E+04  1.50690E+03  2.29971E+04 -1.48291E+04  1.07807E+04 -2.40920E+04 -2.49156E+03
 -2.61350E+04 -1.54503E+04 -5.33116E+03 -2.54186E+04  1.47839E+04 -2.48623E+04  2.43462E+04 -1.32816E+04
  2.47682E+04  2.60564E+03  1.73416E+04  1.03128E+04  6.53189E+03  2.91353E+02  1.34400E+04 -4.94839E+03
  3.10702E+04  3.69638E+03  1.95105E+04  2.13261E+04  1.90371E+04  4.04795E+04  7.41622E+03  4.59265E+04
 -2.38028E+04  3.69164E+04 -3.75007E+04  1.91102E+04 -4.70536E+04 -6.24960E+03 -3.86487E+04 -2.77099E+04
 -7.21670E+03 -3.77173E+04  1.89058E+04 -3.39655E+04  3.32669E+04 -1.01755E+04  2.66196E+04  1.13869E+04
  1.12397E+04  1.75852E+04 -1.61302E+04  1.04559E+04 -1.97757E+04  4.96173E+03 -1.26251E+04 -1.38836E+04
  7.01745E+02 -2.21536E+04  2.01247E+03 -1.79865E+04  1.64315E+04 -3.24795E+03 -9.57829E+02  5.73728E+03
 -1.45071E+04  4.35812E+03 -9.02493E+03 -7.45605E+03  5.60769E+03 -1.79101E+04  1.30131E+04 -2.25757E+04
  2.38192E+04 -1.36835E+04  3.04441E+04  6.29426E+03  2.82621E+04  2.69230E+04  1.18956E+04  3.08946E+04
 -5.51822E+03  3.42686E+04 -1.29273E+04  9.46811E+03 -2.49661E+04  6.60873E+03 -9.13884E+03 -9.76192E+03
 -6.84922E+03 -4.71158E+03 -3.25764E+03  1.02345E+03 -6.15104E+03  1.74779E+03 -1.07652E+04 -1.70545E+03
 -1.18631E+04  3.22639E+02 -1.13897E+04 -1.62005E+04  6.34895E+02 -2.10666E+04  9.56554E+03 -1.30389E+04
  1.35488E+04 -1.26370E+04  1.20059E+04 -1.22907E+03  1.63847E+02  6.07144E+03 -1.29406E+04 -2.40353E+03
 -4.84587E+03 -8.42303E+03  1.67076E+03 -2.34651E+04  8.84277E+03 -1.80071E+04  1.72005E+04 -1.58413E+04
  2.25847E+04  4.54666E+03  2.04391E+04  1.63630E+04  2.27250E+03  2.71366E+04 -1.04971E+04  1.83239E+04
 -1.47300E+04  5.51917E+03 -7.21257E+03 -5.33505E+03 -1.31501E+03 -2.23806E+03  8.37488E+03 -5.54343E+02
  4.83231E+03  1.13834E+04  9.89545E+01  1.68919E+04 -1.43649E+04  1.42524E+04 -1.23705E+04  6.86647E+03
 -8.94098E+03 -1.81249E+04 -2.64240E+03 -1.74779E+04  8.51359E+03 -2.13397E+03  2.74182E+03  9.47397E+02
  3.78994E+03  1.60835E+04 -8.25027E+03  1.39304E+04 -1.19113E+04  7.25675E+03 -1.44080E+04 -6.74752E+03
 -5.70275E+03 -1.61729E+04  7.80420E+03 -2.68349E+04  1.61237E+04 -8.17570E+03  1.37399E+04  3.30328E+03
  1.13508E+04  1.11493E+04  1.74222E+03  1.91594E+04 -1.83542E+04  1.00690E+04 -1.02936E+04 -2.25794E+03
 -1.19031E+04 -1.39357E+04 -1.39599E+02 -1.88006E+04 -8.96619E+02 -1.12589E+04  9.24940E+03 -1.01840E+03
  9.20817E+03  3.91321E+03 -4.89233E+03  3.96120E+03  1.50050E+03 -1.31504E+03  3.95222E+03 -8.88420E+03
  1.54639E+04 -8.67262E+03  1.75729E+04  4.70554E+03  1.69390E+04  1.43890E+04  1.41462E+04  2.43324E+04
 -1.19177E+04  3.00418E+04 -2.04676E+04  2.41112E+04 -2.88872E+04  7.41095E+03 -2.32674E+04 -9.44225E+03
 -1.04127E+04 -1.78941E+04 -6.39534E+03 -1.17634E+04  2.10775E+03 -2.35193E+03  4.52055E+03 -6.50127E+03
  7.30982E+03 -6.41979E+03  5.76228E+03 -5.87652E+03  6.21759E+02 -2.75536E+03  5.32682E+03 -3.30624E+03
  1.34019E+04  4.24125E+03  4.36262E+01  7.38431E+03 -8.53389E+03  7.27977E+03 -1.19254E+04  4.34129E+03
 -2.02269E+04  4.89351E+03 -4.11484E+03 -1.67799E+04 -3.23638E+03 -1.86479E+04  5.18416E+03 -2.24334E+04
  1.56037E+04 -4.93563E+03  1.64688E+04  2.91893E+03  1.41942E+04  1.90136E+04  2.53904E+03  2.12598E+04
 -9.61884E+02  1.75535E+04 -1.30723E+04  1.70203E+04 -3.38284E+03  5.66104E+02 -3.54304E+03 -2.54464E+03
  5.83704E+02 -1.53538E+03 -5.66706E+03  4.27564E+01 -6.88741E+03  5.24496E+03 -1.29559E+04 -3.14830E+01
 -5.73297E+03 -7.36755E+03 -4.58453E+03 -1.32849E+04  1.04401E+04 -1.09988E+04  1.88007E+04 -4.57321E+03
  1.90252E+04  1.35556E+03  8.18650E+03  1.71684E+04 -1.45328E+02  1.17847E+04 -1.08622E+04  1.41952E+04
 -1.36097E+04 -1.51222E+02 -1.26214E+04 -1.19458E+04  1.85017E+03 -9.53171E+03  1.07661E+04 -9.62181E+03
  8.16225E+03  4.91335E+02  5.80910E+03  1.15963E+03  1.46045E+03  4.30928E+03 -3.04139E+03  6.76473E+03
  6.93828E+03  2.69820E+03  5.39529E+03  8.48886E+03  3.34582E+02  6.15278E+03  7.15741E+03  5.61328E+03
 -4.53816E+03  1.55476E+04 -2.02447E+04  1.10882E+04 -1.49526E+04  1.45271E+04 -1.89161E+04 -8.50704E+03
 -1.23493E+04 -1.29057E+04 -1.89171E+03 -1.71041E+04  1.40971E+04 -1.55006E+04  1.04287E+04 -1.00059E+04
  1.20873E+04  5.40054E+03 -4.46265E+03  9.04350E+03 -5.40646E+03  7.91920E+03 -4.34811E+03 -5.55517E+03
 -4.93621E+03 -8.99420E+03 -7.09300E+02 -1.20558E+04  3.19546E+03 -3.71899E+03  1.14052E+04 -4.22556E+03
  4.32842E+03  2.65807E+03  7.70246E+03  4.23229E+03  9.44560E+03 -1.01782E+01  1.63123E+03 -5.54177E+03
  2.25799E+03  1.40439E+03  3.32524E+03 -5.63780E+02  3.82596E+02  7.60080E+03 -1.47130E+02  9.47171E+03
 -9.00847E+03  7.51587E+03 -1.15092E+04  1.17856E+03 -1.00245E+04 -6.84205E+02 -6.98062E+03 -9.86504E+03
 -4.82963E+03 -5.16140E+03  4.94787E+03 -1.60816E+03  3.23351E+03  3.52431E+03 -5.19800E+03  4.45732E+03
 -6.02602E+03  5.75699E+03 -5.82194E+03 -1.96692E+03 -1.09866E+04 -1.23707E+04  4.56044E+03 -4.65675E+03
  1.26726E+04 -8.04676E+03  1.15317E+04  1.47225E+02  6.77837E+03  3.46114E+03 -1.90437E+02  7.12977E+03
 -4.29121E+03  8.92532E+03 -8.29866E+03 -6.27466E+03  7.90039E+03 -2.70934E+03  4.78477E+03 -8.67806E+03
  7.02898E+03 -1.13523E+03  2.28769E+03  7.47948E+03  1.73198E+03  8.24247E+03 -5.11735E+03  1.21824E+04
 -3.13070E+03  3.60386E+03 -1.73767E+04  1.18242E+03 -4.82531E+03 -7.70193E+03 -1.86267E+03 -5.94410E+03
  8.20276E+03 -4.93233E+02  3.11484E+03  4.67832E+03  6.19471E+03  6.35341E+03  6.96234E+02  3.66090E+03
 -4.63687E+03  3.14682E+03 -1.10578E+03  5.49901E+03  2.51798E+02  2.40215E+02 -4.56319E+03  2.30967E+03
 -6.04674E+03 -3.45155E+03 -4.15178E+03  1.62912E+03 -1.45111E+04  1.46262E+03 -1.59641E+04 -9.72845E+03
 -1.22049E+04 -1.14581E+04  3.05881E+03 -1.06140E+04  5.07804E+03 -1.27532E+04  1.53895E+04 -8.74299E+03
  1.48784E+04 -2.95737E+03  6.85716E+03  7.77904E+03 -2.15913E+03  8.63774E+03 -9.93570E+03 -1.17118E+02
 -1.13003E+04  7.05433E+03 -8.69568E+03 -5.65932E+03 -1.30296E+02  1.23563E+03 -1.86360E+03  2.36027E+03
  5.22976E+02  1.66429E+03 -4.30591E+03 -4.95232E+03 -5.90780E+02 -4.53494E+02  4.98230E+03  5.43319E+02
  3.95689E+03  4.31818E+02  7.59053E+03 -3.86409E+03  1.44406E+04  3.70990E+03  7.27604E+03  5.18394E+03
 -6.96045E+03  9.79500E+03 -1.19929E+04  6.77105E+03 -2.17648E+04 -9.59722E+03 -8.59277E+03 -6.65574E+03
 -7.77179E+03 -1.33483E+04  5.38130E+03 -1.34988E+04  7.73863E+03 -7.64597E+03  1.04783E+04  1.48908E+03
  4.64554E+03  5.04240E+03 -6.35666E+02  7.07993E+02 -2.66967E+03  2.58137E+02 -1.14224E+01 -1.54239E+03
  8.92267E+03  4.97487E+03  5.61507E+03  2.88332E+03  1.48472E+03  6.24254E+03  4.03729E+03  1.32190E+04
 -7.10892E+03  4.71874E+03 -3.72388E+03  4.28605E+03 -4.68719E+03 -3.12076E+03 -9.79950E+02 -8.50924E+03
  2.62392E+02 -3.79683E+03  1.44184E+04 -1.10974E+03  1.12620E+04  5.15881E+02  4.88390E+03  4.08391E+03
  4.21691E+03  3.67260E+03 -5.82498E+03  9.95074E+03 -8.36279E+03  7.38086E+03 -9.60585E+03 -6.64818E+02
 -1.73061E+03 -5.74798E+03  1.46696E+03  7.44563E+03  2.67778E+03  7.01841E+03 -1.35264E+03  2.33192E+03
 -4.59970E+03 -4.16701E+03 -1.54760E+03 -7.79271E+03 -9.31844E+02 -3.93335E+03  6.49371E+03 -8.51610E+02
  1.07364E+04 -8.50794E+02  6.41733E+03  6.05205E+03  2.73665E+03  9.76501E+03 -9.03464E+03 -1.42757E+03
