 $NMID ID='MM_0lb_SNR50_18hz_g55_54.RAW', FMTDAT='(8E13.5)'
 TRAMP=1., VOLUME=1. $END
  3.09755E+05  6.47213E+03  3.38965E+05  2.48717E+05  8.38572E+04  3.38414E+05 -1.28490E+05  2.51536E+05
 -1.90386E+05  8.22806E+04 -1.09858E+05 -3.05176E+04  1.33992E+03 -5.12560E+04  5.55852E+04  5.13966E+01
  3.37336E+04  5.34127E+04 -1.62800E+04  7.26811E+04 -6.06387E+04  6.83480E+04 -8.32670E+04  2.88175E+04
 -8.32047E+04 -1.10241E+04 -5.65146E+04 -5.37085E+04 -1.25859E+04 -6.73123E+04  2.78805E+04 -4.41125E+04
  3.95022E+04  1.75595E+03  1.25415E+04  4.46058E+04 -3.25764E+04  4.99071E+04 -6.55783E+04  5.55361E+03
 -5.11813E+04 -5.50148E+04 -8.24150E+03 -7.71686E+04  3.31366E+04 -5.15247E+04  4.46770E+04 -1.45019E+04
  4.17512E+04  1.38534E+04  3.41792E+04  2.70006E+04  1.95618E+04  2.88668E+04 -3.18636E+03  2.25744E+04
 -2.39542E+04  1.39329E+04 -2.00572E+04 -4.99672E+03  6.29946E+03 -8.20463E+03  2.06381E+04  1.44771E+04
  1.08790E+04  3.25233E+04 -3.28721E+04  3.30844E+04 -6.02844E+04  8.08649E+03 -5.41606E+04 -4.08301E+04
 -1.39904E+04 -6.40485E+04  3.89741E+04 -4.36073E+04  5.32290E+04 -6.43811E+03  3.16871E+04  3.39396E+04
 -7.91983E+03  3.30874E+04 -2.59680E+04  1.71193E+04 -2.98927E+04 -6.06763E+03 -1.55566E+04 -1.02657E+04
 -1.14858E+04 -9.20483E+03 -1.88761E+03 -1.48204E+04  6.32636E+03 -2.04061E+04  1.77080E+04 -1.95425E+04
  9.23165E+03  6.65417E+03 -5.38399E+03  1.50519E+04 -1.55398E+04 -3.75616E+03 -1.34090E+04 -3.69339E+04
  2.11139E+04 -4.28404E+04  4.61378E+04 -1.63306E+04  4.44077E+04  1.89115E+04  1.52040E+04  4.04000E+04
 -1.60084E+04  3.25751E+04 -2.27927E+04  4.79073E+03 -1.01733E+04 -3.40274E+04  1.74192E+04 -3.54034E+04
  3.65251E+04 -6.23004E+03  3.35966E+04  2.34044E+04  1.92550E+04  4.51176E+04 -5.78586E+03  4.64489E+04
 -2.91842E+04  3.25792E+04 -3.90972E+04  9.70799E+03 -4.04788E+04 -1.69213E+04 -2.43079E+04 -3.52457E+04
  9.70776E+03 -3.52896E+04  2.68559E+04 -1.38304E+04  3.08732E+04  1.30988E+04  3.22943E+03  1.57049E+04
 -1.35529E+04  6.29296E+03 -9.67756E+03 -1.11774E+04  9.19819E+03 -6.40332E+03  1.72278E+04  4.53338E+03
  1.07490E+04  2.79608E+04 -5.21681E+03  1.63870E+04 -2.29192E+04  1.09500E+04 -2.42394E+04 -5.62102E+03
 -2.10228E+04 -2.05653E+04 -7.13236E+03 -1.66162E+04  2.74513E+03 -1.74083E+04  7.32456E+03 -1.72148E+04
  2.12459E+04 -1.68916E+04  3.09673E+04  3.74080E+03  2.05275E+04  1.74731E+04  6.61501E+03  3.62385E+04
 -1.50488E+04  2.70508E+04 -2.86935E+04  1.06914E+04 -2.09644E+04 -6.82920E+03 -1.75776E+03 -1.22079E+04
  2.07816E+03 -8.21153E+02 -5.08748E+02  4.15221E+03 -1.49482E+04  5.06795E+03 -1.47422E+04 -3.79842E+03
 -9.92569E+03 -1.99559E+04  4.54473E+03 -1.91335E+04  1.39236E+04 -1.59778E+04  2.02050E+04  9.69116E+02
  1.29939E+04  1.28950E+04  2.54277E+03  1.63730E+04 -1.12177E+04  1.10839E+04 -1.37171E+04 -2.31652E+03
 -1.32788E+04 -1.67807E+04 -3.23443E+02 -2.32084E+04  1.10717E+04 -1.48509E+04  1.43835E+04 -8.22264E+03
  1.46607E+04  2.67680E+03  6.48901E+03  1.82455E+03  4.63505E+03  1.76931E+03  8.74742E+03 -1.64600E+03
  1.78639E+04  4.14122E+03  1.60316E+04  1.61416E+04  9.80623E+03  2.76703E+04 -6.29347E+03  2.97228E+04
 -1.51820E+04  2.28290E+04 -2.27748E+04  1.09951E+04 -3.01228E+04  2.08230E+03 -2.42842E+04 -1.25111E+04
 -9.66201E+03 -2.15218E+04  7.02982E+03 -1.75218E+04  2.03937E+04 -1.09343E+04  1.62144E+04  2.71382E+03
  9.82967E+03  1.21577E+04 -1.28660E+04  1.28237E+04 -1.22157E+04 -2.12663E+00 -1.41846E+04 -1.28834E+04
  1.75693E+03 -1.44504E+04  5.33871E+03 -1.00790E+04  6.50269E+03 -6.38162E+03  2.57762E+03  8.71460E+03
 -1.06113E+04  1.20946E+03 -4.24213E+03 -1.11642E+03  1.93515E+03 -1.48240E+04  4.40012E+03 -1.00157E+04
  1.74580E+04 -5.17396E+03  1.48991E+04  4.70734E+03  1.66699E+04  1.10374E+04  5.01386E+03  1.38092E+04
 -1.82704E+03  1.88928E+04 -1.03418E+04  1.37517E+04 -9.43160E+03  3.45519E+03 -4.70140E+03 -3.38233E+03
 -5.00723E+03 -5.93885E+03 -2.04860E+02  4.86370E+03 -3.18965E+03  1.40527E+03 -5.27560E+02  2.48598E+03
 -4.34975E+03 -2.49417E+03 -1.19825E+04 -3.94823E+03 -4.83744E+03 -8.59350E+03  5.60366E+03 -8.62999E+03
  1.06823E+04 -4.62094E+03  8.85969E+03 -3.56429E+03  1.85959E+03  9.92859E+02 -8.97321E+03 -3.60441E+03
 -5.61617E+03 -8.38183E+03  3.85345E+02 -6.99884E+03  4.00396E+03 -5.19492E+03  1.02389E+04 -4.60409E+03
  1.17238E+04  1.69682E+03  5.69334E+03  1.16461E+04  3.65379E+03  9.20014E+03 -2.52838E+03  8.40485E+03
 -1.06202E+04  7.49900E+03 -5.00129E+03 -4.74746E+03  3.05645E+03 -2.57398E+03  3.99453E+03 -1.74374E+03
  2.55719E+03  2.99273E+03  4.49197E+02  5.67330E+03 -6.06623E+03  5.44706E+03 -9.64182E+03 -2.99853E+03
 -8.14875E+03 -2.59995E+03  2.78819E+03 -6.53475E+03  4.17717E+03 -2.60082E+03  3.98299E+03  1.33719E+03
  2.23399E+02 -2.57704E+03 -3.98293E+03  6.85534E+03 -8.92400E+03 -8.16115E+02 -5.01798E+03 -4.72286E+01
 -3.23172E+03 -9.70730E+03 -1.67789E+02 -6.70203E+03  5.11927E+03 -3.30737E+03  1.10086E+04 -4.97836E+03
  9.46549E+03  7.53775E+03 -1.45418E+03  7.01896E+03 -6.09573E+03  6.78890E+03 -5.26040E+03 -2.31892E+02
 -3.88573E+03 -5.92070E+03 -2.70898E+03 -8.93100E+03  5.47654E+03 -7.61441E+03  7.33203E+03 -1.39923E+03
  5.98194E+03 -3.43537E+03  1.19666E+03  1.26450E+03  1.31727E+03  5.91926E+03 -1.47850E+03 -1.56427E+03
  5.62448E+03 -1.65848E+03  6.35325E+03  3.51967E+03  6.27321E+03  5.13696E+03  1.09081E+03  7.63147E+03
 -7.06033E+01  8.70143E+03 -5.88381E+03  7.57766E+03 -1.03366E+04  1.75146E+03 -1.11420E+04 -1.80362E+03
 -1.05553E+04 -9.86928E+03 -1.82254E+03 -3.37423E+03  3.54448E+03 -5.87204E+02  4.11478E+03 -5.27860E+03
  5.32895E+03 -2.11821E+03  1.43607E+03 -2.90165E+03  1.92161E+02 -6.29678E+03  2.40787E+03  1.49307E+03
  2.59987E+03  1.82949E+03 -3.01296E+03 -1.14220E+03  1.60020E+03  4.29401E+03 -4.44174E+03  8.91817E+02
 -8.06542E+03 -4.80208E+03 -4.00278E+03 -7.58486E+02  4.44184E+03 -3.71965E+03  2.47075E+03 -5.15279E+03
  9.52189E+03 -4.07660E+03  1.07000E+04  2.94584E+03  5.15353E+03  6.18958E+03 -1.37383E+02  9.48539E+03
 -2.10205E+03  5.44034E+03 -6.40836E+03  1.78882E+03 -7.31448E+03 -2.96584E+03 -6.58698E+03  4.30737E+02
 -2.89087E+03  1.23409E+03 -6.09450E+03  2.10105E+03 -7.84163E+01  1.32341E+03 -1.01145E+04 -1.75491E+03
 -8.27095E+02 -4.23507E+03  6.08815E+02 -9.64293E+03  3.28013E+03 -3.70551E+03  1.08116E+03 -7.27169E+02
  3.27063E+03  5.64740E+03  7.20151E+02  1.18459E+03 -2.16222E+03  9.11209E+02  1.20695E+02  1.76416E+03
 -3.09680E+03  9.75785E+02 -5.96206E+03 -6.05537E+03 -4.33278E+02  1.46162E+02 -3.66063E+03  2.81877E+03
  5.17650E+03  4.28821E+02  2.47076E+03  4.19410E+03  1.05086E+03 -3.91547E+02 -3.79944E+03 -1.99046E+03
  1.64298E+03  2.87876E+03 -1.71982E+03  9.67451E+02  2.32829E+03  5.05889E+02  1.74806E+02  2.09070E+03
 -3.70816E+03  9.40923E+02 -3.97487E+03  1.49198E+03 -3.42143E+03 -1.12160E+03 -4.46180E+03 -4.12339E+03
 -3.08676E+03 -1.83470E+03  1.93509E+03 -4.69673E+03  1.14148E+03 -4.46328E+03  5.53100E+03  5.10485E+03
  2.49165E+03  3.92893E+02 -1.78362E+03  3.80449E+03 -8.20069E+02  4.29146E+02 -4.24100E+03 -3.10426E+03
  1.74194E+03 -5.53784E+03 -2.72722E+03  7.75369E+02  3.54552E+03 -9.37043E+02 -1.75843E+03 -6.16812E+02
  3.51659E+03  3.53090E+03 -1.19296E+03 -4.07359E+03 -2.74455E+03  2.96639E+03  4.90001E+03  8.47338E+02
 -6.93108E+02  8.09565E+02  2.25663E+03 -5.67155E+02  4.30959E+02  6.22914E+03  1.18874E+03  5.84234E+03
 -1.61700E+03 -4.92943E+00 -2.59817E+03  1.05259E+03 -2.46087E+03  8.52024E+02  1.72440E+03  1.32399E+02
  6.13522E+02 -2.62583E+03 -1.49183E+03 -9.91469E+02  5.55597E+03 -1.55557E+03  2.11818E+03  4.58146E+01
 -1.70984E+02  4.12179E+02 -2.32165E+03 -2.32202E+03 -4.92628E+03 -6.00422E+03  1.59225E+02 -2.32531E+03
  4.46836E+03 -1.23425E+03  1.94130E+03  2.88488E+03  6.50045E+03 -2.07125E+03 -1.53413E+03  1.11731E+03
  1.96309E+02  1.85820E+03 -3.00201E+03  2.41467E+03  1.08010E+03 -4.53825E+03  2.03216E+03 -4.82503E+03
  3.77732E+03 -2.17935E+03  2.40952E+03 -1.64346E+03  1.21606E+03  4.07288E+03 -7.45329E+02 -1.33116E+02
 -6.19678E+02 -2.03759E+03 -4.18902E+03  1.01441E+03 -1.75369E+03 -4.01645E+03  2.30436E+03 -2.24728E+03
  2.68013E+03 -1.59898E+03 -4.17037E+03 -1.48584E+03 -2.98782E+02 -5.02659E+03  2.35368E+03  2.25877E+03
 -2.59969E+03 -2.17775E+03  1.87344E+03 -1.06139E+03  2.84673E+03  2.22349E+03  2.36564E+03  3.28453E+02
 -1.77304E+03  1.00034E+03 -5.24983E+03 -7.95601E+02  8.57714E+02  4.22876E+03 -2.29350E+03 -2.03255E+03
 -4.11675E+03 -2.21888E+02  6.57341E+03 -1.38809E+03  1.87896E+03 -4.26997E+03 -4.08554E+02  1.07903E+03
  4.01727E+03 -2.23080E+03  1.06272E+03  1.55819E+03 -4.70868E+03  1.90952E+03 -1.07943E+03  3.62893E+03
 -1.12379E+03 -3.44428E+03 -1.89100E+03  1.83360E+03 -1.25367E+03 -3.85433E+03  4.10734E+02 -2.58092E+03
 -3.47106E+03  3.58088E+03  3.22109E+02  1.60960E+03  1.85899E+01 -8.39646E+02  1.00669E+03 -2.13526E+03
 -7.11481E+02 -1.60544E+03  1.39446E+03  2.32212E+03  6.19448E+01  3.02056E+03 -2.08781E+03  3.73371E+03
  1.05605E+03  1.75533E+03  5.34026E+03  3.60208E+03  2.23902E+03  3.89695E+03 -2.24247E+03 -3.62191E+03
  8.30837E+02 -1.23647E+03 -1.52892E+03 -2.74506E+02 -2.42266E+03  1.00890E+03  9.62299E+02 -2.19951E+03
  4.30010E+02  5.48724E+02 -1.95076E+02  2.84172E+03 -1.15765E+03  3.16649E+03 -8.40602E+02  3.49170E+03
 -9.00747E+02  1.20386E+03 -5.05272E+03  1.59800E+03 -6.99369E+02 -5.46883E+03  4.92021E+02  4.43381E+03
  5.63947E+02 -1.20129E+03 -3.74077E+03  3.82576E+02  1.66965E+02  1.06989E+03  3.06195E+03 -4.61456E+03
  1.62961E+03  1.05089E+03  5.86779E+02 -6.42967E+03  3.37993E+03 -5.15035E+02 -3.71046E+03 -1.32124E+03
  3.32333E+03 -1.85902E+03 -1.44513E+03 -4.13133E+02 -3.33100E+03  1.42932E+03  6.01532E+02 -2.79832E+02
 -2.98829E+03  2.19079E+03  2.49679E+03  1.51404E+02 -3.20909E+03  5.59464E+02 -1.99724E+03 -8.90431E+02
 -6.36049E+01  5.56593E+02 -2.79438E+03  1.69561E+02  4.00173E+03 -1.49166E+03  3.49666E+03 -4.37628E+03
  3.01998E+02 -5.69692E+03 -4.57909E+03  2.72614E+03 -3.31104E+03 -5.75468E+02  1.11031E+03 -2.99034E+03
