 $NMID ID='MM_0lb_SNR50_14hz_g40_10.RAW', FMTDAT='(8E13.5)'
 TRAMP=1., VOLUME=1. $END
  3.06975E+05  1.24438E+02  3.41053E+05  2.50585E+05  8.21815E+04  3.37122E+05 -1.32193E+05  2.54985E+05
 -1.89021E+05  8.08164E+04 -1.13025E+05 -3.40154E+04 -5.93130E+03 -5.20252E+04  5.04531E+04 -7.05175E+02
  3.72810E+04  4.88602E+04 -1.68028E+04  7.26615E+04 -5.85856E+04  6.16916E+04 -8.20820E+04  3.31640E+04
 -7.74102E+04 -9.38392E+03 -5.64963E+04 -5.68551E+04 -1.16232E+04 -6.78849E+04  2.69343E+04 -4.50771E+04
  3.77162E+04  6.21325E+03  1.88718E+04  4.31432E+04 -3.61892E+04  4.61320E+04 -6.86146E+04 -1.50839E+02
 -5.16737E+04 -5.12500E+04 -3.80509E+03 -7.44150E+04  3.04463E+04 -5.21840E+04  5.03948E+04 -1.60273E+04
  4.56045E+04  1.51950E+04  3.43996E+04  2.58541E+04  1.90377E+04  3.36464E+04 -6.16380E+03  2.72170E+04
 -2.11417E+04  1.30010E+04 -1.61225E+04 -3.95389E+03  5.72732E+03 -1.09681E+04  1.98889E+04  1.39424E+04
  6.11680E+03  3.72982E+04 -3.00894E+04  3.18682E+04 -6.05988E+04  3.05702E+03 -5.70928E+04 -4.08098E+04
 -1.30385E+04 -6.17439E+04  4.23182E+04 -4.39100E+04  5.57442E+04 -4.22399E+03  3.55446E+04  3.00340E+04
 -2.81265E+03  3.68609E+04 -2.65380E+04  1.47554E+04 -3.07406E+04 -3.63193E+03 -1.51116E+04 -1.09471E+04
 -2.20683E+03 -1.35293E+04 -6.65846E+02 -1.91738E+04  9.28607E+03 -1.98775E+04  1.36870E+04 -1.31845E+04
  9.24026E+03  7.60893E+02 -1.11570E+04  1.16253E+04 -1.75634E+04 -1.83728E+03 -9.95457E+03 -2.95171E+04
  2.61803E+04 -4.04053E+04  5.00627E+04 -2.08299E+04  4.09336E+04  1.89331E+04  1.74390E+04  4.32923E+04
 -1.63077E+04  3.02160E+04 -2.48302E+04 -8.11642E+02 -1.14887E+04 -2.86049E+04  2.28311E+04 -3.34792E+04
  3.84148E+04 -1.26166E+04  3.80291E+04  2.44127E+04  1.70400E+04  4.46637E+04 -1.10204E+04  4.97848E+04
 -3.13308E+04  2.73065E+04 -3.86840E+04  8.84377E+03 -4.08583E+04 -1.87056E+04 -2.16732E+04 -3.56407E+04
  8.94510E+03 -3.94399E+04  2.96000E+04 -1.40593E+04  2.79992E+04  1.17815E+04  8.86093E+03  1.59617E+04
 -1.15045E+04  8.16560E+03 -9.73878E+03 -8.72992E+03  1.48535E+03 -1.19556E+04  1.99168E+04  5.05727E+03
  1.37182E+04  1.90438E+04 -7.38904E+03  2.69474E+04 -2.23208E+04  9.09302E+03 -2.26807E+04 -4.84489E+03
 -2.07640E+04 -1.89586E+04 -1.14193E+04 -1.90667E+04  3.60652E+03 -1.91432E+04  1.44284E+04 -1.49122E+04
  2.06805E+04 -1.17275E+04  3.25377E+04  5.10819E+03  1.99705E+04  2.28303E+04  2.36605E+03  3.54063E+04
 -2.04686E+04  2.68243E+04 -2.68772E+04  1.27251E+04 -2.04035E+04 -7.35520E+03 -5.32207E+03 -1.24977E+04
  7.87353E+03 -5.20469E+02  2.08025E+02  3.83000E+03 -1.99286E+04 -2.74162E+02 -1.55097E+04 -8.31365E+03
 -3.71494E+03 -1.67394E+04  1.00128E+04 -2.15211E+04  1.04961E+04 -1.40050E+04  1.38395E+04 -2.23911E+03
  1.41123E+04  1.08071E+04 -1.54634E+02  1.59331E+04 -1.88577E+04  1.00964E+04 -1.78953E+04  5.49120E+02
 -1.28936E+04 -1.03737E+04 -3.19258E+02 -1.95730E+04  9.21750E+03 -2.23450E+04  2.05669E+04 -1.12229E+04
  1.87446E+04  5.08116E+03  8.56144E+03  7.17684E+02  5.30030E+03  4.02447E+02  1.01906E+04 -9.23929E+02
  1.97429E+04  3.89807E+03  1.81000E+04  1.16823E+04  1.41978E+04  3.01667E+04 -2.80168E+03  3.59864E+04
 -2.02898E+04  2.64019E+04 -2.72746E+04  1.28897E+04 -3.17367E+04  2.12686E+02 -2.95233E+04 -2.01577E+04
 -1.32227E+04 -2.50757E+04  7.74264E+03 -2.24310E+04  1.66977E+04 -1.14022E+04  1.71334E+04  9.56634E+02
  5.22248E+03  1.65449E+04 -7.08669E+03  1.23200E+04 -1.72161E+04  1.60489E+02 -1.40726E+04 -8.60037E+03
 -3.74041E+03 -1.20367E+04  3.19530E+03 -8.16644E+03  6.41620E+03 -3.71819E+03 -2.08549E+03  7.30748E+03
 -6.99228E+03  8.85890E+03 -8.11774E+03 -3.05179E+03 -4.24469E+03 -7.97302E+03  8.84068E+03 -1.26406E+04
  1.52539E+04 -6.64165E+03  2.10469E+04 -3.51711E+03  1.21145E+04  1.20098E+04  5.08058E+03  1.35376E+04
 -4.60210E+03  2.33599E+04 -1.81577E+04  1.21064E+04 -1.35976E+04  7.46736E+03 -6.91294E+03 -7.40203E+03
 -3.60599E+03 -2.82230E+03  2.18141E+03  2.17086E+03 -2.92182E+02  7.60055E+02 -1.04163E+04  2.95190E+03
 -9.53650E+03  3.61056E+03 -1.37382E+04 -1.29636E+04 -1.90214E+03 -1.33321E+04  4.06265E+03 -7.63376E+03
  9.60734E+03 -9.50082E+03  8.85158E+03  4.95460E+03  2.34124E+03  3.00682E+03 -4.23569E+03  3.04226E+03
 -2.59538E+03 -8.97640E+03  7.96198E+01 -8.04147E+03  3.98345E+03 -1.02940E+04  1.33521E+04 -9.36409E+03
  1.73554E+04  1.42834E+03  1.41452E+04  1.39125E+04 -5.05678E+02  1.04900E+04 -9.53054E+03  1.18868E+04
 -1.06525E+04  1.20826E+03 -5.77766E+03 -2.68148E+03  2.01189E+03 -4.45365E+03  6.30125E+03 -2.35243E+02
  7.65725E+03  3.35523E+03  2.13666E+03  8.40665E+03 -3.09301E+03  7.83889E+03 -7.79765E+03  3.92196E+01
 -8.39311E+03 -4.58716E+03 -4.08645E+03 -9.05558E+03  6.92509E+03 -7.06811E+03  3.15478E+03  2.36838E+03
  3.03306E+03  5.51180E+03 -5.45389E+03  5.51334E+03 -8.85099E+03  1.43160E+03 -7.19886E+03 -1.87932E+03
 -6.84492E+03 -9.76441E+03  2.87055E+02 -9.50621E+03  1.09973E+04 -7.97895E+03  1.45426E+04  3.13029E+03
 -1.72885E+03  7.15529E+03 -2.82477E+03  8.44300E+03 -7.26329E+03  9.45689E+03 -8.88219E+03 -3.63054E+03
 -7.95591E+03 -8.41048E+03 -1.29126E+03 -7.17248E+03  3.71507E+03 -7.68964E+03  4.52161E+03 -5.97493E+03
  2.78116E+03 -8.98853E+02  8.03116E+02 -1.88659E+03  2.01828E+03 -3.06801E+03 -1.11897E+03 -8.99665E+03
 -1.14854E+03 -2.97231E+03  1.00350E+04  1.71669E+03  1.07179E+04  2.82030E+03  1.26836E+04  1.61625E+04
 -4.02246E+02  1.54921E+04 -1.13116E+04  1.17867E+04 -1.70584E+04  2.32277E+03 -1.46148E+04 -4.32075E+03
 -2.78532E+03 -7.95815E+03 -3.52761E+03 -7.53636E+03 -4.02459E+01 -1.79973E+03  3.04372E+03 -4.36237E+03
  9.81617E+02 -1.17349E+03 -9.42771E+02 -2.68781E+03  7.81835E+02 -5.06864E+03  5.43994E+03 -1.15926E+02
  4.00661E+03  1.11056E+03  3.94012E+03  9.37349E+03 -5.09544E+02  6.49687E+03 -6.20967E+03  3.41177E+03
 -1.13781E+04 -4.08991E+03 -7.87944E+03 -3.30925E+03  6.19108E+03 -7.61388E+03  7.33776E+03 -1.08321E+04
  7.61246E+03 -5.22000E+03  1.36424E+04 -1.12759E+03  5.88571E+03  6.12546E+03  1.83473E+03  1.64654E+04
 -5.67747E+03  1.06145E+04 -4.79611E+03  2.92878E+03 -3.64474E+03 -1.82868E+03 -7.46865E+03 -1.62775E+02
 -7.09591E+03  1.97966E+03 -1.57046E+03  7.58393E+02 -1.87775E+03  2.47254E+03 -7.19138E+03 -5.15604E+02
  2.29497E+02 -7.44630E+03 -6.02456E+02 -8.04643E+03  6.40352E+03 -6.69422E+03  7.87118E+03 -3.78841E+03
  6.25305E+03  6.86859E+03  7.55433E+03  1.32927E+03  2.48856E+03  1.45177E+04 -8.33651E+03  4.95393E+03
 -6.76132E+03 -4.70406E+03 -6.06990E+03 -7.93472E+03  1.42790E+03 -5.96233E+03  4.87294E+03 -3.02975E+03
  5.33052E+03 -1.11948E+02  5.73851E+03 -8.75135E+02  1.95888E+03  8.70256E+03  2.44044E+03 -3.01768E+03
  1.28034E+03 -3.23017E+03 -4.02685E+03 -5.58295E+03 -8.82193E+02  7.12356E+03 -3.76605E+01  3.16347E+03
 -3.10244E+03  1.08070E+04 -7.45127E+02  9.01981E+03 -7.03345E+03  3.23538E+03 -7.77798E+03  3.28594E+02
 -4.35103E+03 -7.22750E+03 -6.14263E+02 -7.18337E+03  4.89499E+03 -4.35272E+03  6.36723E+03 -7.56791E+02
  5.29291E+03  2.67277E+03  5.75565E+03  6.65895E+03 -3.21449E+03 -3.68655E+02 -5.22402E+03  2.13820E+03
  9.91572E+02  4.87900E+02  1.95888E+03 -4.36683E+03  3.98114E+02 -2.87302E+03  5.94601E+03  1.35521E+03
  3.30733E+03  1.00991E+03  1.10477E+03  5.73173E+03  2.90298E+02  7.21106E+03  4.75754E+03 -9.77818E+02
 -3.51948E+02 -5.79096E+03  4.87135E+03  5.55936E+03  4.86391E+02  9.48440E+03  1.34311E+02  7.02452E+03
 -4.82463E+03  1.06280E+03 -1.01049E+04 -1.23069E+03 -3.77526E+03 -6.07813E+01  6.31199E+02 -5.15850E+03
 -9.48634E+02 -1.89628E+03  6.65963E+03 -7.02657E+02  3.52162E+03  1.32336E+03 -5.35542E+03 -2.31503E+03
 -1.36656E+03  3.66467E+02 -8.69319E+03  4.26119E+02  8.35026E+02 -3.66851E+03 -1.63844E+03 -3.01035E+03
  1.54305E+03 -2.10344E+03  7.00582E+03  8.38456E+02  3.17439E+03 -1.91953E+03 -3.14809E+03  7.64726E+02
 -4.14227E+03  5.09996E+02  3.81902E+02 -1.64535E+03  5.24938E+03 -8.68639E+03  2.94612E+03 -3.66818E+02
  8.28306E+03 -5.48864E+02  2.62959E+03  2.12695E+03  3.96098E+03  6.81017E+03 -3.63718E+03 -1.62825E+02
 -6.14493E+03  2.37370E+03 -6.68022E+03  4.53651E+02 -1.25222E+03  1.03515E+03 -1.16676E+03 -4.36234E+03
 -6.13750E+02 -7.57424E+03  1.54563E+03 -6.09739E+02 -1.31990E+03  5.97866E+03  3.88700E+03  2.11799E+03
 -1.67941E+03 -4.07199E+02 -4.27262E+03  6.69635E+03 -8.97579E+02  2.19332E+03  1.42270E+02  5.22559E+03
 -9.89195E+02  1.09584E+03 -2.80400E+03  3.09422E+00 -7.74834E+03 -7.76370E+02 -5.83164E+03  3.33760E+02
 -7.07735E+03 -7.75070E+03 -4.55039E+03 -7.14601E+03  8.91563E+02 -2.75261E+03  7.06861E+03 -9.56764E+03
  7.06601E+03 -2.36985E+03  1.34441E+03  8.95935E+02 -7.19496E+03  3.29468E+03 -1.17277E+03  3.85326E+02
 -5.43583E+03  4.52349E+03  2.64864E+03 -3.58763E+03  1.86994E+03 -1.96784E+03 -2.33811E+03 -3.78233E+03
  2.79581E+02  3.28567E+03 -2.88311E+03  7.88090E+02  3.17286E+02 -3.52882E+03 -2.61082E+03 -3.06130E+03
  2.02366E+03 -1.30763E+03 -1.96505E+03  4.84559E+03  1.36557E+03 -1.31447E+03  9.76411E+02  3.49779E+03
  2.13902E+02  1.22070E+04 -7.45271E+03  2.00057E+03 -1.34944E+03 -2.37378E+03  3.27795E+02 -7.86447E+03
 -1.81848E+03 -6.15850E+03  2.87341E+03  1.03403E+03  5.55236E+03 -3.99296E+03 -2.60354E+02  3.14487E+03
  2.50271E+03  3.77941E+03  7.51913E+02  2.72884E+03  2.76175E+03  3.19445E+03 -4.42476E+02 -1.63020E+02
  2.85737E+03  2.41397E+03 -3.83667E+03  1.97992E+03  1.33185E+03  1.59415E+03  5.49583E+03  5.62968E+03
 -3.66429E+03  2.88704E+03 -1.57595E+02  1.46378E+02 -2.15876E+03 -1.07357E+03  1.67413E+03 -6.42400E+03
 -3.43019E+02 -2.31257E+03  3.89399E+03 -2.21749E+03 -2.87065E+03 -1.55637E+03  2.87845E+03  7.87256E+03
  4.28324E+03  4.10419E+01  1.25810E+02  2.59121E+03  2.13868E+02  7.25756E+02  5.39760E+03 -3.56081E+03
  3.63645E+03 -2.88919E+02 -3.10002E+03  1.49824E+02 -4.55091E+03  2.53491E+03 -3.08272E+02 -8.45809E+02
 -1.92300E+03  9.87072E+02 -2.27081E+03 -2.71588E+03  4.70363E+03 -3.12972E+03  2.21859E+03 -2.15120E+03
  1.31632E+03 -1.32330E+01 -2.40710E+02 -7.19504E+02  3.02495E+02 -1.86262E+03  1.92664E+02  4.81008E+02
