 $NMID ID='MM_0lb_SNR50_19hz_g60_73.RAW', FMTDAT='(8E13.5)'
 TRAMP=1., VOLUME=1. $END
  3.10171E+05  4.07931E+03  3.38403E+05  2.53355E+05  8.48658E+04  3.37219E+05 -1.33966E+05  2.47202E+05
 -1.88803E+05  8.66847E+04 -1.13773E+05 -3.11566E+04 -8.33878E+02 -4.85906E+04  5.15784E+04 -6.79187E+02
  3.08475E+04  5.12660E+04 -1.70038E+04  7.65926E+04 -5.81599E+04  5.87096E+04 -8.44787E+04  3.10011E+04
 -8.16246E+04 -1.19089E+04 -5.43276E+04 -4.84557E+04 -1.47499E+04 -7.16117E+04  2.45428E+04 -4.39612E+04
  3.88198E+04  3.09596E+03  1.53942E+04  4.66020E+04 -3.29953E+04  4.83749E+04 -6.78043E+04  2.48362E+03
 -4.89883E+04 -5.93979E+04 -5.82843E+03 -7.56638E+04  3.82543E+04 -5.51642E+04  4.57413E+04 -1.75009E+04
  3.99028E+04  1.35495E+04  2.66850E+04  2.61946E+04  1.56928E+04  2.96421E+04 -6.25080E+03  2.88084E+04
 -2.20727E+04  9.76045E+03 -1.75565E+04 -3.92181E+03  5.99548E+03 -1.01462E+04  1.89059E+04  1.23081E+04
  1.00415E+04  3.25857E+04 -3.31446E+04  3.22794E+04 -6.45248E+04  4.19166E+03 -5.88284E+04 -4.43516E+04
 -1.15524E+04 -6.29419E+04  4.10053E+04 -4.64110E+04  5.95766E+04 -8.29371E+03  3.22106E+04  3.63171E+04
 -1.25630E+04  3.42095E+04 -3.21303E+04  1.27808E+04 -2.92622E+04 -3.69460E+02 -1.39417E+04 -8.96396E+03
 -1.12424E+04 -1.10472E+04 -2.80870E+03 -2.08395E+04  6.89092E+03 -2.11851E+04  1.25340E+04 -1.72154E+04
  1.45515E+04  6.53661E+03 -7.66836E+03  6.68665E+03 -2.04008E+04 -3.96999E+03 -4.49673E+03 -3.29460E+04
  2.58839E+04 -3.72459E+04  4.37387E+04 -1.87415E+04  4.39939E+04  2.08284E+04  1.59261E+04  4.26005E+04
 -1.03395E+04  3.11989E+04 -2.45308E+04  4.12601E+03 -5.36761E+03 -2.92836E+04  2.28981E+04 -3.65678E+04
  3.58555E+04 -6.94160E+03  3.51157E+04  2.43849E+04  1.74753E+04  4.42560E+04 -7.57649E+03  4.75485E+04
 -2.93744E+04  3.30187E+04 -3.56497E+04  1.03616E+04 -4.01148E+04 -1.47048E+04 -2.51308E+04 -3.47308E+04
  9.05617E+03 -3.71377E+04  2.94711E+04 -7.14555E+03  2.72586E+04  1.44892E+04  4.02913E+03  2.23603E+04
 -1.54844E+04  4.15755E+03 -9.34856E+03 -2.75734E+03  5.96106E+03 -1.09045E+04  1.71531E+04  8.22482E+03
  1.56657E+04  2.42224E+04 -6.15500E+03  2.62593E+04 -1.87821E+04  1.09492E+04 -2.76842E+04 -7.66552E+02
 -1.91214E+04 -1.48453E+04 -6.86334E+03 -1.81740E+04  6.34930E+03 -1.74066E+04  1.58841E+04 -1.77822E+04
  2.34844E+04 -1.23560E+04  2.65661E+04  2.42619E+03  2.31731E+04  2.31173E+04  2.44990E+03  3.44374E+04
 -1.68328E+04  2.66359E+04 -2.51108E+04  5.74167E+03 -1.68678E+04 -1.37318E+04  5.94662E+02 -1.38082E+04
  1.37091E+03 -2.70387E+03 -1.25447E+03  7.25224E+03 -1.28146E+04  2.43557E+03 -1.39622E+04 -5.17964E+03
 -8.97937E+03 -1.61169E+04  1.34495E+03 -1.88283E+04  1.24917E+04 -1.56265E+04  1.68805E+04  3.13692E+03
  9.99304E+03  6.89737E+03 -1.07885E+03  1.82555E+04 -7.76009E+03  5.23452E+03 -1.50785E+04  1.62770E+03
 -1.37461E+04 -1.74180E+04 -1.07303E+03 -1.99335E+04  1.02597E+04 -1.44307E+04  1.64863E+04 -6.24415E+03
  9.32448E+03 -1.15934E+03  9.92746E+03  5.80442E+03  3.63428E+03  2.85512E+03  5.37772E+03 -1.23425E+03
  1.58175E+04  9.43186E+02  1.75924E+04  1.46061E+04  1.22819E+04  2.75142E+04 -5.99738E+03  2.66330E+04
 -1.56644E+04  1.56447E+04 -2.47380E+04  9.70631E+03 -2.65148E+04 -2.35210E+03 -2.21712E+04 -1.45666E+04
 -9.76963E+03 -2.07701E+04  7.26951E+03 -2.26839E+04  1.85713E+04 -9.16148E+03  1.93140E+04  6.92736E+03
  9.97476E+03  1.32645E+04 -7.94224E+03  1.17990E+04 -1.18329E+04  4.18900E+03 -8.30219E+03 -7.57179E+03
 -1.41004E+03 -1.03530E+04  4.34318E+03 -1.05495E+04  9.85177E+03 -4.16102E+03  2.52823E+03  6.30500E+03
 -4.73717E+03 -2.38960E+03 -3.15612E+03 -4.49029E+03 -1.01934E+03 -1.02757E+04  1.15155E+04 -9.72779E+03
  1.62868E+04 -4.35288E+03  1.42383E+04 -1.43587E+03  7.13044E+03  8.39248E+03  9.78335E+03  1.64058E+04
 -4.67948E+03  2.11466E+04 -1.10668E+04  1.09837E+04 -1.30372E+04 -1.08099E+03 -3.81326E+03  6.03962E+02
 -3.83791E+03  9.99792E+02 -6.40522E+01  1.01363E+03 -2.29098E+03  3.09891E+03 -4.27360E+03 -9.97267E+02
 -1.12005E+04 -1.42576E+03 -9.56190E+03 -7.34206E+03 -4.69993E+03 -1.23628E+04  6.31931E+03 -8.82836E+03
  4.85897E+03 -2.19482E+03  7.58320E+03  1.37197E+03  2.26706E+03  5.59469E+03 -5.64204E+03  3.20826E+03
 -4.68882E+03 -2.84063E+03 -6.40293E+02 -3.27557E+03  5.14164E+03 -9.71804E+03  1.32636E+04 -6.20067E+03
  1.00515E+04  8.96961E+02  6.73206E+03  7.97684E+03 -5.17745E+02  9.60316E+03 -4.26520E+03  3.63785E+03
 -8.32623E+03  1.82650E+03 -7.64584E+02 -3.77120E+03  1.08302E+03 -1.10084E+02  6.28653E+03  4.03385E+02
  6.77974E+03 -4.12682E+02  2.42332E+03  9.83118E+03 -1.43699E+03  5.41467E+03 -9.76587E+03 -1.29421E+03
 -3.67671E+03 -6.75740E+03  2.55214E+03 -2.09500E+03  4.64430E+03 -8.17118E+03  5.02083E+03  3.19194E+03
 -2.64763E+03 -8.62047E+02 -1.37218E+03  4.10649E+03 -7.56880E+02 -3.90498E+02 -6.86361E+03  3.86822E+03
 -3.86628E+03 -7.64402E+03  1.20351E+02 -1.07544E+04  4.64028E+03 -3.59756E+03  1.50144E+03  2.75690E+03
  3.96259E+03  8.04676E+03 -1.66262E+03  6.42861E+03 -6.65676E+03  2.61183E+03 -5.42544E+03  5.57093E+02
 -5.58799E+03 -5.37029E+03 -2.28398E+03 -4.92767E+03  5.65648E+03 -4.67268E+03  8.74924E+03 -1.23158E+03
  5.60400E+03 -1.32259E+02  6.68047E+02  3.10820E+03 -3.81621E+02 -6.27131E+02 -2.70717E+03 -1.56263E+03
  9.19675E+03  3.02441E+02  8.34697E+03  5.90691E+03  3.39612E+03  2.13139E+03  8.89086E+03  5.65120E+03
 -2.54954E+03  8.50236E+03 -9.89906E+03  4.26547E+03 -7.24404E+03  2.25761E+03 -4.37636E+03  3.00408E+03
 -2.87396E+03 -7.22652E+03  1.40651E+03 -6.58309E+03  4.03841E+03 -4.54700E+03  4.69059E+03  2.44202E+03
  2.24111E+03 -4.21138E+03  2.55530E+03 -1.26518E+03  5.04019E+03 -3.45713E+02  6.13316E+03 -2.92490E+02
  5.90445E+03  2.46788E+03  2.02457E+03  6.15270E+03 -3.71931E+03  3.11389E+02 -3.75135E+03  6.76536E+03
 -6.23823E+03  1.97247E+02 -1.84755E+03 -6.10369E+03  2.95922E+03 -6.67393E+03 -8.46183E+02 -2.88407E+03
  8.54822E+02 -2.07483E+03  3.00393E+03 -1.53806E+03  5.27779E+03  5.75461E+03 -5.63884E+02  7.12996E+03
 -2.85408E+03  3.73335E+03 -4.55998E+03  3.76515E+03 -2.65611E+03 -1.42810E+03  8.68206E+02 -1.30609E+03
 -2.30663E+03 -3.23415E+02  1.03274E+03  5.11228E+03 -6.95266E+03 -5.83518E+02 -3.61788E+03 -2.48775E+03
  7.98783E+02 -6.35745E+03  9.61688E+02 -7.79967E+03  3.66159E+03  5.61926E+02  6.09724E+03 -3.10247E+03
  7.18666E+03  2.14823E+02 -1.25894E+03 -5.00939E+01 -2.51254E+03  5.51729E+03 -5.53369E+03  3.19823E+03
 -2.26825E+03  4.42131E+03 -5.66724E+03 -1.42189E+03 -1.02874E+03 -3.25397E+02  5.29664E+02 -1.98200E+03
  5.53388E+03 -4.34811E+03  2.36380E+03  2.64590E+02  1.57060E+03 -8.76738E+02  1.25626E+03  1.87582E+03
  1.20246E+03 -1.51559E+03  1.08757E+03  2.22859E+03  1.38726E+03 -1.28104E+03  7.44786E+01  1.87476E+03
 -3.68660E+03  9.19787E+03 -6.81274E+03  4.86401E+03 -5.22585E+03  7.99298E+02 -3.11759E+03 -1.89363E+03
  8.38217E+01 -2.27995E+03 -5.92820E+02 -7.11738E+03  1.66017E+03 -1.54661E+02  2.22609E+03 -4.51699E+02
  5.20538E+03  1.53269E+03  3.80727E+02  8.17072E+02  1.81181E+03  3.28832E+03 -2.91243E+03  1.30399E+03
 -2.60848E+03 -5.40385E+03  1.45797E+03 -3.05587E+03 -1.51966E+03 -2.41404E+03  1.27506E+03  2.15667E+03
 -7.33703E+02  2.36196E+02  9.10725E+02  1.91361E+03  8.37782E+02 -1.10865E+03 -3.67357E+03 -1.94959E+03
 -4.54002E+03 -1.17325E+03  5.99659E+03 -1.23109E+03  4.57759E+02  3.04606E+03  2.86116E+03  3.02352E+03
  9.51561E+01  7.28167E+02 -2.69020E+03  2.53629E+03  1.86000E+03  1.94328E+03  3.81958E+03  6.71734E+02
  4.45839E+03 -1.93038E+03 -3.08761E+03  1.30308E+03  1.36166E+03  5.45057E+03 -1.18995E+03 -3.80247E+03
  1.85053E+03  1.04240E+03 -6.28575E+03 -6.59190E+02 -2.64955E+03 -6.72185E+03 -1.46107E+02 -3.47602E+03
  2.71296E+03 -3.79686E+03  3.92664E+03 -2.08870E+03  3.48713E+03 -1.31456E+03 -7.92985E+03  4.23368E+03
  2.26612E+03  2.21516E+03 -4.77771E+03 -3.46929E+03 -1.87922E+03  8.62231E+02  2.80206E+03 -2.17716E+03
 -3.38389E+02  2.62235E+03  4.53175E+03 -3.63475E+03  2.30496E+03  3.45878E+03  4.96681E+03  4.26749E+03
 -1.41599E+03 -1.78523E+03 -4.55944E+02 -3.57448E+03  4.08121E+03 -1.44002E+03  2.26073E+03  2.56466E+02
  9.87774E+02  1.49311E+03 -2.06974E+02 -2.72074E+03  6.57308E+02  2.12608E+03 -1.90665E+03  7.66723E+02
 -2.66474E+02  5.13234E+03 -2.98912E+03  1.95423E+03 -3.75883E+03  4.97099E+03 -1.02306E+03  4.80407E+03
  2.26094E+03  2.82578E+03 -2.41452E+03  5.42533E+02  1.20452E+03  5.56553E+03 -3.82625E+02 -1.62088E+03
  5.14735E+02 -7.69814E+03  3.05000E+03 -7.03177E+03  7.19131E+02  2.01946E+02  1.19357E+03 -1.89696E+03
 -2.36609E+03  2.07712E+03 -2.70681E+03  1.37772E+03 -2.60311E+03 -3.91665E+02 -1.67157E+03  1.77785E+03
 -5.83979E+03  7.27769E+02  5.65432E+02 -2.23764E+03  1.32801E+03  5.17789E+02 -2.69942E+03 -2.01759E+03
  9.22207E+02  3.21007E+03 -1.57713E+03  3.18986E+02  5.99741E+02  1.06009E+02  1.11766E+02 -2.38666E+03
  1.77651E+03 -7.25331E+02 -1.95597E+03  1.29176E+03  2.60595E+03  2.88488E+03 -1.89511E+03  5.94326E+03
 -1.59351E+03 -2.60649E+03  1.36453E+03  4.72787E+03 -4.89276E+03 -7.77419E+02  1.89729E+03 -3.36777E+03
 -1.41523E+03  1.90119E+02  5.25173E+03 -4.67726E+03  3.52937E+03  2.27566E+03  2.11432E+03  6.89457E+02
  2.43050E+03 -2.03950E+03 -7.29281E+02 -9.22955E+02 -7.45172E+02  2.74673E+02  6.76160E+02 -1.65184E+03
  2.08540E+03  1.10115E+03  1.29578E+03 -1.87428E+03  3.00241E+02  2.32250E+01  6.89759E+02 -9.52703E+02
  1.34229E+03  3.96798E+02 -3.64810E+03 -4.43409E+03  8.42723E+02  2.62414E+01 -2.25325E+02 -4.38262E+03
  1.13999E+03  6.34656E+02  4.27569E+03  2.29498E+03 -1.31857E+03 -5.65303E+03  3.64273E+03  2.96771E+03
  4.42870E+02  1.09672E+02  4.06078E+03 -1.19827E+03  4.00849E+02 -3.73881E+03  1.07461E+01 -2.25894E+03
 -2.50113E+03  3.18985E+02 -3.66157E+03 -2.65372E+03 -1.98975E+03 -4.40941E+02  2.79828E+03 -1.45658E+03
  1.21625E+03  3.76908E+03  6.72300E+02 -2.00915E+03 -1.45872E+03  2.19939E+03  1.48879E+03  1.91000E+03
  2.74333E+03 -6.34127E+03  5.18690E+03  2.99148E+03  8.80652E+02 -8.76510E+02  1.78557E+03  4.63184E+03
