 $NMID ID='MM_0lb_SNR50_20hz_g40_29.RAW', FMTDAT='(8E13.5)'
 TRAMP=1., VOLUME=1. $END
  3.10224E+05 -5.45379E+02  3.38948E+05  2.50102E+05  8.47185E+04  3.37821E+05 -1.32956E+05  2.45896E+05
 -1.90823E+05  8.34562E+04 -1.12954E+05 -3.63149E+04  3.36195E+03 -4.81564E+04  5.49305E+04  1.15941E+03
  3.45260E+04  5.54403E+04 -1.46601E+04  7.25319E+04 -6.01842E+04  6.25918E+04 -8.32768E+04  3.11582E+04
 -7.30678E+04 -1.07150E+04 -5.68034E+04 -4.81423E+04 -1.13053E+04 -6.44147E+04  2.71965E+04 -4.39237E+04
  3.99245E+04  4.85274E+03  1.49918E+04  4.46374E+04 -3.29519E+04  4.70381E+04 -6.74673E+04  1.98556E+03
 -4.96358E+04 -5.28589E+04 -7.42124E+03 -7.34259E+04  2.95456E+04 -5.31102E+04  4.08140E+04 -1.67656E+04
  4.39087E+04  1.36754E+04  2.90171E+04  2.67893E+04  1.84773E+04  2.89964E+04 -5.39222E+03  2.63759E+04
 -2.21966E+04  1.55497E+04 -2.00054E+04 -2.44056E+03  4.17275E+03 -1.02669E+04  1.70277E+04  1.34587E+04
  5.71454E+03  3.08698E+04 -3.12506E+04  3.01735E+04 -5.71620E+04  7.90806E+03 -5.98850E+04 -3.90088E+04
 -1.15150E+04 -5.33413E+04  3.87246E+04 -3.98192E+04  5.42547E+04 -2.44028E+03  3.34768E+04  2.86191E+04
 -4.88036E+03  2.69624E+04 -2.68908E+04  1.25115E+04 -2.45558E+04 -1.01117E+04 -1.21134E+04 -7.31634E+03
 -4.00255E+03 -1.50178E+04 -5.28773E+03 -1.91043E+04  5.43954E+03 -2.24181E+04  1.43836E+04 -1.75517E+04
  1.15896E+04  2.42299E+03 -5.80161E+03  1.20259E+04 -1.91948E+04  1.87962E+03 -6.16471E+03 -2.66779E+04
  1.57694E+04 -3.83554E+04  4.03225E+04 -1.40552E+04  4.00524E+04  1.22602E+04  1.38380E+04  4.04114E+04
 -1.30193E+04  2.92747E+04 -2.58673E+04  5.33186E+03 -8.59639E+03 -2.52882E+04  2.12871E+04 -3.20793E+04
  3.41886E+04 -4.95655E+03  2.96067E+04  2.20674E+04  1.68168E+04  4.06119E+04 -1.13792E+04  4.08222E+04
 -2.62260E+04  2.73656E+04 -3.66369E+04  1.11445E+04 -3.53332E+04 -1.61873E+04 -1.99565E+04 -3.45786E+04
  4.13934E+03 -3.62647E+04  2.82408E+04 -7.35357E+03  2.69217E+04  1.13962E+04  2.60249E+03  1.93103E+04
 -8.04593E+03  7.74819E+03 -6.97592E+03 -7.09117E+03  7.75376E+03 -9.45497E+03  1.56498E+04  6.66680E+03
  1.14314E+04  2.07266E+04 -6.48340E+03  2.16333E+04 -2.28296E+04  9.68668E+03 -2.37404E+04 -6.16136E+03
 -1.67230E+04 -1.74812E+04 -6.14138E+03 -1.37307E+04  5.68351E+03 -1.38896E+04  1.04358E+04 -1.38961E+04
  1.60967E+04 -1.53174E+04  2.51304E+04 -3.50802E+03  1.68098E+04  1.46346E+04  4.38894E+03  3.02180E+04
 -1.31121E+04  2.46521E+04 -2.59634E+04  6.55359E+03 -1.91707E+04 -1.09377E+04 -1.86559E+03 -1.52166E+04
  2.14655E+03 -4.56807E+03 -1.24696E+03  5.28715E+03 -1.09839E+04  4.81025E+03 -8.31589E+03 -2.85656E+03
 -9.86512E+03 -1.39440E+04  2.07935E+03 -1.72187E+04  7.93784E+03 -1.53854E+04  1.43871E+04  7.98954E+02
  1.05812E+04  8.08572E+03  5.85697E+03  1.50294E+04 -9.04054E+03  7.45356E+03 -1.29983E+04 -4.41877E+03
 -1.44920E+04 -1.46154E+04 -3.11632E+03 -1.83869E+04  8.88264E+03 -1.32314E+04  1.58049E+04 -8.24705E+03
  1.28319E+04  9.00438E+01  8.92067E+03  3.74176E+03  1.30691E+03  9.07482E+01  2.73134E+03 -2.22240E+03
  1.83114E+04  4.26813E+03  9.54633E+03  1.15796E+04  7.91435E+03  2.49968E+04 -6.72253E+03  2.22753E+04
 -1.32606E+04  1.83246E+04 -2.10315E+04  9.13697E+03 -1.78662E+04 -1.83024E+02 -1.84886E+04 -8.58399E+03
 -9.18329E+03 -1.75787E+04  3.15450E+03 -2.22198E+04  1.10464E+04 -1.11458E+04  1.02146E+04  1.92087E+03
  6.97664E+03  1.16734E+04 -7.18354E+03  5.99419E+03 -1.35459E+04  4.69534E+03 -7.30323E+03 -6.14910E+03
 -6.98190E+01 -1.05419E+04  5.84023E+03 -1.05632E+04  8.32826E+03 -3.52595E+03 -4.33434E+02  3.16229E+03
 -4.21742E+03  6.81311E+03 -1.29968E+02 -1.33455E+03 -6.17184E+02 -1.14793E+04  7.09203E+03 -1.04250E+04
  1.53229E+04 -7.50398E+03  9.30615E+03  5.18855E+02  5.56037E+03  8.10425E+03  4.75762E+03  9.05281E+03
 -2.52314E+01  1.56054E+04 -8.61694E+03  4.45906E+03 -8.28406E+03  1.49849E+03 -6.02859E+02  1.18673E+03
 -7.74472E+03 -4.39581E+03 -1.50668E+03  3.94743E+03 -1.36183E+03  2.35461E+03 -5.98295E+03  2.91477E+03
 -8.31271E+03 -1.01902E+03 -7.64454E+03 -8.46633E+03 -4.48974E+03 -1.15368E+04  6.93661E+03 -6.82064E+03
  3.81331E+03 -3.31945E+03  1.17824E+04  2.28309E+03 -1.15214E+03  5.27096E+03  1.48162E+03 -1.42992E+03
 -3.77684E+03 -1.24591E+03  3.39648E+02 -7.49699E+03  3.44586E+03 -1.07394E+04  6.45642E+03 -2.82701E+03
  1.01636E+04 -6.05330E+02  1.04240E+04  5.38706E+03  7.66669E+03  9.15348E+03 -5.33520E+03  8.82680E+03
 -6.41321E+03  9.95798E+02 -3.74501E+02  2.54149E+03 -6.14676E+02 -1.11503E+03  1.33521E+03 -3.84819E+02
  4.30889E+03  1.76548E+03  1.63141E+03  6.98322E+03 -2.15541E+03  4.32208E+03 -4.01227E+03  4.51445E+03
 -4.72024E+03 -5.43641E+03  3.53051E+03 -4.63479E+03 -2.06109E+03 -4.07472E+03  1.54008E+03  2.88354E+03
  2.49714E+03  2.54627E+03 -5.65613E+03  2.32976E+03 -7.37653E+03  5.41505E+03 -1.26799E+03 -1.95406E+03
 -5.00735E+03 -3.69772E+03  3.93574E+03 -6.57564E+03  7.34721E+02 -4.03917E+03  5.09550E+03  2.98778E+03
  1.76543E+03  3.08077E+03  1.74840E+03  1.46124E+03 -3.46258E+03  4.70242E+03 -3.64112E+03 -2.73892E+03
  3.47034E+02 -4.34368E+03 -3.52205E+02 -3.10808E+03  1.57746E+03 -3.34971E+03  3.83217E+03 -2.53027E+03
  1.26095E+02 -2.82276E+03  3.58184E+02  2.83433E+03  6.53156E+02  2.62025E+03  1.39430E+03  2.68504E+02
  2.10705E+03 -3.97718E+02  5.35732E+03  6.36338E+02  2.60939E+03 -2.15325E+03  5.27553E+03  6.09039E+03
  5.12370E+01  4.21312E+03 -2.33018E+03  4.11017E+03 -8.27031E+03 -2.14561E+03 -5.40815E+03 -3.72748E+03
 -2.81487E+03 -3.67022E+03 -3.84603E+02 -2.96111E+03  5.24394E+03 -2.19151E+03  1.64425E+03 -4.66712E+03
  1.72553E+03 -1.85227E+03  4.13276E+03  3.49445E+02  5.17991E+03 -4.80657E+01  1.24873E+02  2.74286E+03
  7.29873E+03 -8.44393E+02 -1.45183E+03  4.89934E+03 -4.87926E+02  3.65693E+03 -3.78215E+03  1.15314E+03
 -2.49282E+03 -1.39577E+03  9.94081E+02 -1.33281E+03  7.90637E+02 -1.99139E+03  1.17757E+03 -3.24523E+03
  4.55728E+03 -4.69678E+01  2.90666E+03  1.23453E+03  2.37237E+03  5.03594E+03 -4.42647E+02  1.28002E+03
 -3.28773E+03  4.44597E+03 -3.67770E+03  6.96317E+03  1.21740E+03 -7.57732E+02 -1.85578E+03 -8.08243E+01
  2.26220E+03  6.63837E+03 -2.87989E+03 -2.87653E+03 -1.74545E+03 -2.10881E+03 -1.65909E+03  5.47429E+02
  2.06985E+03 -4.17695E+03  1.55597E+03 -2.75351E+03 -1.38822E+03 -3.44550E+03  5.38588E+03 -1.19690E+03
  4.85337E+03  9.54893E+02 -1.73883E+03  1.09039E+03 -1.02928E+03  2.90531E+03 -3.70170E+03  5.78052E+03
  2.32945E+03 -8.99346E+00 -4.31153E+03  1.56148E+01  7.64482E+02 -1.48965E+02  3.16251E+03 -5.72856E+03
 -5.56251E+02 -2.51979E+03 -2.67854E+03 -1.33381E+03  3.09102E+03  4.32583E+03  3.67664E+03  1.07116E+03
  1.53491E+03  3.16047E+02  5.64265E+03 -1.48166E+03 -2.01841E+03  6.04298E+03  1.96863E+03  4.71386E+03
  3.57676E+02  2.60246E+03  5.04508E+02  1.54581E+03 -2.76361E+03  2.05613E+03 -9.02677E+03  3.16281E+03
 -1.07042E+03 -1.49530E+03  2.85086E+03 -2.16745E+03 -8.78560E+02 -2.52186E+03 -1.42746E+03 -4.03922E+02
  2.45526E+02  2.18353E+03  2.47685E+03  1.68156E+03  3.78828E+02  5.22514E+03 -1.65957E+02  1.98561E+03
 -1.25555E+03 -6.55826E+02  2.53530E+03 -1.32193E+03  4.81983E+03  1.02899E+02 -2.25610E+03  1.88317E+02
  2.33293E+02 -1.15765E+03 -5.45776E+03  3.77025E+03 -6.80164E+02  3.90782E+02 -1.10327E+03  3.92599E+03
 -8.16695E+02 -2.73384E+03  4.07412E+03 -1.46290E+03  1.56610E+02  1.32963E+03  3.73649E+03  6.71976E+02
 -2.49772E+03  4.11329E+03  1.62059E+03 -3.62545E+02  4.01815E+01  1.92052E+02  8.75728E+02 -3.01654E+03
  4.44012E+03 -3.13421E+03  2.57096E+03  6.61746E+02  1.43916E+03 -1.86157E+03  1.19271E+03  2.62545E+03
  2.13288E+02  1.98191E+03  2.74330E+02 -2.33984E+03  1.06890E+03 -8.21707E+02  2.64156E+03  2.51259E+03
 -3.42889E+03 -1.94745E+02 -1.51193E+03  4.16902E+03  3.44470E+03  4.05054E+02 -1.42683E+03 -3.16430E+03
  1.42389E+03  1.07154E+03 -2.40748E+03  2.96710E+03  7.96528E+02  2.30248E+03  1.91861E+03  2.78994E+03
  5.64052E+03  3.58782E+02  3.73724E+03  4.64630E+01  3.13317E+03  3.86515E+03  2.18045E+03  3.94729E+03
  1.85576E+02  1.22131E+03  1.56728E+03 -3.37636E+02  1.12044E+03 -9.93959E+02 -1.26135E+03  1.35366E+02
  4.38672E+03  4.28339E+03 -3.75553E+03  3.84120E+03  2.50083E+03 -2.08031E+03 -4.40899E+03  5.35034E+01
 -3.50958E+03 -1.14557E+03 -2.15757E+03 -7.95806E+02 -1.13155E+03  2.32560E+03 -3.20579E+03  1.19911E+03
  2.02901E+03  1.25112E+03 -2.81559E+03  2.22476E+03  8.03860E+02  5.84959E+02 -2.28894E+03 -2.26784E+03
  6.69578E+02 -8.29524E+02 -2.71739E+03 -1.28628E+03 -1.12377E+03 -9.54440E+02  1.64211E+03 -1.33466E+03
  3.84480E+03  5.28664E+03  1.76004E+03  6.71328E+02  2.91548E+03 -6.31220E+02 -2.91675E+02  4.08309E+02
 -6.91660E+02 -1.76912E+03 -3.08216E+03 -7.58891E+03 -3.00487E+03 -2.72471E+03  4.56832E+01  3.46814E+02
 -1.79079E+03 -4.42256E+03  4.28125E+03 -2.71320E+03 -1.50419E+01 -2.16067E+03  1.59856E+02  3.12035E+02
 -1.04485E+03  2.83547E+03  5.51243E+02  2.55675E+03  3.25192E+03  1.36119E+03 -1.25954E+03  2.32108E+03
  8.87203E+02  3.80168E+03 -4.08777E+03  2.02476E+03 -2.55067E+03 -6.14740E+02  1.50741E+03 -7.11107E+03
 -2.45238E+03  6.27542E+01 -2.01726E+03 -5.59373E+03  4.53827E+03 -1.65187E+03  4.76212E+02  4.55048E+03
  5.51023E+02  3.11891E+03  1.00815E+03 -3.94048E+02 -1.22414E+03 -2.23138E+03 -3.87912E+01  1.21563E+03
 -3.34057E+03  2.40307E+03 -5.71598E+02 -1.32503E+03 -2.85171E+03 -3.12845E+03 -1.99381E+03  2.99779E+02
 -1.50715E+03  1.18832E+02  1.33860E+03 -1.45293E+03 -6.53509E+03  9.01592E+02  4.95307E+02  2.89885E+02
 -9.14734E+02  1.28679E+03  6.78949E+03  8.07217E+02  5.29354E+03 -5.80366E+03  2.71742E+02  3.63875E+02
 -1.67169E+03 -1.46323E+03  6.21123E+03 -2.15288E+02 -2.42050E+03  3.54600E+02 -2.41446E+03  2.41331E+03
 -3.54598E+03  6.98183E+00  1.54069E+03 -2.80842E+03  1.02273E+03 -4.44525E+02 -1.61542E+03  9.90171E+02
 -1.98928E+03  1.08632E+03 -2.03758E+02  2.86779E+03 -9.63681E+02 -2.09383E+03  6.61232E+02  2.00532E+03
 -1.14416E+03  1.36470E+02  4.38179E+03 -1.69250E+03  2.82448E+03 -1.95136E+03  2.47488E+02  1.92837E+03
