 $NMID ID='MM_0lb_SNR50_19hz_g40_65.RAW', FMTDAT='(8E13.5)'
 TRAMP=1., VOLUME=1. $END
  3.08324E+05 -4.85361E+03  3.38547E+05  2.57356E+05  8.13889E+04  3.34258E+05 -1.32451E+05  2.50417E+05
 -1.87809E+05  8.44500E+04 -1.13648E+05 -3.33693E+04  2.45151E+03 -5.30845E+04  5.59322E+04  2.67801E+03
  3.87726E+04  5.12682E+04 -1.66689E+04  7.15305E+04 -6.24794E+04  6.47304E+04 -8.29066E+04  3.12483E+04
 -8.10681E+04 -1.14575E+04 -5.70695E+04 -4.97839E+04 -1.51794E+04 -6.95945E+04  2.74027E+04 -4.16763E+04
  3.76941E+04  3.53078E+03  1.77126E+04  4.35844E+04 -3.63769E+04  4.91375E+04 -6.03741E+04 -2.14276E+03
 -5.01506E+04 -5.54214E+04 -8.30034E+03 -7.70233E+04  3.30170E+04 -4.98077E+04  4.57076E+04 -1.60647E+04
  4.30804E+04  9.94427E+03  3.05947E+04  2.09639E+04  1.60221E+04  2.44910E+04 -4.24936E+03  2.93549E+04
 -2.24986E+04  1.04216E+04 -1.70162E+04 -5.74809E+03  3.50858E+03 -9.31001E+03  2.24934E+04  7.89523E+03
  7.51088E+03  3.15516E+04 -2.50900E+04  3.04718E+04 -6.13439E+04  3.96081E+03 -5.83867E+04 -3.88046E+04
 -1.53074E+04 -5.91808E+04  3.58860E+04 -4.23806E+04  5.36700E+04 -3.43308E+03  3.38966E+04  2.87544E+04
 -6.47093E+03  3.14885E+04 -2.99290E+04  1.42317E+04 -2.67832E+04 -7.20521E+03 -1.31646E+04 -7.36253E+03
 -4.19185E+03 -1.11061E+04  6.25432E+03 -1.53039E+04  8.82364E+03 -2.29630E+04  1.69991E+04 -1.05580E+04
  1.17427E+04  5.87990E+03 -3.84531E+03  1.46894E+04 -1.91241E+04 -3.73091E+02 -8.43921E+03 -2.71725E+04
  2.34536E+04 -3.78707E+04  4.44322E+04 -1.85716E+04  4.25257E+04  1.98038E+04  1.34964E+04  4.16009E+04
 -1.49191E+04  3.20388E+04 -2.60559E+04 -2.29900E+03 -9.54656E+03 -2.43769E+04  2.09832E+04 -3.11702E+04
  3.90974E+04 -9.09349E+03  2.97344E+04  2.07412E+04  1.14895E+04  4.47920E+04 -1.08012E+04  4.62619E+04
 -2.95538E+04  2.97766E+04 -3.83325E+04  5.12221E+03 -3.78840E+04 -1.14806E+04 -1.86735E+04 -2.80726E+04
  1.08263E+04 -3.57846E+04  2.76754E+04 -1.12619E+04  2.50229E+04  1.05676E+04  5.98286E+03  1.47224E+04
 -8.72819E+03  7.45845E+03 -7.44051E+03 -4.53172E+03  4.89685E+03 -9.58425E+03  1.66930E+04  6.37344E+03
  1.43509E+04  2.10746E+04 -4.81232E+03  2.20651E+04 -2.45933E+04  8.45239E+03 -2.23380E+04 -5.66130E+03
 -1.93502E+04 -1.63576E+04 -3.29813E+03 -1.57970E+04  3.50538E+03 -1.54986E+04  6.44858E+03 -1.13979E+04
  2.20680E+04 -1.04565E+04  2.80450E+04  4.74126E+03  2.11499E+04  1.17808E+04  1.50443E+03  3.16344E+04
 -1.70450E+04  2.73772E+04 -2.30938E+04  6.89733E+03 -2.14311E+04 -6.24338E+03 -6.51786E+03 -1.51070E+04
  4.59253E+03 -4.87816E+03  2.79190E+03  8.11505E+03 -1.34164E+04  7.54293E+03 -8.84283E+03 -3.43267E+02
 -9.68513E+03 -1.55122E+04  6.96453E+03 -2.02485E+04  1.57412E+04 -1.66391E+04  9.79507E+03 -7.50962E+02
  7.72378E+03  8.79193E+03  2.20405E+03  1.31289E+04 -9.63055E+03  5.75198E+03 -1.74244E+04  2.98295E+02
 -1.22035E+04 -1.13018E+04 -3.44066E+03 -2.23192E+04  8.62718E+03 -1.67309E+04  1.45272E+04 -7.77227E+03
  1.27941E+04  3.87173E+03  9.00115E+03  3.84190E+03  2.76344E+03 -1.82174E+03  5.70965E+03  5.28315E+02
  1.52265E+04  4.68963E+03  1.63288E+04  1.41643E+04  1.14087E+04  2.58743E+04 -5.07362E+03  2.43285E+04
 -1.52113E+04  2.22567E+04 -2.39083E+04  8.43206E+03 -2.24284E+04 -3.40836E+03 -1.74760E+04 -1.74020E+04
 -7.80641E+03 -1.87756E+04  6.51975E+03 -1.56386E+04  1.52515E+04 -1.13674E+04  1.20191E+04  9.35411E+03
  1.01236E+04  1.43461E+04 -4.70198E+03  1.13456E+04 -1.01193E+04  1.34873E+03 -8.64545E+03 -5.82666E+03
  2.21887E+02 -1.36970E+04  3.70229E+03 -1.12508E+04  6.68675E+03 -1.44866E+03  2.46734E+01  5.50652E+03
 -4.74460E+03 -1.05125E+03 -3.08779E+03 -4.09514E+03 -7.33143E+02 -1.29510E+04  4.93153E+03 -1.03763E+04
  1.30053E+04 -1.99525E+03  1.10007E+04 -5.91414E+02  1.27304E+04  1.30971E+04  3.92384E+03  1.43216E+04
  3.93105E+03  1.39591E+04 -6.19347E+03  7.73570E+03 -6.52637E+03  1.43599E+03 -1.10468E+04  6.94519E+02
 -4.68003E+02 -3.41121E+03 -2.35837E+02  2.34277E+03 -8.84713E+01  1.38943E+03 -1.32158E+03  4.83964E+03
 -8.97968E+03 -4.70692E+02 -6.77230E+03 -1.03723E+04 -4.85460E+03 -1.01627E+04  3.47619E+03 -7.20396E+03
  2.17460E+03 -5.52111E+03  5.05005E+03 -3.73565E+03  2.64266E+03  1.24386E+03 -9.22451E+03  1.10683E+03
 -1.92396E+03 -3.70085E+03 -3.92974E+03 -3.60741E+03  2.96099E+03 -6.50576E+03  1.00661E+04 -4.19736E+03
  8.26648E+03  3.08474E+03  8.95296E+03  8.56080E+03  5.51192E+03  5.69973E+03 -1.72994E+03  6.52192E+03
 -6.77921E+03  6.01255E+03 -3.17158E+03  3.87957E+02  1.61102E+03 -1.03236E+03  2.87173E+03 -2.24400E+03
  6.67252E+03  2.59623E+03  3.41969E+02  8.04702E+03 -4.99799E+03  3.99812E+03 -9.61134E+03 -2.69784E+03
  1.53000E+03 -5.44944E+03  2.81921E+03 -5.25752E+03  7.71888E+03  1.56072E+02  4.34306E+03 -1.63897E+03
  1.55150E+03  2.26617E+03 -3.74319E+03  4.34775E+03 -3.87342E+03  6.16181E+03 -2.96567E+03 -3.62350E+03
 -2.27382E+03 -1.03108E+04  3.08307E+03 -8.15828E+03  4.22927E+03 -4.67143E+03  1.04729E+04  8.50971E+02
  2.49427E+03  5.40266E+03 -1.05799E+03  5.28666E+03 -6.05720E+03  1.69336E+03 -4.65854E+03 -3.10789E+03
 -4.90783E+03 -4.92224E+03 -1.25671E+03 -4.19711E+03  2.89141E+03 -6.20592E+03  7.44503E+03 -4.12315E+03
  4.07785E+03 -5.59452E+03  1.93368E+02 -4.61289E+03 -1.22436E+03  2.97852E+03 -3.78477E+03  2.79983E+03
  4.36516E+03 -4.93913E+02  5.67614E+02 -3.31891E+03  7.73480E+02  3.08080E+03  1.68642E+03  6.62547E+03
 -2.59850E+03  7.10167E+03 -8.36006E+03  7.01867E+03 -1.07270E+04  5.37539E+03 -9.37366E+03 -5.82582E+02
 -9.38575E+02 -2.66541E+03  8.67915E+02 -1.55995E+03  5.84352E+03 -2.12368E+03  2.69435E+03  2.86560E+02
  1.40917E+03 -2.28475E+03  1.97693E+03 -5.97305E+03  1.28913E+03 -2.93319E+03  4.06798E+03  1.07489E+03
  3.73489E+03 -1.37387E+03 -2.25821E+03  1.95842E+03 -2.60144E+03  5.32637E+03 -3.50506E+03  1.03944E+03
 -3.71696E+03  1.19190E+03  1.60737E+02 -4.36646E+03  1.89142E+03 -2.28272E+03  4.47402E+03 -4.07938E+03
  3.99130E+03 -4.75902E+03  7.65975E+03 -6.58644E+02 -7.59387E+01  5.90138E+03  2.29685E+03  4.99737E+03
 -5.13912E+03  5.43369E+03 -3.30428E+03  4.41676E+03 -8.95512E+01 -2.89959E+03 -1.18459E+03  2.38075E+03
  3.69789E+03 -5.25082E+01 -2.71523E+03 -3.76907E+03 -1.38875E+03 -3.31382E+02 -8.17021E+03  1.74292E+03
 -3.14955E+02 -2.42468E+03  2.55171E+03 -5.37742E+03  1.34253E+03 -2.75812E+03  2.73698E+03 -7.12496E+02
  4.87942E+03  7.18003E+02  6.79681E+02  5.44217E+03 -5.77229E+03  2.98371E+03  4.68871E+02  2.02744E+02
 -3.74518E+03  2.15092E+03 -1.98186E+03 -2.51523E+03  1.16011E+03 -4.61312E+03  1.50732E+03 -1.62209E+03
  3.74345E+03  5.21141E+01  3.17084E+03 -4.71873E+03  3.08572E+03 -3.59578E+02  7.94840E+02  5.35275E+02
  4.10453E+03  1.71212E+03  1.28354E+03 -2.63376E+03 -7.82875E+02  4.20269E+03  3.20475E+03  4.04117E+03
 -1.81743E+03  2.20953E+03 -1.49816E+03  8.01627E+02 -3.56059E+03 -3.46810E+03 -1.83307E+03 -2.67034E+03
 -3.74366E+03 -6.79043E+03 -2.30252E+03 -4.33899E+03  4.65340E+02 -9.25160E+02 -3.21806E+03 -3.50075E+03
  3.96012E+03  1.11773E+03 -1.84052E+03 -1.89696E+03 -1.02999E+03 -3.58744E+03 -3.94746E+03  3.63480E+03
 -2.56765E+03 -7.00003E+02  3.80315E+03  1.26524E+02  2.80251E+03 -3.46189E+03  3.21033E+03  4.67796E+03
  1.42729E+03 -4.01125E+03  2.91858E+03  6.68799E+02  1.43990E+02 -1.98200E+03  1.73862E+03 -3.58243E+03
  1.89575E+03 -3.55924E+03  4.15318E+02  1.58931E+03  9.81308E+01  2.64694E+03  2.16682E+03  8.12078E+03
 -9.16566E+02  1.68274E+03 -2.76663E+03  4.10393E+03 -3.39872E+03 -4.30780E+03 -4.61814E+03 -1.01969E+03
 -1.63347E+03 -8.05521E+02  7.97464E+02 -7.52615E+02  7.49865E+01  1.32221E+03  3.19911E+03 -3.44097E+01
 -2.55085E+03  1.36519E+03 -3.99068E+03 -8.28174E+02 -1.83448E+02 -1.35648E+02  3.04787E+03 -5.02973E+03
  1.81947E+03 -8.49382E+02  2.67292E+03  1.24067E+03  2.17646E+03 -3.23399E+03 -1.86812E+03 -9.77103E+02
 -1.60593E+03  6.42946E+02  2.64076E+03 -2.84650E+03  2.30740E+03 -8.00484E+02 -1.75571E+03 -1.43053E+03
  9.47738E+02 -1.36751E+03  3.27176E+02  1.99637E+03  1.84053E+03  4.38476E+03 -1.79831E+01  1.74965E+02
 -1.89037E+03 -1.56569E+03  1.04766E+03 -2.04400E+03 -3.09928E+03 -3.85240E+02 -1.37279E+03 -2.33517E+03
  2.68205E+03 -3.85718E+03 -6.20092E+02  3.04029E+03 -1.51308E+03 -5.09045E+02  2.90053E+03  2.20549E+03
  1.55735E+03  1.24544E+03 -5.26379E+03  1.01031E+01 -2.16280E+03 -2.50279E+02 -3.86109E+03 -9.41845E+02
 -2.04357E+03 -1.21834E+03 -1.65051E+03  4.75328E+03  7.65479E+02 -5.98178E+02 -4.20713E+02  1.84665E+03
 -3.49599E+03 -5.96392E+03  5.78175E+02 -3.29819E+03  3.62701E+02 -3.78214E+03  3.73038E+03 -4.20027E+02
 -1.01149E+03 -9.30018E+02 -1.12928E+02  1.36860E+03 -8.00154E+02 -2.89015E+03  3.13236E+03  2.97974E+03
 -2.96730E+03 -3.17106E+03 -4.69211E+03  1.71452E+03 -6.90532E+01  2.82739E+03  2.41150E+02  2.40052E+03
 -2.35456E+03  3.29120E+02  1.39251E+03  6.76418E+02  8.66985E+02  2.15786E+03 -5.30139E+02 -3.15972E+03
  1.22793E+03 -5.67127E+02 -8.85026E+02  2.48266E+03 -1.20703E+03  4.01598E+03 -2.83074E+03  2.85273E+03
 -1.66990E+03  9.35076E+02  9.86102E+02  4.21059E+03 -1.93644E+03  1.65042E+02 -8.15368E+01  4.13429E+03
 -1.14224E+02 -2.87064E+03  1.00435E+03  1.36271E+03 -2.52414E+03 -2.10498E+03  3.56222E+02 -7.68862E+02
  2.78122E+03 -1.95742E+03  3.62304E+03 -2.26058E+03 -1.34402E+03 -3.90810E+03 -1.93129E+03  2.02882E+03
  1.13495E+03 -9.59612E+02  1.00896E+03  4.19860E+03 -8.01261E+02 -3.18265E+03  4.31254E+03 -3.92090E+02
 -3.91442E+03 -3.89150E+03 -2.05291E+03  3.93846E+03  4.95278E+03 -4.71942E+03  2.08188E+02 -3.78986E+03
 -1.78694E+03 -7.34926E+02  1.62332E+03  2.15710E+02 -1.38187E+03 -9.53763E+01 -3.58500E+03 -2.34836E+03
 -3.58598E+02 -6.80822E+02 -1.94169E+03  1.43519E+03  5.73100E+02  2.49663E+03 -2.06713E+03 -1.59427E+03
 -1.94672E+03  5.17665E+02  3.09726E+03 -2.75123E+03 -2.23732E+01  2.14715E+02 -4.01550E+03 -1.68233E+03
  4.14920E+02  1.40872E+03  9.79811E+02  2.45392E+03  1.78019E+02 -2.29030E+03  8.90894E+02 -2.19703E+03
 -1.39131E+03 -9.38729E+02  2.49015E+03  1.69510E+03  1.37370E+02  1.01052E+03  7.65852E+02  1.06858E+03
