 $NMID ID='MM_0lb_SNR50_8hz_g45_97.RAW', FMTDAT='(8E13.5)'
 TRAMP=1., VOLUME=1. $END
  3.09811E+05  7.13870E+02  3.34187E+05  2.56231E+05  8.78649E+04  3.36357E+05 -1.29952E+05  2.52315E+05
 -1.89847E+05  7.98680E+04 -1.08404E+05 -3.63945E+04  8.41672E+03 -5.92494E+04  5.69015E+04 -2.60342E+03
  3.50701E+04  5.14339E+04 -2.14973E+04  7.88088E+04 -6.46523E+04  6.46032E+04 -7.94626E+04  3.01895E+04
 -9.03939E+04 -8.35284E+03 -6.79098E+04 -6.38467E+04 -1.53675E+04 -7.19294E+04  2.85957E+04 -4.17846E+04
  3.54812E+04  2.77966E+03  1.74399E+04  4.66986E+04 -3.29287E+04  4.98886E+04 -5.41304E+04  1.32474E+03
 -5.37876E+04 -4.89951E+04 -1.28985E+04 -8.22318E+04  3.36660E+04 -5.51177E+04  4.75356E+04 -2.42936E+04
  4.58403E+04  1.22588E+04  2.69379E+04  1.86281E+04  1.74884E+04  3.05568E+04 -2.43739E+03  3.13256E+04
 -1.92110E+04  1.46306E+04 -1.64974E+04 -4.45127E+02  3.17654E+03 -8.75427E+03  2.76603E+04  1.37545E+04
  6.36834E+03  3.37588E+04 -3.28426E+04  3.19264E+04 -6.99263E+04  8.84390E+02 -5.45000E+04 -4.46770E+04
 -1.36061E+04 -7.07638E+04  3.38361E+04 -4.73887E+04  5.37605E+04 -2.41911E+03  3.83487E+04  2.95038E+04
 -3.69177E+03  3.44918E+04 -3.33261E+04  1.75058E+04 -4.06117E+04 -9.12072E+03 -2.66988E+04 -1.69460E+04
 -9.79082E+03 -1.04590E+04 -2.16769E+02 -2.05541E+04  1.17298E+04 -2.43798E+04  2.08284E+04 -1.65685E+04
  9.20906E+03  7.17298E+02 -1.17718E+04  9.34693E+03 -1.93467E+04 -1.03073E+04 -1.38724E+04 -3.95763E+04
  2.40998E+04 -5.15016E+04  5.21495E+04 -2.57509E+04  3.99512E+04  1.90739E+04  2.38932E+04  4.87626E+04
 -1.66776E+04  3.52729E+04 -2.82613E+04  4.07883E+03 -1.19198E+04 -2.83845E+04  2.50870E+04 -3.71468E+04
  4.29320E+04 -7.35618E+03  4.19902E+04  2.30165E+04  2.39918E+04  5.48451E+04 -4.66918E+03  6.00747E+04
 -3.21740E+04  4.89754E+04 -4.42875E+04  9.62000E+03 -3.87496E+04 -1.48463E+04 -3.57330E+04 -4.03977E+04
  1.75060E+04 -4.16006E+04  2.95447E+04 -1.43266E+04  2.92653E+04  1.07868E+04  5.39609E+03  2.84721E+04
 -1.66182E+04  9.92140E+03 -1.32870E+04 -2.40694E+03  9.54920E+03 -1.34936E+04  1.83085E+04  6.13422E+03
  1.50483E+04  2.20831E+04 -9.89515E+03  2.07264E+04 -2.18995E+04  1.52791E+04 -2.80166E+04 -3.64857E+03
 -2.33734E+04 -1.51701E+04 -1.54720E+04 -2.95520E+04  5.40230E+03 -2.81556E+04  2.71923E+04 -2.10298E+04
  2.88883E+04 -1.07606E+04  3.09509E+04  9.32154E+03  2.87656E+04  2.88791E+04  3.97586E+03  3.48127E+04
 -2.14309E+04  3.57392E+04 -2.76759E+04  1.10136E+04 -1.40460E+04 -2.85993E+03 -1.17959E+03 -1.58729E+04
 -4.91417E+03  4.67578E+03 -7.66172E+03  9.00120E+03 -1.88946E+04  9.86586E+03 -2.36404E+04 -1.67592E+04
 -1.36063E+04 -1.89114E+04  9.99689E+03 -2.63497E+04  1.70142E+04 -2.39637E+04  2.74566E+04 -2.61256E+03
  7.14032E+03  1.47357E+04 -1.06909E+03  2.70242E+04 -1.62143E+04  8.15115E+03 -2.80532E+04 -1.53597E+03
 -2.08883E+04 -1.83660E+04 -2.58693E+03 -3.39736E+04  1.55953E+04 -2.64743E+04  2.55550E+04 -1.76009E+04
  2.33311E+04  6.23934E+02  1.59936E+04  1.12269E+04  8.49168E+03  1.95977E+03  1.06545E+04 -5.16954E+03
  2.43656E+04  4.20906E+03  2.46069E+04  1.23928E+04  1.76965E+04  3.56195E+04 -1.91453E+03  4.14844E+04
 -3.04696E+04  2.78623E+04 -3.41261E+04  2.72224E+04 -4.34033E+04  6.61111E+02 -3.84915E+04 -2.88471E+04
 -1.38129E+04 -4.29781E+04  1.72753E+04 -3.22619E+04  3.27271E+04 -9.46799E+03  2.42398E+04  1.14552E+04
  1.25184E+04  2.35505E+04 -1.63347E+04  1.38708E+04 -2.10710E+04  2.38374E+03 -1.72109E+04 -1.30547E+04
 -1.92610E+03 -2.01449E+04  6.20770E+03 -1.04882E+04  1.23200E+04  4.55246E+02  2.28501E+03  1.51922E+04
 -2.24041E+03  3.98600E+03 -1.07079E+03 -8.76126E+03 -3.08689E+03 -7.80231E+03  1.55607E+04 -2.03072E+04
  2.73817E+04 -1.57964E+04  3.28918E+04  3.43394E+03  2.42681E+04  2.11585E+04  5.94122E+03  3.40275E+04
  9.64518E+02  2.98127E+04 -2.48277E+04  1.83864E+04 -3.01431E+04 -2.45513E+02 -1.78028E+04 -1.35748E+03
 -3.77858E+03 -9.61911E+03  4.71734E+01 -3.11974E+03  4.25240E+02  1.41943E+03 -6.55351E+03  1.00783E+04
 -1.51154E+04 -3.74972E+03 -1.32312E+04 -2.14473E+04  2.79611E+03 -2.74105E+04 -5.22201E+03 -1.67483E+04
  1.34349E+04 -6.01182E+03  9.91168E+03  3.23062E+03 -2.45739E+02  2.72639E+03 -1.22279E+04 -8.64816E+02
 -1.75634E+04 -1.24160E+04 -1.76474E+03 -2.47591E+04  3.67339E+03 -1.76229E+04  2.01454E+04 -1.28230E+04
  2.25081E+04  4.68629E+03  1.18165E+04  2.13000E+04  3.02393E+03  2.03734E+04 -5.39057E+03  9.84729E+03
 -1.34910E+04 -6.74985E+02 -4.78371E+03 -9.40511E+03  9.13638E+02 -3.81586E+03  8.03821E+03 -5.01991E+03
  8.38984E+03  8.42158E+03  5.25894E+02  1.53192E+04 -9.22331E+03  6.82161E+03 -2.11726E+04  8.07311E+03
 -9.66257E+03 -5.53891E+03 -1.77552E+03 -1.05966E+04  1.07062E+04  3.38948E+02  1.02541E+04  8.39373E+03
  4.26200E+03  1.16847E+04 -8.70075E+03  1.34510E+04 -1.48861E+04  6.03430E+03 -2.01714E+04 -8.16698E+03
 -1.20584E+04 -1.28118E+04  1.03575E+04 -1.00630E+04  1.22346E+04 -8.41553E+03  9.98131E+03 -3.69598E+02
  1.65620E+04  1.45013E+04 -2.85435E+03  2.15189E+04 -1.17122E+04  9.00117E+03 -2.22798E+04 -4.70926E+02
 -8.02320E+03 -4.14054E+03 -7.23890E+03 -1.28878E+04  7.85177E+03 -8.54561E+03  8.15097E+03 -1.03481E+04
  4.94746E+03  7.46887E+03 -3.88278E+03  3.71921E+03  7.54488E+01  6.86179E+02 -4.15215E+03 -2.80141E+03
  1.51749E+04  8.38316E+02  1.46280E+04 -1.35382E+03  1.61150E+04  1.24929E+04  1.53489E+04  1.94632E+04
 -4.51585E+03  3.02197E+04 -2.30841E+04  1.88766E+04 -2.59487E+04  5.26380E+03 -2.46828E+04 -1.20810E+04
 -1.23004E+04 -1.84583E+04 -2.20235E+03 -1.58302E+04  8.91711E+03 -1.84552E+04  7.20290E+03 -7.29051E+03
  1.23080E+04 -2.88334E+03  3.81410E+03 -1.25170E+03  8.38098E+03 -2.52496E+03  2.45736E+03 -3.03341E+03
  1.29529E+04  1.15024E+03  1.55448E+04  9.24209E+03 -3.39533E+03  1.12057E+04 -1.02826E+04  1.07304E+04
 -2.04687E+04 -1.91329E+03 -1.02941E+04 -1.16977E+04  7.52278E+02 -2.40477E+04  1.88968E+01 -1.85083E+04
  1.30979E+04 -8.48672E+03  1.69714E+04  4.56852E+03  6.14114E+03  1.19935E+04 -2.22254E+02  2.11332E+04
 -1.12381E+04  1.65077E+04 -1.10110E+04  5.30898E+03 -8.53307E+03  1.59655E+02 -6.41988E+03 -7.97444E+03
  1.72100E+03 -7.89244E+02 -4.69303E+03  1.98039E+03 -4.47098E+03  5.73040E+02 -7.24680E+03 -4.49943E+03
 -8.09386E+03 -1.45635E+04  5.45027E+03 -1.54204E+04  1.13018E+04 -1.25592E+04  1.27320E+04  3.47109E+02
  2.20802E+04  4.85894E+03  1.00824E+04  1.08050E+04  2.29176E+03  1.61733E+04 -1.18285E+04  1.30534E+04
 -1.16979E+04 -1.02004E+03 -1.27805E+04 -9.67899E+03  5.02985E+03 -1.41506E+04  1.14284E+04 -6.97735E+03
  1.42940E+04 -5.48512E+03  9.42286E+03  7.33553E+03  3.97871E+03  8.26188E+03  4.48397E+03  3.45043E+03
  7.27250E+03  7.44498E+03  5.47861E+03 -5.11371E+03  2.88897E+03  6.63978E+03  3.24778E+02  8.03309E+03
 -4.00361E+03  1.65577E+04 -1.47988E+04  1.11196E+04 -1.87457E+04  9.43133E+03 -1.57932E+04 -1.09411E+04
 -9.94393E+03 -1.90845E+04  1.55286E+03 -1.67204E+04  9.93865E+03 -1.28875E+04  1.43356E+04 -2.85734E+03
  1.42750E+04  1.23258E+04  6.17497E+03  1.28700E+04 -2.31998E+03  1.55522E+04 -7.28736E+03 -7.56517E+03
 -6.58145E+03 -7.82499E+03  6.45847E+03 -6.54534E+03  1.05561E+04 -2.37869E+03  6.89523E+03  2.45845E+03
  5.71847E+03  6.34768E+03  6.74687E+02 -1.06691E+03 -3.98490E+03 -7.16235E+02  1.37617E+03  4.07532E+03
  3.17781E+03 -4.26326E+03  8.19335E+03  2.57120E+03  5.44386E+03  2.99003E+03  2.78870E+03  1.73273E+04
 -5.71093E+03  5.14030E+03 -4.34404E+03 -2.73957E+03 -1.39830E+04 -4.64139E+02 -1.36642E+03 -1.82854E+03
  2.31377E+02 -5.57749E+03  1.01339E+04  1.64486E+01  5.01844E+03  6.33133E+03 -1.55628E+03  5.02003E+03
 -5.62579E+03 -4.24370E+03  3.51281E+03 -4.84856E+03 -1.16890E+03 -1.68402E+04  3.24416E+03 -1.66809E+04
  1.14086E+04 -3.10759E+03  1.02487E+04 -2.12024E+03  5.78998E+03 -5.32024E+03 -1.15205E+03  6.52078E+03
 -6.85832E+03  4.03802E+03 -3.24166E+03 -2.30595E+03  2.17902E+03 -7.91350E+03  8.02029E+03 -5.57722E+03
  1.13830E+04  3.40853E+03  7.25759E+03  1.13575E+04  1.87814E+03  1.25418E+04 -1.29320E+03  6.79212E+03
 -9.90270E+03  2.67141E+03 -6.20010E+03  2.32680E+03  4.74454E+03 -4.56549E+03  6.06833E+02 -8.03565E+03
  5.89060E+03 -4.09544E+03  6.13262E+03 -2.39548E+03  2.78738E+03  1.06599E+04 -5.37275E+02  6.22288E+03
  1.81284E+03  4.55863E+03 -4.19816E+03  2.48414E+03 -1.07445E+04 -3.08283E+03 -1.10163E+04  4.27130E+03
 -6.55386E+03  5.16829E+03 -4.67938E+03  7.33624E+03 -1.06507E+04 -5.87805E+02 -1.24740E+04 -5.50678E+03
  2.89995E+03 -1.08266E+04 -3.18718E+03 -1.87641E+04  9.75713E+03 -1.44469E+04  1.70757E+04 -1.13849E+04
  7.58026E+03  4.98958E+03  9.13825E+03  1.30157E+04  5.72367E+03  1.42462E+04  2.87980E+03  9.95583E+03
 -1.13992E+04  6.19846E+03 -6.84993E+03 -1.77641E+02 -2.58905E+03  5.69185E+03 -4.85169E+02  2.15425E+03
 -4.17379E+03 -3.95252E+03  1.04273E+03  8.07815E+02 -3.63760E+03 -2.17445E+03 -3.29358E+03 -5.87853E+03
  6.83566E+03 -5.04798E+03  1.34029E+03 -1.96321E+03  6.38004E+03  2.43917E+03  2.26034E+03  1.50155E+04
 -7.39242E+03  1.28409E+04 -1.73078E+04  1.36798E+04 -1.36113E+04  3.54719E+03 -1.55982E+04 -1.49603E+04
 -2.62665E+03 -1.39041E+04  1.37271E+03 -1.02734E+04  1.27063E+03 -1.38004E+03  1.04041E+04  3.72477E+03
 -8.23004E+02  2.11681E+02 -4.42203E+02 -4.07788E+02 -5.67646E+03 -6.88440E+03  4.96982E+02 -7.97899E+03
  2.98884E+03 -4.03282E+03  4.74277E+03  7.36479E+03 -3.47915E+02  3.94543E+03  2.26236E+03 -4.87703E+03
 -5.93821E+03  1.06090E+04 -7.12926E+03  3.18983E+03 -9.12495E+03 -9.20914E+03  1.08272E+03 -1.27691E+04
  8.04942E+03 -9.70077E+03  9.96387E+03 -1.07321E+04  6.79513E+03 -3.53305E+03  2.82538E+03  9.79795E+03
  7.42499E+02  7.34684E+03 -4.73258E+03  6.06503E+03  3.82899E+03  3.71539E+03 -4.04425E+03  6.76656E+03
 -3.65934E+02  6.51413E+03 -8.30853E+03  3.07746E+03 -1.31058E+03 -4.98432E+02 -7.66657E+03  4.01257E+03
 -2.22189E+03 -5.37416E+03  3.64283E+03 -7.01481E+03  2.85599E+03 -5.40819E+03  9.35834E+03 -4.13325E+02
  9.55261E+03  2.17255E+03  4.01077E+03  4.26463E+03 -7.33728E+02  9.47517E+03 -9.05428E+03  2.55247E+03
