 $NMID ID='MM_0lb_SNR50_17hz_g45_63.RAW', FMTDAT='(8E13.5)'
 TRAMP=1., VOLUME=1. $END
  3.11008E+05  5.11337E+02  3.36018E+05  2.53763E+05  8.27752E+04  3.32073E+05 -1.30869E+05  2.49286E+05
 -1.87019E+05  8.29477E+04 -1.11975E+05 -3.31153E+04 -5.21656E+02 -4.84841E+04  5.48300E+04  1.42813E+03
  3.99735E+04  5.70896E+04 -1.26245E+04  7.33461E+04 -5.90636E+04  6.07807E+04 -8.09858E+04  2.90514E+04
 -7.93406E+04 -1.15260E+04 -5.35258E+04 -5.20856E+04 -1.26286E+04 -6.75935E+04  2.46924E+04 -4.72779E+04
  3.66241E+04  8.22058E+03  1.70628E+04  4.55511E+04 -3.47454E+04  4.50532E+04 -6.72416E+04  2.36357E+03
 -4.85221E+04 -5.61384E+04 -3.02350E+03 -7.67541E+04  2.98490E+04 -5.61099E+04  4.46976E+04 -1.51745E+04
  4.36326E+04  5.11202E+03  3.15095E+04  2.17189E+04  1.35529E+04  3.14160E+04 -5.80608E+03  2.08750E+04
 -2.26695E+04  1.13907E+04 -1.69544E+04 -1.37912E+03  3.60477E+02 -9.23269E+03  2.14102E+04  9.33167E+03
  5.48488E+03  3.16440E+04 -3.00750E+04  3.83118E+04 -6.10486E+04 -5.92568E+02 -6.00408E+04 -4.11463E+04
 -1.55612E+04 -6.19718E+04  3.60546E+04 -4.28641E+04  5.77632E+04 -1.92168E+03  2.83348E+04  3.05162E+04
 -9.65227E+03  3.00595E+04 -2.82820E+04  1.68736E+04 -2.76123E+04 -8.55527E+03 -1.64680E+04 -1.16999E+04
 -1.00909E+04 -1.12023E+04 -3.95256E+03 -1.55843E+04  8.23780E+03 -2.05007E+04  1.73575E+04 -1.44770E+04
  1.11451E+04  2.06305E+03 -5.01590E+03  2.02532E+04 -2.00497E+04 -1.70030E+03 -5.13477E+03 -2.83913E+04
  1.90584E+04 -3.89246E+04  4.50399E+04 -1.61020E+04  4.13532E+04  2.00407E+04  1.24773E+04  3.96470E+04
 -1.28342E+04  3.11229E+04 -1.89197E+04  1.53446E+03 -7.59831E+03 -2.77950E+04  1.61936E+04 -3.48932E+04
  3.65617E+04 -8.77346E+03  3.13650E+04  2.93400E+04  1.50501E+04  4.16308E+04 -7.33872E+03  4.09965E+04
 -3.29049E+04  3.34624E+04 -3.45209E+04  1.02937E+04 -3.78941E+04 -1.53099E+04 -2.05991E+04 -3.82460E+04
  6.03536E+03 -3.10512E+04  3.29129E+04 -1.15003E+04  2.58964E+04  1.12919E+04  5.82040E+03  1.78401E+04
 -7.76532E+03  8.95802E+03 -9.80140E+03 -9.07523E+03  5.04019E+03 -1.18502E+04  1.72006E+04  5.16022E+03
  1.46832E+04  2.48635E+04 -5.73985E+03  2.32498E+04 -2.07613E+04  1.35058E+04 -2.61051E+04 -3.93472E+03
 -1.61940E+04 -2.07461E+04 -5.85068E+03 -1.80350E+04  6.20730E+03 -1.84589E+04  1.47855E+04 -1.63505E+04
  2.04384E+04 -1.44670E+04  3.04796E+04  1.71887E+03  1.83537E+04  1.55932E+04  4.82298E+03  3.19036E+04
 -1.80882E+04  2.83955E+04 -2.56879E+04  9.38317E+03 -1.83330E+04 -9.63558E+03 -1.37563E+03 -1.02810E+04
  3.08701E+03 -5.02254E+03 -2.05318E+03  3.43252E+03 -1.44270E+04  4.63517E+02 -1.76167E+04 -7.40743E+03
 -4.20769E+03 -1.56965E+04  8.64617E+02 -1.93999E+04  1.55789E+04 -1.88202E+04  1.61810E+04 -2.58502E+03
  8.69602E+03  1.53517E+04  1.40364E+03  1.99230E+04 -1.05492E+04  8.76205E+03 -1.27926E+04 -1.48131E+03
 -1.49891E+04 -1.49293E+04 -6.25170E+02 -1.88687E+04  1.04538E+04 -1.95643E+04  1.64032E+04 -5.91874E+03
  1.67440E+04  3.71326E+03  1.16500E+04  7.13324E+01  6.62858E+03 -1.34983E+03  9.41323E+03 -1.50950E+03
  1.98858E+04  1.59848E+03  1.43783E+04  1.08713E+04  1.30674E+04  2.38873E+04 -9.79401E+02  2.68054E+04
 -1.86065E+04  2.13874E+04 -2.69299E+04  7.46501E+03 -2.90331E+04 -4.59083E+02 -2.25096E+04 -1.54381E+04
 -1.52586E+04 -1.88969E+04  8.61721E+03 -1.57630E+04  1.95967E+04 -7.71619E+03  1.68471E+04  3.82942E+03
  5.94511E+03  7.93514E+03 -1.07520E+04  7.84361E+03 -1.30494E+04 -5.72905E+02 -1.00139E+04 -7.90257E+03
 -3.07822E+02 -1.32122E+04  2.35730E+03 -8.21443E+03  4.63784E+03 -2.43575E+03  1.33050E+03  5.94319E+03
 -7.23849E+03  1.27540E+03 -2.27614E+03 -8.52864E+03  1.77516E+03 -1.23855E+04  8.76334E+03 -1.23971E+04
  1.37736E+04 -7.39124E+01  5.05285E+03 -1.06375E+03  1.31986E+04  1.06445E+04  4.52872E+03  1.22244E+04
  6.27159E+02  1.76450E+04 -1.14761E+04  9.46338E+03 -1.52563E+04  6.41684E+03 -1.42136E+04 -2.56218E+03
 -3.78093E+03 -5.86740E+03 -3.15086E+03  4.50281E+03 -6.96637E+03  3.56397E+03 -3.04717E+03  8.28743E+03
 -8.18365E+03 -1.03327E+03 -9.48566E+03 -1.06597E+04 -1.24208E+03 -1.62168E+04  2.13610E+03 -6.20352E+03
  1.17262E+04 -7.45813E+03  1.02340E+04 -8.87967E+02  1.76861E+02  4.46996E+03 -2.91824E+03  1.56805E+03
 -4.62512E+03 -1.72430E+03  1.26801E+03 -8.43447E+03  5.60132E+03 -1.49122E+04  1.03269E+04 -5.87887E+03
  1.52720E+04  2.95534E+03  9.40963E+03  4.38404E+03  1.71632E+03  1.25034E+04 -2.85823E+03  5.37605E+03
 -8.89539E+03  2.69661E+03 -6.52431E+03  9.61240E+02  2.59597E+03 -7.28044E+03  2.67384E+03 -5.87899E+03
  4.29192E+03 -6.12544E+02 -7.12133E+02  1.14775E+04 -7.98240E+03  4.57145E+03 -3.91063E+03  3.65261E+03
 -2.61754E+03 -4.51676E+03  4.35959E+03 -1.18921E+04  4.39824E+03 -6.95771E+03  5.57974E+03  2.28968E+03
  2.25860E+03  1.44025E+03 -2.63371E+03  4.16419E+03 -8.14249E+02  2.18575E+02 -1.86816E+03 -1.39532E+02
 -4.30655E+03 -3.64709E+03  2.15593E+03 -6.40389E+03  5.86594E+03 -9.84161E+03  4.10014E+03  5.38398E+03
  4.56636E+03  3.78870E+03  1.67927E+03  5.95060E+03 -7.76215E+03  6.30491E+03 -7.44755E+03 -4.08707E+03
 -7.79681E+03 -8.56377E+03 -1.78607E+03 -2.56231E+03  5.52872E+03 -3.80318E+03 -1.23104E+03 -2.81221E+03
 -7.87270E+02  1.08288E+03 -2.55146E+03 -1.11744E+02  3.91836E+03  3.31391E+03 -4.39084E+03 -4.33970E+03
  3.94494E+03  1.49731E+03  8.10902E+03  2.69669E+03  6.70587E+03  1.05522E+03  7.46155E+03  9.71410E+03
 -2.52205E+03  1.63863E+04 -1.05970E+04  9.14891E+03 -1.21739E+04  1.52369E+03 -8.10683E+03 -4.68566E+03
 -8.48782E+03 -4.78514E+03  5.54646E+03 -5.62384E+03  5.30891E+03 -4.32746E+03  5.30837E+03 -1.78310E+03
  2.09513E+03 -5.27233E+03  4.63595E+03 -3.40369E+03  7.55797E+03 -1.25821E+03  7.85772E+03 -1.80239E+03
  5.25625E+03 -2.33531E+03 -1.02654E+03  2.34976E+03 -1.56236E+03 -5.78443E+02 -1.10802E+04  3.79334E+03
 -5.28323E+03 -3.23776E+03 -3.61301E+03 -2.26570E+03  1.72305E+03 -7.07114E+03  2.71053E+02 -1.11474E+04
  3.53869E+03 -1.96490E+03  9.21826E+03 -2.88547E+02  5.83641E+03  7.69438E+03 -5.50663E+00  5.08214E+03
 -4.63719E+03  1.04128E+03 -2.92834E+03 -9.99666E+02 -3.98174E+03 -4.57703E+03 -3.56427E+03  2.48479E+03
  1.54922E+03  4.44254E+03  1.52035E+03  7.51343E+02 -3.02343E+03  9.53217E+02 -7.41738E+03  1.29452E+03
 -6.23136E+03 -4.66423E+03 -2.43284E+03 -1.10490E+04  5.70238E+03 -5.42573E+03  6.01029E+02 -1.05260E+03
  4.61135E+03  2.40428E+02  3.67289E+03  1.70154E+03 -2.26687E+03  5.53015E+03 -5.92747E+03  2.78971E+03
 -6.13604E+03 -4.45914E+02 -3.59361E+03 -3.36419E+03  2.31633E+03  1.13149E+03  3.77087E+03 -1.33820E+03
  5.70193E+03  1.60410E+03  9.90361E+02  3.12626E+03  3.25719E+03  9.22448E+02  1.66017E+03 -1.00709E+03
  5.91257E+03 -5.85299E+02 -9.83448E+02 -1.65416E+03  3.41665E+03  3.65078E+03  5.57448E+03  1.40647E+03
 -3.49546E+03  6.33890E+03 -1.07336E+03  4.31835E+03 -4.21404E+03 -4.17306E+03 -5.67811E+03  1.96456E+03
 -1.47126E+03 -1.51017E+03  7.33007E+01 -4.42952E+03  4.47799E+03  4.26925E+02  2.42041E+03 -1.12228E+03
  1.39163E+03  2.69289E+03  4.01624E+03  7.13259E+03 -1.97734E+03  3.80214E+03 -6.44689E+03 -2.70593E+02
 -3.22446E+03 -5.95837E+03  4.35250E+03 -2.10380E+03  1.99121E+03 -1.86195E+03  6.46266E+02 -2.53325E+03
  2.68307E+03  1.58979E+02  3.18183E+02  7.79185E+02 -1.24168E+03 -1.26180E+02 -2.16832E+03  1.25796E+03
  5.29211E+03 -1.44096E+03  4.94735E+03  3.77909E+03  1.54817E+02  1.94138E+03 -4.40192E+03  3.45040E+03
 -1.89427E+03  2.13576E+03 -6.96991E+02 -1.41570E+03 -1.56816E+03 -2.44267E+03  1.72060E+03  1.88147E+03
  4.26881E+02 -2.70744E+03  2.93471E+03 -1.00553E+03  6.76985E+02  1.52386E+03  8.40200E+02  2.88257E+03
 -1.83905E+03  1.61575E+03 -3.34885E+03 -2.81071E+03  1.69361E+03 -2.82819E+03  1.34523E+03 -4.60649E+03
  5.99440E+03  4.41175E+02  3.23662E+03 -9.61775E+02  1.06720E+03  1.74525E+03 -2.73682E+03  3.22391E+03
  6.23995E+02 -3.74870E+03 -2.65411E+03  1.15030E+03  4.09600E+03 -3.95661E+03  4.76039E+03  1.65716E+02
 -9.49581E+01  1.45229E+03  3.09555E+03 -6.72109E+03 -1.93937E+03  2.97726E+03 -3.12767E+02 -2.63021E+03
 -3.00475E+03  5.58061E+03  2.95327E+03 -4.74724E+02  1.16095E+03 -1.75313E+03 -1.42352E+03 -1.87755E+02
  2.85681E+03  1.46978E+03  1.70226E+03  1.44540E+03  1.65025E+03  3.90794E+02  5.91714E+02  3.38249E+03
 -4.31755E+03  7.60803E+02  1.43406E+03  2.07801E+03 -2.94107E+03 -2.96225E+03  3.95922E+02  2.85139E+03
 -3.23380E+03  4.07158E+03  9.93033E+02 -2.17565E+03 -6.53213E+02 -3.17114E+03 -2.42620E+03 -3.15149E+03
  1.01159E+03 -2.79055E+03 -5.79140E+02 -2.51537E+03  4.99103E+03 -1.07164E+04 -2.24096E+03 -8.44295E+02
  3.60071E+03  1.73027E+03  3.70109E+03 -5.57133E+02  2.73991E+01  9.39134E+02  6.50173E+02  9.01250E+02
  1.76754E+03 -2.91932E+02 -7.73073E+02  1.43244E+03 -1.56800E+03  1.24739E+03 -2.09988E+03 -2.03486E+03
 -2.57009E+03  3.48785E+03 -2.75712E+03  4.00701E+02  1.72510E+03  2.19376E+03 -1.55986E+03 -1.80207E+03
 -5.37795E+02 -9.24994E+02  1.35504E+03 -2.25589E+03  5.32701E+02  1.34912E+03 -1.58030E+03  6.78166E+02
 -2.16730E+03  2.09579E+03 -2.54998E+03  1.39074E+03 -5.19784E+03 -1.77156E+03 -5.35913E+03 -5.57704E+03
 -1.10956E+03 -1.11012E+03  9.87281E+02 -5.87368E+03 -3.23101E+03 -6.50530E+03  3.88252E+02  3.53269E+03
  2.28775E+03 -3.91535E+03 -1.88956E+02  3.19119E+03  2.19646E+03 -2.54305E+02  2.96798E+03  6.96360E+02
 -1.95100E+03 -1.28686E+03  2.09500E+03  2.55798E+03  2.80538E+03  4.25710E+01 -1.87259E+03  3.69911E+03
 -3.81377E+03  1.34568E+03 -2.27809E+03 -5.48625E+02 -3.57909E+02 -2.47722E+03 -1.73450E+03 -2.06570E+02
  4.20036E+02 -5.33997E+03  1.89020E+03  2.74609E+03  6.36568E+02  2.76176E+03 -3.90027E+03 -3.40302E+03
  1.11953E+03  5.61064E+02 -3.61189E+03 -1.22785E+03 -2.94172E+03  4.66131E+02  1.01532E+03 -5.00179E+03
  3.68066E+03 -2.60729E+03  1.61980E+03  2.70649E+03 -1.47089E+03  2.45612E+03 -9.98450E+02  2.21428E+02
 -2.79148E+03 -1.22094E+03 -3.63178E+03 -4.32441E+02 -1.02581E+03 -5.81502E+03 -1.71655E+03  3.16746E+02
  1.91294E+03 -2.61464E+03 -8.51888E+02  1.09727E+03 -9.44850E+01  1.24160E+03  2.49847E+03  2.16018E+02
