 $NMID ID='MM_0lb_SNR50_10hz_g60_78.RAW', FMTDAT='(8E13.5)'
 TRAMP=1., VOLUME=1. $END
  3.16676E+05 -1.40708E+03  3.38122E+05  2.49879E+05  8.77396E+04  3.40530E+05 -1.29444E+05  2.57445E+05
 -1.97123E+05  9.01109E+04 -1.10338E+05 -2.97520E+04 -6.68319E+02 -5.34622E+04  5.53380E+04 -1.49542E+03
  3.99764E+04  4.84950E+04 -1.30510E+04  7.91344E+04 -6.17991E+04  6.28153E+04 -8.29006E+04  3.21786E+04
 -8.09356E+04 -1.28013E+04 -5.98955E+04 -5.63856E+04 -1.88110E+04 -6.78692E+04  2.76764E+04 -4.68493E+04
  4.33811E+04  3.23075E+03  1.27299E+04  4.58887E+04 -3.58646E+04  4.67790E+04 -6.56623E+04  3.37389E+03
 -5.50571E+04 -6.23480E+04 -7.63757E+03 -8.09008E+04  2.76610E+04 -4.95516E+04  5.51971E+04 -1.73295E+04
  4.69913E+04  9.58097E+03  3.81446E+04  2.46902E+04  1.10808E+04  2.97793E+04 -3.88990E+03  2.83412E+04
 -2.18426E+04  4.86534E+03 -1.65889E+04  4.97089E+02  1.00759E+04 -4.96537E+03  2.27702E+04  1.18040E+04
  7.18241E+03  3.71743E+04 -3.41945E+04  3.77742E+04 -6.95137E+04  1.41121E+03 -5.84542E+04 -4.69095E+04
 -1.41043E+04 -6.53057E+04  4.50919E+04 -4.90397E+04  6.06510E+04  2.55475E+03  3.62282E+04  3.56650E+04
 -5.23576E+03  4.35687E+04 -3.01544E+04  2.47139E+04 -3.72171E+04  1.48240E+03 -2.11139E+04 -1.77225E+04
 -2.50191E+03 -8.56922E+03  1.16837E+03 -2.08231E+04  8.74942E+03 -1.50474E+04  1.31160E+04 -1.26424E+04
  1.45703E+04  7.37557E+03 -1.03519E+04  1.17866E+04 -2.49233E+04 -7.30043E+03 -1.10039E+04 -3.92647E+04
  1.96774E+04 -5.06653E+04  5.76858E+04 -1.80251E+04  4.49245E+04  1.97566E+04  1.92972E+04  4.73790E+04
 -1.10889E+04  3.86018E+04 -2.53211E+04  2.60465E+03 -1.22967E+04 -2.46524E+04  2.47811E+04 -4.16277E+04
  4.49322E+04 -1.72852E+04  3.84352E+04  2.19108E+04  2.22966E+04  5.34345E+04 -1.24486E+04  5.43356E+04
 -3.95181E+04  3.81146E+04 -5.28641E+04  9.57897E+03 -4.84053E+04 -1.58109E+04 -3.18973E+04 -4.41426E+04
  5.86115E+03 -4.96338E+04  2.86726E+04 -1.59108E+04  3.58735E+04  8.81480E+03  8.22836E+03  1.96863E+04
 -1.43245E+04  8.93751E+03 -1.64210E+04 -9.00803E+03  8.32446E+03 -1.48335E+04  1.85010E+04  2.88771E+03
  1.71166E+04  2.46441E+04 -4.44610E+03  2.20530E+04 -2.56964E+04  1.41031E+04 -3.24007E+04 -3.88346E+03
 -2.11316E+04 -1.64644E+04 -1.05806E+04 -2.54215E+04  2.59967E+03 -2.46290E+04  2.25671E+04 -2.13624E+04
  4.21804E+04 -1.50046E+04  3.93723E+04  5.18673E+03  2.95112E+04  2.20487E+04  2.94122E+03  3.93350E+04
 -2.06194E+04  3.84174E+04 -2.97120E+04  1.04623E+04 -2.58853E+04 -9.27307E+03 -5.99416E+03 -7.66206E+03
  2.17182E+03 -9.08662E+03 -6.61194E+03  5.92741E+03 -1.94632E+04  4.08722E+03 -2.19911E+04 -5.36530E+03
 -1.14195E+04 -2.65513E+04  6.47693E+03 -2.77061E+04  2.67526E+04 -2.79878E+04  2.15299E+04 -2.19006E+03
  1.57723E+04  2.18126E+04 -3.78042E+03  2.07797E+04 -1.10943E+04  1.02430E+04 -2.33767E+04 -1.55032E+03
 -1.72815E+04 -2.49900E+04  1.57023E+03 -3.11895E+04  1.12896E+04 -2.47542E+04  2.11642E+04 -1.14545E+04
  2.52897E+04 -2.41077E+03  1.54882E+04  1.15175E+03  3.40701E+03  4.44683E+03  1.29727E+04 -3.64950E+03
  1.63902E+04  8.75181E+03  2.67681E+04  1.52229E+04  2.33859E+04  3.55777E+04 -3.82428E+03  4.23896E+04
 -2.56802E+04  3.13963E+04 -3.70778E+04  2.26993E+04 -4.15604E+04 -5.43386E+03 -3.61069E+04 -2.44116E+04
 -3.05477E+04 -3.35011E+04  6.02795E+03 -3.24455E+04  2.86180E+04 -1.15658E+04  2.05046E+04  1.13392E+04
  1.45523E+04  1.49699E+04 -7.90033E+03  1.25371E+04 -2.53933E+04  2.88028E+03 -1.55247E+04 -1.11915E+04
 -4.84412E+03 -1.64968E+04  6.55317E+03 -1.49405E+04  1.10938E+04 -1.17476E+03  8.06859E+03  5.62742E+03
 -8.40661E+03  2.31585E+03 -1.13954E+04 -6.13648E+03  2.40497E+03 -1.20004E+04  7.40035E+03 -2.38468E+04
  2.30329E+04 -7.70847E+03  2.45990E+04  6.28064E+03  2.10054E+04  1.78092E+04  1.58072E+04  2.40851E+04
 -1.05001E+04  2.96909E+04 -1.71974E+04  1.56095E+04 -2.67808E+04  5.13020E+03 -1.36376E+04 -5.29118E+03
 -7.89608E+03 -1.15440E+04 -1.02058E+03  8.40471E+03 -3.53950E+03  4.92375E+03 -8.62245E+03  7.09803E+03
 -1.59107E+04 -4.26700E+03 -1.26018E+04 -1.04587E+04  3.42910E+03 -1.71817E+04  7.80466E+03 -1.63128E+04
  1.15385E+04 -8.35125E+03  2.85676E+03  2.58102E+03 -2.29524E+03 -9.77465E+02 -1.13385E+04  5.06428E+03
 -9.77411E+03 -7.47480E+03  2.90196E+03 -1.95234E+04  8.80847E+03 -1.97765E+04  1.96440E+04 -1.90487E+04
  2.46125E+04  6.37243E+03  1.34848E+04  7.22215E+03  4.53818E+02  1.96025E+04 -1.20439E+04  1.55317E+04
 -1.46591E+04  5.32568E+03 -4.69623E+03 -2.94818E+02  1.70144E+03  1.40003E+02  3.50564E+03 -5.30496E+02
  6.29850E+03  6.68240E+03 -1.92649E+03  1.35746E+04 -5.95835E+03  1.21602E+04 -1.83503E+04  1.18436E+03
 -1.53225E+04 -1.59934E+04  3.94360E+03 -8.74283E+03  9.63002E+03 -7.63256E+03  8.07992E+03  6.73194E+03
 -4.14903E+03  7.36277E+03 -3.84079E+03  1.15135E+04 -7.38951E+03  3.30958E+03 -1.46277E+04 -2.00692E+03
 -8.73456E+03 -1.31890E+04  6.69207E+03 -1.45788E+04  1.08761E+04 -8.00936E+03  1.76685E+04  5.04665E+03
  9.30854E+03  1.76823E+04  4.40777E+03  1.87663E+04 -9.50585E+03  8.53026E+03 -1.32000E+04  2.30361E+03
 -9.20170E+03 -1.35709E+04  1.17168E+03 -6.36386E+03  9.80087E+03 -6.43973E+03  2.72093E+03 -7.64064E+03
  2.67393E+03 -1.36967E+03 -2.70181E+03  3.20196E+03  3.99219E+03 -2.44851E+03  7.89761E+03 -6.80272E+03
  1.60073E+04 -3.67284E+03  1.88384E+04  5.04038E+03  1.75875E+04  9.24758E+03  1.00175E+04  1.84008E+04
 -6.05622E+03  2.86639E+04 -1.39845E+04  1.65533E+04 -2.16398E+04  5.77968E+03 -1.79432E+04 -5.56824E+03
 -9.44944E+03 -1.39486E+04 -1.27153E+03 -1.59289E+04  5.20119E+03 -1.26971E+04  7.34293E+03 -7.32365E+03
  6.60850E+03 -4.95955E+03  2.54521E+03 -8.06478E+03  6.68299E+03 -1.16879E+03  4.46037E+03 -4.89215E+03
  6.84608E+03 -2.34520E+02  8.36704E+03  6.46045E+03  2.00269E+02  1.41581E+04 -1.06492E+04  9.11881E+03
 -1.62790E+04  2.03791E+03 -4.16684E+03 -1.09598E+04 -4.20264E+03 -2.01904E+04  7.37882E+03 -9.67568E+03
  1.60970E+04 -1.05590E+04  1.55179E+04  2.29930E+03  8.41705E+03  1.57578E+04 -7.27845E+02  2.21256E+04
 -8.98225E+03  1.16146E+04 -6.71266E+03  2.25686E+03 -1.04801E+04  4.26852E+03 -4.65305E+03 -1.42179E+03
 -5.61579E+03  4.28293E+02 -7.23819E+02 -4.86031E+02 -9.14480E+02  2.26134E+01 -8.07635E+03 -1.91405E+03
 -3.12382E+03 -1.26911E+04  2.19101E+03 -1.34435E+04  1.26847E+04 -1.47996E+04  1.50477E+04 -9.60118E+03
  8.35190E+03  1.16237E+04  7.89973E+03  1.12751E+04 -7.92484E+03  1.66828E+04 -9.70233E+03  1.41633E+04
 -8.31669E+03  3.78586E+03 -1.18041E+04 -5.61812E+03  2.19432E+03 -1.21658E+04  1.00501E+04 -7.73740E+03
  1.27096E+04 -8.31932E+03  3.55600E+03  4.13894E+03  2.82348E+03  4.27428E+03  1.47887E+03 -2.51065E+03
  7.53166E+03 -3.15265E+03  1.53313E+03  6.86857E+02  5.14829E+03  1.14719E+04  3.88422E+03  2.79979E+03
 -5.63701E+03  1.23451E+04 -1.00236E+04  8.85545E+03 -1.17651E+04 -2.50916E+03 -1.59071E+04 -4.81246E+03
 -9.67718E+02 -1.44228E+04  4.45752E+03 -1.79332E+04  7.91715E+03 -8.99341E+03  3.81557E+03 -2.88701E+03
  1.22759E+04  9.49740E+03 -2.67735E+02  1.00215E+04  1.19125E+03  1.00168E+04 -4.32192E+03 -7.52639E+02
 -6.14018E+03 -8.93398E+03  8.38023E+03 -7.83613E+02  7.02250E+03 -3.68862E+02  8.59518E+03  1.11407E+03
  3.23260E+03  6.61788E+03  1.69124E+03  3.89988E+03 -1.59874E+03 -4.22729E+03  4.84559E+03  1.32871E+02
  5.71644E+03  4.13246E+03  9.55974E+02  6.73913E+03  6.96578E+03  7.57220E+03 -5.71589E+03  1.17639E+04
 -6.66200E+03  5.64097E+03 -1.06615E+04  5.71324E+03 -4.43619E+03 -3.01718E+02 -8.30856E+02 -3.12995E+03
 -1.42642E+02 -4.75922E+03 -1.26761E+03 -5.40724E+03  3.15170E+03  1.67009E+03 -3.00449E+03  1.16260E+04
 -3.42498E+03  6.01203E+02 -8.07670E+03 -4.31868E+03 -3.29825E+03 -7.23346E+03  1.01616E+03 -6.19111E+03
  7.05321E+03 -6.90684E+03  9.80543E+03 -1.67046E+03  4.48697E+03 -1.06250E+03 -5.03571E+03 -1.29065E+03
 -2.33290E+03  3.82047E+02 -5.20618E+03  2.58596E+03  5.26002E+03 -9.82514E+03 -1.45392E+03 -7.66020E+03
  1.58882E+04  9.09310E+02  1.08496E+04  6.17272E+03  7.21622E+03  6.39814E+03 -4.66427E+03  6.50795E+03
 -1.00826E+04 -3.08653E+02 -8.87325E+03  7.99071E+02 -8.79369E+02 -7.27111E+03  3.06479E+03 -4.38023E+03
  5.45291E+03 -1.26827E+03  8.33109E+03 -1.33928E+03  4.71490E+03  4.79681E+03 -9.79372E+02  1.43223E+04
 -4.74764E+03  9.96796E+02 -3.76213E+02  2.89913E+03  4.45226E+02 -8.27375E+02  3.12856E+03 -1.44510E+03
 -6.46869E+01  4.41167E+03 -7.29296E+03  7.76702E+03 -9.90323E+03 -2.70526E+03 -4.94097E+03 -1.11641E+04
 -5.89861E+03 -1.38761E+04  6.48944E+03 -1.53140E+04  9.57011E+03 -1.24147E+04  1.03706E+04 -1.01114E+03
  1.21331E+04  3.08435E+03  1.01064E+04  5.97652E+03 -5.08051E+03  1.31962E+04 -1.10435E+04  1.19497E+04
 -5.96555E+03  7.17366E+02 -4.85760E+03 -3.58983E+03  2.21160E+02  3.39228E+03  3.13885E+03 -2.22877E+03
 -4.43769E+03  5.81318E+03  1.26578E+03 -5.24846E+03  4.00622E+03 -6.90728E+03  9.65629E+03 -5.03849E+03
  5.03662E+03 -5.93971E+03 -4.55094E+03 -8.23091E+02  9.56279E+03  5.28097E+03  4.37453E+02  1.21184E+04
 -4.09811E+03  1.31320E+04 -1.05169E+04  5.70792E+03 -6.79403E+03 -4.62007E+03 -6.23551E+03 -8.20831E+03
  2.85212E+03 -5.04233E+03  6.67486E+03 -4.32973E+03  5.58818E+03 -7.65269E+03  5.38434E+03 -9.85190E+02
  7.11287E+03  3.26327E+02 -4.51456E+02  2.09618E+03 -1.24080E+03  4.69879E+02  5.40446E+03 -2.62484E+03
 -2.37780E+03 -3.35045E+03  9.31475E+03  4.00864E+03  3.32746E+03 -7.20827E+00 -9.97303E+02  1.00353E+04
 -4.01913E+02  6.11683E+03 -1.24587E+04  1.79724E+03 -2.92805E+03 -4.68151E+03 -1.64560E+03 -5.03349E+03
  7.71963E+03 -1.50692E+04  9.50977E+03  5.62714E+03  5.60479E+03 -1.02035E+03  6.34818E+03  5.51167E+03
  1.00336E+03  4.61503E+03 -1.46631E+03  6.74582E+03 -5.94879E+03  1.05548E+04 -5.21375E+02  1.38313E+03
 -6.28156E+02  2.46546E+03 -2.87767E+03 -4.88306E+03 -1.29270E+02 -3.68060E+03 -9.34459E+02  2.20308E+03
 -8.73657E+03  4.36597E+02 -4.03937E+03 -1.52610E+04  5.16311E+03 -1.50132E+03  6.17627E+03 -5.41723E+03
  9.25702E+03  5.90726E+03  6.47838E+03  8.34214E+03  1.10916E+03  4.18058E+03 -4.35475E+03  4.15571E+03
