 $NMID ID='MM_0lb_SNR50_20hz_g55_50.RAW', FMTDAT='(8E13.5)'
 TRAMP=1., VOLUME=1. $END
  3.11447E+05 -1.74937E+02  3.37398E+05  2.50576E+05  8.70905E+04  3.37609E+05 -1.29003E+05  2.53500E+05
 -1.89318E+05  8.24151E+04 -1.12532E+05 -3.57012E+04  1.97303E+03 -5.18097E+04  5.80240E+04 -3.26882E+03
  3.30216E+04  5.44057E+04 -1.27462E+04  7.77559E+04 -6.44619E+04  6.15123E+04 -8.48720E+04  2.75487E+04
 -7.71747E+04 -1.02580E+04 -5.61283E+04 -5.34645E+04 -1.78007E+04 -7.20947E+04  2.57628E+04 -4.35941E+04
  3.62958E+04  4.32028E+02  1.69043E+04  4.99474E+04 -3.70845E+04  4.56045E+04 -6.97874E+04 -4.11568E+02
 -4.91335E+04 -5.28413E+04 -7.00519E+03 -7.11376E+04  3.34176E+04 -5.47645E+04  4.51256E+04 -1.83538E+04
  4.06037E+04  1.33172E+04  2.92464E+04  2.39573E+04  1.02997E+04  2.95832E+04 -4.15525E+03  2.35553E+04
 -2.18227E+04  1.33432E+04 -1.74706E+04 -7.19053E+03  5.65880E+03 -6.43058E+03  2.21844E+04  7.84085E+03
  8.08646E+03  3.53264E+04 -2.79445E+04  3.37580E+04 -6.00696E+04  2.46472E+03 -5.47884E+04 -4.30306E+04
 -1.46048E+04 -6.17600E+04  3.70829E+04 -4.38405E+04  5.41709E+04 -2.00545E+03  3.52130E+04  3.35748E+04
 -8.61921E+03  2.93982E+04 -3.12199E+04  1.52865E+04 -3.12364E+04 -4.33572E+03 -1.64358E+04 -8.65631E+03
 -7.82773E+03 -1.24627E+04  7.79801E+02 -1.69229E+04  5.66860E+03 -2.21414E+04  1.61942E+04 -1.61938E+04
  1.30890E+04  4.88463E+03 -9.90633E+03  9.55201E+03 -1.83294E+04  2.14047E+02 -7.68004E+03 -3.10797E+04
  2.05316E+04 -4.06085E+04  4.42543E+04 -1.56221E+04  4.14148E+04  1.66027E+04  1.12563E+04  3.91409E+04
 -1.48475E+04  3.61104E+04 -2.11564E+04 -2.32908E+03 -9.47435E+03 -2.78264E+04  2.22684E+04 -3.56254E+04
  3.96821E+04 -7.29455E+03  3.14798E+04  2.24193E+04  2.02462E+04  3.98127E+04 -5.50379E+03  4.30183E+04
 -2.85850E+04  2.58073E+04 -3.87581E+04  6.83498E+03 -3.21695E+04 -1.43252E+04 -2.06462E+04 -3.51595E+04
  4.90953E+03 -3.78587E+04  2.99565E+04 -1.38824E+04  3.19835E+04  9.87888E+03  1.86425E+03  1.62757E+04
 -1.20968E+04  8.16986E+03 -8.50025E+03 -9.50147E+03  3.67662E+02 -6.71113E+03  1.85862E+04  5.47704E+03
  1.14842E+04  2.13098E+04 -2.34753E+03  2.09261E+04 -2.14723E+04  1.06439E+04 -2.16127E+04 -3.33289E+03
 -1.86817E+04 -1.60916E+04 -6.68207E+03 -1.85151E+04  5.09102E+03 -1.34605E+04  1.04367E+04 -1.25462E+04
  2.22712E+04 -1.31637E+04  3.13352E+04  3.59101E+03  1.89965E+04  1.35550E+04  6.36157E+03  3.51134E+04
 -1.65722E+04  3.12252E+04 -2.19013E+04  5.98971E+03 -1.91023E+04 -9.40274E+03 -1.53857E+03 -1.39718E+04
  9.59135E+02 -4.97579E+03 -3.64632E+03  2.37580E+03 -1.30912E+04  6.42316E+03 -1.13074E+04 -7.13780E+03
 -6.56665E+03 -1.39311E+04 -3.06636E+02 -1.93110E+04  9.06718E+03 -1.07875E+04  1.19838E+04 -2.58708E+03
  1.28599E+04  1.01159E+04 -1.15315E+03  1.77233E+04 -9.31782E+03  7.45073E+03 -1.37117E+04 -3.76503E+03
 -8.37407E+03 -1.22288E+04 -2.38140E+03 -1.81203E+04  6.58892E+03 -1.99962E+04  1.00320E+04 -1.04940E+04
  1.41106E+04  4.02771E+03  8.45217E+03 -1.61553E+02  4.43365E+03 -2.74907E+03  5.15872E+03  4.93972E+02
  1.49964E+04 -9.35084E+00  1.29416E+04  1.74176E+04  7.19650E+03  2.26068E+04 -1.91491E+03  2.54650E+04
 -1.53063E+04  2.01641E+04 -2.44151E+04  9.10763E+03 -2.50402E+04 -2.85317E+02 -2.25225E+04 -1.44772E+04
 -9.59350E+03 -1.74251E+04  1.19741E+04 -1.60568E+04  1.66289E+04 -1.04385E+04  1.55427E+04  2.94011E+03
  5.84109E+03  1.03759E+04 -7.02443E+03  1.29211E+04 -1.04130E+04  3.74210E+02 -1.19496E+04 -4.82212E+03
 -2.47624E+02 -1.07995E+04  5.75078E+03 -1.13747E+04  4.43623E+03  1.84880E+02 -3.71686E+02  4.90654E+03
 -9.11924E+03  6.03475E+03 -5.00575E+03 -9.31615E+02  6.23718E+02 -1.56871E+04  7.55863E+03 -7.44233E+03
  8.46972E+03 -7.89556E+03  7.92621E+03  3.65314E+03  9.05141E+03  9.84520E+03  6.71896E+03  1.42054E+04
 -1.93352E+03  1.52964E+04 -1.12444E+04  9.96400E+03 -9.26068E+03  2.38890E+03 -7.18395E+03 -5.70878E+02
 -1.43553E+03 -5.02200E+03 -1.06233E+03 -7.06102E+02 -4.24095E+03 -2.24567E+02 -1.38597E+03  4.55087E+03
 -8.27804E+03 -3.49425E+03 -7.67753E+03 -6.55506E+03 -1.28685E+03 -1.04528E+04  5.86495E+01 -8.16268E+03
  9.76868E+03 -2.04174E+03  3.98735E+03 -8.62681E+02 -4.77222E+03 -5.52198E+00 -2.52299E+03  7.88831E+02
 -1.41975E+03 -7.57171E+03 -1.37992E+03 -9.21190E+03  5.01692E+03 -4.93249E+03  4.11046E+03 -3.92900E+03
  1.10869E+04  3.09340E+03  7.45461E+03  5.63808E+03 -7.71810E+00  8.88065E+03 -6.70319E+03  1.06855E+04
 -7.04209E+03  2.51175E+03 -4.86158E+03  4.08749E+02 -1.65641E+02  4.92631E+02  5.36637E+03 -3.04128E+03
  3.85051E+03  3.22020E+03  1.10874E+03  4.77166E+03 -6.38169E+03  6.47360E+03 -5.81885E+03  7.32293E+02
 -4.70756E+03 -3.10517E+03  1.40322E+02 -3.32819E+03 -6.86656E+02 -6.36980E+03  3.29481E+03  1.65148E+03
  3.59631E+03 -1.56855E+03 -1.61338E+03  6.12083E+03 -2.58980E+03  3.05868E+03 -1.72633E+03 -3.76359E+03
 -3.01359E+03 -4.00126E+03 -3.13278E+03 -6.88810E+03  6.28266E+03 -1.14152E+03  4.84389E+03  3.07305E+03
  3.52987E+03  3.37074E+03  2.75697E+03  6.25816E+03 -6.87341E+03  7.93674E+03 -4.69003E+03 -2.66685E+03
 -1.64750E+03 -5.84702E+03 -1.65154E+03 -6.56083E+03  4.43834E+03 -7.16432E+03 -1.80041E+03 -5.33267E+03
  3.98469E+03  2.77470E+03 -9.13345E+02  7.54286E+02 -2.86735E+03 -1.98579E+02 -7.84222E+02 -7.95578E+02
  4.26804E+03 -2.44750E+03  4.89557E+03  5.10352E+02  7.35470E+03  5.67853E+03  8.15054E+03  7.43959E+03
 -1.57621E+03  4.75742E+03 -7.52116E+03  5.87729E+03 -8.21363E+03 -3.76778E+03 -7.22886E+03 -1.02968E+03
 -3.90776E+03 -6.39383E+03 -2.20299E+03 -6.13229E+03 -4.55912E+02  1.09669E+03 -9.96722E+01 -1.78318E+03
 -4.19986E+03 -4.26649E+03  1.97195E+03 -3.29883E+03  1.30619E+03  1.45066E+03  2.35320E+03  1.39245E+03
  2.40076E+03 -1.45889E+03  5.06520E+03 -2.29214E+03 -2.85031E+03 -2.06256E+02 -6.83000E+03  4.76019E+03
 -1.04500E+03 -1.10781E+03  2.29829E+03 -3.73670E+03 -3.95923E+03 -3.64418E+03  6.17501E+03 -6.99631E+03
  3.70459E+03 -2.67339E+03  4.84204E+03  1.76699E+03  7.16184E+03  1.83710E+03 -1.47580E+03  6.79823E+03
 -2.90608E+02  4.49454E+03 -1.81219E+03  5.94555E+03 -6.85479E+03 -1.69710E+03 -3.20596E+02 -4.23907E+03
  1.51952E+03 -4.65723E+03 -5.39613E+03  3.83775E+03 -4.76509E+03  2.07518E+03 -6.76767E+03 -1.47247E+03
 -3.36240E+02 -1.75755E+03  2.88962E+03 -4.49879E+03 -1.56033E+03 -5.83286E+03  3.69934E+03  1.76914E+03
  1.83982E+03  2.27726E+03 -4.77232E+03 -6.04818E+02 -1.57172E+03  3.52163E+03  1.35671E+03 -4.38426E+03
 -6.24248E+03  2.12989E+03 -1.31070E+03 -1.54563E+03 -2.26602E+03 -2.42114E+03 -1.35944E+03 -7.03147E+03
  7.77829E+02  2.10354E+03  6.74398E+03 -2.99666E+03  2.39629E+03 -2.11065E+03 -2.50792E+03  3.78216E+03
 -2.35834E+03 -6.41612E+00  2.90821E+03  8.08880E+00  2.20558E+03  1.58978E+03  2.52915E+03 -3.16394E+03
  2.23574E+03 -2.45998E+02 -1.96805E+03  2.49787E+03 -5.54988E+03  4.10436E+02 -3.39340E+03  3.10321E+03
 -2.48244E+03  1.07657E+02 -2.94482E+02  2.03897E+03  1.61261E+02 -2.75735E+03  5.20913E+03  8.94119E+02
  3.40593E+03  4.61628E+02 -5.47347E+02  3.62650E+03 -3.72396E+03 -9.04619E+01  4.75100E+03  2.73872E+03
  3.33738E+03  1.19951E+03  1.49990E+03 -2.22554E+03 -2.27706E+03  8.76152E+02  1.67087E+03  3.76545E+03
  4.40407E+02 -3.75389E+03  1.99138E+03 -5.47183E+03 -1.65696E+03 -4.21303E+03  1.54533E+03  8.66808E+02
  8.54918E+02  1.57126E+03  8.54885E+03  1.48847E+03  4.09138E+03  1.50947E+03  8.24047E+02  5.11213E+03
 -7.06369E+02 -4.23557E+03 -8.80941E+02  1.71432E+03 -1.12202E+03 -3.16634E+02  2.26324E+03  2.98602E+03
  4.64929E+03  2.10862E+03 -1.00039E+03 -6.01536E+01  5.63892E+03  3.64236E+03 -2.24045E+03  4.81478E+03
 -1.90004E+03  3.34578E+02 -1.49374E+03  5.84447E+02  1.16237E+03 -1.18965E+03 -1.86018E+03 -2.66492E+02
  2.00476E+02  1.69643E+03 -1.67061E+03 -1.12771E+02  2.23511E+03 -4.45470E+03  5.54491E+02 -4.82498E+03
  7.47419E+01 -4.42195E+02 -6.97937E+03  3.16826E+03 -2.54646E+03  1.91167E+03  2.57604E+03 -3.73961E+03
  1.57596E+03 -1.46788E+03  8.68125E+01  3.11169E+03  4.57767E+03  1.77010E+03  8.41923E+01  2.33421E+03
 -2.23630E+03  3.49943E+02  3.00644E+03 -6.37466E+02  5.91175E+02 -3.27571E+03  3.28093E+02 -2.32487E+03
  1.55927E+03  1.66102E+03 -1.54513E+03  3.52149E+02 -5.75948E+01 -2.02248E+03  2.69074E+03 -4.07535E+02
  1.85846E+03 -2.13727E+03  7.71194E+02  2.11133E+03 -1.61418E+02 -2.06665E+03  2.88852E+02  1.85620E+03
 -1.58494E+03  1.79623E+02  1.42929E+02  3.11145E+03 -1.41493E+02  4.61624E+03 -4.91862E+03 -4.14102E+03
  1.06046E+03 -2.65090E+03  7.80771E+02 -3.85612E+03 -1.18995E+03 -2.85178E+03  4.12662E+03  2.03224E+03
  2.13170E+03 -2.39508E+03  1.07463E+03  3.01050E+03 -2.50124E+03  3.68570E+03 -9.50076E+02  4.17889E+03
  9.06881E+02  4.49120E+02 -5.09384E+03  2.37210E+03  2.41133E+02  2.07627E+03 -1.60062E+03  1.83726E+03
 -3.34340E+03  6.85656E+02 -2.50741E+03 -2.25954E+03  1.73437E+02 -2.58042E+03 -5.12497E+03 -3.07130E+03
  1.07759E+02 -6.14443E+03 -4.49095E+03 -3.49821E+02  1.88603E+03 -1.47070E+03  1.38384E+03  2.00685E+03
 -9.60716E+02 -3.02492E+02  2.59596E+03 -2.81183E+03 -1.52107E+03  2.28107E+02  1.50545E+03  1.76356E+03
 -2.81266E+03  3.58497E+02 -1.47521E+03 -2.51028E+03  3.61988E+03 -2.42793E+02  3.77566E+03 -3.28319E+03
  1.83312E+03 -1.98784E+02 -9.90676E+02 -4.77290E+02 -3.71073E+03 -6.24800E+02 -2.26865E+03  3.95812E+03
  1.98533E+03  1.03542E+03  9.24245E+02 -2.05565E+03  1.71245E+03 -2.49913E+03 -1.58204E+03 -1.61610E+02
  1.92481E+03 -2.72298E+03 -8.49039E+02  3.65946E+01 -1.48580E+03  3.44043E+03 -4.12489E+03 -1.45613E+03
 -1.63732E+02 -2.59413E+03 -8.83811E+02  1.70779E+03 -2.00627E+03 -1.62663E+03  8.91871E+02 -2.72562E+03
 -7.25349E+01  1.20994E+03 -3.39481E+03 -2.01707E+03  2.90291E+03  1.91338E+03 -1.16052E+03 -6.23916E+01
  4.66816E+02  1.03942E+03 -3.11642E+03 -4.15184E+03 -9.45547E+02  9.54949E+02 -1.86366E+03  1.42489E+03
  2.56510E+02  4.85541E+03  3.89644E+03 -1.06898E+03  4.84187E+03  6.79154E+02 -1.56120E+03  8.95426E+01
  6.34221E+02  1.85503E+03  2.46205E+03 -7.87554E+02 -2.98446E+03 -7.91657E+02 -4.55194E+02  1.51349E+03
