 $NMID ID='MM_0lb_SNR50_18hz_g55_69.RAW', FMTDAT='(8E13.5)'
 TRAMP=1., VOLUME=1. $END
  3.09541E+05 -1.72746E+03  3.40896E+05  2.47336E+05  8.38080E+04  3.33141E+05 -1.31805E+05  2.50797E+05
 -1.88890E+05  8.28756E+04 -1.13293E+05 -3.22468E+04 -2.85642E+03 -4.83000E+04  5.38235E+04  6.98370E+02
  3.67302E+04  5.09192E+04 -1.83994E+04  7.33192E+04 -6.05204E+04  6.42845E+04 -7.99031E+04  2.83320E+04
 -8.15757E+04 -1.04797E+04 -5.76137E+04 -5.23476E+04 -1.43122E+04 -7.02486E+04  3.01663E+04 -4.49069E+04
  3.88328E+04  3.22715E+02  1.04871E+04  4.74293E+04 -3.07606E+04  5.01720E+04 -6.61449E+04 -3.82841E+03
 -5.37917E+04 -5.91097E+04 -4.74078E+03 -7.84417E+04  3.07292E+04 -5.23760E+04  4.72581E+04 -1.83146E+04
  4.30243E+04  8.43804E+03  2.93294E+04  2.91644E+04  1.38492E+04  3.00147E+04 -1.57862E+03  2.55927E+04
 -2.18811E+04  1.50651E+04 -1.93974E+04 -1.10612E+03  4.60588E+03 -9.17194E+03  2.07885E+04  1.03021E+04
  4.81801E+02  3.55518E+04 -2.81392E+04  3.67342E+04 -6.20501E+04  2.69875E+03 -4.86986E+04 -4.47830E+04
 -1.38886E+04 -6.01677E+04  3.95226E+04 -4.66318E+04  5.84849E+04 -2.77114E+03  3.40819E+04  3.49783E+04
 -3.50255E+03  2.93554E+04 -3.27758E+04  1.51830E+04 -3.22656E+04 -7.79967E+03 -1.76786E+04 -1.29737E+04
 -7.43294E+03 -9.66827E+03 -1.77104E+03 -1.30666E+04  1.15829E+04 -2.77325E+04  1.38878E+04 -1.33927E+04
  1.19846E+04  2.35573E+03 -4.89288E+03  1.27493E+04 -1.77846E+04 -2.79038E+03 -6.82877E+03 -3.15960E+04
  1.65219E+04 -4.62998E+04  4.54106E+04 -2.00999E+04  3.82509E+04  2.31771E+04  1.39237E+04  4.00751E+04
 -1.35374E+04  3.10083E+04 -2.56683E+04  1.53330E+03 -5.09806E+03 -2.65368E+04  2.18939E+04 -3.17640E+04
  3.69161E+04 -6.91968E+03  3.69097E+04  2.87505E+04  1.60352E+04  4.45552E+04 -8.71136E+03  4.39886E+04
 -3.47140E+04  3.62134E+04 -3.94942E+04  1.01357E+04 -4.16000E+04 -2.02357E+04 -2.99506E+04 -3.80290E+04
  6.82604E+03 -2.93511E+04  3.11355E+04 -1.41782E+04  3.12682E+04  1.19877E+04  1.99168E+03  1.82808E+04
 -1.46136E+04  1.13478E+04 -7.75031E+03 -1.02339E+04  6.21705E+03 -7.73777E+03  1.38870E+04  7.40886E+03
  1.40652E+04  2.44057E+04 -5.34056E+03  2.33115E+04 -1.82515E+04  9.76350E+03 -2.22412E+04 -1.69333E+03
 -1.93589E+04 -1.88182E+04 -7.52571E+03 -1.93012E+04  9.37067E+02 -1.71534E+04  1.38337E+04 -1.41454E+04
  2.18143E+04 -1.26661E+04  3.11097E+04  6.86104E+01  2.09951E+04  1.33693E+04  6.49001E+03  3.06659E+04
 -1.75650E+04  2.91230E+04 -2.32251E+04  7.63009E+03 -2.14554E+04 -6.74425E+03 -4.51712E+03 -1.42983E+04
  2.63391E+03 -3.79876E+03 -1.34022E+03  5.95910E+03 -1.24351E+04  6.70342E+03 -1.70518E+04 -5.61628E+03
 -1.08284E+04 -1.22950E+04  3.90262E+03 -2.15191E+04  1.05920E+04 -1.80355E+04  1.03015E+04 -6.03906E+03
  1.21561E+04  8.91708E+03 -1.61955E+03  1.64036E+04 -9.58060E+03  3.84139E+03 -1.38701E+04 -6.48161E+03
 -1.27698E+04 -1.91406E+04 -4.99143E+02 -1.87684E+04  1.00870E+04 -1.73101E+04  1.56100E+04 -8.67504E+03
  1.80585E+04 -5.03525E+02  9.94929E+03  2.52550E+03  4.14159E+03  4.76348E+02  5.05931E+03  2.28870E+03
  1.33321E+04  2.85142E+03  1.52828E+04  1.33898E+04  8.95232E+03  1.94758E+04 -2.15912E+03  2.87495E+04
 -1.82996E+04  2.29106E+04 -2.30119E+04  1.15640E+04 -2.22538E+04 -4.17139E+03 -2.18379E+04 -1.40255E+04
 -1.01086E+04 -1.88468E+04  9.18389E+03 -2.01009E+04  1.68891E+04 -9.87664E+03  1.48685E+04  5.86882E+03
  6.56732E+03  1.01777E+04 -6.05839E+03  9.32715E+03 -1.45513E+04  9.59554E+02 -7.66214E+03 -1.12232E+04
 -4.70465E+02 -1.17177E+04  8.33229E+03 -2.96052E+03  1.25839E+04  3.70647E+03  5.31278E+03  6.87094E+03
 -2.92518E+03  7.65793E+02 -4.13106E+03 -6.27800E+03  9.68862E+02 -1.13678E+04  7.65456E+03 -1.66661E+04
  1.31224E+04 -4.61483E+03  1.25222E+04  3.11532E+03  1.27823E+04  1.23780E+04  4.82071E+02  1.13932E+04
 -2.33570E+03  1.68002E+04 -1.10216E+04  1.43065E+04 -1.64065E+04  6.64372E+03 -5.52449E+03 -4.51555E+03
 -1.46273E+03  3.73198E+02 -3.08586E+03  1.21925E+03 -3.72461E+00  1.41412E+03  7.89629E+02  3.59560E+03
 -4.89380E+03 -2.01259E+03 -8.51577E+03 -4.52946E+03 -4.41572E+03 -7.83301E+03  3.06749E+03 -1.29581E+04
  6.08567E+03 -2.06386E+03  4.09249E+03  6.10018E+03 -2.32769E+03  2.65912E+03 -5.82730E+03  1.74635E+03
 -1.20996E+04 -6.54245E+03 -4.72748E+03 -3.18547E+03  6.48902E+03 -8.17563E+03  1.38261E+04 -2.43407E+03
  1.38704E+04 -5.46642E+02  1.10698E+04  6.54167E+03  2.30647E+03  1.13265E+04 -5.22255E+03  8.83302E+03
 -6.51417E+03  2.74695E+03 -6.26607E+03  1.93290E+03 -4.20297E+02 -3.39361E+03  6.30256E+03  1.79715E+03
  6.84937E+03  3.08678E+03  1.18976E+03  4.03347E+03 -7.55982E+03  6.16129E+03 -1.01998E+04 -1.97343E+02
 -7.45975E+03 -3.27469E+03 -4.93697E+02 -4.39096E+03  6.54188E+03 -7.47273E+03  6.92247E+03 -2.61374E+03
 -2.73056E+03  6.76213E+02 -4.73942E+03  4.65539E+03 -2.58022E+03  3.02598E+03 -5.98061E+03  8.43571E+02
 -3.76162E+03 -6.39598E+03  1.65234E+03 -8.15839E+03  9.53584E+03 -3.36083E+03  5.55561E+03  1.58148E+03
  3.71435E+03  7.75563E+03  2.64135E+03  9.70318E+03 -7.97256E+03  2.17449E+03 -6.76400E+03 -2.16862E+03
 -4.67949E+03 -2.59075E+03 -5.29414E+03 -2.51460E+03  6.58898E+03 -3.13737E+03  4.23826E+03 -2.99113E+03
  5.22285E+03 -3.60522E+03 -3.07972E+02  2.22928E+03  9.47568E+02 -2.23922E+03  1.42497E+03 -6.74561E+02
  4.29599E+03 -2.56026E+03  5.50506E+03 -7.32301E+02  9.13738E+03  7.30748E+03  2.79258E+03  8.70246E+03
 -2.12663E+03  1.11020E+04 -7.82236E+03  4.44944E+03 -1.30188E+04 -1.46123E+03 -5.74611E+03 -6.97606E+03
 -7.82620E+03 -1.01052E+04 -3.25668E+03 -4.55071E+03  2.76099E+03  8.38183E+02 -3.91939E+03 -2.46218E+03
 -2.69643E+03 -1.79467E+03  2.85198E+03  7.08852E+02  9.23410E+03 -2.19063E+03  6.34659E+03  3.24599E+03
  5.75952E+03  1.20689E+03  4.57975E+03  1.86550E+03 -2.45294E+03  1.81100E+03 -2.41103E+03  3.33965E+03
 -7.48142E+02 -3.63996E+02 -7.13573E+03 -4.99479E+03  1.62660E+03 -2.71047E+03  3.12597E+03 -8.01854E+03
  7.56211E+03 -6.08465E+03  6.08385E+03  5.68676E+03  5.31326E+03  7.32286E+02 -1.37563E+03  7.48866E+03
  2.36612E+03  8.19939E+03 -6.88303E+03  4.37407E+03 -9.96041E+02 -2.67560E+03 -3.20575E+03  4.74493E+03
 -1.62999E+03  2.24725E+03  1.02641E+03  4.63088E+03 -6.09264E+03  2.22419E+03 -6.34564E+02  8.12958E+02
 -1.91958E+03 -1.64948E+02 -1.50098E+03 -4.59551E+03  3.69600E+03 -1.50947E+03  8.93198E+03 -2.37964E+03
  3.89568E+03 -3.11120E+02  4.29614E+02  8.65098E+03 -6.86405E+02  2.14992E+03 -2.08269E+03  2.23699E+03
 -2.11463E+03 -1.63891E+03 -7.50794E+03 -3.76254E+03 -1.48070E+03 -7.39018E+03  3.27794E+03 -8.22699E+02
  2.38761E+03 -2.43928E+03  5.27464E+03 -8.06547E+01 -3.43656E+03  1.71503E+03 -2.93842E+03 -3.74881E+03
  3.27006E+03  3.01076E+03 -2.13521E+02  2.07700E+03  3.54353E+03  5.44281E+03  3.72001E+02  6.03146E+03
 -5.46272E+03  3.39818E+03  2.25159E+03  3.89030E+03 -5.32998E+03  1.34969E+03 -5.68841E+03 -8.41783E+02
 -2.44519E+03 -1.37390E+03  3.27021E+03 -5.90667E+03  1.44817E+03 -3.31092E+03  3.90128E+03  1.35155E+03
  2.13878E+03  2.56910E+03 -2.33461E+02  4.51885E+03  3.06629E+02 -3.28305E+03 -5.65292E+03 -1.80726E+03
 -3.66195E+03 -6.78013E+03  1.58603E+03  4.41927E+03  2.82786E+03 -1.90220E+03  4.04619E+03  3.49047E+03
 -2.48827E+01 -1.55396E+03  1.45149E+03  3.15055E+03  7.80089E+02 -1.21324E+03 -4.55371E+02  1.81771E+02
 -2.63656E+03  1.98972E+03  9.17249E+03  2.11334E+02 -7.24494E+02  1.59252E+03  1.65196E+03  3.84783E+03
 -5.36405E+03  4.60385E+03 -4.63154E+03  2.88523E+03 -3.85822E+02 -1.98948E+03  1.31640E+03 -2.00611E+03
  3.48736E+01  2.60820E+03 -1.27690E+03  2.46826E+03 -1.77794E+03 -2.07854E+03  1.28002E+03 -7.33461E+02
 -5.78523E+03  3.18166E+03 -2.49755E+03 -3.31822E+03 -1.53143E+03  2.45118E+03  4.47062E+03 -4.74340E+03
  3.68766E+02 -1.06211E+03 -5.04815E+03  3.07844E+03  2.65290E+02  3.50223E+03  3.67237E+03  1.54652E+03
 -1.08521E+03 -1.70070E+03 -1.65193E+03  2.41054E+03  1.64507E+03 -7.33584E+02 -2.43517E+03  3.80761E+03
  1.76653E+03 -2.66021E+03  3.16278E+03 -3.14545E+03  4.55004E+03  2.36627E+03  1.80451E+03  8.43296E+02
 -2.36713E+03  2.09354E+03 -3.94231E+03  1.06898E+03 -9.99769E+02 -1.55809E+03  3.56199E+03  3.79768E+03
  2.54968E+03 -1.52109E+03  2.30428E+02  1.35985E+03  4.46448E+03  5.63168E+03 -3.57854E+03  4.98667E+03
  1.35044E+03  3.75487E+03 -8.74723E+01 -8.85898E+02  1.76090E+03 -2.51449E+03  5.55187E+02  3.02354E+03
  1.55715E+03 -2.46639E+02 -4.92669E+02 -4.08659E+00  1.66364E+03 -6.08522E+03 -2.00298E+03 -4.52111E+03
 -6.51319E+02 -1.37762E+03 -1.67211E+03 -3.53168E+03  4.34111E+03 -4.64913E+03  2.44202E+02  1.97753E+03
  2.18762E+02 -1.69479E+03 -1.45729E+03  1.68615E+03  4.44050E+02  5.41945E+03 -5.04192E+02 -2.52777E+03
  1.06841E+03 -8.94805E+02  2.41250E+03 -1.86853E+03  1.32220E+03  1.54167E+03 -5.01526E+03 -4.01692E+03
  3.34445E+03 -1.91447E+02  3.81191E+03  3.26924E+02  4.29466E+03 -1.38629E+03 -2.44605E+03  9.48033E+02
  1.70790E+02 -1.06390E+03  1.62945E+03  1.35382E+02  4.46312E+02  2.80339E+02 -1.47825E+03 -1.17743E+03
 -2.22832E+02  4.21231E+02 -2.49870E+03  1.06297E+03 -3.49814E+03 -1.71376E+03 -4.54904E+02  1.09823E+03
 -2.64873E+03  6.31307E+02 -1.08098E+02  2.10240E+03  8.77473E+02 -1.83809E+02 -8.56904E+02 -2.95552E+03
  2.33984E+03  2.67035E+03  7.43110E+03 -1.18239E+03  1.22399E+03  4.58416E+01  2.17734E+02 -1.92250E+03
  2.86405E+03  1.49417E+03  1.81295E+03  5.10030E+03 -2.77831E+03  2.53949E+03  6.44111E+02  2.53594E+03
  3.32665E+03  2.19298E+03 -1.66454E+03 -3.89292E+03  2.65865E+02  2.99054E+03 -1.20265E+03 -2.79874E+03
 -1.34021E+03  2.40696E+03 -1.90222E+03 -5.52395E+02 -3.98807E+03  3.50796E+03 -1.61860E+03 -1.08692E+03
  5.16584E+02  5.43354E+01  1.09356E+03 -8.01236E+02  1.44366E+03  4.97740E+03  3.76701E+02  2.90949E+02
  1.59518E+03  1.20551E+03  3.71586E+03 -1.47596E+03 -4.28975E+03  4.05731E+02 -2.64593E+03  1.74154E+02
  1.43205E+03 -2.33947E+03 -1.88242E+03 -9.43559E+02 -1.01110E+03 -1.42611E+03 -5.75516E+02 -1.34450E+00
 -1.99514E+03 -6.26987E+02 -3.29206E+02 -2.07121E+03 -1.95287E+02 -2.78251E+03 -2.31075E+03 -2.16844E+03
