 $NMID ID='MM_0lb_SNR50_17hz_g50_80.RAW', FMTDAT='(8E13.5)'
 TRAMP=1., VOLUME=1. $END
  3.05120E+05  9.50107E+02  3.37346E+05  2.49569E+05  8.75441E+04  3.35203E+05 -1.29253E+05  2.51208E+05
 -1.91627E+05  8.38671E+04 -1.12354E+05 -3.68988E+04 -4.19384E+03 -5.25492E+04  5.37821E+04 -3.48068E+01
  3.48252E+04  5.54265E+04 -1.48164E+04  7.31334E+04 -6.26446E+04  6.24560E+04 -8.22032E+04  3.38366E+04
 -7.96255E+04 -9.15054E+03 -5.60133E+04 -5.28565E+04 -1.74693E+04 -6.93128E+04  2.71259E+04 -4.67833E+04
  3.94025E+04  2.85411E+03  1.83668E+04  4.49357E+04 -3.18527E+04  4.67441E+04 -6.28154E+04 -2.79491E+03
 -5.34915E+04 -5.73143E+04 -6.35558E+03 -7.36045E+04  3.92482E+04 -5.37388E+04  4.90489E+04 -1.89765E+04
  3.88033E+04  1.21115E+04  3.30659E+04  2.54336E+04  1.19584E+04  2.83906E+04 -4.45010E+03  3.04960E+04
 -1.75690E+04  1.20819E+04 -1.78821E+04 -3.67394E+03  1.42331E+03 -5.08414E+03  2.69147E+04  9.78738E+03
  8.32702E+03  3.35687E+04 -3.09149E+04  3.50689E+04 -6.28302E+04  2.23581E+02 -5.86424E+04 -4.53519E+04
 -9.98391E+03 -6.47744E+04  4.02482E+04 -4.32572E+04  5.89799E+04 -2.30738E+02  3.10667E+04  3.47481E+04
 -5.38675E+03  3.42203E+04 -3.05884E+04  1.11858E+04 -3.04445E+04 -5.32157E+03 -1.46712E+04 -8.69181E+03
 -1.06413E+04 -1.64280E+04 -5.32761E+03 -1.78220E+04  8.97566E+03 -2.80664E+04  1.28673E+04 -1.44052E+04
  9.03012E+03 -1.16275E+01 -8.60976E+03  1.27641E+04 -1.98495E+04 -3.54812E+03 -1.01878E+04 -2.96984E+04
  2.47461E+04 -4.31034E+04  4.40407E+04 -1.84872E+04  3.99597E+04  1.62776E+04  1.07132E+04  4.20606E+04
 -1.50354E+04  3.40510E+04 -2.21462E+04  4.24858E+03 -8.33426E+03 -2.54931E+04  1.87238E+04 -3.34982E+04
  4.60455E+04 -1.42725E+04  2.97813E+04  2.16753E+04  1.85003E+04  4.43336E+04 -6.69990E+03  5.04593E+04
 -3.41249E+04  3.33811E+04 -4.16796E+04  9.90883E+03 -3.87694E+04 -1.61359E+04 -2.22200E+04 -3.15361E+04
  6.43856E+03 -3.78258E+04  2.85249E+04 -1.31734E+04  2.46963E+04  9.53341E+03  5.87274E+03  1.99225E+04
 -1.73786E+04  7.93954E+03 -1.31148E+04 -3.43412E+03  7.05502E+03 -9.15329E+03  1.74056E+04  4.77547E+03
  1.31985E+04  2.08526E+04 -9.21064E+03  2.65261E+04 -1.86666E+04  7.60049E+03 -2.75836E+04 -3.66580E+03
 -1.68137E+04 -1.81153E+04 -4.90886E+03 -1.61789E+04  4.85822E+03 -1.46270E+04  1.54343E+04 -1.71922E+04
  2.60161E+04 -1.22066E+04  2.80869E+04  1.57697E+03  2.59646E+04  1.80637E+04  1.44471E+03  3.65271E+04
 -1.56279E+04  2.79158E+04 -2.99318E+04  8.94251E+03 -2.00501E+04 -1.04452E+04 -8.15042E+03 -1.65064E+04
  3.35434E+03 -2.17163E+03 -6.67878E+03  5.79678E+03 -1.41081E+04  6.49448E+03 -1.21532E+04 -9.15514E+03
 -1.30261E+04 -1.87150E+04  5.31800E+03 -2.07946E+04  1.44387E+04 -9.40604E+03  1.57377E+04 -2.32072E+03
  1.04013E+04  8.84219E+03 -5.18990E+03  1.56516E+04 -1.06868E+04  6.76014E+03 -1.58129E+04 -8.21130E+03
 -8.94581E+03 -1.54753E+04 -1.25868E+03 -2.27106E+04  1.02601E+04 -1.43318E+04  1.66910E+04 -8.45302E+03
  1.56842E+04 -1.08774E+02  1.14390E+04  7.67318E+02  1.21959E+03 -1.07572E+03  8.80617E+03 -2.95479E+03
  1.90192E+04  2.16316E+03  1.40401E+04  1.70942E+04  1.04771E+04  2.58066E+04  2.76906E+03  3.43978E+04
 -2.02778E+04  2.30230E+04 -2.76323E+04  1.11314E+04 -2.70851E+04 -1.77307E+03 -2.09445E+04 -9.93484E+03
 -1.21164E+04 -2.47499E+04  8.23155E+03 -2.49409E+04  1.77890E+04 -6.48214E+03  1.35838E+04  6.08900E+03
  2.92868E+03  1.05084E+04 -4.85313E+03  1.42184E+04 -1.59873E+04  5.89723E+03 -1.48465E+04 -9.37353E+03
  2.52883E+03 -1.42441E+04  4.86256E+03 -1.57581E+04  1.01901E+04 -7.43649E+02 -1.32327E+03  5.43325E+03
 -7.25259E+03  4.78882E+03 -3.37275E+03 -5.92600E+03 -3.79439E+03 -9.63841E+03  1.00196E+04 -1.42031E+04
  1.46171E+04 -3.90473E+03  1.00912E+04  4.77886E+03  1.12440E+04  6.60200E+03  5.67504E+03  1.24774E+04
 -2.39406E+03  1.61644E+04 -1.39102E+04  9.00704E+03 -1.42466E+04  1.64047E+03 -9.98457E+03 -5.66847E+03
 -3.53280E+03 -5.44726E+03 -3.60632E+03 -1.76469E+03 -1.25730E+03  4.35265E+01 -4.78494E+03  3.51309E+03
 -8.53110E+03 -2.81041E+03 -7.57526E+03 -8.39514E+03 -2.23278E+03 -1.74111E+04  8.48177E+03 -8.64192E+03
  7.38210E+03 -4.88209E+03  2.90732E+03  2.26649E+03  2.63625E+03  5.14823E+03 -4.30712E+03  1.80815E+03
 -5.43078E+03 -5.10693E+03  1.72655E+03 -1.01262E+04  5.12146E+03 -8.77372E+03  8.96541E+03 -4.07158E+03
  1.81111E+04 -9.82003E+01  1.24259E+04  8.59387E+03  3.34942E+03  1.46007E+04 -7.94307E+02  7.12985E+03
 -8.04993E+03  2.84696E+03 -5.30030E+03  5.51858E+02  2.12793E+03 -2.32830E+03  9.12695E+03 -3.70578E+03
  9.39854E+03  4.05148E+02  7.94540E+03  5.29793E+03 -8.63617E+03  6.48742E+03 -7.35567E+03 -1.62991E+03
 -1.47603E+03 -2.86586E+03  1.42068E+02 -3.54444E+03  7.53811E+03 -6.22076E+03  2.93083E+03  2.94909E+03
  7.07136E+02  1.22283E+02 -5.33669E+03  8.21899E+03 -9.35535E+03  3.83836E+03 -4.92320E+03 -4.24484E+03
 -3.08992E+03 -1.09667E+04  3.71407E+03 -6.51070E+03  6.96840E+03 -2.82987E+03  4.79458E+03 -1.26279E+03
  2.52254E+03  5.75474E+03 -1.12835E+03  7.66585E+03 -6.50423E+03  9.54114E+03 -1.02164E+04 -2.25539E+03
 -1.05274E+04 -1.07835E+04 -9.68308E+02 -6.00960E+03  5.12341E+03 -5.03119E+03  3.06188E+03 -5.06028E+03
  2.06132E+02 -1.66178E+03 -5.45858E+02  3.07783E+03  1.96495E+03  4.36326E+03  2.70794E+03  6.81500E+02
  6.81948E+03 -3.18663E+03  5.59762E+03  1.45020E+03  5.71426E+03  7.50792E+03  9.40821E+03  1.06624E+04
 -5.91365E+02  9.69961E+03 -5.85578E+03  7.94586E+03 -1.20781E+04  2.88388E+03 -5.81680E+03 -1.42461E+03
 -1.45738E+03 -5.94864E+03  2.41518E+03 -5.91955E+03  3.00471E+02 -1.68903E+03  2.18224E+03 -3.12640E+03
  1.75132E+03 -1.48862E+03  1.59018E+03  1.83928E+03  2.30986E+03 -6.41906E+02  1.61314E+03 -3.02024E+03
  4.73052E+03  2.28921E+03 -2.44206E+03  7.75716E+03 -2.68351E+03  2.97271E+03 -4.41104E+03  4.19540E+03
 -5.21848E+03  1.48083E+03 -5.22671E+03 -4.41846E+03 -2.50081E+03 -4.30188E+03  1.40679E+03 -9.73063E+03
  8.25490E+03 -6.94264E+03  9.41484E+03 -3.25835E+03  5.34130E+03  5.46112E+03  4.60651E+02  6.04739E+03
 -2.88048E+03  4.55496E+03 -4.84479E+03  4.24842E+03 -1.05395E+03  1.02571E+03 -2.80247E+03  1.86536E+03
  1.00578E+03  1.69592E+03 -1.61530E+03 -4.16600E+03 -2.65807E+03  7.91428E+03 -7.15698E+02 -1.04775E+02
 -4.24715E+03 -1.00290E+04  2.95980E+03 -5.11297E+03  3.34172E+03 -6.18109E+03  5.90263E+03 -4.96588E+03
  8.63040E+03 -6.37749E+02  1.57886E+03  6.94551E+03 -1.95464E+03  4.47463E+03 -1.77780E+03  4.36113E+03
 -2.89209E+03 -1.22273E+03 -6.96588E+03 -3.96160E+03  3.96238E+03 -1.25230E+04 -4.76695E+01 -4.01747E+03
 -1.09940E+03 -1.82668E+03  3.45324E+03  2.18721E+03 -3.40897E+03  3.38028E+03  2.40474E+01  6.19003E+02
  6.02062E+03  1.89485E+03 -4.54895E+02  1.60294E+03  1.95547E+03 -1.78351E+03  6.58052E+03  7.25474E+03
 -5.78504E+03 -2.95996E+03 -2.75728E+01  6.53007E+03 -2.87742E+03 -1.94516E+02 -9.23556E+03  1.33058E+02
  4.10393E+03 -2.35904E+03  3.98528E+03 -6.23070E+03 -4.72074E+02 -3.40436E+03  5.17839E+03 -7.15029E+02
 -2.04808E+03  5.53885E+03  1.91186E+03  2.18522E+03  1.20778E+02  2.77663E+03  1.51081E+03 -3.53362E+00
  4.66331E+03 -4.83592E+03  9.02213E+02 -4.76811E+03 -3.50686E+03 -4.11439E+03  4.79665E+03 -3.42164E+02
  4.29489E+03  1.94519E+03 -6.58295E+02 -9.16850E+02  1.93654E+02 -4.67928E+02  1.99608E+03 -5.66696E+02
 -1.61395E+03  3.84407E+03 -5.04680E+02  1.78358E+03 -1.74628E+03  3.80964E+03 -9.17858E+02  1.94417E+03
 -2.37157E+03  1.06424E+03 -3.33765E+03 -1.20855E+03 -1.93826E+01  7.98913E+02 -1.52960E+02 -2.16324E+03
  1.30257E+03  1.70397E+02  4.22422E+02  4.49250E+02  5.24403E+03  6.49239E+03 -4.23243E+03  2.36465E+03
  7.55020E+02 -7.67702E+02 -5.67731E+02  2.27102E+02 -3.17223E+03 -5.11731E+03  2.64423E+03 -4.96329E+03
  3.33346E+03  1.24356E+03  4.08927E+02 -2.15022E+03  6.76162E+03 -3.49029E+03 -2.87880E+03 -1.31833E+03
  1.73719E+03 -8.45321E+02  1.89071E+03 -2.35693E+02  2.82581E+03 -4.73999E+03  4.80002E+03  5.85863E+02
  2.80716E+03 -4.51906E+02  3.24804E+03  3.31124E+03  3.49229E+03  2.30409E+03  1.06949E+03  2.76801E+03
 -3.49845E+03  1.04020E+03 -3.93523E+03  2.56619E+03  3.27648E+03  2.63152E+03  4.77027E+03  2.75759E+03
  5.56512E+03 -4.41550E+02  1.84478E+03  4.22986E+02  5.73467E+02  9.45350E+02  2.29214E+02 -1.85141E+03
 -4.23562E+03  3.83375E+03  9.41241E+02  4.22006E+03  4.59221E+03  1.80255E+03  2.87234E+03 -1.48292E+03
  2.67573E+03  9.68050E+02 -3.30752E+03  1.18307E+03 -1.31971E+03 -1.76170E+03 -4.54147E+03 -2.63803E+03
  4.06906E+03 -4.93048E+03 -3.06971E+03 -3.48265E+03 -4.72402E+01 -4.83194E+03  1.76033E+03 -4.67796E+03
  6.92736E+03 -6.37336E+02  4.99510E+03  2.14853E+03 -1.92999E+03 -2.16397E+03 -1.71919E+03 -1.62234E+03
 -1.60295E+03 -5.77795E+03 -2.90788E+03 -1.58056E+03  1.05703E+03 -5.89934E+03  1.44769E+03 -9.60008E+02
 -9.66188E+02 -6.17509E+03 -1.10478E+03 -2.25875E+03  3.32863E+03  1.30990E+02 -1.21308E+02 -1.39994E+03
  1.01658E+03  1.35879E+02 -2.41155E+03  4.64103E+03 -4.71267E+03 -6.51468E+02 -1.09393E+03 -1.64833E+03
  1.34899E+03  6.68167E+03 -2.35611E+03  7.67956E+01 -4.05671E+03 -1.09307E+03 -1.76354E+02  2.86613E+03
  2.48172E+02 -3.99098E+03  3.43137E+03 -1.87755E+03  2.11207E+03 -2.08566E+02  2.58133E+03  2.78914E+03
 -4.34936E+02  3.48824E+03 -2.16160E+03  4.82738E+03 -5.21492E+03 -1.57140E+03  5.55115E+02 -1.18601E+03
  8.99476E+01  2.51555E+03 -9.22708E+02 -3.57577E+03 -7.40345E+02  1.56704E+03 -5.71542E+03  1.26399E+03
  1.23952E+03 -2.35011E+03 -1.15334E+03  1.54034E+03 -2.75437E+03  5.27861E+02 -1.99238E+03  1.74901E+02
  1.73829E+03  7.13954E+02  4.45885E+03 -4.16459E+03  1.69652E+03 -2.47221E+03 -1.95245E+03 -5.47584E+01
 -4.93775E+03 -2.17219E+03  1.45723E+03 -2.24623E+03 -1.91834E+02 -3.69833E+03  1.37101E+02  2.73225E+03
  9.19210E+02  1.00034E+03  8.91909E+02 -2.52300E+03 -1.57229E+03  1.40997E+02  2.38315E+03  2.12797E+03
  5.20108E+03 -4.03951E+03  2.11628E+03 -1.73476E+03 -8.59513E+02 -3.72145E+03 -2.00726E+03 -3.43905E+02
  4.04329E+03  1.66302E+03  3.32366E+03  4.34885E+03 -2.66265E+03 -1.94590E+02 -4.49534E+03  1.14940E+03
