 $NMID ID='MM_0lb_SNR50_7hz_g40_32.RAW', FMTDAT='(8E13.5)'
 TRAMP=1., VOLUME=1. $END
  3.09758E+05 -5.75089E+02  3.35825E+05  2.46754E+05  8.68873E+04  3.42898E+05 -1.31362E+05  2.50978E+05
 -1.98268E+05  9.09791E+04 -1.14933E+05 -3.70487E+04 -2.72646E+03 -5.18790E+04  5.38747E+04 -2.72432E+03
  3.38826E+04  5.68041E+04 -2.03210E+04  8.03066E+04 -5.78261E+04  5.90808E+04 -8.60583E+04  3.01114E+04
 -8.70951E+04 -3.67788E+03 -5.82067E+04 -5.28820E+04 -2.11428E+04 -6.73309E+04  2.53106E+04 -4.83461E+04
  4.41259E+04  1.33118E+04  1.52915E+04  4.58319E+04 -3.51096E+04  5.24241E+04 -6.22692E+04  3.19900E+03
 -5.55070E+04 -5.90902E+04 -1.19896E+04 -7.34364E+04  3.38321E+04 -4.88128E+04  4.83499E+04 -1.91514E+04
  4.13449E+04  1.04754E+04  2.71682E+04  2.69466E+04  1.29276E+04  2.71201E+04  9.21881E+02  3.40118E+04
 -2.53161E+04  1.00077E+04 -2.30952E+04 -1.11146E+04  2.93110E+03 -1.03468E+04  2.79113E+04  9.74449E+03
  6.81747E+03  4.01762E+04 -2.83046E+04  3.67840E+04 -6.50977E+04 -2.82212E+03 -5.66862E+04 -4.57097E+04
 -1.24811E+04 -7.51323E+04  4.10363E+04 -4.92649E+04  6.34225E+04 -2.97052E+03  4.52345E+04  3.27376E+04
 -7.84326E+03  3.73420E+04 -4.13004E+04  1.79091E+04 -3.62744E+04  1.70684E+02 -1.89748E+04 -1.28614E+04
 -1.04049E+04 -1.83524E+04  5.83747E+03 -2.17654E+04  1.26366E+04 -2.00132E+04  1.44811E+04 -6.47262E+03
  5.89502E+03  6.86867E+03 -2.62092E+04  1.53623E+04 -2.79844E+04 -5.47692E+03 -8.60708E+03 -3.88867E+04
  2.20372E+04 -4.84843E+04  5.00096E+04 -3.06480E+04  4.36869E+04  2.55848E+04  1.87223E+04  4.64448E+04
 -1.27437E+04  3.57637E+04 -3.31674E+04  1.03161E+04 -2.14716E+04 -3.14483E+04  2.64019E+04 -4.71261E+04
  3.67585E+04 -6.38620E+03  4.23582E+04  2.51515E+04  2.09663E+04  5.09231E+04 -4.00335E+03  5.92427E+04
 -3.48141E+04  4.21508E+04 -4.09488E+04  1.45253E+04 -5.06641E+04 -1.49954E+04 -2.45187E+04 -3.80860E+04
  7.81920E+03 -3.94877E+04  3.18205E+04 -2.22293E+04  3.67417E+04  1.36118E+04  1.60637E+03  2.43582E+04
 -1.82249E+04  1.18816E+04 -1.59966E+04 -1.15303E+04  5.97758E+03 -7.16245E+03  2.29328E+04  1.87186E+03
  2.11003E+04  2.66351E+04 -8.66724E+03  3.12191E+04 -2.64384E+04  1.80892E+04 -2.59281E+04 -7.23180E+03
 -2.97179E+04 -2.15798E+04 -1.43219E+04 -2.67885E+04 -2.67289E+03 -2.71452E+04  2.38143E+04 -2.26222E+04
  2.96431E+04 -1.36583E+04  4.14848E+04  3.93883E+03  2.73646E+04  3.50826E+04  5.50521E+03  4.26602E+04
 -2.21319E+04  3.12093E+04 -2.62519E+04  1.25145E+04 -2.75486E+04 -9.96868E+03 -7.94445E+03 -9.69421E+03
  1.61557E+03  2.08517E+03 -1.18960E+04  1.77171E+03 -2.63755E+04  9.37146E+02 -1.93795E+04 -1.30151E+04
 -3.62286E+03 -3.37960E+04  9.28996E+03 -2.70049E+04  1.87296E+04 -1.91818E+04  2.30374E+04 -1.23446E+03
  1.03767E+04  1.36050E+04 -2.42036E+03  2.67367E+04 -1.78060E+04  1.95852E+04 -3.16853E+04  2.84846E+03
 -1.84230E+04 -2.67855E+04 -2.56278E+03 -3.15656E+04  1.05491E+04 -2.55312E+04  3.01870E+04 -1.00820E+04
  2.29729E+04 -2.46995E+03  1.14730E+04  2.99120E+03  4.15458E+03 -1.26827E+03  1.19707E+04 -3.84940E+03
  2.27009E+04  2.36558E+03  3.02345E+04  1.43145E+04  1.64094E+04  4.66657E+04 -2.20951E+03  4.74366E+04
 -2.71040E+04  4.72852E+04 -4.57043E+04  2.21171E+04 -3.95616E+04 -6.16025E+03 -3.58103E+04 -2.64858E+04
 -1.53165E+04 -4.12427E+04  2.03639E+04 -3.36460E+04  3.15339E+04 -1.65696E+04  2.16237E+04  6.47445E+03
  1.44465E+04  1.69632E+04 -1.52970E+04  1.93730E+04 -2.74845E+04  3.14106E+02 -1.30179E+04 -1.14009E+04
 -2.44115E+03 -1.55994E+04  8.56040E+03 -1.55376E+04  1.65253E+04  2.70660E+03  3.00119E+03  8.98579E+03
 -1.35879E+04  6.01797E+03 -1.48498E+04 -1.10562E+04 -3.89264E+03 -2.08148E+04  1.06531E+04 -1.72437E+04
  2.05442E+04 -1.22509E+04  2.96547E+04  5.40603E+03  3.20014E+04  1.21250E+04  3.64358E+03  2.89730E+04
  5.26806E+02  3.43524E+04 -1.94616E+04  2.06912E+04 -2.23876E+04  3.64299E+03 -1.94573E+04 -1.24867E+04
 -7.20193E+03 -1.57870E+04 -3.45301E+03 -4.90203E+03  1.62072E+03  2.89004E+03 -9.74408E+03  8.70012E+03
 -1.54176E+04 -2.73582E+03 -1.54304E+04 -1.04127E+04 -4.62013E+03 -2.46500E+04  1.30874E+04 -1.75759E+04
  1.65237E+04 -1.66461E+04  8.69971E+03  1.46871E+03  6.07544E+03  9.49099E+03 -1.59489E+04  4.29403E+03
 -9.86525E+03 -1.12932E+04  1.37812E+03 -2.18163E+04  1.52928E+04 -1.00205E+04  1.61310E+04 -4.43698E+03
  2.82135E+04  3.67925E+03  2.41933E+04  2.07433E+04  7.65585E+03  1.77288E+04 -9.11615E+03  1.29834E+04
 -1.50388E+04  3.19630E+02 -6.97604E+03  5.26863E+03  1.87048E+03 -9.72680E+03  6.14778E+03  1.55011E+03
  9.55605E+03  9.21240E+03  1.88570E+03  1.03609E+04 -9.95943E+03  1.62325E+04 -1.23151E+04  1.24814E+03
 -1.31310E+04 -4.18071E+03  1.83987E+03 -1.78058E+04  1.00683E+04 -9.49040E+03  7.45266E+03  5.79112E+02
  5.40416E+03  1.29952E+04 -8.94504E+03  1.27975E+04 -1.98756E+04  5.83729E+02 -1.27324E+04 -1.64008E+03
 -1.29468E+04 -1.66544E+04  5.07874E+03 -1.52236E+04  1.76082E+04 -1.92888E+04  1.34683E+04  2.82995E+03
  9.85760E+03  2.08107E+04 -1.04456E+04  1.36951E+04 -9.23768E+03  8.22126E+03 -1.62944E+04  1.92751E+03
 -1.14158E+04 -6.49961E+03  4.14138E+02 -1.18229E+04  7.30943E+03 -1.55058E+04  9.36737E+03 -1.22692E+03
  2.90484E+03 -1.79863E+03 -3.29007E+03  1.86604E+03  4.06474E+03 -8.82220E+03  1.27101E+02 -9.70990E+03
  1.49423E+04 -8.06149E+02  2.23338E+04  2.51236E+03  1.61852E+04  1.10110E+04  6.74169E+03  3.37326E+04
 -7.06637E+03  2.92892E+04 -2.76661E+04  2.33427E+04 -2.47524E+04 -2.69631E+03 -2.82201E+04 -9.49088E+03
 -1.02788E+04 -2.59306E+04 -1.19922E+03 -1.29497E+04  4.65560E+03 -1.57551E+04  1.02529E+04 -6.79606E+03
  8.31162E+03 -2.29626E+03  4.48709E+03 -4.96952E+02  8.48137E+03 -3.84833E+03  6.04119E+02 -6.59548E+03
  1.14120E+04  6.43791E+03  1.26612E+04  6.49574E+03 -9.89536E+03  1.17109E+04 -1.12575E+04  1.41113E+04
 -2.46550E+04 -4.32361E+03 -1.39902E+04 -1.61085E+04  6.78013E+03 -2.09033E+04  1.42068E+04 -1.90438E+04
  1.79945E+04 -1.08124E+04  3.21990E+04  4.56243E+03  1.00492E+04  1.61857E+04  2.57110E+03  1.30497E+04
 -6.78509E+03  1.90541E+04 -1.60909E+04  5.29075E+03 -1.35156E+04  5.40240E+02 -8.91907E+03 -2.48753E+03
  2.03361E+01 -4.45647E+03 -3.44169E+03  5.24797E+03 -9.18668E+03  3.68995E+03 -1.32285E+04 -1.37855E+03
 -1.28156E+04 -1.11095E+04 -7.09945E+02 -2.63211E+04  6.35506E+03 -1.97638E+04  1.03090E+04  3.48268E+02
  1.47642E+04  1.45383E+04  1.12023E+04  2.51326E+04 -5.23708E+03  1.56887E+04 -1.89696E+04  1.77318E+04
 -1.63642E+04  6.01507E+03 -1.02219E+04 -5.49606E+03 -1.05327E+03 -1.31533E+04  1.63678E+04 -1.18049E+04
  9.69836E+03 -1.00786E+04  6.69089E+03  1.53759E+02  5.53128E+03  6.62043E+03 -1.96537E+03  7.56161E+02
  4.72802E+03  7.96276E+02  3.54962E+03 -1.68625E+03  1.20088E+03  5.96453E+03  6.57278E+03  1.30966E+04
 -3.39307E+03  1.33822E+04 -1.51620E+04  3.75991E+03 -1.54102E+04  1.16679E+04 -1.44144E+04 -9.53931E+03
 -1.26524E+03 -1.94514E+04  1.01023E+04 -1.89639E+04  1.87613E+04 -1.87687E+04  1.07129E+04 -4.15968E+03
  1.71142E+04  6.76696E+03  8.68467E+03  8.51115E+03 -4.13021E+03  9.99767E+03 -1.46133E+04  2.75952E+02
 -6.00936E+03 -6.72492E+03  4.30171E+03 -7.14258E+03  1.66254E+03 -4.76770E+03  5.80468E+03  2.03514E+03
  5.74752E+03  3.33331E+03  1.64703E+03  7.58061E+03 -4.78716E+03  3.67849E+03  3.70319E+01  1.28869E+04
  5.38395E+03 -3.30255E+03 -3.09944E+03  9.19892E+03  4.66051E+03  4.12064E+03  7.84385E+02  1.34459E+04
 -5.92152E+03  5.35482E+03 -1.19612E+04  7.72931E+03 -1.12752E+04  2.15554E+03  3.94291E+03 -2.76063E+03
 -3.52851E+02 -5.30039E+03  7.87630E+03 -1.04066E+04 -1.25973E+03  4.60919E+02 -7.12163E+03  7.12365E+03
 -7.87659E+03 -3.93144E+02 -1.56370E+04 -8.15616E+03 -7.33550E+03 -1.36543E+04 -3.58017E+03 -1.51275E+04
  6.38474E+03 -5.79684E+03  1.31676E+04 -5.50879E+03  7.34817E+03 -8.02140E+02  3.53605E+03  1.05710E+04
 -4.00863E+03  9.06420E+03 -1.11303E+04 -3.50399E+03  1.89400E+03 -5.06561E+03  6.25555E+03 -6.10244E+03
  2.04807E+04  1.06716E+02  9.88755E+02  4.95451E+03  8.27878E+03  1.16200E+04 -1.21176E+04  9.92117E+03
 -1.34364E+04  3.78783E+03 -1.04357E+04 -2.23646E+03  1.11449E+03 -8.96703E+03  1.52066E+03 -8.97979E+03
  1.06227E+04 -3.85044E+03  3.65350E+03  3.65536E+03 -2.55205E+03  4.38858E+03 -4.48294E+02 -2.89738E+03
 -3.43113E+03  1.12722E+04 -1.66820E+03  2.21274E+03  2.44167E+03  1.96571E+03 -5.40705E+03 -1.53880E+03
 -2.83945E+03  5.87337E+03 -8.56420E+03  1.00607E+01 -1.53290E+04 -3.87340E+03 -6.33577E+03 -2.80200E+03
 -6.77231E+03 -1.63795E+04 -4.05299E+03 -2.22018E+04  7.91945E+03 -1.24900E+04  1.88505E+04 -1.10399E+04
  1.63570E+04  1.22277E+04  1.62046E+04  1.20292E+04  2.68667E+03  1.45751E+04 -1.14579E+04  1.42300E+04
 -9.66101E+03  1.64339E+04 -4.92753E+03 -1.99091E+03 -5.42614E+03 -5.35738E+03 -6.57280E+02 -1.00983E+03
  2.26689E+03 -9.09893E+02 -2.23477E+03  2.04149E+03 -5.62993E+03 -1.21302E+03  8.98555E+01 -1.42502E+04
  7.31433E+03 -7.35807E+03  8.38624E+03 -2.23171E+03  8.88129E+03  1.38316E+04  4.11459E+03  1.79162E+04
 -4.93310E+03  1.91165E+04 -2.06127E+04  1.24001E+04 -1.62930E+04  3.00742E+03 -1.45641E+04 -3.78109E+03
 -2.65648E+03 -1.10557E+04 -6.42807E+02 -1.47626E+04  1.37711E+04 -1.04310E+04  4.92213E+03 -2.76354E+03
  1.43413E+04  7.81035E+03 -4.12058E+03  4.14907E+03  3.88165E+03  2.78546E+03  7.63286E+03 -5.57020E+03
  1.14934E+03 -3.86566E+03  4.85915E+03 -3.93888E+03 -2.23213E+03  3.43895E+03  4.77505E+02 -2.34553E+03
 -5.40137E+03  2.79112E+03 -1.47092E+04  2.00573E+03 -1.20935E+04 -1.33881E+04 -5.97449E+03 -1.47087E+04
  5.60167E+03 -1.39241E+04  1.81840E+04 -3.06235E+02  9.11774E+03  2.83537E+03  4.15877E+03  8.69380E+03
  1.46753E+03  1.42513E+04 -2.12925E+03  5.07717E+03 -1.03596E+04  2.14933E+03 -5.68808E+03 -6.76042E+03
 -3.02757E+03  1.10212E+03 -8.61439E+03 -4.59766E+03 -4.26546E+03  1.94239E+03 -9.80079E+03  6.60364E+03
 -7.63993E+03 -9.14322E+03 -3.93509E+02 -7.12127E+03  4.40336E+03 -1.28373E+04  1.10271E+04 -1.59121E+03
  7.84747E+03  1.31971E+03  5.43134E+03  4.57537E+03  5.36452E+03  1.25018E+04 -3.32341E+03  7.41450E+03
