 $NMID ID='MM_0lb_SNR50_7hz_g55_37.RAW', FMTDAT='(8E13.5)'
 TRAMP=1., VOLUME=1. $END
  3.10764E+05 -5.01368E+02  3.38618E+05  2.55547E+05  9.05401E+04  3.39175E+05 -1.22080E+05  2.54578E+05
 -1.99243E+05  8.36967E+04 -1.12170E+05 -3.61885E+04 -1.02002E+02 -5.22929E+04  6.08946E+04 -2.19889E+03
  3.45016E+04  5.99768E+04 -1.27564E+04  7.62723E+04 -5.91608E+04  6.85026E+04 -8.85067E+04  3.37015E+04
 -8.99926E+04 -1.11298E+04 -5.94089E+04 -5.62926E+04 -1.31813E+04 -6.76275E+04  3.28803E+04 -4.88731E+04
  4.57136E+04  6.88230E+03  8.23393E+03  4.58786E+04 -3.49099E+04  4.77876E+04 -7.41106E+04  1.10586E+02
 -5.41073E+04 -4.59841E+04 -2.33244E+03 -8.01099E+04  3.46203E+04 -5.41878E+04  5.05155E+04 -2.53983E+04
  4.82374E+04  9.36631E+03  3.51017E+04  2.14013E+04  1.04110E+04  3.36489E+04 -7.17105E+03  3.16712E+04
 -2.47235E+04  8.91240E+03 -1.62477E+04 -7.01611E+03  1.33077E+04 -9.20680E+03  2.56066E+04  1.26543E+04
  1.96084E+03  4.41269E+04 -3.53475E+04  3.30972E+04 -7.08991E+04 -3.80381E+03 -6.53661E+04 -4.57350E+04
 -1.08693E+04 -6.37575E+04  4.00277E+04 -4.92279E+04  6.48709E+04 -8.69141E+03  3.79725E+04  3.05099E+04
 -4.75796E+03  3.72922E+04 -2.80004E+04  1.70755E+04 -3.56946E+04 -4.60207E+03 -2.19166E+04 -7.98967E+03
 -5.16456E+03 -1.40660E+04 -1.63982E+03 -1.82240E+04  1.04142E+04 -2.93558E+04  1.92059E+04 -1.16917E+04
  7.54492E+03  9.27119E+01 -1.93542E+04  1.21549E+04 -2.59074E+04 -1.10421E+04 -1.25013E+04 -3.52308E+04
  2.89771E+04 -5.66245E+04  5.82577E+04 -2.53899E+04  5.10913E+04  1.28972E+04  5.19630E+03  4.11582E+04
 -1.88834E+04  3.95425E+04 -3.17305E+04  5.50459E+03 -1.39447E+04 -3.31704E+04  2.75927E+04 -3.98249E+04
  4.09896E+04 -9.39715E+03  4.43434E+04  2.32694E+04  2.14913E+04  5.73638E+04 -8.69337E+03  6.17585E+04
 -3.87385E+04  4.83946E+04 -5.11894E+04  1.39297E+04 -5.22281E+04 -2.46874E+04 -2.77253E+04 -4.49540E+04
  1.30622E+04 -4.20711E+04  3.15508E+04 -1.73801E+04  3.65246E+04  6.49469E+03  5.77370E+03  1.08599E+04
 -1.57978E+04  1.15759E+04 -2.19805E+04 -8.70303E+03  8.77409E+03 -6.43733E+03  1.60615E+04  7.26924E+03
  1.77386E+04  2.20710E+04 -3.23856E+03  2.73968E+04 -2.39430E+04  1.94432E+04 -2.85665E+04 -6.84430E+03
 -2.69445E+04 -2.31492E+04 -7.74049E+03 -1.55812E+04 -1.91824E+02 -2.79110E+04  1.84306E+04 -2.15591E+04
  4.07118E+04 -1.05338E+04  4.00540E+04  5.79239E+03  3.29987E+04  2.14602E+04  7.50760E+03  4.30355E+04
 -1.66781E+04  3.54529E+04 -2.95630E+04  1.13217E+04 -2.16837E+04 -5.48633E+03 -1.43745E+04 -1.62906E+04
  3.42140E+02  8.68094E+03 -4.35605E+03  7.08889E+03 -2.16226E+04 -8.84650E+02 -2.08474E+04 -2.70634E+03
 -2.24425E+04 -2.36745E+04  3.88697E+03 -2.76600E+04  1.63805E+04 -1.52863E+04  1.97895E+04 -2.48809E+03
  1.96154E+04  1.04132E+04  1.58577E+02  3.65523E+04 -1.90212E+04  1.64589E+04 -1.95322E+04 -4.65625E+03
 -1.70294E+04 -2.32458E+04 -4.38099E+03 -3.42683E+04  1.79210E+04 -3.02419E+04  2.38396E+04 -1.16931E+04
  2.74610E+04 -4.96029E+03  2.01082E+04  2.60030E+03  1.37973E+04  8.69739E+03  1.32941E+04 -1.02044E+03
  2.05458E+04 -4.50329E+03  2.65830E+04  2.11479E+04  2.49117E+04  4.73407E+04 -9.58152E+02  5.00971E+04
 -2.09808E+04  4.06848E+04 -4.61854E+04  2.17278E+04 -4.51184E+04 -5.10225E+03 -4.11325E+04 -2.06497E+04
 -1.97453E+04 -4.26121E+04  8.76880E+03 -2.96516E+04  3.40985E+04 -1.89908E+04  2.71688E+04  1.11510E+04
  1.54160E+04  2.24007E+04 -1.25566E+04  1.75504E+04 -2.91551E+04 -4.08686E+03 -1.80400E+04 -1.49620E+04
  2.91725E+03 -2.85264E+04  1.12459E+04 -1.34180E+04  1.43272E+04 -3.42507E+03  4.04781E+03  8.59319E+03
 -2.48123E+03  4.49649E+03 -2.61833E+03 -6.27065E+03  5.06636E+03 -1.92345E+04  1.74903E+04 -2.43601E+04
  2.78725E+04 -1.91992E+04  2.96675E+04  4.33876E+03  2.53032E+04  2.43258E+04  1.57158E+04  3.68468E+04
 -1.08247E+04  3.46592E+04 -1.81436E+04  2.72668E+04 -3.01960E+04  7.06154E+03 -1.80443E+04 -3.87986E+03
 -1.01551E+04 -1.13249E+04 -4.57728E+03 -5.05943E+02 -4.12941E+03  9.07476E+03 -1.08332E+04  5.97177E+03
 -1.27704E+04  1.11165E+03 -1.74176E+04 -1.49153E+04 -5.78516E+03 -2.18497E+04  6.17321E+03 -1.94544E+04
  1.18439E+04 -1.05485E+04  1.27058E+04  1.87305E+03  1.20346E+03  7.99176E+03 -1.41216E+04  4.16212E+03
 -1.17020E+04 -1.06338E+04 -1.00046E+04 -2.31455E+04  1.50113E+04 -1.88437E+04  2.52640E+04 -1.26235E+04
  2.39963E+04  5.91521E+03  2.19267E+04  1.92109E+04  4.27058E+03  2.57006E+04 -5.98820E+03  2.16307E+04
 -1.93255E+04  5.99209E+03 -7.93674E+03 -4.11429E+03 -2.61164E+03  1.28405E+03  1.04599E+04 -7.54764E+03
  1.46696E+04  1.17026E+04  7.56514E+02  1.77218E+04 -9.51726E+03  1.14109E+04 -1.94570E+04  3.31187E+03
 -1.10044E+04 -1.28297E+04  6.43232E+02 -2.33210E+04  1.45658E+04 -9.30032E+03  7.43981E+03  6.76017E+02
  2.17988E+03  1.60569E+04 -1.25759E+04  1.73704E+04 -1.28553E+04  9.01451E+03 -1.42902E+04 -1.33296E+04
 -9.30273E+03 -2.11861E+04  7.98903E+03 -2.55057E+04  2.58569E+04 -1.58241E+04  1.78193E+04  3.06387E+03
  1.55674E+04  2.02178E+04  5.23021E+03  2.60304E+04 -1.41276E+04  1.51928E+04 -1.29132E+04  1.65077E+03
 -1.23849E+04 -1.28751E+04  3.93005E+02 -1.89535E+04  1.04680E+04 -1.56488E+04  1.55688E+04  2.09502E+03
  9.51144E+03  6.54160E+03 -4.18272E+03  8.20846E+02  2.11018E+03 -6.57331E+03  1.41134E+04 -1.63862E+04
  5.37108E+03 -8.01966E+02  2.04366E+04  6.72569E+03  1.30418E+04  7.78846E+03  1.45087E+04  1.93471E+04
 -6.51540E+02  2.75569E+04 -1.73167E+04  2.14547E+04 -3.19513E+04  7.96302E+03 -2.44625E+04 -2.44183E+04
 -3.74919E+03 -1.79277E+04  6.72000E+03 -1.91257E+04  6.26139E+03 -9.82933E+03  8.00092E+03 -9.49189E+03
  4.27049E+03 -7.89287E+03 -6.11517E+02 -4.87644E+03  5.98040E+03 -2.77587E+03  6.25142E+03 -1.03029E+04
  1.45604E+04 -3.31647E+03  1.23595E+03  6.65604E+03 -4.51070E+03  2.20401E+04 -6.10672E+03  1.65899E+04
 -1.56488E+04 -9.98681E+02 -1.43972E+04 -1.16985E+04 -5.73250E+03 -1.71890E+04  7.88624E+03 -1.19287E+04
  1.87484E+04 -1.18566E+04  1.94356E+04  4.94501E+03  2.03218E+04  1.48313E+04 -2.87276E+03  2.63709E+04
  1.43110E+03  1.55196E+04 -1.27674E+04  9.61445E+03 -4.86709E+03 -3.56214E+03  1.39412E+03 -5.15916E+03
  1.73266E+03 -5.74658E+03 -7.11545E+03  8.49466E+03  1.41858E+03  3.11106E+03 -1.55107E+04 -1.66720E+03
 -1.26934E+04 -1.04021E+04 -5.25937E+03 -2.16338E+04  2.22502E+04 -1.20285E+04  1.13649E+04 -1.05492E+04
  2.01682E+04  7.54549E+03  7.89934E+03  1.64542E+04  3.91762E+02  2.29292E+04 -1.82739E+04  1.53775E+04
 -1.67397E+04 -4.95452E+03 -1.18670E+04 -1.36638E+04  8.10474E+02 -1.55601E+04  1.52109E+04 -1.56737E+04
  1.07511E+04 -6.94889E+03  8.10483E+03 -6.41269E+02 -3.39550E+03  7.68360E+03  8.61578E+03 -5.12007E+03
  3.45944E+03 -2.38719E+02  5.45630E+03  1.00362E+04  5.62837E+03  1.52011E+04  8.38508E+03  1.42073E+04
 -1.11755E+04  1.22972E+04 -8.57472E+03  1.60197E+04 -2.26695E+04  1.74219E+03 -2.85265E+04 -1.42676E+04
 -1.05169E+04 -1.65310E+04 -2.12703E+03 -1.38450E+04  2.05251E+04 -9.06164E+03  1.54807E+04 -1.61878E+03
  1.57378E+04  1.37472E+04  4.83650E+03  1.45997E+04 -1.25729E+04  5.18052E+03 -4.99988E+03  5.26333E+03
  5.94145E+03 -6.70382E+03 -1.36585E+03 -1.20463E+04  1.49698E+04 -3.87265E+03  8.46777E+03  2.58084E+03
  7.40509E+02 -3.59242E+03  3.16022E+03  1.12658E+03  1.17446E+03 -5.43711E+03  8.77689E+03  2.94390E+03
  3.54255E+03  2.01477E+03  1.18660E+04 -2.62810E+03  7.55991E+03  3.03770E+03  8.22015E+03  1.30111E+04
 -8.76645E+03  1.48855E+04 -1.49270E+04  6.81335E+03 -1.29362E+04 -3.26966E+03  3.46215E+03 -5.42518E+03
 -2.08281E+03 -2.26255E+03  8.48071E+03 -3.22988E+03  8.66270E+03  9.45760E+02 -4.81899E+03  6.02994E+03
 -1.62628E+04  6.07258E+02 -1.34677E+04 -1.21545E+04 -8.66559E+03 -8.77933E+03  6.96988E+03 -1.14769E+04
  2.74654E+03 -7.09426E+03  9.96622E+03  1.89642E+03  6.15522E+03  2.58275E+03  4.46017E+03  3.74177E+03
 -1.12181E+04 -6.97002E+02 -5.63839E+03  3.68761E+03 -2.49797E+03 -1.63868E+04  8.90015E+03 -2.48885E+03
  1.40803E+04 -8.87947E+02  8.91125E+03  1.36016E+04  2.15525E+03  1.60295E+04 -1.60004E+04  2.00643E+04
 -1.94356E+04  6.10514E+03 -1.34448E+04 -7.41964E+03 -7.38372E+03 -6.32939E+03  1.74330E+03 -8.15782E+03
  1.81591E+04 -6.05162E+03  7.84593E+03  5.78289E+03 -3.97548E+02  1.20198E+04 -6.87106E+02  1.15427E+04
  4.69566E+03 -5.78060E+03 -9.88467E+03  5.87367E+03 -5.77062E+03  3.95413E+03 -1.01501E+04 -1.03674E+03
 -2.83896E+03  1.06662E+04 -8.71496E+03  8.02922E+03 -1.23826E+04 -6.93825E+00 -8.02855E+03 -7.81480E+03
 -1.07916E+04 -1.64994E+04  3.92872E+03 -2.23732E+04  1.72979E+04 -1.61309E+04  2.30551E+04 -7.32752E+03
  1.59186E+04  1.39501E+03  7.81817E+03  7.52788E+03 -6.28872E+03  1.22234E+04 -1.78780E+03  1.38727E+04
 -6.67905E+03  1.93573E+03 -5.06898E+03  8.39322E+02  1.73712E+03 -1.54202E+03 -6.20145E+03 -9.28643E+03
 -1.22509E+03  8.86635E+02 -4.81836E+03 -6.24675E+03 -1.20270E+03  1.95876E+03  1.72238E+03 -8.75093E+03
  1.86223E+03 -3.40557E+03  7.21898E+03 -1.59350E+03  8.91395E+03  1.07433E+04  4.63854E+03  1.71081E+04
 -8.60749E+03  1.97311E+04 -2.61601E+04  1.39571E+04 -2.19521E+04 -2.83464E+03 -1.34545E+04 -9.71435E+03
 -1.24498E+04 -1.36274E+04 -3.28032E+03 -1.07775E+04  9.27741E+03 -1.19058E+04  9.11317E+03 -4.09898E+03
  3.38141E+03 -3.45112E+02  4.33084E+03  3.24228E+03 -1.30296E+04  2.61499E+03  2.12912E+03 -9.71758E+02
  1.86593E+03  3.24264E+03  7.62856E+02  3.69029E+03  8.69631E+03  6.02337E+03 -3.66015E+03  7.53093E+03
 -8.91994E+03  6.60316E+03 -1.49810E+04 -3.89915E+03 -1.49554E+04 -1.05584E+04  1.08923E+03 -1.65729E+04
  9.59529E+03 -1.16839E+04  1.85207E+04 -2.51907E+03  1.97743E+04  1.01974E+04  6.55766E+03  8.57738E+03
  2.35968E+03  1.01827E+04 -7.60367E+03  4.53704E+03 -4.32169E+03 -7.74055E+02 -8.31655E+03  2.75027E+03
 -5.06995E+03  1.28294E+03 -4.52682E+03  4.94224E+03  4.56700E+02  4.54875E+03 -7.44674E+03 -3.15153E+03
 -9.03116E+03 -2.31548E+03 -5.05903E+03 -1.30103E+04  1.10477E+03 -1.34137E+04  1.29407E+04 -6.86349E+03
  1.47502E+04  7.35967E+03  2.00898E+03  7.24261E+03 -3.99877E+03  1.48298E+04 -8.10944E+03  8.56411E+03
