 $NMID ID='MM_0lb_SNR50_16hz_g45_56.RAW', FMTDAT='(8E13.5)'
 TRAMP=1., VOLUME=1. $END
  3.08950E+05  7.80769E+02  3.35283E+05  2.49297E+05  8.58641E+04  3.36149E+05 -1.35445E+05  2.53434E+05
 -1.89600E+05  8.20488E+04 -1.07682E+05 -3.15856E+04 -2.59069E+01 -5.26311E+04  5.52936E+04  4.75402E+02
  3.67363E+04  4.94959E+04 -1.51699E+04  7.37319E+04 -5.85640E+04  6.78804E+04 -8.22193E+04  2.92659E+04
 -8.09392E+04 -9.25724E+03 -5.60109E+04 -5.28961E+04 -1.37412E+04 -7.03361E+04  3.41446E+04 -4.51216E+04
  4.13154E+04  4.22763E+03  1.64850E+04  4.62172E+04 -3.71403E+04  4.35379E+04 -6.70993E+04 -8.53694E+02
 -5.10678E+04 -5.48473E+04 -6.88371E+03 -7.34487E+04  3.34886E+04 -5.53909E+04  4.60084E+04 -1.69493E+04
  4.43475E+04  1.34684E+04  2.91864E+04  2.42354E+04  1.56968E+04  2.70412E+04 -3.10449E+03  2.64314E+04
 -2.29070E+04  1.20522E+04 -1.83122E+04 -6.12039E+03  7.59231E+03 -9.19071E+03  2.05038E+04  1.02454E+04
  1.10794E+04  3.46736E+04 -2.75589E+04  3.48842E+04 -6.15231E+04  2.33423E+03 -5.20505E+04 -4.08687E+04
 -1.25274E+04 -6.09064E+04  3.74807E+04 -4.62202E+04  5.62925E+04 -1.69697E+03  3.35640E+04  3.21808E+04
 -8.79473E+03  3.45857E+04 -2.88996E+04  1.74185E+04 -2.85918E+04 -2.31949E+03 -1.94952E+04 -8.95534E+03
 -7.45211E+03 -9.12391E+03  2.66834E+03 -1.83554E+04  5.88457E+03 -2.39463E+04  1.92255E+04 -1.37525E+04
  1.47241E+04 -3.27469E+02 -7.32454E+03  1.46061E+04 -1.58723E+04 -5.70882E+03 -8.69416E+03 -3.42419E+04
  2.10374E+04 -3.93634E+04  4.96965E+04 -2.44812E+04  4.37107E+04  1.85878E+04  1.33876E+04  3.89422E+04
 -1.46123E+04  3.06434E+04 -2.73967E+04 -1.61024E+03 -7.12903E+03 -3.07103E+04  2.26901E+04 -2.88377E+04
  3.82576E+04 -1.13107E+04  3.53533E+04  2.64312E+04  1.29454E+04  4.52898E+04 -6.25748E+03  4.74785E+04
 -2.82928E+04  2.94676E+04 -4.25313E+04  8.14713E+03 -3.82116E+04 -1.10364E+04 -2.55499E+04 -3.55063E+04
  7.56313E+03 -3.55071E+04  3.78373E+04 -1.54340E+04  3.03430E+04  1.14249E+04  4.44450E+03  1.86180E+04
 -1.71972E+04  1.01435E+04 -9.01089E+03 -1.08343E+04  2.62954E+03 -1.01427E+04  1.75492E+04  3.80016E+03
  1.05519E+04  1.96738E+04 -6.91258E+03  2.33940E+04 -1.89763E+04  1.53119E+04 -2.66701E+04 -6.34287E+03
 -1.86715E+04 -1.63005E+04 -6.38596E+03 -1.62676E+04  5.02428E+03 -1.67314E+04  1.20958E+04 -1.33304E+04
  1.82944E+04 -1.37407E+04  2.78978E+04  3.36140E+03  2.11355E+04  1.56128E+04  6.11823E+03  3.55034E+04
 -1.59378E+04  2.95146E+04 -2.40314E+04  1.09098E+04 -2.01024E+04 -1.28959E+04 -3.57682E+03 -1.42806E+04
  4.34268E+03 -1.21525E+03 -3.32939E+03  6.21009E+03 -1.84716E+04 -5.74076E+02 -1.42930E+04 -5.14323E+03
 -8.87890E+03 -1.48913E+04  7.76643E+03 -1.73061E+04  1.37514E+04 -1.14064E+04  1.73669E+04 -7.90622E+02
  1.47189E+04  1.46507E+04 -3.21721E+01  1.82955E+04 -1.44179E+04  9.22103E+03 -1.40415E+04 -7.36972E+03
 -1.16994E+04 -1.29570E+04 -1.61704E+03 -2.63579E+04  9.46477E+03 -1.00426E+04  1.91393E+04 -7.86101E+03
  1.48719E+04  3.08560E+03  1.47622E+04 -1.56494E+03  9.19329E+03  6.99008E+02  8.44497E+03 -3.00189E+03
  1.08437E+04  3.96739E+03  1.86982E+04  1.51775E+04  1.19950E+04  2.77849E+04 -4.72021E+03  3.56643E+04
 -2.01105E+04  2.48514E+04 -2.70729E+04  1.19858E+04 -2.62428E+04 -2.95368E+03 -2.50503E+04 -1.85676E+04
 -1.05882E+04 -2.12206E+04  8.25011E+03 -2.54926E+04  1.76377E+04 -1.72017E+04  1.42732E+04  6.52633E+03
  4.76911E+03  1.11902E+04 -8.85064E+03  1.08425E+04 -1.30615E+04  2.16504E+03 -1.20055E+04 -8.98166E+03
 -1.14811E+03 -1.60264E+04  9.68558E+03 -9.72112E+03  1.40081E+04  1.51341E+02  6.76951E+03  1.05060E+04
 -4.84974E+03  1.34892E+03 -2.57504E+03 -5.47718E+03  2.00373E+03 -1.30023E+04  6.15640E+03 -1.08343E+04
  1.41376E+04 -8.29056E+03  1.30769E+04  6.77440E+03  1.33910E+04  7.47598E+03  5.65855E+03  1.99095E+04
  3.91959E+02  2.18616E+04 -1.39128E+04  1.28794E+04 -1.27207E+04  3.79439E+03 -9.62894E+03 -5.27965E+03
 -3.85961E+03 -3.12678E+03 -2.19923E+03  1.25955E+03 -6.47988E+02  7.71504E+03 -4.73608E+03  3.44028E+03
 -1.26319E+04 -1.13030E+03 -6.42402E+03 -8.40733E+03 -3.41573E+03 -1.36927E+04  2.11942E+03 -7.12161E+03
  9.53677E+03 -2.99361E+03  1.06766E+04 -2.89498E+03 -3.16262E+03  1.03784E+03 -3.02762E+03 -1.98533E+03
 -3.62620E+03 -4.12922E+03 -3.83393E+03 -6.14176E+03  5.32312E+03 -7.26635E+03  9.75457E+03 -5.34219E+03
  1.50092E+04  4.03770E+03  1.32620E+04  8.95396E+03 -6.07729E+03  7.88297E+03 -9.80297E+03  5.14783E+03
 -9.49436E+03  2.47777E+03 -4.45163E+02 -5.78749E+02  1.40808E+03 -4.01462E+03  6.10277E+03  2.12472E+03
  6.93541E+03  1.02344E+03 -2.79630E+03  1.02557E+04 -3.64950E+02  6.01295E+03 -3.99775E+03  2.84270E+03
 -2.17776E+03 -2.85383E+03 -2.21075E+03 -9.60018E+03  3.25684E+02 -1.31538E+03  4.57928E+03 -2.41637E+02
  1.49608E+03  1.39158E+03 -5.13267E+03  6.34405E+03 -4.53227E+03  1.44692E+03 -7.08829E+03 -4.10822E+03
 -5.91211E+03 -7.92439E+03  3.41955E+03 -8.03347E+03  5.05656E+03 -6.90246E+03  4.92180E+03  4.11077E+02
  6.00241E+03  7.15627E+03  1.75493E+03  1.09673E+04 -8.32306E+03  3.52234E+03 -4.22995E+03 -2.94756E+03
 -7.22895E+03 -2.86189E+03 -4.41769E+03 -6.29467E+03  3.36339E+03 -5.28558E+03  6.83118E+03 -2.98990E+03
  4.10033E+03  2.95392E+03 -3.24788E+03  2.90856E+03 -3.59308E+03 -2.43705E+03  3.78807E+02 -2.46937E+03
  8.82325E+03 -8.20908E+02  5.02639E+03  1.25040E+03  1.13832E+04  6.90435E+03  1.20557E+03  1.17604E+04
 -5.30002E+03  3.40717E+03 -7.37456E+03  6.92999E+03 -1.18681E+04  1.77583E+03 -8.07631E+03 -2.84362E+02
 -2.69552E+03 -7.80699E+03  2.33928E+02 -8.08344E+03 -8.01657E+02 -2.47268E+03  2.65902E+03 -2.77897E+03
  2.88298E+03 -2.60809E+03 -6.87557E+02 -2.72477E+03  1.96760E+03 -2.04786E+02  7.43989E+03 -3.84428E+03
  4.03252E+03 -1.07505E+03  4.20646E+03  5.50766E+03  4.22284E+03  5.40246E+03 -7.33707E+03  4.08741E+03
 -7.43943E+03 -2.38264E+03  8.73855E+00 -3.55858E+03 -9.97521E+02 -7.56599E+03  6.47227E+03 -6.29263E+03
  9.35489E+03  2.78637E+03  1.00460E+04 -2.86012E+03  7.10445E+03  4.23892E+03  2.83090E+03  7.97383E+03
 -9.05038E+02  7.85759E+03 -6.75271E+03 -6.83163E+02 -2.35910E+03 -7.66808E+02 -2.18702E+03 -1.31909E+03
 -4.03611E+03 -7.78537E+02 -4.42678E+03  4.34406E+03 -3.75592E+03  2.26412E+03 -7.83271E+03  1.86757E+03
 -1.94203E+03 -4.42118E+03 -4.00220E+03 -9.36562E+03  2.30512E+03 -5.16465E+03  8.16650E+03  1.55648E+03
  2.87389E+03  5.77335E+03  4.33008E+03  2.07808E+03 -1.60691E+03  6.13545E+03 -2.04880E+03  3.16551E+03
 -5.99093E+03  2.32710E+03 -3.32603E+03 -4.27989E+03  9.54644E+02 -1.84265E+03 -1.23173E+03 -6.24652E+03
  2.46045E+03 -1.02185E+03  1.87238E+03  1.69892E+03  2.49028E+03  5.15203E+02  3.80963E+02  8.22005E+03
  1.05274E+03 -1.57237E+03  5.94945E+03  7.67124E+02  7.93171E+02  4.56454E+03  6.66600E+03  4.71800E+03
  2.62312E+02 -1.02603E+01 -1.43227E+03  5.66191E+03 -4.74385E+03 -3.02367E+03 -1.03380E+04 -3.38929E+03
 -5.14133E+03 -1.41460E+03 -1.28429E+01 -5.82672E+03  4.53731E+03 -3.24224E+03  2.02080E+03 -3.70663E+03
  2.22542E+03  1.84818E+03 -7.82790E+02  1.86785E+03  1.95030E+03  3.64497E+03 -4.44842E+03 -6.17875E+03
 -7.65072E+02 -4.53372E+03  2.11359E+03 -3.84517E+02  3.11379E+03 -4.85423E+03  1.90155E+03 -2.10832E+03
  2.60532E+03 -1.53860E+03 -1.86767E+03  9.67805E+01 -1.71945E+03  3.96405E+02  3.82193E+03 -2.67387E+03
  1.20741E+02 -2.40414E+02  2.78551E+03 -2.52142E+03  1.10440E+03  2.16684E+03 -1.27112E+03  5.44864E+03
 -4.93533E+03  1.91380E+03 -4.73764E+03 -1.31660E+03 -1.76852E+03 -3.23203E+03  2.89062E+03 -7.24932E+03
  3.19046E+02 -1.35123E+03  1.42362E+02  8.84530E+02 -8.21602E+02  3.69736E+03 -2.86946E+03  6.59861E+02
 -5.43450E+03  5.54112E+03 -2.73816E+03 -3.07770E+03  4.45498E+03 -4.85165E+03 -3.43057E+02 -6.72700E+03
  7.65169E+02 -3.46518E+03  3.09543E+03  1.40766E+03  7.44664E+03 -8.36732E+02  5.43844E+02  6.37223E+02
  3.53588E+02  8.54654E+02 -3.30487E+01 -3.66425E+03  3.34621E+02 -1.18227E+03  5.20738E+03 -9.80601E+02
  3.47854E+03  1.59847E+03  6.90125E+03 -1.84842E+02 -3.59116E+03  4.73893E+03 -6.96708E+02  2.30110E+03
 -2.57375E+03  3.04423E+03  8.81894E+02 -1.90203E+03  1.64440E+03 -2.46230E+02  1.74301E+03  1.74185E+03
 -2.95902E+03 -5.13512E+02 -2.86844E+02  2.85731E+02  6.54383E+02  2.50293E+03 -2.55038E+03  2.27276E+02
 -1.16260E+02 -4.43898E+03 -4.07912E+03  1.04131E+03  9.52619E+02 -9.68535E+02 -4.46034E+01  2.33194E+03
 -4.66724E+02 -1.69778E+02 -5.88504E+03  3.64982E+03 -2.49896E+03 -2.59560E+02 -4.44681E+03 -1.10612E+02
 -4.93932E+02 -2.10891E+03  1.12541E+03 -2.34012E+03  1.28728E+03 -3.62967E+03  2.93357E+03 -1.32033E+03
  2.58738E+03  7.82694E+02  3.75332E+03  3.76409E+03 -2.75548E+03  4.56393E+02 -2.95589E+03 -5.97169E+02
  1.55508E+03  1.15975E+03 -2.75852E+03 -3.27519E+03  6.39334E+02  3.30835E+03  7.33899E+02  1.10441E+03
  1.36792E+03  4.88994E+03  3.75945E+03 -3.81150E+03  3.45832E+02 -5.47669E+03 -2.31194E+03 -6.67683E+03
 -1.49647E+02 -1.76532E+03 -1.76308E+02 -2.31384E+03 -3.02494E+03 -2.91729E+03  2.35013E+03  3.42518E+03
 -3.30359E+01  2.66510E+03 -2.82162E+03  2.04901E+03 -3.16730E+03 -2.69978E+03 -2.96839E+03 -6.44564E+02
  1.03837E+02  1.67136E+02 -1.97903E+03 -1.65798E+03  3.47556E+03  1.68701E+03  1.18675E+02  2.52704E+03
  2.87472E+02  1.64346E+03 -1.78529E+03 -1.88595E+03  4.07389E+03 -3.19186E+03 -7.10082E+02 -6.37347E+03
  7.63191E+02  2.06896E+03 -1.17502E+03  3.29387E+03  2.06621E+03  4.52709E+03  1.79090E+03  1.38316E+02
  6.78376E+02 -2.11584E+03 -5.92707E+01 -2.01339E+03 -1.77577E+03  6.06105E+03 -4.73695E+03  4.33046E+02
 -2.39980E+03 -1.04703E+03 -2.07493E+03  9.11622E+02  4.94174E+02  5.96500E+02 -1.31498E+03  2.95013E+02
  1.52714E+03 -3.58596E+02  1.18628E+03 -3.12158E+03 -2.53501E+03 -3.21997E+03  1.82884E+03  2.62751E+03
  2.35140E+03 -2.93933E+03  1.04239E+03 -3.41756E+03  4.95932E+01  1.54450E+03  2.31403E+03  2.32231E+03
 -1.83620E+02 -2.44888E+03  2.23092E+03  1.33422E+03  2.61162E+03 -6.43869E+03  5.26727E+03  4.84953E+03
  1.12079E+03  3.04504E+02 -3.30238E+03  4.49237E+03 -1.13134E+03  3.39789E+03 -2.20789E+03 -7.25502E+02
