 $NMID ID='MM_0lb_SNR50_14hz_g50_7.RAW', FMTDAT='(8E13.5)'
 TRAMP=1., VOLUME=1. $END
  3.11447E+05 -3.98215E+02  3.40361E+05  2.48344E+05  8.70346E+04  3.36181E+05 -1.34131E+05  2.47406E+05
 -1.91317E+05  8.46392E+04 -1.16415E+05 -2.78647E+04  3.09878E+03 -5.02473E+04  5.44545E+04 -5.26840E+02
  3.28914E+04  5.36141E+04 -1.60139E+04  8.36862E+04 -6.15479E+04  6.60875E+04 -8.51022E+04  3.27515E+04
 -8.00923E+04 -1.12110E+04 -5.44663E+04 -5.45585E+04 -1.20412E+04 -6.70946E+04  3.01499E+04 -4.97707E+04
  3.95180E+04  2.25893E+03  1.59647E+04  4.68295E+04 -3.23143E+04  5.09145E+04 -6.70234E+04  1.92590E+03
 -4.75241E+04 -5.70575E+04 -6.91437E+03 -8.43849E+04  3.39559E+04 -6.10783E+04  4.76761E+04 -1.94000E+04
  3.90525E+04  1.24631E+04  3.28273E+04  3.06091E+04  1.65796E+04  2.88870E+04 -6.45375E+03  2.78017E+04
 -1.92956E+04  1.58149E+04 -1.90056E+04 -7.70075E+03  2.18984E+03 -5.37202E+03  2.27411E+04  1.69387E+04
  7.45186E+03  3.29686E+04 -3.46202E+04  3.57420E+04 -5.93196E+04  2.37510E+03 -5.32380E+04 -4.12271E+04
 -1.36477E+04 -6.50310E+04  3.54084E+04 -4.17920E+04  5.79340E+04 -7.72843E+01  3.57211E+04  3.68383E+04
 -6.17358E+03  3.78184E+04 -2.78894E+04  1.60111E+04 -2.89741E+04 -6.83072E+03 -1.41333E+04 -7.55110E+03
 -8.30562E+03 -1.30471E+04  1.50526E+03 -1.51604E+04  6.01822E+03 -2.71925E+04  1.41438E+04 -8.60742E+03
  1.26801E+04  6.23626E+03 -2.95619E+03  1.59278E+04 -2.16719E+04 -6.54011E+03 -7.04967E+03 -2.89680E+04
  1.75178E+04 -4.32326E+04  4.41255E+04 -2.17025E+04  4.31052E+04  2.21400E+04  1.62706E+04  3.68204E+04
 -1.14469E+04  3.40373E+04 -2.30998E+04  1.06185E+03 -1.18314E+04 -2.87159E+04  1.63907E+04 -3.37095E+04
  3.84817E+04 -8.06999E+03  3.97875E+04  2.57407E+04  1.98882E+04  4.87792E+04 -1.09473E+04  5.12249E+04
 -3.45388E+04  3.43570E+04 -4.30649E+04  7.67806E+03 -3.70753E+04 -1.79543E+04 -2.60774E+04 -4.02764E+04
  8.53027E+03 -3.93392E+04  3.16027E+04 -1.52947E+04  3.36596E+04  8.69804E+03  5.78941E+03  2.14634E+04
 -1.59774E+04  4.98702E+03 -1.76540E+04 -4.52851E+03  1.92749E+03 -9.27897E+03  1.87818E+04  3.03781E+03
  1.05982E+04  2.28107E+04 -4.12556E+03  2.30064E+04 -2.36056E+04  1.30268E+04 -3.10773E+04 -3.33550E+03
 -1.78505E+04 -1.53582E+04 -8.04716E+03 -1.84587E+04  2.25199E+03 -2.23324E+04  1.87791E+04 -2.05021E+04
  2.62245E+04 -7.72131E+03  3.22088E+04  6.34314E+02  2.14306E+04  2.09794E+04  3.19186E+03  4.22641E+04
 -1.84421E+04  2.93751E+04 -2.71031E+04  1.17594E+04 -2.40962E+04 -7.59068E+03  1.71310E+02 -1.18670E+04
 -4.79290E+02 -7.84386E+03 -7.51562E+03  5.51261E+03 -1.60746E+04  4.00034E+03 -1.37175E+04 -4.89913E+03
 -8.48668E+03 -2.29253E+04  3.75393E+03 -2.36349E+04  1.75531E+04 -1.50777E+04  2.02245E+04  2.80733E+03
  1.46743E+04  1.28033E+04 -1.51767E+03  2.29362E+04 -1.64176E+04  1.08345E+04 -2.18480E+04 -3.30127E+03
 -9.38085E+03 -1.63277E+04 -4.70808E+03 -2.01861E+04  1.14305E+04 -1.34902E+04  2.11914E+04 -8.26497E+03
  1.98415E+04  7.72899E+02  6.92333E+03  2.87263E+03  6.62237E+03 -3.50889E+03  1.30153E+04  9.46744E+01
  1.20925E+04  2.29193E+03  1.13613E+04  1.90521E+04  1.53334E+04  2.84833E+04 -5.75726E+03  3.48171E+04
 -1.98594E+04  2.24489E+04 -3.07157E+04  1.45766E+04 -3.06485E+04 -3.84043E+03 -3.18212E+04 -2.11115E+04
 -1.51648E+04 -2.54482E+04  6.14275E+03 -2.80464E+04  2.08005E+04 -1.46787E+04  2.00568E+04  4.35470E+03
  7.60758E+03  1.61348E+04 -1.00584E+04  1.56493E+04 -1.87946E+04  3.38111E+03 -1.27305E+04 -1.21272E+04
 -8.15801E+01 -1.79875E+04  1.14389E+04 -8.41730E+03  1.45970E+04 -2.06566E+02  9.40326E+03  4.65615E+03
 -1.09751E+04  4.35767E+03 -2.67571E+03 -5.04205E+03  1.26440E+03 -1.29518E+04  1.23531E+04 -1.51494E+04
  1.58705E+04 -6.51722E+03  1.94034E+04  1.46646E+03  1.65855E+04  1.05982E+04  5.04839E+03  2.32486E+04
 -4.67598E+03  1.99645E+04 -1.38675E+04  1.21885E+04 -1.82147E+04  7.33035E+03 -2.01627E+04 -2.07355E+03
 -5.55159E+03 -3.99534E+03 -9.17735E+02  8.04607E+02 -3.71730E+03  2.58846E+03 -4.65839E+03  1.44961E+03
 -7.90619E+03 -2.14539E+03 -5.63223E+03 -8.55865E+03 -4.01877E+03 -1.49719E+04  4.66529E+03 -7.24041E+03
  5.00531E+03 -8.05122E+03  4.55024E+03  2.41719E+03 -1.94651E+03  7.86231E+02 -6.16495E+03 -6.63530E+03
 -4.42221E+02 -7.67952E+03  7.73822E+02 -8.47434E+03 -6.17962E+02 -1.22988E+04  1.20254E+04 -5.94028E+03
  1.88088E+04 -1.81741E+03  8.97298E+03  2.74663E+03 -4.14092E+03  1.69457E+04 -9.96944E+03  1.57996E+04
 -8.98139E+03  2.68504E+02 -1.09518E+03 -2.59965E+03 -6.09176E+03 -2.04393E+03  9.09214E+03 -4.25286E+03
  6.63213E+03  8.06192E+03  1.74900E+02  1.24428E+04 -6.89420E+03  1.24044E+04 -8.56542E+03  5.39971E+03
 -8.74894E+03 -1.05282E+04  3.93725E+03 -7.86586E+03  6.15786E+03 -3.63352E+03  7.56009E+03  1.67536E+03
  1.44126E+03  8.76286E+03 -2.88188E+03  8.01914E+03 -5.90572E+03  5.46060E+03 -4.83415E+03 -6.31181E+03
 -2.86343E+03 -1.28943E+04  3.30748E+03 -9.12165E+03  8.04990E+03 -8.25237E+03  1.00821E+04 -5.74436E+02
  7.99482E+03  9.09040E+03 -2.91093E+02  1.04496E+04 -1.09532E+04  1.60660E+03 -8.97808E+03 -2.72739E+03
 -6.22586E+03 -7.38191E+03 -1.21464E+03 -1.13615E+04  1.19121E+03 -5.57300E+03  3.15534E+03 -6.15603E+02
  2.76958E+03  3.26772E+03 -2.89880E+02 -1.13514E+03 -7.98961E+02 -1.45326E+03  1.22044E+03 -8.14652E+02
  8.50242E+03  3.86279E+03  1.05947E+04  5.44883E+02  8.01038E+03  5.07752E+03  9.87003E+03  1.26862E+04
  1.97475E+03  1.29128E+04 -1.29856E+04  8.45226E+03 -1.39188E+04  5.21881E+03 -1.03450E+04 -4.45232E+03
 -4.63286E+03 -1.02943E+04 -3.64848E+03 -7.56901E+03 -1.05122E+03 -4.59183E+03 -2.29434E+03 -4.76245E+03
  4.44788E+03 -2.99374E+03  2.64610E+03 -1.13528E+03  9.42045E+02 -6.28327E+03  5.10532E+03 -4.08158E+03
  3.98548E+03 -1.49357E+02  1.46181E+03  4.04378E+03 -4.82680E+03  7.70975E+03 -8.94908E+03  4.67641E+03
 -8.35485E+03 -2.15605E+03 -8.38125E+03 -1.71947E+03 -2.01550E+03 -4.92034E+03  1.27981E+02 -9.61169E+03
  7.50738E+03 -1.07241E+04  1.36199E+04  1.14674E+03  1.18414E+04  1.06313E+04  4.49471E+03  9.12342E+03
 -6.67968E+03  1.19085E+04 -6.07650E+03  9.12500E+02 -4.00600E+03 -1.82616E+03 -2.31858E+03 -3.16255E+03
  8.85398E+02 -1.58209E+03 -2.40904E+03  1.24555E+03 -6.63314E+03  8.78626E+02 -5.10625E+03 -2.51540E+02
 -1.58556E+03 -1.17139E+04 -6.00235E+02 -8.81221E+03  4.75903E+03 -8.19050E+03  3.93632E+03  4.52432E+00
  7.21033E+03  1.58921E+03  6.79000E+02  9.65263E+03  1.98241E+03  9.94947E+03 -1.86942E+03  6.85754E+03
 -8.44699E+03  7.48384E+02 -3.55203E+03 -5.61265E+03 -2.80781E+02 -8.74190E+03  1.83328E+03 -4.91273E+03
  5.31101E+03 -4.56260E+03  2.41819E+03  2.73596E+03  2.92278E+02 -4.28569E+03 -1.77491E+03  3.01265E+03
  3.78259E+03  3.12863E+03  2.61107E+03  6.69477E+01 -2.41960E+03  2.94137E+03  7.46362E+03  7.24761E+03
 -4.13693E+03  4.88568E+03 -4.31537E+03  6.85315E+03 -6.18034E+02  2.68054E+03 -7.25403E+03 -2.30178E+03
 -8.12579E+03 -5.87262E+03  2.12813E+03 -5.77017E+03  5.86146E+03 -8.22256E+03  5.40798E+03 -1.81976E+03
  3.81946E+02  4.27205E+03 -1.88078E+03  4.59065E+03 -2.11869E+03  1.05976E+03 -4.52506E+03  3.66496E+03
 -1.27760E+03  2.08617E+03  2.96923E+02 -4.50807E+03  2.32928E+03  1.06928E+03 -7.59380E+02 -1.30645E+03
  1.15047E+03  3.63850E+03  1.07689E+03  8.13789E+02 -2.00939E+03 -2.80851E+02  6.06412E+03 -1.75623E+03
 -5.34952E+03 -1.52152E+03  3.73362E+03 -3.60190E+02 -3.81498E+03  4.99128E+03  3.41812E+02  2.93685E+03
 -2.48043E+03  2.09184E+03 -6.69067E+03  4.87487E+03 -2.78412E+03  3.36736E+01 -4.35474E+03 -6.62414E+03
  1.04900E+03 -7.12119E+03  6.65053E+02 -3.63731E+03  4.44070E+03  5.27809E+03 -1.28345E+03 -1.99233E+03
 -3.69894E+03  4.49356E+03 -7.26010E+03 -3.16996E+03  7.43729E+02  1.37627E+02 -2.40709E+03 -3.39166E+03
 -1.30901E+02 -2.88799E+03 -2.78286E+03  2.41919E+02 -3.89027E+03  9.15902E+02 -2.64175E+03  1.72703E+03
 -1.33157E+03  1.62958E+03  8.42910E+02 -3.83292E+03 -1.68195E+03 -5.09753E+03  7.25608E+02 -1.24421E+03
  8.98345E+03 -1.88884E+03  4.19871E+03  3.43725E+03  2.50005E+03  3.72601E+03 -2.17427E+03  7.01732E+03
 -4.68214E+03  1.08480E+03 -5.56665E+03  4.59993E+02  6.82331E+02 -3.33362E+03  9.09075E+03 -1.09527E+02
 -4.82695E+02 -1.84579E+03  1.90515E+03  2.75447E+03 -3.41565E+03  3.99558E+03 -1.01401E+03  3.07670E+03
  5.01579E+02  1.10824E+03  3.38938E+03 -2.83015E+03  2.49687E+02 -2.66347E+03 -3.74036E+02  2.31834E+03
 -3.80760E+03  3.07729E+03  8.39618E+02 -1.29660E+03 -3.59935E+03  3.88757E+03 -1.01027E+04 -4.18125E+03
 -6.79521E+03 -2.94700E+03 -3.37256E+02 -3.87478E+03  2.76679E+01 -3.78939E+03  4.25848E+03 -5.41952E+03
  8.56547E+03 -3.68667E+03  3.74791E+03 -2.85256E+02 -1.64089E+03  2.53449E+03 -2.47788E+03  3.02733E+03
 -5.06783E+02  4.46272E+03 -1.65033E+03 -2.56138E+03 -1.91316E+03 -6.75068E+01  9.07826E+01  1.70587E+03
  2.94022E+03  3.87440E+03  1.37631E+03  4.14618E+01 -5.13397E+02  4.02673E+03 -5.82471E+03  9.52622E+02
  2.68056E+03 -3.68894E+03  6.01492E+03  1.13531E+03 -1.20767E+03  2.16543E+03  3.39504E+02  5.40015E+03
  1.29586E+03  5.62858E+03 -4.89925E+03  4.30572E+03 -4.40531E+03  2.14044E+03 -5.87495E+03 -4.84913E+03
  1.08936E+03 -5.04827E+03  1.56020E+03 -5.57605E+03  8.10791E+03 -4.02080E+03  1.86626E+03 -5.20263E+03
  2.74777E+03  4.51658E+03  2.58157E+03  2.09517E+03 -1.21699E+02 -2.59440E+02 -1.38434E+03  2.21360E+02
  3.03354E+03  2.15876E+03  1.80817E+03 -1.00825E+03  6.04098E+03  4.17716E+02  2.31668E+03 -2.18026E+03
  2.14147E+03  4.53663E+03 -5.01437E+03  3.84512E+03 -2.58227E+03 -1.24312E+03 -7.19491E+02 -4.46450E+03
  2.45985E+03 -4.76340E+03  3.47674E+02 -7.49493E+02  7.30261E+02  3.51342E+03 -9.78046E+02  2.68421E+03
 -2.02829E+03  5.83220E+03 -2.58226E+03  4.61791E+03  1.81325E+02  4.11467E+03 -2.46838E+03 -7.91072E+02
  2.67685E+03 -1.58511E+03  6.63206E+03 -5.28672E+03 -8.99139E+02 -4.42123E+03 -2.54718E+03 -1.43534E+03
 -2.82588E+03 -3.35789E+03  2.35730E+02 -2.81967E+02  5.76518E+03 -4.63761E+03 -2.40792E+03 -1.71177E+03
  2.52702E+03  1.63115E+03 -1.73191E+03 -1.71452E+03 -4.19741E+02  5.19686E+02 -6.22461E+03  3.13404E+03
