 $NMID ID='MM_0lb_SNR50_18hz_g60_13.RAW', FMTDAT='(8E13.5)'
 TRAMP=1., VOLUME=1. $END
  3.09014E+05 -1.13270E+03  3.33412E+05  2.50922E+05  8.77583E+04  3.39353E+05 -1.29944E+05  2.48928E+05
 -1.86823E+05  8.54350E+04 -1.12280E+05 -3.69161E+04  3.63299E+02 -4.89093E+04  5.35067E+04  3.94952E+03
  3.87081E+04  5.35648E+04 -1.82877E+04  7.78466E+04 -5.63069E+04  5.90627E+04 -8.01779E+04  3.42532E+04
 -7.51660E+04 -9.93641E+03 -5.33562E+04 -4.94860E+04 -1.86298E+04 -6.83325E+04  2.92160E+04 -4.59010E+04
  4.25678E+04  3.25120E+03  1.43270E+04  4.20150E+04 -3.73698E+04  5.29152E+04 -7.07403E+04  1.56757E+03
 -4.83248E+04 -5.55594E+04 -4.21544E+03 -7.90068E+04  3.25868E+04 -5.43719E+04  5.07215E+04 -1.86557E+04
  3.98344E+04  6.25486E+03  3.30197E+04  2.37500E+04  1.70474E+04  2.71382E+04 -4.02513E+03  2.33396E+04
 -2.28698E+04  1.41049E+04 -2.10429E+04 -1.15157E+03  2.46509E+03 -1.27518E+04  2.62056E+04  1.47417E+04
  8.85103E+03  3.77783E+04 -3.19252E+04  3.61018E+04 -5.92993E+04 -1.16257E+03 -5.12545E+04 -4.68854E+04
 -1.28833E+04 -6.24458E+04  4.65552E+04 -4.87875E+04  5.97850E+04 -2.13334E+03  3.32796E+04  3.16931E+04
 -6.69459E+03  3.62651E+04 -2.71051E+04  1.35181E+04 -3.08895E+04 -3.71955E+03 -1.62218E+04 -1.27125E+04
 -2.22881E+03 -1.42277E+04 -2.08022E+03 -2.22869E+04  3.96755E+03 -2.19325E+04  7.96471E+03 -1.65433E+04
  1.42714E+04  3.12777E+03 -7.89946E+03  1.76639E+04 -2.15436E+04 -5.08612E+03 -8.78107E+03 -3.15693E+04
  2.24206E+04 -4.18666E+04  4.84707E+04 -1.62754E+04  4.48960E+04  2.04095E+04  1.78826E+04  4.34682E+04
 -1.33559E+04  3.15795E+04 -2.67428E+04 -1.51619E+03 -9.61402E+03 -2.79640E+04  2.05162E+04 -3.58668E+04
  3.82359E+04 -7.49559E+03  3.09282E+04  2.22703E+04  1.50359E+04  4.29788E+04 -1.35686E+04  4.78040E+04
 -3.03578E+04  3.38104E+04 -4.13806E+04  9.20767E+03 -4.00634E+04 -1.64491E+04 -1.89791E+04 -3.16505E+04
  1.14427E+04 -3.93311E+04  2.65421E+04 -1.51154E+04  3.04122E+04  9.70264E+03  1.77329E+03  1.87545E+04
 -1.27907E+04  4.97441E+03 -8.14533E+03 -9.76729E+03  8.51004E+03 -1.02051E+04  2.07110E+04  4.05291E+03
  1.47008E+04  2.20459E+04 -7.23673E+03  2.69010E+04 -2.15417E+04  1.01854E+04 -2.48404E+04 -5.66436E+03
 -2.22779E+04 -1.89765E+04 -7.91766E+03 -1.38646E+04  4.79753E+03 -1.56809E+04  1.41291E+04 -1.65511E+04
  2.45711E+04 -6.84338E+03  2.92079E+04  6.22140E+03  2.05627E+04  1.93857E+04  4.01632E+03  3.34518E+04
 -1.52375E+04  3.53819E+04 -2.57431E+04  1.04631E+04 -2.35586E+04 -4.36209E+03 -3.81854E+03 -8.32707E+03
  7.82753E+03 -6.42514E+03 -7.75616E+02  6.06294E+03 -1.68580E+04 -6.41950E+02 -1.42109E+04 -6.10953E+03
 -5.15673E+03 -1.79322E+04  2.03523E+03 -2.38462E+04  1.63366E+04 -1.81776E+04  2.04302E+04 -2.73646E+03
  7.98961E+03  1.20128E+04 -2.61524E+03  1.26924E+04 -9.03913E+03  8.09754E+03 -2.08666E+04 -2.44697E+03
 -1.62505E+04 -1.54366E+04  3.74207E+03 -1.81964E+04  8.23337E+03 -1.65602E+04  1.36173E+04 -8.65301E+03
  1.85497E+04  1.60677E+03  9.76914E+03  4.83639E+03  4.40229E+03  1.82207E+03  9.69157E+03 -7.00046E+02
  1.96495E+04  5.32787E+03  1.51431E+04  1.29102E+04  1.22335E+04  2.60641E+04 -4.72000E+03  2.98207E+04
 -1.66621E+04  2.20668E+04 -2.64179E+04  1.53201E+04 -2.84749E+04 -3.10791E+02 -2.36141E+04 -2.02123E+04
 -6.22296E+03 -2.48020E+04  8.32695E+03 -2.38989E+04  1.94217E+04 -1.41291E+04  1.66488E+04  6.32478E+03
  5.78976E+03  1.14983E+04 -9.38403E+03  9.61197E+03 -1.38816E+04  5.38547E+03 -1.46933E+04 -8.37967E+03
  5.06547E+03 -1.28509E+04  5.57751E+03 -9.08314E+03  7.63589E+03 -5.67588E+02 -3.88986E+03  5.02410E+03
 -9.25550E+03  1.40868E+03 -4.67389E+03 -7.54925E+03 -1.41919E+03 -9.92958E+03  5.98582E+03 -8.54206E+03
  1.17948E+04 -1.16852E+04  1.33939E+04  3.86481E+03  9.58913E+03  1.38384E+04  6.44770E+02  1.77314E+04
 -5.84940E+02  1.60020E+04 -9.21952E+03  1.15861E+04 -1.65147E+04  2.30599E+03 -7.06517E+03 -2.48639E+03
 -2.78744E+03 -7.67157E+03  6.05392E+02 -2.83279E+03 -1.34620E+03  2.07503E+03 -7.36113E+03  5.75218E+03
 -1.04029E+04 -3.45359E+03 -8.23938E+03 -8.06683E+03 -5.45376E+03 -1.41611E+04  1.67468E+02 -1.01066E+04
  8.37468E+03 -1.05548E+03  5.57214E+03  3.81766E+03  1.15649E+03  1.90134E+03 -8.92109E+02  2.90439E+03
 -7.23869E+03 -4.41512E+03  2.58600E+02 -1.04199E+04  8.62697E+03 -7.96805E+03  1.07601E+04 -6.15452E+03
  1.60569E+04 -3.13432E+03  1.00132E+04  7.66933E+03  2.26979E+02  1.34306E+04 -6.61958E+03  1.00609E+04
 -8.08570E+03  9.29561E+03 -3.73039E+03 -2.13179E+03  1.60221E+02 -6.49561E+03  6.48385E+03  1.72769E+03
  4.24959E+03  7.74413E+02  7.72706E+02  1.17374E+04 -6.66910E+03  6.69542E+03 -7.71506E+03 -5.97839E+02
 -6.00306E+03 -1.41680E+02  4.03908E+03 -5.12440E+03  6.43244E+03  1.03791E+03  3.02341E+03  6.24354E+02
  2.54949E+03  7.45417E+03 -4.15207E+03  5.13265E+03 -7.05443E+03  4.79533E+02 -5.89966E+03  1.69100E+03
 -2.47077E+03 -5.83555E+03 -1.06040E+03 -1.07487E+04  6.28637E+03 -4.83696E+03  6.98576E+03  1.55720E+03
  5.46948E+03  5.43586E+03 -1.25477E+03  9.88435E+03 -7.96892E+03  3.71850E+02 -2.38803E+03  2.27980E+03
 -5.83201E+03  3.78819E+02  2.41194E+03 -8.15179E+03  2.23456E+03  1.46359E+03 -1.52963E+03  9.13746E+02
  3.55418E+03  3.99765E+03  1.56664E+03  3.50530E+03  1.56976E+03 -5.73181E+03 -1.27065E+03 -6.30399E+03
  1.01222E+04 -5.95612E+03  7.22950E+03  1.95198E+03  8.06742E+03  5.68973E+03  3.93212E+03  7.04408E+03
 -3.19181E+03  9.22397E+03 -7.33868E+03  1.05533E+04 -1.60381E+04  7.43571E+03 -1.09465E+04 -3.33056E+03
 -4.15581E+03 -8.67813E+03 -2.48890E+03 -7.99124E+03  2.22140E+03 -3.55541E+03  2.04084E+03 -1.05722E+03
  2.87270E+03 -6.18457E+02  6.24144E+03 -2.87636E+03 -1.89476E+03  3.07907E+03  7.68829E+03 -4.21837E+03
  9.62261E+03  1.12709E+03  2.01138E+03  2.04360E+03 -4.84832E+03  3.31645E+03 -6.25488E+03  4.57600E+02
 -8.57204E+03 -3.32676E+02 -1.94992E+03 -7.23856E+03  8.81013E+02 -3.11790E+03  6.72549E+03 -3.33329E+03
  8.12699E+03 -5.84943E+03  5.71227E+03  1.37170E+03  6.19774E+03  4.47098E+03 -7.10511E+02  1.11598E+04
  1.24421E+02  3.04188E+03 -6.19295E+03  2.93014E+03 -3.20823E+03 -3.92766E+03 -3.26674E+03  2.64049E+02
  4.71809E+02 -6.77575E+02 -1.70167E+03  3.15654E+03  2.76474E+03  3.33568E+02 -4.96883E+03 -1.77410E+03
  1.90507E+03 -6.61350E+03  3.51891E+03 -3.25162E+03 -6.34241E+02 -1.26529E+03  4.46096E+03  3.90102E+03
  1.73287E+03  2.05619E+03  2.06547E+03  2.07566E+03 -2.02419E+03  1.01503E+03 -4.99872E+02  6.47675E+03
 -6.30085E+03 -2.36862E+03 -7.61731E+03 -3.60558E+03 -4.10093E+02 -1.40469E+03  3.98071E+03  3.85499E+03
  3.41811E+03 -3.88550E+03  1.59713E+03 -2.76944E+03  4.53387E+03 -1.95732E+03  2.41286E+03 -6.79535E+02
 -2.20051E+03  3.24727E+03 -1.66489E+03  4.63361E+03  1.51800E+03 -8.20078E+02  2.92262E+03  2.27260E+03
  2.13372E+03 -2.15532E+02  2.78174E+02  4.71794E+03 -3.48038E+03 -1.28845E+03 -5.99984E+03 -2.84452E+03
 -3.47420E+03 -5.15631E+03  5.78039E+03 -4.04157E+03  7.32736E+02 -7.12487E+03  2.68623E+03 -3.62163E+03
  5.40002E+03 -3.62434E+02  2.29992E+03  3.49023E+03  8.67188E+02  2.68116E+03  1.67072E+03  1.42354E+03
 -2.37166E+03 -3.68487E+03  3.21123E+03 -6.38809E+03 -8.19736E+02 -1.60560E+03 -5.62851E+02  3.92953E+03
  1.62909E+03 -1.45064E+03 -2.59472E+03  6.71795E+03 -9.43436E+02  1.65242E+03  3.06384E+03  2.34145E+02
  3.88419E+03 -1.31322E+03  1.60237E+03  2.32133E+03  2.14133E+03  5.07499E+03  7.84418E+02  2.57102E+03
 -1.04787E+03  3.15629E+03 -4.48174E+03 -1.48147E+03 -2.17390E+03 -2.69706E+03 -7.42632E+02  5.34964E+02
 -2.20359E+03  2.19509E+03 -6.96375E+02  3.72015E+03 -9.10856E+02  2.84831E+03 -5.34046E+03  5.09144E+03
 -3.85308E+03  1.07091E+03  1.68611E+03  9.73966E+02  2.30022E+02 -3.95015E+03  1.16638E+03  1.20349E+03
 -3.55230E+03 -2.12681E+03 -3.49941E+03 -3.16954E+03  1.82740E+03 -1.29143E+03 -1.53398E+02  3.82596E+03
  2.68571E+03 -1.23137E+03  1.51385E+03  3.40499E+02  1.81156E+03 -2.34642E+03 -4.76290E+02  1.01649E+03
  9.89595E+02  3.14400E+03  5.70720E+02  2.35052E+03  4.94288E+02  2.97346E+03 -2.80868E+03  1.15884E+03
 -2.27569E+03 -1.54825E+03 -8.48695E+02 -5.17466E+03 -4.46042E+03 -1.14443E+03  2.45853E+03 -5.44452E+03
  7.09677E+02 -3.76912E+03  1.00870E+03  3.54765E+03 -5.18182E+02  2.53512E+03  9.43615E+01  2.65810E+03
 -2.54058E+03  5.73016E+03 -3.82667E+03  1.62550E+02  1.64786E+02  4.62464E+03  8.76815E+02  1.18665E+03
  3.17879E+03  1.15499E+03 -3.71880E+02  1.45365E+03 -5.27037E+01  4.48327E+03 -2.49749E+03  2.66259E+03
  1.21363E+03 -4.02528E+03  7.33415E+02 -4.89389E+03  2.49184E+02 -3.88577E+03  2.51053E+03 -3.58320E+03
  5.87001E+03  8.67778E+02  4.13275E+02  1.32144E+02  1.61567E+03 -1.61887E+03  3.02031E+03  4.98270E+03
  6.39415E+02  3.69591E+03 -4.00221E+02 -2.41428E+03  4.43675E+01  2.96152E+03  2.21738E+00 -1.77382E+03
 -7.27587E+03  4.06858E+03 -2.14883E+02  5.31346E+03 -1.43483E+03 -1.85291E+01 -1.74011E+03 -8.05290E+02
  2.55440E+03 -2.73820E+03  1.60272E+03 -2.56883E+03 -4.37836E+03  6.73657E+02 -5.10309E+03 -4.78646E+01
  1.68508E+03  3.13856E+03 -5.17192E+03 -2.95351E+02  3.14610E+03 -1.46550E+03 -6.85757E+02 -4.99947E+03
 -2.41775E+03 -4.13247E+03 -1.81303E+03 -2.13161E+03  1.24501E+03  7.71715E+02  7.26756E+02 -7.64188E+02
  9.63988E+00  4.52801E+03 -9.72574E+02  5.10075E+01  9.83477E+02  3.89469E+02 -3.58238E+03 -6.29631E+01
 -2.53281E+03  1.01724E+03 -1.84425E+02  5.03782E+03  8.38569E+02 -2.76777E+03  8.21113E+02  4.49318E+03
 -3.17673E+03  3.62527E+03  1.48046E+03 -1.67390E+03  1.42245E+03  5.00668E+02  2.03276E+03 -1.63104E+03
  5.05337E+03 -3.40245E+03  3.16731E+03 -5.06354E+02  5.14615E+03  6.56745E+02 -4.45465E+02  4.31841E+03
 -2.23747E+03  6.88920E+02  3.54741E+03 -3.04407E+03  3.73533E+02  1.05048E+03  1.36691E+03  1.55781E+03
 -2.09589E+03  6.26278E+02  4.48725E+03 -1.28446E+03 -2.45439E+03 -2.11181E+03 -5.12269E+03 -7.08999E+02
 -5.15217E+02  7.20867E+02 -2.19738E+03 -4.44291E+03  4.94022E+01 -3.95749E+03  5.31491E+03 -1.15187E+03
  1.70158E+03 -2.29231E+03 -6.36497E+03 -4.70873E+03 -1.77546E+02  4.19305E+02  6.52599E+02  1.30849E+03
