 $NMID ID='MM_0lb_SNR50_20hz_g50_73.RAW', FMTDAT='(8E13.5)'
 TRAMP=1., VOLUME=1. $END
  3.04821E+05  3.49667E+03  3.40677E+05  2.55505E+05  8.37269E+04  3.41660E+05 -1.30040E+05  2.46988E+05
 -1.86423E+05  8.19101E+04 -1.10726E+05 -3.50245E+04  4.11959E+03 -4.77390E+04  5.29585E+04  5.13774E+02
  3.64971E+04  5.56421E+04 -1.45076E+04  7.48968E+04 -5.72909E+04  6.54991E+04 -8.48995E+04  3.15721E+04
 -8.16460E+04 -1.20037E+04 -5.71661E+04 -4.91342E+04 -1.47559E+04 -6.77785E+04  2.73279E+04 -4.53562E+04
  4.08786E+04  2.76725E+03  9.94913E+03  4.96227E+04 -3.44214E+04  4.30475E+04 -6.73123E+04 -2.17400E+03
 -5.60177E+04 -5.53141E+04 -6.08565E+03 -7.36234E+04  3.11005E+04 -5.43272E+04  4.46917E+04 -1.60667E+04
  4.26296E+04  1.23522E+04  3.22539E+04  2.38791E+04  1.38807E+04  3.24175E+04 -1.85885E+03  2.74558E+04
 -2.41058E+04  7.55920E+03 -2.09970E+04 -4.86281E+03  9.84101E+03 -4.98083E+03  1.89318E+04  1.35756E+04
  8.93366E+03  3.41177E+04 -3.30148E+04  3.44758E+04 -6.03764E+04  1.30943E+03 -5.50982E+04 -4.21949E+04
 -1.21858E+04 -5.96366E+04  3.67673E+04 -4.38395E+04  5.36756E+04 -3.01747E+03  2.96016E+04  2.90056E+04
 -5.33294E+03  3.58128E+04 -2.64909E+04  1.33493E+04 -2.81218E+04 -3.48567E+03 -1.32120E+04 -1.20727E+04
 -8.42202E+03 -1.14908E+04 -3.91270E+03 -1.43686E+04  8.74534E+03 -2.32609E+04  1.56754E+04 -1.11643E+04
  1.64313E+04  4.08358E+03 -1.06244E+04  1.26719E+04 -1.75196E+04 -1.33210E+03 -9.70030E+03 -2.37148E+04
  1.81345E+04 -4.27292E+04  4.70032E+04 -2.01354E+04  4.31334E+04  1.65356E+04  1.60426E+04  3.94982E+04
 -1.84054E+04  2.91115E+04 -1.64752E+04 -3.69625E+02 -8.29570E+03 -2.35258E+04  2.14542E+04 -3.02417E+04
  3.47311E+04 -8.91174E+03  3.20758E+04  2.23826E+04  1.41872E+04  4.40321E+04 -1.06187E+04  4.78419E+04
 -2.73829E+04  3.15301E+04 -3.76700E+04  8.96206E+03 -3.40948E+04 -1.64374E+04 -1.91733E+04 -3.41542E+04
  9.19903E+03 -3.00738E+04  2.82100E+04 -1.16429E+04  2.36291E+04  9.18731E+03  3.45476E+03  1.96523E+04
 -1.19049E+04  3.60857E+03 -1.08536E+04 -7.76263E+03  6.28769E+03 -1.28451E+04  1.72272E+04  5.46967E+03
  1.38808E+04  2.14453E+04 -6.64497E+03  2.37052E+04 -2.20214E+04  5.55559E+03 -2.61661E+04 -9.60953E+03
 -2.01348E+04 -1.47430E+04 -7.10971E+03 -1.85095E+04  4.23014E+03 -1.34785E+04  1.43852E+04 -1.64816E+04
  1.68931E+04 -1.29590E+04  3.08292E+04  7.90874E+02  2.37866E+04  1.53486E+04  7.00565E+03  3.04731E+04
 -1.66151E+04  2.48604E+04 -2.79930E+04  1.09900E+04 -1.93463E+04 -1.04642E+04 -2.00110E+03 -9.78148E+03
  2.40325E+02 -2.00609E+03  1.80659E+03  6.54870E+03 -1.24295E+04  2.45162E+03 -1.04477E+04 -5.37403E+03
 -6.90308E+03 -1.41052E+04  4.22661E+03 -2.04853E+04  1.00534E+04 -1.31544E+04  1.88029E+04  2.82888E+02
  8.86695E+03  1.12179E+04 -2.35822E+03  9.77249E+03 -9.01938E+03  9.31562E+03 -1.41263E+04 -1.19268E+03
 -6.20412E+03 -1.40115E+04  2.51100E+03 -1.99153E+04  6.53397E+03 -1.42769E+04  1.38568E+04 -5.34283E+03
  1.51489E+04  5.55057E+02  3.14547E+03  4.05654E+03  5.45422E+03  2.03526E+03  9.41181E+03 -1.89675E+03
  1.09552E+04  4.31336E+03  1.07590E+04  1.30112E+04  7.02498E+03  2.48096E+04 -2.48145E+03  2.43035E+04
 -1.17955E+04  1.89956E+04 -2.66242E+04  7.86052E+03 -2.66478E+04 -1.09204E+03 -1.63270E+04 -1.49471E+04
 -9.53405E+03 -1.59299E+04  5.95123E+03 -1.55948E+04  1.40969E+04 -1.36351E+04  1.59869E+04  7.01037E+03
  7.72459E+03  1.05649E+04 -3.84660E+03  1.02956E+04 -1.34916E+04  4.31735E+03 -9.33101E+03 -4.17208E+03
  5.54940E+03 -8.01683E+03  1.26421E+04 -8.33171E+03  8.53786E+03 -5.00347E+00 -3.71996E+01  6.31081E+03
 -6.97428E+03 -9.11266E+02 -2.01895E+03 -4.36762E+03  3.76060E+03 -7.52538E+03  5.33773E+03 -6.61926E+03
  9.61996E+03 -3.54966E+03  1.06086E+04  2.51276E+03  1.22489E+04  9.61513E+03  5.91055E+03  1.28380E+04
 -1.96337E+03  9.68520E+03 -9.15916E+03  5.17138E+03 -1.19303E+04 -1.01380E+02 -1.29150E+04  2.62487E+03
 -4.07558E+03 -5.56873E+03  2.87492E+03  2.19807E+03 -2.49301E+02 -3.22091E+02 -4.82639E+03 -1.18384E+03
 -2.19568E+03  5.14163E+02 -9.87344E+03 -4.70058E+03 -2.67971E+03 -1.05478E+04  1.37760E+03 -7.70516E+03
  5.88720E+03 -4.84922E+03  4.88832E+03 -1.92695E+03  8.67701E+02  2.98446E+03 -2.01400E+03  2.50761E+03
 -6.02309E+03 -1.48895E+03 -7.53285E+02 -7.87161E+03  3.58785E+03 -1.02007E+04  7.72366E+03 -2.62787E+03
  1.42291E+04 -1.03257E+03  9.52579E+03  6.37060E+03  4.80765E+03  8.96587E+03 -2.51672E+03  9.86636E+03
 -3.40643E+03 -2.60989E+02 -3.89928E+03  1.21655E+02 -1.25260E+03 -2.99521E+03  9.66324E+03 -1.43618E+03
  2.64215E+03  2.49361E+03  3.65713E+03  7.61054E+03 -6.60556E+02  4.16873E+03 -5.75371E+03  1.92606E+03
 -8.04511E+03 -9.50197E+02  2.35854E+03 -4.46759E+03  1.98585E+03 -2.71602E+03  5.92606E+03  2.11543E+03
  2.63877E+03  4.97064E+03 -6.47913E+03  2.95299E+03 -6.26876E+02 -1.05000E+03 -3.11646E+03 -1.84831E+03
 -4.47476E+03 -2.31633E+03 -1.59670E+02 -4.02594E+03  5.72077E+03 -6.04213E+03  3.48204E+03  8.69984E+02
  4.02765E+03  3.60560E+03 -1.09980E+03  4.90361E+03 -5.99311E+03  8.58021E+03 -3.95234E+03 -6.25184E+03
 -3.86696E+03 -9.78399E+02 -2.93244E+03 -1.93258E+03  2.92689E+03 -1.18045E+03  1.66905E+03 -3.86956E+03
  4.51778E+03  6.84349E+02 -7.75948E+02  1.99248E+03  2.19942E+03 -1.95086E+03 -2.08559E+02 -1.40915E+03
  5.11278E+03 -1.70781E+03  1.23165E+03  1.19182E+03  2.08395E+03 -9.92541E+02  2.06370E+03  9.99372E+03
 -1.63452E+03  8.61376E+03 -6.56967E+03  6.28105E+03 -7.46996E+03  2.53798E+03 -1.06846E+04 -3.45161E+03
 -5.02558E+03 -5.65234E+03 -6.85925E+02 -6.15120E+03  1.99179E+03 -3.82099E+02 -2.92805E+03  1.37932E+03
 -9.49338E+02  6.37878E+02  2.48550E+03 -5.33383E+02  4.41029E+03 -2.48178E+03  2.43775E+03  3.06841E+03
  3.17805E+03  3.33132E+03  1.08056E+03 -7.69024E+02  6.74921E+02  4.35267E+03 -4.83265E+03  9.70168E+02
 -3.90191E+03 -3.67779E+03 -6.32368E+03 -4.36600E+03 -4.25800E+01 -3.03696E+03  3.89408E+03 -3.33696E+03
  8.40639E+03 -3.66321E+03  5.86794E+03 -2.01838E+03  4.55512E+03  6.05138E+03  1.53924E+03  4.25356E+03
 -1.33519E+03  4.04950E+03 -1.23551E+02  1.55585E+03 -2.11144E+03  9.46159E+02 -2.94524E+03  2.41481E+03
  2.12748E+02  1.12881E+03 -3.00424E+03 -8.02636E+02  6.51056E+02 -3.33014E+03 -4.48619E+03 -3.23786E+03
 -2.08812E+03 -3.76566E+03 -1.48261E+03 -4.18805E+03  4.07868E+02 -3.96630E+03  1.34415E+03 -2.57557E+03
 -1.25342E+03 -4.13652E+01  2.53003E+03 -2.45604E+01  1.08794E+03  2.13196E+03 -4.48408E+03  4.92955E+03
 -3.21487E+02  3.93585E+03 -3.74173E+03 -4.30688E+03 -1.53148E+03 -4.65381E+03  2.19528E+02 -2.33978E+03
 -2.20247E+03  5.60705E+01 -4.32592E+02  1.30507E+03  1.70186E+03  2.79097E+03 -6.86129E+02  2.87609E+03
 -2.93430E+03 -1.31091E+03  2.57242E+03 -2.34534E+03  2.04859E+03 -6.84201E+01  1.06761E+03  2.36793E+03
 -1.39339E+03  1.02976E+03 -3.53769E+03  9.82144E+02  3.83660E+03  2.66938E+03 -4.75173E+03 -2.28867E+03
 -3.73020E+03 -4.97656E+02  1.49574E+03 -5.01578E+03 -1.17869E+03 -3.89593E+03  3.51490E+03 -6.53805E+02
  1.36254E+03 -2.08764E+02 -1.67475E+03  3.20025E+03 -1.51780E+03  2.52023E+03 -5.84102E+02 -2.49969E+02
 -7.53779E+02 -1.33907E+03  6.35848E+01  7.12326E+02  4.49606E+03  1.13591E+03  2.68720E+03 -6.48006E+02
 -3.98832E+03  6.44573E+03  1.81310E+03 -1.10158E+03 -4.36198E+03  4.29016E+02  1.85560E+03  3.46688E+03
 -3.53952E+02 -1.94351E+03  4.21120E+02  1.29092E+03 -1.99565E+03  3.11613E+03  2.69578E+03 -3.20938E+02
  1.60878E+03 -4.96400E+02  1.49787E+03 -3.32891E+03 -5.78549E+02  1.95280E+03  2.08804E+03 -7.00092E+02
  2.46891E+03 -4.72244E+02 -1.48134E+03  3.16921E+03 -3.63085E+02  1.95457E+03 -2.65607E+03  1.44653E+03
  1.69894E+03  2.12912E+03 -4.07308E+03 -2.99225E+03  1.97665E+03 -7.04010E+03 -1.65279E+02 -2.12247E+01
  1.86540E+03 -6.15242E+02  1.60158E+03 -3.47446E+03 -3.57811E+03 -5.60820E+02 -1.13385E+03 -9.53268E+02
  1.73466E+03  9.22653E+02 -3.40754E+03 -4.95206E+02 -2.28606E+03 -2.91476E+03  2.91303E+03  8.74173E+02
 -4.34070E+02  1.57234E+03 -1.71822E+03  2.97193E+03  5.90859E+02  3.11595E+03  3.57336E+02  1.25177E+03
 -1.22186E+02 -2.82292E+03 -3.00562E+03  5.82950E+02 -8.28055E+02 -1.32421E+03  1.62460E+02 -5.83992E+02
  1.49189E+03 -5.09054E+02 -9.88675E+01  3.01003E+03  1.84038E+03 -1.67790E+03 -2.24114E+03 -3.42823E+03
 -7.36093E+02  1.78744E+03 -1.82603E+03  1.29511E+03 -3.74779E+03 -1.43153E+03 -2.17034E+03 -3.42639E+03
 -3.57038E+03  4.88274E+03 -2.11528E+03 -1.08455E+02 -5.01536E+03  1.45285E+03 -5.70401E+02 -1.97499E+03
  4.87779E+01 -1.19582E+03  3.21982E+03 -1.81391E+03  1.86285E+03 -2.80944E+03  2.80763E+03 -1.63048E+03
 -2.56675E+03 -2.36429E+03  1.70192E+03 -2.45427E+03  1.02142E+03  2.01799E+03 -2.05648E+03  2.58040E+03
 -5.33968E+02  2.63235E+03  1.51645E+03 -6.94579E+02  1.77209E+03  1.14921E+03  1.33912E+03  6.15195E+02
 -8.83787E+02 -1.79042E+02  1.07315E+03  2.50583E+03 -1.57441E+03 -1.17280E+03  1.59267E+03 -2.67054E+03
  6.78144E+02 -2.28897E+03  8.27198E+02 -2.80596E+03  5.98966E+02  4.10774E+03  8.64611E+02  1.63454E+03
 -3.11669E+03  6.02794E+02 -2.40181E+03  8.77050E+02 -2.74383E+02  4.92436E+03  3.25150E+02  3.15120E+02
  1.26671E+03 -2.56257E+03  1.25920E+03 -3.01788E+03 -4.37155E+02 -1.01020E+03 -2.39636E+03 -1.25706E+03
  2.43143E+03 -1.18151E+03  2.42532E+03  1.77343E+02  8.84363E+02  3.89004E+02  2.26681E+03 -2.63427E+03
 -4.27375E+02 -1.63731E+03 -1.79804E+03  3.52669E+03 -1.65943E+03  5.88924E+02 -9.25682E+02 -1.52012E+03
  8.14126E+02  1.20989E+03 -2.47500E+02  9.63225E+02 -5.14930E+03 -1.21650E+03  4.15387E+03 -1.22891E+03
  3.47756E+02 -9.64017E+02  1.39173E+03 -2.23042E+03  4.95479E+02 -2.69037E+03 -2.73030E+03  1.18417E+03
  7.83618E+02  5.33925E+03 -1.85286E+03 -1.90305E+03  3.82861E+03 -5.97147E+03 -3.92041E+03  3.87036E+02
 -3.62450E+00 -5.14160E+03  4.14653E+03 -1.22382E+03 -3.32003E+03  1.28137E+03 -8.23300E+02  4.03636E+02
 -2.89676E+03  3.57818E+02 -8.00189E+02 -5.09067E+02  2.55970E+03 -1.48368E+03 -1.68918E+03 -1.42514E+03
 -2.48658E+03  1.71317E+02  1.89178E+02 -5.43706E+03  1.76765E+03  2.02445E+03  1.85232E+03  6.67200E+02
