 $NMID ID='MM_0lb_SNR50_14hz_g60_15.RAW', FMTDAT='(8E13.5)'
 TRAMP=1., VOLUME=1. $END
  3.04641E+05 -3.36725E+03  3.42404E+05  2.45973E+05  8.38571E+04  3.41078E+05 -1.36675E+05  2.52248E+05
 -1.88923E+05  8.67384E+04 -1.11313E+05 -3.18986E+04  2.07515E+03 -4.66914E+04  5.32960E+04  2.34381E+03
  4.34493E+04  5.34395E+04 -1.58842E+04  7.53745E+04 -6.56767E+04  5.85524E+04 -8.49176E+04  3.91140E+04
 -8.19699E+04 -1.54513E+04 -5.43018E+04 -5.18090E+04 -1.47414E+04 -7.11294E+04  2.56378E+04 -5.03314E+04
  4.10650E+04  2.11603E+03  1.84216E+04  4.81963E+04 -3.48059E+04  4.78167E+04 -6.26930E+04 -7.63885E+02
 -5.30084E+04 -5.81508E+04 -1.21048E+04 -7.91955E+04  3.51631E+04 -5.27162E+04  4.98369E+04 -1.87592E+04
  4.05202E+04  1.14764E+04  3.80132E+04  2.85153E+04  1.61623E+04  2.85589E+04 -4.02297E+03  2.99919E+04
 -2.03321E+04  8.84488E+03 -1.86572E+04 -1.78984E+03  7.62886E+03 -1.04949E+04  2.56488E+04  1.32900E+04
  2.57463E+03  3.52807E+04 -3.42021E+04  3.45922E+04 -6.41802E+04  2.26172E+03 -5.57797E+04 -4.03230E+04
 -1.61885E+04 -6.42938E+04  4.02305E+04 -4.53331E+04  6.24262E+04 -1.98550E+01  3.75555E+04  3.74991E+04
 -8.10933E+03  3.96762E+04 -2.93746E+04  1.46271E+04 -3.45560E+04 -1.67309E+03 -1.76837E+04 -1.30709E+04
 -5.04577E+03 -1.25476E+04  1.78419E+03 -1.31099E+04  9.04919E+03 -2.34624E+04  1.56628E+04 -1.77864E+04
  1.03559E+04  1.88237E+02 -1.05063E+04  1.20435E+04 -1.92290E+04 -1.41923E+03 -8.18216E+03 -3.58941E+04
  2.91539E+04 -5.01863E+04  5.25024E+04 -1.58772E+04  5.14469E+04  2.30095E+04  1.36772E+04  4.24729E+04
 -2.06547E+04  3.57223E+04 -2.47572E+04 -1.50769E+02 -1.07186E+04 -3.61984E+04  2.25731E+04 -3.45191E+04
  3.99500E+04 -8.10691E+03  3.72167E+04  2.66916E+04  1.66587E+04  4.60850E+04 -3.83205E+03  5.34284E+04
 -3.55277E+04  3.13457E+04 -4.75087E+04  6.31924E+03 -4.30652E+04 -1.60677E+04 -2.64262E+04 -4.09136E+04
  7.36874E+03 -3.53757E+04  3.61339E+04 -1.85673E+04  3.15031E+04  1.68450E+04  1.13506E+03  2.04414E+04
 -1.62540E+04  8.61664E+03 -8.58074E+03 -5.88692E+03  2.43533E+03 -1.32410E+04  1.95419E+04  5.86393E+03
  7.89178E+03  2.38703E+04 -5.60172E+03  2.18663E+04 -2.56549E+04  1.04567E+04 -3.19672E+04  4.99522E+03
 -2.38243E+04 -1.61525E+04 -1.05144E+04 -2.26139E+04  4.56738E+03 -2.03060E+04  1.75238E+04 -2.09210E+04
  2.91971E+04 -6.98304E+03  3.25438E+04  2.67562E+03  2.05274E+04  1.90037E+04 -3.38000E+03  3.98972E+04
 -1.76046E+04  3.20166E+04 -2.85431E+04  1.16734E+04 -1.88163E+04 -9.79530E+03 -1.10484E+04 -8.50431E+03
 -2.48198E+03 -5.21584E+03 -4.71055E+03  8.55097E+03 -1.48633E+04  5.78035E+03 -1.56449E+04 -2.27216E+03
 -7.91592E+03 -2.10314E+04  1.57735E+03 -2.48581E+04  1.71841E+04 -1.92009E+04  2.02850E+04 -3.40936E+03
  1.33005E+04  1.40121E+04  3.23112E+03  1.96392E+04 -1.64867E+04  1.38231E+04 -2.40431E+04 -4.00889E+03
 -1.41980E+04 -2.04768E+04 -1.26603E+02 -2.25137E+04  1.43022E+04 -1.87707E+04  2.03964E+04 -7.97040E+03
  1.26416E+04  1.64336E+03  1.74879E+04 -2.19098E+03  7.88944E+03 -7.30288E+02  6.28145E+03 -6.81776E+02
  1.75767E+04  3.47287E+03  1.81753E+04  1.50737E+04  1.51085E+04  2.82646E+04 -1.73140E+03  3.85393E+04
 -1.78729E+04  2.90033E+04 -3.25531E+04  1.32083E+04 -3.52120E+04  7.40750E+01 -2.73126E+04 -2.02211E+04
 -1.07019E+04 -3.08202E+04  8.35540E+03 -2.51742E+04  2.52974E+04 -1.66881E+04  2.26561E+04  9.19685E+03
  2.40418E+03  1.48383E+04 -7.70762E+03  1.65491E+04 -1.76506E+04  1.52616E+03 -1.51768E+04 -1.38745E+04
  3.54080E+03 -1.65006E+04  9.67869E+03 -1.26476E+04  1.09471E+04 -7.14149E+03 -5.20858E+02  8.24640E+03
 -1.08825E+04  3.20347E+03 -5.03110E+03 -5.28234E+03 -2.30076E+03 -1.10045E+04  1.74579E+04 -1.88709E+04
  1.67601E+04 -6.87865E+03  2.12397E+04  3.25351E+03  1.69057E+04  1.30571E+04  1.15678E+04  2.21277E+04
 -3.72985E+03  2.53562E+04 -1.46143E+04  1.75681E+04 -2.22841E+04  1.17513E+04 -1.25125E+04 -7.40544E+03
 -3.88413E+03 -7.47555E+03 -3.66593E+03  3.87168E+03 -6.01404E+03  1.24176E+00 -3.39576E+03  3.39348E+03
 -1.05945E+04 -3.39323E+03 -1.27617E+04 -1.03442E+04 -5.84759E+03 -1.17691E+04  1.06882E+04 -1.17343E+04
  1.67945E+04 -6.54623E+03  5.83776E+03  2.72184E+03 -3.42904E+02  9.32718E+03 -2.73882E+03  2.08086E+03
 -7.39789E+03 -5.33551E+03  1.14798E+03 -1.07192E+04  3.51751E+03 -1.52883E+04  1.34800E+04 -5.84254E+03
  1.88469E+04  4.84824E+03  1.27785E+04  9.39974E+03  3.07280E+03  1.27597E+04 -8.77990E+03  7.35866E+03
 -1.21855E+04  1.56407E+03 -8.00670E+03  7.23558E+02 -2.05388E+03 -2.62379E+03  9.12831E+03 -9.81573E+02
  9.25605E+03  3.75367E+03  2.26133E+03  8.27322E+03 -6.31566E+03  6.36344E+03 -1.56808E+04 -8.41336E+01
 -1.26172E+04 -4.32198E+03  7.46828E+02 -1.05783E+04  8.21646E+03 -7.02095E+03  9.05642E+03 -1.39972E+03
  6.10464E+03  9.95638E+03 -5.26264E+03  1.04651E+04 -7.06015E+03  2.86139E+03 -8.83990E+03  1.32858E+03
 -8.21779E+03 -7.45097E+03  3.27938E+03 -1.79816E+04  1.20348E+04 -1.07023E+04  1.38345E+04  5.41566E+03
  7.00417E+03  1.21409E+04 -2.17483E+03  9.96982E+03 -1.06103E+04  4.16858E+03 -8.10999E+03 -5.06558E+03
 -1.12024E+04 -7.34361E+03  5.42374E+02 -1.15453E+04  1.91315E+03 -4.85612E+03  7.42445E+03 -4.31011E+03
  1.19832E+03  4.07139E+03  3.52846E+02  3.01741E+01  2.00556E+03 -8.06103E+03  2.78447E+03 -7.53649E+03
  9.54298E+03  1.18381E+03  1.43955E+04 -3.17631E+02  7.43247E+03  8.97732E+03  6.75151E+03  1.64906E+04
 -2.35720E+03  1.32894E+04 -1.27751E+04  1.33698E+04 -1.89907E+04  6.36376E+03 -9.16115E+03 -1.06846E+04
 -7.63655E+03 -1.10341E+04  3.53088E+03 -6.13206E+03  7.66238E+03 -2.85540E+03  2.36562E+03 -1.09560E+03
  7.92285E+02 -8.98057E+02  3.72539E+03 -7.67548E+03  2.94198E+03 -3.36874E+03  7.13579E+01 -6.87056E+02
  4.37952E+03  2.04431E+01 -2.74632E+01  5.04686E+03 -2.97449E+03  9.13413E+03 -3.66966E+03  6.17773E+03
 -1.27717E+04 -1.45390E+03 -6.54760E+03 -9.60765E+03  3.74795E+03 -1.36616E+04  7.14424E+03 -5.76559E+03
  6.41197E+03 -5.90821E+03  1.09523E+04 -4.64357E+03  7.89313E+03  4.23130E+03 -4.81022E+02  1.63193E+04
 -5.05575E+03  9.16280E+03 -8.60555E+03  4.28967E+03 -6.91657E+03 -1.12409E+03 -5.58970E+03  3.54941E+03
 -3.12894E+03 -2.14594E+02 -1.09279E+03  1.00589E+03 -4.86315E+03  2.60871E+03 -8.83476E+03 -2.80445E+03
 -2.62633E+03 -8.84674E+03  1.35082E+03 -1.45633E+04  3.82283E+03 -7.13304E+03  6.00927E+03 -2.61858E+03
  7.92817E+03  4.34334E+03  2.80725E+03  9.20018E+03 -2.38437E+03  7.33817E+03 -2.99267E+03  7.57745E+03
 -6.84503E+03  3.13162E+02 -9.30381E+03 -7.99957E+03  5.75017E+02 -7.92172E+02  1.75593E+03 -4.33092E+03
  9.43102E+03 -3.02791E+03  1.83345E+03  1.90432E+03  5.39490E+03  4.16260E+03 -1.79757E+03 -1.00663E+03
  5.56207E+02 -5.48355E+02  6.72945E+02  1.50517E+03 -4.43516E+02  2.41203E+03  2.06460E+03  6.44634E+03
  1.24819E+03  5.89973E+03 -8.65272E+03  3.60204E+03 -1.09261E+04  3.76918E+03 -4.24795E+03 -2.94552E+03
 -4.67649E+03 -1.21416E+04 -7.13329E+02 -9.50635E+03  7.00688E+03 -4.75368E+03  3.09839E+03 -2.91600E+03
  3.43804E+03  4.72888E+03  2.04755E+03  1.70631E+03 -4.10743E+03  4.70911E+03 -3.87667E+03  1.37929E+03
 -5.81968E+03 -5.70919E+03  1.03825E+04 -2.88432E+03  2.29143E+03 -1.16857E+03  2.96820E+03  2.54751E+03
  3.15397E+02 -2.53961E+03  2.67430E+03 -4.45441E+03  4.40902E+03  3.17124E+03  3.69620E+03  2.57496E+03
  5.69159E+03  1.44955E+03  5.49111E+03  7.67395E+02  2.42958E+03  8.45122E+03  1.42746E+03  2.40510E+03
 -2.09506E+03  6.07854E+03 -7.57599E+03  2.40514E+03 -6.84312E+03  2.59687E+03  8.11530E+02 -5.01185E+03
  1.80169E+03 -2.32007E+03  5.96940E+03  1.05823E+03  6.89408E+02 -1.96898E+02  1.06275E+03 -1.39288E+03
 -3.16422E+03  6.21328E+03 -1.22321E+03 -2.97629E+03 -3.05400E+03 -3.38056E+03  2.20466E+03  1.15306E+03
  1.65502E+03 -3.10547E+03  4.83816E+03  1.22747E+03  4.23501E+03 -3.50517E+03  3.18446E+03  4.81805E+03
 -2.54227E+03  5.18208E+03 -2.94028E+03  1.04889E+02  6.14824E+03  1.18540E+03  2.31186E+03 -6.61806E+02
  5.41382E+03 -3.01558E+03 -3.07686E+02  7.27814E+02  1.34155E+03  8.95060E+03  6.30586E+01 -1.45670E+03
 -4.02695E+03 -5.29135E+02 -9.15860E+03  2.10241E+02 -4.35220E+03  3.11412E+01  1.45404E+03 -4.90687E+03
  1.31295E+03 -1.28796E+03 -1.61319E+03  1.63596E+03  6.97603E+02  7.60927E+03 -1.11273E+03  7.62293E+02
 -1.60167E+03  1.18129E+03  5.65042E+01 -9.79019E+01  1.95021E+03 -1.68448E+03 -2.11276E+03  5.75461E+03
 -1.14054E+03 -2.64405E+02 -7.51496E+03  3.14859E+03 -3.32986E+03  2.68861E+03 -1.17907E+03 -4.25098E+03
 -5.11274E+03 -7.31506E+03  1.95154E+01 -7.62213E+03  4.50419E+03 -7.34685E+03  1.01789E+04  3.20483E+03
  6.63515E+03  2.26127E+03  5.69152E+03  3.91771E+03 -8.31907E+02  1.86964E+03 -4.01299E+03 -2.51486E+02
 -6.18765E+03 -6.76577E+02 -3.98830E+03 -5.03083E+02 -3.51496E+03 -9.49789E+01  3.92739E+03  3.85371E+03
  8.26847E+02  1.89195E+03  3.02298E+03  8.45497E+02 -1.20670E+03  2.99583E+02 -4.12841E+03 -6.31211E+03
  2.80936E+03 -2.10301E+03  6.75902E+03  5.81524E+03  2.35822E+03 -7.34227E+02  1.45185E+03  5.80328E+03
 -6.63464E+03  3.55776E+03 -1.70544E+02 -3.05100E+03 -3.65364E+03 -1.01785E+03 -4.13536E+03  9.41815E+02
 -6.09604E+03 -4.63146E+03  6.69757E+03 -2.04161E+03  1.77326E+03 -3.21976E+03 -1.66133E+03 -3.57318E+03
  1.17567E+03  4.60672E+03 -6.17526E+02  7.50130E+03 -1.12047E+03  6.10673E+02  4.23177E+02  5.58801E+02
 -3.70464E+03 -1.35623E+03  9.93365E+02  3.49016E+03  5.04253E+02  2.11121E+03 -1.43962E+03  2.38418E+03
 -1.56933E+02  4.92164E+03  2.46299E+03  2.32528E+03 -3.38029E+03  2.13505E+03  1.51150E+03  5.73811E+02
  9.64682E+02 -5.33051E+03 -4.37128E+02 -1.79913E+03  1.62019E+02 -2.23302E+03 -1.82902E+03  2.85542E+03
 -9.98218E+02 -7.51612E+02 -3.53806E+03  5.54553E+02 -1.89952E+03  5.41729E+02 -4.53812E+03 -3.50560E+03
  4.46451E+03  1.98900E+03  2.84776E+03  1.01895E+03 -4.20902E+03 -6.01395E+02 -3.74669E+03  5.59433E+03
  3.20945E+03 -1.74758E+03 -8.04409E+03 -4.70127E+03 -6.95958E+03 -1.72976E+03 -6.20575E+02  1.06243E+02
 -3.69044E+02 -3.56260E+03 -1.98177E+03  5.77445E+03  1.48895E+03  2.44595E+03 -1.70324E+03  3.24726E+03
