 $NMID ID='MM_0lb_SNR50_8hz_g40_56.RAW', FMTDAT='(8E13.5)'
 TRAMP=1., VOLUME=1. $END
  3.07471E+05  1.46732E+02  3.41903E+05  2.56144E+05  8.35135E+04  3.43169E+05 -1.37782E+05  2.48554E+05
 -1.93740E+05  8.89545E+04 -1.12089E+05 -2.65981E+04  3.79698E+03 -5.31711E+04  5.28568E+04 -8.51681E+03
  2.99345E+04  6.11570E+04 -1.40488E+04  7.83445E+04 -6.05227E+04  6.37769E+04 -7.84254E+04  3.48499E+04
 -8.24684E+04 -1.32344E+04 -5.92925E+04 -4.39870E+04 -1.66810E+04 -7.43218E+04  3.34647E+04 -4.69519E+04
  4.54361E+04 -6.52232E+02  2.31455E+04  4.35097E+04 -3.15933E+04  5.03650E+04 -6.80428E+04  2.85636E+03
 -4.91688E+04 -5.92837E+04 -1.70686E+04 -8.00282E+04  3.26233E+04 -6.42506E+04  5.03179E+04 -2.11491E+04
  5.04054E+04  1.19784E+04  3.07852E+04  2.89082E+04  2.26914E+04  2.55948E+04 -2.63607E+03  2.34760E+04
 -2.79278E+04  1.53979E+04 -2.41487E+04 -6.82395E+03  3.11491E+02  1.16549E+03  1.80366E+04  1.20351E+04
  9.39423E+03  3.56315E+04 -3.03041E+04  4.09398E+04 -6.57228E+04 -4.31719E+03 -5.97767E+04 -4.58002E+04
 -1.47601E+04 -6.36683E+04  4.13736E+04 -5.00484E+04  6.34781E+04 -4.12784E+01  3.49724E+04  3.63377E+04
 -6.28795E+03  3.75653E+04 -3.07440E+04  2.29078E+04 -3.10355E+04  1.23216E+03 -2.06124E+04 -1.18440E+04
 -4.85503E+02 -1.08006E+04 -3.46657E+03 -1.53926E+04  9.06744E+03 -2.28085E+04  1.53210E+04 -9.45599E+03
  1.26370E+04  4.33461E+03 -3.43588E+03  1.60010E+04 -2.10531E+04 -5.21251E+03 -9.71950E+03 -3.65268E+04
  2.67126E+04 -4.35036E+04  5.39901E+04 -1.72384E+04  5.03915E+04  1.58218E+04  1.47850E+04  4.95460E+04
 -2.00606E+04  3.42585E+04 -2.94857E+04 -2.97410E+03 -1.43200E+04 -2.69735E+04  2.33188E+04 -3.91482E+04
  4.63147E+04 -7.08577E+03  4.02710E+04  2.41208E+04  2.01045E+04  4.43387E+04 -4.99781E+03  6.15581E+04
 -3.83919E+04  3.86860E+04 -4.44977E+04  7.03571E+03 -5.10638E+04 -1.68994E+04 -3.11798E+04 -4.23997E+04
  8.02403E+03 -4.71659E+04  3.83024E+04 -1.17557E+04  3.40689E+04  1.42783E+04  4.78043E+03  2.54802E+04
 -1.15837E+04  1.35504E+04 -1.00040E+04 -6.28419E+03  7.23232E+03 -8.47824E+03  1.67092E+04  6.03663E+03
  1.32864E+04  1.84036E+04  4.49646E+02  2.51962E+04 -2.32482E+04  1.38483E+04 -2.86627E+04  6.79249E+03
 -2.34600E+04 -1.49007E+04 -7.97234E+03 -2.35119E+04  4.13267E+03 -2.76729E+04  1.89619E+04 -2.43709E+04
  3.48116E+04 -1.35179E+04  3.23167E+04  5.74091E+03  3.28301E+04  2.82017E+04  3.76352E+03  4.67371E+04
 -2.03531E+04  2.62559E+04 -3.14607E+04  1.03816E+04 -1.84073E+04 -9.36074E+03 -3.98350E+03 -1.40960E+04
 -4.53265E+02  7.72300E+02 -3.42557E+03  1.31612E+04 -2.25848E+04 -4.36442E+03 -2.05923E+04 -9.39390E+03
 -8.96145E+03 -2.24874E+04  6.41306E+03 -2.90157E+04  2.01222E+04 -2.13888E+04  1.95076E+04 -4.72398E+03
  1.34750E+04  2.07145E+04 -5.96446E+03  2.29400E+04 -1.44460E+04  7.01176E+03 -2.40815E+04 -6.96324E+03
 -2.25641E+04 -1.73768E+04 -2.17277E+03 -3.48737E+04  1.45902E+04 -2.89835E+04  2.65199E+04 -1.42156E+04
  1.87377E+04 -8.56573E+01  1.39596E+04  4.46639E+03  1.05660E+04 -1.17259E+03  1.80806E+04 -1.20122E+03
  2.45864E+04  6.22125E+03  1.97433E+04  1.44486E+04  1.35647E+04  3.16866E+04 -3.14542E+02  3.93050E+04
 -2.54190E+04  3.73278E+04 -4.11269E+04  1.73371E+04 -4.48537E+04 -3.83642E+03 -3.28510E+04 -2.04804E+04
 -1.65259E+04 -3.82190E+04  1.45739E+04 -2.52446E+04  3.21446E+04 -1.44997E+04  2.02286E+04  9.29417E+03
  1.43217E+04  2.27567E+04 -1.34237E+04  1.39664E+04 -1.77949E+04  4.40730E+03 -1.95727E+04 -1.39765E+04
 -3.47013E+02 -1.61918E+04  1.39204E+04 -1.35912E+04  1.57565E+04 -1.44157E+03  3.91649E+03  1.22549E+04
 -8.20061E+03  2.74059E+03 -7.23452E+03 -4.49304E+03 -5.35679E+03 -1.42859E+04  1.33983E+04 -2.12561E+04
  2.73442E+04 -1.48600E+04  2.79248E+04  4.48757E+03  2.98714E+04  1.85143E+04  8.97930E+03  2.77007E+04
 -2.33159E+03  3.71423E+04 -1.94924E+04  1.32552E+04 -1.81983E+04 -9.70677E+02 -1.97957E+04 -7.59394E+03
 -2.51232E+03 -1.00295E+04  2.78992E+03  7.53326E+03 -3.45535E+03  2.87920E+03 -9.65184E+03  9.36335E+03
 -1.68819E+04 -1.42921E+03 -1.68853E+04 -1.29493E+04 -9.74468E+03 -1.87089E+04  3.91232E+03 -1.06789E+04
  1.57677E+04 -7.46925E+03  5.90158E+03  1.48262E+03 -5.52954E+03  1.10804E+04 -8.83257E+03  3.99969E+03
 -1.01191E+04 -1.30197E+04  1.14655E+04 -1.35965E+04  1.14394E+04 -1.26731E+04  1.58820E+04 -7.31326E+03
  3.05396E+04 -9.13062E+02  2.04756E+04  7.47592E+03  6.00030E+03  1.95739E+04 -1.09345E+04  1.27712E+04
 -9.93112E+03  6.92684E+03 -7.11772E+03 -1.16059E+03 -1.91843E+03 -7.85244E+03  1.21567E+04 -9.78262E+03
  8.19111E+03  9.19161E+03  5.04832E+03  1.85240E+04 -9.58050E+03  9.73119E+03 -1.25849E+04  1.36145E+03
 -5.95243E+03 -1.53958E+04  4.60430E+02 -1.25599E+04  1.13501E+04 -5.43714E+03  7.42524E+03  8.97741E+03
  6.13050E+01  5.53288E+03 -2.93856E+03  1.10004E+04 -8.60823E+03  7.31018E+03 -1.07420E+04 -5.60573E+03
 -7.88538E+03 -1.43985E+04  2.25621E+03 -2.19564E+04  1.91595E+04 -9.65041E+03  1.75359E+04  3.29387E+03
  1.08796E+04  1.34958E+04  3.54542E+03  2.03124E+04 -1.99893E+04  7.03918E+03 -1.46067E+04  5.58589E+02
 -1.44036E+04 -1.10967E+03  1.29102E+03 -1.06360E+04  1.01219E+04 -1.15578E+04  6.89441E+03 -1.84423E+02
  9.11870E+03  3.72799E+03 -4.09896E+03 -4.82170E+03 -3.87069E+03 -5.38237E+03  2.73436E+03 -6.71384E+03
  1.21268E+04  5.00780E+02  1.47895E+04  3.73229E+03  1.77724E+04  1.36981E+04  7.26754E+03  1.83205E+04
 -1.31610E+03  2.43797E+04 -1.65171E+04  1.73238E+04 -3.19611E+04  6.66966E+03 -2.43941E+04 -4.91426E+03
 -7.64850E+03 -2.30381E+04 -1.55555E+03 -1.47355E+04  1.09019E+04 -5.64733E+03 -3.52623E+03  9.36814E+02
 -4.38949E+03 -2.17327E+03  5.37204E+03 -5.74977E+03 -5.26491E+03 -4.06263E+03  5.98013E+03 -6.50879E+03
  1.24230E+04  3.18034E+03  1.64295E+04  6.82582E+03  1.02855E+03  7.09127E+03 -6.91925E+03  9.07356E+03
 -1.36838E+04 -2.45031E+03 -8.07925E+03 -1.19135E+04 -2.41672E+03 -2.10926E+04  8.00251E+03 -1.41482E+04
  1.96229E+04 -8.91646E+03  1.66039E+04 -2.82687E+03  8.94938E+03  1.35379E+04  3.87516E+03  1.49919E+04
 -1.20997E+04  1.99147E+04 -1.06887E+04  9.43414E+03 -6.90647E+03  5.53609E+02  1.25272E+02  4.31158E+03
 -2.58402E+03  4.68779E+03 -2.51644E+03  4.21292E+03 -1.05181E+04  7.40408E+02 -1.27265E+04 -6.90433E+03
 -4.28949E+03 -1.37224E+04 -2.49371E+03 -1.08410E+04  1.32762E+04 -1.46688E+04  1.93418E+04 -9.69117E+03
  2.18036E+04  4.75738E+03  6.80859E+02  2.02821E+04  2.15896E+02  1.21526E+04 -1.57123E+04  1.24298E+04
 -1.76041E+04  5.10326E+02 -1.78432E+04 -8.42223E+03  7.64235E+02 -5.59700E+03  7.02803E+03 -7.84303E+03
  1.34488E+04 -5.56146E+02  7.14028E+03 -3.37303E+02  2.45435E+03  4.30422E+03  2.02913E+03  4.42064E+02
  1.04875E+04  7.23476E+03  7.70739E+03  2.60954E+03  1.02137E+04  8.07451E+03  8.66375E+03  1.32596E+04
  7.31814E+01  5.91133E+03 -1.19437E+04  1.56119E+03 -1.49155E+04  3.07709E+03 -1.98857E+04 -6.67299E+03
 -1.01508E+04 -1.14362E+04  3.85896E+02 -1.48382E+04  1.02471E+04 -1.65049E+04  1.91359E+04 -2.19479E+03
  4.24411E+03  5.65345E+03  2.27241E+03  7.69542E+03 -9.40980E+03  8.77783E+03 -8.30819E+03 -4.49330E+03
 -2.67997E+03 -1.07834E+04  9.19656E+03 -9.43166E+03  1.03219E+04 -1.09439E+03  1.31416E+04 -1.61380E+03
  1.11699E+03 -6.43176E+02  2.40489E+03  2.70575E+03  3.08822E+02  3.15001E+03  6.00447E+03 -1.48089E+03
  2.25013E+03 -2.05347E+03  6.43278E+03  3.38986E+03  5.80649E+03  1.06076E+04 -7.12776E+03  1.63538E+04
 -1.13556E+04  7.09935E+03 -5.51061E+03  4.50895E+03 -1.33212E+04 -4.86735E+03 -2.55139E+03 -1.14971E+04
  8.16227E+03 -2.83325E+03  3.75804E+03 -6.51596E+03  7.87078E+03  6.38107E+03  1.77699E+03  1.14737E+04
 -6.24181E+02  6.89000E+03 -1.26682E+04 -2.42790E+03 -4.54298E+03 -7.29614E+03  2.42180E+03 -8.91828E+03
  2.14437E+03 -5.40915E+03  1.81401E+03  3.92020E+03  3.87411E+03  3.74343E+03  1.45579E+03  1.20693E+03
 -2.84035E+03 -3.87725E+03 -2.10958E+03 -1.62992E+03  8.61742E+03 -9.70789E+03  5.97349E+03 -4.64384E+03
  1.47031E+04  7.81104E+03  1.22945E+04  8.59398E+03  4.95996E+03  4.11453E+03 -1.37767E+04  9.22424E+03
 -7.93886E+03  3.47184E+03 -7.54478E+03  1.08962E+04 -5.58152E+03 -7.00383E+03  4.73459E+03 -7.08321E+03
  7.68943E+03 -3.84235E+03  4.36630E+03  7.27354E+02  3.41855E+03  1.75269E+03  1.39899E+03  3.99474E+03
 -9.68145E+03  4.29371E+03 -4.69041E+03  1.44826E+03  1.83905E+03  3.38429E+03 -1.61828E+03 -6.77476E+02
 -2.94565E+03  8.65805E+03 -3.57991E+03  4.03817E+03 -1.47374E+04  1.81165E+03 -1.14241E+04 -6.97038E+03
 -1.01296E+04 -1.83326E+04  7.98749E+03 -1.86248E+04  1.29791E+04 -1.38287E+04  1.67376E+04  2.07368E+02
  1.43349E+04  1.43503E+03  4.98521E+03  5.60337E+03 -9.19919E+02  1.41392E+04 -4.27011E+03  1.31466E+04
 -3.09108E+03  2.19651E+03 -3.55682E+03 -2.98426E+03 -5.75063E+03 -3.59735E+02 -2.33197E+03 -2.89680E+03
 -3.53843E+03  3.09246E+03  1.21207E+03 -7.30699E+02 -5.41229E+02 -2.38347E+03 -1.09322E+03 -8.90084E+02
  6.66951E+03 -2.47945E+03  3.49877E+03  3.92598E+03  1.16527E+04  2.41375E+02  2.81928E+03  1.85284E+04
 -3.74718E+03  1.33400E+04 -3.11270E+03  8.04704E+03 -1.87683E+04  5.41649E+02 -4.66143E+03 -6.95155E+03
 -5.41297E+03 -7.94967E+03 -6.79105E+02 -6.38531E+03  1.27532E+04 -4.76866E+03  6.71701E+03 -2.36728E+03
 -3.27331E+02  2.55038E+03 -7.87830E+01  1.52337E+03 -5.64676E+03 -4.89080E+02 -1.34287E+03 -5.66630E+03
 -1.28746E+03  2.62638E+03  1.93851E+03 -4.11838E+03  2.73182E+03  5.72673E+03  4.51690E+03  1.31776E+04
 -4.97972E+03  1.06975E+04 -3.99806E+03  7.05131E+03 -5.16029E+03 -2.76050E+03 -2.14679E+03 -9.28594E+03
  2.81300E+03 -6.62452E+03  1.08492E+04  2.80619E+03  9.57219E+03  6.31194E+03  5.52265E+03  1.27940E+04
  6.10507E+03  7.84332E+03 -4.03570E+03  1.02580E+04 -5.31500E+03  4.96147E+03 -8.83587E+03 -2.12187E+02
  3.08193E+03 -4.77378E+03 -5.39011E+03  2.15395E+03 -1.80176E+03 -3.50632E+02 -3.65034E+03 -3.96945E+03
 -1.64710E+04 -6.85858E+01 -1.74546E+03 -4.91650E+03  5.91761E+03 -6.90986E+03  9.07609E+03 -3.05669E+03
  4.09618E+03  9.44075E+03  4.75729E+03  1.16127E+03 -8.42080E+03  7.69573E+03 -8.31811E+03  4.02772E+03
