 $NMID ID='MM_0lb_SNR50_12hz_g55_77.RAW', FMTDAT='(8E13.5)'
 TRAMP=1., VOLUME=1. $END
  3.05519E+05  2.10770E+03  3.30245E+05  2.52189E+05  8.90483E+04  3.41819E+05 -1.28398E+05  2.53876E+05
 -1.97460E+05  8.81103E+04 -1.12181E+05 -3.39952E+04 -3.11674E+03 -5.08307E+04  5.56377E+04 -4.01179E+02
  2.96506E+04  5.73786E+04 -1.93177E+04  7.32249E+04 -6.35816E+04  6.55973E+04 -8.43216E+04  3.03385E+04
 -8.10741E+04 -9.69356E+03 -5.72790E+04 -4.89665E+04 -1.60071E+04 -6.53341E+04  2.55900E+04 -4.77090E+04
  3.83418E+04  4.57688E+03  1.83888E+04  5.09918E+04 -4.07766E+04  4.61315E+04 -6.26489E+04  3.98513E+03
 -5.26377E+04 -5.46163E+04 -1.11224E+04 -8.21263E+04  3.28818E+04 -5.28171E+04  4.60141E+04 -1.83594E+04
  4.16818E+04  1.46562E+04  3.37975E+04  3.10189E+04  1.80237E+04  2.94944E+04 -4.79463E+03  3.15931E+04
 -2.48475E+04  1.49211E+04 -1.34805E+04 -1.31189E+03 -5.53584E+02 -4.77880E+03  2.35536E+04  1.52148E+04
  7.20393E+03  4.16178E+04 -3.14118E+04  4.04074E+04 -6.52153E+04  2.45632E+03 -5.64768E+04 -4.88980E+04
 -1.30018E+04 -6.76704E+04  4.62632E+04 -4.98812E+04  5.97695E+04  2.74381E+03  3.19489E+04  3.37473E+04
 -3.05041E+03  3.36154E+04 -3.32282E+04  2.14632E+04 -2.75844E+04 -1.57244E+03 -1.98091E+04 -1.12478E+04
 -8.48017E+03 -1.70065E+04 -1.43302E+03 -1.90422E+04  4.61381E+03 -2.38194E+04  1.51487E+04 -1.08073E+04
  9.77552E+03  3.61557E+03 -1.48538E+04  1.45705E+04 -1.89288E+04 -1.19717E+04 -1.08873E+04 -3.58187E+04
  2.35500E+04 -3.98483E+04  5.35958E+04 -1.73716E+04  5.12515E+04  1.86169E+04  1.45604E+04  4.24328E+04
 -1.86094E+04  3.42873E+04 -2.48404E+04  5.32927E+03 -1.11357E+04 -2.94350E+04  1.72870E+04 -3.49540E+04
  4.48841E+04 -1.03320E+04  3.56680E+04  2.65349E+04  1.87975E+04  4.76025E+04 -5.93154E+03  5.07184E+04
 -3.60393E+04  4.17309E+04 -4.25745E+04  1.27565E+04 -4.70492E+04 -1.48917E+04 -2.47206E+04 -4.12279E+04
  1.07756E+04 -4.35903E+04  3.05399E+04 -1.65773E+04  2.64681E+04  8.72803E+03  7.35408E+03  1.90113E+04
 -1.95318E+04  1.00702E+04 -1.82458E+04 -1.23540E+04  4.50775E+03 -1.19702E+04  1.39414E+04  7.87838E+03
  1.37279E+04  2.02664E+04 -5.03447E+03  2.84536E+04 -2.38346E+04  1.45650E+04 -2.59014E+04 -4.15129E+03
 -2.67533E+04 -2.09259E+04 -1.00678E+04 -2.13175E+04  5.46710E+03 -2.50316E+04  1.99788E+04 -2.08371E+04
  2.90048E+04 -1.30777E+04  2.90866E+04  2.85752E+03  3.07214E+04  2.52685E+04  4.15553E+03  4.28648E+04
 -2.00131E+04  2.66701E+04 -3.27763E+04  9.20178E+03 -2.29372E+04 -1.49277E+04 -8.83484E+03 -1.68503E+04
  8.21192E+03 -2.70874E+03 -8.08863E+03  2.06240E+03 -1.58070E+04  9.75935E+03 -2.18274E+04 -1.07029E+04
 -1.62775E+04 -2.26687E+04  4.79682E+03 -3.00932E+04  1.82799E+04 -1.54036E+04  2.23934E+04 -3.48911E+03
  1.24742E+04  9.37342E+03  3.25008E+03  2.07641E+04 -1.31631E+04  1.16683E+04 -1.93070E+04 -4.47830E+03
 -2.10402E+04 -1.73423E+04 -2.62425E+03 -3.06498E+04  1.00242E+04 -1.75968E+04  2.19598E+04 -9.82754E+03
  2.36774E+04  4.00332E+03  1.55321E+04  3.48898E+03  7.39013E+03 -1.20772E+03  1.08936E+04  1.02640E+03
  2.19337E+04  3.47104E+03  2.42949E+04  1.71143E+04  1.23388E+04  3.75254E+04 -5.86854E+03  3.73917E+04
 -1.76864E+04  3.03900E+04 -2.97435E+04  1.84891E+04 -3.40424E+04 -3.94308E+03 -3.22366E+04 -2.23594E+04
 -1.25497E+04 -3.03469E+04  1.20936E+04 -2.52779E+04  1.96116E+04 -1.28091E+04  2.06141E+04  6.74380E+03
  7.86108E+03  1.79930E+04 -1.00852E+04  1.43603E+04 -1.84148E+04  8.59144E+03 -1.72243E+04 -1.15372E+04
  3.91647E+02 -1.81652E+04  9.99475E+03 -1.22637E+04  1.15691E+04 -8.07969E+03  6.75165E+03  9.80881E+03
 -6.75035E+03  2.49434E+03 -7.37235E+03 -7.03822E+03 -2.28074E+03 -1.52654E+04  9.20169E+03 -1.94960E+04
  1.67987E+04 -7.01849E+03  1.93895E+04  2.59193E+03  2.20100E+04  1.57252E+04  1.22678E+04  2.80421E+04
 -3.23925E+03  2.62294E+04 -1.29766E+04  1.58031E+04 -2.11905E+04  3.51313E+03 -8.54433E+03 -4.68419E+03
 -6.19946E+03 -4.66573E+03 -1.62672E+02  8.85596E+02  2.52787E+03  7.49047E+02 -5.06172E+03  6.83026E+03
 -1.67330E+04 -1.74806E+03 -1.56207E+04 -8.99669E+03 -6.24138E+03 -1.83848E+04  6.59544E+03 -1.66956E+04
  5.64772E+03 -3.79995E+03  1.43550E+04  3.66665E+03 -2.67153E+03  8.49103E+03  1.42289E+03  8.78671E+01
 -7.68413E+03 -5.90139E+03 -5.67298E+03 -1.00153E+04  6.65121E+03 -1.45079E+04  2.16430E+04 -5.67950E+02
  2.15159E+04 -1.16094E+03  8.20983E+03  7.69391E+03  1.83615E+03  1.29347E+04 -8.12952E+03  1.36818E+04
 -1.32983E+04  2.02262E+03 -4.22575E+03 -5.05445E+03  2.16192E+03 -5.87236E+03  1.50839E+03  2.56264E+03
  9.22198E+03  5.65174E+03  3.54330E+03  1.17108E+04 -4.81340E+03  1.01207E+04 -6.41624E+03  5.29147E+02
 -1.18901E+04 -9.92730E+03  5.03005E+03 -6.99800E+03  1.11149E+04 -5.58945E+03  6.91303E+03  1.14541E+03
  7.21494E+03  7.57205E+03 -5.93746E+03  5.71804E+03 -9.05971E+03  6.91002E+03 -9.63876E+03 -2.43698E+03
 -8.79638E+03 -1.02636E+04 -3.50489E+03 -1.56111E+04  1.18823E+04 -1.25270E+04  9.73405E+03  4.94995E+03
  8.62763E+03  8.62947E+03 -7.03484E+03  1.55962E+04 -7.69899E+03  3.27383E+03 -9.00682E+03  1.13762E+03
 -9.46143E+03 -1.20511E+04 -5.72512E+01 -1.24264E+04  4.71878E+03 -5.02380E+03  1.00180E+04 -8.56769E+03
 -1.33091E+03  1.39917E+03 -7.80705E+03 -1.83186E+03  2.82597E+03 -1.30607E+03  4.20559E+03  1.72511E+03
  6.52706E+03 -8.34908E+02  1.08854E+04 -1.76301E+03  1.50369E+04  9.31005E+03  7.42140E+03  1.53473E+04
 -1.10717E+03  1.81774E+04 -1.91718E+04  1.39890E+04 -1.89097E+04  7.70458E+03 -7.33233E+03 -5.22573E+03
 -1.06690E+04 -1.64176E+04 -2.91685E+02 -4.13538E+03 -2.24916E+03 -1.36980E+04  1.43772E+03 -8.77411E+03
  2.26117E+03 -2.90253E+03 -3.48785E+03  3.35080E+03 -6.76662E+02 -3.23321E+03  8.73901E+03 -8.01829E+03
  2.09396E+03  2.83522E+03  5.56639E+03  5.68352E+03  4.45029E+03  7.85641E+03 -3.29411E+03  9.03947E+03
 -6.57900E+03 -1.82142E+03 -7.58153E+03 -6.10908E+03 -3.89599E+03 -1.12858E+04  3.52316E+03 -8.28378E+03
  9.38223E+03 -2.33648E+03  9.30085E+03  2.40116E+03  1.63314E+04  1.63984E+04 -1.02461E+03  1.57390E+04
 -7.71769E+03  1.35037E+04 -7.43203E+03  9.34579E+03  3.42954E+02  1.57239E+02  3.39097E+03 -7.60512E+02
 -4.24911E+03 -1.35819E+03 -3.45718E+03  2.37789E+03 -2.25517E+03  8.12232E+03 -8.93574E+03 -3.40874E+03
 -1.85105E+03 -8.15079E+03 -5.38855E+03 -6.19941E+03  7.90984E+03 -1.37492E+04  1.20390E+04  9.72192E+02
  1.30716E+04  5.71942E+03  2.99862E+03  9.58201E+03 -1.98877E+03  7.79660E+03 -7.78941E+03  8.76337E+03
 -9.06377E+03  3.11695E+03 -3.93847E+03 -2.91905E+03 -5.50040E+03 -1.07848E+04  6.09230E+03 -4.68846E+03
  3.84548E+03 -5.17717E+03 -5.97688E+02 -1.45557E+03  1.23095E+02  1.22288E+02  2.50469E+03 -4.49953E+03
  8.40654E+03  6.76797E+03  4.07046E+03 -8.24294E+02  1.07899E+03  2.01443E+03  3.65858E+03  6.29070E+03
  1.16079E+02  9.84493E+03 -7.66159E+03  1.00338E+04 -1.08947E+04  3.47031E+03 -8.82592E+03 -2.11960E+03
 -3.42768E+03 -1.24215E+04  1.09782E+04 -9.54374E+03  1.77600E+03 -8.86812E+03  5.96865E+03 -4.72055E+03
  3.71595E+03  7.84253E+03 -7.22004E+02  7.46344E+03 -6.01407E+03  5.00124E+03 -3.25907E+03 -3.95733E+03
 -3.48625E+03 -6.74827E+03 -8.48064E+02 -4.06518E+03  4.33990E+03 -5.93032E+03  2.86244E+03 -8.81291E+03
  2.35155E+03 -1.70114E+03  1.13575E+03  2.08999E+03  2.67438E+00 -3.87165E+03  6.67105E+03  3.48360E+03
  2.85796E+03  1.09492E+02  5.01687E+03  4.46741E+03  5.60967E+03  5.06738E+03 -3.62149E+03  8.64639E+03
 -5.58839E+03  4.60867E+03 -7.18272E+03  3.20484E+03 -9.62877E+03 -1.96749E+03  3.24692E+03 -9.67619E+03
  3.50286E+03 -4.71739E+03  4.86204E+03 -6.82175E+03  1.84620E+03  3.42668E+03  4.59290E+03  6.41442E+03
 -1.39186E+03  4.73832E+03 -4.21860E+03 -4.62164E+03  1.45981E+03 -5.60453E+03  3.24016E+03 -4.87952E+03
  2.78330E+03 -2.03984E+03 -8.62972E+02  1.35136E+03  3.81722E+03  1.10170E+03  1.34358E+03 -3.99616E+02
 -2.32482E+03 -2.61481E+03 -1.58077E+03 -1.71579E+03 -6.36290E+03 -3.96630E+03  3.94517E+03 -6.61905E+03
  1.29076E+03  1.50612E+03  1.42133E+04  6.87266E+03 -6.48528E+02  3.01841E+03  1.90913E+03  6.34585E+03
 -6.34833E+03  4.32857E+03 -5.23148E+03  1.09125E+02  1.03002E+03 -1.69312E+03  3.22275E+03 -1.90072E+03
  1.61749E+03 -2.56097E+03  5.23174E+03  5.71123E+03 -4.74236E+03  2.10522E+03 -1.29024E+03 -3.41258E+03
 -6.03664E+03 -4.09748E+03 -3.17507E+02 -1.95787E+03  2.87978E+03  3.53105E+03 -1.08521E+03  2.74922E+03
 -5.49038E+03  5.53456E+03  5.16042E+02  3.10070E+03 -6.99116E+03 -2.68129E+03 -1.30429E+04 -4.31866E+03
 -2.78241E+03 -1.44584E+04 -6.17623E+02 -1.01254E+04  7.75515E+03 -5.77893E+03  1.05414E+04 -2.01848E+03
  8.93559E+03 -9.13624E+02  1.87432E+03  6.37320E+03  5.18070E+02  4.46893E+03 -3.33976E+03  6.05817E+03
 -3.18505E+03  4.01279E+03 -2.35826E+03  2.72027E+03  7.42197E+03 -5.71531E+03  1.19656E+03 -1.64683E+03
 -3.95575E+03 -1.18560E+03  1.77053E+03 -1.74263E+03  3.95620E+03 -3.57516E+03  1.79932E+02 -6.58738E+03
  1.84761E+03 -4.02350E+02  3.56274E+03 -2.81636E+02  3.53104E+03  8.38674E+03  7.06892E+01  8.40479E+03
 -5.47334E+03  8.28694E+03 -1.22422E+04  4.01420E+03 -1.77632E+03  2.79999E+03 -6.38786E+03 -5.11193E+03
 -7.71427E+02 -6.63963E+03 -3.28466E+03 -2.44459E+03  2.17494E+02 -7.58625E+03  1.03605E+04 -7.42642E+02
  1.01294E+01  4.63608E+02 -1.14851E+03  1.70957E+03  6.84077E+02 -5.07825E+03 -2.76523E+03 -4.23435E+03
  4.58605E+03  3.27956E+03  1.05498E+03  5.64913E+03 -1.10309E+03  4.06366E+03  1.12109E+03 -8.51914E+02
 -1.77808E+03  2.54744E+03  1.46163E+03 -4.86994E+03 -1.08231E+03  2.42376E+01 -1.13358E+03 -6.66986E+03
  2.12699E+03 -4.40884E+03  1.72523E+03  1.02504E+03  6.31753E+03  2.37798E+03  1.31806E+03  7.13099E+03
  2.17974E+03 -4.43531E+03  1.66989E+03 -2.56289E+03 -2.30406E+03  1.72023E+03  6.50814E+02 -2.40680E+02
 -6.27810E+03 -2.87796E+03  2.09763E+03 -2.21203E+03  4.49929E+03  7.32980E+02 -1.37878E+03 -1.58605E+03
 -1.77138E+02  4.84199E+03 -3.05077E+02 -2.82414E+03  7.11560E+02 -3.86690E+03  4.36280E+03  2.23855E+03
  3.49797E+03 -2.50186E+03  1.44098E+03  5.48063E+03 -2.11824E+03  4.44007E+03  1.06926E+03  7.91168E+03
