 $NMID ID='MM_0lb_SNR50_20hz_g40_85.RAW', FMTDAT='(8E13.5)'
 TRAMP=1., VOLUME=1. $END
  3.10016E+05 -2.76452E+03  3.38515E+05  2.52697E+05  8.42980E+04  3.36009E+05 -1.31747E+05  2.50579E+05
 -1.85610E+05  8.21453E+04 -1.08472E+05 -3.97862E+04  7.04437E+02 -4.79820E+04  5.08220E+04  3.32088E+03
  3.21674E+04  5.62751E+04 -1.86861E+04  7.53933E+04 -5.97494E+04  6.19583E+04 -8.31966E+04  2.75094E+04
 -8.12074E+04 -9.11975E+03 -5.52091E+04 -5.12024E+04 -1.70039E+04 -6.72961E+04  2.69992E+04 -4.28609E+04
  4.10291E+04  3.64117E+03  1.29964E+04  4.61425E+04 -3.40765E+04  4.80838E+04 -6.31140E+04 -1.72907E+03
 -4.61398E+04 -5.51498E+04 -8.68331E+03 -7.23036E+04  2.95924E+04 -5.18796E+04  4.63410E+04 -1.98395E+04
  3.95048E+04  8.99928E+03  3.13040E+04  1.68439E+04  1.56452E+04  2.75197E+04 -4.82361E+03  2.37681E+04
 -1.41660E+04  1.60639E+04 -1.85400E+04 -5.92566E+03  5.09384E+03 -9.62257E+03  2.28355E+04  9.92022E+03
  3.04087E+03  2.80968E+04 -3.14501E+04  3.47654E+04 -5.92330E+04  1.75936E+03 -5.49577E+04 -4.04352E+04
 -1.31127E+04 -5.77721E+04  3.65203E+04 -4.12513E+04  5.54029E+04 -2.01348E+03  3.12781E+04  2.94663E+04
 -5.79832E+03  2.84276E+04 -2.95566E+04  1.20363E+04 -2.47723E+04 -6.83362E+03 -1.54734E+04 -1.01135E+04
 -9.32366E+03 -8.63549E+03  1.29637E+03 -1.63688E+04  8.44132E+03 -1.88576E+04  1.35488E+04 -1.33726E+04
  9.87688E+03  8.03394E+03 -3.87452E+03  1.17436E+04 -1.69120E+04 -2.57319E+03 -5.80799E+03 -2.58224E+04
  1.50116E+04 -3.99573E+04  5.03566E+04 -2.27116E+04  4.06978E+04  1.99003E+04  1.46123E+04  4.15497E+04
 -2.01473E+04  2.96316E+04 -2.25560E+04  9.35986E+02 -5.88821E+03 -2.64691E+04  2.30777E+04 -2.97759E+04
  4.02099E+04 -7.24849E+03  2.62684E+04  1.95827E+04  1.74438E+04  4.05129E+04 -5.98812E+03  5.01660E+04
 -2.13908E+04  2.94146E+04 -3.51667E+04  1.12013E+04 -3.85526E+04 -1.50362E+04 -2.02335E+04 -3.38825E+04
  2.79789E+03 -3.45073E+04  2.48682E+04 -1.27725E+04  2.46268E+04  1.11913E+04  3.95754E+03  1.39529E+04
 -1.02474E+04  5.66756E+03 -9.42050E+03 -7.70237E+03  6.60395E+03 -1.09125E+04  2.14992E+04  5.90533E+03
  1.06639E+04  2.40656E+04 -1.16189E+04  2.36128E+04 -2.37833E+04  8.18562E+03 -2.22311E+04 -6.72544E+03
 -1.27870E+04 -1.29464E+04 -7.74723E+02 -1.33948E+04  2.82769E+03 -1.58681E+04  1.50797E+04 -9.36009E+03
  1.89552E+04 -1.18325E+04  2.75623E+04  3.91124E+03  1.90208E+04  1.22431E+04  7.72587E+03  2.96615E+04
 -1.55261E+04  2.93286E+04 -2.25305E+04  6.26950E+03 -1.51686E+04 -1.25836E+04 -2.27703E+03 -1.27215E+04
  4.50787E+03 -1.60032E+03 -3.83017E+02  7.58169E+03 -7.65074E+03  2.62878E+03 -1.32323E+04 -4.71858E+03
 -6.47707E+03 -1.31941E+04  5.32588E+03 -1.98274E+04  1.66533E+04 -1.06619E+04  1.33744E+04 -3.18317E+03
  7.55281E+03  1.26219E+04  1.41238E+03  1.64230E+04 -9.02734E+03  8.68500E+03 -1.41394E+04  3.00743E+02
 -8.72918E+03 -8.03038E+03 -6.23314E+02 -2.33706E+04  9.80236E+03 -1.40412E+04  1.41923E+04 -8.49553E+03
  1.22050E+04 -7.66722E+02  4.99255E+03  8.17083E+03  5.02598E+03 -9.00553E+02  7.99638E+03 -2.18813E+03
  9.55152E+03  3.37924E+03  1.09367E+04  1.17037E+04  5.80539E+03  2.22439E+04 -4.13587E+03  2.50247E+04
 -1.28209E+04  2.04166E+04 -2.32428E+04  3.75103E+03 -2.22253E+04 -1.25378E+03 -2.09140E+04 -1.48507E+04
 -8.47911E+03 -1.39404E+04  7.24139E+03 -1.66133E+04  1.74813E+04 -1.13521E+04  1.23945E+04  2.41815E+03
  6.26881E+03  1.35615E+04 -6.88327E+03  1.21493E+04 -1.11869E+04  5.18977E+03 -8.41541E+03 -1.06650E+04
 -1.55870E+03 -1.16832E+04  1.69437E+03 -7.27595E+03  7.06208E+03 -4.60841E+03 -8.26290E+00  4.48173E+03
 -3.94056E+03  3.04812E+03 -3.46860E+03 -2.09004E+03  2.02075E+03 -7.37974E+03  8.32723E+03 -9.37337E+03
  1.16296E+04 -3.48819E+03  9.36247E+03  6.48521E+03  7.67391E+03  4.97291E+03  3.31832E+03  1.30957E+04
 -3.68803E+03  9.47886E+03 -4.19947E+03  7.32652E+03 -7.89627E+03  4.63904E+03 -7.77840E+03 -2.55692E+03
 -3.94065E+03 -2.19568E+03 -3.42224E+02  1.44622E+03  3.76591E+03  1.08728E+03 -3.45371E+03  8.86788E+03
 -7.39412E+03  3.18664E+03 -8.42582E+03 -8.74802E+03 -1.23609E+03 -9.90294E+03  6.84392E+03 -5.03883E+03
  8.09313E+03 -7.39604E+03  7.59637E+03  3.87289E+03 -4.23392E+02  2.61342E+03 -2.10032E+01  4.92599E+02
 -3.19746E+03 -9.95090E+03 -3.81202E+03 -4.62609E+03  3.55524E+03 -6.27636E+03  6.99958E+03 -3.12876E+03
  1.14339E+04 -2.99542E+03  9.73780E+03  5.29431E+03  6.97278E+03  9.24888E+03 -4.53223E+03  7.03527E+03
 -4.51288E+03  5.95536E+03 -5.66926E+03 -4.31908E+02 -1.56209E+03 -8.06343E+03  6.30617E+03 -2.35070E+03
  3.12776E+03  4.80840E+03  2.43672E+03  8.54746E+02  1.01200E+03  8.62577E+03 -5.61049E+03  2.72213E+03
 -2.31771E+03 -4.82007E+03  1.43386E+03 -3.24976E+03  2.48809E+03 -2.84120E+03  4.97461E+03 -1.24615E+02
 -2.17326E+03  8.86330E+03 -5.61063E+02  4.51351E+03 -8.97952E+03  3.69056E+02 -4.05216E+03  1.03071E+02
 -1.93470E+03  6.51232E+02  3.42606E+03 -8.77148E+03  3.12662E+03 -4.17505E+03  2.83847E+03  3.95153E+02
  8.69029E+02  2.67966E+03  4.98206E+02  4.94485E+03 -6.03148E+03  1.77485E+03 -1.92129E+03 -2.07248E+03
 -4.03789E+03 -6.11665E+03 -3.89965E+02  1.03047E+03  2.13992E+02 -4.08998E+03  2.81991E+03 -2.67913E+03
  2.66751E+03  3.15760E+03 -1.83674E+02  4.51085E+03  1.84404E+03  4.53841E+02  5.87698E+03 -1.25519E+03
  3.19564E+03  2.93955E+03 -4.73065E+02 -4.40636E+03  9.53410E+03  4.83624E+03  5.37340E+03  2.07052E+03
 -3.72953E+03  7.34682E+03 -5.56162E+03  4.23805E+03 -9.01636E+03  1.66178E+03 -5.41882E+03  1.32040E+03
 -3.62861E+03 -7.65289E+03 -9.32561E+01 -5.82039E+03  3.28868E+03 -2.43192E+03  3.41278E+03  1.35441E+03
 -8.82407E+01  2.33735E+02  4.16468E+03  4.93406E+02  2.82806E+03  1.53117E+03  1.18933E+03  1.13999E+03
  2.19686E+02  2.81132E+02 -5.29426E+01  5.21214E+03 -3.09854E+03  1.30248E+03 -2.90339E+03  2.13410E+03
 -3.76400E+03  2.29443E+03 -7.79399E+02 -2.28143E+03  4.01036E+02 -3.54419E+03  2.92238E+03 -3.38145E+03
  6.92456E+02 -5.02568E+03  3.70228E+03 -9.42793E+02  6.71695E+03  2.51462E+03  5.99496E+03  7.33367E+03
  7.98356E+02  4.65524E+03 -4.67589E+03 -4.55118E+02 -1.65517E+03 -2.23818E+03 -4.01577E+03 -2.43805E+02
 -4.75081E+02 -1.23652E+03  2.56210E+03  3.99636E+03 -2.96456E+03  2.58776E+03  8.77142E+02  2.46287E+03
 -4.03271E+02 -2.90384E+03  1.54279E+03 -5.24466E+03  2.73802E+03 -5.31599E+03  2.75381E+03  2.08461E+03
  2.93722E+03  8.92393E+02  6.47889E+03  6.30425E+03 -5.88164E+02  1.52776E+03 -1.68266E+03  7.33445E+03
 -6.80940E+03 -2.84076E+01 -8.37804E+02  4.47626E+02 -5.62602E+02 -2.71576E+03 -4.71440E+02 -4.12999E+03
  2.22497E+03  5.65946E+02  9.29835E+02  2.65673E+03  3.06760E+03  8.20698E+02  4.82212E+03  9.59421E+02
  5.79995E+03  5.29858E+02 -1.04592E+03  1.73424E+03  1.57312E+03  3.82560E+03 -1.06598E+03  5.89509E+03
  2.23609E+03 -9.31899E+02 -6.53960E+03  5.39288E+03  2.08282E+03 -1.69298E+03 -5.10639E+03 -2.79480E+03
 -5.65833E+03 -3.81531E+03 -1.67628E+02 -2.73588E+03  1.86998E+03 -6.19990E+03  3.41202E+03  2.65955E+01
  4.49693E+03  6.12329E+03 -5.55340E+02  1.95888E+01  1.86396E+03  2.41028E+03 -4.94024E+03 -5.95853E+02
  2.04603E+03 -2.94824E+03  2.78214E+03 -2.39845E+03  2.82649E+03 -3.65862E+03  3.45568E+03 -3.19968E+02
 -1.03798E+03 -2.58921E+03  3.93584E+03 -1.26139E+03 -3.98951E+01  2.04338E+03 -4.38291E+02 -7.49141E+02
 -2.12097E+02 -2.56741E+03  2.91613E+03  5.49211E+01  7.26333E+02  6.37142E+03 -5.13852E+02  3.28182E+03
  3.03453E+03 -3.38390E+02 -2.99117E+03  2.47390E+03 -4.21803E+03 -3.33137E+02  2.17597E+03 -3.43272E+03
 -1.09499E+03  2.46522E+03 -8.52315E+02 -2.03435E+03  8.61922E+01 -8.47855E+02 -8.19854E+02 -1.69085E+03
 -1.42395E+03 -2.98503E+03  8.56902E+02 -6.48316E+03  4.28477E+03 -2.34199E+03  2.11996E+02 -1.80857E+03
 -8.58527E+02 -1.34302E+02 -2.68934E+02 -3.68411E+03 -5.64297E+02  5.35402E+02 -4.94070E+03 -5.52382E+02
  3.85970E+02 -3.26207E+03 -3.06258E+02  1.52920E+03 -1.41692E+03 -2.71853E+03  6.19482E+03  1.92352E+03
  3.66925E+03  7.21345E+02 -8.33896E+00 -3.90287E+03 -4.36224E+02  8.60252E+02 -2.42784E+03 -3.66799E+03
  2.82721E+03  3.30027E+02 -2.35689E+03 -7.35004E+02 -4.69874E+02 -1.52435E+03  3.57976E+03 -2.32134E+03
  3.41682E+03 -8.76734E+02  2.59436E+03  4.32717E+03  1.36842E+03  3.80926E+03  5.21938E+01  2.67641E+03
 -3.18698E+03  1.68071E+03  4.09442E+03  1.15012E+03 -2.52746E+03  3.35456E+03 -1.24844E+03  2.10899E+03
  1.94369E+02  1.43581E+03 -1.83213E+03  2.70109E+03  5.88148E+02  2.67006E+03 -2.93910E+03 -5.03151E+03
  4.82608E+02  2.57320E+02  2.01517E+03 -4.55443E+02  2.16955E+03 -1.58204E+03  3.38126E+03 -3.08367E+00
 -9.86898E+02 -8.92079E+02  1.96530E+03  1.97532E+03 -2.29988E+03  2.91622E+03  2.96976E+03  6.06271E+02
  2.22370E+03  1.03665E+03 -1.50327E+03  1.73438E+03  1.60417E+03 -1.93060E+01 -1.59305E+03 -2.83830E+03
  8.98590E+02 -2.84088E+03  1.09625E+03  4.24817E+03 -4.45856E+02 -3.40715E+03  2.83256E+02 -1.60886E+03
 -9.33667E+02  2.37714E+02  1.09824E+03  2.45512E+03 -3.11941E+03  3.36010E+03 -3.98631E+03  5.08192E+02
  3.89163E+03  1.20094E+02 -2.42902E+03  2.92245E+03  6.89651E+02  1.86810E+03 -2.77482E+03  1.46128E+03
  1.81639E+03 -3.14847E+03  1.62053E+03 -1.42781E+02 -9.30221E+02  7.95643E+02 -1.05456E+03  5.86489E+02
  9.61550E+02  1.77774E+02 -2.32654E+03  2.89174E+03  7.86788E+02  2.15007E+03  1.29061E+03  5.76435E+03
  3.51482E+02 -5.55428E+02 -3.43196E+02  3.76473E+03  4.28690E+03 -4.40517E+02 -4.10046E+03 -8.65808E+01
 -5.46549E+01 -5.51203E+02  3.58462E+03  1.65495E+03 -3.56863E+02  2.32057E+03  9.59738E+02 -6.15621E+02
  2.99961E+03 -3.95343E+03  2.20387E+03  2.32822E+02 -1.24305E+03 -1.13381E+03 -9.47713E+02 -1.79316E+03
  1.24019E+03  7.50740E+02 -2.74358E+03 -2.20072E+03 -6.33573E+00  9.77769E+02 -3.70638E+03  1.30026E+03
 -2.32654E+03 -1.96296E+03 -4.27688E+03 -2.22736E+03 -5.26779E+03  1.19171E+03  4.40962E+02  4.08561E+03
  2.98907E+03  1.63645E+03 -4.55562E+01 -4.66405E+02 -1.29203E+03 -5.57045E+03 -5.85958E+03  4.03292E+03
  2.28661E+03 -1.31925E+03  3.86042E+03 -6.50442E+02  1.65123E+03 -5.09578E+03  1.33524E+01  5.84992E+03
