 $NMID ID='MM_0lb_SNR50_8hz_g55_9.RAW', FMTDAT='(8E13.5)'
 TRAMP=1., VOLUME=1. $END
  3.11471E+05 -2.30061E+03  3.38382E+05  2.50709E+05  8.57087E+04  3.39275E+05 -1.34072E+05  2.52205E+05
 -1.91894E+05  8.58796E+04 -1.08312E+05 -3.06824E+04  3.74145E+03 -5.19545E+04  5.20095E+04  5.50463E+01
  4.43477E+04  5.84216E+04 -1.71120E+04  8.46047E+04 -6.17097E+04  5.92551E+04 -8.18071E+04  3.10099E+04
 -8.25738E+04 -1.44008E+04 -5.55267E+04 -5.36097E+04 -1.31359E+04 -6.48948E+04  1.96129E+04 -5.04719E+04
  3.97160E+04  5.64611E+03  2.00223E+04  3.79218E+04 -3.42885E+04  4.02883E+04 -6.37483E+04  3.29337E+03
 -6.01231E+04 -5.82585E+04 -1.23861E+04 -7.91317E+04  3.84379E+04 -6.01434E+04  4.48895E+04 -1.44847E+04
  4.42178E+04  7.17207E+03  3.15886E+04  2.46239E+04  1.40721E+04  3.25552E+04 -5.93385E+00  3.11069E+04
 -3.22063E+04  1.70174E+04 -1.69311E+04 -6.59742E+03  4.65715E+03 -9.08808E+03  2.45965E+04  1.83377E+04
  3.05521E+03  4.26454E+04 -4.22981E+04  2.93433E+04 -7.03035E+04 -1.38588E+03 -6.24811E+04 -4.17405E+04
 -1.38211E+04 -7.07680E+04  4.64613E+04 -5.13516E+04  5.97958E+04  3.84831E+03  4.50127E+04  3.96829E+04
  2.26222E+03  4.05742E+04 -2.96903E+04  2.00392E+04 -3.71759E+04 -7.95705E+03 -2.04429E+04 -1.31666E+04
 -7.91721E+03 -1.96787E+04  6.48364E+01 -1.96849E+04  6.15316E+03 -2.49197E+04  1.66605E+04 -7.05862E+03
  1.23926E+04  1.06242E+04 -1.39488E+04  5.13675E+03 -2.16907E+04 -1.16842E+04 -1.16712E+04 -3.88195E+04
  2.79177E+04 -4.59792E+04  5.62878E+04 -2.76701E+04  5.40554E+04  1.81162E+04  1.92724E+04  4.28760E+04
 -1.75108E+04  3.78005E+04 -2.86810E+04  4.64101E+03 -1.05870E+04 -2.90147E+04  2.98754E+04 -2.99959E+04
  4.09042E+04 -1.53497E+04  4.82941E+04  2.90223E+04  1.09747E+04  5.38810E+04 -1.09320E+04  5.44661E+04
 -3.35603E+04  3.89447E+04 -4.65471E+04  3.94411E+03 -5.09450E+04 -2.31623E+04 -3.03241E+04 -4.76416E+04
  3.22699E+03 -4.55616E+04  4.36571E+04 -2.37589E+04  3.19321E+04  5.71901E+03  4.79024E+03  2.14473E+04
 -1.37847E+04  1.37205E+04 -1.44825E+04 -1.22860E+04  3.35875E+03 -9.85760E+03  1.08591E+04  5.79313E+03
  2.08119E+04  2.30566E+04 -3.47251E+03  3.14592E+04 -2.50537E+04  1.29604E+04 -3.09575E+04  1.87259E+02
 -3.48496E+04 -1.58439E+04 -1.13688E+04 -1.88221E+04  6.68214E+03 -2.73379E+04  1.94001E+04 -3.20675E+04
  3.00437E+04 -1.26006E+04  4.12439E+04  7.07306E+03  2.95064E+04  2.29038E+04  8.51951E+03  4.41286E+04
 -2.38660E+04  3.21312E+04 -3.45195E+04  1.25189E+04 -2.22040E+04 -1.63495E+04 -3.39153E+03 -1.57153E+04
  1.94473E+03 -9.17549E+02 -3.43411E+03  1.25604E+04 -1.76853E+04  7.05337E+03 -2.24944E+04 -9.34721E+03
 -8.34722E+03 -2.88127E+04  8.66732E+03 -3.11650E+04  2.27854E+04 -2.05995E+04  2.74688E+04  1.88856E+03
  1.30776E+04  1.67786E+04  1.96805E+03  3.09047E+04 -1.36214E+04  5.70018E+03 -2.23176E+04 -5.77993E+03
 -1.82327E+04 -2.41302E+04  3.47277E+03 -3.21398E+04  1.72975E+04 -1.86592E+04  1.84922E+04 -7.00159E+03
  1.90152E+04 -1.51305E+03  1.51085E+04  6.76728E+03  9.73277E+03  6.68253E+03  1.31693E+04 -6.73433E+03
  1.78406E+04  2.21608E+03  2.64538E+04  1.81332E+04  1.80193E+04  3.45802E+04 -7.87718E+02  4.37886E+04
 -3.03807E+04  4.59586E+04 -4.04568E+04  1.96158E+04 -5.01168E+04 -2.68483E+03 -3.69348E+04 -2.78112E+04
 -1.66854E+04 -3.73135E+04  1.45425E+04 -3.40363E+04  2.52189E+04 -1.30528E+04  2.51136E+04  6.13092E+03
  1.06286E+04  2.77409E+04 -9.15890E+03  9.74427E+03 -2.98364E+04  2.21626E+03 -1.05287E+04 -1.04313E+04
  1.48034E+03 -1.56648E+04  1.07080E+04 -1.97791E+04  1.24452E+04  3.39522E+03 -8.06532E+02  1.50353E+04
 -9.09966E+03 -3.08436E+03 -1.06080E+04 -8.40150E+03 -3.42008E+03 -1.00315E+04  1.74915E+04 -2.50318E+04
  2.46900E+04 -1.36870E+04  3.33336E+04  7.24172E+03  2.61933E+04  2.63746E+04  1.04993E+04  2.43068E+04
 -1.26942E+04  3.78535E+04 -2.07952E+04  1.78468E+04 -2.34015E+04  1.66336E+03 -1.64659E+04 -7.47595E+03
 -4.64177E+03 -1.03826E+04  8.08931E+02  2.57802E+03  2.33811E+03  9.12912E+03 -3.20883E+02  1.08762E+04
 -2.09557E+04 -4.08517E+03 -1.77205E+04 -8.84538E+03 -1.15593E+02 -2.09327E+04  1.02471E+04 -2.26120E+04
  1.07195E+04 -6.97426E+03  1.40051E+04  9.42125E+02 -2.65961E+03  7.18996E+03 -4.51831E+03 -4.37426E+03
 -1.04645E+04 -4.84886E+03  6.30020E+03 -1.85415E+04  1.48862E+04 -1.81832E+04  1.67274E+04 -2.16724E+03
  2.31116E+04  2.35807E+03  2.21817E+04  1.51721E+04  6.63844E+03  1.37577E+04 -8.18422E+03  1.55132E+04
 -1.76453E+04  4.96795E+03 -9.65823E+03 -1.69925E+03  6.73033E+03 -1.15925E+04  1.27528E+04  2.90293E+03
  8.68690E+03  6.17858E+03 -3.57885E+03  1.16832E+04 -1.17873E+04  1.16821E+04 -1.38328E+04  1.79338E+01
 -4.74088E+03 -2.77569E+03 -4.03518E+03 -2.25160E+04  1.04766E+04 -9.75567E+03  1.34831E+04 -2.43361E+03
  1.81742E+03  1.23782E+04 -9.48689E+03  9.35846E+03 -1.34952E+04  6.15209E+03 -1.92885E+04 -8.40735E+03
 -8.26465E+03 -1.73740E+04  2.58982E+03 -2.16917E+04  1.30098E+04 -6.78947E+03  2.13388E+04 -9.18201E+02
  7.54090E+03  1.17958E+04 -7.01122E+03  1.79224E+04 -1.95294E+04  6.12066E+03 -1.24140E+04  1.42274E+03
 -1.54426E+04 -1.39538E+04 -4.71944E+03 -1.39998E+04  7.71346E+03 -9.80610E+03  1.02791E+04 -1.30586E+03
  8.39507E+03  1.03373E+04 -5.44165E+03 -4.59975E+03  7.30095E+02  4.47618E+03  5.64435E+02 -8.45213E+03
  1.10169E+04 -2.76160E+03  1.85427E+04 -2.27504E+00  2.31974E+04  1.66750E+04  7.78546E+02  2.82096E+04
 -1.68595E+03  2.89701E+04 -2.52535E+04  2.65795E+04 -2.98857E+04  6.87296E+03 -2.28390E+04 -8.49229E+03
 -1.32540E+04 -1.25203E+04 -6.11089E+02 -2.18414E+04  8.87989E+03 -8.13795E+03  2.29114E+03 -2.38546E+03
 -2.72452E+02 -2.16190E+03 -7.87382E+03 -4.53068E+03  1.15269E+04 -7.68327E+02  5.28270E+03  5.51034E+03
  1.14842E+04 -1.21094E+03  1.25681E+03  1.31104E+04 -3.76698E+03  1.93470E+04 -1.13590E+04  1.40036E+04
 -1.47880E+04 -4.37475E+03 -1.28562E+04 -1.15109E+04 -4.15128E+03 -1.69495E+04  1.04564E+04 -1.95910E+04
  1.96672E+04 -9.53083E+03  3.12713E+04  9.21876E+03  9.43889E+03  2.03266E+04 -2.38328E+03  1.44538E+04
 -6.33441E+03  1.26678E+04 -1.50411E+04  6.34761E+03 -1.66906E+03 -3.43022E+03  5.49172E+02  4.43582E+03
 -1.84479E+03  1.06247E+03 -5.23564E+03  7.32121E+02 -2.79867E+03  5.09107E+03 -1.20991E+04 -3.63451E+03
 -6.16362E+03 -1.41082E+04  4.95793E+03 -1.94427E+04  9.25710E+03 -1.12038E+04  1.54842E+04  2.61702E+03
  1.21581E+04  1.84666E+03  1.18360E+04  1.06092E+04 -3.90827E+03  1.80030E+04 -1.45882E+04  1.70138E+04
 -9.37422E+03 -2.97858E+03 -1.57213E+04 -4.20491E+03 -3.08758E+03 -1.39802E+04 -3.07880E+02 -7.80106E+03
  1.10432E+04 -1.89554E+03  9.00086E+03  5.98642E+03 -2.15233E+03  4.59731E+03 -1.81483E+03  6.34139E+03
 -1.23730E+03 -2.47117E-01  3.56599E+02 -1.56607E+03 -2.42536E+02  8.09622E+03  2.98519E+03  2.44509E+03
 -9.78299E+03  1.16587E+04 -7.86196E+03  1.64108E+04 -2.32056E+04  7.37908E+03 -2.05880E+04 -6.36236E+03
 -4.96600E+03 -1.47881E+04  2.23547E+02 -2.25785E+04  9.39591E+03 -1.26206E+04  1.47771E+04 -8.99929E+03
  5.90843E+03  1.39123E+03 -2.06888E+03  5.46086E+03 -4.63482E+03  4.61438E+03 -3.03962E+03 -2.78682E+03
 -3.86464E+03 -2.05664E+03  2.04754E+03 -9.54748E+03  8.77730E+03 -5.50314E+03 -5.06796E+02  1.38098E+03
  9.58569E+02  6.19871E+03  6.77529E+03  3.42483E+03  2.77748E+03 -4.27277E+03 -2.52814E+03  1.47422E+03
  3.11371E+03 -3.22833E+03  1.36966E+03  3.15965E+03 -8.46100E+02  1.60833E+04  3.61706E+03  1.65181E+04
 -1.10104E+04  4.85677E+03 -1.23470E+04 -1.46716E+03 -1.42845E+04  2.63110E+03 -5.16767E+03 -1.55269E+03
 -2.89753E+03 -2.19790E+03 -4.09836E+03 -2.92974E+03  9.49723E+03  1.44247E+03  9.46339E+02 -2.24079E+03
 -1.25308E+04  9.33152E+03 -1.39255E+04  2.22897E+03 -3.23293E+03 -1.69782E+04  1.27293E+03 -1.43475E+04
  7.29629E+03 -1.00561E+04  1.18188E+03 -9.62599E+03  2.67888E+03  1.35834E+03 -1.68718E+03  1.36067E+03
 -3.78615E+03 -2.39287E+03 -5.67923E+03 -5.42129E+03  8.96613E+03 -8.89775E+03  8.12700E+03  3.54824E+02
  1.16823E+04  4.08341E+03  8.54907E+03  8.60095E+03 -2.74621E+03  9.01985E+03 -1.10450E+03  1.49703E+04
 -5.81629E+03  2.84429E+03 -1.39796E+04 -8.76115E+03 -2.84080E+03 -3.14646E+03  1.09135E+03 -1.14406E+04
  6.58383E+03  1.33200E+02  6.27458E+03 -4.59525E+03  3.47608E+03  5.14547E+03  1.40644E+02  4.27913E+03
 -9.21469E+03  6.30167E+03 -6.42818E+03  5.05591E+02 -4.16394E+02  4.48271E+03 -2.18052E+03  1.56386E+03
 -9.97268E+03 -4.07526E+03 -7.24431E+03 -5.00951E+03 -1.13000E+04 -5.35741E+02 -1.61989E+04 -7.09970E+03
 -5.78014E+03 -1.64809E+04 -4.57416E+02 -1.47815E+04  9.84253E+03 -1.40220E+04  2.35398E+04 -5.04311E+03
  1.02812E+04  2.35772E+03  1.01342E+04  1.55393E+04  1.48934E+02  1.81944E+04 -2.24018E+03  9.08826E+03
 -9.01935E+03  3.71225E+03 -2.02853E+03  6.56945E+02  4.72867E+02  5.57560E+03 -7.34689E+03  8.48806E+02
 -5.38019E+03 -7.55896E+02 -9.75921E+02  7.93672E+03  3.64130E+02 -8.23420E+03  4.87511E+03 -4.89801E+03
  5.79543E+02 -2.47759E+03  3.45901E+03  8.19881E+03  1.04793E+04  6.57833E+03  5.78878E+03  1.12537E+04
 -9.22707E+03  1.36403E+04 -1.05236E+04  5.43156E+03 -1.78645E+04 -9.21283E+02 -1.12512E+04 -1.07688E+04
 -5.44582E+03 -9.76914E+03  1.02878E+04 -1.23106E+04  4.34190E+03 -2.88906E+03  6.77464E+03  1.78567E+03
  6.57052E+03  1.10176E+04 -5.33655E+03 -3.57527E+03 -6.73972E+02  3.35336E+03 -3.84836E+03 -3.86152E+03
  2.04360E+03 -2.71521E+02  2.73154E+03  2.95854E+03  6.22879E+03  3.98061E+03  1.22423E+03  1.23388E+04
 -9.14416E+03  1.14936E+04 -8.78029E+03 -4.78102E+03 -9.06972E+03 -1.00401E+04 -1.78207E+03 -3.08805E+03
  4.87774E+02 -1.39731E+04  1.38784E+04 -3.98204E+02  9.90125E+03  2.09200E+03  7.19273E+03  9.42859E+03
 -2.00558E+03  6.52008E+03 -2.29865E+03  3.71201E+03 -3.86214E+03  6.40067E+02 -2.22181E+03  4.14607E+03
  4.86898E+02  7.01543E+03  1.17428E+03 -1.80463E+03 -2.24057E+03 -2.80223E+03 -4.44221E+03 -2.03533E+03
 -1.15535E+04 -7.83680E+03 -2.46762E+03 -1.02256E+04 -2.08312E+03 -8.69933E+03  1.26612E+04 -8.69384E+03
 -4.63046E+02  5.76649E+03  4.39442E+03  1.00259E+04  1.94873E+03  2.20527E+03 -6.01212E+03  5.58665E+03
