 $NMID ID='MM_0lb_SNR50_8hz_g55_53.RAW', FMTDAT='(8E13.5)'
 TRAMP=1., VOLUME=1. $END
  3.07490E+05  6.31015E+02  3.44618E+05  2.53753E+05  8.40146E+04  3.37798E+05 -1.31338E+05  2.56104E+05
 -1.88824E+05  7.90016E+04 -1.12936E+05 -3.88888E+04  2.37466E+03 -5.01632E+04  5.20443E+04  5.02305E+03
  3.16875E+04  5.70897E+04 -1.59841E+04  7.30501E+04 -6.19810E+04  6.46409E+04 -8.49292E+04  3.73508E+04
 -8.76127E+04 -1.10882E+04 -6.52231E+04 -5.91326E+04 -9.45508E+03 -7.03642E+04  3.09774E+04 -4.98214E+04
  4.26803E+04 -1.20938E+03  1.49813E+04  4.86777E+04 -3.36024E+04  4.85870E+04 -6.88638E+04 -6.93006E+03
 -6.11967E+04 -6.56816E+04 -3.14428E+03 -8.40337E+04  2.89575E+04 -5.95749E+04  5.60189E+04 -1.93267E+04
  4.19431E+04  8.67921E+03  3.86445E+04  1.95782E+04  1.45948E+04  3.44732E+04 -5.86149E+03  2.99578E+04
 -1.78632E+04  8.33193E+03 -1.98410E+04 -1.50298E+04  1.06457E+04 -8.21535E+03  2.48894E+04  2.22962E+04
  4.88889E+03  3.60045E+04 -3.62459E+04  3.46327E+04 -6.56502E+04  1.11290E+04 -6.33128E+04 -4.78090E+04
 -1.24182E+04 -6.56186E+04  4.72336E+04 -4.56601E+04  6.24160E+04 -6.54196E+03  3.54562E+04  3.42612E+04
 -2.02288E+03  4.51796E+04 -2.66485E+04  1.93291E+04 -3.27958E+04  2.56294E+03 -2.02079E+04 -7.81886E+03
 -5.74903E+03 -1.06909E+04  2.01765E+03 -2.14561E+04  4.23253E+03 -2.25875E+04  1.55628E+04 -1.38308E+04
  4.91007E+03  7.92424E+03 -1.07957E+04  1.69394E+04 -2.60878E+04 -7.99572E+03 -8.43002E+03 -3.98181E+04
  2.27979E+04 -4.32208E+04  5.64971E+04 -1.87844E+04  4.14889E+04  2.07519E+04  1.47888E+04  4.81745E+04
 -1.35921E+04  3.80382E+04 -2.28488E+04  6.90145E+03 -9.99812E+03 -2.88241E+04  2.69137E+04 -4.04445E+04
  4.81661E+04 -7.03061E+03  4.08718E+04  2.96786E+04  1.83502E+04  4.79698E+04 -1.01352E+04  6.01317E+04
 -3.50136E+04  3.47642E+04 -5.02825E+04  9.69725E+03 -5.45106E+04 -1.84573E+04 -2.75282E+04 -4.78937E+04
  2.66429E+03 -4.67365E+04  3.54771E+04 -1.86208E+04  3.31732E+04  1.32453E+04  7.69930E+03  2.05197E+04
 -9.76572E+03  5.38783E+03 -9.02256E+03 -6.67964E+03  3.66550E+03 -7.79208E+03  2.00897E+04  1.24360E+04
  2.07705E+04  3.35725E+04 -8.32764E+03  2.55793E+04 -1.56564E+04  1.44277E+04 -3.93568E+04 -5.88144E+03
 -2.51837E+04 -1.22821E+04 -1.50120E+04 -2.13567E+04  2.53137E+03 -2.79959E+04  2.10496E+04 -2.15951E+04
  3.29066E+04 -1.49513E+04  3.41299E+04  3.59002E+03  2.94938E+04  2.63182E+04  9.17035E+03  4.82703E+04
 -2.80437E+04  3.12797E+04 -3.06823E+04  1.44058E+04 -2.35034E+04 -5.66437E+03 -9.49535E+03 -1.49762E+04
  1.98266E+03 -7.17608E+02 -8.54646E+03  1.32638E+04 -1.79729E+04  1.84099E+03 -2.43170E+04 -1.70112E+04
 -1.58313E+04 -2.87385E+04  8.43522E+02 -3.31845E+04  2.47418E+04 -2.17082E+04  2.70559E+04 -9.34574E+03
  1.83383E+04  1.44400E+04 -3.19062E+03  2.74748E+04 -1.74440E+04  1.28814E+04 -2.77942E+04  3.63413E+03
 -1.81248E+04 -2.25187E+04 -5.18924E+03 -3.43440E+04  5.22215E+03 -2.85812E+04  2.42304E+04 -1.48437E+04
  2.03133E+04 -1.72548E+03  9.74417E+03  7.49309E+03  1.47705E+04 -7.08049E+03  1.25272E+04 -3.66758E+03
  2.62688E+04  9.43294E+03  2.57881E+04  1.92066E+04  2.31507E+04  4.38785E+04  3.02281E+03  4.75084E+04
 -2.72821E+04  4.04467E+04 -4.32228E+04  1.80399E+04 -5.28381E+04  2.44883E+03 -3.59546E+04 -2.96833E+04
 -1.38171E+04 -4.46700E+04  1.54132E+04 -3.42450E+04  3.59096E+04 -1.07753E+04  2.63329E+04  1.26458E+04
  6.95724E+03  1.87709E+04 -1.01096E+04  2.13904E+04 -2.36327E+04  3.22041E+03 -1.43732E+04 -2.03504E+04
  1.89845E+03 -1.39887E+04  1.07882E+04 -2.30058E+04  1.28794E+04  3.45490E+01  2.41706E+03  1.46789E+04
 -2.11059E+03 -3.33931E+03 -1.21938E+04 -1.03723E+04  1.12875E+03 -1.98818E+04  9.55406E+03 -3.01390E+04
  2.13436E+04 -5.84730E+03  2.86987E+04  4.78790E+03  2.60137E+04  1.34330E+04  1.71993E+04  3.63665E+04
 -6.00707E+03  4.06079E+04 -2.49021E+04  2.11168E+04 -3.25558E+04  9.94313E+03 -1.39898E+04 -4.95682E+03
 -1.17736E+04 -8.33306E+03 -4.85798E+03 -8.09938E+03 -2.05721E+03 -1.09489E+03 -1.07506E+04  5.08252E+03
 -1.32908E+04  3.51591E+02 -1.91915E+04 -1.48323E+04 -4.49317E+03 -2.01058E+04  9.33872E+03 -1.52978E+04
  1.56493E+04 -7.51708E+03  1.27993E+04  1.03715E+04 -2.98349E+02 -2.24597E+03 -1.01218E+04  4.34607E+02
 -6.09424E+03 -1.52256E+04 -7.46104E+03 -1.64469E+04  1.40680E+04 -1.74407E+04  2.07130E+04 -6.98663E+03
  2.15366E+04  2.49162E+03  1.20314E+04  1.83347E+04  5.17896E+03  2.76265E+04 -8.36196E+03  1.93360E+04
 -1.42522E+04  9.60021E+03 -3.87016E+03 -5.71564E+03  5.53390E+03 -1.68482E+03  8.45366E+03  6.30324E+03
  5.34754E+03  4.42774E+03  9.13072E+02  7.05389E+03 -1.42738E+04  1.28810E+04 -1.61421E+04  3.66779E+03
 -1.30486E+04 -7.30745E+03  2.61685E+03 -1.87390E+04  9.07364E+03 -1.09015E+04  7.32743E+03  1.12015E+03
  2.81630E+03  1.45196E+04 -6.65577E+03  1.19974E+04 -7.91411E+03  5.93039E+03 -2.15839E+04 -9.26630E+03
 -9.41205E+03 -1.98088E+04  6.18214E+03 -1.48023E+04  1.34407E+04 -1.18405E+04  1.43141E+04  1.75046E+03
  1.31143E+04  1.83898E+04 -1.83599E+03  2.11519E+04 -1.81497E+04  1.60307E+04 -1.34939E+04 -1.51319E+03
 -9.99863E+03 -1.15898E+04 -4.57590E+03 -7.98634E+03  3.31298E+03 -1.26755E+04  6.96946E+03 -3.89933E+03
  1.28172E+04  2.03649E+03  3.89530E+03  3.41075E+03  3.46966E+03  2.17289E+03  4.58095E+02 -1.20452E+04
  1.00906E+04 -4.14409E+03  2.07849E+04  5.72093E+03  1.74844E+04  1.21094E+04  6.33621E+03  1.94850E+04
 -9.08784E+03  2.82785E+04 -1.97005E+04  2.23009E+04 -3.46856E+04 -2.22554E+02 -3.01774E+04 -3.70543E+03
 -1.74613E+04 -2.14673E+04 -1.11400E+04 -1.40542E+04  2.10139E+02 -7.30712E+03  4.54062E+03 -1.13303E+04
  3.53336E+03 -3.20836E+03  4.80614E+03 -2.87110E+03  6.23613E+03 -6.80430E+03  9.85517E+03 -6.29712E+03
  7.53132E+03  2.81315E+03  8.96198E+03  1.80713E+04 -1.97055E+03  1.61705E+04 -1.23734E+04  1.58170E+04
 -1.79951E+04 -7.23752E+03 -4.02031E+03 -1.37443E+04 -8.35875E+02 -2.21211E+04  9.34796E+03 -2.23697E+04
  1.87863E+04 -1.08804E+04  2.38130E+04 -2.77867E+03  1.42571E+04  1.82073E+04  7.42437E+02  2.75845E+04
 -1.32336E+04  1.77303E+04 -1.31947E+04  8.65563E+03 -8.21250E+03  4.29800E+03 -2.53096E+03  2.76569E+03
 -7.64072E+03  7.86528E+03 -5.28861E+03  2.33290E+03 -9.54757E+03 -3.74551E+03 -1.45658E+04 -5.91615E+03
 -5.05391E+03 -9.69732E+03 -5.55511E+02 -1.93362E+04  8.97262E+03 -1.26703E+04  2.15723E+04 -8.20772E+03
  2.12498E+04  8.90181E+03  6.68677E+03  1.55263E+04 -3.48451E+03  1.65920E+04 -1.42945E+04  1.45412E+04
 -1.13576E+04  1.50942E+03 -1.15782E+04 -1.04168E+04 -4.19730E+03 -2.02579E+04  1.34363E+03 -1.60292E+04
  1.31023E+04 -4.02719E+03  5.32573E+03 -6.63405E+02  5.35368E+03  3.00224E+03  1.00108E+03  5.10192E+02
  4.69420E+03  2.13239E+02  8.23498E+02  2.24376E+03  6.05054E+03  3.36878E+03  8.05449E+03  8.66385E+03
 -7.18814E+03  1.17583E+04 -1.36490E+04  1.32094E+04 -1.75148E+04  9.97991E+02 -2.10940E+04 -3.70254E+03
 -8.94957E+03 -1.89949E+04  1.06252E+03 -2.31817E+04  9.70808E+03 -1.17691E+04  1.30018E+04 -2.36693E+03
  1.60502E+04  7.48603E+03  8.38950E+02  1.62561E+04 -6.32267E+03  4.03207E+03 -5.44236E+03 -8.42911E+03
 -2.63649E+03  1.02415E+03  5.47350E+03 -1.03223E+04  4.69545E+03  2.85349E+03  3.05412E+03  3.69150E+03
  2.47819E+03  3.36781E+03 -3.78390E+03  4.99638E+03 -3.86906E+03 -4.67087E+01  5.29707E+02  6.10178E+03
  2.37030E+03  2.15545E+03 -1.96820E+03  7.76403E+03  6.74829E+03  8.80175E+03 -4.74875E+03  2.32957E+04
 -1.45089E+04  6.08860E+03 -8.30101E+03  3.35924E+03 -1.14405E+04 -4.06423E+03 -9.86101E+03 -8.49630E+03
  6.41319E+03  1.71148E+03  2.45800E+03 -3.60484E+02  5.86973E+03  2.67202E+03  3.46728E+03  1.03243E+04
 -9.91620E+03  5.29711E+03 -5.63584E+03 -5.59996E+03 -4.11217E+03 -9.85447E+03  4.64543E+03 -5.48544E+03
  1.01642E+04 -3.18440E+03  8.51992E+03  2.02120E+03  7.19634E+03  3.38193E+03  3.64235E+03  6.84620E+03
 -1.56377E+03  9.96671E+03 -8.17797E+03 -2.92154E+03  7.21968E+03 -1.03789E+04  1.24862E+04 -1.43107E+04
  1.58896E+04 -5.22424E+03  1.24237E+04  1.31399E+04  3.16916E+03  1.33997E+04 -3.97774E+03  1.92469E+04
 -5.80593E+03  5.38386E+03 -5.13707E+03 -8.51244E+03 -3.16740E+03 -2.66976E+03  3.38452E+03 -7.68322E+03
  5.60998E+03 -5.19427E+02  6.30225E+03 -4.66282E+03 -1.17408E+02  7.53764E+03 -7.11318E+03  6.17556E+03
  1.90313E+03  1.08157E+04 -1.22022E+03 -1.13032E+01 -8.88648E+03  4.80739E+02  5.61113E+03  2.76276E+03
 -3.64922E+03  9.25656E+03 -2.27261E+03  7.81958E+03 -8.85845E+03 -5.41813E+03 -1.39639E+04 -3.83189E+03
 -6.48059E+03 -9.08876E+03  7.46328E+03 -1.22123E+04  6.83364E+03 -1.87195E+04  2.11735E+04 -1.26470E+04
  1.13078E+04 -4.73723E+03  1.55533E+04  8.50082E+03  1.71495E+03  2.54811E+04 -1.86306E+03  7.88987E+03
 -6.88724E+03  1.41210E+03 -1.26667E+03  2.16356E+02 -5.43341E+03 -4.34379E+03  1.90954E+03 -6.37973E+03
 -5.35100E+03  5.57096E+03 -1.24187E+03  2.77027E+03 -8.65989E+03 -1.57548E+03 -1.50318E+01 -4.55734E+03
  9.37431E+03 -4.24650E+02  1.10033E+04  1.38958E+03  8.36969E+03  9.70834E+03  8.62977E+02  1.18963E+04
 -1.09060E+04  1.34748E+04 -1.37479E+04  6.32029E+03 -1.43589E+04 -3.70298E+03 -1.81656E+04 -1.44540E+04
 -3.70165E+03 -1.47221E+04  5.08819E+02 -1.58819E+04  9.08444E+03 -8.88233E+03  6.22983E+03  2.32958E+02
  1.47918E+03  7.49844E+03 -4.97137E+03 -2.35787E+03 -3.75094E+03  3.94583E+03 -3.03811E+03 -7.09776E+03
  2.74831E+03 -9.51684E+03  1.52457E+02  1.01210E+03  5.53705E+03  9.31162E+03  1.06013E+03  8.80587E+03
 -1.49996E+04  1.31400E+04 -8.41111E+03  3.37812E+03 -7.02149E+03 -1.08131E+04  3.20186E+03 -9.80063E+03
  9.35292E+03 -1.00327E+04  1.09808E+04 -6.59370E+03  1.32899E+04  8.71995E+03  5.44147E+03  1.44335E+04
 -6.29898E+03  1.15190E+04 -1.82836E+03  5.00704E+03 -2.41194E+03  4.89829E+03 -5.22202E+03  3.69479E+01
 -1.33468E+03 -2.39167E+03  3.34615E+03  5.62567E+03 -7.42599E+03  7.58446E+03 -5.21801E+03 -2.28521E+02
 -9.13282E+03 -3.25867E+03  1.24307E+03 -2.43549E+03  5.84443E+03 -1.63525E+04  4.14367E+03 -1.13967E+04
  6.61893E+03 -5.70384E+03  1.06410E+04  1.11521E+04 -3.00823E+03  7.51650E+03 -5.91991E+03  1.96399E+03
