 $NMID ID='MM_0lb_SNR50_9hz_g50_33.RAW', FMTDAT='(8E13.5)'
 TRAMP=1., VOLUME=1. $END
  3.11992E+05  2.29123E+03  3.32476E+05  2.49877E+05  8.15883E+04  3.37908E+05 -1.33041E+05  2.51271E+05
 -1.87441E+05  9.27710E+04 -1.11755E+05 -2.63826E+04 -2.77102E+03 -5.33795E+04  6.16522E+04 -1.18408E+03
  3.08649E+04  5.28118E+04 -1.72969E+04  7.60763E+04 -6.63099E+04  6.16004E+04 -8.95990E+04  3.50709E+04
 -8.51438E+04 -8.19848E+03 -6.27707E+04 -4.89543E+04 -1.15456E+04 -7.58710E+04  2.87129E+04 -4.32427E+04
  3.71706E+04  6.31839E+03  2.20210E+04  4.55763E+04 -3.62274E+04  4.38705E+04 -6.66252E+04 -3.29583E+03
 -5.22462E+04 -5.78590E+04 -4.21843E+03 -8.19233E+04  3.39845E+04 -5.36068E+04  4.69301E+04 -1.88203E+04
  4.78881E+04  1.18589E+04  2.77805E+04  2.27940E+04  1.13583E+04  3.09340E+04 -5.72978E+03  2.97900E+04
 -2.64893E+04  9.73760E+03 -1.69064E+04 -6.70457E+03  6.88954E+03 -1.14657E+04  2.51215E+04  1.02974E+04
  1.71991E+03  3.89816E+04 -3.01249E+04  3.37944E+04 -6.63953E+04 -6.94330E+02 -5.46040E+04 -4.06794E+04
 -1.92865E+04 -6.33942E+04  3.26835E+04 -4.64991E+04  6.36998E+04 -4.37866E+03  3.43687E+04  3.00733E+04
 -1.86421E+03  3.76629E+04 -3.03336E+04  2.24768E+04 -3.29773E+04 -1.56500E+04 -2.29351E+04 -1.67234E+04
 -9.44811E+03 -1.89616E+04 -9.86112E+02 -1.60247E+04  5.60873E+03 -2.09855E+04  1.87584E+04 -1.15204E+04
  1.50056E+04  8.64466E+03 -3.48483E+03  6.60136E+03 -2.79879E+04 -4.62953E+03 -6.78983E+03 -4.02760E+04
  2.79809E+04 -4.56216E+04  5.09543E+04 -2.46745E+04  4.79086E+04  1.85386E+04  2.22058E+04  4.52685E+04
 -1.75546E+04  3.56828E+04 -3.03721E+04 -3.29771E+03 -1.45694E+04 -2.65331E+04  1.67473E+04 -3.22000E+04
  4.30387E+04 -7.65529E+03  3.69140E+04  2.46090E+04  2.26327E+04  5.04567E+04 -8.15664E+03  5.41101E+04
 -3.63821E+04  3.34844E+04 -4.41480E+04  3.82596E+03 -4.93000E+04 -1.64021E+04 -2.60076E+04 -4.57791E+04
  8.52975E+03 -3.91041E+04  4.05009E+04 -1.88483E+04  3.21088E+04  1.15569E+04  1.08060E+04  1.87554E+04
 -1.37121E+04  1.30377E+04 -7.68905E+03 -5.35770E+03  5.32434E+03 -1.17030E+04  1.47306E+04  7.16646E+03
  1.37984E+04  2.40730E+04 -4.36309E+03  2.30377E+04 -2.56648E+04  1.22345E+04 -3.53201E+04  2.83365E+03
 -2.11307E+04 -1.68631E+04 -8.93590E+03 -2.90685E+04  1.08779E+04 -1.95451E+04  2.14710E+04 -2.11858E+04
  3.16440E+04 -1.62133E+04  3.96654E+04  8.48966E+03  3.25798E+04  2.84051E+04  1.03547E+04  4.54567E+04
 -2.14963E+04  3.75294E+04 -3.13389E+04  1.11516E+04 -2.72858E+04 -8.20190E+03 -2.38296E+03 -1.21538E+04
  2.89561E+03  2.12930E+03 -4.57811E+03  9.67092E+03 -2.18809E+04  2.88103E+03 -1.80887E+04 -1.87547E+04
 -1.25051E+04 -2.62711E+04  6.11346E+03 -2.63755E+04  2.14218E+04 -1.96159E+04  2.17395E+04 -1.22150E+03
  1.55315E+04  2.04297E+04  4.16900E+03  2.18779E+04 -1.90860E+04  1.22660E+04 -2.58653E+04  1.26780E+03
 -1.59874E+04 -1.79915E+04 -3.99506E+03 -2.10006E+04  1.22715E+04 -2.11231E+04  2.50891E+04 -6.84347E+03
  2.88544E+04  2.54118E+03  1.16940E+04  1.81286E+03  1.04323E+04 -4.15974E+03  1.67397E+04  1.94961E+03
  1.78043E+04  8.75511E+03  2.02759E+04  1.82238E+04  1.87988E+04  3.76460E+04  8.54313E+02  4.02358E+04
 -2.64067E+04  3.54272E+04 -4.80799E+04  9.72084E+03 -4.17528E+04 -5.60212E+03 -3.99439E+04 -2.86269E+04
 -1.40970E+04 -3.62488E+04  1.93725E+04 -3.43670E+04  2.18246E+04 -1.03701E+04  2.83300E+04  1.12665E+04
  7.11094E+03  2.32174E+04 -1.08579E+04  1.67172E+04 -2.33044E+04  2.28896E+03 -1.55000E+04 -1.49930E+04
 -1.63620E+03 -1.95201E+04  9.56892E+03 -8.49548E+03  7.77707E+03  3.47386E+03  6.91582E+03  7.77243E+03
 -1.16142E+04  7.05309E+03 -9.47916E+03 -1.27491E+04  1.91843E+03 -1.74500E+04  1.29168E+04 -2.39157E+04
  2.00589E+04 -1.24326E+04  2.35339E+04  1.21178E+04  2.12579E+04  1.32277E+04  1.00732E+04  2.98736E+04
 -6.17221E+03  2.95717E+04 -2.49635E+04  2.03702E+04 -2.41966E+04 -9.52707E+02 -1.40038E+04 -3.16265E+03
 -8.05866E+03 -4.52941E+03  3.18820E+03  3.14104E+03 -3.45794E+03  1.20137E+03 -1.09486E+04  8.57640E+03
 -1.35727E+04 -2.77004E+03 -1.84951E+04 -7.77378E+03 -3.42691E+03 -2.13511E+04  3.99524E+03 -1.30225E+04
  8.39391E+03 -4.15315E+02  7.89961E+03  8.14252E+03  6.44555E+03  5.29156E+03 -1.25697E+04  3.45212E+03
 -1.39529E+04 -1.01173E+04  2.86469E+03 -1.70922E+04  2.85008E+03 -1.40869E+04  1.62387E+04 -6.40581E+03
  2.20141E+04  2.02620E+03  1.80446E+04  1.50523E+04  3.05322E+03  2.13357E+04 -5.74809E+03  1.56456E+04
 -8.27204E+03  8.16246E+03 -1.52550E+04 -6.88580E+01  4.18581E+03  3.52464E+02  5.04265E+03 -3.25684E+03
  1.11824E+04  7.76846E+03 -5.68429E+02  1.33345E+04 -6.33873E+03  1.37888E+04 -1.28842E+04  5.19124E+03
 -1.27804E+04 -1.07081E+04  4.46802E+03 -1.33195E+04  1.10694E+04 -4.31279E+03  7.57131E+03  1.99487E+02
  8.74069E+02  8.95123E+03 -8.53655E+03  9.22429E+03 -1.61353E+04  4.39475E+03 -1.72649E+04  4.33662E+01
 -8.92327E+03 -1.71648E+04  5.40286E+03 -1.88866E+04  1.47366E+04 -8.54449E+03  1.73446E+04  9.36395E+03
  6.78362E+03  1.05225E+04  1.76100E+03  1.15356E+04 -1.31856E+04  1.05411E+04 -1.91571E+04 -2.66266E+02
 -7.75145E+03 -1.67878E+04 -8.29938E+03 -1.41193E+04  3.91171E+03 -6.94272E+03  9.10714E+03 -9.07324E+02
  3.07445E+03  2.15673E+03  2.22872E+03 -3.40935E+03 -5.64367E+02 -4.67257E+03 -3.33777E+03 -1.30741E+04
  8.38473E+03 -9.28768E+03  2.09950E+04  2.34346E+03  1.33517E+04  7.77627E+03  9.54638E+03  1.97380E+04
 -4.20678E+02  2.04849E+04 -1.88065E+04  2.09362E+04 -2.95874E+04  2.10819E+03 -1.99016E+04 -8.91058E+03
 -1.20126E+04 -1.11310E+04  8.54580E+02 -1.68108E+04  8.02553E+03 -1.12067E+04  4.66769E+03 -8.92191E+03
  1.30527E+03 -7.46491E+02  3.30700E+03  1.17583E+03  5.66050E+03 -3.84262E+03  2.13101E+03 -1.36347E+03
  9.51155E+03 -1.61627E+02  4.65560E+03  5.03346E+03 -2.13012E+03  1.03039E+04 -1.06567E+04  9.14310E+03
 -1.89559E+04 -7.69912E+02 -5.57378E+03 -1.24455E+04 -8.80106E+03 -1.69226E+04  1.43835E+04 -1.25779E+04
  1.34317E+04 -7.59306E+03  1.76100E+04  4.66027E+01  1.28182E+04  1.62134E+04  1.35484E+03  1.81559E+04
 -4.39431E+03  1.84776E+04 -1.18870E+04 -2.56995E+02 -6.61420E+03 -5.19338E+03  5.68188E+02 -3.72413E+03
  3.65856E+03  2.72046E+03  3.39649E+02  2.03966E+03 -2.23360E+03  3.44202E+03 -5.16550E+03 -4.34504E+03
 -5.84228E+03 -9.66218E+03  1.35179E+03 -1.70647E+04  1.06848E+04 -6.83449E+03  2.06676E+04 -5.59084E+03
  1.54573E+04  4.65127E+03  8.27059E+03  1.30713E+04  1.60001E+03  1.89634E+04 -8.71933E+03  1.16346E+04
 -1.52394E+04  4.86385E+03 -1.77130E+04 -1.49581E+04 -1.18463E+03 -1.44264E+04  1.15029E+04 -8.94136E+03
  9.46964E+03 -2.37283E+03  1.76105E+03  4.99989E+02 -2.61786E+02  1.11545E+04  7.65112E+02  6.87946E+03
  1.70960E+03  5.92590E+03  7.26426E+03  6.20403E+03  1.14732E+04  4.22353E+03  6.47492E+03  7.75400E+03
 -1.65372E+03  1.04941E+04 -7.59155E+03  1.67885E+04 -2.45458E+04 -3.04715E+02 -1.40334E+04 -7.37965E+03
 -8.04544E+03 -1.41622E+04  7.79651E+03 -1.73310E+04  8.14492E+03 -5.81991E+03  1.24353E+04 -5.01652E+03
  4.60099E+03  4.79371E+03 -5.40932E+02  1.31956E+04 -6.12983E+03 -1.20972E+03 -9.46842E+03 -1.32047E+03
 -4.88175E+03 -8.53691E+03 -5.93539E+03 -5.67357E+03  7.07678E+03 -1.87665E+03  8.57523E+03 -8.81590E+02
 -3.10709E+03  6.73486E+03 -2.67284E+03  8.12509E+03 -3.27608E+03  2.36425E+03  1.37163E+03  5.80071E+03
  3.00851E+03  2.70917E+03  6.57667E+03 -6.47337E+03  1.52058E+03  1.39265E+04 -2.13027E+03  1.63642E+04
 -7.09765E+03  8.54052E+03 -6.68725E+03  6.84632E+03 -7.64150E+03 -5.66723E+03 -5.60805E+03 -7.39722E+03
  1.51609E+03 -5.65090E+03  9.74289E+03 -1.19114E+03 -4.40026E+02 -1.42083E+02 -3.72751E+03  9.31256E+03
 -7.45734E+03  6.50456E+02 -6.74324E+03 -3.46633E+03 -5.97040E+03 -1.06924E+04  4.13702E+03 -3.05263E+03
  2.67592E+03 -7.94918E+03  2.32709E+03 -2.47645E+03  2.96178E+03  6.00419E+03 -3.94161E+03  3.91165E+03
  1.62620E+03  5.42285E+03 -7.60238E+03 -4.97709E+03  1.31896E+03 -6.16521E+03  5.93890E+03 -7.18916E+03
  1.49901E+04 -4.85490E+03  6.28061E+03  1.16787E+04  2.48965E+03  1.35099E+04 -1.02024E+04  1.22409E+04
 -9.57627E+03  4.21928E+03 -1.50657E+04 -3.44265E+03 -7.37252E+03 -1.00816E+04  6.80884E+02 -4.75713E+03
  5.46158E+03  3.51857E+02  6.61555E+03  2.18988E+03  6.36067E+03  4.11511E+03  3.86782E+03  2.23356E+03
  6.67889E+02 -7.36318E+02 -3.19836E+03 -1.49730E+02 -3.64222E+02  1.07938E+03 -5.57492E+02  2.17786E+03
 -9.57762E+03 -1.39577E+03 -8.03240E+03 -5.81854E+02 -6.09620E+03 -4.11287E+03 -1.15860E+04 -7.00888E+03
 -3.46490E+03 -7.18178E+03  5.81510E+03 -1.68006E+04  1.19389E+04 -1.52822E+04  1.25889E+04 -8.39883E+03
  1.63990E+04  2.06958E+03  7.13734E+03  1.00637E+04 -3.66717E+02  9.99283E+03 -4.50509E+03  1.01478E+04
 -1.02370E+04  4.50662E+03 -5.84795E+03  1.07648E+03 -3.19481E+03 -2.38886E+03  5.49835E+03 -1.54389E+02
 -1.12139E+04  9.58744E+02 -1.96182E+03  1.48842E+03 -1.03073E+03  1.89730E+03  5.53961E+03 -2.76310E+03
  5.71509E+03  5.00188E+02  7.96110E+03 -1.20128E+02  1.21023E+04  3.54801E+03  5.82325E+02  7.52310E+03
  2.46161E+02  1.43383E+04 -5.77721E+03  2.60680E+03 -1.33459E+04  2.27916E+03 -1.37427E+04 -7.51148E+03
 -4.60198E+03 -7.96971E+03  5.19452E+03 -1.40969E+04  8.77619E+03 -1.83304E+03  5.81569E+03  2.14813E+03
 -2.93571E+03  4.54909E+03 -6.10178E+03  2.54485E+03  1.66435E+03 -5.39911E+03  2.55493E+03 -4.51002E+03
  7.10289E+03 -1.81444E+03  5.31890E+03  2.58845E+03  1.01392E+03 -3.35893E+03 -1.80728E+03  2.74433E+03
 -7.00065E+03 -3.60578E+02 -1.08043E+04 -4.77170E+03 -5.83095E+03 -3.00023E+03 -3.47366E+03 -1.09603E+04
  3.76421E+03 -7.22910E+03  6.62827E+03  1.91845E+03  5.50361E+03  5.16201E+03  1.92025E+03  8.60074E+03
  3.10003E+03  1.61289E+04 -8.97136E+03  1.39556E+04 -3.43594E+02 -1.18442E+03 -5.53392E+03 -2.54140E+03
 -2.27075E+03  4.23353E+03 -2.53639E+03  2.05887E+02 -1.66433E+03  8.53432E+03 -4.11178E+03 -1.75524E+03
 -4.81264E+03 -5.61162E+03 -3.98789E+03 -7.23284E+03  3.14016E+03 -1.32128E+04 -1.78613E+03 -4.13449E+03
  7.56491E+03  5.80080E+03  8.63142E+03  9.84293E+03  8.35585E+01  7.43085E+03 -5.42626E+03  1.58209E+04
