 $NMID ID='MM_0lb_SNR50_7hz_g50_51.RAW', FMTDAT='(8E13.5)'
 TRAMP=1., VOLUME=1. $END
  3.12967E+05 -5.52576E+03  3.28723E+05  2.47678E+05  8.42869E+04  3.38481E+05 -1.33786E+05  2.49896E+05
 -1.86792E+05  8.43726E+04 -1.17695E+05 -2.74835E+04  4.03652E+02 -4.69073E+04  5.28168E+04 -2.89671E+03
  3.67404E+04  5.14072E+04 -1.69097E+04  7.65831E+04 -6.08187E+04  6.40131E+04 -8.07482E+04  2.77628E+04
 -8.41243E+04 -9.05382E+03 -5.45875E+04 -5.38151E+04 -9.73869E+03 -7.30537E+04  3.39398E+04 -4.72781E+04
  3.78756E+04  2.90977E+03  1.83268E+04  4.78588E+04 -3.64234E+04  4.29351E+04 -6.88534E+04  6.78717E+03
 -5.29955E+04 -5.32959E+04 -9.04997E+03 -7.74865E+04  3.73565E+04 -5.66355E+04  5.06267E+04 -2.06402E+04
  4.31897E+04  7.70790E+03  2.93752E+04  2.58802E+04  1.20147E+04  2.93841E+04  2.86328E+03  2.98050E+04
 -2.31990E+04  3.70710E+03 -2.13015E+04 -1.34200E+04  4.07997E+03 -9.26929E+03  2.86804E+04  9.56560E+02
  8.29497E+03  3.53475E+04 -3.77171E+04  3.19122E+04 -6.73057E+04  3.75020E+03 -5.84349E+04 -4.04440E+04
 -1.18062E+04 -6.59719E+04  3.80203E+04 -4.33143E+04  7.37128E+04 -6.92220E+03  3.71894E+04  3.24905E+04
 -7.61975E+03  4.21325E+04 -3.63375E+04  2.25237E+04 -3.39551E+04 -2.80861E+03 -1.67492E+04 -1.48668E+04
 -1.18131E+04 -7.63327E+03 -1.32339E+04 -2.19241E+04  8.40922E+03 -2.50422E+04  1.41940E+04 -7.46986E+03
  1.30148E+04  4.33463E+03 -6.91843E+03  1.80010E+04 -2.46786E+04 -9.24302E+03 -5.52607E+03 -3.52569E+04
  2.53912E+04 -5.07681E+04  5.79746E+04 -2.08304E+04  4.88371E+04  2.82609E+04  1.93585E+04  4.09576E+04
 -2.11273E+04  3.43199E+04 -3.13659E+04  2.92626E+03 -1.00583E+04 -3.21814E+04  2.72508E+04 -4.09170E+04
  3.78216E+04 -5.92586E+03  4.75622E+04  2.91636E+04  1.54824E+04  5.10928E+04 -1.36493E+04  6.49032E+04
 -4.23492E+04  4.03642E+04 -5.13437E+04  6.42827E+03 -5.25340E+04 -2.12258E+04 -2.53748E+04 -4.49910E+04
  1.28383E+04 -4.60614E+04  3.21977E+04 -2.44496E+04  3.47601E+04  6.21050E+03  5.56673E+03  1.98465E+04
 -1.21536E+04  1.19368E+04 -1.74843E+04 -8.60062E+03  1.73589E+04 -1.21768E+04  1.36776E+04  1.09554E+04
  8.87696E+03  1.78354E+04 -7.11484E+03  2.95396E+04 -2.60468E+04  2.22532E+04 -3.45547E+04  8.17261E+02
 -2.85776E+04 -2.09876E+04 -1.07462E+04 -2.68093E+04 -2.43272E+02 -3.31866E+04  2.39626E+04 -2.42477E+04
  3.47257E+04 -1.27694E+04  3.67977E+04  6.36489E+03  3.30942E+04  2.27379E+04  8.25639E+03  3.59762E+04
 -1.88723E+04  2.68818E+04 -2.65917E+04  8.46741E+03 -1.75290E+04 -1.24012E+04 -5.45961E+03 -1.53570E+04
  2.00948E+03  7.36692E+03 -1.05303E+04  8.43193E+03 -2.43553E+04  2.37065E+03 -1.82425E+04 -4.60037E+03
 -6.92541E+03 -1.88130E+04  5.03392E+03 -2.91681E+04  2.24287E+04 -1.81830E+04  2.53679E+04  3.40405E+03
  1.40261E+04  1.49873E+04  4.60133E+03  2.30429E+04 -2.17611E+04  1.54346E+04 -3.03156E+04 -6.76668E+03
 -2.11432E+04 -2.45621E+04  1.88012E+03 -2.64012E+04  1.58960E+04 -1.55165E+04  2.82595E+04 -1.55486E+04
  2.98415E+04  1.35795E+03  1.21112E+04 -7.99389E+02  6.58507E+03  8.95677E+03  1.36572E+04 -4.53308E+03
  2.41296E+04 -3.36570E+03  2.32371E+04  1.52038E+04  1.93127E+04  2.99040E+04 -6.74489E+02  4.94968E+04
 -2.71679E+04  4.34978E+04 -5.02894E+04  2.41286E+04 -5.16050E+04 -1.71648E+03 -3.89188E+04 -2.75689E+04
 -1.70423E+04 -4.80918E+04  1.03792E+04 -3.02943E+04  2.88447E+04 -1.12662E+04  2.38791E+04  1.55853E+04
  8.76649E+03  1.63651E+04 -1.43684E+04  1.34296E+04 -1.63358E+04  5.99775E+03 -1.38554E+04 -1.36641E+04
 -4.34108E+02 -1.87206E+04  1.39034E+04 -1.39401E+04  1.12377E+04 -1.41795E+01  7.90913E+03  1.13834E+04
 -1.29919E+04  5.51981E+03 -1.07326E+04  3.06677E+01 -4.61558E+02 -2.23036E+04  8.56703E+03 -2.33626E+04
  2.06213E+04 -1.19859E+04  2.44719E+04  9.07605E+03  2.36148E+04  2.08534E+04  1.04813E+04  2.64761E+04
  2.50544E+03  3.05464E+04 -2.42780E+04  3.07656E+04 -2.48713E+04  3.86403E+03 -1.45100E+04 -5.17820E+03
 -5.06624E+02 -7.26133E+03 -5.82981E+03  3.07985E+03  3.02953E+03  7.47188E+03 -8.78008E+02  5.73837E+03
 -1.94359E+04  2.52012E+03 -1.28905E+04 -1.66453E+04 -1.06373E+04 -2.07110E+04  1.04546E+04 -1.53375E+04
  1.58720E+04 -1.72880E+04  1.38161E+04  4.34019E+03  4.98004E+02  4.55527E+03 -1.26665E+04  8.18296E+02
 -1.19587E+04 -1.72346E+04  3.23742E+03 -2.77895E+04  1.23238E+04 -1.59980E+04  2.83666E+04 -2.85784E+03
  2.67491E+04  4.56892E+03  2.44819E+04  1.90636E+04 -2.02199E+02  2.48725E+04 -9.18992E+03  2.28834E+04
 -1.86317E+04  7.74951E+03 -7.42730E+03 -6.58332E+01  4.86157E+03  3.84362E+02  8.25502E+03 -9.57938E+03
  1.15999E+03 -2.21494E+03 -7.63128E+03  4.98178E+03 -1.04626E+04  9.99548E+03 -1.12636E+04  3.87566E+01
 -9.99511E+03 -5.29337E+03  6.58698E+02 -1.18418E+04  8.16140E+03 -9.89963E+03  6.74866E+03 -4.35560E+02
  1.06991E+04  9.30264E+03 -2.81760E+03  2.07385E+04 -2.01776E+04  5.94002E+03 -1.20952E+04 -7.02691E+03
 -6.24412E+03 -1.97569E+04  1.05259E+04 -2.04355E+04  1.45263E+04 -1.33410E+04  2.50612E+04  8.94304E+03
  1.08335E+04  1.45737E+04 -2.96718E+03  2.53575E+04 -1.93824E+04  6.95233E+03 -1.90468E+04 -4.45948E+03
 -1.08601E+04 -6.33239E+03 -7.37023E+03 -1.43434E+04  6.84979E+03 -1.81853E+04  1.44925E+04 -1.18355E+04
 -4.30308E+02  6.56835E+03 -7.23255E+02  6.47638E+02 -1.95636E+03 -2.15244E+03  2.12426E+02 -8.54231E+03
  1.17259E+04  9.49348E+02  2.64242E+04  3.75902E+03  1.22652E+04  1.21761E+04  1.26337E+04  1.72950E+04
 -1.05550E+03  3.56645E+04 -1.33353E+04  1.90065E+04 -2.51610E+04  3.50693E+03 -3.52926E+04 -1.89616E+04
 -1.94469E+04 -2.11287E+04  3.12843E+03 -1.41296E+04  4.07414E+03 -5.66543E+03  1.19446E+04 -3.64435E+03
  1.45024E+03 -1.77338E+03  3.53322E+03 -3.73877E+03  4.65568E+03 -6.66522E+02  5.81544E+03  1.26312E+03
  7.24074E+03  8.76704E+02 -1.20213E+03  1.46261E+04 -6.00150E+03  1.84783E+04 -1.28520E+04  8.06666E+03
 -1.38877E+04 -4.34333E+03 -7.67685E+03 -9.95007E+03 -2.31084E+03 -2.15911E+04  1.08065E+04 -2.67566E+04
  1.47136E+04 -8.82641E+03  2.09644E+04  4.00450E+03  1.87514E+04  1.16178E+04  6.01008E+03  2.24124E+04
 -7.84421E+03  1.58107E+04 -1.13889E+04  6.19497E+03 -9.91096E+03 -1.47015E+03 -9.15644E+03 -2.43232E+03
 -6.41030E+02  4.94294E+03 -4.33360E+03 -5.35077E+02 -1.97957E+03  1.71362E+02 -1.13646E+04  4.31844E+03
 -1.57750E+04 -9.70526E+03 -3.32934E+03 -2.00031E+04  1.20885E+04 -1.63162E+04  1.73348E+04 -5.17133E+03
  1.94926E+04  9.24965E+03  1.53268E+04  1.23250E+04 -9.67940E+03  1.77803E+04 -1.18927E+04  6.32332E+03
 -1.80578E+04  9.29686E+03 -1.28208E+04 -8.95865E+03 -6.97323E+03 -2.30447E+04  1.81823E+04 -1.35882E+04
  1.36315E+04 -7.41075E+03  5.81875E+03  4.72632E+03  4.82689E+03  5.71954E+02  3.57799E+03  6.37024E+03
 -4.95623E+02  4.58159E+03  4.51435E+03  2.08370E+03  7.23465E+03  1.81033E+03  8.04179E+03  1.36411E+04
 -2.82686E+03  1.09389E+04 -1.61154E+04  4.00312E+03 -2.40039E+04  4.53593E+03 -2.03451E+04 -8.77244E+03
 -1.27563E+04 -2.31038E+04  1.31333E+04 -2.85881E+04  1.48933E+04 -1.74089E+04  1.43001E+04 -2.12099E+03
  5.48187E+03  7.97257E+03  3.75586E+03  1.05051E+04  7.09652E+03  1.07935E+04 -1.11717E+04 -3.52197E+03
 -1.47508E+03 -1.03821E+04  1.11492E+04 -5.71245E+01  9.30937E+03 -5.31988E+03  1.29956E+04 -3.70661E+03
  1.47453E+04  2.71578E+03  4.59861E+03  5.22382E+03  9.60266E+02  1.64768E+03  5.45546E+03  2.00562E+03
  1.62991E+03  1.52852E+03  6.83749E+03  1.01357E+03  5.29733E+03  7.50057E+03 -1.32232E+03  1.31666E+04
 -7.84154E+03  3.32773E+02 -1.62242E+04  3.07291E+02 -9.87289E+03 -4.88648E+03 -6.84233E+03 -1.02145E+04
 -1.05357E+03 -6.42900E+03  3.70047E+03 -5.32463E+03  8.96475E+03  9.15382E+03 -3.55398E+03  1.17798E+04
 -8.89527E+03 -2.89211E+02 -7.84742E+03 -9.46559E+03 -4.11919E+03 -1.25049E+04  3.43128E+03 -1.07826E+04
  6.02912E+03 -6.95718E+03  1.19095E+04 -5.89665E+03  1.47821E+04  5.77976E+03  6.97402E+03  3.75808E+03
 -9.21069E+03  6.53559E+03 -9.17161E+02 -5.01905E+03 -2.80164E+03 -1.71415E+04  6.35108E+03 -1.03582E+04
  2.03807E+04 -1.69711E+03  3.00242E+03  1.28672E+04  9.62634E+03  6.93260E+03 -5.48883E+03  1.21493E+04
 -1.98504E+04  7.27710E+03 -1.42786E+04  4.82476E+03 -9.15510E+03 -6.19647E+03  1.13271E+03 -6.33101E+03
  9.81247E+03 -6.84156E+03  6.93029E+03  1.89942E+03  5.24247E+03  5.73411E+03 -4.94558E+02  1.33802E+04
  6.41388E+03 -8.40460E+03  2.46204E+03 -4.78878E+03 -4.76068E+02  1.50409E+03 -2.85589E+03  8.65984E+03
 -4.61089E+03  4.15162E+03 -1.52136E+04  1.26178E+03 -1.54993E+04 -1.57619E+03 -1.38150E+04 -9.29927E+03
 -1.43851E+04 -2.30825E+04 -2.04294E+03 -2.38511E+04  1.88780E+04 -2.39188E+04  2.28800E+04 -1.80541E+03
  1.62660E+04  7.87736E+03  1.03784E+04  1.53400E+04  6.23693E+03  1.76118E+04 -9.73109E+03  2.81372E+03
 -7.54967E+03  6.44179E+03 -9.36250E+03  1.33387E+02  6.37249E+02  3.71619E+02  6.01459E+03  1.51409E+03
  5.20660E+02 -8.90410E+02 -6.12953E+03  4.25940E+03  2.12319E+03 -7.67138E+03 -2.37778E+03 -1.07570E+04
  6.43554E+03 -6.22649E+03  3.38643E+03  5.37673E+03  1.14883E+04 -1.35289E+03  1.09237E+02  1.24742E+04
 -1.26201E+04  1.60072E+04 -1.41896E+04  9.26252E+03 -1.72901E+04  1.43337E+03 -1.77671E+04 -8.83316E+03
 -8.65296E+03 -1.45388E+04  6.46046E+03 -1.34697E+04  3.33898E+03 -7.29054E+03  1.07572E+04 -6.91758E+02
  6.57624E+01  6.07371E+03  5.78361E+03 -4.33640E+02 -7.00235E+03  2.01560E+03 -4.40727E+03  8.17180E+03
  1.76823E+03 -5.96606E+03  8.34079E+03 -4.57807E+02  8.54399E+03  1.08315E+03  1.81378E+03  1.05042E+04
 -1.20827E+04  1.46423E+04 -1.25224E+04 -7.96536E+03 -1.30704E+04 -8.14283E+03  9.89221E+02 -2.17092E+04
  6.46277E+03 -1.30045E+04  1.83856E+04 -5.47605E+03  6.43981E+03  1.14812E+04  1.12224E+04  9.79891E+03
  5.33375E+03  7.75252E+03  6.32880E+03  3.33700E+03 -3.06620E+03  6.30204E+02 -1.03993E+04 -8.57149E+01
 -1.01189E+03 -1.99653E+03 -1.24338E+04 -5.30531E+03 -2.93808E+03  5.79650E+03 -6.90067E+03 -1.96010E+03
 -9.93094E+03 -5.67359E+03  1.32678E+03 -1.31558E+04  7.69473E+03 -7.32580E+03  6.75641E+03 -5.28383E+03
  9.57020E+03  8.66017E+03  5.59088E+03  1.32686E+04  1.85184E+03  1.28898E+04 -9.71308E+03  1.06515E+04
