 $NMID ID='MM_0lb_SNR50_16hz_g55_32.RAW', FMTDAT='(8E13.5)'
 TRAMP=1., VOLUME=1. $END
  3.08986E+05 -1.77804E+03  3.38500E+05  2.53342E+05  8.77166E+04  3.34469E+05 -1.33590E+05  2.51713E+05
 -1.89409E+05  8.54996E+04 -1.08819E+05 -2.97862E+04  1.78287E+03 -4.91244E+04  5.37032E+04 -1.06545E+03
  3.43615E+04  5.09539E+04 -1.61644E+04  7.70863E+04 -5.98726E+04  6.47516E+04 -8.73937E+04  3.08065E+04
 -8.30813E+04 -9.25799E+03 -5.99813E+04 -5.32412E+04 -1.01668E+04 -7.15770E+04  2.76384E+04 -4.20248E+04
  4.18543E+04  5.63592E+03  1.44227E+04  4.68272E+04 -3.63327E+04  4.38405E+04 -6.77552E+04  1.78538E+03
 -5.17111E+04 -5.62886E+04 -7.70012E+03 -7.36246E+04  3.57103E+04 -5.84196E+04  4.68976E+04 -2.02086E+04
  3.90639E+04  1.37161E+04  3.31884E+04  2.56598E+04  1.15292E+04  3.26650E+04 -8.96799E+03  2.83496E+04
 -1.54634E+04  1.32459E+04 -2.27421E+04 -9.84902E+02  9.14371E+03 -9.59711E+03  2.28216E+04  9.95340E+03
  3.74349E+03  3.84022E+04 -3.28333E+04  3.20774E+04 -6.64488E+04  1.34285E+03 -5.33051E+04 -3.99655E+04
 -1.75287E+04 -6.06857E+04  4.23600E+04 -4.81741E+04  6.04223E+04  1.56829E+01  3.27582E+04  3.19337E+04
 -7.16285E+03  3.69469E+04 -3.17635E+04  1.44964E+04 -2.78859E+04 -5.04318E+03 -1.64629E+04 -1.43355E+04
 -6.85919E+03 -1.47791E+04 -3.69367E+03 -1.59141E+04  6.23397E+03 -1.72355E+04  1.66102E+04 -1.19523E+04
  1.12314E+04  6.25107E+03 -5.38880E+03  1.10733E+04 -2.16613E+04 -4.87503E+03 -8.47574E+03 -2.89289E+04
  2.34663E+04 -4.45424E+04  5.06380E+04 -2.13645E+04  4.33840E+04  2.08717E+04  1.33810E+04  4.39751E+04
 -1.68668E+04  3.45181E+04 -2.61800E+04  4.50545E+03 -1.09548E+04 -2.94828E+04  2.48881E+04 -3.50373E+04
  3.87531E+04 -9.13154E+03  3.48352E+04  2.05451E+04  1.51932E+04  4.68396E+04 -6.37330E+03  4.77288E+04
 -3.41835E+04  3.35044E+04 -4.54498E+04  1.16893E+04 -4.31325E+04 -1.84035E+04 -2.43393E+04 -4.02133E+04
  5.37294E+03 -3.40982E+04  2.80285E+04 -1.35328E+04  2.56323E+04  8.05526E+03  1.01687E+03  1.95984E+04
 -1.35786E+04  1.32018E+04 -1.15783E+04 -5.99093E+03  3.75181E+03 -1.02399E+04  2.10023E+04  6.34969E+03
  1.51248E+04  2.50839E+04 -5.29699E+03  2.24324E+04 -2.14004E+04  1.40932E+04 -2.49727E+04 -3.02676E+03
 -2.19991E+04 -1.75850E+04 -1.08422E+04 -1.85227E+04  7.84803E+03 -1.88680E+04  1.74024E+04 -1.62256E+04
  2.33862E+04 -7.48184E+03  2.98759E+04  4.28256E+02  2.09719E+04  2.02118E+04  1.52526E+03  3.24514E+04
 -2.25347E+04  2.89185E+04 -3.35047E+04  1.09522E+04 -2.47098E+04 -1.01435E+04 -7.57720E+03 -1.40155E+04
  5.27007E+03 -4.22854E+03 -4.99042E+03  9.48285E+03 -1.67267E+04  4.38254E+03 -1.27054E+04 -4.97060E+03
 -9.85974E+03 -1.81160E+04  2.01021E+03 -2.12685E+04  1.59076E+04 -1.89487E+04  2.13777E+04  1.05595E+03
  5.07398E+03  1.18803E+04 -4.12903E+02  1.93512E+04 -8.56729E+03  1.10844E+04 -1.87781E+04 -6.92174E+03
 -1.12960E+04 -1.48612E+04  2.36723E+03 -2.27727E+04  9.94757E+03 -1.54242E+04  1.78503E+04 -5.56175E+03
  1.49248E+04 -4.32392E+02  1.42148E+04  9.31690E+03  4.28731E+03 -4.31317E+02  5.60569E+03 -2.80429E+03
  2.29970E+04  1.34844E+03  1.89383E+04  1.05805E+04  1.14080E+04  2.87903E+04 -1.89866E+03  3.28013E+04
 -1.94663E+04  2.90615E+04 -2.66391E+04  8.38284E+03 -3.12651E+04 -4.62891E+03 -3.01946E+04 -1.51973E+04
 -1.01522E+04 -2.62815E+04  1.57202E+04 -2.63591E+04  2.29656E+04 -1.02848E+04  1.48295E+04  3.08603E+03
  5.51568E+03  1.63435E+04 -1.03020E+04  1.50293E+04 -1.44607E+04  3.18235E+02 -5.32036E+03 -8.04145E+03
 -4.61969E+02 -9.18453E+03  2.63347E+03 -1.19939E+04  1.04795E+04 -2.06004E+03  2.90415E+03  5.37729E+03
 -9.04579E+03 -3.37693E+02 -4.36609E+03 -1.39187E+03 -4.01697E+03 -1.47120E+04  1.00662E+04 -6.39046E+03
  1.71529E+04 -7.31065E+03  1.13407E+04  5.38789E+03  1.77903E+04  1.49115E+04  7.19123E+03  1.64449E+04
 -6.50101E+03  2.07848E+04 -1.41298E+04  1.40113E+04 -1.34223E+04  3.26137E+03 -1.28392E+04 -4.03077E+03
 -8.75501E+03 -4.68231E+03  2.54374E+03 -2.05474E+03  1.76750E+03  1.76831E+03 -7.47673E+03  1.98759E+03
 -1.23720E+04 -1.80844E+03 -7.59353E+03 -5.25648E+03 -2.85899E+03 -1.83488E+04  1.99174E+03 -1.56252E+04
  7.69131E+03 -4.40743E+03  4.64034E+03  3.47184E+03 -3.88006E+03  6.65414E+03 -5.49703E+03  2.88861E+02
 -2.13566E+03 -5.17335E+03 -2.77040E+03 -1.40605E+04  2.45594E+03 -1.54365E+04  1.17867E+04 -4.06908E+03
  9.78663E+03  2.66050E+03  1.32988E+04  4.10059E+03 -3.45193E+03  8.28882E+03 -3.84524E+03  1.25921E+04
 -5.74498E+03  2.91479E+03 -6.75467E+03 -6.69043E+03 -1.74357E+02 -3.63109E+03  5.65721E+03  1.04551E+03
  6.62167E+03  4.89956E+03 -1.59850E+03  8.28469E+03 -2.40975E+03  6.32829E+03 -7.60537E+03  1.91740E+03
 -3.57939E+03 -2.27217E+03  3.44953E+03 -1.11623E+04  8.24450E+03 -3.79200E+03  5.29645E+03  5.25961E+02
  2.49042E+03  3.69496E+03 -5.15615E+03  8.72667E+03 -1.02760E+04  8.36498E+01 -7.45624E+03 -1.35015E+03
 -3.24122E+03 -9.75882E+03 -1.97817E+03 -5.91400E+03  9.82176E+03 -3.99869E+03  9.05415E+03  2.06018E+03
  7.09759E+03  3.76838E+03  4.84953E+02  8.72001E+03 -8.08159E+03  4.78718E+03 -4.36031E+03 -3.62473E+03
 -4.94693E+03 -3.07106E+03 -5.10421E+03 -9.04410E+03  2.45462E+03 -4.96786E+03  6.88593E+03 -1.61381E+03
  4.11880E+03 -5.58497E+02 -3.50628E+03  7.95113E+02  1.75246E+03 -8.69567E+03 -1.95177E+02 -6.38069E+03
  3.23440E+03 -4.21222E+03  3.58956E+03  7.47343E+02  1.06537E+04  6.13269E+03  6.20957E+03  6.46579E+03
  2.42656E+03  9.25890E+03 -1.06836E+04  1.09336E+04 -1.06278E+04  3.26115E+03 -1.17575E+04 -1.76598E+03
 -1.05820E+04 -1.49848E+04 -2.22110E+03 -4.48330E+03  1.06634E+03 -2.78468E+03  3.63400E+03 -4.19429E+03
  2.71392E+03 -4.13022E+03  6.61956E+03  4.64521E+02  4.59601E+03 -3.85407E+03  4.63691E+03  3.38097E+02
  6.08201E+03  1.32144E+03  2.02741E+03  3.94842E+03 -2.36951E+03  3.80656E+03 -6.27438E+03  6.99915E+02
 -7.15180E+03 -1.04589E+03 -2.40147E+03 -4.19138E+03  4.24983E+03 -7.42614E+03  5.95827E+03 -8.75045E+03
  9.76082E+03 -3.84684E+03  8.91902E+03  1.61277E+03  4.03756E+03  7.97969E+03 -2.44646E+03  6.33123E+03
 -3.42648E+03  1.26921E+04 -2.54495E+03  1.32103E+03 -1.10813E+03 -3.02192E+03  2.97744E+03  1.59645E+03
  3.57853E+02 -6.14320E+02 -1.22313E+03  2.29675E+03 -3.60475E+03  6.94407E+03 -6.09964E+03 -2.43954E+03
 -2.55081E+03 -3.77122E+03  1.80859E+03 -5.69714E+03  8.33887E+03 -2.37131E+03  4.05429E+03 -4.32821E+03
  1.31972E+04  5.35046E+03  2.24943E+03  3.23623E+03  4.44307E+03  5.77906E+03 -9.81298E+02  3.58325E+03
 -6.48468E+03 -4.19164E+03 -8.97358E+03 -2.83569E+03 -1.79032E+03 -4.98800E+03  6.63618E+03 -9.07400E+03
  7.28534E+03 -1.84739E+03  5.37897E+03 -1.87469E+03  4.74816E+03  1.95084E+03 -1.67422E+03 -1.89586E+03
  6.95957E+03  3.64464E+03  1.82878E+03  3.74501E+03  7.35450E+02  3.16660E+03  2.27942E+03 -1.17538E+03
 -3.90373E+03  7.02947E+02 -6.71168E+02  7.11604E+03 -7.66553E+03 -4.03625E+02 -2.07344E+03 -2.76322E+02
 -3.99300E+03 -5.51315E+03  2.27560E+03 -6.55989E+03  3.54819E+03 -2.68722E+03  4.62262E+03 -2.04491E+03
  7.54640E+03  1.89054E+03  1.10269E+03  8.85042E+03  3.97394E+03  5.49936E+02 -2.13212E+03 -5.91896E+03
 -2.51447E+03 -4.84633E+01  1.92742E+03 -2.98632E+03  2.93286E+03 -5.79290E+03  3.51216E+03  2.93888E+03
  2.20324E+02 -1.94975E+03  4.56241E+02 -4.22175E+02  2.44362E+03  2.43045E+03  4.34154E+03 -3.06152E+03
  5.29486E+02  3.38580E+03  5.61946E+03 -1.88909E+02 -1.15095E+03  2.97042E+03 -2.70551E+03  3.96148E+03
 -3.05924E+03  7.15570E+03  1.47099E+03  4.97548E+03 -2.28486E+03  3.68755E+03  4.18893E+03 -1.49337E+03
  1.28641E+03 -4.30095E+03 -1.94136E+03 -4.21644E+03 -1.38948E+02  2.46218E+03  1.02884E+03  5.96281E+02
 -4.11180E+03  6.01485E+03 -1.50093E+02 -6.36746E+03 -2.24654E+02  2.31563E+03 -3.73893E+03 -4.92918E+03
  1.65292E+03 -3.93225E+03  3.32171E+03  3.00674E+03  3.46131E+03  1.48823E+03 -3.32323E+02 -1.01033E+03
 -5.21866E+03  2.73253E+03  1.51097E+03  2.45802E+03  3.92338E+03  1.17626E+03 -3.27595E+03 -2.53973E+03
  1.05169E+03  4.12790E+03  2.71413E+03  8.21358E+03 -2.39232E+01  5.36969E+03 -4.34226E+03  1.13041E+03
 -4.62083E+03  9.52637E+02 -8.13464E+02 -3.40908E+03 -8.62127E+02 -1.92748E+03  2.36288E+03 -1.35971E+03
  2.90760E+03  4.64607E+03  4.15991E+03  5.68229E+02  2.08568E+02  5.59496E+03  1.35111E+03 -2.50044E+02
  1.80975E+01  3.19679E+02 -3.67038E+03 -6.46775E+02 -3.47675E+01 -1.07543E+02  5.52503E+03  3.89933E+03
 -3.91028E+03  1.38232E+03 -1.73772E+03  3.45301E+03  3.41393E+03  3.84964E+03 -3.48636E+03  4.48320E+03
 -4.62218E+03 -1.53656E+03  5.41475E+01 -2.98054E+03  1.52088E+03 -7.34068E+03  2.80230E+03 -5.36246E+03
  4.70519E+03  4.96924E+02 -1.47275E+03  5.90399E+02  1.41166E+03  6.34575E+03 -5.96563E+02 -7.24666E+02
  1.88376E+03 -7.93510E+02 -1.15766E+03 -6.77798E+02 -2.60930E+02 -8.58584E+03  1.83760E+03  2.36352E+03
 -6.10175E+03  2.30336E+03 -5.07507E+03  2.86463E+03 -1.89399E+03 -3.81680E+03  2.08851E+03  5.15930E+02
  2.63215E+03 -2.15738E+03  6.47879E+02 -1.99985E+03  3.83083E+03 -4.15479E+02 -1.17487E+03 -1.54445E+02
 -8.92997E+02  3.84338E+03 -1.11264E+03 -7.87890E+02 -3.63146E+03 -4.40461E+02 -3.36384E+03  4.23416E+02
  3.69363E+02 -1.08200E+03  6.63819E+01 -9.35278E+02  8.81943E+02  8.63497E+02  4.85601E+03  1.63517E+03
  2.32751E+03  3.53846E+03 -2.07329E+03 -3.57317E+03 -1.37632E+03  4.64187E+02 -5.07541E+03 -4.28487E+03
  3.00871E+03 -1.49684E+03 -1.01226E+03 -1.57491E+03  8.67332E+02  2.67334E+03  2.36346E+03 -1.96929E+03
  1.46852E+03  2.68954E+03 -2.41023E+03 -1.50577E+03 -3.68605E+03 -9.66950E+02  4.43142E+02 -1.99350E+03
  1.46236E+03  2.22215E+03  6.72584E+02 -2.33348E+03 -1.60675E+02  2.14354E+03  1.67104E+03 -7.94111E+02
 -9.56478E+02 -9.34100E+02  1.98893E+02  1.37766E+03 -1.26431E+03 -1.30481E+03 -3.06768E+03  1.60011E+03
  1.35925E+03 -1.20969E+03 -5.05410E+03  1.83327E+02 -1.90854E+03  3.58683E+03 -2.57778E+03 -1.71713E+03
  5.02448E+03 -1.32111E+03  3.63235E+02 -1.93360E+03  2.55647E+03 -8.11289E+03  1.15614E+03  1.13953E+03
  2.81701E+03  1.50731E+03  1.34002E+03  2.75592E+02  7.14641E+01  4.39124E+02  4.38265E+02 -9.70741E+01
