 $NMID ID='MM_0lb_SNR50_19hz_g50_13.RAW', FMTDAT='(8E13.5)'
 TRAMP=1., VOLUME=1. $END
  3.11890E+05 -7.90420E+02  3.35573E+05  2.51522E+05  9.30532E+04  3.34367E+05 -1.36815E+05  2.51465E+05
 -1.89212E+05  8.38921E+04 -1.15191E+05 -3.15473E+04  2.98438E+03 -5.68088E+04  5.02777E+04  2.10585E+03
  3.78111E+04  5.50309E+04 -1.58041E+04  7.40094E+04 -6.23802E+04  6.33239E+04 -7.75406E+04  3.42661E+04
 -8.25256E+04 -1.41050E+04 -5.70396E+04 -5.53718E+04 -1.56662E+04 -6.97222E+04  2.97370E+04 -4.70398E+04
  3.87423E+04  5.56503E+03  1.70528E+04  5.05661E+04 -3.61433E+04  4.37860E+04 -6.52213E+04 -1.23669E+03
 -5.67463E+04 -5.53780E+04 -8.03507E+03 -7.57712E+04  2.92847E+04 -5.28560E+04  4.64535E+04 -1.75120E+04
  4.69335E+04  9.12196E+03  2.81837E+04  2.22419E+04  1.35022E+04  2.72126E+04 -5.60781E+02  2.87963E+04
 -2.13870E+04  1.60209E+04 -2.15370E+04 -1.26005E+03  4.91843E+03 -3.49222E+03  2.13171E+04  1.11425E+04
  7.12630E+03  3.41828E+04 -2.94754E+04  3.47577E+04 -6.01265E+04  2.09273E+03 -5.61760E+04 -4.19432E+04
 -1.15912E+04 -5.45440E+04  3.76220E+04 -4.04314E+04  5.66619E+04  1.85865E+03  3.06903E+04  3.08141E+04
 -5.86609E+03  3.22767E+04 -2.67763E+04  1.45624E+04 -2.46825E+04 -2.87193E+03 -1.26828E+04 -1.01034E+04
 -8.06231E+03 -1.30937E+04 -3.14760E+03 -1.57579E+04  7.39514E+03 -2.65325E+04  1.37434E+04 -1.38989E+04
  1.19850E+04  4.59653E+03 -4.45484E+03  1.44673E+04 -1.80227E+04  4.30560E+02 -1.00491E+04 -3.07261E+04
  1.85180E+04 -4.06588E+04  4.56035E+04 -1.86601E+04  4.43848E+04  1.96347E+04  1.48609E+04  4.35736E+04
 -1.63542E+04  2.81442E+04 -2.40659E+04  1.38591E+03 -8.78806E+03 -2.63522E+04  2.27408E+04 -3.24897E+04
  3.36549E+04 -8.85116E+03  3.07891E+04  2.38965E+04  1.52574E+04  4.07738E+04 -9.18049E+03  4.50389E+04
 -2.74733E+04  2.94299E+04 -4.12311E+04  1.04720E+04 -3.74929E+04 -1.33218E+04 -2.05067E+04 -3.78434E+04
  9.54065E+03 -3.52265E+04  2.78198E+04 -1.61057E+04  2.75460E+04  9.94927E+03  3.51836E+03  1.65990E+04
 -1.77382E+04  7.69202E+03 -1.22255E+04 -3.74697E+03  6.12585E+03 -7.75352E+03  1.42974E+04  5.51930E+03
  8.24008E+03  2.00787E+04 -3.21815E+03  2.70822E+04 -2.15430E+04  1.02034E+04 -2.23452E+04 -1.07384E+04
 -2.00343E+04 -1.77197E+04 -7.73773E+03 -1.26683E+04  2.59300E+03 -1.41595E+04  1.28802E+04 -1.34840E+04
  2.31071E+04 -1.00307E+04  2.88882E+04 -5.55385E+01  1.92411E+04  1.34700E+04  1.94829E+03  3.09152E+04
 -2.01145E+04  2.96085E+04 -2.71336E+04  9.10348E+03 -2.04416E+04 -1.26912E+04 -8.53555E+03 -1.18740E+04
 -1.12897E+03 -1.52215E+03 -4.04312E+03  4.08636E+03 -9.93493E+03  4.96936E+03 -1.34898E+04 -8.34040E+03
 -8.15265E+03 -1.43140E+04  4.71131E+03 -1.93062E+04  7.30588E+03 -1.29976E+04  1.44936E+04 -3.83147E+03
  1.00664E+04  1.10418E+04 -1.38472E+02  1.32473E+04 -9.13037E+03  6.22195E+03 -1.89912E+04 -7.03372E+02
 -1.06670E+04 -1.47309E+04 -1.88091E+03 -1.92529E+04  9.06818E+03 -1.54699E+04  1.72815E+04 -1.13814E+04
  1.61319E+04  3.10895E+03  7.48426E+03  3.22853E+03  6.05410E+03 -8.75682E+02  1.07000E+04  1.49877E+03
  1.23894E+04  4.40707E+03  1.43922E+04  1.26281E+04  1.05822E+04  2.14711E+04 -2.26101E+02  2.84104E+04
 -2.15674E+04  2.15316E+04 -2.13032E+04  9.25714E+03 -2.42491E+04 -1.64567E+03 -2.56588E+04 -1.11422E+04
 -1.01989E+04 -1.95405E+04  9.15756E+03 -1.84707E+04  1.83666E+04 -1.29802E+04  1.49713E+04  4.64161E+03
  7.09701E+03  1.23808E+04 -3.05752E+03  5.32948E+03 -1.61455E+04  5.14644E+03 -1.24457E+04 -7.42666E+03
 -5.50420E+02 -1.11048E+04  6.05066E+03 -9.56034E+03  1.45740E+03 -1.38834E+03 -2.82866E+03  2.16417E+03
 -3.66255E+03  2.41716E+03 -2.21010E+03 -1.62575E+03  1.61594E+03 -1.16917E+04  5.92589E+03 -1.24320E+04
  1.27135E+04 -5.04405E+03  1.28064E+04  7.96347E+02  1.07006E+04  7.90892E+03  5.17332E+03  1.26550E+04
 -3.22049E+03  1.85941E+04 -6.64345E+03  4.50163E+03 -1.16378E+04  7.09388E+03 -4.78376E+03 -4.75627E+03
 -6.49366E+03 -7.21789E+03 -2.46496E+03  2.82250E+03 -2.66236E+03  1.60914E+03 -2.43404E+03  5.85148E+03
 -1.23685E+04 -1.29417E+01 -9.91818E+03 -7.79582E+03 -4.89865E+03 -1.03418E+04  9.78142E+02 -7.06283E+03
  4.75428E+03 -6.43937E+03  5.24722E+03 -1.03040E+03  3.43047E+03  1.61107E+03 -4.93730E+02  1.08897E+03
 -1.71826E+03 -7.49417E+03 -7.55318E+02 -7.52696E+03  1.18742E+02 -8.01057E+03  1.10000E+04 -5.88329E+03
  1.33015E+04 -4.08515E+03  8.10204E+03  2.01257E+03 -8.53161E+02  1.10791E+04 -7.56043E+03  8.96934E+03
 -6.21117E+03  6.49959E+03 -6.09044E+03 -2.12064E+03 -8.20693E+02 -3.38474E+03  5.92676E+03 -9.52287E+02
  6.01159E+03  1.52886E+03  1.99124E+03  9.70987E+03 -6.84740E+03  5.65692E+03 -1.30423E+04  2.93185E+03
 -1.08766E+04 -1.36241E+03  2.84524E+03 -4.18880E+03  8.71429E+03 -3.35901E+03  3.99184E+03  4.36384E+03
  3.39556E+03  3.54489E+03 -3.59922E+03  5.71439E+03 -5.23429E+03  6.81959E+03 -4.33764E+03  5.35805E+02
 -5.47272E+03 -8.36285E+03 -2.67638E+03 -8.57006E+03  4.54639E+03 -7.69405E+03  8.81361E+03 -2.25562E+02
  1.89316E+03  5.87020E+03  1.17964E+03  7.14181E+03 -6.22910E+03  3.00697E+03 -1.31595E+03 -7.02873E+02
 -1.76020E+03 -6.71464E+03  1.84021E+03 -5.53237E+03  4.24656E+03 -3.96576E+03  2.27537E+03 -1.20687E+03
 -6.80414E+02 -9.93042E+01  1.32169E+02  1.40841E+03  2.36621E+03 -1.38044E+03  2.25084E+03 -4.56129E+03
  3.01266E+03  2.74623E+03  5.57434E+03 -3.42316E+01  1.00384E+04  2.89185E+03  6.76006E+03  5.25938E+03
 -2.87273E+03  7.52659E+03 -1.07795E+04  8.80672E+03 -8.19913E+03  5.52910E+02 -7.42613E+03  1.34288E+03
 -4.14125E+03 -7.63825E+03 -2.25021E+03 -6.00531E+03  2.18877E+03  1.40175E+03  3.15092E+03 -3.03900E+01
 -5.43891E+02 -2.55179E+03  2.47066E+03 -4.32416E+03  2.28229E+03 -2.19525E+03  6.24464E+03  1.40831E+03
  7.68171E+03 -3.00876E+02  1.98527E+03  4.72390E+03 -4.02404E+03  2.66070E+03  1.43872E+03  4.09366E+02
 -4.50139E+03 -2.54470E+01 -4.23583E+03 -1.59337E+03 -1.18165E+03 -2.36777E+03  8.68761E+02 -1.36316E+03
  4.43230E+03 -4.87219E+03  9.43692E+03 -1.16432E+03  3.28982E+03  6.24381E+03  3.28686E+03  6.87628E+03
 -2.29207E+03  7.81907E+03 -2.27881E+03  7.68420E+02 -2.86213E+03 -1.17307E+03 -6.99272E+02 -2.52365E+03
 -1.78917E+03 -4.44251E+01 -2.51443E+03  2.59190E+03 -2.81882E+03  5.45444E+03 -4.56663E+03 -8.11713E+02
 -2.08863E+03 -5.03111E+02 -3.57496E+03 -4.07099E+03  5.03421E+03 -4.34204E+03 -3.51695E+02 -7.81995E+00
  4.99157E+03  2.23484E+03  5.15060E+03  6.41512E+03 -1.95451E+03  6.12788E+03  1.74018E+03  1.24279E+03
 -6.48493E+03 -5.25779E+02 -3.34565E+03 -7.94950E+02 -1.50504E+02 -2.84344E+03 -4.62636E+02 -1.30749E+03
  5.35549E+03  3.37322E+02  3.82134E+03  2.27104E+02 -1.66150E+02  7.56084E+03  1.98756E+02  1.09121E+01
  3.06146E+03  1.15516E+03  5.40198E+02  2.54654E+03  2.21900E+03  2.91744E+03  4.91857E+03  7.92909E+02
 -5.40408E+02 -2.23900E+03 -4.49971E+03  6.11007E+03 -3.66568E+03 -1.77327E+03 -4.28285E+03 -1.58288E+03
 -2.56421E+03 -4.10586E+03 -1.66219E+03 -2.05879E+02  2.99465E+02 -3.86253E+03  2.25997E+03 -8.75732E+02
 -1.39415E+03 -5.54417E+02  1.94930E+03  4.27315E+03 -2.97249E+03  2.49466E+03 -6.53700E+02  4.53861E+03
 -6.73560E+02 -4.05149E+03 -1.35991E+02  6.89607E+02  2.72407E+03 -4.54033E+03  1.04904E+03 -1.66841E+03
  1.43258E+03  2.63499E+03 -1.79172E+03  8.96705E+02 -1.91650E+03  1.89597E+03  4.59785E+03  1.23171E+03
 -9.62600E+02 -1.63667E+03 -1.50600E+03 -4.69040E+03  2.11149E+03  1.32499E+03 -1.63767E+03  4.69296E+03
 -3.39890E+03 -7.05063E+02 -1.54631E+03  3.13857E+02 -4.26266E+03 -8.92625E+02 -3.33734E+02 -1.31794E+03
  1.13364E+03  8.36687E+02  2.36681E+02  1.17297E+03 -1.81490E+03  1.25137E+03 -7.13424E+03 -1.15264E+03
 -1.13139E+03  3.63696E+03 -2.64573E+03 -4.93485E+03  1.21306E+03  5.67538E+01  5.77976E+02 -3.23938E+03
  7.04622E+03  1.65439E+03 -3.12624E+03  4.09655E+03  1.25021E+03  6.23739E+02 -9.58181E+02 -7.34448E+01
 -3.50133E+03  1.66753E+03  2.32520E+03  3.93548E+03 -1.21971E+03 -3.46873E+03  1.74076E+02  1.66625E+03
 -6.57211E+02  2.40935E+02  3.73632E+03 -8.36650E+02  4.66606E+03  1.09123E+03  1.49058E+03  1.89116E+03
  2.05288E+03  2.62961E+03 -4.45351E+03 -2.28046E+02 -5.71885E+03  2.24012E+03  1.32403E+03 -1.05841E+03
  2.06674E+03  5.77029E+02 -1.89172E+03  1.26308E+02  4.48605E+02  6.96900E+02 -1.33336E+03 -4.62269E+02
 -2.50269E+03  1.63013E+03 -2.61581E+03 -1.18898E+03  1.65119E+02 -5.45352E+02 -2.64489E+03  3.81005E+03
 -2.76552E+03 -1.85369E+03 -8.64214E+02 -5.72786E+02 -9.33891E+01 -8.79952E+02 -2.46101E+03  3.43370E+03
 -3.35087E+03 -7.97927E+02  7.73894E+02 -4.60326E+03  3.19743E+03 -1.68671E+03  2.97275E+02 -6.43162E+02
  1.51560E+03  2.99755E+03  2.84481E+03  4.38590E+02 -2.03029E+03 -1.56780E+03  1.46698E+03  8.11417E+02
  3.01764E+03 -4.73556E+02  5.19473E+02  1.15099E+03 -1.84644E+03 -9.79093E+02 -1.46248E+03 -4.61358E+02
  9.04417E+02  3.20287E+03 -1.09972E+03  4.82762E+02  2.51427E+03  8.19667E+02 -4.19999E+02 -6.41686E+01
  2.10030E+03 -2.30367E+03  1.64372E+03 -3.82090E+03  1.54197E+03  6.50656E+02  6.35860E+02 -3.58454E+03
 -6.23335E+02  6.41626E+03  2.31421E+03 -2.38755E+02  1.07696E+03 -1.52182E+03 -2.75780E+02 -2.65841E+03
 -3.97292E+03 -2.63448E+03  9.03110E+02 -1.31128E+03 -4.56389E+02 -2.98391E+03 -1.67314E+03 -1.04052E+03
 -2.40594E+03  3.24938E+03 -1.07976E+03 -3.39446E+03 -5.43711E+00 -2.00083E+03  4.36170E+03  9.30104E+02
  1.98489E+03  1.01898E+03  3.46929E+02  5.45446E+03 -5.33431E+02  3.70520E+02 -1.85586E+03  5.12182E+02
  1.73681E+03  1.54350E+03 -2.32666E+02 -2.14785E+03 -1.22387E+03  4.57780E+03 -4.24309E+02 -1.79421E+03
  2.07118E+02 -4.35057E+02  1.78254E+02 -7.62964E+00 -3.01802E+03  8.35569E+02  1.89040E+03  1.78433E+03
 -1.00066E+03  1.13502E+03  3.72021E+03  4.92660E+03  2.71362E+03  1.53564E+03  3.42098E+03 -2.54971E+02
 -3.28829E+03  2.33888E+03  1.75475E+03 -5.53227E+02 -2.80196E+03  1.35659E+02 -2.98283E+03  2.79435E+03
 -2.08272E+03  8.76312E+02 -3.20341E+03 -1.53336E+03 -3.12351E+03 -7.97782E+02  7.16518E+02 -2.14747E+02
  2.87040E+03 -1.50338E+02  3.68729E+03  2.85878E+02 -1.19624E+03 -3.33504E+03  5.21716E+01  4.59138E+02
