 $NMID ID='MM_0lb_SNR50_12hz_g50_56.RAW', FMTDAT='(8E13.5)'
 TRAMP=1., VOLUME=1. $END
  3.03407E+05  2.52796E+03  3.41941E+05  2.45596E+05  8.59602E+04  3.36831E+05 -1.31354E+05  2.49537E+05
 -1.91821E+05  8.66596E+04 -1.11196E+05 -3.42246E+04  1.98532E+03 -5.36993E+04  5.16453E+04  4.53947E+03
  3.51327E+04  5.08192E+04 -1.51622E+04  7.34138E+04 -6.16219E+04  6.58907E+04 -8.44529E+04  3.08209E+04
 -8.86564E+04 -8.83930E+03 -6.62711E+04 -5.19612E+04 -1.58453E+04 -6.87442E+04  2.42852E+04 -4.38528E+04
  4.19653E+04  1.96433E+03  1.49200E+04  4.47810E+04 -3.05669E+04  4.85975E+04 -6.80791E+04  1.31549E+03
 -5.43372E+04 -5.80230E+04 -7.00963E+03 -8.21357E+04  3.62864E+04 -5.25684E+04  4.74017E+04 -2.10138E+04
  5.02474E+04  1.83867E+04  2.93668E+04  2.46644E+04  1.32490E+04  2.72265E+04 -6.73932E+03  2.82215E+04
 -2.51769E+04  1.17499E+04 -2.21794E+04 -5.60344E+03 -1.44536E+03 -8.09296E+03  2.37148E+04  8.21816E+03
  1.03650E+04  2.91767E+04 -3.41285E+04  4.10191E+04 -6.68909E+04  6.02841E+03 -5.60218E+04 -4.36499E+04
 -1.41741E+04 -6.39340E+04  4.07779E+04 -4.88846E+04  5.92985E+04 -7.56383E+02  3.62691E+04  3.37079E+04
 -6.80040E+03  3.01275E+04 -2.95228E+04  1.36593E+04 -2.95231E+04 -6.73217E+03 -2.47343E+04 -8.95652E+03
 -1.50693E+04 -1.74382E+04  2.77035E+03 -1.40124E+04  6.48820E+03 -2.11783E+04  1.37966E+04 -1.04537E+04
  9.08103E+03  9.38512E+03 -9.05602E+03  1.33235E+04 -2.43234E+04 -1.02414E+04 -1.72022E+04 -3.28275E+04
  3.07091E+04 -4.34776E+04  5.12053E+04 -2.31279E+04  4.81760E+04  1.91986E+04  1.48954E+04  4.13542E+04
 -1.75592E+04  3.13249E+04 -2.29947E+04  4.47810E+03 -1.46993E+04 -2.80455E+04  1.79057E+04 -3.29497E+04
  3.73644E+04 -8.62933E+03  4.22687E+04  1.95734E+04  1.93229E+04  4.59873E+04 -1.13300E+04  4.72327E+04
 -3.80578E+04  3.54868E+04 -4.40973E+04  7.54877E+03 -4.37385E+04 -1.69766E+04 -2.40892E+04 -3.84255E+04
  6.42771E+03 -3.94893E+04  3.64511E+04 -1.59285E+04  3.22741E+04  1.28098E+04  2.17574E+03  1.76558E+04
 -1.55678E+04  1.22368E+04 -1.13874E+04 -8.63928E+03  2.61463E+03 -9.71014E+03  2.27085E+04  1.05755E+04
  8.46499E+03  2.25499E+04 -3.09419E+03  3.21048E+04 -2.68057E+04  1.31190E+04 -2.56310E+04 -5.96609E+03
 -2.68810E+04 -2.08872E+04 -7.89422E+03 -2.16408E+04  9.53978E+03 -2.06837E+04  1.45907E+04 -1.60426E+04
  2.80482E+04 -1.37575E+04  3.58900E+04  4.30743E+03  2.61878E+04  1.87284E+04 -4.38672E+03  3.23157E+04
 -1.99021E+04  3.07459E+04 -3.29286E+04  1.61337E+04 -2.11169E+04 -1.05341E+04 -5.84769E+03 -8.17848E+03
  6.93498E+03  7.79778E+02 -7.80896E+03  7.58791E+03 -1.79490E+04  6.50407E+03 -1.66892E+04 -1.11044E+04
 -1.67982E+04 -2.22795E+04  5.08625E+03 -2.28729E+04  1.38528E+04 -1.76309E+04  2.40869E+04 -8.39836E+02
  1.80487E+04  1.62185E+04 -7.05552E+01  2.00853E+04 -1.57588E+04  1.22458E+04 -1.99092E+04 -2.21259E+03
 -1.62774E+04 -1.53454E+04 -1.88912E+03 -2.36732E+04  1.34578E+04 -1.87476E+04  1.84405E+04 -1.92358E+04
  2.11055E+04  1.10545E+03  1.26007E+04  5.26870E+03  8.56485E+03 -1.46627E+03  9.77193E+03  1.47795E+03
  2.01035E+04  1.27560E+03  2.10546E+04  1.94425E+04  1.60194E+04  3.08121E+04  6.79476E+02  3.83689E+04
 -2.39680E+04  2.75267E+04 -3.43495E+04  1.56296E+04 -4.30303E+04 -2.54951E+03 -2.88849E+04 -2.41728E+04
 -1.67275E+04 -3.04009E+04  1.41705E+04 -2.49541E+04  2.17630E+04 -1.70023E+04  2.00074E+04  2.82884E+03
  2.83577E+03  1.93946E+04 -4.16829E+03  8.58141E+03 -1.74494E+04  6.32125E+03 -1.51171E+04 -1.07636E+04
 -5.25611E+03 -1.18755E+04  6.15508E+03 -1.19854E+04  7.65192E+03  2.92247E+02  1.41874E+03  5.87308E+03
 -1.28488E+04  8.88500E+02 -1.41304E+04 -3.19280E+03 -1.15701E+03 -1.35944E+04  1.44310E+04 -2.02197E+04
  2.42011E+04 -7.14023E+03  1.93477E+04  3.20994E+03  2.55627E+04  1.42623E+04  6.29624E+03  2.23202E+04
 -7.98545E+03  2.29639E+04 -1.43712E+04  1.83447E+04 -2.11976E+04  7.59745E+03 -6.70542E+03 -3.93098E+03
 -5.61184E+03 -5.44653E+03  2.43548E+02  9.28029E+02 -6.85520E+02  7.60757E+02 -5.23629E+03  1.44405E+03
 -7.78740E+03  4.31713E+03 -1.22964E+04 -6.75178E+03 -4.64171E+03 -2.01159E+04  7.14958E+03 -1.01340E+04
  1.70533E+04 -1.19866E+04  7.54848E+03  5.05468E+03 -3.22078E+03  2.27754E+03 -9.51825E+03  7.32604E+03
 -5.16299E+03 -7.23409E+03 -3.90944E+03 -1.01354E+04  3.62774E+03 -1.28442E+04  1.24888E+04 -6.17999E+03
  1.52304E+04  1.04165E+03  1.62016E+04  1.15740E+04  1.03545E+03  1.30925E+04 -9.08527E+03  1.44303E+04
 -1.19939E+04  4.49494E+03 -2.38049E+03 -4.11853E+03  4.85174E+03  1.05245E+03  7.82958E+03 -1.94981E+03
  5.29272E+03  2.89062E+03  3.53397E+03  1.13123E+04 -9.64472E+03  7.73899E+03 -1.09848E+04  4.66682E+03
 -8.97495E+03 -4.21266E+03  1.20978E+03 -1.12979E+04  6.60783E+03 -7.40338E+03  2.59949E+03  7.60122E+02
  2.27513E+03  8.46585E+03 -1.02914E+04  1.14980E+04 -9.67188E+03  5.86047E+03 -1.30256E+04 -6.06797E+03
 -8.00219E+03 -8.82911E+03  2.82195E+03 -1.41817E+04  1.38331E+04 -4.86002E+03  1.26833E+04  6.95541E+03
  1.02437E+04  1.14502E+04  3.41371E+02  1.37953E+04 -8.45612E+03  8.72008E+03 -5.85748E+03 -4.45983E+03
 -9.55592E+03 -9.91902E+03  4.49926E+03 -1.03693E+04  4.19336E+02 -6.37822E+03  8.89095E+03 -5.46564E+03
  4.16199E+03  1.77767E+03 -8.63949E+01  1.67619E+03  4.41976E+03 -2.93764E+03 -2.65262E+03 -2.59965E+03
  5.18231E+03 -8.11890E+03  1.43239E+04  5.69780E+03  1.13777E+04  8.73292E+03  3.66889E+03  1.42156E+04
 -5.52420E+03  2.08893E+04 -2.09756E+04  1.40727E+04 -2.80219E+04  2.65794E+03 -1.63031E+04 -1.11975E+04
 -6.78113E+03 -1.82786E+04 -4.11072E+03 -1.05995E+04  4.79087E+03  1.04701E+03  4.76897E+03 -5.17791E+03
  6.13084E+03 -1.75487E+03  3.05256E+03 -1.13595E+04  1.17521E+03 -2.91930E+03  9.26938E+03  4.82797E+03
  6.12741E+03  3.89983E+03  3.41739E+03  3.21717E+03  4.47306E+02  3.41028E+03 -5.05553E+03  1.97905E+03
 -3.83437E+03 -3.18736E+03 -5.37763E+03 -5.80498E+03 -2.46382E+03 -8.93863E+03  3.49535E+03 -1.30082E+04
  1.50145E+04 -7.77751E+03  1.50658E+04  2.00375E+03  1.10478E+04  1.54256E+04  5.44888E+03  1.60601E+04
 -9.34287E+03  7.58759E+03 -9.08503E+03  7.26128E+03 -5.82359E+03  5.68574E+01 -7.92231E+02 -3.40229E+03
 -5.06396E+03  1.01345E+03 -5.02784E+03  5.68044E+03 -7.05062E+03  3.98299E+03 -4.95027E+03  6.09009E+02
 -2.27512E+03 -7.61888E+03  2.47741E+02 -1.29917E+04  7.64244E+03 -8.67875E+03  8.67015E+03 -1.27212E+03
  4.30453E+03  1.89259E+03  2.60484E+02  1.10550E+04  4.94159E+03  1.61471E+04 -1.10972E+04  1.27497E+03
 -7.03496E+03 -5.94962E+03 -1.23145E+04 -2.72058E+03  3.46630E+03 -1.23755E+04  1.10165E+04 -6.64229E+03
 -1.48856E+03  4.27537E+03  2.09335E+03  1.44220E+03  7.79956E+03  4.93482E+03 -2.19439E+03  2.80252E+03
  3.84337E+03  3.92730E+03 -4.56195E+03  1.89564E+03  1.36998E+03  2.17229E+03  7.06051E+03  6.74372E+02
  1.43964E+03  1.06569E+04 -8.93739E+03  1.01558E+04 -1.20375E+04  4.78505E+03 -1.17004E+04  1.66673E+03
 -2.72741E+03 -1.00313E+04 -3.30647E+03 -9.85859E+03  9.86073E+03 -7.02013E+03  7.80688E+03  5.71002E+02
  7.78381E+03  6.25973E+03 -2.17927E+03  6.36580E+03 -4.74368E+02  2.63856E+03 -2.36682E+03 -3.10476E+02
 -5.10571E+02 -7.80716E+03 -9.02016E+02 -9.67581E+03  8.86382E+03 -1.17935E+03  3.39368E+03  1.61125E+03
 -3.56026E+03  7.70030E+03  9.80052E+02  1.57465E+03 -3.67230E+03  4.02849E+03  1.88692E+03  3.47809E+03
  5.53071E+03 -2.81735E+02  4.20112E+03  1.52328E+02  1.65956E+03  5.88107E+03 -5.74628E+03  1.01581E+04
 -5.29197E+02  1.60342E+03 -6.32956E+03 -3.04776E+03 -5.52247E+03 -1.45562E+03  8.58517E+02 -7.76802E+03
  3.54747E+03 -4.90897E+03  2.19126E+03  2.05476E+03  1.02140E+03 -3.26683E+03 -6.27013E+03  3.01181E+03
 -4.04115E+02  3.12020E+03 -4.40083E+03 -7.63298E+03 -5.15083E+03 -1.12840E+04 -1.87172E+03 -2.27672E+03
  2.57078E+03 -4.50965E+03 -1.06552E+02 -4.22138E+03  8.01799E+03  4.74223E+02  4.85386E+03  5.84295E+03
 -2.12406E+03 -3.20528E+03 -6.03071E+03 -3.67865E+03  6.21317E+03 -3.36938E+03  4.75428E+03 -6.77122E+03
  7.47199E+03 -1.33010E+02  7.15335E+03  1.96810E+03  4.21428E+02  6.94455E+03 -2.25651E+03  4.72364E+03
 -5.25855E+03  4.37551E+03 -6.15584E+03 -7.89682E+03 -6.06032E+03 -8.75834E+03  3.29157E+03 -3.34710E+03
  5.38468E+03 -7.73318E+03  4.95085E+03  2.37552E+03  3.02076E+03  2.92016E+03  2.33795E+03  4.13694E+03
  2.99277E+03 -1.12164E+03 -5.51372E+02 -1.62532E+03  5.19635E+03  4.60505E+03 -1.97226E+03  1.81479E+03
 -2.04035E+03  3.32807E+03 -7.22736E+03  3.14557E+03 -4.39049E+03 -3.36657E+03 -4.20168E+03 -4.13163E+03
 -9.39306E+02 -1.18177E+04  4.41741E+03 -1.41264E+04  6.61461E+03 -5.76948E+03  1.05851E+04 -2.08779E+03
  2.96630E+03  4.57573E+03  9.26177E+03  1.27334E+03 -4.19983E+02  3.55562E+03 -2.50095E+02  7.65205E+03
 -5.15240E+03  4.81972E+03  1.82794E+03 -6.63869E+03 -3.68859E+01  1.70690E+03 -2.98224E+03  4.34717E+03
  1.05074E+03 -7.44422E+03 -1.20885E+03  3.51032E+03  1.45126E+03  1.05088E+03  5.01541E+03 -2.64555E+03
 -1.72665E+03 -4.48882E+03  5.43780E+02  3.46382E+03  5.30409E+03  5.39863E+03  6.56158E+03  2.13811E+03
 -3.61059E+03  5.04836E+03 -6.63996E+03  5.91626E+03 -4.45849E+03 -2.43263E+02 -2.22672E+03 -3.37437E+03
  1.04300E+03 -4.24545E+03  4.40915E+03 -8.70857E+03  6.67411E+03 -8.91293E+03  3.00379E+03 -1.91804E+03
  4.23139E+03  5.06833E+03 -1.83298E+03  2.74824E+03 -4.27173E+03  1.44910E+03 -2.23518E+02  1.45320E+03
 -2.05459E+03  2.54999E+03 -1.67375E+03  1.06532E+04  2.48338E+03  5.13961E+02  6.02759E+02  4.25013E+03
 -7.54644E+03  1.35903E+03 -6.97125E+03 -4.31523E+03 -1.65771E+03 -7.14122E+03  3.57355E+01 -4.03874E+03
  1.02518E+03 -3.96132E+03  2.01350E+03  1.11989E+03  7.45252E+03 -1.24969E+03 -3.66238E+02  4.54627E+03
 -1.26610E+03  7.28243E+03 -6.47652E+02  2.58480E+02 -6.25193E+03  1.92835E+03 -7.25237E+03 -9.58424E+02
  1.43561E+03 -2.46852E+03 -3.56755E+02  2.93115E+03 -2.28184E+03  3.25166E+03 -4.23182E+03  2.27662E+03
 -3.27638E+03 -7.13196E+02 -2.25285E+03 -6.76983E+03  8.25396E+03 -7.02284E+02  9.22511E+02 -1.63919E+03
  3.50490E+03  9.80760E+03 -1.22427E+03  2.09574E+03  3.73822E+02  7.48466E+03 -2.45355E+03  9.98822E+03
