 $NMID ID='MM_0lb_SNR50_16hz_g55_66.RAW', FMTDAT='(8E13.5)'
 TRAMP=1., VOLUME=1. $END
  3.06665E+05 -2.07917E+03  3.43554E+05  2.50394E+05  8.34824E+04  3.39802E+05 -1.32788E+05  2.48576E+05
 -1.88459E+05  8.22837E+04 -1.12533E+05 -3.22945E+04  6.39482E+03 -5.57827E+04  5.46920E+04  2.56495E+02
  3.42612E+04  5.34874E+04 -1.73348E+04  7.37063E+04 -5.78232E+04  5.73450E+04 -8.46264E+04  2.96600E+04
 -8.45084E+04 -1.13331E+04 -5.71893E+04 -5.24089E+04 -1.72550E+04 -6.77746E+04  2.40982E+04 -4.22390E+04
  4.16894E+04  2.29833E+02  1.60803E+04  4.58264E+04 -3.68382E+04  4.67638E+04 -6.68995E+04 -1.45343E+03
 -5.40870E+04 -5.80867E+04 -7.81341E+03 -7.97874E+04  3.66554E+04 -5.42847E+04  4.89637E+04 -1.73004E+04
  4.83955E+04  1.12704E+04  2.98548E+04  2.62772E+04  1.42449E+04  3.25827E+04 -8.71461E+03  2.99462E+04
 -1.95883E+04  1.11916E+04 -1.73294E+04 -2.44906E+03  5.80133E+03 -3.43097E+03  2.46366E+04  1.31444E+04
  5.53527E+03  3.29422E+04 -3.50029E+04  3.53961E+04 -6.21973E+04 -6.27149E+01 -5.95729E+04 -4.37279E+04
 -1.36480E+04 -6.09327E+04  3.92518E+04 -4.46756E+04  5.58642E+04 -3.12280E+03  3.77812E+04  2.68269E+04
 -3.66449E+03  3.39999E+04 -2.10652E+04  1.99749E+04 -3.37011E+04 -4.84305E+03 -1.31927E+04 -7.79152E+03
 -8.57737E+03 -1.53140E+04  2.76614E+03 -2.37958E+04  2.94289E+03 -2.28608E+04  1.26516E+04 -1.28345E+04
  1.42051E+04  2.63859E+03 -5.62106E+03  1.32776E+04 -2.06518E+04 -5.49029E+03 -1.02213E+04 -3.26395E+04
  1.85622E+04 -4.62435E+04  4.18786E+04 -2.03911E+04  4.99509E+04  2.03460E+04  1.04420E+04  4.44244E+04
 -1.82027E+04  3.22305E+04 -2.23112E+04  5.13806E+02 -8.84105E+03 -2.70780E+04  2.12251E+04 -3.18988E+04
  3.57498E+04 -1.15354E+04  3.65723E+04  2.16189E+04  2.08765E+04  4.24306E+04 -4.35925E+03  4.83805E+04
 -3.35184E+04  3.24098E+04 -4.07084E+04  1.15507E+04 -4.06292E+04 -1.31956E+04 -2.47766E+04 -3.49687E+04
  8.52387E+03 -4.05897E+04  3.19104E+04 -1.85663E+04  2.95187E+04  9.14850E+03  1.80232E+03  2.08853E+04
 -1.08947E+04  6.59063E+03 -7.41126E+03 -9.92751E+03  3.63683E+03 -1.11855E+04  1.69149E+04  6.88701E+03
  8.12922E+03  2.54334E+04 -8.45757E+03  2.50226E+04 -2.02128E+04  1.11490E+04 -2.59078E+04 -5.99549E+03
 -1.55439E+04 -1.53769E+04 -8.61619E+03 -1.63813E+04  4.13294E+03 -1.96555E+04  1.55260E+04 -1.43040E+04
  2.48973E+04 -1.37912E+04  3.14302E+04  2.41978E+03  2.35059E+04  1.39880E+04  3.98888E+03  3.39523E+04
 -1.20562E+04  2.88061E+04 -2.58407E+04  7.94328E+03 -2.31530E+04 -7.57973E+03 -4.33298E+03 -1.69674E+04
  3.53139E+03 -1.32051E+03 -4.53637E+02  6.17138E+03 -1.65527E+04  7.33634E+03 -1.59024E+04 -1.15150E+04
 -1.12045E+04 -2.00997E+04  2.79435E+03 -3.05341E+04  1.56219E+04 -1.37425E+04  1.52450E+04 -1.15148E+02
  8.37610E+03  1.03092E+04 -6.08767E+03  2.17282E+04 -1.46836E+04  1.10410E+04 -2.10370E+04  9.04280E+02
 -9.13678E+03 -1.68357E+04 -3.48194E+03 -2.20711E+04  1.19947E+04 -1.62910E+04  1.66075E+04 -1.12537E+04
  1.94477E+04  2.64804E+03  1.39653E+04  6.06337E+03  7.43410E+03  9.90182E+02  6.27856E+03  8.24877E+02
  1.59270E+04  4.98827E+03  1.82255E+04  1.42282E+04  1.06918E+04  2.76747E+04 -5.48070E+03  3.79366E+04
 -2.29862E+04  2.53342E+04 -3.32318E+04  1.35578E+04 -2.77786E+04 -5.59051E+02 -2.74009E+04 -2.09329E+04
 -1.55410E+04 -2.58052E+04  7.13670E+03 -2.30081E+04  1.87607E+04 -9.60584E+03  2.40852E+04  5.91612E+03
  6.54342E+03  1.32547E+04 -9.77092E+03  1.42680E+04 -1.49658E+04  3.73608E+03 -1.32240E+04 -6.98590E+03
  1.29373E+03 -1.41157E+04  1.51935E+03 -1.21035E+04  6.78981E+03 -2.08195E+03  7.22468E+03  8.14252E+03
 -2.94742E+03  6.58589E+03 -6.82848E+03 -4.29012E+03  1.72272E+03 -1.20914E+04  1.24228E+04 -1.15835E+04
  1.41423E+04 -3.12762E+03  1.44647E+04  5.70214E+03  1.13467E+04  1.50160E+04  9.04684E+03  2.02563E+04
 -1.72006E+03  2.16639E+04 -1.26539E+04  1.00511E+04 -9.26017E+03  4.41037E+03 -1.10832E+04 -2.17086E+03
 -4.69993E+03 -1.19139E+04 -3.51678E+03  1.52476E+02 -6.01399E+03  1.06934E+03 -4.68206E+03  4.63723E+03
 -3.17103E+03 -4.65399E+03 -5.92971E+03 -5.55126E+03 -8.50958E+02 -1.39046E+04  2.15296E+03 -1.19151E+04
  1.29564E+04 -7.64336E+03  7.90973E+03  2.20687E+03  3.16698E+02  6.08724E+03 -5.00902E+03  3.27617E+03
 -2.05322E+03 -1.05270E+03 -1.85938E+02 -1.10087E+04  4.85845E+03 -6.43046E+03  9.38666E+03 -6.04710E+03
  1.19738E+04  1.77060E+03  6.24448E+03  9.09147E+03  4.60046E+02  1.21581E+04 -4.49641E+03  7.51651E+03
 -1.16979E+04 -3.56513E+03  1.51917E+02 -3.34821E+03  1.95802E+03 -1.47433E+03  8.10506E+03 -2.90855E+03
  5.99251E+03  4.36588E+03  2.82186E+03  1.13020E+04 -2.33840E+03  4.32092E+03 -9.37999E+03  6.94462E+03
 -3.39124E+03 -5.80797E+03  2.47797E+03 -7.85516E+03  2.41548E+03 -2.74700E+03  3.16747E+03  1.04072E+03
 -6.80641E+02  2.03843E+03 -6.17792E+03  4.80954E+03 -3.73108E+03  1.89153E+03 -5.72779E+03 -2.74276E+03
 -2.01589E+03 -4.08933E+03  3.86606E+03 -1.04871E+04  1.05682E+04 -7.23476E+03  4.99170E+03  5.53867E+03
  7.19751E+03  3.87215E+03 -4.62065E+03  1.26650E+04 -5.11316E+03  4.15074E+03 -6.09455E+03 -6.33071E+02
 -7.71640E+03 -4.03238E+03  9.80118E+02 -6.53869E+03  7.93809E+02 -7.57608E+03  8.54490E+02 -4.77411E+03
  8.65926E+02  4.60297E+03  3.42078E+03  3.09995E+02  1.13125E+03 -2.96638E+03 -2.41167E+03 -5.00079E+03
  7.18586E+03  7.20580E+02  3.64072E+03  6.70956E+03  8.36828E+03  3.62622E+03  9.70936E+03  1.08878E+04
 -3.96508E+03  1.09881E+04 -8.05963E+03  1.02229E+04 -1.80759E+04  2.66756E+03 -1.17177E+04 -4.16038E+03
 -5.02251E+03 -1.16511E+04  2.43067E+03 -6.61946E+03  4.02945E+03  1.88290E+03  5.70565E+03 -1.05636E+02
  1.74602E+03 -3.71849E+03  1.71285E+03 -1.37541E+03  6.73808E+03 -4.12541E+03  6.23151E+03 -5.38414E+03
  9.38856E+03  2.70991E+03  1.37269E+03  3.12764E+03 -2.85434E+02  3.59130E+03 -4.79454E+03  3.94407E+03
 -1.12115E+04 -3.64491E+03 -5.32772E+03 -2.97156E+03 -1.55368E+03 -8.03346E+03  1.78433E+03 -4.56107E+03
  6.86669E+03 -1.01437E+03  6.76689E+03 -6.48932E+02  8.58033E+03  4.48654E+03  3.93379E+03  1.27437E+04
 -8.05369E+02  1.14475E+04 -2.30456E+03  6.82541E+03 -5.97028E+03  1.07356E+03 -6.53342E+03 -2.50559E+03
  2.06545E+03  6.74904E+02 -4.51347E+03  2.10372E+03 -5.73301E+03 -3.48799E+03 -2.43847E+03 -3.42143E+03
 -8.41676E+02 -7.20039E+03  1.82643E+03 -8.76792E+03  4.12469E+03 -4.46993E+03  7.85619E+02 -5.58442E+03
  1.11265E+04  5.55377E+03  6.34444E+02  7.67341E+03 -3.02712E+03  2.49615E+03 -3.37135E+03  3.72090E+03
 -1.00048E+04 -8.32230E+02 -2.80945E+03 -5.82310E+03  1.75936E+03 -6.41075E+03  1.36745E+03 -4.83094E+03
  4.52207E+03 -1.94143E+03  4.53183E+03  7.45040E+02  4.47885E+03  6.03744E+03 -1.39347E+02 -2.14844E+03
  1.65581E+03  1.81807E+03  2.58839E+03 -1.03483E+02  2.32217E+03  4.93198E+03  1.52328E+03 -1.49218E+03
 -2.85195E+03  7.74664E+03 -6.79891E+03  2.71699E+03 -5.27129E+03  2.82643E+03 -7.11733E+03  9.18736E+01
 -4.92527E+03 -5.20748E+03  3.22343E+03 -5.49898E+03  1.04700E+03 -8.69103E+02  2.86870E+03 -1.20293E+03
  2.37348E+03  9.29850E+02 -3.86426E+03  4.68603E+03 -1.55824E+03  4.78592E+03 -2.53092E+03 -2.03165E+03
 -3.25189E+03  4.10043E+03  1.06449E+03 -1.86463E+03  3.44369E+03 -6.21807E+03  6.97547E+02  2.31159E+03
  2.42337E+03  1.00545E+03  6.51922E+02  2.66268E+03  3.99721E+03 -1.28648E+03 -1.47799E+02  3.79455E+02
 -2.42823E+03 -2.48459E+03  4.49688E+03 -1.50691E+03 -4.00861E+03  4.82916E+03 -1.54260E+03  8.35704E+03
 -3.37634E+03  1.22492E+02 -5.41010E+03  4.17304E+03 -4.07219E+03 -2.62935E+03 -3.14002E+03 -1.35257E+03
  5.76575E+03  7.88493E+02  2.03283E+03  6.31605E+03 -1.61914E+03 -1.53511E+01 -7.72491E+03  3.75349E+03
 -4.12499E+03  1.23920E+02 -2.45643E+03 -5.53944E+03 -3.50472E+03 -3.79420E+03  2.27665E+03 -5.04005E+02
  1.97682E+03 -3.27442E+03 -3.31737E+03 -2.13942E+03  1.89793E+03  2.93743E+02 -1.01973E+03  3.79512E+03
 -5.18914E+03 -7.88164E+02  1.43143E+03 -3.24591E+03  7.53545E+01 -1.31148E+02 -1.79841E+03 -8.92779E+02
  6.03307E+03  2.52248E+03  1.03213E+04  3.22275E+03 -1.61188E+03  6.98966E+03 -2.91553E+03  4.34726E+03
 -3.31159E+03  1.90748E+03 -1.31522E+03 -2.62691E+03  2.56526E+03 -1.19956E+03  1.59128E+03 -2.59496E+03
  3.56729E+03 -2.73054E+03 -4.56191E+03 -1.82338E+03  4.13660E+01  8.63401E+03  1.21784E+03  5.13031E+03
 -8.05537E+02  2.79099E+03 -4.86036E+03  2.08056E+03  5.31171E+02  2.06497E+03  6.96107E+02 -2.78521E+03
 -2.26925E+03  1.54828E+03  1.03907E+03 -4.55034E+03 -4.28779E+03  3.74946E+03 -4.91976E+03 -1.87362E+03
 -5.69601E+03  7.76584E+01  3.11235E+03 -4.66343E+03  7.03614E+03 -3.82648E+03  6.04353E+03  1.28735E+03
  3.00145E+03  1.70392E+03 -6.17436E+02  6.14723E+03  4.23737E+02  4.13401E+03  3.68880E+03  4.11051E+03
 -2.41337E+03 -2.99103E+03 -1.39242E+03  1.38233E+03 -5.78254E+03 -6.51455E+01  1.39660E+03  1.21632E+03
  1.33482E+03 -2.53605E+03  3.05581E+03  2.49930E+03  2.51061E+03 -1.71516E+03  3.79210E+02  2.33928E+02
 -1.94559E+03  1.61685E+03  2.16607E+03  3.59400E+03 -6.98734E+02 -2.23148E+03 -4.31669E+02  7.95197E+03
  6.07812E+02  2.55349E+03 -1.18952E+03  8.38263E+03 -4.31538E+03  3.88817E+02 -2.08768E+03 -2.71471E+03
 -2.28261E+03 -2.61114E+03  1.76250E+03 -2.21589E+03  1.80595E+03 -2.55045E+02  5.25841E+03 -3.36520E+03
  3.93230E+03  2.23758E+03 -3.59237E+03  1.55114E+03 -6.10810E+02 -1.81227E+02  6.63204E+02  1.19834E+03
 -1.93846E+03 -1.57595E+03 -2.20917E+03  4.00512E+03 -2.15149E+00 -1.00882E+03 -3.04038E+02  1.39462E+03
 -3.89665E+02  2.13163E+02 -6.79274E+02 -2.36599E+03 -4.42908E+02 -4.59229E+03 -5.55598E+02 -1.60878E+03
 -4.99806E+03 -5.11035E+00  2.10698E+03 -1.40305E+03  2.02866E+03 -5.92879E+03  2.81398E+03  2.75548E+02
  7.10325E+01  8.31156E+02  1.70300E+03  1.35652E+02 -2.36006E+03  1.86534E+01  1.30784E+03 -4.36875E+03
 -2.74291E+03  1.72196E+03 -4.26960E+03  4.40745E+03 -1.26202E+03  6.16754E+02  8.20160E+02  2.46198E+03
 -1.21967E+03 -4.91106E+02  1.55707E+03 -2.61250E+03 -5.16640E+03  1.83244E+03  2.84329E+03 -8.27775E+02
 -5.10454E+02 -2.10566E+03  4.90387E+02  2.08921E+03 -1.07309E+03  2.61043E+03  9.89989E+02  4.49114E+03
