 $NMID ID='MM_0lb_SNR50_15hz_g45_70.RAW', FMTDAT='(8E13.5)'
 TRAMP=1., VOLUME=1. $END
  3.10866E+05 -2.40234E+03  3.34056E+05  2.48216E+05  8.83121E+04  3.36255E+05 -1.33275E+05  2.47713E+05
 -1.90998E+05  8.11878E+04 -1.07754E+05 -3.56770E+04  6.74537E+03 -5.20054E+04  5.55827E+04 -6.03387E+03
  3.56209E+04  5.17781E+04 -2.09504E+04  7.17080E+04 -5.86686E+04  5.81165E+04 -8.52042E+04  3.10746E+04
 -7.77735E+04 -1.33914E+04 -5.78419E+04 -5.29046E+04 -1.32447E+04 -6.74702E+04  3.18189E+04 -4.40886E+04
  3.80312E+04  4.85404E+03  9.60145E+03  4.85708E+04 -3.47153E+04  4.62802E+04 -6.28860E+04  2.42399E+03
 -5.17994E+04 -5.47658E+04  2.55166E+03 -7.71155E+04  3.38099E+04 -5.36704E+04  5.00128E+04 -2.03875E+04
  4.56873E+04  8.49473E+03  3.05468E+04  2.13997E+04  1.45502E+04  3.16001E+04 -5.20226E+03  3.14108E+04
 -2.18319E+04  1.04360E+04 -1.93877E+04 -2.83976E+03  1.06349E+04 -9.06229E+03  2.23595E+04  1.22321E+04
  9.67666E+03  3.31435E+04 -2.90003E+04  3.31423E+04 -5.98912E+04 -1.28817E+03 -5.77017E+04 -4.45398E+04
 -1.30089E+04 -5.98153E+04  3.81180E+04 -4.65629E+04  5.86766E+04 -1.74240E+03  3.43861E+04  3.01384E+04
 -7.41406E+03  3.57441E+04 -2.95223E+04  1.56522E+04 -2.95653E+04  9.13352E+02 -2.24977E+04 -9.07245E+03
 -6.02570E+03 -9.72482E+03 -4.30687E+01 -1.54162E+04  7.37434E+03 -2.57897E+04  1.78851E+04 -1.04486E+04
  1.63585E+04  6.53465E+03 -7.19798E+03  1.24361E+04 -2.08064E+04 -7.44606E+03 -7.18618E+03 -3.19805E+04
  2.07580E+04 -4.23358E+04  5.26131E+04 -1.81470E+04  4.75047E+04  2.04093E+04  1.58039E+04  4.41248E+04
 -1.57655E+04  3.45565E+04 -2.53406E+04  2.45929E+03 -7.57816E+03 -2.52874E+04  2.08401E+04 -3.93184E+04
  3.71231E+04 -7.44153E+03  3.44109E+04  2.72157E+04  1.67846E+04  4.68266E+04 -8.85468E+03  4.90375E+04
 -3.31809E+04  2.81549E+04 -3.71202E+04  4.84952E+03 -3.68441E+04 -1.49254E+04 -2.15231E+04 -3.13046E+04
  8.49779E+03 -3.47520E+04  3.15396E+04 -1.21562E+04  3.18791E+04  8.13038E+03  5.76057E+03  1.84919E+04
 -1.81961E+04  5.75895E+03 -5.91789E+03 -1.17908E+04  3.93780E+03 -1.29521E+04  1.44895E+04  4.68621E+03
  1.39500E+04  2.18096E+04 -5.81734E+03  2.04659E+04 -2.18693E+04  1.17634E+04 -2.88926E+04 -7.92641E+03
 -1.79047E+04 -1.63391E+04 -1.11505E+04 -2.18902E+04  5.97044E+03 -1.77264E+04  1.57339E+04 -1.17412E+04
  2.53682E+04 -1.39235E+04  3.24129E+04  7.19722E+02  2.49210E+04  1.94815E+04  5.89849E+03  3.47258E+04
 -1.71604E+04  2.76494E+04 -2.32516E+04  1.02652E+04 -2.18014E+04 -1.45560E+04 -4.92886E+03 -1.35601E+04
 -4.28044E+03 -2.97748E+03 -3.62140E+03  7.14269E+03 -1.63579E+04  6.80011E+03 -1.67910E+04 -2.95972E+03
 -1.09626E+04 -2.13913E+04  6.07074E+03 -1.96629E+04  1.77405E+04 -1.62883E+04  1.34761E+04 -2.10394E+03
  1.38493E+04  1.45615E+04 -3.89415E+03  1.76197E+04 -1.66111E+04  7.94487E+03 -1.78170E+04 -6.01866E+02
 -1.48492E+04 -1.88912E+04 -3.09493E+02 -2.48409E+04  8.98817E+03 -2.11073E+04  1.70381E+04 -7.68359E+03
  1.74878E+04 -2.31885E+03  1.02764E+04  5.18615E+03  2.83294E+03  1.29205E+03  7.54212E+03 -3.33554E+03
  1.80223E+04  2.67378E+03  1.70531E+04  1.39950E+04  1.18726E+04  2.91388E+04 -3.72503E+03  3.43230E+04
 -1.70897E+04  2.37800E+04 -2.80152E+04  1.27001E+04 -3.20296E+04 -6.64686E+03 -2.70937E+04 -1.71548E+04
 -1.04550E+04 -2.34447E+04  9.65196E+03 -2.00207E+04  2.07645E+04 -1.11776E+04  1.73355E+04 -1.54890E+02
  4.46504E+03  1.31303E+04 -9.76685E+03  1.23107E+04 -1.42273E+04  3.31559E+03 -1.15523E+04 -1.39221E+04
 -4.55504E+02 -1.39315E+04  6.13748E+03 -9.38478E+03  1.08996E+04  1.03083E+03  5.20215E+03  7.12933E+03
 -4.55891E+03  4.78183E+03 -9.42649E+03 -8.31368E+03 -4.40450E+03 -1.06686E+04  5.64435E+03 -9.08509E+03
  1.41136E+04 -8.54307E+03  1.56389E+04 -4.56693E+02  8.96256E+03  1.38909E+04  8.31520E+03  1.77704E+04
  2.12963E+03  2.26211E+04 -1.12583E+04  1.11748E+04 -1.60390E+04  6.25288E+03 -1.24498E+04 -8.81994E+03
 -6.58528E+03 -3.92674E+03 -2.70345E+03 -2.01925E+01 -5.87947E+02  9.05987E+02 -2.27920E+03  7.81418E+03
 -7.60547E+03 -4.71662E+03 -1.04464E+04 -1.33357E+04 -4.74974E+03 -1.35662E+04  6.97624E+03 -1.38963E+04
  1.03057E+04 -3.16660E+03  7.86964E+03  4.50146E+03 -1.18057E+03  3.52900E+03 -2.19991E+03  3.66422E+03
 -2.52921E+02 -4.68531E+03  5.55043E+02 -1.07125E+04  6.43742E+03 -7.57033E+03  1.42535E+04 -4.38998E+03
  1.80563E+04 -4.85007E+01  1.10524E+04  1.06081E+04  2.10570E+03  1.26596E+04 -5.72298E+03  9.83798E+03
 -4.24315E+03  5.48345E+03 -4.31063E+03 -5.25414E+02  3.58448E+03 -4.07405E+03  6.25438E+03 -8.80461E+02
  3.71492E+03  2.99184E+03  2.81589E+03  8.10365E+03 -7.12837E+03  6.22818E+03 -7.85253E+03  2.50062E+03
 -3.87706E+03 -1.13410E+03  1.32980E+03 -1.13411E+04  3.51976E+03 -1.30824E+03  3.91448E+03 -3.95731E+03
  5.71126E+02  6.28158E+03 -2.54996E+03  6.55048E+03 -5.67465E+03  8.31323E+01 -7.30981E+03 -5.47573E+03
 -7.06248E+03 -1.18617E+04  3.05266E+03 -4.41318E+03  9.36451E+03 -6.04364E+03  1.12487E+04  5.55759E+03
  6.62962E+03  9.75373E+03  1.72135E+03  4.60695E+03 -7.19750E+03  5.36198E+03 -8.79923E+03  4.53322E+03
 -7.73715E+03 -4.89256E+03  1.85034E+03 -6.65336E+03  7.13165E+02 -5.50883E+03  4.65561E+03 -4.99974E+03
  2.89198E+03 -4.93617E+03  4.71725E+02  7.49891E+03  1.05516E+03 -3.13596E+02  1.60991E+03  7.62190E+02
  7.21348E+03  2.18516E+03  5.55142E+03  4.98566E+03  8.79154E+03 -4.40781E+01  2.95213E+03  1.31661E+04
  1.42913E+03  1.28684E+04 -9.49710E+03  8.18635E+03 -1.67298E+04  2.06212E+03 -1.06101E+04 -6.60292E+03
 -6.24613E+03 -1.17081E+04 -5.87709E+03 -6.62515E+03 -7.78156E+02 -4.86150E+03  2.67085E+03 -3.51946E+03
  2.17017E+03 -3.36759E+03  1.89646E+03 -5.06498E+03  5.06907E+03 -2.76175E+03  5.13880E+03  7.42636E+02
  6.12312E+03  2.87467E+03 -3.09678E+03  5.06335E+03 -6.42023E+02  8.20522E+03 -5.56789E+03  2.01000E+03
 -9.82868E+03 -3.64043E+03 -3.74514E+03 -5.75949E+03 -5.98266E+03 -5.61749E+03  5.27562E+03 -1.18289E+04
  1.65854E+03 -5.20675E+03  1.06156E+04  1.56146E+02  8.57397E+03  7.23586E+03  2.29246E+03  7.62356E+03
 -2.67625E+03  1.38643E+04 -6.53746E+03  1.88870E+03 -8.70790E+02 -6.95966E+03  1.84361E+02  2.31922E+02
  4.16687E+02 -7.10592E+02  8.47326E+02  1.11670E+03 -3.56228E+03  4.77282E+03 -5.23836E+03  8.99617E+02
 -9.76164E+02 -5.66322E+03  2.05705E+02 -1.91356E+03  3.57009E+03 -6.93467E+03  5.67799E+03  1.25649E+03
  4.00012E+03  8.18273E+03  5.52263E+03  5.25594E+03  1.75775E+02  5.58811E+03 -2.78222E+03  2.28129E+03
 -7.48228E+03 -1.25870E+03 -1.21683E+04 -4.77060E+03  3.79251E+03 -4.41568E+03  3.90901E+03 -4.02121E+03
  8.53567E+03 -3.84409E+03  1.67174E+03  5.96109E+02 -2.21631E+03 -1.15131E+03  2.78924E+03 -3.66735E+03
  4.73077E+03 -3.46573E+03  2.05497E+03 -8.27934E+02  1.33739E+03  7.43659E+03  4.60785E+03  4.35959E+03
 -6.01259E+03  7.14344E+03 -5.39030E+03  7.97239E+03 -8.06347E+03  2.10372E+03 -9.11103E+03 -3.87864E+03
 -3.05456E+03 -5.00082E+03 -5.95704E+03 -5.38433E+03  4.97160E+03 -5.31182E+03  1.92031E+03  3.84032E+03
  8.06045E+03  5.71066E+03 -2.81145E+03  5.47321E+03 -4.36023E+03  3.49960E+03 -4.18690E+03  4.39755E+03
 -2.24624E+03 -5.35518E+02  1.52360E+03 -3.22581E+03  9.09595E+02  6.10498E+03  5.78155E+03  5.58911E+03
 -1.19643E+03  3.60586E+03 -4.24925E+03  6.18110E+03 -1.13800E+03  2.45843E+03  3.46645E+03  2.93938E+03
  5.33111E+02 -5.70481E+03  3.78667E+03  1.73698E+03 -7.87370E+02  6.02732E+03 -3.35320E+02  5.25539E+03
 -4.06476E+03 -1.15478E+03 -2.50262E+03  4.54831E+03 -7.00118E+03 -4.17310E+02  1.05312E+03  1.01369E+03
 -3.75379E+03 -4.90827E+03  4.80435E+03 -1.42322E+00  2.51730E+03  1.96594E+03 -4.81137E+02  2.18461E+03
 -3.83325E+03  1.19477E+03 -2.99606E+03 -2.82435E+03 -6.33647E+02 -2.62110E+03 -2.86158E+03  3.02096E+02
 -6.38254E+02  7.62768E+02 -1.47812E+03 -8.45856E+02  5.50790E+03 -1.80632E+03  4.47101E+02  6.23068E+02
  2.46245E+03  4.22603E+02 -5.84372E+03 -2.03422E+03  2.32561E+03 -5.19716E+02  2.94228E+03 -1.91052E+03
  2.61983E+03  1.45516E+03  2.94565E+03  3.15330E+03 -8.52350E+02  4.43161E+03  2.40033E+03  1.58756E+03
 -1.40961E+03 -1.29007E+03 -1.46452E+03 -4.83518E+03  1.22638E+03 -8.82745E+03 -3.18822E+02 -1.16399E+03
  4.06113E+03 -6.67092E+02 -1.48315E+03 -1.57142E+03  4.15063E+03 -8.92661E+02  3.50554E+03  1.31976E+03
 -2.29983E+02  1.75072E+03 -1.54832E+03  1.66917E+03  1.94117E+03 -2.95953E+03 -1.66356E+03 -1.94705E+03
 -2.00980E+03  3.26683E+03 -3.90503E+03  6.69643E+01  1.89344E+02 -3.99445E+03 -3.79504E+03 -6.82429E+03
 -2.77857E+03 -9.20779E+02 -4.69463E+01 -3.64276E+03 -2.32025E+03 -3.10679E+03  2.22612E+03 -5.01068E+03
  7.78338E+03 -7.12167E+02  5.81906E+03  6.03594E+03  8.98994E+02  2.19615E+03  8.15192E+02  1.68331E+03
  3.23952E+03  3.71171E+02  3.79470E+03 -3.65010E+02 -9.98723E+02  2.43319E+03 -6.06703E+03  2.87087E+02
 -1.58569E+03 -9.83588E+02  7.91244E+02  2.25625E+03 -1.11004E+03 -1.91103E+03 -3.53505E+03  5.18999E+02
  5.85716E+03 -2.66549E+03  3.30456E+03 -1.02131E+03  5.01418E+03  1.48978E+02  5.78325E+03  2.33037E+03
  7.07962E+02  1.55078E+03 -1.11571E+03 -4.18082E+03 -4.26077E+03  2.82734E+03  1.55937E+03 -5.64899E+02
 -6.24341E+03 -4.61019E+03  1.03390E+03 -6.53658E+03  6.47430E+03  1.99445E+03  3.76532E+03  2.75727E+03
 -3.82211E+01  8.14960E+03 -7.41345E+01  5.76366E+03  5.13382E+02  1.71388E+03  5.96033E+03 -6.68575E+03
  8.27241E+02  2.69188E+03  1.04915E+03  5.44826E+03  3.48315E+03 -2.49053E+03  3.80796E+03  2.31023E+01
 -2.33282E+03  1.00394E+03 -2.73075E+03 -1.35871E+03  5.00262E+02 -7.50465E+02 -8.87898E+02 -4.41158E+03
 -1.08904E+03 -7.43886E+01  5.91484E+03 -3.46228E+03  3.07712E+03 -2.51506E+03  3.05851E+03  1.93410E+03
 -7.98276E+02  8.28264E+03 -3.19502E+03 -2.37738E+03 -1.29135E+01  1.27458E+03 -4.18661E+03 -2.88228E+03
  2.74886E+03 -3.50995E+03  1.21183E+03  1.67051E+03  1.99386E+03  3.10581E+03 -3.36404E+03 -3.26778E+03
  2.15208E+03 -1.16431E+03 -5.95045E+02 -1.10913E+03  3.00309E+03 -8.00466E+02 -1.57211E+03 -3.69906E+03
 -2.46392E+03  3.71652E+03  5.04285E+03  3.29431E+03 -7.26934E+02  4.08950E+03  1.56597E+03  2.68725E+03
