 $NMID ID='MM_0lb_SNR50_7hz_g60_83.RAW', FMTDAT='(8E13.5)'
 TRAMP=1., VOLUME=1. $END
  3.06227E+05  4.21278E+03  3.32920E+05  2.52406E+05  8.59104E+04  3.41899E+05 -1.37353E+05  2.57491E+05
 -1.89660E+05  8.17931E+04 -1.18908E+05 -3.78760E+04  3.08282E+03 -4.54653E+04  4.94193E+04 -4.79944E+03
  4.38473E+04  4.84934E+04 -2.53388E+04  7.20718E+04 -5.62423E+04  6.63096E+04 -8.53513E+04  3.35955E+04
 -8.76344E+04 -1.30630E+04 -5.26920E+04 -5.70499E+04 -7.91555E+03 -6.95869E+04  4.05108E+04 -4.18121E+04
  4.22104E+04  5.11778E+03  1.78451E+04  5.37960E+04 -2.98565E+04  4.30319E+04 -7.86354E+04 -5.47630E+02
 -5.98858E+04 -4.80505E+04 -1.25138E+04 -8.27173E+04  3.65355E+04 -5.21720E+04  5.25405E+04 -1.50599E+04
  4.78512E+04  1.25309E+04  2.67386E+04  2.23672E+04  2.22868E+04  3.11241E+04  1.20962E+03  1.92224E+04
 -2.49380E+04  1.55871E+04 -2.31629E+04  1.61243E+03  2.98171E+03 -4.55621E+03  2.55026E+04  1.61593E+04
  7.98258E+03  3.94744E+04 -3.78846E+04  3.98226E+04 -6.88869E+04 -6.11578E+03 -5.54227E+04 -4.55126E+04
 -1.43354E+04 -6.65857E+04  4.69285E+04 -4.20969E+04  5.41329E+04 -8.72719E+02  4.23454E+04  3.48916E+04
 -4.69330E+03  4.16329E+04 -3.09372E+04  1.11161E+04 -4.19537E+04 -4.20365E+02 -1.77531E+04 -1.64279E+04
 -5.58211E+03 -1.80995E+04  3.69458E+03 -1.52987E+04  6.00372E+03 -2.56090E+04  1.32491E+04 -1.01256E+04
  6.14895E+03  7.31162E+03 -1.12236E+04  1.31911E+04 -2.97372E+04 -7.66795E+03 -3.07091E+03 -3.06305E+04
  2.74480E+04 -4.69359E+04  5.79174E+04 -2.29121E+04  5.00311E+04  2.18246E+04  1.67995E+04  4.73450E+04
 -2.05081E+04  3.69006E+04 -2.81769E+04  2.98981E+03 -1.76259E+04 -3.25662E+04  2.11464E+04 -4.37903E+04
  5.22266E+04 -6.66161E+03  4.00192E+04  2.87574E+04  2.97744E+04  5.65205E+04 -1.57384E+03  6.09010E+04
 -3.02805E+04  4.68234E+04 -5.37640E+04  1.55159E+04 -4.18140E+04 -1.28439E+04 -2.81599E+04 -4.30478E+04
  1.21549E+04 -5.03268E+04  3.57905E+04 -2.17270E+04  3.26960E+04  1.28711E+04  6.41557E+03  2.46289E+04
 -1.27503E+04 -2.45930E+03 -7.39077E+03 -5.16699E+02  2.22357E+03 -1.55695E+04  1.19092E+04  7.81161E+03
  1.13530E+04  1.62331E+04 -7.63205E+03  3.43790E+04 -2.24165E+04  1.58502E+04 -2.97940E+04  1.11049E+03
 -4.04161E+04 -2.14083E+04 -1.36828E+04 -2.68998E+04  1.48545E+03 -3.10109E+04  1.95690E+04 -2.53589E+04
  3.33989E+04 -1.42846E+04  4.27926E+04  6.92196E+03  2.71821E+04  3.47159E+04  9.19076E+03  4.55642E+04
 -2.41041E+04  3.30387E+04 -4.16030E+04  8.75404E+03 -2.18099E+04 -5.28180E+03 -2.20868E+03 -9.20294E+03
  2.76154E+03 -2.52643E+03 -6.93920E+03  5.19458E+03 -2.21914E+04  6.37386E+02 -2.17111E+04 -1.34997E+04
 -1.06094E+04 -2.93609E+04  5.25478E+03 -2.99988E+04  1.60020E+04 -2.56968E+04  2.52578E+04  3.13506E+03
  1.58209E+04  2.19310E+04 -7.70741E+03  2.98253E+04 -2.05542E+04  1.43026E+04 -3.13622E+04 -7.01590E+03
 -1.76179E+04 -1.94544E+04  5.81334E+02 -2.17742E+04  1.35510E+04 -2.70419E+04  2.68913E+04 -1.15939E+04
  2.05713E+04 -2.93984E+03  1.52185E+04  8.59387E+03  1.10407E+04 -4.23433E+03  1.52870E+04 -2.85631E+03
  2.25358E+04  7.04368E+03  3.05465E+04  1.98687E+04  1.85394E+04  3.80399E+04  3.11848E+02  5.14604E+04
 -2.22191E+04  3.70327E+04 -5.25956E+04  1.96526E+04 -5.05635E+04 -3.75589E+03 -4.15412E+04 -2.24162E+04
 -1.60641E+04 -4.03817E+04  1.74131E+04 -3.00442E+04  2.65241E+04 -1.57949E+04  2.45565E+04  9.91485E+03
  6.33556E+03  2.45722E+04 -1.36623E+04  1.98731E+04 -2.17969E+04 -4.86638E+03 -1.77508E+04 -1.33691E+04
  4.72984E+03 -2.21352E+04  8.32620E+03 -1.66799E+04  1.20986E+04  7.85182E+03  8.64792E+03  7.96933E+03
 -1.39394E+04  2.86650E+03 -4.36258E+03 -4.98409E+03  5.04272E+03 -2.40391E+04  9.66774E+03 -2.38259E+04
  2.99825E+04 -1.40936E+04  3.22406E+04  8.16870E+03  1.80502E+04  2.62142E+04  1.41447E+04  3.63234E+04
 -1.08320E+04  3.65533E+04 -2.26046E+04  2.02016E+04 -2.50179E+04  8.41173E+02 -1.76971E+04 -1.23607E+04
 -8.00523E+03 -8.16335E+03 -3.12708E+03  2.60983E+03 -8.01263E+03  1.50842E+03 -4.04797E+03  7.46033E+03
 -1.23043E+04 -6.92908E+02 -1.61525E+04 -1.40135E+04 -5.77671E+03 -2.08480E+04  5.93704E+03 -1.31143E+04
  1.70475E+04 -4.39551E+03  9.89854E+03  6.16694E+03 -5.18294E+03  4.00113E+03 -8.50660E+03  8.41571E+03
 -5.74288E+03 -1.60897E+04  2.13692E+03 -1.56796E+04  6.74910E+03 -2.48986E+04  3.22085E+04 -9.50217E+03
  2.95427E+04  6.13794E+03  2.40414E+04  1.09849E+04  1.18894E+03  2.09901E+04 -9.69454E+03  1.68723E+04
 -1.65695E+04  7.57772E+03 -3.55801E+03  2.02368E+03  1.17117E+03 -1.07013E+04  1.11549E+04  3.65701E+03
  6.99594E+03  4.37001E+03 -7.56253E+02  1.83984E+04 -8.20125E+03  1.21745E+04 -1.54817E+04  3.47598E+03
 -1.24642E+04 -1.56774E+04 -4.91286E+02 -2.20057E+04  3.76423E+03 -6.47215E+02  1.06617E+04  3.26540E+03
 -1.35315E+02  7.30877E+03 -2.64249E+03  2.00602E+04 -2.75993E+04  5.39824E+03 -1.62561E+04  2.32861E+02
 -8.49000E+03 -1.96372E+04  3.32711E+03 -2.81883E+04  1.37239E+04 -1.59668E+04  2.28291E+04  1.29092E+04
  1.79072E+04  9.02576E+03  3.09283E+02  1.85479E+04 -2.30445E+04  5.19762E+03 -1.64958E+04 -7.44798E+03
 -9.66561E+03 -1.28464E+04 -4.40858E+03 -1.63985E+04  1.03342E+04 -1.56951E+04  1.04070E+04 -5.58917E+03
  7.53339E+03  4.98520E+03 -5.68633E+03  7.87695E+02 -1.03540E+04 -2.82767E+03  1.51934E+03 -1.68991E+04
  1.20584E+04 -6.95727E+03  1.69088E+04 -4.19952E+03  2.28997E+04  2.11237E+04  1.23879E+04  2.32791E+04
 -5.87060E+03  3.39000E+04 -2.64309E+04  2.49714E+04 -3.66673E+04  5.96641E+03 -2.76038E+04 -1.39599E+04
 -8.54228E+03 -1.20581E+04  2.94821E+03 -1.96934E+04  1.61866E+04 -1.15143E+04  8.72527E+03 -8.83452E+03
  2.80431E+03 -5.41740E+03  5.17712E+03 -4.72519E+03  7.48608E+03 -7.21978E+03 -1.83717E+03  2.07587E+03
  1.89156E+04  1.18446E+03  2.27534E+03  2.04471E+04  1.05770E+03  1.86886E+04 -1.28406E+04  1.32309E+04
 -2.42673E+04 -2.03558E+03 -1.29288E+04 -1.58006E+04  3.46108E+03 -2.42234E+04  3.46929E+03 -2.32830E+04
  2.29771E+04 -1.23482E+04  2.56385E+04  9.59846E+03  2.26444E+04  2.33020E+04  2.60929E+01  2.29140E+04
 -1.24380E+04  2.62968E+04 -1.33039E+04  1.07806E+04 -9.19337E+03 -4.82474E+03 -9.61308E+03 -2.51141E+03
  1.10668E+03 -6.13192E+03 -9.94660E+03  7.42745E+03 -1.23720E+04 -1.71025E+02 -2.01733E+04 -1.45627E+02
 -1.20884E+04 -1.09639E+04 -8.05353E+02 -2.00301E+04  6.72643E+03 -1.07261E+04  2.14282E+04  8.82941E+02
  2.19325E+04  1.03046E+04  8.82799E+03  1.60401E+04 -2.88382E+03  1.36151E+04 -1.92017E+04  1.29245E+04
 -2.22915E+04 -3.64231E+03 -9.40378E+03 -1.27127E+04  5.16252E+02 -5.58800E+03  9.61307E+03 -9.71576E+03
  1.66525E+04 -1.12583E+02  1.30316E+04 -1.42925E+03  4.46383E+03  1.43619E+03 -2.43232E+03  1.14000E+03
  2.69426E+03  5.18587E+03  1.26886E+04  1.89957E+03  1.04497E+04  1.28646E+04 -1.19566E+02  1.07779E+04
  4.94355E+03  1.22552E+04 -7.45318E+03  1.24658E+04 -3.00424E+04 -3.27037E+03 -2.01634E+04 -7.16067E+03
 -1.33472E+04 -2.55632E+04  8.74981E+02 -2.99973E+04  8.86880E+03 -1.61507E+04  1.96533E+04  2.34651E+02
  1.31431E+04  5.59036E+03  1.03694E+04  1.27926E+04 -3.49960E+03  3.84666E+03 -2.17231E+04 -3.00711E+03
 -1.00869E+04 -1.27555E+04  7.16004E+03 -1.13882E+04  7.15048E+02 -5.02858E+03  1.32679E+04  2.04697E+03
  8.82143E+02  6.54336E+03  5.94328E+03 -1.45644E+02  6.88802E+03  7.92748E+03  1.15766E+03  6.91237E+03
  1.83958E+03 -8.34639E+03  6.48007E+03  3.34047E+03  1.02415E+04  1.90682E+04  7.55179E+02  2.38689E+04
 -1.00430E+04  9.61758E+03 -1.53458E+04 -5.87402E+03 -8.51334E+03 -6.13519E+03 -2.61727E+03 -7.34139E+03
  5.15090E+03 -8.26597E+03  5.90575E+03 -2.09916E+02  9.33411E+03  4.69441E+03 -4.07727E+03  6.62843E+03
  2.22858E+03  4.68763E+03 -1.67448E+04 -6.94841E+03 -7.15188E+03 -6.39791E+03  6.06692E+03 -7.10376E+03
  9.44639E+03 -1.39917E+04  3.38612E+03  1.09735E+04  9.97922E+03  3.83827E+03 -1.21859E+03  8.59537E+03
 -3.15275E+03  2.08090E+03 -6.31318E+03 -2.87497E+03  8.89889E+03 -8.41822E+03  4.78012E+03 -3.65704E+03
  1.31274E+04  1.82691E+03  1.83083E+04  1.05824E+04  2.80873E+02  2.61999E+04 -4.75622E+03  1.15073E+04
 -1.24431E+04  7.20028E+03 -1.18421E+04 -5.31434E+03 -1.62417E+04 -1.52006E+04  4.15735E+03 -1.08612E+04
  9.09284E+03 -4.08940E+03  8.48651E+03  5.61938E+03 -1.32170E+03  9.30128E+03  4.35929E+03  1.77538E+04
 -7.46154E+03 -8.18585E+03 -2.90576E+02 -5.93505E+03  1.31085E+03 -5.76868E+02 -6.80116E+03  3.85826E+02
 -7.08829E+02  4.92816E+03 -1.67646E+04  1.06473E+04 -1.53123E+04 -2.97035E+03 -8.64683E+03 -5.85187E+03
 -9.03452E+03 -2.18962E+04  4.13802E+03 -1.94606E+04  1.97766E+04 -1.70855E+04  2.72667E+04 -1.40931E+04
  2.44750E+04  3.48939E+03  9.89453E+03  1.88404E+04  7.04934E+03  1.62667E+04 -2.65048E+03  1.63836E+04
 -1.04511E+04  2.21091E+03 -6.35699E+03 -1.08635E+04 -5.86345E+03  2.03890E+03 -1.48650E+03 -1.75281E+03
  3.43645E+02 -1.81777E+03 -5.11428E+03  2.13952E+03 -5.54697E+03  2.82730E+02 -4.53358E+03 -2.51372E+03
  6.03458E+03 -4.01434E+03  5.26128E+03 -2.31000E+03  1.12170E+04  1.12208E+04  3.93810E+03  1.61951E+04
 -9.98382E+03  2.20931E+04 -1.59903E+04  1.15284E+04 -2.05282E+04 -4.88137E+03 -1.16869E+04 -1.36960E+04
  4.27781E+02 -2.11368E+04  6.23394E+03 -1.60973E+04  9.23112E+03 -8.53380E+03  7.05411E+03 -1.72759E+03
  1.84637E+03  5.66589E+03  1.65236E+03  4.63072E+03 -4.65220E+03  1.29214E+02  4.92006E+03 -6.05674E+03
  8.09933E+03 -1.58235E+03  1.26853E+04  6.22030E+02  2.91788E+03  1.20889E+04  1.26253E+03  4.28740E+03
  1.63148E+03  5.01591E+03 -1.21098E+04  1.02705E+02 -7.08705E+03 -6.92312E+03 -4.79720E+03 -1.14696E+04
  8.41716E+03 -8.28003E+03  2.21233E+04 -4.88789E+03  1.20618E+04  1.20772E+04  9.98765E+03  1.25179E+04
 -2.59289E+03  8.19571E+03 -1.36017E+03  1.55515E+04 -3.43014E+03  5.72924E+03 -5.01271E+03  7.67877E+03
 -1.13707E+04  9.42607E+02 -5.66907E+03 -6.43390E+03 -8.87041E+03 -3.69276E+02 -1.08559E+04 -4.76986E+03
 -8.17089E+03 -9.94959E+03 -7.67112E+02 -1.01266E+04 -3.82399E+02 -1.88775E+04  9.19943E+03 -2.80600E+03
  1.41986E+04  7.91371E+03  7.38869E+03  1.35319E+04 -5.08340E+03  1.66843E+04 -6.80782E+03  1.00356E+04
