 $NMID ID='MM_0lb_SNR50_8hz_g40_85.RAW', FMTDAT='(8E13.5)'
 TRAMP=1., VOLUME=1. $END
  3.13389E+05 -3.59183E+03  3.43578E+05  2.51306E+05  8.17010E+04  3.43148E+05 -1.33727E+05  2.56829E+05
 -1.96636E+05  8.52405E+04 -1.13537E+05 -2.99058E+04 -6.15480E+03 -5.64701E+04  4.96149E+04  5.75497E+03
  3.98942E+04  5.36639E+04 -1.98246E+04  8.21603E+04 -6.13485E+04  6.27967E+04 -8.79153E+04  3.23162E+04
 -8.62362E+04 -1.02272E+04 -5.07707E+04 -5.00944E+04 -2.29279E+04 -6.73668E+04  2.06828E+04 -4.89184E+04
  4.13087E+04  1.05278E+04  1.73402E+04  5.05601E+04 -3.62670E+04  4.57698E+04 -7.07143E+04  4.90481E+03
 -4.89815E+04 -5.75880E+04 -6.64385E+03 -8.12060E+04  2.99278E+04 -6.06574E+04  5.52333E+04 -1.96081E+04
  4.64142E+04  1.00063E+04  2.70543E+04  2.07868E+04  1.73806E+04  3.19203E+04 -4.94117E+03  2.98867E+04
 -2.84135E+04  1.56123E+04 -1.28203E+04 -2.49883E+03  7.64932E+03 -5.67893E+03  2.89827E+04  1.09717E+04
  3.97522E+03  3.79674E+04 -3.22305E+04  3.50052E+04 -6.12316E+04  3.87351E+03 -5.53403E+04 -4.15968E+04
 -9.70761E+03 -6.54930E+04  4.26034E+04 -5.18844E+04  6.00302E+04 -1.00400E+04  3.64481E+04  4.18359E+04
 -2.26934E+03  3.65371E+04 -3.82248E+04  2.31302E+04 -3.15705E+04 -3.23149E+03 -2.18659E+04 -7.57639E+03
 -3.94261E+03 -1.69032E+04  3.38179E+02 -2.40906E+04  1.09898E+04 -1.81604E+04  1.85717E+04 -7.52692E+03
  1.41614E+04  5.72800E+03 -8.09405E+03  1.34447E+04 -2.46142E+04 -9.56866E+03 -9.81561E+03 -3.50759E+04
  2.79562E+04 -4.81967E+04  5.12263E+04 -2.18805E+04  5.22633E+04  2.37610E+04  1.85040E+04  4.30775E+04
 -1.28046E+04  3.82202E+04 -2.87591E+04  2.87071E+03 -1.05602E+04 -2.55945E+04  2.10190E+04 -3.49083E+04
  4.59368E+04 -4.35522E+03  4.16348E+04  2.06309E+04  2.45139E+04  5.13020E+04 -2.31611E+03  5.95347E+04
 -3.53493E+04  3.33275E+04 -4.98062E+04  1.40383E+04 -4.94389E+04 -1.15345E+04 -3.25573E+04 -4.22217E+04
  8.84550E+03 -3.83937E+04  4.04177E+04 -1.45810E+04  3.00359E+04  1.35794E+04  3.21283E+03  2.01317E+04
 -1.50095E+04  8.03894E+03 -1.31768E+04 -4.87189E+03  6.98428E+03 -1.10021E+04  2.30543E+04  5.83547E+03
  1.98798E+04  1.62495E+04 -7.72737E+03  2.84724E+04 -1.87117E+04  1.29402E+04 -2.73771E+04 -2.61422E+03
 -2.88180E+04 -1.91563E+04 -1.31880E+04 -2.27881E+04  2.63347E+03 -1.93226E+04  1.67915E+04 -2.27455E+04
  2.67321E+04 -1.41476E+04  3.91562E+04  4.79755E+03  3.16677E+04  2.35911E+04  8.44004E+03  4.67778E+04
 -2.08466E+04  4.13177E+04 -2.62337E+04  1.12125E+04 -2.74942E+04 -7.07292E+03 -6.80666E+03 -1.33463E+04
 -5.95519E+03 -4.06859E+03 -1.00715E+04  4.35986E+03 -1.51637E+04  6.92541E+03 -2.36180E+04 -1.12223E+04
 -6.19455E+03 -2.79580E+04  7.35015E+03 -3.08695E+04  1.58023E+04 -1.97614E+04  2.80401E+04 -1.61644E+03
  1.67070E+04  9.01742E+03 -3.26516E+02  2.32625E+04 -1.99670E+04  1.27119E+04 -2.43064E+04 -3.28812E+03
 -1.66254E+04 -2.29973E+04  3.38541E+02 -2.72138E+04  1.13713E+04 -2.52822E+04  1.80261E+04 -1.00764E+04
  2.51708E+04 -5.48196E+03  1.43226E+04  4.72047E+03  5.17965E+03  3.17983E+03  1.72089E+04  1.12099E+03
  2.14963E+04 -2.39874E+03  2.38808E+04  1.75097E+04  1.54675E+04  3.46644E+04 -1.90578E+03  4.45597E+04
 -2.39875E+04  3.58297E+04 -4.30156E+04  1.39333E+04 -4.23597E+04 -3.90065E+03 -3.52171E+04 -2.53801E+04
 -1.98332E+04 -3.63393E+04  1.64427E+04 -3.22773E+04  2.87964E+04 -1.71385E+04  2.32666E+04  4.34669E+03
  1.30051E+04  1.58212E+04 -1.72254E+04  1.42452E+04 -1.72557E+04  7.60372E+02 -1.20435E+04 -1.69240E+04
 -4.50856E+03 -1.18614E+04  1.16162E+04 -1.61700E+04  2.11157E+04 -5.73294E+02  3.07336E+03  7.18968E+03
 -1.30496E+04  6.69677E+03 -1.03555E+04 -7.32095E+03 -2.70572E+03 -2.00961E+04  1.00215E+04 -1.46597E+04
  1.71838E+04 -1.83439E+04  2.79957E+04 -9.62245E+02  2.80440E+04  1.88347E+04  1.27386E+04  3.55326E+04
 -2.12459E+03  3.52909E+04 -2.47270E+04  2.29892E+04 -2.81133E+04  6.01542E+03 -1.61107E+04 -8.48902E+03
 -3.33104E+03 -5.28290E+03 -4.25933E+03  2.33277E+03 -5.91340E+03  5.66654E+03 -3.02098E+03  7.18265E+03
 -2.47211E+04 -4.03993E+03 -1.66521E+04 -1.21306E+04 -1.04068E+04 -2.01729E+04  1.13065E+04 -1.68990E+04
  1.65557E+04 -6.15639E+03  8.38705E+03  6.60528E+03  3.01629E+03  9.75817E+03 -6.54329E+03 -6.36663E+03
 -1.38084E+04 -1.32642E+04 -6.41183E+03 -1.90084E+04  6.24067E+03 -2.06116E+04  2.32286E+04 -1.08172E+04
  1.96327E+04  8.63186E+03  1.41563E+04  1.78384E+04  3.63569E+03  2.00794E+04 -1.12585E+04  1.42959E+04
 -6.22967E+03  7.78354E+03 -1.09906E+04  4.03657E+02  3.67177E+03 -2.51976E+03  2.32366E+03 -9.58953E+02
  4.22151E+03  3.70428E+03  4.85170E+03  1.40419E+04 -1.31744E+04  1.50365E+04 -1.43444E+04  2.44151E+03
 -1.02837E+04 -8.36000E+03  4.45665E+03 -1.53943E+04  1.22201E+04 -4.47824E+03  5.26138E+03  3.79222E+03
 -8.42097E+02  5.17580E+03 -1.12072E+04  7.84304E+03 -1.95190E+04  2.19420E+02 -1.38068E+04 -1.11733E+04
 -8.30735E+03 -1.89267E+04  7.19375E+03 -1.54525E+04  1.98333E+04 -1.20254E+04  1.59411E+04  2.61669E+03
  9.07039E+03  1.62631E+04 -1.69394E+03  1.45746E+04 -1.23742E+04  1.36685E+04 -1.97735E+04 -1.50867E+03
 -1.11244E+04 -9.99984E+03 -8.63229E+02 -1.27871E+04  5.35959E+03 -1.32813E+04  6.77047E+03 -3.42463E+03
  5.03046E+03  1.05031E+04 -9.89643E+02  7.54179E+03  4.97069E+03 -4.29705E+03 -5.48459E+03 -7.13470E+03
  1.48765E+04 -3.53025E+03  1.57605E+04 -3.95483E+03  1.21629E+04  1.17542E+04  7.59176E+03  2.06277E+04
 -7.46165E+03  2.88215E+04 -2.47087E+04  1.61772E+04 -2.26698E+04  4.33678E+03 -1.32880E+04 -1.24198E+04
 -8.56200E+03 -2.24559E+04 -6.29679E+03 -2.01713E+04  1.21069E+04 -6.61281E+03  9.83419E+03 -7.28342E+03
  9.65011E+03 -7.53426E+02  4.02102E+03 -3.12930E+03  7.51543E+03 -5.51604E+03  9.24247E+03  3.91046E+02
  4.39232E+03  3.38663E+03  8.01682E+03  9.11709E+03 -2.91579E+03  1.04649E+04 -8.71317E+03  8.84984E+03
 -1.94805E+04 -5.00087E+03 -1.37737E+04 -5.20510E+03  1.84545E+03 -7.93190E+03  8.54930E+03 -1.66750E+04
  2.31795E+04 -9.89077E+03  1.44059E+04  3.02031E+03  1.51950E+04  1.37921E+04  4.02955E+03  1.74689E+04
 -1.00811E+04  1.09361E+04 -8.75937E+03  6.49839E+03 -1.30889E+04 -1.58162E+03 -2.34140E+03 -6.49557E+03
 -5.90586E+03 -4.05716E+03  1.00065E+03  6.45677E+02 -6.87257E+03  3.99529E+03 -1.14989E+04  5.09614E+03
 -9.66919E+03 -1.34480E+04 -3.06136E+02 -2.00987E+04  8.56383E+03 -1.15524E+04  1.14231E+04 -4.95292E+03
  2.68631E+04  1.04843E+04  4.93929E+03  1.34424E+04 -6.57849E+03  1.32135E+04 -5.49142E+03  8.92436E+03
 -1.87225E+04  2.56437E+03 -8.84537E+03 -1.06672E+04 -4.43357E+03 -1.56144E+04  1.26956E+04 -9.61646E+03
  8.16065E+03  1.54480E+03  3.11642E+03  4.36493E+03  4.22050E+03  1.18789E+03 -1.85232E+03  3.53968E+03
 -4.84406E+03  2.45668E+03 -1.67644E+03 -2.61333E+02  6.25298E+03 -3.41517E+02 -3.36079E+03  1.94134E+03
 -7.06528E+03  1.26051E+04 -1.19218E+04  9.28004E+03 -1.54096E+04  5.47987E+03 -1.31025E+04 -9.72566E+03
 -1.04757E+04 -1.39028E+04  3.47143E+03 -2.14663E+04  9.02246E+03 -1.02053E+04  1.57350E+04 -1.56899E+03
  1.12704E+04  6.45166E+03  8.92542E+03  4.70865E+03  1.44359E+03  8.80778E+03 -1.88949E+03 -5.13339E+03
 -3.10914E+03 -3.25631E+03  4.07229E+03 -6.36597E+03  9.68210E+03  2.98283E+03  5.30571E+03  4.57230E+03
  5.84749E+03  8.27722E+03  3.34493E+03  1.61519E+03 -4.65744E+03  3.12736E+03 -4.73592E+03 -9.08502E+02
 -9.08131E+02  2.53892E+03  8.16462E+03  3.14626E+03  2.47346E+03  1.10135E+04 -8.16463E+03  1.16969E+04
 -7.77488E+03  9.93384E+03 -7.53726E+03  8.96215E+02 -2.67759E+03 -6.97342E+03  4.65972E+02 -8.12538E+03
  4.53776E+03 -5.94786E+03  3.36921E+03 -1.92117E+03  7.15946E+03  4.31402E+03 -6.85980E+02  3.06951E+03
 -7.85063E+03 -1.61570E+03 -5.11084E+03 -4.64717E+03 -9.09540E+03 -9.71700E+03 -5.38313E+03 -1.19970E+04
  3.51252E+03 -3.05431E+02  4.48910E+03 -1.90910E+03  2.31678E+03  3.94333E+03  2.34014E+03  1.26812E+04
 -6.80056E+03 -8.32772E+02 -1.42231E+04 -3.07296E+03  4.09747E+03 -5.36203E+03  7.42710E+03 -2.44888E+03
  4.47081E+03 -4.10537E+02  1.61287E+04  7.21264E+03 -2.07961E+03  8.62603E+03 -5.27146E+03  5.54402E+03
 -5.97316E+03  8.02366E+03 -1.33132E+04  1.87308E+03 -1.02352E+04 -8.92080E+03  6.06595E+03 -1.21812E+04
  4.04339E+03 -5.64284E+03  5.17691E+03  6.65342E+03 -3.58476E+03  1.19136E+04 -5.46171E+03  4.05181E+03
  2.32862E+03  2.00577E+03 -1.03975E+04 -5.86184E+03  2.90303E+02  2.16769E+03 -1.35405E+03 -2.41497E+03
 -5.18945E+03  9.13831E+03 -1.18339E+04  6.04169E+03 -1.12255E+04  1.25166E+03 -9.51578E+03 -7.38298E+03
 -7.78834E+03 -1.37170E+04  1.54504E+03 -1.47407E+04  1.02247E+04 -1.37699E+04  1.59045E+04 -7.97004E+03
  5.09485E+03  1.24073E+03  1.10020E+04  4.43757E+03 -9.85339E+02  1.03613E+04 -4.16883E+03  3.74303E+03
 -9.67722E+03  2.90609E+03 -5.81950E+03  1.02020E+03 -1.94418E+03  4.61190E+03  6.29418E+02  9.80743E+02
  1.08785E+03 -1.07067E+04 -1.51063E+02  1.55397E+02  1.16379E+03 -4.36762E+03  4.58085E+03 -3.69241E+03
  4.84442E+03 -1.13022E+03  1.07062E+04 -5.53277E+03  1.01606E+04  1.33904E+04  2.28121E+03  8.95736E+03
 -5.52192E+03  9.00917E+03 -1.59999E+04  6.76537E+03 -1.09293E+04 -3.08960E+03 -1.19675E+04 -3.89583E+03
  9.48769E+02 -7.94059E+03  1.17239E+04 -1.27349E+04  5.91659E+03 -1.21158E+04 -1.59728E+02  1.85346E+01
  8.00521E+03  2.14158E+03 -2.53396E+02  3.07693E+03 -2.42876E+03  4.38132E+03 -5.76921E+03 -2.11389E+03
 -2.14942E+03  6.91371E+03  1.75725E+03  2.84744E+03  2.21341E+03 -8.28497E+02 -9.30751E+03  4.58747E+03
 -5.08817E+03  4.68303E+03 -1.13524E+04  2.41021E+03 -1.05296E+04 -3.52646E+03  2.25298E+03 -1.07151E+04
  3.56655E+03 -1.13985E+04  7.38638E+03 -3.85275E+03  1.03211E+04 -5.45737E+03  5.11477E+03  2.51308E+03
  3.78802E+03  9.75453E+03 -2.24179E+03  4.74102E+03 -8.92148E+03  2.65221E+03  7.74706E+02 -1.78482E+03
  4.50891E+03 -7.67935E+02 -2.89531E+03 -5.00463E+03 -4.22079E+03  7.67473E+03 -3.03418E+03  5.45523E+03
  1.71123E+03 -4.38101E+03 -6.18932E+03 -7.30930E+03  4.73863E+03 -5.66924E+03  1.29820E+04 -3.44466E+03
  6.23289E+03  7.41235E+03  2.82657E+03  7.58820E+02  3.02789E+02  1.10945E+04 -7.21388E+03  4.28492E+03
