 $NMID ID='MM_0lb_SNR50_17hz_g50_81.RAW', FMTDAT='(8E13.5)'
 TRAMP=1., VOLUME=1. $END
  3.10169E+05  3.82980E+03  3.33211E+05  2.54014E+05  8.07286E+04  3.37271E+05 -1.31615E+05  2.50437E+05
 -1.87960E+05  8.39787E+04 -1.15121E+05 -3.53555E+04  9.87102E+02 -5.06196E+04  5.66094E+04 -4.20124E+03
  3.65420E+04  4.99575E+04 -1.65539E+04  7.43525E+04 -6.41504E+04  6.26847E+04 -8.69337E+04  3.53865E+04
 -7.77082E+04 -1.35113E+04 -5.51623E+04 -4.78654E+04 -1.82365E+04 -6.88227E+04  2.35366E+04 -4.46941E+04
  3.86519E+04  3.64789E+03  1.86583E+04  4.98063E+04 -3.36710E+04  4.63638E+04 -6.79409E+04  2.01753E+02
 -4.94861E+04 -5.56847E+04 -7.84363E+03 -7.42429E+04  3.60258E+04 -5.77663E+04  4.60485E+04 -1.11091E+04
  4.16828E+04  1.32876E+04  3.16005E+04  2.40955E+04  1.78638E+04  2.26238E+04 -6.10712E+03  2.84849E+04
 -2.08923E+04  1.07690E+04 -1.46201E+04 -1.78014E+03  3.37886E+03 -6.93465E+03  1.81693E+04  1.09819E+04
  1.28174E+04  3.27397E+04 -3.16754E+04  3.56568E+04 -6.31413E+04  4.02002E+03 -5.61357E+04 -4.06305E+04
 -1.20105E+04 -5.46987E+04  4.20308E+04 -4.51331E+04  5.51048E+04 -1.07906E+03  2.92813E+04  2.82483E+04
 -7.72870E+03  3.38198E+04 -3.05628E+04  1.31511E+04 -2.80880E+04 -3.29473E+03 -1.39627E+04 -1.05290E+04
 -1.10207E+04 -1.58754E+04  1.69295E+03 -1.71195E+04  8.38609E+03 -2.50510E+04  1.24604E+04 -1.56183E+04
  1.00962E+04  5.09428E+03 -7.03271E+03  1.27188E+04 -2.02593E+04  2.18266E+01 -1.28117E+04 -2.95334E+04
  2.21210E+04 -4.10120E+04  4.84080E+04 -2.18514E+04  4.22608E+04  1.55934E+04  1.68303E+04  4.24875E+04
 -1.56341E+04  3.28648E+04 -2.89862E+04  8.84389E+03 -1.11153E+04 -2.84124E+04  2.12561E+04 -3.22074E+04
  3.63743E+04 -1.07113E+04  3.57307E+04  2.64313E+04  1.56749E+04  4.39134E+04 -5.64520E+03  4.72629E+04
 -2.92760E+04  2.73966E+04 -3.74231E+04  7.66024E+03 -3.58356E+04 -1.31933E+04 -2.10039E+04 -3.79978E+04
  1.12368E+04 -3.46048E+04  3.13134E+04 -1.11275E+04  3.10366E+04  9.22116E+03  1.31400E+03  1.56719E+04
 -8.54917E+03  9.56966E+03 -8.92138E+03 -3.82971E+03  5.76840E+03 -7.91350E+03  1.78515E+04  5.49308E+03
  1.42924E+04  2.60598E+04 -5.35847E+03  2.48032E+04 -2.17017E+04  1.11421E+04 -2.54079E+04 -1.52582E+03
 -1.77512E+04 -2.29031E+04 -5.71972E+03 -1.54717E+04  3.00775E+03 -1.91691E+04  1.72319E+04 -1.45946E+04
  2.42629E+04 -9.23506E+03  2.91455E+04 -1.25507E+03  2.12524E+04  1.90272E+04  6.50401E+03  3.35226E+04
 -1.16943E+04  2.84637E+04 -2.79251E+04  9.65895E+03 -1.93098E+04 -4.32818E+03 -1.68604E+03 -1.23918E+04
  2.79668E+03 -2.71498E+03 -2.83517E+03  8.24889E+03 -1.18405E+04  5.67474E+03 -1.51172E+04 -5.29653E+03
 -6.79683E+03 -1.75170E+04  6.38543E+03 -2.13908E+04  1.40684E+04 -1.30304E+04  1.59072E+04 -2.66492E+03
  5.72689E+03  1.09712E+04  1.83559E+03  1.76087E+04 -1.23596E+04  9.85439E+03 -1.62350E+04 -5.40700E+03
 -1.24177E+04 -1.71659E+04 -2.96951E+03 -1.93187E+04  1.26115E+04 -1.49618E+04  1.61724E+04 -7.59195E+03
  1.48946E+04 -2.16582E+03  7.98172E+03  3.60250E+03  2.81551E+03 -6.08995E+03  6.77616E+03 -7.64707E+02
  1.50016E+04  2.71723E+03  1.51893E+04  1.41062E+04  7.77089E+03  3.29523E+04 -6.48889E+02  2.92353E+04
 -1.56191E+04  2.26067E+04 -2.73525E+04  1.07364E+04 -2.95031E+04 -9.70548E+02 -2.39098E+04 -1.48059E+04
 -1.22645E+04 -2.63770E+04  6.81384E+03 -2.01487E+04  2.41926E+04 -1.26284E+04  1.35814E+04 -1.27967E+03
  8.78901E+03  9.74350E+03 -7.31578E+03  1.00013E+04 -1.31528E+04 -7.63807E+02 -1.15928E+04 -5.31794E+03
 -4.61119E+03 -1.52881E+04  8.84747E+03 -1.17600E+04  6.77596E+03 -2.97796E+03  2.59912E+03  9.96545E+03
 -4.82686E+03  4.27635E+03 -3.73774E+03 -7.44248E+03  2.49549E+03 -1.23314E+04  8.78252E+03 -1.52800E+04
  1.27850E+04 -5.73491E+03  1.61051E+04  1.25747E+03  1.12520E+04  9.74869E+03  5.06746E+03  1.89661E+04
 -3.83803E+03  1.66876E+04 -1.65760E+04  1.23048E+04 -1.13432E+04  7.43063E+02 -1.08657E+04 -1.54081E+02
 -4.41040E+03 -4.57976E+03 -9.43629E+01 -1.04711E+03 -3.94530E+03 -5.89808E+02 -3.32764E+03  2.98673E+03
 -9.73380E+03 -6.61772E+03 -8.55091E+03 -6.93106E+03 -2.53780E+03 -1.69617E+04  2.27568E+03 -5.63435E+03
  1.17392E+04 -2.77073E+03  4.95995E+03  4.49815E+03  2.30339E+02  3.85387E+03 -3.60519E+03 -2.97731E+03
 -7.18265E+03 -1.02669E+04 -2.62734E+03 -5.11532E+03  6.27329E+03 -1.13669E+04  5.75611E+03 -5.05228E+03
  1.50456E+04 -6.44465E+02  1.04065E+04  3.66462E+03  2.94863E+03  7.36702E+03 -8.36783E+03  1.34820E+04
 -6.61285E+03 -3.73637E+02 -5.28705E+03 -2.32790E+03 -1.86484E+02 -3.18533E+03  3.03394E+03 -2.78926E+03
  2.32839E+03  4.34079E+03  2.78115E+03  5.14357E+03 -5.88047E+03  8.20983E+03 -1.01506E+04  3.83885E+03
 -5.49168E+03 -5.47640E+03  5.95981E+03 -5.02299E+03  3.34879E+02 -5.77151E+03  1.84456E+03  5.34745E+03
 -5.39773E+02  6.82428E+03 -8.27385E+03  5.93225E+03 -5.39835E+03 -2.76431E+03 -7.63150E+03 -2.98204E+03
 -4.73188E+03 -5.11299E+03  7.74387E+02 -9.22013E+03  4.05891E+03 -6.77910E+03  8.57545E+03  7.16890E+02
  5.49267E+03  6.45059E+03 -3.05324E+03  1.61110E+03 -7.63531E+03  6.87900E+03 -8.91368E+03  2.49041E+03
 -7.04469E+03 -5.25047E+03 -1.00031E+03 -7.39814E+03  2.80708E+03 -3.84948E+03  2.50882E+03 -4.33541E+03
  1.37083E+02  1.22728E+03 -1.42717E+03  2.39451E+03  4.42766E+03 -5.58204E+02 -1.24864E+03 -2.91831E+03
  6.37715E+03  2.26556E+03  5.37341E+03  1.41833E+03  1.81632E+03  7.02412E+03  8.64463E+03  8.00315E+03
 -3.44115E+03  1.12674E+04 -6.05092E+03  1.19474E+04 -1.13705E+04  2.74960E+03 -1.14930E+04 -1.82922E+03
 -5.02551E+03 -6.22642E+03 -4.02332E+03 -1.13344E+04  5.68264E+03 -8.67490E+03  1.50566E+03  1.00406E+03
 -3.49339E+03 -5.22516E+03  5.37786E+03 -7.44725E+02  3.85488E+03  1.40531E+02  2.48084E+03 -3.83716E+03
  2.67911E+03  1.04354E+03 -9.21948E+02  5.24783E+03 -3.58427E+03  7.49621E+03 -1.01494E+02  3.10627E+03
 -3.53463E+03  9.40288E-01 -5.26310E+03 -3.33960E+03 -1.99107E+03 -5.08383E+03  3.00251E+03 -4.37053E+03
  5.46317E+03 -3.59431E+03  7.48389E+03 -2.97780E+03  4.06490E+03  6.13169E+03  2.15772E+03  4.11443E+03
 -2.69839E+03  7.90749E+03 -6.37896E+03 -7.15942E+01 -3.95030E+03 -9.32418E+02  9.03995E+01  2.00714E+03
 -1.02930E+03  1.43547E+03 -2.01632E+03  4.10680E+03 -5.98116E+03 -1.13505E+02 -3.57772E+03 -2.18079E+03
 -5.45772E+03 -2.46713E+03 -1.19956E+03 -3.63207E+03  4.29016E+03 -6.28251E+03  5.35472E+03 -3.80590E+03
  4.06866E+03  4.80331E+02  2.70764E+03  4.86942E+03 -1.19772E+03  5.57399E+03 -3.87626E+03  2.81651E+02
 -3.46168E+03 -5.63746E+02 -3.18639E+03 -3.27272E+03  2.13051E+03 -5.67400E+03  4.56465E+03 -7.41163E+02
  2.88778E+03 -7.58887E+02  6.70271E+02 -4.00881E+03  3.41161E+03 -1.95012E+03  3.07101E+03 -2.24309E+03
  4.64723E+03  2.67857E+03  1.61856E+03  8.82834E+02  2.63625E+03  2.62690E+03  2.84820E+02  1.42217E+03
 -2.28830E+03  5.31043E+03 -3.57599E+03  5.82001E+03 -2.84643E+03  2.63151E+03 -4.21567E+03 -4.57904E+03
 -2.84411E+03 -3.32817E+03  2.36279E+03 -7.65756E+03  4.67309E+03 -5.44784E+03  4.55993E+03 -1.55060E+03
  2.98964E+03  5.39682E+03 -3.07949E+03 -3.84596E+01 -9.62938E+02  2.17259E+03 -6.91521E+03  1.53732E+02
 -4.87411E+02 -3.64889E+03  3.54548E+02  1.12950E+03  5.91941E+02 -2.13816E+02  3.15709E+03 -8.09410E+02
  2.19562E+03  1.38709E+03 -4.64214E+02  1.43951E+03  3.53598E+02  3.85914E+03 -4.53516E+02 -8.47456E+02
  6.44040E+03 -2.80467E+03  3.22498E+03 -5.67446E+02  2.97924E+02  9.40237E+03 -4.76267E+03  1.04193E+03
 -4.16719E+03  3.19326E+02  2.09206E+03  3.01657E+02 -5.12345E+02  2.89727E+03  2.06698E+03 -7.62883E+02
  3.34805E+02 -4.38160E+03 -1.67589E+03 -3.22872E+03  6.27940E+02  1.73406E+03 -4.74353E+03  3.82756E+03
  1.14930E+02  8.86534E+02  1.09286E+03  5.88326E+02 -1.68488E+03 -2.73138E+03  3.99311E+02 -2.24384E+03
 -1.41592E+02 -4.56632E+03  3.36192E+03 -4.24030E+03  5.65425E+03 -4.28093E+00 -5.24032E+02  3.57476E+03
  2.25597E+00 -2.52325E+02 -4.00847E+03 -2.70446E+03  2.07271E+03 -4.13102E+03  9.28938E+02  7.54967E+02
  9.43178E+02 -6.19199E+03  5.08714E+03  9.51989E+02 -4.18560E+03 -3.49805E+02  3.55787E+02  2.47473E+03
 -1.13812E+03  1.81207E+03  5.93463E+02 -2.33497E+03 -2.53663E+03 -1.31152E+03  5.20547E+03  3.99954E+02
 -3.50640E+02 -1.57578E+03  5.87932E+03  2.15208E+03  5.48732E+02 -3.10573E+03 -2.65513E+02  2.47159E+03
 -6.18163E+02  9.29449E+02 -1.83725E+03  2.07997E+03 -1.00949E+03  8.70292E+02 -2.84013E+03  7.96948E+03
 -6.72030E+02  3.42735E+03 -3.30692E+03  8.99348E+02 -1.18409E+03 -4.45290E+03 -2.80784E+03 -1.70894E+03
 -4.98453E+03 -4.57857E+03  3.43273E+02 -4.96743E+03 -1.80135E+03 -3.44398E+03  1.22661E+03 -2.59934E+03
  5.23730E+03  2.06317E+03  2.77938E+03  7.07143E+03 -4.96452E+03  2.43921E+03 -4.43765E+03 -1.40082E+03
  1.55818E+03  5.16759E+03  1.27502E+03 -1.18015E+03 -2.21017E+02 -7.33742E+02  1.38676E+03  7.00497E+02
 -3.21369E+03  6.11780E+03 -2.32716E+03 -8.18596E+02 -3.80338E+03  1.44765E+03 -4.16036E+03 -4.73997E+03
  3.14147E+03  4.38982E+03  9.06596E+02  6.31151E+02 -1.38414E+03 -4.55587E+03 -2.75604E+02  5.40669E+02
 -1.04375E+03  1.38771E+03 -5.47209E+03  2.05771E+03 -1.67345E+03  1.22385E+03  2.44171E+03  1.19479E+03
 -1.27655E+03 -3.41371E+03 -7.55297E+02 -2.23429E+03  3.77738E+03  6.36320E+02 -4.67206E+03  1.32822E+03
  3.55128E+03 -1.59113E+03  2.00985E+03  3.22972E+02  8.12706E+02 -2.91668E+03 -1.69314E+03  4.39718E+03
  4.72723E+03 -1.23296E+03 -1.12458E+03  1.44454E+03 -2.96389E+03  1.43604E+03  4.89007E+02  3.47454E+03
 -2.07844E+03  6.44283E+02  1.63681E+03 -1.24001E+03 -6.93499E+02 -3.23934E+03  5.58408E+03 -3.57226E+03
  2.46672E+02  2.31142E+03  1.14274E+03 -2.41005E+03  7.29042E+02 -2.75564E+03  1.12604E+03  5.64311E+02
  4.29991E+03  4.80203E+03  1.09008E+03 -1.80592E+03 -2.73119E+03  3.00455E+03 -2.30908E+03 -4.42614E+03
  2.20395E+03 -8.67696E+01 -3.38656E+03  1.39888E+03  1.22731E+03  8.44423E+02 -5.04502E+03 -1.99657E+03
  1.79722E+03 -5.86667E+02 -1.95490E+03  2.45870E+03 -1.33409E+03 -2.90721E+03  3.17010E+03 -2.81658E+02
  1.69889E+03 -3.01254E+03  3.05611E+03  9.06623E+02  1.58320E+03  1.08509E+03 -1.52941E+03 -1.52945E+03
