 $NMID ID='MM_0lb_SNR50_10hz_g50_17.RAW', FMTDAT='(8E13.5)'
 TRAMP=1., VOLUME=1. $END
  3.07827E+05 -2.84605E+03  3.44185E+05  2.53463E+05  8.38917E+04  3.40574E+05 -1.34317E+05  2.53618E+05
 -1.91129E+05  8.34776E+04 -1.13009E+05 -3.72710E+04  1.04685E+03 -5.08769E+04  5.78021E+04  1.68524E+03
  3.61615E+04  5.91262E+04 -1.94353E+04  7.43691E+04 -5.90050E+04  5.83536E+04 -8.30000E+04  3.20934E+04
 -7.77775E+04 -8.25303E+03 -5.75285E+04 -5.20470E+04 -1.62618E+04 -7.37350E+04  2.43014E+04 -4.16524E+04
  3.85997E+04  7.73348E+03  1.61782E+04  4.95978E+04 -3.48191E+04  4.49374E+04 -6.79256E+04 -8.37650E+03
 -5.61957E+04 -5.92114E+04 -2.39582E+03 -7.90800E+04  3.77006E+04 -5.83872E+04  4.96085E+04 -1.95951E+04
  3.80446E+04  1.44452E+04  3.28557E+04  2.77835E+04  2.28698E+04  2.90102E+04 -7.09553E+03  2.87186E+04
 -2.00835E+04  1.30866E+04 -2.16147E+04 -3.97678E+03  9.56568E+03 -2.28305E+03  2.99954E+04  1.54492E+04
  5.40591E+03  3.93013E+04 -3.27946E+04  3.88624E+04 -7.00416E+04  8.82452E+02 -5.61925E+04 -4.68112E+04
 -8.77955E+03 -5.58561E+04  4.41862E+04 -4.41012E+04  6.58262E+04 -7.59437E+03  3.64728E+04  3.87671E+04
 -4.70704E+03  3.85676E+04 -2.67444E+04  1.89961E+04 -3.03605E+04 -3.74053E+03 -1.77207E+04 -1.00880E+04
 -1.33048E+04 -1.55032E+04  1.09957E+03 -1.95179E+04  3.74988E+03 -2.09180E+04  1.16067E+04 -1.56139E+04
  5.82355E+03  1.21815E+03 -6.31752E+03  1.08343E+04 -2.52757E+04 -1.17454E+04 -9.67266E+03 -3.96340E+04
  1.74504E+04 -4.49355E+04  5.60401E+04 -1.27623E+04  4.94203E+04  1.80345E+04  1.77821E+04  4.43966E+04
 -2.04874E+04  3.12178E+04 -2.70431E+04  8.84289E+02 -9.67858E+03 -2.88880E+04  2.61810E+04 -3.92046E+04
  4.29934E+04 -7.93927E+03  3.57470E+04  2.61147E+04  2.08919E+04  4.90619E+04 -7.40142E+03  5.56237E+04
 -3.49291E+04  4.17674E+04 -4.48121E+04  5.39718E+03 -5.11817E+04 -1.90243E+04 -2.21230E+04 -4.54429E+04
  7.27044E+03 -4.02277E+04  4.09277E+04 -1.85135E+04  3.09930E+04  1.09263E+04  5.82928E+03  1.54575E+04
 -1.22611E+04  8.55401E+03 -1.05158E+04 -6.13668E+03  9.58680E+03 -1.16571E+04  1.73915E+04  1.10993E+04
  1.49254E+04  2.34494E+04 -4.62342E+02  2.95334E+04 -2.38694E+04  1.14918E+04 -3.25158E+04 -3.46778E+03
 -2.62328E+04 -2.37155E+04 -1.10010E+04 -2.11422E+04  3.36509E+03 -2.32917E+04  1.75210E+04 -2.25912E+04
  3.27902E+04 -1.25029E+04  3.70263E+04  6.51513E+03  3.11331E+04  2.48495E+04  9.56973E+03  3.31229E+04
 -2.25294E+04  2.92604E+04 -2.95337E+04  1.58055E+04 -1.46961E+04 -1.37604E+04 -6.07962E+03 -7.59976E+03
  3.96818E+03 -7.52754E+03 -9.83821E+03  5.44015E+03 -1.90385E+04  5.60300E+03 -1.61630E+04 -1.18538E+04
 -7.48596E+03 -2.88789E+04  2.97791E+03 -2.70204E+04  1.57774E+04 -2.20106E+04  2.26562E+04  3.42290E+03
  1.50113E+04  1.36943E+04 -1.97671E+03  2.37205E+04 -1.26682E+04  1.27719E+04 -1.45056E+04 -2.73702E+03
 -1.35556E+04 -2.19603E+04 -1.91740E+03 -2.46663E+04  1.21621E+04 -2.25583E+04  2.37177E+04 -9.78908E+03
  1.80350E+04  6.49599E+03  2.07007E+04  8.65837E+02  1.14056E+04  7.38620E+02  6.04825E+03 -6.67145E+03
  2.19649E+04  3.19328E+03  2.31507E+04  1.65908E+04  1.49999E+04  3.66357E+04 -6.79662E+03  3.98667E+04
 -2.05663E+04  3.58351E+04 -3.76350E+04  1.95023E+04 -4.21306E+04  2.20765E+03 -4.03846E+04 -2.86548E+04
 -1.54005E+04 -3.84829E+04  1.92797E+04 -2.62136E+04  3.02903E+04 -1.47154E+04  2.40445E+04  4.77570E+03
  2.52034E+03  1.18719E+04 -1.14585E+04  1.35087E+04 -1.79869E+04 -4.15459E+03 -9.56121E+03 -1.68635E+04
  1.61673E+03 -2.79745E+04  1.04094E+04 -1.83915E+04  1.27489E+04 -7.55453E+02  4.74858E+03  9.87978E+03
 -9.99017E+03  3.31859E+03 -8.45908E+03 -1.11288E+03 -2.61319E+03 -1.35182E+04  1.38045E+04 -2.02589E+04
  2.41648E+04 -9.56232E+03  2.44027E+04  4.84520E+03  2.55655E+04  1.82886E+04  6.27326E+03  2.78214E+04
 -5.62719E+03  2.89865E+04 -2.19836E+04  1.73350E+04 -2.79964E+04  7.59876E+02 -1.39682E+04 -6.16854E+03
 -3.18851E+03 -3.64067E+03 -5.70774E+03 -1.80573E+03  8.07272E+02  5.03055E+03 -3.80042E+03  4.52669E+03
 -1.38531E+04  1.39422E+03 -1.76898E+04 -1.44436E+04 -5.58637E+03 -1.33338E+04  2.72458E+03 -1.76431E+04
  1.51536E+04 -8.25405E+03  8.76060E+03  1.10923E+04  1.03221E+03  9.38571E+02 -2.47009E+03 -3.89061E+03
 -1.19433E+04 -8.16183E+03  1.47524E+03 -9.93343E+03  1.12622E+04 -1.33037E+04  2.03640E+04 -7.53769E+03
  2.44475E+04  1.43010E+03  2.06179E+04  1.84067E+04 -2.00642E+02  2.25885E+04 -1.32954E+04  1.70733E+04
 -1.48482E+04  8.33269E+03 -3.39720E+03 -6.39662E+02  2.97388E+03 -3.74979E+03  5.83621E+03 -5.14628E+03
  9.43098E+03  7.82027E+03 -4.06496E+03  1.27473E+04 -2.69792E+03  5.67260E+03 -1.05048E+04  3.54038E+03
 -6.70526E+03 -8.95680E+03  8.97249E+02 -9.14398E+03  5.02470E+03 -1.96140E+03  5.32471E+03  6.56031E+03
  7.90034E+03  1.26396E+04 -6.67434E+03  1.13377E+04 -1.48854E+04  2.14541E+03 -1.15355E+04 -1.70599E+03
 -7.85147E+03 -8.54163E+03  7.31009E+03 -1.44216E+04  1.77761E+04 -1.59123E+04  1.49729E+04  6.28449E+03
  9.88318E+03  1.46475E+04  4.38777E+02  1.53644E+04 -7.25104E+03  1.12629E+04 -1.39791E+04 -2.45414E+03
 -8.89760E+03 -1.41984E+04 -1.18314E+03 -1.24224E+04  7.81959E+03 -9.21958E+03  6.93143E+03  2.13161E+02
  4.61852E+03  3.30249E+03 -7.30154E+03 -5.30744E+01 -1.63788E+02  3.92192E+03  2.94900E+03 -1.19670E+04
  7.30574E+03 -6.05307E+03  1.80612E+04  3.37035E+03  1.85689E+04  1.08733E+04  1.18286E+04  1.49065E+04
 -1.06951E+04  2.37431E+04 -1.41781E+04  1.74449E+04 -2.39961E+04  4.17731E+03 -2.02854E+04 -6.07104E+03
 -7.65616E+03 -1.23945E+04 -2.21222E+03 -1.80195E+04  4.32358E+03 -5.45043E+03  1.34679E+03 -8.01137E+03
  8.66061E+02 -4.57354E+03  1.45592E+03  2.34778E+03  7.86714E+03 -6.74264E+03  3.75419E+03  1.29312E+03
  6.27861E+03  2.13383E+03  9.43372E+03  5.03546E+03 -4.55134E+03  8.81854E+03 -1.08963E+04  7.93571E+03
 -1.41918E+04  6.47816E+02 -1.01695E+04 -6.34344E+03  1.26717E+03 -1.71351E+04  1.09094E+04 -1.78052E+04
  1.37266E+04 -1.05779E+04  1.80286E+04  6.43308E+02  1.79591E+04  1.19315E+04 -1.97138E+03  1.51918E+04
 -7.87807E+03  1.03000E+04 -1.17302E+04  1.08437E+04 -2.52813E+03 -5.17354E+03 -3.58359E+03 -8.74456E+02
  1.63595E+03 -8.77884E+03 -2.48525E+03 -1.53116E+03 -3.36353E+03 -4.85477E+02 -7.14648E+03 -2.07517E+02
 -4.29369E+03 -8.99958E+03 -1.42027E+03 -1.33277E+04  2.83993E+03 -1.14855E+04  1.18138E+04 -6.02724E+03
  1.76274E+04  4.64776E+03  8.32957E+03  1.43228E+04 -5.97663E+03  1.35966E+04 -8.66544E+03  1.01198E+04
 -1.47470E+04 -3.46917E+02 -1.39509E+04 -9.71042E+03 -4.30217E+02 -1.31834E+04  8.49353E+03 -9.05221E+03
  1.09274E+04 -1.45147E+03  3.41525E+03  4.84245E+02 -1.83332E+03  7.32756E+03  4.42261E+03  9.11202E+02
  6.21755E+03 -5.23014E+03  8.94838E+03 -3.12081E+03  4.29139E+03 -2.02736E+03  4.93419E+03  8.16428E+03
  2.41719E+03  1.32439E+04 -1.15497E+04  6.40070E+03 -1.11373E+04  4.93152E+03 -2.11104E+04 -3.33534E+03
 -3.76230E+03 -1.41090E+04  1.97566E+03 -1.44255E+04  3.33082E+03 -7.54773E+03  8.40184E+03 -1.05937E+04
  9.25898E+03  3.20673E+03  7.75558E+02  3.39273E+03 -3.92501E+03  4.41727E+03 -4.38566E+03 -4.38309E+03
 -3.80809E+03 -5.20097E+03  4.60030E+03 -4.07168E+03  3.92129E+03 -5.72847E+03  6.57461E+03  3.77477E+02
  2.14430E+02  6.16224E+03  6.09305E+02 -3.77968E+03 -4.36617E+02  1.74846E+03  1.52394E+03  3.22831E+03
 -9.98090E+02 -4.61585E+03  1.82944E+03  3.10794E+02  5.54068E+03  6.68563E+03  1.01858E+03  8.31909E+03
 -4.18377E+03  4.67272E+03  7.44780E+02 -1.62710E+03 -1.07621E+04 -4.86829E+03 -2.84813E+03 -7.53862E+03
 -1.06172E+03 -5.56847E+03  1.00026E+04 -3.14893E+03  7.02184E+03  9.47111E+01 -3.22043E+02  1.79748E+03
 -2.41649E+03  6.10843E+03 -5.62203E+03 -2.31998E+03 -3.43452E+03 -7.10213E+03  4.24579E+02 -1.23534E+04
  3.24281E+03  9.64446E+02  2.33603E+03  1.95391E+03  9.01369E+03  1.15092E+03  2.09397E+03  4.70854E+03
 -4.81075E+03  2.60490E+03  6.68829E+03  1.33560E+03 -3.12975E+03 -3.54012E+03  6.82726E+03  1.83413E+03
  1.28330E+04  2.72848E+02  6.16502E+03  4.39686E+03  4.30055E+03  2.52894E+03 -5.39207E+03  9.82535E+03
 -8.22175E+03  5.56121E+03 -8.29967E+03  2.65097E+03  2.30195E+03 -6.21587E+03 -2.31190E+03  2.89824E+03
  9.87646E+03 -5.31624E+03  4.09882E+03 -3.07367E+03  3.90029E+03  2.86961E+03 -9.80144E+01  4.56051E+03
 -2.64761E+03  3.12823E+03 -9.11208E+03  8.87174E+02 -1.55610E+03  5.67889E+03 -1.93453E+03  5.04634E+03
 -2.35213E+03  4.98423E+03 -3.07818E+03  4.27601E+03 -7.55229E+03  3.45668E+03 -1.11799E+04 -1.02926E+04
 -5.01304E+03 -1.45372E+04 -4.35205E+02 -1.41278E+04  2.44317E+03 -1.10032E+04  1.72964E+04 -6.21240E+03
  8.34811E+03  7.64410E+03  1.10365E+04  4.59788E+03  1.08896E+03  6.88545E+03  1.76325E+03  6.87215E+03
 -6.16341E+03  7.63920E+03 -4.65021E+03  2.39623E+02 -4.51636E+03 -5.07025E+03 -8.99212E+02  6.77833E+03
 -4.64587E+03 -2.58343E+01 -4.73000E+03  6.71527E+02  4.91471E+03 -1.39665E+03  7.63392E+02 -5.70460E+03
  8.94473E+03 -8.21424E+03  2.30142E+03 -4.30503E+03  6.33526E+03  1.87632E+03 -2.38184E+02  1.58691E+04
 -3.90135E+03  1.20811E+04 -1.46508E+04  7.23887E+03 -1.46087E+04 -7.45153E+02 -5.16200E+03 -9.20304E+03
 -3.18330E+03 -9.34177E+03  2.46115E+03 -6.69009E+03  9.15889E+03 -4.70231E+03  1.21249E+03  2.73591E+03
  7.80488E+03  8.01999E+03 -3.68026E+03  3.23710E+03 -2.11229E+03 -3.02995E+03 -2.08224E+03  4.78726E+03
 -3.12077E+03  4.30509E+02  1.31128E+03  4.90305E+02  2.37279E+03  2.20047E+03 -1.87991E+03  5.20659E+03
 -1.45767E+03  8.85244E+03 -7.92684E+03  5.18841E+03 -1.03990E+04 -3.68181E+03 -1.04930E+03 -8.28009E+03
  3.37141E+03 -6.52146E+03  5.18606E+03 -5.48897E+03  1.06154E+04  3.19908E+03  4.58640E+03  9.50772E+03
 -2.31027E+02  7.00866E+03 -1.35103E+02  5.19185E+02 -4.02179E+03 -5.71053E+02 -1.02420E+03 -1.34924E+03
 -4.29929E+03 -2.56558E+02 -2.45369E+03 -6.18623E+02 -4.43269E+03 -1.36602E+03 -4.74004E+03 -7.14458E+03
 -1.10451E+03 -1.32867E+03 -7.16895E+03 -3.57647E+03 -5.44401E+02 -7.92665E+03  1.03043E+04 -3.28853E+03
  5.69862E+03  4.64362E+02 -3.98518E+02  4.98416E+03  2.07569E+03 -6.77199E+02 -1.80599E+03  3.65155E+03
