 $NMID ID='MM_0lb_SNR50_16hz_g55_35.RAW', FMTDAT='(8E13.5)'
 TRAMP=1., VOLUME=1. $END
  3.05012E+05 -3.68997E+02  3.41168E+05  2.48129E+05  8.83420E+04  3.41162E+05 -1.28276E+05  2.53016E+05
 -1.88852E+05  8.33091E+04 -1.11302E+05 -2.89377E+04  1.96419E+03 -4.95213E+04  5.28458E+04  6.11089E+02
  3.35810E+04  5.57388E+04 -1.91379E+04  7.88009E+04 -5.83426E+04  6.47479E+04 -7.99863E+04  3.44504E+04
 -8.37169E+04 -8.73177E+03 -6.00801E+04 -5.51375E+04 -1.59651E+04 -7.06578E+04  3.18048E+04 -4.49526E+04
  4.15459E+04  3.88466E+03  1.19690E+04  4.92179E+04 -3.01721E+04  4.86145E+04 -6.80399E+04  1.17490E+02
 -5.41967E+04 -5.70741E+04 -3.07722E+03 -7.35649E+04  3.70728E+04 -5.42383E+04  4.65125E+04 -1.58902E+04
  4.02075E+04  4.84134E+03  2.69086E+04  2.90136E+04  1.26714E+04  2.85021E+04 -5.29670E+03  2.75855E+04
 -2.53197E+04  1.35039E+04 -1.86363E+04 -5.07673E+03  8.41007E+03 -1.51894E+04  2.34063E+04  9.95111E+03
  9.97215E+03  3.80230E+04 -2.73327E+04  3.34517E+04 -6.05734E+04  2.14113E+02 -5.62276E+04 -4.23000E+04
 -1.36212E+04 -6.10164E+04  4.09745E+04 -4.60980E+04  5.84759E+04 -5.10310E+03  3.79287E+04  3.76782E+04
 -8.77460E+03  3.09431E+04 -2.97672E+04  1.44871E+04 -2.76062E+04 -4.37608E+03 -1.20240E+04 -1.06941E+04
 -7.91174E+03 -1.35007E+04 -5.81274E+02 -1.58455E+04  3.21736E+03 -2.30888E+04  1.51597E+04 -1.45800E+04
  1.17902E+04  1.27381E+04 -1.17293E+04  1.06472E+04 -2.29130E+04 -5.60069E+03 -9.60088E+03 -3.44817E+04
  2.38397E+04 -3.77808E+04  4.73361E+04 -2.23857E+04  4.54851E+04  1.84072E+04  2.05156E+04  3.91340E+04
 -1.71867E+04  3.59559E+04 -2.68512E+04  5.10986E+02 -1.12503E+04 -2.30183E+04  1.56142E+04 -3.11999E+04
  4.05650E+04 -1.03043E+04  3.59907E+04  2.71233E+04  1.94271E+04  4.36443E+04 -1.55282E+04  4.88537E+04
 -3.24105E+04  3.67909E+04 -3.62957E+04  9.50048E+03 -4.07413E+04 -1.81597E+04 -2.24490E+04 -4.18620E+04
  7.17561E+03 -4.21955E+04  3.02081E+04 -1.36859E+04  3.12066E+04  8.28412E+03  6.01325E+03  1.94553E+04
 -1.76743E+04  8.39789E+03 -1.40384E+04 -1.14151E+04  8.49107E+03 -9.30215E+03  1.51482E+04  4.81961E+03
  1.97487E+04  1.81478E+04 -6.12641E+03  2.62795E+04 -2.39932E+04  1.01079E+04 -2.66007E+04 -6.62690E+03
 -2.34922E+04 -1.66651E+04 -9.02034E+03 -2.05043E+04  3.16126E+03 -2.22821E+04  1.41309E+04 -2.00331E+04
  2.47100E+04 -1.48558E+04  2.95005E+04  2.17451E+03  2.63083E+04  1.65210E+04 -2.98993E+02  3.38523E+04
 -1.63897E+04  3.08059E+04 -2.55554E+04  1.26341E+04 -2.17729E+04 -1.07671E+04 -5.00684E+03 -1.11188E+04
  1.06410E+03 -2.78462E+03 -7.67714E+03  1.88711E+03 -1.67664E+04 -1.00984E+02 -1.34981E+04 -4.60653E+03
 -1.34699E+04 -1.66516E+04  4.06278E+03 -2.13201E+04  1.26556E+04 -1.97592E+04  1.82126E+04  9.26869E+02
  1.38180E+04  1.13863E+04  3.19074E+03  2.13365E+04 -1.11282E+04  9.01072E+03 -1.66018E+04 -2.12901E+03
 -1.49584E+04 -1.95401E+04 -3.16755E+03 -1.75864E+04  1.00410E+04 -2.01009E+04  1.42497E+04 -1.12353E+04
  1.69321E+04  1.29385E+03  6.40778E+03  5.26877E+03  8.56592E+03  3.46146E+03  5.27457E+03 -5.23133E+03
  1.86281E+04  5.74803E+02  1.63979E+04  1.47018E+04  1.40501E+04  3.05704E+04 -5.61092E+03  3.35695E+04
 -2.09542E+04  2.89330E+04 -3.33082E+04  1.35485E+04 -3.25411E+04 -3.40015E+02 -2.46497E+04 -1.88155E+04
 -1.17756E+04 -2.44110E+04  1.12201E+04 -2.36542E+04  2.21212E+04 -1.42819E+04  2.08498E+04  5.57048E+03
  3.73517E+03  1.14618E+04 -8.78994E+03  1.29245E+04 -1.19113E+04  4.77231E+02 -1.41753E+04 -1.06311E+04
 -4.67496E+03 -9.02327E+03  9.79969E+03 -5.88159E+03  7.40720E+03 -1.20851E+03 -1.78766E+03  6.21572E+03
 -6.28044E+03 -3.18264E+01 -6.48757E+03 -8.66971E+03  8.32524E+02 -1.26736E+04  7.94175E+03 -1.42977E+04
  2.16956E+04 -5.67362E+03  1.58759E+04  3.16178E+03  1.55547E+04  7.94521E+03  8.55555E+03  1.61945E+04
 -4.61719E+03  2.31113E+04 -9.31293E+03  1.50606E+04 -1.62333E+04  3.34922E+03 -1.42270E+04 -4.53459E+03
 -6.31877E+03 -3.35473E+03 -2.64506E+03  1.82259E+03 -3.83518E+03  4.49008E+03 -5.65838E+03  3.93299E+03
 -1.23749E+04 -1.23006E+03 -9.76364E+03 -3.06096E+03 -7.27315E+03 -1.67711E+04  6.59090E+03 -8.37205E+03
  9.24071E+03 -3.01249E+03  9.36774E+03  4.08011E+03  4.41847E+01  7.14826E+03 -5.54122E+02 -4.42488E+03
 -4.82250E+03 -8.61547E+03 -4.11254E+03 -9.56597E+03  1.92967E+03 -9.47598E+03  1.11288E+04 -3.49962E+03
  1.39372E+04 -2.83496E+03  1.45950E+04  8.55247E+03  7.98168E+02  1.37976E+04 -9.33877E+03  9.56186E+03
 -1.15766E+04  4.32164E+03 -4.70642E+03 -4.57237E+03  2.66385E+03 -4.22994E+03  6.93846E+03  1.10293E+03
  4.76434E+03  7.09046E+03 -2.51751E+03  9.64359E+03 -7.85849E+03  7.77152E+03 -8.49160E+03 -1.65087E+03
 -7.11886E+03 -1.25173E+03 -7.69479E+02 -1.02127E+04  5.28065E+03 -2.61232E+03  1.84585E+03  1.46153E+03
  1.72756E+03  5.13561E+03 -5.12833E+03  2.31401E+03 -9.00352E+03  6.14309E+03 -7.51657E+03 -4.29190E+03
 -6.19760E+03 -1.01271E+04  6.63407E+03 -1.06884E+04  8.22113E+03 -3.52310E+03  6.38954E+03  6.12426E+03
  8.82054E+03  1.13895E+04 -3.95119E+02  9.83018E+03 -9.81559E+03  7.37414E+03 -2.66141E+03 -1.99804E+03
 -2.59666E+03 -8.68667E+03 -4.46745E+03 -3.62427E+03  3.27897E+03 -7.70143E+03  3.27869E+03 -4.22491E+03
  3.25599E+03  5.46242E+03 -1.01548E+03  1.41880E+03  3.50479E+03 -3.81541E+03  5.06060E+03 -2.68223E+03
  7.35476E+03 -3.07349E+03  1.08070E+04 -1.54832E+03  1.27678E+04  4.31476E+03  7.30973E+03  1.17485E+04
  8.06983E+02  8.93595E+03 -1.03961E+04  1.13226E+04 -1.07330E+04  8.60937E+02 -1.25708E+04 -3.48844E+02
 -5.76670E+03 -8.69109E+03  1.72971E+03 -1.22669E+04  4.45433E+03 -5.88207E+03  3.31727E+02 -4.38389E+03
  5.15968E+03  2.10375E+03  3.32096E+03 -2.89701E+03  4.90982E+03 -8.72450E+03  9.32596E+02 -2.19305E+03
  2.62990E+03  2.20627E+03  3.05786E+03 -1.18253E+03 -3.23318E+03  5.32787E+03 -6.12407E+03  3.28861E+03
 -4.75873E+03 -2.29529E+03 -5.11192E+03 -4.86467E+03  2.32284E+03 -7.14206E+03  5.37765E+03 -4.83445E+03
  4.30308E+03 -8.73080E+03  1.19067E+04 -3.07120E+03  1.00556E+04  8.35348E+03  5.56956E+02  1.19936E+04
 -5.03105E+03  1.00886E+04 -2.85039E+03  9.08984E+03 -5.23594E+03 -3.28196E+03 -3.66636E+03  3.21804E+03
  2.31178E+03 -9.34831E+02 -1.06069E+03  1.85600E+03 -1.65275E+03  2.10155E+03 -5.10793E+03  1.49022E+03
 -1.70583E+03 -8.90247E+03  4.14678E+01 -2.82072E+03  4.58515E+03 -8.46469E+03  5.86016E+03 -9.42571E+02
  7.56147E+03  5.43193E+03  4.05548E+02  6.85594E+03  5.41160E+02  8.38958E+03 -3.34792E+03  3.62715E+02
 -1.12500E+03 -3.44576E+03 -5.69992E+02 -5.21140E+03 -5.17406E+02 -6.10675E+03  1.87846E+03 -3.60459E+03
  1.19360E+03  8.68888E+02  7.78631E+03  6.89584E+01  3.23349E+01  6.30415E+03 -2.36496E+03  9.38100E+02
  2.69372E+03 -1.87783E+03  2.57573E+03  1.69944E+03 -7.48499E+02  3.52288E+03  5.12870E+03  3.72158E+03
 -3.82617E+03  3.13937E+03 -5.58406E+03  8.08457E+03 -6.14139E+03  1.39502E+03 -5.51406E+02 -4.52722E+03
 -1.39695E+03 -7.77900E+03  1.99724E+03 -7.65126E+03 -5.78640E+02 -3.83382E+03  4.80822E+03  9.63347E+02
  8.42379E+03  3.29593E+03  3.38879E+03  4.77652E+03  5.74066E+02  2.02992E+03 -6.20331E+03  2.78875E+02
  1.51149E+03 -2.08058E+03  3.93798E+03 -1.38567E+02  2.83656E+03  5.49405E+02 -1.33563E+03  3.22315E+02
 -2.32058E+03  8.10036E+02  9.14531E+02  2.15571E+03 -2.18623E+03  3.36422E+03  1.03470E+03 -2.44357E+03
 -9.49379E+01 -1.86816E+02  4.89913E+03  3.89289E+03  3.12755E+03  4.49190E+03 -2.06926E+03  5.55891E+03
 -3.54906E+03  1.34911E+03 -3.42710E+03 -7.18489E+03 -7.46820E+02 -3.69227E+03 -5.41183E+01  6.30905E+01
  5.48492E+02  6.92587E+02  4.41964E+03 -1.64078E+03  9.66381E+02  7.66043E+02  2.01406E+03  3.83156E+03
 -5.62907E+03  2.21631E+03 -3.61291E+03  1.36714E+02 -2.09858E+03 -2.50995E+02  4.93108E+03 -2.97059E+03
  3.95692E+03 -6.70840E+02  4.81306E+03  4.17423E+03  4.33861E+03  3.43159E+03  1.81630E+03  1.91264E+03
  9.00516E+02 -2.23949E+03 -1.12312E+03 -2.42596E+03  1.86155E+03 -6.96220E+03  4.08015E+03  3.37364E+02
 -1.12355E+03  1.49058E+02  4.53345E+03  6.00600E+03  6.19734E+03  6.61034E+03 -3.12364E+03  7.31938E+03
 -2.89681E+03 -2.53263E+03 -7.10221E+03 -1.44225E+03  1.62624E+02  1.75948E+03  2.16060E+03  9.50726E+02
  7.24212E+02 -3.97296E+03 -1.49897E+03  4.87525E+03 -2.94996E+03  4.05208E+03 -1.67181E+03  3.91542E+03
 -3.18420E+03  5.05715E+03 -1.00829E+03 -2.02842E+03  1.09040E+03  2.15432E+03  3.38650E+02  1.29407E+03
  1.48257E+03  5.83648E+03 -1.86873E+03 -2.22266E+03 -1.86022E+03 -2.53045E+03 -5.13731E+02  7.80724E+02
 -6.24740E+03 -8.82182E+03 -1.18427E+03 -3.94860E+03  5.29498E+03 -5.15207E+03 -4.55860E+02 -3.95559E+02
  4.73257E+03 -1.89735E+03  5.51881E+02  5.07781E+03 -9.71926E+02  3.31387E+03 -2.92963E+03  2.56504E+03
 -2.37363E+03  2.93343E+02 -1.12151E+03  1.05898E+02  3.07482E+03 -2.29684E+03 -1.24837E+03 -5.53331E+03
 -3.37050E+03  6.32041E+03  4.71759E+02  2.46303E+03  6.90500E+03  6.25408E+02  8.96754E+02 -2.16421E+02
  9.52082E+02 -7.89129E+02  7.01509E+03  9.59241E+03  1.04277E+03  1.58690E+03 -3.18379E+02  2.79897E+03
 -5.52123E+03  3.00558E+03 -6.79933E+03  7.72633E+02 -4.58578E+03  2.30213E+03 -3.74323E+02 -8.91791E+02
 -7.78067E+02 -2.83388E+03  1.29990E+03 -6.49733E+03 -1.27980E+02  1.88853E+03  1.46023E+03 -1.87124E+02
  1.94361E+03  7.61443E+02 -4.91106E+03  3.05089E+03 -9.21006E+01  7.85076E+01  3.50949E+03 -7.61565E+02
  1.84840E+03  3.90699E+02 -2.43450E+02  1.94251E+03  1.15976E+03  1.21815E+03 -4.36398E+03  2.83595E+02
 -9.40435E+02 -6.41065E+02  2.11350E+03 -3.50610E+03 -4.64633E+03 -6.69634E+03  3.44974E+03 -1.60344E+03
  2.56233E+03 -7.99455E+02 -1.75493E+03  7.21064E+02  5.99181E+03 -2.26605E+03  3.50079E+03  1.74739E+03
 -1.26495E+03 -6.29623E+02  2.84132E+03  5.24742E+02 -2.45904E+03  1.06769E+03  1.71833E+02 -2.37788E+03
  3.60977E+03  4.92947E+03 -3.37964E+03  4.81964E+03 -3.50322E+02  1.46044E+03  1.34515E+03 -4.19446E+03
 -2.74534E+01  5.77281E+02 -1.52819E+03  1.20898E+03  3.57016E+03 -8.10406E+02  1.43703E+03  3.31216E+02
  1.60146E+03  2.85595E+03  4.11300E+03 -8.23075E+02  2.28451E+03 -4.32817E+03  2.19423E+02 -1.54774E+03
