 $NMID ID='MM_0lb_SNR50_17hz_g50_93.RAW', FMTDAT='(8E13.5)'
 TRAMP=1., VOLUME=1. $END
  3.11427E+05 -2.33563E+03  3.42812E+05  2.51377E+05  8.44446E+04  3.33636E+05 -1.32244E+05  2.48610E+05
 -1.92599E+05  8.50006E+04 -1.12202E+05 -3.36002E+04  1.65230E+03 -4.95601E+04  5.31321E+04 -1.24215E+03
  3.47681E+04  5.23014E+04 -1.83696E+04  8.00413E+04 -5.97501E+04  6.32817E+04 -8.32209E+04  3.10939E+04
 -7.99293E+04 -1.33718E+04 -5.13658E+04 -5.23260E+04 -1.17271E+04 -6.77677E+04  2.96477E+04 -4.36812E+04
  4.19686E+04  1.81096E+03  2.06895E+04  4.92980E+04 -2.97656E+04  4.89583E+04 -6.62629E+04 -1.97793E+03
 -5.33228E+04 -5.65366E+04 -7.54981E+03 -7.82499E+04  3.13647E+04 -5.27904E+04  4.94298E+04 -1.60089E+04
  4.57372E+04  5.01822E+03  3.35991E+04  2.43464E+04  1.73437E+04  2.71696E+04 -5.04022E+03  2.81183E+04
 -2.40891E+04  1.36971E+04 -2.01302E+04  3.92796E+02  1.10823E+03 -7.78709E+03  2.35821E+04  1.07924E+04
  5.51254E+03  3.36710E+04 -2.95648E+04  3.36462E+04 -6.50712E+04 -1.00730E+03 -5.33234E+04 -3.66835E+04
 -1.26785E+04 -6.34044E+04  3.81066E+04 -4.86508E+04  5.76574E+04 -2.74967E+03  3.32350E+04  3.24174E+04
 -4.65665E+03  3.06291E+04 -3.27457E+04  1.16300E+04 -2.76362E+04 -5.21085E+03 -1.87741E+04 -9.11740E+03
 -6.67895E+03 -1.50654E+04  2.75214E+03 -2.09260E+04  1.00213E+04 -2.48352E+04  1.30718E+04 -8.42858E+03
  8.91483E+03  7.17288E+02 -4.23387E+03  1.42583E+04 -2.48196E+04 -4.69745E+03 -6.98095E+03 -2.95021E+04
  1.89372E+04 -3.92112E+04  5.09096E+04 -1.94602E+04  4.31343E+04  1.62297E+04  1.75383E+04  4.60070E+04
 -1.71450E+04  3.77458E+04 -2.52648E+04  5.50104E+03 -1.05753E+04 -2.67048E+04  1.46434E+04 -3.34776E+04
  4.27837E+04 -6.64994E+03  3.40824E+04  1.83765E+04  1.44200E+04  4.32624E+04 -1.20322E+04  4.79575E+04
 -2.98169E+04  3.60041E+04 -3.67936E+04  7.29203E+03 -4.09550E+04 -1.55509E+04 -2.37450E+04 -3.46722E+04
  1.10185E+04 -3.78731E+04  3.18259E+04 -1.57736E+04  2.66860E+04  1.07084E+04  4.71014E+03  1.64082E+04
 -1.01041E+04  4.84535E+03 -1.36857E+04 -8.13059E+03  5.93528E+03 -1.11325E+04  1.79716E+04  5.95596E+03
  1.11046E+04  2.47684E+04 -4.55555E+03  2.80333E+04 -2.08160E+04  1.01869E+04 -2.78407E+04 -4.36114E+03
 -1.39701E+04 -2.12249E+04 -9.64282E+03 -1.98223E+04  9.00268E+02 -2.04486E+04  1.50512E+04 -1.89354E+04
  2.21184E+04 -1.04342E+04  2.61113E+04 -2.33012E+02  2.24697E+04  1.38484E+04  3.44368E+03  3.84897E+04
 -2.04420E+04  2.82757E+04 -2.81199E+04  8.51780E+03 -2.04345E+04 -8.05863E+03 -3.15934E+03 -1.64549E+04
  4.21218E+03 -3.99370E+03 -5.85723E+03  6.37201E+03 -1.67782E+04  6.48246E+03 -1.38105E+04 -6.96462E+03
 -5.36388E+03 -2.19093E+04  5.70094E+03 -2.10938E+04  1.06123E+04 -1.49765E+04  1.45031E+04 -5.04394E+02
  5.61631E+03  1.45435E+04  1.19237E+03  1.83761E+04 -1.33577E+04  1.03085E+04 -1.75241E+04  5.95420E+02
 -1.05421E+04 -1.18582E+04 -3.97859E+03 -1.94323E+04  1.14921E+04 -1.71974E+04  1.84826E+04 -1.40131E+03
  1.44313E+04 -2.78016E+03  1.06607E+04  1.67479E+03  5.44145E+03  5.02846E+02  1.13102E+04 -4.17725E+02
  1.31443E+04  1.49430E+03  1.62257E+04  1.43065E+04  1.13640E+04  2.30522E+04 -1.29434E+03  3.20917E+04
 -1.54349E+04  2.39361E+04 -2.89299E+04  1.32472E+04 -2.95116E+04 -3.56734E+03 -2.70898E+04 -1.77516E+04
 -1.19509E+04 -2.16339E+04  9.84110E+03 -2.08479E+04  2.01537E+04 -1.45495E+04  1.84650E+04  1.89137E+03
  7.48680E+03  1.03812E+04 -1.12772E+04  1.33257E+04 -1.37943E+04  1.66524E+03 -1.11603E+04 -9.35937E+03
  3.21466E+03 -1.49832E+04  7.91383E+03 -1.03313E+04  9.80222E+03 -5.93276E+02  1.76119E+03  2.74036E+03
 -6.67556E+03  3.72249E+03 -6.57255E+03 -2.58500E+03 -8.01888E+01 -9.47820E+03  6.47753E+03 -1.10438E+04
  1.55820E+04 -3.83032E+03  9.94281E+03  3.96417E+03  1.16714E+04  1.34894E+04  8.18753E+03  2.04530E+04
 -3.66707E+03  2.10139E+04 -1.20221E+04  1.10668E+04 -4.82612E+03  5.98203E+03 -8.50015E+03 -3.62398E+02
 -3.47429E+03 -5.86251E+03 -1.13623E+03 -3.59755E+02 -4.72823E+03  2.03311E+03 -6.62565E+03  4.93867E+03
 -3.45882E+03  2.02329E+02 -1.21538E+04 -9.25087E+03 -1.20057E+03 -1.07473E+04  5.85985E+03 -6.41267E+03
  4.61545E+03 -3.68464E+03  6.35006E+03  4.18819E+03  1.30248E+03  8.43568E+03 -4.11814E+03  7.99093E+02
 -8.67351E+03 -6.62945E+03 -1.80096E+03 -8.88579E+03  2.00871E+03 -1.37613E+04  1.25035E+04 -3.52117E+03
  1.26202E+04  4.98527E+03  9.53335E+03  3.73697E+03  8.51904E+03  9.51157E+03 -9.01408E+03  1.11737E+04
 -6.28803E+03  7.78771E+02 -2.51982E+03 -1.72161E+02  5.99899E+03 -1.93929E+02  1.23261E+02 -2.01627E+03
  1.79637E+03  3.37447E+03  2.29291E+03  7.47796E+03 -7.01800E+03  1.07379E+04 -8.09118E+03  2.93725E+03
 -5.68315E+03 -6.60878E+03 -6.42498E+02 -5.96444E+03  9.35842E+02 -6.78432E+03  2.48262E+02  1.56809E+03
  5.44972E+03  3.61615E+03 -7.64365E+02  8.78687E+03 -5.98827E+03  3.87438E+03 -4.59497E+03  2.75112E+02
 -7.37073E+03 -2.08441E+03  8.59852E+03 -6.15057E+03  1.00099E+04 -5.46698E+03  5.61021E+03 -2.26690E+03
  3.50862E+03  6.96450E+03  6.97293E+02  9.07889E+03 -7.85154E+03  4.17425E+03 -1.22583E+04 -2.22271E+03
 -5.48655E+03 -8.63077E+03  7.69111E+02 -2.60277E+03  4.05569E+03 -5.76491E+03  3.72889E+03 -2.73904E+03
  8.29825E+03  2.49890E+03  2.57562E+03  3.83092E+02  2.83794E+03 -5.71198E+03 -1.46089E+02 -2.46007E+03
  7.35479E+03 -6.34816E+03  5.69632E+03  3.76482E+03  3.35868E+03  1.36488E+03  9.63214E+03  1.01683E+04
  2.02640E+03  1.11968E+04 -6.13167E+03  8.97253E+03 -1.05528E+04  1.05525E+02 -6.49002E+03 -5.06958E+03
 -1.36356E+04 -7.50779E+03 -1.47140E+03 -4.17371E+03  2.82915E+03 -9.72254E+02 -7.29532E+02  7.93124E+02
  3.25196E+03 -5.04531E+02  3.48541E+03 -1.43506E+03  6.52911E+03 -2.02484E+02  6.79220E+03 -1.06770E+03
  4.27702E+03  7.15709E+02  1.70650E+03  3.69350E+03 -3.82921E+03  2.06338E+03 -5.81444E+03  3.59385E+03
  9.02432E+02 -3.97687E+02 -3.30407E+03 -1.41979E+03  2.11982E+03 -6.76188E+03  5.09274E+03 -6.09321E+03
  2.24057E+03 -3.09456E+03  1.05281E+04  1.51089E+03  1.14818E+04  7.24221E+03  4.51903E+01  8.70404E+03
 -2.31870E+03  6.26090E+03 -5.10058E+03 -7.40004E+02 -5.27195E+03 -2.53114E+03  1.00256E+02 -6.51521E+02
 -4.63015E+02  1.14972E+03  1.39827E+03  7.91902E+03 -1.63881E+03 -5.56679E+02 -3.00595E+03  8.51416E+02
 -5.21534E+03 -4.72901E+03 -1.67604E+03 -2.93466E+03  1.26094E+03 -1.03083E+04  3.72733E+03  3.29338E+03
  1.21128E+04  3.12574E+02  3.41732E+03 -7.62857E+02 -1.92559E+03  6.54340E+03 -2.63463E+03  4.66764E+03
 -3.28949E+03  2.46947E+03 -4.27286E+03 -3.85596E+03  2.31762E+03 -6.28702E+03 -2.61407E+03 -5.92118E+02
  2.12979E+02 -4.69600E+02  1.91621E+03 -5.13324E+02  7.78442E+02 -6.67628E+02  1.65628E+03 -1.68440E+01
  1.72355E+02  2.13100E+03  1.51245E+03  4.89452E+03  9.62727E+02 -1.97190E+01  3.88668E+03  3.34765E+03
 -2.16363E+03  5.13238E+03 -3.06406E+03  7.45690E+03 -2.03257E+03  3.72605E+03 -7.87392E+03  1.62206E+03
 -8.25739E+02 -8.11952E+03  3.27008E+03 -9.86741E+03  3.71989E+03 -1.94690E+03  6.46721E+03 -3.51385E+03
  5.35129E+03  3.55036E+03 -2.53761E+03  4.60854E+03  8.57562E+02  3.44151E+03  3.06238E+03 -1.40329E+02
  1.52122E+03 -2.18481E+03  1.23080E+03 -4.35727E+03  2.03412E+03 -2.33424E+03  1.21167E+03  1.12620E+03
  4.00221E+03 -2.77114E+03 -3.21589E+03  4.47987E+01 -4.26000E+02 -1.39655E+03 -3.63724E+03 -2.14829E+03
  1.02840E+03  3.65716E+02  1.66936E+03 -5.86886E+02  1.88098E+03  1.71647E+03  1.48693E+03  1.83845E+03
 -3.70363E+03 -5.41576E+02 -4.50593E+03  1.79241E+03 -5.06686E+03 -4.19549E+02  3.08114E+03  1.84408E+02
  5.58060E+03  2.42955E+03  3.43284E+03  1.50178E+03 -8.43280E+02  2.90874E+01  2.88933E+03 -1.09138E+03
 -1.56094E+03 -4.44447E+02 -4.53357E+03 -5.96658E+02  1.50348E+03 -6.95855E+02 -3.56017E+03 -4.92032E+02
  1.26015E+03  2.41214E+03  7.48812E+02 -3.57497E+03  9.02467E+02 -2.71026E+03 -1.87723E+03 -1.46417E+03
  3.88113E+03  1.75335E+03 -3.56222E+03 -5.44650E+03 -1.85212E+03  2.27073E+03 -8.32832E+02  2.93470E+03
 -2.48997E+03 -4.25242E+03  2.91311E+03  2.45633E+03 -3.58664E+02  2.79134E+03 -2.87890E+02  3.50348E+03
  2.11162E+03 -1.77405E+03 -1.64509E+03  3.98093E+02 -1.64850E+03 -1.65354E+03  6.91224E+02 -1.51860E+03
  2.18714E+03  2.53559E+03  2.17810E+03  2.99047E+03 -4.42841E+03  7.44639E+02  1.08822E+03  4.94457E+03
  1.31618E+03 -2.50541E+02 -4.01490E+03  6.81679E+02  3.40669E+03 -4.39198E+03 -6.00544E+02  1.03419E+03
 -3.31945E+03  3.88189E+03 -4.30095E+03  2.06192E+02 -1.44799E+03  8.88456E+02  1.00184E+03  1.13151E+03
 -5.62345E+03 -3.71117E+03  2.49223E+03 -8.00090E+03 -2.48423E+03  1.16577E+03  5.76979E+03  9.05044E+02
  3.75273E+03 -1.81474E+03  9.45820E+03 -6.64455E+02  1.97678E+03  3.36298E+03 -4.82007E+03  1.68757E+03
 -2.70501E+03  3.59126E+03  6.32222E+02 -2.39081E+03  1.12466E+03 -1.00318E+03  4.12042E+03 -2.30015E+02
 -2.37240E+03  8.24204E+02 -2.73801E+03  3.05877E+03 -1.68451E+03 -5.92492E+03 -4.29500E+03 -1.00026E+03
  1.06675E+03 -2.22894E+03  5.41910E+03 -3.25618E+03  3.50085E+03  3.48984E+03  1.37302E+03  1.36387E+03
  3.89605E+02  7.19082E+03 -2.97845E+03  5.98886E+03 -3.05300E+03  4.16354E+02 -7.92428E+02 -3.23742E+03
 -8.23183E+02 -2.53751E+03  1.21055E+03 -5.28431E+03  1.18124E+03 -2.92014E+03  3.46597E+02 -4.09796E+01
 -2.64408E+02 -1.93225E+03  1.15932E+03  1.21833E+03 -3.74277E+03  9.97611E+02 -3.14883E+03 -1.59965E+03
 -1.31573E+03 -2.22473E+03  2.55795E+03  4.73699E+03 -3.79529E+03  2.61365E+03  1.08781E+03 -5.38175E+02
 -4.59518E+03 -1.01926E+03  4.78447E+02 -5.70645E+03 -9.64683E+02  1.72086E+03 -4.00058E+03 -3.03745E+03
  2.31622E+03 -1.19304E+03  1.89605E+03  3.78672E+02  2.28152E+03 -1.76266E+03  3.63042E+03  2.87253E+02
  2.24925E+03 -1.11513E+03 -3.40947E+03 -2.06440E+03  9.89955E+02  2.19282E+02  5.57891E+03  5.17069E+02
 -1.09995E+03 -6.74517E+02  2.51933E+02 -2.65100E+03  7.18588E+02 -2.17549E+02 -1.91189E+02  5.12947E+03
  6.29187E+02  3.97386E+03  4.52607E+02 -2.37499E+03  6.18607E+02 -5.94093E+03  1.81467E+03  9.90616E+02
  3.56215E+03  2.59141E+02 -2.87312E+02  4.59343E+03  1.33922E+03  7.00432E+03  1.66742E+03 -1.90296E+03
