 $NMID ID='MM_0lb_SNR50_7hz_g55_55.RAW', FMTDAT='(8E13.5)'
 TRAMP=1., VOLUME=1. $END
  3.13181E+05 -9.57491E+02  3.33042E+05  2.52263E+05  8.14709E+04  3.39255E+05 -1.34980E+05  2.49829E+05
 -1.98549E+05  8.15476E+04 -1.09227E+05 -2.65413E+04 -3.72025E+03 -5.66961E+04  4.92686E+04 -1.27330E+03
  3.27033E+04  5.94485E+04 -1.02776E+04  7.28340E+04 -6.17481E+04  6.27862E+04 -8.23021E+04  3.79060E+04
 -8.76441E+04 -1.56727E+04 -6.17258E+04 -5.09063E+04 -1.71342E+04 -7.03328E+04  3.05828E+04 -5.44185E+04
  4.25484E+04  1.05778E+04  1.74082E+04  5.54386E+04 -3.83527E+04  4.84166E+04 -6.38312E+04 -3.60685E+03
 -5.90078E+04 -5.86933E+04 -3.06392E+03 -8.22606E+04  3.06313E+04 -5.40235E+04  5.10104E+04 -1.66235E+04
  4.99946E+04  1.65903E+04  2.97836E+04  2.95742E+04  1.78028E+04  3.24624E+04 -1.38159E+03  2.41073E+04
 -2.66833E+04  9.66674E+03 -1.86159E+04 -6.63166E+03  9.17046E+03 -1.01279E+04  1.48053E+04  9.25343E+03
  1.37693E+02  3.49089E+04 -4.13789E+04  3.35404E+04 -6.15510E+04  1.26740E+03 -5.86386E+04 -4.76297E+04
 -1.04683E+04 -6.28916E+04  4.30849E+04 -5.44556E+04  6.58902E+04 -7.19346E+03  3.64550E+04  3.80553E+04
 -6.40752E+03  4.45535E+04 -3.40254E+04  1.73220E+04 -2.68511E+04  9.99981E+02 -2.36684E+04 -1.04514E+04
 -4.10816E+03 -1.33465E+04  1.53426E+03 -2.45574E+04  2.74945E+03 -2.07780E+04  2.03828E+04 -1.98355E+04
  8.83255E+03  6.31387E+03 -9.87278E+03  8.69566E+03 -2.43104E+04 -3.18966E+03 -8.85673E+03 -4.07487E+04
  2.48841E+04 -4.73263E+04  5.70665E+04 -1.89036E+04  5.33319E+04  1.96054E+04  2.34459E+04  4.68868E+04
 -1.56877E+04  3.78158E+04 -2.55223E+04 -5.35718E+03 -1.60570E+04 -2.85860E+04  2.45710E+04 -3.60644E+04
  4.36914E+04 -1.07812E+04  3.20130E+04  2.63268E+04  2.49387E+04  5.50971E+04 -1.15659E+02  5.60947E+04
 -3.97064E+04  3.97795E+04 -5.17741E+04  1.57765E+04 -5.11515E+04 -1.79147E+04 -2.49548E+04 -4.30250E+04
  6.29847E+03 -4.04771E+04  3.29456E+04 -2.22647E+04  3.58500E+04  1.39904E+04  1.79994E+03  2.04219E+04
 -1.48755E+04  8.95992E+03 -1.06242E+04 -3.51407E+03  4.99111E+03 -1.01135E+04  2.22840E+04  1.81902E+03
  1.91314E+04  2.51420E+04 -7.21852E+03  2.70247E+04 -2.64582E+04  2.24552E+04 -3.79718E+04 -3.12425E+03
 -3.44693E+04 -1.78609E+04 -1.10202E+04 -2.72778E+04  3.56157E+03 -2.74813E+04  2.36764E+04 -2.92487E+04
  4.15834E+04 -1.53532E+04  3.90493E+04  3.02112E+03  2.26346E+04  2.20852E+04  2.35580E+03  4.24881E+04
 -1.59388E+04  3.14444E+04 -3.15923E+04  9.24678E+03 -2.35877E+04 -1.54448E+04  3.42635E+03 -1.15117E+04
  6.75052E+03 -3.80033E+03 -1.06923E+04  8.74913E+03 -1.69257E+04  4.18474E+03 -2.58292E+04 -1.24244E+04
 -1.54715E+04 -2.52451E+04  7.82368E+03 -3.68605E+04  2.14047E+04 -2.61911E+04  1.98569E+04  2.25014E+03
  1.92798E+04  1.91708E+04 -3.09205E+03  2.57230E+04 -2.09816E+04  1.52023E+04 -2.67263E+04  2.65842E+03
 -1.62056E+04 -1.95680E+04 -9.52270E+03 -3.29718E+04  1.70178E+04 -2.54194E+04  2.73538E+04 -8.14518E+03
  2.16570E+04 -1.48641E+03  1.43139E+04  2.78592E+03  9.10179E+03  1.15156E+04  1.58724E+04 -1.25310E+03
  3.06904E+04  6.67901E+03  2.87449E+04  2.01072E+04  1.86534E+04  4.26172E+04 -9.53096E+03  5.07059E+04
 -2.62834E+04  3.65225E+04 -4.30404E+04  1.62364E+04 -5.10418E+04 -1.35138E+04 -3.52030E+04 -3.14655E+04
 -1.54088E+04 -4.60285E+04  1.17912E+04 -3.60029E+04  3.15417E+04 -2.28527E+04  2.16638E+04  5.78091E+03
  1.34873E+04  1.33614E+04 -1.35234E+04  1.77892E+04 -1.60083E+04  3.55313E+03 -1.41540E+04 -1.09009E+04
  1.99607E+03 -2.49417E+04  1.59737E+04 -1.48786E+04  1.27103E+04 -2.40119E+03  2.75511E+03  1.02272E+04
 -9.69665E+03  7.42764E+03 -4.81520E+03 -6.78482E+03 -4.41389E+02 -1.91175E+04  5.76425E+03 -2.78354E+04
  3.74771E+04 -1.54493E+04  2.86263E+04  7.31657E+03  2.56915E+04  2.75127E+04  1.10060E+04  3.15337E+04
 -1.42428E+04  2.65154E+04 -2.81897E+04  1.80598E+04 -3.07252E+04 -4.70368E+03 -1.72386E+04 -8.57212E+03
 -7.12340E+03 -7.43928E+03 -4.47557E+02 -4.96300E+03 -9.15079E+03  6.02850E+03 -7.62016E+03  1.27403E+04
 -1.61423E+04 -1.67527E+03 -2.46599E+04 -1.18662E+04 -9.45573E+03 -2.56595E+04  1.23417E+04 -1.39267E+04
  9.56782E+03 -1.23614E+04  6.89103E+03  3.27117E+03 -6.06597E+03  5.84055E+03 -1.23145E+04  1.52225E+03
 -1.49193E+04 -2.17251E+04  4.31979E+02 -1.65143E+04  5.43488E+03 -1.32562E+04  1.72097E+04 -1.25187E+04
  2.67311E+04  3.57183E+03  2.65412E+04  2.02111E+04  9.76284E+03  2.33945E+04 -1.53003E+04  2.45517E+04
 -1.87722E+04  5.96152E+03 -3.35710E+03 -3.50272E+03  7.17401E+02 -6.39187E+03  8.81362E+03  8.69402E+02
  5.82123E+03  3.40068E+03 -1.76231E+02  1.11288E+04  2.87033E+01  1.45332E+04 -2.09534E+04 -2.47351E+03
 -1.53474E+04 -1.25346E+04  5.68223E+03 -1.99566E+04  3.79168E+03 -6.47051E+03  7.96634E+03  6.02202E+03
  3.54224E+03  1.50368E+04 -1.88088E+03  1.15646E+04 -1.76609E+04 -5.15240E+03 -1.70949E+04 -8.93201E+03
 -8.55217E+03 -2.19042E+04  1.36096E+03 -1.42888E+04  1.56842E+04 -8.29429E+03  2.11565E+04  1.54088E+03
  1.11267E+04  2.13127E+04 -1.39541E+03  2.53410E+04 -1.49966E+04  9.19870E+03 -1.65242E+04 -2.36242E+03
 -7.37523E+03 -9.71686E+03 -1.64428E+03 -1.39030E+04  4.78536E+03 -1.35436E+04  9.79143E+03 -7.66694E+03
  4.61866E+03  4.69158E+03 -3.41135E+03  3.78172E+03 -1.41102E+03 -1.41815E+03 -7.01080E+00 -1.02433E+04
  1.96624E+04 -7.75695E+03  2.10560E+04 -2.06184E+03  1.30709E+04  1.79952E+04  1.06859E+04  2.78259E+04
 -1.98836E+03  3.68105E+04 -1.98361E+04  2.41683E+04 -3.48914E+04  4.54299E+03 -1.92128E+04 -4.55982E+03
 -7.25769E+03 -2.60522E+04 -1.45943E+03 -1.63898E+04  6.45530E+03 -1.61758E+04  1.06569E+04 -4.90122E+03
  5.49458E+03 -7.84905E+03  3.55762E+03 -7.30333E+03  8.26339E+03  9.83387E+02  8.35596E+03 -7.76402E+03
  1.71352E+04  4.45043E+03  1.79788E+03  1.19422E+04  2.82851E+03  1.43444E+04 -1.93066E+04  1.44782E+04
 -1.37831E+04  2.00078E+02 -1.52069E+04 -1.46845E+04 -6.65263E+03 -1.91431E+04  6.52443E+03 -1.82525E+04
  2.50433E+04 -7.82258E+03  2.52117E+04 -2.01516E+03  1.96260E+04  2.34822E+04  3.78801E+03  2.37743E+04
 -6.29932E+03  2.51191E+04 -1.21036E+04  4.34298E+03 -1.04608E+04  3.36678E+03 -2.51684E+03 -1.39051E+03
 -1.11521E+03 -8.90383E+01  2.91793E+03 -1.12382E+03 -7.30675E+03  2.47704E+03 -2.86357E+04  1.90210E+03
 -1.00444E+04 -3.57740E+03 -1.67038E+03 -2.05218E+04  7.61912E+03 -1.25492E+04  2.54146E+04 -6.32473E+03
  2.60832E+04  1.10012E+04  1.28794E+04  1.34542E+04 -1.08975E+03  2.06874E+04 -1.28484E+04  2.20724E+03
 -1.13948E+04  7.97126E+03 -1.75810E+04 -1.54326E+04  2.71849E+03 -1.32531E+04  1.01780E+04 -1.58017E+04
  1.52602E+04 -5.70909E+03  6.21938E+03  6.50702E+03  7.63286E+02  5.33901E+03 -3.88031E+03  3.14143E+03
  7.47348E+03 -3.04607E+03  8.36251E+03 -4.26320E+02  5.47477E+03  6.15789E+03  7.13574E+03  9.88708E+03
 -1.02407E+03  1.92200E+04 -1.39320E+04  1.04637E+04 -2.42594E+04  1.19095E+04 -2.36360E+04 -1.26403E+04
 -1.71010E+04 -1.46342E+04 -2.70816E+03 -2.32946E+04  1.90935E+04 -1.03741E+04  1.53435E+04 -6.31574E+03
  8.50056E+03  1.07172E+04  4.22841E+03  9.28022E+03 -8.20957E+03  2.65396E+03 -3.95711E+03 -1.28733E+03
 -9.76822E+03 -3.86911E+03 -2.93709E+02 -7.78077E+03  1.48495E+04  2.05914E+03  4.41350E+03 -3.46522E+03
  4.39107E+03  1.77148E+03  1.99246E+03  7.91924E+03 -4.41810E+03  3.40183E+03 -4.39973E+03  3.82503E+02
  6.62030E+03  7.32548E+03  8.89829E+03  9.70698E+03  1.06712E+04  1.61018E+04 -1.19156E+03  1.27575E+04
 -9.18403E+03  2.88279E+03 -9.09909E+03  4.16099E+03 -1.99509E+04 -6.17869E+03 -5.90335E+03 -3.02520E+03
 -1.22961E+03 -1.26787E+04  8.34015E+03 -1.45815E+03 -1.00452E+01  7.29425E+03 -4.56515E+01  7.37242E+03
 -9.36232E+03  4.30817E+03 -1.09967E+04  6.13475E+03 -1.10337E+04 -1.01161E+04 -1.04387E+03 -1.25133E+04
  1.09293E+04 -6.99083E+03  1.39603E+04 -2.50292E+03  6.07594E+03 -2.63810E+03  1.01153E+03  1.30254E+04
 -6.99134E+03  1.49271E+03 -7.42618E+03 -1.07681E+04  7.08339E+03 -3.12765E+03  1.16772E+04 -9.48331E+03
  1.08143E+04  3.27179E+03  8.22019E+03  1.76985E+04  3.25979E+03  7.85283E+03  2.59479E+03  8.94657E+03
 -1.09594E+04  1.15783E+03 -2.64982E+03 -4.42592E+03 -1.13192E+04 -1.31146E+04  1.64690E+03 -7.03112E+03
  5.69941E+03 -6.56397E+03  2.15890E+03  8.42605E+01  2.29767E+03  3.49862E+03 -2.93753E+03  9.14795E+03
  1.97209E+03  1.10766E+04 -3.95711E+03  1.18745E+04  3.10879E+03  5.32069E+03 -1.49586E+03  7.36235E+03
 -5.26689E+03  1.29389E+03 -8.48529E+03  5.63188E+03 -1.87523E+04 -7.92414E+01 -1.70959E+04 -6.64928E+03
 -4.56148E+03 -2.19378E+04  3.60632E+03 -1.94791E+04  1.74125E+04 -1.83379E+04  1.74263E+04 -1.66804E+04
  1.77490E+04  5.48430E+03  1.25136E+04  1.63149E+04  2.88686E+03  9.26461E+03 -6.92262E+03  1.14696E+04
 -6.56459E+03  1.49525E+02 -6.79955E+03 -6.13834E+03  1.04888E+03  5.04384E+03 -1.47682E+03  2.82274E+03
  2.26446E+03  4.83733E+03  8.74480E+02 -5.09195E+03  6.63242E+02 -5.50255E+03 -5.47400E+03 -6.01364E+03
  8.53173E+03 -5.78140E+03  6.82872E+03 -4.42561E+03  6.35306E+03  2.68181E+03 -1.28633E+03  2.89889E+04
 -9.42148E+03  1.84732E+04 -2.17495E+04  1.11987E+04 -2.08956E+04 -2.10642E+03 -9.93246E+03 -9.92523E+03
 -8.36836E+03 -1.53131E+04  9.48151E+03 -1.19987E+04  5.82451E+03 -4.23850E+03  1.43796E+04  7.98391E+02
  6.40191E+03  1.06965E+04  1.04791E+02  7.06848E+03 -1.30262E+03  1.39782E+03 -3.07140E+03 -3.11388E+03
  1.47958E+04 -7.48156E+03  4.08198E+03 -1.89744E+02  9.26649E+03  6.85510E+03 -6.82458E+03  1.25375E+04
 -6.93318E+03  1.07181E+04 -1.14576E+04  2.66382E+02 -1.54585E+04 -5.40501E+03 -8.66165E+02 -1.54787E+04
  6.17333E+03 -8.68842E+03  1.33181E+04 -4.65225E+03  1.45826E+04  7.34730E+03  8.22560E+03  1.25880E+04
  6.69230E+03  1.48519E+04 -3.82163E+03  5.60561E+02 -7.73017E+03 -2.77063E+03 -1.16775E+04  4.38540E+02
 -4.82846E+03  2.79629E+01  1.62263E+03  1.98502E+03 -4.45239E+03 -8.72005E+03 -1.10778E+04 -6.35218E+03
 -1.21951E+04 -7.86860E+03 -2.42138E+03 -1.48512E+04  3.24775E+03 -8.91989E+03  2.64854E+03 -1.05142E+04
  5.50445E+03  4.92188E+03  4.49515E+03  1.22566E+04  1.12964E+03  5.74942E+03 -5.67906E+03  6.35490E+03
