 $NMID ID='MM_0lb_SNR50_13hz_g40_21.RAW', FMTDAT='(8E13.5)'
 TRAMP=1., VOLUME=1. $END
  3.13570E+05 -6.58554E+02  3.32388E+05  2.55340E+05  8.20091E+04  3.34079E+05 -1.34886E+05  2.50668E+05
 -1.89493E+05  8.46096E+04 -1.15705E+05 -3.36575E+04 -3.37595E+03 -5.51262E+04  5.29093E+04 -8.82042E+02
  3.42905E+04  4.81127E+04 -1.81251E+04  7.42110E+04 -6.29961E+04  6.43160E+04 -8.35049E+04  3.18263E+04
 -8.06776E+04 -8.79762E+03 -6.15571E+04 -5.04561E+04 -1.30660E+04 -7.39429E+04  2.20829E+04 -5.25178E+04
  4.26825E+04  9.97434E+03  1.65833E+04  4.51243E+04 -3.56279E+04  4.75371E+04 -7.06900E+04 -1.19031E+03
 -5.16777E+04 -5.01203E+04 -1.17331E+04 -7.93202E+04  3.41167E+04 -5.72145E+04  4.27858E+04 -1.50751E+04
  4.31432E+04  1.17494E+04  3.66539E+04  2.51276E+04  1.44288E+04  2.74906E+04 -1.08662E+04  2.45184E+04
 -2.25857E+04  1.13462E+04 -1.53178E+04 -5.24213E+03  6.59640E+03 -6.82575E+03  2.26572E+04  1.49338E+04
  7.29357E+03  3.20448E+04 -3.35692E+04  3.28079E+04 -6.24437E+04  2.29324E+03 -5.90908E+04 -4.21062E+04
 -1.50460E+04 -6.49984E+04  4.15070E+04 -4.42611E+04  5.86964E+04 -1.90758E+03  3.23932E+04  3.20037E+04
 -4.05244E+03  3.66642E+04 -2.96172E+04  1.62565E+04 -3.52163E+04 -6.93538E+03 -1.93209E+04 -1.19651E+04
 -8.02787E+03 -1.20210E+04 -2.33031E+03 -1.49862E+04  7.04642E+03 -2.12672E+04  1.65641E+04 -1.37560E+04
  7.83071E+03  8.11708E+03 -5.52294E+03  9.76032E+03 -2.34807E+04 -7.38175E+03 -1.19736E+04 -3.71180E+04
  2.22058E+04 -3.85590E+04  4.50189E+04 -1.86190E+04  4.24686E+04  2.14468E+04  1.25926E+04  4.08296E+04
 -1.73992E+04  3.19299E+04 -1.71477E+04  6.31871E+02 -1.05255E+04 -2.37942E+04  2.00915E+04 -3.02579E+04
  4.34067E+04 -1.04691E+04  3.56364E+04  2.50913E+04  1.63709E+04  4.55252E+04 -1.04340E+04  5.33254E+04
 -2.95502E+04  3.86584E+04 -4.49959E+04  5.49684E+03 -4.37385E+04 -1.52697E+04 -1.94451E+04 -3.46817E+04
  3.60770E+03 -3.23575E+04  2.94169E+04 -1.06510E+04  3.08975E+04  1.53507E+04  2.79429E+03  1.85463E+04
 -1.17758E+04 -5.38120E+03 -6.43160E+03 -8.43296E+03  5.76367E+03 -6.39857E+03  1.90387E+04  5.31858E+03
  1.29568E+04  2.23453E+04 -4.36438E+03  2.61941E+04 -2.39612E+04  1.20808E+04 -2.58906E+04 -7.94960E+03
 -2.80621E+04 -1.21045E+04 -7.01249E+03 -1.94849E+04  5.79035E+03 -1.81125E+04  2.11744E+04 -1.66468E+04
  2.57008E+04 -1.62406E+04  3.05952E+04  3.46342E+03  2.58962E+04  2.32312E+04  1.05690E+03  3.54347E+04
 -1.51112E+04  3.40309E+04 -3.02396E+04  7.39578E+03 -2.16361E+04 -1.37904E+04 -8.19805E+03 -1.10781E+04
  7.49770E+03  3.67154E+02 -3.20042E+03  5.32313E+03 -1.95770E+04 -3.71363E+02 -1.65945E+04 -6.95742E+03
 -7.87429E+03 -2.00503E+04  5.66227E+03 -2.46360E+04  1.23240E+04 -2.07005E+04  1.40607E+04 -1.13142E+03
  1.01299E+04  9.07717E+03  3.01845E+03  1.90372E+04 -1.42608E+04  1.28790E+04 -2.02140E+04 -2.88036E+03
 -1.34167E+04 -1.50123E+04 -5.42426E+02 -2.14385E+04  9.13953E+03 -1.83408E+04  1.58060E+04 -1.03650E+04
  1.75861E+04 -2.14960E+03  9.18302E+03  4.08001E+03  7.71464E+03  2.61290E+02  9.15813E+03 -1.20542E+03
  1.85466E+04  2.95684E+03  1.87633E+04  1.86230E+04  6.81582E+03  2.76795E+04 -1.33942E+03  3.34051E+04
 -2.34102E+04  2.64673E+04 -3.41625E+04  1.35068E+04 -3.31052E+04 -4.17711E+03 -2.54189E+04 -1.87247E+04
 -1.37713E+04 -2.66795E+04  3.98392E+03 -2.07204E+04  1.97782E+04 -1.11478E+04  1.65825E+04  5.23362E+03
  7.69575E+03  1.56823E+04 -1.01126E+04  1.22625E+04 -1.00021E+04  1.60992E+03 -1.44716E+04 -1.06366E+04
 -5.55593E+02 -1.81597E+04  8.51568E+03 -1.22250E+04  1.15573E+04  1.95005E+03  2.52660E+03  1.17685E+04
 -6.21456E+03  4.31726E+03 -1.04132E+04 -4.89382E+03 -2.07140E+03 -1.23962E+04  8.10596E+03 -1.09947E+04
  1.65602E+04 -4.26908E+03  1.57214E+04 -2.25672E+03  1.48400E+04  1.68574E+04  4.51715E+03  1.60871E+04
 -3.63976E+03  1.88984E+04 -1.40896E+04  1.22326E+04 -1.75505E+04  5.32251E+03 -1.50448E+04  6.93770E+02
 -1.26825E+04 -1.10333E+04 -1.95812E+03 -2.75826E+03 -1.16828E+04  5.51453E+03 -2.86890E+03  2.43860E+03
 -1.23805E+04  1.08214E+03 -1.03497E+04 -3.84519E+03 -7.07971E+03 -1.80977E+04  3.80608E+03 -1.34596E+04
  1.36529E+04 -6.19527E+02  6.53348E+03  2.87690E+03 -7.96580E+01  5.37910E+03 -5.82356E+03  3.22100E+03
 -1.88946E+02 -5.21248E+03 -2.79772E+03 -1.00941E+04  4.59260E+03 -1.12189E+04  1.40549E+04 -5.46273E+03
  1.15600E+04  3.51872E+03  1.51768E+04  7.23156E+03 -2.43308E+03  1.33967E+04 -4.40916E+03  1.11887E+04
 -8.09193E+03  3.68908E+03 -9.16854E+03 -5.27556E+03  6.32176E+03 -1.09457E+03  5.08216E+03  9.45687E+02
  8.38842E+03  3.85169E+03  1.71963E+03  5.23152E+03 -5.93702E+03  4.56369E+03 -1.20542E+04 -4.65545E+03
 -5.35467E+03 -4.31020E+03  2.98845E+02 -8.32362E+03  5.57880E+03 -1.07032E+04  9.79529E+03 -2.41644E+03
  1.95245E+03  6.29367E+03 -9.84137E+03  5.36401E+03 -8.58798E+03  7.30127E+03 -8.83999E+03 -2.15125E+03
 -8.70253E+03 -5.98775E+03  6.45462E+03 -1.24545E+04  1.35691E+04 -6.35992E+03  8.18345E+03 -2.04605E+03
  6.17398E+03  1.13447E+04 -3.91198E+03  1.13893E+04 -5.67316E+03  6.22701E+03 -1.20958E+04 -3.47985E+03
 -1.21375E+04 -9.30083E+03 -8.29441E+03 -6.33772E+03  4.90510E+03 -6.39766E+03  4.26281E+03 -2.50751E+03
  5.48759E+02  1.26255E+03  1.86557E+03  3.06077E+03 -4.49314E+03 -3.11825E+03  1.17947E+03 -8.42807E+03
  9.30098E+03 -1.92808E+03  1.13449E+04 -1.32749E+03  3.92382E+03  3.35270E+03  7.49449E+03  1.35632E+04
  1.23177E+03  1.67161E+04 -9.61291E+03  1.45317E+04 -1.48111E+04  4.69444E+03 -1.61468E+04 -6.78177E+03
 -1.02123E+03 -1.50158E+04 -1.28593E+03 -8.72357E+03 -2.68293E+03  2.06402E+03 -3.93096E+03 -6.35976E+03
  4.25002E+01 -8.05395E+02  4.59034E+03 -1.58912E+00  4.05031E+03 -2.52705E+03  4.67867E+03  2.03181E+03
  6.32905E+03  6.09335E+03  2.86982E+02  3.41574E+03  7.73347E+02  8.41020E+03 -7.44619E+03  3.17666E+03
 -6.39539E+03 -1.16043E+03 -9.69347E+03 -5.37173E+03 -1.33808E+03 -1.42216E+04  5.87305E+03 -8.12546E+03
  6.46351E+03 -7.11543E+03  1.14814E+04 -3.04609E+03  7.40403E+03  1.01814E+04 -1.40883E+03  5.84642E+03
 -7.57676E+02  9.11858E+03 -5.36555E+03  3.39575E+03 -2.80707E+03 -2.12386E+03 -1.14074E+03 -3.10925E+02
 -3.39831E+03 -2.23428E+03 -2.63513E+03  5.87486E+03 -6.94100E+03 -1.95355E+03 -8.59900E+03  3.67787E+03
 -3.35390E+03 -7.37007E+03  1.53614E+01 -1.15399E+04  6.04708E+03 -1.21481E+04  4.45626E+03  3.04697E+03
  8.34074E+03  4.35930E+01  5.42108E+03  9.99971E+03 -4.73280E+03  6.72276E+03 -5.48579E+03  6.20573E+03
 -9.93770E+03  1.30346E+03 -6.21255E+03 -5.71308E+03  1.73308E+03 -8.60987E+03  2.09473E+03 -4.66706E+03
  3.29419E+03 -8.14548E+03 -4.14909E+03  8.70753E+02 -1.44406E+03 -3.13270E+03  1.95892E+03  2.31713E+03
  3.90909E+03  1.58988E+02 -1.04151E+03  3.18209E+02 -3.11902E+03  5.21603E+03  4.18860E+03  6.12217E+03
 -4.53034E+03  9.31435E+03 -8.26789E+02  4.63813E+03 -1.09857E+04 -8.78279E+02 -6.51091E+03 -5.58797E+03
 -1.22739E+03 -9.01236E+03  1.31330E+03 -1.21120E+04  9.60176E+03 -9.42539E+03  2.12458E+03  3.18538E+03
  6.23492E+03 -8.94862E+02  3.46081E+03  6.48665E+03 -2.37138E+03  2.16464E+03 -6.15755E+03 -3.07327E+03
  3.74260E+03 -1.62633E+03  5.22938E+02 -3.33384E+03  5.48114E+03 -3.06050E+03  1.84673E+03 -1.45832E+03
 -8.80711E+02  3.64128E+03  3.43080E+03 -9.15855E+02 -5.67204E+03  1.66862E+03  2.65056E+03  9.85862E+01
 -4.59649E+02  2.38040E+03  3.75415E+03  1.23812E+03  3.57786E+03  5.31786E+03  3.19203E+03  1.13666E+04
 -4.24041E+03  6.96747E+03 -7.16708E+03  1.07659E+03 -8.89353E+03  9.62704E+02 -4.98153E+03 -6.30098E+03
  1.39355E+03 -3.22194E+03 -3.95177E+02 -1.35900E+03  1.37312E+03  1.36426E+03 -4.55215E+03  3.33304E+03
  2.00518E+03  4.85515E+03 -5.85815E+03 -1.97494E+03  4.90811E+02 -5.45949E+03 -3.86764E+03 -2.87354E+03
  6.45077E+03 -6.70248E+03  6.67817E+03 -1.16287E+03  2.14961E+03  3.45809E+03  3.90848E+03  3.87838E+03
  2.31213E+03  3.80198E+02 -6.10596E+03 -4.95800E+03  1.15591E+03 -1.05674E+03  3.61801E+03 -7.92382E+03
  6.72577E+03 -6.58081E+02  8.02727E+03  2.51851E+03 -2.72477E+03  4.32598E+03 -4.90433E+02  6.35007E+03
 -3.69278E+03  3.92012E+03 -5.37985E+03  2.54056E+01 -4.60590E+03 -3.29156E+03 -2.47150E+03  1.72405E+03
  4.83416E+03  4.97378E+03 -6.60275E+02  3.05272E+03 -3.20303E+00  3.67599E+03  1.15904E+03  3.89278E+03
  1.92352E+03 -6.70719E+02  4.31718E+02 -4.16408E+02 -4.95347E+03 -3.82519E+03  2.55007E+02  1.66563E+03
 -4.14970E+03  1.13241E+02 -5.51451E+03  5.07206E+03 -2.95196E+03 -3.24011E+03 -6.36262E+03 -1.98072E+03
 -1.56757E+03 -6.19713E+03  2.54176E+03 -8.68462E+03  5.17238E+03 -4.25572E+03  8.37798E+03  8.38161E+02
  6.02733E+03  2.75285E+03  4.42141E+03  1.73291E+03  2.98523E+02  6.29412E+03  1.62385E+02 -8.24554E+02
 -3.44355E+03  2.95223E+03 -6.17773E+03  3.01312E+02 -1.10463E+03  6.92841E+02 -5.93771E+01  1.60088E+03
 -1.82232E+03  4.92723E+03 -2.33375E+03 -6.39444E+02 -2.20252E+03 -1.10174E+03 -4.34020E+02 -3.21298E+03
 -1.31124E+03 -2.97734E+03  2.56930E+03  3.59583E+02  3.05650E+03  1.58029E+03 -1.63242E+03  7.93955E+03
  1.12906E+03  5.17951E+02 -9.84170E+03  6.17306E+03 -1.14014E+04 -2.93885E+03 -6.92004E+03 -2.86573E+03
 -2.21937E+03 -2.34664E+03 -5.84079E+02 -9.24797E+03  6.70678E+03 -6.68551E+03  8.64859E+03 -2.28119E+03
  1.88540E+03  2.48575E+03 -1.68721E+03  1.23036E+03  2.08193E+03  9.30120E+02  1.25935E+01  1.53545E+03
  1.57420E+03 -2.08520E+03  1.66599E+03  1.01495E+03 -1.28926E+03  6.22893E+02  2.90436E+03  3.19818E+03
 -2.78615E+03  2.52206E+02 -2.75913E+03 -1.57723E+03 -3.97885E+02 -1.53144E+03  2.85657E+03 -4.80010E+03
  4.88718E+03  1.36804E+02  3.21117E+03 -6.23706E+03  3.40163E+03 -1.23090E+03 -5.69443E+02  6.24592E+03
  2.19754E+03  1.52411E+03  7.90249E+02 -2.16138E+03 -3.68575E+03 -1.74507E+03 -2.25744E+03  1.98107E+03
 -5.82495E+03 -1.17103E+03 -3.21691E+03  7.45789E+02 -2.45158E+03  4.76549E+03 -3.32723E+03 -2.80134E+02
 -2.15268E+03 -2.54207E+03 -1.48845E+03 -7.79421E+03  4.89869E+03 -6.11753E+03  3.94068E+03  3.61955E+03
  3.43315E+03  5.64595E+02 -9.71995E+02  1.70041E+03  3.04281E+02  1.50867E+03 -1.56386E+03 -1.13177E+02
