 $NMID ID='MM_0lb_SNR50_13hz_g50_46.RAW', FMTDAT='(8E13.5)'
 TRAMP=1., VOLUME=1. $END
  3.08815E+05  1.46233E+03  3.36924E+05  2.54290E+05  9.03625E+04  3.38135E+05 -1.30149E+05  2.51289E+05
 -1.87448E+05  8.19332E+04 -1.13189E+05 -3.58817E+04 -3.79797E+03 -5.07160E+04  5.58754E+04  1.57925E+03
  3.46663E+04  4.96327E+04 -1.42599E+04  7.73841E+04 -6.00343E+04  6.12605E+04 -8.24697E+04  3.38923E+04
 -8.07954E+04 -9.14671E+03 -6.09999E+04 -5.09945E+04 -1.53844E+04 -7.08557E+04  3.14449E+04 -4.54193E+04
  4.36396E+04  8.79578E+03  1.96728E+04  4.28650E+04 -3.63391E+04  4.54921E+04 -6.64302E+04 -2.30529E+03
 -5.64046E+04 -5.06839E+04 -7.59544E+03 -7.65197E+04  2.70278E+04 -5.51037E+04  4.92703E+04 -1.86813E+04
  4.20422E+04  1.50902E+04  3.19802E+04  2.46639E+04  1.81196E+04  2.85762E+04 -4.31104E+03  3.01805E+04
 -2.53627E+04  1.63457E+04 -2.34438E+04 -5.43791E+03  5.93618E+03 -1.39259E+04  2.38373E+04  1.88598E+04
  6.27555E+03  4.16830E+04 -3.26463E+04  3.61078E+04 -6.35470E+04  5.32978E+03 -6.25614E+04 -4.02902E+04
 -8.26596E+03 -6.80544E+04  3.73677E+04 -4.25096E+04  5.71567E+04  4.56765E+02  3.68483E+04  3.49234E+04
 -6.36546E+03  3.95107E+04 -3.24063E+04  1.84523E+04 -3.08627E+04 -2.58565E+03 -1.29203E+04 -8.63588E+03
 -1.11931E+04 -1.50685E+04 -1.72510E+03 -2.02923E+04  8.39520E+03 -2.43370E+04  1.49481E+04 -1.41819E+04
  1.10817E+04 -2.70759E+02 -5.70442E+03  1.28418E+04 -2.09290E+04 -9.14184E+03 -1.10820E+04 -3.71414E+04
  2.68698E+04 -4.58188E+04  4.62899E+04 -1.88091E+04  4.81693E+04  1.83649E+04  1.39920E+04  4.42868E+04
 -1.48886E+04  3.84933E+04 -2.74788E+04 -3.37945E+02 -8.49324E+03 -2.56833E+04  2.07249E+04 -3.96660E+04
  3.80745E+04 -6.47159E+03  3.39386E+04  1.74816E+04  1.73905E+04  4.99574E+04 -6.47648E+03  5.06572E+04
 -3.35264E+04  3.65570E+04 -4.18495E+04  8.35656E+03 -4.63878E+04 -1.63333E+04 -2.27257E+04 -3.91327E+04
  9.17128E+03 -4.61615E+04  3.26326E+04 -1.45223E+04  2.95677E+04  6.18664E+03  5.00541E+03  2.22365E+04
 -1.77225E+04  1.44307E+04 -8.99689E+03 -8.05510E+03  4.91867E+03 -8.36831E+03  2.07386E+04  5.95376E+03
  1.56578E+04  1.94707E+04 -7.63233E+03  2.66674E+04 -1.96752E+04  6.98093E+03 -2.85134E+04 -4.92941E+03
 -2.26125E+04 -1.72123E+04 -1.15359E+04 -2.19097E+04  5.58773E+03 -1.77528E+04  1.43526E+04 -1.65578E+04
  2.83240E+04 -1.57246E+04  3.42343E+04 -1.52513E+03  2.72373E+04  2.18869E+04  2.85656E+03  3.83110E+04
 -2.22876E+04  2.68082E+04 -2.55251E+04  1.09447E+04 -2.35737E+04 -9.45927E+03 -4.51896E+03 -1.24854E+04
  3.00780E+03 -3.97493E+03 -1.14784E+04  7.08979E+03 -2.08709E+04  3.88078E+03 -1.31893E+04 -7.93598E+03
 -2.01496E+03 -2.20359E+04  3.86224E+03 -2.85105E+04  2.05968E+04 -2.01623E+04  1.85156E+04  3.75934E+03
  8.66015E+03  1.39469E+04 -3.85919E+02  1.96442E+04 -1.10943E+04  1.02235E+04 -2.36183E+04 -9.15350E+03
 -1.37500E+04 -1.80164E+04  2.24049E+02 -2.53987E+04  1.34754E+04 -1.86743E+04  1.99040E+04 -9.55811E+03
  1.69844E+04 -1.58236E+03  1.23002E+04  1.06685E+04  4.29694E+03  1.56904E+03  1.37290E+04 -6.42143E+02
  1.75885E+04 -2.01070E+02  2.45596E+04  1.73970E+04  1.75278E+04  2.86519E+04 -2.24083E+03  3.64681E+04
 -1.74160E+04  2.75015E+04 -3.58201E+04  1.27460E+04 -3.45898E+04 -9.45174E+03 -3.22438E+04 -2.59116E+04
 -1.00439E+04 -2.58498E+04  8.98575E+03 -2.68581E+04  2.21931E+04 -2.01187E+04  2.25421E+04  5.34262E+03
  7.23440E+03  1.41959E+04 -1.11954E+04  1.35344E+04 -1.50921E+04  1.94287E+03 -8.98680E+03 -1.47801E+04
 -2.48234E+03 -1.95566E+04  9.44053E+03 -1.04702E+04  1.07234E+04  3.37033E+03 -1.41537E+03  5.83388E+03
 -8.06330E+03  1.63813E+03 -3.72276E+03 -9.86946E+03  3.17972E+03 -1.77140E+04  7.08841E+03 -1.24723E+04
  1.81584E+04 -2.26101E+03  1.40828E+04  5.56271E+03  1.69523E+04  1.12621E+04  6.37849E+03  2.38254E+04
  1.58195E+03  2.25171E+04 -1.49222E+04  1.52776E+04 -1.67396E+04  7.71308E+03 -5.94246E+03 -5.39737E+02
 -5.28523E+03 -2.53857E+03 -2.60978E+03 -1.86305E+03 -4.17790E+03  4.88833E+03 -5.50438E+03  4.46072E+03
 -1.03196E+04 -5.07396E+03 -1.02420E+04 -8.12145E+03 -6.72262E+03 -1.25649E+04  8.88520E+03 -1.31717E+04
  9.10340E+03 -3.62008E+03 -4.62525E+02  3.08105E+03  1.59206E+03  7.39392E+03 -6.70314E+03  3.20516E+03
  1.41596E+03 -1.10721E+04 -9.73193E+02 -1.39160E+04  6.97419E+03 -1.30851E+04  1.63265E+04 -8.87857E+03
  1.49315E+04  2.61767E+03  1.27395E+04  1.44208E+04  1.92177E+03  1.31696E+04 -1.05765E+04  1.28780E+04
 -1.02273E+04  6.75273E+03  4.60150E+02 -4.87202E+03  2.74586E+03 -4.53692E+03  1.20145E+04 -1.96235E+03
  3.49609E+03  1.70619E+03 -6.57259E+03  7.26229E+03 -7.10812E+03  6.32202E+03 -7.03379E+03 -2.01458E+03
 -9.53550E+03 -6.71484E+03 -9.74293E+02 -9.54498E+03  5.34915E+03  6.33154E+00  7.52384E+03  2.39601E+03
  1.30456E+03  4.78480E+03 -4.53525E+03  1.01593E+04 -1.42513E+04 -1.10910E+03 -8.03815E+03 -7.90644E+02
 -6.92957E+03 -1.21498E+04  5.14294E+02 -1.47886E+04  9.10916E+03 -8.43194E+03  9.66880E+03 -2.57693E+03
  2.66919E+03  7.02652E+03 -5.89249E+03  1.02054E+04 -5.72580E+03  4.17059E+03 -1.18021E+04 -1.33152E+03
 -7.48884E+03 -3.92490E+03  1.37543E+03 -4.82675E+03  4.48782E+03 -8.12200E+03  9.04086E+01 -9.40818E+03
  1.33813E+02  1.12597E+03  2.91244E+03  1.67730E+03 -9.23569E+02 -2.38226E+03  4.89560E+03  4.57418E+02
  6.98628E+03 -4.56048E+03  1.53013E+04  1.56205E+03  8.99428E+03  7.05498E+03  6.45739E+03  1.51109E+04
  5.47077E+02  1.81642E+04 -1.24656E+04  1.02895E+04 -1.67588E+04  3.51238E+03 -1.52154E+04 -6.31962E+03
 -8.28588E+03 -9.31334E+03 -2.94925E+03 -1.04580E+04  4.45901E+03 -6.83489E+03  5.15436E+03 -2.75456E+03
  9.67238E+03 -2.27446E+03  5.45137E+03 -8.58387E+02  5.12248E+03 -1.34967E+03  4.77365E+03  5.89755E+02
  6.73247E+03 -1.65597E+02 -6.74973E+02  3.99850E+03 -5.24142E+03  4.33539E+03 -1.20461E+04  7.76896E+03
 -1.04486E+04  2.46806E+01 -5.19326E+03 -5.31442E+03 -2.16730E+03 -1.19780E+04  5.83318E+03 -1.55391E+04
  4.94854E+03 -4.23040E+03  1.33557E+04  3.87236E+03  1.36121E+04  5.29130E+03  4.01374E+03  1.19134E+04
 -8.66796E+03  1.42769E+04 -3.62045E+03  1.92437E+03 -4.87680E+03  3.40975E+02 -2.68329E+03 -5.57645E+03
 -2.44885E+03  7.01413E+02  9.86717E+02 -2.11695E+02 -5.18907E+03  2.92902E+03 -8.37351E+03 -1.58129E+03
 -4.18345E+03 -3.55415E+03 -2.12791E+01 -5.22595E+03  5.44435E+03 -1.01015E+04  8.37970E+03 -1.13936E+03
  8.77767E+03  2.16431E+03  4.91024E+03  3.02954E+03 -1.63737E+03  1.03172E+04 -3.21888E+03  5.28557E+03
 -5.36737E+03  1.16146E+03 -7.60516E+03 -5.65825E+03  1.56499E+03 -6.10148E+03  6.36251E+02 -7.96519E+03
  5.97655E+03 -1.56486E+03  6.11304E+03 -1.88805E+03  5.04742E+03  5.02079E+03  3.25688E+03  1.86095E+03
  3.39240E+03 -1.51206E+03 -3.34227E+02  1.09928E+03  1.39186E+03  4.82206E+03  2.02427E+03  2.44373E+03
  6.85231E+02  5.01286E+03 -1.11519E+04  1.20782E+04 -3.24874E+03  1.22029E+03 -8.14522E+02  9.94170E+02
 -3.88814E+03 -6.17757E+03  2.66974E+03 -6.90470E+03  6.02033E+03 -8.92817E+03  9.02315E+03  8.96909E+02
  6.26252E+03  3.66229E+03 -2.28728E+03  8.33749E+03 -1.18234E+03 -1.08711E+03 -2.64827E+03  2.73163E+01
 -3.46826E+03 -6.22860E+03  1.76721E+03  3.32396E+03  6.42715E+03 -1.47780E+03 -2.41521E+03  3.92123E+02
  2.74761E+03  7.34988E+03  2.30464E+03  1.69392E+03  2.16862E+03 -4.68645E+03  2.52457E+03 -5.04281E+02
  3.82352E+02 -7.52382E+03  1.18570E+04 -1.72901E+03  3.15106E+03  1.04261E+04  9.46702E+02  3.95935E+03
 -4.79485E+03 -6.76562E+02 -5.57075E+03 -4.07787E+03 -5.21550E+03 -5.25725E+02  1.71581E+03 -3.38014E+03
  2.76071E+03 -4.97792E+03  2.93734E+03  5.45151E+02  4.05688E+02 -1.07729E+02  9.25830E+02  1.77900E+03
 -4.03742E+03 -9.71979E+02 -6.57156E+03 -1.63798E+03 -6.03413E+03 -9.81574E+02 -4.56872E+03 -2.85398E+03
  4.35210E+03 -1.44197E+03  6.24812E+03  1.04021E+03  4.96708E+02  3.73418E+03  1.81196E+03  3.56652E+03
  9.98109E+02  3.73440E+03 -2.40310E+03 -3.76676E+03 -2.78844E+02 -2.75560E+03  3.64639E+03 -3.90606E+03
  2.96398E+03 -4.34410E+03  6.79284E+03 -2.75112E+03  3.81123E+03  1.29251E+03 -2.91516E+03  5.33794E+03
 -5.57689E+03  5.25259E+03 -6.20153E+03  2.93043E+03 -3.87041E+03  8.51759E+01  3.48795E+02 -2.77536E+03
  4.27488E+03 -1.31712E+03 -5.58923E+02  2.03573E+03  4.67683E+03 -1.81036E+01 -4.53389E+03  7.50014E+03
 -2.07909E+03  1.05261E+03 -2.47525E+03  2.23303E+03 -4.61664E+03 -1.65657E+03 -3.23690E+03  7.30663E+03
 -1.30265E+03  2.22266E+03 -6.21953E+03  2.37238E+03 -8.20298E+03 -3.80014E+03 -5.05373E+03 -5.84290E+03
  2.40679E+03 -7.06125E+03  2.03813E+03 -7.27473E+03  6.57042E+03 -7.49355E+03  1.14870E+04 -8.48967E+02
  9.17357E+03  2.70068E+02  9.78233E+03  2.14277E+03  2.70497E+03  7.72675E+03  7.15313E+02  2.52860E+03
 -4.58965E+03  2.04513E+03 -3.06449E+03  9.32707E+02 -5.00003E+03 -3.93475E+03 -2.17127E+03 -1.16318E+03
 -1.15485E+03 -8.56516E+02  1.74516E+03 -1.09918E+03 -7.17157E+03  1.92806E+03 -1.43113E+03  1.13000E+03
  1.76137E+03 -2.08920E+03  3.05066E+03  1.09833E+03  2.59933E+02 -4.61926E+02  5.97732E+03  9.65214E+03
 -7.41118E+03  5.63512E+03 -6.56823E+01  3.64178E+03 -6.28976E+03  9.96028E+02 -2.78816E+03 -8.92932E+03
 -8.75211E+03 -7.33877E+03 -1.13134E+02 -5.14011E+03 -8.12163E+02 -5.46498E+03  1.53948E+03 -1.84794E+03
  1.27580E+03  3.73170E+03  1.73089E+03 -2.52726E+03  1.30270E+03 -3.70219E+03 -3.01030E+02 -9.06539E+02
  1.01238E+02  2.96293E+03  2.05870E+03 -8.18910E+02 -1.80547E+01 -3.22711E+03  3.85636E+03  5.08111E+03
  1.40413E+03  6.14764E+02 -5.21098E+03 -2.69278E+03 -5.38758E+03 -2.50070E+03 -3.56560E+03 -8.01343E+03
  1.43567E+03 -2.59820E+03  2.62416E+03 -2.31165E+03  5.40273E+03  1.33478E+03  6.53999E+03  4.69780E+03
  1.17297E+03  4.87254E+03 -4.16833E+03 -1.11771E+03  4.52931E+03  2.46333E+03  6.28149E+02 -6.14217E+03
 -2.37753E+03 -1.70412E+03 -4.15864E+03 -6.89805E+02  1.73875E+03 -1.75532E+03 -1.91381E+03 -3.27204E+03
 -6.07159E+03  3.65999E+03  5.13562E+03  1.22047E+03  4.82629E+03 -6.52787E+03  2.84225E+03 -2.29746E+03
  3.46042E+03 -7.32126E+02  2.20116E+03 -2.73888E+02 -1.81039E+03 -5.01448E+02 -1.17605E+03 -1.74027E+03
