 $NMID ID='MM_0lb_SNR50_17hz_g60_54.RAW', FMTDAT='(8E13.5)'
 TRAMP=1., VOLUME=1. $END
  3.12053E+05  7.15394E+01  3.37546E+05  2.48124E+05  8.37036E+04  3.41667E+05 -1.34229E+05  2.49667E+05
 -1.88809E+05  8.70508E+04 -1.10843E+05 -3.41384E+04 -7.20739E+02 -5.11433E+04  5.30376E+04  2.88683E+02
  3.51455E+04  5.06658E+04 -1.36751E+04  7.41290E+04 -6.16547E+04  6.44179E+04 -8.79629E+04  3.26499E+04
 -7.62685E+04 -8.61552E+03 -5.64489E+04 -4.66147E+04 -1.40275E+04 -6.46073E+04  2.39835E+04 -4.79085E+04
  4.21995E+04  3.54593E+03  1.83427E+04  4.92259E+04 -3.50838E+04  4.66266E+04 -6.47210E+04  8.46531E+02
 -5.41820E+04 -5.76642E+04 -1.07008E+04 -7.57721E+04  3.20334E+04 -5.29778E+04  4.43707E+04 -1.60535E+04
  4.16705E+04  8.43486E+03  3.38433E+04  2.39447E+04  1.71286E+04  2.94247E+04 -6.33653E+03  2.67187E+04
 -2.42912E+04  1.03154E+04 -1.79733E+04 -7.06562E+03  5.05213E+03 -5.37805E+03  2.27368E+04  9.86263E+03
  1.03339E+04  3.21531E+04 -3.27759E+04  3.35986E+04 -6.05650E+04  6.08296E+03 -5.54121E+04 -4.47551E+04
 -1.46543E+04 -5.96456E+04  3.92269E+04 -4.63158E+04  5.82942E+04  1.32041E+03  2.73522E+04  2.88210E+04
 -4.42544E+03  3.79470E+04 -3.08253E+04  1.57192E+04 -2.94095E+04 -2.36291E+03 -1.90153E+04 -9.98943E+03
 -7.20443E+03 -1.73433E+04  1.01421E+03 -1.74683E+04  1.01035E+04 -2.13343E+04  1.95002E+04 -9.63594E+03
  1.19771E+04  4.80015E+03 -9.60851E+03  1.52005E+04 -1.87255E+04 -3.04000E+03 -4.68672E+03 -3.97745E+04
  2.18228E+04 -4.10760E+04  5.17173E+04 -2.07240E+04  4.71176E+04  2.14698E+04  1.65580E+04  4.38185E+04
 -1.35710E+04  3.56859E+04 -2.47237E+04  4.96488E+03 -1.29183E+04 -2.40442E+04  2.21333E+04 -3.42308E+04
  4.23363E+04 -9.37788E+03  3.68796E+04  2.34763E+04  1.78311E+04  4.60496E+04 -5.89970E+03  5.08716E+04
 -2.85115E+04  2.85800E+04 -4.27295E+04  1.23412E+04 -4.26861E+04 -1.68212E+04 -2.27244E+04 -3.87375E+04
  1.05116E+04 -3.99327E+04  3.20841E+04 -1.53205E+04  3.28849E+04  1.18773E+04  9.88364E+03  1.93121E+04
 -1.58401E+04  8.04016E+03 -1.13900E+04 -6.26779E+03  4.90346E+03 -1.07705E+04  1.85967E+04  5.19474E+03
  1.57184E+04  2.16591E+04 -3.48974E+03  2.90364E+04 -2.27118E+04  1.69921E+04 -2.78055E+04 -2.08839E+03
 -2.31623E+04 -1.92594E+04 -6.07422E+03 -2.29538E+04  5.65699E+03 -1.99063E+04  1.26795E+04 -1.92688E+04
  2.22172E+04 -9.19847E+03  3.25403E+04  9.64043E+03  2.25943E+04  2.34096E+04  7.75707E+03  3.89466E+04
 -1.80698E+04  2.77010E+04 -2.80213E+04  8.15879E+03 -2.11077E+04 -1.01371E+04 -3.72225E+03 -1.43830E+04
  1.16484E+03 -1.24570E+03 -1.00518E+04  9.02368E+03 -1.56157E+04  6.13855E+03 -2.04567E+04 -5.98951E+03
 -1.14317E+04 -1.78269E+04  5.76909E+03 -2.42858E+04  1.40692E+04 -1.68859E+04  1.63814E+04 -5.21429E+03
  1.71282E+04  1.39446E+04 -2.38366E+03  2.17016E+04 -1.25163E+04  5.01102E+03 -1.57727E+04 -1.12499E+03
 -1.17384E+04 -1.29606E+04  1.89333E+03 -2.15877E+04  3.80527E+03 -1.87591E+04  1.81143E+04 -9.42869E+03
  1.70616E+04 -7.30703E+02  8.89391E+03  2.84303E+03  2.61498E+03  3.28473E+03  8.35998E+03 -8.76384E+02
  1.65072E+04  1.49231E+02  1.62757E+04  1.00317E+04  9.13622E+03  2.75929E+04 -7.37563E+03  2.79793E+04
 -1.86829E+04  2.22278E+04 -2.83955E+04  1.50314E+04 -3.38218E+04  3.98188E+03 -2.71665E+04 -2.07528E+04
 -1.15450E+04 -2.61702E+04  7.46058E+03 -2.44118E+04  2.02635E+04 -1.27253E+04  2.04941E+04 -3.65628E+02
  6.11695E+03  1.46398E+04 -1.18173E+04  1.21583E+04 -1.13299E+04 -5.72379E+02 -1.14960E+04 -1.22197E+04
  3.49768E+02 -1.24634E+04  9.50931E+03 -1.04233E+04  8.37132E+03 -8.16652E+02  3.06319E+03  8.10466E+03
 -6.70420E+03  3.34331E+03 -4.79800E+01 -3.53286E+03  4.28032E+03 -8.85941E+03  3.47901E+03 -1.68996E+04
  1.78293E+04 -5.84700E+03  1.99230E+04  7.14168E+03  1.42855E+04  1.53543E+04  2.32403E+03  2.09643E+04
 -3.64838E+00  2.16308E+04 -6.72444E+03  1.07355E+04 -1.02065E+04  4.80072E+02 -1.02744E+04 -1.65983E+03
 -3.97079E+03 -4.47102E+03 -3.11847E+03  5.85224E+03  3.61112E+03 -2.71117E+02 -9.63791E+03  4.11633E+03
 -9.32824E+03  1.73813E+03 -1.24240E+04 -1.11386E+04 -4.81082E+03 -1.66626E+04  6.38993E+02 -1.05634E+04
  1.17102E+04 -3.20502E+03  6.15213E+03  2.36011E+03 -3.57652E+03  5.39406E+03 -3.21583E+03  2.58067E+03
  1.60351E+03 -6.08835E+03  4.36485E+03 -8.02807E+03  5.24918E+03 -1.05417E+04  1.39208E+04 -1.19301E+04
  1.64036E+04  2.66437E+03  4.91434E+03  6.83533E+03  6.44366E+02  6.24824E+03 -9.17742E+03  8.35087E+03
 -9.48595E+03  3.23638E+03 -1.63445E+03 -2.58530E+03  4.42430E+03 -3.70871E+02  4.71835E+03 -5.83100E+03
  6.48427E+03  5.25034E+03  2.29984E+03  1.02220E+04 -7.92034E+03  5.50047E+03 -9.07779E+03  2.74839E+03
 -1.05839E+04 -4.98207E+03 -5.39977E+02 -5.24438E+03  4.71416E+03 -3.47591E+03  8.54713E+03  4.21848E+03
 -1.95846E+03  5.06033E+03 -1.41620E+03  8.30348E+03 -2.85798E+03  3.85083E+03 -4.93395E+03  5.33764E+02
 -5.20790E+03 -7.16733E+03  1.04157E+03 -1.11752E+04  8.33811E+03 -8.16712E+03  9.93310E+03  4.30783E+03
  5.08772E+03  9.27182E+03 -4.55022E+03  1.01421E+04 -4.43483E+03  7.20377E+03 -6.96045E+03  1.65625E+03
 -6.81410E+03 -2.67091E+03  1.67261E+03 -5.55248E+03 -1.30390E+03 -5.75001E+03  4.54224E+03 -4.02632E+03
  4.02965E+03  1.54992E+03 -1.59069E+03  8.66831E+02  2.35766E+03  2.15212E+03  1.99167E+03 -2.50904E+03
  4.36798E+03 -4.86255E+03  6.74655E+03  8.36766E+02  5.55707E+03  4.17711E+03  7.71228E+03  3.45159E+03
  2.31492E+03  1.08867E+04 -1.04010E+04  1.06600E+04 -1.89005E+04  7.11920E+03 -6.47052E+03 -6.03975E+03
 -8.50026E+03 -7.35479E+03 -1.58617E+03 -1.20821E+03  2.27021E+03 -8.76835E+02  4.70670E+03 -2.10360E+03
  1.85544E+03  2.06009E+03 -3.25786E+03 -9.71668E+02  3.35735E+03  3.55205E+02 -2.41622E+03 -2.23677E+03
  4.15263E+03  3.32370E+02 -4.05953E+02  4.84921E+03 -4.29143E+03  3.35918E+03 -5.47960E+03  3.84195E+03
 -8.16234E+03 -1.49642E+03 -6.50111E+03 -3.41592E+03 -1.75318E+03 -4.86792E+03 -2.03978E+03 -9.50905E+03
  8.70580E+03 -4.42299E+03  8.32249E+03  5.68230E+03  4.66027E+03  4.92598E+03  1.64533E+03  7.95220E+03
 -2.43220E+03  6.13000E+03  3.79980E+03 -2.71117E+02 -4.68222E+02 -6.92399E+02 -2.06120E+03 -5.21291E+03
  2.21210E+03 -1.02085E+03  4.18950E+02  3.38359E+03 -7.26446E+03 -7.18677E+02 -7.85243E+02  4.03128E+03
 -9.16955E+02 -1.05148E+02 -1.92374E+03 -7.54664E+03  4.20993E+03 -8.23737E+03  3.48469E+03 -1.26949E+03
  4.84098E+03  2.95668E+03  1.28362E+03  3.37226E+03 -2.50945E+03  6.09167E+03 -2.46707E+03  3.89570E+03
 -1.97255E+03  6.36020E+02 -3.59547E+03 -3.48718E+03  6.46618E+02 -3.23439E+03  2.91066E+03 -3.59491E+03
  4.96375E+03 -1.94461E+02  1.87375E+03  3.75345E+02  2.77261E+03  1.18661E+03 -1.42362E+03 -1.27883E+03
  2.93405E+03 -3.00378E+02  2.26980E+03  1.00479E+03  6.06335E+03 -2.40981E+03  1.94957E+03  4.60147E+03
 -7.44939E+03  3.33765E+03 -2.89849E+03  5.83929E+03 -4.69872E+03 -1.25526E+03 -3.28372E+03  1.21919E+03
 -2.60248E+03 -6.67276E+03  1.30376E+03 -5.52216E+03  3.91084E+03 -7.52268E+03  6.51960E+03 -4.47720E+02
  5.05899E+03  4.02989E+03  3.08643E+03  6.62625E+02 -5.12019E+02 -1.74778E+03 -5.27369E+02 -3.46484E+03
 -3.79087E+03 -1.94775E+02  4.23293E+03 -1.34562E+03  4.58653E+03 -1.77766E+03  4.24666E+03  1.57070E+03
  2.36628E+03  2.54555E+03  4.40567E+02 -8.94431E+02 -2.60633E+03  3.21249E+03 -1.44907E+03 -1.91264E+03
 -1.13733E+03 -1.77569E+03  3.09988E+03 -1.10283E+02  2.00824E+03  5.51099E+02  1.73353E+03  6.29034E+03
 -3.48677E+03  6.27046E+03 -5.32579E+03  5.89248E+03 -4.10231E+03  3.02867E+02  1.23146E+03  2.00277E+03
 -4.11938E+03 -5.69190E+02  3.93938E+02 -7.23006E+02  3.11151E+03  2.57292E+03 -3.23304E+03  3.45546E+03
 -1.11935E+03  1.09704E+03 -4.10663E+03  3.94306E+03 -1.68659E+03 -8.12622E+03 -3.44882E+01 -1.52810E+03
  5.60641E+03 -1.39853E+01 -1.27558E+03  4.49336E+03  5.92936E+03 -4.05234E+03  2.51343E+03 -3.29924E+03
  4.07481E+02 -9.63251E+02 -1.34294E+03  1.74048E+03  3.41679E+03  9.24583E+02  7.60358E+02 -2.82233E+02
  1.90956E+03 -5.24479E+01  5.08491E+03 -1.79411E+02  2.28723E+03 -1.75043E+03  6.55056E+02  2.77999E+03
 -3.89794E+03  3.67412E+03  1.74121E+03 -9.26784E+02  3.00349E+03 -6.32127E+02 -2.66657E+02 -4.78483E+02
 -1.60944E+03 -6.22704E+02  3.76682E+03  4.63512E+03  1.20563E+03 -1.99745E+03 -3.28032E+03 -1.38094E+03
 -6.55290E+02  3.18421E+03 -5.12218E+03  1.60355E+02 -5.28989E+02 -1.67248E+03  3.08263E+03 -1.27931E+03
 -2.73443E+03  2.21293E+03 -2.70545E+03 -8.15822E+02 -3.21601E+03  4.53604E+02 -8.33277E+03 -5.73887E+02
 -3.02887E+03 -6.80433E+03  1.42916E+03 -4.75246E+03  5.92274E+03 -1.41820E+03  5.90140E+03 -1.25130E+03
  4.08337E+03  2.24945E+03  9.21548E+02  9.78037E+02  2.02693E+03  6.57752E+03 -5.89984E+03 -1.63926E+03
 -1.88000E+03 -3.98959E+03  1.44922E+03 -6.79750E+02  3.86144E+03  6.85559E+03 -1.58044E+03  3.70519E+03
  3.50453E+01  1.25427E+03 -4.49647E+02 -1.04177E+03  1.51859E+03  1.54962E+03 -1.02998E+03  6.77619E+02
  1.07890E+02  1.94546E+03 -4.99539E+03 -1.37673E+03  3.32752E+03 -4.48187E+02  3.66405E+03 -2.29035E+03
 -3.22958E+03 -8.68552E+01 -1.03035E+02 -3.22259E+02 -3.69442E+03 -1.68738E+03 -7.05733E+02  9.27915E+02
 -1.52557E+03 -1.33816E+03  1.43178E+03  2.06422E+03  3.29891E+03 -5.35983E+03  1.58133E+02  2.64159E+03
  1.93119E+03 -1.01245E+03  1.53538E+03  1.28546E+02  1.45157E+03 -2.41967E+03  2.18753E+03 -1.89853E+03
  2.92640E+03  2.06522E+03 -2.48970E+03 -2.67438E+03 -2.15201E+03  2.44684E+03  2.62397E+03  7.03139E+02
  5.46666E-01 -1.39125E+03 -1.68647E+03 -2.10921E+03 -3.15087E+03 -1.67366E+02  5.86398E+02  1.39240E+03
  2.97485E+03 -2.19523E+03 -1.09276E+03 -3.41692E+03  1.49287E+03  1.28427E+03 -9.66640E+02  4.31144E+03
 -3.97501E+03  2.96259E+03 -4.02654E+03 -2.72125E+02  5.01260E+02  2.70269E+03 -3.85942E+03  1.54685E+03
 -3.65660E+03  7.51672E+00 -1.45775E+03 -2.50132E+03  1.89016E+03 -1.61789E+03 -3.30202E+03 -2.87802E+03
 -1.50125E+03  9.52120E+02 -3.34036E+02 -5.87069E+03  3.15975E+03 -7.93445E+03 -4.26147E+03 -1.86954E+03
  1.02617E+03  1.45656E+03  1.81791E+03  4.84715E+02 -1.60504E+03  7.57213E+02 -3.14059E+03  2.45327E+03
