 $NMID ID='MM_0lb_SNR50_20hz_g55_53.RAW', FMTDAT='(8E13.5)'
 TRAMP=1., VOLUME=1. $END
  3.08185E+05  1.03729E+03  3.36503E+05  2.50437E+05  8.57157E+04  3.37419E+05 -1.29554E+05  2.50553E+05
 -1.91698E+05  8.55366E+04 -1.11775E+05 -3.10756E+04  6.95107E+02 -5.28738E+04  5.54224E+04 -4.86932E+02
  3.43975E+04  5.71356E+04 -1.40379E+04  7.49708E+04 -5.80398E+04  6.44877E+04 -8.75142E+04  3.35940E+04
 -7.64581E+04 -1.15298E+04 -5.26662E+04 -4.96920E+04 -1.16827E+04 -7.00630E+04  2.70660E+04 -4.59173E+04
  4.07036E+04  3.74700E+03  1.85707E+04  5.05880E+04 -3.52229E+04  4.95467E+04 -6.76903E+04 -8.61447E+02
 -5.49796E+04 -5.78326E+04 -7.55081E+03 -7.23062E+04  3.40553E+04 -5.36161E+04  4.52981E+04 -1.59325E+04
  4.10217E+04  6.78235E+03  3.13956E+04  1.99059E+04  1.59431E+04  2.53500E+04 -9.36974E+03  2.64572E+04
 -2.15729E+04  1.15847E+04 -1.53587E+04 -2.43205E+03  2.01022E+03 -8.57906E+03  2.46527E+04  9.99288E+03
  8.59754E+03  3.06190E+04 -3.08185E+04  3.48961E+04 -6.13357E+04  5.82122E+02 -5.56858E+04 -4.20409E+04
 -1.16408E+04 -5.99277E+04  3.70509E+04 -4.68272E+04  5.68464E+04  9.44457E+02  3.32215E+04  2.79277E+04
 -1.12319E+04  3.21766E+04 -2.83407E+04  1.45846E+04 -3.09727E+04 -6.48175E+03 -1.62189E+04 -1.25988E+04
 -2.30510E+03 -8.31228E+03 -3.11758E+03 -1.73240E+04  8.15550E+03 -2.18347E+04  1.83379E+04 -1.28700E+04
  8.97001E+03  4.85207E+03 -6.73107E+03  1.38237E+04 -1.99226E+04 -1.01865E+03 -7.40128E+03 -2.74246E+04
  2.33540E+04 -4.01539E+04  4.28877E+04 -1.80419E+04  4.20230E+04  1.64807E+04  1.31170E+04  4.45992E+04
 -1.21344E+04  3.01270E+04 -2.50803E+04 -1.23438E+03 -1.29951E+04 -2.55533E+04  1.97995E+04 -3.19658E+04
  3.58469E+04 -6.44501E+03  3.34665E+04  1.95760E+04  1.54856E+04  4.30177E+04 -5.60452E+03  4.79682E+04
 -3.15646E+04  2.88518E+04 -3.22442E+04  1.02310E+04 -4.12646E+04 -1.77862E+04 -2.80444E+04 -3.47696E+04
  7.21805E+03 -3.09983E+04  3.09504E+04 -1.21274E+04  3.03175E+04  1.04280E+04  3.04205E+03  1.81202E+04
 -1.61471E+04  4.37215E+03 -7.75558E+03 -8.31030E+03  5.80232E+03 -1.15014E+04  1.70301E+04  6.78970E+03
  1.18312E+04  2.48800E+04 -6.00512E+03  2.76564E+04 -2.04284E+04  9.62439E+03 -2.48009E+04 -9.03260E+03
 -2.01637E+04 -1.57881E+04 -5.77933E+03 -1.66003E+04  4.03339E+03 -1.54022E+04  1.67090E+04 -1.30512E+04
  1.99649E+04 -8.60446E+03  3.05835E+04  1.70042E+03  2.28853E+04  1.90636E+04  3.17986E+03  3.48328E+04
 -1.04160E+04  2.32290E+04 -2.28810E+04  8.30461E+03 -2.06799E+04 -1.28035E+04 -3.98058E+03 -1.46539E+04
  4.04688E+03 -5.76222E+03 -2.27566E+03  9.65905E+03 -1.52805E+04  6.27106E+03 -1.13103E+04 -1.03689E+03
 -6.54212E+03 -1.74140E+04  7.36425E+02 -1.70445E+04  1.00532E+04 -1.46657E+04  1.14284E+04 -2.91545E+03
  7.89212E+03  8.61485E+03 -8.54793E+02  1.38074E+04 -1.15539E+04  9.35028E+03 -1.60893E+04 -3.69331E+03
 -9.13371E+03 -1.14089E+04 -4.30058E+03 -1.60958E+04  5.91505E+03 -1.31084E+04  1.70798E+04 -6.95153E+03
  1.28440E+04  4.52376E+03  1.21897E+04  2.30125E+03  3.62261E+03  4.71960E+02  9.07659E+03  4.26532E+02
  1.13107E+04  3.46596E+03  1.61420E+04  1.35470E+04  4.92375E+03  2.78123E+04 -2.83301E+03  2.40453E+04
 -1.27773E+04  1.88139E+04 -2.45927E+04  9.43780E+03 -2.71312E+04 -6.73186E+02 -2.21080E+04 -1.44824E+04
 -1.07791E+04 -2.05464E+04  9.43550E+03 -2.07544E+04  1.54750E+04 -1.42761E+04  1.80723E+04  2.64938E+03
  5.75070E+03  1.09239E+04 -9.90684E+03  1.06528E+04 -1.40863E+04  2.59253E+03 -7.84214E+03 -8.56491E+03
  1.57132E+01 -7.65937E+03  4.02025E+03 -1.12568E+04  1.06152E+04 -2.36863E+03 -2.64957E+03  3.67480E+03
 -7.27289E+03  6.15354E+03  8.26249E+02 -2.42413E+03  2.81910E+03 -1.37385E+04  9.68887E+03 -4.43659E+03
  1.33270E+04 -4.84600E+03  1.20081E+04  3.34250E+03  9.55982E+03  1.03405E+04  5.89372E+03  1.15384E+04
  1.22305E+03  1.65131E+04 -6.81811E+03  1.14561E+04 -1.05662E+04 -8.10724E+02 -8.73452E+03  3.43540E+01
 -6.46021E+03 -3.12204E+03  2.12294E+03  1.79740E+03 -1.74076E+03  2.81253E+03 -4.51738E+03  4.27620E+03
 -5.35715E+03 -1.33796E+03 -7.83827E+03 -6.76573E+03 -2.71019E+03 -5.49611E+03  4.49771E+03 -7.66970E+03
  5.49558E+03 -3.79690E+03  6.67811E+03  6.45553E+02  1.38611E+03 -1.16191E+03 -1.37074E+03 -6.84418E+02
 -2.23879E+03 -4.67252E+03 -2.80705E+03 -6.37747E+03  4.17802E+03 -9.83321E+03  7.44109E+03 -3.83679E+03
  1.82637E+04  1.98643E+03  4.26829E+03  5.98811E+03  3.44098E+03  9.48031E+03 -4.60389E+03  5.42781E+03
 -2.68010E+03  1.41008E+03 -1.24788E+03 -1.33702E+03  1.77913E+03 -3.66108E+03  4.64235E+03 -4.66746E+02
  4.16914E+03  5.03690E+03  2.11561E+03  1.10579E+04 -4.20435E+03 -9.58192E+02 -6.90611E+03  4.12974E+03
 -6.81062E+03 -5.47578E+03  1.22419E+03 -8.57004E+03  1.01103E+04 -7.55491E+02  2.78382E+03  3.16926E+03
  7.30113E+02  2.09615E+03 -1.74255E+03  6.92024E+03 -6.71428E+03 -1.60395E+03 -7.05856E+03 -4.40786E+03
 -3.08089E+03 -4.72631E+03  1.52230E+03 -6.91228E+03  1.03392E+04 -3.17664E+03  7.97856E+03 -3.68783E+03
  6.20882E+03  5.47202E+03 -1.18678E+03  1.11412E+04  1.86199E+03  3.97338E+03 -2.79449E+03 -1.42027E+03
 -6.08172E+03 -1.44158E+03 -4.64813E+03 -4.15000E+03 -8.26294E+02 -5.35490E+03  2.90690E+03 -4.12782E+02
 -1.40707E+03 -2.20066E+03  2.18885E+03  2.98240E+03  5.72507E+03 -3.39185E+01 -2.94101E+03  3.54362E+02
  3.17553E+03 -2.94434E+02  6.27540E+03 -1.66292E+03  3.06646E+03 -1.34108E+03  4.62767E+03  7.14153E+03
  4.94093E+02  1.20728E+04 -1.02846E+04  7.98466E+03 -4.94524E+03 -1.45844E+03 -6.68110E+03  6.77815E+02
 -7.00104E+03 -7.89944E+03 -1.90253E+03 -2.83733E+03  2.10730E+03 -5.46726E+03  1.45361E+03 -2.67240E+03
  3.54661E+03  1.84205E+03 -9.55432E+02  1.54778E+03  4.19822E+03 -1.51107E+03  3.86325E+03 -1.71752E+03
  4.30448E+03  2.21763E+02 -1.57963E+03  8.53071E+02 -5.91032E+03 -6.03492E+02 -3.90895E+03 -1.18960E+03
 -9.46828E+02  5.43451E+02  5.08400E+02 -2.91955E+03 -2.14461E+03 -7.11830E+03  2.69949E+03 -3.71413E+03
  5.24263E+03  4.93900E+02  5.08821E+03  2.70249E+03  5.73700E+03  2.57386E+03  1.17479E+03  5.81687E+03
 -1.61049E+03  3.57455E+03 -2.31846E+03  2.74604E+03 -4.16071E+03 -8.28220E+02 -3.73466E+03 -1.10483E+03
 -2.19208E+03  2.14554E+03  3.04240E+03 -2.97882E+02 -9.65160E+02  2.86705E+03 -2.91666E+03 -9.35365E+02
 -3.35018E+03 -2.16969E+03  1.37971E+03 -9.73161E+02  4.64272E+03 -4.04990E+03  5.02438E+03 -4.36680E+02
  3.04428E+02  3.54043E+03 -9.71884E+02  5.15631E+03 -2.47467E+03  4.29082E+03 -5.00269E+03 -2.11768E+03
 -3.11109E+03  3.19785E+03 -1.49617E+03 -5.34154E+03  4.80292E+02 -6.97128E+02  4.01846E+03 -2.59629E+03
 -1.49607E+02 -3.09954E+03 -1.27444E+03 -3.60917E+02 -2.51923E+03 -1.73949E+03 -1.24261E+02 -2.00669E+03
  4.94172E+03  4.68925E+03  2.21396E+03  2.53919E+03 -8.16369E+02 -2.17924E+03  5.11749E+03 -2.06703E+02
 -2.21470E+03  2.63124E+03 -5.48774E+02  3.31605E+03 -1.16786E+03 -1.34233E+03 -3.25184E+03 -1.06889E+03
 -3.93230E+03 -5.90333E+03  2.99688E+03 -6.27526E+03 -4.50991E+03  2.19428E+03  5.48380E+03  1.91428E+03
  1.31567E+03 -2.17818E+03 -1.87195E+03  1.73765E+03  1.04662E+03 -1.01968E+03 -3.90816E+02  1.76115E+03
 -3.15310E+03 -5.51163E+03  3.89565E+03  8.20228E+02 -1.33124E+03 -1.33582E+03  1.63995E+03 -1.21817E+02
 -8.55007E+02 -3.22817E+02 -4.69363E+02  3.25226E+03 -5.26729E+02  1.45797E+03  5.44478E+03  2.11871E+03
 -3.99667E+03  2.41545E+03  7.00917E+03  4.48691E+02  2.38569E+03  5.17107E+03 -3.25528E+03  5.88372E+03
 -4.07021E+03 -4.25886E+03 -2.24262E+02  1.50179E+03 -1.45120E+03 -2.43731E+02 -8.49499E+02  3.98432E+03
  2.39340E+03 -6.08542E+01 -2.22882E+03  1.13626E+03  8.72247E+02  1.03824E+03  1.48469E+02 -2.18708E+02
 -5.45318E+02 -2.39605E+03 -2.82316E+03 -1.81024E+02  6.96667E+02 -2.37249E+03  3.15946E+03 -1.21740E+03
  2.62314E+03 -5.26749E+03 -1.84972E+03 -1.10316E+03 -6.91043E+02  2.77406E+03 -4.94414E+03  9.97844E+02
 -5.37432E+03  2.49667E+02 -3.64274E+02 -2.07317E+03  8.94294E+02 -1.26776E+03  3.66995E+03 -2.09367E+03
 -1.33649E+03 -2.66642E+03  2.65907E+03  1.32879E+03  6.25883E+03 -9.91227E+02 -7.40064E+02  2.95185E+03
 -1.96874E+03  4.28117E+03 -3.50312E+03  9.80838E+02 -2.57678E+03 -3.23884E+02 -3.24913E+02  3.27709E+03
 -1.41619E+03 -2.91749E+03 -4.93562E+02  3.72931E+03  8.73713E+02 -1.42220E+03  1.98895E+03  3.11842E+03
 -1.27849E+03 -1.86673E+03  3.92885E+03  4.22606E+03  1.11784E+03 -1.01524E+03 -2.91081E+03  1.71739E+03
 -3.71099E+02 -1.38261E+03  2.40137E+03  5.26689E+03  8.20869E+01 -1.22623E+03 -2.76624E+03 -3.47802E+03
  1.53814E+03  6.81804E+02 -1.19555E+03  2.68355E+03 -1.75435E+03 -3.00655E+03  1.48674E+03 -1.75152E+03
  2.85241E+03 -1.66727E+03 -1.44057E+02  1.66578E+03  3.23578E+03  2.59725E+03 -1.88708E+03 -2.94523E+03
 -2.39682E+03  4.67653E+02 -1.93235E+03  1.32505E+03  8.16758E+02  6.87880E+02 -9.36407E+02 -7.03074E+02
 -3.27189E+03 -4.03192E+02  2.20956E+03  2.72017E+03  1.35185E+03  1.36981E+03 -2.87755E+03  2.02985E+03
 -1.69948E+03 -1.49660E+03 -3.42894E+03  6.89311E+02 -1.96126E+03  3.05243E+03 -5.03221E+02  1.10260E+03
  3.55840E+02  4.60905E+03  8.15256E+02 -1.41395E+03 -4.60036E+03  8.25848E+03 -1.05703E+03 -7.23049E+02
 -1.70508E+03 -6.44277E+03  2.60204E+03 -1.31856E+03 -1.48462E+03  3.98608E+03  1.03062E+03  1.08386E+03
  2.59934E+03  1.87808E+03  4.38372E+02  5.51786E+02  2.06573E+02 -3.77098E+03  2.38971E+03 -3.38169E+02
  2.80679E+03  8.33147E+02 -4.56973E+02  1.93625E+03  1.64291E+03  2.65904E+02  3.09841E+03 -2.57881E+03
  6.55386E+02  1.27682E+03  1.06075E+03 -2.71020E+03 -8.27257E+02 -1.65603E+03  1.67882E+03  1.27220E+03
  2.07669E+03 -4.37006E+01 -3.53314E+03 -7.78059E+02  3.76211E+03  1.56865E+03 -6.41333E+03 -7.29680E+02
 -1.57531E+03 -1.10665E+03 -3.08469E+03 -2.99556E+03 -8.65147E+01 -5.66635E+02  2.45929E+03  2.66258E+02
  9.01363E+02 -3.30067E+03 -3.67302E+03 -3.05448E+03 -2.15013E+02 -1.32351E+03 -3.54807E+02 -1.61914E+03
  1.88872E+03  8.15864E+01 -3.23516E+00  6.56076E+02 -1.85173E+03 -3.84062E+02 -4.36886E+03 -4.48897E+03
  3.55030E+03  1.10373E+03  4.17363E+03  4.29871E+02 -1.21831E+03 -2.15716E+03 -4.71671E+03 -4.06313E+03
