 $NMID ID='MM_0lb_SNR50_16hz_g40_75.RAW', FMTDAT='(8E13.5)'
 TRAMP=1., VOLUME=1. $END
  3.11953E+05 -3.39122E+02  3.40353E+05  2.45718E+05  8.71549E+04  3.41730E+05 -1.34710E+05  2.51076E+05
 -1.88241E+05  8.34675E+04 -1.11614E+05 -3.22734E+04  4.18635E+03 -4.79107E+04  5.31317E+04  4.52812E+03
  3.79775E+04  5.84737E+04 -1.50986E+04  7.43178E+04 -6.28086E+04  5.79567E+04 -8.39034E+04  3.38419E+04
 -7.92593E+04 -1.40536E+04 -5.85974E+04 -5.07076E+04 -1.32463E+04 -6.69609E+04  2.54795E+04 -4.89579E+04
  3.79925E+04  4.52352E+03  1.40170E+04  4.51219E+04 -3.29567E+04  4.19867E+04 -6.86873E+04  1.41970E+03
 -5.23952E+04 -6.02503E+04 -8.23820E+03 -7.62850E+04  3.86884E+04 -5.64953E+04  4.73337E+04 -1.48267E+04
  4.25346E+04  1.23390E+04  3.35750E+04  2.29022E+04  1.15305E+04  3.20559E+04 -6.06604E+03  2.42196E+04
 -2.02769E+04  1.37539E+04 -1.90356E+04 -5.63236E+03  3.79387E+03 -6.99419E+03  1.88932E+04  1.26877E+04
  8.16478E+03  3.48667E+04 -3.44435E+04  3.29118E+04 -6.28771E+04  4.29943E+03 -5.75591E+04 -4.58042E+04
 -1.68381E+04 -6.47702E+04  4.17633E+04 -5.07026E+04  5.61907E+04 -6.53301E+03  3.53113E+04  2.87468E+04
 -6.57735E+03  3.50067E+04 -2.85455E+04  1.56533E+04 -3.20241E+04 -3.82469E+03 -1.86692E+04 -9.42356E+03
 -3.01943E+03 -1.18104E+04 -9.13847E+02 -1.53618E+04  7.77671E+03 -2.40782E+04  1.52825E+04 -1.27108E+04
  7.02336E+03  7.35736E+03 -5.79417E+03  1.25685E+04 -2.13270E+04  2.24267E+00 -1.10740E+04 -3.10511E+04
  1.96284E+04 -3.93020E+04  4.99451E+04 -1.75869E+04  4.54983E+04  1.94413E+04  1.23667E+04  4.12850E+04
 -1.71709E+04  2.63177E+04 -2.28402E+04  3.11299E+03 -6.36374E+03 -2.54772E+04  2.08998E+04 -2.99915E+04
  3.95088E+04 -6.68094E+03  3.75048E+04  1.95249E+04  1.92085E+04  4.21204E+04 -4.07633E+03  4.81227E+04
 -3.70212E+04  3.32134E+04 -3.69669E+04  9.44033E+03 -4.06633E+04 -9.61730E+03 -2.69575E+04 -3.28546E+04
  4.73979E+03 -3.40796E+04  3.01426E+04 -1.66817E+04  2.90713E+04  9.15260E+03  4.43167E+03  1.99980E+04
 -1.01380E+04  5.29779E+03 -1.19376E+04 -1.06025E+04  9.96170E+03 -7.25920E+03  1.81528E+04  4.31208E+03
  1.54052E+04  2.53447E+04 -5.67410E+03  1.94843E+04 -1.97290E+04  1.15419E+04 -2.45084E+04 -2.99084E+03
 -1.89207E+04 -2.10728E+04 -5.78435E+03 -1.88558E+04  6.87871E+03 -1.51473E+04  1.64776E+04 -1.87129E+04
  2.04657E+04 -1.35099E+04  3.05187E+04  3.26748E+02  1.98214E+04  1.71947E+04  3.32197E+03  3.14687E+04
 -1.53426E+04  2.60561E+04 -3.14573E+04  7.19751E+03 -1.92933E+04 -7.96251E+03 -6.15050E+03 -1.25573E+04
  4.82898E+03 -9.92211E+02 -5.67871E+03  5.63156E+03 -1.05208E+04  5.01949E+03 -1.84473E+04 -4.89612E+03
 -9.51384E+03 -1.99597E+04  7.12283E+03 -2.32127E+04  1.32256E+04 -1.45581E+04  1.84007E+04  1.09013E+02
  7.25668E+03  1.00587E+04  3.27093E+03  1.29201E+04 -9.79600E+03  1.44984E+04 -1.99227E+04  1.23652E+02
 -1.23675E+04 -1.61933E+04 -4.07469E+02 -1.76053E+04  9.51001E+03 -1.07311E+04  1.28217E+04 -5.79185E+03
  1.67674E+04 -1.46833E+03  1.46774E+04  8.39673E+03  7.78780E+03  1.28570E+03  8.43718E+03 -5.61239E+02
  1.41682E+04 -1.67721E+03  1.33921E+04  1.86319E+04  1.36644E+04  2.38661E+04 -4.57292E+03  3.00010E+04
 -1.78178E+04  2.09346E+04 -2.57108E+04  1.52310E+04 -2.94513E+04 -3.94181E+03 -2.11889E+04 -1.61475E+04
 -6.80616E+03 -2.06757E+04  1.11674E+04 -2.08093E+04  1.95798E+04 -1.40580E+04  1.44394E+04  2.83023E+03
  6.40631E+03  1.50146E+04 -7.42768E+03  7.89445E+03 -1.51529E+04  2.36664E+03 -1.58299E+04 -1.14533E+04
  1.59098E+03 -1.25743E+04  6.12953E+03 -1.28155E+04  6.53212E+03 -1.22684E+03  2.10425E+03  8.74897E+03
 -6.84584E+03  9.86544E+02 -2.51661E+03 -1.27190E+03  1.76188E+03 -1.20725E+04  1.17649E+04 -1.43317E+04
  1.66074E+04 -3.68282E+03  1.37417E+04  3.85647E+03  1.47108E+04  6.27249E+03  6.96507E+03  1.77771E+04
  2.76575E+03  1.72750E+04 -1.23259E+04  1.22300E+04 -1.29268E+04  4.82209E+03 -5.25115E+03  1.57063E+03
 -2.17030E+03 -3.27612E+03  1.32375E+02  2.99060E+03  1.98552E+03 -1.41668E+03 -7.06838E+03 -7.75602E+02
 -9.60389E+03  2.66878E+02 -1.05714E+04 -5.00439E+03  1.87177E+02 -1.42966E+04  3.65473E+03 -6.66091E+03
  6.21198E+03 -5.85530E+03  5.18685E+03  4.11292E+03 -1.50949E+03  3.88275E+03 -1.58569E+03  7.32601E+02
 -6.73653E+03 -7.42553E+03 -1.27415E+03 -6.25230E+03  5.61602E+03 -1.32531E+04  1.39998E+04 -6.26997E+03
  1.40990E+04  1.95244E+03  7.22516E+03  7.75462E+03  7.90374E+02  1.18993E+04 -9.37409E+03  5.95142E+03
 -7.43629E+03  3.27706E+03 -5.97569E+03 -3.97794E+03  5.59724E+01 -5.95507E+03  3.16539E+03 -3.72102E+03
  2.88268E+03  5.55661E+03  5.18043E+02  5.92939E+03 -6.40272E+03  6.61166E+03 -1.40759E+04  2.41704E+03
 -7.32541E+03 -4.89589E+03  1.04903E+03 -7.39697E+03  3.85650E+03 -1.10251E+03  6.57691E+03  9.18353E+02
  1.47355E+03  4.19558E+03 -4.40240E+03  8.11464E+03 -6.77767E+03  5.40587E+03 -2.19350E+03 -1.20315E+03
 -3.39065E+03 -5.59613E+03  5.67845E+01 -9.52965E+03  9.26313E+03 -4.01624E+03  8.09858E+03 -2.06067E+03
  7.50878E+03  9.14703E+03  1.03135E+03  8.88159E+03 -7.30825E+03  4.99239E+03 -7.37519E+03  1.64391E+03
 -9.55646E+03 -4.87734E+03 -1.27185E+03 -3.21222E+03  2.58197E+03 -3.76628E+03  1.21638E+03 -7.20823E+03
  3.86964E+03 -5.75384E+02 -2.86308E+03 -1.70617E+03  3.51056E+03  8.12131E+02  4.63393E+03 -1.17697E+03
  6.90742E+03 -1.69016E+03  8.94274E+03  2.21354E+03  3.03598E+03  3.85101E+03  5.36691E+03  8.55596E+03
 -8.06605E+02  5.80760E+03 -7.70252E+03  9.10309E+03 -1.39423E+04  2.50987E+03 -7.31602E+03 -3.60936E+03
 -4.54497E+03 -6.78340E+03  2.05683E+03 -2.98652E+03  4.28190E+02 -3.83325E+03  8.78352E+02 -3.45572E+03
  2.19188E+03 -2.93928E+03  6.39571E+03 -5.92334E+03  6.23740E+03 -3.69755E+03  1.69512E+03  1.95984E+02
  2.42076E+03  1.06991E+03 -1.95510E+03 -8.82145E+02 -3.05572E+03  4.82656E+03 -5.28491E+03  3.53216E+03
 -7.71123E+03  6.22365E+02 -5.34408E+02 -6.47642E+03  1.13803E+03 -7.46016E+03  5.11652E+03 -5.59659E+03
  6.15513E+03 -4.40624E+03  7.61087E+03  3.13438E+02  3.54985E+03  5.03810E+03  1.26906E+03  8.12780E+03
 -5.26210E+03  7.86799E+03 -3.57322E+03  6.01998E+03 -4.02308E+03 -2.52370E+03 -2.95550E+03  3.22604E+03
  3.29914E+03 -3.56885E+02  1.15773E+03  3.41100E+03 -5.04983E+03  4.11227E+03 -3.79777E+03 -5.19572E+02
 -4.32496E+03 -3.36182E+03 -3.68487E+02 -1.20593E+04  9.44202E+02 -4.16488E+02  6.25364E+02 -2.45803E+03
  7.22359E+03  1.84329E+03 -7.31950E+02  5.66053E+03  4.13223E+01  6.94502E+03 -3.29308E+03  2.35020E+03
 -1.17035E+04  3.89782E+03 -5.01818E+03 -2.28329E+03  1.50466E+03 -8.02164E+03 -1.72035E+03 -3.41905E+03
  5.22859E+03 -4.26908E+03  7.50403E+03  2.45237E+02 -2.17504E+03  3.85052E+03  1.96183E+02  2.51464E+03
  3.41139E+03 -3.38270E+02  1.17959E+03  2.91455E+03  3.54568E+03  2.02914E+03  1.04427E+03  2.53287E+03
 -8.79286E+02  9.06028E+03 -1.14794E+03  3.70614E+03 -2.68775E+03 -2.87208E+02 -7.10554E+03 -2.00951E+03
 -1.84911E+03 -4.74850E+03  1.79594E+03 -1.07335E+04  5.39452E+03 -3.37990E+03  2.86411E+03 -2.82708E+01
  1.13545E+03  4.71011E+03 -1.03486E+03  3.33727E+03  1.83453E+02  2.63994E+03 -3.44303E+03  1.07091E+03
 -1.61510E+03 -5.70973E+02 -1.88513E+02 -2.39460E+03  2.41924E+03 -3.04427E+02  7.05218E+03  3.09057E+03
  2.84336E+02 -4.56187E+03  7.31739E+02  2.77426E+03  6.19788E+03 -1.24760E+03  2.00109E+03 -3.89698E+03
  1.97981E+03  3.97603E+02  2.87157E+03  8.42018E+03  6.07286E+03  3.96068E+03 -1.50091E+03  4.19731E+03
 -3.17604E+03  6.68572E+03 -3.73076E+02  3.68556E+03 -2.30448E+03  9.42955E+02 -1.88005E+03 -1.83229E+03
  5.35822E+02  1.74035E+03  1.01484E+03  4.58766E+03 -1.77510E+03  3.15159E+03  1.49381E+03  2.98080E+03
  4.92797E+02  4.47842E+03 -3.22943E+03 -3.29811E+03 -3.01970E+03 -2.01251E+03  9.93743E+02 -3.74756E+03
  2.24858E+02 -2.76569E+03  5.89955E+03 -1.69512E+03  1.54707E+03 -1.50850E+03 -1.83400E+02 -3.08242E+02
  2.55421E+02 -5.21019E+03 -4.51699E+03 -4.41494E+03 -1.10817E+03  6.78141E+02  7.12062E+02 -2.29951E+03
  1.82846E+03 -2.12352E+03  5.38467E+03  4.41544E+03 -3.14207E+03  5.87612E+03  7.05123E+02 -1.60218E+02
 -4.42165E+03  3.31882E+03 -2.93321E+03  8.44505E+02 -3.75437E+03 -2.18743E+03  1.65010E+03 -5.53570E+03
  9.35647E+02 -5.15477E+03 -1.79458E+03  6.90234E+02  1.77036E+03  3.44517E+03 -1.18863E+03 -1.25328E+02
  2.30071E+03  4.42586E+03  2.35987E+03  2.66646E+03 -4.40203E+02 -2.80940E+03 -2.62531E+03  4.23426E+03
  5.21346E+02  3.01448E+03 -2.43162E+03  3.26583E+03 -3.26938E+03 -3.90229E+03 -1.37542E+03  1.78371E+03
 -5.86174E+03 -2.04721E+03  3.06512E+03 -2.38846E+03  3.79779E+02 -7.00597E+03  4.13648E+03 -2.77183E+03
  2.60204E+03 -3.94919E+03 -7.15808E+02 -7.60541E+02 -2.74234E+03  5.35323E+03 -3.38358E+03  9.26903E+02
 -6.24608E+02  5.19285E+03  1.04857E+03  2.56055E+03 -3.08779E+03 -7.60752E+02 -2.11877E+03  9.73726E+02
  1.93541E+03  3.49431E+03 -1.35262E+03  9.07780E+02 -1.21836E+03 -2.18377E+03  3.10104E+03 -2.66260E+03
 -7.49599E+02 -8.12942E+02 -1.44905E+03  2.32302E+03 -4.64265E+02 -2.48249E+03  8.38736E+02 -2.11882E+03
 -1.19253E+02  9.49740E+03 -3.23921E+03  1.22667E+03 -1.65443E+03 -6.03556E+02 -2.05653E+03 -3.02102E+03
 -2.18407E+03 -1.73610E+03  3.47770E+03 -3.64318E+03  2.03008E+03 -3.88671E+03 -5.72556E+02 -1.29239E+03
  1.17548E+03  3.20198E+03 -7.40426E+02 -9.42936E+02  1.62247E+03  8.75504E+02 -1.13725E+02  1.59091E+03
  1.47106E+03  6.13745E+03  2.35631E+02  1.24380E+03 -1.20714E+03  1.00347E+03  1.90363E+03  5.06606E+02
  3.48336E+03 -3.52550E+03  1.07605E+03  5.19930E+03 -2.06862E+03  1.94099E+03 -3.90659E+03 -2.07341E+02
  8.88349E+02 -3.42496E+03 -1.77096E+03 -2.47050E+03 -1.05801E+03 -1.92783E+03  3.28255E+03 -2.34168E+03
  5.71470E+02  5.78719E+02 -5.31752E+03 -2.50445E+02  3.67710E+03 -5.49813E+02  1.49146E+02  4.04368E+03
 -3.08237E+03 -1.50876E+03  2.12044E+03 -2.91050E+02 -9.33686E+02 -3.89629E+02 -1.89335E+03  2.18034E+03
 -2.83666E+03  2.64652E+03 -1.56060E+03 -4.16519E+02  8.47078E+02  1.83430E+03  1.42344E+02  2.99232E+03
 -1.98481E+03  6.04192E+02 -6.26529E+02  1.24425E+03  1.49284E+03 -4.27927E+02 -3.43804E+02  5.21554E+03
