 $NMID ID='MM_0lb_SNR50_17hz_g55_43.RAW', FMTDAT='(8E13.5)'
 TRAMP=1., VOLUME=1. $END
  3.04978E+05 -1.72382E+03  3.37675E+05  2.47828E+05  8.36999E+04  3.36650E+05 -1.38446E+05  2.49804E+05
 -1.91701E+05  8.37924E+04 -1.09870E+05 -3.64432E+04 -9.84138E+02 -5.12910E+04  5.45109E+04 -2.86428E+03
  3.74510E+04  5.37950E+04 -1.94118E+04  7.72204E+04 -5.89880E+04  6.42528E+04 -8.39415E+04  3.43079E+04
 -8.28801E+04 -1.44316E+04 -5.78398E+04 -4.93834E+04 -1.35390E+04 -6.68410E+04  2.90368E+04 -4.53996E+04
  4.02563E+04  6.69474E+03  1.76187E+04  4.85687E+04 -3.54235E+04  4.40300E+04 -6.67689E+04  1.66780E+03
 -5.57967E+04 -5.63451E+04 -7.46134E+03 -8.17030E+04  3.23639E+04 -5.51200E+04  4.63714E+04 -2.14939E+04
  4.10479E+04  8.83020E+03  3.33286E+04  2.69687E+04  1.59775E+04  2.95451E+04 -2.28456E+03  3.04279E+04
 -2.11946E+04  1.89644E+04 -1.26607E+04 -7.10545E+03  8.84701E+03 -5.57945E+03  2.24173E+04  1.21207E+04
  7.34405E+03  3.74623E+04 -3.61328E+04  3.26291E+04 -6.49230E+04  1.11926E+03 -5.25215E+04 -4.42585E+04
 -1.71679E+04 -5.99635E+04  4.16088E+04 -4.54645E+04  5.62187E+04 -1.36899E+03  3.29008E+04  3.42078E+04
 -3.76113E+03  3.35406E+04 -2.63287E+04  1.69035E+04 -2.66924E+04 -6.40708E+03 -1.54865E+04 -8.61391E+03
 -6.83458E+03 -1.10703E+04 -1.37518E+03 -1.93984E+04  2.69664E+03 -2.09944E+04  1.26090E+04 -1.22546E+04
  1.18820E+04  5.80310E+03 -6.09021E+03  1.50007E+04 -1.87636E+04 -1.97839E+03 -6.88399E+03 -3.33205E+04
  2.16629E+04 -3.73173E+04  4.52690E+04 -1.79665E+04  4.52877E+04  2.04028E+04  1.51330E+04  4.42294E+04
 -1.77911E+04  3.13380E+04 -2.13725E+04  1.95174E+03 -7.58773E+03 -2.70024E+04  2.13557E+04 -3.19183E+04
  4.21013E+04 -8.86299E+03  3.48919E+04  2.21173E+04  1.62932E+04  4.16782E+04 -5.39695E+03  5.05857E+04
 -2.76574E+04  3.17814E+04 -4.17172E+04  5.22237E+03 -4.09390E+04 -1.64044E+04 -2.38457E+04 -3.59524E+04
  8.78619E+03 -3.76174E+04  3.17113E+04 -1.35513E+04  2.79893E+04  1.03136E+04  5.13315E+03  1.75725E+04
 -1.59824E+04  7.83008E+03 -1.12480E+04 -8.82814E+03  1.08488E+04 -1.10740E+04  1.40516E+04  6.26834E+03
  1.15640E+04  1.85185E+04 -7.60131E+03  2.55939E+04 -2.60262E+04  1.27399E+04 -2.63699E+04  8.11792E+02
 -1.77111E+04 -1.86775E+04 -8.12636E+03 -1.87835E+04  7.03369E+03 -1.65975E+04  1.34572E+04 -1.81564E+04
  2.61135E+04 -1.18447E+04  2.96533E+04  4.08695E+03  2.20766E+04  1.61506E+04  6.61740E+03  3.23576E+04
 -1.33037E+04  2.76674E+04 -2.66330E+04  1.12590E+04 -1.80254E+04 -5.09923E+03 -7.99656E+03 -1.35537E+04
 -3.87410E+03 -4.91349E+03 -8.44988E+02  1.17867E+04 -1.76393E+04  5.42461E+03 -1.62695E+04 -8.12867E+03
 -8.67505E+03 -1.78025E+04 -2.35491E+02 -1.84941E+04  1.07615E+04 -1.33169E+04  1.60989E+04  9.45348E+02
  1.07040E+04  1.06337E+04  1.52246E+02  1.87542E+04 -1.28148E+04  1.10143E+04 -1.96076E+04 -3.42064E+03
 -1.16245E+04 -1.78433E+04 -3.48833E+03 -2.30442E+04  7.90899E+03 -1.68956E+04  1.55131E+04 -1.12431E+04
  1.33735E+04 -1.12347E+03  1.02181E+04  1.81334E+03  1.01373E+04 -8.57340E+02  8.69052E+03 -3.61625E+03
  1.88907E+04  4.75164E+03  1.38351E+04  1.43883E+04  1.21117E+04  2.51133E+04 -1.74218E+03  3.04715E+04
 -1.36897E+04  2.35433E+04 -2.72479E+04  9.88786E+03 -2.98097E+04 -1.40643E+03 -2.43383E+04 -1.77491E+04
 -1.29740E+04 -2.23384E+04  1.10821E+04 -2.30094E+04  2.31058E+04 -1.58381E+04  1.84100E+04  6.51918E+03
  6.64126E+03  9.24568E+03 -8.32563E+03  1.31469E+04 -1.19737E+04  3.76671E+03 -1.04889E+04 -8.59248E+03
 -2.64534E+03 -1.38962E+04  5.84375E+03 -6.73819E+03  1.12123E+04 -8.38161E+03  2.33776E+03  5.66562E+03
 -8.40249E+03  1.82638E+03 -7.04520E+03 -7.47748E+03 -1.22624E+03 -1.31405E+04  8.54249E+03 -1.03655E+04
  1.57620E+04 -4.53798E+03  1.60633E+04  6.91925E+03  1.11168E+04  1.19208E+04  7.28383E+03  1.84914E+04
 -7.18888E+03  1.66273E+04 -1.26926E+04  7.08337E+03 -1.41011E+04  7.23102E+03 -9.50997E+03 -1.72895E+03
 -3.81431E+03 -1.19212E+02 -1.48876E+03  1.94000E+03 -4.80512E+03  5.78674E+02 -4.81183E+02  3.96288E+03
 -9.85751E+03  3.02860E+02 -1.56643E+04 -1.07232E+04 -8.48585E+03 -1.54054E+04  7.56913E+03 -1.24195E+04
  7.03127E+03  1.66209E+02  3.07113E+03 -5.58197E+02 -1.87040E+02  2.95638E+03 -4.54165E+03 -1.61861E+03
 -7.14347E+02  6.19824E+02  2.26156E+03 -6.95892E+03  1.54086E+03 -6.23642E+03  1.27787E+04 -8.87717E+03
  1.36833E+04 -4.48052E+03  8.86722E+03  1.03251E+04  3.03295E+03  9.32343E+03 -9.07709E+03  9.64361E+03
 -8.52385E+03  1.66927E+03 -6.40270E+03 -1.50981E+03  3.98555E+02 -2.86628E+03  7.62385E+03  9.12748E+02
  3.54182E+03  2.40027E+03  2.46741E+03  1.01600E+04 -8.90997E+03  7.78227E+03 -9.33208E+03  2.97069E+03
 -2.22976E+03 -7.59033E+03  2.36576E+03 -8.61123E+03  6.20403E+03 -9.08145E+03  5.30823E+03  2.06411E+03
  2.95581E+03  8.72856E+03 -3.48630E+03  4.02598E+03 -1.05323E+04  4.15495E+03 -1.02432E+04 -1.55476E+03
  1.31990E+03 -1.29430E+04 -1.27661E+03 -7.60876E+03  5.82942E+03 -3.21551E+03  9.20658E+03  1.51243E+03
  3.82452E+03  5.96273E+03 -1.08028E+03  1.02146E+04 -8.86264E+03  5.51886E+03 -7.36491E+03 -2.62997E+03
 -7.55446E+03 -7.59492E+03  8.00257E+02 -2.73067E+03  1.71646E+03 -7.32202E+03  9.98000E+02 -1.42721E+03
  3.69903E+02  4.12734E+03 -1.14878E+03  2.34962E+03  1.12748E+03  8.97030E+02 -4.26130E+03 -3.64194E+03
  1.01544E+03 -1.57170E+03  4.07800E+03 -2.27522E+03  8.41343E+03  1.64146E+03  4.83475E+03  1.14651E+04
 -3.47908E+03  9.31975E+03 -1.03982E+04  8.79213E+03 -1.31276E+04  1.12250E+03 -1.36276E+04 -9.93685E+03
 -4.18325E+03 -8.64993E+03 -1.08436E+03 -6.94211E+03  2.81178E+03 -6.12597E+03  5.90809E+02 -4.01695E+03
  5.04222E+02 -1.45045E+03 -4.92450E+02  5.68411E+02  7.16367E+03  1.61533E+03  3.32198E+03 -2.53092E+03
  6.82469E+03  2.92545E+03 -1.56427E+03  3.73956E+03 -5.07145E+02  3.19963E+03 -2.17638E+03  8.70681E+02
 -5.95289E+03 -1.21053E+03 -3.41853E+03 -6.14121E+02 -4.93683E+03 -2.54814E+03  3.04230E+03 -5.97655E+03
  3.79144E+03 -3.91098E+03  6.80432E+03  1.36480E+02  6.44184E+03  6.13019E+03 -6.05692E+02  9.37794E+03
 -4.48719E+03  6.76478E+03 -4.31460E+03  4.00542E+02 -2.97425E+03 -1.20040E+03 -5.89529E+03 -5.08154E+02
 -2.53695E+03  1.78677E+03  1.49732E+03  2.39934E+03 -1.91355E+03  1.85917E+03 -5.13273E+03 -2.86505E+03
  2.68074E+03 -7.04229E+03  3.96874E+03 -8.05719E+03  5.95697E+03 -9.81278E+03  6.01932E+03 -2.61718E+03
  5.44551E+03  5.27411E+03  4.08076E+03  4.80866E+03 -1.39616E+03  3.26009E+03 -5.82850E+03  3.06992E+03
 -6.18166E+03  8.56695E+02 -4.32050E+03 -6.88628E+02 -9.83009E+02 -2.52796E+03  6.11822E+02 -5.67002E+03
  6.95198E+03 -6.62819E+02  6.49815E+03  1.22031E+03  3.45651E+03 -2.41910E+01 -1.06931E+02 -5.06242E+03
 -1.77058E+03 -3.97770E+03  2.61302E+03  3.79279E+03  4.08248E+03 -4.85500E+02  3.60772E+03 -9.85748E+02
 -8.94310E+02  4.89087E+02 -3.91356E+03  2.36815E+03 -7.66723E+03  1.21354E+03 -1.31006E+04 -3.44633E+03
 -1.68150E+03 -2.82641E+03 -2.61578E+03 -3.19481E+03  7.82649E+02 -2.51373E+03  5.59573E+03 -2.47294E+03
  8.85146E+03 -4.57481E+02  2.66483E+03  2.07647E+02  4.43998E+00  1.03837E+01 -1.63037E+03  7.28506E+02
  6.69190E+02 -3.40558E+03  8.29208E+02 -2.49653E+02  4.53088E+03  2.49261E+03  2.77203E+03  9.88711E+02
  5.42666E+03  4.20497E+02 -1.80100E+03  5.51731E+03  2.15552E+02 -2.84418E+02 -5.09564E+02 -1.74094E+03
 -3.91080E+03 -3.27934E+03  2.27724E+03 -8.31861E+02  1.05305E+03  2.01953E+03  1.52830E+03  7.42718E+03
 -2.89745E+03  5.48784E+03 -4.82768E+03 -2.05995E+03 -7.64788E+03 -1.83452E+03 -1.19939E+02 -8.32870E+02
 -2.52329E+03 -5.10497E+03  5.78519E+03 -3.81400E+02 -1.23437E+03 -8.76466E+00 -1.72523E+03  3.51797E+03
 -2.57398E+03  6.15626E+03 -1.34153E+03  3.53326E+03 -1.65003E+03 -5.15278E+02  1.21178E+03 -2.28768E+03
  2.88641E+01  2.35984E+03  2.50230E+03 -2.83846E+02  2.74756E+03 -1.75369E+03 -7.75231E+02  1.75395E+03
  4.71388E+02 -6.75989E+02 -3.11396E+03 -3.02059E+03  3.35602E+03 -2.83237E+03 -6.78988E+03 -9.33740E+02
  1.76725E+03 -2.20522E+02  2.46407E+03  2.52888E+03 -2.58136E+03  2.58455E+03 -1.68065E+02  3.69181E+03
 -2.38561E+03 -9.52689E+02 -1.55183E+03  2.56137E+03 -1.71697E+03 -9.44336E+02  2.80869E+03  2.62290E+03
  2.70670E+03 -6.73435E+02  1.94251E+02  3.86782E+03  4.43196E+03  1.03383E+03 -1.43397E+03  3.47061E+02
 -9.98136E+02  1.88866E+03  3.66397E+03  2.31881E+02 -3.81981E+03  5.98822E+02  2.39936E+03  1.90108E+03
 -4.90701E+03  1.10971E+03 -3.48587E+03 -3.08482E+02 -1.03363E+02 -1.36762E+03 -1.38465E+03 -5.71914E+01
 -2.64404E+03 -2.77003E+03 -4.75764E+02 -5.46643E+03  1.09067E+03 -4.94850E+03  3.58147E+03  2.66999E+02
  1.07892E+03  3.11350E+03 -2.67379E+03  7.91600E+03  4.03411E+02  4.07654E+03  1.80931E+03  3.10857E+03
  3.63039E+03 -4.76362E+02  3.53326E+03 -1.50966E+03  1.03996E+03  2.37752E+03 -2.30605E+02  1.97689E+03
  1.14899E+03  1.16125E+02 -1.77556E+03 -5.73599E+03  3.36960E+03  2.21553E+03  4.66431E+03 -1.67682E+03
  1.35514E+03 -7.29981E+02 -1.76116E+03  7.61638E+02  1.77918E+03 -4.73389E+02  2.76839E+03  4.47905E+03
 -2.79170E+03  5.71126E+03 -2.11484E+03  1.16005E+03  1.27918E+03  1.24863E+03  1.20677E+03 -2.74743E+03
 -1.83899E+03 -1.76307E+03 -1.33800E+03  6.05963E+02  9.66933E+02  6.14260E+02  2.13931E+03  4.47049E+03
  2.10775E+02  1.58371E+03  1.90665E+03  3.33706E+03 -4.94916E+02  2.60700E+03  4.58191E+02  4.91385E+03
 -1.82299E+03 -4.03328E+01  2.01039E+03 -2.33682E+03 -1.34675E+02  3.68920E+03 -1.34170E+03 -4.44382E+03
 -2.70798E+02  1.38524E+03  4.72877E+02 -5.39446E+03  9.46264E+02 -1.00379E+03  6.29858E+03 -1.52749E+03
  2.60414E+03 -3.76970E+02  2.48656E+03 -1.65588E+03  1.17816E+03 -3.44960E+03  3.16109E+03 -6.52369E+02
  7.40693E+03 -1.06270E+02 -1.57647E+03 -1.02608E+02 -3.26370E+03  1.03470E+03 -3.99203E+03 -3.70499E+03
 -1.07032E+03 -7.50012E+03  2.05139E+03 -7.04396E-01 -4.05449E+03  6.53091E+03 -3.92276E+01  3.33424E+02
 -3.73163E+03  9.17409E+02  8.88518E+02  8.89373E+02 -9.55295E+02 -6.54286E+03  1.64357E+03 -4.62103E+03
  6.71889E+02  3.26270E+02  7.76933E+02  9.44167E+02 -4.77090E+03  3.19132E+03 -4.49165E+03  4.10476E+03
