 $NMID ID='MM_0lb_SNR50_7hz_g60_36.RAW', FMTDAT='(8E13.5)'
 TRAMP=1., VOLUME=1. $END
  3.04433E+05 -2.35006E+03  3.40394E+05  2.55603E+05  8.26275E+04  3.39420E+05 -1.28344E+05  2.53500E+05
 -2.00850E+05  7.99723E+04 -1.14242E+05 -2.92000E+04  3.93817E+03 -4.78353E+04  4.63119E+04  6.00513E+03
  3.19330E+04  5.98141E+04 -1.73988E+04  7.57239E+04 -5.84542E+04  6.02970E+04 -8.52408E+04  2.79597E+04
 -8.45662E+04 -1.13192E+04 -6.04839E+04 -5.66491E+04 -1.66063E+04 -6.17762E+04  3.20572E+04 -4.02733E+04
  4.30587E+04  5.06051E+03  1.81576E+04  5.03039E+04 -3.91786E+04  5.08012E+04 -7.22132E+04  2.66704E+03
 -5.48035E+04 -5.60971E+04 -3.51484E+03 -8.33620E+04  3.71465E+04 -5.35684E+04  4.94065E+04 -2.27821E+04
  4.24418E+04  1.47823E+04  3.54777E+04  2.75228E+04  1.62012E+04  3.61861E+04 -3.78682E+03  2.76945E+04
 -2.32462E+04  1.65638E+04 -1.45291E+04 -9.69813E+03  1.29723E+04 -1.11349E+04  1.85926E+04  1.39451E+04
  7.48207E+03  3.41322E+04 -4.09991E+04  3.44140E+04 -6.57974E+04  9.25774E+03 -5.51153E+04 -4.04574E+04
 -1.56685E+04 -6.66184E+04  3.94423E+04 -4.30403E+04  6.65925E+04 -3.26159E+03  3.64781E+04  4.13695E+04
 -6.95021E+03  3.29378E+04 -3.94397E+04  2.22682E+04 -3.30691E+04 -1.04238E+03 -1.85425E+04 -1.14850E+04
 -1.32727E+04 -9.46812E+03 -3.93853E+03 -2.23755E+04  7.99765E+03 -2.26347E+04  1.77293E+04 -8.18399E+03
  1.01386E+04  7.42536E+03 -8.30819E+03  1.23314E+04 -1.90854E+04 -9.45272E+03 -7.29462E+03 -4.20093E+04
  2.81847E+04 -5.00548E+04  5.24933E+04 -1.87887E+04  5.26852E+04  2.34616E+04  1.80728E+04  4.66325E+04
 -1.95814E+04  3.68755E+04 -2.80181E+04  2.27558E+03 -2.15294E+04 -2.91227E+04  2.56806E+04 -3.76406E+04
  4.21355E+04 -1.46127E+04  3.54389E+04  2.23984E+04  1.99987E+04  5.39698E+04 -8.85148E+03  5.49490E+04
 -4.08781E+04  3.71408E+04 -4.75740E+04  1.29114E+04 -5.07013E+04 -1.45254E+04 -3.00389E+04 -4.46148E+04
  1.10402E+04 -4.82607E+04  3.48198E+04 -9.11252E+03  3.20478E+04  9.44935E+03  8.41879E+03  1.96120E+04
 -1.41598E+04  4.60198E+03 -1.18719E+04  8.41924E+00  6.70533E+03 -1.35013E+04  2.43547E+04  3.78017E+03
  1.84282E+04  2.18415E+04 -3.62185E+03  2.77186E+04 -2.28493E+04  1.82704E+04 -3.26964E+04 -2.68962E+03
 -2.83249E+04 -2.66909E+04 -1.28783E+04 -2.99147E+04 -9.92364E+02 -2.74153E+04  2.27219E+04 -2.41640E+04
  3.90593E+04 -1.07817E+04  4.27151E+04  6.66547E+03  2.38763E+04  2.74530E+04  1.47467E+04  4.27403E+04
 -2.04376E+04  3.56737E+04 -3.69455E+04  1.09269E+04 -2.13119E+04 -1.97851E+04 -2.66341E+03 -7.74971E+03
  2.80981E+03  7.84236E+03 -6.86041E+03  1.23153E+04 -2.11886E+04 -5.39126E+03 -2.35473E+04 -1.26181E+04
 -1.02151E+04 -2.49544E+04  9.22414E+03 -3.11199E+04  1.31198E+04 -2.04216E+04  2.95894E+04  5.30293E+02
  1.64725E+04  2.06171E+04 -2.65167E+03  2.31076E+04 -1.71564E+04  1.13947E+04 -3.05849E+04 -5.79462E+03
 -1.30333E+04 -2.69130E+04 -3.18317E+02 -3.39741E+04  1.78325E+04 -2.94651E+04  2.63109E+04 -1.24315E+04
  2.14914E+04  1.62536E+01  1.87815E+04  5.17035E+03  1.01208E+04  1.22255E+03  6.19395E+03  3.10599E+03
  2.41403E+04  2.10458E+03  2.58510E+04  2.30115E+04  1.78394E+04  4.36151E+04 -1.05533E+04  5.23461E+04
 -3.48411E+04  4.61894E+04 -4.84901E+04  2.20895E+04 -4.11270E+04 -7.29428E+03 -4.68620E+04 -2.35803E+04
 -1.38003E+04 -4.49114E+04  1.51775E+04 -4.16369E+04  2.67773E+04 -1.35548E+04  2.72211E+04  5.61432E+03
  6.20272E+03  1.88924E+04 -1.39589E+04  1.49409E+04 -1.88583E+04 -6.62528E+03 -2.59572E+04 -1.98082E+04
  5.77933E+03 -1.90595E+04  7.20118E+03 -1.72588E+04  1.65332E+04 -1.59635E+03  3.91072E+03  1.50914E+04
 -1.93278E+03  2.67120E+03 -1.06280E+04 -8.98778E+02  9.84553E+02 -1.48725E+04  2.59654E+04 -2.02718E+04
  2.43910E+04 -1.56273E+04  3.11484E+04 -1.48119E+03  2.68307E+04  2.92401E+04  1.07746E+04  3.01549E+04
 -1.05877E+04  3.62201E+04 -2.85739E+04  1.48307E+04 -2.72082E+04  9.57666E+03 -1.17079E+04 -1.66850E+04
 -8.02968E+03 -8.17427E+03  8.03707E+03 -3.95181E+03 -3.03446E+03  2.33820E+03 -1.03932E+04  1.14823E+04
 -1.03371E+04 -1.61414E+03 -2.39686E+04 -8.13130E+03 -6.32716E+03 -2.19743E+04  5.87950E+03 -1.64361E+04
  9.56772E+03 -2.58795E+03  8.38569E+03  9.27562E+02 -2.26403E+03  1.03376E+04 -1.35617E+04 -6.80702E+03
 -1.00709E+04 -1.02283E+04 -9.15814E+03 -1.55963E+04  1.27230E+04 -2.10713E+04  2.96005E+04 -5.68527E+03
  2.87565E+04 -1.57286E+03  2.36932E+04  2.08773E+04  3.98101E+03  2.43521E+04 -7.65162E+03  2.30986E+04
 -1.76863E+04  1.08092E+04 -9.91112E+03 -7.29304E+03  4.47499E+03 -5.86220E+03  4.65493E+03 -3.46465E+03
  8.05313E+03  1.16110E+04  5.56002E+03  1.91728E+04 -1.33559E+04  1.12582E+04 -1.72490E+04 -4.89177E+01
 -1.07247E+04 -2.46014E+03  1.07174E+04 -1.73953E+04  1.03488E+04 -8.71453E+03  3.90452E+03  6.95884E+03
  1.19871E+03  3.73266E+03 -9.98084E+03  1.26978E+04 -2.37474E+04 -2.18140E+03 -2.13383E+04 -3.76041E+02
 -1.27048E+04 -1.81800E+04  1.12549E+04 -1.73914E+04  1.51250E+04 -8.20261E+03  1.84822E+04  3.39631E+03
  2.40143E+04  1.61537E+04  3.63381E+03  2.36270E+04 -1.45668E+04  1.09861E+04 -1.74350E+04 -1.83205E+03
 -1.15942E+04 -1.65439E+04  2.46238E+03 -1.56516E+04  7.69818E+03 -1.31101E+04  7.17857E+03 -6.94335E+02
  8.30249E+03  1.21618E+03  4.68754E+03  2.34977E+03  4.21779E+03 -4.33239E+03  2.33605E+03 -7.48922E+03
  1.48297E+04 -7.65450E+03  2.46209E+04  2.74236E+03  1.92975E+04  2.06316E+04  9.51106E+03  2.33964E+04
 -1.92076E+04  2.31981E+04 -2.50321E+04  2.71410E+04 -3.32777E+04  6.36825E+03 -2.20825E+04 -1.75871E+04
 -1.47902E+04 -2.02173E+04 -2.61795E+03 -2.15864E+04  3.96686E+03 -1.02819E+04  1.32750E+04 -1.28583E+04
  1.11060E+04 -4.53891E+03 -2.28994E+03 -9.39429E+03  5.69582E+03 -2.86360E+03  9.90707E+03 -1.94160E+03
  1.35313E+04  5.98144E+03  1.10634E+04  1.18613E+04 -5.73274E+03  1.03656E+04 -2.06487E+04  1.46932E+04
 -2.09820E+04 -5.80951E+03 -1.09621E+04 -1.17755E+04 -1.01510E+04 -2.83785E+04  1.38507E+04 -1.86553E+04
  1.85318E+04 -1.33475E+04  1.41342E+04  6.76069E+03  1.82916E+04  1.18773E+04 -4.13907E+03  2.18431E+04
 -3.28665E+03  2.37920E+04 -1.47148E+04  1.11352E+04 -7.91890E+03 -2.29326E+03 -5.65237E+02  1.01172E+03
  1.52534E+03 -4.22555E+03 -1.03907E+03 -3.73721E+03 -8.37454E+03 -2.59686E+03 -1.37190E+04 -3.72664E+03
 -1.42274E+04 -1.20885E+04 -3.56044E+03 -1.73941E+04  1.33688E+04 -2.21377E+04  2.53930E+04 -6.94386E+03
  1.71541E+04  3.34157E+02  9.97041E+03  1.68636E+04 -7.20032E+03  2.56551E+04 -1.97736E+04  1.42864E+04
 -1.55762E+04 -6.19696E+03 -1.71109E+04 -1.10550E+04 -3.68442E+03 -1.33748E+04  1.18557E+04 -8.70669E+03
  1.39090E+04 -5.71912E+03  1.14892E+04  1.93257E+03  4.47341E+03  4.53948E+03  7.63228E+03  1.02336E+03
  8.33433E+03  2.33292E+01  1.86663E+03  6.39968E+03  5.32408E+03  2.88487E+03  5.23941E+03  1.60266E+04
 -3.48076E+03  1.36248E+04 -1.80620E+04  1.11623E+04 -2.19177E+04  5.34914E+03 -1.94941E+04 -8.09477E+03
 -2.12644E+04 -1.17363E+04  9.07618E+03 -1.40909E+04  9.74649E+03 -1.75017E+04  1.87057E+04 -7.31056E+03
  1.57636E+04  2.89350E+03 -3.79485E+02  6.96251E+03 -5.54483E+03  5.25942E+03 -2.57120E+03 -2.78569E+02
  5.51266E+01 -1.02572E+04  1.03779E+04 -1.31067E+04  9.46270E+03 -7.28752E+03  6.05896E+03 -1.41622E+03
  1.02486E+04 -4.14394E+02  3.85995E+03  3.75816E+03 -3.66843E+03  9.67887E+02  2.32494E+03 -3.39028E+03
  7.17627E+03 -2.08047E+02  6.11024E+03 -7.93923E+02  1.03226E+04  9.93195E+03 -9.59302E+03  1.97102E+04
 -9.51417E+03  1.37975E+04 -2.15232E+04  6.04935E+03 -1.30950E+04 -3.27060E+03 -7.30399E+03 -1.04029E+04
  6.66578E+03 -4.62628E+03  1.78813E+04 -4.44518E+03  5.42454E+03  5.02509E+03 -4.66733E+03  6.88356E+03
 -6.77770E+03  2.01396E+03 -1.46836E+04 -4.14652E+03  3.61468E+02 -1.26380E+04  5.42197E+03 -1.73410E+04
  1.20619E+04 -2.86364E+03  5.06339E+03 -5.47243E+03  6.84765E+03  4.70627E+03  4.45384E+03  6.41674E+03
 -3.40866E+03  9.02697E+03 -2.76450E+03 -5.08397E+03  9.77411E+01 -6.50220E+03  1.16079E+04 -1.06448E+04
  1.43270E+04  5.13279E+03  2.56821E+03  1.42771E+04  2.62593E+03  1.49850E+04 -4.37454E+03  9.43938E+03
 -1.34229E+04 -2.09633E+03 -6.19225E+03 -7.56781E+03 -6.53627E+03 -4.92562E+03  2.92210E+03 -4.06685E+03
  3.05179E+03 -2.33802E+03  8.18472E+03  7.01496E+03 -2.24906E+03  7.59102E+03 -9.19379E+03  1.16726E+04
 -2.73137E+03  2.06898E+03 -5.26784E+03 -3.32824E+03  2.32709E+03 -8.74710E+02  2.62035E+03 -2.05640E+03
 -4.32425E+02  8.71965E+03 -1.55493E+04  4.96956E+03 -1.51450E+04  1.80452E+02 -2.96760E+04 -1.24379E+04
 -1.07708E+04 -2.22042E+04  3.44520E+03 -1.79690E+04  1.07031E+04 -2.56431E+04  1.09522E+04 -1.17242E+03
  1.45204E+04  3.91752E+03  1.18733E+04  1.77883E+04 -6.28230E+03  1.42821E+04 -1.23476E+04  7.58180E+03
 -8.95091E+03  4.42804E+03 -1.63129E+04 -2.67312E+03 -1.18512E+04  1.81135E+02 -8.67216E+02 -8.86231E+03
 -4.77862E+02 -3.39605E+02 -1.20213E+04 -6.96031E+03  4.71765E+03 -9.72257E+03  1.15603E+02  2.23530E+03
  5.68425E+03 -4.32872E+03  1.45591E+04 -3.20738E+03  1.38166E+04  1.09257E+04  7.36592E+03  1.40993E+04
 -1.85934E+03  2.59473E+04 -3.02335E+04  1.10517E+04 -2.09760E+04  6.04470E+03 -1.33995E+04 -1.29262E+04
 -8.38587E+03 -1.45704E+04  3.61665E+03 -2.00710E+04  6.47789E+03 -3.40172E+03  1.09273E+04  1.82265E+03
  1.13746E+04  8.00827E+03 -3.67714E+03  1.07550E+03 -1.21167E+03 -2.29826E+03 -7.48872E+03 -5.16686E+03
  6.87362E+03  1.65671E+03  9.75109E+03  5.06284E+02  1.30533E+04  3.87021E+03 -7.85820E+02  1.56547E+04
 -4.81222E+02  1.57673E+04 -1.24569E+04  7.14350E+03 -1.10124E+04 -5.71394E+03 -8.97646E+03 -5.13883E+03
  3.18650E+03 -1.40763E+04  1.45676E+04 -9.57486E+03  1.07609E+04  9.19290E+03  9.12671E+03  4.24158E+03
 -3.10105E+03  1.62940E+04 -4.78340E+03  7.23219E+03 -7.11790E+03  2.54022E+03 -6.93951E+03 -4.22884E+02
  1.62793E+03 -2.72137E+03 -7.25626E+02  1.80098E+03  1.62468E+02  4.51232E+03 -1.35204E+04  7.01504E+01
 -5.41681E+03  2.68603E+03 -6.30995E+03 -1.48580E+04  4.29006E+03 -1.41675E+04  1.83108E+04 -6.67328E+03
  2.05473E+04 -1.89231E+03  3.05650E+03  3.23073E+03  1.47417E+03  8.31222E+03 -1.22245E+04  1.55612E+04
