 $NMID ID='MM_0lb_SNR50_7hz_g45_78.RAW', FMTDAT='(8E13.5)'
 TRAMP=1., VOLUME=1. $END
  3.11416E+05  4.77016E+03  3.34310E+05  2.56310E+05  8.83117E+04  3.43374E+05 -1.27796E+05  2.51622E+05
 -1.88736E+05  8.71062E+04 -1.11227E+05 -3.28622E+04 -2.67920E+02 -5.47052E+04  5.83483E+04  4.72170E+03
  4.29113E+04  5.40396E+04 -1.47865E+04  7.48030E+04 -5.98887E+04  5.83860E+04 -8.33202E+04  2.93621E+04
 -8.61534E+04 -1.73963E+04 -5.40390E+04 -5.90551E+04 -1.53333E+04 -7.16692E+04  2.95510E+04 -5.07028E+04
  3.94672E+04  5.13925E+02  2.27583E+04  4.77282E+04 -4.00985E+04  4.89876E+04 -6.35111E+04 -3.58918E+03
 -5.10788E+04 -5.56473E+04 -1.56071E+04 -8.42312E+04  3.71902E+04 -5.72171E+04  5.44551E+04 -1.80755E+04
  4.37611E+04  1.13570E+04  2.99795E+04  2.18057E+04  1.44891E+04  2.99774E+04 -5.43032E+03  3.02940E+04
 -2.41132E+04  7.74447E+03 -1.50613E+04  1.93978E+03  5.44723E+03 -9.02913E+03  2.97136E+04  1.43860E+04
  9.69115E+03  3.63303E+04 -2.89598E+04  2.69822E+04 -6.87461E+04  2.13238E+03 -5.89371E+04 -4.06955E+04
 -1.44721E+04 -6.44895E+04  4.45764E+04 -4.83315E+04  5.91932E+04 -3.38530E+03  3.89897E+04  3.26650E+04
 -1.23506E+04  5.25776E+04 -3.65675E+04  2.10959E+04 -3.12361E+04 -7.34610E+03 -1.38769E+04 -1.89211E+04
 -8.79034E+03 -1.35688E+04 -4.43603E+03 -2.32925E+04  3.20309E+03 -2.87451E+04  2.07781E+04 -1.32085E+04
  1.08372E+04  1.06294E+04 -9.95484E+03  1.76902E+04 -2.44913E+04 -8.38851E+02 -6.29402E+03 -4.09540E+04
  2.58769E+04 -4.36475E+04  4.66026E+04 -1.43384E+04  4.75853E+04  1.93013E+04  1.50877E+04  5.11062E+04
 -1.56437E+04  3.64204E+04 -2.58803E+04  4.28966E+03 -8.99307E+03 -3.06798E+04  1.79240E+04 -3.52793E+04
  4.60062E+04 -8.63118E+03  3.97273E+04  2.23698E+04  2.14398E+04  5.42728E+04 -2.50927E+03  5.23516E+04
 -3.20441E+04  4.10248E+04 -5.43500E+04  1.79939E+04 -4.90512E+04 -1.30542E+04 -2.90218E+04 -3.57564E+04
  1.14787E+04 -4.63787E+04  3.84000E+04 -1.31868E+04  3.73000E+04  6.07959E+03  5.47439E+03  2.70649E+04
 -1.44389E+04  1.24160E+04 -1.19361E+04 -7.78208E+03  3.00203E+03 -1.29123E+04  6.71553E+03  6.32285E+03
  1.11101E+04  2.32985E+04 -3.02751E+03  2.34380E+04 -1.92246E+04  9.92926E+03 -2.80714E+04 -6.50137E+03
 -2.67260E+04 -1.18970E+04 -1.27078E+04 -3.44866E+04  1.05276E+04 -3.94706E+04  2.31650E+04 -1.87110E+04
  3.59186E+04 -1.10339E+04  3.90632E+04  1.29002E+04  3.00237E+04  2.07401E+04  1.11919E+04  5.02455E+04
 -2.16159E+04  3.45514E+04 -3.14339E+04  1.40486E+04 -2.37254E+04 -1.53206E+04 -4.44185E+03 -1.11048E+04
 -1.88643E+03 -2.10664E+03 -7.69025E+03  5.90323E+03 -2.41231E+04  4.03312E+03 -1.71336E+04 -1.42486E+04
 -9.57794E+03 -1.97504E+04  1.27599E+04 -3.29955E+04  2.16649E+04 -2.23941E+04  2.72615E+04 -1.48223E+03
  1.54645E+04  1.76444E+04 -4.16890E+03  2.11124E+04 -1.68675E+04  1.10405E+04 -2.93208E+04 -3.62434E+03
 -1.56811E+04 -2.36967E+04  3.18425E+02 -3.09100E+04  1.31005E+04 -2.49943E+04  3.64526E+04 -1.07956E+04
  1.66446E+04 -4.35805E+03  1.67980E+04  4.05250E+03  9.99375E+03  3.60774E+02  1.63432E+04 -1.69726E+02
  2.64882E+04 -5.21930E+02  3.33855E+04  1.78759E+04  1.88549E+04  3.81330E+04  9.19171E+02  4.21381E+04
 -2.66705E+04  4.31869E+04 -4.84404E+04  2.06946E+04 -4.72031E+04 -1.37524E+03 -4.33337E+04 -3.39519E+04
 -1.83920E+04 -4.73994E+04  1.30492E+04 -3.53489E+04  3.59289E+04 -1.53931E+04  3.27067E+04  1.01502E+04
  1.15113E+04  1.37193E+04 -1.11826E+04  1.99800E+04 -3.10543E+04  9.19666E+03 -2.38695E+04 -9.83391E+03
  1.60813E+03 -2.29360E+04  1.30757E+04 -1.40114E+04  1.30766E+04  7.88481E+01  6.96496E+03  2.25906E+03
 -8.55868E+03  9.84901E+02 -1.13032E+04 -1.70461E+04 -7.70075E+02 -1.80457E+04  1.60840E+04 -1.58664E+04
  2.59295E+04 -1.03173E+04  3.04552E+04  3.34647E+03  3.30031E+04  2.14203E+04  1.14313E+04  3.61270E+04
 -1.96236E+03  3.60202E+04 -2.19375E+04  2.51309E+04 -2.71772E+04  8.22618E+03 -1.43219E+04 -5.03070E+03
 -4.82278E+03 -1.01755E+04 -5.04058E+03 -3.89502E+02 -1.17899E+04  4.57710E+03 -4.10888E+03  5.02728E+03
 -1.14900E+04 -3.95585E+03 -2.05856E+04 -1.13358E+04 -2.46877E+03 -2.36337E+04  6.30537E+02 -1.74093E+04
  1.17360E+04 -3.89383E+03  7.45088E+03  4.23671E+03  2.63156E+03  3.03021E+03 -9.73369E+03  5.15680E+02
 -6.79072E+03 -8.90245E+03 -7.81568E+03 -1.25263E+04  1.10809E+04 -2.57761E+04  1.74556E+04 -1.37247E+04
  3.12344E+04  4.49285E+03  2.55302E+04  2.08404E+04 -4.43122E+03  1.89152E+04 -6.33660E+03  1.56699E+04
 -1.12449E+04  5.42323E+03 -6.51194E+03 -2.10242E+03 -1.13968E+03 -4.09876E+03  1.82222E+03  7.00648E+03
  9.44049E+03  8.72730E+03 -5.17410E+03  1.14055E+04 -1.13019E+04  1.81048E+04 -2.18456E+04 -1.11069E+03
 -1.52096E+04 -1.22623E+04  2.86975E+03 -1.93068E+04  1.09133E+04 -1.32637E+04  5.88840E+03  4.19137E+03
  7.20016E+03  4.99625E+03 -5.94659E+03  1.48357E+04 -2.03261E+04  1.20543E+04 -8.84716E+03 -5.70403E+03
 -1.07983E+04 -1.91298E+04  2.57531E+03 -2.43824E+04  1.99336E+04 -1.60645E+04  1.47815E+04  9.09317E+03
  1.12669E+04  1.32687E+04 -1.17849E+03  1.75708E+04 -9.99386E+03  9.80418E+03 -1.57016E+04 -2.37542E+03
 -1.41691E+04 -1.06546E+04 -2.98465E+03 -1.53051E+04  1.05903E+04 -1.03614E+04  1.40893E+04 -4.62443E+03
  1.11333E+04  4.57139E+03 -8.07746E+03  1.13185E+03  4.93252E+03  9.96345E+03  5.77416E+03 -9.19322E+03
  1.80459E+04 -3.01384E+03  2.30205E+04 -1.19258E+03  2.47941E+04  1.41908E+04  1.65703E+04  2.59940E+04
 -6.54639E+03  2.53214E+04 -2.50332E+04  1.88433E+04 -2.89477E+04 -2.42435E+03 -2.87038E+04 -1.16052E+04
 -1.29394E+04 -1.69348E+04  6.29855E+02 -1.78577E+04  8.71927E+03 -7.63043E+03  1.41489E+04 -1.31379E+04
  2.05570E+03 -3.19055E+03  3.38570E+03 -4.46369E+03  7.26715E+03  6.52226E+03  1.25522E+04 -1.76957E+03
  1.13752E+04  2.32655E+03  5.27431E+03  1.62580E+04 -1.06346E+03  1.49673E+04 -1.59462E+04  1.12781E+04
 -2.05275E+04  4.75612E+03 -1.13735E+04 -7.11230E+03  4.53144E+02 -2.05753E+04  5.52822E+03 -1.84437E+04
  2.54305E+04 -5.77145E+03  1.94976E+04  1.31011E+03  1.85591E+04  7.83557E+03  3.53109E+03  1.93514E+04
 -1.66535E+03  2.01514E+04 -9.45204E+03  9.72625E+03 -1.13492E+04 -2.90775E+03  7.98850E+02  1.87235E+03
 -1.38626E+03  9.29845E+02 -3.62642E+03  7.58774E+03 -7.94635E+03  1.61753E+03 -1.85064E+04 -2.11602E+02
 -3.48495E+03 -1.62646E+04  1.19116E+03 -2.20939E+04  5.47589E+03 -2.05472E+04  1.80181E+04  2.48246E+03
  1.68073E+04  9.23172E+03  8.78699E+03  1.61127E+04  4.22216E+03  2.30291E+04 -1.57219E+04  1.64533E+04
 -1.81120E+04 -1.11384E+04 -9.07162E+03 -1.29047E+04 -3.72554E+03 -1.12340E+04  8.47955E+03 -5.71858E+03
  1.62622E+04  4.08559E+02  6.34142E+03  3.78434E+03 -3.81459E+02  7.50309E+03 -1.33928E+03  5.00261E+03
  3.34585E+02 -1.09763E+03  1.60316E+03 -1.25862E+03  7.74418E+03  5.14889E+03  1.13235E+04  1.15725E+04
  1.81496E+03  1.83271E+04 -1.35983E+04  1.50698E+04 -1.93747E+04  9.56391E+03 -1.87423E+04 -5.55935E+03
 -6.71301E+03 -1.73101E+04  1.03840E+04 -3.36626E+04  1.45955E+04 -1.41541E+04  1.87586E+04  4.05105E+03
  1.70777E+04 -2.66258E+02  1.06870E+04  1.04419E+04 -6.85610E+03  9.95112E+03 -6.33416E+03 -4.45005E+03
 -3.77600E+03 -1.36898E+04 -2.35142E+03 -1.54693E+04  9.28421E+03 -1.11491E+03  9.77916E+03 -4.65071E+03
  5.77857E+03  1.49320E+03 -2.19501E+03  9.08503E+03 -1.10923E+03 -1.94232E+03  9.18765E+03  3.73848E+02
  5.43475E+03  3.48912E+03  6.03421E+03  3.31171E+03  9.31143E+03  1.53671E+04 -7.30027E+02  1.37149E+04
 -1.69191E+04  8.72166E+03 -1.20680E+04  3.79533E+03 -1.26357E+04 -4.81569E+03 -8.73559E+02 -4.34757E+03
  4.03812E+02 -1.51250E+03  7.68171E+03 -9.76095E+03  2.11229E+02  5.78503E+03 -1.26247E+03 -3.46022E+02
 -4.22363E+03  1.12675E+04 -4.02519E+03 -6.21022E+03 -1.50432E+03 -1.46248E+04 -2.66811E+03 -4.46960E+03
  1.04599E+04 -6.79986E+03  5.96379E+02  2.50978E+03  7.74750E+03 -4.93340E+03 -3.11185E+03  2.48407E+03
 -1.85598E+03  1.18382E+03 -7.23458E+03  4.60314E+02  3.07068E+03 -1.13220E+04  2.13456E+04 -6.13173E+03
  1.53326E+04 -3.69735E+03  1.13876E+04  9.85460E+03 -1.99085E+03  1.28333E+04 -1.33379E+03  1.45639E+04
 -1.20339E+04  8.22031E+03 -1.27900E+04 -1.77109E+03 -3.84565E+03 -9.06513E+03  1.22740E+03 -7.33672E+03
  4.89331E+03  3.18027E+03  2.89929E+03 -3.78155E+02  2.22353E+03  6.89597E+02 -5.11644E+03  9.12288E+03
  2.07469E+03 -4.57696E+02 -8.75896E+01  1.88489E+03  1.79191E+03 -3.59844E+02 -7.64820E+03 -1.84225E+03
 -5.95246E+02  9.34078E+03 -1.00128E+04  6.65214E+03 -4.63756E+03  2.19183E+01 -1.37133E+04 -1.15983E+04
 -6.94885E+03 -1.74850E+04  1.31116E+03 -2.72547E+04  1.19112E+04 -1.66333E+04  2.86187E+04 -8.06320E+03
  1.62322E+04  7.67809E+03  1.51855E+04  4.52662E+03 -1.97853E+01  2.35488E+04 -2.83240E+03  8.90407E+03
 -1.16520E+04 -3.47086E+02 -8.48956E+03 -9.79364E+03  6.40170E+02 -7.43447E+02 -2.75608E+03 -6.93287E+03
 -2.97781E+03  8.29967E+02 -7.22278E+02  4.11566E+03 -7.69246E+03  1.36930E+02  5.13122E+03 -1.02832E+04
  9.83529E+03 -4.94973E+03  6.02705E+03 -1.44111E+03  1.69358E+04  9.56783E+03 -1.11042E+03  1.78964E+04
 -1.47703E+04  1.48032E+04 -1.56742E+04  3.41060E+03 -1.61181E+04 -2.06357E+03 -1.89494E+04 -1.16196E+04
 -2.93471E+03 -1.62341E+04  5.60432E+03 -1.67787E+04  6.75851E+03 -1.14990E+04  8.74413E+03  7.36080E+03
  1.27950E+04  1.67758E+03  5.58621E+03  6.43034E+03  2.44925E+03  1.33300E+03 -9.71291E+02 -1.01633E+04
 -2.27229E+02 -3.55463E+03  4.33096E+03  1.29135E+03  1.40133E+03  7.59031E+03 -2.25128E+03  1.15562E+04
 -9.73605E+03  7.16726E+03 -5.02378E+03  3.89236E+02 -5.35958E+03 -9.83872E+03  2.34235E+03 -9.43143E+03
  8.70827E+03 -2.13903E+04  9.73347E+03 -1.05078E+04  3.27623E+03 -7.30597E+02  5.77574E+03  4.17501E+03
  3.39274E+03  5.08102E+03 -5.20434E+03  1.07480E+04 -5.46809E+03  3.19641E+03 -2.49299E+03  4.56239E+02
 -2.17631E+02 -7.38937E+02  1.00593E+03  3.36791E+03 -5.11454E+03  5.59197E+03 -1.05074E+04  1.66058E+03
 -4.87896E+03 -5.93301E+03  3.72826E+03 -5.14628E+03  1.56541E+03 -1.05645E+04  1.80303E+04 -1.07067E+04
  1.57356E+04  5.80833E+03  7.17046E+03  7.05275E+03  3.59692E+03  1.32101E+04 -6.95486E+03  5.54735E+02
