 $NMID ID='MM_0lb_SNR50_12hz_g40_82.RAW', FMTDAT='(8E13.5)'
 TRAMP=1., VOLUME=1. $END
  3.14868E+05  2.46180E+03  3.44456E+05  2.49989E+05  8.51058E+04  3.38701E+05 -1.31739E+05  2.47680E+05
 -1.91712E+05  8.40464E+04 -1.13092E+05 -3.50857E+04 -1.15694E+03 -5.09333E+04  5.39743E+04 -2.21434E+03
  3.64049E+04  5.45364E+04 -1.85345E+04  8.13787E+04 -6.06105E+04  6.48430E+04 -8.27780E+04  3.45979E+04
 -8.51219E+04 -1.11964E+04 -5.52090E+04 -5.20969E+04 -1.63111E+04 -7.22841E+04  3.04404E+04 -4.60021E+04
  4.54425E+04  8.98785E+02  9.79232E+03  4.76086E+04 -3.50891E+04  4.52552E+04 -6.67656E+04 -4.34914E+03
 -5.15866E+04 -5.10228E+04 -1.05278E+04 -7.14012E+04  3.40873E+04 -5.46836E+04  5.11894E+04 -1.78993E+04
  4.67434E+04  1.54168E+04  3.13434E+04  3.04458E+04  1.52863E+04  3.01509E+04 -2.39684E+03  2.61024E+04
 -2.45804E+04  1.07298E+04 -2.08195E+04 -3.66017E+03  6.16465E+03 -7.57441E+03  2.58870E+04  1.28259E+04
  8.73828E+03  3.20143E+04 -3.33502E+04  4.04195E+04 -6.36274E+04  1.03961E+03 -5.73099E+04 -3.87197E+04
 -1.36795E+04 -5.99430E+04  3.92675E+04 -4.53021E+04  5.69570E+04 -1.51131E+02  3.57052E+04  3.26619E+04
 -4.47953E+03  3.49578E+04 -3.19145E+04  1.73205E+04 -3.80303E+04 -4.88685E+02 -2.08085E+04 -1.15005E+04
 -1.06853E+04 -1.47440E+04  6.62103E+03 -1.91659E+04  7.27601E+03 -2.68402E+04  1.32479E+04 -1.00551E+04
  1.27428E+04  6.01479E+03 -1.17703E+04  1.38587E+04 -2.25934E+04 -4.36906E+03 -7.38837E+03 -2.78923E+04
  2.69059E+04 -4.27053E+04  5.28356E+04 -1.91542E+04  4.99653E+04  1.62064E+04  1.62737E+04  4.85731E+04
 -1.32808E+04  3.08629E+04 -2.56938E+04  4.06510E+03 -9.66359E+03 -2.97190E+04  2.29166E+04 -3.64041E+04
  3.99338E+04 -1.30865E+04  3.27979E+04  2.76555E+04  1.80751E+04  4.87707E+04 -9.59453E+03  4.93021E+04
 -2.69144E+04  3.06212E+04 -4.60554E+04  7.75748E+03 -4.01779E+04 -1.86599E+04 -2.23763E+04 -3.74115E+04
  1.06774E+04 -4.15832E+04  3.11728E+04 -1.89170E+04  3.18605E+04  1.32341E+04  6.48665E+03  1.74861E+04
 -1.52708E+04  8.90542E+03 -9.50411E+03 -7.00765E+03  6.83233E+03 -1.42676E+04  1.68457E+04  2.54588E+03
  1.58052E+04  2.20490E+04 -7.26909E+03  2.68438E+04 -2.80616E+04  1.11793E+04 -3.38834E+04 -1.08284E+04
 -1.76054E+04 -1.35026E+04 -1.69728E+04 -2.05101E+04 -1.31284E+03 -2.22186E+04  1.08037E+04 -1.45556E+04
  2.86078E+04 -1.20470E+04  2.91564E+04  1.59100E+03  2.64310E+04  2.11401E+04  1.59918E+03  4.01617E+04
 -1.53145E+04  2.91015E+04 -2.30204E+04  1.48631E+04 -1.70136E+04 -1.01330E+04 -7.36925E+03 -1.39865E+04
  2.55788E+03 -8.42802E+01 -6.79081E+03  5.94703E+03 -1.86683E+04  3.72357E+03 -1.68078E+04 -5.95924E+03
 -7.12226E+03 -1.87085E+04  4.15349E+03 -2.45231E+04  1.68100E+04 -1.40059E+04  1.75421E+04 -7.76629E+03
  1.04543E+04  1.37738E+04 -1.73353E+03  1.64157E+04 -1.35873E+04  1.79244E+04 -1.98875E+04  4.84992E+03
 -5.93526E+03 -1.86320E+04 -4.56469E+03 -3.03445E+04  1.21302E+04 -1.65169E+04  2.11999E+04 -1.03255E+04
  2.10198E+04  1.96957E+03  1.54840E+04  1.19559E+04  4.37917E+03  5.43146E+02  1.27426E+04 -1.97757E+03
  1.73177E+04  1.24689E+03  2.09871E+04  1.34939E+04  1.18107E+04  3.23631E+04  2.36015E+03  3.19706E+04
 -2.08333E+04  2.58358E+04 -3.75900E+04  1.02352E+04 -3.51713E+04 -1.20177E+03 -3.04616E+04 -2.85625E+04
 -1.75628E+04 -2.76932E+04  6.77868E+03 -2.62552E+04  2.42228E+04 -1.56420E+04  2.27463E+04 -2.46726E+03
  2.10218E+03  1.75988E+04 -1.18670E+04  9.81033E+03 -2.13090E+04 -7.57123E+02 -1.55567E+04 -8.46664E+03
 -6.49032E+03 -1.65907E+04  7.35157E+03 -2.36864E+03  8.76118E+03 -1.63655E+03  4.35433E+03  5.76526E+03
 -1.37869E+04  2.87186E+02 -5.12816E+03 -6.43517E+03  2.79715E+03 -9.30789E+03  1.44194E+04 -1.25618E+04
  1.66867E+04 -5.75172E+03  1.93178E+04  3.93997E+03  2.16352E+04  1.55172E+04  4.08429E+03  1.45238E+04
 -8.26515E+03  2.64088E+04 -1.87542E+04  1.85530E+04 -2.20436E+04  6.52438E+03 -1.23667E+04  8.20149E+02
 -1.09297E+04 -7.29938E+03 -7.84061E+02  4.47468E+03 -5.57558E+03 -1.20638E+03 -3.03469E+03  3.24867E+02
 -9.73094E+03  1.64780E+02 -7.64660E+03 -1.19313E+04 -5.94414E+03 -9.52716E+03  5.19137E+03 -9.23912E+03
  6.18974E+03 -9.85053E+03  6.60308E+03  1.00944E+03  5.88520E+03  7.16317E+03 -5.84300E+03  2.79245E+03
 -8.85834E+03 -8.61777E+03 -4.07259E+03 -9.12139E+03  2.33265E+03 -1.20092E+04  1.73027E+04 -7.82583E+03
  1.94719E+04 -3.93364E+02  9.71993E+03  1.32846E+04  7.30152E+03  1.60273E+04 -1.05093E+04  1.33852E+04
 -8.09995E+03  1.69134E+02 -7.59024E+01 -3.12546E+03 -8.18759E+02 -6.41914E+03  4.54601E+03 -4.89439E+03
  2.67936E+03  9.26097E+02  1.99829E+03  6.05062E+03 -8.60743E+03  8.13834E+03 -1.07298E+04  2.10257E+03
 -1.00400E+04 -1.05873E+04 -2.52907E+02 -1.53364E+04  1.16258E+04 -8.07696E+03  7.74762E+03  5.08923E+03
  7.13044E+02  1.26528E+04 -4.22236E+03  8.97682E+03 -1.29447E+04  1.32966E+03 -7.17874E+03 -6.05816E+03
 -6.37831E+03 -8.76886E+03  4.66814E+02 -1.85851E+04  7.74545E+03 -7.73881E+03  1.55950E+04  2.92808E+03
  1.16514E+04  8.90582E+03 -9.04511E+02  1.09482E+04 -1.30604E+04  3.85062E+03 -1.53883E+04  3.05457E+03
 -8.51069E+03 -6.75425E+03  1.65252E+03 -4.22625E+03  3.27610E+03 -7.15931E+03  6.16172E+03 -7.59118E+02
  7.41952E+03 -4.11220E+03 -2.68997E+02  7.89614E+03 -1.21635E+03  3.01908E+03  6.19587E+03 -5.59927E+03
  6.67832E+03 -4.44335E+03  1.65692E+04 -2.59096E+03  9.20123E+03  1.84057E+03  3.73766E+03  1.45222E+04
 -1.24045E+03  1.79016E+04 -1.14783E+04  1.25683E+04 -2.17354E+04  2.25190E+03 -1.49092E+04 -4.25041E+03
 -7.62931E+03 -1.31417E+04  1.35440E+03 -1.65845E+04  6.68801E+03 -2.47991E+03 -1.81121E+02 -4.45680E+03
  1.68500E+03  7.72316E+02  3.15300E+03 -3.52933E+03  4.56133E+03  1.35958E+03  7.85097E+03 -1.74592E+03
  8.35496E+03 -6.44952E+02  4.73159E+03  9.30444E+03 -8.07927E+03  1.88290E+03 -5.75436E+03  8.08635E+03
 -1.55086E+04 -4.25346E+02 -5.02770E+03 -6.70458E+03 -5.69533E+02 -9.17122E+03  1.15543E+04 -9.98347E+03
  1.00049E+04 -6.61709E+03  1.52712E+04  1.95296E+03  1.18470E+04  1.28807E+04  4.88591E+02  1.45793E+04
 -3.59551E+03  1.48285E+04 -2.76176E+03 -1.36247E+03 -5.73601E+03 -1.69236E+03  2.45688E+03  1.71684E+03
  2.59644E+03  2.87294E+03 -8.12325E+02  3.64604E+03  1.96529E+02  4.42979E+03 -8.49545E+03 -1.07685E+03
 -5.15641E+03 -8.56588E+03 -1.49222E+03 -9.05752E+03  1.19080E+04 -1.14332E+04  5.09148E+03  1.62422E+03
  1.43894E+04  5.89571E+03  5.29031E+03  8.52789E+03 -2.04327E+03  7.43323E+03 -3.22311E+03  4.36713E+03
 -6.77529E+03 -1.19019E+03 -1.06102E+04 -7.28499E+03 -2.62551E+03 -5.79325E+03  2.38316E+03 -7.88838E+03
  1.08588E+04 -6.77082E+03  1.94964E+03  6.44447E+03 -4.01203E+03  1.89921E+03 -1.63570E+03  2.38048E+03
 -8.20236E+02  6.30610E+02  5.56822E+03  2.28362E+03 -1.16642E+03  6.18164E+03  5.16893E+03  3.82553E+03
 -5.21399E+03  9.39728E+03 -5.68109E+03  1.00542E+04 -9.35399E+03  2.65603E+03 -1.27085E+04 -6.32214E+03
 -5.04041E+03 -8.31582E+03  6.69956E+03 -7.37919E+03  8.88817E+03 -7.87134E+03  3.25125E+03 -7.91655E+01
  9.47822E+03  6.52049E+03  4.65481E+03  2.06796E+03 -9.43690E+02  5.60740E+03 -8.43630E+03 -7.88354E+02
 -1.28301E+03 -1.57385E+03  8.92722E+02 -1.13350E+04 -4.43060E+03 -2.33128E+03  6.69876E+03 -4.16448E+03
  8.08246E+02 -6.02574E+02 -2.95767E+03  3.17303E+02 -1.50969E+03  4.93782E+03  1.86181E+03  1.59812E+03
 -1.56102E+03  3.98912E+03  3.33357E+03  5.29995E+03  4.25137E+03  5.38891E+03 -5.39940E+03  4.49467E+03
 -7.63737E+03  4.86127E+03 -1.03704E+04 -1.82197E+03 -2.90382E+03 -1.29993E+03 -2.74565E+03 -5.22504E+03
 -3.28860E+02 -4.21586E+03  8.07511E+03 -2.84650E+03  1.96948E+03  1.07790E+03 -2.06601E+03  2.77729E+03
 -3.11838E+03 -9.78291E+02 -2.62037E+03 -5.24051E+03 -3.24495E+03 -8.33597E+03 -1.20941E+03 -3.74636E+03
  1.42716E+03 -3.02834E+03  3.71698E+03 -2.07067E+03  4.22029E+03 -1.67454E+03 -6.12470E+02  3.72382E+03
  9.21405E+02  3.11146E+03 -1.62798E+03  3.11497E+03  3.09525E+03 -3.60596E+03  2.61594E+02 -5.48758E+03
  5.86468E+03  6.87720E+01  1.12978E+04  3.94093E+03  6.66705E+03  5.04084E+03  8.03934E+01  9.71498E+03
 -5.70820E+03 -2.53173E+03 -5.84363E+03  8.54605E+02 -2.93693E+03 -5.99566E+03 -2.20239E+03 -3.43905E+03
  9.74631E+02  5.93351E+03  6.00077E+00  3.21304E+03  2.28789E+03  4.94619E+03  7.79951E+02  4.44897E+03
 -5.30076E+03  9.99703E+03  2.29255E+03 -6.94625E+03 -3.42570E+03 -1.68080E+03 -2.38297E+03 -8.43312E+02
  3.06904E+02  2.86897E+03 -4.30304E+03  1.90438E+03 -5.06320E+03 -2.57369E+03 -3.93943E+03 -8.30281E+03
 -3.93924E+03 -1.10047E+04 -8.91803E+02 -1.07583E+04  1.08776E+04 -7.34449E+03  6.43047E+03 -1.00201E+03
  1.26036E+04  5.50266E+03  3.64130E+03  3.76739E+03  2.62836E+02  3.77249E+03 -8.76200E+02  1.81821E+03
 -7.37348E+03  6.78178E+02 -7.00436E+03  4.95619E+03  3.73971E+03 -3.21220E+03  1.78764E+03  2.96492E+03
 -2.44651E+03  3.80079E+03 -6.67030E+02  3.23839E+03  1.15126E+03 -3.33159E+03  4.66782E+03 -4.89812E+03
  4.40386E+03 -2.04657E+03  3.81116E+02  4.15337E+02  5.71284E+03  1.65123E+03  1.49402E+03  6.44278E+03
 -2.81865E+03  1.17806E+04 -1.07531E+03  6.16116E+02 -6.13488E+03 -6.21705E+02 -7.19655E+03 -6.96990E+03
 -3.90032E+03 -3.94884E+03 -2.30763E+03 -4.84910E+03  8.28892E+03  3.34165E+01  1.24835E+03  2.78291E+03
  3.91365E+03  7.17226E+02 -2.25178E+03  2.29184E+03  3.53599E+02 -3.36515E+03  3.98604E+02  2.54659E+03
  3.72940E+03 -1.19097E+03  3.46804E+03 -3.56938E+02  6.27993E+03  3.90521E+03  1.93979E+03  1.63241E+03
  1.10652E+01  6.85906E+01 -1.19797E+02 -1.19907E+03 -4.62629E+03 -3.68113E+03 -1.92358E+03 -5.55406E+03
  6.56022E+01 -8.86429E+03 -1.14521E+03 -1.12245E+03  7.51268E+03 -6.09163E+03 -1.38344E+03 -1.35019E+03
 -5.67001E+03  1.00734E+04 -6.17181E+01 -1.07024E+03 -1.20433E+03  1.86106E+03  2.78194E+03 -2.88965E+03
 -5.95141E+02  1.05615E+03 -2.42924E+03  4.57206E+03  3.03053E+02  1.04648E+03 -7.56334E+03 -2.97761E+03
 -8.50008E+03  8.28290E+02 -1.76980E+03 -2.70342E+03  2.27279E+03 -5.59347E+00  3.48808E+03 -6.59817E+03
  4.56887E+03 -2.86855E+03  4.76105E+03  6.77806E+03  9.33196E+01  4.22677E+03 -3.46170E+03  2.26204E+03
