 $NMID ID='MM_0lb_SNR50_15hz_g55_58.RAW', FMTDAT='(8E13.5)'
 TRAMP=1., VOLUME=1. $END
  3.05862E+05  2.39644E+03  3.40273E+05  2.51016E+05  8.35301E+04  3.35449E+05 -1.32348E+05  2.48729E+05
 -1.88365E+05  8.36443E+04 -1.09376E+05 -2.95506E+04 -6.35679E+02 -5.34210E+04  5.52018E+04 -1.13545E+03
  3.70255E+04  5.25104E+04 -1.16448E+04  7.79346E+04 -5.80034E+04  5.92358E+04 -8.99847E+04  3.21561E+04
 -7.36236E+04 -1.24390E+04 -5.41651E+04 -5.15981E+04 -1.41530E+04 -6.87770E+04  2.56916E+04 -4.25408E+04
  3.87381E+04  6.34430E+03  1.88102E+04  4.73462E+04 -3.45707E+04  4.53897E+04 -6.52327E+04  1.60109E+03
 -5.38240E+04 -5.99994E+04 -6.93564E+03 -7.88310E+04  3.27309E+04 -5.29186E+04  4.79014E+04 -1.86754E+04
  4.07449E+04  9.80756E+03  3.13359E+04  2.82750E+04  1.82503E+04  3.25906E+04 -4.70910E+03  2.25720E+04
 -2.34488E+04  1.10738E+04 -2.05531E+04 -6.95143E+03  7.33279E+03 -6.84900E+03  2.24462E+04  1.26418E+04
  6.35692E+03  3.67725E+04 -3.30281E+04  3.47388E+04 -6.36299E+04  5.68033E+03 -5.37786E+04 -4.19306E+04
 -1.14754E+04 -6.06824E+04  3.47711E+04 -4.80344E+04  5.44793E+04 -2.90842E+03  3.60901E+04  3.46462E+04
 -4.68318E+03  3.27598E+04 -2.97506E+04  1.89741E+04 -2.86895E+04 -6.05667E+03 -1.82910E+04 -1.07258E+04
 -1.12342E+04 -1.44421E+04  1.22917E+03 -1.89213E+04  8.72431E+03 -2.43081E+04  1.68371E+04 -1.69783E+04
  1.79867E+04 -3.18685E+02 -6.91504E+03  1.04776E+04 -2.00800E+04 -7.09336E+03 -1.05742E+04 -3.39208E+04
  2.15661E+04 -4.07925E+04  5.11692E+04 -2.39818E+04  4.64614E+04  2.10218E+04  2.10078E+04  4.47596E+04
 -1.91966E+04  3.33796E+04 -2.54588E+04  8.20488E+02 -8.70498E+03 -2.82482E+04  2.23086E+04 -3.54529E+04
  4.06623E+04 -8.89247E+03  3.70942E+04  2.49211E+04  1.72783E+04  4.97610E+04 -9.64890E+03  5.01478E+04
 -2.74746E+04  3.59335E+04 -4.20101E+04  8.41700E+03 -4.35029E+04 -1.45512E+04 -2.15578E+04 -3.50971E+04
  8.54655E+03 -3.51872E+04  2.80963E+04 -1.39549E+04  2.93673E+04  1.36921E+04  3.12928E+00  2.24758E+04
 -9.39947E+03  1.05575E+04 -1.20863E+04 -8.13302E+03  6.15734E+03 -1.02253E+04  1.45616E+04  3.87775E+03
  1.69089E+04  2.41367E+04 -7.06400E+03  2.26214E+04 -1.92715E+04  1.38843E+04 -3.09292E+04 -5.79757E+03
 -2.29072E+04 -1.53820E+04 -7.56069E+03 -1.97927E+04  3.40003E+02 -1.68038E+04  1.51574E+04 -1.74397E+04
  2.55484E+04 -1.38744E+04  3.00829E+04  2.40752E+03  2.30307E+04  1.64791E+04  4.91176E+03  4.01075E+04
 -1.61349E+04  2.95270E+04 -2.53130E+04  1.40608E+04 -2.10135E+04 -8.02100E+03 -5.57699E+03 -1.61528E+04
  2.20331E+03 -2.77567E+03 -4.12965E+03  6.33751E+03 -1.69014E+04 -1.95582E+03 -1.92559E+04 -8.28190E+03
 -1.49447E+04 -2.23647E+04  4.79965E+03 -1.86887E+04  1.64662E+04 -1.95462E+04  1.86207E+04  6.53966E+03
  1.33212E+04  1.09270E+04 -9.82506E+02  1.96336E+04 -8.83677E+03  1.48769E+04 -1.72886E+04 -9.53078E+03
 -1.52394E+04 -1.48463E+04 -2.01208E+03 -2.29569E+04  7.77782E+03 -2.14747E+04  1.93536E+04 -7.26431E+03
  1.31973E+04 -2.07029E+02  1.66197E+04  4.67921E+03  7.38991E+03  1.10012E+03  1.26253E+04 -2.25482E+03
  1.86374E+04  3.03998E+03  2.27512E+04  1.54684E+04  1.47207E+04  2.67804E+04 -1.46099E+03  3.36506E+04
 -1.92160E+04  2.84169E+04 -2.67638E+04  1.08326E+04 -3.49095E+04 -2.30887E+03 -2.52429E+04 -2.13160E+04
 -1.20556E+04 -2.90493E+04  1.26080E+04 -2.83994E+04  2.59284E+04 -1.26526E+04  1.90411E+04  8.59893E+03
  2.78964E+03  1.51548E+04 -9.86803E+03  1.00518E+04 -1.56700E+04  7.97386E+02 -2.02419E+04 -1.00826E+04
  2.53823E+03 -1.83611E+04  5.90237E+03 -5.47246E+03  1.05164E+04  1.94306E+03 -2.30825E+03  1.54289E+03
 -6.35512E+03  1.34540E+03 -9.42778E+03 -2.00594E+03  8.28525E+02 -1.34519E+04  5.98916E+03 -1.79127E+04
  1.55994E+04 -9.18033E+02  1.60646E+04  2.45681E+03  1.27598E+04  1.34018E+04  6.98186E+03  1.48271E+04
 -2.66694E+03  1.80622E+04 -1.18269E+04  1.26736E+04 -1.94029E+04  3.22053E+03 -9.38928E+03 -3.16901E+03
 -8.27025E+03 -5.93154E+03  7.99931E+03 -1.69062E+03 -9.82492E+02  7.52872E+03 -2.56899E+03  3.72036E+03
 -1.53380E+04  1.17843E+03 -1.09596E+04 -1.32589E+04 -5.17336E+03 -1.61074E+04  3.91581E+03 -1.00216E+04
  1.41548E+04 -6.55838E+03  3.34012E+03  2.41853E+03  2.26123E+03  6.10219E+03 -6.22972E+03 -4.41766E+02
 -5.30354E+03 -8.01082E+03 -3.24577E+01 -1.02684E+04  6.38547E+03 -1.08119E+04  1.51393E+04 -2.01043E+03
  1.59782E+04 -3.82910E+03  1.23762E+04  5.09413E+03  6.31125E+03  1.54362E+04 -9.07479E+03  1.40597E+04
 -6.07773E+03  3.85806E+02 -3.95312E+03 -1.46675E+03  3.20195E+03 -3.19053E+03  9.87276E+03  2.41318E+03
  7.16853E+03  2.78383E+03 -2.80239E+03  4.74757E+03 -7.31361E+03  1.65566E+04 -9.11744E+03  1.99787E+03
 -1.51366E+04 -7.36710E+03 -4.84147E+02 -8.88662E+03  9.96367E+03 -4.63794E+03  9.13813E+03  1.22446E+03
  5.24060E+03  4.14799E+03 -3.65718E+03  1.01645E+04 -9.43530E+03 -2.17815E+03 -5.49439E+03 -2.31636E+02
 -6.61293E+02 -9.69266E+03  5.91401E+03 -8.86725E+03  5.19830E+03 -8.24640E+03  9.18051E+03  3.93139E+03
  8.31753E+03  8.16778E+03 -1.13402E+03  8.71318E+03 -1.36052E+03  6.18960E+03 -5.58781E+03 -4.29946E+03
 -9.60503E+03 -5.01951E+03  5.89153E+03 -4.42151E+03  5.58069E+03 -1.06039E+04  1.02981E+04 -3.64320E+03
  2.03102E+03  2.56851E+03  7.26129E+02  2.21804E+03 -1.47447E+03  4.90347E+03 -8.01036E+02 -4.57148E+03
  4.92479E+03 -6.04077E+03  3.24981E+03  3.97165E+03  9.78687E+03  9.31112E+03  7.60432E+03  1.16101E+04
 -5.98457E+03  1.38253E+04 -5.34226E+03  8.77941E+03 -9.99751E+03  1.46173E+03 -1.00706E+04 -8.80144E+03
 -6.33361E+03 -1.03102E+04  5.57038E+03 -6.76469E+03  3.54940E+03  4.19735E+01  3.11143E+03 -1.87093E+03
 -4.52332E+02 -3.23520E+03  1.77089E+03 -4.68848E+02  3.30692E+03 -4.64568E+02  1.05163E+04 -4.22876E+03
  7.60356E+03  6.25684E+03  6.47681E+03  4.26258E+03  4.13439E+03  3.55310E+03 -7.53865E+03  4.03199E+03
 -9.06358E+03 -6.07859E+02 -3.35514E+03 -5.84348E+03  5.15103E+03 -5.36633E+03  1.37583E+03 -7.61261E+03
  1.17209E+04 -6.87405E+03  1.03533E+04  3.98920E+02  6.38367E+03  8.82294E+03  5.50820E+02  1.02664E+04
 -1.25550E+03  7.17692E+03 -7.32383E+03 -1.55829E+03 -5.80928E+03 -2.68447E+03 -2.35606E+03  9.56303E+02
  1.37573E+03 -2.31132E+03 -6.48535E+03 -1.42398E+03 -9.26610E+02 -4.21836E+01 -6.12577E+03 -2.96831E+03
 -1.99534E+03 -7.24014E+03 -7.92633E+02 -6.63193E+03  1.76201E+03 -5.49523E+03  9.05210E+03 -1.85640E+03
  5.76248E+03  4.53095E+03 -1.56334E+03  7.96385E+03 -3.18236E+03  5.25322E+03 -4.76925E+03  2.97447E+03
 -3.36093E+03 -4.20556E+03 -1.41444E+03 -3.60154E+03 -7.87861E+03 -7.06325E+03  5.18326E+03 -5.99511E+03
  5.55282E+03 -1.10221E+03  1.01348E+03  1.64351E+03  1.55895E+03 -5.20747E+02  3.43113E+03  2.17110E+03
 -2.85403E+03 -3.34808E+03  1.72662E+03  5.72943E+03 -6.04819E+01  2.68860E+03  3.43292E+03  1.46813E+03
 -9.87290E+02  3.88651E+03 -7.42412E+03  8.39871E+03 -2.57250E+03  8.31818E+02 -8.93643E+03 -6.21915E+03
 -5.46358E+03 -8.56632E+03  2.27435E+03 -7.65946E+03  4.30155E+03 -6.14459E+02  7.31643E+03  7.79982E+02
  6.14589E+03  5.49104E+03 -1.15606E+03  8.13461E+03 -8.34792E+02 -7.61524E+01 -3.68953E+03  1.28802E+03
 -5.93475E+02 -3.07694E+03  2.23997E+03 -1.25537E+03  1.53176E+03 -6.20618E+03  4.07886E+03 -1.75331E+02
  4.32485E+03 -4.91938E+03  5.24880E+02 -1.32589E+03 -5.43737E+02 -1.51887E+03  4.54268E+03  4.70790E+03
  9.15089E+02  2.15723E+03  4.29251E+03  1.40570E+03  1.82015E+03 -3.41666E+03 -3.97739E+03  5.18790E+03
 -3.73502E+03  2.62481E+03 -3.90968E+03 -1.25024E+03 -4.95970E+03 -2.88900E+03 -1.44205E+01 -4.44477E+03
  8.85541E+02  9.48921E+02  1.27813E+03 -1.53457E+03 -1.05835E+03  5.75724E+03  3.13338E+03  3.06784E+03
  1.69930E+02  2.51841E+03 -3.14412E+03 -2.22814E+02 -6.47635E+03 -3.40937E+03  5.90202E+03  1.96311E+03
  2.64934E+03 -1.12375E+03  3.98983E+03  6.14005E+02  4.48588E+03  1.45605E+03  3.66000E+03  1.96838E+03
  1.56233E+03  2.10819E+03 -1.84239E+03  3.38522E+02 -1.71391E+03 -2.87117E+03 -1.05015E+03  1.67106E+03
  3.54743E+03  2.27652E+03  5.58269E+03  3.41403E+03  2.00869E+03  5.57000E+03 -1.96666E+03  3.18099E+03
 -5.68159E+03  3.39020E+03 -1.43261E+03 -2.36592E+03 -3.37578E+03 -5.16418E+03 -1.36208E+02  2.37151E+03
 -2.95376E+03 -3.66174E+02  1.91153E+03  1.68618E+03  3.31659E+03  5.06070E+03 -4.82338E+03  6.01166E+03
 -1.60147E+02 -2.02402E+03  1.52086E+03  4.79446E+02  3.07733E+03  5.08600E+02 -4.90615E+03 -2.29047E+03
 -6.01900E+03 -6.21855E+02 -4.71109E+03  1.87059E+03 -2.34941E+02  3.20199E+03 -7.46133E+02 -5.97774E+03
  2.72343E+03 -6.83121E+03  3.06509E+03 -9.56135E+03  4.71410E+03 -4.11216E+03  4.56243E+03  1.09409E+03
  8.18926E+03  6.75186E+02  8.06028E+03  4.38286E+03  4.71198E+03  3.44003E+03 -1.15811E+03 -4.79516E+03
  1.10311E+03  6.19446E+03  1.09820E+03 -3.86637E+03 -1.56263E+03  1.23581E+02 -9.86571E+02  2.03911E+03
 -4.18620E+03  1.46718E+03 -2.66210E+03 -3.90245E+01  4.63532E+03 -2.66490E+03  4.72808E+03 -3.26653E+03
  3.81699E+03 -3.65607E+03  1.01672E+03 -1.86876E+03  4.08000E+03 -2.98216E+03 -4.85177E+03  3.69210E+03
 -3.36988E+03  5.50920E+03 -7.46150E+03  2.01101E+03 -3.86538E+03 -4.05097E+03 -1.19591E+03 -2.04360E+03
 -3.07907E+03 -7.02582E+03 -1.12307E+03 -4.86578E+03 -1.33537E+03 -1.65169E+03 -1.19155E+03 -5.55783E+03
 -5.80091E+01  2.62332E+03  2.76448E+03 -1.90475E+03  4.90354E+03  1.87474E+03 -1.12022E+03 -7.78245E+02
 -3.18456E+03 -6.97996E+02 -5.30092E+01 -1.89157E+03  1.44351E+03  3.24518E+02  3.57517E+03 -1.37953E+03
 -2.70717E+03  1.28122E+01 -3.31010E+03 -6.94134E+02  8.50970E+02 -2.77501E+03  9.20145E+02 -1.43130E+03
  1.10259E+03 -7.15352E+02  1.60847E+03 -3.33024E+03  3.43971E+02  3.39088E+03 -8.76651E+01  6.06493E+02
 -2.60748E+03  4.61503E+03 -1.64121E+03  1.00061E+03 -4.73080E+03 -8.39972E+02  3.68328E+03 -2.05791E+03
  2.03679E+03  8.45165E+02 -2.33198E+03  7.83012E+02  1.49989E+03  2.69677E+03 -1.99933E+03  2.03433E+03
 -4.69035E+03 -4.49872E+03  4.70876E+02 -1.05414E+04  2.87385E+03 -4.44119E+02  2.29758E+03  1.72715E+03
  1.29473E+02  3.96125E+03 -5.39350E+03 -5.39315E+01 -4.52338E+02  2.84648E+03 -8.89804E+02  1.87446E+03
