 $NMID ID='MM_0lb_SNR50_15hz_g40_100.RAW', FMTDAT='(8E13.5)'
 TRAMP=1., VOLUME=1. $END
  3.10281E+05  1.06983E+03  3.37199E+05  2.49273E+05  8.64908E+04  3.39525E+05 -1.36987E+05  2.46950E+05
 -1.90917E+05  8.07192E+04 -1.13050E+05 -3.68343E+04  5.24789E+03 -5.45857E+04  5.05413E+04  9.21489E+02
  3.55329E+04  5.68139E+04 -1.51111E+04  6.92466E+04 -6.26491E+04  6.20764E+04 -8.45433E+04  3.05507E+04
 -8.05200E+04 -1.20430E+04 -5.37134E+04 -4.89474E+04 -1.41666E+04 -7.36354E+04  2.49397E+04 -4.29045E+04
  4.08587E+04  4.98658E+03  1.49995E+04  4.48733E+04 -3.68675E+04  4.57837E+04 -7.01398E+04  2.59622E+03
 -5.28932E+04 -5.83301E+04 -5.87578E+03 -7.29730E+04  3.37002E+04 -5.16803E+04  4.76697E+04 -1.95611E+04
  4.20221E+04  1.27275E+04  3.60171E+04  2.36251E+04  1.56247E+04  2.73681E+04 -8.36537E+03  2.56106E+04
 -2.18367E+04  1.26389E+04 -1.74761E+04 -2.91107E+03  3.55505E+03 -6.99085E+03  2.36829E+04  1.14045E+04
  1.00543E+04  3.48655E+04 -3.14354E+04  3.61349E+04 -6.13623E+04  1.44332E+03 -5.94813E+04 -4.22897E+04
 -9.24561E+03 -6.20980E+04  3.53049E+04 -4.09907E+04  5.85808E+04 -6.29090E+03  3.33788E+04  3.07754E+04
 -5.07640E+03  3.54567E+04 -2.82253E+04  1.54004E+04 -3.24946E+04 -4.91395E+03 -1.36992E+04 -1.63010E+04
 -1.15017E+04 -1.76046E+04 -3.10844E+03 -1.04823E+04  1.03420E+04 -1.62644E+04  1.28588E+04 -1.15264E+04
  1.03111E+04 -3.86710E+01 -3.74678E+03  1.94858E+04 -1.88150E+04 -4.30757E+03 -5.80183E+03 -3.54209E+04
  2.41063E+04 -4.25924E+04  4.74037E+04 -1.59986E+04  3.91930E+04  1.94560E+04  1.31503E+04  4.56156E+04
 -1.15710E+04  2.67150E+04 -2.10206E+04 -3.16240E+03 -6.09715E+03 -2.67629E+04  2.02413E+04 -3.39399E+04
  3.86395E+04 -9.52725E+03  3.74999E+04  2.52522E+04  1.69179E+04  4.42635E+04 -1.02613E+04  4.54918E+04
 -3.20703E+04  3.23446E+04 -4.00157E+04  1.06595E+04 -4.30399E+04 -1.22722E+04 -2.18824E+04 -3.55208E+04
  1.18518E+04 -3.47477E+04  3.16856E+04 -1.57054E+04  3.06908E+04  5.92418E+03  5.88611E+03  1.68917E+04
 -1.56797E+04  6.86035E+03 -1.19359E+04 -9.61078E+03  2.16035E+03 -1.18127E+04  1.49841E+04  7.12039E+03
  7.05466E+03  2.08044E+04 -3.72292E+03  2.43251E+04 -1.92723E+04  1.04004E+04 -2.53758E+04 -1.79345E+03
 -1.91091E+04 -1.52594E+04 -7.33840E+03 -1.76545E+04  3.37543E+03 -2.19990E+04  1.27580E+04 -1.86106E+04
  2.10805E+04 -1.08422E+04  3.15656E+04  1.83871E+03  2.42097E+04  1.91231E+04  3.66257E+03  3.45389E+04
 -1.53611E+04  3.07932E+04 -2.58235E+04  6.70758E+03 -2.15764E+04 -1.15170E+04 -1.78694E+03 -1.57708E+04
 -1.19063E+03 -4.98866E+03 -6.93020E+02  3.34266E+03 -1.97574E+04  5.08493E+03 -1.53120E+04 -7.76158E+03
 -6.98389E+03 -1.73160E+04  8.17383E+02 -1.97951E+04  1.08094E+04 -1.21375E+04  1.52590E+04 -4.62649E+02
  9.43611E+03  1.03305E+04  1.22826E+02  1.42049E+04 -1.64344E+04  1.11042E+04 -1.85256E+04 -3.44593E+03
 -1.34453E+04 -1.86790E+04  1.89894E+03 -2.37937E+04  9.24701E+03 -1.68146E+04  1.81723E+04 -8.89593E+03
  1.36113E+04 -4.53791E+02  1.21989E+04  3.06836E+03  2.19090E+03  2.11444E+03  7.95093E+03 -8.85329E+03
  1.97966E+04  9.56033E+02  1.40700E+04  1.92350E+04  1.24873E+04  2.57274E+04 -2.96727E+03  3.20590E+04
 -1.95093E+04  2.15044E+04 -2.52971E+04  7.55681E+03 -2.87607E+04 -1.96973E+02 -2.63834E+04 -1.80009E+04
 -9.65629E+03 -2.11316E+04  8.06182E+03 -2.46225E+04  2.23792E+04 -1.17208E+04  1.71146E+04  7.58538E+03
  6.21940E+03  1.16801E+04 -7.26092E+03  8.96223E+03 -1.82642E+04  3.67992E+03 -1.02384E+04 -1.20228E+04
  3.82747E+02 -1.07918E+04  4.37916E+03 -8.94240E+03  7.65935E+03  4.79646E+00  3.78863E+03  3.36778E+03
 -5.38580E+03 -5.38506E+02 -5.38057E+02 -7.46508E+03 -1.74681E+02 -1.34573E+04  8.99038E+03 -1.59657E+04
  1.45798E+04 -2.81206E+03  1.98061E+04  4.19434E+03  1.30247E+04  9.98268E+03  8.34346E+03  1.44422E+04
 -2.88850E+03  2.22185E+04 -1.08192E+04  7.64090E+03 -1.21797E+04 -2.40799E+00 -1.29026E+04 -1.09009E+03
 -5.88877E+03 -3.56029E+03 -3.03627E+02  6.33610E+03 -2.96134E+03 -7.07289E+02 -8.44413E+02  4.67244E+03
 -1.01503E+04 -7.90424E+02 -1.18125E+04 -7.94848E+03 -3.49634E+03 -1.00781E+04  3.34954E+03 -6.55614E+03
  1.11671E+04 -9.88113E+03  7.53178E+03  3.23123E+03  4.34391E+03  6.92684E+03 -4.12436E+03 -2.55761E+03
 -3.65048E+03 -6.07834E+03  3.02254E+03 -9.96879E+03  6.55509E+03 -1.89356E+04  1.28357E+04 -8.22974E+02
  2.08039E+04 -2.96123E+03  1.02234E+04  4.59995E+03 -2.34559E+02  1.17710E+04 -1.90359E+03  1.34657E+04
 -7.18982E+03  2.90541E+03 -6.69014E+03  2.85958E+03  1.90755E+03  6.47398E+02  2.85076E+03  3.06008E+02
  4.38302E+03  1.26527E+02  5.50306E+03  3.08790E+03 -7.04757E+03  1.19783E+04 -1.09939E+04  7.47752E+02
 -1.06521E+04 -4.20980E+03  1.87318E+03 -1.14251E+04  2.84334E+03 -4.63914E+03  6.25112E+03  1.80250E+03
 -3.86796E+03  8.77614E+03 -3.24223E+03  5.63384E+03 -6.14168E+03 -1.30130E+03 -8.15440E+03 -3.24600E+03
 -3.11584E+03 -6.37881E+03 -3.01157E+03 -8.18323E+03  4.06963E+03 -5.61541E+03  7.37539E+03 -3.10252E+03
  2.39069E+03  4.85140E+03 -2.32666E+03  1.13341E+04 -8.75176E+03  5.96067E+03 -7.21346E+03 -3.67895E+03
 -5.82453E+03 -3.34709E+03  3.72333E+03 -3.58797E+03 -2.59836E+02 -7.32895E+03  1.25040E+03 -4.40438E+03
  2.39027E+03  4.51333E+02 -6.43256E+02  4.60769E+03  4.65170E+03 -2.86202E+03  3.15518E+02 -6.62187E+03
  1.02298E+04 -2.53184E+03  7.99359E+03 -5.06441E+01  2.11495E+03  3.10008E+03  4.52567E+03  1.05546E+04
 -4.69035E+03  1.17209E+04 -6.15211E+03  1.05182E+04 -1.36787E+04  2.59191E+03 -9.09734E+03 -2.56638E+03
 -1.02451E+04 -8.67808E+03 -1.53659E+03 -1.05219E+04  8.45049E+03 -1.72287E+03  1.34042E+03 -5.71234E+03
 -1.25868E+03 -4.73570E+03  4.49885E+03 -3.80139E+03  1.23051E+03  1.30165E+03  2.38860E+03  9.28831E+02
  6.67796E+03  3.01348E+03  5.62735E+03  3.59240E+03 -3.27757E+03  4.43968E+03 -3.06078E+03  1.90850E+03
 -9.71630E+03 -3.41739E+03 -3.12813E+03 -4.19331E+03  2.53237E+03 -1.12092E+04  4.21840E+03 -7.97341E+03
  5.89028E+03 -5.72832E+03  8.95262E+03 -1.80716E+03  9.27010E+03  7.26405E+03  1.00278E+02  8.21059E+03
 -3.72466E+03  9.10885E+03 -3.11593E+02  7.03068E+03 -6.82865E+02 -3.89133E+03 -4.51692E+03 -2.02857E+03
  1.35442E+03  8.01348E+02 -3.80935E+02  3.20871E+03  7.06913E+02  9.13502E+02 -4.33590E+03 -7.19367E+02
 -7.86277E+03 -4.10303E+03 -1.83451E+03 -5.55730E+03  8.52695E+02 -7.02191E+03  2.92136E+03  6.20124E+02
  8.86425E+03  3.42138E+03  6.05507E+03  6.82861E+03  1.71368E+03  6.06088E+03 -6.14625E+03  7.00249E+03
 -2.58468E+03  5.02509E+02 -4.93102E+03 -4.74893E+02  4.09087E+03 -1.73366E+03 -1.43305E+03 -6.49297E+03
  2.80081E+03 -1.54221E+03  5.23601E+03 -7.13295E+02 -2.44161E+02  4.06626E+03  1.09609E+03  3.27824E+02
  1.23187E+03  1.00204E+03  2.89425E+02  1.35912E+03  1.37673E+03 -3.50496E+03  2.90608E+03  6.56392E+02
  1.47817E+03  3.74670E+03 -5.59183E+03  4.76228E+03 -6.20043E+03  5.37343E+02 -7.62463E+03 -1.53325E+03
 -1.06102E+03 -5.14132E+03 -2.53226E+03 -5.40098E+03  5.26822E+03 -4.82485E+03  1.72551E+03 -3.76620E+03
  7.52250E+03  1.66783E+03  3.96603E+03 -1.61779E+03 -2.54393E+03 -9.77611E+02 -9.56970E+02 -4.64835E+02
 -1.49737E+03 -7.60925E+03  2.13260E+03  4.10883E+02 -8.63492E+02 -5.54542E+02  3.27167E+03 -8.59190E+02
  8.87705E+02 -1.36532E+03 -1.66847E+03  6.50761E+02 -3.35846E+03  1.82907E+03  6.76264E+02 -3.63720E+03
 -8.59352E+02 -2.07796E+03  2.02795E+03  2.01204E+03  1.18950E+03  2.52834E+03 -7.14803E+01  9.63467E+01
 -3.09934E+03  4.01314E+03 -7.76861E+03  3.09995E+03 -4.94717E+03 -2.73502E+03 -5.13901E+03 -2.76141E+03
 -8.09650E+02 -1.16177E+03  1.34955E+03 -2.27475E+03  2.35311E+03 -2.17510E+03  2.38414E+03  4.59034E+03
 -7.12786E+02 -8.40594E+02 -2.02660E+03  2.80775E+03 -1.57563E+03 -2.87528E+03  2.53107E+03 -4.38783E+03
  3.22498E+03 -4.14660E+03  2.89134E+03 -3.91809E+03  6.46752E+03 -1.79749E+02 -1.05342E+03  3.24901E+03
 -7.26906E+03 -3.39894E+02 -7.09341E+02 -2.13379E+03 -4.59935E+03 -3.36192E+03  1.37942E+03 -1.13524E+03
  9.44570E+03  4.11703E+02  6.26014E+03  1.33223E+03 -2.89964E+03  1.56908E+03  5.60324E+03  5.88211E+03
 -4.71382E+03 -8.49502E+02 -2.35273E+03 -1.11172E+02 -1.95028E+03 -3.66814E+03 -1.26366E+03 -3.77864E+01
 -7.70817E+02 -1.75695E+03  7.37050E+02 -2.76541E+03  4.83900E+02  1.81485E+03 -1.57377E+03 -1.29512E+03
  9.20498E+02  8.23950E+02 -2.23649E+02  1.09901E+03 -1.93768E+03 -2.34180E+02 -5.44361E+03 -4.84490E+02
  1.16634E+03  3.26269E+03  1.89711E+02 -3.25050E+02 -5.72250E+03  3.75215E+03 -4.89373E+03 -5.73870E+03
  1.91954E+03 -1.93212E+02 -2.21214E+03 -1.57932E+03  3.44088E+02 -4.59734E+03  5.59589E+03  3.30518E+03
  8.05334E+03  1.30714E+02 -1.20598E+03  6.92296E+03  2.43936E+03  8.25804E+03 -5.50793E+03  7.59339E+03
 -3.52965E+03 -5.49569E+02  3.71361E+03 -5.50173E+02 -5.68457E+03  1.40546E+03 -1.83257E+03  2.47733E+03
 -4.42542E+03  2.60129E+02 -4.58269E+03  2.12273E+02 -2.80756E+03 -1.70938E+03 -1.97334E+03 -5.61800E+03
  3.39420E+03  7.02957E+03 -1.40279E+03  1.92222E+03  7.48508E+03  4.41756E+03  1.52881E+02  1.54674E+03
  1.79851E+03 -3.73681E+02 -1.24861E+03  4.18661E+03 -3.76012E+03 -2.34124E+03  4.10235E+03 -4.18459E+03
 -5.48360E+03 -2.33826E+03  1.34216E+03  2.20264E+03  2.34878E+03 -3.38438E+03  5.08503E+02 -9.95685E+02
 -3.88266E+02  4.47484E+02 -1.11877E+03  7.89124E+01 -7.28025E+03 -1.30156E+03 -4.79968E+02  8.13927E+02
 -5.42921E+02 -1.65821E+02 -7.00897E+02 -9.45725E+01  1.72031E+03  2.49968E+03  1.09013E+03  3.69259E+03
  6.99080E+02  4.60485E+03 -3.67964E+03 -1.22359E+03  2.55500E+03  9.93673E+01  3.09053E+03 -3.56357E+02
  3.63798E+03 -6.07321E+02  1.17822E+03  3.85061E+02  3.35811E+03 -4.28006E+03  2.40457E+01 -5.97294E+02
 -1.38829E+03  2.69871E+03 -8.22995E+02  1.61692E+03 -4.75888E+03 -2.66973E+02 -6.13295E+03  1.45172E+03
 -3.33868E+03 -2.16177E+03  2.99963E+03  1.13419E+02  1.05337E+03  1.85425E+03 -4.18808E+02  6.42806E+03
 -3.88414E+03  7.41305E+02 -3.64348E+03 -1.38444E+03  2.17887E+03 -1.77568E+03 -6.13817E+02 -1.20779E+03
  3.59846E+03  4.44405E+02 -4.15608E+02 -2.49053E+02 -3.89779E+03  3.62356E+03 -4.97179E+03  4.70258E+03
