 $NMID ID='MM_0lb_SNR50_15hz_g55_6.RAW', FMTDAT='(8E13.5)'
 TRAMP=1., VOLUME=1. $END
  3.08968E+05 -1.14403E+02  3.37177E+05  2.54842E+05  8.70769E+04  3.39470E+05 -1.31783E+05  2.50661E+05
 -1.88263E+05  8.13286E+04 -1.10645E+05 -3.68186E+04 -2.37042E+03 -5.24981E+04  5.36466E+04 -1.82892E+03
  3.20677E+04  4.83690E+04 -1.83281E+04  7.80862E+04 -6.15167E+04  6.21661E+04 -8.41449E+04  3.47647E+04
 -7.69665E+04 -1.49389E+04 -5.75686E+04 -5.52413E+04 -1.22611E+04 -6.73324E+04  2.64474E+04 -4.69593E+04
  4.70765E+04  4.39590E+03  1.51336E+04  4.70005E+04 -3.41060E+04  4.79366E+04 -6.68177E+04  1.59422E+03
 -4.92541E+04 -5.36181E+04 -5.90564E+03 -7.69015E+04  3.25017E+04 -5.25981E+04  4.61064E+04 -1.60144E+04
  3.73264E+04  9.69039E+03  3.59611E+04  2.35696E+04  1.59290E+04  2.73102E+04 -6.95347E+03  2.71558E+04
 -2.51790E+04  1.34820E+04 -1.91718E+04 -1.05507E+04  7.07480E+03 -6.93565E+03  2.42635E+04  7.45225E+03
  9.74713E+03  3.90572E+04 -2.87491E+04  3.73904E+04 -6.35705E+04  3.95656E+03 -5.93506E+04 -4.23427E+04
 -8.52177E+03 -6.03385E+04  4.12647E+04 -4.73094E+04  6.20858E+04 -1.21777E+03  2.80898E+04  3.07553E+04
 -7.29746E+03  4.04231E+04 -3.28399E+04  1.83028E+04 -2.60667E+04 -5.65817E+03 -1.70535E+04 -1.70074E+04
 -8.53932E+03 -1.15976E+04 -2.25800E+03 -1.43265E+04  8.81158E+03 -2.62498E+04  1.40032E+04 -1.36466E+04
  1.35757E+04  9.41152E+03 -1.22298E+04  9.62848E+03 -1.87029E+04 -5.77247E+03 -9.62168E+03 -3.19311E+04
  2.46321E+04 -4.93810E+04  5.08288E+04 -2.16726E+04  3.82873E+04  1.89410E+04  1.85497E+04  4.39117E+04
 -1.68139E+04  3.59480E+04 -2.87976E+04  6.60175E+03 -1.01566E+04 -2.91634E+04  1.49293E+04 -3.46627E+04
  4.09416E+04 -1.16328E+04  3.63963E+04  2.62355E+04  1.15002E+04  4.78422E+04 -3.51293E+03  4.91159E+04
 -2.90844E+04  3.51527E+04 -4.02206E+04  1.03311E+04 -4.24462E+04 -1.45960E+04 -2.28858E+04 -4.01961E+04
  3.83324E+03 -3.31538E+04  2.57246E+04 -1.95253E+04  3.19465E+04  1.20987E+04  4.90925E+03  2.07855E+04
 -1.27847E+04  7.02634E+03 -8.10398E+03 -1.05320E+04  1.03278E+04 -1.31019E+04  2.00660E+04  8.42750E+03
  1.82413E+04  2.13104E+04 -7.23141E+03  2.27684E+04 -2.38588E+04  1.02777E+04 -2.66284E+04 -5.87357E+03
 -2.44179E+04 -1.57170E+04 -3.27738E+03 -1.98522E+04  5.15284E+03 -2.32263E+04  1.82941E+04 -1.58924E+04
  2.95372E+04 -1.26602E+04  3.26669E+04  8.41593E+03  2.89415E+04  1.91263E+04  3.62267E+03  4.15851E+04
 -2.04508E+04  3.42589E+04 -2.74400E+04  1.07106E+04 -2.06882E+04 -9.80291E+03 -5.51927E+03 -1.74766E+04
 -1.26277E+03 -2.81593E+03 -1.00516E+03  7.99337E+03 -1.48503E+04  2.92234E+03 -1.62887E+04 -3.90842E+03
 -8.49392E+03 -1.80997E+04  6.07516E+03 -2.70376E+04  1.71897E+04 -1.34211E+04  1.62905E+04 -7.79665E+02
  8.33372E+03  1.44719E+04 -1.50329E+03  2.09525E+04 -1.24971E+04  1.30926E+04 -2.43765E+04 -5.18437E+03
 -1.31518E+04 -1.52045E+04 -8.31531E+02 -2.15882E+04  1.26218E+04 -2.10552E+04  2.02281E+04 -1.24346E+04
  1.54853E+04  6.70779E+02  1.34935E+04  9.01014E+03  6.08967E+03  2.17523E+02  6.79039E+03 -3.99871E+03
  1.58437E+04 -1.43849E+03  2.18163E+04  1.37282E+04  1.67826E+04  3.38728E+04 -4.66040E+03  3.21991E+04
 -2.00447E+04  2.62677E+04 -3.51820E+04  1.51256E+04 -3.36671E+04  2.81826E+02 -2.66615E+04 -2.10887E+04
 -1.06596E+04 -2.66900E+04  6.87152E+03 -2.35444E+04  2.04612E+04 -1.10345E+04  2.08513E+04  4.77842E+03
  9.40512E+03  1.32404E+04 -1.18286E+04  1.44850E+04 -1.02674E+04  3.12494E+03 -8.54747E+03 -1.30998E+04
 -3.48094E+03 -1.42234E+04  9.92625E+03 -1.18592E+04  9.88187E+03 -2.73059E+03  1.26445E+03  3.76134E+03
 -9.52126E+03  3.58522E+03 -3.52624E+03 -5.40037E+03  2.07602E+03 -9.83637E+03  9.40971E+03 -1.50744E+04
  1.65141E+04 -7.31416E+03  1.43510E+04  6.00289E+03  1.58055E+04  1.61154E+04  7.53674E+03  1.98008E+04
 -3.08250E+03  2.30730E+04 -1.39851E+04  1.29454E+04 -1.91797E+04  3.32512E+03 -1.02125E+04  2.55858E+03
 -8.47012E+03 -5.43879E+03  1.47106E+03 -1.99878E+03  3.71092E+03  6.00220E+03 -1.75970E+03 -3.54081E+03
 -1.69012E+04  3.59663E+03 -9.45339E+03 -1.13937E+04 -2.02403E+03 -1.22208E+04  3.52484E+03 -9.37967E+03
  7.38991E+03 -2.59015E+03  1.01625E+04 -4.78329E+02 -9.22653E+02  5.43468E+03 -6.44707E+03  2.31737E+03
 -3.68873E+03 -6.09406E+03  9.37301E+02 -8.28879E+03  3.93661E+03 -6.03570E+03  6.14150E+03 -3.44898E+03
  1.97639E+04  2.62163E+03  1.04161E+04  6.30687E+03  1.29734E+02  1.36018E+04 -1.12412E+04  1.46093E+04
 -9.37821E+03  1.97661E+03 -3.18804E+03 -5.14348E+03  1.77442E+03 -4.18361E+02  5.20247E+03 -2.03850E+02
  3.54799E+03  6.28557E+03 -4.94417E+03  1.07813E+04 -5.80523E+03  8.91757E+03 -9.55834E+03  4.39308E+03
 -1.09064E+04 -5.91788E+03  2.58853E+03 -9.91097E+03  1.85104E+03 -3.13746E+03  1.06441E+04 -1.89058E+03
  1.85488E+03  1.36276E+03  2.49461E+03  8.90083E+03 -9.16007E+03  4.78148E+03 -7.07489E+03  2.10948E+03
 -8.77270E+03 -7.00278E+03 -6.04618E+02 -7.46251E+03  1.07504E+04  1.05799E+03  1.22315E+04 -2.70308E+03
  3.71492E+03  5.87807E+03  4.61395E+03  1.44421E+04 -1.04334E+04  8.20610E+03 -8.36099E+03 -1.02559E+03
 -1.02053E+04 -3.11996E+03 -4.92378E+03 -1.04187E+04  3.13651E+03 -6.25668E+03  3.54944E+03 -7.37498E+03
  5.99149E+03 -3.71391E+02 -4.86495E+03  4.42299E+03 -6.45801E+03 -3.09786E+03  6.12062E+03 -7.00765E+03
  7.34170E+03 -8.00881E+03  5.07786E+03  5.57817E+03  7.43260E+03  5.62401E+03  2.18328E+03  1.11221E+04
 -1.69871E+03  1.36813E+04 -1.63070E+04  3.91347E+03 -1.36716E+04  4.29153E+03 -1.23542E+04 -6.64751E+03
 -6.39528E+03 -9.44438E+03  2.72201E+03 -7.38012E+03 -3.34148E+03 -2.40753E+03 -4.85494E+02 -1.11508E+03
  2.39315E+03 -3.60448E+03  6.63396E+03  8.06076E+02  3.84635E+03 -1.78752E+03  1.37807E+04  4.53604E+02
  1.55165E+03 -2.80045E+03 -8.91096E+02  3.12651E+03 -1.18681E+03  1.84688E+03 -6.92289E+03  3.98005E+03
 -5.81929E+03 -2.69961E+03 -2.56331E+03 -7.88659E+03  2.17144E+03 -6.39660E+03  5.62311E+03 -8.98499E+03
  8.72337E+03 -1.78205E+03  9.64248E+03  5.40155E+02  8.84125E+03  6.22983E+03 -1.92207E+03  1.25552E+04
 -6.67715E+03  9.59469E+03 -6.55150E+03 -2.71557E+02  9.94617E+02 -4.45737E+03  2.36626E+02  1.14361E+02
  1.89168E+03  3.82828E+03 -3.04782E+02  7.02824E+03 -1.80433E+03  1.87204E+03 -4.22505E+03  2.45894E+03
 -3.18090E+03 -4.93618E+03 -1.40565E+03 -1.03414E+04  5.40767E+03 -1.57696E+03  7.15690E+03 -3.97274E+03
  8.53344E+03  3.73942E+03  1.07126E+03  4.78710E+03 -3.76813E+03  4.11264E+03 -9.13854E+03  4.61829E+03
 -4.14135E+03 -1.72285E+03 -2.71082E+03 -5.62628E+03 -1.34172E+03 -3.90571E+03  1.09716E+03 -4.02068E+03
  2.90152E+02 -1.57400E+03  3.85454E+03 -1.56366E+03  2.48146E+03  2.40487E+03  4.30022E+03  1.67552E+03
  8.41821E+03  3.77889E+03  1.86464E+03  2.85524E+03  5.16310E+03  7.88776E+02  2.56064E+03  6.51765E+03
 -1.02498E+03 -2.65398E+01 -7.38958E+03  3.72848E+03 -6.14101E+03  3.91171E+03 -7.61249E+03 -4.10853E+03
 -2.30981E+03 -4.46111E+03  9.39635E+02 -6.38401E+03  6.47835E+03 -5.33871E+03  2.07800E+03 -5.83306E+03
  1.95359E+03  6.39684E+03  7.76845E+03  2.74255E+03 -2.57210E+03  2.02188E+03 -1.13077E+02 -1.43891E+03
 -2.43099E+03 -4.98798E+03  2.65848E+03 -2.76855E+03 -1.50073E+03 -9.58846E+02  1.28902E+02 -2.78867E+03
  7.21529E+02  7.33640E+02 -4.45272E+02  3.05724E+03 -3.62870E+03  1.47865E+03  2.47222E+03 -1.71388E+03
 -2.55180E+03 -6.51588E+02  3.89053E+03 -6.65179E+02  4.18458E+03  2.83842E+03 -8.13940E+02  4.31236E+03
 -4.97629E+03  3.14838E+03 -5.21293E+03  5.03206E+02 -6.56838E+03 -2.81912E+02 -1.93796E+03  3.76841E+03
 -2.00895E+03 -5.12688E+02 -3.06518E+03 -1.96910E+03  3.07919E+03 -2.12658E+02 -3.71940E+02  2.77477E+03
  5.08388E+02  4.15568E+03 -3.35625E+03 -2.04832E+03  2.48754E+02 -2.26670E+03 -8.07501E+02 -3.48283E+03
 -2.53131E+02 -4.52052E+03  2.90442E+03 -2.10545E+03  2.31654E+03 -2.84304E+03  4.72908E+03  3.33701E+03
  3.13334E+02  1.60232E+03 -3.59882E+03  2.34235E+03 -1.43331E+03  1.40728E+03  4.63316E+03 -3.88391E+03
  5.17886E+03  4.85627E+03  4.40400E+03  1.69214E+03 -8.63345E+02  8.58728E+02 -3.24423E+03  3.24191E+03
 -5.33201E+03  9.25749E+02 -4.55142E+03 -2.64575E+03 -2.20495E+03 -6.28331E+01  1.23606E+03 -2.75289E+03
  3.23119E+03 -1.34368E+03  3.58498E+03  4.10914E+03  5.70012E+02  5.11709E+03  2.28571E+03  5.58291E+03
 -4.11052E+03 -2.08640E+03 -2.17938E+03 -3.30950E+02 -7.00958E+02 -1.52571E+03 -6.63712E+03  2.85486E+03
  1.25322E+03  1.13223E+03 -3.41249E+03  2.46995E+03 -6.41207E+03  1.84827E+03 -5.06897E+03  1.71956E+03
  4.44862E+02 -5.29735E+03  1.26287E+03 -3.76362E+03  4.37695E+03 -5.63988E+03  1.09626E+04 -1.43861E+03
  8.66118E+02 -2.82757E+03  3.06853E+03  5.21698E+03  2.94357E+03  2.72580E+03  1.82061E+03  5.38663E+03
 -6.15955E+03  2.26673E+03 -4.04325E+03  2.51608E+03  1.43818E+03 -2.16095E+03 -2.19941E+03  8.23324E+02
  4.09614E+03  2.99104E+03 -1.36623E+02  3.95711E+01  2.05304E+02 -7.02551E+02  1.31388E+03 -2.70747E+03
  5.86468E+03 -2.72513E+03  3.07254E+03  4.18974E+02  8.51872E+02  1.86873E+03  4.84721E+03  3.19692E+03
  1.26835E+03  2.76591E+03 -4.08233E+03  4.39314E+03 -4.50852E+03 -7.40286E+02 -3.69271E+03 -5.23524E+03
 -1.52586E+03 -4.08582E+03  2.90222E+02 -6.06901E+03  4.11024E+02 -1.65577E+02  2.30825E+03  3.47554E+03
 -1.90267E+03  3.84828E+02 -3.51361E+03  2.28553E+03  4.37595E+02 -4.58829E+03  6.33601E+03 -2.62909E+03
 -2.08552E+03 -1.11910E+03  1.43965E+03 -4.85296E+03 -2.30681E+03 -2.18526E+03  6.86283E+02  3.89751E+02
 -3.61676E+02  3.99120E+03  3.19164E+03 -6.77290E+02 -4.80993E+03 -3.97710E+03  4.95403E+02 -1.44279E+03
  3.13540E+03 -1.65729E+02  1.73075E+03 -1.11672E+02 -2.93503E+03 -1.68179E+03  1.20772E+02  6.23071E+02
  1.97952E+03  3.50278E+03 -1.63034E+02  7.16067E+02 -1.76686E+03 -1.66755E+03  1.46208E+03  1.93688E+03
 -4.48688E+03 -1.30689E+03 -6.13816E+03  9.39968E+02 -2.59483E+03  1.57038E+03  9.93659E+02 -1.15346E+03
 -3.49654E+03 -2.21371E+03 -3.25966E+03 -5.33259E+03 -2.23107E+03  1.49333E+03  1.70517E+03 -1.65436E+03
  4.10941E+03  9.34713E+01 -1.36399E+03  1.25019E+03  1.20328E+02  3.54206E+02 -2.77323E+03  1.28897E+03
