 $NMID ID='MM_0lb_SNR50_7hz_g45_65.RAW', FMTDAT='(8E13.5)'
 TRAMP=1., VOLUME=1. $END
  3.05454E+05 -2.18653E+03  3.39228E+05  2.50949E+05  8.92100E+04  3.39326E+05 -1.36105E+05  2.56394E+05
 -1.94794E+05  7.74933E+04 -1.13069E+05 -3.21209E+04  1.36657E+03 -5.20818E+04  5.64705E+04 -1.18779E+03
  3.61467E+04  5.15650E+04 -2.30200E+04  8.42956E+04 -6.47793E+04  6.47238E+04 -8.46876E+04  3.58711E+04
 -7.82478E+04 -7.94095E+03 -6.23893E+04 -4.48310E+04 -1.39443E+04 -6.24633E+04  2.96797E+04 -5.43051E+04
  4.65958E+04  5.19557E+03  6.76384E+03  4.87772E+04 -2.89778E+04  5.05914E+04 -6.99678E+04  3.01685E+03
 -6.19316E+04 -5.63578E+04 -5.27656E+03 -8.28367E+04  3.34958E+04 -5.24720E+04  4.68227E+04 -1.94696E+04
  4.90746E+04  2.96536E+03  3.01848E+04  3.15801E+04  1.36169E+04  2.62901E+04 -9.20839E+03  2.47374E+04
 -2.42970E+04  1.00587E+04 -1.51724E+04 -6.08506E+03  6.55120E+03 -1.46304E+03  2.38722E+04  1.44260E+04
  1.20153E+04  3.82086E+04 -3.21112E+04  3.87866E+04 -6.14291E+04  7.25321E+03 -6.42699E+04 -4.14088E+04
 -1.49694E+04 -6.48767E+04  3.74837E+04 -4.90337E+04  5.93794E+04  2.08246E+03  3.99788E+04  3.90146E+04
 -9.23094E+03  3.92217E+04 -3.23023E+04  2.43678E+04 -4.04631E+04 -7.83496E+03 -2.49605E+04 -7.03632E+03
 -1.14218E+04 -2.40921E+04  1.14095E+03 -2.36765E+04  1.62732E+04 -1.94806E+04  1.60655E+04 -3.50746E+03
  4.99010E+03  8.09193E+03 -1.06891E+04  1.59260E+04 -3.34331E+04 -4.76719E+03 -9.11076E+03 -3.95797E+04
  2.38479E+04 -5.34192E+04  5.80952E+04 -1.92878E+04  4.82852E+04  2.49221E+04  2.50834E+04  4.99594E+04
 -2.07030E+04  3.63165E+04 -2.63577E+04  7.02016E+03 -1.74638E+04 -3.08390E+04  2.12324E+04 -3.36288E+04
  4.60072E+04 -9.71474E+03  4.38304E+04  2.60376E+04  2.42313E+04  5.17551E+04 -7.56904E+03  5.99230E+04
 -2.77325E+04  3.98420E+04 -4.20915E+04  1.04545E+04 -5.30851E+04 -1.69495E+04 -2.44410E+04 -4.55670E+04
  1.26378E+04 -4.22996E+04  3.50623E+04 -9.83752E+03  3.70488E+04  1.00514E+04 -2.14391E+03  1.83601E+04
 -1.70088E+04  9.20267E+03 -1.38140E+04 -9.30035E+03  3.92079E+03 -1.95225E+04  1.48959E+04  1.19741E+04
  1.27570E+04  3.00919E+04 -4.10446E+03  2.39567E+04 -2.80717E+04  2.47508E+04 -3.07932E+04 -2.81135E+03
 -3.60517E+04 -1.99793E+04 -1.71606E+04 -2.50503E+04 -4.52264E+03 -2.95794E+04  1.99200E+04 -3.29185E+04
  2.92762E+04 -8.86757E+03  3.56168E+04  7.63584E+03  3.00937E+04  2.92364E+04  6.41504E+03  4.63476E+04
 -1.70640E+04  3.24885E+04 -3.39463E+04  1.64977E+04 -2.41113E+04 -1.15534E+04 -9.91742E+03 -8.57706E+03
  5.13708E+03 -6.78624E+02 -6.20659E+03  6.07032E+03 -1.77598E+04  6.43846E+03 -1.28620E+04 -1.10613E+04
 -1.86539E+04 -2.34058E+04  1.80521E+04 -2.88760E+04  1.71283E+04 -2.31265E+04  2.51442E+04 -4.88540E+02
  1.20323E+04  1.57991E+04 -1.79656E+03  2.52873E+04 -2.03777E+04  1.03439E+04 -2.37528E+04 -5.72162E+03
 -1.73351E+04 -2.73475E+04  1.11874E+02 -3.01745E+04  9.52598E+03 -2.17529E+04  3.02929E+04 -1.31901E+04
  2.22409E+04 -7.39150E+01  1.61447E+04  3.18210E+03  2.89978E+03  9.93284E+03  1.21314E+04 -4.64730E+02
  2.00674E+04  4.98016E+03  3.03776E+04  2.64884E+04  1.91798E+04  4.06904E+04 -5.90577E+03  4.51154E+04
 -2.86986E+04  3.11894E+04 -4.81589E+04  3.37931E+04 -4.98568E+04 -6.88420E+03 -4.13053E+04 -3.48383E+04
 -9.44728E+03 -3.82338E+04  1.97799E+04 -3.41312E+04  3.01737E+04 -2.32424E+04  2.18722E+04  2.60248E+03
  1.67201E+04  2.40600E+04 -1.26312E+04  1.36794E+04 -2.14097E+04  7.02290E+03 -1.17405E+04 -8.22845E+03
  4.39322E+02 -2.59521E+04  1.45804E+04 -1.15574E+04  1.61585E+04 -1.25086E+04 -1.53916E+03  1.45619E+04
 -1.45089E+04  9.48501E+03 -1.00084E+04 -6.67493E+02 -7.71783E+03 -2.54352E+04  1.31426E+04 -2.37112E+04
  1.71546E+04 -2.03384E+04  3.41170E+04  1.46947E+04  3.34943E+04  2.26321E+04  1.27613E+04  3.45947E+04
 -7.20187E+03  3.63370E+04 -2.32044E+04  2.61433E+04 -2.06748E+04  1.58194E+04 -1.68985E+04 -2.41030E+03
 -5.01503E+03 -1.16021E+04 -1.53516E+03  4.51809E+03 -2.94311E+03  3.09753E+03 -7.85351E+03  7.12328E+03
 -1.74723E+04  7.12732E+02 -1.17976E+04 -7.29312E+03 -7.61727E+03 -2.09902E+04  3.58695E+02 -1.81133E+04
  1.59376E+04 -8.86817E+03  3.92140E+03  1.87142E+03  2.75926E+03  1.08277E+04 -1.35996E+04 -1.59908E+03
 -9.50299E+03 -1.79267E+04 -6.57430E+03 -1.20584E+04  1.21009E+04 -2.33078E+04  2.51730E+04 -9.86183E+03
  1.91629E+04 -2.08543E+03  2.13230E+04  1.45239E+04  3.18746E+03  2.49841E+04 -1.18561E+04  7.66774E+03
 -1.53288E+04  2.35543E+03 -6.86147E+03 -8.21853E+03 -2.75538E+02 -4.15293E+03  5.29450E+03 -8.91187E+03
  9.71499E+03  1.10043E+04  6.54446E+03  1.24619E+04 -1.57149E+04  1.17544E+04 -1.74230E+04 -3.28549E+03
 -1.24007E+04 -1.22795E+04 -2.73054E+03 -1.99933E+04  1.55045E+04 -1.02819E+04  7.92547E+03  3.82809E+03
  8.44221E+03  1.00828E+04 -3.06315E+03  1.44027E+04 -1.82301E+04  6.94156E+03 -1.46017E+04 -1.27409E+04
 -8.74527E+03 -1.29781E+04 -1.42456E+03 -2.26621E+04  1.54570E+04 -1.07319E+04  2.49867E+04  6.68108E+03
  1.06616E+04  1.13094E+04 -1.98207E+01  2.24322E+04 -1.13227E+04  1.55425E+04 -1.56341E+04 -8.26019E+02
 -1.16948E+04 -7.45951E+03 -3.91423E+03 -1.48338E+04  1.31532E+04 -1.88911E+04  1.40493E+04 -3.76635E+03
  8.03419E+03  1.55724E+03 -5.99902E+03 -2.74152E+03 -7.20469E-01 -1.64201E+03  1.76617E+03 -7.76602E+03
  7.13796E+03 -9.34707E+03  1.85126E+04  3.18752E+03  2.44699E+04  9.70246E+03  1.07319E+04  2.22675E+04
 -1.10438E+04  2.30961E+04 -2.50489E+04  1.06355E+04 -2.99984E+04  5.82115E+03 -2.48341E+04 -3.85204E+03
 -1.87929E+04 -2.01752E+04 -5.44136E+03 -1.58952E+04  2.21151E+03 -1.45981E+04  9.61276E+03 -6.49213E+03
  5.00990E+03 -6.25091E+02  1.19440E+04 -1.31253E+04  7.07639E+03 -5.32440E+03  1.32584E+04  4.85625E+02
  9.27285E+03  2.50519E+02  6.79277E+03  1.23627E+04 -2.19152E+03  1.15083E+04 -9.74113E+03  6.89675E+03
 -1.66371E+04  4.57818E+03 -1.04100E+04 -8.74282E+03  2.58425E+03 -2.33723E+04 -2.37601E+03 -2.06754E+04
  2.11316E+04 -9.47316E+03  2.76572E+04  2.62003E+03  1.97707E+04  1.23122E+04  1.22437E+03  1.54835E+04
 -7.33081E+03  2.23818E+04 -1.80696E+04  1.13490E+03 -1.20434E+04 -7.56870E+01 -9.77976E+03 -2.02973E+03
 -6.92641E+03  3.03219E+03  5.25250E+03 -7.03673E+02 -1.31886E+04  4.85950E+03 -8.52624E+03  1.85949E+03
 -1.42180E+04 -1.22671E+04  5.97901E+03 -2.18468E+04  1.20316E+04 -8.20361E+03  1.98334E+04  4.52485E+03
  2.29683E+04  4.57562E+03  6.20464E+03  1.41979E+04 -2.60475E+03  1.81515E+04 -1.45559E+04  1.15134E+04
 -1.99466E+04  1.08663E+03 -9.12832E+03 -1.30033E+04 -6.50580E+03 -1.65499E+04  6.04000E+03 -1.44616E+03
  1.02875E+04 -3.70413E+03  1.01461E+04  3.76171E+03  5.47065E+03  1.54274E+03  5.04862E+03  2.02706E+03
  2.38990E-01  5.12774E+03  6.14591E+03  3.85412E+03  4.51315E+03  4.18471E+03  6.63430E+03  6.91661E+03
 -1.62603E+03  2.16598E+03 -4.47427E+03  1.85358E+04 -2.12152E+04  2.82717E+03 -1.87402E+04 -9.85086E+03
 -5.08055E+03 -2.01214E+04 -2.83752E+03 -1.76638E+04  9.32947E+03 -1.55158E+04  1.08659E+04  2.76003E+03
  1.11145E+04  7.77003E+03 -1.79116E+03  1.32337E+04 -6.21258E+03  5.45540E+03 -6.43992E+03 -6.83362E+03
 -7.10469E+03 -1.13565E+04  9.57694E+02 -5.65679E+03  6.40081E+03 -6.05912E+02  4.30003E+03 -5.28610E+03
  7.28357E+03  5.24506E+03  8.83497E+03 -4.41370E+03 -4.84782E+03  1.25161E+04  2.03865E+03 -8.42957E+03
  2.86281E+03  8.97661E+02  1.80754E+03  8.98603E+03  5.04325E+03  1.51791E+04  7.72345E+03  1.64977E+04
 -8.13142E+03  6.98709E+03 -7.47365E+03  5.51901E+03 -1.04228E+04 -2.42938E+03 -2.58932E+03 -6.78832E+03
  1.51079E+03 -4.05114E+03  1.15740E+04  5.56872E+03  3.20895E+03  3.27167E+03 -6.20225E+03  9.08669E+03
 -1.26743E+04  2.06218E+03 -3.13786E+03 -2.49260E+03 -4.50680E+03 -1.79914E+04  3.16251E+03 -4.29184E+03
  8.12226E+03  2.73603E+03  8.18648E+03 -7.86857E+03  1.04327E+04 -2.03791E+03  9.08346E+02  1.00340E+04
 -9.83087E+03  3.32223E+02 -3.93858E+03 -4.33820E+03  5.45660E+03 -1.84609E+04  1.79763E+04 -1.41961E+04
  1.23382E+04  1.41260E+03  1.56411E+04  1.25360E+04  9.97246E+02  1.51632E+04  4.33550E+02  1.35901E+04
 -1.25545E+04  5.01189E+03 -1.05893E+04 -1.28700E+03 -3.97482E+03 -1.24158E+04  6.06065E+03 -1.08745E+04
 -9.97640E+02 -7.69089E+03  1.26711E+04  2.99524E+03  4.67153E+02  5.52182E+03 -3.85444E+03 -2.06443E+03
 -7.64287E+03  2.26916E+03  7.37410E+03 -8.92970E+02 -5.92249E+03  6.74637E+01  4.61481E+03  1.05328E+04
 -2.20817E+03  7.83080E+03 -8.69940E+03  4.87479E+03 -1.25613E+04  1.90845E+03 -1.05365E+04 -1.67308E+04
 -1.29650E+03 -2.12498E+04  5.60879E+03 -1.43022E+04  1.44828E+04 -1.57133E+04  1.09652E+04 -7.51168E+03
  1.95921E+04  1.59290E+03  1.20351E+04  1.92453E+04 -3.00691E+03  1.97228E+04 -2.93571E+03  9.52205E+03
 -1.44290E+04 -6.55854E+02 -8.61924E+03 -1.01085E+04  7.32587E+02 -8.86534E+03 -4.94850E+03  9.01154E+01
 -1.83473E+03 -8.38189E+01 -2.82730E+03 -4.99867E+02 -4.11853E+03  8.65428E+02  8.70556E+03 -1.13771E+04
  3.86946E+02 -9.53482E+02  8.42160E+03  1.04932E+03  1.11378E+04  1.05464E+04  4.28282E+03  9.11194E+03
 -5.69871E+02  1.90205E+04 -2.13134E+04  1.19889E+04 -1.92549E+04 -7.40840E+02 -1.77106E+04 -1.31093E+04
 -5.19020E+03 -1.68266E+04  2.69221E+03 -1.50418E+04  3.50428E+03 -1.00723E+04  1.12685E+04  4.04115E+03
  4.67900E+03  4.38746E+03 -1.54058E+03  4.14404E+03  4.05869E+03  2.46886E+03 -3.29384E+03 -4.12548E+03
 -2.06623E+03 -6.17953E+02  3.73194E+03 -8.82585E+02  8.01968E+03  1.47311E+03 -1.01652E+03  4.72397E+03
 -1.92455E+03  5.75462E+03 -1.07609E+04  1.29357E+03 -8.62463E+03 -9.17364E+03 -5.60135E+03 -1.25475E+04
  9.19326E+03 -7.47723E+03  1.37429E+04 -6.37741E+03  1.59809E+04  4.73581E+03  9.51575E+03  9.27936E+03
  7.38048E+03  9.74563E+03 -4.01125E+03  1.13076E+04 -4.63708E+03  3.78342E+03 -8.51687E+03  1.86327E+03
 -4.66156E+03  9.89523E+02 -6.49480E+03 -3.15121E+02 -3.51552E+03  3.54448E+03 -4.93258E+03  1.47365E+03
 -6.39043E+03 -3.33848E+03  2.15684E+02 -8.07477E+03  8.47993E+03  8.11988E+02  3.80416E+03  2.22907E+03
  1.39033E+04  5.22863E+03  6.30641E+03  5.49730E+03  6.31036E+03  1.88007E+04 -5.91856E+03  4.21253E+03
