 $NMID ID='MM_0lb_SNR50_9hz_g55_86.RAW', FMTDAT='(8E13.5)'
 TRAMP=1., VOLUME=1. $END
  3.01768E+05  1.72863E+02  3.38497E+05  2.47351E+05  9.40676E+04  3.45276E+05 -1.29101E+05  2.53511E+05
 -1.94155E+05  8.77261E+04 -1.12160E+05 -3.39094E+04  1.03582E+03 -4.83313E+04  5.37526E+04 -5.07088E+03
  3.99894E+04  5.42523E+04 -1.27220E+04  7.61478E+04 -6.36295E+04  6.45125E+04 -8.37729E+04  3.17428E+04
 -8.14797E+04 -1.30968E+04 -6.12896E+04 -4.73289E+04 -1.26391E+04 -7.42498E+04  2.51554E+04 -4.14739E+04
  4.65324E+04  9.05187E+03  1.25703E+04  5.36901E+04 -2.61659E+04  4.93367E+04 -6.81998E+04 -9.60525E+03
 -5.38348E+04 -5.40530E+04 -9.57163E+03 -7.59573E+04  3.52275E+04 -5.56294E+04  5.37700E+04 -1.88150E+04
  4.64473E+04  1.62232E+04  3.35784E+04  3.13385E+04  1.73263E+04  2.85857E+04 -9.92602E+03  3.21902E+04
 -2.18637E+04  1.49131E+04 -2.27457E+04 -8.56871E+03  1.12791E+04 -1.41102E+04  2.92309E+04  1.41229E+04
  1.08807E+04  3.68027E+04 -3.28892E+04  3.56352E+04 -6.53820E+04 -3.26199E+02 -6.00290E+04 -5.20637E+04
 -1.30558E+04 -6.37364E+04  4.50071E+04 -4.75184E+04  6.18063E+04 -1.44687E+03  3.91544E+04  3.50572E+04
 -5.85322E+02  4.18856E+04 -3.81865E+04  1.95579E+04 -3.89750E+04 -1.76371E+03 -2.42640E+04 -1.17101E+04
 -7.12778E+03 -9.93429E+03  1.88538E+03 -2.26216E+04  1.03927E+04 -2.02726E+04  1.92914E+04 -1.57916E+04
  8.72039E+03  7.91172E+03 -9.34930E+03  7.08876E+03 -2.86107E+04 -5.82320E+03 -5.34775E+03 -3.40775E+04
  2.81379E+04 -5.07495E+04  4.80632E+04 -2.32749E+04  4.88854E+04  2.49549E+04  1.27306E+04  4.84216E+04
 -2.24189E+04  3.49532E+04 -3.31673E+04  7.11976E+03 -9.67569E+03 -3.64558E+04  2.06727E+04 -3.85134E+04
  4.30525E+04 -1.28822E+04  3.75729E+04  2.33430E+04  2.34332E+04  5.32497E+04 -4.20817E+03  5.43540E+04
 -3.75264E+04  3.66647E+04 -5.41934E+04  1.69600E+04 -4.81460E+04 -1.55697E+04 -2.40592E+04 -4.04428E+04
  5.18067E+03 -4.39028E+04  3.17490E+04 -1.54777E+04  3.47845E+04  6.58880E+03  1.12072E+04  2.96850E+04
 -1.24683E+04  6.93040E+03 -9.23934E+03 -6.46542E+03 -8.72143E+02 -7.74328E+03  1.97459E+04  7.12399E+03
  1.69606E+04  2.42822E+04 -6.29751E+03  2.98054E+04 -2.96624E+04  1.17247E+04 -2.74344E+04 -5.39133E+03
 -2.58938E+04 -2.05737E+04 -1.22981E+04 -2.17275E+04  1.00053E+04 -2.68083E+04  1.47385E+04 -2.07537E+04
  3.49768E+04 -1.81016E+04  3.67536E+04  7.63414E+03  3.03546E+04  2.61498E+04  1.72873E+02  4.05416E+04
 -1.91223E+04  3.26225E+04 -2.91934E+04  6.02371E+03 -2.17624E+04 -8.15094E+03 -4.61894E+03 -1.39966E+04
  1.90809E+03 -3.55687E+03 -1.23157E+04  1.51284E+04 -1.96747E+04  7.76987E+03 -2.02499E+04 -1.40873E+04
 -1.17235E+04 -2.82404E+04  5.43557E+03 -3.20096E+04  2.39560E+04 -1.34482E+04  2.55980E+04 -3.30002E+03
  1.46682E+04  1.77265E+04 -1.39905E+03  2.36553E+04 -2.14109E+04  1.03908E+04 -1.84460E+04  2.55147E+02
 -2.65032E+04 -2.39420E+04 -6.50573E+02 -3.33228E+04  3.76209E+03 -2.91241E+04  3.01188E+04 -1.43413E+04
  2.47175E+04  3.88323E+03  1.37869E+04 -1.91314E+02  1.70453E+04  1.25054E+03  1.91723E+04 -2.17009E+02
  2.75343E+04 -2.38887E+03  2.78275E+04  1.54639E+04  1.36919E+04  3.46444E+04  4.86423E+03  4.09715E+04
 -2.16018E+04  3.99440E+04 -4.11481E+04  2.48012E+04 -4.48783E+04 -4.42887E+02 -3.66384E+04 -2.44547E+04
 -5.56327E+03 -3.97182E+04  1.56264E+04 -3.95132E+04  3.31046E+04 -1.13280E+04  2.53669E+04  1.15189E+04
  1.23121E+04  1.79829E+04 -8.34101E+03  1.69065E+04 -2.29140E+04  3.24835E+03 -1.43760E+04 -1.05006E+04
 -3.21028E+03 -1.49423E+04  6.36768E+03 -1.47570E+04  3.71343E+03 -3.38924E+03  3.78592E+03  6.92128E+03
 -9.75047E+03  5.67703E+02 -5.65886E+03 -8.60955E+03 -1.41138E+03 -1.67078E+04  9.57186E+03 -2.06865E+04
  2.15607E+04 -1.26735E+04  2.58484E+04  6.18664E+03  1.76529E+04  2.08323E+04  9.44256E+03  3.15104E+04
 -9.64010E+03  2.98530E+04 -1.99705E+04  1.84186E+04 -2.41080E+04  2.26296E+03 -6.78486E+03 -1.06253E+04
 -4.40901E+02 -9.92592E+03  1.50530E+03 -3.35529E+03  2.67337E+03  3.95455E+03 -9.97465E+03  1.05450E+04
 -1.39814E+04 -7.04193E+02 -1.53989E+04 -7.30166E+03 -8.56390E+03 -1.84079E+04  7.10710E+03 -1.75314E+04
  1.18202E+04 -8.65990E+03  1.16100E+04  5.49733E+03  6.26860E+02  1.02221E+04 -1.26414E+04 -4.57973E+03
 -7.12448E+03 -1.38568E+04 -7.87180E+03 -1.47525E+04  6.21995E+03 -1.56853E+04  2.32244E+04 -1.12974E+04
  2.55183E+04 -1.41989E+03  2.11280E+04  1.75052E+04  5.70315E+03  2.55113E+04 -1.51249E+04  1.54811E+04
 -1.20843E+04  2.41744E+03 -7.27926E+03  1.74642E+02  3.40208E+03 -7.97663E+03  2.52272E+03  4.71670E+03
  1.05439E+04  4.18880E+03  2.99343E+03  1.34454E+04 -3.62567E+03  1.20689E+04 -9.85619E+03  4.28503E+03
 -1.53228E+04 -1.30461E+04 -1.17673E+03 -7.79817E+03  1.22359E+04  1.05646E+03  1.06892E+04  1.32458E+03
  1.58638E+03  1.64633E+04 -1.17757E+04  1.25243E+04 -1.27024E+04  3.37604E+03 -1.16440E+04 -8.44793E+03
 -1.17044E+04 -1.55526E+04  9.36569E+03 -2.83920E+04  1.39751E+04 -1.15318E+04  1.95272E+04  5.93618E+03
  1.32905E+04  1.85547E+04  4.34311E+02  1.63303E+04 -1.34713E+04  9.06855E+02 -1.51657E+04  1.30495E+03
 -1.31497E+04 -1.52049E+04 -3.83504E+03 -1.16656E+04  4.47431E+03 -1.07869E+04  1.13323E+04 -3.47630E+03
  1.32231E+04  5.50732E+02  2.90138E+03 -4.66718E+03 -2.20700E+03 -6.52774E+03  6.43097E+03 -2.36213E+03
  9.83301E+03 -4.23578E+03  2.12098E+04  3.75540E+03  2.07543E+04  1.60902E+04  1.28093E+04  1.96974E+04
 -2.80763E+03  2.24320E+04 -2.34778E+04  1.64427E+04 -3.02006E+04  3.36364E+03 -3.20376E+04 -1.19715E+04
 -1.28959E+04 -1.51172E+04 -5.93634E+03 -1.12845E+04  5.76323E+03 -4.22905E+03  6.67619E+03 -1.21566E+04
  4.55464E+03 -5.01964E+03  2.76454E+03 -3.77558E+03  4.94018E+03 -2.36919E+03  2.62811E+03 -5.68867E+03
  1.17941E+04  3.24440E+03  5.42697E+03  1.07655E+04 -4.78333E+03  1.71392E+04 -7.25909E+03  8.13845E+03
 -1.67059E+04 -6.95046E+03 -8.95898E+03 -1.22925E+04 -2.63564E+03 -1.81526E+04  1.32309E+04 -1.19097E+04
  1.75976E+04 -7.95344E+03  2.35294E+04  4.84864E+03  2.20537E+04  1.45944E+04  4.66745E+03  1.58140E+04
 -1.09396E+04  1.40081E+04 -1.59565E+04  5.25417E+03 -3.94780E+03 -7.86046E+03 -4.44152E+03 -3.50446E+03
 -4.74252E+03  3.15502E+03 -3.99080E+03  3.94760E+03 -7.42713E+03  5.77332E+03 -3.98909E+03 -5.36818E+03
 -8.10832E+03 -8.86520E+03  4.26181E+02 -8.00168E+03  1.11942E+04 -1.98769E+04  1.72194E+04 -3.99276E+02
  1.95856E+04  6.92358E+03  1.50170E+04  1.41899E+04 -6.73409E+03  1.47047E+04 -1.14028E+04  1.17672E+04
 -1.35587E+04 -2.74258E+03 -1.02747E+04 -1.24050E+04 -7.65753E+02 -1.10583E+04  1.03878E+04 -9.41387E+03
  9.03318E+03  3.26776E+02  6.29173E+03  4.33915E+03  3.38671E+03 -1.29243E+03  5.95133E+03  6.63807E+02
  4.35944E+03  4.30928E+03 -4.71918E+03 -1.09299E+03  1.20538E+03  5.82817E+03  7.00301E+03  5.87640E+03
 -5.52031E+03  1.63161E+04 -1.03334E+04  1.28664E+04 -1.01491E+04  2.51501E+03 -1.23690E+04 -2.75636E+03
 -1.65807E+03 -1.04452E+04  1.59578E+03 -2.08943E+04  5.08414E+03 -1.21952E+04  1.03788E+04 -1.31085E+03
  8.30944E+03  4.05903E+03  3.84412E+03  1.35242E+04 -2.29186E+03  7.16305E+02 -5.41721E+03 -2.02678E+03
 -3.10568E+03 -6.84511E+03  6.89815E+03 -7.39510E+03  4.82234E+03 -6.73534E+03  4.42952E+03  1.71121E+03
  2.72803E+03  5.09958E+03 -4.19026E+03  3.17810E+03 -3.09537E+03 -1.46306E+02  1.17863E+03 -2.69404E+03
  4.70825E+03 -7.31257E+03  5.69971E+03  1.96440E+03  1.21169E+01  7.94912E+03 -1.38452E+03  1.60491E+04
 -9.67031E+03  3.21044E+03 -1.38178E+04  8.15135E+03 -1.31329E+04 -3.39733E+03 -2.70793E+02 -3.22793E+03
  1.09800E+04 -3.00549E+03  8.22635E+03 -6.95087E+03  1.16378E+04  2.27757E+03  9.59113E+03  1.66336E+03
 -5.72460E+03  2.37760E+03 -8.35872E+03 -4.33012E+02 -2.18051E+03 -8.70755E+03 -1.62757E+03 -8.04859E+03
  3.72466E+03 -1.47573E+03  1.27459E+04 -6.51439E+02  8.02755E+03 -8.04929E+02  1.10259E+02  6.62442E+03
 -6.55539E+03  5.59556E+02 -1.94188E+02 -2.08373E+03  2.37657E+02 -7.41282E+03  1.01976E+04 -7.80657E+03
  7.88447E+02  3.80517E+03  9.85099E+03 -6.18908E+03 -1.93014E+03  5.98056E+03 -2.86896E+03  1.06272E+04
 -9.86955E+03 -2.01445E+03 -6.58923E+03 -6.52165E+03 -7.11983E+03 -2.02807E+03  9.73331E+02 -1.10689E+04
  1.07499E+04 -7.05767E+03  1.02016E+04  6.54828E+03  3.79719E+03  4.70783E+03 -2.36662E+03  1.00835E+04
 -2.09701E+03  2.07291E+03  2.07872E+03 -5.12086E+03 -4.44576E+03  8.15010E+03 -7.23703E+03  2.32847E+03
 -6.36922E+02 -1.35175E+03 -6.51856E+03  3.11657E+03 -1.92652E+03  3.19318E+03 -1.42279E+04 -9.84773E+03
 -4.32360E+03 -6.11300E+03  1.96099E+03 -1.13554E+04  1.25972E+04 -1.13069E+04  1.84582E+04 -5.07370E+03
  1.70833E+04  3.46056E+03  1.03827E+04  1.09543E+03  3.58325E+03  1.03873E+04 -5.21060E+03  5.88521E+03
 -1.45757E+04  4.43444E+03 -5.57075E+03  3.09334E+03 -3.02782E+03  6.08601E+03  1.82605E+02  2.17065E+03
 -5.18504E+03  8.76930E+02 -8.71959E+03  2.51370E+03 -1.59718E+03 -2.39241E+03 -1.49268E+03 -8.58814E+03
  3.57025E+03 -4.61827E+03  3.05367E+03  2.67715E+03  1.10543E+04  8.53548E+03  6.81234E+02  9.92510E+03
 -5.35837E+03  1.45797E+04 -1.17710E+04  1.08746E+04 -1.28957E+04 -2.35975E+03 -1.30909E+04 -6.89068E+03
 -8.41234E+02 -1.23124E+04  2.18158E+03 -1.23436E+04  1.22422E+04 -6.71924E+03  8.97631E+03 -2.38323E+03
  6.12776E+03  7.62144E+03  5.51833E+02 -1.33962E+03 -2.31540E+03 -4.34864E+03  3.24472E+03 -4.74378E+03
  2.02785E+03  6.91500E+03  4.11317E+03  1.29170E+03  7.64993E+03  5.22708E+02 -6.36775E+03  4.21177E+03
 -9.96334E+03  7.16923E+03 -1.29074E+04 -1.30769E+03 -3.91233E+03 -5.87859E+03 -2.77462E+03 -6.38001E+03
  4.56707E+03 -5.06736E+03  4.81725E+03 -1.54824E+03  7.35429E+03 -8.51862E+02  4.21018E+03  5.81808E+03
  2.09924E+02  7.65581E+03  6.68643E+03  3.23212E+02 -4.65067E+03  2.17518E+03 -9.88472E+03 -1.54555E+03
 -3.49009E+03  7.28317E+03 -1.40445E+03 -1.09505E+03 -1.47555E+03  1.41190E+03 -4.44131E+03 -7.02361E+03
 -2.76351E+03 -3.45807E+03  4.42827E+03 -7.33797E+03  5.87311E+03 -9.53315E+03  9.04916E+03 -4.67206E+03
  4.09278E+03 -1.31347E+03  1.94278E+03  3.42464E+03  4.21146E+03  8.14141E+03 -4.10920E+03 -5.90686E+01
