 $NMID ID='MM_0lb_SNR50_17hz_g60_5.RAW', FMTDAT='(8E13.5)'
 TRAMP=1., VOLUME=1. $END
  3.10042E+05  2.00032E+03  3.36807E+05  2.48046E+05  8.73166E+04  3.38064E+05 -1.30330E+05  2.51957E+05
 -1.88899E+05  8.44782E+04 -1.11099E+05 -3.41084E+04  2.04220E+02 -5.05905E+04  5.20831E+04 -3.00185E+03
  3.34650E+04  5.63177E+04 -1.77228E+04  7.64820E+04 -6.06838E+04  6.48849E+04 -8.22166E+04  3.12968E+04
 -7.81606E+04 -1.09708E+04 -6.18631E+04 -5.04406E+04 -9.03941E+03 -7.40478E+04  2.13811E+04 -4.41895E+04
  3.89800E+04  5.73534E+03  1.43371E+04  4.55993E+04 -3.69326E+04  4.40293E+04 -6.62808E+04 -3.09972E+02
 -5.61211E+04 -5.64291E+04 -7.07984E+03 -7.64805E+04  3.24998E+04 -5.69135E+04  4.43639E+04 -1.87005E+04
  3.71404E+04  1.26730E+04  3.08907E+04  2.73062E+04  1.66415E+04  2.65178E+04 -4.93825E+03  2.98844E+04
 -2.08497E+04  1.37278E+04 -1.77727E+04 -4.56816E+03 -6.76928E+02 -6.30730E+03  2.11169E+04  1.05248E+04
  5.22510E+03  3.57076E+04 -3.31796E+04  3.69746E+04 -6.16463E+04  4.86993E+03 -5.47011E+04 -4.20415E+04
 -1.50747E+04 -5.98358E+04  4.03593E+04 -4.60601E+04  5.62052E+04  2.34580E+03  3.24810E+04  3.60259E+04
 -7.88599E+03  3.81481E+04 -3.20846E+04  1.85213E+04 -2.99173E+04 -2.92283E+03 -1.79057E+04 -1.39245E+04
 -3.96502E+03 -1.60654E+04  1.89291E+02 -1.99523E+04  8.84253E+03 -2.29964E+04  1.41908E+04 -1.33055E+04
  1.40808E+04  7.25494E+03 -5.78810E+03  1.25604E+04 -1.77270E+04 -2.36831E+03 -1.02178E+04 -3.40614E+04
  2.43072E+04 -4.30448E+04  4.84345E+04 -1.84150E+04  4.74810E+04  1.77641E+04  1.81593E+04  4.02138E+04
 -1.45983E+04  3.33247E+04 -2.39708E+04  4.49775E+03 -1.15298E+04 -2.86876E+04  1.79054E+04 -3.51536E+04
  4.02150E+04 -1.45943E+04  3.77138E+04  2.36036E+04  1.45369E+04  4.30766E+04 -1.26922E+04  5.02228E+04
 -2.70710E+04  3.02828E+04 -4.31203E+04  9.05670E+03 -4.20565E+04 -1.60115E+04 -1.99561E+04 -3.71507E+04
  3.33017E+03 -3.80688E+04  3.54436E+04 -1.37758E+04  2.85239E+04  4.68735E+03  3.67310E+03  1.97753E+04
 -1.81323E+04  4.70378E+03 -1.07565E+04 -8.10430E+03  3.38162E+03 -9.90260E+03  1.78975E+04  3.08196E+03
  9.59596E+03  2.06463E+04 -7.33677E+03  2.77186E+04 -1.86503E+04  8.01736E+03 -2.85155E+04 -4.10902E+03
 -1.34210E+04 -1.92482E+04 -7.99264E+03 -2.00739E+04  5.85027E+02 -1.90769E+04  1.39296E+04 -1.50875E+04
  2.63834E+04 -1.30129E+04  3.17812E+04  3.56840E+03  2.57500E+04  1.78700E+04  5.84180E+03  3.42292E+04
 -1.95057E+04  2.35211E+04 -2.93454E+04  6.08850E+03 -2.24409E+04 -1.21009E+04 -2.61617E+02 -1.38603E+04
  4.43501E+03 -7.03012E+02 -4.82133E+03  5.95064E+03 -1.73736E+04  4.92436E+03 -1.66456E+04 -6.30746E+03
 -6.10222E+03 -1.64285E+04  5.29871E+03 -2.11365E+04  2.10034E+04 -2.11947E+04  1.31202E+04 -1.96411E+03
  8.88044E+03  1.10388E+04 -3.10730E+03  1.97356E+04 -1.19218E+04  5.55191E+03 -1.97798E+04 -8.61636E+02
 -2.07215E+04 -1.28910E+04 -9.74446E+02 -2.56635E+04  6.56296E+03 -2.18212E+04  1.77373E+04 -4.82069E+03
  1.48681E+04 -2.19609E+03  1.29980E+04  3.40281E+03  9.11951E+03 -5.52262E+03  6.31293E+03  1.19411E+02
  1.62313E+04  7.22982E+03  1.74476E+04  1.69796E+04  9.70094E+03  2.88438E+04 -1.89521E+03  3.05265E+04
 -2.06762E+04  2.34684E+04 -2.89614E+04  1.04552E+04 -3.28588E+04 -3.93498E+03 -2.51464E+04 -1.59550E+04
 -7.70922E+03 -2.26439E+04  6.91217E+03 -2.58141E+04  2.18809E+04 -9.38519E+03  1.96566E+04  8.72642E+03
  6.31331E+03  1.61532E+04 -7.65515E+03  1.22884E+04 -1.40669E+04  2.26563E+03 -1.50173E+04 -6.63077E+03
 -1.59717E+03 -1.68258E+04  8.23440E+03 -8.52020E+03  7.90430E+03 -3.08438E+02  3.81317E+03  8.55191E+03
 -1.71151E+03  2.21138E+02 -7.05532E+03 -5.78381E+03 -2.21246E+02 -1.63768E+04  1.09572E+04 -7.49524E+03
  1.49337E+04 -9.41529E+03  1.78709E+04  4.89222E+03  1.02424E+04  1.06265E+04  5.20529E+03  2.13168E+04
 -4.41567E+03  2.04618E+04 -1.11807E+04  9.79817E+03 -1.63567E+04  4.01433E+03 -1.02463E+04 -5.42511E+03
 -7.64939E+03 -2.01391E+03 -3.49862E+02  1.34178E+03  9.42823E+02  1.42028E+03 -3.75503E+03  4.77782E+03
 -9.46826E+03  5.68851E+02 -1.16302E+04 -4.44824E+03 -4.69730E+03 -1.33190E+04  9.81433E+02 -1.19894E+04
  1.00264E+04 -3.25807E+03  7.42345E+03  3.86145E+03 -6.33925E+02  1.79061E+03 -4.37702E+03 -2.93664E+02
 -3.83752E+03 -5.03669E+03 -6.67945E+03 -1.04617E+04  1.21656E+04 -1.00556E+04  1.26015E+04 -5.25172E+03
  1.40982E+04  9.04137E+02  1.09843E+04  1.47515E+04  3.98346E+03  8.14297E+03 -8.28956E+03  1.34927E+04
 -8.91361E+03  1.71715E+03 -1.87990E+03 -2.29815E+03  1.73081E+03 -4.17500E+03  6.67471E+03 -5.84915E+02
  4.10480E+03  2.45529E+03 -2.43697E+02  6.63101E+03 -8.25248E+03  1.10287E+04 -9.38836E+03  2.06995E+03
 -6.22240E+03 -4.83211E+03  2.65425E+02 -8.93025E+03  4.50619E+03 -2.94596E+03  5.21088E+03  2.51681E+03
 -1.75685E+03  4.90464E+03 -3.03599E+03  9.20095E+03 -7.31766E+03  6.91955E+02 -9.28416E+03 -6.61424E+02
 -8.63708E+02 -1.03593E+04 -1.62942E+03 -4.36336E+03  1.06217E+04 -2.97041E+03  9.61493E+03  2.53849E+03
  2.04921E+03  1.00905E+04 -7.21745E+01  7.10553E+03 -9.31936E+03  5.70243E+03 -6.13955E+03 -3.68363E+03
 -4.57428E+03 -4.37382E+03 -5.05296E+02 -7.78771E+03  1.68275E+03 -2.01618E+03  7.09903E+02 -9.83976E+02
 -6.74650E+02  1.69874E+01 -4.12290E+03 -1.36484E+03  1.93402E+03 -1.76596E+03  3.97742E+03  1.29658E+03
  3.45445E+03  1.41506E+03  8.46902E+03 -1.53843E+03  7.66969E+03  2.99259E+03  3.69148E+03  1.36763E+04
 -2.73280E+02  1.07160E+04 -1.15273E+04  8.62262E+03 -1.35805E+04  1.39160E+03 -8.39498E+03 -6.98645E+03
 -8.20839E+03 -1.06890E+04 -1.00386E+03 -1.14652E+04  9.14635E+03 -3.49837E+03  2.46739E+03 -3.97116E+03
 -2.12625E+03 -2.47265E+03  8.41662E+02 -2.60998E+02 -2.27381E+03 -5.68334E+03  3.77234E+03 -2.50192E+03
  5.23655E+03 -6.67689E+02  3.49159E+03  5.53960E+03 -1.58506E+03  1.46509E+03 -3.92061E+03  5.06269E+03
 -6.97818E+03 -2.41710E+03 -1.79211E+03 -1.40991E+03 -8.52706E+02 -5.28765E+03  3.22490E+03 -8.31043E+03
  6.84399E+03 -1.63677E+03  6.85581E+03  2.83423E+03  6.84273E+03  5.72579E+03  7.15624E+02  8.95362E+03
 -6.63594E+02  6.99204E+03 -4.00257E+03 -4.16896E+02  4.45670E+02  7.69540E+02 -3.95656E+02  7.26124E+02
 -3.98219E+03 -4.39064E+03 -6.38133E+03  2.62683E+02  2.70026E+01  6.03604E+03 -4.25887E+03 -4.31458E+03
 -2.86629E+03 -1.87556E+03  3.53716E+03 -7.39799E+03  6.41989E+03 -2.60949E+03  5.36827E+03 -6.80829E+02
  5.07227E+03  2.36848E+03  1.94000E+03  3.35905E+03 -2.92123E+03  7.39480E+03 -2.53413E+03  4.45115E+03
 -1.03098E+03 -6.14703E+02 -1.15571E+04 -2.93248E+03  2.50172E+03 -2.61713E+03  1.30358E+03 -1.48264E+03
  1.00661E+03 -5.11894E+02 -1.58601E+03  2.44307E+03 -2.27328E+03 -4.36291E+01 -1.84445E+03 -7.56982E+02
  5.96195E+03  3.38269E+03 -1.08019E+03  2.68435E+03 -2.52201E+03  4.71736E+03  3.30462E+03  5.54483E+03
 -4.82947E+03  1.34465E+03 -4.75900E+03  6.43049E+03 -4.97828E+03  3.21602E+03 -2.75604E+03  1.77034E+03
 -3.32428E+03 -5.67905E+03  4.26898E+03 -6.38137E+03  2.52872E+03 -6.13050E+03  1.72535E+03 -2.91892E+03
  3.88872E+03  1.90931E+03 -1.06332E+03  4.41873E+03  2.71824E+01  3.43149E+03  9.61387E+02 -2.16421E+03
 -3.99867E+03  7.43177E+02  4.64574E+03 -7.26351E+03  7.73884E+03  1.81559E+02 -1.37021E+03  1.86063E+03
  5.69217E+02 -4.10889E+03 -2.17013E+03 -7.77915E+02 -9.30254E+02  2.65702E+02  3.05638E+03  1.95124E+03
 -1.30474E+03  1.67249E+03 -1.44747E+03  2.76389E+03 -4.29531E+02  6.16093E+03  4.10222E+03  1.77648E+03
 -5.10068E+03 -2.13897E+03 -4.80198E+03  2.05628E+03 -3.00740E+03 -3.78607E+03 -5.05595E+03 -1.89372E+02
  4.51999E+03 -3.34148E+03  3.10526E+03 -9.28671E+03  2.41288E+03 -3.67055E+02 -2.26131E+03  6.26632E+02
 -2.65331E+03 -1.75609E+03 -1.68319E+03 -2.96550E+03 -1.69256E+02 -6.64427E+03 -3.21692E+03  9.64077E+02
  3.73713E+02 -2.55623E+03 -1.61766E+03  1.63517E+03  5.97859E+03  7.22971E+02  4.79670E+03  9.21217E+02
 -1.49073E+03  7.52882E+02 -1.58104E+03 -2.56120E+03  1.46399E+03 -2.07316E+02 -6.29207E+02  2.54127E+03
  3.80147E+03 -4.09418E+02  2.59763E+03  5.09967E+03  1.12192E+03  3.66093E+03 -5.65803E+02  3.99566E+03
 -2.94656E+03  1.52624E+03 -1.80338E+03  1.73002E+03 -2.90811E+02 -1.78223E+03  1.74805E+03 -3.02378E+03
 -3.10951E+02  1.25244E+03  2.68863E+02  1.33307E+03  6.76207E+02  2.61025E+03  4.30934E+02  8.28450E+02
 -1.00739E+03  5.39964E+02 -2.58649E+03  1.96436E+02  4.05670E+03 -3.68847E+02 -3.55735E+03 -5.10727E+02
 -2.56872E+03  1.44945E+03 -6.58220E+03  8.86086E+01 -1.72361E+03 -1.02138E+03 -5.08051E+03  4.71577E+00
 -2.84030E+03 -2.49602E+03  2.59340E+02 -2.13612E+03  6.39917E+03 -3.42670E+03  3.31184E+03 -3.06110E+03
  1.78038E+03 -4.00433E+03  3.68306E+03  5.72305E+03  7.59635E+01  2.53648E+03 -4.39673E+03  1.77511E+03
 -5.74354E+02  6.64856E+02 -1.59972E+03 -1.86082E+03  6.31884E+01  3.39589E+03  2.42789E+03 -1.09164E+02
 -3.10004E+03  1.53510E+03 -2.23522E+02 -1.56296E+03 -2.53453E+02  2.00350E+03 -1.52655E+03 -3.59348E+03
 -1.54096E+03  1.78716E+03  1.68158E+03  1.66579E+03  2.79020E+03 -2.45518E+03  6.52950E+02  4.33951E+03
  2.56075E+03  9.91027E+02  2.05214E+02 -1.34133E+03 -8.02245E+02  1.62697E+03 -4.99005E+03 -4.63498E+03
  1.82379E+03 -1.99779E+03 -2.10732E+03 -1.25943E+03  3.89018E+03  3.19960E+02 -5.33818E+02  2.74185E+03
  2.52436E+03  2.31947E+03  2.36726E+03 -3.25035E+03 -1.35305E+03 -1.77767E+03 -3.72218E+03 -6.97141E+02
  1.98357E+03 -2.24180E+03  4.32643E+03  2.92295E+03  1.05328E+03  6.38455E+02  3.36197E+03 -4.88846E+02
 -5.27450E+02  1.23021E+03  2.65645E+03  5.55237E+03  3.19458E+02 -1.59452E+03  3.60178E+03 -3.28238E+03
 -1.72507E+03  3.14268E+03 -8.31764E+02 -2.16398E+03  1.15204E+03  4.35567E+03  1.48848E+03  2.47005E+03
  1.76331E+03  7.74078E+01 -6.56872E+02  2.47083E+03 -3.22908E+03 -3.61324E+03 -4.19112E+03 -4.33694E+03
  4.61056E+03  2.98587E+02  6.24916E+03  8.26497E+02  1.21703E+03 -1.95949E+03  3.34807E+03  2.74778E+03
  6.28621E+02 -6.04273E+02 -3.20875E+03 -7.05730E+03 -4.97749E+03 -1.08423E+03  3.23399E+02  9.54240E+02
  3.82632E+03 -2.99110E+03 -1.73833E+03 -1.74828E+02 -4.82653E+03  1.46938E+03 -2.56164E+03 -1.97559E+03
