 $NMID ID='MM_0lb_SNR50_11hz_g60_33.RAW', FMTDAT='(8E13.5)'
 TRAMP=1., VOLUME=1. $END
  3.03605E+05 -2.82314E+03  3.39281E+05  2.50089E+05  8.77857E+04  3.38771E+05 -1.29846E+05  2.48629E+05
 -1.92796E+05  8.83000E+04 -1.12629E+05 -3.69873E+04 -4.64289E+00 -4.57348E+04  5.40389E+04  1.06944E+03
  3.49456E+04  5.37513E+04 -1.19588E+04  7.80152E+04 -6.03966E+04  6.81392E+04 -8.47614E+04  3.29870E+04
 -8.36744E+04 -9.28580E+03 -5.57688E+04 -5.29239E+04 -9.85744E+03 -7.07321E+04  2.79321E+04 -4.59394E+04
  3.99022E+04  7.03547E+03  1.48372E+04  4.78053E+04 -3.75307E+04  4.87314E+04 -6.33298E+04 -1.87247E+02
 -5.37474E+04 -5.75337E+04 -2.78486E+03 -8.10068E+04  3.75448E+04 -6.19536E+04  4.97689E+04 -1.70037E+04
  4.17761E+04  1.24896E+04  3.03465E+04  2.61631E+04  1.53820E+04  2.96921E+04 -6.31346E+03  3.23494E+04
 -1.95765E+04  1.31079E+04 -1.79011E+04 -3.13605E+03  8.60605E+03 -4.88397E+03  1.50430E+04  1.49563E+04
  8.46231E+03  3.33784E+04 -3.58803E+04  4.27643E+04 -6.98778E+04  2.49132E+03 -6.16863E+04 -4.11742E+04
 -1.37793E+04 -6.60184E+04  3.80273E+04 -5.37020E+04  5.58561E+04  4.20391E+03  3.67185E+04  3.29280E+04
  2.82020E+03  3.64157E+04 -3.24243E+04  2.17605E+04 -3.31234E+04 -1.02422E+04 -1.38460E+04 -1.41084E+04
 -8.00937E+03 -1.92128E+04 -9.99524E+03 -1.78065E+04  9.13048E+03 -2.06536E+04  1.78859E+04 -1.47141E+04
  1.37690E+04  7.10947E+03 -1.53060E+04  1.39563E+04 -2.64944E+04 -6.49373E+03 -7.43906E+03 -3.56214E+04
  2.30539E+04 -4.68336E+04  5.04634E+04 -2.57979E+04  4.78962E+04  1.29700E+04  1.40763E+04  4.76082E+04
 -1.52816E+04  3.53605E+04 -2.42556E+04 -2.81119E+03 -1.22900E+04 -3.08293E+04  2.20025E+04 -3.67781E+04
  4.63775E+04 -5.29585E+03  3.97388E+04  2.62213E+04  2.36968E+04  4.90519E+04 -1.13341E+04  5.28504E+04
 -3.46666E+04  4.38126E+04 -5.06394E+04  1.37554E+04 -4.46953E+04 -2.10673E+04 -2.22263E+04 -4.37076E+04
  6.14210E+03 -3.95229E+04  3.61260E+04 -1.89231E+04  3.35420E+04  1.22649E+04  3.19435E+03  2.12289E+04
 -1.55214E+04  4.46344E+03 -4.55397E+03 -2.83416E+03  3.30649E+03 -1.24834E+04  2.16361E+04  4.76689E+03
  1.60826E+04  2.50818E+04 -4.11549E+03  2.84432E+04 -2.39017E+04  1.92867E+04 -3.00982E+04 -1.06468E+03
 -2.45358E+04 -1.77259E+04 -1.59211E+04 -2.09553E+04  4.75401E+03 -2.31033E+04  2.00656E+04 -2.02181E+04
  3.75622E+04 -1.57587E+04  3.75163E+04  1.21036E+04  2.51292E+04  2.42566E+04  8.47978E+03  3.95293E+04
 -2.05057E+04  4.02083E+04 -3.10247E+04  1.21837E+04 -1.93408E+04 -1.26088E+04 -3.28082E+03 -1.34690E+04
  3.64487E+03 -1.52104E+03 -4.59131E+03  9.40283E+03 -2.26950E+04  7.95448E+02 -1.73697E+04 -9.47322E+03
 -1.08355E+04 -2.50510E+04  6.28031E+03 -2.61403E+04  1.50324E+04 -1.66800E+04  1.93246E+04 -5.52893E+03
  8.96097E+03  1.36508E+04  2.58506E+03  2.16393E+04 -1.81889E+04  1.16352E+04 -2.09487E+04 -4.48048E+03
 -1.00084E+04 -2.23304E+04  3.13926E+02 -2.79559E+04  1.09709E+04 -2.28116E+04  1.89694E+04 -9.95531E+03
  1.40091E+04  1.25137E+03  1.72994E+04  1.80900E+03  3.94414E+03  9.29157E+02  6.31047E+03 -1.07263E+03
  2.07829E+04  5.72443E+03  2.22784E+04  1.70160E+04  2.32532E+04  3.85649E+04 -2.17499E+03  3.98855E+04
 -2.54605E+04  3.30114E+04 -3.88050E+04  1.78818E+04 -4.38762E+04  2.82848E+02 -3.49675E+04 -2.20601E+04
 -1.43252E+04 -3.85538E+04  1.30246E+04 -3.26034E+04  2.47343E+04 -9.92029E+03  2.16509E+04  5.59115E+03
  9.85567E+03  1.76944E+04 -1.38725E+04  1.49738E+04 -1.79589E+04  2.15413E+03 -1.44140E+04 -7.88925E+03
  5.86556E+02 -1.76524E+04  1.67208E+04 -1.42158E+04  1.58605E+04 -2.82087E+03  3.27086E+03  7.47082E+03
 -1.00599E+04  8.80448E+03 -1.23639E+04 -2.18229E+03  3.84891E+02 -1.77860E+04  1.05469E+04 -2.08529E+04
  2.35835E+04 -8.18888E+03  2.90317E+04  3.47671E+03  2.34174E+04  1.58218E+04  1.12768E+04  2.45561E+04
 -6.34445E+03  2.63487E+04 -1.81381E+04  2.51342E+04 -1.40770E+04  4.10834E+03 -1.50277E+04 -6.48765E+03
 -7.78332E+03 -7.25965E+03  4.28954E+02  1.81971E+03 -2.68744E+03  5.36410E+02 -7.02505E+03  6.23067E+03
 -1.59366E+04 -1.07723E+04 -1.36936E+04 -9.70854E+03 -6.13016E+03 -1.77055E+04  4.45328E+03 -1.47235E+04
  1.04781E+04 -8.73443E+03  5.51439E+03 -1.59346E+03 -2.25844E+03  9.58348E+03 -1.06134E+04  3.25884E+03
 -7.69623E+03 -1.22127E+04 -7.05097E+02 -1.04753E+04  9.04300E+03 -1.30898E+04  2.32907E+04 -6.73998E+03
  2.67132E+04 -8.17248E+02  1.80442E+04  1.33770E+04  5.79657E+03  2.50186E+04 -7.42208E+03  1.30997E+04
 -1.41680E+04  1.32439E+04 -3.87740E+03 -3.29478E+03  2.07648E+03 -4.58077E+03  8.94958E+03 -6.89886E+03
  7.76872E+03  5.41479E+03  6.20725E+02  1.55037E+04 -1.11112E+04  1.28728E+04 -1.60964E+04 -9.53496E+02
 -1.40866E+04 -7.02380E+03  5.01825E+02 -1.28549E+04  1.27747E+04 -6.19712E+03  7.87594E+03  4.48398E+03
  5.74968E+03  7.94331E+03 -8.57653E+03  6.95713E+03 -1.27467E+04  5.64060E+03 -9.47475E+03 -1.34201E+04
 -3.82151E+03 -1.03593E+04  2.63974E+03 -2.27664E+04  1.67293E+04 -9.43902E+03  1.44601E+04  3.11710E+03
  5.48897E+03  1.46099E+04  3.19688E+03  8.39535E+03 -1.17594E+04  1.08038E+04 -1.21358E+04  2.05096E+03
 -7.67406E+03 -1.41463E+04 -2.23516E+03 -8.91148E+03  7.14165E+03 -7.12424E+03  8.79561E+02 -7.06412E+03
  8.25348E+03 -2.01500E+03  5.40509E+03 -5.07177E+01 -5.85499E+03  2.03244E+03  3.10174E+03 -7.92916E+02
  4.78841E+03  6.73954E+02  1.37462E+04 -7.12455E+03  1.58750E+04  5.23002E+03  1.00238E+04  2.35110E+04
 -7.29720E+03  2.23161E+04 -1.78506E+04  1.71343E+04 -2.54566E+04 -1.70680E+02 -1.73114E+04 -5.68569E+03
 -7.85610E+03 -2.08453E+04 -2.59829E+03 -1.28930E+04  3.08636E+03 -2.91175E+03 -1.06033E+02 -6.88217E+03
  1.11961E+03 -2.16377E+03  4.39263E+03 -9.47181E+03  9.09678E+03 -2.95771E+03  4.03374E+03  8.11223E+02
  8.25719E+03  2.26196E+03  6.27118E+03  1.19876E+04 -4.78254E+03  1.11008E+04 -1.35610E+04  2.23002E+03
 -8.47314E+03 -6.99770E+02 -9.99422E+03 -1.34166E+04 -1.19416E+03 -1.34617E+04  8.15481E+03 -1.60847E+04
  1.67983E+04 -8.14944E+03  1.88467E+04  3.10009E+03  1.02771E+04  1.58629E+04  3.31209E+03  1.85400E+04
 -1.03041E+04  1.19648E+04 -9.04581E+03  4.12776E+03 -5.36365E+03 -4.08692E+03 -3.63655E+03  4.97474E+03
  7.75486E+02  9.86630E+01  2.14831E+02  3.95707E+03 -3.79438E+03  2.39525E+03 -1.25764E+04 -2.49684E+03
 -7.00334E+03 -5.25749E+03  6.79688E+02 -1.58720E+04  1.18720E+04 -1.62552E+04  1.58474E+04  4.11098E+03
  1.16372E+04  5.88704E+03  1.00868E+04  7.68813E+03 -8.33279E+03  1.15018E+04 -1.27888E+04  9.27835E+03
 -1.54131E+04  9.58340E+01 -9.95128E+02 -7.10391E+03 -2.85124E+03 -1.38050E+04  4.10640E+03 -3.19324E+03
  7.30183E+03 -6.96161E+03  4.80439E+03  2.58483E+03  2.01600E+03  4.53986E+03  6.07230E+03 -3.17349E+03
  6.35627E+02  1.35597E+03  2.83694E+03  4.01961E+03  4.24967E+03  1.23243E+03  6.36211E+02  1.09158E+04
 -5.57931E+03  1.21678E+04 -9.63700E+03  5.47360E+03 -1.22343E+04  5.40551E+03 -1.37730E+04 -5.48606E+03
 -1.06085E+04 -1.18818E+04  4.06981E+02 -1.19843E+04  1.35079E+04 -1.33284E+04  1.34879E+04 -4.15106E+03
  6.06736E+03  1.17674E+04  2.05911E+03  4.07720E+03  1.03147E+03  1.32608E+04 -2.84583E+03 -5.34578E+02
  6.66573E+02 -1.18393E+04  1.17920E+03 -2.84337E+03  1.09626E+04 -2.91738E+03  6.43756E+03  5.12208E+03
  3.23187E+03  3.36124E+02  6.01985E+03  2.91538E+03 -5.79314E+03  2.30862E+03  2.31849E+03 -2.07380E+03
  4.68656E+02  6.69266E+02  3.49194E+03 -4.02162E+03  5.11576E+03  4.60912E+03 -7.51240E+02  9.56423E+03
 -4.34551E+03  4.00109E+03 -1.03755E+04  3.57131E+03 -5.18454E+03 -6.70185E+02 -5.05381E+03 -6.35436E+03
 -4.09547E+03 -1.18506E+04  7.26603E+02 -3.75029E+03  2.53576E+02 -1.13798E+03 -2.51171E+03  2.35002E+03
 -1.15637E+04 -9.71315E+02 -7.64499E+03 -9.30618E+03  5.03278E+02  4.90251E+02  4.32827E+03 -8.94812E+03
 -2.89681E+03 -2.97005E+03  5.66879E+03  3.51022E+03  1.04591E+03  6.14269E+02  6.53591E+03  1.66864E+03
 -4.26523E+03  2.52138E+03 -6.76490E+03 -5.53239E+03 -9.65934E+02 -4.53080E+03  5.33766E+03 -1.10910E+04
  3.02193E+03  2.15285E+03  7.04136E+03  3.28595E+03 -4.41139E+02  1.07106E+04 -1.69027E+03  7.12706E+03
 -7.28725E+03  1.71348E+02 -8.58124E+03 -6.19464E+02 -1.37430E+03 -7.47802E+03  1.60553E+03 -7.93977E+03
  8.41460E+03  1.16411E+03  4.60380E+03  9.79301E+03  1.27575E+03  8.09665E+02  9.10478E+02  4.01437E+03
 -4.97585E+03 -1.45598E+03 -3.86978E+03 -2.86683E+03 -3.80651E+03  9.88514E+03  5.10683E+03 -1.22947E+03
 -4.41116E+03  3.37239E+03 -5.88038E+03  2.99333E+03 -9.36891E+03 -1.44569E+03 -7.64272E+03 -3.62706E+03
 -1.62299E+03 -5.85418E+03  5.71370E+03 -1.58953E+04  7.88049E+03 -1.10429E+04  9.69129E+03 -4.94729E+03
  1.30597E+04  6.25824E+03  4.88015E+03  8.37187E+03  3.49596E+03  6.65623E+03 -2.80600E+03  6.67584E+03
 -7.09298E+02  2.39986E+03 -3.59468E+03  4.86389E+03 -5.02957E+03 -4.26200E+03 -1.16932E+03  6.34378E+02
 -3.83691E+03  3.77532E+03 -7.79870E+02  3.21715E+03 -6.58294E+03 -6.25255E+03  1.70489E+03 -2.35974E+03
  6.23187E+03 -6.51978E+02  5.88600E+03 -3.85419E+02  9.91290E+03  7.79886E+03  3.01387E+03  9.31205E+03
 -8.96747E+03  9.38486E+03 -8.99188E+03  3.62301E+03 -9.04679E+03  7.99167E+01 -5.11284E+03 -5.27466E+03
 -5.51553E+03 -7.64260E+03  5.91014E+03 -2.48309E+03  7.57328E+03 -6.25239E+03  3.53398E+03  4.21891E+03
  7.75106E+03  5.16047E+03  3.40945E+03  6.03300E+03 -4.49222E+02 -3.52491E+03  1.45240E+03 -2.62643E+03
  3.32113E+03 -4.14422E+02  6.81064E+03 -9.37375E+02  2.53545E+03  1.01311E+03  2.67899E+03  4.03032E+03
  6.07450E+02  6.26775E+03 -1.17315E+04 -2.03440E+03 -6.05244E+03 -7.66473E+03 -1.55767E+03 -4.26123E+03
  7.15658E+03 -3.70551E+03  6.37102E+03 -1.72879E+02  7.27761E+03  3.29974E+03 -2.15647E+03  2.57117E+03
  4.86226E+02  9.40878E+02 -2.09581E+03  1.98649E+03  8.36270E+02  3.97950E+03 -2.80015E+03  9.65692E+02
 -1.13386E+02  3.25376E+03 -4.53238E+03 -1.07007E+03  5.41300E+02  3.72501E+03 -2.76431E+03 -4.02397E+03
 -7.39623E+03 -2.78974E+03 -8.70490E+03 -4.61144E+03 -3.99973E+03 -3.57125E+03  1.48989E+03 -5.89213E+03
  8.61225E+03 -4.12651E+03  3.72993E+03  1.02002E+04 -9.14215E+02  9.06106E+02 -4.05914E+03  6.73887E+03
