 $NMID ID='MM_0lb_SNR50_15hz_g45_5.RAW', FMTDAT='(8E13.5)'
 TRAMP=1., VOLUME=1. $END
  3.13513E+05  6.99406E+01  3.38378E+05  2.55643E+05  8.67679E+04  3.37771E+05 -1.31452E+05  2.51682E+05
 -1.84626E+05  8.20925E+04 -1.07173E+05 -3.12711E+04  7.33898E+02 -5.00987E+04  5.37551E+04  1.93970E+03
  3.62491E+04  5.13589E+04 -1.53843E+04  7.26557E+04 -6.26813E+04  5.92554E+04 -8.52024E+04  3.38875E+04
 -7.69998E+04 -1.10084E+04 -5.94559E+04 -5.13791E+04 -1.52167E+04 -6.94596E+04  2.71573E+04 -4.58150E+04
  4.08792E+04  4.74769E+03  1.38489E+04  5.12618E+04 -3.93810E+04  4.85652E+04 -6.78608E+04  1.00499E+03
 -5.31800E+04 -5.47013E+04 -8.35521E+03 -7.96042E+04  3.70751E+04 -5.34339E+04  4.59004E+04 -1.27458E+04
  4.07209E+04  9.84083E+03  2.95959E+04  2.43073E+04  1.54548E+04  3.12591E+04 -9.82918E+03  2.57813E+04
 -2.12912E+04  1.63479E+04 -2.14535E+04 -4.67271E+03  2.53522E+03 -3.58509E+03  2.26987E+04  1.08122E+04
  4.04223E+03  3.69505E+04 -3.52286E+04  3.44251E+04 -5.85359E+04  2.69783E+03 -5.87623E+04 -4.86738E+04
 -1.61547E+04 -6.43610E+04  4.05585E+04 -4.22260E+04  5.59515E+04 -3.67593E+02  3.56399E+04  3.06667E+04
 -9.41453E+03  3.70022E+04 -2.81485E+04  1.47306E+04 -2.94866E+04 -4.64595E+03 -1.38623E+04 -8.98394E+03
 -8.58004E+03 -1.37472E+04 -2.48698E+03 -9.93008E+03  3.93968E+03 -2.03612E+04  1.79025E+04 -1.33557E+04
  8.53904E+03  3.04582E+03 -1.19894E+04  9.55742E+03 -1.74942E+04 -5.14072E+03 -7.22621E+03 -3.64111E+04
  1.83465E+04 -4.44932E+04  4.45193E+04 -1.69245E+04  4.28088E+04  1.89441E+04  1.73764E+04  4.26371E+04
 -1.18881E+04  3.33762E+04 -2.34002E+04  4.29395E+03 -6.28651E+03 -2.98847E+04  1.74084E+04 -3.92146E+04
  4.39589E+04 -6.64650E+03  3.25378E+04  2.22814E+04  2.02948E+04  4.24473E+04 -8.80945E+03  5.01199E+04
 -2.80994E+04  3.38474E+04 -4.05969E+04  5.38897E+03 -3.93863E+04 -1.61657E+04 -2.26770E+04 -3.95739E+04
  6.34313E+03 -3.19857E+04  3.09530E+04 -1.45124E+04  2.28326E+04  6.25248E+03  6.19216E+03  1.98145E+04
 -2.17827E+04  1.15759E+04 -1.02492E+04 -3.71654E+03 -7.77332E+02 -7.61075E+03  1.86091E+04  6.44057E+03
  1.40134E+04  2.10276E+04 -6.68830E+03  2.31245E+04 -2.13988E+04  1.00262E+04 -2.37903E+04 -7.53039E+03
 -2.04388E+04 -1.78108E+04 -1.07999E+04 -1.97924E+04  9.59933E+03 -2.03193E+04  1.40535E+04 -1.87646E+04
  2.78014E+04 -1.25143E+04  3.08969E+04  2.69895E+03  2.36532E+04  2.35094E+04  6.29023E+03  3.36616E+04
 -1.78327E+04  3.20128E+04 -2.41386E+04  5.88154E+03 -2.48670E+04 -1.14922E+04 -4.22449E+03 -1.15471E+04
  1.34613E+03  4.87650E+03 -4.56341E+03  8.57874E+03 -2.19147E+04  5.68246E+03 -1.39212E+04 -1.00776E+04
 -1.01525E+04 -1.87928E+04  3.97229E+03 -2.67396E+04  1.41395E+04 -1.68564E+04  1.03594E+04 -1.35829E+03
  1.33512E+04  1.02239E+04 -1.08136E+03  1.89652E+04 -1.13446E+04  7.41324E+03 -1.39841E+04 -9.44712E+03
 -1.46853E+04 -1.45493E+04 -1.20325E+03 -1.78081E+04  1.04982E+04 -2.16283E+04  2.22417E+04 -8.21721E+03
  2.10524E+04  9.60862E+02  1.42455E+04  1.37040E+03  5.83646E+03 -4.38042E+03  1.07407E+04 -3.13419E+03
  1.61978E+04  5.82625E+03  2.05700E+04  1.48992E+04  1.23607E+04  2.94410E+04 -1.24233E+02  2.63107E+04
 -1.44467E+04  2.63656E+04 -2.69881E+04  1.36821E+04 -2.91250E+04 -2.38674E+03 -2.68259E+04 -1.81293E+04
 -1.30626E+04 -2.34683E+04  6.30961E+03 -2.55942E+04  1.80034E+04 -1.65190E+04  1.60903E+04  4.85289E+03
  5.38860E+03  1.68297E+04 -8.08069E+03  1.43878E+04 -1.62868E+04  1.21761E+03 -1.34267E+04 -8.60542E+03
  1.25823E+03 -1.85200E+04  6.51846E+03 -1.43426E+04  1.01659E+04 -1.75557E+03 -2.72819E+03  6.95754E+03
  1.13038E+03  1.58207E+03 -9.49365E+03 -5.21039E+03 -1.28077E+03 -1.05191E+04  1.49486E+04 -1.14786E+04
  1.43232E+04 -5.32105E+03  1.72696E+04  4.99239E+03  1.14981E+04  1.25989E+04  1.16621E+04  2.07731E+04
 -3.54356E+03  2.37544E+04 -1.28967E+04  1.02239E+04 -1.70090E+04  4.83417E+03 -9.26557E+03 -3.79403E+03
 -5.41317E+03 -1.73345E+03 -4.74801E+03  4.67511E+02 -2.13970E+03  2.94539E+03 -7.13161E+03  4.80376E+03
 -1.18883E+04  1.62272E+03 -1.40992E+04 -1.15786E+04 -8.71420E+03 -1.36121E+04  6.56884E+03 -1.24838E+04
  8.44272E+03 -7.48548E+03  9.69489E+03  1.18747E+03  1.05562E+03  2.93153E+03 -3.30465E+03 -1.29265E+03
 -1.93754E+03 -5.59010E+03 -1.54236E+03 -1.25557E+04  8.64870E+03 -1.09880E+04  1.00765E+04 -2.86480E+03
  1.51563E+04  1.78067E+03  1.26792E+04  9.60633E+03  2.78165E+03  1.19896E+04 -6.77691E+03  1.40139E+04
 -7.63069E+03  3.43648E+03 -6.40196E+03 -4.34636E+03  3.28396E+03 -8.72733E+02  8.55800E+03 -1.38222E+03
  5.81247E+03  6.56966E+02 -1.83353E+03  1.05086E+04 -6.47247E+03  4.23109E+03 -8.39053E+03  5.45376E+03
 -4.68716E+03 -5.39156E+03  7.76473E+01 -3.89847E+03  1.04692E+04 -7.88154E+03  8.08435E+03  5.25818E+03
  1.12557E+03  3.48778E+03 -8.16119E+03  6.65029E+03 -8.40319E+03  1.69030E+03 -7.69672E+03 -3.27894E+02
 -5.80077E+03 -8.86084E+03  1.48590E+03 -1.32910E+04  1.00698E+04 -9.52326E+03  5.97499E+03  4.00874E+03
  1.22846E+03  5.65852E+03  1.05883E+03  7.68669E+03 -1.01007E+04  7.01666E+03 -8.76826E+03 -4.24952E+03
 -5.57816E+03 -4.38720E+03 -1.17957E+03 -8.05136E+03  4.85452E+03 -8.62857E+03  9.01624E+03 -6.98237E+03
  3.88262E+03  3.88715E+03 -5.84895E+03  2.72567E+03  1.39405E+03 -2.94054E+03 -1.47716E+03 -1.27429E+03
  1.69818E+03  1.01788E+03  9.66868E+03 -2.06411E+03  1.03930E+04  6.12605E+03  5.79950E+02  1.34718E+04
  8.53528E+01  1.07038E+04 -7.38940E+03  1.05269E+04 -1.44176E+04  2.07602E+03 -1.45624E+04 -8.02716E+03
 -4.42526E+03 -1.10068E+04  2.83237E+03 -6.34100E+03  5.99034E+03 -5.11002E+03  1.90089E+03 -7.15446E+03
 -8.27730E+01  1.52033E+03 -1.78215E+03 -1.78547E+03  4.27965E+03  7.35353E+02  4.58912E+03 -7.66714E+02
  6.76806E+03  5.87394E+03  5.30475E+03  1.05918E+04 -2.03305E+03  6.33382E+03 -3.68836E+03  4.85468E+03
 -3.57446E+03  3.80713E+03  3.14701E+01 -2.71803E+03 -2.85744E+03 -4.98126E+03  1.11048E+03 -9.10725E+03
  5.12913E+03 -2.61072E+03  8.57475E+03  2.55591E+03  8.88922E+03  6.27311E+03  2.27281E+03  6.72065E+03
 -2.70740E+03  1.02325E+04  5.34039E+02  2.98972E+03 -4.43032E+03 -4.87887E+03  6.04041E+02 -9.44384E+02
 -3.36400E+03  4.94519E+03 -2.70496E+03  4.05147E+03 -3.96056E+03  1.52274E+03 -7.66644E+03  1.08552E+03
 -3.30430E+03 -3.32809E+03  2.95820E+03 -4.19985E+03  7.85103E+03 -8.22682E+03  4.48031E+03 -5.81875E+02
  8.91435E+03  1.47104E+03  2.85674E+03  3.65418E+03 -3.08663E+03  8.66778E+03 -8.32596E+03  8.21615E+03
 -6.09666E+03 -3.73561E+03 -7.58212E+03 -7.59228E+03 -4.57918E+03 -3.45578E+03  6.09458E+03 -2.60602E+03
  3.97205E+03 -1.77149E+02  1.04446E+03 -2.02900E+03  8.24395E+01  3.06690E+03  3.33988E+03  6.82183E+01
  7.46577E+02  7.67950E+02  9.82632E+02  1.48189E+03 -2.37281E+03  2.64613E+03  4.40480E+03  1.45891E+03
 -9.97367E+02  7.39826E+03 -5.76245E+03  6.11443E+03 -3.28470E+03  2.81890E+03 -9.86856E+03 -3.26928E+03
 -3.78596E+03 -8.27753E+03  3.00484E+03 -4.78287E+03  2.75585E+03 -5.23017E+03  6.29551E+03 -3.31503E+03
  4.91192E+02  9.77672E+02  7.24955E+02  6.83021E+03 -1.90640E+03  1.39722E+03 -4.21663E+03 -3.64081E+03
 -2.58626E+03  1.00090E+03  7.54223E+02  2.17017E+03  5.49095E+02 -1.77960E+03 -2.52689E+02  1.81774E+03
  1.37014E+03 -1.91611E+03  8.18438E+02  5.25118E+02 -1.60210E+03 -2.30710E+03  5.95376E+03  2.73355E+02
 -1.51326E+03 -4.94678E+03  6.03946E+03  2.48496E+03 -2.14277E+03  3.10186E+03 -1.02619E+03  8.39537E+03
 -5.69308E+03 -5.97741E+02 -4.38650E+03  2.12247E+03 -1.95283E+02 -4.81893E+02 -2.03472E+03 -2.98739E+03
  4.68896E+03 -1.06006E+03  2.73792E+03  2.78037E+03  4.99664E+03  3.23736E+03  2.83750E+03 -9.95852E+01
 -2.81320E+03  6.56370E+01  9.03205E+02  3.10046E+03 -2.43672E+03 -3.14546E+03 -9.79040E+02 -4.94177E+03
  2.65436E+03 -3.55209E+03 -1.13920E+02  1.23162E+03 -2.15434E+03 -1.48021E+03 -1.06481E+03 -1.64134E+03
  9.98667E+02  1.83698E+03 -4.86295E+03 -1.14130E+02 -1.21112E+03 -5.00802E+03 -2.76668E+03 -4.06858E+03
  9.83815E+02 -1.87814E+03  4.79136E+03  1.38670E+03  2.08032E+03  2.70916E+03  1.00314E+03  2.93861E+03
 -8.35215E+00  2.55078E+02 -2.48870E+03 -2.42770E+03 -5.12301E+03 -3.58886E+03  9.80373E+02  1.79718E+02
 -1.65846E+03 -2.98190E+03  5.62998E+03  2.82224E+03 -6.83391E+02 -5.33506E+02  3.04484E+03  3.36420E+03
  2.55290E+03  1.10903E+03  2.17527E+03 -4.92579E+03  2.66882E+03 -7.75143E+02 -2.92240E+02  2.98383E+03
 -3.98056E+03  1.42711E+03 -1.17996E+03 -1.06908E+03 -1.22088E+03  8.07183E+02 -5.91506E+03 -6.87135E+03
  1.83764E+03 -3.29286E+03  1.34218E+03 -6.65672E+03  3.77558E+03 -3.51609E+03  3.05422E+03  3.99654E+03
  3.69720E+03  7.72267E+02  3.43420E+03  2.22332E+03 -2.61587E+02 -1.26606E+03 -2.18504E+03  1.78064E+03
 -2.63892E+03  1.42608E+03 -3.75603E+03  7.22570E+03 -8.43532E+02  6.50741E+03 -2.21635E+02 -2.10018E+01
 -6.55435E+02  4.21466E+03 -3.53184E+03 -2.51637E+02 -8.29164E+02 -1.34420E+03 -5.32166E+02 -1.77072E+03
  1.98627E+03 -1.43743E+03  2.64282E+03 -3.23434E+03  4.09752E+03  4.77511E+03 -2.71688E+03  1.70936E+03
 -3.16379E+03  1.01331E+04 -4.12418E+03  2.83790E+03 -2.78017E+03 -2.24571E+03  2.02003E+03 -3.46329E+02
 -1.27946E+03 -4.93038E+03 -1.32289E+03 -4.97571E+03  5.81593E+02  2.73034E+03  7.10534E+03  1.87890E+03
  4.06437E+03 -2.45877E+03  2.49305E+03  5.20667E+03 -7.92703E+02  4.15890E+03 -2.90461E+03 -2.43627E+03
  2.13028E+03  8.59147E+02 -1.88349E+02 -2.32945E+02  3.71554E+03  3.26788E+03  2.32153E+03  1.96145E+02
 -3.63200E+03  2.93940E+03 -1.66179E+03  5.35975E+03 -3.31567E+03 -1.00107E+03  1.54708E+03 -3.79481E+03
  1.46264E+03 -1.14896E+03  2.23905E+03 -5.10676E+02  3.60343E+03 -4.22797E+03 -1.50561E+02  2.43152E+03
  3.72993E+03  1.99802E+03 -1.16340E+03  2.87161E+03 -7.64230E+03 -5.15872E+03  2.08370E+03 -4.24063E+03
 -4.28308E+02 -2.98187E+03  1.46265E+03  4.74994E+03 -1.78552E+03 -3.58521E+03  3.24096E+03  3.83118E+03
 -4.40844E+02 -8.70300E+02 -3.05338E+03  3.12292E+03  3.88299E+03 -2.32528E+03 -2.54835E+03 -2.37571E+03
  5.29896E+01 -1.02157E+02 -1.15667E+02 -3.61982E+03 -2.39292E+03  4.08547E+03  5.64092E+02  4.27327E+03
