 $NMID ID='MM_0lb_SNR50_14hz_g50_63.RAW', FMTDAT='(8E13.5)'
 TRAMP=1., VOLUME=1. $END
  3.08896E+05  2.88923E+03  3.39090E+05  2.49636E+05  8.12390E+04  3.38419E+05 -1.36897E+05  2.51016E+05
 -1.88909E+05  8.23539E+04 -1.12665E+05 -3.29289E+04 -1.03526E+03 -4.85924E+04  5.54986E+04 -2.40920E+03
  3.60895E+04  4.86405E+04 -1.37596E+04  7.38340E+04 -6.24412E+04  6.34836E+04 -8.32468E+04  2.79178E+04
 -7.71164E+04 -1.06152E+04 -5.96182E+04 -5.00573E+04 -1.23044E+04 -6.92248E+04  2.36481E+04 -4.69906E+04
  3.79650E+04  1.82431E+02  1.57940E+04  4.71199E+04 -3.27841E+04  4.82085E+04 -6.68697E+04 -3.04774E+02
 -5.44691E+04 -5.28716E+04 -5.89951E+03 -7.86165E+04  3.48847E+04 -5.84862E+04  4.93894E+04 -1.79640E+04
  4.37785E+04  1.13257E+04  3.14436E+04  3.15000E+04  2.44319E+04  3.19785E+04 -2.10679E+03  2.79379E+04
 -2.28942E+04  1.37246E+04 -1.72311E+04 -6.32245E+03  3.67740E+03 -5.68460E+03  2.35620E+04  1.49403E+04
  7.93537E+03  3.45995E+04 -2.91451E+04  2.86723E+04 -6.45225E+04  2.99211E+03 -5.95930E+04 -4.38053E+04
 -1.65433E+04 -6.33586E+04  4.45743E+04 -4.50144E+04  5.58653E+04  2.03795E+03  2.90888E+04  3.74729E+04
 -5.75777E+03  4.01566E+04 -2.87526E+04  2.14391E+04 -2.96937E+04 -4.79806E+03 -1.35396E+04 -1.10690E+04
 -7.13723E+03 -1.77665E+04 -3.02889E+03 -1.80839E+04  3.17602E+03 -2.66585E+04  1.34387E+04 -4.48128E+03
  1.18495E+04  8.37653E+03 -8.25908E+03  9.24026E+03 -2.40467E+04 -6.80943E+03 -1.13120E+04 -3.45293E+04
  1.87544E+04 -4.61306E+04  4.76000E+04 -2.05638E+04  4.67515E+04  1.85365E+04  1.73370E+04  4.45869E+04
 -1.01766E+04  2.76124E+04 -2.67220E+04  1.12088E+03 -1.38156E+04 -2.30376E+04  2.23870E+04 -3.23093E+04
  4.36027E+04 -1.04370E+04  3.51314E+04  2.29613E+04  2.05201E+04  4.73565E+04 -1.04812E+04  5.12939E+04
 -2.83056E+04  3.17879E+04 -4.73144E+04  1.04296E+04 -4.13782E+04 -1.67675E+04 -2.27961E+04 -3.78145E+04
  3.62548E+03 -4.20417E+04  2.94399E+04 -1.59373E+04  3.00693E+04  3.36599E+03  1.15565E+04  1.35979E+04
 -1.53916E+04  1.23001E+04 -9.78041E+03 -6.88380E+03  1.57686E+03 -1.09924E+04  2.06160E+04  5.94498E+03
  1.13828E+04  2.09265E+04 -2.90620E+03  2.75688E+04 -1.76928E+04  1.33750E+04 -2.85490E+04 -7.58580E+03
 -1.70406E+04 -2.09006E+04 -6.80559E+03 -2.43939E+04  7.76778E+03 -1.82503E+04  1.92142E+04 -2.11345E+04
  2.45372E+04 -1.42075E+04  3.18216E+04  4.58668E+03  2.37689E+04  2.36597E+04  2.66172E+03  4.01556E+04
 -2.11671E+04  2.95291E+04 -2.81229E+04  8.34111E+03 -1.54281E+04 -1.08253E+04 -2.77952E+03 -1.25335E+04
  2.45983E+03 -1.81587E+02 -3.20654E+03  1.14516E+04 -1.17657E+04  3.52294E+03 -2.15484E+04 -9.04914E+03
 -8.35548E+03 -1.58340E+04  5.10964E+03 -2.18631E+04  1.11435E+04 -1.13045E+04  1.95767E+04 -5.65062E+03
  1.21434E+04  1.34190E+04  2.12216E+02  1.86259E+04 -1.47696E+04  1.33866E+04 -1.80628E+04 -4.18285E+03
 -1.17676E+04 -1.97850E+04 -1.20685E+03 -2.37311E+04  8.43614E+03 -1.91908E+04  2.21306E+04 -5.72422E+03
  1.94804E+04  7.29652E+02  1.52637E+04  4.99273E+03  8.04226E+03  1.71274E+03  1.10372E+04  1.03863E+03
  1.56394E+04  2.83463E+03  2.10347E+04  2.39881E+04  1.14048E+04  3.32134E+04 -1.57362E+03  3.54985E+04
 -1.82194E+04  3.38183E+04 -3.11205E+04  1.65707E+04 -3.57293E+04 -1.09020E+03 -2.76117E+04 -2.23267E+04
 -1.43535E+04 -2.62376E+04  8.17381E+03 -2.11488E+04  2.02465E+04 -1.18471E+04  1.66532E+04  3.02176E+03
  5.35113E+03  1.44754E+04 -1.00013E+04  8.53207E+03 -1.41159E+04  1.12994E+03 -1.76207E+04 -1.35688E+04
 -1.10716E+03 -1.57260E+04  4.92907E+03 -1.05563E+04  1.60046E+04  3.37871E+02  1.59087E+03  9.60440E+03
 -7.08643E+03  4.03736E+03  2.66156E+02 -7.80036E+03 -2.70273E+03 -1.56720E+04  1.13151E+04 -1.51138E+04
  1.82361E+04 -8.32098E+03  2.38846E+04  4.53841E+03  1.51552E+04  1.35931E+04  8.82429E+03  2.36387E+04
 -1.74277E+03  2.33063E+04 -1.50348E+04  1.58195E+04 -1.50132E+04  3.44505E+03 -9.25017E+03 -2.88124E+03
 -2.43399E+03 -2.90391E+03 -2.66841E+03  1.54049E+03  9.99814E+02  6.59534E+03 -4.11217E+03  5.46644E+03
 -8.65517E+03 -1.17837E+03 -6.87712E+03 -4.11667E+03 -6.21632E+03 -1.65983E+04  2.69625E+03 -1.59025E+04
  1.08399E+04 -7.35857E+03  8.78825E+03  1.49413E+03  3.70244E+03  6.32695E+03 -3.65259E+03 -2.29979E+03
 -5.01473E+03 -9.33379E+03 -8.44687E+02 -1.27122E+04  3.91815E+03 -1.79212E+04  1.85624E+04 -3.18180E+03
  1.22098E+04 -1.92458E+03  1.25540E+04  6.28844E+03  5.95821E+02  7.15807E+03 -1.13489E+04  8.85239E+03
 -1.17813E+04  4.51309E+03 -7.02145E+03 -1.97433E+03  2.71799E+03 -1.45844E+03  7.25011E+03 -7.79048E+02
  3.74649E+03  6.30916E+03 -3.27765E+03  9.32602E+03 -6.26052E+03  1.14040E+04 -1.51488E+04  5.65954E+03
 -1.66732E+03 -6.30260E+03  1.78413E+03 -8.65887E+03  4.80114E+03 -6.34417E+03  1.47964E+03  6.61738E+03
  1.02499E+03  4.37421E+03 -5.31226E+03  1.35776E+04 -5.37501E+02  3.71461E+03 -1.15754E+04 -3.49672E+03
 -7.46730E+03 -1.40946E+04  6.70712E+03 -1.58821E+04  9.52160E+03 -2.60942E+03  1.23868E+04  8.42101E+03
  7.14431E+03  8.52454E+03  4.30657E+03  1.03877E+04 -7.05922E+03  3.98863E+03 -3.62943E+03  5.90838E+03
 -1.11327E+04 -7.76337E+03 -2.84585E+03 -5.46137E+03  8.53148E+03 -5.63883E+03  1.49230E+03 -3.12821E+03
  4.15484E+03 -4.57379E+02 -3.07039E+03  2.82525E+03  2.00606E+03  1.22853E+03  2.10303E+03 -4.44068E+03
  8.99255E+03 -1.30386E+02  1.00423E+04  3.01884E+03  9.24604E+03  6.91868E+03  6.78915E+03  1.66471E+04
 -4.62356E+03  1.44695E+04 -1.44318E+04  6.58525E+03 -1.75814E+04 -6.16699E+02 -9.34107E+03 -5.24516E+03
 -6.33016E+03 -8.15702E+03 -1.32238E+01 -1.08097E+04  4.44620E+03 -4.82191E+03 -1.68703E+03 -9.43888E+03
  7.93707E+03 -1.37325E+03  3.68590E+03 -5.53697E+03  7.13922E+03 -1.28642E+03  5.01902E+03 -2.32677E+03
  6.29872E+03  1.00132E+01  2.17306E+03  1.85850E+03  2.25314E+03  7.39865E+03 -7.71491E+03  1.13778E+03
 -5.19665E+03 -4.24968E+03 -3.19818E+03 -6.67332E+03  4.09445E+01 -9.50494E+03  4.35022E+03 -1.19870E+04
  1.30021E+04 -4.66948E+03  1.43594E+04  7.74067E+02  1.18307E+04  9.91302E+03  9.47823E+02  7.24908E+03
 -6.05993E+03  1.13598E+04 -1.00375E+04  6.60741E+03 -1.99834E+03 -3.55702E+02 -3.85037E+03 -1.51821E+03
 -1.79149E+03  5.06416E+03  3.79548E+03  3.04201E+03 -9.69997E+02  2.21940E+03 -1.09144E+04 -4.47234E+03
 -3.21789E+03 -8.62765E+03 -6.71947E+03 -7.29135E+03  6.32042E+03 -8.31584E+03  5.93050E+03 -3.28377E+03
  9.66671E+03  5.41007E+03  3.75013E+03  9.67700E+03 -2.64557E+03  7.90034E+03 -2.75551E+03  1.07277E+04
 -8.19674E+03  2.78083E+03 -1.14647E+04 -6.05497E+03 -4.92278E+02 -7.78423E+03  1.31069E+03 -4.06402E+03
  8.32360E+03 -1.84398E+03  2.25994E+03  4.76905E+02 -2.23026E+02  4.58765E+03  4.96851E+03  3.34270E+03
  1.11470E+03  8.11750E+02  3.20532E+03  1.31116E+03  7.04553E+02  3.89998E+02 -3.65101E+03 -2.17986E+03
  1.56568E+03  7.83493E+03 -7.66468E+03  3.30974E+03 -5.65204E+03 -1.78372E+03 -8.74678E+03 -4.55377E+03
 -4.49424E+03 -2.79937E+03  3.01588E+03 -1.31524E+04  9.31270E+03 -7.89326E+03  6.30624E+03 -3.58818E+03
  1.00174E+04  1.16245E+03 -2.10758E+03  4.69602E+02  2.73599E+02  1.50729E+03 -3.79240E+03  4.74602E+03
  6.76522E+02 -2.14364E+03  3.24361E+03 -4.11282E+03  3.17619E+03 -1.52829E+03  3.03798E+03  2.64583E+03
 -2.46391E+02  9.57963E+02 -3.16862E+03  7.78934E+02  1.10317E+02 -1.01019E+03  2.41574E+02 -1.14364E+03
  1.42069E+03  8.89262E+02  7.01825E+03 -2.39527E+03  3.03538E+02  4.62474E+03 -1.90192E+03  3.18520E+03
 -2.57842E+03  3.75594E+02 -3.39300E+03 -5.34262E+01 -2.09131E+03  3.82511E+02 -1.42309E+03  7.67962E+02
 -5.40240E+02 -4.73383E+03  6.31441E+02 -2.94233E+03  1.08534E+03  5.03344E+03  6.91448E+02  1.59266E+03
 -5.32246E+03  2.19373E+02 -1.98526E+03 -5.90386E+03 -1.70394E+03 -3.25235E+03  7.97041E+02 -3.50330E+03
  4.32505E+03 -2.70053E+03  9.11000E+01 -1.42816E+03  2.98581E+03 -9.17131E+02 -3.39035E+03  1.51220E+03
 -4.11219E+03  2.73470E+03  6.30097E+02 -7.65202E+03  5.12672E+03  4.37649E+03  3.27258E+03 -1.24038E+03
  2.83523E+03 -2.26917E+03  1.43446E+03  1.88694E+03  2.68645E+03  2.38628E+03  3.12712E+02  4.61595E+03
 -5.39387E+03  1.62263E+03 -6.47254E+03  5.27080E+03 -5.00496E+03 -5.96194E+03  3.06067E+03 -7.28984E+03
  4.62464E+03 -7.36456E+01  1.37394E+03  1.97990E+03 -4.38861E+03  2.70044E+03  4.79349E+03 -7.11106E+01
 -9.79275E+02  5.79328E+03  4.57734E+03  3.50430E+03 -3.15829E+03  4.21025E+03 -9.92861E+02  3.53136E+03
 -3.30339E+03  3.89308E+03 -1.00870E+03  2.68429E+03 -5.52220E+03 -3.12802E+03 -3.02602E+03 -3.31940E+03
 -4.11783E+03 -2.76930E+03  1.06182E+03  5.81245E+02  1.72051E+03 -1.93683E+03  4.88629E+02 -7.26793E+02
  7.76151E+02 -8.45499E+02  3.63422E+03  2.75845E+03  6.92162E+02  5.41780E+03 -3.87001E+02 -1.33453E+02
 -4.30742E+03  4.47140E+03 -7.67856E+03  2.02074E+03 -4.05089E+03  3.61205E+03 -1.96880E+02 -1.99485E+03
 -4.62269E+03  3.67166E+03  3.34479E+02  5.19210E+03  8.54154E+02 -1.56505E+03  5.54434E+03  1.20992E+03
  7.94070E+02 -9.88666E+02 -1.54084E+03 -5.04699E+01  2.15628E+03  5.86729E+03 -9.19127E+02  3.39548E+03
 -1.10040E+02  5.10274E+03  6.82121E+02  5.21965E+03 -1.13989E+03 -3.58640E+03 -7.51532E+03 -5.19294E+03
  1.67483E+03 -4.12460E+03  1.47006E+03 -8.56085E+03 -2.23226E+03 -1.13322E+03  5.02250E+03 -8.30348E+02
  7.88154E+02  2.83050E+03  3.34845E+03  1.49108E+03 -2.32051E+02 -4.32647E+02  5.64655E+03 -2.41397E+03
  1.82224E+03 -1.36723E+03 -1.75790E+03  2.13817E+03  2.97266E+03  1.76430E+02 -6.60057E+02  2.77590E+03
 -6.54290E+02  6.71834E+03 -4.88898E+03  1.61239E+03 -3.63012E+03 -6.33662E+03  2.81566E+02 -4.35965E+03
  3.73662E+03 -1.90914E+03  2.26748E+03  1.56568E+02 -2.45100E+02 -6.80377E+03  3.73324E+03 -8.76543E+02
  2.63886E+03  3.54232E+03 -1.13560E+01  2.05948E+03 -4.10669E+03 -1.02049E+03  3.17168E+03 -4.25994E+02
  1.27400E+02 -2.01440E+03  6.23491E+01 -1.11157E+03 -3.12021E+03  1.92061E+03  7.82949E+02  2.99831E+03
 -4.67449E+03 -5.42699E+03 -1.31278E+03 -8.73476E+03 -2.10089E+02 -8.01047E+02  2.36456E+03 -4.61603E+02
  7.04651E+03  3.05661E+03 -1.21650E+01 -2.48338E+03 -3.75999E+03 -3.43573E+03 -4.39725E+02 -1.21225E+03
