 $NMID ID='MM_0lb_SNR50_8hz_g55_17.RAW', FMTDAT='(8E13.5)'
 TRAMP=1., VOLUME=1. $END
  3.08070E+05  3.31306E+03  3.33402E+05  2.48490E+05  8.73797E+04  3.45755E+05 -1.28964E+05  2.54419E+05
 -1.88805E+05  7.55526E+04 -1.10315E+05 -3.44112E+04 -6.54211E+02 -4.86820E+04  5.10105E+04  1.02386E+03
  3.91880E+04  4.56714E+04 -1.94164E+04  7.41287E+04 -6.21331E+04  7.20006E+04 -9.07268E+04  3.54396E+04
 -8.26776E+04 -1.73239E+04 -5.90200E+04 -5.54949E+04 -2.05846E+04 -7.18683E+04  2.47198E+04 -4.56208E+04
  4.61427E+04  4.74347E+03  2.17144E+04  4.67385E+04 -3.12379E+04  4.69020E+04 -7.11085E+04 -4.08475E+03
 -5.62784E+04 -6.36499E+04 -7.08065E+03 -7.73202E+04  3.15808E+04 -4.99920E+04  4.33775E+04 -2.16739E+04
  5.73918E+04  1.14638E+04  3.54832E+04  2.30530E+04  1.54790E+04  3.62530E+04 -4.70486E+03  2.36998E+04
 -2.07376E+04  1.00092E+04 -1.56399E+04 -6.25776E+03  6.15213E+03 -3.74092E+03  2.09485E+04  2.04262E+04
  5.38431E+03  3.79425E+04 -3.56037E+04  4.67370E+04 -6.81004E+04  2.25666E+02 -5.40426E+04 -4.46780E+04
 -1.94796E+04 -7.05483E+04  4.64029E+04 -5.09891E+04  6.46879E+04 -5.46433E+03  4.27070E+04  3.30019E+04
 -7.77121E+03  4.16174E+04 -2.71657E+04  2.42405E+04 -3.74859E+04 -1.09387E+04 -1.99816E+04 -1.20656E+04
 -1.64628E+04 -1.41002E+04  1.09256E+04 -2.38751E+04  1.03155E+04 -2.50951E+04  1.27784E+04 -6.36007E+03
  1.25610E+04  3.55611E+03 -4.94476E+03  1.22214E+04 -2.43961E+04 -7.40450E+03 -1.83429E+04 -3.48427E+04
  2.27070E+04 -5.02129E+04  4.59458E+04 -2.29012E+04  5.52971E+04  2.21199E+04  7.67957E+03  5.62622E+04
 -1.68561E+04  3.79782E+04 -2.51822E+04 -5.68793E+02 -1.26020E+04 -3.39017E+04  1.78097E+04 -3.71599E+04
  4.63693E+04 -1.14687E+04  4.56622E+04  2.62337E+04  3.01618E+04  5.20707E+04 -1.18352E+04  6.27600E+04
 -3.53573E+04  4.08036E+04 -5.25167E+04  9.82991E+03 -4.88333E+04 -1.61323E+04 -2.52031E+04 -3.62625E+04
  5.85957E+03 -4.21850E+04  3.66056E+04 -1.74725E+04  3.33541E+04  8.40460E+03  9.64102E+03  2.27492E+04
 -1.26037E+04  7.66955E+03 -1.27088E+04 -4.17458E+03  5.96896E+03 -1.20979E+04  2.13611E+04  1.15235E+04
  1.76354E+04  8.21312E+03 -7.87136E+03  2.39475E+04 -1.70175E+04  1.14077E+04 -3.63424E+04  1.13898E+03
 -2.54861E+04 -1.45482E+04 -1.13472E+04 -2.94973E+04  8.37656E+03 -2.04267E+04  2.34325E+04 -2.40329E+04
  4.63493E+04 -1.73200E+04  3.90776E+04  2.22690E+03  3.50485E+04  2.60684E+04 -8.08122E+02  4.87742E+04
 -2.01844E+04  3.23011E+04 -2.95811E+04  1.06219E+04 -1.93705E+04 -1.15518E+04 -4.82431E+03 -1.01351E+04
 -1.06850E+02 -1.85203E+03 -1.02422E+04  1.34343E+04 -1.87900E+04  1.44472E+04 -1.56620E+04 -1.26856E+04
 -8.53816E+03 -2.33904E+04  3.77865E+03 -2.30485E+04  1.77014E+04 -2.09388E+04  2.14448E+04  1.54289E+02
  1.46480E+04  1.92618E+04 -6.40712E+03  2.38386E+04 -1.75044E+04  1.21181E+04 -2.07452E+04  2.42366E+03
 -2.22070E+04 -2.40722E+04 -7.07801E+03 -2.61812E+04  1.95674E+04 -2.31003E+04  1.73274E+04 -1.22632E+04
  2.47471E+04  3.07356E+03  1.39923E+04  4.35607E+02  1.11563E+04  6.86532E+03  1.48880E+04 -4.51090E+03
  1.77016E+04 -1.67606E+03  3.55089E+04  1.70429E+04  2.20881E+04  4.84323E+04 -3.94361E+03  4.51577E+04
 -2.99563E+04  4.49974E+04 -4.20416E+04  1.59538E+04 -4.53108E+04 -6.40177E+03 -4.25898E+04 -2.85759E+04
 -6.05257E+03 -4.10439E+04  1.68340E+04 -3.41339E+04  2.98667E+04 -1.81704E+04  2.51589E+04  9.69948E+03
  1.01299E+04  1.77508E+04 -1.02501E+04  1.40241E+04 -2.16455E+04  2.63777E+03 -2.06865E+04 -1.11602E+04
  7.47175E+02 -2.66567E+04  1.39818E+04 -2.29945E+04  1.40164E+04 -1.39014E+03  4.07036E+03  1.22499E+04
 -1.13491E+04 -1.35256E+03 -8.00811E+03 -4.52673E+03 -6.09683E+03 -1.31195E+04  8.42534E+03 -2.31242E+04
  3.30509E+04 -1.42549E+04  2.55690E+04 -4.26056E+02  2.21571E+04  1.95364E+04  8.07960E+03  2.98985E+04
 -6.64781E+03  3.46508E+04 -2.48523E+04  2.11613E+04 -2.36626E+04 -2.26090E+03 -2.23278E+04 -6.49416E+03
 -6.64740E+03 -7.61647E+03  1.10633E+03 -7.06027E+02 -1.13884E+03  2.09398E+03 -7.40473E+03  7.49319E+03
 -1.57331E+04 -4.23122E+03 -2.26476E+04 -7.61095E+03 -7.75171E+03 -2.06513E+04  2.35507E+03 -1.36083E+04
  1.47304E+04 -1.01055E+04  4.42566E+03  9.33451E+03 -4.93473E+03  1.44545E+04 -1.54846E+04 -3.82263E+03
 -1.22848E+04 -1.03054E+04 -1.93034E+03 -1.57358E+04  6.10475E+03 -1.67200E+04  2.49236E+04 -9.02100E+03
  2.04444E+04  2.15713E+03  2.26461E+04  1.86631E+04  8.03072E+03  1.57009E+04 -4.17133E+03  1.61996E+04
 -1.73583E+04  2.00313E+03 -5.17364E+02 -6.86381E+03 -2.18657E+03 -6.12596E+03  1.29335E+04 -7.30027E+03
  1.00623E+04  5.41118E+03  9.80305E+02  9.02631E+03 -7.28148E+03  9.59454E+03 -1.80180E+04  5.63715E+02
 -1.28908E+04 -1.12035E+04 -4.34811E+03 -1.23196E+04  6.36220E+03 -9.87127E+03  8.36526E+03 -4.89378E+03
 -2.02357E+03  3.62412E+03 -9.32786E+03  8.38269E+03 -1.37375E+04  5.81457E+02 -1.29083E+04 -3.35496E+03
 -1.85727E+04 -2.05877E+04  2.65483E+03 -1.62693E+04  1.06505E+04 -5.09209E+03  1.93303E+04  6.98050E+03
  1.05532E+04  1.32438E+04 -3.37281E+03  1.55433E+04 -1.64935E+04  6.60391E+03 -1.92498E+04 -2.11910E+03
 -9.11201E+03 -1.15188E+04 -4.16245E+03 -9.57057E+03  7.78162E+03 -7.28388E+03  1.04588E+04 -5.45174E+03
  3.56435E+02  1.51734E+03 -3.21419E+03 -3.21557E+03 -3.04185E+03 -3.43181E+03  4.65796E+03 -6.00980E+03
  1.61745E+04 -3.44542E+02  1.65039E+04  3.62369E+02  1.72241E+04  1.43239E+04  7.63972E+03  2.58319E+04
 -9.43005E+03  2.64865E+04 -2.22149E+04  2.14490E+04 -2.61670E+04  5.47327E+03 -2.70519E+04 -8.25014E+03
 -1.33917E+04 -1.58305E+04  1.52950E+03 -2.12109E+04  3.60360E+03 -1.07170E+04  2.83635E+03 -8.68249E+03
  1.63838E+03 -1.04984E+04  4.65787E+03 -1.15563E+04  7.56618E+03 -7.25181E+03  1.04549E+04  6.52848E+03
  3.71073E+03  2.91886E+03  7.89518E+03  9.72732E+03 -6.17666E+03  1.35115E+04 -1.11877E+04  1.32801E+04
 -1.38770E+04  2.56562E+03 -1.12994E+04 -2.96013E+03 -2.41191E+03 -2.28455E+04  1.16350E+04 -2.11111E+04
  2.27688E+04 -6.32302E+03  2.88252E+04  2.55376E+03  1.36103E+04  1.44396E+04  9.12063E+03  2.24699E+04
 -9.72605E+03  7.13182E+03 -1.13314E+04  3.97399E+03 -8.16181E+03  1.07098E+03 -1.40808E+03 -2.27388E+03
 -4.49404E+03  3.30805E+03 -1.57846E+01  8.25587E+03 -2.20018E+03  1.02259E+04 -1.35367E+04 -3.53651E+02
 -8.28333E+03 -1.03637E+04 -5.15218E+03 -2.66882E+04  6.72171E+03 -1.31592E+04  1.55430E+04 -7.23508E+03
  1.81688E+04  1.64621E+04  3.83639E+03  1.35910E+04 -2.07384E+02  2.19843E+04 -1.41958E+04  6.22009E+03
 -1.57432E+04 -3.37953E+02 -1.67662E+03 -1.26536E+04 -4.11211E+03 -1.19107E+04  1.37033E+04 -1.44475E+04
  1.15161E+04 -7.27349E+03  2.86254E+03  4.11522E+03  4.61411E+03 -3.15535E+03 -1.57875E+03  2.78336E+03
  2.41923E+03  3.00306E+03  3.05745E+03  2.37471E+03  1.18991E+02  6.13436E+03  2.03766E+03  1.09365E+04
 -4.32917E+03  1.50353E+04 -9.45787E+03  1.65698E+04 -2.25562E+04  9.07849E+03 -1.74397E+04 -4.00098E+03
 -1.55886E+04 -2.26685E+04  1.14863E+03 -1.64290E+04  1.31105E+04 -1.01349E+04  9.81855E+03 -5.10590E+02
  4.92200E+02  9.86135E+03  5.47617E+03  1.26024E+04 -8.91827E+03  5.97434E+03 -8.28588E+03  5.76012E+03
 -4.17803E+03 -4.02921E+03  2.17710E+03 -9.45126E+03  1.10431E+04 -4.09612E+03  7.58035E+03  3.54537E+03
  4.83859E+03  4.34673E+03 -5.06888E+02  8.64115E+03 -7.46574E+02  9.13796E+03  3.88445E+03 -1.69540E+03
  8.38040E+01  2.20852E+03  5.83739E+01  4.19941E+03 -3.89021E+02  1.38961E+04 -3.49873E+03  1.00987E+04
 -1.56428E+03  8.99453E+03 -9.78898E+03 -1.64946E+03 -8.36452E+03 -5.85784E+03 -8.66213E+02 -7.32799E+03
  1.27046E+03 -9.57725E+03  1.20086E+04 -7.45951E+03  4.75858E+02  7.59063E+03 -8.99801E+03  9.01402E+03
 -1.24009E+04  1.63386E+03 -6.62239E+03 -4.94227E+03 -1.54521E+03 -1.02339E+04 -3.44283E+02 -1.03869E+04
  1.04247E+04 -7.75601E+03  1.51756E+04 -9.63463E+02  1.56329E+04 -1.04665E+03  8.35907E+02  4.04478E+03
 -4.25845E+03  1.96882E+03 -8.97156E+02 -2.37260E+03  4.77904E+02 -5.29062E+03  9.19053E+03 -5.88831E+03
  9.32484E+03  3.42096E+03  9.14063E+03  1.14500E+04  1.43598E+03  1.23705E+04 -2.09724E+03  1.23885E+04
 -1.13589E+04 -2.18399E+03 -1.70015E+04 -6.12039E+02 -8.57354E+03 -7.47114E+02  4.81371E+01 -1.23916E+04
  6.10829E+03 -8.77347E+03  1.03559E+04  1.06167E+03  6.92757E+03  1.10570E+04  6.66749E-01 -7.78492E+00
 -8.95881E+03 -1.08190E+03 -3.97538E+03 -3.44398E+03 -1.51904E+03 -4.64483E+03 -1.48613E+03  1.61447E+03
 -4.96471E+03  5.84240E+03 -1.05357E+04  3.74350E+03 -1.11779E+04  6.86223E+03 -1.21128E+04 -1.26074E+03
 -1.01332E+04 -1.98004E+04  7.41042E+03 -1.37008E+04  1.06906E+04 -1.94026E+04  1.68141E+04 -6.50917E+03
  1.45540E+04  5.50884E+03  5.85711E+03  7.47106E+03  3.68797E+03  1.21174E+04 -7.21131E+03  8.99690E+03
 -1.44253E+04 -1.48918E+03 -1.62444E+03  4.86045E+03  2.80489E+03 -7.02983E+03 -7.26632E+02  3.43662E+03
 -6.61511E+03 -2.21427E+03 -4.12030E+03  2.25862E+03 -2.52655E+03 -3.99941E+02  6.12240E+03 -2.32135E+03
  1.26195E+04 -5.01773E+03  5.44094E+03 -3.93327E+03  1.02179E+04  9.30356E+03  7.01558E+03  9.99277E+03
 -9.17446E+03  1.43855E+04 -1.62250E+04  9.32867E+03 -8.92367E+03  1.19855E+03 -1.46848E+04 -3.92086E+03
 -3.41352E+03 -1.59279E+04  3.34321E+03 -1.28447E+04  1.04585E+04 -4.09085E+03  4.00471E+03  1.79026E+02
  1.21576E+04  3.17231E+02 -1.18306E+02  2.24156E+03 -6.01968E+03 -1.90182E+03 -2.77834E+03 -6.92441E+03
  5.75956E+03 -2.59532E+03  6.79969E+03  6.69212E+03 -2.51382E+03  7.50191E+03 -3.10861E+03  3.77962E+03
 -7.80609E+02  7.26596E+03 -7.85107E+03  2.36505E+03 -8.21796E+03 -4.42392E+03 -2.07849E+03 -1.51586E+04
  1.53398E+03 -1.47364E+04  1.38829E+04 -2.81251E+03  1.68436E+04 -5.65232E+02  6.35602E+02  4.79776E+03
 -6.49214E+03  4.03554E+03  5.21727E+02  1.00827E+04  3.26509E+02  8.50102E+03 -5.30026E+03  5.54435E+02
 -6.25851E+03 -4.35292E+00  7.23597E+03 -7.24650E+03 -6.46767E+03  3.15430E+03 -1.34242E+04  1.76651E+03
 -1.26199E+04 -4.46848E+03 -5.01745E+03 -1.00918E+04  4.85712E+03 -1.06275E+04  1.13855E+04 -7.79084E+03
  1.44058E+04 -3.77423E+02  9.52427E+03  1.15653E+04  4.97351E+03  1.22289E+04  2.67466E+02  8.67356E+03
