 $NMID ID='MM_0lb_SNR50_17hz_g50_35.RAW', FMTDAT='(8E13.5)'
 TRAMP=1., VOLUME=1. $END
  3.11000E+05  3.03254E+03  3.40000E+05  2.48539E+05  7.96130E+04  3.38155E+05 -1.36076E+05  2.47267E+05
 -1.90469E+05  8.46491E+04 -1.11257E+05 -3.36539E+04  8.73250E+02 -4.96762E+04  4.92921E+04  6.28146E+03
  3.50184E+04  5.81053E+04 -1.60883E+04  7.49915E+04 -6.54772E+04  6.45184E+04 -8.08494E+04  2.93197E+04
 -7.64714E+04 -9.45277E+03 -5.95819E+04 -5.07804E+04 -1.69666E+04 -7.22412E+04  2.57668E+04 -4.38131E+04
  4.09067E+04  4.68381E+03  1.29686E+04  5.24277E+04 -3.49947E+04  4.64606E+04 -6.51664E+04  4.39811E+03
 -4.98084E+04 -5.65109E+04 -9.50507E+03 -7.72498E+04  2.98536E+04 -5.40270E+04  4.51236E+04 -1.42462E+04
  4.27836E+04  9.68493E+03  3.46016E+04  2.58798E+04  1.94780E+04  2.97885E+04 -7.71237E+03  2.95850E+04
 -2.45794E+04  1.50427E+04 -2.07773E+04 -4.40607E+03  3.25601E+03 -8.42188E+03  2.40447E+04  1.16415E+04
  5.13695E+03  3.28819E+04 -3.12418E+04  3.14602E+04 -5.89912E+04  2.79447E+03 -5.42097E+04 -4.26695E+04
 -1.36260E+04 -6.02610E+04  4.21638E+04 -4.37823E+04  5.94919E+04 -5.86452E+02  3.13965E+04  3.21778E+04
 -2.66831E+00  3.44163E+04 -3.20857E+04  1.27208E+04 -2.69928E+04 -7.34899E+03 -1.25708E+04 -8.82719E+03
 -1.09307E+04 -6.22316E+03  6.83171E+02 -2.08078E+04  8.69039E+03 -2.24461E+04  1.46061E+04 -1.36731E+04
  1.53017E+04  4.12057E+03 -4.92702E+03  1.34745E+04 -2.00930E+04 -4.45448E+03 -9.56820E+03 -3.21051E+04
  2.27293E+04 -4.16575E+04  4.56018E+04 -1.82337E+04  4.17515E+04  1.96192E+04  1.80114E+04  4.25831E+04
 -1.31757E+04  3.35608E+04 -2.58460E+04 -1.37261E+03 -1.27522E+04 -2.80995E+04  1.94276E+04 -3.08545E+04
  4.39622E+04 -7.30365E+03  3.30711E+04  2.01599E+04  1.43294E+04  4.45753E+04 -2.18549E+03  4.57590E+04
 -2.76943E+04  3.10370E+04 -3.87727E+04  6.86687E+03 -4.18863E+04 -1.36871E+04 -1.53230E+04 -4.10990E+04
  4.42828E+03 -3.35546E+04  3.36583E+04 -1.31520E+04  2.94020E+04  1.23851E+04  8.40023E+03  1.69083E+04
 -1.33371E+04  1.02187E+04 -1.33711E+04 -4.96679E+03  8.18572E+03 -9.32589E+03  1.71935E+04  8.20094E+03
  1.29363E+04  2.67160E+04 -9.25040E+03  2.42418E+04 -2.53884E+04  8.79246E+03 -2.81782E+04 -7.80792E+03
 -1.97821E+04 -1.86683E+04 -5.74188E+03 -1.71091E+04  2.81919E+03 -1.35047E+04  1.30388E+04 -1.49423E+04
  2.30081E+04 -1.02941E+04  3.30486E+04 -5.06614E+03  2.30494E+04  1.51282E+04  7.80571E+03  3.27965E+04
 -1.83793E+04  2.78821E+04 -2.53240E+04  5.68001E+03 -2.19095E+04 -8.35344E+03 -4.72248E+03 -1.40046E+04
 -4.13278E+01 -1.76727E+03 -2.59190E+02  8.39963E+03 -1.54483E+04  7.19336E+03 -1.05436E+04 -6.00978E+03
 -1.12164E+04 -1.83491E+04  3.09163E+03 -2.03873E+04  1.39264E+04 -1.26040E+04  1.47733E+04 -1.35913E+01
  9.80471E+03  9.72885E+03 -1.14077E+03  1.51428E+04 -1.46072E+04  1.11458E+04 -1.69931E+04 -4.77441E+03
 -1.54458E+04 -1.75419E+04 -5.30115E+03 -1.81548E+04  9.57351E+03 -1.59840E+04  2.04783E+04 -8.77459E+03
  1.62083E+04 -9.52592E+02  1.18913E+04  3.37542E+03  6.32341E+03  3.16358E+03  8.56966E+03 -9.91890E+02
  1.51633E+04  2.74464E+03  1.72128E+04  1.69741E+04  9.12287E+03  2.62841E+04 -9.80860E+02  3.43916E+04
 -2.19925E+04  2.16894E+04 -2.62418E+04  8.30432E+03 -3.01002E+04 -1.23432E+02 -2.24117E+04 -1.69095E+04
 -9.01664E+03 -2.05116E+04  6.17225E+03 -2.42468E+04  2.06723E+04 -1.17175E+04  1.77416E+04 -3.24491E+03
  6.05626E+03  1.31599E+04 -1.01198E+04  1.20762E+04 -1.85042E+04  3.75142E+03 -9.17912E+03 -9.32936E+03
 -2.47793E+03 -1.48060E+04  7.71449E+03 -5.78772E+03  6.94297E+03 -3.45831E+03  1.89949E+03  4.86241E+03
 -2.63467E+03  8.03028E+02 -5.28532E+03 -7.98073E+03  1.40780E+03 -1.17004E+04  9.23561E+03 -1.54143E+04
  1.72758E+04 -7.52025E+02  1.03132E+04  1.72436E+03  9.93955E+03  9.83744E+03  6.31749E+03  1.04034E+04
 -1.73958E+03  1.59641E+04 -1.01375E+04  1.21714E+04 -1.39190E+04  6.67306E+03 -8.33318E+03 -4.29739E+03
 -4.15116E+03 -4.30016E+03 -1.45936E+03  3.12452E+03 -3.86713E+03  5.67863E+03 -1.39351E+03  1.46639E+02
 -5.10265E+03 -3.50235E+02 -7.76793E+03 -1.43406E+04 -4.05695E+03 -1.30561E+04  2.06741E+03 -1.27214E+04
  9.34488E+03 -3.55799E+03  6.97855E+03  4.34390E+03 -1.66008E+03  2.55047E+03 -5.36198E+03  9.79636E+02
 -8.47659E+03 -6.94192E+03  6.30428E+03 -3.67454E+03  4.47175E+03 -7.73296E+03  1.09333E+04 -7.65837E+03
  9.74403E+03  6.60076E+02  8.36796E+03  6.60908E+03 -9.81137E+02  1.12784E+04 -1.02768E+04  4.77300E+03
 -6.86107E+03  4.38768E+03 -3.38397E+03  5.32906E+01  1.15920E+03 -3.52685E+01  4.65184E+03 -3.74403E+03
  2.37923E+03  2.95787E+02 -9.71548E+02  8.55942E+03 -3.17701E+03  4.95449E+03 -1.05603E+04  2.02075E+02
 -7.96489E+03 -2.69234E+03 -2.45022E+03 -5.84018E+03  5.97515E+03 -5.39835E+03  5.28991E+03 -3.74945E+03
 -2.13149E+01  5.72002E+03 -4.95787E+03  7.59285E+03 -6.81999E+03  8.42922E+02 -5.28576E+03 -3.26377E+03
  1.88869E+02 -6.93564E+03  4.74972E+03 -8.23845E+03  6.61832E+03 -5.06758E+03  4.86772E+03  3.08303E+03
  2.60887E+03  7.95051E+03  3.73282E+03  7.34130E+02 -5.96696E+03  4.44670E+03 -6.58241E+03 -5.30941E+02
 -9.94021E+03 -6.68256E+03 -4.53224E+03 -1.08421E+04 -9.43595E+02 -8.96100E+03  5.82517E+03 -5.95922E+03
  1.87212E+03  1.01679E+03 -2.06779E+03 -1.37666E+03  2.78052E+03  1.53357E+03  3.03737E+03 -5.84547E+03
  4.42291E+03 -3.41088E+03  6.77804E+03  1.53405E+03  5.48612E+03 -3.41464E+01  8.51683E+03  5.72275E+03
 -4.24045E+03  1.22888E+04 -7.63091E+03  4.46589E+03 -1.12595E+04  3.23452E+03 -9.12349E+03 -2.00666E+03
 -2.91054E+03 -7.69236E+03 -1.74068E+03 -5.19375E+03  2.69827E+03  6.75366E+01  1.17663E+03 -5.49389E+03
  2.90779E+03 -1.77326E+03  5.49334E+02 -3.38373E+03  6.15879E+03 -1.34504E+03  6.52268E+03  1.37667E+02
  1.57144E+03  4.11989E+02 -1.96055E+03  2.27112E+03  1.79870E+02 -7.53487E+02 -7.23688E+03  4.67001E+03
 -7.98131E+03  2.29811E+02 -4.32548E+03  3.78085E+02 -1.22338E+03 -1.40411E+03  5.68351E+03 -5.30566E+03
  3.91469E+03 -4.52839E+03  3.00727E+03  1.46510E+02  7.46978E+03  7.81289E+03  5.86681E+03  9.47806E+03
 -3.31786E+03  7.16681E+03 -6.23313E+03 -5.19058E+02 -1.77549E+03 -1.01346E+03 -4.83069E+02 -2.37567E+03
 -5.70675E+03 -2.14371E+03  1.07996E+03  3.22642E+03  8.29518E+02  8.34792E+02 -6.83137E+03  5.11877E+02
  5.41306E+02 -4.72497E+03 -7.98401E+02 -9.43491E+03  7.62356E+03 -4.96071E+03  6.10320E+03 -1.37307E+03
  6.07683E+03  1.24495E+02 -1.35315E+02  3.73193E+03  3.70835E+02  8.45668E+03 -3.84855E+03  2.92849E+03
 -3.96978E+03 -7.09586E+02 -3.19949E+03  5.04027E+02  2.08706E+03 -3.57978E+03 -5.19736E+03 -1.76973E+03
  8.22655E+02 -1.53003E+03  6.62437E+03  6.47975E+02  8.90487E+02  4.74347E+03  2.44422E+03  3.68246E+03
  4.33947E+02  1.80405E+03  2.33402E+03  2.47079E+03 -8.51066E+02  5.07917E+03  1.79869E+03  2.30415E+02
 -2.47978E+03  1.42767E+03 -7.04315E+02  4.75496E+03 -5.15736E+03 -3.11184E+03 -3.82092E+03  5.70902E+02
 -7.67697E+02 -4.50990E+03  1.50374E+03 -8.10281E+03  3.14542E+03 -7.05768E+03  2.06358E+03  7.16003E+02
  6.38306E+03  4.00448E+03 -1.58894E+03  3.14705E+03 -7.09670E+02  6.52062E+03 -7.95255E+02 -1.09372E+03
  4.14307E+02 -5.42892E+03 -1.09915E+02  1.00436E+03  2.59113E+03  1.72682E+03  2.78174E+03  1.24101E+03
  3.14847E+03 -1.25657E+03 -1.09903E+03 -1.28709E+03 -5.79126E+01  2.35725E+03 -9.54020E+02 -1.46307E+03
  1.61198E+03 -7.48511E+02 -9.25580E+02  1.50308E+03 -1.13873E+03 -4.32701E+02  1.46227E+03  4.14100E+03
 -3.01726E+03  4.84318E+03 -3.54731E+03  3.26124E+03 -8.72077E+03 -4.13836E+03 -8.27398E+02 -4.94361E+03
  6.22295E+03 -3.05127E+03 -6.29161E+02  2.97842E+03 -3.64016E+02  5.97972E+02 -1.18192E+03  4.28272E+03
 -1.50310E+03 -2.12492E+02 -1.23226E+03 -4.34003E+03 -2.40950E+03 -5.61553E+03  2.37106E+03 -8.94131E+02
  2.77705E+03 -4.10409E+03 -3.36328E+03  5.08992E+02  3.10365E+03  2.42199E+03 -1.15975E+03  7.41180E+02
 -3.64402E+03 -4.39278E+02  5.41922E+03 -1.28065E+03  2.99160E+03  3.80251E+03  6.14303E+02 -4.97443E+02
  1.73295E+03  4.29712E+02  3.51814E+03  2.46297E+03  3.61198E+03  3.76640E+03 -4.93869E+03  4.58982E+03
 -9.32783E+02 -1.47707E+02 -3.76450E+03  1.18669E+03 -6.43641E+02 -2.65992E+03  2.59320E+03 -2.88242E+03
  3.65179E+03  4.76467E+02 -6.11251E+02  6.65309E+03  4.93303E+02  4.48911E+03 -2.18638E+03 -1.05716E+03
 -1.19882E+03  3.41581E+03 -4.02815E+03  2.51874E+03 -9.84357E+01 -3.85972E+03  1.14864E+03  2.64476E+03
 -9.69647E+02  9.54393E+02  1.34484E+03  2.15206E+03 -3.68082E+03 -1.73867E+03 -2.54675E+03  1.29459E+03
 -1.47172E+03  1.91653E+03 -2.47611E+03 -6.69982E+03  1.67089E+03 -2.74508E+03  3.39619E+03  9.23321E+01
  1.97172E+03  4.92833E+02 -3.29562E+02  1.34342E+03 -1.07289E+02  1.00611E+03  1.70090E+03  2.39100E+03
  1.35769E+03  3.48086E+03 -2.52535E+03 -4.31552E+02  3.62267E+03 -3.92796E+02 -2.47324E+03 -3.11295E+03
 -6.88571E+02  1.20078E+03 -2.34438E+03  9.81234E+02  1.67278E+03 -7.36205E+02  1.58047E+02 -4.39523E+00
  5.31279E+03 -3.54316E+03  1.52790E+03  5.08343E+01 -1.99368E+03  8.07631E+02  7.74287E+02  7.04431E+02
  9.94533E+02  1.32897E+03 -1.71706E+03  4.30223E+03 -4.24822E+03  5.88203E+02  4.89465E+01 -1.98970E+03
  1.21943E+03 -3.03918E+03 -5.86793E+03 -2.93908E+03  3.61693E+03 -1.18666E+03  1.45740E+02  3.93245E+02
 -3.72156E+03  1.66565E+02  9.81462E+02  3.47089E+03  1.68000E+03  1.73632E+03  1.20525E+03 -3.39500E+03
 -2.08267E+02 -1.72258E+03  8.10460E+02 -6.81406E+02 -1.98179E+03  5.03754E+03  4.93085E+03  2.98037E+03
 -2.64746E+03 -4.01364E+03  1.31196E+03 -3.06503E+03 -4.15375E+03  7.35845E+01 -1.50579E+03 -6.42843E+02
  3.78976E+02 -4.16969E+03  2.26291E+03 -4.08121E+03  3.30430E+03 -8.65661E+03  3.66855E+03 -1.95005E+03
  1.17479E+03  2.38816E+02 -6.18562E+02  2.85401E+03  4.24191E+03  2.50622E+03 -1.93110E+03  1.65566E+03
 -2.17143E+02  1.22516E+03  3.19183E+03 -1.20500E+03 -4.75135E+03  4.29382E+03 -6.72645E+02  2.62046E+03
  6.75106E+02 -1.64566E+03  1.33280E+03  7.37311E+02 -4.83541E+01 -7.80122E+02  7.53035E+03 -3.24071E+03
  2.88594E+01 -1.77053E+03 -3.88667E+03  1.65483E+03 -3.85770E+03  4.27050E+03 -2.02074E+03  8.23912E+02
