 $NMID ID='MM_0lb_SNR50_8hz_g45_94.RAW', FMTDAT='(8E13.5)'
 TRAMP=1., VOLUME=1. $END
  3.07419E+05 -5.67069E+03  3.30462E+05  2.47735E+05  8.43490E+04  3.43226E+05 -1.37455E+05  2.56797E+05
 -1.85052E+05  8.42900E+04 -1.16275E+05 -3.39088E+04  4.08894E+03 -5.20287E+04  5.25504E+04 -5.26071E+03
  3.29651E+04  4.93537E+04 -2.60012E+04  7.39031E+04 -6.30416E+04  6.34948E+04 -8.49500E+04  2.99752E+04
 -8.13604E+04 -1.34923E+04 -5.54913E+04 -5.06076E+04 -1.50648E+04 -7.33894E+04  2.36202E+04 -4.82354E+04
  4.26801E+04  2.04986E+02  1.45493E+04  4.62315E+04 -3.85954E+04  5.24470E+04 -6.66008E+04  1.44323E+03
 -6.29758E+04 -5.96082E+04 -5.96626E+03 -8.12115E+04  4.39177E+04 -5.35995E+04  5.14901E+04 -2.07676E+04
  4.16542E+04  9.21074E+03  3.20656E+04  2.49505E+04  2.14405E+04  2.74797E+04 -1.05059E+04  1.94103E+04
 -2.24720E+04  1.25237E+04 -1.72890E+04 -6.90208E+03  9.36219E+03 -8.38052E+03  2.74613E+04  1.70847E+04
  5.02154E+03  4.26723E+04 -4.58144E+04  3.12459E+04 -7.02994E+04 -4.23265E+03 -5.48552E+04 -3.93479E+04
 -5.17051E+03 -6.70364E+04  4.34978E+04 -4.79814E+04  6.47075E+04 -2.64947E+03  4.02016E+04  2.90252E+04
 -7.50366E+03  4.42123E+04 -2.39710E+04  2.28860E+04 -3.02042E+04 -8.14466E+03 -2.04612E+04 -9.95905E+03
 -6.63202E+03 -1.64071E+04 -8.25729E+02 -1.92315E+04  7.42283E+03 -2.02625E+04  1.58436E+04 -1.68743E+04
  1.22800E+04  6.55004E+03 -1.37127E+04  3.11754E+03 -2.31647E+04 -5.76064E+03 -6.24557E+03 -4.14149E+04
  2.36540E+04 -4.12418E+04  5.02637E+04 -2.44943E+04  4.82295E+04  2.07232E+04  1.44592E+04  5.44792E+04
 -1.56053E+04  3.68424E+04 -3.13347E+04  4.94416E+03 -1.42957E+04 -2.71463E+04  2.66552E+04 -3.69280E+04
  4.51513E+04 -1.94119E+04  4.36426E+04  3.08497E+04  2.09457E+04  5.06684E+04 -3.43240E+03  5.57160E+04
 -3.47698E+04  4.14189E+04 -4.76748E+04  1.42876E+04 -4.93135E+04 -1.56606E+04 -3.06021E+04 -4.75498E+04
  4.91443E+03 -4.79991E+04  3.95526E+04 -1.62445E+04  2.74988E+04  8.55526E+03  5.54899E+03  1.94628E+04
 -1.53216E+04  6.83066E+03 -1.06210E+04 -5.91631E+03  8.77407E+03 -1.27666E+04  2.15203E+04  4.83833E+03
  1.51233E+04  2.19741E+04 -5.76937E+03  2.98735E+04 -2.38764E+04  1.22983E+04 -4.21830E+04 -3.54877E+03
 -3.04887E+04 -1.79844E+04 -1.25340E+04 -2.69644E+04  3.34694E+03 -2.60416E+04  2.24179E+04 -2.06531E+04
  3.00533E+04 -1.55607E+04  3.43688E+04  1.47890E+04  2.08071E+04  2.59368E+04  8.68231E+02  4.07535E+04
 -1.74899E+04  2.78754E+04 -3.61731E+04  6.93280E+03 -3.00588E+04 -1.17078E+04 -4.78579E+03 -1.05934E+04
  1.64275E+03  2.18977E+03 -1.55250E+04  1.73046E+03 -1.18401E+04  2.86244E+02 -2.47273E+04 -5.51809E+03
 -1.42791E+04 -2.42995E+04  4.69597E+03 -2.39424E+04  1.47688E+04 -1.68319E+04  2.30075E+04 -1.91698E+03
  1.99104E+04  1.57109E+04  4.83498E+03  2.43853E+04 -1.65655E+04  1.23351E+04 -2.50033E+04 -8.33754E+03
 -1.81988E+04 -2.26349E+04 -5.65848E+03 -3.33927E+04  1.54575E+04 -2.31838E+04  1.83248E+04 -6.35247E+03
  2.09170E+04 -2.37189E+03  1.84191E+04  8.07900E+03  1.24850E+04 -1.03933E+02  1.69935E+04  5.18438E+03
  1.70408E+04  7.70056E+03  2.61694E+04  1.97575E+04  2.11906E+04  3.61339E+04 -8.72977E+03  4.49147E+04
 -3.94746E+04  3.97126E+04 -3.93758E+04  2.18973E+04 -4.19401E+04 -2.35652E+03 -4.32541E+04 -3.17325E+04
 -1.75800E+04 -3.89004E+04  1.25708E+04 -3.68489E+04  2.12360E+04 -2.20060E+04  2.28900E+04  1.01905E+04
  5.85078E+03  1.99572E+04 -1.44538E+04  1.36121E+04 -1.72120E+04  1.74408E+03 -2.08892E+04 -1.32228E+04
  2.65153E+03 -2.32686E+04  1.15722E+04 -7.25224E+03  1.06782E+04  9.65377E+02 -1.54034E+03  9.85213E+03
 -8.07697E+03  9.87395E+03 -1.00568E+04 -7.02941E+03 -5.24715E+02 -1.61170E+04  1.70078E+04 -2.19476E+04
  2.53181E+04 -7.27350E+03  2.81998E+04  4.32425E+03  2.02119E+04  1.90991E+04  1.58260E+04  2.64057E+04
 -8.17921E+03  3.34824E+04 -1.52313E+04  1.72180E+04 -2.10914E+04  8.51513E+03 -1.87891E+04 -9.80087E+03
  5.23416E+02 -8.64874E+03 -3.38914E+03  3.10146E+03  6.62100E+02  6.39817E+03 -6.49735E+03 -2.20229E+03
 -1.72825E+04  3.76250E+03 -1.41787E+04 -1.50233E+04 -8.29990E+03 -2.29719E+04  6.16969E+03 -1.45819E+04
  1.74303E+04 -9.67868E+03  9.71025E+03  6.25818E+03 -1.88693E+03  8.21083E+03 -8.18114E+03  3.76594E+03
 -3.55647E+03 -1.48353E+04  1.24308E+03 -1.60365E+04  1.01294E+04 -1.34013E+04  1.74918E+04 -8.69788E+03
  2.21849E+04 -8.27931E+01  1.79926E+04  1.50361E+04  3.00468E+03  2.13652E+04 -3.51721E+03  1.34926E+04
 -1.50303E+04  2.80562E+03 -7.51130E+03 -9.58221E+03  7.17007E+03 -6.96047E+03  1.62942E+03  2.83773E+03
 -3.09423E+01  8.83231E+03  7.74708E+03  1.37019E+04 -2.23589E+03  1.64626E+04 -1.84417E+04  5.80476E+03
 -1.16363E+04 -2.28904E+03 -1.10296E+03 -1.52412E+04  6.13224E+03 -7.34347E+03  2.03810E+03  7.83374E+03
 -4.22102E+02  9.05361E+03 -1.49646E+04  1.39122E+04 -1.44688E+04  1.41582E+04 -1.76710E+04 -8.21698E+03
 -1.27170E+04 -1.65967E+04  5.04483E+03 -2.61314E+04  1.84464E+04 -7.46267E+03  1.73730E+04 -8.40322E+02
  1.34015E+04  1.74783E+04  4.01959E+01  2.12926E+04 -6.03395E+03  1.34768E+04 -1.35573E+04 -6.58634E+02
 -1.44755E+04 -6.50718E+03 -1.02146E+03 -1.30443E+04  5.91436E+03 -1.50896E+04  7.78200E+03  4.97712E+03
  3.52297E+03  6.40614E+02 -7.05160E+03  6.76959E+03 -4.18439E+03 -3.27532E+02  2.56417E+03 -7.97678E+03
  1.88411E+04 -1.40448E+03  1.59003E+04  3.24655E+03  1.74956E+04  1.24791E+04  5.51094E+03  3.23053E+04
 -2.91224E+03  2.29543E+04 -2.50143E+04  2.08104E+04 -2.71388E+04  1.36243E+03 -1.81532E+04 -6.68303E+03
 -1.12550E+04 -2.09733E+04  5.54188E+01 -1.88882E+04  1.11229E+04 -5.06512E+03  6.19837E+03  7.87425E+02
 -1.31992E+03 -3.52071E+03  2.25733E+03 -2.79377E+03  1.15101E+04 -5.12388E+03  7.54765E+03 -8.35579E+02
  1.25117E+04  1.08584E+04  5.19311E+03  9.05159E+03  5.03814E+02  1.27411E+04 -1.23168E+04  6.36764E+03
 -1.91362E+04  5.27428E+03 -1.13248E+04 -9.57405E+03  1.58041E+03 -2.07542E+04  1.47813E+04 -1.72438E+04
  1.87122E+04 -4.12714E+03  2.07435E+04  5.65977E+02  1.27028E+04  1.24625E+04  4.23137E+03  1.83944E+04
 -1.09685E+04  1.39436E+04 -1.57330E+04  7.35050E+02 -4.19735E+03 -2.65159E+03 -6.63852E+03 -1.71749E+03
 -2.24093E+03 -3.13130E+03 -6.50586E+03 -2.94752E+01 -1.11202E+04 -3.99769E+03 -1.73026E+04 -4.91680E+02
 -5.60056E+03 -1.17137E+04 -2.58641E+03 -1.40544E+04  7.34144E+03 -1.16795E+04  1.37899E+04 -5.23675E+03
  1.95122E+04  6.88326E+03  9.61025E+03  1.01195E+04 -1.03596E+04  1.59590E+04 -4.22068E+03  6.37273E+03
 -1.60293E+04 -3.63069E+03 -1.04668E+04 -1.31687E+04 -5.51495E+03 -9.17872E+03  3.58732E+03 -4.11042E+03
  1.85932E+04 -1.57844E+03  1.02699E+04  1.14712E+04  3.52436E+03  5.02555E+03  2.26563E+03 -1.08358E+03
  8.45911E+03  8.37916E+02  2.19464E+03 -1.46991E+03  8.55267E+03  5.45321E+03 -3.92062E+01  1.25654E+04
 -2.38376E+03  1.49444E+04 -1.43620E+04  7.64010E+03 -1.65315E+04  8.43136E+03 -1.09193E+04 -6.52049E+03
 -5.10827E+03 -1.35720E+04 -6.10400E+03 -1.65703E+04  1.19003E+04 -1.10055E+04  1.87773E+04 -1.47989E+03
  1.24432E+04  9.55979E+03  1.33602E+03  1.32747E+04  1.89877E+03  8.80267E+03 -4.53455E+03 -2.14310E+03
 -5.40732E+03 -1.56337E+04 -1.27164E+03 -7.03859E+03  3.46047E+03 -7.55681E+01  8.80692E+03  2.86686E+03
  6.38707E+02  1.29482E+03  2.84030E+01  4.40896E+03  5.27174E+03 -3.87269E+01 -3.80966E+03  4.54365E+01
  5.25904E+03  5.75345E+02  1.39293E+04  1.23250E+03  5.24475E+03  1.24165E+04  5.61965E+03  1.82481E+04
 -5.18689E+03  7.94214E+02 -1.53270E+04 -2.12232E+03 -4.77305E+03 -3.78480E+03 -3.69797E+03 -7.42668E+03
  2.48984E+01 -5.19585E+03 -4.92468E+02 -4.09288E+03  1.77828E+03  2.08294E+03 -3.75290E+03  8.83492E+03
 -1.37507E+04  4.38610E+03 -5.57824E+03 -2.83264E+03 -2.27130E+03 -1.11962E+04  1.76902E+03 -1.52277E+04
  4.37821E+03 -4.57464E+03  7.44315E+03 -2.33244E+03  4.94257E+03 -6.29391E+01 -1.68468E+03 -1.90590E+03
 -6.71016E+03  5.03485E+03 -1.65739E+03 -1.52670E+03  2.08282E+03 -5.60187E+03  9.37211E+03 -3.91186E+03
  1.47006E+04 -4.22703E+03  8.90023E+03  8.64610E+03  9.90597E+02  6.70965E+03 -5.95941E+03  9.80415E+03
 -1.49382E+04  9.29588E+03 -6.53189E+03  1.08897E+04 -5.46857E+03 -3.68413E+03  2.90064E+02 -1.15181E+04
  1.01716E+04 -4.83814E+03  5.66856E+03  4.79321E+03  7.02840E+03  8.44368E+03 -3.71119E+03  4.79279E+03
 -3.84712E+03  9.91080E+03 -3.95405E+03  2.02130E+03  9.91011E+02  8.22552E+03  3.35415E+03  3.85736E+03
 -2.59609E+03  8.82600E+02 -4.74337E+03  2.72714E+03 -1.35742E+04 -4.98757E+03 -1.25056E+04 -9.83611E+03
 -1.44784E+03 -1.35533E+04  2.75167E+03 -2.60810E+04  1.69270E+04 -9.00600E+03  1.76640E+04 -4.74541E+03
  1.79456E+04 -3.56763E+03  1.74927E+04  1.83159E+04 -2.86295E+03  6.51237E+03 -1.38891E+03  7.40198E+03
 -3.97937E+03  3.62233E+03  5.50627E+02 -1.27733E+03  1.38832E+02  3.03309E+03 -3.23884E+03  9.53734E+03
 -2.25179E+03 -1.34231E+03  4.65426E+03  1.23822E+03  4.60795E+03 -2.72930E+03 -6.89249E+03 -2.18277E+03
  1.07742E+04 -5.96540E+03  1.29705E+04 -1.06335E+03  1.28539E+04  6.18910E+03 -3.77751E+03  1.30625E+04
 -6.92549E+03  1.91183E+04 -1.18196E+04  1.42451E+04 -1.63388E+04 -1.55149E+03 -3.99984E+03 -1.34862E+04
  7.48836E+01 -9.62204E+03  8.97691E+03 -1.04517E+04  1.01468E+04 -4.04585E+02  8.21266E+03 -8.17763E+03
  2.86120E+03  1.40983E+03  1.71666E+02 -5.81425E+03  9.15771E+02  8.37976E+03 -2.62519E+02  5.43254E+02
  1.12286E+03  6.45227E+03  3.73305E+03  3.52254E+03 -9.86382E+02  3.91580E+03  1.44505E+03  9.99668E+03
  1.30707E+03  9.28221E+03 -5.45732E+03  4.05512E+03 -9.11087E+03 -5.71793E+03  2.10086E+03 -1.24669E+04
  9.70992E+03 -1.16208E+04  1.00576E+04 -3.19965E+03  1.47870E+04  1.45576E+03  4.45690E+03  9.02613E+03
 -2.30906E+02  1.33639E+04 -4.54255E+03  1.37900E+03  1.00408E+03  1.52197E+03 -2.43100E+03  8.10301E+02
 -2.60870E+03 -5.66170E+03  2.99376E+03  6.26137E+03 -1.00335E+04  2.75406E+03 -4.40080E+03 -2.73121E+03
 -4.50881E+03 -7.45618E+03  4.28797E+03 -2.30938E+03  8.47185E+03 -1.08637E+04  5.61574E+03 -4.03206E+03
  1.07274E+04  1.61904E+02 -2.25845E+03  8.29880E+03 -2.66848E+03  1.48280E+04 -8.27573E+03  6.62229E+03
