 $NMID ID='MM_0lb_SNR50_16hz_g55_22.RAW', FMTDAT='(8E13.5)'
 TRAMP=1., VOLUME=1. $END
  3.13485E+05  3.37017E+03  3.37801E+05  2.51299E+05  9.02869E+04  3.32544E+05 -1.34854E+05  2.51716E+05
 -1.87109E+05  8.20604E+04 -1.12783E+05 -3.14151E+04 -3.78454E+02 -5.14817E+04  5.42027E+04  6.65502E+02
  3.69497E+04  5.48288E+04 -1.81694E+04  7.49494E+04 -5.95737E+04  6.44279E+04 -8.17302E+04  3.33682E+04
 -7.92132E+04 -1.06338E+04 -5.84474E+04 -4.95212E+04 -2.10554E+04 -7.08695E+04  2.39373E+04 -4.77270E+04
  4.31922E+04  4.59722E+02  1.53870E+04  5.24156E+04 -3.57400E+04  4.61846E+04 -6.98978E+04  1.07017E+03
 -5.30488E+04 -5.74498E+04 -5.80681E+03 -7.82861E+04  3.36094E+04 -5.96336E+04  4.95184E+04 -1.50310E+04
  4.05710E+04  9.24630E+03  3.42049E+04  2.48882E+04  2.01708E+04  2.75355E+04 -1.09822E+03  3.05886E+04
 -2.24789E+04  1.80826E+04 -1.80469E+04 -6.36114E+03 -1.97838E+03 -6.91815E+03  2.41219E+04  1.22193E+04
  9.13789E+03  3.45611E+04 -3.14607E+04  3.71395E+04 -6.62226E+04 -4.63232E+02 -5.98139E+04 -4.18459E+04
 -1.36351E+04 -5.67058E+04  3.99537E+04 -4.23686E+04  6.05949E+04  2.06243E+03  3.52248E+04  3.06137E+04
 -1.12755E+04  3.29205E+04 -2.98198E+04  2.09008E+04 -3.22854E+04 -1.61487E+03 -1.85101E+04 -9.48437E+03
 -5.26966E+03 -9.43276E+03  6.68470E+02 -1.95196E+04  8.07257E+03 -2.46701E+04  1.57324E+04 -1.24141E+04
  1.36700E+04  6.43657E+03 -6.04980E+03  1.21410E+04 -2.06667E+04 -2.85175E+03 -4.95995E+03 -3.20314E+04
  2.44062E+04 -4.26593E+04  4.91961E+04 -1.49961E+04  4.47610E+04  1.30895E+04  1.42930E+04  4.23210E+04
 -1.82220E+04  3.10884E+04 -2.62693E+04  3.85950E+03 -9.63511E+03 -2.65491E+04  2.53055E+04 -3.62172E+04
  4.15185E+04 -1.37175E+04  3.80812E+04  2.27604E+04  1.68740E+04  4.57427E+04 -7.00728E+03  4.77411E+04
 -3.47732E+04  3.40432E+04 -4.06484E+04  9.18645E+03 -3.94805E+04 -1.75042E+04 -1.82414E+04 -4.10206E+04
  5.31325E+03 -4.28343E+04  3.19978E+04 -1.63506E+04  2.82527E+04  6.27560E+03  4.89927E+03  2.09289E+04
 -1.26633E+04  1.08914E+04 -1.36207E+04 -1.09876E+04  7.27373E+03 -1.03388E+04  1.13451E+04  1.68752E+03
  5.08469E+03  1.94578E+04 -1.86163E+03  2.43785E+04 -2.28393E+04  1.26941E+04 -2.42569E+04  1.15148E+03
 -1.94545E+04 -1.41313E+04 -8.65963E+03 -1.85923E+04  3.28221E+03 -2.25399E+04  1.65727E+04 -1.19111E+04
  2.54010E+04 -1.81762E+04  3.34702E+04 -1.69436E+02  2.04378E+04  1.87847E+04 -1.69474E+02  3.51431E+04
 -2.33542E+04  2.78178E+04 -3.26819E+04  1.04909E+04 -2.17195E+04 -1.44733E+04 -8.49862E+03 -1.32698E+04
 -4.54539E+02 -3.98852E+03 -9.92973E+02  7.93695E+03 -1.29465E+04  8.68836E+03 -2.00875E+04 -7.22498E+03
 -1.59664E+04 -1.82853E+04  4.31192E+03 -2.25308E+04  1.88341E+04 -1.51945E+04  1.75765E+04 -1.46403E+03
  1.33572E+04  1.18475E+04  1.60681E+02  1.92387E+04 -1.30550E+04  1.07755E+04 -1.74767E+04 -3.52020E+03
 -1.12882E+04 -1.24208E+04  3.75444E+03 -1.75363E+04  8.07525E+03 -2.12124E+04  1.71510E+04 -3.88263E+03
  1.72087E+04 -1.47055E+03  9.97123E+03  4.74328E+03  6.39099E+03  5.24293E+02  5.50239E+03 -3.31948E+03
  1.34864E+04  3.39607E+03  1.75362E+04  1.47176E+04  1.20843E+04  2.93470E+04 -3.19841E+03  3.42142E+04
 -1.70168E+04  2.59670E+04 -3.17343E+04  1.39803E+04 -2.59350E+04 -5.32626E+03 -2.72201E+04 -1.58689E+04
 -9.67054E+03 -3.08178E+04  6.98119E+03 -2.11407E+04  1.61342E+04 -1.10446E+04  2.16460E+04  3.16820E+03
  8.47181E+03  1.41418E+04 -7.64788E+03  1.14430E+04 -1.47490E+04  4.50409E+03 -8.44954E+03 -9.33309E+03
 -1.73105E+03 -1.05053E+04  4.44630E+03 -1.71338E+04  5.97950E+03 -1.12355E+03 -1.55946E+03  9.89729E+03
 -2.07428E+03  1.92225E+03 -7.65239E+03 -4.16601E+03  3.43128E+03 -1.16730E+04  8.92846E+03 -1.08277E+04
  1.42342E+04 -3.27192E+03  1.49771E+04  8.61805E+01  1.17774E+04  1.11326E+04  5.08687E+03  1.53008E+04
 -2.12482E+03  1.99283E+04 -1.11391E+04  1.52174E+04 -1.68685E+04  3.88692E+03 -1.32715E+04  5.04641E+02
 -6.06689E+03 -1.20366E+04 -1.97767E+03  3.93808E+03 -1.78868E+03  3.84560E+03 -3.96363E+03  3.06154E+03
 -8.18189E+03 -1.15531E+03 -7.28841E+03 -1.01703E+04 -2.32868E+03 -1.38290E+04  7.60964E+03 -1.28875E+04
  7.38320E+03 -6.46851E+03  8.93926E+03  5.84273E+03  1.48390E+03  4.79052E+03 -4.74278E+03 -1.81336E+03
 -4.21565E+03  9.05878E+02  2.84065E+02 -1.16500E+04  3.98985E+03 -1.05556E+04  1.23635E+04 -7.23165E+03
  1.33349E+04  3.56455E+03  1.31169E+04  4.37792E+03 -5.53489E+02  1.05666E+04 -8.03388E+03  9.78707E+03
 -6.30996E+03  7.67449E+03 -5.51382E+03 -2.69309E+03 -3.04047E+03  5.00504E+03  3.84924E+03 -5.16684E+02
  8.99327E+03  3.99075E+03  1.65503E+03  1.87405E+03 -8.56649E+03  8.65535E+03 -1.20928E+04  2.91220E+03
 -4.61086E+03 -6.06560E+03 -4.02543E+02 -9.34605E+03 -1.70626E+02  1.61338E+03  7.44265E+03  2.54302E+03
 -4.40482E+03  1.07771E+04 -1.45559E+03  8.90457E+03 -7.17941E+03  3.17095E+03 -7.74159E+03 -4.63918E+03
 -1.78590E+03 -1.13346E+04 -2.09276E+03 -1.18414E+04  6.33443E+03 -5.36351E+03  7.47634E+03  3.94084E+03
  6.21766E+03  6.83173E+03 -2.72372E+03  7.81428E+03 -6.25803E+03  5.20804E+03 -3.00548E+03 -7.12994E+01
 -8.46073E+03 -9.90094E+03 -6.30363E+02 -6.35577E+03  4.51054E+03 -6.05852E+03  4.16898E+03 -8.32933E+02
  2.24808E+03  8.42686E+02 -1.23302E+03  2.29667E+03  2.96687E+03 -5.14097E+03 -4.67641E+03 -5.45349E+03
  2.25088E+03 -3.55014E+03  8.15095E+03 -8.26218E+02  1.04667E+04  1.02170E+04  4.92904E+03  7.83142E+03
  3.14387E+03  1.50586E+04 -1.21610E+04  7.40515E+03 -1.55213E+04  3.05464E+03 -1.38070E+04 -5.26080E+03
 -6.74234E+03 -9.37019E+03 -1.11770E+03 -3.09344E+03  7.13341E+03 -3.75020E+03  5.88437E+03 -7.84261E+03
 -3.72142E+02 -1.02419E+03  4.72010E+03 -2.63217E+03  1.87419E+03 -9.51161E+02  3.84257E+03 -2.04041E+03
  3.66509E+03  2.51319E+03  6.30977E+03  7.23719E+03 -2.54242E+03  6.23523E+03 -8.15118E+03  5.49802E+03
 -7.63457E+03 -3.95665E+03 -1.45395E+03 -4.59643E+03 -4.75078E+03 -9.50937E+03  2.43312E+03 -7.83613E+03
  6.79379E+03 -9.04707E+03  1.07849E+04  1.55058E+03  1.04582E+04  7.78034E+03 -4.72587E+02  1.05036E+04
 -9.32913E+01  1.11087E+04 -7.55795E+03  2.00682E+03 -5.47942E+03  1.10888E+03  2.32703E+03  4.60510E+03
 -2.18767E+03  3.05416E+03  6.04757E+02  7.02232E+03 -2.23947E+03 -4.73078E+03 -4.40022E+03  1.56687E+03
 -4.49515E+03 -5.62827E+03  3.82529E+02 -4.91381E+03  1.31634E+03 -8.39426E+03  9.13606E+02  5.01449E+02
  1.12233E+04  1.10024E+03  1.98918E+03  8.82816E+03 -1.12706E+03  1.29226E+04 -4.54465E+03  8.61092E+02
 -4.86536E+03 -2.92784E+02 -6.40954E+03 -8.95121E+03  4.81040E+02 -2.93164E+03  3.00768E+03 -3.73290E+03
  5.91416E+03 -4.55193E+03  1.50468E+03 -1.52017E+03  8.77019E+02  7.48039E+03 -2.68888E+03  2.16590E+03
  2.74410E+03  3.33850E+03  2.23380E+03  1.31716E+03 -1.37681E+03  1.03244E+03 -3.72215E+02  8.72082E+03
 -2.76463E+03  2.66169E+03 -1.21321E+03  8.39076E+03 -2.89124E+03  1.79156E+02 -6.78159E+03 -2.20521E+03
 -2.36039E+03 -5.84183E+03  3.20133E+03 -7.85982E+03  1.89130E+03 -3.23912E+03  7.39587E+03 -6.97604E+03
  3.47663E+03  2.47940E+02 -3.27796E+02  4.29706E+03 -1.92052E+03 -1.10318E+03 -2.41611E+03 -1.37628E+03
 -5.16380E+03 -5.69753E+02  1.28641E+03 -3.58648E+03 -9.06883E+02 -5.22442E+02  4.06276E+03 -1.68671E+03
  1.42689E+03  3.34294E+02  2.22201E+03  6.78968E+02 -4.44744E+02  4.71823E+03  1.33143E+03 -2.60813E+03
  2.07871E+03  3.47723E+03 -2.27891E+02 -8.99976E+02 -4.43598E+03  4.28141E+03 -5.77804E+01  1.31680E+03
 -7.83046E+03  2.68786E+03 -1.81293E+03  2.74236E+03 -3.30894E+03 -5.33933E+03  1.60740E+02  2.85518E+03
 -1.06687E+03 -2.20430E+03  6.38431E+02  4.05712E+02  1.76526E+03  2.24868E+03 -1.01282E+03  1.36121E+03
 -4.90611E+03 -1.75836E+03 -1.71513E+03 -5.69355E+02  2.14784E+03 -2.54566E+02 -2.03322E+01 -4.80468E+02
 -1.16267E+03  2.93242E+02 -8.92015E+03  1.35779E+02  4.06214E+03  2.65088E+03  8.71211E+02  3.44451E+03
  1.69393E+03  2.67394E+03 -1.40569E+03 -4.51954E+03  3.20570E+03  2.74868E+03 -7.96214E+02 -1.32269E+02
  2.84018E+03 -2.49033E+02  2.11247E+03  5.19150E+03 -2.81398E+03  6.70825E+02 -3.75197E+03  7.09301E+03
 -5.56665E+03  1.96733E+03  5.85119E+01 -5.09401E+03 -4.92163E+03 -2.38255E+03 -2.12438E+02 -1.45331E+03
  1.36713E+03 -5.64526E+03 -6.70328E+02 -1.08651E+03 -1.58129E+03 -7.41518E+02  9.91807E+02  1.86633E+02
 -5.99110E+03  1.99585E+03 -5.13738E+01  1.01371E+03 -9.48295E+02 -3.38817E+03 -3.59255E+03 -4.06221E+02
  3.17105E+03  2.27732E+03  2.60715E+03 -3.83954E+03 -2.51910E+03 -2.19220E+03 -3.99116E+03  3.74790E+02
 -1.48394E+03 -5.53025E+03 -5.00954E+02 -1.89956E+03  2.38457E+01 -1.82718E+03  5.55603E+03 -2.18859E+03
  5.71103E+03 -1.92553E+03 -7.94756E+02  3.37058E+03 -9.66311E+02  4.49049E+03 -3.92128E+03  2.27988E+03
  1.69524E+01 -2.19870E+03 -1.07437E+03  2.26719E+03  2.18964E+03  3.43816E+03 -4.79487E+03  1.93719E+03
  2.70702E+03 -4.26156E+03 -1.41110E+03  2.76348E+03 -1.20786E+03 -7.72605E+02 -3.79121E+03 -1.70060E+03
  1.69401E+03 -3.16666E+03  1.44092E+03 -1.03799E+03  4.43038E+03 -1.27015E+03 -4.29337E+03  3.59770E+03
 -1.53574E+03  6.47027E+03 -4.81360E+03  1.55732E+03 -6.17631E+03  1.24045E+03  7.83734E+02  2.26291E+03
 -4.28368E+03 -1.21142E+03 -1.84889E+03 -7.37733E+03  1.05948E+03 -4.43753E+02  5.43091E+03  1.59716E+03
  3.31861E+02  8.89810E+02  2.13112E+03 -3.59616E+02 -2.88430E+02 -1.44453E+03  3.77943E+03  4.00332E+03
 -2.37620E+03  1.08107E+03  1.17068E+03  4.80658E+03  9.85009E+02  7.37950E+02 -5.54024E+03  1.52027E+03
 -2.19278E+03 -2.49980E+03 -4.53425E+03 -2.71900E+03  1.01313E+03 -9.53709E+02 -7.97136E+02 -4.40205E+03
 -3.78039E+02 -2.67375E+03  2.02465E+03 -5.72493E+03  5.17902E+03  3.32264E+03 -1.12087E+03 -6.20925E+02
  7.97668E+02  2.54011E+03  1.28412E+03  3.33319E+03 -4.26194E+02 -1.38862E+03 -3.36865E+01  1.72499E+03
 -1.72216E+03 -3.13783E+02 -2.80212E+03  1.72811E+02 -1.86865E+03 -2.69924E+03 -1.85513E+03 -4.24079E+03
 -2.00510E+03  1.29841E+03 -1.39133E+03  4.01526E+02 -1.73636E+02 -2.15825E+03 -1.13657E+03  2.10934E+03
  3.41376E+03 -2.12128E+03 -3.18314E+02  2.17523E+03 -3.60267E+02  3.53886E+02 -1.24796E+03  7.92453E+02
