 $NMID ID='MM_0lb_SNR50_20hz_g40_69.RAW', FMTDAT='(8E13.5)'
 TRAMP=1., VOLUME=1. $END
  3.06489E+05 -1.62338E+03  3.38103E+05  2.51174E+05  8.16927E+04  3.35552E+05 -1.34423E+05  2.49773E+05
 -1.93489E+05  8.01479E+04 -1.13970E+05 -3.83789E+04  8.82972E+02 -4.96045E+04  5.48097E+04  1.83839E+02
  3.28392E+04  5.23727E+04 -1.53128E+04  7.25601E+04 -5.86268E+04  6.37030E+04 -8.29403E+04  2.84164E+04
 -8.24433E+04 -7.93538E+03 -5.40144E+04 -4.98356E+04 -1.18743E+04 -7.00407E+04  2.56251E+04 -4.69558E+04
  3.89521E+04  2.60111E+03  1.62037E+04  4.60530E+04 -3.88955E+04  4.26819E+04 -6.78955E+04 -1.02935E+03
 -5.12325E+04 -5.53027E+04 -1.22873E+04 -6.85082E+04  3.37950E+04 -4.69435E+04  4.40844E+04 -1.76614E+04
  4.22183E+04  9.33503E+03  3.10254E+04  2.29131E+04  1.36482E+04  2.86659E+04 -3.42887E+03  2.75605E+04
 -1.96392E+04  1.33183E+04 -2.00215E+04 -4.14388E+03  2.53046E+03 -4.41620E+03  1.91672E+04  1.17684E+04
  8.53781E+03  3.08284E+04 -2.92818E+04  2.88408E+04 -5.82030E+04  2.23021E+03 -4.98991E+04 -4.12355E+04
 -1.25972E+04 -5.88556E+04  3.53001E+04 -4.18439E+04  5.44668E+04  1.46313E+03  3.25707E+04  2.77786E+04
 -9.98503E+03  3.33468E+04 -2.96304E+04  1.46996E+04 -2.42601E+04 -1.20261E+03 -1.03897E+04 -9.51634E+03
 -9.97125E+03 -9.78473E+03 -7.52820E+02 -1.53780E+04  6.91802E+03 -2.50907E+04  1.97827E+04 -1.61140E+04
  1.42377E+04  3.00814E+03 -4.17890E+03  1.33969E+04 -1.98756E+04  2.14512E+01 -8.11464E+03 -3.12032E+04
  2.19713E+04 -3.98670E+04  4.46474E+04 -1.90777E+04  4.15304E+04  1.63096E+04  1.40594E+04  4.08183E+04
 -1.46235E+04  2.89496E+04 -2.35114E+04  1.44638E+03 -6.03346E+03 -2.57187E+04  2.12893E+04 -3.15728E+04
  3.80628E+04 -6.92640E+03  2.75753E+04  2.14498E+04  1.23110E+04  3.93727E+04 -6.87200E+03  4.08134E+04
 -2.77507E+04  2.78187E+04 -3.67946E+04  7.78588E+03 -3.45435E+04 -1.60116E+04 -1.86508E+04 -3.28405E+04
  6.64726E+03 -3.21076E+04  2.84784E+04 -1.74776E+04  2.63343E+04  1.47797E+04  4.16416E+03  1.69333E+04
 -1.36913E+04  8.50619E+03 -9.58245E+03 -1.01696E+04  7.14029E+03 -6.62382E+03  1.94332E+04  5.78729E+03
  1.57997E+04  2.26646E+04 -4.45885E+03  2.37838E+04 -1.90138E+04  8.84677E+03 -2.77176E+04 -5.57431E+03
 -1.40396E+04 -1.43749E+04 -5.76052E+03 -1.58125E+04  1.45574E+03 -1.56770E+04  1.09905E+04 -1.24031E+04
  1.81009E+04 -1.10679E+04  2.54941E+04 -5.96110E+02  1.89680E+04  1.16591E+04  3.15754E+03  2.69419E+04
 -1.96822E+04  2.60556E+04 -2.46106E+04  7.03075E+03 -1.94306E+04 -1.15741E+04 -8.30751E+03 -1.82133E+04
  1.53117E+03 -5.23232E+03  6.56113E+01  4.60866E+03 -9.97395E+03  3.27666E+03 -1.20771E+04 -5.45201E+03
 -6.24682E+03 -1.25431E+04  7.50574E+03 -1.96722E+04  1.09417E+04 -1.35712E+04  1.34525E+04 -2.28703E+02
  6.82324E+03  1.23250E+04  1.53056E+03  1.35156E+04 -7.48330E+03  1.15077E+04 -1.56738E+04 -5.19117E+03
 -9.47741E+03 -1.45406E+04 -2.17814E+03 -1.95598E+04  8.59703E+03 -1.30911E+04  1.32406E+04 -8.62539E+03
  1.12622E+04  3.33768E+02  9.49221E+03 -1.40567E+03  6.26406E+03 -2.03856E+03  4.99036E+03 -3.15153E+03
  1.89309E+04  5.51710E+03  1.20163E+04  9.87770E+03  6.52175E+03  2.33651E+04 -3.97722E+03  2.11108E+04
 -1.56211E+04  1.21924E+04 -2.67763E+04  8.03365E+03 -2.12682E+04 -3.12907E+03 -1.82231E+04 -1.23007E+04
 -9.41615E+03 -1.97774E+04  2.61525E+03 -1.52637E+04  1.30625E+04 -1.60050E+04  1.49055E+04  2.65358E+03
  7.58502E+03  1.44535E+04 -5.60958E+03  9.18467E+03 -1.54193E+04  5.42372E+03 -9.02384E+03 -1.36178E+03
  2.87147E+03 -1.02606E+04  3.95953E+03 -8.61397E+03  6.51712E+03  4.40441E+01 -2.13989E+03  2.02109E+03
 -5.23032E+03  3.94001E+03 -3.99401E+03 -3.62373E+03 -1.38714E+03 -7.65859E+03  4.89607E+03 -1.02197E+04
  1.06510E+04 -4.81391E+03  1.15632E+04  4.30036E+03  1.07872E+04  1.09628E+04  3.98744E+03  8.56017E+03
  3.18979E+01  1.44028E+04 -5.18147E+03  9.37124E+03 -9.95052E+03  3.21867E+03 -6.88513E+03 -2.45512E+03
 -3.95951E+03  1.37543E+03 -2.86084E+03  2.37237E+03 -1.64210E+03  2.23112E+03 -3.78066E+03  2.66222E+03
 -6.16000E+03  1.00856E+03 -7.18849E+03 -9.57418E+03 -7.63708E+03 -9.78176E+03  2.36391E+03 -7.03078E+03
  6.61391E+03 -5.19444E+03  4.30517E+03  2.59706E+03  4.27998E+03  2.68878E+03 -5.47124E+02 -1.88105E+03
 -4.80817E+03 -2.81957E+03  6.21687E+03 -7.01155E+03  4.57063E+03 -7.77042E+03  7.55453E+03 -4.01503E+03
  9.60178E+03 -1.62952E+03  6.78673E+03  7.05342E+03  4.99526E+03  5.73733E+03 -5.60588E+03  7.30785E+03
 -5.64864E+03  3.36250E+03 -7.01419E+02 -4.95677E+03  4.51248E+03 -6.97569E+02 -2.09580E+03  7.67610E+02
  4.42654E+03  2.53387E+03  2.63243E+03  6.51591E+03 -6.79806E+03  4.36943E+03 -8.14718E+03  7.45867E+03
 -2.47216E+03  1.06367E+03  2.53943E+03 -3.42734E+03  4.92591E+03 -1.27150E+03 -2.96943E+03  4.82396E+02
  2.37347E+03 -8.31786E+02 -5.36152E+03  5.22376E+03 -6.25589E+03  4.75066E+03 -9.71405E+02  6.71696E+01
 -3.24411E+03 -3.92644E+03  3.06553E+02 -5.77108E+03  9.87159E+03 -7.29633E+03  7.10501E+03  5.41202E+03
  5.03017E+03  1.95143E+03 -3.84627E+03  7.83970E+03 -4.18341E+03  3.24073E+02 -5.69300E+03  9.79504E+02
 -4.82859E+03 -7.72774E+03 -1.91427E+02 -8.19279E+03  4.62450E+03 -2.82794E+03  3.04222E+03 -4.93453E+03
  5.22609E+03  2.58173E+03  2.98975E+03  3.00774E+03  2.76694E+03 -1.21237E+03 -5.47154E+02  2.33932E+03
 -2.31026E+02 -5.81474E+02  3.76850E+02  2.20790E+03  3.49345E+03  1.45387E+03  4.40595E+03  5.68243E+03
  2.68592E+03  5.10267E+03 -5.48952E+03  4.32086E+03 -7.20659E+03 -1.42668E+03 -8.36729E+03 -3.52197E+03
 -5.32758E+03 -7.23208E+03  3.25386E+02 -2.02165E+03  3.55883E+03  1.76071E+02  5.18058E+03 -5.65834E+03
  5.14056E+03 -1.78455E+03  1.85410E+03 -4.51038E+03  2.94871E+03 -6.86592E+02  4.42465E+03  3.30690E+03
 -3.32357E+02  4.54619E+03  9.14714E+02  4.54741E+03 -1.15911E+03  2.65372E+03 -7.47102E+03  6.02505E+03
 -8.25554E+03  3.18042E+02  2.98451E+02 -3.89830E+03 -2.05486E+02 -1.03019E+03  1.25475E+03 -4.40442E+03
 -1.57845E+03 -4.34571E+03  9.07616E+03 -1.07090E+03  5.35894E+03  1.39782E+03 -1.46511E+03  3.51277E+03
 -4.13932E+03  4.68850E+03 -7.37236E+02 -6.40780E+02 -2.57594E+03 -4.98558E+03 -3.35686E+03 -3.60008E+03
 -1.60012E+03 -3.64908E+03  6.22950E+02  3.50297E+03 -1.12024E+03  3.13085E+03 -3.05946E+03 -2.53563E+03
  1.36954E+03 -7.19622E+03 -1.78294E+03 -3.40828E+03  1.40801E+03 -2.41973E+03  1.29657E+02 -2.16469E+03
  3.93765E+03  3.63501E+02  4.12096E+03  6.16976E+02 -2.66238E+01  1.76678E+03 -2.88955E+03  3.74832E+01
 -2.89171E+03 -2.32892E+03 -3.96643E+03 -4.35964E+03  1.15195E+03  1.39034E+02  1.36479E+03 -8.43368E+03
  6.42287E+03 -2.62106E+03 -6.95638E+02  5.53669E+02 -1.70701E+03 -2.62682E+03 -3.03055E+02  4.11716E+02
  3.70416E+03  1.27666E+03  2.35026E+02  1.22509E+03  1.70234E+03  2.08515E+03  4.91733E+03 -1.16752E+03
 -1.72119E+03  2.15608E+03 -3.45266E+03  3.87594E+03 -1.28727E+03  2.12632E+03 -4.91573E+03 -6.16092E+02
 -1.82523E+03 -6.70946E+03  1.73570E+03 -3.07738E+03  3.04634E+03 -3.08370E+03  3.24287E+03 -2.75637E+03
 -1.37551E+03  4.92463E+03 -5.62794E+02  4.69563E+02 -1.46848E+03  3.54889E+02  2.40614E+02  2.00761E+03
  2.89271E+03  4.52307E+02  3.24198E+03  3.85667E+02  2.16946E+03  1.09327E+03  5.35912E+03 -2.18762E+03
  6.55030E+02  1.51144E+03 -1.75840E+02  2.89793E+03 -9.84168E+02  2.27770E+03  1.40500E+03  4.48995E+03
 -1.03643E+03 -1.81200E+03  2.33518E+03 -3.09433E+02  2.47619E+03  1.05204E+03 -9.34307E+02  4.10927E+03
 -3.18959E+03  3.83736E+03 -1.14779E+03 -6.38640E+02 -3.32294E+03  1.73414E+03  2.84886E+03  8.96060E+02
  5.72747E+02 -2.01901E+03 -2.17012E+02 -9.35907E+02 -1.63156E+03  9.38018E+02 -9.12471E+02 -5.29723E+02
 -2.68395E+03  4.32062E+03 -4.50416E+03 -1.75049E+03  8.21745E+02 -2.00935E+03 -1.02532E+03 -1.97306E+03
 -4.50339E+02 -2.32653E+03 -6.02027E+01 -2.59127E+03 -4.72006E+03  1.20717E+03 -2.82310E+03  2.81704E+03
  3.26878E+03 -1.91581E+03  2.63103E+01 -3.55796E+03  1.99688E+03 -8.66349E+02  1.89629E+03 -9.93230E+02
  3.81564E+03 -5.33586E+02 -8.42603E+01 -1.56016E+02  3.20061E+02 -2.44558E+03 -6.37079E+02  3.46348E+03
  1.35334E+03  1.85004E+03 -4.38744E+03 -1.79563E+03 -2.56217E+03 -1.96956E+03  1.21858E+03 -1.80990E+02
  2.41148E+03 -2.47649E+03  8.29278E+02  4.16328E+03  1.22526E+03  3.29314E+03 -5.82771E+02 -1.86937E+03
 -8.75991E+02  2.06034E+03 -2.41697E+02  2.01425E+03  1.36332E+03  6.51250E+02 -5.01299E+03  1.77826E+03
 -7.65760E+02  2.98524E+03  3.04969E+03  4.49906E+03 -4.01251E+03  3.43860E+03  9.90130E+02 -2.54031E+02
  7.67785E+02 -3.65650E+03  3.44860E+03  1.19823E+03 -1.68583E+03 -4.22493E+02  3.55138E+03 -9.61709E+02
  2.53563E+03  6.34933E+02 -2.72559E+02 -1.79131E+03 -3.79912E+03  1.10473E+03  2.71123E+03  2.38289E+03
 -1.28898E+03  2.87986E+03 -6.35627E+03 -1.51522E+03  5.28978E+02  2.86720E+03 -1.28089E+03 -1.23135E+03
 -5.04288E+03  1.55614E+03 -3.26073E+03  2.37262E+03  1.74197E+03 -1.50070E+03 -4.27379E+03 -4.69545E+00
 -2.33073E+03  7.99037E+02 -3.02889E+03 -1.86083E+03  1.78850E+03 -1.59115E+03 -3.80659E+03  1.31136E+03
  4.31698E+03  1.72693E+03 -1.08242E+03 -8.93120E+02 -2.46956E+03  1.92769E+03 -3.34267E+03 -5.70822E+02
 -4.65251E+03 -4.81754E+03  1.43799E+02  1.80141E+03 -1.78671E+03 -1.43640E+03  1.73335E+03 -8.78925E+02
  5.23613E+02 -2.63850E+02  2.41219E+03  1.80474E+03 -1.11785E+03  1.64926E+03  4.10266E+03  8.23152E+02
  9.23109E+03  1.52649E+03 -4.14304E+03  1.23859E+03  1.64508E+03  2.24981E+03  4.80747E+03 -9.09004E+02
 -2.46897E+02  2.94776E+03 -2.33409E+03 -6.85634E+02 -3.62394E+03  1.68877E+03 -1.70128E+03  1.55553E+03
  1.23042E+03  2.53507E+03  6.15328E+02 -3.09813E+03 -3.35230E+03  3.33038E+03 -2.79963E+02  4.85253E+01
  1.66113E+03  3.11009E+03  1.99874E+03  8.69707E+02  3.62409E+02  4.10232E+02 -5.62994E+03 -2.96101E+03
  1.11685E+03 -1.38861E+03 -3.96502E+03 -1.61571E+03 -2.73659E+03  2.92114E+03 -1.15833E+03  5.81243E+02
  1.14602E+02 -1.90037E+03  9.96428E+02 -1.25562E+03  2.17210E+03 -4.03854E+02  2.92863E+03  2.04288E+03
  4.44437E+03 -1.82055E+03 -2.11996E+03  1.34850E+03 -3.96766E+03  3.54706E+03  9.58078E+02  6.62818E+02
