 $NMID ID='MM_0lb_SNR50_18hz_g45_83.RAW', FMTDAT='(8E13.5)'
 TRAMP=1., VOLUME=1. $END
  3.13200E+05  7.24873E+02  3.35135E+05  2.47896E+05  8.41854E+04  3.38353E+05 -1.28957E+05  2.48824E+05
 -1.91555E+05  8.54534E+04 -1.15859E+05 -2.87729E+04  1.50260E+03 -4.80265E+04  5.56234E+04  3.63853E+02
  3.37620E+04  5.12634E+04 -1.67202E+04  7.95709E+04 -6.28677E+04  6.36246E+04 -8.09469E+04  3.31829E+04
 -7.66752E+04 -1.66490E+04 -5.49306E+04 -5.49177E+04 -1.66705E+04 -6.83681E+04  2.51714E+04 -3.99162E+04
  3.73227E+04  2.86052E+03  1.70624E+04  4.81354E+04 -3.62556E+04  4.94917E+04 -6.41040E+04  1.34646E+03
 -5.38769E+04 -5.54440E+04 -7.20435E+03 -7.21228E+04  3.15156E+04 -5.40459E+04  4.16399E+04 -1.11622E+04
  4.37096E+04  1.30488E+04  2.94562E+04  2.70309E+04  1.44009E+04  2.98346E+04 -6.06170E+03  2.09190E+04
 -2.28829E+04  9.89057E+03 -1.64982E+04 -4.07470E+03  4.44591E+03 -3.72127E+03  2.17335E+04  1.13116E+04
  6.53678E+03  3.49058E+04 -3.07329E+04  3.54289E+04 -5.90463E+04  8.14668E+02 -5.62264E+04 -3.86499E+04
 -7.07063E+03 -6.60045E+04  3.93880E+04 -4.42632E+04  5.21669E+04 -4.79142E+03  3.13695E+04  2.95809E+04
 -9.06380E+03  3.36796E+04 -3.20251E+04  1.30903E+04 -2.74889E+04 -4.41621E+03 -1.22751E+04 -1.12430E+04
 -7.24195E+03 -1.01802E+04 -4.96958E+03 -1.74136E+04  6.36872E+03 -2.30863E+04  1.55258E+04 -1.30827E+04
  1.30927E+04  4.56186E+02 -5.16884E+03  1.59368E+04 -2.11608E+04 -2.46548E+03 -5.94012E+03 -2.93704E+04
  2.21216E+04 -4.15652E+04  4.22083E+04 -1.71404E+04  4.22422E+04  1.49299E+04  1.62771E+04  4.34365E+04
 -1.46722E+04  3.08689E+04 -2.50867E+04  3.50640E+03 -1.04831E+04 -2.50135E+04  2.24124E+04 -2.88053E+04
  3.54279E+04 -7.34465E+03  2.95490E+04  2.05047E+04  1.69929E+04  4.09429E+04 -3.62562E+03  4.70424E+04
 -2.70869E+04  2.57459E+04 -3.92871E+04  1.24818E+04 -3.83546E+04 -1.15584E+04 -1.99541E+04 -3.77923E+04
  1.13291E+04 -3.44184E+04  3.08177E+04 -9.69631E+03  2.36139E+04  1.11206E+04  3.21341E+03  1.91171E+04
 -1.63042E+04  8.85883E+03 -1.11941E+04 -8.54006E+03  4.54354E+03 -7.79560E+03  2.13774E+04  5.43074E+03
  1.24308E+04  2.04411E+04 -6.75061E+03  2.32085E+04 -1.92988E+04  1.02735E+04 -2.77396E+04 -7.58357E+03
 -1.72493E+04 -1.75021E+04 -3.62645E+03 -1.57667E+04  5.36647E+03 -1.51283E+04  1.27837E+04 -1.01193E+04
  2.55188E+04 -1.23847E+04  3.03103E+04  7.76877E+02  2.22389E+04  1.98366E+04  7.02206E+03  3.44746E+04
 -1.82425E+04  2.80740E+04 -2.43171E+04  1.10311E+04 -2.01178E+04 -7.45798E+03 -3.95919E+03 -1.33959E+04
 -1.06603E+03 -4.22637E+03 -3.51369E+03  7.60547E+03 -1.24802E+04  5.99948E+03 -1.38818E+04 -6.60733E+03
 -7.45947E+03 -1.29956E+04  3.55874E+02 -1.89661E+04  1.12600E+04 -1.67990E+04  1.36190E+04 -4.94114E+03
  1.24362E+04  1.09385E+04 -2.03274E+03  1.30837E+04 -8.86922E+03  4.00196E+03 -1.83747E+04 -4.48320E+03
 -1.31599E+04 -1.28503E+04  6.16447E+01 -2.26245E+04  9.96434E+03 -1.68174E+04  1.63699E+04 -7.74767E+03
  1.40819E+04 -2.71055E+03  1.14237E+04  4.14227E+03  6.55401E+03 -2.95937E+03  7.25979E+03 -9.23639E+02
  1.46289E+04  3.12969E+03  1.51905E+04  1.09087E+04  1.28099E+04  2.82323E+04 -1.84475E+03  2.91765E+04
 -1.75750E+04  2.20282E+04 -2.65265E+04  1.54569E+04 -2.57479E+04 -2.77953E+03 -2.20218E+04 -1.68540E+04
 -1.23575E+04 -2.54588E+04  3.51324E+03 -2.31250E+04  2.00063E+04 -1.23967E+04  1.95640E+04  2.74477E+03
  8.66432E+03  8.82944E+03 -6.55215E+03  8.98444E+03 -9.33788E+03  2.73092E+03 -1.05426E+04 -1.17617E+04
 -5.25497E+03 -1.34339E+04  4.02269E+03 -1.27515E+04  4.64693E+03 -1.85258E+03  1.82023E+03  6.87254E+03
 -6.94126E+03  9.31948E+02 -4.89838E+03 -6.54713E+03 -1.32036E+03 -7.11860E+03  1.21062E+04 -1.05916E+04
  1.17615E+04 -1.51435E+03  1.35046E+04  4.89120E+03  8.20293E+03  8.49415E+03  4.54504E+03  1.33914E+04
 -3.06368E+03  1.71578E+04 -9.52926E+03  1.25299E+04 -8.27014E+03  3.37811E+03 -4.67207E+03 -2.21793E+03
 -5.15908E+03 -2.88767E+03  3.05580E+03 -1.14853E+03  1.42411E+03  2.48361E+03 -1.26138E+03  3.37283E+03
 -1.08132E+04 -6.86743E+02 -6.57293E+03 -8.98520E+03 -2.93803E+03 -1.39526E+04  8.55058E+02 -9.12763E+03
  9.85547E+03 -4.34055E+03  8.00671E+03 -3.95210E+02 -3.60750E+02 -1.28598E+03 -7.23275E+03  3.86787E+02
 -5.86617E+03 -2.81327E+03  3.26872E+03 -8.45058E+03  5.70342E+03 -7.01000E+03  9.42735E+03 -8.48874E+03
  1.15163E+04  1.11774E+03  9.62625E+03  5.31265E+03  7.09207E+03  9.81678E+03 -9.68559E+02  1.14808E+04
 -5.81578E+03  2.63120E+03 -1.54154E+03 -9.69517E+02 -2.19509E+03 -7.30330E+02  4.99058E+03 -2.27947E+03
  3.34829E+03  1.37550E+03 -5.71971E+02  6.94576E+03 -4.63182E+03  1.13512E+04 -9.47231E+03  4.63173E+03
 -2.77661E+03 -3.25910E+03 -1.69020E+03 -1.10940E+04  5.16999E+03 -3.49217E+03  5.36727E+03  2.69066E+01
 -1.39519E+03  8.26450E+02  1.98296E+02  2.87267E+03 -4.32119E+03  5.25230E+01 -6.42978E+03 -1.50402E+03
 -3.69349E+02 -7.36644E+03  1.67238E+03 -5.85839E+03  3.31766E+03 -5.95774E+03  4.95028E+03 -3.32209E+03
 -2.55171E+03  1.20179E+04  1.26650E+01  7.64522E+03 -2.84567E+03  4.71053E+03 -4.05110E+03 -2.62965E+02
 -8.36418E+03 -5.92886E+03 -1.06580E+03 -1.96807E+03 -3.39085E+03 -5.81343E+03  4.28215E+03 -6.62023E+03
  4.51853E+03  1.54989E+03 -2.85947E+03  7.24464E+02 -1.09501E+02  1.68852E+03 -8.96886E+02 -1.18040E+03
  2.43486E+03 -6.94764E+03  4.69781E+03  9.69271E+02  5.04649E+03 -1.72841E+03  9.91412E+03  1.03253E+04
  1.27237E+03  6.44502E+03 -4.28876E+03  2.29825E+03 -6.87633E+03 -8.45424E+02 -7.57846E+03 -2.39283E+03
 -5.93418E+03 -2.99243E+03 -2.77017E+03 -3.45477E+03  3.14639E+03 -2.56249E+03 -5.40887E+01  3.74790E+03
  3.04912E+03  2.33831E+03 -1.31809E+02 -9.73274E+03  3.25481E+03 -1.08851E+03  3.67531E+03  4.70613E+02
  1.22789E+03  1.13488E+02  4.92347E+03  7.19980E+02 -3.61742E+03  6.55296E+03 -1.20868E+04  3.88095E+03
 -3.37284E+03 -5.64461E+03 -3.21789E+02  1.67722E+02 -3.68902E+03 -7.03136E+03  1.70741E+03 -8.61361E+03
  7.31864E+03 -3.62956E+03  6.81950E+03  9.53033E+02  5.98210E+03  4.20331E+03 -3.53631E+03  6.99982E+03
  1.12762E+03  4.32437E+03 -7.16226E+02  2.90299E+03 -4.07172E+03  2.75119E+03 -4.82525E+03  5.45402E+03
 -1.06768E+03  1.20619E+03  3.07322E+03  3.99234E+03 -2.10073E+03 -1.33515E+03 -5.81809E+03  1.30097E+03
  2.38066E+03 -6.33458E+03  3.09786E+03 -3.21805E+03  1.72389E+03 -4.71076E+03  4.24516E+03 -1.71293E+03
  1.04583E+03  5.01270E+03 -2.10466E+03  2.59115E+03 -2.03874E+03  4.42483E+03 -2.19215E+03  5.24818E+03
 -2.25303E+03  5.76737E+02 -1.46609E+03 -4.05187E+02 -2.60165E+03 -1.94706E+03  1.59960E+03 -2.95745E+03
 -3.90324E+03 -2.38952E+03  3.62154E+03 -1.46247E+02  3.42713E+03 -2.63612E+03  2.24553E+01 -1.36120E+03
  4.16774E+03  1.77566E+03  1.50348E+03  1.38628E+03  2.24690E+03  2.46076E+03  2.51584E+03  2.69369E+03
 -2.25078E+03 -2.71296E+03 -5.32113E+03  3.82719E+03 -3.44981E+03  2.76933E+03 -3.74033E+03  1.44012E+02
 -4.73511E+03 -1.88145E+03  2.70618E+02 -5.07665E+03  4.10577E+03 -3.37385E+03  7.22283E+03 -1.91700E+03
  4.68127E+03  2.68169E+03  2.09048E+03  3.96223E+02 -5.97638E+03 -2.21326E+03  9.03289E+01 -2.47067E+03
 -2.57668E+03 -1.46499E+03  3.51390E+03 -1.71562E+01  1.39206E+03  6.51853E+02  8.24795E+02 -6.85973E+02
 -6.33572E+03 -3.35363E+03  1.58591E+03 -1.39864E+03 -3.00188E+03  7.60367E+02  1.67172E+02 -2.78453E+03
  1.03854E+03  3.74578E+03  3.03235E+03  2.14093E+03  4.99828E+03  3.16687E+03  2.13607E+03  1.58057E+03
 -3.31946E+03 -5.79993E+03 -7.46152E+03  6.80470E+02  2.34544E+02 -3.67366E+03 -1.08883E+01  4.29015E+03
 -1.82049E+03  1.73556E+03  2.79139E+03 -2.49559E+03  3.52166E+02  1.88598E+02 -4.39793E+03  5.71928E+03
 -1.95029E+03  3.32894E+03 -2.95498E+02 -2.19938E+03 -1.15258E+03 -1.78976E+03  3.53352E+03  3.69789E+03
  1.18872E+03 -7.00749E+02 -3.47348E+03 -5.50079E+02 -1.65143E+03 -4.20262E+02  2.12541E+03  4.46347E+03
  1.56621E+02 -2.97828E+03  1.13006E+02  1.78475E+03  3.20248E+03 -1.85139E+03  3.12377E+03  1.46064E+02
 -5.51509E+02 -3.39396E+02 -2.93789E+03  6.48690E+02 -3.30099E+02  4.99832E+03 -1.15439E+03  2.59652E+03
 -8.90052E+02  1.83298E+03 -2.91933E+03  2.23413E+02  1.34877E+03 -1.25355E+03  1.01778E+03 -1.24208E+03
 -1.64973E+03 -5.21367E+02  6.60751E+02 -2.83107E+02 -3.19109E+00  3.05181E+03  9.16413E+02  2.51714E+03
  2.17173E+03 -3.26500E+02  9.85594E+01  1.05759E+03 -1.08844E+03  2.20798E+03 -3.01406E+02  2.78759E+03
 -8.41408E+02  2.24552E+03 -5.82995E+03 -6.11457E+02 -5.29445E+03  5.19289E+03 -6.07017E+02 -4.23459E+02
 -1.88789E+03 -1.42496E+03  2.00565E+03  8.73008E+01 -1.72989E+03 -4.30101E+03  1.57642E+03  4.99372E+03
  2.11274E+02 -5.92006E+03 -4.83253E+03  1.11075E+03  4.56593E+02  2.84308E+03  5.08158E+02 -5.73280E+02
 -4.86757E+03  1.99532E+03  1.97266E+03 -4.50313E+02 -1.90161E+03 -2.18848E+03 -1.64307E+03  1.34235E+03
 -9.66518E+02 -2.56631E+03  5.55733E+03  4.16198E+03  3.43047E+02  2.02289E+02 -2.34899E+03  1.34075E+03
 -1.73950E+03 -1.19113E+03 -3.15475E+03 -4.63480E+03  1.28184E+03  5.73105E+03  2.11252E+03  1.95525E+03
 -2.54625E+03  3.10224E+03 -1.80896E+03 -1.58767E+03 -2.95651E+03  6.99826E+01 -9.90260E+02 -1.36972E+03
 -1.90480E+02 -4.98885E+02  4.58929E+02 -1.96597E+03 -5.97877E+03  1.53802E+03  3.89770E+03 -3.12557E+03
  4.31649E+02  3.37286E+03  4.57454E+02 -3.02951E+02 -3.98905E+03 -1.36362E+03  1.60074E+03 -4.20082E+03
  3.43612E+02  1.79358E+03  2.81417E+03 -3.80420E+02  1.58943E+03 -8.67604E+02 -1.72546E+03 -1.91974E+03
  1.60308E+03  1.86633E+03 -4.96077E+02  3.03646E+03  2.56850E+03 -2.92355E+03 -6.21043E+03 -1.94810E+03
  5.38063E+03 -8.81102E+02  2.16558E+03  3.07914E+03  4.65365E+03  1.31160E+03  4.11990E+03  1.76833E+03
 -2.41832E+03 -1.95320E+03  1.61570E+03  5.95107E+03  1.06822E+03  1.54843E+03  1.68799E+03  1.38482E+03
  1.70891E+03 -1.92308E+03  8.12700E+02  1.63234E+03  1.36155E+03  3.21028E+03 -1.34988E+03 -1.52182E+03
  6.49370E+02 -6.81077E+02  6.35440E+02  1.06496E+03  3.67039E+03 -2.18101E+03 -5.34984E+03 -5.96083E+01
  1.75460E+03  1.52815E+03  1.17913E+03 -1.96275E+03  1.43569E+03  3.86646E+03  1.36923E+03  1.97845E+01
