 $NMID ID='MM_0lb_SNR50_10hz_g50_2.RAW', FMTDAT='(8E13.5)'
 TRAMP=1., VOLUME=1. $END
  3.05343E+05 -1.33591E+03  3.41234E+05  2.45571E+05  8.05964E+04  3.36422E+05 -1.36111E+05  2.57061E+05
 -1.84950E+05  8.64282E+04 -1.11740E+05 -3.64010E+04  1.23304E+03 -4.95229E+04  5.57150E+04 -2.36913E+03
  3.04937E+04  5.29328E+04 -1.88767E+04  7.86784E+04 -6.11742E+04  6.56009E+04 -8.64560E+04  3.25588E+04
 -8.19699E+04 -3.84613E+03 -6.14518E+04 -4.87106E+04 -1.44597E+04 -7.67608E+04  2.86418E+04 -5.02361E+04
  4.57747E+04  7.60206E+02  1.62278E+04  4.75026E+04 -3.93361E+04  5.02369E+04 -6.43399E+04  1.18082E+03
 -5.06721E+04 -5.69911E+04 -6.85882E+03 -8.36282E+04  3.21176E+04 -6.08255E+04  5.13620E+04 -1.97886E+04
  4.65935E+04  1.58481E+04  2.88496E+04  2.97820E+04  1.65870E+04  2.92251E+04 -8.57212E+03  2.72876E+04
 -2.72255E+04  6.53105E+03 -1.75641E+04 -6.93666E+03  1.69208E+03 -1.17667E+04  2.78343E+04  1.42894E+04
  1.81892E+03  3.23209E+04 -3.83436E+04  3.40736E+04 -5.94570E+04  5.18048E+03 -5.75925E+04 -4.44580E+04
 -9.44804E+03 -6.15626E+04  3.84606E+04 -5.42762E+04  5.86656E+04 -1.35832E+03  3.75124E+04  3.08812E+04
 -1.27923E+03  3.52137E+04 -3.11326E+04  2.61583E+04 -3.64705E+04 -3.53763E+03 -1.62725E+04 -7.50177E+03
 -1.15231E+04 -1.36495E+04  2.38920E+02 -2.26107E+04  6.84141E+03 -2.04305E+04  1.63656E+04 -1.13943E+04
  1.04026E+04  7.52594E+03 -8.70884E+03  1.40664E+04 -2.19011E+04 -1.02880E+04 -1.34203E+01 -3.49075E+04
  2.47788E+04 -5.09501E+04  4.93000E+04 -2.01517E+04  4.83309E+04  1.92786E+04  1.75694E+04  4.33860E+04
 -1.34772E+04  3.58931E+04 -2.96001E+04  3.62903E+03 -8.19882E+03 -2.84049E+04  1.75270E+04 -3.39640E+04
  4.44241E+04 -1.04573E+04  3.64207E+04  2.61267E+04  1.34495E+04  5.10773E+04 -1.03679E+04  6.28326E+04
 -2.81226E+04  3.89029E+04 -5.09024E+04  9.81959E+03 -4.45684E+04 -1.69470E+04 -2.85043E+04 -3.81013E+04
  8.48512E+03 -4.20098E+04  3.61132E+04 -1.72996E+04  2.81166E+04  6.75984E+03  6.87589E+02  2.51145E+04
 -1.15822E+04  1.10269E+04 -6.57025E+03 -1.11182E+04  2.79881E+03 -8.33538E+03  1.87988E+04  4.39434E+03
  1.29511E+04  2.58067E+04 -5.92220E+02  2.51117E+04 -2.21073E+04  1.04876E+04 -2.95023E+04  4.94058E+02
 -2.23561E+04 -2.22697E+04 -1.33713E+04 -2.27170E+04  1.11501E+04 -2.46698E+04  2.03541E+04 -2.31363E+04
  3.40469E+04 -1.63173E+04  3.88921E+04  1.00143E+04  2.48733E+04  1.76901E+04  5.67031E+03  4.30925E+04
 -1.91375E+04  3.56603E+04 -3.01360E+04  9.20462E+03 -1.82873E+04 -1.30666E+04 -4.34545E+03 -1.96131E+04
 -1.02970E+03 -7.61761E+02  6.54751E+02  6.55944E+03 -1.55609E+04  6.92333E+03 -2.60981E+04 -1.38139E+04
 -1.38067E+04 -2.52604E+04  7.96383E+03 -2.73601E+04  2.24705E+04 -2.13182E+04  1.66445E+04 -2.21884E+03
  1.00387E+04  1.31690E+04 -1.91373E+03  2.56933E+04 -1.65816E+04  1.12147E+04 -1.77422E+04 -7.06905E+03
 -1.32677E+04 -2.08166E+04 -2.72524E+02 -1.98301E+04  1.10152E+04 -2.82728E+04  2.21761E+04 -1.53623E+04
  1.85830E+04 -7.24811E+02  1.52060E+04  4.44845E+02  1.04355E+04  4.15743E+03  1.31134E+04 -1.50022E+03
  2.39201E+04 -7.39774E+02  2.51524E+04  2.03080E+04  1.70048E+04  4.09879E+04 -2.08685E+03  3.78828E+04
 -2.55706E+04  4.06711E+04 -3.89042E+04  1.70928E+04 -4.53113E+04 -2.27590E+03 -3.20191E+04 -2.55671E+04
 -1.85702E+04 -3.83047E+04  1.10215E+04 -2.80452E+04  2.88854E+04 -1.64176E+04  2.31071E+04  2.95554E+03
  7.07852E+03  1.92079E+04 -9.95530E+03  1.73099E+04 -2.55432E+04 -1.02662E+03 -2.06860E+04 -1.05913E+04
  2.17538E+03 -1.96673E+04  1.72870E+04 -1.22471E+04  9.04148E+03 -2.87718E+03  3.14074E+03  8.99579E+03
 -1.08980E+04  3.06234E+03 -8.58919E+03 -3.72869E+03 -6.64292E+03 -1.94054E+04  1.30697E+04 -1.78420E+04
  2.12535E+04 -5.84102E+03  2.48922E+04  2.65732E+03  2.35153E+04  1.47512E+04  1.23073E+04  2.57962E+04
 -2.82362E+03  2.79457E+04 -1.83543E+04  1.77196E+04 -2.21443E+04  1.30831E+03 -1.30129E+04 -8.67516E+03
 -4.36346E+03 -5.23505E+03  1.76575E+03 -6.26759E+03 -4.80341E+03  4.38046E+03 -4.41567E+03  2.11832E+03
 -1.11010E+04 -6.33367E+03 -1.55592E+04 -1.57644E+04 -9.50409E+03 -2.06676E+04  7.69290E+03 -1.08861E+04
  7.50038E+03 -6.01033E+03  5.15510E+03  9.90114E+03  4.28314E+03  2.80683E+03 -7.29924E+03  2.66731E+03
 -5.16325E+03 -1.16647E+04 -6.46684E+03 -1.36191E+04  9.80154E+03 -1.03722E+04  1.68120E+04 -3.91122E+03
  2.15700E+04 -1.62140E+03  2.05952E+04  1.20624E+04  9.68595E+02  1.66563E+04 -7.91371E+03  1.75780E+04
 -1.29493E+04  7.32794E+03 -1.00445E+04  5.27084E+02 -2.49753E+02 -3.16855E+03  4.81257E+03 -2.98673E+03
  6.70006E+03  8.50750E+03  3.22613E+03  1.49908E+04 -6.37937E+03  1.16707E+04 -1.97577E+04 -1.37530E+03
 -9.91832E+03 -1.45468E+04 -5.90214E+03 -1.59887E+04  6.62242E+03 -4.36870E+03  1.23604E+04  1.38843E+03
 -1.50984E+03  1.27458E+04 -8.72476E+03  1.04331E+04 -1.75122E+04  3.26654E+03 -1.25732E+04 -7.68034E+03
 -9.96832E+03 -1.73511E+04 -4.24638E+02 -1.32850E+04  1.29170E+04 -1.19478E+04  1.55552E+04  4.97410E+03
  6.85468E+03  1.59157E+04 -6.21263E+02  1.52623E+04 -1.06460E+04  9.65656E+03 -1.05068E+04 -2.16263E+03
 -2.77550E+03 -1.26884E+04 -4.82936E+02 -1.04773E+04  1.39154E+02 -1.21915E+04  4.58209E+03 -5.71264E+03
  3.31870E+03 -6.14557E+03 -4.42011E+02 -3.62601E+02  3.08998E+03 -5.23893E+03  6.84782E+02  6.54183E+02
  8.14532E+03 -7.86939E+03  1.54276E+04 -8.16535E+02  1.30613E+04  1.04654E+04  1.20823E+04  2.12150E+04
 -6.36295E+03  1.80688E+04 -2.09664E+04  1.55801E+04 -2.60298E+04  3.78051E+03 -1.79840E+04 -9.39883E+03
 -8.57754E+03 -1.80760E+04 -2.91236E+03 -1.47270E+04  6.26881E+03 -2.57080E+03  3.43908E+03 -6.37840E+03
 -1.46926E+03  2.40335E+03  6.00801E+03 -5.41244E+03  5.10519E+03 -1.62287E+03  1.21016E+04  2.45167E+03
  6.53320E+03 -1.09513E+03  7.72630E+03  1.11025E+04 -5.80227E+03  4.20932E+03 -1.29055E+04  9.20138E+03
 -8.16064E+03 -2.45371E+03 -8.56746E+03 -1.40834E+04  5.19668E+03 -1.60619E+04  1.01041E+04 -1.49612E+04
  1.77144E+04 -1.07028E+04  2.10619E+04  2.38439E+03  1.27620E+04  1.44112E+04 -4.10326E+03  1.54553E+04
 -2.80130E+03  1.21860E+04 -6.13581E+03  6.53425E+03 -7.91662E+03 -2.40584E+03 -8.98044E+03  2.45621E+03
 -8.06842E+02  1.79214E+03  2.60052E+03  2.22952E+03 -8.15907E+03  5.39043E+03 -1.17520E+04 -2.86560E+03
 -5.80108E+03 -1.32991E+04 -2.29345E+03 -1.70241E+04  1.05673E+04 -1.73269E+04  1.74484E+04 -9.51528E+03
  1.43747E+04  8.05507E+03  8.83565E+03  1.60278E+04 -3.94180E+03  1.44027E+04 -1.22719E+04  4.84026E+03
 -1.10683E+04 -3.61976E+02 -1.13151E+04 -9.04809E+03 -3.16057E+03 -1.17018E+04  8.03139E+03 -1.28831E+04
  1.33227E+04 -4.07485E+03  7.52174E+03  7.90873E+02  2.25807E+02  2.92413E+03  4.53882E+03  3.40503E+03
 -2.91507E+03  2.05317E+03  5.11506E+03  3.60548E+03  3.16199E+03  1.84804E+03  8.64234E+03  9.30138E+03
  2.17472E+03  1.27330E+04 -1.38057E+04  1.55994E+04 -1.35501E+04  4.82337E+03 -1.64879E+04 -2.61139E+03
 -5.27078E+03 -1.39752E+04  3.11475E+03 -1.70038E+04  3.61467E+03 -4.89224E+03  3.60713E+03 -5.26012E+03
  7.38704E+03  6.99519E+03  6.72047E+03  6.74190E+03 -2.25107E+03  4.00367E+03 -2.31230E+02 -1.44040E+02
 -4.84015E+03 -3.51919E+03  5.89603E+03 -6.10170E+03  6.14653E+03 -2.63941E+03  5.96170E+03 -3.48555E+03
 -3.99241E+03  3.77136E+03  1.62820E+03  4.43393E+03  1.64426E+03  2.64083E+03  2.09865E+02 -2.86033E+03
  4.48085E+03  1.87086E+03  7.60056E+03  2.34330E+03  4.54438E+03  1.06271E+04 -2.68484E+03  7.95101E+03
 -5.64857E+03  1.08509E+04 -9.62034E+03 -1.82453E+03 -5.81748E+03 -2.30891E+02 -7.24601E+03 -7.01287E+03
 -6.86244E+02  1.33402E+03 -8.22071E+01 -5.63807E+03  4.81893E+03 -1.29320E+03 -1.94368E+03  7.66989E+03
 -1.80902E+02  4.50137E+03 -5.04623E+03 -4.14775E+03  3.80502E+03 -7.78270E+03  2.64659E+03 -5.48121E+03
  4.28690E+03 -3.80327E+03  2.95972E+03 -5.80381E+03  1.35107E+03  7.25886E+03  2.21310E+02  6.73849E+03
 -7.97627E+03 -1.41558E+03 -9.73282E+03  6.67519E+02 -4.14352E+02 -3.61686E+03  5.61399E+03 -6.84204E+03
  1.21484E+04  7.87077E+02  3.50881E+03  6.28641E+03 -3.78655E+03  1.05647E+04 -3.36427E+03  7.01606E+03
 -9.47369E+03  7.21705E+03 -4.26126E+03 -4.33243E+03 -1.00391E+03 -1.59790E+03  2.22506E+03 -6.11630E+03
  7.77845E+03 -3.08190E+03  3.54784E+03 -2.23537E+02  4.94527E+03  2.05329E+03  3.70131E+03 -3.28090E+02
 -6.43888E+03  5.68670E+03 -3.49198E+03 -1.42596E+03  9.56295E+02  7.29901E+02 -1.08589E+03  3.73959E+02
 -6.53175E+03  3.55915E+03 -5.41760E+03  5.36994E+03 -1.43752E+04 -9.54401E+02 -4.80643E+03 -4.92775E+03
 -7.57895E+03 -1.24174E+04  1.69391E+03 -1.63889E+04  1.25927E+04 -1.07220E+04  1.45372E+04 -2.74327E+03
  9.24499E+03  7.07019E+02  5.01423E+03  4.23817E+03  2.07630E+03  2.37913E+02 -6.29579E+03  9.77978E+03
 -6.52470E+03  2.51606E+03  1.26991E+03 -1.60434E+03 -2.34307E+03  4.30040E+03  7.06577E+03  5.02516E+03
  7.26091E+02 -2.42126E+03  4.38598E+03  4.77422E+03  1.59435E+02  1.53786E+03  3.32684E+03 -7.63298E+03
  8.35110E+03  6.27937E+01  2.39499E+03 -3.62599E+03  8.39063E+03  6.17847E+03  6.76802E+03  6.55348E+03
 -4.03108E+03  9.65896E+03 -7.92231E+03  1.00538E+04 -1.33769E+04  4.37098E+03 -6.36988E+03 -3.56401E+03
 -4.89095E+03 -6.58700E+03  4.98190E+02 -1.10560E+04  5.17961E+03  1.07759E+03  5.33929E+03 -1.22291E+03
  5.52227E+03  7.70471E+02 -3.02873E+03  1.16694E+03 -7.65371E+02 -3.65491E+03 -4.71763E+03 -3.50337E+03
  6.70132E+03 -5.40581E+03 -7.35398E+02  3.50455E+03  1.88694E+03  2.76963E+03 -8.31163E+02  1.32998E+04
 -2.82896E+03  6.72256E+03 -4.07575E+03 -9.13627E+02 -3.92741E+03 -4.32911E+03  2.59666E+03 -2.65280E+03
  7.07511E+03 -7.38119E+03  2.96574E+03 -1.52641E+02 -1.29893E+03  3.91430E+03  2.18141E+03  7.61927E+03
  2.58355E+03  8.72222E+03 -4.56953E+03  4.23284E+03 -3.54992E+03  4.49342E+03 -7.99744E+03 -9.45221E+02
  4.02869E+03 -3.17011E+03 -1.02876E+03 -1.44089E+03 -3.94983E+03 -1.26987E+03 -9.92457E+03 -2.83864E+03
 -6.66258E+03 -2.25794E+03  1.54326E+03 -1.07541E+04  5.58526E+03 -7.91745E+03  2.04032E+02  2.38479E+03
  5.58147E+03  4.40733E+03 -1.87208E+03 -5.69731E+02 -1.96390E+03  2.95309E+03 -3.91366E+03  5.58559E+03
