 $NMID ID='MM_0lb_SNR50_10hz_g50_52.RAW', FMTDAT='(8E13.5)'
 TRAMP=1., VOLUME=1. $END
  3.06479E+05 -2.78061E+03  3.38184E+05  2.47484E+05  8.82124E+04  3.38331E+05 -1.34404E+05  2.48171E+05
 -1.85736E+05  8.09372E+04 -1.19283E+05 -4.06958E+04 -2.50842E+03 -4.84278E+04  6.05007E+04  2.19712E+03
  2.93804E+04  4.72907E+04 -1.53551E+04  7.39487E+04 -5.49648E+04  6.49118E+04 -8.49819E+04  3.10037E+04
 -8.82714E+04 -1.26176E+04 -6.08231E+04 -5.32716E+04 -1.91454E+04 -6.66480E+04  2.76161E+04 -5.03280E+04
  4.32143E+04  4.28119E+03  1.89850E+04  4.75101E+04 -3.55097E+04  4.77498E+04 -6.49451E+04  6.26476E+03
 -5.29544E+04 -4.86661E+04 -3.38872E+03 -7.25565E+04  3.53694E+04 -5.67358E+04  5.76372E+04 -1.95876E+04
  4.11905E+04  9.27795E+03  2.90026E+04  2.69210E+04  1.78692E+04  3.09430E+04 -2.53402E+03  2.60375E+04
 -2.10271E+04  1.58043E+04 -1.33060E+04 -4.82634E+03  4.41068E+03 -6.11805E+02  2.71863E+04  1.76026E+04
  7.38866E+03  3.85119E+04 -3.66286E+04  4.24386E+04 -6.75666E+04  2.14074E+03 -6.21931E+04 -4.93844E+04
 -1.46710E+04 -6.29911E+04  4.30945E+04 -4.20004E+04  5.64501E+04 -2.10670E+02  2.78296E+04  3.21511E+04
 -5.61591E+03  3.71499E+04 -3.28060E+04  1.44872E+04 -3.30854E+04  2.71938E+03 -1.97163E+04 -1.27554E+04
 -1.53090E+04 -9.79913E+03 -3.13726E+03 -2.15771E+04  8.33311E+03 -2.74819E+04  1.59681E+04 -1.06573E+04
  1.28035E+04  5.18504E+03 -1.75142E+04  1.90595E+04 -2.08084E+04 -6.00817E+03 -8.33915E+03 -3.72000E+04
  2.15470E+04 -4.40543E+04  4.73251E+04 -2.29246E+04  4.67740E+04  1.50192E+04  1.27426E+04  4.42291E+04
 -1.70055E+04  4.10953E+04 -2.87877E+04  5.78974E+03 -7.60763E+03 -2.66000E+04  2.53175E+04 -2.78523E+04
  4.15918E+04 -7.62075E+03  3.86112E+04  3.05053E+04  1.93834E+04  4.59179E+04 -7.01452E+03  5.68029E+04
 -3.75630E+04  3.12071E+04 -4.85895E+04  6.41897E+03 -5.10956E+04 -2.07589E+04 -2.68362E+04 -3.90778E+04
  9.76730E+03 -3.58262E+04  3.19320E+04 -1.42893E+04  3.27759E+04  1.18058E+04  6.72710E+03  1.89486E+04
 -1.56969E+04  1.11122E+04 -1.01420E+04 -1.03686E+04  5.87756E+03 -1.12715E+04  1.85945E+04  3.54342E+03
  1.92092E+04  2.27231E+04 -4.42424E+03  2.62593E+04 -2.60259E+04  1.06749E+04 -3.14536E+04 -3.27443E+03
 -2.20425E+04 -1.64978E+04 -1.15909E+04 -2.69408E+04  8.97075E+03 -2.43454E+04  1.83908E+04 -2.74875E+04
  3.41638E+04 -1.34109E+04  4.62162E+04  8.70533E+03  3.16236E+04  2.52880E+04  7.17426E+03  4.49134E+04
 -1.21561E+04  2.91120E+04 -3.27731E+04  9.48226E+03 -2.30018E+04 -1.23721E+04 -5.07809E+03 -1.36984E+04
  1.35305E+03  7.35892E+02 -6.17908E+03  4.58227E+03 -2.20187E+04  7.20306E+03 -1.84967E+04 -9.05578E+03
 -1.11179E+04 -2.23719E+04  1.90173E+03 -2.81942E+04  2.45487E+04 -2.63810E+04  2.32270E+04 -7.73951E+02
  1.78662E+04  1.51237E+04 -3.74406E+02  3.05100E+04 -1.59318E+04  7.98281E+03 -2.11649E+04 -4.84651E+03
 -1.94190E+04 -1.71773E+04 -4.64912E+03 -2.53837E+04  1.33070E+04 -2.28267E+04  2.44157E+04 -1.41912E+04
  2.59872E+04 -2.70415E+03  1.22651E+04  5.35866E+03  6.11332E+03 -1.24017E+03  1.27921E+04 -1.08677E+04
  2.14916E+04  5.51648E+03  3.05373E+04  2.07569E+04  1.27498E+04  3.90545E+04 -6.37778E+03  4.25280E+04
 -2.86514E+04  3.78064E+04 -3.94272E+04  1.46047E+04 -4.15463E+04 -2.68324E+03 -3.37553E+04 -2.11289E+04
 -1.54391E+04 -3.05050E+04  1.27589E+04 -3.51086E+04  3.00730E+04 -2.14601E+04  2.28895E+04  2.65746E+03
  9.89585E+03  1.52160E+04 -6.69012E+03  2.05541E+04 -2.50843E+04  2.39549E+03 -1.84152E+04 -1.24066E+04
 -4.83305E+03 -1.85585E+04  1.29539E+04 -9.73676E+03  1.51452E+04 -9.51195E+02  1.11442E+04  5.72999E+03
 -5.30189E+03  2.00603E+03 -7.51454E+03 -8.74350E+03 -6.18022E+03 -1.30045E+04  1.26770E+04 -1.68361E+04
  2.46212E+04 -1.11633E+04  2.49910E+04  1.05720E+03  2.02934E+04  2.35313E+04  1.31001E+04  3.08249E+04
 -3.81255E+03  3.27765E+04 -2.21190E+04  1.61366E+04 -2.32171E+04  3.71180E+03 -1.43091E+04  1.60583E+03
 -5.34375E+03 -3.29630E+03  4.01007E+02  3.92870E+02 -6.19073E+03  2.93789E+03 -1.18498E+04  8.45699E+03
 -2.12460E+04 -3.99906E+03 -1.27032E+04 -9.51227E+03 -1.19882E+04 -1.93418E+04  6.06235E+03 -1.21878E+04
  1.21059E+04 -6.85785E+03  5.63095E+03  4.64081E+03 -7.42080E+03 -8.73144E+02 -1.33873E+04 -4.16496E+03
 -7.10902E+03 -7.95309E+03 -7.02477E+03 -1.78616E+04  6.06780E+03 -1.73547E+04  1.80359E+04 -8.43751E+03
  1.96445E+04 -9.76862E+02  1.88328E+04  1.31569E+04  4.08331E+03  1.68165E+04 -8.28932E+03  1.62589E+04
 -7.51684E+03  4.08982E+02 -2.74644E+03 -8.65811E+02  4.91857E+03 -2.72776E+03  3.94229E+03 -5.35132E+03
 -3.09458E+03  3.18145E+03  7.44660E+02  1.19806E+04 -8.01388E+03  1.02987E+04 -1.13337E+04 -6.80267E+02
 -1.62647E+04 -1.32534E+04 -1.58328E+03 -1.26404E+04  2.93742E+03 -9.95692E+03  1.25577E+04  4.00377E+03
  1.20396E+03  9.01700E+03 -2.21117E+03  9.24873E+03 -9.99013E+03  1.03005E+03 -1.01557E+04 -4.08800E+03
 -6.19618E+03 -1.13455E+04  2.15546E+03 -1.30536E+04  8.16038E+03 -7.65168E+03  1.35713E+04  2.61965E+03
  1.11482E+04  1.10677E+04  2.13824E+03  1.38368E+04 -1.08242E+04  9.16553E+03 -1.48594E+04 -2.16421E+03
 -1.09373E+04 -9.93861E+03 -5.89130E+03 -1.00458E+04  9.81188E+03 -1.02062E+04  2.81745E+03 -4.92673E+03
  2.24228E+03  3.17649E+03  1.27687E+02 -1.40258E+03 -5.08987E+03 -1.04299E+03 -6.70877E+03 -1.93712E+03
  6.14441E+03 -3.02615E+03  1.54507E+04 -3.11237E+03  1.44736E+04  1.00702E+04  7.94762E+03  1.91594E+04
 -4.74603E+03  2.48729E+04 -2.11477E+04  1.57521E+04 -1.95448E+04  2.26200E+03 -2.14563E+04 -4.00704E+03
 -1.06151E+04 -1.75707E+04 -1.81239E+03 -1.07158E+04 -2.33045E+02 -8.73429E+03  5.73287E+03 -3.22614E+03
  4.26230E+03 -5.85485E+03 -1.87039E+02 -3.16904E+03 -5.12730E+03 -3.98035E+03  6.37129E+03 -8.89184E+03
  8.69292E+03  4.34886E+03  2.11546E+03  1.21450E+04  1.65985E+03  5.31896E+03 -1.30269E+04  8.16215E+03
 -1.05894E+04  9.98581E+02 -5.68891E+03 -1.31852E+04  3.74988E+03 -1.21334E+04  1.00424E+04 -1.25820E+04
  1.22383E+04 -8.59391E+03  1.69992E+04 -7.00108E+02  9.43883E+03  1.77537E+04 -1.76215E+03  1.76693E+04
 -6.13092E+03  1.38923E+04 -1.00037E+04  3.02101E+03 -6.91800E+03 -6.83879E+03 -3.22425E+03 -1.57710E+02
 -4.37702E+03  1.41770E+02 -4.33208E+03  3.48370E+03 -6.79024E+03  8.01809E+03 -1.51340E+04 -4.09595E+03
 -1.37987E+04 -9.61332E+03  2.17836E+03 -1.86480E+04  8.17028E+03 -1.02024E+04  1.20805E+04 -1.10812E+04
  1.76826E+04  6.02049E+03  4.59195E+03  1.22316E+04  1.71340E+03  1.71759E+04 -7.81227E+03  1.16154E+04
 -1.20315E+04 -4.96360E+02 -1.49154E+04 -8.27626E+03 -8.25094E+02 -8.04964E+03  8.92564E+03 -7.49206E+03
  4.72915E+03 -6.34782E+03  2.25303E+03 -2.11560E+02  2.50726E+03  3.51288E+03 -1.50231E+03  2.12786E+03
 -4.27126E+02 -3.00764E+03  7.72303E+02 -1.38769E+03  1.42567E+03  4.85465E+03 -1.26206E+03  4.27786E+03
 -2.05327E+03  1.14954E+04 -7.25630E+03  1.47061E+04 -1.71788E+04  3.15920E+03 -1.18065E+04 -2.67762E+03
 -2.66205E+03 -1.06781E+04  4.35390E+03 -1.13435E+04  5.45803E+03 -8.08011E+03  9.19157E+03  1.44198E+03
  4.10316E+03  4.09575E+03  1.73131E+03  9.62047E+03 -2.25172E+03  9.85269E+03 -4.38609E+03 -1.27812E+03
 -6.60125E+03 -6.96258E+03  1.91784E+03 -7.56272E+03  6.10814E+03 -3.57892E+03  5.93444E+03  5.57012E+02
  4.83666E+01  4.31808E+03  6.00957E+03  6.11097E+03 -1.90640E+03  2.22528E+03 -5.45017E+03 -7.48268E+03
  1.66107E+02 -4.45604E+02  4.32287E+03  5.38751E+03  9.41966E+03  1.30046E+04  1.97040E+03  8.41851E+03
 -3.82170E+03  5.96430E+03 -2.76028E+03 -1.47325E+03 -1.31029E+04 -2.46742E+03 -1.94472E+03 -4.21607E+03
 -5.24312E+02 -1.86541E+03  1.68548E+03  3.57441E+02 -6.95838E+02  1.37196E+02 -3.68499E+03  1.50714E+03
 -6.56074E+03  2.08722E+03 -8.12769E+03 -7.60943E+03 -5.09438E+03 -4.73797E+03 -1.69038E+03 -9.99106E+03
  8.65382E+03 -1.19935E+03  8.18294E+03  4.04124E+03  2.20220E+03  2.55701E+03 -1.47224E+03  5.68055E+03
 -3.07904E+03 -1.10529E+03 -1.38945E+03  4.73726E+02  4.51258E+02 -4.49476E+03  3.02351E+03  1.93682E+03
  1.05843E+04 -4.19971E+02  8.77587E+03  8.01668E+03  2.28410E+03  5.23635E+03 -1.91715E+02  8.03577E+03
 -5.91176E+03  4.00441E+03 -3.86640E+03 -6.46643E+03 -4.80461E+03 -5.07403E+03  3.17052E+02 -9.75417E+03
  1.03429E+04 -2.20005E+03 -8.69018E+02  6.41288E+03  4.28868E+03  6.18320E+03  9.11695E+02  3.38722E+03
 -5.85958E+03  6.67160E+03  1.18965E+02  1.87712E+03 -4.38739E+03 -6.81008E+03 -1.49838E+03 -3.25584E+03
 -6.29200E+03  2.25661E+03 -4.11055E+03 -7.59605E+02 -1.09389E+04 -5.83872E+03 -6.97893E+03 -4.70054E+03
  8.30350E+02 -1.61735E+04  2.17079E+03 -1.17961E+04  1.01324E+04 -1.42578E+04  1.37581E+04 -2.65352E+03
  1.34860E+04 -5.98423E+02  5.99790E+03  6.73583E+03  3.80517E+03  1.28340E+04 -3.74775E+03  2.06159E+03
 -1.07599E+03  7.93441E+03 -6.34110E+03 -3.50039E+03  7.97779E+02 -5.56589E+02 -3.43978E+03  2.19856E+03
 -6.28448E+02  3.16297E+03 -3.63192E+03 -2.51773E+03 -4.11616E+03  9.37583E+02 -3.92814E+03 -7.65197E+03
  4.77402E+02  1.00568E+01  4.61791E+03 -2.58654E+03  8.63220E+03 -2.39369E-02 -1.72775E+03  1.90422E+04
 -2.42588E+03  1.02632E+04 -8.29810E+03  2.90151E+03 -8.75109E+03 -4.20902E+03 -2.04774E+03 -7.14320E+03
 -8.85300E+02 -9.18677E+03 -1.45305E+03  8.96250E+02  2.24149E+03 -3.69423E+03 -3.63123E+02  3.52751E+03
  1.90988E+02  6.53305E+03  1.45705E+03  1.01120E+04 -2.80996E+03  4.77176E+03  9.00896E+02 -3.07320E+03
  7.06739E+03 -1.14821E+03  6.79097E+03 -2.32171E+03  1.09554E+03  4.31813E+03 -4.13976E+03  1.05883E+04
 -2.10445E+03  9.35642E+03 -4.32821E+03  2.46025E+03 -9.45711E+02 -8.70542E+03  4.16136E+03 -5.84261E+03
  9.93624E+03 -4.67911E+03  3.82405E+03 -3.66450E+03  6.28318E+03 -1.22452E+03  5.15757E+03  1.60723E+03
  3.65473E+03 -2.69232E+03 -7.52657E+03  8.69059E+03 -4.32450E+03  7.51273E+03 -3.68787E+03 -1.47964E+03
  2.63613E+03  1.49263E+03  5.09355E+03  3.52880E+03 -3.50967E+03  1.12322E+03 -7.14652E+03  7.23988E+02
 -4.06466E+03 -1.34037E+03 -1.17994E+03 -3.15832E+03  3.25842E+03 -2.95375E+03  4.87586E+03 -9.34445E+02
  6.85098E+03  4.36115E+03 -9.27774E+02  3.75357E+03  1.19620E+03  6.91672E+03 -1.02507E+03  3.06878E+03
