 $NMID ID='MM_0lb_SNR50_17hz_g55_54.RAW', FMTDAT='(8E13.5)'
 TRAMP=1., VOLUME=1. $END
  3.12685E+05  8.52613E+02  3.36036E+05  2.48973E+05  8.35853E+04  3.37808E+05 -1.32214E+05  2.46875E+05
 -1.92268E+05  8.44509E+04 -1.12172E+05 -3.64085E+04  3.07289E+02 -4.92566E+04  5.31870E+04  7.89326E+02
  3.74270E+04  5.26967E+04 -1.40060E+04  7.40212E+04 -6.02071E+04  6.15672E+04 -8.64847E+04  3.20597E+04
 -7.79270E+04 -1.12465E+04 -5.72695E+04 -5.17766E+04 -1.11802E+04 -7.14031E+04  3.01694E+04 -4.36924E+04
  4.11559E+04  3.55668E+03  1.27709E+04  4.94460E+04 -3.40759E+04  4.41302E+04 -6.72246E+04 -2.50252E+03
 -5.12503E+04 -5.86597E+04 -4.21018E+03 -7.16767E+04  3.64214E+04 -5.38168E+04  4.74024E+04 -1.28532E+04
  4.24102E+04  9.50251E+03  3.28904E+04  1.92761E+04  1.46344E+04  2.99353E+04 -3.51561E+03  2.35958E+04
 -1.73930E+04  1.15612E+04 -2.22825E+04 -4.27816E+03  6.39698E+03 -5.00046E+03  2.41011E+04  9.08888E+03
  6.25200E+03  4.13793E+04 -3.12208E+04  3.59791E+04 -6.78750E+04  3.19908E+03 -5.61798E+04 -4.00469E+04
 -1.30343E+04 -6.36446E+04  3.82190E+04 -4.64309E+04  5.58547E+04 -5.49972E+03  3.16452E+04  3.13905E+04
 -3.00473E+03  3.31617E+04 -3.02766E+04  1.40158E+04 -2.82347E+04 -6.96603E+03 -1.41677E+04 -9.47613E+03
 -4.82522E+03 -1.33908E+04  6.21341E+02 -2.02040E+04  5.18978E+03 -2.53155E+04  1.65522E+04 -1.78735E+04
  1.03771E+04  4.61183E+03 -2.98393E+03  1.38621E+04 -2.07742E+04 -3.27330E+03 -1.22424E+04 -3.33466E+04
  2.32938E+04 -4.45624E+04  4.82885E+04 -1.97223E+04  4.76391E+04  1.77189E+04  1.41965E+04  4.21470E+04
 -1.51037E+04  3.08099E+04 -2.73216E+04  2.88188E+03 -1.02611E+04 -2.67322E+04  2.16568E+04 -3.14095E+04
  3.84407E+04 -8.76561E+03  3.66415E+04  2.79111E+04  1.62926E+04  4.54582E+04 -1.29688E+04  5.17960E+04
 -3.21633E+04  3.07680E+04 -3.90944E+04  7.79130E+03 -4.50572E+04 -1.68146E+04 -1.87821E+04 -3.50905E+04
  3.73984E+03 -3.65978E+04  2.71275E+04 -1.30180E+04  2.58902E+04  1.22137E+04  2.91417E+03  2.10787E+04
 -1.60067E+04  2.59718E+03 -9.51545E+03 -9.68500E+03  3.37661E+03 -8.55249E+03  1.44101E+04  7.29614E+03
  1.02202E+04  2.67228E+04 -6.48624E+03  2.31435E+04 -2.36898E+04  1.00948E+04 -2.87470E+04 -3.35109E+03
 -1.92863E+04 -1.65626E+04 -4.94881E+03 -1.98669E+04  2.64868E+03 -1.91167E+04  1.44265E+04 -1.53364E+04
  2.25095E+04 -1.39251E+04  3.41465E+04 -1.27298E+03  2.18630E+04  2.03951E+04  5.40067E+03  3.87453E+04
 -1.34877E+04  2.66076E+04 -3.05233E+04  7.51382E+03 -1.98359E+04 -7.42048E+03 -3.72703E+03 -1.34189E+04
  4.99306E+02 -4.12551E+03  6.40883E+02  8.11490E+03 -1.62153E+04  4.42290E+03 -1.24505E+04 -7.66745E+03
 -8.63084E+03 -1.92755E+04  4.83795E+03 -2.13995E+04  1.58385E+04 -1.29335E+04  1.72074E+04 -1.57693E+03
  9.87235E+03  9.86260E+03 -3.55955E+03  1.70451E+04 -9.86372E+03  6.51861E+03 -1.45289E+04 -4.12161E+03
 -1.11340E+04 -2.17625E+04  1.35711E+03 -2.24503E+04  9.57657E+03 -1.94332E+04  1.32777E+04 -5.87325E+03
  1.61290E+04 -5.26255E+02  1.00729E+04  2.16977E+03  5.20581E+03  2.43772E+03  9.01417E+03 -1.92547E+03
  1.61121E+04 -9.40510E+02  1.75659E+04  1.89018E+04  8.82333E+03  2.58916E+04  4.11655E+02  2.97661E+04
 -1.95806E+04  2.42191E+04 -3.09517E+04  1.02965E+04 -2.70381E+04 -3.94365E+03 -2.22333E+04 -1.92945E+04
 -1.09858E+04 -2.36450E+04  8.97435E+03 -2.08616E+04  1.83796E+04 -1.57859E+04  1.51789E+04  3.90633E+03
  5.55444E+03  1.12824E+04 -1.05671E+04  1.24281E+04 -1.68503E+04 -1.47953E+03 -1.45179E+04 -1.33969E+04
 -5.46412E+03 -1.09633E+04  1.11091E+04 -1.32449E+04  1.99012E+03 -1.54906E+03  4.53334E+03  7.23239E+03
 -3.98542E+03  1.13723E+03 -6.68459E+03 -2.18809E+03 -3.01605E+03 -9.20816E+03  1.04413E+04 -1.10709E+04
  1.86889E+04 -8.12757E+03  1.62373E+04  1.41138E+03  1.14217E+04  1.10121E+04  5.04909E+03  1.71256E+04
 -3.50199E+03  2.03268E+04 -1.35849E+04  1.20954E+04 -1.23703E+04  3.55245E+03 -6.35975E+03 -4.98536E+03
 -8.92668E+03  2.74034E+02 -2.90510E+02  2.39761E+03 -5.47117E+03  1.16617E+03 -6.02783E+03  2.68730E+03
 -1.15754E+04 -4.52123E+03 -8.12909E+03 -6.68959E+03 -3.25451E+03 -1.14159E+04  2.64156E+03 -1.01408E+04
  8.31216E+03 -2.54244E+03  5.70134E+03 -3.63297E+02  8.70106E+02  6.59840E+03 -5.50344E+03 -1.32675E+02
 -3.11057E+03 -5.42935E+03 -3.33901E+03 -8.84431E+03  7.91765E+03 -1.16880E+04  1.70265E+04 -3.46865E+03
  1.11343E+04 -1.90849E+03  9.86613E+03  1.06212E+04  7.82907E+02  9.14236E+03 -6.49631E+03  6.47498E+03
 -6.48405E+03  2.28254E+03 -1.14864E+03 -8.23738E+02  1.83396E+03 -3.16725E+03  6.55041E+03 -2.60113E+03
  3.53219E+03  5.38540E+03 -3.22954E+03  6.45738E+03 -4.83596E+03  7.30139E+03 -9.35238E+03  4.22724E+03
 -5.98353E+03 -3.30668E+03  1.19805E+03 -5.94424E+03  1.27351E+03 -7.81943E+03  5.04668E+03  2.56685E+03
  2.43640E+03  1.45002E+03 -4.34391E+03  3.61942E+03 -5.03888E+03  4.82525E+03 -5.97685E+03 -3.94803E+03
 -5.89469E+03 -4.06006E+03  2.00455E+03 -7.06006E+03  6.51451E+03 -6.38357E+03  2.37555E+03  4.71281E+03
  9.57809E+03  3.68913E+03  6.15152E+03  7.48620E+03 -4.92118E+03  2.83350E+03 -3.64707E+03 -5.53433E+02
 -3.32783E+03 -6.18467E+03 -1.57674E+03 -7.27325E+03  4.20553E+03 -6.31058E+03  1.92220E+03 -4.38893E+03
  2.70336E+03 -1.20400E+03 -4.02228E+03  6.47673E+02  4.84905E+03 -5.49890E+03 -3.60445E+03 -1.00236E+03
  5.68394E+03 -4.06521E+02  7.21770E+03  2.40374E+03  9.67588E+03  3.11325E+03  7.89377E+03  9.13569E+03
 -8.67499E+02  1.35860E+04 -6.09831E+03  7.77544E+03 -1.45091E+04 -1.19319E+03 -1.11923E+04  2.88557E+03
 -3.38187E+03 -8.37969E+03 -9.89519E+02 -5.16585E+03  1.28094E+03 -4.77375E+03  5.26839E+03 -7.61158E+03
  2.49047E+03 -3.31169E+03  1.71477E+03 -5.53892E+02  2.77875E+03 -1.18924E+03  5.55514E+02 -1.36052E+03
  4.79993E+03  1.64008E+03 -1.65440E+03  3.12927E+02 -1.36584E+03  5.64027E+03 -4.74405E+03  2.17820E+03
 -4.34360E+03 -1.42894E+03 -4.78181E+03 -2.94997E+03  1.39355E+03 -4.27575E+03 -3.30311E+03 -5.64365E+03
  6.26824E+03 -5.74177E+02  7.85973E+03 -8.46958E+02  8.44885E+03  4.32035E+02  9.68489E+02  4.60525E+03
 -1.13586E+01  5.57792E+03 -3.42512E+03 -2.29824E+02 -2.76041E+01 -1.50625E+03 -2.25157E+02 -9.20603E+02
  3.31691E+03  2.05724E+03 -6.83125E+02  5.15694E+02 -4.31233E+03  3.31768E+03 -7.50944E+03  1.87469E+03
 -8.46697E+02 -2.64178E+03  6.76452E+02 -1.73937E+03  6.48636E+03 -3.81767E+03  8.32150E+03 -4.13181E+03
  8.63201E+03  6.85982E+02  4.45286E+03  5.72456E+02 -4.32963E+03  3.81468E+03 -7.62232E+03  3.78973E+03
 -1.11888E+04  2.08196E+03 -7.30355E+03 -4.14006E+03  2.17084E+03 -8.29186E+03  3.94852E+02 -8.81143E+03
  3.34543E+02 -2.60640E+03  2.75277E+03  5.38557E+02  8.60556E+02  3.39452E+03  4.73989E+03  5.64882E+03
  2.94139E+03 -2.33901E+03  1.35563E+02 -7.29924E+02  2.83761E+03  4.03164E+03  2.66372E+03  4.50293E+03
 -7.02847E+02  3.55021E+03 -3.16848E+03  3.29127E+03  2.47434E+02 -1.18844E+03 -7.24946E+03 -2.03303E+03
 -2.07321E+03 -4.46377E+03 -4.39297E+03 -5.11113E+03  3.99639E+03 -8.22625E+02  1.73819E+03  8.59625E+02
  1.48535E+03 -5.75252E+03 -5.36211E+02  1.67076E+03 -5.37410E+02  1.51556E+03  1.94058E+03  8.44626E+02
  2.91309E+03 -1.21748E+03  5.46395E+03  2.31708E+03  2.21238E+03 -5.78727E+03 -3.98186E+03 -7.51784E+02
  5.11772E+03 -1.98459E+03 -8.43159E+02 -1.03406E+03  1.35792E+02  1.66133E+03  3.43727E+02  1.64775E+03
  4.08692E+03 -1.20692E+03  5.05839E+03 -1.53775E+03  3.35691E+03  2.41407E+03 -1.07854E+03  4.50749E+03
 -3.21251E+03  5.03997E+03  2.13582E+03  4.87808E+03 -3.12109E+03 -1.70776E+03 -6.69263E+02 -4.51318E+02
 -8.37765E+02 -4.10745E+02  5.57448E+03 -2.83553E+03  3.79223E+02  1.10635E+03 -2.98385E+03  1.30683E+03
 -1.41293E+03  4.62256E+02 -7.46148E+02 -2.56775E+03 -7.71488E+02 -3.76378E+03  9.05632E+02 -6.82846E+02
 -1.57628E+03 -1.20781E+03 -1.02427E+03 -9.51623E+02  5.26528E+03 -1.68619E+03 -1.34044E+03  2.42151E+03
 -1.33487E+03  1.74759E+03  1.48874E+03 -2.34949E+03  9.43693E+02  5.49592E+03  3.74896E+02 -3.26244E+03
  2.73875E+03  3.77926E+03  1.93632E+03 -3.21747E+02  2.51370E+03  2.06662E+03 -1.34814E+02  1.58195E+03
 -1.98287E+03  2.82831E+03  1.33267E+02 -4.61626E+02 -1.23147E+03 -3.54929E+03  4.34730E+03  2.92705E+03
  5.18578E+03 -3.37469E+02 -4.15949E+03 -2.87699E+03  2.55507E+02  5.30754E+03 -5.89925E+01  1.98284E+03
 -3.93501E+03  2.24928E+02 -4.45431E+03 -2.12082E+03  2.22701E+03  5.17418E+03  3.28597E+02  8.76325E+02
 -4.13756E+03  4.14183E+03 -1.65580E+03 -1.35715E+03 -1.01068E+02  3.59692E+03 -2.87611E+03 -2.06266E+03
  4.74406E+02 -3.32071E+03 -8.11508E+02 -5.98626E+03  3.03593E+03 -4.37840E+02  3.69971E+03 -5.34010E+02
 -5.88185E+02 -4.61675E+03 -4.44081E+02  3.33404E+03  5.63779E+03  3.25360E+03  4.83855E+03 -7.69546E+02
 -2.30006E+03  4.33017E+03 -5.81629E+02 -3.48789E+03 -2.38772E+03 -3.95711E+02 -3.55039E+02 -1.58957E+02
  1.41910E+03  2.79845E+03  2.39801E+03 -3.27480E+02  1.57387E+03  2.64256E+03 -2.86302E+03 -2.14224E+01
  3.39204E+03 -1.48121E+03  9.84501E+01 -2.04781E+03  1.89394E+03  1.29229E+03 -2.77407E+03  2.07786E+03
 -5.56759E+03  4.81188E+03 -6.54323E+02  2.95641E+01 -5.31816E+03  6.57007E+02 -3.30655E+03 -1.56819E+03
  1.84843E+02 -3.76871E+03 -9.43023E+02 -2.05168E+03 -8.12533E+02  2.73088E+01 -3.61340E+03  2.58321E+03
  1.65593E+03  5.87739E+02 -5.20163E+02 -1.80392E+03 -3.04168E+03  1.47782E+03 -5.49029E+02 -1.13104E+03
  1.33829E+03 -5.95134E+02  2.53357E+03  1.94643E+02 -1.13744E+03 -1.04187E+03 -2.86526E+03 -7.35167E+02
 -3.38533E+03  4.19676E+03 -8.61682E+01 -7.99897E+01  1.01756E+03 -2.39247E+03  1.71077E+03 -2.84582E+03
  2.54574E+03 -2.90224E+03 -7.36366E+02 -1.16961E+03  2.02537E+03  3.47493E+03 -4.86302E+03  1.33382E+03
  2.14725E+03  4.13235E+03 -2.25375E+03  2.43776E+03 -1.50889E+03  5.94241E+03  4.49723E+03 -4.87342E+02
  3.09529E+03 -2.42426E+03 -4.09010E+03  4.89984E+03 -8.11717E+01  2.27614E+03  3.53981E+02  7.76826E+02
 -1.60935E+03  6.45859E+02  6.23149E+02 -2.19843E+03 -1.45299E+02 -2.43876E+03  2.88688E+03  3.03308E+02
  2.64671E+03 -4.75161E+02 -1.31225E+03 -1.55066E+02  6.26726E+02  4.49368E+03 -1.22172E+02  5.20598E+03
