 $NMID ID='MM_0lb_SNR50_18hz_g50_16.RAW', FMTDAT='(8E13.5)'
 TRAMP=1., VOLUME=1. $END
  3.11370E+05  4.98658E+03  3.42112E+05  2.52369E+05  8.29481E+04  3.34890E+05 -1.35328E+05  2.51756E+05
 -1.92739E+05  7.86241E+04 -1.07027E+05 -3.81544E+04  3.41657E+03 -5.32383E+04  5.52502E+04 -3.39788E+03
  3.49264E+04  4.97819E+04 -1.68309E+04  7.68859E+04 -6.40770E+04  6.09579E+04 -8.49426E+04  3.31016E+04
 -7.71423E+04 -1.10196E+04 -5.67024E+04 -5.19686E+04 -1.62769E+04 -6.73856E+04  2.18775E+04 -4.67899E+04
  4.25291E+04  4.22619E+03  1.87311E+04  4.93911E+04 -3.08601E+04  4.94578E+04 -6.88196E+04 -1.07967E+03
 -5.50071E+04 -5.62298E+04 -5.44656E+03 -7.54628E+04  3.00066E+04 -5.73598E+04  4.96226E+04 -1.93738E+04
  4.48530E+04  5.04198E+03  2.94563E+04  2.44009E+04  1.89753E+04  2.94347E+04 -8.81464E+03  2.92145E+04
 -2.03204E+04  7.61338E+03 -2.15551E+04 -5.54590E+03  2.80530E+03 -4.80311E+03  2.02551E+04  1.00846E+04
  8.70494E+03  3.57988E+04 -3.38835E+04  3.69538E+04 -6.13338E+04  5.91150E+02 -5.70127E+04 -4.05389E+04
 -1.19892E+04 -6.50577E+04  3.82329E+04 -4.70353E+04  5.86511E+04 -3.16115E+03  3.29807E+04  3.17078E+04
 -4.77856E+03  3.98115E+04 -2.79500E+04  1.78810E+04 -2.85043E+04 -5.08616E+03 -1.62656E+04 -1.02489E+04
 -3.91451E+03 -9.17658E+03 -1.72842E+03 -1.82049E+04  6.84119E+03 -2.51374E+04  1.58880E+04 -1.42328E+04
  1.52184E+04 -1.01558E+03 -3.78966E+03  1.35214E+04 -1.90280E+04 -5.13401E+03 -4.42134E+03 -2.86035E+04
  1.86321E+04 -4.26158E+04  4.31591E+04 -2.30437E+04  4.26867E+04  2.25538E+04  1.71694E+04  4.20094E+04
 -1.76685E+04  3.41453E+04 -2.62678E+04  3.57824E+03 -5.56598E+03 -2.72727E+04  1.93137E+04 -3.18267E+04
  3.87235E+04 -5.08749E+03  3.66764E+04  2.57681E+04  1.54581E+04  4.63997E+04 -5.72321E+03  4.56074E+04
 -2.82821E+04  3.31028E+04 -4.04645E+04  5.98673E+03 -3.55060E+04 -1.64396E+04 -2.28419E+04 -3.52236E+04
  1.20537E+04 -3.43309E+04  3.24676E+04 -1.25107E+04  2.73003E+04  1.17132E+04 -2.42425E+03  1.49856E+04
 -1.18496E+04  1.09761E+04 -7.59289E+03 -6.90889E+03  6.24393E+03 -1.09856E+04  1.75938E+04  8.13593E+03
  7.83474E+03  1.84289E+04 -6.03096E+03  2.63018E+04 -2.13523E+04  1.18832E+04 -2.46092E+04 -5.08510E+03
 -1.33940E+04 -1.56507E+04 -4.55725E+03 -1.63192E+04  4.84338E+02 -1.90465E+04  1.21070E+04 -1.85313E+04
  2.15363E+04 -1.68083E+04  2.89268E+04  1.00774E+03  2.58160E+04  1.91670E+04  5.14162E+03  3.34812E+04
 -1.71293E+04  2.88121E+04 -2.57558E+04  5.97074E+03 -2.00644E+04 -1.06896E+04 -4.56486E+03 -1.43248E+04
  4.85377E+03 -6.64114E+03 -3.48539E+03  3.76727E+03 -1.64631E+04  4.83691E+03 -1.38180E+04 -1.23577E+04
 -9.36002E+03 -1.58522E+04  6.37441E+03 -1.88118E+04  8.98462E+03 -1.75716E+04  1.18424E+04 -3.67751E+03
  7.94180E+03  1.04199E+04  1.01904E+03  1.94343E+04 -7.41927E+03  8.26439E+03 -1.76359E+04 -4.88279E+03
 -9.83103E+03 -1.27577E+04 -1.40959E+03 -2.20103E+04  5.92191E+03 -1.86903E+04  1.88962E+04 -8.47110E+03
  9.26672E+03  7.33239E+02  1.08819E+04  1.70961E+03  1.00142E+04 -5.95942E+03  1.02499E+04 -4.57970E+03
  1.08106E+04  3.81862E+03  1.84714E+04  1.91373E+04  9.78835E+03  2.78992E+04 -2.10747E+03  2.54353E+04
 -1.42249E+04  2.10480E+04 -2.55527E+04  1.17815E+04 -2.73685E+04  2.34496E+03 -2.54964E+04 -1.19222E+04
 -1.02782E+04 -2.18923E+04  1.01059E+04 -2.31999E+04  2.03676E+04 -9.04465E+03  1.19257E+04 -6.27141E+02
  7.17701E+03  1.22788E+04 -7.47105E+03  1.40740E+04 -1.20418E+04  3.14959E+03 -1.05515E+04 -7.84901E+03
 -1.72427E+03 -1.50450E+04  9.38848E+03 -9.77519E+03  9.27715E+03 -1.48607E+03  5.13483E+03  4.25150E+03
 -3.69021E+03  2.97729E+02 -7.68168E+03 -2.73072E+03 -3.29095E+03 -1.06858E+04  1.10987E+04 -1.21365E+04
  1.35364E+04 -6.65020E+03  1.30336E+04  3.70242E+03  1.29853E+04  5.78840E+03  4.44082E+03  1.53129E+04
  5.27452E+02  1.86667E+04 -1.72562E+04  1.21018E+04 -8.16576E+03  3.45083E+03 -1.11708E+04 -1.60886E+03
 -5.70795E+03 -4.34469E+03 -2.38543E+03  3.72472E+02 -5.31353E+03 -1.52444E+03 -3.84557E+03  5.02361E+03
 -8.54654E+03  2.27040E+03 -1.18798E+04 -1.01059E+04 -2.72560E+03 -1.59033E+04  4.40178E+03 -1.31739E+04
  7.76926E+03 -6.35158E+03  4.02074E+03  5.92668E+02 -3.44357E+03  3.04976E+03 -4.39986E+03 -3.11814E+03
 -2.68825E+03 -2.93005E+03  2.24910E+03 -6.38209E+03  3.46895E+03 -7.91406E+03  1.08262E+04 -2.25624E+03
  1.17965E+04  1.33667E+03  7.14299E+03  8.33058E+03  2.57561E+03  1.03742E+04 -6.06761E+03  1.01433E+04
 -9.30099E+03  4.79894E+03 -2.79995E+02 -2.60822E+03 -1.59953E+03  3.96334E+03  4.30876E+03  1.30784E+03
  4.08815E+03  6.68527E+03 -2.10810E+03  4.04168E+03 -1.04754E+04  5.40242E+03 -8.28403E+03  4.94210E+02
 -8.52727E+02 -2.60011E+03  1.64534E+03 -9.91564E+03  4.25932E+03 -3.88857E+03  4.78093E+03  3.14707E+03
  5.83850E+02  4.72998E+03 -6.21462E+03  1.26852E+04 -7.22463E+03 -2.92615E+03 -9.72150E+03  9.82310E+02
 -3.14045E+03 -6.51852E+03 -3.07111E+03 -6.19645E+03  8.62624E+03 -3.57084E+03  6.74942E+03  8.68837E-01
  2.14646E+03  8.28667E+03  1.74625E+03  8.90008E+03 -6.01726E+03  6.10653E+03 -8.85376E+03  2.47571E+03
 -5.34435E+03 -5.17850E+03 -1.34817E+03 -6.72434E+03 -3.05400E+02 -8.24189E+03  6.47977E+03 -6.25479E+03
 -3.76394E+02  1.86567E+03 -4.04268E+03  4.95919E+02 -8.37817E+02 -2.14582E+03  5.39822E+02  1.23889E+02
  3.77771E+03 -4.79122E+03  9.34731E+03  1.54703E+03  3.25274E+03  1.96180E+03  9.49011E+03  6.13498E+03
 -9.63383E+02  4.85353E+03 -5.23164E+03  9.22644E+03 -1.26068E+04  1.86746E+03 -5.99002E+03 -2.57179E+03
 -2.91478E+03 -6.57425E+03 -2.34983E+03 -6.86347E+03  1.73066E+03 -3.81716E+02  1.17161E+03 -4.16515E+03
 -9.61504E+02 -4.21498E+03  3.41064E+03 -2.51560E+03  3.83499E+03  4.03320E+02  2.59264E+03  3.85093E+03
  5.55950E+03  8.55899E+02 -3.83952E+03  2.88059E+03 -3.99222E+02  3.40586E+03 -6.00333E+03  5.54599E+03
 -7.09225E+03  2.56182E+03 -4.04551E+02 -2.81567E+03 -5.38719E+02 -3.17210E+03  4.92915E+03 -7.20022E+03
  9.34223E+03 -1.76199E+03  8.28629E+03  3.24824E+02  2.76781E+03  3.32707E+03  4.41375E+03  4.69601E+03
 -1.71547E+02  3.36898E+03 -6.24154E+03 -1.38813E+03 -3.84718E+03 -2.56855E+03 -2.03236E+03  2.46632E+03
  1.03826E+03  7.13929E+03 -5.56103E+02  6.06514E+03  4.68003E+02 -3.26173E+02  1.47680E+03  6.79526E+03
 -4.75529E+02 -6.24324E+03  2.26595E+03  1.22310E+03 -1.37219E+03 -1.53940E+03  3.79290E+03  8.55311E+02
  4.80821E+03  3.41944E+03  2.74639E+03  3.58912E+02 -2.39701E+03  3.31302E+03 -2.12901E+03  2.17029E+03
 -4.73094E+03  2.70640E+03 -4.53980E+03 -2.84624E+03 -8.27839E+02 -2.87904E+03  1.46659E+03  4.66537E+03
  2.04318E+03 -1.04461E+03 -5.18514E+03  8.82156E+02  3.75792E+02  8.33833E+01 -1.66101E+02  2.67666E+02
  2.17406E+03  1.14302E+03  3.10874E+03  9.14240E+02 -7.12423E+03  2.96553E+03  2.25305E+03  3.27106E+03
  1.72634E+03  1.13811E+03 -3.57690E+03  7.07541E+03 -1.09977E+03  2.59934E+03 -3.15810E+03  1.50922E+03
  2.23208E+03 -6.46381E+03 -1.54742E+02 -3.95637E+03 -1.00439E+03 -3.19416E+03  3.79646E+03 -1.61535E+03
 -8.62160E+02  1.80057E+03  2.24782E+03  2.59167E+03  3.90429E+02  5.66524E+03 -5.04957E+02  2.40072E+03
 -1.92095E+03  1.30348E+03  3.09699E+03 -2.27750E+02  1.34004E+03 -2.04578E+03  2.07082E+03  6.37003E+02
  1.78086E+03  3.73255E+03  5.96848E+03 -1.75273E+03  2.38677E+03 -1.70337E+02 -7.48793E+02  5.22634E+01
  2.94335E+03 -8.72846E+02  4.48144E+03 -2.34694E+03 -1.68450E+03  3.83429E+02 -3.02357E+03  6.24707E+03
 -3.53677E+03  2.39761E+03 -1.58816E+03  1.21777E+03 -4.70638E+03  9.84917E+01  1.05668E+03 -3.32247E+03
  1.91655E+03 -1.84950E+03 -4.67876E+03 -4.59630E+03 -2.23640E+02  6.14054E+03  1.49091E+03  2.45920E+03
  7.50496E+02  1.14359E+03  2.14085E+03  6.21241E+02  6.01116E+02 -2.41391E+03 -6.55865E+02  9.99065E+02
  6.01350E+03 -1.79195E+03  4.34400E+03 -2.13650E+03  1.43699E+03 -3.42269E+02  1.05083E+03  1.62826E+03
  2.72493E+03  1.76729E+03 -1.68983E+03 -1.94284E+03  2.15643E+02 -3.97474E+03  5.31839E+02 -2.13087E+03
 -5.06597E+03 -2.28981E+03  3.50106E+03  5.37846E+03  1.84283E+02 -2.54563E+02 -2.26412E+03 -6.70116E+01
 -6.15872E+03  1.55138E+03 -2.25790E+03  1.54220E+02  1.62785E+02 -2.63931E+03 -1.35094E+02 -2.74736E+03
 -7.74490E+02 -1.57663E+03  4.85631E+03  9.74251E+01 -5.67604E+02  3.38313E+02 -3.52425E+03 -6.98131E+02
 -2.00595E+03  6.60340E+03 -2.67391E+03  6.02657E+03  2.75318E+03  5.00520E+03 -9.36350E+02  4.93833E+03
 -1.02964E+03  1.88935E+03  2.96881E+03 -1.80897E+03 -3.71154E+03  2.39686E+03 -2.99949E+03 -2.27756E+03
 -3.58192E+03 -3.39348E+03 -1.23976E+03 -9.61263E+02  1.30886E+03 -7.11420E+02  4.59793E+03 -2.46821E+03
  3.93469E+03  8.91591E+02  1.35367E+03  6.74382E+01 -3.86172E+03  9.17634E+02  7.44972E+02 -9.04675E+02
 -2.80116E+02  2.73342E+03 -1.11421E+03 -2.50753E+03 -6.74207E+02 -4.42221E+01  3.22546E+03 -2.53802E+03
  1.02591E+03 -4.24980E+03 -2.15222E+03 -4.44633E+02  4.59521E+02 -5.35512E+03 -5.02459E+03  4.58386E+02
  3.04334E+03  2.55809E+03 -1.94160E+03 -1.15297E+03 -1.41144E+03 -2.08558E+02 -1.85327E+03  2.76220E+03
  9.39190E+02 -7.28604E+01  6.56578E+02  2.83939E+03 -2.03908E+03 -8.56406E+02 -2.34173E+03  2.49390E+03
 -1.11615E+03 -3.99468E+03  1.46771E+03  4.42320E+02  2.86140E+03  2.91732E+03 -2.88774E+03  1.12466E+03
 -2.81735E+03  2.33573E+03  2.87445E+02  7.82206E+03 -3.54136E+03  2.15481E+03 -3.06495E+03 -1.76249E+03
  1.61178E+03  8.55185E+02 -2.28757E+03 -1.62862E+03 -2.54041E+03 -6.92844E+02  2.94770E+03 -1.04913E+03
  7.95382E+02  1.01943E+03  2.83716E+03 -2.11705E+03 -5.28196E+03 -1.61297E+03 -1.34315E+03  2.31763E+03
  2.51622E+03  1.83750E+03  1.07461E+03  4.08028E+03 -1.81290E+03 -3.24407E+03  1.85282E+03  2.49462E+03
  2.27410E+03  2.39556E+03 -1.31211E+02  1.62223E+03  5.52987E+02  5.48045E+02 -1.67137E+03 -7.89506E+02
 -3.76546E+03 -3.61467E+03  4.38779E+03 -2.31641E+03 -4.88874E+03  5.41177E+03 -1.88497E+03  2.03878E+03
 -2.06303E+03 -5.10592E+02  1.08795E+03 -2.48267E+03 -2.62717E+02  7.70980E+02 -4.52704E+02 -5.85488E+03
  1.18316E+03 -4.32444E+03 -2.70496E+03 -5.67769E+02  1.48331E+03  5.89800E+02 -4.01241E+03 -1.37291E+03
