 $NMID ID='MM_0lb_SNR50_13hz_g55_4.RAW', FMTDAT='(8E13.5)'
 TRAMP=1., VOLUME=1. $END
  3.05728E+05  3.15134E+03  3.37546E+05  2.49897E+05  8.43054E+04  3.37355E+05 -1.32099E+05  2.54343E+05
 -1.87933E+05  8.42678E+04 -1.10089E+05 -3.43597E+04 -9.80070E+02 -5.41159E+04  5.48642E+04 -6.00183E+02
  3.64255E+04  5.64803E+04 -1.88858E+04  7.32398E+04 -5.97235E+04  6.17617E+04 -8.42212E+04  3.35534E+04
 -7.96834E+04 -9.80371E+03 -6.06938E+04 -5.54288E+04 -1.51254E+04 -7.15783E+04  3.05546E+04 -4.62639E+04
  4.29200E+04  1.02992E+04  1.79258E+04  4.62693E+04 -3.29751E+04  4.75068E+04 -6.92387E+04 -7.39605E+03
 -5.41548E+04 -5.88976E+04 -2.56562E+03 -7.69068E+04  3.57013E+04 -5.20761E+04  4.55925E+04 -1.27186E+04
  4.18163E+04  1.29577E+04  3.27734E+04  2.44429E+04  1.95276E+04  2.39592E+04 -5.20271E+03  2.91600E+04
 -2.07219E+04  1.21917E+04 -2.34977E+04 -6.69475E+03  8.63221E+03 -8.91499E+03  1.95770E+04  1.33511E+04
  3.06212E+03  3.82047E+04 -3.50583E+04  3.75481E+04 -5.90830E+04  1.03522E+03 -5.89913E+04 -4.89628E+04
 -1.27133E+04 -5.91751E+04  4.12275E+04 -4.61269E+04  5.81960E+04  1.30268E+03  4.05033E+04  2.95557E+04
 -6.06225E+03  3.81331E+04 -2.72100E+04  1.56953E+04 -3.27258E+04 -6.68257E+03 -1.83743E+04 -1.27169E+04
 -1.41189E+04 -1.65943E+04 -6.10546E+03 -1.95573E+04  9.00784E+03 -2.41066E+04  1.67625E+04 -9.25029E+03
  1.26581E+04  5.85036E+03 -1.09678E+04  1.56060E+04 -2.09945E+04 -1.38245E+03 -1.24074E+04 -3.45144E+04
  2.86844E+04 -4.18456E+04  5.02535E+04 -1.99731E+04  4.68136E+04  1.83688E+04  1.69225E+04  4.05106E+04
 -1.51247E+04  3.50299E+04 -2.46595E+04  3.87735E+03 -8.02453E+03 -2.64513E+04  2.42892E+04 -3.78574E+04
  4.19367E+04 -9.79540E+03  3.54521E+04  2.22503E+04  1.80549E+04  5.09465E+04 -7.15416E+03  5.19669E+04
 -3.08104E+04  3.50624E+04 -4.48142E+04  1.54965E+04 -4.38586E+04 -1.38060E+04 -2.13765E+04 -3.74932E+04
  1.40057E+04 -3.82667E+04  3.55821E+04 -1.92436E+04  2.98448E+04  1.29769E+04  1.03160E+03  1.94700E+04
 -1.32095E+04  1.45134E+04 -9.91579E+03 -7.24847E+03  1.12684E+04 -8.43054E+03  2.28779E+04  7.55419E+03
  8.93979E+03  2.18172E+04 -2.72583E+03  2.53271E+04 -2.49909E+04  1.47458E+04 -3.80849E+04 -4.86049E+03
 -2.31190E+04 -1.99798E+04 -9.11689E+03 -1.88639E+04  6.37216E+03 -2.26071E+04  1.74368E+04 -1.70757E+04
  2.71672E+04 -1.46796E+04  3.73650E+04  3.00773E+03  2.56381E+04  2.11639E+04  1.52826E+02  3.97993E+04
 -1.80340E+04  3.46638E+04 -2.78436E+04  1.16346E+04 -2.48488E+04 -9.20748E+03 -4.01440E+02 -1.78892E+04
  1.80778E+03 -4.08280E+02 -9.59588E+03  5.61464E+03 -1.64276E+04  4.86444E+03 -1.80078E+04 -9.02140E+03
 -7.76411E+03 -2.10765E+04  7.11495E+03 -2.29222E+04  1.54776E+04 -1.63528E+04  1.75016E+04 -1.17734E+03
  1.47273E+04  1.72818E+04  1.60681E+03  1.97485E+04 -1.53781E+04  1.21950E+04 -2.27022E+04 -5.56167E+03
 -1.90676E+04 -2.25742E+04  1.61472E+02 -2.27906E+04  1.42290E+04 -2.23197E+04  1.91771E+04 -9.81415E+03
  1.92706E+04 -5.62214E+03  1.17970E+04  1.14324E+03  1.00533E+04  2.67248E+03  2.56890E+03 -1.11085E+03
  1.60026E+04  3.53640E+03  1.99836E+04  1.08536E+04  1.36045E+04  3.41496E+04 -5.26655E+03  3.57450E+04
 -2.89621E+04  3.14123E+04 -3.46536E+04  1.63670E+04 -3.68677E+04 -4.22895E+03 -3.39497E+04 -1.91958E+04
 -1.42834E+04 -3.38265E+04  6.04129E+03 -2.57878E+04  2.32663E+04 -1.66537E+04  1.79407E+04  5.95501E+03
  5.33970E+03  1.56233E+04 -1.05747E+04  1.59698E+04 -1.34700E+04 -2.73136E+03 -1.68094E+04 -9.10518E+03
 -1.73160E+03 -1.50303E+04  1.05810E+04 -1.61133E+04  8.77537E+03 -5.53213E+02 -7.69496E+02  8.01218E+03
 -7.94559E+03  5.58175E+03 -1.32604E+04 -4.23276E+03 -5.22186E+01 -1.49973E+04  9.73943E+03 -1.03583E+04
  2.17233E+04 -8.03486E+03  1.80656E+04  5.58347E+03  1.94964E+04  1.19924E+04  8.67434E+03  2.61888E+04
 -6.67619E+03  2.42724E+04 -1.59483E+04  1.63241E+04 -1.50723E+04  4.02020E+03 -1.28658E+04 -7.33188E+02
 -7.61630E+03 -4.45688E+03  5.60804E+02  8.50725E+01 -2.21819E+03  2.06759E+03 -6.61220E+03  7.95976E+03
 -1.12134E+04 -2.32504E+03 -1.62748E+04 -9.65016E+03 -4.57093E+03 -1.05868E+04  2.15734E+03 -1.13271E+04
  9.58721E+03 -3.97795E+03  7.11159E+03  2.59674E+03  4.29948E+03  3.16294E+03 -6.43601E+02 -3.59113E+03
 -7.79391E+03 -8.92446E+03 -3.08772E+03 -1.36019E+04  1.14969E+04 -9.74934E+03  1.65129E+04 -4.03301E+03
  2.16593E+04 -1.66241E+03  2.06677E+04  1.36372E+04  3.98670E+03  1.94993E+04 -1.14129E+04  1.34956E+04
 -1.58040E+04  1.84391E+03 -6.94465E+03 -1.80108E+03  4.41425E+03 -3.78732E+03  1.04426E+04  1.08449E+03
  4.12831E+03 -2.21008E+03  2.56230E+03  1.45595E+04 -9.21117E+03  1.11301E+04 -1.46700E+04  6.59698E+03
 -1.39362E+04 -7.12942E+03  2.12689E+03 -7.20269E+03  8.89487E+03 -4.41268E+03  5.72965E+03  3.86976E+03
  2.52881E+03  8.89507E+03  4.04852E+02  1.04415E+04 -1.10427E+04  4.57184E+03 -1.38101E+04 -4.21817E+03
 -5.93477E+03 -1.68505E+04  8.62394E+03 -1.16072E+04  1.43803E+04 -7.08758E+03  1.12525E+04  1.57765E+03
  1.18481E+04  5.96325E+03 -8.60752E+02  8.32156E+03 -7.43720E+03  8.36303E+03 -4.31043E+03  1.98324E+02
 -1.70507E+04 -7.65329E+03 -1.25040E+03 -1.04694E+04  7.64373E+03 -4.99135E+03  3.33002E+03 -4.72094E+03
  3.55662E+03  2.33281E+02  2.10591E+03 -4.74631E+02  1.01695E+03 -8.68677E+01 -4.75127E+03 -8.82047E+03
  1.16682E+04 -6.25640E+03  7.44271E+03  5.66958E+03  9.56702E+03  3.86661E+03  6.98792E+03  1.71116E+04
 -4.15429E+03  1.48129E+04 -1.51232E+04  8.06872E+03 -1.60251E+04  1.15384E+03 -1.37722E+04 -6.05472E+03
 -7.56952E+03 -6.44846E+03  5.98264E+02 -8.85221E+03  4.07359E+03 -9.38638E+03  1.67525E+03 -3.92887E+03
  5.46868E+02  4.27578E+02  2.58461E+03 -1.68520E+03  6.49218E+03 -3.51710E+03  8.62669E+03 -1.06034E+03
  1.65883E+03  8.30473E+03  4.21001E+03  5.97113E+03 -5.03515E+03  7.57708E+03 -7.13169E+03  8.24091E+02
 -9.07864E+03 -4.36687E+03 -5.72757E+03 -8.42144E+03  1.70676E+03 -6.17503E+03  5.85930E+03 -1.06123E+04
  1.10571E+04 -4.28924E+03  2.03234E+04  2.24733E+02  1.29839E+04  9.28792E+03 -1.77656E+03  1.59526E+04
  1.52779E+03  8.85923E+03 -5.79990E+03  9.74865E+03 -4.46759E+03 -1.22027E+03 -2.34034E+03 -6.49964E+03
  1.11193E+03  3.99613E+03 -4.47257E+03  9.33170E+03 -8.36004E+03  1.85992E+03 -7.34673E+03 -2.25116E+03
 -1.48284E+03 -2.89872E+03  2.86254E+03 -3.47560E+03  5.92993E+03 -9.80425E+03  3.65944E+03 -6.59851E+02
  1.34918E+04  6.67937E+03  3.78169E+03  1.17913E+04  9.69172E+02  1.66299E+04 -4.69354E+03  8.16565E+03
 -8.52059E+03  1.06691E+03 -7.62482E+03 -6.10902E+03 -2.85000E+03 -5.26103E+03  4.43923E+03 -5.65551E+03
  9.23513E+03 -2.55372E+03  8.04568E+03 -4.28310E+03  7.13025E+02  8.58493E+02 -8.03148E+02  3.34437E+03
  8.64932E+03  8.80077E+01 -3.82062E+03 -2.19594E+03  4.06541E+03  3.94394E+03  1.08090E+02  3.03634E+03
 -3.69139E+03  1.08867E+04 -4.24274E+03  4.46962E+03 -7.48642E+03  3.98777E+03 -7.23426E+03 -5.71232E+03
 -3.57317E+03 -7.84432E+03 -3.97997E+03 -7.35073E+03  4.40793E+03 -9.02447E+02  5.43345E+03 -3.64051E+03
  3.17849E+03 -6.79838E+02  1.87344E+03  3.27786E+03 -5.27704E+01  2.67664E+03 -4.30832E+03  3.72262E+03
  3.96650E+02 -9.39051E+03  5.42927E+02 -2.66849E+03  1.86105E+03 -1.16910E+03  4.64292E+03  5.73294E+03
  9.29293E+02  1.00410E+03 -5.69613E+03 -5.70099E+03 -1.38623E+03  1.45026E+03 -3.98530E+02  1.99656E+03
  9.86448E+02  2.11346E+03  7.39937E+02 -7.46671E+02  2.66296E+03  8.91307E+03  3.90979E+03  1.11799E+03
 -4.72671E+03  6.74606E+03 -5.52449E+03 -3.04662E+03  2.98823E+02  7.43632E+02 -8.81090E+02 -4.37555E+03
 -1.54433E+01 -7.03544E+03  3.32027E+03 -1.05447E+03  2.39911E+03  3.07185E+03  4.63810E+02  5.28277E+03
 -4.34480E+03  3.00245E+03 -5.57974E+03  9.04005E+02  4.89031E+02 -4.68192E+03 -2.62188E+03  1.42396E+01
 -1.00766E+03 -5.47512E+03  5.77441E+03 -2.21074E+03  4.40568E+03  7.22636E+03  1.92508E+03 -4.02073E+02
 -2.67491E+03 -2.65738E+02 -1.95124E+03  3.10170E+03 -4.50821E+02 -4.78594E+02  2.27553E+03 -1.00724E+03
  7.54651E+03 -1.46639E+03  4.44898E+03  2.93619E+03  4.75995E+03  2.57435E+03  3.79034E+03  5.53942E+03
 -5.02152E+03  4.24111E+03 -7.05668E+03 -2.96189E+03 -3.63876E+03 -7.27276E+03  2.08601E+03 -5.35943E+03
  1.33102E+03 -7.13385E+02  1.28424E+03  1.12929E+03  1.07100E+03  3.49194E+03 -5.41721E+03  9.72555E+01
  1.57181E+03  8.89997E+03 -1.40098E+03  4.61858E+03 -4.23889E+02  5.34923E+03 -2.63617E+03  1.37738E+03
 -7.01304E+03 -2.34991E+02 -3.02539E+03  2.72141E+03 -1.52383E+03  4.14409E+02 -2.88215E+03 -1.28755E+03
 -6.38551E+03 -5.28106E+03  4.41403E+03 -7.65480E+03  6.57833E+03 -4.63012E+03  1.05447E+04 -4.95786E+03
  8.86056E+03  1.83273E+03  6.33038E+02  4.42668E+03 -1.42698E+03  7.21787E+03 -3.15316E+02  4.14171E+03
 -9.54408E+02  2.94617E+03 -4.32190E+02  4.05059E+03 -4.83055E+03 -1.86923E+01 -4.04620E+03 -4.48233E+03
  3.87479E+03  6.31219E+02 -5.43092E+03  4.50507E+03  3.20100E+03 -1.39945E+03  2.87431E+03 -1.02869E+03
  1.83522E+03 -4.28163E+03  4.70759E+03  3.48115E+03  2.44580E+03  1.39420E+03  2.39195E+03  1.66140E+03
 -1.86527E+03  7.59138E+03 -1.37324E+03  4.59818E+03 -1.83231E+03  5.94773E+03 -4.52744E+03 -1.43311E+03
 -4.18329E+03 -7.57940E+03  2.65330E+03 -4.45270E+03  2.83882E+03 -5.56277E+02 -1.65112E+03 -2.86141E+03
 -1.73123E+03  3.51946E+03 -1.94615E+01  2.21127E+03 -4.71036E+03  3.83055E+03 -1.93137E+02  3.41449E+03
 -4.03103E+02 -3.02772E+03  4.37412E+03 -4.88018E+02  3.56617E+03  5.12629E+02 -6.87451E+02  2.54846E+03
 -2.01546E+03 -1.77895E+03 -5.46386E+03 -7.98035E+02 -4.89558E+03 -1.70089E+03  4.68760E+03 -1.00374E+03
 -4.09244E+02  1.56885E+03  6.91010E+03 -6.00457E+02  8.97176E+03  1.01034E+03  4.67681E+03 -3.55275E+03
 -1.24592E+03  4.28841E+03  6.93474E+02  7.92715E+03 -6.63049E+03  6.84369E+02  1.30009E+01 -1.30633E+03
 -6.30361E+03 -2.30976E+03  6.35240E+02  2.15906E+03 -7.71052E+03  3.68629E+03 -6.54495E+03  2.83995E+03
 -3.04518E+03 -1.33138E+03 -4.60851E+02 -7.03354E+03  3.94081E+02 -2.24408E+03  2.21973E+03 -3.80684E+03
  2.33167E+03 -4.24817E+03 -5.01192E+03 -5.34082E+03  1.62282E+03  1.21258E+03 -3.65534E+03  3.63666E+03
