 $NMID ID='MM_0lb_SNR50_19hz_g40_70.RAW', FMTDAT='(8E13.5)'
 TRAMP=1., VOLUME=1. $END
  3.11740E+05 -1.66695E+03  3.39835E+05  2.47599E+05  8.40255E+04  3.39596E+05 -1.32261E+05  2.46952E+05
 -1.89075E+05  8.26991E+04 -1.11620E+05 -3.26908E+04  1.71253E+03 -5.08543E+04  5.53031E+04 -8.80138E+02
  3.58714E+04  5.38852E+04 -1.67422E+04  7.58389E+04 -6.01001E+04  6.40712E+04 -8.12960E+04  3.10054E+04
 -8.04727E+04 -9.85581E+03 -5.90783E+04 -5.65302E+04 -1.43542E+04 -6.63599E+04  2.52233E+04 -4.38079E+04
  3.92772E+04  3.23563E+03  9.42480E+03  4.25999E+04 -3.34202E+04  4.88804E+04 -6.40870E+04 -2.55015E+03
 -5.00104E+04 -5.61677E+04 -3.27963E+03 -7.52828E+04  3.91838E+04 -5.75888E+04  4.61422E+04 -1.82892E+04
  4.06195E+04  5.71587E+03  2.93927E+04  2.16725E+04  1.67560E+04  2.69870E+04 -4.50138E+03  2.46033E+04
 -2.50092E+04  1.13217E+04 -1.98150E+04  2.17643E+03  3.45568E+03 -1.13087E+04  2.45670E+04  1.03983E+04
  9.86292E+03  2.78774E+04 -3.14907E+04  3.29221E+04 -6.01493E+04 -1.41017E+03 -5.54791E+04 -3.96100E+04
 -1.36166E+04 -6.00171E+04  3.71054E+04 -4.49616E+04  5.20312E+04 -4.77696E+03  3.32010E+04  2.91656E+04
 -8.23781E+03  2.96906E+04 -2.92708E+04  1.01947E+04 -2.63990E+04 -6.15311E+03 -1.48817E+04 -1.02706E+04
 -6.39492E+03 -1.11519E+04 -1.31363E+03 -1.60909E+04  9.00276E+03 -2.46957E+04  1.21996E+04 -8.35611E+03
  1.44112E+04  4.41696E+03 -2.29701E+03  1.44620E+04 -1.91761E+04  1.95744E+03 -9.93225E+03 -3.07530E+04
  1.57098E+04 -3.90411E+04  4.21561E+04 -2.12392E+04  4.21392E+04  1.59888E+04  1.76278E+04  4.01718E+04
 -1.55360E+04  3.10716E+04 -2.16468E+04  2.13916E+03 -3.41378E+03 -2.54542E+04  2.24686E+04 -3.39683E+04
  3.53612E+04 -1.05793E+04  2.89122E+04  2.09511E+04  1.21110E+04  3.90409E+04 -9.86324E+03  4.29508E+04
 -2.50763E+04  3.09919E+04 -3.34545E+04  7.61768E+03 -3.83977E+04 -1.60261E+04 -2.12666E+04 -3.28205E+04
  8.86294E+03 -3.33897E+04  2.98295E+04 -1.43290E+04  2.61605E+04  9.48229E+03  1.15254E+02  1.71300E+04
 -1.28367E+04  4.75267E+03 -1.10293E+04 -9.27774E+03  2.59416E+03 -8.99599E+03  1.60484E+04  8.11631E+03
  1.31379E+04  1.42355E+04 -8.21314E+03  2.33779E+04 -1.97472E+04  1.06979E+04 -2.29411E+04 -6.77733E+03
 -1.68859E+04 -1.48092E+04 -4.96987E+03 -1.15659E+04 -1.42740E+03 -1.75239E+04  1.05345E+04 -1.40013E+04
  2.11318E+04 -1.02853E+04  2.77733E+04  9.32934E+02  2.03255E+04  1.97841E+04  3.54072E+03  3.01981E+04
 -1.62763E+04  2.78610E+04 -2.41873E+04  6.44713E+03 -1.65219E+04 -1.00860E+04 -3.79616E+03 -1.48132E+04
  5.35621E+03  6.73979E+02  9.14523E+01  3.95053E+03 -1.40911E+04  8.10054E+03 -1.21874E+04 -3.12199E+03
 -9.43406E+03 -1.71246E+04  8.30914E+03 -1.91286E+04  1.15513E+04 -1.25852E+04  1.43911E+04 -2.27103E+03
  3.78182E+03  1.01479E+04 -4.56758E+03  1.53873E+04 -1.22766E+04  5.33422E+03 -1.59718E+04 -2.69110E+03
 -1.12962E+04 -1.60587E+04  2.49009E+03 -1.73383E+04  6.77092E+03 -1.78162E+04  1.83157E+04 -7.76827E+03
  1.57264E+04  1.12197E+03  1.52100E+04  3.21237E+03  4.79474E+03  2.10345E+03  5.21167E+03 -1.57227E+03
  1.69051E+04  2.09966E+03  1.28186E+04  1.24065E+04  9.72724E+03  2.37310E+04 -4.35055E+03  2.58943E+04
 -1.54271E+04  1.90271E+04 -1.96567E+04  8.46458E+03 -2.58182E+04 -8.94754E+02 -1.97878E+04 -1.16862E+04
 -9.65880E+03 -2.02360E+04  7.72592E+03 -1.90604E+04  1.63805E+04 -8.98590E+03  1.13766E+04  4.65198E+03
  9.30998E+03  9.52704E+03 -4.03356E+03  8.62999E+03 -1.45790E+04  3.35687E+03 -1.16349E+04 -9.04569E+03
 -3.25653E+03 -1.00733E+04  2.63670E+03 -7.89900E+03  5.28085E+03  1.85725E+03  2.36145E+03  6.90450E+03
 -1.05899E+03 -2.14564E+03 -2.53700E+03 -7.42945E+03  1.27421E+03 -6.68622E+03  6.42462E+03 -1.23325E+04
  1.69049E+04 -3.02531E+03  1.14053E+04  3.16054E+03  1.07257E+04  6.77985E+03  3.24498E+03  1.40141E+04
 -3.10065E+03  1.21643E+04 -6.88089E+03  9.37806E+03 -1.25674E+04  5.31983E+03 -8.12636E+03 -2.04995E+02
 -5.07595E+03 -6.74539E+03  1.96025E+02  8.14095E+02 -2.29056E+03  6.93468E+02 -6.63654E+03  3.65093E+03
 -8.73176E+03  4.60421E+03 -4.67759E+03 -7.51542E+03 -3.08386E+03 -1.35590E+04  8.88359E+03 -7.94294E+03
  7.98672E+03 -1.84393E+03  8.52026E+03  7.19939E+03 -1.71507E+03 -1.79993E+03 -2.35939E+03 -2.39294E+03
 -3.22897E+03 -3.22639E+03  1.66676E+02 -8.32633E+03  2.32227E+03 -5.94814E+03  1.12105E+04 -4.65406E+03
  1.05979E+04  5.82519E+03  7.27486E+03  5.34344E+03  8.41016E+02  6.07622E+03 -7.72634E+03  7.76041E+03
 -3.20111E+03  5.22139E+03 -1.99581E+03 -1.65645E+03 -7.02214E+02 -3.44357E+03  7.37913E+03 -1.95845E+03
  3.52639E+03 -1.22741E+02  2.74209E+03  9.45056E+03 -4.37867E+03  4.45278E+03 -7.48885E+03 -8.12012E+02
 -2.54529E+03 -6.14855E+03  5.75165E+03 -2.97999E+03  3.53300E+03  8.47169E+02  1.44652E+03  4.32857E+03
  1.11544E+03  3.45229E+03 -3.22174E+03  7.96037E+03 -7.36120E+02  3.10343E+03 -5.92485E+03  2.31629E+03
 -4.66160E+03 -6.76072E+03  1.75848E+03 -8.14183E+03  3.92616E+03 -5.67482E+03  2.79264E+03 -4.88304E+02
  5.01239E+03  4.70806E+03  2.23039E+03  5.20860E+03 -3.65248E+03  1.33042E+03 -5.31095E+03  2.75569E+02
 -5.06452E+03 -2.90083E+03 -2.47683E+03 -2.29230E+02  1.27751E+01 -6.48595E+03  1.55116E+03 -2.96790E+03
  4.68542E+03  3.22362E+03  1.92273E+03 -4.33838E+03  2.36947E+03 -8.00517E+02  2.39910E+03  3.53069E+03
  3.18654E+03  1.54212E+03  5.33914E+02  6.77462E+02  2.13870E+03  1.08416E+03  1.03299E+04  5.58831E+03
 -2.89550E+03  6.45806E+03 -6.88369E+03  1.16051E+04 -8.08702E+03  1.12655E+03 -7.17217E+03 -3.12078E+03
 -2.29288E+03 -5.43421E+03  1.66247E+02 -6.25976E+03  8.82276E+02 -1.46708E+03  3.74549E+01 -2.78026E+02
  1.30183E+02  3.60542E+02  4.47443E+03  1.46004E+03  1.30960E+03 -1.92979E+03  5.61449E+03  6.13359E+03
  4.51064E+03  1.47500E+03  1.87308E+03  1.64724E+03 -1.60698E+03  1.58278E+02 -3.49551E+03  5.35601E+03
 -5.52897E+03  1.71012E+03 -9.90081E+02  4.30640E+02  2.07596E+03 -4.76375E+03  2.79423E+03 -5.91379E+03
  2.44040E+03 -6.09307E+03  4.04954E+03  1.35920E+02  5.19980E+03  2.94851E+03  3.44986E+03  3.99133E+03
 -1.87649E+03  4.03798E+03 -7.45858E+03 -3.34218E+01 -3.26724E+03 -3.67134E+03  1.34936E+03 -1.47966E+03
  5.47691E+02  3.18070E+03 -4.42437E+03  7.87780E+02 -5.55704E+03  6.32398E+03 -5.60830E+03 -4.86721E+01
 -1.10678E+03 -3.39734E+03 -3.11139E+02 -2.16052E+03  3.86425E+03 -4.80649E+03  3.24175E+03  7.92558E+02
  2.02747E+03  1.65898E+03  3.70279E+03  4.40926E+03  9.39453E+02  2.52408E+03  1.74384E+02  2.91778E+03
 -2.97184E+03  1.41408E+01 -3.09071E+03 -3.46221E+03 -9.68508E+02 -1.51992E+02  1.89627E+03  5.55042E+02
  1.84938E+03 -1.12941E+03 -4.29510E+01  1.87598E+03 -5.46253E+02  6.01801E+03  9.66017E+02  1.50851E+03
  3.04761E+03  5.41923E+03 -2.25146E+02 -3.19278E+02  1.30064E+03  3.80187E+03  1.43846E+03 -1.07343E+03
 -1.74657E+03  2.19265E+03 -1.77836E+03 -7.39143E+02 -2.50005E+02  3.12512E+03 -5.90447E+03  2.80417E+03
 -2.95975E+03 -5.86961E+03  4.45846E+03 -4.08449E+03  2.18147E+03 -2.71152E+03  1.21964E+03  1.04582E+00
  1.75077E+03 -1.53884E+03  3.72841E+03 -4.11139E+03  1.78062E+03  7.62762E+02  3.20287E+01 -3.23611E+02
 -2.88648E+01  1.25537E+02  4.89901E+02  2.54405E+03 -2.49795E+03  1.59284E+03 -5.80588E+03 -1.43957E+03
  4.48265E+03  3.85384E+03  9.38047E+02 -3.39887E+03  6.14105E+02  1.29195E+03  2.42595E+03  4.83601E+03
  1.58700E+03  7.12268E+02  4.95541E+03 -2.62629E+03 -4.72295E+02  4.05479E+03  6.11166E+02  3.64728E+03
 -1.02758E+03  2.49744E+03 -4.03874E+03 -9.88860E+02 -2.17621E+03 -2.86697E+03  8.91994E+01 -3.58036E+03
  1.28535E+03  8.09299E+02  1.63164E+03 -1.24981E+03  7.67640E+02  1.23150E+03  5.38819E+03 -6.33019E+02
 -1.95089E+03  2.86613E+03  7.95614E+02  3.55577E+02 -2.66663E+03 -2.86962E+03  9.03938E+02 -3.51626E+03
  8.97850E+02 -9.15421E+02  2.94289E+03  6.10183E+02 -1.56042E+03 -1.98314E+03 -4.20682E+02  2.87333E+03
 -1.27795E+02  1.31267E+03  6.55955E+02 -9.37829E+01 -7.65850E+02  7.51675E+02  3.14010E+03 -1.30231E+03
  2.65450E+03  2.43054E+03  4.40625E+03 -2.85949E+03  1.49166E+03 -1.08172E+03 -2.74259E+03 -7.69045E+02
  5.02582E+03  1.42790E+03 -4.27817E+03  2.73032E+03 -1.05772E+03 -6.32589E+03  7.05433E+01 -9.41517E+02
  2.39065E+03 -2.28167E+02 -3.27531E+03  1.35466E+01 -2.74988E+03 -1.87626E+03 -7.15122E+02 -1.06663E+03
  2.59776E+03  2.05643E+03 -2.79259E+03  2.74469E+03  9.60066E+02 -9.21349E+02 -1.83292E+03  5.59642E+03
 -9.09769E+01  2.15110E+03  1.20584E+03 -4.56118E+02 -2.00025E+03 -1.86803E+03 -2.48575E+03  9.79171E+02
 -1.24124E+03 -2.44127E+03 -2.59146E+03 -3.28290E+02  1.02479E+03  1.44018E+03  5.25421E+03 -1.33462E+03
  2.05513E+03 -5.47565E+02  4.59901E+02  3.06603E+03 -1.72623E+03  2.56031E+03  4.73593E+02  1.01149E+03
 -4.81078E+03  4.37481E+02  1.16269E+03  5.13444E+03 -3.28600E+03 -2.86202E+03 -1.08014E+03  6.19704E+03
  2.90246E+03  2.41924E+03 -4.35539E+02 -9.70485E+02 -1.44224E+03 -8.95982E+02 -1.43636E+03  1.07831E+03
  2.87188E+03 -2.82010E+03  8.71025E+02 -2.56910E+03  7.21923E+03 -5.77183E+02 -3.47264E+03  4.60792E+03
 -9.54538E+02  2.93910E+03 -2.26001E+03 -2.38804E+03 -1.82369E+01  1.34324E+03  1.82051E+03  1.59219E+02
 -4.11564E+03  8.24534E+02  1.45127E+03  1.39723E+03  1.64232E+03 -1.38615E+03 -1.17677E+03 -1.40125E+03
  1.66555E+03  8.91921E+02  1.62597E+03 -3.11799E+03  1.01971E+03 -1.41211E+03  1.33506E+03 -2.90560E+03
  3.93834E+03 -4.48923E+02  2.34730E+03 -5.42583E+02  1.85564E+03 -2.19328E+03  2.06113E+03  2.42389E+03
  2.32781E+03 -4.19458E+02 -2.24180E+03  1.60714E+03 -5.27747E+02  3.60104E+02  3.15030E+01  2.55480E+03
 -1.34855E+03  1.58487E+03 -9.18292E+02 -1.19829E+03  2.26529E+03 -1.57814E+03  3.06194E+03  3.76083E+02
  2.04301E+03  3.69512E+02 -1.58456E+03 -2.74587E+03 -2.56392E+02 -1.31732E+03  2.18202E+03  9.91289E+02
  2.80670E+03  2.35110E+03 -6.41946E+02 -5.23232E+02  2.64115E+03  2.14498E+03 -7.27000E+03 -1.47959E+02
 -9.20040E+02  3.52108E+03 -6.35100E+02  1.90072E+02  4.19040E+03  6.74198E+01  2.82222E+03 -3.20900E+03
  2.07685E+03 -3.53320E+02  2.26483E+03  4.27006E+03 -2.62182E+03  9.56573E+01 -6.43132E+02 -2.42005E+03
