 $NMID ID='MM_0lb_SNR50_12hz_g55_32.RAW', FMTDAT='(8E13.5)'
 TRAMP=1., VOLUME=1. $END
  3.04217E+05  4.14902E+03  3.38292E+05  2.46765E+05  8.58641E+04  3.37958E+05 -1.34231E+05  2.52188E+05
 -1.89800E+05  8.33229E+04 -1.06840E+05 -3.37450E+04 -1.74820E+03 -5.20769E+04  5.43801E+04  3.49533E+02
  3.36656E+04  6.27410E+04 -1.25794E+04  7.37696E+04 -6.05369E+04  6.41757E+04 -8.33258E+04  2.67090E+04
 -8.13964E+04 -1.32920E+04 -6.01539E+04 -5.25388E+04 -2.47594E+04 -7.55318E+04  2.67716E+04 -4.46534E+04
  4.48535E+04 -1.38034E+03  1.45285E+04  4.72118E+04 -3.60522E+04  4.64307E+04 -6.40990E+04 -4.86298E+03
 -5.26225E+04 -5.70320E+04 -6.39178E+03 -7.79573E+04  3.74009E+04 -5.49725E+04  5.30407E+04 -1.64297E+04
  4.15832E+04  1.50076E+04  3.40240E+04  2.75762E+04  1.89595E+04  2.89263E+04 -3.68788E+03  2.46240E+04
 -2.24505E+04  7.21791E+03 -1.44495E+04 -1.08291E+04  1.04441E+04 -5.32622E+03  2.44153E+04  1.37659E+04
  9.97335E+03  4.01192E+04 -3.11293E+04  3.99186E+04 -6.43575E+04  5.51429E+03 -5.44593E+04 -4.18230E+04
 -2.04548E+04 -6.95313E+04  3.64876E+04 -4.22237E+04  6.08417E+04 -5.64995E+03  3.92053E+04  2.92460E+04
 -4.57379E+03  3.91273E+04 -3.25808E+04  1.61797E+04 -3.24088E+04 -2.37365E+03 -1.38410E+04 -9.70509E+03
 -8.74123E+03 -1.77782E+04 -1.29600E+03 -1.38849E+04  1.53595E+03 -2.65652E+04  1.49578E+04 -1.75162E+04
  1.48590E+04  8.75564E+03 -4.97593E+03  1.62719E+04 -2.40325E+04 -4.41296E+03 -8.38435E+03 -3.69251E+04
  2.41409E+04 -4.74684E+04  5.36850E+04 -2.04662E+04  4.90679E+04  1.83344E+04  1.73253E+04  4.91186E+04
 -1.58580E+04  3.25831E+04 -2.72082E+04  3.22668E+02 -1.77977E+04 -2.88502E+04  2.69925E+04 -3.18403E+04
  4.31220E+04 -8.17758E+03  3.73900E+04  2.59079E+04  1.42006E+04  4.93357E+04 -8.25423E+03  5.11087E+04
 -3.90934E+04  4.25742E+04 -4.90885E+04  1.09652E+04 -4.60452E+04 -2.37190E+04 -2.56514E+04 -3.78856E+04
  8.62560E+03 -3.41286E+04  2.66601E+04 -1.64066E+04  2.98271E+04  1.67477E+04  4.59597E+03  2.31923E+04
 -1.47659E+04  1.20253E+04 -1.55320E+04 -1.16822E+03  3.83393E+03 -1.44850E+04  1.83753E+04  3.78708E+03
  7.11876E+03  1.91558E+04 -2.25436E+03  2.35982E+04 -1.85265E+04  1.34272E+04 -3.20034E+04 -6.33755E+03
 -2.63373E+04 -1.82751E+04 -1.29088E+04 -2.26739E+04  6.16082E+03 -1.84168E+04  1.81844E+04 -2.32459E+04
  3.20978E+04 -1.46123E+04  3.27646E+04  6.74214E+03  2.62522E+04  2.66945E+04  3.99705E+03  3.83249E+04
 -2.12380E+04  3.45224E+04 -2.62068E+04  7.11275E+03 -2.56904E+04 -9.14238E+03 -5.71576E+03 -9.17858E+03
  4.94835E+03 -5.47031E+03 -8.16634E+03  8.29132E+03 -1.94472E+04  9.55100E+03 -1.35562E+04 -1.80776E+03
 -4.43776E+03 -1.77420E+04  4.04402E+03 -2.41043E+04  1.29643E+04 -1.52478E+04  2.26034E+04  2.24372E+02
  1.65630E+04  1.03379E+04 -1.18948E+03  1.92471E+04 -1.19791E+04  1.71544E+04 -1.99557E+04 -2.04916E+03
 -2.44171E+04 -1.88163E+04 -1.20442E+03 -2.25462E+04  8.17378E+03 -2.23356E+04  1.75717E+04 -1.27130E+04
  1.93324E+04  1.72910E+03  5.61363E+03  5.75781E+03  1.32487E+04  3.44933E+03  9.16561E+03  1.48273E+03
  2.30588E+04  5.49667E+03  2.05437E+04  1.42174E+04  1.47759E+04  3.17379E+04 -3.18154E+03  4.07097E+04
 -2.00407E+04  3.38786E+04 -3.67071E+04  2.19995E+04 -4.12054E+04 -4.68410E+03 -3.30063E+04 -2.47910E+04
 -9.42859E+03 -3.32147E+04  8.53831E+03 -3.33474E+04  2.57384E+04 -1.16916E+04  1.39011E+04  1.01327E+04
  5.40870E+03  1.83880E+04 -9.57454E+03  1.21303E+04 -1.97247E+04  3.87846E+03 -1.55134E+04 -1.59970E+04
 -3.45919E+03 -7.53732E+03  7.61041E+03 -1.40188E+04  1.23927E+04  1.66745E+03 -4.28125E+03  8.73867E+03
 -5.39825E+03 -3.75223E+03 -9.41948E+03 -6.11072E+03 -1.26512E+03 -1.75373E+04  8.31375E+03 -1.47337E+04
  1.85972E+04 -5.56728E+03  2.29257E+04  5.06863E+02  2.08331E+04  1.63350E+04  7.09973E+03  1.66904E+04
 -2.90696E+03  3.00912E+04 -1.55796E+04  2.15434E+04 -1.80404E+04  9.33156E+03 -1.21810E+04  1.46097E+03
 -6.61229E+03 -7.47378E+03 -4.02952E+03 -3.14777E+03 -4.87291E+03  5.76667E+03 -7.53132E+03  4.79125E+03
 -2.04988E+04 -4.66747E+03 -1.37666E+04 -8.82114E+03 -5.64559E+03 -1.89176E+04  7.24711E+03 -1.66474E+04
  1.21068E+04 -8.65649E+03  8.35616E+03  4.22192E+03  1.81103E+03  6.46880E+03 -2.16413E+03 -7.43094E+02
 -5.42409E+03 -5.81940E+03 -4.56605E+03 -1.25854E+04  1.01353E+04 -1.39210E+04  2.20066E+04 -8.74134E+03
  2.07017E+04 -2.15320E+03  1.19685E+04  1.07851E+04 -1.47557E+03  1.73118E+04 -1.66319E+04  1.23669E+04
 -7.32291E+03  4.64363E+03 -5.07249E+03 -4.46705E+02 -3.12334E+03 -3.41221E+03  5.51384E+03 -3.65950E+03
  7.87870E+03  9.81923E+03  2.82425E+03  1.18467E+04 -8.65025E+03  1.23360E+04 -1.40898E+04  3.56809E+02
 -1.15944E+04 -8.61562E+03  3.71269E+03 -9.83700E+03  1.97816E+03 -2.52236E+03  7.56411E+03  5.63967E+03
 -2.21912E+03  4.95229E+03 -3.50641E+03  5.79459E+03 -1.11374E+04  7.31562E+03 -1.11752E+04 -4.18009E+03
 -3.01671E+03 -8.03225E+03  1.69023E+03 -1.66913E+04  9.68615E+03 -1.22338E+04  8.90702E+03  3.03670E+03
  8.44066E+03  1.15374E+04 -4.47878E+03  5.53837E+03 -1.27921E+04  7.21532E+03 -8.49230E+03 -3.13522E+03
 -7.96017E+03 -9.00879E+03  4.38480E+03 -1.09767E+04 -1.32457E+03 -8.04102E+03  9.80097E+03 -4.21371E+03
  2.07206E+03  8.42955E+02 -1.71562E+02  2.29648E+03 -6.67667E+02 -5.59306E+03  2.33844E+03 -2.57045E+03
  1.17238E+04 -7.39462E+03  1.30417E+04  2.84241E+03  1.11298E+04  8.58113E+03  8.86239E+03  1.96028E+04
  1.30241E+03  1.69324E+04 -1.32068E+04  1.30086E+04 -2.12368E+04  6.08998E+03 -1.48019E+04 -7.69146E+03
 -1.16076E+04 -1.09873E+04  6.99400E+03 -1.43471E+04  2.31410E+03 -4.83717E+03  3.84573E+03 -4.61802E+03
  3.60295E+03 -2.89878E+03  3.30638E+03 -7.30390E+03  6.44958E+03 -2.51077E+03  6.04908E+03 -4.70969E+03
  1.20644E+04  6.01044E+02 -5.34207E+01  4.67304E+03 -6.63246E+03  6.95593E+03 -1.23024E+04  1.04467E+04
 -8.12465E+03  3.76780E+03 -8.66879E+03 -4.00316E+03 -4.98024E+03 -7.86992E+03  4.97524E+03 -1.01290E+04
  7.69715E+03 -1.25540E+04  1.52651E+04  5.85241E+03  6.25419E+03  1.05570E+04  1.56404E+03  1.21204E+04
 -5.49859E+03  1.29630E+04 -6.61851E+03  3.01748E+03 -7.78561E+03 -3.17035E+03 -3.01608E+02  1.49990E+03
 -3.29574E+03 -3.51077E+02 -2.90811E+03  2.50521E+03 -2.61215E+03  4.46163E+03 -8.00467E+03 -1.66098E+03
 -3.87494E+03 -1.15766E+04 -8.76099E+03 -1.44859E+04  2.60706E+03 -1.06356E+04  9.81774E+03 -2.86751E+03
  1.27031E+04  9.50333E+03  8.56477E+03  1.31427E+04 -4.02996E+03  9.21052E+03 -7.70339E+03  7.70273E+03
 -1.46008E+04  1.72033E+03 -8.47393E+03 -6.68015E+03  3.11586E+03 -9.70530E+03  7.20672E+03 -2.31064E+03
  4.33824E+03  2.57597E+03  5.35672E+03  1.23223E+01 -6.75678E+02  3.09390E+03  4.82044E+02  5.78548E+03
  2.65709E+03  5.32207E+03 -5.31151E+03 -1.24252E+03  9.91439E+02  3.16079E+03  3.43218E+03  6.47769E+03
  1.19924E+03  9.19301E+03 -6.02402E+03  1.10243E+04 -1.24225E+04 -1.00697E+03 -1.50638E+04 -1.06439E+04
 -5.50040E+03 -2.25298E+03  2.91030E+03 -8.62176E+03  9.29177E+03 -8.12960E+03  1.15059E+04 -2.90968E+03
  1.15114E+04  1.24602E+03  3.68055E+03  1.11446E+04 -2.41516E+03  6.42700E+02 -3.63497E+03 -5.66478E+02
 -2.25312E+03 -4.49739E+03 -1.53184E+03 -4.90914E+03  1.39568E+03 -3.22179E+03  2.21904E+03 -1.51565E+03
  4.24825E+01  3.42485E+03  5.43607E+02 -1.99055E+03 -2.59906E+03  1.79804E+03  1.26192E+01 -8.95051E+02
  3.02235E+03  8.02926E+02  2.33996E+03  9.93010E+02  3.16191E+03  3.35154E+03  9.13017E+02  5.83804E+03
 -2.56788E+03  5.39707E+03 -1.08207E+04  1.28580E+03 -4.10448E+03 -5.51193E+03 -5.60725E+03 -1.71458E+03
 -2.64138E+02 -3.83182E+03  4.18377E+03  4.54600E+02  1.81414E+03 -3.38441E+01  1.27355E+02  6.27957E+03
 -1.02348E+04  2.66454E+03 -2.62092E+03  4.71504E+03 -1.70885E+03 -6.32267E+03  2.94293E+03 -8.79285E+02
 -9.07325E+02 -2.31698E+02  6.08229E+03  1.15129E+03  2.60182E+03  4.52579E+03  4.87201E+03 -1.07243E+03
 -5.49264E+03 -1.07289E+03  1.42125E+01 -5.53403E+03  1.72285E+03 -5.20137E+03  7.01066E+03 -3.45858E+03
  7.05403E+03  6.90522E+02  9.31427E+03 -1.13476E+03 -2.11241E+03  6.85886E+03 -3.09663E+03  9.77025E+03
 -1.08759E+04 -2.56192E+03 -5.72870E+03 -5.44343E+02 -5.53151E+03 -3.22586E+03  5.03056E+03  1.47484E+03
 -3.43244E+02  4.35843E+03  5.44994E+03 -4.76418E+01 -3.90024E+03  1.78490E+03 -2.40426E+03  3.09449E+03
  1.75049E+03  4.70502E+03  1.81308E+03 -1.65951E+03  6.56528E+02  3.06270E+01  4.97686E+02 -2.53118E+03
  3.30413E+03 -8.21713E+02 -7.59553E+03  1.91179E+03 -2.14485E+03  3.50149E+03 -7.01805E+03 -6.52065E+03
 -2.69146E+03 -9.65197E+03  1.29556E+03 -7.87650E+03  3.82278E+03 -8.67028E+03  5.37993E+03  5.56769E+02
  7.76850E+03  5.89192E+03  8.14656E+03 -1.12887E+03  3.25975E+02  2.69225E+03 -5.23858E+03  3.52484E+03
 -3.18962E+03 -1.99816E+02 -4.11040E+03 -7.78155E+01 -1.43336E+03  3.40345E+02 -1.57739E+03 -2.18248E+03
  7.00890E+02  9.64427E+02 -3.04924E+03  2.39926E+03 -2.64647E+03 -1.77776E+03  2.34104E+03 -2.59652E+02
 -4.18315E+03  1.17053E+03  3.15813E+03  3.77079E+03  2.13677E+03 -1.63829E+03 -3.22660E+03  7.10017E+03
 -8.07668E+03 -9.87473E+02 -4.36924E+03  7.73375E+03 -6.25794E+03 -4.72249E+03 -8.87118E+03 -7.63878E+00
 -4.50372E+03 -8.27838E+03  4.31904E+03 -6.27043E+03  4.54752E+03 -2.19658E+03  5.20039E+03  3.52678E+03
 -7.00955E+02  1.87215E+03 -2.79813E+03  4.32377E+03  7.41676E+02 -7.65238E+03 -1.69331E+03 -1.54030E+03
  1.83188E+03  1.60756E+03 -5.10105E+02 -1.14817E+03 -4.36783E+02  7.54376E+03  2.65545E+03  3.32885E+03
  2.13138E+03  6.97035E+03 -1.38598E+03 -6.13919E+03 -5.04579E+03 -2.26345E+03 -7.99382E+02 -5.74834E+03
  1.60257E+02 -3.04955E+03  1.31177E+03 -7.26016E+03  9.06391E+03 -1.09872E+02 -6.36152E+02  5.61840E+03
  1.93561E+03  2.65110E+03 -1.63398E+03 -1.40570E+03 -3.96159E+03  5.08901E+03 -3.55525E+03 -2.28008E+03
  5.15931E+02 -3.23155E+03 -1.29510E+03  1.56138E+03 -5.66810E+03  2.31867E+03 -3.87022E+03  4.48780E+03
 -4.91301E+03 -4.45969E+03 -4.69906E+03 -2.59010E+03  7.58313E+03 -2.14401E+03  8.22950E+02 -2.99715E+03
  1.88720E+03  2.57348E+03  1.21716E+03 -2.33875E+02  4.08953E+03 -2.01688E+03 -7.17809E+03 -2.17727E+03
