 $NMID ID='MM_0lb_SNR50_17hz_g55_76.RAW', FMTDAT='(8E13.5)'
 TRAMP=1., VOLUME=1. $END
  3.12782E+05 -4.83453E+03  3.39086E+05  2.47287E+05  8.56880E+04  3.39468E+05 -1.28676E+05  2.51635E+05
 -1.90903E+05  8.28644E+04 -1.13852E+05 -3.33192E+04 -1.15988E+03 -5.10484E+04  5.28800E+04  4.36672E+03
  3.73556E+04  4.85945E+04 -1.57832E+04  7.36952E+04 -6.08424E+04  6.34212E+04 -8.45677E+04  2.70143E+04
 -7.98335E+04 -5.88047E+03 -5.70897E+04 -4.88087E+04 -1.41142E+04 -6.53187E+04  2.64593E+04 -4.44979E+04
  3.87183E+04  4.75401E+03  1.38198E+04  4.96408E+04 -3.04799E+04  4.23469E+04 -6.51053E+04  1.59741E+03
 -5.56490E+04 -5.49025E+04 -4.52455E+03 -8.00177E+04  3.18751E+04 -5.63864E+04  4.35059E+04 -1.27110E+04
  4.39540E+04  1.56034E+04  3.57153E+04  2.85608E+04  1.77072E+04  2.74702E+04 -7.17995E+03  2.44386E+04
 -2.38539E+04  1.33620E+04 -1.85092E+04 -4.92228E+03  1.06206E+04 -8.05835E+03  2.08122E+04  8.02588E+03
  5.71686E+03  3.09356E+04 -2.83379E+04  3.15141E+04 -6.50319E+04 -5.70805E+02 -5.87624E+04 -4.50526E+04
 -1.13470E+04 -6.15387E+04  4.34357E+04 -4.54764E+04  5.94541E+04 -2.25080E+03  3.63490E+04  3.22530E+04
 -3.80556E+03  3.34208E+04 -3.03300E+04  2.04714E+04 -2.88348E+04 -4.42033E+03 -1.67083E+04 -1.34750E+04
 -8.37397E+03 -1.52184E+04 -3.61891E+03 -2.17289E+04  6.18552E+03 -2.04426E+04  1.60004E+04 -1.35722E+04
  1.08575E+04  3.86071E+03 -7.58123E+03  1.40977E+04 -2.32938E+04 -2.88243E+03 -6.04697E+03 -2.98478E+04
  1.81705E+04 -4.71792E+04  4.78353E+04 -1.90552E+04  4.94138E+04  1.98841E+04  1.48931E+04  4.03810E+04
 -1.32606E+04  3.85781E+04 -2.58831E+04  1.87520E+03 -1.29934E+04 -2.78365E+04  1.80942E+04 -3.35428E+04
  3.64011E+04 -1.26758E+04  3.21757E+04  2.48298E+04  1.91797E+04  4.67120E+04 -6.95517E+03  4.33874E+04
 -3.12839E+04  2.87202E+04 -3.88032E+04  4.65949E+03 -4.06952E+04 -1.87049E+04 -2.34637E+04 -3.58185E+04
  3.80178E+03 -3.56194E+04  2.96491E+04 -1.48419E+04  2.90063E+04  1.25592E+04  8.27731E+03  1.87195E+04
 -1.55347E+04  6.77261E+03 -7.98577E+03 -7.50034E+03  9.80298E+03 -7.55748E+03  2.02533E+04  4.51938E+03
  1.32004E+04  2.05070E+04 -7.68084E+03  2.61839E+04 -2.32108E+04  1.38593E+04 -2.61161E+04 -9.23186E+03
 -1.98118E+04 -2.04191E+04 -7.69477E+03 -1.71738E+04  4.39146E+03 -1.49767E+04  1.47104E+04 -1.85848E+04
  2.35044E+04 -1.35514E+04  3.31701E+04 -1.37893E+03  2.19471E+04  1.66264E+04  2.80871E+03  3.35904E+04
 -2.12084E+04  2.84092E+04 -2.88004E+04  9.11568E+03 -1.72341E+04 -1.02135E+04 -3.08206E+03 -1.86100E+04
  2.28342E+03 -1.79251E+03 -3.44519E+03  1.56349E+03 -1.29644E+04  5.21492E+03 -1.65174E+04 -7.17574E+03
 -1.03373E+04 -1.60371E+04  3.91310E+03 -1.94685E+04  1.50905E+04 -1.15309E+04  1.72577E+04 -2.61387E+03
  1.32523E+04  1.02041E+04  8.99540E+02  1.71272E+04 -1.22963E+04  8.91341E+03 -1.80028E+04 -3.66675E+02
 -1.17236E+04 -1.17807E+04 -3.33230E+03 -2.15391E+04  1.05585E+04 -2.24340E+04  1.61161E+04 -1.50206E+04
  1.74729E+04  2.17403E+03  1.41607E+04  2.63752E+03  1.04865E+04  1.66608E+03  6.23980E+03  5.38950E+02
  1.30816E+04  1.39341E+03  2.16382E+04  1.35204E+04  1.30359E+04  2.48097E+04 -4.02280E+03  2.44964E+04
 -2.20710E+04  2.65666E+04 -2.33777E+04  1.17258E+04 -2.68469E+04 -1.84961E+03 -2.05778E+04 -2.05277E+04
 -1.20124E+04 -2.34057E+04  7.00957E+03 -2.22378E+04  2.25704E+04 -1.29278E+04  2.03927E+04  7.82631E+03
  1.00689E+04  1.23936E+04 -9.73247E+03  9.75078E+03 -1.16710E+04  5.40189E+03 -1.07675E+04 -1.05627E+04
 -2.72556E+03 -1.02376E+04  6.12809E+03 -8.78195E+03  9.25915E+03  7.38146E+02  1.77446E+03  7.89630E+03
 -6.63212E+03  2.55305E+03 -9.22953E+03 -7.12058E+03 -7.38567E+02 -1.02312E+04  7.81280E+03 -7.09444E+03
  1.51140E+04 -7.94361E+03  1.47843E+04  1.67848E+03  1.18083E+04  1.36321E+04  5.30144E+03  1.59472E+04
 -4.02366E+03  1.85399E+04 -1.04178E+04  1.14401E+04 -1.04571E+04  1.04682E+03 -1.06396E+04 -3.55783E+03
 -9.45126E+03 -1.64348E+03  1.93346E+03  4.92014E+02 -5.63007E+03  1.14077E+03 -4.49905E+03  6.53358E+03
 -8.78938E+03 -1.78318E+03 -1.13938E+04 -8.58114E+03 -2.00309E+03 -1.39829E+04  2.75916E+03 -1.33966E+04
  8.32158E+03 -4.51014E+03  1.08848E+04 -3.45274E+03  4.78245E+03  3.72546E+03 -1.51076E+03 -6.19944E+03
 -5.80788E+03 -4.12761E+03 -1.38216E+03 -5.65884E+03  5.71373E+03 -7.13704E+03  1.32376E+04 -6.61639E+03
  1.37958E+04  3.04330E+03  1.01990E+04  5.18465E+03  1.86604E+03  7.62835E+03 -8.14765E+03  7.61013E+03
 -9.95517E+03  2.08032E+03 -2.60580E+03 -5.44822E+03  3.36475E+02 -3.40058E+03  9.86445E+03 -2.28263E+03
  3.93788E+03  4.01253E+03  2.66264E+03  3.36061E+03 -7.29006E+03  8.40736E+03 -9.49054E+03  2.70222E+02
 -6.04769E+03  2.52476E+01 -4.28050E+03 -7.57730E+03  2.90399E+03 -4.92241E+03  7.74183E+03 -5.02680E+02
 -2.69359E+03  1.18497E+03 -8.55732E+03  9.98721E+03 -7.88150E+03  8.93635E+03 -4.10728E+03 -9.84781E+02
 -3.87720E+03 -4.23379E+03 -2.56892E+03 -9.55516E+03  1.02953E+04 -5.40491E+03  6.68601E+03  4.02996E+03
  4.18882E+03  7.21481E+03  4.32053E+02  1.12302E+04 -9.65937E+03  4.67869E+03 -8.75542E+03 -8.34277E+02
 -8.26814E+03 -9.15476E+03  3.41128E+03 -6.47922E+03  5.41846E+02 -7.83460E+03  4.30464E+02 -2.59883E+03
  3.33161E+03 -2.88343E+03 -2.07044E+03  4.94415E+03 -2.30805E+03 -6.42771E+02 -1.73641E+02 -5.90644E+03
  2.91962E+03 -3.87828E+03  8.09055E+03 -1.22892E+03  7.22353E+03  4.30184E+03  1.04263E+04  7.48147E+03
 -3.67392E+03  8.50191E+03 -9.38223E+03  9.96977E+03 -9.53180E+03  1.65665E+03 -1.79611E+03 -2.57512E+03
 -7.27047E+03 -8.43538E+03 -4.99862E+03 -4.08397E+03  5.39285E+03 -6.51050E+03  5.95382E+03 -3.75399E+03
 -1.41738E+03 -2.24501E+03  2.54035E+03  1.59313E+02 -1.33121E+03 -6.14861E+02  4.52955E+03  3.12089E+03
  2.55334E+03 -5.30602E+03  4.39785E+02  3.96424E+03 -1.68077E+03  1.12137E+03 -4.40134E+03  6.91722E+03
 -6.94567E+03 -1.14508E+03  5.63554E+01 -4.83316E+03  5.51942E+02 -4.74627E+03  6.63140E+03 -8.03859E+03
  5.01147E+03 -9.81071E+02  1.05236E+04 -8.19971E+02  8.16342E+03  7.15442E+03  1.22929E+03  9.72852E+03
 -2.21953E+03  7.89567E+03  1.82538E+02  5.01015E+02 -3.93824E+02 -5.08820E+03  1.06691E+03 -6.00627E+02
 -7.72209E+02  8.19845E+02 -1.35789E+03  2.85548E+03  1.16853E+03  3.16092E+02 -5.25272E+03  5.56474E+02
 -2.94257E+03 -3.96676E+03 -2.87605E+03 -1.99016E+03  3.43854E+03 -5.99659E+03  2.16329E+03 -2.84040E+02
  4.33093E+03  1.73736E+03  3.04693E+03  4.73489E+03 -2.50531E+03  5.13495E+03 -4.95405E+03  1.76986E+03
 -3.96538E+03  4.25618E+03 -4.42413E+03 -6.42207E+03  7.78334E+02 -4.76103E+03  1.43108E+03 -1.79872E+03
  4.43791E+03 -1.49533E+02  2.32011E+03 -9.29174E+02 -1.15665E+03  9.77489E+02  5.37188E+03 -4.02996E+03
  3.44467E+03  1.00749E+03 -2.52563E+03  1.56865E+03  1.46951E+03  4.17173E+03 -1.35829E+03  9.10744E+02
 -2.68240E+02  5.67870E+03 -6.54759E+03  2.79931E+03 -2.07237E+03 -5.37800E+02 -7.72437E+03 -1.89644E+03
  1.69302E+03 -5.87524E+03  1.80079E+03 -7.04024E+03  2.94750E+03 -1.51772E+03  5.93024E+03  2.39634E+02
  2.31406E+03  6.99684E+02 -1.63197E+03  2.13109E+03  7.48252E+02  4.74997E+02  1.57172E+03 -2.11563E+03
  1.14321E+03  1.16244E+03 -1.55219E+02 -5.88746E+03  1.73832E+02  7.76899E+02  2.79192E+03  2.00731E+03
  3.87975E+02  1.55701E+03  7.55837E+02  5.73889E+03  9.76365E+02  8.71441E+02  2.74373E+03 -1.84902E+03
  3.68326E+03 -1.34514E+03  5.73625E+03  1.59048E+03  4.64118E+03  5.69520E+03 -7.85493E+02 -1.65890E+03
  7.10001E+02  5.40431E+03 -2.41773E+03 -9.26809E+01 -5.48673E+03  1.97855E+03 -6.27876E+03 -3.07641E+03
 -1.46570E+03 -2.62927E+03 -1.94842E+03 -3.55657E+03 -3.18358E+02  3.98470E+03 -1.95088E+03  4.17045E+03
 -6.11316E+03  2.79266E+03 -9.71402E+02 -7.04046E+03 -3.88845E+03 -2.51678E+03 -1.33004E+03 -2.17756E+03
 -1.07618E+03 -1.61310E+03 -1.35762E+03 -4.79359E+02  4.60295E+03 -3.29105E+03  1.27579E+02  3.09207E+03
 -1.30045E+03  8.32033E+02  2.87027E+02 -2.81786E+03  3.99495E+03  1.32732E+03  4.73163E+03 -1.20247E+03
 -3.37587E+03 -2.05268E+02  4.94963E+03 -2.25731E+03 -1.14275E+03 -2.08939E+03 -3.76612E+02 -4.46458E+02
 -2.75576E+02  1.28422E+03  2.03568E+03 -5.12077E+03  2.16521E+03  2.34726E+03 -1.86889E+03  2.60575E+03
 -9.79606E+01 -8.53323E+02  2.20058E+03  5.53869E+03  3.23844E+03  6.94173E+01  2.33730E+03 -9.71040E+02
  3.72982E+02 -8.22685E+02 -6.95957E+02  2.40984E+03  6.78218E+02  8.90531E+02 -2.43879E+03 -1.81573E+02
 -1.76624E+03 -4.60338E+03 -4.97527E+03 -2.31635E+03 -1.60947E+03  1.35802E+03 -6.51094E+03 -2.71290E+03
 -1.75228E+03  2.48183E+02 -2.44141E+03 -7.71418E+03  1.03345E+03 -5.62068E+03  3.24094E+03 -3.96995E+03
  6.51043E+03  8.86209E+03 -6.60930E+02  5.41380E+03 -4.30821E+03  5.45933E+03 -8.61415E+02  5.54341E+03
  1.42437E+03 -8.62114E+01 -1.17802E+03 -1.40801E+02 -1.57087E+02 -3.12650E+03 -3.11131E+03 -4.26645E+03
 -5.07838E+03 -3.15287E+02 -3.05235E+03  1.74302E+03 -5.67780E+02 -1.68055E+03 -4.12027E+03  4.05837E+02
 -1.23018E+03 -4.29661E+03  4.46481E+03  2.43273E+03  1.82979E+03  1.39070E+03 -1.09531E+03  2.41047E+02
 -1.38173E+03  3.92635E+03 -1.78533E+03  8.02442E+03  5.67792E+02 -6.05800E+03 -2.33932E+03 -2.79108E+03
  1.58047E+03  9.52125E+02  3.23332E+03 -3.41600E+03  1.13596E+03 -1.20773E+03 -3.93294E+02  6.79842E+02
  1.08497E+03  1.80292E+03  3.21261E+03  1.75824E+03  1.60443E+03 -2.46651E+03  1.37495E+03  5.43584E+03
  6.58581E+02  8.78601E+02  7.09400E+02  2.42230E+03  3.19782E+03  1.21181E+03 -2.51347E+03 -1.43079E+03
 -5.90846E+03 -2.90937E+03  2.97163E+03 -5.31679E+02 -2.06385E+02 -1.74696E+03  9.98830E+02  3.78936E+02
  1.85870E+03 -6.03210E+03  3.40518E+03 -3.37482E+03  2.24472E+03  1.02193E+03  6.25577E+03  1.51066E+02
  1.21146E+03 -1.34813E+03 -1.82855E+03  1.69461E+03 -7.27645E+02  2.84388E+03  3.63772E+02 -3.27528E+03
  2.93402E+03  4.51335E+03 -1.47646E+03 -1.25049E+03 -2.65481E+03 -5.31656E+03 -4.80862E+02 -3.05178E+03
  2.27216E+03 -5.52219E+03 -3.79713E+03 -1.89462E+03  2.43412E+03 -4.25860E+03  9.73818E+02  7.68890E+02
 -3.29839E+03 -7.26821E+02 -1.83026E+03 -1.86480E+03 -1.74970E+03  3.66362E+03  1.38902E+02 -1.25821E+02
