 $NMID ID='MM_0lb_SNR50_16hz_g60_30.RAW', FMTDAT='(8E13.5)'
 TRAMP=1., VOLUME=1. $END
  3.09406E+05 -2.85174E+03  3.41015E+05  2.49367E+05  7.79331E+04  3.40439E+05 -1.35575E+05  2.53427E+05
 -1.85582E+05  8.52319E+04 -1.12212E+05 -3.44962E+04  2.92315E+03 -4.61329E+04  5.51359E+04  2.59274E+03
  3.31730E+04  5.47090E+04 -1.35547E+04  7.40126E+04 -6.16373E+04  6.33049E+04 -8.60713E+04  3.66305E+04
 -8.20416E+04 -1.08672E+04 -5.43914E+04 -5.03113E+04 -1.26303E+04 -6.89809E+04  2.38098E+04 -4.39168E+04
  4.39103E+04  8.64848E+03  1.51037E+04  4.48134E+04 -3.44701E+04  4.20035E+04 -6.61656E+04 -9.74195E+02
 -5.52458E+04 -6.04589E+04 -9.34048E+03 -7.64272E+04  3.58696E+04 -5.14787E+04  4.84352E+04 -1.74412E+04
  4.65283E+04  1.12748E+04  3.54081E+04  2.67613E+04  1.26509E+04  3.62481E+04 -1.06965E+04  2.64950E+04
 -2.09443E+04  1.16142E+04 -1.58836E+04 -2.23375E+03  4.73951E+03 -7.27244E+03  2.30057E+04  1.37173E+04
  7.11959E+03  3.52482E+04 -3.16975E+04  3.39735E+04 -6.19552E+04 -2.24019E+03 -6.24319E+04 -4.56367E+04
 -9.30658E+03 -6.11193E+04  3.86067E+04 -4.70126E+04  5.72461E+04 -3.32389E+02  3.71049E+04  2.87311E+04
 -7.54295E+03  3.82743E+04 -3.02453E+04  1.45601E+04 -3.00096E+04 -3.14330E+03 -1.17623E+04 -1.06867E+04
 -4.74167E+03 -1.46395E+04 -3.13379E+03 -2.44545E+04  7.66936E+03 -1.60801E+04  1.52527E+04 -1.83465E+04
  1.09834E+04  8.04894E+03 -5.19820E+03  1.57960E+04 -2.31149E+04 -4.27977E+03 -9.88819E+03 -3.63981E+04
  3.02865E+04 -4.28284E+04  4.74594E+04 -1.87961E+04  4.96551E+04  2.01886E+04  1.65996E+04  4.27285E+04
 -1.41294E+04  3.51153E+04 -2.26949E+04  2.87414E+03 -1.06863E+04 -3.20147E+04  2.09420E+04 -3.20934E+04
  4.06511E+04 -7.61715E+03  3.53727E+04  1.95128E+04  2.20121E+04  4.95452E+04 -1.19177E+04  5.59516E+04
 -3.05831E+04  3.21512E+04 -4.40729E+04  1.15773E+04 -3.86112E+04 -1.13299E+04 -2.47934E+04 -3.83278E+04
  2.17304E+03 -3.83535E+04  3.43038E+04 -1.94131E+04  2.65855E+04  4.68895E+03  2.34259E+03  1.45505E+04
 -1.11823E+04  1.00215E+04 -8.88925E+03 -8.00744E+03  5.56039E+03 -1.46248E+04  1.78049E+04  5.88780E+03
  1.48353E+04  2.18968E+04 -4.68796E+03  2.41447E+04 -2.56214E+04  8.80076E+03 -3.06006E+04 -2.09045E+03
 -2.33877E+04 -1.68319E+04 -6.59734E+03 -1.95808E+04  3.64114E+03 -1.75845E+04  1.71807E+04 -1.73237E+04
  2.34855E+04 -9.85557E+03  3.30227E+04  5.61549E+03  2.63939E+04  2.14247E+04  1.35750E+03  2.89099E+04
 -1.34915E+04  2.83597E+04 -2.70630E+04  1.29384E+04 -1.95508E+04 -3.54048E+03 -3.52809E+03 -1.51999E+04
  1.43590E+03 -3.32548E+03 -6.62382E+03  4.87276E+03 -1.77136E+04  8.02679E+03 -2.22623E+04 -7.78474E+03
 -1.23976E+04 -1.06874E+04  7.75637E+03 -2.04866E+04  1.53039E+04 -2.08243E+04  2.21653E+04 -7.14450E+02
  1.30443E+04  1.02183E+04  2.06107E+03  1.92635E+04 -1.29851E+04  1.01433E+04 -1.97587E+04 -2.28719E+03
 -1.89962E+04 -1.54138E+04  9.17727E+02 -1.98806E+04  1.39942E+04 -1.80955E+04  1.50954E+04 -7.78491E+03
  1.59133E+04 -1.70554E+03  1.00130E+04  4.50025E+03  8.29857E+03 -1.09829E+03  8.10100E+03 -1.72738E+03
  1.53920E+04  1.74713E+03  1.93883E+04  1.72247E+04  1.14969E+04  2.83634E+04 -6.62799E+03  3.20761E+04
 -2.05206E+04  2.59752E+04 -3.05007E+04  1.05678E+04 -3.58360E+04 -2.18104E+02 -2.81868E+04 -2.09539E+04
 -8.94078E+03 -2.58872E+04  6.35845E+03 -2.51303E+04  1.97152E+04 -1.34747E+04  2.23771E+04  1.01359E+04
  1.09636E+04  1.63130E+04 -5.33510E+03  1.47526E+04 -1.59323E+04  2.86460E+03 -1.38638E+04 -1.01221E+04
  2.91189E+02 -1.40947E+04  4.08684E+03 -1.11881E+04  8.86735E+03 -6.27876E+02 -1.12417E+03  1.01450E+04
 -4.93517E+03 -5.03909E+03 -5.67446E+03 -5.11095E+03 -3.39969E+03 -1.22680E+04  8.12869E+03 -1.04799E+04
  1.52284E+04 -6.71394E+03  1.99787E+04  3.77949E+03  1.79221E+04  1.60762E+04  6.90061E+03  2.19962E+04
  9.52573E+01  1.55261E+04 -1.45752E+04  1.70910E+04 -1.79916E+04 -1.20576E+03 -3.25897E+03 -1.34304E+03
 -6.13742E+03 -7.47674E+03 -1.34263E+03  2.71131E+03 -3.00049E+03  2.15019E+03 -7.76460E+03  3.26837E+03
 -1.31553E+04 -1.25713E+03 -1.06560E+04 -5.59400E+03 -7.86853E+03 -1.41074E+04  4.04680E+03 -7.27231E+03
  9.44927E+03 -4.52871E+03  2.81775E+03  3.33118E+03 -6.44267E+02  2.08441E+03 -5.52849E+03 -3.41505E+03
 -4.81057E+03 -7.72390E+03 -3.59798E+03 -5.85577E+03  6.94224E+03 -9.05943E+03  1.14487E+04 -9.07595E+03
  1.55065E+04  1.36321E+03  1.17952E+04  1.21204E+04  5.10117E+03  1.22087E+04 -8.60527E+03  9.67227E+03
 -6.31562E+03  7.54324E+03 -1.06386E+03 -5.78662E+03  4.42585E+03 -1.95132E+03  4.10929E+03  2.13480E+02
  3.77916E+03  8.37105E+03  2.69969E+03  8.05209E+03 -7.04643E+03  7.42070E+03 -9.13528E+03  6.29939E+03
 -4.17523E+03 -5.82663E+03 -5.41257E+03 -7.26761E+03  1.67663E+03 -8.25788E+03  6.33513E+03 -9.46385E+02
 -1.10164E+03  3.06446E+03  2.01094E+03  6.13420E+03 -6.64008E+03  1.45114E+03 -1.14443E+04 -5.03956E+03
 -4.46132E+03 -9.03030E+03  3.87484E+03 -1.32362E+04  8.50965E+03 -5.05380E+03  8.80325E+03  2.86650E+03
  6.38734E+03  7.79640E+03  2.50071E+03  7.42619E+03 -1.06716E+04  5.81297E+02 -6.53008E+03 -1.50482E+03
 -1.01314E+04 -1.10158E+04 -3.70652E+03 -8.23016E+03  5.36683E+03 -6.92820E+03  8.41784E+03 -2.70020E+03
  2.90052E+03  4.64797E+03  4.34072E+03  2.68278E+03 -2.80031E+02 -4.31029E+02  5.63406E+03  1.25397E+03
  1.12159E+04  2.95337E+03  1.18348E+04  5.96971E+02  7.84962E+03  4.70923E+02  7.52935E+03  6.14599E+03
 -2.39973E+03  1.29272E+04 -1.10489E+04  6.58468E+03 -1.78619E+04  5.35694E+03 -1.50893E+04 -8.14554E+03
 -9.38492E+03 -9.69119E+03  1.71195E+03 -5.07144E+03  6.36843E+03 -3.36436E+03  2.14443E+03 -4.92760E+02
  2.37798E+03 -5.49841E+03  3.44892E+03 -6.24736E+03  7.78385E+03 -3.97445E+02  8.05494E+03 -2.22452E+03
  4.90158E+03  6.49879E+03  5.79307E+03  3.52782E+03 -7.90711E+03  4.56016E+03 -5.87173E+03  9.09141E+03
 -6.91482E+03 -4.38479E+02 -3.48298E+03 -3.20772E+03 -2.32125E+03 -4.53968E+03  7.72776E+03 -8.21280E+03
  7.35580E+03 -6.41755E+03  8.90667E+03 -2.03327E+03  5.34605E+03  2.61934E+03  2.55990E+02  1.18145E+04
 -6.92130E+03  8.27215E+03 -3.12016E+03 -4.26103E+03 -2.30306E+03  1.79121E+03 -1.26599E+03 -4.78553E+03
 -1.17751E+03  6.16042E+03  3.72609E+02  1.08097E+03 -1.83742E+03  1.74596E+03 -5.44584E+03  2.45411E+03
 -5.37597E+03 -6.81694E+03 -1.76703E+03 -3.70708E+03  1.69264E+03 -8.42261E+03  7.60526E+03 -5.97702E+03
  3.56044E+03  2.24596E+03  3.69419E+03  6.38296E+03  2.96923E+03  1.11954E+04 -5.95740E+03  1.90221E+03
 -8.18026E+03  2.24209E+03 -5.36801E+03 -2.67810E+03  2.27711E+03 -3.03995E+03  2.10718E+03 -1.06778E+02
  1.20012E+03 -1.81585E+03  1.87489E+03 -1.75331E+02 -1.88238E+03  4.39898E+03  4.92239E+03  2.23864E+03
  3.71889E+03 -2.01948E+03  1.12361E+03 -8.29524E+02  2.68649E+03  7.18162E+02  6.29341E+03  6.77466E+03
 -1.63897E+03  5.10542E+03 -2.48177E+03  4.59128E+03 -7.96211E+03  5.73797E+03 -7.88152E+03 -3.84980E+03
 -1.14298E+03 -7.49258E+03 -1.24861E+03 -6.61677E+03  5.70629E+03 -1.81077E+03  4.29395E+03  1.62088E+03
  6.82150E+02  2.54346E+03  1.25764E+03  2.13988E+03 -1.17688E+03 -3.51990E+02 -1.10600E+03  9.34824E+02
  1.06327E+03 -3.19404E+03  3.96658E+02 -6.28942E+03  1.15452E+03 -6.03681E+03  6.25513E+03 -5.09775E+02
  2.39804E+02 -4.45961E+03  7.23312E+02  3.42783E+03  4.13594E+00  5.93032E+03 -2.54962E+02 -1.64550E+03
  1.30623E+03  2.07447E+03  5.89441E+03  8.63020E+02  4.74961E+02  5.19306E+03 -2.59273E+03  3.70117E+03
 -1.56060E+03  5.42555E+03  2.58154E+03 -2.84562E+03 -2.06891E+03 -1.52926E+02 -2.50540E+03 -5.84190E+02
 -7.12052E+02 -9.05971E+01  2.56077E+03  1.17635E+03  4.06995E+03  4.53791E+03  5.41725E+03  3.80363E+03
 -1.09102E+03  1.86803E+03 -3.99136E+03  1.93059E+02  3.46597E+03 -2.25363E+03  1.95028E+02 -1.44112E+03
  2.24557E+03 -8.00492E+02 -2.83572E+03 -1.01916E+03  8.40993E+02 -1.79815E+03  2.07079E+03  1.55079E+03
  1.20234E+03 -2.35080E+03 -2.08775E+03  1.34374E+03  5.28348E+02 -2.92268E+03  6.77606E+03 -3.58554E+03
  2.06106E+03  3.77996E+03  9.22452E+02  1.95337E+03  1.95865E+03  4.17185E+02 -3.32006E+03  5.51963E+03
 -4.42864E+03  2.27691E+03 -1.61679E+03 -2.47423E+03 -2.75168E+03 -5.70574E+03 -2.15155E+03 -2.05597E+02
  1.54033E+03 -3.55795E+03  3.99890E+03 -4.79623E+01 -2.10285E+02  4.86200E+02  1.69999E+03  2.02326E+03
  7.32608E+02  1.83364E+03 -2.54647E+03  1.03245E+03 -5.17333E+03 -3.21218E+03 -2.30287E+02  6.54674E+01
 -4.94940E+03  1.17676E+03 -1.65409E+02  3.69459E+03 -1.84114E+03  3.34074E+03 -1.90582E+03 -1.21347E+03
 -1.08942E+03 -3.32462E+03  6.93517E+02 -2.85167E+03  2.09943E+03 -5.54944E+03  4.70078E+03 -1.94127E+03
  4.64919E+03  3.70739E+03 -8.83840E+02  4.65369E+03  1.50417E+03  1.49881E+03 -3.84361E+02  2.57464E+03
  6.72592E+01  3.89995E+03 -2.79165E+03  1.05739E+03 -1.58692E+03  3.06742E+03 -7.94583E+02  1.75497E+03
 -1.54682E+03 -2.23458E+03  2.94487E+02 -2.17219E+03 -9.62272E+02  3.08430E+03 -3.24286E+03  1.70245E+03
 -5.68396E+03  1.30335E+03 -2.71176E+03 -2.11166E+03 -9.23858E+02 -3.19350E+02 -4.02758E+03  1.99636E+03
  1.87097E+03  3.66394E+03 -5.09558E+03  2.97302E+03 -4.79995E+03  1.14022E+03  3.78141E+02 -1.96650E+03
  7.72330E+02  2.28419E+03  4.29368E+03 -2.12659E+03  2.63539E+03 -6.48323E+03  1.70477E+03  1.63562E+03
 -2.93314E+03  2.02773E+03 -1.28502E+03 -1.02729E+03  2.19067E+03 -1.02925E+03  1.86872E+03 -2.64807E+03
  4.56553E+03  2.38595E+03  1.65172E+03  1.36901E+03 -5.21529E+03  1.99666E+02  2.64907E+03  4.87593E+03
 -2.17470E+03  3.88928E+03 -1.48243E+03  4.61673E+03  1.24429E+02  1.17936E+02 -3.11053E+02 -3.58578E+02
  2.40047E+03 -5.20004E+03  4.71541E+03  2.79472E+02 -5.09075E+03  1.84883E+03 -5.73230E+02 -2.64665E+03
 -2.56787E+03  1.63032E+03  3.89534E+03  2.38849E+03 -3.03733E+03  1.72237E+02  1.29771E+03  6.48423E+02
  4.54953E+03  3.98932E+03  4.53280E+01  2.80912E-01  7.33267E+02  1.71738E+03 -3.02084E+02  8.45949E+02
 -2.07392E+03  5.18682E+03  1.94945E+03 -5.87898E+03 -5.24297E+02 -1.17313E+03  4.87492E+03 -4.79057E+03
  5.50621E+02 -2.35656E+03  2.57245E+02 -4.68940E+03  2.30360E+03 -1.02788E+03 -4.22517E+03  4.07321E+03
