 $NMID ID='MM_0lb_SNR50_7hz_g45_60.RAW', FMTDAT='(8E13.5)'
 TRAMP=1., VOLUME=1. $END
  3.13253E+05 -7.27222E+02  3.34440E+05  2.47833E+05  8.57915E+04  3.32261E+05 -1.32344E+05  2.62054E+05
 -1.91159E+05  8.53389E+04 -1.17422E+05 -3.55703E+04 -4.82316E+02 -5.09277E+04  5.05189E+04  5.45727E+03
  2.81673E+04  5.46808E+04 -1.57010E+04  7.63364E+04 -6.13579E+04  6.33761E+04 -8.85072E+04  3.58158E+04
 -7.98805E+04 -1.14665E+04 -5.95470E+04 -5.01220E+04 -2.02713E+04 -7.09117E+04  2.14693E+04 -4.55056E+04
  4.44433E+04  5.36139E+03  1.24826E+04  5.09802E+04 -3.21740E+04  5.06893E+04 -6.81868E+04  4.33885E+03
 -5.09664E+04 -5.93497E+04 -1.30641E+04 -7.69242E+04  3.90739E+04 -6.55418E+04  5.53388E+04 -1.93592E+04
  4.42659E+04  1.76752E+04  3.82429E+04  2.31717E+04  1.72852E+04  3.17075E+04 -3.27861E+03  3.18164E+04
 -2.30195E+04  7.34751E+03 -1.46038E+04 -5.99212E+03  6.22074E+03 -6.99201E+03  2.69762E+04  1.08500E+04
  1.24465E+04  3.89792E+04 -3.62423E+04  3.69342E+04 -6.81488E+04  3.00178E+03 -5.43504E+04 -4.59003E+04
 -1.57634E+04 -6.42680E+04  4.17630E+04 -5.07082E+04  6.15941E+04 -2.84708E+03  3.78525E+04  3.61871E+04
 -8.59586E+03  3.61137E+04 -3.26971E+04  2.24168E+04 -3.08591E+04  1.01702E+03 -2.47098E+04 -9.77426E+03
 -1.31329E+04 -1.77634E+04  9.30176E+03 -2.19932E+04  9.39310E+03 -2.51793E+04  1.51395E+04 -1.62595E+04
  1.04039E+04  1.57949E+03 -4.21552E+03  5.87036E+03 -2.90067E+04 -9.38508E+03 -4.73959E+03 -4.11087E+04
  2.74516E+04 -4.75115E+04  4.54294E+04 -2.02861E+04  5.06895E+04  1.82984E+04  2.55661E+04  4.53440E+04
 -1.85150E+04  3.95646E+04 -3.11216E+04  7.59015E+03 -1.23764E+04 -2.89064E+04  2.22061E+04 -3.61735E+04
  5.05524E+04 -7.81884E+03  4.21535E+04  2.28727E+04  2.30990E+04  5.42648E+04 -6.73775E+03  6.00864E+04
 -3.10183E+04  3.68435E+04 -4.32283E+04  1.02183E+04 -4.94120E+04 -1.99198E+04 -3.13699E+04 -3.86879E+04
  1.13777E+04 -5.24654E+04  4.04855E+04 -2.14040E+04  2.34923E+04  7.88132E+03  6.67785E+03  1.96175E+04
 -1.16146E+04  8.60032E+03 -1.68129E+04 -1.94397E+03  6.89320E+03 -1.28883E+04  1.84303E+04  5.85669E+03
  1.24886E+04  1.41879E+04  6.03154E+02  2.95696E+04 -2.33683E+04  1.31226E+04 -3.00211E+04  1.20525E+03
 -2.79474E+04 -1.63867E+04 -1.35606E+04 -2.09970E+04  2.55430E+03 -3.52304E+04  1.97845E+04 -2.48282E+04
  3.33767E+04 -1.00387E+04  3.75023E+04  3.88764E+03  2.70805E+04  2.06350E+04  5.90316E+03  4.28519E+04
 -2.40478E+04  3.03795E+04 -3.04999E+04  8.82591E+03 -2.15578E+04 -1.63596E+04 -5.73062E+03 -1.95333E+04
  5.32527E+03  8.62732E+03 -1.62258E+04  8.06276E+03 -1.58598E+04  1.07272E+04 -2.45272E+04 -1.19643E+04
 -1.34594E+04 -2.39410E+04  4.88362E+03 -2.68385E+04  1.67206E+04 -2.15973E+04  2.14428E+04 -5.10935E+03
  1.80333E+04  1.51413E+04 -3.78157E+03  2.47052E+04 -1.76754E+04  1.46195E+04 -2.45234E+04 -5.51502E+03
 -2.22201E+04 -2.74697E+04 -8.24559E+02 -3.20910E+04  5.77170E+03 -1.83751E+04  2.58451E+04 -1.60363E+04
  2.07834E+04  3.57005E+03  1.70293E+04 -1.04272E+03  4.56344E+03 -2.75641E+03  1.65335E+04 -5.50608E+03
  2.35027E+04  1.54522E+03  2.22061E+04  1.76584E+04  2.52401E+04  4.20482E+04 -3.08608E+03  4.36757E+04
 -2.92034E+04  3.59728E+04 -4.36607E+04  2.10423E+04 -4.60274E+04 -3.94568E+03 -3.66806E+04 -2.13254E+04
 -7.61822E+03 -4.15944E+04  2.09226E+04 -3.81244E+04  3.08921E+04 -1.48341E+04  2.58838E+04  1.07194E+04
  6.15893E+03  1.41314E+04 -2.45100E+03  1.87878E+04 -2.42161E+04 -2.27360E+03 -1.71800E+04 -1.39914E+04
 -1.43137E+03 -1.85524E+04  1.10098E+04 -2.11489E+04  1.80000E+04  4.25562E+03  9.10090E+03  1.41177E+04
 -8.53190E+03  3.42409E+03 -4.21178E+03 -1.07615E+04 -2.31375E+03 -2.42623E+04  1.67513E+04 -2.23790E+04
  2.35009E+04 -1.87915E+04  2.50009E+04  1.98849E+03  2.81485E+04  2.63817E+04  9.88881E+03  3.55243E+04
 -9.73635E+03  2.90302E+04 -2.65528E+04  2.32920E+04 -2.57366E+04  4.09321E+03 -2.09527E+04  1.00516E+03
 -8.79023E+03 -1.00305E+04 -3.80549E+03  5.89788E+03 -3.05384E+03  1.92407E+03 -1.80409E+04  2.58493E+03
 -1.17166E+04 -3.48360E+03 -1.62598E+04 -1.33075E+04 -4.96424E+03 -2.18675E+04  1.93869E+03 -1.35755E+04
  1.52550E+04 -1.20772E+04  1.84474E+04  2.20842E+03  1.82721E+03  6.11603E+02 -1.02872E+04  6.41222E+03
 -6.35413E+03 -2.73951E+03  3.02055E+02 -2.00903E+04  1.40287E+04 -1.94395E+04  2.24294E+04 -9.83914E+03
  2.30287E+04  7.50111E+03  1.90410E+04  1.96642E+04  7.11321E+03  2.21854E+04 -2.93491E+03  1.87254E+04
 -1.48008E+04 -6.29493E+02 -1.03386E+04 -8.51483E+03 -3.16429E+03 -5.46840E+03  7.45083E+02  5.51983E+03
  8.68952E+03  5.49131E+03 -3.19139E+03  1.31709E+04 -7.81151E+03  9.18038E+03 -1.63801E+04  8.99605E+03
 -1.91200E+04 -1.11642E+04 -2.15916E+03 -1.15656E+04  7.32007E+03 -7.59093E+03  1.55195E+04  2.49159E+03
  5.62989E+02  1.57861E+04 -1.29185E+04  1.43966E+04 -1.75432E+04  7.70360E+03 -1.51125E+04 -8.08961E+03
 -5.37197E+03 -1.22683E+04  9.99987E+03 -2.96798E+04  1.67812E+04 -6.93635E+03  2.24080E+04 -1.23097E+03
  8.41822E+03  1.49268E+04 -3.37072E+03  2.24715E+04 -1.42784E+04  8.30279E+03 -1.70934E+04  9.99891E+02
 -1.21300E+04 -1.10823E+04 -4.65820E+03 -1.38639E+04  6.84744E+03 -1.13895E+04  8.60429E+03 -9.52123E+03
  6.56544E+03  7.36368E+03 -1.33811E+03  1.19439E+03  1.58780E+03 -6.15175E+03  7.83857E+03 -1.60445E+04
  1.18343E+04 -3.89434E+03  1.95955E+04 -1.29232E+03  1.80234E+04  9.72432E+03  1.57539E+04  2.59861E+04
 -1.07529E+03  2.38858E+04 -2.07237E+04  2.01021E+04 -2.78384E+04  3.60456E+03 -2.66719E+04 -3.36540E+03
 -1.36507E+04 -2.06406E+04 -1.70544E+03 -1.64817E+04  7.46229E+03 -1.24463E+04  5.81062E+03 -1.80415E+03
  6.63000E+02 -7.57624E+03  7.45215E+03 -8.77761E+02  9.29270E+03 -5.33532E+03  9.51863E+03  3.17608E+02
  1.24932E+04  2.68688E+03  1.05466E+04  1.71366E+04  1.88170E+03  1.44608E+04 -1.00029E+04 -1.31607E+03
 -1.85520E+04 -5.14608E+03 -8.05381E+03 -1.26439E+04 -9.62653E+02 -2.00285E+04  1.42187E+04 -1.38739E+04
  1.42065E+04 -5.50362E+03  2.42249E+04  4.56807E+02  1.19731E+04  1.87500E+04 -7.40409E+03  2.04906E+04
 -9.35686E+03  2.54665E+04 -1.31339E+04  1.57190E+03 -1.30110E+04  7.61121E+02 -3.86330E+03 -6.66278E+03
 -2.13190E+03 -5.92862E+03 -5.55633E+03  6.59908E+03 -5.73464E+03  4.08806E+02 -1.53265E+04 -5.46180E+03
 -6.93419E+03 -1.14505E+04 -6.25105E+03 -2.12975E+04  1.43739E+04 -1.73712E+04  1.93467E+04 -1.08420E+04
  1.54423E+04  1.74585E+04  7.82658E+03  9.67957E+03 -3.07856E+03  1.54988E+04 -1.21344E+04  1.13720E+04
 -2.70503E+04 -3.70547E+03 -1.23608E+04 -1.09230E+04 -2.26117E+03 -1.02394E+04  8.52427E+03 -1.23295E+04
  8.83683E+03 -9.20937E+03  1.21134E+04  2.10009E+03 -7.61734E+03  4.64967E+03 -5.21739E+03  6.54535E+03
  1.00331E+04  2.98314E+02 -2.19876E+02  8.23178E+03  9.51813E+03  2.36637E+03  5.81861E+03  9.75114E+03
 -2.19872E+03  1.51456E+04 -1.66449E+04  9.05957E+03 -1.36614E+04  1.35122E+03 -1.98538E+04 -1.16618E+04
 -1.04241E+04 -1.41893E+04  3.55512E+03 -2.37627E+04  1.09815E+04 -1.63566E+04  1.52199E+04  1.75326E+03
  1.49353E+04  6.15542E+03 -2.34488E+03  1.02721E+04 -2.08271E+03  8.23207E+03 -1.08050E+04  4.57533E+02
 -3.51326E+03 -2.11157E+03  3.82766E+03 -8.77290E+03  1.03480E+04 -4.00029E+03  6.09500E+03 -1.11981E+03
  8.03963E+03  4.67858E+03  5.59932E+02  7.20848E+03  4.98046E+03  1.05286E+04  5.91467E+03  2.12404E+03
  5.39353E+03 -4.68854E+02  1.26808E+04  4.64820E+02  1.21194E+04  1.36429E+04 -3.43181E+03  9.67604E+03
 -1.59601E+04  1.13274E+04 -1.39973E+04 -8.53720E+02 -1.61697E+04 -1.93808E+03  2.77269E+03 -5.50955E+03
 -1.16474E+03 -6.60673E+03  2.46197E+03 -2.28266E+03  2.98253E+03  1.48153E+03 -9.47611E+02  1.40100E+04
 -9.11641E+03  4.83633E+03 -1.03711E+04  9.92009E+02 -5.36653E+03 -4.71926E+03  1.49742E+03 -1.25740E+04
  1.02022E+04 -6.04413E+03  1.16365E+04 -3.11129E+02 -4.57444E+03  1.00584E+03  1.53865E+03  4.88724E+03
 -4.54910E+03 -1.77703E+03 -4.20409E+03  4.28789E+03 -4.14685E+03 -1.28157E+04  6.82839E+03 -1.38432E+04
  1.23380E+04 -5.45312E+03  7.13023E+03  3.80513E+03  8.94125E+03  1.72197E+04 -7.52554E+03  1.54569E+04
 -9.75693E+03  4.37588E+03 -9.41166E+03 -4.72170E+03 -6.44089E+03 -3.90291E+03  1.80807E+03 -2.58997E+03
  9.14882E+03  1.83829E+03  1.10137E+04 -3.20880E+03  1.85796E+03  7.52284E+03 -6.59480E+03  8.86594E+03
 -2.78835E+03 -3.01997E+03 -1.35925E+03 -1.48641E+01  9.26502E+02 -5.20780E+03  4.66726E+03  3.38286E+03
 -4.64521E+03  7.52889E+02 -1.39308E+04  1.24852E+03 -1.45682E+04 -1.71631E+03 -2.27977E+04 -1.06842E+04
 -7.92568E+03 -1.68586E+04  7.35158E+03 -1.63240E+04  1.16484E+04 -1.53535E+04  2.94083E+04 -3.74781E+03
  2.09079E+04  6.86520E+03  1.00744E+04  1.31711E+04  2.75627E+02  1.27296E+04 -8.50669E+03  1.21395E+03
 -8.85743E+03  3.45361E+02 -6.30025E+03  1.78749E+03 -4.18819E+03  1.74491E+03  4.93501E+03 -7.33359E+02
 -2.46758E+03 -3.80052E+03 -5.60301E+03 -3.74535E+03 -5.32129E+03 -2.25004E+03 -9.39497E+02 -1.50595E+04
  3.78594E+03 -7.47562E+03  2.00121E+03  3.14226E+03  4.53184E+03  6.09371E+03 -6.20098E+03  1.36865E+04
 -3.00646E+03  1.25957E+04 -1.64893E+04  6.45797E+03 -1.15330E+04 -4.75328E+02 -1.82442E+04 -1.25755E+04
 -9.12858E+03 -1.05818E+04  7.53879E+03 -1.63842E+04  1.31370E+04 -1.16931E+04  3.23257E+03  3.20809E+03
  1.73761E+03  2.59585E+03  6.64673E+02  1.95543E+03 -9.83829E+03 -2.08021E+03  8.28634E+03  1.99655E+03
  6.16432E+03 -4.78598E+03  6.87778E+03 -8.31388E+03 -1.22865E+01  1.58780E+03 -1.67254E+03  9.42527E+03
 -6.67106E+03  4.54234E+03 -1.07251E+04  3.48305E+03 -7.10575E+03 -9.83315E+03 -9.26679E+03 -8.86800E+03
  1.09383E+04 -7.72559E+03  1.55095E+04  2.72490E+02  1.70603E+04  8.93728E+03 -1.47729E+03  1.14823E+04
 -4.07914E+03  7.91427E+03 -6.12390E+03  1.29798E+04 -5.08212E+03  1.03854E+04 -9.01557E+03  5.24349E+03
 -1.77456E+03 -8.56903E+02  3.02006E+03  1.75853E+03 -4.67246E+03  2.27256E+03 -1.05624E+04 -1.28114E+04
 -6.14879E+03 -7.15861E+03 -2.59595E+03 -1.03286E+04  7.45419E+03 -7.98801E+03  4.86587E+03 -7.17867E+03
  8.00103E+03  5.60709E+03  1.65201E+03  5.93295E+03 -2.23962E+02  8.89837E+03 -1.35237E+04  4.59446E+03
