 $NMID ID='MM_0lb_SNR50_9hz_g60_69.RAW', FMTDAT='(8E13.5)'
 TRAMP=1., VOLUME=1. $END
  3.00893E+05 -1.07405E+03  3.37877E+05  2.56793E+05  8.28639E+04  3.37033E+05 -1.32562E+05  2.50091E+05
 -1.91170E+05  8.77766E+04 -1.09945E+05 -3.51145E+04 -3.47291E+03 -4.96609E+04  5.98009E+04 -3.08323E+03
  3.71696E+04  5.33259E+04 -1.79151E+04  7.78822E+04 -6.33661E+04  6.19937E+04 -8.69966E+04  2.84446E+04
 -8.15026E+04 -1.33959E+04 -5.77637E+04 -5.87149E+04 -1.17178E+04 -6.49042E+04  3.22773E+04 -4.90232E+04
  4.03914E+04  1.91171E+03  1.93431E+04  4.88318E+04 -3.71761E+04  5.56761E+04 -6.58050E+04 -2.58307E+03
 -5.41061E+04 -5.05037E+04 -7.00027E+03 -7.77269E+04  3.74928E+04 -6.22453E+04  4.89424E+04 -1.54607E+04
  4.01460E+04  1.42152E+04  3.13976E+04  2.85285E+04  1.40181E+04  2.66928E+04 -9.93926E+03  2.70887E+04
 -2.82863E+04  2.00709E+04 -2.16033E+04 -4.21457E+03 -2.62326E+03 -1.16461E+04  2.10151E+04  1.89380E+04
  5.45737E+03  4.10307E+04 -3.20527E+04  3.99707E+04 -6.51185E+04  7.63801E+03 -5.38181E+04 -4.39544E+04
 -1.42962E+04 -6.50863E+04  3.76149E+04 -4.55329E+04  6.05721E+04 -5.63602E+03  3.43421E+04  3.26484E+04
  2.01759E+03  3.92305E+04 -3.45038E+04  1.78420E+04 -3.01441E+04  2.26186E+02 -2.23164E+04 -1.03220E+04
 -1.17408E+04 -1.47875E+04  1.87399E+03 -1.70568E+04  5.89743E+03 -2.48472E+04  1.37866E+04 -1.92874E+04
  1.03548E+04  5.58013E+03 -5.55650E+03  1.21811E+04 -2.20766E+04 -1.07500E+04 -1.47519E+04 -3.99896E+04
  2.77175E+04 -4.64742E+04  5.34428E+04 -1.67197E+04  4.92157E+04  2.49253E+04  1.85636E+04  5.30500E+04
 -1.49639E+04  3.82136E+04 -2.79733E+04 -1.86965E+02 -1.11696E+04 -3.54107E+04  2.34313E+04 -3.92771E+04
  4.44561E+04 -1.14452E+04  4.24239E+04  1.68990E+04  1.93719E+04  5.20656E+04 -7.30198E+03  5.23562E+04
 -3.75932E+04  4.68589E+04 -5.43472E+04  6.89978E+03 -5.23852E+04 -2.18609E+04 -2.65480E+04 -4.20875E+04
  1.16288E+04 -4.47788E+04  2.91563E+04 -1.55339E+04  2.83784E+04  1.39493E+04  2.71298E+03  1.88743E+04
 -1.57047E+04  3.55530E+03 -1.09535E+04 -1.43232E+04  5.25609E+03 -1.80546E+04  1.41858E+04  1.26106E+04
  1.12426E+04  2.68182E+04 -5.91431E+03  2.39689E+04 -3.02312E+04  1.69562E+04 -2.91659E+04 -1.14519E+04
 -2.50167E+04 -2.06239E+04 -1.11141E+04 -2.31490E+04  2.15376E+03 -2.64245E+04  1.83423E+04 -2.29433E+04
  2.99077E+04 -1.82246E+04  4.80361E+04  5.67166E+03  2.97035E+04  2.51686E+04  1.17003E+04  3.54334E+04
 -1.99704E+04  3.78583E+04 -3.90882E+04  9.80565E+03 -2.48399E+04 -1.26807E+04 -7.14194E+03 -1.63545E+04
 -6.65502E+03  2.18040E+03 -6.32830E+03  6.73691E+03 -1.88749E+04  5.86092E+03 -1.99238E+04 -9.05999E+03
 -9.61339E+03 -2.46570E+04  3.65004E+03 -2.91716E+04  1.97959E+04 -2.19714E+04  1.95741E+04  5.81159E+03
  1.36451E+04  1.74756E+04 -2.79236E+03  2.23443E+04 -1.81345E+04  1.65999E+04 -2.87055E+04 -8.21791E+03
 -1.27902E+04 -2.18919E+04 -5.40474E+03 -2.85029E+04  1.82759E+04 -2.10906E+04  2.65575E+04 -1.25573E+04
  2.14309E+04 -4.08037E+03  1.30095E+04  4.39927E+03  6.20652E+03 -2.90403E+03  1.44091E+04  3.57331E+03
  2.12801E+04 -2.73482E+03  2.62979E+04  2.17019E+04  1.61289E+04  4.18310E+04 -2.55937E+03  4.46744E+04
 -2.80097E+04  3.50354E+04 -4.44373E+04  1.14505E+04 -4.56310E+04 -3.86342E+03 -4.21431E+04 -2.18958E+04
 -1.80929E+04 -3.76474E+04  1.40234E+04 -3.70679E+04  3.31229E+04 -1.90580E+04  2.91613E+04  2.59547E+03
  1.12145E+04  1.34730E+04 -1.92507E+04  1.77249E+04 -1.94401E+04  3.35840E+03 -1.05146E+04 -9.27915E+03
 -5.17693E+02 -2.06532E+04  1.35832E+04 -1.61979E+04  1.77278E+04 -1.11398E+03  3.92561E+03  8.85651E+03
 -9.68244E+03  1.01994E+04 -8.95035E+03 -3.61263E+03 -8.20687E+03 -2.28028E+04  1.55249E+04 -1.44573E+04
  3.16349E+04 -1.44608E+04  2.89490E+04 -5.62219E+03  2.73339E+04  2.38600E+04  7.86136E+03  3.02397E+04
 -2.31351E+03  3.56870E+04 -2.19202E+04  1.91123E+04 -2.68359E+04  6.81361E+02 -1.84724E+04 -8.75405E+03
 -2.68909E+03 -8.01147E+03 -1.08128E+02  9.15595E+03 -8.58792E+03  2.18384E+03 -1.11087E+04  1.01070E+03
 -1.48314E+04 -1.89446E+03 -1.83645E+04 -1.09000E+04 -5.97575E+03 -2.40166E+04  6.31114E+03 -1.38042E+04
  1.68406E+04 -3.87979E+03  9.00142E+03  7.84226E+03 -3.90715E+03  7.72300E+03 -9.63365E+03  1.29130E+03
 -1.20286E+04 -1.19055E+04  1.73587E+03 -1.44173E+04  1.60174E+04 -2.47261E+04  2.26774E+04 -4.60532E+03
  2.31899E+04 -5.01137E+02  2.02449E+04  2.09021E+04  8.76992E+03  1.65902E+04 -1.18828E+04  1.90028E+04
 -1.12070E+04  5.31103E+03 -6.10794E+03 -7.21358E+03  9.14521E+03 -5.12658E+02  1.22151E+04 -9.72159E+02
  1.30696E+04  1.34261E+04  5.54339E+03  1.40469E+04 -1.29735E+04  1.02012E+04 -1.45280E+04  4.17819E+03
 -8.99303E+03 -1.19603E+04  7.23289E+02 -1.19484E+04  1.04790E+04 -7.57760E+03  8.19346E+03  1.11184E+04
  1.88413E+02  9.48171E+03 -8.06487E+03  2.26845E+04 -1.02520E+04  2.51040E+03 -1.18194E+04 -5.00459E+03
 -1.15127E+04 -1.92198E+04  2.79027E+03 -1.50302E+04  1.41182E+04 -1.32993E+04  1.74502E+04  2.39291E+03
  1.71917E+04  1.62039E+04 -6.86656E+03  2.54737E+04 -8.69595E+03  1.34393E+04 -1.40476E+04 -3.67471E+03
 -1.05020E+04 -1.18292E+04  8.62286E+03 -1.79033E+04  9.62866E+03 -7.16702E+03  1.05252E+04 -2.85211E+03
  3.68172E+03  3.09983E+03 -3.08090E+03  1.00361E+03  7.42974E+03 -8.62482E+03 -4.01780E+03 -1.03562E+04
  1.42708E+04 -5.95379E+03  2.34299E+04  2.72697E+03  2.26944E+04  1.90328E+04  4.57047E+03  1.78072E+04
 -1.01103E+04  2.88923E+04 -2.63272E+04  1.98794E+04 -2.50438E+04 -2.57056E+03 -2.46928E+04 -9.00396E+02
 -1.03549E+04 -1.83338E+04  2.72398E+03 -1.60324E+04  6.47245E+03 -8.97834E+03  1.27373E+04 -9.27619E+03
  6.64317E+03 -1.22400E+03 -2.92922E+02 -1.05167E+04  6.30196E+03 -2.97891E+02  1.02403E+04  1.57074E+03
  1.57612E+04  8.71234E+03  6.80208E+03  7.29890E+03  2.15634E+03  9.02998E+03 -6.40726E+03  1.14315E+04
 -1.37121E+04 -3.73774E+03 -1.21078E+04 -8.39058E+03 -4.18163E+03 -1.63397E+04  9.07047E+03 -1.49943E+04
  1.71663E+04 -1.12807E+04  1.71829E+04  2.04456E+03  1.24010E+04  1.02818E+04  3.14226E+03  1.84438E+04
 -2.54193E+03  2.11882E+04 -3.81604E+03  3.30836E+03 -7.00005E+03 -1.70354E+03 -9.65575E+03 -2.13504E+03
  2.35514E+03  5.27736E+03 -1.01749E+04  2.22600E+03 -5.90210E+03  2.95273E+03 -2.43358E+03 -3.38181E+02
 -9.11152E+03 -1.29825E+04  1.99998E+03 -1.45604E+04  8.96758E+03 -1.36270E+04  1.88715E+04 -1.98236E+03
  1.39860E+04  1.21834E+04  4.75346E+03  1.96552E+04 -6.59768E+02  7.63194E+03 -1.38932E+04  1.22168E+04
 -1.53693E+04 -4.21371E+03 -1.07395E+04 -9.32525E+03 -9.99270E+02 -1.25007E+04  6.47143E+03 -1.24206E+04
  1.06113E+04  3.82169E+02  1.48573E+03  6.80405E+03  1.06309E+04 -4.00050E+03  5.42930E+03  6.44883E+03
  7.75570E+03 -4.93879E+03  6.97995E+03  4.84182E+02  1.36086E+02  9.35823E+03  2.25705E+03  4.00808E+03
 -7.22993E+03  1.85598E+04 -1.36103E+04  1.58784E+04 -2.24734E+04  3.40109E+03 -1.91507E+04 -7.81000E+03
 -1.02169E+04 -1.00877E+04 -5.80222E+01 -1.92113E+04  3.99395E+03 -1.24121E+04  1.53911E+04  2.50656E+02
  7.94739E+03  8.29712E+03  2.21603E+03  1.26191E+04 -7.27726E+03  8.25949E+03 -7.22558E+03 -1.81038E+03
 -3.67901E+03  9.43947E+02  5.11441E+03 -7.22860E+03  7.67826E+03  1.57011E+01  7.53428E+03  7.80313E+03
  4.55573E+02  5.53859E+03  6.35870E+03  3.08421E+03 -4.67646E+03  5.53407E+03  5.45525E+03  3.78213E+03
  2.23536E+03 -1.25549E+03  9.98379E+03  4.46761E+03  7.20230E+03  6.91115E+03 -5.21546E+03  9.89106E+03
 -4.33940E+03  5.50046E+03 -1.08096E+04  6.55795E+03 -1.18082E+04 -1.66285E+03 -2.88402E+03 -5.87044E+03
  3.13549E+03 -8.18218E+03 -5.25752E+02 -1.46479E+03  1.21593E+04 -3.94699E+03  1.46684E+03  4.71918E+03
 -8.69244E+03 -7.74073E+02 -5.04755E+03 -5.67947E+03 -1.93251E+03 -1.24543E+04 -3.13563E+03 -6.28784E+03
  2.72017E+03 -4.41880E+03  3.85766E+03  7.77639E+02  1.03533E+04  3.36719E+03 -6.31645E+03  5.50786E+03
 -3.28294E+03  2.13241E+03 -6.85549E+03 -6.74396E+03 -1.27655E+03 -3.75475E+03  1.03315E+04 -3.43862E+03
  1.63221E+04 -1.42952E+03  1.29916E+04  7.82722E+03 -1.19820E+02  9.01702E+03 -4.88126E+03  8.14714E+03
 -1.05676E+04  8.66343E+03 -1.33416E+04 -4.07349E+03 -3.31118E+02 -5.09727E+03 -7.17235E+03 -7.08201E+03
  7.12656E+03 -2.46375E+03  8.01961E+03 -3.74911E+01 -5.36539E+03  1.27905E+04 -5.49195E+03  5.27035E+03
  5.48448E+02  2.27283E+03 -1.84192E+03  1.16221E+03 -9.63534E+03 -3.45225E+02  2.64217E+03  1.06657E+04
 -3.41629E+03 -4.04314E+03 -6.43079E+03 -2.28987E+02 -1.20782E+04  1.43549E+03 -6.30191E+03 -9.33423E+03
 -1.22219E+04 -1.88294E+04  1.20023E+03 -1.69507E+04  1.09963E+04 -1.25138E+04  1.67125E+04 -3.92551E+03
  1.60036E+04 -5.27473E+01  6.18029E+03  1.17874E+04  5.71795E+02  7.73005E+03  7.05393E+03  5.00027E+03
 -7.57471E+03  3.65325E+03  2.52670E+02 -1.42432E+03 -2.39296E+03 -7.22881E+03 -1.48747E+03 -7.44409E+03
 -6.26839E+02 -1.21396E+03 -1.85179E+03  2.27923E+03  6.03962E+03  6.77652E+03  1.60952E+03 -3.41696E+03
  5.44834E+03 -5.12491E+03  1.80578E+04  3.67853E+03  4.84897E+03  6.25410E+03  5.60040E+03  1.04765E+04
 -2.22942E+03  2.04646E+04 -1.41239E+04  1.51448E+04 -1.63513E+04  2.89542E+03 -1.46835E+04 -8.52907E+03
 -2.97392E+03 -8.09396E+03  3.34929E+03 -7.43809E+03  5.97076E+03 -5.47077E+03  1.16340E+04 -1.23190E+03
  6.13946E+03  1.09986E+03 -2.53802E+03  7.30231E+02 -3.16534E+03  3.90961E+03 -1.21699E+03 -1.42319E+03
  5.70378E+03 -3.28654E+03  4.44034E+03  1.19258E+04  9.15358E+02  5.01175E+03 -2.18818E+03 -3.15165E+03
 -4.24265E+03  4.92269E+03 -1.16886E+04  5.47861E+02 -7.93733E+03 -1.58713E+03 -5.46912E+03 -1.67457E+04
  4.28987E+03 -6.82888E+03  8.89091E+03 -6.85677E+03  7.90141E+03  3.76613E+03  7.22326E+03  1.23599E+04
  5.40006E+03  8.02462E+03 -7.72205E+03  7.95298E+03 -1.02618E+04  3.15178E+03 -6.26666E+03  1.09415E+03
 -3.91155E+03  6.85866E+03 -3.24447E+03  1.50070E+03 -3.80825E+03  5.55526E+03 -1.11755E+04  9.12233E+02
 -6.64558E+03 -8.05572E+03 -1.56730E+04 -8.12184E+03  5.53476E+03 -1.18675E+04  3.36916E+03 -6.57357E+03
  6.29139E+03  4.32304E+03 -1.28859E+03  7.01683E+03  2.88297E+03  2.94055E+03 -5.83886E+03  4.32239E+03
