 $NMID ID='MM_0lb_SNR50_12hz_g40_40.RAW', FMTDAT='(8E13.5)'
 TRAMP=1., VOLUME=1. $END
  3.12949E+05 -3.01973E+03  3.38514E+05  2.49631E+05  8.64561E+04  3.37665E+05 -1.33899E+05  2.51953E+05
 -1.89383E+05  8.40339E+04 -1.11224E+05 -3.41434E+04  1.69186E+03 -4.47508E+04  5.14423E+04  8.68696E+02
  3.52097E+04  4.90618E+04 -1.65062E+04  7.81448E+04 -6.13841E+04  7.09956E+04 -8.51760E+04  3.04721E+04
 -7.50748E+04 -1.04481E+04 -5.82024E+04 -5.41092E+04 -1.82851E+04 -6.88446E+04  3.19783E+04 -5.11617E+04
  4.12994E+04  8.77279E+03  1.81458E+04  4.77039E+04 -3.47819E+04  5.16485E+04 -6.86413E+04  5.41557E+03
 -5.42517E+04 -5.44776E+04 -7.62807E+03 -7.36022E+04  3.72789E+04 -5.03283E+04  4.53646E+04 -1.83141E+04
  4.65797E+04  8.31918E+03  3.50096E+04  2.54748E+04  1.60258E+04  2.66372E+04 -3.26346E+03  2.35058E+04
 -1.99700E+04  5.78172E+03 -2.35103E+04 -7.18878E+03  1.79650E+03 -7.17721E+03  1.80949E+04  1.51223E+04
  4.55676E+03  3.49911E+04 -2.91186E+04  3.35167E+04 -6.05939E+04 -3.23697E+03 -5.84701E+04 -4.57295E+04
 -1.07918E+04 -6.78206E+04  3.68494E+04 -4.80946E+04  5.59587E+04  5.25968E+02  3.39987E+04  2.97468E+04
 -7.35795E+03  3.85399E+04 -3.40655E+04  1.74706E+04 -2.61408E+04 -4.27306E+03 -1.47915E+04 -7.69600E+03
 -4.67648E+03 -1.85163E+04  4.25257E+02 -1.94704E+04  9.23848E+03 -1.94128E+04  1.80361E+04 -1.71272E+04
  1.04996E+04  5.03781E+03 -8.18855E+03  1.02532E+04 -2.02485E+04 -4.20443E+03 -5.97658E+03 -3.56166E+04
  1.93178E+04 -4.64753E+04  4.63253E+04 -2.08676E+04  4.36236E+04  2.30135E+04  1.24294E+04  4.34385E+04
 -1.72015E+04  3.10662E+04 -2.75413E+04 -1.36974E+03 -1.16220E+04 -3.20315E+04  2.03904E+04 -3.65875E+04
  3.79045E+04 -1.06336E+04  3.86223E+04  2.51739E+04  2.31289E+04  4.28954E+04 -6.11831E+03  5.57280E+04
 -3.12401E+04  4.02599E+04 -3.95146E+04  1.19675E+04 -4.28201E+04 -1.62768E+04 -2.97096E+04 -3.85296E+04
  1.00751E+04 -4.14912E+04  3.18028E+04 -1.75383E+04  3.29685E+04  1.05615E+04  6.64462E+03  1.99999E+04
 -1.75090E+04  1.13140E+04 -9.82719E+03 -7.87382E+03  1.42739E+03 -9.54864E+03  1.98044E+04  6.06374E+03
  1.01138E+04  2.32404E+04 -5.62738E+03  2.68021E+04 -1.86130E+04  1.05805E+04 -2.68260E+04 -6.74749E+03
 -1.79310E+04 -1.46562E+04 -1.20591E+04 -2.35919E+04  2.95354E+03 -2.73519E+04  1.76587E+04 -1.82183E+04
  2.78407E+04 -1.41734E+04  3.49284E+04  6.63770E+03  2.69563E+04  2.63511E+04 -1.12347E+02  3.64552E+04
 -2.14354E+04  2.87883E+04 -2.61386E+04  6.33400E+03 -1.76206E+04 -1.07047E+04 -6.35765E+03 -1.58497E+04
  5.42150E+02 -7.38586E+03 -4.05635E+03  2.89116E+03 -2.10921E+04  2.49634E+03 -1.97368E+04 -2.34431E+03
 -1.22571E+04 -2.02590E+04  9.18767E+03 -2.27579E+04  1.51244E+04 -2.14940E+04  1.65703E+04 -2.17352E+03
  1.01892E+04  1.12044E+04  6.11919E+02  2.07476E+04 -9.76419E+03  8.59053E+03 -1.73441E+04 -4.69336E+03
 -1.41320E+04 -1.78473E+04 -3.70266E+03 -2.93063E+04  1.37311E+04 -2.45147E+04  1.86150E+04 -9.25326E+03
  1.89204E+04  2.20278E+03  1.50815E+04  3.38449E+03  8.69950E+03  5.42518E+03  4.46367E+03 -4.26353E+03
  2.04376E+04 -3.39171E+02  2.01787E+04  1.42910E+04  1.71526E+04  3.41676E+04 -4.59508E+03  3.60019E+04
 -1.86599E+04  2.80276E+04 -3.38234E+04  1.14618E+04 -3.29010E+04 -3.86455E+03 -2.81853E+04 -2.18043E+04
 -4.20984E+03 -3.09370E+04  5.72690E+03 -2.51833E+04  2.37545E+04 -1.40003E+04  2.34660E+04  5.97659E+03
  9.85019E+02  1.43053E+04 -8.09076E+03  1.14791E+04 -1.93095E+04  5.83006E+03 -1.60372E+04 -9.87393E+03
 -6.54638E+02 -1.39121E+04  1.24271E+04 -1.44996E+04  1.23690E+04 -1.72871E+03  1.38187E+03  5.90148E+03
 -5.87535E+03 -3.40025E+03 -3.08272E+03 -3.25126E+03  2.06207E+03 -1.80202E+04  1.15590E+04 -1.67601E+04
  1.87047E+04 -1.04469E+04  1.89842E+04  6.16910E+03  1.92832E+04  1.37410E+04  6.74231E+03  1.43398E+04
 -6.34593E+03  2.45547E+04 -1.51869E+04  1.45685E+04 -9.85087E+03  1.66340E+03 -1.42804E+04 -4.70585E+03
  3.91048E+02 -4.19640E+03  1.22551E+03 -1.07540E+03 -8.09120E+03 -4.91711E+02 -5.48790E+03  8.84758E+03
 -1.17686E+04  1.55943E+03 -1.04283E+04 -4.02455E+03 -7.06117E+03 -1.40213E+04  7.55969E+03 -1.22292E+04
  1.13481E+04 -2.00279E+03  1.09914E+04  3.91750E+03 -8.33014E+02  8.95818E+03 -5.12177E+03 -1.82747E+03
 -6.26379E+03 -6.87923E+03 -4.24245E+03 -9.52727E+03  5.01433E+03 -1.32019E+04  1.52113E+04 -4.90417E+02
  1.97890E+04  3.69075E+03  1.25929E+04  5.70810E+03  5.81058E+03  1.38679E+04 -1.05436E+04  9.91063E+03
 -1.36307E+04  2.43042E+03 -8.93496E+03  4.23763E+02  1.27834E+03 -6.26875E+03  9.43788E+03 -6.41213E+03
  6.91624E+03  6.83407E+03 -1.83147E+03  9.27351E+03 -1.29037E+04  1.16465E+04 -1.30446E+04  3.35057E+03
 -2.44255E+03 -3.77265E+03  4.18295E+03 -1.38161E+04  6.50769E+03 -9.43678E+03  1.05196E+04  1.93112E+03
  2.49182E+03  7.85034E+03 -9.60171E+03  8.51798E+03 -1.35443E+04  5.04635E+03 -1.27675E+04 -2.37458E+03
 -3.22305E+03 -9.87158E+03  2.12469E+03 -1.87590E+04  6.41670E+03 -3.59685E+03  1.21875E+04  5.36157E+03
  9.94000E+03  1.44101E+04 -4.27263E+02  6.29237E+03 -1.00949E+04  6.18780E+03 -3.22622E+03 -3.91874E+03
 -3.22878E+03 -4.73903E+03 -1.73707E+03 -9.37355E+03  2.52705E+03 -2.00972E+03  1.06632E+04 -8.14889E+03
  9.60227E+03 -3.79985E+03  8.76466E+02  4.43779E+02 -5.10061E+03 -1.35989E+03  1.89483E+03 -6.68892E+03
  1.35606E+04 -2.58950E+03  9.03223E+03  5.88469E+03  8.86031E+03  5.21928E+03  1.06358E+04  1.43552E+04
 -1.07771E+03  1.84092E+04 -1.50399E+04  1.10412E+04 -1.54308E+04 -1.09712E+03 -1.54114E+04 -2.11802E+03
 -6.45908E+03 -1.28000E+04  1.24930E+02 -9.43642E+03  3.28680E+03 -6.22882E+03  7.72729E+03 -1.30377E+03
  3.22362E+03 -3.72955E+02  1.73987E+03 -2.97127E+03  9.03812E+03  1.13058E+03  1.05796E+04 -2.36517E+03
  1.01449E+04 -6.30121E+02  2.42566E+03  2.00140E+03  1.14048E+03  3.58688E+03 -5.16853E+03  1.22401E+04
 -1.30397E+04 -2.89882E+03 -5.66232E+03 -9.41076E+03 -1.43094E+03 -9.76477E+03  6.35628E+03 -1.21312E+04
  1.04709E+04 -1.00631E+04  1.25412E+04  9.06319E+03  1.35645E+04  1.23439E+04 -1.23874E+02  1.49761E+04
 -6.93542E+03  4.32479E+03 -7.37225E+03  5.09915E+03 -5.97186E+03  3.93775E+02 -8.72217E+02 -1.93966E+03
  4.70269E+01 -2.67676E+03 -2.61013E+03  3.47659E+03 -7.17837E+03 -2.07405E+03 -1.07735E+04 -1.05199E+02
 -4.33048E+03 -5.15248E+03 -4.43351E+02 -8.40267E+03  4.90928E+03 -1.36745E+04  1.40845E+04 -3.27091E+02
  1.02948E+04  3.44056E+03  1.33331E+03  1.60224E+04 -5.80105E+03  1.29072E+04 -9.32358E+03  6.49758E+03
 -2.46152E+03  1.88561E+03 -8.88139E+03 -4.20993E+03  1.27910E+03 -1.11240E+04  1.47243E+03 -4.17285E+03
  4.10900E+03  3.88381E+02  7.85090E+03 -1.05261E+03  5.31059E+03  2.96607E+03  1.47412E+03 -7.10551E+02
  5.76070E+03 -4.64376E+03  7.03914E+03  9.04714E+02  1.85728E+03  1.68311E+03 -9.80210E+01  7.54370E+03
 -3.74443E+03  9.40457E+03 -5.05966E+03  4.26985E+03 -8.49452E+03 -2.24945E+03 -7.73238E+03 -4.29555E+03
 -4.22844E+03 -2.86530E+03  5.07164E+03 -1.42025E+04  6.12107E+03 -4.62263E+03  6.90500E+03 -2.22259E+03
  5.16996E+03  4.08168E+02  3.01368E+03  1.03742E+04 -6.00823E+03 -4.49379E+01 -6.51257E+01  1.00848E+03
 -3.28899E+03 -3.77756E+03  2.49880E+03 -7.03963E+03  7.74670E+03 -6.73114E+02  1.29788E+03  7.92548E+03
  1.09921E+03  1.23727E+03 -6.10836E+01  4.91178E+03 -1.73125E+03  5.94549E+03  3.16406E+03 -6.98005E+02
  1.10996E+01  4.62849E+03  9.42216E+03 -1.58739E+03  3.41705E+03  2.76688E+03 -1.74715E+03  9.09086E+03
 -7.86869E+03  7.07433E+03 -8.06724E+03  3.14378E+03 -6.27099E+03 -3.10094E+03 -4.65108E+02 -9.88061E+02
  5.34719E+03 -1.38341E+03 -1.04955E+03 -2.91396E+03  3.83178E+03  6.91127E+03  4.92307E+03  2.18427E+03
  3.38173E+03 -1.14694E+03 -8.15938E+03 -2.59171E+03 -3.18523E+02 -4.67032E+03  6.71867E+03 -3.89698E+03
  2.35985E+03  3.31197E+03  3.94081E+03  1.40175E+03  2.85372E+03 -2.01677E+03  3.16841E+03  9.01091E+02
 -1.09394E+03  7.66144E+02 -6.13750E+03  2.31010E+03  2.01398E+03  1.90232E+02  2.60059E+03  1.96942E+03
  2.64495E+03 -3.51196E+03  6.11925E+03  2.14575E+03  1.66184E+03  1.61192E+04 -4.08656E+03  4.89874E+03
 -5.36508E+03  1.33181E+03 -7.01150E+03  3.55107E+03 -1.85543E+03 -8.86841E+02  3.62456E+03 -8.65076E+02
  1.45592E+03  6.74458E+02  7.36670E+03  1.15084E+03 -3.35465E+03  6.17171E+03 -5.03642E+02  3.13281E+03
  2.68844E+03 -1.84317E+03  1.75274E+02  9.82639E+03 -2.41215E+03  1.33696E+03 -3.22826E+03  2.42503E+03
 -2.02135E+03 -6.82757E+02 -9.02839E+03  1.23843E+03 -7.01159E+03  1.18405E+03 -7.95079E+03 -2.20531E+03
 -1.82354E+03 -7.06575E+03  2.30508E+03 -9.44751E+03  9.99666E+03 -5.28469E+03  9.73543E+03 -5.45748E+03
  7.50707E+03 -1.10424E+02  6.12990E+03  6.56551E+03  3.08440E+03  4.55382E+03 -2.35860E+03  8.36390E+03
 -3.85582E+03 -2.59813E+03  3.84082E+02 -6.39505E+03  3.17882E+03 -5.18487E+03  1.67659E+03 -2.78447E+03
 -5.71527E+03 -1.60657E+03 -3.73333E+03  1.33779E+03  2.38035E+03 -9.21513E+02 -6.57016E+03 -5.32739E+03
  2.86237E+03 -4.71939E+03  4.77932E+03 -8.80863E+01 -6.31680E+02  3.84995E+03  2.96610E+03  2.20269E+03
  6.27248E+02  6.86692E+03 -6.22400E+03  3.25534E+03 -9.88381E+03 -5.64273E+03 -5.33856E+03 -4.28218E+03
 -1.00744E+03 -2.97355E+03  3.23076E+02 -7.23916E+03  4.15547E+03  2.10106E+03  4.55344E+03 -2.26498E+03
  5.04190E+03  2.53174E+02  6.69527E+03  6.46026E+02 -2.57501E+03  2.75326E+02  2.01098E+03 -6.31290E+03
  4.15648E+03 -7.92864E+02  8.62327E+02  5.77498E+02  2.91323E+03  1.41790E+03  2.39104E+03 -5.47960E+02
 -1.16354E+03  7.14654E+02 -5.68881E+03 -1.82615E+03 -2.40428E+03  2.72814E+03  3.94771E+03 -4.55299E+03
  5.13455E+03 -7.88150E+03  3.05687E+03  3.32379E+03  3.22340E+03 -3.60409E+03  1.74164E+03  8.41765E+03
 -4.27186E+02  7.63797E+03 -2.07084E+03  1.32026E+03 -7.86478E+02  5.21637E+03 -9.07497E+02  2.47975E+02
  3.10805E+03 -1.71918E+03 -2.01044E+03  1.50716E+03 -1.88824E+03 -3.14964E+03 -5.28382E+03 -4.65587E+03
 -3.43572E+03  5.50496E+02 -1.57418E+02 -6.77034E+03  3.36756E+03 -3.74176E+03 -3.40488E+03 -3.18816E+03
 -1.60006E+03  4.57614E+03  4.75355E+03  1.30779E+03 -2.86411E+03 -6.15848E+02 -6.77395E+03  5.22776E+03
