 $NMID ID='MM_0lb_SNR50_10hz_g40_30.RAW', FMTDAT='(8E13.5)'
 TRAMP=1., VOLUME=1. $END
  3.11303E+05  3.77623E+03  3.41377E+05  2.51534E+05  8.10916E+04  3.35134E+05 -1.31577E+05  2.53527E+05
 -1.88926E+05  8.79100E+04 -1.08204E+05 -3.18229E+04 -2.30878E+02 -4.45705E+04  5.41068E+04  2.28873E+03
  3.52985E+04  5.90691E+04 -1.99671E+04  7.42112E+04 -5.84077E+04  6.16088E+04 -8.93804E+04  3.35497E+04
 -8.71433E+04 -1.08239E+04 -5.99672E+04 -5.20251E+04 -2.49703E+04 -7.27433E+04  2.98182E+04 -4.60405E+04
  3.62980E+04  8.49970E+03  1.89361E+04  4.61647E+04 -3.88972E+04  4.88761E+04 -6.94842E+04 -8.18080E+02
 -5.81275E+04 -6.21674E+04 -9.72798E+03 -7.58000E+04  3.75619E+04 -5.18444E+04  5.42774E+04 -1.27625E+04
  4.07230E+04  1.26401E+04  3.33765E+04  2.52176E+04  1.71177E+04  3.12921E+04 -1.04378E+04  3.08700E+04
 -2.29647E+04  1.34114E+04 -2.38698E+04 -6.96746E+03  4.26838E+03 -3.97073E+03  1.70803E+04  9.99026E+03
  6.10360E+03  2.85059E+04 -3.66649E+04  3.30366E+04 -6.49226E+04  2.65254E+03 -5.73641E+04 -4.30756E+04
 -1.80606E+04 -6.08852E+04  3.93269E+04 -4.61115E+04  5.87495E+04 -3.32264E+02  3.51104E+04  4.14333E+04
 -1.34123E+04  3.65389E+04 -2.94560E+04  1.78687E+04 -2.42745E+04 -1.01418E+04 -2.47470E+04 -9.60167E+03
 -1.32922E+04 -1.50703E+04 -4.00927E+03 -1.84743E+04  3.99793E+03 -2.60385E+04  1.65511E+04 -8.98639E+03
  1.28634E+04  6.16620E+03 -1.01543E+04  6.66939E+03 -1.98810E+04 -7.16235E+03 -5.83368E+03 -3.93322E+04
  2.74687E+04 -4.74514E+04  5.22401E+04 -2.74849E+04  4.28575E+04  2.52848E+04  2.13768E+04  5.51776E+04
 -1.43839E+04  3.80666E+04 -1.82275E+04 -1.54213E+03 -8.71783E+03 -2.98156E+04  2.03755E+04 -3.57777E+04
  4.72666E+04 -9.89643E+03  4.11376E+04  2.32364E+04  1.80796E+04  5.10160E+04 -1.52708E+04  4.77228E+04
 -3.09841E+04  4.13426E+04 -4.70357E+04  8.50046E+03 -4.83101E+04 -1.70576E+04 -2.60865E+04 -4.16874E+04
  1.12667E+04 -4.16035E+04  3.18335E+04 -1.47432E+04  3.56672E+04  1.51620E+04  8.93147E+03  2.14746E+04
 -1.19938E+04  9.76029E+03 -1.53772E+04 -1.37180E+04  5.87197E+03 -1.25371E+04  2.04474E+04  2.74856E+03
  2.16947E+04  2.46572E+04 -1.35598E+03  2.92980E+04 -1.83529E+04  8.47383E+03 -3.63339E+04 -3.36960E+03
 -2.81241E+04 -2.34986E+04 -9.97867E+03 -2.23653E+04  4.02453E+03 -2.02525E+04  2.15808E+04 -1.89982E+04
  2.69147E+04 -1.64939E+04  3.08871E+04  1.03428E+04  2.64549E+04  2.33731E+04  8.60839E+03  3.95958E+04
 -1.70205E+04  3.26379E+04 -3.03687E+04  1.44470E+04 -2.30259E+04 -1.40901E+04 -2.72559E+03 -1.14533E+04
  6.02177E+02  1.35388E+03 -9.16030E+03  9.84011E+03 -2.01839E+04  2.99772E+03 -1.72778E+04 -4.31048E+03
 -1.77406E+04 -2.28475E+04  9.65749E+03 -2.10269E+04  1.59060E+04 -2.39166E+04  2.56798E+04 -1.23173E+03
  1.08408E+04  1.15706E+04 -5.81562E+02  1.90797E+04 -2.04565E+04  1.09085E+04 -2.46239E+04 -2.47522E+03
 -9.64189E+03 -1.91164E+04  1.56660E+03 -2.53830E+04  1.25103E+04 -1.99948E+04  1.96597E+04 -1.31582E+04
  2.22674E+04  3.95297E+03  1.71221E+04  4.52251E+03  2.80460E+03  1.65468E+03  1.07768E+04 -2.58895E+03
  2.39146E+04 -5.16905E+03  2.69169E+04  1.45427E+04  2.07090E+04  3.56180E+04  1.14583E+03  4.50484E+04
 -1.98651E+04  2.90116E+04 -2.94630E+04  1.67550E+04 -3.89058E+04 -5.74178E+03 -4.10586E+04 -2.17210E+04
 -6.70701E+03 -3.45100E+04  1.39987E+04 -2.97130E+04  2.35358E+04 -1.65348E+04  2.40721E+04  7.26367E+03
  6.10682E+02  1.68003E+04 -1.26461E+04  1.49209E+04 -1.78627E+04  4.17461E+03 -1.48071E+04 -9.42879E+03
 -6.56520E+03 -1.91327E+04  4.13791E+03 -1.66498E+04  1.76276E+04  9.81464E+02  1.79898E+03  3.97909E+03
 -1.05569E+04  5.18652E+03 -7.15072E+03 -9.44754E+03 -9.28652E+03 -2.04263E+04  8.49141E+03 -1.59572E+04
  1.71176E+04 -9.10696E+03  2.99669E+04  2.28962E+02  2.25881E+04  1.66429E+04  8.09093E+03  2.84987E+04
 -4.18615E+03  2.38249E+04 -1.61720E+04  1.34409E+04 -2.04452E+04  7.21219E+03 -1.10899E+04 -9.34456E+03
 -2.97649E+03 -8.15702E+03 -1.64833E+03  4.03117E+03 -7.42245E+03  8.58975E+03 -7.77940E+03  2.64164E+03
 -1.27887E+04 -1.35349E+02 -1.18272E+04 -1.76726E+04 -1.73662E+02 -1.58427E+04  6.72627E+03 -1.04046E+04
  7.94392E+03 -8.43837E+03  3.95060E+03  6.88027E+02 -1.21146E+03  8.49187E+03 -5.49206E+03 -3.95239E+03
 -9.27333E+03 -1.57743E+04  1.15167E+03 -9.53036E+03  1.20055E+04 -1.29386E+04  2.10697E+04 -8.89444E+03
  2.42721E+04  4.18135E+03  1.64689E+04  1.25827E+04  2.78652E+02  1.67695E+04 -9.59614E+03  1.15517E+04
 -1.44100E+04  3.40594E+03 -3.47232E+03  1.62648E+03  3.80367E+03 -1.04605E+03  1.13614E+04 -1.80196E+03
  5.60212E+03  9.84797E+03  2.56695E+03  7.44699E+03 -5.57178E+03  9.75243E+03 -1.35637E+04  2.57787E+03
 -6.24972E+03 -5.03536E+03 -1.56684E+02 -1.54190E+04  5.73686E+03 -9.06907E+03  7.91635E+03  3.54741E+03
 -6.51305E+02  4.66953E+03 -5.18841E+03 -3.75553E+02 -1.46594E+04  8.65547E+03 -1.34698E+04 -2.03207E+03
 -7.33189E+03 -1.28619E+04  5.76326E+03 -1.12002E+04  1.06723E+04 -8.82556E+03  1.62179E+04 -1.17665E+03
  1.31774E+04  7.01523E+03 -5.35701E+03  8.23918E+03 -1.13428E+04  6.74774E+03 -9.92031E+03 -1.43331E+03
 -6.34407E+03 -1.19433E+04 -3.00613E+03 -1.24148E+04  1.28648E+03 -1.54308E+04  7.53803E+03 -3.20955E+03
  4.69072E+03  3.07674E+03  2.52144E+03  3.63058E+03 -1.80138E+03  5.24237E+02  9.08821E+03 -1.18689E+04
  1.08281E+04 -3.23373E+03  1.65913E+04 -7.65419E+02  1.47684E+04  5.27304E+03  7.56361E+03  1.88847E+04
 -1.29703E+03  1.80692E+04 -1.42855E+04  1.39280E+04 -2.55019E+04 -1.91861E+02 -1.94886E+04 -4.65377E+03
 -7.58723E+03 -2.19711E+04  4.47711E+03 -1.08688E+04  6.88798E+03 -8.42882E+03  1.23628E+02 -4.02760E+03
  5.18989E+03 -4.78351E+02  5.18040E+03  2.72920E+03  3.78841E+03 -4.92032E+03  8.05254E+03 -9.39411E+02
  9.09002E+03 -2.65421E+03  3.44127E+03  2.87205E+02 -3.33413E+02  7.96625E+03 -1.06861E+04  2.86091E+03
 -1.30985E+04 -1.91776E+03 -8.48195E+03 -8.64598E+03 -9.10373E+03 -1.59806E+04  9.20915E+03 -1.08485E+04
  1.55297E+04 -5.69126E+03  1.58483E+04  5.42636E+03  9.66130E+03  6.39692E+03  5.62492E+03  1.77005E+04
 -2.96473E+03  1.28860E+04 -7.90634E+03  4.11142E+03 -2.25292E+03 -2.04979E+03  1.31033E+03 -1.79775E+03
 -5.95026E+03  2.25480E+03 -2.17829E+02  4.33952E+03 -2.72898E+03  5.27680E+03 -1.21235E+04 -7.26481E+03
 -6.32942E+03 -7.28486E+03  8.93666E+02 -1.09864E+04  9.42178E+03 -1.10916E+04  8.59279E+03  8.50785E+02
  1.29430E+04  7.55082E+03  4.90178E+03  1.04129E+04  9.03050E+02  8.61255E+03 -6.17046E+03  6.76662E+03
 -1.08063E+04  1.59574E+02 -5.11121E+03 -2.99435E+03 -3.20950E+02 -7.62408E+03  5.95785E+03 -1.21155E+04
  7.23491E+03 -2.18672E+03  5.90787E+03  5.63618E+02  2.36068E+03 -2.83227E+02  2.47253E+03  2.03084E+03
  2.53053E+03 -2.66295E+03  5.07676E+03  4.82480E+03  2.28006E+03  8.99010E+02  1.75301E+03  5.87262E+03
 -1.27739E+03  1.31740E+04 -5.94194E+03  1.47408E+04 -1.15231E+04  3.68902E+03 -5.21699E+03 -4.46005E+03
 -3.45280E+03 -1.40464E+04  1.01357E+03 -1.21868E+04  6.11468E+03 -6.04790E+03  9.38914E+03 -7.44818E+02
  8.31468E+03  5.03277E+03 -1.99190E+03  3.10381E+02 -5.67794E+03  1.35459E+03 -2.49814E+03  4.17637E+03
 -3.87139E+03 -4.24372E+03  1.64487E+03 -6.19352E+03  7.02488E+03 -4.73730E+00  6.73464E+03 -2.11090E+02
  3.67299E+02  6.75028E+03  4.27668E+03  5.94343E+02 -1.15579E+03  3.86607E+03 -2.05276E+01 -9.31512E+02
  2.41268E+03  1.71073E+03  5.38616E+03 -2.91974E+03  1.02406E+03  7.60481E+03 -2.04487E+03  4.89150E+03
 -4.08340E+03  1.08046E+04 -7.95034E+03  2.56635E+03 -2.84978E+03 -4.01239E+03 -3.65756E+03 -6.88676E+03
  3.09922E+03 -8.17195E+03 -2.49484E+03 -2.07040E+02  4.28940E+03  5.99330E+03  2.55474E+03  6.58323E+03
 -9.26185E+03 -1.13931E+03 -9.50518E+03  2.82775E+03 -8.35447E+03 -5.83003E+03 -1.87742E+02 -2.98499E+03
 -2.71630E+02 -3.27565E+03  6.95101E+03 -2.23914E+03  7.35067E+03 -6.30567E+03  5.27227E+00 -8.34085E+02
 -1.20918E+03  1.77630E+03 -7.54685E+03 -5.64256E+03  2.10976E+03 -4.79862E+03  7.01291E+03 -5.33269E+03
  1.14240E+04 -4.60953E+03  1.15508E+04  1.18003E+04  1.86476E+03  8.95098E+03 -1.12446E+04  1.14617E+04
 -5.30617E+03 -2.68649E+03 -5.12628E+03 -7.12253E+00 -3.46780E+03  7.98891E+02 -8.52596E+02 -6.85408E+03
  4.67263E+03 -2.01021E+03  4.12692E+02  4.99484E+03  6.82985E+03  6.70261E+03  7.73546E+02  1.20675E+02
  4.55909E+02  5.05898E+03  4.48925E+03 -8.72508E+02 -1.06980E+03  1.98840E+03 -1.55751E+03  3.23254E+03
 -7.45663E+03 -6.40407E+02 -7.74347E+03  5.36708E+03 -6.04111E+01  4.11911E+03 -6.18244E+03 -3.80566E+03
  3.11898E+03 -1.27214E+04 -1.84593E+03 -9.16781E+03  7.63028E+03 -5.86714E+03  1.04973E+04 -9.06502E+03
  1.19108E+04 -3.40183E+03  7.53427E+03  1.14863E+04  2.44168E+03  1.35875E+04 -4.54609E+03  5.58994E+03
 -4.85562E+03  2.62335E+03 -2.56655E+03 -2.19707E+03  2.44305E+03 -4.89455E+03  2.40012E+03 -9.98530E+02
 -4.49569E+03 -3.62677E+03  7.60474E+01 -1.41228E+03 -3.16337E+03 -4.41838E+03  6.25387E+01  1.55028E+03
  5.10313E+03 -6.64151E+03  7.92536E+03  1.46477E+03  5.92689E+03  2.47164E+03  8.97447E+02  9.73243E+03
 -2.43016E+03  7.46957E+03 -1.17114E+04  4.13437E+03 -1.19279E+04 -7.37604E+01 -7.15807E+03 -4.38695E+03
 -4.34613E+03 -8.60346E+03  6.05356E+03 -2.53686E+02  9.57114E+03 -2.19946E+03 -1.22887E+02 -5.97004E+03
  9.38817E+03  6.30203E+03  4.33490E+03  4.96423E+02  3.04236E+02 -5.48979E+01 -3.28079E+03  3.56948E+01
  2.87490E+03 -7.45450E+03  4.68174E+03  2.07796E+03  3.98133E+03 -4.59284E+03 -5.65483E+03  4.53908E+03
 -5.85210E+03  6.55707E+03 -2.95647E+03  1.43610E+03 -7.19126E+03 -1.52477E+03  1.04616E+03 -1.20115E+04
  6.60356E+03 -7.99418E+03  4.39526E+03 -4.03081E+02  5.59158E+03 -1.17061E+03  4.13638E+03  3.26429E+03
 -3.89769E+03  4.51943E+03  3.92299E+03  5.04244E+03 -1.51490E+02  3.35235E+03  5.19418E+02  1.91011E+03
 -2.96682E+02 -3.04472E+03  2.87812E+02  5.87201E+01 -2.11306E+02 -1.95878E+03  5.07298E+02 -3.16469E+03
 -7.84953E+03 -9.63097E+03 -5.37347E+03 -6.26738E+03  3.29456E+03 -2.84914E+03  5.95009E+03 -1.18300E+03
  1.05694E+03  3.50914E+03  2.44081E+03  6.74924E+03  2.58577E+03  5.82844E+03  1.35269E+03 -6.74764E+02
