 $NMID ID='MM_0lb_SNR50_16hz_g60_38.RAW', FMTDAT='(8E13.5)'
 TRAMP=1., VOLUME=1. $END
  3.13002E+05 -4.04320E+03  3.36377E+05  2.49290E+05  8.07411E+04  3.37023E+05 -1.29471E+05  2.49395E+05
 -1.91909E+05  8.31441E+04 -1.13225E+05 -3.03678E+04  1.44976E+03 -5.50407E+04  5.43763E+04  8.72752E+02
  3.60291E+04  4.72521E+04 -1.67847E+04  7.71215E+04 -6.06153E+04  6.25372E+04 -8.53173E+04  3.30344E+04
 -8.20536E+04 -1.56646E+04 -6.26136E+04 -5.22142E+04 -1.65421E+04 -7.53397E+04  2.37029E+04 -4.27261E+04
  4.02864E+04 -1.97028E+03  1.59949E+04  4.68682E+04 -3.66910E+04  4.37431E+04 -6.40520E+04  1.77942E+03
 -5.33750E+04 -5.35836E+04 -3.68237E+03 -7.79822E+04  3.60543E+04 -5.41523E+04  4.66122E+04 -1.80875E+04
  4.61625E+04  1.54336E+04  3.46942E+04  2.91650E+04  1.94128E+04  3.30563E+04 -6.83318E+03  2.44723E+04
 -2.32069E+04  1.42407E+04 -1.94062E+04 -7.24408E+03  3.62090E+03 -1.15068E+04  1.77229E+04  1.19697E+04
  4.41235E+03  3.63168E+04 -2.95072E+04  3.46975E+04 -6.61685E+04  1.34541E+03 -5.54465E+04 -4.21941E+04
 -1.39985E+04 -6.08420E+04  4.21198E+04 -5.24127E+04  5.80627E+04  5.77557E+02  3.31347E+04  3.54550E+04
 -7.82570E+03  3.99162E+04 -3.12029E+04  1.93894E+04 -2.51736E+04 -8.19455E+03 -1.63733E+04 -1.14503E+04
 -7.55906E+03 -1.16822E+04  4.43306E+02 -1.22535E+04  4.81016E+03 -2.44096E+04  1.75666E+04 -9.97700E+03
  1.10055E+04  5.47049E+03 -4.89099E+03  1.41050E+04 -1.94043E+04 -2.98570E+03 -6.37702E+03 -3.36227E+04
  2.59249E+04 -4.01700E+04  4.52447E+04 -1.79924E+04  4.13586E+04  1.94841E+04  1.65476E+04  4.71190E+04
 -1.80340E+04  3.20997E+04 -2.47677E+04  4.05305E+03 -1.08131E+04 -2.92148E+04  2.05808E+04 -3.54979E+04
  4.29097E+04 -9.23192E+03  3.54640E+04  2.47413E+04  1.26918E+04  4.51008E+04 -1.13695E+04  5.26920E+04
 -3.07371E+04  3.28582E+04 -4.47542E+04  1.31463E+04 -4.58923E+04 -1.62566E+04 -2.47025E+04 -3.74975E+04
  1.10056E+04 -3.35570E+04  2.98793E+04 -1.48314E+04  3.08304E+04  8.62253E+03  2.04970E+03  2.31741E+04
 -6.90035E+03  6.64106E+03 -1.29834E+04 -5.69014E+03  9.25034E+03 -9.51297E+03  1.51035E+04  6.58589E+03
  1.37908E+04  2.25515E+04 -5.74796E+03  2.26983E+04 -2.50461E+04  9.65891E+03 -2.32133E+04 -3.29018E+03
 -2.03266E+04 -1.70533E+04 -4.23944E+03 -1.76101E+04 -1.43097E+03 -1.77635E+04  1.46516E+04 -1.92594E+04
  2.87605E+04 -1.33132E+04  2.60107E+04  6.07855E+02  2.26727E+04  2.26235E+04  4.48702E+03  3.64594E+04
 -1.86992E+04  3.18827E+04 -2.86511E+04  1.32596E+04 -2.19822E+04 -1.23883E+04 -5.44358E+03 -1.17956E+04
  2.62487E+03 -1.35775E+03 -1.76489E+03  6.38511E+03 -1.81302E+04  5.87695E+03 -1.54632E+04 -2.77351E+03
 -9.30042E+03 -1.53128E+04  3.38703E+03 -2.42914E+04  1.85751E+04 -1.82312E+04  1.80106E+04 -2.79132E+03
  1.26857E+04  1.39462E+04 -1.02110E+03  1.64415E+04 -9.15171E+03  1.13424E+04 -2.01613E+04 -2.91592E+03
 -1.19227E+04 -1.72962E+04  1.71830E+03 -2.32745E+04  1.27607E+04 -1.97402E+04  2.30317E+04 -9.31098E+03
  2.10116E+04  1.31439E+03  1.36608E+04  6.56775E+03  2.58941E+03  1.18841E+03  9.05795E+03 -6.06798E+02
  2.17277E+04  4.55536E+03  1.99780E+04  1.83242E+04  1.02102E+04  2.60163E+04 -2.69308E+03  3.33614E+04
 -1.75801E+04  2.66155E+04 -3.67963E+04  1.30061E+04 -3.16885E+04 -6.14048E+03 -2.81179E+04 -1.66756E+04
 -1.32697E+04 -2.87599E+04  5.66078E+03 -2.27091E+04  2.34336E+04 -1.07797E+04  2.03062E+04  6.96920E+03
  5.58303E+03  1.13826E+04 -1.06463E+04  1.41114E+04 -1.26526E+04  4.20900E+02 -1.38372E+04 -1.07302E+04
 -3.02877E+02 -1.23241E+04  6.13538E+03 -1.27347E+04  4.26428E+03 -3.37916E+03  2.61240E+03  1.23139E+04
 -7.32486E+03  1.36748E+03 -6.63636E+03 -5.65400E+03  8.19941E+01 -1.39944E+04  9.23887E+03 -1.25788E+04
  1.42481E+04 -4.80135E+03  1.68235E+04  5.08582E+03  1.96218E+04  1.59475E+04  2.05539E+03  1.72886E+04
 -2.85646E+03  2.37670E+04 -1.39125E+04  1.17812E+04 -1.53571E+04  5.33090E+03 -8.52115E+03 -7.29820E+03
 -6.54229E+03 -7.35318E+03  4.60488E+03  1.58238E+03 -1.32231E+03  7.58267E+02 -8.77434E+03  3.30729E+03
 -9.25079E+03 -4.45791E+03 -9.51018E+03 -4.85511E+03 -1.89875E+03 -1.14053E+04 -4.83449E+02 -5.07449E+03
  1.32028E+04 -1.06286E+04  4.96155E+03  8.69966E+02  2.72162E+03  2.81156E+03 -7.40862E+03  1.65590E+03
 -2.41294E+03 -4.37568E+03 -4.06368E+03 -1.24725E+04  6.99556E+03 -1.24321E+04  1.16880E+04 -1.21934E+04
  1.39683E+04  1.76502E+03  7.08441E+03  7.16110E+03  4.09267E+01  1.53472E+04 -9.46343E+03  1.18806E+04
 -9.77904E+03  3.00995E+03 -5.13957E+03 -1.64454E+03 -3.12517E+02 -6.58457E+03  4.74757E+03 -3.51958E+03
  5.19723E+03  1.98173E+03  3.56552E+03  1.34275E+04 -3.98798E+03  1.12230E+04 -9.68414E+03  3.50327E+03
 -5.30712E+03 -7.51807E+03  2.01117E+03 -6.98401E+03  7.09354E+03 -4.75406E+03  7.12826E+03 -5.63211E+02
  4.24972E+03  2.34688E+03 -2.23140E+03  6.96584E+03 -2.43362E+03  3.19243E+03 -4.91175E+03 -5.47691E+03
 -4.63405E+03 -2.88821E+03 -8.62422E+02 -1.18507E+04  7.32982E+03 -4.64425E+03  1.04591E+04  4.55682E+03
  7.17502E+03  3.86547E+03  1.19657E+02  9.78056E+03 -6.64487E+03  8.22009E+03 -8.78265E+03 -7.35086E+02
 -7.95018E+03 -7.98068E+03 -6.16295E+03 -6.99287E+03  2.99830E+03 -1.09111E+04  3.92194E+03  1.18281E+03
  7.54483E+02  2.98905E+03 -6.94486E+02 -2.60266E+03  5.79833E+02 -6.01068E+03  3.71691E+03 -3.12059E+03
  8.91317E+03 -6.71816E+02  8.24737E+03  2.65356E+03  1.19006E+04  6.36921E+03  6.83412E+03  1.33700E+04
 -4.70120E+03  1.56539E+04 -8.46594E+03  6.29551E+03 -9.61128E+03  3.61482E+03 -1.55059E+04 -1.18282E+03
 -1.48129E+03 -6.33484E+03  2.02763E+02 -1.15918E+04  7.63941E+03 -3.92190E+03  1.23931E+03 -2.44749E+03
  4.40977E+03 -4.83838E+03 -2.04085E+02 -1.96086E+03  2.98935E+03 -4.68096E+03  5.22472E+03  2.47321E+03
  1.01885E+04  7.09221E+02  3.32953E+03  4.49731E+03 -3.39328E+03  6.89511E+03 -5.83086E+03  1.83615E+03
 -4.13371E+03  7.83709E+01  2.49595E+02 -1.67137E+03  1.77456E+03 -9.28754E+03  7.84492E+03 -8.50685E+03
  1.15022E+04 -7.07585E+03  7.59808E+03  5.00289E+03  8.36311E+03  6.10308E+03 -1.00563E+03  1.16277E+04
 -9.01087E+03  1.21479E+04 -8.64403E+03  3.30429E+03 -4.90760E+03 -4.52776E+03 -2.16645E+03  3.33741E+02
  3.38443E+03 -2.78034E+03  4.69319E+03  5.99087E+02  5.07512E+02  4.02023E+03 -7.67099E+03 -3.77941E+03
 -3.05635E+03 -4.42608E+03  5.72311E+03 -6.39031E+02  3.62796E+03 -5.01628E+03  4.24882E+03 -2.28734E+03
  9.03869E+03 -2.36117E+02  3.87101E+03  3.23413E+03  8.58336E+02  9.48246E+03  5.54751E+02  4.67883E+03
 -2.12901E+03 -2.30941E+03 -5.44606E+03 -3.02876E+03  3.99848E+02 -1.81094E+03 -4.61086E+02 -5.99961E+02
 -1.93491E+03 -5.05879E+03 -8.47127E+02  1.02126E+03  1.23147E+03 -2.05182E+03 -1.52822E+03  8.75601E+02
  2.50815E+02  4.33391E+03  2.22614E+03  3.71797E+03  6.24737E+03  1.94044E+03  3.01385E+02  2.51044E+03
 -3.69800E+03  3.82635E+03 -3.38730E+03  8.05754E+03 -4.18205E+03  3.26513E+03 -8.01863E+03 -1.08076E+03
 -1.12729E+03 -4.09404E+03  4.54643E+03 -4.29479E+03  4.17630E+03 -4.13463E+03  1.55062E+03 -4.21462E+02
  7.59069E+03  5.56094E+03  4.01381E+03  2.89335E+03 -4.79038E+03 -6.03106E+02 -1.84501E+03 -2.68450E+03
  3.97213E+03  1.20306E+03  4.71863E+03 -2.06341E+03  3.25228E+03  2.93487E+03  1.82139E+02 -2.92827E+02
  3.56330E+03  2.70757E+03 -2.45645E+02 -1.17041E+03 -2.68416E+03 -1.99184E+02 -2.54825E+03  1.15075E+03
 -8.04564E+02  2.03684E+03  4.99862E+03  3.67915E+02 -3.35772E+02  9.47519E+03  3.37104E+03  4.23008E+03
 -5.29841E+02  6.00553E+03 -8.11561E+03  2.92403E+03  2.90849E+02  3.02904E+03 -1.43586E+03 -2.70228E+03
 -9.93264E+02 -5.19545E+02  1.39686E+03  2.98700E+02  5.13545E+03 -1.84494E+03  1.43071E+03  1.49225E+03
 -5.39203E+03 -1.24037E+03 -1.46275E+03 -4.17504E+03 -4.03922E+02 -1.26432E+03 -8.74819E+01  1.95521E+03
  7.99878E+03 -4.87775E+02 -2.96996E+03  3.05385E+03  2.05647E+03  8.34847E+02  2.90829E+03  1.88268E+03
  2.62200E+03 -2.74585E+03 -6.40140E+03  1.49817E+03  2.28910E+03  3.28843E+03  5.50550E+03 -3.99283E+03
  6.41953E+02 -2.53183E+02  3.79395E+03  2.99295E+03  2.04084E+03  1.76986E+03  1.55320E+03  2.59491E+03
 -3.08036E+03  2.73948E+02 -1.65718E+03  5.68892E+03 -1.87007E+02 -6.83643E+03  2.47378E+02 -2.22317E+03
  3.59198E+03  2.40436E+03  3.11608E+03 -3.30297E+03  1.46376E+03  1.86071E+03  3.50022E+03  4.51455E+02
 -3.09921E+03  1.66561E+03 -1.28907E+03  1.43620E+03  2.88834E+03  2.91053E+03  1.45233E+02 -6.19945E+02
 -3.60094E+01 -3.04611E+03 -7.20683E+02  1.40065E+03 -2.43083E+02  4.48881E+03  1.01688E+03  2.98423E+01
 -1.77328E+03 -2.61107E+03 -3.36418E+03 -5.26465E+03  1.72814E+03 -1.81346E+02  4.82129E+03  5.26326E+02
  1.33248E+02 -1.83189E+03  3.94809E+03 -4.93074E+02 -5.61966E+02  8.46554E+02  1.95477E+03  5.81786E+03
 -7.23130E+03  4.29146E+03  3.81204E+03 -1.91288E+03  1.12078E+03 -1.51223E+03  2.68472E+03 -1.63163E+03
 -5.05068E+03  1.50499E+03 -1.94904E+02  3.88502E+03 -3.09265E+03 -1.95650E+03  1.72394E+03 -2.56077E+03
  4.16188E+03 -6.38970E+02  5.50420E+02  9.49846E+02 -1.04911E+01  1.30177E+03  5.88419E+03  2.12541E+03
  6.68900E+01 -1.27949E+02 -2.35966E+03  6.09515E+03  1.23055E+03 -2.25807E+03 -1.10327E+03 -4.51188E+03
 -3.66369E+03 -4.18497E+03 -6.15651E+02  5.36734E+01 -7.41539E+02 -4.02581E+03  3.76754E+03  6.03401E+02
  1.45645E+03 -8.47550E+02  9.38041E+02  2.77361E+03 -1.56007E+02  3.74497E+03 -1.80013E+03  1.12850E+03
  8.13643E+02  2.13935E+03 -1.40816E+03  3.92194E+03 -4.09331E+03  1.87058E+03 -8.69396E+02  1.89757E+02
 -6.24574E+02  1.68104E+03 -2.23953E+03 -2.15261E+02 -3.72623E+03  1.06323E+03 -3.09160E+03 -1.80945E+03
  2.25736E+03 -2.16807E+03 -2.42125E+03 -4.51010E+03  1.23186E+03  2.58711E+03  3.68760E+03  5.83328E+02
  4.73660E+03 -1.29933E+03 -2.29905E+03 -1.14293E+03 -2.85037E+02  1.03228E+03  6.60036E+02  1.85142E+02
 -3.24998E+03 -1.05692E+02  2.92104E+03 -1.09034E+03  5.08905E+03  4.03137E+03 -7.66312E+02 -1.46616E+03
 -5.31390E+03  2.23888E+01 -2.13036E+03  1.43382E+03  2.91637E+03 -1.48843E+03 -2.49390E+03 -3.30177E+03
  2.06765E+03 -2.50172E+02 -2.13446E+03  1.74347E+03  3.64130E+03  4.31179E+03 -6.83022E+02  2.93281E+03
