 $NMID ID='MM_0lb_SNR50_14hz_g50_72.RAW', FMTDAT='(8E13.5)'
 TRAMP=1., VOLUME=1. $END
  3.10325E+05  9.96817E+02  3.36721E+05  2.55129E+05  8.37395E+04  3.40155E+05 -1.31630E+05  2.51834E+05
 -1.97560E+05  8.05132E+04 -1.12428E+05 -3.57160E+04 -3.09106E+02 -5.10290E+04  5.70508E+04  4.22655E+01
  4.00417E+04  5.18960E+04 -1.49120E+04  7.31118E+04 -5.87877E+04  6.28753E+04 -8.79421E+04  3.27103E+04
 -7.58236E+04 -6.42524E+03 -5.36586E+04 -5.24191E+04 -1.65508E+04 -6.72382E+04  2.65915E+04 -4.51438E+04
  4.26314E+04  7.24908E+03  1.39726E+04  4.97955E+04 -3.26698E+04  4.74949E+04 -6.58249E+04  7.57320E+03
 -5.34962E+04 -5.50692E+04 -4.30535E+03 -8.21948E+04  3.30861E+04 -5.48672E+04  4.59333E+04 -1.72802E+04
  4.41146E+04  1.08685E+04  3.43056E+04  2.66433E+04  1.62256E+04  2.92609E+04 -5.11738E+03  2.43888E+04
 -2.97776E+04  1.32333E+04 -1.68573E+04 -5.76395E+02  5.80245E+03 -6.97702E+03  2.26823E+04  1.64776E+04
  7.50309E+03  3.25371E+04 -3.39595E+04  3.87565E+04 -6.33675E+04  6.27093E+02 -5.84786E+04 -4.34915E+04
 -1.49606E+04 -6.05255E+04  4.15017E+04 -3.93901E+04  6.06048E+04 -3.92422E+03  3.22702E+04  3.28747E+04
 -7.03463E+03  3.58883E+04 -3.30126E+04  1.73665E+04 -2.78834E+04 -5.32646E+03 -1.47580E+04 -1.24487E+04
 -6.71151E+03 -1.24338E+04 -2.67112E+03 -1.82325E+04  3.80951E+03 -2.57584E+04  1.72587E+04 -9.42692E+03
  1.31996E+04  7.06182E+02 -9.14700E+03  1.12293E+04 -2.34434E+04 -7.49736E+03 -4.84526E+03 -2.80193E+04
  2.10905E+04 -4.33865E+04  4.69752E+04 -2.02383E+04  4.21990E+04  2.08301E+04  1.74851E+04  4.39863E+04
 -1.83280E+04  3.56792E+04 -2.70460E+04 -1.46074E+03 -5.55460E+03 -2.38486E+04  2.26791E+04 -3.11010E+04
  4.49616E+04 -3.35541E+03  3.99373E+04  1.92249E+04  1.73626E+04  4.22854E+04 -1.97998E+03  5.02592E+04
 -3.21632E+04  3.53738E+04 -4.52940E+04  9.85771E+03 -4.29228E+04 -1.53307E+04 -2.14520E+04 -3.86695E+04
  1.30056E+04 -4.27346E+04  3.50150E+04 -1.60639E+04  3.01063E+04  5.91825E+03  6.31468E+03  1.58632E+04
 -1.21454E+04  9.30560E+03 -9.67823E+03 -5.06563E+03  4.32151E+03 -1.12917E+04  2.17291E+04  1.28623E+04
  1.70618E+04  2.09393E+04 -5.09233E+03  2.75568E+04 -2.25920E+04  1.19326E+04 -2.40886E+04 -4.80004E+03
 -1.78660E+04 -1.60156E+04 -4.54310E+03 -2.28098E+04  1.58862E+03 -1.85136E+04  1.32146E+04 -1.31522E+04
  2.58406E+04 -1.14738E+04  3.44092E+04  1.09705E+03  2.86649E+04  1.62667E+04  5.81749E+03  4.04027E+04
 -1.62721E+04  3.28008E+04 -2.95985E+04  1.53870E+04 -2.05405E+04 -1.04587E+04 -4.22024E+03 -1.38502E+04
  2.56685E+03 -8.75499E+03 -7.30526E+03  4.94179E+03 -1.85488E+04  5.60276E+03 -1.15872E+04 -2.41678E+03
 -1.05629E+04 -1.51314E+04  2.38420E+03 -2.30493E+04  1.52025E+04 -1.09827E+04  1.80246E+04 -1.47608E+03
  1.21497E+04  1.42420E+04  1.28678E+03  2.20727E+04 -1.40875E+04  8.41335E+03 -1.64724E+04 -7.02823E+02
 -1.48103E+04 -1.74710E+04 -6.76313E+02 -2.44374E+04  1.45547E+04 -1.90405E+04  1.61931E+04 -4.27517E+03
  1.81952E+04  9.05379E+02  1.26515E+04  1.20307E+04  2.85084E+03  1.73651E+03  9.29971E+03  8.87292E+02
  1.85167E+04  4.33627E+03  1.92885E+04  2.10863E+04  1.88352E+04  3.20665E+04 -3.95530E+03  3.52979E+04
 -2.13671E+04  2.91705E+04 -3.56685E+04  1.25973E+04 -3.41435E+04 -4.73154E+03 -2.79792E+04 -2.19939E+04
 -1.77232E+04 -2.51983E+04  8.63552E+03 -3.05697E+04  1.94509E+04 -1.00287E+04  2.05404E+04  2.94225E+03
  4.04507E+03  1.71720E+04 -1.06487E+04  1.40176E+04 -1.81935E+04  7.29781E+03 -1.82791E+04 -8.50257E+03
 -2.64099E+02 -1.79859E+04  7.45142E+03 -1.15583E+04  8.10227E+03 -9.21641E+02 -1.40716E+03  6.09331E+03
 -8.41588E+03 -4.84316E+02 -5.22829E+03 -9.59412E+03  3.03686E+03 -1.51121E+04  9.79657E+03 -1.11425E+04
  2.20361E+04 -6.76206E+03  2.16324E+04 -2.87105E+03  2.02158E+04  7.89371E+03  9.31581E+03  1.88886E+04
 -3.39129E+03  2.36564E+04 -1.84339E+04  1.19701E+04 -1.73247E+04 -3.62344E+03 -8.13250E+03 -2.60974E+02
 -5.44237E+03 -4.75042E+03 -3.15685E+01  3.76645E+03 -1.02798E+04  1.50788E+03 -7.21973E+03  7.71312E+03
 -1.63544E+04  1.63100E+02 -1.06648E+04 -8.67285E+03 -2.77952E+03 -1.87277E+04  6.29240E+03 -1.33406E+04
  8.88918E+03 -7.54061E+03  5.68204E+03  2.58262E+03 -1.56815E+03  6.42302E+03 -7.51626E+03 -3.07865E+03
 -5.06625E+03 -2.26132E+03  2.90312E+03 -4.64444E+03  5.40612E+03 -1.29175E+04  1.62613E+04 -4.18135E+03
  1.67835E+04  2.89727E+03  1.70233E+04  9.99037E+03  1.87137E+03  1.02321E+04 -8.90843E+03  1.22329E+04
 -1.14332E+04 -4.08343E+02 -3.24190E+03 -2.61765E+03  1.34032E+03  5.73471E+02  5.35722E+03 -2.86196E+03
  8.31844E+03  3.08408E+03 -2.39988E+03  5.69335E+03 -1.25286E+04  9.93371E+03 -5.91052E+03 -3.48927E+03
 -7.26592E+03 -6.75334E+03 -2.15431E+02 -1.08756E+04  4.26508E+03 -6.10858E+03  3.97514E+03  1.77187E+03
  2.09023E+03  9.12452E+03 -5.46398E+03  8.30230E+03 -8.23775E+03  6.94179E+03 -5.06702E+03 -7.73190E+03
 -6.08356E+03 -1.14558E+04  8.59940E+02 -6.57285E+03  1.40933E+04 -8.89650E+03  1.29811E+04  5.31697E+03
  8.99085E+03  4.96500E+03 -5.42613E+03  1.01786E+04 -9.09469E+03  6.06389E+03 -5.57384E+03 -2.79575E+03
 -1.06647E+04 -6.59050E+03 -2.05868E+03 -1.02849E+04  4.23919E+03 -5.51483E+03  6.55665E+03 -9.50879E+02
  2.80551E+03 -2.13496E+03  3.38484E+03  4.80957E+03 -2.49487E+03 -1.46605E+03 -4.61182E+03 -7.64769E+02
  8.11561E+03  8.13107E+02  9.84899E+03  5.07729E+03  6.25823E+03  5.74460E+03  5.59867E+03  1.01420E+04
 -5.81673E+03  1.97817E+04 -1.24631E+04  1.32412E+04 -1.44535E+04 -1.92634E+02 -1.13621E+04 -4.43939E+03
 -1.02281E+04 -1.15117E+04 -4.43521E+03 -5.34412E+03  4.70333E+03 -2.65305E+03  3.96763E+03 -1.00898E+03
  4.75508E+03 -6.52115E+03  5.50339E+02 -4.45491E+03  7.80110E+03 -1.11728E+03  5.80343E+02 -2.05196E+03
  2.92132E+03  4.31711E+03  4.30240E+02  1.91139E+03 -3.50912E+03  6.52069E+03 -3.84987E+03  6.89785E+03
 -7.50134E+03 -2.02731E+03 -7.81534E+03 -5.54366E+03 -1.02937E+03 -7.54332E+03  3.68507E+03 -1.11687E+04
  5.91704E+03 -6.22389E+03  1.18708E+04 -2.27861E+03  5.42082E+03  3.64539E+03  9.86240E+01  1.32021E+04
 -3.62613E+03  6.63811E+03 -5.10019E+03  1.47365E+03 -2.88823E+03 -5.97049E+03  7.15598E+02 -1.03977E+03
 -2.77834E+03 -1.39047E+03 -3.74137E+03 -2.02688E+02 -6.08010E+03  3.17581E+02 -5.42647E+03 -1.28639E+03
 -1.22355E+04 -4.38042E+03 -3.19526E+03 -6.75715E+03  5.99946E+03 -7.04663E+03  8.00353E+03  2.16376E+03
  8.87618E+03  2.71905E+03  8.03478E+03  7.29749E+03 -6.20182E+03  1.21525E+04 -4.98055E+03  3.12394E+03
 -9.33118E+03  8.98575E+02 -6.16611E+03 -3.66196E+03  1.85841E+03 -8.50028E+03  3.15085E+03 -7.79362E+03
  1.11816E+04  2.33264E+03  8.87111E+03 -1.91613E+03 -4.06648E+02  3.08637E+03  1.47452E+03 -1.89634E+02
  1.88313E+03 -3.82778E+03  4.01440E+03  1.17894E+01  4.41410E+03  1.76216E+03  3.80905E+03  3.54610E+02
 -3.02253E+03  7.62562E+03 -5.42903E+03  4.92308E+03 -5.20781E+03  2.50539E+03 -1.35856E+04 -1.11904E+04
 -5.63685E+03 -9.53408E+03  4.09741E+03 -8.20081E+03  5.98992E+03 -3.46540E+03  6.53316E+03 -2.59133E+03
  7.67532E+03  4.60138E+03 -1.46153E+03  5.43155E+03 -1.60715E+03  3.97205E+02 -4.04943E+03  6.82426E+02
 -4.64303E+03 -1.90238E+03  2.18752E+03 -1.05530E+03  1.02134E+04 -5.33699E+03  7.76366E+03  7.00451E+01
 -4.30946E+03  4.42047E+03  5.97342E+03  1.82398E+03  2.41493E+03 -1.24443E+03  2.80867E+03 -5.92507E+02
  6.45531E+03 -4.21869E+03 -3.37936E+02  2.24517E+03  2.32672E+03  4.97557E+03  2.94848E+03  4.66107E+03
 -7.12506E+03  3.68045E+03 -5.63487E+03  3.03894E+03 -5.36793E+03  1.27823E+03 -5.35780E+03 -4.42146E+03
 -9.64947E+02 -6.46257E+03  2.04634E+02 -2.50301E+02  1.12083E+03 -8.49897E+02 -5.74313E+03  7.03669E+03
 -9.21671E+02 -2.36841E+03 -4.76974E+03  2.34112E+03  2.00245E+03 -6.06947E+03  1.79169E+03 -4.74122E+03
  4.01049E+02  3.23083E+03 -8.08073E+02 -1.59660E+03  4.23889E+03 -2.08328E+03  1.17654E+03  4.69817E+03
  8.50563E+02 -1.74367E+03 -2.51230E+03 -1.02520E+02 -5.69001E+02 -6.46049E+03  2.97696E+03 -8.30053E+03
  2.75079E+03 -3.56648E+03  7.86932E+03  2.43735E+03  7.39294E+03  8.73853E+03 -5.55554E+03 -9.97008E+02
 -5.29462E+03 -3.69977E+02 -4.44906E+03 -1.04717E+03 -1.05351E+03 -3.05872E+03  3.22972E+03 -4.56750E+03
  4.48107E+03 -6.43547E+03  1.11099E+03  5.43355E+02 -1.46868E+03  2.89666E+03  5.57814E+03  3.29057E+03
 -3.42105E+03  2.06244E+03 -2.42483E+03 -3.23689E+03 -4.72836E+02  1.48507E+03 -2.13769E+03 -3.45754E+03
 -1.98419E+03  1.19289E+03 -2.29338E+03  5.21391E+03 -2.91599E+03  2.95866E+03 -6.35060E+03 -2.07647E+03
 -6.72465E+03 -3.94559E+03  2.98091E+03 -1.04109E+04  1.79558E+03 -5.45083E+03  2.55028E+03 -5.31030E+03
  4.72720E+03  3.43835E+03  4.66276E+03  5.10802E+03  5.52844E+02  3.64347E+03  1.41136E+02  3.58138E+03
 -1.17438E+03 -3.26181E+02 -5.83506E+03  7.67936E+02  4.42002E+02  1.52332E+03  1.31419E+03  1.36490E+03
 -2.19127E+03  3.14675E+03  6.71873E+02 -1.03956E+03 -4.07934E+03 -1.61394E+03  5.54597E+03 -6.30435E+03
  5.78201E+03 -3.13004E+03 -1.53516E+03 -2.26481E+03  3.19246E+03  2.44914E+03  3.43604E+03  7.57969E+03
 -2.31569E+03  3.76054E+03 -4.46569E+03  5.78857E+03 -6.83918E+02 -5.24577E+03 -6.06780E+03 -1.56640E+03
 -2.44763E+03 -5.99821E+03  7.25221E+03 -4.73646E+03  3.61479E+03 -3.61531E+03  3.85580E+03  3.94202E+02
  3.26076E+03 -1.24924E+03 -1.83671E+03  3.05247E+03 -3.58154E+03 -2.10709E+03 -1.59090E+03 -2.39505E+03
  1.74281E+03  2.59702E+03 -1.47721E+03  1.50900E+03 -3.07044E+03  8.02452E+03  3.26395E+03  9.31105E+02
 -7.15029E+03  3.76870E+03 -2.17175E+03 -4.73689E+03 -2.47687E+03 -3.52203E+02  4.04661E+03 -4.65437E+03
  2.97487E+03 -2.83858E+03  3.07498E+03  3.04354E+01 -5.20621E+02  1.52387E+03  5.13254E+01  8.23220E+03
  2.98965E+03  4.16745E+03 -3.81816E+03  3.77586E+02  1.07609E+03  5.58530E+03  1.94876E+03 -1.61982E+03
 -1.31413E+03 -1.00169E+03  1.62554E+02 -2.83331E+03 -9.52848E+02  4.49370E+01  7.95072E+02  1.79269E+03
 -1.07221E+02 -2.98092E+02 -4.20545E+03 -1.67228E+03  2.38612E+03 -3.60320E+03  6.96391E+03 -2.39080E+03
  1.09042E+02  2.24953E+03  5.78360E+03  3.50197E+03 -3.81168E+03  4.68329E+03 -1.67681E+02 -1.77012E+03
