 $NMID ID='MM_0lb_SNR50_10hz_g60_59.RAW', FMTDAT='(8E13.5)'
 TRAMP=1., VOLUME=1. $END
  3.09007E+05 -2.97101E+02  3.35211E+05  2.56331E+05  8.66035E+04  3.44133E+05 -1.31357E+05  2.46897E+05
 -1.93674E+05  8.93399E+04 -1.09538E+05 -2.84924E+04 -2.43486E+03 -5.00464E+04  5.55621E+04 -3.35683E+03
  3.30943E+04  5.13997E+04 -1.10262E+04  7.42348E+04 -5.91758E+04  6.83595E+04 -8.55348E+04  3.42482E+04
 -8.08874E+04 -1.41674E+04 -6.02516E+04 -5.66469E+04 -1.32020E+04 -6.26459E+04  2.50279E+04 -4.80402E+04
  4.84573E+04  2.02233E+03  1.15552E+04  5.22662E+04 -3.55677E+04  4.53297E+04 -6.52933E+04 -4.55847E+03
 -6.08290E+04 -5.67352E+04 -1.00112E+04 -8.13838E+04  2.83047E+04 -5.50041E+04  4.69736E+04 -2.08537E+04
  4.46850E+04  1.21694E+04  2.93389E+04  2.74839E+04  1.29766E+04  3.36132E+04 -2.49265E+02  3.07854E+04
 -2.07155E+04  7.62883E+03 -2.30914E+04 -7.94017E+03  1.02763E+04 -5.45901E+03  2.47984E+04  1.94879E+04
  9.93676E+03  4.35951E+04 -3.48535E+04  3.58063E+04 -6.32067E+04 -3.59848E+03 -6.24556E+04 -4.36430E+04
 -1.49214E+04 -6.61997E+04  3.74707E+04 -5.13303E+04  6.41553E+04 -4.00901E+03  3.11206E+04  3.74896E+04
 -6.95928E+03  3.84855E+04 -3.93865E+04  2.13135E+04 -4.06568E+04 -3.42724E+03 -2.29392E+04 -9.84314E+03
 -1.56237E+04 -1.70210E+04  1.68173E+02 -2.12423E+04  1.07022E+04 -2.28995E+04  2.12597E+04 -8.16617E+03
  9.73387E+03  9.06885E+03 -1.01042E+04  9.11519E+03 -2.48498E+04 -7.09836E+03 -8.45643E+03 -3.44829E+04
  2.69312E+04 -4.37836E+04  5.28835E+04 -1.37341E+04  4.75540E+04  1.92454E+04  2.16760E+04  5.11520E+04
 -1.67228E+04  3.93708E+04 -2.67608E+04 -3.10722E+03 -1.53150E+04 -3.29134E+04  2.41454E+04 -3.60205E+04
  4.22117E+04 -1.09245E+04  3.71405E+04  2.80688E+04  1.96882E+04  4.49497E+04 -6.68004E+03  4.92502E+04
 -3.52952E+04  4.39468E+04 -4.69362E+04  1.46557E+04 -5.08309E+04 -1.31593E+04 -2.34842E+04 -3.97164E+04
  1.23855E+04 -4.93255E+04  3.30838E+04 -2.02237E+04  2.87003E+04  1.45529E+04  7.62671E+03  2.23776E+04
 -1.43541E+04  6.42185E+03 -1.25461E+04 -6.56007E+03  4.03152E+03 -7.92866E+03  1.65032E+04  5.60858E+03
  1.75089E+04  2.46308E+04 -3.53035E+03  2.62087E+04 -2.61103E+04  2.53513E+04 -2.69037E+04 -3.82191E+03
 -2.60157E+04 -1.33079E+04 -8.38586E+03 -2.19625E+04  1.08026E+03 -2.34027E+04  1.51363E+04 -1.73149E+04
  3.32423E+04 -1.49808E+04  3.29931E+04  1.04021E+04  3.35113E+04  2.49862E+04  1.37247E+04  4.21613E+04
 -1.32950E+04  3.01945E+04 -3.55240E+04  2.07323E+04 -2.15763E+04 -9.40205E+03 -5.27557E+03 -1.87091E+04
 -4.68654E+03  3.78058E+03 -5.30401E+03  9.09190E+03 -2.09152E+04  6.11553E+03 -2.51507E+04 -1.37474E+04
 -9.71386E+03 -2.08199E+04  4.99468E+03 -2.54597E+04  2.14815E+04 -1.37846E+04  2.52545E+04  1.94887E+03
  1.65865E+04  1.65417E+04  2.98207E+03  2.59688E+04 -1.03875E+04  1.30587E+04 -2.74826E+04 -2.23903E+03
 -1.62780E+04 -1.49338E+04 -4.80757E+03 -2.36893E+04  1.49158E+04 -2.58003E+04  2.95675E+04 -1.83353E+04
  2.29707E+04 -7.45708E+03  1.66221E+04  5.95960E+03  9.34283E+03 -4.84346E+02  9.61119E+03  4.34200E+03
  2.21184E+04  2.99750E+03  2.88491E+04  1.69481E+04  1.84890E+04  4.19097E+04 -3.89655E+02  3.80363E+04
 -2.63810E+04  4.01309E+04 -4.50365E+04  1.57091E+04 -4.37332E+04 -1.45314E+03 -3.51217E+04 -2.47816E+04
 -1.13521E+04 -3.06003E+04  1.63674E+04 -3.51992E+04  3.04614E+04 -1.79148E+04  2.45052E+04  9.29919E+03
  6.73093E+03  2.14558E+04 -9.80133E+03  1.09844E+04 -1.46182E+04  5.33223E+03 -1.38235E+04 -1.92110E+04
 -6.16641E+02 -2.47111E+04  1.05343E+04 -1.30560E+04  9.77860E+03  1.70342E+03  3.54868E+03  9.36126E+03
 -8.43734E+03  6.92328E+03 -8.28558E+03 -3.93192E+03  2.89958E+03 -1.70906E+04  1.60625E+04 -2.20873E+04
  1.97701E+04 -2.84202E+03  2.93453E+04  7.61976E+03  2.26229E+04  1.82339E+04  1.88975E+04  2.31393E+04
 -8.01646E+03  2.82591E+04 -2.30773E+04  1.73836E+04 -1.69557E+04  1.59588E+03 -2.07970E+04 -2.15546E+03
 -4.94934E+03 -6.01998E+03 -6.74978E+01 -7.23715E+03 -4.22999E+03 -2.60121E+02 -8.22359E+03  1.58420E+03
 -1.93544E+04 -4.18579E+03 -1.70048E+04 -8.36434E+03  9.17179E+02 -1.24650E+04  2.39465E+03 -1.30681E+04
  1.20292E+04  1.70557E+03  7.00093E+03  8.12742E+03 -3.91096E+03  8.00477E+03 -8.59323E+03  2.61127E+03
 -1.46217E+04 -1.31792E+04 -2.21868E+03 -1.43710E+04  1.73685E+04 -1.19013E+04  1.83034E+04 -1.32652E+04
  1.78437E+04 -3.45802E+03  1.04110E+04  1.22725E+04 -6.14843E+02  2.73492E+04 -8.66753E+03  1.19590E+04
 -1.12261E+04  3.24547E+03 -4.89508E+03 -3.52165E+03 -2.07949E+03 -6.28788E+03  2.95503E+03  4.59068E+02
  2.97781E+03  5.45165E+03 -6.53153E+02  1.25287E+04 -5.36879E+03  1.59606E+04 -9.29452E+03  2.98360E+03
 -5.86727E+03 -2.10364E+03 -1.45531E+03 -8.43482E+03  1.07495E+04 -2.03202E+03  1.19156E+04 -3.53992E+02
  6.23323E+03  1.01169E+04 -1.38836E+03  1.28574E+04 -1.53597E+04  8.96325E+03 -1.37905E+04  3.24365E+03
 -1.14499E+04 -1.78774E+04  7.67970E+03 -1.47982E+04  1.72286E+04 -1.19510E+04  1.66621E+04 -1.04221E+03
  9.05348E+03  2.21443E+04 -6.30955E+03  1.15568E+04 -1.45782E+04  5.23194E+03 -8.57651E+03  9.30984E+02
 -6.12637E+03 -1.08700E+04 -4.22846E+03 -1.07706E+04  3.43601E+03 -1.18787E+04  5.23005E+03 -1.71920E+03
  6.17230E+03  6.26366E+03  2.09598E+03 -1.45148E+03 -2.33577E+03 -2.05794E+03  1.29511E+03 -5.99600E+03
  9.31626E+03 -3.77680E+03  1.79999E+04 -1.24010E+03  1.68066E+04  1.35822E+04  8.45947E+03  1.77038E+04
 -4.32299E+03  2.44018E+04 -1.69373E+04  1.62735E+04 -2.36724E+04  5.09670E+03 -2.48188E+04 -1.77192E+03
 -7.56155E+03 -2.00209E+04  2.94830E+03 -1.24117E+04  8.95879E+03 -5.57008E+03  5.73680E+03 -4.90267E+03
 -1.45833E+03 -2.62903E+03 -2.15996E+03 -4.81489E+03  2.62513E+03 -2.02409E+03  9.91860E+03  1.18064E+03
  3.78671E+03  2.55564E+03  6.49338E+03  1.22931E+04 -3.72659E+03  1.14686E+04 -6.51563E+03  1.28349E+04
 -7.34236E+03  2.10314E+03 -7.99824E+03 -1.34807E+04  3.30866E+03 -1.55059E+04  6.89142E+03 -1.82186E+04
  1.59759E+04 -6.48395E+03  1.55300E+04  5.16449E+03  1.23604E+04  1.94500E+04 -8.36404E+02  1.69461E+04
 -1.10803E+04  1.73399E+04 -4.15792E+03 -3.88300E+01 -6.74876E+03 -6.86281E+03 -2.79874E+03 -5.18684E+03
 -2.37481E+03  1.20919E+03 -3.34789E+03  3.48360E+03 -4.27398E+03  5.24124E+03 -7.84953E+03  3.49913E+03
 -2.87601E+03 -5.58559E+03  5.54964E+03 -1.55398E+04  1.02542E+04 -1.48159E+04  1.24053E+04 -7.27754E+03
  1.41072E+04  9.37012E+03  9.32567E+03  1.76549E+04 -5.63925E+03  1.08675E+04 -7.27251E+03  1.74973E+03
 -1.63444E+04  4.82187E+03 -6.80501E+03 -9.67052E+03 -8.59163E+02 -1.15901E+04  7.55793E+03 -2.70900E+03
  1.44885E+04  3.93473E+03  2.48491E+03  7.79219E+03  3.95684E+03  2.68250E+03 -1.31095E+03  6.05936E+03
  1.98505E+03 -2.71104E+03  3.45944E+03 -1.57609E+03  3.33010E+03  6.21856E+03 -9.49574E+02  4.64263E+03
  2.03993E+03  1.51672E+04 -1.58674E+04  1.48164E+04 -1.58510E+04  7.61412E+03 -1.72512E+04 -1.84123E+03
 -7.34059E+03 -1.26336E+04  1.12609E+04 -2.22593E+04  1.15663E+04 -1.00449E+04  1.50425E+04  4.42380E+02
  8.15902E+03  1.17803E+04 -6.17204E+01  8.69576E+03 -5.03049E+02 -1.32339E+03 -1.13161E+04 -2.55956E+03
 -9.91650E+01 -5.96698E+03  3.53847E+03 -5.27695E+03  4.94610E+03 -1.47181E+03  2.84640E+03  1.60852E+02
  1.81936E+03 -6.56400E+02  3.91291E+03  5.96911E+03  2.47332E+03 -3.46264E+03  2.59445E+03 -6.85064E+02
  5.94521E+03  2.07179E+03  3.64761E+03  4.79667E+02 -3.97812E+03  1.29220E+04  4.41121E+03  5.74421E+03
 -9.44402E+03  5.41273E+03 -9.71047E+03 -1.35361E+03 -5.22097E+03 -2.35292E+03  4.08035E+03 -3.85925E+03
  3.40200E+03 -7.50746E+03  2.08336E+03 -8.24936E+03  3.45807E+02  2.16280E+03  1.42039E+03  8.25123E+03
 -5.88162E+03  4.10850E+03 -7.71828E+03 -1.16154E+04 -8.65317E+03 -5.87323E+03  2.35640E+03 -1.13791E+04
 -2.47351E+03 -4.30630E+03  5.02024E+03 -7.94160E+02  1.00909E+03  2.18091E+03  5.00718E+03  4.20669E+03
 -4.50468E+03  1.47406E+03 -3.45240E+03 -4.93655E+03  2.19518E+03 -3.10046E+03  1.27471E+04 -1.13520E+04
  8.06212E+03 -3.67319E+03 -1.35460E+03  8.18346E+03  7.60519E+02  1.11104E+04  8.62589E+02  7.17862E+03
 -4.69726E+03  8.23461E+02 -1.55194E+04 -5.43979E+03 -8.44635E+03 -8.99880E+03  4.45280E+00 -5.70044E+03
  1.91103E+03 -1.97016E+02 -2.22330E+02  5.10867E+03 -2.14042E+03  3.23159E+03 -1.49129E+03  5.55066E+03
 -5.45954E+03  4.84911E+03 -2.01898E+01  2.54045E+03 -1.80703E+03 -5.96886E+03 -2.98481E+03 -7.50766E+02
  1.91059E+03  8.36668E+03 -7.28881E+03  4.35131E+03 -1.33401E+04  5.88755E+03 -1.40412E+04 -6.50608E+03
 -5.11457E+03 -1.32940E+04 -2.12093E+03 -1.39584E+04  6.37983E+03 -1.51634E+04  1.46573E+04 -2.95906E+03
  1.06412E+04 -5.73704E+03  1.05619E+04  1.07269E+04  8.18522E+02  1.21512E+04 -6.87035E+03  2.49553E+03
 -5.94960E+03 -1.10130E+03 -6.04268E+03 -4.66709E+03 -3.61951E+03  1.29765E+03  2.62451E+03  3.95033E+03
 -1.86460E+03  2.66400E+03 -2.09012E+03 -3.29912E+03 -8.31393E+03 -6.13063E+03 -7.70109E+02 -6.44015E+03
  8.90961E+03 -1.91233E+03  3.81909E+03 -3.24131E+03  1.19734E+03  3.32525E+03  4.39618E+03  8.25842E+03
 -1.15763E+03  1.42801E+04 -1.00416E+04  8.25481E+03 -1.26348E+04  5.98051E+02 -9.63256E+03 -4.84568E+03
 -1.02667E+04 -4.60892E+03  6.21135E+03 -1.23896E+04 -8.03725E+01 -4.81607E+03  8.04226E+03 -4.42849E+03
  1.29766E+03 -1.24438E+02  3.23004E+03  6.16924E+03 -1.96204E+03  2.48078E+03  1.78442E+03 -1.61818E+03
 -2.39535E+02  4.91269E+03  6.74327E+03  4.58375E+03  3.65536E+03  3.96895E+03  4.14202E+03  7.01867E+03
 -8.59967E+02  7.80500E+03 -4.02127E+03 -6.85135E+02  1.64164E+02 -1.54914E+03 -5.14408E+03 -4.59901E+03
  8.66249E+03 -8.88826E+03  1.14961E+04 -3.44916E+03  1.43512E+04 -3.31925E+03  9.52795E+02  1.02335E+04
  1.87024E+03  5.96587E+03  9.67844E+02 -1.98309E+02 -1.44340E+03  5.47798E+03 -3.74816E+03 -3.73992E+02
  3.40929E+03 -1.00266E+03 -2.98314E+03 -1.20163E+03 -4.28968E+03 -2.43920E+02 -3.40435E+03 -1.41919E+03
 -3.97502E+03 -2.21295E+03 -6.93527E+03 -1.35020E+04  6.07854E+03 -1.02561E+04  7.06577E+03 -8.20768E+02
  9.80878E+03 -2.56244E+03  1.86698E+03  6.40758E+03 -1.37886E+03  5.23971E+03 -3.54000E+03  7.26447E+03
