 $NMID ID='MM_0lb_SNR50_10hz_g55_15.RAW', FMTDAT='(8E13.5)'
 TRAMP=1., VOLUME=1. $END
  3.11043E+05 -1.50423E+03  3.33945E+05  2.52263E+05  8.15040E+04  3.37588E+05 -1.38153E+05  2.51649E+05
 -1.93214E+05  8.19250E+04 -1.17462E+05 -3.19676E+04 -8.50598E+03 -5.13685E+04  5.54574E+04 -4.46977E+02
  3.49662E+04  5.37656E+04 -1.64093E+04  7.77543E+04 -6.59240E+04  6.61185E+04 -8.55290E+04  2.87862E+04
 -8.10737E+04 -9.69055E+03 -5.61088E+04 -5.92390E+04 -1.38388E+04 -7.16793E+04  2.83308E+04 -4.66947E+04
  3.93188E+04  3.92639E+03  2.10937E+04  4.76503E+04 -3.93886E+04  5.10999E+04 -6.52977E+04 -5.93315E+03
 -5.61848E+04 -5.78515E+04 -3.53870E+03 -7.69855E+04  3.08020E+04 -5.52603E+04  4.44447E+04 -2.21339E+04
  4.20490E+04  8.38881E+03  3.25179E+04  2.77441E+04  1.73956E+04  3.23580E+04 -5.47439E+03  2.50432E+04
 -2.14258E+04  1.31218E+04 -2.61625E+04 -4.48799E+02  5.21490E+03 -3.67502E+03  2.16627E+04  1.69331E+04
  3.29583E+03  3.96018E+04 -3.40858E+04  3.65564E+04 -6.63532E+04  1.21914E+03 -5.50523E+04 -4.43826E+04
 -1.76084E+04 -6.93177E+04  3.75090E+04 -5.30382E+04  6.21888E+04 -1.43556E+03  3.21557E+04  2.96745E+04
 -7.20377E+03  3.96131E+04 -2.78170E+04  2.08756E+04 -2.68798E+04 -9.13616E+03 -2.10443E+04 -9.57758E+03
 -1.38205E+04 -1.99315E+04  3.48988E+03 -1.96723E+04  2.86721E+03 -1.87182E+04  1.33366E+04 -2.21591E+04
  1.55994E+04  1.61269E+03 -1.30852E+04  1.52644E+04 -2.01275E+04 -1.44084E+03 -1.12943E+04 -3.64617E+04
  2.24752E+04 -4.95931E+04  5.88877E+04 -2.30289E+04  5.15457E+04  2.45052E+04  1.07039E+04  4.42656E+04
 -1.48998E+04  3.51887E+04 -2.86778E+04  4.19003E+03 -1.20476E+04 -2.74303E+04  1.59341E+04 -2.72451E+04
  4.09508E+04 -1.11939E+04  4.06799E+04  2.64752E+04  2.64974E+04  5.39271E+04 -9.94186E+03  5.59781E+04
 -3.29972E+04  4.07880E+04 -5.20360E+04  1.53648E+04 -4.46466E+04 -1.35044E+04 -2.65586E+04 -4.57371E+04
  9.95462E+03 -4.30618E+04  3.13207E+04 -1.85232E+04  3.29841E+04  1.06387E+04  5.65509E+03  2.09943E+04
 -1.96763E+04  1.40907E+04 -1.25201E+04 -1.11371E+04  7.64753E+03 -1.11880E+04  2.09854E+04  5.59155E+03
  1.81263E+04  2.24448E+04 -1.39990E+04  3.01767E+04 -2.28941E+04  1.65303E+04 -2.93589E+04  4.92658E+03
 -2.72880E+04 -1.72966E+04 -5.18465E+03 -2.60622E+04  1.86706E+03 -2.70301E+04  2.26817E+04 -2.22347E+04
  2.82102E+04 -1.68226E+04  3.65229E+04  4.52539E+03  2.70731E+04  2.05351E+04 -2.22378E+01  4.01357E+04
 -1.44108E+04  3.14774E+04 -3.00944E+04  1.17937E+04 -2.40230E+04 -1.00301E+04 -2.58526E+03 -9.62042E+03
 -3.21666E+03 -1.89579E+03 -7.12560E+03  1.05754E+04 -1.90877E+04  2.35379E+03 -1.88985E+04 -4.46700E+03
 -4.70541E+03 -2.23132E+04  7.19340E+03 -2.16632E+04  1.84371E+04 -2.15313E+04  1.58045E+04 -5.03415E+03
  1.22257E+04  1.25775E+04 -5.55007E+03  2.79630E+04 -1.85361E+04  9.30981E+03 -2.48571E+04 -3.26221E+03
 -1.61641E+04 -1.68642E+04 -6.63897E+03 -2.45558E+04  7.96716E+03 -2.38819E+04  1.87534E+04 -1.01676E+04
  1.71860E+04  1.82444E+03  1.09944E+04  6.02465E+03  1.13319E+04 -1.23306E+03  7.15201E+03 -4.65844E+03
  2.33309E+04  2.09979E+03  2.49324E+04  1.47384E+04  2.51530E+04  3.50948E+04  2.00837E+03  4.47385E+04
 -2.31740E+04  3.79270E+04 -4.61643E+04  1.68522E+04 -4.41832E+04 -5.51071E+03 -3.50163E+04 -2.78438E+04
 -1.83268E+04 -3.56982E+04  1.04026E+04 -3.09834E+04  2.80185E+04 -1.99267E+04  3.20461E+04  4.30081E+03
  9.75881E+03  1.91049E+04 -1.33367E+04  1.37772E+04 -1.51105E+04  1.46833E+03 -1.63610E+04 -9.56486E+03
  1.25025E+03 -2.02877E+04  1.30500E+04 -1.36684E+04  7.60105E+03  2.23600E+03  7.50258E+03  5.40389E+03
 -1.22489E+04 -1.08343E+03 -5.19449E+03 -1.07050E+04  6.07838E+02 -1.93505E+04  9.24257E+03 -1.37953E+04
  2.57958E+04 -1.44112E+04  2.47126E+04  1.40621E+03  2.63408E+04  2.16427E+04  1.06617E+04  2.96728E+04
 -9.40743E+02  3.28712E+04 -1.94372E+04  1.84011E+04 -2.60954E+04  1.36055E+03 -1.92279E+04 -6.14010E+03
 -1.57389E+03  2.97847E+03 -1.13395E+03 -3.43770E+02 -3.44170E+03  5.00007E+03 -5.82281E+03  6.92230E+03
 -9.27330E+03 -2.07571E+03 -1.97375E+04 -1.16151E+04 -5.13521E+03 -1.53808E+04  6.24927E+03 -1.63441E+04
  1.63333E+04 -6.95969E+03  9.94601E+03  3.32312E+03  2.70197E+03  4.92092E+03 -8.49287E+03 -3.14460E+02
 -1.31440E+04 -8.88092E+03 -2.08644E+03 -1.92219E+04  1.01092E+04 -9.05888E+03  2.25193E+04 -9.95153E+03
  2.64128E+04  6.66435E+02  1.77730E+04  1.25735E+04  1.54362E+03  1.41733E+04 -8.40526E+03  1.83243E+04
 -1.40052E+04  1.24645E+04 -6.81241E+03  6.15054E+02 -2.17788E+03 -8.05840E+03  6.70423E+03  1.89460E+03
  6.46815E+03  9.10662E+03  1.14984E+03  1.24893E+04 -7.80536E+03  1.38999E+04 -1.38205E+04  1.47286E+03
 -1.16625E+04 -8.62774E+03  6.85258E+02 -1.42900E+04  1.00279E+04 -6.04927E+03  1.08029E+04  4.84742E+03
 -2.70791E+03  5.00668E+03 -5.08960E+03  1.28252E+04 -1.21667E+04  6.33906E+03 -2.08807E+04 -4.25453E+03
 -8.43173E+03 -1.53795E+04 -1.44121E+02 -1.68761E+04  1.72526E+04 -8.38180E+03  1.64767E+04  2.32867E+03
  1.04247E+04  9.42522E+03 -1.46423E+03  1.57505E+04 -7.03734E+03  4.37172E+03 -1.18269E+04 -9.69000E+02
 -1.44984E+04 -1.06194E+04 -5.91770E+03 -1.67859E+04  2.42163E+03 -8.10372E+03  4.33792E+03 -3.80472E+03
 -1.01231E+03  3.43810E+03 -4.17795E+03 -2.58906E+03  3.22519E+03 -2.53892E+03  5.00508E+03 -8.60983E+03
  1.40928E+04 -3.72021E+03  2.17031E+04  1.07534E+04  8.76029E+03  9.32170E+03  6.61893E+03  1.59786E+04
 -5.63036E+03  2.08607E+04 -1.90918E+04  1.66120E+04 -2.55339E+04  6.21060E+02 -2.36313E+04 -1.03672E+04
 -1.44299E+04 -1.21680E+04  1.06316E+03 -1.16401E+04  3.43716E+03 -8.67945E+03  3.85799E+03 -8.45484E+03
  7.41061E+03 -2.61131E+03 -3.99452E+03 -7.42777E+03  6.00518E+03  3.73088E+03  8.96962E+03  2.01055E+03
  1.19762E+04  4.05536E+03  7.17612E+03  1.18107E+04  3.97548E+03  8.21410E+03 -1.20940E+04  2.71015E+03
 -9.03256E+03  1.91963E+03 -8.07343E+03 -9.67721E+03 -1.15862E+03 -1.40658E+04  9.42015E+03 -1.58968E+04
  1.17649E+04 -5.67074E+03  2.08726E+04  2.71058E+03  1.13626E+04  1.56917E+04  1.45699E+03  2.40094E+04
 -3.79237E+03  8.55736E+03 -5.18353E+03  2.44389E+03 -1.17188E+04 -1.33997E+02 -6.60902E+03  8.10862E+02
 -3.64590E+03  2.27754E+03 -9.66769E+02  2.11116E+03 -4.29566E+03  2.47399E+03 -1.64561E+04  1.30567E+03
 -8.87447E+03 -6.13532E+03  4.03320E+03 -1.86223E+04  1.61824E+04 -1.68836E+04  1.28956E+04  1.32277E+03
  1.00653E+04  7.40164E+03  7.16090E+03  1.28400E+04  1.97220E+03  1.36612E+04 -1.25277E+04  1.28068E+04
 -1.21512E+04  2.09376E+02 -9.88838E+03 -6.05469E+03  7.85755E+02 -1.03189E+04  1.02615E+04 -2.16381E+03
  1.45722E+04 -4.76629E+03  8.09172E+03  5.73820E+03  4.33706E+03 -8.98411E+03  6.07864E+02  1.12915E+03
 -9.63669E+02  2.79676E+03 -1.40952E+03  2.24050E+03  2.37912E+03  1.44085E+03  3.13224E+03  6.50918E+03
  7.25322E+02  1.24221E+04 -2.83739E+03  8.77552E+03 -1.69744E+04  5.22137E+03 -1.73084E+04 -5.76122E+03
 -7.48923E+03 -1.31811E+04  1.30345E+03 -1.42026E+04  7.10969E+03 -1.40121E+04  9.98348E+03 -2.42355E+02
  1.24280E+04  4.77993E+03  5.72658E+02  6.60113E+03 -7.81669E+03  1.90259E+03 -4.53368E+03 -2.75623E+03
  1.75085E+03 -7.35023E+03  2.54208E+02 -7.86257E+03  4.40886E+03 -4.95832E+03  6.43522E+03  6.58312E+03
  8.73831E+03  1.05991E+03  2.68127E+03  5.87706E+03 -5.54168E+03 -7.66186E+02 -1.32606E+03 -2.36278E+03
  1.24184E+03  4.56221E+02  7.86264E+03  7.09889E+03  7.63507E+03  7.91396E+03 -3.66014E+03  1.40824E+04
 -9.85886E+03  2.43169E+03 -9.99431E+03  6.74602E+03 -8.64413E+03 -5.92580E+03 -3.16230E+03 -1.76148E+03
  3.23775E+03 -7.85822E+03  9.38520E+02 -3.45012E+03  2.49564E+03 -6.71514E+02 -5.61826E+03  3.69345E+03
 -3.20539E+03  5.08836E+03 -9.32566E+03  1.91358E+03  2.77791E+03 -6.95910E+03  1.59273E+03 -7.33673E+03
  8.50507E+03 -7.79449E+03  6.51844E+03  3.01000E+03  4.55075E+02  6.36706E+03 -1.79132E+03  7.71386E+03
 -3.93510E+03  1.17503E+03 -4.41114E+03 -4.73425E+03  5.95322E+02 -1.44437E+04  1.57451E+03 -4.62306E+03
  1.30408E+04  5.67002E+03  2.95644E+03  1.09548E+04  5.20250E+02  1.32591E+04 -4.40367E+03  7.06143E+03
 -9.81122E+03  3.24398E+03 -7.09953E+03 -2.98448E+03 -9.66003E+02 -3.05447E+03 -7.81981E+02 -8.98445E+03
  3.57228E+03 -6.54661E+03  2.34100E+03  2.48865E+02 -4.07530E+03  1.81322E+03 -4.88976E+01  3.46750E+02
 -1.38737E+03  8.93133E+03 -8.68663E+02  3.14934E+03 -7.08548E+03 -3.80295E+02 -2.86722E+02  4.33623E+02
 -7.58668E+03  6.47638E+02 -1.00241E+04 -4.60813E+02 -8.73206E+03  2.87544E+03 -1.86553E+03 -1.96562E+03
 -1.81652E+03 -1.46617E+04 -6.47340E+02 -1.67915E+04  8.33285E+03 -7.75231E+03  1.24345E+04  2.55369E+02
  1.69717E+04  5.86657E+02  2.56325E+03  1.10454E+04 -3.84208E+03  1.30122E+04 -3.75868E+03  8.80584E+03
 -6.49896E+03  5.18775E+03 -3.66452E+03  2.40939E+03 -1.39146E+03  2.65963E+03  5.31960E+03 -4.80786E+03
 -2.65373E+03  3.38596E+02  2.37343E+03 -1.10370E+03 -4.75871E+03  6.39183E+02 -1.60556E+03 -5.60866E+03
 -1.25415E+03 -7.58516E+03  7.41046E+03 -2.12296E+02  9.48096E+03 -1.43191E+03  1.65689E+03  1.01791E+04
 -2.68228E+03  9.68984E+03 -9.78080E+03  1.03119E+04 -5.62984E+03 -3.73149E+03 -7.76134E+03 -5.47530E+03
 -7.40371E+03 -9.03550E+03 -7.85018E+03 -1.16858E+04  8.03437E+03 -3.46521E+03  5.46220E+03  1.79079E+03
 -4.97083E+02  6.62873E+03 -1.73504E+03  2.97367E+03 -6.17340E+03  1.72295E+03  2.19190E+03 -1.83281E+03
  4.70317E+03 -1.95751E+03 -2.11006E+03 -1.77462E+03  3.65860E+03  3.07366E+03 -4.14232E+03  1.29184E+04
  1.09648E+03  4.61950E+03 -4.67492E+03  3.78288E+03 -1.01506E+03 -2.84962E+03  1.15400E+02 -1.27096E+04
 -1.15972E+02  2.82818E+03  1.28090E+04 -4.76563E+03  8.84913E+03  6.96725E+02  2.72855E+03  9.11722E+03
  1.00971E+02  4.76872E+03 -1.33587E+03  5.74489E+03 -5.87912E+03  4.92037E+02 -3.95934E+03 -2.10943E+00
 -1.78790E+03  2.23374E+03 -1.12472E+03 -9.39106E+02 -4.85640E+03 -8.23412E+03 -6.18188E+03 -4.44672E+02
 -2.47550E+02 -6.80660E+03 -4.44916E+02 -7.04391E+03  1.37218E+03 -2.92990E+03  8.74952E+03 -8.81055E+02
  1.16161E+03  4.87557E+03  5.54956E+03  5.72314E+03 -9.98687E+00  1.08516E+03 -6.31872E+03  6.18758E+03
