 $NMID ID='MM_0lb_SNR50_10hz_g55_47.RAW', FMTDAT='(8E13.5)'
 TRAMP=1., VOLUME=1. $END
  3.04793E+05  2.30343E+03  3.41094E+05  2.54506E+05  8.45923E+04  3.37301E+05 -1.35680E+05  2.45172E+05
 -1.94466E+05  8.75465E+04 -1.10054E+05 -3.06107E+04 -1.03675E+02 -4.92410E+04  5.15806E+04 -8.02450E+03
  3.86847E+04  5.21477E+04 -2.05762E+04  7.41683E+04 -6.62049E+04  6.56687E+04 -8.61929E+04  3.10935E+04
 -7.87539E+04 -8.38856E+03 -5.72028E+04 -5.63865E+04 -1.41754E+04 -7.27618E+04  2.38211E+04 -4.37489E+04
  3.76145E+04  5.82441E+03  1.30477E+04  4.52178E+04 -3.92459E+04  3.95606E+04 -6.34613E+04 -1.38328E+03
 -5.57303E+04 -5.36634E+04 -1.00606E+04 -6.96069E+04  3.04789E+04 -5.37772E+04  4.55703E+04 -2.30735E+04
  4.62324E+04  1.65509E+04  3.76598E+04  2.82320E+04  1.94041E+04  3.16969E+04  3.81575E+01  2.86781E+04
 -2.29572E+04  1.14493E+04 -2.60227E+04 -6.45258E+03  1.47769E+04 -8.69185E+03  2.16327E+04  1.76666E+04
  1.24257E+04  3.85841E+04 -3.41891E+04  3.89324E+04 -6.84107E+04  4.31777E+01 -5.87824E+04 -4.60292E+04
 -1.45677E+04 -6.05867E+04  4.04177E+04 -4.20760E+04  6.05320E+04 -1.17791E+03  3.66583E+04  3.55691E+04
 -4.41928E+03  3.81736E+04 -3.60426E+04  2.22205E+04 -3.58676E+04 -4.30213E+03 -2.34404E+04 -1.01065E+04
 -1.09979E+04 -9.93241E+03 -5.05595E+02 -1.15200E+04  7.37457E+03 -2.68667E+04  2.00152E+04 -1.07778E+04
  1.25267E+04  3.17793E+03 -5.96455E+03  1.72393E+04 -2.45530E+04 -7.00411E+03 -6.83937E+03 -3.09410E+04
  2.15829E+04 -5.22793E+04  5.12901E+04 -2.42366E+04  4.85611E+04  2.36095E+04  1.40674E+04  4.70036E+04
 -1.66031E+04  3.12067E+04 -2.95075E+04  4.74401E+03 -6.87339E+03 -2.81320E+04  2.06711E+04 -3.77727E+04
  4.71087E+04 -9.32110E+03  3.93752E+04  2.20843E+04  2.06802E+04  5.06041E+04 -1.66380E+04  5.85624E+04
 -3.18254E+04  3.94905E+04 -4.80150E+04  1.54801E+04 -5.07827E+04 -1.66213E+04 -2.59106E+04 -3.62312E+04
  6.33191E+03 -4.36808E+04  4.15804E+04 -1.99950E+04  2.95270E+04  7.12147E+03  4.50635E+03  2.27154E+04
 -1.10715E+04  1.03082E+04 -1.55741E+04 -5.74407E+03  6.13641E+03 -7.42663E+03  1.65354E+04  7.13447E+03
  1.36304E+04  2.05532E+04 -2.03704E+03  2.69061E+04 -2.08986E+04  7.43217E+03 -3.33014E+04  5.61563E+02
 -1.88736E+04 -1.70706E+04 -1.41441E+04 -2.41415E+04  9.21622E+03 -2.66497E+04  2.46149E+04 -1.63908E+04
  3.34493E+04 -1.44860E+04  3.23788E+04  3.29966E+03  2.95026E+04  2.84145E+04  3.97623E+03  3.37198E+04
 -2.28186E+04  2.70392E+04 -2.83744E+04  1.30947E+04 -2.74095E+04 -8.03804E+03 -6.99859E+03 -1.81436E+04
  1.03643E+02 -4.25730E+03 -9.36423E+03  7.76188E+03 -2.52453E+04  2.56231E+03 -1.89674E+04 -9.85585E+03
 -1.59074E+04 -1.98501E+04  6.81367E+02 -2.28147E+04  1.82503E+04 -1.87421E+04  2.06155E+04  3.92196E+03
  2.05415E+04  1.02685E+04  6.12087E+03  1.86074E+04 -2.14845E+04  1.58441E+04 -1.85676E+04 -8.75692E+03
 -2.12582E+04 -2.14189E+04 -5.44452E+03 -3.00386E+04  1.21294E+04 -2.33752E+04  2.28794E+04 -1.42650E+04
  2.01850E+04 -1.11166E+04  1.13498E+04  2.78814E+03  1.42349E+04 -1.31463E+03  1.52929E+04 -5.35617E+03
  2.29573E+04 -2.24144E+03  2.34556E+04  1.20794E+04  2.08472E+04  3.55832E+04 -2.98043E+03  4.85766E+04
 -2.96433E+04  3.52257E+04 -4.03904E+04  1.40357E+04 -4.63715E+04 -9.09852E+03 -3.73432E+04 -2.89173E+04
 -1.67201E+04 -4.20195E+04  2.09689E+04 -3.14424E+04  2.87115E+04 -1.93250E+04  2.60355E+04  5.43904E+03
  9.41329E+03  2.07060E+04 -7.42628E+03  1.07995E+04 -2.58933E+04  2.77448E+02 -2.14982E+04 -1.48530E+04
 -8.78749E+02 -2.37330E+04  9.20437E+03 -1.35156E+04  1.48781E+04  4.03686E+03  3.15068E+03  8.29104E+03
 -7.87522E+03  6.15576E+03 -6.43513E+03 -6.88179E+03  8.21277E+03 -2.15343E+04  8.92909E+03 -1.48154E+04
  2.15761E+04 -1.25557E+04  2.19001E+04  4.99820E+03  2.08508E+04  1.72552E+04  7.19494E+03  2.62155E+04
 -6.70290E+03  2.90689E+04 -2.08382E+04  1.44559E+04 -1.91756E+04  1.01177E+03 -1.20962E+04 -1.11253E+04
 -1.14242E+04 -1.04141E+04 -1.79252E+03  5.78876E+03 -4.93951E+03  4.80765E+03 -9.27597E+03  7.44884E+03
 -1.94519E+04  7.71532E+02 -1.12553E+04 -1.32808E+04 -6.00095E+03 -1.66293E+04  4.30013E+03 -1.25491E+04
  1.93825E+04 -6.96467E+03  3.80531E+03  6.06253E+03 -4.19249E+03  9.07849E+03 -4.37152E+03  4.04768E+03
 -2.96499E+03 -6.07429E+03 -3.58530E+03 -2.02427E+04  1.08356E+04 -1.76367E+04  1.42005E+04 -1.85019E+03
  2.24427E+04  2.48769E+03  1.61627E+04  1.43414E+04  2.75536E+03  1.69576E+04 -1.58917E+04  1.13516E+04
 -1.53306E+04  2.42718E+03 -3.70813E+03 -7.19669E+03 -7.03470E+02  4.44793E+02  1.29314E+02 -4.26802E+03
  1.06736E+03  1.01515E+04 -1.48602E+03  1.43590E+04 -5.15049E+03  1.20280E+04 -2.44823E+04  4.48021E+03
 -6.69286E+03 -7.44430E+03 -3.20147E+02 -2.02662E+04  1.10674E+04 -4.00047E+03  8.83862E+03  4.65622E+03
  4.55851E+03  8.69507E+03 -1.16979E+04  1.46438E+04 -1.13959E+04  3.22006E+03 -1.44832E+04 -5.67944E+03
 -9.75337E+03 -1.30707E+04  4.69207E+03 -1.33542E+04  1.62162E+04 -6.74076E+03  1.79031E+04  1.06435E+04
  5.83812E+03  1.53532E+04 -3.27498E+03  1.78575E+04 -6.34472E+03  1.05791E+04 -7.09323E+03 -7.30207E+03
 -1.36324E+04 -8.77016E+03  2.31295E+03 -1.18782E+04  8.11724E+03 -1.31307E+04  4.27271E+03 -4.48906E+03
  1.02841E+04  4.43242E+03  4.56538E+03  2.23356E+03 -1.12488E+03  5.67950E+02  5.55449E+03 -7.42912E+03
  9.34969E+03 -2.93454E+03  1.74309E+04  2.66299E+03  1.11653E+04  4.11360E+03  1.00638E+04  1.47827E+04
 -2.84242E+03  2.84805E+04 -2.26425E+04  1.97530E+04 -2.45102E+04  4.40139E+03 -1.48831E+04 -1.43081E+04
 -7.72502E+03 -1.48136E+04 -3.26761E+02 -1.28706E+04  1.69577E+02 -1.13462E+04  4.18529E+03 -2.30212E+03
  3.53602E+02 -2.93367E+03  3.03877E+02 -3.36435E+03  5.87095E+03 -2.06478E+03  6.79285E+03 -8.24100E+02
  1.46217E+04 -8.26278E+02  9.09813E+03  1.01522E+04  3.01765E+03  8.98088E+03 -1.34973E+04  5.43794E+03
 -8.54784E+03  3.28039E+03 -1.88940E+03 -1.60179E+04 -7.01909E+02 -1.77726E+04  8.02652E+03 -1.43838E+04
  1.42561E+04 -9.47345E+03  2.02117E+04  4.51456E+03  1.33932E+04  1.22119E+04  3.54272E+02  2.26649E+04
 -6.76634E+03  1.11448E+04 -1.09586E+04  5.30675E+03 -6.55754E+03  4.33449E+03  2.27882E+02 -1.80281E+03
 -2.27240E+02 -2.61957E+02 -5.07149E+03 -2.59929E+03 -6.67014E+03 -2.54719E+03 -1.20228E+04  8.40397E+02
 -7.95289E+03 -7.08541E+03 -9.57903E+01 -8.67993E+03  1.20938E+04 -8.50564E+03  1.28028E+04 -2.57052E+03
  1.42313E+04  1.00540E+04  6.93254E+03  1.18784E+04 -3.79026E+03  1.17575E+04 -5.87681E+03  6.62045E+03
 -1.11951E+04 -2.06183E+03 -1.17217E+04 -7.92118E+03 -4.36667E+03 -1.78682E+04  7.97232E+03 -1.26131E+04
  7.51446E+03  3.32341E+03  5.03808E+03 -1.76393E+03 -1.75519E+02  7.14429E+03  9.57295E+02  1.74791E+02
  4.62147E+03 -1.62824E+03  4.31249E+03  2.02639E+03  4.89550E+03 -6.78594E+02  6.93640E+03  8.47972E+03
 -1.08004E+03  1.38118E+04 -6.28050E+03  1.23334E+04 -1.87107E+04  1.16954E+03 -1.34120E+04 -2.57594E+02
 -5.84353E+03 -1.53932E+04  3.54023E+03 -1.36301E+04  8.48905E+03 -1.05222E+04  1.62333E+04 -1.69638E+03
  1.42663E+04  9.18830E+03  5.35735E+03  7.41338E+03 -1.00997E+04  4.61941E+03 -6.86994E+03 -3.27152E+03
 -7.02809E+03 -2.36227E+03  8.43086E+03 -4.39243E+03  7.79819E+03 -7.77105E+03  7.12640E+03  5.88284E+03
  3.07839E+03 -7.68694E+02 -1.84961E+03  3.64252E+03 -1.66762E+02  2.82091E+03  5.49964E+03  6.76935E+03
  5.35112E+03  5.61294E+03 -1.54812E+03  6.12730E+03  2.10344E+03  1.05720E+04 -6.14828E+03  1.12947E+04
 -3.63273E+03  9.71637E+03 -5.19330E+03 -3.23852E+03 -1.46763E+04 -2.65902E+03  1.89804E+03 -6.11766E+03
  2.09962E+03 -4.50259E+03  1.03377E+04 -3.31892E+03  1.00599E+04  6.71434E+03  1.95359E+03  3.76579E+03
 -8.33718E+03 -1.56639E+02 -9.36268E+03 -7.72540E+03 -1.38004E+03 -8.97212E+03  5.52258E+03 -9.64465E+03
  1.09282E+03 -8.76731E+03  2.33964E+03  1.27530E+03  1.01718E+03  1.86069E+03  1.54509E+03  3.73052E+03
 -7.19798E+02 -1.72000E+03 -2.45586E+03 -4.92625E+02 -3.47531E+02 -4.66863E+03  1.22027E+03  8.45903E+02
  1.18402E+04 -4.11545E+03  9.48411E+03  1.13629E+04  5.03399E+03  9.27840E+03 -1.15841E+03  1.23695E+04
 -8.42389E+03  2.14198E+02 -2.19905E+03 -4.89600E+03 -7.71380E+03 -8.79312E+03 -5.60693E+03 -3.23108E+03
  6.98953E+03  3.11828E+03  3.67968E+03  8.82903E+02 -5.28571E+03  2.71719E+03 -4.88506E+03  8.01055E+03
 -3.41804E+03  3.19586E+03 -1.21395E+03 -3.44964E+02  7.10231E+02  4.09811E+03 -2.13374E+03  4.99503E+03
 -3.87949E+03  2.73248E+03 -2.41153E+03  6.96166E+03 -4.45239E+03 -1.78170E+03 -6.80267E+03 -6.68150E+03
 -5.76619E+03 -1.99509E+04 -3.99536E+03 -1.49749E+04  1.38339E+04 -6.35389E+03  1.29336E+04 -3.89745E+03
  1.41263E+04 -1.95473E+03  8.61932E+03  1.41975E+04  4.13710E+03  8.83374E+03 -5.18888E+03 -7.90806E+02
 -3.37576E+03  1.01959E+03 -5.46189E+03  1.41831E+03  3.49049E+03 -5.97083E+03  4.21393E+03  3.83363E+03
 -2.24474E+03  2.10955E+03 -1.47677E+03  1.92732E+03 -4.88869E+02 -5.89217E+03 -6.85692E+02 -4.65787E+03
  4.01775E+03 -3.20411E+03  3.05732E+03 -4.37886E+03  2.36090E+03  3.20492E+03  4.83231E+03  4.70894E+03
 -1.38142E+04  3.45119E+03 -1.15010E+04  2.18026E+03 -1.20764E+04 -1.87865E+03 -8.36299E+03 -7.01462E+03
 -1.43564E+03 -3.27845E+03  6.01809E+02 -1.09285E+04  5.18526E+03 -7.61067E+03  8.49211E+03 -2.89497E+03
  8.17574E+02  1.00744E+03  3.92628E+03  1.74437E+03 -1.43952E+03 -2.34941E+03  9.37492E+02  2.34512E+03
  2.43089E+03  3.03591E+03  2.29334E+03 -1.84003E+03  8.19041E+02 -5.10407E+03 -6.47940E+03  3.82376E+03
 -4.36269E+03  3.92836E+03 -5.92682E+03 -8.31972E+02 -9.26699E+03 -2.58401E+03 -5.46949E+03 -7.42406E+03
  6.07480E+03 -6.22227E+03  4.51330E+03 -7.16006E+03  6.57897E+03 -1.89664E+03  3.76039E+03  1.28366E+03
  2.34748E+03  2.34039E+03 -5.58322E+03  4.94019E+02 -4.52813E+03  1.40323E+03 -2.93621E+03  2.61066E+03
  5.31755E+03 -6.92083E+02 -7.19868E+03 -3.78261E+03 -4.27429E+02  7.15701E+01 -6.58849E+03  1.27076E+03
 -5.13597E+03 -7.22199E+03 -4.49507E+03 -4.63837E+03  7.40146E+03 -9.24902E+03  1.14509E+04 -2.05106E+03
  9.87136E+03  2.38703E+03 -4.53790E+02  3.14508E+03 -1.33769E+03  5.64175E+03  4.28010E+03 -8.88161E+02
