 $NMID ID='MM_0lb_SNR50_11hz_g45_38.RAW', FMTDAT='(8E13.5)'
 TRAMP=1., VOLUME=1. $END
  3.04328E+05 -3.57964E+03  3.33922E+05  2.53574E+05  8.35150E+04  3.35998E+05 -1.26696E+05  2.56338E+05
 -1.90603E+05  8.45697E+04 -1.04911E+05 -3.06690E+04  6.59875E+02 -5.03850E+04  4.59460E+04  2.33949E+03
  3.49841E+04  5.13083E+04 -1.93786E+04  7.64512E+04 -5.77849E+04  6.65473E+04 -8.58479E+04  3.86956E+04
 -7.78497E+04 -1.41517E+04 -5.53282E+04 -5.51898E+04 -1.24873E+04 -7.07179E+04  2.87014E+04 -4.83978E+04
  3.93773E+04  1.24772E+03  2.06624E+04  5.25032E+04 -3.34565E+04  5.13160E+04 -6.86293E+04 -3.46239E+03
 -5.21649E+04 -5.45833E+04 -7.57274E+03 -8.26141E+04  3.62023E+04 -5.46030E+04  5.37820E+04 -1.95695E+04
  4.73572E+04  1.37075E+04  2.82467E+04  2.55303E+04  2.12780E+04  2.95969E+04 -5.03469E+03  2.76572E+04
 -2.42913E+04  1.14725E+04 -1.76973E+04 -5.51784E+03  6.13159E+03 -5.73619E+03  1.96485E+04  1.12544E+04
  1.18898E+03  3.89845E+04 -3.71892E+04  3.18893E+04 -6.62676E+04 -6.12553E+02 -5.89405E+04 -4.65171E+04
 -1.22860E+04 -6.71439E+04  4.59213E+04 -4.04930E+04  5.64013E+04  3.33696E+01  3.25893E+04  3.86847E+04
 -7.82838E+03  4.06639E+04 -3.06553E+04  1.97698E+04 -3.43914E+04 -7.94015E+03 -2.46231E+04 -1.13406E+04
 -5.63712E+03 -1.76671E+04 -2.06566E+03 -1.87621E+04  2.49280E+03 -2.33686E+04  1.61907E+04 -1.56081E+04
  1.18210E+04  8.79162E+03 -6.54609E+03  1.08158E+04 -1.91478E+04  8.88384E+02 -7.37229E+03 -3.94797E+04
  2.46451E+04 -5.02315E+04  4.71406E+04 -2.19062E+04  5.01773E+04  1.83423E+04  1.82346E+04  4.77180E+04
 -1.69738E+04  3.65227E+04 -2.48916E+04  6.23944E+02 -1.05857E+04 -3.06285E+04  2.35459E+04 -3.44708E+04
  4.18381E+04 -6.95542E+03  4.07848E+04  2.58532E+04  2.34018E+04  4.86820E+04 -7.67234E+03  5.62741E+04
 -3.10556E+04  3.48070E+04 -4.35186E+04  1.24838E+04 -4.39777E+04 -2.16205E+04 -2.36341E+04 -4.13379E+04
  9.46896E+03 -4.42327E+04  3.52447E+04 -1.25491E+04  3.13715E+04  9.25908E+03  3.70089E+02  1.97801E+04
 -1.59997E+04  9.22939E+03 -9.78224E+03 -6.90333E+03  3.19118E+03 -8.81386E+03  2.26489E+04  2.34419E+02
  1.13266E+04  3.00200E+04 -6.72608E+03  2.39466E+04 -2.36878E+04  1.39228E+04 -2.93798E+04 -4.33446E+03
 -1.98311E+04 -1.37814E+04 -1.00919E+04 -2.68453E+04  3.54166E+03 -2.09053E+04  1.44391E+04 -2.14524E+04
  2.73750E+04 -1.58922E+04  3.05597E+04  7.40311E+03  2.57471E+04  1.91282E+04  2.03023E+03  3.80704E+04
 -2.14610E+04  3.42107E+04 -2.94050E+04  1.61150E+04 -2.42747E+04 -7.91928E+03 -4.28906E+03 -9.44948E+03
  6.01745E+03 -1.72880E+03 -6.42068E+03  1.17420E+04 -1.49431E+04  1.72218E+03 -1.61567E+04 -6.98747E+03
 -5.78068E+03 -2.03172E+04  1.35982E+04 -2.03728E+04  1.16394E+04 -1.84295E+04  2.36425E+04  2.60182E+03
  1.07999E+04  1.45241E+04  1.33078E+03  1.85716E+04 -1.71474E+04  1.02996E+04 -1.70942E+04 -9.56717E+03
 -2.05942E+04 -1.88540E+04 -3.80811E+03 -2.48946E+04  7.01630E+03 -1.68319E+04  1.91598E+04 -1.31540E+04
  1.68342E+04  5.75586E+02  1.45187E+04  2.26716E+03  8.92700E+03  3.23601E+02  1.13891E+04 -4.40427E+03
  2.03853E+04  7.76016E+03  2.27365E+04  1.55711E+04  1.12061E+04  3.77557E+04  5.69252E+02  4.45611E+04
 -1.91628E+04  2.82674E+04 -3.03339E+04  1.66662E+04 -3.92277E+04 -5.45655E+02 -2.93638E+04 -2.74068E+04
 -9.53819E+03 -3.22279E+04  6.48726E+03 -3.24336E+04  2.60683E+04 -1.47176E+04  2.12568E+04  1.20487E+04
  4.44718E+03  1.50071E+04 -1.03944E+04  1.33454E+04 -1.55715E+04 -1.75188E+03 -1.48712E+04 -2.58590E+03
 -2.59636E+03 -1.65849E+04  7.60763E+03 -1.30462E+04  1.54989E+04 -1.74162E+03 -8.53297E+02  1.08658E+04
 -6.15671E+03  1.12328E+04 -1.12629E+03 -3.86726E+03  2.27762E+03 -1.16468E+04  1.08089E+04 -2.22252E+04
  1.74658E+04 -6.94158E+03  1.58616E+04  1.27095E+03  2.05458E+04  2.00530E+04  4.87569E+03  3.07918E+04
 -8.10768E+03  1.86913E+04 -1.18597E+04  1.45943E+04 -2.37617E+04  3.19489E+03 -1.59590E+04 -3.10283E+03
 -1.23260E+04 -6.67370E+03  1.64660E+02 -9.82847E+02  4.39941E+03 -2.17138E+03 -7.63047E+03  3.86838E+03
 -1.36669E+04 -1.09679E+03 -1.12379E+04 -3.96038E+03 -6.90378E+03 -1.66573E+04  2.47897E+03 -1.16436E+04
  1.29263E+04 -7.31233E+03  8.59606E+03  3.56031E+03 -1.33377E+02  2.79688E+03 -6.54276E+03  2.50789E+03
 -1.15099E+03 -8.37151E+03 -1.27886E+03 -1.49562E+04 -2.86916E+02 -1.14909E+04  1.91458E+04 -9.99863E+03
  1.93327E+04  8.25698E+03  1.86614E+04  1.45598E+04  3.58284E+02  1.02008E+04 -7.37690E+03  1.32183E+04
 -1.18309E+04  6.42009E+03 -8.15825E+03 -7.48462E+03  3.28281E+03 -1.77013E+02  5.27154E+03 -8.37344E+02
  1.05803E+04  7.39283E+03 -1.81154E+03  1.00621E+04 -7.39445E+03  1.56718E+04 -1.54132E+04  6.49523E+03
 -1.19711E+04 -4.26187E+03 -1.17437E+03 -9.60696E+03  1.06141E+04 -2.52578E+02  9.83409E+03  2.01623E+03
  8.62918E+02  4.17918E+03 -6.18425E+03  1.22780E+04 -1.36690E+04  5.70208E+03 -9.03003E+03 -2.84292E+03
 -7.28212E+03 -1.43475E+04  2.45495E+03 -1.77133E+04  8.49739E+03 -1.20018E+04  1.92408E+04  4.16784E+03
  7.41478E+03  1.29217E+04  3.44579E+03  1.66648E+04 -8.96186E+03  2.60562E+03 -6.54785E+03  1.04139E+03
 -1.15602E+04 -4.89382E+03 -1.57445E+03 -9.28605E+03  7.23378E+03 -1.00915E+04  6.85879E+03 -2.47733E+03
  4.05971E+03  2.04721E+02 -1.35814E+03  1.00056E+03 -3.81941E+03 -1.99655E+03  1.29972E+03 -4.57042E+03
  9.33385E+03 -2.71109E+03  8.35552E+03  2.47413E+03  1.19939E+04  6.85076E+03  5.43410E+03  1.80066E+04
 -7.37331E+03  2.35766E+04 -1.35923E+04  2.18571E+04 -1.83899E+04  7.63800E+02 -1.35800E+04 -7.38695E+03
 -8.99721E+03 -1.82763E+03  5.52543E+03 -1.03190E+04  3.16454E+03 -8.65168E+03  5.97954E+03 -1.03112E+04
  4.08015E+03 -1.08850E+04  1.67025E+03 -3.66764E+03  6.86036E+03 -5.85901E+03  9.53578E+03  8.53843E+02
  1.48984E+04  3.17930E+03  1.23019E+04  6.69101E+03 -1.86578E+01  9.32076E+03 -5.95581E+03  8.10161E+03
 -1.36027E+04 -1.62081E+03 -3.03696E+03 -1.08541E+04 -1.76063E+03 -1.41395E+04  8.61851E+03 -1.04579E+04
  9.90698E+03 -2.25216E+03  1.66962E+04  3.18832E+03  1.26541E+04  5.36282E+03  3.80133E+03  1.69554E+04
 -5.53043E+03  1.15493E+04 -7.24433E+03  3.63088E+03 -3.43713E+03 -5.07693E+03  7.23290E+02 -1.27723E+03
  1.36643E+03 -1.06852E+03 -1.33628E+03  6.72836E+03 -1.06322E+04  3.56059E+03 -1.97583E+03 -4.25018E+03
 -3.82471E+03 -1.36814E+04  1.65653E+03 -1.45273E+04  7.94405E+03 -1.14521E+04  1.24751E+04 -8.87378E+02
  1.27480E+04  5.98012E+03  7.64993E+03  1.81278E+04 -6.36343E+03  8.92619E+03 -9.03866E+03  8.21542E+03
 -1.20097E+04 -1.83421E+03 -9.94302E+03 -9.98924E+03 -4.63583E+03 -7.34503E+03  6.54503E+03 -1.04444E+04
  1.09219E+04 -2.03024E+03  3.86383E+03  3.18072E+03  3.81764E+03  9.92628E+03 -6.37468E+02 -1.61038E+03
  2.51738E+03 -4.04937E+03  4.69562E+03 -6.26728E+02  3.47419E+03  3.33417E+03  1.21281E+03  5.09022E+03
  1.35592E+03  8.97352E+03 -7.52089E+03  1.09270E+04 -1.42147E+04 -6.14841E+03 -7.40651E+03 -3.16913E+03
  1.77982E+03 -1.11642E+04  2.18179E+03 -1.16344E+04  6.34610E+03 -8.81992E+03  1.03388E+04  7.22843E+02
  9.47114E+03  6.05679E+03  3.64004E+03  3.12960E+03 -5.92309E+03  1.61504E+03 -5.68249E+03 -1.64279E+02
 -5.12578E+02 -4.00345E+03  1.04117E+04 -4.74448E+02  3.18193E+03 -3.41156E+03  4.45626E+03  2.83200E+03
  1.29056E+04  5.59657E+03  2.44433E+03  6.44823E+02  1.11395E+03  3.23719E+03  4.31059E+03 -2.78605E+02
 -1.61615E+03 -2.92971E+02  3.91020E+03  3.40377E+03  2.26916E+03 -2.22186E+03 -4.05817E+03  5.40772E+03
  1.19859E+02  7.54688E+03 -5.02114E+03  2.23527E+03 -5.31284E+03 -5.46744E+03 -4.37598E+03 -5.58763E+03
  7.56159E+02 -1.09991E+03  1.52542E+03 -4.01826E+03  1.11431E+03 -9.80285E+02  3.01176E+03  3.02960E+03
 -1.49506E+03  9.57562E+02 -2.43834E+02 -4.95504E+03 -2.15417E+03 -5.23939E+03  7.80287E+03 -6.98974E+03
  6.68490E+03  5.16660E+03  1.51854E+03 -2.63884E+03  7.72561E+03  5.68955E+03 -3.09891E+03  4.90411E+02
 -5.85797E+03 -8.06160E+02 -1.83402E+03 -2.42635E+03  3.26493E+03 -4.63386E+03 -1.04599E+03 -2.91864E+03
  9.45064E+02 -5.08633E+03 -5.75796E+01  5.28674E+03  5.19013E+03  7.38692E+03  2.20195E+03  2.53139E+03
 -5.78838E+03  7.54199E+00 -1.49500E+03  2.55475E+03 -2.72452E+03 -3.14750E+03  9.96208E+02 -4.22624E+03
 -3.23304E+02 -6.66859E+03  6.25791E+03 -2.68582E+03 -2.08558E+03  4.90862E+03 -1.31217E+03  4.16018E+03
  4.62786E+03  4.96480E+03 -1.18182E+03  3.20896E+03 -2.08336E+03 -1.38499E+03 -1.37652E+03  2.79506E+03
  1.63906E+03  6.47967E+03 -7.80549E+02  5.05436E+02 -1.72458E+03  1.29586E+03 -4.23821E+03 -1.18504E+03
 -7.04637E+03 -9.80917E+03 -4.15443E+03 -1.12047E+04  7.30225E+03 -5.54338E+03  1.52089E+04 -1.11962E+04
  8.76419E+03  3.72624E+03  7.44169E+03  7.40228E+03  1.00164E+03  8.11576E+03 -4.89150E+03  3.36060E+03
 -8.13693E+03  4.13168E+03 -9.69221E+02 -1.52770E+03  2.16319E+03  1.89733E+03 -6.92595E+02  1.90506E+03
 -2.09898E+03  1.50534E+03 -3.64936E+03 -2.95071E+03 -2.47541E+02  2.48187E+03 -2.22700E+03  2.01718E+01
  4.87306E+03 -5.44587E+03  1.05275E+03 -4.95463E+03  7.84342E+03  2.41568E+03  9.96127E+01  1.00644E+04
 -1.06755E+03  8.70769E+03 -1.04917E+04  5.26917E+03 -7.96172E+03  8.50029E+02 -5.23363E+03 -3.29748E+03
  1.14808E+03 -9.33278E+03  7.36745E+03 -8.55213E+03  4.80874E+03  7.96564E+02  1.50692E+03  2.31648E+03
  2.60352E+03  5.07648E+03  1.00332E+03  3.07669E+03 -1.64020E+03 -7.67853E+02 -7.06037E+02 -5.72531E+02
 -2.38242E+03 -2.88061E+03  3.29064E+03  1.83913E+03  1.38222E+03 -3.27912E+03 -3.18818E+03  1.30285E+03
  4.37294E+02  7.55738E+03 -5.81918E+03 -2.26417E+02 -7.89856E+03 -5.39346E+03 -3.29290E+02 -5.98317E+03
  3.20094E+03 -8.31550E+03  1.11031E+04 -1.94704E+03  4.49475E+03  2.29906E+02  3.69260E+03  7.52113E+03
 -1.01236E+03 -4.16776E+02 -2.19003E+02  2.43873E+03  3.68886E+03  8.74760E+01 -4.59845E+03  6.24594E+03
 -1.47841E+03 -1.43931E+03  3.88201E+03  7.24029E+02 -3.54522E+03  3.74861E+03 -5.87674E+03  1.28963E+03
 -5.53607E+03 -1.36617E+03 -4.04938E+03 -6.91791E+03 -2.27615E+03 -4.25765E+03  1.55264E+03 -4.02278E+03
  4.80829E+03 -1.00968E+03  2.19586E+03  5.02258E+02  4.66785E+03  4.08498E+03 -4.92967E+03  5.05334E+03
