 $NMID ID='MM_0lb_SNR50_17hz_g60_17.RAW', FMTDAT='(8E13.5)'
 TRAMP=1., VOLUME=1. $END
  3.07747E+05 -3.99390E+03  3.37269E+05  2.51972E+05  7.83391E+04  3.38592E+05 -1.32176E+05  2.56391E+05
 -1.89551E+05  8.42042E+04 -1.11995E+05 -3.13886E+04 -1.36491E+03 -4.86164E+04  5.28506E+04  4.10639E+03
  3.15030E+04  5.37758E+04 -1.56912E+04  7.74444E+04 -6.30867E+04  6.32432E+04 -8.37802E+04  3.47206E+04
 -8.14427E+04 -1.03322E+04 -5.71324E+04 -5.12589E+04 -1.12085E+04 -6.46495E+04  2.94963E+04 -4.39029E+04
  3.83160E+04 -4.09639E+02  1.65842E+04  4.38272E+04 -3.11171E+04  4.77433E+04 -6.41311E+04  1.81407E+02
 -5.82351E+04 -5.59762E+04 -4.91619E+03 -7.75783E+04  2.88634E+04 -5.13400E+04  4.54110E+04 -2.08473E+04
  3.93985E+04  1.26096E+04  3.42479E+04  2.03545E+04  1.81521E+04  2.61863E+04 -4.84392E+03  2.75366E+04
 -2.05449E+04  7.55644E+03 -1.95907E+04 -2.25099E+03  7.47909E+03 -1.11325E+04  2.01517E+04  1.13693E+04
  5.78527E+03  3.93567E+04 -2.67031E+04  3.26022E+04 -6.58470E+04  3.92974E+03 -5.39878E+04 -4.57675E+04
 -1.41843E+04 -6.45125E+04  3.83785E+04 -4.55704E+04  5.70535E+04 -1.45714E+03  3.25215E+04  3.26870E+04
 -7.88316E+03  3.41740E+04 -3.10781E+04  1.30829E+04 -3.31746E+04 -5.24704E+03 -1.37247E+04 -9.67261E+03
 -7.77742E+03 -1.93616E+04  3.11653E+03 -1.86226E+04  6.96746E+03 -2.36166E+04  1.68707E+04 -1.26401E+04
  9.84539E+03 -1.63385E+01 -9.18644E+03  9.20480E+03 -2.11577E+04 -3.08146E+03 -1.04552E+04 -2.77110E+04
  2.45899E+04 -4.34302E+04  4.75717E+04 -1.91661E+04  4.58595E+04  1.80555E+04  1.77206E+04  4.42725E+04
 -1.41391E+04  3.63666E+04 -1.87191E+04  3.36678E+03 -8.02432E+03 -2.77574E+04  1.64970E+04 -3.30310E+04
  3.64364E+04 -1.16578E+04  3.06893E+04  2.40519E+04  1.71300E+04  4.44379E+04 -1.08399E+04  5.15370E+04
 -2.82960E+04  3.33230E+04 -4.35903E+04  1.06815E+04 -3.99098E+04 -1.10610E+04 -1.98568E+04 -3.79323E+04
  6.77073E+03 -3.62251E+04  3.05319E+04 -1.46058E+04  3.10555E+04  8.30025E+03  6.00470E+03  2.05035E+04
 -1.04175E+04  7.59838E+03 -7.83156E+03 -9.25970E+03  7.31566E+03 -1.11321E+04  1.51765E+04  7.24637E+03
  7.81031E+03  2.01268E+04 -8.65475E+03  1.76141E+04 -2.15009E+04  1.18590E+04 -2.88479E+04 -4.71228E+03
 -2.11428E+04 -1.92847E+04 -6.50835E+03 -1.77676E+04  4.39476E+03 -1.57355E+04  1.70730E+04 -1.71901E+04
  2.68741E+04 -1.58896E+04  3.21187E+04  7.24804E+02  2.40781E+04  1.72853E+04  4.18022E+03  3.31445E+04
 -1.68713E+04  2.65346E+04 -2.61097E+04  1.07879E+04 -1.87241E+04 -8.62685E+03 -3.21128E+03 -1.15841E+04
 -1.24511E+03 -7.08300E+03 -1.40478E+03  4.51852E+03 -1.61131E+04  6.53228E+03 -1.63443E+04 -2.92784E+03
 -6.82479E+03 -1.82028E+04  5.10668E+03 -1.98555E+04  1.42183E+04 -1.62286E+04  1.78557E+04 -5.45067E+02
  7.16770E+03  1.57527E+04 -1.04436E+02  1.49796E+04 -1.20719E+04  1.31518E+04 -2.03848E+04 -3.22862E+03
 -1.54944E+04 -1.89052E+04 -4.71225E+03 -1.96360E+04  9.93595E+03 -1.38742E+04  1.70199E+04 -9.64182E+03
  1.29776E+04 -2.60923E+03  1.16761E+04  3.74243E+03  9.64698E+03  5.44158E+03  8.29381E+03 -7.67696E+02
  1.36147E+04  1.31232E+03  1.80704E+04  1.33304E+04  1.21535E+04  2.67431E+04 -3.54560E+03  3.14033E+04
 -2.32214E+04  2.40169E+04 -2.72544E+04  1.19837E+04 -3.23806E+04 -2.15169E+03 -2.71205E+04 -1.66671E+04
 -1.16897E+04 -2.34603E+04  6.39940E+03 -1.77165E+04  1.89950E+04 -1.38907E+04  1.70263E+04  9.16190E+03
  2.08501E+03  1.10649E+04 -4.75431E+03  1.33617E+04 -1.20544E+04  7.06769E+02 -1.34308E+04 -1.18282E+04
  1.41039E+03 -1.21811E+04  9.57988E+03 -8.71496E+03  8.28823E+03 -1.59666E+03 -9.57494E+02  5.60459E+03
 -7.10456E+03  3.98756E+03 -4.81847E+03  1.03501E+03 -5.59477E+02 -1.41574E+04  3.97335E+03 -1.31605E+04
  1.41878E+04 -8.04999E+03  1.91427E+04 -1.37513E+03  1.11878E+04  1.29610E+04  1.56034E+03  1.46964E+04
 -2.96067E+02  2.18614E+04 -7.06912E+03  1.34397E+04 -1.58253E+04  1.52592E+02 -1.41691E+04 -2.26552E+03
 -1.55669E+03 -1.08908E+03  3.38664E+03  1.70481E+03 -3.55889E+03  8.16575E+02 -2.98053E+03 -1.49913E+03
 -9.60584E+03  4.88714E+02 -1.38258E+04 -8.67158E+03 -4.63781E+03 -1.24023E+04  8.72635E+03 -1.10944E+04
  7.95103E+03 -5.91153E+03  7.00442E+03  3.19588E+03  5.05746E+03  5.00497E+02 -6.17645E+03  2.42482E+03
 -5.21923E+03 -4.80095E+03  2.99228E+03 -7.27022E+03  4.19036E+03 -9.90148E+03  1.21179E+04 -4.42464E+03
  1.53870E+04  6.44784E+03  7.10761E+03  8.78123E+03  2.11244E+03  1.29497E+04 -4.50710E+03  3.61603E+03
 -6.43259E+03  3.01864E+03 -4.93288E+03 -4.35408E+02  8.77994E+02 -2.50487E+03  6.81634E+03 -1.56055E+03
  3.68711E+03  4.99546E+03  1.00608E+03  1.23499E+04 -8.38365E+03  1.14167E+04 -9.98328E+03  3.41970E+03
 -2.92522E+03 -8.42977E+03 -1.61646E+02 -5.46596E+03  2.42333E+03 -4.20742E+03  5.94874E+03 -2.04631E+03
  5.45583E+02  6.16706E+03 -3.37311E+03  9.33466E+03 -9.91546E+02 -2.22453E+03 -4.53592E+03  1.79007E+03
 -5.21266E+03 -5.82617E+03  9.87211E+01 -1.16067E+04  9.82087E+03 -2.32399E+03  8.29139E+03  1.95308E+03
  3.00183E+03  8.19986E+03  4.57498E+02  5.58264E+03 -6.42701E+03  6.47780E+03 -2.75138E+03  2.43634E+03
 -7.29735E+03 -5.84037E+03  1.22208E+03 -9.57697E+03  2.42272E+03 -4.48451E+03  6.69114E+03 -1.94307E+03
  3.06760E+03  1.66990E+03  3.50657E+03  5.05175E+03 -1.67651E+03 -2.17415E+03 -1.43723E+02 -3.91439E+03
  3.63672E+03 -2.88561E+03  9.86369E+03 -8.16087E+02  9.54457E+03  3.46600E+03  1.28497E+04  6.56406E+03
 -2.70346E+03  9.23627E+03 -4.97709E+03  8.98547E+03 -6.15508E+03  3.92295E+03 -5.94699E+03 -3.56456E+03
 -1.22711E+03 -9.97194E+03  5.26470E+03 -7.10567E+03 -8.01931E+02 -5.34118E+02  8.80971E+02 -4.13796E+03
 -6.36016E+02 -2.65736E+03  2.22995E+03 -4.38599E+03  3.41350E+03  1.05060E+03  7.70756E+03  4.23479E+03
  6.48340E+03  1.14526E+03  2.01230E+03  6.60180E+03 -7.20326E+03  5.79035E+03 -1.27237E+03  4.48266E+03
 -7.63963E+03 -1.24974E+03 -2.99748E+03 -5.46328E+03 -2.96746E+02 -1.09627E+04  6.15479E+03 -7.22620E+03
  3.37791E+03 -4.31142E+03  9.00159E+03 -4.49405E+03  9.74439E+03  4.71283E+03  2.90585E+03  8.64084E+03
  5.94109E+02  2.24174E+03 -4.89199E+03  5.57593E+03 -3.21631E+03 -2.74155E+03  2.52786E+03  9.36918E+01
 -3.56168E+02  4.26654E+03 -3.08516E+03  3.75847E+03 -2.22391E+03 -2.69729E+02 -4.42374E+03  2.97419E+03
 -3.87902E+03 -6.93566E+03 -1.08550E+02 -4.06687E+03  3.74191E+03 -7.90578E+03  7.50052E+03 -4.15000E+03
  3.99026E+03  1.34636E+03  2.10086E+03  4.98275E+03 -1.58613E+03  9.28599E+02 -6.44308E+03  7.74813E+02
 -2.69523E+03 -5.11535E+02 -6.80867E+03 -3.35316E+03 -4.76319E+02 -6.49923E+03 -6.98236E+02 -4.14671E+03
 -1.86420E+03 -2.76343E+03  3.37447E+03  9.34049E+02 -1.76305E+03  1.91089E+03 -1.83570E+03  5.05097E+03
  3.59156E+03  2.45233E+03  4.14959E+03  3.39751E+03  1.32238E+03  7.41940E+02  4.68147E+03  3.80461E+02
  4.63092E+02  6.05358E+03 -3.10520E+03  5.75558E+03 -7.01502E+03  3.63297E+03  1.74889E+02  2.97483E+03
  1.09331E+03 -1.74396E+03  1.37713E+03 -7.03886E+03  6.58987E+02 -2.11563E+03  6.90454E+01 -6.59032E+03
  6.16701E+03  1.40065E+03 -2.35671E+02  1.89864E+03 -2.54430E+03  4.18104E+03 -2.61570E+03  3.15257E+03
 -6.08648E+02 -1.09165E+03  6.75385E+03 -2.00275E+03  1.11865E+03 -1.11372E+03  3.34320E+02  2.81411E+03
  3.14848E+03  3.61856E+03  2.16752E+02 -2.91024E+03  1.45674E+02 -1.06008E+03 -1.38428E+03 -1.88096E+03
 -9.78414E+02 -4.15346E+02  3.48996E+03 -3.89356E+02  7.20028E+02  3.94851E+02  1.48484E+03  3.49851E+03
 -1.65941E+03  1.30196E+03 -2.10815E+03  2.28342E+03 -3.69079E+03  4.36240E+03  1.18401E+03 -9.21464E+02
 -5.08306E+02  1.11476E+03  3.12283E+02  1.78285E+03  7.47370E+02 -2.86727E+02 -2.70495E+03  1.67654E+03
 -3.26136E+03 -7.85739E+02 -1.41698E+03 -1.60084E+03 -2.79030E+03 -2.67704E+03 -7.20144E+03 -5.79756E+03
  3.63419E+03 -8.07513E+03 -1.43777E+03  2.95451E+03  1.19692E+03  5.34359E+03 -2.55095E+03 -1.35640E+03
 -6.79532E+03  3.17666E+03 -2.32750E+03 -3.70422E+03  1.28218E+03 -7.94690E+03  6.53344E+03 -3.25854E+03
  4.70776E+03  3.14728E+03  3.23943E+02  2.24998E+02  1.88949E+03  4.01257E+03 -6.10232E+03  1.26313E+03
 -2.55246E+03  4.90587E+03 -4.03221E+03 -3.33483E+02 -6.59089E+03 -8.77313E+02  2.47424E+03 -8.32158E+02
  2.82639E+03 -1.34499E+03  1.14134E+03  3.19880E+03  2.12160E+03  3.26036E+02 -5.88968E+02  2.20864E+03
  2.28541E+03 -7.43387E+01 -4.63483E+02 -2.32914E+02 -6.49803E+02 -9.81944E+02 -3.00531E+02 -1.52495E+03
 -3.88627E+03  2.43479E+03 -1.61275E+03 -3.83802E+03 -4.12001E+03  7.62276E+02 -3.40135E+03 -1.03104E+03
 -4.94855E+03 -3.97233E+03  4.05857E+03 -4.97906E+03  4.77207E+03 -3.81554E+03  3.80596E+03  1.17362E+03
  7.45721E+03 -1.97030E+02  6.96043E+02  8.75292E+03  2.24214E+02  4.03465E+02 -3.14724E+03  5.04722E+02
  3.75395E+03  3.01504E+03  2.06783E+03 -7.24074E+02 -3.03541E+02  5.72472E+02  3.71398E+02 -4.02495E+02
 -1.52296E+03 -3.15128E+03 -3.26869E+03 -2.91095E+03  6.85909E+03  3.75176E+03  1.15628E+03 -5.39874E+02
  6.48643E+02 -3.36417E+03  9.68538E+02  2.35496E+03  5.12650E+02 -9.11438E+02 -2.77822E+03  7.51543E+03
 -9.03012E+02  2.43309E+03 -7.74362E+02 -2.55340E+03 -2.94518E+03  7.64740E+02 -2.25974E+03  1.15803E+03
  1.14029E+03  8.36222E+02 -6.48832E+03 -1.61778E+03 -1.74049E+02 -1.42738E+03  7.78209E+02 -1.57959E+03
  5.01930E+03  1.89901E+03  1.04812E+03 -1.54935E+03 -5.82589E+02  4.83469E+02 -3.29507E+02  2.94470E+03
 -2.47889E+02  6.71458E+02 -3.47452E+03 -2.11207E+03 -2.05490E+03 -6.54718E+01  7.77856E+02  7.06685E+01
 -4.66248E+03  3.62168E+03  4.23996E+02 -8.94015E+02 -1.97445E+03 -3.21993E+03  5.31585E+02 -2.46454E+03
  5.03768E+02 -1.48291E+03  1.31820E+03 -1.48913E+03  7.76595E+02 -2.63280E+03  2.36401E+03  3.97970E+03
  5.33263E+02 -2.24175E+03 -1.45626E+03  1.92049E+03 -3.34480E+03 -2.25531E+03  6.20192E+03  1.85505E+03
 -1.98527E+03 -4.07244E+03 -2.13166E+02  3.25253E+03 -2.21918E+03  6.04965E+02 -5.33603E+03 -1.45081E+03
  1.91226E+03  2.12359E+03 -4.03051E+03  6.26625E+02 -1.02187E+03 -1.59161E+03 -1.35716E+03  2.76914E+03
 -1.24458E+03 -1.78704E+03 -2.58829E+03  3.25861E+03  2.82904E+03  1.42062E+03  2.67830E+03  3.38955E+02
