 $NMID ID='MM_0lb_SNR50_20hz_g50_34.RAW', FMTDAT='(8E13.5)'
 TRAMP=1., VOLUME=1. $END
  3.09240E+05  3.74968E+03  3.39247E+05  2.55167E+05  9.18720E+04  3.36492E+05 -1.30754E+05  2.48643E+05
 -1.90826E+05  8.22782E+04 -1.10482E+05 -3.36897E+04  3.54255E+03 -4.57543E+04  5.46350E+04  9.40132E+02
  3.62340E+04  4.86469E+04 -1.77055E+04  7.39934E+04 -6.14481E+04  6.07712E+04 -8.60246E+04  3.16227E+04
 -7.71446E+04 -1.36774E+04 -5.84237E+04 -4.64694E+04 -1.44331E+04 -6.71667E+04  2.03727E+04 -4.48770E+04
  4.19106E+04  5.93058E+03  1.41272E+04  4.72583E+04 -3.36804E+04  4.99926E+04 -6.63808E+04 -4.20716E+03
 -5.33654E+04 -5.79616E+04 -3.19864E+03 -7.25089E+04  3.24252E+04 -4.92428E+04  4.77253E+04 -2.15623E+04
  4.07397E+04  1.04724E+04  2.95625E+04  1.93874E+04  1.53573E+04  2.74283E+04 -2.31616E+03  2.69921E+04
 -2.07635E+04  1.07824E+04 -1.54260E+04 -1.91754E+03  8.31116E+02 -8.77102E+03  1.80796E+04  9.00613E+03
  8.57639E+03  3.04864E+04 -3.11485E+04  3.30501E+04 -5.85257E+04  7.23090E+02 -5.67290E+04 -4.44692E+04
 -1.70090E+04 -5.81875E+04  4.04047E+04 -4.41115E+04  5.47293E+04 -1.15924E+03  3.20191E+04  2.83270E+04
 -4.98843E+03  3.29415E+04 -2.56192E+04  1.59164E+04 -2.71760E+04 -3.16219E+03 -1.28961E+04 -8.02969E+03
 -4.02343E+03 -7.17518E+03  1.10640E+03 -1.29984E+04  9.35934E+03 -2.13070E+04  1.67016E+04 -1.20986E+04
  1.03414E+04  1.12066E+04 -5.26458E+03  1.16134E+04 -1.86659E+04  1.68422E+03 -6.57420E+03 -3.23598E+04
  1.84356E+04 -4.46473E+04  4.51301E+04 -1.98678E+04  4.02830E+04  1.46305E+04  1.44867E+04  3.85404E+04
 -1.29272E+04  3.45621E+04 -2.59351E+04  2.30181E+03 -9.80692E+03 -2.44236E+04  1.67759E+04 -3.57389E+04
  3.95829E+04 -7.42656E+03  2.88476E+04  2.05441E+04  1.65477E+04  3.98530E+04 -1.04434E+04  4.79819E+04
 -2.58678E+04  3.46910E+04 -3.41270E+04  9.36625E+03 -4.16060E+04 -1.51476E+04 -2.01711E+04 -3.52791E+04
  5.87416E+03 -3.32858E+04  3.03849E+04 -1.65531E+04  2.46195E+04  9.83471E+03  8.06542E+02  1.92795E+04
 -1.36831E+04  9.02535E+03 -5.34884E+03 -4.05839E+03  7.04252E+03 -7.00397E+03  1.83421E+04  5.97389E+03
  8.74103E+03  2.38256E+04 -4.06717E+03  2.46010E+04 -2.28369E+04  6.49778E+03 -2.44686E+04 -4.05416E+03
 -1.56962E+04 -1.35033E+04 -6.42451E+03 -1.33439E+04  1.51910E+03 -1.50140E+04  1.57001E+04 -9.61608E+03
  2.35929E+04 -1.47005E+04  2.34788E+04 -1.98352E+03  2.06327E+04  1.53821E+04  4.13930E+03  3.41505E+04
 -1.50619E+04  2.87617E+04 -2.48717E+04  1.08125E+04 -2.02774E+04 -1.46948E+04 -2.86321E+03 -1.26644E+04
  4.57165E+02 -6.53988E+03 -2.44302E+03  8.51357E+03 -1.15367E+04  5.69971E+03 -9.93461E+03 -3.95039E+03
 -8.65535E+03 -1.55245E+04  2.63737E+03 -2.15129E+04  7.36973E+03 -1.31269E+04  1.09198E+04 -3.33385E+02
  8.37632E+03  7.62900E+03 -1.78763E+03  1.08736E+04 -7.55799E+03  6.67622E+03 -1.39687E+04 -3.69122E+01
 -1.24292E+04 -1.07175E+04 -3.00577E+03 -1.72085E+04  8.71007E+03 -1.44310E+04  1.62161E+04 -5.86087E+03
  1.42803E+04 -9.11575E+01  7.12317E+03  3.96546E+03  2.68565E+03 -2.25364E+03  9.76768E+03  4.25981E+02
  1.47122E+04  1.65401E+03  1.08842E+04  1.29486E+04  8.63158E+03  2.42837E+04 -3.56076E+03  2.43414E+04
 -1.13714E+04  1.84807E+04 -2.39322E+04  4.96371E+03 -2.13544E+04  3.06867E+03 -2.16302E+04 -1.24960E+04
 -1.16059E+04 -1.63845E+04  4.84510E+03 -1.76204E+04  1.50436E+04 -7.65856E+03  1.14843E+04  3.92507E+03
  4.49379E+03  1.33195E+04 -5.95235E+03  8.92192E+03 -1.17769E+04  1.67644E+03 -7.38593E+03 -6.24085E+03
 -1.60882E+03 -1.13071E+04  1.67116E+03 -7.61024E+03  7.36152E+03 -7.49967E+02 -2.53177E+03  5.44446E+03
 -5.67819E+03 -1.62541E+03 -6.47741E+03 -5.69133E+03  5.91269E+03 -9.16117E+03  6.00265E+03 -1.00959E+04
  1.03581E+04 -1.39854E+03  1.04546E+04  3.59524E+03  1.03658E+04  6.76738E+03  3.28417E+03  1.03050E+04
 -3.79175E+02  1.45369E+04 -5.49571E+03  8.64907E+03 -1.02500E+04  1.42056E+02 -6.32338E+03 -2.99762E+03
 -3.94689E+03 -3.73427E+03 -4.04998E+03 -1.23055E+03 -2.07069E+03  1.24944E+03 -2.45593E+03  4.07745E+03
 -6.88537E+03  2.49243E+03 -6.30010E+03 -8.22028E+03 -5.65699E+03 -1.08325E+04  3.34583E+03 -4.34463E+03
  1.10115E+04 -2.73950E+03  7.10607E+03 -8.91393E+02 -5.32297E+02  2.30380E+03 -2.14081E+03  1.18195E+03
 -6.73021E+03 -3.40449E+03  9.87069E+02 -4.92031E+03  4.49527E+03 -6.19871E+03  1.13020E+04 -3.32794E+03
  1.11390E+04 -6.98286E+02  5.75826E+03  4.86164E+03  1.74055E+03  6.22816E+03 -5.29293E+03  8.66479E+03
 -8.25588E+03  3.15952E+03 -4.64201E+03  1.90361E+03  2.95886E+03 -6.03823E+02  5.89918E+03 -4.07755E+01
  3.99328E+03  4.39603E+03 -8.44545E+01  6.18800E+03 -4.35363E+03  6.52403E+03 -3.80261E+03  1.55004E+03
 -5.57062E+03 -3.33572E+03  1.50801E+03 -6.81825E+03 -2.97019E+01 -1.64974E+03  2.66356E+03  3.60233E+03
  2.27569E+03  4.18600E+02 -2.56403E+03  3.41422E+03 -3.25868E+03  3.11663E+03 -1.56384E+03  2.09048E+03
 -3.52014E+03 -5.90034E+02  5.11474E+02 -5.98610E+03  7.58316E+03 -5.14570E+03  5.55619E+03 -1.50988E+03
  5.60452E+03  2.33761E+03 -3.31698E+00  6.37110E+03 -3.63623E+03  5.32201E+03 -1.51559E+03  1.46821E+03
 -1.29604E+03 -5.51296E+03 -2.22546E+02 -3.33602E+03  1.17421E+03 -5.52133E+03  1.85946E+03 -6.46376E+03
  2.92446E+03 -1.06452E+03  1.60913E+03 -5.15012E+02 -4.56244E+02  1.96168E+03  8.78262E+02  1.26039E+03
  5.42003E+03  5.82202E+03  8.54716E+03 -3.82234E+03  3.28706E+03  1.96307E+02  2.77373E+03  3.74563E+03
 -1.93790E+02  2.89453E+03 -8.12734E+03  8.55885E+03 -7.98983E+03  3.72667E+02 -7.01396E+03 -3.42006E+03
 -1.83331E+03 -6.42807E+03 -1.04863E+03 -7.30538E+03  2.22401E+02 -3.80658E+03  7.71452E+02 -2.67250E+03
 -1.23929E+03 -6.41182E+03  4.37317E+03 -1.32955E+03  4.36962E+03  2.33995E+03  2.15352E+03 -2.48373E+03
  6.71425E+03  1.80403E+02 -3.44726E+02  5.05920E+03 -1.17272E+03  5.61874E+03 -2.04049E+03 -7.62579E+02
 -8.28769E+03 -2.16916E+03  1.36439E+03 -3.33289E+03  8.45994E+02 -2.64677E+03  3.88654E+02 -3.86432E+03
  3.73515E+03 -5.48859E+03  2.27126E+03  7.94460E+02  4.95894E+03  5.80165E+03  3.22146E+03  7.11550E+03
 -2.43708E+03  4.42278E+03 -5.49659E+03 -1.47975E+03 -5.60274E+02 -4.62777E+03 -4.69043E+03 -2.87310E+02
 -1.15933E+03  1.61987E+03 -2.71077E+03  2.35173E+03 -2.21622E+03  2.08471E+02 -4.02008E+03 -1.32862E+03
 -1.52248E+03 -9.74385E+02  1.04906E+03 -7.22152E+03  1.25814E+03 -2.78174E+03  7.04720E+03  4.06961E+02
  2.60375E+03 -1.50843E+03  1.36977E+03 -2.85369E+02 -1.49375E+03  5.35675E+03 -6.62612E+02 -2.04440E+02
 -1.49030E+03 -2.32684E+03 -5.83425E+03 -1.74172E+02 -1.42032E+03 -3.46115E+03  1.54917E+03 -3.53397E+03
  7.15146E+02 -2.53694E+03  7.57983E+02  1.93100E+03 -6.22466E+02  1.48168E+03  2.63851E+03 -1.19803E+03
 -1.42794E+03  2.98910E+02 -1.88242E+03 -9.11162E+02  2.19395E+03  5.47822E+03 -2.49435E+02  3.40927E+02
 -6.18187E+02  4.56062E+03 -5.00209E+03 -2.78765E+03 -4.12944E+03 -1.49305E+03 -8.81776E+03 -3.18976E+03
 -2.15029E+03 -3.79240E+02  2.43857E+03 -6.19092E+03  2.01052E+03 -5.73298E+03  6.88796E+03  2.93186E+03
 -5.15374E+03 -7.90765E+01  1.53606E+03  7.27994E+03  2.27094E+02  1.91444E+03 -3.44914E+03  1.65479E+03
 -2.61574E+03  1.44539E+03  6.60906E+03  3.80974E+03 -2.09113E+03 -1.90671E+03  9.53193E+02  2.98465E+03
 -1.38248E+03 -5.04108E+02 -1.08858E+03 -2.31950E+03  7.67299E+02  2.43407E+03  3.16773E+03  2.99840E+03
 -1.20287E+03 -1.10697E+02  2.40594E+03  1.82013E+03  1.88323E+02  6.23149E+03 -5.34210E+01  1.19091E+03
 -9.19185E+02  3.28788E+02 -4.77919E+03  1.98525E+03 -7.86166E+02 -4.48145E+03 -9.20165E+02  5.79930E+02
  6.74894E+03  3.56840E+03  7.33794E+02 -1.86067E+03  9.69437E+02 -5.19487E+02  4.87520E+03  7.14355E+02
 -5.12652E+03  9.14462E+02  7.33344E+01 -8.22234E+02 -1.93925E+02 -1.99194E+03  6.89668E+02 -3.65638E+03
  1.27998E+03 -9.79846E+02  4.20764E+03 -3.45869E+03  1.80740E+03 -2.06401E+03  3.02417E+03 -2.41070E+02
  3.05066E+03 -4.88354E+03 -1.74499E+03  1.20500E+03 -2.60394E+02 -1.76114E+03  3.57144E+03 -3.07702E+03
 -1.47083E+02 -2.10759E+03  4.23488E+03 -1.15052E+03  5.16265E+03  2.12273E+02  4.45412E+03  1.71357E+03
  2.01799E+02 -5.43696E+01 -4.18979E+03 -8.71147E+02  3.25357E+02 -1.08764E+03  5.62452E+02 -1.75816E+03
  1.58133E+03 -4.22274E+03  3.98618E+03 -1.16766E+03 -5.91001E+02  2.01684E+03 -5.59455E+02  1.49822E+03
 -3.14585E+03  4.57652E+03 -2.80716E+03  4.04075E+02  8.18340E+02 -1.45421E+02  2.37402E+03  1.14863E+03
  1.57170E+03 -2.63574E+01 -2.48432E+02  2.53855E+03 -1.23451E+03 -2.26290E+03  6.78597E+02 -4.97599E+03
 -3.42342E+03  5.41636E+02  2.63197E+02 -4.03689E+03 -2.10634E+01 -2.77159E+03 -1.15712E+03  2.79066E+03
  4.55928E+03 -1.58953E+03 -9.38252E+02  1.88642E+03 -5.53704E+02 -1.32239E+03 -4.23292E+02  4.63424E+02
 -2.83595E+03 -1.51842E+03  2.30521E+03 -1.55955E+03 -5.32790E+02 -1.32676E+02  2.24294E+03  6.58465E+02
  9.25213E+02  3.64076E+03 -4.39521E+03  6.93584E+02 -5.22782E+02 -5.79152E+02  1.18345E+03 -3.63498E+03
  5.45746E+03 -1.04552E+03 -1.31009E+03  6.58352E+02 -1.00032E+03  7.85194E+02 -2.11817E+02  8.43879E+02
 -2.61012E+03  2.49953E+03 -2.68792E+03  2.97658E+03 -1.21306E+03  2.39616E+03  3.39721E+03 -1.46271E+03
  2.21619E+03 -1.62878E+03 -2.30968E+03 -4.51162E+02  8.38146E+02 -1.15860E+03 -4.01077E+02 -1.43265E+03
  1.25183E+03 -4.25771E+03  2.89910E+03 -3.78729E+02 -3.97088E+03  7.50603E+02 -1.74493E+03 -7.66908E+02
 -3.01267E+03  8.06977E+02 -9.48680E+02 -3.39022E+03  9.93668E+01 -2.53630E+02 -8.07103E+02  1.22304E+03
  7.38961E+02 -1.78081E+03 -2.93813E+03  1.18707E+03  4.24312E+03  3.34145E+03  9.78235E+02 -4.64479E+03
  3.78373E+03  1.86421E+03 -8.19182E+02  2.99039E+03  5.19617E+02 -1.07210E+03  2.28198E+03  4.76552E+03
  4.84038E+03 -3.69778E+01  3.93858E+02 -1.37629E+03  2.38704E+01 -1.14387E+03  8.02659E+02  8.56596E+02
 -1.93247E+03 -4.76622E+03 -1.90866E+02  2.42448E+03  1.56641E+03 -4.48246E+02 -3.33567E+03 -1.18530E+03
  1.78716E+03 -1.72184E+03 -6.87940E+02 -6.45061E+02 -9.77431E+02  2.31813E+03 -1.14320E+03 -2.28827E+03
 -1.56034E+03 -8.49141E+02  1.00185E+03  2.75708E+03 -5.14878E+02  6.11208E+02 -4.82027E+02 -1.04540E+03
