 $NMID ID='MM_0lb_SNR50_19hz_g45_51.RAW', FMTDAT='(8E13.5)'
 TRAMP=1., VOLUME=1. $END
  3.09385E+05 -2.93992E+03  3.36701E+05  2.49216E+05  8.39811E+04  3.34485E+05 -1.34491E+05  2.50951E+05
 -1.90902E+05  8.34716E+04 -1.10932E+05 -3.48946E+04  1.68316E+03 -4.86242E+04  5.35291E+04  1.52880E+03
  3.47511E+04  5.35043E+04 -2.02971E+04  7.29988E+04 -6.12894E+04  6.40327E+04 -8.38928E+04  2.99618E+04
 -8.22023E+04 -1.18306E+04 -5.58797E+04 -4.87653E+04 -1.48363E+04 -6.72615E+04  3.04849E+04 -4.44043E+04
  3.66413E+04  6.77742E+03  1.47071E+04  4.64179E+04 -3.73640E+04  4.29003E+04 -6.63466E+04 -1.68082E+03
 -5.00933E+04 -5.31486E+04 -7.34298E+03 -7.55059E+04  3.30494E+04 -4.96495E+04  4.49261E+04 -1.60798E+04
  4.53346E+04  8.73927E+03  2.81311E+04  2.79361E+04  1.63150E+04  2.69680E+04 -4.77194E+03  2.75328E+04
 -2.43919E+04  1.27974E+04 -1.99233E+04 -8.42644E+03  2.63197E+03 -7.75320E+03  2.25845E+04  1.13557E+04
  1.28020E+04  3.23355E+04 -3.12582E+04  3.38172E+04 -6.29782E+04  2.86428E+02 -5.33145E+04 -3.90927E+04
 -1.27764E+04 -6.09544E+04  3.72927E+04 -4.08777E+04  5.31604E+04 -6.86805E+02  3.56997E+04  3.13946E+04
 -6.36041E+03  3.17553E+04 -2.87461E+04  1.21131E+04 -2.63007E+04 -3.64573E+03 -1.99243E+04 -8.31215E+03
 -9.58746E+03 -1.02040E+04 -6.46833E+03 -1.67188E+04  8.18451E+03 -2.18585E+04  1.64090E+04 -1.21742E+04
  1.56848E+04  4.47065E+03 -2.35958E+03  1.26530E+04 -2.04825E+04 -5.35209E+03 -7.81010E+03 -2.94995E+04
  1.83288E+04 -4.45046E+04  4.24632E+04 -2.07046E+04  4.36138E+04  1.79691E+04  1.56245E+04  4.42475E+04
 -1.25991E+04  2.70148E+04 -2.28961E+04  1.84913E+03 -3.67400E+03 -2.77278E+04  2.06720E+04 -3.14303E+04
  3.90361E+04 -7.27093E+03  3.34387E+04  2.29305E+04  1.17264E+04  4.38541E+04 -1.47522E+04  4.57606E+04
 -2.82495E+04  3.03356E+04 -3.68845E+04  7.65669E+03 -3.81938E+04 -1.45071E+04 -2.10620E+04 -3.56939E+04
  9.03440E+03 -3.15273E+04  2.74075E+04 -1.39240E+04  2.52566E+04  1.08883E+04  4.75112E+03  1.07626E+04
 -1.01949E+04  8.64339E+03 -8.85936E+03 -7.97008E+03  8.80219E+03 -1.08450E+04  1.61265E+04  6.29807E+03
  1.08591E+04  2.41348E+04 -8.22682E+03  2.14783E+04 -1.79270E+04  9.86825E+03 -2.56842E+04 -1.85074E+03
 -1.74880E+04 -1.86960E+04 -4.50107E+03 -1.47873E+04 -2.68575E+02 -1.30374E+04  1.18358E+04 -8.24428E+03
  1.60861E+04 -1.32314E+04  2.68089E+04  3.71512E+03  2.21435E+04  1.69178E+04  6.27240E+03  3.26512E+04
 -1.68730E+04  2.83048E+04 -2.49644E+04  7.62190E+03 -2.05271E+04 -9.86722E+03 -5.65513E+02 -1.33210E+04
  3.22150E+03 -2.42544E+03 -1.95566E+03  7.23808E+03 -1.41558E+04  8.24411E+03 -1.19215E+04 -5.60692E+03
 -1.08703E+04 -1.67976E+04  2.15621E+03 -2.21764E+04  9.51607E+03 -1.47540E+04  1.74577E+04 -4.84232E+02
  7.25783E+03  1.18166E+04  2.87189E+01  1.66869E+04 -8.74076E+03  7.93623E+03 -1.45548E+04 -1.99661E+03
 -6.98751E+03 -1.29007E+04 -7.92501E+02 -1.45832E+04  7.67750E+03 -1.42435E+04  1.69964E+04 -5.48946E+03
  1.34779E+04  2.18967E+03  1.02221E+04  3.52680E+03  4.73812E+03  2.60337E+03  3.55390E+03 -2.78225E+03
  1.48637E+04  3.58582E+03  1.75024E+04  1.40431E+04  2.92784E+03  2.46637E+04 -5.50404E+03  2.54061E+04
 -1.58015E+04  2.16532E+04 -2.00149E+04  4.02443E+03 -2.06777E+04 -3.08930E+03 -1.86444E+04 -1.58493E+04
 -9.94367E+03 -1.70598E+04  7.92049E+03 -1.63183E+04  1.39995E+04 -1.31919E+04  1.47555E+04  3.10456E+03
  8.99170E+03  9.79670E+03 -3.45798E+03  7.01921E+03 -9.93452E+03  3.74158E+03 -1.06402E+04 -9.59528E+03
 -3.87374E+03 -1.62469E+04  4.46716E+03 -1.27132E+04  7.03963E+03 -1.47165E+03  5.21919E+03  4.55006E+03
 -5.93816E+03  3.23159E+03 -5.03010E+03 -3.68095E+03  5.86021E+03 -9.73771E+03  6.56581E+03 -1.16412E+04
  1.44817E+04 -2.82776E+03  1.16283E+04 -1.40921E+02  1.17080E+04  1.05073E+04  6.26136E+03  9.87526E+03
 -3.38219E+03  1.93568E+04 -6.33133E+03  1.12194E+04 -9.32807E+03  3.91118E+03 -6.30172E+03 -7.64504E+02
 -1.95625E+03 -2.33590E+03  4.02574E+02 -1.18654E+03 -3.70126E+03  3.88276E+03 -4.85549E+03  2.44358E+03
 -9.55346E+03 -1.87344E+03 -5.27522E+03 -1.01512E+04 -4.78402E+03 -1.58751E+04  4.63909E+03 -7.18248E+03
  5.86820E+03 -5.79031E+03  6.46810E+03  7.38693E+03  3.24751E+03  4.76318E+03 -4.41671E+03  6.56326E+02
 -5.38655E+03 -4.70815E+03 -2.88465E+03 -7.28712E+03  1.02398E+03 -5.82763E+03  1.15659E+04 -6.14765E+03
  1.51636E+04 -1.06643E+03  8.02550E+03  5.19228E+03 -6.59841E+02  9.01745E+03 -1.90412E+03  6.87070E+03
 -9.25707E+03  7.44188E+02 -4.00024E+03 -3.34063E+02  4.86479E+01 -2.13840E+03  7.17226E+03 -5.72216E+03
  4.52122E+03  1.29725E+02 -2.06873E+03  7.28773E+03 -5.18890E+03  4.05213E+03 -5.77811E+03  2.71216E+03
 -3.99495E+03 -6.90741E+02  2.92667E+03 -4.83876E+03  4.19066E+03 -2.92699E+03  4.92981E+03  2.16409E+03
  1.76478E+03 -1.57477E+03 -5.53715E+03  4.29232E+03 -2.96193E+03  5.88891E+03 -5.94318E+03 -4.03159E+02
 -4.78260E+03 -1.83607E+03  2.75928E+03 -6.89277E+03  8.57734E+03 -5.06924E+03  2.95594E+03  3.00351E+03
  8.48544E+03  1.13328E+03 -2.44550E+03  6.93337E+03 -6.61571E+03  2.70408E+03 -8.62037E+03 -1.31710E+03
 -5.85650E+03 -5.78125E+03 -3.44819E+03 -6.86197E+03  3.61236E+03 -2.58217E+02  2.95544E+03 -2.16275E+03
  3.45224E+03 -3.29369E+03  9.33440E+02  1.64960E+03 -3.39123E+02  4.85083E+03 -2.90246E+03 -4.69175E+03
  6.28596E+03 -4.91421E+03  4.83493E+03  3.01700E+02  7.17841E+03  2.42108E+03  6.36109E+03  2.96044E+03
  2.37762E+03  1.13460E+04 -6.88809E+03  8.79004E+03 -6.98590E+03 -1.33237E+03 -6.82086E+03 -1.15834E+03
 -6.08847E+03 -5.01946E+03  6.31547E+03 -5.53888E+03  1.64324E+02 -1.55032E+03  1.70827E+03 -3.37605E+03
  5.15453E+03 -7.27575E+03  1.79328E+03 -3.02446E+03 -5.40122E+01  7.32410E+01  3.74057E+03 -1.37591E+01
 -3.38093E+03 -1.36256E+03  1.89543E+03  3.54861E+03 -2.90628E+03  4.32756E+03 -1.99234E+03  2.73701E+03
 -4.18163E+03  1.11182E+02  6.84403E+02 -1.29175E+03 -2.21008E+03 -4.74126E+03  5.67483E+02 -7.11473E+03
  7.24018E+03 -6.86261E+03  2.98128E+03 -2.26736E+03  4.78655E+02  6.29185E+03 -4.38738E+01  3.43817E+03
 -2.95913E+03  6.75546E+03 -2.62393E+03  2.77419E+03 -1.03396E+03  4.97327E+02 -2.22207E+03  3.49901E+03
 -3.75392E+03 -1.38121E+03 -2.14758E+03  2.69534E+03 -9.58796E+02  3.54292E+03 -4.16436E+03 -2.90966E+03
  1.08146E+02 -6.29012E+03  1.61913E+03 -5.07267E+03  3.96006E+02 -4.64526E+03  1.79597E+03 -1.28677E+03
  7.86809E+03  6.22713E+03  1.03378E+03  5.89544E+03 -1.56804E+03  3.70108E+03  1.66516E+01  2.00929E+03
 -6.97439E+03 -3.64097E+03 -6.83786E+03 -5.86930E+03  3.40808E+03 -3.08273E+03  4.27667E+03 -4.06762E+03
  2.72990E+03  6.27731E+02  5.89423E+03  4.46193E+02 -1.91749E+03  5.20397E+03 -2.16338E+03 -4.87787E+03
  4.80632E+03  2.59780E+03  3.06588E+03 -1.75473E+03 -1.24140E+03  6.08327E+03 -1.61419E+03  5.79017E+03
 -9.99453E+02  1.82025E+03 -3.76913E+03  4.47987E+03 -2.71860E+03 -2.89711E+03 -4.51409E+03  7.40820E+02
 -4.53278E+03 -2.67799E+03 -1.01475E+03 -2.87182E+03  4.09259E+02 -4.02796E+03 -1.16449E+00  1.10862E+02
 -6.13673E+02 -1.59366E+03  1.68176E+03  5.09859E+03  1.50653E+03  5.75764E+03 -2.66032E+03  2.12519E+03
 -1.87191E+03 -5.69410E+03 -5.00415E+02 -1.73228E+03 -5.07615E+02 -8.96094E+02  2.02110E+02  4.52938E+03
  8.82553E+02  5.20151E+02 -9.29969E+02  2.59866E+03 -4.34600E+03  3.44847E+03  5.96232E+03 -2.10939E+03
  4.78258E+02 -1.45219E+03  4.22945E+03  4.73678E+02 -1.46038E+03  2.58710E+03 -3.37482E+03  6.57403E+03
 -2.48118E+03  1.80389E+03 -2.46226E+03 -1.32834E+03 -3.59683E+03  9.30828E+02 -1.29843E+03  2.16745E+02
 -4.21826E+03 -1.05227E+03 -6.82648E+02  2.76994E+03  1.03527E+03  1.88609E+03 -1.91729E+03  4.62678E+03
  1.53764E+03  1.93381E+03  1.77802E+02  1.05494E+03 -1.07836E+03 -7.06039E+03 -2.11398E+03 -2.98122E+03
  3.67675E+03  3.33001E+02  2.10448E+03  2.00529E+03  1.00250E+03  3.89815E+03  4.22691E+03 -6.36157E+02
  3.45834E+02 -1.76565E+03  1.37641E+03 -4.42922E+03  3.17568E+03  1.03155E+03  2.10327E+03 -1.35332E+03
  1.49041E+03  2.63498E+03  5.91881E+03 -9.04565E+02  3.62288E+03  4.88108E+03  1.35034E+03 -3.10439E+03
 -3.13935E+02 -8.51456E+02 -5.23986E+03  9.24383E+02  1.26805E+03 -3.29633E+03  3.19400E+03  1.83325E+03
  1.85075E+03 -7.63478E+02 -1.46594E+03  1.52093E+03  4.53657E+02  4.70010E+02 -8.29001E+02  2.27940E+03
 -6.41541E+03  1.83825E+03 -2.88537E+03  7.00674E+02 -2.69252E+03  3.81243E+03  3.00589E+03 -6.41384E+02
  2.47909E+03  5.00355E+03  3.90147E+01  1.20380E+03 -2.63868E+03 -5.60987E+02 -1.23114E+02 -2.02705E+03
 -3.39458E+03 -1.97195E+03  1.25283E+03 -1.71719E+03  2.38166E+03 -1.62659E+03  2.14278E+03 -3.64206E+02
  1.15331E+03 -4.94935E+02  3.15189E+03 -1.80623E+03 -2.49779E+03  2.02144E+03  8.68487E+02  3.91405E+03
  5.56575E+02  1.73761E+03 -2.83772E+02 -4.32883E+03  3.48474E+02 -1.35103E+02  1.67625E+03 -2.60870E+03
 -1.42582E+03 -2.97947E+03  5.35184E+03  1.98942E+03  8.48663E+02  6.61462E+02 -7.55595E+02  5.53295E+02
 -1.58147E+02  2.28070E+02  3.02480E+02 -2.05847E+03 -7.50933E+02 -5.13695E+03  1.80546E+02  1.45477E+03
  2.71212E+03  3.98637E+03  1.55536E+03  2.27031E+03 -2.39971E+03 -1.11434E+03 -5.75092E+03 -4.87687E+03
 -1.03378E+03 -7.36110E+02 -1.25847E+02 -3.74505E+03 -1.44187E+03  6.90536E+02  1.10599E+03  4.80714E+03
 -3.36305E+02 -7.23783E+02  2.97084E+03  1.43646E+03  1.38415E+02 -3.28073E+01 -2.48156E+03  2.85641E+03
  6.80789E+01  2.60262E+03  6.47586E+02 -4.44550E+02 -3.66466E+03 -1.48463E+03  2.54847E+03  1.51228E+03
 -1.58116E+03 -8.60003E+02 -5.08497E+02  1.84072E+02 -1.43191E+03  2.18453E+03 -3.27466E+02  4.10738E+03
 -1.10936E+02  1.49323E+03  1.62814E+03 -2.56355E+03 -2.36542E+03 -1.59162E+02 -6.51263E+02  8.37326E+02
  1.52074E+03 -3.32540E+03 -1.58364E+03 -4.23981E+03 -1.18181E+03 -2.82973E+03  2.31193E+03  1.69726E+03
  1.76673E+03  1.49804E+03  2.24587E+03 -2.06694E+03  6.36918E+02  2.71863E+03 -1.67800E+03  2.45206E+02
  7.97514E+01  5.12516E+03  7.05613E+02 -3.38944E+03 -6.45027E+01 -3.04146E+03  2.63574E+03 -1.89467E+03
  4.02128E+03  1.08917E+03  2.77787E+03 -5.28138E+02  2.46564E+03  4.68393E+02 -1.00811E+03  1.82209E+03
