 $NMID ID='MM_0lb_SNR50_16hz_g55_31.RAW', FMTDAT='(8E13.5)'
 TRAMP=1., VOLUME=1. $END
  3.10490E+05  3.75858E+02  3.36825E+05  2.45250E+05  8.36173E+04  3.39658E+05 -1.37374E+05  2.48588E+05
 -1.91859E+05  7.55837E+04 -1.15431E+05 -2.88095E+04  1.94028E+03 -4.66161E+04  5.80936E+04 -6.97227E+02
  3.78161E+04  5.15922E+04 -1.80585E+04  7.24881E+04 -6.25764E+04  6.39715E+04 -8.20093E+04  3.21831E+04
 -8.13563E+04 -1.08522E+04 -5.68098E+04 -5.25942E+04 -1.22666E+04 -6.43968E+04  2.25457E+04 -4.40393E+04
  3.64353E+04  5.77819E+03  1.42246E+04  4.43755E+04 -3.82395E+04  5.11621E+04 -6.40292E+04  1.77007E+03
 -5.34398E+04 -5.68935E+04 -4.52269E+03 -7.78519E+04  3.50730E+04 -5.31888E+04  4.89940E+04 -1.75795E+04
  4.43511E+04  1.52971E+04  3.28774E+04  2.50014E+04  1.46848E+04  2.42115E+04 -4.95720E+03  3.21190E+04
 -2.46312E+04  8.00231E+03 -1.94721E+04 -4.09451E+03  4.75021E+03 -6.51130E+03  2.43432E+04  1.67240E+04
  7.86588E+03  4.06035E+04 -3.09924E+04  3.26697E+04 -6.55618E+04  2.57199E+03 -5.90709E+04 -3.85310E+04
 -1.78918E+04 -6.25526E+04  3.95074E+04 -4.58327E+04  6.04378E+04 -3.35753E+03  2.82215E+04  3.40995E+04
 -6.80988E+03  3.75055E+04 -2.93071E+04  1.44757E+04 -2.83412E+04 -6.20699E+03 -1.29051E+04 -9.87104E+03
 -9.64785E+03 -1.08226E+04 -9.41870E+02 -1.62180E+04  6.43068E+03 -1.98137E+04  1.40299E+04 -1.60457E+04
  1.14827E+04  6.67714E+03 -1.51227E+04  1.24013E+04 -2.24399E+04 -1.47979E+03 -1.01586E+04 -2.99485E+04
  2.53363E+04 -4.18189E+04  4.70622E+04 -1.96535E+04  4.50453E+04  2.21594E+04  2.05147E+04  4.48093E+04
 -1.39173E+04  3.59393E+04 -2.89739E+04 -1.64470E+03 -9.71272E+03 -2.56675E+04  2.12722E+04 -3.57375E+04
  4.21384E+04 -3.73520E+03  3.17551E+04  2.28605E+04  2.49191E+04  4.37326E+04 -3.88412E+03  4.86162E+04
 -2.99789E+04  3.06209E+04 -4.21209E+04  1.34368E+04 -4.68307E+04 -1.90120E+04 -2.52739E+04 -3.27142E+04
  8.37123E+03 -3.85802E+04  2.55204E+04 -1.30812E+04  2.30781E+04  8.69027E+03  5.66296E+03  1.79502E+04
 -1.54698E+04  4.82056E+03 -1.11387E+04 -8.79541E+03  9.33147E+03 -1.08489E+04  1.35518E+04  5.93825E+03
  1.27594E+04  1.84978E+04 -8.37274E+03  2.56172E+04 -2.18783E+04  1.03890E+04 -2.97984E+04 -5.38344E+03
 -2.34324E+04 -1.70731E+04 -5.43483E+03 -1.63215E+04  2.05282E+03 -2.04817E+04  1.49016E+04 -1.80591E+04
  2.87234E+04 -1.45145E+04  3.00625E+04  6.46977E+02  2.07742E+04  2.18141E+04  5.35174E+03  3.74066E+04
 -1.83483E+04  3.26982E+04 -2.52342E+04  6.75859E+03 -2.30617E+04 -9.10689E+03 -6.35021E+03 -1.17455E+04
  1.67741E+03  1.95664E+03 -7.67041E+03  8.24441E+03 -1.46573E+04  1.79956E+03 -1.50182E+04 -4.49974E+03
 -9.14729E+03 -1.97165E+04 -3.13523E+03 -2.06137E+04  1.16658E+04 -1.71035E+04  1.74238E+04  2.04192E+03
  1.10959E+04  1.25711E+04  1.83874E+03  2.17123E+04 -6.05178E+03  8.59412E+03 -1.77991E+04 -3.36645E+03
 -1.79463E+04 -1.57686E+04 -4.23119E+03 -1.86241E+04  7.71161E+03 -1.54078E+04  2.12340E+04 -1.17250E+04
  1.79714E+04  2.80610E+02  1.20945E+04  4.55315E+03  1.13579E+04 -9.08697E+02  1.03819E+04 -2.06467E+03
  2.17829E+04  1.90405E+03  1.63466E+04  1.51258E+04  1.01035E+04  2.82206E+04 -2.11716E+03  2.69460E+04
 -2.02442E+04  2.35577E+04 -2.72375E+04  1.12271E+04 -3.14012E+04  2.55691E+02 -2.49544E+04 -1.15980E+04
 -1.17025E+04 -2.70538E+04  1.12286E+04 -2.52971E+04  1.79826E+04 -9.38159E+03  1.70946E+04  7.03249E+03
  8.88333E+03  9.61738E+03 -7.88059E+03  1.51654E+04 -1.03738E+04  9.82753E+01 -1.64036E+04 -1.34647E+04
  2.86480E+03 -1.21866E+04  8.81834E+03 -1.65998E+04  8.33547E+03  1.26143E+03  6.33311E+03  1.96520E+03
 -1.04254E+04 -6.94858E+02 -6.88227E+03 -5.41782E+03  2.55328E+03 -9.41620E+03  8.42498E+03 -1.46175E+04
  1.74479E+04 -7.26938E+03  1.38487E+04  8.46836E+03  1.33681E+04  1.03289E+04  7.19556E+03  1.68967E+04
 -2.29716E+03  1.88873E+04 -1.11341E+04  1.31851E+04 -1.54432E+04  4.86745E+03 -8.91390E+03  5.96411E+03
 -6.88206E+02 -5.24191E+03 -5.21546E+02  2.47737E+03 -4.67386E+03 -4.06916E+01 -3.18184E+03  5.13270E+03
 -1.09023E+04 -4.34557E+02 -1.13021E+04 -1.04300E+04 -5.91884E+03 -1.44707E+04  3.32648E+03 -1.09999E+04
  7.77399E+03 -2.67042E+03  3.64598E+03  2.51767E+03  1.48910E+02  4.58175E+03 -6.94593E+03  6.45629E+02
 -5.48608E+03 -8.15233E+03  6.86097E+02 -1.17282E+04  9.70691E+02 -7.55957E+03  1.11478E+04 -7.59587E+03
  1.47501E+04  5.61585E+03  1.30572E+04  4.54453E+03  1.88286E+03  1.69480E+04 -9.97223E+03  8.37375E+03
 -1.13551E+04  5.81724E+03 -2.76370E+02 -2.00466E+03  1.16685E+03  2.67380E+03  7.34423E+03 -5.77795E+03
  3.93021E+03  4.93687E+03  4.70584E+03  1.18860E+04 -4.15691E+03  1.14879E+04 -1.36078E+04  1.09873E+03
 -8.74002E+03 -2.77963E+03 -6.92656E+02 -7.48205E+03 -9.92744E+02 -2.54118E+02  7.68848E+03  1.44670E+03
 -2.49834E+02  1.98009E+02 -5.39687E+03  3.49245E+03 -8.83004E+03  5.26053E+03 -2.77460E+03  1.28782E+02
 -1.23751E+02 -8.98165E+03 -2.66067E+02 -8.33889E+03  9.18008E+03 -6.49730E+03  9.46577E+03  2.29150E+03
  8.58217E+03  7.96574E+03  1.54513E+02  6.70121E+03 -1.95441E+03  8.40269E+03 -1.04621E+04  3.66313E+03
 -4.19539E+03 -9.87212E+02 -1.02097E+03 -7.68186E+03 -1.01498E+03 -4.54296E+03  6.36931E+03 -3.00915E+03
  3.57934E+03  3.16627E+02 -6.44709E+02  2.96166E+03 -1.38312E+03 -6.51950E+02 -5.46657E+01 -4.28963E+03
  9.02712E+03 -2.49718E+03  8.09411E+03  6.23419E+02  6.82240E+03  4.62908E+03  9.05991E+03  1.02338E+04
  9.38590E+02  1.40976E+04 -1.06869E+04  8.78455E+03 -1.62047E+04 -2.28797E+03 -1.48752E+04 -9.06012E+03
 -5.90044E+03 -6.56319E+03 -1.66538E+03 -8.62419E+03  1.57981E+03 -4.78837E+03  3.04694E+02 -4.04883E+03
  8.68078E+03 -5.60045E+03  4.57695E+03  1.48188E+03  2.33694E+03 -3.67231E+03  4.72286E+03 -1.30460E+03
  6.31104E+03  3.35790E+03 -1.11318E+02  1.79137E+03 -1.35430E+03  6.02699E+03 -3.68133E+03  6.39011E+03
 -5.95048E+03 -1.90462E+01 -3.63500E+03 -5.64363E+03 -9.74580E+02 -5.52401E+03  6.38076E+03 -4.83784E+03
  9.20733E+03 -2.55149E+03  1.03811E+04 -1.87312E+03  2.17514E+03  4.62758E+03  3.34626E+03  4.69964E+03
 -2.54180E+03  7.80077E+03 -8.37226E+03  4.78761E+03 -4.62074E+03 -1.15650E+03 -1.20023E+02  4.73693E+02
  5.83326E+02  3.23406E+03  2.03356E+03  1.76748E+02  1.26892E+03 -1.95275E+03 -1.61852E+03  4.76495E+02
 -4.37428E+02 -5.04055E+03 -2.25925E+03 -3.52079E+03  1.45744E+02 -6.52244E+03  9.86961E+03 -3.04230E+03
  7.98015E+03  3.07733E+03  3.98120E+02  4.77840E+03 -1.72067E+03  7.95456E+03 -6.27514E+03  4.76758E+03
 -5.36726E+03  5.71871E+02 -7.46006E+03 -3.73513E+03 -2.44382E+03 -7.36552E+03  3.99714E+03 -4.88552E+03
  7.92369E+03 -2.40673E+03  5.72788E+03  2.12772E+03  1.32958E+03  2.32839E+03 -2.03900E+03  1.13664E+03
  2.53732E+03  2.73664E+03  1.28139E+03  2.22255E+03  3.62507E+02  2.89884E+03  2.85811E+03  2.91202E+03
 -4.48885E+03  6.30936E+03 -6.30241E+03  8.15088E+03 -7.25986E+03  1.75105E+03 -2.97636E+03 -1.10531E+03
  1.02509E+03 -1.02066E+03  7.10911E+02 -4.02615E+03  3.16920E+03 -4.84428E+03  5.09094E+03 -4.43814E+03
 -1.81404E+03  4.42681E+03  5.10439E+02  5.92933E+03 -1.76343E+03  4.70583E+03 -5.56030E+03 -2.91350E+03
  1.60201E+03 -4.19131E+03  1.98858E+03 -5.16479E+03  3.18045E+03 -2.29428E+03  5.67487E+03  2.33006E+03
  5.60974E+03 -4.28674E+02  2.57720E+03  9.81334E+02 -5.87040E+02  2.17785E+03  4.67245E+03  1.23311E+03
  2.54158E+03  6.19813E+03  5.94409E+03 -1.43397E+02  5.72432E+02  4.49323E+03  2.11304E+03  1.03202E+03
 -3.01961E+03  1.53628E+03 -4.39508E+03 -9.09765E+01  3.32159E+03 -4.00988E+03  5.72074E+02 -2.33532E+03
  1.01122E+03 -2.29717E+03  3.32277E+03 -3.36445E+01  3.88230E+03 -6.88358E+02  1.35323E+03  1.40217E+02
 -5.12339E+02  1.99580E+03 -5.22414E+03 -2.32386E+03 -4.91155E+03 -4.87990E+03  5.78956E+03 -2.83856E+03
  4.13354E+02 -1.58374E+03  1.57911E+02  2.00208E+03 -5.47469E+02  7.87583E+01  5.20055E+03 -2.80490E+03
 -2.72175E+03  3.93592E+03  6.03843E+02 -3.01312E+03 -1.00349E+03 -1.85516E+03  1.83770E+03  8.50204E+02
  1.16051E+03 -1.28579E+03  7.41510E+03  4.94885E+03 -1.75166E+03 -2.30111E+03 -3.40474E+03  1.03706E+03
 -8.92280E+02  9.96831E+02 -1.91395E+03 -2.44947E+03 -4.44082E+02 -1.30004E+02 -1.81992E+03  3.65909E+02
  2.59051E+03  1.88547E+03  1.46852E+03  1.36948E+03 -6.47922E+02  3.39685E+03 -5.42553E+03  1.90774E+03
 -2.42514E+03  3.53130E+03 -1.69636E+03 -2.72091E+03  7.60345E+02 -2.98915E+02  1.37846E+03 -1.83792E+03
 -2.69586E+03 -2.17584E+03 -1.90764E+03 -1.47754E+03 -8.02797E+03  1.02880E+03 -5.88510E+03 -3.86285E+03
  1.20651E+03 -4.78813E+03  9.08597E+02 -1.03361E+04 -2.41721E+03 -8.31782E+02  2.48995E+03 -4.77078E+02
  6.52801E+03 -1.71999E+03  4.53674E+03  2.61587E+03  9.72534E+02  1.45748E+03  6.56571E+02 -2.25841E+03
 -5.93149E+03  2.50410E+03  1.31639E+03 -1.79151E+03 -4.20354E+02  2.46421E+03 -1.24941E+03  4.47109E+02
 -7.71236E+02  1.28356E+03 -3.43214E+03  1.70029E+03 -8.71584E+02  1.70326E+03 -1.35640E+03 -1.19614E+03
 -4.22329E+02 -2.16151E+03 -8.45017E+01  7.27670E+02  5.53168E+03  1.33370E+03 -2.83337E+02  5.86923E+03
 -1.92642E+03  5.60758E+03 -1.39610E+03  4.58367E+03 -2.56728E+03 -7.02811E+02 -2.57514E+03 -3.23381E+03
 -2.64413E+03 -1.84987E+03 -2.29693E+03 -3.88964E+03  2.34332E+03 -1.63351E+03  3.30891E+03  1.58091E+02
 -4.47162E+02 -2.36153E+03  2.48328E+03 -1.20491E+03  3.32506E+02  1.46174E+03  7.32386E+02  1.69000E+03
  1.68224E+03 -7.83405E+02  2.28750E+02  2.39120E+03  1.08786E+03 -3.26651E+03  2.95070E+03  1.05224E+03
 -5.96516E+02  3.65864E+02 -3.44967E+03  3.37537E+02 -7.10097E+03  3.22487E+03  2.01646E+03  4.70823E+02
  2.20894E+03 -4.16067E+03  2.76364E+03  3.43653E+03  1.08334E+03 -1.46285E+03  2.41802E+03 -1.48674E+03
 -1.86402E+03 -3.21222E+03  1.81881E+03 -1.23600E+03 -3.93963E+03  1.14026E+03  3.31912E+03  8.93858E+02
 -5.06026E+03 -5.21794E+02 -2.39185E+03  4.08715E+03 -2.50183E+03  4.50610E+03 -4.11893E+02 -4.66276E+03
  6.07260E+02  1.48482E+03 -2.25513E+02 -1.60525E+03  6.05932E+02 -8.28880E+00  2.81583E+03 -2.88754E+03
 -1.10439E+03 -6.25112E+02  3.02953E+03 -2.49005E+03  1.18459E+03 -6.30783E+03  2.55462E+03  3.64309E+03
