 $NMID ID='MM_0lb_SNR50_17hz_g50_24.RAW', FMTDAT='(8E13.5)'
 TRAMP=1., VOLUME=1. $END
  3.09014E+05 -3.48061E+03  3.39043E+05  2.51473E+05  8.10049E+04  3.34072E+05 -1.34337E+05  2.51708E+05
 -1.87378E+05  8.14284E+04 -1.10197E+05 -3.64619E+04  2.31454E+03 -5.09682E+04  5.33184E+04 -6.29755E+02
  4.08338E+04  5.24479E+04 -1.70289E+04  7.22567E+04 -6.20444E+04  6.07945E+04 -8.34799E+04  3.17393E+04
 -8.19391E+04 -9.22186E+03 -5.47789E+04 -5.24578E+04 -1.51452E+04 -6.60971E+04  2.32217E+04 -4.48845E+04
  3.92525E+04  3.39633E+03  1.26196E+04  4.55364E+04 -2.80221E+04  4.87166E+04 -6.99327E+04 -2.66224E+03
 -5.66870E+04 -5.94178E+04 -6.94425E+03 -7.45212E+04  3.23026E+04 -5.40965E+04  4.78399E+04 -1.53477E+04
  4.26792E+04  6.44457E+03  2.96897E+04  3.07887E+04  1.55268E+04  2.79889E+04 -4.92278E+03  3.04682E+04
 -2.14168E+04  1.92441E+04 -1.81359E+04 -4.27218E+03  7.04221E+03 -3.87044E+03  1.98019E+04  1.36371E+04
  3.61853E+03  3.78092E+04 -2.65932E+04  3.66636E+04 -6.44890E+04  4.14453E+03 -5.46434E+04 -4.09416E+04
 -1.23814E+04 -6.77783E+04  4.30809E+04 -4.36450E+04  5.50652E+04 -3.90796E+03  2.90878E+04  3.43056E+04
 -5.28873E+03  3.60509E+04 -3.23795E+04  1.48086E+04 -2.69208E+04 -6.48834E+03 -1.59532E+04 -7.07893E+03
 -5.91557E+03 -1.31869E+04  1.98608E+03 -1.70968E+04  5.59455E+03 -2.34160E+04  1.40952E+04 -1.42962E+04
  1.07512E+04  3.68920E+03 -6.37105E+03  1.83087E+04 -2.32384E+04 -4.85053E+03 -7.70257E+03 -3.15576E+04
  2.08883E+04 -4.02679E+04  4.62963E+04 -1.65479E+04  4.48552E+04  1.87792E+04  1.77174E+04  3.87647E+04
 -1.38569E+04  3.38594E+04 -2.75336E+04  1.87070E+03 -1.26176E+04 -2.89500E+04  1.95227E+04 -2.85458E+04
  4.02142E+04 -4.20162E+03  3.37671E+04  2.14484E+04  1.61998E+04  4.84982E+04 -8.08237E+03  4.82229E+04
 -3.00794E+04  3.51633E+04 -4.01704E+04  7.40014E+03 -3.82654E+04 -1.64529E+04 -2.30078E+04 -3.63532E+04
  7.36549E+03 -3.55245E+04  3.14727E+04 -1.27259E+04  2.56441E+04  1.64021E+04  1.52298E+03  1.73184E+04
 -1.14231E+04  8.83215E+03 -8.24917E+03 -7.61432E+03  5.11574E+03 -1.18608E+04  1.47332E+04  8.15515E+03
  1.39951E+04  1.96862E+04 -6.76347E+03  2.46682E+04 -1.69590E+04  9.23229E+03 -2.84861E+04 -9.10880E+03
 -1.97733E+04 -1.82896E+04 -4.42589E+03 -1.67145E+04  1.52693E+03 -1.24507E+04  1.33293E+04 -1.55833E+04
  2.55386E+04 -1.51497E+04  3.15259E+04  1.32198E+03  2.05125E+04  2.20727E+04  2.45484E+03  3.46592E+04
 -1.47316E+04  3.11239E+04 -2.56451E+04  1.22517E+04 -1.96135E+04 -1.15300E+04 -2.68488E+01 -1.35337E+04
  1.79107E+03 -2.88091E+03 -3.65971E+03  1.70750E+03 -1.52777E+04  6.68925E+03 -1.16385E+04 -4.94986E+03
 -1.09524E+04 -1.47422E+04  4.62073E+03 -1.85769E+04  1.50616E+04 -1.42072E+04  1.68554E+04  1.64724E+01
  1.11029E+04  8.49448E+03 -2.13152E+03  1.42248E+04 -1.09364E+04  1.32201E+04 -1.53854E+04 -9.86058E+02
 -1.05297E+04 -1.42856E+04 -2.76974E+03 -2.03666E+04  1.23076E+04 -1.92814E+04  1.38733E+04 -5.85957E+03
  1.60405E+04 -8.51815E+02  1.29342E+04  1.98798E+03  5.91359E+03  2.06187E+03  9.48119E+03 -4.89719E+03
  1.73713E+04  1.69249E+03  1.50121E+04  7.20536E+03  8.55691E+03  2.80795E+04 -9.62825E+02  3.00910E+04
 -1.81380E+04  2.41017E+04 -2.72644E+04  1.39987E+04 -2.75369E+04  3.52554E+03 -1.70602E+04 -1.64065E+04
 -7.95214E+03 -2.59627E+04  9.59092E+03 -2.69656E+04  2.21981E+04 -1.10249E+04  1.54501E+04  1.94244E+03
  5.32306E+03  1.44423E+04 -7.49570E+03  1.35009E+04 -1.61185E+04  5.83813E+03 -1.36515E+04 -1.20345E+04
 -1.85949E+02 -1.15554E+04  7.34018E+03 -1.01095E+04  7.27912E+03  1.68942E+03 -1.00642E+03  6.28433E+03
 -2.68852E+03 -1.43343E+03 -5.86225E+03 -7.02842E+03  7.17561E+03 -1.04815E+04  7.06485E+03 -1.37296E+04
  1.31060E+04 -8.21062E+03  1.28077E+04 -2.23799E+03  1.41376E+04  5.92859E+03 -1.22155E+03  2.06288E+04
 -3.74306E+03  1.44872E+04 -1.31584E+04  1.15363E+04 -1.55974E+04  1.68749E+02 -1.22004E+04 -2.94889E+03
 -4.99831E+03 -1.39363E+03 -4.22911E+03  1.53159E+03 -5.92830E+03  4.07433E+03 -4.97435E+03  4.15427E+03
 -8.99393E+03 -4.50097E+02 -1.18888E+04 -1.22825E+04 -1.10596E+03 -1.22332E+04  5.04675E+03 -8.98901E+03
  6.70108E+03 -7.35244E+03  5.18332E+03  1.24840E+03  5.06836E+03  2.60859E+03 -3.05651E+03  2.53307E+03
 -9.03407E+02 -8.22711E+03 -8.70955E+02 -9.46548E+03  7.86481E+03 -7.43141E+03  1.14226E+04 -5.40917E+02
  1.29895E+04  2.49669E+03  1.08560E+04  8.60696E+03 -1.20098E+02  1.04553E+04 -5.88745E+03  9.09548E+03
 -6.82953E+03  3.35805E+03 -5.43460E+03  3.06316E+03  5.32969E+02  4.12164E+02  8.96889E+03 -5.93963E+03
  5.77555E+03  6.37901E+03  3.05945E+03  2.41859E+03 -6.63541E+03  7.85865E+03 -1.41657E+04  3.78068E+03
 -7.35661E+03 -3.82454E+03  1.65651E+03 -5.51665E+03  1.42699E+03 -6.91521E+03  2.75482E+03  3.58056E+02
 -3.05736E+02  4.11295E+03 -5.07561E+03  7.71809E+03 -5.00082E+03  9.53517E+02 -4.07084E+03 -2.10290E+03
 -1.84688E+03 -2.44906E+03  3.34564E+03 -1.15208E+04  7.99917E+03 -7.38515E+03  6.47789E+03  5.82260E+03
  6.29038E+03  7.27138E+03 -2.30889E+03  1.08356E+04 -5.09725E+03  7.00152E+03 -9.22453E+02 -1.95603E+03
 -9.26573E+03 -9.90196E+03 -5.00817E+03 -4.88908E+03  4.90300E+03 -5.11032E+03  4.38342E+03 -1.11255E+03
 -2.19749E+02  1.01949E+03 -1.94847E+03  3.92004E+02 -4.54403E+02 -2.12069E+03  6.49734E+02 -3.85216E+03
  4.28924E+03 -1.86699E+03  8.11960E+03  1.77649E+03  8.12802E+03  7.28478E+03  5.69239E+03  9.24445E+03
  6.47200E+02  1.33060E+04 -6.60468E+03  7.07033E+03 -8.70230E+03  3.61572E+03 -9.39796E+03 -4.08634E+03
 -2.67176E+03 -3.48251E+03  6.52996E+02 -1.11342E+04 -1.98766E+03 -1.26263E+03 -1.95386E+03  4.84917E+02
 -4.55123E+02 -3.52433E+03  1.83442E+03  1.54174E+03  2.67700E+02  1.93084E+03  6.30101E+03 -2.87466E+03
  1.05869E+03 -4.24359E+02  1.05549E+03  6.48599E+03 -3.17978E+02  1.00523E+04 -4.17452E+03  6.09572E+03
 -6.96946E+03  2.61141E+03 -1.09115E+03 -3.48022E+03  1.37228E+03 -5.80340E+03  5.09801E+03 -6.82990E+03
  7.50054E+03 -1.98004E+03  1.33057E+04  2.29301E+03  5.70519E+03  4.76667E+03  4.61235E+01  8.13336E+03
 -1.18450E+03  7.77676E+03 -3.60730E+02  6.05668E+03 -9.88203E+03  1.51797E+03 -3.22400E+03 -2.97288E+03
  1.32729E+03 -2.23326E+03 -1.89870E+03  3.60737E+03  9.28904E+01  1.80387E+03 -6.63145E+03 -8.11860E+02
 -3.30125E+03 -9.83607E+03  1.95384E+03 -5.78560E+03 -2.19220E+03 -7.90753E+03  6.06729E+03 -2.12981E+03
  4.14907E+03  3.17446E+03 -2.36233E+03  6.32184E+03 -1.31449E+03  3.54210E+03 -5.16407E+03  2.02899E+03
 -2.44491E+03  1.45515E+03 -2.96860E+03 -2.38379E+03 -6.25889E+03 -3.11945E+03  3.55105E+03 -2.73013E+03
  2.53951E+03 -8.75573E+02  5.59606E+03  3.40937E+03  8.62788E+02  5.60542E+02  1.08320E+03  4.05616E+03
 -2.21987E+03 -2.66519E+03  2.50198E+03 -1.11193E+02  7.21859E+03  3.17918E+03  3.80255E+03  1.18605E+03
 -2.94204E+03  6.61596E+03 -4.03134E+03  5.02768E+03 -2.31428E+01  6.22141E+03 -4.65205E+03  1.23098E+03
 -3.05619E+03 -3.70442E+03  8.91553E+02 -4.96293E+03  5.19583E+03 -2.81021E+03  1.11941E+04 -5.40367E+03
  2.79252E+03  3.54341E+03 -4.04238E+03  1.72975E+03 -4.28305E+02  2.98186E+03 -6.99853E+02 -7.65131E+02
 -8.15111E+02 -4.37405E+03  4.00536E+02 -5.07552E+03  1.31728E+03 -2.64297E+03  2.42255E+03  1.86743E+01
  1.16072E+03  1.94901E+03  1.91130E+03 -2.78400E+03  1.96886E+03 -2.65156E+03  2.91414E+03  2.43892E+03
  2.02690E+03 -6.83620E+03  1.17650E+02  5.33889E+03 -4.26275E+03  4.88107E+03 -2.51320E+03  6.52429E+03
  4.35699E+01  3.94558E+03 -1.69293E+03 -2.47311E+03 -4.67460E+03  1.28662E+03  2.53902E+03  8.53584E+02
  4.43374E+02  1.15795E+03  3.35304E+03  1.04237E+03  5.20328E+03  1.28360E+03  1.55959E+03  8.53170E+02
 -5.14630E+03  8.05224E+02 -2.10024E+03  3.34445E+03 -2.03558E+03 -1.99473E+03 -1.73591E+03 -6.18906E+03
 -3.01913E+02 -1.39509E+03  1.67159E+03 -3.61470E+03  4.61532E+03  2.73541E+03 -2.65262E+02  4.47332E+03
  1.42351E+03  1.16444E+03 -3.12067E+03  1.55337E+02  6.38059E+03 -4.99262E+03 -4.18823E+03 -2.67487E+03
  5.09637E+03  1.09179E+03  4.11029E+03  3.88367E+03  1.39490E+03  8.62513E+02 -2.61200E+03  3.46934E+03
 -1.61117E+03  1.48452E+03 -1.36981E+03 -3.32156E+03  1.57438E+03 -3.71369E+03 -1.98755E+03 -1.01339E+03
 -4.95730E+02 -3.26268E+03 -7.90767E+01 -1.24274E+03 -1.10792E+03  6.78962E+03 -1.63620E+03 -1.48138E+03
 -5.93569E+03  3.28030E+03 -8.38272E+01 -2.20768E+02 -1.15625E+03 -2.16138E+03  1.25592E+03  2.77307E+03
  1.34450E+03  2.01552E+03 -1.60216E+03  9.60824E+02  1.28058E+03 -8.27514E+03 -5.00299E+03 -6.09863E+02
  9.44870E+02 -3.50804E+03 -1.79761E+03 -1.90441E+03  1.16523E+03 -6.35235E+03  5.53206E+03 -4.22509E+03
  2.67731E+03  2.78610E+01  1.11952E+03 -1.25107E+03 -2.26936E+03 -1.92064E+03 -9.51490E+01  2.41224E+03
 -2.57742E+03  3.98124E+02 -2.48238E+03 -6.65821E+02 -1.00696E+03  9.05566E+02 -5.26496E+03 -3.37034E+03
  2.04656E+02  7.00839E+01  2.43686E+03  1.08789E+03  5.22875E+03 -1.11862E+03  2.05163E+03 -3.67729E+03
 -5.02447E+02  6.30973E+03  2.57984E+03  2.34159E+03  3.36128E+02 -9.57107E+01 -2.32758E+03  1.12328E+03
  8.93627E+02  2.07959E+03 -5.35877E+03  4.56659E+03 -1.99608E+03 -5.65291E+02 -3.37880E+03 -9.91367E+02
  1.12776E+03 -4.51365E+03  4.51095E+03 -1.12107E+03 -5.19845E+02 -9.37704E+02  1.50688E+03  2.85844E+02
 -1.13134E+03  2.01624E+02 -4.98974E+03 -1.93022E+03  1.50650E+03  4.12271E+02  1.27589E+03  4.36599E+02
 -2.28870E+02 -3.46562E+02  3.67869E+03 -8.10313E+01  2.38717E+03  1.45335E+03  3.88871E+03  4.81427E+03
  1.04761E+03  5.37228E+03  1.14127E+03 -3.22256E+03  1.02352E+03  5.50356E+02 -2.57578E+02 -3.33947E+03
  1.48748E+02 -2.03465E+03  2.32390E+03  4.01286E+03 -1.99132E+03 -2.84167E+03  1.27664E+03  4.54310E+03
  2.07064E+03 -8.03415E+02 -4.06211E+03  2.49119E+03  2.47606E+03 -2.08831E+03 -9.72572E+02  2.30705E+02
  1.89264E+03  1.91675E+02 -4.97993E+02 -1.21462E+02  1.04438E+03 -9.23581E+02 -1.19824E+03 -1.75180E+03
 -8.32642E+02  1.62893E+03 -1.37218E+03  5.35748E+02  1.83913E+03 -3.54379E+03  2.56028E+03 -2.80457E+02
  5.22180E+02 -3.33096E+03 -2.06807E+03  2.03729E+03 -1.92788E+01 -1.15367E+03 -3.86094E+03 -2.00636E+03
