 $NMID ID='MM_0lb_SNR50_10hz_g60_11.RAW', FMTDAT='(8E13.5)'
 TRAMP=1., VOLUME=1. $END
  3.12889E+05  3.83649E+03  3.40008E+05  2.49006E+05  8.32848E+04  3.41703E+05 -1.28833E+05  2.49550E+05
 -1.93283E+05  8.55728E+04 -1.09758E+05 -3.11094E+04 -4.62666E+03 -5.02712E+04  6.05371E+04 -3.12247E+03
  3.47730E+04  5.23024E+04 -1.75736E+04  7.64464E+04 -5.32527E+04  6.35327E+04 -8.48872E+04  3.65844E+04
 -8.12091E+04 -1.20035E+04 -5.46649E+04 -5.17158E+04 -1.59586E+04 -6.85735E+04  3.14601E+04 -4.75733E+04
  3.95115E+04  8.27377E+03  1.97819E+04  4.75990E+04 -3.39731E+04  4.80814E+04 -7.30598E+04  8.42692E+02
 -5.33156E+04 -6.37966E+04 -1.27051E+04 -8.56126E+04  3.57599E+04 -5.48479E+04  5.04343E+04 -2.20421E+04
  4.83830E+04  1.06188E+04  3.50997E+04  3.04942E+04  1.50971E+04  3.52543E+04 -4.73689E+03  2.77011E+04
 -2.26603E+04  1.13082E+04 -2.38369E+04 -8.14519E+03  6.58517E+03 -1.41176E+04  2.70736E+04  1.61935E+04
  4.31862E+03  4.48089E+04 -3.48565E+04  3.95032E+04 -7.11829E+04  2.45649E+03 -6.04217E+04 -4.18938E+04
 -1.31838E+04 -6.44892E+04  4.19937E+04 -4.75492E+04  6.02484E+04 -3.11261E+03  4.05585E+04  3.23352E+04
 -3.49396E+03  3.96714E+04 -3.21505E+04  2.43068E+04 -3.40329E+04 -3.69753E+03 -1.82387E+04 -1.95730E+04
 -5.22969E+03 -1.44847E+04 -1.28624E+02 -1.69148E+04  4.76483E+03 -2.02562E+04  1.66321E+04 -1.24808E+04
  1.23963E+04  5.20525E+03 -1.34139E+04  1.13545E+04 -2.63781E+04 -5.03227E+03 -1.43674E+04 -3.07798E+04
  2.42947E+04 -4.80516E+04  4.45960E+04 -1.93066E+04  4.39378E+04  2.04300E+04  1.49201E+04  4.42584E+04
 -1.23010E+04  3.15894E+04 -3.04714E+04  7.72844E+03 -1.03274E+04 -2.42796E+04  2.34622E+04 -3.55136E+04
  4.29661E+04 -1.07031E+04  3.88186E+04  2.85445E+04  1.79528E+04  5.04434E+04 -7.55797E+03  6.11196E+04
 -4.02528E+04  3.98061E+04 -4.63831E+04  1.43458E+04 -4.57899E+04 -1.66582E+04 -2.89797E+04 -4.75183E+04
  7.41690E+03 -4.49815E+04  3.09463E+04 -1.32366E+04  3.48041E+04  1.06266E+04  8.10168E+02  2.33493E+04
 -1.33620E+04  8.84225E+03 -9.86940E+03 -1.51134E+04  8.01542E+03 -1.38603E+04  2.41705E+04  1.03569E+04
  1.38282E+04  2.17462E+04 -6.00499E+03  2.78551E+04 -3.12938E+04  1.91727E+04 -3.26178E+04 -2.86916E+03
 -2.59890E+04 -1.97195E+04 -1.02183E+04 -2.58914E+04  4.18815E+03 -2.09461E+04  1.43825E+04 -2.12647E+04
  3.61282E+04 -8.49248E+03  3.41950E+04  2.88725E+03  2.51801E+04  2.12782E+04 -3.16167E+02  4.23131E+04
 -2.32822E+04  3.51763E+04 -3.76935E+04  1.76708E+04 -2.80931E+04 -7.01785E+03 -6.21296E+03 -1.33242E+04
 -1.54214E+03  9.94417E+02 -4.16672E+03  7.01419E+03 -2.13809E+04  5.05417E+03 -2.05625E+04 -1.22321E+04
 -1.80989E+04 -1.79124E+04  9.96906E+03 -2.56589E+04  1.81005E+04 -2.70679E+04  1.98086E+04 -2.57217E+03
  1.45937E+04  1.12198E+04  5.06508E+03  2.21644E+04 -1.68597E+04  5.18678E+03 -2.46783E+04 -1.80967E+03
 -1.29645E+04 -1.98439E+04  2.16896E+03 -3.14120E+04  1.33088E+04 -3.20121E+04  2.34761E+04 -1.55669E+04
  2.36232E+04 -4.13431E+03  1.47890E+04  5.39396E+03  5.58456E+03  4.66882E+03  1.42069E+04  4.17851E+03
  2.66600E+04  7.89392E+03  2.60872E+04  1.78997E+04  1.71257E+04  3.19142E+04 -6.01014E+03  4.54767E+04
 -2.62527E+04  3.51756E+04 -4.09893E+04  2.12162E+04 -4.77432E+04 -2.93713E+03 -2.96320E+04 -2.60713E+04
 -2.42511E+04 -4.19236E+04  1.46891E+04 -3.15641E+04  3.36741E+04 -1.55398E+04  2.28067E+04  3.62830E+03
  8.19789E+03  1.67292E+04 -8.30956E+03  1.63623E+04 -1.93369E+04  4.92610E+00 -2.04008E+04 -1.16901E+04
 -1.89528E+03 -2.38224E+04  3.74765E+03 -1.48071E+04  1.63851E+04 -7.59776E+03 -2.61120E+03  1.02238E+04
 -9.17107E+03  1.15585E+03 -6.81034E+03 -4.55884E+03 -1.07832E+03 -1.85867E+04  1.43683E+04 -2.27776E+04
  2.12828E+04 -1.13577E+04  2.56529E+04  1.64741E+03  2.33849E+04  2.36041E+04  6.28297E+03  2.85623E+04
 -2.04423E+03  2.88158E+04 -2.21840E+04  2.14657E+04 -2.09463E+04  1.14274E+04 -1.78062E+04 -3.84721E+03
 -3.05378E+03 -2.96254E+03  8.33562E+02  6.66980E+03 -1.98913E+03 -3.44875E+02 -8.65709E+03  5.16099E+03
 -1.39054E+04  5.09294E+02 -1.12125E+04 -1.41613E+04 -4.75079E+03 -2.35619E+04  4.43530E+03 -1.99294E+04
  1.70235E+04 -8.78516E+03  4.83713E+03  3.25926E+03 -2.82550E+03  7.53454E+03 -2.03418E+02 -3.77748E+03
 -1.11122E+04 -9.72204E+03 -3.04297E+03 -1.04402E+04  4.06809E+03 -1.27641E+04  1.57288E+04 -6.17563E+03
  1.91708E+04  2.64815E+03  1.76552E+04  1.55790E+04  6.59607E+03  2.42176E+04 -1.10181E+04  1.21051E+04
 -1.83547E+04  7.68458E+03 -3.42599E+03 -2.92269E+03  3.91619E+03 -5.54400E+03  7.41974E+03 -4.02395E+03
  4.38143E+03  8.80584E+03  6.20779E+03  1.47384E+04 -6.53302E+03  1.45253E+04 -1.78363E+04 -2.59374E+03
 -1.18841E+04 -6.58546E+03 -2.37326E+03 -1.52591E+04  8.54738E+03 -1.56848E+03  2.86126E+02  1.79014E+03
  1.17670E+03  1.04058E+04 -7.85526E+03  7.79319E+03 -1.45198E+04  8.89507E+03 -1.70347E+04 -1.18088E+03
 -4.10971E+03 -1.68044E+04  3.72934E+03 -1.16946E+04  1.25376E+04 -1.13011E+04  1.56069E+04  3.14861E+03
  1.37022E+04  8.06415E+03 -9.31303E+03  1.97382E+04 -9.89364E+03  5.78500E+03 -1.34714E+04  2.68881E+03
 -9.28974E+03 -4.76711E+03  4.09820E+03 -9.92566E+03  2.10914E+03 -1.15148E+04  8.15621E+03 -6.18381E+03
  2.59400E+03 -5.40855E+03 -2.07563E+03  4.52104E+03  3.70428E+03 -4.19122E+03  4.74459E+03 -1.42651E+04
  1.48480E+04 -7.79876E+03  1.32226E+04 -5.82150E+03  1.26904E+04  1.11116E+04  1.50590E+04  2.24732E+04
 -3.01639E+03  2.20809E+04 -1.57405E+04  2.12191E+04 -1.82108E+04  1.13259E+04 -1.59357E+04 -7.23299E+03
 -7.97922E+03 -1.02524E+04 -3.89236E+03 -2.08293E+04  2.40290E+03 -8.43618E+03  1.14182E+04 -5.49959E+03
  1.52543E+01 -6.27308E+02  8.44012E+02 -4.72802E+03  1.13952E+04 -6.57084E+02  7.19179E+03 -5.65524E+03
  1.08681E+04  1.64148E+02 -2.35103E+03  1.33789E+04 -4.21596E+03  1.41970E+04 -9.84829E+03  8.33175E+03
 -1.50117E+04 -4.55334E+03 -5.02741E+03 -6.26575E+03  2.70960E+02 -9.81748E+03  5.43213E+03 -1.82602E+04
  1.58521E+04 -7.50639E+03  2.08390E+04  1.95242E+03  1.03739E+04  1.76776E+04 -6.76410E+03  1.66450E+04
 -1.74557E+04  1.86167E+04 -6.54269E+03  5.53869E+03 -2.37743E+03 -3.97593E+03 -2.34599E+03  2.17113E+02
 -8.05413E+03  4.88537E+03 -1.03380E+04  3.39806E+03 -6.85390E+03  6.77522E+03 -9.81656E+03 -2.02609E+02
 -1.51290E+03 -1.00540E+04  1.46668E+03 -1.10110E+04  6.70380E+03 -5.88765E+03  1.18106E+04 -2.72793E+03
  1.53850E+04  4.17146E+03  7.03046E+03  9.38933E+03 -2.61661E+03  1.53126E+04 -2.99718E+03  1.11651E+04
 -8.26690E+03  4.90567E+03 -1.36212E+04 -5.23622E+03  3.79631E+02 -1.14333E+04  1.25008E+04 -1.02932E+04
  9.20181E+03 -5.36954E+03  5.74235E+03  2.39053E+03  4.07857E+03  8.31194E+03 -8.88988E+02  3.12536E+03
  6.73643E+03  8.31639E+03  1.47442E+03  8.11855E+02  1.75763E+03  2.71833E+03  4.35994E+03 -1.17978E+03
 -4.00960E+03  1.10275E+04 -1.35556E+04  1.31841E+04 -1.69474E+04  3.92896E+03 -1.32050E+04 -7.78300E+03
 -3.83399E+03 -8.85982E+03  5.43369E+03 -1.26115E+04  8.05272E+03 -1.14971E+04  1.02713E+04 -1.26536E+03
  1.04072E+04  1.07294E+04  3.97192E+02  8.98773E+03 -4.60255E+03  2.71193E+03 -8.91510E+03 -6.50184E+03
 -7.38454E+03 -4.54236E+03  1.77607E+03 -9.83251E+03  7.28293E+03 -4.82249E+03  3.70216E+03 -3.73698E+03
 -3.19126E+03  2.69192E+03 -4.48633E+03  5.64812E+03 -2.85575E+03  4.31116E+03  3.52642E+03 -2.47724E+03
  4.22075E+03  2.29333E+03  9.38462E+03  2.41571E+02  3.84191E+03  7.97197E+03 -3.73969E+03  1.73566E+03
 -1.33651E+03  7.33954E+03 -5.69809E+03  2.67198E+03 -1.07468E+04 -6.04413E+03 -6.50187E+03 -5.12834E+03
  8.63923E+03 -1.03634E+04  9.27166E+03 -9.82600E+02  2.99114E+03  3.68503E+03 -3.36986E+02  1.70214E+03
 -6.29633E+03  4.73411E+03 -4.87979E+03  4.31757E+03 -7.01632E+03 -7.07712E+03  1.50246E+03 -3.07477E+03
  1.27678E+04 -1.19708E+04  5.42037E+03  1.89600E+03 -2.52903E+03 -2.09579E+03 -2.27663E+03 -3.24627E+03
 -5.69916E+02  5.65052E+03 -3.09946E+03 -3.17226E+03  3.04611E+02 -6.11197E+03  1.12740E+04  2.65962E+03
  7.26873E+03  9.31639E+02  1.17424E+04  5.86228E+03 -3.50196E+03  4.16094E+03 -2.74257E+03  1.23092E+04
 -6.69103E+03  5.74067E+03  1.33210E+03  8.16712E+02 -5.65719E+03 -5.54610E+03  3.81885E+02 -1.16421E+04
  4.80331E+03 -6.18111E+03  8.40303E+03  7.53875E+02  6.54593E+02 -5.10886E+03  2.58763E+03 -1.27420E+03
  5.06145E+03  1.01807E+03 -7.96033E+03 -5.92811E+02 -6.08560E+02 -2.92564E+03 -3.29316E+03  4.67693E+03
 -1.23040E+03  1.15433E+04 -1.33267E+03  7.34184E+03 -1.43311E+04 -5.87182E+02 -9.05390E+03  9.32132E+02
 -6.71069E+03 -1.21300E+04  6.64883E+03 -1.69810E+04  5.04958E+03 -1.44781E+04  1.38024E+04 -5.69761E+03
  1.25826E+04 -1.63484E+03  1.34785E+04  7.90580E+03 -2.28120E+03  7.38630E+03 -9.91512E+03  1.18517E+04
 -5.94321E+03  3.50673E+03 -3.85498E+03  5.12291E+03 -2.18608E+03 -6.82542E+03 -2.69568E+03  3.32156E+03
 -3.39849E+03  6.01658E+03 -6.55277E+03 -1.74319E+03  2.56210E+03 -3.59221E+03 -2.66120E+03 -2.55961E+03
  9.46669E+03 -5.29075E+03  4.60482E+03 -2.74201E+03  7.13884E+03  7.70125E+03 -4.20786E+03  6.59000E+03
 -9.86282E+02  2.41633E+03 -1.30989E+04  7.28224E+03 -1.41027E+04 -1.66821E+03 -5.45685E+03 -5.25262E+03
 -4.91468E+03 -1.00589E+04  5.60337E+03 -1.26941E+04  2.83588E+03 -4.13524E+03  9.05083E+03 -2.42731E+03
  3.28509E+03  6.25474E+03 -2.38057E+02  3.85802E+03 -1.30968E+03  4.46871E+03  6.42408E+03 -1.47399E+03
  5.82923E+03 -4.70077E+03  4.39802E+03 -2.96685E+02  9.37829E+02  1.90335E+03 -3.79891E+03  7.43678E+03
 -9.59398E+02  3.94181E+02 -5.48644E+03 -5.64333E+03 -6.77831E+03 -8.44273E+03  2.36523E+03 -8.53573E+03
  4.97987E+03 -3.23893E+03  9.96913E+03 -1.82552E+03  1.04358E+04  3.77042E+03  1.77662E+03 -1.78164E+03
  5.27041E+03  7.33973E+03 -5.88170E+03  6.45448E+03  1.10213E+03  3.40988E+03 -8.83643E+02  2.10934E+03
  2.73606E+03 -4.45413E+03  3.01832E+03  3.94953E+03 -1.17708E+04  4.29561E+03 -9.79937E+03  1.43136E+03
 -1.84204E+03 -1.02550E+04 -2.33768E+03 -5.91823E+03  9.11449E+03 -1.20452E+03  4.37569E+03 -1.73203E+02
  8.49617E+03 -3.97794E+03  4.20007E+03  4.98247E+03  1.98222E+03  5.06745E+03 -5.80775E+03  1.17525E+04
