 $NMID ID='MM_0lb_SNR50_11hz_g45_66.RAW', FMTDAT='(8E13.5)'
 TRAMP=1., VOLUME=1. $END
  3.07648E+05  5.73430E+03  3.43733E+05  2.56306E+05  8.19132E+04  3.37351E+05 -1.37432E+05  2.55295E+05
 -1.86005E+05  8.65996E+04 -1.13127E+05 -2.92915E+04  3.61144E+03 -4.96369E+04  5.98461E+04 -3.13335E+03
  3.91919E+04  4.78465E+04 -1.26807E+04  7.95495E+04 -6.46538E+04  6.71385E+04 -8.49459E+04  3.31539E+04
 -7.98288E+04 -1.28448E+04 -5.47890E+04 -4.96053E+04 -1.71429E+04 -7.34313E+04  2.70066E+04 -4.73275E+04
  4.00941E+04  4.15325E+03  1.62263E+04  4.35464E+04 -3.77737E+04  4.45528E+04 -6.88715E+04  3.10712E+03
 -5.36113E+04 -5.46890E+04 -8.56123E+03 -7.62873E+04  3.44290E+04 -6.28159E+04  4.84941E+04 -1.49596E+04
  3.83766E+04  1.52766E+04  3.59630E+04  2.66906E+04  1.49998E+04  3.60705E+04 -2.87251E+03  2.95073E+04
 -2.27670E+04  1.51891E+04 -2.04487E+04 -8.08927E+03  3.46629E+03 -5.70155E+03  1.86774E+04  1.39096E+04
  7.31139E+03  3.49870E+04 -3.58716E+04  3.46814E+04 -6.11738E+04  4.73885E+03 -5.66287E+04 -4.11245E+04
 -1.36566E+04 -6.50197E+04  4.19576E+04 -4.64369E+04  6.19117E+04  1.23344E+03  3.57597E+04  3.05939E+04
 -5.47780E+03  4.11568E+04 -3.04129E+04  1.70524E+04 -2.73882E+04 -6.15018E+03 -1.35535E+04 -9.70010E+03
 -1.11322E+04 -1.18399E+04  2.06810E+03 -1.63276E+04  7.77708E+03 -2.34913E+04  1.28628E+04 -9.54213E+03
  7.50934E+03  1.55042E+04 -1.30255E+04  8.89399E+03 -2.29608E+04 -7.03761E+03 -2.96483E+03 -3.43096E+04
  2.37816E+04 -4.42215E+04  5.15843E+04 -1.64468E+04  5.20847E+04  2.10878E+04  2.02159E+04  4.22398E+04
 -1.20353E+04  2.91483E+04 -2.59561E+04  6.58314E+03 -1.07374E+04 -2.82920E+04  1.70089E+04 -3.51209E+04
  4.28539E+04 -7.04871E+03  4.30472E+04  2.26311E+04  1.88791E+04  4.82868E+04 -8.47353E+03  5.43605E+04
 -3.23187E+04  4.15588E+04 -4.15369E+04  1.42371E+04 -5.07472E+04 -1.92988E+04 -2.63934E+04 -3.55358E+04
  8.08726E+03 -3.95698E+04  3.07554E+04 -9.29464E+03  3.13117E+04  1.17966E+04  3.09368E+03  1.23016E+04
 -1.27355E+04  9.33411E+03 -1.69941E+04 -1.17619E+04  5.26445E+03 -9.69302E+03  1.54839E+04  4.35090E+03
  1.29865E+04  1.90000E+04 -2.45359E+03  2.62024E+04 -2.53234E+04  1.02637E+04 -2.88664E+04 -3.33722E+03
 -2.71883E+04 -1.56854E+04 -1.09066E+04 -1.88078E+04  9.15277E+01 -2.41369E+04  1.79990E+04 -1.80064E+04
  3.09618E+04 -1.11315E+04  3.37521E+04  4.27860E+03  2.62010E+04  2.42922E+04 -4.75199E+02  3.80533E+04
 -2.01884E+04  3.15938E+04 -2.76102E+04  1.57934E+04 -2.12903E+04 -9.52781E+03 -1.85098E+03 -1.23661E+04
  9.55876E+03 -2.09382E+03 -1.12661E+04  1.07718E+04 -1.65460E+04  3.32833E+03 -1.59380E+04 -5.79538E+03
 -1.27965E+04 -1.82151E+04  4.91144E+03 -2.93345E+04  1.61260E+04 -1.41707E+04  1.37515E+04 -5.27227E+02
  6.86425E+03  1.29635E+04 -8.55046E+03  2.40126E+04 -1.41248E+04  1.49956E+04 -1.80783E+04 -2.12577E+03
 -1.51355E+04 -2.34011E+04 -2.33239E+03 -2.34210E+04  1.34589E+04 -2.42330E+04  1.79894E+04 -9.57948E+03
  2.29823E+04  7.90379E+02  7.00402E+03  5.21173E+03  9.61236E+03 -6.66270E+03  9.19193E+03 -7.67791E+03
  1.84268E+04 -6.31950E+03  2.09968E+04  1.48507E+04  1.91671E+04  3.96240E+04 -2.37796E+03  4.38952E+04
 -2.22468E+04  2.70116E+04 -3.70026E+04  1.90296E+04 -4.13931E+04 -2.33863E+03 -3.08118E+04 -2.13637E+04
 -1.05033E+04 -2.80305E+04  9.95826E+03 -2.63662E+04  2.11872E+04 -1.12602E+04  2.74557E+04  7.64924E+03
  7.55654E+03  1.70906E+04 -1.10604E+04  1.26950E+04 -1.46515E+04  1.80358E+03 -1.69200E+04 -3.23331E+03
  4.77315E+02 -1.25247E+04  5.12371E+03 -1.13749E+04  1.43475E+04  9.23106E+03  8.97943E+02  1.51531E+04
 -4.60677E+03  2.19887E+03 -1.03913E+04 -4.24030E+03  1.65820E+02 -1.79227E+04  9.09741E+03 -1.99667E+04
  1.80573E+04 -7.22879E+03  2.30265E+04  2.15914E+03  1.40025E+04  1.36286E+04  1.46534E+04  1.92467E+04
 -9.96092E+02  2.31910E+04 -1.86942E+04  1.77184E+04 -2.34535E+04  4.76567E+03 -1.11023E+04  7.94045E+02
 -9.97498E+03  8.66667E+02  4.13209E+03  3.94552E+03 -3.43060E+03  5.91638E+03 -9.63794E+01  8.41364E+03
 -1.37580E+04 -1.30632E+03 -2.19878E+04 -7.01993E+03 -7.30362E+03 -1.93977E+04  6.15739E+03 -1.24376E+04
  1.46605E+04 -7.55329E+02  1.09821E+04  2.32188E+03  2.92762E+03  4.86603E+03 -5.49659E+03  1.90699E+03
 -4.37923E+03 -2.65742E+03 -2.49818E+03 -1.87939E+04  7.39036E+03 -1.58357E+04  1.49784E+04 -7.47818E+03
  1.65701E+04 -3.95996E+03  1.95065E+04  1.53206E+04  4.94751E+03  1.02631E+04 -7.62291E+03  1.61810E+04
 -7.57641E+03  2.02251E+03 -5.90720E+03 -3.69803E+03 -1.63903E+03 -6.36818E+03  1.12165E+04  2.64379E+03
  6.81712E+03  4.60927E+03 -2.42464E+03  1.03894E+04 -8.11136E+03  1.57283E+04 -9.78451E+03  2.46135E+03
 -6.60680E+03 -7.36133E+03  2.90975E+03 -6.49449E+03  6.35070E+03 -6.71409E+03  8.48861E+03  4.58629E+03
 -3.43961E+03  7.47378E+03 -6.01712E+03  1.23565E+04 -1.14454E+04  6.87050E+03 -1.21253E+04 -3.17671E+03
 -7.31804E+03 -9.80220E+03  6.67554E+03 -1.05753E+04  1.41743E+04 -4.98524E+03  1.08277E+04  6.86553E+02
  7.09892E+03  1.09231E+04  2.62304E+03  1.49359E+04 -1.06572E+04  1.11382E+04 -6.85012E+03  8.22392E+02
 -1.09711E+04 -1.28925E+04 -2.54425E+03 -1.12449E+04  6.73126E+03 -8.98498E+03  6.87274E+03 -4.05745E+03
  4.17401E+03  1.27866E+03 -4.09447E+03 -8.22699E+02 -1.60216E+03  6.64743E+02 -2.66137E+02 -8.51584E+03
  8.57349E+03 -1.11062E+03  1.58337E+04 -3.28119E+02  9.66861E+03  7.45017E+03  1.41830E+04  1.79723E+04
 -2.74917E+03  1.94436E+04 -1.57034E+04  1.01898E+04 -1.38246E+04  5.70609E+03 -1.53591E+04 -7.33050E+03
 -1.02886E+04 -1.28764E+04  2.72923E+02 -1.23733E+04  7.50204E+03 -6.61463E+03 -2.96094E+03 -2.69377E+03
  2.66675E+03 -4.77749E+03  5.36366E+03 -1.03741E+03  4.90107E+03 -4.23329E+03  2.86506E+03  8.15616E+02
  1.09748E+04 -3.20208E+03  2.46824E+03  3.97344E+03  1.65308E+02  1.19084E+04 -5.96557E+03  3.37990E+03
 -9.51405E+03 -3.74633E+03 -5.68646E+03 -1.37525E+04 -2.31297E+03 -7.99632E+03  8.71726E+03 -1.41629E+04
  1.92546E+04 -5.17901E+03  1.48155E+04  4.38996E+02  1.21441E+04  1.62256E+04 -1.27575E+03  1.39443E+04
 -2.81557E+03  3.75742E+03 -6.06909E+03  5.57724E+03 -3.00453E+03  5.33525E+02 -5.97854E+03 -1.47318E+03
 -2.93294E+03 -1.55569E+03 -4.55808E+03  1.35251E+03 -8.81489E+03  1.03757E+03 -9.25776E+03  4.49518E+02
 -5.12384E+03 -5.13014E+03  1.41464E+03 -1.05192E+04  5.43313E+03 -1.00160E+04  1.08404E+04 -5.47003E+03
  1.26139E+04  7.53687E+03  7.65037E+03  8.95703E+03  8.27970E+02  1.67161E+04 -4.92492E+03  9.38227E+03
 -1.03727E+04 -3.25508E+03 -6.95424E+03 -2.25006E+03 -5.37430E+03 -6.74247E+03  9.79869E+03 -1.82673E+03
  5.95072E+03 -6.26283E+03  3.90222E+03  1.03075E+03 -4.21176E+03  4.13422E+02  5.15250E+03  5.98598E+03
  7.03390E+02  4.46629E+03 -3.21175E+03  5.13937E+03 -1.48145E+03  9.32166E+02 -7.92282E+02  1.05016E+04
 -3.60760E+03  8.92795E+03 -7.63253E+03  7.61847E+03 -1.10049E+04  1.14947E+03 -1.46623E+04 -1.69211E+03
 -4.51909E+03 -1.13007E+04  3.30218E+03 -1.13981E+04  7.18479E+03 -8.61286E+03  1.28800E+04 -3.58938E+03
  1.10962E+04  2.03511E+03  5.35419E+02  1.14359E+03  1.39213E+03  7.40731E+03 -2.31099E+03  3.44527E+03
 -6.78712E+03 -3.11081E+03  1.34104E+03 -5.62122E+03  3.09544E+03 -1.84133E+03  1.96226E+03 -5.84356E+02
 -3.40718E+03  5.40391E+03 -1.28098E+03  3.13945E+03 -1.01658E+03 -3.97140E+02 -2.64621E+03 -3.24248E+03
  1.59245E+03  3.92238E+03  7.92369E+03 -8.08342E+01  6.15369E+02  6.80462E+03 -1.66403E+03  9.12387E+03
 -8.91463E+03  1.41220E+03 -1.76555E+03  6.30880E+03 -2.18174E+03 -1.88424E+03 -6.87108E+03 -3.49146E+03
 -2.01991E+03 -1.17939E+03  1.41812E+03 -4.09827E+03 -2.89906E+03  2.20456E+03 -8.90382E+02  1.36188E+02
 -2.42933E+03  4.51558E+03 -6.35122E+03  3.89287E+03 -1.03727E+02 -7.92679E+03  4.42644E+03 -1.22275E+04
  2.91014E+03 -2.76541E+03 -2.77435E+03  3.38583E+03  4.84897E+03  2.12865E+03  2.75808E+03  4.72904E+03
 -6.53287E+03  5.64107E+03 -8.44742E+03 -3.86693E+03 -4.04667E+02 -1.59151E+03  1.03276E+04 -7.67551E+03
  7.79008E+03 -1.06713E+03  6.06900E+03  4.61218E+03  2.53927E+03  5.25656E+03 -4.31985E+03  4.36449E+03
 -5.65662E+03  2.31862E+03 -5.63239E+03 -5.83022E+03 -2.51060E+03 -7.04533E+03 -5.16943E+02 -8.16028E+02
  3.72889E+02 -3.19958E+03  8.81509E+03 -3.14018E+02  6.77331E+02  5.49233E+03  1.13600E+03  1.36643E+03
 -3.64791E+03  2.08135E+03  1.09069E+03  6.94890E+03 -4.79915E+03 -3.58350E+02 -4.64086E+03  3.43479E+03
 -4.76026E+03 -9.11348E+01 -1.14943E+03  3.23919E+03 -9.24102E+03  2.97089E+03 -1.11192E+04 -1.45376E+04
 -4.22239E+03 -7.00352E+03  3.60204E+03 -8.45905E+03  7.91449E+03 -9.60250E+03  1.64721E+04 -4.67479E+03
  1.44052E+04  5.33695E+03  1.21311E+03  7.89142E+03 -3.22225E+03  1.19709E+04 -3.10220E+03  7.07432E+03
 -2.32694E+03  6.51985E+03 -5.06163E+03 -3.60180E+03 -4.30733E+02  1.52190E+03 -3.42433E+03  3.26694E+03
 -2.76576E+03 -2.08281E+03 -7.63451E+03  1.62551E+03  1.40371E+03  3.57749E+03  2.70967E+03 -5.92326E+03
 -3.33524E+03 -9.48461E+01 -5.88892E+01  5.99386E+03 -3.39361E+03  4.30230E+03  2.23115E+03  2.21292E+03
 -3.48280E+03  6.57600E+03 -5.90778E+03  6.19179E+03 -7.17073E+03 -8.19158E+03 -1.22394E+04 -4.74097E+03
  1.44439E+03 -5.07274E+03  2.18502E+03 -8.18676E+03  7.11269E+03  2.72261E+03  2.69826E+03 -1.83821E+03
 -5.21291E+02 -3.18340E+00 -1.67361E+03  7.77511E+03 -3.70120E+03  2.71271E+03 -2.61891E+03  1.16974E+03
 -9.57859E+02 -5.55878E+03 -8.80485E+02  3.38515E+03  7.08611E+02  1.48486E+03 -6.11304E+03  5.26402E+03
 -1.55725E+03  5.51777E+03 -5.93547E+03 -4.00983E+02 -1.62188E+03 -4.41058E+03  1.90602E+03 -3.92826E+03
  4.73499E+03 -4.20259E+03  5.92444E+03 -5.04088E+03  2.79688E+03  4.51913E+02 -5.65291E+02  3.87312E+03
 -1.46415E+03  6.31541E+03 -2.19495E+03  3.36330E+03 -6.00086E+03 -3.69112E+02 -1.98448E+03  8.67919E+02
 -1.13487E+03 -1.44921E+03  2.17350E+03 -7.62278E+02 -2.78913E+03  6.47541E+03 -5.37519E+03 -4.79165E+03
 -4.37465E+03 -3.31981E+03 -3.62852E+03 -5.59876E+03  1.42036E+03 -3.55674E+03  3.14815E+03 -1.21569E+03
  5.39975E+03  4.91502E+03  5.94558E+03  3.93395E+03 -1.57128E+03  5.62183E+03 -4.42798E+03  8.61658E+03
