 $NMID ID='MM_0lb_SNR50_17hz_g50_11.RAW', FMTDAT='(8E13.5)'
 TRAMP=1., VOLUME=1. $END
  3.11473E+05  3.84196E+03  3.35563E+05  2.52871E+05  8.62822E+04  3.33999E+05 -1.29024E+05  2.49262E+05
 -1.92043E+05  8.08854E+04 -1.11316E+05 -3.54408E+04 -5.51653E+02 -5.35487E+04  5.81290E+04 -3.23123E+03
  4.02942E+04  5.19506E+04 -1.53722E+04  7.58114E+04 -6.12755E+04  6.59693E+04 -8.62283E+04  3.32097E+04
 -8.26198E+04 -1.35729E+04 -5.67000E+04 -4.68889E+04 -1.50319E+04 -6.39477E+04  2.59406E+04 -4.77650E+04
  3.56599E+04  6.32904E+03  1.66712E+04  5.16094E+04 -3.63318E+04  4.79659E+04 -6.63122E+04 -1.25025E+03
 -5.14538E+04 -5.62016E+04 -3.68823E+03 -7.42806E+04  3.33675E+04 -5.87500E+04  4.61766E+04 -1.35506E+04
  4.23219E+04  1.19980E+04  3.33505E+04  2.33892E+04  1.75784E+04  3.04938E+04 -2.69563E+03  2.72160E+04
 -2.19994E+04  1.09614E+04 -1.79387E+04 -3.89409E+03  6.66931E+03 -1.10943E+04  2.29242E+04  8.84791E+03
  5.41644E+03  3.07422E+04 -3.67170E+04  2.85318E+04 -5.89082E+04  3.16245E+03 -5.45616E+04 -4.15285E+04
 -1.03707E+04 -6.15509E+04  3.77032E+04 -4.34814E+04  5.74042E+04 -9.52205E+02  3.28630E+04  3.53201E+04
 -3.93261E+03  3.47175E+04 -3.14418E+04  1.54793E+04 -2.65727E+04 -2.34062E+03 -1.34978E+04 -1.41933E+04
 -1.02551E+04 -1.91962E+04  7.34621E+03 -1.69936E+04  9.85729E+03 -2.03258E+04  1.80831E+04 -1.11395E+04
  1.23477E+04  5.45737E+03 -6.59006E+03  1.19268E+04 -2.27146E+04 -3.43163E+02 -5.54921E+03 -2.97383E+04
  2.15706E+04 -3.94364E+04  4.43218E+04 -1.41886E+04  4.61613E+04  1.72354E+04  1.26732E+04  4.65497E+04
 -1.45723E+04  3.22837E+04 -1.79939E+04  3.91095E+03 -9.26391E+03 -3.00348E+04  1.84037E+04 -3.12878E+04
  4.05622E+04 -5.11427E+03  3.07550E+04  2.24059E+04  1.43591E+04  4.21731E+04  1.13221E+03  4.73012E+04
 -2.87503E+04  3.06562E+04 -3.88505E+04  5.42199E+03 -4.40855E+04 -1.19269E+04 -1.93708E+04 -3.51970E+04
  6.31763E+03 -3.39069E+04  2.56412E+04 -1.04923E+04  2.31871E+04  8.56348E+03  2.93621E+03  1.86791E+04
 -1.04353E+04  6.92980E+03 -5.32870E+03 -5.89376E+03  9.62222E+03 -1.45488E+04  1.84999E+04  6.32956E+03
  1.19514E+04  2.33346E+04 -1.30197E+03  2.53743E+04 -2.04783E+04  1.03729E+04 -2.47036E+04 -6.15472E+03
 -2.32887E+04 -2.04961E+04 -1.00635E+04 -1.58775E+04  7.90916E+03 -1.51030E+04  1.24681E+04 -1.35640E+04
  2.14684E+04 -1.07203E+04  2.86523E+04  7.36108E+02  2.04591E+04  1.52498E+04 -6.78688E+02  3.47216E+04
 -1.50619E+04  2.62082E+04 -2.96255E+04  6.12873E+03 -2.14278E+04 -9.23598E+03 -3.42060E+03 -1.39721E+04
  1.49047E+03 -3.89287E+03 -3.02894E+03  1.02672E+04 -1.92970E+04  7.05948E+03 -1.59488E+04 -4.38448E+03
 -4.84857E+03 -1.79979E+04  7.13249E+03 -1.77080E+04  1.05194E+04 -1.42426E+04  1.46277E+04 -1.33374E+03
  8.14140E+03  1.11839E+04 -6.77050E+02  1.94580E+04 -1.17093E+04  8.42862E+03 -1.55053E+04  2.69949E+02
 -1.48557E+04 -1.19405E+04 -4.63556E+02 -2.07878E+04  6.68562E+03 -1.33327E+04  1.62451E+04 -6.92921E+03
  1.27371E+04  3.20855E+03  9.13481E+03  3.52064E+03  4.12633E+03 -9.23764E+02  7.36943E+03 -2.34955E+03
  1.40217E+04  4.84733E+03  1.30221E+04  1.45859E+04  1.13619E+04  2.64403E+04 -1.10925E+03  2.57701E+04
 -1.77804E+04  2.22960E+04 -2.50333E+04  1.16587E+04 -2.86704E+04 -2.10419E+03 -2.53878E+04 -1.55302E+04
 -9.20291E+03 -2.07388E+04  6.61833E+03 -2.02181E+04  1.48152E+04 -9.57519E+03  1.57821E+04  6.63027E+02
  3.17286E+03  1.06897E+04 -9.55668E+03  1.31555E+04 -1.40879E+04  1.28608E+03 -1.11921E+04 -1.04653E+04
  3.80090E+03 -1.09733E+04  1.02099E+04 -8.59465E+03  9.39255E+03  4.37864E+03  3.54305E+03  2.05754E+03
 -5.45464E+03  4.80696E+02 -2.17121E+02 -6.71360E+03  1.04286E+03 -1.17490E+04  8.76628E+03 -1.28253E+04
  1.48712E+04 -9.86610E+03  9.86368E+03  1.14466E+03  1.12922E+04  1.15639E+04  6.70899E+03  1.86673E+04
 -4.63665E+02  1.79654E+04 -1.23973E+04  1.09455E+04 -1.27484E+04  2.74998E+03 -1.03541E+04 -2.81089E+03
 -8.89732E+03 -3.71949E+03 -1.54353E+03  7.50178E+03 -8.91451E+02 -2.87614E+03 -5.26984E+03  4.12591E+03
 -9.89408E+03 -3.76193E+03 -9.14474E+03 -6.29879E+03 -2.55042E+03 -9.30489E+03  2.33370E+03 -9.81299E+03
  9.00996E+03 -1.14681E+04  8.32179E+03  9.30832E+02  3.14571E+03  4.15776E+03 -4.39691E+03  1.48094E+03
 -1.05060E+03 -6.46401E+03 -6.50439E+02 -8.36601E+03  1.15994E+03 -9.81227E+03  1.05408E+04 -4.97993E+03
  1.52631E+04  2.95124E+03  1.24547E+04  9.87113E+03 -8.76474E+02  8.12656E+03 -4.27451E+03  1.16964E+04
 -6.31613E+03  3.37005E+03 -6.77049E+03 -6.56113E+02  1.51344E+02 -2.42364E+03  6.16134E+03  7.11901E+02
  8.48887E+03  4.48009E+03  3.68517E+03  2.91575E+03 -2.88075E+03  6.30487E+03 -1.37595E+04  5.06752E+03
 -8.91213E+03 -8.28367E+02  1.05891E+03 -7.26434E+03  8.83472E+03 -7.53984E+03  7.38803E+03 -9.61942E+02
 -2.90531E+03  2.87851E+03 -2.32839E+03  3.53453E+03 -9.37377E+03  6.60281E+03 -5.60382E+02 -2.15484E+02
 -1.84565E+03 -3.41567E+03  3.62953E+03 -8.99572E+03  4.45478E+03 -5.58419E+03  8.55957E+03  2.86268E+03
  3.27291E+02  5.31861E+03  3.99199E+03  9.93149E+03 -1.73991E+03  5.63229E+03 -6.71809E+03 -1.45210E+03
 -7.21522E+03 -4.55641E+03 -3.74278E+02 -1.07004E+04  3.02662E+03 -6.25222E+03 -8.37454E+02 -7.60684E+03
  4.67534E+03 -2.81867E+03 -1.37726E+03 -2.85209E+02 -8.82318E+02 -3.98820E+03  8.03841E+02 -1.12632E+03
  5.25466E+03 -2.97569E+02  6.74603E+03 -1.48008E+03  9.11013E+03  1.17316E+04  6.84780E+03  9.00633E+03
  1.13411E+03  8.94461E+03 -7.40685E+03  6.92888E+03 -1.18868E+04 -4.76529E+02 -1.19902E+04 -3.75963E+03
 -4.66237E+03 -9.71514E+03 -7.73780E+03 -2.49244E+03  4.89248E+03 -7.00653E+03  3.04971E+03  7.69145E+02
 -2.43222E+02 -1.07418E+03  2.80836E+03 -5.53036E+03  2.96249E+03  2.18498E+03  6.31533E+03 -6.16925E+02
  1.72892E+02  1.13299E+03  5.83719E+02  7.74597E+03 -1.86180E+03 -2.36751E+02 -7.24118E+03  4.66048E+03
 -4.27614E+03 -3.51808E+03 -3.55514E+02 -6.22413E+03  2.99331E+03 -3.73348E+03  5.84884E+03 -6.42277E+03
  3.02112E+03 -1.45274E+03  8.61725E+03  1.37417E+03  4.86798E+03 -8.90384E+02  9.10751E+02  9.35415E+03
 -5.11722E+03  6.59789E+03 -5.62039E+03  5.71187E+03 -3.33805E+03 -1.42046E+03 -1.89783E+02 -6.93862E+03
 -4.35687E+02 -1.08008E+03 -4.97856E+00  1.38854E+03 -4.42393E+02  3.02044E+03 -7.65334E+03 -1.60434E+03
  2.45669E+02 -6.69665E+03 -2.31337E+03 -9.88604E+03  7.92922E+02 -6.36851E+03  2.87314E+03 -3.19539E+03
  7.14886E+03  2.49586E+03  2.16150E+03  1.69230E+03 -6.38371E+02  6.59583E+03 -2.86753E+03  1.64586E+03
 -7.26060E+03  7.02095E+02 -3.79549E+03 -6.11046E+03 -3.67347E+03 -2.30486E+02  1.92159E+03 -7.56312E+03
  3.13362E+03 -1.39091E+03  1.37069E+03  1.64779E+02  4.11850E+03 -6.98146E+02 -4.39157E+03 -3.15280E+02
  6.87834E+03 -1.24683E+03  2.49486E+03  1.95507E+03  9.83730E+02  4.89835E+03  3.02439E+03  2.65663E+03
 -1.36652E+02  5.24222E+03 -2.79646E+03  5.59834E+03 -1.73874E+03  9.35044E+02 -5.89467E+03  4.25056E+02
 -4.31644E+03 -6.87914E+03  4.17525E+03 -6.19198E+03  4.47501E+03 -3.18667E+03  5.97682E+03 -4.81769E+03
  4.44882E+03  1.68857E+02  1.90580E+03  1.11934E+03 -5.38398E+03 -1.05692E+03 -2.20706E+03 -3.63514E+03
 -1.06905E+03 -3.77148E+03  2.17444E+03 -3.14077E+03  1.11594E+03 -3.41838E+03  2.67943E+03 -3.59470E+03
 -1.92800E+03  2.78305E+03  1.63074E+01 -1.62225E+03  1.44185E+03  3.56417E+03 -1.06177E+03 -7.14612E+02
  5.15682E+03 -5.48258E+01  1.99109E+03 -2.75461E+03  1.05062E+03  6.49254E+02  3.30545E+03  6.39137E+03
 -4.01835E+03 -1.65711E+02 -2.25941E+03  3.61203E+03 -4.70048E+03  1.02960E+02 -2.46500E+03 -2.31789E+03
  1.67311E+03 -1.56815E+03 -1.40279E+03  6.13335E+02  2.49872E+03  4.04812E+03 -6.74812E+03  2.39397E+03
 -3.64568E+03 -1.22944E+02 -4.58817E+03 -1.19758E+03  2.15398E+03 -3.12909E+03  3.19781E+03 -4.47642E+03
  1.07831E+03 -1.75016E+03  7.13177E+02  2.62410E+01  2.85304E+03 -3.13109E+01 -1.00000E+03  2.40256E+03
  4.15897E+03  1.66204E+02 -2.79662E+03 -2.74864E+03 -2.74634E+03 -1.69431E+03 -1.68087E+02  2.15430E+03
 -4.24327E+02  4.84247E+02  4.96970E+03  1.74857E+01  1.40268E+02  3.14318E+03  2.22436E+03  6.16907E+03
 -2.18933E+03 -6.36211E+03 -2.08428E+03  2.77106E+03  2.57100E+03  5.45428E+03 -1.33567E+03 -6.35723E+03
 -2.55180E+03 -1.04423E+03  3.50516E+03 -1.12183E+03  2.34002E+03  4.78744E+03 -4.49261E+03  1.53393E+03
 -4.31563E+03  3.68069E+03  1.74039E+02  4.09117E+03  2.73992E+03  1.27254E+03  2.14271E+03  5.67996E+03
 -3.81481E+03  1.08517E+03 -9.10878E+02 -9.91762E+02 -1.21743E+03 -3.06668E+03  1.24135E+03 -2.45294E+03
 -6.14654E+03 -1.75836E+03  3.14502E+02 -5.59282E+03  6.27700E+02 -8.07626E+03  7.56308E+03  1.35367E+02
 -6.27946E+01 -1.23058E+03  3.74755E+03 -3.14877E+03  3.12928E+03 -2.44985E+03 -3.90807E+03 -1.47211E+03
 -6.13041E+03  1.11736E+03 -4.92262E+01 -3.60613E+03  1.38569E+02  5.87685E+02 -8.30364E+02 -3.28208E+02
 -3.77038E+03  7.87953E+02 -3.48623E+03 -4.37485E+03 -2.70095E+03 -4.77389E+03 -3.39114E+03 -4.67849E+03
  6.07509E+03 -1.58822E+03 -1.42928E+03 -2.07856E+03  4.17917E+03 -5.58250E+02 -3.27379E+03  8.59398E+02
 -2.27492E+03  2.72145E+03 -1.76710E+03 -1.91145E+03 -5.35410E+03 -2.62267E+03 -5.47108E+03 -2.76149E+03
 -2.55454E+03 -5.22705E+03  1.14807E+03 -5.19109E+03  1.73497E+03  3.05982E+03  3.41974E+03 -1.08003E+03
  3.09125E+03  1.46826E+02  2.33594E+03  3.93751E+03 -2.47393E+03  7.29227E+02  4.39957E+02 -3.67658E+03
  2.03115E+03  4.08998E+03  3.69789E+03  7.82711E+02 -4.20522E+03  3.20497E+03 -1.53721E+01  2.83688E+03
 -2.37395E+03  1.91470E+03 -7.25323E+02 -1.25738E+03 -1.18674E+03 -2.21568E+02  2.43312E+03  2.08793E+03
 -1.23459E+03 -1.73600E+03  5.99648E+03  4.78583E+03 -1.62147E+03  5.62488E+02  3.95784E+03 -3.40068E+03
  2.25443E+03  2.67207E+03 -1.26034E+03 -6.14475E+02 -4.38312E+02  2.43538E+02 -4.20997E+03  6.53185E+02
  1.99395E+03  3.49660E+03 -2.08559E+03  2.01907E+03 -4.84931E+03  2.07076E+02 -4.16884E+03 -2.35610E+03
 -9.27976E+02  2.51567E+03  3.02024E+03 -1.48642E+03  3.20998E+03 -4.57391E+03  7.98500E+02 -5.59555E+02
  2.74747E+03  1.48891E+03  2.73724E+03  5.54750E+03  4.34448E+03 -1.65824E+03  9.24544E+02  3.73039E+02
