 $NMID ID='MM_0lb_SNR50_8hz_g45_17.RAW', FMTDAT='(8E13.5)'
 TRAMP=1., VOLUME=1. $END
  3.13990E+05  3.88937E+03  3.33353E+05  2.51868E+05  8.29473E+04  3.41622E+05 -1.40749E+05  2.46489E+05
 -1.91026E+05  8.86606E+04 -1.11970E+05 -3.62216E+04 -1.75366E+03 -4.72562E+04  4.99331E+04  4.71834E+03
  3.52395E+04  4.60217E+04 -2.54568E+04  7.88274E+04 -6.58088E+04  6.24057E+04 -8.37791E+04  2.74580E+04
 -8.53160E+04 -1.06868E+04 -6.31166E+04 -5.09007E+04 -1.12158E+04 -7.53605E+04  2.71900E+04 -4.48444E+04
  3.99918E+04  2.91021E+03  2.04097E+04  4.47420E+04 -3.17502E+04  4.41312E+04 -7.03856E+04  1.62574E+03
 -4.94724E+04 -5.81700E+04 -5.94943E+03 -7.97621E+04  3.63333E+04 -5.17708E+04  5.74821E+04 -1.65434E+04
  4.54735E+04  1.40642E+04  3.57611E+04  2.31837E+04  1.39939E+04  3.58689E+04 -1.12399E+04  2.29766E+04
 -2.10718E+04  1.42218E+04 -1.53678E+04 -5.12246E+03  8.46537E+03 -8.26706E+03  1.96006E+04  1.46659E+04
  2.94315E+03  4.11282E+04 -3.42262E+04  3.39556E+04 -6.54701E+04  3.90789E+03 -6.16793E+04 -4.48549E+04
 -1.51638E+04 -6.42302E+04  4.46184E+04 -4.83582E+04  6.12928E+04 -5.96244E+03  3.17865E+04  3.71952E+04
 -5.97757E+03  4.24300E+04 -3.19448E+04  2.02319E+04 -3.69099E+04 -4.69378E+03 -2.80899E+04 -9.99604E+03
 -1.16803E+04 -1.30710E+04  2.71494E+03 -1.73273E+04  9.66126E+03 -2.36452E+04  1.48565E+04 -1.59936E+04
  1.08793E+04  1.02193E+04 -1.94415E+04  1.20850E+04 -2.65507E+04 -6.18499E+03 -6.02908E+03 -3.54407E+04
  2.47136E+04 -4.95841E+04  5.87269E+04 -2.36836E+04  4.72773E+04  2.13657E+04  2.13048E+04  5.10243E+04
 -1.75562E+04  3.90584E+04 -2.23715E+04  6.21535E+03 -1.36880E+04 -2.77774E+04  2.33467E+04 -3.18408E+04
  4.58530E+04 -7.57416E+03  4.35918E+04  2.89297E+04  2.31985E+04  4.82231E+04 -6.94324E+03  5.73090E+04
 -3.61358E+04  4.04738E+04 -4.57821E+04  8.46605E+03 -5.10849E+04 -2.28144E+04 -2.32619E+04 -3.77088E+04
  1.88636E+03 -4.46511E+04  3.00526E+04 -1.56026E+04  2.85023E+04  9.02548E+03  5.42756E+03  2.23575E+04
 -1.30932E+04  1.42892E+04 -1.26249E+04 -4.55411E+03 -3.69730E+03 -1.34243E+04  1.90100E+04  6.16552E+03
  1.94329E+04  2.28654E+04 -3.12902E+03  2.55129E+04 -2.28763E+04  1.40058E+04 -3.04850E+04  2.74579E+03
 -3.35349E+04 -2.58086E+04 -6.27036E+03 -3.12431E+04 -1.53809E+03 -2.74958E+04  1.66436E+04 -1.63549E+04
  2.76781E+04 -1.37173E+04  3.98657E+04  8.12026E+03  3.51214E+04  2.57286E+04  1.59633E+03  4.64645E+04
 -1.96318E+04  3.46222E+04 -2.87823E+04  1.34609E+04 -1.81703E+04 -1.23701E+04 -1.40928E+02 -7.63552E+03
  3.54658E+03  2.22358E+03 -6.76626E+03  6.65273E+03 -3.05495E+04  6.42100E+03 -2.69015E+04 -1.93006E+04
 -1.29972E+04 -2.36160E+04  1.23878E+04 -3.08522E+04  1.76858E+04 -2.19260E+04  2.49055E+04 -5.44640E+03
  1.45674E+04  2.05426E+04 -2.87001E+03  2.87774E+04 -1.88831E+04  9.11025E+03 -2.88550E+04 -2.47423E+03
 -1.80825E+04 -2.20047E+04 -4.23805E+03 -3.02382E+04  1.34277E+04 -2.48932E+04  2.22413E+04 -1.52450E+04
  2.46564E+04  1.81578E+03  1.64243E+04  9.72495E+03  1.22862E+04  8.38677E+03  1.08112E+04 -5.84303E+03
  1.91766E+04 -2.42464E+03  2.07498E+04  1.43346E+04  2.16429E+04  3.77267E+04 -3.32394E+03  4.56273E+04
 -2.51926E+04  4.10327E+04 -4.69740E+04  2.30640E+04 -4.59905E+04 -3.12069E+02 -3.97119E+04 -2.98412E+04
 -1.26266E+04 -3.23793E+04  1.42648E+04 -3.90699E+04  3.35882E+04 -1.15605E+04  2.35272E+04  3.95599E+03
  1.38182E+03  1.69083E+04 -1.69559E+04  1.09495E+04 -2.22378E+04  2.12150E+03 -2.24539E+04 -7.05959E+03
  3.00437E+03 -1.96652E+04  4.49974E+03 -1.07572E+04  1.07185E+04 -3.20865E+03  6.49922E+02  7.91590E+03
 -7.27830E+03  5.57558E+03 -1.25930E+04 -5.67061E+03  1.90223E+03 -1.62268E+04  1.08655E+04 -2.18093E+04
  2.11952E+04 -1.59513E+04  2.68069E+04  1.44473E+03  2.90726E+04  2.26054E+04  2.29439E+04  4.23613E+04
 -6.10114E+03  2.83439E+04 -2.35553E+04  2.26580E+04 -1.99685E+04  8.20308E+03 -1.44145E+04 -7.08967E+03
 -1.26459E+03 -7.04234E+03 -7.98485E+03  2.34330E+02 -4.22274E+03  2.22172E+03 -6.54170E+03  4.53492E+02
 -1.53964E+04  2.50368E+03 -1.36889E+04 -5.98030E+03 -1.76411E+02 -1.87562E+04  3.90542E+03 -1.70698E+04
  8.54576E+03 -8.35305E+03  1.11454E+04 -3.85226E+03  7.03238E+03  1.38684E+04 -9.53962E+03  2.00574E+03
 -1.37151E+04 -1.03022E+04  5.15876E+02 -1.93447E+04  1.15281E+04 -1.25926E+04  1.71116E+04 -1.08302E+04
  2.15473E+04 -4.44166E+03  1.88355E+04  1.63632E+04  9.59514E+03  2.13621E+04 -1.47579E+04  1.35205E+04
 -9.16080E+03  6.72647E+03 -1.92087E+03 -1.18141E+04  1.33620E+03 -5.28211E+03  1.04424E+04 -3.10492E+03
  1.11225E+04  1.29123E+04 -2.74899E+03  7.90124E+03 -8.82645E+03  9.98994E+03 -1.69958E+04  5.14376E+03
 -9.71393E+03 -8.79258E+03 -2.28120E+03 -7.24748E+03  8.18615E+03 -1.19436E+04  7.61801E+03  3.22713E+03
  3.83834E+03  1.49476E+04 -9.85510E+03  7.33953E+03 -1.84543E+04  5.59387E+03 -1.82870E+04 -1.16846E+04
 -1.49494E+04 -2.21430E+04  7.07396E+03 -1.64856E+04  2.74023E+04 -7.22356E+03  2.51048E+04  2.68158E+03
  1.12031E+04  1.34291E+04  2.31820E+03  1.27949E+04 -1.61326E+04  5.50822E+03 -1.71478E+04 -3.82919E+02
 -2.12968E+03 -1.07739E+04  4.86869E+03 -1.44812E+04  6.20777E+03 -1.60437E+04  7.62061E+02 -1.45478E+03
  9.66806E+03 -7.66091E+02 -1.02559E+04  2.19027E+03  1.12906E+03 -5.87529E+03 -6.19484E+03 -1.11240E+04
  1.05626E+04 -5.24527E+03  1.67668E+04  7.06726E+03  1.24950E+04  1.43332E+04  1.17080E+04  2.17132E+04
 -2.37748E+03  2.91435E+04 -1.83427E+04  1.81243E+04 -2.33014E+04  3.68588E+02 -2.47204E+04 -4.29802E+03
 -1.35576E+04 -2.07499E+04  1.51878E+02 -1.45327E+04  7.31788E+03 -1.69003E+03  9.13258E+03 -1.01762E+04
  7.26666E+03 -7.35690E+03  5.86033E+03 -1.03920E+04  3.81748E+03 -3.61008E+03  5.64868E+03 -2.95570E+03
  1.14803E+04  4.13513E+03  5.32789E+03  9.43239E+03 -8.97817E+03  1.51473E+04 -1.21352E+04  1.10398E+04
 -1.65040E+04 -5.74410E+03 -9.50696E+03 -8.32445E+03 -3.61648E+03 -1.22229E+04  1.97936E+04 -1.72077E+04
  1.88271E+04 -6.66840E+03  2.15211E+04  1.85766E+03  1.60150E+04  2.21393E+04  2.99031E+03  2.61127E+04
 -6.99607E+03  1.05131E+04 -4.97391E+03  1.45741E+03 -8.22015E+03 -8.70615E+03 -1.14938E+03 -7.70137E+02
 -2.49164E+03  1.09649E+03 -2.82675E+03  8.75781E+03  3.66575E+02  2.33501E+03 -1.59369E+04  1.75566E+03
 -8.81557E+03 -8.70974E+03 -4.70532E+02 -1.78106E+04  2.59138E+03 -1.46469E+04  1.40019E+04 -6.34252E+03
  2.17903E+04  7.68694E+03  5.96983E+03  1.44618E+04 -6.34983E+03  1.42799E+04 -9.48996E+03  7.60899E+03
 -1.05535E+04  2.72699E+03 -7.86122E+03 -1.18841E+04 -2.06451E+03 -1.81149E+04  1.01203E+04 -6.18202E+03
  1.45117E+04 -3.38225E+03  4.73291E+03  3.56953E+03  2.15183E+03  6.30497E+03  1.57828E+03 -6.40774E+03
 -9.50365E+02  2.11686E+03  6.69017E+03 -1.88487E+03  9.15243E+03  4.63469E+03  5.25927E+03  9.43994E+03
 -5.57762E+03  1.04915E+04 -1.34738E+04  2.37392E+04 -1.94713E+04  1.62775E+03 -1.39176E+04 -1.35361E+04
 -1.19510E+04 -1.46843E+04  2.73900E+03 -1.64034E+04  8.43412E+03 -1.31908E+04  1.72769E+04 -4.09743E+03
  1.12363E+04  7.52133E+03  3.70582E+02  1.43230E+04 -2.46130E+03  5.94759E+03 -1.00187E+04 -5.66190E+03
  4.87393E+03 -4.91328E+03  5.21440E+03 -1.32395E+04  6.04467E+03 -1.03638E+02  7.59037E+03 -1.83429E+03
  1.99533E+03  6.07786E+03  6.34582E+03  3.43295E+03 -5.09384E+02  1.45044E+03  2.80591E+03 -5.72538E+03
  8.34789E+03  3.46263E+03  5.76882E+03  6.75178E+03  2.54086E+03  9.14621E+03 -2.28378E+03  7.11650E+03
 -3.36280E+03  1.37048E+04 -7.45985E+03  9.67134E+03 -1.79343E+04  2.73442E+02  2.77724E+03 -8.90636E+03
  4.52139E+03 -5.17820E+03  4.82294E+03 -7.41597E+03  2.48256E+03  9.12577E+03 -3.43268E+03  5.68966E+03
 -1.25037E+04  2.84840E+03 -6.43568E+03 -5.25847E+03 -7.66045E+03 -6.46849E+03  3.00261E+03 -1.30042E+04
  6.27897E+03 -8.03406E+03  1.26764E+04 -2.58292E+03  5.74727E+03  3.75018E+03  4.48933E+03  1.31931E+03
 -3.00371E+03 -3.00793E+03  4.89686E+03 -7.29188E+03 -8.71130E+02 -1.06872E+04  1.11264E+04 -3.69305E+03
  1.53454E+04 -2.75443E+03  9.60322E+03  9.30180E+03  8.53256E+03  1.63574E+04 -2.68421E+03  9.74935E+03
 -5.13084E+03  3.67148E+03 -5.62505E+03 -4.51726E+03 -7.24678E+03 -1.36313E+04  3.89446E+03 -1.05334E+04
  7.54420E+03 -8.60944E+03  6.59814E+03  4.70289E+03  2.06356E+02  4.58688E+03 -7.98298E+03  2.10110E+03
 -4.75651E+03  7.47994E+03 -3.04556E+03  1.06289E+04  4.83084E+03  1.32263E+03  2.33198E+03  1.75138E+03
 -9.57424E+03  7.96660E+02  5.62913E+02  6.88191E+03 -4.72733E+03 -3.24529E+03 -1.39863E+04 -5.66972E+03
 -1.23873E+04 -1.78183E+04  2.20741E+02 -2.03307E+04  8.19129E+03 -1.25653E+04  2.07872E+04 -6.46352E+03
  1.22190E+04  7.97887E+03  5.74871E+02  1.28270E+04  6.54025E+03  2.13091E+04 -6.65064E+03  7.68295E+03
 -7.21379E+03  7.94215E+03 -4.32124E+03 -2.02401E+01 -1.02601E+03 -4.11577E+03 -3.80713E+02 -3.60118E+03
 -8.16268E+02  4.80194E+03 -4.65568E+03 -2.22558E+03 -1.57515E+03 -4.81299E+03 -3.44868E+03 -4.83517E+03
  1.28774E+04  3.75636E+02  6.92136E+03 -3.32081E+03  2.38988E+03  9.07430E+03  1.42405E+03  1.33376E+04
 -7.96032E+03  1.75563E+04 -1.06323E+04  7.47422E+03 -1.25206E+04  7.44836E+03 -1.29955E+04 -6.78150E+03
 -4.16696E+03 -1.93600E+04  1.67737E+03 -4.98720E+03  7.83882E+03 -1.19923E+04  3.09413E+03 -2.35521E+03
  2.26553E+03  6.41507E+03  2.68487E+03  1.11618E+04  3.65573E+03 -2.26713E+03 -6.96751E+03 -5.95198E+03
  8.05941E+03  3.39625E+03  4.14582E+03 -2.43819E+02 -1.98811E+03  1.75182E+03 -3.50339E+03  8.43218E+03
 -5.41446E+03  4.19242E+03 -5.42612E+03  1.57364E+03 -9.98428E+03 -1.40373E+03  3.45510E+03 -1.32210E+04
  6.90224E+03 -9.01203E+03  7.07609E+03 -2.16619E+03  9.14962E+03 -3.36013E+03  1.95226E+03  2.36395E+03
 -4.87332E+03  6.89384E+03 -1.15924E+03  7.76611E+03 -5.91601E+03 -2.19985E+03 -4.50420E+03 -5.58251E+02
  8.29033E+02  1.08513E+03  3.13499E+03  1.17905E+03 -4.51120E+03  4.38223E+03 -9.37068E+03  5.56315E+03
 -7.06973E+03 -4.48180E+03  2.69170E+03 -1.30690E+04  6.61448E+03 -9.95296E+03  1.24715E+04 -7.81259E+03
  7.60865E+03 -4.95066E+02  6.48658E+03  3.55023E+03 -3.78304E+03  1.46701E+03  1.89773E+03  5.88580E+03
