 $NMID ID='MM_0lb_SNR50_14hz_g45_31.RAW', FMTDAT='(8E13.5)'
 TRAMP=1., VOLUME=1. $END
  3.12319E+05  1.44120E+03  3.40067E+05  2.55754E+05  8.70425E+04  3.37908E+05 -1.34008E+05  2.46403E+05
 -1.90425E+05  7.97931E+04 -1.13084E+05 -3.42029E+04  5.93712E+02 -4.93217E+04  5.75506E+04  1.41091E+03
  3.58118E+04  5.58536E+04 -1.84684E+04  7.28551E+04 -6.21944E+04  6.18233E+04 -7.76652E+04  3.48870E+04
 -8.29654E+04 -1.10895E+04 -5.28582E+04 -5.13302E+04 -1.34425E+04 -6.71072E+04  2.64886E+04 -4.63859E+04
  3.99897E+04  5.10348E+03  1.18970E+04  4.85468E+04 -2.92092E+04  5.04474E+04 -6.63710E+04  6.16969E+02
 -5.45289E+04 -6.10858E+04 -5.55570E+03 -7.67264E+04  2.94059E+04 -5.49727E+04  4.77853E+04 -1.61304E+04
  4.26360E+04  7.57533E+03  3.28179E+04  2.97157E+04  1.72778E+04  2.77121E+04 -5.17501E+03  3.08472E+04
 -2.13329E+04  1.41911E+04 -2.06970E+04 -3.21194E+03  5.13755E+03 -7.77257E+03  2.43988E+04  1.18485E+04
  7.29846E+03  3.34220E+04 -3.51260E+04  4.16865E+04 -5.84542E+04  3.11065E+03 -6.06450E+04 -3.89428E+04
 -1.38076E+04 -5.89536E+04  3.55361E+04 -4.47676E+04  6.22482E+04 -5.49625E+03  3.09874E+04  3.90078E+04
 -7.23713E+03  3.57455E+04 -2.89473E+04  1.71753E+04 -2.35970E+04 -7.65407E+03 -1.84247E+04 -1.29108E+04
 -6.87359E+03 -1.23385E+04 -2.52059E+03 -2.37148E+04  1.02296E+04 -2.11782E+04  1.33883E+04 -1.58255E+04
  1.25045E+04  9.87040E+03 -6.20168E+03  1.33976E+04 -2.02812E+04 -6.10464E+03 -6.46904E+03 -3.65077E+04
  2.29527E+04 -3.99487E+04  5.27334E+04 -1.70385E+04  5.01138E+04  1.77556E+04  1.56591E+04  4.31621E+04
 -1.74854E+04  3.43748E+04 -2.21284E+04 -1.53517E+03 -9.25964E+03 -3.17230E+04  2.01839E+04 -2.84337E+04
  3.90694E+04 -1.01110E+04  3.71621E+04  2.47714E+04  1.59720E+04  4.78668E+04 -8.67722E+03  4.37586E+04
 -3.75224E+04  3.05775E+04 -4.17902E+04  1.00364E+04 -4.12564E+04 -1.55377E+04 -2.40704E+04 -4.35326E+04
  6.41361E+03 -3.63646E+04  3.19573E+04 -1.29595E+04  3.13182E+04  4.03310E+03  4.14417E+03  1.72310E+04
 -1.00505E+04  8.69217E+03 -1.00231E+04 -4.42816E+03  5.95871E+03 -1.28131E+04  1.83258E+04  6.93753E+03
  8.86058E+03  2.43366E+04 -1.25230E+03  2.57488E+04 -2.12288E+04  5.86657E+03 -2.84414E+04 -3.00846E+03
 -2.19637E+04 -1.39958E+04 -1.19022E+04 -1.91542E+04  3.23804E+03 -2.03340E+04  1.46964E+04 -1.15745E+04
  2.47231E+04 -1.12474E+04  2.90734E+04  5.82856E+03  2.44271E+04  1.83637E+04  2.87979E+03  3.85610E+04
 -1.74215E+04  3.88284E+04 -2.71174E+04  1.38150E+04 -2.01651E+04 -1.01320E+04 -5.49390E+03 -1.68850E+04
  1.36507E+02 -2.21129E+03 -5.31078E+03  5.42782E+03 -1.77389E+04  5.41411E+03 -1.33616E+04 -9.46783E+03
 -9.91989E+03 -1.72451E+04  1.04862E+04 -2.51981E+04  9.61329E+03 -1.58150E+04  2.31122E+04 -5.49439E+03
  1.46767E+04  1.25873E+04  7.37026E+02  1.98004E+04 -1.25059E+04  1.10138E+04 -1.60956E+04 -4.63658E+03
 -1.20976E+04 -1.52652E+04 -4.20956E+03 -2.21808E+04  1.54043E+04 -1.52760E+04  2.43074E+04 -8.11520E+03
  2.06587E+04 -2.23652E+03  1.33435E+04  4.62677E+03  8.79030E+03  5.62513E+03  1.02450E+04 -8.90197E+02
  1.38927E+04  2.40244E+03  1.81253E+04  1.68955E+04  9.88748E+03  3.00280E+04  2.99178E+03  3.93516E+04
 -1.76387E+04  3.09271E+04 -3.52838E+04  1.48571E+04 -3.42807E+04 -2.25859E+03 -2.68551E+04 -1.45778E+04
 -1.32750E+04 -2.90988E+04  7.94860E+03 -2.30199E+04  2.43570E+04 -1.16023E+04  1.69227E+04  5.89717E+03
  6.35487E+03  1.34515E+04 -7.79818E+03  1.53755E+04 -1.47625E+04  6.75896E+03 -1.22452E+04 -5.15123E+03
  2.05203E+03 -1.70446E+04  3.71182E+03 -1.69108E+04  1.37368E+04 -1.07876E+02  1.61383E+03  4.50481E+03
 -3.22241E+03  5.61280E+03  8.96127E+02 -1.00617E+04 -2.13529E+03 -1.55610E+04  9.84774E+03 -1.44164E+04
  1.36936E+04 -8.86887E+03  1.89780E+04  2.23353E+03  1.06949E+04  1.33959E+04  7.52842E+03  2.42848E+04
 -6.62314E+03  2.25996E+04 -1.58917E+04  1.08835E+04 -1.79390E+04  7.09734E+02 -9.27203E+03 -3.89874E+03
 -4.25729E+03 -4.41304E+03  4.95997E+02  1.25960E+03 -1.34551E+03 -8.11778E+02  3.62157E+02  2.91380E+01
 -1.29094E+04 -1.08290E+03 -6.18765E+03 -8.55718E+03 -5.11960E+03 -1.32116E+04  2.01267E+03 -1.27793E+04
  8.38867E+03 -6.99183E+03  6.87446E+03  1.41919E+03 -1.73852E+03  1.68612E+03 -7.93614E+03 -5.87513E+03
 -2.93019E+03 -1.72772E+03 -4.78492E+03 -1.15435E+04  3.28939E+03 -9.39088E+03  1.72344E+04 -2.96309E+03
  1.67850E+04 -3.30778E+03  1.35745E+04  1.20898E+04  6.94038E+03  1.00708E+04 -4.52701E+03  7.84898E+03
 -5.68259E+03  2.80408E+03  1.40201E+02 -1.75027E+03  3.51921E+02 -2.53312E+03  2.40686E+03 -2.95960E+03
  4.26484E+03  5.75997E+03  1.84070E+03  1.03621E+04 -2.14338E+03  1.05347E+04 -9.08577E+03  1.79208E+02
 -6.08943E+03 -7.09190E+03  3.13395E+03 -8.83448E+03  8.96213E+03 -3.16891E+03  1.19926E+04  1.35164E+03
  1.78565E+03  8.13098E+03 -8.46263E+03  6.73869E+03 -1.13556E+04 -7.28782E+03 -8.94598E+03 -6.57350E+02
 -2.66072E+03 -9.75877E+03  2.79014E+03 -1.46494E+04  1.22569E+04 -4.97480E+03  1.02620E+04  2.25064E+03
  8.34382E+03  8.77485E+03  1.95839E+03  7.23254E+03 -1.03326E+04  4.25782E+03 -7.76226E+03 -7.98453E+02
 -7.62137E+03 -8.83537E+03  1.32951E+03 -8.80398E+03  3.09832E+03 -8.49309E+03  6.05533E+03 -3.87809E+03
  4.87611E+03 -2.84257E+03  2.16991E+03  6.38273E+03  1.76388E+03  1.87665E+02  5.40850E+02 -4.03127E+03
  5.52366E+03 -6.89682E+02  6.37852E+03  2.92905E+03  7.60401E+03  9.11024E+03  9.92937E+03  1.30894E+04
  2.72391E+03  1.39178E+04 -1.55539E+04  1.16918E+04 -1.53663E+04  6.05819E+03 -1.44773E+04  1.11071E+03
 -9.16108E+03 -9.74785E+03 -3.40604E+02 -1.15434E+04  1.08569E+03 -5.67281E+03 -5.72185E+01 -3.69272E+03
  1.64610E+03 -2.81221E+02  6.47121E+03 -6.47288E+03  5.42667E+03 -8.76916E+03  5.18976E+03 -2.53515E+03
  5.80095E+03  4.43747E+02  3.20923E+03  4.71993E+03  5.78695E+02  3.95052E+03 -1.55170E+04  1.24179E+03
 -9.12508E+03 -1.04442E+03 -5.65119E+03 -5.44031E+03  4.64981E+02 -1.01094E+04  3.00372E+03 -5.61444E+03
  1.87643E+03 -2.78015E+03  6.28419E+03  5.41101E+03  1.09382E+04  3.02355E+03 -1.53968E+03  1.16842E+04
 -6.88813E+03  9.10226E+03 -4.70235E+03  2.62130E+03 -6.14265E+03  2.50654E+03 -5.70099E+03 -2.68308E+02
 -1.05685E+03 -1.69327E+03 -3.26395E+03  1.64044E+03 -8.34623E+03 -8.93726E+02 -6.26558E+03 -1.65522E+03
 -3.93012E+03 -8.85871E+03  3.54163E+03 -2.11958E+03  1.43831E+03 -8.75889E+03  5.85159E+03 -5.95992E+02
  6.32692E+03  1.85409E+03  2.32699E+03  1.18668E+04  1.53632E+03  1.13358E+04 -8.94921E+03  3.53113E+03
 -8.24577E+03  3.48673E+03 -3.53663E+03 -4.93766E+03  5.07556E+03 -8.79553E+03  3.90077E+03 -5.60791E+03
  3.95146E+03 -2.69704E+03  3.40827E+03 -3.85428E+02  3.66103E+03  1.51910E+03 -1.45934E+03  7.26089E+02
 -3.87459E+02  5.81331E+02  3.09998E+03  2.59457E+03 -1.54526E+03  2.94505E+03  5.92125E+03  3.91849E+03
  1.61340E+03  6.05814E+03 -6.15067E+03  1.31495E+04 -4.61463E+03  3.33589E+03 -1.32778E+04 -5.59886E+03
 -8.40907E+02 -1.00560E+04 -6.01662E+02 -3.52305E+03  4.93791E+03 -4.73517E+03  7.25538E+03 -2.78343E+03
  8.31469E+03  4.34073E+03 -1.64204E+03  2.00502E+02  3.87471E+03 -3.46862E+02 -5.25476E+03 -3.56215E+03
  6.75405E+02 -2.57686E+03 -3.48709E+02 -3.56123E+03  1.56093E+03 -4.55173E+03  5.93159E+03  9.61205E+02
  1.71281E+03  8.80656E+02 -8.91636E+02  5.51871E+03  1.70287E+03  7.36155E+02  6.49586E+01 -1.39139E+03
 -8.51942E+02 -5.33739E+02  1.60823E+03  8.05421E+02  3.65570E+03  4.62468E+02 -2.76309E+03  4.72949E+03
 -6.37268E+03  6.06637E+03 -5.39124E+03 -1.18684E+03 -2.79058E+03 -5.33538E+00 -1.29919E+03  6.12206E+02
 -4.13505E+02  1.74484E+03  5.24987E+03  2.15459E+03  1.91106E+03 -8.66210E+02 -5.00399E+03  5.54893E+03
 -6.06436E+03  1.86491E+03 -7.15934E+03 -1.41830E+02 -3.14107E+03 -3.67717E+03  3.40044E+03 -3.30259E+03
 -2.34623E+03 -7.10137E+03 -1.70879E+03 -3.92867E+03  4.17494E+03 -1.28518E+03 -2.45475E+03  1.54990E+03
 -4.45244E+01 -2.35111E+03 -3.36189E+03  3.38316E+03  4.75265E+03 -3.87847E+02  3.53325E+03  4.31861E+02
 -5.72711E+02 -6.72325E+03  2.09711E+03 -2.30113E+02 -1.28697E+03  7.61239E+03 -8.78000E+02  2.85447E+03
 -5.31798E+03 -2.16208E+03 -2.35190E+03  2.96242E+03  1.27974E+02  2.69632E+03 -1.67119E+03 -3.12526E+03
  5.89927E+03 -3.82410E+03  2.17412E+03  2.98189E+03  1.57575E+03  7.54458E+02  1.64921E+02  1.23859E+03
 -1.14789E+03  9.67069E+02  2.58966E+03  3.53463E+03  2.91552E+03 -3.23445E+03 -8.53440E+02  2.47906E+03
 -4.48061E+03 -5.78328E+02  3.47139E+03  4.60890E+03 -7.96761E+03 -7.91839E+02 -5.98242E+03 -2.45736E+03
 -7.48225E+02 -1.16160E+03 -1.75351E+03 -3.38153E+02  5.31347E+03 -4.35249E+03  9.07694E+03 -1.91245E+03
  2.70026E+03  1.39521E+03  5.91952E+03  4.51642E+03 -8.12971E+03  6.92220E+03 -1.33208E+03  4.14316E+03
 -3.78024E+03  2.51958E+03 -1.19898E+03 -3.81041E+03 -3.88762E+03 -1.80479E+03 -6.99714E+02 -1.88052E+03
 -6.15432E+03 -1.53354E+03 -3.47790E+03 -4.67414E+02 -5.30175E+03 -5.22396E+03 -3.04241E+03 -1.10284E+03
  4.96126E+03 -1.05006E+03  1.01869E+03  1.64234E+03 -3.88596E+03  5.63348E+02  3.58794E+03  4.45988E+03
 -4.50034E+03  1.12333E+04 -6.52383E+03  5.54163E+03 -4.43898E+03 -5.25456E+02 -3.67856E+02 -4.19722E+03
  4.05015E+03 -4.03021E+03  5.36950E+03 -1.09155E+03  7.86634E+02 -4.13400E+02  4.29386E+03  1.50954E+03
  6.50651E+02  3.05220E+03  1.93869E+03  1.70709E+03  7.54181E+01 -1.33327E+02 -1.05080E+03  1.11957E+03
  8.02135E+03 -4.84080E+03  1.41537E+02 -2.84724E+03  3.33334E+03 -7.78014E+02  2.60854E+03 -2.18509E+03
 -1.41606E+03  2.46455E+03 -1.27816E+03  2.56101E+03 -5.11454E+01 -1.99041E+03 -9.79102E+02 -2.80477E+03
  8.25298E+02 -1.35000E+03  3.08579E+03 -1.06007E+03  4.47199E+03 -4.80394E+03  4.12624E+03  5.30323E+03
 -1.26665E+03  1.46530E+03 -7.26177E+02 -2.74133E+02 -2.00890E+03  3.17367E+02  4.52498E+03  2.98777E+03
 -3.19445E+03 -1.60619E+03 -6.36109E+03  4.66160E+02  3.93777E+03 -8.59526E+02 -6.44881E+02 -4.31320E+03
 -6.95409E+03 -6.40776E+01 -1.59381E+03 -9.26362E+02 -2.89232E+03 -3.15777E+03 -2.31779E+03 -2.51764E+03
  2.62225E+03 -5.83724E+03  2.38971E+02  2.34793E+01 -8.98162E+02  1.82227E+03 -2.92506E+03  3.53518E+03
