 $NMID ID='MM_0lb_SNR50_20hz_g40_87.RAW', FMTDAT='(8E13.5)'
 TRAMP=1., VOLUME=1. $END
  3.10076E+05 -1.18160E+03  3.38847E+05  2.46786E+05  8.46142E+04  3.41460E+05 -1.32416E+05  2.49520E+05
 -1.89627E+05  8.13535E+04 -1.16219E+05 -3.76238E+04 -6.97684E+02 -5.05575E+04  5.15952E+04  3.66879E+02
  3.24553E+04  5.30582E+04 -1.64485E+04  7.69680E+04 -5.95733E+04  6.03889E+04 -8.26813E+04  3.01725E+04
 -7.36513E+04 -1.18926E+04 -5.81901E+04 -4.91783E+04 -1.39305E+04 -6.66880E+04  2.34559E+04 -4.62189E+04
  3.95663E+04  2.35911E+03  1.66349E+04  4.65103E+04 -3.11963E+04  4.41946E+04 -6.25962E+04 -1.88080E+03
 -5.15295E+04 -5.90317E+04 -6.22862E+03 -6.99049E+04  3.01547E+04 -5.17515E+04  4.16330E+04 -1.77466E+04
  4.12862E+04  1.16757E+04  2.84096E+04  2.43985E+04  1.79531E+04  2.85490E+04 -2.27785E+03  2.48771E+04
 -2.20143E+04  1.38483E+04 -1.61532E+04 -3.90314E+03  2.22144E+03 -7.41733E+03  2.48233E+04  8.50243E+03
  3.22151E+03  3.15812E+04 -2.78985E+04  3.41807E+04 -6.04477E+04  8.87184E+02 -5.78846E+04 -3.83836E+04
 -1.40702E+04 -5.90538E+04  3.71866E+04 -4.06203E+04  5.18925E+04 -4.35681E+03  3.22132E+04  2.85292E+04
 -1.13902E+04  3.14109E+04 -2.81869E+04  1.15048E+04 -2.38309E+04 -9.16070E+03 -1.23603E+04 -9.28535E+03
 -6.02598E+03 -1.03515E+04 -1.00213E+03 -1.54818E+04  6.58828E+03 -2.05006E+04  1.38856E+04 -1.48662E+04
  1.09384E+04 -3.32184E+02 -7.18067E+03  1.21263E+04 -1.55172E+04 -1.31830E+03 -7.77223E+03 -2.63073E+04
  2.05571E+04 -4.15015E+04  3.95863E+04 -1.38459E+04  3.91214E+04  1.73054E+04  1.34686E+04  4.13376E+04
 -1.43903E+04  3.19142E+04 -2.12740E+04  3.88580E+03 -6.81422E+03 -2.57610E+04  1.96729E+04 -2.78952E+04
  3.51829E+04 -4.19821E+03  2.77994E+04  2.66431E+04  1.36235E+04  4.41054E+04 -8.87517E+03  4.61880E+04
 -2.88199E+04  2.86029E+04 -3.59877E+04  6.60548E+03 -3.76840E+04 -1.35235E+04 -1.71905E+04 -3.32350E+04
  6.41020E+03 -3.62085E+04  2.59394E+04 -1.43268E+04  2.52211E+04  1.05309E+04 -6.34240E+02  1.24951E+04
 -1.25179E+04  7.14795E+03 -6.04664E+03 -7.18778E+03  6.25030E+03 -1.34830E+04  1.42788E+04  5.61740E+03
  1.26663E+04  1.86308E+04 -7.49534E+03  2.70619E+04 -1.71521E+04  6.60264E+03 -2.21246E+04 -7.89988E+03
 -1.34797E+04 -1.61392E+04 -3.92515E+03 -1.41834E+04  8.51400E+03 -1.13089E+04  9.61098E+03 -1.32118E+04
  2.11775E+04 -1.19029E+04  2.85830E+04  6.84030E+02  1.54353E+04  1.49921E+04  4.90045E+03  3.25182E+04
 -1.40549E+04  2.92278E+04 -2.43254E+04  1.17294E+04 -1.38872E+04 -8.02094E+03 -3.41744E+03 -1.43830E+04
  3.55011E+03 -3.83503E+03 -4.24281E+03  8.16700E+03 -1.31138E+04  4.57379E+03 -7.68639E+03 -5.09686E+03
 -6.90982E+03 -1.33154E+04  5.01029E+03 -1.78866E+04  1.24796E+04 -1.33198E+04  1.29988E+04 -7.38245E+02
  1.14414E+04  1.23156E+04 -1.88339E+03  1.40662E+04 -1.20947E+04  7.86420E+03 -1.40581E+04 -2.21361E+03
 -9.10306E+03 -1.33137E+04 -1.71174E+03 -2.08088E+04  1.16974E+04 -1.19318E+04  1.78472E+04 -4.94600E+03
  1.58510E+04 -9.45120E+02  9.70564E+03  2.32377E+03  3.37906E+03 -2.71604E+03  5.09377E+03 -6.20856E+02
  1.44226E+04  2.97134E+03  1.34084E+04  1.12172E+04  7.30710E+03  2.24555E+04 -2.47707E+03  2.45829E+04
 -1.22466E+04  2.20163E+04 -2.41908E+04  6.68808E+03 -2.29561E+04 -2.01401E+03 -1.86042E+04 -1.12279E+04
 -1.22246E+04 -2.20911E+04  8.28003E+03 -1.66948E+04  1.25505E+04 -9.99408E+03  1.54161E+04  9.11262E+03
  6.87843E+03  9.46807E+03 -8.39532E+03  8.54813E+03 -9.45853E+03  2.17094E+03 -8.79140E+03 -7.55943E+03
 -1.89094E+03 -1.20374E+04  2.17120E+03 -5.02456E+03  6.99996E+03 -4.07857E+03  7.22906E+03  3.87015E+03
 -4.94203E+03  1.45477E+02 -9.71320E+02 -4.97190E+03 -6.01341E+02 -6.45321E+03  6.35725E+03 -7.88861E+03
  6.80084E+03 -2.09449E+03  5.72789E+03 -1.47130E+02  1.04795E+04  6.25843E+03  2.35959E+03  1.16197E+04
  2.97033E+03  1.37333E+04 -6.19030E+03  8.40378E+03 -8.41508E+03 -2.36372E+03 -7.98214E+03  5.33874E+02
 -4.46960E+02 -2.72167E+03 -4.43807E+03  2.40537E+03 -3.08378E+03 -9.06082E+02 -1.56584E+03  5.43716E+03
 -4.49955E+03  3.08216E+03 -1.13178E+04 -1.12976E+04 -6.31286E+03 -1.03478E+04  6.40308E+03 -8.91510E+03
  1.10326E+04 -5.46894E+01  5.60462E+03  2.01180E+03  1.92623E+03 -1.20133E+03 -4.25306E+03  1.38588E+03
 -8.83268E+02 -4.74549E+03 -1.88119E+03 -9.30797E+03  2.49453E+03 -7.28227E+03  1.11398E+04 -2.71937E+03
  1.34099E+04  3.60501E+03  3.96490E+03  9.40757E+03  1.08627E+03  6.32410E+03 -3.87050E+03  6.51261E+03
 -5.96109E+03  1.16827E+03 -2.64630E+03 -3.48836E+03  8.69815E+02  2.97756E+03  6.34811E+02 -1.33613E+03
  8.07594E+03  2.68458E+03 -2.24720E+03  5.11408E+03 -1.90311E+03  4.58011E+03 -3.87766E+03  1.24252E+03
 -7.15720E+03 -1.30968E+03 -5.33585E+01 -8.69350E+03  5.15135E+03 -4.58743E+03  3.94857E+03  2.87971E+03
  4.00073E+02  2.86387E+03 -2.33040E+03  3.85879E+03  1.18176E+03  1.38930E+03 -3.14680E+03  3.04777E+02
 -5.22374E+03 -2.72418E+03  1.64914E+03 -5.82162E+03  3.49727E+03  4.29622E+02  2.36163E+03  4.78116E+03
  2.28043E+03  3.85865E+03  1.96074E+03  7.38457E+03 -3.40845E+03  4.58012E+03 -4.22758E+03  4.77132E+03
 -4.91804E+03  4.65893E+02 -3.54701E+03 -7.30276E+03 -2.65520E+03 -7.10141E+03  1.69659E+03 -5.56759E+03
  3.24313E+03  2.16098E+03  3.37651E+03  1.40482E+03  2.38643E+03 -1.66865E+03 -1.19464E+03 -4.04058E+03
  5.43785E+03 -1.28005E+03  2.16694E+03 -2.22463E+03  2.74209E+03  3.58608E+03  1.10200E+04  9.41008E+03
 -2.54683E+03  6.05912E+03 -1.13894E+04  5.50561E+03 -9.59417E+03  7.26302E+02 -1.20541E+04  8.53843E+02
 -2.60536E+03 -4.99379E+03  9.48170E+02 -7.93928E+03  5.30783E+03 -3.12239E+03  4.46732E+03 -1.57314E+03
  4.15560E+03  1.18462E+03  2.20707E+03 -4.73567E+03  2.40439E+03 -3.57082E+03  9.49390E+02  2.03513E+03
  3.30976E+03  2.62695E+03  2.50406E+02 -1.20851E+03  1.02725E+03  1.17417E+01 -4.17936E+03  3.04586E+03
 -1.74168E+02 -1.05110E+03  4.67481E+03 -3.30112E+03 -1.10758E+03 -2.65269E+03 -2.04087E+03 -6.15985E+03
  5.12799E+03 -2.21978E+03  7.22895E+03 -7.28157E+02  1.36299E+03  2.41245E+03  3.16207E+03  4.53856E+03
 -2.09433E+03  3.96317E+03 -3.51044E+03  4.46649E+03  3.01240E+03  4.01755E+02 -9.35009E+02 -4.12577E+02
  1.65953E+03  1.00578E+03 -3.49992E+03 -1.76257E+02 -2.43669E+03  5.96632E+00 -3.11844E+03  2.75943E+02
 -2.00761E+03 -5.99364E+03  8.25617E+02 -7.55458E+03  2.94542E+03 -7.99687E+03  5.40967E+03  7.53988E+02
 -7.52362E+02  5.28474E+03  3.24900E+03  1.66457E+03 -4.28553E+03  3.87633E+03 -1.53986E+03  1.19891E+03
 -1.30477E+03  1.87661E+03 -2.03699E+03 -4.09141E+03  1.83280E+02  7.03002E+02  5.77400E+02 -3.23703E+03
  2.80866E+03 -4.82369E+03  3.66968E+03 -3.00841E+03  4.43475E+03  1.00354E+02 -2.27267E+03 -1.04309E+02
  5.14536E+03  9.48622E+02  2.93677E+03 -1.62125E+03  3.86067E+02 -6.42441E+02  3.28413E+03 -2.03708E+03
 -9.90698E+02  3.55569E+03 -2.44851E+03  3.30422E+03 -2.82251E+03  2.90501E+03 -3.74885E+03  5.69909E+02
  1.06717E+03 -9.24131E+02  9.06647E+02 -4.63613E+03 -2.94695E+03  3.41870E+02 -3.58904E+03 -2.81919E+03
  8.14077E+03 -1.33990E+02 -1.22286E+03 -2.81932E+02  3.77304E+02  6.20976E+03 -5.25406E+03  6.73497E+02
 -2.54711E+03 -4.24688E+03  1.20713E+03 -5.07181E+03  2.50280E+03 -2.60732E+03  3.29860E+02  9.44024E+02
  4.37299E+02  3.35954E+03  1.91849E+03 -1.46075E+03  2.35265E+02 -8.29600E+02 -2.58047E+03  4.64170E+02
 -1.74043E+03 -1.19540E+03  2.77733E+03  2.13273E+03  2.86083E+03  2.53424E+03  1.20973E+03  4.70984E+03
  1.45224E+03  1.13553E+03 -2.18006E+03  1.90601E+03 -3.52905E+03 -1.24593E+03  5.37192E+03 -2.32499E+03
 -2.88815E+03 -8.58154E+02 -6.58666E+02 -2.70532E+03  4.58872E+03  2.05170E+03 -3.62450E+03 -2.88179E+01
 -2.24121E+03  2.04117E+02  3.83765E+03 -2.54575E+03  3.08894E+02 -9.49802E+02  1.13936E+02 -2.58236E+03
 -1.54742E+03  1.03311E+03  4.33001E+03 -3.48485E+02  2.40970E+03  1.23964E+03 -5.04643E+02  2.03809E+03
 -1.50252E+03 -1.79772E+02 -1.91950E+03 -1.08209E+03 -2.91145E+03  8.44343E+02  4.46055E+03  1.56959E+03
 -1.78668E+03 -2.50630E+03  4.65503E+03  2.96451E+03  2.35472E+03 -1.64777E+03 -3.50533E+02  1.23593E+03
 -2.27232E+03  3.31263E+02 -2.65227E+03  3.79235E+02 -5.00464E+01  1.35969E+02  1.04379E+03 -1.11457E+03
  2.80560E+03  1.14980E+03 -3.12471E+02 -2.67641E+02  8.94185E+01 -2.66915E+03  3.40400E+03  3.62484E+02
 -1.89584E+03  1.45690E+03  5.00808E+02 -2.08033E+03 -2.16388E+03 -4.24773E+03  1.33410E+03 -7.19084E+02
  1.73472E+03  1.86222E+03 -3.98484E+03 -1.43974E+03  1.78778E+03  5.33296E+03 -4.29909E+03 -1.24812E+03
  5.41431E+02 -4.45505E+03 -3.33270E+03  1.88925E+02  1.31000E+03  1.81106E+02  2.61176E+03  1.55870E+03
  7.83842E+02 -7.45830E+02  3.86216E+03  1.05696E+03 -6.19954E+03  1.71384E+02 -2.01619E+03 -2.90865E+03
 -2.22112E+03 -1.05998E+02 -3.98757E+02  3.90694E+03  1.57893E+03 -1.14439E+03 -6.72914E+03 -8.66271E+02
 -1.92651E+03 -7.30615E+02 -3.46050E+03  3.67599E+03 -5.98948E+03 -1.65251E+03 -4.40605E+03 -4.43920E+02
  8.92918E+02  2.84561E+03 -2.56790E+03  2.57473E+03  3.75918E+03  1.93077E+03  1.27845E+03  3.60986E+03
  2.44049E+03  4.02356E+03 -1.07311E+03  4.87338E+01 -2.75266E+03 -3.83974E+03 -1.58433E+03  3.07288E+02
 -3.12082E+03 -2.59384E+03  2.85896E+03 -2.74795E+01  3.10075E+03  1.11583E+03  2.17364E+03 -2.56278E+03
  6.41917E+01 -1.57090E+03  5.56768E+03  4.45015E+02  2.02171E+03  2.09642E+03 -2.30748E+03  1.60578E+03
  1.78448E+03 -1.39228E+03 -1.00080E+03 -4.38550E+02 -1.86159E+03 -2.27932E+03 -9.41199E+02 -1.42736E+03
 -2.57585E+03 -2.94311E+02  6.24157E+01 -5.85425E+03 -1.11138E+03 -1.19737E+02  3.27118E+03 -4.81067E+03
 -3.26096E+03  2.92991E+03 -3.21516E+03 -8.21205E+02 -2.94588E+03 -3.31960E+03  1.33576E+03 -1.31513E+03
 -6.96386E+02  2.32957E+03  8.68177E+02 -1.12967E+03 -3.06315E+02 -4.45289E+02 -2.21067E+03 -3.03740E+03
 -2.27306E+03 -7.43397E+01 -9.65951E+02  1.23887E+03  1.29141E+03 -1.21954E+03 -1.42857E+02  2.92873E+03
 -8.90298E+02  2.91689E+03 -3.09694E+03 -2.26086E+03  3.10837E+03 -6.63039E+02  2.14869E+03  1.55455E+03
  1.50841E+03  2.97761E+02  5.09423E+02  1.12906E+02 -3.22416E+02  3.63928E+03  6.55502E+02 -6.70398E+02
