 $NMID ID='MM_0lb_SNR50_12hz_g50_77.RAW', FMTDAT='(8E13.5)'
 TRAMP=1., VOLUME=1. $END
  3.13251E+05  2.63192E+03  3.33949E+05  2.55213E+05  8.58152E+04  3.40450E+05 -1.33155E+05  2.48842E+05
 -1.91714E+05  8.09271E+04 -1.12669E+05 -3.73069E+04  3.68137E+03 -4.79228E+04  5.53628E+04 -1.01583E+04
  3.43975E+04  5.10841E+04 -1.61746E+04  7.19227E+04 -6.36495E+04  7.03280E+04 -8.22414E+04  3.36384E+04
 -8.01868E+04 -6.88660E+03 -5.63495E+04 -4.59734E+04 -1.92785E+04 -6.70031E+04  3.14389E+04 -4.67064E+04
  3.66356E+04  4.79864E+03  2.46734E+04  5.29277E+04 -3.49100E+04  4.84744E+04 -6.96863E+04  3.86503E+03
 -5.10973E+04 -5.53478E+04 -1.06377E+04 -8.07170E+04  4.02024E+04 -5.14651E+04  4.79813E+04 -1.93808E+04
  3.91753E+04  1.44889E+04  3.20416E+04  2.78962E+04  1.41708E+04  3.05717E+04 -2.35066E+03  3.10392E+04
 -2.17834E+04  1.26971E+04 -2.10241E+04 -4.44564E+03  4.08911E+03 -1.39107E+04  1.87856E+04  1.11261E+04
  8.94786E+03  3.74964E+04 -3.04931E+04  3.45804E+04 -6.40521E+04  4.43801E+03 -6.16034E+04 -4.22420E+04
 -6.90181E+03 -6.43445E+04  4.31805E+04 -4.93721E+04  5.74637E+04 -4.05224E+03  3.30222E+04  3.99009E+04
 -5.85673E+03  3.90868E+04 -2.79231E+04  1.60800E+04 -2.87691E+04 -2.23274E+03 -1.98277E+04 -1.44107E+04
 -1.04363E+04 -9.36746E+03 -4.86730E+02 -1.59122E+04  4.66496E+03 -2.57187E+04  1.42517E+04 -1.63476E+04
  1.28262E+04  1.03462E+04 -6.99315E+03  1.29713E+04 -2.73755E+04 -6.44162E+03 -7.67554E+03 -3.87487E+04
  2.63475E+04 -4.56263E+04  5.38956E+04 -1.61591E+04  4.68048E+04  1.78654E+04  2.10288E+04  4.65755E+04
 -1.93607E+04  3.59209E+04 -2.55258E+04  1.58581E+03 -8.22957E+03 -2.50539E+04  2.05636E+04 -2.92620E+04
  3.83935E+04 -5.71657E+03  3.92669E+04  2.23973E+04  2.11073E+04  4.43745E+04 -1.00909E+04  5.41861E+04
 -3.23713E+04  3.21425E+04 -4.45446E+04  9.05320E+03 -4.50071E+04 -1.74268E+04 -2.60652E+04 -3.59550E+04
  8.34387E+00 -3.78590E+04  3.53796E+04 -1.58647E+04  2.90595E+04  1.21173E+04  6.44237E+03  1.46516E+04
 -9.11813E+03  8.97645E+03 -1.22787E+04 -9.42861E+03  5.85528E+03 -1.51396E+04  1.88116E+04  8.91111E+03
  1.34269E+04  2.37533E+04 -9.64162E+03  2.11347E+04 -2.67898E+04  1.44965E+04 -2.60113E+04  1.43095E+03
 -2.18241E+04 -1.94619E+04 -9.71806E+03 -2.15677E+04  4.85550E+03 -2.04611E+04  1.95010E+04 -2.19035E+04
  2.87250E+04 -1.50096E+04  3.20715E+04 -4.28952E+02  2.64730E+04  2.73786E+04  3.94337E+03  3.56082E+04
 -1.56062E+04  3.01299E+04 -2.59627E+04  1.38834E+04 -2.36173E+04 -9.44985E+03 -3.31994E+03 -1.39650E+04
  4.78664E+03 -3.12496E+03 -4.90491E+03  7.38872E+03 -1.76386E+04  2.07187E+03 -1.72131E+04 -5.93305E+03
 -1.03316E+04 -1.99342E+04  4.04695E+03 -2.93395E+04  1.41466E+04 -1.73258E+04  1.73927E+04  1.33827E+03
  1.57673E+04  1.55049E+04  1.24047E+03  1.71053E+04 -1.78323E+04  1.18024E+04 -2.26637E+04 -7.63111E+03
 -1.38284E+04 -2.08510E+04  1.51989E+03 -2.42117E+04  5.98584E+03 -2.18829E+04  2.37498E+04 -1.83514E+04
  1.75236E+04 -1.47273E+03  1.89932E+04  3.42666E+03  2.02619E+03 -6.63132E+03  1.77113E+04 -4.70092E+03
  1.73172E+04  1.36773E+03  1.98449E+04  2.04824E+04  1.62887E+04  3.58775E+04 -2.34397E+03  3.80108E+04
 -2.67343E+04  2.91254E+04 -4.11177E+04  1.38964E+04 -4.16298E+04 -5.91481E+03 -2.20793E+04 -2.21392E+04
 -1.16481E+04 -2.90871E+04  7.97933E+03 -3.01248E+04  2.23464E+04 -1.15801E+04  1.73480E+04  1.17689E+04
  6.46418E+03  2.03761E+04 -6.95507E+03  1.13782E+04 -1.49927E+04  2.88842E+03 -1.27836E+04 -1.40195E+04
 -2.12092E+03 -1.24910E+04  1.16527E+04 -1.14350E+04  1.01603E+04 -4.58455E+03 -6.51152E+02  1.04178E+04
 -6.23089E+03  2.68548E+03 -7.44521E+03 -6.35198E+03 -3.48526E+03 -1.03180E+04  7.54518E+03 -1.81739E+04
  2.12324E+04 -8.93424E+03  2.11221E+04  2.71565E+03  1.76351E+04  1.35674E+04  7.86415E+03  1.91651E+04
 -5.06137E+03  2.84667E+04 -1.42937E+04  1.91106E+04 -2.27203E+04  2.14438E+03 -1.79048E+04 -1.21308E+03
 -7.65521E+03 -6.10992E+03 -5.03780E+03 -2.65304E+03 -7.01640E+03  5.34904E+03 -8.13503E+03  2.82373E+03
 -9.75852E+03 -6.91097E+03 -1.14344E+04 -1.11174E+04 -8.32492E+03 -1.93347E+04  5.22755E+03 -1.90593E+04
  7.90264E+03 -5.36139E+03  4.83810E+03  4.82641E+03  7.66943E+03  7.33765E+03 -4.71101E+03  5.28043E+03
 -8.37925E+03 -1.48875E+04  7.68064E+02 -1.13891E+04  5.18517E+03 -1.25943E+04  1.64904E+04 -1.10292E+04
  1.88839E+04  9.46340E+02  1.31980E+04  1.07496E+04  2.52265E+03  1.72056E+04 -8.78971E+03  1.37798E+04
 -9.68962E+03  3.17355E+03 -4.62631E+03 -1.11658E+03  3.37361E+03 -4.92544E+03  8.87671E+03  1.82975E+03
  1.28028E+04  6.80841E+03 -3.71587E+03  1.23490E+04 -4.71877E+03  1.04030E+04 -1.09537E+04  1.42204E+01
 -6.60591E+03 -1.28798E+04  1.88513E+03 -1.02223E+04  1.07302E+04 -3.76675E+02  7.64723E+03  2.66963E+02
  7.02150E+03  7.05969E+03 -7.63176E+03  8.81158E+03 -1.10891E+04  4.64489E+03 -9.04545E+03 -5.25465E+03
 -5.24846E+03 -1.52557E+04  1.02076E+04 -1.29659E+04  1.22669E+04 -9.76259E+03  8.21471E+03  1.97806E+03
  1.00646E+04  7.36070E+03  3.06240E+03  1.66376E+04  3.65928E+01  6.94741E+03 -1.18182E+04 -4.29131E+03
 -9.39410E+03 -5.72017E+03 -4.18529E+02 -1.00584E+04  1.37078E+03 -6.96523E+03  2.74224E+03 -4.41728E+03
  4.67632E+03  6.18198E+02 -6.75353E+03  1.17094E+03 -2.11108E+03 -5.15405E+03 -2.00343E+03 -7.20492E+02
  3.14554E+03 -3.80448E+03  1.82132E+04  9.80841E+02  9.74736E+03  3.92967E+03  2.70851E+03  1.52582E+04
  2.89164E+03  1.41672E+04 -1.42200E+04  1.17272E+04 -2.29712E+04  5.86564E+02 -1.09620E+04 -9.18755E+03
 -8.14184E+03 -1.32628E+04  2.95414E+03 -1.32497E+04  5.83619E+03 -4.71481E+03  2.80215E+03 -4.40663E+03
  1.85092E+03 -2.17895E+02  4.02546E+03 -5.03703E+03 -2.87994E+02 -3.39604E+03  4.21674E+03 -2.30840E+03
  8.11101E+03  1.80747E+03 -1.54257E+03  8.21585E+03 -1.50612E+03  7.91019E+03 -4.13046E+03  8.64626E+03
 -5.63821E+03 -5.69309E+03 -9.81649E+03 -8.13018E+03 -6.15425E+03 -9.64084E+03  5.04646E+03 -1.04803E+04
  1.00479E+04 -9.09193E+03  1.60136E+04  1.17966E+03  8.11384E+03  1.02058E+03  1.26732E+03  1.37156E+04
 -1.99774E+03  9.84699E+03 -2.58630E+03  4.03620E+03 -7.22248E+03 -3.87993E+03 -3.06295E+03 -1.59805E+03
 -8.29318E+02 -8.54502E+01 -5.82748E+02  3.39441E+03 -1.00719E+03  1.71405E+03 -8.61965E+03  8.88393E+01
 -7.75476E+03 -1.46404E+03  7.65387E+02 -8.93924E+03  3.97370E+03 -1.10078E+04  1.40342E+04 -2.85314E+03
  1.22556E+04  6.05288E+03  8.36675E+03  6.34518E+03  6.24631E+02  5.74450E+03 -8.64933E+03  9.50768E+03
 -9.58515E+03  2.83785E+03 -4.03019E+03 -5.81222E+03 -1.87879E+03 -6.88394E+03 -4.95862E+02 -6.15482E+03
  6.85794E+03 -4.47869E+03 -1.34398E+03  7.78641E+02  5.65039E+03  1.25079E+03 -1.44653E+03 -2.69241E+03
 -1.34903E+03 -1.92923E+03  8.06157E+02  1.02031E+03  6.02714E+03  2.16326E+03  9.95943E+03  2.50753E+02
 -9.28771E+03  7.59548E+03 -4.29383E+03  6.60967E+03 -1.20958E+04  4.16586E+03 -1.18540E+04 -5.05165E+02
 -3.24293E+03 -1.65689E+04  4.94822E+03 -1.00321E+04  7.75302E+03 -1.09502E+04  4.85792E+03 -5.92894E+02
  6.52221E+03  4.16586E+03 -7.75528E+02  3.47721E+03  8.00312E+02  2.81894E+03 -5.09959E+03 -3.48422E+02
 -1.15468E+03 -6.89260E+03  3.10120E+02 -2.08952E+03  5.41004E+03 -5.50872E+03  2.73031E+03 -2.07992E+03
  5.58031E+03  3.66712E+02  4.80964E+03 -1.96025E+03 -6.72614E+03  4.96061E+03  2.52304E+03  6.96525E+01
  1.87331E+03 -6.73181E+01  7.00544E+03  3.24206E+02 -8.96329E+02  6.02198E+03  2.59629E+03  8.82567E+03
 -5.93992E+03  9.55795E+03 -5.34185E+03  2.81325E+03 -5.81351E+03 -6.30639E+03 -2.20838E+03  1.37827E+03
 -2.39106E+03 -6.46407E+03  1.36755E+03 -1.82867E+03 -1.68214E+01  3.53638E+03  1.96966E+03  3.12210E+00
 -6.24815E+03 -4.15644E+01 -6.09331E+03 -5.28626E+03 -4.07171E+03 -3.97936E+03  1.29677E+03 -4.83767E+03
  2.96311E+03  2.50569E+02  6.97067E+03  6.98750E+03  3.40573E+03  2.35369E+03  1.87465E+03 -1.69701E+02
 -3.27674E+03  1.94799E+03 -5.43717E+03  6.16960E+01 -6.76709E+02 -6.90416E+03  3.81187E+03 -3.81881E+03
  1.40790E+04 -5.32901E+00  4.78953E+03  4.62338E+03 -3.43885E+03  1.16620E+04  3.81663E+03  3.65285E+03
 -3.00959E+03 -1.39473E+03 -9.16155E+02  3.60432E+03 -2.57682E+03 -3.67150E+03 -6.23118E+02 -8.94992E+02
  6.02427E+03 -6.04091E+03  3.68477E+03  5.65597E+03 -3.21186E+01  2.06483E+03  1.27975E+03  2.10838E+03
 -5.99449E+01  1.41751E+03  4.09512E+02  1.08570E+03 -1.38942E+03 -5.74498E+02  5.55606E+02  4.88952E+03
  1.37569E+03  1.42621E+03 -3.17466E+03  1.81423E+03 -9.12109E+02  2.20823E+03 -7.43933E+03 -5.73573E+03
  7.62905E+02 -1.02932E+04  5.67070E+03 -1.15443E+04  5.27941E+03 -3.42308E+03  8.26560E+03 -4.83942E+03
  7.36629E+03  4.45102E+03  2.19555E+03  5.86455E+03  2.62009E+03  2.79217E+03 -9.39774E+02  7.89176E+03
 -1.06214E+03  3.02034E+03 -5.93095E+03  8.13626E+02  3.97328E+03 -2.11795E+02 -1.49102E+03  5.81189E+02
 -1.09438E+03  1.73488E+03 -3.98918E+03 -8.94834E+02 -6.14431E+02  1.85970E+03  4.64608E+03 -2.65163E+03
  1.37476E+03 -6.76461E+02  7.04419E+03  2.27918E+03  2.43559E+03  5.75227E+03  1.41787E+03  9.02180E+03
 -5.82617E+03  7.93527E+03 -4.21448E+03  1.06165E+04 -8.65248E+03 -3.94710E+02 -4.33432E+03 -4.71857E+03
 -1.76365E+03 -9.00300E+03  2.89889E+03 -7.56130E+03 -3.86175E+03 -4.70643E+03  6.47052E+02 -3.90327E+03
  5.59850E+03 -2.52869E+03 -1.30482E+03  1.28518E+03  2.59853E+03 -9.89027E+03 -6.63040E+03 -5.19936E+03
 -2.58467E+02  2.28970E+02  1.61906E+03 -3.25134E+03 -8.71930E+02  7.92190E+03 -1.49250E+03  7.94554E+03
 -4.51727E+03 -1.54569E+03 -7.47721E+02  3.40792E+03 -3.00950E+03 -3.86849E+03 -1.65630E+02 -2.47954E+03
  5.16091E+03 -3.59727E+03  6.17626E+03 -6.48389E+03  4.29316E+03  5.26541E+03  4.96930E+03  8.09330E+03
  2.98910E+02  2.89308E+03  4.64519E+03  8.97620E+03 -1.19221E+03  2.40047E+03  6.69912E+02  3.63862E+03
 -2.48912E+03 -2.29907E+03 -2.03717E+03  7.49587E+03 -1.03220E+03  2.28009E+03 -6.82734E+03 -1.72409E+03
 -5.35812E+03 -3.15600E+03  5.22736E+03  2.58074E+03  2.85448E+03 -5.17607E+03  8.94541E+01  5.80052E+02
  8.44275E+03  2.43031E+03  4.84712E+03  4.44367E+03  1.63420E+03  2.68208E+03 -3.80331E+03  4.65827E+03
