 $NMID ID='MM_0lb_SNR50_17hz_g55_28.RAW', FMTDAT='(8E13.5)'
 TRAMP=1., VOLUME=1. $END
  3.11252E+05 -3.40331E+03  3.36650E+05  2.51932E+05  8.34528E+04  3.40121E+05 -1.28293E+05  2.53037E+05
 -1.87716E+05  7.88630E+04 -1.12559E+05 -3.22307E+04 -1.00296E+02 -4.99604E+04  5.23237E+04 -7.91993E+02
  3.85508E+04  5.30958E+04 -1.64329E+04  7.52516E+04 -6.20901E+04  6.36264E+04 -8.02932E+04  3.36927E+04
 -8.27650E+04 -7.75103E+03 -5.35106E+04 -5.34648E+04 -1.48708E+04 -6.75758E+04  2.85148E+04 -4.56741E+04
  4.56119E+04  3.82793E+03  1.67948E+04  4.70941E+04 -3.74958E+04  4.72399E+04 -7.02608E+04  1.32516E+03
 -5.34362E+04 -5.62553E+04 -6.69635E+03 -7.57085E+04  3.42108E+04 -5.57442E+04  4.95477E+04 -1.38719E+04
  4.67439E+04  1.29805E+04  2.89240E+04  2.25276E+04  1.90467E+04  3.39985E+04 -3.17522E+03  2.91987E+04
 -2.55565E+04  1.43737E+04 -1.89143E+04 -1.02917E+03  5.12366E+03 -8.64556E+03  2.48067E+04  1.14061E+04
  6.85052E+03  4.33808E+04 -3.10829E+04  3.57479E+04 -6.85852E+04  4.15140E+03 -5.60898E+04 -4.00491E+04
 -1.19972E+04 -6.16572E+04  4.02241E+04 -4.17826E+04  5.83775E+04 -1.85332E+03  3.30311E+04  3.73077E+04
 -2.86330E+03  3.56425E+04 -2.69893E+04  1.45405E+04 -3.38032E+04 -4.54005E+03 -1.49043E+04 -1.47679E+04
 -6.66412E+03 -1.34808E+04  7.62343E+02 -2.21151E+04  1.07683E+04 -2.20869E+04  1.57459E+04 -1.84567E+04
  1.56063E+04  4.02044E+03 -8.62953E+03  1.34390E+04 -1.98891E+04 -6.74216E+03 -8.09874E+03 -3.53826E+04
  2.13994E+04 -4.22566E+04  4.34575E+04 -1.70667E+04  4.34162E+04  2.07880E+04  1.48769E+04  4.43565E+04
 -1.53262E+04  2.87062E+04 -2.64416E+04 -2.97945E+03 -5.30447E+03 -2.56098E+04  2.22975E+04 -3.28404E+04
  3.99176E+04 -9.89221E+03  3.24932E+04  2.04387E+04  1.67488E+04  4.61763E+04 -4.31105E+03  4.78725E+04
 -2.71254E+04  2.90505E+04 -4.31872E+04  6.94090E+03 -4.53245E+04 -1.20764E+04 -2.35713E+04 -3.62347E+04
  5.96478E+03 -3.52187E+04  3.19485E+04 -1.48001E+04  2.41949E+04  1.23100E+04  5.15427E+03  1.16916E+04
 -1.70797E+04  7.26942E+03 -1.35597E+04 -8.93112E+03  6.07732E+03 -1.43825E+04  1.66554E+04  5.05394E+03
  1.18549E+04  2.07733E+04 -4.78123E+02  1.86984E+04 -1.88004E+04  8.04817E+03 -2.66513E+04 -6.39907E+03
 -1.53123E+04 -1.82098E+04 -6.99408E+03 -2.13247E+04  3.75777E+03 -1.83827E+04  1.54911E+04 -1.95287E+04
  2.17170E+04 -1.59294E+04  2.71019E+04  1.85730E+03  2.60740E+04  1.81257E+04  5.37817E+03  3.31838E+04
 -1.53893E+04  2.93068E+04 -2.82543E+04  8.78132E+03 -2.53512E+04 -8.83051E+03 -3.07553E+03 -1.17458E+04
  1.69596E+03 -7.19610E+03 -1.27398E+03  7.15047E+03 -1.94668E+04  3.77946E+03 -1.62542E+04 -7.85843E+03
 -8.63569E+03 -1.69113E+04  8.23166E+03 -2.11495E+04  1.29824E+04 -1.34095E+04  1.35274E+04  2.74741E+02
  7.72965E+03  1.22223E+04 -9.30132E+02  1.59019E+04 -1.11011E+04  1.11832E+04 -1.91049E+04 -4.23818E+03
 -1.29259E+04 -1.99298E+04 -2.62435E+03 -2.20388E+04  1.05839E+04 -1.64551E+04  1.58533E+04 -9.45458E+03
  1.87843E+04  1.33721E+03  1.30922E+04  3.63116E+03  6.37156E+03  1.62841E+03  8.79572E+03  8.91578E+02
  1.34836E+04 -8.54971E+00  2.13481E+04  9.95049E+03  1.51770E+04  2.81538E+04 -4.57336E+03  3.35499E+04
 -1.82397E+04  2.09057E+04 -2.79218E+04  9.92352E+03 -3.19895E+04 -4.57592E+03 -2.36229E+04 -1.91946E+04
 -1.59223E+04 -2.77498E+04  4.83570E+03 -2.50922E+04  1.94121E+04 -1.04008E+04  1.66589E+04  4.49366E+03
  1.03746E+04  1.29815E+04 -7.51789E+03  1.37432E+04 -1.50683E+04  7.68393E+02 -1.17833E+04 -7.64454E+03
  2.78815E+03 -1.31213E+04  3.87408E+03 -1.30739E+04  1.01700E+04 -1.72033E+03  1.45026E+03  7.97787E+03
 -5.17241E+03  5.09457E+03 -5.29614E+03 -6.15613E+03  1.14380E+03 -1.43278E+04  1.06437E+04 -1.05456E+04
  1.14267E+04 -3.31839E+03  1.62638E+04  2.39344E+03  1.47195E+04  1.39631E+04  3.96112E+03  1.80986E+04
 -7.73969E+03  1.67982E+04 -8.29977E+03  1.40528E+04 -1.38059E+04  2.76490E+03 -1.30041E+04  1.40474E+03
 -2.17325E+03 -4.19259E+03 -8.07398E+02  1.03820E+02 -1.25146E+03  1.44585E+02 -7.22757E+03  7.28360E+03
 -9.26456E+03  2.61608E+03 -8.48923E+03 -5.88425E+03 -5.47485E+03 -1.45460E+04  2.68872E+03 -7.70825E+03
  9.27666E+03 -3.10511E+03  5.45871E+03 -1.72782E+03 -4.51169E+03  2.68040E+03 -3.30841E+03  8.27173E+02
 -7.66695E+03 -9.03733E+03  1.46539E+03 -1.22112E+04  2.86198E+03 -6.91733E+03  1.49200E+04 -6.03360E+03
  1.54313E+04  3.22549E+03  9.56906E+03  1.31034E+04 -2.00285E+03  1.21778E+04 -5.28098E+03  1.03507E+04
 -6.82517E+03  2.29194E+03 -2.89714E+03 -1.03655E+03 -7.46630E+02  2.45607E+02  8.59187E+03 -4.20443E+03
  7.47407E+03 -3.06424E+02  4.52996E+03  6.08442E+03 -1.13932E+03  7.28909E+03 -1.18664E+04  4.73188E+02
 -4.48065E+03 -6.79597E+03  4.11937E+03 -1.13436E+04  2.86794E+03 -4.03950E+03  4.70744E+03  6.40437E+01
  5.46479E+03  4.97784E+03 -5.70539E+03  3.48050E+03 -3.35705E+03  1.22038E+03 -6.30462E+03  2.66584E+03
  7.55354E+02 -1.09111E+04  2.27291E+03 -1.23484E+04  8.08870E+03 -3.97867E+03  6.62916E+03  4.74004E+02
  4.17004E+03  8.52321E+03  1.05299E+03  8.64691E+03 -3.21016E+03  5.99494E+03 -5.81096E+03  4.74342E+02
 -4.09211E+03 -6.36125E+03  3.69277E+03 -5.47987E+03  4.42597E+03 -2.33048E+03  2.33975E+03 -5.25303E+03
  1.96912E+03 -2.16715E+03  1.20790E+03 -6.22187E+02 -4.48451E+01 -8.51103E+01 -1.24914E+03 -7.06145E+03
  6.46093E+03  1.96189E+03  1.33816E+04  1.36460E+03  6.33373E+03  5.25483E+03  3.28568E+03  1.11279E+04
  1.30032E+03  1.03059E+04 -6.24757E+03  7.95050E+03 -1.20995E+04  1.68760E+03 -9.42494E+03 -6.18792E+03
 -4.06809E+03 -3.44740E+03 -1.38151E+03 -7.95847E+03 -3.39179E+03  1.00079E+02  2.79312E+03 -2.21941E+03
  6.56132E+02 -5.91904E+03  7.30036E+02  1.10289E+03  3.16418E+03 -4.90975E+03  3.12398E+03 -6.67537E+02
  3.62402E+03 -2.66831E+03  3.80888E+03  1.51134E+03 -5.07533E+03  4.25715E+03 -4.64189E+03  2.85814E+03
 -1.09839E+04 -7.06045E+02 -2.78613E+03 -7.59478E+03  1.56230E+03 -5.04959E+03  6.21249E+03 -6.65539E+03
  1.00607E+04 -5.35793E+03  9.02123E+03 -9.11563E+02  6.52521E+03  3.39382E+03 -1.01637E+03  5.26818E+03
  2.54608E+03  6.47210E+03 -5.02369E+03  3.03990E+03 -7.44970E+02 -8.52365E+02 -3.02449E+03  2.25255E+02
  1.14355E+03 -5.01669E+02 -6.58150E+03  1.20201E+03 -6.83682E+03  2.56151E+03 -1.93934E+03  7.74957E+02
 -2.48433E+03 -2.23544E+03  2.53828E+03 -8.80824E+03  1.41068E+03 -2.26472E+03  2.82024E+03 -8.14101E+02
  6.44411E+03  3.09267E+03  2.84469E+03  2.49636E+03  1.42034E+03  5.66032E+03 -3.59897E+03  4.05450E+02
 -1.48568E+03  2.44128E+03 -3.64043E+03 -3.04882E+03 -4.13291E+02 -5.04558E+03  1.30930E+03 -1.03081E+02
  3.31182E+03  4.14766E+03  9.33234E+02  5.32359E+03 -8.32384E+01  3.60995E+03  4.78055E+03 -2.56781E+03
  1.09146E+03  1.92311E+03  1.77720E+03 -1.42442E+03 -3.62462E+03  2.29508E+03  1.16074E+03  6.36975E+03
 -3.90288E+03  7.17141E+03 -3.78422E+03  1.40496E+03 -4.19005E+03  2.00142E+03 -2.70273E+03  5.10503E+03
 -1.16902E+03 -4.07835E+03  2.99771E+03 -6.74754E+03 -8.81912E+01 -3.57945E+03  1.97683E+03 -3.56543E+03
  4.75405E+02  3.01011E+03  1.00484E+03 -8.12927E+01 -1.75524E+03  3.49819E+02 -1.41709E+02 -4.40284E+03
 -2.28004E+03 -2.81552E+03  4.54265E+03 -2.30174E+03  2.54871E+03  1.99118E+03  1.39004E+03 -4.41243E+03
 -2.04533E+03 -2.40069E+03  4.66987E+03  4.69013E+02  5.04816E+02  5.78775E+03  5.23574E+03 -9.93299E+02
 -2.16311E+03  4.32798E+03  1.01221E+03  1.99073E+02 -1.44386E+01  6.16574E+03  2.51271E+03  8.20411E+03
 -4.96868E+02  2.12119E+03  1.55622E+03  2.31774E+03 -1.58217E+03  3.43910E+03 -9.50893E+02 -3.02936E+03
 -2.06523E+03 -2.42843E+03  8.17584E+02 -2.48115E+03  1.53269E+03  2.20822E+03 -8.35548E+02  2.09111E+02
  2.61688E+03  1.01643E+03 -4.31515E+02 -7.52664E+02  2.13355E+03 -3.50481E+03  2.61206E+03 -1.15223E+03
  6.80502E+03 -1.22282E+03 -2.73867E+02  1.56244E+03  3.39601E+03 -1.08471E+03  1.95164E+01  4.98591E+03
 -1.89279E+03  2.58143E+03 -2.52282E+03  4.73049E+03  3.76893E+03 -2.23578E+03  2.94773E+03  3.15827E+03
  6.00150E+03  1.31567E+02  3.17515E+03  1.02436E+03  6.46632E+03  1.26015E+03  2.94934E+02  2.34410E+03
 -5.91041E+03 -8.96173E+02 -1.44018E+03  3.80352E+03  3.28254E+03 -2.54881E+02  2.59462E+03  1.36786E+03
  5.67283E+03  2.11063E+03  3.06498E+03  2.09709E+03 -1.86051E+03  6.30818E+02  2.76501E+03  5.49886E+03
 -4.25384E+02  6.53668E+02 -3.80413E+03  4.08652E+03 -4.13790E+02  1.73043E+03  4.19532E+03 -1.88278E+03
  1.82118E+03 -2.80733E+03 -3.84052E+03  3.69235E+02 -5.64326E+03 -3.68970E+03 -2.08604E+03 -1.46454E+03
  1.56724E+03  2.06339E+01  6.32339E+01 -5.55698E+03 -1.05458E+03 -5.74494E+03  6.38921E+03  1.07536E+03
  4.66834E+03  6.36183E+03  7.23871E+03  5.53918E+03 -3.62728E+03  2.62872E+03 -2.79316E+03 -1.49995E+02
 -1.23935E+03 -3.18676E+03  1.63767E+02  4.12946E+03  3.32508E+02  1.50546E+01 -4.25594E+03  2.18415E+03
 -1.03169E+03  1.74163E+03  5.90051E+02 -1.79539E+03 -1.45887E+03  2.01860E+03 -1.21413E+03 -6.89157E+02
  1.28785E+03 -2.37925E+03  6.44100E+02 -2.45465E+03  1.17807E+03  2.48843E+03 -1.37118E+03  4.60023E+03
 -3.63757E+03  2.49887E+03 -6.48377E+03  1.38995E+03 -2.34748E+03  7.03786E+01 -6.46115E+03  9.26517E+01
 -3.18921E+03 -5.40782E+03  2.13954E+03 -2.07868E+03  4.91216E+03  3.61734E+03  1.99664E+03 -1.35100E+02
 -4.47392E+03  1.53753E+03 -4.13921E+03 -1.83308E+03  3.07005E+03 -3.03278E+02  1.74345E+02 -1.22467E+03
 -3.85292E+02 -5.26503E+03 -2.26669E+02 -2.63210E+03 -2.34809E+03  4.18918E+03 -1.51608E+03  5.42184E+02
 -9.13920E+02  7.66224E+02 -1.00366E+03 -4.11229E+02 -1.33709E+03 -2.04390E+03 -3.47358E+03 -3.11761E+03
 -2.22059E+03 -7.50284E+02  4.98399E+02 -2.07039E+03 -3.63199E+02  5.96507E+03  7.76075E+03  1.51654E+03
 -2.48555E+01  3.27062E+03  2.87483E+03  4.52502E+03 -1.40096E+02 -4.18655E+03  8.84667E+02 -6.72454E+03
  9.56078E+02  2.27504E+03 -8.22800E+02  4.42364E+01  1.44164E+03  3.68420E+03 -4.38759E+03  1.51121E+03
 -2.47400E+03  2.14778E+03 -2.03995E+03  9.55648E+02  6.66477E+01 -5.71456E+03  5.19756E+02 -2.95552E+03
  1.33701E+03  3.36560E+02  1.76443E+03  1.10054E+03 -5.14226E+03 -2.87195E+01 -2.69098E+02 -1.61282E+03
