 $NMID ID='MM_0lb_SNR50_10hz_g45_64.RAW', FMTDAT='(8E13.5)'
 TRAMP=1., VOLUME=1. $END
  3.11562E+05 -4.54029E+02  3.42821E+05  2.50837E+05  8.44664E+04  3.45585E+05 -1.38355E+05  2.48766E+05
 -1.89626E+05  8.06896E+04 -1.11243E+05 -3.49589E+04 -3.57848E+02 -5.16865E+04  4.87209E+04 -1.15620E+02
  3.50439E+04  5.68049E+04 -1.34459E+04  7.32455E+04 -6.06336E+04  6.81055E+04 -8.49935E+04  3.00372E+04
 -7.87447E+04 -1.12012E+04 -5.15003E+04 -4.84721E+04 -1.67023E+04 -6.91751E+04  2.49296E+04 -4.09469E+04
  4.07500E+04 -1.23954E+03  1.62486E+04  5.33074E+04 -3.46901E+04  4.88878E+04 -6.75765E+04  1.17164E+03
 -5.84115E+04 -5.32412E+04 -1.28183E+04 -7.32470E+04  3.36590E+04 -5.52562E+04  5.09880E+04 -1.53565E+04
  4.76370E+04  1.04441E+04  3.39639E+04  2.41165E+04  1.22548E+04  3.49149E+04 -5.73785E+03  2.89631E+04
 -2.02892E+04  1.60263E+04 -1.67227E+04 -6.45325E+03  5.26083E+03 -5.52191E+03  2.33172E+04  1.37541E+04
  7.07189E+03  3.68446E+04 -2.73423E+04  4.03748E+04 -6.29212E+04  3.91222E+03 -5.82985E+04 -4.01569E+04
 -1.14218E+04 -6.76713E+04  3.72846E+04 -4.45927E+04  5.92942E+04 -4.20208E+01  3.67758E+04  3.37215E+04
 -4.51933E+03  4.05443E+04 -2.48074E+04  1.75678E+04 -3.57180E+04 -6.82889E+03 -2.00915E+04 -1.59881E+04
 -1.02826E+04 -7.99578E+03 -7.04534E+03 -1.23752E+04  8.45748E+03 -1.55567E+04  1.08472E+04 -1.72746E+04
  1.02486E+04  8.31756E+03 -1.36610E+04  1.21772E+04 -2.42234E+04 -5.78332E+03 -1.16472E+04 -4.25297E+04
  2.11170E+04 -4.63266E+04  5.60726E+04 -2.15908E+04  5.19506E+04  2.31690E+04  1.60527E+04  4.64682E+04
 -1.19350E+04  3.33603E+04 -2.62617E+04  1.81232E+03 -1.44935E+04 -2.72623E+04  2.26450E+04 -3.52184E+04
  4.37351E+04 -8.77680E+03  4.05165E+04  2.26043E+04  2.06415E+04  5.09116E+04 -4.12810E+03  5.10047E+04
 -3.28774E+04  3.50001E+04 -4.86826E+04  9.75896E+03 -4.55040E+04 -1.96631E+04 -2.02934E+04 -3.76158E+04
  5.09305E+03 -4.43441E+04  3.24592E+04 -1.86146E+04  3.39497E+04  1.43605E+04  9.58789E+03  2.34571E+04
 -1.51285E+04  1.63772E+04 -8.75818E+03 -8.71115E+03  7.01320E+03 -9.41605E+03  1.65890E+04  1.14729E+04
  1.17180E+04  2.41879E+04 -8.63578E+03  2.61624E+04 -1.83815E+04  1.62324E+04 -3.02488E+04 -3.88874E+03
 -2.51220E+04 -2.08172E+04 -7.13988E+03 -3.10157E+04  8.91534E+03 -2.93675E+04  1.34612E+04 -2.10816E+04
  3.23644E+04 -1.24106E+04  4.01803E+04  2.53812E+03  2.81710E+04  1.81479E+04  2.52615E+03  3.82968E+04
 -2.22939E+04  4.16404E+04 -3.11528E+04  1.68694E+04 -2.30582E+04 -7.37232E+03 -3.32977E+03 -8.67968E+03
  2.26754E+03  7.99109E+02 -9.81253E+03  3.47541E+03 -2.21686E+04  2.07971E+03 -1.67929E+04 -1.39606E+04
 -1.38136E+04 -1.85515E+04  5.02706E+03 -2.81106E+04  1.43320E+04 -2.06530E+04  2.04823E+04 -3.74496E+03
  1.66397E+04  1.11241E+04 -8.81825E+03  2.29191E+04 -2.07196E+04  5.83998E+03 -2.82359E+04 -1.74481E+03
 -1.93947E+04 -1.15194E+04 -5.73266E+03 -2.42106E+04  1.00954E+04 -2.24712E+04  2.34954E+04 -1.19082E+04
  2.18919E+04  2.09314E+03  1.85175E+04  1.73818E+03  1.03951E+04  3.11596E+03  1.06385E+04 -3.17551E+03
  1.92471E+04  1.85102E+03  2.97889E+04  1.78483E+04  2.10673E+04  3.10986E+04 -5.75796E+03  4.08519E+04
 -1.92102E+04  3.48912E+04 -3.93572E+04  2.04432E+04 -4.01318E+04 -7.96242E+03 -3.09314E+04 -2.19325E+04
 -1.83725E+04 -3.69362E+04  1.41242E+04 -2.91347E+04  2.98140E+04 -1.96129E+04  2.27343E+04  7.38677E+03
  6.54731E+03  1.65372E+04 -1.49375E+04  1.47258E+04 -2.22307E+04  2.13886E+02 -1.22701E+04 -1.10036E+04
  4.75114E+02 -2.02336E+04  1.20201E+04 -1.44610E+04  1.58028E+04 -3.37882E+03  3.92881E+03  1.21410E+04
 -9.89439E+03  3.36769E+03 -6.37653E+03 -9.68391E+03  3.11545E+03 -1.74500E+04  4.57115E+03 -1.85048E+04
  2.28192E+04 -1.39622E+04  2.44113E+04  6.03204E+02  1.81257E+04  1.73535E+04  8.39853E+03  2.79457E+04
 -4.52520E+03  2.33323E+04 -1.45169E+04  1.37534E+04 -2.42933E+04  1.94891E+03 -1.04629E+04 -5.62820E+03
 -4.48514E+03 -6.46178E+03 -1.99125E+03  4.21744E+03 -4.63368E+03 -1.70193E+03 -1.20625E+04  1.08344E+04
 -2.05853E+04 -2.18086E+02 -1.35904E+04 -1.64605E+04 -1.42450E+03 -2.52720E+04  4.65138E+02 -1.43503E+04
  1.85637E+04 -2.14997E+03  7.65193E+03  2.99141E+03 -1.60823E+03  4.03054E+03 -5.73340E+03 -3.88425E+03
 -6.56259E+03 -4.03310E+03 -1.98651E+03 -1.47179E+04  6.14947E+03 -2.12705E+04  1.69211E+04 -5.85338E+03
  1.52398E+04 -8.43559E+02  1.74704E+04  1.08709E+04  1.68549E+03  1.84577E+04 -1.13279E+04  1.45482E+04
 -1.70381E+04  1.20300E+03 -8.06483E+03 -5.14650E+03  8.30572E+03 -5.17754E+03  7.43646E+03 -2.29073E+03
  7.33407E+03  5.28706E+03  4.30554E+03  8.75483E+03 -7.23430E+03  1.07206E+04 -1.78130E+04  2.72720E+03
 -1.03176E+04 -1.34826E+04  1.76590E+02 -1.02015E+04  8.38972E+03 -8.39982E+03  5.16278E+03  7.02745E+03
  3.08554E+03  1.17585E+04 -1.12741E+04  1.66788E+04 -1.28566E+04  4.78187E+03 -1.52122E+04 -3.75438E+03
 -6.56630E+03 -1.39491E+04 -3.34111E+03 -1.55370E+04  1.17474E+04 -1.06047E+04  1.41597E+04  3.68011E+03
  1.19545E+04  9.76274E+03  1.52765E+03  1.20760E+04 -1.20435E+04  8.80459E+03 -1.04677E+04  5.04110E+03
 -1.13408E+04 -4.75953E+03 -2.36528E+03 -1.16411E+04  3.50836E+03 -7.68288E+03  7.97587E+03 -2.54236E+03
  7.72157E+03 -5.01178E+00 -2.39966E+03  1.86198E+03 -3.29263E+03  1.52272E+03  5.44380E+03 -1.05396E+04
  7.68608E+03 -1.04878E+04  1.53441E+04  4.43224E+03  1.09711E+04  1.26935E+04  7.08440E+03  2.16293E+04
 -7.10087E+03  2.09869E+04 -1.57141E+04  1.69480E+04 -2.02792E+04  1.10258E+03 -1.74664E+04 -7.54562E+03
 -6.47876E+03 -1.92531E+04 -2.67346E+03 -1.03683E+04  7.65057E+03 -3.01607E+03  5.06950E+03 -4.00353E+03
  4.39997E+03  1.01566E+03  6.66412E+03  3.74387E+02  2.19281E+03 -1.11127E+04  5.52543E+03 -1.97346E+02
  1.68427E+04  1.61198E+03  7.84893E+03  9.27686E+03  1.17367E+01  6.50303E+03 -3.66126E+03  7.56742E+03
 -1.02435E+04 -4.02901E+03 -9.50439E+03 -9.78762E+03  1.86253E+03 -1.58969E+04  4.62023E+03 -1.51799E+04
  1.69516E+04 -1.13897E+04  1.46443E+04 -2.95032E+03  1.25068E+04  1.24777E+04  3.48607E+03  1.56385E+04
 -1.04082E+04  1.84093E+04 -1.08984E+04  6.09411E+03  5.83943E+02 -2.01806E+03 -2.13653E+03 -7.45089E+03
  1.54433E+03  2.76782E+02 -3.78157E+03  5.99583E+03 -2.03574E+03  5.99598E+03 -5.56520E+03 -2.36476E+03
 -6.32005E+03 -1.25989E+04  4.58126E+03 -1.14048E+04  9.92076E+03 -9.49832E+03  1.51865E+04 -4.95491E+02
  1.37374E+04  1.06943E+04 -3.28452E+03  1.64596E+04 -5.48221E+03  1.60568E+04 -9.96247E+03  1.36919E+04
 -1.78219E+04  5.89931E+03 -7.26211E+03 -4.70656E+03 -1.35954E+03 -1.19820E+04  6.37833E+03 -7.82500E+03
  1.03806E+04 -4.48244E+03  1.13443E+04  8.03066E+03  2.61435E+03  4.60081E+03 -1.74226E+03  2.30204E+03
 -4.69149E+02 -1.27913E+03 -3.23576E+02  4.46930E+03  3.82249E+03  6.30790E+02  1.33593E+03  1.05373E+04
 -3.90112E+03  9.24405E+03 -6.83043E+03  1.38285E+04 -1.28539E+04 -2.52360E+03 -9.68170E+03 -1.04656E+04
 -2.29564E+03 -1.27806E+04  2.33518E+03 -1.93840E+04 -5.82562E+02 -7.55839E+03  1.08260E+04 -3.95982E+03
  1.18233E+04  7.95157E+02 -1.26331E+03  1.27058E+04 -2.49499E+03  9.25113E+02 -6.08727E+03 -2.70390E+03
  1.94318E+02 -7.81183E+03 -1.36237E+03 -3.63878E+03  7.17454E+03  2.48968E+03  1.90844E+03 -5.67151E+03
  2.83152E+03 -2.58155E+03  2.26447E+02  2.98181E+03 -2.77228E+03  6.46470E+03  1.39173E+02  3.82141E+03
  9.58793E+03 -2.39434E+03  4.28522E+03  6.38046E+03 -2.80850E+02  5.96613E+03  4.82239E+03  4.43288E+03
 -4.17072E+03  3.53362E+02 -8.51980E+03  1.16025E+03 -6.54403E+03 -1.90297E+03 -7.88824E+03 -5.09315E+03
 -3.58892E+03 -3.88288E+03  6.52227E+03 -5.02668E+03 -2.98309E+03 -4.24975E+03 -5.32668E+03  3.22575E+03
 -1.13805E+02  1.06321E+03 -8.35032E+03 -3.67111E+03 -7.52164E+03 -1.12738E+04  1.26088E+03 -7.46203E+03
  4.89628E+03 -5.57890E+02  1.69823E+03 -4.61501E+03  3.22543E+03  3.72425E+02  6.66435E+03  4.06599E+03
 -6.68770E+03  6.65052E+02 -2.02473E+03 -3.61875E+03  2.86047E+02 -8.11139E+03  6.69506E+03 -9.64431E+03
  6.87494E+03  3.22988E+03  6.31774E+03 -4.34870E+03  5.48460E+03  1.58191E+04 -7.55767E+03  3.28407E+03
 -1.14847E+04  4.27197E+03 -8.46038E+03 -6.02724E+01 -3.55537E+02 -3.65344E+03  1.93263E+03 -8.98930E+03
 -7.95523E+02 -3.94442E+02  8.74188E+03  4.30445E+03  1.75793E+03  4.95401E+03  1.79460E+03  2.85844E+03
  1.12448E+02  1.02503E+04 -3.11300E+03 -5.67725E+03 -2.44189E+03  7.72418E+03 -4.54030E+03  1.74626E+03
 -9.96917E+02  1.75881E+03  7.18542E+02  3.05396E+03 -7.66967E+03  2.99334E+03 -6.06860E+03 -5.48127E+03
 -1.86222E+02 -1.04656E+04  4.49175E+02 -9.11042E+03  8.53305E+03 -8.66439E+03  1.20403E+04 -9.27929E+01
  1.47919E+04  5.58874E+02  1.20288E+04  6.49206E+03 -7.03566E+01  5.53407E+03 -3.03094E+03  9.56833E+03
 -3.96724E+03 -1.40722E+03  4.52819E+02 -1.16415E+03 -1.46850E+03  2.67516E+03  2.77024E+03 -5.37042E+02
  1.77348E+03  5.81895E+03 -3.09087E+03  7.21851E+03 -3.71887E+03 -1.92085E+03  1.56189E+03 -1.86333E+03
  5.71113E+02 -3.82459E+03  1.49090E+03  3.67412E+03  5.90107E+03  9.37684E+03 -7.57825E+01  1.31866E+04
 -1.94633E+03  5.32310E+03 -7.25862E+03  4.57276E+03 -1.20278E+04  2.35324E+03 -8.74343E+03 -8.55411E+03
 -5.33054E+03 -7.75151E+03  7.73608E+03 -8.84215E+03  6.64251E+03 -3.04438E+03 -1.70264E+03  3.12804E+03
  4.86918E+03  1.04385E+04 -2.90234E+03  1.63802E+03  2.90792E+03 -1.48816E+03  3.82653E+03 -3.68079E+03
  4.57624E+03 -4.87302E+03  4.78421E+03 -1.60567E+03  5.14598E+03  3.05201E+03  5.83717E+03 -2.43130E+03
  3.63317E+02  1.80867E+03 -6.33259E+03 -3.62773E+03 -3.43282E+02 -8.45720E+03  3.47219E+03 -6.85720E+03
  7.22884E+03 -3.42855E+03  3.66382E+03 -1.95542E+03  9.66606E+03  1.12074E+03  3.67091E+03 -1.39946E+03
  1.13548E+03  3.89542E+03 -7.11889E+03  8.17368E+03 -7.42700E+03  3.14951E+03 -4.98358E+02 -8.54082E+02
  4.64833E+03 -4.91595E+03 -1.00993E+04  1.83138E+03 -2.10363E+03  1.08571E+03 -4.64112E+03  1.91799E+03
 -6.15467E+03 -1.73652E+03  3.66851E+03 -5.52122E+03  6.92098E+03 -1.65668E+03  4.82079E+03  2.58347E+03
  6.47606E+03  5.84106E+03  6.47977E+03  5.08563E+03  4.90961E+03  6.00562E+03  2.66394E+02  1.08088E+03
