 $NMID ID='MM_0lb_SNR50_17hz_g45_59.RAW', FMTDAT='(8E13.5)'
 TRAMP=1., VOLUME=1. $END
  3.08503E+05 -8.61384E+02  3.36771E+05  2.52985E+05  8.57274E+04  3.38067E+05 -1.36690E+05  2.46254E+05
 -1.91221E+05  8.58517E+04 -1.09656E+05 -3.32361E+04 -9.43048E+02 -5.00017E+04  5.46674E+04  4.04583E+03
  3.11749E+04  6.06805E+04 -1.62453E+04  7.59528E+04 -6.19423E+04  6.57600E+04 -8.61842E+04  3.36895E+04
 -8.38932E+04 -1.05401E+04 -5.56673E+04 -4.99392E+04 -1.06106E+04 -6.99157E+04  2.74360E+04 -4.53901E+04
  3.75885E+04  2.30730E+03  1.47746E+04  5.00246E+04 -3.40564E+04  5.02588E+04 -6.60024E+04  1.99598E+03
 -4.97243E+04 -5.31497E+04 -4.51700E+03 -7.20066E+04  3.21116E+04 -5.43294E+04  4.34905E+04 -1.48628E+04
  4.43660E+04  9.79750E+03  3.28410E+04  3.00831E+04  1.72127E+04  2.69412E+04 -1.85319E+03  2.58556E+04
 -2.00722E+04  1.43563E+04 -1.77199E+04 -8.90081E+03  2.26741E+03 -8.38987E+03  2.26798E+04  1.17793E+04
  8.00375E+03  2.92584E+04 -2.99229E+04  3.38519E+04 -6.08506E+04 -1.83238E+03 -5.41141E+04 -4.00310E+04
 -1.32020E+04 -5.87664E+04  3.41783E+04 -4.69521E+04  5.69581E+04 -3.29311E+03  3.29910E+04  2.96601E+04
 -5.39118E+03  3.36534E+04 -2.74130E+04  1.13885E+04 -3.17299E+04 -7.65944E+03 -1.40555E+04 -6.55546E+03
 -8.84172E+03 -8.81190E+03 -9.88491E+02 -1.64867E+04  8.16083E+03 -2.61353E+04  1.44541E+04 -1.49378E+04
  1.24978E+04  8.54798E+03 -5.99404E+03  1.35646E+04 -1.80774E+04 -4.55622E+03 -7.71641E+03 -3.04202E+04
  2.05753E+04 -4.17718E+04  4.62423E+04 -1.49808E+04  4.51577E+04  1.87180E+04  1.15533E+04  4.18701E+04
 -1.41714E+04  3.34985E+04 -2.67420E+04  9.47728E+02 -8.91735E+03 -2.61369E+04  1.99464E+04 -3.32412E+04
  3.61330E+04 -8.94728E+03  3.02311E+04  2.38721E+04  1.65447E+04  4.16683E+04 -9.56689E+03  4.48759E+04
 -2.89133E+04  3.16819E+04 -3.90933E+04  8.21838E+03 -3.92593E+04 -1.81977E+04 -2.21333E+04 -3.49408E+04
  4.41224E+03 -3.24863E+04  3.16783E+04 -1.24902E+04  2.81509E+04  1.12026E+04  2.57511E+03  1.89374E+04
 -1.23032E+04  1.02338E+04 -1.16010E+04 -6.59019E+03  3.24009E+03 -8.46418E+03  1.63744E+04  7.78985E+03
  9.82116E+03  2.45836E+04 -6.76108E+03  1.98600E+04 -2.43614E+04  1.26949E+04 -2.43153E+04 -6.15537E+03
 -1.49483E+04 -1.86610E+04 -6.15717E+03 -1.35707E+04  3.16604E+03 -1.40241E+04  1.58995E+04 -1.24820E+04
  2.54282E+04 -1.20726E+04  3.10922E+04  3.83208E+03  2.32714E+04  1.56294E+04  4.14249E+03  3.41522E+04
 -1.62172E+04  2.66485E+04 -2.34981E+04  1.03457E+04 -2.41914E+04 -1.34978E+04 -2.97784E+03 -1.42281E+04
  8.91089E+02 -1.12105E+03 -3.67265E+03  8.48154E+03 -1.42708E+04  3.50481E+03 -1.34338E+04 -6.50910E+03
 -1.21208E+04 -1.29168E+04  4.68239E+03 -2.39659E+04  1.58417E+04 -1.55766E+04  1.74357E+04 -2.98723E+03
  8.47867E+03  1.26019E+04  1.50955E+03  1.38351E+04 -9.79539E+03  1.22025E+04 -1.42956E+04 -3.58471E+02
 -1.55224E+04 -1.67403E+04  2.13942E+03 -1.85064E+04  8.30930E+03 -1.62828E+04  1.68320E+04 -1.08975E+04
  1.26565E+04  1.32822E+03  6.92433E+03  5.80201E+03  6.94612E+03 -5.30184E+01  8.03159E+03  1.83880E+03
  1.15976E+04  2.90340E+03  1.53386E+04  1.30674E+04  7.32389E+03  2.66793E+04 -3.24317E+03  2.93896E+04
 -1.61769E+04  2.45766E+04 -2.85965E+04  8.95667E+03 -2.66292E+04 -1.35961E+03 -2.27452E+04 -1.26666E+04
 -1.36238E+04 -2.53373E+04  1.07655E+04 -2.36092E+04  1.81593E+04 -9.85084E+03  1.34863E+04  4.24535E+03
  6.39309E+03  9.27674E+03 -7.16178E+03  1.43929E+04 -1.63241E+04  1.00445E+03 -8.44486E+03 -1.18245E+04
  1.30448E+02 -1.15289E+04  1.06736E+04 -1.09169E+04  9.49394E+03  1.43175E+03  1.01093E+03  4.64373E+03
 -8.47648E+03  1.92981E+03 -2.11780E+03 -4.71857E+03 -7.29062E+02 -8.65129E+03  6.83626E+03 -1.07154E+04
  1.85259E+04 -3.28104E+03  1.75501E+04 -1.68762E+03  1.37714E+04  1.40530E+04  6.52906E+03  1.26457E+04
 -4.25312E+03  2.14059E+04 -1.18977E+04  1.27461E+04 -1.24734E+04  7.54165E+03 -9.04800E+03  1.39239E+03
 -5.33113E+03 -4.41167E+03  1.76488E+02  6.88667E+03 -9.29113E+02 -1.27402E+03 -6.71655E+03  7.43660E+03
 -5.20475E+03 -3.06781E+03 -9.83878E+03 -9.78641E+03 -2.32638E+03 -8.70536E+03  9.16601E+02 -1.08040E+04
  3.41951E+03 -2.52890E+03  7.40797E+02  3.95942E+03 -3.64811E+03  4.12839E+03 -2.54364E+03 -1.32707E+03
 -3.74488E+03 -4.98683E+03  2.76349E+03 -5.57743E+03  4.91402E+03 -7.20081E+03  1.14121E+04 -7.91396E+02
  1.05167E+04  1.17191E+03  9.17209E+03  5.02067E+03 -3.24865E+03  9.86374E+03 -6.58918E+03  1.05442E+04
 -5.18520E+03  2.31885E+03 -2.95356E+03 -1.60101E+03  1.06928E+03 -3.56710E+03  4.08572E+03 -3.47065E+03
  6.28288E+03  2.65137E+03  2.66357E+03  9.55862E+03 -5.08140E+03  6.40384E+03 -6.80791E+03  2.71517E+02
 -3.30570E+03 -4.35618E+03  2.23343E+03 -4.86712E+03  5.75971E+03 -2.83226E+03  5.16475E+03  9.49107E+02
  5.42329E+03  5.82329E+03 -4.46160E+03  2.86295E+03 -6.58420E+03  3.59433E+03 -6.20739E+03 -1.18831E+03
 -1.43667E+03 -1.08470E+04 -2.14501E+03 -5.80060E+03  6.68348E+03 -5.35305E+03  4.48157E+03  2.09593E+03
 -9.23925E+01  4.54293E+03 -3.46322E+02  7.78091E+03 -6.30781E+03  6.21572E+03 -3.76121E+03 -1.65327E+03
 -9.32025E+03 -6.95048E+03 -1.42601E+03 -4.90965E+03  4.55392E+03  6.74066E+01 -6.45047E+02 -8.00617E+03
  4.43717E+03  6.34175E+03  1.33800E+01  4.94074E+02 -1.67202E+03 -3.40507E+03 -3.08701E+03 -3.03404E+03
  3.88877E+03 -2.65801E+02  4.67195E+03 -1.71720E+02  3.17065E+03  3.49865E+03  5.91485E+03  8.87002E+03
 -3.61052E+03  8.60097E+03 -6.49564E+03  1.07510E+04 -9.96867E+03 -1.29165E+03 -1.10973E+04  7.12735E+02
 -1.69054E+03 -6.62172E+03 -1.39499E+03 -3.18115E+03  3.93309E+03 -1.13664E+03 -2.96817E+03 -1.10062E+03
  5.42767E+02 -3.19340E+03  6.19677E+02  9.14815E+02  3.25467E+03  2.36431E+01  1.74920E+03  1.45541E+03
  6.66340E+03  4.28601E+03  1.98632E+03  5.94952E+03 -1.78111E+03  3.00894E+03 -4.15770E+03 -1.04888E+03
 -4.28547E+03  2.27715E+03 -2.74776E+02 -7.57581E+02  1.69875E+03 -6.84444E+03  5.73172E+03 -4.26489E+03
  1.06018E+04 -1.04269E+03  6.87992E+03  1.95394E+03  8.79775E+03  4.91627E+03  4.25105E+03  6.87703E+03
 -6.91462E+03  7.74376E+03 -3.26020E+03  4.56873E+03 -2.74957E+03 -2.76300E+03 -1.89002E+03  1.26716E+03
  2.14185E+03  9.61472E+02 -7.61254E+02 -6.66522E+02 -2.97550E+03  2.38015E+03 -5.89968E+03 -2.67298E+03
 -5.82719E+02 -1.01765E+04  4.48679E+00 -4.34766E+03  8.47918E+02 -7.68392E+03  2.60837E+03 -2.61381E+03
  5.59567E+03  2.46468E+02  7.33557E+02  2.22886E+02 -6.48391E+03  5.75301E+03 -5.09849E+03  3.01105E+03
 -1.02852E+03  2.06113E+03 -5.13893E+03 -2.04841E+02 -3.95719E+03 -1.38987E+03 -1.36157E+03 -1.45596E+03
  3.93474E+03 -1.03736E+03  2.56659E+03  3.32927E+03  1.15087E+03  5.57096E+02 -2.25084E+03 -2.40111E+02
  1.23046E+03  3.84403E+03  8.13204E+02  1.89409E+03  3.29042E+03 -5.87315E+02 -4.46574E+02  1.87624E+03
 -2.58780E+02  5.19686E+03 -2.05582E+03  1.55555E+03 -3.73601E+03 -1.62292E+03 -3.75020E+03  5.69788E+02
 -2.88857E+03 -8.40472E+03 -1.91233E+03 -9.96202E+03  2.42705E+02 -7.22195E+03  3.20569E+03 -4.28978E+03
  7.51840E+03  2.97024E+03 -2.46544E+02  3.30462E+03 -1.62945E+03  3.25022E+03 -5.25374E+03 -3.68935E+02
  5.51120E+01  2.79137E+03 -4.31701E+03 -1.82269E+03  6.36563E+03  1.51134E+03  2.67714E+03  2.75698E+03
  1.68005E+02  1.11507E+03  4.35952E+03 -1.26723E+03 -2.10188E+03 -1.56073E+03  1.16738E+03 -9.69543E+02
  4.09646E+02  7.09761E+01  3.32534E+03  1.05277E+03  2.51597E+03  4.82699E+03 -8.88361E+02  1.89189E+03
 -3.18672E+03  4.63825E+03 -1.84923E+03  3.06794E+03 -1.83452E+03 -2.83384E+03 -2.49100E+03  1.00377E+01
 -2.74063E+03 -3.03448E+03  2.61874E+03 -2.21590E+02  3.06287E+00  3.70000E+02  2.93909E+02  5.32523E+03
 -4.27422E+03  1.67955E+03 -2.95254E+03 -8.75560E+02 -5.12625E+02 -3.76435E+02  3.27459E+03 -1.95362E+03
 -8.46719E+02 -3.84100E+03 -5.77556E+02  2.92193E+03  4.28288E+03 -4.75265E+03  2.04722E+03  6.51945E+03
 -4.94253E+02  1.40011E+03  1.23236E+03  7.37953E+01 -3.47610E+03 -1.29084E+03  4.30273E+03 -5.65507E+03
 -4.12551E+03 -2.51397E+03  2.36375E+03  4.09744E+03 -3.00121E+03 -5.90226E+02  2.68394E+03  5.38044E+03
 -2.23184E+03  1.56960E+03 -4.81307E+03 -4.05447E+03 -1.83538E+03 -6.71853E+03 -9.02396E+01 -5.38765E+03
  1.98378E+02  2.59356E+03  3.85664E+03  5.94046E+02  2.42164E+01  4.06215E+03 -5.02120E+02  2.18095E+03
 -6.41945E+02  1.28492E+03  4.38292E+03 -4.96195E+03 -2.21078E+03 -1.89394E+03 -1.72026E+03  2.05743E+03
  6.42419E+02  3.28189E+03 -2.69297E+03  3.38420E+03 -3.79899E+03  7.94077E+02 -5.57556E+03 -6.01478E+03
 -1.50589E+03 -3.53262E+03 -4.39047E+03  7.14794E+02  1.93186E+03 -5.45842E+03  3.07514E+03  6.92162E+02
  6.67367E+03  2.01363E+03  7.51946E+03  4.22998E+03  2.07889E+03  2.04606E+03 -3.95836E+03  7.88203E+03
 -2.26933E+03 -3.19757E+02  4.55342E+03 -4.55664E+02  2.41809E+03  1.18567E+03 -2.17393E+03 -3.97895E+02
 -7.01882E+03  3.21702E+02 -1.67700E+03 -9.51554E+02 -7.97745E+02 -1.69462E+03 -1.51372E+03 -1.27344E+02
 -1.71895E+03 -3.97552E+03  3.84455E+03  1.03164E+03  1.14898E+03  5.48500E+03  1.46682E+03  2.35391E+03
 -4.16790E+03  2.79732E+03  1.70797E+03  1.19456E+03 -1.85245E+03  3.83535E+03 -1.40306E+03 -1.71145E+03
 -1.51530E+03 -4.69259E+03  3.53160E+03 -3.87031E+03  8.08574E+02 -1.50250E+03 -6.55890E+02  1.55697E+02
  2.39402E+03 -2.03985E+03 -5.58288E+03 -2.86405E+03  1.01077E+02 -1.24692E+03 -4.74068E+02  6.45032E+02
  5.75943E+02  1.13209E+03 -2.25016E+03  1.03083E+03 -9.35093E+02 -2.89479E+03 -7.30452E+02 -1.31814E+03
 -1.28306E+03  3.83383E+03 -1.09972E+03  7.07636E+02 -8.30498E+02 -1.77294E+03  4.57590E+03 -2.30956E+03
 -2.32620E+03  5.14992E+02  4.70458E+03 -9.97377E+01 -1.19382E+03 -1.68402E+03 -2.09944E+03 -6.64966E+01
 -1.56297E+03  9.91851E+02 -3.23696E+03  3.64940E+03  1.78461E+03  5.46243E+03  3.32303E+03 -2.79268E+03
 -1.90252E+03  1.56360E+03 -2.46580E+03  2.61722E+03 -1.63916E+03  5.85810E+02  1.10146E+03 -2.01629E+03
  7.65889E+02  2.82517E+03  9.10142E+02 -5.28757E+02  9.16139E+02 -2.46615E+03  1.64306E+03 -1.61331E+03
  3.69901E+03  2.68903E+03 -1.82142E+03  2.62093E+03  1.50757E+02  2.93242E+03 -1.14530E+03  3.85251E+03
