 $NMID ID='MM_0lb_SNR50_17hz_g50_53.RAW', FMTDAT='(8E13.5)'
 TRAMP=1., VOLUME=1. $END
  3.09696E+05  1.82322E+03  3.35380E+05  2.51589E+05  8.40086E+04  3.39441E+05 -1.33585E+05  2.54045E+05
 -1.90150E+05  8.28758E+04 -1.13831E+05 -3.23412E+04  1.33716E+03 -4.83590E+04  5.19969E+04 -1.63987E+03
  3.43206E+04  4.96716E+04 -1.72859E+04  7.55514E+04 -5.68529E+04  6.07398E+04 -8.51442E+04  3.42999E+04
 -7.89967E+04 -1.12533E+04 -5.82186E+04 -5.00914E+04 -1.53425E+04 -7.06328E+04  2.71575E+04 -4.69066E+04
  4.17383E+04  4.94682E+03  1.23551E+04  4.44368E+04 -3.28571E+04  5.12814E+04 -6.97634E+04  5.95981E+02
 -4.59419E+04 -5.26514E+04 -5.02487E+03 -7.54486E+04  3.28786E+04 -5.07935E+04  4.61861E+04 -1.74000E+04
  4.02773E+04  1.05967E+04  3.27656E+04  2.58658E+04  1.32126E+04  3.02766E+04 -3.75727E+03  2.23143E+04
 -2.22459E+04  1.42915E+04 -1.89891E+04 -8.82010E+03  4.53987E+03 -8.56813E+03  2.11410E+04  1.45044E+04
  6.33995E+03  3.16832E+04 -2.71625E+04  3.49879E+04 -5.79993E+04  7.05928E+03 -5.22955E+04 -3.87767E+04
 -1.27564E+04 -6.44575E+04  4.14896E+04 -4.97538E+04  5.43303E+04 -5.19831E+03  3.10673E+04  3.03683E+04
 -5.08561E+03  3.30210E+04 -3.25595E+04  1.28451E+04 -2.97685E+04 -4.60344E+03 -1.15818E+04 -1.02251E+04
 -3.54688E+03 -1.11768E+04  3.22003E+03 -1.99240E+04  5.04694E+03 -2.86574E+04  1.65248E+04 -1.36362E+04
  1.08948E+04  4.33261E+03 -1.28616E+04  1.55472E+04 -1.84795E+04 -4.73690E+03 -4.51309E+03 -3.44614E+04
  1.90943E+04 -4.23630E+04  4.47635E+04 -1.71605E+04  4.33687E+04  1.98394E+04  1.65482E+04  4.22459E+04
 -1.48414E+04  3.21002E+04 -2.00283E+04  1.18920E+03 -6.14124E+03 -2.75209E+04  2.22293E+04 -3.28182E+04
  4.08091E+04 -8.51630E+03  3.25148E+04  2.69811E+04  1.83538E+04  4.11851E+04 -5.63372E+03  5.07921E+04
 -3.26584E+04  3.34810E+04 -4.04249E+04  8.63745E+03 -3.94828E+04 -1.44351E+04 -2.38398E+04 -3.74561E+04
  5.12526E+03 -3.59944E+04  3.45131E+04 -1.21445E+04  2.73251E+04  1.32745E+04  3.35188E+03  1.70765E+04
 -1.36773E+04  8.35504E+03 -7.96138E+03 -7.39327E+03  7.77506E+03 -9.50823E+03  1.14639E+04  7.15150E+03
  1.49644E+04  1.85130E+04 -1.28369E+03  2.53155E+04 -2.16083E+04  6.92651E+03 -3.08470E+04 -7.82399E+03
 -1.60468E+04 -1.75485E+04 -8.98489E+03 -1.74793E+04  7.27763E+03 -1.80911E+04  1.16212E+04 -1.49446E+04
  2.22449E+04 -1.43840E+04  2.87026E+04  7.16316E+03  2.46633E+04  1.89895E+04  6.74189E+03  3.64766E+04
 -1.66924E+04  2.89907E+04 -2.73854E+04  1.17337E+04 -2.30217E+04 -9.34565E+03 -3.26099E+03 -1.61742E+04
  1.61542E+03 -4.84990E+03 -4.64763E+03  1.95960E+03 -1.18169E+04  4.60956E+03 -1.55804E+04 -9.39062E+03
 -1.04451E+04 -1.59029E+04  3.70983E+03 -1.83535E+04  1.50551E+04 -1.61336E+04  2.03808E+04 -1.38832E+03
  8.72667E+03  1.09452E+04  2.88968E+03  1.67117E+04 -1.51755E+04  1.31292E+04 -1.57678E+04 -4.90634E+03
 -1.32625E+04 -1.25121E+04 -4.94434E+03 -2.14597E+04  7.76673E+03 -1.75120E+04  1.55127E+04 -9.25569E+03
  1.41025E+04  2.00112E+03  1.27360E+04  5.25332E+03  6.55084E+03 -2.05951E+01  1.11731E+04 -8.35973E+03
  1.50765E+04  3.17847E+03  1.55385E+04  1.18191E+04  1.72555E+04  2.83790E+04 -1.68075E+02  2.73266E+04
 -1.24732E+04  2.16282E+04 -2.98121E+04  1.07090E+04 -2.13338E+04  1.91894E+03 -2.49818E+04 -1.63182E+04
 -1.24483E+04 -2.14360E+04  7.27826E+03 -2.34060E+04  1.77603E+04 -1.27678E+04  1.26716E+04  1.79803E+03
  8.29941E+03  1.10424E+04 -8.75724E+03  1.01226E+04 -1.56898E+04  1.88197E+03 -7.00199E+03 -6.91943E+03
 -1.42197E+03 -1.05437E+04  8.91183E+03 -9.84691E+03  9.92392E+03 -3.95933E+03  2.44018E+03  5.51601E+03
 -2.59969E+03  2.27975E+03 -1.85365E+03 -1.91350E+03  2.48226E+03 -7.82426E+03  8.01952E+03 -1.08487E+04
  1.42888E+04 -3.62292E+03  1.37841E+04  4.42594E+03  1.31229E+04  8.62461E+03  6.59077E+03  1.56824E+04
 -4.72930E+03  2.03379E+04 -7.71207E+03  1.18728E+04 -1.43565E+04  1.44570E+03 -8.19689E+03  9.87600E+02
 -2.42465E+03 -3.00159E+03 -3.72730E+03 -4.74024E+03 -5.43460E+02  2.24908E+03 -2.09981E+03 -1.48605E+02
 -1.38256E+04 -4.48517E+01 -7.82628E+03 -1.37441E+04 -4.13670E+03 -1.60410E+04  2.58356E+03 -9.56760E+03
  9.24190E+03 -4.91481E+03  3.69443E+03  3.90074E+02 -6.97182E+02  3.93718E+03 -3.68972E+03  9.04481E+02
 -4.82792E+03 -1.03386E+04  5.42437E+02 -3.51290E+03  2.52478E+03 -6.09305E+03  6.47058E+03 -7.55840E+03
  1.18073E+04  3.66838E+03  5.99203E+03  9.45000E+03  3.15871E+03  5.37547E+03 -5.53362E+03  1.04052E+04
 -6.95758E+03  7.22637E+03 -8.47691E+03 -3.20218E+03  1.65869E+03 -6.68503E+03  2.71905E+03  1.42129E+03
  2.37712E+03  5.75516E+03  3.10080E+03  6.74401E+03 -1.50599E+03  8.91121E+03 -3.54432E+03 -2.03205E+03
 -2.44047E+03 -5.05104E+03 -1.40746E+03 -5.55493E+03  4.15966E+03 -3.04090E+03 -1.79783E+02  1.72842E+03
 -1.69439E+03  6.49219E+03 -5.49471E+03  1.04954E+04 -1.13496E+04 -2.53017E+02 -7.61449E+03 -6.47019E+03
 -1.82812E+03 -4.12339E+03 -1.02193E+03 -3.63906E+03  7.29411E+03 -9.18643E+03  7.60317E+03  4.67975E+03
  5.51152E+03  4.83456E+03 -1.40882E+03  1.06779E+04 -5.16079E+03  6.35014E+03 -1.22203E+03 -3.37225E+03
 -7.69907E+03 -7.14064E+03 -5.06798E+03 -8.96732E+03  2.80734E+03 -3.23459E+03  3.26488E+03 -6.58489E+02
 -8.02289E+02 -1.13004E+03  3.85303E+03  5.22399E+03  2.03335E+03 -1.54717E+02 -4.50517E+02 -5.42471E+03
  3.33119E+03 -1.87221E+03  2.24553E+03  2.43446E+03  2.31040E+03  4.11150E+03  8.71331E+03  6.74972E+03
 -3.01325E+02  1.27395E+04 -1.10949E+04  7.66721E+03 -7.22854E+03  1.09075E+03 -9.43944E+03 -1.79605E+03
 -1.02453E+04 -6.95791E+03 -2.27108E+03 -8.21020E+03  1.84638E+03  9.86472E+02  2.11408E+03 -4.44041E+03
  4.41685E+02  2.28576E+03  1.48918E+03 -4.62098E+03  5.85171E+03 -5.17911E+03  4.90405E+03 -3.54211E+03
  2.12224E+03  3.05638E+02  1.82423E+03  6.76289E+03 -2.12547E+03  2.29588E+03 -4.46149E+03  3.59665E+03
 -6.41016E+03  2.27435E+03 -2.23689E+03  6.22312E+02 -3.44946E+03 -8.54713E+03  2.67875E+03 -2.51586E+03
  4.53868E+03 -4.68837E+03  9.12475E+03  6.47234E+02  8.65863E+03  6.89328E+03 -1.78611E+03  1.09446E+04
 -1.98087E+03  5.05491E+03 -6.44426E+03  4.88998E+02 -2.55014E+03 -1.04159E+03  3.34764E+02 -2.11098E+03
  5.33955E+02  2.23716E+03 -8.94223E+02  4.11265E+03 -2.94016E+03 -1.00132E+03  3.19841E+02 -1.25690E+03
 -1.35395E+03 -8.17486E+03 -3.05233E+03 -1.22310E+04  5.07742E+03 -5.43609E+03  6.04947E+03  2.11455E+03
  6.84594E+03  4.22698E+03  4.68024E+03  4.90767E+03  2.07949E+02  6.72292E+03 -1.21604E+03  4.01073E+03
 -9.32828E+01  7.23085E+02 -5.69814E+03 -4.53168E+03  1.46575E+03 -9.86336E+03 -1.40843E+03 -1.81513E+03
  5.64980E+03  1.40899E+03  6.57544E+02  8.15408E+02  3.16044E+02  4.24781E+03  4.62783E+03  2.09733E+03
 -1.82293E+03  6.98019E+02  1.51646E+02  4.05975E+03  4.93979E+03  1.25228E+03 -2.84163E+03  1.72880E+03
 -2.92664E+03  5.52549E+03 -4.10835E+03  5.19903E+03 -3.94987E+03  6.22869E+02 -2.59706E+02  2.41202E+03
 -6.50264E+03 -3.50635E+03 -1.05786E+03 -3.64905E+01 -1.14544E+03 -2.27275E+03  9.99748E+02  4.44408E+03
  4.43478E+03  4.77731E+03  2.30778E+03  3.14907E+03  1.41102E+03  3.96741E+03  1.24305E+03  1.21185E+03
 -2.53371E+03 -5.95148E+02  2.08572E+03 -2.81667E+03  3.52177E+03 -1.47386E+03  4.18723E+03 -9.71967E+02
  1.63543E+03 -6.64548E+03  3.80038E+03  1.98910E+03  8.01190E+02 -1.07207E+03 -1.01346E+03 -3.04433E+03
 -2.51387E+03 -4.41645E+03  5.13364E+03  5.66827E+02 -3.36286E+02  6.35052E+03  9.66746E+02  4.61289E+03
  5.78586E+02 -8.26555E+02 -7.52544E+03  2.72201E+01 -1.80253E+03 -9.88727E+02  1.26460E+03 -3.88812E+03
 -1.67057E+03  9.29553E+01 -2.32171E+03 -6.05923E+03 -4.50865E+02  3.66403E+01 -5.33836E+02  6.81175E+03
 -4.31523E+03  5.47775E+02 -1.18330E+03 -3.04536E+03 -1.03418E+03 -3.89152E+03 -3.57626E+03 -8.57756E+02
 -5.36531E+02 -1.28319E+03 -1.04788E+03  2.39037E+03  1.45863E+03  8.50061E+02 -2.51477E+02  5.35579E+03
 -1.13335E+03 -2.81852E+02 -4.30957E+03  2.73398E+02  3.77449E+03  6.99975E+02  1.73040E+03 -2.16534E+03
  8.27643E+03  2.30722E+03  4.12977E+03 -7.20906E+02  6.66142E+03  7.41842E+01 -8.11584E+02  2.29490E+03
 -2.87880E+03  2.68273E+03 -3.56166E+03  1.23084E+03 -1.51161E+03 -3.73887E+03  2.50814E+03  1.98333E+03
  1.59076E+03 -1.81252E+03  1.49455E+03  5.19851E+02 -3.18470E+03  1.92344E+03 -1.11516E+03  5.14587E+03
 -3.50261E+03  3.54136E+03 -4.31401E+03 -8.58924E+02 -2.19280E+03 -1.38656E+03  4.02225E+02 -1.43262E+03
 -1.31102E+03  3.74697E+02 -5.53983E+03  4.97663E+03 -5.60614E+03 -1.49413E+02 -3.40486E+03  3.18839E+02
 -3.50084E+03 -4.47555E+03  1.64073E+03 -6.53805E+03  5.34116E+03 -5.24510E+03  5.37029E+03 -1.50758E+03
  5.03468E+03 -3.06514E+03  2.55020E+03 -1.59549E+03  1.34519E+03  3.82537E+03 -1.74280E+03 -2.05218E+03
 -2.76808E+03  5.74848E+03  1.90004E+03  1.29981E+03 -3.36436E+02 -8.98129E+01  2.17896E+02 -2.46497E+02
 -1.73997E+01 -1.98070E+03  2.48268E+02 -3.82731E+03 -3.71898E+03  3.43891E+03 -2.62862E+03  1.77719E+03
 -1.62479E+03 -6.97246E+02  2.26340E+03  8.90043E+02  1.96490E+03  3.39198E+01  2.74510E+03 -1.87928E+02
 -1.61972E+03 -1.15507E+03 -2.92753E+03 -7.67653E+02  4.82670E+02 -7.82151E+02 -1.65742E+03  5.90760E+03
 -1.72222E+03  1.65152E+03 -8.18750E+02 -3.66391E+03 -1.17327E+03 -4.95962E+03  4.79400E+03 -5.50699E+02
 -3.02933E+03 -1.60489E+03  8.45640E+02  3.08159E+03 -1.98348E+03 -3.38363E+03 -2.09636E+03 -1.89181E+03
 -1.07706E+03 -1.50889E+03  1.09051E+02  1.33944E+03 -4.83637E+03 -1.62799E+02 -6.30829E+03  2.68267E+03
  1.68300E+02  9.44934E+02 -2.48434E+03  2.96979E+03  1.56620E+03  1.85369E+02  1.84891E+03 -4.49780E+03
  4.48536E+03 -1.12471E+03 -1.20254E+03 -1.46570E+02 -2.64049E+02  8.46015E+02  3.02638E+03  4.16055E+03
 -1.38378E+03  3.07502E+03 -2.54904E+03  1.75122E+03  3.11883E+03  8.12176E+02 -1.63323E+03 -5.80715E+02
  2.86564E+03 -2.24326E+03 -3.27103E+03 -1.58021E+02  1.00276E+03  1.71999E+03 -3.45044E+03 -1.65654E+03
 -1.74435E+03  3.81520E+01  7.00076E+03  4.26234E+02 -1.93502E+02  2.67051E+03  2.18698E+03 -1.58235E+03
 -3.34411E+03  5.75684E+03 -4.73364E+03  1.05706E+03 -3.20877E+03  4.85460E+03 -1.38599E+03  4.72980E+02
