 $NMID ID='MM_0lb_SNR50_16hz_g60_46.RAW', FMTDAT='(8E13.5)'
 TRAMP=1., VOLUME=1. $END
  3.12478E+05  5.40650E+03  3.40265E+05  2.47774E+05  8.61455E+04  3.32288E+05 -1.32163E+05  2.49057E+05
 -1.92148E+05  8.59133E+04 -1.11836E+05 -3.29939E+04 -1.07668E+03 -4.90774E+04  5.33536E+04  3.70519E+02
  3.63994E+04  5.46497E+04 -1.50190E+04  7.47750E+04 -6.08661E+04  6.25013E+04 -8.85561E+04  2.73463E+04
 -8.38844E+04 -1.32119E+04 -5.92964E+04 -5.85252E+04 -1.34637E+04 -6.75665E+04  2.49473E+04 -4.41514E+04
  4.39184E+04  6.02834E+03  1.57631E+04  4.76323E+04 -3.41012E+04  4.43026E+04 -6.72467E+04  3.16806E+03
 -5.66300E+04 -5.61136E+04 -1.16516E+04 -7.38106E+04  3.08193E+04 -5.68859E+04  4.45567E+04 -1.72200E+04
  3.78795E+04  9.93869E+03  2.98258E+04  2.27898E+04  1.70756E+04  3.29892E+04 -4.74367E+03  2.71079E+04
 -2.14650E+04  1.39168E+04 -2.27713E+04 -9.48999E+03  9.57224E+03 -1.08156E+04  2.32803E+04  1.67159E+04
  9.40248E+03  3.05729E+04 -3.14279E+04  3.62139E+04 -6.51794E+04  4.16389E+03 -5.62270E+04 -4.46254E+04
 -1.16208E+04 -5.99406E+04  4.02559E+04 -4.70455E+04  5.77315E+04 -4.15733E+02  3.76405E+04  3.20615E+04
 -3.81877E+03  3.48365E+04 -3.06674E+04  1.90360E+04 -2.91361E+04  8.90854E+01 -1.54193E+04 -1.31727E+04
 -1.74253E+03 -1.66225E+04  2.74309E+03 -2.23829E+04  6.39259E+03 -2.18029E+04  1.65879E+04 -1.56801E+04
  1.21544E+04  7.18144E+03 -1.24015E+04  1.31287E+04 -1.92354E+04 -4.28874E+03 -4.48594E+03 -3.73044E+04
  2.08812E+04 -4.48746E+04  4.92106E+04 -1.85492E+04  4.52203E+04  1.67178E+04  1.41517E+04  4.18360E+04
 -1.49048E+04  3.52511E+04 -2.17933E+04  2.33356E+03 -7.36102E+03 -2.97061E+04  2.43243E+04 -3.13664E+04
  4.42932E+04 -2.70241E+03  3.60216E+04  2.53739E+04  1.74731E+04  4.98632E+04 -4.66548E+03  5.53619E+04
 -3.32605E+04  3.71126E+04 -4.32921E+04  1.45049E+04 -4.17867E+04 -1.95152E+04 -2.82384E+04 -4.19387E+04
  5.81212E+03 -4.19050E+04  3.12312E+04 -1.30997E+04  2.64698E+04  1.12693E+04  3.12741E+03  2.55037E+04
 -1.20612E+04  7.62550E+03 -1.44390E+04 -7.60375E+03  4.51845E+03 -1.18450E+04  1.91791E+04  4.11906E+03
  1.46795E+04  2.39631E+04 -3.93301E+03  1.99524E+04 -2.18353E+04  9.30263E+03 -2.39397E+04 -1.64542E+03
 -1.48800E+04 -1.71344E+04 -1.06704E+04 -2.18508E+04  6.88536E+03 -1.72110E+04  1.80732E+04 -1.97740E+04
  2.91390E+04 -1.43909E+04  3.22669E+04  3.68896E+03  2.43571E+04  2.47910E+04  6.18316E+03  3.72774E+04
 -2.21894E+04  3.16286E+04 -3.02895E+04  1.00511E+04 -2.22755E+04 -9.90132E+03  1.89816E+03 -1.68242E+04
  7.13367E+02 -1.02724E+03 -5.10149E+03  3.91096E+03 -1.66910E+04  7.32682E+03 -2.07598E+04 -1.06860E+04
 -7.81344E+03 -2.07347E+04  5.97533E+03 -2.25094E+04  1.20014E+04 -1.76364E+04  1.40774E+04 -4.19212E+03
  1.60628E+04  1.33103E+04 -1.00212E+02  1.21342E+04 -1.20090E+04  9.31945E+03 -1.72911E+04 -5.65751E+03
 -1.53508E+04 -1.83212E+04 -6.08253E+02 -2.25840E+04  1.11413E+04 -1.89324E+04  1.93823E+04 -7.70187E+03
  1.97082E+04  4.08756E+02  1.35443E+04  4.38054E+03  6.07848E+03  2.10348E+03  1.33850E+04  8.09580E+02
  9.46412E+03  1.82853E+03  1.70231E+04  8.44221E+03  1.16101E+04  2.99102E+04 -3.04576E+03  2.99357E+04
 -2.10076E+04  2.67863E+04 -3.07005E+04  1.29285E+04 -3.64768E+04 -9.63807E+02 -2.94353E+04 -1.95047E+04
 -7.80730E+03 -2.50323E+04  1.14521E+04 -2.19249E+04  1.85649E+04 -1.40168E+04  1.75216E+04  6.27513E+03
  7.34549E+03  1.43206E+04 -9.88894E+03  1.18592E+04 -1.01749E+04  2.91516E+03 -5.49904E+03 -1.13144E+04
 -5.01522E+03 -1.71934E+04  8.13090E+03 -1.52015E+04  9.38855E+03 -2.80345E+03  6.32676E+03  3.16708E+03
 -1.08551E+04  5.04690E+03 -7.01179E+03 -8.17434E+03 -1.64750E+03 -1.31530E+04  6.16994E+03 -8.30438E+03
  1.40973E+04 -8.67631E+03  1.47888E+04  4.24655E+03  1.82559E+04  1.25984E+04  7.14262E+03  1.78421E+04
 -3.59742E+03  1.68916E+04 -1.70607E+04  1.51183E+04 -1.10327E+04  5.46106E+03 -1.45247E+04 -1.72909E+03
 -4.92489E+03 -6.93104E+03  3.59720E+03  2.81489E+03 -2.59830E+03  5.79630E+03 -6.61437E+03  1.72958E+03
 -8.11442E+03 -6.56529E+03 -1.15763E+04 -8.81450E+03 -8.19010E+03 -1.15450E+04  7.51922E+03 -1.19499E+04
  1.27000E+04 -4.74016E+03  6.35888E+03  1.43967E+03 -1.56386E+02  8.61978E+03 -8.20396E+03  2.28669E+03
 -1.04633E+03 -6.73153E+03  1.68943E+03 -7.98250E+03  1.06788E+04 -8.53870E+03  1.03441E+04 -3.78686E+03
  1.43443E+04  1.69791E+01  8.37029E+03  1.40808E+04 -1.32566E+03  1.04538E+04 -1.07011E+04  1.05955E+04
 -9.79035E+03  3.27033E+03 -3.68576E+03  2.37783E+03  3.09587E+03 -4.61976E+03  7.75534E+03 -3.86754E+03
  7.97047E+03  4.15045E+03  1.20871E+03  6.82413E+03 -7.98595E+03  5.34904E+03 -8.89069E+03  1.18911E+03
 -7.73166E+03 -3.96891E+03 -1.18391E+02 -1.11980E+04  6.01222E+03 -3.40566E+03  8.53089E+03 -1.98957E+02
  1.85271E+03  7.97208E+03 -8.68785E+03  5.55188E+03 -7.10430E+03  8.01259E+02 -6.35709E+03  4.16060E+03
 -4.18091E+03 -1.31147E+04  8.69178E+03 -5.17501E+03  9.75650E+03 -5.42138E+03  8.12137E+03 -1.50402E+03
  4.96221E+03  7.32743E+03  3.13382E+03  3.98843E+03 -6.52711E+03  1.02029E+04 -4.74327E+03  6.05718E+02
 -9.07643E+02 -1.95996E+03 -1.10000E+03 -9.44735E+03  1.88395E+03 -7.36752E+03  3.78599E+03 -5.45013E+03
  4.39714E+03 -2.00065E+03  3.98446E+03  2.94751E+03  1.39173E+03 -1.96663E+03  1.20630E+03 -2.60324E+03
  4.92318E+03  4.78891E+02  1.23324E+04 -2.12781E+02  8.51601E+03  5.70273E+02  7.74632E+03  8.74506E+03
 -2.61847E+03  1.44595E+04 -1.16347E+04  1.24983E+04 -1.28729E+04  3.87261E+03 -1.06685E+04 -4.69434E+03
 -2.61187E+03 -9.25071E+03 -3.62328E+02 -1.04615E+04  6.19527E+03  8.71118E+02  3.22219E+03 -2.31847E+03
  2.21173E+03  1.07306E+02 -3.24975E+02 -5.82506E+03  1.03432E+03 -1.79648E+03  6.61983E+02  1.51303E+03
  8.86200E+03  5.82409E+03  4.26459E+03  6.25543E+03 -4.57730E+03  5.36288E+03 -5.64157E+03  2.77453E+03
 -4.14809E+03 -1.10530E+03 -1.02059E+04 -6.51868E+03 -1.33843E+03 -1.32760E+04  5.46381E+03 -1.22048E+04
  1.14752E+04 -7.70064E+03  6.80799E+03  2.83596E+02  1.20063E+04  5.84738E+03  5.04956E+03  1.06168E+04
 -2.31205E+03  1.02391E+04 -7.12246E+03  1.20213E+03 -5.38764E+03 -3.13559E+02  2.12361E+03 -2.03523E+03
  3.17343E+02  3.36956E+03  1.47342E+03  2.88154E+02 -8.02700E+03  2.23886E+02 -6.94683E+03 -4.95771E+03
 -7.59223E+02 -3.20583E+03 -3.60286E+02 -7.10127E+03  1.55326E+03 -7.77991E+03  3.17531E+03 -1.98450E+03
  3.53365E+03  4.81548E+03  2.20419E+03  4.95055E+03 -9.99166E+02  9.14901E+03 -5.48805E+03  5.45424E+03
 -3.29773E+03 -2.14824E+03 -4.67104E+03 -4.32550E+03 -2.63096E+03 -2.16589E+03  9.93613E+02 -3.56294E+03
  1.88379E+03 -3.97258E+03  2.70944E+03  3.96975E+03 -2.15923E+03 -9.93663E+02 -4.22081E+03  3.16900E+03
  2.38792E+03  1.07710E+03 -4.00047E+03 -1.80750E+03 -9.75980E+02  4.01818E+03 -2.82988E+03  1.78737E+03
 -6.45167E+03  8.02708E+02 -6.22905E+03  7.29117E+03 -6.74739E+03  2.39341E+03 -3.00029E+03  5.41540E+02
  1.82545E+03 -4.88136E+03 -2.65933E+03 -7.86446E+03  7.23445E+03 -6.21455E+03  7.37694E+03  2.72127E+01
  1.85196E+03  2.18266E+03 -4.43452E+03  2.06920E+03 -3.26633E+03  4.77893E+03 -3.44175E+03  4.43665E+02
 -2.50108E+03 -3.46527E+03  1.66959E+03 -1.08421E+03  3.96826E+03 -1.74626E+03  7.82025E+03  4.27732E+03
  6.88302E+03  1.18889E+03 -8.11948E+01  2.63181E+03  1.82776E+03  4.34351E+03  3.25340E+03  2.85897E+02
  2.12681E+03 -2.87697E+03  4.89596E+03  1.26005E+02  1.82787E+03  5.89675E+03  3.74572E+03  3.21513E+03
  4.43824E+02 -3.76646E+02 -2.79873E+03 -4.73741E+03 -1.59602E+03 -7.50886E+01  6.50676E+02 -2.12978E+03
  2.91115E+03 -8.94765E+03  2.16813E+03 -1.71108E+03  3.83465E+03  6.50211E+02  2.96837E+03  2.21452E+03
 -2.03216E+02  1.87862E+02  4.31891E+03 -2.72366E+02  1.17616E+03  5.02292E+02 -6.96266E+02 -1.80944E+03
  9.81099E+02 -1.21596E+03 -1.28589E+01  2.82810E+03  6.16257E+02 -1.90053E+03  2.04976E+02  6.50310E+03
  3.10497E+03  1.34717E+03 -1.14892E+03 -2.12593E+03  3.55533E+03  2.11083E+03 -1.00392E+03 -2.22786E+03
  1.35243E+03  4.27274E+03  2.75698E+03  3.77556E+03  8.06887E+02  1.82592E+03 -9.36214E+02  5.05092E+03
 -3.53613E+02  4.94462E+02  4.25163E+02 -1.48257E+03 -2.51629E+03 -7.84969E+02  1.99885E+03  1.77502E+03
 -1.78957E+03 -3.68516E+03  5.71538E+03  3.17236E+03 -9.44324E+02  5.68209E+03 -1.87033E+03  1.07309E+03
  1.24877E+03  1.13713E+03 -5.07994E+02 -1.75398E+03  4.55411E+03 -6.68321E+02  3.35128E+02  1.43055E+02
 -1.52970E+03 -3.00022E+02 -3.12607E+03  7.70602E+02 -6.04713E+03 -7.76340E+03 -5.49479E+03 -4.78603E+03
 -4.79125E+03 -6.50944E+03  2.64885E+03 -7.27237E+03  1.63979E+03 -2.08027E+03  2.37936E+03  2.41448E+03
  2.51971E+03  8.09677E+01  1.94754E+03  1.92869E+03 -1.19687E+03  4.37001E+02 -3.32039E+03  3.02172E+03
 -2.77746E+03  1.01604E+03  4.81592E+03  1.34027E+03 -4.40342E+03  2.41459E+03  1.30998E+03 -5.15168E+02
 -2.64526E+03 -2.44025E+03  1.01380E+03  1.94585E+03  6.08719E+03 -1.75010E+03  1.29518E+03 -5.15469E+01
  8.13173E+03 -3.57966E+03  5.08961E+03 -3.98284E+03  3.14165E+03 -1.01044E+02  5.65381E+03  5.58050E+03
  1.10406E+03 -7.62795E+02  1.22330E+02 -3.81712E+02 -2.06813E+03 -2.72722E+02 -1.13871E+02 -6.49554E+03
 -2.68156E+03 -2.56934E+03  4.27484E+03  6.99251E+02  1.63167E+03 -5.82706E+03 -2.58586E+03  1.72845E+03
 -1.20002E+03 -3.39211E+02  2.67466E+03  2.04449E+03 -2.91491E+03 -4.76240E+03 -1.29874E+03 -5.36363E+02
  2.49765E+03  3.21919E+02 -9.67228E+02  1.62576E+03 -3.08895E+03  1.07109E+03 -2.95792E+03  3.35593E+03
 -3.13778E+03 -2.63752E+03 -1.98722E+03  1.31555E+02  1.68263E+03 -1.11718E+03  2.77413E+03 -8.08958E+02
  5.67694E+03 -1.34136E+03  4.20606E+03  3.18177E+03  3.21000E+03 -2.70746E+03 -8.01169E+02  4.96723E+03
  9.29452E+02 -4.77319E+02 -3.13557E+02 -8.12564E+02  1.02412E+03  1.39002E+03 -2.34157E+03 -4.07429E+02
  7.60820E+02 -4.83076E+02 -2.13529E+03 -4.18399E+03 -5.24739E+03 -5.97637E+03 -7.19928E+02 -6.21395E+02
 -1.20830E+03  1.78338E+03  1.78502E+03  1.79596E+03  2.78926E+03 -3.07508E+03  4.03195E+02  4.50360E+02
  3.98427E+03  7.62596E+02 -3.48245E+03  2.72104E+03  7.88006E+03 -9.53267E+02  1.48340E+03  6.87915E+03
