 $NMID ID='MM_0lb_SNR50_20hz_g40_40.RAW', FMTDAT='(8E13.5)'
 TRAMP=1., VOLUME=1. $END
  3.11355E+05  2.52853E+03  3.33322E+05  2.55411E+05  8.26682E+04  3.35577E+05 -1.29940E+05  2.51787E+05
 -1.91064E+05  8.15018E+04 -1.09837E+05 -3.29326E+04  2.27055E+03 -5.01621E+04  5.62860E+04  2.51996E+03
  3.93265E+04  5.48277E+04 -1.51656E+04  7.18696E+04 -5.97779E+04  6.59846E+04 -8.62476E+04  3.21196E+04
 -7.70984E+04 -1.18796E+04 -5.69288E+04 -4.58539E+04 -1.79081E+04 -6.94284E+04  2.68172E+04 -4.50669E+04
  4.12793E+04  7.51160E+03  1.28423E+04  4.84495E+04 -3.27073E+04  4.66160E+04 -6.33050E+04 -1.07136E+03
 -5.02342E+04 -5.84961E+04 -6.93581E+03 -7.35343E+04  3.08657E+04 -5.09733E+04  4.28432E+04 -1.51686E+04
  3.91641E+04  1.24355E+04  3.17620E+04  1.90410E+04  1.57687E+04  2.97305E+04 -2.90596E+03  2.65584E+04
 -2.38601E+04  1.39194E+04 -1.73477E+04 -1.76529E+03 -9.39120E+01 -9.02042E+03  2.17650E+04  1.24292E+04
  7.57438E+03  3.43190E+04 -2.90830E+04  3.31037E+04 -6.16853E+04  2.12773E+03 -5.21596E+04 -3.67010E+04
 -1.35116E+04 -5.83446E+04  3.77949E+04 -4.09979E+04  5.35147E+04 -8.30662E+02  3.12387E+04  2.70769E+04
 -4.68322E+03  2.93157E+04 -2.94460E+04  1.55113E+04 -2.69656E+04 -8.47989E+03 -1.27250E+04 -8.77869E+03
 -5.98800E+03 -1.16545E+04 -1.61467E+03 -1.64305E+04  4.42687E+03 -2.27251E+04  1.53700E+04 -1.47825E+04
  1.47112E+04  3.55538E+03 -1.05399E+04  1.57169E+04 -1.64434E+04  1.95578E+03 -8.91842E+03 -2.98975E+04
  1.70672E+04 -3.54661E+04  4.48476E+04 -1.72557E+04  3.89401E+04  1.72705E+04  1.08178E+04  3.58544E+04
 -1.30576E+04  2.88801E+04 -2.07275E+04  3.06444E+02 -7.96416E+03 -2.12634E+04  1.95809E+04 -2.98591E+04
  3.40106E+04 -7.52138E+03  2.75092E+04  2.43047E+04  1.44069E+04  4.37505E+04 -7.40285E+03  4.37083E+04
 -2.62090E+04  2.86663E+04 -3.64913E+04  6.89023E+03 -3.83987E+04 -1.17468E+04 -2.15516E+04 -3.38628E+04
  7.67682E+03 -3.25425E+04  2.63723E+04 -1.24977E+04  3.00686E+04  1.49218E+04  3.47969E+03  1.58963E+04
 -1.26806E+04  4.98425E+03 -8.15187E+03 -1.16273E+04  6.89572E+03 -1.20294E+04  1.66109E+04  7.02020E+03
  9.20922E+03  2.15061E+04 -5.49783E+03  2.50269E+04 -2.17669E+04  1.09908E+04 -2.27578E+04 -7.50725E+03
 -1.43080E+04 -1.61544E+04 -6.77803E+03 -1.33729E+04  2.71654E+03 -1.00272E+04  1.10523E+04 -1.55120E+04
  1.81428E+04 -1.23310E+04  2.28909E+04 -1.22979E+03  2.28286E+04  1.21946E+04  5.00788E+03  3.10899E+04
 -1.38366E+04  3.05743E+04 -2.01723E+04  7.74301E+03 -1.77841E+04 -1.23381E+04 -5.76211E+03 -1.36764E+04
  1.87570E+03 -5.63043E+03 -1.55119E+03  2.99364E+03 -1.15081E+04  3.89597E+03 -1.23011E+04  1.87282E+03
 -4.74790E+03 -1.49605E+04  2.05998E+03 -1.76916E+04  7.87101E+03 -1.46444E+04  1.26108E+04  3.74039E+02
  9.67030E+03  7.22391E+03 -2.79469E+03  1.44882E+04 -9.72829E+03  7.37094E+03 -1.52845E+04 -4.59903E+03
 -1.04261E+04 -1.26955E+04 -5.43395E+03 -1.54496E+04  7.04419E+03 -1.66952E+04  1.30293E+04 -3.77563E+03
  1.62288E+04 -1.98696E+03  6.59527E+03  3.77103E+03  7.04539E+03  3.84870E+03  8.19248E+03 -5.05268E+02
  1.35455E+04  1.87554E+03  1.44692E+04  1.28341E+04  8.98826E+03  2.40969E+04 -1.72778E+03  2.57291E+04
 -1.27632E+04  1.72462E+04 -2.73713E+04  7.46745E+03 -1.94239E+04  1.39885E+03 -2.25891E+04 -1.29763E+04
 -1.26741E+04 -2.21748E+04  8.40398E+03 -1.84716E+04  1.23864E+04 -8.56587E+03  1.26597E+04  3.10448E+03
  6.40791E+03  7.86051E+03 -8.26757E+03  1.21009E+04 -1.39313E+04  2.11357E+03 -5.44757E+03 -7.24095E+03
  6.50420E+03 -1.16158E+04  5.91102E+03 -1.10900E+04  8.26895E+03 -9.28502E+02  4.09765E+02  7.99235E+03
 -4.20059E+03  2.12784E+03 -8.18498E+02 -4.01236E+03  2.04305E+03 -9.63366E+03  9.03292E+03 -1.17975E+04
  1.13174E+04 -5.91234E+03  1.02667E+04  2.63027E+02  9.55951E+03  1.02810E+04 -1.95267E+03  8.40551E+03
 -1.00746E+02  1.31650E+04 -1.45667E+03  9.54837E+03 -7.92202E+03  2.52238E+03 -6.38788E+03  1.37152E+03
 -4.97494E+03 -2.18504E+03  1.20623E+03  3.98115E+03 -1.62116E+03  1.28696E+03 -2.50555E+03  4.71830E+03
 -6.01883E+03  6.18429E+03 -8.76073E+03 -5.68155E+03 -2.61713E+03 -1.01908E+04  3.33646E+03 -7.67934E+03
  7.37447E+03 -4.90401E+03  1.79449E+03  2.63980E+03 -4.16273E+02  2.96712E+01 -2.98176E+03 -1.71116E+03
 -4.99548E+03 -3.83569E+03  3.14855E+03 -3.66304E+03  2.50730E+03 -5.25028E+03  8.96689E+03 -9.86079E+02
  8.87060E+03  2.50805E+03  6.47361E+03  4.50900E+03  7.26812E+02  5.99383E+03 -4.98185E+03  8.00120E+03
 -5.95854E+03  3.28160E+03 -6.10700E+03  1.40438E+03  3.82727E+03 -1.12193E+03  4.09247E+03  1.51387E+03
  3.85677E+02 -2.23535E+03 -6.94509E+02  7.02587E+03  4.12863E+02  2.76324E+03 -7.22354E+03  1.09388E+02
 -5.84781E+03 -6.54277E+03  5.11108E+02 -4.44216E+03 -2.55049E+02 -5.31807E+03  4.56486E+03  4.25779E+03
 -2.69009E+03  4.12582E+03 -3.24880E+03  6.40431E+03 -3.09426E+03  2.22484E+03 -4.17332E+03 -4.75668E+03
 -4.59566E+03 -2.23985E+03  3.11662E+03 -3.09877E+03  3.80414E+03 -1.25984E+03  7.64826E+03 -3.03062E+03
  3.77488E+03  3.17307E+03  3.67609E+03  5.42416E+03 -1.54530E+03  2.31207E+03 -2.86022E+03  9.60768E+02
 -3.32221E+03 -4.07613E+03 -2.04715E+03 -4.91483E+03  4.58525E+03 -5.78759E+03 -4.13163E+02 -7.17304E+03
  5.52430E+02 -7.54305E+02 -8.98818E+02  2.24690E+03  4.12653E+03  3.35270E+03 -7.32471E+02 -1.04789E+03
  4.25867E+03 -2.74750E+02  9.09909E+03  4.43309E+03  1.43177E+03 -8.57516E+02  2.55428E+03  7.40049E+03
  3.28901E+02  7.44065E+03 -3.53928E+03  7.65081E+03 -1.16001E+04  2.18038E+03 -6.94815E+03 -1.03962E+03
 -4.86738E+03 -5.06932E+03 -2.56689E+03 -1.98998E+03  3.58976E+03 -2.51381E+03 -3.94203E+02 -4.58160E+03
  6.31095E+02  2.50556E+02  4.74720E+02 -2.45953E+03  9.03953E+03 -1.12512E+02  1.35221E+03 -4.56156E+02
  3.62809E+03 -5.52634E+02 -1.07918E+03  4.49248E+03  4.32152E+02  3.44295E+03 -5.27213E+03  2.78437E+03
 -7.78956E+03 -3.15411E+03  1.60008E+03 -3.09340E+03 -1.28495E+03 -2.79478E+03  2.73519E+03 -3.21415E+03
  2.55838E+03 -4.81384E+02  3.06436E+03 -8.54075E+02  6.24712E+03  1.89215E+03  4.02955E+03  8.56142E+03
 -2.25977E+03  6.26702E+03 -4.55391E+02  2.75673E+03  2.05870E+03 -1.67553E+03 -1.77518E+02 -1.02245E+03
 -2.90730E+03 -1.01430E+03  2.17916E+03  6.18434E+02  4.30887E+01  4.09748E+03 -2.70503E+03  2.26925E+03
 -4.97711E+02 -4.02782E+03  4.70341E+02 -3.90187E+03  9.01241E+02 -3.59238E+03  1.46514E+03  3.86377E+02
  3.10337E+03  1.22658E+03  3.63439E+03  3.83019E+02  1.70830E+03  2.63328E+03 -4.59780E+03  3.72447E+02
 -3.74607E+03 -1.84341E+02  8.43067E+02 -2.70250E+03 -2.23121E+03 -5.04275E+02 -1.21748E+03  4.52420E+02
 -2.08620E+03 -7.32241E+02  8.41521E+02  2.63385E+03  2.41885E+03 -1.42595E+03  8.88463E+02 -1.18739E+03
 -2.78920E+02  1.88978E+03 -2.56300E+03 -8.76195E+02  6.82887E+02  4.10037E+03  3.29824E+03  1.10484E+03
 -2.86889E+03  4.96337E+02 -7.83014E+02  5.23346E+03  5.00696E+02  2.12245E+03 -9.58433E+03  2.10580E+03
 -2.27669E+03 -4.01601E+03 -2.78618E+03 -3.57347E+03 -2.55959E+03 -3.97517E+03  4.00901E+03 -5.77290E+02
  3.34857E+03  2.61466E+03  9.61042E+02  5.45144E+03 -9.45747E+02 -2.08447E+03 -2.73190E+03  1.60936E+03
 -7.14085E+01 -4.44990E+03 -6.19547E+02 -2.76101E+02  5.57578E+02 -8.51996E+02  4.74067E+03 -1.52967E+01
  1.00178E+02 -1.11698E+03  4.53791E+02 -1.56690E+03 -4.97773E+02 -5.02942E+03  3.32834E+03  1.42119E+03
  2.13990E+03 -4.58335E+03  5.13935E+03 -6.91812E+01 -2.18745E+03 -3.31983E+03  1.43875E+03  3.89014E+03
 -3.24722E+03  1.96437E+03 -2.78342E+03  3.74595E+02 -4.20135E+03 -4.67632E+02  1.86334E+03  1.15808E+03
 -1.07455E+03  3.63600E+02 -8.02498E+01  3.41874E+03  6.54459E+02 -3.66010E+03  4.89751E+02 -3.55514E+03
 -9.49284E+01 -1.49179E+02  1.96578E+03 -8.15209E+02 -4.55049E+03  4.74938E+02 -9.54204E+02 -2.70111E+01
 -1.08990E+03 -4.56306E+03  1.16036E+03  1.20517E+03  2.29792E+03 -1.15210E+03 -9.00100E+02  1.16812E+03
 -3.16925E+03 -8.35954E+00 -1.49667E+03 -1.22841E+03  2.52700E+03  2.71972E+03  4.18929E+03 -1.50455E+02
  6.24104E+02 -6.14138E+02  2.18810E+03  2.27710E+03  2.57679E+03 -3.04845E+02  7.99417E+02  6.00040E+03
 -8.33906E+02  1.47848E+03  9.65431E+01  1.16189E+03 -3.10004E+03 -2.81919E+03  1.89075E+03  2.77589E+03
  1.71102E+03 -3.71925E+03 -5.06191E+02 -7.12599E+00 -2.04999E+03  2.05434E+03  3.29938E+03  2.14658E+03
  3.35957E+02 -2.05285E+03 -7.86110E+02 -9.70513E+00 -2.89863E+03 -8.36461E+02 -2.53311E+03  1.28590E+03
  9.81740E+02 -2.07427E+03 -3.38792E+03  4.84150E+03  4.60550E+03 -6.20529E+02 -3.45048E+03 -1.72401E+03
  3.08589E+02 -2.71234E+03 -7.61933E+02 -2.61975E+03 -3.03940E+03 -4.92326E+03  4.16111E+03  1.06081E+03
  2.83273E+03  3.22816E+03 -2.15988E+03  2.42184E+03  1.64741E+03  2.65351E+03  9.99649E+02 -1.91819E+03
 -2.64665E+03  4.06202E+03  8.99778E+02  3.53283E+02  1.23563E+03 -2.62077E+03 -2.70870E+03  3.55743E+03
 -3.70768E+02 -2.46913E+03  1.32518E+03  3.03634E+03  2.07715E+03  9.76050E+02 -1.99948E+02 -7.94456E+02
 -6.16985E+02 -2.36107E+02  1.16261E+02  2.85060E+03  8.57676E+02  2.00836E+03 -4.54725E+03 -6.55528E+02
 -2.01592E+03  1.55648E+03  3.66361E+03  4.36289E+03  7.47244E+02 -1.07850E+03 -2.90987E+03 -1.41977E+03
 -1.30775E+03  1.90511E+03  6.72568E+02 -4.39804E+02 -1.16776E+02  1.90059E+03  1.03149E+03 -6.69486E+02
  2.33177E+03  2.17460E+03  2.07274E+02 -2.28514E+03  3.39356E+03  8.73000E+02  6.23709E+02 -3.95808E+02
  1.39841E+03  3.19981E+03  1.52171E+03 -8.66711E+02  2.00483E+03  1.27922E+03  3.37528E+02 -6.52168E+02
 -1.58278E+03 -1.21457E+03 -3.91586E+02 -2.23851E+03 -2.83570E+02  1.50670E+03 -9.26444E+02 -3.31611E+03
  1.14154E+03 -1.23486E+03  2.27994E+03 -1.58439E+03  2.71260E+03 -6.58432E+02 -1.39037E+03  3.62019E+03
  9.38950E+01  2.11760E+03  2.80383E+03 -1.17252E+03  1.50106E+03  3.28764E+03  4.69801E+03  2.71709E+02
  2.20186E+03 -1.22559E+03 -5.31585E+01 -3.50915E+01 -1.72081E+03 -1.48797E+03 -1.36834E+03 -2.88243E+03
 -9.10117E+01  1.78741E+03  4.48427E+03  1.23229E+03  2.01798E+03 -2.58459E+03  2.41001E+02  2.37780E+03
  1.05085E+03 -7.89843E+02  2.24053E+03  5.39704E+03  2.15645E+03 -2.00189E+03  3.91471E+03 -4.45059E+02
