 $NMID ID='MM_0lb_SNR50_18hz_g55_25.RAW', FMTDAT='(8E13.5)'
 TRAMP=1., VOLUME=1. $END
  3.08070E+05  1.88130E+03  3.39501E+05  2.50067E+05  8.85038E+04  3.38470E+05 -1.30252E+05  2.49949E+05
 -1.87181E+05  8.43873E+04 -1.06605E+05 -3.59916E+04  4.24010E+03 -5.01321E+04  5.59410E+04 -1.01742E+03
  3.46030E+04  5.26050E+04 -2.02240E+04  7.31746E+04 -6.39670E+04  6.07349E+04 -8.18962E+04  3.36837E+04
 -7.71241E+04 -1.38173E+04 -5.62581E+04 -5.04138E+04 -1.80162E+04 -7.26212E+04  2.82649E+04 -4.52633E+04
  3.89301E+04 -2.21798E+03  1.36963E+04  4.95333E+04 -3.46673E+04  4.38261E+04 -6.94155E+04 -5.26450E+02
 -5.37893E+04 -5.77793E+04 -6.57306E+03 -7.96606E+04  3.61500E+04 -5.30806E+04  5.02705E+04 -1.74823E+04
  4.31367E+04  7.77931E+03  2.81534E+04  2.44606E+04  1.98981E+04  2.96979E+04 -5.72150E+03  2.58065E+04
 -2.59137E+04  1.45687E+04 -1.85018E+04 -3.63052E+03  2.65822E+03 -6.76410E+03  2.60895E+04  1.41451E+04
  8.35755E+03  3.41077E+04 -3.11595E+04  3.44886E+04 -6.40287E+04  3.10648E+03 -5.19104E+04 -3.99017E+04
 -1.30761E+04 -6.57694E+04  3.70477E+04 -4.18379E+04  5.87359E+04 -7.16298E+03  3.33836E+04  3.37486E+04
 -6.44509E+03  3.60427E+04 -2.73686E+04  1.60345E+04 -2.86856E+04 -3.55598E+03 -1.52204E+04 -1.21714E+04
 -9.13012E+03 -1.48533E+04  2.93480E+03 -1.46007E+04  7.94844E+03 -1.68335E+04  1.43141E+04 -1.36869E+04
  1.35555E+04  1.88480E+03 -2.64706E+03  1.15615E+04 -2.27711E+04 -9.01474E+03 -8.33353E+03 -3.43569E+04
  2.41059E+04 -4.58567E+04  4.41311E+04 -1.91707E+04  4.27788E+04  1.81824E+04  1.87729E+04  4.39693E+04
 -1.67620E+04  3.37711E+04 -2.51606E+04 -2.81266E+03 -8.27163E+03 -2.58644E+04  2.08587E+04 -2.98917E+04
  3.93922E+04 -1.10644E+04  3.35423E+04  2.45898E+04  1.60128E+04  4.47114E+04 -8.47895E+03  4.81388E+04
 -2.96116E+04  2.90815E+04 -3.45986E+04  9.36436E+03 -3.91409E+04 -1.13566E+04 -2.12768E+04 -3.71505E+04
  9.08257E+03 -3.70039E+04  2.88327E+04 -1.38575E+04  2.76617E+04  1.16107E+04  2.67977E+03  1.66801E+04
 -1.37211E+04  6.01318E+03 -7.61641E+03 -8.62421E+03  1.67197E+03 -1.08889E+04  1.35863E+04  6.26056E+03
  1.40457E+04  2.26270E+04 -4.27912E+03  2.10377E+04 -1.64641E+04  1.28567E+04 -2.43550E+04 -2.83108E+03
 -1.57305E+04 -1.41691E+04 -1.08123E+04 -1.73010E+04  9.30847E+03 -1.54133E+04  1.41159E+04 -1.60108E+04
  2.15908E+04 -1.30004E+04  2.82837E+04  5.73006E+02  1.98591E+04  2.00019E+04  4.46196E+03  3.35704E+04
 -1.67907E+04  2.95798E+04 -2.64491E+04  4.31242E+03 -1.79329E+04 -1.04688E+04 -2.46917E+03 -1.12893E+04
  3.81272E+03 -4.39489E+03 -1.45174E+02  2.66046E+03 -1.07243E+04  8.94139E+03 -1.19944E+04 -5.70203E+03
 -1.02405E+04 -2.15582E+04  4.68344E+03 -2.23559E+04  1.61574E+04 -1.45626E+04  1.42275E+04 -4.55454E+03
  8.39970E+03  1.50578E+04  5.22098E+03  1.26171E+04 -1.14224E+04  1.36156E+04 -1.86807E+04 -3.94289E+03
 -1.29206E+04 -1.27990E+04  1.44714E+03 -2.41631E+04  1.13338E+04 -1.46663E+04  1.92644E+04 -7.57780E+03
  1.57893E+04  7.05854E+02  1.45348E+04  4.35475E+03  8.72454E+03 -6.37898E+02  7.06005E+03 -1.06569E+03
  1.50186E+04  1.89966E+03  1.64857E+04  1.69041E+04  1.50366E+04  1.97420E+04 -5.88091E+03  2.96314E+04
 -1.73394E+04  2.50506E+04 -2.61119E+04  9.79336E+03 -2.61474E+04 -8.48452E+01 -2.57304E+04 -1.73368E+04
 -1.09995E+04 -1.92461E+04  1.12215E+04 -2.14258E+04  1.85434E+04 -1.06964E+04  1.71972E+04  5.65453E+03
  8.10982E+03  6.80054E+03 -8.32642E+03  9.26802E+03 -1.40045E+04  3.56217E+03 -1.23347E+04 -7.99386E+03
 -1.43281E+03 -1.30359E+04  5.31834E+03 -8.08638E+03  8.02854E+03 -5.21198E+02  1.64892E+03  4.25502E+03
 -5.49160E+03  8.99335E+02 -4.99256E+03 -4.73253E+02 -1.57730E+03 -1.34875E+04  8.42784E+03 -1.52486E+04
  1.29182E+04 -5.56070E+03  1.16251E+04 -1.47909E+03  1.41837E+04  8.46505E+03  7.31323E+03  1.60313E+04
  6.27028E+01  1.95196E+04 -1.35939E+04  1.26347E+04 -1.25438E+04  4.63544E+03 -2.90122E+03 -2.35981E+03
 -3.77401E+03 -7.74072E+03 -1.06251E+03  1.47793E+03  2.50666E+03  4.82818E+02 -4.91589E+03  2.74428E+03
 -5.62491E+03  2.29922E+03 -2.61415E+03 -7.94113E+03 -4.63205E+03 -1.76494E+04  4.25519E+03 -1.08206E+04
  9.23363E+03 -4.16694E+03  2.96819E+03  3.49204E+03  1.56805E+03  5.33849E+03 -3.21199E+03  1.42287E+03
 -3.88612E+03 -5.32795E+03 -2.40817E+03 -6.57507E+03  4.71722E+03 -7.44738E+03  1.17418E+04 -7.18435E+03
  1.17332E+04  9.23596E+02  7.81159E+03  4.24501E+03  1.29961E+03  1.04705E+04 -7.99572E+03  8.76733E+03
 -5.12863E+03  6.22722E+01 -3.22403E+03  1.07978E+03  1.45997E+03 -4.11669E+03  3.43853E+03  5.95253E+02
 -2.95239E+03  5.64123E+03  1.63542E+03  8.49273E+03 -1.30438E+03  7.94977E+03 -9.33622E+03 -9.05548E+02
 -3.77779E+03 -4.70271E+02 -2.06617E+03 -6.83318E+03  6.51233E+03 -2.34292E+03  3.81465E+03  3.99612E+03
 -1.34422E+03  1.57401E+03 -6.01193E+03  4.35454E+03 -1.10192E+04  4.68264E+03 -9.00388E+03  7.06807E+03
 -2.96011E+03 -1.18100E+04  1.94734E+03 -7.58028E+03  6.09603E+03 -3.82983E+03  9.95381E+03  1.14982E+03
  9.38393E+01  1.03984E+04  3.34389E+02  7.16283E+03 -3.10782E+03  6.01567E+03 -4.42143E+03 -4.69330E+03
 -4.31860E+03 -7.10732E+03 -2.51946E+03 -6.72613E+03 -2.30487E+03 -7.11500E+02  6.26067E+03 -5.51477E+03
  3.76187E+03 -1.73229E+03  5.42579E+03  2.92702E+03 -1.10345E+03  1.38844E+03 -3.88646E+02 -2.17937E+02
  4.19917E+03  8.91999E+02  7.05322E+03 -3.13906E+02  9.44426E+03  2.66641E+03  4.33964E+03  6.33889E+03
  2.58538E+02  9.08929E+03 -1.04505E+04  9.34062E+03 -1.01740E+04  4.46422E+03 -1.25254E+04 -4.81857E+03
 -6.09867E+03 -5.20004E+03 -4.51154E+02 -6.04339E+03  1.32175E+03 -4.40102E+03 -2.93651E+02 -6.30376E+03
 -8.61163E+02  1.26357E+03  5.34739E+03 -3.36822E+03  6.41434E+03 -4.22423E+03 -1.20801E+03 -2.16846E+03
  1.80853E+03  1.56570E+03  5.06872E+03 -1.81663E+01  1.03487E+03  7.95565E+03 -5.94903E+03  6.88212E+03
 -3.25614E+03 -5.22324E+02 -4.88204E+03 -1.24275E+03 -1.32864E+03 -4.46495E+03  1.00019E+03 -6.51954E+03
  3.55547E+03 -7.53107E+02  9.29070E+03  3.33226E+02  5.78418E+03  7.66747E+03  2.41876E+03  1.26159E+04
 -3.09366E+03  9.37267E+03 -1.79948E+03  3.43788E+03 -4.11917E+03 -9.83762E+02 -2.66658E+03 -2.43437E+03
 -2.54819E+01 -3.63722E+02 -6.88072E+02  1.58892E+03 -1.29621E+03  7.65290E+02 -2.55203E+03  5.90361E+02
 -5.85615E+03 -5.40622E+03  9.78917E+02 -3.47082E+03  3.57845E+03 -3.94542E+03  3.13556E+03  1.35221E+02
  5.01678E+03  4.75703E+03 -7.46203E+02  2.42129E+03 -7.78534E+03  4.88846E+03  3.74099E+02 -2.47115E+03
 -3.09508E+03  4.24110E+03 -6.56728E+03 -1.51370E+03 -2.89338E+03 -1.94207E+03  4.39648E+03  1.16112E+03
  1.23866E+03 -1.87625E+03  4.76528E+03  1.25367E+02  4.06437E+02  3.82410E+03 -1.97902E+03  3.84188E+03
  3.05173E+03  2.14870E+03 -1.26290E+03 -7.75495E+02 -1.74065E+03  3.83781E+03 -2.86374E+03  1.25437E+03
 -7.73849E+02 -4.56725E+03 -5.07999E+03  2.70723E+03 -5.74508E+03  1.73768E+03 -5.75035E+03 -2.69925E+03
 -4.15515E+03 -2.46383E+03  1.48547E+03 -2.75056E+03  3.83744E+03 -2.35878E+03  3.69688E+03 -1.48835E+03
  3.39350E+03  5.76805E+03  2.43558E+03  3.34212E+03 -2.25649E+03 -3.69863E+03  4.28905E+02  3.19561E+03
 -3.18832E+03 -8.88505E+02  1.25762E+03 -4.89868E+02  2.02220E+03 -5.37617E+03  6.06950E+01 -8.06680E+02
  9.93758E+02  6.54917E+02 -4.74770E+03 -7.55264E+02  7.28582E+02 -6.71750E+02  2.57688E+03 -2.29065E+03
 -1.29918E+03  2.79907E+03  2.53705E+03 -3.62851E+03  1.67071E+03  2.67130E+03  1.93367E+03  3.33841E+03
 -2.67309E+03 -5.56844E+03  2.07834E+02 -8.57449E+02 -2.27325E+03  4.63765E+02 -3.63845E+03 -1.36647E+02
 -8.29142E+02  9.16999E+02 -8.63489E+02 -2.84658E+03  1.16967E+03 -5.85344E+02 -1.39831E+03  2.89366E+03
 -2.87964E+03 -2.34658E+03 -3.21241E+03  4.43307E+00 -1.63848E+03 -3.45183E+03 -1.91722E+03 -3.81799E+03
  5.66971E+02  5.46331E+03 -6.05157E+02  3.26260E+03  1.42808E+03  8.01755E+02 -1.73164E+02 -1.64651E+02
  1.56884E+03  3.63571E+02  3.73688E+03  1.85999E+03  3.46090E+03  1.07222E+03  1.75079E+03  3.01957E+02
  4.46249E+03 -2.87403E+03  1.77795E+03  1.02133E+03  6.78549E+03  1.59569E+03  3.27722E+03 -1.53942E+03
 -5.26596E+03 -1.79402E+03  1.43135E+03 -2.74735E+02 -3.15512E+03  9.66140E+02  2.54392E+03 -1.08389E+03
  2.12703E+03 -1.56950E+03 -8.52671E+02 -6.22108E+02 -1.24271E+03 -3.49453E+02 -2.82080E+01  3.10292E+03
 -5.07732E+03  1.18175E+03  1.47625E+03 -2.25212E+03  3.58178E+03 -2.51149E+02 -3.89022E+03  5.73572E+02
 -2.83896E+03 -1.02416E+03 -5.77273E+01  1.89898E+03  3.09581E+03  1.39964E+03  1.21647E+03 -2.44293E+03
 -1.84281E+03 -3.23787E+03  8.16328E+02 -2.32406E+03 -1.05694E+03 -4.99667E+03  9.15525E+02  2.79127E+03
  5.93351E+03 -6.71779E+02 -1.31317E+03 -5.54865E+03 -1.06721E+03  4.15350E+03  4.46911E+03 -1.58274E+03
 -3.39740E+02  5.64260E+03 -4.34059E+03 -1.55433E+03 -2.39439E+03  1.78392E+03  7.92825E+02  2.16972E+03
  4.94572E+02 -4.25102E+03 -1.61490E+02 -3.28100E+03 -1.83383E+03 -2.23790E+03  3.84266E+03 -1.27017E+03
 -8.66319E+02 -4.38845E+03 -2.20006E+03  3.26368E+03  3.10157E+03  3.29069E+02 -3.66366E+03  3.60169E+03
  2.08989E+03  3.12902E+02  4.13676E+01  8.32935E+03 -2.30441E+03 -1.29008E+03  3.73717E+02  1.46428E+03
 -4.27737E+03  1.86197E+03  2.58620E+03 -1.64976E+02  1.95292E+03 -2.90433E+03  4.07907E+03  3.08825E+03
  6.68204E+02 -2.07778E+03 -1.09467E+03  4.58493E+03  3.62827E+03 -3.22363E+03  2.15544E+03 -2.60408E+03
 -1.66199E+03  1.63697E+03 -9.50646E+02 -2.15055E+03 -9.07737E+02 -1.15596E+03  3.76731E+03 -3.55028E+03
  2.53756E+02  1.88665E+03 -9.88367E+02  6.42137E+02  4.52430E+02 -2.61237E+03 -4.29579E+03  1.37448E+02
  2.88088E+03  2.44502E+03 -6.15730E+02 -2.36802E+03  2.52104E+03 -4.74227E+03 -1.85746E+03 -3.02031E+02
 -2.97594E+03 -2.95055E+03  1.43526E+03  2.06302E+03 -1.37627E+03  6.54296E+02 -6.19317E+01 -3.75566E+03
  1.49890E+03  3.04605E+02 -2.29165E+03 -2.35324E+03  4.95558E+03 -1.82150E+03  4.56495E+03  4.30265E+02
  4.81431E+02 -1.39626E+03  1.78954E+03  3.69333E+01 -4.69109E+03 -3.75842E+02  2.86306E+02  9.54911E+02
  2.07579E+03  3.33726E+02  5.06337E+03 -2.49063E+02  1.01880E+02  1.29252E+03  2.86762E+03  1.40712E+03
