 $NMID ID='MM_0lb_SNR50_17hz_g60_75.RAW', FMTDAT='(8E13.5)'
 TRAMP=1., VOLUME=1. $END
  3.09138E+05 -2.42912E+03  3.37225E+05  2.50496E+05  8.73706E+04  3.37033E+05 -1.33324E+05  2.59395E+05
 -1.94322E+05  8.34542E+04 -1.09946E+05 -3.18430E+04 -2.38325E+03 -5.09776E+04  5.32387E+04 -3.58037E+03
  3.28598E+04  5.67209E+04 -1.86911E+04  7.77003E+04 -6.05556E+04  6.52170E+04 -8.44995E+04  3.14004E+04
 -7.67254E+04 -1.20439E+04 -5.09990E+04 -5.54470E+04 -1.65862E+04 -6.69234E+04  2.18215E+04 -4.70651E+04
  3.87695E+04  2.24735E+03  1.72486E+04  4.49089E+04 -3.56520E+04  5.21438E+04 -6.62950E+04  6.23651E+02
 -5.11360E+04 -6.07395E+04 -5.51482E+03 -8.13674E+04  3.24001E+04 -5.37868E+04  4.31235E+04 -1.52225E+04
  3.76879E+04  1.03116E+04  3.20593E+04  2.83861E+04  1.67669E+04  2.92710E+04 -7.13534E+03  2.42423E+04
 -2.35593E+04  1.05618E+04 -1.67374E+04 -4.57000E+03  6.79536E+03 -1.03266E+04  2.28013E+04  1.16647E+04
  8.77969E+03  3.67836E+04 -3.21734E+04  3.48039E+04 -5.87497E+04  7.04920E+03 -5.63548E+04 -4.53212E+04
 -9.85650E+03 -6.67952E+04  3.73482E+04 -4.29838E+04  5.99961E+04 -5.08511E+03  3.40399E+04  3.33091E+04
 -3.41860E+03  3.55170E+04 -3.37659E+04  1.86665E+04 -2.96754E+04 -6.55378E+03 -1.69168E+04 -1.09961E+04
 -6.47552E+03 -1.10208E+04  4.19363E+03 -1.81182E+04  4.76936E+03 -2.32659E+04  1.45983E+04 -1.42698E+04
  1.29889E+04  6.05217E+03 -6.54529E+03  1.36204E+04 -2.13736E+04 -3.51807E+03 -9.89925E+03 -3.25306E+04
  1.88309E+04 -4.14459E+04  4.60014E+04 -2.19017E+04  4.29490E+04  1.79798E+04  1.61858E+04  4.14497E+04
 -1.69036E+04  3.23698E+04 -2.65506E+04 -3.23979E+03 -6.09143E+03 -2.62897E+04  1.56724E+04 -3.23122E+04
  4.03308E+04 -8.10851E+03  3.95120E+04  2.29901E+04  1.61069E+04  4.30618E+04 -7.66755E+03  5.17185E+04
 -2.93892E+04  3.08090E+04 -4.38473E+04  1.00547E+04 -3.88045E+04 -1.71887E+04 -2.22100E+04 -3.95045E+04
  7.06819E+03 -3.80279E+04  3.38022E+04 -1.49725E+04  3.14409E+04  1.10620E+04 -4.22551E+03  1.92790E+04
 -1.49691E+04  6.25070E+03 -1.15953E+04 -8.46823E+03  9.78101E+03 -1.05145E+04  1.77240E+04  7.98783E+03
  1.74661E+04  2.02777E+04 -6.39473E+03  2.57098E+04 -2.10143E+04  8.92612E+03 -2.93988E+04 -5.54023E+03
 -1.98094E+04 -1.79338E+04 -5.22151E+03 -1.89398E+04  4.33242E+03 -2.05143E+04  1.08728E+04 -1.97128E+04
  2.35713E+04 -1.64399E+04  3.11707E+04  2.64717E+01  2.17593E+04  1.82648E+04  8.72674E+03  3.27322E+04
 -1.76066E+04  2.80912E+04 -2.29452E+04  1.28860E+04 -2.24745E+04 -1.09014E+04  1.63156E+02 -1.05401E+04
 -6.54105E+02 -2.57983E+03 -6.22231E+03  7.26333E+03 -1.49492E+04  5.39126E+03 -1.60595E+04 -1.25812E+04
 -1.03569E+04 -1.90042E+04  1.90932E+03 -2.03405E+04  9.21719E+03 -1.25827E+04  1.48599E+04  1.13550E+03
  9.40831E+03  1.18815E+04 -1.48162E+02  2.11276E+04 -9.82392E+03  1.15851E+04 -1.59890E+04 -6.49595E+03
 -1.20162E+04 -1.54398E+04 -6.55454E+03 -2.09486E+04  8.63900E+03 -1.88966E+04  1.65612E+04 -2.63181E+03
  1.36294E+04 -1.55124E+03  1.29244E+04  4.25399E+03  3.35954E+03 -1.93538E+03  7.63695E+03 -1.94213E+03
  1.39370E+04  4.28758E+03  1.59350E+04  1.15844E+04  9.30205E+03  2.57369E+04 -4.95400E+03  2.94002E+04
 -1.88130E+04  2.46751E+04 -2.80045E+04  9.92011E+03 -2.86042E+04 -9.44476E+02 -2.95152E+04 -1.65452E+04
 -4.89665E+03 -2.26593E+04  8.71774E+03 -2.42688E+04  1.95718E+04 -1.10551E+04  1.94969E+04  8.27284E+03
  9.18492E+03  1.33046E+04 -8.95188E+03  1.39421E+04 -1.72826E+04  9.43032E+02 -1.57667E+04 -9.06482E+03
 -1.82389E+03 -1.52158E+04  4.24983E+03 -1.42419E+04  9.33097E+03 -5.28037E+03  7.56355E+03  7.39923E+03
 -4.56992E+03  2.37620E-01 -6.39605E+03 -1.05620E+04  2.47623E+03 -1.08153E+04  1.14770E+04 -1.50112E+04
  1.50433E+04 -4.08033E+03  1.13709E+04 -7.03896E+01  9.58808E+03  8.64315E+03  7.22386E+03  1.79983E+04
 -1.16913E+03  2.34929E+04 -1.09248E+04  1.63558E+04 -1.81488E+04  4.61369E+03 -4.82865E+03 -3.51745E+03
 -6.88654E+03 -1.50218E+03  3.79165E+02  2.19211E+03 -5.59278E+03  5.95899E+02 -4.96091E+03  2.30081E+03
 -1.15317E+04  1.84523E+03 -8.41101E+03 -9.06590E+03 -1.01712E+04 -1.16494E+04  2.98245E+01 -6.15585E+03
  9.94445E+03 -9.38646E+03  8.72207E+03  3.82079E+03 -1.21208E+03  6.36516E+02 -1.05758E+04 -3.10082E+03
 -2.81549E+03 -5.71921E+03 -4.96906E+03 -1.03453E+04  5.71391E+03 -9.09302E+03  1.07283E+04 -5.82339E+03
  1.81634E+04  1.49290E+03  1.07725E+04  6.87866E+03 -3.71867E+02  1.27065E+04 -8.60431E+03  1.02424E+04
 -1.20297E+04  2.40252E+03 -4.80164E+03 -1.98447E+02  3.62391E+03 -3.97945E+03 -2.63261E+02 -2.39471E+03
  7.81022E+03  2.40663E+03  2.32083E+03  7.35065E+03 -6.85743E+03  5.34780E+03 -7.04275E+03  4.58192E+02
 -1.32804E+04 -6.44060E+03 -3.60576E+03 -1.18477E+04  6.01340E+03 -7.36192E+03  3.18702E+03  2.97776E+03
  1.34107E+03  6.91578E+03 -2.71731E+03  7.71168E+03 -6.73631E+03  5.13167E+03 -8.47643E+03 -2.48264E+03
 -2.96031E+03 -1.30872E+04 -2.12929E+03 -6.34205E+03  6.33878E+03 -3.76650E+03  8.23507E+03  1.92753E+03
  7.40605E+03  2.59264E+03 -3.11774E+03  9.07571E+03 -2.60223E+03  1.71110E+03 -6.45133E+03  1.96814E+03
 -2.63974E+03 -4.63108E+03  8.59461E+01 -7.56004E+03  4.53895E+02 -4.11648E+03  1.09078E+03  2.43559E+01
  3.61940E+03 -4.44022E+02 -1.81613E+03  3.67827E+03 -5.00590E+02 -2.04815E+03 -3.91967E+03  2.30170E+01
  4.84581E+03 -1.68990E+03  1.31928E+04 -4.76860E+03  3.45130E+03  1.07937E+04  4.58218E+03  1.15658E+04
 -2.17179E+03  9.91766E+03 -1.22415E+04  9.70161E+03 -9.59221E+03  5.03175E+03 -7.96615E+03 -3.64727E+03
 -3.61881E+03 -7.81857E+03 -3.53645E+03 -6.44988E+03  2.49239E+03 -3.30032E+03  1.63150E+03 -5.05014E+02
  2.23790E+03 -2.43677E+03  5.78362E+03 -1.33890E+03  2.99360E+03 -3.66834E+03  2.95313E+03 -1.83600E+03
  3.04852E+03 -6.31435E+02  1.69558E+03  7.00337E+03 -2.12662E+03  3.52420E+03 -1.02296E+04  3.31646E+03
 -9.31422E+03 -1.31301E+03 -7.41718E+02 -4.71899E+03 -4.98032E+02 -3.75139E+03  5.17069E+03 -8.54170E+03
  7.29924E+03 -2.02778E+03  1.30896E+04 -2.14319E+03  7.10546E+03  4.03823E+03 -2.74743E+03  7.90382E+03
 -4.35479E+03  2.03094E+03 -1.32615E+03  7.31209E+03  1.94138E+03 -5.28291E+02 -4.73814E+03 -2.13416E+03
 -3.79728E+02 -4.76162E+03 -1.87956E+03  2.95175E+03  2.63953E+03 -1.25400E+03 -1.65836E+03  1.89345E+03
  6.63270E+02 -4.72468E+03  2.09570E+03 -5.70268E+03  9.55355E+03 -7.77263E+03  1.76640E+03 -5.24334E+03
  6.67519E+03  4.30359E+03  2.89224E+03  4.54550E+03  6.01829E+03  7.07218E+03 -4.99236E+03  1.92962E+03
 -1.03647E+04  1.41695E+03 -6.72127E+03 -2.41408E+03 -1.44287E+03 -4.94089E+03 -1.67458E+02 -3.36043E+03
  6.30543E+02 -4.33679E+03  3.72544E+03 -2.32242E+03  2.25638E+03 -2.12380E+03 -1.66626E+03  2.37848E+03
  4.11008E+03 -2.63584E+02  1.95209E+03  9.25908E+02  6.74187E+02  6.88099E+03 -8.40938E+02  2.77022E+03
 -3.66784E+03  3.67543E+03 -1.83913E+03  4.54204E+03 -7.45276E+02  3.89234E+03 -5.22660E+03 -2.65400E+03
  2.04150E+02 -4.48858E+03  1.25470E+03 -6.52112E+03 -4.70219E+02 -1.37219E+03  1.68338E+03 -6.53124E+03
  3.49827E+03  2.33138E+03 -4.74373E+02  2.24248E+03 -3.53646E+03  1.33320E+03 -4.65926E+03  3.44682E+03
 -5.20468E+02 -1.24086E+03  2.44960E+03 -7.57218E+03 -5.31810E+03 -2.99480E+03  6.86904E+03  2.91463E+03
  3.84967E+03 -1.79828E+03  1.33638E+01 -1.12254E+03  1.65153E+01  4.46272E+03 -3.82882E+03 -2.62910E+03
 -1.46973E+03  7.33037E+02  2.75997E+03  1.60737E+03  3.77715E+03  3.42585E+03 -1.65095E+03  1.10776E+03
 -2.53635E+03 -1.92864E+03 -1.20519E+03 -8.64905E+02 -3.57468E+03 -1.42040E+03 -2.36674E+03 -2.34583E+03
 -1.71839E+03 -2.23613E+03  3.72198E+03 -5.18319E+02  2.31869E+02  6.95499E+02  1.48690E+03 -6.86677E+02
 -8.13133E+03  1.36395E+03 -2.54215E+03 -2.61338E+03  2.62223E+03 -8.02407E+02 -1.69211E+03 -1.20569E+02
 -1.59445E+03 -1.78387E+03  1.63295E+03  3.12714E+02 -2.50432E+02  4.83199E+03  3.31725E+02  6.26094E+03
 -2.89829E+03  2.74677E+03 -1.15463E+03 -3.53485E+03  3.91340E+03  1.70254E+02 -8.00826E+02  5.22974E+03
  2.50572E+03 -2.78440E+03  3.95752E+02  4.35513E+03  1.47358E+03  4.95573E+03  7.92035E+02  4.12653E+03
  1.02947E+02  1.92872E+03 -1.62653E+03 -1.72134E+03 -2.46565E+03 -1.34971E+03 -9.81102E+01 -6.39002E+03
  5.65404E+02  4.80157E+03  1.64926E+03  1.71386E+03  2.09932E+03  1.64981E+03 -4.69961E+03  1.98416E+03
 -3.94375E+03 -1.48962E+03  8.67231E+02  3.52943E+02 -4.34924E+02 -1.80441E+03  2.15012E+03 -5.31394E+01
 -5.39737E+02  4.72759E+03 -3.03476E+02  2.57257E+03 -4.89172E+03 -2.40220E+03 -5.90009E+03  1.06064E+03
  6.53190E+02 -2.08668E+02  2.53229E+02 -5.74077E+03  3.43785E+03 -6.33505E+03  1.40937E+03 -2.07377E+03
  1.98746E+02 -1.56429E+03  7.99400E+02  7.05953E+02  1.90931E+03  3.02915E+03 -4.52899E+03  3.66247E+03
  9.85675E+02  1.07622E+02 -1.72443E+03  1.73429E+03 -4.97689E+03  3.26819E+01 -5.89340E+03  5.59338E+02
 -2.04194E+03 -1.48484E+03 -3.59425E+03  1.99803E+03  2.00960E+03 -2.30229E+03  1.18021E+03  1.83199E+03
  5.79629E+03  1.32161E+02 -1.80590E+03 -4.22127E+01 -2.55160E+03 -3.21528E+02 -3.06045E+03  1.60453E+03
  2.92695E+03 -2.36187E+02 -2.82930E+03  1.47972E+03 -1.26941E+03  3.88650E+02 -2.93042E+03 -5.10687E+03
  2.66636E+03 -3.24778E+03  5.77280E+03 -4.29636E+03  9.49629E+02 -1.24356E+03 -5.03944E+02  4.17821E+03
 -4.53591E+03 -1.31859E+03  1.86749E+03  5.68094E+02  2.48922E+03 -2.68710E+03 -1.60270E+03 -6.34449E+01
 -8.15046E+02 -2.54183E+03 -5.57068E+02  8.28732E+02 -6.08159E+02 -1.88644E+03 -2.02049E+03  1.05731E+03
 -4.03728E+03  4.64268E+02  8.31961E+02  6.49627E+02  1.03283E+03  6.66542E+02 -5.42832E+03 -6.66566E+03
  1.32043E+03 -1.01484E+03  8.19558E+03  2.73757E+03 -3.39525E+03 -3.58386E+03  2.93713E+02  2.07942E+03
 -6.24019E+03 -3.38656E+03 -3.98817E+02  1.40896E+01 -1.36789E+03  3.52895E+03 -3.82499E+03 -2.52797E+02
  1.67400E+03  3.18803E+03 -1.59922E+03 -1.64870E+03 -1.31157E+02 -2.74032E+02 -1.26531E+03  2.18777E+02
  4.94343E+03  2.29875E+03  2.84231E+03 -2.92196E+03 -9.82439E+01  7.08646E+02  1.97450E+03 -4.59753E+03
  8.81581E+02  1.39695E+03  1.34757E+03  4.18072E+03  4.53838E+03  7.41714E+02 -1.36195E+03  5.67860E+03
