 $NMID ID='MM_0lb_SNR50_19hz_g55_2.RAW', FMTDAT='(8E13.5)'
 TRAMP=1., VOLUME=1. $END
  3.08010E+05 -1.20584E+03  3.33730E+05  2.49958E+05  8.18318E+04  3.38347E+05 -1.32699E+05  2.48884E+05
 -1.88415E+05  8.35834E+04 -1.11224E+05 -2.96784E+04  1.19898E+03 -5.09985E+04  5.86038E+04 -6.75039E+02
  3.30260E+04  5.74402E+04 -1.70717E+04  7.11450E+04 -6.04402E+04  6.55853E+04 -8.48407E+04  2.77481E+04
 -7.62850E+04 -1.36239E+04 -5.36673E+04 -5.45234E+04 -1.67831E+04 -6.61996E+04  2.60210E+04 -4.58954E+04
  3.46828E+04  3.19479E+03  1.56396E+04  4.78929E+04 -3.36509E+04  4.54913E+04 -6.57800E+04  1.02079E+03
 -5.27388E+04 -5.29739E+04 -5.19999E+03 -7.69989E+04  3.37939E+04 -5.47766E+04  4.94622E+04 -1.64002E+04
  4.19539E+04  1.23906E+04  3.08675E+04  2.16272E+04  1.59689E+04  2.72223E+04 -4.61298E+03  2.98088E+04
 -2.74083E+04  1.02439E+04 -1.56413E+04 -8.36867E+03  2.31385E+03 -6.12769E+03  1.89543E+04  8.03374E+03
  8.67687E+03  3.18304E+04 -3.19638E+04  3.46409E+04 -6.38980E+04  2.84360E+03 -5.29108E+04 -4.36245E+04
 -1.47828E+04 -6.48881E+04  3.71421E+04 -4.61648E+04  5.84972E+04 -2.42230E+03  3.08413E+04  3.15116E+04
 -5.56324E+03  3.33546E+04 -2.94482E+04  1.57494E+04 -2.80795E+04 -3.81993E+03 -1.41652E+04 -1.39760E+04
 -8.20163E+03 -1.01870E+04 -4.69347E+03 -1.90512E+04  9.77923E+03 -2.65735E+04  1.55227E+04 -1.52463E+04
  1.05211E+04  3.17640E+03 -1.49239E+03  1.50962E+04 -1.83086E+04 -1.32853E+03 -6.37235E+03 -3.24002E+04
  2.31978E+04 -4.08945E+04  4.56084E+04 -2.07209E+04  4.21952E+04  2.09391E+04  1.59180E+04  4.19749E+04
 -1.91319E+04  3.16733E+04 -2.57814E+04  3.07401E+03 -9.33629E+03 -2.26162E+04  2.22315E+04 -3.09959E+04
  4.07054E+04 -5.44483E+03  3.50398E+04  2.41679E+04  1.12151E+04  4.39251E+04 -6.24187E+03  4.72754E+04
 -2.72175E+04  3.31633E+04 -4.42195E+04  7.86521E+03 -4.19973E+04 -1.31853E+04 -2.01824E+04 -3.58133E+04
  6.27138E+03 -3.44188E+04  3.13524E+04 -1.06440E+04  3.00333E+04  1.14564E+04 -1.17118E+03  1.82567E+04
 -1.56293E+04  1.63778E+03 -3.31544E+03 -8.80691E+03  6.02060E+03 -1.35118E+04  1.98366E+04  5.80634E+03
  1.37398E+04  1.91214E+04 -4.38426E+03  1.99986E+04 -1.77893E+04  1.03573E+04 -2.40572E+04 -4.79505E+03
 -1.32196E+04 -1.97922E+04 -4.73434E+03 -1.59188E+04  5.74800E+03 -1.35455E+04  1.53605E+04 -1.47798E+04
  2.28940E+04 -1.13013E+04  3.00051E+04  3.18149E+03  2.01173E+04  1.94081E+04  5.83346E+03  3.54490E+04
 -1.92996E+04  2.32305E+04 -2.31563E+04  9.81366E+03 -2.18287E+04 -1.31473E+04 -3.64451E+03 -1.49644E+04
  2.44248E+03 -1.48957E+03 -2.37290E+03  4.28109E+03 -1.01254E+04  6.23777E+03 -1.24529E+04 -6.35132E+03
 -7.94907E+03 -1.52658E+04  4.26913E+03 -2.07373E+04  1.21446E+04 -1.42697E+04  1.09215E+04  4.37508E+02
  9.86247E+03  1.19633E+04 -5.45780E+03  1.61220E+04 -1.62731E+04  8.41166E+03 -1.50415E+04 -1.24370E+03
 -1.17745E+04 -1.39590E+04 -5.75924E+03 -1.86417E+04  8.01482E+03 -1.37087E+04  1.42827E+04 -8.98504E+03
  1.51146E+04  1.15433E+03  1.30783E+04  7.54309E+03  4.57376E+03 -1.07507E+02  5.27762E+03  4.74974E+03
  1.30108E+04  3.62351E+03  1.69714E+04  1.27043E+04  6.07877E+03  2.33415E+04 -3.67739E+03  3.01999E+04
 -1.29424E+04  2.07850E+04 -2.45305E+04  1.04829E+04 -2.23691E+04 -6.76391E+03 -2.02697E+04 -1.44231E+04
 -9.10945E+03 -2.26787E+04  5.09257E+03 -1.75704E+04  1.57918E+04 -1.25675E+04  1.93691E+04  3.45545E+03
  5.85957E+03  1.18996E+04 -7.57390E+03  1.10147E+04 -1.26150E+04  1.60522E+03 -8.54090E+03 -9.07365E+03
 -3.31158E+03 -1.13206E+04  9.18540E+03 -7.82379E+03  1.12583E+04  5.24021E+03  1.09795E+03  3.97017E+03
 -6.42885E+03  1.92728E+03 -4.04117E+03 -5.08502E+03  1.10741E+03 -9.92642E+03  1.25292E+04 -1.15632E+04
  1.31220E+04 -7.98001E+03  1.61084E+04  6.54446E+03  9.72235E+03  9.58102E+03  3.18493E+03  1.43507E+04
 -2.87734E+03  1.37852E+04 -1.21190E+04  8.64652E+03 -9.69978E+03  2.86825E+03 -4.15425E+03 -4.96882E+03
 -3.69173E+03 -3.77507E+03 -5.85270E+02  5.47350E+03 -1.44104E+03  1.20414E+03 -3.30610E+03 -1.36934E+03
 -8.46151E+03  2.06513E+03 -8.50221E+03 -5.12404E+03 -1.82346E+02 -1.45227E+04  4.00579E+03 -1.05280E+04
  2.50033E+03 -4.73165E+03  4.69136E+03  1.60497E+03  5.38452E+03  4.02088E+03 -3.91811E+03 -3.79816E+03
 -6.07616E+03 -8.15947E+03  6.87415E+02 -7.27083E+03  5.18069E+03 -1.10471E+04  1.49958E+04 -2.94357E+03
  1.03949E+04  3.50324E+02  9.31995E+03  6.36147E+03  1.92658E+03  8.59097E+03 -1.75884E+03  9.47811E+03
 -5.76910E+03  9.41916E+02 -3.07438E+03 -4.78539E+03 -1.15810E+03 -6.26096E+03  5.60541E+03  1.22183E+03
  1.69110E+03  4.81718E+03 -1.16069E+02  7.16445E+03 -9.49366E+03  7.21143E+03 -8.28483E+03  4.48162E+03
 -4.26922E+03 -4.17436E+03 -1.30631E+03 -8.51441E+03  5.19894E+03  4.34776E+02  1.22151E+03 -7.18193E+02
  9.00640E+02  2.60663E+03 -4.44597E+03  8.37109E+03 -2.17870E+03  2.86713E+03 -1.07080E+04 -3.84759E+03
 -8.67354E+02 -6.26255E+03  5.16266E+03 -6.33048E+03  4.98790E+03 -2.22226E+03  5.42909E+03  3.69104E+02
  3.74843E+03  7.95891E+03  1.20071E+03  5.85863E+03 -4.81248E+03  7.87875E+03 -3.59598E+03 -6.07475E+03
 -4.53779E+03 -9.29287E+02 -3.03428E+03 -6.71189E+03  2.00368E+03 -3.35996E+03  2.65715E+03 -4.52229E+03
  4.86795E+03  2.45007E+03 -3.39002E+03 -7.97748E+02  1.72785E+02  3.68425E+02  2.07823E+03 -4.33876E+03
  1.95838E+03  1.08573E+03  6.85038E+03  2.76685E+03  4.74245E+03  5.89968E+03  3.53411E+03  9.47798E+03
  1.07951E+03  9.62183E+03 -1.02479E+04  5.74206E+03 -1.19164E+04  1.99049E+03 -3.94886E+03  7.46177E+02
 -5.02773E+03 -1.09882E+04 -2.38007E+03 -2.60543E+03 -8.17034E+02 -3.25116E+03  1.23286E+03 -2.61237E+03
  7.48009E+02 -2.13317E+03  3.70259E+02 -2.97433E+03  7.47391E+03 -1.26505E+03  5.96138E+03  4.53026E+03
  5.46479E+03 -8.99282E+02  3.11008E+03  4.64554E+03  1.82466E+03  3.24441E+03 -2.93369E+03  3.26546E+03
 -3.85882E+03 -2.03710E+02 -4.06625E+03 -4.19832E+03  1.09547E+03 -2.25906E+03  5.09964E+03 -3.28782E+03
  3.61055E+03 -2.53258E+03  6.36810E+03  2.05053E+02  7.78700E+03  6.04040E+03  1.31697E+03  4.08507E+03
  5.69544E+02  5.57297E+03 -3.18449E+03  4.78073E+03 -2.89581E+03  3.50177E+03  3.58167E+03 -1.06623E+03
 -2.75707E+03  5.28886E+02 -8.18827E+02  2.94828E+03 -2.24643E+03  7.75928E+02 -6.70347E+03  2.23172E+03
 -1.27103E+03 -3.89798E+03  3.10676E+03 -3.29489E+03  3.23679E+03 -6.52083E+03  4.54662E+03 -5.33661E+02
  6.16872E+02  6.49645E+02  3.44025E+02  5.38704E+03 -2.64585E+03  4.72326E+03 -4.43021E+02  2.39534E+03
 -5.91566E+03  1.39435E+02 -5.73849E+03  3.43746E+02 -4.25859E+03 -3.03676E+03 -2.80107E+02 -3.01237E+03
  8.25752E+03  1.36104E+03  3.96451E+03 -8.84282E+02 -3.57935E+03  1.60404E+03  2.13090E+03 -1.77048E+03
  2.29093E+02 -5.22126E+02 -4.03275E+02 -7.27941E+01  1.68329E+03  5.22933E+03  4.24334E+03 -2.16023E+03
  2.28697E+03  5.73430E+02 -1.21544E+03  5.13703E+03  1.77807E+03 -2.71299E+03 -3.69880E+03 -1.50598E+03
 -2.79956E+01 -1.75418E+03  3.89636E+03 -2.24570E+03 -1.20260E+03 -9.07123E+02  5.86382E+03 -1.97824E+03
  1.07905E+03 -8.01249E+02 -5.85012E+02  3.83520E+03 -3.94203E+03  1.29509E+03  8.08695E+02 -4.56542E+03
 -2.70196E+03 -5.80922E+03  1.29505E+03 -2.67628E+03 -1.41692E+03 -1.68244E+03  4.83667E+03  2.89090E+03
  5.79722E+03  8.47985E+02 -1.28026E+03 -2.12805E+03  1.27824E+03  1.23921E+03  1.68752E+03 -1.64951E+03
 -2.31825E+03 -6.46950E+02 -6.71627E+02 -2.69912E+02  4.22101E+03  1.21460E+03  1.29600E+03 -6.07691E+02
 -1.48106E+03 -3.90565E+03 -4.90455E+03 -3.59616E+03 -4.29955E+03 -2.66395E+03 -1.05858E+01  1.92859E+02
  6.14427E+02 -1.54894E+02  3.55234E+03  4.23065E+02  1.13524E+03  2.74925E+03  2.36274E+03  3.40742E+03
 -4.54849E+03  1.96709E+03 -5.47358E+03 -2.74657E+03  5.70641E+03 -2.06243E+03 -2.10484E+02 -3.62580E+03
  4.26748E+03 -1.31408E+03 -4.02591E+02  1.13723E+03  2.23053E+03 -2.54246E+03  2.33163E+03  1.72260E+03
 -6.03957E+03 -3.50105E+02 -4.99040E+03 -5.64676E+02  1.79059E+03 -1.83052E+02  2.15834E+03  1.51584E+03
 -1.43198E+03  1.41105E+03  1.66953E+03  2.54928E+03  2.49752E+03  1.66587E+03 -4.18550E+03  5.48481E+02
  8.55687E+01  4.41600E+01 -3.05647E+03  4.14982E+02 -2.19858E+03 -3.84976E+03  2.66994E+02  1.66647E+03
  9.02583E+02 -3.60246E+03  2.97332E+03  2.36869E+03  1.28085E+03  3.78266E+03 -1.19882E+03  1.83860E+03
 -4.31998E+03  3.39778E+03  1.54104E+03  2.23867E+03  5.39949E+03  9.65325E+02  2.10750E+03  6.67682E+02
  3.77439E+02  4.76086E+02  2.54599E+03  1.34933E+03  1.90587E+03  9.90738E+02 -2.28058E+03 -5.03391E+03
 -3.26837E+03 -1.26948E+03 -1.79598E+03 -7.91329E+03  9.97136E+02 -4.30137E+03  3.96380E+02 -3.39340E+03
  2.99431E+03 -1.12657E+03 -9.53080E+02  3.61311E+03  5.23235E+03  1.76473E+02  2.55344E+02  5.99381E+03
  1.44342E+03 -5.02584E+02 -2.12703E+03  8.91376E+02  1.19396E+03  5.25953E+03  2.98344E+03  1.36362E+03
 -4.28281E+03 -1.71233E+03 -4.92445E+03  3.28214E+03 -7.15246E+02 -2.26289E+03 -1.20593E+03 -4.71223E+03
  2.12839E+03 -2.86684E+03 -1.39978E+03 -2.76057E+03  1.28825E+03  1.83872E+03 -3.70901E+02  4.59570E+03
  6.22507E+02  6.65295E+03 -2.82108E+03  3.27963E+03 -3.04426E+03  1.99477E+03  3.21706E+03 -2.74573E+03
 -1.17046E+03 -8.72545E+02 -4.62054E+03  4.70876E+02 -5.58783E+02 -2.16262E+03  8.13065E+02 -6.32508E+03
 -3.25590E+02  2.37557E+02  3.81628E+03 -8.93003E+02  1.04059E+03  2.63386E+03  1.61776E+03 -9.83140E+02
 -7.66132E+02 -2.51988E+03  2.98392E+03 -6.48011E+03 -3.15301E+03 -1.19498E+03  1.41745E+03  2.08244E+03
 -3.21881E+03 -1.91273E+03  1.94366E+02  2.82092E+02 -6.61717E+02  6.72743E+03 -3.07517E+03 -6.76534E+03
 -3.18526E+03 -2.00076E+03  9.79969E+02 -1.72566E+03  1.94713E+03  1.46289E+03 -2.73207E+03 -1.51450E+03
  4.33240E+02  3.67648E+02  2.01006E+03 -2.55562E+03 -2.57418E+03  2.28589E+03 -4.03122E+03 -1.42990E+03
  1.39414E+03  1.76713E+03  9.61092E+02  8.03971E+02 -4.62772E+03  3.43628E+03 -7.67810E+02 -5.16193E+02
 -2.49725E+03  1.34709E+03  1.40698E+03 -1.39215E+03 -2.47540E+03 -7.02637E+02  2.08706E+03 -5.08989E+03
  3.24612E+03  1.38756E+03  5.19978E+03  4.66586E+02  2.85158E+03  3.21988E+03 -3.15208E+02  6.67752E+02
