 $NMID ID='MM_0lb_SNR50_13hz_g45_34.RAW', FMTDAT='(8E13.5)'
 TRAMP=1., VOLUME=1. $END
  3.13829E+05  2.38697E+03  3.37742E+05  2.51480E+05  8.49541E+04  3.35320E+05 -1.36470E+05  2.51093E+05
 -1.84608E+05  8.43117E+04 -1.13689E+05 -3.27724E+04 -2.82646E+02 -5.02716E+04  5.74526E+04 -3.65119E+02
  3.25040E+04  5.12416E+04 -1.73292E+04  8.14577E+04 -6.22556E+04  6.78468E+04 -8.49221E+04  3.29528E+04
 -8.57718E+04 -1.00579E+04 -5.38786E+04 -5.34493E+04 -1.33587E+04 -6.99288E+04  2.94771E+04 -4.73067E+04
  4.49915E+04  3.65427E+03  1.74529E+04  4.88539E+04 -3.85718E+04  4.67659E+04 -6.46580E+04  8.91492E+02
 -4.96168E+04 -5.09421E+04 -3.06984E+03 -7.72969E+04  3.21111E+04 -5.19282E+04  5.21759E+04 -1.56912E+04
  4.38967E+04  1.19212E+04  3.49755E+04  2.93987E+04  1.92454E+04  3.03082E+04 -4.38342E+03  2.76632E+04
 -2.24514E+04  1.49216E+04 -1.43775E+04 -6.31600E+03  8.67146E+03 -1.31778E+04  1.96402E+04  1.04110E+04
  3.26754E+03  3.51512E+04 -3.54413E+04  3.67356E+04 -6.54413E+04  2.85791E+03 -5.64284E+04 -3.69647E+04
 -7.40466E+03 -6.61238E+04  4.30398E+04 -4.55860E+04  5.45076E+04 -3.07259E+03  3.63199E+04  3.45039E+04
 -8.11893E+03  3.36344E+04 -3.28780E+04  1.16293E+04 -3.13126E+04 -5.87809E+02 -1.60771E+04 -1.02219E+04
 -9.98668E+03 -1.54339E+04  6.54764E+03 -1.86619E+04  8.77954E+03 -2.30408E+04  1.51522E+04 -1.00078E+04
  1.18870E+04  3.20105E+03 -7.40082E+03  1.73789E+04 -2.37607E+04 -4.92794E+03 -7.00058E+03 -3.14805E+04
  2.05479E+04 -4.35035E+04  4.66889E+04 -2.31578E+04  4.43632E+04  2.20276E+04  1.92159E+04  4.48079E+04
 -1.64291E+04  3.49368E+04 -2.79399E+04  1.63924E+03 -9.42103E+03 -3.06676E+04  2.25436E+04 -3.39385E+04
  4.07712E+04 -8.17454E+03  3.25485E+04  2.46804E+04  1.46554E+04  4.86640E+04 -7.78633E+03  5.30804E+04
 -3.03603E+04  2.91904E+04 -4.20704E+04  6.34828E+03 -4.00451E+04 -1.70605E+04 -2.13000E+04 -3.77969E+04
  7.10421E+03 -3.62305E+04  2.99318E+04 -1.01702E+04  2.31867E+04  1.28248E+04  2.29557E+03  1.85284E+04
 -1.14564E+04  4.15954E+03 -1.12938E+04 -1.06989E+04  4.07701E+03 -1.16826E+04  2.34506E+04  9.55528E+03
  9.67691E+03  2.26133E+04 -1.06490E+04  2.51310E+04 -2.27371E+04  5.99871E+03 -2.47395E+04 -4.94794E+03
 -2.08193E+04 -1.37993E+04 -9.18605E+03 -2.26845E+04  5.73582E+03 -2.16530E+04  2.75070E+04 -1.30242E+04
  2.67674E+04 -1.39238E+04  3.03846E+04  2.93823E+03  2.61934E+04  2.00855E+04  2.56288E+03  3.49635E+04
 -1.57267E+04  2.57679E+04 -3.43625E+04  9.07083E+03 -2.75252E+04 -8.84756E+03 -4.94810E+03 -1.05544E+04
  4.38005E+03 -3.90879E+03 -7.27117E+03  3.65285E+03 -1.79597E+04  9.69483E+03 -1.85117E+04 -5.27394E+03
 -1.10641E+04 -2.39716E+04  8.95241E+03 -2.64656E+04  1.68937E+04 -1.21546E+04  2.02355E+04 -2.50037E+03
  7.53730E+03  1.57303E+04 -3.59103E+03  1.75237E+04 -1.13019E+04  1.04504E+04 -1.77013E+04 -2.13003E+03
 -1.38589E+04 -1.54941E+04 -7.02793E+03 -2.72878E+04  9.37960E+03 -1.45484E+04  2.17996E+04 -8.56485E+03
  2.40789E+04  2.34916E+03  9.73485E+03  6.15718E+03  1.07570E+04  3.92373E+03  1.09541E+04 -9.00967E+02
  1.59585E+04  1.33563E+02  1.89865E+04  1.38572E+04  1.04192E+04  2.83517E+04 -2.70549E+03  3.43638E+04
 -1.55249E+04  2.83397E+04 -3.57643E+04  1.19853E+04 -3.46258E+04  1.23692E+02 -2.83107E+04 -2.18166E+04
 -1.25142E+04 -3.03403E+04  8.03045E+03 -2.35649E+04  1.98138E+04 -1.27767E+04  1.74881E+04  7.01646E+03
  1.32623E+04  1.27448E+04 -1.18628E+04  9.50457E+03 -2.05330E+04  4.76789E+03 -8.33141E+03 -1.08221E+04
  2.77145E+03 -1.70682E+04  8.08632E+03 -1.22266E+04  1.06193E+04 -1.02049E+03  3.57127E+03  2.99370E+03
 -6.79926E+03  3.71450E+03 -4.68388E+03 -3.69207E+03  3.71324E+03 -1.16524E+04  1.25179E+04 -1.37727E+04
  2.10674E+04 -5.87242E+03  1.80160E+04  2.24319E+03  1.61769E+04  1.49821E+04  7.55072E+03  2.72774E+04
 -1.95098E+02  2.29791E+04 -1.75446E+04  1.67793E+04 -1.49571E+04  6.31979E+03 -1.64524E+04 -1.04961E+04
 -3.45900E+03 -6.17598E+03  2.90162E+03  2.55799E+03 -2.46019E+03  2.05100E+03 -5.86375E+03  6.56310E+02
 -1.70827E+04  2.36839E+03 -1.05024E+04 -7.35103E+03 -3.75821E+03 -1.51600E+04  6.00092E+03 -1.49992E+04
  7.86558E+03 -5.40723E+03  1.27739E+04  2.71117E+03  5.12889E+03  2.55797E+03 -5.17067E+03  2.13802E+02
 -8.12430E+03 -4.38049E+03 -4.72288E+01 -9.34202E+03  6.52927E+03 -1.35034E+04  1.41075E+04 -4.62741E+02
  1.92308E+04  1.95034E+02  1.36605E+04  1.44472E+04  4.27932E+03  1.44390E+04 -1.11320E+04  9.31767E+03
 -3.64064E+03  2.01044E+03 -6.77606E+03 -7.09646E+03  2.97327E+03  1.06644E+03  8.33699E+03  6.26101E+03
  1.67847E+02  9.26063E+03  3.66700E+03  8.28903E+03 -9.38431E+03  8.13599E+03 -1.10380E+04  1.24525E+03
 -8.20484E+03 -5.28219E+03  2.88152E+03 -7.24115E+03  9.97955E+03 -2.96958E+03  7.19911E+03  7.86249E+02
  2.46040E+02  1.10511E+04 -5.12273E+03  6.94631E+03 -1.24344E+04  6.95283E+03 -1.21513E+04 -4.89023E+03
 -9.92080E+02 -1.22319E+04  5.72696E+03 -9.36547E+03  1.22065E+04 -9.86208E+03  1.21914E+04  2.78590E+03
  5.84113E+03  1.00655E+04 -2.44294E+03  1.11975E+04 -7.09475E+03  4.88324E+03 -9.55592E+03 -8.44383E+02
 -8.92351E+03  1.08986E+03 -3.28091E+03 -9.96521E+03  1.18423E+03 -1.26993E+04  6.68312E+03 -5.63065E+03
 -1.14291E+03  2.37234E+03  1.80644E+02 -6.27502E+02  3.51079E+03  1.80502E+03 -2.10507E+03 -4.84556E+03
  9.01698E+03  2.29305E+03  9.95342E+03  5.07045E+03  7.91516E+03  5.27749E+03  8.90232E+03  1.71698E+04
  5.15553E+02  8.53843E+03 -9.61670E+03  1.01250E+04 -1.76306E+04  2.38554E+03 -1.47243E+04 -3.70519E+03
 -9.23051E+03 -1.04957E+04  9.62368E+02 -5.49245E+03  3.34700E+03 -4.51158E+03  9.23877E+03 -1.95108E+03
  2.91332E+03 -3.79650E+03  5.41159E+03 -2.28006E+03  6.69535E+03 -2.35313E+03  4.04101E+03 -7.02920E+03
  6.16439E+03  1.43931E+03  8.40552E+02  9.22254E+03  1.15121E+03  6.97157E+03 -9.00329E+03  4.53522E+03
 -8.86915E+03 -4.07494E+03 -4.10830E+03 -1.24937E+03 -2.48029E+03 -1.04533E+04  4.48217E+03 -7.28971E+03
  1.04993E+04  3.49092E+03  1.46977E+04 -2.59614E+03  6.37711E+03  1.69321E+04  4.53932E+03  1.09941E+04
 -2.31383E+03  1.23759E+04 -2.63269E+03  2.22531E+03 -4.52889E+03  5.27428E+02 -2.86352E+02 -1.99295E+03
 -2.77473E+03  3.05037E+03  2.37349E+03  1.05067E+03  1.59722E+03  1.12787E+03 -3.94830E+03 -2.99039E+03
 -4.94922E+03 -2.88635E+03 -1.35302E+03 -3.31938E+03  1.07509E+04 -7.96796E+03  9.73179E+03 -6.00576E+03
  5.62156E+03  8.01459E+03 -2.95575E+02  1.56257E+03 -6.89873E+02  8.30090E+03 -7.50960E+03  3.76795E+03
 -1.26651E+04  1.74415E+03 -7.61257E+03 -7.15645E+03  1.31770E+03 -8.81392E+03  6.56264E+03 -6.32060E+03
 -1.48312E+03 -2.61985E+03  7.69120E+03  1.14931E+03 -5.41490E+03  1.24652E+03  9.21733E+02  4.14933E+02
 -4.18743E+02  2.18803E+03 -6.07468E+02  5.79129E+03  8.03227E+03  3.46860E+03  3.65846E+03  3.65897E+02
 -9.01242E+03  1.27550E+04 -9.65094E+02  6.97176E+03 -3.33473E+03 -7.93764E+02 -7.07262E+03 -1.81757E+03
 -5.60709E+03 -5.22610E+03  1.14834E+03 -7.28867E+03  6.03945E+03 -3.61743E+03  1.39634E+04  6.75995E+02
  1.35356E+03 -5.08735E+02 -1.23756E+03  3.72064E+03 -1.94265E+03  4.86926E+03  3.41253E+02 -4.88791E+03
 -6.95821E+02 -3.11532E+03  2.17913E+03 -5.95613E+03  3.32788E+03  2.18303E+03  3.47776E+03  1.35772E+03
  1.32007E+03  1.77995E+03  6.81374E+03  1.33121E+03 -2.22987E+03  7.39461E+03  1.66650E+03  3.37254E+02
 -9.53213E+02  1.80043E+03 -3.65317E+03 -2.25504E+03  2.40715E+03  7.08307E+03 -1.06574E+03  8.23108E+03
 -3.82673E+03  1.90808E+03 -4.85045E+03  2.19989E+02 -2.95289E+03 -3.39973E+03 -4.55735E+03 -2.49765E+03
  4.19792E+01  3.10077E+03  4.48649E+03 -1.95089E+03 -4.04770E+03  2.87831E+03 -1.01022E+03 -2.24440E+03
 -4.92123E+03  2.70927E+02 -2.00023E+03 -1.14289E+03 -6.10467E+03 -7.70437E+03  3.93678E+03 -9.57867E+02
  2.34997E+03 -4.09484E+03  3.79261E+03 -5.55945E+02  7.44411E+03 -3.15958E+03 -9.88744E+02  1.15472E+03
 -3.15844E+03  2.05970E+03 -3.99494E+03  1.37826E+03  2.10617E+03 -4.39729E+03  2.43032E+03 -5.31697E+03
  6.81150E+03  2.18606E+01  5.98310E+03 -3.13289E+03  2.83901E+02  6.41469E+03  2.83701E+03  1.19182E+04
 -1.54334E+03  5.90745E+02 -5.22887E+03 -4.99284E+03 -4.94683E+03 -3.09018E+03  4.60919E+03  4.71317E+03
  3.15559E+03 -8.73681E+02  4.30209E+03  5.01220E+03  1.93631E+03  4.63175E+03 -2.07758E+03  1.29440E+03
 -3.42824E+03  2.65640E+03 -3.60617E+03  2.11088E+03 -2.13897E+03 -2.69011E+03  7.18019E+02  2.50512E+03
  8.32767E+02  3.61863E+03 -5.38347E+03  8.29691E+03 -7.02923E+02  1.30508E+03 -6.65366E+01 -2.51906E+03
 -1.12892E+03 -6.08284E+03  1.57750E+03 -8.33273E+03  9.47742E+03 -9.95702E+03  4.94570E+03 -5.16687E+03
  1.11709E+04  1.75551E+03 -4.37328E+02  1.59042E+03 -3.53314E+03  4.26056E+03  1.24279E+03  6.63151E+03
 -5.39045E+03 -2.18560E+03 -2.25128E+03  1.18304E+03 -9.90660E+02 -1.29269E+03 -3.93515E+03 -4.98118E+03
 -1.05194E+03  2.28230E+03  2.54832E+03 -2.07676E+03 -2.39000E+03  3.36828E+03  1.88196E+03 -3.49412E+03
  2.84220E+03 -2.53071E+02 -1.73912E+03 -4.22350E+03  2.51451E+03  1.73701E+03 -2.05729E+03  5.73778E+03
 -4.56748E+02  8.80885E+03 -4.16505E+03  5.36032E+03 -9.34855E+03 -3.51593E+03 -2.19602E+03  1.02090E+03
 -3.78248E+03 -7.17710E+03  4.04295E+03 -3.31617E+03  3.26012E+03 -3.91869E+03 -6.07785E+02  3.09185E+03
 -2.07267E+03  6.31937E+03 -3.17489E+03  5.45867E+03 -6.50998E+03 -6.44381E+03 -3.06827E+03 -1.05007E+03
  1.96628E+03  1.65924E+02  2.62355E+03  1.15120E+03 -8.91442E+01  3.61922E+03 -1.63474E+03  4.30877E+03
  1.02126E+03  2.18006E+03 -2.06231E+03 -3.26041E+03 -2.79319E+03 -5.53872E+03  1.66372E+03 -7.68115E+03
  1.42896E+03 -3.32304E+03  2.37065E+03 -3.86745E+02  2.83040E+03 -1.99198E+03 -1.80229E+03  1.46384E+01
  2.55406E+03  1.97949E+03 -1.77572E+02  4.49941E+03 -1.48293E+03  3.40893E+03 -2.45019E+03  1.12362E+03
 -4.82580E+03 -2.13900E+03 -5.19900E+03  5.66830E+03  1.48122E+03 -2.89626E+03 -4.03758E+03  8.28768E+02
 -5.46183E+03 -1.38641E+03 -1.54296E+02  2.54973E+03 -3.09500E+02 -5.84476E+03  4.41693E+03  1.20479E+03
  1.81370E+03  3.49138E+03 -1.28416E+03  4.49825E+03 -1.08971E+03  1.21004E+03 -1.36933E+03 -3.22221E+03
