 $NMID ID='MM_0lb_SNR50_10hz_g50_29.RAW', FMTDAT='(8E13.5)'
 TRAMP=1., VOLUME=1. $END
  3.16306E+05 -3.42775E+02  3.34862E+05  2.56208E+05  8.63616E+04  3.39892E+05 -1.25306E+05  2.48574E+05
 -1.92580E+05  7.61738E+04 -1.12213E+05 -3.50535E+04  4.03117E+02 -5.00516E+04  5.46399E+04  2.00781E+03
  4.10727E+04  5.46695E+04 -1.47596E+04  7.25855E+04 -5.96946E+04  5.75149E+04 -7.95996E+04  3.32929E+04
 -8.15420E+04 -9.37281E+03 -6.04047E+04 -5.37135E+04 -1.74376E+04 -7.00526E+04  2.64645E+04 -4.49204E+04
  4.19134E+04  7.57514E+03  1.73987E+04  3.83979E+04 -3.40842E+04  4.75260E+04 -6.74765E+04 -7.73396E+02
 -5.80730E+04 -6.20607E+04 -4.33809E+03 -7.94813E+04  4.27401E+04 -5.38545E+04  5.19370E+04 -1.51256E+04
  4.07235E+04  1.10069E+04  3.22372E+04  2.76362E+04  1.32629E+04  3.23121E+04 -2.84513E+03  2.72544E+04
 -1.93110E+04  1.24688E+04 -2.06691E+04 -2.94706E+03  4.22925E+03 -8.78524E+03  1.95057E+04  1.42166E+04
  1.18992E+04  3.95368E+04 -3.62431E+04  3.65661E+04 -6.33910E+04  1.48117E+03 -5.52434E+04 -4.86297E+04
 -1.22466E+04 -6.54528E+04  3.81790E+04 -5.02703E+04  6.40122E+04 -5.02060E+03  4.06910E+04  3.32112E+04
 -4.76567E+03  3.41922E+04 -3.17003E+04  1.85316E+04 -3.09857E+04 -5.04759E+03 -1.92945E+04 -9.25327E+03
 -9.15261E+03 -1.51099E+04  2.21841E+03 -2.13023E+04  8.26939E+03 -1.91929E+04  1.67363E+04 -6.61174E+03
  7.06307E+03  3.62010E+03 -9.51822E+03  9.18690E+03 -2.05564E+04 -1.00951E+04 -1.50973E+04 -3.91054E+04
  2.94920E+04 -4.58313E+04  4.96639E+04 -1.64003E+04  4.94876E+04  2.09111E+04  1.63005E+04  4.84564E+04
 -1.37678E+04  3.07402E+04 -3.19677E+04  5.72599E+03 -1.28290E+04 -2.82939E+04  2.26954E+04 -3.60646E+04
  4.15663E+04 -6.79031E+03  4.41478E+04  2.30277E+04  2.31332E+04  5.13196E+04 -1.26049E+04  5.79006E+04
 -3.91826E+04  3.82219E+04 -4.91631E+04  5.41980E+03 -4.68689E+04 -1.38628E+04 -3.19120E+04 -4.28820E+04
  1.20697E+03 -4.07162E+04  3.49502E+04 -1.88245E+04  3.07071E+04  8.62439E+03  4.69770E+03  2.80625E+04
 -1.81313E+04  1.89201E+03 -1.28927E+04 -7.09772E+03  8.74058E+03 -1.42491E+04  1.65948E+04  6.54622E+03
  1.70670E+04  2.03265E+04 -5.50995E+03  2.94067E+04 -1.76336E+04  1.51160E+04 -2.94442E+04 -9.16770E+03
 -2.39561E+04 -1.84115E+04 -1.14403E+04 -2.23286E+04  6.86995E+03 -2.54081E+04  2.19780E+04 -2.48219E+04
  3.29612E+04 -1.52763E+04  3.12016E+04  6.23661E+02  2.55546E+04  2.46319E+04  4.09029E+03  4.69547E+04
 -1.55659E+04  2.95345E+04 -2.73140E+04  1.01626E+04 -2.65273E+04 -6.06050E+03 -4.70407E+03 -1.12061E+04
 -2.89428E+03 -2.00147E+02 -8.11106E+03  1.26024E+04 -2.18002E+04  4.36711E+03 -2.40895E+04 -1.08662E+04
 -1.34566E+04 -2.29647E+04  6.33882E+03 -2.46584E+04  2.44668E+04 -1.69289E+04  1.81104E+04  4.15436E+03
  9.00381E+03  1.22248E+04  1.70549E+03  2.78260E+04 -1.70841E+04  1.22663E+04 -2.24076E+04 -4.88699E+03
 -1.64400E+04 -2.05398E+04 -5.85166E+03 -2.87121E+04  1.06048E+04 -2.54607E+04  2.18898E+04 -1.10274E+04
  1.44473E+04  1.06898E+04  1.69990E+04  3.42448E+03  1.12909E+04 -2.66298E+02  1.08723E+04 -2.44363E+03
  1.60330E+04  5.40757E+02  2.31627E+04  1.58224E+04  1.30954E+04  3.50850E+04 -3.53676E+03  3.94701E+04
 -2.47754E+04  3.53494E+04 -4.39145E+04  2.17894E+04 -4.55534E+04 -4.20823E+03 -3.07990E+04 -2.61985E+04
 -1.73693E+04 -3.98236E+04  1.43671E+04 -3.20104E+04  3.16727E+04 -1.00249E+04  2.42339E+04  7.75134E+03
  7.41679E+03  1.82158E+04 -1.15236E+04  1.94152E+04 -1.98421E+04 -1.99015E+03 -1.97902E+04 -1.21910E+04
 -2.37123E+03 -2.12827E+04  7.70915E+03 -1.67210E+04  1.42624E+04 -4.44747E+03  1.52260E+03  7.20761E+03
 -1.00688E+04  1.09785E+04 -9.43999E+03 -4.74561E+03 -2.39470E+03 -1.45086E+04  7.90513E+03 -1.92898E+04
  2.68099E+04 -1.03448E+04  2.84721E+04  6.87817E+03  2.23029E+04  1.87613E+04  7.27196E+03  2.57041E+04
  1.42648E+03  2.74632E+04 -2.00542E+04  1.32270E+04 -1.42397E+04  8.13408E+03 -1.71766E+04  2.85192E+02
 -1.14594E+04 -3.22658E+03  3.34836E+02  3.62806E+03 -4.85536E+03  3.46695E+03 -1.40525E+04  5.01348E+03
 -1.47582E+04 -5.26318E+03 -1.62281E+04 -1.21174E+04 -1.49703E+03 -1.85622E+04  7.30101E+03 -1.41110E+04
  1.26310E+04 -2.34983E+03  5.08634E+03  1.01834E+04 -2.22347E+03  9.11232E+03 -7.03409E+03 -5.89283E+03
 -1.15443E+04 -6.54709E+03  2.07044E+03 -9.47339E+03  8.14275E+03 -1.94391E+04  1.59603E+04 -1.88450E+03
  2.30835E+04  1.13463E+04  1.37779E+04  1.35690E+04  4.06569E+03  1.84325E+04 -6.70926E+03  1.69052E+04
 -9.59282E+03  8.06849E+03  7.52273E+02 -4.85279E+03 -1.34184E+03  5.31698E+02  5.49971E+03  1.10109E+03
  9.26428E+03  7.06622E+03 -7.35583E+02  7.77155E+03 -7.08308E+03  1.27544E+04 -1.75924E+04  1.36607E+03
 -4.88937E+03 -1.06108E+04 -3.24161E+03 -1.64167E+04  5.71988E+03 -6.20321E+03  5.47965E+03 -3.61190E+03
  3.92960E+03  1.42231E+04 -1.25770E+04  8.40135E+03 -8.24453E+03  3.27579E+03 -1.34370E+04 -7.88971E+03
 -9.28352E+03 -1.12808E+04  7.27927E+03 -1.52021E+04  1.59438E+04 -4.39540E+03  1.43909E+04  1.33800E+03
  1.01462E+04  1.24169E+04 -2.32132E+03  1.77333E+04 -8.48594E+03  4.33837E+03 -5.35508E+03 -5.85160E+03
 -9.99328E+03 -1.16557E+04  1.46991E+03 -5.04460E+03  5.74516E+03 -6.76709E+03  6.82957E+03 -3.11839E+03
  1.51838E+03  5.72671E+01  1.02556E+03 -8.16524E+02 -1.87028E+03  1.28932E+03  1.51088E+03 -6.18365E+03
  7.00008E+03 -7.74707E+03  2.00358E+04  1.48521E+03  1.69162E+04  9.17278E+03  5.63811E+03  1.96424E+04
 -7.26405E+03  2.44472E+04 -1.50993E+04  1.88474E+04 -2.72596E+04  3.96936E+03 -1.76035E+04 -9.71997E+03
 -6.36561E+03 -1.43157E+04 -1.49887E+03 -9.45489E+03  1.02283E+03 -3.57246E+03  9.54493E+03 -2.63356E+03
 -1.40190E+03 -2.13287E+03  6.49646E+03 -5.77243E+03  2.86592E+03 -1.09487E+04  4.86117E+03  1.68288E+03
  1.33961E+04 -8.43566E+02 -6.62786E+03  5.57425E+03  1.92603E+02  5.75536E+03 -9.89039E+03  6.43772E+03
 -1.15275E+04 -7.48566E+03 -1.01894E+04 -9.62744E+03 -4.38748E+02 -7.95760E+03  6.67951E+03 -1.26288E+04
  1.44015E+04 -1.86456E+04  1.88490E+04  4.94631E+03  1.28286E+04  9.82333E+03  7.73001E+03  2.11564E+04
 -7.41282E+03  1.41911E+04 -1.24455E+04  4.49801E+03 -7.50245E+03 -2.11640E+01 -4.02429E+03 -4.75235E+03
 -3.88745E+03 -2.33962E+03 -2.68935E+03 -1.15661E+03 -7.15684E+03  4.85121E+03 -1.04538E+04  1.13993E+03
  3.23702E+03 -1.12318E+04 -2.49998E+03 -1.52008E+04  3.38775E+03 -1.02651E+04  1.44990E+04 -8.45040E+03
  1.54673E+04  8.78062E+03  6.43629E+03  1.18114E+04  1.41876E+03  1.08342E+04 -9.18718E+03  9.14551E+03
 -1.22502E+04 -4.41133E+03 -9.92902E+03 -8.67135E+03 -3.96804E+03 -7.31198E+03  1.23490E+04 -6.78983E+03
  8.16886E+03 -5.73547E+03 -2.53712E+03 -3.37129E+03  1.12123E+04  5.06106E+03  3.67546E+03  5.02924E+03
  2.65767E+03  5.19344E+02  2.75812E+03  2.20123E+03  4.24771E+03  1.76497E+03  6.42699E+03  6.79060E+03
 -2.96969E+03  8.84000E+03 -1.39436E+04  1.41781E+04 -1.28785E+04  2.17048E+03 -1.14270E+04 -2.14538E+03
 -7.36198E+03 -1.28225E+04 -2.12414E+02 -1.49411E+04  6.73342E+03 -7.72233E+03  8.60213E+03 -4.97862E+03
  4.59211E+03  3.00676E+03  2.07063E+03  8.73484E+03 -6.82488E+03  2.80078E+03 -7.91677E+03  3.41090E+03
 -5.06365E+03 -7.07083E+03  1.71709E+03 -9.69483E+03  8.29387E+03  2.87160E+03  2.36180E+03  2.34379E+03
  2.88652E+03  2.07323E+02  4.67795E+03 -2.45960E+03 -3.99071E+03  1.57796E+03  6.83862E+03  3.22834E+03
  1.51389E+03 -1.58692E+03  7.32264E+02  3.46396E+03  4.10373E+03  5.18096E+03 -2.05485E+02  1.31757E+04
 -8.81600E+03  5.90881E+03 -4.69853E+03  7.36093E+03 -1.13442E+04  2.02335E+01 -3.17734E+03 -5.50300E+03
  4.65849E+03 -2.13700E+03  1.00220E+03 -6.01895E+03  1.27876E+03  4.28130E+03  9.13502E+02  4.29061E+03
 -7.63391E+02  3.35213E+03 -1.15206E+04 -2.54576E+03  1.30356E+03 -4.11197E+03  5.50521E+03 -7.61204E+03
  1.36239E+03 -4.08598E+03  6.54484E+03 -6.59122E+02  3.53051E+03  3.06937E+03 -4.50363E+01  1.14585E+04
  3.20137E+03  5.72673E+03  4.11356E+03  2.51359E+03  1.37531E+03 -4.87457E+03  7.83565E+03 -1.70559E+03
  9.45237E+03  1.70798E+03  4.65745E+03  3.29405E+03  3.85136E+03  6.70253E+03 -1.16978E+03  2.43356E+03
 -4.10298E+03  7.79604E+03 -1.16222E+04 -3.21109E+03 -7.78058E+03 -5.01030E+03  1.06789E+03  1.63248E+03
  9.58342E+03 -3.08051E+03  7.60437E+03 -1.53453E+01  1.60691E+03  3.44534E+03  1.78601E+03  1.44024E+03
 -8.72254E+03 -2.89799E+03 -9.94415E+03 -6.79927E+03 -1.02980E+03 -1.77221E+03 -3.03693E+03 -8.11128E+02
 -3.88901E+03  3.76718E+03 -5.51177E+03 -3.66405E+03 -6.07917E+03  2.52578E+02 -9.70901E+03 -2.50330E+03
 -1.27166E+03 -1.34712E+04  1.93579E+02 -1.68696E+04  1.08948E+04 -1.08317E+04  1.38294E+04 -5.15845E+03
  1.90216E+04  4.03887E+03  5.48011E+03  7.20964E+03 -2.27225E+03  9.82587E+03 -1.21576E+03  5.85683E+03
 -7.32363E+03  5.34606E+03 -6.11632E+03  3.55296E+03  1.56543E+03 -3.28659E+03 -3.40552E+03  2.05677E+02
 -3.93746E+03  3.40478E+03 -6.46131E+03 -7.94100E+02 -1.20218E-01  2.61446E+02 -4.02605E+03 -6.28638E+03
 -1.55315E+03 -2.01640E+03  9.37374E+03  4.58411E+03  3.86393E+03  1.57052E+03  9.95427E+03  7.71311E+03
 -6.33933E+03  1.22762E+04 -3.97992E+03  6.07314E+03 -1.30352E+04 -2.88930E+03 -8.46164E+03 -7.75381E+03
 -2.82346E+03 -1.46891E+04 -1.66865E+03 -1.47275E+04 -1.80625E+03 -1.43411E+03  5.46379E+03  2.51372E+03
  8.87330E+03  4.36743E+02 -1.60643E+02  3.50979E+03 -2.63392E+03  1.25507E+03  1.28481E+03 -7.07833E+02
  5.18941E+03 -2.76067E+03  1.49243E+03 -4.65081E+03 -2.45585E+03  7.08192E+03  5.36682E+03  5.12863E+03
 -5.07793E+03  6.46561E+03 -2.70998E+03  4.04742E+03 -3.20450E+03 -6.79611E+03  6.23697E+01 -8.52812E+03
  2.81817E+03 -4.53868E+03  1.77593E+02  6.01488E+03  9.43622E+03  3.77295E+03 -5.92059E+03  5.55580E+03
  2.45499E+03  1.46050E+03 -2.36766E+03  6.22771E+03 -2.20063E+03  4.26580E+03 -4.96818E+03 -1.98086E+03
 -5.04678E+03  2.59874E+03 -4.56819E+03 -3.46857E+03 -2.90054E+03 -4.72551E+02 -6.63894E+03 -1.16581E+03
 -7.92939E+03 -1.80155E+03  7.08482E+03 -3.10202E+03 -5.50772E+03 -9.12494E+03  6.38820E+03 -5.51597E+03
  1.02886E+04  4.10407E+03  7.13264E+03  1.84259E+03 -2.05671E+03  2.14847E+03 -4.72831E+03  1.88137E+03
