 $NMID ID='MM_0lb_SNR50_13hz_g50_14.RAW', FMTDAT='(8E13.5)'
 TRAMP=1., VOLUME=1. $END
  3.10672E+05  3.53340E+03  3.37724E+05  2.52636E+05  8.22207E+04  3.37655E+05 -1.33639E+05  2.47633E+05
 -1.88132E+05  8.26535E+04 -1.13379E+05 -3.13790E+04 -4.76119E+02 -5.45026E+04  5.41451E+04 -1.00917E+03
  3.74546E+04  5.31650E+04 -1.28065E+04  7.55847E+04 -6.53637E+04  6.62470E+04 -8.58017E+04  2.65650E+04
 -8.24561E+04 -1.34003E+04 -5.76053E+04 -5.38505E+04 -1.54869E+04 -7.32395E+04  2.79955E+04 -4.59832E+04
  3.84522E+04  4.23204E+02  1.80624E+04  5.13808E+04 -3.27647E+04  4.45578E+04 -7.06879E+04 -4.32547E+03
 -5.40236E+04 -5.68699E+04  8.83451E+02 -7.89903E+04  3.50424E+04 -5.70403E+04  4.68637E+04 -2.12806E+04
  4.15414E+04  6.29286E+03  2.96722E+04  3.20990E+04  1.73431E+04  2.76118E+04 -1.29722E+03  2.37979E+04
 -2.53787E+04  5.45100E+03 -1.91315E+04 -4.26240E+03  1.01156E+04 -4.05806E+03  2.25727E+04  1.30643E+04
  9.29460E+03  3.20506E+04 -2.86099E+04  3.67364E+04 -6.01703E+04  3.05578E+03 -5.77972E+04 -4.24740E+04
 -1.93978E+04 -6.52764E+04  4.13196E+04 -4.36267E+04  5.96599E+04 -3.25940E+03  3.48305E+04  3.02703E+04
 -8.20517E+03  3.81335E+04 -3.06954E+04  2.37701E+04 -3.35995E+04 -1.61079E+03 -1.57677E+04 -9.46160E+03
 -1.00959E+04 -1.41043E+04  3.00879E+02 -2.08397E+04  6.52419E+03 -2.32809E+04  1.57897E+04 -1.09920E+04
  1.30333E+04  4.30788E+03 -1.30583E+04  1.60936E+04 -2.71508E+04 -1.97308E+02 -8.16186E+03 -3.56317E+04
  2.65673E+04 -4.64472E+04  4.58296E+04 -1.70676E+04  4.44585E+04  1.75066E+04  1.31445E+04  4.29224E+04
 -1.64450E+04  3.46533E+04 -2.21929E+04  5.26246E+03 -9.06851E+03 -2.78205E+04  2.03938E+04 -3.80859E+04
  4.12999E+04 -7.33982E+03  3.31414E+04  2.29411E+04  1.81236E+04  4.80317E+04 -9.33920E+03  5.26405E+04
 -3.52825E+04  3.04377E+04 -4.12382E+04  1.17329E+04 -4.42832E+04 -1.64551E+04 -2.01979E+04 -3.90800E+04
  6.76262E+03 -4.10024E+04  3.02451E+04 -1.69962E+04  3.25065E+04  6.29980E+03  4.39952E+03  1.44464E+04
 -1.79806E+04  9.16722E+03 -5.59556E+03 -7.57091E+03  7.54931E+03 -1.09701E+04  2.05693E+04  8.89533E+03
  1.43718E+04  2.31501E+04 -2.78476E+03  2.73411E+04 -2.02274E+04  1.12347E+04 -2.63692E+04 -6.70463E+03
 -2.00471E+04 -1.61957E+04 -6.45801E+03 -2.41596E+04  5.09033E+03 -2.62757E+04  1.82629E+04 -8.70546E+03
  2.66920E+04 -1.36129E+04  3.53889E+04  4.72389E+03  2.11729E+04  1.90253E+04  1.82019E+03  4.07934E+04
 -2.14203E+04  2.93530E+04 -2.91044E+04  3.79018E+03 -1.89520E+04 -1.37247E+04 -1.19935E+03 -1.75280E+04
 -1.98368E+03 -2.19588E+03 -6.53084E+03  8.65897E+03 -1.86244E+04  8.65323E+03 -1.83249E+04 -6.94773E+02
 -1.18062E+04 -1.93542E+04  1.00319E+03 -2.48241E+04  1.32178E+04 -1.99704E+04  1.58332E+04 -4.20281E+03
  1.18103E+04  1.33918E+04  2.76074E+02  1.70849E+04 -1.31988E+04  9.32946E+03 -2.25076E+04 -1.00014E+04
 -1.03530E+04 -1.41586E+04 -4.69196E+03 -2.66885E+04  4.13302E+03 -1.88340E+04  2.08453E+04 -1.16423E+04
  2.34436E+04  2.85846E+02  1.98044E+04  5.60134E+03  8.38925E+03  3.12418E+03  1.25843E+04 -1.43026E+03
  1.61696E+04  2.20667E+03  1.88929E+04  1.69086E+04  1.10153E+04  2.94898E+04 -1.71042E+03  3.57174E+04
 -2.33169E+04  2.71141E+04 -2.97542E+04  2.00477E+04 -3.59508E+04 -4.93569E+03 -3.37775E+04 -2.12842E+04
 -1.28629E+04 -2.75881E+04  1.25562E+04 -2.30471E+04  2.10882E+04 -1.45222E+04  2.16434E+04  3.94998E+03
  7.21378E+03  1.55770E+04 -8.84697E+03  1.63187E+04 -1.46175E+04  3.58827E+03 -1.24648E+04 -1.19571E+04
  4.69384E+03 -1.62459E+04  1.43030E+04 -1.16780E+04  7.68918E+03 -4.61568E+03  6.73200E+03  2.85363E+03
 -1.29895E+04 -1.98301E+03 -7.32899E+03 -8.07330E+03  1.42424E+03 -1.44221E+04  9.83627E+03 -2.21445E+04
  1.55799E+04 -1.33665E+04  2.31343E+04  5.53166E+03  1.73343E+04  1.86885E+04  9.26150E+03  1.98179E+04
 -1.81691E+03  2.30032E+04 -1.43174E+04  1.37088E+04 -1.52632E+04  4.91108E+03 -1.09323E+04 -5.92635E+03
 -4.41249E+03 -6.12277E+03  2.68729E+02  1.22330E+03 -1.96947E+03  1.80189E+03 -5.46472E+03  6.24065E+03
 -1.17894E+04 -1.41653E+03 -1.26845E+04 -6.85115E+03 -1.84389E+03 -1.47276E+04  9.50924E+03 -1.68922E+04
  1.15886E+04 -7.23343E+03  5.79849E+03  3.13425E+03  1.33074E+02  4.96299E+03 -6.05593E+03  1.19024E+03
 -2.99259E+03 -9.18048E+03  4.97356E+02 -1.36252E+04  9.00260E+03 -1.40100E+04  2.31772E+04 -9.40460E+03
  2.17354E+04 -1.98627E+03  1.05896E+04  1.39350E+04  4.82511E+03  1.88390E+04 -1.27986E+04  1.12699E+04
 -1.14940E+04  6.04215E+03 -2.65041E+03 -3.58869E+03  3.14206E+03 -5.64265E+03  7.02547E+03  2.21633E+03
  5.40587E+03  6.59773E+03  4.33338E+02  1.13356E+04 -7.02351E+03  1.24434E+04 -5.66133E+03  5.14987E+03
 -1.24473E+04 -8.63493E+03 -2.95952E+03 -1.53868E+04  4.90888E+03 -1.45534E+03  3.24326E+03  3.97599E+03
  3.51163E+02  7.15772E+03 -6.50362E+03  6.62729E+03 -6.02837E+03  1.47327E+03 -1.06228E+04  1.49522E+03
 -8.15029E+03 -5.83401E+03  2.75789E+03 -1.16268E+04  1.16778E+04 -7.32337E+03  9.72132E+03  2.44780E+03
  6.88521E+03  8.54503E+03 -9.47652E+02  1.09420E+04 -6.21668E+03  5.96056E+03 -9.92899E+03 -4.54343E+03
 -6.74813E+03 -7.05067E+03 -9.88625E+02 -1.01998E+04  8.82960E+03 -8.49341E+03  3.59600E+03 -1.46245E+03
  6.46633E+03  2.32498E+03 -1.51284E+03  1.71750E+02  2.00494E+03 -2.69859E+03  4.02334E+03 -2.91086E+03
  4.06421E+03  4.29189E+03  1.09100E+04 -2.03914E+02  8.42516E+03  2.57375E+03  7.22778E+03  1.49704E+04
 -5.02623E+01  1.98564E+04 -1.34278E+04  8.90227E+03 -1.63507E+04  1.99742E+03 -1.12172E+04 -2.29124E+03
 -4.54622E+03 -1.02155E+04  4.07463E+03 -7.40006E+03  5.10770E+03 -8.32377E+02  2.48114E+03 -3.17969E+03
  1.56319E+03  1.10393E+03  6.63758E+03  3.60701E+02  3.80746E+03 -2.57161E+03  4.50195E+03  2.45828E+03
  5.95574E+03  4.20280E+03  9.64961E+02  1.98076E+03  1.41434E+03  7.18808E+03 -5.60864E+03  3.39467E+03
 -6.37920E+03 -7.38498E+03 -4.76218E+03 -7.07001E+03  3.59612E+03 -1.12040E+04  7.48343E+03 -1.48047E+04
  1.09680E+04 -7.19440E+03  1.23920E+04  3.97163E+03  8.26553E+03  9.76192E+03  2.45963E+03  1.11018E+04
 -1.66347E+03  1.04915E+04 -3.62729E+03  5.88325E+03 -3.70741E+03 -5.72385E+03  1.23015E+03  1.98707E+02
  2.06790E+03 -5.57389E+03 -3.58787E+02  6.49887E+03 -8.08139E+03  3.41389E+02 -9.48026E+03 -2.57335E+03
 -3.29007E+03 -1.82470E+03 -1.39161E+03 -7.75600E+03  1.01670E+04 -6.70527E+03  3.95712E+03 -3.80073E+03
  8.28456E+03  2.05742E+03  2.04647E+03  5.65951E+03  1.91580E+02  1.20516E+04 -8.04808E+03  7.56608E+03
 -6.03701E+03  4.60612E+02 -9.48979E+03 -6.05148E+03 -1.52680E+03 -2.77935E+03  6.47260E+02 -5.76357E+03
  7.43894E+03 -1.03535E+03  5.79863E+03  2.16073E+02  3.61646E+03  3.31506E+03 -2.35373E+03  2.04504E+03
  5.17151E+02  3.83779E+03  5.38005E+03  4.87309E+03  1.31048E+03  6.10732E+03  3.13002E+03  4.60869E+03
  1.94833E+03  6.29646E+03 -2.61771E+03  7.30059E+03 -7.94382E+03 -2.08574E+03 -8.38070E+03 -3.37950E+03
 -6.79381E+03 -7.55214E+03  2.00592E+03 -8.67559E+03  9.06404E+03 -4.38930E+03  7.88934E+03  2.04173E+03
  8.23470E+03  6.09189E+03  2.53651E+03  5.49797E+03  4.33343E+02  6.47804E+03 -4.13157E+03 -3.66593E+03
 -1.58832E+02 -8.92606E+03  3.21881E+03 -4.38684E+03  5.98141E+03 -1.57257E+03  3.49439E+03 -3.26592E+03
  4.20247E+02 -1.49476E+03  2.87031E+03  6.03156E+03  7.12581E+02 -8.03333E+00  4.23872E+03 -2.65621E+03
  2.37239E+03  1.87109E+02  1.35951E+03  4.47767E+03  4.59391E+03  6.61157E+03 -3.84257E+02  9.51019E+03
 -4.69064E+03  3.54696E+03 -8.50913E+03  6.25167E+03 -6.76434E+03 -6.47535E+03  1.65498E+03 -7.22995E+03
 -2.72463E+03 -6.55975E+03 -1.28509E+03  1.98619E+03  5.76708E+03  3.95849E+03 -2.36957E+03  4.59651E+02
 -3.97649E+03  1.23889E+03 -4.84795E+03 -5.36202E+03 -7.22533E+03 -7.51019E+03 -5.84402E+02 -2.67564E+03
  4.42409E+03 -4.87857E+02  1.77448E+03  1.54695E+03  8.02901E+03 -1.43455E+02  3.91258E+03  2.12891E+03
 -5.11896E+03 -2.27377E+03 -4.46895E+03 -1.39967E+03 -3.85796E+03 -5.36503E+03  4.31669E+03 -1.81032E+03
  4.26921E+03  3.59998E+02  2.08245E+03  5.61284E+02  6.68422E+02  7.08510E+03 -4.22126E+03  1.05809E+04
 -7.05439E+03  2.07721E+03 -5.26165E+03  3.82024E+03  6.04711E+02 -4.56554E+03 -1.51626E+03 -3.85360E+02
  5.71843E+03 -8.29828E+02  3.07519E+03  1.94115E+03 -4.02613E+03 -8.84865E+02  6.41657E+02  4.88295E+03
 -6.98470E+02  4.05930E+03 -2.37315E+03  1.76644E+02 -7.16372E+02 -1.42604E+03 -1.19394E+03  2.90318E+03
  6.16132E+02  4.82776E+03 -4.88750E+03  1.09622E+03 -3.82599E+03  4.08471E+03 -8.16315E+03 -5.93404E+03
 -1.52160E+03 -9.94959E+03  1.75714E+03 -1.07600E+04  2.68252E+03 -5.04905E+03  3.46823E+03 -4.25767E+03
  9.74920E+03  4.55836E+03  2.64547E+03  8.52349E+03 -3.99902E+03  4.17644E+03  1.41191E+03  1.39823E+03
 -1.93758E+03  2.49945E+03  1.52290E+03 -2.44454E+02  1.77969E+03 -4.54350E+03  6.05550E+02  4.33179E+03
 -1.15176E+03  2.94950E+03 -2.08045E+03 -8.08677E+02 -2.25473E+03 -3.50476E+03  5.45036E+02 -1.33143E+03
  4.64647E+03 -2.99855E+03  2.17936E+03 -5.19804E+03  1.87968E+03  4.40599E+03  5.12974E+03  1.00722E+04
 -2.61312E+03  7.04788E+03 -5.07944E+03  4.81789E+03 -4.27068E+03  1.62910E+03 -5.32862E+03 -7.26685E+03
 -2.57092E+03 -6.17351E+03 -2.10467E+02 -1.02244E+03  5.16904E+03 -3.21151E+03 -1.39887E+03  7.86644E+02
 -2.63256E+02  3.10223E+03 -1.12828E+03  5.30826E+02 -3.88918E+03  2.84109E+03 -4.50881E+02 -2.51787E+02
  6.80357E+03 -1.84117E+03  1.52511E+03 -4.72343E+02 -1.17699E+03  2.35824E+03 -2.92356E+03  1.45246E+03
 -7.61838E+03  4.23883E+03 -1.24447E+03  2.78971E+03 -4.83218E+03 -6.42124E+03  9.64232E+02 -1.57389E+03
 -6.89520E+02  5.41242E+02  3.38961E+03  6.22569E+02  3.28478E+03 -9.30048E+02  2.50974E+03  5.42538E+03
  1.92851E+03  3.41530E+03  7.72739E+02  5.23921E+03 -5.44794E+03  7.26685E+03 -1.25260E+03 -4.87288E+00
  1.18399E+03  1.95498E+03 -7.09647E+03 -2.32101E+02 -7.84827E+02 -7.98598E+02 -2.41240E+03  2.20953E+03
 -5.72393E+02 -1.26822E+03 -9.99400E+02 -3.50853E+03  5.86505E+03 -2.93669E+03  5.08010E+03 -2.85873E+03
  7.12035E+03  2.57063E+03  8.47509E+02  6.44743E+02  9.20466E+02  1.99922E+03 -2.45473E+03  5.90225E+03
