 $NMID ID='MM_0lb_SNR50_14hz_g45_23.RAW', FMTDAT='(8E13.5)'
 TRAMP=1., VOLUME=1. $END
  3.08856E+05 -1.40002E+02  3.38797E+05  2.51913E+05  9.18405E+04  3.38621E+05 -1.31367E+05  2.48244E+05
 -1.92867E+05  8.41540E+04 -1.12522E+05 -3.08989E+04  6.67668E+02 -5.21991E+04  4.96664E+04 -2.22000E+00
  3.53365E+04  5.14616E+04 -1.81411E+04  7.90822E+04 -5.77624E+04  5.69774E+04 -8.57188E+04  3.24064E+04
 -8.00717E+04 -1.08441E+04 -5.82799E+04 -4.97365E+04 -1.87080E+04 -6.65944E+04  3.39776E+04 -4.33732E+04
  3.90128E+04  2.95998E+03  1.37922E+04  4.43949E+04 -3.38643E+04  4.65672E+04 -6.82563E+04  9.44734E+02
 -5.31817E+04 -5.94456E+04 -8.42580E+03 -8.37020E+04  3.11674E+04 -5.60252E+04  4.78864E+04 -1.77710E+04
  4.08246E+04  1.16750E+04  2.87923E+04  2.09764E+04  1.87626E+04  2.88781E+04 -6.70304E+03  2.50133E+04
 -2.13157E+04  1.05184E+04 -1.24702E+04 -5.83513E+03  5.49044E+03 -6.14177E+03  2.54316E+04  1.42274E+04
  8.48626E+03  3.79158E+04 -3.02640E+04  2.69481E+04 -6.37455E+04  5.04962E+03 -5.58709E+04 -4.07939E+04
 -1.18069E+04 -6.11456E+04  3.71957E+04 -4.38800E+04  5.99441E+04  1.97084E+03  3.11140E+04  3.15991E+04
 -4.39121E+03  3.80902E+04 -2.49644E+04  1.21717E+04 -3.18903E+04 -1.21126E+03 -1.68892E+04 -1.31024E+04
 -5.10058E+03 -1.48178E+04  2.66333E+03 -2.34315E+04  9.70674E+03 -2.73847E+04  2.03619E+04 -1.58763E+04
  1.52396E+04  1.05777E+04 -1.01641E+04  1.24364E+04 -1.77613E+04 -1.85588E+03 -1.44778E+04 -3.82386E+04
  2.54447E+04 -4.35552E+04  4.69860E+04 -2.45114E+04  4.20457E+04  1.79537E+04  1.42203E+04  4.79114E+04
 -1.66474E+04  3.26283E+04 -2.75813E+04 -1.89597E+03 -1.01164E+04 -2.83200E+04  2.13968E+04 -3.32741E+04
  3.66312E+04 -1.27757E+04  3.80477E+04  2.36234E+04  1.71869E+04  5.06422E+04 -9.55801E+03  5.10802E+04
 -2.87543E+04  2.51582E+04 -4.52535E+04  3.13645E+03 -4.51084E+04 -1.59835E+04 -2.22353E+04 -3.81461E+04
  3.10565E+03 -3.61547E+04  3.12520E+04 -1.39799E+04  3.06676E+04  1.85749E+04  4.06809E+03  1.69419E+04
 -1.12202E+04  1.16652E+04 -8.67027E+03 -5.34711E+03  9.33173E+03 -1.19146E+04  1.96687E+04  8.99992E+03
  1.39022E+04  2.20593E+04 -6.40830E+03  2.83740E+04 -2.59699E+04  1.63687E+04 -2.77742E+04 -6.25712E+03
 -1.68005E+04 -1.86811E+04 -5.83691E+03 -1.95481E+04  2.89761E+03 -1.74529E+04  1.80974E+04 -1.81919E+04
  2.60521E+04 -1.08696E+04  2.77553E+04  7.36254E+03  2.69791E+04  1.66448E+04  2.78466E+03  3.62653E+04
 -2.13593E+04  3.31416E+04 -2.72915E+04  1.19909E+04 -1.85434E+04 -1.04671E+04 -9.95011E+02 -1.42257E+04
 -1.85465E+03 -3.23602E+03 -2.60612E+03 -9.05144E+02 -1.33508E+04  5.10313E+03 -2.00297E+04 -4.24652E+03
 -1.24718E+04 -1.90875E+04  9.36441E+03 -2.53182E+04  1.73960E+04 -2.05525E+04  1.37037E+04  1.25547E+03
  8.73433E+03  1.53650E+04  9.54099E+02  1.52172E+04 -1.58332E+04  1.35854E+04 -1.79319E+04  6.54030E+02
 -1.67623E+04 -2.23168E+04 -6.01316E+03 -2.14332E+04  9.64285E+03 -1.76601E+04  1.76345E+04 -1.06086E+04
  1.13613E+04  4.03545E+01  1.25838E+04  4.88798E+03  7.87539E+03  2.00887E+03  5.73975E+03 -1.33901E+03
  1.65814E+04  5.31081E+03  2.04979E+04  1.38557E+04  9.32164E+03  3.13853E+04 -3.26434E+03  3.15814E+04
 -2.20168E+04  2.84678E+04 -3.20103E+04  1.57297E+04 -3.26625E+04 -6.80443E+02 -2.14075E+04 -2.00010E+04
 -6.49590E+03 -2.74735E+04  9.73323E+03 -2.65817E+04  2.27445E+04 -1.25100E+04  1.55402E+04  5.45893E+03
  7.08125E+03  8.79676E+03 -6.52258E+03  1.55536E+04 -1.62226E+04  3.75581E+03 -1.10068E+04 -1.32578E+04
  1.58523E+03 -1.76597E+04  9.45993E+03 -1.30851E+04  1.11527E+04 -2.83954E+03 -1.38953E+03  3.38008E+03
 -4.68268E+03 -2.30675E+03 -1.03122E+04 -9.35765E+03  4.20183E+02 -1.30457E+04  7.14513E+03 -1.25713E+04
  1.84251E+04 -5.32223E+03  1.85875E+04  3.26136E+03  1.37042E+04  1.21415E+04  5.03321E+03  1.73505E+04
 -1.97798E+03  2.02911E+04 -1.28915E+04  1.48010E+04 -1.72380E+04  2.02235E+03 -5.87811E+03 -4.91975E+03
 -2.18650E+03 -6.44718E+03  6.03027E+02  1.37146E+03  7.12952E+02 -4.20827E+03 -6.75065E+03  4.51279E+03
 -9.37106E+03 -2.28248E+03 -9.39685E+03 -7.10773E+03 -5.58036E+03 -1.09080E+04  7.27395E+03 -1.17562E+04
  8.41842E+03 -7.94926E+03  1.03534E+04  3.78910E+03  1.64644E+03  7.98178E+03 -9.55771E+03 -1.90519E+02
 -7.59313E+03 -6.12973E+03 -2.50962E+03 -1.21805E+04  5.11453E+03 -1.01866E+04  1.88448E+04 -2.12533E+03
  1.46335E+04  4.01800E+03  1.54946E+04  9.95131E+03  3.73063E+03  1.64529E+04 -3.40026E+02  1.26538E+04
 -1.13811E+04 -2.43550E+03 -1.51710E+03 -4.74443E+03  5.35929E+02 -2.01148E+03  6.98415E+03 -2.11891E+03
  7.18881E+03  5.16584E+03  3.34499E+03  1.16859E+04 -7.23457E+03  9.47562E+03 -1.15849E+04  3.28196E+03
 -5.83033E+03 -5.92973E+03  1.00570E+02 -7.31210E+03  7.76367E+03 -7.24659E+03  2.81392E+03  1.80708E+02
 -5.74093E+02  8.63088E+03 -5.70714E+03  6.88700E+03 -1.21756E+04  2.80624E+03 -9.09321E+03 -4.52154E+03
 -4.49387E+03 -9.91000E+03  1.30257E+03 -6.25827E+03  8.97529E+03 -7.93230E+03  1.19637E+04  2.62545E+03
  9.95753E+03  5.97285E+03  4.31041E+03  1.22894E+04 -6.43610E+03  8.44054E+03 -5.95237E+03 -3.32409E+02
 -4.29805E+03 -5.17596E+03 -4.67580E+03 -4.78768E+03  8.96392E+03 -6.55893E+03  4.30487E+03 -2.95585E+03
  2.12984E+03 -7.79518E+02  6.26331E+02  3.18470E+03  1.34572E+03 -6.35477E+02  3.21012E+03 -6.86767E+03
  5.51707E+03  1.37718E+02  1.09414E+04  3.20632E+03  1.38679E+04  3.32072E+03  3.11100E+03  1.34703E+04
  3.75720E+03  1.45232E+04 -9.82654E+03  1.21782E+04 -1.13231E+04 -7.07818E+02 -1.14929E+04 -7.10209E+03
 -5.07064E+03 -1.00571E+04 -3.31640E+03 -7.57604E+03  1.09436E+03  7.18221E+02 -2.25840E+03 -6.46440E+03
 -2.48724E+02 -8.56796E+03 -5.20571E+03 -6.01409E+03  7.63159E+03 -1.30377E+03  4.95125E+03 -2.28686E+03
  7.46585E+03  2.13918E+03  9.18343E+03  1.16351E+04  1.77728E+03  3.91278E+03 -1.02378E+04  4.03689E+03
 -8.68778E+03 -2.02193E+03 -2.05812E+03 -6.74589E+03 -2.16622E+03 -9.20767E+03  4.17150E+03 -7.68031E+03
  7.46756E+03 -9.61241E+03  1.19665E+04 -2.55774E+03  4.23748E+03  7.47874E+03 -1.18583E+03  1.11012E+04
 -5.64287E+03  9.80870E+02 -8.91924E+03 -7.80311E+02 -1.42334E+03 -2.42380E+03  8.19739E+02 -8.24052E+02
  9.49728E+02 -2.03081E+03 -1.11345E+03 -6.69110E+01 -5.25362E+02 -1.70195E+03 -7.14252E+03 -7.59366E+02
 -8.31533E+03 -6.62548E+03  7.38181E+02 -1.14244E+04  2.40101E+03 -1.05928E+04  5.37004E+03 -2.62368E+03
  8.16094E+03  4.48620E+03  3.00760E+03  6.38247E+03 -3.09217E+02  5.41010E+03 -2.96276E+03  4.28195E+03
 -9.22712E+03  8.51162E+03 -3.69520E+03 -1.90121E+03 -4.76596E+03 -4.26127E+03 -2.73134E+03 -5.99965E+03
  6.27688E+03 -1.94194E+02  2.73039E+03  2.22894E+03  3.22872E+01  4.31170E+03  2.58592E+03  3.07429E+03
  2.55369E+03  4.29197E+03  1.98384E+03  2.96339E+03  2.24941E+03  3.56495E+03 -4.66371E+02  4.80687E+03
 -8.42049E+03  7.15314E+03 -6.92009E+03  7.46283E+03 -3.05786E+03  3.96834E+03 -1.14390E+04 -2.17545E+03
 -4.73351E+03 -8.24413E+03  4.27289E+03 -5.57669E+03  1.21383E+03 -1.78485E+03  6.93737E+03 -4.20151E+03
  6.13954E+03  4.94477E+03 -7.96428E+02  8.43630E+03  2.64295E+02  6.97363E+03 -1.25263E+03 -4.40865E+03
 -2.85637E+03 -3.04643E+03  4.11541E+02 -3.21630E+03 -1.37213E+03  9.14598E+02  2.90748E+03 -4.60092E+02
 -3.72167E+03 -5.91194E+03 -1.09665E+03 -2.54256E+03 -7.65929E+02  1.51561E+03  3.47415E+03 -1.29241E+03
  1.68311E+03 -1.17817E+03 -1.87878E+02 -3.87125E+02 -4.49088E+03  7.81657E+03  2.33967E+03  3.01228E+03
 -3.89471E+02  3.88119E+03 -6.72480E+03  5.10868E+03 -3.15230E+01 -1.06366E+03  1.92591E+02 -6.86057E+03
 -1.14525E+03 -5.07891E+03 -2.55174E+03 -2.64940E+03  1.90932E+03 -1.30286E+03  2.19511E+03  8.07053E+02
 -3.45261E+03 -9.24076E+02  3.37389E+03 -3.84167E+03 -6.94102E+02  1.05268E+03  4.90501E+03 -3.72264E+03
  2.40673E+02  3.67318E+03  1.49366E+02  3.82922E+03  5.98541E+03  3.67845E+03  2.26453E+03 -1.24554E+03
 -1.80330E+03  3.00645E+03 -5.02416E+03 -7.45368E+01  3.64367E+03 -1.26761E+03  2.74284E+03  2.09577E+03
  7.47210E+03  5.42165E+03  8.39891E+03  1.92426E+03 -1.55510E+03  3.02584E+03 -2.55521E+03  5.83361E+03
 -3.59716E+03  1.28463E+03 -2.66868E+03 -5.64614E+03 -1.87203E+03 -5.08523E+03  5.04135E+03 -7.92080E+03
  2.03787E+03  1.84836E+01  4.68081E+02  2.00574E+03 -3.43098E+02  2.30863E+03 -6.95084E+02  7.35702E+02
 -7.23155E+03 -9.90444E+02 -5.36726E+03  8.13890E+03 -8.01837E+01 -3.30724E+03 -3.22149E+03 -3.23342E+03
  2.52200E+03  3.18364E+03 -5.16305E+03  5.13512E+02 -7.20068E+03  3.82941E+02  5.91163E+02 -4.41963E+03
 -1.73999E+03 -7.26126E+03  1.18212E+03 -5.77641E+03 -7.84199E+02 -4.94679E+03  5.32176E+03 -2.47383E+01
  9.27374E+03 -7.01390E+00  2.46729E+03  2.01830E+03  7.38475E+02  1.94084E+03  1.93584E+03 -2.41878E+03
 -8.43170E+03  4.09500E+03  3.13458E+03  4.42257E+03  2.15874E+03 -3.46610E+03 -1.89934E+02 -2.27782E+03
  2.01692E+03  3.30043E+03 -6.35561E+03 -5.14329E+03  8.97700E+02  3.47211E+02  6.91210E+02 -3.72131E+02
  1.69719E+03  2.65690E+03 -2.53938E+03 -7.18546E+01  4.17515E+03  4.95467E+03 -1.40986E+03  1.21505E+03
  7.33730E+03  8.84715E+03 -5.62493E+03  5.57678E+03 -4.05935E+03  2.01350E+03 -7.40658E+03  3.34600E+02
 -4.88546E+02 -6.13287E+03  3.41453E+03 -7.71790E+03  3.51318E+03 -3.82971E+03  2.59543E+03  1.82791E+03
  2.64718E+03  1.87650E+03  1.80989E+01  4.03098E+03  1.00293E+03  1.06481E+03  1.33150E+02  2.40825E+03
  3.36617E+03  1.17021E+03  2.11816E+03  4.04729E+03  2.86993E+02  1.55233E+03  5.88251E+03 -6.54764E+01
 -4.47063E+03 -1.36960E+03 -4.64438E+03 -6.44043E+03 -6.17813E+02 -1.73752E+03 -1.04301E+03 -1.09740E+04
  2.43263E+03  2.76866E+03  7.67776E+03 -3.29571E+03  2.11547E+03 -4.41747E+02 -1.78639E+03  4.06545E+02
  3.29118E+03 -1.62539E+03  9.65813E+02  3.48437E+03  1.85585E+03  3.16292E+02 -1.81114E+03  3.15589E+03
  2.44959E+03  3.41041E+02  1.49083E+03 -3.81604E+03 -2.07305E+03 -1.10056E+03 -5.52213E+02 -9.77391E+02
  3.95124E+03  1.76465E+01  2.45419E+03 -2.88182E+03  3.92684E+03 -1.09659E+03  1.17314E+03 -5.23046E+02
  4.53773E+03  2.26741E+03  5.20966E+03  4.41361E+03  5.28711E+03  1.52224E+03  3.26842E+03  7.48367E+03
