 $NMID ID='MM_0lb_SNR50_19hz_g40_41.RAW', FMTDAT='(8E13.5)'
 TRAMP=1., VOLUME=1. $END
  3.12005E+05 -1.17345E+03  3.40217E+05  2.50453E+05  8.96587E+04  3.40170E+05 -1.32607E+05  2.51260E+05
 -1.89223E+05  8.67910E+04 -1.08892E+05 -3.11187E+04  5.20671E+02 -4.69749E+04  5.70282E+04  2.25448E+03
  3.61638E+04  4.91307E+04 -1.46825E+04  7.51774E+04 -5.75776E+04  6.26528E+04 -8.19733E+04  2.62681E+04
 -8.01912E+04 -1.07554E+04 -5.50493E+04 -5.11545E+04 -1.59704E+04 -6.55242E+04  2.75335E+04 -4.47003E+04
  3.79517E+04  5.37192E+03  1.61471E+04  4.77436E+04 -3.55922E+04  4.88579E+04 -6.25503E+04 -9.44332E+02
 -5.64501E+04 -5.60657E+04 -1.03546E+04 -7.24473E+04  2.85711E+04 -5.12005E+04  4.85013E+04 -2.21198E+04
  4.53911E+04  9.54207E+03  2.75616E+04  2.19190E+04  1.68856E+04  2.93156E+04 -8.51502E+03  2.61321E+04
 -2.14038E+04  1.13682E+04 -2.12646E+04 -1.93179E+03  2.65401E+03 -4.22776E+03  2.15120E+04  1.51724E+04
  6.55752E+03  3.17907E+04 -3.52053E+04  3.45233E+04 -5.99398E+04 -1.77528E+03 -5.48151E+04 -4.03818E+04
 -1.56258E+04 -6.01901E+04  4.26464E+04 -4.23553E+04  5.81212E+04 -2.41312E+03  3.28394E+04  3.06723E+04
 -9.43507E+03  3.05176E+04 -2.75200E+04  9.93175E+03 -2.79793E+04 -5.94328E+03 -2.04264E+04 -1.21287E+04
 -7.17862E+03 -1.32284E+04 -5.12704E+03 -1.59511E+04  7.66209E+03 -2.50109E+04  1.52368E+04 -1.30326E+04
  1.86698E+04  5.98185E+03 -3.51321E+03  1.41492E+04 -1.76374E+04  2.22953E+03 -8.95967E+03 -2.90225E+04
  2.44284E+04 -3.89717E+04  4.39168E+04 -1.80557E+04  3.93444E+04  2.08957E+04  1.37247E+04  4.49341E+04
 -1.55403E+04  2.97123E+04 -2.73435E+04  4.58909E+03 -6.61368E+03 -2.45165E+04  1.77468E+04 -3.20928E+04
  3.75872E+04 -5.04238E+03  3.26494E+04  2.54954E+04  1.88713E+04  4.25549E+04 -6.61430E+03  4.58217E+04
 -2.81778E+04  2.77590E+04 -3.36149E+04  1.01476E+04 -3.69299E+04 -1.56103E+04 -2.18340E+04 -3.22547E+04
  8.48125E+03 -3.80258E+04  2.85539E+04 -1.11027E+04  2.47258E+04  9.42120E+03  2.10989E+03  1.52013E+04
 -1.34876E+04  9.93890E+03 -1.02631E+04 -1.02327E+04  5.81817E+03 -6.75518E+03  1.37636E+04  4.45361E+03
  1.79877E+04  2.44417E+04 -6.74013E+03  1.92027E+04 -2.21027E+04  8.76603E+03 -2.50482E+04 -8.77901E+03
 -1.54408E+04 -1.70746E+04  3.26487E+01 -1.79138E+04  3.40734E+03 -1.56191E+04  9.29659E+03 -1.64012E+04
  1.98197E+04 -1.18925E+04  3.10549E+04 -1.30029E+02  2.28048E+04  1.86505E+04  6.43557E+03  3.68714E+04
 -1.46161E+04  2.54913E+04 -2.22185E+04  8.12435E+03 -1.90310E+04 -1.06504E+04 -3.79895E+03 -1.46086E+04
  2.67329E+03 -7.09423E+03  7.52955E+02  3.47523E+03 -1.20202E+04  4.95028E+03 -9.40909E+03 -9.68050E+03
 -6.94147E+03 -1.59458E+04  6.53469E+03 -1.85795E+04  6.73548E+03 -1.42299E+04  1.89241E+04 -4.79748E+03
  7.25885E+03  9.20044E+03  2.73519E+03  1.08574E+04 -8.87258E+03  4.20521E+03 -1.41857E+04 -3.15079E+03
 -1.03527E+04 -1.63891E+04 -2.36589E+03 -1.82506E+04  6.04161E+03 -1.45240E+04  2.20440E+04 -9.15814E+03
  1.24937E+04 -2.72239E+03  7.64256E+03  4.35376E+03  5.45658E+03  1.15086E+03  4.56190E+03 -2.16779E+02
  1.18273E+04  8.57301E+02  1.33714E+04  1.32707E+04  5.58533E+03  2.04788E+04 -4.05837E+03  2.51085E+04
 -1.30948E+04  2.11687E+04 -1.93360E+04  1.08502E+04 -1.95793E+04 -3.60863E+03 -2.12228E+04 -1.17211E+04
 -1.16045E+04 -1.84474E+04  4.24698E+03 -1.70929E+04  1.55962E+04 -1.35049E+04  1.47030E+04  6.91817E+03
  8.58810E+03  1.02015E+04 -2.67397E+03  1.01696E+04 -1.13967E+04 -1.58648E+03 -9.66174E+03 -9.45849E+03
 -3.03371E+03 -1.10527E+04  5.66683E+03 -7.62595E+03  1.13309E+03 -2.55381E+03  1.00825E+03  5.74272E+03
 -3.63388E+03 -1.09735E+03 -2.36239E+03 -2.52703E+03  1.84196E+03 -1.15173E+04  6.63388E+03 -7.78327E+03
  1.28400E+04 -4.25704E+03  8.44359E+03  3.96076E+03  9.05528E+03  6.60151E+03  2.19721E+03  1.14394E+04
  2.90733E+03  1.23929E+04 -7.20237E+03  9.95881E+03 -1.02741E+04  6.87575E+03 -1.00901E+04 -2.12436E+03
 -4.30095E+03  1.11334E+03  9.43053E+02  5.49928E+02 -3.15658E+03  3.36149E+03 -2.33541E+03  2.65013E+03
 -8.81594E+03  2.58568E+03 -7.91289E+03 -6.17197E+03 -5.35427E+03 -7.22556E+03  3.43887E+03 -1.09546E+04
  9.15648E+03 -4.03052E+03  6.32359E+03  4.91761E+03  1.98726E+02  1.54025E+03 -7.43823E+03 -6.38009E+02
 -2.93864E+03 -2.74640E+03 -2.01377E+03 -1.36250E+03  4.85774E+03 -1.28199E+04  6.82530E+03 -3.80793E+03
  8.05100E+03  3.05638E+02  6.73450E+03  2.64819E+03  4.42920E+03  6.95479E+03 -4.96544E+03  8.92800E+03
 -8.06890E+03  1.91949E+02 -8.24498E+03 -3.08485E+03 -1.94475E+03 -5.85120E+02  2.78407E+02  1.73168E+03
  2.48577E+03  6.58065E+03 -1.17838E+02  4.47588E+03 -3.19869E+03  3.59731E+03 -9.25971E+03  3.28983E+03
 -4.17430E+03 -5.52270E+03  1.73871E+03 -4.91277E+03  5.17664E+03 -2.43186E+03  2.10548E+02 -1.33146E+03
 -5.95460E+02  3.12597E+03 -6.14274E+03  2.33301E+03 -7.54180E+03  5.47395E+03 -2.87656E+03 -1.57687E+03
  1.82709E+03 -7.98430E+03  3.71930E+03 -7.28261E+03  5.87485E+03 -2.41371E+03  4.63257E+03 -1.12649E+03
  7.02723E+03  4.26781E+03  2.59240E+03  7.50950E+03 -7.83279E+03  4.66350E+02 -7.02174E+03 -3.21265E+03
 -5.94538E+03 -3.70488E+03 -1.74202E+03 -4.10397E+03  4.51359E+03 -6.04467E+03  2.55877E+03 -5.79345E+03
  4.54025E+03 -2.59198E+03  2.72684E+03  2.04672E+03  9.72493E+02 -2.49752E+03 -1.35099E+03  6.48810E+02
  4.39943E+03 -2.28458E+03  8.24950E+03 -8.99584E+02  4.28954E+03  1.89630E+03  6.01171E+03  4.92040E+03
  1.34194E+03  9.85989E+03 -4.92099E+03  8.04138E+03 -1.04112E+04  6.03052E+03 -8.23552E+03 -6.83869E+03
 -2.36607E+03 -6.11089E+03  2.47652E+03 -6.24345E+03  5.92025E+03  2.88420E+03  5.59551E+03 -1.73563E+03
  6.74232E+02 -2.86633E+02  2.09310E+03 -1.32724E+03  4.67185E+03 -1.42463E+03  5.66565E+03  3.85213E+03
  4.52367E+03  1.92256E+03 -3.18093E+03  2.28225E+02  1.51328E+03  1.87764E+03 -1.96462E+03  2.93996E+03
 -9.70113E+03 -2.04253E+03 -3.73259E+03 -5.31382E+03  1.47815E+02 -3.62885E+03 -3.57161E+02 -5.74104E+03
  8.12376E+02 -1.27211E+03  4.66499E+03 -1.43392E+03  6.50045E+03  8.47630E+03 -5.36591E+02  2.41126E+03
 -3.45198E+03  5.41133E+03 -5.84437E+03  4.86601E+03 -1.45512E+03 -1.17685E+03 -1.44915E+03 -1.26026E+03
  3.80824E+02 -1.24519E+03  7.56203E+02  4.39680E+03 -1.00529E+03  4.48280E+01 -5.60475E+03 -2.45093E+02
 -2.30941E+03 -3.67390E+03 -1.64768E+02 -2.38566E+03  1.89166E+03 -1.72695E+03  3.04682E+03 -4.37471E+02
  2.94688E+03  1.43811E+03  1.61814E+03  9.77146E+02 -4.61003E+03  2.37254E+03 -5.10659E+03  3.50261E+02
 -4.11611E+03  3.18622E+03 -4.56110E+03 -2.10624E+03 -4.81359E+03 -5.82605E+03 -7.77484E+01 -2.87051E+01
  3.87786E+03  3.84163E+02  2.74625E+03  2.63711E+03  1.32398E+03  3.95385E+02  3.97648E+03  3.10374E+03
  3.35000E+03 -2.06089E+03 -1.06402E+03 -3.78443E+03 -1.69799E+03  5.62157E+03  1.85549E+03  3.24003E+03
 -3.01372E+03  2.72577E+03 -5.30649E+03  5.34735E+03 -1.67535E+03 -2.48742E+02 -5.16841E+03 -3.83754E+02
 -4.12702E+03 -5.25361E+03  5.02443E+03 -5.50060E+03  4.63260E+03 -1.84070E+03  9.38227E+01 -1.56949E+03
  1.53437E+03  1.99338E+03 -1.83346E+03  5.27839E+03 -9.94177E+02  5.27652E+03 -4.25677E+02  4.79506E+02
 -3.63499E+02  5.00698E+01  9.74529E+02 -5.98356E+03  2.27814E+02 -1.29276E+03 -5.24574E+02  2.08001E+03
  4.12657E+03  3.43011E+03  2.49825E+03  1.35012E+03 -2.13850E+03 -3.16231E+02  3.33085E+03  1.23098E+03
  2.39445E+03  1.11038E+02  1.14437E+03  1.74500E+03  2.73866E+03  2.55882E+03 -5.50714E+02  1.70894E+03
 -3.08499E+03 -2.66647E+02 -1.05919E+03  1.29074E+03 -1.14240E+03 -5.11674E+02 -1.25814E+03 -1.41610E+03
 -4.61165E+02  5.00062E+02  1.49384E+03  1.05012E+02 -4.63381E+03  1.98599E+03  1.40924E+03 -1.40720E+03
  1.17785E+03 -2.75083E+03  3.07017E+02 -1.10302E+03 -1.61465E+03  2.08810E+03 -3.27347E+03 -2.21911E+03
  2.45102E+03 -3.56849E+03 -1.49348E+03  9.93947E+02 -3.26653E+02 -2.20237E+03  1.99377E+03 -1.43850E+03
  2.26545E+03  1.36210E+02 -5.51191E+03 -1.44809E+03 -1.83501E+03 -1.66581E+03 -1.36921E+03  5.99060E+01
  2.60174E+03  2.12975E+03  3.01033E+03 -4.67150E+03  4.17562E+03  3.09840E+03 -1.02967E+03  4.56996E+03
  5.79825E+02  2.34580E+03  1.35001E+03 -3.11916E+03 -7.42556E+03 -8.42563E+02  2.81900E+03 -7.04487E+02
  1.98473E+02  2.45550E+03  4.13551E+03 -5.08477E+02  5.38019E+02  1.30464E+02 -1.77442E+03 -2.27413E+03
 -1.62696E+03  2.21181E+03 -1.63221E+03  1.66605E+03  2.64589E+03  2.03236E+03  2.99181E+03 -2.61618E+03
  5.39960E+02 -2.28400E+02 -7.05298E+03  2.29833E+03 -2.94816E+03 -8.90956E+02 -1.92580E+03 -3.52750E+02
 -2.85031E+03 -2.40313E+03  1.12413E+03 -3.20629E+03  3.68294E+03 -1.21733E+03  1.72054E+02 -4.81173E+03
  1.34156E+03 -3.90794E+03  5.79616E+03  1.41659E+03 -1.25195E+03  1.30541E+03 -1.82786E+03 -1.89315E+02
 -1.30102E+03  4.83247E+03  1.10963E+03  2.05476E+03  2.48587E+03  9.48010E+02 -5.71260E+03  2.51128E+03
  4.74835E+02  1.48074E+03 -9.42308E+02 -2.51365E+03  5.38441E+02 -4.01037E+02 -2.63943E+03  3.57253E+03
  5.21110E+02 -2.12905E+03  7.41857E+02  3.42911E+03  2.55723E+03  3.35630E+03 -1.85924E+03  6.03417E+02
 -2.20561E+03  1.84863E+03 -1.23490E+03 -1.27629E+03  1.66904E+02 -1.52724E+03 -3.07105E+03 -5.55634E+02
 -2.00054E+03 -3.83949E+03 -2.27095E+03 -9.78575E+02  1.52244E+03  2.86973E+03 -4.61969E+03 -9.04321E+02
 -2.14920E+02 -7.60924E+02  1.24407E+03 -3.72542E+03  1.41612E+03  5.13753E+02 -3.58027E+03  7.82479E+02
  1.04582E+03 -1.69541E+03  5.88283E+02  4.90777E+02  1.77160E+03 -2.65055E+03  1.96126E+02  7.47205E+02
  2.98366E+03 -5.24216E+02  3.32493E+01  1.09315E+03  5.72499E+02  2.30109E+02  5.15390E+01 -4.55431E+02
 -7.19993E+02 -1.96010E+03  2.18049E+03  3.31635E+02  1.71240E+03  4.79700E+03  6.13923E+02  3.87706E+03
 -5.97925E+01  3.63541E+03 -2.44387E+03  1.64092E+02  5.10582E+03 -1.06029E+03 -1.71351E+03 -3.24699E+03
 -3.61999E+03 -2.76199E+03  9.57906E+02 -7.28086E+02 -3.18108E+03 -3.22266E+03 -2.49188E+03 -3.24833E+02
  1.76023E+03  1.20578E+03 -3.93193E+03  5.78976E+01 -2.02687E+03 -2.21558E+03 -1.53729E+03  1.80624E+03
 -3.62054E+02  7.18045E+01 -1.13318E+03 -2.29137E+03  3.18076E+02 -2.73095E+01 -2.77154E+03  2.50553E+03
