 $NMID ID='MM_0lb_SNR50_11hz_g40_92.RAW', FMTDAT='(8E13.5)'
 TRAMP=1., VOLUME=1. $END
  3.07734E+05  3.98550E+03  3.40712E+05  2.48396E+05  7.94335E+04  3.41185E+05 -1.33557E+05  2.49717E+05
 -1.87697E+05  8.34439E+04 -1.08553E+05 -2.83486E+04 -5.77032E+03 -5.15780E+04  5.43710E+04  2.22601E+03
  3.57403E+04  5.22381E+04 -2.11891E+04  8.17633E+04 -5.48532E+04  5.88475E+04 -8.27514E+04  3.26294E+04
 -7.58524E+04 -1.23551E+04 -5.44542E+04 -4.85435E+04 -1.30961E+04 -6.83449E+04  2.91529E+04 -5.22470E+04
  4.31492E+04  1.16687E+03  1.20854E+04  4.60951E+04 -3.37647E+04  4.73082E+04 -6.31187E+04  8.59282E+02
 -5.34112E+04 -6.13085E+04 -7.55136E+03 -7.59780E+04  3.42121E+04 -5.59210E+04  5.15290E+04 -2.05306E+04
  4.69120E+04  1.09498E+04  3.23452E+04  3.00174E+04  1.57301E+04  3.11565E+04 -3.48182E+03  2.74097E+04
 -1.90029E+04  1.13993E+04 -1.74187E+04 -3.44529E+03  3.03278E+03 -3.48879E+03  2.64476E+04  8.17376E+03
  8.98132E+03  3.86982E+04 -3.58399E+04  4.01467E+04 -6.04969E+04  3.05718E+03 -5.66500E+04 -4.43095E+04
 -1.61487E+04 -6.46584E+04  3.82029E+04 -4.66665E+04  5.82854E+04  3.83071E+03  3.17589E+04  2.91868E+04
 -3.14327E+03  3.18327E+04 -2.84303E+04  2.19102E+04 -3.71631E+04 -1.96190E+03 -1.85441E+04 -1.02942E+04
 -1.25187E+04 -1.38913E+04 -3.02169E+03 -2.25114E+04  1.19133E+04 -2.31700E+04  1.55118E+04 -9.10953E+03
  7.92517E+03  9.68111E+03 -7.30739E+03  1.07536E+04 -2.52677E+04 -6.98433E+03 -1.01697E+04 -3.31571E+04
  2.36676E+04 -3.84571E+04  4.89797E+04 -2.01718E+04  4.56471E+04  1.95254E+04  1.64264E+04  4.94573E+04
 -1.66728E+04  3.77165E+04 -2.91004E+04  1.51947E+03 -7.35861E+03 -2.87530E+04  2.46641E+04 -3.70561E+04
  3.74559E+04 -7.95596E+03  3.50060E+04  2.56409E+04  1.88265E+04  4.85485E+04 -9.63940E+03  5.35178E+04
 -3.35927E+04  3.52978E+04 -4.90732E+04  9.57109E+03 -4.84345E+04 -1.93780E+04 -2.33500E+04 -4.10469E+04
  9.11970E+03 -4.06583E+04  3.02314E+04 -8.50682E+03  3.72657E+04  1.45075E+04  1.45958E+03  2.37522E+04
 -1.10690E+04  9.29958E+03 -1.26789E+04  2.96777E+02  4.09476E+03 -1.11730E+04  2.36857E+04  7.29980E+03
  1.08609E+04  2.27908E+04 -6.54017E+03  2.53068E+04 -2.54668E+04  1.53236E+04 -3.25057E+04 -9.65652E+03
 -2.54182E+04 -1.42200E+04 -7.40645E+03 -2.44994E+04  4.69358E+03 -1.80560E+04  1.90678E+04 -1.72569E+04
  2.61652E+04 -7.39004E+03  3.96226E+04  5.99941E+03  2.59329E+04  1.88825E+04  2.98373E+03  3.69554E+04
 -1.93468E+04  3.07510E+04 -2.98394E+04  1.19334E+04 -2.37235E+04 -8.45823E+03 -5.62377E+03 -1.46003E+04
  4.48716E+03 -3.38522E+03 -9.26119E+03  1.10123E+04 -2.28990E+04  5.32890E+03 -1.70199E+04 -1.08190E+04
 -1.27051E+04 -1.96065E+04  5.12836E+03 -2.57054E+04  1.77530E+04 -1.94472E+04  1.86023E+04 -3.03534E+03
  1.03504E+04  1.63315E+04 -2.35026E+03  1.64613E+04 -1.71715E+04  1.18070E+04 -2.13511E+04 -6.49163E+03
 -1.81275E+04 -1.65680E+04  8.17378E+02 -2.43605E+04  1.02698E+04 -1.84977E+04  2.18161E+04 -1.49263E+04
  2.10792E+04  3.47399E+03  2.00166E+04  2.49136E+03  8.08901E+03  1.90764E+02  1.23885E+04 -6.74535E+03
  2.46850E+04  1.40128E+03  2.52267E+04  1.77965E+04  1.65218E+04  3.03438E+04 -3.47574E+03  3.97666E+04
 -1.93509E+04  3.24251E+04 -4.13264E+04  1.32087E+04 -3.52658E+04 -6.90199E+03 -2.90530E+04 -1.92990E+04
 -1.08159E+04 -2.74854E+04  7.52592E+03 -2.47974E+04  2.70098E+04 -6.02141E+03  2.27290E+04  7.73556E+03
  7.13750E+03  2.05084E+04 -1.07263E+04  1.08759E+04 -2.09955E+04 -3.77321E+03 -1.40318E+04 -1.18353E+04
 -2.62733E+03 -1.58537E+04  4.98303E+03 -5.80483E+03  1.16222E+04  4.33225E+03  2.10472E+03  9.89697E+03
 -6.31755E+03 -1.92841E+03 -8.31076E+03 -6.44693E+03 -6.46446E+03 -1.34212E+04  9.15809E+03 -1.77674E+04
  1.97051E+04 -1.25035E+04  1.57173E+04  5.11066E+03  1.93707E+04  1.83824E+04  8.51531E+03  2.32232E+04
 -1.49970E+03  2.61231E+04 -1.28144E+04  1.48320E+04 -1.36688E+04  5.00075E+03 -1.52393E+04 -6.24130E+03
 -2.03754E+03 -8.00524E+03 -2.25053E+03 -1.73767E+03  6.73711E+02  3.10569E+03 -7.74444E+03  7.51257E+03
 -1.64351E+04 -4.87699E+03 -1.30725E+04 -1.26916E+04 -8.75095E+03 -2.12671E+04  5.43945E+03 -1.04325E+04
  1.23891E+04 -4.21002E+03  8.77532E+03  3.33234E+03 -2.30356E+03  3.95512E+03 -3.12751E+03  1.20502E+03
 -9.75383E+03 -6.66815E+03 -4.16488E+02 -1.07363E+04  8.48119E+03 -1.51874E+04  1.81917E+04 -7.71001E+03
  1.70106E+04  2.21228E+03  8.24648E+03  1.19809E+04 -1.23140E+03  1.38638E+04 -3.28612E+03  9.20305E+03
 -8.62953E+03  2.76757E+03 -6.08257E+03  6.61535E+03  3.94320E+03 -1.46403E+02  9.90027E+03  5.04690E+03
  5.29498E+03  7.04199E+02  6.40680E+03  1.11773E+04 -3.56604E+03  7.16468E+03 -1.26198E+04  5.05672E+03
 -1.12085E+04 -7.49032E+03  6.03171E+02 -1.17611E+04  5.63054E+03 -1.22893E+04  9.00269E+03  1.70764E+03
  3.87678E+03  9.88221E+03 -6.96748E+03  7.16375E+03 -8.46014E+03  6.44023E+02 -5.73888E+03 -9.21792E+03
 -8.35065E+03 -1.52270E+04  2.55603E+03 -1.22702E+04  1.60254E+04 -6.67277E+03  7.60031E+03 -3.22558E+03
  4.67313E+01  9.69016E+03 -3.81075E+03  8.89475E+03 -1.17818E+04  3.69207E+03 -1.15621E+04  1.31930E+03
 -1.02368E+04 -9.05893E+03 -1.29209E+03 -1.60514E+04  7.93732E+03  3.32750E+02  6.99134E+03 -2.49883E+03
 -3.16620E+02  1.05767E+03 -4.44235E+03  2.60852E+03 -2.77955E+03 -8.84646E+03  3.42447E+03 -2.04105E+03
  1.23125E+04 -7.65649E+03  1.24304E+04 -9.09539E+02  1.17279E+04  8.56513E+03  1.12859E+04  1.91123E+04
  6.36036E+02  1.84774E+04 -1.70621E+04  1.61241E+03 -1.42451E+04  2.73009E+03 -1.85839E+04 -6.68782E+03
 -3.17364E+03 -1.20535E+04  5.90439E+02 -1.17641E+04  3.63386E+03 -7.47425E+03  4.54053E+03 -4.00988E+03
  5.86480E+03 -6.91166E+03  7.64428E+03 -1.22349E+03  4.69947E+03 -1.69361E+03  4.63989E+03 -2.71851E+03
  5.97190E+03 -1.09884E+03  5.71742E+03  1.24100E+04  9.51977E+02  7.41860E+03 -1.30324E+04  4.22250E+03
 -1.05815E+04 -5.86089E+03 -1.19029E+04 -8.73834E+03 -4.74632E+03 -1.66884E+04  6.03921E+03 -1.39707E+04
  1.41978E+04 -6.76518E+03  1.90598E+04  4.62646E+02  1.35401E+04  1.10293E+04  2.96432E+03  1.76307E+04
 -4.98611E+03  1.03627E+04 -3.02028E+03  6.24234E+03 -8.76077E+03 -7.34433E+03 -6.92506E+03 -1.39531E+03
  5.34680E+03  5.38950E+03 -7.87004E+02  2.27843E+03 -5.24668E+03  2.98131E+03 -7.55846E+03 -1.24737E+03
 -7.77994E+03 -9.14327E+03  8.86286E+02 -1.52850E+04  1.23278E+04 -9.81214E+03  1.04754E+04 -2.87706E+03
  8.80243E+03  6.21165E+03  4.61579E+03  3.43398E+03 -3.09485E+02  9.94452E+03 -3.53434E+03  8.51796E+03
 -2.60681E+03  1.31197E+03 -7.55054E+03 -9.80850E+03  6.60751E+02 -9.98042E+03  2.99753E+03 -4.69196E+03
  1.05723E+04 -3.18467E+03  3.98984E+03  1.02709E+03 -2.57296E+03  5.58220E+03 -3.68665E+02  3.28987E+02
  1.10404E+03  8.59848E+02  3.23043E+03  1.52816E+03  5.36360E+03  1.15804E+03 -1.37183E+03  6.07945E+03
 -4.23322E+03  8.96556E+03 -1.23104E+04  7.34997E+03 -7.46851E+03  4.41982E+03 -1.06330E+04 -4.08402E+03
  1.49976E+03 -1.26477E+04 -1.63642E+03 -1.37030E+04  1.23667E+04 -6.25562E+03 -5.32573E+02 -5.99486E+03
  4.40427E+03  3.87519E+03 -2.68953E+03  6.85193E+03 -2.09956E+03  1.60726E+03 -2.54405E+02  8.00484E+02
  3.03237E+02 -7.84961E+03 -1.14525E+01 -2.42663E+03  4.50738E+03 -3.10464E+03  6.87670E+03  3.97506E+03
  5.35684E+03 -5.12343E+03  3.23708E+03  7.73150E+03 -2.62008E+03  3.17315E+03 -2.35504E+03 -3.09529E+03
 -4.41227E+02  3.34445E+02  9.05414E+03 -1.85229E+03  6.13204E+03  6.25739E+03 -1.65415E+03  1.08157E+04
 -1.31784E+04  2.77687E+03 -5.46254E+03  2.07095E+03 -1.03736E+04  9.28739E+02 -6.31459E+02 -5.73313E+03
  1.88543E+03 -1.74916E+03  2.56299E+03 -4.73319E+03  3.78858E+03  4.19510E+03  7.24503E+02  4.02407E+03
 -3.50276E+03 -8.56264E+02 -6.90894E+03 -4.99049E+03 -1.56604E+03 -4.09798E+03  4.32084E+03 -8.62161E+03
  6.71694E+03 -3.51327E+03  8.15363E+03  3.58326E+03  7.82328E+03  2.69983E+03  2.82345E+03  5.10614E+03
 -7.95157E+03 -2.62407E+03 -5.22566E+03 -4.14485E+03  3.00422E+03 -8.66881E+03  4.59184E+03 -8.97915E+02
  8.99312E+03 -1.39630E+02  9.86066E+03  4.11067E+03  1.83351E+03  6.24585E+03 -2.03584E+03  8.91513E+03
 -1.09537E+04  4.52817E+02 -4.68103E+03  4.41247E+01 -5.85907E+03 -5.40152E+03  4.70014E+03 -1.79323E+03
  1.00544E+04 -3.27550E+03  3.43581E+03 -5.15555E+03  1.54024E+03  8.41266E+02 -8.81939E+02  5.38036E+03
 -2.82939E+03  5.51019E+03  6.29960E+02 -6.61051E+03 -4.63512E+03 -1.56117E+03 -4.64754E+03 -3.34855E+02
 -6.56131E+02  3.29994E+02 -4.63334E+02  2.44564E+02 -7.95879E+03 -7.42089E+02 -1.10503E+04 -7.36422E+03
 -3.14986E+03 -1.41387E+04  2.76490E+03 -1.04364E+04  4.32379E+03 -7.86717E+03  8.41349E+03 -2.88297E+02
  1.02653E+04  1.65341E+03  1.21524E+03  5.80916E+03  2.07044E+03  6.28985E+03 -2.90784E+03  5.45122E+03
 -3.05796E+03  5.24031E+03 -6.73858E+03  8.88823E+02 -2.85231E+02  1.16617E+03  5.22248E+01  5.46506E+03
 -2.10399E+03  4.18358E+02 -1.14411E+03  4.07939E+03 -3.43232E+03 -2.35359E+03 -5.04398E+03 -3.05295E+03
 -1.01201E+03 -2.82772E+03  4.48842E+03  1.06542E+03  2.65059E+03  4.79852E+03  9.68460E+02  6.24662E+03
 -3.91713E+03  9.35732E+03 -3.97216E+03  1.03838E+03 -5.28845E+03  4.28201E+03 -7.33137E+03 -6.47557E+03
  8.05852E+02 -7.15844E+03  1.94026E+02 -9.29056E+03  7.30491E+03 -1.99706E+03  8.25329E+03 -9.39622E+02
  5.32277E+03 -1.80378E+02 -1.78159E+03  1.84914E+03 -3.04232E+03 -9.57958E+02 -1.85786E+03 -5.57816E+03
  5.13474E+03 -1.97010E+03  2.66594E+03  1.59629E+03  5.72548E+03  3.34976E+03  1.95158E+03 -2.87285E+03
  2.79046E+03  9.42605E+03 -1.29034E+03 -5.79043E+03 -6.80747E+03 -6.14231E+03 -2.01076E+03 -6.58190E+03
  2.13846E+03  5.62785E+02  6.54644E+03  2.56665E+03  2.65788E+03 -3.51155E+03  7.05295E+03  8.79422E+02
  1.63856E+03  3.34082E+03  8.16534E+02  1.29308E+03  6.52914E+02  4.05161E+03 -1.06909E+04 -4.02254E+03
 -6.02132E+02  5.04978E+03  7.10119E+02 -1.27791E+03 -6.91237E+03  2.23493E+03  1.08312E+03 -2.67582E+03
  2.51449E+03 -2.57157E+03 -5.88228E+03 -3.99552E+03  3.90984E+03 -2.31337E+03  8.66802E+02 -2.69252E+03
  3.68817E+02 -3.11488E+03  2.23090E+03  1.68799E+03  8.19495E+02  7.67851E+03 -5.09369E+03  1.03903E+04
