 $NMID ID='MM_0lb_SNR50_20hz_g60_55.RAW', FMTDAT='(8E13.5)'
 TRAMP=1., VOLUME=1. $END
  3.09240E+05  8.96501E+02  3.37967E+05  2.48670E+05  8.21080E+04  3.37362E+05 -1.34570E+05  2.50130E+05
 -1.92229E+05  8.44569E+04 -1.10203E+05 -3.26329E+04  6.58937E+02 -4.76517E+04  5.47224E+04 -3.72595E+03
  3.10522E+04  5.10934E+04 -1.69063E+04  7.28972E+04 -5.82113E+04  6.08965E+04 -8.32746E+04  3.23686E+04
 -8.02855E+04 -1.20809E+04 -5.85816E+04 -5.19885E+04 -1.54900E+04 -6.61040E+04  2.82300E+04 -4.76695E+04
  3.79882E+04  2.24428E+03  1.62806E+04  4.80758E+04 -3.09887E+04  5.19459E+04 -6.88370E+04 -1.04253E+02
 -4.92375E+04 -5.69859E+04 -4.49752E+03 -7.49705E+04  3.21426E+04 -5.34982E+04  4.37432E+04 -1.33497E+04
  4.27852E+04  1.45077E+04  3.18370E+04  2.66896E+04  1.85091E+04  2.85604E+04 -4.30178E+03  2.36774E+04
 -1.99405E+04  1.35547E+04 -1.60955E+04 -8.69531E+03  5.12129E+03 -1.14001E+04  1.73865E+04  7.95543E+03
  5.66244E+03  3.14771E+04 -3.07424E+04  3.58855E+04 -6.31161E+04  3.94886E+03 -5.50070E+04 -4.00002E+04
 -1.36167E+04 -6.16332E+04  3.71028E+04 -4.23226E+04  5.42927E+04 -3.03094E+03  3.16720E+04  3.26674E+04
 -3.13682E+03  3.15890E+04 -2.60050E+04  9.89796E+03 -3.07134E+04 -6.58905E+03 -1.16323E+04 -1.15836E+04
 -7.44564E+03 -1.01939E+04  1.72216E+03 -1.64647E+04  7.04401E+03 -1.92253E+04  1.36561E+04 -1.65283E+04
  1.73243E+04  8.08255E+03 -7.41766E+03  1.71965E+04 -1.90019E+04 -4.47479E+03 -9.85441E+03 -2.82451E+04
  1.91824E+04 -3.99362E+04  4.77996E+04 -1.57933E+04  4.65675E+04  2.00647E+04  1.51057E+04  4.26975E+04
 -2.01878E+04  3.17614E+04 -2.27366E+04  2.70932E+03 -4.42947E+03 -2.92833E+04  2.13380E+04 -3.18992E+04
  3.61083E+04 -6.31498E+03  3.55927E+04  1.94100E+04  1.86047E+04  3.99436E+04 -5.34796E+03  4.52284E+04
 -2.90572E+04  3.50146E+04 -3.71496E+04  1.09902E+04 -3.72836E+04 -1.64144E+04 -2.36839E+04 -3.33818E+04
  3.35274E+03 -3.10382E+04  3.00528E+04 -1.04944E+04  2.54011E+04  9.43047E+03  3.83991E+03  1.82380E+04
 -1.29937E+04  2.82447E+03 -4.80874E+03 -5.98763E+03  7.15117E+03 -8.58093E+03  1.96342E+04  3.08077E+03
  9.51364E+03  1.95255E+04 -5.90826E+03  1.96200E+04 -2.10891E+04  9.38061E+03 -2.54864E+04 -6.11346E+03
 -1.63371E+04 -1.60761E+04 -5.97977E+03 -1.87779E+04  3.80881E+03 -1.80358E+04  1.21714E+04 -1.48485E+04
  2.20676E+04 -1.10585E+04  3.20027E+04  6.65044E+03  2.32670E+04  1.99862E+04  4.47681E+02  2.87470E+04
 -1.27972E+04  2.84099E+04 -2.65940E+04  1.11520E+04 -1.99357E+04 -9.17519E+03 -2.56961E+03 -8.98751E+03
  1.86808E+03 -3.35575E+03 -2.40639E+03  4.60798E+03 -1.71102E+04  6.42137E+03 -1.39761E+04 -3.49420E+03
 -7.51655E+03 -2.00950E+04  3.21135E+03 -1.72515E+04  1.22886E+04 -1.20895E+04  1.14995E+04 -2.42521E+03
  8.47771E+03  7.13171E+03  2.37193E+03  1.57292E+04 -1.14546E+04  7.97254E+03 -1.42696E+04 -3.98286E+03
 -1.29611E+04 -1.54489E+04 -8.50836E+02 -1.61473E+04  9.09405E+03 -1.67102E+04  1.71841E+04 -7.21175E+03
  1.27267E+04  2.16980E+03  1.20608E+04  5.78932E+02  4.57630E+03  2.62020E+02  1.00698E+04 -3.52481E+03
  1.47986E+04  6.23784E+03  1.03471E+04  1.18330E+04  1.03232E+04  3.05633E+04 -3.25602E+03  2.45311E+04
 -1.67697E+04  2.19201E+04 -2.43949E+04  9.94272E+03 -2.34085E+04 -3.38100E+03 -2.47045E+04 -1.18400E+04
 -1.21697E+04 -1.97427E+04  6.03393E+03 -1.74826E+04  1.43215E+04 -1.56213E+04  1.25126E+04  3.45326E+03
  7.11296E+03  1.06302E+04 -8.12841E+03  1.05755E+04 -1.32125E+04  2.38369E+03 -1.13202E+04 -6.88715E+03
  1.22908E+03 -1.09891E+04  4.08710E+03 -9.23484E+03  9.94467E+03 -1.43795E+03  1.42614E+03  6.36865E+03
 -7.08072E+03 -2.68020E+03 -8.28417E+03 -7.36646E+03  1.17069E+03 -1.30298E+04  4.59895E+03 -9.20723E+03
  8.38952E+03 -4.69773E+03  1.44018E+04  3.32677E+03  9.80869E+03  8.96121E+03  2.05450E+03  1.70287E+04
 -3.82659E+03  1.31389E+04 -1.15989E+04  9.10306E+03 -1.05771E+04  1.07853E+03 -7.54297E+03 -1.63051E+03
 -4.74596E+03  1.41164E+03 -4.45007E+02  3.42262E+03  1.70060E+03  2.34275E+03 -2.80672E+03  4.47860E+03
 -6.37682E+03  2.69046E+03 -5.52482E+03 -7.13020E+03 -1.37928E+03 -1.08688E+04  7.97013E+03 -9.63084E+03
  4.66586E+03 -5.15800E+03  4.84394E+03 -1.71565E+03 -1.01186E+02 -3.21889E+03  4.98497E+02 -1.67784E+03
 -3.41380E+03 -6.90447E+03  2.02596E+03 -4.28415E+03  4.63693E+03 -7.55253E+03  9.40963E+03 -2.99760E+03
  1.06859E+04 -9.65799E+02  9.43071E+03  1.06201E+04 -2.97972E+02  6.15789E+03 -2.45235E+03  1.12687E+04
 -5.49579E+03  8.56757E+02 -6.48355E+03  3.00182E+02  1.90446E+03 -1.58579E+03  7.82329E+03 -1.15335E+03
  1.25310E+03  1.68727E+02  2.53191E+03  8.07908E+03 -2.89893E+03  5.67471E+03 -5.13406E+03  4.89751E+03
 -8.00143E+03 -3.61305E+03  2.58315E+03 -5.83287E+03  4.38800E+03 -4.86831E+03  5.07095E+03  5.58742E+03
  3.20669E+03  1.55115E+03 -8.26848E+02  2.44810E+03 -4.75900E+03  4.64515E+03 -5.03533E+03 -4.33271E+02
 -1.59524E+03 -2.15857E+03  5.01220E+02 -1.20701E+04  2.54935E+03 -3.33121E+03  8.11943E+03 -2.01015E+03
 -2.87129E+02  4.55956E+03  7.06592E+02  6.08204E+03 -2.09962E+03  4.75878E+03 -3.54089E+03  1.74067E+03
 -5.70703E+03 -6.49162E+03 -5.40372E+03 -7.18424E+03  1.00005E+03 -3.81163E+03  7.02810E+02 -4.38854E+03
 -1.37779E+03  9.04144E+02 -2.12852E+03  4.14468E+03  3.44064E+03 -1.08849E+02 -2.46178E+03 -1.61984E+03
  2.78892E+03 -2.05608E+03  7.63096E+03  1.08758E+03  4.13554E+03  3.01185E+03  6.78815E+03  8.23101E+03
 -1.95790E+03  9.56981E+03 -6.53439E+03  4.94286E+03 -1.22300E+04  1.89036E+03 -6.15959E+03 -5.22496E+03
 -4.89980E+03 -2.86365E+03  1.42639E+03 -2.97516E+03  4.64497E+01 -1.34877E+03 -1.23286E+03 -2.62437E+03
 -6.25706E+03  1.59620E+02  1.30308E+03  4.46660E+02  3.79684E+03  1.65453E+03  2.26558E+03 -1.03821E+03
  3.79729E+03 -1.00177E+03 -4.51181E+01 -1.19970E+03  2.57233E+03  3.64269E+03 -2.77837E+03  1.30720E+03
 -1.61352E+03 -1.70707E+03 -2.89636E+02 -5.89123E+03  1.36242E+03 -5.17289E+03  3.18051E+03 -3.39904E+03
  9.35002E+03 -2.91869E+03  3.78992E+03  9.56444E+02  4.27367E+03  3.65952E+03 -3.03811E+03  8.49147E+03
 -7.22261E+03  5.03335E+03  8.06742E+02  3.37970E+03 -1.65594E+03 -2.34119E+02  4.07806E+02  4.36618E+02
 -3.12766E+03  1.28787E+03 -2.58147E+03  2.60009E+03 -6.68345E+03  8.71597E+02 -8.22528E+03  6.22190E+03
  9.44999E+02 -5.18109E+03  3.83402E+03 -7.38204E+03  1.34486E+03 -2.14974E+03  1.96821E+03 -3.38520E+03
  4.86061E+03  4.16442E+03  3.26699E+03  1.37986E+03 -2.27236E+03  3.83446E+03 -4.24842E+03  4.23264E+03
  7.11796E+02  5.41919E+03 -7.07547E+03 -1.43384E+03  7.33818E+02  1.97820E+03 -9.32891E+02  3.11551E+02
  5.18210E+03 -2.27906E+03  4.88007E+03 -4.01773E+03 -2.29561E+03 -1.54505E+03 -4.77700E+02  3.08380E+03
  4.96941E+02 -5.53257E+02 -4.51142E+03 -5.51454E+02  1.67769E+03 -3.70585E+02 -5.42923E+02  1.24119E+03
 -2.93738E+03  1.20203E+03 -2.15343E+03  4.69453E+03 -2.49519E+03 -1.15281E+03 -2.46914E+03  3.73632E+03
  2.83029E+03 -1.81250E+03 -2.92955E+03 -7.93839E+02 -8.88494E+01 -3.20088E+03  1.76002E+03 -1.43797E+03
  2.51758E+03  1.49124E+03  3.84190E+03 -4.90358E+02 -2.96280E+03  3.81821E+03  4.65833E+03 -2.49049E+03
 -5.27071E+03  1.68700E+03  7.98923E+02 -4.63850E+03  3.16824E+02 -2.43998E+03 -3.15174E+03  1.23607E+03
 -1.88838E+03  2.65949E+03 -9.22897E+02  1.65202E+03  3.08512E+03  8.91521E+02 -6.86003E+02  1.20440E+03
  2.49252E+03 -1.87832E+03  3.02526E+03  4.45239E+03 -1.97296E+03  4.90417E+03 -1.74801E+03  2.78538E+03
 -8.70164E+02 -5.86228E+03  5.57818E+02  2.09485E+03 -4.51535E+03 -3.36410E+03  1.83446E+03  6.03223E+02
  3.19928E+03  1.91562E+02  3.41811E+03 -3.50911E+03  1.02967E+03  4.07683E+03 -4.44980E+03 -1.36143E+03
 -8.29856E+02 -2.33421E+03  9.85647E+02 -7.50971E+03 -4.00475E+03  6.43391E+02  5.76981E+03 -1.33796E+01
 -4.07019E+02 -1.53294E+03 -2.42715E+03 -8.97763E+01 -1.52896E+03 -3.45118E+03  9.37481E+02  9.85095E+02
  5.44009E+02 -2.00860E+03  8.25752E+02  1.79732E+02 -2.09369E+03 -1.93347E+02  2.76382E+03 -3.18160E+03
  4.30794E+03 -1.67946E+03  4.09297E+03 -4.48100E+02 -1.85643E+03  1.13605E+03 -4.99907E+03  3.41325E+03
 -5.54231E+02  2.97017E+03 -2.85788E+03 -5.08382E+03  7.12532E+03 -5.05868E+02  1.12915E+01 -3.62564E+03
  1.10236E+02 -3.42259E+03 -4.45175E+03  3.58175E+03 -1.08038E+02 -2.62791E+02  2.00862E+03 -4.11503E+02
  1.89219E+03  2.65066E+03  6.26058E+02  6.10789E+03 -2.34769E+03  2.37511E+03 -1.68319E+03  2.14890E+03
  1.72920E+02  3.36418E+03 -5.29806E+02 -4.47789E+02 -4.10113E+03 -1.90596E+02 -2.11422E+03 -3.55858E+02
 -2.33401E+03 -1.99012E+03  4.80968E+02  1.42151E+03  2.75620E+03 -3.21893E+02  2.40665E+03 -3.19824E+03
 -1.80303E+03 -2.81003E+02  3.19887E+03 -4.33235E+03 -1.95549E+03 -5.11461E+02 -3.63424E+03  3.54811E+03
 -1.50334E+03  2.42526E+00  4.71422E+02  3.41899E+02  1.36877E+03  1.17530E+03 -1.30117E+03 -1.98754E+03
 -1.60245E+03  1.49692E+03 -3.75946E+03  2.67367E+03  1.23415E+02  1.13768E+03 -7.58945E+02 -2.96093E+03
 -2.44223E+02  4.46780E+02  6.62240E+02  4.50850E+03  1.54470E+03  7.44892E+02 -1.39066E+03 -2.27627E+03
 -3.87979E+01  2.36890E+03  5.61283E+02  1.64560E+03 -6.95144E+03 -4.65613E+03 -8.63106E+01 -4.90059E+03
 -2.63588E+03 -3.29894E+03 -4.94095E+02 -2.64801E+03 -2.98540E+03 -1.23257E+03  5.90794E+02 -1.47135E+03
 -1.27452E+03 -1.26356E+03  1.14483E+01 -1.62727E+03  4.19684E+02  2.53230E+03 -5.86846E+02  2.10042E+03
 -3.08857E+03 -5.24369E+03  1.13782E+03  3.23234E+03 -4.72968E+02  5.01004E+03 -1.51641E+02  8.07535E+02
 -2.06538E+03  1.45106E+03  2.93033E+03  2.11406E+03  1.92163E+03  6.96269E+02  2.02125E+03 -2.21792E+02
 -3.47945E+03 -1.18718E+03 -1.24969E+02  4.11552E+03  3.13967E+03  1.78621E+03  1.13381E+03 -1.65910E+03
  3.87875E+03  1.44877E+03  1.19122E+03 -3.63962E+03 -5.13873E+02  2.00659E+03  5.93933E+02 -7.19819E+02
 -1.30659E+03 -2.85001E+02  3.61307E+03 -2.09284E+03 -6.11676E+02 -3.09714E+02 -1.93264E+03 -3.24721E+03
 -5.39274E+03 -4.04303E+02 -2.62071E+02  7.83555E+02  7.79099E+02 -3.70264E+03 -4.75408E+03  4.40992E+02
 -1.18538E+03  3.49134E+03 -1.77613E+03 -1.13172E+03  4.90835E+03  8.39095E+02  2.09379E+03  4.13390E+03
