 $NMID ID='MM_0lb_SNR50_16hz_g40_10.RAW', FMTDAT='(8E13.5)'
 TRAMP=1., VOLUME=1. $END
  3.04825E+05  3.71602E+03  3.40102E+05  2.52217E+05  8.56128E+04  3.36609E+05 -1.32398E+05  2.51578E+05
 -1.89565E+05  8.19980E+04 -1.13247E+05 -3.17661E+04  7.45299E+03 -5.22146E+04  5.38480E+04  3.66804E+03
  3.27392E+04  5.44046E+04 -1.75200E+04  7.17234E+04 -5.73241E+04  5.97659E+04 -8.64978E+04  3.06224E+04
 -8.04371E+04 -1.36663E+04 -5.86030E+04 -5.31625E+04 -1.39962E+04 -6.60017E+04  2.77068E+04 -4.56505E+04
  3.78638E+04 -1.30475E+03  1.29194E+04  4.73064E+04 -3.46794E+04  4.74998E+04 -6.56060E+04 -5.15676E+03
 -5.46724E+04 -5.58932E+04 -6.17660E+03 -7.26602E+04  3.50884E+04 -5.06272E+04  4.75015E+04 -1.30586E+04
  4.34815E+04  8.78395E+03  3.18767E+04  2.65504E+04  1.50155E+04  2.86181E+04 -5.20753E+03  2.62840E+04
 -2.20058E+04  1.39159E+04 -1.88229E+04 -6.90010E+03  4.46494E+03 -8.66763E+03  2.10539E+04  9.90293E+03
  5.88912E+03  2.91356E+04 -3.29973E+04  3.13020E+04 -6.42513E+04  2.10868E+03 -5.84459E+04 -4.14136E+04
 -1.26173E+04 -6.26351E+04  3.65117E+04 -4.48096E+04  5.24629E+04 -1.63460E+03  2.85971E+04  3.37507E+04
 -7.39907E+03  3.40798E+04 -2.62270E+04  9.58419E+03 -3.01281E+04 -3.25107E+03 -1.90105E+04 -9.11829E+03
 -5.67837E+03 -1.33900E+04  8.12941E+02 -1.74290E+04  8.62302E+03 -2.55720E+04  1.57916E+04 -1.32035E+04
  9.68291E+03  3.32076E+03 -1.06044E+04  1.40180E+04 -2.10974E+04 -3.90212E+03 -5.07506E+03 -2.67885E+04
  2.40448E+04 -4.01138E+04  4.26852E+04 -1.44114E+04  4.44632E+04  1.97038E+04  1.46297E+04  4.39191E+04
 -1.49280E+04  3.64663E+04 -2.50388E+04 -2.10612E+03 -9.01061E+03 -2.85212E+04  2.01051E+04 -3.02750E+04
  3.71172E+04 -8.23871E+03  3.11096E+04  2.15155E+04  2.23673E+04  4.07122E+04 -8.84110E+03  4.77468E+04
 -3.18934E+04  3.29296E+04 -4.61770E+04  2.38674E+03 -3.62429E+04 -1.53181E+04 -2.19477E+04 -3.50819E+04
  5.96823E+03 -3.57751E+04  2.82037E+04 -9.62642E+03  2.45006E+04  1.33940E+04  2.42591E+03  1.74773E+04
 -7.34712E+03  8.52650E+03 -1.08841E+04 -1.05860E+04  4.66582E+03 -1.10050E+04  2.00435E+04  5.26480E+03
  1.08198E+04  2.08748E+04 -4.23965E+03  2.10822E+04 -2.29175E+04  1.52053E+04 -2.90273E+04 -8.35415E+03
 -1.80436E+04 -1.78098E+04 -6.11156E+03 -1.70264E+04  8.51178E+02 -1.77414E+04  9.25203E+03 -1.44968E+04
  2.40149E+04 -7.79323E+03  2.89547E+04  2.08843E+01  2.17269E+04  1.34120E+04  1.51951E+03  3.50520E+04
 -1.58436E+04  2.66277E+04 -2.63795E+04  1.08415E+04 -2.02839E+04 -1.01722E+04 -1.21317E+03 -1.16114E+04
  3.65746E+03  1.98032E+03 -2.74926E+03  9.99260E+03 -1.79373E+04  7.96517E+03 -1.30401E+04 -1.02525E+04
 -7.68049E+03 -1.65174E+04  3.48743E+03 -2.55887E+04  1.51782E+04 -1.12479E+04  1.68220E+04  5.44694E+02
  1.09838E+04  1.43788E+04 -4.23537E+03  1.17069E+04 -1.18270E+04  7.07272E+03 -1.23602E+04 -4.79444E+03
 -1.86685E+04 -1.31134E+04 -1.61266E+03 -2.34539E+04  1.34147E+04 -1.69003E+04  1.79965E+04 -1.23313E+04
  1.46511E+04 -1.59087E+03  3.97674E+03  4.76625E+03  1.40478E+04  4.43089E+03  7.73573E+03 -9.58368E+02
  1.61028E+04  7.11219E+03  1.35591E+04  1.67213E+04  1.04086E+04  3.11486E+04 -9.92900E+02  3.13898E+04
 -2.10963E+04  2.13386E+04 -2.66959E+04  1.17008E+04 -2.61123E+04 -6.23109E+03 -2.54577E+04 -1.62884E+04
 -1.34812E+04 -2.59415E+04  6.14517E+03 -2.01142E+04  1.95490E+04 -1.05888E+04  1.48073E+04  6.02618E+03
  1.09506E+04  8.69781E+03 -9.04870E+03  9.81102E+03 -1.30138E+04  4.30647E+03 -1.44812E+04 -8.26745E+03
 -1.39667E+03 -1.23836E+04  6.65213E+02 -1.15128E+04  7.51593E+03  4.11367E+03  2.82870E+03  4.65511E+03
 -4.95049E+03  2.45562E+03 -4.05419E+02 -2.56794E+03  1.47182E+03 -1.42521E+04  9.44783E+03 -1.14412E+04
  1.42612E+04 -6.22563E+03  1.53338E+04  2.90680E+03  9.18607E+03  1.42263E+04  1.19819E+04  1.35357E+04
 -3.43637E+03  1.81655E+04 -9.72861E+03  9.72033E+03 -1.26101E+04  5.08883E+03 -1.30415E+04 -5.27975E+03
 -4.33540E+03 -2.78605E+03  1.72892E+03  2.37102E+03 -2.62815E+03  5.57268E+03 -9.42327E+03  3.20924E+03
 -1.09378E+04  9.88089E+02 -9.76602E+03 -9.42865E+03 -2.67769E+03 -1.18347E+04  6.82778E+03 -1.05203E+04
  7.46020E+03 -1.63690E+03  2.91204E+03  5.24650E+03  6.28068E+02  5.92122E+03  1.76540E+03  2.25369E+03
 -4.33144E+03 -9.87769E+03  5.94695E+02 -7.25359E+03  4.97137E+03 -1.11518E+04  1.26941E+04 -4.62040E+03
  8.96779E+03  2.15967E+03  1.11936E+04  7.43843E+03  3.13463E+03  1.11208E+04 -9.82891E+03  7.65213E+03
 -8.13180E+03  3.64965E+03 -2.31770E+02 -2.86461E+03  3.99328E+03 -4.84737E+03  4.75020E+03 -2.20417E+03
  6.39462E+03  4.63838E+03  1.05360E+03  8.71155E+03 -5.65326E+03  4.52276E+03 -8.08556E+03  4.56792E+03
 -7.52856E+03 -6.53714E+03  1.03995E+03 -7.88986E+03  2.92662E+03 -3.65472E+03  2.49228E+03  2.40787E+03
  4.87804E+02  4.37153E+03 -6.33249E+03  3.27974E+03 -3.07046E+03  2.95382E+03 -2.39805E+03 -1.60718E+03
  2.01699E+03 -4.64814E+03  2.16286E+03 -6.61775E+03  7.03233E+03 -6.50281E+03  1.21490E+04  7.05361E+02
  2.08290E+03  1.16323E+04  3.10431E+03  1.12049E+04 -9.09764E+03  5.60540E+03 -3.75330E+03 -1.20669E+03
 -9.20991E+03 -3.63089E+03 -2.35262E+03 -5.73110E+03 -8.03671E+02 -4.48433E+03  6.94477E+03 -5.46170E+03
  3.97854E+03  5.68529E+02 -1.34875E+03  3.22307E+03  2.23576E+03 -7.99148E+02  6.08967E+03  2.29247E+03
 -7.93453E+02  1.59150E+03  3.87266E+03 -7.25949E+02  9.80670E+03 -8.83348E+02  2.55192E+03  7.93423E+03
 -2.77005E+02  1.04864E+04 -5.29733E+03  1.07025E+04 -9.55786E+03  1.96832E+02 -1.39564E+04 -3.49528E+03
 -9.01399E+03 -5.68568E+03  2.28984E+03 -3.21621E+03  3.14468E+03 -2.17114E+03  6.52615E+02 -5.70566E+03
  6.24051E+03 -5.54329E+03  3.21767E+01 -3.85385E+03  3.00961E+03 -4.72483E+03  4.47348E+03  7.01596E+03
  6.80117E+03  1.42057E+03  3.30087E+03  1.63863E+03  1.48060E+03  5.58607E+03 -5.01971E+03  4.69769E+03
 -4.44849E+02 -5.00520E+03 -2.57372E+03 -1.08560E+04 -2.89765E+03 -6.06807E+03  8.46080E+03 -7.99995E+03
  8.55646E+03 -2.83746E+03  1.05415E+04 -4.42058E+02  5.66353E+03  8.55592E+03 -4.43085E+02  9.02384E+03
 -2.31542E+03  1.19009E+04 -7.45493E+03  1.56322E+03  1.36433E+03 -9.49549E+02 -2.77089E+03 -2.11196E+02
  4.84138E+03  7.21803E+03  1.78619E+03  2.28108E+03 -9.25141E+02 -2.16304E+03 -9.78732E+03 -1.81732E+03
 -5.05679E+03 -1.61611E+03  2.87250E+03 -6.69647E+03  7.63734E+02 -6.34469E+03  3.16109E+02 -3.97472E+02
  2.58024E+03  3.43357E+03  4.98019E+03  5.22970E+03 -3.96978E+03  9.42574E+03 -4.89684E+03  2.06200E+03
 -6.07329E+03  3.15249E+03 -3.67977E+03 -3.62886E+03  4.39851E+03 -4.62080E+03 -7.37705E+03 -6.29197E+02
  2.79717E+03 -9.69060E+01 -2.25925E+03 -3.04164E+02  3.40294E+03 -9.47398E+02 -1.36833E+03  2.74215E+03
  2.37125E+03  2.05793E+03  1.18433E+03  2.88031E+03 -1.93291E+03 -4.51174E+02  1.21581E+03  3.42435E+03
 -2.75841E+03  3.53476E+03 -6.46381E+03  4.55313E+03 -2.14258E+03 -5.34569E+02 -7.09298E+03 -4.42664E+03
 -3.08061E+03 -4.51466E+03 -1.96545E+03 -2.59138E+03  2.77993E+03 -2.73386E+03  1.37886E+03  1.61099E+03
  2.19267E+03  1.72678E+03 -1.37862E+01  4.86840E+03  1.12451E+03  1.14975E+03 -2.99234E+03  7.81570E+02
 -6.37531E+03 -2.31301E+03  5.76748E+03  2.09552E+03  4.18054E+03 -4.66172E+03  1.38682E+03  1.00603E+03
  3.11089E+03  2.18534E+03 -1.66517E+03  1.10684E+03 -4.35751E+03  1.01132E+03 -1.84415E+03  5.95720E+01
 -2.63727E+02 -6.92908E+02  1.82159E+03  2.07470E+03 -2.04101E+03  3.72823E+02 -1.56634E+03  4.91747E+03
 -6.14414E+03  8.50581E+01 -3.07141E+03 -2.30333E+03 -4.51021E+03 -3.86056E+03 -8.27893E+02  6.34082E+02
 -3.62348E+03 -3.30930E+02 -4.49391E+01  1.56758E+03 -2.23285E+03  3.44706E+03  2.32727E+03  7.73471E+02
 -2.58087E+03  3.93476E+03 -1.59790E+03 -1.55161E+03 -3.18502E+03 -4.73715E+03  1.25257E+03 -2.24678E+03
  2.22172E+02  2.46100E+01  1.99072E+03 -2.62471E+03  2.39431E+03 -1.25746E+03 -4.85586E+03  5.96233E+03
  3.90618E+02 -2.14452E+03  1.76130E+03 -2.75873E+02 -9.49937E+02 -1.64416E+03  6.28900E+03 -4.42156E+02
  2.29355E+03 -1.69684E+03  4.25605E+03  3.61179E+03  3.15327E+03  4.24152E+03  2.29454E+03  3.19900E+03
 -4.37354E+03 -2.45693E+02 -3.28503E+03 -4.02767E+03 -6.39609E+02 -4.31583E+03  3.03600E+03 -3.30979E+03
  4.22866E+03 -4.86808E+02  6.57291E+03  4.14527E+03  1.14269E+03  1.95004E+03  3.93439E+03  3.43627E+03
 -1.49411E+03 -1.84808E+02  3.29661E+03  3.82524E+03  2.15925E+02  1.18608E+02 -1.40639E+03 -1.60789E+02
  6.20440E+02 -1.26188E+03 -3.83130E+03  1.03270E+03 -5.25682E+03 -3.51413E+03 -2.77331E+03 -3.12650E+03
 -3.06659E+03 -2.50741E+03 -1.40897E+03 -5.99099E+03 -1.60853E+03 -7.80210E+03  4.01086E+02  2.32713E+03
  2.47744E+03 -1.61825E+03  1.69048E+02  3.56058E+03  1.71221E+03  2.77416E+02 -3.84888E+02 -1.92472E+02
 -8.89344E+03  4.56474E+02 -1.21546E+03 -1.98509E+03 -5.83558E+03 -3.80239E+03 -1.43287E+03  3.03478E+03
  4.14749E+03 -3.55109E+03  1.17787E+02 -6.47131E+03  2.64342E+03 -2.86508E+03  1.81030E+03 -5.45915E+03
  2.31602E+02  4.36571E+03 -5.58093E+01 -4.07249E+03  3.36566E+03 -5.19767E+02  2.96751E+03  3.40334E+03
 -3.41328E+02  5.24287E+03 -6.91346E+03  2.74314E+03 -2.26558E+03 -4.02944E+02 -4.78890E+03 -3.08505E+03
 -5.04723E+02 -5.43579E+03  4.05567E+02 -3.72190E+02 -2.04854E+03 -4.60006E+02 -3.28588E+02 -1.78709E+03
 -6.42247E+02 -1.01087E+02 -5.66103E+02  1.90099E+03 -4.37533E+03  3.32717E+02 -2.24955E+03 -3.23560E+03
  1.50064E+03 -2.82685E+03 -2.85163E+03  5.28671E+02  6.01840E+03  1.19597E+03 -1.88545E+03  2.16288E+03
 -1.56593E+03  5.26519E+03  4.51898E+01  1.45542E+03 -1.92838E+03 -2.57144E+03 -1.88665E+03 -2.55534E+03
  3.80333E+03  2.99341E+02 -3.84876E+03 -1.45375E+03  3.22839E+03 -2.34648E+03 -5.00091E+03  2.36439E+03
 -3.74040E+03 -4.91958E+02  3.25726E+03 -2.09886E+03  4.08400E+03  4.21410E+03  6.45569E+02  3.40868E+03
 -2.36888E+03  3.77356E+03  3.87418E+02 -7.97655E+02  1.43293E+03  2.54499E+03 -2.24625E+03  4.35652E+01
  2.68313E+03  1.42922E+03 -5.89873E+02 -7.98566E+02  2.41878E+03 -7.58559E+03  2.21677E+03 -5.32257E+03
 -5.36194E+02  1.53427E+03  2.67426E+02  2.70093E+03 -2.36682E+02 -7.89684E+02  3.14306E+01  5.53666E+03
