 $NMID ID='MM_0lb_SNR50_11hz_g40_62.RAW', FMTDAT='(8E13.5)'
 TRAMP=1., VOLUME=1. $END
  3.07694E+05  8.15100E+03  3.34350E+05  2.49870E+05  7.85282E+04  3.36969E+05 -1.30712E+05  2.46709E+05
 -1.94492E+05  8.28782E+04 -1.14169E+05 -3.71220E+04 -4.62234E+03 -5.00002E+04  4.96533E+04 -3.56285E+03
  3.27455E+04  4.87630E+04 -1.79293E+04  7.62042E+04 -6.39270E+04  6.25392E+04 -8.18207E+04  3.11537E+04
 -8.17687E+04 -1.14117E+04 -5.88051E+04 -5.16370E+04 -1.10968E+04 -6.90026E+04  2.65353E+04 -4.30981E+04
  3.74872E+04  6.77460E+03  1.63107E+04  4.56860E+04 -3.41787E+04  4.69983E+04 -6.75217E+04 -3.86574E+03
 -5.36062E+04 -5.44798E+04 -9.12764E+03 -7.64807E+04  3.49618E+04 -5.66743E+04  4.79879E+04 -1.92774E+04
  4.68157E+04  1.48169E+04  3.11162E+04  2.42361E+04  1.25450E+04  2.34107E+04 -2.53493E+03  3.38262E+04
 -1.87501E+04  1.13865E+04 -1.83564E+04 -3.06441E+03  6.79420E+03 -8.04658E+03  3.06585E+04  1.36043E+04
  6.02913E+03  4.04537E+04 -3.61626E+04  3.30367E+04 -6.39848E+04  1.91732E+03 -5.77271E+04 -4.26608E+04
 -1.41377E+04 -6.79940E+04  3.94032E+04 -5.14225E+04  5.66609E+04  7.94609E+02  3.62401E+04  3.10465E+04
 -1.61295E+03  4.24609E+04 -3.07632E+04  1.44374E+04 -3.11476E+04 -2.84691E+01 -2.02943E+04 -1.50736E+04
 -8.12995E+03 -1.25165E+04 -3.92162E+03 -2.27980E+04  5.11539E+03 -2.64488E+04  1.24821E+04 -1.01436E+04
  1.33425E+04  6.58391E+02 -7.56790E+03  9.83082E+03 -2.31300E+04 -6.23355E+03 -1.29822E+04 -3.94699E+04
  2.92068E+04 -4.49728E+04  4.80162E+04 -2.11766E+04  5.00419E+04  1.90286E+04  1.83816E+04  4.01387E+04
 -1.47134E+04  3.77283E+04 -2.26924E+04  5.45461E+03 -1.62410E+04 -2.70614E+04  1.94807E+04 -3.09960E+04
  5.00776E+04 -5.33305E+03  4.01984E+04  2.41814E+04  1.52299E+04  5.00087E+04 -1.68928E+03  5.33876E+04
 -3.85755E+04  3.27032E+04 -4.25597E+04  1.53409E+04 -5.12574E+04 -1.85399E+04 -2.10560E+04 -3.77821E+04
  7.12298E+03 -3.92510E+04  2.99624E+04 -1.30365E+04  2.20393E+04  1.19159E+04 -2.70128E+03  2.66807E+04
 -1.32887E+04  1.02461E+04 -1.45262E+04 -6.99813E+03  5.20035E+03 -1.57864E+04  1.63833E+04  5.65753E+03
  1.44153E+04  2.15991E+04 -1.60550E+03  2.42842E+04 -2.45465E+04  1.14598E+04 -3.25945E+04 -5.37983E+03
 -2.08231E+04 -1.76298E+04 -1.29026E+04 -3.04286E+04  6.76779E+03 -1.99053E+04  1.91124E+04 -2.42704E+04
  3.00424E+04 -1.74927E+04  3.04727E+04  2.64356E+03  2.32624E+04  1.99495E+04 -1.65986E+02  4.68140E+04
 -1.50899E+04  2.91033E+04 -3.18813E+04  1.32689E+04 -2.18925E+04 -1.68089E+04  2.73156E+03 -9.74698E+03
  7.55766E+03 -4.82110E+03 -3.76518E+03  7.96953E+03 -2.22995E+04  7.41896E+03 -1.96006E+04 -9.13177E+03
 -5.98748E+03 -1.62937E+04  4.44515E+02 -2.65880E+04  1.79960E+04 -1.67435E+04  2.04976E+04 -2.90639E+03
  1.14603E+04  1.23676E+04 -8.92660E+02  1.93261E+04 -1.08091E+04  8.94650E+03 -1.97431E+04 -6.69431E+03
 -1.18339E+04 -1.74676E+04 -3.59645E+03 -2.44599E+04  5.89549E+03 -2.32635E+04  1.78567E+04 -1.37892E+04
  2.37624E+04  2.93268E+03  1.44213E+04  3.17493E+03  8.03399E+03  2.38680E+03  6.89332E+03  4.85721E+03
  2.20177E+04 -3.67831E+02  2.01278E+04  1.65351E+04  1.42776E+04  3.02649E+04 -6.12797E+02  4.00725E+04
 -1.85146E+04  3.52436E+04 -3.59488E+04  1.66839E+04 -3.94816E+04 -5.80348E+03 -3.59945E+04 -2.62834E+04
 -1.22676E+04 -3.57245E+04  5.31914E+03 -2.29720E+04  2.66409E+04 -1.39149E+04  2.91153E+04  9.82192E+03
  8.06916E+03  1.52782E+04 -7.19726E+03  1.49444E+04 -1.91703E+04  1.48135E+03 -7.99771E+03 -8.01222E+03
  7.31887E+02 -1.65533E+04  1.47172E+04 -1.19005E+04  1.52492E+04 -3.28375E+03 -4.34302E+03  7.67496E+03
 -9.99581E+03  2.40572E+02 -1.22874E+04 -6.08279E+03  9.85359E+02 -1.24970E+04  1.14130E+04 -1.35874E+04
  1.57477E+04 -6.49844E+03  1.97215E+04  1.04293E+04  1.74528E+04  1.40379E+04  9.19226E+03  1.75423E+04
 -3.09895E+03  2.43495E+04 -1.37010E+04  1.30078E+04 -2.02264E+04  4.92257E+03 -1.27211E+04 -8.34083E+03
 -4.63823E+03 -8.22889E+03  4.25078E+03  3.29761E+03  5.12700E+01  3.72827E+03 -7.45869E+03  5.64214E+03
 -8.81996E+03 -2.67797E+03 -9.59605E+03 -1.77411E+03 -8.40972E+03 -1.87362E+04  6.57016E+03 -1.85581E+04
  1.04711E+04 -1.38424E+03  6.79222E+03  5.25856E+03 -3.06771E+03  4.59316E+03 -7.79803E+03  1.96858E+03
 -5.40642E+03 -1.40580E+04  3.78641E+03 -1.08899E+04  1.13325E+04 -1.38547E+04  1.18668E+04 -4.17547E+03
  1.85448E+04 -2.64352E+03  9.70538E+03  1.61473E+04  4.28504E+03  1.63625E+04 -3.27809E+03  1.30386E+04
 -5.86747E+03  3.73666E+03 -2.54606E+03 -4.61941E+03 -1.09716E+03 -3.04518E+03  6.21488E+03  2.41881E+03
  1.76717E+03  1.76081E+03 -2.00473E+03  1.10654E+04 -2.13222E+03  1.41803E+04 -1.02497E+04  3.01899E+03
 -8.84486E+03 -8.87383E+03  2.65337E+03 -1.10176E+04  7.19287E+03 -4.94774E+03  1.05005E+04 -5.09441E+02
  1.06908E+03  1.18252E+04 -9.55842E+03  6.57110E+03 -1.32063E+04  2.41221E+03 -4.14575E+03 -1.19931E+03
 -2.63844E+03 -1.45044E+04 -3.85396E+02 -1.84350E+04  1.52728E+04 -8.75650E+03  8.68658E+03 -1.63342E+03
  3.50352E+03  1.19660E+04 -7.41041E+02  1.34969E+04 -7.85520E+03  4.26735E+03 -1.21303E+04  2.14375E+03
 -2.56573E+03 -9.41483E+03 -1.10205E+03 -4.11811E+03  2.18641E+03 -8.54022E+03  1.31380E+03 -7.98048E+03
  6.61690E+03  4.15431E+02 -1.25708E+03  1.49560E+03 -8.13992E+03  3.79015E+02  3.25803E+03 -6.11706E+03
  9.74792E+03 -9.57175E+02  1.39405E+04  2.09456E+03  1.32346E+04  8.86209E+03  9.69582E+03  2.00870E+04
 -5.20507E+03  2.08063E+04 -2.05042E+04  1.52891E+04 -1.82052E+04  3.61953E+03 -1.25034E+04 -6.96885E+03
 -1.00279E+04 -1.66735E+04 -5.30957E+02 -6.64771E+03  7.14141E+03 -5.15738E+03  1.08744E+03 -3.69604E+03
  5.08989E+03 -1.44077E+03  6.91518E+03 -1.11940E+04  6.85424E+03 -4.76124E+03  5.22558E+03 -2.09578E+03
  5.67663E+03  1.58026E+03  7.76295E+03  4.48803E+03 -6.39049E+02  1.29055E+04 -5.38932E+03  8.88149E+03
 -1.22474E+04 -4.15285E+03 -7.42508E+03 -5.61985E+03 -4.24720E+03 -6.68155E+03 -1.02142E+03 -9.70073E+03
  8.31591E+03 -8.96101E+03  9.80029E+03  2.47850E+03  8.03777E+03  1.03926E+04  4.28812E+03  8.65299E+03
 -1.17907E+03  1.01796E+04 -6.62707E+03  2.18583E+03 -8.47164E+03 -6.89565E+02 -1.36608E+03 -3.86316E+02
 -1.48307E+03 -6.33846E+03  3.17469E+03  2.14625E+03 -1.78287E+03 -2.61802E+00 -1.17874E+04 -1.66864E+03
  2.41294E+03 -8.86687E+03  4.19763E+03 -1.72614E+04  1.66740E+04 -1.14611E+04  1.06979E+04  2.68659E+02
  9.43845E+03  4.81540E+03  9.83382E+02  1.09109E+04 -4.25468E+02  9.68352E+03 -1.03408E+04  3.50948E+03
 -9.68792E+03  1.76413E+03 -6.01570E+03 -6.59185E+03 -4.05279E+03 -7.51518E+03  2.72130E+03 -9.52836E+03
  6.55593E+03 -1.42111E+03 -3.44983E+02  2.93545E+03 -2.39516E+03  8.24774E+03  2.23271E+03  5.97566E+03
  4.40311E+03  9.53173E+02 -3.54162E+03  2.42745E+02  4.09393E+03  2.86149E+03  2.72585E+02  8.14022E+03
 -5.34548E+03  5.92736E+03 -1.25300E+04  8.13607E+03 -1.13660E+04  5.22986E+03 -1.37276E+04 -3.34006E+03
  1.53506E+03 -6.66911E+03 -4.94361E+02 -1.62573E+04  3.33234E+03 -7.61920E+03  8.69141E+03 -1.85294E+03
  6.65461E+03  3.75529E+03  2.56802E+03  4.32753E+03 -7.01864E+02  4.65707E+03  1.00701E+03 -2.96578E+02
 -7.88757E+03 -6.22450E+03  3.32619E+03 -1.37209E+04  4.09218E+03 -8.07775E+03 -2.48409E+03 -3.63877E+03
  1.42616E+03 -1.30271E+03  8.10822E+01  2.01960E+03 -4.20683E+03 -5.03379E+03  1.57353E+03  2.84775E+03
  6.89906E+03 -3.49826E+01  3.42867E+03 -8.67244E+02  3.84883E+03  6.36632E+03 -1.87393E+03  8.34542E+03
 -1.06768E+03  3.07608E+03 -6.86685E+03  5.56508E+03 -9.16816E+03 -2.02053E+03 -2.77784E+03 -5.43785E+03
  1.61796E+03 -7.57992E+02  5.70961E+02 -7.13816E+03  1.56194E+03  3.84073E+02  2.86484E+03  5.83803E+03
 -2.43571E+03  1.83029E+03 -2.94083E+03 -5.67860E+03 -6.00203E+03 -8.13851E+03  1.40673E+02 -2.97286E+03
  6.27123E+03 -3.49453E+03  6.05211E+03  1.34745E+03  1.26667E+03  2.45101E+03 -6.51914E+02  3.35431E+03
 -7.35066E+02  2.81335E+03 -2.34828E+03 -2.39697E+03  3.21559E+03 -5.68664E+03 -4.95801E+02  5.89100E+02
  6.56908E+03 -6.56945E+02  7.60612E+03  1.91633E+03  7.06622E+03  8.22584E+03 -1.78679E+03  7.75115E+03
 -4.64393E+03  4.35679E+03 -1.68524E+03 -5.53013E+03  6.35687E+03 -5.81344E+03  6.72755E+03 -6.35804E+03
  3.63739E+03 -3.61656E+03  5.69763E+03 -4.81293E+03  1.14978E+03  1.22881E+03  2.35286E+03  3.11050E+03
 -5.63819E+03 -1.89787E+02 -1.96798E+03  2.65130E+03 -1.35260E+03 -2.89505E+02 -1.60157E+03 -2.62374E+03
 -7.59614E+02  3.48472E+03 -9.64690E+03  7.11312E+03 -6.09933E+03  2.13450E+02 -3.08039E+03 -5.30746E+03
  2.43933E+02 -5.72931E+03  1.46396E+03 -1.17562E+04  1.10271E+04 -9.19329E+03  1.10336E+04 -6.43426E+03
  1.19958E+04  1.91688E+03  7.16220E+03  1.45595E+04 -1.15880E+03  5.86940E+03 -9.00741E+03  5.78358E+02
 -1.97183E+03 -1.42127E+03 -6.61000E+03  6.53531E+02 -2.75574E+03 -2.18980E+02  1.45974E+03  2.08898E+03
 -3.60760E+03 -1.52694E+03 -1.91065E+03 -5.42117E+03  6.33598E+02 -7.81056E+02 -1.47373E+03 -5.05220E+03
  3.07798E+03 -6.02560E+03  2.46363E+03  5.25823E+03  2.89936E+03  5.66528E+03  7.96127E+02  2.34215E+03
 -6.50619E+02  6.03951E+03 -7.36384E+03  1.05618E+04 -9.00857E+03 -4.57811E+03 -7.36507E+03 -3.10242E+03
 -3.72160E+03 -7.69826E+02  2.62964E+03 -7.19705E+03  3.00167E+03 -8.44209E+03  3.43595E+03  4.25894E+03
  7.55196E+02  6.59130E+03  3.71556E+03 -1.81909E+03 -4.77721E+03 -1.87025E+03 -4.31320E+03 -5.29851E+02
  5.46458E+03 -3.27257E+03 -2.04632E+02  1.10377E+03  7.36006E+03  6.38801E+03  1.05995E+03  1.98168E+03
 -3.70567E+03  9.59081E+02 -9.47606E+03 -3.50936E+03 -8.04459E+03 -2.37190E+03 -4.15938E+03 -6.67376E+03
 -8.92631E+02 -5.53865E+03  6.64253E+03 -1.53480E+03  5.03960E+03  5.20688E+02  8.10792E+02  6.25436E+03
  3.79278E+03  2.96766E+03  1.55074E+03  2.60984E+03 -3.20241E+03 -3.58204E+03  6.78522E+02  7.79661E+03
 -1.51706E+02 -9.18493E+02 -3.61931E+03  4.27136E+03 -3.13949E+02  1.46017E+03 -3.77731E+03  5.67174E+03
 -2.28815E+03 -1.03443E+03 -5.37410E+03 -9.27075E+03  5.93295E+03 -1.81202E+03  6.45042E+03 -1.22531E+03
  4.40248E+03  6.34386E+03  2.68340E+03  4.57230E+03  3.54582E+03  1.89316E+02 -3.57123E+03  2.70632E+03
