 $NMID ID='MM_0lb_SNR50_20hz_g50_13.RAW', FMTDAT='(8E13.5)'
 TRAMP=1., VOLUME=1. $END
  3.12105E+05  9.47110E+02  3.37007E+05  2.51728E+05  8.58219E+04  3.40724E+05 -1.35522E+05  2.53085E+05
 -1.85966E+05  8.32794E+04 -1.08061E+05 -3.50120E+04 -1.20192E+03 -4.74527E+04  5.12937E+04  1.17441E+03
  2.94952E+04  5.72276E+04 -1.44892E+04  7.51135E+04 -5.88655E+04  5.71917E+04 -8.23145E+04  3.26035E+04
 -7.96471E+04 -9.46639E+03 -5.64616E+04 -5.23923E+04 -1.48616E+04 -6.90304E+04  3.08489E+04 -4.81374E+04
  3.69554E+04  3.92982E+02  1.30711E+04  4.44512E+04 -3.24095E+04  4.97503E+04 -6.35805E+04  1.13144E+03
 -5.49026E+04 -5.87667E+04 -3.99298E+03 -7.97397E+04  3.38640E+04 -5.02920E+04  4.30893E+04 -1.52102E+04
  4.09294E+04  1.01073E+04  3.10209E+04  2.87433E+04  1.42716E+04  2.98996E+04 -6.08453E+03  2.70571E+04
 -2.58632E+04  1.34464E+04 -2.21274E+04 -4.07975E+03  5.31983E+03 -8.53215E+03  1.93024E+04  8.58214E+03
  7.20693E+03  3.20381E+04 -2.62514E+04  3.33316E+04 -6.11753E+04  2.21694E+03 -5.86173E+04 -3.99197E+04
 -9.93355E+03 -6.32275E+04  4.27096E+04 -4.33240E+04  5.66347E+04 -3.76103E+03  3.34858E+04  3.23853E+04
 -7.37595E+03  3.41309E+04 -2.69718E+04  1.36326E+04 -2.76101E+04 -5.54818E+03 -1.32193E+04 -1.34012E+04
 -8.63664E+03 -1.07239E+04 -2.66207E+03 -1.98773E+04  8.00999E+03 -2.05301E+04  1.64391E+04 -1.35651E+04
  1.30236E+04  6.50298E+03 -4.35175E+03  1.36660E+04 -1.60160E+04  8.52837E+02 -6.61932E+03 -2.98245E+04
  2.14935E+04 -3.95716E+04  4.50694E+04 -1.75760E+04  4.23134E+04  1.63099E+04  1.65981E+04  4.01146E+04
 -1.82656E+04  2.93450E+04 -2.64595E+04 -2.49395E+01 -1.31385E+04 -2.89195E+04  2.35338E+04 -3.33725E+04
  3.68970E+04 -9.51552E+03  3.16620E+04  2.38625E+04  1.24989E+04  4.01829E+04 -8.19963E+03  4.34745E+04
 -2.74134E+04  2.96638E+04 -3.70623E+04  6.08740E+03 -3.66600E+04 -1.18927E+04 -2.15533E+04 -3.59022E+04
  7.08324E+03 -2.86835E+04  2.91417E+04 -1.57966E+04  2.55472E+04  1.16427E+04  2.65733E+03  2.11140E+04
 -1.30487E+04  7.97735E+03 -9.41550E+03 -9.14429E+03  7.07849E+03 -1.37473E+04  1.50776E+04  6.50301E+03
  1.16393E+04  2.23213E+04 -4.66582E+03  2.44686E+04 -1.87293E+04  1.46118E+04 -2.37852E+04 -4.75569E+03
 -1.21060E+04 -1.46880E+04 -6.56916E+03 -1.31438E+04  8.27745E+03 -1.47282E+04  1.34037E+04 -2.11262E+04
  1.88135E+04 -1.23668E+04  3.03435E+04  1.76703E+03  1.88998E+04  1.83588E+04  4.24696E+03  3.26288E+04
 -1.78677E+04  2.56965E+04 -2.62694E+04  1.04571E+04 -1.86360E+04 -1.04286E+04 -3.33399E+03 -1.92828E+04
  4.58476E+03 -2.76696E+03 -1.33397E+03  2.28058E+03 -9.80135E+03  5.77666E+03 -1.26002E+04 -7.05135E+03
 -6.63156E+03 -1.52957E+04  1.61025E+03 -1.78553E+04  1.61088E+04 -1.80906E+04  1.35452E+04 -1.75701E+03
  2.33761E+03  1.10713E+04 -1.86005E+03  1.64136E+04 -1.19172E+04  6.66959E+03 -2.19059E+04  1.28967E+03
 -1.34269E+04 -1.51065E+04  3.45712E+02 -1.75974E+04  1.31439E+04 -8.94049E+03  1.57043E+04 -1.00943E+04
  1.22281E+04 -2.17673E+03  1.12624E+04 -9.56247E+01  4.59178E+03 -2.72380E+02  8.46150E+03 -1.39786E+03
  1.53217E+04  2.43393E+03  1.30825E+04  1.41668E+04  8.13444E+03  2.39098E+04 -4.35846E+03  2.73836E+04
 -1.51514E+04  1.52547E+04 -2.48087E+04  8.71399E+03 -2.26851E+04 -4.62962E+03 -1.87249E+04 -1.57471E+04
 -8.80247E+03 -1.89994E+04  3.98959E+03 -1.91894E+04  1.71137E+04 -1.03651E+04  1.66733E+04  5.28089E+03
  3.34373E+03  1.44467E+04 -5.69777E+03  8.34379E+03 -1.25733E+04 -5.34890E+02 -1.03448E+04 -7.74031E+03
 -3.17511E+03 -1.06545E+04  5.97399E+03 -9.23096E+03  7.85671E+03  3.62525E+02 -3.13442E+02  3.56130E+03
 -4.68942E+03 -1.75842E+02 -4.73945E+03 -3.02188E+03 -4.70805E+03 -6.61013E+03  8.99408E+03 -1.13007E+04
  1.18789E+04 -4.57541E+03  7.06120E+03  1.13033E+03  9.82182E+03  1.06798E+04  5.45120E+03  1.19580E+04
 -1.05729E+03  1.59355E+04 -9.93081E+03  1.01741E+04 -7.93641E+03  3.85108E+03 -1.20719E+04 -3.67869E+03
 -3.26564E+03 -3.59819E+03 -3.71801E+03  3.91695E+03 -2.34552E+03  4.32036E+03 -3.99134E+03  2.81673E+03
 -7.08740E+03 -3.90086E+03 -1.02646E+04 -7.96303E+03 -7.93138E+03 -1.65753E+04  1.07589E+03 -6.33576E+03
  3.19566E+03 -2.37894E+03  4.51817E+03  4.11268E+03 -1.91735E+03  4.72732E+03  1.46365E+03  1.68697E+03
 -1.96779E+03 -8.76261E+03 -5.70412E+02 -3.51635E+03  7.26729E+03 -6.21961E+03  7.97196E+03  1.27080E+03
  1.73149E+04  1.90964E+03  8.48951E+03  4.79613E+03  2.24699E+03  1.15503E+04 -3.41553E+03  5.45538E+03
 -3.36748E+03  2.87113E+03 -8.08127E+02  1.61083E+02  3.53090E+03 -1.69879E+03  5.17307E+03 -4.23151E+03
  4.11734E+03  3.83435E+03  3.41743E+03  7.34406E+03 -6.99696E+03  7.15499E+03 -1.76440E+03  3.76665E+03
 -7.24863E+03 -4.73257E+03 -8.30697E+02 -8.54433E+03  2.03967E+03 -3.08086E+03  6.31561E+03  2.45471E+03
  6.30295E+02  4.76178E+03 -1.40598E+03  2.09341E+02  6.34714E+02  1.42555E+02 -6.30932E+03 -6.60440E+03
 -3.60377E+03 -5.03709E+03  7.35932E+02 -4.61836E+03  7.28336E+03 -8.14841E+03  5.70095E+03  6.04584E+03
  2.50415E+03  8.36965E+03  2.59720E+03  6.79249E+03 -4.08332E+03  4.90034E+03 -9.08306E+03 -5.97202E+02
 -4.68441E+03 -2.67606E+03 -2.35599E+03 -5.57920E+03 -1.23815E+03 -1.17657E+03  3.51611E+03 -3.02611E+03
  4.15407E+03  2.10996E+03 -1.08703E+03  1.18189E+03  3.99426E+03  2.21653E+03 -5.89969E+03  1.54394E+03
  3.67493E+03 -7.74357E+02  2.53601E+03  5.70540E+02  3.86624E+03  4.41704E+03  6.05642E+03  8.88881E+03
 -2.28555E+02  3.69773E+03 -5.62137E+03  7.50289E+03 -7.55063E+03  4.71977E+03 -8.65025E+03  6.79577E+02
  4.83243E+02 -3.59076E+03 -1.39751E+03 -7.03453E+03  3.82646E+01 -3.16112E+02 -1.24605E+03 -4.88945E+03
 -1.36182E+03 -4.32817E+03 -9.04396E+01 -6.23016E+03  2.36564E+02 -2.27344E+03  4.95375E+03  2.21579E+03
  1.95528E+03 -1.28115E+03 -4.59441E+02  4.78302E+03 -5.40227E+03  9.84816E+02 -2.67476E+03  3.16511E+03
 -3.27988E+03 -2.15157E+03 -2.97368E+02 -3.09163E+03 -3.80120E+03 -4.80947E+02  5.57601E+03 -4.03493E+03
  1.21472E+03 -5.59861E+02  7.01735E+03  1.54074E+03  8.81010E+03 -8.27612E+02  1.81350E+02  7.04302E+03
 -2.95930E+03  2.11337E+03 -3.11285E+03 -1.52710E+03 -8.06646E+02 -4.37278E+03 -7.57056E+02 -8.39444E+02
  3.70730E+02  2.34621E+03  2.12612E+03 -4.40195E+01 -1.46318E+03 -9.97033E+02 -8.13691E+03 -1.52969E+03
 -2.71121E+03 -3.69862E+03  1.53685E+03 -5.73132E+03  3.57474E+03 -4.61424E+03 -2.41265E+03  2.28928E+03
  3.45744E+03  2.53085E+03 -1.61095E+03  3.08205E+03 -3.73397E+03  5.73175E+03 -1.85822E+03 -1.54433E+02
 -2.37603E+03 -1.39296E+03 -4.08854E+03 -4.04764E+03  1.21184E+02 -3.33503E+03  2.45047E+03 -2.43586E+03
  1.98163E+01  2.65113E+03  2.28964E+03  1.33496E+03 -1.66902E+03 -8.55047E+02 -5.41727E+03  4.14496E+03
 -4.68629E+02  9.71242E+01  9.61081E+01 -8.75644E+02  8.49154E+02  2.94187E+03  1.22766E+03  2.54077E+03
  5.55906E+02  3.64594E+03 -2.80848E+03  8.17441E+03 -1.61631E+03  1.97622E+03  1.68062E+03  1.52845E+03
 -3.68909E+03 -2.57690E+03  1.73006E+03 -4.35015E+03  8.83537E+02  1.02994E+03  8.13580E+02 -4.71853E+02
  3.00828E+03 -1.58505E+02 -6.39865E+02  4.72345E+03 -3.78359E+03  2.79826E+03 -9.27872E+02 -1.87828E+03
  2.40058E+02 -1.78579E+03  1.73429E+03 -2.87409E+02 -1.61260E+03  6.25506E+01 -2.90089E+03 -4.81681E+03
 -1.07189E+03  6.88500E+03  2.73520E+03 -6.76208E+02 -2.07747E+03  1.49841E+03  4.53976E+03 -8.99556E+02
  1.45317E+03 -1.18548E+03  4.94771E+03  6.99835E+01 -7.64526E+02  5.16866E+03 -6.56080E+02  1.94531E+03
 -3.26668E+03  5.39579E+02 -1.73437E+03  2.42640E+03  9.35275E+02  3.26687E+03  2.86896E+03 -2.91270E+03
 -6.68396E+02  3.58406E+03  1.17834E+03 -2.21841E+03 -3.50864E+03  9.99569E+02  1.85421E+03  1.13403E+03
  1.19043E+03 -1.55310E+03  1.29214E+03  2.90020E+01  6.44675E+02 -2.42234E+03  2.52641E+03 -9.25593E+02
  2.45107E+03 -1.69226E+03  2.34286E+03  2.13247E+03  2.37858E+03 -1.45213E+03  8.33753E+02 -1.61453E+03
 -2.67596E+03 -1.20285E+02  2.50043E+03 -2.50065E+03 -1.83747E+02  1.30580E+03  1.94416E+03  1.71493E+03
  8.69245E+02 -5.03028E+02  2.32618E+03  7.95981E+02  7.67037E+02  1.36885E+03  2.53273E+03  6.43828E+03
  4.50662E+02 -3.30587E+03 -8.33471E+02  3.28795E+03 -5.04468E+03 -1.30463E+03  7.03111E+02  3.24311E+03
  5.21405E+03 -2.17693E+03  1.21535E+03  3.77014E+03 -1.36751E+03 -2.13724E+02  1.95321E+03  1.85785E+03
 -4.38923E+03  1.70230E+02 -2.11040E+02  1.34230E+03 -2.14720E+02  2.05512E+03  8.13272E+01  4.18814E+03
  1.48501E+02  1.53701E+03 -5.01521E+03 -4.31139E+02  3.83549E+02 -2.41688E+03 -4.52954E+03 -1.01511E+03
 -2.37949E+03 -2.92377E+03  5.01233E+02 -4.46405E+03  3.20313E+02 -1.16466E+03 -3.16677E+02 -7.94114E+02
  3.97287E+03  3.07744E+03 -4.96313E+03 -3.05275E+03 -1.75318E+03  3.18128E+03  5.20539E+03  1.10322E+03
  1.00936E+02  1.92696E+02 -2.52501E+03  1.88651E+03  1.18828E+03  4.20258E+02 -1.83771E+02  3.91807E+02
 -2.62790E+03 -2.06043E+03 -1.66863E+02  4.94450E+03 -2.26274E+03  1.07566E+03 -2.77762E+03 -1.65641E+03
 -3.61470E+02 -1.44930E+03  2.77648E+03 -1.37377E+03 -1.42347E+03 -3.57312E+02 -4.77832E+03  7.44020E+02
 -2.44935E+03  6.64998E+03 -1.34453E+03  6.08639E+02  1.41513E+03 -1.27298E+02  2.55146E+03  4.33561E+02
 -4.74057E+03  3.92975E+02 -1.16760E+03 -3.64918E+03  1.64178E+03  7.00290E+01 -9.27723E+02 -5.16535E+02
  1.34207E+03 -2.90722E+03  1.11516E+03  1.38652E+03 -3.07193E+03  2.01870E+03 -1.33449E+03  3.25112E+03
 -7.27145E+02 -1.69694E+03 -5.45129E+03 -5.88939E+03  2.65072E+03 -3.82960E+03 -4.90152E+03 -8.53311E+02
  3.69718E+03  2.46128E+03  3.79792E+01  1.64344E+02  3.95361E+02  3.66041E+03  3.29349E+03  1.55585E+03
 -1.71362E+02  3.61950E+03  2.07937E+03  5.99979E+03  1.90404E+03  4.58486E+02 -1.43870E+03  4.49480E+01
  6.71958E+02  4.61155E+02  2.38800E+02  1.91447E+03 -1.16978E+03 -6.19582E+02  1.85151E+03 -4.29766E+03
 -1.38207E+03 -3.71326E+03  4.36644E+02 -1.40982E+03 -1.06613E+03  5.44491E+02 -2.09087E+02  2.46644E+03
 -3.15879E+03  5.65934E+03 -3.05276E+03 -3.02489E+03  2.34955E+02  1.62870E+03  9.64269E+02 -9.67521E+02
 -1.49530E+02 -5.54110E+03 -1.78176E+03  1.13094E+03 -3.12474E+03  9.50775E+02 -8.29116E+02 -1.04383E+03
