 $NMID ID='MM_0lb_SNR50_14hz_g40_100.RAW', FMTDAT='(8E13.5)'
 TRAMP=1., VOLUME=1. $END
  3.10311E+05 -1.53189E+03  3.37927E+05  2.51218E+05  8.63572E+04  3.37001E+05 -1.28723E+05  2.53188E+05
 -1.84541E+05  8.39382E+04 -1.08132E+05 -3.49975E+04  2.86694E+03 -5.49282E+04  5.77790E+04 -4.19645E+02
  4.00160E+04  5.18020E+04 -2.07480E+04  7.60651E+04 -6.42272E+04  6.57388E+04 -8.31937E+04  3.24595E+04
 -8.17606E+04 -1.18448E+04 -5.98597E+04 -4.97919E+04 -1.67371E+04 -6.65797E+04  2.82454E+04 -4.64066E+04
  3.95278E+04 -5.53919E+02  1.38329E+04  4.41484E+04 -3.79613E+04  4.75388E+04 -7.33863E+04  5.64050E+03
 -5.48322E+04 -5.02325E+04 -3.75323E+03 -7.48186E+04  3.38005E+04 -6.26326E+04  4.99532E+04 -1.33027E+04
  4.49863E+04  1.30189E+04  3.15928E+04  2.28500E+04  1.55501E+04  2.75092E+04 -4.14120E+03  2.81527E+04
 -1.65894E+04  9.53992E+03 -1.54842E+04 -4.70052E+03  8.51040E+03 -8.49855E+03  2.02412E+04  1.40679E+04
  1.31404E+04  3.50596E+04 -3.56950E+04  3.59611E+04 -6.22253E+04  9.97379E+02 -5.98957E+04 -4.33039E+04
 -1.45798E+04 -5.90256E+04  3.56653E+04 -4.49526E+04  5.97541E+04 -3.52536E+03  3.29002E+04  3.16865E+04
 -4.91835E+03  3.17215E+04 -3.30933E+04  1.62965E+04 -3.27014E+04 -6.19333E+03 -2.13775E+04 -1.25577E+04
 -6.98739E+03 -9.24857E+03  2.56905E+03 -2.15262E+04  8.25210E+03 -2.61042E+04  1.18328E+04 -1.42910E+04
  1.11586E+04  8.00126E+03 -1.38808E+04  1.39847E+04 -1.82271E+04 -4.89443E+03 -7.71682E+03 -3.11468E+04
  2.03310E+04 -4.44036E+04  4.80006E+04 -2.51246E+04  4.83610E+04  2.01044E+04  1.20283E+04  4.51602E+04
 -1.69595E+04  3.43238E+04 -2.42081E+04  5.00830E+03 -8.73013E+03 -2.54498E+04  2.10272E+04 -3.64089E+04
  3.77372E+04 -8.31589E+03  3.20927E+04  2.43660E+04  1.71221E+04  4.14025E+04 -6.82878E+03  4.96257E+04
 -3.27102E+04  3.61564E+04 -4.12666E+04  1.22045E+04 -4.14118E+04 -2.15428E+04 -2.64872E+04 -4.09622E+04
  7.76131E+03 -3.42423E+04  3.09864E+04 -1.41422E+04  2.74490E+04  1.24567E+04  8.72770E+03  1.47095E+04
 -1.29518E+04  7.27124E+03 -9.98242E+03 -9.99096E+03  7.46748E+03 -1.29090E+04  1.68786E+04  3.83408E+03
  1.33096E+04  2.42241E+04 -7.45831E+03  2.44741E+04 -2.06428E+04  5.63874E+03 -2.76659E+04 -1.78399E+03
 -1.49675E+04 -2.08142E+04 -7.81178E+03 -1.68257E+04  7.73987E+03 -1.93152E+04  1.27725E+04 -1.73507E+04
  2.61314E+04 -1.70262E+04  3.49599E+04 -1.40265E+03  2.22173E+04  1.71022E+04  1.14279E+04  3.37561E+04
 -1.41213E+04  3.19444E+04 -3.21134E+04  1.27754E+04 -1.83069E+04 -9.28059E+03 -2.26034E+03 -1.74342E+04
 -2.10818E+03 -5.74982E+03 -5.80626E+03  6.71966E+03 -1.64169E+04  7.83543E+03 -1.91900E+04 -1.11660E+04
 -6.70135E+03 -1.60926E+04 -4.98776E+02 -2.86927E+04  1.12779E+04 -1.73190E+04  1.46248E+04 -1.61937E+03
  1.08583E+04  1.39055E+04 -4.22799E+03  1.70288E+04 -1.27496E+04  9.58594E+03 -1.79435E+04 -6.67771E+03
 -1.37258E+04 -1.80034E+04 -3.38712E+03 -1.93229E+04  9.04802E+03 -1.76440E+04  1.91846E+04 -4.37113E+03
  2.02604E+04 -4.54990E+02  1.20794E+04  3.90149E+03  9.28466E+03 -3.78288E+03  9.06197E+03 -8.64187E+01
  1.72831E+04  2.19297E+03  1.76553E+04  1.25089E+04  6.34773E+03  3.02351E+04 -4.84809E+03  2.94644E+04
 -1.85543E+04  2.33022E+04 -3.36509E+04  1.14966E+04 -3.29249E+04 -3.62493E+03 -2.78145E+04 -2.04982E+04
 -1.49227E+04 -2.64359E+04  8.43322E+03 -2.64686E+04  1.94830E+04 -1.17635E+04  2.13380E+04  7.47510E+03
  6.10345E+03  2.18255E+04 -1.11186E+04  1.28983E+04 -1.51684E+04  3.86294E+03 -9.25895E+03 -4.63877E+03
 -2.54862E+03 -1.70478E+04  5.51643E+03 -1.11154E+04  7.35690E+03 -3.05219E+03  2.18022E+03  8.27845E+03
 -5.20389E+03 -2.02526E+03 -6.58221E+03 -3.03132E+03 -1.87201E+03 -1.23302E+04  9.80696E+03 -1.18606E+04
  1.73953E+04 -6.91325E+03  1.87234E+04  2.78315E+03  1.47199E+04  1.30869E+04  1.03906E+04  2.16305E+04
 -1.63762E+03  2.43998E+04 -1.27161E+04  1.10063E+04 -1.66459E+04  2.70015E+03 -1.32486E+04 -3.88136E+03
 -7.73369E+03 -2.61337E+02 -1.47811E+03  1.51965E+03 -1.76029E+03 -3.57318E+03 -4.80305E+03  6.96945E+03
 -1.41485E+04 -4.21683E+03 -1.11887E+04 -1.10470E+04 -8.88546E+02 -1.28754E+04  3.64328E+03 -1.25540E+04
  7.49919E+03 -3.10073E+03  4.30569E+03  3.76970E+03 -2.36793E+03  8.52234E+03 -4.57589E+02 -7.71935E+02
 -7.09600E+03 -2.50958E+03 -1.59524E+03 -1.12884E+04  7.35669E+03 -9.76186E+03  1.00074E+04 -7.39540E+03
  1.33216E+04  3.00181E+02  5.18888E+03  7.93234E+03  9.58821E+02  1.42697E+04 -8.52575E+03  9.38574E+03
 -5.72443E+03  2.56866E+03 -8.15594E+03  3.32127E+03  4.51842E+03 -3.28058E+03  1.07534E+04  6.83029E+02
  4.81663E+03  7.31569E+03  2.11903E+03  9.55012E+03  5.65718E+02  9.66258E+03 -1.09418E+04  4.60312E+03
 -9.49611E+03 -4.47014E+03  2.67586E+03 -9.66560E+03  5.38220E+03 -8.32646E+03  1.04633E+04  5.91749E+03
  1.85551E+03  7.36067E+03 -4.61686E+03  6.32755E+03 -6.66157E+03  3.64064E+03 -9.55810E+03 -2.29172E+03
 -7.02221E+03 -6.27287E+03  2.32043E+03 -1.41101E+04  1.47344E+04 -5.65371E+03  9.55785E+03  2.39766E+03
  7.82954E+03  1.11810E+04 -5.73668E+03  4.33845E+03 -9.42189E+03  4.46165E+03 -6.36781E+03  1.48331E+03
 -6.44121E+03 -4.35006E+03 -3.88707E+03 -8.47013E+03 -5.15579E+02 -4.03794E+03 -1.28652E+03 -3.54331E+03
  6.90186E+03  3.07368E+03  3.23006E+03  4.66066E+03 -2.54030E+02  2.06166E+02 -1.37028E+03 -6.87459E+03
  4.27835E+03 -1.55722E+03  7.96818E+03 -2.88473E+03  5.30434E+03  7.60230E+03  1.17904E+04  1.38279E+04
 -2.74735E+03  1.06182E+04 -1.09913E+04  1.23568E+04 -1.22008E+04  1.77863E+03 -1.42120E+04 -6.17656E+03
 -3.74239E+03 -8.53853E+03 -2.41302E+03 -1.53310E+04  2.90107E+03 -2.08882E+03  3.01506E+03 -4.48982E+03
  2.11263E+03 -4.33582E+03 -6.79928E+02 -3.30322E+03  4.96352E+03 -5.33562E+03  2.20074E+03 -3.74983E+03
  8.41014E+03 -1.21325E+03  1.20615E+03  4.41926E+03 -6.48870E+03  9.95247E+03 -5.88747E+03  1.36736E+03
 -9.10953E+03 -3.05799E+03 -5.36939E+03 -8.17752E+03 -3.24007E+03 -1.31915E+04  5.18726E+03 -5.31680E+03
  1.09895E+04 -8.61421E+02  6.34821E+03 -9.92164E+01  9.41008E+03  9.31899E+03  3.59800E+03  1.40534E+04
 -4.69014E+03  1.15496E+04 -1.16299E+04  4.41339E+03 -3.93990E+03 -2.19092E+03  2.89577E+03  1.87938E+03
  7.12283E+02  1.43514E+02 -6.18229E+02  4.81813E+03 -2.06141E+03  3.46756E+02 -5.37566E+03  5.39173E+03
 -7.01662E+03 -6.50427E+03  8.03536E+02 -4.56721E+03  6.84538E+03 -5.28140E+03  7.20736E+03 -2.16968E+03
  2.64766E+03  6.08494E+03  3.46119E+03  3.74970E+03 -3.57828E+03  6.49245E+03 -3.40650E+03  1.52140E+03
 -6.93013E+03 -2.29456E+03 -5.23865E+03 -5.17735E+03 -1.85033E+03 -9.80077E+03  4.64575E+03 -2.18329E+03
  4.57501E+03 -6.15556E+03  5.09792E+03 -3.79346E+02  4.06528E+03 -1.76856E+03  1.67100E+03  1.82963E+03
 -6.63513E+02 -5.41833E+03  6.28480E+03  1.81285E+02  1.27226E+03  2.66745E+03  1.97695E+03  4.11611E+03
 -2.28573E+03  7.65199E+03  6.18773E+02  9.44545E+03 -9.46196E+03  3.42291E+03 -2.45042E+03 -7.30951E+03
 -2.24222E+03 -5.96787E+03  1.59066E+02 -1.00959E+04  4.17513E+03 -4.23402E+03  2.66567E+03 -3.28333E+03
  2.16277E+03 -1.38334E+03  7.96163E+02 -9.01306E+02  2.10862E+03  2.15360E+02 -3.42964E+03 -2.12119E+02
 -3.41870E+02 -6.30616E+03  7.63778E+02 -3.06112E+03  4.05167E+03 -2.05799E+03  6.23762E+03 -3.50363E+02
  8.42655E+02  8.49799E+02 -1.67828E+03 -1.40715E+03  1.01355E+03  3.52745E+03  3.15707E+03  1.78497E+03
 -2.23863E+03  1.56052E+03  2.64369E+03 -1.81098E+02  4.16118E+03 -2.18404E+03  8.79283E+02  6.84403E+03
 -2.96344E+03 -9.05303E+02 -8.53922E+02 -4.81924E+02 -3.65396E+03 -4.84111E+03 -3.08877E+03 -4.31954E+03
  2.76253E+02 -8.03799E+02 -5.70829E+02 -1.14685E+03  1.11966E+03 -2.09113E+03 -2.16810E+03  1.36672E+03
 -5.96608E+03 -1.07226E+02  4.24342E+03  5.52935E+02  1.63980E+03 -8.54610E+03 -8.73570E+02  3.79152E+03
  9.62227E+02 -6.16673E+01  7.45846E+03 -1.77940E+03  2.99822E+03 -1.48653E+03 -1.84396E+03  2.17184E+03
 -4.93131E+03 -1.50077E+03 -1.57399E+03 -2.35682E+03 -1.71560E+03 -5.96215E+03  1.91731E+03 -9.83359E+02
  2.32802E+03 -1.62949E+03  4.24392E+03  3.69607E+03  4.02838E+03  6.83080E+03 -1.37910E+02  9.65335E+03
 -8.58790E+03 -2.87068E+03 -8.00976E+03 -6.04542E+02 -5.56629E+03 -2.89564E+03  2.19215E+03 -3.99372E+03
  4.62639E+02  1.05825E+02 -3.33735E+03  5.64026E+02  9.80760E+02  1.14523E+03  5.53782E+02 -1.85917E+03
 -5.76889E+03  8.42302E+02 -1.97523E+03  4.96701E+02  4.47161E+03  6.40173E+03  3.38981E+03  1.35205E+03
  3.44597E+03  4.14349E+03 -2.48631E+03 -1.63244E+02 -4.05912E+03  6.52752E+02 -4.48268E+03 -3.99306E+02
 -1.87384E+03 -1.12631E+04 -8.15219E+02 -5.33093E+03  5.06514E+03 -7.25639E+03  7.00824E+03 -7.40985E+02
  5.59554E+03 -2.55409E+03  6.22834E+03  8.03167E+03 -4.48757E+02  5.76627E+03  2.25985E+02  5.51877E+03
 -5.34767E+03 -1.70605E+03 -3.92591E+03 -1.32845E+03  3.32786E+03  2.65102E+03  1.95950E+03  1.91986E+03
 -7.09815E+03  1.77283E+03 -2.47213E+03 -3.42677E+03 -2.51967E+03 -1.11693E+03 -1.16205E+03  1.53881E+03
  3.70973E+03  3.11185E+03  3.04960E+03  5.50131E+03  3.44796E+03 -2.71406E+03 -3.10586E+02  5.43297E+03
 -2.13550E+03  4.20411E+03 -9.32768E+03  3.62771E+03 -3.08947E+03  1.41238E+03 -7.62996E+03 -5.31008E+03
 -3.34555E+03 -5.69693E+03  2.08116E+03 -5.59770E+03 -4.72016E+03 -6.60826E+02  4.44950E+03 -1.41184E+03
  4.61466E+03 -8.60650E+02 -2.92242E+03  2.26001E+03  1.63089E+03  2.65713E+03 -7.98512E+02  2.28449E+03
  2.46699E+03  2.44480E+03 -2.81512E+03  3.64935E+03  5.28481E+02 -1.17542E+03 -4.41852E+02  3.93048E+03
 -9.51323E+02 -5.89261E+02 -1.55517E+03 -2.81728E+03 -4.34910E+03 -2.92549E+03 -2.41922E+03 -3.31753E+03
  4.14719E+03 -7.99228E+03 -1.82327E+03 -1.73147E+03  5.46529E+03  1.21684E+03  1.91389E+03  4.04516E+03
 -4.68640E+03  1.13712E+03 -6.83516E+02  3.69564E+03 -3.16054E+02  8.00060E+02 -3.06588E+03  4.98520E+03
 -3.45306E+03  1.02406E+03  2.82608E+03 -2.71800E+03 -7.64771E+02  7.45339E+02 -6.84880E+03 -1.14329E+03
 -3.02354E+03  1.88764E+03  1.80509E+03 -4.65776E+02  8.31530E+02 -3.12126E+03  1.13673E+03 -1.48991E+03
  5.82667E+03  2.56626E+03 -2.05796E+03  2.36231E+03 -1.06958E+03  3.61550E+03 -1.27179E+03  3.80260E+03
