 $NMID ID='MM_0lb_SNR50_12hz_g60_91.RAW', FMTDAT='(8E13.5)'
 TRAMP=1., VOLUME=1. $END
  3.12336E+05  3.48714E+03  3.34219E+05  2.54598E+05  9.13719E+04  3.41882E+05 -1.27988E+05  2.56873E+05
 -1.91304E+05  8.38171E+04 -1.19386E+05 -3.03978E+04  4.01840E+03 -4.66198E+04  5.47360E+04  9.54509E+02
  3.89478E+04  5.21403E+04 -1.61316E+04  7.56644E+04 -5.37029E+04  6.79874E+04 -8.67472E+04  3.36977E+04
 -8.38262E+04 -9.06156E+03 -6.01349E+04 -5.18608E+04 -1.85668E+04 -7.00473E+04  2.82112E+04 -4.70009E+04
  4.38550E+04  7.57930E+03  1.25291E+04  4.25428E+04 -3.78414E+04  5.36076E+04 -6.68026E+04  6.25793E+03
 -5.23197E+04 -5.87184E+04 -9.32034E+03 -8.22320E+04  3.66620E+04 -5.85395E+04  4.87736E+04 -2.31392E+04
  5.12042E+04  1.08817E+04  3.12035E+04  2.56324E+04  1.93689E+04  2.87902E+04 -6.63221E+03  2.38292E+04
 -2.15167E+04  1.61253E+04 -2.37896E+04 -3.00692E+03  9.12088E+03 -5.35475E+03  2.33954E+04  1.54844E+04
  8.05800E+03  3.71732E+04 -3.49329E+04  3.44288E+04 -6.25556E+04 -3.32290E+03 -5.92122E+04 -5.07466E+04
 -8.82689E+03 -6.10459E+04  3.97565E+04 -4.37326E+04  5.89925E+04  5.12275E+03  3.67968E+04  3.75651E+04
 -1.76836E+03  3.56955E+04 -3.84753E+04  1.69685E+04 -3.75864E+04 -8.19760E+03 -2.08825E+04 -2.15382E+04
 -1.07179E+04 -1.90856E+04  3.04830E+03 -1.98782E+04  1.16223E+04 -2.53601E+04  1.36152E+04 -1.63247E+04
  1.19442E+04  6.13897E+03 -1.33307E+04  1.02932E+04 -2.85550E+04 -3.18487E+03 -1.02005E+04 -2.99070E+04
  3.03737E+04 -4.44201E+04  4.90875E+04 -2.42152E+04  4.96664E+04  1.91744E+04  2.08523E+04  5.12916E+04
 -1.67771E+04  3.21320E+04 -2.59316E+04 -1.45657E+03 -8.95283E+03 -2.30872E+04  2.33940E+04 -3.63937E+04
  4.57024E+04 -6.67235E+03  4.14309E+04  2.47712E+04  2.05917E+04  5.05283E+04 -8.70581E+03  5.13206E+04
 -3.26776E+04  4.04283E+04 -4.60784E+04  1.34029E+04 -4.90338E+04 -1.95585E+04 -2.20430E+04 -3.79121E+04
  9.48927E+03 -3.70636E+04  3.03948E+04 -2.19650E+04  3.31993E+04  7.62974E+03 -2.52526E+03  2.27403E+04
 -1.30578E+04  1.40085E+04 -1.19296E+04 -8.41127E+03  9.28989E+03 -1.67313E+04  1.16892E+04  4.45064E+03
  9.17699E+03  2.72062E+04 -6.03647E+03  2.82507E+04 -2.30792E+04  1.56294E+04 -3.38873E+04 -1.00315E+04
 -2.94396E+04 -1.86273E+04 -1.44478E+04 -2.65045E+04  3.22065E+03 -2.13477E+04  1.69567E+04 -2.47953E+04
  3.06595E+04 -1.88607E+04  3.99463E+04  1.19090E+03  2.42277E+04  1.92406E+04  3.02280E+03  3.70512E+04
 -1.64569E+04  3.01238E+04 -2.63288E+04  1.30204E+04 -2.02135E+04 -8.48698E+03 -8.24931E+03 -1.73010E+04
 -3.19891E+02 -7.43490E+03 -5.78424E+03  6.83912E+03 -1.99415E+04  1.84751E+03 -2.17201E+04 -7.32299E+03
 -1.23274E+04 -2.14875E+04  3.54783E+03 -2.97581E+04  1.66896E+04 -1.97668E+04  1.69906E+04 -2.50265E+03
  1.69711E+04  1.22003E+04 -8.64220E+03  2.11126E+04 -1.55563E+04  6.12203E+03 -1.72446E+04 -1.42044E+03
 -1.75317E+04 -2.22268E+04  8.03623E+02 -2.71613E+04  1.35113E+04 -2.16325E+04  2.73298E+04 -1.48742E+04
  1.84474E+04  5.41466E+02  1.59869E+04  1.11522E+03  7.90508E+03  4.00496E+03  1.22489E+04 -5.05632E+03
  1.92391E+04  4.82298E+03  2.11413E+04  1.43542E+04  9.42577E+03  3.47769E+04 -2.32279E+02  4.18016E+04
 -1.86779E+04  2.88729E+04 -3.90051E+04  1.61146E+04 -4.27068E+04 -2.01397E+03 -3.08879E+04 -3.06410E+04
 -1.54736E+04 -3.23589E+04  1.10384E+04 -3.40339E+04  2.55578E+04 -1.58870E+04  2.44303E+04  4.18750E+03
  4.55952E+03  1.92239E+04 -1.22382E+04  1.20617E+04 -1.24754E+04  2.51857E+03 -1.41482E+04 -1.29497E+04
 -7.21520E+03 -1.88766E+04  1.33936E+04 -1.22822E+04  1.50453E+04 -1.32368E+03  7.93799E+03  3.69180E+03
 -6.49375E+03  2.92296E+03 -5.53209E+03 -3.82309E+03  1.74427E+03 -2.13184E+04  8.04303E+03 -1.37227E+04
  2.22012E+04 -7.95852E+03  2.00477E+04  3.08422E+03  2.25491E+04  1.74801E+04  1.62467E+04  2.65373E+04
 -4.75700E+03  2.79196E+04 -1.78115E+04  1.69586E+04 -1.18281E+04  1.47834E+03 -1.65832E+04 -6.82597E+03
 -5.83468E+03 -1.18233E+03 -5.73503E+03  3.72932E+03 -1.41934E+03  6.36449E+03 -8.93358E+03  2.10118E+03
 -1.35794E+04  3.01780E+02 -1.22148E+04 -1.02313E+04 -5.35495E+03 -1.76111E+04  4.87249E+03 -1.50243E+04
  1.63030E+04 -3.92025E+03  5.02453E+03  2.82076E+03  5.58249E+03  4.98917E+03 -5.28510E+03  4.20990E+03
 -7.87376E+03 -1.08218E+04 -2.14503E+03 -1.10936E+04  7.00973E+03 -1.64992E+04  1.48631E+04 -4.19524E+03
  1.86640E+04 -2.36627E+03  1.10591E+04  1.29226E+04  5.21406E+02  1.93925E+04 -4.67932E+03  1.18753E+04
 -5.63248E+03  4.97082E+03 -9.78336E+03 -1.32319E+03 -2.10004E+02 -2.01977E+03  1.39795E+04 -1.90316E+03
  5.68513E+03  3.98235E+03 -3.40194E+03  6.63436E+03 -1.34887E+04  7.69721E+03 -1.35665E+04  1.99758E+03
 -7.44716E+03 -8.82913E+03  1.27917E+03 -9.22855E+03  1.32205E+04 -4.78064E+03  1.18221E+04  4.62057E+03
 -4.12466E+02  4.79500E+03 -1.25756E+04  1.13049E+04 -1.15502E+04  2.93806E+03 -1.23805E+04 -6.97570E+02
 -6.38712E+03 -1.60713E+04 -1.74276E+03 -1.42871E+04  8.83172E+03 -1.15094E+04  1.44598E+04  1.33263E+03
  4.13952E+03  1.58881E+04  2.39455E+03  1.28940E+04 -1.33978E+04  4.72153E+03 -1.20637E+04 -1.62019E+03
 -1.40070E+04 -1.26914E+04  1.23403E+03 -8.33929E+03  8.92067E+03 -1.02982E+04  1.88597E+03 -5.33948E+03
  5.17834E+03  5.17194E+03 -2.63520E+03 -3.03175E+03  2.47047E+03  2.19277E+03 -1.70514E+03 -1.09885E+04
  9.25014E+03  1.54369E+03  1.62301E+04  2.55836E+03  1.47195E+04  9.42171E+03  1.22078E+04  1.83295E+04
 -1.09096E+03  2.22278E+04 -1.84917E+04  1.54759E+04 -2.32017E+04  1.35094E+03 -1.40753E+04 -3.92826E+03
 -8.90078E+03 -1.46818E+04  5.76672E+03 -1.54350E+04  7.91356E+03 -6.39665E+03  2.65802E+03 -4.01048E+03
  4.56868E+03 -5.66630E+03 -2.58006E+02 -3.71705E+03  1.18005E+03 -4.51781E+03  1.75059E+03 -7.45033E+03
  8.15285E+03  5.40566E+03 -1.21176E+03  2.19229E+03 -2.96074E+03  7.47412E+03 -8.76682E+03  9.46685E+03
 -1.01988E+04 -6.15119E+02 -1.14522E+04 -7.62620E+03  5.25998E+03 -1.40264E+04  1.31076E+04 -1.32613E+04
  1.17349E+04 -6.51649E+03  1.27916E+04  4.46749E+03  8.92396E+03  1.00003E+04 -1.75251E+03  1.34978E+04
 -6.43250E+03  1.35745E+04 -5.95449E+03  7.20995E+03 -7.96472E+03 -1.75246E+02 -1.60844E+03 -1.23090E+03
  1.42992E+03 -4.90449E+03 -2.39908E+03 -2.05154E+03 -1.25312E+03  4.27178E+03 -6.14502E+03 -1.34769E+03
 -2.08079E+02 -6.41175E+03 -3.37664E+03 -1.33923E+04  4.29221E+03 -8.33063E+03  9.64065E+03 -2.12557E+03
  9.93214E+03  1.04510E+04  1.73075E+03  4.99006E+03 -3.79842E+03  1.31230E+04 -8.26096E+03  1.23848E+04
 -1.84495E+04  3.65148E+03 -9.08914E+03 -6.24135E+03  4.37207E+02 -6.13121E+03  6.10043E+03 -8.13507E+03
  9.89198E+03 -7.84276E+03  1.05068E+04  1.14478E+02  9.86769E+03  3.50138E+03 -6.06684E+02 -9.03580E+02
  1.71502E+03  7.77688E+02  2.15858E+03  2.80070E+03  3.36814E+03  2.22345E+03  2.71896E+03  6.05372E+03
 -4.10692E+03  1.27238E+04 -4.14160E+03  1.26251E+04 -1.16495E+04  6.04699E+03 -1.09892E+04 -7.40075E+03
 -2.79422E+03 -1.73684E+04 -1.97426E+03 -1.10829E+04  6.59697E+03 -1.05643E+04  9.21962E+03  9.97503E+02
  4.36155E+03  7.26773E+03  1.94514E+03  1.28076E+04  2.34687E+03  6.26780E+03  1.84834E+02 -6.26660E+03
  1.64698E+02 -4.89277E+03  8.18292E+02 -1.94111E+03  3.44816E+02 -2.14037E+03  1.19181E+03 -7.36440E+02
  2.75447E+03  1.99636E+03 -1.07146E+03  3.85743E+03  1.55816E+03 -1.70964E+03  2.43002E+03  8.42175E+00
  3.95486E+03  1.64955E+03  9.23930E+03 -3.80615E+02  3.96470E+03  1.20003E+04 -5.13488E+02  2.10588E+03
 -7.94434E+03 -5.66614E+03 -9.98952E+03 -2.92451E+03 -8.56187E+03  1.49177E+03 -3.21208E+03 -5.85553E+03
 -2.25681E+03 -5.74110E+03  3.33436E+03 -5.60935E+02  2.56251E+03  2.92003E+03  2.29969E+03  6.32881E+03
 -4.84045E+03  4.56212E+03 -6.70792E+03 -2.48771E+03 -5.37388E+03 -1.05163E+04  1.38633E+03 -1.82419E+03
  4.73442E+03  2.60725E+03  7.39758E+02  2.15321E+01  3.17838E+02 -2.08507E+03  2.32278E+03  7.24094E+03
 -6.24244E+03  4.68924E+03 -1.42552E+03  5.45608E+02  2.81512E+03 -6.70070E+03  3.00778E+03 -1.20726E+03
  8.59550E+03 -2.48461E+03  9.83092E+03  1.22985E+03  3.74355E+03  3.38088E+03 -9.92923E+02  5.64686E+03
 -3.83009E+03 -1.11293E+03 -2.39512E+03 -6.81545E+03 -5.13980E+03 -2.50536E+03  1.41282E+03 -8.36121E+03
  8.48113E+03  1.68723E+03  6.59879E+03  4.03424E+03  1.05291E+03  5.23854E+03  5.47624E+03  8.29808E+03
 -2.49969E+03  1.56061E+03 -3.01141E+03  2.72534E+03 -2.41810E+03  1.55098E+03 -1.36539E+03  8.22286E+02
 -7.43205E+02  9.07188E+03 -8.20150E+03  4.94125E+03 -7.72666E+03  3.06027E+03 -7.56722E+03 -1.18532E+03
 -2.34313E+03 -3.12232E+03  7.32211E+02 -8.20621E+03  5.93177E+03 -5.45238E+02  2.38507E+03  1.00130E+03
  1.12659E+04  4.23593E+03  8.19476E+03  3.39048E+03 -3.33383E+03  4.95849E+03 -9.34846E+02  5.84418E+03
 -4.36798E+03  6.15857E+03 -5.59649E+03 -2.75993E+03 -5.58405E+03 -8.57390E+02 -8.13382E+02 -2.73470E+03
 -2.28098E+02 -2.78133E+03 -3.67800E+03 -3.70452E+03 -6.75277E+03  1.54356E+02  2.66224E+03 -1.52089E+03
  1.53270E+03 -2.41554E+03  3.10058E+03  5.23254E+03  5.62650E+03  1.64443E+03  5.59539E+02  6.79018E+03
  1.36257E+03  7.75253E+03 -4.95421E+03  3.39426E+03 -6.40210E+03 -3.40852E+03 -2.94904E+03 -2.60135E+03
 -4.47141E+03 -7.19926E+03 -4.29444E+02 -7.14710E+03  7.01253E+02 -8.53313E+02  2.54468E+03 -2.55907E+03
  2.77366E+03  6.13211E+03  2.48916E+03  2.54303E+03  1.90288E+03  3.46859E+03  4.54727E+02  2.96435E+02
  7.93783E+03 -2.07781E+03 -1.49808E+03 -9.24554E+02  1.35068E+03  4.48900E+03 -2.52112E+03  1.25518E+03
 -2.23685E+03  5.48171E+03 -2.67984E+03 -6.16124E+03 -2.26824E+03 -5.01537E+03 -1.74921E+03 -3.72073E+03
  8.54993E+02 -9.71327E+02  4.41945E+03  4.75397E+02  2.71913E+03  4.03944E+03 -2.61715E+03  6.29788E+03
 -1.93982E+03  9.85142E+03  2.17118E+03  2.12198E+03 -5.02667E+03 -2.21576E+03 -2.28015E+03  3.34843E+03
 -3.20396E+03 -2.04571E+03 -1.10882E+03  3.76643E+03  1.32090E+03  2.13155E+03 -6.50504E+03 -2.29103E+03
 -7.28936E+03 -3.71102E+03 -3.36859E+03 -7.74840E+02 -5.53162E+01 -5.56788E+03  2.15394E+03 -5.13978E+03
  3.43331E+03  5.97536E+03  1.84763E+03  5.87037E+03  5.17263E+03  1.70525E+03 -6.58951E+01 -8.35103E+02
