 $NMID ID='MM_0lb_SNR50_16hz_g45_58.RAW', FMTDAT='(8E13.5)'
 TRAMP=1., VOLUME=1. $END
  3.09830E+05 -1.93551E+03  3.38296E+05  2.55629E+05  8.30406E+04  3.36185E+05 -1.35688E+05  2.51090E+05
 -1.91576E+05  8.35404E+04 -1.11777E+05 -2.97698E+04  4.66662E+02 -4.87956E+04  5.45187E+04 -8.98223E+02
  3.69821E+04  5.20235E+04 -1.39137E+04  7.74954E+04 -5.81899E+04  6.53479E+04 -8.46712E+04  3.21968E+04
 -7.85400E+04 -1.04251E+04 -5.76336E+04 -4.87746E+04 -1.27078E+04 -7.12477E+04  2.63703E+04 -4.66870E+04
  3.93256E+04  8.03414E+03  1.80929E+04  4.72466E+04 -3.66449E+04  5.16070E+04 -6.49669E+04  4.53154E+03
 -5.46648E+04 -5.69250E+04 -9.32056E+03 -7.81819E+04  3.19385E+04 -5.62350E+04  4.34497E+04 -1.75022E+04
  4.54966E+04  1.59107E+04  2.89604E+04  2.20664E+04  1.35163E+04  2.58229E+04 -5.48098E+03  2.55742E+04
 -1.90662E+04  1.51490E+04 -1.87537E+04 -5.61767E+03  3.66226E+03 -1.23971E+04  2.15801E+04  1.06023E+04
  4.62083E+03  3.45962E+04 -3.57452E+04  3.49361E+04 -6.07679E+04  3.64311E+03 -5.68005E+04 -3.95936E+04
 -1.11938E+04 -6.57815E+04  3.88171E+04 -4.45403E+04  6.21617E+04 -2.73402E+03  3.64976E+04  3.22527E+04
 -5.35650E+03  3.70201E+04 -2.87782E+04  9.51198E+03 -2.72297E+04 -5.02392E+03 -1.81199E+04 -5.64181E+03
 -1.17269E+04 -1.43521E+04 -2.04813E+03 -1.73778E+04  1.96298E+03 -1.98118E+04  1.70612E+04 -1.18711E+04
  1.53254E+04  5.87818E+03 -1.24090E+04  1.42664E+04 -2.06068E+04 -4.35024E+03 -8.48314E+03 -3.17979E+04
  2.16506E+04 -3.94446E+04  4.27390E+04 -1.52939E+04  4.22336E+04  2.07566E+04  1.66082E+04  4.00948E+04
 -1.70530E+04  2.62941E+04 -2.22313E+04  4.32330E+03 -3.96815E+03 -2.73059E+04  2.16310E+04 -2.98324E+04
  3.76534E+04 -8.18277E+03  3.28642E+04  2.16197E+04  1.37339E+04  4.31428E+04 -6.70637E+03  5.00324E+04
 -3.00890E+04  2.89964E+04 -3.79034E+04  8.18676E+03 -3.92006E+04 -1.80619E+04 -2.17967E+04 -3.40175E+04
  8.62093E+03 -3.61093E+04  3.04605E+04 -1.77048E+04  2.86421E+04  6.07374E+03  2.93564E+03  1.41436E+04
 -1.60742E+04  9.42264E+03 -9.05749E+03 -6.24197E+03  5.75491E+03 -7.66883E+03  1.76361E+04  5.93780E+03
  1.91614E+04  2.71889E+04 -8.67267E+03  2.71283E+04 -2.27559E+04  1.19038E+04 -3.28467E+04 -7.84842E+03
 -1.81074E+04 -1.85298E+04 -6.51107E+03 -1.89524E+04  5.92444E+02 -1.83589E+04  1.38265E+04 -1.92036E+04
  2.34965E+04 -1.46038E+04  2.77054E+04  4.52996E+02  2.24491E+04  1.76847E+04  4.94378E+03  3.39693E+04
 -1.48647E+04  2.84281E+04 -2.46556E+04  1.04669E+04 -2.21747E+04 -6.66944E+03 -3.28263E+03 -1.76301E+04
 -9.52230E+02 -2.19604E+03 -9.78386E+03  9.48883E+03 -1.71291E+04  1.08434E+04 -1.32360E+04 -7.19563E+03
 -9.33911E+03 -1.76844E+04  3.22945E+03 -1.88678E+04  1.25007E+04 -1.71999E+04  1.87849E+04  7.84757E+02
  8.33647E+03  1.54840E+04 -1.89158E+03  1.65098E+04 -9.69721E+03  8.67619E+03 -1.46602E+04 -4.19515E+03
 -1.25276E+04 -2.05748E+04 -2.12989E+02 -2.18521E+04  6.22290E+03 -1.64879E+04  1.70787E+04 -8.13143E+03
  1.58286E+04  3.83913E+03  1.02199E+04  2.21726E+03  3.92216E+03  5.22806E+03  6.43500E+03 -2.15598E+03
  1.78912E+04  4.77281E+03  1.68186E+04  1.47204E+04  9.13347E+03  2.58303E+04 -2.35845E+03  3.18684E+04
 -1.60778E+04  2.48577E+04 -2.71393E+04  1.06366E+04 -2.65931E+04 -1.15186E+03 -2.48967E+04 -1.12972E+04
 -1.53613E+04 -2.13715E+04  7.10393E+03 -2.25000E+04  1.58177E+04 -1.27654E+04  1.44775E+04  5.47249E+03
  6.80267E+03  1.30584E+04 -9.38428E+03  1.25327E+04 -1.30005E+04 -1.78572E+03 -1.11724E+04 -9.55336E+03
 -2.91220E+03 -1.91821E+04  1.65544E+03 -1.14492E+04  1.10170E+04 -1.52318E+03 -3.03181E+03  5.95213E+02
 -5.51728E+03 -1.58929E+03 -2.67773E+03 -6.11574E+03  3.79124E+03 -6.44798E+03  8.55566E+03 -9.99653E+03
  1.13374E+04 -7.65683E+03  1.39032E+04  3.56466E+03  9.59610E+03  1.36914E+04  8.76636E+03  1.86806E+04
 -4.71075E+03  1.50560E+04 -1.00242E+04  9.36275E+03 -1.39510E+04  1.37597E+03 -1.27054E+04 -4.69665E+03
 -2.70205E+03 -1.00146E+03 -2.12686E+03 -2.80635E+03 -6.18399E+02  4.78890E+03 -2.54438E+03  2.37676E+03
 -1.36857E+04 -1.41603E+03 -6.43833E+03 -1.12075E+04 -2.71339E+03 -1.33268E+04  2.18050E+03 -1.15715E+04
  1.38857E+04 -6.91516E+03  5.76621E+03  3.44542E+03  7.15702E+02  6.69574E+03 -6.16440E+03  5.42104E+03
 -1.20512E+03 -4.82351E+03  3.53267E+03 -9.71451E+03  4.51047E+03 -6.55626E+03  1.44146E+04 -7.71326E+03
  1.69583E+04  4.52581E+03  7.79929E+03  5.46343E+03  7.47807E+02  9.35860E+03 -5.45261E+03  1.12704E+04
 -8.28986E+03  4.29370E+02 -1.56160E+03  1.61346E+03  1.71543E+03 -7.53833E+03  9.23260E+03 -2.42377E+02
  5.70480E+03 -2.77983E+02 -4.26816E+03  1.02387E+04 -7.97428E+03  1.09101E+04 -8.25328E+03  5.69891E+03
 -8.69197E+03 -1.82611E+03 -3.61245E+02 -9.29518E+03  1.04364E+04 -2.79730E+03  4.37206E+03  4.28687E+02
 -4.06704E+03  9.81494E+03 -4.63340E+03  4.02620E+03 -8.78433E+03  2.70552E+03 -1.88384E+03 -2.65852E+03
 -4.38956E+03 -8.15478E+03 -1.83498E+03 -8.25075E+03  8.59820E+03 -6.31173E+03  7.90481E+03  2.43405E+03
  1.13200E+04  1.04653E+04  1.15227E+03  7.65279E+03 -5.73244E+03  8.49771E+03 -5.55071E+03  3.98881E+03
 -1.04375E+04 -7.49338E+03 -1.00663E+03 -1.14731E+04  5.05039E+03 -5.10940E+03  4.68549E+03 -2.69929E+03
  6.78921E+03  4.45138E+03 -7.65342E+02  2.13468E+03  7.42050E+02  4.87009E+02 -1.76125E+03 -3.36978E+03
  2.76765E+03 -1.04278E+03  7.98352E+03  1.40427E+03  8.16991E+03  9.81485E+03  4.83975E+03  7.62543E+03
 -2.82339E+03  1.11990E+04 -7.22604E+03  1.09016E+04 -1.17695E+04 -4.62077E+03 -5.19465E+03 -4.18290E+03
 -2.01018E+03 -1.38125E+04 -7.64178E+02 -1.91085E+03 -8.38718E+02 -6.02230E+03 -2.04193E+03  2.36109E+03
  2.27857E+02  1.12790E+03  2.22713E+02 -9.07643E+02  1.89965E+03 -2.78269E+03  6.44231E+03  2.27789E+03
  7.50185E+03  2.45701E+03  1.38652E+03  6.58557E+03  1.74131E+01  5.91859E+03 -6.40983E+03  1.33305E+03
 -6.91746E+03  4.55893E+03 -4.89301E+03 -5.01808E+03  2.84973E+03 -6.44425E+03  6.90080E+03 -6.29585E+03
  6.19941E+03 -3.03275E+03  8.06383E+03  1.23227E+03  1.94045E+03  8.42291E+03 -2.11390E+03  8.26485E+03
 -5.21468E+03  1.12657E+04  9.49738E+02  2.29940E+03 -3.08187E+03 -1.01869E+03 -1.42859E+03 -2.05018E+03
  4.00257E+03 -7.48838E+02  1.32773E+03 -2.22987E+01 -4.88514E+03  1.69800E+03 -2.95105E+03 -6.22684E+03
 -1.66992E+03 -6.51399E+03  3.02354E+03 -8.53927E+03  8.43606E+03 -8.77017E+03  7.03387E+03 -1.89143E+03
  6.67520E+03 -2.46780E+03  1.78677E+03  4.68505E+03 -1.38636E+03  5.67004E+03 -2.66910E+03 -4.40191E+03
 -6.60264E+03 -1.84170E+03 -1.16358E+04 -2.84999E+03 -5.76061E+02 -2.89893E+03  6.74074E+03 -3.37763E+02
  7.69014E+03  8.45072E+01  3.27969E+03 -4.73605E+03  4.47977E+03  4.24650E+03 -1.45326E+02 -4.49444E+02
  5.01092E+03 -1.34288E+03 -2.12574E+03 -2.17020E+02  8.08629E+02  3.18465E+03  3.83306E+03  1.79344E+03
 -1.36010E+03  4.22621E+03 -6.15819E+03  4.33096E+03 -4.54609E+03  1.68134E+03 -5.96926E+03 -1.11751E+03
  4.55459E+03 -5.25173E+03 -1.84106E+03 -4.55493E+03 -4.53324E+02 -5.21894E+03  8.60478E+03 -2.47944E+03
  1.29960E+03  2.40598E+03  3.67334E+03  2.37390E+03  2.09514E+03  3.45110E+03  6.62380E+02 -1.36805E+03
 -3.72844E+01 -3.31344E+02  7.61478E+03 -1.19905E+02  5.49079E+03 -4.99185E+03  7.72269E+03  4.39508E+03
 -3.09073E+02  1.96920E+03  5.71485E+03  3.33941E+02 -1.25718E+02  4.93695E+03  4.29057E+03  3.00467E+03
  6.58491E+02  1.49470E+03  6.93690E+02  2.10540E+03  1.52269E+03  3.60011E+03 -5.96426E+03  7.24079E+03
  3.74145E+03 -2.50623E+03 -3.73298E+03  2.28313E+03 -1.27348E+01 -2.91466E+03  6.05929E+02 -3.20173E+03
 -4.71212E+03 -2.79404E+03  1.96849E+03  4.47950E+03  1.03936E+03 -2.12390E+03  4.34524E+02 -5.68521E+02
 -3.15081E+03  1.08437E+03  2.16928E+03 -5.18931E+03 -1.05298E+01 -1.46755E+03 -6.96995E+03  9.58184E+02
  3.72650E+03 -6.07293E+03  5.28732E+03  2.88485E+03  2.50355E+02  3.66892E+03  4.69341E+03 -4.13335E+03
 -1.40694E+01  2.37248E+03 -4.76331E+03  3.57114E+03 -8.33631E+01 -2.18773E+03 -2.38577E+03  6.29889E+02
  3.51162E+03  6.44157E+02  2.08694E+03 -1.48062E+03  4.65787E+02  7.86802E+02 -1.21148E+03  1.52577E+03
 -4.51756E+03 -1.20083E+02 -9.56151E+02  4.71121E+03 -1.16227E+03 -4.86978E+02 -2.43317E+03  1.35217E+03
 -5.71047E+02 -3.30461E+03  1.64148E+03  3.16764E+03  2.83362E+03 -2.47254E+03  3.70884E+03 -1.29859E+02
 -1.29654E+03  6.62237E+03 -3.25750E+03  1.62114E+02  6.11130E+02  6.51616E+02 -1.75781E+03  3.23785E+03
  3.87678E+03 -9.59853E+02 -3.56429E+03 -1.87123E+03  7.53844E+02  1.09406E+03 -4.10902E+03 -1.49639E+03
 -9.97953E+02  1.03766E+03  3.99134E+02 -9.22566E+03  1.57983E+03 -5.53569E+03  8.72700E+03  3.77044E+03
  3.23478E+03 -3.13672E+03 -3.12670E+02  5.68947E+03  3.93169E+03  7.46725E+02  3.62201E+03  6.71777E+03
 -4.39783E+03  2.94604E+03 -2.99273E+03  1.01459E+03 -7.75382E+02 -9.56979E+02 -2.60973E+03  3.05427E+03
 -9.93576E+02  4.81894E+02  1.33773E+03  1.38698E+03  1.01956E+03  3.54544E+02 -3.74835E+03 -1.81269E+03
  5.06041E+03  1.19676E+03  7.95259E+02  4.48638E+02  1.36337E+03  1.41910E+03  4.37208E+02  9.85737E+02
 -5.68101E+02  5.23897E+03 -4.02524E+03  7.28857E+02 -3.18141E+03 -2.16347E+03 -1.87097E+03 -3.83588E+03
  2.61916E+03 -3.99230E+03  2.34746E+03 -3.56707E+03  9.42407E+01 -5.90625E+02 -1.31396E+03  1.50297E+03
  4.30031E+02 -9.03471E+02 -2.65491E+02 -1.46416E+03 -2.78261E+03  1.00443E+03  1.68630E+03  2.64397E+03
  2.75770E+03 -3.91201E+03 -1.13351E+03  2.84501E+03  2.72090E+03  2.75982E+03 -1.24044E+02  2.31142E+03
 -4.34529E+02  4.95231E+00  7.07619E+02  2.36530E+03 -2.34936E+03  2.53427E+03  3.64721E+03 -2.40076E+03
 -1.03199E+03  1.01947E+03  1.26963E+03 -2.09782E+03  1.99298E+03 -1.04709E+03  1.23548E+03 -3.61806E+00
  5.03610E+03  3.89091E+03  5.22776E+03  7.65691E+02 -5.77045E+03 -5.20463E+03 -2.18381E+03  1.93892E+03
 -9.04835E+02  6.04676E+03 -1.07649E+03  5.15031E+02  2.74333E+03  1.66846E+03 -3.91107E+03  5.12627E+02
  1.48076E+03 -9.07174E+02 -8.40641E+02  1.74453E+03  1.48189E+03  1.33520E+02  2.31950E+03 -4.37658E+03
 -8.07131E+01 -4.54730E+03 -1.93020E+03  8.56109E+03  2.87365E+03  2.13074E+03 -7.85749E+03  1.17357E+03
