 $NMID ID='MM_0lb_SNR50_10hz_g55_100.RAW', FMTDAT='(8E13.5)'
 TRAMP=1., VOLUME=1. $END
  3.14134E+05 -3.04884E+03  3.43628E+05  2.53459E+05  7.62780E+04  3.31032E+05 -1.37465E+05  2.49298E+05
 -1.92101E+05  7.76153E+04 -1.18901E+05 -3.09961E+04  4.23975E+03 -5.01594E+04  5.01967E+04 -3.42629E+03
  3.77181E+04  5.12521E+04 -1.81244E+04  8.12885E+04 -5.88344E+04  6.19331E+04 -8.80391E+04  3.44334E+04
 -8.45062E+04 -1.78532E+04 -5.57504E+04 -5.25225E+04 -1.48934E+04 -7.13487E+04  2.68059E+04 -4.48168E+04
  3.74961E+04  2.18392E+03  1.32373E+04  4.67093E+04 -3.19288E+04  4.64828E+04 -6.90068E+04 -2.99473E+03
 -6.17925E+04 -6.04138E+04 -1.32818E+04 -7.89694E+04  3.52082E+04 -5.30161E+04  5.08740E+04 -1.79281E+04
  4.16791E+04  1.27311E+04  3.29206E+04  2.18001E+04  1.09589E+04  3.53639E+04 -2.96889E+03  2.60529E+04
 -2.40450E+04  1.05865E+04 -2.05331E+04 -5.17437E+03  9.97417E+02 -8.81999E+03  2.81754E+04  1.35967E+04
  1.38023E+04  3.37044E+04 -2.36212E+04  3.96580E+04 -6.39711E+04  8.52242E+03 -5.68253E+04 -4.75521E+04
 -1.55093E+04 -6.75131E+04  3.93137E+04 -4.71791E+04  6.03408E+04  6.34791E+03  3.61242E+04  3.47273E+04
 -8.73414E+03  3.46468E+04 -3.34750E+04  2.30788E+04 -3.30878E+04 -6.00631E+03 -1.01356E+04 -1.46959E+04
 -1.20710E+04 -1.79139E+04  8.04424E+03 -2.13957E+04  6.56454E+03 -2.80455E+04  1.68863E+04 -1.46389E+04
  1.14200E+04  4.19564E+03 -9.80425E+03  1.24563E+04 -1.95412E+04 -3.74457E+03 -9.60959E+03 -3.36659E+04
  2.22856E+04 -4.45504E+04  5.44119E+04 -2.03915E+04  4.63582E+04  1.77732E+04  2.10063E+04  4.62739E+04
 -1.71882E+04  3.61927E+04 -1.94249E+04  5.84613E+03 -1.35234E+04 -2.61710E+04  2.09124E+04 -4.23812E+04
  5.02071E+04 -1.36674E+04  3.94346E+04  2.55874E+04  2.50591E+04  5.06538E+04 -5.25588E+03  5.56136E+04
 -3.72211E+04  3.76152E+04 -5.03743E+04  1.35817E+04 -4.91667E+04 -2.20241E+04 -3.51034E+04 -4.15771E+04
  5.93667E+03 -4.18067E+04  3.82152E+04 -1.51046E+04  3.55698E+04  8.01456E+03  8.16550E+03  2.34782E+04
 -1.43531E+04  8.77231E+03 -5.69012E+03 -1.27950E+04  4.37975E+03 -1.46645E+04  1.78930E+04  6.33199E+03
  1.27620E+04  2.50662E+04 -7.67594E+03  2.96407E+04 -2.56564E+04  1.13604E+04 -3.42352E+04  2.58989E+02
 -2.41728E+04 -1.97544E+04 -1.31731E+04 -2.16466E+04  1.26563E+03 -2.42379E+04  1.98628E+04 -2.11323E+04
  3.10157E+04 -1.58908E+04  3.71168E+04  6.77333E+03  2.50442E+04  1.83940E+04  1.14249E+03  3.85492E+04
 -1.83878E+04  3.08558E+04 -2.87360E+04  9.36458E+03 -2.26671E+04 -3.67017E+03 -4.98908E+03 -1.59305E+04
  2.41610E+03 -4.16415E+03 -1.04156E+04  8.72628E+03 -2.36163E+04  1.04050E+04 -1.61082E+04 -5.56256E+03
 -1.14966E+04 -2.25735E+04  3.45504E+03 -2.65828E+04  2.29990E+04 -2.70825E+04  2.57028E+04 -1.17328E+03
  1.88395E+04  1.17642E+04 -4.27769E+02  2.29802E+04 -1.79050E+04  1.66867E+04 -1.92239E+04 -4.81620E+03
 -1.65093E+04 -2.47042E+04 -3.60982E+03 -3.14249E+04  9.84497E+03 -2.30694E+04  2.51582E+04 -1.04748E+04
  1.99316E+04  8.51889E+02  1.47122E+04  4.21661E+03  4.59533E+03  2.31258E+03  1.05578E+04  2.43072E+02
  2.45938E+04  1.00983E+03  2.72519E+04  1.99405E+04  1.34759E+04  3.93418E+04 -4.39289E+03  4.01495E+04
 -2.52803E+04  3.46672E+04 -4.31192E+04  1.77480E+04 -4.06766E+04 -1.12168E+04 -2.35338E+04 -2.99527E+04
 -1.77541E+04 -3.16067E+04  1.14717E+04 -3.06665E+04  2.93948E+04 -9.52089E+03  1.93587E+04  1.01484E+04
  6.11384E+03  1.73644E+04 -1.36829E+04  1.45937E+04 -1.86684E+04 -4.23135E+03 -1.80396E+04 -1.10691E+04
 -1.49214E+03 -2.06414E+04  9.54950E+03 -1.33156E+04  7.14871E+03  9.31612E+02  4.28531E+03  2.61913E+03
 -1.03223E+04 -4.16315E+02 -2.88784E+03 -7.69100E+03  5.32624E+00 -1.46230E+04  5.86415E+03 -1.59585E+04
  2.11142E+04 -1.60952E+04  2.70205E+04 -2.57932E+03  1.70183E+04  1.51059E+04  6.93513E+03  3.48241E+04
 -8.84477E+02  3.25898E+04 -1.50323E+04  1.73437E+04 -2.17254E+04  3.72473E+03 -1.77414E+04 -4.27998E+03
 -9.61690E+03 -2.18860E+03 -2.63318E+02 -3.25174E+02 -3.03876E+03  7.23501E+03 -2.52246E+03  6.29535E+03
 -1.02685E+04  1.65227E+03 -1.83009E+04 -1.41746E+04 -6.09316E+03 -2.31522E+04  4.22164E+03 -1.02905E+04
  8.32879E+03 -6.45406E+03  2.72791E+03  1.27042E+04 -4.33813E+03  2.10718E+03 -7.72212E+03 -2.65887E+03
 -6.37412E+03 -1.15630E+04 -1.76635E+03 -7.70188E+03  7.24810E+03 -2.29034E+04  1.78799E+04 -7.60654E+03
  1.53649E+04  8.73738E+02  1.30038E+04  1.74818E+04  3.63345E+03  2.23608E+04 -1.45678E+04  1.54620E+04
 -1.08600E+04  2.39023E+03 -5.55432E+03 -5.97936E+03  4.93482E+03 -3.83496E+03  7.07713E+03  5.29941E+01
  7.07177E+03  5.83107E+01 -4.98436E+03  1.50311E+04 -1.45974E+04  1.64735E+04 -1.80667E+04  1.62535E+03
 -8.66648E+03 -9.99643E+03 -1.16040E+03 -1.22111E+04  6.73086E+03 -4.71107E+03  7.83040E+03  1.04365E+04
  7.98275E+02  1.08995E+04 -7.27817E+03  1.46522E+04 -1.52346E+04  7.27507E+03 -1.79100E+04 -1.89212E+03
 -9.10313E+03 -1.55339E+04  1.31598E+03 -1.28173E+04  1.78105E+04 -1.26629E+04  1.23737E+04  1.68661E+03
  1.42106E+04  6.83484E+03  1.25758E+03  1.58908E+04 -9.04984E+03  3.25081E+03 -1.21063E+04 -9.03705E+02
 -1.41679E+04 -1.20097E+04  2.66024E+03 -2.22547E+04  5.05431E+03 -7.26476E+03  9.14551E+03 -5.70420E+03
  4.85303E+03 -1.77495E+03 -3.41778E+03  2.91308E+03 -4.56588E+03 -7.85020E+02 -1.24276E+03 -9.07791E+03
  1.30479E+04 -3.40786E+03  1.44185E+04 -6.11995E+02  1.31345E+04  4.08105E+03  8.10222E+03  2.35871E+04
 -4.69704E+03  1.90361E+04 -2.66618E+04  9.63836E+03 -1.54997E+04  1.01301E+04 -2.27164E+04 -1.49874E+04
 -8.80273E+03 -1.64922E+04 -1.31719E+03 -1.15380E+04  4.38898E+03 -1.47051E+04  4.69133E+03 -7.27618E+03
  6.89751E+03 -8.28291E+02 -1.85963E+03 -6.24943E+03  3.23315E+03 -5.35642E+03  7.29988E+03 -9.22191E+02
  9.50842E+03  4.47172E+03  2.65853E+03  1.00901E+04  3.99151E+02  8.83858E+03 -1.12564E+04  9.64892E+03
 -1.44433E+04 -1.01820E+03 -1.31068E+04 -9.96722E+03 -7.23530E+02 -8.95980E+03  2.65269E+03 -1.26846E+04
  1.86230E+04 -7.78698E+03  2.09201E+04  3.59706E+01  1.42353E+04  1.26083E+04  4.78084E+03  8.27059E+03
 -6.91554E+03  1.99756E+04 -1.18094E+04  6.87877E+03 -5.93391E+03  1.31373E+03 -2.81925E+03 -2.82011E+03
  1.58187E+02 -4.35003E+03  1.43117E+03  4.54755E+03 -5.76169E+03 -2.94827E+03 -1.51270E+04 -6.45679E+01
 -8.31508E+03 -1.21173E+04  2.97615E+03 -1.26699E+04  3.11845E+03 -1.42069E+04  1.07185E+04 -7.31560E+02
  1.71068E+04  5.12437E+03  7.96569E+03  1.42624E+04 -2.85636E+03  8.79059E+03 -1.57299E+04  6.44719E+03
 -7.81111E+03  2.66812E+03 -1.14128E+04 -1.26440E+04 -1.12136E+03 -1.20793E+04 -1.63722E+03 -9.72147E+03
  8.05062E+03  1.43373E+03  5.85589E+03  2.09214E+03  5.74774E+03  4.99195E+03 -6.04945E+02 -4.18582E+03
  2.02300E+03 -5.15769E+03  7.59912E+03 -3.50935E+03  6.80760E+03  5.47131E+03  5.83592E+03  1.18753E+04
 -4.20402E+03  8.24641E+03 -7.51805E+03  7.83959E+03 -1.46196E+04 -4.53400E+02 -1.36169E+04 -4.91992E+03
 -7.94883E+03 -1.50886E+04 -3.76158E+02 -1.25194E+04  8.28431E+03 -1.43141E+04  9.03828E+03 -6.58227E+03
  8.87164E+03  4.72897E+03  4.52440E+03  8.87450E+03 -5.48786E+03  5.07161E+03 -1.59037E+03 -4.87568E+03
 -5.85936E+02 -9.35689E+03  5.48607E+02 -6.77357E+03  5.76670E+03 -4.59559E+03  2.04242E+03  4.25094E+03
 -6.41271E+02  3.42632E+03  5.74076E+02  9.68804E+03 -1.23917E+03 -3.39212E+03  8.30150E+02  5.47470E+03
  1.00355E+03 -2.63345E+02  8.89754E+02 -2.36388E+03  3.90310E+03  9.28398E+03  1.90702E+03  7.50567E+03
 -1.49250E+04  8.72675E+03 -7.05986E+03 -2.44533E+03 -7.43085E+03 -3.63026E+03 -2.45407E+03 -1.27221E+03
  1.01483E+04 -7.26418E+03  5.01309E+03 -1.32243E+03  6.14297E+03 -5.61452E+02  2.91573E+03  5.36756E+03
 -3.50076E+03  6.59161E+02 -3.47254E+03 -6.44185E+03 -4.84330E+03 -8.93977E+03  2.80795E+03 -5.95767E+03
  8.14497E+03  3.62577E+03  3.56329E+01  3.05206E+02  3.47501E+03  3.67406E+03 -2.56043E+03  2.98617E+03
 -7.73833E+03  3.30963E+02 -4.31202E+03 -2.06218E+03  5.85641E+03 -4.79598E+03  1.02100E+04 -4.41546E+03
  6.08602E+03 -3.50125E+03  1.45574E+04  2.90668E+03  5.42068E+03  7.90408E+03 -3.09383E+03  1.18136E+04
 -8.24701E+03  4.22798E+03 -4.44305E+03 -2.56243E+03 -7.98605E+02 -4.67251E+03 -2.09170E+02 -4.46537E+03
  6.96417E+03 -4.55098E+03  1.15776E+04  4.46045E+03  6.83599E+03  2.98226E+03  5.48775E+03  5.57317E+03
 -4.69478E+03  4.03991E+02  3.93821E+03  1.33068E+03  2.18334E+02  4.52945E+03 -6.45924E+02  6.29589E+03
 -6.12156E+03  7.34234E+03 -6.06519E+02  4.25854E+03 -1.09693E+04  2.45456E+03 -7.44766E+03 -4.55579E+03
 -2.74117E+03 -9.20372E+03  1.68254E+03 -1.37449E+04  1.11527E+04 -1.10044E+04  1.09851E+04 -2.88566E+03
  1.80666E+04  3.77456E+03  9.00349E+03  8.22754E+03 -5.88674E+02  9.40592E+03 -9.16871E+02  1.18262E+04
 -8.60041E+03  6.43919E+00  1.35991E+03  3.08168E+03 -4.31150E+03  3.70693E+03  4.19157E+02  4.89565E+03
  2.72210E+03  2.65589E+03 -2.76451E+03 -3.26585E+03 -7.82980E+03 -3.87716E+03  3.66214E+03  7.22300E+01
  6.31685E+03 -6.47597E+03  7.97342E+03  1.00693E+02  1.40927E+03 -4.67957E+03  5.07725E+03  1.05846E+04
  9.60108E+02  1.16284E+04 -9.07681E+03  5.59794E+03 -7.87737E+03 -5.86636E+02 -6.26244E+03 -5.39974E+03
 -1.85083E+03 -1.78150E+04  4.57400E+03 -1.32966E+04  2.04746E+03 -2.99089E+03  9.04184E+03 -7.37566E+02
  3.21978E+02  4.18713E+03  1.49478E+03 -5.99035E+02 -7.93063E+03 -1.99593E+03 -6.67405E+02 -2.87448E+03
  2.63319E+03  6.13706E+03  8.24251E+03 -5.74608E+03  2.33773E+03  2.38945E+02  1.80126E+03  1.20091E+04
 -5.28144E+03  4.89670E+03 -8.82902E+03  2.85354E+03 -8.27542E+03 -2.75562E+03 -3.79714E+03 -1.46322E+01
  8.38439E+03 -9.67425E+03  8.09333E+03 -8.99987E+02  6.05028E+03  5.17213E+02  8.00724E+02  1.05953E+03
  2.70831E+02  6.52045E+03  1.42875E+03  6.63529E+03 -4.50388E+03  4.12953E+03 -7.53780E+03  3.39459E+02
 -5.46940E+03 -1.82839E+03 -3.75182E+03 -1.11132E+03 -4.03304E+03 -1.06555E+03 -7.41921E+03 -5.01133E+03
 -5.11284E+03 -6.67966E+03 -1.03671E+03 -3.83553E+03 -8.76231E+02 -6.41966E+03  8.52759E+03 -6.19475E+03
  3.91169E+03 -2.27844E+03  6.77320E+03  4.04700E+03 -1.52988E+03  7.19024E+03 -7.26449E+03  4.78833E+03
