 $NMID ID='MM_0lb_SNR50_9hz_g45_55.RAW', FMTDAT='(8E13.5)'
 TRAMP=1., VOLUME=1. $END
  3.15078E+05 -3.47978E+03  3.38475E+05  2.50112E+05  8.21250E+04  3.37749E+05 -1.34356E+05  2.56897E+05
 -1.91347E+05  7.78300E+04 -1.09882E+05 -3.23291E+04  2.43089E+03 -5.13094E+04  5.62108E+04  4.52492E+03
  3.84924E+04  5.13715E+04 -1.38085E+04  8.22121E+04 -6.08349E+04  6.52169E+04 -8.87482E+04  2.75843E+04
 -8.57940E+04 -8.51925E+03 -5.91777E+04 -5.62323E+04 -1.65101E+04 -7.23100E+04  2.76977E+04 -5.46368E+04
  3.87415E+04 -3.29306E+03  1.34495E+04  4.16965E+04 -3.91816E+04  4.27398E+04 -7.21260E+04 -7.23479E+02
 -5.52738E+04 -5.96808E+04  1.93852E+01 -8.20570E+04  3.50288E+04 -5.14112E+04  4.96540E+04 -2.01276E+04
  4.36529E+04  1.32738E+04  3.06723E+04  3.29952E+04  1.49508E+04  2.55780E+04 -8.24451E+03  2.93894E+04
 -2.83421E+04  1.98313E+04 -1.90126E+04  3.64760E+03  5.57354E+02 -4.15427E+03  2.46739E+04  1.58428E+04
  2.78268E+03  3.76694E+04 -3.22829E+04  3.46822E+04 -6.70024E+04  8.37277E+02 -6.19569E+04 -3.71196E+04
 -1.26015E+04 -7.10768E+04  3.81558E+04 -4.74168E+04  6.09459E+04  6.43026E+03  3.20748E+04  3.78874E+04
 -4.00182E+03  3.67695E+04 -2.70128E+04  1.17169E+04 -2.93284E+04 -4.34694E+03 -1.18720E+04 -1.27745E+04
 -1.05792E+04 -1.96402E+04 -1.59462E+03 -2.38429E+04  1.10826E+04 -1.90078E+04  1.82509E+04 -1.33208E+04
  1.41167E+04  6.37515E+02 -1.68622E+04  1.62978E+04 -2.64566E+04 -2.82458E+03 -9.56707E+03 -3.50359E+04
  1.74483E+04 -5.24015E+04  5.27693E+04 -2.38863E+04  4.65216E+04  2.21052E+04  1.49783E+04  4.14515E+04
 -1.75582E+04  3.32992E+04 -2.77946E+04  2.95401E+03 -1.02909E+04 -3.17299E+04  1.77639E+04 -4.08815E+04
  4.71486E+04 -1.07254E+04  3.92485E+04  2.39166E+04  2.19093E+04  5.21178E+04 -1.43379E+04  6.06234E+04
 -3.41162E+04  3.38985E+04 -4.66788E+04  9.79849E+03 -4.37680E+04 -2.23734E+04 -2.97177E+04 -4.14043E+04
  3.44717E+03 -4.74270E+04  3.40068E+04 -1.75623E+04  3.20999E+04  1.39577E+04  6.86664E+03  1.86059E+04
 -1.28726E+04  7.48284E+03 -1.27678E+04 -6.76443E+03  3.92758E+03 -1.39634E+04  1.99840E+04  2.80361E+03
  1.55997E+04  2.40710E+04 -3.63288E+03  2.73764E+04 -2.07095E+04  1.88404E+04 -3.25931E+04 -5.89570E+03
 -2.23657E+04 -1.68977E+04 -7.00547E+03 -3.01732E+04 -4.74584E+02 -2.83400E+04  1.52954E+04 -2.67587E+04
  3.35933E+04 -9.58558E+03  4.02540E+04  1.09819E+04  2.46987E+04  2.40867E+04  2.34024E+03  3.73923E+04
 -2.29805E+04  3.25807E+04 -3.59917E+04  1.12238E+04 -1.95993E+04 -1.25552E+04 -7.43177E+03 -1.26700E+04
  5.90644E+03  8.05384E+02 -5.49514E+03  4.65887E+03 -1.72078E+04  1.62543E+03 -2.09119E+04 -1.02104E+04
 -8.36376E+03 -2.61137E+04  3.95934E+03 -2.87719E+04  1.81718E+04 -1.80427E+04  2.11547E+04 -4.89491E+03
  1.53547E+04  1.49475E+04  3.97646E+03  2.02086E+04 -1.37065E+04  1.15363E+04 -2.24880E+04 -5.19623E+03
 -2.11859E+04 -1.77209E+04 -5.38860E+03 -2.70412E+04  1.85619E+04 -2.41765E+04  1.69570E+04 -1.18623E+04
  2.46675E+04  4.87173E+03  1.82634E+04  8.35241E+03  1.10819E+04  9.42753E+02  1.04099E+04  2.80108E+03
  1.86246E+04 -1.42896E+03  2.65181E+04  1.23755E+04  1.49662E+04  3.09365E+04 -1.07415E+04  4.19747E+04
 -2.82682E+04  3.51392E+04 -4.04691E+04  2.24010E+04 -4.06680E+04 -2.36757E+03 -3.10193E+04 -3.02017E+04
 -9.23040E+03 -3.75997E+04  8.89038E+03 -3.43909E+04  2.99713E+04 -1.29819E+04  2.30284E+04  6.43666E+03
  1.39973E+04  1.64601E+04 -1.73576E+04  1.35614E+04 -1.63108E+04 -1.31667E+03 -1.54118E+04 -1.10897E+04
 -2.43365E+02 -1.14621E+04  1.22642E+04 -1.57981E+04  1.50240E+04  9.78373E+02  2.35445E+03  6.70374E+03
 -4.27495E+03  1.22663E+04 -8.94069E+03 -7.39248E+03 -6.71168E+03 -9.76562E+03  1.08595E+04 -1.75953E+04
  2.05599E+04 -1.40553E+04  3.19379E+04  3.22367E+03  1.89335E+04  2.29379E+04  1.32614E+04  2.74372E+04
 -1.05234E+04  3.11327E+04 -2.32360E+04  1.76222E+04 -2.35937E+04 -1.63647E+03 -8.73907E+03 -8.38445E+03
 -6.32402E+03 -8.54429E+03 -1.63272E+03  3.81765E+03 -3.69968E+03  6.22110E+03  8.97957E+02  4.34200E+03
 -1.71269E+04 -9.82719E+03 -1.25500E+04 -1.50661E+04 -2.90513E+03 -2.04915E+04  7.13706E+03 -1.76445E+04
  1.26890E+04 -1.07565E+04  9.97702E+03  6.38662E+03  2.64269E+03  6.90445E+03 -7.69056E+03  2.86774E+03
 -1.15471E+04 -6.34545E+03 -4.91758E+03 -1.04461E+04  1.10345E+04 -1.48375E+04  2.13009E+04 -8.26924E+03
  2.70577E+04  1.50624E+03  1.53752E+04  1.04323E+04  9.55939E+03  1.58986E+04 -8.47181E+03  1.89607E+04
 -7.25971E+03  7.77754E+03 -6.94720E+03 -3.05041E+03 -3.16971E+03 -3.99935E+03  6.14930E+03  5.19855E+03
  7.94967E+03  4.57383E+03  9.94184E+02  1.77128E+04 -7.62284E+03  1.05458E+04 -1.01812E+04 -4.02012E+02
 -9.49966E+03 -9.60277E+03  2.43113E+01 -1.27714E+04  1.37104E+04 -9.98183E+03  4.95935E+03  9.62528E+02
  4.34583E+03  6.63649E+03 -9.73549E+03  9.39853E+03 -8.63017E+03  5.72505E+03 -1.32043E+04 -4.47193E+03
 -1.60932E+04 -2.16011E+04 -1.05375E+03 -1.87435E+04  2.03295E+04 -1.75863E+04  1.64249E+04  4.21940E+03
  1.41345E+04  1.33077E+04  2.38133E+03  1.21321E+04 -1.11618E+04  5.87803E+03 -8.09972E+03 -3.24762E+03
 -1.06921E+04 -1.10802E+04 -4.60158E+03 -7.42307E+03  5.36963E+03 -1.13568E+04  1.15105E+04  4.81144E+03
  3.47955E+03  2.32734E+03  1.39778E+03 -1.55686E+03 -2.16813E+03 -2.65953E+03  7.51880E+03 -6.00237E+03
  1.25643E+04 -3.84822E+03  1.81941E+04  7.55502E+03  9.85789E+03  8.94492E+03  1.02826E+04  2.49679E+04
 -5.78520E+03  2.10532E+04 -1.89066E+04  2.02438E+04 -2.85296E+04  7.30376E+03 -2.86667E+04 -1.19726E+04
 -1.28249E+04 -1.87215E+04  3.29479E+03 -1.83314E+04  3.13468E+03 -6.90931E+03 -2.21501E+02 -7.75606E+03
  3.25160E+03 -1.26074E+03 -8.97529E+02 -1.22471E+03  3.32187E+03 -9.83100E+03 -1.07321E+03  6.94015E+03
  5.82202E+03 -1.53129E+03  2.06645E+03  1.53360E+04 -1.13801E+03  1.33949E+04 -1.07640E+04  1.27050E+04
 -9.99102E+03  2.26177E+03 -1.07298E+04 -1.42723E+04  6.45659E+02 -2.20503E+04  9.75831E+03 -1.68285E+04
  1.94386E+04 -9.43618E+03  2.45690E+04  3.78974E+03  1.13867E+04  6.63331E+03  2.52053E+03  2.28764E+04
 -6.84865E+02  1.41220E+04 -1.35856E+04  5.89222E+03 -8.64974E+03 -2.09580E+03  1.17165E+03 -6.64665E+03
  1.46623E+03  5.90649E+03 -5.02044E+03 -5.41841E+02 -3.03407E+03  4.32690E+02 -1.22370E+04  6.96883E+03
  6.82655E+02 -1.20731E+04 -4.16461E+03 -1.42480E+04  1.24265E+04 -1.23116E+04  1.68803E+04  4.09540E+03
  1.41711E+04  7.21693E+03  1.00276E+04  1.83290E+04 -5.52502E+03  1.56333E+04 -1.13704E+04  8.02267E+03
 -1.17516E+04 -6.68446E+03 -8.12765E+03 -2.46095E+03 -4.65828E+03 -1.33574E+04  9.59819E+03 -1.26504E+04
  6.38868E+03 -5.46056E+02  1.27444E+03  3.45134E+03 -1.07132E+03  5.36938E+03  4.94074E+03  6.70368E+03
  2.28046E+03  8.56063E+02  7.52024E+03 -2.68240E+03  5.94451E+03  1.30565E+04  1.01451E+03  7.98481E+03
 -6.09400E+03  1.27732E+04 -1.12165E+04  1.07599E+04 -1.72663E+04  4.30102E+03 -1.68355E+04 -4.76849E+03
 -4.48875E+03 -1.22112E+04  5.23369E+03 -1.76638E+04  1.07076E+04 -1.11437E+04  8.87589E+03  2.30096E+03
  8.49436E+03  1.12067E+03 -2.69527E+03  6.51255E+03 -1.57234E+03  2.06622E+03 -8.77962E+03 -2.11949E+03
 -2.47830E+03 -9.42874E+03  6.23690E+03 -6.01149E+03  5.54855E+03  9.22345E+02  1.10631E+04  4.73538E+03
  4.32002E+03  6.45452E+01 -7.02950E+03 -1.15375E+03 -1.44951E+03 -1.00675E+03  5.49277E+03 -4.26400E+02
 -1.52899E+03 -3.42024E+03  1.14626E+04  6.20350E+03  6.63724E+03  1.16413E+04  5.19878E+03  1.45680E+04
 -1.96996E+03  8.74020E+03 -1.32370E+04  3.20690E+03 -8.54876E+03 -3.09986E+03 -6.55662E+03 -2.93971E+03
 -4.69725E+03 -3.63157E+03 -4.66352E+02 -2.19746E+03  7.96526E+03  2.91809E+03  1.06876E+03 -1.70540E+03
 -5.18390E+03  4.85617E+02 -5.85769E+03  1.46435E+03  9.74107E+02 -7.77954E+03  7.05789E+03 -6.70178E+03
  1.28231E+03 -7.10184E+02  1.29267E+03  2.04864E+03  8.12020E+03  6.15260E+03  3.67336E+03  2.71089E+03
 -5.04702E+03  2.33736E+03  1.43355E+03 -1.11695E+04 -6.09626E+02 -8.94479E+03  5.41157E+03 -3.05051E+03
  7.64190E+03  5.99648E+03  5.32392E+03  7.94226E+03 -2.73136E+03  8.36471E+03  2.54293E+03  1.35771E+04
 -4.67914E+03  6.05231E+03 -4.55789E+03  6.99124E+02 -5.23786E+03 -8.77965E+03  3.48967E+03 -7.30072E+03
  2.52254E+03 -8.57061E+03  5.89060E+03  2.92968E+03 -3.06477E+03  1.99302E+03 -4.82242E+03  6.87767E+03
 -7.78579E+03 -2.16466E+03 -5.20051E+03  7.31111E+03 -4.01039E+03  3.82159E+03  1.90258E+03  3.67859E+02
  9.60251E+02  2.94947E+03 -6.56079E+03  3.57558E+03 -3.61720E+03  6.65882E+03 -1.62679E+04 -1.21284E+03
 -1.55502E+03 -7.69503E+03  9.22098E+03 -1.48103E+04  1.06089E+04 -5.13129E+03  1.67985E+04 -6.24337E+03
  9.59446E+03  6.61954E+01  9.30963E+03  1.56276E+04 -2.28347E+02  1.02126E+04 -4.30655E+03  8.89316E+03
 -2.53846E+03  1.56574E+03 -4.82252E+01 -3.93304E+03 -8.49530E+02  1.55561E+02  2.78014E+03  4.68707E+03
 -3.86345E+03  3.45939E+03 -2.59819E+03  4.19831E+03 -8.13145E+03 -3.71673E+02 -7.48768E+02 -5.28472E+03
  1.00146E+03 -2.79046E+03  7.09855E+03  2.57355E+03  5.10354E+03  6.59913E+02  8.68606E+02  1.44556E+04
 -3.65364E+03  1.28100E+04 -8.96446E+03  7.97208E+03 -1.18353E+04 -2.60986E+03 -7.94876E+03 -9.29274E+03
 -4.99050E+03 -1.06958E+04  4.70952E+03 -7.33419E+03  2.77768E+03  2.43952E+03 -7.44094E+02  6.91580E+03
  5.84332E+03  4.07858E+02  1.09150E+03 -6.70959E+02 -5.47031E+03 -2.68397E+03 -5.84558E+03  3.48665E+03
 -1.78972E+03 -3.79280E+03  5.57707E+03  2.62280E+03 -2.90364E+03  1.12797E+04 -4.09735E+03  1.19114E+04
 -9.16932E+03  8.83890E+03 -5.07932E+03  1.69025E+03 -3.42034E+03  3.22952E+03  5.20678E+03 -9.52871E+03
  7.79035E+03 -7.14333E+03  1.04161E+04 -1.07860E+04  9.18050E+03  1.02565E+03 -1.23108E+03  9.38833E+03
 -5.21351E+03  9.28326E+03  9.00819E+02 -5.79619E+00 -2.19631E+03  3.20983E+03 -5.74008E+03  5.37559E+03
 -8.04598E+03 -5.00819E+03 -6.57504E+03 -1.60209E+03 -6.83273E+03  4.92541E+03 -8.93916E+03 -2.75841E+03
 -1.05727E+04 -9.46842E+02 -1.56538E+03 -6.03234E+03  2.62215E+03 -1.55860E+04 -3.69922E+03 -1.40446E+02
  5.72462E+03  4.04049E+03  2.50616E+03  3.94941E+03  5.74968E+02  8.80755E+03 -7.62893E+03  5.74953E+03
