 $NMID ID='MM_0lb_SNR50_20hz_g50_78.RAW', FMTDAT='(8E13.5)'
 TRAMP=1., VOLUME=1. $END
  3.15908E+05 -1.06246E+03  3.37599E+05  2.50776E+05  8.42436E+04  3.39849E+05 -1.30093E+05  2.50685E+05
 -1.93976E+05  8.04624E+04 -1.09193E+05 -3.08393E+04  9.69269E+02 -5.09089E+04  5.49326E+04  2.05336E+03
  3.61498E+04  5.62275E+04 -1.82951E+04  7.62133E+04 -5.97242E+04  6.38842E+04 -8.01825E+04  3.24689E+04
 -8.51926E+04 -1.12436E+04 -5.80958E+04 -5.15032E+04 -1.37778E+04 -6.92437E+04  2.90141E+04 -4.24093E+04
  3.95607E+04  5.71871E+03  1.24527E+04  4.71232E+04 -3.09220E+04  4.70716E+04 -6.50879E+04  4.23138E+03
 -5.01890E+04 -5.63817E+04 -5.46879E+03 -7.69176E+04  3.25024E+04 -5.10045E+04  4.09196E+04 -1.23341E+04
  3.68773E+04  4.74363E+03  2.94584E+04  2.32375E+04  1.38973E+04  3.46956E+04 -5.05361E+03  2.39848E+04
 -2.24607E+04  1.26602E+04 -1.93635E+04 -4.35977E+03  2.65098E+03 -1.40495E+04  2.23463E+04  7.10648E+03
  8.40238E+03  2.80728E+04 -3.50096E+04  3.28011E+04 -6.12676E+04  6.52102E+02 -5.57642E+04 -4.31618E+04
 -1.22448E+04 -5.94759E+04  3.65784E+04 -4.43088E+04  5.58647E+04 -2.53149E+03  3.27236E+04  2.94503E+04
 -1.01262E+04  2.90717E+04 -2.54061E+04  1.25190E+04 -2.63161E+04 -6.07513E+03 -1.65247E+04 -1.05189E+04
 -8.62134E+03 -8.41807E+03 -9.07190E+02 -1.86539E+04  5.26254E+03 -2.50158E+04  1.29776E+04 -1.82570E+04
  1.49639E+04  5.71342E+03 -3.93044E+03  9.97745E+03 -1.87598E+04 -3.61115E+03 -6.68635E+03 -2.59211E+04
  2.21886E+04 -3.95960E+04  4.52768E+04 -1.63191E+04  4.02868E+04  1.95503E+04  1.18240E+04  3.96320E+04
 -9.55484E+03  2.75524E+04 -2.57041E+04  1.53389E+03 -8.73775E+03 -2.77832E+04  2.31371E+04 -2.71164E+04
  3.69638E+04 -5.01926E+03  3.22526E+04  2.42594E+04  1.25549E+04  4.25672E+04 -6.51280E+03  4.53503E+04
 -2.93258E+04  3.12505E+04 -4.06393E+04  1.05263E+04 -3.69172E+04 -1.28988E+04 -2.02690E+04 -2.89232E+04
  7.28973E+03 -3.58791E+04  2.90379E+04 -1.33119E+04  2.69179E+04  7.16444E+03  7.06512E+03  1.47294E+04
 -1.17975E+04  5.99679E+03 -9.22360E+03 -8.70238E+03  3.19622E+03 -8.04239E+03  1.74037E+04  6.37999E+03
  1.31854E+04  1.90290E+04 -8.18522E+03  2.19402E+04 -2.13260E+04  4.86051E+03 -2.33473E+04 -5.59970E+03
 -1.64881E+04 -1.67738E+04 -8.00992E+03 -1.54024E+04  4.09205E+02 -1.20919E+04  1.15886E+04 -8.82441E+03
  2.02609E+04 -1.41541E+04  2.41839E+04 -1.76719E+03  2.29454E+04  1.63888E+04  7.44668E+02  3.01397E+04
 -1.74191E+04  2.89335E+04 -2.22601E+04  1.19019E+04 -1.81415E+04 -6.55683E+03 -4.53229E+03 -1.31597E+04
  3.07659E+03 -3.20366E+03 -1.75053E+03  6.62098E+03 -1.49730E+04  5.37223E+03 -1.25488E+04 -7.71399E+02
 -6.50477E+03 -1.33094E+04  3.31093E+03 -2.30879E+04  1.32639E+04 -1.65941E+04  1.51745E+04  3.49168E+03
  1.41916E+04  1.00684E+04 -1.84342E+03  1.88543E+04 -1.40556E+04  7.61951E+03 -1.63160E+04 -5.32250E+03
 -9.40552E+03 -1.63123E+04 -2.03110E+02 -1.47417E+04  6.10843E+03 -1.76588E+04  1.95747E+04 -7.33426E+03
  9.31218E+03  9.90728E+01  1.13011E+04  3.83808E+03  4.63043E+03  1.71240E+03  7.76762E+03  5.44019E+03
  1.19069E+04 -1.06606E+03  1.47356E+04  1.30166E+04  5.30722E+03  2.02990E+04 -4.18240E+03  2.33206E+04
 -1.62630E+04  2.22856E+04 -2.14478E+04  7.00722E+03 -2.05851E+04  6.03814E+02 -1.69628E+04 -1.42259E+04
 -9.29015E+03 -1.94779E+04  8.15102E+03 -1.79042E+04  1.80632E+04 -1.45520E+04  1.35830E+04  2.92038E+03
  8.07510E+03  8.50530E+03 -8.15887E+03  8.71725E+03 -1.04689E+04  1.21068E+03 -1.01411E+04 -8.51882E+03
  2.24513E+03 -1.03470E+04  1.00876E+04 -8.90806E+03  5.33317E+03  1.47107E+03  5.94855E+03  5.99231E+03
 -2.72423E+03  1.57352E+03 -2.11480E+03 -5.88487E+03  2.03212E+03 -7.38199E+03  7.19596E+03 -7.74841E+03
  1.38384E+04 -3.80372E+03  9.46542E+03  5.16169E+03  7.98611E+03  8.78455E+03  8.74169E+03  1.29337E+04
  1.21295E+02  1.18129E+04 -7.80959E+03  1.00929E+04 -1.08779E+04  5.15532E+03 -6.31559E+03  4.19994E+02
 -5.76057E+03 -2.89352E+03 -5.79899E+03  4.37095E+03 -5.18572E+03 -7.86722E+01 -4.76930E+03 -5.78753E+02
 -7.00414E+03  2.12709E+03 -9.91025E+03 -3.84729E+03 -2.12634E+03 -1.10544E+04  1.38815E+03 -4.38603E+03
  7.99118E+03 -2.73211E+03  2.56301E+03  2.66470E+03  2.08674E+03  4.94930E+03 -7.27342E+03  1.16090E+03
 -5.73789E+03 -6.36531E+03 -3.26617E+03 -6.21517E+03  2.99671E+03 -6.16006E+03  7.77947E+03 -3.30686E+03
  6.58421E+03 -2.22414E+03  7.47256E+03  7.17704E+03  3.12741E+02  6.83120E+03 -5.20369E+03  1.43735E+04
 -5.66109E+03  2.21284E+03 -8.16336E+02  1.13354E+03  2.68540E+03 -6.43048E+03  2.77831E+03 -5.04925E+02
  7.06633E+03  4.43736E+03  1.85968E+03  6.99796E+03 -1.43358E+03 -1.75946E+03 -9.56562E+03  1.76218E+03
 -1.89768E+03 -3.74533E+03 -2.44505E+03 -7.68629E+03  4.89357E+03 -3.53273E+03  4.40974E+02  3.71382E+03
 -5.90652E+02 -3.19401E+03 -2.53290E+03  3.02941E+03 -6.58960E+03  1.68099E+03 -3.81133E+03  1.83113E+03
 -2.43805E+03 -3.41476E+03  2.08914E+03 -2.21029E+03  4.61579E+03 -8.17072E+03  4.52028E+03  1.21741E+03
  3.94346E+03  7.20077E+03  7.18593E+02  2.43139E+03 -2.54648E+03  7.31479E+03 -4.13088E+02 -6.80301E+02
 -4.94492E+03 -2.86289E+03 -1.60978E+03 -8.70798E+02  1.47148E+03 -3.37344E+03  4.42936E+03 -3.90146E+03
  1.64641E+02  1.19838E+03  1.13519E+03  4.71500E+03 -7.68829E+02 -1.16921E+03  3.25260E+03  4.05547E+02
  5.97540E+03  9.87890E+02  4.26804E+03 -4.64347E+02  6.30937E+03  3.05827E+03  5.03968E+03  1.63346E+03
 -7.38950E+02  8.33610E+03 -7.25664E+03  6.28577E+03 -7.83266E+03  4.65897E+03 -1.20381E+03 -1.02518E+03
 -2.42113E+03 -3.54541E+03  8.45149E+02 -8.25909E+03 -9.55991E+02 -3.80280E+03  4.15157E+03 -1.66589E+03
 -1.47831E+03 -2.74190E+03  4.40877E+03  2.96150E+03  3.00361E+03  3.67477E+03  1.65742E+03  2.17608E+03
  4.29865E+03 -4.19266E+03  2.05161E+03  3.36013E+03 -3.50412E+03  2.22028E+03 -4.32163E+03  2.41665E+03
 -4.05852E+03 -3.19519E+03  4.03339E+02  1.35168E+03 -2.50693E+01 -5.07358E+03  4.17357E+02 -3.08271E+03
  4.31159E+03 -3.01331E+03  6.54520E+03  2.69030E+03  7.66870E+03  4.72749E+03  5.35059E+02  4.91675E+03
 -9.35984E+02  7.44453E+03 -3.91099E+03  5.10040E+03  7.62884E+02 -2.22706E+03  1.85414E+02  2.20299E+03
 -3.92588E+03 -5.19166E+02  3.22213E+03  6.29023E+03 -2.72136E+03  6.28083E+03 -5.75644E+03  3.87520E+03
 -2.45039E+03 -3.66586E+03 -1.95510E+03 -4.71637E+03  3.11359E+03 -1.54426E+03  4.50448E+03  1.42314E+03
  5.29471E+03  1.29646E+02  1.74977E+03  3.27190E+03 -1.80102E+03  1.40511E+03  1.43573E+01  3.88339E+03
 -6.83033E+02 -3.12340E+02 -2.74934E+03 -8.79614E+03  2.12894E+03 -3.62115E+03 -5.08963E+02 -1.94757E+03
  3.41083E+03 -2.12658E+03 -7.79133E+02 -5.92770E+02  1.40985E+03 -1.10500E+03 -1.43726E+02 -7.70525E+02
 -1.07263E+03  7.53724E+02  1.07851E+03  1.89919E+03  2.50243E+03  2.00154E+03  2.75845E+03 -2.82022E+03
 -6.09934E+02  1.73646E+03  2.04041E+03  6.95439E+02 -2.55613E+03  3.13417E+03 -4.86177E+03  3.41481E+03
  1.21272E+03 -3.52850E+03 -5.67826E+02 -2.82411E+03  1.49038E+03 -1.45911E+03  7.56428E+03  3.87109E+03
  3.98825E+03  2.78924E+03  6.70506E+02  3.26702E+02  1.56581E+03 -3.33412E+03 -2.44879E+03  1.55321E+03
 -1.64652E+03 -3.26371E+02  3.50626E+03 -5.25705E+02  1.11394E+03 -4.36585E+03  2.20296E+03 -7.57688E+02
  2.74714E+03 -7.84468E+03  1.35742E+03 -7.00468E+00  5.81733E+03  2.61647E+03  3.09150E+03  1.81687E+03
  2.11775E+03  2.16310E+03 -1.22356E+03 -2.32359E+03  4.65156E+02  1.48579E+03 -8.43063E+02  1.00546E+03
  2.04945E+03  5.67870E+02 -2.31963E+02  6.00251E+02 -2.79869E+03 -2.30293E+03  8.03745E+02 -6.01061E+03
  1.49756E+03  4.12016E+02  1.03861E+03  2.33213E+03 -7.37529E+02 -2.68742E+03  1.49596E+03  1.11630E+03
 -3.81096E+03  2.86131E+03 -6.29542E+02  1.91908E+03 -4.53146E+03  4.93131E+02 -2.73301E+02  1.71898E+03
  2.64939E+03 -2.17125E+03 -1.89735E+02  1.97681E+03  5.73727E+02 -1.74777E+03  6.46404E+02  2.63980E+03
  1.42851E+03 -3.41271E+03 -4.99523E+02 -4.03948E+03  8.61083E+02  3.44604E+02 -7.37714E+01 -5.69067E+02
  1.99480E+03 -7.81193E+02  1.13096E+03 -3.20246E+03 -1.63859E+03 -1.09035E+03  2.38082E+02  2.33667E+03
 -1.02889E+02  1.32552E+03  8.07776E+02 -1.61019E+03  3.96422E+02  3.80016E+03  1.98272E+03  1.19871E+03
  1.31186E+03  3.09491E+03  2.90771E+02 -3.11535E+03 -1.45117E+01  1.28037E+03 -2.83975E+03  1.89073E+03
 -1.19109E+03  2.07588E+03 -3.14346E+02  4.79251E+03  2.15357E+02 -1.09814E+03 -2.78737E+03  1.69716E+03
 -3.24834E+03  2.42532E+03 -2.71826E+03 -7.82550E+01 -1.61004E+03  1.47320E+03 -3.13032E+03 -2.34046E+03
  6.13950E+02 -1.84790E+03 -1.16866E+03  7.71103E+02  2.55889E+03 -2.50784E+03  1.40498E+03 -3.77367E+03
 -1.04658E+03  1.35860E+03 -3.46465E+03  1.46854E+03 -2.66477E+03  5.65320E+02  1.81406E+03 -1.21160E+03
 -2.58863E+03  1.52831E+03 -3.25713E+03  2.10638E+03 -2.17507E+03 -1.53828E+02 -1.54736E+03 -1.21532E+03
  1.98219E+01 -1.43884E+02  3.54674E+03  3.37483E+03  1.22437E+03  1.94388E+03  1.20415E+03 -3.78551E+03
  5.11838E+03 -7.06582E+02  1.92868E+03  3.05221E+02  1.61791E+03  3.23148E+03  3.01440E+03 -2.04808E+03
 -1.71553E+02  3.72667E+02 -6.26341E+03 -1.31203E+03  6.00630E+02  3.61445E+02 -3.08168E+03 -3.89401E+02
 -2.06694E+03 -9.78415E+02  3.05537E+02  7.76358E+02  1.55099E+03 -2.17301E+03 -1.26804E+03  5.39434E+02
  1.59559E+03 -1.92094E+03  1.43543E+03  5.96576E+03  2.02578E+02 -1.06282E+03 -5.18773E+03 -1.67754E+03
  4.03928E+02  4.39919E+03 -6.36291E+02 -1.09816E+03 -1.05421E+03 -1.41108E+03  4.42243E+03 -2.94995E+03
 -3.66877E+03  4.04989E+03  2.89151E+03 -5.48198E+02 -3.87431E+02 -2.70803E+03 -3.19083E+03  2.62994E+02
  1.48180E+03  7.82227E+02  1.44612E+03 -9.88205E+02  9.30534E+02 -1.38264E+03  8.51889E+02 -1.30577E+03
 -1.73038E+02 -3.28184E+02 -1.39347E+02  3.82716E+02 -5.52958E+03 -1.61110E+02 -1.27223E+03 -1.28050E+03
  2.02437E+03 -1.79927E+03  3.84100E+03 -1.83167E+03 -3.06515E+03  4.37572E+02 -2.42634E+03  1.56540E+03
  4.14525E+02  1.63681E+03  1.80388E+03  2.35754E+02  1.61999E+02 -4.14843E+03  4.22945E+03  1.30454E+03
 -6.37071E+01 -6.31603E+03 -2.69868E+03 -8.79089E+02  3.10672E+03  5.22068E+02 -7.43215E+02 -1.99728E+03
