 $NMID ID='MM_0lb_SNR50_16hz_g40_23.RAW', FMTDAT='(8E13.5)'
 TRAMP=1., VOLUME=1. $END
  3.09647E+05 -2.18451E+03  3.38960E+05  2.49291E+05  8.22335E+04  3.42258E+05 -1.30325E+05  2.52076E+05
 -1.90958E+05  8.22119E+04 -1.12054E+05 -3.03462E+04 -8.54376E+02 -4.72543E+04  5.24219E+04  2.27350E+03
  3.10901E+04  5.55779E+04 -1.39067E+04  7.24074E+04 -5.61825E+04  6.18023E+04 -8.04632E+04  3.11049E+04
 -7.90695E+04 -1.28178E+04 -5.45684E+04 -4.80178E+04 -1.04836E+04 -7.08726E+04  2.31314E+04 -4.92004E+04
  3.68591E+04  7.41688E+03  1.85511E+04  4.46666E+04 -3.73536E+04  4.76880E+04 -6.41185E+04 -1.94110E+03
 -5.40439E+04 -5.31974E+04 -4.68948E+03 -7.41937E+04  3.53909E+04 -5.77790E+04  5.22120E+04 -1.46018E+04
  4.37286E+04  1.02089E+04  3.01349E+04  2.29603E+04  1.63251E+04  2.79905E+04 -7.76264E+03  2.82911E+04
 -2.44936E+04  1.61371E+04 -1.41865E+04 -3.13754E+03  8.89266E+03 -1.06902E+04  2.40002E+04  1.05149E+04
  4.72923E+03  3.46730E+04 -2.88287E+04  2.96966E+04 -6.33618E+04  2.82485E+03 -5.00649E+04 -4.47127E+04
 -1.58990E+04 -6.25004E+04  4.05922E+04 -4.57843E+04  5.56378E+04 -5.19680E+03  3.28707E+04  2.88966E+04
 -7.72229E+03  3.11296E+04 -3.05565E+04  1.79161E+04 -2.83603E+04 -5.52854E+03 -1.49554E+04 -1.02291E+04
 -5.83567E+03 -1.12516E+04  4.50604E+02 -1.52835E+04  8.05075E+03 -2.28483E+04  1.10384E+04 -1.40473E+04
  1.67732E+04  5.69668E+03 -6.33621E+03  1.55202E+04 -1.92262E+04 -3.16454E+03 -2.20611E+03 -3.14668E+04
  2.23514E+04 -3.87509E+04  4.67045E+04 -1.66156E+04  3.92444E+04  2.30875E+04  1.35717E+04  4.51120E+04
 -1.64099E+04  3.07533E+04 -2.66049E+04 -2.50580E+03 -7.17988E+03 -2.32982E+04  2.10614E+04 -3.65484E+04
  3.94398E+04 -1.02935E+04  3.51039E+04  2.13854E+04  1.73376E+04  4.41788E+04 -1.12428E+04  4.78215E+04
 -2.34489E+04  2.86807E+04 -3.47603E+04  5.87987E+03 -4.31249E+04 -1.63419E+04 -2.06973E+04 -3.53717E+04
  1.28454E+04 -3.68903E+04  3.09569E+04 -1.32340E+04  2.98545E+04  1.03483E+04  2.88323E+03  1.55859E+04
 -1.14185E+04  6.28638E+03 -1.11717E+04 -1.05551E+04  4.71804E+03 -1.01930E+04  1.72452E+04  9.95431E+03
  1.26549E+04  1.77586E+04 -5.48440E+03  2.35186E+04 -2.24850E+04  1.03178E+04 -2.69221E+04 -9.69669E+03
 -1.79889E+04 -1.79071E+04 -6.26673E+03 -1.86371E+04  7.29862E+03 -2.00963E+04  1.51181E+04 -1.33114E+04
  2.05871E+04 -1.01358E+04  3.08840E+04  5.91806E+03  2.39648E+04  1.77552E+04  1.79307E+03  3.55827E+04
 -1.77135E+04  3.47457E+04 -2.74265E+04  1.11990E+04 -1.79600E+04 -6.61074E+03 -4.98083E+03 -1.44547E+04
  2.05787E+03 -4.48078E+03 -6.29632E+03  2.44269E+03 -1.44359E+04  2.78035E+02 -1.09752E+04 -7.84577E+03
 -7.43898E+03 -1.80870E+04  5.55729E+03 -1.76054E+04  1.09683E+04 -1.02582E+04  1.82086E+04 -1.04833E+03
  9.27822E+03  1.02017E+04 -2.13745E+03  1.74036E+04 -1.08504E+04  1.01589E+04 -1.86782E+04 -3.18418E+03
 -9.48722E+03 -1.88509E+04 -1.87149E+03 -2.12313E+04  7.82385E+03 -1.63610E+04  1.68144E+04 -1.27326E+04
  1.74523E+04  3.42845E+02  1.40320E+04  1.62671E+03  6.23037E+03  2.87913E+03  1.21412E+04  1.36250E+03
  1.31041E+04 -1.19663E+03  1.47956E+04  1.53462E+04  8.50908E+03  2.25670E+04 -1.30660E+03  3.26713E+04
 -1.62824E+04  1.66417E+04 -2.63469E+04  1.72353E+04 -2.95317E+04 -4.14539E+03 -2.34214E+04 -1.83355E+04
 -1.39896E+04 -2.13555E+04  7.46857E+03 -1.66144E+04  1.91119E+04 -1.22214E+04  1.69714E+04  4.27749E+03
  7.73384E+03  1.10810E+04 -8.97954E+03  1.08821E+04 -1.44462E+04  9.70718E+02 -1.18380E+04 -7.00402E+03
  3.45266E+03 -1.37477E+04  9.18644E+03 -9.09024E+03  6.62816E+03 -5.28532E+03 -9.93904E+02  3.15907E+03
 -5.56865E+03  1.39912E+03 -2.88992E+03 -3.57144E+03  2.88731E+03 -4.22637E+03  7.61184E+03 -1.04413E+04
  1.22918E+04 -3.35883E+03  1.48125E+04  1.15063E+03  9.54119E+03  1.22404E+04  5.24729E+03  1.49354E+04
 -3.72826E+03  1.53002E+04 -1.05424E+04  8.19551E+03 -8.28671E+03  9.62083E+03 -7.77391E+03 -9.59895E+03
 -5.41839E+03 -7.29648E+03  3.08018E+03  2.63171E+03 -3.94663E+03  8.96144E+03 -2.89344E+03  4.41876E+03
 -7.40260E+03  9.68335E+02 -8.06703E+03 -8.30480E+03 -1.19802E+03 -1.26552E+04 -2.39582E+02 -8.52394E+03
  1.24503E+04 -9.18090E+03  9.41970E+03 -1.37518E+02  2.88982E+03 -2.27376E+03 -2.52595E+03 -1.86133E+03
 -3.30200E+03 -4.81658E+03 -4.08514E+02 -1.19633E+04  2.45171E+03 -1.00428E+04  7.56832E+03 -2.29364E+02
  1.09207E+04  1.35263E+03  1.14030E+04  5.23750E+03  8.01407E+03  1.29175E+04 -6.24748E+03  6.53909E+03
 -1.26226E+04 -1.44097E+03 -3.98962E+03  4.19580E+02  4.85018E+03 -1.03401E+03  2.20085E+03 -1.00328E+03
 -2.14983E+02  8.44983E+02  1.79592E+03  1.31562E+04 -3.23613E+03  9.04757E+03 -9.23425E+03 -1.05383E+03
 -2.40102E+03 -5.92232E+02  1.34441E+02 -7.99792E+03  3.89982E+03 -7.43860E+03  2.31849E+03  3.79460E+03
 -1.59368E+03  8.68176E+03 -9.51915E+03  3.49558E+03 -3.22363E+03  3.02165E+03 -3.99678E+03  5.69081E+02
 -5.42476E+01 -9.31053E+03 -3.29938E+03 -7.89277E+03  4.57181E+03 -5.33633E+03  9.51354E+03  1.00921E+03
  7.01243E+03  5.71214E+03 -8.28356E+02  7.10030E+03 -9.84393E+03  5.83814E+03 -7.74381E+03  6.93154E+02
 -1.02291E+04 -7.93938E+03  8.58850E+02 -7.68951E+03  1.86070E+03 -3.09356E+03  3.77893E+03 -4.63402E+03
  3.52625E+03  2.88935E+03 -4.59115E+03  2.71179E+03 -3.97339E+02 -2.47995E+03  3.01612E+03 -2.47063E+03
  8.69984E+03  3.21215E+03  4.89076E+03  2.48064E+02  8.95656E+03  1.18480E+03  5.66467E+03  1.32259E+04
 -4.80042E+03  1.33889E+04 -1.28390E+04  9.07180E+03 -8.69441E+03  5.89833E+03 -7.76637E+03 -6.63265E+02
 -5.95408E+03 -1.22400E+04 -1.28435E+03 -3.95875E+03  8.25624E+02 -8.65320E+02  2.95989E+02 -1.02144E+03
 -7.29112E+02  3.41770E+02  8.38484E+02  6.02407E+02  3.04797E+03 -3.72719E+03  6.92790E+03 -1.80872E+03
  3.59464E+03 -1.48497E+03 -1.81671E+02  2.87182E+03 -6.28936E+03  2.15094E+03 -1.79938E+03  1.90493E+03
 -9.95707E+03 -4.55870E+03 -8.67363E+03 -6.58584E+03 -1.33368E+02 -7.02243E+03  6.46638E+03 -8.78253E+03
  1.04951E+04 -4.40133E+03  6.16275E+03  3.85389E+03  7.79141E+03  2.05840E+03 -3.15373E+02  8.47158E+03
  1.01886E+03  5.28949E+03 -3.96612E+03  1.16431E+03 -3.94396E+03 -6.62549E+02 -5.16440E+02 -8.44504E+02
  5.28785E+02  9.30809E+02 -2.89880E+03  5.35302E+03  1.70117E+02  1.55508E+03 -4.74791E+03 -2.86700E+02
  1.19365E+03 -2.56270E+03 -2.05409E+03  1.48639E+03  1.10002E+04 -3.36932E+03  6.85077E+03  1.90604E+03
  5.59622E+03  2.75576E+03  1.45046E+03  8.86172E+03 -1.43428E+03  5.22470E+03 -5.01916E+03  3.34300E+03
 -6.21144E+03  1.90403E+03 -3.51955E+03 -7.91977E+02  1.59186E+03 -5.61267E+03  1.19429E+03 -3.66639E+03
  5.08705E+03 -1.33544E+03  5.13958E+03  7.94391E+02 -2.98039E+02  2.85424E+03 -1.53734E+03  2.31932E+03
  4.64603E+02  2.96576E+03  3.48699E+03  1.12772E+03  7.95449E+02  4.17000E+03  4.20114E+03 -5.19496E+02
 -4.47204E+03  4.52117E+03 -2.25449E+03  1.12495E+04 -6.57402E+03 -2.80130E+02 -8.26979E+02 -1.43409E+02
 -4.42903E+03  1.01445E+02  2.37001E+03 -4.44026E+03  4.70496E+03 -4.41643E+03  4.97666E+02  2.87567E+03
  4.96031E+03  5.36702E+02 -9.85130E+02  3.70909E+03 -3.84488E+03  3.40202E+03 -1.51527E+03  4.67509E+03
  1.51994E+01 -1.05994E+03  6.19908E+03 -5.71296E+03  5.43995E+03  3.11043E+03  2.81166E+03  1.94080E+03
 -2.54740E+03 -1.96108E+03  6.67188E+02  2.76513E+03 -6.31399E+02 -1.12413E+03  1.50305E+03  2.29712E+03
  1.13206E+03  1.96752E+03  6.46581E+03  1.95786E+03 -1.24726E+03 -2.13925E+03  1.38134E+03  1.05378E+03
 -4.10899E+03 -9.17273E+02 -3.94643E+03 -3.13534E+02 -2.39799E+03  1.02594E+03 -3.45429E+03 -8.64325E+02
  3.26977E+02 -3.92041E+02  1.06544E+03  1.27914E+03  3.12514E+03 -1.93414E+02 -5.31308E+03  2.06736E+03
 -1.69930E+03  1.78845E+03 -2.29613E+02 -1.95943E+03 -2.48025E+03 -2.69077E+03 -5.08671E+03 -1.35180E+03
  1.23242E+00 -2.31500E+03  4.05605E+02 -5.91742E+01 -2.89335E+03  3.40696E+03  6.30883E+03 -9.50373E+01
 -1.00713E+03  1.63053E+03  2.64218E+03 -1.78212E+03  1.07926E+02 -8.89361E+02 -1.18229E+03  1.66067E+02
 -1.08700E+03 -2.76774E+03  2.43141E+03  9.67515E+02  4.09597E+03  2.18308E+03 -8.64395E+02  3.89778E+03
 -2.11862E+02  4.49987E+03 -3.15383E+03  1.52844E+03  6.78279E+02 -2.30088E+03  3.05715E+03  3.14789E+03
 -6.59856E+02  2.49966E+03  6.82763E+02 -1.41405E+03  1.98520E+03  1.94569E+02 -1.15906E+03  2.86095E+03
 -2.40287E+02  3.62621E+03 -4.64067E+03  3.94501E+02  5.16721E+02 -1.36545E+02  1.76050E+03  3.02407E+03
 -8.09595E+01 -9.78896E+01 -5.10270E+03 -2.51926E+03 -7.78801E+02  1.77346E+03 -5.91255E+03 -2.00662E+03
  6.77259E+02 -2.96596E+03 -1.17973E+03 -6.98239E+03  5.16607E+03 -4.46652E+03  2.47684E+03 -3.08332E+03
  8.24019E+03  2.74759E+03  4.03141E+03  5.33838E+03 -1.30715E+03  4.05719E+03 -2.40204E+03 -2.35369E+03
 -1.84974E+03 -3.22547E+02 -9.62246E+02  7.30232E+02  6.84650E+02 -4.73331E+03 -5.26452E+03  1.59551E+03
 -4.28701E+03 -4.74004E+02 -1.20068E+02  5.61844E+03 -2.88060E+03 -3.01124E+01  2.79694E+03  3.84428E+02
 -2.54964E+03  5.73981E+03  1.73205E+03 -6.24793E+03  2.76583E+03  7.44134E+02 -2.83106E+03  4.66701E+02
 -3.20186E+03  1.98086E+03 -7.40430E+03  2.21516E+03 -1.25436E+02 -5.45104E+03 -9.84440E+00 -3.99744E+03
 -1.66957E+03 -9.41372E+03 -1.22374E+03  2.65269E+03  2.83048E+03 -6.24715E+02  1.99990E+03  1.84367E+03
  3.07341E+03  5.91610E+03 -9.62945E+02  2.69104E+03 -2.35695E+02  3.48543E+02  3.89964E+02 -7.46005E+02
 -7.05526E+02 -3.36262E+03  2.84651E+03  3.65290E+03 -2.58305E+02 -1.17583E+00  3.92015E+02  3.10600E+03
 -1.96486E+03 -2.25702E+03 -1.99728E+03  2.40365E+03 -4.09692E+03 -2.81127E+03 -6.46378E+02 -9.50796E+03
 -1.33145E+03  2.94459E+03  6.83236E+03  2.95967E+03  2.06471E+03  1.56448E+03  4.61643E+02  8.58908E+02
 -4.80082E+02  1.63010E+03 -6.28192E+03  3.85597E+03  2.04722E+03 -1.57564E+03 -3.68397E+03 -5.10770E+03
  1.51550E+03 -2.56103E+03  1.09889E+02  3.33895E+03 -5.31615E+03  4.11580E+03 -2.88898E+03 -3.39839E+03
 -2.32586E+03 -4.10313E+03  1.20966E+03  4.45783E+03 -2.22931E+02 -1.81549E+03  1.27224E+03 -4.49858E+03
  1.64082E+03 -1.05802E+03  1.68848E+03  3.48716E+02 -3.80686E+03 -1.55641E+01 -1.51756E+03  3.11622E+03
