 $NMID ID='MM_0lb_SNR50_14hz_g60_23.RAW', FMTDAT='(8E13.5)'
 TRAMP=1., VOLUME=1. $END
  3.09926E+05  1.93213E+03  3.32061E+05  2.45299E+05  8.45758E+04  3.35007E+05 -1.33175E+05  2.50680E+05
 -1.90684E+05  8.14993E+04 -1.11120E+05 -3.34409E+04  3.57886E+03 -5.06663E+04  5.19934E+04  3.46026E+02
  3.54022E+04  5.14740E+04 -1.77483E+04  8.07894E+04 -6.53345E+04  6.53618E+04 -8.85215E+04  3.45770E+04
 -8.02984E+04 -6.73908E+03 -5.94790E+04 -4.85021E+04 -1.75329E+04 -7.01938E+04  2.39501E+04 -4.40228E+04
  3.43072E+04  4.85718E+03  1.60291E+04  4.57371E+04 -3.52227E+04  4.22910E+04 -6.31708E+04  1.55518E+03
 -5.31800E+04 -5.92674E+04 -6.14305E+03 -7.83836E+04  3.52077E+04 -4.93956E+04  5.27459E+04 -1.81750E+04
  4.53794E+04  6.92671E+03  2.99805E+04  2.70643E+04  1.72649E+04  2.72319E+04  3.37455E+02  2.77704E+04
 -1.64796E+04  1.14136E+04 -1.81515E+04 -7.21642E+03  6.69042E+03 -7.87075E+03  2.36389E+04  1.02083E+04
  1.01323E+04  3.27173E+04 -3.33237E+04  3.89522E+04 -6.24335E+04  4.89314E+03 -6.16848E+04 -4.45524E+04
 -1.30794E+04 -6.73146E+04  3.78609E+04 -4.58270E+04  5.46455E+04 -8.09250E+02  3.44787E+04  3.27710E+04
 -1.76524E+03  4.21485E+04 -2.87927E+04  1.46685E+04 -3.19957E+04 -7.11552E+03 -1.85140E+04 -9.35484E+03
 -7.43928E+03 -1.60217E+04  1.52968E+03 -1.71102E+04  3.95294E+03 -2.60393E+04  1.66518E+04 -1.18001E+04
  1.23067E+04  3.63559E+03 -1.21744E+04  1.36008E+04 -2.39504E+04 -9.02396E+03 -9.03849E+03 -3.45136E+04
  1.90341E+04 -4.74448E+04  4.76992E+04 -2.32381E+04  4.90555E+04  2.04102E+04  1.33187E+04  4.74251E+04
 -1.75782E+04  4.03735E+04 -2.67564E+04  6.29053E+03 -1.76838E+04 -3.11235E+04  2.19017E+04 -3.11890E+04
  4.12743E+04 -2.74088E+03  3.73240E+04  2.42120E+04  1.70781E+04  4.68321E+04 -1.00995E+04  5.22593E+04
 -3.64719E+04  3.56466E+04 -4.87908E+04  7.77541E+03 -4.39533E+04 -1.34624E+04 -2.51686E+04 -4.19181E+04
  9.80777E+03 -3.67371E+04  3.23494E+04 -1.55578E+04  2.84763E+04  1.26811E+04  7.27306E+03  2.10731E+04
 -1.69558E+04  6.89968E+03 -1.21143E+04 -1.13418E+04  5.77925E+03 -1.07508E+04  1.97824E+04  2.56839E+03
  1.19793E+04  2.40659E+04 -3.49851E+03  2.24506E+04 -2.07213E+04  8.81811E+03 -3.21973E+04 -6.05476E+03
 -1.99122E+04 -2.10021E+04 -9.63014E+03 -2.30590E+04  1.06539E+04 -2.30771E+04  1.68744E+04 -2.31432E+04
  2.92922E+04 -1.32997E+04  3.43205E+04  2.24919E+03  2.54250E+04  2.33907E+04  2.97869E+03  4.01128E+04
 -1.95584E+04  3.07259E+04 -2.94177E+04  1.06043E+04 -2.37161E+04 -4.17757E+03  2.93497E+03 -1.08936E+04
  8.07342E+02 -1.03050E+03 -2.85797E+03  6.13786E+03 -2.35821E+04  6.72050E+03 -2.17864E+04 -7.88862E+03
 -1.10793E+04 -2.20217E+04  5.66950E+03 -2.65236E+04  2.03782E+04 -1.92457E+04  2.15804E+04 -4.58255E+02
  1.26276E+04  1.39557E+04 -3.80470E+02  1.99580E+04 -1.28260E+04  1.19886E+04 -2.24266E+04 -8.08592E+03
 -1.81775E+04 -1.50526E+04 -2.25051E+03 -2.42966E+04  9.12445E+03 -1.47101E+04  1.92166E+04 -1.12299E+04
  1.86707E+04  1.28306E+02  1.27897E+04  5.15557E+03  5.89236E+03 -3.68992E+03  9.44001E+03 -6.19597E+03
  1.99169E+04  4.10176E+03  2.04053E+04  1.47561E+04  1.22512E+04  2.75691E+04 -1.63632E+03  3.40760E+04
 -1.95194E+04  2.91717E+04 -3.84940E+04  1.64741E+04 -2.93627E+04  2.08801E+03 -3.05377E+04 -2.18034E+04
 -1.06848E+04 -2.67891E+04  6.56834E+03 -3.04655E+04  2.09597E+04 -1.47956E+04  1.41325E+04  4.67727E+03
  6.66164E+03  1.69217E+04 -7.73961E+03  1.30504E+04 -1.31526E+04  6.51034E+03 -1.41437E+04 -1.15514E+04
 -2.29387E+03 -1.27142E+04  1.42727E+04 -1.07871E+04  8.63147E+03 -5.72824E+03  4.08555E+03  6.53458E+03
 -4.16084E+03  6.89987E+03 -1.00362E+04 -8.86495E+03  2.15024E+02 -1.13384E+04  9.72098E+03 -1.53926E+04
  2.15641E+04 -9.57909E+03  2.15598E+04  2.67703E+03  1.78906E+04  1.23912E+04  1.03235E+04  2.46603E+04
 -2.44927E+03  2.61883E+04 -1.41284E+04  1.23969E+04 -1.74984E+04  5.56095E+03 -8.39966E+03 -2.93859E+02
 -3.25883E+03 -1.33420E+03  3.57304E+02  2.38058E+03 -4.49334E+03  1.77670E+03 -5.02890E+03  4.16681E+02
 -5.15922E+03 -1.35075E+03 -6.80756E+03 -1.22822E+04 -7.66138E+03 -1.67532E+04  6.21118E+03 -9.33000E+03
  3.61904E+03 -4.33804E+03  7.27840E+03  1.36304E+03  2.31884E+03  2.51445E+03 -2.20321E+03  1.84875E+03
 -6.52764E+03 -7.61753E+03  1.51645E+03 -6.85252E+03  4.21324E+03 -1.21468E+04  1.60066E+04 -4.51399E+03
  1.66322E+04  6.39790E+03  1.50865E+04  9.36820E+02  2.94248E+03  1.12944E+04 -4.10454E+03  1.14489E+04
 -1.13287E+04  5.46059E+03 -9.19478E+03 -3.57611E+03  2.42902E+03  2.40103E+03  3.97169E+03  2.24634E+02
  5.37982E+03  4.21307E+03  6.43867E+03  1.17316E+04 -7.62702E+03  6.72933E+03 -1.06949E+04 -1.44929E+03
 -9.22133E+03 -3.76627E+03 -3.53744E+02 -9.58607E+03  5.40453E+03 -5.92782E+03  8.74607E+03  2.90561E+03
  2.31282E+03  1.04586E+04 -9.95836E+03  3.96013E+03 -6.47990E+03  6.73313E+03 -1.36938E+04 -3.13943E+03
 -2.86981E+03 -1.52835E+04  2.63434E+03 -9.38461E+03  8.06378E+03 -8.12631E+03  9.58427E+03 -9.44714E+02
  3.69674E+03  8.29470E+03 -3.72980E+03  9.68997E+03 -8.92898E+03  2.60403E+03 -9.29159E+03 -3.93931E+03
 -7.97655E+03 -9.90143E+03 -4.47299E+03 -3.82096E+03  1.46996E+03 -3.83022E+03  8.93937E+03 -5.70438E+02
  4.68190E+03 -9.76709E+01  2.24947E+03 -5.64664E+02 -5.69090E+03  1.87420E+03 -1.75834E+03 -2.81774E+03
  8.71084E+03 -3.64593E+02  1.11468E+04  4.85129E+02  1.08291E+04  4.01355E+03  9.24956E+03  1.17900E+04
 -7.48781E+03  1.21405E+04 -1.60732E+04  8.57979E+03 -1.99340E+04 -9.55470E+02 -9.75018E+03 -4.41726E+03
 -4.61239E+03 -1.30928E+04  3.66926E+02 -1.02547E+04  1.09171E+03 -6.66602E+03  7.74270E+03 -8.68342E+03
  3.07216E+03  1.06803E+03  3.84330E+03 -3.54155E+03  6.73660E+02 -8.71122E+02  8.02782E+03 -5.79348E+02
  1.10720E+04  3.97700E+03  6.89105E+03  2.40288E+03 -3.36440E+03  8.74442E+03 -1.01902E+04  7.87559E+03
 -1.14913E+04 -2.02201E+03 -1.23909E+03 -7.60761E+03 -1.76162E+03 -7.62889E+03  4.65683E+03 -5.83299E+03
  1.37575E+04 -2.85970E+03  1.68999E+04 -5.51129E+03  3.46456E+03  6.39158E+03 -3.37039E+03  7.17129E+03
 -9.77309E+03  5.80626E+03 -4.17717E+03  5.52657E+03 -2.35114E+03 -4.04683E+03 -7.59683E+03  1.20570E+03
 -1.51153E+03  5.82428E+02 -1.69206E+02 -1.58019E+03  6.96017E+02  2.94902E+01 -8.60384E+03  5.79733E+02
 -3.42962E+03 -3.01921E+03 -7.23000E+03 -9.46257E+03  2.37649E+03 -8.33807E+03  9.92207E+03 -1.67477E+03
  6.36645E+03  2.92037E+03  5.99745E+03  8.66997E+03  4.15403E+03  8.70936E+03 -2.67733E+03  3.43788E+03
 -7.07067E+03  6.72718E+02 -3.15256E+03 -6.73494E+03 -1.61603E+02 -7.44175E+03 -6.90608E+02 -3.15402E+03
 -5.75807E+02 -3.71644E+03  6.76278E+02  1.25033E+03  3.30088E+03  2.98722E+03 -5.90051E+02  5.97454E+02
  8.31155E+03  4.53415E+03  2.13891E+03  4.84042E+03  1.61967E+03  4.71442E+03 -9.98577E+02  1.79201E+03
  1.67852E+03  5.71371E+03 -1.34210E+04  6.82617E+03 -8.09072E+03  3.62895E+03 -5.82058E+03 -7.61495E+03
  7.66781E+02 -5.98425E+03  6.86861E+02 -1.00234E+04  5.91684E+03 -7.07941E+03  1.37309E+04  2.50438E+02
  3.97850E+03  6.12531E+02  1.89243E+03  8.74114E+03 -2.11623E+03  4.82919E+03 -7.80935E+02 -7.28803E+03
 -7.05797E+02 -2.11318E+03 -4.24763E+03  5.25284E+02  3.85528E+03 -1.28057E+03  7.22202E+02 -6.65495E+02
  3.24433E+03  6.41853E+02 -4.60569E+03 -7.03061E+03 -3.79234E+01 -2.72460E+03  2.10435E+03 -1.68677E+03
  1.48276E+03  2.59939E+02 -9.14368E+02  2.81964E+03  4.07551E+03  4.72403E+03  1.53300E+02  3.43440E+03
 -3.37532E+03  3.03862E+03 -1.20143E+03  6.70351E+02  1.08374E+03 -4.55131E+03  4.65846E+03  4.77430E+03
  2.70108E+03 -2.91164E+03  5.10466E+02 -4.09968E+03  3.21636E+03  3.81059E+03  4.13524E+02 -1.08257E+03
 -6.53889E+03  1.18012E+03 -6.24263E+03 -7.98846E+03 -3.43298E+03  1.16964E+03 -5.84870E+03 -2.15578E+02
  1.14304E+03 -3.41867E+03  3.36460E+03  2.64492E+03  2.77918E+03  6.45020E+03  1.05408E+03  3.77553E+03
 -9.48795E+01  7.25915E+02 -7.23428E+03 -2.88959E+03  8.53086E+02 -4.07033E+03  8.97097E+03 -2.62635E+03
  3.83717E+03  5.14413E+02  1.19568E+03  1.96353E+03  9.77652E+02  2.46369E+03 -3.62824E+03 -3.76662E+01
  3.56760E+02  3.26511E+03 -1.70947E+03  1.79149E+03  1.30372E+03 -7.24531E+02 -1.63493E+03  4.78285E+02
 -6.62469E+02 -2.55741E+03 -3.08148E+02  4.16562E+03  5.29113E+03  2.20814E+03  2.51698E+03  3.70796E+03
 -6.92368E+02  2.09122E+02 -1.69035E+03  1.04151E+02  2.66469E+03  3.28261E+03 -8.86173E+02  1.32622E+03
 -1.88190E+03 -3.51901E+03 -3.49814E+02 -1.52234E+03 -3.73824E+03  8.36238E+03 -1.17252E+03 -8.04128E+03
 -2.90852E+03 -7.78726E+03  2.30105E+03 -5.92237E+03  5.52372E+03 -5.22124E+03  4.16912E+03 -3.35829E+03
  9.66544E+03  4.77738E+03  4.50333E+03  8.51027E+03 -6.72709E+03  2.88454E+03 -1.86574E+02  6.16726E+02
 -3.38980E+03  2.84261E+03  3.40277E+03  1.03652E+03 -5.09591E+03  1.38829E+03 -3.68323E+03 -6.57757E+02
 -1.00789E+02  1.86354E+03  2.57249E+03 -2.90766E+03  3.16586E+03 -5.30710E+03 -2.81134E+02  2.00838E+03
  4.82293E+03 -1.86495E+03  4.95332E+03 -1.39768E+02 -1.59375E+02  8.84741E+03  2.66993E+03  4.56447E+03
 -4.89374E+03  8.17565E+02 -6.08525E+03  3.52242E+03 -1.34999E+03 -9.69559E+02 -9.61174E+02 -7.38938E+03
 -5.45469E+03 -9.14868E+03  1.61819E+01 -2.95831E+03  1.57203E+03 -7.52476E+03 -1.77037E+03 -4.73928E+03
  1.93050E+03  7.52208E+03  1.30351E+03  2.55929E+03 -4.82085E+02  2.22324E+03  1.42137E+03 -3.37472E+03
 -7.61785E+02  1.17634E+03  2.04317E+03  3.23608E+03 -3.05105E+03  3.42171E+03  6.28285E+03 -1.03233E+02
 -1.09438E+03  4.07795E+03 -4.15845E+03 -1.50367E+03 -2.31751E+03 -1.59861E+03 -2.23372E+03 -5.77939E+03
  6.94521E+02  1.01661E+03  7.91724E+03 -2.06700E+01 -1.49835E+03 -2.29340E+03  1.79487E+03  3.19312E+03
 -1.19204E+03  4.33770E+02 -1.63092E+03  3.61627E+03 -8.19817E+03 -9.94740E+02  2.73339E+02  2.65459E+02
 -1.11575E+03  1.93800E+03  3.24092E+03  2.24716E+03  2.33903E+03  4.31357E+03 -8.98670E+02 -4.40203E+03
  1.37945E+02 -2.54156E+03  3.74546E+03 -1.37249E+03  2.22456E+03 -1.20763E+03  9.21734E+02 -3.20701E+03
  5.47235E+03 -2.26738E+02 -8.60722E+02  8.45136E+03 -1.96579E+03  1.51049E+03 -5.75773E+03  2.89121E+01
