 $NMID ID='MM_0lb_SNR50_18hz_g50_96.RAW', FMTDAT='(8E13.5)'
 TRAMP=1., VOLUME=1. $END
  3.06766E+05  4.45951E+03  3.38151E+05  2.45362E+05  8.50979E+04  3.30954E+05 -1.31129E+05  2.51789E+05
 -1.91186E+05  8.41947E+04 -1.11002E+05 -3.45553E+04  3.39201E+03 -4.88912E+04  5.40457E+04  3.22227E+02
  3.88052E+04  4.95324E+04 -1.55219E+04  7.72159E+04 -5.91479E+04  6.44116E+04 -7.95290E+04  3.40503E+04
 -7.77273E+04 -1.24311E+04 -5.16651E+04 -4.97186E+04 -1.25298E+04 -7.33568E+04  2.95390E+04 -4.83665E+04
  3.66484E+04  1.45972E+03  1.69508E+04  5.06255E+04 -3.24359E+04  4.56569E+04 -6.28155E+04 -1.11979E+03
 -5.48446E+04 -5.32814E+04 -8.33351E+03 -7.60487E+04  3.24310E+04 -5.29150E+04  4.77769E+04 -1.45979E+04
  3.91147E+04  7.60700E+03  3.12655E+04  2.24560E+04  1.49095E+04  2.86190E+04 -4.71451E+03  2.59944E+04
 -1.77284E+04  1.44041E+04 -1.78477E+04 -1.01984E+03  1.60829E+02 -9.53011E+03  1.85523E+04  8.67476E+03
  1.13777E+04  3.18869E+04 -3.06777E+04  3.48521E+04 -6.21189E+04  3.02701E+03 -5.09222E+04 -4.27973E+04
 -1.26081E+04 -5.98583E+04  3.70876E+04 -4.21832E+04  5.71062E+04  7.10110E+01  2.90615E+04  3.29979E+04
 -1.06353E+04  3.09471E+04 -3.23041E+04  8.31772E+03 -2.99838E+04 -1.92599E+03 -1.46933E+04 -5.45625E+03
 -9.86909E+03 -1.14583E+04 -6.84508E+02 -1.47083E+04  7.99121E+03 -1.92655E+04  1.48012E+04 -1.80140E+04
  8.04069E+03  5.78657E+03 -4.01640E+03  1.35857E+04 -2.03374E+04 -7.03022E+03 -9.22255E+03 -3.31882E+04
  2.34708E+04 -4.19841E+04  4.53753E+04 -2.25337E+04  3.91474E+04  1.70213E+04  1.21474E+04  4.53717E+04
 -1.55594E+04  3.24041E+04 -2.55031E+04  3.50139E+03 -7.41630E+03 -2.69102E+04  2.07084E+04 -2.83884E+04
  3.85433E+04 -4.26425E+03  3.35973E+04  1.97380E+04  2.20360E+04  3.84844E+04 -6.78986E+03  4.94562E+04
 -2.77632E+04  3.16763E+04 -3.58680E+04  9.49058E+03 -4.01843E+04 -1.55582E+04 -2.14558E+04 -4.13053E+04
  5.73843E+03 -3.52089E+04  3.07294E+04 -1.44627E+04  2.22026E+04  1.25279E+04  4.47208E+03  1.81974E+04
 -1.35491E+04  8.85808E+03 -1.12297E+04 -7.37248E+03  4.81625E+03 -7.65877E+03  1.97693E+04  5.06273E+03
  1.06582E+04  2.00965E+04 -5.59433E+03  2.59342E+04 -2.68052E+04  7.06708E+03 -2.29701E+04 -8.63063E+03
 -1.97170E+04 -1.68006E+04 -6.92828E+03 -1.59653E+04  4.78926E+03 -1.21889E+04  1.22910E+04 -1.59538E+04
  2.28762E+04 -1.22676E+04  3.15398E+04  4.22435E+03  2.14672E+04  1.80947E+04  6.50896E+03  3.39385E+04
 -1.72914E+04  2.81453E+04 -2.81822E+04  8.40385E+03 -2.10492E+04 -1.17687E+04 -5.48990E+03 -1.46539E+04
  2.90223E+03 -5.28789E+03 -5.43445E+03  4.17930E+03 -1.30888E+04  5.36337E+03 -1.58881E+04 -7.56976E+03
 -8.67742E+03 -1.61491E+04  7.82782E+03 -2.08761E+04  1.43631E+04 -1.52332E+04  1.59050E+04 -1.87627E+03
  7.73383E+03  6.66050E+03  1.73135E+03  1.30313E+04 -1.38681E+04  5.44314E+03 -1.79415E+04 -5.56770E+03
 -1.08426E+04 -1.00575E+04  3.01142E+03 -1.93169E+04  6.15381E+03 -1.49951E+04  1.47430E+04 -6.26056E+03
  1.65756E+04  2.22426E+03  8.19865E+03  8.58044E+02  6.54443E+03 -1.96384E+03  7.10849E+03 -1.07123E+02
  1.58541E+04  4.80303E+03  1.54284E+04  1.55538E+04  8.85212E+03  2.84209E+04 -1.66803E+03  3.22005E+04
 -1.70419E+04  2.09966E+04 -2.62954E+04  9.18910E+03 -2.17505E+04 -1.81935E+03 -2.61603E+04 -1.61616E+04
 -1.50627E+04 -2.10622E+04  6.75649E+03 -1.75776E+04  1.50139E+04 -9.27049E+03  1.87408E+04  6.64220E+03
  7.72427E+03  1.30381E+04 -7.23000E+03  9.43003E+03 -1.52732E+04  1.93993E+03 -1.49484E+04 -8.88472E+03
  1.53947E+03 -1.56132E+04  4.60643E+03 -9.06289E+03  5.96382E+03 -2.59202E+03  1.74502E+03  3.87301E+03
 -6.71201E+03 -1.29480E+03  1.46670E+03 -7.77278E+03  6.33557E+01 -4.51564E+03  4.34193E+03 -1.10890E+04
  9.93512E+03 -3.57498E+03  1.39633E+04  5.34165E+03  7.27328E+03  1.17427E+04  5.21972E+03  1.68757E+04
 -6.07926E+02  1.73281E+04 -1.15689E+04  1.11067E+04 -9.50684E+03  1.07062E+03 -6.33505E+03 -1.43328E+03
 -3.05418E+03 -1.92047E+03  9.73846E+02  1.08796E+03 -4.80307E+03  1.59952E+02 -3.06903E+03  4.57827E+03
 -4.47187E+03 -2.51034E+03 -5.88737E+03 -9.19264E+03 -5.93278E+03 -1.04153E+04  7.44621E+03 -6.35110E+03
  7.60165E+03 -6.51918E+03  8.14894E+03  4.57232E+03  3.40976E+03  2.44534E+03 -8.34829E+03  3.00660E+03
 -1.81024E+03 -6.70148E+03  3.80838E+03 -5.38718E+03  3.13210E+03 -7.33310E+03  1.58510E+04 -5.81046E+03
  1.23389E+04  3.22503E+03  1.09647E+04  6.40387E+03  4.26396E+02  8.16859E+03 -4.93167E+03  4.61739E+03
 -2.80390E+03  3.92207E+03 -6.76278E+03  1.23956E+03  2.96563E+03 -2.42002E+03  5.35620E+03 -2.54218E+03
  7.83878E+03  3.19006E+03 -1.36347E+03  6.26572E+03  1.56661E+02  5.13521E+03 -8.25532E+03  1.25146E+03
 -4.28814E+03 -6.64354E+03  1.58488E+03 -6.00769E+03  3.58542E+03 -2.66088E+03  3.91970E+03  5.82867E+03
 -1.61259E+03  1.07871E+03 -3.50339E+03  2.73170E+03 -5.36455E+03  2.07931E+03 -2.04275E+03  9.09614E+01
 -3.22183E+03 -4.94600E+03  1.33646E+03 -5.89052E+03  6.20226E+03 -5.93461E+03  3.61979E+03  1.61664E+03
  2.93775E+03  5.09640E+03  1.21038E+03  8.18536E+03 -7.66372E+03  2.99365E+03 -7.98253E+03  2.09598E+03
 -4.00952E+03 -2.19384E+03 -2.58319E+03 -4.76447E+03  9.96214E+02 -5.46242E+03  5.19322E+01 -4.16822E+02
  3.84189E+03  1.38684E+03  9.94113E+02  2.14033E+02  1.71701E+03 -4.49253E+03  2.40467E+02 -4.51333E+03
  2.89472E+03  1.07475E+03  3.79169E+03  4.09549E+03  6.35972E+03  1.83489E+03  4.57105E+03  8.14215E+03
 -6.43321E+02  1.18264E+04 -7.26853E+03  1.03465E+04 -6.85782E+03  5.05907E+03 -5.66192E+03 -7.98740E+03
 -7.51421E+03 -4.11266E+03 -5.37627E+02 -1.86329E+03  4.72749E+02 -1.70929E+03  2.19355E+03 -1.79543E+03
 -1.92381E+02 -4.40571E+03  2.89175E+03 -7.90277E+02  3.23777E+03 -2.35103E+02  1.45369E+03 -7.10583E+02
  6.37084E+03  2.39769E+03  2.05707E+03  3.24169E+03  2.10479E+02  5.79447E+03 -7.58640E+03 -2.22529E+03
 -1.42508E+03 -3.62688E+02 -1.20827E+03 -1.41535E+03 -8.81754E+02 -3.65981E+03  3.57877E+03 -2.15386E+03
  7.89984E+03 -5.25790E+03  8.76349E+03  3.27488E+03  6.32015E+03  4.22239E+03  1.28613E+03  4.75107E+03
 -1.46543E+03  5.94007E+03 -7.56774E+03  1.06159E+02  1.79948E+03 -1.36527E+03 -1.28887E+03 -2.75795E+03
 -3.48259E+03  1.34985E+03 -2.00244E+03  2.75205E+03 -5.41528E+03  3.93169E+03 -3.32555E+03 -1.55907E+03
 -5.26957E+03 -3.81854E+03 -9.43953E+01 -9.53657E+02  3.01858E+03 -5.59208E+03  9.78636E+03 -2.98294E+03
  2.47214E+03  2.49966E+03  1.58530E+03  3.78133E+03  3.12186E+02  7.79409E+03 -2.15873E+03 -1.64498E+02
 -1.82557E+03 -7.91151E+02 -5.66899E+03 -3.89916E+03 -3.23399E+02 -2.64844E+03 -2.35906E+03  7.84187E+02
  4.45997E+03 -9.73876E+02  3.25255E+03  1.84812E+03  4.46861E+01  3.31320E+02  1.28137E+03 -1.36364E+03
  1.53480E+03 -8.27290E+02  1.33963E+03  4.02989E+03  2.02817E+03  4.30423E+03  2.13265E+03  1.95240E+03
 -2.94756E+03  5.41980E+03 -6.60455E+03  2.93254E+03 -4.92950E+03 -1.17875E+02 -4.30590E+03 -6.60475E+03
 -6.24964E+03  1.43009E+03  2.66571E+03 -6.51201E+03 -5.06131E+02 -2.51326E+03  3.53988E+03  1.07472E+03
  4.06642E+03  4.86339E+03  2.75315E+03  3.88648E+03 -1.68739E+03  4.99905E+03 -3.17615E+03 -4.30832E+03
  2.54713E+03 -3.35615E+03  2.59438E+03 -6.62459E+02  4.22753E+03  7.18938E+02  9.26904E+03  8.46815E+02
  8.31419E+02  2.74716E+03 -2.57313E+03 -3.85986E+03 -1.20544E+03  1.89739E+03  3.04418E+03  4.47425E+02
 -1.58457E+03  2.27240E+03  4.92382E+03 -1.79043E+03 -2.91088E+03  1.95596E+03 -8.49037E+02  4.27140E+03
 -1.04771E+03 -8.28072E+02  5.99279E+02 -3.62411E+03 -5.67402E+03  3.19992E+02  9.01804E+01 -1.19770E+03
  4.38988E+02 -2.31280E+03  3.56382E+03 -6.92263E+02  1.29297E+03  6.53998E+02 -2.96521E+03  8.23365E+01
 -4.32342E+03  5.50168E+03 -5.55487E+02 -1.59671E+03 -1.24844E+03 -2.04507E+03 -4.96552E+03 -1.25914E+02
  3.74593E+03 -1.13295E+03 -2.80166E+03  4.25527E+03  3.86261E+03  1.44455E+03  1.32638E+01  3.63859E+03
 -4.40872E+01  5.26323E+02 -9.76941E+02 -1.06530E+03 -1.80546E+03 -2.57946E+03  3.72731E+03  1.77759E+03
  1.18540E+03  2.93780E+02  1.91308E+03  1.74977E+03  7.60210E+02  6.67974E+02 -5.18060E+03  7.38252E+03
  3.11723E+03  2.06536E+03 -1.05577E+03  2.83736E+02  1.63862E+03 -3.49971E+02  3.98319E+03 -2.24270E+03
  5.47809E+03 -3.95962E+03  2.01781E+03  3.21219E+03 -3.17506E+03 -3.16756E+01 -8.26642E+01  3.04025E+02
 -4.49451E+03  7.78545E+02 -9.86248E+02  1.90725E+03  6.05460E+03  7.15180E+03 -2.63648E+03  4.51974E+03
  2.65775E+03  2.92328E+03 -8.55216E+02 -3.36181E+03  2.10188E+02 -4.17491E+03 -3.26402E+03 -8.30219E+02
  4.96193E+03 -2.56410E+03  2.53254E+03 -9.48363E+02  2.44401E+03  1.03177E+03 -4.32824E+02 -2.50134E+03
  8.54098E+02  4.28614E+03  3.69811E+03  5.99089E+03 -3.89113E+03  2.29762E+03  4.76453E+03  2.52308E+03
  8.57747E+02  2.25021E+03  4.71131E+03  1.45176E+03  2.51566E+03  2.36524E+03 -2.87839E+03  4.39861E+03
 -1.69101E+03 -7.30254E+02 -6.52358E+03 -3.05637E+03  3.15118E+03 -1.34299E+03  2.49890E+03  4.65844E+02
  4.10695E+03 -1.24561E+03 -2.66199E+03 -4.71377E+03  1.23814E+03  4.06505E+03  1.92464E+02  4.93633E+03
 -3.68200E+03  1.78660E+03  5.47357E+02  4.08364E+03 -5.32815E+02 -2.44656E+03 -2.74767E+03 -3.77106E+02
 -1.79489E+03 -8.72914E+02  1.30219E+03 -2.40068E+03  3.08903E+02 -4.83759E+02  4.73732E+03  7.44408E+02
 -3.64090E+03  4.97138E+03  2.44621E+03  2.48818E+02  4.05424E+03 -2.40450E+03  1.29699E+03  2.77602E+03
 -1.15347E+03  8.15546E+02  2.82010E+03 -1.35623E+03 -3.27956E+01  3.24041E+03  3.19398E+03  1.77684E+03
  1.63242E+03 -1.49830E+03 -4.27426E+02 -3.95411E+02 -5.25958E+03 -1.14502E+03 -1.74650E+03  8.27381E+01
  1.79276E+03  1.65745E+03 -6.70108E+03 -1.82043E+03 -1.30830E+03  1.63791E+03  1.00942E+03 -1.17145E+03
  2.00945E+03 -1.92948E+03 -5.85508E+01 -2.66293E+03 -2.85896E+03 -5.32722E+03 -2.18671E+03 -1.74375E+03
 -6.46080E+03 -2.02126E+03 -2.81899E+03  1.65449E+03  1.15756E+03 -2.89738E+03  1.13241E+03 -4.45497E+03
 -7.92189E+02  1.80656E+03  1.23936E+03 -1.15684E+02 -1.34182E+03 -1.37328E+03 -2.11923E+03 -1.61536E+03
 -8.35799E+02 -2.48820E+03 -2.82046E+03  6.86591E+02 -2.36685E+02  3.57137E+03  7.56964E+02  2.07545E+03
