 $NMID ID='MM_0lb_SNR50_11hz_g50_90.RAW', FMTDAT='(8E13.5)'
 TRAMP=1., VOLUME=1. $END
  3.09703E+05 -2.09764E+03  3.37043E+05  2.47461E+05  8.04333E+04  3.38492E+05 -1.36779E+05  2.52882E+05
 -1.94989E+05  8.20579E+04 -1.14718E+05 -3.69001E+04 -2.87076E+03 -4.97558E+04  5.72444E+04 -8.99473E+02
  3.37907E+04  5.76503E+04 -1.92970E+04  7.63402E+04 -5.94343E+04  6.60762E+04 -8.83386E+04  3.44409E+04
 -8.12863E+04 -9.02089E+03 -5.90245E+04 -5.45995E+04 -1.06422E+04 -6.46410E+04  3.16853E+04 -4.89165E+04
  4.03524E+04  8.93363E+03  1.46489E+04  5.03854E+04 -2.78494E+04  4.54407E+04 -6.78571E+04 -1.01388E+03
 -5.53678E+04 -5.60293E+04 -1.36703E+03 -6.96270E+04  3.43355E+04 -5.15577E+04  5.15731E+04 -1.95624E+04
  4.45873E+04  1.03864E+04  3.59943E+04  2.30438E+04  1.45876E+04  3.08236E+04 -3.72328E+03  2.44710E+04
 -1.77809E+04  1.52761E+04 -1.61897E+04 -4.89745E+03  1.92627E+03 -1.52628E+04  2.08171E+04  1.65320E+04
  8.20769E+03  3.58403E+04 -3.54202E+04  3.80555E+04 -6.28485E+04 -1.12977E+03 -6.03692E+04 -3.88936E+04
 -9.63569E+03 -6.46292E+04  3.72425E+04 -4.52395E+04  6.25118E+04 -2.11600E+03  3.88638E+04  3.11944E+04
 -7.51405E+03  3.53203E+04 -3.12954E+04  1.78013E+04 -3.26008E+04 -3.80675E+03 -1.72484E+04 -4.50611E+03
 -6.67241E+03 -1.55403E+04  1.19157E+03 -2.28032E+04  1.11226E+04 -1.79251E+04  2.09406E+04 -1.16077E+04
  1.14846E+04  6.03337E+03 -1.11623E+04  1.12178E+04 -2.17456E+04 -8.98976E+03 -1.00763E+04 -3.70221E+04
  2.40713E+04 -4.15814E+04  4.39169E+04 -1.88731E+04  4.39129E+04  2.35401E+04  9.80469E+03  4.19734E+04
 -1.90132E+04  3.73791E+04 -2.51572E+04  4.81773E+02 -1.24787E+04 -2.77657E+04  1.96624E+04 -2.85941E+04
  4.15368E+04 -7.28107E+03  3.76041E+04  2.24681E+04  2.18136E+04  4.97290E+04 -5.52861E+03  5.32263E+04
 -3.13751E+04  3.58432E+04 -5.12054E+04  5.47670E+03 -4.07056E+04 -1.72651E+04 -2.76940E+04 -4.08593E+04
  1.06083E+04 -4.41562E+04  2.43173E+04 -1.99428E+04  3.18479E+04  1.18397E+04  4.67313E+03  2.19717E+04
 -1.28338E+04  1.75377E+04 -7.85274E+03 -8.64084E+03  8.40323E+02 -1.06415E+04  2.20890E+04  5.56432E+03
  1.28756E+04  2.29968E+04 -3.96786E+03  2.45285E+04 -2.51343E+04  1.23111E+04 -2.73118E+04 -1.56967E+03
 -2.24789E+04 -2.29263E+04 -1.07672E+04 -2.56262E+04  5.98988E+03 -2.63882E+04  1.35412E+04 -1.86396E+04
  2.62869E+04 -1.24341E+04  4.09248E+04  1.34418E+03  2.99015E+04  1.95012E+04  4.64416E+03  4.40615E+04
 -2.29613E+04  2.92421E+04 -2.48304E+04  9.38655E+03 -2.50432E+04 -1.30071E+04 -9.80859E+03 -9.45343E+03
  7.28560E+03  7.31165E+02 -1.30182E+04 -1.74944E+02 -1.98616E+04  6.44457E+03 -2.42291E+04 -1.15855E+04
 -1.48671E+04 -2.10859E+04  8.44318E+03 -2.35585E+04  1.63861E+04 -1.64844E+04  2.29103E+04  5.60560E+02
  1.09243E+04  1.85333E+04 -6.10118E+01  2.08885E+04 -1.59672E+04  1.37938E+04 -2.07465E+04 -1.15078E+04
 -1.20371E+04 -2.17401E+04  1.24071E+03 -2.15851E+04  1.80138E+04 -2.16823E+04  2.67133E+04 -7.90286E+03
  1.93004E+04 -4.57665E+03  1.38502E+04  3.29146E+03  1.08038E+04 -3.54845E+02  4.15397E+03 -4.73124E+03
  2.00094E+04 -1.61345E+01  1.73076E+04  1.67496E+04  1.81877E+04  3.62718E+04 -1.14043E+03  3.86354E+04
 -2.34401E+04  3.82511E+04 -3.63495E+04  1.79249E+04 -3.94325E+04 -7.50123E+03 -3.11259E+04 -2.51551E+04
 -1.24983E+04 -3.35531E+04  1.35849E+04 -3.35562E+04  2.73014E+04 -1.46064E+04  2.38084E+04  7.09892E+03
  9.15852E+03  1.42807E+04 -3.68369E+03  1.43283E+04 -1.91896E+04  3.93527E+03 -1.94908E+04 -1.80462E+04
 -6.08924E+02 -1.46959E+04  1.18940E+04 -1.32734E+04  1.12152E+04  2.20783E+02  2.18103E+03  1.27678E+04
 -6.61958E+03  5.09812E+03 -4.23197E+03 -7.09251E+03  4.36116E+02 -1.40415E+04  4.34064E+03 -2.05560E+04
  2.06825E+04 -1.32920E+04  1.76985E+04  5.87299E+03  1.63937E+04  1.32518E+04  1.89427E+04  2.54171E+04
 -7.67430E+03  2.67836E+04 -1.71347E+04  1.98655E+04 -1.88568E+04  3.30566E+03 -1.06809E+04 -1.55690E+03
 -3.59726E+03 -4.61785E+03  3.57588E+03  3.60271E+02 -9.94958E+03  5.64219E+03 -3.10769E+03  8.57332E+02
 -1.42846E+04 -3.21158E+03 -1.74608E+04 -1.65453E+04 -3.24622E+03 -2.25381E+04  7.66040E+03 -1.74739E+04
  6.26912E+03 -3.33078E+03  1.31174E+04 -1.65704E+03 -2.83807E+03  6.82795E+03 -5.46409E+03  4.77057E+03
 -7.84761E+03 -6.34891E+03  2.16480E+02 -1.73692E+04  7.28327E+03 -1.96288E+04  1.45765E+04 -9.37609E+03
  1.70929E+04  3.52652E+03  1.43965E+04  8.98994E+03  4.80950E+02  1.95213E+04 -7.93937E+03  1.61530E+04
 -8.94901E+03  2.68558E+03 -1.55760E+03 -3.30044E+03 -8.96574E+02 -6.89003E+03  1.76048E+03 -1.86615E+03
  8.05850E+03  3.12208E+03 -5.36221E+03  9.46805E+03 -7.02252E+03  1.02827E+04 -1.32474E+04  6.58134E+03
 -8.94053E+03 -1.15393E+04  2.80050E+03 -9.17762E+03  1.27541E+04 -3.95510E+03  6.51818E+03  7.72452E+03
  2.38552E+03  1.26818E+04 -8.46213E+03  8.58828E+03 -8.29952E+03  4.76233E+03 -1.25380E+04 -2.65873E+03
 -1.01741E+04 -1.80363E+04  5.66038E+03 -1.53276E+04  1.10305E+04 -1.46304E+04  1.29954E+04  6.42578E+03
  9.84755E+03  9.67796E+03 -6.38327E+03  1.53186E+04 -8.28126E+03  8.11870E+03 -9.24550E+03 -3.23851E+03
 -7.58080E+03 -7.22138E+03 -4.71169E+03 -8.90704E+03  2.47022E+03 -7.12926E+03  1.31176E+04 -7.34021E+03
  5.09242E+03  2.93375E+03 -1.75237E+03  1.98660E+03 -5.77793E+03 -5.49889E+03 -9.34380E+01 -4.68789E+03
  9.10509E+03 -2.27187E+03  1.40811E+04  3.60028E+03  1.45778E+04  6.62619E+03  1.59080E+03  1.56755E+04
  2.84017E+03  1.86608E+04 -1.72716E+04  1.46603E+04 -2.09414E+04  1.67946E+03 -1.70006E+04 -7.48239E+03
 -7.66191E+03 -1.76136E+04 -1.33129E+02 -1.38027E+04  7.10772E+03 -9.56859E+03  3.34566E+03 -7.68917E+03
  3.64380E+03 -7.82419E+03  4.57312E+03  1.00032E+03  1.11718E+04 -5.45805E+03  7.65080E+03 -4.08133E+03
  1.12608E+04 -1.68465E+03  9.22925E+03  6.76842E+03  2.93672E+02  1.55912E+04 -1.13792E+04  5.34599E+03
 -7.77970E+03 -2.55991E+03 -1.07825E+04 -4.31661E+03  2.53284E+03 -9.42966E+03  2.01808E+03 -1.45607E+04
  1.27445E+04 -7.78942E+03  1.36571E+04  2.28984E+03  1.06937E+04  1.16238E+04 -1.92742E+03  2.07517E+04
 -7.86047E+03  1.47706E+04 -1.10549E+04  6.69400E+03 -9.28056E+03 -3.53198E+03 -3.41312E+03 -3.42612E+02
 -4.35782E+03 -2.45293E+02 -2.14507E+03 -3.19663E+02 -1.19139E+04  2.01346E+03 -3.93606E+03  2.59249E+03
 -4.45863E+03 -1.10985E+04 -6.63996E+00 -6.71128E+03  1.02602E+04 -1.36565E+04  7.20649E+03 -4.67082E+03
  1.04385E+04  5.73328E+03  9.11338E+03  1.14680E+04 -2.31584E+03  1.04988E+04 -9.70024E+03  5.30096E+03
 -5.28424E+03  5.86792E+03 -4.55115E+03 -3.92536E+03  1.09965E+03 -8.79760E+03  9.33512E+03 -8.24360E+03
  4.62515E+03 -1.89597E+03  6.28882E+03 -2.87134E+02  1.73050E+03  5.78909E+03 -2.59998E+03  1.01398E+03
 -3.50498E+02 -1.95310E+03 -3.22341E+02 -5.83196E+03  1.87860E+03  1.63856E+03  5.67044E+03  7.60935E+03
 -5.57489E+03  5.53229E+03 -7.10050E+03  5.61596E+03 -8.17739E+03  5.69906E+03 -1.46919E+04 -3.18588E+03
 -7.48140E+03 -1.62741E+04  5.00102E+03 -8.56347E+03  1.10175E+04 -9.97830E+03  1.65759E+04 -5.32752E+03
  9.01520E+03  4.91489E+03  2.69901E+03  6.49104E+03 -4.46743E+03  7.74537E+02 -4.10236E+03 -3.23480E+03
 -7.80909E+03  8.32626E+02  6.55065E+03 -6.39803E+03  2.60796E+03 -2.23266E+03  4.81754E+03  2.91692E+03
  3.44122E+03 -1.58024E+03 -1.88198E+02 -1.95038E+03 -2.59115E+02  3.43048E+03  6.01448E+03 -7.34290E+02
  5.55162E+03 -1.42146E+03  7.19015E+03  3.44187E+03  3.02288E+03  2.17114E+03 -1.88104E+03  5.10497E+03
 -1.17402E+04  1.15005E+04 -1.00402E+04  3.49298E+02 -6.67379E+03 -3.82815E+03 -3.94460E+03  6.13805E+02
  1.83156E+02 -2.78820E+03 -3.75137E+03 -1.05043E+03  5.82742E+03  4.73632E+03  4.24165E+02  3.81696E+03
 -1.10479E+04  5.65306E+03 -5.83760E+03 -2.67130E+03 -3.98203E+03 -4.79115E+03 -3.63530E+03 -3.59609E+03
  6.19740E+02 -4.46234E+03  8.47517E+03 -3.23905E+03  7.70937E+03 -1.49115E+03 -1.42800E+03  4.62759E+03
 -1.48652E+03  7.72236E+02 -4.28736E+03 -2.98653E+03  5.10672E+02 -1.18220E+03  4.12716E+03 -8.30258E+03
  3.09688E+03  2.28394E+03  4.81400E+03  6.64078E+03  1.08683E+03  5.46647E+03  2.44332E+03  5.56479E+03
 -3.50952E+03 -6.58606E+02 -6.85639E+03 -7.18715E+02 -4.15433E+03 -6.35081E+03  1.41589E+02 -8.97684E+03
  5.18009E+03  2.20751E+03  9.20475E+03 -2.35329E+03  6.49803E+03  1.34590E+03  6.20737E+02  9.55349E+03
 -9.14844E+02  7.10372E+02  3.55321E+03  5.11752E+03 -2.61747E+03 -1.56580E+03 -2.39045E+03  6.01581E+03
 -5.02299E+03  5.77530E+03 -4.84977E+03  4.01603E+03 -8.24472E+03 -2.69509E+02 -7.42435E+03 -5.58477E+03
 -1.53745E+03 -1.02662E+04 -9.38198E+02 -9.93643E+03  5.90017E+03 -9.02697E+03  1.21571E+04  1.03246E+03
  4.91546E+03  7.21841E+03  2.25373E+03  1.06836E+04 -1.18616E+03  3.63688E+03 -5.23906E+03  1.09410E+04
 -6.20599E+03 -5.72618E+03 -4.70711E+03  2.39209E+03 -1.78030E+03 -2.79163E+03 -3.15809E+03  5.01852E+02
 -2.96905E+03  3.14078E+03  1.86486E+03  2.06601E+03 -3.15806E+03  6.18057E+02 -1.05237E+03 -5.38405E+03
  3.68159E+03 -4.72961E+03  3.63013E+03 -1.28990E+03  3.04709E+03  4.26626E+01  2.52450E+03  9.60140E+03
 -7.22270E+03  1.22414E+04 -1.29973E+04  3.97525E+03 -2.36924E+02 -4.25154E+03 -1.09413E+04 -6.84295E+03
 -7.36475E+02 -7.45964E+02  2.81717E+03 -4.72329E+03  8.28804E+03 -2.85369E+03  9.53729E+01  1.81193E+03
  5.58319E+03  4.90821E+02 -3.99053E+03  1.64389E+03 -6.40992E+01 -3.41133E+01  1.33421E+03 -5.77084E+03
 -1.87231E+02 -5.25595E+03 -6.97594E+02  4.47708E+03  2.61901E+03 -1.37346E+03  8.86174E+02 -3.38586E+02
 -5.78564E+03  4.91345E+03 -3.55905E+03  5.96365E+03  2.09579E+03 -1.48530E+03  1.51352E+03 -1.73236E+02
  3.17301E+03 -6.76491E+03  1.24139E+03  2.09446E+03  1.52270E+04 -2.00432E+02  4.78076E+02  6.65513E+03
  2.08151E+03  5.94844E+03 -2.92135E+03  5.86161E+02 -4.63722E+03  8.09414E+03 -3.57555E+03 -1.03051E+03
 -2.54388E+03 -1.86103E+03 -4.78492E+03 -2.60055E+03 -1.57842E+03 -6.29886E+02 -9.63829E+02 -3.18741E+03
 -4.28373E+03 -6.49138E+03 -2.58920E+03 -5.80050E+03  3.04173E+03 -4.83202E+03  7.08120E+03 -4.84921E+03
  7.20818E+03  3.48608E+02  3.25603E+03  6.05491E+03 -6.26478E+03  4.05190E+03  9.76507E+02  6.32003E+03
