 $NMID ID='MM_0lb_SNR50_16hz_g50_27.RAW', FMTDAT='(8E13.5)'
 TRAMP=1., VOLUME=1. $END
  3.10629E+05  2.99421E+03  3.38940E+05  2.55816E+05  8.31141E+04  3.40129E+05 -1.33926E+05  2.50502E+05
 -1.88108E+05  8.22675E+04 -1.13310E+05 -3.48396E+04 -8.53239E+01 -5.01863E+04  5.21542E+04 -2.82114E+03
  3.41768E+04  5.04292E+04 -1.83969E+04  7.27306E+04 -5.70298E+04  6.42913E+04 -8.68546E+04  3.36449E+04
 -8.21103E+04 -9.88485E+03 -6.04916E+04 -4.74365E+04 -1.66218E+04 -6.90052E+04  2.52220E+04 -4.41441E+04
  3.79622E+04  3.88954E+03  1.54184E+04  4.52957E+04 -3.64075E+04  4.78818E+04 -6.87873E+04 -1.26127E+03
 -5.16124E+04 -6.15621E+04 -6.72613E+03 -7.69125E+04  3.70521E+04 -5.27107E+04  4.79958E+04 -1.78455E+04
  3.95156E+04  1.06249E+04  2.97090E+04  2.47798E+04  1.27788E+04  3.00654E+04 -3.24197E+03  2.32362E+04
 -2.34731E+04  9.07707E+03 -1.89803E+04 -4.97390E+02  5.63855E+03 -4.23608E+03  2.54331E+04  1.16189E+04
  9.65120E+03  3.56147E+04 -2.99916E+04  3.70052E+04 -6.23067E+04  1.37005E+03 -6.27055E+04 -4.41994E+04
 -1.13560E+04 -6.38122E+04  4.11382E+04 -4.57696E+04  5.79992E+04 -1.32126E+03  3.64196E+04  2.66939E+04
 -6.69394E+03  3.64148E+04 -2.82279E+04  1.69045E+04 -2.98422E+04 -4.76894E+03 -1.86882E+04 -1.13155E+04
 -4.92011E+03 -8.46382E+03 -5.08000E+03 -1.89599E+04  3.67038E+03 -2.44703E+04  1.46100E+04 -1.17739E+04
  1.07373E+04  5.83113E+03 -7.38357E+03  1.45121E+04 -1.72859E+04 -3.57356E+03 -6.71190E+03 -3.08686E+04
  2.15936E+04 -4.36725E+04  4.68347E+04 -1.95289E+04  4.29544E+04  1.47997E+04  1.24251E+04  4.50629E+04
 -7.16809E+03  3.00341E+04 -2.30959E+04  9.10807E+02 -1.28213E+04 -2.88390E+04  2.46700E+04 -3.43282E+04
  4.42873E+04 -1.29862E+04  3.75510E+04  2.53122E+04  1.52123E+04  4.59964E+04 -7.00481E+03  4.48092E+04
 -3.26975E+04  3.29181E+04 -4.45038E+04  8.24397E+03 -3.57730E+04 -2.02918E+04 -2.30855E+04 -4.06905E+04
  7.35264E+03 -3.33558E+04  2.70778E+04 -1.40186E+04  2.67232E+04  1.07313E+04  5.00883E+03  1.39133E+04
 -1.49084E+04  8.49989E+03 -8.69406E+03 -5.29128E+03  8.73012E+03 -1.01782E+04  2.13610E+04  1.74630E+03
  1.57135E+04  1.56476E+04 -8.73544E+03  2.75406E+04 -2.31308E+04  1.23375E+04 -2.86748E+04 -1.03797E+04
 -1.84931E+04 -1.64049E+04 -8.59772E+03 -2.07453E+04  1.09284E+03 -1.80622E+04  1.13142E+04 -1.18211E+04
  2.21010E+04 -1.24206E+04  3.33881E+04  6.09891E+03  2.07429E+04  1.91635E+04  6.67041E+03  3.41612E+04
 -1.73305E+04  3.34432E+04 -2.93926E+04  7.90351E+03 -2.00282E+04 -9.83879E+03 -5.09163E+03 -1.75933E+04
 -3.14941E+03 -3.42535E+03 -2.62070E+03  7.14589E+03 -1.33063E+04  4.15794E+03 -1.62523E+04 -4.02306E+03
 -7.65304E+03 -1.72503E+04  8.43960E+03 -2.48008E+04  1.20154E+04 -1.47877E+04  1.38210E+04 -1.18931E+03
  8.33648E+03  1.03474E+04 -2.50903E+03  1.73291E+04 -8.99946E+03  9.99281E+03 -1.60180E+04 -8.22759E+03
 -1.22427E+04 -8.96751E+03 -2.91984E+03 -1.63527E+04  1.77907E+04 -2.03148E+04  1.52600E+04 -8.71728E+03
  1.83738E+04  1.04054E+02  7.17309E+03  1.89831E+03  8.96289E+03 -1.43491E+02  8.01262E+03  2.24637E+03
  1.64889E+04  6.53979E+03  1.45047E+04  1.76394E+04  1.44476E+04  2.70303E+04 -6.75728E+03  3.10804E+04
 -1.77808E+04  2.67589E+04 -2.97096E+04  7.97822E+03 -3.13498E+04 -6.88730E+03 -2.71101E+04 -2.43529E+04
 -1.12386E+04 -2.51848E+04  9.47100E+03 -2.02703E+04  1.45985E+04 -6.62779E+03  1.70915E+04  2.78665E+02
  7.32055E+03  1.11100E+04 -8.06611E+03  1.21263E+04 -1.37043E+04  7.53536E+02 -9.84397E+03 -6.86743E+03
 -2.95860E+03 -1.67135E+04  1.27216E+04 -1.37844E+04  8.65946E+03 -2.30469E+02  1.50988E+03  7.37157E+03
 -7.61516E+03  4.84214E+03 -6.27567E+03 -5.16818E+03 -7.89330E+01 -1.03352E+04  1.09949E+04 -1.41116E+04
  1.24693E+04 -6.36042E+03  1.85972E+04  6.00844E+03  1.34462E+04  1.09152E+04  2.49041E+03  2.08916E+04
 -5.20766E+03  1.93917E+04 -1.19870E+04  1.47070E+04 -1.33010E+04  4.78223E+03 -1.15683E+04 -3.32241E+03
 -3.37479E+03 -7.63733E+03  1.19305E+03  7.45253E+02  8.74739E+02 -3.48215E+02 -6.26380E+03 -2.53387E+00
 -8.56023E+03 -1.64553E+03 -1.14793E+04 -9.80003E+03 -2.53436E+03 -1.77107E+04  6.15747E+02 -7.35409E+03
  5.02053E+03 -1.63559E+02  2.50740E+03  4.70988E+03 -1.54689E+03  2.37199E+03 -3.45765E+03  2.88507E+03
 -1.69151E+03 -7.42836E+03 -5.98932E+02 -9.14917E+03  5.11844E+03 -1.07706E+04  1.19747E+04 -4.75950E+03
  1.64083E+04  3.42686E+03  1.22776E+04  1.25045E+04 -2.31272E+02  1.48395E+04 -8.13262E+03  1.15510E+04
 -8.59120E+03  2.38044E+03 -4.59706E+03 -2.66015E+03  1.93609E+03  2.36730E+03  2.21485E+03 -5.30037E+01
  4.14794E+03  5.51963E+03  3.30832E+03  1.20198E+04 -4.32169E+03  1.00068E+04 -8.95455E+03  5.22694E+03
 -5.07450E+02 -7.28396E+03 -7.52786E+02 -1.25718E+04 -1.73195E+03 -3.52304E+03  5.78733E+03  1.01368E+03
  5.55662E+03  3.40861E+03 -5.64035E+03  9.63703E+03 -4.68961E+03  8.08312E+03 -6.26356E+03 -7.85525E+03
 -2.78227E+03 -1.11172E+04  3.53772E+03 -8.46515E+03  7.83675E+03 -7.01105E+03  6.38052E+03  4.62559E+03
  1.46124E+04  4.14817E+03  4.19842E+02  1.06653E+04 -9.23415E+03  3.39545E+03 -6.36098E+03  5.65348E+03
 -3.58173E+03 -6.33061E+03 -1.13041E+03 -5.00184E+03 -8.57178E+01 -4.40943E+03  3.95365E+03 -7.78008E+03
  2.54412E+03  3.71309E+03 -4.88818E+03  1.49386E+03 -7.74164E+02 -4.03247E+02 -2.76435E+03 -7.05936E+03
  5.65003E+03 -5.41155E+03  1.18754E+04  4.76174E+03  4.63797E+03  2.77861E+03  8.42001E+03  6.95387E+03
 -3.32945E+03  8.62459E+03 -8.03119E+03  5.22303E+03 -1.18549E+04  1.49009E+03 -8.13265E+03 -1.49797E+03
 -3.10913E+03 -1.26474E+04 -8.49137E+02 -2.13597E+03  1.55985E+03 -8.80029E+02  2.75784E+03 -3.94969E+03
  2.82659E+03 -1.24543E+03  2.68724E+03 -7.94525E+03  4.11932E+03 -1.01106E+04  4.08958E+03 -2.35224E+03
  3.95201E+03  2.67902E+03  2.88043E+03  3.57994E+03 -2.92781E+03  4.12432E+03 -5.31583E+03  1.29240E+03
 -8.31681E+03 -4.38633E+03 -1.74086E+02 -3.12699E+03  1.73691E+03 -1.04107E+04  4.71368E+03 -1.07400E+04
  6.38552E+03 -3.31456E+03  2.11656E+03  1.75439E+03  9.58975E+03  6.97642E+03  2.96977E+03  6.99625E+03
  4.98700E+02  6.00799E+03 -8.03453E+03  7.16417E+03 -1.27950E+02  8.70525E+02  2.37327E+03  2.94350E+03
 -2.12508E+03  9.14161E+02  3.72495E+03  6.07697E+03 -1.34856E+02  1.13662E+03  5.17930E+02 -5.92547E+02
  2.49350E+03 -2.42666E+03  8.88705E+02 -6.59376E+03  5.12229E+02 -5.41306E+03  8.98068E+03  3.16597E+03
  5.24915E+03  2.51462E+02  3.02361E+03  5.48895E+03 -3.85691E+03  6.44291E+03 -4.50875E+03  2.49261E+03
 -4.16949E+03 -5.26308E+02 -2.30174E+03 -3.81521E+03 -1.49844E+02 -8.33701E+03  2.41633E+03 -5.03799E+03
  5.40481E+03 -3.21570E+03  7.87283E+03 -5.22402E+02  3.62737E+03 -5.13306E+02  2.96819E+03  4.07447E+03
  7.20495E+02  7.24490E+03  4.37601E+02  3.45028E+03  1.04512E+02  8.59305E+03  4.98421E+02  5.46447E+03
  9.23172E+02 -5.54026E+00  1.54792E-01  7.99161E+03 -5.64667E+03  4.50943E+03 -7.03910E+03  1.94599E+03
 -7.88986E+03 -1.17453E+04  7.65863E+03 -8.60633E+03  5.45332E+03  1.11807E+03  8.73142E+03 -9.40739E+01
  1.92047E+03 -3.25880E+02  1.28503E+03  6.08395E+03 -1.88592E+03  1.21891E+03 -2.92507E+03 -3.11228E+03
 -3.43316E+03 -7.71984E+02  4.18525E+01 -1.70850E+03  5.17520E+03  1.39357E+03  2.93748E+03  3.60570E+03
  3.94501E+02  1.64991E+03  4.89468E+03  2.51082E+03 -2.13091E+01  1.51742E+03 -1.84325E+03 -2.03116E+03
 -2.72615E+03 -2.74100E+03  2.07202E+03 -3.19682E+03  3.99020E+03  4.77000E+03 -2.84747E+03  6.40500E+03
 -9.96303E+02 -9.56192E+02 -5.54517E+03 -2.42724E+03  1.23041E+03 -2.60323E+03 -9.23387E+03 -9.44533E+02
 -1.20913E+02 -4.73744E+03 -1.68334E+02  4.40247E+02  3.77911E+03  2.33667E+03 -1.55332E+03  7.82251E+03
 -3.88261E+03  5.77482E+03 -9.85266E+02 -2.79888E+03 -1.78304E+03 -1.83722E+03 -1.73082E+03  1.36403E+03
 -4.71870E+03  1.17458E+03  7.59584E+03  2.07763E+03 -1.73605E+02 -3.09283E+02  1.17439E+03  1.77570E+01
 -5.36430E+03 -2.59150E+02 -1.27933E+03  1.09581E+03 -8.03314E+02 -3.00392E+03  1.39323E+03 -4.74046E+03
  3.07504E+03 -4.27547E+02  6.37123E+03 -9.24164E+01  1.12417E+03  6.53289E+03 -2.40009E+03  7.40489E+02
  5.33646E+02  3.57892E+03 -5.85051E+02 -1.95133E+03 -2.14859E+03 -1.75222E+02  6.76260E+02 -5.77828E+03
  4.44816E+03 -5.85959E+02  4.43709E+03  4.76887E+03  2.43887E+02 -2.02870E+03 -4.41606E+03  4.18771E+03
 -5.62337E+02  8.47516E+02  1.18756E+03  2.54411E+03 -5.22947E+03  1.22811E+03 -1.42792E+03 -2.02045E+03
 -1.33231E+03  2.61356E+03 -4.30774E+03  1.96685E+03 -6.00029E+03  2.16409E+03  4.58739E+02 -1.24350E+03
 -3.24180E+03 -7.46956E+02 -2.43451E+03 -4.08475E+03  1.85504E+03 -1.70477E+03  4.07148E+03  1.05093E+03
  4.89834E+03  9.87431E+02  2.12259E+03  5.68807E+03  3.31492E+03 -2.01484E+03  3.16131E+03  4.11443E+03
 -1.59226E+03 -2.43943E+03 -3.90470E+03 -1.05410E+03  1.91469E+03 -4.48330E+03 -5.03303E+03  1.62185E+03
  6.77909E+01  1.09826E+03 -2.33983E+02  4.10632E+03  2.54752E+03 -1.22128E+02  2.16384E+03 -3.99903E+03
  2.69764E+02 -2.46304E+03 -1.25635E+03 -3.36489E+03  2.93847E+02  9.72903E+02  2.84701E+03  2.51624E+03
 -2.51853E+03  2.95830E+03 -2.12636E+03  3.87571E+02  1.48105E+03  8.27616E+02  1.20936E+02  6.08903E+02
 -1.37758E+03 -4.10162E+03 -1.75904E+03 -1.28701E+03  3.36742E+03 -4.62085E+03  3.65807E+03 -3.06740E+03
  3.05721E+03  3.79405E+03 -2.75074E+02  4.26087E+03 -2.46831E+03 -3.07226E+01 -1.10874E+03  1.43731E+03
  4.14125E+03 -1.91702E+03  5.63295E+03 -6.00296E+02 -3.25838E+03  2.53777E+03  2.10379E+03  1.76154E+03
 -3.98006E+03  3.22979E+03  6.60985E+03  1.46810E+03 -6.05217E+03 -3.84560E+03 -3.73836E+03  1.17833E+02
  1.40246E+03 -9.17042E+02 -9.14332E+02 -4.72892E+03  1.15757E+03 -8.88654E+02  3.33929E+03  2.45054E+03
  4.90858E+03  4.36992E+03 -9.70529E+02  1.76189E+03 -2.65879E+02  3.22896E+03  2.99614E+02 -2.31421E+03
  2.21089E+02  4.52987E+02  3.04785E+03  4.93950E+03  3.19328E+02  2.43209E+03  3.10410E+03  3.25547E+03
 -3.36120E+03 -3.59688E+03  2.93025E+02 -1.57453E+03 -2.92826E+03 -2.94570E+03 -7.55313E+02  1.91481E+02
  8.98380E+01  1.58115E+02 -5.83610E+02  1.46738E+03  3.98330E+03  1.65731E+03 -1.53082E+03  5.08792E+03
