 $NMID ID='MM_0lb_SNR50_9hz_g60_68.RAW', FMTDAT='(8E13.5)'
 TRAMP=1., VOLUME=1. $END
  3.12225E+05  1.30568E+03  3.37262E+05  2.48579E+05  8.53843E+04  3.41780E+05 -1.33475E+05  2.56393E+05
 -1.90555E+05  9.14074E+04 -1.10412E+05 -3.59764E+04  6.95723E+03 -5.50247E+04  5.43785E+04  2.45891E+02
  2.56791E+04  4.65727E+04 -1.27192E+04  8.18484E+04 -6.42499E+04  6.62723E+04 -9.26382E+04  3.29651E+04
 -8.14004E+04 -1.07226E+04 -5.91023E+04 -5.96036E+04 -1.46626E+04 -6.76614E+04  2.44221E+04 -4.35622E+04
  3.99999E+04  2.53135E+03  8.57091E+03  5.13261E+04 -3.03913E+04  5.22026E+04 -6.82179E+04 -2.29708E+03
 -5.38825E+04 -5.95006E+04 -1.79461E+03 -8.09787E+04  3.40215E+04 -6.28000E+04  4.83760E+04 -1.69240E+04
  4.72042E+04  1.47317E+04  3.15689E+04  2.23139E+04  2.19255E+04  2.97382E+04 -6.84419E+03  2.98801E+04
 -2.27238E+04  1.07132E+04 -1.91054E+04 -9.58758E+03  1.41743E+04 -2.63659E+03  1.85673E+04  1.50796E+04
  1.34625E+04  3.06830E+04 -2.85472E+04  3.95524E+04 -7.00955E+04  5.23917E+03 -5.88876E+04 -4.61089E+04
 -9.90716E+03 -6.49784E+04  4.06346E+04 -4.76919E+04  6.22939E+04 -4.38356E+03  3.80631E+04  3.23304E+04
 -7.60008E+02  3.97420E+04 -2.27477E+04  2.03016E+04 -2.79594E+04 -3.67354E+03 -1.71364E+04 -8.25075E+03
 -5.74928E+03 -1.93354E+04  4.72990E+03 -1.87149E+04  2.40665E+03 -2.25258E+04  1.79572E+04 -1.83675E+04
  1.04170E+04  9.00711E+03 -8.98775E+03  1.14426E+04 -2.51870E+04 -7.72053E+03 -1.11726E+04 -3.66344E+04
  2.44220E+04 -4.75211E+04  5.50161E+04 -2.41187E+04  5.11723E+04  2.56169E+04  1.82439E+04  4.85490E+04
 -1.68357E+04  4.37339E+04 -2.36088E+04  4.45790E+02 -1.74574E+04 -2.98285E+04  2.47067E+04 -4.24049E+04
  4.47041E+04 -4.91043E+03  4.19626E+04  2.02013E+04  1.79249E+04  5.32623E+04 -4.52606E+03  5.71872E+04
 -3.55855E+04  4.09640E+04 -4.63890E+04  1.33701E+04 -4.54874E+04 -1.37462E+04 -2.68435E+04 -4.83335E+04
  1.06124E+04 -3.74842E+04  3.78471E+04 -1.56899E+04  2.85468E+04  1.15508E+04  3.05860E+03  2.00462E+04
 -9.15427E+03  1.01843E+04 -1.16812E+04 -7.44901E+03  7.27129E+03 -1.25139E+04  2.30886E+04  4.69518E+03
  1.33525E+04  2.23394E+04 -3.65942E+03  2.53199E+04 -1.90803E+04  1.83881E+04 -3.54917E+04  8.94010E+02
 -2.52652E+04 -2.35007E+04 -8.32962E+03 -2.88598E+04  4.28703E+03 -2.48881E+04  2.17226E+04 -2.47323E+04
  2.98898E+04 -1.34128E+04  3.60957E+04  5.38335E+03  2.76400E+04  2.37612E+04  6.29569E+03  3.96771E+04
 -2.60814E+04  3.63401E+04 -2.91096E+04  1.20205E+04 -2.81961E+04 -3.04293E+03 -4.46704E+03 -1.16372E+04
  5.24305E+03 -3.81552E+03 -1.52721E+03  1.06678E+04 -1.82279E+04  4.73229E+03 -1.63255E+04 -1.07751E+04
 -2.14740E+04 -2.00620E+04  4.00724E+03 -2.83795E+04  1.65951E+04 -2.56939E+04  2.12029E+04 -2.45402E+03
  2.05256E+04  1.78559E+04  2.10780E+03  2.43464E+04 -2.04502E+04  1.14105E+04 -2.52205E+04 -4.86290E+03
 -2.23732E+04 -2.59710E+04  3.22153E+03 -3.24321E+04  1.75358E+04 -2.51313E+04  1.68737E+04 -8.29161E+03
  2.26010E+04  3.48076E+03  1.90267E+04  7.70719E+03  9.34373E+03  6.39321E+03  1.73778E+04 -1.07558E+04
  2.19428E+04  6.72078E+02  2.61574E+04  1.58117E+04  2.08904E+04  3.74790E+04 -2.92838E+03  4.77909E+04
 -3.29445E+04  4.12447E+04 -4.38158E+04  2.22039E+04 -5.10644E+04 -2.62483E+03 -3.71833E+04 -2.79499E+04
 -1.77457E+04 -4.27707E+04  1.89011E+04 -3.39299E+04  3.36039E+04 -1.41493E+04  2.09793E+04  3.45668E+03
  2.42061E+03  2.52631E+04 -1.67032E+04  1.42103E+04 -2.11585E+04  6.87760E+03 -1.79794E+04 -9.92831E+03
  1.83364E+03 -2.13263E+04  1.20787E+04 -1.80502E+04  2.12521E+04 -5.91179E+03  7.79925E+03  1.45243E+04
 -8.65501E+03  2.86150E+02 -5.26618E+03 -4.11169E+03  2.13109E+03 -1.68638E+04  1.93969E+04 -1.46936E+04
  2.44962E+04 -7.22734E+03  2.71586E+04  9.20278E+03  2.05749E+04  2.01207E+04  1.22694E+04  2.96402E+04
 -1.63914E+03  2.88191E+04 -2.64455E+04  1.64676E+04 -2.58207E+04  4.51877E+02 -1.56134E+04 -9.21064E+03
 -5.43164E+03 -8.52403E+03 -5.02761E+03 -5.30959E+03 -7.83553E+03  3.54886E+03 -9.98334E+03  3.86669E+03
 -1.85774E+04 -4.65201E+03 -1.65797E+04 -1.44268E+04 -7.06746E+03 -2.01989E+04  1.55979E+04 -1.77279E+04
  1.41838E+04 -6.34856E+03  1.52271E+04  9.17898E+03  2.02942E+03  1.31491E+04 -9.34917E+03  1.77790E+03
 -9.53417E+03 -9.49612E+03 -3.48546E+02 -1.40610E+04  3.54382E+03 -1.52120E+04  2.03993E+04 -1.34888E+04
  2.11014E+04  7.40823E+03  1.77434E+04  1.61515E+04  3.61946E+03  1.97431E+04 -8.74212E+03  1.70273E+04
 -1.10741E+04  2.85168E+03  1.96432E+03 -9.81796E+03  3.53377E+03 -2.16092E+03  1.24049E+04  2.58048E+03
  4.89431E+03  1.48310E+04 -8.94759E+02  1.70677E+04 -5.02076E+03  1.09404E+04 -1.89280E+04  1.06825E+04
 -1.10659E+04 -1.56493E+04 -1.63292E+03 -1.54765E+04  1.55241E+04 -7.41971E+03  1.25372E+04  1.18874E+03
 -2.37946E+03  1.38197E+04 -9.29366E+03  1.06395E+04 -1.69530E+04  7.98783E+03 -1.47977E+04 -1.15453E+03
 -9.32563E+03 -1.29536E+04  3.51018E+03 -2.04619E+04  2.19847E+04 -1.12839E+04  2.06371E+04  2.32580E+03
  1.14710E+04  1.12345E+04 -1.80446E+03  2.11316E+04 -9.45781E+03  9.79647E+03 -1.57796E+04 -2.11098E+03
 -1.19258E+04 -1.15643E+04 -1.03082E+03 -1.51870E+04  7.90123E+03 -7.22964E+03  8.81031E+03 -4.77367E+03
  8.55274E+03  4.00422E+03 -2.90684E+03  9.06979E+02 -2.31583E+03 -3.41151E+03 -1.58230E+03 -9.18192E+03
  1.46269E+04 -1.24962E+04  2.29777E+04  2.24675E+03  1.37021E+04  1.70307E+04  9.73038E+03  1.99125E+04
 -9.29941E+03  2.58307E+04 -1.66215E+04  1.61533E+04 -3.10302E+04  4.34216E+03 -2.29963E+04 -1.43171E+04
 -8.71856E+03 -1.72086E+04  2.82141E+03 -1.25267E+04  8.77966E+03 -3.44144E+03  7.35358E+03 -6.60933E+03
  6.12923E+03 -6.25741E+03  2.48552E+03 -1.05256E+04  2.97575E+03 -2.67244E+03  6.75572E+03 -1.14169E+04
  8.80076E+03  2.73757E+03  6.03220E+03  1.04336E+04  1.13265E+03  1.74795E+04 -8.36210E+03  8.53060E+03
 -1.62638E+04  6.00167E+03 -8.11292E+03 -1.37193E+04 -3.25620E+03 -1.78617E+04  6.76840E+03 -1.77497E+04
  1.46802E+04 -1.16394E+04  2.09431E+04  1.15067E+03  1.87128E+04  1.01721E+04  6.73552E+03  1.50620E+04
 -8.57123E+03  1.17873E+04 -1.33389E+04  3.35013E+03 -1.00085E+04 -8.99649E+03  4.75466E+02 -7.05328E+03
 -7.22484E+03 -1.64846E+03 -3.07188E+03  8.98467E+03 -9.38995E+03 -5.57672E+02 -1.07657E+04 -3.86544E+03
 -6.25140E+03 -1.35888E+04  1.14850E+03 -9.68997E+03  9.59962E+03 -1.22474E+04  1.39284E+04 -5.16884E+03
  2.02694E+04 -1.24595E+03  9.06488E+03  1.64374E+04 -1.02789E+04  1.88313E+04 -1.22451E+04  1.01977E+04
 -1.97887E+04  1.32008E+03 -1.08461E+03 -9.46410E+03  4.00176E+03 -1.77093E+04  6.45985E+03 -1.35232E+04
  8.76554E+03  1.62228E+03  5.56599E+03 -3.01643E+01 -8.56180E+02  6.87262E+03  5.79268E+03  8.18663E+02
 -6.83462E+03  1.04424E+03  4.96459E+03  6.04940E+03 -2.89958E+02  7.91427E+01  3.02286E+03  8.39868E+03
 -6.62995E+03  1.92053E+04 -3.51005E+03  1.31585E+04 -1.06301E+04  8.11770E+03 -1.61726E+04 -7.39676E+03
 -1.35295E+04 -1.01617E+04  5.65438E+03 -1.65781E+04  7.62063E+03 -8.22391E+03  1.41341E+04  3.31854E+03
  9.62452E+03  1.37347E+03 -6.87040E+02  1.45070E+04  3.11256E+03  2.82558E+03 -8.56874E+03 -3.22282E+03
 -5.97078E+03 -9.12789E+03  3.51746E+03 -8.80726E+03  7.48161E+03  1.52605E+03  5.55332E+03  5.30127E+02
  1.98827E+03  3.92894E+03 -1.10657E+03  9.84987E+03 -8.55285E+03 -2.75660E+03  3.28009E+03 -3.48686E+03
  8.53605E+03 -2.13354E+03  2.41149E+03  9.22276E+02  8.15978E+03  1.61610E+04 -1.59111E+03  1.16033E+04
 -1.40295E+03  8.91138E+03 -1.81795E+04  2.61069E+02 -8.18960E+03  2.88694E+03 -5.00817E+03 -2.70594E+03
  7.90440E+02 -8.72424E+03  1.03504E+04 -9.13019E+02  1.20377E+03  1.01075E+04 -3.83553E+03  2.77871E+03
 -5.13813E+03  7.09138E+03 -5.33633E+03 -6.83777E+02 -7.81841E+03 -7.67717E+03  1.94631E+03 -4.78887E+03
  7.01256E+03 -5.80323E+03  1.25654E+04 -4.20088E+03  2.29591E+03  4.30438E+03 -9.87235E+02  1.63479E+03
 -3.76424E+03  5.91860E+03 -1.57763E+03 -6.55652E+03  1.94696E+03 -1.68797E+03  1.53505E+04 -5.51093E+03
  6.62018E+03  2.17203E+03  9.12663E+03  1.03418E+04  5.09718E+03  8.86782E+03 -2.81072E+03  7.11140E+03
 -1.09920E+04  5.42412E+03 -7.40492E+03 -7.68106E+02 -7.01436E+03 -8.15816E+03 -9.07390E+01 -4.46151E+03
  5.66322E+03 -8.02096E+03  2.30733E+03  2.98447E+02 -3.95585E+02  4.24917E+03 -7.02808E+03  8.11619E+03
  1.33585E+03  4.73938E+03  6.96865E+02 -7.68827E+02 -1.21709E+03  6.63941E+02  4.90519E+03  1.09293E+03
 -7.27383E+03  9.28155E+03 -2.41070E+03  5.45877E+03 -1.41168E+04  2.37781E+03 -9.41064E+03 -7.30860E+03
 -6.33412E+03 -1.14148E+04  6.35342E+03 -1.76601E+04  1.32805E+04 -1.82242E+04  1.03090E+04 -5.56311E+03
  1.48071E+04  7.72384E+03  1.20889E+04  1.20514E+04 -2.10771E+03  7.97031E+03 -4.65450E+03  1.23601E+04
 -1.25593E+04 -1.15479E+03 -6.60520E+03 -1.87852E+03 -3.58240E+03  1.77414E+03 -5.73890E+03 -3.77958E+03
 -4.67902E+03  3.98266E+03  6.93743E+01  2.05606E+03 -5.93969E+03 -5.39501E+03 -3.31522E+03 -4.41264E+03
  4.70055E+03 -4.31100E+03 -1.90871E+03 -2.70236E+03  4.57348E+03  9.67597E+03  3.31254E+03  1.14135E+04
 -2.65720E+03  1.32622E+04 -9.45808E+03  7.28574E+03 -1.67063E+04  3.60802E+03 -1.24398E+04 -4.87178E+03
 -3.31706E+03 -7.83929E+03  2.23152E+03 -1.39602E+04  5.41845E+03 -2.63633E+02  1.26491E+04 -3.35537E+03
  7.36400E+03 -2.33994E+03 -2.09681E+03  3.07672E+03  5.67448E+03 -1.17234E+03  1.29149E+03 -4.29683E+03
 -1.28533E+03 -8.38700E+02  1.35949E+04  6.20326E+02  5.34755E+03  2.16781E+03 -1.39036E+03  5.21132E+03
  9.74095E+02  7.79836E+03 -1.36453E+04 -3.99249E+03 -2.94760E+03 -8.81168E+03  1.21680E+03 -1.68658E+04
  4.10309E+03 -6.13707E+03  8.86997E+03  3.61434E+03  1.31108E+04  6.92607E+03  5.78348E+03  6.78328E+03
  7.04186E+03  6.36199E+03 -6.17761E+03  8.25177E+03 -3.53148E+03  4.84788E+03 -1.14436E+04  1.04643E+03
 -6.65291E+03 -6.50261E+03  1.76748E+03 -4.32293E+03 -7.22854E+03 -5.24012E+03 -6.20615E+03 -9.07741E+03
 -3.38833E+03 -9.69792E+03 -4.90538E+03 -7.14638E+03 -3.71662E+03 -7.12015E+03  4.91057E+03  3.41181E+03
  5.68612E+03  4.46760E+03  3.07771E+03  1.01863E+04 -3.30467E+03  7.52506E+03 -1.27730E+04  7.54323E+03
