 $NMID ID='MM_0lb_SNR50_20hz_g45_52.RAW', FMTDAT='(8E13.5)'
 TRAMP=1., VOLUME=1. $END
  3.07815E+05 -3.01403E+03  3.38361E+05  2.50308E+05  8.42511E+04  3.37743E+05 -1.31635E+05  2.54557E+05
 -1.92952E+05  8.49179E+04 -1.09446E+05 -3.16959E+04 -1.11267E+03 -4.89054E+04  5.48352E+04  2.87830E+03
  3.53331E+04  5.36643E+04 -1.75469E+04  7.23516E+04 -6.18463E+04  6.31526E+04 -8.18675E+04  2.88367E+04
 -8.13974E+04 -8.93879E+03 -5.64867E+04 -4.53840E+04 -1.48394E+04 -6.80045E+04  2.72081E+04 -4.51797E+04
  4.05120E+04  4.66555E+03  1.51510E+04  4.84089E+04 -3.20249E+04  4.45106E+04 -6.68127E+04 -4.02949E+02
 -5.01586E+04 -5.64090E+04 -6.62013E+03 -7.44114E+04  3.49712E+04 -5.14418E+04  4.72071E+04 -1.42955E+04
  3.99624E+04  1.27391E+04  2.96943E+04  2.26724E+04  1.59792E+04  2.63186E+04 -4.05160E+03  2.27421E+04
 -2.69015E+04  1.16663E+04 -2.15107E+04 -2.75911E+03  9.48336E+03 -9.06853E+03  2.05941E+04  7.08721E+03
  7.31430E+03  3.13446E+04 -2.88155E+04  3.45891E+04 -5.74279E+04  1.25056E+03 -5.35322E+04 -3.98858E+04
 -1.27078E+04 -5.92502E+04  3.86514E+04 -4.52722E+04  4.80876E+04 -2.62922E+03  2.62872E+04  3.23145E+04
 -7.81975E+03  3.33210E+04 -2.25032E+04  1.22704E+04 -2.74532E+04 -7.03169E+03 -1.34959E+04 -7.44769E+03
 -1.00193E+04 -1.05892E+04 -6.36475E+02 -1.66550E+04  7.88312E+03 -2.50588E+04  1.36697E+04 -9.19778E+03
  1.40656E+04  4.11244E+03 -3.95819E+03  9.82168E+03 -1.70429E+04 -3.19534E+03 -9.69807E+03 -2.78646E+04
  1.91677E+04 -3.87226E+04  4.48908E+04 -2.22342E+04  4.27879E+04  1.88004E+04  1.31891E+04  3.88518E+04
 -1.82744E+04  3.24939E+04 -2.13584E+04  9.30095E+02 -7.98652E+03 -2.48168E+04  1.76387E+04 -2.93829E+04
  3.93431E+04 -4.80241E+03  3.13371E+04  2.20967E+04  1.71259E+04  4.03633E+04 -3.07149E+03  4.62493E+04
 -2.61584E+04  2.61260E+04 -3.84289E+04  9.29879E+03 -3.71586E+04 -1.28749E+04 -2.01881E+04 -3.28823E+04
  4.67729E+03 -3.47383E+04  2.70077E+04 -1.11334E+04  2.33832E+04  1.02699E+04  3.89003E+03  1.63593E+04
 -7.11982E+03  7.72124E+03 -1.01638E+04 -1.09283E+04  1.14097E+04 -6.88397E+03  1.84153E+04  8.92336E+03
  1.15235E+04  1.96043E+04 -7.79083E+03  2.15479E+04 -1.76578E+04  8.26371E+03 -2.19520E+04 -6.02904E+03
 -1.69108E+04 -1.80276E+04 -6.19309E+03 -1.78713E+04  3.44789E+03 -1.34093E+04  1.04313E+04 -1.31904E+04
  1.93595E+04 -1.33439E+04  2.90841E+04  3.81081E+03  2.02895E+04  1.48625E+04  4.81343E+03  3.35894E+04
 -1.39900E+04  2.64341E+04 -2.17445E+04  7.08488E+03 -1.88799E+04 -9.39731E+03 -3.43226E+02 -1.38261E+04
  5.08915E+03 -5.08943E+03 -1.08535E+03  1.91765E+03 -9.34168E+03  1.85974E+03 -1.41262E+04 -3.94900E+03
 -9.46563E+03 -1.37989E+04  8.11417E+03 -1.86637E+04  1.35277E+04 -1.41340E+04  1.34956E+04  4.21315E+03
  9.23644E+03  1.24837E+04  2.02535E+03  1.51446E+04 -4.04970E+03  7.87226E+03 -1.61239E+04 -2.63374E+03
 -1.41971E+04 -1.38220E+04 -1.00210E+02 -1.44039E+04  8.89817E+03 -1.69836E+04  1.30207E+04 -9.83615E+03
  1.42682E+04 -6.37267E+01  1.17140E+04  5.26443E+03  4.94459E+03 -5.94519E+02  6.91544E+03  4.14701E+02
  1.18628E+04  3.90031E+03  1.02419E+04  1.42306E+04  1.02903E+04  2.36820E+04  7.17615E+02  2.49902E+04
 -1.41650E+04  1.85598E+04 -1.96254E+04  9.48402E+03 -2.23332E+04  6.94078E+02 -2.22077E+04 -1.15654E+04
 -6.43479E+03 -2.17871E+04  4.71211E+03 -1.67293E+04  1.65215E+04 -7.75191E+03  1.30463E+04 -1.06447E+03
  3.90284E+03  1.04040E+04 -5.40773E+03  1.30683E+04 -1.08547E+04  3.22302E+03 -1.16668E+04 -6.41837E+03
  2.17273E+02 -1.39894E+04  8.08931E+03 -6.82046E+03  7.68956E+03 -2.31340E+03 -7.10913E+02  6.33254E+03
 -7.26343E+03 -1.25153E+03 -3.91559E+03 -1.84543E+03  3.25853E+03 -1.09937E+04  6.96252E+03 -5.28052E+03
  1.74829E+04 -2.75446E+03  1.17815E+04  5.39850E+03  1.15723E+04  8.06376E+03  2.21864E+03  1.15337E+04
 -8.36606E+02  1.48144E+04 -5.70316E+03  6.08650E+03 -9.76479E+03  4.71891E+03 -7.33252E+03  1.59569E+03
 -3.79338E+03 -4.37153E+03 -7.62279E+02  1.54398E+03 -8.37082E+02  7.31794E+02  4.24989E+02  1.81695E+03
 -5.54265E+03  1.71119E+03 -8.99703E+03 -3.85025E+03 -3.13902E+03 -1.11788E+04  4.35104E+03 -7.09838E+03
  5.13238E+03 -4.89415E+03  3.91430E+03  4.47768E+03 -4.02467E+03  2.59060E+03 -1.69663E+03 -1.13107E+03
 -6.21789E+03 -2.10529E+03 -1.53902E+03 -8.14335E+03  2.52498E+03 -7.60355E+03  1.10921E+04 -3.49480E+03
  8.60369E+03 -2.05136E+03  8.60122E+03  9.03518E+03  3.04525E+03  7.30187E+03 -2.41233E+03  7.18409E+03
 -6.95734E+03  6.23855E+03 -2.54710E+03 -4.55579E+03  1.58946E+03 -2.12396E+03  5.89110E+03  3.97606E+03
  4.06737E+03  6.46365E+03  2.11641E+03  3.51219E+03 -6.21345E+03  4.70113E+03 -3.51013E+03  1.35643E+03
 -7.35093E+03  5.85953E+02  5.28920E+02 -7.10374E+03  4.59577E+03 -4.19453E+03  3.08768E+03 -3.36434E+03
 -1.96864E+02  2.56697E+03 -3.07265E+03  3.46917E+03 -6.03375E+03 -4.36330E+02 -3.33000E+02 -3.01692E+03
 -1.30607E+03 -4.53493E+03  2.39505E+03 -8.03128E+03  2.97405E+03 -1.01114E+03 -5.39422E+02  2.72689E+03
  6.59307E+03  5.52786E+03 -3.15352E+01  5.19649E+03 -1.41498E+03  1.56536E+03 -4.97988E+03  2.58876E+03
 -2.87175E+03 -6.09685E+03  1.76335E+02 -3.21577E+03  2.20870E+03 -2.61588E+03  8.89646E+01 -5.09185E+03
  2.79713E+03  9.25295E+02  6.31520E+02 -3.43728E+02  1.15158E+03  4.13753E+03 -5.18595E+03 -3.59444E+03
  4.73326E+03  5.42409E+02  3.86387E+03  2.12294E+03  4.13659E+03  5.06230E+03  6.78308E+03  3.18847E+03
  1.42242E+03  8.07754E+03 -4.81632E+03  5.27188E+03 -7.89353E+03  1.69566E+03 -5.71456E+03  5.33068E+02
 -4.10712E+03 -5.21646E+03 -1.34745E+02 -4.72994E+03  4.75215E+03 -1.88567E+03  7.49554E+03 -5.11835E+03
  3.92893E+02 -1.77572E+03 -2.66677E+03 -1.01061E+03  4.23055E+03  1.23074E+03  2.92467E+02 -2.08837E+03
  6.16168E+03  2.14959E+03 -1.98393E+03  1.74233E+03  9.45582E+02  1.15546E+03 -4.87976E+03 -1.57010E+01
 -2.20105E+03 -6.69145E+02 -6.44362E+03 -4.39964E+03  2.96456E+03 -3.66136E+02  5.97509E+03 -2.45334E+03
  3.13540E+03 -2.35570E+03  7.17748E+03  1.62751E+03  3.05207E+03  5.01862E+03  8.94567E+02  7.00884E+03
 -2.39051E+03  4.31770E+03 -2.27927E+03  2.52959E+03 -2.88050E+03 -2.89555E+03  2.95541E+02 -1.53253E+03
 -1.03858E+03  2.24378E+03 -3.36688E+03  7.67418E+02 -3.88431E+03  1.21322E+03 -2.61547E+03 -1.46482E+03
 -4.54004E+03 -1.82225E+03 -2.76975E+03 -1.79692E+03  2.12589E+03 -4.79123E+03  6.07826E+03  8.96338E+00
  6.32481E+02  2.40742E+03  2.66349E+03  4.48175E+03  1.93693E+03  1.24574E+03 -4.42457E+02  1.17171E+03
 -3.94118E+03 -3.96649E+03 -1.20519E+03 -1.59628E+03 -1.90449E+03 -6.69872E+03 -6.58107E+02 -7.57693E+03
  6.62042E+03 -6.76693E+03  1.65789E+03  5.48001E+02 -1.90609E+03  3.02178E+03  5.92902E+02  1.23505E+03
  2.84786E+03 -1.77603E+03 -1.52586E+03 -1.77256E+03  2.43619E+03 -4.17719E+02  9.09497E+02 -2.35434E+03
 -3.97507E+03  5.46161E+03 -4.08509E+03  5.44145E+03 -4.39143E+02 -2.20126E+01 -3.32918E+03  2.39320E+03
 -1.75584E+02 -3.80313E+03 -9.96488E+02 -5.59163E+03 -1.86074E+01 -1.04989E+03  4.52306E+03 -1.30148E+03
  6.88395E+02 -5.45561E+02  3.69531E+03  8.92817E+02  2.10641E+03  1.48800E+03  2.20236E+03  4.09050E+02
  2.85204E+03 -8.21328E+02  2.25710E+02 -2.29272E+01 -2.62015E+02  1.65489E+03 -2.24245E+03  2.84420E+03
  1.29715E+03  1.59746E+03 -8.01743E+02 -4.85995E+03  1.39941E+03  1.71656E+03 -1.21636E+02 -4.17491E+03
 -1.06368E+03 -6.54617E+02 -2.73356E+03  4.86794E+03  5.10785E+02 -1.37594E+03 -8.29805E+02  4.87099E+03
 -4.12871E+02  5.49789E+02 -2.92816E+03  6.69926E+01 -2.41837E+03 -2.21858E+02 -1.64224E+03 -2.88589E+03
  1.13218E+03  8.24327E+02  2.51215E+02 -4.88998E+03  2.71684E+02  1.79751E+03  3.58062E+03  4.25104E+03
  1.71532E+03  3.00128E+03  8.17069E+02  6.62304E+02  1.70681E+03  8.13453E+02  1.40970E+03 -2.07609E+03
 -1.65656E+03  5.78529E+02 -1.02653E+03 -2.61021E+03 -3.43407E+03  2.06271E+02 -4.92756E+03  3.98013E+02
  1.31834E+03 -7.97718E+02 -3.62683E+03  3.32341E+03  1.56713E+03 -1.02935E+03  2.12676E+03 -2.91996E+03
  1.13611E+02  2.88363E+03  2.69167E+03 -1.84552E+03  1.07639E+03 -9.96026E+02 -1.27663E+03  2.37532E+03
  6.05842E+02 -2.83843E+03 -3.41376E+03 -1.66994E+02 -3.26737E+03 -1.78688E+03  1.92732E+01  4.12291E+03
  7.25911E+03 -3.52153E+03 -2.53744E+03  1.78730E+03 -4.52638E+01  5.39679E+03 -1.58948E+03 -5.54331E+02
  4.48355E+02  5.78656E+02 -2.14177E+03 -2.04555E+03 -3.50741E+02 -3.41708E+02  1.67621E+02  5.60086E+02
  3.91390E+03  3.39013E+02 -5.84151E+02  1.12178E+03 -2.27977E+03  4.18243E+03 -4.95230E+03  1.39241E+03
  2.00828E+03 -4.88036E+02 -1.35981E+03 -3.79504E+03  3.33944E+03 -2.24648E+03  5.99497E+02 -3.00066E+03
 -2.31817E+03  1.06448E+02  1.07337E+03  2.53128E+02 -1.86695E+03 -3.99181E+02 -1.49537E+03 -2.24416E+02
 -4.73737E+03 -8.91083E+02  1.14979E+03  1.13487E+02  2.98355E+03  3.13722E+03 -3.78711E+02  1.39251E+03
 -1.90690E+03 -1.00056E+03  1.11572E+03 -6.38412E+02  3.41010E+03 -5.25190E+01 -1.45403E+03  1.66063E+03
 -4.09146E+02  1.45139E+03  1.81158E+03 -1.85987E+03  1.02426E+03  2.13513E+03 -2.74872E+03  2.34708E+03
 -1.67929E+03 -6.44184E+02 -8.47012E+02 -5.56443E+02 -2.85913E+03 -3.07341E+03  1.11960E+03 -2.70105E+03
 -3.31701E+03  3.70796E+03  2.12158E+03 -3.69438E+03 -1.65479E+03 -7.63183E+02 -9.60483E+02  3.50269E+03
 -3.24411E+03  1.05759E+03 -8.93188E+02  9.67581E+02  8.35550E+02 -6.03400E+01 -1.37590E+03 -1.49519E+03
 -1.88905E+03 -1.73755E+03  2.24256E+03  4.82288E+02  9.86278E+02  1.11645E+02  1.79780E+03  1.40189E+03
  2.94422E+03 -1.02857E+03  6.30925E+02  6.35875E+02 -2.63901E+03  4.96374E+03 -4.28650E+02 -7.55067E+02
  2.50933E+03  5.50971E+02  1.24454E+03 -4.01136E+03  1.87783E+03 -4.79074E+03 -5.03430E+03  4.67325E+03
  6.21163E+02  3.60997E+02  2.84292E+03  5.68624E+02 -1.40256E+02  4.08768E+02 -2.65321E+03  7.83623E+02
 -5.88157E+02 -7.04312E+02  1.16901E+03 -2.94738E+03  2.41088E+03 -5.23640E+02 -3.68062E+03  1.39586E+03
  1.32790E+03 -5.82734E+02  3.26112E+03 -5.49913E+03  4.61899E+02  5.63350E+02  4.80220E+03  3.88746E+01
  1.08336E+03 -9.02888E+02 -3.44577E+03  1.45464E+03  1.13084E+03  4.00167E+03 -1.52296E+03 -1.71888E+03
