 $NMID ID='MM_0lb_SNR50_8hz_g45_48.RAW', FMTDAT='(8E13.5)'
 TRAMP=1., VOLUME=1. $END
  3.08398E+05 -1.26135E+03  3.35201E+05  2.43237E+05  8.54053E+04  3.39984E+05 -1.27980E+05  2.51822E+05
 -2.04857E+05  9.10209E+04 -1.05589E+05 -3.21094E+04 -1.95907E+03 -5.75884E+04  5.09582E+04 -3.14559E+03
  3.86819E+04  4.75440E+04 -1.47321E+04  6.70502E+04 -5.60973E+04  6.27821E+04 -8.76315E+04  3.20391E+04
 -8.41572E+04 -1.08891E+04 -5.37434E+04 -4.57736E+04 -1.24294E+04 -7.59813E+04  2.07801E+04 -4.69787E+04
  3.68714E+04  2.07059E+02  1.99204E+04  4.18881E+04 -3.43469E+04  4.25536E+04 -6.41942E+04 -8.21596E+01
 -5.74905E+04 -6.24828E+04 -4.68480E+03 -7.39312E+04  3.40421E+04 -6.00594E+04  5.43879E+04 -1.82680E+04
  4.64023E+04  1.13514E+04  3.73408E+04  3.21107E+04  1.79799E+04  2.90458E+04 -7.50349E+03  2.33272E+04
 -2.79717E+04  1.70000E+04 -1.98346E+04  5.54208E+03  7.24540E+03 -5.88677E+03  2.54920E+04  1.36927E+04
  6.52669E+03  3.09639E+04 -3.93159E+04  3.73251E+04 -6.71257E+04 -1.62984E+03 -5.76250E+04 -4.63142E+04
 -1.41222E+04 -6.81749E+04  4.23312E+04 -4.34550E+04  5.83200E+04  8.05007E+03  3.80050E+04  3.52551E+04
 -6.76387E+03  4.29547E+04 -4.04213E+04  2.03049E+04 -3.12422E+04  8.80635E+02 -2.21948E+04 -5.29058E+03
 -6.88880E+03 -1.47574E+04 -4.47395E+03 -1.89045E+04  7.45104E+03 -1.80682E+04  2.26566E+04 -1.36903E+04
  1.65136E+04  8.44350E+03 -1.36358E+04  1.28877E+04 -2.60854E+04 -1.02118E+04 -2.70168E+03 -3.17387E+04
  2.01850E+04 -4.39446E+04  5.47701E+04 -1.52375E+04  5.31634E+04  1.92024E+04  1.62239E+04  4.29504E+04
 -1.83431E+04  3.83021E+04 -2.48283E+04  5.48965E+03 -1.38719E+04 -3.06495E+04  2.33717E+04 -3.78436E+04
  4.81457E+04 -1.13148E+04  3.81740E+04  3.09665E+04  2.03851E+04  5.40150E+04 -9.35858E+03  4.91241E+04
 -3.70846E+04  3.44204E+04 -4.90231E+04  1.00879E+04 -4.56013E+04 -2.00358E+04 -2.88716E+04 -4.48690E+04
  9.05304E+03 -4.48115E+04  3.71012E+04 -1.37675E+04  3.29538E+04  1.15975E+04  2.02609E+03  1.87620E+04
 -9.29281E+03  1.06133E+04 -8.32346E+03 -7.81077E+03  1.22556E+04 -1.23746E+04  2.07815E+04  5.29846E+03
  1.22222E+04  2.55730E+04 -7.12269E+03  3.08063E+04 -2.67635E+04  1.31597E+04 -3.56915E+04 -5.41979E+03
 -2.34549E+04 -1.77138E+04 -1.17825E+04 -1.48963E+04  2.15846E+03 -2.07392E+04  2.19976E+04 -2.54692E+04
  3.44819E+04 -1.14045E+04  3.79611E+04  1.23943E+03  3.04695E+04  1.70056E+04  2.52395E+03  4.26881E+04
 -2.87166E+04  2.98403E+04 -3.10557E+04  1.50834E+04 -2.92034E+04 -1.37909E+04 -4.91280E+03 -1.38286E+04
  2.29878E+03  8.12407E+02 -9.87797E+03  4.52371E+03 -1.70586E+04  6.02743E+03 -1.98404E+04 -2.04135E+04
 -1.50343E+04 -1.96491E+04  1.97791E+03 -2.44060E+04  2.02851E+04 -2.09775E+04  2.39094E+04 -1.28562E+04
  1.39677E+04  2.30931E+04 -1.43072E+03  2.53897E+04 -1.66376E+04  1.80848E+04 -2.14864E+04 -5.19384E+03
 -1.65504E+04 -2.64883E+04 -4.92281E+03 -3.18527E+04  1.12452E+04 -2.25852E+04  2.58128E+04 -1.25248E+04
  2.49735E+04  1.72622E+03  1.86750E+04  1.06218E+03  9.65889E+03  3.34721E+02  7.63696E+03  5.11169E+02
  2.60944E+04  5.25933E+01  2.41147E+04  1.96435E+04  2.39371E+04  4.24232E+04 -9.70059E+03  4.43545E+04
 -2.99084E+04  4.27307E+04 -4.30781E+04  1.81473E+04 -5.09661E+04 -8.64385E+03 -3.87718E+04 -3.31613E+04
 -1.40609E+04 -4.38876E+04  7.05876E+03 -3.36518E+04  3.02974E+04 -1.37267E+04  2.41130E+04  4.46475E+03
  6.04497E+03  2.12437E+04 -1.17594E+04  1.35905E+04 -2.31356E+04 -5.23332E+03 -1.89352E+04 -1.16304E+04
 -5.18436E+03 -1.88739E+04  3.89190E+03 -1.29519E+04  1.69655E+04 -1.09434E+04 -2.42885E+03  1.16981E+04
 -1.15331E+04  8.68611E+03 -6.65268E+03 -3.92866E+03 -8.17457E+03 -2.42969E+04  1.32071E+04 -2.54996E+04
  2.29582E+04 -9.00461E+03  2.97563E+04  2.51532E+03  2.60435E+04  1.81410E+04  1.33756E+04  3.10640E+04
 -8.55090E+03  3.17793E+04 -1.71224E+04  2.03837E+04 -1.64191E+04  8.21190E+03 -1.01972E+04 -1.01307E+04
 -2.66548E+03 -9.04142E+03 -4.62156E+03  1.02555E+03 -4.89131E+03  3.72480E+03 -6.91377E+03  6.03197E+03
 -1.22680E+04 -2.06542E+01 -1.18909E+04 -1.41393E+04 -9.04746E+03 -1.59336E+04  4.09671E+03 -1.64918E+04
  8.06892E+03 -6.63694E+03  6.59043E+03  1.43780E+02  4.55859E+03  9.29407E+03 -1.03198E+04  9.15508E+03
 -1.21838E+03 -4.25040E+03 -2.55544E+03 -1.93171E+04  1.09186E+04 -1.56797E+04  1.81553E+04 -1.12151E+04
  2.49885E+04  3.36094E+03  1.85682E+04  9.80945E+03 -4.02312E+02  2.04229E+04 -5.55715E+03  1.92993E+04
 -1.63336E+04  3.49455E+03 -8.55375E+03 -4.40271E+03  1.06982E+03 -6.96730E+03  6.90352E+03  3.05728E+03
  1.26507E+04  7.34313E+03  8.00640E+03  1.31702E+04 -4.85918E+03  9.14010E+03 -1.11247E+04  2.09832E+03
 -1.50649E+04 -9.15342E+03  2.61712E+03 -6.15520E+03  1.43965E+04 -4.29583E+03  1.10330E+04  4.29991E+03
  3.71269E+02  1.79904E+04 -9.41040E+03  1.35761E+04 -1.39499E+04  5.10596E+03 -9.10203E+03 -7.48163E+03
 -6.36942E+03 -1.77417E+04  6.83623E+03 -1.70095E+04  1.55209E+04 -1.25168E+03  2.09793E+04  4.41835E+03
  1.48610E+04  8.62511E+03 -2.12265E+03  1.76959E+04 -1.41360E+04  8.21535E+03 -1.29522E+04  1.11344E+03
 -1.60980E+04 -9.49721E+03 -2.87307E+03 -8.55901E+03  1.61620E+04 -6.41355E+03  1.15693E+04 -2.88698E+03
  3.40847E+03  5.82305E+03  3.13391E+03 -6.49805E+03  9.54247E+02 -2.19579E+03  3.01448E+03 -3.16880E+03
  1.93988E+04 -3.61621E+03  2.20274E+04  6.33294E+03  1.16429E+04  3.43747E+03  9.46471E+03  2.87148E+04
 -5.06583E+03  2.43495E+04 -2.15659E+04  1.59857E+04 -2.75884E+04  3.61691E+03 -3.70663E+04 -3.99093E+03
 -2.03690E+03 -2.23496E+04  1.14247E+03 -1.78458E+04  2.37227E+03  1.85649E+03  7.56180E+03 -7.71414E+03
  3.96060E+03 -6.93252E+03  6.08465E+03 -7.53362E+03  4.75705E+03 -2.62142E+02  6.29414E+03 -5.61414E+03
  1.39503E+04  2.72813E+03  2.86822E+03  7.77577E+03 -5.88575E+03  1.13590E+04 -1.32728E+04  1.20674E+04
 -1.47367E+04 -6.22073E+03 -1.02082E+04 -1.64164E+04  5.60703E+03 -1.79991E+04  8.06135E+03 -2.16452E+04
  2.07434E+04 -7.33254E+03  1.86313E+04  1.07776E+04  8.56581E+03  1.48925E+04 -2.52487E+03  1.46992E+04
 -6.94797E+03  1.87748E+04 -1.03726E+04  6.34491E+03 -2.78602E+03 -6.72804E+03 -5.23105E+03 -2.71672E+03
 -3.07855E+03 -6.07231E+03 -6.46142E+03  9.17884E+03 -9.92369E+03  7.31107E+02 -1.03016E+04 -2.90473E+03
 -1.07576E+04 -1.42551E+04  1.52835E+03 -9.81698E+03  9.12343E+03 -1.65806E+04  1.59347E+04  1.03704E+03
  1.66528E+04  5.39311E+03  5.72865E+03  8.59273E+03 -2.41391E+03  1.44205E+04 -1.01007E+04  6.20745E+03
 -1.89318E+04 -2.64925E+03 -1.25804E+04 -1.06764E+04 -2.08686E+03 -1.98698E+04  6.64214E+03 -9.42971E+03
  4.86045E+03 -8.21224E+03  9.27916E+03 -1.57087E+03  4.06631E+03  4.92385E+03  4.31907E+03  1.06129E+04
  2.70055E+03  9.95788E+02  9.37555E+03 -2.67416E+03  6.17680E+03  4.39184E+03  3.88821E+03  1.12853E+04
 -3.13719E+03  6.07771E+03 -1.29468E+04  8.69149E+03 -1.64734E+04  6.61941E+03 -2.11547E+04 -3.84573E+03
 -3.38278E+03 -1.19523E+04  7.57827E+03 -2.31441E+04  1.67763E+04 -9.68294E+03  1.53159E+04 -3.13214E+03
  3.82575E+03  5.44089E+03  5.72928E+03  1.18961E+04 -5.76337E+02  6.03398E+03 -8.38831E+03  4.61413E+02
 -4.43615E+03 -1.16264E+04  4.29375E+03 -1.03747E+04  1.50612E+04 -8.36754E+03  7.63352E+03  4.77503E+03
  1.79180E+03  2.63943E+03  5.18819E+03 -3.94684E+03 -3.30080E+03  9.81261E+02  1.01866E+03 -1.09022E+04
  3.59600E+03 -1.96390E+03  9.83549E+03  3.03749E+03  6.98422E+03  1.13885E+04 -3.75335E+03  1.11263E+04
 -4.44617E+03  3.62705E+03 -1.15481E+04  7.57417E+03 -8.38298E+03 -6.51573E+03 -9.10904E+03 -1.23415E+04
 -3.13722E+02 -4.07627E+02  4.09434E+03 -3.37484E+03  8.54192E+03  8.20042E+02  3.41883E+03  1.25417E+02
 -7.63007E+03 -1.88109E+02 -9.13269E+03 -4.26025E+02 -3.62574E+03 -4.91726E+03 -1.28225E+02 -1.13534E+04
  3.56381E+03 -7.56096E+03  1.58440E+04 -5.26621E+03  5.63399E+03  5.67366E+02 -6.56927E+02  6.41038E+03
 -6.50307E+03  1.11478E+04 -4.81939E+02 -8.72096E+03  3.92171E+03 -9.54848E+02  8.20804E+03 -6.88251E+03
  3.03629E+03  3.40615E+03  7.03019E+03  3.10355E+03  1.31258E+03  1.33323E+04 -2.11751E+03  1.29225E+04
 -4.99202E+03  6.47773E+03 -8.79411E+03 -7.14258E+03 -7.13962E+03 -1.04316E+04 -2.47728E+03 -6.47982E+03
  6.37009E+03  1.80768E+03  6.34403E+03 -2.55522E+03  3.38479E+03  4.31304E+03  1.11076E+03  3.61545E+03
 -2.03400E+03  9.05815E+03 -3.22400E+03  5.21143E+03 -3.03373E+03  1.49103E+03 -4.09475E+03  8.18916E+03
 -2.09771E+03  2.50484E+03 -1.14894E+04  2.51761E+03 -1.30242E+04  5.30751E+03 -9.40980E+03 -6.73174E+03
 -2.82349E+03 -1.58584E+04  3.31003E+03 -1.56309E+04  1.33304E+04 -1.11041E+04  1.33099E+04 -3.21975E+03
  1.79950E+04 -1.75601E+03  1.34110E+04  1.14633E+04 -2.12240E+03  1.58927E+04 -9.25678E+03  7.62260E+03
 -1.10928E+04 -8.87773E+02 -4.15530E+03 -5.42482E+03  1.76968E+03 -5.37323E+03  4.26569E+03 -3.66646E+03
 -6.02306E+03  2.84049E+03 -2.66677E+03 -5.08585E+03  1.24940E+03 -1.92355E+03  2.34069E+03  1.31974E+02
  5.72742E+03 -6.08273E+02  5.19080E+03  5.01308E+00  8.79011E+03  1.11200E+03  8.39693E+03  1.29043E+04
 -7.69138E+03  1.07914E+04 -1.71173E+04  6.04734E+03 -1.73174E+04 -4.79157E+03 -1.17453E+04 -9.09224E+03
 -4.64685E+03 -7.80026E+03  1.61103E+02 -1.19894E+04  1.42071E+04 -8.35020E+03  1.14790E+04  3.87386E+03
  7.71794E+03  7.54679E+02 -5.07434E+03 -7.79746E+03 -3.63140E+03 -1.00305E+03 -5.12239E+02 -8.10398E+03
  8.00001E+02 -3.25225E+03  8.75073E+03  2.88167E+02 -5.90276E+03  3.93827E+03 -4.55777E+03 -1.50346E+03
 -5.31198E+03  1.04535E+03 -6.43662E+03 -5.83690E+03 -3.49824E+03 -1.07766E+04 -1.64456E+03 -1.31917E+04
  4.09185E+03 -9.44138E+03  6.26163E+03  3.61300E+03  1.40716E+04  1.72336E+03  4.92875E+03  9.72403E+03
 -2.46668E+03  1.12466E+04 -7.88962E+03  9.25691E+03 -1.76603E+03  2.95755E+01 -4.89461E+03  5.12499E+02
 -6.05893E+03  1.77441E+03 -6.55684E+03  7.12574E+03 -5.47760E+03  2.84414E+02 -8.97964E+03 -8.28797E+02
 -5.56040E+03 -5.39110E+03 -1.69546E+03 -3.06526E+03  4.76538E+03 -1.59209E+04  5.69220E+03 -8.45776E+03
  1.37334E+04  3.41896E+02  7.67294E+03  2.79953E+02 -9.69780E+02  6.19857E+03 -5.89868E+02  6.33058E+03
