 $NMID ID='MM_0lb_SNR50_20hz_g45_42.RAW', FMTDAT='(8E13.5)'
 TRAMP=1., VOLUME=1. $END
  3.11715E+05  1.88785E+02  3.37012E+05  2.52673E+05  8.58236E+04  3.41431E+05 -1.29410E+05  2.50448E+05
 -1.88433E+05  7.62202E+04 -1.13444E+05 -3.19947E+04  2.96226E+03 -5.13749E+04  5.31521E+04  1.51780E+03
  3.74086E+04  5.19453E+04 -1.71232E+04  7.32156E+04 -5.84045E+04  6.00071E+04 -8.23504E+04  2.80774E+04
 -7.97452E+04 -9.63703E+03 -5.39259E+04 -4.83954E+04 -1.60868E+04 -6.60252E+04  3.07384E+04 -4.51217E+04
  3.83387E+04  2.44384E+03  1.43154E+04  5.30144E+04 -3.38654E+04  4.56129E+04 -6.41498E+04  9.20112E+02
 -4.52289E+04 -5.62118E+04 -8.12461E+03 -7.81059E+04  3.00563E+04 -5.23120E+04  4.44505E+04 -1.72974E+04
  4.18919E+04  9.87611E+03  3.40813E+04  2.20679E+04  1.32133E+04  2.71257E+04 -3.16998E+03  2.98005E+04
 -2.24480E+04  1.40910E+04 -1.91945E+04 -5.38683E+03  2.83671E+03 -4.95557E+03  1.66679E+04  1.18020E+04
  1.22461E+04  3.38288E+04 -3.20476E+04  3.61462E+04 -6.04454E+04 -2.22973E+03 -5.38706E+04 -4.02323E+04
 -1.73638E+04 -5.75361E+04  3.75530E+04 -4.42836E+04  5.37794E+04 -4.76205E+03  2.94541E+04  2.70347E+04
 -2.92428E+03  3.13507E+04 -2.85202E+04  1.16251E+04 -2.78290E+04 -4.68713E+03 -1.50111E+04 -6.50902E+03
 -4.42698E+03 -9.07400E+03  5.58763E+02 -1.48276E+04  6.41229E+03 -2.28594E+04  1.39390E+04 -1.23467E+04
  1.41616E+04  4.84417E+03 -7.56303E+03  1.17659E+04 -2.41164E+04 -5.85995E+03 -4.64929E+03 -2.84160E+04
  2.03948E+04 -3.52333E+04  4.38168E+04 -1.95303E+04  3.90927E+04  1.74601E+04  1.66088E+04  4.15634E+04
 -1.08477E+04  2.96551E+04 -1.98589E+04  3.44197E+01 -9.60277E+03 -2.68549E+04  2.09183E+04 -3.48795E+04
  3.98049E+04 -3.82831E+03  3.02818E+04  1.85342E+04  1.51529E+04  4.01634E+04 -1.08817E+04  4.43780E+04
 -2.31471E+04  2.83196E+04 -3.10965E+04  5.41237E+03 -3.59321E+04 -9.93058E+03 -1.66233E+04 -3.02996E+04
  8.37937E+03 -3.61221E+04  2.92427E+04 -1.35116E+04  2.74243E+04  1.36777E+04  2.38008E+03  1.61056E+04
 -1.19306E+04  7.55760E+03 -1.09798E+04 -8.07741E+03  4.00044E+03 -1.02113E+04  1.93653E+04  6.19404E+03
  8.84651E+03  1.98020E+04 -7.43284E+03  2.30311E+04 -2.07020E+04  9.75991E+03 -2.61275E+04 -5.66107E+03
 -1.94666E+04 -1.79929E+04 -4.79610E+03 -1.32479E+04  1.50391E+03 -1.27517E+04  1.41524E+04 -1.07096E+04
  2.47479E+04 -1.34330E+04  2.47403E+04 -7.53206E+02  2.06721E+04  1.33718E+04  4.28344E+03  2.91437E+04
 -1.41434E+04  2.59114E+04 -2.38326E+04  1.02159E+04 -1.88370E+04 -1.22272E+04 -4.71897E+03 -1.52915E+04
  3.44097E+03 -8.04195E+03 -5.16947E+03  6.54143E+03 -1.01373E+04  2.89047E+03 -1.13921E+04 -5.41950E+03
 -9.54348E+03 -1.51214E+04  7.23791E+03 -1.90385E+04  1.41724E+04 -1.56848E+04  1.28268E+04 -5.28685E+02
  9.66064E+03  1.09054E+04  4.43671E+03  1.70237E+04 -8.56216E+03  8.71115E+03 -1.36746E+04 -9.54060E+02
 -1.04392E+04 -1.56085E+04  1.22532E+03 -1.62129E+04  7.94695E+03 -1.37824E+04  1.31207E+04 -3.99092E+03
  1.23670E+04  2.38906E+03  9.05898E+03  1.95446E+03  3.26665E+03  3.05843E+02  6.27537E+03 -1.47326E+03
  1.00968E+04  1.66336E+03  1.19273E+04  1.18371E+04  1.00807E+04  2.23238E+04  2.06724E+02  2.44800E+04
 -1.68661E+04  2.09231E+04 -2.07697E+04  1.06620E+04 -2.16461E+04  1.86154E+02 -1.95008E+04 -1.32634E+04
 -6.90344E+03 -1.53960E+04  3.19581E+03 -1.95834E+04  1.32958E+04 -1.13544E+04  1.65265E+04  4.04417E+03
  2.50052E+03  4.19956E+03 -3.64142E+03  1.06774E+04 -1.41473E+04  2.44244E+03 -1.14296E+04 -7.76200E+03
  2.53713E+03 -8.46026E+03  3.86175E+03 -9.49140E+03  8.71066E+03 -2.69274E+03  2.72094E+03  6.05396E+03
 -3.72998E+03  4.35207E+03  2.43480E+03 -1.86310E+03  3.75162E+03 -1.22283E+04  6.74679E+03 -8.96424E+03
  1.21464E+04 -3.80753E+03  9.72101E+03  2.50663E+03  7.85570E+03  4.08717E+03  2.49593E+03  1.31201E+04
  8.42462E+02  1.60183E+04 -6.72840E+03  1.00987E+04 -1.00131E+04  6.93381E+02 -8.48094E+03 -6.03905E+02
 -7.00347E+03 -4.90873E+03 -2.53840E+03  1.07588E+03  5.71496E+02  7.65223E+03 -2.93970E+03  1.07588E+03
 -9.11836E+02 -2.27096E+03 -1.08814E+04 -3.84257E+03  1.36685E+02 -1.19241E+04  4.67238E+03 -7.95574E+03
  1.80395E+02 -3.35993E+03  2.51672E+03 -7.31059E+02  1.40458E+03  5.50775E+03 -2.44267E+03 -3.11657E+03
 -1.15570E+03  1.44584E+03 -5.11849E+02 -6.11231E+03  9.24582E+03 -6.42905E+03  9.61001E+03 -7.38194E+03
  9.30187E+03  4.18271E+03  7.85379E+03  7.24732E+03  3.83862E+03  4.24842E+03 -1.87608E+03  6.82475E+03
 -5.34981E+03 -1.96541E+03 -2.70391E+03 -1.54195E+03 -6.78752E+02 -3.80043E+02  8.21157E+03  1.78124E+03
  3.53375E+03  4.96998E+03  5.12225E+02  4.39965E+03 -7.34863E+03  2.65373E+03 -8.83374E+03  3.79622E+03
 -4.01421E+03 -3.73968E+03 -3.50783E+02 -1.67143E+03  3.99306E+03 -4.23912E+03  2.38950E+03  1.50210E+03
  1.10101E+03  4.63439E+03 -1.64893E+03  2.90774E+03 -2.23051E+03  2.48597E+02 -5.38541E+03  3.32466E+03
 -2.45351E+03 -4.28787E+03 -3.56875E+03 -4.72353E+03  6.80655E+03 -6.33349E+03  4.46190E+03 -8.58471E+02
  7.23281E+03  2.47383E+03  1.36388E+03  8.09340E+03 -4.41887E+03  2.00984E+03 -3.93275E+02  2.47666E+03
 -5.50810E+03 -6.32455E+03 -5.56020E+03 -2.23961E+03  1.42031E+03 -3.30600E+03  9.90328E+02 -5.02139E+03
  1.97839E+03  3.66205E+02 -2.64358E+03  5.24781E+03 -8.28256E+02 -8.53978E+02 -2.66998E+03 -9.00279E+01
  3.16057E+03 -3.38798E+02  6.19301E+03  1.59892E+03  4.19235E+03 -1.72910E+02  6.47543E+03  7.77815E+03
  1.32018E+03  9.94099E+03 -5.82848E+03  7.37367E+03 -7.95482E+03  1.45063E+03 -7.56196E+03 -7.71266E+02
 -3.26889E+03 -3.67522E+03 -4.09306E+03 -4.12359E+03  1.31458E+03 -1.81948E+03  3.41863E+03 -6.80245E+02
 -7.65762E+02 -4.95946E+03 -2.53525E+03 -4.75097E+03  1.87182E+03 -2.02658E+03  2.61416E+03  1.44557E+03
  3.20220E+03  2.59165E+02  3.21792E+03  4.11629E+02 -4.73453E+02  5.88409E+03 -3.88064E+03  2.33912E+03
 -4.26749E+03 -1.61903E+03  2.47406E+03 -4.22649E+03 -2.79166E+03 -6.73122E+03  3.03801E+03 -1.65570E+03
  1.52167E+03 -6.39838E+03  5.56629E+03  2.99416E+03  7.50839E+03 -2.59475E+02 -6.89491E+02  4.46887E+03
 -2.70512E+03  7.06795E+03 -2.59210E+03  2.47804E+03 -9.00504E+02 -1.26821E+02  1.68580E+03  2.65531E+03
 -4.70536E+02  5.84174E+02  9.32981E+02  2.24153E+03 -1.15968E+03 -1.54077E+03 -3.53153E+03 -3.07448E+03
 -3.34238E+03 -3.07811E+03 -2.51382E+02 -4.67106E+03  2.06933E+03 -5.19621E+03  1.41177E+03 -1.92038E+03
  1.98034E+03 -4.01148E+02 -3.28792E+03  1.87552E+03  1.99269E+02  7.52741E+03 -2.74297E+03  1.79448E+03
 -4.06041E+03  1.97985E+03 -4.73186E+03  1.09407E+03  3.94663E+03 -1.59753E+03  2.11015E+03 -1.51891E+03
  3.41927E+03 -5.78256E+03  2.75120E+03 -2.74873E+03  1.42535E+02  3.69156E+03 -1.85847E+03  2.00856E+03
  3.54472E+03  4.61682E+03  1.74707E+03  1.92877E+03 -3.76740E+03  3.42617E+03  5.58045E+03  1.18189E+03
 -4.79510E+03  2.77649E+03 -6.94183E+03  5.76710E+03 -2.88274E+03  1.34605E+03 -8.25939E+02  3.22165E+02
 -3.92394E+03 -4.85209E+03 -8.11884E+02 -1.57920E+03  4.69398E+03 -1.86078E+03 -1.26207E+03 -2.51240E+03
  1.07686E+03  1.82959E+03 -9.22514E+01  1.11874E+03  7.04974E+03  6.09617E+02 -2.17532E+02  1.21274E+03
  1.15388E+03 -1.74965E+03  4.45313E+03 -3.38369E+03  1.66733E+03 -1.07150E+03  1.48874E+03 -1.94283E+03
 -2.24672E+02 -6.24884E+02  1.90503E+03  1.74825E+03 -2.46257E+03 -2.15022E+03 -5.33634E+02 -2.63720E+03
 -1.27385E+03 -1.98251E+02  4.57056E+03  6.83328E+02 -2.69536E+02 -1.86381E+03 -4.39174E+03  9.89287E+02
 -2.21315E+03 -2.28189E+02 -1.71017E+03  2.77338E+03 -1.40585E+03 -1.84272E+03  3.79301E+03  1.31051E+03
  1.54522E+03 -3.76284E+01 -1.77466E+03 -8.58660E+02 -1.55013E+02  2.17497E+03 -3.11753E+03  2.46399E+03
  3.00984E+01 -3.25256E+03 -4.34279E+03 -2.64141E+03 -6.10199E+02 -2.26755E+03 -2.86558E+03  2.56733E+03
 -4.77821E+02  2.56675E+03  2.54345E+03  3.69873E+03  1.57107E+03  2.93238E+03 -1.54900E+03 -1.94233E+03
 -1.29387E+03 -1.75543E+03 -1.60003E+03 -4.11399E+03  5.78608E+02  3.11555E+03  1.50750E+03 -3.65723E+02
 -1.14534E+03 -2.30186E+03  3.36693E+03 -2.32729E+03  4.99062E+03  2.63941E+03 -1.22604E+03  1.07982E+03
  8.07254E+02  3.24901E+03  1.08822E+03 -5.30426E+02  2.75059E+03  4.04456E+02  4.90557E+03 -2.97637E+03
 -1.74960E+02  3.37795E+03 -1.61009E+03  6.00286E+02  6.37488E+02  4.44703E+03  4.13730E+03  8.43917E+02
 -5.04698E+02  6.87336E+02 -9.89820E+02 -1.62284E+03 -9.53271E+02  5.01505E+02  6.12238E+01  4.46677E+03
  3.36214E+03 -2.06885E+03 -4.38557E+02 -1.84977E+03 -4.50777E+02 -1.36731E+03 -5.40141E+03 -9.64583E+02
 -1.71058E+03 -3.61306E+03  1.70702E+03 -2.69714E+03 -2.80574E+03 -1.65486E+03 -1.91084E+03 -7.15834E+02
 -2.47989E+03 -1.11998E+03 -3.25059E+02  1.80439E+03 -2.21633E+03  2.04497E+03  2.65974E+02  3.29910E+03
 -3.99910E+02  6.25208E+02 -2.39352E+03 -3.51486E+03  4.35571E+02  2.30677E+02  1.23520E+03  4.95058E+01
 -3.40898E+03 -1.13866E+03  1.83645E+03 -1.41958E+03  1.34069E+03 -3.16070E+03  3.43361E+03  7.11013E+02
  5.50266E+02 -2.63857E+03  1.29526E+02 -3.30681E+02  2.63286E+03 -3.68213E+02 -2.64043E+03 -4.88868E+02
 -4.01141E+03  1.26042E+03 -5.59404E+02  1.15238E+03 -5.19448E+03 -1.34790E+03  6.11763E+03 -2.82603E+03
 -1.98981E+00  8.57683E+02  7.31117E+02 -2.74358E+03  5.01949E+02  1.03406E+03 -6.61624E+01 -1.67705E+03
  4.64677E+03  3.58257E+01  6.42051E+02  4.41346E+03 -4.62310E+03 -1.78671E+03  5.52202E+02  5.81826E+02
 -2.89853E+03  5.02301E+03  2.72639E+02 -1.19694E+03  1.68136E+02  4.96858E+02  6.74648E+02 -1.54129E+03
 -7.31383E+02 -7.22021E+01 -2.45001E+03 -3.12097E+03 -6.38934E+03 -2.18382E+03 -1.43655E+03 -1.63484E+03
 -1.27787E+03 -2.54819E+03  1.51379E+03  1.07781E+03 -1.46299E+03 -1.13473E+03 -4.78280E+03 -2.19661E+03
  6.23481E+02  1.45880E+03  3.99432E+03 -1.63014E+03  2.87336E+03  2.79262E+03  2.04476E+03  1.36258E+03
 -3.10431E+03 -4.38323E+02  3.62727E+03  7.09660E+02 -3.15193E+03  3.93515E+02 -1.85752E+03 -6.01442E+02
  8.72236E+02 -7.90349E+02  1.82600E+03  5.00301E+02  4.12659E+02 -7.48174E+03  3.05999E+03  1.24928E+03
 -3.60664E+03 -2.58980E+03 -1.35703E+02  7.99233E+02 -8.61669E+02  4.91616E+02  3.20244E+03 -2.31351E+03
