 $NMID ID='MM_0lb_SNR50_17hz_g60_70.RAW', FMTDAT='(8E13.5)'
 TRAMP=1., VOLUME=1. $END
  3.10811E+05  1.07905E+03  3.39513E+05  2.51771E+05  9.07454E+04  3.40009E+05 -1.31284E+05  2.50142E+05
 -1.81552E+05  8.53462E+04 -1.13230E+05 -2.74911E+04  2.75248E+03 -5.28347E+04  5.40049E+04 -3.95852E+01
  3.70259E+04  5.46469E+04 -1.98182E+04  7.38699E+04 -5.76966E+04  6.53640E+04 -8.27516E+04  3.50037E+04
 -7.63387E+04 -1.19259E+04 -5.53034E+04 -4.92324E+04 -1.28997E+04 -6.88980E+04  2.71055E+04 -5.00967E+04
  3.59383E+04  4.82586E+03  1.63383E+04  4.69410E+04 -3.24864E+04  4.68760E+04 -6.41443E+04 -1.43947E+02
 -5.10261E+04 -5.41326E+04 -1.34376E+04 -7.67965E+04  3.16885E+04 -5.51864E+04  4.42774E+04 -2.11764E+04
  4.05906E+04  6.06668E+03  3.11545E+04  3.17822E+04  1.56137E+04  3.32905E+04 -7.18443E+03  2.84559E+04
 -2.21498E+04  1.11195E+04 -2.12521E+04 -6.51080E+03  9.95390E+03 -1.05400E+04  1.96037E+04  1.54444E+04
  7.17528E+03  3.69567E+04 -2.92038E+04  3.61652E+04 -6.49865E+04  2.63834E+03 -5.49414E+04 -4.39421E+04
 -1.21889E+04 -6.20385E+04  4.54130E+04 -4.80051E+04  5.83021E+04 -4.07200E+03  2.97201E+04  3.05287E+04
 -1.90052E+03  3.43476E+04 -3.14421E+04  1.68363E+04 -3.25950E+04 -2.12676E+03 -1.64568E+04 -1.09043E+04
 -1.03009E+04 -1.53552E+04  2.37581E+01 -1.46347E+04  4.20802E+03 -2.30854E+04  2.02499E+04 -1.44931E+04
  8.81079E+03  5.25128E+03 -9.54647E+03  9.30927E+03 -2.15714E+04 -4.61928E+03 -4.49665E+03 -3.10406E+04
  2.29673E+04 -4.53083E+04  4.26844E+04 -1.68706E+04  4.87271E+04  1.73415E+04  1.53591E+04  4.46816E+04
 -1.83279E+04  3.26646E+04 -3.08471E+04 -1.16183E+03 -1.07178E+04 -2.62659E+04  1.71773E+04 -3.46949E+04
  3.98297E+04 -6.07169E+03  3.37667E+04  2.24889E+04  1.63449E+04  4.50594E+04 -6.22974E+03  4.97585E+04
 -2.99324E+04  3.42442E+04 -4.25833E+04  7.67647E+03 -3.70570E+04 -1.69666E+04 -2.19576E+04 -3.84899E+04
  8.74566E+03 -3.31560E+04  3.42539E+04 -1.48260E+04  2.95729E+04  1.03976E+04  7.17630E+03  1.68649E+04
 -1.19735E+04  8.76613E+03 -1.24752E+04 -8.29258E+03  1.12658E+04 -1.27916E+04  1.46217E+04  5.48881E+03
  1.15394E+04  1.93117E+04 -5.51625E+03  2.43715E+04 -2.21006E+04  8.31370E+03 -2.88944E+04 -3.01414E+03
 -1.65349E+04 -1.91638E+04 -5.55065E+03 -1.60530E+04  4.45667E+03 -1.83062E+04  1.43559E+04 -1.99968E+04
  2.63367E+04 -1.05788E+04  3.48439E+04  4.14190E+03  2.31599E+04  2.01051E+04  1.05685E+04  3.14282E+04
 -1.44014E+04  3.07779E+04 -2.62220E+04  1.28797E+04 -2.19690E+04 -8.11890E+03 -3.75281E+03 -1.45426E+04
  6.36658E+03 -5.83652E+03  2.16575E+03  5.49604E+03 -1.19572E+04  2.91317E+03 -2.01988E+04 -7.05892E+03
 -9.28503E+03 -2.56656E+04  1.87031E+03 -2.26524E+04  1.23291E+04 -1.60674E+04  2.27937E+04 -1.34702E+03
  1.20400E+04  1.51849E+04 -2.38905E+03  2.16376E+04 -1.32194E+04  7.71954E+03 -1.59360E+04 -3.28688E+03
 -1.21877E+04 -1.72049E+04 -4.08326E+03 -2.89967E+04  1.18118E+04 -1.51680E+04  2.36549E+04 -9.23525E+03
  1.71753E+04 -2.30824E+03  1.15367E+04  5.90110E+03  5.43644E+03 -3.54621E+02  1.16876E+04 -8.92415E+03
  1.65529E+04  3.10151E+03  1.71687E+04  1.11741E+04  1.33478E+04  2.55562E+04 -1.41042E+03  2.91339E+04
 -2.17407E+04  2.73080E+04 -2.84338E+04  1.45854E+04 -2.99516E+04 -3.93779E+03 -2.66415E+04 -1.38233E+04
 -1.28645E+04 -2.51859E+04  8.82042E+03 -2.21953E+04  2.49649E+04 -1.18526E+04  1.68374E+04  4.40582E+02
  7.54277E+03  9.79120E+03 -8.95542E+03  1.33342E+04 -1.37776E+04  4.29626E+03 -1.14547E+04 -1.16192E+04
 -1.02637E+03 -1.19772E+04  6.70425E+03 -1.26096E+04  1.05735E+04  2.42625E+03  1.24789E+03  4.62108E+03
 -1.02296E+04  1.98023E+03 -6.76183E+03 -1.01647E+04  3.98212E+03 -1.42961E+04  1.10162E+04 -1.32945E+04
  1.02823E+04 -6.34444E+03  1.74306E+04  3.98452E+03  1.76321E+04  1.68784E+04  5.03864E+03  1.93307E+04
  1.87243E+03  1.60178E+04 -1.25945E+04  1.33963E+04 -1.46598E+04  3.99362E+03 -9.81876E+03 -5.68138E+03
 -7.95849E+03 -4.22616E+03 -2.36041E+03 -2.17181E+03 -9.91101E+02  5.38468E+02 -4.92253E+03  6.21916E+03
 -7.26654E+03 -1.88164E+03 -7.58480E+03 -1.19910E+04 -5.68812E+03 -1.23838E+04  2.79675E+03 -9.90461E+03
  8.48344E+03 -2.29324E+03  2.70364E+03  3.28009E+03 -2.44994E+03  7.55414E+03 -1.86102E+03 -2.93123E+03
 -4.78659E+03 -7.94973E+03 -2.29214E+03 -1.21836E+04  6.41002E+03 -1.24327E+04  1.14539E+04 -3.20799E+02
  1.37613E+04  1.30481E+03  1.65300E+04  4.19170E+03 -2.62552E+03  1.22756E+04 -4.41336E+03  1.13961E+04
 -1.30799E+04  8.26783E+03 -2.54458E+03 -7.01484E+02 -2.12157E+02 -2.05731E+03  4.07452E+03  1.94325E+03
  6.88825E+03  5.16059E+03  1.83471E+03  6.77502E+03 -1.01601E+04  1.19121E+04 -1.02344E+04  7.08434E+03
 -7.46084E+03 -6.21347E+03 -2.06160E+03 -8.40318E+03  9.94683E+03 -4.67390E+03  3.49412E+03 -1.39527E+03
  1.28492E+03  2.68006E+03 -4.23056E+03  7.82364E+03 -2.89154E+03  3.90649E+03 -5.46666E+03  8.70299E+02
 -2.06721E+03 -1.04763E+04 -6.28741E+02 -6.96234E+03  1.12351E+04 -4.71092E+03  7.68669E+03  3.19137E+03
  7.44338E+03  1.09844E+04  4.59675E+02  8.14879E+03 -4.60618E+03  3.68363E+03 -5.81073E+03 -4.27967E+03
 -8.76132E+03 -5.82984E+03 -3.48634E+03 -7.45388E+03 -1.83698E+03 -9.84589E+03  1.05043E+03 -4.21944E+03
  2.67980E+03 -3.70142E+02 -3.67960E+03  2.68851E+03 -9.49963E+02  9.93471E+01 -2.21157E+02  1.75839E+03
  6.07937E+03 -4.90095E+03  4.04778E+03  1.43274E+03  5.35128E+03  4.22126E+03  1.05548E+04  1.03306E+04
 -4.86738E+03  1.66605E+04 -7.94617E+03  8.55742E+03 -1.09849E+04 -6.14270E+02 -9.59944E+03  6.14683E+02
  1.44929E+03 -7.26109E+03  1.51927E+03 -3.21804E+03  1.11495E+03 -4.49161E+03  3.48368E+03 -3.58433E+03
 -2.78625E+02 -3.71708E+03  4.45066E+03  2.11688E+03  3.44357E+03 -8.24183E+02  6.98919E+03 -1.66846E+03
  3.57436E+03 -3.60558E+03  2.05440E+03  4.30930E+03 -9.13353E+02  1.92795E+03 -6.01514E+03  1.79131E+03
 -2.82904E+03 -9.54499E+02 -3.89530E+03 -6.61381E+03 -1.65199E+03 -5.54325E+03  6.08423E+03 -1.07231E+04
  9.67195E+03 -6.10356E+03  1.17683E+04  2.14337E+03  1.00565E+04  5.08415E+03  2.27027E+03  7.37033E+03
 -5.98257E+03  1.15465E+04 -2.53338E+03  5.86072E+03  2.78339E+03 -5.89655E+02 -1.19391E+03  1.35401E+01
 -1.55409E+03 -2.41057E+03 -3.61074E+03 -8.40163E+02  3.48327E+02  8.90804E+02 -5.43503E+03 -2.97203E+03
 -7.53942E+03 -2.11088E+03  3.03876E+02 -8.55561E+02  1.72396E+03 -4.95592E+03  4.52572E+03 -4.20006E+03
  7.44827E+03  4.60450E+03  5.13425E+03  6.98479E+02 -2.56177E+03  3.62799E+03 -7.33654E+03  5.65397E+03
 -2.74179E+03  2.11170E+03 -3.80013E+03 -3.34611E+03  2.73286E+03 -4.93938E+03  2.96451E+02 -5.54865E+03
  4.37898E+03 -2.36503E+03  7.49060E+03  1.53117E+03  3.51774E+03  3.06294E+03 -2.15769E+03  1.41914E+03
  2.26457E+03  1.00718E+03  1.26051E+03 -4.90982E+02  6.48130E+03  7.14671E+03  1.01617E+03 -1.25528E+03
 -3.78027E+02  5.60821E+03 -5.96222E+03  4.09611E+02 -6.12053E+03  2.76926E+03 -4.82878E+03 -8.53653E+02
 -3.49507E+03 -4.20719E+03  3.46178E+03 -3.55423E+03  4.60891E+03 -3.26796E+03  2.96529E+03 -1.42614E+03
  2.93120E+03  8.96224E+02 -1.98870E+03  1.77450E+03  1.24963E+03 -1.61502E+02 -1.85420E+03  4.49616E+03
 -3.14247E+03 -4.53844E+03  1.01616E+03 -2.73616E+03 -2.81616E+03 -4.17703E+03  2.66648E+03  1.65058E+03
  1.77329E+03 -1.25587E+03  3.34746E+02 -4.49931E+02 -2.02839E+03  5.64562E+03  1.59704E+02  3.04515E+02
 -3.45915E+02 -9.44283E+02 -2.58744E+02  1.44672E+03  6.58763E+02  2.42392E+03 -1.96785E+03 -2.76250E+02
 -3.37504E+03 -8.97722E+02  1.08170E+03  1.69520E+03 -5.18107E+03 -2.96503E+03 -1.75741E+02 -3.62984E+03
  1.01298E+03 -1.60044E+02  2.13131E+02 -7.50567E+02  6.64933E+03  2.82700E+03 -3.73218E+03 -1.26327E+03
 -3.75041E+03  1.95164E+03 -2.14238E+03 -8.61191E+02 -6.39861E+03 -4.71672E+03 -1.94593E+02 -5.65156E+03
  7.14232E+03 -4.28750E+03  3.01752E+03 -3.39720E+03  9.32385E+02  6.85979E+02  2.20375E+03  1.17400E+03
 -3.17757E+02  3.33935E+03 -3.88603E+03  4.15371E+03 -5.25987E+03 -5.61006E+03  5.58027E+03  1.33486E+03
  1.69122E+03  3.94351E+02  5.68377E+03 -1.93283E+03  3.78832E+03  5.75343E+03 -2.55870E+03  2.97129E+03
 -5.30211E+03  2.14505E+03 -3.58136E+03  6.52068E+02 -3.49176E+03 -3.92080E+03  6.57389E+02 -1.09788E+03
  9.12126E+02 -3.31015E+03 -4.68220E+03 -1.40307E+03 -1.50271E+03 -6.40798E+02 -4.96382E+02  2.90210E+03
 -2.35624E+03  1.73583E+03 -2.53483E+01 -2.99459E+03 -2.91965E+02  4.49799E+03 -3.02640E+03  1.62227E+03
 -1.89314E+03 -8.77531E+02 -8.14111E+03  5.55465E+03 -2.46124E+02 -3.34187E+02 -3.85965E+01 -5.35807E+03
 -1.08698E+03  3.48982E+02  1.19889E+03 -6.74669E+03  5.74189E+03 -7.48477E+03  3.75301E+03 -2.13332E+03
  3.17232E+03  9.03283E+03  2.44375E+03  4.41725E+02  5.47751E+03  1.43606E+02 -1.46362E+03  4.89556E+03
 -2.45862E+03 -1.07915E+03 -3.27557E+02 -3.25809E+03  6.29647E+03 -1.41673E+03 -6.63641E+03  3.79961E+02
 -4.49066E+03 -1.10011E+03 -4.69525E+02  1.77672E+03  3.32568E+03 -7.45870E+02  9.28352E+02 -1.35497E+02
  3.16665E+03 -4.23172E+02 -1.79231E+03 -7.83585E+02  1.09208E+03 -1.18980E+03 -1.92730E+03  2.93866E+03
  1.80502E+01  2.70423E+03 -2.88187E+03  3.37046E+03 -2.14346E+03  1.47467E+03 -6.09603E+03 -3.32680E+03
 -1.75755E+03 -1.79760E+03 -2.48451E+03  1.26565E+03  1.65401E+03 -5.38658E+03 -1.71225E+03  3.10654E+03
 -1.40445E+03 -1.27489E+03 -4.88825E+03 -5.10644E+02  1.19705E+03  1.11616E+03  8.78141E+02  9.16083E+02
 -2.36510E+03  7.29886E+02  6.45697E+03  3.58818E+03  8.92234E+01 -1.25668E+02  1.33621E+01  2.18379E+03
  8.09809E+02  4.15116E+03  5.11780E+03 -2.51268E+03 -5.75609E+02 -1.29283E+03 -1.24991E+03 -2.66217E+03
 -1.72204E+02  8.79551E+02  2.15202E+03 -2.88678E+03  4.66183E+03  2.56296E+03  7.84083E+02 -1.27824E+03
  8.52819E+02  1.22288E+03  2.80081E+03 -1.70541E+00  3.14254E+03  1.43450E+03 -1.67906E+01 -1.21307E+03
 -1.26598E+03  4.20781E+03  3.01986E+03 -3.75089E+03  3.18057E+03 -1.44117E+03 -4.78899E+03  1.27055E+03
  9.46877E+00  1.18303E+03 -1.34979E+03  3.23715E+03  3.13677E+03 -6.06937E+03 -1.74795E+03 -1.56338E+03
  9.42019E+02  9.00193E+02  5.20176E+03 -3.22346E+03 -6.33873E+02  4.14465E+03  1.78292E+03 -1.41619E+03
