 $NMID ID='MM_0lb_SNR50_12hz_g50_59.RAW', FMTDAT='(8E13.5)'
 TRAMP=1., VOLUME=1. $END
  3.06560E+05  5.34654E+03  3.41525E+05  2.54927E+05  9.03263E+04  3.42609E+05 -1.28810E+05  2.57325E+05
 -1.90120E+05  8.41745E+04 -1.11302E+05 -3.01377E+04 -3.65925E+02 -5.03924E+04  5.91362E+04 -5.28786E+03
  3.28719E+04  5.22584E+04 -1.02302E+04  7.84662E+04 -6.29331E+04  6.62846E+04 -8.88754E+04  3.28136E+04
 -7.97001E+04 -9.45440E+03 -5.82674E+04 -5.28838E+04 -1.32353E+04 -6.48014E+04  2.88030E+04 -4.73819E+04
  4.11312E+04  3.95898E+03  1.82697E+04  5.04030E+04 -3.27861E+04  5.24120E+04 -6.13650E+04 -2.02307E+03
 -5.23202E+04 -5.74959E+04 -5.45173E+03 -7.33986E+04  3.99689E+04 -6.20779E+04  5.60971E+04 -1.99658E+04
  4.26863E+04  4.38636E+03  3.68709E+04  2.90152E+04  1.48280E+04  3.40825E+04  3.92137E+02  2.65334E+04
 -2.84464E+04  9.31517E+03 -1.65581E+04 -1.84782E+03  7.52380E+03 -4.21367E+03  2.34362E+04  9.72679E+03
  4.33562E+03  3.18928E+04 -3.38325E+04  4.31146E+04 -6.39286E+04  4.30895E+03 -6.26311E+04 -4.24640E+04
 -1.44583E+04 -6.48988E+04  4.07042E+04 -4.70707E+04  5.71487E+04 -4.45984E+03  3.93677E+04  3.84351E+04
 -6.21449E+03  3.52015E+04 -2.78462E+04  1.84159E+04 -3.22718E+04 -2.98955E+03 -1.29447E+04 -1.46745E+04
 -8.30148E+03 -1.05648E+04  1.56415E+03 -1.65810E+04  1.34236E+04 -2.98332E+04  1.71852E+04 -1.21066E+04
  9.90500E+03  6.17446E+03 -3.30543E+03  1.11168E+04 -1.96851E+04 -2.24202E+03 -8.87372E+03 -3.47899E+04
  1.86627E+04 -4.97623E+04  4.63051E+04 -2.02830E+04  4.80808E+04  1.56923E+04  1.43333E+04  4.92077E+04
 -2.08228E+04  2.96162E+04 -3.15166E+04  2.60538E+03 -1.31428E+04 -2.58850E+04  1.64436E+04 -3.81373E+04
  4.24827E+04 -1.07749E+04  4.18564E+04  2.30618E+04  2.00524E+04  5.22980E+04 -8.66779E+03  5.16699E+04
 -2.78993E+04  3.64458E+04 -4.53722E+04  1.04227E+04 -4.37878E+04 -1.63801E+04 -2.46450E+04 -3.91287E+04
  4.59301E+03 -3.91837E+04  3.44787E+04 -1.88923E+04  3.03631E+04  1.30535E+04  4.12251E+03  2.18263E+04
 -1.29283E+04  9.87277E+03 -9.43376E+03 -1.06949E+04  8.75816E+01 -1.11793E+04  1.85470E+04  9.85100E+03
  1.43994E+04  2.07185E+04 -6.88340E+03  2.65200E+04 -2.59261E+04  1.32865E+04 -2.75366E+04 -4.57571E+03
 -2.12488E+04 -1.78649E+04 -1.02330E+04 -2.76779E+04  6.65121E+03 -2.21608E+04  1.70736E+04 -2.25621E+04
  2.75705E+04 -1.23220E+04  2.97834E+04  1.11334E+03  2.28497E+04  1.93009E+04  4.36584E+03  4.09329E+04
 -1.87347E+04  3.71056E+04 -2.47060E+04  1.05637E+04 -2.21477E+04 -1.35535E+04 -2.72965E+03 -1.60740E+04
  8.65220E+02 -4.84296E+03 -8.49406E+03  3.54444E+03 -1.63282E+04  3.38498E+03 -1.84768E+04 -4.04325E+03
 -1.19711E+04 -2.10007E+04  1.23701E+04 -2.46904E+04  1.66603E+04 -1.84481E+04  1.43442E+04  3.42033E+03
  1.50980E+04  1.13354E+04 -2.52471E+03  1.90106E+04 -1.45058E+04  1.21233E+04 -2.64678E+04 -1.20786E+04
 -1.72996E+04 -2.11806E+04 -2.43472E+03 -2.38328E+04  1.39572E+04 -2.15326E+04  2.47088E+04 -7.19521E+03
  2.17245E+04 -3.07795E+02  1.78510E+04  3.90207E+03  3.39316E+03  1.17203E+03  1.19655E+04 -5.49659E+03
  1.79110E+04  2.52526E+03  1.93167E+04  1.43077E+04  1.31538E+04  3.32459E+04 -5.94518E+02  3.74286E+04
 -1.77497E+04  3.36529E+04 -3.66629E+04  9.10975E+03 -4.50638E+04 -4.13835E+03 -3.27964E+04 -2.32077E+04
 -1.72262E+04 -2.74362E+04  1.17310E+04 -2.50215E+04  2.39701E+04 -1.46863E+04  1.92627E+04  8.99271E+03
  4.13699E+03  1.82103E+04 -6.88165E+03  2.15177E+04 -1.66959E+04  3.80045E+03 -1.38599E+04 -8.36435E+03
 -5.66402E+03 -1.36743E+04  1.06163E+04 -9.72962E+03  1.16583E+04 -3.63259E+02  2.04688E+03  2.20580E+03
 -6.71863E+03 -2.61096E+03 -6.32296E+03 -5.76625E+03 -2.13605E+03 -1.62969E+04  1.33698E+04 -1.37712E+04
  1.70981E+04 -5.93096E+03  2.69735E+04  4.06043E+03  1.81046E+04  1.66034E+04  9.16914E+03  2.26650E+04
 -5.18650E+03  2.74453E+04 -1.46141E+04  1.58844E+04 -1.75733E+04  1.04345E+04 -1.33812E+04 -3.88604E+03
 -5.75183E+03 -7.13064E+03  1.99892E+03 -2.54337E+03 -4.88183E+03  4.79457E+03 -7.72707E+03  5.03551E+03
 -1.50723E+04 -3.80512E+03 -1.27109E+04 -7.84992E+03 -1.34147E+04 -1.16281E+04  8.23409E+03 -1.34615E+04
  9.87364E+03 -4.27415E+03  7.53396E+03  2.54628E+03  1.62404E+03  1.24334E+03 -4.38326E+03  9.66603E+02
 -2.71764E+03 -8.62317E+03  5.10240E+00 -1.05210E+04  7.48635E+03 -1.80829E+04  1.97488E+04 -5.12038E+03
  2.12874E+04  2.95107E+03  1.11742E+04  1.25409E+04  6.49908E+03  2.13061E+04 -4.43793E+03  1.24208E+04
 -1.24438E+04 -2.43229E+03 -9.59989E+02 -3.26567E+03 -2.91034E+02  9.30334E+02  3.92611E+03 -3.64651E+02
  4.78200E+03  1.04260E+04 -3.94419E+03  8.33066E+03 -1.93865E+03  1.16780E+04 -1.33849E+04  6.19010E+03
 -7.89601E+03 -7.20632E+03 -1.85942E+03 -1.15514E+04  5.23603E+03 -3.83048E+03  8.33059E+03  2.94243E+03
  2.58897E+02  7.06922E+03 -5.05273E+03  7.10998E+03 -9.62503E+03  1.20573E+03 -9.93035E+03  2.42141E+02
 -5.64457E+03 -1.74701E+04  2.37753E+03 -1.44961E+04  6.71243E+03 -4.08938E+03  1.68502E+04  4.75198E+03
  7.57195E+03  1.15924E+04  3.47359E+02  1.47905E+04 -5.67275E+03  2.35334E+03 -1.19374E+04  3.28151E+03
 -7.84902E+03 -1.09542E+04  2.09748E+03 -8.08839E+03  6.22460E+03 -1.01133E+04  3.06640E+03 -2.75743E+03
  8.95087E+03  1.86819E+03  9.29045E+02  4.24111E+03 -6.42043E+03 -8.30080E+02  1.64818E+03 -1.73762E+03
  8.72022E+03  2.02739E+03  1.05831E+04  2.07033E+03  1.18315E+04  6.55719E+03  1.16644E+04  1.90571E+04
 -4.17710E+03  1.37820E+04 -1.25602E+04  1.69801E+04 -1.65230E+04  3.23725E+03 -1.44397E+04 -1.76589E+04
 -7.24793E+03 -1.48703E+04  2.40246E+03 -1.14482E+04  1.09191E+03 -1.17118E+03  5.92485E+03 -5.64696E+03
  8.07477E+03  1.50524E+03  3.91594E+03  2.53655E+03  4.14630E+03  4.41981E+03  4.44711E+03  4.70228E+01
  9.75840E+03  5.51609E+02  2.90386E+03  6.60543E+03  1.79702E+03  7.99176E+03 -7.79135E+03  7.60097E+03
 -9.88090E+03  1.02142E+03 -8.71382E+02 -8.21283E+03  2.91740E+02 -1.34388E+04  4.77679E+03 -1.50605E+04
  1.64636E+04 -2.91805E+03  1.78229E+04  1.68725E+03  1.09253E+04  1.20218E+04 -1.28756E+03  1.49658E+04
 -4.86658E+03  1.16643E+04 -3.24015E+03  3.34976E+03 -5.00557E+03 -5.84487E+02 -3.94256E+03 -5.13376E+02
  3.25453E+03 -2.46483E+03  2.06239E+02  2.98912E+03 -5.79174E+03  7.90575E+02 -1.53823E+04  6.24401E+02
 -4.17620E+03 -7.86971E+03 -6.81318E+02 -1.49078E+04  1.23484E+02 -8.04377E+03  5.59255E+03 -9.44498E+02
  9.68531E+03  8.71656E+03  9.64887E+03  9.82163E+03 -2.17496E+03  1.02002E+04 -7.33397E+03  1.01923E+04
 -6.26232E+03  9.85294E+02 -4.36297E+03 -9.13549E+03 -1.86869E+03 -8.48191E+03  5.15142E+03 -8.57005E+03
  4.89523E+03 -2.06471E+03  6.08464E+03  2.16599E+03 -9.38050E+01  2.01659E+03  1.62017E+03  1.60166E+03
 -3.82385E+03 -1.55220E+03  1.17582E+03  7.13591E+02 -5.62595E+02  5.19675E+03  1.33043E+02  6.90364E+03
 -7.52910E+03  6.59647E+03 -5.69128E+03  6.61921E+03 -9.98075E+03  3.16937E+02 -1.16183E+04 -3.22382E+03
 -8.43305E+03 -8.52789E+03  1.13350E+02 -7.58934E+03  1.22738E+04 -8.24303E+03  3.76329E+03 -3.58819E+03
  8.39221E+03  4.50214E+03 -1.39595E+03  5.81198E+03 -1.01393E+04  7.05780E+03 -2.20378E+03  2.94666E+03
 -3.22786E+03  1.77698E+03  2.65824E+03 -4.71391E+03  4.60361E+03  1.38436E+03  3.24203E+03  9.92821E+02
  9.73065E+00  1.57722E+03 -1.22702E+03 -1.29194E+03  7.64772E+01  5.74123E+03  3.09112E+03 -1.83380E+03
  5.91217E+03  9.29550E+02  8.98171E+03  7.08902E+03 -2.76790E+03  8.95627E+00 -1.99669E+03  3.56521E+03
 -2.89437E+03  7.83697E+03 -9.80806E+03  3.16185E+02 -4.41253E+03 -5.32096E+03 -5.94724E+02 -5.65998E+03
  5.31407E+03 -6.61566E+03  3.48440E+03  3.87836E+02  1.40206E+03  2.71891E+03  8.63524E+02 -2.68988E+02
 -5.09942E+03  2.78573E+03 -2.49073E+03 -3.26278E+03 -4.03310E+03 -1.30349E+04  1.07814E+03 -5.64228E+03
  4.87513E+03 -3.73607E+03  6.20807E+03  1.58362E+03  6.26697E+03 -2.58091E+03  7.36548E+02  2.90950E+03
 -1.76909E+03 -1.31547E+03 -4.06832E+03 -4.47749E+03  5.63035E+03 -2.84404E+03  3.88304E+03  2.34791E+03
  5.66698E+03  2.01023E+03  8.46082E+03  1.58923E+03 -4.45378E+02  9.16180E+03 -2.05479E+03  5.89300E+03
 -6.82656E+03  6.53047E+03  4.69800E+02 -5.48199E+03  4.83524E+03 -2.82936E+03  4.60177E+03  3.63807E+03
  6.81462E+03 -6.02209E+02  2.19504E+03  4.00077E+03 -1.08364E+03  2.08960E+03 -1.52563E+03 -1.09243E+03
 -2.10766E+03  3.24216E+03 -2.75834E+02 -2.40668E+03 -4.11750E+03 -2.30354E+03  6.04158E+01  3.37439E+03
  6.92035E+03  4.13693E+02 -7.54631E+03  5.26176E+03 -8.97114E+02  3.44020E+03 -2.45245E+03 -2.81388E+03
 -6.65444E+03 -5.35936E+03  2.95799E+03 -9.84703E+03  6.29050E+03 -5.23520E+03  8.05119E+03 -2.64810E+02
  4.35395E+03  1.00850E+03  7.52911E+02  2.56726E+03 -3.99842E+03  6.78582E+03 -2.51007E+03  4.28370E+03
 -3.28500E+03 -3.82660E+03 -2.22309E+03 -1.85341E+03 -2.16167E+03 -3.68018E+03  2.46818E+03 -3.73193E+03
 -2.75986E+02  2.82347E+03 -3.59291E+03  4.95484E+03 -1.05522E+03 -2.89422E+03 -2.04748E+03 -4.68852E+03
  4.98147E+03  7.79228E+02  4.90522E+03  4.02125E+03  9.72817E+02  2.25357E+02  1.63192E+03  5.05944E+03
 -2.29454E+03  6.56606E+03 -7.63146E+03  4.17990E+03 -9.76480E+03  1.44638E+03 -7.67124E+03 -3.59162E+03
 -5.37500E+02 -4.76248E+03  3.42077E+03 -5.99201E+03  4.49145E+03  2.40208E+02  1.20625E+04  7.83725E+03
  3.05561E+03  3.67761E+03  1.04001E+02  1.03855E+03 -2.49136E+03  4.99624E+03  1.54677E+03 -5.38505E+03
  3.52477E+03 -1.99643E+03  1.55358E+03  9.42275E+02 -2.29719E+03  4.45275E+03  6.37625E+01  5.36127E+03
  2.62270E+03  1.74089E+03 -2.43837E+02 -3.46474E+02 -3.75724E+02 -3.57371E+03  2.58214E+03 -4.49667E+03
  4.18284E+02 -6.59049E+03  5.93411E+03 -5.56837E+03  6.79976E+03  6.91160E+02  3.70448E+03  1.20411E+03
  5.08460E+03  1.92011E+03 -4.68036E+03  5.14770E+03  1.01155E+03 -5.54592E+02 -9.65962E+03  3.23559E+03
  1.56567E+03 -3.82357E+03 -1.29613E+03  2.18736E+03 -3.15310E+03 -7.61205E+01 -8.51597E+02 -2.05817E+03
 -1.65492E+03  1.34546E+03 -2.17386E+03 -1.59051E+04  2.64513E+03 -4.87816E+03  5.52923E+02 -2.34230E+03
  9.77405E+03 -2.81818E+03  1.48110E+03  3.32925E+03 -4.65295E+03  2.56353E+02 -8.52936E+03  2.05049E+03
