 $NMID ID='MM_0lb_SNR50_10hz_g55_76.RAW', FMTDAT='(8E13.5)'
 TRAMP=1., VOLUME=1. $END
  3.11434E+05  4.64381E+03  3.43966E+05  2.55632E+05  8.92724E+04  3.34381E+05 -1.29595E+05  2.49989E+05
 -1.92585E+05  8.40746E+04 -1.03656E+05 -3.55263E+04  7.67476E+03 -5.98101E+04  4.72483E+04 -2.05400E+02
  3.42201E+04  5.27688E+04 -1.51748E+04  7.63609E+04 -6.35364E+04  6.03680E+04 -8.79571E+04  3.41400E+04
 -8.01398E+04 -4.73857E+03 -6.18471E+04 -5.51253E+04 -1.21908E+04 -7.46780E+04  3.00999E+04 -4.39214E+04
  4.06962E+04 -2.64825E+03  8.83508E+03  5.46924E+04 -3.13347E+04  5.49234E+04 -6.96425E+04  1.33493E+03
 -5.57447E+04 -5.52808E+04  1.25387E+02 -7.48634E+04  3.38586E+04 -5.49820E+04  5.04481E+04 -2.28702E+04
  4.73874E+04  1.42078E+04  3.06903E+04  2.02994E+04  1.42083E+04  3.18232E+04 -9.55294E+03  2.16485E+04
 -2.16288E+04  1.09759E+04 -2.28632E+04 -1.43051E+04  5.63920E+03 -9.04278E+03  2.41024E+04  9.12602E+03
  1.17174E+04  3.33152E+04 -2.96669E+04  4.02246E+04 -6.44894E+04  3.13282E+03 -6.48172E+04 -4.51607E+04
 -1.26858E+04 -7.10314E+04  3.44460E+04 -4.92620E+04  6.48976E+04  1.62597E+03  3.98552E+04  3.55709E+04
  3.67192E+02  3.71473E+04 -3.50106E+04  1.77175E+04 -2.90838E+04 -7.90912E+02 -2.57449E+04 -8.19614E+03
 -8.19928E+03 -1.37286E+04 -1.87736E+03 -1.87023E+04  8.42706E+03 -2.78733E+04  2.02566E+04 -1.18917E+04
  1.49204E+04  1.84327E+03 -1.21892E+04  1.10149E+04 -2.11085E+04 -5.43427E+03 -2.52228E+03 -3.84266E+04
  2.50773E+04 -4.51709E+04  4.92396E+04 -1.71854E+04  4.95604E+04  2.90288E+04  2.09103E+04  4.38585E+04
 -1.44850E+04  3.16690E+04 -2.52116E+04  6.51171E+02 -1.40096E+04 -2.77049E+04  2.55428E+04 -3.82846E+04
  4.65537E+04 -6.74453E+03  4.04820E+04  1.64415E+04  1.88259E+04  4.99923E+04 -1.27617E+04  5.59810E+04
 -3.79483E+04  3.98112E+04 -4.44124E+04  9.90181E+03 -4.66328E+04 -2.10434E+04 -2.28200E+04 -4.50331E+04
  1.14458E+04 -4.62625E+04  4.25482E+04 -1.04415E+04  3.52303E+04  6.93181E+03  6.62376E+03  2.37678E+04
 -1.20987E+04  1.04325E+04 -1.75412E+04 -1.25941E+04  1.31121E+04 -1.19102E+04  2.32819E+04  4.02564E+03
  1.80805E+04  1.65748E+04 -7.00489E+03  2.83105E+04 -2.23340E+04  2.24843E+04 -2.89658E+04  4.39953E+03
 -2.23509E+04 -1.52254E+04 -1.79038E+04 -2.53946E+04  3.90868E+03 -2.30804E+04  1.99260E+04 -2.03610E+04
  2.70031E+04 -1.16787E+04  4.04809E+04  2.03277E+03  2.81672E+04  2.04959E+04  3.17287E+03  3.77829E+04
 -2.32255E+04  3.12030E+04 -3.32900E+04  1.51035E+04 -1.34075E+04 -1.15107E+04 -1.17140E+04 -1.84677E+04
 -1.77781E+02  1.01391E+03 -7.24470E+03  7.17096E+03 -2.27110E+04 -1.67581E+03 -2.32501E+04 -7.98508E+03
 -1.23135E+04 -2.89701E+04  4.88597E+03 -2.42269E+04  1.50588E+04 -2.27713E+04  2.14139E+04 -3.77588E+03
  1.48119E+04  1.85891E+04 -7.81767E+03  1.85816E+04 -1.75963E+04  1.31171E+04 -2.16660E+04  1.06004E+03
 -1.62486E+04 -2.18651E+04  8.20347E+02 -2.48817E+04  1.15513E+04 -2.04818E+04  1.94318E+04 -1.22017E+04
  2.33031E+04 -5.47602E+03  1.28369E+04  3.33678E+03  1.24736E+04 -1.91120E+03  1.25912E+04 -2.54270E+03
  2.40302E+04  1.34203E+03  2.25127E+04  1.89646E+04  1.68948E+04  4.16129E+04 -2.76135E+03  3.76776E+04
 -2.10322E+04  3.39049E+04 -3.96464E+04  1.80585E+04 -4.50228E+04 -1.97420E+03 -3.38134E+04 -2.89558E+04
 -1.58134E+04 -3.89844E+04  8.82896E+03 -3.03327E+04  3.18497E+04 -1.40894E+04  2.41527E+04  7.49366E+03
  7.97871E+03  1.93004E+04 -7.93452E+03  1.46545E+04 -1.99674E+04 -1.19610E+03 -1.35384E+04 -1.71611E+04
 -4.91191E+03 -1.60935E+04  6.10075E+03 -1.23987E+04  7.37206E+03 -1.09733E+04  4.28311E+03  1.05025E+04
 -9.60160E+03  3.33688E+03 -1.04282E+04 -5.83532E+03 -1.98119E+02 -1.86014E+04  1.18967E+04 -2.11585E+04
  2.99630E+04 -5.51469E+03  2.26826E+04  1.22633E+03  2.27605E+04  1.54775E+04  1.09600E+04  2.80782E+04
 -1.08043E+03  3.02373E+04 -2.81342E+04  1.96761E+04 -2.12481E+04  5.66634E+03 -1.36751E+04 -9.28877E+03
 -4.78404E+03 -7.26850E+03  4.71518E+02 -1.22710E+03 -6.44794E+03  4.67885E+03 -4.89743E+03  4.98098E+03
 -1.38326E+04  1.78608E+03 -1.44970E+04 -1.55859E+04 -4.50019E+03 -1.73006E+04  8.26325E+03 -1.37672E+04
  1.30352E+04 -2.48745E+03  8.96953E+03  6.38321E+03 -1.30141E+03  4.11822E+03 -8.28115E+03  8.14570E+02
 -1.15128E+04 -4.22105E+03 -2.36111E+03 -1.72791E+04  1.03834E+04 -1.54136E+04  1.58612E+04 -1.10460E+04
  2.60069E+04  5.26344E+03  1.43694E+04  1.55040E+04  4.41167E+02  1.84886E+04 -4.70019E+03  1.54193E+04
 -1.39467E+04  1.57638E+03 -9.27470E+03  2.31317E+03  5.04842E+03 -2.61244E+03  1.09654E+04  6.02449E+02
  5.47426E+03  3.75396E+03 -2.18112E+03  1.13638E+04 -4.61364E+03  1.19942E+04 -1.73200E+04  4.12229E+03
 -1.21060E+04 -1.09863E+04 -6.38937E+02 -1.20188E+04  1.28989E+04 -2.03473E+03  9.95716E+03  1.15290E+03
  1.85260E+03  1.21997E+04 -8.22100E+03  1.40666E+04 -1.22066E+04  4.13644E+03 -1.09153E+04 -6.23756E+03
 -1.00752E+04 -1.79797E+04  3.22410E+03 -2.35826E+04  1.26382E+04 -1.43631E+04  1.59966E+04  3.08766E+02
  1.07491E+04  1.23406E+04 -1.07510E+03  1.22086E+04 -9.84047E+03  6.48315E+03 -1.26259E+04  1.05248E+03
 -1.37294E+04 -1.09554E+04 -2.33489E+03 -1.05805E+04 -2.08364E+02 -8.64929E+03  8.13899E+03 -4.19730E+03
  6.64167E+03  2.39397E+03  1.42365E+03  8.17251E+03  3.36300E+03 -1.91461E+03  2.20729E+01 -9.27907E+03
  1.37084E+04 -2.16547E+03  1.48925E+04  1.89500E+03  1.55568E+04  1.17227E+04  8.63892E+03  1.86174E+04
 -2.71292E+03  2.01703E+04 -2.03051E+04  2.02679E+04 -2.47084E+04  5.02963E+03 -2.27656E+04 -1.37394E+04
 -7.62380E+03 -1.44585E+04  4.96504E+03 -1.52411E+04  7.09809E+03 -1.13251E+04  3.97667E+02 -8.99285E+03
  7.74821E+03 -1.37605E+03  7.03364E+03 -7.31334E+03  3.15567E+03 -3.15304E+03  5.63233E+03 -1.65987E+03
  8.08986E+03 -3.85789E+02  8.38809E+03  6.53104E+03 -8.80686E+02  1.01920E+04 -8.60400E+03  6.35082E+03
 -1.11887E+04 -7.30066E+03 -1.57816E+04 -5.35210E+03 -1.41646E+03 -1.43083E+04  8.50400E+03 -1.20388E+04
  1.38779E+04 -1.12616E+04  1.20208E+04  8.60255E+01  1.48731E+04  1.64400E+04  2.49333E+03  1.48089E+04
 -3.22767E+03  1.36141E+04 -8.21817E+03  1.16939E+03 -8.24349E+03 -1.53564E+03 -1.28646E+03 -5.07065E+03
  4.10486E+03 -2.36326E+03 -2.55885E+03 -2.14029E+03  2.59588E+02  2.78374E+02 -1.20515E+04 -1.53693E+03
 -7.95539E+03 -4.26370E+03  4.20425E+03 -2.22475E+04  7.19642E+03 -1.08456E+04  1.11140E+04 -4.53448E+03
  1.95881E+04  7.23328E+03  6.18449E+03  8.87450E+03 -5.85546E+03  1.14182E+04 -1.35833E+04  1.22270E+04
 -1.09963E+04 -4.16942E+03 -8.13579E+03 -8.99124E+03 -4.36083E+02 -1.60184E+04  3.90924E+03 -9.88063E+03
  1.25866E+04 -6.67279E+03  7.07342E+03  2.87645E+03  7.09275E+03  7.69886E+03  6.53296E+03  8.47181E+01
  6.11724E+00 -7.35260E+02  8.14845E+03  1.49067E+03  3.44099E+03  7.76843E+03  4.34113E+03  7.63203E+03
 -4.25271E+02  1.73823E+04 -4.27641E+03  7.48780E+03 -1.21735E+04  4.21175E+03 -1.28400E+04 -5.82703E+03
 -5.51524E+03 -1.57004E+04  3.78469E+03 -1.60444E+04  1.06019E+04 -7.18813E+03  1.17102E+04 -1.79501E+03
  1.44099E+04  3.27156E+03  2.57329E+03  1.10391E+04 -3.04574E+03  3.77564E+03 -3.17383E+03  3.96952E+03
  3.63855E+03 -9.75443E+03  2.14504E+03 -3.52760E+03  9.63448E+03 -1.02056E+03  5.24058E+03  3.91271E+03
  8.38464E+03 -3.40963E+02 -3.42709E+02 -2.36622E+03 -1.25922E+03  3.31538E+03 -2.24553E+03  5.62325E+03
  3.66870E+03 -2.75340E+03  9.38325E+03  3.15345E+03  5.29738E+03  1.40300E+04  7.54616E+03  1.07194E+04
 -5.24284E+03  8.38194E+03 -8.82568E+03  1.94339E+03 -7.94667E+03 -6.61993E+03  2.01755E+03 -7.33819E+03
  1.02475E+03 -8.17908E+03  1.06215E+04 -4.44666E+03  1.50179E+03  4.65317E+03 -4.24686E+03  5.61487E+03
 -7.92837E+03 -8.77137E+02 -9.63576E+03 -4.57841E+03 -5.25870E+03 -9.31596E+03  5.07370E+03 -1.30685E+04
  5.11184E+03 -8.02215E+03  1.55785E+03  6.26087E+03  5.81960E+03  1.83373E+03  4.70117E+03 -1.70011E+03
  1.25797E+03 -1.80391E+02 -3.06172E+03 -1.24120E+03  7.39524E+03 -3.80720E+03  6.18959E+03 -3.99135E+03
  1.20050E+04  8.06889E+02  1.49387E+04  3.47361E+03  6.72778E+02  3.27430E+03 -1.95144E+03  9.05876E+03
 -6.17443E+03  8.13919E+03 -4.89742E+03 -6.76504E+02 -3.53122E+02 -4.53007E+03 -3.26336E+02  3.00816E+03
  4.18558E+03 -9.64528E+02  6.17442E+03 -6.50285E+02  3.75483E+03  2.11072E+03 -2.77517E+03  2.21808E+03
 -7.03430E+03  7.01342E+03 -2.39652E+03  4.90727E+03  2.07893E+03  5.17975E+03  3.41121E+02 -4.21252E+03
 -6.31982E+03  6.10479E+03 -7.58024E+03  5.77229E+03 -1.05531E+04 -9.32638E+02 -1.56959E+04 -3.46053E+03
 -2.45615E+03 -9.18459E+03  4.26365E+03 -1.25171E+04 -4.47629E+00 -1.12077E+04  1.48766E+04  6.54451E+02
  9.75334E+03  6.51347E+03  6.33229E+03  7.24290E+03  2.73535E+03  1.25573E+04 -1.47892E+03  6.22286E+03
 -5.19416E+03  6.54134E+03 -4.28356E+03 -6.65760E+02 -7.02597E+03  2.10696E+03 -2.74083E+03 -3.64005E+02
  2.39696E+03 -4.16385E+03 -4.52243E+03 -6.72230E+03 -3.82665E+02  1.32842E+03 -3.16132E+03 -2.86926E+03
  5.39775E+03 -5.92388E+02  1.06707E+03  7.90387E+02  1.67922E+03  8.70543E+03 -9.68341E+01  9.35871E+03
 -6.63484E+03  1.11433E+04 -6.01614E+03  8.03771E+03 -1.41653E+04 -2.86375E+03 -9.17954E+03 -4.03782E+02
 -5.25978E+03 -1.11016E+04  3.36048E+03 -9.85719E+03  7.87500E+03 -4.50005E+03  8.84244E+03 -3.24778E+03
  2.91158E+03  2.60538E+03  4.90344E+03  3.48103E+03 -5.93189E+00  3.60777E+01 -4.27460E+03 -3.19767E+03
  1.78158E+03 -3.31476E+03 -3.01803E+02  1.27606E+01  5.77806E+03  4.80768E+03 -1.92303E+03  3.44003E+03
 -5.58856E+03  6.48305E+03 -6.29820E+03  7.23998E+03 -5.38864E+03 -1.84501E+03  4.80945E+03 -7.66463E+03
  2.81602E+03 -2.51180E+03  9.98197E+03  9.21357E+02  9.24463E+03 -1.99481E+03  4.74338E+03  1.19862E+04
  3.14491E+03  1.14918E+04 -1.58548E+03  2.49699E+03 -2.93129E+03  1.50005E+03  8.72122E+02 -3.33033E+03
 -1.37479E+03  1.37973E+03 -2.80780E+03 -5.70041E+03 -4.69026E+03  1.43659E+03 -4.69117E+03  6.23142E+02
 -7.74635E+03 -4.72444E+03 -1.71383E+03 -8.09573E+03  2.97937E+03 -1.01650E+04  1.25505E+04 -2.07407E+03
  2.63239E+03 -3.14118E+03  8.83314E+02  2.80030E+02 -3.31210E+03  3.22917E+03 -2.50242E+03  3.37389E+03
