 $NMID ID='MM_0lb_SNR50_14hz_g50_55.RAW', FMTDAT='(8E13.5)'
 TRAMP=1., VOLUME=1. $END
  3.05167E+05 -5.24785E+03  3.38232E+05  2.53090E+05  8.02506E+04  3.35656E+05 -1.30823E+05  2.55171E+05
 -1.87885E+05  8.39091E+04 -1.13404E+05 -3.74235E+04  5.18872E+02 -4.90303E+04  5.62617E+04 -1.03684E+03
  3.65037E+04  5.33101E+04 -1.45884E+04  7.48775E+04 -6.12520E+04  6.48070E+04 -8.85582E+04  2.58753E+04
 -7.93696E+04 -1.24492E+04 -5.77639E+04 -5.22052E+04 -1.51319E+04 -6.73843E+04  2.44201E+04 -4.35871E+04
  3.87613E+04  3.74306E+03  1.81795E+04  4.63872E+04 -3.84125E+04  4.91571E+04 -6.69487E+04  2.22450E+03
 -5.21304E+04 -5.33489E+04 -8.72756E+03 -7.66176E+04  3.22350E+04 -5.02799E+04  4.79333E+04 -1.61679E+04
  4.06153E+04  1.24119E+04  3.00967E+04  2.39232E+04  8.91105E+03  2.70739E+04 -5.72118E+03  2.65834E+04
 -2.39031E+04  1.09581E+04 -1.76805E+04 -6.12366E+03  1.13013E+03 -6.86101E+03  2.61880E+04  1.12870E+04
  9.14058E+03  3.13377E+04 -3.36970E+04  2.99766E+04 -6.37351E+04 -4.90430E+02 -5.42539E+04 -4.28795E+04
 -1.09049E+04 -6.66066E+04  4.03718E+04 -4.23820E+04  5.55606E+04 -5.51069E+03  3.26608E+04  3.39099E+04
 -8.00183E+02  3.35552E+04 -3.07520E+04  1.48612E+04 -3.02374E+04  1.82721E+03 -1.83901E+04 -1.25733E+04
 -6.29776E+03 -1.13027E+04 -2.09492E+02 -2.18682E+04  5.83546E+03 -1.96400E+04  1.81655E+04 -1.45783E+04
  1.80765E+04  6.06438E+03 -6.45392E+03  1.28028E+04 -2.02172E+04 -3.66567E+03 -6.05039E+03 -3.40516E+04
  2.41102E+04 -4.03588E+04  4.70913E+04 -1.97443E+04  4.18333E+04  1.47401E+04  1.51379E+04  4.80661E+04
 -1.33916E+04  3.54105E+04 -2.80499E+04  1.27166E+03 -3.60316E+03 -3.02137E+04  1.91068E+04 -3.70740E+04
  4.06775E+04 -9.97589E+03  4.03522E+04  2.02335E+04  1.64043E+04  4.81392E+04 -9.52089E+03  4.76974E+04
 -2.70709E+04  3.10590E+04 -3.97373E+04  8.23815E+03 -4.69454E+04 -1.54366E+04 -2.31780E+04 -4.53840E+04
  7.03595E+03 -4.22475E+04  3.20391E+04 -1.75031E+04  2.70170E+04  1.28632E+04  3.25068E+03  2.16091E+04
 -1.59741E+04  8.39956E+03 -7.57402E+03 -9.67916E+03  5.03076E+03 -9.81277E+03  1.42170E+04  5.03072E+03
  1.34718E+04  2.80873E+04 -2.25252E+03  2.70576E+04 -2.06131E+04  1.39837E+04 -2.99873E+04 -3.16416E+03
 -2.69616E+04 -1.83165E+04 -6.43693E+03 -1.93961E+04 -7.42085E+02 -1.70683E+04  1.60149E+04 -1.86403E+04
  2.79440E+04 -1.20893E+04  2.97040E+04  4.61605E+03  2.38847E+04  2.33332E+04  5.65367E+03  4.27647E+04
 -1.43256E+04  3.55096E+04 -3.11662E+04  4.83474E+03 -2.02555E+04 -9.00602E+03 -5.71984E+03 -1.47047E+04
  2.11761E+03 -4.24132E+03 -7.99258E+03  5.19001E+03 -1.36367E+04  6.75850E+03 -1.48425E+04 -5.28576E+03
 -8.69211E+03 -2.30958E+04  3.14669E+03 -2.53483E+04  1.83954E+04 -1.98202E+04  1.82661E+04 -5.65487E+02
  9.23213E+03  1.70405E+04  1.46521E+03  1.74772E+04 -1.74057E+04  1.06341E+04 -2.49559E+04 -4.82705E+03
 -1.57476E+04 -1.93822E+04 -2.69308E+03 -2.29207E+04  1.29701E+04 -1.74769E+04  1.88779E+04 -8.93013E+03
  2.13282E+04 -4.23735E+02  1.48832E+04  2.35363E+03  7.23152E+03 -1.62526E+03  1.27906E+04  3.80220E+03
  2.02654E+04  4.01055E+03  1.81210E+04  1.42707E+04  1.72579E+04  2.99003E+04 -3.22669E+03  3.46147E+04
 -2.11705E+04  2.68169E+04 -3.15645E+04  1.31013E+04 -2.99931E+04 -3.02184E+03 -2.64787E+04 -1.84713E+04
 -5.79979E+03 -2.66214E+04  8.41657E+03 -2.66132E+04  1.82058E+04 -1.21258E+04  1.87969E+04  6.94365E+03
  3.57857E+03  1.20083E+04 -9.06382E+03  9.43528E+03 -1.49327E+04 -2.19480E+03 -1.32254E+04 -7.21969E+03
  1.34778E+03 -1.83354E+04  8.69537E+03 -1.36751E+04  1.34431E+04 -1.49302E+03  2.48954E+03  4.83055E+03
 -8.31095E+03  7.06263E+03 -1.78257E+03 -5.03294E+03  3.88304E+02 -1.07486E+04  1.41539E+04 -9.31443E+03
  1.40639E+04 -3.27725E+03  1.66121E+04 -2.70453E+03  1.86704E+04  1.75847E+04  5.02966E+03  1.93616E+04
 -2.15844E+03  2.39131E+04 -1.61842E+04  1.63023E+04 -1.87666E+04  2.59485E+03 -1.46993E+04 -7.44699E+02
 -9.64545E+03 -2.83709E+03 -3.36154E+03 -6.31785E+03 -1.80831E+03  2.59656E+03 -5.94146E+03  1.93818E+03
 -8.74874E+03 -1.08402E+03 -1.17733E+04 -9.61677E+03 -5.55244E+03 -1.45065E+04  5.63457E+03 -1.79730E+04
  4.99821E+03 -2.37538E+03  8.12086E+03  6.47229E+02  1.95512E+03  2.97172E+03 -7.77090E+03  1.08158E+03
 -2.42603E+03 -3.89589E+03  7.38249E+02 -1.52275E+04  5.58772E+03 -7.95837E+03  1.57148E+04 -2.50114E+03
  1.57109E+04  4.49160E+03  9.73676E+03  8.33846E+03  6.07927E+02  1.37365E+04 -5.42877E+03  1.41245E+04
 -1.11325E+04  7.16803E+03 -4.27902E+03 -7.50712E+02 -4.30744E+03 -4.46717E+03  8.87029E+03 -7.44868E+03
  4.38658E+03  3.97949E+03  1.37074E+03  7.05036E+03 -2.87990E+03  4.85671E+03 -1.32930E+04  1.29145E+03
 -3.85789E+03 -7.21382E+03  8.01821E+01 -1.19577E+04  1.45335E+04 -7.05146E+03  3.19529E+03  2.50730E+03
 -3.20825E+03  1.27868E+03 -3.58477E+03  3.85331E+03 -1.05918E+04  5.08109E+02 -4.83693E+03 -3.78129E+03
 -8.09636E+03 -1.00898E+04 -1.37030E+03 -1.08510E+04  1.43602E+04 -7.32482E+03  8.33731E+03 -6.04745E+03
  8.34236E+03  1.01350E+04 -1.79558E+02  7.73695E+03 -4.39175E+03  7.94752E+03 -1.15341E+04 -2.54722E+03
 -7.71797E+03 -9.21886E+03 -3.76613E+03 -1.89050E+03  5.55057E+03 -4.61722E+03  2.89764E+03 -4.09645E+03
  4.39750E+03  3.58052E+03 -2.67292E+03 -3.09635E+02  2.05138E+02  1.41015E+03 -1.83021E+03  2.99863E+02
  5.42325E+03  7.11921E+02  1.12142E+04  2.82402E+03  5.50136E+03  8.02895E+03  2.27648E+03  1.26962E+04
 -4.03762E+03  9.56868E+03 -1.55356E+04  1.41388E+04 -8.61459E+03  1.56478E+03 -1.37511E+04 -3.86881E+03
 -7.74278E+03 -1.26439E+04 -4.08053E+03 -6.28066E+03  5.58156E+03 -4.17321E+03  3.56194E+03 -2.68649E+03
  4.70144E+03  2.60216E+03  1.80824E+03 -1.66284E+02  9.29259E+03 -3.57899E+03  7.29041E+02 -2.10696E+03
  5.54292E+03  9.22419E+02  1.58043E+03  1.04671E+03 -2.48833E+03  1.03236E+04 -8.70671E+03 -1.94096E+03
 -1.01739E+04  1.75359E+03 -7.31349E+03 -1.36385E+03 -6.27296E+01 -4.63913E+03  6.09354E+02 -7.14034E+03
  6.16309E+03 -7.00986E+03  1.55099E+04  1.66519E+03  6.86231E+03  1.22443E+04  1.56639E+03  1.07636E+04
 -2.69695E+03  8.66626E+03 -4.17192E+03  7.18981E+02 -6.92872E+03  7.35872E+02  6.30075E+02 -5.62913E+03
  4.18159E+03  1.91959E+03  4.55868E+02 -3.02135E+02 -3.26081E+03  6.93530E+02 -3.39143E+03 -1.78321E+02
 -4.53084E+03 -2.40985E+03 -1.52889E+03 -9.43945E+03  6.68113E+03  1.35799E+03  7.96283E+03 -1.25450E+03
  5.85574E+03  1.05571E+03  4.94635E+03  6.16137E+03 -1.76693E+03  8.61056E+03 -7.04380E+03  4.32502E+03
 -7.54766E+03  4.11352E+01 -6.55782E+03 -5.06993E+03 -2.98337E+02 -6.17994E+03  7.56552E+03 -9.26738E+02
  1.90796E+03 -9.22502E+02  6.81614E+03  4.20913E+03  1.82356E+03 -5.66166E+02  2.21334E+03  3.52208E+03
  2.44485E+03  1.79283E+02  5.39199E+02  1.27284E+03  3.85905E+03  2.79649E+03  5.61158E+03  4.78625E+02
 -1.21019E+03  7.20562E+03 -1.74395E+03  4.40019E+03 -8.83336E+03  1.54217E+03 -8.17748E+03 -3.86247E+03
 -3.58893E+03 -1.11953E+04  2.39374E+03 -3.33463E+03  4.41516E+03 -8.55539E+03  4.26944E+03 -2.54157E+03
  2.68800E+03 -1.57926E+03  7.35793E+02  9.45678E+03 -1.08664E+04  5.72635E+03 -4.79621E+03 -3.50230E+03
  1.99832E+02 -9.37246E+03  4.22015E+03 -1.53421E+03  4.79774E+03  8.45645E+02  6.12112E+03  3.73291E+02
 -4.01454E+02 -2.63495E+03  2.47699E+03 -3.49592E+03  1.52741E+03  1.88620E+03 -1.10061E+03 -5.21826E+03
  2.06486E+03  8.14634E+02  3.67862E+03  2.49630E+02  1.61603E+03  2.09588E+03 -1.81684E+03  6.23658E+03
 -6.33392E+02  1.68390E+03  6.48202E+02 -4.90186E+02 -6.11888E+03 -1.57227E+03 -9.38189E+02 -7.62109E+03
  1.02303E+03  4.90298E+02 -1.17975E+03 -2.05527E+03  3.67517E+03  6.90524E+02  4.74730E+03  4.76007E+03
 -3.89801E+03  1.22652E+03 -2.36923E+03 -1.43053E+03 -5.17354E+03 -3.37338E+03  9.85305E+02 -2.27726E+03
  1.71907E+02  4.90402E+02  4.18149E+01 -1.65341E+03  5.69432E+03  4.16599E+02 -3.02352E+02  2.87482E+02
 -1.76050E+03  3.35628E+03 -3.24704E+03 -2.73783E+03 -3.05315E+01 -2.52154E+03  5.45071E+02 -2.75753E+03
  1.26294E+03  1.33524E+03  7.04635E+03  7.43086E+03  1.87558E+03  6.58485E+03 -2.02080E+02  4.14667E+03
  9.18359E+01 -4.89209E+03 -7.65254E+03  1.96523E+03 -3.14029E+03 -1.69693E+03 -2.32280E+03 -2.36143E+03
  4.62595E+02 -7.41066E+02  4.40023E+03  2.73720E+03  9.36194E+02  3.37275E+03  3.33392E+03  2.27922E+02
  9.03458E+02  3.46106E+03  1.40936E+03 -2.01301E+03  3.28758E+03 -2.09727E+03  9.25501E+02  1.20116E+03
 -2.02182E+03  2.17806E+03  1.03575E+03  3.69612E+03 -3.86647E+03 -4.35921E+03 -9.19163E+03 -3.51508E+03
 -4.19462E+03 -5.95538E+03  2.38790E+03 -5.57874E+03  5.83096E+02 -8.43924E+03  4.92049E+03 -2.51177E+03
  3.97788E+03 -4.66377E+03  4.26442E+03  7.70769E+03  1.10714E+03  4.46720E+03 -3.44572E+03  9.45566E+02
  8.92776E+00  8.51750E+03  2.63893E+03  2.67016E+03  5.40502E+03  2.58910E+03 -2.48235E+03 -2.31295E+03
 -3.18199E+03 -1.45557E+03  1.83355E+03 -2.72884E+03 -3.95367E+03 -3.00463E+03 -4.64619E+03 -9.74408E+02
 -2.75540E+02 -2.36570E+02  4.38703E+03  1.13907E+03 -9.84303E+02  7.00695E+02  6.13881E+02  6.55631E+03
  1.04809E+03  1.12277E+03 -5.70997E+03  2.88289E+03 -2.79017E+03 -1.92010E+03 -2.49389E+03 -8.49185E+02
  5.34560E+02  1.31022E+03  6.51840E+03  2.00285E+03  4.81147E+03  9.11886E+00  5.45995E+03  1.70549E+03
  8.32906E+02  5.55433E+02  2.61691E+03  4.13957E+03 -7.49133E+02 -6.30263E+02 -2.23412E+03 -2.56068E+03
  4.87550E+02  2.42291E+03 -4.63404E+02  1.74137E+03  4.90283E+02  1.32081E+03 -1.96283E+03 -1.15369E+03
 -1.79222E+03  3.06052E+03 -3.43383E+03  2.09630E+03 -5.88364E+03 -5.41089E+03  8.37780E+02 -7.75970E+02
  4.89674E+03  2.57212E+03  3.83101E+03  9.37419E+01  2.32211E+03 -3.16915E+03  5.41698E+02  9.15001E+02
  7.85211E+03  1.40673E+03 -2.34859E+03  2.30609E+03  1.13080E+02  5.59127E+02 -5.65304E+03  2.42494E+02
 -2.79368E+03 -4.02776E+02  4.14337E+03  7.84636E+03 -3.78153E+03  1.72533E+03 -4.78417E+03 -4.32316E+03
 -3.88377E+03 -5.25354E+03  7.76445E+02 -1.04297E+04 -4.34136E+02 -2.52059E+03 -2.20280E+03  1.47199E+02
  4.38422E+03 -1.55363E+03 -1.46039E+02 -3.98634E+02  3.35281E+03 -1.41009E+03 -4.68803E+03  5.20339E+03
