 $NMID ID='MM_0lb_SNR50_10hz_g45_53.RAW', FMTDAT='(8E13.5)'
 TRAMP=1., VOLUME=1. $END
  3.09324E+05  1.38613E+03  3.36059E+05  2.54417E+05  8.81993E+04  3.32983E+05 -1.27213E+05  2.50014E+05
 -1.92958E+05  8.07497E+04 -1.13143E+05 -2.79222E+04 -9.59478E+03 -4.94349E+04  5.25377E+04 -7.05887E+02
  4.37202E+04  5.77619E+04 -1.63254E+04  6.96353E+04 -6.30665E+04  6.59793E+04 -8.38158E+04  3.52006E+04
 -7.98669E+04 -3.48611E+03 -5.65586E+04 -5.04298E+04 -1.37953E+04 -7.13023E+04  3.04619E+04 -4.33198E+04
  4.43768E+04  2.31386E+03  1.65704E+04  4.10062E+04 -3.05128E+04  4.62259E+04 -7.19570E+04 -9.77231E+02
 -4.92777E+04 -6.42651E+04 -1.28740E+04 -7.60246E+04  3.63814E+04 -5.51459E+04  4.83206E+04 -1.70399E+04
  4.02363E+04  1.07255E+04  3.25138E+04  3.06330E+04  1.39294E+04  3.03292E+04 -1.09180E+04  2.79632E+04
 -1.67651E+04  5.84971E+03 -1.92562E+04 -4.00061E+03  6.44904E+03 -9.18788E+03  2.11475E+04  1.22948E+04
  8.94314E+02  3.82669E+04 -3.80201E+04  3.44636E+04 -6.17140E+04  6.95777E+03 -6.15170E+04 -3.98693E+04
 -1.81623E+04 -6.55590E+04  4.52657E+04 -5.02144E+04  5.85695E+04 -1.81894E+03  3.90101E+04  3.82022E+04
 -2.01374E+03  4.33136E+04 -3.24572E+04  1.73336E+04 -3.42930E+04  7.49640E+02 -1.49922E+04 -1.31218E+04
  3.53422E+03 -2.01041E+04 -1.06209E+03 -1.92201E+04  1.02097E+04 -1.99552E+04  1.95958E+04 -1.47842E+04
  9.73132E+03  1.96865E+03 -1.44140E+04  1.10333E+04 -2.76326E+04 -3.23202E+03 -8.91964E+03 -3.74732E+04
  3.00984E+04 -4.73011E+04  4.93819E+04 -1.31653E+04  4.28455E+04  2.26359E+04  1.83486E+04  4.61145E+04
 -1.32507E+04  4.03081E+04 -2.03280E+04  5.25278E+03 -1.00081E+04 -2.64175E+04  1.69439E+04 -3.46728E+04
  4.21137E+04 -7.08596E+03  4.02796E+04  2.61473E+04  1.82335E+04  4.99494E+04 -7.18388E+03  5.72321E+04
 -3.14015E+04  3.70715E+04 -4.27302E+04  1.08551E+04 -4.54640E+04 -1.36245E+04 -1.98246E+04 -4.66113E+04
  1.29147E+04 -3.66960E+04  3.74101E+04 -2.37680E+04  2.69646E+04  1.15509E+04  8.51508E+03  1.97746E+04
 -1.35571E+04  2.62183E+03 -9.73310E+03 -9.96986E+03  8.49851E+03 -1.59669E+04  1.77977E+04  1.13050E+04
  9.16617E+03  1.65442E+04 -7.57418E+03  1.83660E+04 -1.93328E+04  7.66918E+03 -3.07099E+04 -5.96757E+03
 -1.94575E+04 -1.80008E+04 -1.18948E+04 -1.51549E+04  2.43651E+03 -2.63339E+04  2.48942E+04 -1.44016E+04
  3.43809E+04 -1.89931E+04  3.49947E+04  8.33377E+03  2.32133E+04  1.79187E+04  6.72867E+03  4.14973E+04
 -2.53733E+04  3.89638E+04 -3.10492E+04  8.70601E+03 -2.59298E+04 -8.85134E+03 -4.28351E+03 -1.37730E+04
 -7.65842E+03 -4.34863E+03 -2.53696E+03  9.37808E+03 -2.14612E+04  1.50766E+03 -1.91890E+04 -1.01282E+04
 -9.77438E+03 -2.10040E+04  6.94042E+03 -2.50719E+04  1.37786E+04 -2.84330E+04  2.13999E+04  6.45562E+03
  1.01379E+04  1.26244E+04  3.62595E+03  2.44535E+04 -1.17488E+04  6.80350E+03 -2.38361E+04 -4.35278E+03
 -1.82356E+04 -2.48665E+04  3.64676E+03 -2.68550E+04  1.13584E+04 -2.12991E+04  2.24104E+04 -1.04535E+04
  2.00039E+04 -4.17389E+02  1.61755E+04  9.16351E+03  6.23469E+03  7.43711E+03  1.38804E+04  4.60584E+03
  2.00767E+04  2.25344E+03  2.18973E+04  1.44051E+04  1.73524E+04  2.98863E+04 -2.18378E+03  3.95099E+04
 -2.51115E+04  3.50366E+04 -3.85409E+04  1.78408E+04 -4.32697E+04 -2.23732E+03 -3.12126E+04 -2.67416E+04
 -1.11508E+04 -3.23657E+04  8.90719E+03 -2.65200E+04  2.51805E+04 -1.66153E+04  2.05788E+04  8.71145E+03
  7.85714E+03  1.90621E+04 -1.04684E+04  2.32134E+04 -1.78280E+04  6.33442E+03 -6.96452E+03 -6.08240E+03
  1.59898E+03 -1.57339E+04  1.16131E+04 -1.33720E+04  9.87963E+03 -2.51186E+03  3.66825E+03  1.01433E+04
 -1.36875E+04 -7.55224E+02 -3.06266E+03 -1.34299E+04 -1.90979E+03 -1.81894E+04  1.11978E+04 -1.45761E+04
  1.36947E+04 -9.95754E+03  2.45446E+04 -2.93713E+03  1.43332E+04  1.75929E+04  3.28435E+03  2.31374E+04
 -6.01404E+03  2.97064E+04 -1.72082E+04  2.87857E+04 -2.24670E+04  7.74371E+03 -1.74650E+04 -6.64446E+03
 -6.33387E+03 -7.54059E+03 -2.89851E+03 -6.30556E+02 -1.83864E+03  5.73419E+03 -5.58893E+03  8.02046E+03
 -1.17687E+04 -1.01032E+02 -1.50162E+04 -1.35464E+02 -4.73498E+03 -2.10196E+04  5.13301E+03 -1.03339E+04
  7.68078E+03 -6.73069E+03  4.42408E+03  9.09044E+03 -2.78488E+03  3.12077E+03 -6.03795E+03  2.65024E+03
 -9.32767E+03 -8.84026E+03  2.63254E+02 -1.32232E+04  4.29691E+03 -1.39496E+04  1.73270E+04 -1.38640E+04
  2.22432E+04  1.30096E+03  1.64769E+04  1.61108E+04 -1.87311E+03  2.10099E+04 -8.17808E+03  1.01550E+04
 -1.02005E+04  8.02787E+03 -5.46905E+03 -7.23914E+03  3.42978E+02 -5.11862E+03  5.16166E+03 -1.67699E+03
  1.98184E+03  4.58106E+03  4.14887E+03  6.69185E+03 -7.64876E+03  1.75352E+04 -1.46847E+04 -6.14354E+02
 -1.08759E+04 -7.71124E+03 -5.05728E+03 -1.14127E+04  1.47210E+03 -5.36102E+03  7.17901E+03  3.11566E+03
  9.04438E+02  5.75550E+03 -8.91141E+03  1.07281E+04 -1.56603E+04  6.72629E+03 -1.65965E+04 -5.72479E+03
 -1.06288E+04 -1.58891E+04 -4.38757E+03 -1.75351E+04  1.16969E+04 -1.32696E+04  1.53295E+04  5.18056E+02
  8.67938E+03  1.17864E+04 -4.26737E+03  1.67358E+04 -8.15551E+03  6.41756E+03 -1.08834E+04 -5.36044E+03
 -1.19689E+04 -1.28191E+04 -1.61209E+03 -1.04563E+04  3.16238E+03 -1.35496E+04  9.77978E+03 -1.07155E+04
 -1.55971E+03  3.61198E+03 -4.32501E+03  6.75231E+03 -3.67189E+03 -1.03562E+04  5.35284E+03  4.01690E+02
  1.27009E+04 -4.41548E+03  1.44537E+04  6.20178E+03  9.65971E+03  1.11279E+04  1.06583E+04  1.23944E+04
 -2.75151E+03  1.81660E+04 -1.67015E+04  1.50041E+04 -1.79090E+04  1.72782E+03 -1.66053E+04 -1.07335E+04
 -1.07094E+04 -1.63911E+04 -3.75396E+03 -7.79511E+03  2.10968E+03 -9.93423E+03  3.02836E+03 -3.70895E+03
  5.49798E+03 -9.86043E+03  4.02922E+03 -3.27766E+02  7.03533E+03 -3.51525E+03  8.47956E+03 -1.79550E+03
  1.12123E+04  1.87668E+02  5.00968E+03  5.55223E+03 -5.79964E+02  1.03582E+04 -1.28607E+04  6.23551E+03
 -1.29282E+04 -1.95164E+03 -1.01841E+04 -7.61025E+03 -8.01069E+02 -1.03809E+04  9.88725E+03 -2.19981E+04
  1.55835E+04 -1.09852E+04  1.37473E+04 -9.82430E+02  5.62523E+03  4.44362E+03  6.15563E+03  1.87427E+04
 -2.35682E+03  1.16842E+04 -7.85696E+03  7.29142E+03 -7.76710E+03 -9.35277E+02 -1.76928E+03  4.11614E+03
  2.33962E+02  3.92275E+03 -1.00105E+04  1.11887E+01 -7.41428E+02  3.58397E+03 -9.81709E+03 -1.02344E+03
 -9.67526E+03 -8.34958E+03  1.56986E+03 -1.51667E+04  7.89347E+03 -1.09157E+04  1.20833E+04 -4.23738E+03
  1.15786E+04  5.47774E+03  1.11935E+04  1.29109E+04  8.27161E+03  8.72197E+03 -5.41584E+03  1.33826E+04
 -1.48629E+04  5.10117E+03 -8.88734E+03 -1.00543E+04  2.95748E+03 -9.57273E+03  3.24223E+03 -7.23707E+03
  1.27719E+04 -2.86904E+03  5.28142E+03  8.23842E+03  4.60084E+03  5.26729E+03  3.90219E+03 -1.89733E+03
  4.93296E+02  4.09161E+03  3.15107E+03 -7.19786E+02 -4.70067E+02 -2.94658E+03  4.51870E+03  5.51448E+03
 -4.20883E+02  1.34778E+04 -1.04747E+04  1.35223E+04 -1.46262E+04  2.39059E+02 -1.69155E+04 -5.64344E+03
 -4.31843E+03 -1.23301E+04  2.71000E+03 -2.05687E+04  1.08292E+04 -9.66455E+03  6.22342E+03 -2.19304E+03
  9.37323E+03  6.02818E+03  5.67485E+01  2.73481E+03  1.37142E+03  7.94369E+03 -1.13000E+04 -3.96125E+03
 -3.17959E+03 -1.57824E+03  4.42556E+03 -5.44534E+03  5.34505E+02  1.72989E+03  2.90204E+03 -4.27330E+03
  6.88357E+03  5.77872E+03 -3.14920E+03 -1.77671E+02 -3.90583E+03 -2.48102E+02 -6.54965E+03 -1.90868E+01
  3.57439E+03 -3.86222E+03  2.34038E+03  4.03029E+03  1.39144E+03  5.41203E+03  7.73500E+03  9.82458E+03
 -6.75487E+03  3.73676E+03 -4.51812E+03  1.34964E+03 -5.43230E+03 -1.02157E+04 -6.89354E+03 -9.68332E+03
 -2.59329E+03 -4.23727E+03  6.93669E+03 -4.10323E+03  5.04027E+03  1.81765E+03 -3.59481E+03  7.11931E+03
 -1.08055E+04 -5.82632E+02 -6.06617E+03 -6.58931E+03 -2.59455E+02 -1.18476E+04 -1.73270E+03 -6.75075E+03
 -7.21198E+02 -2.72406E+03  7.80089E+03 -3.78419E+03  8.28219E+02 -2.79574E+03 -2.74141E+03  1.95976E+03
 -6.99506E+03  3.01391E+03 -5.57662E+03 -6.34541E+03  2.15301E+02 -4.81175E+03  7.91542E+03 -9.35009E+03
  7.25053E+03  4.07017E+03  3.78757E+03  7.86485E+02  2.22069E+03  3.57474E+03 -2.42875E+03  3.43353E+03
 -6.60764E+03  4.59798E+03 -1.56814E+03 -4.53855E+03  1.61781E+03 -7.10771E+03  5.04105E+03 -7.71254E+03
  8.18697E+03 -3.40676E+03  1.02431E+04  4.29041E+02 -9.32653E+00 -2.95650E+02 -1.51713E+02 -2.16560E+03
 -6.81110E+03  5.72021E+02 -6.21957E+03 -1.19613E+03 -4.54948E+03  3.27170E+03 -6.92529E+03  2.91927E+03
 -1.23267E+02  6.06893E+03 -3.42629E+03  6.69781E+03 -9.84502E+03  6.06010E+02 -6.24701E+03 -2.77689E+03
 -6.19645E+03 -8.73762E+03  5.39351E+03 -1.29456E+04  9.14517E+03 -1.36457E+04  1.07779E+04 -3.69486E+03
  8.76845E+03  8.94822E+03  1.09451E+04 -4.97707E+02  2.25614E+03  7.64841E+03 -8.11287E+02  5.78495E+03
 -3.87583E+03 -2.32493E+03 -2.85225E+03  6.42587E+02  3.95376E+03 -3.31327E+03  2.11203E+03 -1.93180E+02
 -2.91844E+03 -2.58544E+02 -5.82539E+03  9.00561E+02  1.24164E+03 -2.21429E+03  1.59760E+03  1.03937E+03
  3.81659E+03 -1.07266E+04  3.76015E+03  1.12182E+03  7.37593E+03  2.89806E+03 -2.20938E+03  1.10391E+04
 -3.03325E+03  7.25626E+03 -4.57893E+03  3.81889E+03 -1.51415E+04 -3.00858E+03 -9.23432E+03 -5.33875E+03
 -5.66720E+03 -8.79253E+03  2.06593E+03 -1.02188E+04  3.13731E+03 -4.16370E+03  9.49509E+03 -2.59978E+03
  2.73167E+03  5.87722E+03  2.50212E+03 -6.99010E+02 -4.80301E+03 -2.38289E+03  7.90574E+03  2.66487E+01
 -3.23461E+02  2.56751E+03  8.93118E+02  2.53159E+02  7.65773E+02  3.04283E+03  3.42119E+03  4.47177E+03
 -2.60668E+03  2.68325E+03 -7.21015E+03 -4.65170E+03 -1.87513E+03 -1.83850E+03 -7.45525E+03 -6.65368E+03
  5.77304E+03 -5.71082E+03  9.04668E+03 -1.37486E+03  6.00587E+03 -5.60917E+03  4.98156E+03  2.62434E+03
  8.83343E+02  4.90922E+03 -6.10093E+02 -1.78367E+03 -2.04115E+03  1.15291E+03 -3.39823E+03  4.58995E+03
 -2.94834E+03 -5.92094E+01 -2.65229E+03 -9.99352E+01 -1.04622E+04  3.50978E+03 -5.33660E+03 -1.26572E+03
 -1.22792E+03 -5.78583E+03 -3.97930E+03 -7.67522E+03  3.30833E+03 -5.31740E+03  4.34551E+02  2.84825E+03
  4.91348E+03  2.84456E+03  8.15850E+03  2.46515E+03 -2.94502E+03  1.03821E+04 -3.69445E+03  2.65663E+03
