 $NMID ID='MM_0lb_SNR50_16hz_g40_93.RAW', FMTDAT='(8E13.5)'
 TRAMP=1., VOLUME=1. $END
  3.06961E+05 -2.55489E+03  3.39371E+05  2.46157E+05  8.65352E+04  3.35074E+05 -1.33951E+05  2.55079E+05
 -1.89824E+05  8.35542E+04 -1.12975E+05 -3.04409E+04  5.08610E+03 -5.14999E+04  5.07642E+04 -2.01715E+03
  2.96294E+04  5.20507E+04 -2.13832E+04  7.33973E+04 -6.51078E+04  6.37092E+04 -8.57349E+04  3.28371E+04
 -8.65492E+04 -1.21645E+04 -5.54483E+04 -4.81259E+04 -1.67679E+04 -7.19298E+04  3.03069E+04 -4.60262E+04
  3.87117E+04  4.98379E+03  1.75380E+04  4.49253E+04 -3.51822E+04  4.55668E+04 -6.71157E+04 -9.30968E+02
 -4.49552E+04 -5.79688E+04 -6.03487E+03 -7.58070E+04  3.51660E+04 -4.95994E+04  5.06448E+04 -1.28942E+04
  4.26180E+04  6.55969E+03  3.12011E+04  2.31593E+04  1.66688E+04  2.49511E+04 -4.60354E+03  2.39995E+04
 -2.34342E+04  9.69932E+03 -1.84690E+04 -2.44568E+03  5.59242E+03 -9.68173E+03  2.29249E+04  1.31262E+04
  5.37746E+03  3.34163E+04 -3.00540E+04  3.26414E+04 -5.88016E+04  5.53878E+03 -5.32903E+04 -4.37344E+04
 -1.14346E+04 -6.40521E+04  3.94547E+04 -4.49996E+04  5.51932E+04 -2.67638E+03  3.53245E+04  2.75601E+04
 -4.98628E+03  3.19862E+04 -3.01640E+04  1.09941E+04 -3.07482E+04 -4.77253E+03 -1.56034E+04 -6.85299E+03
 -1.07385E+04 -1.90508E+04 -1.74924E+03 -1.50254E+04  6.74660E+03 -2.19363E+04  1.65583E+04 -1.58725E+04
  1.47883E+04  6.74787E+03 -6.18214E+03  1.69876E+04 -2.30129E+04 -4.85269E+03 -4.49713E+03 -3.55760E+04
  1.86200E+04 -4.25132E+04  4.47430E+04 -1.84220E+04  4.47298E+04  1.85273E+04  1.05540E+04  4.30743E+04
 -1.63686E+04  3.58175E+04 -2.33321E+04 -8.09051E+02 -1.19938E+04 -2.73799E+04  1.76725E+04 -2.80993E+04
  3.71636E+04 -1.08758E+04  3.43591E+04  2.45842E+04  1.60409E+04  4.37577E+04 -4.51477E+03  4.38130E+04
 -2.55667E+04  3.07633E+04 -3.67253E+04  4.94807E+03 -4.01043E+04 -1.76779E+04 -1.96176E+04 -4.31101E+04
  4.44891E+03 -3.48846E+04  3.24030E+04 -1.57360E+04  2.91676E+04  8.88986E+03  3.20320E+03  1.97252E+04
 -1.23879E+04  2.29085E+03 -1.35125E+04 -5.97997E+03  5.22039E+03 -9.74058E+03  1.98270E+04  5.66353E+03
  1.62545E+04  2.16018E+04 -3.93187E+03  2.23746E+04 -1.92737E+04  7.50902E+03 -2.36892E+04 -6.88053E+03
 -1.41745E+04 -1.79180E+04 -8.28900E+03 -1.60179E+04  2.13081E+03 -1.72423E+04  1.52313E+04 -1.96580E+04
  1.92636E+04 -8.49609E+03  2.82072E+04  2.77467E+03  2.70355E+04  1.36006E+04  9.35219E+02  3.05788E+04
 -1.50678E+04  2.65578E+04 -2.60729E+04  8.04965E+03 -1.97208E+04 -1.02525E+04 -2.84310E+03 -1.61498E+04
 -1.34482E+02 -1.82081E+03 -8.27516E+02  5.70991E+03 -1.31559E+04  6.35527E+03 -1.54715E+04 -7.26617E+03
 -8.22950E+03 -1.63016E+04  1.13948E+03 -2.60038E+04  1.51247E+04 -1.37610E+04  1.72900E+04 -6.49086E+02
  2.68939E+03  1.29716E+04  2.17893E+03  1.78674E+04 -1.50418E+04  1.17039E+04 -1.41288E+04 -4.12861E+03
 -1.44055E+04 -1.53502E+04  6.81123E+02 -2.26232E+04  1.08493E+04 -1.84453E+04  1.69584E+04 -5.00595E+03
  1.73219E+04  5.62512E+02  1.22596E+04  8.73090E+03  7.73475E+03  3.87887E+03  8.37582E+03 -9.19684E+02
  1.46349E+04  2.09346E+03  1.67515E+04  1.53483E+04  1.03850E+04  2.36609E+04 -1.31173E+03  3.01258E+04
 -1.95560E+04  2.85550E+04 -2.71590E+04  4.95219E+03 -2.69252E+04 -6.22039E+02 -2.32498E+04 -1.56269E+04
 -9.46663E+03 -2.22406E+04  1.12893E+04 -2.45817E+04  1.79222E+04 -1.19339E+04  1.48604E+04  6.42493E+03
  7.18378E+03  1.17103E+04 -6.57554E+03  1.23378E+04 -1.16815E+04  1.14296E+03 -1.11589E+04 -6.39016E+03
  6.35340E+02 -1.18112E+04  8.45666E+03 -1.06434E+04  1.03086E+04  7.96974E+01  5.36489E+03  3.44646E+03
 -7.01610E+03  2.06845E+03 -7.60961E+03 -6.96421E+03 -1.56896E+03 -1.18243E+04  9.90545E+03 -8.90677E+03
  1.40660E+04 -8.02956E+03  1.63393E+04  3.48675E+03  1.39902E+04  7.67713E+03  8.37612E+03  1.70146E+04
 -1.95433E+02  1.93048E+04 -9.63444E+03  1.12839E+04 -1.50206E+04  1.32180E+03 -5.28061E+03 -6.41978E+02
 -7.35784E+03 -4.60921E+03  7.15862E+02 -5.01090E+01  1.15504E+03  2.84547E+03 -4.40342E+03  8.72765E+03
 -1.09618E+04 -9.67420E+02 -7.96665E+03 -7.27066E+03 -5.53553E+03 -1.05746E+04  1.52654E+03 -1.02550E+04
  8.21312E+03 -7.25415E+03  6.82094E+03  6.90399E+03 -1.59364E+03  3.12482E+03 -4.79117E+03 -2.79235E+03
 -3.74015E+03 -5.12160E+03 -1.25251E+03 -4.75751E+03  2.00811E+03 -9.39800E+03  1.12879E+04  1.10496E+03
  1.12898E+04  2.20722E+03  8.27758E+03  6.58517E+03  4.09240E+03  1.37793E+04 -4.58270E+03  1.14318E+04
 -7.32544E+03  7.75024E+03 -9.49479E+03 -1.92455E+03  1.30098E+03 -1.78759E+03  5.52817E+03 -3.05023E+03
  3.88257E+03  5.06534E+03  2.72343E+03  4.77962E+03 -9.07784E+03  6.47428E+03 -6.29378E+03  1.51806E+03
 -6.73708E+03  1.79337E+03  1.12363E+03 -9.35660E+03  2.89515E+03 -1.38842E+03  6.22933E+03  3.44327E+03
 -8.79115E+02  7.26969E+03 -2.22145E+03  5.08551E+03 -3.27009E+03  5.86588E+03 -3.21745E+03 -7.29567E+03
 -1.76673E+03 -7.34255E+03  6.89347E+02 -4.51160E+03  3.02282E+03 -6.23735E+03  8.40284E+03 -3.67429E+03
  4.55805E+03  6.16562E+03 -1.69775E+03  8.96476E+03 -8.71404E+03  2.98882E+03 -5.42438E+03  2.94776E+03
 -8.49165E+03 -3.98036E+03 -1.99827E+03 -1.70279E+03 -1.68828E+03 -2.66589E+03  2.65365E+03 -4.67414E+03
  4.69558E+03 -3.67078E+02  3.99054E+03  5.63287E+03 -9.70760E+01  2.81592E+03  9.51029E+02 -9.48442E+03
  6.22825E+03 -1.13049E+03  6.75673E+03 -2.48704E+03  7.82684E+03  2.46751E+03  6.54169E+03  8.87006E+03
  6.64883E+02  1.05006E+04 -9.02182E+03  1.41930E+04 -1.40282E+04 -1.93306E+03 -8.82104E+03 -3.18963E+03
 -2.92367E+03 -6.89699E+03  6.59429E+03 -7.59764E+03  1.74475E+03 -4.21329E+03 -4.42637E+02 -1.47556E+03
  3.77142E+03 -1.10835E+02  2.72030E+03  9.18185E+02  5.45311E+03 -3.95398E+03  4.23135E+03  1.08980E+03
  5.92817E+03  9.65885E+02 -1.29155E+01  4.95540E+03  1.06464E+03  2.91171E+03 -5.35173E+03  1.21625E+03
 -8.95174E+03 -5.70639E+03 -3.48970E+03 -5.34497E+03  3.90050E+02 -4.47030E+03  7.68925E+03 -3.22353E+03
  1.10458E+04 -6.18570E+03  1.46948E+04  1.08920E+03  6.97916E+03  6.10527E+03  2.20779E+03  4.37375E+03
 -1.14846E+03  7.08967E+03 -4.61385E+03  4.21299E+03  1.04206E+03 -2.50432E+03 -1.27963E+03  2.31915E+03
 -1.17930E+03  2.35682E+03 -1.41170E+03  6.38855E+02 -5.32872E+03  1.30849E+03 -3.67299E+03 -3.63246E+03
 -4.29736E+03 -4.25613E+03  6.42784E+03 -6.32138E+03  3.62143E+02 -5.35435E+03  6.29970E+03 -7.63999E+02
  3.71136E+03  1.14463E+03  3.33947E+03  3.18503E+03 -4.39256E+03  4.66597E+03 -8.56841E+03  6.95516E+03
 -2.92352E+03 -1.56656E+03 -5.50104E+03 -2.64961E+03  3.15140E+03 -4.54272E+03  1.96244E+03 -3.09545E+03
 -1.16558E+03  1.35318E+03 -1.66939E+03 -3.92739E+03  4.25731E+02  3.54658E+03  4.04414E+03 -5.30402E+02
  3.54609E+03 -3.14420E+01  1.82624E+03 -1.32054E+03  6.88014E+02  2.78963E+03  8.37501E+03  1.20710E+03
  1.89102E+03  8.68921E+02  8.07963E+02  5.98986E+03 -1.00259E+04  1.92488E+02 -8.28443E+02 -1.82780E+03
  2.04583E+03 -4.88900E+03 -8.37878E+02 -6.97650E+03  3.14226E+03 -6.37230E+03  9.33752E+03  1.41601E+03
  5.77823E+03  3.56039E+03  2.25401E+03  4.84040E+03 -9.37421E+02  7.16273E+03 -3.42377E+02  2.06701E+03
 -2.67189E+03 -3.58176E+03 -8.85336E+02 -1.23020E+03  3.11689E+02 -5.90040E+01 -3.60717E+02 -5.63157E+03
  9.30476E+02  5.51237E+02  2.09113E+02  9.24569E+02  6.34215E+02  8.20966E+02  1.74092E+03 -1.12771E+03
 -4.68655E+02  1.34225E+03  2.99687E+03 -1.15171E+03  2.79123E+02 -6.51468E+02  1.75392E+03  8.84302E+03
 -1.00388E+03 -3.86361E+02 -5.03584E+03  1.64966E+03  2.96352E+01 -3.11352E+03 -7.52838E+02 -3.18234E+03
  4.71581E+03 -7.25161E+02  1.46391E+03 -1.59463E+03  5.27259E+03  1.51480E+03 -3.35975E+03 -2.41048E+03
  2.64706E+03  9.44164E+01 -9.04146E+02 -4.32649E+03 -3.97438E+03 -5.06677E+03  5.12059E+02 -1.89048E+03
  3.17703E+03 -1.44334E+02  3.93590E+03 -2.13740E+03  5.10043E+01 -2.25169E+03  2.24224E+02  5.29659E+02
 -1.73235E+03  1.24348E+03 -1.73744E+03  3.07339E+03  1.01400E+03 -3.37231E+03 -2.72839E+03  3.39015E+03
  3.52297E+03 -4.03247E+02  1.52544E+03  3.95684E+02  2.41265E+03  2.31542E+03 -3.44617E+03  7.50053E+02
 -8.82461E+01  1.65602E+03 -1.38881E+03 -6.23762E+02 -5.93391E+03 -5.11986E+01 -1.02868E+03 -1.39761E+03
  3.39497E+03 -3.06848E+03  4.21258E+03  2.22359E+03  1.05549E+03  4.88885E+02 -4.78081E+02 -1.06024E+03
  9.33647E+02 -5.82381E+02 -4.02522E+03 -1.67547E+03 -1.35299E+02 -1.93548E+03  4.12444E+02 -1.11979E+03
 -6.27258E+01 -2.32754E+02 -2.29049E+03  2.48966E+03 -4.58623E+02  3.79940E+03 -8.10837E+02 -1.67512E+03
  1.26493E+03 -4.84098E+03  4.77393E+01 -6.28530E+03  1.13752E+03 -5.47214E+03  2.10483E+03 -1.49873E+03
  2.46154E+02 -1.81451E+03  7.29743E+02 -3.79968E+03 -2.63768E+03 -1.09606E+03 -1.19641E+03  2.23853E+03
  1.05065E+03  2.01121E+03 -7.14636E+02 -1.81138E+03 -4.01651E+03 -2.32494E+03 -1.53846E+03 -4.21273E+03
  1.77575E+03 -4.96405E+03 -3.34597E+03  1.89527E+03  7.95659E+02 -1.01887E+03  1.12843E+03 -1.17294E+03
  1.87914E+03 -3.26235E+02  3.05892E+03  3.35106E+03 -4.12885E+02  7.80876E+02 -7.08658E+02 -4.13809E+02
 -5.80244E+03  7.17103E+03 -6.33883E+03 -1.63376E+03 -1.45978E+03  3.84870E+01 -8.75762E+02 -3.08556E+03
 -7.33687E+02 -1.71862E+03 -1.56672E+03  3.86386E+02 -3.76186E+02  1.02065E+02  3.15286E+03 -2.86970E+03
  1.05973E+03  8.07828E+02 -8.91409E+02  4.28915E+03 -2.22197E+03 -8.63612E+02 -3.33657E+03 -4.09125E+02
 -8.96254E+02 -4.00810E+02  3.97338E+03 -1.22515E+03  6.17174E+03 -2.37680E+03  1.58495E+03  1.17874E+03
  5.99084E+02  5.60665E+03  1.88574E+03 -1.08414E+03 -4.88784E+03 -4.12968E+03 -3.90192E+03 -8.04360E+02
  2.26814E+03 -2.77960E+03  4.42688E+03  3.36301E+03 -3.60296E+03  3.87533E+03 -3.48063E+03  2.21942E+03
 -3.41126E+00  1.99220E+03  1.63301E+03  2.41444E+03 -3.16166E+03  6.75887E+02 -1.24263E+03 -2.29804E+03
  6.84421E+03 -5.69925E+03  2.12752E+03  5.43898E+03  4.92724E+03  1.75327E+03 -4.97455E+03 -1.65013E+03
  1.40085E+03 -2.90286E+03  2.75068E+03 -2.43830E+03  1.31270E+03 -3.19812E+03  1.22333E+03 -2.39874E+03
  1.39320E+03  4.38380E+03  2.02516E+02  4.02836E+03 -1.49110E+02  4.88157E+03 -1.35438E+03 -1.40646E+03
