 $NMID ID='MM_0lb_SNR50_12hz_g40_85.RAW', FMTDAT='(8E13.5)'
 TRAMP=1., VOLUME=1. $END
  3.11128E+05  2.68014E+03  3.28830E+05  2.51951E+05  8.47887E+04  3.34886E+05 -1.35190E+05  2.57083E+05
 -1.91670E+05  7.92881E+04 -1.12800E+05 -3.24220E+04  2.71557E+03 -4.78584E+04  5.46103E+04 -2.15369E+03
  3.59361E+04  5.14897E+04 -1.15146E+04  7.50124E+04 -6.40052E+04  5.97779E+04 -7.98932E+04  3.47737E+04
 -7.97427E+04 -1.49337E+04 -5.88501E+04 -4.67636E+04 -1.35546E+04 -6.25470E+04  3.02041E+04 -4.50335E+04
  4.24760E+04  5.66793E+03  1.43755E+04  4.84830E+04 -4.01885E+04  5.13453E+04 -6.86003E+04 -1.38986E+03
 -5.69040E+04 -6.09282E+04 -4.88559E+03 -7.96388E+04  3.05630E+04 -5.39456E+04  4.79634E+04 -1.86402E+04
  4.76229E+04  1.36290E+04  3.66112E+04  2.45826E+04  1.62154E+04  2.86082E+04 -2.56897E+03  2.86923E+04
 -2.35776E+04  1.24723E+04 -1.57399E+04 -8.96368E+03  4.11045E+03 -5.28349E+03  2.39319E+04  1.22763E+04
  1.13184E+04  3.91057E+04 -3.42476E+04  3.50398E+04 -6.60858E+04  1.11010E+03 -5.73409E+04 -4.61870E+04
 -1.52118E+04 -6.30614E+04  4.25427E+04 -4.77601E+04  5.92226E+04  2.88312E+03  3.44181E+04  2.83483E+04
 -5.19202E+03  3.94705E+04 -2.99518E+04  1.61171E+04 -2.78953E+04 -6.63293E+03 -2.27337E+04 -1.02329E+04
 -7.39111E+03 -1.64687E+04  1.22186E+03 -1.98911E+04  1.11882E+04 -2.30752E+04  1.29056E+04 -8.25214E+03
  9.21255E+03  5.67503E+02 -7.84438E+03  1.60107E+04 -2.21648E+04 -8.58608E+03 -5.52088E+03 -3.17150E+04
  2.20565E+04 -4.89091E+04  5.14800E+04 -1.23625E+04  4.13510E+04  1.80772E+04  1.82360E+04  4.75406E+04
 -1.20713E+04  3.32491E+04 -2.62254E+04  3.47228E+03 -7.52843E+03 -2.64642E+04  2.06231E+04 -3.30529E+04
  4.37539E+04 -1.04777E+04  4.16202E+04  2.45905E+04  1.81834E+04  4.34669E+04 -5.70423E+03  4.73227E+04
 -3.04736E+04  3.33340E+04 -4.50267E+04  1.37800E+04 -3.88720E+04 -2.15599E+04 -2.41820E+04 -4.11839E+04
  8.25840E+03 -3.51951E+04  3.73656E+04 -1.52618E+04  2.82931E+04  1.28165E+04  4.77137E+03  1.64828E+04
 -1.65816E+04  9.22358E+03 -8.55241E+03 -7.91406E+03  1.00703E+04 -1.58890E+04  1.96887E+04  7.90058E+03
  1.48010E+04  2.63962E+04 -2.91374E+03  2.50361E+04 -2.44668E+04  1.04714E+04 -3.14064E+04 -7.48935E+03
 -2.15627E+04 -1.83930E+04 -8.71366E+03 -2.26884E+04  3.78018E+03 -2.24658E+04  1.45511E+04 -1.31751E+04
  2.96521E+04 -1.76008E+04  3.62804E+04  2.05318E+03  2.25597E+04  2.54503E+04  7.68839E+03  3.61364E+04
 -2.41080E+04  3.42870E+04 -2.81279E+04  1.46710E+04 -2.23041E+04 -5.67253E+03 -5.92081E+03 -1.38544E+04
  1.09304E+03 -3.22947E+03 -5.96868E+03  1.13820E+04 -1.86252E+04  6.61308E+03 -2.06781E+04 -5.50097E+03
 -1.91103E+03 -2.00449E+04  2.55158E+03 -2.23710E+04  1.63035E+04 -1.30151E+04  1.64454E+04  2.58300E+03
  9.67160E+03  1.11649E+04 -5.02179E+03  2.28895E+04 -1.20887E+04  1.01213E+04 -2.17060E+04 -8.61105E+03
 -1.65900E+04 -2.02639E+04 -4.43791E+03 -2.15289E+04  9.69952E+03 -1.82968E+04  2.02991E+04 -1.55690E+04
  1.79418E+04  2.08803E+02  1.88578E+04  6.02262E+03  4.49011E+03  4.56020E+03  1.10692E+04 -4.23932E+02
  2.02238E+04  6.76341E+03  2.02398E+04  1.70127E+04  1.08171E+04  3.59521E+04 -3.39906E+03  3.85980E+04
 -1.89325E+04  2.58223E+04 -3.60252E+04  1.99552E+04 -3.51882E+04  8.65800E+02 -2.89456E+04 -2.55269E+04
 -1.67380E+04 -3.17287E+04  1.04021E+04 -2.93171E+04  2.62093E+04 -1.33572E+04  1.54796E+04  5.11312E+03
  9.76992E+03  1.06821E+04 -1.37299E+04  8.88281E+03 -2.00797E+04 -1.35149E+03 -1.53945E+04 -9.49111E+03
 -6.23858E+03 -1.78531E+04  1.01619E+04 -1.42831E+04  1.62728E+04 -1.68329E+03 -2.63722E+03  5.37322E+03
 -1.05730E+04  3.49931E+02 -9.00777E+03 -5.58293E+03  1.55787E+03 -1.47069E+04  1.35316E+04 -1.41506E+04
  1.80477E+04 -3.55217E+03  2.00777E+04  8.14926E+03  1.63443E+04  1.04960E+04  1.00911E+04  1.97601E+04
 -4.15930E+03  2.51983E+04 -2.13929E+04  1.19758E+04 -1.71240E+04  1.07448E+04 -1.49872E+04 -6.26372E+03
 -2.70656E+03 -4.00526E+03  1.84022E+03  3.43211E+03  5.27610E+01  4.27150E+03 -9.62363E+02  9.19616E+03
 -9.52299E+03 -1.40849E+03 -1.54070E+04 -6.28032E+03 -2.57340E+03 -1.38908E+04  4.93205E+03 -1.55378E+04
  8.80666E+03 -8.61164E+03  5.75090E+03 -7.66810E+02 -7.25811E+03  8.69812E+03 -6.82530E+03 -2.23062E+03
 -5.67125E+03 -1.11525E+04  3.97059E+03 -1.29683E+04  8.54101E+03 -8.34490E+03  1.59434E+04 -5.20075E+03
  1.64923E+04 -1.71941E+03  1.11825E+04  9.86034E+03  5.80705E+03  1.49985E+04 -5.06735E+03  1.52893E+04
 -1.03762E+04 -7.94684E+02 -6.11364E+03 -8.41576E+02  8.24536E+03  3.37249E+03  7.58907E+03 -3.35176E+03
  5.13511E+03 -3.67235E+02  4.55369E+03  6.48250E+03 -1.92916E+03  1.16084E+04 -1.11075E+04  3.26866E+03
 -1.21472E+04 -3.49455E+03 -9.69739E+02 -1.46130E+04  5.62883E+03 -3.31280E+03  4.34399E+03  2.83970E+03
  3.83912E+01  8.79988E+03 -5.38053E+03  8.86384E+03 -1.10995E+04 -2.16142E+02 -1.13809E+04  1.37916E+03
 -1.84686E+03 -1.18110E+04  7.60956E+03 -1.37647E+04  7.47204E+03 -8.46446E+03  1.71377E+04  5.56495E+03
  7.88461E+03  1.20503E+04 -4.84577E+03  1.28854E+04 -8.79256E+03  1.00820E+04 -1.66087E+04  4.55882E+03
 -9.36568E+03 -8.90862E+03  4.51214E+02 -1.14908E+04  3.71802E+03 -6.22285E+03  5.69813E+03 -1.08587E+03
  8.62682E+03 -7.17570E+02 -6.96825E+02  2.13662E+03  6.60337E+02 -3.18033E+03 -2.97804E+03 -4.87848E+03
  6.66174E+03 -6.12350E+02  1.16758E+04 -1.98937E+02  9.92018E+03  4.32906E+03  1.13661E+04  1.54263E+04
 -7.39098E+03  1.35643E+04 -1.92874E+04  6.20423E+03 -1.56898E+04  1.05064E+04 -1.40149E+04 -8.01664E+03
 -7.98215E+03 -6.16374E+03 -2.75347E+03 -1.03997E+04  4.08955E+03 -3.93204E+03  1.55385E+03 -8.42771E+03
  5.03961E+03 -4.71265E+03  2.97340E+03 -5.64848E+03  8.86808E+03 -2.74478E+03  2.17240E+03 -3.44649E+03
  8.56449E+03  4.65213E+02  9.08353E+03  2.07226E+03 -2.62950E+03  7.66556E+03 -1.35379E+04  7.21783E+03
 -1.18579E+04 -1.92858E+03 -5.70346E+03 -2.72831E+03  2.67089E+03 -8.46167E+03  7.40750E+03 -1.34411E+04
  9.39832E+03 -5.12855E+03  1.45421E+04 -2.05432E+03  7.01581E+03  7.58874E+03 -4.08400E+03  7.47794E+03
 -4.47566E+03  9.16024E+03 -9.37696E+03  6.36709E+03 -6.30111E+03  2.35919E+03 -1.18709E+02 -1.50184E+03
 -5.07801E+03  3.05003E+03 -2.16507E+03  1.54445E+02 -6.51878E+03 -1.25129E+03 -6.21904E+03 -4.78242E+02
 -7.40932E+03 -5.17129E+03 -5.99672E+01 -8.51127E+03  1.28169E+04 -1.20781E+04  1.25716E+04 -2.13487E+03
  1.23500E+04  1.01523E+04  3.74227E+03  1.08571E+04 -6.14680E+03  5.62090E+03 -1.13729E+04  1.47796E+03
 -6.80020E+03 -2.52810E+03 -1.77330E+03 -3.85787E+03 -4.18601E+03 -6.97096E+03  1.68133E+03 -8.68362E+03
  8.69291E+03  4.25298E+02  6.78552E+03 -6.13075E+01  1.04139E+01  3.72318E+03  8.22741E+02  3.72212E+03
  4.32311E+03  2.84333E+03  6.76036E+03  4.24958E+03  4.04894E+03  6.13271E+03  6.04321E+03  6.42536E+02
 -1.44823E+03  7.67443E+03 -5.23954E+03  5.46971E+03 -1.43499E+04  2.58608E+03 -5.96100E+03 -9.31300E+03
 -5.61299E+03 -1.36799E+04 -7.64505E+02 -8.09360E+03  6.04690E+03 -7.25547E+03  1.08934E+04 -1.62604E+03
  3.82705E+03  6.78381E+03  1.84533E+03  4.52320E+03 -3.45195E+03  3.78388E+03  9.35825E+02  3.02904E+03
 -4.45187E+03 -4.46950E+03  6.04497E+03 -2.93012E+03  1.78002E+03 -1.99423E+03  4.77745E+03  2.56750E+03
  3.76032E+03  1.81261E+03  9.78879E+02 -1.33070E+03 -2.77466E+03  1.83826E+03  1.13468E+03  5.06560E+03
  1.37537E+03 -7.78798E+03  4.36611E+03 -4.45354E+02 -1.43894E+03  3.46930E+03 -2.30490E+03  3.04372E+03
 -6.49042E+03  5.10314E+03 -9.24961E+03 -8.45282E+01  5.54990E+01 -2.36838E+03 -8.75828E+02  2.45570E+03
  4.73824E+02  2.00704E+03  3.15828E+03  4.80657E+02 -2.42881E+03  5.12272E+03  9.28319E+02 -3.46816E+02
 -8.30235E+03  4.62264E+03 -2.93116E+03 -2.22495E+03 -3.28527E+03 -6.14253E+03 -2.81391E+03 -5.41174E+03
  5.11172E+03 -5.67803E+03  4.90792E+03  1.36293E+03  4.96630E+03 -3.27124E+03  1.87924E+02  5.76988E+03
 -1.99137E+03  9.86694E+03 -6.10073E+03 -2.23871E+03 -2.89644E+03 -5.24125E+03  3.53874E+03  1.25396E+03
 -1.45579E+03 -1.21063E+03  1.21249E+04  9.49207E+02 -1.32755E+03  6.68047E+03 -2.06780E+03  1.32062E+03
 -7.05099E+03  2.39775E+03 -4.91099E+03 -5.64842E+03 -4.21704E+03 -2.46453E+03  2.94209E+03 -1.35340E+03
  3.00366E+03 -1.89332E+03  9.26816E+02  8.12311E+03  2.05312E+03 -1.26095E+03 -1.53067E+03  2.56785E+03
  1.16820E+03  1.48151E+03  9.87602E+02  2.35786E+02  5.61563E+02  3.89548E+03  7.98794E+02  2.72701E+02
  5.55809E+03  2.72271E+03 -4.50335E+03  7.04284E+02 -5.47124E+03  4.98956E+02 -1.15870E+04 -5.12333E+03
  1.00325E+03 -5.03529E+03 -1.98655E+03 -5.48380E+03  2.30986E+03 -1.06359E+04  8.47396E+03 -4.40279E+03
  8.20215E+03  2.01270E+03  7.77520E+02  8.49696E+03 -2.62510E+03  1.12971E+04 -2.15063E+03  4.69037E+03
 -1.58524E+03  2.85976E+03  5.03267E+02 -2.83621E+03  3.50923E+03 -7.24627E+02 -8.26600E+03  3.78651E+03
  2.57791E+03  6.03452E+03  3.67443E+03  8.01021E+03 -2.79107E+03 -3.12816E+03  2.01281E+03 -4.11209E+03
  1.09063E+03 -4.29574E+03  1.02297E+03  6.04136E+02  4.60345E+03  6.24617E+03 -4.63034E+02  3.79731E+03
 -7.55653E+03  6.33574E+03 -6.93106E+03  2.10108E+03 -8.29308E+03 -4.31481E+03 -7.07401E+03 -6.84165E+03
 -2.20162E+03 -5.25970E+03  2.08842E+03 -9.44844E+03  4.04126E+03 -3.07705E+03 -1.13508E+03 -1.06751E+03
  1.69977E+02 -1.28198E+03 -1.40187E+03  2.03435E+03  7.98350E+03  3.14313E+03 -1.21162E+03  4.13473E+03
  2.50640E+03 -4.66658E+03 -2.15298E+03  3.63487E+03 -2.57807E+03 -1.65647E+02  3.46339E+03  1.51803E+03
 -1.25906E+03  4.89393E+03 -9.45679E+01  2.78775E+03 -3.24710E+03 -5.33351E+03 -8.98322E+02 -5.75116E+03
  2.76047E+03 -2.18762E+02  4.53525E+03  3.32833E+03  2.88588E+03  6.61760E+02  8.07786E+02  5.47900E+03
 -2.95717E+03  5.90927E+03 -2.58009E+03  1.79280E+03 -3.34071E+03  2.84614E+03 -4.01392E+03  2.34969E+01
 -1.93185E+03 -1.01445E+03  3.05105E+03  9.06404E+03 -2.34038E+03 -2.97678E+02 -5.25781E+03 -7.21984E+02
 -3.04694E+03 -2.05777E+02  2.13755E+03 -7.97610E+03  1.96907E+03 -4.24838E+03  4.38655E+03 -1.78151E+03
  3.02209E+03  2.84247E+03  1.22467E+03 -1.72648E+03 -5.76059E+03  2.29520E+03 -3.49192E+03  2.10332E+03
