 $NMID ID='MM_0lb_SNR50_7hz_g55_64.RAW', FMTDAT='(8E13.5)'
 TRAMP=1., VOLUME=1. $END
  3.13897E+05  1.91047E+03  3.42283E+05  2.52321E+05  8.66773E+04  3.39449E+05 -1.29320E+05  2.48687E+05
 -1.91674E+05  8.12632E+04 -1.16853E+05 -4.10756E+04  1.97196E+02 -5.08662E+04  5.68415E+04  1.73305E+03
  2.85430E+04  4.97875E+04 -1.57857E+04  7.63490E+04 -6.93442E+04  6.29401E+04 -9.11061E+04  3.39704E+04
 -8.28614E+04 -1.31800E+04 -5.99718E+04 -5.88726E+04 -2.28913E+04 -6.96168E+04  2.96552E+04 -5.24119E+04
  3.83919E+04  7.17650E+03  1.39572E+04  4.36369E+04 -3.80158E+04  4.74994E+04 -7.16016E+04  4.38007E+03
 -5.69534E+04 -5.79916E+04 -3.86846E+03 -7.85479E+04  4.12101E+04 -5.77685E+04  4.23493E+04 -2.24752E+04
  4.07401E+04  3.92749E+03  3.21739E+04  2.20956E+04  1.95123E+04  3.38257E+04 -1.78555E+03  2.23119E+04
 -2.10606E+04  1.20307E+04 -1.54363E+04 -3.39146E+03  9.03328E+03 -1.16269E+04  2.24620E+04  1.38783E+04
  6.40900E+03  4.19446E+04 -3.67432E+04  3.81199E+04 -6.97199E+04 -2.20393E+03 -5.95580E+04 -4.61508E+04
 -1.41478E+04 -6.45834E+04  4.08213E+04 -4.95542E+04  6.52865E+04 -5.62377E+03  3.65022E+04  3.12391E+04
 -3.87494E+03  4.04726E+04 -3.75639E+04  2.06912E+04 -3.43177E+04 -2.28176E+03 -1.79000E+04 -1.02867E+04
 -1.20432E+04 -1.94306E+04  2.19867E+03 -2.22425E+04  1.03681E+04 -2.76955E+04  1.73456E+04 -6.24738E+03
  7.26689E+03  7.01389E+03 -1.20701E+04  1.84434E+04 -2.86132E+04 -1.14779E+04 -8.12034E+03 -3.99166E+04
  3.50634E+04 -4.16126E+04  4.69931E+04 -1.83970E+04  5.17065E+04  2.04562E+04  1.98569E+04  4.74646E+04
 -1.48171E+04  3.19169E+04 -3.71585E+04  3.30707E+03 -1.38555E+04 -3.63982E+04  2.27301E+04 -3.77026E+04
  5.13692E+04 -1.17325E+04  3.92054E+04  2.44089E+04  2.24926E+04  5.63698E+04 -9.21332E+03  5.27094E+04
 -3.39663E+04  4.48114E+04 -4.78279E+04  1.52675E+04 -4.86198E+04 -1.50592E+04 -2.93462E+04 -4.63010E+04
  2.18447E+03 -4.40934E+04  3.81140E+04 -1.36016E+04  3.10830E+04  1.21624E+04  1.09018E+04  2.03289E+04
 -1.80097E+04  7.57369E+03 -1.05577E+04 -2.01153E+03  3.77271E+03 -1.45139E+04  2.01778E+04  3.14795E+03
  1.26856E+04  2.49585E+04 -7.71336E+03  2.93141E+04 -2.04063E+04  1.90124E+04 -3.79570E+04 -9.35892E+03
 -2.73312E+04 -1.64073E+04 -9.72202E+03 -3.00566E+04  3.00236E+03 -3.39196E+04  2.51898E+04 -3.05374E+04
  3.58321E+04 -1.38119E+04  3.77803E+04  4.09182E+03  2.67512E+04  2.35351E+04 -1.93762E+03  4.53589E+04
 -2.00715E+04  3.45878E+04 -2.69813E+04  1.61059E+04 -3.01123E+04 -1.48473E+04 -4.26569E+03 -1.75634E+04
  2.50216E+03 -7.59209E+02 -8.84374E+03  1.07271E+04 -2.52143E+04  9.38141E+03 -1.65425E+04 -7.34488E+03
 -1.68539E+04 -2.16401E+04 -1.29561E+02 -3.68915E+04  2.17709E+04 -2.94513E+04  2.22378E+04  2.77425E+03
  1.52809E+04  1.68126E+04  2.32550E+03  3.37728E+04 -2.03237E+04  1.65591E+04 -2.66160E+04 -1.34910E+04
 -2.23688E+04 -2.75040E+04 -4.66608E+03 -2.13836E+04  1.58347E+04 -2.15590E+04  2.59345E+04 -1.44953E+04
  2.24932E+04  3.85882E+03  1.12542E+04  7.94161E+03  1.26679E+04  6.29290E+03  1.02216E+04 -2.05270E+03
  2.16960E+04  1.13665E+04  2.44487E+04  1.69581E+04  1.28282E+04  3.42691E+04 -6.64909E+02  5.60615E+04
 -3.49662E+04  4.26263E+04 -4.79653E+04  2.23368E+04 -5.21066E+04  1.91991E+03 -4.24036E+04 -2.78439E+04
 -1.81704E+04 -3.89808E+04  2.11584E+04 -3.68554E+04  3.15806E+04 -1.23755E+04  2.85859E+04  5.35079E+03
  9.29471E+03  2.52492E+04 -1.30819E+04  1.55517E+04 -1.65800E+04  7.53863E+03 -2.04584E+04 -1.89333E+04
  1.29752E+03 -2.87972E+04  1.37274E+04 -1.96642E+04  2.08949E+04 -5.62820E+02  4.52283E+03  1.40449E+04
 -1.57645E+04  2.33028E+03 -1.17075E+04 -1.25069E+04 -1.12796E+04 -2.35719E+04  1.30355E+04 -1.99598E+04
  2.55123E+04 -1.29365E+04  2.41662E+04  6.39609E+03  2.28500E+04  1.59593E+04  3.54892E+03  3.73313E+04
 -1.30223E+04  3.47515E+04 -2.60347E+04  2.42093E+04 -3.07885E+04  4.36599E+03 -2.12007E+04 -2.21486E+03
 -7.79985E+03 -1.26448E+04 -2.46124E+03  2.21585E+02 -5.32615E+03  8.77343E+03  5.31285E+03 -9.40425E+02
 -1.31539E+04  1.79243E+03 -1.19738E+04 -8.07632E+03 -1.02136E+04 -2.33873E+04  1.01853E+04 -1.74029E+04
  1.43765E+04 -7.12053E+03  7.00553E+03  8.31084E+03 -3.62477E+03  3.74881E+03 -8.04348E+03  1.23807E+03
 -9.37439E+03 -1.06435E+04  3.07600E+03 -1.97257E+04  8.57457E+03 -2.00965E+04  1.23520E+04 -9.46614E+03
  3.16073E+04 -5.04070E+01  2.62593E+04  9.27614E+03  2.38519E+03  2.83082E+04 -8.71526E+03  2.06603E+04
 -7.61661E+03  3.81560E+03 -1.02467E+04 -3.04212E+03  5.48944E+03 -4.00383E+03  1.13869E+04  6.31812E+02
  1.05661E+04  1.28739E+04 -1.58243E+03  1.64080E+04 -9.61880E+03  1.41970E+04 -1.32053E+04  5.98868E+03
 -1.84498E+04  2.51723E+02  2.24981E+03 -1.56689E+04  1.53621E+04 -2.51377E+03  5.12055E+03  3.81244E+03
 -3.79749E+03  8.87216E+03 -3.80404E+03  1.12461E+04 -2.31219E+04  8.04231E+02 -1.10549E+04 -1.68684E+03
 -4.57846E+03 -1.62486E+04  1.17231E+03 -1.08230E+04  1.37530E+04 -1.65308E+04  1.52932E+04  1.57724E+03
  1.23599E+04  1.56591E+04 -5.58278E+03  1.35836E+04 -1.27426E+04  1.16575E+04 -1.85769E+04 -8.51858E+03
 -6.80039E+03 -1.52889E+04 -4.69902E+03 -1.45867E+04  1.13679E+04 -1.87032E+04  1.21350E+04 -2.76295E+02
  7.98940E+01  1.13164E+04 -5.90782E+03  5.82461E+03 -6.76179E+03 -5.02617E+03  8.74940E+03 -2.26963E+04
  1.17174E+04 -5.93508E+03  2.34929E+04 -8.89654E+02  1.53738E+04  1.30785E+04  1.02849E+04  2.58309E+04
 -1.35566E+04  2.19282E+04 -2.07409E+04  2.58045E+04 -3.72413E+04  8.99141E+03 -2.54525E+04 -1.25984E+04
 -7.26063E+03 -2.88242E+04  7.44290E+03 -1.79091E+04  9.49971E+03 -1.45407E+04  7.32863E+03  1.14437E+03
  7.20311E+03 -2.47215E+03  8.22009E+03 -4.80225E+03  1.20517E+04  2.73433E+03  1.46569E+04  1.91159E+03
  1.97818E+04  4.70098E+03  1.39656E+04  9.91507E+03 -6.92736E+03  1.74187E+04 -1.25800E+04  1.25612E+02
 -2.17166E+04 -3.85170E+03 -8.06728E+03 -1.54121E+04 -1.16543E+04 -2.23443E+04  2.22330E+04 -2.04999E+04
  1.20471E+04 -1.20114E+04  3.11734E+04  7.44097E+03  1.70827E+04  1.57251E+04  5.48306E+03  2.20521E+04
 -4.24673E+03  1.81399E+04 -1.09897E+04  1.04234E+04 -9.72014E+03 -4.28384E+03 -5.59114E+03 -2.20020E+03
 -1.87615E+03  3.37441E+03 -6.69118E+03  8.16474E+03 -1.00937E+04 -2.20647E+03 -1.23531E+04  1.09703E+03
 -9.41239E+03 -1.47465E+04  1.54630E+03 -1.63284E+04  6.64454E+03 -1.84183E+04  2.26947E+04 -7.38611E+03
  1.90738E+04  1.22386E+04  1.09983E+04  2.53961E+04 -6.92360E+03  2.01126E+04 -1.80076E+04  1.18077E+04
 -9.42007E+03 -6.73440E+03 -1.31555E+04 -1.69723E+04 -6.55140E+03 -1.59973E+04  4.82060E+03 -1.40283E+04
  1.63237E+04  1.70282E+03  7.64039E+03 -5.64554E+03  6.76362E+03  4.04432E+03  1.24468E+03 -1.35831E+02
  2.03875E+03  4.41900E+03  3.38018E+03 -8.88340E+02  1.60850E+04  6.06397E+03  5.05182E+03  8.91880E+03
  2.12440E+03  9.76343E+03 -2.40458E+04  1.22457E+04 -1.87073E+04  6.34932E+03 -1.67430E+04 -1.32159E+04
 -7.34781E+03 -1.95279E+04  3.42626E+02 -2.57167E+04  1.23912E+04 -1.84840E+04  1.60383E+04 -1.03350E+04
  1.31783E+04  1.31887E+04  7.59085E+03  7.59671E+03 -8.73896E+03  7.57705E+03 -3.76245E+02 -2.78119E+03
 -1.18470E+03 -6.66945E+03  9.27511E+03 -6.87994E+03  8.47773E+03 -1.32265E+04  1.45574E+04 -2.76214E+03
  3.56555E+03  7.22467E+03 -3.64463E+03  3.54640E+03 -2.87492E+03  3.67645E+03 -1.41478E+03 -7.35645E+03
  2.61820E+03 -5.31114E+03  7.76721E+03  1.29556E+03  4.33276E+03  1.67017E+04 -2.36269E+03  1.06407E+04
 -8.66245E+03  4.52987E+03 -7.67323E+03  4.15796E+03 -4.27519E+03 -9.07197E+03 -1.43197E+04 -9.37176E+03
  1.67478E+03 -1.21455E+04  4.00925E+03 -9.81777E+03  9.83545E+02  7.29873E+02  2.12656E+01  2.51034E+03
 -1.11989E+04  1.08364E+04 -8.96327E+03 -6.17616E+03 -5.65629E+03 -5.21967E+03  4.74307E+03 -8.12429E+03
  5.36523E+03 -7.71304E+03  1.13285E+04 -4.66416E+03  1.07351E+04  4.26896E+02  3.31015E+03  8.98266E+03
 -7.00931E+03  2.32904E+03 -5.59244E+02  3.32467E+03 -2.65842E+03 -1.23349E+04  1.04915E+04 -1.18272E+04
  1.54107E+04 -2.19983E+03  9.91288E+03  1.33557E+04  7.02251E+03  9.94508E+03 -1.70111E+03  1.66171E+04
 -8.89094E+03  7.83926E+03 -1.42246E+04 -5.35603E+03 -1.07587E+04 -9.69594E+03  3.77759E+03 -1.34497E+04
  1.69311E+04 -2.90646E+03  8.47595E+03  3.71774E+03  4.21596E+03  9.44909E+03  2.49226E+03  7.18056E+03
 -2.58617E+01  1.13346E+03 -2.82065E+03 -1.95992E+03 -3.59121E+02  3.14940E+03  3.51574E+03  4.93212E+03
 -2.66921E+02  2.33675E+03 -1.10383E+04  5.04997E+02 -1.53047E+04  7.18713E+03 -1.28808E+04 -8.00727E+03
 -9.36403E+03 -1.76630E+04  7.56590E+03 -2.63749E+04  9.53542E+03 -1.85191E+04  1.67939E+04 -1.40481E+04
  1.92350E+04  3.02864E+03  9.49513E+03  1.12051E+04  7.90061E+02  1.29554E+04 -7.97201E+03  7.59837E+03
 -6.20981E+03  5.94793E+03 -9.33825E+03  1.34378E+03  6.50821E+03  1.60557E+02  3.72997E+03  2.80496E+03
 -9.73608E+02  1.28748E+02 -8.21530E+03  1.58040E+03 -3.65805E+03 -9.17183E+03 -1.29037E+03 -7.25956E+03
  9.75795E+03 -3.11093E+03  7.76326E+03 -1.86313E+03  9.97062E+03  1.00990E+03  1.29264E+03  7.28364E+03
 -5.85904E+03  1.73374E+04 -1.59754E+04  1.74792E+03 -1.87034E+04 -7.17107E+03 -1.41873E+04 -9.84484E+03
 -6.14069E+03 -1.91934E+04  4.15459E+03 -1.22198E+04  9.78876E+03 -1.04490E+04  1.43727E+04  6.65069E+03
  3.15137E+03  3.34159E+03 -1.33952E+03  2.07446E+03 -4.30574E+03  8.16241E+03 -8.44312E+03 -5.42670E+03
  4.65788E+03 -5.90852E+02  4.79822E+03 -4.67777E+03  4.37642E+03  4.40728E+03 -2.09009E+03  9.52855E+03
 -8.42839E+03  1.02894E+04 -1.39088E+04 -6.36236E+03 -1.29784E+04 -6.26972E+03 -3.92967E+03 -1.14858E+04
  8.58165E+03 -1.66210E+04  1.33861E+04  7.73341E+02  1.16723E+04  1.65890E+04  2.27047E+03  1.02316E+04
  8.93494E+02  5.96722E+03 -3.76903E+03  7.53550E+03 -1.72580E+03  5.58248E+03 -1.31727E+03  4.30588E+03
  7.53435E+01  3.49682E+02 -4.17024E+03  1.04481E+04 -2.16833E+03  2.33791E+03 -7.81484E+03  3.17729E+03
 -1.47942E+04 -7.47973E+03 -4.16771E+02 -1.02438E+04  6.90572E+03 -5.73982E+03  1.04940E+04 -3.29157E+03
  3.82299E+03  4.54427E+01  4.71372E+02  9.90298E+03  1.07360E+03  1.68772E+04 -4.86266E+03  5.35348E+03
