 $NMID ID='MM_0lb_SNR50_19hz_g50_35.RAW', FMTDAT='(8E13.5)'
 TRAMP=1., VOLUME=1. $END
  3.13103E+05  2.05055E+03  3.36536E+05  2.47479E+05  8.48730E+04  3.39037E+05 -1.31411E+05  2.52142E+05
 -1.92703E+05  8.19553E+04 -1.11622E+05 -3.40884E+04  3.24241E+03 -5.24237E+04  5.47473E+04  2.20136E+03
  3.33668E+04  5.18567E+04 -1.82988E+04  7.91775E+04 -6.17623E+04  5.75611E+04 -8.12430E+04  3.33276E+04
 -8.16215E+04 -1.28495E+04 -5.29826E+04 -4.92713E+04 -1.39384E+04 -6.92405E+04  2.60965E+04 -4.57001E+04
  3.69465E+04  4.23257E+03  1.53785E+04  4.30013E+04 -3.36939E+04  4.57738E+04 -6.75379E+04 -3.20775E+03
 -5.31241E+04 -5.33082E+04 -6.34595E+03 -7.94484E+04  3.27662E+04 -4.86335E+04  4.97287E+04 -1.41382E+04
  4.16694E+04  1.33288E+04  3.04339E+04  2.39748E+04  1.41443E+04  2.97295E+04 -2.39631E+03  2.58848E+04
 -2.27770E+04  1.23205E+04 -1.78414E+04 -2.44773E+03  4.96760E+03 -4.98706E+03  2.27419E+04  1.14336E+04
  5.49691E+03  3.11318E+04 -2.75722E+04  3.18322E+04 -6.03510E+04  1.76587E+03 -5.54389E+04 -3.89739E+04
 -1.60669E+04 -6.11322E+04  4.12694E+04 -4.27070E+04  5.42765E+04 -5.15667E+03  2.87724E+04  3.13077E+04
 -5.50213E+03  3.57703E+04 -2.92206E+04  1.15452E+04 -2.47977E+04 -7.14979E+03 -1.60450E+04 -9.78727E+03
 -4.20258E+03 -8.22533E+03 -2.71264E+03 -1.62399E+04  1.05690E+04 -2.17497E+04  1.59887E+04 -1.72888E+04
  1.21156E+04  3.27669E+03 -8.35962E+03  1.16410E+04 -1.61996E+04 -2.88464E+03 -5.73356E+03 -3.52077E+04
  2.61535E+04 -3.78068E+04  4.70715E+04 -2.21184E+04  4.31754E+04  2.11316E+04  1.36807E+04  4.29930E+04
 -1.10772E+04  2.86700E+04 -2.48348E+04  3.60445E+03 -1.00734E+04 -2.71160E+04  2.12460E+04 -3.23209E+04
  3.75014E+04 -1.01650E+04  3.48377E+04  1.99648E+04  1.65742E+04  4.40440E+04 -6.57334E+03  4.98011E+04
 -2.99200E+04  2.73068E+04 -3.57899E+04  5.03172E+03 -3.71279E+04 -1.51501E+04 -2.19715E+04 -3.28116E+04
  5.83818E+03 -3.29315E+04  2.95690E+04 -9.48925E+03  2.66339E+04  1.09636E+04  3.41833E+03  1.63757E+04
 -1.11043E+04  2.06557E+03 -1.08479E+04 -1.04998E+04  5.61576E+03 -6.94411E+03  1.85367E+04  6.17582E+03
  1.13475E+04  1.75660E+04 -5.66279E+03  2.55833E+04 -2.14923E+04  6.48247E+03 -2.72067E+04 -8.60178E+03
 -1.39012E+04 -1.77520E+04 -4.98927E+03 -1.49849E+04  2.77623E+03 -1.50061E+04  1.39842E+04 -1.35577E+04
  1.92739E+04 -1.50316E+04  2.79145E+04  3.92960E+02  2.14759E+04  1.97615E+04  5.23065E+03  3.44531E+04
 -1.68564E+04  2.53229E+04 -2.60385E+04  9.84774E+03 -2.00956E+04 -9.00483E+03 -3.53209E+03 -1.21673E+04
  2.08215E+03 -2.60914E+03  4.66964E+02  7.70256E+03 -1.32903E+04 -2.84881E+03 -1.35037E+04 -2.86422E+03
 -5.01674E+03 -1.77146E+04  3.06067E+03 -1.93802E+04  9.88831E+03 -1.30664E+04  1.29871E+04  1.62413E+03
  1.15712E+04  9.18741E+03 -3.79569E+02  1.57369E+04 -1.21500E+04  9.82985E+03 -1.59885E+04 -3.19388E+03
 -1.08208E+04 -1.97396E+04 -4.35967E+03 -1.57485E+04  5.54515E+03 -1.57569E+04  1.19666E+04 -6.12230E+03
  1.62450E+04 -4.81038E+03  9.71098E+03  4.67949E+03  3.85581E+03  3.07223E+03  7.89807E+03 -3.51426E+02
  1.72643E+04  3.97562E+03  1.26831E+04  1.21627E+04  7.98823E+03  2.24002E+04 -1.52974E+03  2.27698E+04
 -1.55270E+04  2.09088E+04 -2.63460E+04  1.13616E+04 -2.48329E+04 -3.26761E+03 -2.37593E+04 -1.61674E+04
 -8.14624E+03 -2.17106E+04  9.18011E+03 -1.90689E+04  1.67680E+04 -4.41947E+03  1.80835E+04  5.80313E+03
  3.68224E+03  1.29858E+04 -8.88830E+03  1.21616E+04 -1.42518E+04  2.32326E+03 -9.88340E+03 -5.74086E+03
 -1.90084E+03 -1.47116E+04  4.49435E+03 -7.90516E+03  1.07109E+04 -3.77248E+03 -1.41481E+03  3.06944E+03
 -3.30725E+03  3.90350E+02 -1.41546E+03 -8.85028E+03 -2.82224E+03 -1.06485E+04  8.02878E+03 -1.81910E+04
  1.40151E+04 -6.40565E+03  1.19697E+04  8.32278E+02  5.78035E+03  7.03351E+03  5.97451E+03  1.36861E+04
 -9.23745E+02  1.42578E+04 -1.00126E+04  9.60019E+03 -6.05453E+03  8.19596E+03 -7.22797E+03 -3.14392E+03
 -2.13305E+03 -3.97703E+03 -6.54278E+02  2.55717E+03 -1.93636E+03  1.56449E+03 -3.00926E+03  2.10006E+03
 -6.13482E+03  3.34202E+02 -9.89207E+03 -4.23274E+03 -5.28510E+03 -9.48325E+03  4.04546E+03 -6.03620E+03
  6.30859E+03 -3.05807E+03  6.91331E+03 -1.09224E+03  1.97758E+03  5.71288E+03 -3.06988E+03  3.14623E+03
 -5.88755E+03 -3.48354E+03 -2.07901E+03 -9.06614E+03  5.42879E+03 -8.59128E+03  9.49166E+03 -5.67786E+03
  1.19575E+04 -1.16879E+03  1.01158E+04  3.83066E+03  1.24768E+03  7.20840E+03 -1.83846E+03  8.51000E+03
 -6.33992E+03  4.72000E+03 -2.74095E+03 -3.25104E+03 -1.53580E+01 -2.67179E+02  5.28007E+03 -7.05869E+02
  2.23070E+03  3.12099E+03 -1.34419E+03  7.28174E+03 -1.59524E+03  3.38300E+03 -7.85043E+03  5.17858E+03
 -5.69558E+03 -3.42949E+03 -4.88070E+02 -1.05716E+04  8.50970E+02 -4.77186E+03  3.67501E+03  2.05420E+03
  1.47855E+03  5.63743E+03  6.29719E+02  3.56848E+03 -6.39718E+03  2.08136E+03 -7.00902E+02  4.84677E+02
 -6.94309E+03 -2.53686E+03  3.02366E+03 -4.11796E+03  5.32363E+03 -2.23806E+03  2.76658E+03 -4.13223E+02
  7.18157E+03  4.41375E+03 -2.01639E+02  9.33515E+03 -5.51691E+03  5.50365E+03 -8.50399E+03  1.26375E+03
 -6.05905E+03 -3.06526E+03  4.05048E+02 -1.42926E+03  4.69018E+03 -4.02267E+03  8.73653E+03 -5.16609E+03
  7.01673E+03  1.85917E+03  9.65514E+02 -3.57084E+03  4.25114E+02  1.51800E+02 -2.35743E+03 -2.91062E+03
  3.63444E+03  5.54491E+03  3.88481E+03  1.89402E+03  4.76064E+02  5.63276E+03  2.30246E+03  5.81477E+03
  3.30923E+02  7.12748E+03 -1.00686E+04  1.42108E+03 -9.86434E+03  3.32497E+03 -7.38937E+03 -1.89963E+03
  2.90785E+02 -4.73608E+03  4.87432E+02 -9.26651E+02  5.26254E+03 -4.66971E+03  1.02780E+03 -5.04627E+03
 -2.80483E+03 -3.07313E+03 -1.56906E+03 -5.35750E+03  6.31406E+03  3.57058E+02  4.40672E+03  3.84234E+02
  5.48598E+03  2.55431E+03  1.27501E+03  4.97311E+03 -4.08334E+03  1.79676E+03 -1.96185E+03  5.57067E+03
 -7.25354E+03 -4.77342E+02 -2.51172E+03 -4.07754E+03 -3.28951E+03 -6.26966E+03 -2.88464E+02 -5.44987E+03
  3.69130E+03 -2.48121E+03  7.87276E+03  3.98835E+01  3.32793E+03  6.60234E+03  1.20303E+03  8.81607E+03
 -2.50942E+02  5.15465E+03 -3.89067E+03  5.90942E+03 -1.05034E+03 -1.17723E+03  2.34643E+03  1.65300E+03
 -6.28293E+02  9.36101E+02 -7.66741E+02  3.95813E+03 -3.72250E+03  3.45879E+02 -2.53972E+03 -2.50618E+03
 -1.68765E+03 -2.75300E+03  6.56124E+03 -1.67274E+03  3.29719E+03 -1.83804E+03  2.87493E+03  6.94964E+02
  7.35434E+03  4.68111E+03  2.31531E+03  9.12028E+03  3.77748E+02  8.50159E+03 -3.07860E+03  1.52474E+03
 -6.85439E+03  4.67056E+03 -3.04795E+03 -2.53859E+03 -3.43899E+03 -2.88590E+03  6.42018E+03  6.43712E+02
  7.20081E+02 -9.04394E+02 -1.38427E+03 -5.19236E+01 -3.17833E+03 -8.75228E+02 -1.47610E+02  4.08357E+03
  3.08860E+03  2.01817E+03  2.24665E+02  9.16813E+02 -2.26820E+03 -3.87752E+03  1.30167E+03  5.61158E+02
 -5.15918E+03 -1.03580E+02 -1.38474E+03  3.43088E+03 -7.21051E+03 -2.02298E+03 -3.54260E+03 -1.39237E+03
 -3.39154E+03 -1.23009E+03  2.56279E+03 -8.21286E+03  7.25988E+02 -5.74987E+02 -3.98572E+02 -2.08612E+03
  3.59860E+03  4.86076E+03 -1.93129E+03  7.29699E+03 -3.30708E+02 -2.70395E+01 -2.16440E+03  4.58638E+03
 -2.63707E+03 -2.78200E+03 -2.91423E+03 -2.91917E+03 -9.62188E+02 -1.40458E+03  5.12229E+02  9.27106E+02
  9.76468E+02  3.45239E+03 -1.04800E+03  2.43801E+03  6.35196E+02  3.21786E+03  2.59073E+03  1.90011E+03
 -1.39260E+03  4.06512E+02 -2.50766E+03  4.76485E+03 -5.09416E+03  1.77640E+03 -4.01138E+03  3.24996E+03
 -3.17754E+02  1.88491E+03 -4.72240E+02 -2.33969E+03 -8.30257E+01 -7.03651E+02 -8.54418E+02 -2.07100E+03
 -8.64240E+02 -5.37447E+03 -9.00498E+02  2.51416E+03 -5.05904E+03 -2.38919E+03 -6.26244E+03 -1.18365E+03
  4.87390E+02  6.63931E+02 -3.79196E+03 -1.52056E+03 -2.16070E+03  2.27032E+03  1.88951E+03 -1.69792E+02
  5.18485E+03  2.56882E+03 -1.34606E+03  3.83000E+03  3.60483E+02  7.19573E+02 -3.01393E+03  2.00587E+03
  2.47704E+03  1.27368E+03 -2.03083E+03  1.77217E+03  1.56839E+03 -1.05553E+03 -3.65911E+03  1.71918E+03
  1.93730E+03  6.53488E+02  6.83691E+03 -2.50489E+03  2.67324E+02  6.64136E+02 -3.20408E+03  5.29638E+03
 -4.86639E+03 -1.15023E+03  1.26397E+03  1.06172E+02 -1.78254E+03 -3.00330E+03 -2.26794E+03 -5.95484E+02
  2.64882E+03 -1.75815E+03 -2.18675E+03 -4.65909E+02 -1.98483E+02  4.81927E+03  1.86455E+03  3.65504E+03
  2.10068E+03  2.78851E+03  1.99787E+03 -2.18025E+03  1.90056E+03  2.44050E+03 -2.31145E+03  1.47836E+03
 -5.77524E+02  5.93608E+03 -9.78093E+02 -1.33633E+03  4.08277E+01  4.49342E+03  1.12701E+02  3.19579E+02
 -4.65695E+01 -1.73253E+03  2.06641E+03 -4.67457E+03 -4.20275E+02 -1.51430E+03  5.23467E+03 -2.47524E+03
  7.52271E+02  2.11479E+03  2.53850E+03 -1.52946E+02  3.30112E+03 -4.85972E+03 -3.77490E+02  5.05182E+03
  1.10762E+02  3.84863E+03 -1.17742E+03 -6.77565E+02 -2.42528E+03 -6.36844E+03 -5.53224E+03  1.51146E+03
  1.79528E+03  8.33314E+01  3.26724E+02  3.82115E+03 -3.34321E+03 -3.28701E+03 -2.00499E+03  1.43438E+03
  3.23859E+03  2.04441E+03  4.91472E+03 -6.66032E+03  6.49566E+02 -1.47080E+03 -2.06191E+03 -1.32924E+03
  7.62538E+02  9.10476E+02 -6.11754E+03  9.94356E+02 -5.36892E+03  2.41981E+03  3.23410E+03 -1.35054E+02
 -2.00897E+03  2.79217E+03  8.43027E+02  6.05530E+02  3.00908E+02  2.77746E+03  4.63660E+03  1.90355E+01
  3.33418E+03  2.88674E+03  3.37214E+03  4.52245E+03  3.15342E+03  1.91207E+03 -7.52579E+03  1.87699E+03
 -1.38627E+03 -3.96109E+03  7.37817E+02  2.22143E+02 -1.24103E+03  4.58411E+03  2.56056E+03  1.17051E+03
 -1.99999E+03 -3.38431E+03  1.00207E+03  3.74340E+03  1.06583E+03 -6.99253E+02 -1.87827E+02  2.01789E+03
  3.82229E+03 -2.98481E+03  4.76188E+03 -1.97229E+03  1.45401E+03  2.02452E+03  1.70802E+03  3.85011E+03
 -2.96254E+03 -8.77028E+02 -1.36622E+02 -2.20992E+03 -4.45190E+02 -7.01761E+02 -5.49175E+03 -1.45551E+03
 -1.47380E+03  1.32907E+03 -5.10362E+02 -1.27108E+02 -1.40436E+03 -8.07920E+02 -3.02511E+03 -5.86523E+02
 -9.92916E+02  1.44503E+03 -1.89156E+03 -7.07979E+02  1.60028E+03  1.97939E+03 -6.10715E+03  2.74561E+03
 -1.45213E+03 -1.84241E+03 -2.76701E+03 -1.88264E+03  2.77449E+03 -4.68404E+02 -2.62405E+03  1.36898E+02
