 $NMID ID='MM_0lb_SNR50_9hz_g50_78.RAW', FMTDAT='(8E13.5)'
 TRAMP=1., VOLUME=1. $END
  3.10426E+05  1.18449E+03  3.34079E+05  2.48942E+05  8.20660E+04  3.35498E+05 -1.35084E+05  2.60876E+05
 -1.88160E+05  9.20926E+04 -1.12050E+05 -3.27737E+04 -9.56652E+03 -4.74540E+04  5.18999E+04  4.02711E+03
  3.87690E+04  5.54434E+04 -8.52012E+03  6.82109E+04 -6.51579E+04  6.34955E+04 -9.28675E+04  3.27403E+04
 -7.96289E+04 -8.88704E+03 -5.68710E+04 -4.54140E+04 -9.85525E+03 -7.28061E+04  2.60060E+04 -4.47697E+04
  3.74715E+04  3.54955E+03  1.80993E+04  4.70539E+04 -3.71632E+04  4.59106E+04 -6.75291E+04  6.39044E+02
 -5.69523E+04 -6.43150E+04 -1.30533E+04 -7.75069E+04  3.18552E+04 -6.02397E+04  5.00675E+04 -1.81256E+04
  4.94805E+04  1.41624E+04  3.26122E+04  1.95292E+04  1.28127E+04  3.20241E+04 -7.95345E+03  3.08350E+04
 -2.41875E+04  9.31627E+03 -1.34310E+04 -7.16712E+03  6.73453E+03 -1.08887E+04  2.20257E+04  1.22334E+04
  3.26940E+03  3.82969E+04 -3.56084E+04  3.65897E+04 -6.68800E+04  4.01628E+03 -5.67132E+04 -4.13363E+04
 -1.18344E+04 -6.33803E+04  4.22963E+04 -4.99055E+04  5.86928E+04 -5.28376E+02  3.47085E+04  3.15307E+04
 -6.89782E+03  4.13422E+04 -3.13820E+04  2.25444E+04 -3.81790E+04 -3.18342E+03 -2.00856E+04 -1.72462E+04
 -8.20216E+03 -1.74313E+04 -6.04888E+03 -2.11880E+04  5.04992E+03 -2.63068E+04  1.97189E+04 -9.80622E+03
  1.04080E+04  8.81183E+03 -3.71539E+03  1.15214E+04 -2.61461E+04 -7.00798E+03 -1.34929E+04 -3.86195E+04
  2.40391E+04 -5.13328E+04  5.03797E+04 -2.19228E+04  4.77599E+04  1.54566E+04  1.30592E+04  5.12230E+04
 -1.49014E+04  3.10781E+04 -2.68841E+04  2.10862E+03 -1.38371E+04 -2.99576E+04  2.27036E+04 -3.75401E+04
  4.12979E+04 -1.11254E+04  3.57970E+04  2.36039E+04  2.04857E+04  5.09464E+04 -4.36697E+03  5.99675E+04
 -3.27793E+04  4.02053E+04 -5.11902E+04  1.16307E+04 -4.48474E+04 -1.82154E+04 -2.68181E+04 -3.80997E+04
  9.68531E+03 -3.85851E+04  3.40768E+04 -1.31542E+04  3.48603E+04  2.02394E+04  1.70500E+03  1.96263E+04
 -1.18968E+04  1.17886E+04 -1.29342E+04 -4.04283E+03 -5.56195E+02 -1.45536E+04  2.12837E+04  1.04839E+03
  1.26805E+04  2.36644E+04 -4.68114E+03  2.35606E+04 -1.94205E+04  1.07909E+04 -2.68965E+04 -4.38226E+03
 -2.27655E+04 -1.99864E+04 -8.74641E+03 -2.72620E+04  5.59349E+03 -2.17681E+04  2.74253E+04 -2.41552E+04
  2.77161E+04 -1.56133E+04  3.74605E+04  6.21657E+03  2.85680E+04  2.21027E+04  1.92884E+03  3.48599E+04
 -1.65235E+04  3.04358E+04 -2.78368E+04  1.11577E+04 -1.81842E+04 -6.72620E+03 -5.00913E+03 -1.45171E+04
  9.90142E+02 -1.14768E+03 -7.64141E+03  1.37466E+04 -2.24427E+04  7.57377E+03 -2.34658E+04 -9.56638E+03
 -1.19243E+04 -2.44010E+04  5.40131E+03 -2.20927E+04  2.28332E+04 -1.62201E+04  1.96630E+04 -1.63123E+02
  2.31919E+04  2.00439E+04  5.59633E+03  1.91744E+04 -1.61532E+04  1.45446E+04 -2.35268E+04 -6.29370E+03
 -1.96124E+04 -2.26191E+04 -4.44545E+01 -2.50699E+04  1.59774E+04 -2.35333E+04  2.06494E+04 -7.37831E+03
  2.36769E+04  2.08994E+03  1.64523E+04  2.64675E+02  4.76113E+03  3.00347E+02  1.60824E+04 -2.42873E+03
  2.07641E+04  2.02601E+03  2.72125E+04  1.62938E+04  1.71216E+04  3.59843E+04 -8.02410E+03  4.44902E+04
 -2.43704E+04  4.23764E+04 -3.92876E+04  1.28131E+04 -4.01438E+04 -9.22019E+03 -3.29759E+04 -2.19531E+04
 -1.72365E+04 -3.83288E+04  1.00051E+04 -3.04861E+04  2.81870E+04 -1.78607E+04  1.59351E+04  9.49848E+03
  7.95752E+03  1.39056E+04 -1.35030E+04  1.35554E+04 -1.56321E+04  5.13649E+03 -1.43582E+04 -1.12813E+04
 -5.87909E+02 -1.69953E+04  1.47198E+04 -1.60832E+04  1.48197E+04 -3.30171E+03  5.33688E+03  6.23740E+03
 -3.40444E+03  1.99264E+03 -1.05755E+04 -9.14354E+03 -2.44595E+03 -1.75548E+04  1.02328E+04 -2.17110E+04
  2.69822E+04 -9.71258E+03  2.66627E+04 -1.64621E+03  2.65318E+04  2.00233E+04  1.17808E+04  2.72739E+04
 -1.89884E+03  3.29726E+04 -2.33060E+04  1.81094E+04 -1.85708E+04  2.22582E+03 -1.97167E+04 -5.61203E+03
 -1.04426E+04 -4.81338E+02  3.44390E+03  7.16737E+03 -3.21769E+03  3.95487E+03 -1.22250E+04  1.22043E+04
 -7.01814E+03 -6.38668E+03 -1.59276E+04 -1.41017E+04 -6.05404E+03 -1.70267E+04  5.21756E+02 -1.59817E+04
  1.39033E+04 -5.70135E+03  4.93752E+03  2.31338E+03  1.97312E+03  9.05929E+01 -3.94716E+03  1.09060E+03
 -6.58415E+03 -1.32217E+04  6.40195E+02 -1.77363E+04  1.33476E+04 -8.17108E+03  1.78584E+04 -9.08879E+03
  2.83043E+04  8.74899E+01  2.19390E+04  1.36771E+04  4.08220E+03  2.00364E+04 -7.79562E+03  1.37642E+04
 -1.07511E+04  2.89142E+03 -6.93788E+03  2.05341E+03  3.44931E+03 -6.80198E+03  5.25140E+03 -3.35361E+02
  1.14011E+04  8.68868E+03  4.21869E+03  9.76844E+03 -1.06994E+04  1.30131E+04 -1.43786E+04  7.33621E+02
 -1.76142E+04 -6.84246E+03 -2.79981E+02 -1.19280E+04  3.93613E+03 -3.38051E+03  1.72209E+04 -1.02056E+03
  4.93437E+03  5.87070E+03 -3.21450E+03  1.21529E+04 -1.31657E+04  3.96143E+03 -1.62498E+04  5.40760E+02
 -7.95641E+03 -8.36003E+03  1.94641E+03 -2.53219E+04  1.69817E+04 -1.01342E+04  2.40348E+04  1.46900E+03
  1.12506E+04  1.32390E+04 -1.32678E+03  1.55584E+04 -1.03318E+04  2.68451E+03 -7.07009E+03 -2.37977E+03
 -7.89333E+03 -6.70863E+03 -2.06734E+03 -1.63822E+04  5.59717E+03 -9.43377E+03  5.65821E+03 -1.57372E+03
  1.49001E+04  4.48191E+03 -2.71038E+03  1.55238E+02  1.17632E+03 -4.01045E+02  1.32769E+03 -7.40922E+03
  5.88675E+03 -3.29388E+03  1.34606E+04  1.13785E+03  1.35947E+04  1.11739E+04  1.32738E+04  1.60316E+04
 -9.19131E+03  2.78659E+04 -1.29434E+04  1.46415E+04 -2.88817E+04  8.49032E+02 -2.16052E+04 -7.71121E+03
 -1.20267E+04 -1.78110E+04  6.38774E+01 -1.68855E+04  1.02453E+04 -7.67861E+03  8.00122E+03  1.14753E+03
  1.51307E+03 -8.16435E+03 -1.19955E+03 -2.39670E+03  3.23034E+03  2.08781E+03  2.05202E+03 -1.74163E+03
  1.40358E+04 -1.06806E+03  4.53050E+03  7.57458E+03  2.14293E+03  1.17918E+04 -1.55170E+04  5.35233E+03
 -1.44094E+04  8.93656E+02 -4.18301E+03 -8.86426E+03 -6.46724E+03 -1.44006E+04  1.23707E+04 -2.23428E+04
  1.47398E+04 -1.24810E+04  1.96327E+04  4.18909E+03  1.73899E+04  8.31293E+03  1.68060E+03  1.65043E+04
 -6.84564E+03  9.03600E+03 -1.51184E+04  1.46613E+03 -8.67386E+03 -5.90039E+03 -2.52036E+03 -3.98685E+03
 -1.35999E+03  7.24449E+03 -2.59114E+03  3.08074E+03 -9.44600E+03  5.62662E+03 -2.92858E+03  2.00712E+02
 -6.25717E+03 -9.68962E+03 -8.29990E+02 -1.68079E+04  9.64694E+03 -9.54360E+03  2.07272E+04 -1.08950E+04
  1.71077E+04  1.12434E+04  9.89228E+03  8.97304E+03 -1.55563E+03  1.69817E+04 -1.13864E+04  6.99105E+03
 -1.29500E+04  1.16918E+03 -1.48660E+04 -6.00655E+03 -2.14972E+03 -1.25345E+04  1.07510E+04 -8.22309E+03
  1.17466E+04 -7.02197E+03  9.02835E+03  1.64956E+03 -1.55726E+03  4.27967E+03 -8.82858E+02  4.94483E+03
  7.16253E+03  4.38154E+03  3.59961E+03  8.37352E+03  5.51713E+03  6.20210E+03  5.33977E+03  1.20966E+04
 -5.46372E+02  1.55139E+04 -1.00437E+04  7.97684E+03 -1.13159E+04  2.04973E+03 -1.37003E+04 -4.96531E+03
 -7.79033E+03 -8.18671E+03 -4.40281E+03 -1.82549E+04  1.25691E+04 -1.02177E+04  8.83175E+03 -1.28170E+03
  6.21065E+03  6.91990E+03  3.29070E+03  8.62669E+03 -9.94697E+03  2.38680E+03 -8.33235E+03 -7.64173E+03
 -1.77174E+03 -5.37664E+03  3.95065E+03 -4.74296E+03  7.01268E+03 -3.36336E+03  7.65578E+03  5.40875E+03
  6.20109E+03  3.11911E+02 -2.33549E+03  8.68441E+02 -3.10610E+03 -8.75759E+02  5.35439E+03  1.03808E+01
  3.74283E+02 -3.47400E+03  1.52831E+03  9.34047E+03  4.82567E+03  6.57322E+03 -3.17911E+03  8.30704E+03
 -1.03496E+04  3.99870E+03 -4.90598E+03  3.25335E+03 -9.84163E+03 -4.85451E+03 -1.11266E+03 -8.73732E+03
 -6.60038E+02  9.35533E+02  4.63479E+03 -4.04947E+03  2.34206E+03 -1.60431E+03 -7.88297E+01  6.72489E+03
 -4.46969E+03 -6.00780E+02 -5.61820E+03 -2.07326E+03 -3.79928E+03 -5.41361E+03 -2.23179E+03 -1.45194E+04
  1.43663E+03 -3.20297E+03  9.55270E+03 -5.70512E+03  8.55634E+03  2.55974E+03  1.30121E+03  8.70477E+03
 -2.94028E+03 -1.65318E+02  2.78510E+03 -9.72088E+02 -2.38207E+03 -5.86062E+03  4.19783E+03 -9.04973E+03
  9.08829E+03 -2.83016E+03  9.38975E+03  1.40753E+03  8.96440E+03  1.02635E+04 -2.52646E+03  1.13512E+04
 -1.16589E+04  5.39219E+03 -9.72989E+03  1.16086E+03 -5.49100E+03 -6.26916E+03  3.11498E+03 -5.70395E+03
  6.56460E+03 -1.85520E+02  3.86939E+03  2.54278E+03 -2.91222E+03 -2.58091E+03 -4.67243E+03  7.89039E+03
 -1.97829E+03 -7.33310E+02  1.03848E+03  6.16682E+03 -2.20297E+03  2.70565E+03 -4.76176E+03 -3.63916E+03
  2.53661E+03  5.27082E+03 -7.91977E+03  3.44375E+03 -1.17303E+04 -8.93514E+02 -1.12890E+04 -1.23916E+04
 -1.03187E+04 -1.15536E+04 -1.25623E+03 -1.53836E+04  1.18428E+04 -1.32539E+04  1.05566E+04 -7.44132E+03
  1.11160E+04 -3.21829E+03  1.06347E+04  1.32477E+04 -3.61760E+01  7.19033E+03 -6.29833E+03  1.03246E+04
 -3.86478E+03  8.06693E+03 -7.60489E+03 -6.63860E+03 -4.70518E+03 -2.63757E+03  5.13144E+02 -3.96833E+03
 -6.59415E+03 -1.63017E+01  3.83583E+02  4.00369E+02 -1.50794E+03  4.57325E+02  9.19535E+02 -8.13857E+03
 -9.76207E+01 -6.47959E+03  9.69859E+03  3.35925E+03  5.47879E+03  7.45062E+03  6.02350E+03  7.02232E+03
 -6.48629E+03  9.32361E+03 -1.48439E+04  5.52928E+03 -1.52948E+04  1.54095E+02 -1.09166E+04 -1.02031E+04
 -6.50508E+03 -1.26185E+04 -2.58666E+02 -1.56215E+04  2.09145E+03 -9.78361E+03  8.29999E+03  2.74890E+03
 -7.54688E+02 -1.39075E+02 -7.11715E+03 -3.88472E+02 -2.71052E+02 -2.08038E+03 -3.58302E+03  1.09635E+03
  5.91469E+03 -7.30028E+02  3.15574E+03 -4.71459E+03  9.09332E+03  2.28864E+03 -8.33414E+02  6.04776E+03
  1.25797E+03  8.93175E+02 -4.14753E+03 -1.79066E+03 -8.75255E+03 -8.30877E+03 -3.81483E+03 -3.38279E+03
  4.20020E+03 -4.21169E+03  6.45379E+03 -6.31441E+03  1.07729E+04  8.64111E+03  5.86427E+03  6.30792E+03
  1.32459E+03  3.99886E+03 -7.28298E+03  7.08163E+03 -4.78418E+03  2.80016E+03 -5.44305E+03 -3.31576E+03
 -3.97515E+03  9.87794E+03 -1.39423E+03 -1.65318E+03 -3.76465E+03  3.25224E+02  3.84517E+03  4.53454E+03
 -1.44455E+03 -9.18959E+03 -1.87941E+03 -5.23729E+03  4.80791E+03 -7.83838E+03  6.93116E+03 -1.73150E+03
  5.11338E+03  1.75018E+03  3.20765E+03  1.02419E+04 -8.89294E+01  5.71799E+03 -7.19601E+03  9.64657E+03
