 $NMID ID='MM_0lb_SNR50_15hz_g60_33.RAW', FMTDAT='(8E13.5)'
 TRAMP=1., VOLUME=1. $END
  3.09931E+05  2.21852E+02  3.40171E+05  2.45946E+05  7.77836E+04  3.36351E+05 -1.33144E+05  2.51298E+05
 -1.93929E+05  8.36400E+04 -1.10020E+05 -2.91771E+04  4.94174E+03 -5.11489E+04  5.17179E+04 -1.23822E+03
  3.94248E+04  5.79467E+04 -1.49517E+04  7.39598E+04 -5.90479E+04  5.69446E+04 -8.87473E+04  3.25644E+04
 -8.11423E+04 -1.01086E+04 -5.61044E+04 -4.90011E+04 -1.41957E+04 -6.72791E+04  2.88341E+04 -4.37878E+04
  4.41254E+04  6.55960E+03  1.81496E+04  5.19888E+04 -3.79400E+04  4.84767E+04 -6.23926E+04  1.27220E+03
 -4.71405E+04 -5.82183E+04 -8.08037E+03 -7.70297E+04  3.40149E+04 -5.45191E+04  4.86183E+04 -1.34774E+04
  4.43649E+04  1.27142E+04  3.37021E+04  2.46274E+04  1.68102E+04  2.36555E+04 -5.32106E+03  2.38781E+04
 -2.14800E+04  1.41533E+04 -1.30358E+04 -6.09512E+03  8.35069E+03 -7.59204E+03  2.12731E+04  1.46926E+04
  8.20340E+03  3.18175E+04 -3.29501E+04  3.95693E+04 -6.93943E+04  2.40463E+03 -5.94328E+04 -4.11460E+04
 -8.45158E+03 -6.58382E+04  4.03946E+04 -4.65978E+04  6.00567E+04  6.01132E+02  3.13246E+04  3.36351E+04
 -6.69200E+03  3.61457E+04 -3.49638E+04  2.21223E+04 -3.19924E+04 -4.48753E+02 -2.01256E+04 -1.27433E+04
 -1.01202E+04 -1.27041E+04 -2.88907E+03 -1.97854E+04  5.18035E+03 -2.45742E+04  1.31445E+04 -1.64183E+04
  1.35011E+04  9.94413E+03 -9.51725E+03  1.13696E+04 -2.28438E+04 -6.65754E+03 -9.47688E+03 -3.41327E+04
  2.05480E+04 -4.01030E+04  4.60727E+04 -1.92502E+04  4.16981E+04  2.18359E+04  1.46469E+04  4.56018E+04
 -1.27113E+04  2.93408E+04 -1.95848E+04  1.56227E+03 -1.04987E+04 -2.78634E+04  2.14600E+04 -3.26209E+04
  4.13025E+04 -1.18976E+04  3.79300E+04  2.23390E+04  1.98947E+04  4.40078E+04 -7.17416E+03  5.14369E+04
 -3.35886E+04  3.26486E+04 -4.62837E+04  3.20397E+03 -4.66173E+04 -1.41731E+04 -2.51487E+04 -3.77711E+04
  7.13361E+03 -4.06361E+04  3.40786E+04 -1.53244E+04  2.73872E+04  9.82664E+03  4.67292E+02  1.56942E+04
 -1.69934E+04  1.37244E+04 -1.03621E+04 -9.67277E+03  7.42588E+03 -1.18410E+04  2.03706E+04  4.74490E+03
  1.30633E+04  1.99602E+04 -7.12953E+03  2.20372E+04 -2.39327E+04  1.28281E+04 -3.20130E+04 -5.43903E+03
 -1.82946E+04 -1.75732E+04 -6.26603E+03 -2.16641E+04 -2.21256E+03 -2.17156E+04  1.63176E+04 -2.02650E+04
  3.27581E+04 -1.56932E+04  3.37098E+04  7.99717E+03  2.06116E+04  2.00897E+04  2.35111E+03  3.54285E+04
 -1.67389E+04  2.91826E+04 -2.80327E+04  1.13315E+04 -2.00590E+04 -1.14024E+04 -1.64326E+03 -1.73067E+04
  5.40034E+03 -5.39204E+03 -2.60810E+03  7.54441E+03 -1.93877E+04  5.42277E+03 -1.30085E+04 -3.87526E+03
 -7.80583E+03 -1.94496E+04  4.09807E+03 -2.96457E+04  9.54126E+03 -1.64168E+04  2.07627E+04 -3.32003E+03
  1.11055E+04  1.27660E+04 -5.79236E+03  2.14338E+04 -1.53889E+04  1.38253E+04 -1.67721E+04 -2.59694E+02
 -1.03654E+04 -1.96690E+04  5.06915E+02 -2.05733E+04  1.35305E+04 -1.80014E+04  2.26278E+04 -1.31459E+04
  2.24773E+04  7.25618E+02  9.00826E+03 -2.73745E+01  6.06451E+03  1.82497E+02  9.32017E+03 -1.63377E+03
  1.38094E+04  2.47490E+03  1.85982E+04  1.57335E+04  1.54305E+04  2.80281E+04 -3.36807E+03  3.57576E+04
 -2.25039E+04  2.85032E+04 -3.23490E+04  1.42003E+04 -2.98369E+04  2.44301E+02 -3.21722E+04 -2.07786E+04
 -1.64396E+04 -3.05092E+04  8.31638E+03 -2.65820E+04  2.54492E+04 -1.22247E+04  2.49653E+04  7.72092E+03
  5.59759E+03  9.52558E+03 -9.89025E+03  1.12169E+04 -1.87741E+04  2.81455E+03 -1.09910E+04 -8.45256E+03
 -3.85055E+02 -1.81858E+04  6.20899E+03 -1.15469E+04  5.88785E+03 -1.79046E+03  4.31401E+03  5.29776E+03
 -7.67262E+03  2.22054E+03 -4.87072E+03 -5.03223E+03 -4.21498E+03 -1.68540E+04  1.06368E+04 -1.10279E+04
  1.84893E+04 -9.95962E+03  1.52776E+04  1.46628E+03  1.31487E+04  9.82910E+03  5.46885E+03  2.83176E+04
 -2.46937E+03  2.16852E+04 -1.23172E+04  1.33233E+04 -1.85731E+04  2.68497E+03 -1.07392E+04 -5.41041E+03
 -4.19932E+03 -4.72551E+03 -4.73565E+02  9.49156E+02 -8.58538E+02  4.26860E+03 -7.84215E+03  2.05017E+03
 -9.43283E+03  6.30040E+01 -1.02256E+04 -8.98453E+03 -4.34346E+03 -1.56333E+04  9.70898E+02 -1.24296E+04
  1.00733E+04 -2.82956E+03  5.30451E+03  4.51532E+03  4.80271E+03  2.76155E+02 -2.13508E+03  9.33168E+02
 -4.39843E+03 -7.80486E+03  9.52157E+02 -1.06886E+04  6.86408E+03 -1.05367E+04  6.46408E+03 -3.36622E+03
  1.27455E+04  5.36874E+03  1.35880E+04  5.85973E+03  3.62818E+03  1.28837E+04 -8.05632E+03  5.01330E+03
 -1.36994E+04  5.76724E+03 -8.49839E+03 -3.49762E+03  3.69317E+02 -2.28603E+03  9.35032E+03 -5.77824E+02
  5.13298E+03  4.02957E+03  2.55703E+03  9.29890E+03 -1.06580E+04  1.54521E+04 -1.10052E+04 -2.79141E+03
 -9.88691E+03 -6.45318E+03  2.02102E+03 -1.52677E+04  5.20894E+03 -2.54703E+03  1.26044E+03  3.24128E+03
  2.48980E+03  7.36018E+03 -1.22106E+04  8.43492E+03 -7.34025E+03  2.36513E+03 -5.20296E+03 -8.84784E+02
 -2.26015E+03 -1.21385E+04  1.21505E+03 -1.08708E+04  1.23151E+04 -1.06395E+04  8.65039E+03  2.04621E+03
  8.55207E+03  2.23157E+03  1.84831E+03  1.38687E+04 -7.02591E+03  4.15697E+03 -7.74739E+03 -8.77725E+03
 -6.49319E+03 -7.07033E+03 -2.48316E+03 -5.83566E+03  4.76325E+03 -8.58593E+03  4.26583E+03 -6.80092E+03
  3.98224E+03  2.63979E+03 -1.46052E+03 -1.81283E+03  2.06318E+03 -2.87999E+03 -4.92346E+02 -5.00200E+03
  3.45105E+03  3.96799E+03  1.43929E+04  1.79976E+03  1.10183E+04  9.26670E+03  8.09878E+03  1.28551E+04
 -2.09069E+03  1.29786E+04 -9.79871E+03  1.16782E+04 -1.23958E+04  8.39917E+02 -8.80398E+03 -7.49304E+03
 -2.74363E+03 -1.23662E+04 -2.78957E+03 -6.20315E+03  8.20142E+03 -2.02757E+03  4.54748E+03 -5.38293E+03
  3.02444E+03  1.10838E+03  2.33876E+03 -4.37634E+03  8.01297E+03 -4.41824E+03  4.72668E+03  2.70894E+03
  5.72274E+03  1.52721E+03  3.70137E+03  2.09639E+03 -4.43820E+03  6.57745E+03 -2.91397E+03  4.64805E+03
 -5.90441E+03  1.83500E+03 -4.57583E+03  2.19737E+02 -2.42600E+02 -1.13080E+04  4.11954E+03 -8.61182E+03
  8.44428E+03 -5.62425E+03  1.02390E+04  1.59575E+03  9.21157E+03  5.19929E+03  2.17764E+03  5.61955E+03
 -2.60131E+03  1.36192E+04 -9.69559E+03  4.95861E+03 -5.44655E+03 -2.08637E+03 -2.68364E+03 -1.07904E+03
  2.35378E+03  5.41516E+02 -2.36390E+03  3.43512E+03 -7.79996E+03  1.85860E+03 -6.62779E+03 -2.60517E+03
 -1.66266E+03 -1.04375E+04  1.95936E+03 -3.01987E+03  2.36461E+03 -2.76347E+03  6.26967E+03 -2.81243E+03
  8.74037E+03  6.33844E+03  6.40576E+02  5.65775E+03 -3.97155E+03  9.85008E+03 -6.98190E+03  1.93428E+03
 -1.83112E+03 -2.96490E+02 -5.69415E+03 -9.01847E+02  2.09459E+03 -8.11072E+03 -2.24583E+02 -1.84990E+03
  2.67600E+03 -4.44756E+03  1.42824E+03  4.53070E+03  5.86877E+02  1.31015E+03 -2.38747E+02 -2.94298E+03
  4.76149E+01 -6.91173E+02 -9.72789E+02  4.49106E+03  6.59755E+03  2.69780E+03  3.93483E+03  6.02600E+03
 -2.83002E+03  4.46820E+03 -5.19275E+03  5.00191E+03 -2.51337E+03  1.10267E+03 -8.63634E+03 -3.46667E+03
 -1.52490E+03 -1.25420E+04  4.57383E+03 -6.37772E+03  3.56107E+03 -6.24617E+03  4.32394E+03 -3.19185E+03
  6.18487E+03  6.32338E+03  2.75721E+03  2.86227E+03 -5.37323E+03  3.06668E+03 -2.90152E+03 -2.09329E+03
 -2.62356E+03 -6.18764E+03  5.07742E+03 -6.34005E+03  5.48072E+03 -1.97270E+03  7.19391E+03 -4.22812E+03
  1.12133E+04  1.71280E+03  2.80351E+03  3.12402E+03  4.76979E+03 -4.91645E+02  6.22979E+01 -9.21673E+02
 -2.26954E+03 -6.27349E+03  8.79158E+03  8.80733E+02 -7.49987E+02  6.39820E+03 -3.46414E+03  1.06511E+04
  1.58717E+03 -1.96382E+03 -6.44743E+03  6.33944E+03 -9.49288E+03 -2.62161E+03 -2.27704E+02 -4.93421E+03
  1.69077E+03 -4.40278E+03 -2.65546E+03 -3.48478E+03  1.02896E+03 -3.80840E+02 -6.41444E+02  7.69874E+03
 -2.59594E+03 -2.63677E+02 -8.80872E+03  1.84847E+03 -1.64322E+03 -7.83910E+01  3.77226E+03 -2.44108E+03
  4.81787E+02  1.86209E+03  8.21603E+02  9.13129E+02 -1.18182E+02  2.19432E+03 -3.24540E+03  1.49508E+03
  6.24123E+02 -1.18916E+00 -8.35563E+02 -7.83388E+02  7.18818E+02 -3.19132E+03  2.76635E+03 -2.42085E+03
  3.98981E+03  7.37558E+02  5.39765E+03  3.34726E+03  1.80290E+03  4.32382E+03  2.24182E+03  5.38055E+01
 -3.79624E+03  1.82366E+03 -1.72415E+03 -4.80186E+02 -5.01438E+03 -5.95020E+03 -2.15685E+03 -3.21139E+03
 -2.94226E+03  4.92786E+01  1.67159E+03 -1.43989E+03  2.06916E+03 -1.32501E+03 -2.92858E+03 -1.14310E+02
 -6.13467E+03  6.80538E+03 -4.88241E+02  1.49949E+03 -8.14499E+02 -1.35119E+03  2.66526E+03  3.26299E+03
  1.34435E+03 -1.17941E+03 -7.97740E+03  3.24313E+03 -2.53827E+03 -5.15695E+03 -3.29180E+03  4.01401E+03
 -5.23435E+03 -1.64745E+03  4.85489E+03 -3.50974E+03  3.32740E+03 -1.85926E+03  5.23116E+03 -1.62859E+03
  6.81529E+03  4.93964E+02  6.75209E+03  3.43299E+03 -1.87868E+03  2.04038E+03 -1.40228E+03  4.92835E+03
 -1.84304E+03  4.25089E+03 -3.70330E+03 -1.20948E+03  7.95275E+02 -2.35534E+03 -1.01987E+03  1.17802E+03
 -1.14574E+03 -6.44085E+02  1.90683E+03  1.25805E+03  1.79904E+03  5.98365E+01 -2.58159E+03 -4.76971E+03
  4.19467E+03  1.34158E+02  7.92741E+02 -4.93785E+03  4.59829E+03  6.71876E+03 -2.37187E+03 -1.72977E+03
 -2.48891E+02  4.49824E+03 -1.15080E+03  1.61571E+03 -3.96166E+03 -2.14554E+02 -5.08637E+03 -2.67503E+03
 -4.31044E+03 -2.26797E+03 -3.01778E+03 -8.91142E+02 -4.61085E+03 -1.40343E+03 -3.62434E+02  5.11648E+03
  2.41895E+03  5.35584E+03 -4.22602E+03  4.95489E+02 -2.46091E+03  3.74501E+02  2.16987E+03 -2.26490E+03
  7.56410E+03 -1.21331E+03 -4.23849E+03  5.72929E+02 -2.46249E+03  5.45885E+03 -1.25250E+03  7.71321E+03
  6.57579E+02 -9.03945E+02 -5.95312E+02 -2.05305E+03 -3.88809E+03 -5.37606E+03  1.54160E+03 -1.52378E+03
  1.84374E+03  4.80022E+02  2.11897E+03 -3.77965E+03  5.12757E+03  2.83387E+03  3.44526E+03  2.50002E+03
  7.09034E+03  3.39630E+03  2.01734E+03 -2.66675E+03  1.39711E+03  1.57646E+03 -3.23181E+03 -1.43837E+03
 -1.41994E+03 -2.06372E+03 -4.04468E+03 -2.42457E+03 -3.64007E+03 -1.55959E+03 -2.01912E+03  8.56469E+02
 -3.15216E+03 -2.10966E+03 -5.09288E+03  1.51242E+03  4.52263E+03 -3.55051E+03 -3.39350E+03  7.51519E+02
 -5.35517E+02  2.07803E+03 -6.68213E+01  5.15557E+01  1.24787E+03  2.12998E+03 -2.34986E+03 -4.74862E+03
