 $NMID ID='MM_0lb_SNR50_7hz_g40_81.RAW', FMTDAT='(8E13.5)'
 TRAMP=1., VOLUME=1. $END
  3.17049E+05  7.08810E+03  3.34054E+05  2.47537E+05  8.77519E+04  3.40265E+05 -1.35890E+05  2.53258E+05
 -1.86442E+05  8.52785E+04 -1.15030E+05 -3.58640E+04 -3.30079E+03 -6.03888E+04  6.22183E+04 -9.72373E+02
  4.27878E+04  5.43994E+04 -9.00027E+03  8.50974E+04 -5.65878E+04  6.59075E+04 -7.82533E+04  3.11973E+04
 -7.53564E+04 -8.38615E+03 -5.36132E+04 -5.16965E+04 -1.29316E+04 -6.86100E+04  2.23107E+04 -4.28109E+04
  4.72127E+04 -2.54851E+03  1.51749E+04  4.51689E+04 -2.91897E+04  5.47660E+04 -7.76989E+04 -2.98230E+03
 -5.45482E+04 -5.45377E+04 -8.00625E+03 -7.60552E+04  3.76702E+04 -5.47416E+04  5.04764E+04 -1.92966E+04
  5.08944E+04  1.74168E+04  3.15446E+04  3.00793E+04  1.86361E+04  3.77492E+04 -2.01909E+03  2.59552E+04
 -2.50141E+04  1.31425E+04 -1.51366E+04 -2.52890E+02  6.29288E+03 -5.66876E+03  3.08454E+04  5.57807E+03
  8.02450E+03  4.21881E+04 -2.54162E+04  3.70197E+04 -6.54943E+04  6.59880E+03 -6.55340E+04 -4.10632E+04
 -1.45441E+04 -6.59626E+04  5.03116E+04 -4.87280E+04  6.24504E+04 -1.67041E+03  4.41527E+04  3.27320E+04
 -1.26651E+04  4.14954E+04 -2.82767E+04  2.21415E+04 -3.33361E+04 -9.32222E+03 -2.15188E+04 -7.35951E+03
 -6.14021E+03 -1.38999E+04 -1.38952E+03 -1.91823E+04  5.58971E+03 -2.54119E+04  1.19479E+04 -7.20262E+03
  1.21091E+04  5.02498E+03 -9.05535E+03  1.35352E+04 -1.99775E+04 -5.76926E+03 -8.48934E+03 -4.13951E+04
  2.48760E+04 -4.83374E+04  5.23792E+04 -2.31092E+04  4.79831E+04  1.83430E+04  1.37128E+04  5.49428E+04
 -1.56625E+04  3.81155E+04 -2.76847E+04  4.46815E+03 -1.05132E+04 -2.05187E+04  2.48179E+04 -3.98702E+04
  4.55775E+04 -1.22925E+04  3.10105E+04  2.71825E+04  2.01585E+04  5.27071E+04 -1.99673E+04  5.34713E+04
 -3.04710E+04  3.79183E+04 -4.72787E+04  6.84816E+03 -4.94931E+04 -1.76705E+04 -2.62544E+04 -4.24252E+04
  7.04874E+03 -3.64990E+04  3.62787E+04 -2.50314E+04  3.52087E+04  7.54639E+03 -5.44971E+03  2.16552E+04
 -2.14100E+04  9.31518E+03 -1.42341E+04 -2.01350E+03  2.46301E+03 -9.73484E+03  2.62139E+04  5.06753E+03
  1.45762E+04  1.94940E+04 -1.19525E+03  3.25902E+04 -2.22465E+04  1.35135E+04 -3.02294E+04 -7.25676E+03
 -2.06756E+04 -2.10123E+04 -7.24471E+03 -2.39575E+04 -1.89912E+03 -2.38058E+04  2.59601E+04 -2.72667E+04
  3.12078E+04 -1.50307E+04  4.24235E+04  1.12038E+03  2.37971E+04  2.91587E+04  4.92375E+03  4.24418E+04
 -1.62449E+04  3.54669E+04 -2.57716E+04  1.05410E+04 -2.48843E+04 -7.30262E+03 -5.11666E+03 -1.78626E+04
  1.93775E+02  3.86938E+03 -1.24679E+04  1.17050E+04 -1.87708E+04  7.88708E+03 -3.04006E+04 -1.33000E+04
 -7.16305E+03 -2.15337E+04  3.95007E+02 -2.79533E+04  1.50587E+04 -1.68980E+04  2.55130E+04 -3.02045E+03
  1.23845E+04  2.41958E+04  7.50161E+02  2.25526E+04 -2.18310E+04  1.69476E+04 -2.47545E+04 -8.11983E+03
 -1.47497E+04 -2.46190E+04  2.41877E+03 -2.78224E+04  1.05321E+04 -2.39411E+04  2.59731E+04 -1.12392E+04
  1.86646E+04  6.74532E+03  1.58593E+04  1.10882E+04  8.09388E+03  6.11447E+03  6.67769E+03 -2.79059E+03
  2.66676E+04  5.22429E+03  3.51866E+04  1.61942E+04  1.68957E+04  4.10205E+04  4.26309E+03  4.77659E+04
 -3.04609E+04  3.76064E+04 -4.69708E+04  1.97472E+04 -4.86279E+04 -1.33072E+02 -3.72029E+04 -2.96577E+04
 -1.56525E+04 -3.69813E+04  1.16458E+04 -3.65897E+04  2.79206E+04 -1.66861E+04  2.19704E+04  7.49733E+03
  8.00726E+03  2.11706E+04 -8.39910E+03  1.73268E+04 -2.18959E+04 -1.39831E+02 -1.95583E+04 -9.75708E+03
  1.42368E+03 -2.20961E+04  5.97946E+03 -1.85632E+04  1.39582E+04 -7.66884E+03  7.89052E+03  1.11459E+04
 -1.05936E+04  1.21600E+03 -1.02483E+04  6.48554E+03 -3.15360E+03 -1.78174E+04  2.13008E+04 -1.53246E+04
  2.34315E+04 -9.13404E+03  3.08638E+04  2.84409E+03  2.19429E+04  2.04589E+04  1.63056E+04  3.17163E+04
 -9.04633E+03  3.20229E+04 -2.15629E+04  2.18790E+04 -2.88719E+04  7.90164E+03 -1.43231E+04 -2.58316E+03
 -8.73329E+03 -7.30977E+03  4.86976E+03 -3.83748E+03 -4.11915E+03  5.79490E+02 -3.28623E+03  5.19914E+03
 -1.45959E+04  1.20994E+03 -1.53659E+04 -1.14050E+04 -5.54796E+03 -2.12710E+04  1.14181E+04 -1.47510E+04
  1.36653E+04 -8.57339E+03  9.15191E+03  1.84815E+03 -7.00840E+02  5.23155E+03 -1.14049E+04  3.29668E+03
 -1.17278E+04 -1.03015E+04  3.23428E+03 -1.47823E+04  1.03967E+04 -1.83845E+04  2.13372E+04 -1.22822E+04
  2.49888E+04  1.15513E+03  2.24374E+04  2.00866E+04  1.60630E+03  2.00111E+04 -1.43281E+04  1.79616E+04
 -1.08992E+04  6.88094E+02 -4.45745E+03 -7.58347E+03  1.21177E+03  4.76573E+03  7.44281E+03 -5.73275E+02
  1.06590E+04  1.16362E+04  5.25792E+02  1.30526E+04 -5.26714E+03  1.58375E+04 -1.46509E+04  8.31068E+03
 -8.55918E+03 -8.26653E+02 -9.88473E+02 -1.46814E+04  1.20392E+04 -3.55090E+03  1.03795E+04  2.68115E+03
  5.08893E+03  1.37757E+04 -5.82494E+03  1.83363E+04 -1.40509E+04 -1.40142E+03 -7.00925E+03 -3.59460E+03
 -7.89647E+03 -1.42668E+04 -6.78544E+03 -2.20200E+04  1.46923E+04 -8.67289E+03  1.98335E+04  1.70130E+03
  1.11971E+04  1.18899E+04 -5.38815E+03  2.34076E+04 -1.23026E+04  7.02113E+03 -1.93606E+04 -3.61336E+03
 -1.49191E+04 -1.24330E+04 -2.42439E+03 -1.45616E+04  1.61639E+03 -1.28017E+04  1.12919E+04 -3.66438E+03
  1.14522E+04  3.88818E+03 -3.39192E+03 -2.11347E+03  5.62479E+02 -4.78355E+02  8.22064E+03 -5.73233E+03
  4.99701E+03 -8.79698E+03  1.63132E+04  4.59440E+03  1.87812E+04  2.02091E+04  1.46335E+04  3.03818E+04
 -4.25120E+03  2.87853E+04 -2.83764E+04  2.34477E+04 -2.93389E+04  2.81657E+03 -2.36368E+04 -1.58811E+04
 -1.59580E+04 -1.09031E+04 -4.28173E+03 -1.24599E+04  3.11587E+03 -1.85986E+04  6.52448E+03 -9.89897E+03
  1.06371E+04 -5.78920E+03  2.47699E+03 -8.97481E+02  1.07520E+04 -5.64615E+03  6.63865E+03  1.47556E+02
  1.24078E+04  4.51787E+03  9.53562E+03  1.70770E+04 -2.65687E+03  1.12679E+04 -1.63962E+04  5.46849E+03
 -1.56072E+04 -4.02836E+02 -9.91065E+03 -5.28370E+03 -7.36349E+03 -1.58998E+04  7.46500E+03 -1.43212E+04
  2.09700E+04 -6.07217E+03  1.92909E+04  2.80628E+03  1.82929E+04  1.61355E+04  7.49747E+03  2.58839E+04
 -7.17109E+03  2.13096E+04 -1.42154E+04  9.25078E+03 -1.04404E+04  2.55509E+03 -3.27825E+03 -5.25693E+02
 -1.02024E+03 -7.71613E+02 -1.03129E+04  6.98607E+03 -3.25412E+03  1.51585E+03 -1.18511E+04 -2.07804E+03
 -2.18240E+04 -1.61669E+04  1.20862E+03 -1.66874E+04  1.14558E+04 -1.84325E+04  2.57004E+04 -8.30868E+03
  9.74275E+03  8.67919E+03  2.52644E+03  2.25518E+04 -2.95045E+03  1.19041E+04 -1.26591E+04  1.67799E+04
 -1.37789E+04  9.04511E+03 -1.49981E+04 -1.10321E+04 -5.77723E+03 -1.47494E+04  3.95212E+03 -1.60086E+04
  9.55446E+03 -1.56589E+02  8.04310E+03  6.82654E+03  3.84015E+02  6.87909E+03  5.79057E+03 -1.50953E+02
  5.93908E+03 -2.72212E+03  1.49138E+04 -2.57288E+03  8.83338E+03  4.52534E+03  5.54160E+03  8.68781E+03
 -5.31770E+02  7.29145E+03 -9.80852E+03  1.87644E+04 -2.00037E+04  6.61132E+03 -1.41542E+04  2.39743E+03
 -9.53053E+03 -1.45862E+04  6.69683E+03 -1.03211E+04  1.60641E+04 -6.14650E+03  1.28348E+04  3.37000E+03
  1.67423E+04  4.21271E+03  2.91568E+03  1.01745E+04 -4.97448E+03  5.59159E+03 -1.94064E+02 -9.92291E+02
 -1.06972E+04 -9.48091E+03 -1.00602E+03 -9.86655E+03  2.37111E+03 -1.49584E+04 -1.03729E+03  9.87541E+02
  3.93112E+03  9.99526E+03  1.76706E+03  2.44485E+03  2.31947E+03  5.72114E+03 -1.16806E+04 -4.32219E+03
  4.24281E+03 -4.19656E+03  4.16545E+03 -2.43124E+03  5.65734E+03  9.40092E+03  2.79668E+02  1.05493E+04
 -1.06712E+04  6.07861E+03 -4.04722E+03  3.57087E+03 -1.01467E+04 -1.16655E+04 -1.13085E+03 -1.06556E+04
 -1.67222E+02 -7.38062E+02  8.38623E+03 -1.28020E+03  1.55506E+03 -1.22428E+03 -1.34676E+03  5.15147E+03
 -1.01709E+03  2.85782E+03 -1.52298E+04 -3.00008E+03 -6.08078E+03 -1.23130E+04 -1.31702E+03 -1.00908E+04
  6.95232E+03 -9.53608E+03  1.16783E+04  7.94963E+02  5.48293E+03  1.87399E+03 -2.87545E+03  9.52007E+03
 -4.70767E+03  4.89428E+03 -7.98395E+03 -5.46530E+03 -1.47611E+03 -7.94549E+03  1.69521E+04  5.61604E+02
  1.25513E+04  2.49982E+03  6.01056E+03  6.91417E+03  1.23923E+03  7.12101E+03 -5.39337E+03  1.70847E+04
 -7.41437E+03  1.26522E+04 -1.49845E+04 -4.04360E+03 -3.17196E+03 -6.30051E+03  8.35052E+03  5.38657E+02
  1.54160E+04 -5.01365E+03  8.90820E+03  9.83767E+02  3.04786E+03  8.16828E+03  6.28981E+03  3.54574E+03
 -8.35217E+03  2.88113E+03 -1.95690E+03  5.76434E+03 -2.99830E+02 -9.58383E+02 -5.16273E+03 -6.86226E+02
 -4.52659E+03  3.59045E+03 -1.72787E+04  6.70147E+03 -9.13645E+03 -8.73384E+03 -1.07319E+04 -8.23718E+03
 -9.68555E+03 -2.19827E+04  3.56453E+03 -1.32237E+04  1.39869E+04 -1.73162E+04  1.74797E+04 -8.54394E+03
  1.98875E+04 -1.34532E+03  1.07721E+04  1.09031E+04  6.72540E+03  2.32628E+04 -9.56795E+03  1.44247E+04
 -2.32127E+03  6.05691E+03 -7.88198E+03 -3.00932E+02 -1.15290E+03 -5.47195E+03 -1.14060E+04  4.05852E+03
  6.47779E+03  1.74019E+03 -5.31655E+03 -2.43625E+03  9.34468E+01 -2.56463E+03  2.08338E+03 -5.51787E+03
  9.18753E+03 -5.28194E+03  8.17820E+03 -2.29774E+03  4.87164E+03  9.78367E+03  6.03545E+03  1.58929E+04
 -8.92271E+03  2.23683E+04 -1.18784E+04  8.53310E+03 -2.17842E+04 -4.21399E+03 -1.13307E+04 -1.38097E+04
 -2.90303E+03 -1.63055E+04  9.75491E+02 -1.19474E+04  1.41863E+04 -6.34398E+02  1.16711E+04 -5.08223E+03
  7.88411E+03  7.07424E+03 -3.35158E+03  1.82607E+03  4.49671E+03 -7.08015E+03 -4.18220E+03  2.07418E+03
  5.34634E+03  2.30020E+03 -4.94804E+03  4.22896E+03  1.57518E+03  7.39314E+03 -7.70020E+03  6.44056E+03
 -1.80710E+03  1.75852E+04 -1.42652E+04  1.05117E+03 -1.19487E+04 -3.92409E+03 -9.24768E+03 -2.95998E+03
  1.06609E+04 -1.47404E+04  1.34218E+04 -3.70431E+03  1.52073E+04  3.95740E+03  1.22063E+04  9.44955E+03
  1.77104E+03  6.40135E+03 -3.21450E+03  4.94674E+03 -3.57011E+03 -3.73706E+03 -6.52264E+03 -3.61548E+02
 -3.04963E+03 -6.27830E+03 -3.91469E+03  1.07919E+04 -6.27224E+03  4.12625E+03  2.84875E+02 -3.95619E+03
 -2.50053E+03 -6.03378E+03 -3.13237E+03 -9.54817E+03  3.80620E+02 -1.06492E+04 -4.72346E+02 -2.64534E+03
  1.14246E+04 -1.58145E+03  7.40815E+03  1.05086E+04  1.36223E+03  1.53334E+04 -5.27547E+02  9.92967E+03
