 $NMID ID='MM_0lb_SNR50_8hz_g55_56.RAW', FMTDAT='(8E13.5)'
 TRAMP=1., VOLUME=1. $END
  3.09612E+05 -4.71765E+03  3.41868E+05  2.56187E+05  8.67302E+04  3.36188E+05 -1.31712E+05  2.54970E+05
 -1.87082E+05  8.16028E+04 -1.06303E+05 -3.17278E+04 -2.28161E+03 -4.90764E+04  5.13333E+04 -3.41632E+03
  3.80168E+04  4.55082E+04 -1.66403E+04  8.06379E+04 -6.16554E+04  6.54717E+04 -8.38942E+04  2.76751E+04
 -7.92116E+04 -1.22477E+04 -6.23352E+04 -5.62864E+04 -2.06940E+04 -7.42923E+04  3.12193E+04 -4.99673E+04
  5.07049E+04 -2.67481E+02  1.69124E+04  4.61000E+04 -2.81108E+04  4.42054E+04 -6.25309E+04 -1.13062E+03
 -5.27431E+04 -5.73639E+04 -3.60103E+03 -8.23129E+04  3.64747E+04 -5.74074E+04  4.80301E+04 -1.52399E+04
  4.34490E+04  8.67906E+03  3.13238E+04  2.71749E+04  1.79712E+04  2.76452E+04 -2.47673E+03  2.97306E+04
 -1.77124E+04  1.68987E+04 -2.00379E+04 -5.69227E+03 -1.74470E+03 -2.02053E+03  1.91479E+04  1.65137E+04
  1.17677E+04  4.59168E+04 -3.48993E+04  3.33361E+04 -7.39795E+04  6.68574E+02 -5.50439E+04 -4.38729E+04
 -9.83404E+03 -6.64111E+04  4.15944E+04 -4.07928E+04  6.55974E+04  1.50873E+02  4.21617E+04  3.14336E+04
 -8.97866E+03  4.16411E+04 -3.49427E+04  2.13236E+04 -3.12764E+04 -3.45293E+03 -1.80817E+04 -1.17861E+04
 -5.19413E+03 -1.37377E+04 -2.69523E+03 -1.23202E+04  8.48243E+03 -2.55655E+04  7.47657E+03 -3.06110E+03
  8.91598E+03  6.35783E+03 -1.07714E+04  9.50588E+03 -2.63231E+04 -7.97873E+03 -2.99138E+03 -3.87259E+04
  2.87697E+04 -4.37678E+04  5.74015E+04 -2.47554E+04  4.83721E+04  2.58246E+04  1.56752E+04  4.28881E+04
 -1.94084E+04  3.80795E+04 -3.75682E+04  2.41156E+03 -1.34880E+04 -3.59168E+04  2.53725E+04 -3.84042E+04
  4.72321E+04 -1.28119E+04  4.01649E+04  2.30145E+04  2.36090E+04  4.91625E+04 -7.32360E+03  6.02343E+04
 -3.63684E+04  4.16954E+04 -4.65858E+04  9.30011E+03 -4.82156E+04 -2.06054E+04 -2.25944E+04 -4.77986E+04
  5.45099E+03 -4.39754E+04  3.77786E+04 -1.90622E+04  3.45297E+04  1.76629E+04 -7.11819E+02  2.07853E+04
 -1.28220E+04  1.71848E+04 -9.15412E+03 -3.92867E+03  8.84358E+03 -9.23867E+03  1.62717E+04  8.97765E+03
  1.98818E+04  2.16181E+04 -5.16335E+03  2.58160E+04 -2.78797E+04  1.71522E+04 -3.21639E+04 -3.57199E+02
 -1.86304E+04 -2.03459E+04 -9.68583E+03 -2.48464E+04  1.15338E+03 -2.95945E+04  2.25953E+04 -3.18426E+04
  2.94442E+04 -1.24813E+04  3.47218E+04  9.95421E+03  2.78278E+04  2.12840E+04 -2.32737E+03  4.75818E+04
 -1.56027E+04  3.29730E+04 -3.50059E+04  1.64317E+04 -2.16046E+04 -5.34193E+03 -6.75686E+03 -1.50513E+04
 -2.23787E+03  8.30586E+02 -6.90314E+03  1.72206E+04 -2.62452E+04  5.55786E+03 -2.52904E+04 -9.89391E+03
 -1.77005E+04 -2.50155E+04  1.09546E+04 -2.97462E+04  2.19414E+04 -1.96424E+04  2.75172E+04 -5.33221E+03
  2.10290E+04  2.09914E+04 -2.27483E+03  3.00345E+04 -2.00205E+04  1.07843E+04 -2.49630E+04  1.07657E+03
 -1.64691E+04 -2.00281E+04 -4.01497E+03 -2.69558E+04  1.08956E+04 -2.46375E+04  2.09863E+04 -1.68573E+04
  1.77752E+04 -4.85097E+03  1.37387E+04  6.99240E+03  1.58167E+04  4.65927E+03  1.26772E+04 -5.94298E+03
  2.01072E+04  3.66954E+03  3.45615E+04  2.08540E+04  2.13874E+04  4.22100E+04 -6.74159E+03  4.62590E+04
 -2.83669E+04  4.01129E+04 -4.68726E+04  1.62389E+04 -4.14030E+04 -2.85218E+03 -3.69211E+04 -2.49017E+04
 -9.32916E+03 -4.12644E+04  1.25587E+04 -3.50003E+04  3.86071E+04 -1.24987E+04  2.53378E+04  6.75474E+03
  1.03297E+04  2.87906E+04 -1.10263E+04  1.33805E+04 -1.43351E+04  7.18652E+03 -1.51904E+04 -1.22017E+04
 -5.54821E+03 -2.01516E+04  9.53152E+03 -1.07447E+04  1.62027E+04 -5.58344E+03  3.48853E+03  4.49065E+03
  1.91397E+03  6.44964E+03 -9.58509E+03 -5.36986E+03 -2.10069E+03 -1.83069E+04  1.69951E+04 -2.25250E+04
  2.68407E+04 -1.82938E+04  2.87100E+04 -2.16305E+03  3.48369E+04  2.03426E+04  6.30380E+03  3.54045E+04
 -3.27630E+03  3.49201E+04 -2.21612E+04  2.24904E+04 -2.80530E+04  4.81159E+03 -1.18868E+04 -1.06446E+04
 -1.38507E+03 -1.19072E+04 -5.05359E+02 -5.00870E+03  4.44005E+03  9.39202E+02 -6.66411E+03  5.05318E+03
 -1.46434E+04  7.02521E+03 -1.82763E+04 -1.23668E+04 -9.80315E+03 -2.53327E+04  7.11642E+03 -1.86629E+04
  1.36599E+04 -2.00220E+03  8.41026E+03  2.37608E+03  7.13736E+03  8.45439E+03 -9.80765E+03  2.98065E+03
 -7.90065E+03 -1.12645E+04 -2.12676E+03 -1.32513E+04  1.04116E+04 -1.77492E+04  2.07185E+04 -1.18903E+04
  3.03298E+04 -2.68493E+03  1.50940E+04  1.32542E+04  3.50406E+03  1.77471E+04 -1.10578E+04  1.62153E+04
 -2.15692E+04  1.16077E+03 -1.17767E+04 -5.87576E+03  4.37887E+03 -7.13803E+03  5.54797E+03 -4.56814E+03
  1.01633E+04  1.44591E+04  3.46638E+03  1.08266E+04 -1.32186E+04  1.66037E+04 -2.03394E+04  1.53161E+03
 -1.24832E+04 -1.23970E+02 -2.50387E+02 -9.53484E+03  8.82239E+03 -6.10804E+03  1.66398E+04 -2.99651E+03
 -3.84811E+03  6.92235E+03 -8.45256E+03  1.10524E+04 -1.19124E+04  8.37176E+03 -2.18185E+04 -1.35261E+03
 -1.17987E+04 -2.42187E+04  2.52072E+03 -1.85669E+04  1.47567E+04 -1.16027E+04  2.32201E+04 -2.56766E+03
  1.70131E+04  1.71193E+04  2.93488E+02  1.91472E+04 -1.30143E+04  1.21470E+04 -1.22544E+04 -1.38315E+03
 -3.76243E+03 -8.47849E+03 -3.02021E+01 -1.49821E+04  8.31490E+03 -6.46543E+03  5.02185E+02 -4.00425E+03
  6.57324E+03  4.67574E+03  4.68337E+03 -4.13700E+03  5.65885E+02 -7.58569E+03  2.71819E+03 -9.19201E+03
  1.30950E+04 -1.33817E+04  1.58919E+04  6.26698E+03  2.39828E+04  1.12553E+04  8.94200E+03  2.84194E+04
 -6.96383E+03  2.48544E+04 -2.26839E+04  2.10863E+04 -2.89565E+04  6.73040E+03 -2.36983E+04 -1.29575E+04
 -1.26511E+04 -1.92592E+04 -4.77573E+03 -2.02813E+04  9.00898E+03 -1.24005E+04  1.03645E+04 -7.39663E+03
  7.24155E+03 -1.30891E+03  3.29152E+03 -3.50586E+03  1.22719E+04 -4.80281E+03  5.94244E+03  1.76618E+02
  1.63797E+04  3.32482E+03  6.79671E+03  1.38495E+04 -2.60085E+03  9.74026E+03 -1.57665E+04  1.20259E+04
 -1.54969E+04 -2.23761E+03 -1.27897E+04 -1.31824E+04  2.54694E+03 -1.59260E+04  1.19983E+04 -2.03577E+04
  1.78919E+04 -5.92878E+03  2.99293E+04  7.12479E+03  1.24260E+04  2.02715E+04  4.40189E+03  2.33935E+04
 -1.63096E+04  8.65156E+03 -8.97794E+03  4.11610E+03 -1.00599E+04  1.08909E+03 -1.73985E+03 -1.13701E+04
  2.17741E+03  2.66209E+03 -2.24981E+03 -2.94223E+03 -6.62892E+03  1.18295E+03 -8.99511E+03  2.38108E+02
 -4.20410E+03 -1.04850E+04  4.23732E+03 -1.97696E+04  1.16097E+04 -1.18165E+04  1.47797E+04 -4.50469E+03
  1.88624E+04  4.65819E+03  1.53152E+04  1.69873E+04 -1.60176E+03  1.86859E+04 -6.51297E+03  7.39823E+03
 -1.56462E+04 -1.45285E+02 -1.07819E+04 -1.26660E+04 -6.43083E+02 -1.64877E+04  9.49289E+03 -7.47343E+03
  1.74810E+04 -5.46821E+03  5.55305E+03 -1.48938E+03  3.01817E+03  1.08710E+04  1.67016E+03  3.03412E+03
  4.93214E+03  6.49093E+03  3.83986E+03  3.24542E+03  3.62670E+03  6.09361E+03 -2.35405E+03  1.11211E+04
 -5.91361E+03  1.42498E+04 -1.14812E+04  1.19567E+04 -1.68857E+04 -2.50773E+03 -2.26330E+04 -6.30125E+03
 -1.22288E+04 -1.68988E+04 -3.52962E+03 -2.04465E+04  1.23732E+04 -1.21575E+04  1.05260E+04 -1.63464E+03
  7.50115E+03  7.94775E+02  1.87207E+03  1.61091E+04 -8.16862E+03  8.37992E+03 -7.15112E+03 -1.18395E+03
 -2.04097E+02 -8.81504E+03  4.89342E+03 -1.30289E+04  4.90074E+03 -9.95959E+03  7.46933E+03  2.82266E+03
 -1.20252E+03  3.70691E+03 -4.84814E+03 -2.75818E+03 -2.29231E+03  1.12025E+02  1.10238E+03 -6.66897E+03
  4.45648E+03 -6.31772E+03  7.10362E+03  4.94207E+03  6.73429E+03  2.70517E+03 -5.90442E+03  1.59148E+04
 -1.20375E+04  1.12554E+04 -8.03433E+03  2.39674E+03 -6.29778E+02 -4.08271E+03 -5.66860E+03 -5.74776E+03
 -3.69067E+03 -8.87855E+03  2.63227E+03 -1.51872E+03  8.00182E+03  8.35899E+03  5.26632E+02  8.60177E+03
 -5.22672E+03  1.96909E+03 -1.10791E+04  1.37341E+03 -1.93725E+03 -1.35988E+04 -6.52544E+02 -6.29195E+03
  3.35903E+03 -6.59736E+03  6.67634E+03  1.86749E+03  7.66168E+03  2.51682E+03 -6.34810E+03  6.64109E+02
 -4.11637E+02 -1.50766E+03 -1.77864E+03 -2.85911E+03  7.73714E+02 -1.31273E+04  1.00703E+04 -5.87331E+03
  1.00572E+04 -1.55032E+03  1.69437E+04  8.62938E+03 -8.94898E+01  1.90015E+04 -7.91304E+02  1.07279E+04
 -1.58565E+04  4.35857E+03 -7.77073E+03 -1.24663E+03 -5.85887E+03 -6.80892E+03  3.38404E+03 -8.29387E+02
  1.32332E+04 -9.29912E+03  1.08094E+04  1.41048E+02  6.71164E+03  1.17680E+04 -4.18956E+03  6.14581E+03
 -3.95387E+03  6.95902E+03 -3.48645E+03  7.37183E+03 -2.45987E+03  2.43706E+03  3.91885E+03  3.73245E+03
 -4.39475E+03  4.00341E+03 -8.95335E+03  3.68243E+03 -1.48764E+04 -9.70056E+02 -1.78175E+04 -1.81604E+03
 -5.32992E+03 -1.28630E+04  1.04625E+04 -1.74955E+04  1.64088E+04 -1.54675E+04  1.82103E+04  1.91827E+02
  1.68197E+04  5.39157E+03  7.24904E+03  1.16176E+04  2.20251E+03  1.15493E+04 -8.65265E+03  6.89161E+03
 -7.82527E+03 -8.50171E+01 -2.20740E+03 -4.22955E+03 -1.64230E+03  4.23244E+02 -1.03163E+04  4.33646E+02
 -5.29041E+03  4.08826E+02 -5.31664E+03 -3.81083E+03  9.68673E+02 -5.21519E+03 -4.88554E+03 -5.76795E+03
  2.61928E+03 -2.57758E+03  1.23535E+04  6.91734E+03  7.46165E+03  5.66066E+03  5.92458E+02  1.20996E+04
  6.89930E+02  1.28888E+04 -1.64885E+04  6.98783E+03 -2.10624E+04  2.51286E+03 -5.80763E+03 -1.12700E+04
 -7.33672E+03 -1.16602E+04  5.12269E+03 -1.39077E+04  9.00126E+03 -3.59988E+03  1.14128E+04 -2.12567E+03
  7.65000E+03  6.45027E+03  2.60682E+03  1.34139E+03 -9.33327E+03 -2.02777E+03 -2.08889E+03 -8.50238E+03
  2.83358E+03 -4.18313E+03  4.60763E+03  1.05913E+03  3.44828E+02  8.46249E+03 -7.54151E+02  6.72142E+03
 -3.54914E+03  5.41886E+03 -9.19665E+03  7.54832E+03 -9.35569E+02 -3.09585E+03 -1.28116E+03 -1.39161E+04
  6.78820E+03 -1.02430E+04  1.09879E+04 -6.35581E+03  1.04447E+04 -4.77819E+02  6.31155E+03  7.91434E+03
 -3.39890E+01  1.44159E+04 -3.50013E+03  1.02995E+04 -6.52102E+03  1.52225E+04 -5.85559E+03 -1.01640E+03
 -5.88961E+03  4.10279E+03  4.24630E+03 -4.40325E+03 -4.71364E+03  5.58542E+03 -1.01612E+04  5.14667E+03
  2.13547E+02 -7.69642E+03  5.19384E+02 -7.16508E+03  2.66940E+03 -6.78370E+03  1.07513E+04 -2.40167E+03
  1.10015E+04 -2.52133E+03  1.36734E+04  2.55922E+03 -3.52715E+03  2.96105E+03 -8.43280E+03  1.14558E+04
