 $NMID ID='MM_0lb_SNR50_17hz_g40_11.RAW', FMTDAT='(8E13.5)'
 TRAMP=1., VOLUME=1. $END
  3.10018E+05 -5.83897E+01  3.39659E+05  2.52586E+05  8.36224E+04  3.37539E+05 -1.35427E+05  2.49474E+05
 -1.89362E+05  8.50277E+04 -1.12719E+05 -3.73357E+04  1.21799E+02 -5.10973E+04  5.56180E+04 -1.71468E+02
  3.88739E+04  5.35641E+04 -1.59859E+04  7.66521E+04 -6.33052E+04  6.69926E+04 -8.24780E+04  2.96049E+04
 -7.89104E+04 -1.22751E+04 -5.62065E+04 -5.10621E+04 -1.46322E+04 -7.25904E+04  2.61249E+04 -4.31926E+04
  3.49534E+04  5.81596E+03  1.64013E+04  4.47406E+04 -3.67620E+04  4.59625E+04 -6.38736E+04 -4.57803E+03
 -5.34303E+04 -5.77496E+04 -3.53795E+03 -7.26799E+04  3.40073E+04 -5.33058E+04  4.72897E+04 -1.63929E+04
  4.33028E+04  1.04275E+04  3.02169E+04  2.34742E+04  1.72228E+04  3.20029E+04 -2.88427E+03  2.49622E+04
 -2.36137E+04  1.04987E+04 -1.78276E+04 -7.90192E+03  2.28599E+03 -6.45195E+03  1.71887E+04  1.09671E+04
  9.75324E+03  3.63272E+04 -3.14963E+04  3.25755E+04 -5.86037E+04 -1.62968E+03 -5.94007E+04 -4.00883E+04
 -1.38557E+04 -6.08059E+04  3.98275E+04 -4.06225E+04  5.67534E+04 -3.95804E+03  3.15811E+04  2.65114E+04
 -6.68029E+03  3.38863E+04 -2.96604E+04  1.61164E+04 -3.05367E+04 -8.30223E+03 -1.75784E+04 -8.80607E+03
 -5.95052E+03 -1.07501E+04  1.71995E+03 -1.88488E+04  1.22549E+03 -2.37874E+04  1.57111E+04 -1.43695E+04
  7.33980E+03  5.08458E+03 -6.65535E+03  1.60027E+04 -2.08752E+04 -4.07188E+03 -6.25645E+03 -3.33136E+04
  2.00890E+04 -4.06046E+04  4.54859E+04 -1.49488E+04  3.34452E+04  2.14269E+04  1.03091E+04  4.17056E+04
 -1.41125E+04  3.34448E+04 -2.55937E+04 -9.41631E+02 -1.28603E+04 -2.85848E+04  2.42391E+04 -2.88435E+04
  3.66103E+04 -6.16269E+03  3.25987E+04  2.24484E+04  1.14995E+04  4.10158E+04 -8.95051E+03  4.76927E+04
 -2.77687E+04  3.02750E+04 -3.81550E+04  1.04314E+04 -3.69902E+04 -1.52930E+04 -2.32933E+04 -3.57490E+04
  6.81042E+03 -3.66358E+04  2.96230E+04 -1.31922E+04  2.54087E+04  8.88720E+03  2.89278E+03  2.17453E+04
 -1.51478E+04  8.31168E+03 -1.01877E+04 -6.98129E+03  3.14369E+03 -1.16059E+04  1.71947E+04  4.76451E+03
  9.56049E+03  1.88498E+04 -6.71889E+03  2.25008E+04 -2.62103E+04  7.17657E+03 -2.52765E+04 -7.20679E+03
 -1.78339E+04 -2.10815E+04 -7.19911E+03 -1.89979E+04  1.00645E+04 -1.11453E+04  1.21505E+04 -1.61862E+04
  2.19204E+04 -1.10284E+04  2.73048E+04  3.28903E+02  2.07983E+04  1.43062E+04  4.20368E+03  3.09243E+04
 -1.61061E+04  2.88447E+04 -2.34965E+04  8.23003E+03 -2.00327E+04 -1.06880E+04 -3.17608E+03 -1.42928E+04
  8.15165E+02 -8.01142E+03 -1.44478E+03  3.37133E+03 -1.00378E+04  5.02841E+03 -1.51915E+04 -2.04026E+03
 -7.85682E+03 -1.25068E+04  5.47651E+03 -1.62445E+04  1.47780E+04 -1.04605E+04  1.31822E+04  3.09000E+03
  7.33048E+03  1.14874E+04 -3.22283E+03  1.46768E+04 -1.00165E+04  8.40688E+03 -1.48482E+04 -5.34263E+02
 -1.12544E+04 -1.08655E+04 -4.14506E+03 -1.34033E+04  1.12413E+04 -1.15337E+04  1.48098E+04 -7.30363E+03
  1.35102E+04 -4.41624E+03  1.36542E+04  3.08911E+03  8.55924E+03 -3.15342E+03  6.61861E+03 -1.02269E+03
  1.16647E+04  1.56373E+03  1.24493E+04  1.26465E+04  6.26469E+03  2.64796E+04  6.90979E+02  3.09925E+04
 -1.70971E+04  1.83888E+04 -2.88143E+04  9.20899E+03 -2.83437E+04 -1.41843E+03 -1.98609E+04 -2.09476E+04
 -8.80526E+03 -2.65505E+04  1.78450E+03 -2.01486E+04  1.56196E+04 -8.83365E+03  1.38497E+04  8.39659E+03
  4.90726E+03  1.48610E+04 -4.76428E+03  6.76795E+03 -1.83919E+04  1.51297E+03 -9.02086E+03 -7.56894E+03
 -7.22470E+02 -1.56439E+04  7.18022E+03 -1.10547E+04  7.61660E+03 -3.75981E+03  2.21911E+03  1.78119E+03
 -3.56620E+03  1.87568E+03 -2.12374E+03 -2.54906E+03  1.19424E+03 -1.03914E+04  8.33991E+03 -9.32208E+03
  1.05396E+04  2.62895E+02  8.51252E+03  6.07275E+03  1.25310E+04  8.60383E+03  5.19041E+03  1.08666E+04
 -3.11881E+03  1.68566E+04 -9.32300E+03  1.18765E+04 -1.51687E+04  5.88069E+03 -6.76277E+03 -2.88323E+03
 -7.28953E+03 -2.64476E+03 -3.36086E+03  6.98723E+02 -3.11188E+03  5.42496E+02 -5.88496E+03  1.12186E+03
 -9.01558E+03 -2.84536E+03 -5.31219E+03 -8.81674E+03 -1.41382E+03 -1.11481E+04  4.45004E+03 -6.21039E+03
  7.53522E+03 -1.10061E+02  5.05868E+03  6.63680E+02  1.65882E+03  3.98065E+03 -3.04054E+03  3.81265E+02
 -3.43844E+03 -6.51377E+03 -2.05617E+03 -1.00145E+04  4.46356E+03 -1.27669E+04  1.25216E+04 -2.72818E+03
  1.19742E+04  3.46462E+03  9.46339E+03  3.59943E+03  5.11211E+03  1.21108E+04 -4.66459E+03  1.23956E+04
 -7.63579E+03  1.12449E+02 -6.40061E+03 -4.05549E+03 -9.52140E+02 -7.80627E+03  3.55158E+03  5.94677E+03
  3.78817E+03  6.31629E+03  1.89277E+03  3.05546E+03 -8.65226E+03  7.92914E+03 -1.20654E+04  6.03311E+03
 -5.97377E+03 -1.69175E+03  4.27138E+03 -7.80904E+03  5.03640E+03  1.47522E+02  4.42040E+03  2.51078E+03
 -1.87645E+02  8.69699E+03 -4.83209E+03  8.66571E+03 -4.35346E+03  9.85616E+02 -1.02832E+04  8.04934E+02
 -4.54825E+03 -6.47280E+03  5.48206E+03 -9.48545E+03  9.11054E+03 -4.71880E+03  6.38119E+03  2.79194E+03
  4.61127E+03  4.85861E+03  1.39751E+03  9.23426E+03 -3.98955E+03  4.63449E+03 -4.06799E+03  3.37067E+02
 -3.73561E+03 -7.44140E+03 -1.99552E+03 -3.50572E+03  1.96478E+03 -6.47122E+03  5.98513E+03 -6.97517E+03
  3.06421E+03  1.75799E+03 -1.76298E+03 -8.62069E+02 -2.43614E+03  2.20790E+02  4.23618E+03 -3.31733E+03
  7.43043E+03 -7.30497E+02  2.99064E+03 -1.66083E+03  8.95012E+03  1.24903E+03  3.56205E+03  1.19463E+04
 -6.32822E+02  8.81904E+03 -8.15725E+03  4.82384E+03 -1.42810E+04  1.64882E+03 -7.75418E+03 -3.52456E+03
 -5.22435E+03 -7.67028E+03 -4.41035E+03 -6.85493E+03  3.43322E+03 -4.14151E+03  4.47570E+03 -8.70350E+03
  1.98410E+03 -2.98631E+03  1.80987E+03 -2.43903E+03  3.65116E+03 -2.15649E+03  2.74482E+03  1.78895E+02
  3.88735E+03 -1.24241E+03  4.55191E+03  6.28169E+03 -2.77775E+03  3.86467E+03 -7.48583E+03  1.47382E+03
 -3.93884E+03  7.92208E+01  1.06415E+03 -8.33717E+03  1.88592E+03 -3.24458E+03  5.25973E+03 -4.51660E+03
  2.59937E+03 -7.42311E+03  9.54299E+03  2.90519E+02  5.08702E+03  2.51619E+03 -3.03890E+02  6.79189E+03
 -4.11912E+03  1.16289E+04  4.86794E+02  2.95115E+03 -3.31539E+03  1.19920E+03 -5.63284E+03 -3.37451E+03
 -1.95544E+03 -1.29538E+03 -6.28704E+03 -1.81526E+03 -4.48690E+03  1.71066E+03 -2.57441E+03 -1.89441E+03
 -1.56833E+03 -3.44614E+02 -4.44335E+02 -4.88249E+03  3.14846E+03 -9.57252E+03  3.90095E+03 -4.22919E+03
  3.66843E+03  1.93768E+03 -6.83452E+02  1.71466E+03 -1.70081E+03  2.60830E+03 -1.26565E+03 -2.96054E+03
 -5.29365E+03 -1.65524E+03 -1.41242E+03 -1.16653E+03  2.66878E+03 -6.32086E+03  2.80201E+03 -4.15267E+03
  2.90441E+03 -1.13003E+03  7.20473E+03 -5.41838E+01 -3.29436E+03 -1.83742E+03  3.78066E+03  4.09110E+02
  1.05621E+03  8.79656E+02 -1.20897E+02  1.82124E+03  2.22663E+03  1.77072E+03  4.60132E+03  3.83652E+03
 -3.86394E+03  2.44042E+03 -9.38456E+03  1.05842E+04 -4.59513E+03 -4.25524E+03 -8.65272E+03  8.80032E+02
 -1.72615E+02 -3.69459E+03 -7.84181E+02 -6.22186E+03  1.30298E+03 -3.22348E+03  3.84255E+03 -2.16415E+03
  4.69810E+03  5.76205E+03 -3.48420E+02 -6.74298E+02 -1.51388E+03  1.01739E+03  7.55592E+03 -1.27781E+03
 -5.09450E+03 -3.82111E+03  1.59420E+03 -5.46742E+03  2.02838E+03 -1.62718E+03  2.45028E+03  2.61527E+03
 -2.11214E+03  4.65554E+03  4.07390E+03  1.99935E+03 -2.84460E+03 -1.33114E+03 -1.64906E+03 -1.52722E+03
  1.88122E+03 -1.45722E+03  5.55202E+03  2.49725E+03  1.61369E+03  2.27649E+03  1.41917E+03  5.58666E+03
 -2.78705E+03 -4.74687E+03 -2.33967E+03 -1.38648E+02 -3.65152E+03  4.09399E+03  4.26441E+02  5.28969E+02
  2.13054E+02 -3.11198E+03 -8.26872E+02 -1.87397E+03  1.18029E+03  1.72043E+03 -2.86953E+02  3.38372E+03
 -6.47226E+02  7.50158E+02 -3.24062E+03 -3.08104E+03 -1.22364E+03 -1.52612E+03  4.46847E+03 -1.53783E+03
 -1.60180E+03 -4.20428E+03 -1.05877E+03  3.66338E+03  1.15678E+03  4.56064E+03 -2.15832E+03  3.77940E+03
 -2.91779E+03  4.57471E+03  1.78775E+03  7.05062E+02  3.92927E+03 -1.69668E+03 -1.34198E+03 -3.40833E+03
 -3.73263E+02 -9.06870E+02  1.82471E+03  7.36111E+02  7.27142E+02  4.09848E+03  4.45479E+03  1.44330E+03
 -9.12217E+01  5.25968E+03 -1.23013E+03  3.68436E+02 -9.73594E+02 -2.20677E+03  3.40695E+03 -3.30847E+03
  1.61722E+03 -4.11434E+02  1.85733E+01 -4.54977E+02 -3.20682E+03  3.78121E+03  1.17732E+03  2.42493E+03
 -3.72344E+02  2.83584E+03 -1.74965E+03  4.77001E+03 -3.13723E+03  6.96861E+02 -3.25803E+03  1.99371E+03
 -1.22782E+02  1.18372E+03 -6.19442E+03  5.60347E+02 -4.19264E+03 -1.33627E+03 -3.77347E+03 -5.67201E+01
 -4.79347E+03 -2.62913E+03 -1.09517E+03 -2.20498E+03  3.29185E+03 -2.88367E+03  2.30395E+03 -3.09122E+03
 -1.14364E+03  3.62668E+03  2.68160E+03  8.48967E+02  1.64887E+03  5.35059E+03 -1.40104E+03  3.95540E+03
 -2.40277E+03 -3.11291E+03 -2.19787E+03 -1.01776E+03  1.84828E+02 -5.27146E+03  6.99910E+02  2.89530E+03
 -3.68134E+03 -1.48207E+03 -3.54727E+02  2.87929E+03  5.36745E+03  2.10521E+03 -1.02600E+03  1.68471E+03
 -2.74673E+03 -4.03508E+03  3.74523E+03  4.87216E+02  2.06097E+01  3.60836E+03 -2.41993E+03  3.25276E+03
  1.16349E+03  1.82998E+03 -1.40459E+03  3.63531E+02  3.03698E+03 -1.40354E+03 -5.33222E+03  4.83555E+03
  1.20851E+03 -2.72594E+03 -6.57592E+02  3.73404E+03 -1.34657E+02  1.49933E+03  1.19173E+03 -3.75859E+02
  5.13836E+03 -3.95147E+02  2.21509E+03 -2.88866E+03  5.20795E+02  7.73941E+02  1.15680E+03 -6.58652E+03
  3.24030E+03  2.88647E+02  1.43745E+03  5.73561E+03 -4.69979E+03  1.63746E+03  6.28352E+02  1.40790E+03
  2.46763E+03  7.17956E+03 -2.17107E+03 -1.39021E+03 -3.05437E+03 -3.74303E+02 -5.26152E+02  3.93569E+03
 -3.14352E+03 -8.76421E+02 -1.72943E+03 -4.02685E+03  4.17574E+03  2.66316E+03 -3.81239E+02  1.48210E+03
  2.33910E+03  3.37698E+03 -2.36604E+03 -1.98966E+03 -2.43914E+03 -2.58883E+03  2.12966E+03  3.69723E+03
 -3.46313E+03 -4.02192E+03  3.73725E+03  9.84742E+02 -3.97557E+03 -4.33120E+02  8.51489E+02 -6.25165E+02
 -5.74732E+03 -3.54933E+02 -4.10892E+03 -1.21518E+03  4.95554E+03 -1.22147E+03 -1.86097E+03 -1.13393E+03
  7.43527E+02 -2.48272E+02  4.10996E+03 -1.36120E+03  8.46176E+02  3.83470E+03 -2.65115E+03  1.71629E+03
