 $NMID ID='MM_0lb_SNR50_20hz_g40_34.RAW', FMTDAT='(8E13.5)'
 TRAMP=1., VOLUME=1. $END
  3.12229E+05 -2.12712E+03  3.39734E+05  2.43351E+05  8.37715E+04  3.34693E+05 -1.30134E+05  2.51575E+05
 -1.84456E+05  8.61616E+04 -1.10893E+05 -3.30723E+04  1.19446E+03 -4.99983E+04  5.35412E+04  1.63515E+03
  3.48722E+04  5.17323E+04 -1.90808E+04  7.27647E+04 -6.29701E+04  6.28635E+04 -8.17038E+04  2.86196E+04
 -7.59469E+04 -9.12771E+03 -5.65445E+04 -4.81315E+04 -1.50038E+04 -6.64009E+04  2.09375E+04 -4.91183E+04
  3.89808E+04  1.35093E+03  1.12183E+04  4.68682E+04 -3.41685E+04  4.71332E+04 -6.09316E+04  3.34391E+03
 -4.83149E+04 -5.52097E+04 -6.21229E+03 -7.64685E+04  2.90412E+04 -5.26917E+04  4.95744E+04 -1.59259E+04
  3.91529E+04  7.59827E+03  2.99506E+04  2.35837E+04  1.54849E+04  2.64718E+04 -4.48678E+03  2.53529E+04
 -2.16483E+04  1.44001E+04 -1.88056E+04 -1.98946E+03 -9.05116E+02 -4.31963E+03  2.05511E+04  9.62867E+03
  7.54963E+03  3.00163E+04 -2.85553E+04  3.25930E+04 -6.02832E+04  3.76697E+03 -5.14504E+04 -4.01606E+04
 -1.37524E+04 -6.07634E+04  3.26202E+04 -4.24771E+04  5.18708E+04 -3.58194E+03  2.81364E+04  3.02625E+04
 -1.00801E+04  3.08431E+04 -2.91513E+04  1.27325E+04 -2.99398E+04 -7.71370E+03 -1.23810E+04 -5.79320E+03
 -9.75674E+03 -8.98227E+03  1.48583E+03 -1.51830E+04  4.03475E+03 -2.51215E+04  1.25484E+04 -1.07373E+04
  1.39426E+04  4.92442E+03 -5.34825E+03  1.78589E+04 -1.70218E+04  4.37309E+02 -5.68787E+03 -2.85330E+04
  1.88112E+04 -4.00332E+04  4.63060E+04 -1.56781E+04  4.16192E+04  2.00073E+04  1.19146E+04  4.20505E+04
 -1.50594E+04  3.06029E+04 -2.18101E+04  8.50565E+02 -4.89658E+03 -2.70419E+04  2.42778E+04 -3.41115E+04
  3.70493E+04 -3.59437E+03  2.94430E+04  2.38838E+04  1.13035E+04  3.73800E+04 -7.02216E+03  4.07351E+04
 -2.52314E+04  2.92504E+04 -3.28586E+04  9.42594E+03 -3.52230E+04 -1.24975E+04 -1.73031E+04 -3.38125E+04
  8.55411E+03 -3.22777E+04  2.55006E+04 -1.04611E+04  2.90164E+04  1.20589E+04  4.08723E+03  1.81053E+04
 -1.14024E+04  9.43158E+03 -9.59269E+03 -3.04354E+03  4.55490E+03 -1.19614E+04  1.32513E+04  9.24958E+03
  1.35853E+04  1.96180E+04 -8.65356E+03  1.95279E+04 -1.96182E+04  7.11497E+03 -2.16541E+04 -5.71027E+03
 -1.64243E+04 -1.54738E+04 -2.72163E+03 -1.91011E+04  5.95860E+03 -1.80147E+04  1.19794E+04 -1.20916E+04
  2.17269E+04 -1.30398E+04  2.56052E+04 -1.73463E+03  2.07866E+04  1.36557E+04  5.77779E+03  2.68315E+04
 -1.52015E+04  2.33056E+04 -2.44367E+04  8.98515E+03 -2.04101E+04 -8.95659E+03 -5.08237E+03 -1.59196E+04
  5.90220E+03 -7.61505E+03  1.95178E+03  5.52785E+03 -6.28590E+03  2.74606E+03 -1.03273E+04 -7.90485E+03
 -5.18869E+03 -1.41748E+04  3.06267E+03 -1.45796E+04  1.18187E+04 -1.57114E+04  1.64660E+04 -2.61144E+03
  7.60328E+03  9.46472E+03  4.81125E+02  1.58415E+04 -1.36874E+04  9.18567E+03 -1.45613E+04 -1.51396E+03
 -9.10798E+03 -1.29418E+04  8.54097E+02 -1.60904E+04  8.14271E+03 -1.44537E+04  1.40280E+04 -4.46767E+03
  1.06142E+04  4.70646E+03  9.01242E+03  5.13501E+03  1.43141E+03 -4.55927E+02  8.44548E+03 -3.37498E+03
  1.30957E+04  1.21308E+02  1.05129E+04  1.20782E+04  6.15600E+03  2.41917E+04 -2.24944E+03  2.07642E+04
 -1.27129E+04  1.94277E+04 -2.19237E+04  7.83233E+03 -1.74715E+04 -3.30204E+03 -1.84998E+04 -1.60551E+04
 -1.01672E+04 -1.60885E+04 -2.56038E+02 -1.13893E+04  9.58300E+03 -6.90939E+03  1.47691E+04 -1.58403E+03
  8.29985E+03  1.43382E+04 -6.59291E+03  9.73157E+03 -9.22280E+03  3.96854E+03 -1.07327E+04 -8.30671E+03
  3.65556E+03 -1.21882E+04  9.86074E+03 -4.14539E+03  5.94819E+03 -4.15913E+03  2.30087E+03  1.75439E+03
 -5.52112E+03  5.79448E+02 -4.93829E+03 -8.51194E+03  3.80241E+03 -1.21329E+04  7.86875E+03 -8.49409E+03
  7.93563E+03 -5.85638E+03  1.13788E+04 -3.79347E+02  7.72274E+03  7.98170E+03  4.79130E+03  1.11536E+04
  1.32354E+03  1.22744E+04 -6.01606E+03  8.78373E+03 -9.22142E+03  1.44447E+03 -9.81658E+03 -3.16854E+03
 -1.31868E+03 -3.95885E+03 -2.18790E+03  9.65101E+02 -9.82450E+02  3.52539E+03 -2.82354E+03  6.00077E+03
 -7.24163E+03 -1.11186E+03 -6.88669E+03 -4.81077E+03 -1.14798E+03 -9.48083E+03  7.24749E+02 -3.75718E+03
  6.13754E+03  5.47827E+02  3.35559E+03  3.32771E+03  2.90189E+03  4.46970E+03 -2.07844E+03  4.69649E+03
 -3.54167E+03 -2.81991E+03  1.03248E+03 -6.16130E+03  4.82244E+03 -6.81518E+03  8.17961E+03 -3.44386E+03
  1.51780E+04  5.61465E+02  5.95428E+03  3.96856E+03 -1.38374E+03  9.93209E+03 -4.45203E+03  1.13620E+04
 -7.34149E+03  1.54660E+03 -2.21374E+03  1.82466E+03  2.80424E+03  2.70167E+02  2.25603E+03 -9.49942E+02
  2.42510E+03  5.71165E+03  1.95102E+03  3.78366E+03 -2.25738E+03  7.54928E+03 -9.00535E+03  8.15203E+02
 -2.17952E+03 -5.23746E+03 -1.74419E+03 -5.83570E+03  1.25686E+03 -1.93536E+03  2.27274E+02  4.73839E+02
  3.26262E+02  2.94170E+03 -2.28201E+03  4.69976E+03 -5.50072E+03  2.40245E+03 -3.39549E+03  1.58403E+03
 -3.72806E+03 -6.40199E+03 -2.17460E+02 -5.44357E+03  1.55610E+03 -4.30095E+03  7.88067E+03 -3.27704E+03
  3.78785E+03  6.84996E+03 -2.38101E+03  3.00414E+03 -3.62850E+03  1.49474E+02 -3.97896E+03  1.11725E+03
 -6.47882E+02 -5.08292E+03 -1.13939E+03 -1.38249E+03 -2.76849E+02 -6.67519E+02  3.32489E+03 -1.32026E+03
 -3.66827E+02 -7.33076E+02  7.41777E+02  1.36838E+01  7.54334E+02 -9.88904E+02 -4.08839E+01 -3.81280E+03
  2.55023E+03 -9.97980E+02  4.84689E+03 -1.97545E+02  7.14228E+03 -1.16338E+03  9.04173E+03  3.99774E+03
 -1.02581E+03  6.09018E+03 -7.12051E+03  3.89729E+03 -9.24704E+03  3.37495E+03 -3.71442E+03  9.01966E+02
 -3.35102E+03 -5.10852E+02 -1.77748E+03  1.24965E+03  7.81066E+02 -1.46436E+03  1.06729E+03 -3.10502E+03
 -8.75884E+02 -1.80967E+03  4.12927E+02 -4.42319E+03  2.86491E+03  9.81737E+02  1.73397E+03  1.15670E+03
  1.19577E+03  4.75956E+03 -2.75265E+03  5.89927E+03  5.70642E+03  2.49054E+03 -5.44364E+03  5.99398E+03
 -6.57041E+03 -6.99695E+03  7.18411E+01 -2.85385E+03  4.88883E+03 -5.37355E+03 -5.20145E+02 -4.92868E+03
  6.13659E+03 -2.25878E+03  6.46770E+03 -2.27955E+03  5.52029E+02  4.35986E+03  1.87315E+03  4.77340E+03
 -4.45319E+02  3.28421E+03 -1.10365E+03  3.52571E+03 -3.40581E+03 -3.45636E+02 -5.54076E+01  3.37425E+02
 -1.44271E+03 -3.19169E+03 -1.83671E+03 -8.91609E+01 -1.29270E+03  2.50454E+03 -2.19295E+03 -3.62503E+03
 -1.06479E+03 -3.87044E+03  6.46651E+03 -4.10481E+03  2.92011E+03 -1.04378E+03  5.65312E+03 -1.73426E+03
  2.09138E+02  2.93657E+03 -1.64175E+03 -2.07767E+03 -6.17935E+02  1.48254E+03  2.01285E+03  1.04763E+03
 -2.85339E+03  1.64630E+03 -5.72087E+03 -1.22626E+03 -2.20555E+02 -2.80234E+03 -1.16362E+03 -8.45553E+03
  1.22541E+03 -2.08569E+03  3.50063E+03 -1.04748E+03 -2.75661E+03 -7.89078E+02 -1.58366E+03 -8.46064E+02
  2.72957E+03  2.91608E+03 -9.23087E+02  1.50263E+03 -6.36016E+01  5.47679E+01 -1.11999E+03  3.09846E+03
 -1.07315E+03 -4.21983E+02 -3.37104E+03  3.96312E+03 -4.14432E+03 -1.74433E+02 -2.44596E+02  1.55041E+03
 -1.05152E+03 -1.03008E+03  2.26602E+03 -6.59040E+03  2.10015E+02 -3.43793E+03  1.63162E+03 -5.51393E+03
 -8.30662E+02  2.88996E+03 -7.76205E+02  8.20417E+02 -2.22828E+03 -7.31431E+02  4.76740E+03  1.09904E+03
 -1.71454E+03 -6.02129E+02  1.72941E+03 -8.14070E+02  1.06068E+03 -2.97031E+03  5.45786E+01 -4.97460E+02
  5.25250E+02 -3.28459E+02  8.46008E+02 -1.00534E+03  2.16159E+03 -1.87884E+02 -3.47143E+02  6.58000E+02
 -2.48860E+03 -4.77673E+02  4.48535E+03 -8.83007E+02 -2.80470E+03  2.42718E+02  1.17018E+03 -3.38152E+03
 -8.69946E+02  9.34257E+02 -3.96275E+03  2.20834E+03  1.53419E+03 -3.99544E+03  4.24416E+01 -7.35159E+02
 -2.47345E+02 -9.71420E+02 -2.19086E+03  2.33588E+03  1.21032E+03  2.01619E+03 -5.35966E+03  2.43505E+03
  1.68094E+03  2.77061E+03 -1.28913E+03  1.22063E+02 -1.95047E+03  2.08683E+03  1.42426E+03 -3.32726E+03
 -1.22208E+03 -5.45643E+02 -1.55723E+03  6.26426E+02  3.92724E+03  1.39784E+02  1.30936E+03  8.79973E+02
  2.08857E+03  2.01323E+03 -2.31324E+03  3.55716E+03 -6.19645E+02 -1.67737E+03  3.02444E+03 -9.30423E+02
  9.64553E+02 -1.36545E+03  1.16041E+03  2.02619E+03 -1.34490E+02  4.28548E+03  6.05546E+02  5.23702E-01
 -3.20990E+03 -1.41245E+03  3.09898E+02 -1.08919E+03 -3.63954E+03  2.01387E+03 -1.68564E+03  4.36454E+03
  2.86185E+03  9.88104E+02  6.33384E+02 -2.66529E+03  1.26000E+02 -1.54878E+02 -8.17120E+02  5.00742E+02
  3.89507E+03  1.17018E+03 -1.21372E+03  4.52609E+02 -1.04270E+03  3.23728E+03 -2.87553E+03 -5.20245E+02
  3.04410E+02 -2.56864E+03 -4.66019E+03  8.12995E+02 -6.97830E+02 -1.15643E+03 -2.20386E+03  8.27220E+02
  2.82564E+03 -4.13666E+03 -1.43099E+03 -3.42194E+03  3.18174E+03  4.42250E+03  3.45196E+03  1.63804E+02
  7.14590E+02 -1.08291E+03  1.97604E+03  7.81965E+02 -5.40899E+02  9.70960E+02 -7.36215E+02  3.28202E+03
 -3.35111E+02 -2.40842E+03  1.24534E+02  7.18048E+02  2.19301E+03 -3.51334E+03 -1.86525E+03 -2.40347E+03
 -2.21473E+03 -2.99331E+03 -8.95442E+02  7.74038E+02 -2.34571E+03  5.27764E+02 -3.29913E+03  3.74725E+02
  1.16133E+03  1.95190E+03 -2.70087E+03  3.13786E+03 -1.40758E+02 -9.20186E+02 -2.42793E+02  2.55104E+02
  1.56155E+03 -2.07915E+03 -4.72999E+03  9.78018E+02 -3.73474E+03 -9.89357E+02  1.03950E+03  1.04193E+02
  3.32263E+03 -8.17088E+02 -8.95814E+02 -2.44964E+03  2.65176E+03  3.50728E+02  2.80008E+03  9.68903E+02
 -3.12646E+02  5.00739E+03 -8.86351E+02 -1.10848E+03  3.22978E+03  9.66918E+02 -1.15142E+03  2.25582E+03
 -1.11939E+03 -9.07814E+02 -2.82414E+03 -4.71140E+03  3.95397E+02 -3.49568E+03 -3.10553E+02 -1.38734E+03
 -5.37943E+03 -1.18592E+03  4.68184E+03  2.13657E+03 -3.98133E+03  3.44304E+03 -2.48357E+03 -2.72375E+03
 -1.33770E+03 -4.26344E+02  1.79699E+02  1.36569E+03 -8.11450E+02  1.56069E+03 -9.25243E+02  2.00902E+03
 -4.16405E+02 -2.43284E+03 -2.69667E+03  2.94568E+03 -3.15492E+03  1.87396E+03  1.88041E+03  1.37462E+03
  1.77352E+03  2.53622E+03  3.76780E+02 -1.75216E+03  4.99504E+03 -4.00070E+03  5.00933E+02  5.05305E+03
 -3.76394E+03  2.13628E+03 -3.43979E+03 -2.48436E+03  3.67699E+03 -1.62003E+03 -6.24589E+02  2.32245E+03
  1.99976E+03  5.09070E+02 -5.91780E+02 -6.26979E+02  3.36129E+03  1.95911E+03  5.08463E+02 -1.65562E+03
