 $NMID ID='MM_0lb_SNR50_17hz_g50_13.RAW', FMTDAT='(8E13.5)'
 TRAMP=1., VOLUME=1. $END
  3.12352E+05  4.07132E+03  3.33300E+05  2.46846E+05  8.50693E+04  3.41398E+05 -1.35671E+05  2.46016E+05
 -1.92042E+05  8.06435E+04 -1.09271E+05 -3.01021E+04  3.08394E+03 -5.02364E+04  5.75994E+04  6.15898E+02
  3.21197E+04  5.37754E+04 -1.55488E+04  7.43164E+04 -6.25029E+04  6.16963E+04 -7.98394E+04  2.83639E+04
 -8.03753E+04 -7.83758E+03 -5.46321E+04 -5.10986E+04 -1.63730E+04 -6.39402E+04  2.22183E+04 -4.91625E+04
  3.56910E+04  7.28818E+03  1.61904E+04  4.99484E+04 -2.87822E+04  4.77317E+04 -7.13971E+04 -7.14134E+02
 -5.32090E+04 -5.66166E+04 -2.38570E+03 -7.47718E+04  3.80525E+04 -5.76996E+04  4.52611E+04 -1.19556E+04
  4.09074E+04  8.78086E+03  3.08382E+04  2.54076E+04  1.19492E+04  3.23479E+04 -7.65553E+03  2.75187E+04
 -2.24808E+04  1.43777E+04 -1.71533E+04 -6.39145E+02  5.93718E+03 -8.51103E+03  2.04546E+04  1.30157E+04
  7.43362E+03  3.43637E+04 -2.75838E+04  3.72385E+04 -6.16698E+04 -8.58141E+02 -5.18864E+04 -4.21758E+04
 -7.03780E+03 -5.74454E+04  3.95248E+04 -4.32900E+04  5.76627E+04 -3.08484E+02  2.95473E+04  2.80119E+04
 -6.91866E+03  3.52093E+04 -3.19318E+04  1.55866E+04 -2.64914E+04 -4.66028E+03 -1.52895E+04 -6.68455E+03
 -7.63548E+03 -1.13500E+04 -1.56970E+03 -1.45550E+04  3.96888E+03 -2.35512E+04  1.00841E+04 -1.21083E+04
  1.16615E+04  4.05963E+02 -7.26131E+03  1.30885E+04 -1.76446E+04  9.98449E+02 -6.79482E+03 -3.18777E+04
  2.18160E+04 -4.22598E+04  4.80427E+04 -1.53281E+04  4.27933E+04  1.73362E+04  1.51626E+04  4.17058E+04
 -1.59248E+04  3.58683E+04 -2.07919E+04  3.01694E+02 -8.88395E+03 -2.39252E+04  1.74054E+04 -3.42422E+04
  4.22970E+04 -1.12324E+04  3.48161E+04  2.22104E+04  2.09953E+04  3.99127E+04 -8.30252E+03  4.37205E+04
 -2.78851E+04  3.21642E+04 -3.69168E+04  5.83575E+03 -4.01709E+04 -1.72897E+04 -2.23548E+04 -3.77806E+04
  8.05596E+03 -4.08112E+04  2.88990E+04 -1.28253E+04  2.74194E+04  1.16099E+04  9.59214E+02  1.81087E+04
 -1.50580E+04  7.03167E+03 -1.04718E+04 -9.20466E+03  6.76262E+03 -1.56007E+04  2.02978E+04  7.36057E+03
  1.30722E+04  2.23340E+04 -8.32517E+03  2.54637E+04 -2.12965E+04  4.17273E+03 -2.70067E+04 -1.17075E+03
 -1.82928E+04 -1.26623E+04 -9.12537E+03 -1.87284E+04  2.61838E+03 -1.57081E+04  1.33927E+04 -1.57868E+04
  1.79650E+04 -1.42343E+04  3.03330E+04  3.92462E+03  2.07508E+04  1.92868E+04  4.33134E+03  3.40022E+04
 -1.43719E+04  2.48666E+04 -2.60134E+04  8.98518E+03 -1.78233E+04 -1.11172E+04 -6.39220E+03 -1.51423E+04
  2.21419E+03 -7.37588E+03 -3.19632E+03  8.98220E+03 -1.70370E+04  5.47380E+03 -1.44857E+04 -2.64637E+03
 -8.62479E+03 -1.80961E+04  3.72319E+03 -1.59931E+04  1.62719E+04 -1.71335E+04  1.49351E+04 -2.94886E+03
  1.07079E+04  1.17098E+04 -1.16109E+03  1.71041E+04 -1.53652E+04  1.26750E+04 -1.32838E+04 -1.56107E+03
 -1.54838E+04 -1.56083E+04 -3.80536E+03 -2.73732E+04  5.12733E+03 -1.48428E+04  1.76710E+04 -3.87255E+03
  1.22679E+04 -8.06852E+01  1.51426E+04  3.89206E+03  3.24518E+03 -5.82339E+01  9.96008E+03 -4.88835E+03
  1.63637E+04  8.45160E+02  1.84722E+04  1.31762E+04  7.92919E+03  2.80194E+04 -4.25625E+03  2.79960E+04
 -1.55971E+04  2.16107E+04 -2.28759E+04  1.07779E+04 -3.17982E+04 -2.01714E+03 -2.04705E+04 -1.86932E+04
 -7.43910E+03 -1.96397E+04  3.99964E+03 -1.90207E+04  1.79836E+04 -1.13933E+04  1.45375E+04  3.72889E+03
  6.49316E+03  1.36389E+04 -8.70144E+03  7.19825E+03 -1.23568E+04  4.34073E+02 -1.30498E+04 -1.07738E+04
  5.86600E+02 -1.42786E+04  9.44917E+03 -9.19790E+03  9.00546E+03  1.11922E+03  3.46932E+03  3.38510E+03
 -8.55000E+03  1.38076E+03 -3.01050E+03 -7.22968E+03 -1.24211E+03 -8.77064E+03  1.23729E+04 -1.13717E+04
  1.18036E+04 -1.32659E+03  1.64004E+04  6.07297E+03  1.19982E+04  7.67487E+03  3.74765E+03  1.74705E+04
 -2.63039E+02  1.96408E+04 -9.57517E+03  9.44734E+03 -9.93071E+03  5.95648E+03 -8.00821E+03  9.08007E+02
 -5.81090E+03 -6.82600E+03 -3.74702E+03 -3.70872E+01 -2.58121E+03  5.93740E+02 -1.02151E+04  8.69645E+03
 -1.19185E+04 -2.39233E+03 -1.04010E+04 -7.78742E+03  2.19597E+02 -1.48063E+04  4.73484E+03 -1.17056E+04
  1.04561E+04 -4.81948E+03  8.03132E+03  6.01219E+03 -1.79985E+03  2.39635E+03 -4.34835E+03  1.20269E+03
 -1.95540E+03 -8.00452E+03  9.18205E+02 -8.12884E+03  3.61793E+03 -1.15225E+04  1.28391E+04 -6.27579E+03
  1.30046E+04 -1.04373E+03  1.07168E+04  5.92071E+03  2.86266E+03  1.03088E+04 -8.81285E+03  6.35850E+03
 -7.69319E+03  1.76706E+03 -2.28013E+03 -1.92545E+03  5.93442E+03 -3.20875E+03  1.50445E+03  3.11933E+02
  3.88769E+03  5.31059E+03 -3.70675E+03  7.03753E+03 -5.51751E+02  5.33815E+03 -9.30557E+03  3.61501E+03
 -6.87572E+03 -6.49809E+03 -4.40910E+03 -5.97966E+03  5.56460E+03 -5.41103E+03  1.92345E+03  5.48288E+02
  2.30680E+01  7.32766E+03 -3.91940E+03  8.17840E+03 -4.47962E+03  3.78160E+03 -5.64581E+03  4.11370E+03
 -4.43736E+03 -7.04756E+03  2.34844E+03 -1.07552E+04  1.46293E+03 -7.44317E+03  4.39333E+03 -1.65594E+03
  6.16444E+03  3.82034E+03  4.96069E+02  4.33673E+03 -6.11125E+03  4.69743E+03 -3.88397E+03 -1.37838E+03
 -6.29507E+03 -9.34873E+03 -2.15741E+03 -8.25814E+03  2.02945E+03 -6.54075E+03  2.60790E+03 -3.13693E+03
  7.21101E+02  5.66553E+02  5.93414E+02  3.36499E+03  2.39429E+03  1.66521E+03 -2.10987E+02 -4.70282E+02
  5.40042E+03 -1.47969E+03  7.94597E+03 -3.90675E+01  8.59184E+03 -2.50859E+02  7.09380E+03  9.92962E+03
 -3.24662E+03  8.03241E+03 -9.10728E+03  8.40840E+03 -1.28783E+04  1.66831E+03 -1.01328E+04 -5.07398E+03
 -2.66514E+03 -6.76331E+03  3.07055E+03 -5.31899E+03  3.05051E+03 -4.79677E+03  2.56861E+03 -3.75103E+03
 -7.74726E+02 -3.16344E+03  8.99331E+02 -5.08773E+03 -1.42659E+03 -3.33131E+03  2.00219E+03  1.17578E+03
  5.35100E+03 -1.10008E+03 -8.19715E+01  4.38270E+03  1.45908E+03  1.30795E+03 -2.55259E+03  8.41707E+02
 -3.91270E+03 -2.68389E+03 -9.82665E+02 -3.39387E+03 -3.64468E+03 -4.63128E+03  4.12198E+03 -1.00437E+04
  3.93656E+03 -6.82873E+03  1.21884E+04 -6.29535E+02  7.72603E+03  7.36094E+03  3.93171E+03  6.86527E+03
 -4.17991E+03  5.62671E+03 -4.72298E+03  1.79842E+03 -1.27383E+03 -3.13264E+03  8.99037E+02 -1.96697E+03
  2.35614E+03  4.02282E+03  5.83733E+03  1.25909E+03  1.11963E+03  2.02634E+03 -3.08716E+03 -1.71061E+03
 -1.91723E+03 -4.52052E+03 -1.29773E+03 -4.35492E+03  7.82766E+03 -1.59295E+03  5.79071E+03 -1.67724E+03
  6.33235E+03 -1.21572E+03  5.10375E+03  2.24490E+03  9.56116E+02  6.60309E+03  1.84427E+03  9.44354E+03
 -3.37185E+03  2.86140E+03 -3.41933E+03 -2.99189E+03  1.86424E+03  1.67108E+03  4.47398E+03 -2.19114E+03
  4.15467E+03 -5.87704E+03  6.99926E+03  1.84992E+03  4.32884E+03  3.59439E+03 -4.67121E+03  2.17674E+03
  1.59155E+03  3.67780E+03  1.24978E+03  3.96239E+03  1.07397E+03  2.71728E+03  3.69279E+03  2.40079E+03
 -2.30079E+03  2.13098E+03 -4.93366E+03  5.10959E+03 -5.95664E+03  3.82128E+03 -1.00101E+03  1.60629E+03
 -3.32653E+03 -6.68504E+03  1.93939E+03 -8.08397E+03  1.96124E+03 -4.27124E+03  7.18134E+03  5.81331E+02
  9.94278E+02  7.71866E+02  1.79748E+03  4.35790E+03 -1.53608E+03  2.64766E+03  1.21960E+03  6.96262E+01
 -7.98743E+02 -2.76933E+02  5.41644E+03  6.38575E+02  4.58378E+03  1.09361E+03  7.73936E+03 -9.70570E+02
  3.05075E+03 -2.47746E+02  4.42337E+03  2.02905E+03 -2.08081E+03  5.97914E+02  4.00207E+01 -8.89509E+02
 -9.46515E+02 -3.48096E+03  2.14541E+03  2.30966E+03 -2.90019E+03 -1.59211E+02 -1.10202E+03 -1.74607E+03
  1.19660E+03  1.58567E+02  4.43061E+02 -1.54775E+03 -6.69033E+03 -3.28209E+03 -2.78209E+01 -1.81596E+03
  1.16870E+03 -1.87596E+03  1.48666E+03 -2.91577E+02 -3.81928E+02  4.78661E+02  5.00066E+02 -2.61814E+02
 -2.85621E+03  9.23330E+02 -3.67823E+03 -8.87080E+02 -4.26664E+03 -2.24549E+03 -2.12042E+03  1.15918E+03
  4.40312E+03  6.43194E+02 -6.76104E+01 -3.77759E+03 -1.01604E+03  2.23792E+03 -1.73043E+02  5.12209E+03
 -3.40859E+02  5.96020E+03 -1.52775E+03  1.86882E+03  4.37302E+03 -3.40959E+03  6.17223E+03  2.58759E+03
  4.66234E+02 -1.09296E+03  2.87598E+03  6.38010E+03  5.51052E+03  1.13470E+03  2.03464E+03  5.08136E+03
 -2.56103E+03  2.80524E+03 -4.37165E+03  2.31383E+03 -3.19746E+03 -3.75483E+03 -7.71105E+02  2.63372E+03
  1.09449E+02 -2.85941E+03  2.69089E+03  1.53708E+03  7.81239E+02  2.32972E+02 -4.25116E+03  1.71143E+03
 -3.26733E+03 -9.65994E+02  3.33261E+03 -1.12660E+03 -2.47092E+03 -1.54856E+02 -2.37945E+02 -3.56844E+02
 -1.02429E+03  4.90100E+03 -2.22263E+03  2.21093E+03 -2.59500E+03  3.78675E+03 -5.10462E+01 -5.24906E+02
 -1.82479E+03 -1.46675E+03  1.20185E+03 -1.08204E+03 -3.67214E+02 -5.09032E+03  5.48745E+03  1.45199E+03
  7.55984E+03 -5.58193E+03 -3.73091E+01  1.64703E+03 -2.41207E+03  1.37525E+03 -2.53687E+02  5.59420E+02
  3.91456E+02  2.83722E+03 -1.25810E+03 -3.12585E+02  2.95526E+03  7.24625E+02  1.43416E+03  1.31878E+03
 -2.14453E+03  2.79543E+03  3.96831E+02  1.32785E+03  5.32706E+02 -9.54474E+01  3.98004E+03 -1.84508E+03
  2.88299E+03  1.46204E+03  2.57397E+03 -7.48104E+02  3.53696E+03  5.59779E+03 -6.02826E+02  2.89170E+03
 -4.10077E+03  5.24392E+03 -3.98057E+03  3.44598E+03 -6.00011E+03  2.31415E+03 -1.58541E+03 -1.65015E+03
  2.13971E+03  2.23587E+01  3.51755E+03 -3.65942E+03  1.10810E+03 -5.24586E+03  2.20811E+03  3.90140E+03
 -2.83072E+03 -2.57904E+03 -2.47177E+03 -4.96153E+02 -2.87111E+03 -3.57881E+03 -1.94431E+03 -7.01462E+02
  2.03818E+03  3.34135E+03 -2.83292E+03  8.92385E+02  1.85105E+03 -2.17226E+02  1.20272E+03  2.18115E+03
 -3.04630E+03 -2.19713E+03  1.10454E+03 -7.01328E+02  2.65509E+03 -1.61436E+03  2.75883E+03 -1.39954E+03
 -3.70025E+02 -2.23600E+03 -1.94878E+03  2.80065E+03  4.12324E+03  5.72200E+03 -2.20688E+03  4.84761E+02
  1.66196E+03  1.44490E+03  3.32998E+03 -6.28725E+02 -3.15613E+03  5.96754E+01 -2.66780E+03  3.55437E+03
  2.63870E+03 -7.18079E+03  1.02234E+03 -9.01981E+02 -1.85424E+03  3.46791E+03 -4.18727E+03 -1.26495E+02
  2.34426E+03  1.82910E+03  2.96911E+02  6.62223E+02  3.01192E+03 -5.16089E+03  6.80709E+02 -3.99135E+03
  2.21955E+03  1.47367E+03 -1.37009E+03 -3.16458E+03  1.89291E+03  3.92148E+02 -2.32233E+03 -3.74545E+02
