 $NMID ID='MM_0lb_SNR50_15hz_g55_55.RAW', FMTDAT='(8E13.5)'
 TRAMP=1., VOLUME=1. $END
  3.13744E+05 -2.42048E+03  3.35006E+05  2.50014E+05  8.89220E+04  3.37258E+05 -1.30827E+05  2.50991E+05
 -1.87096E+05  8.32725E+04 -1.13043E+05 -3.41535E+04 -1.98516E+03 -4.56820E+04  5.17470E+04 -8.80273E+02
  3.76594E+04  4.80933E+04 -1.91565E+04  7.60729E+04 -6.00316E+04  7.05665E+04 -8.31346E+04  3.76432E+04
 -8.25627E+04 -1.12078E+04 -5.80292E+04 -5.22907E+04 -1.58343E+04 -6.76288E+04  2.39891E+04 -5.11497E+04
  4.19200E+04  8.89199E+03  1.68056E+04  5.08912E+04 -3.47514E+04  4.61770E+04 -6.42519E+04  3.06497E+03
 -5.15806E+04 -5.82837E+04 -4.25865E+03 -7.49082E+04  3.58597E+04 -5.62518E+04  4.60767E+04 -1.50690E+04
  4.28376E+04  7.74188E+03  2.83311E+04  2.20738E+04  1.42463E+04  2.88133E+04 -4.08084E+03  2.83599E+04
 -1.93379E+04  1.01388E+04 -1.54965E+04 -5.32950E+03  5.98267E+03 -8.84025E+03  2.41369E+04  1.41596E+04
  8.75247E+03  3.75076E+04 -3.65951E+04  3.19367E+04 -6.44509E+04  5.24644E+03 -5.07648E+04 -4.63088E+04
 -1.56520E+04 -6.32843E+04  4.17904E+04 -4.88342E+04  5.75135E+04  7.59781E+02  3.23675E+04  2.89866E+04
 -5.79954E+03  3.99518E+04 -3.14987E+04  1.37742E+04 -3.08273E+04 -4.82934E+02 -1.87694E+04 -1.13129E+04
 -4.57462E+03 -1.84797E+04  1.18031E+03 -1.56697E+04  1.22459E+04 -2.39845E+04  1.30344E+04 -1.32073E+04
  1.06561E+04  5.91010E+03 -1.25608E+04  1.11255E+04 -2.05085E+04 -8.74082E+01 -1.03700E+04 -3.63281E+04
  2.64407E+04 -3.96072E+04  4.70353E+04 -1.75775E+04  4.35964E+04  1.49917E+04  1.48357E+04  4.88535E+04
 -1.77941E+04  2.67107E+04 -2.07015E+04  7.25713E+02 -9.81348E+03 -2.83256E+04  1.97162E+04 -3.47633E+04
  4.26383E+04 -7.14288E+03  3.29015E+04  2.02381E+04  1.95118E+04  4.68484E+04 -7.61047E+03  4.80334E+04
 -3.03841E+04  3.21692E+04 -4.33539E+04  4.54423E+03 -4.05147E+04 -1.52590E+04 -2.34217E+04 -3.55728E+04
  8.49891E+03 -3.88264E+04  3.34270E+04 -1.31681E+04  2.87718E+04  9.06480E+03  6.47528E+03  1.76366E+04
 -1.20463E+04  1.09149E+04 -1.16283E+04 -1.00128E+04  4.67348E+03 -8.70811E+03  1.70728E+04  4.56757E+03
  1.46408E+04  2.35503E+04 -8.70797E+03  2.60297E+04 -2.15636E+04  1.18120E+04 -2.78563E+04 -3.99330E+03
 -2.14396E+04 -1.62081E+04 -8.30043E+03 -1.75453E+04  2.92580E+03 -1.70137E+04  1.94488E+04 -2.05153E+04
  2.70508E+04 -1.22957E+04  3.43916E+04  3.48099E+02  2.84498E+04  1.92958E+04  4.03834E+03  3.34073E+04
 -1.40892E+04  3.09624E+04 -3.21410E+04  6.31432E+03 -1.92346E+04 -7.75621E+03 -2.26760E+03 -1.78903E+04
  6.05208E+03 -2.18792E+03 -1.63454E+03  1.01766E+04 -1.58019E+04  4.18869E+03 -1.17650E+04 -8.84736E+03
 -1.49065E+04 -1.91361E+04  3.47618E+03 -2.24580E+04  1.44576E+04 -1.46620E+04  1.43190E+04  1.94595E+02
  1.06919E+04  1.23685E+04 -3.51235E+03  2.07719E+04 -1.49382E+04  1.10256E+04 -1.83777E+04 -3.48751E+03
 -1.42780E+04 -2.19034E+04 -1.88361E+03 -1.90090E+04  9.74706E+03 -1.66425E+04  1.99202E+04 -9.45057E+03
  1.49073E+04  3.10065E+03  1.27684E+04  5.89225E+03  7.79904E+03  6.43352E+02  1.07556E+04  1.35068E+03
  1.86934E+04  4.24006E+03  1.85681E+04  1.81681E+04  1.59226E+04  2.76191E+04 -3.37379E+03  3.52773E+04
 -1.81958E+04  2.68114E+04 -3.48405E+04  1.49291E+04 -3.27067E+04 -5.51530E+03 -2.17776E+04 -1.77144E+04
 -1.51055E+04 -3.16932E+04  9.97520E+03 -2.35281E+04  2.29716E+04 -1.44077E+04  1.98354E+04  7.38420E+03
  6.52435E+03  1.94230E+04 -1.25091E+04  1.90359E+04 -1.60119E+04 -2.25635E+03 -1.44642E+04 -1.07835E+04
 -3.15391E+02 -1.65480E+04  6.17300E+03 -6.02408E+03  1.16345E+04 -1.67380E+03 -2.73593E+03  9.33212E+03
 -7.71391E+03  1.00712E+03 -6.14963E+03 -7.46462E+03 -2.84968E+03 -1.16783E+04  2.87299E+03 -1.51154E+04
  1.02143E+04 -9.63000E+03  2.41973E+04  1.50892E+03  1.36425E+04  1.45394E+04  9.03513E+03  2.01030E+04
  3.91441E+02  2.29083E+04 -1.33206E+04  1.18316E+04 -1.91345E+04 -1.01818E+03 -1.36933E+04 -2.57469E+03
 -6.12529E+03 -3.14666E+03 -3.79090E+03 -2.20461E+03 -3.10733E+03 -2.69022E+03 -3.44172E+03  5.44860E+03
 -7.66007E+03 -2.10900E+01 -8.34441E+03 -7.65499E+03 -4.06671E+03 -1.03092E+04  5.74949E+03 -1.27983E+04
  1.79732E+04 -3.32338E+02  1.06757E+04  2.92781E+03  4.32902E+03  9.20150E+03 -2.35477E+03  2.62998E+03
 -7.74290E+03 -3.94076E+03 -6.05878E+02 -1.26584E+04  2.97891E+03 -8.92924E+03  1.34849E+04 -3.72311E+03
  2.17940E+04  5.15170E+03  1.06520E+04  5.24512E+03  3.69291E+03  9.19158E+03 -4.11363E+03  7.89740E+03
 -7.45214E+03  5.09344E+03 -1.62662E+03  2.06174E+03  4.48249E+03 -6.91726E+03  7.68693E+03 -2.26630E+03
  7.34761E+03  8.08325E+03  2.62322E+03  7.28410E+03 -3.53361E+03  7.38305E+03 -1.14074E+04  2.42072E+03
 -6.64986E+03 -6.87402E+03  2.21274E+03 -8.43779E+03  7.38700E+03 -1.76866E+03  7.35191E+03  1.34639E+03
  2.58915E+03  3.51966E+03 -5.38023E+03  6.27082E+03 -5.93995E+03 -1.07948E+03 -8.57750E+03 -6.50425E+03
 -5.67504E+02 -8.07131E+03  5.13486E+03 -1.56266E+04  9.42100E+03 -9.79977E+03  1.13626E+04 -5.17901E+03
  1.06959E+04  6.82571E+03 -2.43084E+03  8.46016E+03 -6.25787E+03  2.06228E+03 -3.43889E+03 -1.27633E+03
 -7.34750E+03 -9.21280E+03  6.05171E+02 -9.27797E+03  6.38384E+03 -3.29788E+03 -9.75965E+02 -1.58602E+03
  3.56491E+03  9.29286E+02 -1.80262E+03  3.37106E+03 -2.16785E+02 -4.60566E+03 -2.35924E+03 -2.66339E+03
  6.67151E+03 -2.30757E+03  6.70337E+03  1.38168E+03  6.95253E+03  6.79038E+03  2.82578E+03  1.25017E+04
 -4.83955E+03  1.47134E+04 -5.36184E+03  1.55428E+04 -1.58173E+04  1.28862E+03 -1.20533E+04 -6.26536E+03
 -6.10842E+03 -7.28285E+03  4.19526E+03 -9.03492E+03  3.76396E+03 -8.87017E+03  1.58574E+03 -6.88723E+03
 -2.49136E+02 -2.71757E+03  5.99661E+03 -4.25910E+03  1.54759E+03 -4.48289E+03  5.54080E+03 -1.56355E+03
  3.63618E+03  1.89758E+03  4.06190E+03  5.76229E+03  4.74882E+03  4.07141E+03 -9.20475E+03  6.35576E+03
 -7.33655E+03 -4.29316E+03 -8.79600E+03 -1.78852E+03 -9.37421E+01 -7.89633E+03  5.93562E+03 -1.29607E+04
  8.01039E+03 -6.62714E+03  9.87185E+03  2.40102E+03  5.22450E+03  5.23047E+03  1.49847E+03  1.27150E+04
 -5.99738E+03  6.68279E+03 -6.79674E+03  3.12532E+03 -8.38964E+02 -5.84420E+03  8.56254E+02  2.71096E+03
 -8.35558E+02  1.39078E+03 -5.01868E+03 -2.25985E+03 -4.67028E+03 -5.39139E+02 -8.63749E+03 -3.67962E+03
 -8.24334E+03 -3.75370E+03 -4.38388E+03 -5.17106E+03  3.52356E+03 -1.08740E+03  4.71181E+03 -5.22376E+03
  7.16069E+03  2.43372E+03  4.67938E+03  9.08314E+03 -5.63562E+03  7.34921E+03 -2.69487E+03  6.46546E+03
 -1.46269E+03  7.09354E+02 -3.26962E+03 -1.05226E+04 -5.12103E+03 -6.38449E+03  3.09016E+02 -4.40569E+03
  3.49335E+03 -1.98519E+03  1.92153E+03  4.77442E+02  7.89394E+00  1.83347E+03  9.16351E+02  3.65920E+03
 -1.55471E+02  9.52758E+02  1.69523E+03  2.31819E+03  2.46508E+03  7.95916E+03  3.26620E+03  5.54417E+03
 -2.61486E+03  5.31359E+03 -2.17521E+03  7.88715E+03 -8.39549E+03  6.42765E+03 -9.34836E+03 -5.57518E+03
 -3.01816E+03 -3.29846E+03 -8.60446E+01 -5.15652E+03  6.67271E+02 -5.14079E+03  6.14040E+03 -4.40631E+03
  6.74790E+03  2.22153E+03 -8.67071E+02  3.24384E+03 -8.05268E+03 -2.29417E+03 -1.01421E+03 -2.19092E+02
 -1.85802E+03 -1.64623E+03  2.27229E+03 -2.23482E+03  1.46028E+03  7.65160E+02  4.14140E+03  1.91169E+03
 -1.18259E+03 -3.12013E+03  1.21666E+03  3.53810E+03 -9.48751E+02  3.40859E+03 -8.01048E+02 -3.75182E+02
 -1.86708E+03  2.86721E+02  4.49075E+03 -2.24694E+02  2.26530E+03  6.02054E+03 -3.54720E+03  9.80807E+03
 -3.84842E+03  3.27767E+03 -5.42631E+03  1.64886E+03  4.40303E+03 -2.05300E+03 -1.35514E+03  1.06302E+03
  3.94515E+03 -1.29424E+03  2.21821E+03  6.62897E+01  3.74934E+03  2.74559E+03  8.86857E+00  3.96832E+03
 -2.61450E+03 -5.05278E+03 -1.60988E+03 -1.33131E+03  9.44298E+02 -3.98301E+03  2.40767E+03 -8.63112E+03
 -9.65315E+02 -1.87906E+02 -2.17483E+03 -1.28384E+03  4.89114E+02 -4.93129E+02 -4.23104E+03  1.28126E+03
 -1.37184E+03 -8.36260E+02 -6.38930E+02 -3.81944E+03  3.66461E+03  4.33564E+02  9.48328E+02 -5.26162E+03
  7.81988E+03  8.38733E+02  2.84829E+03  8.92687E+02  5.37229E+03  8.64053E+03 -3.65673E+03  6.22277E+03
 -2.58576E+03  1.09334E+02 -6.28241E+03  6.04495E+02 -1.54535E+02 -9.11168E+03 -4.37273E+03 -2.84730E+02
  2.86443E+02 -3.36576E+03  2.97556E+03  2.66046E+03  1.92242E+03  1.15534E+03  1.40727E+03  6.15082E+03
 -9.55248E+02  4.61651E+03  6.64737E+02 -4.12990E+01  1.32061E+03 -2.60712E+03 -4.25035E+03  6.81154E+03
 -2.74165E+03  2.95931E+03 -2.69515E+02 -1.54390E+02  2.74027E+03 -2.88002E+03 -9.72742E+03 -5.03369E+03
 -3.39503E+03 -4.66916E+03 -1.98745E+02 -5.67200E+03  1.00546E+03  1.88361E+03  1.48091E+03 -1.24320E+03
  5.68869E+03  4.54756E+03  4.28612E+03  1.95324E+02 -3.14123E+03  4.63702E+03 -4.18658E+03  1.48445E+03
 -3.74646E+03 -4.35647E+03 -2.64309E+03 -4.29027E+01  3.70388E+02  1.05010E+03  4.29316E+02  3.28563E+02
 -1.38003E+03  1.63981E+03  1.11011E+03 -1.50026E+02  2.90162E+02  1.60662E+03  6.26953E+03 -7.26225E+02
  2.10172E+03 -1.13192E+03 -1.79020E+03 -7.46043E+02  2.54816E+03 -3.84694E+02 -2.00021E+03  8.12397E+02
 -3.19263E+03  2.73743E+03 -2.43438E+03  1.38893E+02 -8.97431E+02  6.97964E+03 -4.62629E+02 -6.25151E+03
 -7.22986E+02 -2.66408E+03 -3.08410E+03 -3.83163E+03  5.56352E+03  1.30847E+03  8.67223E+03  3.48993E+03
  4.67654E+03  6.79549E+02 -1.33165E+03  3.79264E+03 -2.90833E+03  7.98623E+02  1.77121E+03  2.31049E+03
 -2.09720E+03 -1.55525E+03  5.46579E+03  1.89277E+03  2.43672E+03 -6.02412E+02 -2.58556E+03  4.02189E+03
  2.32080E+03 -6.20565E+02 -3.58461E+03 -9.97064E+02 -1.53662E+03 -1.73469E+03  2.99555E+03 -4.35576E+03
  1.52656E+03 -3.73967E+03  3.99609E+03  6.09285E+02  3.73448E+03  3.09486E+03  2.67229E+03  3.22802E+03
 -2.62074E+03  2.07656E+03  1.55022E+02  3.92796E+03  1.83951E+03 -3.42263E+03 -2.31098E+03 -1.40361E+02
  1.90795E+03  4.35711E+03 -4.75461E+03  7.29574E+02  3.42477E+03  1.65787E+03 -3.05295E+03  1.03657E+03
 -4.20662E+03 -2.43820E+03  2.15667E+03 -1.91354E+03  4.78458E+03 -4.02317E+03  5.81781E+02  4.77579E+03
  5.69821E+03 -3.66635E+03 -6.29753E+02  2.37769E+03 -3.16954E+03  5.47014E+03 -1.03493E+03 -2.02997E+03
