 $NMID ID='MM_0lb_SNR50_18hz_g55_86.RAW', FMTDAT='(8E13.5)'
 TRAMP=1., VOLUME=1. $END
  3.11610E+05  7.72303E+02  3.36085E+05  2.51044E+05  8.47065E+04  3.37529E+05 -1.31470E+05  2.48674E+05
 -1.87220E+05  8.25951E+04 -1.13489E+05 -3.78246E+04  3.62189E+03 -5.15148E+04  5.43849E+04 -9.78188E+02
  3.23179E+04  5.49193E+04 -1.31594E+04  7.26281E+04 -6.09694E+04  6.26350E+04 -8.55655E+04  2.87201E+04
 -7.90518E+04 -1.41339E+04 -5.61106E+04 -4.97943E+04 -1.37338E+04 -7.15261E+04  2.75012E+04 -4.70299E+04
  3.84247E+04  6.04870E+03  1.86244E+04  5.09145E+04 -3.36904E+04  4.61436E+04 -6.64514E+04  6.60963E+02
 -5.05189E+04 -5.72325E+04 -3.03867E+03 -7.68065E+04  3.59899E+04 -5.37276E+04  5.02558E+04 -1.83418E+04
  4.74811E+04  1.38468E+04  3.52017E+04  2.70420E+04  1.56757E+04  2.82830E+04 -6.28124E+03  2.74148E+04
 -1.90078E+04  1.34782E+04 -1.95993E+04 -4.42828E+03  2.14596E+03 -9.89923E+03  2.19325E+04  9.75025E+03
  8.61842E+03  3.25464E+04 -2.99331E+04  3.26477E+04 -6.29470E+04  1.16477E+03 -5.09425E+04 -4.57750E+04
 -1.12110E+04 -6.01088E+04  3.94039E+04 -4.50133E+04  5.79446E+04 -2.40096E+03  3.48543E+04  2.99462E+04
 -7.73488E+03  3.33674E+04 -3.00686E+04  9.97814E+03 -3.07587E+04 -6.05803E+03 -1.29715E+04 -8.42495E+03
 -7.17450E+03 -1.32598E+04 -3.73123E+03 -1.46670E+04  7.55299E+03 -2.23179E+04  1.46603E+04 -1.41626E+04
  1.19087E+04  4.28952E+03 -1.03424E+04  1.73179E+04 -2.39101E+04 -4.90341E+03 -7.63288E+03 -3.20643E+04
  2.11610E+04 -4.08455E+04  4.60228E+04 -2.18810E+04  4.29392E+04  2.47177E+04  9.52646E+03  4.41272E+04
 -1.68017E+04  2.98988E+04 -2.85518E+04 -1.04091E+03 -1.21743E+04 -2.54707E+04  2.07272E+04 -3.27837E+04
  3.92572E+04 -7.61720E+03  3.35795E+04  2.44258E+04  1.68047E+04  4.83597E+04 -7.55558E+03  4.46785E+04
 -3.15768E+04  2.68641E+04 -4.30904E+04  1.11562E+04 -4.41309E+04 -1.55444E+04 -2.58765E+04 -3.47996E+04
  9.67641E+03 -3.94596E+04  2.78536E+04 -1.48004E+04  2.86449E+04  7.94149E+03  2.27726E+03  1.49212E+04
 -1.65911E+04  5.72277E+03 -7.75826E+03 -5.86974E+03  6.09606E+03 -1.06382E+04  1.51650E+04  4.92902E+03
  1.43285E+04  2.01619E+04 -5.23830E+03  2.31117E+04 -2.30863E+04  9.53853E+03 -2.51402E+04 -3.75908E+03
 -1.65428E+04 -1.77902E+04 -7.60587E+03 -1.75529E+04  2.89575E+03 -1.35884E+04  1.30096E+04 -1.69483E+04
  2.45731E+04 -1.20272E+04  2.97887E+04 -1.15454E+03  2.26210E+04  1.74750E+04  1.78164E+03  3.45697E+04
 -1.62264E+04  2.77059E+04 -2.20607E+04  8.34299E+03 -2.31408E+04 -9.56236E+03 -3.86407E+03 -1.58147E+04
  7.73952E+02 -5.03200E+03 -3.32172E+03  5.38719E+03 -1.46582E+04  6.77716E+03 -1.69590E+04 -5.22731E+03
 -9.16537E+03 -1.80836E+04  2.34103E+03 -1.92393E+04  1.29580E+04 -1.56577E+04  1.57793E+04 -1.19129E+03
  1.31592E+04  1.20583E+04 -2.34962E+03  1.30825E+04 -7.59715E+03  9.86334E+03 -1.39750E+04 -1.15336E+03
 -1.46496E+04 -1.94254E+04  2.84288E+03 -2.12807E+04  1.10833E+04 -1.92275E+04  1.93501E+04 -1.07020E+04
  1.22703E+04 -1.38544E+03  9.93581E+03  4.86171E+03  3.99737E+03  2.76109E+03  7.92629E+03 -3.77071E+03
  2.06427E+04  2.83834E+03  1.91004E+04  1.54814E+04  1.27428E+04  2.43936E+04 -1.18690E+03  3.06497E+04
 -2.42928E+04  2.32666E+04 -3.07526E+04  9.94451E+03 -2.45123E+04 -4.57234E+03 -2.34436E+04 -1.80792E+04
 -8.44784E+03 -2.50160E+04  2.38987E+03 -1.97273E+04  2.34644E+04 -7.27821E+03  1.54081E+04  1.60040E+03
  4.60255E+03  1.11731E+04 -7.98133E+03  1.28666E+04 -1.03719E+04  1.66486E+03 -1.15003E+04 -7.63231E+03
 -1.57266E+03 -1.28052E+04  8.37744E+03 -9.12991E+03  1.04378E+04 -2.91651E+03  1.32969E+03  8.80716E+03
 -3.29471E+03  2.06825E+03 -1.76208E+03 -5.18669E+03  4.73104E+03 -8.75266E+03  1.23623E+04 -9.43961E+03
  1.42071E+04 -5.08697E+03  1.65105E+04  4.16865E+03  1.32381E+04  1.58691E+04  9.84470E+03  1.35013E+04
 -4.27071E+03  1.73230E+04 -1.15346E+04  1.18167E+04 -1.37705E+04 -7.24800E+02 -3.72825E+03 -2.01693E+03
  1.48148E+03 -8.41149E+03 -2.02795E+03 -1.69986E+02 -4.29721E+03  3.72070E+03 -3.02296E+03  6.32581E+03
 -9.93636E+03  1.14709E+03 -1.33740E+04 -5.66786E+03 -4.48029E+03 -1.18141E+04  2.50278E+03 -1.11652E+04
  7.82011E+03 -4.93986E+03  6.91508E+03  6.36208E+03 -4.81810E+02  3.86563E+03 -8.44321E+03 -4.84588E+03
  2.86908E+02 -8.54321E+03 -8.01123E+02 -7.84039E+03  7.98500E+03 -1.05171E+04  1.06232E+04 -2.26234E+03
  1.35063E+04  4.90010E+03  1.26993E+04  6.78915E+03  2.37624E+03  8.45012E+03 -4.11396E+03  7.94254E+03
 -6.67091E+03  3.30417E+03 -4.73672E+03 -1.75868E+03  2.90373E+03 -5.68712E+03  3.64814E+03 -9.34306E+02
 -1.09016E+03  2.61028E+03 -3.37700E+02  5.23894E+03 -4.25622E+03  6.46246E+03 -7.27075E+03  1.88725E+03
 -3.27460E+03 -4.99739E+03  2.58608E+03 -8.54573E+03  2.66899E+02 -5.82756E+03  5.37866E+03 -1.47842E+03
  1.13674E+03  3.81449E+03 -5.68647E+03  6.76419E+03 -3.50334E+03  7.02512E+02 -8.05167E+03 -4.11223E+03
 -2.60831E+03 -5.64539E+03  1.66576E+03 -7.89017E+03  1.01161E+04 -5.74681E+03  5.39330E+03  3.39245E+03
  6.71778E+03  8.59376E+03  3.09655E+02  6.00404E+03 -9.97140E+03  3.83829E+03 -9.37945E+03 -7.81684E+02
 -6.08514E+03 -5.05854E+03 -6.89596E+02 -8.08507E+03  1.92071E+03 -6.23974E+03  3.48921E+03 -3.28630E+03
 -3.10215E+03 -1.62273E+03 -2.49989E+02  5.58220E+03  2.81292E+02 -9.48563E+02  3.52582E+03 -2.48520E+03
  1.22015E+03 -2.81101E+03  4.14624E+03  6.61246E+03  6.30665E+03 -2.17750E+03  2.40321E+03  5.67931E+03
 -8.54740E+03  1.05424E+04 -9.58307E+03  7.91956E+03 -1.33641E+04  1.22593E+03 -7.99529E+03  7.30942E+02
 -1.68489E+03 -6.01381E+03  1.57441E+03 -4.49692E+03 -1.18069E+03 -2.80565E+02 -2.37771E+03 -2.10333E+03
  2.34250E+03  2.59463E+02  2.60847E+03 -8.17938E+03 -2.81912E+03 -1.02387E+03  4.88823E+03  5.08605E+02
  7.97213E+03  1.30898E+03 -5.95308E+02  2.27434E+03 -6.02279E+03  2.88993E+03 -2.55748E+03  6.13574E+02
 -1.00001E+04 -2.60615E+03 -2.79731E+03 -3.79569E+03 -5.27748E+03 -5.24926E+03  6.63827E+03 -4.65646E+03
  4.65220E+03 -3.78828E+03  5.09015E+03  1.91971E+03  5.78820E+03  2.58574E+03  3.27715E+03  6.39228E+03
  2.79669E+03  6.54267E+03 -4.69870E+03  5.44463E+03 -2.28803E+03  6.74932E+02 -2.91647E+03 -1.07024E+03
 -1.03847E+03 -2.41786E+03  1.43211E+03 -6.36765E+01 -6.04110E+03  4.90259E+03 -4.75761E+02  4.10088E+03
 -1.89780E+03 -2.21560E+03 -7.29975E+02 -3.14514E+03  2.24555E+03 -2.78848E+03 -5.00726E+03  2.00228E+03
  5.57780E+03  1.61749E+03  3.41601E+03  4.05121E+03  3.47176E+03  7.46980E+03 -5.54571E+03  3.06973E+03
 -4.90056E+03  2.41903E+03 -6.56816E+03 -4.54181E+03 -2.16528E+03 -4.38610E+03  5.38571E+03 -2.86994E+03
  4.07309E+03 -5.97190E+03  1.75295E+03  2.30367E+03 -8.51182E+02  1.01047E+03 -5.43104E+02 -5.75059E+02
 -2.34434E+03  2.26817E+03 -9.84508E+02  4.81942E+02 -8.86051E+02  8.63676E+02 -1.83487E+03  4.02337E+03
 -4.02655E+03  2.10922E+03  1.87537E+03 -1.90896E+03 -8.41260E+03  7.31429E+03 -2.32144E+03 -3.03364E+03
 -3.50339E+03 -4.51346E+03 -1.44894E+03 -3.33961E+03  5.23672E+03 -2.65338E+03  2.31399E+03 -2.54337E+03
  6.00309E+03  4.10472E+03  9.82032E+02  2.97828E+01  2.72974E+03 -2.01563E+03  4.54532E+01 -9.34583E+02
 -2.70270E+03 -4.08288E+03  4.73949E+03  4.40599E+02  7.03993E+02 -3.09371E+03  2.98396E+03 -2.26088E+03
  1.89972E+03 -2.54407E+02  8.14727E+02 -1.00758E+03 -2.68446E+02  1.46434E+03  1.53354E+03  1.93041E+03
  2.02184E+03  1.78650E+03  1.14959E+03  8.57540E+01 -1.11943E+03  2.19227E+03  1.86647E+03  7.20811E+03
  8.36954E+02  1.96537E+03  1.83328E+03  1.08711E+03 -4.05536E+03 -2.32672E+03 -1.06952E+03  8.37055E+02
  2.18686E+03  1.87637E+03  6.30080E+03 -9.92933E+02  1.53530E+02  3.11666E+03 -3.39270E+03  2.88432E+03
 -1.90942E+03 -1.74323E+03 -2.81356E+03  1.60536E+03  5.16123E+02 -5.22213E+03  3.98896E+03 -4.54368E+03
  2.16459E+03 -5.81607E+02 -3.27252E+03 -3.76203E+03  2.40542E+02 -1.50693E+03  4.67477E+02  1.26769E+03
  2.24935E+03  3.95039E+02 -2.61151E+03 -2.15543E+02 -4.45619E+02  5.32823E+01 -8.51942E+02 -9.34933E+02
  4.52465E+03 -4.13686E+03  8.63956E+03 -1.15056E+03  2.29507E+03  4.59411E+03  8.33595E+01  9.84851E+02
 -3.46885E+03  1.68405E+03 -1.12313E+03 -9.89902E+02 -1.68892E+02 -1.50385E+03  4.49600E+03 -1.34792E+03
  2.32774E+03 -1.59632E+03  3.29019E+03 -3.13238E+03  6.53060E+02  1.76018E+03  3.47702E+02 -4.85165E+03
  4.41413E+03  8.06449E+02 -3.28194E+01 -4.02822E+03  3.01461E+03  4.33149E+03  3.96733E+03  1.26346E+03
 -4.43890E+02  1.41939E+03  9.84883E+02 -2.50877E+03  1.46106E+03  2.08819E+03 -5.49829E+03  3.97165E+02
 -1.59655E+03 -4.18597E+03  1.25213E+03 -8.59896E+02 -7.20960E+02 -7.98117E+03  4.54664E+03 -4.19820E+03
  2.41166E+03  7.50865E+02  3.59885E+03  4.70644E+03  1.53718E+03  5.42075E+02 -3.62891E+02  2.19356E+03
  7.92053E+02 -9.74928E+02 -1.44833E+03  5.89586E+01  8.44201E+02 -6.56834E+02  1.00262E+03  2.79051E+03
 -6.58474E+02  4.96738E+03 -1.32281E+03 -2.96934E+03  6.98964E+01  2.56913E+02 -9.52125E+02 -8.71453E+02
  2.08719E+03 -2.26301E+03 -1.45615E+03  4.86617E+03  2.54014E+03  1.92080E+02 -6.79899E+02  1.28856E+03
  3.39644E+03  2.07492E+03 -2.13587E+03  1.31230E+03  1.57250E+03  1.57429E+03 -2.99821E+03 -3.82666E+03
 -5.33850E+02 -1.45217E+03 -1.60547E+03 -4.29139E+03  1.89851E+03 -5.20343E+02 -1.61726E+03  1.11091E+03
  1.26864E+02 -9.83502E+02  3.48953E+03  4.01641E+03 -1.54054E+02  3.29766E+03 -3.30102E+03  2.80497E+03
  6.94757E+02  1.94026E+03  1.18228E+03 -1.28530E+02 -2.98950E+03  4.59071E+03  4.07555E+03 -1.61228E+03
  6.78758E+02  2.40952E+03  1.58408E+03  6.79350E+03 -9.45598E+01  4.65989E+03  3.03702E+03 -1.61475E+03
  6.61935E+02  1.42319E+02  6.52423E+03 -5.38492E+03  2.95633E+03  2.74992E+03  1.86152E+03  2.20510E+03
 -2.22010E+03 -7.25094E+01 -4.19925E+03  1.35407E+03  1.85595E+03  2.35730E+03 -1.80969E+03  3.64042E+02
 -1.67862E+03 -3.54675E+03 -2.28248E+03 -1.99889E+03 -2.10933E+03 -3.32827E+03 -1.76030E+03 -1.97843E+03
  2.18269E+02  2.82635E+03  2.24697E+03 -6.92134E+02  4.31754E+03 -3.21773E+03  2.73960E+03  4.56582E+02
  8.14279E+02 -1.73757E+03 -2.50101E+03  7.09932E+02 -2.94137E+03  4.55920E+02 -9.88566E+02 -1.27391E+02
