 $NMID ID='MM_0lb_SNR50_20hz_g50_90.RAW', FMTDAT='(8E13.5)'
 TRAMP=1., VOLUME=1. $END
  3.09731E+05  2.90416E+03  3.39300E+05  2.49921E+05  8.67542E+04  3.37176E+05 -1.35793E+05  2.46094E+05
 -1.89840E+05  7.96319E+04 -1.15995E+05 -3.10044E+04 -2.13881E+03 -5.00800E+04  5.64235E+04 -9.79121E+02
  3.37178E+04  5.64925E+04 -1.55566E+04  7.44708E+04 -5.75376E+04  6.02054E+04 -8.15221E+04  3.73554E+04
 -7.82654E+04 -9.04145E+03 -5.54674E+04 -4.78504E+04 -1.33075E+04 -6.81272E+04  2.80197E+04 -4.69534E+04
  3.86840E+04  6.13453E+03  1.35654E+04  5.03454E+04 -3.51368E+04  4.38332E+04 -6.71469E+04 -4.21435E+03
 -5.17503E+04 -5.17496E+04 -4.55937E+03 -7.64281E+04  3.51637E+04 -5.38591E+04  4.61402E+04 -1.38615E+04
  4.02414E+04  1.07732E+04  3.11940E+04  2.12751E+04  1.44245E+04  2.75624E+04 -4.82250E+03  2.39870E+04
 -2.31898E+04  1.55767E+04 -2.12271E+04 -2.90394E+03  6.66514E+03 -2.80632E+03  2.31898E+04  1.10433E+04
  8.09941E+03  3.16073E+04 -3.04658E+04  3.36046E+04 -6.41449E+04 -1.61962E+03 -5.36148E+04 -4.38186E+04
 -7.59711E+03 -6.00846E+04  3.72986E+04 -4.29552E+04  5.59779E+04 -6.32040E+03  3.40445E+04  3.17352E+04
 -8.76799E+03  3.66401E+04 -2.55694E+04  1.26181E+04 -2.80313E+04 -1.50119E+03 -1.23915E+04 -1.10372E+04
 -8.42208E+03 -6.67527E+03  3.60960E+03 -1.26349E+04  6.20519E+03 -1.81409E+04  1.40394E+04 -1.36052E+04
  1.31786E+04  4.16734E+03 -3.06742E+03  1.07522E+04 -1.41787E+04 -1.79469E+03 -4.33424E+03 -2.81468E+04
  1.90552E+04 -3.95226E+04  4.51248E+04 -1.75837E+04  4.10585E+04  1.72315E+04  1.07517E+04  4.16087E+04
 -1.63048E+04  2.97366E+04 -2.40907E+04  7.01991E+02 -1.10965E+04 -2.37160E+04  1.72711E+04 -3.19464E+04
  3.74541E+04 -5.00318E+03  3.25089E+04  2.36273E+04  1.29819E+04  4.00063E+04 -6.15937E+03  4.26506E+04
 -2.84945E+04  2.91499E+04 -3.83053E+04  6.27138E+03 -3.75268E+04 -1.45354E+04 -1.77107E+04 -3.34412E+04
  8.01002E+03 -3.25740E+04  2.67697E+04 -9.69998E+03  2.53376E+04  1.07677E+04  6.12011E+03  1.37967E+04
 -1.53352E+04  5.94656E+03 -8.27797E+03 -3.72318E+03  9.10794E+03 -1.33480E+04  1.86427E+04  4.16342E+03
  1.03072E+04  1.98513E+04 -4.65375E+03  2.07638E+04 -2.06578E+04  9.81918E+03 -2.34025E+04 -7.23460E+03
 -1.59223E+04 -1.63843E+04 -2.73431E+03 -1.80913E+04  6.42555E+03 -9.87233E+03  1.19405E+04 -1.02456E+04
  2.18157E+04 -1.66416E+04  2.80357E+04  2.75747E+03  2.73415E+04  1.82586E+04  3.17991E+03  3.05521E+04
 -1.08567E+04  2.53416E+04 -2.69461E+04  9.61786E+03 -2.18434E+04 -1.11079E+04 -9.07860E+03 -1.90271E+04
  1.33499E+03 -2.86213E+03 -5.57706E+03  4.70208E+03 -1.33876E+04  2.46305E+03 -1.45202E+04 -4.77381E+03
 -8.26271E+03 -8.21324E+03  4.54123E+03 -2.17203E+04  1.14761E+04 -9.36535E+03  1.23536E+04 -2.19243E+03
  6.18183E+03  1.09587E+04  3.97321E+03  1.65028E+04 -7.95249E+03  9.94393E+03 -1.49375E+04 -4.07608E+03
 -1.14708E+04 -1.91149E+04 -2.65456E+03 -1.80515E+04  9.48961E+03 -1.51283E+04  1.62639E+04 -8.30212E+03
  1.63363E+04  2.06341E+03  1.07950E+04  3.26251E+03  5.51910E+03  1.20853E+03  6.33816E+03 -1.20752E+03
  1.28180E+04  2.04232E+03  1.14778E+04  1.04728E+04  9.25645E+03  2.23140E+04 -3.42201E+03  2.30729E+04
 -1.47332E+04  2.39526E+04 -2.14770E+04  1.16343E+04 -2.15640E+04 -2.57312E+03 -2.09686E+04 -1.84549E+04
 -9.73937E+03 -2.09044E+04  2.48866E+03 -1.76491E+04  1.52379E+04 -8.80546E+03  1.32847E+04  5.60468E+02
  7.81086E+03  1.27498E+04 -7.14652E+03  1.31748E+04 -1.54441E+04  2.29971E+03 -6.16574E+03 -8.24687E+03
  5.80694E+02 -9.21927E+03  4.27292E+03 -6.28559E+03  1.08450E+04 -2.25826E+03  2.78535E+03  5.70027E+03
 -4.05529E+03 -1.47226E+02 -2.57464E+03 -6.65230E+03  7.12814E+02 -8.17591E+03  1.01525E+04 -1.30010E+04
  1.12880E+04 -6.73527E+03  7.31617E+03  1.62233E+03  4.84341E+03  7.08427E+03  5.78651E+03  1.38333E+04
  4.69438E+03  1.55436E+04 -1.04836E+04  1.02114E+04 -1.27128E+04  3.67700E+03 -9.00438E+03 -4.88757E+03
 -2.42581E+03 -2.45415E+03  5.20442E+02  2.25213E+03 -2.72325E+03  4.27402E+03 -5.05093E+03  8.22844E+02
 -7.38632E+03  2.76880E+03 -9.09435E+03 -9.33952E+03 -9.21317E+02 -1.42079E+04  2.54515E+03 -1.09324E+04
  8.97860E+03 -7.51003E+03  3.34437E+03  3.11114E+03 -7.59319E+02  3.47971E+03 -3.06229E+03  6.50348E+02
 -7.10832E+03 -4.81023E+03 -1.38530E+03 -6.01378E+03  4.62602E+03 -7.41122E+03  1.14550E+04 -3.45849E+03
  8.00668E+03  7.15545E+02  1.26129E+04  7.00865E+03  1.78551E+03  1.05288E+04 -7.17826E+03  9.01817E+03
 -3.95911E+03  9.76150E+02 -5.33428E+03  1.47055E+03  3.53352E+03  3.68224E+02  3.15956E+03  8.04667E+02
  6.74692E+03  4.05269E+03  3.58651E+03  8.37342E+03 -5.09622E+03  8.92913E+03 -8.04131E+03 -5.97147E+02
 -2.52648E+03 -3.16207E+03 -1.92741E+03 -6.59393E+03  7.05813E+03 -5.69390E+03  1.12914E+03 -7.14442E+02
  7.46040E+02 -1.06184E+03 -2.24951E+01  6.99266E+03 -6.96466E+03  3.06599E+03 -3.04707E+03 -5.84687E+02
 -5.80623E+03 -4.49554E+03  1.93367E+03 -8.60162E+03  7.03638E+03 -5.39383E+03  7.56727E+03 -2.15315E+03
  4.89153E+03  7.73023E+03  4.37812E+03  8.77262E+03 -5.01646E+03  2.34052E+02 -7.22557E+03 -4.97440E+02
 -4.07366E+03 -2.75729E+03 -2.43846E+03 -4.30506E+03  3.91535E+03 -3.71876E+03  1.76952E+03 -5.16761E+03
  3.35682E+03  4.46239E+03 -4.05875E+03  1.70532E+03  3.47555E+02  4.06516E+03  1.98382E+03 -4.27089E+01
  4.40149E+03 -4.15303E+02  4.94450E+03  1.49319E+03  3.62139E+03  1.31405E+03  9.14056E+03  8.39585E+03
  6.77157E+02  1.12081E+04 -5.61988E+03  4.55004E+03 -8.71255E+03  6.31094E+02 -4.87470E+03 -5.63323E+03
 -2.24526E+03 -1.01675E+04  1.83026E+03 -5.99076E+03  1.06570E+03 -2.44396E+03 -1.15496E+03 -2.26827E+03
  5.03082E+03 -1.09962E+03  2.26209E+03 -4.97028E+03  5.27232E+02  3.40557E+03  4.14896E+03 -1.44101E+03
  1.31590E+03  6.12256E+02  5.00662E+03  1.63704E+03  5.41053E+02  3.93239E+03 -1.29146E+03  1.88432E+02
 -2.51600E+03 -1.56216E+03 -2.11224E+02 -3.42850E+03  1.28593E+03 -1.62026E+03  7.38892E+02  1.74970E+03
  1.72227E+02 -4.70920E+02  2.87052E+03  1.55109E+03  5.12262E+03  6.64592E+03  6.97502E+02  1.72957E+02
  4.44312E+02  5.67632E+03 -2.01326E+03  1.04449E+03 -4.25099E+03 -3.41557E+03  3.22666E+03  1.36839E+03
  1.41239E+03 -2.00042E+03 -1.12505E+03  2.76358E+03  8.56243E+02 -2.51861E+03 -1.82918E+03 -3.26578E+03
 -3.50614E+03 -5.48123E+03  3.47074E+03 -5.14150E+03  5.21654E+03 -1.09795E+03  2.14612E+03 -1.52985E+03
  1.81965E+03  1.98135E+03  1.43058E+03  1.73081E+02 -3.50934E+01  4.56153E+03 -7.74577E+03  4.85275E+02
 -2.05350E+03  5.60182E+02 -1.06462E+03 -2.07549E+03  2.14586E+03 -2.22028E+03 -1.86561E+03 -6.02054E+03
  4.09471E+03  4.43107E+02  4.73426E+03 -1.82798E+03  5.07715E+03 -1.89476E+02  1.39702E+03  2.82400E+02
  5.63768E+02  3.30361E+03  1.91045E+03 -2.85812E+03  7.30545E+03  3.19268E+03 -1.41924E+03 -3.21922E+02
 -5.01381E+02 -9.89652E+01 -3.07507E+03  7.68427E+02 -3.46065E+03 -7.75863E+02 -5.23858E+03 -4.53662E+03
 -1.04709E+03 -5.38892E+03 -1.89556E+03 -3.49883E+03  2.80198E+03 -2.18863E+03  3.35732E+03 -1.54809E+03
 -2.05265E+02  2.21823E+02  4.08414E+03  6.28177E+03 -2.99108E+03 -3.67528E+03 -4.26306E+03  1.79223E+03
 -2.78008E+02 -2.34005E+03  2.49297E+03 -4.01341E+03  2.63774E+03  8.31406E+02  3.89875E+03  4.39008E+03
  3.03238E+03  2.22687E+03 -3.42240E+02 -1.34642E+03 -1.90795E+03  2.20889E+03  1.83085E+03  3.27713E+02
 -6.51369E+02  1.53308E+03  1.61978E+03  4.81598E+02  1.87190E+03  5.91266E+03  1.88832E+02  1.05740E+03
 -3.83116E+02  2.55618E+03 -5.87598E+03 -8.01132E+02 -1.56540E+03 -3.57812E+03 -4.57501E+02 -3.69774E+02
 -3.07237E+03 -4.06080E+03  1.83603E+03  1.40131E+03 -3.70850E+02 -2.27733E+03 -1.63550E+03  1.55181E+03
 -6.32399E+02  2.17595E+03 -4.05570E+03 -8.71187E+03 -4.01700E+03 -1.34821E+03 -2.51974E+03 -4.24781E+03
  1.28757E+03  5.40253E+02 -3.81105E+03 -3.16847E+03  3.56086E+03 -4.68039E+03 -3.82199E+02  9.73761E+02
  2.74556E+03 -6.67265E+02  7.18455E+03  1.84281E+03  3.48346E+03  1.04952E+03  1.53837E+03  5.25537E+03
  1.23559E+03  5.39323E+02  4.26739E+03 -1.56319E+03  2.71219E+03 -1.73241E+02  2.57185E+03  2.03601E+03
 -6.37175E+02  2.10474E+02  2.31880E+03  2.87763E+03 -1.13694E+03 -1.16281E+02 -9.55366E+01  9.67056E+02
  1.52803E+03  3.28399E+01  7.15748E+02 -1.47150E+03  3.43621E+03  2.33690E+03  4.19908E+03  3.62440E+02
 -1.23340E+03  1.11896E+03  6.25409E+02 -3.84321E+01 -1.36124E+03  6.82381E+01  6.11624E+02  2.86469E+03
  3.36213E+03  6.55994E+03 -2.15083E+02 -2.30834E+03  1.51395E+03  1.50018E+03 -2.84902E+03  7.36273E+02
 -1.71277E+03 -3.11660E+03  1.72730E+03 -2.72690E+02 -2.23018E+03 -4.32215E+03 -1.60118E+03 -3.70635E+02
 -1.50157E+03  1.02285E+03 -1.23177E+03  2.45008E+03 -4.39241E+03 -1.98025E+03 -6.18674E+02  2.94456E+03
 -2.12386E+03  2.14287E+03 -6.29893E+02 -1.97175E+03 -1.94595E+03  8.48434E+02 -3.78573E+03 -1.72943E+03
 -1.55719E+03 -2.77645E+02  2.40681E+03 -6.97584E+02  3.11734E+03 -8.65251E+02  2.37608E+03  1.31856E+03
  1.46279E+03  5.10370E+02  1.53387E+03 -4.56064E+02  1.15080E+03 -1.40153E+02 -1.78935E+03  2.33164E+03
 -3.79655E+02 -2.49733E+03 -2.97573E+03  4.31696E+03 -7.81175E+02 -4.13532E+02 -4.17908E+02  2.77909E+03
  1.53630E+03 -1.55684E+03  4.89130E+03 -1.28663E+03 -1.86268E+03  1.87652E+03  1.24994E+03  1.22189E+03
  1.69726E+03 -1.22270E+03  5.47250E+02  2.41853E+03 -2.23144E+03  2.20208E+03  3.78394E+03 -5.24218E+03
 -1.06272E+03  1.01947E+03 -9.99595E+02  4.35955E+03 -1.36060E+03  6.69892E+02  5.42152E+03 -2.37051E+02
 -2.07339E+03  1.32715E+03 -1.43665E+03 -4.68090E+03 -2.15840E+03 -2.08420E+03 -7.80918E+02  1.47121E+03
  5.51106E+02 -2.05273E+03  9.01275E+02  2.66498E+03 -2.21147E+03 -2.87553E+03  2.43452E+03  7.93312E+02
  3.64209E+03  1.27148E+03 -3.29522E+03  1.52177E+02  2.86748E+03  2.58164E+03 -1.06025E+03 -4.44972E+03
 -3.70790E+03 -1.32948E+03 -1.92901E+03  3.80521E+03 -1.94656E+03  2.30781E+03 -2.30998E+03  3.38954E+03
 -3.29607E+03 -1.04373E+03 -2.96324E+03 -2.60488E+03 -6.08018E+02  1.56848E+03  1.01572E+03 -2.43989E+03
  5.65569E+02 -4.19352E+03 -2.03329E+03 -2.21136E+02  7.18297E+02  4.11941E+03 -2.20850E+03 -3.51743E+03
