 $NMID ID='MM_0lb_SNR50_11hz_g60_93.RAW', FMTDAT='(8E13.5)'
 TRAMP=1., VOLUME=1. $END
  3.13415E+05  3.86557E+03  3.37963E+05  2.51471E+05  8.60435E+04  3.37870E+05 -1.33240E+05  2.51807E+05
 -1.92114E+05  8.18242E+04 -1.07543E+05 -3.05083E+04 -1.64839E+03 -4.98590E+04  5.53209E+04  4.54092E+03
  3.69651E+04  5.05631E+04 -1.22394E+04  7.89290E+04 -5.67943E+04  6.48311E+04 -8.95805E+04  3.16893E+04
 -8.91933E+04 -1.27589E+04 -5.85085E+04 -5.80104E+04 -1.17444E+04 -6.96710E+04  2.77547E+04 -4.67339E+04
  3.70759E+04  1.17885E+02  1.42912E+04  4.47396E+04 -2.83716E+04  4.30700E+04 -6.46148E+04  4.70613E+03
 -5.57308E+04 -5.65520E+04 -1.16395E+04 -7.53002E+04  3.65908E+04 -5.41698E+04  4.43097E+04 -2.45418E+04
  5.26489E+04  5.99232E+03  2.90543E+04  2.61510E+04  1.69516E+04  3.67226E+04 -6.61673E+03  2.99342E+04
 -1.92983E+04  1.74372E+04 -1.66901E+04 -1.16525E+04  3.58903E+03 -5.69257E+03  2.17358E+04  1.77834E+04
  1.05979E+04  3.38534E+04 -3.81563E+04  3.47141E+04 -6.38750E+04  1.86900E+03 -5.73439E+04 -4.12619E+04
 -1.27110E+04 -6.22390E+04  4.64714E+04 -4.84040E+04  6.29656E+04 -3.36344E+03  3.30763E+04  4.15270E+04
  1.89692E+02  3.98969E+04 -2.64726E+04  2.17796E+04 -2.46887E+04 -2.89236E+03 -1.93873E+04 -1.37717E+04
 -1.14312E+04 -1.90010E+04  1.88571E+03 -2.77592E+04  1.26445E+04 -1.97362E+04  1.37492E+04 -1.87798E+04
  5.81410E+03  9.55994E+02 -1.28054E+04  1.50361E+04 -2.35907E+04 -9.02191E+03 -1.47768E+04 -3.75981E+04
  2.52296E+04 -5.46145E+04  5.16648E+04 -2.20133E+04  5.02761E+04  1.53921E+04  1.12866E+04  4.63988E+04
 -1.48329E+04  3.63974E+04 -2.88607E+04  8.39285E+02 -1.06804E+04 -3.00924E+04  2.51139E+04 -4.52373E+04
  4.40461E+04 -3.15404E+03  3.68677E+04  2.29613E+04  2.37267E+04  5.76104E+04 -1.26111E+04  5.71061E+04
 -3.37674E+04  3.71391E+04 -4.76490E+04  7.58891E+03 -4.44306E+04 -1.52977E+04 -2.74904E+04 -4.45591E+04
  3.72428E+03 -4.09235E+04  2.83306E+04 -1.49965E+04  3.37949E+04  1.30571E+04  8.81912E+03  2.02317E+04
 -1.13794E+04  1.50079E+04 -1.62879E+04 -1.44558E+03  5.90116E+03 -1.10799E+04  1.83536E+04  3.80129E+03
  1.57986E+04  2.55376E+04 -5.99630E+03  3.22232E+04 -2.24739E+04  1.56147E+04 -3.69333E+04 -8.63599E+02
 -2.18585E+04 -1.83677E+04 -7.63346E+03 -2.51838E+04  1.07849E+03 -2.56448E+04  1.56822E+04 -1.96214E+04
  2.89404E+04 -1.34416E+04  3.48272E+04  4.15106E+03  2.81759E+04  2.59365E+04 -1.56010E+03  4.21160E+04
 -2.26681E+04  3.65133E+04 -2.91806E+04  8.73211E+03 -1.80901E+04 -1.04611E+04 -2.51761E+03 -1.01791E+04
 -1.07590E+03 -1.70910E+03 -1.19398E+03  9.17141E+03 -1.60436E+04  6.18017E+03 -1.23532E+04 -6.93818E+03
 -1.46853E+04 -2.59840E+04  9.65398E+03 -2.56600E+04  1.86224E+04 -2.23612E+04  2.02176E+04  1.02469E+03
  1.09152E+04  2.03453E+04 -4.06820E+03  2.68114E+04 -1.50973E+04  1.10646E+04 -2.50638E+04 -4.84941E+03
 -7.24469E+03 -1.62956E+04 -4.34333E+03 -2.56843E+04  1.04563E+04 -2.17790E+04  2.58250E+04 -9.42845E+03
  1.95552E+04  5.56399E+03  9.06504E+03  5.83306E+03  1.34842E+04  5.90363E+03  1.00669E+04 -1.80150E+03
  2.55770E+04  7.10251E+03  2.09576E+04  1.89984E+04  1.65193E+04  3.70384E+04 -5.30518E+03  4.18835E+04
 -2.54064E+04  3.74714E+04 -4.31909E+04  1.84341E+04 -4.18765E+04 -4.97106E+03 -3.09877E+04 -2.40510E+04
 -1.61261E+04 -3.22352E+04  1.14640E+04 -3.17054E+04  2.51959E+04 -1.72979E+04  1.87617E+04  5.58764E+03
  4.89869E+03  1.44307E+04 -8.05782E+03  1.58065E+04 -1.65777E+04 -3.30570E+03 -1.28329E+04 -1.19458E+04
 -1.15601E+03 -1.66236E+04  8.81618E+03 -1.35501E+04  1.56688E+04 -3.47682E+03  5.47062E+03  1.20851E+04
 -5.56263E+03 -7.98584E+02 -1.38250E+04  3.55192E+02  3.10353E+03 -2.14576E+04  7.36004E+03 -2.14257E+04
  3.04705E+04 -9.41811E+03  2.70065E+04  8.26800E+03  1.96370E+04  1.35559E+04  1.35205E+04  3.04215E+04
 -3.26724E+03  2.50592E+04 -1.91936E+04  1.64829E+04 -1.66988E+04  3.27290E+03 -1.28388E+04 -4.19274E+03
 -1.75901E+03 -1.06011E+03 -2.19339E+03 -7.64987E+02  1.29407E+03  8.31558E+03 -6.85969E+03  9.41679E+03
 -1.66921E+04 -4.65080E+03 -9.44521E+03 -1.19721E+04 -8.31256E+03 -1.74789E+04  2.74682E+03 -1.40992E+04
  1.26264E+04 -6.75457E+03  9.77874E+03  2.46724E+03 -5.50560E+03  7.17858E+03 -3.56678E+03 -3.38053E+02
 -9.09259E+03 -8.80334E+03 -8.79166E+02 -9.56278E+03  8.64610E+03 -1.54747E+04  1.95141E+04 -3.95257E+03
  2.07429E+04  4.15028E+03  1.64281E+04  1.11444E+04  5.09704E+03  1.48161E+04 -1.02884E+04  1.52766E+04
 -1.35204E+04  9.93613E+03 -3.41509E+03 -2.96392E+03  4.43765E+03  1.15475E+03  9.24152E+03 -7.67258E+02
  7.77763E+03  1.03947E+04 -3.51834E+02  1.16796E+04 -1.24880E+04  9.62481E+03 -1.35308E+04  5.40436E+02
 -5.32569E+03 -1.17527E+04  1.20558E+02 -9.35477E+03  9.04142E+03 -9.26027E+03  1.45574E+04  5.56596E+03
 -1.17503E+03  2.66385E+03 -5.36952E+03  1.41083E+04 -1.28990E+04  6.14313E+03 -1.43759E+04 -3.68757E+03
 -3.02253E+03 -1.63332E+04  9.96859E+02 -1.14480E+04  1.16439E+04 -9.13615E+03  1.65278E+04 -1.01472E+03
  1.39237E+04  1.67142E+04 -3.86567E+03  1.78521E+04 -1.02454E+04  7.07810E+03 -9.01007E+03  1.28956E+03
 -4.94062E+03 -6.35736E+03  7.23564E+02 -9.94813E+03  7.15673E+03 -1.03406E+04  5.14020E+03 -2.23717E+02
  1.25716E+03  3.45329E+03  4.97008E+03  1.54416E+03 -1.67336E+03 -1.03026E+03  5.12688E+03 -1.54397E+03
  1.06206E+04 -7.44823E+03  1.91576E+04 -2.74892E+03  1.83289E+04  1.21502E+04  8.76047E+03  2.00022E+04
 -1.96256E+03  1.86325E+04 -1.69165E+04  1.35296E+04 -2.17404E+04  1.24179E+03 -2.24625E+04 -8.51276E+03
 -3.36321E+03 -2.08647E+04 -9.22074E+02 -1.49375E+04  1.85478E+03 -1.09563E+04  1.68860E+03 -4.01241E+03
  6.23574E+03 -2.85932E+03  6.73735E+02 -3.49883E+03  3.53133E+03 -1.90836E+03  1.01611E+04  5.88827E+02
  7.46491E+03  5.33651E+03  1.82672E+03  1.15027E+04  1.63051E+03  6.21718E+03 -1.36353E+04  8.98325E+03
 -1.25368E+04 -2.51024E+03 -6.98377E+03 -7.70713E+03  2.77621E+03 -4.34956E+03  8.47301E+03 -1.10909E+04
  1.61042E+04 -5.73853E+03  1.29617E+04  6.17379E+03  8.78164E+03  9.57854E+03  5.11148E+02  2.22983E+04
 -5.26264E+03  1.07650E+04 -6.73800E+03  2.99592E+03 -1.22419E+04  4.69323E+03 -4.77923E+03 -5.54702E+03
  2.92756E+01 -2.47306E+03 -4.94822E+03  4.00555E+03 -4.43495E+03  6.70784E+01 -9.92375E+03  1.11136E+04
 -5.40776E+03 -6.76670E+03 -7.37142E+02 -1.12553E+04  1.32616E+04 -1.51691E+04  1.29983E+04 -1.63382E+02
  1.14712E+04  6.66466E+03  3.64201E+03  1.36562E+04 -3.18668E+03  1.34717E+04 -7.93498E+03  6.82798E+03
 -9.63067E+03 -1.00738E+03 -5.45113E+03 -5.19230E+03 -7.08009E+03 -1.50856E+04  5.42452E+03 -5.48287E+03
  6.75452E+03 -5.53103E+03  1.22895E+04  4.72009E+03 -2.41762E+03  9.09771E+03 -2.18737E+02  5.40097E+03
  8.88079E+02 -3.55432E+03  3.19493E+02  5.68227E+03  4.96087E+03  1.41810E+03  6.34863E+03  1.09979E+04
 -1.86419E+03  9.08820E+03 -9.37030E+03  1.31181E+04 -9.50202E+03  5.70303E+02 -9.10229E+03 -7.90699E+03
 -4.06175E+03 -1.64676E+04  1.00622E+02 -2.41194E+04  1.17051E+04 -8.61054E+03  1.31677E+04 -6.91662E+03
  8.78990E+03  1.63200E+03 -8.67392E+02  1.67564E+03 -5.15152E+02  4.71291E+03 -5.67070E+03 -1.61733E+03
 -1.29872E+03 -1.90395E+03 -2.08590E+02 -8.29065E+03  1.20188E+04 -5.43729E+03  5.96498E+03 -6.07674E+03
  2.89089E+03  3.09156E+03  1.79050E+03  1.60856E+03 -2.08166E+03 -7.06745E+02  3.82829E+03  5.23523E+03
 -9.26990E+02 -2.34100E+03  5.46110E+03  5.04938E+03  2.14070E+03  1.51374E+03 -2.48917E+03  8.75346E+03
 -5.69062E+03  5.51517E+03 -1.21726E+03  4.84359E+03 -4.53406E+03 -5.32996E+03 -5.74667E+03 -8.71926E+03
 -7.23798E+03 -6.01787E+03  8.84061E+03 -2.33024E+03  5.43384E+03  1.90250E+03  3.34643E+03  7.48691E+03
 -1.00046E+04  6.60588E+03 -4.82839E+03 -3.79901E+03 -1.27042E+03  1.12637E+03  2.93946E+03 -7.65935E+03
  4.36999E+03 -3.56934E+03  1.19728E+04 -2.65730E+03  5.73559E+03  3.95109E+03  1.36901E+03  3.86440E+03
 -1.21199E+03  3.86452E+03  2.24934E+03 -1.96222E+03  1.23423E+03 -7.51308E+03  1.53834E+03 -1.34750E+04
  4.25733E+03 -6.60580E+01  6.73330E+03  6.09437E+03  4.54534E+02  6.75133E+03 -8.58922E+03  9.93553E+03
 -7.61922E+03  1.00797E+03 -2.05988E+02 -2.27969E+03 -6.11591E+03 -5.47505E+03  2.26656E+03 -2.39180E+03
  7.33436E+03 -3.26473E+03  2.29724E+03 -2.83972E+03  2.23314E+03  8.82091E+03 -6.68106E+03  5.48938E+03
 -6.05580E+03 -3.27064E+02 -9.87825E+02  6.96725E+02 -3.95106E+03  3.16033E+03  2.41087E+02  1.93917E+03
 -4.20478E+03  6.39287E+03  3.00651E+02 -3.04560E+03 -1.24704E+04  1.35714E+02 -1.38378E+04 -7.38881E+03
 -6.98889E+03 -7.78268E+03  2.28873E+03 -6.74234E+03  2.06746E+03 -8.70104E+03  7.37567E+03  9.00224E+02
  7.49572E+03  9.08395E+02  3.28505E+03  7.72350E+03 -5.45585E+03  5.25414E+03 -3.22023E+03  4.46342E+03
 -7.42324E+03  3.26927E+03 -8.33626E+03 -5.25746E+03 -8.49390E+03 -2.78413E+03 -1.36403E+02 -3.19458E+03
 -4.12066E+02 -3.15337E+03 -2.59993E+03 -4.65352E+03 -2.09727E+02 -5.68407E+02  1.91851E+03 -9.65007E+02
  2.10054E+03 -5.49694E+03  8.88132E+03 -2.99529E+03  6.26887E+03  8.11967E+03 -1.39494E+03  8.64130E+03
 -3.72440E+03  1.13380E+04 -5.98783E+03  3.52218E+03 -7.77546E+03 -1.08744E+03 -1.03566E+04 -6.99755E+03
 -1.12342E+03 -8.00903E+03 -2.12896E+02 -1.15889E+04  7.87021E+03 -3.48599E+03  2.20279E+03 -7.94986E+02
  5.44780E+03  4.99228E+03  5.37728E+03 -9.20495E+02 -7.63284E+03 -3.23111E+03  5.44174E+03 -4.32730E+03
  7.60025E+02 -3.56209E+03  2.46639E+03  3.45606E+03 -3.31472E+03  1.03467E+03  2.95847E+03  7.66182E+03
 -4.17792E+03  5.32620E+03 -2.69342E+03 -8.62691E+02 -6.21720E+03 -5.91418E+03 -5.69569E+03 -1.17250E+04
  1.20049E+02 -1.30752E+02  6.14445E+03 -9.83056E+03  1.40683E+03 -3.93536E+02  5.74852E+03  8.22821E+03
 -2.05242E+03  3.24537E+03  5.08443E+03  4.63291E+02 -9.43906E+03  4.49428E+03  3.37716E+02 -2.95650E+03
 -3.69658E+03  1.59703E+03 -2.42666E+02 -7.32280E+00  6.44508E+01 -1.22334E+03  1.75759E+03  1.88427E+03
 -4.42166E+03  9.04613E+02 -8.27387E+03 -7.81113E+03 -3.23668E+03  1.11399E+02  2.42262E+03 -8.83822E+02
  3.09406E+03  2.39303E+03  8.07292E+02  6.88748E+03 -6.38476E+02  1.42097E+04 -1.93010E+03  3.62572E+03
