 $NMID ID='MM_0lb_SNR50_18hz_g45_23.RAW', FMTDAT='(8E13.5)'
 TRAMP=1., VOLUME=1. $END
  3.10742E+05  9.25585E+02  3.34934E+05  2.50444E+05  8.74930E+04  3.34417E+05 -1.30575E+05  2.51787E+05
 -1.87619E+05  7.98125E+04 -1.13773E+05 -3.21854E+04  4.67707E+03 -4.79730E+04  5.14829E+04  8.20021E+02
  3.24135E+04  5.04441E+04 -1.74324E+04  7.59474E+04 -6.44777E+04  6.10114E+04 -8.21706E+04  3.27314E+04
 -7.61919E+04 -1.19211E+04 -5.30623E+04 -5.03901E+04 -1.70581E+04 -6.40630E+04  2.54183E+04 -4.51393E+04
  3.81680E+04  4.85326E+03  1.41812E+04  4.92843E+04 -3.67219E+04  4.66624E+04 -6.46616E+04  2.33690E+03
 -5.26229E+04 -5.89348E+04 -8.58607E+03 -7.71519E+04  3.26484E+04 -5.28615E+04  4.64850E+04 -1.09190E+04
  4.16658E+04  1.15705E+04  3.04048E+04  2.75805E+04  1.13431E+04  2.88047E+04 -6.25814E+03  2.59168E+04
 -2.17107E+04  1.39195E+04 -1.75748E+04 -3.22737E+03  4.41921E+03 -4.70482E+03  2.29918E+04  1.11400E+04
  1.39518E+04  3.36807E+04 -2.69189E+04  3.54770E+04 -5.75292E+04  1.58678E+03 -5.56337E+04 -4.05806E+04
 -1.30429E+04 -5.88548E+04  4.17268E+04 -4.21039E+04  5.46069E+04 -1.14031E+03  3.28140E+04  3.24562E+04
 -4.50337E+03  3.59595E+04 -3.01664E+04  1.44134E+04 -2.66512E+04 -4.31709E+03 -1.39981E+04 -1.29421E+04
 -8.93259E+03 -8.53379E+03 -1.72742E+03 -1.57767E+04  4.99388E+03 -2.58718E+04  1.62597E+04 -1.38874E+04
  1.06797E+04  5.22685E+03 -3.99883E+03  1.79677E+04 -1.85542E+04 -5.42168E+03 -5.69343E+03 -3.54231E+04
  2.06528E+04 -4.14146E+04  4.16912E+04 -2.23009E+04  3.70685E+04  1.67417E+04  1.61956E+04  4.06292E+04
 -1.69647E+04  3.03382E+04 -2.19535E+04 -3.48042E+02 -9.94971E+03 -2.37424E+04  2.41193E+04 -3.10481E+04
  4.07003E+04 -8.86641E+03  3.18130E+04  1.97421E+04  1.99465E+04  3.57525E+04 -6.51416E+03  4.20998E+04
 -2.99952E+04  2.65363E+04 -3.89765E+04  3.22731E+03 -3.99214E+04 -1.48943E+04 -2.53921E+04 -3.35565E+04
  1.09538E+04 -3.64721E+04  3.14461E+04 -1.29941E+04  2.65256E+04  1.31420E+04  5.21913E+03  1.66035E+04
 -1.30728E+04  3.34871E+03 -1.06965E+04 -2.52048E+03  2.61612E+03 -9.31871E+03  1.73225E+04  4.54499E+03
  1.06324E+04  2.23792E+04 -7.72963E+03  2.52357E+04 -2.12227E+04  1.05199E+04 -2.63809E+04 -7.01624E+03
 -1.56477E+04 -1.77151E+04 -9.07695E+03 -1.70625E+04  9.62066E+03 -1.67446E+04  1.07869E+04 -9.64166E+03
  2.29832E+04 -1.26223E+04  3.13739E+04  3.58144E+03  2.29157E+04  1.34625E+04  5.94656E+03  3.56916E+04
 -1.77994E+04  2.80385E+04 -2.76028E+04  1.12960E+04 -1.75571E+04 -1.01218E+04 -2.02429E+03 -1.36177E+04
  1.82278E+03  5.67793E+00  2.03603E+03  9.50299E+03 -1.63560E+04  4.47352E+03 -1.14856E+04 -7.12835E+03
 -8.62673E+03 -1.81071E+04  2.69088E+03 -2.16203E+04  1.01940E+04 -1.25847E+04  1.15660E+04  6.63145E+02
  1.17022E+04  1.23418E+04 -1.17276E+03  1.25005E+04 -9.16845E+03  7.70975E+03 -1.28240E+04 -3.30164E+03
 -1.37506E+04 -1.53415E+04 -7.58424E+03 -1.71711E+04  7.89386E+03 -1.77775E+04  1.34369E+04 -8.24502E+03
  1.92410E+04  2.35864E+03  1.36111E+04  2.36888E+03  5.86548E+03  2.18218E+03  9.84092E+03 -4.62707E+03
  1.46980E+04  2.88385E+03  1.27074E+04  1.52102E+04  6.75947E+03  2.47257E+04 -9.70313E+03  2.84495E+04
 -1.90293E+04  2.45129E+04 -2.56779E+04  7.06358E+03 -2.66451E+04 -3.40663E+03 -1.96590E+04 -1.38865E+04
 -5.88988E+03 -1.81158E+04  4.57808E+03 -1.79518E+04  1.79352E+04 -5.55905E+03  1.67560E+04  6.40241E+03
  6.01777E+03  1.03040E+04 -4.62014E+03  9.93179E+03 -1.47486E+04 -2.69629E+02 -1.08045E+04 -7.69546E+03
 -1.40989E+03 -1.22868E+04  5.98015E+03 -9.68708E+03  8.55903E+03  1.89124E+03  1.94254E+03  3.40464E+03
 -6.46820E+03  5.85685E+02 -8.57702E+02 -4.57039E+02  3.57882E+02 -9.49022E+03  9.33977E+03 -1.21466E+04
  1.30012E+04 -7.81435E+03  1.26953E+04  2.27860E+03  7.38307E+03  7.25952E+03  4.97543E+03  1.42822E+04
 -3.74566E+02  1.78928E+04 -7.38635E+03  8.58416E+03 -1.12620E+04  4.29472E+03 -1.02645E+04 -9.55505E+02
 -7.28136E+03 -2.02013E+03 -1.81479E+03  7.25064E+02  1.37918E+03  2.05822E+03 -1.57286E+03  4.23474E+03
 -8.84304E+03 -1.35021E+03 -8.29792E+03 -6.39832E+03 -3.95917E+03 -1.12224E+04  7.64525E+03 -6.16884E+03
  3.83272E+03 -6.04824E+03  4.12473E+03 -9.89905E+01  2.80744E+03  7.13173E+03 -3.56001E+03  2.46488E+02
 -3.45016E+03 -4.62514E+03  2.13831E+01 -6.50233E+03  4.50090E+03 -7.12199E+03  1.05247E+04 -9.85615E+03
  1.12135E+04 -1.34130E+03  6.92687E+03  8.70242E+03  3.28881E+03  1.00804E+04 -1.82933E+03  1.20744E+04
 -5.20826E+03 -5.73977E+02 -4.01368E+03  2.04733E+03  1.94758E+03 -1.09186E+03  3.20153E+03  1.96179E+03
  4.74072E+03  1.89354E+03  3.77412E+03  7.55591E+03 -2.70692E+03  4.39416E+03 -9.04878E+03  1.96177E+03
 -5.03785E+03 -3.87647E+03  1.45249E+03 -6.81297E+03  5.96916E+03 -1.28950E+03  2.93941E+03  3.90198E+03
  2.37976E+03  8.34686E+03 -9.50210E+02  7.35421E+03 -6.50083E+03  4.98997E+03 -6.25140E+03  9.11450E+02
 -4.91994E+02 -7.81181E+03  7.85764E+03 -8.34538E+03  6.92768E+03 -9.49016E+03  4.29994E+03  3.38162E+03
  9.47058E+03  1.15537E+03  5.97008E+03  4.15572E+03 -3.06664E+03  3.21391E+03 -4.28398E+03 -2.35435E+03
 -7.37291E+03 -1.15659E+03  2.00276E+02 -2.56671E+03  2.11522E+03 -3.71417E+03  4.15094E+03  3.27933E+03
  4.70754E+02 -1.97221E+03  3.82458E+03  9.25539E+02  6.77885E+02 -9.93626E+02 -3.30239E+03 -9.80976E+02
  8.99364E+03 -2.96964E+03  2.73878E+03  2.18094E+03  9.11566E+03  2.93796E+03  7.39642E+03  8.09783E+03
 -8.79605E+02  4.19589E+03 -4.16098E+03  7.05030E+03 -1.40070E+04  2.29908E+03 -6.30248E+03 -6.30378E+01
 -5.53607E+03 -6.51204E+03  6.46231E+02 -3.76356E+03 -7.35139E+02 -4.55732E+03 -1.99559E+03  2.52989E+03
 -2.26324E+03  9.50680E+01  3.95843E+03 -3.92062E+03  1.38386E+03  3.84954E+03  3.98977E+03 -9.46097E+02
  3.22364E+03  2.51800E+03  2.90996E+01  1.64666E+03 -3.36232E+03  4.24995E+03 -6.13453E+03  3.07281E+03
 -6.65106E+03  2.60766E+03 -4.15599E+03 -4.88308E+03  2.39187E+03 -6.74394E+02  1.36269E+03 -1.00222E+04
  6.79969E+03 -4.36822E+03  6.35367E+03  3.32250E+03  6.34145E+03  6.01637E+03  2.03898E+03  5.15790E+03
 -3.68477E+03 -2.87323E+02 -2.68133E+03  2.42447E+03 -1.48856E+03  5.92766E+02 -1.33081E+03 -1.21495E+03
  1.28756E+03  3.69695E+02  7.30974E+01 -1.87282E+03  3.75030E+02 -3.05293E+03 -3.87608E+03 -4.21403E+03
 -3.11159E+03  2.46193E+03  6.25490E+03 -8.06651E+03  4.95645E+03 -1.00653E+04  4.53690E+03 -2.39960E+03
  4.10751E+03 -1.42099E+03  7.15357E+02  2.15016E+03 -4.77687E+03  2.47603E+03 -4.34457E+03  4.31147E+03
 -4.50040E+03  6.90745E+02 -7.13369E+03 -1.08015E+03  1.47305E+03 -6.02901E+03  6.60701E+03 -4.86571E+03
 -5.43184E+02  5.17727E+02  3.14984E+03  3.03172E+03 -1.85859E+03  6.19917E+03  1.85334E+03 -3.37707E+02
 -1.65240E+03  9.25870E+02  9.25536E+02  5.10698E+02 -5.11026E+02  3.96698E+03  6.72475E+02  7.87472E+02
  1.37529E+02  6.56339E+03 -1.98100E+03  2.26608E+03 -5.70827E+03  2.27564E+03 -4.07284E+03 -6.63997E+02
 -8.17290E+02 -3.80093E+03 -2.17878E+03 -7.37678E+03  1.23405E+03 -2.92575E+03  7.10101E+03  4.37999E+03
 -6.28729E+02  5.78124E+03 -7.75987E+01  5.93184E+03 -4.33403E+02  1.27175E+03 -3.25818E+03  2.86153E+02
 -8.09643E+01 -2.00473E+03 -1.75739E+03 -4.35663E+02  3.58973E+03  2.36004E+03  1.54145E+03  4.59110E+03
  9.87307E+02  2.70371E+03 -8.43720E+01  2.65073E+03 -4.26404E+03 -1.37949E+02  1.29233E+03 -4.07777E+03
  3.45122E+02  7.24527E+02  2.57110E+03  2.38542E+03 -2.12335E+03  1.06688E+03 -8.82830E+02 -6.97626E+02
 -4.36824E+03 -3.91650E+03 -4.12045E+03  4.11722E+03  4.14525E+03  2.74593E+02 -1.89155E+03  6.36853E+02
 -5.51653E+03 -1.02115E+03 -2.55556E+02  9.57185E+01  3.54936E+03  2.93839E+02 -3.80720E+02  2.63495E+03
 -7.35820E+02 -7.03538E+02  1.39364E+03 -2.09774E+03 -3.57935E+03 -4.05094E+03  1.42486E+03 -2.39622E+03
 -1.41730E+03 -2.49901E+02 -2.87451E+02 -2.58869E+02  8.12334E+02 -2.11858E+03  3.11627E+03  1.06271E+03
  4.39104E+02 -5.00970E+02  2.54337E+03  1.46715E+03  4.90199E+02 -1.30303E+03  3.90301E+03 -6.10319E+02
  8.40085E+02 -2.44052E+03  4.30195E+03  1.13153E+03  1.31175E+03  2.18650E+03 -3.28090E+03  2.68426E+03
 -3.91395E+03 -2.97747E+03 -1.47907E+03  1.53725E+03  2.51999E+03 -1.62493E+02  8.99027E+02 -1.49489E+03
  1.39377E+03 -1.89264E+03 -3.41358E+02 -2.45947E+03  1.00120E+02  8.51573E+03  8.72849E+01  4.95605E+02
  1.80439E+03  2.90140E+03  5.81434E+02 -2.44437E+03  1.77449E+03 -2.89898E+03 -3.70791E+02  4.14123E+02
  8.83036E+01 -1.39803E+03  2.56650E+02 -1.57226E+03 -3.70235E+03 -3.02463E+03  2.30464E+02 -2.10271E+03
 -4.08391E+03 -2.73641E+03  2.20481E+03  5.44582E+02  2.33168E+03 -1.26796E+03  4.70642E+03 -6.27766E+02
  1.07630E+02  1.09474E+03 -8.75515E+01  3.03408E+03 -6.57831E+02  1.14685E+03 -7.59878E+02 -1.98612E+02
  1.87401E+03  2.13364E+03 -1.93103E+03  1.66246E+03 -1.52814E+03  3.47420E+03 -4.98628E+03 -2.90047E+03
  1.24593E+03  2.43370E+03 -1.11156E+03 -7.84379E+02 -1.33869E+03  1.78161E+03  1.83610E+03 -2.11235E+03
  6.83178E+03 -4.39062E+03  4.45556E+03 -2.20117E+03  3.97737E+03 -3.99684E+02 -3.55285E+02  1.12130E+03
  2.83143E+03  1.18598E+03 -1.89471E+03  4.08704E+02 -1.50241E+03 -1.41829E+03 -1.59095E+02 -2.86196E+02
  1.71815E+03 -1.56187E+03 -1.51282E+03 -2.60059E+03 -3.55582E+03  6.00464E+02  4.47234E+03  2.82814E+03
  1.52643E+03  4.33602E+03 -3.79716E+03  6.91327E+03  1.01193E+03  2.89010E+03 -2.47158E+03  3.11982E+03
  2.01093E+03  3.78676E+03 -1.19864E+03  1.74202E+03  7.05833E+02 -4.84923E+03 -2.85912E+03  3.16959E+01
 -2.60727E+02 -7.13509E+02 -2.93749E+02  5.29103E+03 -1.63791E+03  5.34434E+02 -5.14883E+02 -5.77163E+01
 -2.46021E+03  2.02564E+03  2.26348E+03  3.63988E+03  3.49829E+03 -5.21759E+02 -2.43619E+03  4.61844E+03
  2.00437E+03 -1.32431E+03 -1.37824E+03 -1.38685E+03 -2.62909E+03 -2.31982E+03  1.51410E+03  2.93469E+03
  7.03311E+02 -6.15046E+03  1.71569E+03 -2.76434E+03  1.74698E+03  1.88976E+03  3.62667E+02 -5.20281E+03
 -1.30278E+03  1.75251E+03 -1.83025E+02 -3.97299E+03  4.53407E+03  2.37134E+03  5.28625E+03  4.22521E+03
  2.04999E+03  2.48497E+03  1.25557E+02 -4.35715E+03 -1.65220E+03 -1.50093E+03  7.42558E+02  1.59846E+03
