 $NMID ID='MM_0lb_SNR50_20hz_g45_10.RAW', FMTDAT='(8E13.5)'
 TRAMP=1., VOLUME=1. $END
  3.11780E+05  1.72832E+03  3.37920E+05  2.48082E+05  8.43700E+04  3.37157E+05 -1.36047E+05  2.46792E+05
 -1.87989E+05  8.14999E+04 -1.11639E+05 -3.54035E+04  2.16558E+03 -5.06577E+04  5.47372E+04  4.41507E+03
  3.36261E+04  5.57557E+04 -1.40524E+04  7.25214E+04 -6.24027E+04  6.27672E+04 -8.74901E+04  3.21773E+04
 -8.30580E+04 -1.02069E+04 -5.67492E+04 -4.84208E+04 -1.46314E+04 -6.50758E+04  2.76360E+04 -4.40605E+04
  4.21767E+04  6.51312E+03  1.43434E+04  4.61175E+04 -3.46427E+04  4.26592E+04 -6.99459E+04  3.28778E+03
 -4.87472E+04 -5.38213E+04 -4.72062E+03 -7.50477E+04  3.02013E+04 -5.47814E+04  4.28427E+04 -1.45974E+04
  3.78511E+04  1.13878E+04  3.13855E+04  2.62990E+04  1.41682E+04  3.13030E+04 -4.11032E+03  2.65348E+04
 -2.26767E+04  1.30661E+04 -1.63172E+04 -3.31903E+03  1.49310E+03 -8.22915E+03  2.21255E+04  1.46443E+04
  8.40300E+03  2.84902E+04 -2.80031E+04  3.48357E+04 -6.11136E+04 -1.02816E+03 -5.28305E+04 -4.24338E+04
 -1.13214E+04 -6.44326E+04  3.78773E+04 -4.26673E+04  5.39434E+04  1.28408E+03  3.39203E+04  3.22268E+04
 -3.80926E+03  2.76302E+04 -2.74635E+04  1.02416E+04 -3.04364E+04 -8.38446E+03 -1.49022E+04 -8.11674E+03
 -5.31795E+03 -1.00894E+04 -3.39147E+03 -9.64448E+03  5.90203E+03 -2.32172E+04  1.13419E+04 -1.65634E+04
  1.16656E+04  5.05083E+03 -3.60943E+03  1.25757E+04 -2.32849E+04 -2.65192E+03 -8.57367E+03 -3.15559E+04
  1.80327E+04 -3.97305E+04  4.34746E+04 -1.88588E+04  4.03203E+04  1.77372E+04  1.46185E+04  4.24299E+04
 -1.43036E+04  2.73370E+04 -2.10215E+04  4.17094E+02 -8.42755E+03 -2.49988E+04  1.77633E+04 -2.72914E+04
  4.17720E+04 -7.46634E+03  3.52601E+04  2.33773E+04  1.43810E+04  4.13901E+04 -8.75467E+03  4.46764E+04
 -2.90828E+04  2.87318E+04 -3.56508E+04  1.17637E+04 -3.50730E+04 -1.47344E+04 -2.40510E+04 -3.64865E+04
  5.97468E+03 -3.47644E+04  3.23698E+04 -1.31649E+04  2.82902E+04  1.26959E+04  6.03955E+03  1.32435E+04
 -1.15027E+04  3.81214E+03 -1.11216E+04 -5.88987E+03  6.98867E+03 -1.05208E+04  1.66757E+04  7.60024E+03
  6.43918E+03  2.42582E+04 -4.83963E+03  2.21891E+04 -1.98070E+04  1.17393E+04 -2.46995E+04 -9.31252E+03
 -1.48575E+04 -1.90074E+04 -6.75680E+03 -1.29261E+04  3.42863E+03 -1.56030E+04  7.33375E+03 -1.20828E+04
  2.03032E+04 -1.01412E+04  2.78230E+04  7.85262E+02  2.25154E+04  1.12300E+04  4.13106E+03  3.05294E+04
 -1.46370E+04  2.40603E+04 -2.52862E+04  7.20206E+03 -1.93443E+04 -7.05402E+03 -5.33883E+03 -1.26967E+04
  3.90284E+03 -5.84979E+03 -2.71013E+03  5.01229E+03 -1.08504E+04  8.70176E+03 -1.33512E+04 -5.79489E+03
 -6.92201E+03 -1.94860E+04  3.38097E+03 -1.70283E+04  9.91059E+03 -1.49970E+04  1.37708E+04  1.21445E+03
  6.74006E+03  8.49041E+03 -1.68613E+03  1.35429E+04 -8.19833E+03  1.29253E+04 -1.11512E+04 -4.23917E+03
 -1.05785E+04 -1.03225E+04 -7.16963E+02 -1.42076E+04  5.32182E+03 -1.52525E+04  1.90205E+04 -5.13623E+03
  1.52407E+04  4.42932E+02  5.13818E+03  3.63411E+03  3.56637E+03 -3.20729E+03  9.10661E+03 -4.08726E+03
  1.10493E+04  5.05879E+03  1.16772E+04  1.37159E+04  1.13191E+04  2.02850E+04  8.25838E+02  2.09027E+04
 -1.26901E+04  1.43782E+04 -2.06095E+04  9.10107E+03 -2.13560E+04 -3.50734E+03 -1.94277E+04 -1.40865E+04
 -9.63400E+03 -1.73991E+04  7.01532E+03 -1.43744E+04  1.69648E+04 -1.24430E+04  1.57269E+04  9.06831E+02
  7.13559E+03  6.40950E+03 -4.01416E+03  6.33730E+03 -1.18832E+04  4.42869E+03 -8.38191E+03 -6.91547E+03
 -1.91102E+03 -1.35398E+04  7.84797E+03 -1.03115E+04  8.47797E+03 -5.84149E+02  3.88213E+03  5.39805E+03
 -6.59554E+03  5.62714E+03 -3.30304E+03 -4.42991E+03  1.99763E+03 -8.97993E+03  6.30451E+03 -5.74084E+03
  9.79409E+03 -5.29316E+03  9.45486E+03  1.16118E+03  9.40331E+03  5.30482E+03  9.95289E+02  1.08775E+04
 -1.06932E+03  1.38242E+04 -6.47287E+03  1.06663E+04 -1.04414E+04  3.09581E+02 -1.00309E+04 -2.53278E+03
 -2.11638E+03 -4.23259E+03 -6.28800E+01  1.03808E+03  8.33661E+02  7.80327E+02 -5.41817E+03  2.83640E+03
 -8.39491E+03  6.44796E+02 -5.44432E+03 -9.82588E+03 -5.39321E+03 -9.90548E+03  5.74983E+02 -1.06068E+04
  7.16686E+03 -5.98171E+03  6.79420E+03  1.09996E+03  1.63605E+03  4.56689E+03 -5.57191E+03 -1.37144E+03
  1.13860E+03 -6.82150E+03  7.18601E+02 -9.97084E+03  4.70301E+03 -6.33861E+03  1.10770E+04 -4.44502E+03
  1.32167E+04  8.31564E+02  6.26387E+03  7.08128E+03  5.24430E+03  5.99206E+03 -6.71978E+03  6.32802E+03
 -8.03826E+03  2.34557E+03 -7.71569E+03  2.90660E+03  6.66596E+02 -2.98768E+03  3.97329E+03  4.25180E+02
  2.30934E+03  2.50629E+03  4.02149E+03  2.00150E+03 -1.93168E+03  6.24274E+03 -3.42323E+03  3.58662E+03
 -4.08484E+03 -1.29188E+03  1.32536E+03 -6.31536E+03  8.72482E+02 -2.00096E+03  5.80327E+03  2.72040E+03
  2.41510E+03  4.33754E+03 -3.71955E+03  5.50873E+03 -7.27098E+03  5.39654E+02 -5.54484E+03 -3.68666E+03
 -9.40909E+01 -2.65742E+03  3.21454E+03 -8.52666E+03  3.26508E+03 -5.54577E+03  4.29163E+03  2.09248E+03
  1.51922E+03  1.37483E+03 -2.72349E+02  4.61202E+03 -7.85554E+03  3.57032E+03 -5.95255E+03  5.62111E+01
 -5.14721E+03 -6.07398E+03 -4.76065E+03 -7.02211E+03  4.69641E+02 -2.75908E+03  1.42645E+03 -2.43211E+03
  2.43504E+03  9.29249E+01  6.90263E+03  7.21407E+02  7.13880E+02 -5.15714E+01 -2.62512E+02 -5.41835E+03
  1.29690E+03 -5.66761E+03  6.25508E+03  2.37147E+03  3.93766E+03  4.20957E+03  3.88439E+03  9.83227E+03
 -4.00252E+03  6.20358E+03 -4.49057E+03  7.66814E+03 -4.00122E+03 -1.53605E+03 -1.03510E+04 -3.50058E+02
 -2.32893E+03 -4.06330E+03  1.05443E+02 -5.99549E+03  1.50911E+03 -3.41510E+02  1.25742E+03  1.85732E+03
  3.58808E+03 -1.45807E+03  4.97505E+03  9.51961E+02  4.37266E+03 -4.98994E+03  5.12071E+03  1.27272E+03
  4.70129E+03  1.67006E+03  6.81757E+02  1.10483E+03 -2.17975E+03  6.29343E+03 -3.99041E+03  3.45265E+03
 -3.61521E+03 -2.96661E+03 -4.86234E+01  1.72746E+03  3.12374E+03 -2.51586E+03  4.45121E+03 -4.91492E+03
  2.20714E+02 -3.57436E+02  7.03718E+03  7.57209E+02  2.43943E+03  2.79030E+03  6.08707E+03  4.90339E+03
 -3.31695E+03  4.37364E+03 -7.06569E+03 -2.82177E+02  3.63685E+03 -3.83609E+03  5.57090E+02 -2.31431E+03
  9.68689E+00  4.09807E+03 -1.78443E+02  1.25128E+03 -9.91257E+02  2.96915E+03 -8.24584E+03  2.33983E+03
 -1.85858E+03 -1.52843E+03  3.49131E+03 -7.22518E+03 -7.56222E+02 -3.19412E+03 -6.78636E+02  4.88600E+02
  4.65482E+03 -3.80221E+03  1.11857E+03  3.12871E+03 -2.37349E+02  3.05206E+03 -9.78738E+02  9.11516E+02
 -5.08996E+03  2.58351E+03 -2.70782E+03 -7.32981E+03  2.11088E+03 -3.90032E+03  9.09867E+02  4.46424E+02
  5.83917E+02 -2.14258E+03  3.45446E+03 -2.04063E+03  8.72028E+02  2.95980E+03  1.67842E+03  7.31251E+02
  2.83339E+02 -3.04822E+02  3.89058E+03  1.08085E+02  6.03350E+02  8.06793E+02  1.31915E+03  3.86666E+03
 -2.81647E+03  1.16571E+03 -6.99615E+02  4.53548E+03 -2.69182E+03 -1.32824E+02 -5.87197E+03  2.68505E+03
 -3.15235E+03 -3.21806E+03  8.57050E+02 -4.73126E+03  2.39853E+03  2.90231E+03  2.00929E+03 -9.46377E+02
  3.03161E+03  5.05586E+03  1.09728E+03  3.10649E+03  2.74130E+03  3.07559E+03 -1.34755E+03 -2.38144E+03
 -6.93372E+03  3.62439E+02 -2.55342E+03 -1.94673E+03 -6.28606E+02 -6.44162E+02  2.78289E+03  1.42784E+03
  1.89712E+03 -3.76110E+03 -5.27264E+02  1.12589E+03 -1.93812E+03 -5.87960E+02  1.11399E+03 -1.00357E+03
 -1.52661E+02 -3.01086E+03  5.19022E+02  2.70440E+03 -2.84305E+03  4.79944E+03 -1.37450E+03  5.12697E+02
 -3.04879E+03 -3.64421E+02 -5.54558E+03  1.00817E+03 -3.36643E+03  2.62157E+03 -1.09468E+03 -4.11948E+03
  1.18493E+03  1.57019E+03  2.21661E+03 -9.49707E+02  8.91390E+02  1.48683E+03 -4.47458E+02  2.29360E+03
 -2.50421E+03  3.79279E+03  1.35902E+03  9.40032E+02  2.68117E+01 -3.92878E+02  2.42836E+03 -9.01798E+02
  2.21371E+03  1.98678E+03 -3.26360E+03 -2.90971E+02  2.28852E+03 -1.59365E+03  3.61399E+03  2.81211E+03
 -6.65395E+02  2.84932E+03 -2.07571E+03 -2.33870E+03  2.99946E+03  1.86718E+03  1.14712E+03  2.23433E+03
 -3.31332E+03 -2.66089E+02  2.17438E+03 -9.60568E+02  1.88817E+03  5.59312E+02  9.89793E+01 -7.25297E+01
 -2.24178E+03 -5.00611E+03 -3.13206E+03 -1.35990E+03 -3.61319E+03 -4.56421E+03  9.04142E+02  1.06049E+03
  4.37136E+03  8.29832E+01  1.15777E+03  9.29030E+02 -8.78130E+02 -1.01497E+03 -5.70482E+02  1.61083E+03
  2.87044E+02 -2.88322E+03 -3.20564E+03  1.05280E+03 -2.56281E+03  1.93871E+03 -3.36648E+03  1.43835E+02
 -1.68971E+03  1.04303E+03 -1.49882E+03 -1.72433E+03 -3.70059E+03  1.55454E+03 -9.88921E+02 -8.56213E+02
  2.09873E+03  3.82495E+02 -3.66290E+03 -2.43260E+03  3.19700E+03 -2.92900E+03  2.66297E+03 -9.41668E+02
  2.33311E+02  3.34279E+03  1.69694E+03  5.22275E+03  1.02940E+03  1.80936E+03  2.70881E+03  2.20004E+03
 -8.15118E+00  1.36433E+03 -2.28400E+03  2.00570E+03 -1.61515E+03 -1.16070E+02  5.88731E+03 -2.56486E+02
 -2.07735E+03 -6.84009E+02 -1.63915E+03  4.80911E+00 -7.29097E+02  3.55169E+03 -1.60783E+03  3.59033E+03
  2.46094E+03 -1.09914E+03 -1.46513E+03 -1.58922E+03  3.83638E+01  4.12143E+03  1.27315E+03  1.30553E+03
 -3.20437E+03  3.35097E+03 -7.46622E+02  1.09523E+03 -4.03783E+03 -4.44065E+02 -2.78815E+03 -1.47915E+03
  1.52135E+03 -1.83428E+03  1.07671E+03 -4.71644E+02  2.80812E+03 -1.08026E+02  2.60631E+03 -4.38228E+02
 -9.02878E+02  5.13614E+03  2.02407E+03 -1.22920E+03 -2.06527E+02 -2.75573E+03 -1.26248E+03 -7.80356E+01
 -2.04284E+03  3.43988E+03 -3.11133E+03  1.16915E+03  3.24386E+02  2.02942E+03  3.68829E+02  1.19307E+03
 -2.61175E+03  1.57849E+03 -1.39024E+03  2.57006E+03 -2.18862E+03 -5.53132E+02  5.34338E+01 -9.81854E+02
  9.39900E+02 -1.06542E+03 -1.13084E+03  7.07019E+02 -3.00777E+02 -5.47391E+02 -4.37929E+03 -1.38410E+03
  1.80113E+03 -5.21551E+02  2.80715E+03  7.71481E+02  8.77809E+01  1.98866E+02  3.41875E+02 -6.05277E+02
 -2.77853E+02  5.85046E+02  1.48024E+03  1.69833E+03  4.57644E+02  4.78446E+02 -8.83231E+02 -1.97569E+03
  5.92801E+02 -2.72931E+03 -3.18743E+03 -9.63367E+02 -1.42261E+02 -2.14590E+03 -2.23715E+03  4.16355E+03
  3.81045E+03 -2.28473E+03 -2.20218E+03 -2.70046E+03 -2.33076E+03  1.47759E+03 -2.62089E+01  2.32945E+03
