 $NMID ID='MM_0lb_SNR50_10hz_g45_62.RAW', FMTDAT='(8E13.5)'
 TRAMP=1., VOLUME=1. $END
  3.07813E+05 -2.70601E+03  3.40489E+05  2.49679E+05  8.67622E+04  3.44437E+05 -1.31419E+05  2.51801E+05
 -1.94185E+05  8.88447E+04 -1.13496E+05 -3.31489E+04  5.27325E+03 -4.42337E+04  5.75553E+04  1.47139E+03
  3.50833E+04  5.21227E+04 -1.58911E+04  6.85437E+04 -6.40824E+04  6.44429E+04 -8.38852E+04  3.43965E+04
 -8.05837E+04 -1.02364E+04 -5.65481E+04 -5.25524E+04 -1.16105E+04 -6.43840E+04  2.68484E+04 -4.88302E+04
  3.87136E+04  6.01974E+03  1.67900E+04  5.13508E+04 -3.70953E+04  4.94059E+04 -6.69945E+04  4.18775E+03
 -5.53129E+04 -6.30654E+04 -8.09605E+03 -7.92147E+04  3.47073E+04 -5.25314E+04  4.57411E+04 -1.99251E+04
  4.28613E+04  4.84867E+03  3.58122E+04  2.32656E+04  1.53502E+04  3.92256E+04 -6.75003E+03  2.83998E+04
 -3.07234E+04  1.13622E+04 -2.06385E+04 -5.16740E+03  2.06691E+03 -1.21576E+04  2.16479E+04  8.17104E+03
  6.56191E+03  3.39436E+04 -3.79196E+04  4.45824E+04 -7.25179E+04  2.34530E+03 -6.00527E+04 -4.22968E+04
 -1.16401E+04 -6.12278E+04  3.91264E+04 -4.66964E+04  6.19783E+04  5.44771E+03  3.46493E+04  2.96870E+04
 -4.01747E+03  4.05603E+04 -3.28656E+04  1.58181E+04 -3.11524E+04 -6.10777E+03 -1.88860E+04 -1.16088E+04
 -1.03979E+04 -2.16583E+04  8.90074E+03 -1.99436E+04  4.44258E+03 -2.79049E+04  1.29299E+04 -1.50534E+04
  1.61859E+04  4.90328E+03 -9.08587E+03  1.44790E+04 -2.74253E+04 -8.27183E+03 -5.23099E+03 -3.69242E+04
  2.06634E+04 -4.60235E+04  4.77391E+04 -2.16956E+04  5.14183E+04  1.90342E+04  1.83797E+04  5.15358E+04
 -1.94198E+04  4.09824E+04 -2.82944E+04  1.33701E+03 -1.59746E+04 -2.55026E+04  2.30839E+04 -3.60550E+04
  4.77982E+04 -1.04134E+04  3.71710E+04  2.01822E+04  1.61067E+04  5.05330E+04 -6.61807E+03  5.88408E+04
 -3.62807E+04  3.83400E+04 -4.80365E+04  1.27004E+04 -4.91077E+04 -1.74596E+04 -2.09544E+04 -4.03750E+04
  6.27407E+03 -3.69044E+04  3.19730E+04 -1.19114E+04  2.92634E+04  8.49703E+03  4.82400E+02  1.96888E+04
 -1.52122E+04  4.74271E+03 -1.12549E+04 -8.29052E+03  7.43467E+03 -1.07046E+04  1.88374E+04  6.08874E+03
  1.20924E+04  2.44020E+04 -9.07881E+03  2.68744E+04 -1.66910E+04  1.10147E+04 -3.12131E+04 -5.04836E+03
 -2.43311E+04 -2.05115E+04 -1.39746E+04 -2.80968E+04 -4.02482E+03 -2.35499E+04  1.53619E+04 -2.48649E+04
  2.85088E+04 -1.25761E+04  4.01950E+04  3.48186E+03  2.25276E+04  2.31973E+04  4.95318E+03  4.13611E+04
 -1.99667E+04  3.41168E+04 -3.49996E+04  7.23614E+03 -2.37710E+04 -1.65145E+04 -3.21344E+03 -1.62953E+04
 -8.50435E+02  8.20050E+02 -8.02864E+03  9.69172E+03 -2.15042E+04 -2.87417E+03 -2.12575E+04 -5.66727E+03
 -1.47388E+04 -2.94112E+04  4.98295E+03 -2.69486E+04  1.28682E+04 -2.44102E+04  2.72081E+04  2.99471E+03
  1.33797E+04  1.81070E+04 -2.81296E+03  1.64165E+04 -1.22212E+04  1.31451E+04 -2.24066E+04  8.68793E+01
 -1.34605E+04 -2.17274E+04  1.66363E+03 -2.76755E+04  1.48025E+04 -1.97761E+04  2.32736E+04 -1.04690E+04
  1.84248E+04  4.77764E+03  1.21544E+04  6.14764E+03  6.73884E+03  1.36584E+03  6.67580E+03  2.23198E+03
  2.01156E+04  1.52394E+03  2.53452E+04  1.41963E+04  1.65305E+04  3.17669E+04 -6.10386E+03  4.43678E+04
 -2.29943E+04  2.93596E+04 -3.37821E+04  1.99090E+04 -3.87988E+04 -1.58449E+02 -3.43108E+04 -2.86734E+04
 -1.83723E+04 -3.69890E+04  7.98755E+03 -3.02933E+04  2.96130E+04 -1.63522E+04  2.81749E+04  1.21889E+04
  1.11698E+04  1.56313E+04 -4.05918E+03  1.76335E+04 -1.97414E+04 -4.24939E+03 -1.27410E+04 -1.50259E+04
  2.20928E+03 -1.89525E+04  7.04285E+03 -1.35794E+04  3.27410E+03 -1.73570E+03  2.74858E+03  5.02248E+03
 -1.33406E+04  1.03718E+04 -8.84011E+03 -1.56587E+03  3.33959E+03 -1.48087E+04  1.44117E+04 -1.84474E+04
  2.46711E+04 -1.08754E+04  2.16362E+04  4.94495E+03  2.03596E+04  1.68502E+04  4.32327E+03  3.05476E+04
 -4.36435E+03  2.94082E+04 -1.14065E+04  2.28900E+04 -2.63091E+04  4.03256E+03 -1.51026E+04 -3.69877E+03
 -9.36179E+03 -8.25684E+03 -2.17935E+03  2.12579E+03  3.32246E+03  1.23228E+03 -5.30641E+03  6.85664E+03
 -1.63829E+04 -5.09519E+03 -7.41645E+03 -1.01510E+04 -1.74465E+03 -1.32878E+04  4.06157E+03 -1.57492E+04
  1.48459E+04 -1.36671E+04 -2.20978E+02  4.66518E+03  5.26166E+03  7.64556E+03 -1.34367E+04  3.52532E+03
 -5.03277E+03 -9.53767E+03 -2.42597E+03 -1.65952E+04  3.22542E+03 -1.35749E+04  1.98191E+04 -1.45541E+04
  2.22219E+04  4.23034E+02  2.01340E+04  1.79825E+04  6.01671E+03  1.88877E+04 -9.79538E+03  1.10927E+04
 -1.12722E+04  2.00484E+03 -7.67050E+03 -4.04512E+03  4.78148E+03 -1.52381E+03  6.63918E+03 -8.43977E+02
  1.34151E+04  7.51336E+03 -1.55695E+03  6.51519E+03 -8.05956E+03  1.33836E+04 -1.44232E+04  6.20942E+03
 -1.31755E+04 -9.85135E+03  3.31914E+03 -1.37306E+04  1.01762E+04 -5.94378E+03  7.67211E+03  7.04452E+02
 -1.07200E+03  6.03831E+03 -2.71111E+03  1.53374E+04 -1.17482E+04  2.40441E+03 -1.46621E+04 -1.81673E+03
 -1.39395E+04 -8.89375E+03  1.68220E+03 -1.70524E+04  1.36679E+04 -1.15266E+04  1.43912E+04  5.57545E+03
  9.53974E+03  1.36674E+04 -6.75068E+03  1.59073E+04 -1.10865E+04  6.50262E+03 -7.75055E+03  7.12785E+02
 -5.97330E+03 -8.62592E+03 -3.40019E+03 -7.44584E+03  1.02539E+04 -7.75670E+03  2.36258E+03 -5.23046E+03
  6.06361E+03 -3.64639E+03  1.68015E+03 -3.62647E+03 -4.23594E+03 -3.36028E+02  2.98155E+03 -1.04152E+04
  1.16027E+04 -3.46990E+03  1.29677E+04  2.77803E+03  1.52407E+04  1.05069E+04  1.08885E+04  2.08348E+04
  2.35585E+03  2.24055E+04 -1.25687E+04  2.41395E+04 -2.61675E+04  7.74361E+03 -1.24909E+04 -2.57189E+03
 -1.65463E+04 -1.19893E+04 -2.48854E+03 -1.44555E+04  9.31225E+02 -6.33390E+03  6.08186E+03 -5.23394E+03
  3.12076E+03  2.05245E+03  2.31790E+02 -4.27611E+03  7.40665E+03 -2.03965E+03  8.64974E+03  4.56077E+00
  1.16967E+04  3.81762E+03  9.18228E+03  5.49847E+03  1.92033E+02  1.11420E+04 -3.75565E+03  4.67826E+03
 -9.55256E+03 -4.18354E+03 -8.20913E+03 -3.34006E+03  6.24672E+03 -1.70955E+04  9.33394E+03 -1.53345E+04
  1.52570E+04 -1.54934E+04  1.08422E+04  3.44035E+03  9.06725E+03  1.26383E+04  4.77484E+03  1.52776E+04
 -5.03134E+03  1.18445E+04 -6.75682E+03  2.53910E+03 -8.70873E+03  2.06643E+03 -7.05508E+03 -2.82388E+03
  3.21664E+03 -1.55904E+01 -3.59530E+03 -1.58699E+02 -3.09304E+03 -5.77029E+03 -1.34362E+04 -8.67082E+02
 -1.04132E+04 -9.51072E+03 -5.62163E+03 -1.56871E+04  1.82982E+03 -5.81962E+03  1.88826E+04 -7.12580E+03
  8.28849E+03  6.57578E+03  4.11687E+03  9.49316E+03  6.68996E+02  1.20421E+04 -1.18236E+04  4.87860E+03
 -1.28574E+04  3.46136E+03 -7.18815E+03  1.09454E+03 -2.56728E+03 -1.03543E+04 -3.59238E+02 -7.21946E+03
  1.39575E+04 -1.35666E+03  9.10326E+03 -9.23106E+02  1.38097E+03  7.07425E+03  4.33592E+03  4.25265E+03
  3.67686E+02 -1.55387E+03  4.71497E+03  6.59120E+03  1.34886E+03  8.93811E+03  3.33031E+03  4.92289E+03
 -4.58037E+03  9.17532E+03 -6.52034E+03  7.99868E+03 -1.71299E+04  1.72264E+03 -1.70018E+04 -2.31372E+03
 -7.56705E+03 -1.29829E+04  4.34973E+03 -1.75820E+04  9.10627E+03 -8.95375E+03  9.35429E+03 -5.97308E+03
  8.44840E+03  8.58380E+03  1.07186E+04  1.03787E+04 -4.76305E+03  1.66819E+03 -7.51943E+03  1.68047E+03
 -6.07816E+03 -1.12695E+04 -1.11758E+03 -8.01068E+03  5.72603E-01 -8.24202E+03  2.67170E+03  8.49748E+03
  4.52411E+03 -1.06407E+03 -8.48637E+02  4.03851E+02 -6.70558E+03  5.74604E+03  5.34647E+03 -1.65535E+03
  1.68299E+03 -4.68657E+03  3.71750E+03  2.13467E+03  4.40293E+03  7.33044E+03 -3.84484E+03  5.94344E+03
 -8.76021E+03  7.44577E+03 -6.62890E+03 -5.66259E+02 -6.75246E+03 -1.81890E+03 -4.42445E+03 -8.85494E+03
 -1.81523E+03 -4.83858E+03  1.91183E+03 -6.37736E+03  2.41161E+03  3.11419E+03 -7.72385E+03  6.87991E+03
 -6.90088E+03  3.86997E+03 -7.21864E+03 -4.98157E+02 -7.81917E+03 -9.15468E+03  1.84469E+03 -9.86713E+03
  9.10738E+02 -1.77421E+03  2.82983E+03  3.31889E+01  3.57968E+03 -3.90501E+03 -2.10173E+02  6.14934E+03
  3.07329E+03  1.76294E+02 -2.95690E+03 -5.19213E+03  4.23419E+03 -1.05898E+04  8.33033E+03 -3.20157E+03
  3.06107E+03 -1.37861E+03  3.32542E+03  1.03151E+04  6.79157E+02  8.82295E+03 -4.92137E+03  1.03571E+04
 -8.55251E+03  6.12412E+03 -2.46819E+03 -3.65275E+03 -7.09376E+03 -7.72684E+03  1.74680E+03 -2.50442E+03
  4.35471E+03 -2.05171E+03  6.80112E+03  7.76224E+03  2.44721E+03  3.97855E+02  3.52757E+03  2.94587E+03
 -8.60395E+03  4.81264E+03 -2.06889E+03 -1.23740E+02  3.04067E+03 -4.09885E+03 -1.54792E+03 -1.12788E+03
 -1.90720E+03  1.70151E+03  5.96756E+02  5.96220E+03 -9.83979E+03  7.46247E+02 -1.02146E+04 -6.67323E+03
 -5.62114E+03 -1.06066E+04 -5.09891E+03 -1.81493E+04  8.90118E+03 -9.32004E+03  8.48756E+03 -7.08143E+02
  1.18430E+04  1.29091E+04  1.10713E+04  8.43722E+03 -1.40849E+02  5.09308E+03  1.61717E+03  5.31326E+03
 -7.27446E+03  7.30991E+02 -2.08146E+03 -4.16600E+03  1.86602E+03 -2.34902E+03 -2.02100E+03  9.40514E+02
 -1.70401E+03  5.77916E+02 -2.92889E+03 -1.45706E+03  3.86707E+03 -5.25110E+03  4.55068E+03 -5.66333E+03
  1.93632E+03 -5.09675E+02  2.61500E+03  3.03397E+03  4.59375E+03  9.49008E+03  2.99150E+03  9.35931E+03
 -5.32187E+03  5.92816E+03 -1.30273E+04  6.73186E+03 -1.08202E+04  3.82138E+03 -1.94121E+03 -4.09693E+03
 -2.04685E+03 -1.25381E+04  5.18257E+03 -9.65914E+03  2.75902E+03 -2.89051E+03  3.59290E+03 -2.42100E+03
  4.67806E+03  3.10807E+02  2.24304E+03  1.55906E+03  1.44499E+03 -3.08609E+03  5.44235E+03  1.03543E+02
  2.14522E+03 -2.35995E+03  5.94209E+03 -1.15361E+03 -3.37575E+03  1.42679E+03 -4.92138E+03  2.94946E+03
 -5.60036E+03  1.02070E+04 -7.86334E+03 -6.10192E+02 -1.00419E+04 -3.32126E+03 -3.58086E+03 -7.68625E+03
 -9.45331E+02 -5.88413E+03  1.32486E+04  1.25760E+03  6.83145E+03  2.29426E+03  3.32025E+03  5.16874E+01
  7.14047E+01  5.40316E+03 -4.72541E+03  5.92438E+03 -4.05511E+03  7.24812E+02 -1.16790E+03 -7.91273E+01
 -7.02809E+02 -1.22399E+03 -3.58964E+03  2.88848E+03 -7.70182E+03  1.29021E+03 -9.80636E+03  3.90001E+03
 -9.23851E+03 -3.40537E+03 -3.44438E+03 -3.43643E+03 -2.32397E+03 -5.09364E+03 -7.02573E+01 -7.53916E+03
  2.65733E+03  3.10765E+03  4.61622E+03  8.32418E+03  1.71204E+03  6.67680E+03 -1.37257E+03  6.82898E+03
