 $NMID ID='MM_0lb_SNR50_20hz_g55_38.RAW', FMTDAT='(8E13.5)'
 TRAMP=1., VOLUME=1. $END
  3.11118E+05  5.86777E+02  3.38615E+05  2.53070E+05  8.17094E+04  3.38611E+05 -1.36144E+05  2.51540E+05
 -1.88558E+05  8.01459E+04 -1.12307E+05 -2.69831E+04 -1.40121E+03 -5.03773E+04  5.24588E+04 -6.29948E+02
  3.89978E+04  5.67973E+04 -1.69557E+04  7.45463E+04 -5.88792E+04  6.27576E+04 -8.55989E+04  2.87275E+04
 -7.86088E+04 -1.22019E+04 -5.58290E+04 -5.04943E+04 -1.59233E+04 -6.56093E+04  2.94665E+04 -5.00733E+04
  3.66867E+04  1.83064E+03  1.86148E+04  4.41131E+04 -3.46011E+04  4.43579E+04 -6.56960E+04 -4.07835E+03
 -4.99961E+04 -6.12751E+04 -6.25007E+03 -7.39789E+04  3.05986E+04 -5.29313E+04  4.70925E+04 -1.58168E+04
  3.83713E+04  8.82394E+03  3.06688E+04  2.94022E+04  1.91923E+04  2.68597E+04 -4.37209E+03  2.88374E+04
 -1.99535E+04  9.83366E+03 -1.80810E+04 -6.44902E+03  5.57493E+03 -6.65479E+03  2.24455E+04  1.47693E+03
  8.18788E+03  3.28480E+04 -3.21574E+04  3.37259E+04 -5.91178E+04  1.31015E+03 -5.37153E+04 -3.91010E+04
 -1.58558E+04 -5.63538E+04  3.99354E+04 -4.28900E+04  5.69792E+04  1.72320E+03  2.86012E+04  2.97108E+04
 -9.64907E+03  3.34705E+04 -2.49809E+04  1.38836E+04 -2.86563E+04 -4.25627E+03 -1.00420E+04 -8.97678E+03
 -8.70820E+03 -1.73550E+04 -2.70885E+03 -1.68215E+04  1.03104E+04 -2.33952E+04  1.83910E+04 -1.73775E+04
  1.12348E+04  5.98165E+03 -5.53651E+03  1.32435E+04 -1.85907E+04 -4.66437E+03 -8.55188E+03 -3.01232E+04
  2.10700E+04 -4.03986E+04  4.57286E+04 -1.51148E+04  4.53087E+04  2.01837E+04  1.45989E+04  3.91576E+04
 -1.50693E+04  3.28433E+04 -2.13937E+04 -8.92869E+02 -6.32267E+03 -2.47787E+04  2.68945E+04 -3.13042E+04
  3.65650E+04 -2.55014E+03  2.75097E+04  2.66623E+04  1.55280E+04  3.86533E+04 -8.69628E+03  4.59592E+04
 -3.19323E+04  3.18247E+04 -3.70761E+04  9.50663E+03 -3.96035E+04 -1.65346E+04 -2.16730E+04 -3.80728E+04
  6.61302E+03 -3.02936E+04  3.19416E+04 -1.44463E+04  2.28597E+04  6.51713E+03  4.26007E+03  1.38619E+04
 -1.33793E+04  1.23612E+04 -1.29917E+04 -7.12454E+03  2.85771E+03 -9.72620E+03  1.79097E+04  6.05598E+03
  7.65151E+03  2.35306E+04 -1.00011E+04  2.41263E+04 -2.34701E+04  1.08670E+04 -2.50142E+04 -8.76783E+03
 -1.62330E+04 -1.69203E+04 -5.33666E+03 -1.79206E+04  4.57028E+03 -1.53514E+04  1.29708E+04 -1.41049E+04
  2.25479E+04 -6.97251E+03  2.93375E+04  4.93645E+02  1.98195E+04  1.68379E+04  7.71353E+03  2.85584E+04
 -1.96137E+04  3.25975E+04 -2.59995E+04  1.30603E+04 -1.67728E+04 -1.30455E+04  1.03373E+03 -1.88037E+04
  3.86835E+03  1.72744E+03 -2.11119E+03  5.85831E+03 -1.16341E+04  3.64222E+03 -1.22535E+04 -5.13940E+03
 -8.54261E+03 -1.72826E+04  1.83394E+03 -1.80345E+04  1.43719E+04 -9.61478E+03  1.40243E+04 -2.63529E+03
  9.59849E+03  6.19715E+03 -4.47992E+02  1.62344E+04 -9.32344E+03  9.84429E+03 -1.78917E+04 -4.36369E+02
 -9.20125E+03 -1.24866E+04 -2.28811E+03 -1.46119E+04  6.99588E+03 -1.88837E+04  1.90573E+04 -4.87475E+03
  1.20566E+04  1.09153E+03  1.07020E+04  3.50316E+03  6.56550E+03 -6.33655E+02  8.34546E+03 -5.64954E+02
  1.41078E+04  5.56279E+03  1.33722E+04  1.55163E+04  8.51525E+03  2.10637E+04 -1.84268E+02  2.43480E+04
 -1.93945E+04  1.94453E+04 -2.35047E+04  1.12529E+04 -2.11487E+04 -5.74735E+03 -2.48405E+04 -1.32938E+04
 -8.88760E+03 -2.11868E+04  5.99879E+03 -1.61157E+04  1.74500E+04 -8.96055E+03  1.32472E+04  5.49574E+03
  6.38700E+03  1.03594E+04 -1.05609E+04  9.08667E+03 -1.65001E+04  3.83259E+03 -1.28647E+04 -5.75206E+03
  5.41782E+03 -1.23125E+04  1.83922E+03 -4.72193E+03  5.65391E+03  2.43848E+03 -2.71502E+03  3.08751E+03
 -4.65131E+03  4.21517E+03 -3.35242E+03 -5.42308E+03  2.21979E+03 -1.28435E+04  5.73513E+03 -1.34438E+04
  8.22539E+03 -1.94039E+03  1.62968E+04  3.21019E+03  6.49412E+03  9.54983E+03  3.39100E+03  1.47458E+04
 -6.80123E+03  1.66996E+04 -9.11668E+03  1.07129E+04 -9.61056E+03  4.74362E+03 -7.72016E+03  8.98917E+01
 -1.44043E+03 -1.88355E+03 -1.22890E+03  4.16728E+03  5.37316E+02  3.20150E+03 -5.64214E+03  5.89503E+03
 -1.19251E+04 -9.17732E+02 -1.06708E+04 -9.95256E+03 -4.86106E+03 -1.36196E+04  2.30521E+03 -2.76069E+03
  6.26675E+03 -3.78639E+03  3.73668E+03  4.19786E+03  1.37405E+03  2.36285E+03 -4.14720E+03 -3.38939E+03
 -1.34721E+03 -6.03279E+03  2.87269E+03 -3.90419E+03  3.61517E+03 -4.97434E+03  9.56447E+03 -5.89224E+03
  1.16289E+04 -4.36424E+02  7.42178E+03  5.16726E+03  3.27809E+03  1.02100E+04 -4.72362E+03  7.10351E+03
 -5.09153E+03 -2.03275E+02 -3.05466E+03  2.03378E+01 -1.14178E+03 -2.41102E+03  3.51535E+03 -1.35216E+02
  3.94100E+03  2.43386E+03  6.88040E+02  6.18547E+03 -4.74284E+03  4.65201E+03 -5.12836E+03  4.65276E+03
 -4.47464E+03 -3.88273E+03  3.50276E+03 -9.96224E+03  6.28266E+03 -2.67550E+03  4.74625E+03  1.86466E+01
  1.87453E+03  1.85569E+03 -6.39139E+03  6.09693E+03 -7.83384E+03  2.26316E+03 -2.34236E+03 -3.06656E+01
 -7.44340E+03 -4.01932E+03  6.17725E+03 -5.27528E+03  6.69162E+03 -1.51003E+03  5.90701E+03 -7.69052E+02
  6.74492E+03  5.64420E+03 -4.23180E+01  8.89589E+03 -6.31553E+03 -5.12487E+02 -6.12137E+03 -2.77122E+03
 -4.61790E+03 -1.05707E+04 -3.39374E+03 -6.11315E+03  2.45570E+03 -1.22513E+04  1.03179E+03 -2.70409E+03
  3.77722E+03 -1.77601E+03  1.61065E+03 -3.88481E+02  2.88608E+03 -9.64780E+02  4.26727E+02 -5.22851E+03
  4.45222E+02  1.67971E+03  5.98379E+03  3.02822E+03  7.99983E+03  1.93510E+03  2.44524E+03  4.28366E+03
 -7.33008E+02  4.31557E+03 -7.05658E+03  4.88380E+03 -9.39684E+03  4.20952E+03 -8.01690E+03 -2.48346E+03
 -3.09687E+03 -5.59203E+03  4.05833E+02 -4.90921E+03  2.85686E+03 -5.88669E+03  2.04478E+02  5.60983E+00
 -1.80873E+03 -3.51290E+02  5.38136E+03 -5.03940E+03  2.14124E+03 -2.10390E+03  1.48390E+03  3.78046E+03
  7.94580E+03  4.32719E+02  7.81047E+02  1.51861E+03 -1.10383E+03 -1.35172E+03 -4.87877E+03  6.08161E+03
 -5.27675E+03  1.16746E+03 -9.85513E+02  2.75636E+03  1.37054E+02 -4.33485E+03  5.66096E+03 -8.56273E+03
  9.58385E+03 -5.77509E+03  1.35718E+03  2.29654E+03  4.94786E+03  4.81998E+03  3.55153E+03  2.08761E+00
 -3.10175E+03  3.60214E+03 -2.77931E+03  1.22782E+03 -3.76424E+03 -1.40733E+03 -1.95758E+03  1.41508E+03
 -7.59520E+02  3.69910E+03 -3.12838E+03  7.10196E+03 -6.57962E+02 -3.03291E+03 -4.12617E+02 -4.28047E+03
  2.66600E+03 -8.36122E+03 -1.37303E+03  1.26708E+03  3.19913E+03 -4.27011E+03  3.90511E+03  4.88493E+02
  2.04724E+03  1.28159E+03  4.69013E+03 -1.40057E+03  6.01145E+02  3.62504E+03 -2.79555E+03  3.86473E+03
 -3.26217E+03 -2.80532E+03 -2.33389E+03 -4.74274E+03 -1.65089E+03 -4.63752E+03  9.56128E+02 -5.64839E+03
 -8.04956E+02 -2.68279E+03  2.94037E+03  2.42281E+03  1.33032E+03  1.51569E+03 -5.68059E+03  2.23421E+03
  4.56023E+03 -3.92367E+02 -1.07503E+03 -3.82088E+02 -2.13635E+03  5.86705E+03  1.47916E+03  1.53238E+03
 -7.91682E+02  1.91136E+03 -2.11246E+03  2.91012E+03 -2.21757E+03 -2.36776E+02 -2.19034E+03 -7.61579E+02
 -3.80407E+03 -3.47350E+03 -2.19059E+03 -3.14027E+03  3.10218E+03  1.98686E+02 -3.42890E+01 -4.55886E+03
  1.95258E+03  9.61769E+02  1.54879E+03  4.98757E+03 -6.70377E+02  5.09322E+03 -1.72124E+02  1.50568E+03
 -5.07026E+02 -3.40113E+03  3.82384E+03 -4.34298E+03  4.12989E+02 -2.29309E+03 -3.33482E+03  2.33399E+03
 -1.32772E+03  3.84803E+02  4.64084E+03  1.47481E+03 -2.09520E+03 -8.86685E+02  1.12198E+03  7.41885E+02
 -1.29612E+03  2.30985E+03 -1.89997E+03  1.16465E+03  2.67693E+03  1.95956E+03 -9.29343E+02  1.93653E+03
 -4.92299E+02 -1.49048E+03  5.94612E+02  6.58296E+02 -1.87354E+03  1.11305E+03 -6.10115E+02  1.04414E+03
 -4.84904E+02 -2.41059E+03 -1.48012E+03 -1.37829E+03 -1.63209E+03  1.40274E+03 -7.36333E+02 -3.23229E+02
 -2.79699E+03  5.06469E+03 -1.95369E+03 -3.90600E+03 -2.74195E+03  4.91015E+02 -4.74223E+02 -6.13383E+03
  2.33238E+03 -1.96650E+03  8.26803E+01 -1.84938E+03  3.44985E+03  6.29663E+02 -3.67486E+02  5.09654E+03
 -3.70710E+03 -1.78754E+03  2.60301E+02  2.06243E+03  5.37697E+03 -2.16690E+03  3.30557E+03  2.73869E+03
  2.83942E+03  1.87788E+02  1.71774E+03 -4.01381E+03  4.81906E+03  2.21300E+03 -1.11288E+03 -1.91346E+02
 -1.67840E+03  3.53775E+02 -1.40426E+03  1.17713E+03 -4.71087E+03 -2.57885E+03  9.01626E+01 -1.24376E+03
  4.32959E+02  4.26506E+03  1.84496E+03 -1.61023E+03  1.37844E+02  5.44451E+03  1.39687E+03 -3.40626E+03
  7.20818E+02  1.21362E+03  1.37728E+03  2.28660E+03 -3.73727E+03  2.26204E+03  1.95933E+03 -3.86382E+02
  2.33553E+03  1.09065E+03 -2.23554E+02  1.10119E+03 -3.55414E+03  1.27231E+03 -4.31018E+03 -3.81842E+03
 -4.83804E+02 -2.18166E+03  2.53536E+03 -4.57255E+03 -3.54454E+02  3.96617E+03  2.68398E+03 -5.54815E+03
 -3.12652E+02 -2.72205E+03  1.35496E+03  4.52092E+02 -2.27877E+03  4.90764E+03 -2.36686E+03 -1.39947E+03
 -4.54309E+03 -2.96625E+03  8.40404E+02  1.38082E+02 -3.47836E+03 -2.15638E+03 -3.08671E+03  8.52552E+02
 -1.88321E+03  2.40448E+03 -4.12536E+03  1.87392E+03  2.50212E+03  3.55912E+03 -9.06272E+02 -8.26438E+02
 -1.30046E+03 -2.77996E+03 -1.68631E+03 -1.10300E+03  7.28713E+02  3.44972E+03 -6.90778E+02  2.19140E+03
 -3.35655E+03  3.68429E+03 -1.87576E+03  1.61182E+03 -1.04799E+03  3.68824E+03 -3.45881E+03  1.05538E+03
  2.13105E+03  1.97177E+03  1.75562E+02  4.67272E+01 -3.74483E+03  2.65118E+03  7.62902E+02  3.94251E+03
 -4.52088E+01 -3.62163E+03 -2.44848E+03 -6.89397E+02  7.03696E+02  1.82604E+03 -2.87133E+03  2.02460E+03
 -5.85089E+02  2.18146E+03 -1.39722E+01  2.39683E+02  6.59245E+03 -2.76053E+03  2.64121E+03 -3.01577E+03
  1.66349E+03  1.85607E+02 -2.73294E+03  1.65693E+03  2.60191E+03  9.16064E+02 -3.64532E+03 -3.03586E+03
  1.66052E+02  3.60668E+02  3.50763E+03  2.93005E+03  9.48998E+02 -1.69984E+02  1.46331E+03  9.56007E+02
  4.75913E+03  1.65085E+03  1.23551E+03  9.94843E+02 -1.68684E+03  1.93009E+03 -2.77774E+02 -1.14267E+03
 -2.13663E+02  8.19579E+02 -3.24300E+03 -3.18411E+02  6.34732E+02 -2.33145E+03 -5.70771E+02  6.12387E+02
 -3.23593E+03  3.26336E+03 -1.84758E+03 -2.95656E+03  2.95814E+03 -9.11609E+02  8.38171E+02 -1.43591E+02
 -2.21151E+03  1.32131E+03  9.64860E+02 -2.66473E+03  8.12481E+02 -2.96549E+02  1.81905E+03  9.56688E+02
