 $NMID ID='MM_0lb_SNR50_20hz_g55_63.RAW', FMTDAT='(8E13.5)'
 TRAMP=1., VOLUME=1. $END
  3.09381E+05  1.64250E+03  3.36277E+05  2.52745E+05  8.52065E+04  3.36571E+05 -1.34011E+05  2.53130E+05
 -1.90522E+05  8.82880E+04 -1.15087E+05 -3.27817E+04  5.79847E+03 -5.28841E+04  5.69953E+04  6.36497E+02
  3.74674E+04  5.34266E+04 -2.16970E+04  7.71482E+04 -5.83343E+04  6.23493E+04 -8.15564E+04  3.37508E+04
 -7.74390E+04 -1.00310E+04 -5.45206E+04 -4.76249E+04 -1.42089E+04 -6.67289E+04  2.54934E+04 -4.18979E+04
  3.82284E+04  6.45209E+03  1.55368E+04  4.57445E+04 -3.51767E+04  4.72274E+04 -6.48311E+04 -1.60103E+03
 -5.22255E+04 -5.10436E+04 -4.18259E+03 -7.29895E+04  3.36477E+04 -4.98251E+04  4.29831E+04 -1.53547E+04
  4.43539E+04  1.17847E+04  3.08808E+04  2.74035E+04  1.35851E+04  2.56481E+04 -4.35146E+03  2.88542E+04
 -2.49061E+04  1.80528E+04 -2.17874E+04  9.60704E+02  4.08672E+03 -9.77563E+03  2.28297E+04  1.17113E+04
  6.26566E+03  3.34611E+04 -2.98892E+04  3.62530E+04 -6.21927E+04  1.83842E+03 -5.58810E+04 -4.04001E+04
 -1.37136E+04 -6.23718E+04  3.85002E+04 -4.46281E+04  5.67924E+04 -6.57445E+03  3.87733E+04  3.06434E+04
 -7.74240E+03  3.46236E+04 -2.94946E+04  1.25299E+04 -2.95500E+04 -4.98332E+03 -1.73425E+04 -7.29726E+03
 -4.11316E+03 -1.35002E+04 -1.46218E+03 -1.65130E+04  4.56407E+03 -2.08648E+04  1.33978E+04 -1.17082E+04
  8.40089E+03  5.59395E+03 -6.68326E+03  1.08557E+04 -2.34364E+04 -2.62109E+03 -8.44019E+03 -2.53415E+04
  2.11710E+04 -4.40947E+04  4.55174E+04 -1.59992E+04  4.50004E+04  1.20468E+04  1.27342E+04  4.29014E+04
 -1.89028E+04  2.93708E+04 -2.61920E+04 -1.71161E+03 -1.00247E+04 -2.42285E+04  1.76589E+04 -3.51021E+04
  3.94429E+04 -7.47418E+03  2.99236E+04  2.07501E+04  1.81601E+04  4.35300E+04 -5.76866E+03  4.11495E+04
 -3.08780E+04  2.97027E+04 -3.54583E+04  4.96436E+03 -3.91126E+04 -1.38382E+04 -2.26266E+04 -3.79443E+04
  6.82903E+03 -3.53578E+04  2.92267E+04 -9.24589E+03  2.39043E+04  9.14623E+03 -9.21324E+01  1.81748E+04
 -1.25204E+04  8.48054E+03 -6.39656E+03 -9.24555E+03  1.04151E+04 -8.44701E+03  1.25468E+04  5.05143E+03
  1.62467E+04  2.32612E+04 -4.06774E+03  2.42465E+04 -2.24958E+04  8.95421E+03 -2.74043E+04 -5.06596E+03
 -1.46541E+04 -1.60620E+04 -6.72314E+03 -2.11063E+04  5.03616E+03 -1.76474E+04  9.39950E+03 -1.39094E+04
  2.35450E+04 -1.08149E+04  2.81721E+04  2.94911E+03  2.69554E+04  1.64861E+04  2.73220E+03  3.16700E+04
 -1.51369E+04  2.46666E+04 -2.66571E+04  1.07511E+04 -2.19577E+04 -8.01350E+03 -5.43648E+03 -1.18846E+04
  1.92028E+03 -4.50484E+03  1.75012E+03  3.80309E+03 -1.51047E+04  4.60225E+03 -1.60694E+04 -6.94118E+03
 -8.82698E+03 -1.13935E+04  1.99942E+03 -2.08855E+04  1.15749E+04 -1.68137E+04  1.46312E+04 -2.73108E+02
  7.07120E+03  1.18637E+04 -2.76491E+03  1.41629E+04 -1.08953E+04  7.45286E+03 -1.82321E+04 -3.87784E+03
 -1.10187E+04 -1.53808E+04  3.49953E+03 -1.82609E+04  7.03518E+03 -1.16279E+04  1.53460E+04 -7.03965E+03
  1.76303E+04  1.63021E+03  1.32033E+04  2.80108E+03  5.68623E+03 -2.73218E+02  9.46285E+03  5.67414E+02
  1.03379E+04  3.93155E+03  1.71952E+04  1.51755E+04  8.89757E+03  2.25242E+04 -2.84827E+03  2.99788E+04
 -1.11495E+04  1.97161E+04 -2.57264E+04  1.47110E+04 -2.61338E+04 -4.22934E+03 -1.85739E+04 -1.40816E+04
 -1.22169E+04 -2.28691E+04  5.70531E+03 -1.80740E+04  1.37123E+04 -1.23480E+04  1.12193E+04  4.14421E+03
  7.69365E+03  1.13663E+04  1.62764E+03  1.37009E+04 -1.04291E+04  3.76301E+03 -8.90069E+03 -1.29615E+04
 -3.73640E+03 -1.27571E+04  1.17200E+04 -8.63614E+03  6.18586E+03  2.89549E+02 -8.07519E+01  4.63135E+03
 -5.14687E+03  4.17322E+03 -3.35722E+03 -3.29959E+03 -1.46831E+03 -1.37788E+04  6.77000E+03 -1.09664E+04
  1.09003E+04 -3.17395E+03  9.83218E+03  2.04691E+03  1.16875E+04  6.56030E+03  4.50346E+03  7.55446E+03
 -2.29132E+03  1.88741E+04 -7.15005E+03  1.38963E+04 -8.63388E+03  5.70551E+03 -2.67931E+03 -3.69076E+03
 -2.54776E+03 -3.06634E+03 -7.47101E+03  3.48931E+03 -4.98668E+03 -2.59462E+01 -6.52562E+03  1.34794E+03
 -3.02791E+03 -1.70213E+03 -6.60003E+03 -8.63640E+03 -3.37587E+03 -5.44239E+03  5.10674E+03 -8.44955E+03
  3.96304E+03 -2.31493E+03  5.86190E+03  1.69019E+03  7.26087E+02  1.40998E+03 -2.46393E+03 -1.18976E+03
 -4.10332E+03 -2.76524E+03  3.46175E+03 -5.98868E+03  4.27352E+02 -6.49324E+03  1.16697E+04 -5.91499E+03
  1.64247E+04  2.72972E+03  1.12386E+04  7.84020E+03  3.20161E+03  1.13805E+04 -4.21195E+03  3.88662E+03
 -2.75178E+03  2.32413E+03  3.63860E+03 -5.36797E+03  2.31950E+03  2.34389E+03  4.52903E+03  2.66049E+03
  4.54573E+03  1.10324E+03  2.36669E+03  7.34838E+03 -2.54525E+03  9.65710E+03 -7.79333E+03  2.63644E+02
 -6.25757E+03 -2.56035E+03 -2.19451E+03 -2.73329E+03  8.76162E+03 -4.71975E+03  3.35108E+03  3.48912E+03
  7.25153E+02  2.02281E+03 -1.20939E+03  4.25137E+03 -2.61926E+03  9.28124E+02 -6.54201E+03  3.45088E+02
 -2.39438E+03 -5.09647E+03  1.22418E+02 -1.03145E+04  2.50411E+03 -2.92532E+03  6.99065E+03  3.70991E+03
  2.34269E+03  2.16714E+03  2.64075E+01  6.63467E+03 -4.74998E+03  4.94806E+03 -6.35471E+03 -2.76350E+03
 -5.01624E+03 -6.01685E+03 -1.37117E+03 -7.98292E+03 -3.10741E+02 -3.26392E+03  2.48820E+03 -2.97508E+03
 -1.01192E+02  1.52782E+03  7.70573E+02  6.29371E+03  2.80029E+03  1.07193E+03  1.20848E+03  9.23688E+02
  5.71869E+03  2.10611E+03  3.28414E+03  2.91907E+03  2.63359E+03  4.72491E+03  2.16581E+03  6.54806E+03
 -1.43644E+03  3.59158E+03 -8.33646E+03  4.47228E+03 -7.11070E+03 -9.59032E+01 -6.07459E+03 -4.79815E+02
 -3.37558E+03 -6.04620E+03 -4.07791E+02 -3.65391E+03 -1.01382E+03 -3.63837E+03 -1.65812E+03 -2.95294E+03
 -3.21025E+03  9.67115E+02  3.12630E+03 -3.97849E+03  1.11745E+03 -3.83630E+03  3.73448E+03 -4.28450E+02
  2.11223E+03  3.75423E+03 -8.51915E+02  9.80283E+02 -2.23032E+03 -1.29215E+03 -3.56550E+03  2.59272E+03
 -8.88933E+03  6.04077E+02 -2.21329E+03 -2.12849E+03 -2.62594E+02 -3.32976E+03  6.13517E+02 -3.04856E+03
  9.94784E+03 -9.02776E+02  5.80649E+03  2.78658E+03  1.78275E+03  7.03421E+03 -1.24835E+03  4.46575E+03
 -4.42911E+03  6.82840E+03 -5.27565E+03  1.44526E+02  6.02232E+01 -5.83967E+02  2.50773E+03 -3.08896E+02
  3.08987E+03  2.58382E+03  3.67047E+02  8.83672E+02 -5.83197E+03  6.01501E+02 -8.19842E+02 -1.30014E+03
 -1.99257E+03 -2.43338E+03  3.50674E+03 -9.30673E+03  4.33907E+03 -4.23499E+03  3.59157E+03 -4.81930E+03
  4.89950E+03  1.56222E+03 -9.89003E+02  2.39471E+03 -5.96871E+02  3.14078E+03 -2.93244E+03  2.57497E+03
 -4.46372E+03  8.39699E+01 -3.24471E+03 -3.13669E+03 -2.14437E+03 -2.68218E+03  1.96489E+03  3.41312E+02
  3.62271E+03  2.22980E+02  6.92469E+02 -1.94695E+03 -3.04754E+03  5.41113E+03  3.84785E+03 -2.41701E+02
 -2.52202E+01  3.23884E+03 -1.27319E+03  1.13882E+03  1.19608E+03  2.34637E+03 -1.05510E+03  1.73017E+03
 -2.74079E+03  2.27096E+02 -5.84471E+02  2.93373E+03 -3.43693E+03  3.32881E+03 -2.27188E+03  4.02890E+02
 -2.45123E+03 -3.45532E+03 -4.57808E+03 -4.08441E+03  2.00905E+03 -1.60151E+02  5.46641E+03 -2.99976E+03
  2.12146E+03 -2.12228E+03 -6.07094E+02  3.59125E+03 -1.85396E+03  9.84813E+02  6.60451E+02  1.31460E+03
 -2.67056E+03 -4.18932E+03 -1.69464E+03  3.29849E+03  1.09048E+03 -5.18782E+02  1.35377E+03  1.13719E+03
  3.06578E+03 -3.26763E+03  5.04506E+02  3.59140E+03  3.23738E+03  7.56898E+02  6.06544E+03 -2.32574E+03
 -1.27045E+03  1.00606E+03 -2.82531E+03  2.94098E+03 -2.50062E+03  5.53911E+02  2.35224E+03  3.64892E+03
  1.90665E+03  2.35445E+03  2.73682E+03  8.31120E+02 -2.20023E+02  1.19971E+03  2.61066E+03 -1.75084E+03
  2.85916E+03 -1.99018E+03  3.22645E+03 -1.02432E+03 -2.47431E+03  3.10290E+03  6.76863E+02 -6.18251E+03
 -2.76859E+02 -8.87336E+02 -2.22161E+03 -2.58196E+03  2.06684E+03 -1.13259E+00  1.31284E+03 -4.57364E+03
  2.74918E+03  1.71655E+03  9.74707E+02  4.88809E+02 -2.72819E+03  1.00496E+03  1.08774E+03  9.50213E+02
  1.91931E+03 -9.62225E+02 -4.04100E+03  2.58789E+03 -6.58849E+02  1.39109E+03  1.62935E+03  1.36916E+03
 -2.86183E+03 -2.14922E+03  3.47638E+03  9.74417E+02 -3.28795E+02  2.31100E+03  1.22576E+03  3.63396E+03
  6.18526E+02  3.65494E+03  1.29384E+03  3.25432E+03  1.88376E+02 -4.54366E+02  2.04980E+03 -1.81770E+03
 -3.03084E+03 -2.81901E+03 -2.13408E+03  8.83617E+02  1.15934E+03 -1.88878E+03 -9.96859E+02 -1.24188E+03
 -4.24308E+02  1.41915E+03  4.11402E+02  1.54837E+03  5.79872E+02  1.45177E+02  1.67200E+03  2.73680E+02
  5.38295E+02 -1.89216E+03 -3.69161E+03 -3.70559E+01  2.84296E+02 -1.38778E+02  5.27300E+01 -1.12579E+03
  2.56956E+03  1.34191E+03  2.83985E+03 -2.55429E+03  4.45528E+03 -7.80343E+03  6.62821E+03 -6.53534E+03
  7.00432E+02 -1.41749E+03  6.05471E+02 -5.93629E+02  2.49780E+02  3.69477E+02 -9.48636E+02 -3.86701E+03
 -4.36450E+02  2.85367E+03 -6.42802E+03  1.12743E+03  2.59683E+03  6.04874E+02  4.35794E+02  1.69917E+03
 -2.83579E+03  7.18838E+01 -5.25870E+03 -8.35651E+02  1.69364E+03 -3.30489E+03  7.75104E+02  7.29317E+02
  4.24645E+03 -3.25240E+03  3.74184E+03  3.59534E+03  2.44805E+03  2.73430E+03 -1.26590E+03 -1.03523E+03
 -3.47972E+03  4.28443E+03  3.70213E+03 -1.37564E+03  9.91814E+02 -2.10615E+03 -7.72601E+02  9.36938E+02
  1.43723E+03  3.37573E+02  2.52638E+03 -6.51254E+02  3.99647E+02  1.15307E+03 -6.02608E+02 -2.02471E+03
  2.41510E+02  3.77250E+02  1.03893E+03 -4.51142E+03 -2.97947E+03 -2.55595E+03  3.76399E+03 -2.38020E+02
  4.68841E+03 -1.16187E+03 -1.28995E+01  6.68066E+02  2.20643E+02  1.45423E+03 -1.98453E+03  1.61393E+02
  2.25111E+03 -2.45399E+02 -2.30305E+03  1.51562E+03 -5.75978E+02 -4.72527E+02 -1.65060E+03 -7.96660E+02
  9.71524E+02  3.87767E+03 -8.82042E+02  2.82468E+03  9.87523E+02  8.88176E+02  2.55574E+02 -4.23452E+03
  3.70091E+03 -5.50437E+03 -1.89665E+03  1.16704E+03 -1.39454E+03  4.82531E+02 -2.58920E+03  5.68746E+02
 -1.37555E+03  1.60260E+03 -8.91161E+02 -2.03837E+03  1.49854E+02 -1.75560E+03  1.03452E+03 -2.86887E+03
 -4.03998E+03  4.43778E+02 -3.94931E+03  8.86066E+02  6.52220E+03 -3.46166E+03  1.63407E+03 -4.53147E+01
  2.48588E+03  1.63969E+03  2.19791E+02 -1.12581E+03  2.42144E+02  9.47355E+01 -4.07572E+03 -2.03039E+03
