 $NMID ID='MM_0lb_SNR50_8hz_g60_77.RAW', FMTDAT='(8E13.5)'
 TRAMP=1., VOLUME=1. $END
  3.04047E+05 -5.84827E+03  3.42081E+05  2.54730E+05  8.33860E+04  3.36146E+05 -1.35188E+05  2.46240E+05
 -1.90180E+05  7.39996E+04 -1.16048E+05 -3.31379E+04  6.85800E+02 -5.01512E+04  5.64165E+04 -2.85763E+03
  2.77668E+04  4.86745E+04 -1.37190E+04  7.26994E+04 -6.67303E+04  6.52934E+04 -8.76584E+04  3.38630E+04
 -8.42810E+04 -1.50938E+04 -5.83859E+04 -5.91251E+04 -1.42757E+04 -7.37927E+04  3.05352E+04 -4.51802E+04
  3.96332E+04 -6.48330E+02  1.41695E+04  5.16700E+04 -2.98223E+04  4.97350E+04 -7.14927E+04  2.54175E+03
 -5.56638E+04 -5.54777E+04 -1.13606E+04 -8.22149E+04  3.56968E+04 -5.20436E+04  4.77481E+04 -1.95522E+04
  4.86074E+04  7.55648E+03  4.07175E+04  2.36322E+04  1.96553E+04  3.64900E+04 -9.82672E+03  3.12119E+04
 -2.15315E+04  1.28812E+04 -1.21976E+04 -1.08616E+04  1.26117E+04 -8.63634E+03  2.11956E+04  9.39236E+03
  4.32802E+03  4.66224E+04 -3.10879E+04  3.51068E+04 -7.22325E+04  1.38629E+03 -5.63874E+04 -4.29853E+04
 -1.51697E+04 -6.29869E+04  4.26973E+04 -3.74742E+04  6.85357E+04 -5.31045E+03  3.64799E+04  4.07459E+04
 -3.05281E+03  4.80584E+04 -3.19513E+04  2.66356E+04 -3.96644E+04 -4.12580E+03 -1.11077E+04 -3.42677E+03
 -9.97118E+03 -1.54117E+04 -4.29872E+02 -1.75007E+04  1.14492E+04 -2.77035E+04  1.83682E+04 -7.98880E+03
  1.54958E+04  6.58692E+03 -1.21268E+04  1.08902E+04 -1.19441E+04 -4.80536E+03 -2.98111E+03 -4.55910E+04
  2.57918E+04 -4.63893E+04  5.40881E+04 -2.35356E+04  4.76824E+04  2.19994E+04  2.13816E+04  5.08759E+04
 -1.56177E+04  3.26401E+04 -3.24610E+04 -2.12595E+03 -1.17003E+04 -3.51831E+04  2.33079E+04 -4.10535E+04
  4.83385E+04 -5.38893E+03  5.20926E+04  1.73995E+04  1.89123E+04  5.48074E+04 -1.11921E+04  6.06111E+04
 -3.49039E+04  3.97163E+04 -5.95394E+04  8.98031E+03 -5.43878E+04 -1.82696E+04 -3.02398E+04 -3.95298E+04
  7.94550E+03 -3.74662E+04  3.07525E+04 -2.17924E+04  3.39714E+04  1.09994E+04  7.34202E+03  2.92824E+04
 -1.45182E+04  1.67998E+04 -1.45376E+04 -7.72776E+03  3.07005E+03 -6.97260E+03  1.84533E+04  2.67520E+03
  1.61357E+04  2.67593E+04 -2.11668E+03  2.86802E+04 -3.16278E+04  2.00063E+04 -3.44865E+04 -6.92108E+03
 -3.07136E+04 -2.23867E+04 -1.86968E+04 -3.35120E+04  1.28056E+03 -2.54699E+04  1.78852E+04 -2.73668E+04
  3.35394E+04 -1.70113E+04  3.99703E+04  7.94013E+03  2.88451E+04  2.39633E+04  6.43965E+03  4.25502E+04
 -1.82666E+04  3.35923E+04 -3.53394E+04  1.46093E+04 -2.45938E+04 -1.04173E+04 -6.02960E+03 -1.70761E+04
  1.35845E+03 -4.25139E+03 -7.20410E+03  1.26567E+04 -2.89165E+04  6.06747E+03 -2.21113E+04 -1.29348E+04
 -1.38871E+04 -2.73504E+04  1.93755E+03 -2.50979E+04  2.56614E+04 -2.74483E+04  2.45748E+04 -2.80403E+03
  2.23348E+04  2.16209E+04  1.32892E+03  2.87262E+04 -1.96494E+04  2.33126E+04 -2.23695E+04 -8.74785E+03
 -1.74210E+04 -2.93727E+04 -8.16066E+03 -2.50276E+04  1.85894E+04 -2.35643E+04  1.88967E+04 -8.97380E+03
  2.41124E+04 -7.42450E+03  1.83920E+04  3.05230E+03  1.91042E+04  1.02537E+04  1.33903E+04  4.95551E+02
  2.22733E+04  4.03020E+03  3.00338E+04  1.85521E+04  1.89949E+04  4.33738E+04  4.40507E+03  5.04846E+04
 -3.21670E+04  4.56455E+04 -4.68123E+04  1.75273E+04 -4.64867E+04 -1.03336E+04 -4.15810E+04 -3.42952E+04
 -1.54409E+04 -4.45292E+04  1.24057E+04 -3.90696E+04  2.87707E+04 -1.32939E+04  2.50563E+04  6.23284E+03
  8.15854E+03  1.82225E+04 -1.71709E+04  1.76793E+04 -2.64183E+04 -2.37478E+03 -1.53133E+04 -2.01558E+04
 -1.80871E+02 -2.28753E+04  5.90775E+03 -1.16767E+04  1.32739E+04  2.03739E+03  4.63751E+03  4.50615E+03
 -1.15560E+03  5.75431E+03 -1.03245E+04 -1.31144E+04 -1.72393E+03 -2.25968E+04  1.43121E+04 -2.63737E+04
  2.85226E+04 -1.22064E+04  3.28890E+04  2.09920E+03  2.58731E+04  1.79973E+04  9.04991E+03  3.78350E+04
 -3.92755E+03  3.08476E+04 -2.16864E+04  1.81354E+04 -2.48425E+04 -2.16486E+03 -1.65799E+04 -7.83271E+03
 -8.45548E+03 -7.38910E+03 -5.90236E+03 -1.65899E+03 -3.90851E+02  3.54784E+03 -4.93634E+03  6.16731E+03
 -1.47779E+04  5.88941E+03 -1.49177E+04 -1.05539E+04 -3.15559E+03 -1.66046E+04  9.03350E+03 -1.91436E+04
  1.31335E+04 -5.41599E+03  4.88170E+03  8.24606E+03  9.83896E+02  5.40779E+03 -5.77025E+03 -3.41146E+03
 -5.53568E+03 -7.66177E+03 -6.78126E+03 -1.35149E+04  1.42544E+04 -1.61728E+04  2.08794E+04 -1.02667E+04
  2.89873E+04  9.68143E+03  1.99861E+04  1.72551E+04  4.58365E+02  2.02344E+04 -1.42667E+04  1.67904E+04
 -8.19701E+03  1.88536E+03 -3.03397E+02 -3.54968E+03 -1.66329E+03 -9.55626E+03  9.88584E+03 -1.12489E+03
  6.98089E+03  9.89735E+03 -4.62768E+03  1.10487E+04 -1.40887E+04  8.09859E+03 -2.58821E+04 -2.45350E+03
 -1.48606E+04 -1.11190E+04  4.35872E+03 -2.28427E+04  8.33287E+03 -3.75004E+03  1.47804E+04  5.38940E+03
  2.64481E+03  1.10295E+04 -1.28282E+04  1.07524E+04 -1.34588E+04  7.16794E+03 -1.47937E+04 -4.69695E+03
 -1.36782E+04 -1.48570E+04  5.79663E+03 -2.93156E+04  1.63132E+04 -1.35346E+04  1.84039E+04  6.25645E+03
  1.75734E+04  1.39418E+04 -4.43258E+02  2.02961E+04 -1.41844E+04  1.68911E+04 -8.51079E+03 -9.53134E+03
 -1.23623E+04 -1.31872E+04 -2.96405E+02 -2.04983E+04  7.32556E+03 -1.77500E+04  1.03754E+04 -9.15347E+03
  1.84976E+03  6.16395E+03 -4.03989E+03  1.88522E+03  1.27663E+03 -1.01368E+04  1.19741E+03 -1.20059E+04
  1.23553E+04 -4.89169E+03  1.93741E+04 -2.11823E+03  8.87726E+03  1.20474E+04  1.25371E+04  3.04166E+04
 -4.93042E+03  2.44067E+04 -2.80297E+04  2.16164E+04 -3.24911E+04  5.43867E+02 -2.81497E+04 -1.42983E+04
 -1.26501E+04 -1.54515E+04  6.85375E+02 -1.59836E+04  8.31353E+03 -7.07670E+03  5.59554E+03 -1.12840E+03
  6.36375E+03 -4.64609E+03  6.89539E+03 -2.85807E+03  1.05932E+04 -6.99988E+03  5.39668E+03  3.26975E+03
  1.05922E+04  1.74354E+03  1.19797E+04  1.98068E+04 -1.16251E+03  1.37166E+04 -1.35459E+04  1.15476E+04
 -1.78104E+04  2.60239E+03 -1.86927E+04 -8.14466E+03  2.98634E+03 -2.26314E+04  4.23028E+03 -1.12926E+04
  2.21955E+04 -9.42680E+03  1.71163E+04  1.96098E+03  1.22160E+04  1.98712E+04  2.87322E+03  1.93941E+04
 -9.77348E+03  2.36564E+04 -1.38072E+04  4.27419E+03 -1.26419E+04 -1.73173E+03 -7.54361E+03 -1.40333E+03
 -3.44112E+02 -2.73231E+02 -6.54817E+03 -2.15730E+03 -7.66729E+03  3.61078E+03 -8.68226E+03 -2.61245E+03
 -1.22651E+04 -1.01393E+04 -1.43679E+03 -1.79052E+04  4.97773E+03 -9.13982E+03  1.85989E+04 -6.86778E+03
  1.22770E+04  1.04318E+04  1.11738E+04  1.28190E+04  2.48752E+02  1.40149E+04 -8.63930E+03  9.39207E+03
 -2.20088E+04  2.28352E+03 -9.87524E+03 -1.78631E+04 -5.81034E+03 -1.81242E+04  9.42201E+03 -1.50726E+04
  6.44571E+03 -2.74350E+03  6.49085E+03  9.72633E+03  4.19928E+03  3.91910E+03  3.41694E+03  2.74276E+01
 -8.29326E+01  2.95535E+03 -1.83727E+03  7.32781E+03  1.08819E+04  1.55301E+03  4.09935E+03  1.02538E+04
 -6.17698E+03  1.34932E+04 -1.74786E+04  1.56038E+04 -1.14002E+04  3.44573E+03 -1.32183E+04 -4.56408E+03
 -1.49043E+04 -1.77963E+04  5.23749E+03 -1.50176E+04  1.77005E+04 -9.24920E+03  1.24211E+04 -2.77149E+03
  9.82127E+03  1.26287E+04  3.37185E+03  1.50548E+04 -3.96642E+03  1.25466E+04 -8.89326E+03  2.13615E+03
 -3.42851E+03 -1.77954E+04  2.33795E+03 -7.52801E+03  1.53849E+04 -4.56880E+03  7.40430E+03  2.86676E+03
  4.85347E+02  1.78755E+03 -3.43714E+03  8.66610E+03 -7.03883E+03  9.63141E+03 -2.51393E+03  2.22019E+03
  2.53964E+03 -4.38903E+03  5.67158E+03  2.71965E+03  3.27805E+03  4.03859E+03 -1.40282E+04  8.30284E+03
 -1.04605E+04  6.95183E+03 -9.73444E+03 -2.72844E+03 -1.07873E+04 -2.12425E+03 -2.35992E+03 -1.01755E+04
 -2.52078E+03 -1.00992E+04  4.62280E+03 -4.99354E+03  3.71031E+03  5.12851E+03 -2.15151E+03  1.14372E+04
 -1.19482E+04  2.43076E+01 -5.16875E+03 -4.09872E+03  2.90061E+03 -1.33187E+04  3.15712E+03 -4.79900E+03
  7.09604E+03 -6.23595E+03  6.65011E+03 -6.02274E+03  1.05739E+04 -3.51424E+02  5.44828E+03  4.64569E+03
 -6.68179E+03  3.09098E+02 -6.87739E+03  2.66709E+03 -6.78518E+03 -1.80432E+04  7.19778E+03  7.86537E-01
  1.05573E+04 -4.13565E+03  5.10759E+03  1.17362E+04  5.75917E+03  1.14760E+04 -1.13331E+04  1.06412E+04
 -4.11581E+03  4.68216E+03 -9.65865E+02 -9.59010E+03 -4.02525E+03 -4.51460E+03  3.12397E+03 -8.22128E+03
  6.51851E+03 -5.17062E+03  7.08388E+03  1.30856E+04 -1.70228E+03  1.10289E+04 -9.64578E+03  7.38083E+03
 -6.44850E+03  6.01138E+03 -5.80964E+02  4.80779E+03  3.97597E+03  3.55383E+02  2.35779E+03  2.95244E+03
 -4.80282E+03  9.09927E+03 -9.72312E+03  5.80606E+03 -1.61092E+04  6.72019E+03 -8.62960E+03 -9.28435E+03
 -6.00510E+03 -1.96564E+04 -2.02737E+03 -1.55139E+04  1.50571E+04 -1.36471E+04  1.07721E+04 -3.30747E+03
  2.20442E+04  2.47977E+03  7.18081E+02  1.55265E+04 -3.33241E+03  1.53666E+04 -3.90620E+03  5.94984E+03
 -1.76904E+04  3.27112E+03 -1.17943E+04 -1.52422E+03  4.81214E+03 -6.99202E+02  1.27538E+03  2.33155E+03
 -3.75948E+03 -5.13737E+03 -5.69967E+02 -9.11855E+03 -4.49000E+03 -5.68710E+03  8.54971E+02 -8.10514E+03
  1.54085E+03 -4.38377E+03  1.08805E+04  1.97441E+03  1.60571E+04  9.42688E+03 -5.26063E+01  7.75548E+03
 -3.63862E+03  2.08017E+04 -1.27363E+04  5.02165E+03 -2.24572E+04  2.43598E+02 -1.49515E+04 -3.21309E+03
 -7.86844E+03 -1.16348E+04 -4.13839E+03 -1.02638E+04  1.05965E+04 -1.54803E+03  9.06152E+03 -1.80641E+03
  6.32260E+03  4.72527E+03  2.05426E+03  7.36804E+03 -1.21794E+04 -6.88134E+03  4.59871E+03  3.35823E+03
  3.70409E+03 -1.97853E+03  9.61938E+03 -3.68982E+02  8.54377E+02  4.25983E+03 -1.46671E+02  8.71034E+03
 -1.03939E+04  6.17920E+03 -1.46498E+04 -1.21478E+03 -1.20223E+04 -5.52445E+03  1.90662E+03 -8.08333E+03
  8.73255E+03 -9.10546E+03  1.12142E+04 -8.50494E+03  1.04596E+04  3.27829E+03  8.95487E+03  1.63732E+04
 -1.96666E+02  5.14576E+03 -1.92365E+03  6.95990E+03  1.99572E+01  6.27212E+03 -1.66607E+03 -1.35515E+03
 -1.03017E+04 -1.19256E+03  2.10024E+03  1.14419E+04 -2.29003E+03  2.91450E+03 -1.10261E+04  3.34051E+03
 -1.46171E+04 -5.74117E+03 -1.05979E+03 -4.20649E+03  1.31049E+04 -1.35877E+04  6.78199E+03 -4.81366E+02
  1.01168E+04 -2.99074E+03  1.00408E+04  1.03887E+04  2.05013E+03  1.56182E+04 -5.48891E+03  6.79376E+03
