 $NMID ID='MM_0lb_SNR50_11hz_g50_42.RAW', FMTDAT='(8E13.5)'
 TRAMP=1., VOLUME=1. $END
  3.11969E+05  4.15776E+03  3.37925E+05  2.48105E+05  8.24565E+04  3.40731E+05 -1.30438E+05  2.51235E+05
 -1.89671E+05  8.75826E+04 -1.12474E+05 -3.46834E+04  2.53150E+03 -4.96309E+04  4.48133E+04  3.47176E+02
  3.62514E+04  5.41852E+04 -1.64530E+04  7.91063E+04 -6.14338E+04  6.54337E+04 -8.51452E+04  2.94005E+04
 -8.67802E+04 -1.18730E+04 -6.23801E+04 -5.20693E+04 -1.24495E+04 -6.98153E+04  2.50959E+04 -5.15202E+04
  3.84246E+04  1.27560E+03  1.75612E+04  5.09385E+04 -3.90939E+04  4.74277E+04 -6.78035E+04  9.65342E+02
 -5.75840E+04 -5.52035E+04 -8.33489E+03 -7.84178E+04  3.31656E+04 -5.01072E+04  5.13331E+04 -1.77068E+04
  4.17577E+04  6.90761E+03  3.68013E+04  3.36529E+04  1.37717E+04  2.67100E+04 -3.72424E+03  2.64318E+04
 -2.25748E+04  1.45544E+04 -2.41632E+04 -9.01298E+03  8.07034E+03 -1.19801E+04  2.22463E+04  1.20052E+04
  4.75460E+03  3.25444E+04 -3.56559E+04  3.20438E+04 -6.28931E+04  2.24899E+03 -6.22924E+04 -4.47885E+04
 -9.67595E+03 -6.43220E+04  3.96102E+04 -4.81327E+04  5.29898E+04 -1.06467E+03  4.22522E+04  3.65339E+04
 -5.52139E+03  4.24249E+04 -3.44443E+04  1.68874E+04 -3.16722E+04 -5.04796E+03 -1.88944E+04 -1.13362E+04
 -9.35545E+03 -1.52141E+04  1.40530E+03 -1.59600E+04  8.11423E+03 -2.80944E+04  1.42312E+04 -1.41804E+04
  1.11905E+04  5.74562E+03 -1.17849E+04  1.91537E+04 -2.51156E+04 -1.59195E+04 -9.61575E+03 -3.30231E+04
  2.51660E+04 -5.00600E+04  4.68115E+04 -2.09416E+04  4.62347E+04  1.99840E+04  1.69060E+04  4.00804E+04
 -1.58818E+04  3.35052E+04 -2.64733E+04  3.21258E+03 -8.07285E+03 -2.74852E+04  1.67255E+04 -3.30640E+04
  4.48598E+04 -8.76576E+03  4.10709E+04  1.96449E+04  1.90175E+04  4.73601E+04 -1.12674E+04  5.85127E+04
 -2.97435E+04  3.83836E+04 -4.77215E+04  6.48310E+03 -4.94726E+04 -1.65981E+04 -2.99452E+04 -3.89153E+04
  7.27723E+03 -3.42765E+04  3.84175E+04 -8.65880E+03  3.15543E+04  8.42332E+03  3.70233E+03  2.01565E+04
 -1.44631E+04  1.23830E+04 -1.44413E+04 -1.07272E+04  1.78258E+03 -1.50460E+04  1.34043E+04  5.12342E+03
  1.67422E+04  2.70710E+04 -8.93051E+03  3.00974E+04 -2.29281E+04  1.46906E+04 -3.36048E+04 -8.98848E+02
 -2.49635E+04 -1.75129E+04 -1.07348E+04 -2.41178E+04  1.07043E+03 -3.02668E+04  2.09699E+04 -2.12117E+04
  2.97353E+04 -1.25171E+04  3.29001E+04  2.51722E+03  2.54405E+04  2.27247E+04  8.65358E+03  3.82056E+04
 -1.25900E+04  3.47463E+04 -2.83036E+04  1.03916E+04 -2.23778E+04 -1.06462E+04 -7.07805E+03 -1.27653E+04
  4.67426E+03 -1.39155E+03 -9.82619E+03  9.16934E+03 -1.68897E+04  8.21263E+03 -1.82571E+04 -5.52238E+03
 -1.29042E+04 -2.19776E+04  3.24456E+03 -2.31553E+04  1.86143E+04 -1.47237E+04  1.73041E+04  2.59192E+02
  1.53015E+04  1.22961E+04 -3.39641E+03  2.67973E+04 -1.61218E+04  1.15590E+04 -1.23837E+04 -3.22941E+03
 -1.10278E+04 -2.20903E+04  2.99471E+02 -2.13564E+04  9.57560E+03 -2.26023E+04  1.34203E+04 -1.17312E+04
  2.27064E+04  7.22135E+02  1.10995E+04  3.14580E+03  5.92727E+03  5.17757E+03  1.31153E+04 -2.40318E+03
  2.62741E+04  9.11793E+03  2.48031E+04  1.91376E+04  1.80150E+04  3.09508E+04 -1.73102E+03  3.96217E+04
 -2.72370E+04  3.00716E+04 -3.64841E+04  1.37610E+04 -3.76846E+04 -3.63176E+03 -3.49990E+04 -1.33910E+04
 -1.77461E+04 -2.76037E+04  7.80774E+03 -3.00536E+04  2.22257E+04 -1.91365E+04  1.81331E+04  5.60141E+03
  1.07196E+04  1.80325E+04 -1.19305E+04  1.20485E+04 -1.97610E+04 -2.73931E+02 -1.80034E+04 -1.30082E+04
  7.93028E+02 -1.53968E+04  7.67273E+03 -1.10157E+04  1.07133E+04 -6.15193E+03  2.94791E+03  4.63388E+03
 -7.92469E+03  4.70293E+03 -4.37602E+03 -3.34492E+03 -2.07132E+03 -1.82728E+04  1.75510E+04 -1.60927E+04
  1.16667E+04 -6.43521E+03  1.78308E+04  6.62135E+03  2.20013E+04  1.67433E+04  1.09566E+04  2.03700E+04
 -5.29243E+02  2.63622E+04 -1.54920E+04  1.27150E+04 -2.04621E+04  1.28139E+03 -1.96380E+04 -3.30916E+03
 -5.58675E+03 -6.55970E+03  9.51625E+02 -2.16711E+03 -2.86662E+03 -1.07409E+03 -1.13498E+02  6.03546E+03
 -1.15344E+04 -3.70841E+03 -1.07132E+04 -1.81556E+04 -5.36483E+03 -1.87445E+04  1.49169E+03 -8.64682E+03
  1.00228E+04 -2.23266E+03  1.06420E+04  5.30230E+03  2.23403E+03 -6.07168E+01 -9.70417E+03 -1.34447E+02
 -3.98459E+03 -2.74214E+03  1.80637E+02 -1.16840E+04  7.85084E+03 -1.31713E+04  1.63459E+04 -4.26602E+03
  1.97516E+04  3.72918E+03  1.37430E+04  1.04265E+04  4.69343E+03  2.08398E+04 -1.18636E+04  1.32978E+04
 -9.36918E+03  2.47011E+03 -1.88750E+03  6.94473E+02  3.69483E+03 -2.90662E+03  1.16486E+04 -7.01665E+02
  1.07514E+04  8.95032E+03  3.17019E+03  1.03491E+04 -8.54882E+03  5.87206E+03 -1.29098E+04  2.76022E+03
 -5.32649E+03 -9.59281E+03 -1.85672E+02 -8.42277E+03  1.01361E+04 -1.78060E+03  5.39108E+03 -1.60854E+03
  2.10468E+03  5.39217E+03 -1.12993E+04  9.08877E+03 -1.02320E+04  1.70143E+03 -1.23851E+04 -6.39463E+03
  8.69717E+02 -1.53989E+04  5.37783E+03 -1.89877E+04  1.12915E+04 -9.82081E+03  1.42705E+04  1.03249E+04
  1.25511E+04  1.03002E+04 -3.91100E+03  9.77990E+03 -1.39043E+04  6.79569E+03 -1.03411E+04 -4.34582E+02
 -1.17215E+04 -1.47869E+04 -5.86659E+03 -1.07473E+04  3.10704E+03 -1.15685E+04  8.58257E+03 -1.81879E+03
  5.49535E+03 -3.21634E+03 -1.12120E+03  2.02476E+03 -4.10197E+02 -8.16964E+03  4.04365E+03 -4.48958E+03
 -3.48751E+03 -4.47081E+03  1.49344E+04  2.59141E+03  1.33805E+04  1.30546E+04  6.81214E+03  1.61771E+04
 -4.83625E+03  2.45322E+04 -1.30940E+04  1.49049E+04 -1.97969E+04  9.08705E+02 -1.33417E+04 -4.75622E+03
 -7.75425E+03 -1.21978E+04  8.15636E+02 -1.66851E+04  6.87588E+03 -5.46455E+03  1.74009E+03 -3.45581E+03
  4.54417E+03 -2.19443E+02  4.39342E+03 -4.78225E+03  3.79760E+03 -2.22044E+03  6.85407E+03 -1.90024E+02
  1.29614E+04  2.89514E+03  4.60592E+03  9.93737E+03 -4.97232E+03  1.11870E+04 -4.38538E+03  4.57180E+03
 -1.23753E+04 -1.21191E+03 -9.56832E+03 -6.97399E+03 -2.31721E+03 -1.09101E+04  6.40319E+03 -9.12485E+03
  1.20990E+04 -6.93233E+03  1.72680E+04 -5.60357E+01  9.31503E+03  7.17972E+03  3.07640E+03  1.43192E+04
 -5.52602E+03  1.33724E+04 -7.47867E+03  3.51553E+03 -5.93215E+03 -1.30926E+03 -1.68023E+03  4.55260E+01
  3.02794E+03  2.54609E+03 -4.33910E+03 -2.68473E+03 -6.80801E+03  2.10508E+03 -5.77849E+03 -2.84564E+03
 -3.91821E+03 -4.13493E+03 -2.28770E+03 -7.47633E+03  1.16536E+04 -9.50019E+03  1.04249E+04 -4.02916E+03
  6.72789E+03  2.18235E+03  1.73001E+03  1.16621E+04  1.94137E+03  1.84741E+04 -8.86133E+03  9.50296E+03
 -1.17843E+04  3.37387E+03 -2.78974E+03 -6.18079E+03  1.90763E+03 -1.13137E+04  2.94213E+03 -8.44408E+03
  7.20002E+03 -2.47929E+03  5.84398E+03 -6.75836E+02  2.55848E+03  2.74109E+03  5.48131E+03 -4.97756E+02
  2.53192E+03 -5.12205E+03  1.43979E+03 -2.71484E+02  1.02479E+04  7.36901E+03  5.48711E+03  3.34780E+03
 -1.27018E+03  1.08206E+04 -9.42938E+03  8.09412E+03 -1.28656E+04 -6.87930E+02 -1.50299E+04 -3.10016E+03
 -7.98218E+03 -1.37376E+04 -1.08357E+03 -1.39593E+04  4.13101E+03 -7.12155E+03  1.70831E+04  5.17355E+02
  8.53329E+03  3.25918E+03  4.90619E+03  2.28844E+03 -5.76043E+03  8.50299E+03 -1.10896E+04 -1.09254E+03
  2.62367E+03 -2.35413E+03  5.27355E+03 -3.05757E+03  4.92669E+03 -2.65669E+03  4.90629E+03 -4.27905E+03
  1.24634E+03  8.43978E+02  2.48723E+03  3.00650E+03 -1.85047E+03  5.71456E+03 -4.19722E+02  1.91780E+03
 -4.84204E+03 -1.12748E+03  8.07777E+03  7.34154E+03  1.46278E+03  7.57138E+03  1.03597E+03  3.65697E+03
 -6.31930E+03  4.14775E+03  6.47264E+02  4.52989E+03 -1.45078E+04 -1.50574E+03 -3.51651E+03 -6.51169E+03
 -8.52278E+02 -1.78779E+03  5.08368E+03 -4.55148E+03  2.50148E+03  2.04718E+03 -8.92791E+02  7.25445E+03
 -7.29304E+03  3.69516E+03 -1.00022E+04 -5.13363E+03 -6.65922E+03 -6.51566E+03  1.60054E+03 -1.03979E+03
 -4.30022E+03  8.23027E+02  6.75003E+03  2.97162E+02  1.20117E+03  2.71495E+03 -6.11197E+02  7.19037E+03
 -2.78203E+03 -2.03428E+03 -2.77068E+03  2.12023E+02 -1.45547E+03 -8.20587E+03  3.74566E+03  3.40037E+02
  4.42790E+03  1.14051E+03  2.07828E+03  3.55222E+03  3.52178E+02  2.55343E+03 -1.63012E+03  5.41409E+03
 -6.93134E+03  1.04399E+03 -1.22911E+04 -4.21891E+03 -1.05080E+04 -3.89634E+03 -2.04269E+02  1.57005E+02
  8.69375E+03 -8.73133E+03 -1.04358E+03 -2.53576E+03  7.58415E+03  6.62086E+03  2.82203E+02  6.31553E+03
 -5.07120E+03 -2.71181E+02 -4.48405E+03  2.37972E+03  8.76248E+02  6.48996E+03  3.61411E+02  2.01748E+03
 -6.92289E+03  4.90955E+03 -5.67732E+03  3.80172E+02 -4.30976E+03 -6.66302E+02 -9.73672E+03 -1.04521E+04
 -7.61270E+03 -1.15296E+04 -5.08556E+03 -1.09017E+04  2.54175E+03 -1.06267E+04  1.15277E+04 -6.18699E+03
  6.64014E+03 -3.10517E+03  7.44306E+03  4.01774E+03 -1.73549E+03  8.32483E+03  1.58209E+03  5.51520E+03
 -1.95957E+03 -1.24522E+03 -5.42440E+03 -3.06609E+03 -4.33573E+03 -3.69139E+03  2.42272E+03 -3.14740E+03
 -1.77170E+03  3.15306E+03 -2.85868E+03  1.03532E+03  1.26689E+02  3.97622E+03  1.97615E+02  2.97346E+03
  1.16260E+03  1.00628E+02  7.62681E+03 -4.04070E+03  5.70549E+03  2.55114E+03 -3.22303E+03  8.41668E+03
 -2.05942E+03  8.92693E+03 -6.37503E+03  5.02573E+03 -8.96505E+03 -2.42399E+03 -8.99596E+03 -7.40389E+03
 -4.21667E+01 -3.67715E+03  5.81351E+03 -3.36762E+03 -2.82813E+02 -1.25818E+02  7.88170E+03 -3.97529E+03
  8.13057E+03  3.49770E+03  1.84522E+03  7.34240E+03 -4.54082E+03  2.58992E+03 -2.36393E+03 -1.64344E+02
  3.90772E+01 -1.89487E+03  2.63680E+03  2.70413E+03 -5.52162E+03  9.52850E+03  1.55097E+03  6.34320E+03
  6.73924E+02  8.49510E+02 -4.94787E+03  2.35871E+03 -7.47524E+03 -1.31720E+03  7.95569E+02 -4.92441E+03
  3.02155E+03 -1.91237E+03  9.14005E+03 -3.62327E+03  6.20232E+03  7.02348E+02 -1.89430E+03  4.25772E+03
 -3.46123E+03  1.57218E+03 -1.24622E+02  1.00949E+04 -1.09179E+03  1.11869E+03  2.28700E+03  3.68737E+01
 -3.16139E+03  1.69747E+02  4.30637E+03 -8.84732E+01 -2.55279E+03  7.02500E+02 -5.00968E+03  1.64979E+03
  1.76150E+02 -7.70673E+03 -2.05001E+03 -2.95044E+03  4.78501E+03 -8.25342E+03  7.45567E+03  5.16243E+02
  6.54688E+03  1.84723E+03  7.61117E+03 -8.83849E+02 -3.00801E+03  3.79029E+03  2.77810E+03  1.86603E+03
