 $NMID ID='MM_0lb_SNR50_20hz_g40_7.RAW', FMTDAT='(8E13.5)'
 TRAMP=1., VOLUME=1. $END
  3.11163E+05 -5.42278E+02  3.38056E+05  2.48796E+05  8.09099E+04  3.35878E+05 -1.33851E+05  2.48908E+05
 -1.93395E+05  8.05390E+04 -1.10241E+05 -3.11272E+04 -1.48018E+03 -4.77720E+04  5.73240E+04 -7.70044E+02
  3.49787E+04  4.92335E+04 -1.86427E+04  7.60338E+04 -5.97644E+04  6.22101E+04 -8.12732E+04  3.11663E+04
 -7.51428E+04 -1.28234E+04 -5.57636E+04 -5.30943E+04 -1.22013E+04 -6.78473E+04  2.62239E+04 -4.62082E+04
  3.83363E+04  2.46836E+03  1.64802E+04  4.43736E+04 -3.57272E+04  4.55854E+04 -6.74133E+04 -1.74143E+03
 -5.52290E+04 -5.83603E+04 -1.33545E+04 -7.57206E+04  3.50869E+04 -5.16172E+04  4.70432E+04 -1.13853E+04
  3.90754E+04  1.24700E+04  3.01261E+04  1.96111E+04  1.34682E+04  2.67885E+04 -6.37726E+03  2.64512E+04
 -2.06132E+04  1.18661E+04 -2.03803E+04 -3.46051E+03  1.20064E+03 -6.91089E+03  2.11418E+04  1.10147E+04
  4.36477E+03  3.29405E+04 -3.14790E+04  3.16372E+04 -5.82954E+04  2.06003E+03 -5.60300E+04 -3.99275E+04
 -1.06902E+04 -6.09889E+04  4.25423E+04 -4.18106E+04  5.51427E+04 -4.54608E+03  3.16972E+04  3.11350E+04
 -5.21786E+03  3.34023E+04 -2.91008E+04  1.59029E+04 -2.61247E+04 -5.99813E+03 -1.21229E+04 -6.64148E+03
 -8.07796E+03 -1.29748E+04 -1.88331E+03 -1.76041E+04  6.38445E+03 -2.05358E+04  1.51092E+04 -1.51295E+04
  1.18170E+04  4.27569E+03 -9.08676E+02  1.42610E+04 -2.02127E+04 -4.48768E+02 -1.00994E+04 -2.70105E+04
  1.89864E+04 -4.14607E+04  4.32867E+04 -1.73685E+04  4.16660E+04  1.54029E+04  1.75781E+04  4.18784E+04
 -1.62665E+04  2.89019E+04 -2.19773E+04 -2.34753E+03 -3.52065E+03 -2.54875E+04  1.91236E+04 -3.01699E+04
  3.79397E+04 -1.17016E+04  3.00022E+04  2.20017E+04  1.30291E+04  4.23484E+04 -1.11966E+04  4.39259E+04
 -2.73303E+04  3.11096E+04 -3.42920E+04  6.69729E+03 -3.70640E+04 -1.49805E+04 -2.48932E+04 -3.18570E+04
  9.16808E+03 -3.43524E+04  2.93288E+04 -1.38340E+04  2.74743E+04  8.90361E+03 -6.74284E+02  1.61801E+04
 -1.39663E+04  9.14820E+03 -5.19424E+03 -9.59024E+03  8.87229E+03 -9.54210E+03  1.67943E+04  6.49202E+03
  9.48419E+03  2.50009E+04 -5.01784E+03  2.35672E+04 -2.09925E+04  7.39658E+03 -2.37494E+04 -1.26028E+04
 -1.50329E+04 -2.06120E+04 -4.81298E+03 -1.37792E+04  9.32846E+03 -1.11739E+04  1.45808E+04 -1.21096E+04
  2.06817E+04 -9.86648E+03  2.56759E+04  2.25830E+03  1.91285E+04  1.65713E+04  7.60223E+03  3.12008E+04
 -1.62156E+04  2.40955E+04 -2.30734E+04  1.00442E+04 -1.81534E+04 -1.26325E+04 -5.12334E+03 -1.65917E+04
  4.89966E+03  2.91258E+03 -1.81556E+03  5.99653E+03 -9.68288E+03  5.48056E+03 -1.60564E+04 -7.04553E+02
 -1.29124E+04 -1.46659E+04  1.76370E+02 -1.47008E+04  1.16316E+04 -1.59370E+04  1.35823E+04 -3.86331E+02
  4.09817E+03  7.87868E+03 -2.93919E+03  1.28051E+04 -1.29457E+04  1.09399E+04 -1.44569E+04 -3.94226E+03
 -1.17447E+04 -1.86492E+04 -1.66828E+03 -1.59646E+04  8.46602E+03 -1.44827E+04  1.11986E+04 -6.71109E+03
  1.49257E+04  1.92588E+03  1.03054E+04  3.93921E+03  3.16799E+03 -4.95031E+03  9.19713E+03 -1.83151E+03
  1.30565E+04  1.90021E+03  1.55089E+04  9.12955E+03  7.43203E+03  1.97841E+04 -3.19617E+03  2.33309E+04
 -1.36883E+04  1.73697E+04 -2.11336E+04  1.23600E+04 -2.42655E+04 -1.24307E+03 -1.74965E+04 -1.48641E+04
 -8.88760E+03 -1.63296E+04  3.90493E+03 -1.33719E+04  1.44152E+04 -8.89523E+03  1.35977E+04  2.91703E+03
  2.49776E+03  1.03240E+04 -5.81519E+03  1.06060E+04 -1.00301E+04  4.36125E+03 -1.02831E+04 -1.28610E+04
 -3.37072E+03 -1.25724E+04  8.15079E+03 -9.89556E+03  8.82112E+03 -4.27439E+03  3.06121E+03  5.29449E+03
 -6.68810E+03  4.41466E+03 -6.82365E+03  9.58737E+02 -7.62715E+02 -1.17788E+04  7.64150E+03 -1.27343E+04
  1.30070E+04 -1.22706E+03  5.84634E+03  3.72673E+03  7.33667E+03  9.05163E+03  8.08301E+03  1.20008E+04
  2.02188E+03  1.28670E+04 -8.97072E+03  6.21490E+03 -9.45281E+03  1.14794E+03 -6.66890E+03  1.44294E+02
 -7.18017E+03 -1.87555E+03 -1.25024E+03  6.76340E+02  8.26712E+02 -5.77135E+03 -6.16198E+03  5.56760E+03
 -6.56153E+03 -1.57969E+03 -1.06169E+04 -7.64569E+03 -6.92679E+03 -1.23289E+04  6.29557E+03 -5.02123E+03
  4.48100E+03 -5.34848E+03  5.55303E+03  2.60012E+03  5.93745E+02  4.11422E+03 -1.74502E+03 -6.21035E+02
 -8.52069E+02 -1.11496E+03 -1.59746E+03 -7.63622E+03  6.01848E+03 -4.66544E+03  1.02469E+04 -5.32355E+02
  1.38814E+04 -2.63468E+03  5.31751E+03  6.80493E+03 -2.87470E+02  4.89970E+03 -4.74574E+03  9.11823E+03
 -4.06578E+03  4.01875E+02 -6.13326E+03 -3.67013E+02  1.94092E+03 -5.34018E+02  4.81719E+03 -2.76057E+03
  5.90482E+03  3.95305E+03 -2.05236E+03  5.49991E+03 -8.87179E+02  2.93536E+03 -7.49529E+03 -2.18420E+03
 -5.65957E+03  2.30933E+03  2.33847E+03 -7.32385E+03  6.33611E+03 -5.79860E+03  2.33903E+03 -2.36900E+03
  1.18949E+03  3.74770E+03 -2.97043E+03  4.99799E+03 -3.41409E+03  3.96024E+03 -4.43788E+03 -3.18641E+03
  8.34944E+02 -4.86461E+03  1.94257E+03 -5.29222E+03  4.99877E+03 -3.11896E+03  5.72602E+03  2.83564E+02
  4.97749E+03  2.40237E+03 -3.65217E+03  4.60873E+03 -3.59872E+03  1.51883E+03 -2.07862E+03  3.87705E+03
 -6.01025E+03 -3.67838E+03 -1.85092E+03 -6.12303E+03  1.16450E+03 -5.41189E+03  3.88073E+03 -3.83971E+03
  3.87138E+03 -2.44278E+03 -2.65591E+03 -1.79304E+03  2.29945E+03 -3.76502E+03  1.73312E+02 -2.49553E+03
  1.57747E+02 -5.23012E+02  2.16140E+03  3.09061E+03  3.92440E+03 -1.24608E+03  7.09387E+03  6.06494E+03
 -4.29924E+03  8.75244E+03 -6.63802E+03  3.36283E+03 -5.77426E+03 -5.03364E+00 -5.13353E+03  5.36853E+02
 -1.86811E+03 -3.73038E+03  1.85616E+03 -5.46140E+03  5.36477E+03  2.85243E+03  1.12228E+03 -1.78938E+03
  5.26875E+02  2.07943E+03 -1.76283E+02 -6.59048E+01  1.03049E+02 -3.03258E+03  3.78548E+03  2.12787E+03
  1.69200E+03  8.77107E+02 -4.64871E+02  3.05156E+03  5.01174E+02  4.47615E+01 -4.33800E+03  1.89047E+03
 -6.32156E+03  5.34911E+03  2.91423E+03 -5.16977E+02  8.67732E+01 -1.23493E+03  1.56631E+03 -2.96358E+03
  5.44952E+03 -2.73749E+03  8.11870E+03  2.86938E+03  3.27714E+03  3.55585E+03  3.62981E+03  3.39141E+03
 -5.13280E+03  3.30161E+03 -2.25277E+03  1.94882E+03 -7.86932E+02 -1.57968E+03 -1.11035E+03  4.16343E+03
  1.03556E+03 -1.51355E+03 -3.66746E+03  1.20993E+02 -9.03061E+02  1.70323E+03 -5.44891E+03 -3.68357E+02
 -1.68443E+03 -2.35490E+03  1.56940E+03 -2.66848E+03  5.03969E+03 -3.89547E+03  2.13202E+03 -2.51705E+03
  3.05210E+03  3.00775E+03 -4.17869E+03  2.98322E+03 -9.66461E+02  4.98617E+03 -1.15080E+03  7.07677E+02
 -3.63325E+03 -1.68081E+03 -1.20885E+02 -7.54534E+02 -2.26241E+03 -2.34802E+03  1.93719E+02 -2.06343E+03
  2.30926E+03 -1.12623E+03 -1.70439E+03  3.65394E+03  3.69181E+03  2.83040E+03  2.68592E+03 -1.06280E+03
  1.73753E+03 -7.67219E+02  2.23390E+02 -1.33380E+03  2.88206E+03  4.31236E+03  1.82761E+03  5.96827E+02
 -3.78701E+03 -3.22356E+02 -1.07874E+03  2.21352E+03 -2.16212E+03  9.99472E+02 -1.18104E+03 -2.64631E+03
  2.73317E+03 -3.68016E+03  2.89539E+03 -2.01818E+03  2.40639E+03 -5.80407E+03  3.13361E+03 -2.33122E+03
  1.89450E+03  1.10987E+03 -8.68605E+02  3.05205E+03 -3.52121E+03  2.60084E+03 -3.23052E+03  1.18012E+03
  2.03811E+03 -8.41325E+02  3.36762E+03 -2.56610E+03  1.01330E+03  1.77747E+02  1.76188E+03  2.68884E+03
  3.20523E+03  8.26458E+02  3.18703E+03  6.64889E+02 -2.01200E+03  3.75481E+03 -3.46716E+02 -3.51500E+03
 -2.88956E+03  9.21090E+02 -2.58090E+02 -2.27770E+03 -2.35693E+03  1.37274E+03  2.09922E+03  1.84459E+03
 -3.78416E+03  5.61251E+03 -5.73445E+03 -2.76631E+02 -6.16380E+02 -6.97894E+02 -1.19611E+03 -1.29947E+03
  5.76451E+02  4.63498E+03  3.09383E+03  3.64149E+03  1.78259E+01  1.50913E+03 -6.54774E+02  3.10084E+03
  1.79830E+03 -1.38040E+03 -1.63897E+03  5.53767E+02 -4.23346E+02  5.10191E+02 -2.18856E+03  1.47944E+03
  3.69548E+02 -3.15681E+03  3.67336E+03  1.61675E+03  4.24415E+03 -1.07206E+03  3.54853E+03 -3.56892E+03
  1.50806E+02  9.79681E+02  6.47110E+02 -2.51327E+03  2.37256E+03  9.11822E+02  9.15443E+02 -6.58560E+02
  2.97262E+01 -6.06913E+02  7.24197E+02  2.94142E+03  3.81223E+03  6.25756E+02 -2.17988E+02  1.87697E+03
  3.45037E+03  3.37730E+03 -3.27619E+03 -2.24697E+03 -7.88959E+02  2.66642E+02  6.02789E+03 -3.41298E+02
  1.41610E+03 -3.26476E+03 -6.61948E+02  1.78504E+02 -9.18092E+02  3.26129E+03 -4.72956E+03 -2.63325E+02
 -1.71707E+03 -5.73394E+02 -8.24269E+02  3.87797E+02  3.45155E+02 -3.55517E+03 -3.12530E+03  5.80945E+02
  5.26606E+02  7.12324E+02 -6.97461E+02 -3.61089E+03 -1.60758E+03  5.14195E+03 -1.42907E+03  1.10964E+03
 -2.12187E+03  2.54428E+03  1.43512E+03 -7.21238E+03  1.90071E+03 -2.91727E+03  2.80598E+03  1.27029E+03
  1.25561E+03  9.66964E+02 -1.14268E+03  3.80591E+03 -2.20424E+03  2.29356E+03  7.76530E+02  1.01263E+03
 -3.40955E+03 -2.21850E+03 -2.29989E+03 -3.26965E+02 -2.10578E+03 -1.34868E+03  3.37434E+02 -1.34525E+03
  1.31965E+02  2.68062E+03  1.02143E+03  1.18524E+03 -3.83663E+02 -1.54901E+03 -3.19911E+03  6.11071E+02
  2.45367E+03  6.00425E+02 -2.00695E+03 -2.92503E+03  1.81237E+03 -1.57234E+03  2.59142E+03  2.56737E+03
  2.66397E+02  1.67649E+03 -2.45934E+03 -1.51027E+03  6.74785E+01 -1.28687E+03 -9.82306E+02 -4.71256E+03
  4.38060E+03  5.39439E+02  4.87008E+03  1.01648E+03 -1.37477E+03 -3.78248E+03  3.61442E+03 -9.06275E+02
 -7.69339E+02 -2.37595E+03 -1.40551E+03 -1.11355E+02 -2.27298E+03  4.55555E+03  3.33495E+03 -2.34353E+02
  4.41377E+03 -2.70871E+03  1.81996E+03  2.25398E+03  1.24237E+03 -2.59598E+03  1.17608E+03 -2.07609E+03
  2.92990E+03 -1.24773E+03  6.40965E+03 -4.86230E+02  1.14739E+03 -9.38054E+02  5.26231E+03 -3.72803E+03
  6.23296E+02 -8.00118E+02 -2.56924E+02 -5.91362E+02 -2.81382E+03  4.63240E+03  7.82472E+02  3.76212E+03
  5.78309E+03 -1.52070E+03 -1.77117E+03  4.28246E+01  1.72932E+03  3.39999E+03 -2.05404E+03  2.83563E+02
 -5.98537E+02 -1.82462E+03 -1.07201E+03  3.29851E+03 -1.23036E+02 -2.92360E+03  1.23584E+03 -2.94179E+03
 -1.78691E+03 -1.03377E+03 -1.50916E+02  2.28068E+03 -1.74536E+03 -2.23771E+03  3.02378E+03  2.34289E+03
 -1.04730E+03  1.60243E+03 -5.87884E+03 -6.72386E+02 -3.14343E+03  1.38668E+03  1.54773E+03 -8.01460E+02
