 $NMID ID='MM_0lb_SNR50_12hz_g50_29.RAW', FMTDAT='(8E13.5)'
 TRAMP=1., VOLUME=1. $END
  3.10272E+05  4.34035E+03  3.36990E+05  2.46867E+05  8.83936E+04  3.38645E+05 -1.33683E+05  2.55025E+05
 -1.92241E+05  8.32506E+04 -1.09652E+05 -3.19486E+04 -3.10857E+03 -5.12792E+04  5.32273E+04 -3.56530E+03
  3.10969E+04  5.09691E+04 -1.60619E+04  7.48933E+04 -6.48876E+04  6.33778E+04 -8.09648E+04  3.42416E+04
 -8.33972E+04 -1.16256E+04 -5.64660E+04 -5.49872E+04 -1.64889E+04 -7.50516E+04  2.62941E+04 -4.78617E+04
  3.98404E+04  1.10330E+02  1.51290E+04  4.61801E+04 -3.15019E+04  5.03306E+04 -6.76947E+04 -4.10710E+03
 -5.62809E+04 -5.49774E+04 -2.34893E+03 -8.04927E+04  3.46853E+04 -5.62830E+04  4.28832E+04 -1.82411E+04
  3.72202E+04  1.03007E+04  2.89949E+04  2.48158E+04  1.52039E+04  3.07107E+04 -5.17484E+03  2.46056E+04
 -2.37116E+04  1.65680E+04 -2.02273E+04 -1.20006E+04  5.67843E+03 -5.98066E+03  2.08392E+04  1.42251E+04
  6.52514E+03  3.42364E+04 -3.22934E+04  3.40245E+04 -6.69967E+04  2.53997E+03 -5.74182E+04 -4.66354E+04
 -1.27517E+04 -6.24606E+04  3.77560E+04 -4.45187E+04  5.33345E+04 -4.29328E+03  3.04068E+04  3.30777E+04
 -8.54380E+03  3.36597E+04 -3.34405E+04  2.33040E+04 -3.03550E+04 -8.80122E+02 -1.64474E+04 -1.12237E+04
 -8.59520E+03 -1.44453E+04 -8.93478E+02 -1.61121E+04  6.74143E+03 -2.46643E+04  1.55043E+04 -1.29102E+04
  1.64044E+04  8.10039E+03 -9.41635E+03  9.25091E+03 -2.04857E+04 -4.56143E+03 -6.65847E+03 -3.24513E+04
  2.62857E+04 -4.75719E+04  4.91985E+04 -1.78266E+04  4.61024E+04  2.51433E+04  1.71706E+04  4.32674E+04
 -2.13866E+04  3.58050E+04 -2.54513E+04  3.95981E+03 -1.36838E+04 -3.64390E+04  1.96658E+04 -3.33380E+04
  4.61756E+04 -1.13322E+04  3.37179E+04  1.97310E+04  1.87755E+04  5.06183E+04 -6.91464E+03  5.53151E+04
 -3.16930E+04  3.47125E+04 -4.14434E+04  8.94340E+03 -4.71826E+04 -1.91247E+04 -2.10929E+04 -3.72648E+04
  6.12349E+03 -3.85371E+04  2.94890E+04 -1.39533E+04  2.89027E+04  1.01258E+04  3.00612E+03  1.36976E+04
 -1.20909E+04  6.51298E+03 -1.26970E+04 -1.15745E+04  1.51863E+04 -9.80066E+03  2.04667E+04  4.45240E+03
  1.66994E+04  2.30014E+04 -1.19599E+03  2.90318E+04 -2.16201E+04  1.13925E+04 -3.19582E+04 -7.88153E+03
 -2.58015E+04 -1.60735E+04 -8.41469E+03 -2.82705E+04  6.15942E+03 -1.73928E+04  1.86233E+04 -1.90360E+04
  2.77940E+04 -1.22668E+04  3.47010E+04  4.23120E+03  2.15218E+04  2.26595E+04  2.91622E+03  3.39561E+04
 -2.33584E+04  3.43528E+04 -3.43116E+04  1.21508E+04 -1.94477E+04 -8.04407E+03 -5.90583E+03 -1.55097E+04
  3.65468E+03 -5.51516E+03 -1.58233E+03  4.56737E+03 -1.54185E+04  5.91346E+03 -1.71263E+04 -1.15390E+04
 -1.15644E+04 -1.71090E+04  4.78432E+03 -2.53478E+04  1.65894E+04 -1.89577E+04  1.96236E+04 -1.33374E+03
  9.40120E+03  1.47331E+04 -1.18116E+03  2.19847E+04 -1.25409E+04  8.12129E+03 -1.70289E+04 -8.99097E+03
 -1.17794E+04 -1.92137E+04 -4.62160E+03 -2.13064E+04  1.10108E+04 -1.95226E+04  2.45499E+04 -7.36783E+03
  1.95026E+04  6.59175E+02  1.50848E+04  4.24888E+03  1.05944E+04  3.83378E+03  1.13239E+04 -2.52590E+02
  2.16196E+04 -7.64976E+01  2.07799E+04  1.97654E+04  2.05948E+04  3.29927E+04  1.12035E+03  3.97073E+04
 -2.04043E+04  3.44008E+04 -3.41608E+04  1.74739E+04 -4.35353E+04 -2.11976E+03 -3.26086E+04 -2.10795E+04
 -9.94212E+03 -3.02032E+04  1.35396E+04 -3.11837E+04  2.35588E+04 -1.33703E+04  1.97428E+04  1.28693E+03
  8.16464E+03  1.45058E+04 -1.20659E+04  1.01907E+04 -1.43038E+04  4.35311E+03 -1.32054E+04 -1.07774E+04
 -1.22028E+02 -2.04196E+04  8.74498E+03 -1.30675E+04  1.81684E+04  2.75915E+02  6.61820E+03  1.11694E+04
 -6.80253E+03  1.41306E+03 -5.59719E+03 -4.33860E+03 -7.71240E+03 -1.57647E+04  1.44450E+04 -1.08866E+04
  2.03441E+04 -1.31049E+04  2.01859E+04  6.18409E+03  1.95062E+04  1.56474E+04  1.25868E+04  2.24401E+04
 -3.18890E+03  2.27808E+04 -1.77608E+04  1.50015E+04 -1.35200E+04  5.24144E+03 -1.30085E+04 -4.43769E+03
 -7.07468E+03 -1.01340E+04 -3.03757E+02 -1.92157E+03  1.27914E+03  1.60536E+03 -3.36230E+03  4.40915E+03
 -1.39894E+04 -1.21019E+03 -1.04051E+04 -1.36014E+04 -9.59653E+03 -1.49365E+04  4.56912E+03 -1.32949E+04
  1.02477E+04 -4.50608E+03  9.44366E+03  3.19583E+03 -1.29892E+03  5.30563E+03 -9.45059E+03 -5.32859E+02
 -5.88995E+03 -3.78174E+03 -1.69995E+03 -1.34513E+04  6.15117E+03 -2.00460E+04  1.72062E+04 -7.95142E+03
  1.72090E+04 -5.93421E+02  1.94236E+04  7.19687E+03  1.58428E+03  1.49843E+04 -9.40136E+03  1.37306E+04
 -1.02397E+04  2.08787E+03 -9.25757E+03  1.62912E+03  3.40006E+03  9.94810E+01  2.96712E+03  1.93477E+03
  9.90661E+03  4.56209E+03 -5.80106E+03  3.72852E+03 -5.32175E+03  6.05491E+03 -1.69402E+04  8.30219E+02
 -5.87765E+03 -6.83376E+03  7.41876E+02 -1.04059E+04  5.03459E+03 -3.44194E+03  7.78861E+03  4.27945E+03
 -3.13442E+03  2.57330E+03  3.85952E+01  6.40501E+03 -1.23697E+04  1.69231E+03 -1.48903E+04  1.84798E+03
 -1.19073E+04 -1.55716E+04  5.25682E+03 -1.31563E+04  1.40737E+04 -8.19132E+03  8.66773E+03  3.72567E+02
  4.63784E+03  1.04786E+04 -4.21589E+03  9.85358E+03 -1.58004E+04  7.65507E+03 -9.56295E+03  1.52935E+03
 -1.10640E+04 -5.83703E+03 -4.93547E+03 -1.05248E+04  2.24215E+03 -4.89509E+03  4.55626E+03 -2.12667E+03
  2.08632E+03  1.89390E+03 -8.65349E+02  3.29679E+03 -2.09918E+03 -4.15666E+02 -6.95510E+02 -8.87371E+03
  5.96449E+03 -5.48087E+03  1.31668E+04  3.96287E+02  1.28385E+04 -9.25156E+02 -4.65982E+02  1.81852E+04
 -4.87303E+03  1.72906E+04 -1.78575E+04  1.02049E+04 -2.25858E+04 -3.41692E+02 -1.15418E+04 -1.05368E+04
 -4.70847E+03 -1.43175E+04 -2.75958E+03 -1.44361E+04  2.83045E+03 -1.28933E+04  3.62829E+03 -6.47303E+03
  1.72465E+02 -3.91921E+03 -1.14275E+03 -6.65296E+02  1.19160E+03 -1.56658E+03  6.20081E+03 -6.47498E+02
  6.10742E+03  1.57896E+03  1.90051E+03  4.94629E+03  3.08761E+02  5.71030E+03 -9.13427E+03  3.57258E+03
 -1.60044E+04 -5.51015E+03 -1.22236E+04 -3.89260E+03 -7.97106E+02 -9.70409E+03  5.93400E+03 -1.37777E+04
  1.59872E+04 -2.73399E+03  1.62692E+04  1.46473E+03  6.61798E+03  5.65929E+03  5.77514E+03  8.61147E+03
 -6.17820E+03  8.55278E+03 -3.98600E+03  9.85228E+03 -1.27616E+03 -2.09534E+03 -7.85404E+03 -8.15313E+03
 -1.26354E+03 -2.20634E+01 -8.35405E+03  3.26811E+02 -6.52657E+03  4.06424E+02 -8.45960E+03  4.68470E+03
 -9.24309E+03 -7.62124E+03  9.59401E+01 -1.02955E+04  4.67909E+03 -6.77224E+03  8.33065E+03 -4.07467E+03
  1.04953E+04  6.37276E+03  6.34420E+03  9.32613E+03  2.05161E+03  9.62203E+03 -6.91337E+03  4.17984E+03
 -1.06313E+04  1.37695E+03 -1.14456E+04 -6.02455E+03 -4.62210E+02 -3.44223E+03  1.27832E+03 -2.98668E+03
  3.36308E+03  2.58441E+03  5.12148E+03  4.93381E+03  1.00368E+03  6.51567E+03  3.51034E+02  1.49809E+03
 -3.99295E+02 -1.12825E+03  1.39560E+02  1.79911E+03  5.69229E+03  8.54966E+03  7.27490E+03  6.52940E+03
 -5.15868E+03  4.43757E+03 -3.37748E+03  3.61582E+03 -6.88567E+03 -2.80857E+03 -1.41705E+04 -5.33750E+03
 -7.71938E+03 -5.00889E+03 -2.27303E+03 -1.39613E+04  4.36363E+03 -3.41810E+03  1.00415E+04 -4.30328E+03
  6.74726E+03  5.15762E+03  1.12341E+03  8.55487E+03 -3.73317E+03  2.97102E+03 -5.78365E+03 -6.16973E+02
 -4.67276E+03  1.35507E+03  4.83459E+03 -1.29337E+03  2.49947E+03 -4.78574E+02 -5.01522E+03 -2.89206E+03
  2.16808E+03 -1.52874E+03 -3.24163E+03  4.09536E+03  5.88636E+01  1.03678E+04 -4.01713E+03 -1.63592E+03
 -1.30366E+03 -5.70261E+03  2.81764E+03  9.60121E+03  4.85037E+03  3.53315E+03 -4.24820E+03  4.22597E+03
 -4.45642E+03  8.35171E+03 -1.05159E+04 -5.18202E+03 -3.02562E+03 -3.65490E+03 -5.03638E+02  3.38411E+02
  3.85525E+03 -4.44989E+03  5.79654E+03 -2.03724E+03  1.40461E+01  1.16453E+03  4.62317E+03  5.04982E+03
 -9.43223E+03  2.45158E+03 -5.42565E+03  3.14188E+03 -4.33103E+03 -4.35935E+03 -4.65308E+02 -8.27891E+03
  3.60418E+03 -2.11044E+03  3.56642E+03 -1.76689E+02  4.03577E+03  5.44998E+03 -8.22344E+01  3.55267E+02
 -1.90695E+03 -3.85650E+03 -3.58409E+03 -6.87821E+03 -1.80991E+02 -5.75911E+03  6.13332E+03 -1.17973E+03
  8.61019E+03  7.67120E+02  1.06491E+04  2.15921E+03 -9.44401E+02  1.01301E+04 -2.32818E+03  5.62813E+02
 -6.13360E+03 -7.20008E+02 -2.76017E+03 -2.48433E+03 -2.61972E+03 -9.87605E+02 -1.13983E+03 -3.18592E+03
  4.99841E+03 -2.78051E+03  5.95775E+03  2.58017E+03  1.47931E+03  2.72818E+03 -9.93700E+03  4.00431E+03
  2.75687E+03 -8.63475E+02 -5.07161E+02  1.15460E+03  5.16674E+03  8.00113E+02 -1.64761E+03  1.35928E+03
 -1.44158E+03  3.93198E+03  5.72057E+02  7.92378E+03 -4.92729E+03  1.79658E+03 -9.79577E+03 -2.35357E+03
 -4.47555E+03 -9.15364E+03  1.90427E+03 -8.24435E+03  2.81182E+03 -9.19425E+03  1.13677E+04 -8.41875E+03
  1.42687E+04 -1.45421E+03  5.11697E+03  6.52687E+03 -1.15359E+03  9.59363E+03 -4.27633E+03  7.40009E+03
 -2.01875E+03 -1.76728E+03 -3.44432E+03  3.51801E+03 -5.54741E+03  1.42820E+03  3.70068E+02 -1.46793E+03
 -2.86530E+03 -2.03681E+03  6.70696E+02  2.72224E+03  1.53388E+03  1.61362E+01 -1.17207E+03 -3.74559E+03
  3.02787E+03  7.69040E+02  6.72408E+03 -3.13411E+03  5.64147E+03  1.72078E+03 -3.06264E+02  7.97877E+03
  7.04202E+02  7.60334E+03 -4.29156E+03  5.34575E+03 -6.33680E+03 -3.98239E+03  1.22081E+03 -2.54572E+03
  3.16534E+03 -4.35367E+03  4.41128E+02 -7.52621E+03  3.60374E+03 -1.63543E+03  3.31685E+03  8.65962E+02
  1.57627E+03 -3.97845E+02  1.23050E+03 -2.46779E+02 -5.56761E+03 -1.56267E+03  1.28601E+03  1.04450E+03
  2.89182E+03 -6.80726E+02 -1.81536E+03  2.72763E+03 -1.96059E+03 -2.22922E+03  1.32514E+03  2.24042E+03
 -2.34625E+03  4.98688E+03 -2.23084E+03  3.78297E+03 -1.97456E+03 -7.81013E+03 -4.07881E+03 -3.89321E+03
  8.53851E+03 -3.06379E+03  1.66677E+03 -8.84031E+03  1.37233E+04  1.92703E+03  3.42096E+03  5.44612E+03
  6.17431E+03  1.99542E+03 -9.66357E+02 -8.14486E+02 -5.61146E+02 -1.65041E+03  1.29089E+03 -1.21727E+03
  4.62537E+02 -1.34304E+03  1.47780E+03  5.64345E+03 -5.33787E+03  2.87111E+03 -3.80111E+03  1.58100E+03
 -1.28331E+03 -7.42291E+03 -2.24210E+03 -9.02230E+03  1.28031E+02 -2.95829E+03 -1.94188E+03 -3.79589E+03
  3.33068E+03  4.67256E+03 -4.62464E+02 -3.47199E+03  4.41353E+02  2.02171E+03 -4.94302E+03 -1.97049E+02
