 $NMID ID='MM_0lb_SNR50_18hz_g55_40.RAW', FMTDAT='(8E13.5)'
 TRAMP=1., VOLUME=1. $END
  3.09007E+05 -5.15961E+03  3.33012E+05  2.49874E+05  8.57020E+04  3.37298E+05 -1.33328E+05  2.47246E+05
 -1.91568E+05  8.84549E+04 -1.10311E+05 -3.32597E+04 -7.04782E+02 -4.88301E+04  5.50174E+04 -2.42308E+03
  3.18049E+04  5.11458E+04 -1.63784E+04  7.81592E+04 -5.64533E+04  6.09903E+04 -7.96882E+04  3.15070E+04
 -7.94787E+04 -1.37484E+04 -5.50046E+04 -5.24185E+04 -1.16522E+04 -6.74748E+04  2.93183E+04 -4.73841E+04
  4.14105E+04  5.85821E+03  1.58650E+04  4.64494E+04 -3.42603E+04  4.42358E+04 -6.64424E+04 -8.08967E+02
 -5.15725E+04 -5.73945E+04 -7.23706E+03 -7.66060E+04  2.86854E+04 -5.03549E+04  4.67483E+04 -1.73463E+04
  4.56546E+04  1.43864E+04  3.47466E+04  2.60018E+04  1.66529E+04  2.92534E+04 -4.97889E+03  2.60194E+04
 -2.01315E+04  1.33864E+04 -2.19334E+04 -6.06434E+03  2.47014E+03 -4.33106E+03  1.93073E+04  8.74028E+03
  7.14953E+03  3.15984E+04 -3.62204E+04  3.74615E+04 -6.33961E+04  6.45759E+03 -5.64346E+04 -4.34179E+04
 -1.33051E+04 -5.87022E+04  3.74090E+04 -4.14957E+04  5.42859E+04 -4.35117E+03  3.50493E+04  3.17451E+04
 -3.25707E+03  2.78627E+04 -2.38559E+04  6.39133E+03 -2.75592E+04 -6.27979E+03 -1.83377E+04 -1.29286E+04
 -5.33781E+03 -1.20701E+04 -6.78561E+02 -1.69554E+04  7.48167E+03 -2.39081E+04  1.32148E+04 -8.46620E+03
  9.51448E+03  5.74737E+03 -8.56587E+03  1.14041E+04 -2.28939E+04 -6.88794E+03 -8.52915E+03 -3.36318E+04
  2.32216E+04 -4.36934E+04  4.08198E+04 -2.51091E+04  4.23862E+04  2.02888E+04  1.51927E+04  4.46338E+04
 -1.42102E+04  3.22722E+04 -2.44102E+04  2.77226E+02 -7.76670E+03 -2.62146E+04  2.08436E+04 -2.82507E+04
  3.88462E+04 -8.33016E+03  3.53076E+04  2.30763E+04  1.52282E+04  4.44255E+04 -7.90173E+03  4.98695E+04
 -2.82985E+04  2.76105E+04 -3.66420E+04  6.69587E+03 -3.59595E+04 -1.53650E+04 -2.33179E+04 -3.68495E+04
  7.86471E+03 -3.25980E+04  2.73335E+04 -1.34197E+04  2.84594E+04  9.28248E+03  2.03062E+03  1.89760E+04
 -9.81866E+03  3.84955E+03 -6.96519E+03 -1.05718E+04  8.42651E+03 -1.00378E+04  1.70575E+04  5.45890E+03
  1.44551E+04  2.12594E+04 -5.05414E+03  1.84533E+04 -2.57213E+04  1.07206E+04 -2.64707E+04  2.59413E+03
 -2.04693E+04 -1.92226E+04 -9.02544E+03 -1.73085E+04  4.27797E+03 -1.61140E+04  1.48651E+04 -1.28996E+04
  2.40557E+04 -1.05844E+04  2.70874E+04  4.16284E+03  2.27811E+04  1.85286E+04  4.64590E+03  3.01385E+04
 -1.56628E+04  2.84895E+04 -2.31369E+04  8.32357E+03 -2.00341E+04 -1.20823E+04 -4.64018E+03 -1.70312E+04
  4.77670E+03 -2.24866E+03 -3.82283E+03  1.08433E+04 -1.37496E+04  1.11286E+04 -1.30873E+04 -8.64302E+03
 -1.54397E+04 -1.45230E+04  3.98053E+03 -1.98514E+04  1.45412E+04 -2.12285E+04  1.92170E+04 -6.71711E+02
  7.56100E+03  1.36990E+04  1.59808E+03  1.91145E+04 -9.39088E+03  1.18408E+04 -1.54759E+04 -3.85276E+03
 -1.30841E+04 -1.40714E+04  3.29411E+03 -1.59196E+04  6.05170E+03 -1.74513E+04  1.49723E+04 -9.94520E+03
  1.58080E+04 -1.41360E+03  8.98458E+03  8.02387E+03  1.11158E+03  1.98445E+03  5.34982E+03 -6.28622E+03
  1.27345E+04  6.39031E+00  1.49332E+04  1.22404E+04  1.28596E+04  2.65549E+04 -3.83899E+03  2.84364E+04
 -1.83285E+04  2.54908E+04 -2.86012E+04  5.72354E+03 -2.67257E+04 -2.54048E+03 -2.14007E+04 -1.54320E+04
 -5.68198E+03 -2.69189E+04  6.33650E+03 -1.98609E+04  2.26502E+04 -1.25151E+04  1.46881E+04  2.00202E+03
  6.15014E+03  6.54730E+03 -1.33194E+04  1.39199E+04 -1.58072E+04  1.20286E+03 -8.99636E+03 -1.07579E+04
 -4.17055E+03 -1.28523E+04  6.94719E+03 -6.43755E+03  7.70109E+03 -4.29028E+03  1.92294E+03  4.74456E+03
 -6.37265E+03  6.73425E+02 -7.44158E+03 -3.54205E+03 -2.50791E+03 -1.29786E+04  7.08188E+03 -8.78458E+03
  1.50044E+04 -5.46409E+03  1.71722E+04  1.06580E+03  1.07738E+04  1.45246E+04  4.85645E+03  1.72695E+04
 -2.58439E+03  1.62815E+04 -7.29028E+03  1.21112E+04 -1.10828E+04  6.12181E+03 -7.58175E+03 -1.25882E+03
 -6.41846E+03 -3.06375E+03 -1.95954E+03  7.53978E+03 -3.90328E+03  2.21184E+02 -4.55821E+02  3.91810E+03
 -6.43272E+03  1.96767E+03 -9.53867E+03 -5.97987E+03 -6.17740E+03 -1.28581E+04  1.76270E+03 -1.06258E+04
  7.02722E+03 -9.14420E+02  5.83733E+03 -4.85248E+02 -3.94950E+03  3.71659E+03  2.24290E+03 -1.14552E+03
 -1.47227E+02 -6.10644E+03 -3.60546E+02 -2.57873E+03  3.65625E+03 -6.69353E+03  1.02903E+04 -1.13110E+03
  1.09276E+04  4.43036E+02  1.05376E+04  8.30921E+03 -7.85046E+02  1.29466E+04 -7.12620E+03  5.37955E+03
 -8.94438E+03  4.34657E+03 -2.50723E+03 -2.47103E+03  9.27904E+02 -2.46478E+03  4.25680E+03 -4.51102E+03
  5.62887E+03  7.07779E+02 -1.55712E+03  1.28147E+04 -5.84141E+03  7.60260E+03 -7.29423E+03 -1.87206E+03
 -5.97426E+03 -1.67387E+03  6.73422E+03 -7.33470E+03  5.05130E+03 -5.53735E+03  3.09737E+03 -1.74199E+03
  1.52261E+03  2.94503E+03 -4.54890E+03  5.02266E+03 -7.55963E+03  5.02873E+03 -6.57973E+03  2.82731E+00
 -1.95646E+03 -6.99437E+03  3.76066E+03 -4.24193E+03  7.51635E+03 -2.28461E+03  1.93144E+03  4.18673E+03
  1.83251E+03  3.25695E+03  1.17149E+03  7.84115E+03 -4.58191E+03  4.85799E+03 -5.12404E+03  1.79848E+02
 -3.89454E+03 -6.23700E+03 -3.65781E+03 -3.65727E+03  3.64822E+03 -5.07507E+03  2.78111E+03 -7.13469E+02
  6.27550E+03 -1.49897E+03  3.20565E+03 -5.77823E+03 -1.08413E+03 -2.32924E+03 -5.99114E+02 -2.19429E+03
  5.00253E+03 -1.40107E+03  6.39923E+03 -1.72066E+03  1.08356E+04  4.07783E+03  6.79371E+03  6.22091E+03
  5.31905E+02  1.13567E+04 -7.77860E+03  7.74853E+03 -1.34166E+04  3.06603E+03 -7.30365E+03 -1.66194E+03
 -3.60049E+03 -1.29839E+04 -2.17155E+03 -1.00286E+04  3.03448E+03 -2.62551E+03  2.75874E+03 -1.62978E+03
  3.72420E+03  2.77331E+03  6.05997E+03 -4.65024E+03  1.79058E+03 -5.51482E+03  2.42223E+03  1.47922E+03
  1.46643E+03 -7.99609E+02  4.29302E+01  2.00926E+03 -2.54463E+03  1.90119E+03 -5.37166E+03  1.46603E+03
 -6.26737E+03 -3.79285E+03  1.27597E+03 -2.28412E+03 -1.18826E+03 -4.10421E+03  6.35526E+03 -4.61893E+03
  7.95286E+03 -9.62692E+02  9.42959E+03  2.89781E+03  5.92063E+03  1.47568E+03  3.55307E+03  6.28769E+03
 -4.28522E+03  1.22001E+03 -2.46571E+03  1.68276E+03  9.38591E+02 -2.56681E+03 -2.20107E+03 -4.16940E+03
  4.46236E+03  1.19543E+03  2.17068E+01  1.10883E+02 -5.12102E+03 -2.41338E+03 -8.02137E+03  1.78350E+03
 -3.82014E+03 -5.43575E+03  3.19214E+03 -2.59367E+03  5.72457E+03 -5.58239E+03  5.71396E+03  4.82505E+02
  3.73893E+03  1.01229E+03  4.40529E+02  5.27398E+03 -2.02613E+03  3.54329E+03 -4.03313E+03 -5.05818E+02
 -5.53309E+03  3.17039E+03 -4.82574E+03 -2.24961E+02 -2.42699E+02 -2.94771E+03  2.72955E+03 -1.50928E+03
  4.51842E+03  1.97982E+03  4.00832E+02  5.37966E+03  2.15717E+03  7.12698E+02  4.43287E+03  4.09645E+03
  5.60168E+03 -1.11919E+03 -6.77923E+02  1.93845E+03  4.12113E+03  5.44964E+03 -2.51861E+03  9.79886E+02
  2.68516E+03  1.75182E+03 -1.18828E+03  2.62550E+03 -6.16500E+03  5.00831E+02 -2.15744E+03  1.58637E+03
 -1.27149E+03 -7.26516E+03  2.07755E+03 -8.87893E+03 -2.99728E+03 -2.63834E+03  5.86242E+03 -1.44356E+02
  3.08302E+03  9.85359E+02 -1.34557E+03  1.59277E+03 -9.30548E+02  4.47184E+02  1.93363E+02 -4.16364E+03
 -4.57107E+03 -3.11642E+03  3.25430E+03  1.82112E+02 -7.04836E+02  2.11873E+03 -5.12734E+02  5.38603E+02
  2.96175E+03 -4.35439E+03  2.58660E+03  2.12228E+03  1.13686E+03 -1.19111E+03  3.70481E+03  1.81756E+03
 -2.02698E+03 -4.70531E+03  3.23955E+03  3.50079E+02  2.55558E+03  3.69519E+03  9.07300E+02  2.29025E+03
 -2.43286E+03 -6.88668E+02 -4.32402E+03  7.12875E+02  2.06128E+03 -1.89979E+02 -1.52294E+03 -1.47306E+03
  2.88334E+03 -5.55024E+02  4.58541E+03 -6.76389E+02  3.47046E+03  1.76498E+03  1.58941E+03  4.96378E+03
 -1.36901E+03  2.47296E+03 -1.65611E+03 -1.30216E+03  1.97834E+03 -2.49956E+03 -1.38678E+03 -2.79416E+03
  3.36200E+03 -3.51599E+01  1.08120E+02 -2.93846E+02  4.99188E+03 -2.55360E+02 -1.03709E+03  4.60642E+03
 -7.49117E+02  3.85476E+02  2.95620E+03 -1.51015E+03 -9.20220E+02  3.27706E+03  2.59612E+03 -2.35184E+03
  6.95426E+03  6.00710E+03  4.16365E+03  2.82606E+03  5.08468E+02  4.76715E+03  1.22184E+03  1.41364E+03
 -1.62921E+03  2.92676E+03 -1.45327E+03 -9.82588E+02 -2.80627E+03  2.74318E+02 -1.80619E+03  1.37114E+03
 -2.23606E+03 -8.69521E+02 -6.20985E+02  2.98605E+03 -6.52658E+02  1.41419E+03  1.08663E+03  1.14691E+03
  4.16326E+03  2.28296E+03 -6.44540E+02 -3.51727E+03 -4.37883E+03  2.78932E+03 -5.88639E+02  1.16212E+03
 -1.44660E+03 -1.85725E+03 -1.87447E+03 -2.71603E+02  4.06405E+02  9.58808E+02 -2.87932E+03 -1.05583E+03
 -3.58008E+03 -2.78200E+03  2.62617E+03 -3.62531E+02  2.70930E+01 -1.08827E+03  5.68285E+03  1.34453E+03
  1.14063E+03  3.46442E+02 -1.40799E+03  2.77171E+03  1.45063E+03  1.13050E+03  1.77018E+02  1.88116E+03
 -1.51387E+03  6.98236E+02 -1.68652E+01 -3.42539E+03 -5.73280E+03 -1.21574E+03  7.01328E+02  4.25939E+03
 -1.88552E+03 -1.39134E+03 -2.76098E+03  1.44772E+03 -2.85452E+03 -2.93361E+03  1.28089E+02 -4.51294E+03
 -2.85824E+03  2.23027E+03 -4.42312E+03  8.25919E+01  3.54778E+03  1.09059E+03  2.64409E+03  1.02913E+03
 -2.35114E+03  2.43536E+03 -2.47240E+03 -2.74061E+02 -9.69798E+02 -2.52120E+03 -5.70289E+03 -2.26843E+03
 -5.36831E+03 -4.93386E+03 -5.03517E+02 -1.27403E+02  7.22995E+02  5.41289E+03  3.19741E+03  1.69524E+03
  3.18001E+03  2.89134E+03 -3.28804E+02 -5.40677E+02 -1.21848E+03  1.16536E+03  4.12597E+02 -6.80286E+02
  2.20002E+03  2.19097E+03  2.22683E+03 -3.90709E+02 -1.86742E+03  2.38796E+03 -5.15932E+03 -2.71899E+03
 -2.71002E+03  2.81981E+03 -3.97142E+02 -3.62947E+03  2.57180E+02 -3.65257E+03 -8.47497E+02 -3.41510E+03
 -2.55134E+03 -4.29260E+03 -3.50459E+03 -3.08219E+03 -2.18088E+03 -2.73686E+03 -6.17400E+02  2.69650E+03
  5.22768E+02  2.04035E+03 -2.69757E+03  1.26203E+03 -1.09478E+03  1.06834E+03 -3.24326E+03  1.62712E+03
  8.11535E+02 -2.65840E+03 -9.66321E+02 -1.44436E+03  3.38064E+03  4.07282E+02  3.36020E+03 -1.46211E+03
 -2.83752E+03  2.75418E+03 -1.77099E+03 -5.85010E+03  3.13523E+03 -1.24396E+03 -1.23199E+03  8.98275E+02
  3.50322E+03 -3.86868E+03  3.15393E+03 -1.53980E+03  1.59854E+03  8.24237E+02 -2.29937E+03  5.36780E+02
