 $NMID ID='MM_0lb_SNR50_16hz_g45_46.RAW', FMTDAT='(8E13.5)'
 TRAMP=1., VOLUME=1. $END
  3.08392E+05  2.37471E+03  3.39046E+05  2.54039E+05  8.26731E+04  3.34983E+05 -1.29322E+05  2.47824E+05
 -1.90545E+05  8.27401E+04 -1.10222E+05 -3.12900E+04  2.74787E+03 -5.00201E+04  5.25007E+04 -3.28466E+03
  3.31598E+04  5.41227E+04 -1.88746E+04  8.06937E+04 -6.30336E+04  6.16638E+04 -8.58888E+04  2.95279E+04
 -8.10701E+04 -1.29530E+04 -5.48252E+04 -5.03120E+04 -1.70310E+04 -6.80565E+04  2.73325E+04 -4.69468E+04
  4.21363E+04 -2.98430E+03  2.01151E+04  5.28193E+04 -3.54763E+04  4.82918E+04 -6.59102E+04 -6.73247E+03
 -5.19476E+04 -5.95178E+04 -6.40492E+03 -7.50814E+04  3.04784E+04 -5.50668E+04  3.89329E+04 -1.52049E+04
  4.55889E+04  1.18851E+04  3.48887E+04  2.90105E+04  1.26082E+04  2.98666E+04 -3.46065E+03  3.07834E+04
 -2.42490E+04  9.76955E+03 -1.44493E+04 -4.98262E+03  3.36328E+03 -7.96941E+03  2.47897E+04  1.12713E+04
  7.34977E+03  2.75529E+04 -2.97270E+04  3.79788E+04 -5.92105E+04  6.97807E+02 -5.14554E+04 -4.28433E+04
 -1.54058E+04 -6.04043E+04  3.71068E+04 -4.31377E+04  6.00586E+04 -1.17564E+03  3.33347E+04  3.29390E+04
 -7.34031E+03  3.44040E+04 -2.40894E+04  1.19912E+04 -2.99618E+04 -5.84501E+03 -1.19053E+04 -9.32090E+03
 -1.06904E+04 -1.28907E+04  3.43952E+02 -1.99124E+04  3.15008E+03 -2.34618E+04  1.61674E+04 -1.43509E+04
  1.36399E+04  2.71273E+03 -7.70014E+03  1.87269E+04 -1.49838E+04  5.80836E+02 -6.46680E+03 -3.13822E+04
  1.96290E+04 -4.36077E+04  4.13281E+04 -1.62467E+04  4.44978E+04  1.98235E+04  1.63017E+04  4.04817E+04
 -1.97638E+04  3.07193E+04 -2.37394E+04 -1.23014E+02 -1.08041E+04 -2.91261E+04  2.44672E+04 -3.21409E+04
  4.14976E+04 -8.19205E+03  3.08328E+04  1.98634E+04  1.19452E+04  4.51055E+04 -1.07625E+04  4.36947E+04
 -3.06753E+04  3.45832E+04 -3.97673E+04  1.09513E+04 -3.92301E+04 -1.43931E+04 -2.38419E+04 -3.85511E+04
  9.91851E+03 -2.96407E+04  3.20488E+04 -1.31484E+04  2.91034E+04  8.83672E+03  5.13592E+03  1.64630E+04
 -1.41299E+04  5.06383E+03 -9.20057E+03 -7.17285E+03  8.41901E+03 -1.20066E+04  1.67264E+04  7.00800E+03
  1.49162E+04  1.80612E+04 -5.63623E+03  2.60560E+04 -1.97440E+04  1.22719E+04 -2.52771E+04 -6.36050E+03
 -1.84524E+04 -1.22595E+04 -4.79896E+03 -1.91848E+04  2.94452E+03 -1.54236E+04  1.49297E+04 -1.75907E+04
  2.26618E+04 -1.27262E+04  3.17103E+04  6.00021E+03  2.63755E+04  1.92549E+04  6.61074E+03  3.23820E+04
 -1.55283E+04  3.03916E+04 -2.71474E+04  9.80884E+03 -2.30722E+04 -7.02214E+03 -3.20971E+03 -9.03840E+03
  4.77714E+03 -2.37949E+03 -4.74646E+03  6.68512E+03 -1.18979E+04  4.52722E+03 -1.47648E+04 -8.49080E+03
 -7.40130E+03 -1.38120E+04  4.24196E+03 -1.58989E+04  1.39108E+04 -1.71122E+04  1.60385E+04 -2.73821E+02
  1.42731E+04  1.24299E+04  4.94178E+02  1.27218E+04 -9.30769E+03  5.49285E+03 -1.67026E+04 -4.27583E+03
 -1.61656E+04 -1.52345E+04 -9.14868E+02 -1.92732E+04  1.16713E+04 -1.70530E+04  1.52179E+04 -8.12705E+03
  1.75835E+04  2.04804E+03  1.03119E+04  2.85249E+03  4.29308E+03 -2.49145E+03  4.39499E+03 -1.78721E+02
  1.38151E+04  4.20176E+03  1.72652E+04  1.38771E+04  1.17360E+04  2.96662E+04 -8.77132E+02  2.97352E+04
 -1.63174E+04  2.80189E+04 -2.75360E+04  7.57426E+03 -2.75844E+04 -3.81434E+03 -2.50863E+04 -1.71136E+04
 -7.31951E+03 -2.35128E+04  9.72784E+03 -2.39848E+04  1.96518E+04 -9.99889E+03  1.62354E+04  5.74604E+03
  9.63535E+03  9.36545E+03 -8.83963E+03  8.87994E+03 -1.18319E+04  1.67250E+03 -8.49856E+03 -8.95428E+03
 -1.73659E+03 -1.57955E+04  7.61559E+03 -1.30999E+04  6.87004E+03 -1.47414E+03  2.18712E+03  7.15132E+03
 -7.43653E+03  5.32699E+03 -6.35984E+03 -4.56385E+03  8.41815E+02 -1.17067E+04  8.74917E+03 -1.51676E+04
  1.04104E+04 -7.64216E+03  1.66165E+04  3.58225E+03  1.43968E+04  1.21038E+04  3.47272E+02  1.49752E+04
 -2.01536E+03  2.07467E+04 -1.51002E+04  1.29900E+04 -1.09613E+04  7.90605E+02 -5.48171E+03 -4.88280E+03
 -6.79881E+03 -4.63105E+03 -9.37476E+02  3.37457E+03 -1.96318E+03  5.45604E+03 -5.71912E+03  8.92570E+03
 -1.09104E+04 -2.73394E+03 -8.03149E+03 -8.20465E+03 -5.88743E+03 -9.43282E+03  4.88462E+03 -9.74869E+03
  2.72183E+03 -7.68286E+03  6.15380E+03  5.36083E+03 -3.27759E+03  3.56706E+03 -5.96084E+03  2.56026E+03
 -1.94885E+03 -7.57652E+03  4.69349E+03 -4.68710E+03  5.87972E+02 -6.08753E+03  1.02436E+04 -5.40291E+03
  1.55589E+04  3.23923E+03  1.31719E+04  9.92692E+03  5.27658E+03  1.20124E+04 -8.06170E+03  1.21100E+04
 -8.45645E+03  1.49810E+03 -7.66957E+03 -3.30058E+03  3.95292E+03 -2.40837E+03  6.74503E+03 -3.61320E+03
  3.06450E+03  1.58184E+03  1.12914E+03  6.94383E+03 -5.14100E+03  7.53153E+03 -9.74567E+03  9.84712E+01
 -4.08435E+03 -7.36607E+03 -1.59897E+03 -8.28033E+03  4.78609E+03 -1.31344E+03 -1.75926E+02  4.79789E+03
  1.89552E+03  5.25548E+03 -4.07308E+03  4.06069E+03 -2.34520E+03  3.24309E+03 -7.51325E+03  2.47300E+03
 -6.23158E+01 -6.37709E+03  3.85625E+02 -1.29243E+04  6.71046E+03 -4.30696E+03  8.44098E+03  2.39579E+03
  5.92302E+03  1.07802E+04 -1.81192E+03  7.22534E+03 -6.27241E+03  5.84230E+03 -1.13309E+04 -7.14791E+02
 -4.15806E+03 -7.11250E+03 -4.77716E+03 -6.92930E+03  2.23055E+03 -7.41446E+03  6.32983E+03 -4.49156E+03
  5.55932E+03 -3.14313E+03 -2.84343E+03  3.51920E+03 -6.33486E+02 -5.03198E+03 -4.39762E+02 -3.94144E+03
  8.67019E+03 -1.19818E+03  6.52917E+03 -1.43536E+03  6.23962E+03  1.08040E+04  5.11360E+03  8.58984E+03
 -4.51507E+03  1.25883E+04 -7.63125E+03  9.56539E+03 -1.16163E+04  4.01970E+03 -1.07604E+04 -8.83305E+03
 -6.67225E+03 -4.85171E+03 -9.69219E+02 -6.64174E+03 -3.60007E+02 -7.35255E+03  1.60460E+03 -4.53753E+03
  7.74848E+02 -4.49272E+03  2.44427E+03 -8.39009E+03  5.15456E+03  2.70675E+03 -6.30656E+02  2.94147E+03
  4.72247E+03 -4.25828E+02  3.22190E+03  6.70814E+03 -3.84331E+02  3.58612E+03 -5.53908E+03  4.60830E+03
 -5.11690E+03 -4.17384E+03 -1.24164E+03 -4.81141E+03 -2.22666E+03 -4.79926E+03  5.74899E+03 -4.99800E+03
  5.03110E+03 -6.19906E+03  1.14260E+04 -2.62658E+03  8.46106E+03  7.45700E+03  2.89769E+02  8.54413E+03
 -3.10343E+03  8.11456E+03  2.22107E+03  3.97161E+03 -5.75398E+02  9.32380E+02  1.70773E+03 -4.51708E+03
 -2.11446E+03  2.63795E+03 -2.42411E+03 -6.39519E+02 -1.67568E+03  4.92456E+03 -6.01664E+03  6.77659E+02
 -7.36110E+03 -8.08349E+03 -1.88571E+03 -7.12483E+03  3.17950E+03 -3.04670E+03  3.91098E+03 -1.57739E+03
  7.02060E+03  2.00865E+03  4.31118E+02  2.58807E+03  7.22271E+02  5.07789E+03 -2.00128E+03  2.30221E+03
 -5.92182E+03 -2.53557E+02 -6.36827E+03 -3.79276E+03 -6.73294E+02 -8.83469E+03  5.11945E+03 -6.65105E+03
  6.32143E+03  1.32593E+03  3.72895E+03 -2.91971E+03  1.94263E+03  2.65243E+03  1.02259E+03  1.30819E+03
  1.28717E+03  3.27991E+03  4.76217E+03  5.93959E+03  4.42252E+03  1.91432E+03  3.50067E+03  2.58679E+03
  2.10587E+03  1.40009E+03 -3.87084E+03  7.32002E+03 -4.08321E+03  2.51268E+03 -5.25877E+03  2.48467E+03
 -6.66282E+03 -3.87236E+03 -3.96986E+02 -4.56336E+03  3.55355E+03 -3.48229E+03  2.70112E+03  1.22212E+02
  7.16871E+03  3.93331E+03 -4.95631E+02  6.00919E+03 -1.77576E+03  3.64822E+03 -3.61124E+03  4.01409E+03
 -3.28422E+03 -4.90119E+03  1.88722E+03  1.01119E+02  2.71371E+03 -2.17819E+03  2.97929E+03  1.51230E+03
  2.87424E+03  3.98107E+03 -1.37711E+03 -4.99291E+03  3.49225E+03  2.02495E+03  2.87189E+03  2.24079E+03
  8.73689E+02 -2.76471E+03  1.05619E+03 -2.82391E+02  2.99759E+03  3.09523E+03 -1.83319E+03  2.87755E+03
 -2.01433E+03  1.84823E+03 -4.93435E+03  1.33683E+03  3.67806E+03 -3.85505E+03 -1.20155E+03 -1.29582E+03
  4.39414E+03 -1.31091E+03 -9.33850E+01 -1.54698E+03  3.78240E+03  1.28723E+03  4.25623E+03  3.47181E+03
 -4.76179E+03  3.94443E+03 -1.32159E+03 -2.91519E+03 -2.72901E+03  3.37867E+03  4.17500E+03 -2.11927E+03
  1.67989E+03 -9.68521E+02  5.40012E+03  2.74867E+03  1.32038E+03  1.26968E+03  1.68907E+03  3.46378E+03
 -3.04006E+02 -2.14023E+03 -6.80937E+01  4.13215E+03  2.78442E+03 -4.75665E+03  2.14298E+03  6.15494E+03
  2.62852E+03 -1.90416E+03  4.64907E+03  2.53632E+03  1.66511E+03  5.97418E+03 -4.80793E+03  3.64570E+02
  1.57361E+03  2.04363E+03 -2.49056E+03 -3.02818E+03 -2.28012E+03 -3.22740E+03 -3.37305E+03  4.38827E+03
  5.70644E+03 -3.55135E+03  1.62116E+03  1.11503E+02  2.78068E+01 -2.10513E+02 -1.84737E+02  2.17375E+03
  1.04735E+03 -2.27597E+03  1.95920E+03  1.80239E+03  9.40735E+02  5.31983E+03  3.70756E+03 -3.79833E+03
 -1.03559E+03  2.86114E+03 -2.11191E+02  1.41174E+03 -4.67213E+03  3.35977E+03 -5.78454E+03  1.08534E+03
  1.94838E+03 -5.39382E+01 -3.83568E+03 -4.91396E+03  3.94299E+03 -2.82888E+03  5.67117E+03 -2.93418E+03
  4.24700E+03 -3.00127E+03  4.04198E+03  4.18071E+03  1.82023E+03  3.90756E+01 -2.80369E+02  4.44708E+02
 -2.12025E+03  1.84474E+03 -3.10969E+03  1.01732E+03  2.27554E+02  2.03242E+03  1.22415E+03 -1.38399E+03
  1.21098E+03  2.65066E+03 -3.72373E+02 -3.05443E+03  1.85248E+03 -1.71195E+03 -2.16173E+03 -1.30958E+03
 -7.39412E+02 -5.33962E+03 -2.68352E+03  3.89500E+03 -1.13578E+03  1.30396E+03  2.20528E+03  4.37107E+02
  1.37695E+03  2.67846E+03 -3.75010E+03  4.34094E+03 -7.37974E+03 -4.61436E+03 -1.83743E+03 -1.01899E+03
 -3.30042E+03 -4.45376E+03  3.27440E+02 -1.07336E+02 -4.45131E+02 -9.70383E+01  3.93579E+03 -9.86110E+02
  3.22185E+03  3.15513E+03  3.91806E+02 -7.61189E+02 -1.42997E+03  4.03315E+02  8.75050E+02  1.86839E+03
  5.23063E+03  8.42883E+02  1.14215E+03  2.30155E+03  5.04687E+02  1.14274E+03  9.55743E+00  3.27739E+03
 -3.04323E+03  2.31049E+03 -5.39513E+03  5.78085E+03 -3.57579E+03  1.14390E+02 -6.07446E+03  1.37928E+03
  2.50072E+03 -2.64228E+03  1.86271E+03  1.84502E+02  3.21232E+03  1.85420E+03  1.69813E+03 -1.13375E+03
 -1.39286E+03 -4.95520E+02 -6.57533E+02  3.22915E+03 -2.53382E+03 -1.82060E+03 -1.01196E+03  1.35794E+03
  2.27302E+03  1.78694E+03 -1.56970E+01  2.94861E+03  6.76324E+02  1.78436E+03 -2.12366E+03 -2.91702E+03
  3.54602E+02 -2.15215E+03 -3.06878E+03  7.95587E+02  9.26005E+02 -6.00655E+03  2.87057E+03  2.70876E+03
  1.74381E+03  7.74391E+02 -6.32259E+02  5.01800E+02  2.06433E+03 -1.23096E+03 -2.83567E+03 -4.16362E+03
