 $NMID ID='MM_0lb_SNR50_14hz_g40_51.RAW', FMTDAT='(8E13.5)'
 TRAMP=1., VOLUME=1. $END
  3.14805E+05  2.24344E+03  3.32692E+05  2.50746E+05  9.16891E+04  3.39614E+05 -1.30783E+05  2.48669E+05
 -1.90334E+05  8.64332E+04 -1.11721E+05 -3.40039E+04 -1.94663E+03 -4.97284E+04  5.26383E+04 -5.06726E+02
  3.69182E+04  5.32964E+04 -1.65294E+04  7.18225E+04 -6.02527E+04  6.61677E+04 -8.52028E+04  3.10329E+04
 -8.23265E+04 -1.04502E+04 -5.69254E+04 -4.52687E+04 -1.53570E+04 -6.87727E+04  2.61786E+04 -4.83433E+04
  3.85492E+04 -3.24411E+03  1.73195E+04  4.24994E+04 -3.59013E+04  4.91143E+04 -6.54211E+04 -2.45253E+02
 -5.52547E+04 -5.73033E+04 -5.44918E+03 -7.94053E+04  3.45521E+04 -5.33196E+04  4.84609E+04 -1.64615E+04
  4.15901E+04  1.39747E+04  3.32717E+04  2.96465E+04  1.81906E+04  2.45415E+04 -6.73408E+03  3.00517E+04
 -2.25917E+04  1.32041E+04 -1.82700E+04 -7.38681E+03  5.11021E+03 -1.11140E+04  2.00431E+04  1.43557E+04
  7.75772E+03  3.27907E+04 -3.10739E+04  3.45346E+04 -6.44195E+04 -2.07316E+03 -5.12214E+04 -4.48608E+04
 -8.36970E+03 -6.63679E+04  3.36202E+04 -4.63808E+04  5.43628E+04 -4.01193E+02  3.38313E+04  3.17743E+04
 -3.99129E+03  3.22897E+04 -3.16833E+04  1.31897E+04 -3.50545E+04 -5.12927E+03 -9.55057E+03 -8.76113E+03
 -7.41463E+03 -1.21290E+04 -4.72634E+03 -2.05383E+04  5.83094E+03 -2.34132E+04  1.57604E+04 -9.18458E+03
  1.13392E+04  5.78277E+03 -1.21007E+04  1.57992E+04 -2.45226E+04  2.70973E+03 -7.63376E+03 -3.18366E+04
  2.30672E+04 -3.97791E+04  4.40181E+04 -2.21433E+04  4.66357E+04  1.79745E+04  1.82919E+04  4.30299E+04
 -1.79424E+04  3.16817E+04 -2.11535E+04  1.12609E+03 -1.18302E+04 -3.01668E+04  2.07394E+04 -3.06331E+04
  3.90264E+04 -4.30696E+03  3.78115E+04  2.61845E+04  1.61715E+04  5.00938E+04 -7.49447E+03  5.55007E+04
 -2.79337E+04  3.05391E+04 -4.59205E+04  9.10649E+03 -3.98480E+04 -1.45188E+04 -2.37882E+04 -4.00902E+04
  7.72580E+03 -3.31428E+04  2.80879E+04 -1.84976E+04  3.31279E+04  7.21899E+03  4.60468E+03  1.99736E+04
 -1.70622E+04  4.90802E+03 -7.15391E+03 -5.22525E+03  4.28969E+03 -9.98536E+03  1.95573E+04  7.15740E+03
  7.55456E+03  2.46877E+04 -4.45696E+03  2.58024E+04 -2.50148E+04  9.99364E+03 -2.82254E+04 -7.07639E+03
 -1.56256E+04 -1.75528E+04 -8.79684E+03 -1.79333E+04  3.83426E+03 -1.51100E+04  2.03032E+04 -1.79188E+04
  2.51314E+04 -1.54393E+04  3.79812E+04 -5.48451E+02  2.20579E+04  1.59383E+04  7.48111E+02  3.37473E+04
 -1.44204E+04  3.00365E+04 -3.08621E+04  6.50264E+03 -1.98376E+04 -1.15971E+04 -2.26939E+03 -1.38048E+04
  4.94424E+03 -7.40148E+03 -6.10867E+03  1.45503E+03 -1.72766E+04  2.82581E+03 -2.13176E+04 -1.83889E+03
 -8.95530E+03 -1.84323E+04  4.50162E+03 -2.49249E+04  1.53694E+04 -2.18022E+04  1.61700E+04  4.15930E+03
  1.61819E+04  1.29037E+04 -3.61453E+02  1.75635E+04 -1.01153E+04  8.46107E+03 -1.74829E+04 -8.86846E+03
 -1.54789E+04 -1.34958E+04 -3.14321E+03 -2.65941E+04  1.14584E+04 -1.57236E+04  1.94754E+04 -7.59851E+03
  1.67474E+04  2.82387E+03  1.60389E+04  3.61238E+03  3.82706E+03  1.18757E+03  1.00193E+04 -5.24768E+02
  1.88602E+04  7.07088E+03  2.34169E+04  1.82660E+04  1.46938E+04  2.64082E+04 -7.62409E+03  3.60281E+04
 -2.20838E+04  2.36493E+04 -3.48472E+04  1.03286E+04 -3.34223E+04 -4.20161E+03 -2.69552E+04 -2.19298E+04
 -9.54122E+03 -3.05994E+04  1.18498E+04 -2.38027E+04  2.13915E+04 -1.39534E+04  1.60582E+04  5.78839E+03
  8.61523E+03  9.98553E+03 -6.19641E+03  1.38909E+04 -1.56326E+04  6.25878E+03 -1.44703E+04 -5.32667E+03
 -1.96589E+03 -1.80587E+04  5.48640E+03 -1.30626E+04  9.48918E+03 -1.22768E+03  5.42614E+03  7.46844E+03
 -9.26539E+02  6.45190E+02 -3.31361E+03 -9.45153E+03 -1.42503E+03 -1.32871E+04  1.09829E+04 -1.55306E+04
  1.56309E+04 -7.23581E+03  1.69952E+04  8.10502E+03  9.44029E+03  1.44848E+04  7.06589E+03  1.97542E+04
 -4.18969E+03  1.97121E+04 -1.29143E+04  1.37841E+04 -1.28060E+04  4.03236E+03 -1.05223E+04 -5.78233E+03
 -4.90218E+03 -7.17339E+03 -5.46814E+03  2.01685E+03  1.46161E+00  1.86172E+03 -4.85548E+03  7.22710E+03
 -9.92745E+03 -4.57593E+03 -1.37736E+04 -8.93514E+03  8.36500E+02 -1.32512E+04 -3.18313E+03 -7.66818E+03
  1.30165E+04 -4.84450E+03  8.29676E+03  1.59546E+03  1.54134E+03  1.48075E+03 -5.57877E+03 -4.43507E+03
 -2.80113E+03 -9.66551E+03 -8.70459E+02 -1.03781E+04  4.35759E+03 -1.20879E+04  1.45216E+04 -8.14955E+03
  1.73822E+04  4.77024E+03  1.37305E+04  1.15567E+04  2.35680E+03  9.53565E+03  6.05361E+02  1.23545E+04
 -1.24015E+04  1.87450E+02 -5.78029E+03 -1.85707E+03  4.39489E+03 -2.51965E+03  6.68214E+03  6.85939E+02
  8.45699E+03  6.38373E+03  1.87961E+03  7.04880E+03 -3.29713E+03  8.09253E+03 -1.62792E+04  2.57964E+03
 -7.93251E+03 -4.75055E+03  1.55429E+03 -1.09884E+04  5.27494E+03 -5.88219E+03  5.62391E+03 -4.16130E+03
  2.79570E+03  5.54379E+03 -3.42807E+03  5.76498E+03 -1.19349E+04 -1.94677E+03 -8.18960E+03 -2.16919E+03
 -3.01189E+03 -3.37172E+03  3.01989E+03 -1.20750E+04  7.12334E+03 -3.66163E+03  9.79406E+03  1.37709E+03
  8.71976E+03  7.08989E+03  2.55094E+03  8.82832E+03 -6.76312E+03  7.08736E+03 -6.75297E+03  5.13845E+03
 -5.72178E+03 -9.14144E+03 -2.02623E+03 -1.00142E+04  1.87091E+03 -1.05495E+04  5.08804E+03 -5.15008E+03
  1.70896E+03 -3.01078E+03  2.04163E+03  1.76338E+03 -4.89638E+03 -2.38397E+03  3.84085E+03  3.53385E+02
  1.02703E+04  1.22004E+03  4.62613E+03 -3.08631E+03  8.28098E+03  3.36288E+03  2.64629E+03  1.59194E+04
  2.35947E+03  2.20094E+04 -1.46917E+04  7.67711E+03 -6.80153E+03  2.92057E+03 -1.43603E+04 -6.67397E+03
 -6.96777E+03 -5.74284E+03  7.92091E+02 -7.20014E+03  5.12054E+03 -7.15579E+03  5.21578E+03 -1.00876E+03
  4.27730E+03 -4.06753E+03  2.40651E+03 -4.53108E+03  5.04786E+03 -1.41750E+02  8.78488E+03  3.78469E+03
  5.16251E+03  2.67512E+03  4.65827E+03  8.94223E+02 -2.23964E+03  7.89015E+03 -5.50020E+03  2.00436E+02
 -8.11128E+03 -2.56689E+03 -5.59174E+03 -3.50033E+03 -8.32483E+02 -1.36759E+04  6.53407E+03 -9.20176E+03
  1.13680E+04 -6.34299E+03  1.08147E+04  1.21725E+03  9.48486E+03  2.71624E+03  2.98601E+03  1.41866E+04
 -4.22055E+03  1.11172E+04 -8.67278E+03  4.71005E+03 -4.09963E+03 -1.89361E+03 -2.36608E+03 -1.29458E+03
 -3.36702E+03  4.54042E+02 -1.93705E+03  8.24795E+02 -4.28293E+02  8.36424E+03 -7.07597E+03  1.98823E+03
 -3.64817E+03 -2.84942E+03  1.97287E+03 -2.75332E+03  9.25146E+03 -5.23155E+03  6.78101E+03 -2.40261E+03
  9.52216E+03  3.08832E+03  2.81293E+03  8.14315E+03 -4.68339E+03  1.12667E+04 -7.44835E+03  1.06595E+03
 -6.50276E+03  3.31716E+03 -4.15372E+03 -6.13174E+03 -2.17368E+03 -7.49402E+03  2.34071E+03 -5.33915E+03
  6.84018E+03 -3.06429E+03  6.75284E+03 -2.43991E+03 -1.00574E+03  4.43099E+03  3.11188E+02 -4.16198E+01
 -9.01015E+02  4.00290E+03  1.16087E+03  1.69633E+03 -3.95657E+03  6.15712E+03  3.93231E+03  1.89952E+03
 -3.22579E+03  7.21670E+03 -5.84968E+03  4.48062E+03 -1.24709E+04  3.30635E+02 -1.16173E+04 -1.47165E+03
 -4.25661E+03 -9.78897E+03  1.90729E+03 -8.88816E+03  6.51501E+03 -3.39428E+03  6.97497E+03  2.68497E+03
  8.96011E+03  9.82882E+02 -1.67403E+03  3.16394E+03 -1.61312E+03  1.84267E+02 -5.62864E+03  1.10997E+03
 -1.52780E+03 -5.70820E+03  1.63050E+03  2.58062E+03  4.23221E+02  1.10548E+03  1.23848E+03  7.37111E+02
  4.59209E+03 -1.62442E+03 -1.43944E+02  8.46425E+02 -2.80507E+03  1.27698E+02  6.78438E+02 -2.32842E+03
 -2.76296E+03  2.16884E+03  1.69850E+03  5.74804E+02 -2.67641E+02  1.63407E+03 -1.55102E+03  9.69252E+03
  1.29765E+03  9.10838E+02 -4.26580E+03 -1.96110E+03 -2.60347E+03 -5.82265E+03 -3.24379E+03 -2.71349E+03
 -4.46899E+03 -4.31630E+03  3.16419E+03  5.52143E+02 -4.87541E+01  8.15492E+02 -1.26922E+03  3.20889E+03
  3.04599E+02 -2.93255E+03 -6.68291E+02 -1.83253E+03 -5.44073E+02 -4.09623E+03  1.42624E+03 -1.94565E+03
  8.98259E+01 -2.35998E+03  1.96114E+03  1.57518E+03  7.89400E+03 -1.30020E+03  5.90411E+03  2.10075E+03
 -5.16457E+02  2.06530E+03  6.05735E+02 -3.42222E+03  2.09804E+03  3.35756E+02  2.72544E+03 -9.87282E+02
  2.51580E+03  6.57697E+02  1.80828E+03  2.08539E+03  3.50045E+03  1.38226E+03 -1.60044E+03  2.11611E+03
 -1.85866E+03 -2.38065E+03 -1.80517E+03 -8.46457E+02 -2.43366E+03 -3.42234E+03  1.80656E+03 -1.77751E+03
  1.91051E+03 -2.53125E+03  4.23779E+03  2.04053E+03 -1.11934E+03  7.16015E+03 -1.13438E+01  1.17409E+03
 -7.65458E+02  4.33696E+03 -5.05221E+02  1.21854E+03  1.28253E+03 -5.01875E+03 -5.08713E+03  4.10044E+03
 -5.99936E+02 -1.77031E+03 -1.45747E+02  4.95761E+03 -7.99860E+03 -2.16442E+03 -3.95501E+03 -5.20098E+03
 -3.10266E+03 -1.04968E+04  4.48805E+03 -1.59920E+03  5.47234E+03 -3.60400E+03  7.04416E+03  1.07689E+02
  7.16838E+03 -9.90836E+01 -3.10491E+02  5.78052E+03 -3.88620E+03  5.42951E+03 -3.98529E+03  1.65919E+03
 -3.80944E+03 -1.26590E+03  7.59073E+02 -2.49465E+03 -5.85197E+02  4.21661E+03  2.02038E+03 -8.07878E+02
 -2.96126E+03 -2.49183E+03  1.18397E+03 -4.12126E+03  3.17262E+02  1.12488E+03 -2.49459E+03  9.73294E+02
  4.82267E+03  4.95324E+03  3.99760E+02  4.69358E+01 -4.44543E+02  7.84426E+03  1.81673E+00  4.15522E+03
 -2.04857E+03  5.86882E+03 -8.40822E+03  4.88237E+03 -5.31696E+03 -2.22073E+03 -5.78691E+03  1.58353E+02
 -4.09377E+03 -6.05953E+03 -8.50382E+02 -5.76877E+03  4.20030E+03 -4.39576E+03 -1.45808E+03 -2.69263E+03
  1.32984E+03  1.21840E+03 -1.59890E+03 -2.41900E+03 -5.32448E+03 -3.07317E+03  1.54980E+03  2.02823E+02
  1.26570E+03 -8.56610E+02  1.71092E+03  3.20180E+02  4.41246E+03  1.22912E+03  5.58633E+03  3.02514E+03
 -2.98399E+03  8.44125E+03 -5.13882E+03  7.77584E+02 -1.95108E+03 -2.14976E+03 -4.60996E+03 -2.18614E+03
 -1.80539E+03  5.53603E+02  1.61902E+02 -4.95469E+03  7.93907E+03  2.29963E+03 -4.66594E+03  3.33234E+03
  2.06725E+02  6.18038E+03 -1.82086E+03  4.61875E+03 -3.79421E+03 -3.15359E+03 -3.69558E+03  3.68675E+03
 -2.33942E+03 -1.09039E+03 -6.32715E+02 -2.39696E+03 -4.91992E+03  3.52303E+03 -2.57728E+03 -5.41165E+03
 -4.01862E+03  1.94018E+03  5.26994E+02 -1.57483E+02  2.98394E+03 -8.09507E+02 -1.59429E+03 -2.76131E+03
  1.75205E+03 -2.86647E+03  1.50516E+03  3.28659E+03  1.20922E+03  8.63863E+02 -1.59630E+03  3.22586E+03
