 $NMID ID='MM_0lb_SNR50_11hz_g45_41.RAW', FMTDAT='(8E13.5)'
 TRAMP=1., VOLUME=1. $END
  3.12614E+05  4.12359E+03  3.32781E+05  2.51382E+05  8.70920E+04  3.41194E+05 -1.32133E+05  2.50969E+05
 -1.92940E+05  8.02474E+04 -1.15836E+05 -3.42319E+04  9.13032E+02 -5.47625E+04  6.15217E+04  7.65641E+02
  3.52650E+04  5.74900E+04 -1.88506E+04  7.18466E+04 -5.49648E+04  5.84829E+04 -9.10711E+04  3.52205E+04
 -8.32626E+04 -1.56133E+04 -5.58344E+04 -5.27439E+04 -1.21122E+04 -7.50700E+04  2.72016E+04 -4.94138E+04
  4.00197E+04  7.06391E+03  1.18002E+04  4.68725E+04 -3.12258E+04  4.73308E+04 -6.71200E+04  1.99218E+03
 -5.67963E+04 -6.06882E+04 -1.01253E+04 -7.75259E+04  3.28233E+04 -5.76873E+04  4.67632E+04 -1.52895E+04
  4.20805E+04  1.27348E+04  3.36364E+04  2.70758E+04  1.58569E+04  2.90289E+04 -9.62518E+03  2.96015E+04
 -1.91938E+04  1.37028E+04 -2.03388E+04 -2.36879E+02  1.11621E+03 -8.75938E+03  2.12253E+04  7.05250E+03
  5.66474E+03  3.77509E+04 -3.03912E+04  3.47979E+04 -6.55458E+04  5.40681E+02 -6.02735E+04 -4.01981E+04
 -1.57234E+04 -6.17597E+04  3.90362E+04 -4.49611E+04  5.70068E+04 -5.42427E+02  3.84865E+04  2.34727E+04
 -7.16253E+03  4.03664E+04 -3.00464E+04  1.76877E+04 -2.92672E+04 -5.25265E+03 -1.64409E+04 -1.36655E+04
 -8.20401E+03 -1.77742E+04 -4.76703E+03 -2.01502E+04  8.64192E+03 -1.81134E+04  1.98193E+04 -1.33035E+04
  1.05656E+04  1.15331E+04 -1.41728E+04  1.39202E+04 -2.06193E+04 -5.33046E+03 -1.03593E+04 -3.59827E+04
  2.32998E+04 -4.57151E+04  4.82209E+04 -1.46272E+04  5.05139E+04  1.72581E+04  1.70990E+04  4.36604E+04
 -1.36424E+04  3.30199E+04 -2.29711E+04  6.14056E+03 -6.15300E+03 -3.40270E+04  2.30658E+04 -3.32597E+04
  4.44211E+04 -1.14949E+04  3.91357E+04  2.54792E+04  1.56792E+04  4.84095E+04 -2.92240E+03  5.43046E+04
 -3.06785E+04  2.99325E+04 -4.32137E+04  1.29147E+04 -4.28881E+04 -1.67392E+04 -2.74829E+04 -3.78411E+04
  7.42932E+03 -4.22765E+04  3.10355E+04 -1.16497E+04  3.24792E+04  1.28104E+04 -9.15729E+02  2.07273E+04
 -1.62346E+04  7.87832E+03 -1.01477E+04 -7.78113E+03  8.36064E+03 -1.05916E+04  9.94585E+03  6.26313E+03
  1.12414E+04  1.97228E+04 -4.74637E+03  2.64800E+04 -2.48004E+04  1.49745E+04 -2.52918E+04 -5.59512E+03
 -2.23032E+04 -1.49329E+04 -8.75964E+03 -2.07036E+04  5.08747E+03 -2.38096E+04  1.50500E+04 -1.62693E+04
  3.19238E+04 -1.97348E+04  3.93583E+04  3.28366E+03  2.70463E+04  2.30727E+04  6.62946E+03  4.05653E+04
 -2.74423E+04  2.98436E+04 -2.68223E+04  1.22165E+04 -1.80624E+04 -1.51700E+04 -1.70124E+03 -1.41729E+04
  6.09766E+03  1.36351E+03 -1.30631E+03  7.20142E+03 -1.40743E+04  3.75467E+03 -1.79128E+04 -1.41055E+04
 -9.53914E+03 -1.50881E+04  1.70565E+03 -2.36964E+04  1.25907E+04 -1.68497E+04  2.25929E+04 -3.42831E+03
  1.37526E+04  1.65308E+04 -1.83639E+03  2.33434E+04 -1.21968E+04  1.22550E+04 -2.43259E+04 -2.81487E+03
 -1.70345E+04 -1.46585E+04 -1.46656E+02 -3.00037E+04  1.77362E+04 -2.01984E+04  2.06956E+04 -1.10633E+04
  1.99901E+04  2.09238E+03  1.64478E+04  2.02462E+03  7.69878E+03  1.17632E+03  1.10377E+04  2.88612E+03
  2.48135E+04 -7.73745E+02  2.26876E+04  1.08199E+04  1.52970E+04  4.03941E+04  1.23887E+01  3.99870E+04
 -2.27933E+04  2.56060E+04 -3.74209E+04  1.96882E+04 -4.16345E+04 -4.07121E+03 -3.46711E+04 -2.48787E+04
 -9.18243E+03 -2.85132E+04  1.29512E+04 -3.06515E+04  2.11606E+04 -6.45715E+03  1.93546E+04  6.60999E+03
  7.49712E+03  1.64919E+04 -1.72333E+04  1.39915E+04 -1.74842E+04  4.39106E+02 -1.37316E+04 -1.07773E+04
  5.73897E+02 -1.89197E+04  6.09501E+03 -1.07857E+04  1.01114E+04  9.97362E+02  3.68590E+03  5.54055E+03
 -4.21097E+03  2.14429E+03 -1.34419E+04 -6.00556E+03  1.62266E+03 -1.88609E+04  1.56482E+04 -2.12225E+04
  1.45962E+04 -6.18100E+03  2.34597E+04 -2.93420E+03  2.16497E+04  1.08051E+04  8.70786E+03  2.31867E+04
 -9.81041E+03  2.75281E+04 -1.54445E+04  1.63755E+04 -1.94261E+04  5.78902E+02 -1.33478E+04 -7.71072E+03
 -8.17001E+03 -8.07320E+03 -6.66855E+03  3.94621E+03 -4.87972E+03  3.06809E+03 -7.62686E+03  8.59667E+03
 -5.21128E+03 -8.36472E+03 -9.97799E+03 -1.26124E+04 -6.70641E+03 -1.19184E+04  8.43891E+03 -8.36635E+03
  9.50418E+03 -7.93670E+03  1.12187E+04  6.98231E+03  4.83923E+02  9.10282E+03 -7.73067E+03  9.15637E+02
 -7.25938E+03 -4.06638E+03 -3.01016E+03 -1.02607E+04  7.82965E+03 -7.64085E+03  2.07971E+04 -5.97515E+03
  2.36298E+04  8.52075E+03  1.34238E+04  1.50592E+04  4.66138E+03  1.83852E+04 -1.16910E+04  1.46711E+04
 -1.28626E+04 -7.82857E+02 -1.07218E+04 -7.30799E+02  2.98979E+03 -2.03399E+03  1.30936E+04 -2.38608E+03
  2.04214E+03  5.80084E+03  2.70942E+03  1.12975E+04 -5.42499E+03  1.16328E+04 -1.31376E+04  2.93631E+03
 -5.92449E+03 -4.05417E+03 -1.76700E+03 -1.13508E+04  3.99061E+03 -7.23263E+03  1.10739E+04  3.23018E+03
  4.01272E+03  3.24174E+03 -7.53209E+03  1.51880E+04 -1.36868E+04  1.30172E+03 -1.20637E+04 -2.96128E+03
 -9.42442E+03 -1.17636E+04 -9.60861E+02 -1.95692E+04  8.37061E+03 -8.67171E+03  1.09868E+04  3.98266E+03
  1.10658E+04  1.25033E+04 -5.88770E+02  1.25202E+04 -1.21394E+04  5.63784E+03 -1.47020E+04  1.59117E+03
 -6.06068E+03 -3.93660E+03 -9.67776E+02 -1.04027E+04  9.46174E+03 -6.33454E+03  2.38490E+03 -2.45897E+03
  7.00144E+03  1.21588E+03 -5.08760E+03  6.73602E+02 -4.31331E+03 -1.02765E+03  2.07308E+03 -5.05889E+03
  5.81118E+03 -1.39210E+03  1.29430E+04  2.36017E+02  4.77338E+03  1.04412E+04  7.43641E+03  1.72321E+04
 -2.52802E+03  1.77249E+04 -1.44549E+04  1.67668E+04 -1.79262E+04  3.82818E+03 -1.17986E+04 -3.68706E+03
 -9.64414E+03 -1.27350E+04 -2.09594E+03 -1.16009E+04  1.28343E+03 -4.68995E+03  1.69629E+03 -4.44362E+03
  6.99925E+02  5.17752E+03  2.51283E+02 -2.09501E+03  1.25919E+03 -9.49288E+02  8.75544E+03 -7.49183E+03
  1.38531E+04  8.44266E+03  9.39714E+03  9.45387E+03 -5.23324E+03  6.87438E+03 -7.63011E+03  9.88105E+03
 -1.71247E+04 -2.66907E+03 -1.12547E+04 -9.51893E+03 -3.46160E+03 -1.27214E+04  7.77712E+03 -1.08288E+04
  1.26986E+04 -8.92698E+03  1.30480E+04  2.30883E+03  9.34509E+03  6.30319E+03  4.38013E+03  1.08118E+04
 -5.74874E+03  1.06963E+04 -8.11700E+03  1.16422E+02 -8.27517E+03  4.82505E+02 -4.79659E+03  9.72665E+02
 -2.38145E+03  2.45127E+03 -1.93854E+03  6.73969E+03 -8.44250E+03  4.51558E+03 -1.40188E+04 -7.96922E+02
 -9.21173E+03 -9.47698E+03  8.04886E+02 -1.18607E+04  3.52042E+03 -7.01783E+03  1.08049E+04  2.44639E+03
  9.88602E+03  1.07412E+03  2.11286E+03  1.03803E+04 -2.34389E+03  8.73784E+03 -9.81341E+03  2.83959E+03
 -1.34428E+04 -1.99119E+03 -7.16017E+03 -5.12854E+03  8.94924E+02 -3.89683E+03 -3.15794E+02 -3.85472E+03
  9.47127E+03  6.84901E+02  4.43216E+03  5.19600E+03  4.32324E+03  2.57076E+03  9.12834E+01  3.05685E+03
  1.51946E+03  7.82407E+02 -1.51434E+03  3.86547E+03  5.21508E+03  7.91927E+03  5.13489E+03  1.33086E+03
 -3.51663E+02  7.45756E+03 -6.02374E+03  7.78794E+03 -1.55645E+04  5.69620E+03 -1.20493E+04 -5.00900E+03
 -8.78671E+03 -9.49626E+03  2.88565E+03 -1.98630E+04  1.24712E+04 -3.95711E+03  7.10364E+03  6.88805E+02
  1.16807E+04 -2.12539E+03  5.70371E+02  5.67247E+03  3.20959E+03  5.99444E+03 -2.63584E+03  1.88470E+03
 -2.34556E+03 -6.74303E+03 -4.65264E+02 -5.64320E+03  6.27982E+03  1.73092E+02  4.84059E+02 -1.88361E+03
  1.75286E+03  2.73707E+03  4.47981E+03  4.97138E+03  3.57448E+02  1.59882E+03 -4.15884E+02  3.56173E+03
  2.03823E+03  7.59435E+02  4.87998E+03  7.87294E+03  5.92416E+03  3.29892E+03 -4.16661E+02  4.20116E+03
 -8.14082E+03  4.30813E+03 -7.39799E+03  4.22522E+03 -4.88217E+03 -3.10404E+03 -2.03266E+03 -4.04236E+03
 -5.69756E+01 -9.93415E+03  2.51809E+03  2.71958E+03  4.56669E+03  3.96844E+03 -4.52993E+03  6.30670E+03
 -1.09213E+03  1.28361E+03 -5.01955E+03  1.36149E+03  2.73360E+03 -8.62540E+03 -4.81011E+02 -8.98337E+03
  4.07649E+03 -1.08388E+03  2.83216E+03 -5.38292E+02  4.07486E+03  4.97901E+03  9.26911E+02  2.91906E+03
 -2.89854E+03  1.76112E+03 -9.08501E+03 -4.77050E+03  3.19457E+03 -5.05861E+03  8.41211E+03 -5.50701E+03
  4.72176E+03  1.74356E+03  1.39306E+04  2.23651E+03  1.94209E+03  6.09424E+03 -2.68226E+03  3.89721E+03
 -5.86642E+03  3.02462E+02 -1.01657E+04  3.67464E+03 -2.33797E+03 -2.59130E+03 -5.47369E+01 -9.11555E+03
  3.07117E+03 -3.58237E+03  7.10234E+02  3.76303E+03  4.40698E+03  5.31098E+03 -2.10137E+03  7.85304E+03
  1.00255E+03 -1.15920E+03  3.00704E+02 -2.20613E+03  5.91284E+02  5.09929E+03 -1.85420E+03  1.06441E+02
  2.59080E+02  3.41608E+03 -7.66080E+03  3.84627E+03 -9.32082E+03  3.72207E+01 -3.92570E+03  6.25054E+02
 -7.07473E+03 -4.01284E+03  1.99188E+03 -1.34150E+04  5.57197E+03 -4.70375E+03  8.51927E+03 -6.54151E+02
  8.01607E+03  3.43310E+02  4.13815E+03  1.77030E+03  4.31667E+01  8.19177E+03 -4.26620E+03  4.65513E+03
 -4.17675E+03  2.51236E+03  1.47446E+03  3.96244E+03  2.37581E+03 -4.06226E+02  3.34634E+03 -4.43850E+03
 -2.87266E+03  3.52297E+03 -5.12781E+03 -6.79775E+03 -2.00624E+01  1.87176E+03  7.38479E+02 -2.66782E+03
  8.39223E+02 -2.15856E+03  8.85514E+03  3.74058E+03  4.70305E+03  5.07090E+03  3.88901E+03  7.97327E+03
 -2.27249E+03  1.08926E+04 -8.21854E+03  4.74623E+03 -7.56054E+03 -8.58422E+02 -6.69006E+03 -4.69300E+03
 -5.56619E+03 -2.82630E+03  3.87509E+01 -8.38109E+03  2.25192E+03 -6.34602E+03  3.68595E+03 -1.00301E+03
  4.99906E+03 -1.65343E+03 -5.84675E+03  2.46332E+03 -1.05794E+03 -1.06704E+03 -6.95920E+03 -4.98736E+03
  5.25639E+03  1.72201E+03  4.22950E+03 -2.53135E+03  3.22675E+03  4.13087E+03  5.34482E+03  8.54183E+02
 -1.07820E+03  3.61130E+03 -1.19333E+03 -6.22281E+03  6.90004E+02 -3.26413E+03 -1.54879E+03 -7.83806E+03
  9.19178E+03 -4.31964E+02  5.39596E+03  4.62139E+03  6.89448E+03 -1.00700E+02  1.06509E+03  5.03862E+03
 -4.98949E+03  4.37765E+03 -1.90061E+02 -7.38555E+02 -7.25290E+03  5.59228E+01 -5.10938E+03  3.44793E+01
 -4.62573E+03  3.45025E+02  3.46044E+03 -1.92181E+02 -4.08488E+03  1.82471E+03 -5.33068E+02  8.67933E+02
 -3.57569E+03 -3.86958E+03 -4.91867E+03 -7.77807E+03  1.00571E+03 -6.58403E+03  7.05577E+03 -1.22063E+03
  8.62230E+03  5.86025E+03  6.03741E+03  3.55792E+03 -2.24405E+03  2.59223E+02 -5.83906E+03  7.81468E+03
