 $NMID ID='MM_0lb_SNR50_8hz_g40_48.RAW', FMTDAT='(8E13.5)'
 TRAMP=1., VOLUME=1. $END
  3.10710E+05 -4.39389E+02  3.40275E+05  2.51153E+05  9.23063E+04  3.37980E+05 -1.27627E+05  2.56808E+05
 -1.92670E+05  8.15936E+04 -1.07816E+05 -3.04038E+04  1.13777E+03 -5.15401E+04  5.63432E+04  4.87549E+03
  3.87557E+04  5.28091E+04 -1.49404E+04  7.89476E+04 -5.94778E+04  6.28152E+04 -9.09582E+04  2.97753E+04
 -8.24009E+04 -7.56718E+03 -5.83606E+04 -5.42818E+04 -1.67305E+04 -7.37822E+04  3.00973E+04 -4.67812E+04
  3.73695E+04  8.88622E+03  1.67080E+04  4.66842E+04 -3.54379E+04  4.89954E+04 -6.52827E+04 -1.61824E+03
 -5.30115E+04 -5.53169E+04 -6.60888E+03 -7.82422E+04  3.22711E+04 -5.72462E+04  5.05772E+04 -1.35911E+04
  3.98057E+04  6.47686E+03  3.70264E+04  3.42341E+04  2.26903E+04  3.28014E+04 -1.28848E+04  2.49709E+04
 -2.24973E+04  1.86341E+03 -1.17301E+04 -5.43975E+03  9.94651E+03 -6.80173E+03  2.47753E+04  2.25390E+04
  2.82624E+03  3.67356E+04 -3.44202E+04  3.22792E+04 -6.66028E+04  5.37848E+02 -6.29143E+04 -4.11382E+04
 -1.35088E+04 -7.13487E+04  3.88465E+04 -4.69115E+04  5.97237E+04 -3.49862E+03  3.62356E+04  3.64370E+04
 -1.10913E+02  3.56745E+04 -3.12828E+04  1.88208E+04 -3.44233E+04 -5.65905E+03 -2.03027E+04 -6.19832E+03
 -9.34454E+03 -1.53030E+04 -3.18738E+03 -1.95313E+04  1.11966E+04 -2.55893E+04  1.60075E+04 -9.54970E+03
  1.00743E+04  9.90072E+03 -5.41068E+03  8.05463E+03 -2.46858E+04 -5.51756E+03 -5.19535E+03 -3.70560E+04
  2.19916E+04 -4.73446E+04  5.56869E+04 -1.67189E+04  4.84439E+04  1.97965E+04  1.57372E+04  4.55778E+04
 -1.84830E+04  3.48449E+04 -2.96247E+04  1.33683E+03 -1.14001E+04 -2.98239E+04  2.80750E+04 -3.76355E+04
  4.75816E+04 -1.03820E+04  4.33206E+04  2.52979E+04  2.29072E+04  5.06597E+04 -6.90733E+03  5.47818E+04
 -3.89225E+04  3.97169E+04 -4.49643E+04  1.58553E+04 -5.30611E+04 -2.57177E+04 -2.65542E+04 -4.34443E+04
  7.05212E+03 -4.33913E+04  3.72148E+04 -1.45490E+04  3.08476E+04  1.36210E+04  6.67560E+03  2.15943E+04
 -1.56758E+04  6.12405E+03 -1.59820E+04 -1.04298E+04  1.02827E+04 -9.18035E+03  1.99811E+04  9.63581E+03
  1.38963E+04  2.47491E+04 -7.56582E+03  3.00249E+04 -2.77583E+04  1.90177E+04 -3.69089E+04 -1.65837E+03
 -2.06151E+04 -1.86323E+04 -1.03106E+04 -2.05701E+04  2.46891E+03 -2.41830E+04  1.89400E+04 -1.59903E+04
  2.66600E+04 -1.20660E+04  3.48761E+04  5.62158E+03  3.01322E+04  2.03645E+04  4.49266E+03  4.17445E+04
 -1.63531E+04  3.52791E+04 -3.71289E+04  7.71375E+03 -2.02162E+04 -9.50409E+03 -9.87581E+03 -8.84855E+03
  4.66508E+01  3.53724E+03 -7.93636E+03  3.33285E+02 -1.48224E+04  1.16420E+04 -1.62427E+04 -6.92824E+03
 -1.24302E+04 -2.35033E+04  1.48884E+03 -2.65305E+04  1.96609E+04 -1.80325E+04  2.22109E+04 -2.88292E+03
  1.86678E+04  1.35715E+04 -6.63177E+03  2.16662E+04 -1.71954E+04  6.60082E+03 -2.74906E+04 -9.07553E+03
 -1.42222E+04 -1.49861E+04 -1.02409E+03 -2.28794E+04  1.47698E+04 -2.38173E+04  2.26066E+04 -9.08432E+03
  2.03410E+04 -4.56193E+03  1.87842E+04  3.47941E+03  2.87778E+03  2.07938E+03  1.48369E+04 -7.42792E+02
  1.66182E+04  2.71935E+03  2.04214E+04  1.94246E+04  2.05810E+04  3.81661E+04  3.12260E+03  4.66846E+04
 -2.49048E+04  3.34043E+04 -4.02999E+04  2.40062E+04 -4.30035E+04 -5.48051E+03 -4.09793E+04 -2.36603E+04
 -1.64164E+04 -3.94668E+04  1.42712E+04 -3.06636E+04  2.57310E+04 -8.76944E+03  1.95082E+04  6.66105E+03
  6.17894E+03  2.76529E+04 -8.38540E+03  1.62165E+04 -2.08464E+04 -1.19733E+03 -1.32721E+04 -1.83181E+04
  1.01510E+03 -2.45516E+04  1.11910E+04 -1.38566E+04  1.24425E+04 -4.13698E+03  7.49195E+03  6.88605E+03
 -1.42352E+04  9.18463E+03 -4.82541E+03 -1.47068E+04 -5.13874E+03 -1.92959E+04  1.46627E+04 -2.20448E+04
  2.29209E+04 -1.47170E+04  2.53530E+04  2.95803E+03  2.49981E+04  2.71697E+04  1.32567E+04  2.32186E+04
 -3.32318E+03  3.71593E+04 -2.35950E+04  1.72039E+04 -2.35209E+04  7.04860E+03 -1.87332E+04 -1.03743E+04
 -5.62661E+03 -2.96924E+03 -3.13309E+03  4.45866E+03 -8.45952E+03  6.69452E+03 -3.63605E+03  4.84145E+03
 -1.83966E+04  2.48731E+03 -1.46502E+04 -2.08757E+04 -2.75882E+03 -1.76542E+04  9.17318E+03 -2.30134E+04
  2.26032E+04 -7.85148E+03  9.15843E+03  1.92824E+03  3.34642E+03  8.60790E+03 -9.91255E+03 -2.90547E+03
 -8.37530E+02 -1.20237E+04 -6.93005E+03 -1.46166E+04  1.83726E+04 -1.46273E+04  1.44731E+04 -1.02506E+04
  2.65321E+04 -5.00588E+02  1.42928E+04  1.32109E+04 -1.65830E+03  1.60644E+04 -1.00269E+04  1.93593E+04
 -1.53021E+04 -3.66213E+02 -1.11867E+04  2.09928E+03  5.38061E+02 -1.11855E+03  9.20852E+03  4.46907E+02
  3.51533E+03  1.20600E+04 -4.55857E+03  1.44211E+04 -9.02358E+03  5.31957E+03 -1.63397E+04  1.09170E+04
 -1.34561E+04 -5.61458E+03  1.01809E+02 -7.34047E+03  9.49670E+03 -2.87114E+03  8.93249E+03  1.76533E+03
 -2.72095E+03  1.30539E+04 -7.67140E+03  5.65041E+03 -7.88366E+03  8.42613E+03 -9.38980E+03 -6.77621E+03
 -1.02289E+04 -1.63076E+04  1.16294E+04 -2.05453E+04  1.38780E+04 -1.63820E+04  2.62133E+04  6.98961E+03
  1.30010E+04  1.80244E+04 -3.05622E+03  1.95281E+04 -1.01297E+04  1.03036E+04 -1.40552E+04 -1.53630E+03
 -9.65669E+03 -1.22041E+04 -7.66687E+02 -1.14774E+04  3.06868E+03 -5.05058E+03  1.11844E+04 -9.69836E+03
  7.46473E+03  6.51894E+02  1.25025E+03  1.21680E+03 -1.14204E+03 -5.00983E+03  3.45657E+03  3.17593E+03
  8.33680E+03 -9.48815E+03  1.34146E+04  1.92973E+03  1.07461E+04  1.30048E+04  4.96582E+03  2.14793E+04
 -6.74474E+03  2.94603E+04 -2.21374E+04  1.63827E+04 -2.27491E+04  2.54509E+03 -2.93699E+04 -1.00515E+04
 -1.90080E+03 -1.77078E+04  2.95779E+03 -1.15970E+04  4.34655E+03 -8.43577E+03  7.35720E+03 -1.60339E+03
 -5.19382E+03 -2.97208E+03  3.25254E+03 -9.26025E+03  2.47025E+03  7.45113E+03  4.22865E+03 -3.71206E+03
  5.91068E+03  5.19338E+03  3.53319E+02  1.14208E+04  1.29008E+03  5.64998E+03 -1.09429E+04  1.27081E+04
 -1.19748E+04 -9.88364E+02 -1.64012E+04 -1.03993E+04 -2.50659E+03 -1.27932E+04  4.20240E+03 -1.54627E+04
  2.22892E+04 -1.31860E+04  2.13381E+04  4.77717E+03  1.29360E+04  1.49888E+04  4.42970E+03  1.44007E+04
 -9.90484E+03  2.06258E+04 -9.34944E+03  8.70876E+03 -6.98150E+03 -2.75447E+03  3.34715E+03 -2.90712E+03
 -5.60735E+03  1.26320E+03  6.26982E+02  1.80200E+03 -4.16112E+03  7.28996E+03 -7.90935E+03 -1.78964E+03
 -9.78059E+03 -1.04141E+04 -3.68380E+02 -1.48466E+04  1.48210E+04 -1.71228E+04  7.99271E+03 -6.02859E+03
  1.70240E+04  3.04814E+03  3.79729E+03  1.87983E+04 -4.15294E+03  1.92053E+04 -1.65145E+04  1.29817E+04
 -9.94946E+03  6.22479E+03 -1.56324E+04 -1.61093E+04  6.88483E+02 -1.39582E+04  3.68301E+03 -1.24312E+04
  1.56545E+04  7.87502E+02  1.08508E+04  9.38508E+03  9.66613E+02  1.61956E+03 -3.01167E+03  1.24654E+03
 -2.10176E+03  2.87606E+03  3.02654E+03  3.29208E+03  6.46957E+03  3.32513E+03  2.05049E+02  7.53682E+03
 -1.27596E+04  1.65721E+04 -1.02291E+04  2.06873E+04 -2.31112E+04  5.42073E+03 -1.46947E+04 -1.00734E+04
 -1.40742E+04 -1.69514E+04  4.07145E+03 -1.39606E+04  7.11976E+03 -1.28674E+04  1.13596E+04 -6.69995E+02
  1.35786E+04  6.68972E+02 -2.36471E+03  8.21518E+03 -6.41475E+03 -2.24935E+03 -4.97653E+03 -4.19877E+03
 -1.04079E+02 -9.78169E+03  6.90608E+03 -7.76387E+03  8.25455E+03 -4.34365E+03  1.02921E+04  3.09025E+03
  6.55128E+03  6.88257E+03  3.39936E+03  2.63595E+03 -7.04446E+03 -1.94494E+03 -4.77907E+02  3.01031E+03
  4.27664E+03  4.52193E+03  1.29714E+04  3.84289E+03  4.72809E+03  1.15520E+04  1.29539E+03  8.72407E+03
 -4.94298E+03  8.30606E+03 -8.42888E+03 -2.84250E+03 -1.24708E+04 -3.96056E+03 -3.53814E+03  1.42170E+03
 -7.03759E+02 -1.12267E+04  6.53576E+03  3.90374E+03  4.42259E+03  5.78216E+03 -3.20524E+03  1.01608E+04
 -8.59680E+03  4.16323E+03  2.33725E+03 -1.28678E+03 -5.10534E+03 -5.58983E+03  4.31917E+03 -9.93402E+03
  4.84549E+03 -1.23290E+04  1.10379E+04  3.46114E+03  5.27599E+03  2.28999E+03 -3.20383E+03  6.94342E+03
 -5.82834E+03 -8.33471E+02 -6.28374E+03 -4.35768E+03  1.55511E+02 -1.25453E+04  1.15188E+04 -3.25493E+03
  5.00225E+03  6.00823E+03  8.90850E+03  5.42032E+03 -3.25090E+02  8.62724E+03 -7.19576E+02  5.67610E+03
 -8.20440E+03  5.06425E+03 -1.13476E+04 -6.14671E+03 -2.38699E+03 -7.41703E+03  7.09140E+02 -1.22016E+04
  8.72442E+03 -6.28688E+03  5.20506E+03  8.10927E+03 -2.68135E+03  9.92293E+03 -7.80743E+02  7.18342E+03
 -7.10514E+02  1.50756E+03 -5.69238E+03 -8.95129E+02  5.08733E+03 -4.84359E+03 -2.09931E+03  1.74121E+03
 -5.69630E+03  7.74493E+03 -7.98825E+03  6.27283E+03 -5.18115E+03 -6.07357E+02 -1.55524E+04 -1.25847E+04
 -4.17285E+03 -1.99363E+04  1.08549E+03 -2.16591E+04  1.07469E+04 -1.75476E+04  1.38806E+04 -4.69557E+03
  1.55254E+04  5.06380E+03  5.13551E+03  1.29704E+04  3.78436E+03  1.12081E+04 -5.06356E+03  1.23106E+04
 -7.40555E+03 -3.23634E+01 -3.69480E+03 -4.78115E+03 -2.53387E+03 -6.59708E+03 -8.60563E+03  8.44868E+03
 -4.57424E+03  4.64162E+03 -3.35842E+02  1.21026E+03  4.35522E+03 -7.92072E+03  5.93232E+02 -9.33291E+03
  5.77148E+03  3.37499E+02  9.31810E+03  9.18533E+02  1.15694E+04  9.85420E+03  7.29902E+03  1.52058E+04
 -3.84957E+03  1.55134E+04 -1.24192E+04  5.08721E+03 -1.46833E+04  8.14092E+03 -4.97349E+03 -9.41449E+03
 -6.59619E+03 -1.40030E+04  4.60526E+03 -9.05529E+03  7.37876E+03 -2.40179E+03  6.55058E+03 -3.90685E+03
  8.88364E+03  2.28916E+03 -1.46210E+02  3.75213E+03  4.95474E+03 -8.51401E+02 -2.16632E+03 -2.80956E+03
  1.32638E+04 -1.21442E+03  1.07303E+03 -2.77708E+03  3.75658E+03  8.19933E+03 -1.63698E+03  1.08363E+04
 -8.68059E+03  5.09292E+03 -3.47785E+03 -6.65397E+02 -9.31843E+03 -1.52835E+02  5.40644E+02 -3.61500E+03
  9.43258E+03 -1.22080E+04  7.40596E+03 -9.60498E+02  8.32824E+03 -8.52521E+02  1.28042E+04  8.54646E+03
  3.39784E+03  5.60185E+03 -5.03109E+03  1.70777E+03 -6.22547E+03 -4.21598E+03 -9.75865E+03 -1.67008E+03
 -1.50501E+03  4.08789E+03 -4.40187E+03  1.85351E+03  2.61813E+03  3.21854E+03 -3.84937E+03  9.07163E+02
 -4.22419E+03  1.42433E+03 -2.82626E+03 -1.31896E+04  3.26273E+03 -6.98001E+03  1.13426E+04 -1.24626E+04
  9.77349E+03 -2.65032E+03  9.39125E+03  6.98943E+03 -9.65949E+02  1.05056E+04 -9.79307E+03  4.87348E+03
