 $NMID ID='MM_0lb_SNR50_19hz_g60_89.RAW', FMTDAT='(8E13.5)'
 TRAMP=1., VOLUME=1. $END
  3.07765E+05  2.43297E+03  3.37815E+05  2.50641E+05  8.49938E+04  3.34112E+05 -1.29997E+05  2.51802E+05
 -1.89204E+05  8.50731E+04 -1.07683E+05 -3.19537E+04  1.60826E+03 -4.62382E+04  5.62231E+04  2.07163E+02
  3.47837E+04  5.47453E+04 -1.61898E+04  7.73048E+04 -6.32729E+04  6.60428E+04 -8.36302E+04  2.88859E+04
 -8.22619E+04 -1.22641E+04 -5.73518E+04 -5.38227E+04 -1.42013E+04 -6.85423E+04  2.91997E+04 -4.49971E+04
  3.49898E+04  6.43527E+03  1.39660E+04  5.03961E+04 -3.21506E+04  4.60610E+04 -6.53220E+04  1.77417E+03
 -5.20997E+04 -5.44143E+04 -3.62065E+03 -8.03548E+04  3.07044E+04 -5.12783E+04  4.92009E+04 -1.64873E+04
  4.46053E+04  1.32724E+04  3.73322E+04  2.79544E+04  1.60059E+04  3.34149E+04 -4.25871E+03  2.74975E+04
 -1.96740E+04  9.95844E+03 -1.86804E+04 -3.00326E+03  3.57428E+03 -9.33420E+03  2.10844E+04  8.78983E+03
  2.93777E+03  3.49366E+04 -3.04757E+04  3.34405E+04 -5.98022E+04  1.68464E+03 -5.87180E+04 -3.98694E+04
 -1.64782E+04 -6.34509E+04  3.77365E+04 -4.54761E+04  5.55885E+04  1.84180E+02  3.29739E+04  2.76167E+04
 -6.64738E+03  3.50392E+04 -2.77265E+04  1.39624E+04 -3.19716E+04 -7.94978E+03 -1.17584E+04 -1.27264E+04
 -2.12078E+03 -5.18063E+03 -2.66178E+03 -1.82086E+04  4.52784E+03 -2.04672E+04  1.59338E+04 -1.09464E+04
  1.09079E+04  3.55923E+03 -9.56170E+03  1.53345E+04 -1.70775E+04 -3.37628E+03 -1.39674E+04 -3.36513E+04
  1.78416E+04 -3.88277E+04  4.56627E+04 -1.96885E+04  4.15541E+04  1.99676E+04  1.08356E+04  4.49192E+04
 -1.49793E+04  3.62176E+04 -2.52397E+04  5.39492E+01 -9.53883E+03 -3.19308E+04  2.09074E+04 -3.35387E+04
  3.82841E+04 -5.94202E+03  2.79846E+04  2.22481E+04  1.97635E+04  4.53162E+04 -5.32998E+03  4.65684E+04
 -2.69075E+04  3.29893E+04 -3.85226E+04  1.12830E+04 -3.90707E+04 -1.64233E+04 -2.04163E+04 -3.44524E+04
  1.15215E+04 -3.18990E+04  2.59033E+04 -1.45605E+04  2.54274E+04  1.25918E+04  4.46000E+03  2.03729E+04
 -1.55658E+04  6.16700E+03 -5.78588E+03 -8.49171E+03  2.07454E+01 -9.06713E+03  1.53766E+04 -2.14191E+02
  1.28835E+04  1.90962E+04 -7.98928E+03  2.60679E+04 -2.06530E+04  5.50314E+03 -2.84810E+04 -5.20221E+03
 -1.97956E+04 -1.44286E+04 -6.10100E+03 -2.14317E+04  4.74720E+03 -1.37411E+04  1.17502E+04 -1.44403E+04
  2.23736E+04 -9.19287E+03  2.98326E+04 -8.75769E+02  2.09890E+04  1.77986E+04  3.94554E+03  2.98404E+04
 -1.18714E+04  3.26613E+04 -2.72431E+04  1.24347E+04 -2.64895E+04 -1.55328E+04 -1.69637E+03 -1.45685E+04
 -2.57549E+03 -5.40514E+03  7.53683E+01  5.86514E+03 -1.72679E+04  5.28830E+03 -1.19823E+04 -7.10586E+03
 -6.23695E+03 -1.81785E+04  3.60420E+03 -1.87786E+04  1.47068E+04 -1.36080E+04  1.38537E+04  3.48841E+02
  7.24381E+03  1.21278E+04 -3.31431E+03  1.83086E+04 -9.80459E+03  1.08573E+04 -1.81948E+04 -4.03408E+03
 -1.19550E+04 -1.63410E+04 -5.60492E+03 -1.89406E+04  6.82254E+03 -1.73071E+04  1.11928E+04 -4.93194E+03
  1.66222E+04 -3.00897E+01  1.30730E+04  2.71554E+03  2.06719E+03 -1.73415E+03  1.12894E+04 -1.35616E+03
  1.37047E+04  2.20990E+03  1.46686E+04  1.07790E+04  1.14710E+04  2.56088E+04 -2.19183E+02  2.81796E+04
 -1.97099E+04  2.30824E+04 -2.84316E+04  1.37730E+04 -2.85711E+04 -5.24494E+03 -2.28960E+04 -1.32588E+04
 -1.12149E+04 -2.26469E+04  9.61149E+03 -2.25135E+04  2.05274E+04 -1.48365E+04  1.12810E+04  5.53168E+03
  3.64235E+03  8.02451E+03 -4.81465E+03  1.08486E+04 -1.53320E+04  3.78744E+03 -1.07686E+04 -4.07628E+03
 -2.24303E+03 -1.23068E+04  6.08975E+03 -7.88795E+03  7.28166E+03  8.82903E+02  1.24817E+03  3.76478E+03
 -8.30875E+03  5.17603E+03 -6.68466E+03 -4.59233E+03 -2.58663E+03 -9.65944E+03  4.95982E+03 -1.00795E+04
  1.48017E+04 -5.64086E+03  1.36756E+04  3.68491E+03  1.02305E+04  1.37528E+04  2.15769E+03  1.62922E+04
 -3.14402E+03  1.17340E+04 -1.19741E+04  1.03811E+04 -1.03479E+04 -5.73123E+02 -1.21643E+04  2.23749E+03
 -2.34943E+03 -4.26400E+03 -3.50206E+03  1.50979E+03 -2.48553E+03  3.57001E+03 -1.57101E+03  2.32860E+03
 -8.34911E+03 -3.47324E+03 -8.41949E+03 -3.37534E+03 -1.53578E+03 -1.18466E+04  4.66064E+03 -7.13737E+03
  7.00615E+03 -1.93422E+03  6.17151E+03  6.78016E+03 -3.54109E+03  1.06752E+03 -1.03196E+03  2.41844E+02
 -4.61635E+03 -6.88407E+03 -2.32286E+03 -1.06097E+04  4.01558E+03 -4.67742E+03  1.46276E+04 -5.45966E+03
  1.28224E+04  1.04291E+03  7.77116E+03  8.72518E+03  1.70181E+03  7.62712E+03 -1.85443E+03  6.48142E+03
 -7.46157E+03  4.83777E+03 -5.20545E+01 -2.43083E+03  2.52192E+03 -4.66464E+03  6.22852E+03  1.59016E+02
  6.80011E+03  1.50124E+02 -3.19147E+02  6.06686E+03 -5.57756E+03  6.15637E+03 -6.97636E+03  6.39583E+02
 -7.65925E+03 -5.37715E+03  2.84648E+02 -5.73583E+03  3.22764E+03 -4.33249E+03  6.14679E+03 -1.73492E+03
 -2.33516E+02  6.10918E+03 -4.83915E+03  1.72037E+03 -4.14528E+03  2.59484E+03 -3.73932E+03 -1.11138E+03
 -5.37224E+03 -4.22309E+03  3.71156E+03 -3.31236E+03  1.08105E+04 -9.54181E+02  7.92525E+03 -1.88210E+03
  6.70687E+03  3.95487E+03  1.00404E+03  6.61594E+03 -1.31575E+03  8.14518E+03 -7.68855E+03 -3.07612E+00
 -8.40516E+03 -6.34213E+03 -4.12541E+03 -5.13405E+03 -4.67184E+02 -6.95824E+03  5.29694E+03 -1.99775E+03
  2.76713E+03 -2.82888E+03  4.87288E+03 -2.18000E+03 -4.17950E+03 -6.19975E+03  5.72095E+02 -2.85475E+03
  4.29660E+03  9.79017E+02  4.68995E+03 -1.84832E+03  6.72564E+03  8.77806E+02  9.28690E+03  5.69812E+03
 -1.58649E+03  5.89842E+03 -9.71140E+03  4.31228E+03 -6.80077E+03  6.39086E+03 -5.73270E+03  1.40037E+03
 -4.09838E+03 -4.47676E+03  1.50795E+02 -6.34167E+03  4.91868E+03 -2.00665E+03  3.23485E+03 -3.64548E+02
 -9.60425E+02 -1.72774E+03 -8.07932E+02 -5.46326E+02  2.54292E+02 -3.70129E+02 -4.64480E+02  3.67502E+03
  2.36989E+03  5.66833E+02 -1.32993E+03  1.04219E+03 -1.79588E+03  4.88211E+03 -3.81800E+03  3.80933E+03
 -6.74538E+03 -1.51252E+03  8.69759E+02 -6.72558E+03  3.07022E+03 -3.83699E+03  1.38856E+03 -1.91536E+03
  4.47221E+03 -4.41238E+03  1.21266E+03  7.89708E+02  6.10875E+03  7.32458E+03  5.36158E+02  5.25655E+03
 -2.05217E+03  7.95091E+03 -2.34254E+03  5.46851E+03 -1.59507E+03 -9.73517E+02 -1.92674E+03  1.01041E+03
 -4.73249E+03 -4.38866E+00  1.69457E+02  1.89937E+03 -5.65406E+03  9.70313E+02 -3.08052E+03  7.53438E+02
 -4.40403E+03 -4.80392E+03 -1.84709E+03 -3.93607E+03  1.09605E+03 -2.29690E+03  2.43422E+03 -3.58970E+03
  1.20468E+03  1.27351E+02  2.17223E+03  4.37234E+03 -2.18391E+03  5.16644E+03 -2.09376E+03  6.20497E+03
 -1.53188E+03  1.57218E+03 -4.66556E+03 -1.00807E+03  7.09037E+01  1.26267E+02  6.04201E+03 -4.36714E+03
  6.91467E+03 -1.60741E+03  7.92419E+02 -9.09310E+02 -4.53822E+02 -9.81555E+02  1.01805E+03 -2.93013E+03
  6.25222E+03  1.86484E+03  3.18768E+03  1.71942E+03 -2.56201E+03  4.75674E+02  4.61091E+03  1.62952E+03
  8.01272E+02 -7.53590E+01 -4.15981E+02  7.98507E+03 -6.00991E+03 -2.48401E+02 -4.58999E+03 -3.60446E+03
 -3.97853E+02 -6.58713E+03  2.05485E+02 -4.80571E+03  5.49759E+03 -2.03835E+03  8.59524E+03  5.39933E+02
  1.96199E+03  2.18964E+03  4.72015E+03  3.00956E+03  1.14318E+03  4.93435E+02  2.67461E+03  6.90721E+02
 -1.47123E+02 -2.75612E+03  1.78367E+03 -1.49550E+03  3.96624E+03 -1.36678E+03  4.65072E+03  2.59287E+03
 -1.39027E+03  1.63048E+03 -2.56745E+03 -2.74714E+03 -1.11342E+03 -2.66180E+01  4.14948E+03 -2.30749E+03
 -2.19615E+02 -2.86083E+03  4.53197E+03  6.13470E+02 -1.82704E+03  2.38609E+03  1.57416E+03  4.39385E+03
 -1.78947E+03  2.15453E+03 -2.42459E+03 -2.15310E+03 -5.15105E+03 -3.09989E+03 -2.97484E+03 -7.45979E+02
  3.89186E+03 -4.64304E+03  3.31287E+03 -4.86706E+01 -3.20831E+03 -1.79305E+03 -2.80288E+03  1.88714E+03
 -1.99191E+03  3.66859E+03  3.02734E+03 -9.70649E+02 -4.71327E+03 -1.81551E+03 -1.82300E+03 -2.83931E+03
  2.09081E+03  2.44985E+03  4.33209E+02  1.06662E+03 -1.70374E+03 -2.11175E+03  3.03236E+03  3.27549E+03
 -1.82176E+02 -6.38972E+02  3.25843E+03  7.10366E+02  7.83258E+02 -1.37484E+03  1.15780E+03 -4.24284E+03
  1.96021E+03 -2.69549E+03  2.03034E+03 -1.57013E+03  3.82280E+03  2.21564E+03  3.58390E+03  8.80913E+03
 -4.24623E+03 -5.76899E+02 -2.96049E+03  7.01487E+02 -1.41994E+03 -1.66739E+03  4.15187E+03 -3.33087E+03
  2.52890E+03  1.61312E+02 -5.02717E+01 -3.87152E+03 -1.31713E+03  2.65203E+03  2.86837E+03 -1.79957E+03
 -2.97192E+03 -3.95626E+02  1.12270E+03  4.24196E+02 -2.32512E+03  1.90885E+03 -3.12120E+03  2.26750E+02
  1.79347E+02  1.04840E+03 -2.15026E+03  3.52249E+03  4.66232E+01  1.21611E+03 -2.41089E+03 -3.75004E+03
  2.54475E+03 -2.60915E+02  2.16077E+03 -3.92353E+02  4.70898E+03 -1.02558E+03 -1.72310E+03  1.39699E+03
  1.58954E+03  2.62894E+03  1.15388E+03 -5.19519E+01  1.91494E+03 -2.18049E+03 -3.66328E+02 -1.34678E+03
 -4.00651E+03  2.87842E+02 -2.27472E+03 -5.75061E+03  1.94282E+03  2.42675E+03 -8.66221E+02  1.40988E+02
 -2.87376E+03 -2.86960E+03  7.32555E+01  2.16459E+02 -1.13054E+02  2.19201E+02 -3.09573E+03  2.82144E+03
  3.21838E+02 -2.23318E+02  6.54813E+02 -3.17936E+03  3.83676E+03  3.61591E+03 -1.18691E+03 -2.04693E+03
 -2.45774E+03  1.02698E+03 -2.54544E+03  9.69499E+02 -1.33944E+03  3.47552E+03  3.18510E+02 -1.26688E+03
  1.77339E+03 -2.34975E+03  1.15892E+03 -1.24406E+03  5.97684E+03  1.10643E+02 -1.25626E+03  1.37084E+03
  2.35594E+01  9.89043E+02  1.29269E+03  4.56362E+03 -2.72029E+03  3.06686E+01  3.10399E+03 -6.50910E+02
  6.26849E+02  3.23771E+03 -2.35169E+01 -1.63240E+03 -1.05475E+03 -2.98355E+03  5.31730E+03  2.84380E+03
  9.81276E+02 -9.51538E+01 -1.21816E+03 -2.59814E+02 -5.59677E+02  7.71864E+02  2.21267E+03 -2.62894E+03
  5.19234E+02 -1.02141E+03  9.01413E+02  9.33329E+02  4.28146E+03  2.04585E+03 -2.34796E+03  2.49735E+03
  2.52519E+03 -1.36773E+03 -2.53775E+03 -2.32484E+03 -3.00901E+03  4.45218E+03 -1.89470E+03 -3.18039E+03
  3.93640E+03  2.66743E+03 -5.96624E+03  8.13891E+02 -5.16920E+03 -2.26627E+03 -2.24829E+02 -1.36854E+03
 -2.66069E+03  4.77117E+03 -4.55882E+03  1.43169E+02  2.30241E+03 -3.08331E+03 -1.32867E+03 -3.36551E+03
  3.69272E+03 -2.00138E+03 -2.53807E+02  1.76837E+03  2.68652E+03  1.21803E+03 -4.94370E+03 -1.26780E+03
