 $NMID ID='MM_0lb_SNR50_13hz_g40_69.RAW', FMTDAT='(8E13.5)'
 TRAMP=1., VOLUME=1. $END
  3.05936E+05 -6.11613E+02  3.36037E+05  2.50494E+05  8.60135E+04  3.39356E+05 -1.35947E+05  2.51699E+05
 -1.93164E+05  8.22923E+04 -1.13596E+05 -2.85086E+04  1.14302E+03 -5.24140E+04  5.38946E+04  2.82476E+03
  3.37821E+04  5.62881E+04 -2.26654E+04  7.75429E+04 -5.90915E+04  6.52761E+04 -8.33553E+04  3.36643E+04
 -7.74872E+04 -1.48833E+04 -5.82928E+04 -5.49007E+04 -1.64979E+04 -6.73808E+04  2.02823E+04 -4.33221E+04
  3.74366E+04  5.31704E+03  1.24957E+04  4.75414E+04 -3.49792E+04  4.91121E+04 -6.76674E+04  6.44908E+02
 -5.09592E+04 -5.49956E+04 -7.38905E+03 -7.54397E+04  3.21887E+04 -5.35679E+04  4.92602E+04 -1.48240E+04
  4.28618E+04  6.18698E+03  2.95346E+04  2.42612E+04  1.52469E+04  3.08742E+04 -1.07206E+04  2.90120E+04
 -1.95046E+04  1.39555E+04 -1.92298E+04 -6.95929E+03  1.01900E+04 -4.69487E+03  2.11887E+04  1.45870E+04
  6.42701E+03  3.40787E+04 -3.37227E+04  3.11533E+04 -6.16573E+04  1.05659E+03 -5.51406E+04 -4.48979E+04
 -1.29811E+04 -6.79646E+04  4.06540E+04 -4.21664E+04  5.66144E+04 -1.84034E+03  3.05644E+04  3.55338E+04
 -8.54081E+03  3.71825E+04 -2.97649E+04  1.58191E+04 -2.69642E+04 -3.96537E+03 -1.92733E+04 -1.02661E+04
 -1.12619E+04 -1.38350E+04 -1.94739E+03 -1.82500E+04  3.25144E+03 -2.20685E+04  1.84692E+04 -1.29634E+04
  1.30442E+04  4.77616E+03 -5.63761E+03  1.55972E+04 -1.70874E+04  7.02899E+02 -1.06765E+04 -3.63528E+04
  2.47943E+04 -4.45327E+04  4.44176E+04 -1.01446E+04  4.67752E+04  2.03798E+04  1.76875E+04  4.52109E+04
 -1.87740E+04  3.45077E+04 -2.20600E+04  3.10808E+03 -1.49823E+04 -2.58697E+04  2.01561E+04 -3.12664E+04
  4.24398E+04 -8.50131E+03  3.88702E+04  2.64820E+04  1.89809E+04  5.22118E+04 -6.13498E+03  5.39026E+04
 -3.23903E+04  3.46550E+04 -4.18369E+04  1.65706E+04 -4.65834E+04 -2.03363E+04 -2.25747E+04 -3.66889E+04
  7.47481E+03 -4.13039E+04  2.86002E+04 -1.20882E+04  3.17386E+04  1.33408E+04  6.36263E+03  1.95529E+04
 -1.39297E+04  8.40890E+03 -1.02507E+04 -8.13880E+03 -1.03533E+03 -1.19294E+04  2.06670E+04  5.57420E+03
  1.24115E+04  2.31452E+04 -1.07293E+04  2.08338E+04 -2.01780E+04  1.20686E+04 -2.86612E+04 -2.19398E+03
 -2.11645E+04 -1.90945E+04 -6.52692E+03 -1.65235E+04  4.47993E+03 -2.15539E+04  1.29589E+04 -2.13207E+04
  2.57387E+04 -1.83934E+04  3.43798E+04  3.73063E+03  2.58724E+04  1.95783E+04  5.02576E+03  3.78650E+04
 -1.73531E+04  3.07982E+04 -2.97908E+04  1.11660E+04 -2.14862E+04 -1.33481E+04 -6.66740E+03 -1.27325E+04
  4.55923E+03 -1.64953E+03 -2.15185E+03  5.97751E+03 -2.75916E+04  6.25314E+03 -1.33291E+04 -1.14706E+04
 -1.30324E+04 -1.47211E+04  2.97674E+02 -1.96664E+04  1.34610E+04 -1.65265E+04  1.69687E+04 -3.35392E+03
  1.21040E+04  1.15171E+04 -2.88889E+03  2.09787E+04 -8.65118E+03  1.28357E+04 -1.75298E+04 -2.88064E+03
 -1.04202E+04 -1.93124E+04  2.58864E+03 -2.87723E+04  1.88614E+03 -2.04267E+04  2.20828E+04 -1.27061E+04
  1.90577E+04 -3.04630E+02  9.33158E+03  4.21703E+02  1.04547E+04  1.01293E+03  9.78780E+03  2.30707E+03
  1.75492E+04  2.50833E+03  2.28487E+04  1.42581E+04  1.31335E+04  2.45706E+04 -5.07459E+03  3.31932E+04
 -1.98123E+04  2.72629E+04 -3.25458E+04  1.49363E+04 -3.60654E+04  8.01372E+02 -2.73748E+04 -2.13589E+04
 -5.51386E+03 -2.62136E+04  5.47945E+03 -2.43078E+04  2.26630E+04 -1.16520E+04  2.26021E+04  3.43271E+03
  3.76808E+03  9.55532E+03 -9.85634E+03  1.36635E+04 -1.93427E+04  1.18187E+03 -1.33857E+04 -9.68527E+03
 -6.50417E+02 -1.89601E+04  7.15843E+03 -1.14398E+04  6.51858E+03 -7.26629E+02  2.66775E+03  4.10782E+03
 -6.75648E+03  2.65377E+03 -4.74014E+03 -7.53092E+03 -1.31996E+03 -1.50243E+04  7.06027E+03 -1.31481E+04
  1.92722E+04 -1.29345E+04  1.34358E+04  3.71252E+03  1.34632E+04  1.17755E+04  9.30832E+03  1.95219E+04
 -3.36274E+03  2.14201E+04 -1.51356E+04  1.38362E+04 -1.93522E+04  4.91979E+03 -1.08838E+04 -3.48983E+03
 -6.15664E+03 -5.07130E+03  2.24898E+02  2.94540E+03 -4.25349E+03 -2.03300E+01 -8.55184E+03  6.96459E+03
 -7.61265E+03 -1.06665E+03 -1.47471E+04 -8.67162E+03 -3.47697E+02 -1.76081E+04  3.01423E+03 -9.87855E+03
  4.92412E+03 -1.12062E+03  4.76248E+03  6.38464E+03  1.87797E+03  3.52066E+03 -7.70091E+01  1.65890E+03
 -5.14617E+03 -6.54027E+03 -2.73446E+03 -8.49906E+03  3.11740E+03 -1.44843E+04  1.35383E+04 -6.89811E+03
  1.50167E+04  1.92461E+03  1.05023E+04  5.93928E+03  2.51830E+03  1.10662E+04 -5.74264E+03  1.05929E+04
 -1.09267E+04  4.83421E+03 -5.22409E+03 -1.71100E+03  3.67061E+03 -5.45586E+02  8.94164E+03 -2.74652E+03
  6.68447E+03  5.40583E+03 -3.57761E+03  8.64735E+03 -6.93342E+03  8.95345E+03 -1.12201E+04  9.60755E+02
 -9.22425E+03 -9.55713E+02  2.19042E+03 -1.10509E+04  2.01327E+03 -5.10742E+03  4.51470E+03  3.86312E+03
  9.51678E+02  6.10494E+03 -3.16686E+03  2.30157E+03 -9.32053E+03  2.42993E+03 -1.49814E+04 -3.40523E+03
 -6.34060E+03 -1.19829E+04  3.21253E+03 -9.67134E+03  1.43074E+04 -6.36332E+03  6.04889E+03 -9.15085E+02
  1.17187E+04  1.02503E+04 -6.60291E+03  1.50280E+04 -1.39095E+04  4.63102E+03 -8.72869E+03 -1.41253E+03
 -8.54836E+03 -8.39311E+03 -7.98966E+03 -6.13476E+03  1.27645E+03 -8.68620E+02  4.88497E+03 -4.28414E+03
  9.00209E+03  1.85479E+03 -8.15532E+02  2.01023E+03  1.98139E+03 -4.37581E+03  8.69042E+02 -5.88050E+03
  9.11949E+03 -3.39558E+03  1.01663E+04  2.83103E+03  5.69907E+03  1.60006E+03  7.93653E+03  1.18261E+04
 -3.69574E+03  1.58685E+04 -1.33749E+04  1.26443E+04 -1.93585E+04 -7.92624E+02 -1.01327E+04 -5.69495E+03
 -4.80895E+03 -1.34827E+04 -3.39713E+02 -9.86347E+03  4.27672E+03 -6.97884E+03 -2.57643E+03 -5.77099E+03
  5.51947E+02  1.46810E+03 -2.67174E+03 -3.44557E+03  4.54112E+03 -2.07562E+03  7.29630E+03 -1.90718E+03
  8.96395E+03 -1.32291E+03  1.89470E+03  7.78167E+03 -1.93139E+03  7.61860E+03 -8.53306E+03  7.21264E+03
 -4.40807E+03 -2.63202E+02 -1.23181E+03 -8.04953E+03 -3.11822E+02 -7.87518E+03  1.61552E+03 -9.22001E+03
  1.09508E+04 -4.55910E+03  1.01240E+04  2.82487E+03  7.37582E+03  6.75858E+03  5.41216E+03  1.14861E+04
 -4.31980E+03  6.91019E+03 -1.22061E+03  8.81969E+03 -3.11716E+03 -3.22473E+03  2.52063E+01  2.65758E+03
 -3.61304E+03 -2.90655E+03 -4.67256E+03  2.05211E+03 -4.87617E+03  1.17942E+03 -1.11605E+04  3.96611E+03
 -1.84946E+03 -1.02985E+04 -4.50593E+01 -8.22479E+03  2.39869E+03 -1.14675E+04  5.46784E+03 -4.00719E+03
  7.42218E+03  8.91212E+03  8.62647E+03  7.00119E+03  2.39986E+03  7.02971E+03 -4.47891E+03  9.32410E+03
 -7.45712E+03  3.04086E+03 -4.82797E+03 -9.23709E+03  2.00588E+02 -4.76163E+03  3.76798E+03 -6.78057E+03
  7.05899E+03  2.54226E+02  4.86078E+03 -1.54628E+03  2.44357E+03 -4.77332E+02  4.49074E+03 -3.42493E+03
  8.11869E+02 -3.88032E+03  6.95933E+03  1.76592E+03  6.49287E+03  4.30072E+03  2.45360E+03  3.04564E+03
 -4.76301E+03  9.61813E+02 -9.85503E+03  4.25998E+03 -1.04825E+04  2.84888E+03 -8.15042E+03  4.82492E+01
 -7.10588E+03 -7.55149E+03  2.88178E+03 -8.59388E+03  4.74998E+03 -2.95562E+03  5.66557E+03 -8.06703E+01
  3.71247E+03 -2.34840E+02  6.21454E+02  3.73821E+03 -2.16896E+03  3.61396E+03 -5.43443E+03 -5.57603E+03
 -5.06523E+03 -2.03146E+03  6.71984E+02  4.64555E+02 -1.43355E+03 -3.35213E+03 -7.83391E+01  1.47879E+03
  3.10855E+03  7.04364E+03 -3.88381E+03  3.78962E+02  2.23841E+03  2.95529E+03  4.30926E+03  5.01186E+02
 -4.59023E+02  3.53396E+03  3.71686E+03  1.15402E+03  1.20211E+03  4.37042E+03 -3.56042E+03  2.66400E+03
  2.47786E+02  4.39173E+03  5.46160E+02 -3.17864E+03 -1.89917E+03  6.05361E+00  7.29057E+01 -6.90529E+03
 -2.57078E+03 -1.12642E+03  1.55164E+03 -6.48880E+03 -1.53666E+03 -9.23296E+02  8.52968E+02  2.09078E+03
 -3.57476E+03  3.22725E+03 -1.82869E+03 -3.85050E+03 -5.45374E+03 -5.56496E+03  2.47593E+03 -7.57769E+02
  5.24838E+02  1.09877E+03  3.63132E+03  4.24529E+03  4.35955E+03  1.46863E+03 -1.37881E+03  3.31808E+03
 -1.21076E+03  2.35067E+02 -1.42045E+03  2.38120E+03  8.20718E+01  1.04488E+03 -3.79444E+02 -5.84942E+02
  1.41988E+03  9.31685E+02  1.39003E+04  4.47666E+03  3.39316E+03  4.74145E+03 -9.75723E+02  9.14637E+03
 -6.11345E+03 -3.47262E+03 -4.45604E+03  1.10378E+03 -6.24734E+03 -2.24734E+03 -6.99883E+03 -5.00518E+03
  5.75942E+03 -6.42813E+01  1.21048E+03 -1.17843E+03 -7.17438E+02  3.68438E+03  2.81002E+03  1.67750E+03
 -3.79492E+03  1.99275E+03  1.66156E+03  9.14548E+01  5.03217E+03  5.59954E+03  2.21587E+02  7.39727E+03
 -5.01236E+03  3.77945E+03 -1.81407E+03  3.71049E+03 -5.66343E+03  7.20170E+02 -4.97925E+03 -4.65412E+03
 -2.47158E+03 -5.32889E+03  6.54077E+03 -4.46245E+03  5.01342E+03 -8.05854E+03  6.43080E+03 -5.46948E+03
  6.46653E+03  4.47930E+03  6.37881E+03  5.24295E+03 -2.15624E+03  6.44327E+03 -4.36158E+03  3.00550E+03
 -5.24454E+03  5.01585E+03 -2.19416E+03 -2.83540E+03 -2.61426E+02 -1.88967E+03  6.32225E+03  1.78457E+03
 -9.01361E+02 -1.92783E+03  1.11651E+03 -2.54885E+02 -1.09423E+01  3.60694E+02 -4.04577E+02 -8.61610E+02
  6.97421E+03 -6.85701E+03  5.67054E+03  1.60561E+03 -1.30056E+02  3.27422E+03  4.17325E+03  5.40738E+03
 -2.63794E+03  5.79834E+03 -4.79328E+03  8.52305E+03 -3.08575E+03  1.18839E+03 -3.96016E+03 -1.82348E+03
  1.94747E+03 -7.96427E+03  2.99923E+03 -4.40217E+03  3.51035E+02 -7.54768E+02  7.81304E+02 -1.10613E+03
  3.84240E+03  2.39122E+03  1.65141E+03 -1.50586E+03  3.26994E+03  1.01922E+03  5.24353E+03 -1.84592E+03
  7.86273E+03  2.36006E+03  2.45988E+03  1.20581E+03 -2.45836E+03 -1.66891E+03  2.65700E+03  5.50906E+02
 -6.61637E+02  1.42089E+03 -3.04631E+03 -6.57192E+02 -4.60360E+03 -2.08077E+03 -3.98516E+03 -7.82315E+03
 -5.73344E+02 -2.08333E+03  2.66214E+03 -1.92515E+03  1.13455E+03  4.68170E+03  7.02014E+03  2.90059E+03
  2.71674E+03  3.34738E+03 -5.09176E+03  5.09822E+02 -6.77277E+03  4.49521E+03  2.67680E+03 -1.88581E+03
  2.48530E+03  4.39098E+03  2.48517E+03  4.74907E+02 -2.37102E+03  4.37023E+03 -5.02229E+03 -1.06821E+03
 -6.21297E+03 -9.22844E+02  4.20355E+03 -6.77285E+02  5.03822E+02 -5.92198E+02  6.10335E+03  1.12085E+03
 -1.06896E+03  1.62127E+03  2.16867E+03  3.28261E+03 -6.21882E+02  4.66464E+03 -2.42972E+02 -3.17499E+03
