 $NMID ID='MM_0lb_SNR50_18hz_g50_45.RAW', FMTDAT='(8E13.5)'
 TRAMP=1., VOLUME=1. $END
  3.05754E+05 -1.23002E+03  3.36009E+05  2.51149E+05  8.34450E+04  3.35244E+05 -1.30857E+05  2.49709E+05
 -1.96609E+05  8.48529E+04 -1.07627E+05 -3.63626E+04  4.00142E+03 -5.39926E+04  5.49555E+04  3.93960E+03
  3.56972E+04  4.85458E+04 -1.52201E+04  7.44823E+04 -6.20545E+04  6.25171E+04 -8.00512E+04  3.17228E+04
 -7.94298E+04 -1.53511E+04 -5.73563E+04 -4.95162E+04 -1.10475E+04 -7.01623E+04  2.90617E+04 -4.72834E+04
  3.73815E+04  4.61921E+03  1.64548E+04  4.86679E+04 -3.48255E+04  4.79063E+04 -6.47784E+04  6.41418E+03
 -5.11641E+04 -5.63141E+04 -3.71292E+03 -7.58532E+04  3.62301E+04 -5.58252E+04  4.80297E+04 -1.45432E+04
  4.35327E+04  5.00465E+03  2.80551E+04  2.92075E+04  1.67406E+04  3.18568E+04 -6.35074E+03  2.68724E+04
 -2.30937E+04  1.86445E+04 -1.92606E+04 -3.25289E+03 -8.54946E+02 -7.36907E+03  1.70881E+04  1.11177E+04
  9.41897E+03  3.44743E+04 -3.18242E+04  2.91555E+04 -6.28179E+04 -1.71895E+03 -5.50249E+04 -3.77832E+04
 -1.02649E+04 -5.61999E+04  3.62195E+04 -4.42455E+04  5.60949E+04 -3.92203E+03  3.20482E+04  3.34066E+04
 -6.96591E+03  3.40573E+04 -3.20052E+04  1.17424E+04 -2.84780E+04 -6.00317E+03 -1.42393E+04 -1.29778E+04
 -5.37623E+03 -6.43037E+03  2.62776E+02 -1.85224E+04  7.45872E+03 -2.18049E+04  1.36752E+04 -1.47665E+04
  8.02408E+03  3.99775E+03 -4.21722E+03  1.08304E+04 -1.96716E+04 -2.94898E+03 -1.33226E+04 -3.26422E+04
  1.77078E+04 -4.19938E+04  4.86503E+04 -1.71117E+04  4.29765E+04  2.06856E+04  1.25877E+04  4.75326E+04
 -2.13463E+04  3.41361E+04 -2.20329E+04  3.24736E+03 -6.01234E+03 -2.80372E+04  1.95727E+04 -3.28088E+04
  4.03533E+04 -1.10103E+04  3.48475E+04  2.25461E+04  1.76058E+04  4.26404E+04 -1.08273E+04  4.36124E+04
 -2.84090E+04  3.35479E+04 -3.79267E+04  1.14972E+04 -4.06601E+04 -1.84526E+04 -2.13165E+04 -3.44836E+04
  1.07454E+04 -3.68399E+04  3.08799E+04 -1.73983E+04  2.95195E+04  1.28454E+04  1.55681E+03  2.13534E+04
 -1.61886E+04  9.54017E+03 -9.44989E+03 -9.07119E+03  1.67502E+03 -1.07265E+04  1.71116E+04  3.38771E+03
  8.31795E+03  2.15333E+04 -7.33048E+03  2.22223E+04 -2.15301E+04  7.33032E+03 -2.56911E+04 -4.34689E+03
 -2.17213E+04 -1.62599E+04 -7.24422E+03 -1.84342E+04  1.05924E+04 -1.90174E+04  1.24920E+04 -1.08560E+04
  2.18108E+04 -1.05258E+04  3.19157E+04  2.66081E+03  2.45553E+04  1.76158E+04  7.26233E+03  3.36726E+04
 -1.98773E+04  2.55310E+04 -2.64325E+04  2.44104E+03 -2.22118E+04 -7.84818E+03 -1.05594E+03 -1.26194E+04
  5.55870E+03 -2.38312E+03 -5.47061E+03  4.17151E+03 -1.44989E+04  4.17536E+03 -1.80603E+04 -4.89993E+03
 -4.93075E+03 -1.70874E+04  6.51929E+03 -1.91198E+04  1.12368E+04 -1.21162E+04  1.71998E+04 -1.70649E+03
  7.29821E+03  1.10716E+04 -3.01750E+03  1.62031E+04 -1.04632E+04  7.08825E+03 -1.59871E+04 -6.07076E+03
 -1.36259E+04 -1.45137E+04  2.98389E+03 -2.26603E+04  8.02020E+03 -1.80550E+04  1.88477E+04 -9.68932E+03
  1.43748E+04  2.00919E+03  8.48693E+03  7.26196E+03  3.09443E+03  2.80101E+03  8.87809E+03 -1.93624E+03
  1.57111E+04  2.57350E+03  1.94590E+04  1.55956E+04  1.50759E+04  2.64148E+04 -4.83905E+03  3.12215E+04
 -1.64591E+04  2.22663E+04 -2.71045E+04  1.18712E+04 -2.64195E+04 -5.39698E+02 -2.13968E+04 -1.48253E+04
 -8.76590E+03 -2.22397E+04  5.83273E+03 -2.24735E+04  1.49313E+04 -8.25519E+03  1.12257E+04  7.00249E+03
  5.64890E+03  1.21334E+04 -3.33622E+03  1.34134E+04 -1.61391E+04  1.12875E+03 -1.58235E+04 -8.96563E+03
 -5.90083E+03 -1.26453E+04  8.73930E+03 -5.43621E+03  4.35156E+03 -4.37911E+03  1.24232E+03  4.04840E+03
 -7.95868E+03  1.59602E+02 -1.93201E+03 -5.57604E+03  2.98284E+03 -1.32478E+04  1.07704E+04 -8.55182E+03
  1.52667E+04 -2.84828E+03  1.21224E+04  1.28419E+03  1.11304E+04  1.12555E+04  4.79403E+03  1.23863E+04
 -3.20828E+03  2.14565E+04 -1.15655E+04  9.96919E+03 -1.13208E+04  1.15636E+03 -7.31088E+03 -5.75864E+03
 -4.77519E+03 -3.65070E+03 -7.83211E+03 -1.09414E+03 -5.67236E+03  1.94426E+03 -5.11526E+01  1.01312E+04
 -6.03149E+03 -3.69008E+03 -9.64555E+03 -6.05509E+03 -4.34745E+03 -1.27287E+04  3.54249E+03 -9.25346E+03
  5.72638E+03 -8.67339E+03  5.46485E+03  2.80029E+03 -1.20155E+03  1.35039E+03 -7.59822E+03 -9.36215E+01
 -4.54923E+03 -4.60936E+03 -1.87676E+03 -8.95239E+03  6.46739E+03 -8.81959E+03  8.14687E+03 -2.07201E+03
  9.65321E+03  4.88507E+02  6.44505E+03  3.51503E+03  3.26511E+03  9.96362E+03 -2.97114E+03  3.63838E+03
 -8.00015E+03  3.37498E+03 -2.91830E+02 -3.99067E+03  3.92743E+03 -5.43603E+02  3.54422E+03  1.00741E+03
  6.11074E+03 -1.74253E+02  1.86795E+03  6.21852E+03 -6.12174E+03  3.70789E+03 -5.25777E+03 -1.60138E+03
 -1.63899E+03 -3.68194E+03  8.42259E+02 -1.11135E+04  3.88942E+03 -4.10233E+03 -9.49978E+01 -1.51329E+03
 -2.62457E+03  2.46016E+03 -6.12021E+03  2.52053E+03 -6.48895E+03  1.59667E+03 -9.85795E+03  3.49180E+02
 -5.31150E+03 -6.59912E+03  2.50453E+03 -6.95328E+03  3.69028E+03 -1.96613E+03  1.06605E+04 -2.95882E+03
  8.42287E+03  5.43547E+03  4.28008E+03  6.81093E+03 -5.31319E+03  4.94547E+03 -9.77336E+03  1.30596E+03
 -4.99456E+03 -5.28634E+03  5.66444E+02 -1.98522E+03 -3.73198E+02 -3.20777E+01  4.78614E+03 -2.02615E+03
  3.00759E+03 -7.66746E+02  1.18314E+03 -2.39619E+03 -7.21506E+02  3.72595E+02  6.90539E+02 -4.40671E+02
  2.37072E+03  2.30383E+03  4.45966E+03 -3.20991E+03  8.67655E+02  3.45061E+03  8.31934E+03  1.17241E+04
 -1.08851E+03  1.17532E+04 -7.81147E+03  8.69025E+03 -9.68539E+03 -4.85771E+03 -4.16832E+03  2.53638E+02
 -7.98396E+03 -2.91267E+03 -1.33114E+03 -6.27793E+03 -4.46599E+02 -4.03817E+03  3.03349E+03 -5.31660E+03
 -1.11213E+03 -4.41464E+02  5.79936E+03 -5.55671E+03 -1.27766E+03  2.89971E+03  3.30524E+03 -1.61727E+03
  3.52480E+03  6.50570E+02 -8.28100E+02  5.45651E+03 -1.58154E+03  3.96477E+02 -2.48494E+03 -1.82753E+03
 -5.32095E+03 -2.74289E+03 -4.08554E+03 -1.67934E+03 -2.82382E+03 -7.16272E+03  2.65032E+03 -6.58563E+03
  2.06840E+03 -1.36480E+03  4.50284E+03 -5.93048E+02  3.80229E+03  3.01642E+03  5.67327E+02  1.11914E+04
 -1.69629E+03  3.70149E+03 -1.52948E+03  2.88937E+03 -3.37348E+03 -1.87837E+03 -1.09769E+03  2.35983E+03
  4.58747E+03  6.59048E+02 -2.27240E+03  2.04946E+03 -3.27235E+03 -5.27466E+02 -9.95990E+03  3.54726E+03
 -6.71837E+02 -6.16707E+03  2.35183E+03 -7.36046E+03  4.30268E+03 -9.16835E+03  5.88067E+03 -5.56499E+03
  3.87988E+03  5.09363E+03 -1.90089E+03 -5.61988E+02 -6.64664E+02  4.32565E+03 -6.30587E+03  2.77835E+03
 -2.45441E+03 -4.50511E+02 -4.86994E+02 -1.27088E+03  5.57748E+03 -3.97265E+02  1.11579E+03 -1.08295E+03
  5.16361E+03 -2.43942E+03 -1.92277E+02  8.87380E+02 -5.42724E+03  4.30022E+03  2.92725E+03 -7.71828E+02
  4.18455E+02  1.19902E+03  3.32993E+03  1.09243E+03  1.18456E+03  3.83864E+02 -1.14149E+03  2.05321E+03
  4.37624E+03  8.83044E+03 -4.91253E+03  3.53072E+03 -5.84046E+02  5.24219E+01 -5.89444E+03 -2.80971E+02
 -1.88153E+03 -7.05917E+02 -1.02243E+02 -2.35482E+03  4.11412E+03 -3.64798E+03  4.08533E+03  1.69935E+02
  1.05417E+03 -6.59366E+00 -2.02223E+03 -2.39293E+03 -2.04013E+03 -1.25930E+02  2.96488E+02 -3.57311E+02
 -5.26126E+03 -4.93414E+03 -4.93686E+02 -3.77725E+02  5.08559E+03 -4.36368E+03  6.68874E+01  3.72016E+03
  4.15534E+03 -4.13430E+03  1.72375E+03 -1.52785E+03 -3.73107E+03  2.64150E+03 -1.54354E+03  1.59971E+03
 -2.55361E+03 -3.03931E+03  3.79804E+03 -2.06012E+01 -1.69469E+03  4.00405E+03  3.63759E+03  4.72646E+03
  2.78802E+02  2.75877E+03 -9.99936E+02  1.74542E+03 -2.18104E+03 -3.47704E+03 -4.64425E+02 -4.30237E+03
  3.88572E+03  2.98041E+02 -3.99446E+03 -9.91047E+02 -7.37021E+02 -2.13427E+03  1.38526E+03 -2.05208E+03
 -1.82554E+03  2.41208E+03  3.73091E+02 -7.65302E+02  1.48050E+01 -1.01645E+03 -2.04687E+03  3.15453E+02
  3.90602E+03 -3.23151E+03  6.29876E+03  2.98582E+03 -1.49927E+03 -1.82686E+03  4.84988E+02  2.35806E+03
 -4.48457E+03  5.56385E+01 -3.41155E+03  1.08846E+03 -5.85008E+03  1.30043E+03  5.38518E+03 -2.44060E+03
  5.54709E+03  3.53309E+03  2.10198E+03  1.11013E+03 -4.05642E+02  8.90386E+03 -1.42390E+03  4.78189E+02
 -6.41385E+03 -2.08318E+03 -1.22078E+03  2.51683E+03 -1.10699E+03 -1.99688E+03 -2.80388E+02 -3.01785E+03
  1.29457E+03  1.81210E+02  5.76454E+02 -5.84718E+03  1.76565E+02  4.32462E+03 -1.35299E+03  3.19957E+03
 -1.85741E+03  1.99578E+02 -5.41383E+02 -9.79020E+02  1.35965E+02  1.64073E+03  5.64540E+02  9.09630E+02
  6.38024E+02 -6.52512E+02 -8.99202E+02 -2.57840E+02 -8.65617E+02  2.67147E+03 -2.65359E+03 -3.28886E+03
 -1.84688E+03 -3.22023E+03 -1.34637E+03 -4.44143E+03 -1.83191E+03  1.23125E+03  2.98470E+03 -6.85472E+02
  2.01449E+03  2.84049E+03  1.42973E+03 -5.25729E+02 -1.14628E+03  3.50675E+03 -2.55831E+03  1.58491E+03
 -1.78737E+03  2.05498E+03 -3.20734E+03  2.81315E+03  4.57827E+03 -2.44023E+03 -1.04556E+03 -1.61740E+02
  2.19913E+03 -4.01183E+02  1.25155E+03 -3.71255E+03  3.49998E+02 -2.25838E+03  2.10253E+03  3.32915E+03
  4.85704E+02 -1.55131E+02  2.26872E+03  2.37572E+03  1.27013E+03  1.88111E+02  1.27031E+03 -7.16851E+01
  1.89290E+03  2.30957E+03 -1.77245E+03 -2.65788E+02 -6.40623E+02  7.61109E+02  3.24478E+03 -2.38428E+03
 -5.17745E+02 -2.39611E+03  6.82838E+03 -5.68989E+03 -8.98290E+01 -1.34617E+03 -3.39693E+03  1.07915E+02
 -1.50332E+03  9.44426E+02 -1.44477E+03 -1.35050E+03 -9.62317E+02 -3.13842E+02 -5.20893E+01  1.58069E+03
  5.97018E+03 -3.68032E+03  4.70366E+03  3.92488E+03 -3.87833E+03  6.01141E+03  5.78548E+03 -2.43102E+02
  1.47413E+03  1.49549E+03 -1.91959E+03 -9.80344E+02  9.58247E+02 -4.77344E+03  3.07982E+03 -5.04919E+03
 -1.39932E+03 -3.29749E+03  2.33304E+03  3.11775E+03 -1.36218E+03 -8.86629E+02 -2.55810E+03 -2.01398E+03
 -3.76303E+03  1.98239E+00 -8.39733E+02 -1.73658E+03 -4.51739E+03 -7.67750E+02 -3.58899E+03 -5.99693E+01
  1.16468E+03 -1.83158E+02  1.59589E+03 -2.04815E+02  2.19205E+03  3.04096E+03 -2.68520E+02  1.07065E+03
 -3.00620E+03  6.53215E+02 -4.45262E+03  2.12972E+03 -1.17083E+03 -4.15527E+03 -4.36029E+03 -5.84757E+02
  2.78714E+03 -4.49152E+03  6.98927E+02  3.83647E+03  4.22967E+03 -3.54463E+02 -1.73927E+03  1.29190E+03
