 $NMID ID='MM_0lb_SNR50_10hz_g50_24.RAW', FMTDAT='(8E13.5)'
 TRAMP=1., VOLUME=1. $END
  3.13423E+05  1.81307E+03  3.42547E+05  2.51152E+05  8.44849E+04  3.40754E+05 -1.29017E+05  2.48598E+05
 -1.94525E+05  8.11614E+04 -1.14202E+05 -3.14301E+04 -5.28741E+02 -5.65349E+04  5.89083E+04  7.62531E+02
  3.66118E+04  5.39834E+04 -1.54955E+04  7.43462E+04 -5.38501E+04  5.86962E+04 -8.58225E+04  3.13088E+04
 -8.07675E+04 -1.19722E+04 -5.73553E+04 -5.01623E+04 -1.39421E+04 -7.29505E+04  2.68912E+04 -4.19241E+04
  3.51602E+04  4.27073E+03  1.68945E+04  5.12903E+04 -3.89951E+04  5.11032E+04 -6.30218E+04 -4.81103E+03
 -4.62083E+04 -5.64246E+04 -7.85334E+03 -7.51990E+04  2.96797E+04 -5.95351E+04  4.69234E+04 -1.44932E+04
  4.43364E+04  1.09283E+04  3.16080E+04  2.86592E+04  1.36135E+04  3.12181E+04 -4.04425E+03  2.68325E+04
 -2.14253E+04  1.30629E+04 -2.20078E+04 -7.26658E+03  1.08047E+04 -9.89796E+03  2.68544E+04  1.63668E+04
  3.16618E+03  3.34212E+04 -3.59579E+04  3.59985E+04 -6.68055E+04  3.12450E+03 -6.18489E+04 -4.24618E+04
 -1.58449E+04 -6.63798E+04  4.17664E+04 -4.39049E+04  5.87367E+04 -4.10062E+02  3.00804E+04  3.49583E+04
 -6.24422E+02  3.60044E+04 -3.70015E+04  1.55482E+04 -3.54672E+04 -3.26378E+03 -1.81273E+04 -1.62851E+04
 -1.08272E+04 -1.11408E+04  2.96149E+03 -1.96860E+04  8.82573E+03 -2.40132E+04  1.84391E+04 -1.04081E+04
  1.13279E+04  7.59879E+03 -9.48692E+03  1.28374E+04 -2.75403E+04 -8.75935E+03 -8.98417E+03 -2.73436E+04
  2.75622E+04 -5.05609E+04  4.87467E+04 -2.35897E+04  4.41109E+04  2.02600E+04  2.37382E+04  4.61923E+04
 -1.32225E+04  4.36118E+04 -2.61583E+04  6.32660E+03 -1.32405E+04 -2.45941E+04  2.98867E+04 -3.61782E+04
  4.05906E+04 -9.27908E+03  4.49240E+04  2.55128E+04  1.40847E+04  5.00205E+04 -6.06406E+03  5.40855E+04
 -3.20316E+04  3.48914E+04 -4.66866E+04  1.02403E+04 -5.02279E+04 -2.12979E+04 -2.49742E+04 -4.39150E+04
  1.03525E+04 -4.13698E+04  3.46980E+04 -1.54913E+04  3.50983E+04  6.33997E+03  1.41795E+02  2.06778E+04
 -1.62943E+04  4.91073E+03 -1.23487E+04 -6.64870E+03  7.03793E+03 -8.34537E+03  1.67273E+04  5.10193E+03
  1.45436E+04  2.41578E+04 -6.48054E+03  2.92244E+04 -2.98949E+04  1.31051E+04 -3.31741E+04 -9.53610E+03
 -2.47841E+04 -2.00757E+04 -1.98638E+04 -2.59135E+04  6.19859E+03 -2.56359E+04  2.03061E+04 -2.19768E+04
  3.64554E+04 -7.94450E+03  3.98037E+04  2.57628E+03  2.44034E+04  2.87138E+04  2.29335E+03  4.05123E+04
 -2.05936E+04  2.53000E+04 -3.11829E+04  1.28884E+04 -2.65895E+04 -9.56007E+03 -5.91983E+03 -1.65849E+04
  3.71677E+03  2.17252E+03 -7.87748E+03  1.46166E+04 -1.65997E+04  4.91645E+03 -2.65807E+04 -5.47096E+03
 -1.13447E+04 -1.93932E+04  6.76499E+03 -2.53598E+04  1.42999E+04 -2.09132E+04  2.29304E+04 -1.56864E+02
  7.08787E+03  1.66723E+04  7.80684E+02  2.49140E+04 -1.88409E+04  9.33343E+03 -2.05521E+04 -8.06272E+03
 -1.84020E+04 -1.54024E+04 -2.04597E+03 -2.67971E+04  9.80768E+03 -2.10385E+04  1.58160E+04 -9.27625E+03
  1.39724E+04  3.01549E+02  8.35241E+03  5.14598E+03  6.12010E+03  9.39376E+03  1.04060E+04  5.50380E+03
  2.17176E+04  4.34935E+03  1.98508E+04  2.55347E+04  1.54002E+04  3.36923E+04 -1.48356E+03  3.29945E+04
 -2.20379E+04  3.22952E+04 -4.27976E+04  1.25642E+04 -4.09828E+04 -2.25043E+03 -3.61069E+04 -2.09203E+04
 -1.81914E+04 -2.89590E+04  1.78047E+04 -3.04491E+04  2.44774E+04 -1.62607E+04  2.84885E+04  1.01716E+04
  4.39352E+03  1.83847E+04 -1.34892E+04  1.85003E+04 -1.91444E+04  2.74058E+03 -1.53742E+04 -1.17963E+04
 -2.61536E+03 -1.65016E+04  1.01009E+04 -1.72212E+04  9.44964E+03 -3.91475E+03 -9.56560E+02  4.40122E+03
 -1.23842E+04  2.80141E+02 -9.40444E+03 -5.65779E+03  4.76174E+03 -1.99488E+04  1.45334E+04 -2.68998E+04
  2.34117E+04 -1.40018E+04  2.45270E+04  1.94829E+03  2.84496E+04  2.45567E+04  7.52967E+03  2.96429E+04
 -3.06839E+03  3.09002E+04 -1.76690E+04  1.57201E+04 -2.36383E+04  5.50272E+03 -1.86533E+04 -1.25691E+03
 -2.00233E+03 -1.20517E+04 -4.46220E+03  4.29901E+03 -6.48582E+03  3.04822E+03 -7.69809E+03  6.32662E+03
 -1.16376E+04  1.97434E+03 -1.42503E+04 -9.29504E+03 -2.29242E+03 -2.03040E+04  1.40553E+04 -1.56423E+04
  1.26094E+04  2.10558E+03  8.23705E+03  1.53659E+03  2.51312E+03  3.25315E+03 -9.15122E+03  2.48193E+03
 -5.63308E+03 -9.49251E+03  7.40713E+03 -1.83979E+04  1.27785E+04 -1.76949E+04  2.42624E+04 -6.50247E+03
  1.64829E+04  4.04567E+03  1.71223E+04  1.02045E+04 -1.54628E+03  7.83744E+03 -1.43174E+04  1.46708E+04
 -1.11215E+04  3.99108E+03 -7.01808E+03  1.25053E+03  2.07212E+03 -4.38510E+03  4.96981E+03 -1.86203E+03
  7.84873E+03  2.33562E+03  1.68636E+03  1.41175E+04 -1.28489E+04  1.08911E+04 -1.62215E+04  3.32188E+03
 -7.61619E+03 -4.31311E+03  2.45176E+03 -1.04905E+04  2.42110E+03 -4.66192E+03  8.60990E+03  4.58324E+03
  1.14957E+03  9.65566E+03 -1.04888E+04  7.72923E+03 -1.55876E+04  4.87813E+03 -1.24311E+04 -4.86734E+03
 -1.09863E+04 -1.19773E+04  6.01860E+03 -1.24172E+04  1.43188E+04 -1.25973E+04  1.80820E+04  1.66121E+03
  1.17576E+04  1.50244E+04 -4.22991E+03  1.64413E+04 -9.18620E+03  1.21508E+04 -1.41471E+04  1.41923E+03
 -5.30750E+03 -1.38453E+04  5.17301E+03 -1.35530E+04  7.80742E+03 -1.48059E+04  8.70927E+03 -6.13723E+02
  7.58657E+03  5.12161E+03 -2.06832E+03  2.38260E+03  3.31359E+03 -3.74863E+03  9.24437E+03 -6.98021E+03
  1.22647E+04 -5.95156E+03  1.25344E+04  8.19559E+03  1.38485E+04  6.55389E+03  6.90942E+03  1.52250E+04
 -8.56865E+03  2.03770E+04 -1.27747E+04  1.44029E+04 -2.54677E+04  2.21981E+03 -1.93667E+04 -5.35266E+03
 -1.08131E+04 -1.30361E+04 -1.45070E+02 -1.31597E+04 -7.08238E+02 -1.09775E+04  4.98293E+03  8.69297E+02
  3.25360E+03 -2.60863E+03 -5.81695E+03  2.62294E+02  7.63923E+03 -6.57205E+03  3.68127E+03 -3.74198E+03
  1.48376E+04  3.06964E+03 -4.21243E+02  4.88320E+03 -3.61965E+03  1.23854E+04 -4.04058E+03  4.05439E+03
 -9.17109E+03 -6.19732E+01 -1.00606E+04 -1.16529E+04  1.83737E+02 -1.90343E+04  7.20651E+03 -1.28682E+04
  5.81237E+03 -9.24977E+02  1.61551E+04  3.97736E+03  1.88177E+04  1.40866E+04  2.21550E+03  1.22006E+04
 -3.69517E+03  1.16871E+04 -7.96485E+03  4.10844E+03 -6.70353E+03 -1.72167E+03 -3.36906E+03  2.09585E+03
 -5.89818E+03  2.41950E+03  3.17583E+03  4.07692E+03 -1.30265E+04 -3.44769E+03 -9.93805E+03  3.74185E+03
 -3.63013E+03 -1.19734E+04 -2.25065E+03 -1.33138E+04  3.64661E+03 -1.35767E+04  1.28815E+04 -9.52546E+03
  1.67829E+04  6.97611E+03  7.60981E+03  8.95980E+03 -4.65283E+03  1.24992E+04 -8.71425E+03  1.32552E+04
 -1.13284E+04  1.33263E+03 -6.61678E+03 -2.93709E+03 -7.23241E+03 -1.06918E+04  7.84669E+03 -7.59328E+03
  1.26749E+04 -2.32484E+02 -2.29869E+03 -1.76143E+02 -4.36609E+03  8.64500E+03 -1.33891E+03 -5.30176E+02
 -3.53060E+03  5.12388E+03  1.37621E+03 -3.96520E+02  5.58573E+03 -1.65784E+02  2.22229E+03  1.06391E+04
 -7.23450E+03  6.18954E+03 -9.21556E+03  9.57348E+03 -1.50473E+04  6.59543E+03 -1.56402E+04 -8.31905E+03
 -4.66638E+03 -2.16796E+04  7.23924E+03 -1.87313E+04  6.08375E+03 -4.76861E+03  3.76531E+03 -7.09535E+03
  7.83759E+03  2.16343E+03  2.45289E+03  7.72286E+03 -7.12965E+03  1.26962E+04 -2.49735E+03 -6.60055E+03
 -1.41912E+03 -7.44323E+03  5.87362E+03 -6.85015E+03  7.41229E+03 -2.61481E+03  6.94776E+03 -1.34582E+03
  7.03437E+03  3.18643E+03  1.48348E+02  3.00199E+03 -6.78074E+03  3.25258E+03  2.58373E+03  3.77102E+03
  1.56462E+03 -2.86758E+03  6.14272E+03 -1.46381E+03  3.61788E+03  3.48201E+03 -2.79035E+03  6.51116E+03
 -7.10056E+03  6.23467E+03 -1.24824E+04  7.18904E+02 -7.30866E+03  1.54967E+03 -3.18632E+03 -2.09959E+03
  2.69393E+03 -8.36071E+03  1.46677E+03  3.76823E+03  2.91994E+03  4.44838E+03 -3.69899E+02  2.58675E+02
 -4.21521E+03  1.03064E+04 -4.75685E+03  2.40498E+03 -8.61671E+03 -9.07174E+03  6.92240E+03 -6.31053E+03
  2.86672E+03 -9.89242E+03  7.09765E+03  2.58509E+03  3.29902E+03  1.92984E+03 -1.14897E+03  4.24407E+03
  9.16918E+02  2.51848E+03 -1.91170E+03 -2.96342E+03 -4.00928E+03 -6.56597E+03  7.69877E+03 -4.68723E+03
  5.91995E+03  3.48308E+03  4.26062E+03  1.13946E+04  1.00059E+03  8.63164E+03  2.14500E+03  1.13344E+04
 -1.08164E+04  2.50513E+03 -7.72375E+03 -1.00763E+01 -2.56979E+03 -3.18801E+03  1.94104E+03 -6.43700E+03
  2.14568E+03 -6.21830E+03  2.45582E+03  2.32304E+03 -5.56904E+02  2.20284E+03 -2.41995E+03  9.54753E+03
  6.80979E+02 -7.92671E+02 -8.23324E+02  5.23798E+03 -5.14598E+03  2.88439E+03 -3.23086E+03  1.42056E+03
  3.37340E+03  5.36548E+03  1.57167E+03  4.37148E+03 -4.75647E+03  2.46512E+03 -1.03174E+04 -6.03523E+03
 -6.13361E+03 -1.05783E+04 -2.93624E+03 -1.58554E+04  9.80498E+03 -1.09671E+04  9.76085E+03 -6.88845E+02
  6.23835E+03  2.94211E+03  9.62548E+03  9.38599E+03 -1.41956E+03  1.07065E+04 -7.46677E+03  4.17599E+03
 -6.17444E+03  5.24967E+03  5.77144E+03 -1.65057E+03  2.30917E+03 -2.96023E+02 -2.41402E+03 -4.84548E+03
 -2.29846E+03 -5.27221E+03  4.40186E+02  1.12439E+01  2.83574E+03  7.16244E+02  1.12752E+04 -8.23708E+03
  2.58755E+03 -1.66783E+03 -1.69604E+03 -1.72161E+03  2.07390E+03 -1.91018E+03  1.80465E+03  9.70769E+03
 -4.15579E+03  1.07497E+04 -1.11951E+04  2.29932E+03 -1.82731E+04  1.79240E+03 -1.44946E+04 -6.42920E+03
 -4.66242E+03 -9.45991E+03 -2.28138E+03 -1.16852E+04  6.86009E+03 -5.61954E+03  6.15351E+03 -5.36643E+02
  4.99415E+03  6.98386E+02 -6.05494E+02  2.35926E+03 -2.91454E+03  4.10693E+03  9.66054E+02 -3.29573E+03
  7.67797E+02 -1.89438E+03  1.41134E+03 -6.12335E+03  2.40349E+03  1.80086E+03  1.57670E+03  6.68974E+03
  4.84460E+03 -1.95049E+03 -6.70884E+03  2.19500E+03 -7.17553E+02 -4.38154E+03 -3.23035E+03 -6.45637E+03
  5.77858E+03 -9.09904E+03  9.68826E+03 -2.45375E+03  2.75007E+03  4.63631E+02  2.44495E+03  4.77031E+03
 -6.27751E+03  5.45286E+03 -1.34855E+03  5.73235E+03 -1.25639E+04 -1.01267E+03 -5.85625E+03  4.50802E+03
 -2.86973E+03 -4.40194E+03 -1.91220E+03  5.58438E+03 -3.41674E+03  6.67813E+03 -5.54862E+03  1.21298E+02
 -1.33435E+03 -1.30419E+03 -5.58868E+02 -8.97636E+03  5.60808E+02 -6.03588E+03  3.99734E+03  1.37574E+03
 -2.68411E+01  6.72135E+03  5.41735E+03  3.81596E+03 -4.06634E+03  3.25952E+03 -3.70631E+03  1.17377E+04
