 $NMID ID='MM_0lb_SNR50_20hz_g45_78.RAW', FMTDAT='(8E13.5)'
 TRAMP=1., VOLUME=1. $END
  3.09528E+05 -9.76154E+02  3.39322E+05  2.49076E+05  8.66165E+04  3.39637E+05 -1.28311E+05  2.52913E+05
 -1.88925E+05  7.87545E+04 -1.11656E+05 -3.35338E+04  4.37325E+03 -5.03027E+04  5.51486E+04  2.14368E+03
  3.36655E+04  5.37027E+04 -1.41780E+04  7.68242E+04 -6.02633E+04  6.44731E+04 -8.02293E+04  2.73958E+04
 -7.67439E+04 -1.05319E+04 -6.26338E+04 -5.24835E+04 -1.44205E+04 -6.92065E+04  2.83355E+04 -4.39634E+04
  3.64841E+04  4.16151E+03  1.50129E+04  4.43024E+04 -3.55264E+04  4.65092E+04 -6.22083E+04  3.19085E+03
 -5.15201E+04 -5.39030E+04 -7.59475E+03 -7.77204E+04  3.49554E+04 -5.39755E+04  4.48534E+04 -2.03902E+04
  3.98866E+04  7.95692E+03  3.01262E+04  2.31090E+04  1.75691E+04  3.35587E+04 -2.79235E+03  2.99435E+04
 -2.04162E+04  1.13482E+04 -2.28797E+04 -3.43289E+03  4.46425E+03 -6.88043E+03  2.26249E+04  1.08401E+04
  5.78787E+03  3.17885E+04 -2.68045E+04  3.76140E+04 -6.12998E+04  1.24858E+01 -5.42960E+04 -4.10757E+04
 -1.16910E+04 -5.91331E+04  3.57646E+04 -4.24662E+04  5.20189E+04  8.22346E+01  3.29116E+04  3.08414E+04
 -4.19611E+03  3.08868E+04 -3.03472E+04  1.69979E+04 -2.98553E+04 -1.84193E+03 -1.22157E+04 -1.23335E+04
 -1.09866E+04 -1.63486E+04 -4.01317E+03 -1.78623E+04  2.26228E+03 -2.51448E+04  1.36923E+04 -1.27669E+04
  1.40669E+04  7.96941E+03 -8.37160E+03  1.87154E+04 -2.08834E+04 -2.83192E+03 -8.43531E+03 -3.11854E+04
  2.41143E+04 -3.91333E+04  4.37951E+04 -1.35590E+04  3.85547E+04  1.80152E+04  1.88318E+04  4.12878E+04
 -1.90136E+04  2.98658E+04 -2.56029E+04  3.21843E+03 -1.25104E+04 -2.79528E+04  1.99844E+04 -3.12368E+04
  4.05258E+04 -7.37059E+03  2.84530E+04  1.97305E+04  1.50984E+04  4.40372E+04 -1.00211E+04  4.25434E+04
 -2.90608E+04  2.45531E+04 -3.65074E+04  5.56972E+03 -3.70839E+04 -1.06507E+04 -2.38879E+04 -2.84967E+04
  1.40726E+02 -3.33380E+04  2.60024E+04 -1.34259E+04  2.48227E+04  8.87232E+03  2.12233E+03  1.59778E+04
 -1.13815E+04  7.27291E+03 -5.94949E+03 -9.53373E+03  8.97313E+03 -9.29376E+03  1.75701E+04  6.02772E+03
  1.07244E+04  1.93209E+04 -6.24362E+03  2.48699E+04 -2.27673E+04  1.04790E+04 -2.70059E+04 -5.46307E+03
 -1.81531E+04 -1.71329E+04 -6.75445E+03 -1.54220E+04  2.73626E+03 -1.08177E+04  1.25117E+04 -1.09802E+04
  2.23249E+04 -1.14719E+04  2.52777E+04 -8.71513E+02  1.85338E+04  1.53634E+04  6.19269E+03  3.40009E+04
 -1.31741E+04  2.47267E+04 -2.55141E+04  8.24894E+03 -2.00558E+04 -1.11840E+04 -4.23732E+03 -1.48463E+04
  6.16730E+03 -2.95166E+03 -4.04862E+03  9.56620E+03 -8.71267E+03  2.52032E+03 -1.34197E+04 -2.11856E+03
 -7.12329E+03 -1.55135E+04  3.79693E+03 -1.79970E+04  1.41328E+04 -1.45549E+04  1.08154E+04 -2.46964E+03
  9.49440E+03  1.20608E+04 -3.21779E+00  1.10055E+04 -8.85790E+03  9.71098E+03 -1.49115E+04 -4.02184E+03
 -1.03876E+04 -1.01192E+04 -8.35389E+02 -1.52450E+04  7.32716E+03 -1.39789E+04  1.27551E+04 -9.10025E+03
  1.51035E+04  2.18635E+03  9.01882E+03  5.14022E+03  5.44010E+03 -7.55974E+02  7.12785E+03  1.01336E+02
  1.02532E+04  8.05608E+03  1.49635E+04  1.01158E+04  7.19411E+03  2.35342E+04 -2.86330E+03  2.50846E+04
 -1.47332E+04  1.56082E+04 -2.17259E+04  6.15277E+03 -2.41517E+04  3.12583E+02 -1.67012E+04 -1.14349E+04
 -9.34761E+03 -1.44712E+04  6.45797E+03 -1.59362E+04  1.35413E+04 -1.14180E+04  1.31998E+04  4.76985E+02
  8.48733E+03  1.01322E+04 -8.27253E+03  1.03878E+04 -1.60444E+04  2.39899E+03 -7.45323E+03 -1.02549E+04
 -4.10394E+02 -1.19926E+04  3.92499E+03 -1.01099E+04  1.07166E+04 -1.21563E+03  1.48925E+03  4.94857E+03
 -2.19690E+03  3.83410E+03 -7.07796E+03 -2.64575E+03  2.18628E+03 -9.92650E+03  5.13034E+03 -9.95027E+03
  9.98594E+03 -4.96835E+03  8.30342E+03  2.02712E+03  5.19516E+03  1.17933E+04  1.52684E+03  1.40716E+04
 -1.73490E+03  1.53162E+04 -7.99925E+03  7.81117E+03 -1.26953E+04  4.81628E+02 -7.16754E+03  8.41402E+02
 -1.03364E+02 -2.85636E+03 -4.52643E+03  2.07317E+03 -3.81130E+03  2.43409E+03 -4.84874E+03  3.66512E+03
 -6.40791E+03  4.46498E+03 -8.29570E+03 -5.88829E+03 -7.48535E+03 -1.05575E+04  9.79019E+03 -1.14798E+04
  5.36324E+03 -3.43850E+03  1.15723E+04 -6.43296E+02  2.26757E+03  3.89811E+03 -3.08263E+03  3.70357E+03
 -3.47133E+03 -2.75503E+03 -3.26849E+03 -4.24926E+03  1.80538E+03 -7.18422E+03  7.05836E+03 -8.40005E+03
  1.06130E+04  1.46546E+03  7.24645E+03  4.46173E+03 -5.40853E+02  6.09879E+03 -1.75886E+03  7.43705E+03
 -3.61976E+03  6.30745E+03 -1.56789E+03 -4.56770E+03  3.27691E+03 -4.29681E+02  3.37330E+03 -1.58875E+03
  4.83823E+03  2.61450E+03  6.52921E+03  5.97307E+03 -8.68385E+03  6.60786E+03 -5.75190E+03  3.76442E+03
 -1.44869E+03 -8.09451E+02  2.69565E+03 -4.72140E+03  4.37924E+03 -3.35115E+03  2.69180E+03  8.24513E+02
  2.27073E+02  8.04502E+03  5.14159E+02  7.65970E+03 -7.03625E+03  2.72608E+03 -3.62548E+03 -2.10260E+03
 -4.36135E+03 -3.30093E+03  3.46435E+03 -8.32580E+03  5.96606E+03 -6.66061E+03  8.40895E+03  4.10037E+03
  3.13938E+03  2.38509E+03  1.75427E+03  5.20520E+03 -3.18837E+03  5.65316E+03 -3.83494E+03 -1.26500E+03
 -5.00721E+03 -6.57567E+03 -5.10272E+03 -4.74639E+03  5.74343E+02 -6.91900E+03  2.84353E+03 -3.82465E+03
  2.11529E+03  1.23558E+03  1.47310E+02  1.32434E+03  4.29480E+03  2.28196E+03 -3.32714E+03  4.16678E+02
  2.05340E+03  2.08233E+03  3.11566E+03  1.55161E+02  1.94305E+03  9.01462E+02  5.11791E+03  6.35866E+03
  1.97094E+02  5.78893E+03 -6.45356E+03  2.57798E+03 -1.26507E+04  1.56454E+03 -5.83931E+03 -2.12567E+03
 -3.39039E+03 -9.70631E+03 -2.28739E+03 -6.11421E+03  1.34723E+03 -9.88393E+02  6.39967E+03  3.56142E+03
  2.41339E+03 -1.84604E+03  4.09120E+03 -3.63307E+03  1.00356E+03  2.05736E+02  2.79382E+03  1.82803E+03
  5.42808E+03  1.40174E+03  2.69334E+03  1.50800E+03  3.01961E+02  3.52402E+03  4.50801E+02  1.19161E+03
 -7.41286E+03 -8.27400E+02  6.15621E+03  4.89730E+02  7.12764E+02  1.71425E+02  4.56235E+03 -2.10317E+03
  7.63214E+03 -1.24191E+03  4.27095E+03  1.89063E+03  3.75971E+03  4.12870E+03  1.62581E+03  1.60951E+03
 -3.09560E+03  7.30885E+03  2.34385E+03 -2.01175E+02 -2.29995E+03  1.75747E+02 -7.11021E+02 -2.27554E+03
 -7.34935E+01 -2.69666E+03 -4.67982E+03 -1.79927E+03 -2.22832E+03 -1.89030E+03 -4.15767E+03  1.05853E+03
 -4.49900E+03 -6.16194E+03  2.06917E+01 -3.32178E+03  4.33094E+03 -4.58905E+03  2.50123E+03 -2.23383E+03
  3.66753E+03  1.52657E+03 -2.64324E+03  3.68593E+03 -2.48039E+03  6.42896E+03  2.79187E+03 -4.74256E+02
 -2.83973E+03  1.79602E+03 -6.18484E+03 -3.30986E+03  1.15988E+03 -1.36082E+03  1.28384E+03 -3.83583E+03
 -8.96615E+02 -4.66990E+03  1.57074E+03  4.04851E+03 -1.35561E+03  1.69260E+03 -1.03400E+03  2.86765E+03
  5.02684E+03  1.00399E+02 -2.60048E+03  1.24785E+02 -2.51155E+02  4.13321E+03  2.96713E+03 -6.39294E+02
 -3.48406E+02  3.45967E+03 -1.41858E+03  5.13381E+03 -5.16959E+03  1.88319E+03 -4.48071E+03  2.77148E+03
 -2.15982E+03 -1.81463E+03  4.76855E+02 -4.16443E+03  3.19709E+03 -2.86457E+03  5.12264E+01 -2.07022E+03
  3.36321E+02 -1.15311E+03 -7.96898E+01  1.41166E+03 -5.73134E+02  6.46515E+01 -1.84551E+03  2.21342E+03
  2.06677E+03 -9.65400E+02 -1.48346E+02 -3.58132E+03  2.60582E+03 -2.74023E+03  9.13449E+02  1.37221E+03
  2.26276E+03  3.76024E+03  4.22544E+03 -2.16257E+03  3.51354E+02  2.77693E+03  5.96526E+03  1.33318E+03
 -4.97690E+03  9.60379E+02  1.50408E+03  2.51159E+02  5.78993E+02  7.02404E+01  3.90360E+03  3.24531E+03
  1.89536E+03  3.62232E+03 -3.04955E+03 -1.81647E+03 -3.13429E+03  6.24451E+02  2.92286E+03 -1.74791E+03
  8.33986E+02  5.63184E+02 -1.25127E+03  1.55049E+03 -2.41090E+03 -3.28150E+03 -3.58714E+03  5.42453E+02
  3.49842E+01  4.56238E+03  1.63228E+03  9.58676E+02 -2.48760E+03 -5.17546E+03  5.89771E+02  4.38096E+03
  2.63945E+03  2.41698E+03 -2.98804E+03  1.09074E+03 -2.93538E+03 -6.46599E+02 -3.40862E+03  5.26423E+03
 -2.39711E+03  2.46937E+03  1.45934E+02 -2.47066E+03  2.20670E+03 -9.64485E+02 -2.06949E+03  2.93119E+03
  2.44282E+03  8.44570E+01  3.29514E+03  2.57459E+03  8.61058E+02  1.83923E+03 -3.70924E+03  1.11634E+03
 -1.09371E+03  6.79323E+02 -1.58253E+03  2.16404E+03 -1.48966E+03 -2.52409E+03 -4.11105E+03  1.40850E+03
  2.81732E+03 -5.39620E+02  7.18362E+02 -5.84604E+02 -2.07954E+02  2.02595E+03  5.60508E+02  2.85076E+02
  1.77723E+03 -8.85769E+02 -4.59629E+02 -4.73048E+03  5.03811E+02 -1.02117E+02 -2.59251E+03 -6.00046E+03
  2.18375E+03  1.09668E+03 -1.25344E+03 -2.51652E+03 -2.43799E+03 -4.22490E+02  1.25465E+03 -2.23271E+03
 -1.28208E+03 -4.63115E+03  1.73963E+02 -2.13395E+03  1.06170E+02  9.25065E+01  1.18541E+03  6.78232E+02
  5.25773E+03 -7.54361E+02 -1.45838E+03  2.41522E+03 -3.23463E+03  1.49702E+03 -3.05089E+03  1.03769E+03
 -2.80416E+03  6.88901E+02  2.93346E+03 -4.99299E+02  3.18713E+02 -9.92657E+02  3.05484E+03  3.15767E+03
 -9.87497E+01 -1.24807E+03 -1.18156E+03  1.89736E+03 -2.44144E+03  2.34069E+03  1.50294E+03 -8.70376E+02
  2.47238E+03  9.85745E+02  1.49403E+03  5.95476E+02  2.41732E+03 -1.54968E+03  6.86492E+02  1.51112E+03
 -2.77945E+03  2.09908E+03 -4.62199E+03 -4.59317E+03  1.00196E+03 -3.67543E+03 -4.59869E+03  6.31881E+02
 -2.89690E+03 -1.55176E+03  1.69897E+03  1.94597E+03 -1.16495E+03 -1.83635E+03 -2.18291E+03  1.12072E+02
  1.12241E+03  4.80373E+03 -8.82533E+02 -1.96276E+03 -2.11505E+03  2.36644E+02  3.41154E+03 -2.74697E+03
  1.09476E+03  2.57634E+03 -1.00167E+03  1.61497E+03  9.03746E+02 -1.56288E+02  8.19060E+02  1.33932E+03
 -1.09099E+03  2.13038E+03  7.78491E+02  1.71205E+03 -2.96760E+03  2.21543E+03 -1.20069E+02 -5.99988E+02
  7.09467E+02  6.33827E+03 -6.44749E+01  1.04065E+03  3.73588E+03 -3.88719E+01 -4.80413E+03 -9.18938E+02
 -1.07163E+02  3.52661E+03 -6.47135E+02  8.96357E+02 -5.21165E+02 -6.66968E+02 -1.76420E+03  2.65434E+02
  1.84282E+03 -1.03462E+03 -2.48022E+03 -9.92371E+02  1.10374E+03  4.89539E+03  1.49891E+03 -1.89000E+03
  2.70756E+03  2.36006E+03 -1.97695E+03 -3.29956E+03  1.99798E+01  1.94075E+03 -2.40270E+03 -1.86002E+03
  3.32322E+03  1.17245E+03  1.39249E+03  6.25230E+02 -3.76443E+02  3.70237E+02 -1.16772E+03 -3.21037E+02
