 $NMID ID='MM_0lb_SNR50_19hz_g55_80.RAW', FMTDAT='(8E13.5)'
 TRAMP=1., VOLUME=1. $END
  3.09568E+05 -5.35876E+02  3.38207E+05  2.49426E+05  8.51161E+04  3.33298E+05 -1.32239E+05  2.50258E+05
 -1.89214E+05  8.10378E+04 -1.11038E+05 -3.34174E+04  1.23258E+03 -5.34290E+04  4.98580E+04 -6.62164E+03
  3.24393E+04  5.28109E+04 -1.61469E+04  7.31431E+04 -5.88772E+04  6.33957E+04 -8.19452E+04  3.07232E+04
 -8.09613E+04 -1.16455E+04 -5.73361E+04 -4.91822E+04 -1.49843E+04 -6.60886E+04  2.88277E+04 -4.58100E+04
  3.85353E+04  1.92605E+03  1.58346E+04  4.57152E+04 -3.71071E+04  4.47929E+04 -6.91543E+04  2.51928E+03
 -5.00174E+04 -5.71105E+04 -8.66025E+03 -7.17601E+04  3.28722E+04 -5.64888E+04  4.39986E+04 -1.94493E+04
  4.52316E+04  8.90861E+03  2.96893E+04  2.56601E+04  1.67134E+04  2.43930E+04  7.90341E+02  3.01423E+04
 -2.36102E+04  8.39899E+03 -1.76500E+04 -3.00421E+03  1.84607E+03 -9.40387E+03  2.13709E+04  8.62824E+03
  1.12096E+04  3.14074E+04 -2.79250E+04  3.80515E+04 -6.10919E+04 -2.06862E+02 -5.43331E+04 -3.97052E+04
 -1.15919E+04 -6.44992E+04  3.36913E+04 -3.71153E+04  5.94004E+04  1.19096E+03  3.20823E+04  3.37945E+04
 -5.71780E+03  3.33764E+04 -2.96443E+04  1.09680E+04 -2.82480E+04 -2.42776E+03 -1.40944E+04 -1.09843E+04
 -6.66792E+03 -6.43930E+03 -3.68371E+03 -1.47486E+04  6.56214E+03 -2.26925E+04  1.85355E+04 -1.42010E+04
  1.09461E+04  2.43536E+03 -9.74566E+03  1.51475E+04 -1.93084E+04 -3.15392E+03 -1.57094E+04 -2.73292E+04
  2.05405E+04 -4.10604E+04  4.49801E+04 -2.18834E+04  3.84261E+04  1.96354E+04  1.42793E+04  4.41210E+04
 -1.32526E+04  2.76678E+04 -2.18907E+04  1.34997E+03 -1.36046E+04 -2.76517E+04  2.23441E+04 -3.13356E+04
  3.73926E+04 -9.61424E+03  3.60426E+04  2.38241E+04  1.62917E+04  4.19470E+04 -8.34631E+03  4.53167E+04
 -3.34729E+04  3.11525E+04 -3.88337E+04  9.93138E+03 -4.10540E+04 -1.65443E+04 -2.05196E+04 -3.61764E+04
  8.25305E+03 -3.86639E+04  2.72652E+04 -1.29566E+04  2.61514E+04  1.14062E+04  2.77438E+03  1.85648E+04
 -1.43739E+04  7.78955E+03 -5.47482E+03 -4.44989E+03  4.39576E+03 -1.24557E+04  1.68885E+04  5.95152E+03
  1.52052E+04  1.74522E+04 -9.04850E+03  2.64544E+04 -2.50129E+04  6.72935E+03 -2.38193E+04 -3.38077E+03
 -1.88142E+04 -1.79920E+04 -4.79813E+03 -2.21329E+04  3.34797E+03 -1.42624E+04  1.61184E+04 -1.41507E+04
  2.17705E+04 -6.74994E+03  2.53718E+04  7.32734E+01  2.14012E+04  1.36122E+04  4.58555E+03  3.29726E+04
 -1.29718E+04  2.58146E+04 -2.84826E+04  9.30055E+03 -1.51018E+04 -1.15696E+04  1.55397E+03 -1.75662E+04
  3.35874E+03 -1.65723E+03 -2.19647E+03  6.05584E+03 -1.18912E+04  3.32096E+03 -1.40787E+04 -2.51408E+03
 -8.55388E+03 -1.89606E+04  3.11136E+03 -2.18159E+04  1.16899E+04 -1.56027E+04  1.35137E+04 -2.00889E+03
  1.08226E+04  1.50386E+04 -1.78823E+03  1.59469E+04 -1.03053E+04  6.49313E+03 -1.41374E+04 -8.87869E+02
 -1.18391E+04 -1.38805E+04 -5.29086E+03 -2.27000E+04  1.22815E+04 -1.16607E+04  1.81014E+04 -1.22183E+04
  1.74659E+04  3.67213E+03  9.86870E+03  4.85795E+03  2.45530E+03  1.62024E+03  5.01492E+03 -9.45260E+01
  1.39755E+04  1.04905E+03  1.55059E+04  7.20055E+03  1.20308E+04  2.53790E+04 -5.64535E+03  2.94599E+04
 -1.49306E+04  2.21542E+04 -2.18510E+04  1.04693E+04 -2.44230E+04 -2.27383E+01 -2.08582E+04 -1.21807E+04
 -7.67882E+03 -2.43806E+04  7.08873E+03 -1.69922E+04  1.78777E+04 -1.01651E+04  1.49678E+04  2.31771E+03
  3.40261E+03  6.59289E+03 -9.22978E+03  1.19167E+04 -1.63903E+04  2.65693E+03 -9.01553E+03 -8.42680E+03
 -2.94517E+03 -1.15730E+04  7.76433E+03 -3.71192E+03  6.38916E+03 -1.18014E+03 -3.47052E+03  7.80893E+02
 -1.22538E+03  1.93816E+03 -7.38122E+03 -8.75588E+03  3.93241E+03 -1.07675E+04  8.45210E+03 -1.01945E+04
  1.65714E+04 -5.11289E+03  1.27626E+04 -9.81527E+02  1.39233E+04  1.15519E+04  2.74250E+03  1.44064E+04
 -2.52735E+03  1.51026E+04 -6.71726E+03  1.14505E+04 -1.25611E+04  8.52740E+02 -5.11241E+03 -1.38000E+03
 -8.67241E+01 -1.51910E+03 -2.63298E+03  5.56835E+03 -9.16054E+00  3.61034E+02 -4.63170E+03  4.40093E+02
 -9.55648E+03 -2.65881E+03 -6.93847E+03 -8.08076E+03 -8.42853E+02 -1.28961E+04 -1.59896E+03 -7.60346E+03
  8.55917E+03 -2.27533E+03  7.15766E+03  6.06169E+03  8.97298E+02  9.79795E+03 -6.45248E+03 -3.07282E+03
 -1.19116E+03 -5.98743E+03 -1.95425E+03 -1.09497E+04  1.35328E+03 -1.18367E+04  1.11968E+04 -7.24037E+03
  9.22877E+03  6.25028E+02  8.65370E+03  4.67744E+03 -3.85719E+02  1.23532E+04 -7.29158E+03  9.30840E+03
 -6.99325E+03  1.48020E+03 -1.12794E+03 -1.79639E+03  2.46996E+03 -2.10452E+03  5.86939E+03  1.07334E+03
  6.89495E+03  2.39504E+03  4.92086E+01  5.94404E+03 -2.30066E+03  8.58307E+03 -8.45936E+03  4.32937E+03
 -6.80828E+03 -4.26450E+03  2.77550E+03 -4.31589E+03  2.20150E+03 -2.50378E+03  3.06573E+03 -1.02123E+03
 -1.68753E+03  5.49836E+03 -3.96360E+03  7.79480E+03 -7.55606E+03  4.64200E+03 -4.12444E+03 -3.92269E+03
 -3.61401E+03 -9.16830E+03  3.25918E+03 -6.08964E+03  4.25909E+03 -3.42413E+03  7.12088E+03  2.95875E+03
  3.16012E+03  5.63857E+03  1.28966E+03  6.02175E+03 -4.19527E+03  4.38182E+03 -8.25983E+03  1.26738E+03
 -7.19056E+03 -5.67089E+03 -3.32477E+03 -8.02309E+03  8.72180E+02 -6.36860E+03  1.28720E+03 -5.83908E+03
  3.73146E+03  1.57818E+03 -1.35317E+02  8.47386E+02 -1.51859E+03 -9.45999E+02  1.42909E+03 -4.66057E+03
  9.53279E+02 -3.99794E+02  6.77950E+03 -1.08478E+03  6.57222E+03  6.81476E+03  1.42366E+03  1.20880E+04
 -5.86964E+01  6.43887E+03 -3.73002E+03  3.36087E+02 -9.23340E+03  3.60545E+03 -6.37963E+03 -2.71817E+03
 -2.38944E+03 -5.74850E+03  1.49922E+03 -9.27028E+03 -3.42771E+03 -5.28531E+03 -3.80532E+03 -2.52183E+03
 -2.09710E+03 -2.58497E+03  2.62839E+03 -4.09767E+03  1.22979E+03 -7.32189E+02  1.55269E+03 -1.32243E+03
  8.23451E+03  1.21933E+03  8.26438E+03  3.44499E+03 -4.80146E+03 -5.43063E+02 -9.82480E+03  9.12440E+02
 -1.34293E+03 -2.78534E+02 -3.71431E+02 -3.01916E+03  4.95690E+03 -7.81144E+03  5.07854E+03 -3.85436E+03
  3.50012E+03 -4.23043E+03  5.07186E+03  2.42063E+03  4.65105E+03  6.19517E+03  2.31320E+03  5.10689E+03
  9.03488E+01  6.12596E+03 -2.98340E+03  2.11310E+03 -4.45972E+03  3.08354E+02  3.26735E+03  1.49000E+03
 -6.81239E+02 -8.66724E+02 -3.46523E+01  5.23628E+03 -4.74426E+02 -1.46501E+02 -8.17292E+03  2.55016E+03
  2.23526E+02 -2.48376E+03  3.44103E+03 -3.72382E+03  9.81943E+02 -5.33160E+03  5.72406E+03 -7.04697E+03
  5.81468E+03  6.06842E+03  1.89103E+03  3.34662E+03 -2.84053E+03  8.93307E+03 -5.82901E+03  3.83070E+03
 -2.70079E+03  5.61018E+03  1.96540E+02 -2.59111E+03 -2.20909E+03 -4.96612E+03  1.22336E+03 -3.62233E+03
  1.32927E+03  2.60026E+03 -2.92278E+03  3.34227E+03 -3.65367E+03  2.17981E+03  4.07179E+03 -1.39254E+03
 -1.35569E+03 -2.70009E+03  2.07328E+03  5.08837E+03  1.20754E+02  8.26507E+02  6.96215E+02 -5.60002E+03
 -1.69621E+03  5.00577E+03  2.40703E+03  5.28634E+03 -5.47922E+03 -4.95369E+02 -1.60657E+03  5.28605E+03
  3.73710E+01 -5.98716E+03  2.14813E+02 -4.19835E+03  5.52342E+03 -4.20890E+03  3.02241E+03 -4.65607E+03
  3.36683E+03  3.22763E+02  2.39156E+03  6.16097E+03 -1.05267E+04 -3.70903E+01 -1.99562E+03 -4.81034E+03
 -1.19658E+02  4.12859E+02  6.59460E+02 -3.73812E+03  2.98356E+03 -2.80929E+03 -2.35942E+03 -1.04353E+02
 -2.00186E+03  2.82488E+03  7.21085E+01 -3.85196E+02  2.44851E+03  1.80173E+02  2.84862E+03  3.10808E+02
 -1.10058E+03 -1.74713E+03 -9.02189E+02 -9.91052E+02  6.45872E+02  4.39515E+03 -1.11518E+03  6.68513E+02
 -4.23313E+03  2.01422E+03 -1.05789E+03  1.58296E+03 -5.30065E+03  3.10282E+02  1.56026E+03 -1.93696E+03
 -8.26489E+02  9.63034E+02  1.35939E+03 -2.62854E+03  1.86305E+03  3.15864E+03 -4.96497E+03  3.70412E+03
 -3.39017E+03  1.57097E+03 -1.01869E+03 -8.48015E+02  3.66611E+03 -5.56119E+03  5.89072E+02 -1.65464E+03
  2.87827E+03 -3.55199E+03  3.78123E+03  2.77046E+03  1.70081E+03 -1.22156E+03 -1.15690E+03 -1.87331E+02
 -2.04415E+03 -1.78286E+03 -3.41829E+03 -3.51155E+03  4.98308E+03 -2.57002E+03  3.61606E+03 -4.68805E+03
 -9.00053E+02  8.43962E+02  1.68427E+03  8.94811E+02  4.94890E+03  7.19245E+03 -8.18389E+02  5.97794E+02
  3.50960E+03 -2.12236E+03 -2.83712E+03 -8.65415E+02 -1.16050E+03  8.60755E+02  2.19482E+03  1.67484E+03
  4.82102E+02  1.16955E+03  7.51790E+02 -2.54031E+03 -1.48495E+03  6.91691E+02 -1.34272E+03  1.83518E+03
  2.06288E+03  5.94075E+02  1.73356E+03 -2.63109E+03  1.43512E+03  1.89684E+03  3.75226E+03  2.62995E+03
  8.06693E+02 -7.86713E+02 -4.84195E+03 -3.02267E+02 -2.62333E+03  3.21269E+03 -8.05617E+00 -2.20986E+03
 -4.02465E+03 -2.29794E+03  4.13108E+03 -3.07304E+03  4.67035E+03 -1.15044E+03  2.55170E+03 -4.61319E+02
  3.20085E+03  8.97180E+02  4.55704E+03 -2.52973E+03 -3.65335E+03  2.01482E+03 -1.90529E+03  1.24415E+03
 -5.27022E+02  2.54087E+03  4.61276E+02  2.23199E+03  1.39884E+03 -1.80259E+03  3.02481E+03 -3.78666E+03
  2.32566E+03 -1.15732E+03 -1.99645E+03 -1.46124E+03 -1.31548E+02 -2.06255E+03 -3.39219E+03  2.26867E+03
  3.43473E+02 -7.70396E+02  3.46744E+03  2.65985E+02 -1.71077E+01  1.98026E+03  1.14925E+03  9.36844E+02
 -1.25562E+03 -8.97941E+02  6.97635E+02 -6.54088E+02 -3.74762E+03 -2.85019E+03  1.40501E+03 -2.17886E+03
  2.78560E+03  2.46630E+02 -4.18022E+01 -1.43988E+02 -2.65660E+02 -2.20539E+03 -3.68702E+03 -2.08617E+03
 -4.44301E+02  4.90962E+02 -4.74735E+02  1.34367E+03 -2.69367E+03 -2.45773E+03  2.77531E+03 -2.98834E+03
  3.41818E+02  4.74849E+03  2.67247E+03  1.21956E+03 -1.56944E+03 -2.16130E+03  5.29101E+02  3.75298E+03
  6.03275E+02 -3.18268E+02 -1.20321E+03 -1.75601E+03 -3.47599E+03 -9.09964E+02  2.09435E+03  9.06053E+01
  3.98062E+03 -2.01144E+03  2.86748E+03 -9.19014E+02 -4.09848E+02 -2.94199E+03  2.49167E+02  2.20630E+03
 -3.78584E+03 -4.14103E+03 -2.13519E+03 -1.71025E+03 -1.41534E+03  2.28704E+03 -1.69934E+03 -3.79890E+02
  3.18214E+03  1.82589E+03 -2.84090E+02  3.42304E+03 -5.05267E+03 -1.38975E+03 -3.06441E+03 -1.14319E+03
  4.52340E+02 -4.03480E+03  1.45464E+03 -1.43930E+03  3.81750E+03 -2.40756E+03  1.28441E+03  3.65137E+03
  1.00340E+03  1.29544E+03  2.03820E+03  2.62110E+03  3.95120E+03  8.28545E+02 -1.40315E+03 -1.31455E+03
