 $NMID ID='MM_0lb_SNR50_17hz_g55_66.RAW', FMTDAT='(8E13.5)'
 TRAMP=1., VOLUME=1. $END
  3.09173E+05 -3.84108E+02  3.34862E+05  2.45160E+05  8.98397E+04  3.38626E+05 -1.27482E+05  2.50208E+05
 -1.91655E+05  8.84652E+04 -1.09269E+05 -3.05128E+04  4.83088E+02 -5.03244E+04  5.38482E+04 -2.69520E+03
  3.74812E+04  5.63209E+04 -2.12290E+04  7.28460E+04 -5.73309E+04  5.85576E+04 -8.35562E+04  3.43015E+04
 -8.11235E+04 -1.35882E+04 -5.95450E+04 -4.73161E+04 -1.22290E+04 -7.10096E+04  2.54346E+04 -4.67256E+04
  3.87138E+04  2.45352E+03  1.55959E+04  4.79199E+04 -3.19988E+04  4.61022E+04 -6.40469E+04  2.44145E+03
 -5.38078E+04 -6.26723E+04 -3.71503E+03 -7.82272E+04  3.28601E+04 -5.38704E+04  4.75880E+04 -1.78406E+04
  4.13517E+04  1.64806E+04  3.32271E+04  3.03642E+04  1.63105E+04  2.68140E+04 -5.03414E+03  2.78048E+04
 -2.08115E+04  7.86610E+03 -2.13725E+04 -7.07172E+03  2.06517E+03 -1.03629E+04  1.82115E+04  1.15128E+04
  4.73194E+03  3.44100E+04 -3.11426E+04  3.68304E+04 -6.05559E+04  8.26681E+02 -5.83859E+04 -4.24896E+04
 -1.28139E+04 -6.76878E+04  3.90140E+04 -4.21189E+04  5.65620E+04 -1.00768E+03  3.55073E+04  3.22442E+04
 -5.90146E+03  3.42048E+04 -3.27046E+04  1.15303E+04 -2.59192E+04 -3.59743E+03 -1.96434E+04 -1.01410E+04
 -5.23471E+03 -1.60556E+04 -3.65836E+03 -2.22112E+04  6.54349E+03 -1.62694E+04  2.03387E+04 -1.03569E+04
  8.78466E+03  8.19645E+03 -1.16578E+04  1.15643E+04 -2.15313E+04 -4.91460E+03 -7.55968E+03 -3.53291E+04
  2.59970E+04 -4.55471E+04  4.19508E+04 -2.13485E+04  4.52894E+04  1.73730E+04  1.81444E+04  4.36823E+04
 -1.39756E+04  3.17528E+04 -2.14859E+04  3.93826E+03 -7.64343E+03 -2.61727E+04  2.04465E+04 -3.37035E+04
  4.07349E+04 -8.54255E+03  3.31090E+04  2.40077E+04  1.83739E+04  4.46365E+04 -1.03587E+04  4.88440E+04
 -3.39281E+04  2.82028E+04 -4.06616E+04  1.07782E+04 -4.17206E+04 -1.17306E+04 -2.45983E+04 -3.15141E+04
  9.40333E+03 -3.85728E+04  2.49660E+04 -1.13597E+04  2.81604E+04  5.00993E+03  3.65132E+03  1.61520E+04
 -1.08738E+04  6.46594E+03 -8.23253E+03 -9.77375E+03  5.00062E+03 -1.20652E+04  1.74139E+04  3.59085E+03
  1.23567E+04  2.12273E+04 -8.42805E+03  2.17278E+04 -2.14097E+04  1.05703E+04 -2.78105E+04 -3.35675E+03
 -1.69757E+04 -1.60233E+04 -7.51758E+03 -1.33990E+04  1.85368E+03 -1.52830E+04  1.42666E+04 -2.06154E+04
  2.19507E+04 -1.29241E+04  2.78651E+04  5.84917E+02  2.01162E+04  1.64542E+04  4.27612E+03  3.08863E+04
 -1.70414E+04  2.62313E+04 -2.56745E+04  1.10176E+04 -2.08217E+04 -1.12016E+04 -6.22787E+03 -1.14132E+04
  4.83733E+03 -1.03047E+03 -6.06468E+03  4.36020E+03 -1.25189E+04  5.58429E+03 -1.18631E+04 -4.71116E+03
 -8.76530E+03 -1.79954E+04  5.30877E+03 -2.21603E+04  1.61901E+04 -1.18387E+04  1.73708E+04 -3.33793E+03
  1.43766E+04  1.35111E+04 -2.59823E+03  2.18660E+04 -1.28388E+04  7.12178E+03 -1.78330E+04 -3.71049E+03
 -1.25553E+04 -1.50613E+04 -1.63734E+03 -1.89873E+04  8.94110E+03 -1.86847E+04  1.44728E+04 -1.32230E+04
  1.45923E+04 -4.36297E+02  1.35746E+04  7.03303E+03  9.22821E+03 -4.91797E+03  4.07638E+03 -2.39386E+02
  1.18892E+04  5.98043E+03  1.21209E+04  1.47498E+04  1.09582E+04  3.64403E+04 -4.87607E+03  2.73695E+04
 -1.63922E+04  2.54041E+04 -2.68760E+04  1.12458E+04 -2.85785E+04 -3.24907E+03 -2.54027E+04 -2.32446E+04
 -1.40474E+04 -1.94641E+04  8.30640E+03 -2.56869E+04  1.85290E+04 -1.09176E+04  1.47375E+04  5.69738E+03
  7.39984E+03  9.33517E+03 -1.08961E+04  1.07285E+04 -1.29728E+04  3.47579E+03 -1.37819E+04 -1.02809E+04
 -5.91735E+03 -1.70754E+04  5.56966E+03 -1.22839E+04  9.45346E+03 -5.22192E+03  2.22596E+03  1.11339E+04
 -6.54366E+03  3.26004E+03 -6.39940E+03 -1.56720E+03 -4.03459E+03 -9.06827E+03  7.46775E+03 -1.51694E+04
  1.60381E+04 -4.73288E+03  1.48511E+04  6.55452E+02  1.19264E+04  1.28905E+04  3.77602E+03  1.83482E+04
 -1.02762E+03  2.18112E+04 -1.22927E+04  7.64242E+03 -1.14392E+04  2.27645E+03 -8.46264E+03 -5.01931E+03
 -5.35467E+03  3.97445E+02 -1.54397E+03  2.57716E+03 -2.90279E+03  2.98119E+03  2.18998E+02  6.36151E+03
 -8.82139E+03  5.03983E+02 -1.08830E+04 -7.38755E+03 -2.47115E+03 -1.07039E+04  9.23108E+03 -1.45342E+04
  1.10451E+04 -1.44361E+03  6.09611E+03  1.19225E+03  1.76802E+03  2.15453E+03 -3.94396E+03 -2.21494E+03
 -9.23532E+03 -6.58216E+03 -9.03009E+02 -8.29109E+03  2.74862E+03 -7.99329E+03  1.23071E+04 -2.32381E+03
  1.03190E+04  3.21398E+02  8.75556E+03  6.81799E+03  1.23267E+03  8.15949E+03 -2.87489E+03  9.07106E+03
 -1.01465E+04  6.31043E+03 -3.34409E+03  5.27665E+02  4.08207E+03 -1.47894E+03  5.07274E+03  3.29216E+02
  6.53106E+03  3.24904E+03 -1.27887E+02  1.24000E+04 -4.26210E+03  6.90835E+03 -8.71188E+03  4.10962E+03
 -8.81535E+03 -6.45729E+03 -6.82463E+01 -9.74880E+03  5.39446E+03 -2.74138E+03  1.29716E+03  4.21369E+03
  2.32931E+03  6.34566E+03 -4.35180E+03  4.90355E+03 -1.49957E+03  4.75096E+03 -7.34156E+03 -3.70790E+02
 -5.46733E+03 -3.07869E+03  5.00223E+03 -1.31575E+04  2.68351E+03 -4.81269E+03  5.94625E+03 -8.86308E+02
  4.57837E+03  2.77720E+03 -2.46436E+03  8.49077E+03 -7.91360E+03  6.16087E+03 -6.25122E+03  1.59157E+03
 -9.78231E+03 -4.68329E+03 -5.40071E+03 -8.07452E+03  2.96728E+03 -5.12400E+03  5.12439E+03 -7.99399E+03
  3.79785E+03  1.86932E+03  1.16226E+02  7.68869E+02 -1.22257E+03  4.48413E+02 -1.45625E+03 -4.30195E+02
  2.83764E+03  9.16529E+02  9.49641E+03  2.86724E+02  8.40615E+03  5.75129E+03  5.07437E+03  9.85077E+03
 -2.64225E+03  1.21769E+04 -1.14023E+04  8.96345E+03 -1.34231E+04  5.28043E+03 -5.36003E+03 -1.73711E+03
 -6.27712E+03 -6.45111E+03  3.78689E+02 -9.04973E+03  3.63778E+03 -2.71044E+03  1.20665E+03 -3.20651E+03
 -2.27461E+03 -3.68794E+03  4.09110E+03 -2.52707E+03  5.05978E+03 -2.56310E+03  1.36414E+03  2.50916E+03
  3.75823E+03 -1.37016E+03 -2.91614E+03  4.49206E+03 -2.82092E+03  5.21613E+03 -7.23372E+03  1.32499E+03
 -4.89028E+03 -4.51526E+03 -4.42597E+03 -4.30208E+03 -4.87601E+03 -2.02886E+02  7.73363E+03 -8.78806E+03
  5.01033E+03 -4.19904E+02  1.06677E+04  3.94177E+02  5.17773E+03  2.35076E+03 -1.27322E+03  6.53872E+03
 -2.70821E+03  5.39495E+03 -5.00924E+03  3.62517E+03 -5.58068E+02 -3.47585E+01 -5.27314E+03 -2.43918E+03
  6.54193E+02  5.31572E+02 -1.50363E+03  5.94939E+03 -9.24698E+02  3.72682E+03 -3.01007E+03 -1.71299E+02
 -4.95913E+03 -4.23124E+03 -2.14561E+02 -4.74590E+03  2.81850E+03 -3.02814E+03  5.74032E+03 -2.86935E+03
  7.16915E+03  1.23066E+03  3.00350E+03  3.14106E+03 -3.79809E+03  1.19939E+04 -3.35192E+03  1.44102E+03
 -2.67860E+03 -1.78744E+03 -7.27913E+03 -1.24705E+03  6.65868E+02 -5.34872E+03  6.12809E+02 -4.13675E+03
  8.62987E+03 -9.83501E+02  2.02047E+03  4.35785E+03 -9.14043E+02 -3.45770E+03  7.35678E+01 -2.35753E+02
  3.67452E+03  1.55115E+03 -2.10112E+03  1.52121E+02  2.11712E+03  5.66198E+03  5.90007E+03  4.29179E+03
  9.86266E+02  4.54495E+03  2.53573E+03  7.14596E+03 -2.03869E+03  5.83409E+03 -5.50428E+03 -5.35492E+03
  3.62631E+03 -5.45556E+03  3.43972E+03 -4.07668E+03  7.17538E+03 -5.19898E+03  5.51019E+03 -9.20952E+02
  4.90079E+03  2.06001E+03 -7.30264E+02  2.54237E+03 -2.12001E+03  4.46554E+03 -1.11544E+03  5.59025E+03
  2.36022E+03  3.04604E+03  3.58453E+03 -1.04079E+03  3.25164E+03 -2.31554E+03  8.42282E+02 -2.40228E+03
 -6.69011E+02  1.22015E+03 -1.89155E+03  2.76202E+03  3.39294E+03  1.48692E+03  1.51461E+03  9.13706E+02
 -1.94294E+03 -3.24411E+03  4.14311E+03  2.75486E+03  1.56251E+03  3.30818E+02  3.68625E+03 -9.31065E+02
  2.03687E+03  7.55983E+02 -2.63628E+03 -1.24947E+03 -2.40692E+03 -4.25815E+03  9.73159E+02  1.88451E+02
  2.00140E+03 -3.69599E+03 -9.11549E+01 -4.17464E+03 -4.13466E+03  1.32090E+03 -9.77192E+02  1.09791E+03
 -3.24234E+03  6.93102E+02 -6.35105E+03 -5.05301E+03  1.07473E+03 -1.67028E+03 -5.98794E+03 -6.27427E+03
  2.29539E+03 -2.65718E+03  2.52894E+03 -1.89316E+03  2.10590E+03  4.71020E+03  3.70399E+03  1.00949E+03
 -2.45323E+03  7.01004E+03  2.41256E+03  7.22750E+02  1.91504E+03  9.14850E+02  4.03122E+03  1.87222E+03
  3.64822E+03  4.65292E+02  9.41848E+03  3.28391E+03  3.93444E+02  1.76361E+03 -6.97636E+02  3.45292E+03
 -2.88576E+03 -1.02762E+03 -2.46354E+03  1.46132E+03 -3.12156E+03 -1.00851E+03 -6.31026E+02  2.95238E+02
 -2.38857E+03 -6.46733E+03 -2.91972E+02  6.00576E+03 -1.46117E+03 -1.60297E+03  7.53580E+02  2.05840E+03
 -1.05292E+02  8.64435E+02  4.67939E+02  3.28179E+03 -4.87356E+02  3.96837E+03  2.60687E+03  3.15271E+03
 -1.87633E+03 -1.14110E+03  1.25679E+03 -4.85104E+03 -1.51334E+03 -2.20699E+02 -2.81334E+03 -2.53242E+03
 -4.86041E+03  1.84094E+03 -6.06867E+02 -5.07023E+02  2.79138E+03 -7.96088E+03  8.02987E+03  3.58728E+02
  4.10149E+03 -2.61752E+03  2.83713E+02  4.51413E+03 -2.48190E+03  2.19642E+03 -3.29400E+02  3.13941E+03
 -3.57041E+03  3.61521E+02 -4.28642E+03  1.18637E+03 -1.10007E+03 -1.48604E+02  5.28827E+02  3.50433E+02
 -2.34859E+03 -1.80679E+03 -1.69876E+03 -8.98809E+02 -5.13180E+03 -3.16588E+03 -1.35326E+00 -2.05681E+03
  6.04960E+03 -3.50345E+02 -5.82331E+02  2.30106E+03 -3.60098E+03 -6.17737E+01 -1.62977E+03 -1.38396E+03
  3.95092E+03  1.44123E+03 -2.33260E+03 -8.96463E+02  3.13034E+03  1.24307E+03 -1.66511E+03 -5.85722E+03
 -3.18032E+01 -5.73600E+03  2.00060E+03 -5.15439E+03  1.65233E+03  2.93198E+03  3.12569E+03 -6.95973E+02
  6.51681E+03  1.85126E+03 -1.54729E+03 -3.04814E+03 -2.41253E+01  5.91166E+02  4.85386E+02  1.81058E+03
 -5.20675E+02 -1.94873E+03 -1.88278E+03 -7.20881E+02  3.48147E+03  4.12645E+01  2.73836E+03  1.76186E+03
  6.19503E+02  5.53736E+03 -1.17489E+03  2.69308E+03 -6.26193E+02  3.10738E+03 -4.13384E+03 -1.73130E+03
 -1.94862E+03  3.47885E+01  2.04344E+03 -1.09415E+02 -3.87417E+03 -1.93639E+03  5.82202E+03  6.81435E+01
  1.28802E+03  5.14801E+03  9.82338E+02 -5.46971E+03 -4.53325E+03 -3.68691E+03  3.53728E+02 -1.43384E+03
 -4.32281E+02  7.91728E+02  6.29450E+02  1.34709E+03 -4.03828E+03 -8.55370E+02 -1.57236E+03 -6.04817E+03
 -2.33948E+03  3.59451E+02 -2.05703E+03  2.58837E+03 -5.00355E+02 -5.26503E+03 -5.78168E+02 -6.77895E+03
  2.46683E+03 -1.49592E+03  1.72370E+02 -9.34389E+02 -6.16517E+02  4.79043E+03 -2.09566E+03  3.29570E+03
