 $NMID ID='MM_0lb_SNR50_13hz_g60_38.RAW', FMTDAT='(8E13.5)'
 TRAMP=1., VOLUME=1. $END
  3.10613E+05  7.35090E+02  3.32462E+05  2.53062E+05  8.71613E+04  3.38979E+05 -1.32580E+05  2.53933E+05
 -1.90276E+05  8.68275E+04 -1.12628E+05 -3.00945E+04  2.73645E+03 -5.03120E+04  5.83545E+04 -2.95300E+02
  4.00956E+04  5.01263E+04 -1.47018E+04  7.69490E+04 -5.81916E+04  6.40812E+04 -8.44427E+04  3.04724E+04
 -8.48364E+04 -1.58654E+04 -5.31504E+04 -4.72815E+04 -1.62335E+04 -6.80533E+04  3.28755E+04 -4.82062E+04
  4.64319E+04 -7.55933E+02  1.65576E+04  4.54375E+04 -3.52797E+04  5.05428E+04 -6.21368E+04  1.93910E+03
 -5.60359E+04 -5.34468E+04 -3.64317E+03 -8.15111E+04  2.86230E+04 -6.41347E+04  5.25424E+04 -1.66951E+04
  4.53122E+04  1.40300E+04  3.21664E+04  2.38735E+04  1.52494E+04  3.45364E+04 -1.05082E+04  3.09485E+04
 -3.05117E+04  9.11744E+03 -1.59536E+04 -7.72884E+03  9.82281E+03 -9.84894E+03  1.85374E+04  1.17710E+04
  9.51121E+03  3.96981E+04 -3.50626E+04  4.01527E+04 -6.58244E+04 -2.95996E+03 -6.03679E+04 -5.03958E+04
 -1.31193E+04 -6.45126E+04  4.36642E+04 -4.43238E+04  6.05368E+04 -6.61357E+03  4.19417E+04  3.94021E+04
 -3.00378E+03  3.46727E+04 -3.15805E+04  2.04703E+04 -3.54285E+04 -4.83074E+03 -1.97831E+04 -9.41929E+03
 -5.67994E+03 -1.83664E+04  1.94811E+03 -1.77894E+04  4.59167E+03 -2.08594E+04  1.47285E+04 -1.17750E+04
  1.42222E+04  4.94350E+03 -1.02342E+04  1.27594E+04 -1.83269E+04 -2.88651E+03 -1.17922E+04 -3.70331E+04
  2.73038E+04 -4.80631E+04  5.16673E+04 -2.15756E+04  5.18340E+04  2.45874E+04  1.89631E+04  4.49040E+04
 -1.36689E+04  3.26435E+04 -2.72847E+04  1.64819E+03 -8.93792E+03 -2.88615E+04  2.38222E+04 -3.37854E+04
  4.18009E+04 -5.98506E+03  4.19782E+04  2.02891E+04  2.04187E+04  4.66462E+04 -1.01882E+04  5.74764E+04
 -3.75833E+04  3.85150E+04 -4.20807E+04  1.17801E+04 -4.60252E+04 -2.29971E+04 -2.68139E+04 -3.99762E+04
  1.38691E+04 -4.02061E+04  3.33163E+04 -1.58686E+04  2.68898E+04  8.04721E+03  3.16536E+03  2.04960E+04
 -1.20396E+04  6.26318E+03 -1.06415E+04 -5.40030E+03  5.50294E+03 -1.50066E+04  1.82158E+04  5.49261E+03
  8.81683E+03  1.82477E+04 -3.66002E+03  2.70996E+04 -2.69349E+04  1.24080E+04 -2.73213E+04 -1.73892E+03
 -2.32953E+04 -2.12810E+04 -1.02612E+04 -2.19621E+04  6.15040E+03 -2.90713E+04  1.52222E+04 -1.97756E+04
  2.70289E+04 -1.23683E+04  3.85787E+04  6.75474E+03  2.67016E+04  1.95962E+04  6.94905E+03  3.82305E+04
 -1.89055E+04  3.42572E+04 -2.97925E+04  9.70270E+03 -2.18775E+04 -9.39048E+03 -7.01487E+02 -1.41156E+04
 -2.64193E+03 -4.55252E+03 -6.53426E+03  6.61142E+03 -2.14139E+04  7.18240E+03 -2.24656E+04 -9.69906E+03
 -1.07202E+04 -2.02733E+04  8.34418E+03 -2.43450E+04  1.36679E+04 -1.62483E+04  2.39060E+04 -5.33699E+03
  1.39946E+04  1.46594E+04 -6.64118E+03  2.37663E+04 -1.46402E+04  1.66787E+04 -2.34724E+04 -6.14272E+03
 -8.93021E+03 -1.88415E+04 -2.83479E+03 -2.70018E+04  7.66031E+03 -1.96230E+04  1.94000E+04 -8.88696E+03
  2.42625E+04  3.58559E+03  1.57745E+04  1.67070E+03  5.66185E+03 -2.92213E+02  1.10937E+04  2.27849E+03
  1.76941E+04  5.88611E+03  2.58366E+04  2.30052E+04  1.59397E+04  3.52090E+04  8.99466E+02  3.88335E+04
 -1.80698E+04  3.50626E+04 -3.73685E+04  1.72875E+04 -3.58130E+04 -5.24098E+03 -2.97838E+04 -2.10248E+04
 -1.49210E+04 -3.09024E+04  9.11270E+03 -2.81474E+04  2.24028E+04 -1.52344E+04  2.06495E+04  1.62338E+03
  1.12336E+04  2.11974E+04 -8.62326E+03  9.78947E+03 -1.47308E+04  2.53639E+03 -9.61749E+03 -1.07544E+04
  7.26675E+02 -1.91411E+04  8.64145E+03 -1.19407E+04  1.38135E+04 -4.13964E+02  2.49762E+03  9.44365E+03
 -1.14206E+04  1.19201E+03 -5.14672E+03 -2.17688E+03  3.77489E+03 -1.64916E+04  1.41024E+04 -1.09536E+04
  1.85224E+04 -1.05951E+04  2.36770E+04  8.37362E+03  1.42773E+04  1.27494E+04  7.01499E+03  2.39052E+04
 -3.78225E+01  2.40517E+04 -1.54723E+04  1.15205E+04 -1.93341E+04 -3.94385E+03 -8.99831E+03 -5.45194E+03
 -5.06610E+03 -6.51369E+03 -5.48839E+03 -4.74605E+02 -6.45423E+03  6.13309E+00 -6.97569E+03  2.04901E+03
 -1.10302E+04  4.76403E+02 -1.38530E+04 -8.63438E+03  7.99453E+02 -1.35168E+04  5.91249E+03 -1.67372E+04
  1.55679E+04 -9.19462E+03  8.67963E+03  7.80739E+03 -2.84739E+03  6.78662E+03 -2.10643E+03  5.73831E+02
 -4.86900E+03 -2.96221E+03  1.61414E+03 -1.59127E+04  3.50952E+03 -1.65540E+04  1.36417E+04 -5.22113E+03
  1.86510E+04 -5.10178E+02  1.59269E+04  1.41350E+04  2.49996E+03  1.82709E+04 -7.65397E+03  8.05182E+03
 -1.22600E+04  6.50919E+03 -4.18428E+03 -2.34470E+03 -1.43159E+03 -2.92200E+03  8.55905E+03 -4.60052E+03
  8.37792E+03  4.39622E+03 -3.48821E+02  4.63652E+03 -1.01123E+04  5.49743E+03 -8.91999E+03  3.69680E+03
 -8.16437E+03 -6.15873E+03  1.48133E+03 -1.10865E+04  4.98814E+03 -8.67613E+03  8.10506E+03  2.96926E+03
  1.24647E+03  6.58237E+03 -6.47790E+03  1.24684E+04 -1.21612E+04  2.96950E+03 -1.28863E+04  5.52351E+03
 -5.94791E+03 -9.27803E+03  1.91122E+02 -1.28235E+04  1.22587E+04 -1.15700E+04  1.21586E+04  1.88607E+03
  8.78849E+03  1.23290E+04 -4.67237E+01  1.21493E+04 -7.90200E+03  8.51106E+03 -7.44822E+03  4.48634E+03
 -7.68793E+03 -4.38626E+03 -5.83966E+03 -1.00448E+04  7.47647E+03 -5.79752E+03  2.27412E+03 -2.76224E+03
  6.35888E+03  1.40801E+03 -1.48496E+03  2.74018E+03  5.50748E+03 -2.88090E+03 -2.01356E+03 -2.45960E+03
  1.03136E+04 -3.58099E+03  1.07895E+04  3.10355E+02  1.36013E+04  2.64105E+03  3.78993E+03  1.65918E+04
 -7.33285E+03  1.91894E+04 -1.16873E+04  1.47353E+04 -1.95851E+04  5.50168E+03 -1.77667E+04 -5.04095E+03
 -1.02959E+04 -1.32626E+04 -4.57912E+03 -1.32469E+04  3.98876E+02 -6.84963E+03  1.73083E+03 -5.40601E+03
  5.33214E+03 -9.39048E+02  2.84376E+03 -7.01511E+03  1.04873E+04 -7.20614E+03  7.10944E+03 -5.93918E+03
  7.57121E+03  1.87488E+03  1.70670E+03  5.37518E+03  5.15075E+03  1.02085E+04 -1.27117E+04  9.43108E+03
 -8.20651E+03 -2.54168E+02 -6.50671E+03 -5.56830E+03  4.94817E+02 -1.20071E+04  6.19089E+03 -1.05119E+04
  1.47095E+04 -5.84154E+02  1.46794E+04  1.12625E+02  1.04885E+04  1.12176E+04  5.81714E+03  1.14467E+04
 -1.06535E+04  8.72130E+03 -6.27018E+03  5.27697E+03 -8.45039E+03  2.89359E+03  3.37452E+03 -1.52778E+03
 -1.39613E+03  2.11348E+02  5.76028E+03  4.66087E+03 -4.63216E+03  5.89403E+03 -4.52264E+03  2.28133E+02
 -6.19893E+03 -3.41588E+03 -8.10381E+02 -1.27190E+04  7.42986E+03 -5.72342E+03  9.43719E+03 -6.59704E+03
  1.14640E+04  4.90840E+03  5.02516E+03  9.34629E+03  5.98323E+02  9.03843E+03 -2.36606E+03  4.41206E+03
 -6.51611E+03  4.55966E+03 -5.79411E+03 -5.90057E+03  3.83361E+03 -1.28627E+04  4.85444E+03 -8.13028E+03
  8.02007E+03 -4.66675E+03  3.30181E+03  5.35856E+03  8.23642E+03  9.11940E+03  8.69424E+02  5.98732E+02
  2.53752E+03  1.38728E+02  2.80190E+03  6.65167E+02  4.83698E+03  4.72608E+03  3.91218E+03  7.29959E+03
  1.61749E+03  7.49887E+03 -9.73279E+03  1.27854E+04 -1.18773E+04 -3.55626E+02 -1.03688E+04 -5.18494E+03
 -1.63946E+03 -9.60622E+03  5.51896E+03 -1.39114E+04  6.65025E+03 -6.41379E+03  5.66126E+03 -1.03979E+03
  1.11293E+04  5.67101E+03  5.83550E+03  3.99426E+03 -7.30533E+03  5.93514E+03 -8.32669E+03 -2.77162E+03
  4.76403E+03  2.23498E+03  1.13842E+03 -3.29881E+03  6.94001E+02 -1.86486E+03  4.04876E+03  1.12100E+03
 -2.23860E+03 -6.73016E+02  2.12314E+03  6.17204E+02 -3.26812E+02  1.51946E+02  4.57592E+03 -7.72175E+03
 -5.32814E+03  1.70953E+03  1.41680E+03  5.21911E+03 -8.14344E+02  6.26966E+03  3.88808E+02  1.08338E+04
 -6.89449E+03  4.66512E+03 -4.68872E+03 -6.59627E+02 -5.71734E+03 -2.53682E+03 -5.73717E+02 -8.04302E+03
  5.96959E+02 -5.21986E+03  4.46955E+03  4.17789E+03  2.11517E+03  3.34006E+03 -6.12597E+02  4.60767E+03
  2.54197E+03  1.72422E+03 -5.69884E+03 -5.08474E+03  4.35952E+02 -4.88429E+03  3.99031E+03 -2.12796E+03
  3.75501E+03 -9.20549E+02  5.12015E+02 -4.07729E+03  5.54402E+03  1.59328E+02 -1.19220E+03  5.50374E+01
  2.09567E+03 -3.52648E+01 -8.32360E+03 -1.64312E+03 -2.13692E+03 -8.37726E+03  2.63710E+03 -8.02566E+03
  5.73806E+03  3.10352E+01  4.22004E+03  3.32271E+03  4.91084E+03  4.75066E+02 -4.09647E+03  3.94064E+03
 -2.42329E+03 -4.71151E+02 -3.12678E+03 -3.61561E+03  1.36966E+03 -5.11261E+03  2.74706E+02 -4.05113E+03
  3.54430E+03  4.30554E+03 -5.60308E+03  7.71277E+02  1.48478E+03  1.22560E+03 -2.22934E+03 -3.61333E+03
 -1.76146E+03  1.92511E+03  2.29343E+03  1.09123E+03 -1.05194E+02  5.32203E+03 -9.39723E+02  2.95422E+03
 -5.79295E+03  1.10334E+03 -4.77662E+03  2.96778E+03 -3.76476E+03  2.35047E+02 -7.05426E+03 -6.69722E+03
  2.96571E+02 -1.19927E+04  3.38643E+03 -6.85928E+03  4.41958E+03 -1.08480E+04  7.98210E+03 -4.77568E+03
  4.79886E+03  2.30499E+03  5.53402E+03  6.31604E+03  4.19997E+03  3.68237E+03 -5.09597E+03  5.42249E+03
  1.20164E+03  1.31150E+03 -1.24633E+03 -1.40965E+03 -5.85094E+03 -5.28929E+03  1.75981E+03 -1.29589E+02
 -4.72825E+02  1.64700E+03  2.45068E+03 -2.89151E+03 -1.84702E+02 -4.95957E+03  1.67256E+03 -8.25248E+02
  3.21974E+03 -1.09023E+03  7.61881E+02 -2.24626E+03  7.42233E+02  1.88132E+03 -2.34387E+03  2.79266E+03
 -7.64963E+03  2.25585E+03 -3.95451E+03  3.96998E+03 -8.38244E+03 -1.93650E+03 -6.10942E+03 -4.42806E+03
 -1.61099E+03 -6.31947E+03  2.64169E+03 -7.79403E+03  8.39545E+02  3.76142E+03  2.51904E+03  4.06703E+03
  9.11569E+01  3.93211E+02 -5.45511E+03 -1.49041E+03 -2.59303E+03 -6.59774E+02 -2.37682E+03 -9.56782E+02
  4.39051E+03  2.59805E+03 -6.39820E+02  3.33702E+03  1.59587E+03  5.84870E+03  6.30250E+03  3.37875E+03
 -1.38704E+03  1.23402E+03 -6.23986E+03 -4.51971E+02 -5.73291E+03 -2.21124E+03  3.49747E+03 -2.69987E+03
  2.46693E+03 -7.66833E+03  5.12292E+03 -4.74151E+02  1.69408E+03 -1.89768E+03  5.29282E+03  5.55516E+03
  5.44811E+03  7.39096E+02 -1.67735E+03  5.75000E+03 -3.53643E+03 -6.18176E+03  6.08516E+03 -2.61822E+02
  3.60951E+03  1.52330E+02 -2.49770E+03  5.33073E+03 -7.62513E+03  1.83074E+03 -2.30906E+03  3.05060E+02
  1.75647E+03  2.74115E+03  2.26732E+03 -6.63794E+03  2.22610E+03 -1.41526E+03  3.90708E+03 -1.94777E+02
  4.51635E+03  1.87791E+03  1.44354E+03  2.01425E+03 -1.68982E+03  8.08398E+03 -4.53162E+03  2.86332E+03
