 $NMID ID='MM_0lb_SNR50_14hz_g60_74.RAW', FMTDAT='(8E13.5)'
 TRAMP=1., VOLUME=1. $END
  3.04954E+05  1.64486E+03  3.32930E+05  2.53283E+05  8.70918E+04  3.30385E+05 -1.30499E+05  2.55502E+05
 -1.87984E+05  8.45682E+04 -1.10709E+05 -3.21100E+04  5.62393E+02 -4.78461E+04  5.16074E+04 -2.57421E+03
  3.53185E+04  5.89587E+04 -1.52874E+04  7.55127E+04 -6.05111E+04  7.04903E+04 -7.95028E+04  3.23182E+04
 -8.72134E+04 -1.12713E+04 -5.76048E+04 -5.38285E+04 -1.72370E+04 -6.95113E+04  2.51381E+04 -4.31697E+04
  4.50888E+04  6.43766E+03  1.59176E+04  4.78783E+04 -3.79219E+04  4.38576E+04 -6.83702E+04 -7.80485E+01
 -4.79310E+04 -6.04009E+04 -6.38290E+03 -7.53136E+04  3.34732E+04 -5.85842E+04  4.99063E+04 -1.92437E+04
  4.69912E+04  1.68603E+04  3.24520E+04  2.17709E+04  1.73481E+04  2.66926E+04 -6.71248E+03  2.86888E+04
 -2.33505E+04  1.01245E+04 -1.94130E+04 -6.80186E+03  6.11840E+03 -5.56223E+03  2.64224E+04  1.66434E+04
  6.60580E+03  3.56008E+04 -2.79223E+04  3.45857E+04 -6.38765E+04  2.69920E+03 -5.40874E+04 -4.58896E+04
 -1.35889E+04 -6.13069E+04  4.24244E+04 -4.29850E+04  6.05027E+04 -2.62402E+03  3.58036E+04  3.26350E+04
 -9.58061E+03  3.84267E+04 -3.08525E+04  1.67642E+04 -3.48087E+04 -1.97990E+03 -1.70906E+04 -1.11634E+04
 -1.20281E+04 -1.22530E+04  3.73734E+02 -1.68101E+04 -9.87301E+02 -2.59593E+04  1.94574E+04 -1.10244E+04
  8.22522E+03  8.09510E+03 -7.99678E+03  6.01598E+03 -2.17325E+04 -9.69451E+03 -1.01141E+04 -3.84353E+04
  2.22829E+04 -4.29687E+04  5.13776E+04 -2.84809E+04  5.05471E+04  1.92638E+04  1.72564E+04  4.24800E+04
 -1.27082E+04  3.81466E+04 -2.43074E+04  1.06704E+03 -1.12688E+04 -2.49805E+04  2.45301E+04 -3.44815E+04
  3.77692E+04 -6.93272E+03  3.83366E+04  2.43956E+04  1.92808E+04  5.35119E+04 -7.15557E+03  5.67311E+04
 -3.57588E+04  3.30994E+04 -4.15945E+04  7.43374E+03 -4.26975E+04 -1.51712E+04 -3.17980E+04 -4.03962E+04
  4.54332E+03 -4.05061E+04  2.77593E+04 -1.58938E+04  3.21353E+04  9.36343E+03  6.24958E+03  2.43879E+04
 -1.33313E+04  7.12127E+03 -1.26781E+04 -9.24026E+03  5.27329E+03 -1.65596E+04  1.67826E+04  6.51415E+03
  1.76701E+04  2.46670E+04 -6.61053E+03  2.55967E+04 -1.90198E+04  1.60711E+04 -2.83818E+04 -5.09984E+03
 -2.21924E+04 -1.59899E+04 -6.59434E+03 -1.87126E+04  2.07540E+03 -2.47645E+04  1.38780E+04 -2.02390E+04
  3.13480E+04 -1.55939E+04  3.64903E+04  5.35815E+03  2.63780E+04  2.16673E+04  9.29024E+03  3.69178E+04
 -1.80791E+04  3.05890E+04 -2.86406E+04  9.26643E+03 -1.81834E+04 -4.62917E+03 -3.84849E+03 -1.96707E+04
 -2.94122E+03 -7.05368E+03 -8.96310E+03  8.07301E+03 -1.60511E+04  1.01597E+04 -1.59336E+04 -1.34003E+04
 -1.30726E+04 -2.16275E+04  9.36866E+03 -2.66827E+04  1.84251E+04 -1.93799E+04  1.53421E+04 -4.89195E+03
  1.23095E+04  1.47540E+04  1.69791E+03  2.16781E+04 -9.52700E+03  1.17719E+04 -1.75957E+04 -8.59327E+03
 -1.45230E+04 -1.89471E+04  3.48292E+02 -2.60615E+04  9.75006E+03 -1.87588E+04  2.27029E+04 -1.32964E+04
  1.88515E+04  3.24137E+03  1.58489E+04  1.88868E+03  8.45315E+03  2.74192E+03  1.29990E+04  2.43486E+03
  2.11176E+04 -1.17820E+03  2.14205E+04  1.40231E+04  1.20313E+04  3.51747E+04 -5.41174E+03  3.90272E+04
 -1.84754E+04  3.16385E+04 -3.44210E+04  1.59895E+04 -3.59788E+04 -3.37768E+03 -2.92484E+04 -1.47603E+04
 -1.25778E+04 -2.92924E+04  1.51484E+04 -2.08412E+04  2.17286E+04 -1.06021E+04  1.99064E+04  5.65466E+03
  6.50688E+03  1.83765E+04 -1.78113E+04  1.15977E+04 -1.84674E+04  1.10072E+03 -1.51421E+04 -5.92043E+03
  3.95203E+01 -1.77715E+04  8.78118E+03 -1.44983E+04  1.17738E+04 -2.22250E+03 -2.65390E+02  4.17782E+03
 -1.06310E+04  3.19211E+03 -3.59953E+03 -4.90552E+03  4.41188E+03 -1.44626E+04  1.13887E+04 -1.03752E+04
  1.83290E+04 -4.74961E+03  1.88523E+04  2.37876E+03  1.64670E+04  1.15453E+04  8.62450E+03  2.54489E+04
 -3.78376E+03  2.10199E+04 -1.51127E+04  1.77220E+04 -1.45664E+04  2.61685E+03 -1.22287E+04  1.04153E+03
 -2.88162E+03 -2.09098E+03 -3.05977E+03  4.27862E+03  1.71734E+03  3.27415E+03 -2.52228E+03  2.55217E+03
 -1.00685E+04  3.73272E+03 -1.22489E+04 -1.12276E+04 -3.98318E+03 -2.25182E+04  2.92088E+03 -9.75058E+03
  5.85924E+03 -4.96667E+03  7.08152E+03  2.67909E+03  2.90863E+03  3.76273E+03 -5.58170E+03  3.52603E+03
 -6.45143E+03 -6.61115E+03  3.69360E+03 -1.00950E+04  3.01314E+03 -1.59506E+04  1.51280E+04 -6.81742E+03
  1.22595E+04 -5.88842E+02  1.19605E+04  1.00853E+04  6.69852E+03  1.85183E+04 -7.48702E+03  1.80607E+04
 -2.01628E+04  4.88733E+03 -1.86123E+03 -2.55449E+03 -2.46540E+03 -2.84143E+03  5.91992E+03  1.30559E+03
  4.99906E+03  6.04640E+03 -1.62872E+03  9.19899E+03 -1.01109E+04  7.43076E+03 -1.63074E+04  1.00152E+03
 -4.81759E+03 -5.73957E+03 -4.53220E+03 -1.30057E+04  2.58176E+03 -1.02339E+04  1.03237E+04  2.86865E+03
  1.81723E+03  9.55012E+03 -9.92684E+03  9.50792E+03 -7.27785E+03  3.95498E+03 -7.08822E+03 -4.39116E+03
  5.63984E+03 -1.31183E+04 -1.42875E+03 -1.35127E+04  9.99739E+03 -6.78716E+03  8.69860E+03  2.34348E+03
  2.21751E+03  9.01140E+03 -3.46331E+03  1.20263E+04 -1.21202E+04  4.70307E+03 -8.25374E+03 -1.66194E+03
 -2.43263E+03 -8.44371E+03  1.07130E+03 -7.20907E+03  1.48488E+03 -9.23166E+03  9.58380E+03 -5.08527E+03
  9.37132E+03 -1.91685E+02  2.26735E+03  2.25975E+03 -2.87372E+03 -6.77423E+02  4.50275E+03 -2.87594E+03
  8.38979E+03 -4.82351E+03  1.45296E+04  1.45082E+03  1.04857E+04  1.01704E+04  1.15484E+04  1.52437E+04
 -8.54807E+03  1.64491E+04 -1.35869E+04  9.26115E+03 -2.37022E+04  6.67005E+03 -1.29325E+04 -4.41207E+03
 -8.82573E+03 -6.82035E+03 -6.24889E+02 -5.85373E+03  4.22820E+03 -7.18915E+03  7.83793E+03 -5.11273E+03
  2.66162E+03 -1.30718E+03  8.80807E+03 -3.65543E+03  4.02481E+03 -8.25374E+03  6.93983E+03  2.51523E+03
  3.45492E+03 -1.13536E+03  1.41041E+03  4.25168E+03 -3.47115E+03  1.08306E+04 -6.39133E+03 -1.02611E+03
 -1.13205E+04 -1.39982E+03 -5.60473E+03 -3.63365E+03  1.63556E+03 -1.44548E+04  7.24767E+03 -1.01068E+04
  7.36019E+03 -6.25988E+03  1.18444E+04  2.47243E+03  7.91222E+03  1.10364E+04  7.07812E+03  8.10074E+03
 -4.19838E+03  8.02129E+03 -5.90656E+03  2.21839E+03 -2.33320E+03 -8.18457E+03  2.30092E+03 -6.54995E+02
 -1.75723E+03 -7.85157E+01 -1.18258E+03  2.36812E+03 -5.67048E+03  3.53681E+03 -7.18090E+03 -2.05340E+03
  1.36867E+03 -7.60324E+03  3.71792E+03 -1.45612E+04  5.48785E+03 -7.94238E+03  1.35648E+04  2.64893E+03
  1.17637E+04  3.62510E+03  3.24207E+03  7.89886E+03  6.97423E+02  3.78709E+03 -2.91890E+03  7.57296E+03
 -8.07413E+03  1.25209E+03 -6.81171E+03 -5.00668E+03 -3.73057E+03 -1.09888E+04  9.38064E+03 -4.74861E+03
  8.55928E+03 -3.41516E+03  6.98776E+03  1.05391E+02 -3.13937E+03  8.12950E+03  2.85008E+03  2.13333E+02
  6.52823E+03  3.82254E+03  5.50591E+03  1.17603E+03  2.48071E+03  5.70657E+03  4.71780E+03  8.22414E+03
 -4.17554E+03  1.03832E+04 -7.84045E+03  9.28694E+03 -7.19955E+03 -1.71590E+03 -1.04874E+04 -9.82641E+02
 -3.44966E+03 -7.24748E+03  1.63345E+03 -1.23039E+04  3.95869E+03 -5.54367E+03  6.79771E+03 -1.69990E+03
  9.41284E+03  2.06337E+03  1.23034E+03  6.64427E+03 -7.38302E+03  2.65325E+03 -6.17444E+03 -3.78849E+03
 -4.92564E+03  9.81558E+02  7.97691E+02 -5.10917E+03  1.97976E+03 -7.73122E+02  8.96317E+03 -1.79054E+03
  5.36583E+03  1.14173E+03  1.30251E+02  1.45070E+03  1.57655E+02  2.35548E+03  2.04514E+02 -1.53598E+03
 -2.67586E+03 -6.89144E+01  3.74027E+03  2.87417E+03  1.12814E+03  5.13356E+03 -8.75496E+02  2.68496E+03
 -3.97326E+03  3.63126E+03  2.27945E+02  1.63513E+03 -2.37353E+03 -1.13546E+03 -5.25598E+03 -5.44498E+03
 -1.27023E+03 -3.95163E+03  8.07365E+03 -1.29626E+03  5.18109E+03  5.78904E+02 -9.76425E+02  2.85177E+03
  9.05392E+02 -1.48957E+03 -5.85192E+03 -3.24804E+02 -1.19683E+03 -5.50530E+03 -1.52730E+02 -4.95831E+03
 -1.21038E+02 -3.61299E+03  1.41830E+03  1.32559E+03  5.99640E+03  3.38627E+03  4.54124E+03  1.16069E+03
  5.21473E+00  8.03899E+03  3.97604E+02  4.30356E+03 -1.99869E+03 -3.98908E+03 -3.97453E+02  5.98923E+02
  2.56537E+03 -1.91266E+03 -2.66132E+02 -1.30360E+03  2.05093E+02  4.92460E+03 -1.71369E+03  1.08811E+04
  2.27271E+03 -1.48457E+03 -4.97231E+03 -6.89742E+03  1.22762E+03 -9.10275E+02 -3.74300E+03 -4.14781E+03
  5.18550E+03 -2.47808E+03  2.75508E+02  5.75507E+03  2.39402E+03  6.91951E+03  4.04538E+02  8.37652E+03
  2.04772E+03  2.73427E+03 -3.40498E+03 -3.10574E+02  9.12708E+03  1.13088E+02  5.51850E+02 -4.22853E+03
 -3.27291E+03 -6.13268E+02 -2.02470E+03 -1.01080E+03 -1.48987E+03 -1.31666E+02 -2.30019E+03 -5.87821E+03
  1.70484E+03 -7.90508E+03  3.74995E+03 -3.09623E+03  5.64679E+03 -4.81257E+03  1.05181E+04  5.13320E+03
  3.24147E+03  3.65339E+03  1.07409E+03  6.48102E+03 -1.18272E+03  2.38929E+03  4.05193E+03  4.28466E+03
 -7.08877E+03  5.12620E+03  1.47582E+03  2.63872E+03 -4.53141E+02 -1.52276E+03 -3.10520E+03  3.03104E+03
 -1.97747E+03  3.96910E+03  4.77559E+03  1.45255E+03 -4.91932E+03 -3.60346E+03 -5.15127E+02 -4.08400E+03
  3.09624E+03 -5.19257E+03  9.17204E+03  3.22448E+02  1.18933E+03  3.98823E+03  2.65893E+03  2.59178E+03
 -1.43071E+03  7.49467E+03 -4.81877E+03  1.86342E+03 -7.18157E+03 -3.23806E+03 -4.43948E+03 -1.63460E+03
 -2.98930E+03 -3.10264E+03  1.67586E+03 -6.32648E+03  5.10413E+03 -2.13895E+03  9.23952E+03  1.75281E+03
 -1.53513E+03 -1.79487E+03 -4.57798E+03  1.86806E+03 -1.94275E+03  1.53866E+03 -1.37458E+03  5.36353E+02
 -7.67600E+02 -4.70704E+02  3.25858E+03 -1.13171E+03 -1.22018E+02 -7.91460E+01 -1.88439E+03  3.06926E+03
  1.46094E+03  1.58364E+03 -2.04332E+03  3.18645E+03  4.20180E+02 -5.11972E+03  3.66890E+03 -3.61435E+03
 -1.33074E+02  4.48206E+02  1.31849E+03 -1.72525E+03  4.02280E+03 -1.21045E+03 -3.50860E+03  1.79346E+03
  9.46420E+01  6.48161E+03 -9.07092E+02  8.42771E+02  2.38743E+03 -2.48057E+03 -2.23987E+03 -1.51951E+03
  4.10204E+03 -5.24997E+03 -1.29643E+02 -8.48767E+02 -2.31734E+03 -1.55472E+03 -6.07288E+03  1.28145E+03
 -2.77325E+03  1.75832E+02  7.84557E+02 -1.37851E+03  1.55634E+03 -2.54689E+03  5.03394E+02 -1.83724E+03
  1.17866E+03 -2.21048E+03  2.39585E+03  6.25636E+01  6.11432E+03  1.84203E+03  4.64192E+02  4.35848E+03
