 $NMID ID='MM_0lb_SNR50_9hz_g40_67.RAW', FMTDAT='(8E13.5)'
 TRAMP=1., VOLUME=1. $END
  3.06638E+05  7.12287E+02  3.35130E+05  2.53880E+05  8.40933E+04  3.37891E+05 -1.26906E+05  2.49607E+05
 -1.86901E+05  8.45311E+04 -1.21689E+05 -3.56402E+04  4.28435E+03 -4.79938E+04  4.89331E+04 -3.52599E+02
  4.21816E+04  5.58112E+04 -1.38988E+04  8.08561E+04 -5.57933E+04  6.65481E+04 -8.28351E+04  3.59111E+04
 -8.24624E+04 -6.80458E+03 -5.59308E+04 -5.29877E+04 -1.60631E+04 -6.81466E+04  2.33010E+04 -4.99433E+04
  4.21595E+04  9.08053E+03  1.56838E+04  4.67794E+04 -2.88462E+04  4.74567E+04 -7.16160E+04  6.50108E+02
 -5.80161E+04 -5.86840E+04 -1.34569E+04 -7.55854E+04  3.52307E+04 -5.60384E+04  4.97133E+04 -1.84492E+04
  4.23632E+04  8.83407E+03  3.68402E+04  2.91714E+04  1.76090E+04  3.34832E+04 -8.08241E+03  2.90071E+04
 -1.76050E+04  1.81521E+04 -2.43411E+04 -1.02122E+04  4.27289E+02 -2.32217E+03  2.36538E+04  1.63076E+04
  4.54311E+03  4.19094E+04 -3.15537E+04  3.98739E+04 -6.62816E+04  1.21104E+03 -6.14283E+04 -4.54869E+04
 -1.77365E+04 -6.07895E+04  3.86609E+04 -4.27297E+04  5.76047E+04 -5.13141E+03  3.11470E+04  3.62649E+04
 -2.67461E+03  3.37303E+04 -3.34727E+04  2.16609E+04 -3.31522E+04 -3.09336E+03 -1.88430E+04 -8.04245E+03
 -1.35192E+04 -1.07636E+04 -2.84073E+02 -1.35461E+04  3.69086E+03 -2.40769E+04  1.44060E+04 -7.49339E+03
  4.66788E+03  2.98140E+03 -1.00809E+04  1.00368E+04 -2.17470E+04 -8.52615E+03 -7.37213E+03 -3.39623E+04
  2.49239E+04 -4.46690E+04  5.56052E+04 -2.13402E+04  4.47833E+04  2.10882E+04  2.00885E+04  4.28944E+04
 -1.31492E+04  4.08840E+04 -2.34524E+04  6.95926E+03 -7.43560E+03 -3.23487E+04  2.21338E+04 -3.80392E+04
  4.23758E+04 -1.11492E+04  4.44133E+04  2.27635E+04  1.91146E+04  4.60217E+04 -8.51919E+03  5.31171E+04
 -2.98801E+04  3.84968E+04 -4.46066E+04  6.88811E+03 -4.70339E+04 -2.16859E+04 -2.67927E+04 -4.28602E+04
  4.27545E+03 -3.80717E+04  3.62940E+04 -1.71982E+04  3.26526E+04  1.85470E+04  4.15175E+03  1.66529E+04
 -1.22619E+04  6.23313E+03 -7.36068E+03 -1.04363E+04 -9.63233E+02 -1.46923E+04  2.04796E+04  1.61554E+03
  9.57361E+03  1.52245E+04 -9.30215E+03  2.48710E+04 -2.39951E+04  1.47640E+04 -3.23147E+04 -6.33774E+03
 -2.09084E+04 -1.61606E+04 -1.27322E+04 -2.42843E+04  2.48933E+03 -3.17690E+04  1.72123E+04 -2.00231E+04
  2.88447E+04 -1.46263E+04  4.32712E+04  2.26758E+03  2.38372E+04  2.68098E+04  5.11331E+03  4.44000E+04
 -2.23498E+04  2.71827E+04 -3.18176E+04  9.62985E+03 -2.70540E+04 -6.99211E+03 -5.42138E+03 -7.96363E+03
  5.14890E+03  7.45276E+02 -8.65199E+03  4.50876E+03 -1.75671E+04  6.47782E+02 -2.11863E+04 -1.12221E+04
 -1.35713E+04 -2.15245E+04  4.86615E+03 -2.21733E+04  1.61362E+04 -1.82425E+04  2.30018E+04 -8.03785E+02
  1.38072E+04  1.28131E+04 -2.49561E+03  2.49592E+04 -1.70362E+04  4.75799E+03 -2.28116E+04 -1.42083E+03
 -1.61279E+04 -1.98826E+04 -1.68195E+03 -3.22911E+04  1.55549E+04 -2.71009E+04  1.43112E+04 -2.03577E+04
  2.43367E+04 -2.53093E+03  1.65433E+04  6.31779E+03  1.63845E+04 -2.13252E+03  1.85876E+04 -7.14631E+03
  2.49953E+04  6.49976E+03  2.50045E+04  1.89435E+04  1.52142E+04  3.24451E+04 -2.77720E+02  4.38729E+04
 -2.72069E+04  3.25699E+04 -4.10685E+04  1.84593E+04 -4.30250E+04 -5.59993E+03 -3.61852E+04 -2.67502E+04
 -1.27886E+04 -4.02611E+04  1.39631E+04 -2.94043E+04  2.34554E+04 -1.46265E+04  1.72656E+04  4.19654E+03
  5.52707E+03  1.90835E+04 -1.57888E+04  1.62591E+04 -1.74480E+04  2.28923E+03 -1.34834E+04 -1.49034E+04
  5.04489E+02 -1.17607E+04  1.37725E+04 -1.94866E+04  1.00779E+04 -1.12234E+03  1.01573E+04  9.31345E+03
 -1.34303E+04  2.25266E+03 -7.51938E+03 -7.46559E+03 -5.41382E+02 -1.31634E+04  1.42596E+04 -1.97125E+04
  2.60635E+04 -1.08698E+04  2.69911E+04 -5.61196E+01  3.00571E+04  2.07301E+04  6.12172E+03  2.88576E+04
 -6.52907E+03  2.79861E+04 -2.11081E+04  1.74987E+04 -2.18636E+04  5.94422E+03 -1.65113E+04 -2.13428E+03
 -1.12254E+04 -8.41141E+03 -2.72546E+03  5.11337E+03 -8.76593E+01  4.52312E+03 -3.99186E+03  7.59042E+03
 -1.58120E+04 -4.63869E+03 -1.20433E+04 -9.03309E+03 -1.37314E+03 -1.37729E+04  7.92321E+03 -1.32810E+04
  1.71628E+04 -6.07192E+03  1.29654E+04  2.58940E+03  1.60251E+03  6.91523E+03 -5.37044E+03  6.10863E+03
 -5.55925E+02 -5.93484E+03 -5.10816E+03 -1.99476E+04  1.41815E+04 -1.89336E+04  1.41326E+04 -8.92285E+03
  1.76262E+04 -5.23963E+03  1.20563E+04  1.46385E+04  6.67801E+03  2.22272E+04 -7.19895E+03  1.88257E+04
 -1.10754E+04  4.15997E+03 -7.91320E+03 -1.66182E+03  3.34130E+03 -3.34069E+03  4.97946E+03 -5.91656E+03
  8.95541E+03  6.68272E+03 -3.63667E+03  1.24529E+04 -1.41434E+04  1.20837E+04 -1.92450E+04 -1.10196E+03
 -1.01296E+04 -3.34793E+03 -2.58540E+03 -1.70640E+04  1.17665E+04 -5.61531E+03 -2.61197E+03 -6.91477E+02
  4.19959E+03  1.08524E+04 -1.35516E+03  7.31755E+03 -1.45877E+04  4.59364E+03 -7.84165E+03 -5.93590E+03
 -6.19726E+03 -1.10438E+04  1.69514E+02 -2.45532E+04  1.71485E+04 -9.37092E+03  1.68096E+04  3.91404E+03
  6.09890E+03  1.62809E+04  2.93375E+03  1.50480E+04 -1.26173E+04  1.09256E+04 -1.17288E+04 -7.78105E+02
 -9.28194E+03 -1.06535E+04 -7.05927E+03 -1.48706E+04  3.50935E+03 -1.63389E+04  8.63062E+03 -4.13229E+03
  9.81320E+03  3.11532E+03 -1.06541E+03  5.40072E+03  2.09946E+03 -6.88537E+02 -5.56081E+03 -1.94404E+03
  7.41567E+03 -5.59833E+03  1.33344E+04  7.38443E+03  1.10596E+04  1.54675E+04  1.60358E+04  1.67085E+04
  1.10702E+03  2.39517E+04 -2.03849E+04  1.91864E+04 -1.98458E+04 -3.77385E+03 -2.08701E+04 -6.67470E+03
 -1.44282E+04 -1.94027E+04  1.65172E+03 -1.32792E+04  6.26114E+02  2.28679E+02  1.76633E+03 -9.49360E+03
  4.09559E+03  1.88190E+02  1.84544E+03 -1.99048E+03  2.52107E+03 -2.25894E+03  1.27015E+04 -5.22416E+03
  5.41130E+03  1.02830E+03  2.84220E+03  7.15845E+03  4.21283E+03  4.17553E+03 -1.15512E+04  1.19728E+04
 -1.20848E+04 -2.43098E+03 -5.88373E+03 -7.45222E+03  8.77496E+02 -1.11274E+04  7.03719E+03 -1.23286E+04
  1.64966E+04 -5.86831E+03  1.98200E+04  6.87371E+03  2.13358E+04  1.98669E+04  2.26562E+03  1.58244E+04
 -2.02617E+03  8.49256E+03 -1.19604E+04  6.61872E+03 -7.39164E+03 -6.72331E+03 -6.57050E+03 -3.97003E+03
  1.36487E+03  1.61435E+03 -2.50754E+01  1.93956E+03 -2.11881E+03  6.99963E+03 -1.48483E+03  5.59140E+02
 -8.69234E+03 -1.24312E+04 -6.54234E+03 -7.00660E+03  1.05361E+04 -1.57246E+04  1.79081E+04 -4.52909E+03
  1.25549E+04  7.58673E+03  1.15677E+04  1.72190E+04 -8.11918E+03  1.22711E+04 -8.92116E+03  7.65790E+03
 -1.11160E+04  2.39380E+03 -5.00496E+03 -1.00978E+04  9.18413E+02 -1.22158E+04  5.29900E+03 -9.28623E+03
  9.71665E+03 -3.62163E+03  3.99206E+03  2.02228E+03  5.10072E+03  2.46463E+03  8.29942E+03 -1.06864E+03
  5.41382E+03  1.71069E+03  7.54672E+03 -1.42845E+02  8.69786E+02  6.22776E+03  5.95387E+03  7.89868E+03
 -1.18887E+03  8.11752E+03 -1.30189E+04  7.71521E+03 -1.33447E+04  3.74470E+03 -1.45851E+04 -4.78050E+03
 -8.54470E+03 -1.65222E+04  8.05240E+01 -1.45992E+04  9.88296E+03 -1.32964E+04  1.47958E+04 -5.34747E+03
  1.00413E+04  7.43266E+03  3.18658E+03  7.71403E+03 -8.22280E+03  2.96890E+03 -7.82398E+03  4.96685E+03
 -5.78548E+03 -4.49289E+03 -7.11019E+03 -9.03242E+03  8.43879E+03 -8.10066E+03  2.64284E+03  4.44696E+03
  1.73998E+03  6.16835E+03 -2.67420E+03  9.17284E+01 -3.87195E+03  2.25491E+03 -2.21905E+02  4.22912E+03
  8.22082E+01  1.60090E+03  3.10684E+03 -5.68955E+03  6.09770E+03  4.26699E+03 -3.84384E+03  3.19388E+03
 -4.67801E+03  6.43221E+03 -1.05603E+04  5.53526E+03 -2.41608E+03  2.39429E+03 -4.93114E+03 -3.00650E+03
 -6.16750E+03 -3.50345E+03  1.60955E+03 -1.45932E+03  5.08479E+03  4.03342E+03 -9.47351E+01  8.40570E+03
 -4.40922E+03  3.81900E+02  5.08420E+03 -5.44204E+03 -6.37873E+03 -1.01037E+04  2.29017E+03  3.60190E+02
  6.37337E+03 -1.22404E+03  1.03893E+04 -9.74011E+03  6.51740E+03 -7.09457E+01  2.96946E+03  6.46082E+02
 -9.74544E+02  4.31370E+03 -6.49629E+03 -2.43735E+03  8.09704E+03 -7.56128E+03  1.30986E+04 -3.71085E+02
  1.70206E+04 -3.89578E+03  7.07507E+03  3.68548E+03  2.29841E+03  7.57380E+03 -7.15493E+03  1.21030E+04
 -1.15608E+04  4.28559E+03 -5.86825E+03 -6.69417E+03  1.99147E+02 -6.59695E+03  3.34073E+03 -2.43244E+03
  4.63662E+03 -5.26512E+03  3.09910E+03 -6.20678E+02 -3.12122E+03 -4.21040E+02  2.62863E+03  2.78948E+03
  2.31774E+03  2.18534E+03  9.69053E+02 -1.40784E+02 -5.91142E+03 -1.85633E+03 -4.82622E+03 -1.70099E+03
 -2.72556E+03  7.82036E+03 -7.12653E+03  3.87551E+03 -1.59719E+04  2.94561E+03 -1.08837E+04 -6.82819E+03
 -6.46892E+03 -1.46701E+04  7.49357E+03 -7.61057E+03  1.16969E+04 -2.75436E+03  1.66744E+04 -6.85563E+03
  8.59854E+03 -5.22045E+02  4.01240E+03  1.88848E+04 -3.14409E+03  4.40675E+03 -5.44869E+03  5.44068E+03
 -1.83481E+03  2.73851E+03 -5.99407E+03 -3.05300E+03 -4.13971E+03  2.70355E+03  2.05987E+03  2.28855E+03
 -8.31627E+02  2.13251E+03 -8.46852E+03 -1.53386E+03 -2.08336E+02 -3.20923E+03 -1.58992E+03 -4.23080E+03
 -1.14140E+02 -5.75438E+03  1.04704E+04  6.65853E+03 -2.29817E+03  7.94363E+03  5.03466E+03  8.20611E+03
 -6.12683E+03  1.37669E+04 -1.11632E+04  3.03753E+02 -1.15838E+04  5.72918E+02 -5.85279E+03 -6.80065E+03
 -4.77461E+03 -1.11786E+04  8.64754E+03 -6.69381E+03  1.46971E+03 -5.93515E+03  1.00312E+04  8.15122E+03
  1.45208E+03  5.78926E+03  1.21909E+03  2.98977E+03  5.14370E+03 -1.75380E+02  7.22843E+02 -3.27367E+03
  5.21832E+03 -4.42676E+03 -3.95588E+03  5.36602E+02  3.55563E+03  2.08545E+03  3.80063E+03  6.97956E+03
 -1.24842E+03  7.49405E+03 -7.34931E+03  2.14996E+03 -8.65669E+03 -6.22215E+03 -5.93374E+03 -4.56050E+03
  1.64161E+03 -1.00881E+04  1.01424E+04 -1.09450E+03  8.44588E+03  2.55724E+03  8.53801E+03  1.71089E+03
 -3.85481E+02  8.44469E+02  2.50470E+03 -1.81473E+03 -4.12210E+02  7.92483E+03 -6.73346E+02 -2.36188E+03
 -4.69719E+03  4.91264E+03 -9.12018E+02 -6.88095E+02 -3.42570E+03  7.22550E+02 -5.92686E+03 -1.21375E+03
 -2.64511E+03  1.15927E+03 -5.06834E+03 -6.98339E+03  5.63997E+03 -5.40721E+03  9.40401E+03 -7.46499E+02
  6.75571E+03  1.81688E+03 -2.55327E+02  8.08157E+02 -4.01874E+03  1.37698E+04 -6.61410E+03  7.71910E+03
