 $NMID ID='MM_0lb_SNR50_20hz_g55_46.RAW', FMTDAT='(8E13.5)'
 TRAMP=1., VOLUME=1. $END
  3.11711E+05 -8.87118E+02  3.38002E+05  2.49143E+05  8.44044E+04  3.36489E+05 -1.29320E+05  2.49218E+05
 -1.87231E+05  8.43356E+04 -1.09171E+05 -3.36695E+04  1.64430E+03 -4.94543E+04  5.17529E+04 -2.10499E+03
  3.63307E+04  5.26317E+04 -1.76311E+04  7.50507E+04 -5.64990E+04  5.68822E+04 -8.03350E+04  2.95166E+04
 -8.11949E+04 -8.70998E+03 -5.78640E+04 -5.07467E+04 -1.45813E+04 -7.05212E+04  2.74044E+04 -4.10747E+04
  3.59240E+04  2.62392E+03  1.65065E+04  4.44280E+04 -3.46731E+04  4.51612E+04 -6.44714E+04  6.45572E+02
 -4.97096E+04 -5.34579E+04 -6.94126E+03 -7.41992E+04  3.31896E+04 -5.56109E+04  4.65134E+04 -1.45850E+04
  4.12381E+04  1.02622E+04  3.10348E+04  2.20852E+04  1.80831E+04  2.98332E+04 -5.66827E+03  2.68613E+04
 -2.11937E+04  1.25465E+04 -2.18763E+04 -5.96791E+03  5.60932E+03 -5.50983E+03  1.95769E+04  9.47492E+03
  6.44551E+03  3.29785E+04 -3.51330E+04  3.66111E+04 -6.31830E+04  1.14789E+03 -5.43271E+04 -4.18372E+04
 -1.16725E+04 -6.31921E+04  3.68120E+04 -4.15596E+04  5.82673E+04 -1.62080E+03  2.82824E+04  3.13370E+04
 -6.03609E+03  3.53559E+04 -3.03662E+04  1.69785E+04 -2.38730E+04 -2.40287E+03 -1.17242E+04 -1.22338E+04
 -6.55767E+03 -9.36987E+03 -1.77788E+03 -1.69964E+04  8.27392E+03 -2.31402E+04  1.69087E+04 -1.39519E+04
  1.07653E+04  5.72498E+03 -4.95520E+03  1.25068E+04 -1.88680E+04 -4.45183E+03 -7.12715E+03 -3.26800E+04
  2.01838E+04 -4.15711E+04  4.56923E+04 -1.99023E+04  4.22365E+04  1.58393E+04  1.16467E+04  4.34394E+04
 -1.73469E+04  3.07826E+04 -2.28942E+04  1.63388E+03 -7.81082E+03 -2.49205E+04  1.81451E+04 -3.17797E+04
  3.97776E+04 -1.04720E+04  3.06245E+04  1.93145E+04  1.45237E+04  4.63440E+04 -7.48014E+03  4.41221E+04
 -3.00709E+04  2.68333E+04 -3.68548E+04  6.43033E+03 -3.60951E+04 -1.74467E+04 -2.60455E+04 -3.05026E+04
  5.23974E+03 -3.56794E+04  2.63679E+04 -1.07324E+04  2.47125E+04  1.21385E+04  1.73893E+02  1.61736E+04
 -1.05484E+04  8.02052E+03 -8.55561E+03 -7.69874E+03  8.61541E+03 -1.21000E+04  1.83674E+04  5.59178E+03
  1.45971E+04  2.35920E+04 -7.20763E+03  2.58306E+04 -1.94578E+04  5.66609E+03 -2.30799E+04 -6.28595E+03
 -1.55140E+04 -1.42328E+04 -8.28266E+03 -1.43551E+04  6.82071E+03 -1.37017E+04  1.33639E+04 -1.46004E+04
  2.01714E+04 -9.02482E+03  2.87153E+04 -6.32539E+02  2.35848E+04  1.68844E+04  4.43111E+03  2.96842E+04
 -1.50005E+04  2.74578E+04 -2.60084E+04  8.98151E+03 -1.63934E+04 -8.08859E+03 -4.08014E+03 -1.74031E+04
  1.44241E+02 -4.04040E+03 -2.96363E+03  8.43447E+03 -1.44094E+04  5.02652E+03 -1.07074E+04 -5.40811E+03
 -1.09492E+04 -1.51219E+04  4.16161E+03 -1.92844E+04  1.20081E+04 -1.41567E+04  1.37364E+04 -4.50401E+03
  1.10035E+04  8.53032E+03 -1.64976E+03  1.58469E+04 -9.26363E+03  1.65003E+03 -1.89775E+04 -5.20214E+03
 -7.29984E+03 -1.87719E+04 -5.35861E+03 -1.67309E+04  8.53474E+03 -1.25722E+04  2.10857E+04 -7.76299E+03
  1.09736E+04  2.15103E+03  5.21893E+03  1.99330E+03  2.14171E+02  5.41257E+03  5.16008E+03  5.04057E+02
  1.25772E+04  5.02941E+03  1.24005E+04  7.54071E+03  8.45128E+03  2.53513E+04 -7.29274E+03  2.52874E+04
 -1.09763E+04  1.50511E+04 -2.64721E+04  1.03789E+04 -2.49452E+04 -1.48029E+03 -2.12927E+04 -1.30613E+04
 -6.10175E+03 -2.15445E+04  4.18543E+03 -1.86816E+04  1.60072E+04 -1.22622E+04  1.45713E+04  7.38538E+03
  1.07533E+04  1.08939E+04 -5.91698E+03  7.77702E+03 -1.12963E+04 -7.22551E+02 -9.51624E+03 -8.56291E+03
  3.07704E+02 -1.23227E+04  6.55879E+03 -1.21174E+04  7.43174E+03 -4.87213E+03  6.19574E+02  2.78954E+02
 -4.55429E+03 -7.60765E+02 -1.19270E+03 -5.30594E+02 -6.49517E+02 -1.21771E+04  1.04933E+04 -8.77050E+03
  1.33715E+04 -9.69151E+03  9.14347E+03  4.97295E+03  9.16090E+03  3.80119E+03  1.65097E+03  1.13614E+04
 -2.98003E+03  1.66612E+04 -1.32197E+04  1.20458E+04 -1.07084E+04  1.74888E+03 -8.85749E+03 -2.05403E+03
 -6.29652E+03 -3.40302E+03 -3.43220E+02  4.68312E+03 -4.18948E+03 -1.05066E+03 -4.49602E+03  4.45320E+02
 -5.51000E+03 -3.07049E+02 -9.13194E+03 -4.26911E+03 -2.24282E+03 -1.02435E+04  2.01591E+02 -7.37464E+03
  8.42864E+03 -1.95759E+03  5.58500E+03  4.04726E+03 -1.20723E+03  8.12628E+01 -4.10659E+03 -1.91865E+03
 -3.97159E+03 -5.70373E+03 -1.25636E+03 -4.42011E+03  6.87128E+03 -9.81002E+03  9.20924E+03 -6.11374E+03
  1.15569E+04  3.36675E+02  9.45909E+03  3.79774E+03 -6.15519E+02  8.19779E+03 -4.78205E+03  7.52929E+03
 -6.53635E+03  6.59545E+03 -5.64747E+03  2.79764E+02  5.73725E+03 -3.05342E+03  5.49899E+03 -1.41462E+03
  4.53429E+03  1.23225E+02  6.81587E+02  5.78128E+03 -3.51586E+03  8.07930E+03 -1.00255E+04  3.36606E+02
 -6.20682E+03 -3.70968E+03  3.54756E+03 -7.81605E+03  3.94057E+03 -4.92364E+03  4.79715E+03 -1.33186E+03
  2.34464E+03  4.94404E+03 -5.33444E+03  6.70256E+03 -4.24345E+03 -1.25110E+01 -1.22189E+03 -1.88950E+02
 -9.23053E+02 -8.52146E+03 -1.99300E+03 -7.38867E+03  6.89093E+03 -3.54608E+03  4.35173E+03  2.23530E+03
  3.15643E+03  8.06730E+03  3.41434E+03  7.37379E+03 -3.32146E+03  5.39146E+03 -5.67013E+03 -8.19469E+02
 -5.68585E+03 -7.78661E+03  3.37765E+02 -2.68130E+03  2.08124E+03 -1.52333E+03  4.93324E+03 -1.74535E+03
  2.70206E+03  1.28065E+03 -3.01313E+03  5.72530E+03 -2.19189E+02  4.36247E+03 -2.31582E+03 -8.20351E+02
  7.67214E+03 -2.56393E+02  5.28114E+03  1.40757E+02  9.39169E+03 -1.56469E+03  9.58158E+03  7.02104E+03
 -1.40666E+03  1.04074E+04 -3.34080E+03  7.88310E+03 -6.00604E+03  3.92079E+03 -9.49503E+03 -2.60498E+03
 -3.22681E+03 -3.54895E+03 -4.81025E+02 -4.24698E+03  2.44233E+03 -8.87897E+02  2.98723E+03 -2.03006E+03
  4.94635E+03 -2.93908E+03  5.56850E+03 -6.25462E+03 -8.73955E+02 -1.22997E+02  3.99275E+03  3.32624E+03
  3.41319E+03 -3.77841E+03  2.37674E+03  8.44921E+03 -3.12459E+03  5.09008E+03 -6.36868E+03  1.54937E+03
 -8.48137E+02 -7.27112E+03  1.76226E+03 -9.07030E+02 -5.51233E+02 -2.75717E+03  2.05844E+03 -3.24270E+03
  3.15107E+03 -8.17992E+02  5.15492E+03  7.84804E+02  2.10027E+03  4.57309E+03  9.58357E+02  3.97386E+03
 -4.28269E+03  1.84307E+03  6.47059E+02  4.36187E+03 -1.75557E+03 -2.29046E+03 -4.79961E+03  1.48790E+01
  1.36914E+03  7.48033E+02 -2.42365E+03  1.46572E+03 -4.06699E+03  3.98547E+03 -2.48549E+03  1.82250E+03
 -1.50143E+03 -4.15021E+03  1.54029E+03 -5.03517E+03  3.03137E+03 -5.40589E+03  6.57775E+02 -4.18666E+03
  1.04937E+03  2.21909E+03  2.49969E+03  1.15495E+03  1.31285E+03  5.28033E+03 -2.32005E+03 -1.87276E+03
 -4.23185E+03  2.91275E+03 -3.82108E+03 -1.99301E+03  3.34957E+02 -1.76367E+03 -3.37390E+03 -4.52522E+03
 -3.41520E+03 -6.35631E+03  7.82034E+02 -1.75334E+03 -1.10812E+03  2.88455E+03  4.72570E+01  6.54976E+03
  8.77913E+02  2.14367E+03  1.98338E+03  5.56837E+02 -3.85075E+03  8.74005E+02  3.83660E+03  2.03629E+03
  1.61982E+03  5.24475E+03 -8.07635E+02  2.43609E+03 -5.11020E+03 -1.32037E+03 -3.20171E+03 -6.73984E+03
  9.88613E+01 -3.74784E+03  3.84474E+03 -7.18689E+03  3.73106E+03 -9.91844E+02  5.10523E+03  3.31406E+03
 -7.67855E+02 -1.29436E+03  2.47163E+03  3.89002E+03  1.40945E+03  2.52511E+02  7.71192E+02  9.89392E+02
 -1.76796E+03 -6.43545E+02 -6.01864E+02 -4.01161E+03  9.70162E+02 -1.32477E+03  1.79522E+03 -3.70163E+03
  4.23670E+03 -1.62758E+03  2.28911E+03 -3.23552E+03 -2.75684E+03  5.40085E+02  5.43953E+03  5.45564E+02
 -1.20774E+03  7.84481E+02  1.02591E+03 -1.00596E+03  1.87317E+03 -2.00177E+03  2.09170E+03 -3.75020E+01
 -2.55143E+03  1.08896E+03 -3.18000E+03  2.62028E+03  2.72249E+03 -1.11830E+03  8.53536E+02 -1.52290E+01
 -2.06117E+03 -1.97119E+03 -2.23432E+03  4.06065E+03  2.03882E+03 -3.33036E+03 -4.61342E+03  4.82916E+03
 -1.99062E+03 -7.42384E+02 -1.96382E+03 -4.18770E+03 -2.46178E+03 -2.64930E+03  1.90519E+03  6.89923E+02
  1.25289E+03  5.04754E+02 -1.86371E+03 -8.64364E+02 -1.40860E+03  5.87091E+03  3.06461E+03 -8.17494E+02
  1.27902E+03 -1.66026E+03 -4.90154E+03 -3.50011E+02 -1.26442E+03  3.33558E+03  2.07586E+03  2.21076E+03
  1.91356E+03  1.91908E+03  3.16107E+03  9.94307E+02 -2.13379E+02 -1.89742E+03 -2.25483E+03  2.82045E+03
  4.57917E+02 -3.18457E+03 -5.15776E+02  1.55002E+02 -1.22664E+03  4.86355E+02  7.48742E+01  1.00924E+03
  5.59487E+03  7.54507E+02 -1.80190E+03 -3.73427E+03 -9.89564E+02 -4.05722E+03  2.47851E+03 -1.63351E+02
  1.25569E+03 -2.12442E+03 -3.61570E+03  1.19976E+03 -1.97281E+03  1.66155E+02 -3.59301E+03  2.52804E+03
 -2.51401E+03  2.31169E+03 -2.68639E+03  6.37792E+02 -7.02851E+03 -7.58601E+01 -7.68857E+02 -1.16009E+03
  2.12752E+03 -5.08559E+03 -1.80254E+03 -5.94015E+02 -3.98726E+03 -1.39251E+03  6.28658E+03  4.59024E+03
  1.34167E+03  1.71864E+03 -6.50904E+02  1.65084E+03  3.15699E+03 -2.75720E+02 -3.13917E+03  9.53465E+02
 -3.27157E+03  1.51637E+01  7.61667E+02 -1.71950E+03 -3.63463E+03  2.12247E+01 -1.97932E+03 -8.63234E+02
  3.25166E+03  1.94249E+03  5.49864E+02  2.97970E+03 -3.46718E+03 -5.75536E+00 -6.36143E+03  1.23775E+03
  2.51268E+03 -2.80463E+03  1.12898E+03 -2.53824E+03 -2.14384E+03 -3.07825E+03 -1.77261E+03  6.19664E+03
 -6.48420E+02  3.90020E+03 -2.24219E+03 -1.17365E+03  2.55732E+03  1.88269E+03  9.11987E+02 -2.43115E+03
 -2.08149E+03 -2.07892E+03 -1.11719E+03 -4.79654E+01  1.74994E+02 -1.98381E+03 -2.24877E+03 -1.39462E+03
  7.33896E+02  2.97453E+03 -1.03489E+03 -2.71051E+03  9.81538E+02  4.67343E+03  3.18248E+03 -1.19362E+03
  6.98097E+02  3.44229E+03 -3.17616E+01  3.46626E+03  1.02227E+02  4.27086E+03 -1.89875E+03 -1.69108E+03
  3.36268E+03  1.20531E+02  1.84518E+03 -1.69153E+03 -9.15115E+02  2.04892E+03 -2.14910E+03  6.50098E+02
  1.77462E+03 -2.04765E+03 -2.57299E+03  2.35944E+03  4.62017E+03 -2.92788E+03 -5.04530E+02  3.67708E+03
 -4.19601E+02  2.06433E+03  2.51540E+02 -5.60222E+03  1.44323E+03  1.92713E+03 -6.50918E+02 -1.35152E+02
  2.52493E+03 -1.39865E+03 -2.70746E+03 -2.02657E+03 -1.01574E+03  1.09378E+03 -3.49290E+03 -1.00639E+03
  4.64287E+03  2.72678E+03  2.65888E+03  4.87231E+02  3.47560E+03 -1.91588E+03  8.80117E+01 -2.93831E+03
 -1.84373E+03 -6.42968E+02 -2.13769E+03 -2.05806E+03 -1.09413E+02 -6.53544E+01 -2.61790E+02 -1.71206E+03
