 $NMID ID='MM_0lb_SNR50_16hz_g55_34.RAW', FMTDAT='(8E13.5)'
 TRAMP=1., VOLUME=1. $END
  3.11604E+05  1.39266E+03  3.37231E+05  2.53793E+05  8.93476E+04  3.38974E+05 -1.27867E+05  2.51761E+05
 -1.91602E+05  8.20082E+04 -1.10980E+05 -3.48460E+04  1.60302E+03 -4.97830E+04  5.42317E+04  5.49095E+03
  3.59716E+04  5.27022E+04 -1.99663E+04  7.22331E+04 -5.80543E+04  6.49598E+04 -8.64335E+04  3.58257E+04
 -8.33681E+04 -1.21295E+04 -5.29076E+04 -5.41326E+04 -1.42647E+04 -7.32874E+04  2.84996E+04 -4.06761E+04
  4.06437E+04  3.18810E+03  1.63049E+04  4.87017E+04 -3.53515E+04  4.87454E+04 -6.48010E+04  4.34175E+02
 -5.59143E+04 -5.57875E+04 -8.50605E+03 -7.64115E+04  3.40574E+04 -5.46665E+04  4.92914E+04 -2.01261E+04
  4.63716E+04  1.05631E+04  3.43169E+04  2.46646E+04  1.40483E+04  2.49779E+04 -3.37149E+03  2.46991E+04
 -2.50394E+04  1.65855E+04 -1.55777E+04 -4.21865E+03  1.81701E+03 -8.44121E+03  2.64863E+04  1.23771E+04
  5.15397E+03  3.50452E+04 -3.19649E+04  3.29143E+04 -6.15375E+04  1.49141E+03 -5.86780E+04 -4.29318E+04
 -1.16188E+04 -6.27384E+04  4.07081E+04 -4.72965E+04  5.81475E+04 -5.94030E+02  3.16243E+04  3.52118E+04
 -6.31692E+03  3.59305E+04 -3.43538E+04  1.54095E+04 -2.68391E+04 -2.29381E+03 -1.91672E+04 -1.50880E+04
 -7.88770E+03 -1.15936E+04 -9.57823E+02 -2.18019E+04  7.67422E+03 -1.89572E+04  1.21440E+04 -1.19670E+04
  1.14215E+04  4.79871E+03 -5.23980E+03  1.03528E+04 -1.67900E+04 -3.47033E+03 -9.53763E+03 -3.28221E+04
  2.40158E+04 -4.14926E+04  4.86231E+04 -1.95041E+04  5.23293E+04  1.57702E+04  1.76166E+04  4.40861E+04
 -1.65926E+04  3.40940E+04 -2.22579E+04  1.93294E+03 -9.66172E+03 -2.63920E+04  2.87811E+04 -3.26058E+04
  3.77383E+04 -1.13656E+04  4.18417E+04  2.24531E+04  1.71190E+04  4.35019E+04 -6.40748E+03  4.80665E+04
 -3.31861E+04  3.22746E+04 -3.97641E+04  4.52629E+03 -3.87939E+04 -1.61043E+04 -2.68143E+04 -3.58025E+04
  9.95242E+03 -3.83321E+04  3.10010E+04 -1.16937E+04  2.84926E+04  1.06891E+04  8.06002E+03  2.04651E+04
 -1.08673E+04  1.30908E+04 -9.44547E+03 -9.23344E+03  9.21916E+03 -7.05410E+03  1.81036E+04  3.85115E+03
  1.31344E+04  2.50385E+04 -7.80422E+03  2.82775E+04 -1.95131E+04  1.04095E+04 -2.48766E+04 -3.04605E+03
 -1.69828E+04 -1.63569E+04 -1.05136E+04 -2.17200E+04  2.29314E+03 -1.66967E+04  1.52756E+04 -2.52631E+04
  2.14537E+04 -1.18750E+04  2.79233E+04  1.35500E+03  2.75558E+04  1.87402E+04  4.78950E+03  3.18014E+04
 -1.90664E+04  3.13936E+04 -2.24620E+04  1.11427E+04 -1.79372E+04 -9.37193E+03 -6.99586E+03 -1.78042E+04
  2.91032E+03 -4.87864E+03 -2.03125E+03  5.72892E+03 -1.38275E+04  3.82384E+03 -1.26178E+04 -8.98562E+03
 -8.31267E+03 -1.80128E+04  8.92454E+03 -2.14204E+04  1.67148E+04 -1.82697E+04  1.57179E+04 -2.00154E+03
  6.19982E+03  1.00848E+04  1.00048E+03  1.63285E+04 -1.46059E+04  1.12128E+04 -2.15282E+04 -6.52812E+03
 -1.02808E+04 -1.53931E+04  3.56950E+03 -2.57819E+04  5.28493E+03 -1.72365E+04  1.58459E+04 -1.30219E+04
  1.74452E+04 -1.97781E+03  1.49846E+04  3.85035E+03  5.57001E+03  4.47590E+03  7.26517E+03 -2.36785E+02
  1.71251E+04  1.67392E+03  1.85516E+04  1.15629E+04  1.42133E+04  2.83330E+04  7.36051E+02  3.80766E+04
 -1.95161E+04  2.57953E+04 -3.59918E+04  1.23306E+04 -2.96210E+04 -1.10464E+03 -2.70204E+04 -2.53856E+04
 -1.34278E+04 -2.49515E+04  1.07120E+04 -2.45382E+04  1.86583E+04 -1.15718E+04  1.88208E+04  3.93382E+03
  6.01380E+03  1.29848E+04 -9.07508E+03  1.03180E+04 -1.64983E+04 -1.71861E+01 -1.61109E+04 -9.90461E+03
  3.56138E+03 -1.63403E+04  1.02762E+04 -1.45429E+04  8.93777E+03 -4.77830E+03  6.05433E+03  1.17772E+04
 -4.23055E+03 -2.56499E+02 -3.72818E+03 -5.33093E+03 -4.41163E+02 -9.82817E+03  1.18010E+04 -1.35959E+04
  1.16786E+04 -7.28711E+03  1.21045E+04  2.87371E+03  1.22337E+04  1.04663E+04  5.64884E+03  1.79494E+04
 -2.53593E+03  2.17330E+04 -1.06885E+04  7.79312E+03 -1.31802E+04  1.82267E+03 -1.40190E+04 -2.06724E+03
 -6.45034E+03 -3.22703E+03 -1.63290E+03  4.28583E+03 -2.80390E+03 -1.08855E+03 -9.80663E+01  6.87309E+03
 -6.85935E+03 -4.45373E+02 -9.60957E+03 -9.93652E+03 -4.59820E+03 -1.13896E+04  4.00167E+03 -1.07909E+04
  3.05943E+03 -1.81987E+03  8.70294E+03  5.94561E+03 -1.33164E+03  5.88351E+03 -4.98707E+03 -8.63524E+02
 -4.32576E+03 -4.91856E+03  4.01146E+02 -8.62813E+03  8.10753E+03 -9.74315E+03  9.90127E+03 -6.33841E+03
  1.70728E+04  1.39136E+03  1.27798E+04  6.53777E+03 -3.49937E+03  8.61436E+03 -1.06613E+04  7.93372E+03
 -1.01752E+04  5.78589E+03 -2.32749E+03 -1.22451E+03  4.04787E+03 -1.47469E+03  6.68319E+03 -4.46652E+03
  2.75839E+03  5.67712E+03  1.12402E+03  5.14170E+03 -5.22028E+03  8.76665E+03 -1.50741E+04 -1.07887E+03
 -5.52121E+03 -5.95613E+03  3.86543E+03 -1.21133E+04  5.11854E+03 -8.51366E+01  3.64173E+03  2.33984E+03
  1.28397E+03  5.10754E+03 -7.23345E+03  7.40015E+03 -7.41193E+03  3.80680E+03 -6.23866E+03  2.25774E+03
 -2.96794E+03 -8.83033E+03  3.81192E+03 -9.80963E+03  6.68347E+03 -4.66512E+03  9.96218E+03 -6.60346E+02
  1.30254E+03  4.73772E+03 -2.41119E+03  1.01193E+04 -9.86509E+03  8.65420E+03 -1.31343E+04 -1.15499E+03
 -5.10004E+03 -7.93251E+03 -1.43654E+03 -6.91497E+03  2.90009E+03 -8.80402E+03  8.77382E+03 -6.51032E+03
  1.25249E+02 -7.15066E+02 -2.03551E+03  3.91430E+03  1.37860E+03 -1.03950E+02  2.23361E+03 -6.31605E+03
 -5.22858E+02 -1.09248E+03  6.24984E+03  2.40762E+03  9.83384E+03  6.41979E+03  5.42039E+03  7.05490E+03
 -2.57037E+03  1.17475E+04 -1.03605E+04  1.18959E+04 -1.30443E+04 -1.54046E+03 -1.24709E+04 -3.46129E+03
 -6.23914E+03 -1.11981E+04  1.00623E+02 -8.26082E+03  5.93086E+03  1.05580E+03  5.23638E+03 -3.29528E+03
  2.11562E+03 -5.11192E+03  8.55964E+02 -1.51085E+03 -2.55491E+02  2.67798E+03  5.31006E+03 -8.91744E+02
  8.05570E+03 -3.43704E+02  4.01917E+03  3.42357E+03 -4.00475E+03  4.87542E+03 -5.12930E+03  7.44635E+03
 -9.86295E+03  1.82897E+03  3.70484E+02 -4.03118E+03  5.91779E+03 -9.98377E+03  4.58080E+03 -7.88370E+03
  1.13378E+04 -6.01887E+03  6.54101E+03 -3.29553E+02  9.14581E+03  1.00196E+04 -5.91825E+02  5.75312E+03
 -4.58403E+03  3.87359E+03 -2.16444E+03 -2.13795E+03 -3.95880E+03 -3.78663E+03 -1.78622E+03 -2.39277E+03
 -1.83111E+03 -1.75815E+02  1.97960E+03  6.55705E+03  9.55418E+02  1.19682E+03 -1.69773E+03  5.45166E+03
 -5.76298E+03 -8.11101E+03 -1.75691E+03 -7.28518E+03  1.14211E+02 -2.11293E+03  7.62076E+03 -5.12781E+03
  5.95958E+03  1.89476E+03  2.74133E+03  5.90578E+03 -1.49546E+03  4.80979E+03 -3.40488E+03  5.78314E+02
 -7.14144E+03 -2.02072E+03 -3.22088E+03  9.34397E+02 -1.26440E+03 -4.27266E+03  6.86032E+03 -4.96081E+03
  4.13342E+03 -3.45427E+03  6.17555E+03  5.70820E+02  4.61184E+02  5.33190E+03 -4.16921E+03  5.32507E+02
  3.65500E+03  3.96960E+03  1.97504E+03  3.19406E+03  9.60388E+02  3.15405E+03  4.04952E+03 -8.66294E+02
 -1.91781E+03  8.73173E+03 -5.69762E+03  2.65362E+03 -6.45905E+03 -4.22634E+03 -3.80725E+03 -3.50930E+03
 -1.93948E+03 -4.85088E+03  3.10600E+02 -7.81768E+03  5.71208E+02 -6.02715E+03  7.46338E+03 -4.79610E+03
  3.29731E+03  6.22900E+03 -2.44834E+03  2.61685E+03  2.30015E+03  1.31669E+03 -1.17527E+03  5.33108E+03
  1.78826E+03  1.53044E+03  3.57983E+03 -4.98409E+03 -1.16434E+03 -2.83250E+03  3.42167E+03 -1.59163E+03
 -1.57644E+02  4.24148E+03  9.31685E+02 -6.71879E+03  2.10318E+02  2.69244E+03 -1.70567E+02  1.62954E+03
  1.83131E+03 -3.74863E+02  5.35041E+02  2.34709E+03 -3.60934E+03  4.86330E+03  4.85624E+02  1.16880E+04
 -4.55078E+03  6.18225E+03 -7.60446E+02 -2.57442E+02 -1.73507E+03 -3.34257E+03  3.31151E+02 -4.80663E+03
  5.22316E+03  2.09301E+03  3.93451E+02 -2.02086E+03 -9.73762E+02  2.01629E+03  5.15324E-01 -4.61453E+02
 -1.80400E+03 -1.10334E+03 -3.38219E+03 -5.66852E+03 -2.77982E+03 -2.99638E+03 -2.21655E+03 -5.17581E+03
 -1.98806E+03 -3.97541E+03  3.53196E+02 -2.74955E+03  1.61659E+03  3.24965E+03  2.31789E+03 -3.32612E+02
  5.21192E+02 -3.95440E+03 -9.60668E+02 -4.37236E+03  1.10935E+01 -2.22273E+03  6.22197E+03 -3.75549E+03
  4.00377E+03  3.57412E+03  4.81358E+03 -2.10578E+01 -6.42329E+02  1.20875E+03 -2.95055E+03  5.87592E+03
  4.06176E+02  4.67995E+02  1.65639E+02 -1.13868E+03 -2.48620E+03 -1.11086E+03  2.32363E+03 -1.97080E+03
  8.00185E+02  2.88169E+02  1.05361E+03  2.15337E+03  2.10409E+03  3.84015E+03 -2.85995E+03  4.53562E+03
  6.74501E+02  3.89669E+03  2.38215E+03  3.10583E+02 -2.40204E+02  3.10670E+03 -5.71502E+02 -9.98774E+02
 -4.09656E+02  4.15308E+03 -3.03343E+02 -3.11537E+03 -2.40253E+02  1.10425E+03 -2.57333E+03 -4.18064E+03
 -5.05205E+02  1.18779E+03  3.68037E+03 -2.10786E+03  4.05644E+03 -6.88049E+03  1.45454E+03  8.26444E+01
  6.86977E+03 -6.31768E+02  2.96812E+03  2.02502E+03  5.45241E+03  3.08103E+03 -6.59371E+03  2.86833E+03
 -1.98381E+03  9.12241E+02  1.32236E+03 -6.63811E+01  3.76488E+02  1.19778E+03 -1.16365E+02  1.70454E+03
  3.56937E+02 -2.69615E+03  9.25654E+02  2.79018E+02  1.99862E+03 -1.43692E+02 -2.66256E+03 -2.31550E+02
 -1.37075E+03 -2.85911E+03  5.32118E+03  4.27490E+03  3.06276E+03 -3.37340E+02 -3.33136E+02  1.19788E+02
  4.05400E+02  4.73028E+03 -6.40617E+03  5.93052E+03 -4.25098E+03  1.43231E+03  5.11740E+02 -2.16042E+03
 -9.60205E+02 -9.07204E+02  8.05144E+02  1.12164E+03  2.68466E+03 -5.41453E+02  3.61856E+03  1.86913E+03
  2.47233E+03 -7.86182E+02 -3.52239E+03  2.76360E+03 -4.17006E+03 -4.62143E+03 -1.80012E+03 -1.83292E+03
  1.87408E+03  1.71597E+03  4.67733E+02  3.17860E+03  2.07059E+03  3.73353E+03 -1.85435E+01 -3.97057E+03
 -4.96701E+03  6.96463E+02 -6.63273E+02  1.61535E+03 -3.54558E+03 -3.92185E+03  2.34907E+02 -1.31846E+03
  1.20235E+03 -3.55123E+03 -1.90099E+03 -4.28764E+03 -2.11160E+03  6.65458E+01 -6.34758E+02 -1.90860E+03
  2.50446E+02 -1.05429E+03  1.95123E+03 -1.05396E+01 -3.37325E+03 -3.54396E+02 -9.94405E+02  6.50862E+02
 -5.24042E+03 -7.22913E+02 -4.08718E+03  6.76574E+03 -7.83710E+02 -2.21959E+03 -1.08605E+03 -2.41228E+03
 -4.19276E+03  5.97301E+03  7.60967E+03 -4.53632E+03  7.89831E+01  3.34378E+02 -7.42111E+02 -1.54351E+02
  3.41918E+03  3.64985E+03 -1.65064E+03  1.86898E+03 -5.11555E+03 -1.95002E+02  2.82479E+03 -2.63827E+03
