 $NMID ID='MM_0lb_SNR50_13hz_g55_95.RAW', FMTDAT='(8E13.5)'
 TRAMP=1., VOLUME=1. $END
  3.06497E+05 -1.14657E+03  3.38998E+05  2.54044E+05  8.42275E+04  3.34562E+05 -1.31786E+05  2.52508E+05
 -1.90661E+05  8.44252E+04 -1.12290E+05 -3.48801E+04  1.22861E+03 -5.55970E+04  5.00764E+04 -2.10912E+02
  3.44475E+04  5.19811E+04 -1.55416E+04  7.03764E+04 -5.74796E+04  6.53312E+04 -8.24057E+04  3.02517E+04
 -8.30942E+04 -5.04412E+03 -5.51632E+04 -5.37215E+04 -1.33457E+04 -6.99845E+04  2.24315E+04 -4.66611E+04
  4.24621E+04  5.98837E+03  1.90643E+04  5.13327E+04 -3.47097E+04  4.63085E+04 -7.12037E+04  1.85212E+03
 -5.11795E+04 -5.54598E+04 -4.12189E+03 -7.68120E+04  3.70824E+04 -5.58754E+04  5.10256E+04 -1.75123E+04
  4.53248E+04  1.20234E+04  2.88131E+04  3.01678E+04  1.60669E+04  3.29737E+04 -4.90279E+03  2.69187E+04
 -2.65640E+04  1.17470E+04 -2.26052E+04 -9.38324E+03  4.22595E+03 -2.48087E+03  2.35398E+04  1.42108E+04
  4.25484E+03  3.46934E+04 -3.31775E+04  3.70621E+04 -6.05355E+04 -9.89845E+02 -6.03916E+04 -4.67056E+04
 -1.67976E+04 -6.43044E+04  3.18846E+04 -4.36222E+04  6.15861E+04 -4.13321E+03  3.65981E+04  3.62255E+04
 -7.50398E+03  3.32497E+04 -3.24331E+04  1.62873E+04 -3.66126E+04 -8.36897E+03 -1.50477E+04 -6.19569E+03
 -3.03881E+03 -1.37614E+04  2.84959E+02 -1.93375E+04  6.03204E+03 -1.94087E+04  1.33874E+04 -4.93166E+03
  1.18811E+04  4.01698E+03 -5.17620E+03  1.38275E+04 -2.07545E+04 -3.30402E+03 -9.56923E+03 -3.33190E+04
  2.82391E+04 -4.26369E+04  5.05939E+04 -2.19536E+04  4.77563E+04  2.50354E+04  1.72932E+04  4.58878E+04
 -1.83823E+04  3.73394E+04 -3.04418E+04  1.36253E+03 -9.59553E+03 -2.47304E+04  2.47088E+04 -4.03975E+04
  3.72712E+04 -1.15200E+04  4.25128E+04  3.00199E+04  2.13795E+04  4.94311E+04 -8.15504E+03  5.51539E+04
 -3.66625E+04  3.27122E+04 -3.93035E+04  1.14302E+04 -4.07269E+04 -1.84615E+04 -2.65393E+04 -4.02819E+04
  8.05976E+03 -3.52718E+04  3.45744E+04 -1.69338E+04  3.26174E+04  9.73902E+03  4.45589E+03  1.74485E+04
 -1.82931E+04  8.87506E+03 -1.14988E+04 -5.69552E+03  6.48979E+03 -1.34824E+04  1.72049E+04  6.88395E+03
  1.51474E+04  2.53404E+04 -3.32678E+03  2.92587E+04 -2.11051E+04  1.55680E+04 -2.51151E+04 -3.60116E+03
 -2.26820E+04 -1.74236E+04 -1.43402E+04 -2.40010E+04  1.72773E+03 -2.19929E+04  1.96305E+04 -1.60749E+04
  2.79839E+04 -1.38187E+04  3.18524E+04  8.97505E+03  2.25455E+04  2.63103E+04  6.18900E+03  3.85113E+04
 -1.77728E+04  3.40210E+04 -2.38100E+04  1.08185E+04 -2.04034E+04 -1.02266E+04 -8.23382E+03 -1.57470E+04
  2.26844E+03  2.05161E+03 -6.39601E+03  1.06691E+04 -2.01899E+04  8.60327E+03 -1.58732E+04 -3.79775E+03
 -1.01001E+04 -2.12397E+04  5.26211E+03 -2.87163E+04  1.70047E+04 -2.29029E+04  2.31733E+04 -3.57837E+03
  1.33172E+04  1.42756E+04  4.04965E+02  2.01785E+04 -1.69264E+04  1.17728E+04 -2.12742E+04 -6.20343E+03
 -1.16025E+04 -1.53281E+04 -2.78024E+03 -2.69387E+04  1.03180E+04 -2.00588E+04  1.51260E+04 -1.03272E+04
  2.16456E+04  1.71567E+03  1.44154E+04  6.87332E+03  5.30635E+03  8.18460E+02  1.15471E+04 -4.43731E+03
  1.80222E+04  1.88893E+02  2.23128E+04  1.56645E+04  1.51030E+04  3.33878E+04 -2.31086E+03  3.86905E+04
 -2.04032E+04  3.11680E+04 -3.36256E+04  1.71564E+04 -3.35376E+04 -4.39447E+03 -3.37563E+04 -2.01771E+04
 -1.25229E+04 -3.16719E+04  1.22152E+04 -2.64113E+04  1.97878E+04 -1.39389E+04  2.22746E+04  3.62874E+03
  6.44985E+03  1.84019E+04 -9.96824E+03  1.38070E+04 -1.69791E+04  7.81290E+02 -1.66853E+04 -9.58719E+03
 -4.30715E+03 -1.66162E+04  5.37245E+03 -1.33659E+04  8.98698E+03 -6.77100E+03 -3.09540E+03  9.39092E+03
 -5.86402E+03  2.80972E+03 -6.87901E+03 -5.61901E+03  6.69785E+02 -1.09186E+04  1.07021E+04 -1.45966E+04
  1.54321E+04 -3.43304E+03  2.08378E+04  5.83970E+03  1.89971E+04  1.70395E+04  7.01337E+03  2.02964E+04
 -6.99667E+03  2.27504E+04 -2.18799E+04  1.56027E+04 -1.42706E+04  2.61253E+02 -1.32668E+04 -3.22428E+03
 -7.71771E+03 -1.32557E+04 -5.88306E+03  8.90027E+02 -1.66307E+03  1.18638E+03 -9.17819E+03  3.90141E+03
 -1.49185E+04 -2.71812E+03 -1.19815E+04 -8.75962E+03 -9.97053E+03 -1.38763E+04  7.48233E+03 -9.26890E+03
  1.04410E+04 -5.32812E+03  3.69662E+03  1.96815E+03 -6.39636E+03  1.83124E+03 -3.20358E+03 -3.15759E+03
 -6.41327E+03 -1.50578E+04 -2.52796E+03 -1.81699E+04  9.12124E+03 -1.66496E+04  1.33098E+04 -7.77519E+03
  1.75484E+04  3.30643E+03  1.06899E+04  6.18088E+03  4.53216E+03  1.82846E+04 -7.25693E+03  1.15186E+04
 -1.23363E+04  3.27802E+03 -7.58246E+03 -3.07289E+03  4.47335E+03 -5.54326E+03  3.60219E+03  5.74988E+02
  8.90358E+03  3.64373E+03 -2.51295E+01  1.08884E+04 -8.72463E+02  6.12416E+03 -1.39606E+04  2.05382E+02
 -9.12885E+03  8.07539E+02 -3.37238E+03 -8.73759E+03  8.62017E+03 -5.27107E+03  3.47824E+03 -4.01920E+03
  3.21273E+03  5.94955E+03 -8.56502E+03  1.52824E+04 -4.12557E+03 -8.41343E+02 -1.34710E+04 -4.47958E+03
 -3.91755E+03 -1.58366E+04 -9.89817E+02 -1.11399E+04  1.40562E+04 -6.20839E+03  1.05661E+04  4.73985E+03
  7.21742E+03  1.18477E+04 -4.06749E+03  1.27599E+04 -8.00251E+03  1.04948E+04 -1.27564E+04  3.29505E+03
 -9.76104E+03 -7.99841E+03 -4.50162E+03 -1.23588E+04  1.03436E+04 -5.91914E+03  4.31862E+03 -5.27916E+03
  8.02588E+03 -5.65664E+03 -5.52438E+02  3.51183E+01  3.39302E+03 -4.61966E+03  2.89005E+03 -5.47267E+03
  1.33884E+04 -6.88752E+03  1.11412E+04 -2.12619E+03  1.21500E+04  1.64110E+03  8.39528E+03  1.62588E+04
 -2.69084E+03  1.18426E+04 -1.77657E+04  1.52585E+04 -2.15323E+04 -8.23245E+02 -1.31494E+04 -7.41936E+03
 -4.62766E+03 -8.56937E+03 -2.53886E+03 -1.02824E+04  4.56106E+03 -2.74186E+03  9.49134E+02  1.05693E+03
  2.26380E+03  4.86051E+02  3.29078E+03 -2.33429E+03  4.18286E+03 -2.49480E+03  1.73862E+03 -3.53417E+03
  8.17594E+03 -6.29095E+02  1.17729E+03  5.79925E+03  2.44348E+03  7.73965E+03 -9.78588E+03  7.01735E+03
 -1.36263E+04  1.00045E+03 -5.93290E+03 -2.80136E+03  1.09341E+03 -1.35751E+04  9.96521E+03 -1.26705E+04
  6.85226E+03 -6.99095E+03  1.01693E+04 -2.37167E+03  9.02469E+03  1.63381E+04  5.63539E+03  1.62775E+04
 -3.49547E+03  1.04056E+04 -7.68820E+03  8.95505E+03 -2.01052E+03  1.88241E+02 -2.03524E+03  1.15288E+03
  1.98983E+03 -2.09609E+03 -2.76352E+03  7.76895E+03 -3.90919E+03 -7.39179E+03 -7.44598E+03 -5.16349E+03
 -4.24272E+03 -1.04102E+04  1.85089E+02 -1.05614E+04  9.99498E+03 -9.19339E+03  7.98219E+03 -5.17231E+03
  1.08678E+04 -2.75513E+02  7.08181E+03  5.23925E+03 -3.19459E+03  9.91455E+03 -4.60279E+03  5.56556E+03
 -9.37232E+03  4.15415E+03 -4.02029E+03 -1.14038E+04  3.01970E+03 -6.75115E+03  4.79485E+03 -4.77921E+03
  8.50183E+03  1.84599E+03  5.06089E+03  1.21908E+02 -2.44233E+03  4.61125E+03 -2.30945E+03  3.32521E+03
 -3.13351E+02  2.90095E+03  5.93772E+03  3.95231E+03  6.50552E+03  4.19141E+03  4.01340E+03  1.70290E+03
 -9.96434E+02  7.68280E+03 -7.56234E+03  9.65190E+03 -1.02605E+04 -1.83295E+03 -7.58806E+03 -5.80408E+03
 -4.94885E+03 -6.04900E+03  3.72351E+03 -7.04916E+03  4.26074E+03 -6.28047E+03  8.05686E+03 -4.77216E+03
  6.02617E+03 -6.22354E+02  2.60103E+03  9.80456E+03 -4.87550E+03  3.54026E+03  3.73813E+03 -9.03788E+02
  2.36569E+03 -5.38497E+03  2.46206E+03 -8.32535E+03 -1.89485E+02 -2.01144E+03  2.14666E+03  5.80592E+02
  1.36985E+03  3.17439E+03  6.85507E+02  5.99822E+03  1.33313E+03 -9.30210E+02  2.35068E+03  5.45858E+03
  1.05536E+03  2.12473E+03  1.02087E+04  1.16553E+03  5.02403E+03  5.07051E+03 -4.16633E+03  5.19441E+03
 -6.22520E+03  1.49870E+03 -7.99206E+03  3.29912E+03 -2.17092E+03 -2.49447E+03  5.57030E+01 -9.14720E+03
  8.49021E+03 -6.20530E+03  1.30867E+03 -4.13098E+03  6.01462E+02 -2.69468E+03 -3.51341E+03 -2.84223E+03
 -7.05739E+03  2.88340E+03 -2.40939E+03 -6.31715E+02 -3.65355E+03 -4.02518E+03 -6.08512E+03 -6.17488E+03
 -5.18211E+03 -5.80792E+03 -1.89331E+02 -4.91034E+03  1.29263E+03  2.09636E+03 -6.37911E+02  1.93427E+03
 -3.89174E+03  3.54236E+03 -1.78079E+03 -4.08340E+03  3.35121E+03 -4.75342E+03  4.48249E+03 -3.21337E+03
  9.89179E+03 -1.82904E+03  6.96027E+03  6.48022E+03  3.65586E+03 -3.57729E+03 -1.29245E+03  3.46750E+03
 -6.74858E+03 -3.61719E+02 -1.88576E+03  3.82735E+01 -2.32429E+03 -6.50834E+03  4.36524E+03 -3.12918E+03
  5.58671E+03 -1.76385E+03  5.11941E+03  1.30878E+03 -5.53257E+03  3.22176E+02  8.39959E+01 -1.75365E+03
 -4.00528E+03  5.48683E+03 -5.88710E+03 -1.31918E+02 -2.75346E+03  2.04112E+03 -7.01973E+03  4.48006E+03
 -1.74557E+03  5.89032E+03 -6.12791E+03  3.59602E+03  3.20620E+02  9.93931E+02 -6.71900E+03 -4.83607E+03
 -8.11439E+03 -6.62010E+03  6.93260E+02 -3.14399E+03  9.97214E+03 -9.74517E+03  1.12006E+04 -8.39079E+02
  9.47165E+03  3.31465E+03  4.97430E+03  5.48287E+03  1.43141E+03  3.15754E+03 -1.43724E+03  6.27336E+03
 -2.76865E+03  5.03623E+02  1.57965E+03 -2.80071E+03 -2.16116E+03 -5.51865E+02  5.40382E+03  3.38291E+03
  2.34339E+03 -2.25738E+02 -6.75752E+03 -1.04163E+03 -5.70454E+03  1.42513E+03 -1.73913E+03 -2.15329E+03
  5.79600E+03 -4.46397E+03  8.67304E+03 -4.56597E+03  1.69326E+03  2.94025E+03  1.83346E+03  7.53176E+03
  6.56998E+02  7.36717E+03 -1.88365E+03  7.90315E+02 -4.43795E+03 -1.45421E+03 -6.96320E+03 -4.68868E+03
  9.82857E+02 -9.64962E+03 -1.25940E+03 -3.49327E+03  3.79708E+03 -5.83932E+03  8.91697E+02 -1.40397E+03
  4.89388E+03  1.81257E+03 -2.09479E+03  1.48727E+02  1.98702E+03  4.52252E+03 -2.20696E+03 -3.45001E+03
  1.39442E+03 -2.56718E+03  7.94540E+03  1.81845E+03 -1.02636E+03 -6.26486E+02  6.71486E+02  5.90342E+03
 -3.34995E+03  3.62255E+02 -6.06501E+03 -4.87445E+03 -3.32409E+03 -3.07871E+03  3.33543E+02 -6.32920E+03
  3.92939E+03 -8.21814E+03  5.60513E+03  3.76974E+03  3.42610E+03  1.11312E+03 -2.16523E+03  2.61891E+03
  2.78862E+03  2.90859E+03  6.32407E+02  4.83955E+02 -1.52847E+02  1.26641E+03  1.68327E+02  3.70046E+03
 -5.22343E+03  2.34648E+03 -3.14149E+03 -1.52157E+03 -4.26665E+03  3.13159E+03  1.62528E+03 -2.28404E+03
 -5.89351E+03  5.64079E+02  2.44625E+03  7.51558E+02  1.04904E+03 -6.24702E+03  3.51107E+03 -7.72004E+03
  4.36493E+03  1.48088E+01 -1.33902E+03  2.41019E+03  3.81555E+03  2.46441E+02 -4.49025E+03  4.33661E+03
