 $NMID ID='MM_0lb_SNR50_15hz_g50_27.RAW', FMTDAT='(8E13.5)'
 TRAMP=1., VOLUME=1. $END
  3.09506E+05 -2.57525E+03  3.33592E+05  2.52126E+05  8.55345E+04  3.37863E+05 -1.32836E+05  2.52525E+05
 -1.92013E+05  7.81701E+04 -1.16377E+05 -3.08595E+04  9.89951E+01 -4.93910E+04  5.43890E+04 -4.78730E+03
  3.10120E+04  5.02180E+04 -1.77096E+04  7.73010E+04 -5.83690E+04  6.20923E+04 -8.42430E+04  3.26309E+04
 -7.58823E+04 -1.17964E+04 -5.93999E+04 -4.56688E+04 -1.41134E+04 -6.80038E+04  2.85591E+04 -4.23342E+04
  4.20096E+04  3.81762E+03  1.79766E+04  4.49048E+04 -3.55730E+04  4.78814E+04 -6.67534E+04  5.49309E+02
 -5.55185E+04 -5.76753E+04 -7.74787E+03 -7.20438E+04  3.19305E+04 -6.15417E+04  4.89820E+04 -1.11343E+04
  3.97087E+04  9.97873E+03  3.15163E+04  2.55526E+04  1.24013E+04  3.81186E+04 -5.19669E+03  2.50709E+04
 -2.09435E+04  1.12788E+04 -1.47333E+04 -3.53659E+03  3.15431E+03 -4.03607E+03  2.55070E+04  1.77416E+04
  4.13103E+03  3.14481E+04 -3.40763E+04  3.59261E+04 -6.03304E+04 -2.28560E+01 -5.42403E+04 -4.60482E+04
 -1.07719E+04 -6.24729E+04  3.73299E+04 -4.48356E+04  5.80905E+04  4.90661E+02  3.51337E+04  3.03607E+04
 -5.95083E+03  3.35441E+04 -3.29942E+04  1.35200E+04 -2.85917E+04 -5.18314E+03 -1.55229E+04 -7.91379E+03
 -3.97720E+03 -1.47484E+04 -1.67400E+03 -1.60600E+04  7.70162E+03 -2.21030E+04  1.76273E+04 -1.65946E+04
  9.47214E+03  4.25266E+03 -1.00610E+04  1.03906E+04 -1.66024E+04 -1.68338E+03 -8.83898E+03 -3.68920E+04
  2.50775E+04 -4.25471E+04  4.61458E+04 -2.08992E+04  4.47338E+04  1.44961E+04  1.11671E+04  4.10202E+04
 -1.27260E+04  3.15098E+04 -2.43973E+04  7.01990E+03 -1.18784E+04 -2.77307E+04  2.59569E+04 -3.23280E+04
  4.07033E+04 -9.75694E+03  3.58300E+04  2.15739E+04  1.99336E+04  4.35337E+04 -6.49212E+03  5.21156E+04
 -2.96239E+04  3.62942E+04 -3.90478E+04  4.51997E+03 -4.42725E+04 -1.80466E+04 -2.83567E+04 -3.59129E+04
  1.06730E+04 -4.00183E+04  3.19531E+04 -1.68442E+04  2.57995E+04  1.37733E+04  6.33940E+03  1.61941E+04
 -1.56850E+04  1.03989E+04 -1.20015E+04 -5.52570E+03  6.46070E+03 -8.05677E+03  2.09489E+04  5.65142E+03
  1.11394E+04  2.21865E+04 -7.46677E+03  2.32229E+04 -2.21031E+04  1.16581E+04 -2.95478E+04 -8.49106E+03
 -2.49570E+04 -2.03764E+04 -8.18890E+03 -2.43888E+04  2.04741E+03 -1.93526E+04  2.13483E+04 -2.12500E+04
  2.52832E+04 -8.72655E+03  2.86621E+04  5.67666E+03  2.61454E+04  2.12759E+04  4.70433E+03  3.41858E+04
 -1.47226E+04  3.40991E+04 -2.33932E+04  6.88655E+03 -1.96318E+04 -8.57770E+03 -5.12622E+03 -1.49959E+04
 -8.96311E+02  6.23305E+02 -2.10764E+03  8.49647E+03 -1.67153E+04  8.57373E+03 -1.67441E+04 -7.68121E+03
 -7.63732E+03 -2.29138E+04  4.55048E+03 -2.01820E+04  1.63115E+04 -1.30384E+04  1.91930E+04  1.94170E+03
  6.84868E+03  4.20204E+03  6.81570E+02  1.70282E+04 -1.02029E+04  5.91739E+03 -2.15130E+04 -4.06199E+03
 -1.36787E+04 -1.95104E+04 -3.09638E+03 -2.50338E+04  9.58601E+03 -1.95780E+04  1.81210E+04 -7.43103E+03
  1.89135E+04  2.38851E+03  1.13468E+04  3.15237E+03  2.08449E+03 -4.90327E+03  8.57822E+03 -2.75922E+03
  1.40980E+04  3.98958E+03  1.87130E+04  1.51373E+04  1.29030E+04  3.08670E+04 -4.52422E+03  3.00352E+04
 -1.83303E+04  3.37777E+04 -2.16703E+04  1.48641E+04 -3.56524E+04 -2.12700E+03 -2.41022E+04 -2.20956E+04
 -9.19715E+03 -2.28527E+04  4.30056E+03 -2.20152E+04  1.77696E+04 -1.11016E+04  1.49462E+04  5.37506E+03
  1.22533E+04  1.38925E+04 -5.23989E+03  1.34767E+04 -1.87740E+04  5.61686E+03 -6.91754E+03 -7.08163E+03
  5.80498E+03 -1.09576E+04  4.34549E+03 -6.49258E+03  7.80664E+03 -2.21839E+03  6.47155E+03  1.06657E+04
 -2.52186E+03  5.55929E+03 -4.32645E+03 -6.03249E+03  2.17226E+03 -1.33472E+04  1.03440E+04 -1.55169E+04
  1.14635E+04 -7.56596E+03  2.17515E+04  4.50235E+03  1.67367E+04  7.06356E+03  9.02458E+03  1.90416E+04
 -2.53402E+02  2.28055E+04 -1.02755E+04  1.70689E+04 -1.51778E+04  3.36625E+03 -9.72957E+03  1.63059E+03
 -7.84839E+03 -4.71669E+03 -4.80121E+03  6.84402E+02 -2.10356E+02  6.01078E+03 -9.18826E+03  5.75431E+03
 -7.26769E+03 -1.87645E+03 -1.40028E+04 -1.23193E+04 -4.61874E+03 -1.13888E+04  2.46940E+03 -7.58137E+03
  1.25716E+04 -1.07877E+03  5.29657E+03 -6.34603E+02  4.98123E+03  6.51099E+03 -6.27061E+03  3.55990E+03
 -9.47929E+03 -9.99551E+03 -3.48135E+03 -7.89860E+03  6.41636E+03 -9.13009E+03  1.77429E+04 -1.05798E+04
  1.22074E+04  6.36006E+03  1.24417E+04  9.88293E+03 -7.48373E+02  1.23349E+04 -8.08419E+03  1.25211E+04
 -1.09894E+04  6.40615E+02 -5.93621E+03 -2.74125E+03  1.57188E+03 -1.01208E+03  6.79874E+03 -2.91962E+03
  4.51439E+03  5.57975E+03  4.20875E+03  5.49737E+03 -3.44446E+03  7.34995E+03 -4.49601E+03  1.50678E+03
 -1.92825E+03 -2.46448E+03  2.83010E+02 -1.26221E+04  8.34662E+03 -5.91187E+03  2.93640E+03  1.99079E+03
  5.15917E+02  3.57806E+03 -8.57679E+02  7.65353E+03 -2.67773E+03  3.69483E+03 -9.83420E+03 -9.93434E+02
 -8.69214E+03 -1.19872E+04  3.95424E+03 -1.23357E+04  1.31469E+03 -4.17760E+02  5.78628E+03  2.39763E+03
  8.67313E+03  2.18968E+03 -1.24159E+03  5.63783E+03 -7.39916E+03  6.92833E+03 -4.81710E+03 -9.34510E+02
 -1.28436E+04 -5.34472E+03  1.53527E+01 -1.12348E+04  5.25576E+02 -7.02120E+03  3.94930E+03 -2.80536E+03
  1.00336E+03  3.22654E+03  1.32566E+03 -2.65058E+03  2.57634E+03 -1.05250E+03  5.01951E+03 -5.55107E+03
  7.70535E+03  2.82659E+03  4.71669E+03  3.25824E+03  1.09833E+04  3.85209E+03  8.53911E+03  9.94624E+03
 -1.47683E+03  1.77870E+04 -1.30887E+04  1.05616E+04 -1.38940E+04  2.76811E+03 -1.32144E+04 -4.47124E+03
 -6.17560E+03 -1.48770E+04  4.89892E+02 -3.47209E+03  4.22630E+03 -3.32144E+03  4.60170E+03 -5.19285E+03
  3.87366E+03 -2.05693E+03  2.61781E+03 -2.08286E+03  1.67682E+03 -4.20415E+03  5.38571E+03  7.46143E+03
  7.19281E+03  4.97832E+03  4.49502E+03  6.11086E+03 -1.30446E+03  2.72397E+03 -7.49675E+03  3.97016E+03
 -8.87376E+03 -7.39427E+03 -4.44543E+03 -4.92740E+03  1.84320E+03 -6.01147E+03  8.02276E+03 -6.62099E+03
  7.70004E+03  6.01245E+02  4.91535E+03  5.46649E+03  2.48252E+03  7.37885E+03  1.37087E+03  8.43971E+03
 -4.15732E+03  7.78924E+03 -7.00323E+03  4.99592E+03 -5.48554E+03 -1.52364E+01  9.43060E+02 -4.99090E+03
  4.09304E+03  1.67764E+03 -8.62562E+01  5.71695E+03  1.47822E+02  2.36810E+02 -5.70644E+03 -3.22673E+02
 -1.63690E+03 -9.10334E+03  1.38459E+03 -1.17567E+04  2.55991E+03 -4.93446E+03  8.64883E+03 -3.45026E+03
  5.34124E+03  5.94923E+03 -1.81859E+03  9.11624E+03 -1.73571E+03  7.33129E+03 -5.69829E+03  1.60329E+03
 -5.50730E+03  2.83258E+01 -7.11843E+03 -4.33900E+03 -1.87075E+03 -1.74078E+03  1.10411E+03 -3.02646E+03
  7.24053E+02 -3.84196E+03  3.13751E+03  6.68310E+03  1.27116E+03  2.53655E+03 -4.11920E+03 -9.30687E+02
  5.45059E+02  2.27228E+03  8.34963E+02  8.83371E+02  4.08090E+03  6.03050E+03  2.85011E+03  1.64197E+03
 -4.39133E+03  5.85314E+03 -4.65537E+03  6.58140E+03 -8.04837E+03 -4.20020E+02 -3.30181E+03 -3.01984E+03
 -7.77508E+03 -6.39769E+03  1.71022E+03 -9.68642E+03  2.66960E+03 -6.50849E+02  6.98184E+03 -4.61394E+03
  3.53987E+03  2.51597E+03 -2.12843E+03  4.20386E+03 -2.26869E+03  1.00043E+03 -7.90615E+03 -1.65031E+03
 -9.85766E+02  2.50535E+02  5.50521E+03 -1.31224E+03 -8.06793E+02  3.37755E+03  4.92074E+03 -6.73169E+02
  2.95834E+03  1.21819E+03 -1.91983E+02  1.30622E+03  3.52364E+03  3.04341E+02  2.05180E+03 -4.77498E+03
  4.68086E+02 -1.96571E+03  2.23360E+03  1.17626E+03  5.50465E+03  1.57947E+03 -6.92022E+02  1.88763E+03
 -2.14683E+02  1.33564E+03 -8.03518E+03  9.17956E+02 -5.96316E+03 -1.76995E+03 -3.18847E+03 -5.07801E+03
 -3.31104E+02 -1.35936E+03  3.32507E+03 -1.80349E+03 -2.63625E+03  2.36347E+03 -1.85620E+03  5.10862E+02
 -2.95333E+03  2.24718E+03 -2.33912E+03 -2.11535E+02 -9.80341E+02 -7.14451E+03 -7.69280E+02 -2.61089E+03
  7.16606E+03 -3.51537E+03  2.15062E+03 -6.76803E+02  1.99246E+03  2.07118E+03 -7.11565E+03  1.92317E+03
  5.81833E+03  1.13609E+03 -4.98519E+03 -1.44502E+03 -2.46136E+03 -3.00114E+03  1.95968E+03  1.04553E+03
  2.86549E+03 -1.31802E+03  5.23213E+03  5.04529E+02  1.35939E+03  1.81915E+03 -1.99917E+03  2.75447E+03
  7.22433E+02  2.63425E+03  3.58383E+02  1.26264E+03 -3.14451E+03  7.86658E+02  5.91308E+02 -5.79268E+03
  1.20861E+03 -1.16464E+03  7.00875E+02  2.84974E+03 -6.89003E+02  5.62551E+03 -4.21644E+03  5.92218E+03
  1.56200E+03  2.80114E+03 -2.24698E+03  3.57032E+02 -1.21976E+03  2.67709E+03  2.01743E+03  3.09068E+03
 -1.27167E+03  3.62146E+03 -5.13030E+03  2.30042E+03 -2.64543E+03 -2.36012E+03 -7.76217E+03  4.05068E+03
  2.68766E+03 -2.92875E+03  1.61092E+03 -7.20008E+03  3.08409E+03  1.41763E+03  1.43326E+03 -4.69772E+03
  2.80549E+03 -1.80583E+02  2.23915E+03  2.64774E+03 -6.30205E+02  6.21642E+03 -6.27781E+03  5.40878E+03
  2.76224E+03  3.71431E+03  2.06935E+03 -1.89286E+03 -8.93987E+02  2.33111E+02 -2.03129E+03 -4.06901E+03
 -2.41503E+03  1.38955E+03 -4.09400E+03 -2.96568E+02 -3.91243E+03  4.58594E+02 -7.90863E+03 -7.08281E+03
  1.71876E+02 -1.84179E+02 -9.79888E+02  1.47790E+02  6.04896E+03  2.24911E+02  1.49616E+03  3.04517E+03
  2.07561E+03  2.78401E+03 -2.41694E+03 -4.76050E+03 -8.84999E+03  1.20027E+02 -3.34133E+03  2.85188E+03
 -2.19852E+03  1.76118E+02  2.79245E+03 -3.44635E+03  4.56257E+03 -1.28078E+03 -1.18103E+02  2.56870E+03
  1.02529E+03  1.82208E+03 -4.82103E+02  2.72295E+03 -3.11587E+03  3.21260E+03 -1.64553E+03 -2.82497E+03
 -2.62963E+03  1.11318E+03  2.06819E+03  2.87349E+03 -4.95811E+03  2.41125E+03 -4.42240E+02  7.61827E+03
 -4.38140E+02  2.81181E+03 -2.98425E+03 -4.40789E+02 -5.94497E+02 -4.11341E+03  7.40044E+02  9.08558E+02
  2.46565E+03 -1.82608E+03  2.80134E+03  1.71970E+03  2.63716E+03 -3.75320E+03  2.06750E+03  4.20694E+03
  6.50352E+03  2.97687E+03  2.27726E+02  5.16069E+02 -3.55788E+03 -7.36389E+03 -2.22736E+03 -1.34819E+03
 -6.24856E+03 -1.73985E+03 -1.59069E+01 -2.84960E+03 -1.87366E+03  7.02428E+03 -3.17685E+03 -1.75496E+03
  1.51268E+02  3.20353E+02  5.11017E+01 -6.60016E+03 -8.05915E+02 -6.24687E+03 -2.85822E+02  3.32802E+03
  4.42138E+03 -2.31499E+02  2.56772E+03  3.40624E+03  3.43173E+03  4.57758E+03  8.98024E+02  5.99448E+02
