 $NMID ID='MM_0lb_SNR50_18hz_g45_14.RAW', FMTDAT='(8E13.5)'
 TRAMP=1., VOLUME=1. $END
  3.08294E+05  4.52808E+02  3.40455E+05  2.49854E+05  8.44895E+04  3.35074E+05 -1.31975E+05  2.51947E+05
 -1.91026E+05  8.11706E+04 -1.12545E+05 -3.34693E+04  2.99825E+03 -5.23299E+04  5.97088E+04 -9.18364E+02
  4.00353E+04  5.15632E+04 -1.53198E+04  7.68013E+04 -5.77646E+04  6.29748E+04 -8.16450E+04  3.13045E+04
 -7.92755E+04 -8.05159E+03 -5.93958E+04 -5.18945E+04 -1.54079E+04 -6.89910E+04  2.69103E+04 -4.41217E+04
  4.09919E+04  2.88771E+03  1.53094E+04  4.45453E+04 -3.53160E+04  4.38471E+04 -6.65578E+04 -3.87086E+03
 -5.09602E+04 -5.65563E+04 -8.82980E+03 -7.47693E+04  3.54444E+04 -5.04592E+04  4.98268E+04 -1.23584E+04
  4.02628E+04  9.72572E+03  3.26036E+04  2.65338E+04  1.55167E+04  2.96571E+04 -6.60424E+03  2.48651E+04
 -2.60896E+04  1.19021E+04 -1.86112E+04 -4.19448E+03  3.82276E+03 -6.05723E+03  2.23937E+04  1.30543E+04
  6.43076E+03  3.78450E+04 -3.09754E+04  3.69401E+04 -6.16192E+04  1.02907E+03 -5.35513E+04 -4.00587E+04
 -1.11471E+04 -5.97970E+04  3.69579E+04 -4.67471E+04  5.76236E+04 -6.38304E+02  2.94418E+04  3.05647E+04
  5.24685E+02  3.11424E+04 -2.47028E+04  1.14478E+04 -2.97877E+04 -6.26737E+03 -1.55227E+04 -5.75671E+03
 -7.40320E+03 -1.26310E+04 -5.07912E+02 -1.67210E+04  8.37730E+03 -2.17172E+04  1.60946E+04 -1.20579E+04
  1.02056E+04  3.46339E+03 -9.63394E+03  1.29269E+04 -2.07065E+04 -2.44419E+03 -6.78411E+03 -3.01157E+04
  1.89813E+04 -3.85911E+04  4.68846E+04 -2.19943E+04  4.59160E+04  2.14645E+04  1.51067E+04  4.03820E+04
 -1.19617E+04  3.06768E+04 -2.21446E+04  1.48113E+03 -7.45509E+03 -2.33929E+04  2.30209E+04 -3.13860E+04
  4.22265E+04 -6.41923E+03  3.17194E+04  2.14670E+04  1.59206E+04  4.27507E+04 -5.25523E+03  4.32373E+04
 -2.63999E+04  3.03165E+04 -3.58139E+04  9.77017E+03 -3.99518E+04 -1.28245E+04 -2.24687E+04 -3.77664E+04
  6.48992E+03 -3.66602E+04  2.71734E+04 -1.17784E+04  2.56345E+04  1.01836E+04  9.58873E+03  1.60487E+04
 -1.31427E+04  1.19074E+04 -7.33253E+03 -8.51588E+03  6.23837E+03 -1.05318E+04  1.44194E+04  8.31957E+03
  9.73204E+03  1.73032E+04 -3.10071E+03  2.32416E+04 -2.41625E+04  9.70530E+03 -2.58280E+04 -9.55967E+03
 -1.96485E+04 -1.79187E+04 -7.81363E+03 -1.96639E+04  5.25685E+03 -1.70192E+04  1.23143E+04 -1.29829E+04
  2.04619E+04 -1.08586E+04  2.78931E+04  1.20447E+03  1.91536E+04  1.61932E+04  5.24425E+02  3.40960E+04
 -1.59578E+04  2.68032E+04 -2.94457E+04  1.10363E+04 -1.62939E+04 -8.48537E+03 -4.57707E+03 -1.31759E+04
  2.70332E+03  1.88255E+03 -3.52883E+03  4.61447E+03 -9.38502E+03  4.29480E+03 -1.14248E+04 -6.12187E+03
 -7.02132E+03 -1.40321E+04  2.13424E+03 -1.65512E+04  1.08745E+04 -1.10621E+04  1.93173E+04 -3.19179E+02
  9.11713E+03  1.04584E+04  5.89780E+02  1.90800E+04 -1.18432E+04  9.08800E+03 -1.68044E+04 -1.47730E+03
 -8.86042E+03 -1.03408E+04 -9.86400E+02 -2.21448E+04  1.06079E+04 -1.89180E+04  1.69237E+04 -6.32024E+03
  1.79367E+04 -2.21406E+03  1.30012E+04  2.88280E+03  7.86375E+03  5.40348E+02  8.64060E+03  8.45068E+02
  1.82724E+04  7.45377E+01  1.54307E+04  1.35171E+04  1.12766E+04  2.70499E+04  4.73076E+03  2.70527E+04
 -7.56738E+03  2.21508E+04 -2.22369E+04  1.30292E+04 -2.43972E+04 -1.73238E+03 -2.29946E+04 -1.35015E+04
 -9.36711E+03 -2.33039E+04  8.74954E+03 -2.19150E+04  1.33375E+04 -9.88988E+03  1.70636E+04  1.64580E+03
  7.18111E+03  1.09115E+04 -7.31378E+03  1.07648E+04 -1.40123E+04  3.65243E+03 -1.06352E+04 -1.28651E+04
 -3.25306E+02 -1.63457E+04  6.37261E+03 -9.92506E+03  1.19795E+04 -6.68908E+02  3.22678E+03  4.94340E+03
 -2.84849E+03 -9.86285E+02 -3.09511E+03 -7.07277E+03  9.92940E+02 -9.89804E+03  1.36966E+04 -9.21321E+03
  1.69335E+04 -6.11001E+03  6.92692E+03  8.81852E+03  8.18212E+03  8.03285E+03  5.16367E+03  1.67492E+04
  9.35596E+02  1.60099E+04 -7.71214E+03  7.18345E+03 -1.22206E+04  4.75095E+03 -8.47333E+03 -7.47766E+02
 -4.33435E+03 -1.64868E+03 -2.49592E+03  3.61587E+03 -3.03248E+03 -6.56493E+01  1.79670E+03  3.21493E+03
 -1.13294E+04  3.04478E+03 -5.13680E+03 -1.01871E+04 -3.56090E+03 -1.52003E+04  3.90226E+03 -9.39518E+03
  8.12435E+03 -5.80669E+03  8.97439E+03  1.68407E+03 -1.44125E+03  4.71682E+03 -3.82907E+03  2.77214E+03
 -6.21769E+03 -8.80651E+03 -3.70126E+03 -8.45627E+03  7.23637E+03 -1.49728E+04  9.18512E+03 -7.18041E+03
  9.08642E+03  2.30302E+03  9.34284E+03  5.54764E+03 -4.96578E+03  7.91148E+03 -7.28031E+03  8.61680E+03
 -6.55058E+03  3.94473E+03 -4.68642E+03 -4.02906E+03  1.69520E+03 -2.60122E+03  3.72385E+03 -1.75466E+02
  3.96439E+03  4.85933E+03 -5.19047E+00  6.16714E+03 -3.49783E+03  8.65567E+03 -9.64557E+03  1.66611E+03
 -8.19363E+03 -4.11675E+03  1.59868E+03 -4.36945E+03  4.45358E+03 -6.95545E+03  5.65767E+03  2.10739E+03
  3.10683E+03  4.73049E+03 -1.45498E+03  1.14446E+04 -5.82569E+03 -6.22990E+02 -3.41070E+03 -2.44771E+03
 -2.13527E+03 -5.71483E+03  4.04482E+03 -1.01765E+04  7.80227E+03 -2.25442E+03  1.09746E+04  9.34390E+02
  3.62177E+03  6.41923E+03  3.08646E+02  1.02712E+04 -7.01110E+03  2.72189E+03 -4.91365E+03 -3.66501E+02
 -7.75272E+03 -4.42861E+03 -7.53074E+02 -6.85515E+03  8.80356E+02 -2.54181E+03  4.84948E+03 -3.13883E+03
 -1.89030E+03 -1.48855E+03  4.85625E+03  4.25047E+03  4.04580E+03  3.90120E+03 -2.31324E+03  9.99621E+02
  9.57908E+03 -2.59757E+03  3.36613E+03 -2.00835E+03  3.96951E+03 -4.63094E+00  3.34508E+03  9.60771E+03
 -5.41484E+03  6.95743E+03 -7.32090E+03  6.43630E+03 -1.29508E+04  1.11276E+03 -3.19218E+03 -2.91290E+03
 -4.14369E+03 -9.85654E+03  1.85701E+02 -4.41213E+03  3.20934E+03 -5.51956E+03  2.51542E+03 -8.15207E+02
  1.02620E+03 -3.96235E+03 -6.25036E+02  2.17838E+02  6.66665E+03 -4.29539E+03  3.34112E+03 -3.81126E+02
  2.11221E+03  9.62882E+02 -5.01576E+01  7.33022E+03 -4.77214E+03  1.75859E+03 -5.55975E+03  3.77468E+03
 -5.34192E+03 -9.93960E+02 -5.02299E+03 -3.74416E+03  7.26569E+02 -5.76321E+03  2.32291E+03 -4.77090E+03
  6.51732E+03 -3.43606E+03  7.35545E+03 -3.33862E+03  2.18944E+03  5.57181E+03 -1.22960E+02  7.69892E+03
 -2.88899E+03  5.25577E+03 -2.34510E+03  2.69619E+03 -3.81860E+03  1.72858E+03 -5.06697E+03  2.05041E+03
 -3.45740E+03  3.28851E+03 -9.15002E+02  1.43017E+03  3.26190E+03  1.04406E+03 -5.66929E+03 -1.71681E+03
 -1.12412E+03 -2.53718E+03  4.60009E+03 -6.30011E+03  7.30858E+03 -6.49046E+03  5.47187E+03 -4.32652E+03
  3.39549E+03 -2.09622E+03  5.35152E+03  3.28214E+03 -2.28086E+01  3.22550E+03 -1.97212E+03  4.67127E+03
 -4.56887E+03 -1.09477E+03  5.07847E+02 -4.04339E+03 -5.19345E+02 -7.15947E+02 -1.54063E+03 -4.59603E+03
  9.58348E+03 -1.11381E+03 -1.58030E+03  2.30154E+03  2.43109E+03 -1.07776E+03 -1.89187E+03 -3.16854E+03
  3.12719E+03  2.30509E+03  1.32296E+03 -1.12766E+03  2.21509E+03  1.10594E+03  4.81577E+03 -3.13791E+03
 -1.35065E+03  5.54878E+02 -5.28988E+03 -1.90631E+01 -1.21143E+03 -2.28100E+03 -6.87760E+03 -3.37962E+03
 -1.09517E+03 -7.28456E+03 -6.56618E+02 -5.13533E+03  2.43218E+03 -8.47162E+02  2.54827E+03  8.10639E+02
  2.90475E+03 -1.49859E+03 -1.61389E+03  4.66230E+03  1.61589E+02 -1.83616E+02 -7.85494E+02 -1.86080E+03
 -5.09755E+03 -1.23297E+03 -1.89432E+03  4.49467E+02  4.30628E+03 -2.91123E+03  2.53917E+03  8.60017E+02
 -6.11304E+02  6.57621E+02  3.16348E+03 -1.56235E+02  2.15920E+03 -3.79565E+03  3.29685E+03 -6.58795E+02
 -3.02279E+03 -1.86365E+02  5.41372E+03 -7.76370E+02 -8.94222E+02 -1.99623E+03 -2.80118E+02  3.69368E+02
  2.58778E+03  3.42002E+03 -4.16679E+03  4.83696E+03 -5.53038E+03 -9.77667E+03 -2.81618E+03 -3.45838E+03
  2.86875E+03 -1.06712E+03  2.28022E+03 -9.69399E+02  3.23607E+03  3.95774E+02  9.73030E+02 -1.36205E+02
 -3.61201E+03  1.76404E+03  2.39915E+03 -2.50712E+03 -1.70175E+03 -3.31158E+03  9.75920E+02 -3.49510E+02
 -5.25387E+02  1.82333E+03  2.69001E+03 -5.37839E+02 -9.76792E+02 -2.16132E+03  9.65548E+02  5.94664E+03
  4.49377E+03  1.69585E+03 -1.89582E+03 -1.26053E+03  3.36594E+03 -3.32499E+03  6.79839E+03 -2.72524E+03
  4.37296E+03  2.41402E+03  3.35410E+03  8.90732E+02 -3.56298E+02  6.73997E+01  3.25121E+03  2.13269E+03
 -1.84176E+03 -1.02551E+01 -1.79657E+03  1.56927E+03 -2.88175E+03 -8.71000E+02  1.03160E+03 -4.34194E+02
 -1.32772E+02 -9.26758E+02 -6.82817E+02  2.61581E+03  3.76140E+02  6.43417E+01  1.90187E+03 -1.70011E+03
 -6.30440E+02 -4.50413E+03 -1.03697E+02 -8.76323E+02 -3.75659E+03 -3.61682E+03  1.10315E+03 -1.47210E+03
 -3.72319E+03 -1.07915E+02  1.01127E+03  8.00780E+02  7.45226E+02 -2.09986E+03 -5.95378E+03 -6.74387E+02
  4.40271E+02 -5.43567E+03 -1.55559E+03 -5.16098E+03  1.51375E+03 -2.36409E+03  3.52051E+03  1.10420E+03
  2.62550E+03  1.78237E+03  2.03890E+03 -2.93380E+03 -2.56805E+02  1.18614E+03 -9.34971E+02  2.18230E+03
  1.35571E+02  6.11156E+03 -1.86242E+03 -1.27859E+03  1.04611E+03  1.75182E+03 -1.37972E+03  2.47583E+03
 -2.16046E+03 -2.38120E+03  7.19875E+02 -2.59260E+03  1.15339E+03 -1.49406E+03 -1.88235E+03 -1.09986E+01
  1.22462E+03 -1.43405E+03  1.38446E+03  6.07910E+03  6.28497E+03  9.09577E+02 -3.25668E+02  3.66966E+03
  1.24070E+02  3.16380E+03 -3.46684E+02  3.60706E+03 -1.07119E+04 -2.61259E+03 -3.90633E+03 -2.04916E+03
 -1.58817E+03 -5.93593E+02  3.88393E+02 -3.58902E+03 -1.86925E+03 -5.22510E+03 -2.52579E+03  1.11436E+03
 -9.99759E+01 -2.91607E+03 -9.71550E+02  7.31821E+03  7.56712E+02  2.69077E+03 -2.35182E+03  2.87237E+03
 -4.77777E+03 -1.70700E+03  1.47249E+03  1.83171E+03 -2.52857E+03  2.74331E+03  6.19068E+02  1.82460E+03
  3.65690E+03  7.62692E+02  5.91342E+02  4.43995E+03  3.03262E+03 -4.11914E+02 -9.63065E+02 -1.45867E+03
 -6.19929E+02  7.21330E+02  1.17048E+03 -3.11612E+03  2.68835E+03 -5.58916E+02  4.40930E+02  3.97007E+03
 -7.86904E+02  1.48951E+03  7.57623E+02  7.77819E+02  8.48361E+02 -1.48697E+02 -6.92229E+02  1.49311E+03
 -1.81787E+03  1.05497E+03 -1.67651E+03  1.69971E+02 -4.28483E+03  3.09928E+03 -9.26420E+02  1.18486E+03
 -2.11869E+03 -1.38525E+03 -1.91944E+03 -5.17074E+03 -2.49146E+03 -1.34206E+02 -3.21093E+03  4.24264E+03
  3.79113E+03  4.77358E+03 -1.68885E+03 -2.15144E+03 -1.86976E+03 -6.91515E+02 -2.02883E+01  4.01386E+03
