 $NMID ID='MM_0lb_SNR50_17hz_g60_21.RAW', FMTDAT='(8E13.5)'
 TRAMP=1., VOLUME=1. $END
  3.06266E+05 -3.28581E+03  3.41753E+05  2.51262E+05  8.64189E+04  3.40081E+05 -1.31859E+05  2.50782E+05
 -1.92094E+05  8.55903E+04 -1.13531E+05 -3.40478E+04  1.03405E+02 -4.69704E+04  5.41888E+04  4.10665E+03
  3.52525E+04  5.22845E+04 -1.60763E+04  7.71755E+04 -5.58819E+04  6.45215E+04 -8.36303E+04  3.43595E+04
 -8.52704E+04 -1.53986E+04 -5.54518E+04 -5.25703E+04 -1.17864E+04 -7.11877E+04  2.78363E+04 -4.62257E+04
  4.07685E+04  2.33948E+03  1.64350E+04  4.38453E+04 -3.53314E+04  4.87863E+04 -6.63377E+04 -1.31484E+03
 -5.32435E+04 -5.47187E+04 -8.09479E+03 -7.93232E+04  3.20759E+04 -5.40963E+04  4.73976E+04 -1.85093E+04
  4.23142E+04  1.44638E+04  3.06168E+04  2.33730E+04  1.44915E+04  3.16192E+04 -5.78746E+03  2.64579E+04
 -2.33723E+04  1.41195E+04 -2.23796E+04 -4.40310E+02  6.92513E+03 -9.52520E+03  2.55993E+04  7.72563E+03
  4.79532E+03  3.82754E+04 -3.05819E+04  3.27651E+04 -5.94290E+04  5.42435E+03 -5.79061E+04 -4.37711E+04
 -1.21890E+04 -6.47731E+04  3.76642E+04 -4.95684E+04  5.80818E+04 -7.86003E+03  3.39622E+04  2.92007E+04
 -1.14775E+04  3.58222E+04 -3.33025E+04  1.27120E+04 -2.44081E+04 -7.37274E+03 -1.68849E+04 -1.31955E+04
 -7.17211E+03 -1.57056E+04  3.08794E+03 -1.37167E+04  8.88932E+03 -2.31826E+04  1.84973E+04 -1.70994E+04
  8.45143E+03  5.16366E+03 -7.18288E+03  1.89196E+04 -1.65985E+04 -2.42989E+03 -4.88122E+03 -3.00862E+04
  2.19158E+04 -4.85054E+04  5.08215E+04 -1.74191E+04  4.11300E+04  1.98829E+04  1.67769E+04  4.44927E+04
 -1.50632E+04  2.95161E+04 -2.69296E+04  3.83793E+03 -1.14601E+04 -2.69845E+04  1.77958E+04 -3.53316E+04
  4.23487E+04 -1.10747E+04  3.42578E+04  2.50707E+04  2.00921E+04  4.18807E+04 -1.08571E+04  4.69596E+04
 -3.30040E+04  3.63816E+04 -4.34509E+04  7.06316E+03 -4.61000E+04 -1.85240E+04 -2.45335E+04 -4.01010E+04
  5.97646E+03 -3.69884E+04  3.38530E+04 -1.04054E+04  2.59283E+04  1.38778E+04 -1.08075E+03  1.71881E+04
 -1.62143E+04  6.60428E+03 -1.40893E+04 -8.80769E+03  1.24249E+04 -7.61479E+03  1.90760E+04  5.43636E+03
  1.28923E+04  2.28997E+04 -6.26341E+03  2.67412E+04 -2.53333E+04  1.18063E+04 -2.58016E+04 -8.68166E+03
 -1.86777E+04 -1.40671E+04 -7.91235E+03 -1.74872E+04  1.57403E+03 -1.75458E+04  1.71211E+04 -1.60108E+04
  3.07757E+04 -1.11650E+04  3.09651E+04  2.08659E+03  2.23662E+04  1.87024E+04  4.04978E+03  3.32951E+04
 -2.24792E+04  2.61623E+04 -2.97505E+04  9.81898E+03 -2.16948E+04 -1.01573E+04 -3.94817E+03 -1.62447E+04
 -2.50157E+03 -7.34004E+03 -1.67199E+03  4.09677E+03 -1.59948E+04  2.77373E+03 -1.12715E+04 -6.94552E+03
 -8.59993E+03 -1.56619E+04  4.73546E+03 -2.46516E+04  1.12012E+04 -1.43658E+04  1.64257E+04  6.87896E+01
  9.96498E+03  1.50717E+04 -4.33166E+03  1.98982E+04 -8.50574E+03  1.46635E+04 -1.64304E+04 -2.06684E+03
 -1.57435E+04 -1.46881E+04  1.32574E+03 -2.38703E+04  1.21402E+04 -1.70061E+04  1.85090E+04 -1.01698E+04
  2.03854E+04 -6.36513E+02  1.62346E+04 -1.87899E+03  7.09357E+03 -3.63507E+02  6.93947E+03 -6.03381E+03
  1.69264E+04  3.99415E+03  1.72477E+04  1.19017E+04  1.09744E+04  2.41767E+04 -4.70849E+03  3.47942E+04
 -1.77845E+04  2.50011E+04 -3.35636E+04  9.76986E+03 -2.73075E+04 -3.29460E+03 -2.78613E+04 -1.75719E+04
 -1.13525E+04 -2.16119E+04  3.44937E+03 -2.42631E+04  1.88720E+04 -1.61723E+04  2.05990E+04  4.64238E+03
  6.29229E+03  1.75219E+04 -6.60356E+03  1.14055E+04 -1.34467E+04  5.29337E+03 -1.47974E+04 -4.10816E+03
 -3.29282E+03 -1.43656E+04  4.34826E+03 -8.05721E+03  2.27331E+03 -1.83225E+03  2.93257E+03  5.57581E+03
 -1.29957E+03 -1.25585E+03 -5.44592E+03 -3.33900E+03  1.25585E+03 -9.63389E+03  9.20944E+03 -1.32809E+04
  1.71459E+04 -8.26878E+03  1.72429E+04  3.61647E+03  1.35136E+04  9.56305E+03 -8.89349E+02  1.75273E+04
 -2.06139E+03  2.01755E+04 -1.35850E+04  1.16960E+04 -1.68581E+04  3.18328E+03 -1.14272E+04 -3.84557E+03
 -9.89630E+03 -1.53374E+03 -3.14087E+03 -4.33061E+02 -5.78917E+03  2.09789E+03 -5.74608E+03  5.16757E+03
 -9.91101E+03  1.44915E+03 -9.93103E+03 -9.69685E+03 -5.80534E+03 -1.42613E+04  7.19329E+03 -1.48049E+04
  7.04658E+03 -2.33758E+03  9.69686E+03  4.37534E+03  5.12243E+03  8.79642E+01 -5.35701E+03  2.06096E+03
 -5.92309E+03 -6.69828E+03 -2.27092E+03 -6.80130E+03  4.25603E+03 -8.31078E+03  6.45078E+03 -3.94324E+03
  1.54505E+04  2.49992E+03  8.94616E+03  1.12725E+04  3.34700E+03  1.21018E+04 -8.59635E+03  8.74681E+03
 -1.23753E+04  9.32895E+02 -1.25402E+03 -1.86161E+03  2.74469E+03  6.76924E+02  3.29929E+03 -2.71310E+03
  3.01344E+03  5.35151E+03 -9.36246E+02  7.56474E+03 -6.80230E+03  9.34277E+03 -1.27583E+04  3.49807E+03
 -6.16128E+03 -2.98925E+03 -2.10775E+03 -5.04385E+03  1.28882E+03 -3.27973E+03  2.80100E+02  5.63581E+03
  1.98466E+03  5.89173E+03 -7.02079E+03  7.02138E+03 -8.42328E+03  2.48619E+03 -5.60456E+03 -5.05088E+03
 -7.35151E+03 -1.05851E+04  4.73763E+03 -1.25075E+04  4.39051E+03 -5.87951E+03  9.21741E+03  6.21234E+02
  6.83732E+03  6.68425E+03 -8.59139E+02  1.13063E+04 -5.47414E+03  5.80289E+03 -2.95050E+03  1.92281E+03
 -7.03911E+03 -7.88971E+03  1.17404E+03 -8.13968E+03  6.50933E+03 -9.18419E+03  4.24547E+03 -2.25150E+03
 -4.39697E+02 -3.82418E+03 -6.03930E+03 -6.26520E+03  1.53771E+03 -1.60281E+03  3.95249E+03 -2.93856E+03
 -3.92297E+02 -4.25021E+02  1.10840E+04 -2.25570E+03  7.65045E+03  3.55238E+02  2.65652E+03  1.17282E+04
 -2.30010E+02  1.39220E+04 -9.62243E+03  6.85559E+03 -1.25707E+04  5.60358E+03 -1.11873E+04 -4.28598E+03
 -8.28020E+03 -1.09427E+04  2.99112E+03 -3.26067E+03  3.23070E+03 -1.00201E+03  3.26640E+03 -5.06276E+03
  5.16082E+03 -4.84786E+03  3.20756E+03 -4.49757E+03  2.76314E+03 -4.24122E+03  2.73333E+03  5.25499E+02
  4.91402E+03  7.27430E+01  1.64481E+03  3.07024E+03 -3.03907E+03  4.36439E+03 -4.21411E+02  2.17655E+03
 -8.70686E+03 -1.98713E+03 -3.66823E+03 -4.72763E+03  2.58464E+03 -6.34774E+03  2.53529E+03 -5.45291E+03
  9.39411E+03 -3.11047E+03  7.46981E+03 -5.55830E+02  4.41539E+03  5.96782E+03  1.28419E+03  6.17788E+03
 -2.84560E+03  1.09443E+04 -4.26145E+03 -3.50150E+03 -5.45386E+03 -3.17272E+02  2.73348E+03 -6.44927E+02
 -2.80501E+03  9.27394E+02 -1.51300E+03  4.02931E+03 -1.19412E+03 -9.90372E+01 -7.34161E+03 -1.12928E+03
 -4.50426E+03 -3.06229E+03  8.06571E+02 -3.12464E+03  7.00072E+03 -4.80562E+03  3.49959E+03 -1.91345E+03
  6.84543E+03  1.04279E+04  4.77697E+03  4.39325E+03 -2.16749E+03  7.56411E+03 -1.00519E+04  3.20939E+03
 -4.17592E+03  6.44318E+02 -4.90904E+03 -3.80148E+03  1.15183E+03 -4.24136E+03  2.47946E+03 -1.88278E+03
  7.02511E+03 -8.39727E+02  1.70574E+03  1.65176E+03  3.77329E+03 -2.55713E+02  3.87045E+03 -2.02465E+03
 -4.61895E+03 -3.38811E+03  9.44581E+02 -1.16179E+02  1.08295E+03  7.70699E+03  4.41018E+03  5.31860E+02
 -7.54050E+01  8.66055E+03 -6.50437E+03  7.83873E+03 -5.99950E+03  1.57252E+03 -8.88366E+03 -1.82177E+03
 -1.08589E+03 -5.49903E+03  2.37286E+02 -7.93713E+03  8.65186E+02 -3.81813E+03  2.25920E+03 -4.35174E+03
  1.51900E+03  4.15816E+03  2.85741E+03 -4.71605E+02  2.26132E+03  3.19260E+03  1.92793E+03 -4.29487E+01
  3.27753E+03 -2.74938E+03  1.44216E+03 -2.92243E+03  1.34665E+03 -5.43567E+03  1.31920E+03  4.31043E+03
  1.63993E+02 -3.18694E+03  1.07399E+03  3.03062E+03  2.79186E+01 -2.66218E+03  1.03967E+03  3.00710E+03
 -2.42086E+03 -1.84587E+03 -1.75459E+03  2.47841E+03  5.74414E+03 -4.87704E+03  7.06483E+02  3.82048E+02
 -3.49903E+03 -2.09288E+02 -1.01791E+03  2.83864E+03 -1.71784E+02  3.04473E+03 -3.11434E+03  1.15170E+03
 -1.39583E+03 -4.23657E+02 -8.38197E+01 -2.63115E+03  6.46020E+02  4.06891E+03  6.28869E+02  5.18057E+03
 -3.76084E+03  2.04603E+03 -3.44434E+03 -3.18717E+03 -4.12448E+03 -6.23489E+03  2.85668E+02 -2.84650E+03
  4.07828E+03 -1.54824E+03 -1.28874E+03 -1.71376E+03  2.35610E+03  3.42443E+03  3.87735E+03 -2.23869E+03
  2.53963E+03 -2.70593E+02 -1.83759E+03  3.48419E+03  2.88757E+03  1.93955E+02 -1.94476E+03 -4.52201E+03
 -6.28524E+02  2.04668E+03 -1.64493E+03  5.99706E+02  1.13133E+02 -3.57787E+02 -1.05536E+03 -2.70561E+03
 -2.83304E+03 -8.43367E+02  2.31274E+03  3.45554E+02 -3.11520E+03 -4.90139E+03  1.69460E+03 -1.21169E+03
  5.15207E+02 -2.40537E+03 -2.17492E+03  2.80116E+03 -7.11982E+02 -1.19804E+03 -7.29359E+03  4.74415E+03
  3.18258E+03  4.24340E+03 -1.84408E+03  2.50494E+02 -3.41373E+03 -3.61202E+03 -3.57467E+03  1.25037E+03
 -1.84809E+03  2.65899E+02  8.63051E+02 -1.85747E+03 -6.04472E+03 -2.58540E+03  9.39363E+02 -8.05615E+03
  1.64033E+03 -1.27840E+03  1.61460E+03 -4.75011E+03  6.92887E+02 -5.40335E+02  6.59803E+03  7.58130E+01
  3.34012E+03 -4.40706E+03  3.46634E+03  3.16275E+03 -9.24161E+02 -4.15843E+01 -2.17324E+03 -1.40801E+02
 -1.22532E+03  2.37894E+03  7.85510E+02 -9.31071E+02  3.46887E+03  1.54951E+03 -4.77825E+02 -4.22834E+02
  1.02414E+03 -2.96804E+03  6.82345E+02  5.55180E+02  9.84747E+02 -1.54798E+03 -9.95792E+02 -3.77500E+03
  1.20543E+03  2.32497E+02  8.58851E+02 -3.31500E+03 -3.08109E+02  2.05556E+03 -5.90362E+03  3.06718E+03
 -2.03986E+03  1.00348E+03 -2.68112E+03 -4.97196E+02 -1.55241E+03 -1.27367E+03 -4.97296E+03 -5.21433E+03
  1.86287E+03 -2.47761E+03  3.15732E+03 -3.92529E+03  1.11580E+03 -5.43121E+02  1.64878E+03  3.56618E+02
  2.84520E+03  4.14993E+03  2.84641E+03  1.52803E+03 -3.14998E+03 -1.49629E+03  1.07698E+03 -2.38066E+03
  1.32420E+03 -1.07057E+03  1.59070E+03  1.27142E+02  2.04321E+02  1.87802E+03  1.45486E+03 -3.23462E+03
 -1.69677E+03  2.90869E+03 -6.13636E+03  2.96863E+03 -8.31658E+02  4.31682E+02  5.41719E+02 -7.46266E+02
  1.51020E+03 -2.39772E+03 -2.44295E+02 -1.05953E+03 -1.21125E+02 -5.31971E+03  1.14312E+03  3.57148E+02
 -1.41618E+03  3.54806E+03 -2.99594E+02  3.10761E+03  1.68550E+03 -4.59365E+03  4.67364E+03  2.22440E+03
 -1.13771E+03 -1.36967E+03  4.78988E+02 -3.30710E+02 -4.89680E+03  7.80576E+02  3.88279E+02 -4.02714E+03
  1.18581E+03 -3.01511E+03  2.08260E+03 -4.24638E+03 -5.54839E+02 -2.47106E+03  9.47470E+02  2.21365E+02
 -6.59986E+03 -1.19758E+02  9.07763E+02 -3.43959E+02 -2.21821E+03  1.87990E+00 -1.19807E+03  3.19605E+03
