 $NMID ID='MM_0lb_SNR50_16hz_g40_92.RAW', FMTDAT='(8E13.5)'
 TRAMP=1., VOLUME=1. $END
  3.08864E+05 -1.09132E+03  3.35535E+05  2.49454E+05  8.31455E+04  3.42339E+05 -1.37199E+05  2.50377E+05
 -1.89820E+05  8.19385E+04 -1.09022E+05 -3.63483E+04  1.27327E+03 -5.30793E+04  5.62184E+04  2.98727E+03
  3.41763E+04  5.14770E+04 -1.34140E+04  7.59078E+04 -5.71553E+04  6.69927E+04 -8.52626E+04  3.13234E+04
 -8.25207E+04 -1.14844E+04 -6.14816E+04 -4.74970E+04 -1.37302E+04 -6.21055E+04  2.91813E+04 -4.84671E+04
  4.20245E+04  2.35975E+03  1.45111E+04  4.84004E+04 -3.62298E+04  4.51642E+04 -6.81840E+04 -2.54086E+03
 -5.25526E+04 -5.83015E+04 -4.06880E+03 -7.31500E+04  3.01448E+04 -5.11891E+04  4.88382E+04 -1.76839E+04
  3.76121E+04  9.59840E+03  3.27352E+04  2.71753E+04  1.41146E+04  3.18767E+04 -4.57492E+03  2.90411E+04
 -2.13135E+04  1.22705E+04 -1.72677E+04 -4.73370E+03  2.25839E+03 -6.77347E+03  1.82105E+04  1.40825E+04
  3.66780E+03  3.70354E+04 -3.09556E+04  3.63635E+04 -5.99759E+04  2.85487E+03 -5.58381E+04 -4.11103E+04
 -1.50005E+04 -6.47532E+04  4.03400E+04 -4.51160E+04  5.64585E+04 -1.32399E+03  3.42845E+04  2.89467E+04
 -5.04032E+03  3.60285E+04 -2.84442E+04  1.44862E+04 -3.12493E+04 -7.31220E+03 -1.26648E+04 -1.26819E+04
 -5.97542E+03 -1.12462E+04 -9.91791E+02 -1.58229E+04  2.84548E+03 -2.45578E+04  1.26807E+04 -1.39564E+04
  1.20040E+04  9.69277E+03 -7.22735E+03  1.39766E+04 -1.99159E+04 -1.60219E+03 -6.83063E+03 -2.94907E+04
  2.56940E+04 -3.72331E+04  4.91478E+04 -1.83868E+04  4.42205E+04  1.62011E+04  1.59704E+04  4.40959E+04
 -1.42930E+04  3.24905E+04 -2.56994E+04  1.71035E+03 -6.89158E+03 -2.63907E+04  1.58924E+04 -3.20780E+04
  4.10297E+04 -8.75339E+03  3.24325E+04  2.05156E+04  1.68698E+04  4.41073E+04 -8.86379E+03  4.61874E+04
 -3.28541E+04  3.39485E+04 -3.56044E+04  4.74972E+03 -3.85983E+04 -1.57419E+04 -2.07800E+04 -3.97483E+04
  6.05725E+03 -3.52109E+04  3.17709E+04 -1.23603E+04  2.95691E+04  1.02879E+04  2.32407E+03  1.83408E+04
 -1.68094E+04  1.10187E+04 -1.14964E+04 -7.01170E+03  5.58194E+03 -7.11142E+03  1.91451E+04  4.82677E+03
  1.03307E+04  2.23213E+04 -6.66610E+03  2.28740E+04 -2.31187E+04  1.15149E+04 -2.75725E+04 -1.06328E+04
 -1.97204E+04 -1.75288E+04 -6.15821E+03 -1.39421E+04  9.06280E+03 -1.74815E+04  6.59558E+03 -1.52661E+04
  1.79423E+04 -1.37454E+04  3.24091E+04  2.89877E+02  2.24932E+04  2.49495E+04  1.87422E+03  3.66818E+04
 -1.55794E+04  2.89385E+04 -2.82127E+04  1.34071E+04 -1.84044E+04 -8.19327E+03 -5.67407E+03 -1.54803E+04
  1.29606E+02 -4.09963E+03 -9.56138E+02  3.15395E+03 -1.59338E+04  6.84569E+03 -1.85251E+04 -3.98932E+03
 -9.70647E+03 -1.76537E+04  8.25274E+02 -2.45049E+04  1.24258E+04 -1.32005E+04  9.50474E+03  1.47905E+03
  7.93775E+03  1.46084E+04 -4.44900E+03  1.55322E+04 -9.80377E+03  1.24138E+04 -1.76559E+04 -9.79823E+02
 -1.33948E+04 -1.41029E+04 -1.91333E+03 -1.90664E+04  1.11906E+04 -1.84868E+04  1.15853E+04 -6.76185E+03
  1.81250E+04 -3.45325E+02  1.59122E+04  1.03037E+04  5.07310E+03  3.12740E+03  7.96302E+03 -2.88295E+03
  1.64523E+04  3.17673E+03  1.57830E+04  1.52182E+04  7.45695E+03  2.37963E+04 -3.36004E+03  3.35931E+04
 -1.87572E+04  2.07246E+04 -2.72154E+04  1.15855E+04 -2.60453E+04  1.65348E+03 -2.23417E+04 -1.43080E+04
 -1.45557E+04 -2.23759E+04  9.98816E+03 -1.83264E+04  1.70332E+04 -1.01834E+04  1.58516E+04  1.58832E+02
  5.40143E+03  1.00519E+04 -7.81523E+03  1.33972E+04 -1.68840E+04  3.34261E+03 -1.01580E+04 -5.80461E+03
 -2.12793E+03 -1.23178E+04  1.09858E+04 -1.01441E+04  8.57068E+03 -1.79148E+03 -9.68293E+02  4.56944E+02
 -3.89316E+03  1.79081E+03 -4.66521E+03 -3.18936E+03 -2.14310E+03 -9.46874E+03  3.30795E+03 -8.48607E+03
  8.68441E+03 -5.74471E+03  1.37930E+04  5.78563E+03  1.24661E+04  1.19734E+04  7.81777E+03  1.51643E+04
 -3.74353E+03  1.93961E+04 -1.28660E+04  8.79219E+03 -1.69502E+04  5.29904E+03 -1.32019E+04 -2.67329E+03
 -2.09984E+03 -3.23578E+03 -7.82738E+02  2.15248E+03 -4.30323E+03  1.44293E+03 -9.28481E+03  4.99719E+03
 -9.91017E+03 -3.83942E+03 -9.53069E+03 -9.19544E+03 -2.00748E+03 -8.78784E+03  7.41339E+02 -1.21906E+04
  7.92899E+03 -8.51768E+03  2.60818E+02  2.44790E+03  2.55237E+02  4.90033E+03 -6.06119E+02 -6.60503E+02
 -1.17809E+03 -7.07296E+03 -3.86840E+02 -1.09586E+04  4.90786E+03 -9.54405E+03  1.39285E+04 -5.28369E+03
  1.27752E+04 -4.02450E+03  1.13290E+04  3.16390E+03  2.83751E+03  6.68327E+03 -8.61419E+03  9.92390E+03
 -9.47781E+03  3.47118E+03 -5.36005E+03 -1.43049E+03 -3.38732E+03 -4.92336E+03  2.65833E+03 -7.16462E+02
  4.28268E+03  7.49843E+03 -7.05353E+02  7.38801E+03 -4.38922E+03  6.77376E+03 -1.09748E+04  6.51998E+02
 -5.84053E+03  1.25749E+03  3.17531E+03 -1.03954E+04  5.40373E+03 -5.79852E+03  5.07112E+03  4.05842E+02
 -4.33091E+02  2.87854E+03 -6.23415E+03  1.16734E+03 -5.90366E+03  2.82653E+03 -3.79617E+03 -1.12556E+03
  1.34217E+02 -8.58075E+03  2.39931E+03 -9.56188E+03  3.12428E+03 -5.02764E+03  8.64208E+03  1.40210E+03
  3.92013E+03  6.69458E+03 -2.89867E+03  6.78745E+03 -7.15867E+03  6.60208E+03 -2.78269E+03  3.03704E+03
 -4.99396E+03 -1.79955E+03  5.15605E+03 -6.30573E+03  1.30737E+03 -8.00359E+03  6.81207E+03 -3.69601E+03
  6.31724E+02 -6.36963E+02 -1.84982E+03  1.46685E+03  9.13059E+02 -5.45973E+01  4.20882E+02 -9.17947E+02
  8.54458E+03 -4.24870E+03  3.43445E+03  3.73824E+02  5.18539E+03  9.27279E+03  4.19778E+03  3.88003E+03
 -6.07882E+03  1.14756E+04 -9.22476E+03  4.82059E+03 -1.26089E+04 -1.52768E+03 -7.99200E+03 -5.09519E+03
 -6.61143E+03 -7.96352E+03  2.66421E+03 -6.45243E+03  8.61225E+02 -6.50286E+03  7.22997E+03 -1.47882E+03
  2.19612E+03 -3.46857E+03  1.05441E+03 -5.21246E+03 -8.16672E+01 -6.44824E+03  3.56469E+03 -4.36382E+03
  7.16626E+03  2.87345E+03  3.74770E+03  4.02413E+03 -3.21134E+03  3.10097E+03 -7.04911E+03  6.72502E+02
 -6.62230E+03 -5.68613E+02 -2.07386E+03 -2.91542E+03 -2.21364E+03 -7.09398E+03  2.43046E+03 -9.44527E+03
  8.39110E+03 -9.31906E+02  1.06769E+04  4.87924E+03  7.75763E+03  7.90589E+03 -1.94935E+03  7.43716E+03
 -2.83181E+03  5.56151E+03 -6.24207E+03  1.58197E+03 -2.23223E+03 -5.77174E+03  5.36155E+02 -6.57970E+03
 -2.48099E+03 -1.14763E+02 -1.17765E+03  1.25822E+03 -6.04074E+03  5.53489E+03 -4.41252E+03  2.23845E+03
 -1.86423E+03 -7.71476E+03  1.01940E+03 -5.73741E+03 -3.91763E+02 -3.70815E+03  4.00046E+03 -2.22983E+03
  7.04731E+03  6.22688E+03  3.00062E+03  6.32913E+03  3.10537E+03  5.74169E+03 -2.12437E+03  8.03050E+03
 -8.01854E+03  1.21865E+02 -2.28778E+03 -5.21006E+03  2.43380E+03 -4.29102E+03  7.90388E+03 -1.88301E+03
  4.05562E+03 -4.46603E+03  5.34721E+03 -2.75854E+03 -4.31230E+02  3.81937E+03 -5.12111E+02 -3.00948E+03
 -2.04364E+03  2.00550E+03  2.46122E+03  2.68569E+03  1.21877E+03  3.10834E+03  2.57127E+03  1.04948E+02
  1.06958E+02  3.81907E+03 -6.08314E+03  7.17831E+03 -1.12765E+03  3.22721E+03 -5.76616E+03 -2.06943E+03
 -6.28842E+02 -8.06410E+03 -7.30708E+02 -8.35106E+03  1.86211E+03 -3.79518E+03  5.72909E+03 -1.71682E+03
  5.79329E+03  2.45728E+03  2.12265E+03  6.90234E+03  1.75715E+03  4.20432E+03  9.20177E+02 -4.25141E+02
 -1.74613E+03 -4.68597E+03  8.83406E+02 -6.34198E+01  8.47589E+02  1.40317E+03  2.51080E+03  6.64844E+03
  1.37538E+03  4.07735E+03  1.51390E+03 -2.54003E+02 -1.23056E+03  3.21153E+03  2.05241E+03 -3.90865E+03
  1.66730E+03 -1.80285E+03  2.53182E+03  6.04596E+01 -5.39573E+02  2.52916E+03  4.65181E+03  6.27665E+03
 -2.59359E+03  1.03572E+03 -1.85728E+03 -1.20554E+03 -3.23165E+03  1.28589E+03 -4.28527E+03 -1.77028E+03
  8.80461E+02 -1.02490E+03  5.35957E+03 -3.23619E+03  1.96202E+03  5.32282E+03 -1.94222E+03 -3.36425E+03
 -1.92967E+03  3.28334E+02 -2.11030E+03 -5.38938E+02 -2.62697E+03 -1.45246E+03  6.93882E+02 -8.26369E+02
 -1.89365E+03 -1.06954E+03  2.12689E+03  1.72094E+03  7.86180E+02 -4.56586E+02 -1.80271E+03 -3.92605E+02
  1.03699E+02 -2.88146E+03  3.99395E+03 -2.17228E+03 -4.99247E+03 -1.80672E+03 -3.58974E+02  3.20751E+02
  5.17446E+02  2.69342E+03  9.00708E+03 -7.75865E+01 -2.98389E+03  3.61648E+02  6.35625E+02  8.26028E+02
  1.91007E+03  3.96054E+03 -3.86997E+03 -7.73774E+02 -2.92722E+03 -1.39726E+03  2.41636E+03 -4.13583E+03
 -2.05680E+03  1.71542E+03 -3.81068E+03 -6.13267E+03  3.91451E+03  7.02523E+03  3.77684E+03  2.20778E+03
 -1.66044E+02 -8.77937E+02  3.30840E+03 -1.11078E+03 -3.57895E+03  4.03934E+03  5.00558E+01  2.17472E+03
 -2.54000E+03  1.63636E+03 -2.04777E+03  1.99440E+02 -4.10585E+03 -3.26930E+03 -3.35263E+03 -4.45431E+03
 -3.55555E+03  8.98829E+02  2.51006E+03  2.06431E+02  1.46250E+03 -4.74989E+03  3.78582E+03  1.02373E+03
  6.70240E+03  4.01286E+02  4.18582E+03  3.51527E+03  1.29966E+03  4.77547E+03 -1.01105E+03  1.91302E+03
  1.29642E+03 -5.73782E+03  1.91641E+03  3.87540E+03 -6.30906E+02 -1.99410E+03  4.44405E+03  5.71122E+03
 -1.76318E+03  1.02234E+03 -9.70802E+02 -2.75379E+03  3.58148E+03 -4.13674E+02 -1.13124E+03 -1.55099E+03
  8.63729E+02  7.70560E+01  1.71826E+03  1.96394E+01 -1.59183E+03  9.91505E-01 -6.28280E+02  3.20339E+03
  9.11229E+02  7.93006E+03 -6.94563E+02  2.74966E+03 -2.58640E+03  2.11782E+03 -4.50353E+03 -6.57277E+03
 -2.40665E+03 -2.08116E+03  1.34938E+03 -5.94292E+03 -1.69800E+02 -2.48901E+03  4.89991E+03 -1.53924E+03
  9.23682E+02 -3.23679E+03 -1.36281E+03  4.39073E+02 -1.09834E+03  6.72138E+02 -1.93728E+03  1.51405E+03
  5.45627E+03  6.82772E+03  1.10184E+03 -2.56880E+02  1.34000E+03 -1.72389E+02 -1.41977E+03  1.54630E+03
 -5.53824E+02  9.59150E+02  6.84246E+02 -2.19996E+03 -4.63023E+02 -9.95101E+02 -2.78743E+03 -3.37769E+03
  9.60179E+02 -8.37457E+02  2.47642E+03 -3.40184E+03 -1.23350E+03  2.71460E+03 -1.31296E+02  8.10204E+02
 -1.57227E+03 -8.39550E+02  1.15600E+03  3.59811E+03 -1.84177E+03  2.40742E+03 -5.15718E+03 -1.04302E+03
  1.21812E+02  5.29707E+03  2.19580E+03 -3.55017E+02 -4.45603E+03  1.21384E+02  2.41507E+03  3.09176E+02
 -5.10304E+02 -9.42008E+02 -2.07013E+03 -2.09355E+03 -2.28411E+02 -2.00646E+03  2.71776E+03 -1.50032E+03
  6.05441E+03  1.99510E+03  1.80044E+03  3.42419E+03  1.82602E+02 -3.19140E+02  4.70753E+03 -4.11483E+03
