 $NMID ID='MM_0lb_SNR50_18hz_g60_54.RAW', FMTDAT='(8E13.5)'
 TRAMP=1., VOLUME=1. $END
  3.11513E+05  6.87752E+03  3.38523E+05  2.53583E+05  8.48095E+04  3.39041E+05 -1.27319E+05  2.52615E+05
 -1.85122E+05  8.40280E+04 -1.10660E+05 -3.30133E+04  1.59454E+03 -5.08977E+04  5.34802E+04  1.74609E+03
  3.46596E+04  5.22840E+04 -1.53981E+04  7.61493E+04 -6.16368E+04  6.30007E+04 -8.89261E+04  2.97364E+04
 -8.08824E+04 -1.18489E+04 -5.68512E+04 -5.25982E+04 -1.12802E+04 -7.04832E+04  2.34603E+04 -4.82167E+04
  4.28730E+04  3.69299E+03  1.21315E+04  4.36263E+04 -3.75929E+04  4.51656E+04 -6.86959E+04 -1.80240E+03
 -5.55843E+04 -5.85356E+04 -6.60105E+03 -7.42926E+04  3.57973E+04 -5.34485E+04  4.98285E+04 -1.54875E+04
  4.66171E+04  7.33692E+03  3.20023E+04  2.35180E+04  1.63186E+04  2.72365E+04 -5.30491E+03  3.06414E+04
 -2.20551E+04  1.50350E+04 -2.22245E+04 -1.03614E+04  1.03021E+04 -6.25981E+03  2.37704E+04  1.57146E+04
  8.99597E+03  3.71472E+04 -3.45730E+04  3.27587E+04 -6.09938E+04  5.30617E+03 -5.92025E+04 -4.41822E+04
 -1.59121E+04 -6.39397E+04  4.25062E+04 -4.79527E+04  5.64437E+04 -2.45353E+03  3.29129E+04  3.07560E+04
 -7.49464E+03  3.14843E+04 -2.49096E+04  1.66399E+04 -2.47680E+04 -7.68110E+03 -1.79738E+04 -1.15131E+04
 -5.69253E+03 -1.20096E+04 -1.90782E+03 -1.43385E+04  6.47936E+03 -2.77454E+04  1.63616E+04 -9.13129E+03
  1.13084E+04  6.84318E+03 -1.22556E+04  1.04880E+04 -2.46956E+04 -3.06356E+03 -5.41009E+03 -3.46093E+04
  2.08494E+04 -4.17125E+04  4.61578E+04 -1.97998E+04  4.51760E+04  2.03682E+04  1.28682E+04  4.30000E+04
 -1.83762E+04  2.87287E+04 -2.48457E+04  5.51212E+03 -4.20599E+03 -2.63916E+04  2.17763E+04 -2.98852E+04
  4.14149E+04 -7.24990E+03  3.63896E+04  2.25834E+04  1.62652E+04  4.32232E+04 -7.09480E+03  4.92584E+04
 -2.96963E+04  3.27968E+04 -3.80767E+04  1.13956E+04 -4.53491E+04 -1.33245E+04 -2.15523E+04 -3.70552E+04
  5.15673E+03 -3.87351E+04  3.29223E+04 -1.27636E+04  2.85672E+04  1.26965E+04  5.96115E+03  1.56090E+04
 -1.34511E+04  8.23722E+03 -8.68874E+03 -4.16303E+03  4.72227E+03 -1.32778E+04  1.90405E+04  8.48748E+03
  1.23908E+04  2.02763E+04 -4.58230E+03  2.49660E+04 -2.19016E+04  1.01765E+04 -2.75069E+04 -6.84559E+03
 -1.74436E+04 -1.43417E+04 -5.98599E+03 -2.30229E+04  9.35066E+02 -1.84723E+04  1.41331E+04 -1.66999E+04
  2.56206E+04 -1.28584E+04  2.96427E+04  1.74206E+03  2.07873E+04  2.05051E+04  1.76641E+03  2.97640E+04
 -1.56507E+04  2.89080E+04 -2.35366E+04  1.07524E+04 -1.55559E+04 -1.44058E+04 -5.51048E+03 -8.48250E+03
 -6.84770E+02 -6.27813E+03 -4.26683E+03  7.03407E+03 -1.25966E+04  6.41672E+03 -1.63331E+04 -1.04989E+04
 -9.50040E+03 -2.32699E+04  4.40631E+03 -2.15195E+04  1.70112E+04 -1.53964E+04  1.41805E+04 -1.91152E+03
  1.02227E+04  1.35347E+04 -8.72802E+03  1.78496E+04 -1.08668E+04  9.39935E+03 -2.06075E+04 -7.37952E+03
 -1.30424E+04 -1.35890E+04 -1.07854E+03 -2.02300E+04  1.34646E+04 -1.56310E+04  1.82574E+04 -8.73966E+03
  1.17831E+04  2.89349E+03  1.12380E+04  6.27385E+03  3.03908E+03  5.94385E+03  3.36822E+03 -2.97857E+02
  1.24640E+04  2.51682E+03  1.35799E+04  1.00207E+04  1.05046E+04  2.55391E+04 -9.83024E+02  2.89778E+04
 -1.92417E+04  2.53916E+04 -2.52633E+04  9.07808E+03 -2.95885E+04 -2.47064E+03 -2.23866E+04 -1.69430E+04
 -4.46072E+03 -2.44160E+04  7.29879E+03 -2.25837E+04  2.17503E+04 -1.26796E+04  1.18829E+04  3.98675E+03
  4.00383E+03  1.59441E+04 -8.00445E+03  1.08237E+04 -1.39025E+04 -1.50573E+02 -1.01762E+04 -7.03865E+03
 -7.34444E+02 -1.51470E+04  8.18947E+03 -7.55685E+03  9.87948E+03 -4.43840E+02  8.99282E+01  6.63879E+03
 -5.08204E+03  3.29506E+03 -4.96213E+03 -3.43291E+03  2.34807E+03 -1.25486E+04  8.75774E+03 -1.39850E+04
  1.61777E+04 -2.80365E+03  1.65604E+04  3.67592E+03  1.59757E+04  6.97673E+03  8.41431E+03  1.28109E+04
 -4.33967E+03  2.32197E+04 -1.38035E+04  7.39227E+03 -1.11993E+04  7.15709E+03 -1.16975E+04 -2.99002E+03
 -7.17701E+03 -4.22030E+03 -2.34774E+03  2.09690E+03 -1.64785E+03  2.39905E+03 -3.35983E+03  6.00550E+03
 -9.41320E+03  1.44987E+02 -1.19254E+04 -5.91093E+03 -2.48184E+03 -1.11058E+04  5.86670E+03 -1.07257E+04
  1.07935E+04 -4.33329E+03  2.77252E+03 -3.79752E+02 -5.28906E+02  2.98144E+03 -3.55733E+03  3.78132E+03
 -3.90014E+03 -8.26788E+03  1.19380E+03 -4.10153E+03  5.74454E+03 -1.14134E+04  1.02065E+04 -3.89056E+03
  1.41817E+04 -1.65983E+03  1.09165E+04  7.17212E+03 -4.33711E+03  1.33429E+04 -3.86078E+03  1.17170E+04
 -6.19075E+03  5.38187E+02 -2.39997E+03 -1.94051E+03  3.03820E+03 -2.54539E+03  5.47021E+03 -2.81132E+03
  4.39583E+03  6.71455E+03 -5.61258E+03  7.64490E+03 -2.86649E+03  1.06805E+04 -1.02414E+04  2.31065E+03
 -8.48064E+03 -5.85736E+03 -1.81760E+03 -4.22912E+03  2.11478E+03 -4.73070E+03  4.19871E+03  2.01232E+02
  1.56263E+03  5.80807E+03 -2.20317E+03  4.51861E+03 -9.94901E+03  5.65048E+02 -5.23952E+03 -2.37241E+03
 -1.80399E+03 -3.94490E+03  7.00445E+02 -6.46464E+03  1.07863E+04 -4.65949E+03  7.05280E+03 -1.21260E+03
  5.17537E+03  9.81177E+03  2.81071E+02  5.67628E+03 -1.02762E+04  7.12811E+03 -5.59090E+03  2.48232E+03
 -4.84151E+03 -2.47806E+03 -1.46127E+03 -5.84593E+03  1.64383E+03 -2.75906E+03  1.39417E+03 -6.70584E+02
  6.94293E+03 -2.11499E+03 -8.28037E+02  2.87573E+03  4.14798E+03 -1.88025E+03  2.79413E+03 -4.43536E+03
  3.53353E+03 -8.51250E+03  3.04814E+03 -3.64679E+02  8.82271E+03  4.23234E+03  6.73804E+03  1.04211E+04
  7.31064E+02  9.23185E+03 -9.95152E+03  5.64121E+03 -1.20664E+04 -2.87063E+03 -1.03917E+04 -4.74203E+03
 -5.78998E+03 -2.36588E+03  9.16555E+02 -7.67337E+03 -1.12998E+03 -3.11196E+03  3.06015E+03  3.59718E+03
 -2.75766E+02 -3.89532E+03  5.13163E+02 -2.21774E+03  4.52081E+03 -9.34111E+02  4.24289E+03 -6.60542E+02
  5.45216E+03 -1.81619E+03  5.75331E+03  2.29590E+03 -8.26525E+02  5.55207E+03 -1.02029E+04  2.40914E+03
 -2.50126E+03 -5.16213E+02 -2.51452E+03 -3.54635E+03  1.95837E+03 -4.32036E+03  2.93211E+03 -3.41993E+03
  6.68890E+03 -5.81335E+03  9.58752E+03 -1.40916E+03  9.89122E+03  7.77175E+03  1.45559E+02  5.93874E+03
 -5.37809E+03  8.30097E+03 -4.74835E+03  7.29558E+03 -2.91101E+03  6.18801E+02 -6.61153E+02  4.13115E+02
  4.75488E+03  1.03525E+03 -3.43969E+03 -3.60621E+03 -5.57592E+03  3.29968E+01 -6.24439E+03 -1.79596E+03
 -7.38888E+03 -3.75438E+03 -3.81671E+02 -4.16807E+03  1.08951E+03 -4.24311E+03 -9.91119E+02 -1.88577E+03
  6.78677E+03  3.12873E+03  3.01137E+03  4.57265E+03  1.26081E+03  5.22773E+03 -4.62974E+03 -1.06117E+03
 -6.69807E+03  2.78705E+02 -6.11387E+03 -4.85623E+03 -5.59719E+03 -2.14391E+03  3.54345E+03 -1.89593E+03
  2.88532E+03 -3.30478E+03  2.67103E+03 -6.91916E+02 -1.08408E+03  4.20750E+03  4.50447E+03  4.34876E+02
 -3.37615E+02  1.07341E+03  4.51882E+02 -2.98600E+02  2.24560E+03  5.97727E+03 -1.56360E+03  2.39109E+03
 -1.85188E+03  2.99923E+03 -1.41188E+03  2.39288E+03 -2.65909E+03  4.08343E+03 -7.70985E+03  1.56782E+03
 -4.91141E+03  2.98121E+02  1.06633E+03 -8.35632E+03  3.49676E+03 -6.28680E+03 -1.98869E+02 -7.00039E+02
  1.75604E+03 -2.60556E+02 -2.90279E+02  4.64899E+03 -3.55672E+03 -2.89602E+03  5.69929E+02 -1.13284E+03
  1.04787E+03  2.54648E+03  1.62568E+03 -3.64894E+03  4.36579E+03  1.87116E+03  3.77017E+03  9.18045E+02
  1.72826E+03  1.28863E+03 -4.83791E+03  1.00045E+03  2.28744E+03  3.85424E+03  1.28185E+03 -1.49931E+03
  3.36858E+03 -3.94074E+03  1.75524E+03  1.87611E+03  1.97184E+02  1.74705E+03 -2.08864E+02 -1.90880E+03
  4.18052E+03  3.71280E+03  1.01249E+03  2.74753E+03 -5.02999E+03 -2.74231E+03  5.50892E+03 -1.40751E+03
 -2.47642E+02 -5.11143E+03  6.47284E+03 -1.22952E+03  2.45080E+03 -2.99091E+03 -1.61713E+03 -2.01177E+03
 -2.43254E+03  4.12796E+03 -5.88227E+02  1.59186E+03  5.19318E+02  5.20526E+02 -1.71099E+03 -4.00555E+03
 -6.17592E+02  1.67531E+03 -1.29252E+03  6.09659E+02 -4.50328E+02  2.39788E+03  1.27317E+03  7.10295E+03
 -1.73156E+03  3.86002E+03 -1.90679E+03  1.12010E+03  9.55961E+02 -1.58124E+03  8.84676E+02  2.28603E+03
  7.26187E+03  1.48978E+03  2.90720E+03 -1.82143E+03  1.42836E+03  2.96527E+03 -3.74565E+03  4.13227E+03
  2.65026E+02  5.43120E+03 -7.45772E+02 -1.16678E+02 -4.76213E+03 -2.64545E+03 -1.70214E+02  1.34451E+02
  2.83272E+03 -2.00733E+03 -2.57295E+02 -2.71394E+03 -1.47064E+02  1.71975E+03 -1.21298E+03  2.80887E+03
  2.68584E+02  3.87373E+03 -2.88269E+03  1.92049E+03  1.56685E+03  4.55801E+03 -6.48510E+03  6.42899E+02
 -3.13957E+03  2.31673E+03 -5.57531E+02  7.50319E+02 -2.02958E+03  2.72953E+02 -2.12852E+03 -2.09223E+03
 -2.77043E+03 -2.41899E+03 -1.40779E+03 -2.32279E+03  6.25194E+03 -5.80767E+03  2.92460E+03 -6.86072E+02
  4.68053E+03 -4.09367E+03  4.22343E+03  1.64963E+03  1.28187E+03 -5.61152E+02  1.47258E+03 -7.22030E+02
 -9.07530E+01  1.20773E+03  2.35645E+03  7.93107E+01 -1.12624E+03  7.53186E+01 -4.12696E+03  2.20310E+03
 -2.58574E+03  2.14247E+03  2.94566E+01 -5.29113E+02 -7.24268E+02 -2.90102E+03  4.00435E+03 -2.50000E+03
  2.82928E+03 -2.61774E+03  1.32935E+03 -7.09482E+02 -3.21077E+02  2.69366E+03 -1.94637E+03  1.88664E+03
 -1.57980E+03 -1.25601E+03 -3.21437E+02  2.77384E+03 -4.83842E+03 -2.23427E+03 -1.15505E+03 -5.73383E+03
 -3.78244E+03 -1.56449E+03 -2.69786E+02  2.23218E+03 -8.43197E+02  5.61730E+03  5.17247E+03  3.36700E+03
 -1.28721E+03 -1.31167E+03 -1.97985E+02  4.24059E+02  6.78040E+02  9.76623E+02  1.55731E+03  4.02687E+02
  2.29855E+03 -1.28790E+03  3.87965E+02  2.33221E+02  6.70063E+02  5.62129E+03  6.78441E+02  4.83654E+02
  9.19468E+01  2.16545E+03  2.39715E+02 -2.11728E+03  4.66790E+02 -3.82325E+03 -2.67952E+03  2.78548E+03
  1.29682E+03 -6.83836E+02  5.38740E+03 -4.65095E+03 -6.10876E+01  1.45623E+03 -1.24045E+02  1.63708E+03
  2.74495E+03 -7.89427E+02 -5.56021E+02 -4.86112E+02 -3.71793E+03  3.48167E+03  3.22184E+02 -5.93450E+03
 -2.95521E+03 -3.81080E+02 -3.06914E+03  9.09299E+02 -1.36391E+03  2.81132E+03  9.52301E+02 -3.20947E+03
 -1.65267E+03 -8.33135E+02  4.64374E+03 -3.36368E+03 -1.02546E+02 -1.88293E+03  3.85299E+03  4.78362E+03
 -3.22535E+03  4.93813E+03  1.06229E+03  1.58177E+03  1.26753E+03 -5.85354E+01 -1.01916E+03 -3.19343E+03
