 $NMID ID='MM_0lb_SNR50_17hz_g55_32.RAW', FMTDAT='(8E13.5)'
 TRAMP=1., VOLUME=1. $END
  3.09728E+05 -4.57955E+02  3.37010E+05  2.54199E+05  8.75407E+04  3.39445E+05 -1.31443E+05  2.48576E+05
 -1.87588E+05  8.26392E+04 -1.10112E+05 -3.08007E+04 -2.97452E+03 -5.09282E+04  5.91276E+04  1.87380E+03
  3.44698E+04  5.24731E+04 -1.95678E+04  7.50121E+04 -6.51084E+04  6.39877E+04 -8.21355E+04  3.02660E+04
 -8.19119E+04 -9.10276E+03 -5.61090E+04 -4.94146E+04 -9.75757E+03 -7.23976E+04  2.93940E+04 -4.54409E+04
  4.15705E+04 -7.85529E+02  1.85641E+04  4.56305E+04 -3.57305E+04  4.69141E+04 -6.81477E+04 -6.00075E+02
 -5.35347E+04 -5.44308E+04 -7.97211E+03 -7.53151E+04  3.00354E+04 -5.99377E+04  4.86976E+04 -1.54735E+04
  4.33688E+04  1.13870E+04  2.87292E+04  2.68323E+04  1.39770E+04  2.96104E+04 -6.68765E+03  2.84204E+04
 -2.45636E+04  1.37024E+04 -1.99020E+04 -2.15749E+03  6.04891E+03 -3.80009E+03  2.35358E+04  1.31087E+04
  7.39707E+03  3.37352E+04 -2.91462E+04  3.32406E+04 -6.56005E+04  6.05825E+03 -5.80697E+04 -4.36975E+04
 -1.25705E+04 -6.45167E+04  3.80587E+04 -4.50831E+04  5.56488E+04 -1.79795E+03  3.74225E+04  3.30296E+04
 -7.65394E+03  3.92392E+04 -2.79984E+04  1.59563E+04 -2.70319E+04 -5.01377E+03 -1.81312E+04 -7.19450E+03
 -5.83581E+03 -1.34526E+04 -5.62926E+03 -1.78402E+04  4.87683E+03 -2.30977E+04  2.15398E+04 -1.19557E+04
  1.14218E+04  5.74611E+03 -8.17383E+03  1.66328E+04 -2.02830E+04 -4.70042E+03 -9.86193E+03 -3.07696E+04
  1.90291E+04 -4.23077E+04  4.82816E+04 -1.95228E+04  4.02409E+04  1.69339E+04  1.59760E+04  4.19077E+04
 -1.56181E+04  3.29218E+04 -2.70084E+04  2.76620E+03 -1.00267E+04 -2.62520E+04  2.51483E+04 -2.87839E+04
  3.58466E+04 -7.71290E+03  3.27720E+04  2.20193E+04  1.41646E+04  4.24114E+04 -9.97528E+03  4.66044E+04
 -3.16447E+04  3.46044E+04 -3.72474E+04  7.75018E+03 -3.75295E+04 -1.98109E+04 -2.40877E+04 -3.66489E+04
  9.86624E+03 -3.98613E+04  2.81480E+04 -1.94381E+04  2.49061E+04  9.11988E+03  4.14555E+03  1.58205E+04
 -1.36221E+04  1.04873E+04 -1.36430E+04 -1.33210E+04  7.25143E+03 -8.20509E+03  1.77988E+04  4.62911E+03
  1.00938E+04  2.66277E+04 -8.63908E+03  2.05627E+04 -2.34924E+04  1.00377E+04 -2.76656E+04 -3.78552E+03
 -1.67822E+04 -1.61981E+04 -5.92393E+03 -1.75557E+04  4.32443E+03 -1.37928E+04  1.55108E+04 -1.66892E+04
  2.32082E+04 -8.02231E+03  3.35089E+04  3.53526E+03  2.42693E+04  2.06955E+04  8.77360E+03  3.41343E+04
 -1.66358E+04  2.83942E+04 -2.95262E+04  1.41401E+04 -2.08811E+04 -8.60893E+03 -4.60748E+03 -1.35717E+04
  3.32034E+03 -8.88210E+02 -5.10181E+03  4.75590E+03 -1.63661E+04  8.04156E+03 -1.44708E+04 -7.78081E+03
 -6.13942E+03 -1.85915E+04  4.32414E+03 -2.12076E+04  1.44709E+04 -1.50523E+04  1.93177E+04  4.50644E+03
  9.34382E+03  1.41251E+04 -8.22048E+02  2.10035E+04 -1.08991E+04  7.65239E+03 -1.35407E+04 -4.54505E+03
 -6.94512E+03 -1.53378E+04 -1.37228E+03 -2.39712E+04  1.03803E+04 -1.60662E+04  1.68515E+04 -5.35426E+03
  1.40370E+04 -2.65319E+03  1.15673E+04  5.39904E+03  5.01359E+03  3.13130E+03  1.21736E+04 -2.88200E+03
  1.48409E+04  3.02371E+03  1.65584E+04  1.15360E+04  9.70298E+03  3.11965E+04 -4.68381E+03  3.21506E+04
 -1.60586E+04  2.06094E+04 -2.85674E+04  9.17994E+03 -2.67321E+04 -5.91279E+03 -2.17273E+04 -1.49282E+04
 -1.06764E+04 -2.26892E+04  1.03759E+04 -1.98883E+04  1.70947E+04 -1.02382E+04  1.93289E+04  2.99785E+03
  9.58030E+03  1.52039E+04 -6.67430E+03  1.36570E+04 -1.64806E+04 -1.87257E+03 -1.16413E+04 -8.51379E+03
 -2.47980E+03 -1.52210E+04  6.09595E+03 -8.51255E+03  8.73504E+03 -4.62691E+03  4.89560E+03  6.83372E+03
 -4.33446E+03  5.20547E+03 -3.93183E+03 -5.01948E+03  2.88460E+02 -7.18057E+03  1.40883E+04 -1.20798E+04
  1.82887E+04 -8.66767E+03  1.39216E+04  2.32682E+03  1.03409E+04  1.04877E+04  7.00171E+03  2.23595E+04
 -1.96536E+03  1.88055E+04 -1.35738E+04  1.41294E+04 -1.89425E+04  4.88466E+03 -1.12545E+04  1.07941E+03
 -5.33360E+03 -3.90317E+03 -2.64676E+03  1.50049E+03 -2.56505E+03  3.34155E+03 -4.96071E+03  5.95241E+03
 -1.14769E+04 -2.46454E+03 -9.41403E+03 -1.13239E+04 -5.01043E+03 -8.63807E+03  5.29082E+03 -4.66811E+03
  4.71841E+03 -8.42819E+03  3.14354E+03  4.35334E+03  5.15106E+02  4.50549E+03 -7.98909E+03 -1.92769E+03
 -3.25321E+03 -5.08507E+03  3.36643E+03 -1.13645E+04  2.85839E+03 -6.61382E+03  1.11213E+04 -4.48937E+03
  1.64218E+04  3.28785E+02  1.02191E+04  2.22248E+03 -2.09420E+03  1.22509E+04 -6.71100E+03  8.94515E+03
 -5.95307E+03  1.68179E+03 -5.26476E+03 -9.19491E+02  9.44056E+02 -3.89778E+03  4.04457E+03 -3.09770E+03
  4.61184E+03  6.46848E+03  1.95306E+03  4.37885E+03 -6.89364E+03  8.72747E+03 -1.11061E+04  1.84746E+03
 -6.02413E+03 -2.10031E+03  2.11663E+03 -5.68850E+03  3.66935E+03 -8.24763E+03  3.68653E+03  2.04315E+02
  5.00599E+02  7.36512E+03 -3.79844E+03  4.48637E+03 -8.67642E+03  4.81044E+03 -3.49004E+02 -5.04578E+03
 -4.53390E+03 -2.40843E+03  1.10342E+03 -1.24119E+04  5.95299E+03 -4.40986E+03  1.36244E+04  1.32898E+03
  2.12804E+03  6.10006E+03 -8.16228E+02  8.99066E+03 -8.63635E+03  6.38708E+03 -7.48272E+03 -5.13727E+02
 -5.60688E+03 -3.65311E+03 -4.72448E+03 -3.64448E+03  3.56810E+03 -1.06708E+03  1.43891E+03 -1.16592E+02
  4.64368E+03  3.05979E+02  5.38525E+03  3.31839E+03 -3.02076E+03  5.85736E+02  1.23048E+03  1.65495E+03
  6.89860E+03 -7.25391E+01  6.56972E+03 -1.80753E+03  5.46557E+03  4.23366E+03  3.27959E+03  8.31094E+03
 -3.59136E+03  9.27462E+03 -5.81727E+03  3.83107E+03 -1.04988E+04  7.95890E+02 -5.44343E+03 -1.63738E+03
 -3.35810E+03 -8.89014E+03  1.41634E+03 -4.78684E+03 -1.68086E+03 -5.53069E+03 -2.58667E+03 -2.90429E+03
  8.82022E+03 -3.19743E+03  4.15784E+03 -2.94132E+03  5.62194E+03  7.36635E+02  6.50735E+03 -2.20012E+02
  3.48486E+03 -9.95410E+02 -3.53220E+02  4.73421E+03 -2.26334E+03  2.35312E+03 -5.28503E+03  1.67550E+03
 -3.39456E+03 -4.18576E+03 -4.78369E+03 -4.00068E+03  2.73411E+03 -1.09162E+04  3.04005E+03 -7.34431E+03
  4.97592E+03 -2.49926E+03  7.09326E+03  2.58741E+03  6.82301E+03  2.02699E+03  1.36933E+03  9.56845E+03
 -8.11595E+03  4.85011E+03 -1.39396E+01  2.15247E+03 -1.12284E+04 -1.11661E+03  1.53934E+02 -1.04227E+03
  1.94884E+03 -2.24237E+03 -3.85424E+03  4.87113E+03 -1.35989E+03  3.77084E+03 -5.30945E+03 -4.31707E+03
 -7.38992E+03 -8.19214E+02  1.76648E+03 -6.53199E+03  4.07905E+03 -4.93729E+03  6.71661E+03  7.91480E+02
  7.49725E+03  9.11179E+02  5.53116E+02  3.94140E+03 -2.99698E+03  3.07670E+03 -5.42935E+03  3.49717E+03
 -1.51377E+03 -3.78263E+02 -4.28212E+03 -5.01439E+03 -2.93545E+02 -3.52246E+03 -3.16176E+03 -4.64623E+03
  7.83292E+03 -4.74868E+02  3.00290E+02  3.91610E+03  4.38752E+03  4.02967E+03  3.25230E+03  8.21505E+02
 -1.81886E+03  4.65371E+02  5.33391E+01  1.43823E+03  2.58115E+03  9.63843E+02  5.32533E+03 -1.25396E+03
 -5.01183E+03  7.16158E+03 -5.06132E+03  4.28408E+03 -2.72882E+03 -2.72422E+03 -4.67560E+03 -6.31870E+02
 -8.71018E+02 -1.23075E+04  2.32508E+03 -8.14162E+03  1.65470E+03 -1.21215E+03  3.45217E+03 -4.46759E+03
 -2.34929E+03  2.14439E+03  1.65822E+03  4.29306E+03  2.66715E+03 -5.40743E+03 -1.85870E+03  9.67001E+01
 -2.63727E+03  7.47282E+02 -7.18322E+02 -1.36760E+03 -2.56471E+03 -3.79953E+03  3.16671E+03  4.23802E+03
  1.60879E+03 -1.22164E+02  6.87598E+03 -2.28019E+03 -1.08914E+02  2.87263E+02  3.63864E+03 -2.42092E+01
  2.27152E+03 -1.44568E+03  1.06095E+03  3.75439E+03  7.54011E+02  2.36733E-01  3.50323E+03  8.12759E+02
 -4.73154E+03  1.75565E+03 -1.97042E+03 -4.57658E+03 -1.57399E+03 -3.80291E+03 -2.13808E+03 -4.97045E+03
  8.71760E+02  8.85223E+02  3.29514E+03  1.13081E+03  2.95252E+03  5.32734E+03  4.94553E+02  1.16650E+03
 -6.26720E+03  1.03135E+03 -3.35611E+03 -8.50186E+02 -6.43943E+02  4.40475E+02  4.19420E+03 -3.85118E+03
  2.32697E+03  1.31796E+03  3.75131E+03 -3.45338E+02  1.78421E+03  1.38304E+03 -5.03596E+03  2.88764E+03
  8.22210E+02  2.34370E+03 -2.75334E+03  3.70426E+03 -2.14316E+03 -3.52321E+02  7.24359E+02 -1.45134E+03
  6.74708E+02 -1.49558E+03  4.81918E+03  1.21555E+03  5.22123E+03  6.41955E+03  4.50765E+03  2.64733E+02
 -4.61095E+03  1.01901E+03  1.60175E+03 -1.04730E+03  1.43308E+03 -5.20905E+03  2.48510E+03 -1.14128E+03
 -2.51407E+03 -8.96754E+02  3.36264E+03  1.08342E+03 -3.42960E+03  1.97813E+03  1.29192E+02  4.40878E+03
 -6.18448E+02  4.11052E+03 -9.58563E+02  6.93280E+02  2.42089E+03  2.79086E+01 -2.81907E+03  1.48697E+03
 -3.42367E+03  4.06811E+03  1.25701E+02  7.18699E+02 -2.68436E+03 -8.23617E+02 -6.11767E+03 -4.44074E+03
 -1.21392E+03 -1.65306E+03 -1.11084E+03 -3.25911E+03  4.21592E+03 -2.44053E+03  7.04750E+03 -2.53816E+03
  1.81156E+03  5.84834E+03  5.94039E+03  4.82833E+03 -6.45161E+02  3.58700E+02 -1.40371E+03  3.51510E+03
  1.13269E+03  7.70042E+02 -2.40238E+03 -1.37171E+03 -1.74007E+03 -1.92184E+03 -4.53717E+03  2.15033E+02
 -1.79316E+02 -4.43367E+02 -2.67488E+03  1.89441E+02  1.55306E+03 -4.68052E+03 -5.38379E+03 -1.24928E+02
  1.87341E+03  3.19569E+03 -1.09587E+03 -4.14111E+03  2.84495E+02  1.61206E+03  5.04106E+03  3.11335E+03
 -2.89133E+03 -9.56067E+02 -4.96366E+03  3.06362E+03 -4.22654E+03 -1.89127E+03 -4.85308E+03 -1.39606E+03
  2.17576E+02 -7.84375E+02  4.69805E+03 -1.25366E+03  7.83765E+03 -4.03922E+03  1.02884E+03 -3.45642E+02
  4.80737E+03 -2.61458E+01  5.78935E+03  6.80333E+02 -1.47042E+03 -5.26998E+03 -3.32767E+03 -5.72660E+02
  2.22954E+03 -1.64997E+03  4.08543E+03  3.32198E+03 -2.00300E+03 -2.02118E+02 -1.37387E+03  2.01371E+03
 -2.04805E+01 -2.99144E+03  1.33795E+03  1.19338E+03 -2.48803E+03 -2.61759E+03  2.46559E+03 -2.79430E+03
  4.19608E+02  9.79276E+01 -1.16746E+03 -4.36973E+03 -2.63923E+02 -2.29092E+03  1.63519E+03  7.37948E+02
 -1.10221E+03 -5.29024E+03  2.84237E+03  1.30720E+03  1.11864E+03 -3.47300E+03  1.96786E+03 -4.61801E+03
  1.26108E+03  2.79007E+02  2.18462E+03 -1.39134E+03 -2.70846E+03 -3.39820E+03 -2.97011E+01  1.33998E+03
  5.33451E+02 -1.45179E+02 -1.71982E+03 -4.12711E+03 -4.15542E+03  2.61766E+02  2.73918E+03 -1.83574E+03
  1.55557E+03 -4.19096E+02 -2.13211E+03 -3.45775E+03 -4.89919E+02  2.04616E+03  1.86838E+03  2.89571E+03
