 $NMID ID='MM_0lb_SNR50_19hz_g45_77.RAW', FMTDAT='(8E13.5)'
 TRAMP=1., VOLUME=1. $END
  3.05108E+05 -6.08661E+02  3.36389E+05  2.51853E+05  8.58613E+04  3.41743E+05 -1.34594E+05  2.46727E+05
 -1.91014E+05  8.22280E+04 -1.07626E+05 -3.39928E+04  1.65612E+03 -4.99418E+04  5.32662E+04  1.95134E+03
  3.62706E+04  5.08178E+04 -1.79022E+04  7.81657E+04 -5.94399E+04  6.27157E+04 -8.27487E+04  3.15836E+04
 -8.32582E+04 -1.10440E+04 -5.51616E+04 -5.12077E+04 -1.87950E+04 -6.61309E+04  2.75824E+04 -4.43249E+04
  3.49596E+04  1.09692E+03  1.60003E+04  4.45802E+04 -3.59896E+04  4.46362E+04 -7.00343E+04 -9.66443E+02
 -5.06830E+04 -5.56306E+04 -5.65417E+03 -7.33483E+04  3.31312E+04 -5.36210E+04  4.68616E+04 -1.84522E+04
  4.35891E+04  1.23844E+04  2.45514E+04  2.40387E+04  1.58522E+04  2.81055E+04 -6.94135E+03  2.89265E+04
 -2.31582E+04  1.18482E+04 -2.06149E+04 -6.32303E+03  3.47649E+03 -5.09610E+03  2.16774E+04  1.05171E+04
  9.76944E+03  3.41548E+04 -2.56620E+04  3.02063E+04 -6.15145E+04  3.38446E+03 -5.57265E+04 -3.76589E+04
 -1.37754E+04 -5.78406E+04  3.85651E+04 -4.20344E+04  5.65984E+04 -1.73625E+03  3.12510E+04  2.93976E+04
 -4.79913E+03  3.06645E+04 -2.95265E+04  1.43630E+04 -2.76387E+04 -3.32770E+03 -1.13130E+04 -8.01172E+03
 -4.08581E+03 -1.10917E+04 -3.84163E+03 -1.33450E+04  7.83643E+03 -2.56458E+04  1.40922E+04 -1.17845E+04
  1.06175E+04  4.44926E+03 -3.93602E+03  1.29994E+04 -1.94215E+04 -3.83438E+03 -3.51017E+03 -2.96299E+04
  1.50710E+04 -4.10531E+04  4.54597E+04 -1.58065E+04  4.16579E+04  1.63411E+04  1.24875E+04  4.21112E+04
 -1.54217E+04  3.22912E+04 -2.29629E+04  9.34989E+02 -6.78000E+03 -2.65551E+04  2.07228E+04 -3.07504E+04
  3.44231E+04 -4.37202E+03  3.39283E+04  2.04594E+04  1.57227E+04  4.63240E+04 -5.30551E+03  3.90375E+04
 -2.67659E+04  2.85387E+04 -3.47490E+04  5.23727E+03 -4.10495E+04 -1.77345E+04 -1.91637E+04 -3.62568E+04
  7.51247E+03 -3.03488E+04  3.15217E+04 -1.12121E+04  2.55403E+04  1.14692E+04  3.43290E+02  1.72498E+04
 -1.38735E+04  5.44444E+03 -8.96850E+03 -6.81866E+03  9.28435E+03 -1.23200E+04  1.63765E+04  7.19987E+03
  1.02674E+04  2.24484E+04 -5.58328E+03  1.96078E+04 -2.01513E+04  5.02795E+03 -2.55536E+04 -3.26425E+03
 -1.49758E+04 -1.99066E+04 -5.90534E+03 -1.95218E+04  3.61004E+03 -1.74884E+04  1.16163E+04 -1.46294E+04
  1.90884E+04 -1.23338E+04  2.77735E+04  2.37068E+03  1.91113E+04  1.83647E+04  5.71738E+03  3.18050E+04
 -1.63477E+04  3.30282E+04 -2.73241E+04  1.21508E+04 -1.90730E+04 -1.05963E+04 -3.90875E+03 -1.17403E+04
  2.81915E+03 -6.56305E+03 -2.86234E+03  2.77873E+03 -1.17889E+04  5.30958E+03 -1.42471E+04 -8.34230E+03
 -1.30629E+04 -1.45126E+04  3.89486E+03 -2.35991E+04  1.15604E+04 -1.56675E+04  9.85203E+03  3.06198E+03
  7.91442E+03  1.12340E+04  4.22251E+03  1.53364E+04 -8.69337E+03  3.64895E+03 -1.55485E+04  2.47510E+03
 -1.04753E+04 -1.00472E+04  4.67757E+02 -2.28533E+04  6.34719E+03 -1.32756E+04  1.43728E+04 -6.72096E+03
  1.57163E+04  1.10282E+03  2.00296E+03  4.65574E+03  5.73292E+03 -5.63187E+02  7.93850E+03 -5.23109E+02
  1.45583E+04  3.63072E+03  1.65353E+04  1.18606E+04  5.34562E+03  2.61509E+04 -6.45699E+03  2.45470E+04
 -1.52822E+04  2.10537E+04 -1.92325E+04  1.02936E+04 -2.49788E+04 -6.80955E+03 -2.32992E+04 -1.32986E+04
 -1.08352E+04 -1.92970E+04  5.10288E+03 -1.88128E+04  1.99849E+04 -1.42181E+04  1.54965E+04  2.59066E+03
  8.11292E+03  1.12086E+04 -6.75657E+03  1.58299E+04 -1.45452E+04 -4.41055E+02 -8.17120E+03 -1.16790E+04
  2.40136E+03 -1.28159E+04  5.63731E+03 -9.75910E+03  5.36114E+03 -2.26648E+03  1.73622E+03  3.13219E+03
 -6.52769E+03  8.97300E+02 -4.06478E+03 -8.54568E+03  6.00104E+02 -8.32079E+03  8.87034E+03 -8.60839E+03
  1.28347E+04  8.17839E+02  1.08087E+04 -1.80117E+02  9.74099E+03  8.09018E+03  6.75730E+03  1.25138E+04
 -3.26461E+01  1.08179E+04 -1.15108E+04  1.10533E+04 -1.30925E+04  3.37099E+03 -6.62706E+03 -2.03672E+03
 -3.05491E+03 -3.89732E+03 -3.40767E+03 -4.97653E+02 -5.79278E+02  7.66510E+03 -4.80626E+03  7.23455E+03
 -1.07892E+04  1.45705E+03 -7.48848E+03 -7.80452E+03 -6.52037E+03 -1.06916E+04  7.08245E+03 -1.11368E+04
  5.61683E+03 -3.00971E+03  6.48353E+03  2.60822E+03  5.66858E+03  5.97406E+02 -3.94511E+02  2.77039E+03
 -5.16607E+03 -2.73667E+03  2.86311E+03 -3.63604E+03  7.01776E+03 -1.35536E+04  1.09402E+04 -4.77313E+03
  1.14607E+04  7.10550E+02  5.99766E+03  5.88825E+03  7.87877E+02  8.85817E+03 -5.39314E+03  5.29727E+03
 -3.87093E+03  6.07565E+03 -5.71129E+03 -1.15433E+03 -1.08552E+03 -6.66907E+02  7.31950E+03 -2.19996E+03
  3.65923E+03  3.54280E+03  2.73188E+03  7.09991E+03 -4.33382E+03  3.56544E+03 -9.07727E+03 -1.77723E+03
 -3.56039E+03 -6.16135E+03  7.95091E+02 -5.93463E+03  2.14238E+03 -4.58739E+03  3.51618E+03  4.34369E+03
 -3.39364E+03  2.36906E+03  4.14867E+02  4.68533E+03 -4.49226E+03  2.69980E+03 -5.47596E+03  2.01223E+02
 -3.09487E+03 -2.62448E+03 -3.92939E+03 -3.60185E+03  1.59347E+03 -4.35396E+03  9.74613E+03  9.18583E+02
  5.53964E+01  4.03789E+03  3.07260E+03  8.38800E+03 -8.73707E+03  1.20237E+02 -3.61585E+03 -2.63556E+03
 -5.43028E+03 -2.10558E+03 -9.38133E+01 -5.93946E+03  3.83169E+02 -1.64623E+03  3.91652E+03  2.61755E+02
  1.78170E+03  1.33298E+02 -8.32785E+02 -1.52081E+03  3.77125E+03 -5.55987E+03  2.73358E+03 -2.22977E+03
 -3.63691E+03 -3.39960E+03  1.83083E+03  4.90096E+03  5.75809E+03 -1.87676E+03  2.58517E+03 -4.37679E+02
 -2.53588E+03  1.09212E+04 -9.24599E+03  1.08519E+04 -1.27606E+04  7.10077E+02 -8.10888E+03 -3.84139E+03
 -7.83475E+03 -6.87179E+03 -1.50942E+03 -7.28023E+02  2.21244E+03 -3.55435E+03  4.74214E+03  8.45582E+02
  9.83640E+02  2.10217E+03 -4.58091E+02  1.33289E+03  6.62913E+03  2.10224E+03  6.24986E+03  2.34257E+03
  5.69290E+03  4.41954E+03  1.56185E+03  4.94950E+03 -4.76056E+03  8.30434E+02 -8.14221E+03  1.11570E+03
 -6.83285E+03 -3.28700E+03  2.32375E+03 -1.58362E+03 -4.08076E+02 -5.14921E+03  3.07027E+02 -5.11476E+03
  6.03731E+03 -3.78897E+03  6.06434E+03 -6.57599E+02  5.48872E+03  3.60695E+03 -4.79419E+02  1.80684E+02
 -3.20394E+03  5.42867E+03 -3.87646E+03  2.08288E+03 -4.42244E+03 -2.26031E+03  1.56769E+02 -1.20783E+03
 -3.08157E+03 -1.78878E+03  1.42052E+02  1.88160E+03 -5.18358E+03 -2.88140E+03 -6.44654E+03 -3.18023E+03
 -2.98510E+03 -5.43691E+03 -1.50632E+03 -1.15361E+03  2.82524E+03 -1.89280E+03 -2.47005E+03 -9.45576E+03
  1.90343E+03  3.99276E+03 -1.54707E+03  1.41726E+03 -8.97587E+02  3.70906E+03 -1.48272E+03 -3.71049E+02
 -5.81171E+03 -1.77261E+01 -3.51045E+03 -4.99048E+03  3.88166E+03 -3.86911E+03  2.26356E+03 -3.33347E+03
  1.47987E+03 -1.47121E+03  2.80549E+03  3.15878E+03  1.50025E+03  2.62885E+03 -3.09361E+02  2.21289E+03
  2.86186E+03 -9.92105E+02  8.57154E+02  2.43965E+03 -3.38915E+03  1.55434E+03 -3.70824E+03  2.68100E+03
 -2.53469E+03  6.36177E+03 -2.14872E+03  2.85903E+03  3.73703E+03  7.01277E+02 -4.75205E+03 -2.24686E+03
 -1.37515E+03 -3.42057E+03  2.45367E+03 -7.36289E+03 -5.95550E+02 -2.36224E+02  1.84170E+03 -1.03420E+03
 -1.24946E+03  7.35709E+02 -2.39650E+03  5.07328E+03 -1.54354E+02  1.54660E+03 -3.17270E+03  1.05792E+03
  9.05531E+02 -4.73492E+02 -3.22873E+03 -2.85249E+03  3.29672E+03  1.72918E+03  7.31246E+02 -9.94599E+02
  2.43152E+03  2.64137E+03  2.48459E+03 -2.75428E+03 -6.74906E+02 -4.87810E+02  2.75952E+03 -5.79780E+03
  1.67959E+02  3.66021E+02  6.30716E+03 -5.12542E+03  4.43781E+03  2.11975E+03  2.11053E+03  5.69416E+03
  1.36966E+03  3.48883E+03 -3.31863E+03  1.34244E+03  9.34343E+02 -3.10446E+03  2.08774E+03 -3.31403E+03
  5.38587E+03 -4.35444E+03 -2.65047E+03  1.27639E+03  1.03135E+03  1.96588E+03 -2.79072E+03  1.73425E+03
 -3.25401E+03 -6.98090E+01 -5.45232E+02 -3.95101E+03 -1.87752E+03  6.94004E+02 -2.29592E+03 -2.03975E+03
  8.77086E+02 -2.52045E+03  4.51591E+03  2.52693E+03  1.99296E+03 -4.36044E+02  3.81641E+03  2.42711E+03
  8.42537E+02  2.14509E+03  3.31420E+02 -1.20571E+01 -2.91551E+03  8.83278E+02  2.98592E+03  6.95894E+02
 -4.01869E+03 -9.30133E+02  8.42843E+02 -3.13489E+02 -6.38154E+02  1.36964E+03 -7.08559E+02  2.47041E+03
 -2.08416E+02 -2.62172E+03 -4.05140E+03 -5.84866E+02  7.29374E+02 -3.25096E+03 -3.52337E+03 -5.40796E+01
  8.19926E+02 -1.73761E+03  1.17206E+03 -8.70615E+02 -7.46201E+02  4.21343E+03 -8.08035E+02  2.26627E+03
 -3.78338E+03  3.30645E+02  1.90289E+03  5.17344E+03  3.93143E+02  3.42355E+02 -4.58363E+02 -1.96558E+03
 -1.27203E+03 -1.27244E+03 -3.82387E+03 -3.42300E+03 -1.19525E+03  1.15480E+03 -4.99078E+03 -2.25853E+03
  2.02508E+03 -6.08735E+03 -7.32773E+02 -3.03551E+03 -5.41042E+03 -6.14950E+02  2.13290E+03 -7.25313E+02
 -1.01431E+03  1.06478E+03  7.09104E+02  1.48870E+03  2.64335E+03  2.80026E+03 -4.34249E+02  2.43745E+03
 -8.03603E+02 -4.15528E+03  7.04256E+02 -6.23532E+03 -6.37705E+03  1.87553E+03  4.83645E+01 -1.10332E+03
 -8.04776E+03  1.55011E+03 -1.91024E+03 -1.63061E+03 -2.39087E+03 -1.39619E+03  1.02042E+03 -6.41832E+02
  1.07017E+03 -2.81714E+02 -3.50398E+02 -7.10449E+02  1.25874E+03 -3.35540E+03 -1.94460E+03 -1.68643E+03
 -1.05961E+03  1.67218E+03  9.55974E+01  1.24932E+03 -2.11806E+03 -2.09915E+01 -2.33444E+03 -8.97779E+02
 -2.50898E+03 -3.80857E+03  3.27512E+03  1.99609E+03 -3.73205E+03 -2.32142E+03 -1.99879E+03 -1.10780E+03
  3.84969E+03 -3.70215E+01  1.87283E+03  1.26728E+03  3.91490E+02  2.31006E+03 -1.38146E+03  6.78305E+03
  1.71739E+03 -3.66183E+03 -3.03115E+03 -5.34626E+03  4.35915E+03  1.30473E+03 -1.19898E+03  2.62981E+03
 -8.76415E+02 -1.79944E+03  2.41114E+03  1.79867E+02 -1.44568E+03  9.41271E+02  6.23991E+03  9.24768E+02
 -2.31259E+03  1.66962E+03  2.93835E+03 -1.75589E+03  7.23685E+02  1.88662E+03  2.48123E+03  1.45158E+02
 -6.22296E+02  1.35483E+03 -5.24002E+03 -5.31540E+03  2.11140E+02  4.79846E+02 -3.72914E+03 -6.50072E+02
  1.59696E+03  9.37527E+02 -9.50958E+02 -2.24915E+03  8.52084E+02 -5.09289E+02 -1.60031E+03 -1.58615E+03
 -4.06156E+03  5.38637E+02 -7.11875E+02 -3.52976E+03 -1.82770E+03  1.59619E+03 -4.12502E+02  7.89675E+03
 -1.88352E+03  1.41859E+03  4.89733E+02 -1.37455E+03 -1.83378E+03  1.84603E+03  2.41749E+03  1.92101E+03
