 $NMID ID='MM_0lb_SNR50_15hz_g40_10.RAW', FMTDAT='(8E13.5)'
 TRAMP=1., VOLUME=1. $END
  3.14206E+05 -6.14939E+03  3.33809E+05  2.50937E+05  8.41167E+04  3.36901E+05 -1.28622E+05  2.51185E+05
 -1.95356E+05  8.17855E+04 -1.09130E+05 -2.77430E+04  5.13895E+03 -5.17557E+04  5.41835E+04 -1.37552E+03
  3.56569E+04  5.30977E+04 -1.53069E+04  7.85031E+04 -5.86153E+04  6.31618E+04 -8.33921E+04  3.33148E+04
 -8.41347E+04 -1.34245E+04 -5.49762E+04 -5.29320E+04 -1.55857E+04 -6.32011E+04  2.48925E+04 -4.10964E+04
  3.34913E+04  3.54691E+03  1.24912E+04  4.83790E+04 -3.75160E+04  5.03807E+04 -6.46733E+04  5.98600E+02
 -5.29431E+04 -5.43329E+04 -6.44671E+03 -7.41410E+04  2.97947E+04 -5.61732E+04  5.18158E+04 -1.83665E+04
  3.95304E+04  8.81148E+03  3.25047E+04  2.41784E+04  1.57158E+04  3.01697E+04 -2.37680E+03  2.65543E+04
 -2.05261E+04  1.32619E+04 -1.79907E+04 -3.00377E+03  6.66285E+03 -9.06709E+03  1.83498E+04  1.44548E+04
  7.18087E+03  3.17040E+04 -3.02719E+04  3.66264E+04 -6.53346E+04  6.23453E+01 -5.82942E+04 -3.97227E+04
 -1.39503E+04 -6.41942E+04  3.89834E+04 -4.29378E+04  5.50341E+04 -1.53338E+03  3.37131E+04  3.10129E+04
 -6.02426E+03  3.35350E+04 -3.03981E+04  1.80751E+04 -3.50024E+04 -5.48272E+03 -1.54154E+04 -6.87415E+03
 -5.99969E+03 -1.28524E+04 -3.02639E+03 -1.66011E+04  1.05948E+04 -1.89016E+04  1.07677E+04 -1.31322E+04
  1.68334E+04  7.64878E+03 -1.01505E+04  1.28130E+04 -1.99972E+04 -1.22831E+03 -2.20703E+03 -3.47737E+04
  2.28725E+04 -4.18428E+04  4.84639E+04 -1.48380E+04  4.17763E+04  1.58394E+04  1.17551E+04  4.33554E+04
 -1.25087E+04  2.99284E+04 -2.02051E+04  5.66929E+02 -7.73452E+03 -2.80765E+04  2.49665E+04 -3.27069E+04
  4.15200E+04 -1.02526E+04  3.51899E+04  2.49815E+04  2.19289E+04  4.28316E+04 -1.55247E+04  4.33572E+04
 -3.58357E+04  3.03956E+04 -3.79207E+04  8.50391E+03 -4.08567E+04 -1.41791E+04 -1.88555E+04 -3.27272E+04
  6.09833E+03 -3.57366E+04  2.63825E+04 -1.77443E+04  2.72954E+04  8.08591E+03  4.80668E+03  2.35485E+04
 -1.05569E+04  9.24367E+03 -1.17538E+04 -1.14785E+04  5.22923E+03 -1.37282E+04  1.96420E+04  4.23175E+03
  1.29416E+04  2.19399E+04 -4.08233E+03  2.55684E+04 -1.99529E+04  5.91905E+03 -2.48762E+04 -4.35804E+03
 -1.79551E+04 -1.84918E+04 -5.50492E+03 -2.33606E+04  1.49061E+03 -1.67568E+04  1.72928E+04 -1.98356E+04
  2.67657E+04 -1.28571E+04  3.08877E+04 -2.24110E+03  2.11702E+04  1.85007E+04  4.10481E+03  3.30925E+04
 -1.37604E+04  2.86746E+04 -2.88818E+04  1.10057E+04 -2.01967E+04 -1.38955E+04 -4.11733E+03 -1.30209E+04
  2.26349E+03 -1.53497E+03 -5.09276E+03  5.50789E+03 -1.29621E+04  4.53170E+03 -8.41235E+03 -4.93557E+03
 -6.79795E+03 -1.56013E+04  6.85263E+03 -1.97661E+04  1.58525E+04 -1.82872E+04  1.02809E+04 -2.44796E+03
  9.65829E+03  1.11662E+04 -3.87392E+03  1.91996E+04 -1.48442E+04  1.14536E+04 -1.77027E+04 -3.68934E+03
 -1.39398E+04 -1.71868E+04 -3.31774E+03 -2.21727E+04  5.90713E+03 -1.15661E+04  2.06644E+04 -7.64193E+03
  1.11651E+04 -2.17203E+03  1.73393E+04  2.49895E+03  6.87177E+03  6.13812E+02  8.12944E+03 -2.68952E+03
  2.12935E+04  5.91782E+03  1.73891E+04  1.60027E+04  8.45036E+03  2.38930E+04 -2.40960E+03  3.20773E+04
 -1.80398E+04  2.41666E+04 -3.17156E+04  1.09327E+04 -2.76440E+04 -9.21636E+02 -2.86753E+04 -1.84862E+04
 -8.05496E+03 -2.44530E+04  7.44212E+03 -1.96537E+04  2.50587E+04 -1.10839E+04  1.62177E+04  4.54984E+03
  5.42275E+03  1.38495E+04 -4.36807E+03  1.35840E+04 -1.49754E+04  2.00615E+03 -1.19378E+04 -9.73773E+03
 -3.68890E+03 -1.07526E+04  1.17777E+04 -6.90772E+03  7.14584E+03 -2.03957E+03  4.03839E+03  3.16884E+03
  8.08184E+02  1.17618E+03 -3.24010E+03 -3.15668E+03 -4.28811E+02 -1.37177E+04  3.98855E+03 -1.12209E+04
  1.65373E+04 -6.74213E+03  1.55605E+04  4.66600E+03  1.32517E+04  1.02330E+04  8.82560E+03  1.51091E+04
 -3.96577E+03  2.00581E+04 -1.26946E+04  6.92852E+03 -1.20453E+04  4.91730E+02 -8.18305E+03 -1.09125E+03
 -7.02354E+03 -7.34556E+03  1.78643E+02 -2.15111E+03 -3.44768E+03  2.44789E+03 -3.75117E+03  1.28479E+03
 -8.62425E+03 -1.90497E+03 -8.53549E+03 -1.18695E+04 -4.54588E+03 -1.26604E+04  4.99614E+03 -1.43626E+04
  5.02669E+03 -3.81340E+03  8.38980E+03  1.73795E+03  3.58052E+03  1.68516E+03 -1.46913E+03 -3.90518E+03
 -7.34475E+03 -4.51076E+03 -5.07399E+03 -8.54799E+03  5.73454E+03 -7.05595E+03  1.48910E+04 -5.08627E+03
  1.41411E+04  7.54504E+03  1.12181E+04  7.51016E+03  3.41611E+03  1.45332E+04 -1.29804E+04  1.26815E+04
 -1.05384E+04  3.64479E+03 -4.88299E+03 -4.04920E+02  5.81511E+03  1.22142E+03  1.12569E+04 -5.97126E+03
  7.15613E+03  3.89200E+03 -1.21367E+03  1.35174E+04 -6.10888E+03  9.52952E+03 -9.29582E+03  2.53335E+03
 -6.42646E+03 -3.44395E+03 -6.18636E+03 -6.94028E+03  5.19830E+03 -7.01224E+03  7.77009E+03 -4.47455E+03
  1.39758E+03  3.91342E+03 -7.51558E+03  2.21004E+03 -1.11281E+04  4.26894E+03 -7.93556E+03 -5.29033E+03
 -2.43075E+03 -6.28070E+03  4.06273E+03 -1.20620E+04  7.10808E+03 -5.68935E+03  1.10357E+04  8.94255E+02
  5.26647E+03  6.64011E+03  1.34551E+03  1.05721E+04 -9.24604E+03  7.65230E+03 -6.34069E+03  2.47430E+03
 -6.16508E+03 -2.90185E+03  2.51722E+02 -6.60257E+03  8.93321E+03 -4.87315E+03  1.53294E+03  2.21915E+03
  6.05048E+03 -1.16548E+03 -6.56440E+02  2.58561E+03 -1.79847E+03 -6.67899E+02  1.77144E+03 -3.20977E+03
  6.70565E+03 -2.60076E+03  7.25830E+03 -3.68707E+03  1.04781E+04  7.24202E+03  9.47252E+03  7.81463E+03
 -3.37778E+03  1.17746E+04 -6.90266E+03  1.42726E+04 -1.22411E+04  6.61577E+02 -1.29206E+04 -2.60785E+03
 -1.23446E+04 -8.51086E+03 -3.07562E+02 -5.77309E+03  3.94994E+03 -4.69709E+03  2.72732E+03 -6.18435E+03
  4.09007E+03 -2.13118E+03  3.63383E+03 -3.84621E+03  5.26907E+03 -1.79166E+03  4.17056E+02 -1.04236E+03
  1.68940E+03  1.25545E+03 -1.00388E+02  6.34780E+03 -1.26196E+03  1.14886E+04 -1.17708E+04  5.71092E+03
 -4.72275E+03 -1.12834E+03 -5.94653E+03 -7.83750E+03 -2.44929E+03 -6.57000E+03  3.17717E+03 -1.14875E+04
  1.02305E+04 -2.89130E+03  1.01705E+04  2.42885E+03  7.58771E+03  6.97065E+03 -2.15709E+03  6.68139E+03
 -4.83427E+03  7.61368E+03 -3.26697E+03  4.58709E+03 -8.36385E+03  3.05858E+03 -1.08420E+03 -1.88023E+03
 -2.27696E+03 -1.82141E+03 -1.80238E+03  6.93178E+03 -4.57865E+03 -2.65864E+03 -8.93859E+03 -3.21281E+03
 -3.41079E+03 -3.73250E+03 -3.69261E+03 -8.59698E+03  5.01627E+03 -4.60802E+03  2.02215E+03 -2.86404E+03
  5.79802E+03  5.26192E+03  5.25301E+02  6.62106E+03 -1.93104E+03  7.34123E+03 -4.91176E+03  5.91016E+03
 -8.37530E+03  1.74184E+03 -4.88968E+03 -4.43350E+03  3.06806E+03 -6.85668E+03  4.82266E+03 -7.40658E+03
  5.47890E+03 -1.77849E+03  2.78205E+03  4.39804E+03  8.67012E+02  2.36754E+03  1.26634E+03  4.46606E+03
 -5.76862E+02  3.06599E+03  1.85759E+03  7.77742E+02  3.40962E+03  1.53242E+03 -4.61807E+02  9.62939E+03
 -2.08662E+02  8.61232E+03 -4.18924E+03  1.31641E+03 -5.05839E+03  6.37347E+02 -7.80741E+03 -3.67787E+03
 -7.81387E+03 -5.65241E+03  2.56480E+03 -5.31755E+03  4.47497E+03 -4.10806E+03  2.38457E+03  2.01118E+03
  7.67330E+03  2.83472E+03  3.20623E+02  3.59463E+03 -1.61450E+02  1.34930E+03 -2.17054E+02 -1.50949E+02
 -4.89344E+03  3.36244E+02 -4.74177E+02 -6.34037E+03  1.42462E+03 -2.87516E+02  4.21605E+03 -1.96644E+03
  1.45782E+03 -1.93460E+03  4.69435E+03  7.90224E+02  9.70251E+02  2.03185E+02 -7.95800E+02 -1.64674E+03
  8.67795E+02  2.84475E+03  2.41694E+03  1.65575E+03  2.38941E+03  5.14318E+03 -1.33203E+03  6.03876E+03
 -1.41939E+03 -2.76675E+03 -5.66500E+03 -1.43356E+02 -2.68788E+03 -6.18280E+02  6.80488E+02 -9.77589E+02
  2.18285E+03 -4.01132E+03  7.83430E+02 -3.08426E+03  2.21505E+03 -3.62282E+02  3.15444E+03  4.48772E+03
 -2.72118E+03  3.90227E+03 -2.09911E+03 -1.20059E+03  4.14818E+02 -5.96289E+02  1.30708E+03 -2.79471E+03
 -3.20181E+03 -4.10587E+03  1.77913E+03  1.94982E+03  4.58830E+03  2.60148E+02  1.03121E+03 -9.78607E+02
 -3.09896E+03 -2.33948E+02 -6.39714E+02  7.15355E+02 -2.59213E+03 -5.83482E+02  3.21774E+03 -2.14784E+03
  2.31047E+03  3.07549E+03  7.42290E+03  3.45810E+03 -1.48121E+03  1.70488E+03 -1.66948E+03  3.84584E+03
 -5.97993E+02  2.34028E+02 -5.88866E+03 -2.40689E+03 -6.07332E+02 -1.61077E+03  5.72531E+02  5.88902E+02
 -8.40946E+01 -1.16030E+03 -1.52639E+02  7.54937E+02  1.97652E+03 -3.69757E+02 -6.64501E+02  1.64678E+03
  3.72064E+02 -1.55989E+03 -3.47470E+03  7.44659E+02 -8.03651E+02 -3.90473E+03  1.48681E+03  6.07989E+03
 -1.53372E+03  3.00556E+03 -1.61489E+03  1.30127E+03 -4.34666E+03 -2.19813E+03 -6.02968E+03  9.50915E+02
 -1.16865E+03 -2.20311E+03  4.99973E+03 -5.68832E+03  6.85195E+03 -2.41162E+03  8.14651E+03 -4.08260E+03
  6.32875E+03  4.20416E+02  4.22802E+03 -8.48181E+02 -1.50079E+03  4.33973E+03 -2.19921E+03  5.28796E+03
 -5.08434E+03 -2.11309E+03  3.57683E+03  5.99946E+02 -1.68777E+03 -1.44155E+03  1.68294E+03  4.36569E+03
 -4.74956E+03  1.61326E+03 -4.07040E+03 -3.77107E+03 -1.25235E+03 -3.87215E+02 -5.54670E+02 -2.05118E+03
  1.35738E+03 -2.23637E+03  4.29046E+03 -5.35406E+00  2.40114E+03  1.19465E+03  2.72732E+02  5.47751E+03
 -3.76824E+03  7.01119E+03 -6.10189E+03 -1.48577E+03 -3.21556E+03 -5.85101E+02 -2.42226E+02 -1.47274E+03
 -2.66689E+03 -4.17366E+03 -1.60414E+03 -3.16772E+03 -9.02296E+02 -3.75492E+03  1.58828E+03  8.42365E+02
 -2.91335E+03  4.85251E+02 -7.36104E+02  2.45530E+03  3.55514E+03 -2.02160E+03 -3.54419E+03 -1.30124E+03
 -2.38064E+03 -2.66663E+03 -7.69765E+02  2.09232E+03  3.10947E+03  8.41084E+03  1.60678E+03  5.23652E+03
 -3.08652E+03  4.67825E+03  6.95542E+02  2.74181E+03 -2.41924E+03 -7.68662E+02  3.78704E+03 -6.87423E+03
 -1.11169E+03 -8.25171E+02  8.79181E+02  1.40526E+03  1.58386E+03  3.04678E+03  2.92130E+03 -1.12039E+03
  2.24526E+03  8.12305E+02 -1.17528E+03  4.09040E+03 -2.49172E+03  1.24917E+03 -4.00272E+03 -5.99495E+03
  1.85493E+03 -1.35550E+03 -2.66477E+03  6.97801E+03 -2.75749E+03  5.00662E+03 -7.48366E+03  3.89885E+03
 -2.20795E+03  2.58389E+02 -3.85178E+03 -6.01189E+03  4.31881E+03 -1.40587E+03  2.01778E+03 -3.13295E+03
  3.27427E+03  8.94189E+02 -8.77193E+01  3.32636E+03 -1.33174E+03  3.76762E+03 -1.34502E+03  5.11274E+03
