 $NMID ID='MM_0lb_SNR50_15hz_g60_57.RAW', FMTDAT='(8E13.5)'
 TRAMP=1., VOLUME=1. $END
  3.08288E+05  3.14894E+03  3.38055E+05  2.52225E+05  8.26947E+04  3.42400E+05 -1.31487E+05  2.46671E+05
 -1.84272E+05  8.30937E+04 -1.14428E+05 -3.73506E+04  1.85863E+02 -5.25881E+04  4.88361E+04  4.72285E+02
  3.60665E+04  5.09286E+04 -1.94433E+04  7.25704E+04 -6.14490E+04  6.19419E+04 -8.35135E+04  2.53384E+04
 -8.28001E+04 -9.25530E+03 -5.46044E+04 -5.17338E+04 -1.32588E+04 -7.19925E+04  2.50050E+04 -4.15250E+04
  4.16579E+04  5.01587E+03  1.55061E+04  5.51506E+04 -3.75311E+04  4.28463E+04 -7.09866E+04  1.26661E+03
 -5.20429E+04 -5.66544E+04 -3.10062E+03 -7.89770E+04  3.62497E+04 -5.54688E+04  4.44918E+04 -1.86678E+04
  4.18684E+04  1.32171E+04  3.37584E+04  2.42902E+04  2.06127E+04  2.88618E+04 -7.35605E+03  2.91731E+04
 -2.25729E+04  1.46333E+04 -1.69159E+04 -7.07002E+03  6.53369E+03 -4.81427E+03  2.41591E+04  1.11066E+04
  1.04979E+04  3.54143E+04 -3.45691E+04  3.52666E+04 -6.73041E+04  1.24732E+03 -5.73866E+04 -4.83521E+04
 -1.13108E+04 -6.32925E+04  4.13632E+04 -4.08114E+04  6.10411E+04  1.36010E+03  3.54144E+04  3.29041E+04
 -8.82851E+03  3.68602E+04 -2.78350E+04  1.51841E+04 -3.24322E+04 -7.16057E+03 -2.05543E+04 -1.07311E+04
 -4.59842E+03 -1.09232E+04 -1.34181E+02 -2.00243E+04  9.12550E+03 -2.28286E+04  1.11299E+04 -1.25530E+04
  1.09754E+04  4.65175E+03 -1.30642E+04  8.50607E+03 -2.65125E+04 -1.06932E+03 -1.05773E+04 -2.82141E+04
  2.72622E+04 -4.27016E+04  5.00574E+04 -2.02555E+04  4.01959E+04  1.80581E+04  1.61483E+04  4.44917E+04
 -1.46481E+04  3.62422E+04 -3.48177E+04  1.73210E+03 -6.90149E+03 -2.96151E+04  1.93157E+04 -3.61863E+04
  3.97670E+04 -8.57124E+03  4.11847E+04  2.41001E+04  2.15627E+04  4.70274E+04 -7.55259E+03  5.16269E+04
 -3.30260E+04  3.49691E+04 -4.82653E+04  1.29429E+04 -4.22263E+04 -1.64742E+04 -2.39155E+04 -3.71405E+04
  6.09922E+03 -3.85189E+04  3.43278E+04 -1.34650E+04  2.92544E+04  1.05300E+04  3.83734E+03  1.92282E+04
 -1.09211E+04  8.07045E+03 -1.34899E+04 -1.14681E+04  1.37267E+04 -6.69321E+03  1.95909E+04  4.06033E+03
  6.52435E+03  2.08836E+04 -3.41170E+03  3.20540E+04 -2.24165E+04  1.39760E+04 -2.51398E+04 -6.52773E+03
 -2.07749E+04 -1.77851E+04 -1.05972E+04 -2.36287E+04  6.90666E+03 -1.96270E+04  1.23889E+04 -1.29671E+04
  2.77082E+04 -1.55991E+04  3.48189E+04  3.56459E+03  2.40330E+04  1.90798E+04  7.92107E+03  3.31381E+04
 -1.96056E+04  3.00260E+04 -3.55491E+04  8.22351E+03 -2.00502E+04 -7.72974E+03 -1.18087E+03 -1.40144E+04
  2.48973E+03  1.13017E+03 -5.40854E+03  9.59960E+03 -1.50241E+04  9.99280E+02 -1.51743E+04 -6.72393E+03
 -5.69921E+03 -2.29446E+04  7.35193E+03 -2.53058E+04  1.43390E+04 -1.62198E+04  1.98531E+04 -1.20948E+03
  1.34485E+04  1.04930E+04  8.88354E+03  1.65949E+04 -1.18833E+04  1.04513E+04 -2.17964E+04 -4.17961E+03
 -1.28699E+04 -2.07934E+04 -3.57510E+03 -2.60916E+04  1.27640E+04 -2.07207E+04  1.66786E+04 -6.29894E+03
  2.04831E+04  1.67455E+03  7.24017E+03  5.58436E+03  9.28098E+03  4.62549E+03  1.08575E+04 -4.98242E+03
  2.06994E+04 -9.56913E+02  1.69772E+04  1.48374E+04  1.27770E+04  3.27213E+04 -4.02698E+03  3.88904E+04
 -1.67601E+04  2.78795E+04 -2.95705E+04  1.16992E+04 -3.45665E+04 -4.20126E+03 -2.70555E+04 -2.09306E+04
 -1.42755E+04 -2.48566E+04  6.98381E+03 -3.00567E+04  2.08450E+04 -1.23023E+04  1.92863E+04  5.48638E+03
  2.64657E+03  1.10560E+04 -1.05596E+04  1.36712E+04 -1.58519E+04  2.88740E+03 -9.23432E+03 -1.14977E+04
  2.46920E+03 -1.66074E+04  3.91984E+03 -1.53115E+04  7.89459E+03  3.42767E+02 -1.61373E+03  3.38010E+02
 -8.10485E+03  3.75565E+03 -2.69141E+03 -7.39056E+03 -1.29766E+03 -1.48407E+04  9.07699E+03 -1.64604E+04
  1.82400E+04 -8.35099E+03  1.24760E+04  2.58702E+03  2.03664E+04  1.30242E+04  9.95550E+03  2.21677E+04
 -3.72322E+03  1.73120E+04 -1.18041E+04  1.01910E+04 -1.86191E+04  3.04394E+02 -7.23505E+03 -1.10576E+03
 -8.68937E+02 -9.40010E+03 -4.06571E+03 -7.02746E+02 -3.20154E+03  4.22751E+03 -7.50011E+03  3.45600E+03
 -1.09532E+04 -7.64851E+02 -8.97775E+03 -7.25585E+03 -5.83770E+02 -1.78240E+04  1.14448E+04 -6.55115E+03
  7.18087E+03 -6.71315E+03  7.06736E+03  4.00080E+02 -8.76377E+02  3.60983E+03 -1.03698E+04  9.60745E+02
 -7.79091E+02 -9.82291E+03 -3.02900E+03 -6.06867E+03  8.11123E+03 -8.63629E+03  1.41761E+04 -3.00571E+03
  1.74037E+04 -5.75305E+02  1.06120E+04  1.16362E+04  2.20153E+03  1.45265E+04 -6.80594E+03  1.06028E+04
 -6.71626E+03  3.95323E+03 -2.61311E+03 -2.97978E+03  1.67156E+03  7.98006E+02  4.30547E+03 -4.02362E+03
  7.60239E+03  6.24403E+03  1.07443E+03  1.02256E+04 -1.03427E+04  1.00924E+04 -1.35892E+04  6.33349E+03
 -6.82001E+03 -3.45344E+03 -3.96071E+03 -7.78657E+03  6.52785E+03 -6.15082E+03  5.31994E+03  1.56629E+03
  5.19996E+03  6.51598E+03 -7.07168E+03  1.29232E+04 -8.67016E+03  1.90179E+03 -7.30746E+03 -3.06134E+02
 -9.86900E+03 -9.71334E+03  5.12610E+03 -1.42502E+04  1.17121E+04 -6.12243E+03  1.09042E+04  3.95135E+02
  9.15230E+03  8.02071E+03  1.27812E+02  9.64382E+03 -6.26129E+03  7.62548E+03 -4.24191E+03 -1.13000E+03
 -8.44988E+03 -6.54113E+03 -4.78294E+03 -5.56021E+03 -2.59357E+03 -8.08986E+03  5.66412E+03 -2.95689E+03
  3.49026E+03  2.08925E+03  6.75542E+02  2.59907E+03  2.55781E+03 -2.94908E+03  1.75764E+03 -7.13166E+03
  1.88308E+03 -2.06655E+03  1.04047E+04 -2.11339E+03  1.32408E+04  5.39645E+03  6.88955E+03  8.61431E+03
  1.44032E+03  1.29296E+04 -1.36118E+04  4.41258E+03 -1.55270E+04  1.86456E+03 -1.59480E+04 -1.73920E+03
 -2.83352E+03 -1.12603E+04 -1.91539E+03 -1.15985E+04  7.85786E+02 -5.37719E+03  2.76859E+03 -1.55970E+03
  3.41317E+03 -8.41271E+02 -5.51737E+01 -1.19627E+03  4.21500E+03 -2.48293E+03  3.33400E+03 -1.09786E+02
  7.17517E+03  5.98353E+03  4.20251E+03  4.95788E+03 -4.16707E+03  1.91284E+03 -7.52212E+03  3.09848E+03
 -9.08676E+03 -9.89826E+02 -4.76033E+03 -9.13350E+03 -2.59016E+03 -5.37680E+03  4.48411E+03 -5.79903E+03
  1.29475E+04 -5.51421E+03  1.26705E+04  1.80300E+03  7.23854E+03  1.01414E+04  1.90045E+03  7.99876E+03
 -1.89407E+03  5.61638E+03 -8.04649E+03  3.99120E+03 -6.07233E+03 -4.24527E+03 -1.42901E+03 -2.82740E+03
 -1.24358E+03  5.26631E+03 -7.23094E+02 -2.54885E+03 -4.31447E+03  2.58387E+03 -4.27652E+03 -7.26887E+03
 -6.92190E+03 -4.25446E+01  2.15831E+03 -7.93972E+03  9.72103E+03 -3.57793E+03  1.04606E+04  1.44486E+02
  1.01352E+04  6.18834E+03  3.39991E+03  3.56296E+03  2.75565E+03  1.19799E+04 -1.57078E+03  2.02211E+03
 -4.17243E+03 -2.75269E+03 -8.07095E+03 -9.43375E+01 -1.51774E+02 -4.97396E+03  2.82322E+03  1.01246E+03
  3.29293E+03 -4.55458E+03  3.81672E+02 -1.20278E+03 -2.70963E+03  3.64646E+03  6.19009E+03 -2.98846E+01
  2.21197E+03  3.08262E+03  5.60304E+03 -3.57727E+02  2.34885E+03  3.96184E+03  3.89564E+03  1.71625E+03
  1.12966E+03  6.15159E+03 -2.53078E+03  7.23982E+03 -4.58144E+03 -1.87073E+02 -7.26151E+03  1.62853E+03
 -1.34735E+03 -4.64476E+03  4.39148E+03 -5.23492E+03 -2.74399E+03 -6.94044E+03  5.64736E+03 -3.80153E+03
  1.04970E+04  3.94992E+03 -2.83719E+02 -3.54193E+03 -1.99027E+03  4.73693E+03 -9.29612E+03  1.72122E+03
  2.03137E+03 -3.41654E+03  1.62979E+03 -3.96283E+03  4.95277E+03  3.16996E+03  4.35403E+03  3.23968E+03
 -1.23440E+03  2.47249E+03  5.28155E+02 -2.70777E+02 -2.85782E+03 -2.89209E+03  2.50916E+03 -2.74502E+03
  4.60135E+03  2.24764E+03  4.01663E+03  3.94650E+03  1.99733E+03  6.30549E+03  1.45783E+03  4.99577E+03
  1.20910E+03  3.63590E+03 -1.92064E+03  8.15943E+02 -2.47668E+03  6.18484E+02  1.27108E+03  1.66322E+03
 -5.53344E+01 -3.14050E+03  1.22170E+03  1.41679E+03  3.20166E+03  3.04034E+03 -2.99234E+03  3.61439E+03
 -6.07232E+03  1.16383E+03 -7.52354E+03 -2.25818E+03  3.36018E+02 -3.79358E+03 -3.48630E+02 -6.77293E+03
 -1.44140E+03 -3.49907E+03  8.43064E+02 -4.55853E+02  4.34256E+03  1.20665E+02 -2.33817E+03  3.35778E+03
 -1.28412E+03 -2.20730E+03 -6.72148E+03 -4.02976E+03  1.81702E+03 -3.70517E+03  3.74314E+03  2.06656E+02
  4.10214E+03  6.62098E+03  1.95743E+03  5.47925E+03  2.48466E+03  4.54332E+03 -5.59945E+03 -7.94118E+02
 -3.81295E+03  1.84319E+03  9.77129E+02  3.23882E+03 -1.24213E+03 -3.13408E+03  5.34090E+02 -1.00843E+03
  2.35202E+03 -2.53175E+03  5.12628E+02  1.77458E+03  3.17366E+03  1.91528E+03 -1.88137E+03 -8.03759E+02
 -1.73997E+03  4.64620E+03 -3.58053E+03  2.71074E+03 -3.20652E+03 -2.93237E+03  3.06850E+03 -3.61812E+03
 -2.10917E+03  4.72612E+03  9.38986E+02  7.03510E+02 -2.67550E+03  1.18192E+03 -1.54456E+03 -2.84385E+03
  9.04539E+01 -3.79173E+03 -3.57059E+03 -8.66429E+03  1.61165E+03 -1.93917E+03  3.48655E+03 -4.17784E+03
  4.14083E+03 -3.87986E+03  6.41613E+03  6.68509E+01  2.12360E+03  2.05433E+03 -2.63485E+02  1.07146E+03
 -6.23088E+03  2.46883E+03  1.84499E+03 -1.39443E+03  2.49355E+02 -3.34902E+02 -4.82498E+03  1.86430E+02
  2.13928E+03  2.34938E+03 -6.80872E+01 -5.30019E+03 -3.09132E+02 -5.26497E+03 -8.97404E+02  3.44415E+03
  3.83240E+03 -5.64761E+02  4.53338E+03 -3.95643E+03 -7.45299E+02  4.49573E+03  3.23490E+03  1.14490E+03
  9.09827E+02  2.93757E+03 -5.06681E+03  2.54378E+03 -4.56119E+03  6.18547E+03 -1.66213E+03 -5.60347E+03
  2.84205E+02 -2.50876E+03 -5.54538E+02  2.07253E+03  4.93936E+02 -1.99995E+03  1.11946E+03  1.17469E+03
  3.34731E+03  4.65248E+02 -3.60625E+03  4.29573E+02 -4.05860E+03  1.40765E+03  1.02779E+03 -2.66657E+03
  3.89854E+03 -2.17456E+02 -2.06112E+03  2.62792E+03  2.98414E+03 -6.84479E+02  1.89847E+03  2.00561E+03
 -4.04685E+02 -2.89997E+03 -7.65705E+03 -4.38657E+03 -1.43728E+03 -4.14638E+03  1.45172E+03  8.12112E+03
  3.90724E+03  5.12820E+02 -1.88380E+02 -1.78850E+03  1.67404E+03  1.29244E+03  3.04258E+03  3.67995E+03
  7.00868E+03 -2.62721E+03 -1.73852E+03  1.93570E+03 -6.87434E+03  1.63720E+03  4.59560E+00  2.25197E+03
  5.73582E+02 -4.61553E+02  6.97409E+02  3.08839E+03 -4.96927E+02  5.23964E+02 -5.26333E+03 -1.82737E+03
 -2.08497E+03  2.59759E+03 -3.12641E+03 -3.19795E+03  7.15935E+03  4.16224E+02  2.84550E+03 -3.86251E+03
  5.79620E+02  8.45448E+02  2.04847E+03  2.62692E+03 -1.94062E+03  4.57212E+03 -1.40422E+03 -3.04358E+03
