 $NMID ID='MM_0lb_SNR50_9hz_g40_91.RAW', FMTDAT='(8E13.5)'
 TRAMP=1., VOLUME=1. $END
  3.04353E+05 -1.87749E+03  3.46903E+05  2.54977E+05  8.17187E+04  3.41971E+05 -1.33449E+05  2.52030E+05
 -1.95943E+05  8.18708E+04 -1.10866E+05 -3.25103E+04 -3.93117E+03 -5.41685E+04  5.65652E+04  2.48705E+03
  3.37356E+04  5.58744E+04 -2.08819E+04  7.55220E+04 -6.47135E+04  6.20310E+04 -8.94785E+04  3.03897E+04
 -8.11091E+04 -1.58857E+04 -6.46730E+04 -5.00750E+04 -1.54407E+04 -7.14366E+04  3.38349E+04 -4.55753E+04
  3.89458E+04  5.44277E+03  1.13698E+04  4.46546E+04 -4.35374E+04  4.05442E+04 -6.80900E+04 -3.23852E+03
 -6.01622E+04 -6.02791E+04 -1.66205E+03 -8.04513E+04  3.21529E+04 -5.68932E+04  5.05906E+04 -1.64153E+04
  4.39461E+04  1.06948E+04  3.20887E+04  2.81749E+04  2.34985E+04  2.65736E+04 -4.95315E+03  2.98939E+04
 -1.80509E+04  1.32265E+04 -2.02799E+04 -3.39406E+03  4.86277E+03 -1.26325E+04  2.21826E+04  1.17252E+04
  1.51410E+03  3.46761E+04 -3.41409E+04  3.87991E+04 -6.36618E+04 -1.58420E+03 -5.51857E+04 -3.73176E+04
 -1.15345E+04 -6.94988E+04  4.39301E+04 -4.17736E+04  5.92195E+04  1.61733E+03  3.85752E+04  3.32085E+04
 -5.52187E+03  3.23099E+04 -2.93241E+04  2.16420E+04 -3.07465E+04  2.06428E+03 -2.60278E+04 -1.96181E+04
 -1.26006E+04 -1.33101E+04  8.65939E+01 -2.42950E+04  1.29531E+04 -2.22723E+04  1.95349E+04 -1.08897E+04
  1.40313E+04  6.86031E+03 -8.46419E+03  1.26805E+04 -2.56244E+04 -8.43196E+03 -4.66649E+03 -3.81768E+04
  2.95293E+04 -4.40540E+04  4.81130E+04 -1.72190E+04  4.95157E+04  2.23009E+04  2.24660E+04  4.29638E+04
 -2.18693E+04  3.33104E+04 -2.40761E+04 -1.75860E+03 -9.17162E+03 -3.45445E+04  1.76162E+04 -3.85309E+04
  3.62429E+04 -1.44461E+04  3.93735E+04  2.05501E+04  2.16276E+04  5.61418E+04 -8.40662E+03  5.73784E+04
 -3.75390E+04  3.92141E+04 -4.90371E+04  1.20749E+04 -4.88103E+04 -1.70530E+04 -2.05652E+04 -4.05854E+04
  8.04732E+03 -4.11876E+04  2.88017E+04 -1.15564E+04  3.16478E+04  1.50743E+04  1.62543E+03  2.05172E+04
 -1.81894E+04  1.15149E+04 -1.39026E+04 -1.32734E+04  1.32046E+03 -7.21676E+03  1.57163E+04  9.66584E+03
  1.54491E+04  2.47586E+04 -1.88196E+03  2.55403E+04 -2.35768E+04  1.87448E+04 -2.72273E+04 -4.32719E+03
 -3.26893E+04 -2.01725E+04 -1.22752E+04 -2.40871E+04  6.21834E+03 -2.87159E+04  1.46237E+04 -2.51206E+04
  2.33029E+04 -1.34127E+04  4.12684E+04  1.88141E+03  2.24163E+04  2.77384E+04  2.81039E+03  3.88898E+04
 -2.44645E+04  3.32157E+04 -2.91520E+04  8.75446E+03 -1.96403E+04 -1.08907E+04 -5.80070E+03 -1.01173E+04
 -1.55815E+03 -1.83927E+03 -6.67023E+03  8.35302E+03 -1.32843E+04  5.34315E+03 -2.81019E+04 -8.30248E+03
 -9.66936E+03 -1.94259E+04  5.94358E+03 -2.32855E+04  1.64880E+04 -1.66226E+04  2.18891E+04 -1.32003E+03
  1.64071E+04  1.19487E+04 -5.24412E+03  2.50549E+04 -1.85370E+04  9.25060E+03 -2.15595E+04 -6.28881E+02
 -1.58258E+04 -2.26236E+04 -2.49272E+03 -3.03029E+04  1.04027E+04 -2.25738E+04  1.99696E+04 -9.24909E+03
  1.76881E+04  7.06485E+03  2.47391E+04 -1.24422E+03  8.62860E+03 -1.03195E+03  1.12597E+04 -1.06825E+04
  2.39711E+04  7.50791E+03  2.55690E+04  1.67944E+04  1.56238E+04  3.18358E+04  8.72440E+02  5.07097E+04
 -2.48634E+04  3.94972E+04 -3.54940E+04  1.62718E+04 -4.24397E+04 -7.95230E+03 -3.52466E+04 -2.48777E+04
 -1.09633E+04 -3.41578E+04  1.12926E+04 -2.89650E+04  2.70748E+04 -1.88828E+04  2.25597E+04  5.63252E+03
  7.36753E+03  1.43956E+04 -8.49289E+03  1.00295E+04 -1.51343E+04  7.06253E+03 -1.46921E+04 -7.90627E+03
  2.57185E+03 -1.42540E+04  9.72593E+03 -9.45335E+03  1.27641E+04 -2.94864E+03  7.51266E+03  1.26273E+04
 -8.43254E+03  5.02178E+03 -8.85563E+03 -8.83038E+03 -4.99226E+02 -2.04218E+04  1.04979E+04 -2.47358E+04
  2.10583E+04 -1.01070E+04  3.00383E+04  5.57102E+03  3.25136E+04  1.74582E+04  5.67943E+03  3.16336E+04
 -9.80752E+02  2.61531E+04 -2.11917E+04  2.48408E+04 -1.99266E+04  6.21574E+03 -1.88269E+04  3.92636E+02
 -7.26038E+03 -3.89002E+03  3.47273E+03  7.88266E+02  2.85968E+03  7.52512E+02 -6.75098E+03 -1.32078E+02
 -1.18770E+04  2.07138E+03 -1.68518E+04 -9.60281E+03 -2.08399E+03 -1.80228E+04  4.16951E+03 -1.81954E+04
  1.39984E+04 -4.82691E+03  1.23124E+04 -1.33183E+01  4.93449E+01  6.61800E+03 -1.01974E+04 -3.91177E+03
 -5.75618E+03 -1.12763E+04  3.05525E+03 -1.96836E+04  9.04469E+03 -1.66575E+04  7.86784E+03 -4.41647E+03
  2.70335E+04  1.45604E+03  1.79195E+04  1.32567E+04  3.55478E+03  2.49632E+04 -1.07485E+03  1.53856E+04
 -1.02963E+04  3.73865E+03 -1.03112E+04 -3.31009E+03 -1.13460E+03 -4.16280E+03  3.28090E+03 -1.72658E+03
  8.88041E+03  1.00698E+04 -2.02873E+03  1.25580E+04 -1.22321E+04  9.48633E+03 -1.77624E+04 -2.59096E+03
 -1.24668E+04 -1.97846E+03  4.58132E+03 -1.57750E+04  7.39285E+03 -6.18166E+03  7.35710E+03 -8.80700E+02
  4.94553E+02  1.22167E+04 -4.34785E+03  7.95008E+03 -1.48457E+04  5.11489E+03 -6.02101E+03 -2.99781E+03
 -1.56294E+04 -2.07642E+04  8.13568E+03 -1.15316E+04  9.89389E+03 -9.18785E+03  1.44717E+04  2.08868E+03
  1.24836E+04  1.60634E+04  4.08649E+02  1.41098E+04 -5.97272E+03  1.38956E+04 -1.12326E+04 -1.82439E+03
 -1.16120E+04 -6.24750E+03 -3.21013E+03 -8.55525E+03  9.87687E+03 -1.39170E+04  8.34191E+03 -4.85561E+03
  8.31951E+02  7.51269E+03 -3.10329E+03  6.40679E+03  1.07618E+02 -2.37669E+03  3.51240E+03 -2.29235E+03
  1.17482E+04 -8.95105E+02  1.97299E+04  6.01361E+03  1.07268E+04  1.04500E+04  1.26112E+04  1.25780E+04
 -3.21081E+03  2.44604E+04 -1.60927E+04  1.92842E+04 -2.68303E+04  8.42170E+03 -1.83090E+04 -9.92904E+03
 -3.31956E+03 -2.13282E+04  2.38072E+03 -1.24967E+04  2.29700E+03 -1.07921E+04  3.61469E+03 -1.90548E+03
  3.86032E+03 -4.43215E+03  3.04731E+03 -1.38763E+03  7.63614E+03 -4.15360E+03  1.01496E+04 -1.30563E+03
  1.16327E+04  9.37530E+03  3.86788E+03  5.96665E+03 -1.11781E+03  7.26138E+03 -6.47733E+03  5.45233E+03
 -1.29579E+04 -3.62196E+03 -1.47232E+04 -1.06207E+04 -4.57576E+03 -8.55883E+03  7.33703E+03 -1.87043E+04
  8.67788E+03 -1.66077E+04  1.80676E+04  4.08513E+03  7.52363E+03  1.51554E+04  3.96664E+03  1.56855E+04
 -9.03898E+03  1.21383E+04 -3.46905E+03  1.45770E+03 -4.73107E+03  5.76238E+03 -2.60213E+03  1.56116E+03
  5.58997E+02 -4.53688E+03  4.71783E+02  1.04847E+04 -8.57741E+03  9.28285E+03 -1.08152E+04 -2.86282E+03
 -8.62647E+03 -6.85814E+03 -4.36847E+03 -1.85507E+04  8.92658E+03 -1.37301E+04  1.75359E+04 -6.65086E+03
  1.38914E+04  4.57616E+03  4.67905E+03  1.43008E+04 -2.97556E+02  1.54964E+04 -1.14442E+04  1.02435E+04
 -5.97540E+03  2.04056E+03 -1.75662E+04 -2.54484E+03 -3.85564E+03 -7.02164E+03  6.03118E+03 -1.07898E+04
  1.54711E+04 -6.11993E+02  8.02448E+03 -8.30630E+02 -3.87344E+03  2.21599E+03 -1.07873E+03  2.01339E+03
  1.58214E+03  2.61255E+03  5.17455E+03  5.73617E+03  7.17497E+03  8.86012E+03  3.61630E+03  1.12244E+04
 -3.73880E+03  5.04792E+03 -8.41444E+03  1.28823E+04 -1.59667E+04  2.86776E+03 -1.59564E+04 -1.02856E+04
 -1.01075E+04 -1.29525E+04  2.15395E+03 -1.63735E+04  9.87703E+03 -1.04546E+04  8.09722E+03 -3.24096E+03
  1.15760E+04  8.58758E+03  2.22746E+03  9.84238E+03 -5.90860E+03  9.39082E+03 -8.08489E+03  1.54673E+03
 -2.99001E+03 -5.92385E+03  5.89402E+03 -1.58880E+03  5.14839E+03 -5.99806E+03  2.76869E+03  2.61806E+02
  3.50488E+02  4.40104E+03  2.05631E+03 -3.56470E+03 -4.00468E+03  3.58336E+03  8.68734E+01 -1.52781E+03
 -4.32882E+03 -4.63174E+03  3.74343E+03  2.01743E+03  1.50626E+03  7.76208E+03  2.15542E+01  6.08856E+03
 -1.15777E+04  9.65965E+03 -1.57486E+04  7.54444E+03 -6.84564E+03 -7.40748E+03 -2.04355E+03 -6.89518E+03
  4.47890E+03 -6.39238E+02  4.15426E+03  2.36750E+03  4.18324E+03  5.50816E+03 -2.51195E+03  5.20447E+03
 -1.04659E+04  6.04564E+02 -1.91305E+03 -9.31097E+03  1.67080E+03 -6.53787E+03  4.74946E+03 -9.08052E+03
  5.84356E+03 -4.28856E+03  2.76382E+03  3.72649E+03  3.30747E+03  3.05833E+03  6.41071E+03  8.57203E+03
 -1.07361E+04 -6.84202E+02  2.88294E+03 -3.24781E+03  3.13438E+02 -4.23095E+03  6.91760E+03 -5.32898E+03
  9.62975E+03 -1.27595E+02  5.35148E+03  5.56880E+03  2.54420E+03  1.27576E+04 -3.76862E+03  4.67151E+03
 -1.22291E+04  7.27496E+03 -7.23611E+03 -5.79852E+03 -5.55318E+03 -3.03238E+03 -1.48104E+03 -7.18003E+03
  1.04920E+04  3.73706E+02  7.90136E+03 -2.45969E+02  2.33848E+03  4.63767E+03 -3.70053E+03 -2.20456E+03
 -1.96923E+03  2.77155E+03  5.90023E+03 -4.53543E+03  1.30772E+03 -3.90024E+03  2.13359E+03  6.26042E+03
 -2.64409E+03  6.29152E+03 -1.47630E+02  2.98446E+03 -1.10980E+04  3.79915E+03 -6.88324E+03 -2.29344E+02
  2.18992E+02 -1.67893E+04  5.05659E+03 -1.46234E+04  1.21012E+04 -1.17567E+04  1.30492E+04 -8.27782E+02
  1.45338E+04  1.71750E+03  7.51020E+03  7.10237E+03 -2.85846E+03  5.91899E+03 -4.15241E+03  6.15231E+03
 -2.06498E+03  2.61198E+03  6.60389E+02  2.35554E+03 -1.21265E+04 -3.18094E+03  1.08259E+03 -2.93687E+03
  1.09387E+03  2.76003E+03 -8.60395E+02  2.57276E+03 -1.34164E+03 -9.23699E+02  2.82877E+03 -5.20837E+03
  6.01218E+02 -5.90792E+02  1.06605E+04  1.98889E+03  1.14468E+04  5.35844E+03 -4.35688E+03  1.06278E+04
 -2.89527E+03  6.94083E+03 -1.38362E+04  4.49741E+03 -1.23244E+04 -5.81667E+03 -4.17830E+03 -4.92684E+03
 -9.12332E+03 -1.09942E+04  8.75051E+03 -5.25237E+03  9.31973E+03 -5.52998E+03  3.37169E+03  4.00701E+01
  6.59766E+03  6.36252E+03 -1.58235E+03  6.24225E+03 -3.37798E+03 -3.92709E+03  9.10914E+02  5.32468E+03
 -2.41574E+03 -1.41248E+03  6.06430E+03  9.26956E+03  9.74723E+02  5.77742E+03  6.33497E+03  6.09223E+03
 -6.01616E+03  2.09642E+03 -7.91169E+03  5.42228E+03 -4.71460E+03 -5.64433E+03  3.11891E+02 -8.48498E+03
  9.40044E+02 -8.13508E+03  1.17012E+03 -2.40551E+03  8.49987E+03  7.71716E+02  6.84059E+03  7.56681E+01
  3.37053E+03  5.45086E+03 -5.76646E+03  6.94182E+03 -6.53817E+03  2.46818E+03 -7.53379E+03  3.44448E+03
  3.38425E+03 -1.08988E+03  4.53457E+02  5.55030E+02 -5.36043E+03  8.30141E+03 -3.03466E+03  3.52553E+03
 -3.81265E+03 -6.45922E+03  7.73421E+03 -9.78871E+03  4.22790E+03 -1.38660E+04  4.27445E+03 -5.58342E+03
  2.88402E+03 -2.64694E+03  4.12596E+03 -2.84067E+02 -6.59102E+03  4.38433E+03 -6.10918E+03  6.56738E+03
