 $NMID ID='MM_0lb_SNR50_10hz_g60_3.RAW', FMTDAT='(8E13.5)'
 TRAMP=1., VOLUME=1. $END
  3.07594E+05 -5.51367E+03  3.36869E+05  2.46856E+05  8.63100E+04  3.37266E+05 -1.36315E+05  2.55139E+05
 -1.87098E+05  8.64492E+04 -1.23874E+05 -3.57179E+04 -4.79730E+03 -5.87516E+04  5.29160E+04 -3.68908E+02
  3.10016E+04  5.52508E+04 -2.05321E+04  6.77197E+04 -6.18396E+04  6.02367E+04 -8.73634E+04  3.48300E+04
 -7.54448E+04 -1.21084E+04 -6.06359E+04 -4.98751E+04 -1.24426E+04 -6.81328E+04  2.91522E+04 -4.38840E+04
  3.85092E+04  4.33992E+03  9.83082E+03  5.01688E+04 -2.68389E+04  4.91205E+04 -6.51896E+04  7.47185E+02
 -5.57959E+04 -6.13569E+04 -8.71198E+03 -8.22887E+04  3.71946E+04 -6.20434E+04  5.01854E+04 -1.84371E+04
  4.09505E+04  1.11579E+04  3.32595E+04  2.85269E+04  2.19323E+04  3.45561E+04 -6.22373E+03  3.01527E+04
 -2.19967E+04  9.05241E+03 -1.61078E+04 -8.08927E+03  7.36070E+03 -2.96018E+03  1.93703E+04  1.53388E+04
  9.91141E+03  4.19617E+04 -3.43432E+04  3.08684E+04 -6.15569E+04  4.07651E+02 -6.07674E+04 -4.56130E+04
 -1.40399E+04 -7.14883E+04  4.38750E+04 -4.49586E+04  6.70276E+04 -4.03390E+03  3.95044E+04  4.19412E+04
 -2.32486E+03  4.43488E+04 -3.19353E+04  1.77812E+04 -3.65874E+04  1.85941E+03 -1.69468E+04 -6.23441E+03
 -8.74287E+03 -1.30576E+04 -2.76509E+03 -1.65686E+04  4.68578E+03 -2.12858E+04  1.79493E+04 -1.49477E+04
  1.07373E+04  7.67783E+03 -7.74811E+03  1.91528E+04 -1.85777E+04 -1.21379E+04 -3.31660E+03 -4.04983E+04
  2.89026E+04 -4.83847E+04  5.56592E+04 -2.10903E+04  5.37404E+04  2.66167E+04  1.52717E+04  5.08776E+04
 -2.15857E+04  3.90447E+04 -2.75676E+04  6.24743E+03 -8.50762E+03 -2.47470E+04  2.00973E+04 -4.28377E+04
  4.38441E+04 -2.99727E+03  4.03322E+04  2.80150E+04  1.93873E+04  5.52538E+04 -1.49155E+04  5.98725E+04
 -3.05315E+04  4.44577E+04 -4.49978E+04  1.58777E+04 -4.71863E+04 -1.55288E+04 -2.48123E+04 -3.89774E+04
  7.47354E+03 -4.57514E+04  3.79195E+04 -1.96471E+04  3.94340E+04  6.56192E+03  4.42875E+03  2.04470E+04
 -1.27429E+04  1.04920E+04 -1.54139E+04 -4.12945E+03  9.35723E+03 -1.26761E+04  1.83094E+04  6.96131E+03
  1.30441E+04  1.93721E+04 -1.04877E+04  2.30579E+04 -2.63252E+04  1.06495E+04 -2.68733E+04 -8.99594E+02
 -3.27661E+04 -1.30974E+04 -1.15279E+04 -2.89714E+04 -8.69076E+02 -2.84378E+04  1.90966E+04 -1.84753E+04
  2.91722E+04 -1.60765E+04  3.98819E+04  2.37822E+03  3.06555E+04  2.32133E+04  5.03811E+03  4.46728E+04
 -1.48702E+04  3.75342E+04 -2.56661E+04  1.27016E+04 -3.21684E+04 -1.39787E+04 -6.36771E+03 -1.20162E+04
  2.09146E+02 -2.57621E+03 -8.37444E+03  9.92111E+03 -8.88864E+03  3.34743E+03 -2.14959E+04 -9.06306E+03
 -1.07673E+04 -2.35699E+04  5.01283E+03 -2.67125E+04  1.68936E+04 -2.34531E+04  2.24635E+04 -1.40474E+03
  1.17695E+04  1.26772E+04 -3.52820E+03  2.23665E+04 -1.38459E+04  1.58557E+04 -2.50140E+04 -5.34384E+03
 -2.03850E+04 -1.69933E+04 -3.36138E+03 -2.78333E+04  1.33839E+04 -2.48494E+04  2.29730E+04 -1.53982E+04
  2.16964E+04 -3.60691E+02  1.48615E+04  5.59862E+03  6.79298E+03 -2.42341E+03  1.54092E+04 -7.76789E+02
  1.63878E+04  1.05925E+02  2.67701E+04  1.80727E+04  2.29835E+04  3.78469E+04 -1.20670E+02  4.91358E+04
 -1.97926E+04  3.73003E+04 -4.03357E+04  1.85009E+04 -4.33858E+04 -9.56692E+02 -2.74479E+04 -3.01326E+04
 -9.83127E+03 -4.00786E+04  1.45295E+04 -3.45984E+04  3.28883E+04 -9.24700E+03  2.63825E+04  8.70024E+03
  8.55688E+03  1.25453E+04 -1.39961E+04  1.78165E+04 -1.80851E+04  2.76854E+03 -1.89156E+04 -1.06190E+04
 -9.64891E+02 -2.32973E+04  1.23038E+04 -1.71896E+04  1.36814E+04 -3.95247E+03 -8.63359E+02  4.64322E+03
 -1.48973E+04  5.59817E+02 -1.25487E+04 -8.14497E+03 -7.75956E+03 -1.51158E+04  1.83284E+04 -2.05019E+04
  2.40426E+04 -1.04436E+04  2.57693E+04 -8.08365E+02  2.09453E+04  2.01531E+04  1.09907E+04  2.85820E+04
 -8.45044E+03  3.23030E+04 -2.22580E+04  1.22454E+04 -1.70452E+04 -3.67794E+03 -1.62541E+04 -5.41616E+03
 -1.02009E+04 -5.86570E+03 -6.36395E+03  5.68207E+02 -2.59578E+03  4.48319E+03 -4.77434E+03  1.07368E+04
 -8.27199E+03  2.65205E+03 -1.53262E+04 -7.27707E+03 -3.11685E+03 -2.06614E+04  1.21401E+04 -1.20130E+04
  1.57943E+04 -9.16473E+03  1.41233E+04  1.36661E+03  2.32145E+03  3.66211E+03 -7.23724E+03 -5.32258E+03
 -6.78637E+03 -8.99034E+03 -2.56574E+03 -1.26367E+04  6.52333E+03 -1.71723E+04  1.66931E+04 -7.50905E+03
  2.20792E+04  8.42192E+02  1.81863E+04  9.76732E+03  1.55755E+03  1.83571E+04 -1.42317E+04  1.76132E+04
 -9.71489E+03  4.48289E+03 -7.15138E+03 -4.10363E+03  2.54299E+03 -1.48290E+03  1.38787E+04 -1.50971E+03
  4.80580E+03  1.08032E+04 -2.92864E+03  1.60758E+04 -1.07849E+04  1.83055E+04 -1.69082E+04  4.13473E+03
 -9.33554E+03 -6.90027E+03  2.34790E+03 -9.65100E+03  1.27599E+04 -8.56034E+03  6.09548E+03  1.90022E+02
  3.03749E+03  1.50927E+04 -1.25683E+04  5.17218E+03 -1.71512E+04  1.50750E+03 -1.09555E+04 -1.09622E+04
 -6.81452E+03 -1.15856E+04  1.04831E+04 -2.23797E+04  1.98827E+04 -1.08719E+04  2.47685E+04  1.41200E+03
  1.45649E+04  1.26417E+04 -7.68646E+03  1.03013E+04 -3.57934E+03  1.93779E+03 -1.12841E+04 -6.86075E+02
 -8.35800E+03 -1.40674E+04 -7.78023E+03 -1.22085E+04 -2.85593E+03 -4.59124E+03  3.15929E+03 -3.60183E+03
  1.17691E+04 -1.02491E+03  3.43255E+03  2.87370E+03  2.93799E+03 -3.22871E+03 -6.41704E+02 -3.78074E+03
  1.32446E+04 -2.87197E+03  2.10932E+04 -3.33055E+03  1.77523E+04  4.98775E+03  1.05796E+04  2.34190E+04
 -2.69802E+03  2.48475E+04 -1.92913E+04  1.94038E+04 -2.25688E+04  2.54050E+03 -1.91943E+04 -4.56906E+03
 -1.59468E+04 -1.93717E+04  7.55734E+02 -1.99944E+04  6.22305E+03 -1.24002E+04  7.19281E+03  7.34912E+02
  4.34571E+03 -5.12977E+03  1.71174E+03 -2.60701E+03  1.39215E+04 -7.11634E+03  1.51003E+04 -1.16953E+03
  8.10797E+03 -1.64510E+02  8.80715E+03  1.55965E+03 -1.05253E+03 -1.56289E+03 -1.12159E+04  8.42322E+03
 -1.53860E+04  6.03075E+03 -8.65677E+03 -7.66377E+03 -4.56177E+03 -9.61620E+03  8.48070E+03 -1.60833E+04
  2.28568E+04 -9.10385E+03  1.82771E+04  1.49989E+03  1.61354E+04  1.68549E+04  3.06639E+03  1.88121E+04
 -5.79624E+03  1.62283E+04 -6.56277E+03  8.84095E+03 -6.32404E+03 -2.85323E+03 -3.17810E+02 -2.65128E+03
 -3.68842E+03 -1.41267E+03 -2.96759E+03  4.07009E+03 -8.26363E+03  6.86309E+03 -1.26387E+04  4.76199E+03
 -5.50442E+03 -9.74244E+03 -4.97794E+02 -9.73330E+03  5.12669E+03 -1.07286E+04  1.58246E+04 -1.89488E+03
  1.20302E+04  6.31965E+03  7.32766E+03  1.71342E+04 -3.40772E+03  1.02391E+04 -9.14842E+03  5.10403E+03
 -8.61855E+03  3.93431E+03 -8.30475E+03 -6.12109E+03 -1.80432E+03 -1.56543E+04  1.09788E+04 -5.33668E+03
  8.76661E+03  4.52593E+02  6.51530E+03  3.09535E+03  3.81402E+03  5.56771E+03  4.38965E+03 -4.06597E+01
  1.88780E+03 -8.35823E+02  3.07617E+03  7.88685E+03  2.77090E+03  3.33368E+03  2.91719E+03  3.62552E+03
  2.01950E+03  1.15971E+04 -1.13910E+04  7.69289E+03 -1.20979E+04 -2.73166E+03 -1.86589E+04 -8.64818E+03
 -6.76332E+03 -1.30918E+04  3.13062E+03 -1.22737E+04  5.03588E+03 -9.07026E+03  9.94090E+03 -2.78601E+03
  8.62324E+03  6.82490E+03  2.41905E+03  3.38754E+03 -1.08568E+04  3.76193E+03 -5.02631E+03 -1.11956E+03
 -2.00231E+03 -3.40587E+03  5.99363E+03 -3.86581E+03  5.02793E+03 -7.61144E+03  8.34575E+03 -8.00148E+02
  5.21061E+03  7.97295E+03  2.29029E+03 -1.34942E+03 -7.83902E+02  5.60249E+03 -2.24076E+03  5.84807E+03
  5.95976E+03  1.94148E+03  6.74176E+03  1.77887E+03  1.87201E+03  7.94782E+03 -2.52948E+03  7.34542E+03
 -8.29686E+03  6.63833E+03 -5.35970E+03  2.17934E+03 -6.80138E+03 -4.99461E+03 -7.56502E+03 -5.96385E+03
  2.73106E+03 -8.41302E+02  5.90926E+03 -2.64146E+03  7.42810E+03  1.28056E+03  2.65594E+03  7.15330E+03
 -7.34071E+03 -1.34155E+03 -8.62616E+03 -7.57815E+03 -1.08499E+03  3.36809E+02 -1.17305E+03 -7.31589E+03
  3.82931E+03 -9.97356E+03  5.09854E+03 -9.16381E+02  3.34067E+03  1.45159E+03 -2.90141E+03  1.15473E+03
 -4.45476E+03  2.97957E+03 -6.07508E+03 -4.09880E+02  2.36189E+02 -9.69596E+03  7.12267E+03 -6.06017E+03
  8.27840E+03 -1.30674E+03  8.33029E+03  6.35201E+03  6.43265E+02  2.07408E+03 -1.91246E+03  6.50009E+03
 -5.39483E+03  1.55991E+03 -3.84918E+03 -3.83990E+02 -5.57700E+03 -8.74180E+03 -4.10198E+03 -7.58822E+03
  6.94408E+03 -4.96348E+02  3.13821E+03 -1.16445E+02  2.21263E+03  9.43677E+03  6.31977E+02  4.77793E+03
  5.92488E+02 -9.49287E+02 -5.65015E+03  5.83885E+02 -7.69125E+01  6.09635E+03  2.17953E+03  4.90893E+03
 -2.22442E+03 -1.22390E+03 -8.84874E+03  2.59667E+03 -4.93425E+03 -2.43658E+03 -7.49053E+03 -8.66172E+03
 -7.32175E+02 -1.26121E+04  1.29665E+03 -1.57746E+04  1.16574E+04 -1.12660E+04  1.10812E+04  2.82750E+03
  1.28334E+04  8.94434E+03 -2.23217E+01  4.67259E+03  3.41439E+03  8.16909E+03  2.63861E+02  6.93316E+03
 -5.62664E+03  1.94882E+03 -7.49167E+03 -6.81145E+02  1.64518E+03  5.47059E+03 -2.82492E+03 -5.31620E+03
  3.41313E+03  2.17240E+03 -3.55888E+03 -5.64459E+03  3.98180E+02 -2.11278E+03  1.60485E+03  1.84949E+02
  2.43969E+03 -8.86074E+03  2.06569E+03  1.58944E+03  4.68010E+03  4.05538E+03  2.51975E+02  6.52170E+03
 -2.41158E+03  1.25222E+04 -1.69541E+04  8.48642E+03 -1.36936E+04 -2.22165E+03 -6.86317E+03 -5.68946E+03
 -4.59788E+03 -5.71691E+03  3.14672E+03 -9.21000E+03  3.22012E+03 -7.32566E+03  8.61644E+03 -2.11187E+03
  2.41623E+03  1.86894E+03 -4.44764E+03 -3.32934E+03 -2.20419E+03 -9.07345E+02  1.50755E+02 -5.09032E+03
  1.75034E+03 -3.09801E+02  3.86071E+03 -3.07001E+02  7.81519E+03  2.79458E+03  3.88883E+03  4.50553E+03
 -1.23410E+03  5.72033E+03 -6.86567E+03  2.38656E+03 -3.88940E+03 -7.72280E+03  2.02696E+03 -7.18968E+03
  3.91556E+03 -7.00878E+03  4.27935E+03 -2.94960E+03  1.09401E+04  1.19545E+03  6.96970E+03  8.25523E+03
  1.31656E+03  9.05100E+03 -2.36736E+03  6.32069E+03  9.64454E+02  7.18055E+03 -4.01515E+03  7.05544E+03
 -4.90282E+03 -2.64884E+03 -2.01706E+03  5.40521E+01 -3.69860E+03  2.81813E+03 -7.65435E+03 -9.40179E+03
 -2.12047E+03 -3.38122E+03 -4.62419E+03 -9.18071E+03 -4.67101E+03 -1.15836E+04 -1.52486E+03 -7.08551E+03
  4.36515E+03  5.22616E+03  9.78802E+03  4.02812E+03  1.24324E+03  1.94348E+03 -8.51401E+03  8.58252E+03
