 $NMID ID='MM_0lb_SNR50_17hz_g50_27.RAW', FMTDAT='(8E13.5)'
 TRAMP=1., VOLUME=1. $END
  3.10183E+05 -1.98531E+03  3.37872E+05  2.48386E+05  8.29715E+04  3.39637E+05 -1.33362E+05  2.53026E+05
 -1.87598E+05  7.59742E+04 -1.08379E+05 -3.46451E+04 -1.35399E+03 -4.93619E+04  5.53519E+04 -3.43905E+03
  3.08532E+04  4.87585E+04 -1.80451E+04  7.48460E+04 -6.17612E+04  6.75339E+04 -8.03705E+04  3.21690E+04
 -8.12541E+04 -6.88865E+03 -5.63695E+04 -5.27134E+04 -1.48354E+04 -6.68601E+04  3.09886E+04 -4.77632E+04
  3.86554E+04  2.40268E+03  1.89365E+04  4.69393E+04 -3.09798E+04  4.37910E+04 -6.57517E+04 -3.19163E+03
 -5.35781E+04 -6.03774E+04 -1.02759E+04 -7.51547E+04  3.08621E+04 -5.57744E+04  4.85158E+04 -1.69170E+04
  4.18179E+04  1.41031E+04  3.07747E+04  2.50699E+04  1.76791E+04  3.02441E+04 -5.27813E+03  2.83373E+04
 -2.10825E+04  1.39027E+04 -1.58909E+04 -5.59075E+03  1.82901E+03 -6.27386E+03  2.38816E+04  1.28715E+04
  4.63604E+03  3.63362E+04 -2.82291E+04  3.70996E+04 -6.56916E+04 -3.29063E+03 -5.96359E+04 -4.07649E+04
 -8.66120E+03 -6.21683E+04  4.02235E+04 -4.45352E+04  5.51067E+04 -2.21879E+03  3.52947E+04  3.18647E+04
 -2.62692E+03  3.47590E+04 -2.38924E+04  1.43073E+04 -2.73379E+04 -3.81981E+03 -1.55731E+04 -4.51250E+03
 -5.21828E+03 -1.53021E+04 -2.00420E+03 -1.71656E+04  8.87743E+03 -2.25142E+04  1.74227E+04 -1.16631E+04
  8.55742E+03  6.70696E+03 -8.71850E+03  9.77038E+03 -2.05824E+04 -5.83326E+03 -9.68208E+03 -2.61143E+04
  1.92195E+04 -4.53950E+04  4.68736E+04 -1.49610E+04  4.03484E+04  2.03315E+04  1.43188E+04  4.37573E+04
 -1.61363E+04  3.43627E+04 -2.15517E+04  1.13925E+03 -8.60215E+03 -2.35354E+04  2.36184E+04 -3.11915E+04
  3.53398E+04 -1.15636E+04  3.36204E+04  2.32980E+04  1.54347E+04  4.03953E+04 -3.13227E+03  4.95837E+04
 -3.36409E+04  3.29280E+04 -3.70033E+04  8.16919E+03 -3.93672E+04 -1.42122E+04 -1.71989E+04 -4.18090E+04
  6.95373E+03 -3.72427E+04  3.15369E+04 -1.16310E+04  2.57770E+04  9.51677E+03 -1.01161E+03  1.93977E+04
 -1.25068E+04  8.36230E+03 -1.08418E+04 -1.14529E+04  9.78764E+03 -1.19455E+04  1.82507E+04  2.81014E+03
  1.27191E+04  2.21512E+04 -6.64962E+03  2.37405E+04 -2.07567E+04  1.15662E+04 -2.50484E+04 -7.92241E+03
 -1.72107E+04 -1.44062E+04 -7.60048E+03 -2.07305E+04  5.01729E+03 -2.03719E+04  1.23968E+04 -1.75855E+04
  2.19716E+04 -2.01646E+04  3.03777E+04  4.34505E+03  2.45807E+04  2.20596E+04  1.26239E+03  3.50847E+04
 -1.96997E+04  3.00627E+04 -3.01613E+04  1.26303E+04 -2.05335E+04 -1.23845E+04 -3.46405E+03 -1.55962E+04
  1.48187E+03  3.14228E+02 -3.11778E+03  6.74360E+03 -1.55846E+04  2.02425E+03 -9.75073E+03 -1.28316E+04
 -9.71252E+03 -1.95558E+04  7.06619E+03 -2.00335E+04  1.76990E+04 -1.47787E+04  1.49452E+04 -1.31701E+03
  1.29718E+04  1.12076E+04 -5.27844E+03  1.51696E+04 -1.18645E+04  1.37262E+04 -1.05001E+04 -6.65762E+03
 -1.59513E+04 -1.67895E+04  1.89188E+03 -1.93381E+04  1.12499E+04 -1.50572E+04  1.55114E+04 -8.10742E+03
  1.40739E+04 -1.14769E+03  1.11807E+04  4.52620E+03  1.14720E+04  6.10176E+02  1.05764E+04 -3.65102E+03
  1.83839E+04  3.28926E+03  1.82432E+04  1.77974E+04  1.12541E+04  3.30212E+04 -4.63979E+03  3.04594E+04
 -1.71405E+04  2.23087E+04 -2.78423E+04  7.26902E+03 -2.80702E+04 -4.90075E+03 -2.12623E+04 -1.33339E+04
 -9.13612E+03 -2.09931E+04  7.53490E+03 -2.21499E+04  2.01116E+04 -1.32481E+04  1.62805E+04  7.04889E+03
  4.03725E+03  1.44522E+04 -8.57227E+03  1.32031E+04 -1.77331E+04  6.22495E+03 -1.17503E+04 -9.70806E+03
 -2.82359E+03 -1.52579E+04  7.66414E+03 -6.57163E+03  9.31081E+03  1.91663E+03 -4.49602E+02  6.86647E+03
 -1.06501E+03 -3.91385E+02 -3.30706E+03 -2.67467E+03 -2.32734E+02 -7.69872E+03  6.98125E+03 -1.25226E+04
  1.27933E+04 -2.61904E+03  1.31401E+04  4.34040E+03  1.45456E+04  1.12720E+04  6.28886E+03  2.22658E+04
 -6.88668E+01  1.72468E+04 -1.06522E+04  1.16402E+04 -1.25261E+04  4.21172E+03 -9.77443E+03 -3.55174E+03
 -8.40400E+03 -4.52939E+03 -2.21281E+03  3.90311E+03 -2.49495E+03  1.10347E+03 -6.77072E+03  7.59011E+03
 -8.46861E+03  2.91060E+03 -6.44619E+03 -7.62014E+03 -5.26467E+03 -1.43129E+04  1.96545E+03 -1.02899E+04
  8.48292E+03 -4.23656E+03  4.78829E+03  3.06306E+03 -1.80917E+03  1.41336E+03 -1.75596E+03  2.76826E+02
 -2.06808E+03 -5.91076E+03 -8.16954E+02 -2.91976E+03  2.95682E+03 -1.07413E+04  1.23178E+04 -7.05655E+03
  1.56608E+04  5.59875E+02  1.01901E+04  7.68509E+03  7.30429E+02  1.12118E+04 -7.65627E+03  8.57052E+03
 -9.51423E+03  3.37590E+03 -1.48174E+03 -5.33647E+03  6.69786E+03 -1.33440E+03  2.61933E+03 -2.89245E+03
  4.83746E+03  1.09396E+03 -4.06601E+02  1.13172E+03 -5.86339E+03  1.00903E+04 -1.09338E+04 -1.99209E+03
 -6.61074E+03 -3.11444E+03 -8.08363E+02 -7.21063E+03  4.11154E+03 -1.41525E+03  6.81102E+03  6.06607E+03
 -1.79893E+03  6.11650E+03 -1.20532E+04  3.91085E+03 -9.64565E+03  7.01914E+02 -5.19173E+03 -1.88372E+03
 -3.80913E+03 -8.30597E+03  5.20707E+03 -1.37008E+04  9.41289E+03 -5.75046E+03  4.74903E+03  2.14739E+03
  3.13955E+03  6.11934E+03  2.24743E+03  8.71276E+03 -4.28206E+03  5.00876E+03 -9.44542E+03 -8.08624E+02
 -8.49862E+03 -7.61918E+03 -2.68064E+03 -3.72281E+03  3.15414E+03  1.20522E+03  1.07320E+03 -1.94366E+03
 -2.49196E+03 -1.48044E+03  1.27866E+03 -1.80296E+03  2.48260E+02  2.97120E+02  2.41088E+03 -4.18733E+03
  3.28906E+03 -3.69434E+03  5.71891E+03 -1.36300E+03  3.46399E+03  6.07307E+03  3.76801E+03  1.22681E+04
 -3.92251E+03  1.03641E+04 -5.64214E+03  9.02716E+03 -1.00585E+04  2.70344E+03 -1.17939E+04  1.25639E+03
 -5.56447E+03 -1.04850E+04 -2.27357E+03 -6.20460E+03  1.61613E+03 -2.29869E+03  2.14629E+03 -2.31613E+03
  4.81562E+02 -2.62186E+03 -9.10487E+02 -2.99805E+03 -9.37892E+02 -2.13374E+02  2.22800E+03  4.93400E+03
  4.19117E+03  7.05511E+03  2.17725E+03 -8.64782E+02 -1.45664E+03  3.44492E+03 -3.98477E+03  7.42905E+02
 -1.02393E+04  6.92180E+02 -1.88953E+03 -6.27885E+03 -6.74014E+02 -5.22317E+03  2.99614E+03 -5.40795E+03
 -4.98933E+02 -6.07898E+03  5.64572E+03 -1.51453E+03  9.62159E+03  4.84969E+03  4.59798E+03  6.67463E+03
  2.05919E+03  3.12324E+03 -5.52274E+02 -5.18187E+02 -4.85708E+03  1.57630E+03  8.74833E+02 -1.34009E+03
 -2.47480E+03  2.09555E+03  2.03270E+03  2.28454E+03 -8.34635E+02  1.17434E+03 -1.96322E+03  3.65130E+03
 -4.11924E+03 -3.07952E+03  1.51894E+03 -3.41624E+03 -1.25009E+02 -8.28998E+03  3.58948E+03 -4.39486E+03
  7.91791E+03  1.33317E+02  1.31124E+03  2.07167E+03 -3.18970E+03  7.75346E+03 -5.11251E+03  4.48592E+03
 -4.91808E+03  4.31412E+02 -3.63284E+03 -7.24611E+03 -4.63773E+02 -7.59335E+02 -3.12467E+02 -9.91936E+02
  2.90971E+03  2.48495E+03  2.72556E+03  8.34738E+02  8.22851E+02  2.28301E+03  5.33709E+02  2.15952E+01
  1.85406E+03  5.67661E+03  5.42269E+03  4.80121E+03 -1.26636E+02  2.90789E+03 -2.44061E+03  7.71163E+02
 -2.99699E+03  2.69310E+03 -5.77632E+03  6.03249E+03 -2.53258E+03  1.72287E+03 -2.92003E+03 -1.44152E+03
 -1.99843E+02 -3.24665E+03  8.96825E+02 -6.52472E+03  1.28958E+03  1.76830E+03  8.25165E+03 -4.20659E+03
  2.98768E+03  1.93768E+03  2.37857E+03  7.29578E+02  2.47549E+03  1.58441E+03  1.80524E+03  1.51368E+03
 -2.89023E+03 -1.43256E+03  3.13276E+03 -2.38423E+03  2.44559E+03  1.13087E+03  4.15950E+03  3.31590E+03
  3.08427E+03  1.09606E+03  2.62845E+03  1.78187E+03 -1.83492E+03 -9.70144E+02  2.95474E+03  9.70037E+02
 -5.23296E+03 -3.32643E+03  2.54180E+03  2.67988E+03  5.29300E+02  6.88521E+03  7.50764E+02  2.66968E+03
 -4.77660E+03  1.13242E+03  8.46692E+02  6.93317E+02 -3.44753E+03 -2.85092E+03 -2.49129E+02 -3.15634E+03
  1.31419E+02 -1.64422E+03  3.80692E+03  2.44954E+02  2.66115E+03  2.76674E+03  1.21072E+03  6.40236E+03
 -3.70941E+03  6.06531E+03 -5.80031E+03  1.77365E+03 -2.79528E+03 -3.71515E+02  4.27816E+03 -3.43942E+03
  3.91872E+03 -1.70642E+03 -2.48844E+03  2.05667E+03  2.27121E+03  2.41057E+03  2.51179E+03  3.04781E+03
 -2.51370E+02  4.55865E+02  1.21570E+03  3.68142E+02  4.73560E+03 -2.43466E+03  2.86330E+03 -2.69112E+03
  2.15625E+02  1.80807E+03  3.01436E+03 -1.48919E+03  4.37113E+03 -1.65456E+03 -1.96097E+03  4.51637E+03
 -5.40343E+03  8.50530E+01 -3.07763E+03 -3.68875E+03 -2.99410E+03  1.76461E+03  1.66564E+03 -9.34374E+02
 -5.32498E+02 -1.37508E+03 -2.85801E+02  6.05600E+03 -8.40874E+02  3.75159E+02 -1.34664E+03  5.21966E+03
 -2.52866E+03  3.02893E+03 -2.89328E+03  4.81922E+02  7.79197E+02 -3.05551E+02  1.77860E+03  5.25889E+03
 -4.57400E+03  4.03432E+03 -4.17619E+03  1.87305E+03  1.92478E+03  7.62615E+02 -3.90188E+03 -3.12311E+03
 -6.63228E+03 -5.34921E+03  4.50353E+01 -2.06890E+03 -2.20885E+03 -1.58241E+03  3.75735E+03  3.19600E+03
  5.25130E+03 -6.22467E+02  4.82156E+03  4.79571E+03 -5.67593E+02  6.59846E+03 -1.89620E+03  4.93394E+02
  5.83004E+00  1.61173E+03  4.23879E+03  7.35247E+02 -1.88890E+03 -1.37047E+03  2.13964E+02 -7.18214E+02
 -2.37520E+03  3.11817E+03 -2.41410E+03  2.57256E+03  1.32098E+03 -2.85394E+01  7.64727E+02 -3.80616E+02
 -1.22737E+02 -2.62628E+03 -9.82099E+02 -2.19763E+02 -1.71754E+03  1.31677E+03  2.64712E+03  2.64828E+03
 -6.65943E+02  4.53805E+03 -4.60057E+03  1.11295E+03 -3.98878E+03 -5.39457E+02 -4.72777E+03 -3.68898E+03
 -2.39606E+03 -5.15921E+03  1.22615E+03 -5.70188E+03 -3.13161E+03 -2.01419E+03  1.78247E+03 -1.19762E+03
  3.21214E+03  1.13326E+03 -5.07343E+02  7.22292E+03 -3.05932E+03  1.25242E+03  1.76032E+03 -4.15718E+03
 -2.47722E+03  1.04119E+03  9.22820E+02 -3.01245E+03  3.07638E+03  3.16518E+03  1.28534E+02 -5.72432E+02
 -9.85171E+02 -2.82848E+02 -2.88741E+02 -3.03290E+02 -7.21480E+01 -3.03574E+03  3.39643E+03 -4.78006E+03
  1.82528E+03  1.62997E+03  1.05444E+03  6.32152E+03  1.37977E+03  1.60604E+03  2.99460E+03  6.19320E+02
 -4.02315E+02  1.67928E+03  3.87954E+03  1.01993E+02 -6.31890E+03  2.65513E+03 -1.14413E+03  1.41171E+03
 -1.55558E+03  2.60590E+03  1.45801E+03  2.00822E+03 -2.65465E+03  6.10597E+03 -2.58976E+03  4.77545E+03
 -4.22865E+02 -8.34518E+02 -5.40355E+03 -6.28840E+03  1.16718E+03 -5.52945E+02 -2.28407E+03  1.65821E+02
 -1.00867E+03 -3.07074E+03 -1.82621E+03 -2.26235E+03  4.92573E+02  3.05030E+03  1.72695E+03  3.62083E+03
