 $NMID ID='MM_0lb_SNR50_10hz_g60_20.RAW', FMTDAT='(8E13.5)'
 TRAMP=1., VOLUME=1. $END
  3.08847E+05  7.18859E+02  3.37111E+05  2.48994E+05  8.85954E+04  3.36959E+05 -1.34351E+05  2.49872E+05
 -1.90236E+05  8.56841E+04 -1.21892E+05 -3.22469E+04 -8.28997E+02 -4.62636E+04  5.84782E+04  2.36349E+03
  3.64746E+04  5.31438E+04 -1.81881E+04  7.46450E+04 -6.49133E+04  6.39141E+04 -8.14518E+04  2.79090E+04
 -8.45479E+04 -1.19637E+04 -5.57407E+04 -5.73007E+04 -1.52067E+04 -7.44682E+04  3.06787E+04 -4.65919E+04
  3.96902E+04 -8.55318E+02  1.51821E+04  4.65668E+04 -3.10850E+04  4.61624E+04 -7.02759E+04  5.00403E+03
 -5.21949E+04 -5.82814E+04 -5.07214E+03 -7.89573E+04  3.60898E+04 -5.63676E+04  5.40996E+04 -1.94452E+04
  4.28058E+04  1.02639E+04  3.46102E+04  2.90352E+04  1.77652E+04  3.41114E+04 -1.71230E+03  2.77108E+04
 -1.96849E+04  1.15446E+04 -1.35708E+04 -3.98988E+03  8.95194E+03 -8.50896E+03  2.36276E+04  1.08810E+04
  7.16542E+03  3.85944E+04 -3.65975E+04  3.71213E+04 -6.73532E+04  3.58972E+03 -6.04513E+04 -4.22798E+04
 -1.06026E+04 -6.95213E+04  4.11862E+04 -4.58785E+04  5.87347E+04 -1.42499E+03  3.22992E+04  2.68137E+04
  3.70150E+03  4.04082E+04 -2.91079E+04  1.95046E+04 -3.69849E+04 -5.22307E+03 -1.33422E+04 -1.29591E+04
 -1.29797E+04 -1.34256E+04 -1.44733E+03 -1.75612E+04  5.56427E+03 -2.42165E+04  1.63564E+04 -1.07885E+04
  8.52098E+03  8.11009E+03 -1.53088E+04  1.08701E+04 -2.27639E+04 -1.03239E+04 -8.73777E+03 -4.40432E+04
  2.16742E+04 -4.37740E+04  5.63753E+04 -1.99706E+04  4.60033E+04  2.08105E+04  2.07735E+04  4.93243E+04
 -1.35596E+04  3.94626E+04 -2.26598E+04  7.55390E+03 -9.30782E+03 -2.42112E+04  2.32592E+04 -3.48655E+04
  4.67079E+04 -1.38699E+04  3.69320E+04  2.65209E+04  2.11029E+04  4.61637E+04 -5.14569E+03  5.09082E+04
 -3.04008E+04  3.78399E+04 -5.33814E+04  6.60658E+03 -4.81832E+04 -2.35107E+04 -2.70511E+04 -3.79210E+04
  8.02921E+03 -3.62714E+04  3.24471E+04 -1.29953E+04  3.37854E+04  1.24719E+04  1.25200E+04  2.14465E+04
 -9.83706E+03  1.08231E+04 -1.10815E+04 -4.50205E+03  3.18760E+03 -1.29713E+04  2.31743E+04  9.18361E+03
  1.33367E+04  2.45255E+04 -1.01357E+04  2.83992E+04 -2.28426E+04  1.33224E+04 -2.76595E+04 -3.71417E+03
 -3.22776E+04 -1.74120E+04 -1.00617E+04 -1.98768E+04 -2.55751E+03 -2.52707E+04  1.84545E+04 -2.13263E+04
  3.39993E+04 -1.61289E+04  3.94405E+04  5.11771E+03  2.48182E+04  1.77212E+04  5.67403E+03  3.84596E+04
 -1.87792E+04  3.76544E+04 -3.13928E+04  6.89039E+03 -1.88272E+04 -8.98781E+03 -5.31485E+03 -7.26032E+03
  5.76923E+03  4.84633E+03 -7.23054E+03  7.13622E+03 -2.19622E+04  4.07247E+03 -2.05694E+04 -7.16483E+03
 -1.18173E+04 -2.63213E+04  7.23861E+03 -2.84073E+04  1.92804E+04 -1.70119E+04  2.53697E+04  3.31941E+03
  1.34687E+04  1.48283E+04 -9.30215E+02  2.09101E+04 -1.97411E+04  1.42780E+04 -2.26954E+04 -6.19226E+03
 -1.57179E+04 -2.47387E+04  5.56760E+02 -2.57400E+04  9.71984E+03 -2.39801E+04  1.74866E+04 -1.07661E+04
  2.40493E+04  9.52296E+02  9.88260E+03  8.00414E+02  3.78341E+03  1.65911E+03  1.34455E+04 -4.12698E+03
  1.98606E+04 -2.13952E+03  2.53801E+04  1.87425E+04  1.66370E+04  3.57907E+04  5.76680E+02  4.13468E+04
 -2.67657E+04  3.01284E+04 -3.74454E+04  1.73685E+04 -4.80392E+04 -4.38374E+03 -3.52119E+04 -2.67381E+04
 -1.19616E+04 -4.77378E+04  1.27386E+04 -3.77621E+04  2.90058E+04 -1.36530E+04  2.57050E+04  1.22198E+04
  1.19700E+04  1.37754E+04 -1.81626E+04  2.03606E+04 -2.46950E+04  8.24900E+03 -1.63500E+04 -6.80419E+03
  4.16597E+03 -2.04649E+04  1.25956E+04 -1.77334E+04  1.05520E+04  4.14415E+03  1.67877E+03  1.09059E+04
 -1.44463E+04  5.12004E+03 -1.31401E+04  1.97905E+03  1.41863E+03 -1.49728E+04  1.40042E+04 -1.87721E+04
  2.04884E+04 -1.22040E+04  2.76395E+04 -6.51901E+02  2.05655E+04  1.97124E+04  1.43062E+04  2.85391E+04
 -6.74738E+03  3.13379E+04 -2.00466E+04  2.19938E+04 -2.01721E+04  3.87782E+03 -1.89513E+04 -4.82484E+03
 -9.06031E+03 -1.06856E+04 -2.62927E+03 -8.25123E+02 -5.82394E+02  5.93125E+02 -3.69436E+03  5.90512E+02
 -1.91865E+04 -1.80044E+03 -1.70017E+04 -9.80544E+03 -2.86559E+02 -1.24999E+04  8.43342E+03 -7.39962E+03
  1.21579E+04 -6.20230E+03  4.63341E+03  1.18703E+04  1.29874E+03  4.03620E+03 -2.89186E+03 -1.30064E+03
 -1.09357E+04 -8.47873E+03  3.07826E+03 -9.77379E+03  7.98969E+03 -2.02110E+04  1.67219E+04 -1.06759E+04
  2.75359E+04  6.37635E+03  2.75100E+04  1.81213E+04  4.39212E+03  1.58194E+04 -1.03836E+04  1.43035E+04
 -1.93817E+04  2.42341E+02 -7.98240E+03 -4.52865E+02  7.23111E+03 -7.80488E+03  1.18029E+04 -3.48219E+03
  5.69943E+03 -8.92500E+02  4.28839E+03  1.56845E+04 -8.32327E+03  1.00088E+04 -1.46228E+04  5.82907E+03
 -1.25965E+04 -1.01068E+04  3.37555E+02 -1.62071E+04  1.53222E+04 -6.20277E+03  1.79110E+04  7.93127E+03
  5.31760E+03  7.95060E+03 -1.11450E+04  9.96068E+03 -8.84629E+03  5.71373E+03 -1.28721E+04 -4.11157E+03
 -5.21727E+03 -1.62645E+04  5.78329E+03 -1.78301E+04  1.78206E+04 -1.03868E+04  1.36842E+04  5.45385E+03
  2.92707E+03  1.23276E+04 -5.00375E+02  1.30863E+04 -1.09221E+04  3.92226E+03 -1.64643E+04 -1.40027E+03
 -8.50045E+03 -1.36396E+04 -5.27169E+03 -1.03800E+04  3.35786E+03 -1.38034E+04  1.31316E+04  5.20798E+02
  7.31148E-01  4.24207E+03 -1.48376E+03 -2.56266E+02 -1.46738E+03 -7.72965E+03  5.71250E+02 -5.15467E+03
  1.23248E+04 -3.53371E+03  1.23275E+04  5.86357E+02  1.41210E+04  9.33825E+03  7.15133E+03  1.97269E+04
 -8.46727E+03  2.88582E+04 -2.61942E+04  1.95502E+04 -2.80467E+04  3.81308E+03 -2.45509E+04 -1.56117E+04
 -1.27625E+04 -9.87424E+03 -6.27449E+03 -1.81244E+04  4.31526E+03 -3.28060E+03  2.22849E+03 -8.06502E+02
  3.71265E+03 -7.17037E+03  7.28177E+03  2.46024E+03  6.78455E+03 -5.05397E+03  2.02434E+03 -5.52120E+03
  6.26779E+03  3.02329E+03  1.29991E+03  1.55860E+04 -4.00023E+03  1.43308E+04 -7.87583E+03  2.25671E+03
 -1.81072E+04 -3.45810E+02 -1.34962E+04 -9.50638E+03 -2.24984E+03 -1.86216E+04  4.40236E+03 -1.06089E+04
  1.46341E+04 -1.03513E+04  1.83580E+04  2.08291E+03  1.16519E+04  1.32308E+04  2.57150E+03  1.28257E+04
 -8.43452E+03  5.62089E+03 -5.94951E+03  3.60558E+03 -9.41740E+03 -5.25837E+03 -3.48957E+03  2.78679E+03
  3.34683E+03 -3.64782E+03 -1.08638E+04  7.55562E+02 -6.77768E+03  3.04524E+03 -8.16774E+03  4.53169E+02
 -9.75645E+03 -1.43516E+04 -7.99391E+02 -1.28252E+04  3.29177E+03 -1.73692E+04  2.19756E+04 -3.91095E+03
  1.31724E+04  1.11739E+04  3.40424E+03  1.38077E+04 -7.29008E+03  1.44301E+04 -7.12113E+03  8.86090E+03
 -1.55720E+04  3.88546E+03 -9.00998E+03 -1.23587E+04  9.89937E+02 -5.50466E+03 -1.23683E+02 -3.90541E+03
  1.20622E+04 -2.73809E+03  8.22093E+03  2.68058E+02 -3.15287E+03  2.63709E+03 -3.51118E+03  1.35159E+03
  2.72927E+03 -3.45043E+03 -2.83348E+03  6.46794E+03  9.91207E+03  4.54756E+03 -1.01678E+03  6.68838E+03
 -3.49957E+03  1.00864E+04 -1.08334E+04  8.84104E+03 -2.20130E+04  7.68250E+03 -2.17680E+04 -6.83376E+03
 -9.16802E+03 -1.36197E+04  6.90100E+03 -1.67862E+04  1.05824E+04 -1.00254E+04  1.25486E+04 -1.13348E+02
  7.93328E+03  5.30746E+03  1.12122E+03  3.94869E+03  1.14699E+03  9.13797E+03 -5.36718E+03 -1.55517E+03
 -5.91491E+02 -5.31831E+03  2.60310E+03 -5.92578E+03  5.60236E+03 -2.85940E+03  9.91338E+03 -4.87811E+03
  7.22091E+03  6.05551E+03  1.04621E+02  3.48415E+03 -1.85223E+03  7.17838E+03  4.43714E+02 -1.37290E+03
  3.56867E+03 -1.91830E+03  4.15178E+03  9.82206E+02  2.35698E+03  1.10668E+04 -1.83363E+03  1.60962E+04
 -9.75465E+03  6.05670E+03 -8.22389E+03  7.14249E+03 -2.48077E+03  8.24475E+01 -8.40634E+03 -4.78310E+03
  5.57416E+02 -8.49195E+03  4.24350E+03  1.15471E+00  1.99918E+03  6.42392E+03 -1.80884E+03  6.40409E+03
 -7.62549E+03  1.76029E+03 -4.84111E+03 -3.29376E+03  3.21887E+03 -1.49093E+02  4.27560E+03 -1.50275E+04
  5.81261E+03 -6.22397E+03  5.23330E+03 -4.77433E+03  2.33291E+03  6.00272E+03 -2.21199E+03  4.07602E+03
 -7.25793E+03 -4.35221E+03 -4.76868E+03 -8.36595E+03  5.52686E+03 -9.71341E+03  4.88377E+03 -6.02364E+03
  7.25836E+03  1.32822E+03  1.13594E+04  1.47485E+04  6.98041E+03  7.01061E+03 -3.32571E+03  7.46514E+03
 -8.82354E+03  1.67188E+03 -6.02772E+03 -1.45682E+03 -2.95536E+03 -1.24254E+04  2.00153E+03  1.60145E+03
  3.12822E+03 -2.71669E+03  7.85387E+03  4.64202E+03  4.50601E+03  5.11345E+03 -4.87501E+03  9.16531E+03
 -3.47003E+03 -2.34543E+03  1.58704E+03  7.01805E+03 -5.56165E+03 -4.85416E+03 -1.33641E+03  3.80878E+03
  1.66872E+03  2.23011E+03 -3.43669E+03  4.77115E+03 -9.75149E+03  2.38104E+03 -1.38707E+04 -2.00848E+03
 -4.63918E+03 -1.52286E+04  3.30921E+03 -1.68375E+04  7.04260E+03 -1.08754E+04  1.58277E+04 -2.37611E+03
  1.05774E+04  2.99278E+03  8.24611E+03  1.27937E+04  1.40411E+03  1.32598E+04 -1.18955E+03  1.01193E+04
 -5.40497E+03  3.73293E+03 -4.59294E+03  1.49165E+03 -2.87113E+03 -3.30453E+03 -1.62820E+03  2.81986E+03
 -6.36407E+03  1.09597E+03 -2.40182E+02  3.46362E+03 -1.65320E+01 -2.82814E+03  9.20929E+02 -6.13637E+03
  1.21340E+04 -2.33661E+02  6.76505E+03  5.39561E+03  5.94716E+03  4.28796E+03 -1.22424E+03  5.81725E+03
 -1.36115E+04  1.39650E+04 -9.35259E+03  1.35216E+04 -9.42572E+03  1.30057E+03 -1.12056E+04 -1.21202E+04
 -4.79646E+03 -4.89914E+03  4.20966E+03 -1.58193E+04  2.91416E+02  2.02601E+02  3.62646E+03  6.79110E+02
 -1.02304E+03  5.62955E+03 -4.38689E+03  4.86846E+03  2.49318E+03 -4.61421E+03 -4.50584E+03  3.80340E+02
  3.61776E+03  3.57937E+03  1.22266E+03 -2.57241E+03  1.87051E+03  2.40027E+03  2.90488E+03  3.71919E+03
 -2.86833E+03  7.43008E+03 -2.01353E+03 -3.95441E+03 -4.17288E+03 -1.20976E+04  3.95824E+03 -9.07209E+03
  4.88434E+03 -3.45864E+01  3.41984E+03  1.62190E+03  8.93178E+03 -3.37401E+02 -3.32492E+03  2.40920E+03
 -2.25366E+03  5.07645E+03 -1.68724E+03  6.40953E+03 -5.40520E+03  1.40441E+03 -5.80996E+03  8.32897E+02
 -1.34102E+03  1.94915E+03  9.11226E+02  3.14657E+03 -3.03659E+03  6.20446E+02 -1.69406E+03  2.24396E+03
 -7.12959E+03 -6.90561E+03  4.16795E+03 -2.50564E+03  2.20629E+03 -6.24364E+03  4.99809E+03 -8.74779E+02
  1.28404E+04 -1.39784E+01  1.98451E+03  3.23112E+03  3.74774E+03  6.77073E+02 -1.31465E+03  6.07370E+03
