 $NMID ID='MM_0lb_SNR50_13hz_g45_81.RAW', FMTDAT='(8E13.5)'
 TRAMP=1., VOLUME=1. $END
  3.06497E+05 -9.29248E+02  3.38464E+05  2.52676E+05  8.71799E+04  3.41674E+05 -1.29882E+05  2.52269E+05
 -1.92906E+05  8.03734E+04 -1.12198E+05 -3.27709E+04  2.86842E+03 -5.63999E+04  5.40591E+04 -4.09400E+03
  3.16070E+04  5.08427E+04 -2.16607E+04  7.70522E+04 -6.12734E+04  5.75077E+04 -8.08819E+04  2.99040E+04
 -7.98134E+04 -1.15163E+04 -5.67452E+04 -5.40851E+04 -1.19852E+04 -6.54099E+04  2.59105E+04 -4.91556E+04
  4.70534E+04  4.39501E+03  1.66493E+04  4.52382E+04 -3.30116E+04  4.53088E+04 -6.73290E+04 -1.93683E+02
 -4.77491E+04 -5.34940E+04 -9.96380E+03 -8.10580E+04  3.37897E+04 -5.66351E+04  4.79599E+04 -1.25097E+04
  4.02506E+04  1.31810E+04  3.17717E+04  2.74238E+04  1.80989E+04  3.46622E+04 -9.00164E+03  3.02932E+04
 -2.15421E+04  1.24409E+04 -1.45337E+04 -1.03156E+04  1.28370E+04 -8.32634E+03  2.41892E+04  1.14397E+04
  4.54173E+03  3.80558E+04 -3.09483E+04  3.09320E+04 -6.58538E+04  3.25423E+03 -6.19528E+04 -4.21623E+04
 -9.91630E+03 -6.20842E+04  4.29416E+04 -3.99758E+04  5.83371E+04 -1.84462E+03  3.29621E+04  2.94457E+04
 -3.86795E+03  3.72194E+04 -2.88599E+04  9.77993E+03 -3.14903E+04 -1.25240E+04 -1.46334E+04 -8.61493E+03
 -1.00066E+04 -1.04419E+04 -2.89477E+03 -1.82159E+04  3.05429E+03 -2.56469E+04  1.31857E+04 -1.49490E+04
  1.02792E+04  7.69899E+03 -7.20177E+03  1.44968E+04 -1.97666E+04 -6.43298E+02 -6.77917E+03 -3.58137E+04
  2.14247E+04 -4.37603E+04  5.23979E+04 -1.43598E+04  4.33669E+04  2.01287E+04  1.43059E+04  4.85674E+04
 -1.78554E+04  3.65453E+04 -2.70653E+04  5.39215E+03 -5.11237E+03 -2.88607E+04  1.57452E+04 -3.58322E+04
  3.94066E+04 -1.13296E+04  3.89512E+04  2.70738E+04  1.66402E+04  4.70004E+04 -1.36909E+04  5.28029E+04
 -3.89172E+04  3.53756E+04 -4.29388E+04  8.64976E+03 -4.52579E+04 -1.09596E+04 -2.65916E+04 -3.72319E+04
  4.71065E+03 -3.96551E+04  3.51399E+04 -1.18855E+04  2.72901E+04  9.77989E+03  4.50008E+03  1.61764E+04
 -1.72842E+04  5.92327E+03 -1.18871E+04 -7.76508E+03  1.15063E+03 -9.82537E+03  1.67124E+04  3.53284E+03
  1.34189E+04  2.18921E+04 -4.77527E+03  2.50958E+04 -2.60603E+04  1.18171E+04 -2.79761E+04 -2.29108E+03
 -2.03509E+04 -1.90018E+04 -8.50703E+03 -1.95124E+04  5.45722E+03 -1.75566E+04  1.40982E+04 -1.50984E+04
  2.24197E+04 -1.33534E+04  3.53018E+04  4.97709E+03  2.61778E+04  2.23891E+04  1.15017E+03  3.21277E+04
 -1.70014E+04  3.14310E+04 -2.76358E+04  9.19677E+03 -2.19615E+04 -5.39454E+03 -9.47975E+03 -1.37337E+04
  1.81564E+03 -6.87372E+03 -4.27678E+03  2.59458E+03 -1.78152E+04  9.11448E+03 -1.68462E+04 -5.42317E+03
 -1.23187E+04 -1.97501E+04  6.57017E+03 -2.33012E+04  2.02174E+04 -1.39639E+04  1.75956E+04 -3.01389E+02
  1.21666E+04  9.41780E+03 -5.34526E+03  1.72391E+04 -1.19404E+04  1.56419E+04 -2.32329E+04 -5.27840E+03
 -1.03373E+04 -1.95033E+04 -8.95999E+02 -2.02170E+04  1.28777E+04 -2.15184E+04  1.65984E+04 -1.38167E+04
  1.41222E+04 -6.16554E+02  7.07654E+03  4.64762E+03  1.28958E+03  2.74451E+02  8.74739E+03 -3.27521E+03
  1.86760E+04 -2.83256E+03  2.08799E+04  1.59559E+04  1.59512E+04  3.01977E+04 -4.83991E+03  3.77130E+04
 -1.76180E+04  2.84844E+04 -3.67620E+04  1.63271E+04 -3.89349E+04  1.50637E+03 -2.98267E+04 -1.85562E+04
 -7.48754E+03 -2.72658E+04  1.02400E+04 -2.34818E+04  2.38356E+04 -1.41746E+04  1.65077E+04  1.87593E+03
  5.25504E+03  1.64521E+04 -1.15864E+04  6.61173E+03 -1.48491E+04  7.60817E+03 -1.37159E+04 -9.11916E+03
 -4.08416E+03 -1.21930E+04  1.24448E+04 -1.66180E+04  9.83095E+03 -4.83380E+03  5.45953E+03  1.23768E+04
 -9.04474E+03  7.84961E+02 -8.97371E+03 -6.66855E+03 -3.02975E+03 -9.41390E+03  1.23215E+04 -1.01748E+04
  2.19092E+04 -8.65278E+03  2.11290E+04  3.27745E+03  1.41492E+04  1.29900E+04  3.63446E+03  2.18605E+04
 -7.91832E+03  1.92068E+04 -1.45147E+04  1.69529E+04 -1.87982E+04  4.24400E+03 -9.05850E+03 -6.30685E+03
 -5.95836E+03 -1.17905E+04 -1.96314E+03  2.16900E+03 -3.09153E+02  3.02760E+03  9.88114E+02  4.89643E+03
 -1.32226E+04 -3.78753E+03 -1.04208E+04 -5.38641E+03 -2.83345E+03 -1.45691E+04  1.44963E+03 -1.22991E+04
  6.52199E+03 -6.14512E+03  5.30233E+03  7.42104E+03 -2.34172E+03  6.47397E+03 -4.87260E+03 -2.56725E+03
  1.60559E+03 -9.92360E+03 -1.92885E+03 -1.21571E+04  6.55855E+03 -7.97942E+03  1.23409E+04 -5.43468E+03
  1.58458E+04 -1.51549E+03  1.19073E+04  8.04231E+03  1.50399E+03  1.69656E+04 -1.08635E+04  1.34718E+04
 -9.18982E+03 -2.21065E+03 -2.05316E+02 -7.52604E+03 -2.20517E+02 -9.38474E+02  7.80201E+03  4.10439E+03
  2.67236E+03  5.48411E+03  3.88764E+03  1.05120E+04 -6.44308E+03  3.41176E+03 -1.25959E+04 -5.17480E+02
  6.07492E+02 -5.33589E+03 -1.97544E+03 -5.92888E+03 -2.08560E+02 -7.57753E+03  6.67241E+03  3.48366E+02
  1.76333E+03  9.93788E+03 -6.77267E+03  8.77168E+03 -8.66703E+03  1.45181E+03 -9.03659E+03 -2.03894E+03
 -5.73143E+03 -1.05748E+04  1.89039E+03 -1.02189E+04  1.10486E+04 -9.77879E+03  7.78188E+03  5.37843E+03
  6.42294E+03  8.17005E+03 -4.90491E+03  9.94419E+03 -2.64430E+03  3.44986E+03 -8.56358E+03  1.35786E+03
 -1.13406E+04 -7.44976E+03 -6.88027E+02 -8.05525E+03  2.71513E+03 -1.23155E+03  2.69109E+03 -1.65249E+03
  3.74193E+03  2.04599E+03 -4.79804E+03  4.36918E+03  3.03886E+03 -7.58419E+02 -2.49768E+03 -2.80163E+03
  5.23446E+03 -3.74855E+03  6.90273E+03  2.62756E+03  1.18289E+04  1.27142E+04  6.67065E+03  1.03048E+04
 -2.70625E+03  1.72114E+04 -1.75608E+04  9.10248E+03 -1.87926E+04  5.72487E+03 -1.42679E+04 -6.33974E+03
 -7.10900E+03 -9.43910E+03  6.87289E+02 -9.55926E+03  6.71114E+03  2.11199E+03  5.15624E+02 -8.64027E+03
  2.71880E+03 -2.82136E+03  5.84842E+03 -2.50034E+03  4.10959E+03 -1.92440E+03  5.96009E+03  1.19782E+03
  4.86209E+02 -1.65327E+03  6.67216E+03  2.24516E+03 -2.32037E+03  7.17399E+03 -6.94908E+03  4.25523E+03
 -1.11588E+04 -3.72814E+03  1.55487E+02 -7.64408E+03 -2.58926E+03 -1.06440E+04  6.17699E+03 -1.39028E+04
  7.95076E+03 -6.41435E+03  9.56750E+03  1.18059E+02  5.60379E+03  7.61363E+03 -7.38922E+02  8.97925E+03
  1.59851E+03  4.30673E+03 -7.17482E+03  6.80714E+03 -1.06017E+03  2.17445E+03 -2.52472E+03 -3.95856E+01
  7.23443E+02  3.56738E+03 -4.16814E+03  4.92867E+03 -1.09139E+03  3.70811E+03 -1.00360E+04 -3.18942E+03
 -1.90881E+03 -8.05356E+03 -8.88889E+02 -9.31453E+03  9.92355E+03 -6.08462E+03  1.33463E+03 -2.25406E+03
  7.99016E+03  8.20477E+03  4.65192E+03  8.74674E+03 -3.23011E+03  1.33876E+04 -5.56881E+03  9.43177E+03
 -9.50353E+03  3.87175E+03 -1.01969E+04 -4.74314E+02  4.24668E+03 -7.88977E+03  6.25251E+03 -4.87981E+03
  3.79074E+03  1.62723E+02  5.85035E+03  2.48892E+03 -1.53101E+03  2.13035E+03  4.21633E+03  2.69968E+03
 -2.41460E+03  3.77197E+03 -1.45476E+03  1.86517E+02  2.26880E+03  9.85570E+03  1.81055E+03  2.29527E+03
  1.36357E+02  6.96081E+03 -4.16927E+03  1.01550E+04 -6.24665E+03  5.01989E+02 -1.45684E+04 -1.65628E+03
 -1.83485E+03 -4.27102E+03  1.85946E+02 -1.30152E+04  8.41798E+03 -4.25506E+03  6.88095E+03  3.29950E+02
  5.47512E+03  6.40455E+03  4.34151E+03  5.74500E+03 -2.16420E+03  7.00189E+03 -1.97387E+03 -7.84187E+02
 -6.00175E+03 -5.06227E+03  2.96247E+03 -7.21349E+03  3.45805E+03 -5.09092E+03  1.62721E+03  8.16962E+02
  3.69282E+03  4.24464E+03  5.46341E+03  3.71567E+03 -5.02135E+03  1.09468E+03  9.07850E+03 -3.04552E+03
 -9.93682E+02 -1.36340E+03  7.34967E+03 -2.48779E+03  2.01091E+03 -4.42648E+02  8.32523E+02  6.63100E+03
 -8.48863E+03  4.08707E+03 -4.65110E+03 -1.42864E+03 -4.99065E+03 -4.05667E+03 -6.13217E+03  7.16179E+02
 -3.27174E+03 -5.68719E+03  4.92916E+03  1.90903E+03  6.76023E+03 -1.71388E+03 -1.71614E+02  3.13106E+02
 -5.07765E+03  3.11575E+03 -4.06201E+03  4.82843E+02 -5.53216E+03 -6.46650E+03 -1.38102E+03 -6.91807E+02
 -9.07500E+02 -2.63696E+03  1.37644E+03  7.39779E+02  4.48096E+02  2.42241E+03 -6.75908E+02  3.46670E+03
 -4.90791E+03  4.22472E+03 -4.91924E+03  1.36765E+03  2.96801E+03 -7.67027E+03  1.22725E+03 -4.60386E+03
  5.83596E+03 -3.15285E+03  2.77549E+03  9.31009E+03  9.56539E+03  4.86182E+03  1.83617E+03  8.04054E+03
 -7.19403E+03  2.19697E+03 -8.38673E+03 -3.62475E+03  2.90371E+02 -3.22068E+03  3.63676E+03 -6.17443E+03
  6.90554E+03  1.60000E+03  2.32509E+03 -8.35197E+02  1.39167E+02  6.13717E+03 -6.67030E+02  5.58880E+03
 -3.15465E+03  4.41675E+03 -2.36667E+03  3.12359E+03 -2.83986E+02 -5.50966E+02 -2.43351E+03  3.24156E+03
 -1.71177E+03 -1.38643E+02 -7.73128E+03 -3.89853E+03 -8.01727E+03  9.03441E+02 -3.07227E+03 -4.55345E+03
 -4.38124E+02 -1.96693E+03  1.33970E+03 -9.00266E+03  3.60583E+03 -9.83020E+03  5.47051E+03 -2.92126E+03
  5.92822E+03 -3.55347E+03  5.58033E+03  7.43273E+03  3.75469E+03  7.14483E+03 -4.76947E+02 -2.32727E+02
 -1.20604E+03 -5.36444E+02  2.36431E+03 -7.46789E+02 -3.28990E+03  2.11033E+03  6.04457E+02  2.42252E+03
  8.60693E+02 -2.39201E+03 -1.80222E+03 -6.73740E+03 -1.87875E+03 -6.27066E+02  2.02575E+03 -3.76021E+03
  6.94570E+03 -7.00482E+02  2.86800E+03  1.44350E+01 -1.28645E+01  8.86225E+03  1.43151E+02  1.14565E+04
 -3.07460E+03  8.14207E+03 -3.83988E+03  3.66284E+03 -6.29845E+03 -5.86279E+03 -4.52663E+03 -9.51057E+03
  4.94711E+01 -4.60238E+02  3.96254E+03 -5.51756E+03  3.89634E+03 -6.74817E+02  6.27905E+03  1.66432E+03
  7.66752E+03  1.78954E+03 -1.24976E+03  2.29484E+03 -5.42749E+02 -2.22571E+03  4.08538E+03 -1.74672E+03
  1.60331E+03 -5.32379E+03  4.80546E+03  2.54265E+03 -2.47739E+03 -9.45396E+02 -5.66701E+03 -1.15835E+02
 -1.40386E+03  9.91460E+02 -4.50406E+03  1.28811E+03 -5.78329E+03 -4.04409E+03  1.17461E+03 -6.55034E+03
  3.55208E+03  2.39611E+02  4.29595E+03 -4.75360E+03  8.78607E+03  3.36069E+03  3.00581E+02 -4.76609E+02
  3.82677E+03  3.12378E+03 -1.57171E+03  4.83871E+03 -1.29171E+03  7.69679E+02  1.80300E+03 -3.69051E+03
 -9.00645E+03 -4.87591E+03  1.13125E+03  8.71646E+02 -6.20110E+02  1.87761E+03 -5.16351E+03  3.75656E+03
 -4.16035E+03 -1.86594E+02  3.13961E+03 -2.83366E+03 -1.36686E+03  1.91189E+03  2.09974E+03 -2.29953E+03
  1.45903E+03  6.23102E+03  4.35497E+03  1.29878E+03  1.14750E+01  4.30853E+03 -5.50044E+03  5.32071E+03
