 $NMID ID='MM_0lb_SNR50_11hz_g40_20.RAW', FMTDAT='(8E13.5)'
 TRAMP=1., VOLUME=1. $END
  3.09461E+05 -1.32152E+03  3.37506E+05  2.47150E+05  8.71732E+04  3.38152E+05 -1.35642E+05  2.50945E+05
 -1.96962E+05  7.87271E+04 -1.08292E+05 -3.38845E+04  6.02880E+03 -4.85885E+04  5.44026E+04  5.20481E+03
  3.67156E+04  5.18472E+04 -1.80428E+04  7.61878E+04 -5.86006E+04  6.35720E+04 -8.85687E+04  3.07938E+04
 -8.08833E+04 -5.09650E+03 -5.67975E+04 -5.29590E+04 -8.83000E+03 -7.07372E+04  3.33147E+04 -4.35750E+04
  3.96633E+04 -1.56218E+03  1.77394E+04  5.17808E+04 -3.16203E+04  4.74755E+04 -6.85131E+04 -3.30601E+03
 -5.28894E+04 -5.96786E+04 -2.49632E+03 -7.91035E+04  3.47871E+04 -5.67965E+04  4.84969E+04 -1.92263E+04
  4.42110E+04  1.48006E+04  3.28911E+04  2.58358E+04  1.98400E+04  2.65134E+04 -4.35777E+03  2.35582E+04
 -2.49473E+04  1.07501E+04 -1.69272E+04 -5.76267E+03  7.01577E+03 -9.00993E+03  2.22645E+04  1.86485E+04
  1.01552E+04  3.30201E+04 -3.17651E+04  3.24821E+04 -6.46934E+04 -8.90713E+02 -5.47788E+04 -4.11327E+04
 -1.04697E+04 -6.59147E+04  4.48498E+04 -4.89488E+04  6.16330E+04 -1.74618E+03  3.48333E+04  3.10049E+04
 -6.99922E+03  4.18117E+04 -3.57571E+04  1.89102E+04 -3.14560E+04 -6.03526E+03 -1.62860E+04 -1.16815E+04
 -9.30452E+03 -1.47159E+04 -3.81641E+03 -1.76298E+04  1.33552E+04 -2.84512E+04  1.39419E+04 -1.04576E+04
  8.10759E+03  7.72076E+03 -1.20398E+04  1.60085E+04 -2.37019E+04 -3.15392E+02 -8.86713E+03 -3.93526E+04
  2.19750E+04 -4.60648E+04  5.36925E+04 -1.83284E+04  4.01367E+04  2.11537E+04  1.73954E+04  4.45256E+04
 -1.17678E+04  3.37754E+04 -2.56013E+04  6.48390E+03 -9.31894E+03 -2.67439E+04  1.56345E+04 -3.50783E+04
  4.51785E+04 -1.28753E+04  3.99487E+04  2.34201E+04  1.53972E+04  4.39315E+04 -9.85775E+03  5.21066E+04
 -3.23635E+04  3.66316E+04 -4.46653E+04  6.06090E+03 -4.14196E+04 -1.79145E+04 -2.91191E+04 -3.76496E+04
  9.93830E+03 -4.18307E+04  3.52752E+04 -1.22285E+04  2.61181E+04  1.20603E+04  9.80484E+03  2.13667E+04
 -1.29596E+04  8.90735E+03 -1.41592E+04 -4.03498E+03  6.46241E+03 -1.05408E+04  2.03617E+04  5.85128E+03
  1.67146E+04  2.17076E+04 -1.15054E+04  2.47420E+04 -2.51340E+04  1.37695E+04 -2.82876E+04 -5.28485E+03
 -2.51969E+04 -2.12013E+04 -6.22492E+03 -2.08853E+04  1.45630E+03 -2.40638E+04  1.38143E+04 -1.86167E+04
  2.56764E+04 -1.42385E+04  3.81322E+04  5.22221E+03  2.62561E+04  2.12207E+04  3.08308E+03  3.94982E+04
 -1.74836E+04  2.65282E+04 -2.74890E+04  4.15661E+03 -2.53879E+04 -7.95002E+03 -8.16642E+03 -1.16582E+04
  4.57170E+03 -7.32046E+03 -5.02755E+03  6.41760E+03 -1.36877E+04  2.50595E+03 -1.34157E+04 -3.27843E+03
 -8.00252E+03 -1.56883E+04  7.21759E+03 -2.77270E+04  1.50770E+04 -1.57119E+04  1.59988E+04 -1.52842E+03
  1.32199E+04  1.41637E+04 -1.83474E+03  1.90236E+04 -1.58880E+04  1.92343E+04 -2.46509E+04 -3.64038E+03
 -1.52296E+04 -1.57765E+04  2.94723E+03 -2.87127E+04  9.07561E+03 -1.87593E+04  1.84820E+04 -8.37137E+03
  2.20628E+04 -1.35092E+02  1.19816E+04  5.65942E+03  8.84702E+03  2.90599E+03  1.73806E+04  3.71605E+03
  1.81354E+04 -7.64399E+01  1.90368E+04  1.90342E+04  1.27739E+04  3.26930E+04 -3.07631E+03  3.81756E+04
 -2.29681E+04  3.17528E+04 -3.67042E+04  1.89218E+04 -3.51567E+04 -2.83060E+02 -3.08433E+04 -2.33534E+04
 -1.53272E+04 -3.70579E+04  9.40203E+03 -2.46645E+04  2.67607E+04 -1.45732E+04  1.79299E+04  5.94918E+03
  8.61795E+03  1.48278E+04 -1.16449E+04  1.49803E+04 -1.78718E+04  8.13165E+03 -1.03781E+04 -1.34794E+04
  2.22081E+03 -1.85360E+04  1.01339E+04 -1.46541E+04  1.16313E+04 -3.06481E+02  8.44083E+02  1.04599E+04
 -9.90226E+03  4.34701E+03 -9.60287E+03 -5.94046E+03  1.50137E+03 -1.62632E+04  8.34176E+03 -1.58921E+04
  2.20428E+04 -4.99366E+03  2.18068E+04  3.06763E+03  1.86870E+04  1.58781E+04  3.37459E+03  2.24649E+04
  5.11708E+02  2.64058E+04 -1.65220E+04  1.53509E+04 -1.74409E+04  6.25964E+02 -8.81861E+03 -5.48964E+03
 -6.56053E+02 -4.51836E+03  2.55705E+03  3.37012E+01  6.72279E+01  3.64949E+03 -4.80570E+03  1.63692E+03
 -8.70003E+03  1.09950E+03 -9.70141E+03 -1.21551E+04  8.69850E+02 -9.97066E+03  6.61767E+03 -1.66820E+04
  1.03436E+04 -5.31218E+03  8.87393E+03  7.13483E+03 -1.99096E+03  4.64784E+03 -4.58898E+03  7.56290E+03
 -6.37942E+03 -1.03683E+04 -5.01647E+03 -1.34785E+04  5.84471E+03 -1.26548E+04  2.04531E+04 -3.01321E+03
  1.82819E+04  5.52765E+03  1.43018E+04  1.06710E+04 -1.76182E+03  1.35868E+04 -1.00835E+04  9.70594E+03
 -1.55409E+04  2.32539E+03 -9.36144E+03 -2.95632E+03  2.00972E+03  1.35860E+03  3.08966E+03 -4.27263E+02
  3.89779E+03  1.91399E+03  2.69677E+03  1.04260E+04 -4.20848E+03  5.87477E+03 -1.06815E+04  3.36670E+03
 -5.76158E+03 -7.98514E+03 -1.29463E+03 -6.45082E+03  7.69345E+03 -9.20921E+03  9.87265E+03  2.79185E+03
  1.22251E+02  8.25241E+03 -7.25711E+03  1.31059E+04 -1.53985E+04  4.41310E+03 -1.09053E+04 -2.50653E+03
 -8.06388E+03 -1.40742E+04  4.54959E+03 -1.53231E+04  9.67840E+03 -1.03764E+04  1.37650E+04 -1.57203E+03
  7.54494E+03  1.43319E+04 -3.63510E+03  1.04511E+04 -1.37415E+04  6.61140E+03 -1.44456E+04  6.70555E+02
 -7.56412E+03 -9.39111E+03 -8.27063E+02 -9.11633E+03  7.45622E+03 -8.70436E+03  8.03500E+03  4.40249E+01
  5.12664E+03  2.27622E+03 -1.61268E+03  1.20152E+03 -1.12208E+03 -3.17789E+02 -1.71795E+02 -7.17166E+03
  9.59430E+03 -4.94749E+03  1.40496E+04  6.76168E+03  1.26023E+04  1.32289E+04  2.85101E+03  1.84240E+04
 -3.53311E+03  1.92416E+04 -1.77358E+04  1.68015E+04 -1.67790E+04  9.61384E+03 -1.84048E+04 -6.82629E+03
 -1.00439E+04 -1.27308E+04 -8.34320E+03 -1.20230E+04 -4.10674E+03 -6.55044E+03  1.11512E+04 -4.04196E+03
  3.41914E+03 -2.72441E+03 -6.73292E+01 -6.33875E+02  2.05520E+03 -7.24214E+03  2.97581E+03 -7.43834E+01
  1.43172E+04  2.39055E+03  4.86365E+03  6.37600E+03 -4.40918E+03  9.33305E+03 -1.16923E+04  4.99537E+03
 -1.28850E+04  2.95882E+03 -7.68708E+03 -7.94681E+03 -2.88259E+03 -6.65306E+03  9.74045E+03 -1.38489E+04
  8.78093E+03 -1.01260E+04  1.36614E+04  3.15041E+03  9.47824E+03  6.60691E+03  5.93988E+03  1.11168E+04
 -7.23191E+03  1.15598E+04 -3.84417E+03  4.09674E+03 -1.98734E+03  4.53728E+03 -3.95879E+03  1.61341E+03
 -5.34300E+03 -3.95840E+03 -7.67016E+03 -4.03319E+02  4.83313E+03  3.81860E+03 -8.50366E+03  1.62071E+03
 -2.38400E+03 -8.07393E+03  8.56896E+02 -9.72741E+03  5.92447E+03 -1.04169E+04  1.24039E+04  4.12413E+02
  1.44622E+04  5.12791E+03  3.58932E+03  1.51290E+04 -1.14512E+03  1.04193E+04 -4.19377E+03  6.42352E+02
 -1.43126E+04 -1.32004E+03 -9.20314E+03 -8.69933E+03 -3.68870E+03 -1.19288E+04  2.20585E+03 -6.75222E+03
  1.17959E+04 -6.27008E+03  4.04465E+03  4.38283E+02  1.49274E+03  6.28429E+03 -3.73585E+03  1.88768E+03
  6.64265E+03  1.20801E+03  3.53667E+03  5.75955E+03  1.03456E+03  8.07836E+03  4.48537E+03  9.60343E+03
 -6.36895E+03  5.04438E+03 -6.90330E+03  1.43150E+04 -1.51790E+04 -6.29852E+02 -9.67493E+03 -7.95398E+03
 -5.76905E+03 -9.63419E+03  1.58601E+03 -1.43986E+04  4.89451E+03 -1.77001E+02  8.48182E+03  2.79198E+03
  4.95047E+03  1.74120E+03  4.70502E+03  4.85735E+03  1.27296E+03  5.23109E+03 -4.87300E+03  1.83565E+03
  4.99382E+03 -1.31196E+03  4.59342E+03 -1.10326E+04  1.41079E+03 -5.52719E+03  4.63984E+03 -6.81904E+02
  4.81457E+03 -3.42896E+03  6.16071E+02  3.53352E+03 -1.04462E+03 -4.35110E+02 -2.06222E+02 -2.57107E+03
 -1.78225E+03 -2.05368E+03  1.01625E+04  1.04798E+02  6.32628E+03  7.95345E+03 -1.62407E+03 -6.24536E+02
 -6.79822E+03  6.15157E+03 -5.65086E+03 -1.25685E+03 -3.58129E+03 -6.03473E+03  4.14028E+03 -4.07176E+03
  4.87993E+02 -1.35999E+03  9.64297E+03  1.00417E+03  2.34862E+02 -3.30236E+03  1.69806E+03  7.83524E+03
 -8.45062E+03  2.60145E+03 -5.26994E+03 -1.18769E+03 -3.12658E+03 -8.58176E+03 -1.84338E+03 -6.47422E+03
  5.22768E+03 -2.67986E+03  1.58020E+03  2.40693E+03  1.62890E+03 -2.90444E+03  6.50067E+03  3.89701E+03
 -6.91648E+03 -3.77288E+02 -1.02222E+03 -8.44174E+02 -4.53618E+03 -1.03921E+03  3.48444E+03 -1.06041E+03
  6.52300E+03 -1.02314E+03  1.08185E+04  2.44052E+03  4.59170E+03  1.54036E+03 -1.26507E+03  1.13637E+03
 -7.50671E+03  1.23435E+03 -2.48881E+03 -3.94682E+03 -3.75628E+03 -4.61469E+03  3.20146E+03 -1.19935E+03
  7.04287E+03  1.92231E+03  6.42613E+03  5.34419E+03 -4.47835E+02  9.73729E+03  5.25401E+03  4.56572E+03
 -3.69814E+03  7.36407E+03 -2.72595E+03 -4.72833E+03 -1.01650E+03  3.64244E+03  3.66303E+03  4.36986E+03
 -5.62880E+03  1.92506E+01 -6.15179E+03  1.33206E+03 -4.65571E+03  4.35205E+02 -8.17096E+03 -2.14213E+03
 -6.14346E+03 -1.03927E+04 -9.51473E+02 -1.03045E+04  7.43384E+03 -8.79719E+03  1.12641E+04 -3.29364E+03
  7.56962E+03  5.09228E+03  4.21839E+03  5.86697E+03 -6.83898E+02  1.03174E+04 -3.40020E+03  5.00751E+03
  1.58468E+03  4.41743E+03 -2.43443E+03 -7.47179E+03  8.14277E+01 -1.64964E+03  2.12872E+03 -8.72523E+02
 -5.59112E+03  1.02705E+03 -3.58692E+02  5.01129E+03  8.16003E+02  3.28880E+03 -6.24495E+03 -3.22833E+03
  5.96205E+03 -8.27144E+02  2.34362E+02 -3.55688E+03  1.78100E+03 -1.58615E+03  3.32091E+03  8.64876E+03
 -2.26284E+03  6.32715E+03 -9.83373E+03  5.43998E+03 -5.56933E+03  1.63777E+02 -1.21368E+04 -4.52931E+03
 -3.29949E+03 -1.05371E+04  4.13868E+03 -5.27840E+03  1.97423E+03  4.37732E+03  5.59370E+03 -1.75279E+03
 -1.39940E+03  2.84251E+03  1.70529E+03  4.71787E+03 -3.51383E+03 -3.24318E+03 -5.21296E+02 -1.01165E+03
  2.72149E+03 -8.07026E+01  2.95106E+03  2.24752E+03  5.41820E+03  3.48194E+03 -2.63998E+03  2.72096E+03
 -4.00481E+03  2.45152E+03 -2.78602E+03  9.60096E+02 -6.86680E+03 -1.47061E+03 -2.34568E+02 -9.26861E+03
  2.66090E+03 -4.65893E+03  9.35525E+03 -3.57887E+03  2.73379E+03 -3.84771E+03 -5.26199E+03  2.12449E+03
 -1.24796E+03  4.54340E+03 -5.01362E+03  8.75186E+03 -3.82455E+03  1.59909E+03 -4.89737E+03  2.24173E+03
  5.06952E+02 -2.99916E+03  2.43031E+03  1.54344E+03 -2.05615E+03  1.68492E+02 -8.54892E+03 -2.33498E+03
 -6.47329E+03 -2.19705E+03  3.56017E+03 -4.26611E+03  4.10509E+03 -6.12256E+03  2.52780E+03 -8.70476E+03
  3.32266E+03 -3.02183E+03 -2.21103E+03  2.84878E+03  1.73233E+03  7.92557E+03 -4.29249E+03 -1.40620E+03
