 $NMID ID='MM_0lb_SNR50_19hz_g45_8.RAW', FMTDAT='(8E13.5)'
 TRAMP=1., VOLUME=1. $END
  3.10476E+05  1.13728E+03  3.35633E+05  2.51209E+05  8.76457E+04  3.37712E+05 -1.32449E+05  2.50153E+05
 -1.93527E+05  7.98048E+04 -1.15306E+05 -3.03528E+04  2.57407E+03 -4.90645E+04  5.11494E+04 -4.65412E+03
  3.62737E+04  5.46454E+04 -1.52937E+04  7.50593E+04 -5.94668E+04  6.35981E+04 -8.36266E+04  3.23559E+04
 -7.60102E+04 -1.19894E+04 -5.48612E+04 -4.92148E+04 -1.59537E+04 -7.08158E+04  2.82498E+04 -4.52158E+04
  3.75958E+04  4.34842E+03  1.81008E+04  5.24881E+04 -3.35601E+04  4.39694E+04 -6.45313E+04  2.00239E+03
 -5.28216E+04 -5.39974E+04 -7.44764E+03 -7.18368E+04  3.40971E+04 -4.74412E+04  4.82870E+04 -1.57507E+04
  3.74685E+04  1.15386E+04  2.60446E+04  2.06191E+04  1.42844E+04  3.10523E+04 -1.65431E+03  2.84663E+04
 -2.64665E+04  1.60733E+04 -2.05686E+04 -7.45857E+02  5.30948E+03 -5.25445E+03  2.31116E+04  1.15486E+04
  5.00299E+03  3.30735E+04 -3.01436E+04  3.36239E+04 -6.57508E+04  3.04302E+03 -5.40992E+04 -4.41352E+04
 -1.18645E+04 -5.63446E+04  4.03564E+04 -4.09116E+04  5.56954E+04 -2.17672E+03  3.12680E+04  3.27036E+04
 -7.65684E+03  3.70100E+04 -2.75290E+04  1.15738E+04 -2.84931E+04 -9.30681E+03 -1.52061E+04 -1.43295E+04
 -5.39650E+03 -9.38857E+03  2.06224E+02 -2.01416E+04  7.82149E+03 -2.42177E+04  1.48952E+04 -1.52633E+04
  1.14676E+04  6.91803E+03 -7.27944E+03  1.23379E+04 -2.15818E+04  2.88734E+03 -7.28489E+03 -3.09701E+04
  1.91074E+04 -3.98791E+04  4.73879E+04 -1.63280E+04  3.80236E+04  1.72055E+04  1.35829E+04  4.05022E+04
 -1.56696E+04  3.03861E+04 -2.44157E+04 -4.82241E+03 -7.87575E+03 -2.22754E+04  2.16646E+04 -3.47591E+04
  4.37489E+04 -9.49465E+03  3.28700E+04  2.14143E+04  1.74510E+04  4.39966E+04 -5.56168E+03  4.42752E+04
 -2.77126E+04  3.23430E+04 -3.71076E+04  8.21351E+03 -3.45691E+04 -1.71048E+04 -2.07825E+04 -3.16257E+04
  5.90488E+03 -3.50829E+04  2.89733E+04 -1.40438E+04  2.57266E+04  8.16817E+03 -1.79509E+03  1.91176E+04
 -1.15019E+04  8.59703E+03 -9.73568E+03 -7.02658E+03  6.05058E+03 -1.20663E+04  1.66982E+04  5.91472E+03
  1.07442E+04  2.12313E+04 -4.82456E+03  2.25650E+04 -2.05112E+04  8.57568E+03 -2.67285E+04 -4.85540E+03
 -1.82493E+04 -1.84507E+04 -6.86043E+03 -1.81465E+04  4.89364E+03 -1.40556E+04  1.04294E+04 -1.72319E+04
  2.15365E+04 -1.01615E+04  2.81158E+04  1.02571E+03  2.13488E+04  1.76420E+04  7.96601E+03  3.28776E+04
 -1.46963E+04  2.54312E+04 -2.51802E+04  1.03953E+04 -2.49304E+04 -9.97950E+03 -4.64261E+03 -1.06884E+04
  2.92937E+03 -3.77774E+03 -6.22008E+03  5.28246E+03 -1.53451E+04  6.08280E+03 -8.50517E+03 -5.41337E+03
 -1.26323E+04 -1.59752E+04  2.57513E+03 -1.66165E+04  9.91946E+03 -1.27805E+04  1.69809E+04 -9.72268E+02
  8.07975E+03  8.20672E+03  1.15170E+03  1.21360E+04 -1.26485E+04  6.32938E+03 -1.46489E+04  7.85347E+02
 -1.02338E+04 -1.39705E+04 -1.76813E+03 -1.68510E+04  8.47933E+03 -1.18654E+04  1.41481E+04 -5.37626E+03
  1.17509E+04 -1.74886E+02  1.66872E+04  5.77091E+03  1.59185E+03  2.87859E+03  1.10629E+04 -3.75769E+03
  1.53776E+04  4.38707E+03  9.52478E+03  1.17902E+04  5.96259E+03  2.13893E+04 -7.33024E+03  2.88418E+04
 -1.40039E+04  1.71789E+04 -2.13552E+04  8.97500E+03 -2.19682E+04 -5.13318E+03 -2.17010E+04 -1.42998E+04
 -1.13614E+04 -1.86100E+04  7.84680E+03 -1.72774E+04  1.93816E+04 -1.13304E+04  1.53660E+04  1.43401E+03
  4.94341E+03  9.71958E+03 -6.94144E+03  1.00263E+04 -1.02168E+04  4.76378E+03 -1.30092E+04 -6.77536E+03
 -3.70180E+03 -1.23235E+04  7.51961E+03 -1.15175E+04  7.51873E+03  1.68849E+03  4.43860E+02  3.88604E+03
 -4.50524E+03  3.21832E+03 -5.57041E+03 -5.05273E+03  6.57281E+02 -8.89429E+03  6.79958E+03 -8.56044E+03
  1.01231E+04 -3.88649E+03  1.08522E+04  5.51668E+03  8.78963E+03  2.84579E+03  6.34001E+03  1.26366E+04
 -1.10046E+03  1.18631E+04 -6.79646E+03  1.17997E+04 -1.34869E+04  3.15838E+03 -8.05674E+03 -5.01861E+03
 -5.83747E+02 -1.25340E+03 -5.84795E+01  4.02402E+03 -3.70037E+03  1.56594E+02 -2.17790E+03  3.01383E+03
 -1.14797E+03  7.26646E+00 -5.47113E+03 -7.31237E+03 -2.38991E+03 -1.19902E+04  4.41825E+03 -4.03227E+03
  5.42063E+03 -6.03079E+03  6.10278E+03  1.77403E+03  3.74918E+03 -4.43950E+02 -4.31392E+03 -1.43984E+03
 -4.41106E+03 -2.37645E+03 -1.95908E+03 -1.18182E+04 -6.81179E+02 -8.37567E+03  9.61469E+03 -6.02995E+03
  1.04712E+04 -5.92768E+02  1.01938E+04  1.59623E+03 -3.54220E+03  1.03200E+04 -1.59671E+03  5.20605E+03
 -5.19182E+03  1.51597E+03 -6.00336E+03  9.28369E+02  2.09673E+03  2.89432E+02  7.10565E+03 -3.56241E+03
  7.62435E+03  4.09258E+03 -8.88699E+02  2.01490E+03 -3.93998E+03  5.40152E+03 -4.96718E+03  2.24723E+03
 -4.25745E+03 -5.50780E+02 -3.03459E+02 -2.54793E+03  3.81903E+03 -3.05286E+03  5.80864E+03  3.04680E+03
  2.38100E+03  2.29110E+03 -8.92490E+03  4.05123E+03 -4.68533E+03  3.85891E+03 -5.17094E+03 -3.05069E+03
 -3.05080E+03 -4.35708E+03 -7.46833E+02 -5.46334E+03  2.90187E+03 -7.73214E+03  5.00874E+03 -1.52257E+02
  3.49412E+03  8.42509E+03 -2.77797E+03  4.68829E+03 -4.41965E+03  2.11424E+03 -3.37692E+03 -8.98487E+02
 -3.45886E+03 -8.98946E+03  2.07112E+03 -3.05609E+03  4.15601E+03 -6.31831E+03  4.51529E+03 -6.08078E+02
  4.26577E+03  3.07543E+02  3.92639E+03  1.37867E+03 -3.19258E+03  3.99295E+03  7.49749E+02 -1.64680E+03
  5.57376E+03 -3.08451E+03  5.12798E+03  3.90729E+03  6.26186E+03  2.42206E+03  7.14047E+03  6.29225E+03
 -2.03862E+02  4.12442E+03 -1.09003E+04  5.34357E+03 -1.15845E+04 -1.14502E+03 -4.82336E+03 -3.73185E+03
  1.15886E+03 -6.62505E+03 -1.47420E+03 -2.66909E+03 -2.19749E+03  2.83502E+02 -1.35577E+03  1.12133E+03
  4.43004E+03 -1.20069E+03  1.60457E+03 -2.98408E+03  2.24539E+03 -3.81244E+03  5.59008E+03 -2.46851E+03
  6.79103E+03  2.27857E+03  5.47883E+03  5.08758E+03 -6.34816E+03  2.63281E+03 -6.38466E+03  1.19135E+03
 -4.38006E+03 -3.08999E+03 -8.89333E+02 -4.00882E+03  1.35985E+03 -4.11333E+03  7.86490E+02 -5.01169E+03
  3.12389E+03 -4.21574E+03  9.12534E+03  2.61663E+03  2.51504E+03  2.96290E+03  2.33333E+03  4.93489E+03
  1.28057E+03  6.41130E+03 -2.35741E+03  1.37490E+02 -6.90516E+02  9.85190E+02 -2.58453E+03  2.45649E+03
 -1.82760E+03  2.15870E+03 -2.38457E+03 -1.38935E+03 -3.17626E+03 -1.73222E+03  1.09221E+02 -2.50353E+03
 -4.87536E+03 -3.96038E+03  2.36069E+03 -8.67602E+03 -9.94992E+02 -5.22542E+03  5.16617E+03 -3.65574E+03
  4.41167E+02  2.78654E+03  1.08085E+03  1.83323E+03 -1.01834E+03  4.66780E+03 -4.35896E+03  1.95503E+03
 -3.09621E+03 -2.42921E+03 -4.51614E+03 -1.92562E+03 -3.56693E+03 -5.46362E+03  6.14003E+03 -3.07213E+03
  1.24273E+03 -3.16171E+03  4.27386E+03  1.83149E+03  1.41351E+03  2.15601E+03 -1.35378E+03  1.75115E+03
  1.75449E+03  2.62322E+03 -2.23877E+03 -8.17199E+02 -2.36864E+03  2.97812E+03  3.25478E+03  4.05609E+03
 -1.66119E+03  5.96799E+02 -4.10039E+03  7.73123E+03 -1.41322E+03 -5.74532E+02 -2.55270E+03  3.17210E+03
 -1.11762E+03 -1.61303E+03  3.70731E+02 -5.86443E+03  3.21670E+03 -3.11824E+03  3.25686E+03 -4.41116E+02
  1.93442E+03  6.51025E+03  5.43946E+03  3.40416E+03  1.78675E+03  3.88375E+03  3.00425E+03 -2.77587E+03
 -2.60830E+03 -4.60124E+03  2.67939E+02  2.07085E+03  5.97635E+03 -2.36525E+03  1.50766E+03 -5.54416E+02
  4.64010E+03 -3.42570E+03 -2.53173E+03  2.37005E+03  9.00628E+01  7.05821E+01  3.65148E+03 -3.55191E+03
 -1.72238E+03  5.43418E+02 -8.47461E+02  1.14098E+03  4.36402E+02  3.11517E+03  8.22408E+01 -9.91640E+02
 -3.43094E+02  4.76802E+03 -5.88553E+02 -6.63685E+03 -2.49586E+03  1.50780E+03 -1.53461E+03  2.39205E+03
  2.35835E+03  1.29334E+03  6.28997E+02  2.00835E+03 -2.20271E+03 -2.26100E+01 -3.26602E+03 -9.60867E+02
 -3.13597E+03 -1.72468E+03 -7.31877E+02 -1.82723E+03 -6.39119E+02 -9.32362E+02  3.65505E+01 -4.03644E+03
  3.87827E+03  7.22360E+02  2.28479E+03  2.55050E+03 -1.21283E+03 -7.46377E+02 -7.67604E+02  4.36857E+03
 -1.42981E+03  2.56447E+03  6.30311E+02  4.22239E+03  4.16609E+03 -1.25756E+01 -1.01801E+03  7.52515E+02
 -3.15508E+03  1.01417E+03  1.19415E+03  1.64691E+03 -6.81727E+02  2.30565E+03  4.13593E+02  2.18705E+03
 -1.82035E+03  9.53901E+02  2.66061E+02  1.49163E+03  3.02917E+03 -3.49104E+03 -4.50001E+03 -1.33547E+03
  5.15531E+03  1.70277E+03 -4.13775E+02  1.07221E+03  2.40309E+03 -3.13032E+03 -1.99989E+03  4.62958E+03
  1.34551E+03  2.12153E+03 -3.00127E+03 -9.53443E+02 -2.30351E+03 -1.83135E+02 -5.53602E+02 -3.61869E+03
 -2.75533E+03  3.83128E+03 -5.13421E+02  1.28808E+02 -3.69512E+02  2.02337E+03 -5.28585E+03 -1.29803E+03
  2.69384E+03 -2.10353E+03 -2.26114E+03 -4.11382E+03  3.19142E+03 -3.89885E+03  4.76912E+03 -2.34002E+03
  1.36573E+03  1.43393E+03  6.16278E+02  2.50744E+03 -3.06380E+03  5.67129E+02 -5.98674E+01  2.60952E+03
 -1.76405E+03  1.01483E+03 -1.21141E+03  3.52188E+02 -2.91710E+03  2.17287E+03 -3.02530E+00 -1.37729E+01
 -1.87116E+03 -1.29893E+02 -5.12060E+03 -3.46559E+03 -1.43708E+03  1.94968E+03 -3.94231E+03 -7.43364E+02
  4.53523E+03 -3.49727E+02 -5.74423E+02 -2.08115E+02  1.44658E+03  1.31312E+03  2.41119E+02  4.57745E+02
 -3.52000E+03  5.21359E+03  1.23450E+03 -2.74286E+03 -2.63986E+03 -1.42443E+03  1.72688E+03 -2.04676E+02
  7.36536E+02 -7.44313E+02  2.02208E+03  5.87040E+01  5.62092E+02  1.29713E+03 -3.85182E+02 -1.75724E+03
  5.09900E+02 -1.43057E+03 -2.82489E+00  6.36709E+02  4.19491E+02  1.16724E+03  1.06840E+03  6.16055E+02
  1.55987E+03 -4.30532E+03  4.24456E+03 -1.97996E+03  2.46722E+03 -2.26036E+03 -7.53970E+02 -1.68410E+03
 -2.04415E+03 -2.96744E+03 -3.54614E+03 -7.60745E+02 -6.15201E+02  2.07538E+03 -3.58497E+03 -1.09435E+03
  1.19317E+03  7.46303E+02  2.91870E+03  2.08282E+02 -1.62550E+03 -2.33708E+03  1.13271E+02  1.67737E+03
 -1.14418E+03  2.96916E+03  2.36873E+02 -2.42316E+03 -5.05985E+03  3.76171E+03 -2.10331E+03 -5.52257E+02
  2.02176E+03 -4.79928E+03 -4.65855E+03  1.00086E+03  2.42029E+03 -1.93249E+03 -5.58625E+03 -2.73240E+03
  2.48137E+03 -3.21355E+03 -6.28907E+00 -5.65613E+02 -1.42061E+03 -4.12017E+03  8.83934E+01  1.27363E+03
 -7.25874E+02 -3.24293E+03  1.64943E+03 -1.94028E+03 -3.87582E+03 -3.08466E+03 -1.94007E+03  2.77315E+03
