 $NMID ID='MM_0lb_SNR50_9hz_g45_16.RAW', FMTDAT='(8E13.5)'
 TRAMP=1., VOLUME=1. $END
  3.10273E+05  1.94945E+03  3.36984E+05  2.47367E+05  9.02200E+04  3.36193E+05 -1.30555E+05  2.51899E+05
 -1.98457E+05  7.80849E+04 -1.14137E+05 -3.45269E+04 -2.82495E+03 -5.14462E+04  6.17424E+04  1.42648E+03
  3.43351E+04  5.29490E+04 -1.45983E+04  7.67660E+04 -5.96232E+04  6.36235E+04 -8.56771E+04  3.07134E+04
 -8.58137E+04 -1.13049E+04 -5.98703E+04 -5.08457E+04 -1.86683E+04 -6.67356E+04  2.84132E+04 -4.78400E+04
  3.40685E+04  2.32074E+03  1.38842E+04  4.37331E+04 -3.71062E+04  5.42834E+04 -6.72793E+04  4.07691E+02
 -5.53923E+04 -5.94347E+04 -9.21293E+03 -7.61845E+04  3.05115E+04 -6.12465E+04  4.96112E+04 -1.13344E+04
  4.40548E+04  1.31904E+04  2.95630E+04  2.63915E+04  1.18426E+04  3.14614E+04 -3.65408E+03  2.71619E+04
 -1.85726E+04  1.37442E+04 -1.85810E+04 -7.96245E+03  4.04783E+03 -7.88617E+03  2.37004E+04  1.93480E+04
  1.00340E+04  3.10541E+04 -3.44191E+04  3.88306E+04 -6.33058E+04  4.15968E+03 -5.48706E+04 -3.90858E+04
 -1.75077E+04 -6.97593E+04  4.66833E+04 -4.36632E+04  6.11216E+04  2.90908E+03  4.09251E+04  3.19480E+04
 -8.37013E+03  4.51972E+04 -2.91131E+04  1.42316E+04 -2.94685E+04 -6.28681E+03 -1.59741E+04 -1.77769E+04
 -9.51324E+03 -2.08794E+04 -3.23061E+03 -2.57035E+04  4.46018E+03 -2.32088E+04  1.52649E+04 -9.11927E+03
  8.86577E+03  3.82687E+03 -1.05250E+04  1.31920E+04 -2.07373E+04 -9.71974E+03 -5.68872E+03 -3.93552E+04
  2.84915E+04 -4.56879E+04  5.28182E+04 -2.07769E+04  5.10962E+04  2.77468E+04  1.77122E+04  4.61700E+04
 -2.02348E+04  3.73538E+04 -2.82302E+04 -7.53292E+03 -3.91971E+03 -2.28731E+04  2.22781E+04 -3.82202E+04
  4.75684E+04 -7.00404E+03  3.89043E+04  3.26558E+04  2.32003E+04  5.27734E+04 -1.00233E+04  5.45085E+04
 -3.73687E+04  4.27451E+04 -4.75789E+04  1.51771E+04 -3.83020E+04 -1.61344E+04 -2.71236E+04 -3.95495E+04
  6.19751E+03 -4.55670E+04  3.41906E+04 -1.96191E+04  3.33987E+04  1.19526E+04  8.06802E+03  1.96986E+04
 -2.12249E+04  9.76037E+03 -1.37977E+04 -1.17102E+04  6.12512E+03 -1.05342E+04  1.59727E+04  6.31922E+03
  1.33559E+04  1.94927E+04 -5.53052E+03  2.86585E+04 -2.50305E+04  1.31795E+04 -2.89095E+04  1.22944E+02
 -2.46634E+04 -1.75551E+04 -1.16325E+04 -1.99798E+04  4.06531E+03 -2.38710E+04  2.02340E+04 -3.12303E+04
  2.96537E+04 -1.08872E+04  3.29498E+04  7.22442E+03  2.74148E+04  2.06661E+04  4.22245E+03  4.07064E+04
 -2.23452E+04  2.49444E+04 -3.01848E+04  6.61089E+03 -2.12291E+04 -7.61179E+03 -8.14987E+03 -6.27917E+03
 -4.07057E+03  3.71701E+03 -1.45492E+04  4.32475E+03 -2.24003E+04  1.19571E+04 -1.83793E+04 -7.82061E+03
 -6.42132E+03 -2.25394E+04 -9.74417E+02 -2.88443E+04  1.27529E+04 -1.77281E+04  2.77378E+04 -1.90889E+03
  1.72475E+04  1.75194E+04  1.87378E+03  1.87031E+04 -1.19996E+04  1.51307E+04 -1.96620E+04 -1.32318E+03
 -8.90186E+03 -1.77706E+04 -4.90679E+03 -2.97629E+04  1.18068E+04 -2.82721E+04  2.08223E+04 -5.66356E+03
  2.28005E+04 -6.18064E+03  1.57251E+04  7.64558E+03  9.67225E+03 -6.20871E+03  1.00837E+04 -1.10774E+03
  1.54915E+04  4.41146E+03  2.23182E+04  2.02876E+04  1.45207E+04  4.01848E+04 -2.63030E+03  4.18635E+04
 -2.06957E+04  3.11085E+04 -3.98475E+04  1.50742E+04 -4.29239E+04 -1.10117E+04 -3.71106E+04 -2.12358E+04
 -1.84800E+04 -3.68130E+04  1.47193E+04 -3.04901E+04  2.49848E+04 -1.69713E+04  2.39922E+04  6.34778E+03
  9.61919E+03  1.64451E+04 -8.85230E+03  1.63792E+04 -2.08550E+04  6.92512E+02 -1.37146E+04 -1.37394E+04
  4.92694E+03 -1.91875E+04  1.78872E+04 -1.04983E+04  1.58225E+04  1.39224E+03  8.17590E+03  9.30538E+03
 -8.06241E+03 -2.61773E+03 -1.46416E+04  2.06446E+03 -3.04785E+03 -1.76805E+04  1.51580E+04 -1.48758E+04
  2.37562E+04 -1.44742E+04  2.61841E+04  3.59788E+03  2.03655E+04  1.61667E+04  8.47846E+03  2.71243E+04
 -5.39147E+03  2.32155E+04 -2.39644E+04  1.21325E+04 -2.03025E+04  7.09919E+03 -1.69243E+04 -3.65047E+03
 -6.43330E+03 -3.50504E+02  1.71553E+02  7.72525E+02 -3.11333E+03  1.63094E+03 -8.70640E+03  7.90304E+02
 -1.13565E+04 -4.76656E+03 -1.70553E+04 -6.36684E+03 -9.21405E+03 -2.02433E+04  8.12232E+03 -1.79979E+04
  1.62567E+04 -1.04001E+04  1.22890E+04  3.62216E+03 -3.02358E+03  1.24488E+04 -6.36733E+03 -1.23096E+03
 -6.32921E+03 -5.90837E+03 -3.48476E+03 -1.15544E+04  8.05098E+03 -2.27094E+04  1.96583E+04 -1.14166E+04
  2.70786E+04  4.40365E+03  2.13121E+04  1.94894E+04  4.13975E+02  2.42939E+04 -5.76976E+03  1.80052E+04
 -1.42812E+04  6.37131E+03 -6.77153E+03  3.60597E+03 -1.61530E+03 -8.21708E+03  1.07532E+04 -7.60848E+03
  3.32632E+03  4.93124E+03  3.40082E+03  1.03565E+04 -5.70508E+03  1.36362E+04 -2.09386E+04  2.41740E+03
 -8.33516E+03 -6.37362E+03 -5.02691E+02 -1.74258E+04  9.89793E+03 -1.02859E+04  9.71500E+03  3.08041E+03
  1.04905E+03  8.00678E+03 -9.34424E+03  1.28940E+04 -1.24066E+04  6.41909E+03 -2.26721E+04 -2.46986E+03
 -7.50349E+03 -1.62376E+04  3.38086E+03 -1.49282E+04  2.06077E+04 -1.41550E+04  2.34591E+04  1.38652E+03
  8.17994E+03  1.03804E+04 -1.15421E+03  7.54815E+03 -7.52142E+03  6.47470E+03 -6.26008E+03 -5.01800E+03
 -9.63203E+03 -9.20495E+03 -1.73057E+03 -1.30148E+04  8.18696E+03 -1.06306E+04  8.81009E+03 -3.88398E+03
  3.19475E+03  7.29619E+03 -3.69478E+03 -6.87515E+02  2.59567E+03 -3.42759E+02  7.13187E+03 -5.38939E+03
  1.24901E+04 -2.84455E+02  1.86441E+04 -4.87361E+03  7.94879E+03  1.25479E+04  1.36784E+04  2.46791E+04
 -5.06888E+02  2.16548E+04 -1.47480E+04  2.07519E+04 -2.45786E+04  2.86473E+03 -2.03300E+04 -8.81749E+03
 -1.10924E+04 -1.65878E+04  4.17426E+03 -1.34736E+04  3.51894E+03 -1.18079E+04  4.93778E+03 -2.54108E+03
  4.33075E+03  3.02638E+03  7.78641E+03 -9.00933E+02  7.44618E+03 -5.52454E+02  4.53410E+03 -2.53493E+03
  1.69303E+04 -1.46726E+03  2.16775E+02  1.61311E+04 -2.98040E+03  1.11097E+04 -1.29779E+04  1.26996E+04
 -1.33292E+04 -1.09784E+03 -8.01908E+03 -1.20455E+04 -5.68043E+03 -1.49476E+04  7.32774E+03 -1.47299E+04
  1.32410E+04 -6.82040E+03  1.72559E+04  7.21225E+02  1.78284E+04  1.62534E+04  1.11475E+03  2.16129E+04
 -1.36072E+04  1.77850E+04 -1.07432E+04  3.15347E+03 -3.55363E+03 -5.15666E+03  2.77934E+02 -4.37290E+03
  3.99045E+03 -1.46990E+02  1.61459E+03  1.03330E+03 -8.91714E+03  5.16204E+03 -1.65885E+04 -1.79706E+03
 -1.16724E+04 -7.32229E+03 -5.49848E+03 -9.94098E+03  8.97126E+03 -1.84410E+04  1.57348E+04  6.84790E+03
  1.15054E+04  3.73608E+03  5.64815E+03  1.68108E+04 -6.27265E+03  1.26875E+04 -1.18903E+04  8.15014E+03
 -1.13453E+04  9.88381E+02 -1.22553E+04 -3.35945E+03  2.04184E+02 -1.01547E+04  8.60959E+03 -1.16028E+04
  9.91766E+03 -6.47083E+03  1.05292E+04  2.79794E+03 -2.31836E+03 -4.01279E+02  6.31031E+03  4.41862E+03
  4.23905E+03  2.05052E+03 -6.66519E+03 -3.47809E+03  4.78310E+03  2.97110E+03 -3.93324E+03  1.16202E+04
 -3.42561E+03  1.70735E+04 -8.72467E+03  5.75023E+03 -1.46837E+04  3.42677E+03 -1.52910E+04 -1.05859E+04
 -9.64382E+03 -1.53487E+04  9.46129E+02 -1.59009E+04  1.22364E+04 -1.14376E+04  1.55775E+04 -7.20152E+03
  1.09839E+04  5.72570E+03  1.99317E+03  1.01989E+04 -4.36823E+03  5.28455E+03 -1.22246E+04 -2.27167E+03
  1.28250E+03  8.99432E+01  8.77326E+02 -2.02343E+03  6.55454E+03 -1.26406E+04  3.22885E+03  5.08874E+03
  1.84377E+03  4.81399E+02  2.24382E+03  1.26023E+03 -5.14204E+02  1.19300E+03  5.12301E+03 -3.62837E+03
 -4.73483E+02 -2.47759E+03  5.87749E+03  3.04878E+03  3.23329E+03  1.26297E+04  4.56541E+02  7.02758E+03
 -1.13288E+04  9.56696E+03 -4.99517E+03 -6.99991E+02 -1.15969E+04 -1.20278E+03 -2.39408E+03 -5.23638E+03
  9.30979E+02 -7.10136E+03  2.83680E+03 -5.02808E+03  7.79638E+02  1.58018E+03 -4.39776E+03  3.93361E+03
 -4.78351E+03  1.03251E+04 -1.24701E+04 -4.92979E+03 -4.85721E+03 -6.28764E+03  1.80254E+03 -1.10360E+04
  1.00089E+04 -1.82691E+03  2.80740E+03 -5.28016E+03  5.70703E+03  8.78423E+03  5.61848E+02  8.43169E+03
 -3.40811E+03  8.56167E+02 -6.21003E+02  9.72983E+02  4.86910E+03 -4.37471E+03  5.36336E+03 -1.16393E+03
  9.61692E+03 -1.16564E+03 -2.70418E+02  7.49109E+03  3.36329E+03  7.19083E+03 -5.60940E+03  1.18721E+04
 -6.83444E+03  3.86629E+03 -9.61479E+03 -4.57270E+03 -9.94488E+02 -5.69169E+03  5.88176E+03 -1.38679E+04
  9.50433E+03 -6.56283E+03  7.06383E+03  7.84423E+03  1.56025E+03  4.47505E+03 -3.77504E+03  8.25318E+03
 -3.60145E+03  2.89914E+03  2.88554E+02 -4.37996E+03  3.27638E+03 -3.79369E+03 -5.88364E+02  3.55280E+03
  3.95007E+00  3.48225E+03 -5.97972E+03  3.22933E+03 -1.54088E+04  2.06982E+03 -1.31233E+04 -3.41121E+03
  9.77350E+02 -9.03006E+03 -7.18413E+02 -1.68026E+04  9.86489E+03 -1.03735E+04  2.10958E+04  9.25637E+02
  1.35818E+04  3.84906E+03  7.97354E+03  1.76744E+03 -2.11658E+03  4.93084E+03 -5.48146E+03  8.19687E+03
 -4.54637E+03  4.08300E+03 -2.97295E+03 -4.90007E+03  1.43184E+03  5.67056E+03  1.84365E+03  5.35247E+03
 -4.63858E+03  2.61106E+03 -1.04222E+04 -3.47089E+03  5.73427E+03 -4.63309E+02 -5.88378E+03  2.65800E+03
 -7.01863E+02 -4.85917E+03  1.37843E+04  5.13008E+03  8.91140E+03  3.81180E+03  3.82766E+03  1.08649E+04
 -4.19955E+03  4.89104E+03 -8.94427E+03  8.57631E+03 -8.48661E+03 -2.86614E+02 -9.41101E+03 -7.08559E+03
 -7.46623E+03 -1.28885E+04  4.95540E+03 -1.14279E+04  6.73244E+03 -4.39662E+03  8.93166E+03 -5.65651E+02
  2.23244E+03  1.51104E+03  1.81849E+03 -2.49386E+03 -6.87818E+03 -3.23590E+03  3.69026E+03 -1.76935E+03
 -6.52063E+03 -9.00839E+02  2.97286E+03  5.95326E+03  1.43645E+03  8.84704E+03 -2.13333E+03  1.65801E+03
 -7.88995E+03  1.95995E+03 -4.86144E+03 -1.29976E+03 -4.64889E+03 -1.12139E+04  5.85318E+02 -8.89526E+03
  2.04169E+03 -6.48674E+03  8.07321E+03 -1.56352E+03  8.55152E+03  7.94292E+03 -1.03651E+03  2.03075E+03
  1.89500E+03  6.81208E+03  4.54805E+03  4.91305E+03 -4.53551E+03  1.58923E+02 -1.63786E+03  3.64542E+03
  6.88649E+03  2.74620E+03 -8.41809E+02  3.20971E+03 -4.93537E+03  1.63986E+03 -6.73381E+03 -2.50676E+03
 -4.79405E+03 -2.73968E+03 -2.06867E+03 -6.00384E+02  9.45541E+02 -8.20906E+03  9.74953E+03 -2.43750E+02
  3.42836E+03  6.26906E+03  3.85687E+02  8.59336E+03  4.47047E+03 -1.72703E+02 -6.93305E+03  2.87353E+03
