 $NMID ID='MM_0lb_SNR50_13hz_g60_96.RAW', FMTDAT='(8E13.5)'
 TRAMP=1., VOLUME=1. $END
  3.07942E+05  2.89959E+03  3.40069E+05  2.51043E+05  8.12772E+04  3.39878E+05 -1.42654E+05  2.50207E+05
 -1.92242E+05  8.67466E+04 -1.15952E+05 -2.94253E+04  6.45381E+03 -4.90077E+04  5.73518E+04  3.28257E+03
  3.49785E+04  5.81530E+04 -1.44817E+04  7.35861E+04 -6.31396E+04  7.26177E+04 -8.63159E+04  2.83040E+04
 -8.11105E+04 -8.37690E+03 -5.71016E+04 -5.15575E+04 -1.33208E+04 -6.98746E+04  3.19790E+04 -4.59743E+04
  4.27816E+04  5.94111E+03  1.95812E+04  5.65633E+04 -3.19734E+04  5.01001E+04 -6.86233E+04  1.41393E+03
 -4.82916E+04 -5.83215E+04 -1.35194E+04 -7.72697E+04  3.31354E+04 -5.88557E+04  4.54807E+04 -1.50726E+04
  4.63926E+04  7.68270E+03  3.33572E+04  2.61440E+04  1.64672E+04  3.51402E+04 -6.98287E+03  2.23029E+04
 -2.57935E+04  1.46578E+04 -2.22234E+04 -2.77257E+03  1.88290E+03 -1.04720E+04  2.41231E+04  6.65061E+03
  8.44401E+03  3.23054E+04 -3.13115E+04  3.29651E+04 -6.33060E+04  4.42796E+03 -5.62238E+04 -4.35439E+04
 -1.37129E+04 -6.49077E+04  3.88936E+04 -4.09167E+04  5.74180E+04 -3.94423E+03  3.55513E+04  3.40415E+04
 -7.43583E+03  4.16935E+04 -3.07138E+04  1.16949E+04 -3.01003E+04 -7.74502E+02 -1.26938E+04 -1.47815E+04
 -5.17644E+03 -1.16141E+04 -7.74161E+02 -1.84662E+04  7.49564E+03 -2.70970E+04  2.09221E+04 -1.21786E+04
  1.21417E+04 -9.55314E+02 -9.62762E+03  1.45897E+04 -2.08308E+04 -4.42703E+03 -8.75083E+03 -3.42103E+04
  2.48212E+04 -4.87365E+04  4.83251E+04 -2.37939E+04  4.94518E+04  2.56174E+04  2.02354E+04  4.32729E+04
 -1.72163E+04  4.11607E+04 -2.56433E+04  5.06083E+03 -1.45199E+04 -2.67397E+04  2.03399E+04 -3.65049E+04
  4.59762E+04 -1.14781E+04  4.39905E+04  2.67459E+04  1.83783E+04  4.42902E+04 -5.11785E+03  5.15905E+04
 -3.43937E+04  3.20075E+04 -4.46845E+04  1.09685E+04 -4.66389E+04 -2.03938E+04 -2.62950E+04 -4.12692E+04
  9.38625E+03 -4.02499E+04  3.62398E+04 -1.87563E+04  3.12504E+04  1.28736E+04 -8.93112E+02  1.92559E+04
 -9.73268E+03  9.08251E+03 -1.22848E+04 -5.31336E+03  5.09515E+03 -1.06674E+04  1.90323E+04  7.79268E+03
  1.39233E+04  2.12245E+04 -4.51700E+03  2.45003E+04 -2.55680E+04  1.20099E+04 -2.74556E+04 -7.79830E+03
 -2.69381E+04 -1.63082E+04 -1.01443E+04 -2.60303E+04  1.46298E+02 -1.98005E+04  1.80545E+04 -1.48192E+04
  2.97454E+04 -9.71437E+03  3.29368E+04  7.56006E+03  2.84252E+04  2.23313E+04  6.11640E+03  4.01559E+04
 -2.18833E+04  3.71620E+04 -3.10857E+04  1.27167E+04 -2.17722E+04 -1.33711E+04 -4.55843E+03 -1.81666E+04
 -1.22339E+03  2.88808E+03 -1.61163E+03  6.08892E+03 -1.37107E+04  5.44181E+03 -1.85840E+04 -4.02749E+03
 -7.13525E+03 -1.88794E+04  1.11256E+04 -2.55040E+04  1.48334E+04 -2.24335E+04  1.99590E+04 -2.02518E+03
  1.61281E+04  1.54858E+04 -6.87652E+03  2.53095E+04 -1.09764E+04  1.17331E+04 -2.44383E+04 -5.63130E+03
 -1.40191E+04 -1.87774E+04 -1.12930E+03 -2.31283E+04  1.09740E+04 -1.80367E+04  2.09593E+04 -1.06565E+04
  2.05270E+04 -1.75156E+03  2.10025E+04  3.37681E+03  5.69718E+03  4.64227E+03  1.07062E+04 -1.86550E+03
  1.71617E+04 -1.18265E+03  1.88462E+04  8.38311E+03  1.48442E+04  3.37074E+04 -4.25720E+03  3.92342E+04
 -1.67177E+04  3.19736E+04 -3.98770E+04  1.76561E+04 -3.45046E+04 -8.80401E+03 -2.92088E+04 -2.08116E+04
 -1.68202E+04 -2.87602E+04  1.34774E+04 -2.56460E+04  2.59887E+04 -1.40539E+04  2.11611E+04  9.41767E+03
  8.45525E+03  1.33306E+04 -8.98236E+03  1.47794E+04 -1.65794E+04 -1.28518E+03 -1.21506E+04 -1.31493E+04
 -2.07725E+03 -1.54535E+04  7.72888E+03 -1.94517E+04  9.61488E+03 -2.88357E+03  2.00649E+03  8.06052E+03
 -3.85848E+03  6.74250E+03 -7.99507E+03 -9.39385E+03 -3.88448E+02 -1.67240E+04  7.76535E+03 -1.61266E+04
  2.07144E+04 -9.24707E+03  1.70093E+04  2.62139E+03  1.33679E+04  2.07354E+04  1.48285E+03  2.96080E+04
 -6.35698E+03  2.88161E+04 -1.69440E+04  1.43792E+04 -2.35487E+04  5.51036E+03 -9.28105E+03  4.15690E+02
 -7.70234E+03 -4.95108E+03  1.87124E+03  2.10795E+03  2.76681E+02  3.20630E+03 -3.36235E+03  4.98509E+03
 -1.06856E+04 -1.27215E+03 -2.00728E+04 -9.29953E+03  1.32398E+03 -1.23758E+04  7.99471E+03 -1.24660E+04
  8.68808E+03 -2.13793E+03  8.24110E+03  5.73989E+03 -3.08714E+03  4.47174E+03 -9.19837E+03 -2.40815E+03
 -4.14218E+03 -8.23809E+03  5.40709E+02 -1.40740E+04  8.35668E+03 -1.48596E+04  1.37405E+04 -6.07284E+03
  2.26590E+04  7.81052E+02  1.21744E+04  9.76578E+03  5.80992E+03  1.19030E+04 -9.09477E+03  1.25990E+04
 -1.13427E+03  6.97028E+02 -7.67514E+03  1.70755E+02  3.53486E+03 -2.65646E+03  9.79718E+03 -1.46561E+03
  5.58035E+03  3.58606E+03  1.68831E+03  7.38754E+03 -5.55603E+03  5.74357E+03 -1.12318E+04  5.88405E+02
 -9.32198E+03 -9.41592E+03 -4.22025E+03 -8.77071E+03  8.30449E+02 -7.55146E+02  6.39132E+03  3.08441E+03
  5.51427E+03  8.93263E+03 -9.18925E+03  1.05003E+04 -1.15862E+04  9.34007E+03 -7.48474E+03  8.14266E+02
 -3.80485E+03 -9.80433E+03 -1.35217E+03 -1.68967E+04  1.36204E+04 -6.92886E+03  6.44414E+03  3.05382E+03
  5.17452E+03  4.96248E+03  2.41845E+02  1.44026E+04 -5.44493E+03  7.47132E+03 -9.28816E+03  1.27964E+03
 -3.87729E+03 -9.74255E+03  3.45504E+02 -9.03436E+02  7.52299E+02 -1.43803E+04  4.57758E+03 -4.12214E+03
  9.11277E+03 -1.90229E+03 -1.88335E+03  1.53111E+03 -5.00996E+03 -3.29684E+02  6.34271E+03 -7.08021E+03
  5.03645E+03  1.51952E+03  7.47385E+03  1.16691E+03  1.27964E+04  6.84530E+03  8.89396E+03  1.44500E+04
 -3.13687E+03  1.91524E+04 -1.67454E+04  1.87826E+04 -1.80521E+04  5.24961E+03 -1.38799E+04 -7.14950E+03
 -6.55531E+03 -1.47990E+04  2.13392E+03 -1.08617E+04  4.92395E+03 -4.30827E+03  6.47113E+03 -4.77453E+03
  2.12658E+03 -6.69021E+03  7.69531E+03  1.42434E+03  4.84758E+03 -5.55427E+03  6.81563E+03 -1.76903E+03
 -1.36954E+03 -1.43052E+03  5.91952E+02  1.24097E+04 -4.72068E+03  9.98768E+03 -1.12311E+04  8.85753E+03
 -8.89926E+03  1.92623E+03 -1.03389E+04 -6.89849E+03 -4.16493E+03 -1.33885E+04  6.02658E+03 -1.07414E+04
  1.05361E+04 -4.44153E+03  1.28919E+04  1.09575E+03  8.42118E+03  8.79116E+03  3.61390E+02  1.29609E+04
 -1.69465E+03  8.53989E+03 -4.09903E+03  6.44689E+03 -6.18101E+03 -1.46255E+03 -1.61729E+03  1.30109E+03
 -5.74130E+03  1.34669E+03  8.72393E+02 -1.56275E+02 -5.91083E+03  1.84211E+03 -1.17546E+04  1.54375E+03
 -3.43204E+03 -4.01944E+03 -4.35004E+02 -6.64339E+03  1.15666E+04 -1.07662E+04  1.26768E+04 -3.86531E+03
  6.93075E+03  8.03685E+03  1.80788E+03  9.67428E+03 -1.58975E+03  7.91301E+03 -8.28282E+03  6.64227E+03
 -9.46172E+03 -2.55142E+02 -4.94370E+03 -4.94072E+03 -9.32937E+02 -2.61811E+03  2.97248E+03 -3.25618E+03
  9.48469E+03  9.05560E+02  5.67433E+03 -3.24610E+03 -2.64222E+03 -1.61532E+03 -1.12370E+03  1.64553E+02
 -1.11341E+03  2.69243E+03  3.71298E+03  7.02590E+02  4.66480E+03  2.82292E+03 -6.80864E+03  8.49886E+03
  2.54319E+02  6.55716E+03 -4.65930E+03  6.43136E+03 -1.06341E+04  4.60542E+03 -6.34824E+03 -1.00605E+03
 -1.03755E+04 -7.21874E+03 -7.27940E+02 -1.50707E+04  5.49933E+03 -2.73178E+03  1.08458E+04 -3.50525E+03
  7.78659E+03  6.14978E+03  9.69162E+02  2.75607E+03 -3.03201E+03 -6.52006E+02  2.35050E+02  2.91934E+03
 -3.65444E+03 -1.04314E+03  2.65409E+02 -6.42586E+03  3.01851E+03 -4.12348E+03  4.43155E+03 -5.42079E+03
  4.45355E+03  1.52041E+03  5.08954E+03  1.97112E+03  2.91676E+03 -3.49347E+03 -2.23144E+03  9.83240E+02
  1.72678E+03  1.88532E+03  2.03182E+03  1.09327E+03  1.69415E+03  7.36984E+03 -3.85209E+03  7.84499E+03
 -6.20812E+02  1.11209E+03 -7.30862E+03 -2.07550E+03 -3.96600E+03  1.37612E+03 -4.17513E+03 -3.37368E+03
 -2.65329E+03 -3.20458E+03  3.94175E+03 -2.04724E+03  3.75712E+03 -2.51690E+03  5.93208E+02  1.81311E+03
 -5.72616E+03 -4.12944E+03 -6.15975E+03 -4.75760E+02 -2.00719E+03 -3.12106E+03  2.67891E+02 -1.08653E+03
 -1.31165E+03 -1.27856E+03  2.31196E+03 -1.00832E+03  1.41412E+03  1.08995E+03 -8.93117E+02  1.76119E+03
 -6.33486E+03 -1.32935E+03  1.91759E+03  9.79804E+02  2.41826E+03 -3.31359E+03  6.85258E+03  2.94818E+03
  3.27041E+03 -8.76523E+01  5.13621E+03  2.63788E+02  4.02540E+03  5.60810E+03 -3.16926E+02  4.61446E+03
 -2.71782E+03 -1.12690E+03 -3.38373E+03 -6.63635E+02 -1.74707E+03 -3.01698E+03  5.48866E+03  8.42056E+01
 -3.17384E+02 -7.22134E+03  1.02515E+03  1.81156E+03  3.05264E+03  3.80988E+03  1.97332E+03  6.76049E+03
 -7.61094E+03  3.24566E+03 -7.40889E+02 -2.61478E+03  4.09017E+02 -5.61528E+02 -2.39643E+03  2.69663E+03
  3.82841E+03  3.80859E+03 -7.21454E+03  2.85141E+03 -8.65268E+03  4.13666E+03 -4.31910E+03 -1.35099E+03
 -4.87673E+03 -9.85910E+03  3.77552E+03 -7.35766E+03  1.28470E+04 -7.16320E+03  9.68250E+03  3.14652E+03
  6.54897E+03  3.52337E+03  8.30902E+03  7.18395E+03 -1.49232E+03  3.65597E+03  1.12412E+03  1.01193E+04
 -6.23532E+03  5.14269E+03 -1.91301E+03  6.29474E+03  1.02563E+03  1.63777E+03  4.40443E+03 -2.15737E+03
 -5.14260E+03 -3.89722E+00 -1.00577E+04 -5.38164E+03 -2.37414E+02 -1.68182E+03  3.00598E+03 -3.04805E+03
 -1.94467E+03 -1.13566E+03  7.33452E+03 -4.82715E+03  1.55001E+03  3.61670E+03  2.00086E+03  3.51922E+03
 -1.91177E+02  7.86077E+03 -6.08057E+03  4.55246E+03 -8.56173E+03 -2.15471E+03 -7.70131E+03 -2.09823E+03
 -2.57278E+02 -5.02629E+03  9.16367E+03 -5.22088E+03  3.24572E+03 -2.11352E+03  7.12835E+03  8.43959E+01
 -1.02759E+03  3.57574E+03  6.55018E+02  2.01024E+03 -2.85633E+03 -1.03196E+03 -1.17949E+03 -1.86010E+03
  3.64765E+03  2.00122E+03  2.50193E+02  7.74352E+02 -3.80615E+03  2.74011E+03  8.44605E+02  2.07620E+03
 -2.44222E+03  2.89378E+03 -5.24578E+03 -3.43491E+03 -6.09090E+03 -2.66284E+03  2.97664E+03 -5.44364E+03
 -3.72100E+00 -4.49056E+03  3.81094E+03 -2.05756E+03  2.31439E+03 -1.25358E+02 -1.04380E+03  3.21533E+03
  5.03787E+02 -5.37305E+02  2.14473E+02 -2.32082E+03 -4.60375E+03  4.87517E+03 -1.75409E+03  1.43951E+03
 -1.93725E+03  9.92228E+02 -2.48882E+03 -2.00818E+03 -1.11591E+04 -5.21922E+03 -3.93118E+03  5.44289E+02
 -4.22466E+03 -7.00772E+01  2.47335E+03 -4.22680E+03  1.46592E+03 -6.37113E+03  2.65517E+03 -6.25441E+03
  5.16637E+03 -4.79976E+03  1.26752E+03  1.53778E+03 -1.44049E+03  2.78015E+03  5.04663E+02 -3.15189E+03
