 $NMID ID='MM_0lb_SNR50_20hz_g60_3.RAW', FMTDAT='(8E13.5)'
 TRAMP=1., VOLUME=1. $END
  3.09060E+05  6.35557E+02  3.36145E+05  2.51685E+05  8.66629E+04  3.38223E+05 -1.29272E+05  2.51735E+05
 -1.90030E+05  8.24076E+04 -1.08603E+05 -3.12568E+04  1.06616E+03 -4.93525E+04  5.29691E+04  1.89669E+03
  3.39859E+04  5.08047E+04 -1.21855E+04  7.41655E+04 -5.49183E+04  6.34279E+04 -8.48262E+04  3.02089E+04
 -7.82404E+04 -1.52604E+04 -5.93387E+04 -5.28495E+04 -1.18927E+04 -6.62635E+04  2.29287E+04 -4.63908E+04
  4.06876E+04  3.18953E+03  1.99132E+04  4.69244E+04 -3.70528E+04  4.28374E+04 -6.93499E+04  3.06477E+03
 -5.31792E+04 -5.57068E+04 -6.03242E+03 -7.28815E+04  3.56910E+04 -5.30564E+04  4.48004E+04 -1.65236E+04
  4.25818E+04  1.10904E+04  3.31098E+04  2.32118E+04  1.52824E+04  2.85067E+04 -2.64978E+03  2.47115E+04
 -2.28627E+04  9.31721E+03 -1.89683E+04 -1.22703E+03  2.94428E+03 -6.59546E+03  2.03427E+04  7.47394E+03
  3.52954E+03  3.30046E+04 -3.19469E+04  3.59258E+04 -6.30993E+04  1.10551E+02 -5.71066E+04 -4.12270E+04
 -1.12910E+04 -6.30698E+04  3.97851E+04 -4.02770E+04  5.83601E+04 -1.50123E+03  3.05100E+04  3.48504E+04
 -7.89414E+03  3.07503E+04 -2.70088E+04  1.19817E+04 -2.40090E+04 -1.28931E+03 -1.61574E+04 -8.00150E+03
 -5.53895E+03 -1.06154E+04  7.09812E+02 -1.87169E+04  8.71426E+03 -2.31252E+04  1.44257E+04 -1.52289E+04
  1.36976E+04  4.08337E+03 -9.61908E+03  1.23922E+04 -1.70534E+04 -2.09075E+03 -5.26250E+03 -3.41199E+04
  2.25660E+04 -4.08090E+04  4.56920E+04 -1.85615E+04  4.88447E+04  1.64533E+04  1.19077E+04  4.36657E+04
 -1.35123E+04  2.94934E+04 -2.53132E+04  1.00045E+03 -8.21852E+03 -2.88310E+04  2.35701E+04 -3.90279E+04
  4.12372E+04 -7.85802E+03  3.01555E+04  2.41833E+04  1.80421E+04  4.51985E+04 -7.24073E+03  4.72008E+04
 -3.04067E+04  3.26967E+04 -3.82851E+04  6.69297E+03 -4.28837E+04 -1.40605E+04 -2.17243E+04 -3.32626E+04
  1.39736E+04 -3.22474E+04  2.76884E+04 -1.60219E+04  2.85322E+04  1.05798E+04  6.19446E+03  1.79397E+04
 -1.51672E+04  5.05692E+03 -7.71862E+03 -1.16057E+04  3.51545E+03 -1.26242E+04  1.91154E+04  7.11621E+03
  1.17124E+04  2.25591E+04 -6.40672E+03  2.37543E+04 -2.11709E+04  7.05965E+03 -2.22308E+04 -6.56781E+03
 -1.53461E+04 -1.59936E+04 -5.39860E+03 -1.98077E+04  5.27379E+03 -1.41908E+04  1.40354E+04 -1.51623E+04
  2.09497E+04 -1.10054E+04  2.85917E+04 -7.50766E+02  2.23591E+04  1.77391E+04  3.51057E+03  3.32906E+04
 -2.36550E+04  2.69035E+04 -2.61009E+04  5.99597E+03 -2.02478E+04 -7.97724E+03 -6.46598E+03 -1.77206E+04
  2.68701E+03 -5.56204E+03 -7.65132E+02  2.29599E+03 -1.23431E+04  7.62051E+03 -1.12045E+04 -2.80315E+03
 -7.68554E+03 -1.28927E+04  5.17001E+03 -1.30415E+04  1.59818E+04 -1.62805E+04  1.81289E+04 -1.91488E+03
  7.58332E+03  9.50577E+03  6.01316E+02  1.68330E+04 -4.78113E+03  7.02071E+03 -1.85795E+04 -4.02757E+03
 -9.99588E+03 -1.65362E+04 -4.30218E+03 -1.97129E+04  1.15850E+04 -1.41350E+04  1.48224E+04 -1.13303E+04
  1.85729E+04  1.66345E+03  6.82855E+03  6.52137E+03  7.38187E+02  8.64377E+02  1.14507E+04  1.46799E+03
  1.36477E+04  3.23304E+03  1.60024E+04  9.42955E+03  1.08621E+04  2.49390E+04 -5.44827E+03  2.66195E+04
 -1.51552E+04  2.25199E+04 -2.05697E+04  5.42002E+03 -2.48818E+04  2.65338E+02 -2.25859E+04 -1.31608E+04
 -1.03881E+04 -1.70625E+04  1.02382E+04 -2.24627E+04  1.96217E+04 -1.13005E+04  1.88671E+04  3.67344E+03
  5.72431E+03  1.27730E+04 -7.17210E+03  8.56286E+03 -1.19187E+04  6.94011E+03 -9.40096E+03 -6.28669E+03
  6.12473E+02 -1.17437E+04  6.59265E+03 -1.10996E+04  5.12889E+03 -3.32739E+03 -6.03064E+02  2.77668E+03
 -6.00181E+03 -5.66817E+02  1.51346E+03 -7.81699E+03  3.56446E+03 -9.69915E+03  4.81693E+03 -9.96179E+03
  7.63298E+03 -3.00798E+03  1.11780E+04  9.11676E+03  9.69376E+03  8.62520E+03  8.30354E+03  1.05525E+04
  2.19731E+03  1.85533E+04 -9.26709E+03  1.11629E+04 -1.05511E+04 -7.80704E+02 -8.19562E+03  4.22079E+02
 -5.81495E+03 -4.68966E+03  2.44946E+03  1.76554E+02  3.96177E+02  9.15787E+02 -1.33444E+03  5.37394E+03
 -4.53871E+03 -1.24339E+03 -4.76640E+03 -8.45476E+03 -9.96648E+02 -1.05630E+04  4.69457E+03 -6.17417E+03
  5.69032E+03 -5.06099E+03  4.67824E+02  2.11639E+03  4.75576E+01  5.00932E+02 -2.98536E+03  2.73341E+03
 -5.88107E+02 -7.95101E+03  9.34591E+02 -5.01547E+03  8.79647E+03 -4.21893E+03  6.21181E+03 -2.57185E+03
  1.21812E+04 -3.98925E+01  1.08508E+04  1.00876E+04 -1.38990E+03  6.96038E+03 -6.83046E+03  7.59099E+03
 -8.40393E+03  2.29397E+03 -4.89536E+03 -2.00755E+03  2.98108E+03 -2.67522E+03  5.26806E+03  6.28481E+02
  7.63736E+02  3.06327E+03 -7.83646E+02  4.56690E+03 -5.46418E+03  7.37367E+03 -9.39733E+03  4.79865E+03
 -1.58685E+03 -4.05075E+03  2.33878E+03 -7.39456E+03  1.68014E+03 -6.05452E+03  3.28709E+03  2.30383E+03
 -4.21263E+03  3.07770E+03 -4.71853E+03  2.69111E+02 -6.05290E+03 -5.72641E+02 -1.33002E+03  2.62487E+03
 -2.86779E+03 -1.04699E+04 -1.06793E+03 -7.82187E+03  5.55377E+03 -4.32928E+03  1.05406E+04  2.18578E+03
  3.64362E+03  6.33450E+03  2.48000E+03  6.23035E+03 -2.09016E+03  5.42866E+03 -7.10479E+03 -7.98294E+02
 -6.81069E+03 -2.42796E+03 -4.52602E+03 -7.71789E+02  3.95429E+03 -3.18457E+02  1.68626E+03 -2.47057E+03
  3.83567E+03  2.94577E+02 -1.05253E+02 -2.58409E+03 -1.64892E+02 -1.48680E+03 -2.65279E+03  1.45971E+03
  4.40714E+03 -3.83770E+03  5.02102E+03 -1.59321E+03  7.38000E+03  3.50485E+03  1.76267E+03  6.76986E+03
 -2.13466E+03  6.76770E+03 -6.79025E+03  5.02059E+03 -7.18662E+03  4.82865E+03 -5.60893E+03 -2.29545E+03
 -3.07872E+03 -4.88364E+03 -7.90662E+03 -8.33814E+02  1.18525E+03 -4.88604E+03 -1.06204E+03 -4.37975E+03
  1.93083E+03  9.51526E+02  1.72320E+03 -3.25579E+03  6.23229E+03 -3.23300E+03  7.83306E+03  2.20509E+03
  3.85321E+03 -4.03712E+03  8.08874E+03  1.40388E+03 -4.64836E+03  4.59535E+03 -5.29251E+03  2.99655E+03
 -2.66304E+03 -6.31841E+02  1.66093E+03 -2.73979E+03 -3.04836E+03 -1.45507E+03  4.86443E+03 -1.90610E+03
  3.43207E+03 -3.41110E+03  7.08977E+03  2.59767E+03  8.06189E+03  6.86817E+03  2.46334E+03  2.85670E+03
 -5.15281E+03  5.96007E+03  1.96650E+03  2.98740E+03 -3.88282E+03 -3.16899E+03 -1.14809E+03 -4.28184E+03
  7.13232E+02 -1.96629E+03  3.42337E+02  1.49956E+03 -3.78809E+02  1.45644E+03 -4.22478E+03 -3.14545E+02
 -1.39048E+03 -2.97978E+03  4.80359E+03 -2.71881E+03  6.75106E+02 -4.70114E+03 -1.44273E+02  5.68368E+02
  1.29507E+03  1.48512E+03  8.28867E+02  1.45265E+03 -2.02616E+03  2.35463E+03 -5.77204E+03 -8.17165E+02
 -2.89827E+02  4.95481E+02 -3.36639E+03 -1.62138E+03 -2.69279E+03 -3.42917E+03  4.68605E+02 -5.33900E+03
  2.25992E+03  2.48553E+03  4.58180E+03 -6.70245E+02  1.98964E+03  1.04877E+03  1.99152E+03  2.58638E+03
 -2.24129E+03  7.71718E+02  2.53947E+03  1.68926E+03  1.60643E+03  1.58347E+03  1.96413E+03  1.94385E+03
 -1.87348E+03 -3.71050E+03  2.23975E+03  2.16934E+03 -3.18622E+03  7.20755E+02 -2.75391E+03 -4.38909E+03
 -1.45738E+03 -5.62967E+03  1.26212E+03 -3.15480E+03  4.18959E+03 -1.20647E+03  2.63246E+03 -3.81137E+03
  5.82530E+03  3.67686E+03  2.36850E+03  3.75614E+01  5.00919E+02 -2.22217E+03 -2.60410E+01 -1.76415E+03
  4.53037E+02  4.76539E+02  1.95612E+03 -6.84903E+02  3.76626E+03 -7.53672E+02 -7.61483E+02 -4.53444E+03
 -7.95338E+02 -3.52603E+03 -1.43424E+03 -3.73196E+03 -3.42677E+03  6.66335E+03  1.23382E+03 -1.74402E+03
  4.28717E+02  4.90933E+03 -1.10171E+03 -5.09180E+03 -4.13755E+03  3.82683E+03 -2.03718E+03  5.26272E+02
 -2.56985E+03 -4.17491E+02 -2.98791E+03  4.29996E+03  4.01012E+02 -4.40625E+02 -1.06601E+02  8.59530E+02
 -3.43579E+03 -6.74181E+02  2.68375E+03  2.32584E+03  6.01800E+02  2.48378E+02  1.29008E+03  2.31340E+03
  2.58703E+02  1.16462E+03 -6.47002E+02  2.39842E+03 -4.26752E+03 -7.29047E+02 -3.18799E+03 -1.87320E+03
  6.51434E+02 -4.54179E+03 -1.79727E+03  7.76779E+02  4.86721E+03 -1.59280E+02 -3.30469E+03 -3.83000E+02
 -4.30141E+03 -7.96102E+02 -4.40212E+03  2.53177E+02  4.31866E+03 -3.18928E+03 -2.75830E+00 -3.22966E+03
  4.61035E+03  4.44980E+03  1.12815E+02  2.11278E+03  2.87634E+03 -2.15429E+03  1.10116E+03  2.99624E+03
 -3.18731E+02 -1.59197E+03  1.09530E+03 -1.59938E+03  1.39102E+03 -1.81253E+03 -6.75526E+02  2.70097E+02
 -1.07332E+03 -3.76348E+02 -3.16283E+03  1.46410E+03  1.47069E+03 -1.10081E+03  5.90713E+02  2.38017E+03
 -1.60728E+03 -9.76909E+01 -1.44523E+02  9.82486E+01  4.01633E+02  2.05559E+03 -1.02867E+03  2.60783E+03
 -3.17099E+03  3.62441E+02 -3.83447E+03  4.14845E+03 -2.22398E+03 -8.11273E+02  7.22910E+02 -1.81307E+02
  3.32123E+03 -3.19389E+03 -1.90341E+03 -4.01206E+03  2.81211E+03 -5.92031E+03  2.21702E+03  4.14976E+03
 -4.66809E+03  1.73726E+03 -3.52401E+02 -3.24531E+03  2.84610E+03 -1.21406E+03 -2.78561E+03  8.79131E+02
 -3.93278E+03  1.95821E+03 -3.17358E+03  8.81999E+02 -2.50353E+03  2.32742E+03  1.08026E+03  7.93451E+02
 -1.03609E+03  7.41306E+01 -3.83736E+03 -1.32723E+03 -5.03472E+02 -2.90609E+03 -5.10877E+02 -2.75312E+03
  1.29205E+03  4.41947E+03  3.78726E+03 -8.12964E+02 -7.20321E+02  4.01027E+03  4.31386E+03  2.16096E+03
  3.36223E+02 -2.27010E+03 -2.41625E+03 -1.90029E+02  1.52021E+03  2.05557E+03 -6.20905E+03 -2.21335E+03
 -2.01722E+03 -4.39243E+02 -2.18043E+02 -2.10027E+03 -9.74385E+02 -8.69296E+02  2.33854E+03 -2.38431E+03
  1.66982E+03 -2.59734E+03 -2.74555E+03 -1.50695E+03 -9.70328E+02  2.44254E+03  1.09523E+03 -2.71164E+03
  7.77288E+02 -1.01742E+03  1.13564E+03  1.83398E+03  3.68567E+02  9.15293E+02  7.89844E+01  2.62908E+03
  2.82536E+03  1.89318E+03 -1.52992E+03 -1.74009E+02  2.77322E+02  2.01028E+03 -1.31172E+03 -2.23899E+02
  3.77919E+03 -5.33226E+03 -6.91861E+02  8.20224E+02  5.74167E+02  5.57265E+02  2.48707E+03  1.99883E+03
  5.47150E+02  9.98296E+02  4.87843E+02  1.64889E+03 -3.25610E+01  8.20681E+02 -3.63069E+03  6.29762E+02
  2.21856E+03  2.22661E+03  1.50072E+03 -4.75367E+03 -4.10200E+03  2.34342E+03 -1.10154E+03 -3.08001E+03
  7.87920E+02  1.28080E+03 -2.10227E+03  1.77949E+03 -2.10696E+03 -1.65846E+03  4.11591E+01 -6.35399E+02
  3.34415E+03  2.75543E+03  3.38900E+03  9.60341E+02 -3.19093E+03  6.94834E+03  1.46416E+02 -3.20266E+03
