 $NMID ID='MM_0lb_SNR50_20hz_g50_20.RAW', FMTDAT='(8E13.5)'
 TRAMP=1., VOLUME=1. $END
  3.09343E+05  1.56451E+03  3.35726E+05  2.47969E+05  8.50000E+04  3.36746E+05 -1.33376E+05  2.55415E+05
 -1.89442E+05  8.17863E+04 -1.10579E+05 -3.34481E+04 -1.09628E+03 -4.72015E+04  5.32096E+04  1.90448E+03
  3.25775E+04  5.42948E+04 -1.67029E+04  7.79940E+04 -5.63343E+04  6.03694E+04 -8.69144E+04  3.14450E+04
 -7.86226E+04 -9.39221E+03 -5.41568E+04 -5.35236E+04 -1.36414E+04 -6.45325E+04  2.65046E+04 -4.53857E+04
  4.11216E+04  5.11347E+03  1.37269E+04  4.81013E+04 -3.55078E+04  4.75140E+04 -6.56272E+04 -5.16528E+02
 -5.22230E+04 -5.87133E+04 -6.35906E+03 -7.34667E+04  3.59965E+04 -5.52068E+04  4.81532E+04 -1.43937E+04
  4.11109E+04  1.29414E+04  2.83402E+04  2.40403E+04  1.50294E+04  2.41323E+04 -2.43333E+03  3.18355E+04
 -2.39393E+04  1.24992E+04 -2.01828E+04 -4.47217E+03  4.77600E+03 -7.19838E+03  1.98104E+04  1.11374E+04
  8.30011E+03  3.88258E+04 -2.84176E+04  3.44264E+04 -5.93526E+04 -3.14850E+02 -5.30160E+04 -4.28631E+04
 -1.06617E+04 -5.98527E+04  3.86560E+04 -4.43579E+04  5.75044E+04  1.81179E+03  3.14504E+04  2.82901E+04
 -8.76448E+03  3.51776E+04 -2.73474E+04  1.35235E+04 -2.53327E+04 -9.42866E+03 -1.49645E+04 -1.19178E+04
 -6.24689E+03 -9.48150E+03 -1.96339E+03 -1.64161E+04  5.98597E+03 -2.24640E+04  1.39529E+04 -1.60400E+04
  1.04471E+04  2.68658E+03 -6.81358E+03  1.25182E+04 -1.88231E+04  2.34487E+03 -1.35052E+04 -3.17517E+04
  2.15914E+04 -4.54654E+04  4.39522E+04 -1.48683E+04  4.34796E+04  1.74793E+04  1.16863E+04  4.00892E+04
 -1.66458E+04  2.96479E+04 -2.16629E+04  6.79678E+02 -3.38541E+03 -2.59224E+04  1.80836E+04 -3.11264E+04
  3.84202E+04 -5.10873E+03  3.02828E+04  2.78191E+04  1.44090E+04  4.23565E+04 -5.57686E+03  4.09014E+04
 -2.70777E+04  3.18835E+04 -4.05560E+04  5.88410E+03 -3.38779E+04 -1.52776E+04 -2.04639E+04 -3.35118E+04
  9.16023E+03 -3.52219E+04  2.74512E+04 -1.45665E+04  2.90313E+04  1.00841E+04  8.84893E+02  1.81103E+04
 -1.25067E+04  4.80443E+03 -7.54244E+03 -6.36852E+03  9.41964E+03 -1.46016E+04  1.96602E+04  1.00192E+04
  1.34988E+04  2.56476E+04 -5.02132E+03  2.28023E+04 -2.26363E+04  1.22843E+04 -2.39046E+04 -1.02120E+04
 -1.61535E+04 -1.37748E+04 -2.92180E+03 -1.63616E+04  3.85229E+03 -1.71374E+04  1.06212E+04 -1.15850E+04
  1.97125E+04 -9.63028E+03  2.73156E+04  1.32847E+03  1.85368E+04  2.16833E+04  2.82266E+03  3.40918E+04
 -1.50120E+04  2.09840E+04 -2.37094E+04  9.56963E+03 -1.80597E+04 -1.21951E+04 -6.07320E+03 -1.37602E+04
  5.86279E+03 -7.05314E+03 -2.50575E+03  5.19248E+03 -1.45092E+04  5.87332E+03 -9.71256E+03 -4.52809E+03
 -1.30852E+04 -1.95009E+04  4.91201E+03 -1.99177E+04  8.46687E+03 -1.31666E+04  1.14595E+04 -4.49969E+02
  7.29493E+03  9.83384E+03  9.38881E+02  1.93483E+04 -1.03588E+04  6.93837E+03 -1.36759E+04 -3.78870E+03
 -1.16828E+04 -1.15876E+04 -2.95449E+03 -1.60250E+04  8.44542E+03 -1.22041E+04  1.94447E+04 -4.10064E+03
  1.50909E+04  1.97087E+03  8.20771E+03  5.41412E+03  2.14092E+03 -4.21491E+03  1.11718E+04 -2.73945E+03
  1.22675E+04  1.77791E+03  1.09414E+04  1.29142E+04  9.52906E+03  2.31972E+04 -3.02201E+03  2.77678E+04
 -1.12594E+04  1.67036E+04 -2.28002E+04  7.97127E+03 -2.40074E+04 -2.40254E+03 -2.18889E+04 -1.48899E+04
 -1.06000E+04 -1.87849E+04  6.03921E+03 -2.30083E+04  1.10405E+04 -5.06270E+03  1.50230E+04  8.69531E+03
  7.33561E+03  1.20620E+04 -7.63968E+03  1.23647E+04 -1.53482E+04  2.96312E+03 -1.06193E+04 -8.13359E+03
  2.94796E+03 -1.20221E+04  6.28234E+03 -8.10656E+03  9.05113E+03 -8.67881E+02  1.40997E+02  4.30090E+03
 -6.03792E+03  1.35933E+03 -3.14129E+03 -3.94292E+03  2.49719E+03 -1.31713E+04  7.37873E+03 -1.01620E+04
  1.18052E+04 -1.17470E+03  7.91508E+03  2.97252E+03  9.54807E+03  7.27946E+03  5.37894E+03  1.16767E+04
  5.97441E+02  1.15009E+04 -9.68555E+03  9.93649E+03 -1.22402E+04  4.52237E+01 -8.42410E+03  5.87839E+02
 -6.75624E+03 -9.76131E+03 -1.44160E+03  2.28539E+03 -4.87264E+03  4.97076E+03 -6.09612E+03  3.31668E+03
 -1.28109E+04  5.63296E+03 -9.76922E+03 -7.27809E+03 -6.25094E+02 -8.15208E+03  4.92387E+03 -7.52959E+03
  3.73972E+03  9.71482E+02  5.23343E+03  1.35257E+03 -9.68266E+02  2.29452E+03  1.91322E+03 -3.30924E+03
 -2.41265E+01 -5.86100E+03  2.12938E+02 -4.91575E+03  3.42166E+03 -5.63553E+03  5.90282E+03 -2.48768E+03
  8.57367E+03 -9.11330E+02  9.69578E+03  7.73737E+03  1.39602E+03  9.58068E+03 -8.57026E+03  6.82410E+03
 -7.70566E+03  2.27798E+03 -2.66683E+03 -2.45982E+03  3.46034E+03 -7.68708E+02  2.36953E+03 -2.56730E+03
  9.48289E+03  6.47262E+03  2.43437E+03  5.58506E+03 -6.41276E+03  9.15470E+03 -5.37927E+03  2.96572E+03
 -2.47772E+03 -3.91662E+03  5.79699E+02 -5.57419E+03  1.67768E+03 -3.26295E+03  3.70037E+03 -1.16601E+03
 -3.82413E+03  2.23659E+03 -5.06412E+03  6.74511E+03 -3.58955E+03  3.47929E+03 -3.34415E+03 -3.11046E+03
 -1.67258E+03 -4.88297E+03  3.12279E+03 -4.50357E+03  2.93259E+03 -1.42815E+03  4.87130E+03  4.47481E+02
  5.46984E+03  3.36813E+03  1.63294E+03  1.03877E+04 -5.29683E+03  3.26325E+03 -2.03149E+03 -3.39153E+03
 -6.03706E+03  1.95118E+03 -2.71388E+03 -4.03591E+03  3.06394E+03 -4.57803E+03  3.59725E+03  2.05111E+03
  2.30288E+03 -1.94249E+02 -2.95545E+03  2.19907E+03 -2.10156E+03 -9.71422E+02  6.45281E+03  2.00199E+03
  6.67828E+02  3.13305E+02  8.36606E+03  3.61526E+02  3.22024E+03  3.15954E+03  2.39738E+03  6.04014E+03
 -2.92079E+02  7.16244E+03 -9.02260E+03  1.16753E+03 -1.04853E+04 -1.32323E+03 -5.54130E+03 -1.01444E+03
 -3.85144E+03 -4.86503E+03 -4.07140E+02 -2.53133E+03  1.48145E+02 -1.05695E+03  2.66683E+03 -4.42686E+03
 -6.19551E+02 -5.62036E+02  1.31189E+03 -3.14211E+03  4.66778E+03  9.95453E+02  6.49711E+03 -3.13434E+03
  2.97581E+03  3.48411E+02  2.32964E+03  2.76625E+03 -3.95228E+03 -3.26523E+02 -2.00542E+03  4.56869E+03
 -5.11701E+03 -3.14033E+03  2.58852E+03 -3.21774E+03 -7.04654E+01 -4.75512E+03  3.71377E+03 -3.51800E+03
  3.77973E+03 -5.44656E+03  5.72910E+03  2.81294E+03  7.30099E+03  6.18919E+03 -2.45769E+03  4.18227E+03
 -1.97905E+03  5.30299E+03  5.46052E+02 -1.70273E+02 -3.72803E+03 -3.31143E+02  2.20824E+03 -1.05640E+03
 -1.68204E+03  3.22895E+03  8.88604E+02  3.12267E+03 -1.53603E+03  2.62506E+03 -3.45286E+02 -2.49053E+03
  4.64124E+02 -2.40987E+03 -2.61298E+03 -4.41385E+03  9.07549E+02 -1.58327E+03  4.63661E+03 -5.73554E+02
  4.45691E+03  1.68220E+03 -6.59622E+01  3.16584E+03  2.35565E+03  4.43247E+03  9.00190E+02 -1.13660E+03
 -6.73861E+03  4.42913E+03 -4.09120E+03 -6.80927E+03  2.37264E+03 -2.26313E+03 -2.38587E+03  3.61746E+02
  1.04994E+03  1.81685E+03 -5.86257E+01 -1.80940E+03  9.71614E+02  6.55376E+02  4.41302E+03 -1.44221E+03
  3.68282E+03  4.17172E+02  4.61984E+02  7.87559E+03  1.94994E+03  1.57367E+03  3.35558E+02 -1.06866E+03
  6.48849E+02  3.21374E+03 -6.13211E+03  5.01376E+03 -7.43935E+03 -4.90054E+02 -2.41609E+03  5.14126E+02
 -6.84278E+02  1.77683E+03  2.25480E+03 -3.20560E+03  4.54615E+03 -4.09778E+03  6.07287E+03  5.28760E+02
  3.70045E+03 -2.09206E+03 -5.68454E+03 -1.50442E+02 -8.47861E+02 -3.52279E+03  5.93160E+03 -3.69097E+03
 -3.66310E+02 -3.78187E+03 -9.20870E+01 -1.53038E+03 -1.59957E+03 -3.35531E+03 -4.15328E+03  1.46136E+03
 -1.46557E+03 -5.46111E+01  2.63640E+03  2.16145E+03 -1.54042E+03  2.57417E+03  3.52576E+03  4.43839E+01
 -3.48562E+03  8.39684E+02  1.83311E+03  2.32657E+03 -2.58418E+03  2.97425E+03 -2.70436E+03  1.71783E+03
  4.22076E+02  6.66377E+02 -2.47624E+03  5.91431E+02 -6.49159E+02 -1.66560E+03 -2.56428E+03 -1.47346E+03
  3.42315E+03 -2.32173E+03  1.00809E+03 -1.81590E+03  4.21685E+03  4.41958E+03  1.65332E+03  9.58500E+02
  3.94493E+01  7.32526E+02 -3.15326E+02 -1.27827E+03 -1.39008E+03 -1.92053E+03 -4.14031E+02 -1.41926E+03
 -3.27223E+03 -1.98849E+03 -4.08279E+02  2.59270E+02 -1.17130E+03  1.62629E+03  1.45632E+03  2.42228E+03
 -8.57992E+02 -7.12715E+02 -3.69422E+02  2.55776E+03 -2.97167E+02 -1.77492E+03  2.23038E+03 -1.86340E+03
  1.15226E+03  1.61835E+02  1.53569E+03 -2.53582E+02  1.53023E+03  4.28494E+03 -4.96926E+02  1.48175E+03
 -1.48466E+03  2.61142E+03 -4.11767E+03 -2.04653E+03 -1.52978E+03 -3.21636E+03  2.05320E+02 -8.67287E+02
 -2.20807E+02 -2.61511E+03  3.85464E+03 -1.53099E+03  3.24769E+02  4.26252E+03  4.48385E+03 -1.31609E+03
  1.90955E+02 -3.61918E+03 -8.12722E+02  4.02571E+03  2.84472E+03  1.45766E+03  3.48626E+02  7.01386E+03
 -1.77161E+03  2.41276E+03 -6.42866E+03 -1.25128E+03 -1.57314E+03  1.21157E+02 -2.21573E+03 -1.27598E+03
 -3.83510E+03 -2.22032E+03  4.87372E+03 -2.16299E+03  1.49547E+03  4.22466E+03 -2.07164E+03  4.11255E+02
  2.94093E+03 -1.58828E+03  9.48599E+01  2.50726E+03  5.59661E+02  2.45115E+03 -3.18448E+02  2.51967E+03
 -1.03102E+03  2.51359E+03 -6.81062E+02 -2.05931E+03  3.77963E+02  2.11808E+03 -2.81496E+03  1.27169E+03
  2.97539E+01  1.57154E+03  4.32376E+02 -1.22531E+03 -5.20061E+02 -2.47008E+03 -3.40135E+03  5.92880E+03
  3.52995E+03  2.16023E+03  1.00418E+03  9.60586E+02  1.82783E+03  6.09092E+03  1.51464E+03 -3.97759E+02
  4.09405E+02  2.34354E+03  1.15109E+03 -5.21223E+02 -1.39093E+03  2.32388E+03 -3.29379E+03 -3.66030E+02
  2.33462E+02 -5.72903E+03  2.70506E+01 -1.92617E+03  9.03124E+02 -2.13068E+03 -1.36859E+03 -4.51854E+03
  2.30886E+03 -2.07512E+03 -5.31940E+02 -2.39025E+03  2.30809E+03 -3.61724E+03  5.77961E+03 -6.30326E+02
 -3.54937E+02 -3.21866E+02  4.78306E+02  4.42984E+01  1.83953E+02  5.23825E+02  2.31072E+02 -3.95572E+02
 -9.95634E+02  2.36612E+03 -3.31316E+03 -3.09508E+03 -7.11115E+02 -4.41830E+02 -3.20703E+03 -9.32983E+02
  5.24723E+03 -1.63188E+03 -2.02050E+03  1.13418E+03 -1.51882E+03 -8.59252E+02 -5.31630E+03 -1.18543E+03
  2.67521E+03  2.78592E+03  2.49322E+02 -1.07327E+03 -8.88189E+00  1.54609E+03  8.87075E+02 -2.64227E+03
  1.44112E+03 -1.73322E+02 -1.37570E+03  2.07953E+03  5.26397E+02 -1.48076E+03  1.21003E+03 -8.71033E+02
 -1.63443E+03 -6.81142E+02  2.13823E+03  1.99229E+02 -2.73133E+03 -2.57071E+03 -1.04106E+03  4.02377E+03
  2.06627E+03 -1.86075E+02 -3.09537E+03 -4.33124E+01 -2.54556E+02 -9.85845E+02 -1.72288E+03 -3.73461E+03
