 $NMID ID='MM_0lb_SNR50_15hz_g50_61.RAW', FMTDAT='(8E13.5)'
 TRAMP=1., VOLUME=1. $END
  3.08759E+05  2.30681E+03  3.35750E+05  2.53672E+05  8.65228E+04  3.43010E+05 -1.29748E+05  2.53781E+05
 -1.90155E+05  8.22393E+04 -1.15324E+05 -3.18737E+04  3.39916E+03 -4.91120E+04  5.40544E+04  1.83231E+03
  3.57703E+04  5.25347E+04 -1.24698E+04  7.34926E+04 -6.10607E+04  6.17387E+04 -8.43800E+04  2.99152E+04
 -7.88775E+04 -1.02386E+04 -5.79324E+04 -5.28317E+04 -1.61447E+04 -7.12206E+04  2.91048E+04 -4.70964E+04
  3.75675E+04  5.80985E+03  1.72001E+04  4.41013E+04 -3.56680E+04  4.93821E+04 -6.71600E+04 -4.75785E+03
 -5.27738E+04 -5.03011E+04 -1.08712E+04 -8.18154E+04  3.55453E+04 -5.32545E+04  4.74108E+04 -1.47621E+04
  4.01058E+04  1.58967E+04  3.25359E+04  2.98997E+04  1.68809E+04  2.67436E+04 -1.61329E+03  2.55837E+04
 -1.65386E+04  9.34617E+03 -2.17773E+04 -6.24161E+03  8.54871E+03 -5.30749E+03  2.19017E+04  1.56940E+04
  2.27491E+03  3.85908E+04 -3.18590E+04  3.46384E+04 -6.45171E+04 -8.24175E+01 -5.26519E+04 -4.06195E+04
 -1.29943E+04 -6.24068E+04  3.87232E+04 -4.57198E+04  5.91190E+04 -6.78679E+03  3.89192E+04  3.08253E+04
 -8.34635E+03  3.73633E+04 -2.78287E+04  9.16427E+03 -3.12644E+04 -6.62714E+03 -1.63160E+04 -9.04453E+03
 -6.41764E+03 -8.68356E+03 -2.25377E+03 -1.95176E+04  9.78047E+03 -2.20916E+04  1.26482E+04 -1.22170E+04
  9.00067E+03  3.95595E+03 -9.10811E+03  1.26849E+04 -1.83275E+04 -8.30388E+03 -8.14986E+03 -3.14261E+04
  2.56955E+04 -4.21505E+04  4.33454E+04 -2.36963E+04  4.41649E+04  1.75362E+04  1.40304E+04  4.70504E+04
 -1.36851E+04  3.44758E+04 -2.38011E+04 -1.62445E+03 -7.62133E+03 -2.34881E+04  2.19878E+04 -3.05015E+04
  4.59841E+04 -4.27502E+03  3.37781E+04  2.69850E+04  1.76573E+04  4.56371E+04 -8.66278E+03  5.07860E+04
 -2.98321E+04  3.21691E+04 -4.08405E+04  8.01344E+03 -4.42269E+04 -1.29742E+04 -2.60411E+04 -3.36520E+04
  4.03879E+03 -3.15579E+04  3.32194E+04 -1.31447E+04  2.95983E+04  1.17909E+04  6.31612E+03  2.15018E+04
 -1.57950E+04  1.20012E+04 -1.03019E+04 -5.42822E+03  1.74877E+03 -1.00829E+04  1.82954E+04 -5.21333E+02
  1.18970E+04  2.15116E+04 -3.67810E+03  2.60152E+04 -2.91164E+04  1.16004E+04 -2.40416E+04 -6.26094E+03
 -1.17888E+04 -1.67659E+04  1.65052E+02 -1.92226E+04  5.21113E+03 -1.66973E+04  1.73741E+04 -1.40596E+04
  2.61653E+04 -1.47678E+04  3.02309E+04  1.77557E+03  1.73546E+04  1.36075E+04  2.89906E+03  3.75566E+04
 -1.40050E+04  2.85353E+04 -2.34495E+04  9.30385E+03 -1.76616E+04 -7.60695E+03 -7.04658E+02 -1.49365E+04
  3.84474E+03  1.60433E+03 -6.67742E+03  5.98892E+03 -1.66209E+04  6.83027E+03 -9.63153E+03 -9.85510E+03
 -1.28681E+04 -2.24723E+04  5.50381E+02 -2.43241E+04  1.15861E+04 -1.41089E+04  2.29694E+04 -8.22932E+02
  8.80219E+03  1.26485E+04 -3.88878E+03  1.61703E+04 -1.68020E+04  1.41577E+04 -1.23157E+04 -8.48150E+03
 -1.47342E+04 -1.71599E+04  2.55785E+03 -2.51129E+04  8.77424E+03 -1.18623E+04  1.80789E+04 -7.23733E+03
  1.54712E+04  3.29149E+03  8.99927E+03  5.28381E+03  6.87459E+03 -2.70364E+03  1.39177E+04 -2.79283E+03
  1.71557E+04  2.56749E+03  1.78483E+04  1.27591E+04  1.45981E+04  2.96120E+04  1.41869E+03  3.30966E+04
 -1.76547E+04  2.81305E+04 -2.82446E+04  1.67386E+04 -3.21687E+04 -5.28950E+03 -2.57274E+04 -2.06788E+04
 -5.39634E+03 -3.13668E+04  3.89755E+03 -2.61557E+04  2.38882E+04 -1.34982E+04  1.92093E+04  7.07580E+02
  8.18693E+03  1.14014E+04 -8.46465E+03  1.30468E+04 -1.49650E+04  2.54421E+03 -1.12914E+04 -5.46745E+03
 -8.66113E+02 -1.35081E+04  6.49390E+03 -6.96141E+03  1.44177E+04 -5.00221E+03  5.06570E+02  7.90421E+03
 -6.91631E+03  2.11274E+02 -5.33022E+03 -7.12600E+03 -2.86430E+03 -1.39891E+04  1.11061E+04 -1.31321E+04
  1.37481E+04 -5.56501E+03  1.92566E+04  2.32800E+03  1.30502E+04  1.37336E+04  6.98665E+03  2.04446E+04
 -8.27474E+03  1.52016E+04 -1.01341E+04  1.27237E+04 -1.73399E+04  7.15871E+03 -9.15123E+03 -1.98783E+03
 -2.18378E+03 -1.32696E+03 -4.05761E+03  4.39269E+03 -3.15306E+03  2.63369E+03 -6.13534E+03  1.32340E+03
 -8.60831E+03  1.28124E+02 -1.30829E+04 -1.13583E+04 -2.57061E+03 -1.46751E+04  1.02909E+04 -1.50797E+04
  8.25751E+03 -7.55769E+01  4.97566E+03 -2.06735E+03  3.17183E+03  3.50793E+03 -5.99771E+03 -1.23831E+03
 -4.87148E+03 -3.31206E+03 -4.01668E+03 -1.21519E+04  4.56337E+03 -1.04134E+04  1.44121E+04 -2.32556E+03
  8.99521E+03  4.91939E+03  1.19682E+04  1.14895E+04 -8.03644E+02  1.00570E+04 -5.22984E+03  1.35927E+04
 -1.02171E+04  4.21593E+03 -5.04132E+03 -1.97806E+02  3.69459E+02 -1.00105E+03  7.47932E+03  9.88477E+01
  3.26731E+03  5.17274E+03  9.39096E+02  5.57089E+03 -9.02522E+03  5.72606E+03 -9.19447E+03 -1.37411E+03
 -6.54059E+03 -1.23479E+04 -1.13519E+03 -1.02577E+04  7.80714E+03 -6.34154E+03  6.01176E+03  3.94750E+02
 -1.43475E+03  8.78181E+03 -4.46288E+03  1.09336E+04 -4.22070E+03  5.33119E+03 -4.55159E+03 -3.22135E+03
 -2.24354E+03 -9.25257E+03  3.05263E+03 -1.02310E+04  1.02118E+04 -8.96967E+03  5.79506E+03 -2.59069E+03
  2.76336E+03  2.09805E+03  4.88287E+02  8.85532E+03 -8.92785E+03  3.04365E+03 -2.51829E+03 -3.70567E+03
 -6.89548E+03 -2.39933E+03  7.35721E+02 -6.77302E+03  3.41022E+03 -3.37099E+03  5.99846E+03  4.02632E+02
  8.27563E+03 -3.33985E+03  1.18735E+03  2.16250E+03 -3.45609E+02 -1.02698E+03 -5.60065E+03 -4.55956E+03
  3.89929E+03 -3.45923E+03  1.23252E+04  9.71621E+02  1.15159E+04  3.20728E+03  1.30800E+04  1.41663E+04
 -6.10724E+03  1.22401E+04 -9.91279E+03  8.49476E+03 -1.76707E+04  2.23559E+02 -9.76150E+03 -4.70521E+03
 -8.12598E+03 -1.41876E+04 -5.75726E+02 -4.96589E+03  7.26579E+03 -4.66883E+03  2.85394E+03 -7.25180E+03
  3.08508E+03 -1.72856E+02  2.55946E+03  3.75247E+02 -1.49285E+00  1.60624E+03  3.13979E+03 -1.58223E+03
  5.70729E+03 -2.37946E+03  2.40920E+03  4.77741E+03  1.25188E+03  4.75568E+03 -5.65614E+03  3.78786E+02
 -1.10121E+04  6.98197E+01 -3.18708E+03 -6.67126E+03 -1.14073E+03 -8.74646E+03  4.06044E+03 -1.40989E+04
  2.65326E+03 -4.41759E+03  1.48092E+04 -1.45575E+03  7.01940E+03  5.61626E+03  5.97378E+03  8.88403E+03
 -5.65471E+03  1.19418E+04 -6.72274E+03 -2.02907E+03 -5.81198E+03  2.92412E+03  1.79127E+03  3.88189E+03
  8.82416E+02 -7.75101E+02  1.59088E+03 -6.57239E+02 -1.48483E+03  2.54453E+03 -4.72272E+03 -1.77145E+03
 -2.23711E+03 -2.99279E+03 -5.59848E+03 -6.37726E+03  1.08501E+04 -8.35836E+03  4.82611E+03  2.96265E+03
  6.76162E+03  4.32304E+03  4.10110E+03  7.79438E+03 -7.52489E+03  7.77559E+03 -1.63189E+03  1.02313E+04
 -7.67476E+03 -1.15862E+03 -9.88339E+03  2.12984E+02 -6.28061E+02 -5.58579E+03  1.95368E+03 -4.84714E+03
  2.43180E+03 -4.90055E+02 -3.45928E+03 -1.36128E+03  1.72782E+03  4.21509E+02  4.25454E+03 -9.08096E+02
  5.39702E+03 -3.17618E+02 -8.11259E+01  2.85725E+03  1.76640E+03  5.45371E+03  5.60691E+03  8.66182E+02
  2.53897E+03  3.65259E+03  1.61487E+03  3.59813E+03 -5.71557E+03  9.95186E+02 -7.28758E+03  2.77641E+02
 -4.92994E+03 -6.74951E+03 -2.47705E+03 -9.87709E+03  8.61144E+03 -4.33419E+03  9.27081E+03 -1.57709E+03
  7.91480E+02  3.32929E+03  2.38639E+03 -7.83582E+01 -4.46994E+03  2.28401E+03 -6.60857E+03  1.54954E+03
  2.29610E+03 -7.59010E+03  3.92018E+03 -4.39372E+03  3.44137E+03 -3.16174E+03  1.60128E+03 -2.19355E+03
  1.91870E+02 -4.19633E+03  6.38033E+02  1.40583E+02 -4.22975E+03  1.21974E+03 -7.29846E+02  3.16365E+02
  2.72938E+03  1.40233E+03  2.77296E+03 -2.06079E+03  2.32430E+03  2.99046E+03 -9.77085E+02  1.07722E+04
 -1.12423E+03  4.86156E+03 -7.04375E+03 -2.62963E+03 -5.49756E+03 -1.04289E+03  2.81780E+03  5.16687E+02
  3.70987E+02 -4.63609E+03 -7.17547E+02 -3.55661E+03 -1.03973E+03  1.33735E+03 -5.99309E+02  3.32490E+03
 -1.51652E+03  2.09013E+03  5.49245E+02 -8.10208E+02 -2.82132E+03 -1.78571E+03  3.80964E+03 -2.79087E+03
  2.57738E+03 -3.95118E+03  5.64287E+01  1.23242E+03  5.62308E+03 -2.49811E+03  3.04915E+03 -3.25638E+03
 -3.51447E+03  1.83090E+03 -6.79774E+02  1.15139E+03 -1.05760E+03 -7.72960E+02  1.71049E+03 -2.97614E+03
  4.92133E+03  3.21075E+03  3.35688E+03  7.56761E+03  6.01306E+01  4.84316E+03 -1.48083E+03  2.49428E+03
 -1.36813E+03  1.35837E+03  1.02910E+03  2.94876E+02 -6.98054E+03 -5.53676E+03 -2.99672E+01 -4.21034E+02
  4.87099E+03 -3.04665E+03 -2.15730E+02  5.86538E+03  2.55270E+03  2.50805E+03  4.55540E+03  5.32739E+02
  2.63447E+03 -5.17752E+02  1.55609E+03  4.35215E+03  5.97137E+01 -1.35334E+03  1.25623E+03  1.96558E+03
  2.10459E+03  3.72360E+03 -8.63844E+03 -3.72662E+03  2.45316E+02 -4.31666E+02 -9.33797E+03 -1.68101E+03
 -1.94456E+03 -8.15810E+03  2.35108E+02 -9.53083E+03  2.95310E+03 -1.85951E+03  2.26755E+03 -1.68856E+02
  4.73771E+03 -1.34455E+03  1.30420E+03  8.10671E+02 -8.56763E+02  5.10129E+03 -1.53580E+03  4.02457E+03
  1.99600E+03 -3.44094E+02 -9.15180E+03 -1.45784E+03 -3.54763E+03  2.14383E+03 -1.96877E+03  9.07396E+02
  1.19718E+03 -4.03830E+03 -8.46751E+02  2.83612E+03  4.74741E+03  3.74402E+03  2.19999E+03 -1.85528E+03
  3.03513E+03 -1.53462E+03 -2.16543E+03 -1.23311E+03  4.85383E+03  1.44027E+03 -6.47292E+02  4.39420E+03
 -1.72433E+03  4.45277E+03 -3.71928E+03  2.78080E+03  1.98753E+02 -6.42098E+03 -4.01121E+03 -3.21184E+03
 -2.11870E+03 -3.21491E+03 -1.91816E+03  6.59272E+02 -7.39988E+01 -1.67739E+03  4.86770E+03 -4.50384E+03
 -4.88162E+02 -2.61369E+03 -1.76436E+03  2.49865E+03  1.20521E+02  1.98042E+02  1.04412E+03  2.52408E+03
  8.77091E+01 -1.51189E+03 -2.15098E+03 -4.68770E+01  1.22599E+03  4.98626E+03  3.01984E+03  1.15281E+03
  1.42953E+03 -1.98463E+02  8.77438E+02  1.77948E+03 -5.54267E+03 -2.32751E+03 -2.05740E+03  6.67547E+02
 -2.48106E+03 -2.69534E+03 -1.34812E+03 -3.39387E+03  2.23135E+03  1.40362E+03  7.06694E+02  3.55798E+03
  1.85236E+03  4.48679E+03  3.50194E+01  1.86166E+03 -3.53248E+03  2.96369E+03 -5.74837E+02  1.77040E+03
  2.07430E+03  1.41509E+03  8.72073E+02 -7.72909E+01 -2.53447E+03 -5.64754E+02 -1.76038E+03 -1.35831E+03
 -3.58695E+02 -2.53242E+03 -1.02331E+03 -2.53958E+03  4.45308E+02 -3.53819E+03  5.47653E+03 -4.67781E+03
  7.07866E+01  1.87341E+03 -2.15343E+03 -2.30899E+03  3.96303E+03 -1.55133E+03 -4.72299E+03  7.42976E+02
