 $NMID ID='MM_0lb_SNR50_12hz_g40_96.RAW', FMTDAT='(8E13.5)'
 TRAMP=1., VOLUME=1. $END
  3.10298E+05 -1.79672E+03  3.33867E+05  2.50042E+05  8.81890E+04  3.36995E+05 -1.31927E+05  2.54557E+05
 -1.84597E+05  7.98013E+04 -1.08263E+05 -3.17777E+04 -5.71401E+02 -5.17626E+04  5.11060E+04 -1.28732E+03
  3.38210E+04  5.28935E+04 -1.47998E+04  7.47755E+04 -5.69836E+04  6.77415E+04 -8.28072E+04  3.25890E+04
 -8.19439E+04 -1.33061E+04 -5.66044E+04 -5.55034E+04 -1.22439E+04 -7.28713E+04  3.16905E+04 -4.43301E+04
  3.81112E+04  5.70261E+03  1.51412E+04  4.54992E+04 -3.36794E+04  5.17761E+04 -6.44113E+04  9.98782E+01
 -5.50430E+04 -5.84073E+04 -5.98994E+03 -7.83114E+04  3.29885E+04 -5.93603E+04  5.11398E+04 -2.20274E+04
  4.30499E+04  8.69633E+03  3.47908E+04  2.87309E+04  1.56992E+04  2.78305E+04 -8.28849E+03  3.08326E+04
 -1.50601E+04  2.02810E+04 -2.05629E+04 -6.91800E+03  5.28082E+03 -7.74865E+03  2.16061E+04  1.14283E+04
  1.21641E+04  3.37877E+04 -3.20869E+04  3.51003E+04 -6.65695E+04  6.92615E+03 -5.84452E+04 -4.08338E+04
 -1.08991E+04 -6.65075E+04  3.79648E+04 -4.81125E+04  5.96974E+04 -7.10130E+03  3.67583E+04  3.25540E+04
 -4.85137E+03  3.64017E+04 -3.16527E+04  1.45123E+04 -2.90627E+04 -4.22106E+03 -1.34210E+04 -1.13874E+04
 -4.91566E+03 -1.70363E+04 -2.71200E+03 -1.65111E+04  1.16313E+04 -2.39214E+04  1.57195E+04 -1.58513E+04
  1.19336E+04  5.19362E+03 -8.14726E+03  1.61733E+04 -2.62383E+04 -3.50786E+03 -9.04437E+03 -2.83037E+04
  2.54367E+04 -4.06720E+04  5.04176E+04 -2.18122E+04  4.00665E+04  1.60431E+04  1.72425E+04  4.51316E+04
 -2.01260E+04  3.59130E+04 -3.02838E+04  2.37079E+03 -6.91202E+03 -2.82511E+04  2.35368E+04 -3.48585E+04
  4.03391E+04 -1.09723E+04  3.58401E+04  2.08479E+04  1.91119E+04  4.45613E+04 -9.51499E+03  4.73811E+04
 -2.98702E+04  3.71456E+04 -4.05933E+04  7.22415E+03 -4.38687E+04 -2.21960E+04 -2.55247E+04 -3.89333E+04
  1.09549E+04 -4.05742E+04  3.27908E+04 -1.74041E+04  2.84597E+04  1.05583E+04  4.94944E+03  2.13284E+04
 -1.41707E+04  6.97643E+03 -7.51909E+03 -1.15736E+04  1.01279E+03 -1.52109E+04  1.77172E+04  9.26380E+03
  1.30693E+04  1.96047E+04 -8.92034E+03  3.07620E+04 -2.55306E+04  1.18551E+04 -3.08552E+04 -2.65937E+03
 -2.30864E+04 -1.68224E+04 -8.54359E+03 -2.33609E+04  3.23173E+02 -2.11399E+04  1.55509E+04 -1.87897E+04
  2.88699E+04 -1.57085E+04  3.31236E+04  4.46227E+03  2.31379E+04  2.30054E+04  5.08247E+03  3.58815E+04
 -1.76406E+04  2.50180E+04 -2.80992E+04  1.24021E+04 -2.34395E+04 -1.29595E+04 -3.14574E+03 -1.59731E+04
  4.51430E+03 -7.27869E+03 -2.17505E+03  6.24121E+03 -2.09324E+04  3.17375E+03 -2.21223E+04 -9.23972E+03
 -1.25994E+04 -1.76585E+04  4.29594E+03 -2.35942E+04  1.53958E+04 -1.75062E+04  2.03774E+04 -2.55682E+03
  1.12107E+04  1.39833E+04  7.99909E+02  2.13322E+04 -1.07466E+04  7.95653E+03 -2.07677E+04  1.06842E+03
 -1.39384E+04 -2.26098E+04 -6.89308E+03 -2.38477E+04  1.31047E+04 -2.60812E+04  1.92829E+04 -1.14052E+04
  1.87933E+04 -1.82467E+03  1.29393E+04  6.40561E+03  2.29798E+03  1.50548E+03  7.87341E+03 -2.00605E+03
  2.20671E+04  3.32773E+03  2.08571E+04  1.63733E+04  1.41832E+04  2.32567E+04 -4.75027E+03  3.65642E+04
 -1.86904E+04  2.51620E+04 -3.90362E+04  1.28083E+04 -3.63756E+04 -2.90014E+03 -2.89047E+04 -2.28596E+04
 -3.10769E+03 -2.75007E+04  6.57874E+03 -2.16358E+04  2.44798E+04 -9.68447E+03  2.12194E+04  7.77538E+03
  1.23448E+04  1.63847E+04 -4.42672E+03  1.78526E+04 -1.50346E+04  2.64371E+03 -1.15682E+04 -1.04380E+04
 -1.01971E+03 -1.86638E+04  5.53441E+03 -1.94525E+04  7.56179E+03 -3.12560E+03 -9.45169E+02  7.70878E+03
 -1.26624E+04  3.44050E+03 -1.01562E+04 -1.34526E+04 -2.68119E+03 -1.24979E+04  8.67806E+03 -2.02888E+04
  1.93331E+04 -6.72809E+03  2.32432E+04 -2.40240E+03  1.53190E+04  1.36410E+04  1.43706E+04  2.31437E+04
 -8.10741E+03  2.69263E+04 -9.02126E+03  1.49791E+04 -1.52531E+04  6.33673E+03 -8.66476E+03 -1.13015E+03
 -5.95556E+03 -5.62493E+03 -3.23938E+03  2.57649E+02 -1.74958E+03  4.60642E+03 -8.71285E+03  6.73415E+03
 -1.19577E+04 -2.22865E+03 -1.04061E+04 -9.29872E+03 -4.60110E+03 -1.77138E+04  8.46969E+03 -8.40670E+03
  9.69339E+03 -7.87161E+03  8.51786E+03  1.35149E+03  2.12398E+03  8.02592E+03 -1.76578E+03 -3.28863E+03
 -6.28759E+03 -5.38784E+03  6.63571E+02 -1.08711E+04  8.12880E+03 -1.31429E+04  1.70053E+04 -9.72288E+03
  2.22486E+04  2.50999E+03  1.44610E+04  1.16203E+04 -1.49072E+03  5.60535E+03 -6.17111E+03  9.35827E+03
 -1.12511E+04  3.06821E+03 -5.42738E+03 -3.20412E+02  1.90637E+03 -9.27301E+01  7.24410E+03  2.65436E+03
  1.01796E+04  2.44055E+03  3.08591E+03  1.27902E+04 -1.01627E+04  5.56100E+03 -7.19408E+03  4.52588E+03
 -3.03772E+03 -5.24424E+03  8.51929E+02 -6.58957E+03  4.96907E+03 -9.25960E+03  3.13510E+03  3.02675E+03
 -2.79269E+03  9.00134E+03 -2.91532E+03  6.67288E+03 -7.86797E+03  2.83487E+03 -8.71539E+03 -3.20992E+03
 -7.78672E+03 -1.08384E+04  5.90416E+03 -1.69022E+04  6.65782E+03 -6.01157E+03  1.47040E+04  4.15901E+03
  5.39630E+03  9.84659E+03 -1.60285E+03  1.12844E+04 -4.60940E+03  7.60695E+03 -6.87264E+03  8.10888E+02
 -9.71869E+03 -7.79526E+03 -5.67910E+03 -1.22349E+04  2.42277E+03 -4.60830E+03  5.07393E+03 -6.21677E+03
  8.80497E+03  3.69841E+03 -2.42633E+03 -5.43946E+03  9.89708E+02 -1.44597E+03  3.56798E+03 -5.27598E+03
  1.15536E+04 -4.15473E+03  1.61587E+04 -3.08485E+03  1.00292E+04  1.01081E+04  9.71495E+03  1.81277E+04
 -4.72778E+03  1.27102E+04 -1.24866E+04  1.13678E+04 -1.66608E+04  2.91307E+03 -1.19261E+04 -3.84701E+03
 -6.62490E+03 -1.29737E+04 -2.10782E+03 -7.48339E+03  4.71522E+03 -7.98918E+02  4.80085E+03 -4.60267E+03
  3.09972E+03  2.95580E+02  2.44511E+03 -1.07315E+01  3.92882E+03 -5.83823E+03  1.11000E+04 -6.72701E+02
  4.97179E+03  2.99295E+03  1.39984E+03  1.03921E+04  1.24971E+02  1.07547E+04 -1.36294E+04  1.09434E+04
 -8.64561E+03 -3.01265E+02 -4.48807E+03 -8.12812E+03 -3.33049E+03 -1.78907E+04  8.02945E+03 -4.24467E+03
  1.27066E+04 -7.84331E+03  1.32226E+04  3.53877E+03  1.10953E+04  6.28654E+03 -2.26009E+02  1.26585E+04
 -4.78236E+03  8.25769E+03 -5.58317E+03  2.45622E+03 -1.09710E+04 -5.68386E+03 -4.44148E+03 -4.74717E+03
 -4.34227E+03  1.80769E+03  2.54301E+03  5.51329E+03  1.26515E+03  6.75155E+03 -2.76726E+03 -6.48115E+03
 -7.01018E+03 -3.45783E+03  2.61747E+03 -9.23166E+03  7.69568E+03 -5.76967E+03  9.45637E+03 -1.54448E+03
  1.20917E+04  6.85331E+03  2.20103E+03  1.19022E+04 -1.18130E+03  1.06754E+04 -6.95837E+03  1.03848E+04
 -4.06386E+03 -4.53932E+03 -6.44265E+02 -4.05902E+03 -6.40105E+03 -1.15104E+04  3.03550E+03 -5.04402E+03
  7.02267E+03 -6.36056E+03  5.75072E+03 -1.05706E+03  2.31671E+03  1.90268E+03  4.40069E+03  2.43092E+03
 -2.74501E+03  2.62940E+03 -8.06609E+02  2.53855E+03  4.33540E+03  1.57510E+03  3.81802E+03  7.61717E+03
 -2.41598E+03  2.14696E+03 -4.78548E+03  7.19798E+03 -5.89831E+03  2.65492E+03 -8.75099E+03 -3.46877E+03
 -5.82755E+03 -1.27226E+04  1.82994E+03 -1.05036E+04  2.67513E+03 -9.38013E+03  1.10742E+04 -1.36017E+03
  6.40625E+03  5.69340E+03  6.54036E+03  4.59767E+03 -1.89489E+03  2.05459E+03 -3.64382E+03 -2.45076E+03
 -1.03420E+03 -1.95019E+03 -1.87642E+03  2.28736E+03  6.76966E+03 -3.15488E+03  6.95157E+03  3.40078E+03
  4.65072E+03 -2.71958E+03  2.96286E+03  4.43269E+03 -5.44733E+03 -4.90099E+03 -1.94290E+03  1.66470E+03
  1.52264E+03 -1.61362E+03  1.56875E+03 -1.33674E+03 -5.87966E+02  1.02603E+04 -5.38175E+03  4.23911E+03
 -5.01028E+03  3.02801E+03 -7.84387E+03  1.26331E+03 -2.59582E+03  2.47949E+03 -3.60186E+03 -1.47732E+03
  2.31856E+03 -2.45809E+03 -5.07049E+02 -9.29231E+02  7.85456E+02  1.77831E+03  1.98439E+02  5.59576E+03
 -2.57852E+03 -2.09583E+03 -6.79707E+03 -6.59480E+03 -1.92486E+02 -1.21968E+04  1.84083E+03 -4.98815E+03
  3.61245E+03  7.50818E+02  4.48182E+03 -5.52902E+03  2.29694E+03  2.26082E+03  3.71577E+02  8.03233E+03
 -1.64119E+03  6.03283E+03 -8.57936E+02  3.38779E+03  2.04306E+03 -3.57324E+03  5.80922E+03 -4.02993E+03
  6.66692E+03  2.51879E+03  5.40560E+03  3.82358E+03  5.34776E+03  8.51638E+03  7.28334E+02  1.25249E+04
 -4.13030E+03 -6.93855E+02 -5.83120E+03 -4.29018E+03 -1.20515E+03 -8.29742E+03 -1.84400E+03 -9.76823E+02
  3.46943E+03 -1.78125E+03  1.17681E+04  2.50458E+03  2.84016E+03  7.67685E+03 -2.53599E+03  2.67587E+03
 -5.98144E+03  3.82925E+03  4.90321E+02 -2.28833E+03 -1.45193E+03  5.34997E+03 -5.17523E+02  3.03739E+03
 -2.26636E+03  4.36421E+03 -3.22984E+03  4.69731E+03 -3.27772E+03  7.96171E+03 -2.25862E+02 -3.01687E+03
 -1.82801E+03 -9.62050E+03  2.35071E+02 -6.38719E+03  4.91224E+03 -5.77753E+03  8.02622E+03 -4.21594E+03
  6.72988E+03 -8.26315E+02  4.45988E+02  7.53439E+03 -4.81928E+03  1.21745E+04  1.58630E+03  2.41866E+03
 -8.15148E+03 -1.08983E+03 -2.59081E+03  1.08103E+03 -8.53825E+02  2.05387E+02  4.86257E+03  1.84153E+03
 -1.54563E+03 -2.20551E+03  2.73682E+02  1.46880E+03 -3.31538E+03 -9.82915E+03  2.58029E+03 -1.38887E+03
  3.39387E+03 -6.76873E+03  2.73281E+03  1.59749E+03  5.70408E+03 -4.95900E+01  7.38633E+03  4.55024E+03
 -7.11071E+03  6.02524E+03 -2.35212E+03  1.52095E+03 -2.68813E+03 -6.20863E+02 -5.22246E+03  2.99309E+02
 -2.38499E+03 -3.53164E+03  3.85472E+03 -5.10824E+03  1.15305E+04 -2.28451E+03  3.82873E+03  1.82993E+02
  3.72003E+03  6.10558E+03 -2.67757E+03  2.79641E+03 -3.54677E+03  1.14126E+02  2.86623E+03 -2.78810E+03
 -1.84890E+03 -1.11353E+03  3.59266E+03 -1.34723E+03  5.48625E+03  8.41039E+03  7.33053E+02 -6.14939E+02
 -3.13884E+03 -7.16091E+02 -5.26998E+03  3.79258E+03 -4.92963E+03 -1.33875E+03  2.72686E+03 -6.04595E+03
  6.70846E+03  1.47231E+03  7.29051E+03 -5.70320E+03  4.03958E+03 -3.55961E+03  2.53354E+03  1.01567E+03
  1.28709E+03  1.23821E+03 -1.22188E+03  5.23402E+03  1.71571E+03 -4.11119E+02 -2.10704E+03  5.17081E+02
 -2.36710E+03  1.12797E+03 -3.90826E+03 -5.57445E+03 -3.06403E+02 -2.39817E+03 -4.29957E+03 -9.26312E+02
 -4.51002E+03  1.43406E+03  1.12712E+02  8.08257E+02 -2.55698E+03 -3.50590E+03  1.61842E+03 -5.70400E+03
  2.13629E+03  1.45797E+03  1.08999E+03  2.36059E+03 -1.92757E+02  1.12649E+04  2.09616E+03 -6.54541E+02
