 $NMID ID='MM_0lb_SNR50_15hz_g50_86.RAW', FMTDAT='(8E13.5)'
 TRAMP=1., VOLUME=1. $END
  3.11003E+05 -4.30058E+03  3.38327E+05  2.52503E+05  8.85786E+04  3.36010E+05 -1.33456E+05  2.57952E+05
 -1.95900E+05  8.76645E+04 -1.15190E+05 -2.66270E+04  5.89316E+03 -4.83729E+04  5.00311E+04 -3.74134E+03
  3.66250E+04  5.56505E+04 -1.66677E+04  7.31883E+04 -6.45469E+04  6.42243E+04 -8.47526E+04  2.93068E+04
 -8.29850E+04 -1.67990E+04 -5.56565E+04 -4.90502E+04 -1.31545E+04 -6.88209E+04  2.21289E+04 -4.23468E+04
  3.90453E+04  3.71799E+03  1.15736E+04  4.56416E+04 -3.06237E+04  4.77499E+04 -6.73898E+04 -2.48480E+03
 -5.14927E+04 -5.41664E+04 -7.81366E+03 -7.84198E+04  3.46649E+04 -5.59273E+04  4.62685E+04 -1.58050E+04
  4.31489E+04  7.00389E+03  3.30554E+04  2.14983E+04  1.60768E+04  2.81087E+04 -2.21393E+03  2.67909E+04
 -2.46906E+04  3.42028E+03 -2.05627E+04 -4.29848E+03  8.27246E+03 -8.84865E+03  2.51380E+04  6.80685E+03
  3.94918E+03  3.36230E+04 -3.01962E+04  2.84195E+04 -6.02137E+04 -1.17612E+02 -5.66916E+04 -4.58255E+04
 -1.13942E+04 -6.31824E+04  3.78787E+04 -4.54625E+04  6.12422E+04 -7.73211E+03  3.20372E+04  2.98286E+04
 -1.62797E+03  3.38794E+04 -2.31218E+04  1.69624E+04 -2.92427E+04 -3.02219E+03 -1.32777E+04 -1.78498E+04
 -1.23849E+04 -1.00885E+04  3.27074E+03 -1.70441E+04  1.13035E+04 -2.40110E+04  1.30051E+04 -1.55436E+04
  9.94965E+03  4.76856E+03 -7.43526E+03  1.22940E+04 -2.39805E+04 -7.58112E+03 -9.64180E+03 -3.00897E+04
  1.94807E+04 -4.41168E+04  4.33198E+04 -2.41793E+04  4.58501E+04  2.15012E+04  2.02110E+04  4.04429E+04
 -1.66452E+04  3.05440E+04 -2.23765E+04  9.65109E+02 -1.14340E+04 -2.81714E+04  2.20302E+04 -3.13871E+04
  4.05031E+04 -7.44592E+03  3.53194E+04  3.10944E+04  2.03140E+04  4.50518E+04 -3.09895E+03  5.10047E+04
 -3.15035E+04  3.37544E+04 -4.27679E+04  1.11860E+04 -4.06087E+04 -2.20146E+04 -2.32172E+04 -3.72608E+04
  2.94297E+03 -3.32339E+04  3.43133E+04 -1.15251E+04  3.10237E+04  1.62852E+04  2.71229E+03  1.97046E+04
 -1.29693E+04  5.57876E+03 -9.58383E+03 -8.22929E+03  3.99714E+03 -1.02604E+04  2.34965E+04  2.77406E+03
  1.46203E+04  2.14922E+04 -7.47116E+03  2.60281E+04 -1.86635E+04  9.94325E+03 -2.65315E+04 -5.66265E+03
 -1.25663E+04 -1.34252E+04 -4.00597E+03 -1.91934E+04  5.31194E+03 -1.67763E+04  1.62774E+04 -1.88541E+04
  2.58476E+04 -9.52032E+03  3.74106E+04  1.64228E+03  2.25210E+04  2.14268E+04  7.04186E+03  3.44376E+04
 -1.68030E+04  3.05470E+04 -2.87174E+04  8.14599E+03 -2.29032E+04 -1.00157E+04 -8.90400E+03 -1.44193E+04
  2.93736E+03 -1.79283E+03 -8.54310E+03  9.26775E+03 -1.84875E+04  4.77393E+03 -1.31584E+04 -2.00517E+03
 -5.83286E+03 -1.78829E+04  4.91862E+03 -2.03812E+04  1.37644E+04 -1.90048E+04  1.83480E+04 -4.51096E+03
  6.52151E+03  1.12921E+04 -5.87135E+02  1.98197E+04 -1.07450E+04  7.50971E+03 -1.92049E+04 -4.68840E+03
 -1.39630E+04 -1.86696E+04 -2.19689E+03 -2.29452E+04  5.84886E+03 -1.90746E+04  2.00552E+04 -1.24739E+04
  1.85026E+04  4.50384E+03  1.23385E+04  4.30457E+03  1.26871E+04 -3.06115E+02  1.11336E+04 -7.39423E+02
  1.48173E+04  2.51014E+03  1.63181E+04  1.64452E+04  1.31582E+04  2.94898E+04  2.12166E+03  3.22155E+04
 -1.72228E+04  2.54130E+04 -3.42083E+04  1.42174E+04 -2.77541E+04 -2.20440E+03 -2.44726E+04 -1.72053E+04
 -1.12540E+04 -2.07702E+04  8.09205E+03 -2.17781E+04  1.71595E+04 -1.00515E+04  1.80941E+04  2.92816E+03
  8.81078E+03  1.38792E+04 -1.00233E+04  1.28165E+04 -1.52760E+04 -1.80703E+03 -1.73072E+04 -8.31775E+03
  1.94438E+03 -1.96346E+04  1.21781E+04 -9.01539E+03  1.07420E+04 -8.66281E+02  3.85607E+03  9.49223E+03
 -4.63878E+03  4.05285E+03 -4.92032E+03 -7.05524E+03 -4.48362E+03 -1.57810E+04  5.43910E+03 -1.49871E+04
  1.84491E+04 -1.11757E+04  1.17096E+04 -9.67962E+02  1.23187E+04  1.63433E+04  3.36861E+03  2.19158E+04
 -6.27989E+03  2.38000E+04 -1.31426E+04  9.78149E+03 -1.20984E+04 -9.23257E+02 -1.39344E+04 -3.79076E+03
 -6.94442E+03 -1.86836E+03 -2.00058E+03  3.58494E+03  3.57129E+03  5.48683E+03 -7.09415E+03 -1.19699E+03
 -1.15892E+04  1.88087E+03 -1.00763E+04 -1.16047E+04 -6.32624E+03 -1.57591E+04  4.80130E+03 -1.09684E+04
  5.20409E+03  4.66996E+02  6.61582E+03  6.56607E+03 -1.22542E+03  5.18737E+03 -4.10663E+03  7.82706E+02
 -4.31282E+03 -8.44927E+03 -2.76340E+03 -7.01010E+03  6.86748E+03 -1.38755E+04  1.21685E+04 -5.14870E+03
  1.46889E+04  5.25337E+03  1.05928E+04  1.18563E+04 -5.95677E+02  1.15418E+04 -7.71953E+03  1.02481E+04
 -7.08586E+03  6.76822E+03 -2.03344E+03 -1.40024E+03 -2.26946E+01 -1.71703E+03  3.03206E+03  2.43528E+03
  4.77533E+03  4.77769E+03  3.39519E+03  5.30203E+03 -7.99855E+03  8.94694E+03 -5.49273E+03  8.35597E+02
 -1.01022E+04 -2.78333E+03  1.35905E+03 -2.26422E+03  2.59968E+03 -5.98618E+03  4.64521E+03 -1.35669E+02
 -8.56488E+02  5.82745E+03 -5.02602E+03  3.88259E+03 -6.71112E+03  1.35746E+03 -7.63499E+03 -3.51597E+02
 -9.33479E+02 -6.88626E+03  3.00440E+03 -1.26276E+04  8.64941E+03 -7.10165E+03  1.56040E+04  3.41516E+03
  2.46184E+03  6.37904E+03 -7.65079E+02  8.93542E+03 -8.24051E+03  4.95820E+03 -6.99032E+03  4.82867E+02
 -7.10009E+03 -1.10523E+04  8.24402E+02 -8.87446E+03  3.94269E+03 -2.74169E+03  2.98491E+03 -7.51835E+01
  6.08046E+03  5.61859E+03  2.99334E+03  1.95843E+03  8.00296E+02 -4.87293E+02  1.38824E+02 -1.83001E+03
  7.75647E+03  4.73460E+02  7.64045E+03  6.65689E+03  8.20049E+03  6.26313E+03  1.66235E+03  6.29783E+03
 -1.87817E+03  1.89368E+04 -9.38165E+03  8.41412E+03 -1.17688E+04  2.41220E+03 -1.23253E+04 -8.84193E+02
 -6.94988E+03 -1.10084E+04  3.10239E+03 -6.03379E+03 -3.16358E+02 -6.17806E+03  4.53026E+03 -5.74106E+03
  2.18556E+03 -1.93491E+03  4.65526E+02 -2.46929E+03  2.46485E+03 -3.93991E+03  4.12068E+03 -1.75027E+03
  1.04754E+03 -2.42353E+03  2.81716E+03  4.31142E+03 -9.10153E+02  3.36968E+03 -9.50000E+03  2.12291E+03
 -1.03099E+04  1.09166E+03 -1.43266E+02 -2.47837E+03  1.30167E+03 -5.58499E+03  5.11116E+02 -1.04190E+04
  1.10974E+04 -6.29629E+03  6.19963E+03  4.21812E+03  8.10240E+03  3.49090E+03  1.68903E+03  9.22975E+03
 -3.19791E+03  6.86163E+03 -2.65738E+03 -2.09961E+03 -5.84663E+03 -2.23861E+03 -3.20725E+03 -6.30201E+03
  2.33760E+03  3.20732E+03 -3.93467E+03 -1.40492E+03 -6.54599E+03  4.55294E+03 -7.18882E+03 -8.54280E+02
 -5.83973E+03 -1.08317E+03  1.70028E+03 -5.41769E+03  2.70371E+03 -6.60573E+03  8.33977E+03 -3.36044E+02
  9.09118E+03  6.08851E+03  4.02733E+03  8.62338E+03 -2.53398E+03  8.98178E+03 -5.79245E+03  5.24600E+03
 -6.15210E+03 -1.79490E+03 -5.46339E+03 -3.95940E+03 -7.16618E+03 -1.65610E+03  5.64871E+03 -6.96765E+03
  4.49564E+03 -1.40553E+03  7.72941E+03  3.50541E+03  2.92145E+03 -1.36315E+03  5.31398E+02  7.87589E+02
  1.13398E+03  4.39871E+03 -5.31381E+02 -4.30992E+03  9.63841E+02  1.44456E+03  5.07618E+03  7.65214E+02
  2.46583E+02  5.10544E+03 -3.69184E+03  2.87063E+03 -2.62568E+03  1.03551E+03 -1.71554E+03 -4.18275E+03
 -6.35811E+03 -8.28345E+03  2.38316E+03 -7.55898E+03  4.40387E+03 -4.04426E+03  4.29543E+03 -5.03240E+03
  4.39046E+03  1.73630E+03  3.22140E+02  3.27447E+03 -4.71927E+03  8.60637E+01  3.52198E+02 -2.58399E+03
 -6.14302E+02  4.12992E+02  2.15721E+03 -7.17248E+03  1.57026E+03  1.78522E+03  1.13565E+03  2.63775E+01
 -2.94464E+02  4.15017E+03  4.42311E+03 -2.68558E+03 -2.21117E+03  1.55009E+03  2.18892E+03 -1.43936E+03
 -9.64672E+02 -3.66363E+03  4.29420E+03  2.24883E+03 -1.78150E+03  6.79106E+02  2.17875E+03  2.06388E+03
  3.69913E+02  9.56853E+03 -4.78890E+02  7.04695E+02 -6.61387E+03 -5.48117E+03  2.04650E+03 -5.28883E+03
  4.54866E+02 -3.77469E+03 -3.82745E+03 -3.61861E+03 -3.17292E+03  2.68655E+03 -2.21175E+03 -9.05396E+02
 -1.35533E+03 -9.35955E+01 -3.87753E+03 -4.85125E+01  1.85057E+03 -4.49494E+03  2.12149E+03 -7.12291E+03
  2.44867E+03  8.56737E+02  5.35742E+03 -1.68655E+03  1.58250E+03  9.58341E+02 -2.04807E+03  9.18690E+02
  1.58323E+03 -4.22784E+03 -1.05961E+03 -9.26767E+02 -6.62233E+03 -3.18891E+03  4.69184E+03  8.64380E+02
  1.38012E+03 -1.52239E+03  6.07448E+03  4.30190E+03 -3.73059E+02  5.89079E+03 -2.51032E+03  9.90724E+02
 -2.44572E+03  5.96949E+03  2.01168E+03 -7.57773E+03  1.49090E+02 -3.01012E+03 -3.04359E+02  1.44808E+03
  7.38528E+02  2.19870E+03  2.33531E+02  3.92714E+03  6.27804E+01  2.27186E+03  5.38591E+03  3.92996E+03
  4.83066E+03  2.97798E+02  8.68935E+02 -2.51477E+02 -2.72089E+03  1.99645E+02  1.62467E+03  1.06009E+03
 -2.03349E+03  5.35028E+03 -3.08809E+03  3.72383E+02 -2.54351E+03 -2.46951E+03 -3.57108E+03 -8.93478E+02
 -2.25527E+03 -3.61999E+03  1.55734E+03 -3.65814E+03  3.21714E+03 -1.02622E+03  1.68154E+03 -2.01453E+03
  3.68104E+03  6.12722E+03  1.07760E+03  5.92293E+03  1.22593E+03  7.08299E+03  6.13396E+03  3.06997E+02
 -3.62216E+03  3.21543E+03  6.47492E+02 -1.98227E+02 -9.44270E+02  2.07299E+03  3.19720E+01 -2.21764E+03
  4.46584E+03  4.35137E+03 -1.00464E+02 -1.74729E+02 -3.51865E+03  3.18519E+03  9.49973E+02  6.56762E+02
  2.21889E+03 -1.67152E+03 -2.09144E+02  2.86883E+03  6.16770E+03  1.72192E+03 -1.29183E+03  6.96026E+03
 -4.58356E+03  1.33940E+03 -4.41018E+03  1.58665E+03 -1.59609E+03 -9.60241E+02 -6.58035E+03 -8.05080E+02
  5.31073E+02 -6.18746E+03  4.48909E+03 -5.92940E+03  3.07759E+03 -2.00432E+03 -8.12021E+02  1.77998E+02
 -1.66271E+03 -1.37225E+03 -1.77744E+03  2.82125E+03 -1.02112E+01  3.38272E+03 -4.94948E+03 -2.69005E+03
 -8.68032E+02  1.69185E+03  6.81900E+03 -1.04921E+03 -2.16357E+03  1.62418E+02  1.62084E+03  7.62034E+02
  1.78973E+02  4.22787E+03 -5.76484E+03  3.11595E+03  2.74883E+03 -3.14843E+03  8.99991E+02 -5.47752E+03
  1.66413E+03 -5.03748E+03 -4.87543E+03  3.11144E+03 -1.37244E+03 -2.81828E+02 -1.88889E+03  4.97410E+03
 -4.79732E+03  4.40242E+03  1.44522E+03  6.72040E+03  1.51812E+03 -1.59123E+03 -2.07479E+03  2.05497E+03
  3.84016E+03 -1.82519E+03 -3.26385E+03 -4.45162E+03 -2.87115E+03  4.32281E+03 -1.02268E+03 -1.38961E+03
 -4.52694E+03  3.63971E+03  1.18232E+03  7.28845E+02  1.61607E+03 -5.75478E+03 -7.90269E+02  2.38852E+03
  2.29040E+03  3.98710E+03  8.95040E+03  1.64954E+03  1.79129E+03  3.81568E+03  2.64156E+03 -3.23568E+03
