 $NMID ID='MM_0lb_SNR50_16hz_g40_88.RAW', FMTDAT='(8E13.5)'
 TRAMP=1., VOLUME=1. $END
  3.07824E+05  1.17679E+03  3.35931E+05  2.51175E+05  8.40332E+04  3.38166E+05 -1.28634E+05  2.46961E+05
 -1.84879E+05  8.68928E+04 -1.07622E+05 -3.49130E+04 -4.14535E+02 -4.85662E+04  5.99950E+04  1.92655E+03
  3.75303E+04  5.18778E+04 -1.49129E+04  7.54166E+04 -6.05795E+04  5.97931E+04 -8.36435E+04  3.35846E+04
 -7.90033E+04 -7.83452E+03 -5.52573E+04 -5.29395E+04 -1.49015E+04 -7.42436E+04  2.51268E+04 -4.47542E+04
  3.69768E+04  4.83831E+03  1.72537E+04  4.88647E+04 -3.61747E+04  4.60163E+04 -6.46711E+04 -4.93806E+01
 -4.88863E+04 -5.43506E+04 -2.54800E+03 -7.40250E+04  3.32900E+04 -5.73452E+04  4.82654E+04 -2.41264E+04
  4.11259E+04  1.52876E+04  2.95732E+04  1.92951E+04  1.75380E+04  2.84740E+04 -2.21538E+03  3.10176E+04
 -2.29682E+04  1.21897E+04 -2.34455E+04 -7.00360E+02  4.18544E+03 -6.83084E+03  2.48826E+04  1.43043E+04
  6.32805E+03  3.30345E+04 -3.04299E+04  3.12274E+04 -6.23000E+04  4.41132E+03 -5.56495E+04 -4.34646E+04
 -1.24007E+04 -6.67658E+04  3.55445E+04 -4.62695E+04  5.68716E+04 -1.68259E+03  3.13896E+04  2.96564E+04
 -5.60799E+03  3.60363E+04 -2.43844E+04  1.30607E+04 -2.83380E+04 -5.67343E+03 -1.49349E+04 -5.66134E+03
 -1.07809E+04 -1.21267E+04  2.10060E+03 -1.29358E+04  7.36990E+03 -1.99871E+04  1.51424E+04 -9.01636E+03
  1.12442E+04  5.31093E+03 -6.19646E+03  1.54927E+04 -2.06113E+04 -3.19538E+03 -5.07077E+03 -2.82707E+04
  1.76975E+04 -4.52881E+04  4.50819E+04 -2.07774E+04  4.38599E+04  1.58631E+04  1.51771E+04  3.97518E+04
 -1.55241E+04  3.19244E+04 -2.48154E+04  4.10443E+02 -3.39672E+03 -2.82772E+04  2.31338E+04 -3.03922E+04
  4.18101E+04 -3.79203E+03  3.48972E+04  2.60511E+04  1.93672E+04  4.81749E+04 -7.24962E+03  4.85318E+04
 -2.49941E+04  3.23970E+04 -3.65806E+04  1.05108E+04 -3.65539E+04 -1.50645E+04 -1.88332E+04 -3.51171E+04
  5.38737E+03 -3.89387E+04  3.32461E+04 -1.49093E+04  3.08552E+04  6.54417E+03 -1.06916E+03  1.45534E+04
 -1.40562E+04  6.39751E+03 -8.20915E+03 -8.06919E+03  9.31776E+03 -1.02949E+04  1.42052E+04  3.32943E+03
  1.19824E+04  1.86332E+04 -4.80557E+03  2.55471E+04 -2.64629E+04  1.52328E+04 -2.46537E+04 -5.77390E+03
 -2.05584E+04 -1.69523E+04 -2.62612E+03 -1.79388E+04  2.21043E+03 -1.55941E+04  1.07104E+04 -1.57143E+04
  2.44907E+04 -1.43814E+04  2.37482E+04  4.78749E+03  2.35197E+04  2.01366E+04  3.70281E+03  3.46763E+04
 -1.56335E+04  3.04085E+04 -2.45248E+04  8.07941E+03 -1.78068E+04 -1.47097E+04 -2.96384E+03 -1.43079E+04
  5.41876E+03 -5.12621E+03 -5.29883E+02  2.27897E+03 -1.69117E+04  8.81579E+03 -1.40235E+04 -6.52074E+03
 -5.83978E+03 -1.05773E+04  6.34146E+03 -2.26387E+04  1.18889E+04 -1.64198E+04  1.57966E+04  7.67376E+02
  1.10522E+04  1.21369E+04  4.38997E+03  1.66494E+04 -1.11633E+04  8.28763E+03 -1.34454E+04 -3.23448E+03
 -1.32845E+04 -1.46769E+04 -7.03732E+02 -2.19019E+04  6.24878E+03 -2.12326E+04  1.80893E+04 -8.56346E+03
  1.55765E+04  1.38629E+03  1.09452E+04  1.06246E+04  8.04065E+02 -1.02284E+02  1.17458E+04 -2.38754E+03
  1.51766E+04 -6.35580E+02  1.73691E+04  9.16174E+03  1.28598E+04  2.52372E+04 -6.12117E+03  2.73830E+04
 -1.60064E+04  2.39994E+04 -2.88191E+04  7.83941E+03 -2.73574E+04 -3.35733E+03 -2.32802E+04 -1.76985E+04
 -1.02370E+04 -2.22235E+04  1.03091E+04 -2.40885E+04  1.99226E+04 -1.14521E+04  1.79127E+04  1.59867E+03
  6.41094E+03  1.22792E+04 -7.98449E+03  1.54166E+04 -1.16032E+04  1.84914E+03 -1.63342E+04 -6.75255E+03
  3.31162E+03 -1.11943E+04  8.35844E+03 -1.24028E+04  5.67930E+03  3.68134E+03  7.43562E+03  5.19079E+03
 -5.12623E+03 -1.59568E+03 -6.90004E+03 -3.51223E+03  1.82235E+03 -1.39269E+04  1.22765E+04 -1.10213E+04
  1.22882E+04 -6.94250E+03  1.32447E+04  7.78419E+02  1.51242E+04  1.12032E+04  5.91442E+03  9.20465E+03
 -4.23506E+03  2.06296E+04 -1.41984E+04  1.23632E+04 -1.05648E+04 -1.24606E+02 -1.07865E+04 -2.31594E+03
 -5.73629E+03 -7.39687E+03 -1.56611E+03  1.55985E+03 -1.73672E+02 -4.72590E+03 -3.50839E+03  5.38856E+03
 -1.13385E+04 -8.45192E+02 -9.79138E+03 -1.02864E+04 -3.03204E+03 -1.34778E+04  4.62022E+03 -1.31215E+04
  7.28182E+03 -4.29691E+03  6.26580E+03  1.77389E+03  9.84486E+01 -5.71002E+02 -2.28553E+03  1.55360E+03
 -5.26058E+03 -7.69058E+03 -2.50034E+03 -7.42163E+03  2.78418E+03 -1.07733E+04  1.33086E+04 -5.21882E+03
  1.27635E+04 -3.12991E+02  9.97065E+03  1.38564E+04  3.64437E+03  1.29482E+04 -6.35306E+03  1.07356E+04
 -7.45641E+03  2.60368E+03 -1.39719E+03  7.51434E+02  2.23966E+02 -5.77468E+03  6.51728E+03  2.97519E+03
  2.42419E+03  2.37335E+03  1.04808E+03  7.79121E+03 -6.98724E+03  7.00042E+03 -9.95318E+03  2.57664E+02
 -2.45323E+03 -3.35265E+03  2.24694E+03 -1.00034E+04  4.60285E+03 -4.70173E+03  8.21640E+03  2.67865E+02
 -8.96421E+02  3.55320E+03 -4.00055E+03  7.05499E+03 -5.01929E+03  3.88033E+03 -5.88090E+03 -1.66023E+03
 -5.08214E+03 -7.07422E+03  2.17666E+03 -1.35669E+04  6.86154E+03 -1.37254E+03  9.11313E+03 -3.98456E+03
  5.90531E+03  1.05865E+04  2.79609E+03  1.02444E+04 -3.98879E+03  1.01803E+04 -1.61728E+03 -2.65384E+03
 -9.55773E+03 -4.28052E+03 -1.10408E+03 -3.92680E+03  2.88092E+03 -6.28347E+03 -1.18704E+03 -2.94255E+03
 -1.55921E+03 -4.71639E+03 -1.39450E+03  8.17234E+02  3.18050E+03 -9.49635E+01  6.81436E+02 -1.84176E+03
  5.47427E+03 -5.03574E+03  7.88961E+03  1.69939E+03  7.03155E+03  2.96644E+03  3.26666E+03  1.08214E+04
 -9.51049E+02  1.04684E+04 -1.29350E+04  7.69443E+03 -1.04502E+04  2.77947E+03 -1.15459E+04 -2.99523E+03
 -3.60116E+03 -7.74526E+03  1.59212E+03 -7.77683E+03  4.91270E+03 -1.56837E+03  1.41632E+03 -5.11460E+03
 -1.88606E+03 -4.60880E+01  1.61903E+03 -5.21976E+02  8.63602E+03  1.61853E+03  5.89601E+03 -9.21949E+02
  2.20161E+03 -2.10776E+03  3.07952E+03  4.81409E+03 -1.56890E+03  5.76457E+03 -7.75783E+03  1.61646E+03
 -4.90586E+03 -1.10660E+03 -3.05163E+03 -4.83992E+03 -7.30228E+02 -1.00745E+04  4.35869E+03 -6.35684E+03
  1.01789E+04 -7.03396E+03  9.80536E+03  3.16212E+03  1.18564E+04  2.37330E+03  5.71714E+02  7.89889E+03
 -2.72052E+03  3.33037E+03 -4.18366E+03  2.60565E+03  1.62294E+03  2.90137E+03  1.07060E+03 -7.92564E+02
  3.56583E+01 -3.77601E+03 -6.13196E+03  3.60597E+03 -3.26257E+03  1.15766E+03 -6.28091E+03 -2.63228E+03
 -3.45806E+03 -5.43379E+03  2.14961E+03 -4.77728E+03  6.70631E+03 -1.88010E+03  4.88089E+03  5.27985E+02
  5.59209E+03  6.71062E+03 -1.15401E+03  5.38534E+03 -1.22201E+03  8.92832E+03 -9.31134E+02  5.86835E+03
 -7.34190E+03 -4.30348E+02 -4.98135E+03 -5.73760E+03  1.00785E+03 -2.24068E+03  2.81935E+03  2.92172E+03
  6.55085E+03 -5.10808E+02 -2.30752E+02 -1.43666E+03 -5.81106E+02 -5.37362E+02  2.65946E+03 -9.48021E+02
  4.55812E+03 -8.87991E+02 -1.41302E+03  8.59683E+02  4.25729E+03  5.37497E+03  3.28624E+03  1.03612E+03
  4.94845E+02  5.61789E+03 -3.45643E+03  1.06781E+04 -1.39205E+03  2.65526E+02 -3.10519E+03  1.50815E+03
 -1.76931E+03 -3.59352E+02  8.79468E+02 -4.30840E+03  1.49563E+03 -1.85773E+03  1.72192E+03 -5.39025E+03
 -5.09047E+02  2.22799E+03  1.35950E+03  2.19675E+03 -3.07338E+03  2.94819E+03  4.94953E+02  2.69484E+03
 -3.08021E+03 -3.75909E+03  2.07495E+03 -3.98862E+03  1.10526E+02  4.43003E+03  3.31022E+03  9.44439E+03
  1.39851E+03  2.17944E+03  2.10040E+03  4.01961E+03 -1.26985E+03  5.31149E+03  2.98377E+02  1.19637E+02
  2.32245E+03 -3.95435E+03  5.74868E+03  3.72971E+03 -1.11049E+03  2.55785E+03 -3.86527E+03  4.00979E+02
 -3.43267E+03 -9.58447E+01 -1.48269E+03  2.42456E+03 -1.14006E+03 -5.91239E+02 -3.95671E+03 -3.00663E+03
  1.99299E+03 -9.38702E+02 -1.10587E+03 -2.11087E+02  1.60820E+03  2.88800E+03 -5.70310E+02  4.49293E+03
 -9.11273E+02  3.42397E+03 -5.72169E+03 -3.91187E+03 -1.75455E+02 -1.92855E+03  3.25286E+03 -5.01993E+03
 -1.53991E+03 -5.08237E+03  4.51903E+03  8.30662E+02  3.93775E+03 -2.81075E+03  1.79113E+03 -1.48279E+03
  1.51097E+03 -1.42710E+03 -4.78085E+03 -1.78445E+03 -1.87074E+03  3.17390E+03  5.35184E+03 -4.54396E+03
  4.86059E+03  2.11613E+03  9.28039E+03  8.35046E+03  5.51354E+03 -2.16957E+03 -5.74039E+03  3.51456E+03
 -2.92572E+03  1.21546E+03 -2.85590E+03 -1.09070E+03 -7.26337E+02 -2.13441E+03  1.15815E+03  4.37547E+03
 -4.11080E+02  8.65732E+00  2.11704E+03 -8.76049E+02  3.59894E+03 -3.01285E+02  2.51021E+03  5.47848E+01
  1.93619E+03  5.97626E+03  3.81175E+02 -2.27125E+03  4.40816E+03  3.05159E+03 -2.70161E+03  1.27292E+03
 -2.01605E+03  4.09329E+03 -7.66345E+03  1.69600E+03 -2.35806E+03  2.83241E+03 -5.57095E+02  7.34368E+02
 -6.43921E+03 -2.87397E+03 -7.72588E+02 -1.05677E+04  1.06020E+03 -5.32872E+03  2.62049E+03 -1.78824E+03
  9.32179E+03  3.40885E+03  3.65819E+03  2.19360E+03 -5.60784E+02 -1.76100E+03 -7.68265E+02  5.60200E+03
 -3.36599E+03  3.59139E+03 -3.28923E+03  1.60218E+03  3.15623E+03  3.21082E+03  2.36227E+03  1.96628E+03
 -4.37170E+03  4.19057E+03 -2.85376E+03  1.53065E+03 -4.32049E+02 -2.70465E+03 -4.31332E+03 -1.16516E+03
  2.00695E+02 -1.24844E+03  1.46250E+03 -1.76734E+03  1.10181E+03  8.18146E+00 -5.34324E+03  4.35673E+02
 -8.18469E+02  4.32724E+03 -6.88505E+03  1.56369E+03 -5.68135E+03  3.63923E+03  1.47139E+02 -1.29594E+03
 -2.44450E+03 -3.45875E+03  8.97537E+02  1.38781E+03 -1.28719E+02  1.53547E+03  3.46451E+03 -2.16028E+03
  4.96698E+03 -3.76433E+02  2.92322E+03 -3.08105E+03 -3.80344E+03  1.17912E+03 -3.01656E+03  2.02928E+03
  4.74444E+03 -3.43912E+03  5.70818E+02 -4.02257E+02  3.72013E+03 -1.18628E+03 -9.41598E+02  6.49147E+03
  1.15258E+03  5.07630E+03 -2.32147E+03 -3.62737E+03 -3.78429E+03  1.16445E+03  1.43519E+02 -3.94656E+03
 -1.74805E+03 -4.99775E+03  2.62277E+03 -6.55706E+02 -2.03572E+03  1.84834E+02  5.48885E+02  1.73640E+03
  6.39335E+02 -8.71519E+02 -3.62175E+03 -2.66471E+02 -1.98354E+03  3.04778E+03 -2.08479E+03  1.05241E+03
 -3.84086E+03  2.71582E+03  1.10460E+03  2.33289E+03 -1.31637E+02  1.74078E+03 -2.05761E+02 -4.40125E+03
 -2.16979E+03 -4.29937E+02 -4.93400E+03  1.37570E+03 -1.29383E+03 -6.08577E+03  5.10464E+02 -1.09919E+03
  1.04574E+03  4.02670E+02  3.31294E+02  3.82218E+03  3.28737E+02  2.65149E+03  8.57168E+02  4.25574E+03
