 $NMID ID='MM_0lb_SNR50_11hz_g50_80.RAW', FMTDAT='(8E13.5)'
 TRAMP=1., VOLUME=1. $END
  3.09805E+05  2.48379E+03  3.33377E+05  2.54771E+05  8.51894E+04  3.35209E+05 -1.34384E+05  2.45231E+05
 -1.94897E+05  8.63105E+04 -1.12767E+05 -3.19880E+04 -3.07547E+03 -5.11679E+04  5.75819E+04 -6.46254E+03
  3.45087E+04  5.47979E+04 -1.74930E+04  7.14119E+04 -5.88515E+04  6.78730E+04 -8.75783E+04  3.16023E+04
 -7.78994E+04 -1.15857E+04 -6.08397E+04 -5.60234E+04 -1.41314E+04 -7.27695E+04  2.38165E+04 -4.83293E+04
  3.82259E+04 -5.41962E+03  1.90491E+04  4.89271E+04 -3.46077E+04  4.69925E+04 -6.78341E+04 -1.95459E+03
 -5.16390E+04 -6.05592E+04 -5.12744E+03 -7.22018E+04  3.22997E+04 -5.35785E+04  5.23248E+04 -1.66838E+04
  4.21172E+04  1.36808E+04  3.42853E+04  2.54299E+04  1.36262E+04  2.87479E+04 -1.33288E+03  2.57337E+04
 -2.31686E+04  1.55401E+04 -2.31666E+04 -3.00795E+03  5.38471E+03 -1.06179E+04  2.27464E+04  1.69288E+04
  8.44187E+03  3.70954E+04 -3.13630E+04  3.19328E+04 -6.67635E+04 -9.18207E+02 -5.79333E+04 -4.60660E+04
 -1.34187E+04 -6.50667E+04  4.36302E+04 -4.84748E+04  6.03697E+04 -2.27280E+03  3.32868E+04  3.69234E+04
 -1.76021E+03  4.46683E+04 -2.80825E+04  1.89674E+04 -2.81085E+04 -1.10976E+04 -1.48115E+04 -1.02275E+04
 -1.27462E+04 -1.92826E+04  1.43076E+03 -2.05083E+04  8.77394E+03 -2.40335E+04  1.33507E+04 -9.54359E+03
  1.15048E+04  5.51933E+03 -1.31191E+04  1.27132E+04 -2.46374E+04 -5.24383E+03 -5.51195E+03 -3.58511E+04
  2.08422E+04 -4.31799E+04  4.60495E+04 -2.42620E+04  4.63512E+04  1.63678E+04  1.98184E+04  4.93158E+04
 -1.35580E+04  3.39333E+04 -2.49150E+04  2.24300E+02 -6.13553E+03 -2.63557E+04  1.80871E+04 -3.82433E+04
  4.09203E+04 -1.12006E+04  4.47572E+04  2.57851E+04  1.73891E+04  4.80722E+04 -9.97652E+03  5.00960E+04
 -3.43732E+04  3.90028E+04 -4.20826E+04  1.21543E+04 -4.43258E+04 -1.98597E+04 -2.97570E+04 -4.16417E+04
  1.00447E+04 -4.66219E+04  2.88348E+04 -1.51069E+04  2.76203E+04  1.04114E+04  7.98621E+03  2.18394E+04
 -1.51535E+04  8.19640E+03 -1.46465E+04 -3.59825E+03  3.71877E+03 -1.22006E+04  1.75693E+04  8.59997E+02
  1.44786E+04  1.59030E+04 -1.96017E+03  2.89528E+04 -2.18564E+04  8.53430E+03 -2.55803E+04 -1.80152E+03
 -2.31970E+04 -1.38170E+04 -1.24244E+04 -2.03357E+04  3.69816E+03 -2.51302E+04  2.16444E+04 -2.27066E+04
  3.43738E+04 -1.08678E+04  3.37082E+04  7.28083E+03  2.55764E+04  2.39511E+04  1.92327E+03  3.17565E+04
 -1.26721E+04  3.07655E+04 -2.66662E+04  9.78948E+03 -1.72337E+04 -1.57686E+04 -7.03348E+03 -1.15791E+04
  3.01367E+03  4.71543E+03 -9.30857E+03  9.14247E+03 -1.86370E+04  1.26255E+04 -1.46695E+04 -5.00160E+03
 -1.02595E+04 -1.67042E+04  7.02743E+03 -2.62438E+04  2.06265E+04 -2.11901E+04  2.74080E+04  3.60725E+03
  8.73131E+03  1.09686E+04 -2.96870E+03  2.17064E+04 -9.99392E+03  9.83456E+03 -2.27664E+04  2.27533E+03
 -1.67181E+04 -2.00195E+04  3.74756E+03 -1.99323E+04  7.90718E+03 -1.81519E+04  1.82271E+04 -7.17599E+03
  1.97195E+04 -7.71380E+02  1.35567E+04  7.55305E+03  8.37225E+03  5.34169E+03  1.40726E+04 -4.12770E+03
  1.77168E+04  1.25664E+03  2.40488E+04  1.73724E+04  2.07597E+04  3.36832E+04 -2.79159E+03  3.92226E+04
 -2.50227E+04  3.42086E+04 -3.69368E+04  1.23320E+04 -4.09515E+04  1.02676E+02 -2.82694E+04 -2.38592E+04
 -9.75698E+03 -3.27168E+04  8.28510E+03 -2.99698E+04  2.88340E+04 -1.02946E+04  1.86362E+04  1.11013E+04
  4.54598E+03  1.26053E+04 -1.07144E+04  1.23189E+04 -2.47485E+04 -2.41589E+03 -1.37310E+04 -1.31970E+04
 -3.86931E+02 -1.93353E+04  1.14760E+04 -1.53231E+04  7.31660E+03 -2.43533E+03  1.13119E+03  8.77404E+03
 -6.53426E+03 -8.11362E+02 -6.77673E+03 -5.29661E+03 -1.95686E+03 -1.38589E+04  6.86404E+03 -1.33202E+04
  2.09104E+04 -1.25678E+04  2.33917E+04  1.16283E+03  2.55699E+04  1.49814E+04  5.73033E+03  3.08294E+04
 -4.79054E+03  2.69309E+04 -1.99217E+04  1.42623E+04 -2.22147E+04  5.69234E+03 -1.90292E+04 -9.91415E+03
 -3.86370E+03 -5.05669E+03 -9.47749E+01  2.17695E+03 -2.72889E+03  3.72219E+03 -6.02361E+03  6.26270E+03
 -1.25638E+04 -2.20964E+02 -1.56456E+04 -1.58241E+04 -1.28616E+03 -1.63254E+04  4.97747E+03 -1.38603E+04
  1.06178E+04 -3.26748E+03  1.26737E+04 -1.71449E+03 -3.21446E+03  4.42736E+03 -6.09432E+03  5.64373E+02
 -8.84992E+03 -8.58657E+03  1.47480E+03 -1.00228E+04  5.55916E+03 -1.44033E+04  1.69503E+04 -9.66292E+03
  2.46425E+04  5.24312E+02  1.72743E+04  1.29509E+04  5.34715E+03  1.90916E+04 -1.31157E+04  1.55613E+04
 -1.38179E+04  9.62588E+02 -8.81223E+03  5.58542E+02  1.71392E+03 -4.49710E+03  5.52111E+03  1.33384E+03
  8.24794E+03  2.42028E+03 -3.01359E+03  1.35814E+04 -5.55114E+03  9.24251E+03 -1.76179E+04  4.29825E+03
 -8.38255E+03 -1.04794E+04  9.29323E+02 -1.16280E+04  5.34628E+03 -3.52980E+03  1.17837E+04  3.74141E+03
  5.58751E+02  8.02228E+03  1.79288E+03  1.09271E+04 -1.59248E+04  1.06727E+03 -1.19754E+04 -7.09675E+03
 -5.03241E+03 -1.26381E+04  6.57557E+03 -1.92017E+04  1.37412E+04 -9.93117E+03  1.33354E+04  1.34513E+03
  7.55710E+03  1.26063E+04 -1.50190E+03  1.43531E+04 -1.17175E+04  6.52409E+03 -6.97659E+03 -5.97236E+02
 -6.35948E+03 -5.58522E+03  7.15201E+02 -1.11449E+04  3.89590E+03 -1.14539E+04  2.00089E+03 -2.05591E+03
  1.53670E+03 -7.65685E+03 -2.42981E+03  5.68689E+03 -3.96378E+03 -5.18264E+01  5.29001E+03 -3.60730E+03
  1.37010E+04 -2.62182E+03  1.22946E+04  1.73524E+03  1.26394E+04  1.16436E+04  7.86602E+03  1.70043E+04
 -6.18969E+03  2.57296E+04 -2.01021E+04  1.58420E+04 -2.47985E+04  2.88388E+03 -1.21879E+04 -5.93281E+03
 -1.27131E+04 -9.47624E+03 -4.50776E+03 -1.05545E+04  3.80655E+03 -1.06767E+04  3.59781E+03 -5.37198E+03
  4.15384E+03 -3.23139E+03 -9.18960E+02  6.03825E+01  4.83749E+03 -2.35829E+03  3.12684E+03 -3.53270E+03
  7.66168E+03 -5.79709E+03  3.77233E+03  6.89737E+03  3.08216E+03  8.42147E+03 -1.26803E+04  6.18480E+03
 -1.19713E+04 -5.09419E+03 -1.24137E+04 -8.88581E+03 -5.28805E+02 -1.37982E+04  7.79824E+03 -1.23022E+04
  1.49576E+04 -9.15843E+03  1.58188E+04  4.52943E+03  1.23053E+04  1.09946E+04  1.57052E+03  1.79768E+04
 -5.81339E+03  1.10921E+04 -7.75181E+03  4.51415E+01 -3.07110E+03 -8.40272E+01 -5.64844E+03  5.35132E+03
  3.41883E+03  1.29413E+03  1.13591E+03  5.57345E+03  1.74969E+03 -6.58179E+02 -8.96304E+03  3.04416E+02
 -6.23101E+03 -1.12117E+04  2.32794E+02 -1.19698E+04  8.82508E+03 -7.89046E+03  8.02524E+03 -7.72493E+03
  1.33893E+04  4.77555E+03  7.44188E+03  5.89028E+03 -8.03532E+02  1.04329E+04 -3.06998E+03  8.74154E+03
 -7.35755E+03  5.50853E+03 -6.52621E+03 -8.25227E+03 -2.32783E+03 -8.94110E+03  5.14255E+03 -6.01851E+03
  9.11702E+03 -4.89187E+03  1.17386E+04  1.39063E+03 -2.64940E+03  8.44417E+03 -4.20473E+03 -1.92663E+03
  2.60127E+03  2.90506E+02  3.12228E+03  1.08359E+03  7.72922E+03  5.52203E+03  2.94702E+03  3.96532E+03
 -3.81656E+03  6.99569E+03 -7.07320E+03  8.21394E+03 -9.21975E+03 -1.64757E+02 -1.16878E+04  5.82109E+02
 -2.32340E+03 -5.93317E+03  1.77531E+03 -1.48163E+04  6.31968E+03 -1.17707E+04  8.39839E+03 -5.07346E+02
  1.10719E+04  9.22161E+03  2.33903E+03  5.99476E+03 -1.15354E+03  1.78684E+03 -2.80904E+03  1.81053E+03
  2.43968E+02 -4.32666E+03  1.09127E+04 -5.90318E+01  9.53519E+03 -5.67492E+03  2.63528E+03  3.40911E+03
  3.51581E+03 -2.41632E+03  1.13934E+03  9.53886E+03  1.38586E+03  9.08642E+03  3.09645E+03 -1.17298E+03
  6.63990E+03 -2.32542E+03  5.20141E+03  5.86072E+01  1.38290E+03  6.16660E+03 -1.64490E+03  8.00382E+03
 -4.71135E+03  1.20536E+04 -7.08030E+03 -1.95386E+03 -9.79577E+03 -2.34408E+03 -1.52970E+03 -4.67782E+03
  6.12859E+02 -8.46906E+03  6.29700E+02 -2.01422E+03  1.60210E+03  6.94950E+03  1.65627E+03  3.70785E+03
 -2.03295E+03 -1.50163E+02 -8.16037E+03 -5.30187E+03 -5.13440E+02 -5.75794E+03  2.65558E+03 -4.81402E+03
 -1.70751E+03 -7.59035E+03  3.92209E+02  2.57155E+03  8.28660E+03  1.56909E+03 -2.41666E+03 -2.66036E+03
 -3.68091E+03  2.26737E+03  3.00503E+03 -1.25851E+03  7.54847E+01 -6.05938E+03  6.73996E+03 -7.54078E+03
  7.76302E+03 -2.78684E+02  5.66944E+03  3.11321E+03 -1.00015E+03  1.13391E+04 -1.04113E+04  4.45836E+03
 -3.75524E+03  3.64498E+03 -9.72655E+03 -4.83023E+02 -6.75035E+02 -4.41585E+03  3.73516E+03 -8.31083E+03
  5.67616E+03 -4.57811E+03  1.02763E+03 -4.31503E+03 -2.67907E+03  4.08236E+03 -4.75248E+03  7.14512E+03
  5.17872E+03  5.59105E+03  3.37615E+03  2.52173E+03 -4.87556E+03 -6.79683E+02 -4.68498E+03  3.84667E+03
 -2.30567E+03 -1.29177E+03 -7.67631E+03  4.95135E+03 -1.25280E+04  1.70640E+03 -8.98824E+03 -2.42973E+03
 -1.38784E+03 -1.04337E+04  7.01429E+03 -1.10960E+04  4.76847E+03 -1.23145E+04  6.04286E+03 -3.03647E+03
  1.63613E+04  4.60337E+03  1.24808E+04  1.49839E+04 -2.81969E+03  5.98465E+03 -8.51508E+03  9.08287E+03
 -4.59600E+03  4.39426E+03 -1.63197E+03 -3.12175E+03  1.53024E+03  3.72988E+03 -6.69669E+02  1.20515E+03
 -8.82710E+03  1.06945E+02 -2.71766E+03  3.20583E+03 -2.15723E+03  2.69338E+03  2.05912E+02 -4.88033E+03
  4.41413E+03  6.37131E+02  2.49747E+03 -4.90097E+02  1.76913E+03 -2.39307E+03  4.69099E+03  7.15306E+03
 -8.67750E+02  2.20373E+03 -8.92240E+03  5.26407E+03 -9.37488E+03 -8.54522E+03 -6.96965E+03 -6.59689E+03
 -1.79897E+03 -5.30962E+03  8.39775E+03 -6.93435E+03  2.70867E+03 -8.73467E+03  2.15273E+03 -1.64573E+03
  2.12273E+03  6.48988E+03  1.55941E+03 -7.46930E+02  3.26028E+03 -1.05775E+03  9.79926E+02 -4.81006E+03
  5.94017E+03  2.57118E+03  5.33665E+03  1.35149E+03  8.58268E+03  1.70174E+03  3.52288E+03  1.71434E+03
 -7.26697E+03  3.90370E+03 -4.66928E+03  1.22501E+03 -3.56330E+03 -4.48873E+03 -5.58970E+02 -5.57111E+03
  7.53916E+03 -4.98154E+03  5.33510E+03 -4.12842E+03  3.52898E+03  6.01005E+02  2.73082E+03  7.41096E+03
 -3.86642E+02  6.27947E+02  4.77604E+02  5.89205E+02  2.07550E+02  2.05571E+03  7.23926E+02  8.61232E+02
  2.39441E+03 -3.74632E+03 -5.69749E+03  3.09887E+02 -4.98581E+03 -2.32251E+03 -3.10963E+03 -5.37361E+03
 -3.47980E+03 -4.86849E+03 -5.76565E+03 -5.13174E+03  2.20077E+02 -4.87159E+03  7.19531E+03 -1.95117E+03
  5.92977E+03  5.28076E+03  4.53505E+03  9.24232E+03 -1.89608E+03  3.34054E+02 -5.36110E+03  1.19043E+04
