 $NMID ID='MM_0lb_SNR50_7hz_g45_71.RAW', FMTDAT='(8E13.5)'
 TRAMP=1., VOLUME=1. $END
  3.09795E+05  7.17661E+03  3.42663E+05  2.56390E+05  9.13984E+04  3.40582E+05 -1.27087E+05  2.51626E+05
 -1.92865E+05  8.04385E+04 -1.13629E+05 -4.36253E+04  2.90180E+03 -4.65425E+04  5.68669E+04 -6.14396E+02
  3.21028E+04  5.48689E+04 -1.52374E+04  7.92155E+04 -5.85220E+04  5.67162E+04 -8.62704E+04  3.33699E+04
 -8.90690E+04 -8.41272E+03 -6.56153E+04 -4.75252E+04 -1.43963E+04 -6.43926E+04  2.79326E+04 -4.44293E+04
  4.26191E+04  5.13461E+03  1.58132E+04  4.68056E+04 -3.35284E+04  5.47638E+04 -6.59926E+04  1.21793E+03
 -5.44248E+04 -6.34431E+04 -8.41045E+03 -7.39037E+04  2.83595E+04 -5.35397E+04  4.82788E+04 -1.45580E+04
  4.71986E+04  1.93775E+04  3.86998E+04  2.72938E+04  1.72276E+04  4.18219E+04 -8.08074E+03  2.23303E+04
 -1.89451E+04  1.66162E+04 -1.48090E+04 -1.58813E+04  1.17965E+04 -7.00825E+03  2.26923E+04  9.27460E+03
  8.71654E+03  4.20840E+04 -4.35474E+04  3.50397E+04 -6.67811E+04  4.15741E+03 -5.79870E+04 -5.02299E+04
 -1.23673E+04 -7.50038E+04  4.40854E+04 -4.79417E+04  6.02849E+04  8.91301E+02  4.03549E+04  3.54745E+04
 -8.40541E+03  4.30072E+04 -3.61630E+04  2.09095E+04 -3.14506E+04 -5.70917E+03 -2.30826E+04 -1.74572E+04
 -7.27397E+03 -1.68998E+04  8.19280E+03 -1.94576E+04  1.00453E+03 -2.05417E+04  1.78020E+04 -1.16008E+04
  1.01204E+04  9.57094E+03 -7.52406E+03  9.41137E+03 -2.62433E+04 -4.12824E+03 -6.05577E+03 -3.77483E+04
  2.61587E+04 -5.30290E+04  5.05366E+04 -2.24631E+04  5.08126E+04  1.60537E+04  1.41843E+04  4.54214E+04
 -1.44854E+04  3.37709E+04 -3.82047E+04  5.61514E+03 -1.38163E+04 -2.49131E+04  1.96777E+04 -3.84877E+04
  4.18080E+04 -1.39973E+04  4.32428E+04  2.11053E+04  2.37652E+04  5.17578E+04 -2.51396E+03  5.20330E+04
 -3.72038E+04  4.40200E+04 -5.81028E+04  1.51255E+04 -5.06546E+04 -1.94740E+04 -3.28442E+04 -4.49862E+04
  8.84325E+03 -4.03961E+04  3.24135E+04 -1.69758E+04  3.05090E+04  1.54767E+04  7.01925E+03  2.75875E+04
 -1.31428E+04  1.10813E+04 -9.24725E+03 -3.11042E+03  6.80520E+03 -1.35945E+04  2.44763E+04  4.78234E+03
  2.05392E+04  2.12182E+04 -6.36321E+03  2.90106E+04 -2.58648E+04  1.23289E+04 -2.86085E+04  1.17558E+03
 -3.11363E+04 -1.87777E+04 -1.06073E+04 -2.90902E+04 -2.64557E+02 -2.67761E+04  1.79520E+04 -2.87240E+04
  3.63964E+04 -1.76374E+04  3.36359E+04 -1.55424E+03  2.79821E+04  2.10573E+04  3.47216E+03  4.87823E+04
 -1.75107E+04  3.14779E+04 -3.45116E+04  1.90206E+04 -2.03785E+04 -1.79241E+04 -5.72477E+03 -1.22576E+04
 -2.65999E+03 -1.78585E+03 -1.13369E+04  2.06540E+03 -1.73428E+04  6.98894E+03 -2.86695E+04 -7.98514E+03
 -1.61939E+04 -2.43772E+04  8.80573E+03 -3.46762E+04  1.84690E+04 -2.54873E+04  2.26815E+04 -4.64889E+03
  1.85533E+04  1.87862E+04 -3.20815E+03  3.10313E+04 -9.59281E+03  1.17643E+04 -2.31158E+04 -3.12634E+03
 -1.98565E+04 -2.12508E+04 -4.70157E+03 -3.16031E+04  1.40365E+04 -2.71529E+04  2.83025E+04 -6.62435E+03
  2.03069E+04 -6.56820E+02  1.62617E+04  6.30532E+03  1.19451E+04  4.29368E+03  9.56419E+03 -1.42067E+03
  2.27657E+04  1.79583E+03  3.31919E+04  1.72414E+04  2.79077E+04  3.93379E+04 -1.32195E+03  4.95366E+04
 -2.50668E+04  3.31710E+04 -3.98470E+04  2.03792E+04 -4.85680E+04 -6.86460E+03 -3.59443E+04 -2.63757E+04
 -1.18793E+04 -4.26604E+04  1.43476E+04 -3.81602E+04  2.43675E+04 -2.41153E+04  2.56973E+04  1.59341E+04
  8.16346E+03  1.73212E+04 -1.15904E+04  1.70582E+04 -2.09058E+04  2.10333E+03 -1.79056E+04 -7.06253E+03
 -3.19155E+03 -2.59787E+04  1.16818E+04 -1.19372E+04  1.00176E+04 -2.95124E+03  2.96714E+03  1.47603E+03
 -1.41457E+04  3.90873E+03 -1.23153E+04 -4.18825E+03  1.76486E+03 -2.23897E+04  4.32041E+03 -1.82715E+04
  2.46775E+04 -9.09555E+03  2.49839E+04  8.14961E+03  2.32091E+04  2.60807E+04  9.29740E+03  3.16800E+04
 -8.13749E+03  3.39832E+04 -1.37852E+04  2.55857E+04 -2.86041E+04 -6.09898E+02 -1.99667E+04 -7.05477E+03
 -7.25313E+03 -1.04886E+04 -4.04273E+02  1.25876E+03  3.27303E+03  7.80889E+03 -1.00349E+04  1.02813E+04
 -1.73795E+04 -1.52426E+03 -1.73181E+04 -1.52746E+04 -3.78579E+03 -2.33737E+04  5.98447E+03 -1.10730E+04
  2.15040E+04 -1.03496E+04  1.93921E+04  4.23217E+03 -5.06914E+03  7.77281E+03 -3.82368E+03  3.12935E+03
 -1.15457E+04 -4.74610E+03  3.06902E+03 -1.46552E+04  4.01713E+03 -1.22166E+04  2.25309E+04 -9.66998E+03
  2.83976E+04  2.37414E+03  1.38198E+04  1.60607E+04  1.18268E+03  2.63901E+04 -1.46541E+04  1.79723E+04
 -2.14575E+04  1.01753E+03 -9.76180E+03  2.48616E+03 -6.85741E+02 -6.56111E+03  1.32063E+04  2.12560E+03
  7.39147E+03  4.75584E+03  3.05998E+03  1.92875E+04 -7.34330E+03  9.94809E+03 -1.54881E+04  4.10004E+03
 -1.03095E+04 -1.66996E+04  1.44606E+04 -2.14455E+04  1.66619E+04 -8.15861E+03  7.80905E+03  4.17008E+03
  6.75432E+03  9.31254E+03 -5.49402E+03  1.20476E+04 -1.76021E+04  2.83399E+03 -2.07536E+04 -7.07016E+03
 -1.73530E+04 -1.87732E+04  1.00146E+04 -2.63135E+04  2.15312E+04 -1.19140E+04  2.58497E+04  1.91090E+03
  4.60342E+03  1.31373E+04 -2.54356E+02  2.97300E+04 -1.43152E+04  3.96107E+03 -1.59845E+04 -8.62165E+03
 -2.38239E+04 -3.49196E+03 -5.18242E+03 -1.61384E+04  4.64996E+03 -1.58599E+04  1.68503E+04 -1.09594E+04
  7.01136E+03  8.67852E+03 -2.16959E+03 -3.71337E+03  7.91297E+02 -1.60042E+03 -1.60030E+03 -9.56099E+03
  1.71313E+04  5.21491E+02  1.92846E+04 -3.03674E+03  1.40823E+04  1.66934E+04  8.56770E+03  2.88410E+04
  1.26324E+03  3.39401E+04 -3.16001E+04  2.43680E+04 -3.74628E+04 -2.68955E+02 -2.35763E+04 -1.00666E+04
 -1.18582E+04 -1.72093E+04  5.90382E+02 -9.86864E+03  9.69394E+03 -1.36261E+04  5.62263E+01  1.12808E+03
  9.40762E+03 -6.31337E+03 -2.60966E+03 -1.17209E+04  7.93707E+03  2.25849E+03  7.58306E+03 -2.61989E+03
  1.37860E+04  5.39870E+03  1.38371E+04  1.03112E+04 -2.86312E+03  1.05608E+04 -2.01199E+04  1.49522E+04
 -2.25641E+04 -2.48026E+03 -6.91358E+03 -1.58838E+04 -2.30015E+03 -1.44623E+04  4.00965E+03 -1.44018E+04
  2.07396E+04 -7.78675E+03  1.72236E+04  1.85214E+03  2.54714E+04  1.50338E+04  9.20345E+02  1.12787E+04
 -9.39109E+03  1.90845E+04 -1.24192E+04  5.97235E+02 -1.49130E+04 -1.12303E+03 -3.70901E+02 -3.50503E+03
 -1.03784E+03 -2.47867E+03 -2.01436E+03  1.51372E+03 -9.19093E+03  4.63512E+03 -1.43929E+04  4.40577E+03
 -8.72782E+03 -2.02138E+04 -4.73671E+03 -2.13884E+04  1.24042E+04 -1.19733E+04  1.74174E+04  1.94741E+03
  1.41483E+04  8.33842E+03  1.30429E+04  2.01887E+04 -1.30360E+04  2.08844E+04 -1.02475E+04  1.25619E+04
 -6.06835E+03 -2.25861E+03 -1.36479E+04 -1.34686E+04 -2.04621E+03 -1.84626E+04 -1.08541E+03 -1.29378E+04
  6.60959E+03 -5.05981E+03  9.39373E+03  4.60635E+03  1.08578E+04  1.90137E+03  3.95495E+03  1.27105E+03
  6.73797E+02  3.30416E+02  2.39681E+03  2.52311E+03  7.14882E+03  3.89653E+03  1.05089E+04  1.99275E+04
 -2.40328E+03  1.58158E+04 -9.84637E+03  1.47881E+04 -1.41436E+04  1.06326E+03 -2.17042E+04 -1.26771E+04
 -1.42648E+04 -2.02420E+04  9.14571E+02 -1.89895E+04  9.88443E+03 -9.10357E+03  1.85505E+04 -1.47321E+03
  1.22999E+04  1.40081E+04  7.48564E+03  1.15394E+04 -1.45570E+03  3.28417E+03  4.17278E+03  6.31737E+03
 -5.36436E+03 -6.36138E+03  7.17698E+03 -7.01027E+03  1.03333E+04 -7.92883E+03  1.04436E+04 -4.89903E+03
 -1.46194E+03  7.56665E+03  6.50209E+02  2.43978E+03 -5.12568E+03 -1.70778E+03 -3.16900E+03 -4.52337E+03
  8.53451E+03 -1.67742E+03  1.52056E+04 -7.17212E+02  1.90971E+03  1.52451E+04  2.96033E+03  7.28481E+03
 -1.23469E+04  7.16890E+03 -1.10575E+04  1.76971E+00 -1.79842E+04 -9.66087E+02 -9.10752E+03 -2.59272E+03
 -1.62462E+03 -1.38084E+04  8.16224E+03 -9.89128E+03  7.70998E+03  3.75782E+03  2.20051E+03 -1.69884E+03
 -7.06646E+03  4.98871E+03  2.06252E+01 -4.93439E+02 -4.90024E+03 -8.99704E+03 -4.30388E+01 -6.83284E+03
  9.38059E+03  7.16601E+02  9.22189E+03 -7.70065E+02  5.36642E+03  3.98864E+03  2.66433E+03  5.23441E+03
 -1.18605E+04  2.78593E+03  5.20748E+02 -2.38927E+03  1.38297E+03 -6.34533E+03  1.10879E+04 -6.76725E+03
  1.36914E+04  1.05532E+04  1.36726E+04  6.73458E+03  8.58070E+03  1.01802E+04 -7.85821E+03  1.73004E+04
 -1.33875E+04  9.64169E+02 -1.00586E+04 -1.55956E+03 -4.79346E+03 -1.01874E+04  6.42138E+03 -9.61628E+03
  1.21479E+04  5.46157E+03  9.55190E+03  2.91404E+02  1.62338E+03  4.72903E+03  1.79126E+03 -3.92139E+03
 -6.39660E+03  5.26671E+03 -3.40676E+03 -4.74253E+03  1.05213E+03 -6.52197E+03 -4.73113E+03  5.13712E+02
 -1.08340E+04  5.72351E+03 -5.12896E+03  1.85298E+03 -1.34139E+04  7.38872E+03 -1.71621E+04 -1.22321E+04
 -6.69052E+03 -7.99008E+03 -8.57288E+02 -2.06268E+04  1.68596E+04 -1.42371E+04  2.34571E+04 -9.62013E+03
  1.79648E+04  5.70666E+03  1.21227E+04  9.74895E+03 -4.29699E+03  1.01023E+04  1.83442E+03  1.75893E+04
 -6.25336E+03  2.50002E+03 -1.38761E+03 -6.14229E+03  1.60690E+03 -4.69094E+03 -4.20243E+03  6.14179E+03
 -5.70971E+03  3.69410E+03 -6.22226E+01  4.95756E+03  1.29955E+02  3.73238E+03  4.36711E+03 -1.01918E+04
  1.00754E+04 -9.72341E+03  2.03412E+03 -3.85836E+03  1.02956E+04  3.44978E+03  2.79203E+03  1.48643E+04
 -2.32469E+03  2.16643E+04 -1.84268E+04  1.35952E+04 -2.35633E+04  3.48031E+03 -1.74847E+04 -8.72509E+03
 -1.03326E+04 -1.50153E+04  9.56262E+03 -1.00273E+04  9.09759E+03 -7.92315E+03  8.75563E+03 -4.03896E+03
  1.57911E+04 -2.75252E+03  3.87725E+03  5.97777E+03 -6.39047E+02 -2.83296E+03 -1.08520E+03 -4.40420E+03
  1.18841E+04 -5.50468E+03  4.00326E+03  6.49519E+03 -4.77719E+03  7.57070E+03 -8.61728E+02  6.15177E+03
 -1.23675E+04  3.85372E+03 -1.29947E+04  3.10950E+03 -5.35760E+03 -9.23540E+03 -7.98065E+02 -1.19190E+04
  1.08723E+04 -1.20520E+04  1.05321E+04 -4.55168E+02  1.33583E+04  3.81536E+03  2.78718E+03  7.83575E+03
  1.45585E+03  1.18246E+04 -1.93518E+03  2.57619E+03 -6.22260E+03  2.10595E+03 -1.27459E+04  2.75763E+03
 -3.52362E+03 -8.29074E+02 -3.43958E+02  6.11603E+03 -5.05538E+03  1.98002E+02 -8.12410E+03 -4.93063E+02
 -1.07772E+04 -2.66224E+03 -5.78400E+03 -9.65992E+03  3.31118E+03 -6.23013E+03  1.59890E+04 -4.30773E+03
  1.82905E+04 -8.75494E+03  3.18770E+03  7.03008E+03  5.99097E+03  1.06194E+04 -1.16254E+04  3.95767E+03
