 $NMID ID='MM_0lb_SNR50_7hz_g60_88.RAW', FMTDAT='(8E13.5)'
 TRAMP=1., VOLUME=1. $END
  3.06153E+05  2.80171E+03  3.41392E+05  2.48911E+05  8.34468E+04  3.38089E+05 -1.29938E+05  2.56721E+05
 -1.84948E+05  8.59471E+04 -1.15154E+05 -3.22556E+04 -8.01617E+03 -5.03672E+04  4.94705E+04  1.05502E+04
  3.60497E+04  5.22624E+04 -1.72162E+04  7.20475E+04 -6.22546E+04  6.92964E+04 -7.09123E+04  4.24775E+04
 -8.49203E+04 -9.22074E+03 -5.24231E+04 -5.31537E+04 -1.76685E+04 -6.79912E+04  3.29988E+04 -4.17278E+04
  4.78635E+04 -2.48482E+03  1.65750E+04  4.88785E+04 -3.58520E+04  4.63114E+04 -6.89279E+04 -5.58107E+03
 -5.80620E+04 -5.97540E+04 -1.03009E+04 -8.14311E+04  3.32530E+04 -6.14361E+04  4.89757E+04 -1.02113E+04
  5.50139E+04  1.83759E+04  3.62573E+04  2.22489E+04  1.72901E+04  3.73404E+04 -1.89971E+03  2.89848E+04
 -2.67074E+04  1.47359E+04 -1.87253E+04 -1.46356E+04  4.93233E+03 -5.95715E+03  2.31396E+04  1.02935E+04
  1.29863E+04  3.62732E+04 -3.96696E+04  4.44027E+04 -7.02417E+04  2.05198E+03 -6.04932E+04 -4.82526E+04
 -1.36408E+04 -6.79800E+04  4.47281E+04 -4.57153E+04  6.38410E+04  2.37989E+03  5.05303E+04  3.15566E+04
 -5.94352E+03  4.10939E+04 -4.14458E+04  2.38378E+04 -2.86441E+04  2.67972E+03 -1.75778E+04 -9.98179E+03
 -8.43137E+03 -1.16035E+04  8.15409E+03 -2.78119E+04  9.13254E+03 -2.92674E+04  1.38704E+04 -5.35353E+03
  1.05889E+04  3.99783E+03 -1.28899E+04  7.55617E+03 -2.69334E+04 -2.34181E+03 -1.89953E+03 -4.37486E+04
  2.93328E+04 -4.06560E+04  6.07451E+04 -2.58071E+04  5.20658E+04  1.97715E+04  1.56422E+04  5.22193E+04
 -1.99018E+04  3.83899E+04 -2.79321E+04  6.07383E+03 -1.49677E+04 -2.93400E+04  2.81370E+04 -3.33190E+04
  4.62852E+04 -6.78036E+03  4.13802E+04  1.89289E+04  2.16202E+04  4.56207E+04 -8.10527E+03  5.63909E+04
 -3.82378E+04  4.31981E+04 -4.99511E+04  9.94324E+03 -4.97435E+04 -2.26876E+04 -2.96395E+04 -4.59920E+04
  7.98850E+03 -4.51441E+04  4.17069E+04 -1.64435E+04  4.11639E+04  1.27581E+04  1.25578E+04  1.74774E+04
 -1.77211E+04  8.76191E+03 -1.33567E+04 -4.86607E+03  1.56572E+03 -1.06204E+04  1.94737E+04  3.08509E+03
  1.54400E+04  1.86043E+04 -3.55293E+03  2.96742E+04 -2.29433E+04  1.99884E+04 -3.54729E+04 -3.98597E+03
 -2.33366E+04 -2.97000E+04 -1.38990E+04 -2.28780E+04 -1.82029E+02 -3.13117E+04  2.59602E+04 -2.71773E+04
  3.26638E+04 -1.61846E+04  3.94073E+04  4.59309E+03  2.90724E+04  3.29031E+04 -2.14395E+03  4.32612E+04
 -2.99991E+04  3.03103E+04 -3.13571E+04  1.91669E+04 -2.05852E+04 -4.02946E+03 -1.61411E+03 -9.41164E+03
 -1.71495E+03 -2.99665E+03 -9.35678E+03  8.78130E+03 -2.46179E+04  5.83527E+03 -2.31719E+04 -1.06633E+04
 -1.63981E+04 -2.50111E+04  8.81512E+03 -3.30077E+04  2.54593E+04 -2.14255E+04  2.15879E+04  5.95565E+03
  2.18131E+04  1.79994E+04  3.50718E+03  3.30401E+04 -1.66170E+04  1.72312E+04 -1.94076E+04 -7.68866E+03
 -1.56457E+04 -2.69083E+04 -9.72621E+03 -3.60706E+04  2.39684E+04 -2.54283E+04  2.00711E+04 -1.29296E+04
  2.55879E+04  1.50420E+03  8.88731E+03  5.53666E+03  1.16925E+04 -2.64491E+03  1.28242E+04 -7.90258E+03
  3.12870E+04  4.62577E+03  2.77073E+04  1.85057E+04  2.13848E+04  4.22790E+04 -1.73968E+03  5.09938E+04
 -2.74376E+04  3.70049E+04 -5.21148E+04  2.32534E+04 -5.14404E+04 -4.35266E+03 -4.00119E+04 -3.07427E+04
 -6.95924E+03 -4.35129E+04  1.56484E+04 -3.43094E+04  2.91755E+04 -2.25588E+04  3.01092E+04  1.09998E+04
 -4.22754E+03  1.82942E+04 -1.15302E+04  1.27732E+04 -2.71581E+04 -1.39080E+03 -1.01702E+04 -1.30209E+04
  4.33964E+03 -1.39578E+04  9.94331E+03 -1.83641E+04  1.60299E+04  8.89213E+02  1.09198E+04  1.15979E+04
 -3.07632E+03  3.17725E+03 -1.18273E+04 -5.12873E+03  9.02712E+03 -1.96062E+04  1.24799E+04 -2.38683E+04
  2.20914E+04 -1.39419E+04  3.71774E+04  4.97565E+03  3.08361E+04  2.65782E+04  1.99520E+04  3.79426E+04
 -5.47877E+03  3.88270E+04 -1.65697E+04  2.79628E+04 -2.46929E+04  6.08092E+03 -7.46150E+03 -1.39206E+04
 -1.25344E+04 -1.26805E+04 -3.36425E+03  2.78671E+03  3.96415E+03  8.55290E+02 -4.67265E+03  6.87861E+03
 -2.29601E+04  1.55262E+03 -1.76495E+04 -1.25448E+04 -1.33100E+04 -2.83005E+04  5.70634E+03 -2.52174E+04
  8.61211E+03 -1.19919E+04  6.02869E+03 -3.64702E+03 -2.62911E+03  8.07387E+03 -9.71387E+03 -4.36571E+03
 -2.48247E+03 -1.53503E+04  6.83935E+02 -2.63560E+04  1.01707E+04 -2.35566E+04  2.02189E+04 -3.62221E+03
  3.18248E+04  1.97632E+03  1.97707E+04  1.72024E+04 -3.24715E+03  2.34345E+04 -1.59495E+04  1.91395E+04
 -2.27315E+04  3.13046E+03 -3.83319E+03 -4.18487E+03  2.86962E+03 -1.06308E+04  1.10348E+04 -3.06849E+03
  6.36323E+03  6.18219E+03  4.30872E+03  9.11121E+03 -1.15635E+04  2.28051E+04 -1.81628E+04  7.10618E+03
 -6.92746E+03 -8.02394E+03  2.10901E+03 -2.05949E+04  8.11924E+03 -8.37691E+03  1.44627E+04  3.18542E+03
 -1.40930E+03  1.55124E+04 -1.29298E+04  7.11389E+03 -1.48753E+04  1.16995E+04 -2.31646E+04 -1.05493E+04
 -5.76320E+03 -1.70866E+04  8.56782E+03 -1.73542E+04  2.07478E+04 -1.65443E+04  2.86798E+04 -2.63556E+02
  1.64116E+04  1.94062E+04 -6.31681E+03  1.88460E+04 -2.04315E+04  1.15599E+04 -1.59594E+04  3.35337E+02
 -1.59931E+04 -1.31609E+04 -1.77783E+03 -8.16976E+03  7.99032E+03 -1.31170E+04  9.51349E+03 -6.58380E+03
  8.21657E+03  4.53134E+03 -1.27466E+03  2.89298E+03 -1.29396E+03 -7.17102E+03  5.48663E+03 -6.37658E+03
  1.95579E+04 -7.83708E+03  2.25105E+04  1.55983E+03  1.39151E+04  1.17977E+04  1.53055E+04  2.88640E+04
 -8.88531E+03  3.07451E+04 -2.64996E+04  2.45648E+04 -3.04843E+04  4.37117E+03 -3.19981E+04 -4.55478E+03
 -2.11508E+04 -2.57826E+04  6.84045E+03 -2.07705E+04  4.35328E+03 -7.28592E+03  5.44491E+03 -5.15227E+02
  8.60505E+03 -5.53357E+03  8.78676E+03 -9.28243E+03  1.54294E+03 -8.45748E+03  9.52058E+03 -1.32997E+03
  1.17877E+04  2.31934E+03  7.14822E+03  1.43824E+04  2.87153E+03  8.69669E+03 -1.61305E+04  1.13640E+04
 -1.97168E+04  3.21986E+03 -9.81998E+03 -2.32888E+04  1.03277E+03 -2.97467E+04  9.91063E+03 -1.72290E+04
  1.96306E+04 -8.16102E+03  2.62999E+04 -1.38341E+03  1.90068E+04  2.05819E+04  1.46478E+03  2.92558E+04
 -1.08013E+04  1.51148E+04 -1.32256E+04  5.55499E+03 -9.32143E+03 -2.12633E+02 -6.26021E+03  9.98001E+01
 -6.67736E+03  2.89427E+03 -4.68026E+03  1.04768E+03 -1.15506E+04  6.09870E+03 -1.56611E+04 -4.73821E+03
 -1.69198E+04 -1.41899E+04  2.48705E+03 -2.00789E+04  1.26751E+04 -2.04154E+04  2.42143E+04 -7.75731E+03
  1.94436E+04  5.62440E+03  3.09274E+03  1.34946E+04 -2.77571E+03  2.06327E+04 -1.75585E+04  9.93282E+03
 -1.40818E+04  3.28521E+03 -7.61339E+03 -6.90621E+03  1.28009E+04 -2.01297E+04  1.62728E+04 -9.24797E+03
  1.54728E+04  4.54404E+01  7.87935E+03  1.99126E+03  2.20499E+03  1.29921E+03  8.27283E+03  7.47062E+03
  7.26865E+03  1.96431E+03  7.11285E+03  3.39146E+03  1.95911E+03  4.51102E+03  1.21115E+04  1.35782E+04
 -3.96230E+03  1.82723E+04 -1.19216E+04  2.07857E+04 -2.31540E+04  4.78605E+03 -2.28625E+04 -1.50028E+04
 -1.51185E+04 -1.69727E+04  5.78541E+03 -2.79915E+04  1.41327E+04 -1.61994E+04  2.37343E+04 -2.61228E+03
  1.85948E+04  1.71166E+04  6.08476E+03  1.09811E+04 -1.22545E+04  6.80797E+03 -8.26655E+03 -9.68412E+03
 -8.07424E+03 -1.03797E+04  1.63110E+03 -1.07822E+04  7.36556E+03 -2.56211E+03  7.40211E+03  1.64048E+03
  2.17043E+03  2.53468E+03  4.21560E+03  4.53681E+03 -2.07551E+03  6.25754E+03  7.11915E+03  4.00775E+03
  3.43765E+03  8.11748E+03  1.28306E+04  1.21728E+03  1.05081E+03  8.30884E+03  6.41345E+02  1.61025E+04
 -8.17613E+03  5.85933E+03 -1.18870E+04  4.54235E+03 -1.05605E+04 -7.02947E+03 -9.88704E+03 -8.04685E+03
  6.13794E+01  3.18744E+03  5.10979E+03 -5.56334E+03  6.13233E+03  6.18273E+03 -3.99118E+03  1.14497E+04
 -6.72242E+03  5.87129E+02 -1.22858E+04 -8.70235E+03 -4.17636E+03 -1.07159E+04 -1.98925E+03 -1.52955E+04
  7.37635E+03  9.14818E+02  4.19911E+03  1.15943E+02  6.75785E+03  1.84533E+03 -2.59302E+03  8.49410E+03
  3.73520E+03  3.52870E+03 -8.64749E+03 -2.29672E+03  7.96553E+02 -1.08840E+04  1.43089E+03 -9.79715E+03
  1.82815E+04  1.11185E+03  9.70511E+03  1.05136E+04  2.44611E+03  2.24339E+04 -1.63318E+02  1.46004E+04
 -1.41722E+04  7.28024E+03 -1.20362E+04  9.15899E+02 -7.39156E+03 -6.60748E+03  7.69813E+03  1.80637E+03
  1.66072E+04 -5.42615E+03  1.27732E+04 -3.20781E+02  1.66613E+03  9.30355E+03 -1.64240E+03  1.06122E+04
 -5.68994E+03  4.68162E+00 -6.17496E+03  1.33201E+03 -3.05804E+03  5.25874E+03 -4.72296E+03  4.89471E+03
 -5.72890E+03  4.10881E+03 -1.36471E+04  1.07501E+04 -1.98584E+04 -6.02604E+03 -1.55980E+04 -1.02589E+04
 -8.44005E+03 -1.61044E+04  5.40369E+03 -1.62782E+04  1.75012E+04 -1.73793E+04  1.77256E+04 -1.10343E+04
  2.51495E+04  3.86320E+03  5.34302E+03  1.21448E+04 -4.99573E+03  1.62621E+04 -1.54574E+04  1.63816E+04
 -8.39118E+03 -1.82167E+03 -3.72114E+03  4.14128E+03 -6.26311E+03  5.11150E+03  5.70576E+03 -8.06745E+02
 -1.52532E+03  1.05782E+04 -4.34935E+00  4.28742E+03  5.95553E+03  2.66570E+03  7.88655E+02 -7.09759E+03
  7.19465E+03 -4.80137E+03  9.58845E+03 -3.86109E+03  1.57031E+04  1.87478E+04 -1.67904E+03  1.79176E+04
 -8.80086E+03  1.75650E+04 -1.89431E+04  1.41100E+04 -1.76493E+04 -2.11462E+03 -1.54978E+04 -1.75519E+04
 -7.38235E+03 -1.53642E+04 -1.81867E+02 -9.10896E+03  7.86846E+03 -5.31075E+03  7.53643E+03 -9.54973E+02
  8.14725E+03  1.56913E+03 -1.87515E+03  1.05170E+04 -1.87509E+03  4.83730E+03 -6.97714E+01  2.14311E+03
  9.90260E+03 -2.00233E+03  2.41912E+03  6.18562E+03  1.10024E+04  9.68893E+03 -3.07506E+03  2.76630E+03
 -3.77064E+03  8.56825E+03 -1.52429E+04 -5.00526E+03 -1.48701E+04 -4.98948E+03 -2.39764E+03 -1.73516E+04
  8.41798E+03 -1.38723E+04  1.57289E+04  2.06749E+03  1.26329E+04  8.88709E+03  2.66755E+03  2.53605E+03
 -2.37704E+03  1.82133E+03 -5.77000E+03  5.67816E+03 -6.46740E+03  3.80563E+03 -8.00965E+03 -3.49517E+02
 -5.85069E+03  5.76151E+03 -6.03525E+03 -2.64049E+03 -2.26601E+03 -8.77190E+03 -5.24462E+03  2.26033E+03
 -6.19549E+03 -4.85866E+03  4.60861E+02 -1.45223E+04  2.73396E+03 -1.61886E+04  1.51160E+04 -1.45915E+04
 -4.09820E+02  3.07854E+03  5.74859E+03  6.30681E+03 -9.13991E+02  1.48978E+04 -8.22872E+03  8.61111E+03
