 $NMID ID='MM_0lb_SNR50_8hz_g45_79.RAW', FMTDAT='(8E13.5)'
 TRAMP=1., VOLUME=1. $END
  3.08942E+05  2.79785E+03  3.37770E+05  2.56794E+05  9.42742E+04  3.41305E+05 -1.31503E+05  2.49583E+05
 -1.87966E+05  7.72532E+04 -1.10849E+05 -3.23212E+04 -3.92739E+03 -4.48229E+04  5.55919E+04 -3.59050E+03
  3.86532E+04  4.75734E+04 -1.68704E+04  7.52472E+04 -6.45863E+04  6.51103E+04 -8.86010E+04  3.42528E+04
 -8.29493E+04 -1.13505E+04 -5.88318E+04 -5.59577E+04 -2.38033E+04 -6.76180E+04  2.67273E+04 -4.87542E+04
  4.19783E+04  2.13330E+03  1.66753E+04  4.74004E+04 -3.75588E+04  4.28583E+04 -7.06081E+04 -5.16425E+02
 -5.65473E+04 -5.49315E+04 -2.64716E+03 -8.32287E+04  3.53281E+04 -5.46119E+04  4.93028E+04 -1.59527E+04
  4.29288E+04  1.40835E+04  3.79924E+04  2.31038E+04  1.23882E+04  2.86019E+04 -4.89600E+03  2.94726E+04
 -2.90802E+04  6.75805E+03 -1.32477E+04 -6.27625E+03  6.70193E+03 -4.79215E+03  2.30033E+04  1.58650E+04
  3.45580E+03  4.28780E+04 -3.42817E+04  4.31909E+04 -6.90666E+04  6.41945E+02 -5.26689E+04 -4.21187E+04
 -1.72185E+04 -6.41673E+04  4.67652E+04 -4.35502E+04  6.99179E+04 -1.12554E+03  3.88403E+04  3.66570E+04
 -4.89081E+03  3.39290E+04 -3.03320E+04  2.12173E+04 -3.84796E+04 -5.03612E+03 -1.57658E+04 -4.59911E+03
 -9.70549E+03 -1.53346E+04  8.66067E+02 -1.15286E+04  9.62003E+03 -2.03618E+04  2.42594E+04 -7.81449E+03
  7.49233E+03  1.44853E+04 -1.53505E+04  8.93258E+03 -2.46135E+04 -4.05724E+03 -1.22188E+04 -4.12460E+04
  2.39806E+04 -4.92126E+04  5.60176E+04 -1.83702E+04  5.69416E+04  2.18239E+04  1.67168E+04  4.59639E+04
 -1.82062E+04  3.81851E+04 -2.81767E+04  2.35016E+03 -2.18458E+04 -3.28567E+04  2.08975E+04 -3.37238E+04
  4.24980E+04 -1.54036E+04  4.15928E+04  2.67665E+04  1.80046E+04  4.94806E+04 -1.13108E+04  5.36114E+04
 -4.10283E+04  4.38328E+04 -5.37689E+04  9.56073E+03 -4.97449E+04 -1.96390E+04 -2.70051E+04 -3.28569E+04
  1.85002E+04 -4.64448E+04  4.06052E+04 -1.71124E+04  3.51472E+04  1.17869E+04  2.76568E+03  2.37603E+04
 -5.71075E+03  3.17797E+03 -1.29230E+04 -7.33414E+03  6.32870E+03 -7.91663E+03  1.38609E+04  3.75200E+03
  8.64049E+03  2.69782E+04 -7.33046E+03  2.68441E+04 -2.20303E+04  1.45860E+04 -3.43265E+04 -9.94121E+02
 -2.42115E+04 -2.70116E+04 -2.13896E+04 -2.43995E+04  4.20079E+03 -2.40066E+04  1.65126E+04 -2.34216E+04
  2.63863E+04 -1.89831E+04  4.32290E+04 -7.04322E+02  2.99872E+04  2.51812E+04  3.39815E+02  4.28888E+04
 -2.08467E+04  3.26894E+04 -2.62079E+04  1.60733E+04 -2.84327E+04 -9.06593E+03 -3.44953E+03 -8.12458E+03
 -5.38154E+03  1.28222E+03 -4.89215E+02  9.37428E+03 -2.34662E+04  2.63971E+03 -2.00350E+04 -6.16783E+03
 -1.83847E+04 -2.85596E+04  4.43702E+03 -2.68324E+04  1.79060E+04 -2.69884E+04  2.37909E+04 -6.20935E+03
  9.93763E+03  1.65578E+04 -5.75440E+03  2.48874E+04 -1.96765E+04  1.32180E+04 -2.58236E+04 -8.42825E+03
 -1.29499E+04 -2.60960E+04 -2.04147E+03 -2.81948E+04  1.20565E+04 -2.66796E+04  2.50700E+04 -9.45418E+03
  2.23791E+04 -6.14217E+02  2.14582E+04  6.70672E+03  4.37188E+03 -4.92250E+03  1.17608E+04 -1.32015E+03
  2.21053E+04  7.37887E+03  2.51774E+04  2.03757E+04  1.42177E+04  3.46721E+04 -3.07642E+03  5.51708E+04
 -3.12689E+04  3.93913E+04 -4.75842E+04  1.86945E+04 -4.85425E+04  3.74727E+03 -3.42702E+04 -2.67126E+04
 -1.39782E+04 -3.38127E+04  1.00329E+04 -3.06898E+04  3.74493E+04 -1.31167E+04  2.44182E+04  8.38653E+03
  1.02314E+04  2.52259E+04 -6.36665E+03  1.83691E+04 -9.43787E+03  2.88768E+03 -1.49981E+04 -1.31274E+04
 -2.88347E+03 -1.25255E+04  1.93740E+04 -1.44718E+04  1.32826E+04 -1.02815E+03  4.54373E+03  1.06516E+04
 -7.08747E+03  2.72882E+03 -8.70876E+03 -1.14238E+04 -4.84311E+03 -1.28276E+04  1.19957E+04 -2.39057E+04
  2.87924E+04 -5.67995E+03  2.39211E+04  8.18301E+03  3.00256E+04  1.93108E+04  1.22992E+04  2.74420E+04
 -1.03572E+04  3.77829E+04 -1.80052E+04  1.76599E+04 -2.43358E+04  3.13566E+03 -1.48538E+04 -2.57785E+03
 -8.57027E+03 -9.48446E+03 -5.39352E+03 -5.53963E+03 -2.79370E+02  7.47015E+00 -8.85474E+03  9.27922E+03
 -1.59478E+04 -7.95551E+02 -1.21187E+04 -1.60453E+04 -9.45220E+03 -1.97908E+04  5.45106E+03 -1.00460E+04
  1.11115E+04 -2.65911E+03  8.22047E+03  9.78963E+03  9.34332E+02  3.64549E+03  1.12980E+03 -1.37598E+03
 -5.86226E+03 -1.33777E+04 -7.77053E+03 -1.42798E+04  5.95846E+03 -1.93857E+04  2.29910E+04 -7.84543E+03
  2.75664E+04  1.13890E+04  1.94701E+04  1.00515E+04  4.70339E+03  1.48178E+04 -1.50698E+04  1.68833E+04
 -1.53343E+04  8.40873E+03 -9.88846E+03  1.01676E+03  4.61660E+03 -4.39956E+03  1.80702E+03 -1.05746E+04
  1.00548E+04  1.21550E+04  3.69526E+03  1.31521E+04 -5.36271E+03  1.36032E+04 -1.63059E+04  4.35749E+02
 -1.15538E+04 -2.32029E+03 -2.27702E+03 -1.52702E+04  1.05954E+04 -2.52147E+02  1.40941E+04  1.50588E+03
  4.61403E+03  1.04164E+04 -7.62467E+03  1.19212E+04 -1.71074E+04  3.24049E+03 -1.05977E+04 -6.14481E+03
 -8.17814E+03 -2.09849E+04  1.67634E+02 -2.34019E+04  7.44078E+03 -3.28593E+03  1.71352E+04  3.00771E+02
  1.43033E+04  1.04163E+04  2.14335E+03  1.91984E+04 -1.03446E+04  7.85832E+03 -8.08160E+03  3.92531E+03
 -8.22371E+03 -8.47804E+03  2.55785E+03 -1.12895E+04  7.30821E+03 -8.43182E+03  4.33362E+03 -7.81956E+03
  7.80813E+03  2.57051E+03 -4.53994E+03 -2.74749E+03  4.45651E+03 -8.63050E+03  8.68975E+03 -8.95183E+03
  1.12203E+04  4.26565E+03  1.19868E+04  2.99255E+03  1.96294E+04  1.71685E+04  1.31465E+04  2.41141E+04
 -5.30286E+03  2.71037E+04 -2.00954E+04  1.41944E+04 -2.34178E+04 -2.35063E+03 -2.26163E+04 -1.21286E+04
 -1.54316E+04 -2.39792E+04 -1.39302E+03 -2.12031E+04  3.00484E+03 -7.36557E+03  8.92681E+03 -2.71440E+03
 -2.49049E+03 -1.41018E+03  7.32200E+03 -1.01708E+04  7.57513E+03 -1.07742E+04  1.30816E+04 -1.33728E+03
  6.30798E+03  3.79353E+03  3.63870E+03  1.14317E+04 -4.82801E+03  1.50005E+04 -1.78480E+04  1.61804E+04
 -1.20452E+04 -3.53497E+03 -7.64356E+03 -1.31690E+04  1.01361E+03 -1.92630E+04  6.13604E+03 -2.06506E+04
  2.37970E+04 -1.17340E+04  1.69670E+04 -1.16982E+03  2.02867E+04  1.21223E+04  4.51405E+03  1.90849E+04
 -1.12858E+04  1.27986E+04 -1.67498E+04  1.24173E+03 -8.34666E+03 -1.41704E+03 -1.81137E+03 -1.41149E+03
 -2.19763E+02  7.59023E+02  2.06931E+03 -1.61245E+03 -6.50413E+03  4.30379E+03 -1.55167E+04 -3.49928E+03
 -9.83029E+03 -1.04943E+04 -2.34283E+03 -1.79593E+04  1.37617E+04 -1.73551E+04  1.57131E+04 -5.01218E+03
  2.19532E+04  5.78098E+03  1.06788E+04  7.52351E+03  1.54810E+03  1.63139E+04 -1.07046E+04  1.33967E+04
 -1.15221E+04  5.84122E+03 -1.41830E+04 -7.71892E+03 -5.61950E+03 -1.34434E+04  4.28479E+03 -1.12957E+04
  7.48435E+03 -2.37695E+03  4.21341E+03  2.23512E+03 -3.63727E+03 -2.32521E+02 -5.21729E+03  4.21335E+03
  3.47144E+03  7.92442E+02  7.90025E+03 -4.48559E+03  1.11133E+03  6.46469E+03  3.30687E+03  1.04958E+04
 -8.18654E+03  1.19922E+04 -1.26153E+04  1.86096E+04 -1.78534E+04  1.35713E+02 -1.49979E+04 -8.55618E+03
 -4.76139E+03 -1.50049E+04  9.47051E+03 -1.68563E+04  1.01786E+04 -2.09818E+04  1.82643E+04 -8.99542E+03
  9.52653E+03  7.28019E+03  5.19583E+03  7.70393E+03 -4.70913E+03  1.86983E+03 -1.13967E+04  3.66015E+03
 -4.90966E+03 -7.35543E+03  3.96296E+03 -1.25741E+04  1.54838E+04 -5.20242E+01  1.13727E+04  4.61326E+03
  7.03838E+03 -1.87053E+03  5.10727E+03  1.83039E+03 -6.52051E+03 -7.04252E+03 -2.49735E+02  3.59819E+03
  6.61901E+02  3.03648E+03  9.55131E+03 -1.55044E+03  5.18963E+03  1.73291E+04 -9.35025E+02  1.20745E+04
 -8.63284E+03  6.68131E+03 -8.89802E+03 -3.63608E+03 -1.32083E+04 -7.07214E+03 -1.15125E+03 -3.48680E+03
 -8.89449E+02 -6.97381E+03  3.41498E+03 -5.28262E+03  3.38775E+03  3.36801E+03 -4.67580E+03  4.10381E+03
 -8.89447E+03 -4.71309E+03 -8.51589E+03 -7.10333E+03 -6.57755E+03 -6.00162E+03 -2.94166E+02 -9.33996E+03
  6.78624E+03 -3.65462E+03  6.01099E+03  2.49358E+03  8.17017E+02 -3.19718E+03  2.44420E+02  1.48441E+04
 -5.75588E+03 -9.03186E+01  7.82572E+02 -3.87526E+03  2.90822E+03 -6.46258E+03  8.97411E+03 -5.18248E+03
  1.10950E+04  3.43563E+03  1.01252E+04  7.19371E+03  1.15653E+04  1.28941E+04 -2.31239E+03  8.12512E+03
 -1.54262E+04  4.04895E+03 -6.83330E+03  8.95254E+02 -4.73736E+03 -9.01833E+03  4.87407E+03 -8.72174E+03
  4.67996E+03 -4.42891E+02  1.12358E+04  3.14694E+03 -1.72603E+03  6.14443E+03 -2.29181E+03  4.65523E+03
  3.26799E+02  4.46975E+03 -1.65192E+03  7.79523E+03 -1.60583E+03  1.56718E+03 -5.66521E+03  3.26511E+02
 -3.02710E+03  9.85377E+03 -4.49928E+03  4.81858E+03 -1.05731E+04 -1.32727E+03 -1.21104E+04 -7.88013E+03
 -2.78344E+03 -1.40829E+04  3.99942E+03 -1.99945E+04  1.46020E+04 -7.27698E+03  1.54944E+04 -9.54144E+02
  1.35177E+04 -1.72890E+03  5.10496E+03  1.31933E+04 -5.53044E+02  9.89863E+03 -7.59248E+03  1.28614E+04
 -6.64843E+03  3.62562E+03 -8.34137E+03 -1.30088E+03  6.62561E+03  3.91347E+02  1.91912E+03  7.28445E+03
 -1.14965E+04 -3.81484E+03 -1.38097E+03 -1.25243E+03 -1.26585E+03 -5.77608E+03  1.81810E+03 -1.37310E+04
  1.00696E+03 -8.85305E+03  4.08125E+03 -1.16433E+03  1.33244E+04  5.70115E+03 -9.95400E+01  9.60297E+03
 -3.85317E+03  1.38541E+04 -8.49321E+03  7.11716E+03 -1.31876E+04  5.51731E+02 -6.41397E+03 -6.91824E+03
 -4.03103E+03 -1.74230E+04  6.48749E+03 -1.31284E+04  8.51079E+03 -3.92199E+03  3.62236E+03 -1.28089E+03
  2.00114E+03  2.57258E+03 -2.14482E+03  6.78167E+03 -2.31562E+03 -4.64506E+03  6.06964E+03  1.24706E+03
  1.16516E+04 -6.08338E+03  5.99282E+03 -6.71523E+03  2.32017E+03  4.53433E+03 -4.65229E+03  4.84994E+03
 -3.80057E+03  1.42814E+04 -4.47399E+03  2.06746E+03 -3.75876E+03 -6.81875E+03 -3.15702E+03 -1.08653E+04
 -7.01951E+02 -7.01025E+03  9.64064E+03 -2.93876E+03  1.08149E+04  3.58647E+03  8.52060E+03  7.25546E+03
  2.23032E+03  4.61493E+03 -4.81927E+03  8.90642E+03 -7.52129E+03  3.74709E+03 -4.96450E+03  4.81159E+03
 -3.08402E+03 -3.86602E+03  1.42659E+03  4.44601E+03 -2.65866E+03 -1.42577E+03 -5.42927E+03  3.88308E+03
 -1.09521E+04 -6.55914E+03  1.05635E+03 -1.01638E+04  6.27059E+03 -7.99610E+03  5.52385E+03 -7.11735E+03
 -3.82919E+03 -1.78938E+03  3.02501E+03  6.17013E+03  3.87087E+02  1.28280E+04 -2.54210E+03  6.91544E+03
