 $NMID ID='MM_0lb_SNR50_17hz_g50_15.RAW', FMTDAT='(8E13.5)'
 TRAMP=1., VOLUME=1. $END
  3.02373E+05  1.18998E+03  3.35964E+05  2.49891E+05  8.90043E+04  3.36563E+05 -1.31204E+05  2.52367E+05
 -1.88681E+05  8.04984E+04 -1.10450E+05 -3.44905E+04 -1.06378E+03 -5.03702E+04  5.53011E+04  2.71289E+03
  3.80009E+04  5.25240E+04 -1.69288E+04  7.50793E+04 -6.58242E+04  6.66543E+04 -8.35743E+04  3.43036E+04
 -8.12399E+04 -1.13095E+04 -5.65384E+04 -4.71865E+04 -1.43322E+04 -7.19090E+04  2.72629E+04 -4.36015E+04
  4.02166E+04 -1.70213E+02  1.92911E+04  4.66998E+04 -3.35047E+04  4.43041E+04 -6.62640E+04 -2.15499E+03
 -5.90687E+04 -6.24580E+04 -4.75725E+03 -7.70068E+04  3.40745E+04 -5.84610E+04  4.88535E+04 -1.59648E+04
  3.79214E+04  1.11256E+04  2.70783E+04  2.52435E+04  1.68663E+04  3.28563E+04 -9.05456E+03  2.78617E+04
 -2.12550E+04  1.56127E+04 -1.68852E+04 -2.79421E+03  4.65725E+03 -6.25619E+03  1.97194E+04  9.20813E+03
  9.16551E+03  3.52411E+04 -3.49889E+04  3.80155E+04 -6.41510E+04  3.47044E+03 -5.60608E+04 -4.32094E+04
 -9.57287E+03 -6.26055E+04  4.21115E+04 -4.27503E+04  5.04911E+04 -1.74420E+02  3.30671E+04  3.12647E+04
 -3.48632E+03  3.02220E+04 -3.03885E+04  1.66440E+04 -2.86368E+04 -5.31870E+03 -1.24646E+04 -1.42363E+04
 -8.69883E+03 -1.19002E+04  2.78031E+03 -1.35347E+04  5.51891E+03 -2.41772E+04  1.30305E+04 -1.07243E+04
  1.12637E+04  7.06469E+03 -9.19354E+03  1.24803E+04 -1.75698E+04 -7.03164E+03 -1.22056E+04 -3.08737E+04
  2.28191E+04 -3.78259E+04  4.88500E+04 -2.19320E+04  4.12000E+04  2.22795E+04  1.40573E+04  4.25212E+04
 -2.02048E+04  3.59914E+04 -3.00930E+04 -1.85794E+03 -1.15468E+04 -2.63888E+04  2.51334E+04 -2.96460E+04
  3.91304E+04 -4.01534E+03  3.37734E+04  2.40379E+04  1.38184E+04  4.36118E+04 -7.53369E+03  4.11747E+04
 -2.73089E+04  3.03288E+04 -3.95475E+04  6.14066E+03 -3.80086E+04 -1.38053E+04 -2.11533E+04 -3.70159E+04
  2.93090E+03 -3.85874E+04  3.17083E+04 -1.14295E+04  2.65406E+04  9.66382E+03  4.81467E+03  2.18879E+04
 -1.20551E+04  9.62669E+03 -8.95462E+03 -7.61724E+03  5.49584E+03 -1.20760E+04  1.43506E+04  6.94164E+03
  1.40398E+04  2.37927E+04 -4.87734E+03  2.55133E+04 -1.78343E+04  1.14645E+04 -2.55000E+04 -3.01863E+03
 -1.54072E+04 -1.58292E+04 -1.86945E+02 -2.08845E+04  1.83364E+03 -1.69501E+04  1.48015E+04 -1.49782E+04
  2.45417E+04 -1.61722E+04  2.86257E+04 -1.53099E+03  2.12141E+04  1.94069E+04  1.06410E+03  3.67274E+04
 -1.55276E+04  2.71012E+04 -3.28676E+04  6.72229E+03 -2.14296E+04 -5.93412E+03 -1.64069E+03 -1.09540E+04
  2.88253E+03 -5.24461E+03 -2.13570E+03  3.52134E+03 -1.74364E+04  3.38625E+03 -1.72113E+04 -5.87740E+03
 -1.03751E+04 -1.35542E+04  7.28646E+03 -1.80768E+04  1.63433E+04 -1.22198E+04  1.77200E+04 -8.73907E+03
  1.45284E+04  1.27802E+04 -1.64726E+03  1.74099E+04 -1.03510E+04  1.05551E+04 -1.67328E+04 -4.12026E+03
 -1.69342E+04 -1.87784E+04 -6.23953E+02 -2.43382E+04  3.64585E+03 -2.16067E+04  1.75536E+04 -7.96557E+03
  1.49474E+04 -1.42534E+02  1.23580E+04  3.18334E+03  6.43387E+03  5.22330E+03  1.03418E+04  1.66355E+03
  1.82322E+04  5.98114E+03  2.35060E+04  8.66771E+03  1.33765E+04  2.36731E+04 -9.41995E+03  2.67914E+04
 -1.28768E+04  2.28815E+04 -2.82328E+04  1.13994E+04 -2.72158E+04  8.70010E+02 -2.17829E+04 -1.52632E+04
 -1.06258E+04 -2.34737E+04  9.29860E+03 -2.42917E+04  1.75530E+04 -1.27240E+04  1.72161E+04  3.48712E+03
  1.10437E+04  1.27973E+04 -8.07217E+03  1.05798E+04 -1.58970E+04  5.43258E+03 -1.28350E+04 -7.45400E+03
  1.39480E+03 -8.42970E+03  7.32130E+03 -1.09432E+04  8.71993E+03 -2.13283E+03  9.79983E+02  2.97378E+03
 -7.53728E+03  2.41566E+03 -3.77742E+03 -6.11655E+03 -6.23529E+00 -1.48386E+04  7.66962E+03 -1.42980E+04
  9.79244E+03 -6.55136E+03  1.05596E+04  2.49273E+03  1.22022E+04  9.39986E+03  9.12309E+03  1.65324E+04
 -3.69044E+03  2.39525E+04 -1.34142E+04  8.03809E+03 -1.67384E+04  4.69739E+03 -1.33644E+04 -1.28742E+03
 -5.97308E+03 -2.91761E+03 -2.78456E+03  3.08476E+03  8.69706E+02  2.49008E+03 -6.67982E+03  2.85790E+03
 -9.20720E+03  1.11764E+03 -8.03524E+03 -7.02678E+03 -5.25985E+02 -1.29367E+04  2.91795E+03 -8.44630E+03
  6.74367E+03 -3.05974E+03  2.43751E+03  9.64443E+01 -3.69176E+03  5.56598E+03 -4.53340E+03  1.75724E+03
 -4.31517E+03 -6.98232E+03  1.69238E+03 -1.07244E+04  3.01815E+03 -9.33141E+03  1.00413E+04 -3.72095E+03
  1.38502E+04  1.02616E+03  9.92094E+03  7.05536E+03  1.44533E+03  8.63762E+03 -8.47213E+03  1.10570E+04
 -7.36885E+03  2.92440E+03 -5.14494E+03  1.38076E+03 -7.30064E+02  1.99852E+03  8.20701E+03  2.09077E+03
  1.09485E+04  7.06970E+03 -5.01767E+02  5.10906E+03 -3.31158E+03  6.33638E+03 -7.17562E+03  3.16115E+03
 -5.44576E+03 -4.19401E+03 -5.51173E+01 -8.45124E+03  3.64456E+03 -1.26183E+03  6.50078E+03  4.53662E+03
  1.06514E+03  4.63757E+03 -4.59504E+03  2.73478E+03 -1.10515E+04  4.48621E+03 -5.92440E+03 -3.63021E+02
 -3.98175E+03 -1.25915E+04  1.38564E+03 -7.00719E+03  8.84441E+03 -1.71401E+03  4.59852E+03 -3.32110E+03
  7.12219E+03  1.07603E+04  1.13248E+03  6.67389E+03 -9.74424E+03  4.94122E+03 -2.38743E+03 -1.54114E+03
 -5.43679E+03 -7.96124E+03  1.59671E+03 -4.99322E+03  4.33451E+03 -6.22948E+03  6.67177E+03 -3.04078E+03
  3.03854E+03 -2.79187E+03  5.30490E+02 -2.56941E+03  3.41623E+03 -3.47898E+03 -2.64102E+03 -9.39808E+02
  7.79271E+03 -3.78977E+02  4.20138E+03  8.81448E+02  9.63965E+03  1.39994E+02  8.18624E+03  9.03054E+03
 -1.98556E+03  6.93263E+03 -5.16168E+03  1.21470E+04 -9.01244E+03 -6.77026E+02 -1.30975E+04 -2.46985E+03
 -4.32548E+03 -1.02064E+04  9.12985E+02 -9.87420E+03  7.47003E+03 -7.27471E+03  4.67483E+02  3.48522E+02
  2.28208E+03 -1.26504E+03  5.41969E+03 -3.42960E+03  7.11833E+03 -1.07771E+03  3.81767E+03  1.03137E+03
  5.44623E+03  1.29662E+03  7.67912E+03  8.87173E+03  1.43034E+03  3.23482E+03 -4.84199E+03  9.51997E+03
 -6.14972E+03 -2.90074E+03 -1.55713E+03 -5.80023E+03  2.36580E+03 -3.61760E+03  1.90316E+03 -8.49011E+03
  5.31044E+03 -4.65885E+03  3.02349E+03 -9.24122E+02  3.46439E+03  8.20682E+03  4.77906E+03  6.00837E+03
 -3.63456E+03  9.34959E+03 -3.34717E+03  4.77525E+03  2.49924E+02 -5.41589E+02  1.52206E+03 -5.63303E+02
  4.84207E+03  4.61939E+03 -1.79729E+03  3.93295E+03 -2.48304E+03  9.64182E+02 -5.74062E+03 -4.98196E+02
 -2.93115E+03 -6.55295E+03  9.77218E+02 -4.67081E+03  1.87174E+03 -5.71009E+03  1.08133E+04 -4.51343E+03
  1.62665E+03  1.79671E+03  1.11818E+03  2.23106E+03  4.36462E+02  1.79537E+03 -8.05989E+03  3.34194E+03
 -4.01080E+03 -3.91936E+02 -7.84269E+03  1.32848E+03 -4.98830E+03 -7.56809E+03 -1.61737E+03 -9.05387E+03
  4.50080E+03 -2.93196E+03  4.48280E+03  1.10716E+03 -2.49765E+03  1.45138E+03  4.94908E+03  4.17362E+03
  5.29627E+03  2.08808E+02  1.37319E+03  2.97829E+03  1.78518E+02  5.09243E+03 -1.27254E+01  2.41631E+03
 -2.40317E+03  9.36673E+03 -5.18148E+03  4.56464E+03 -3.54135E+03  4.48166E+03 -6.96136E+03 -2.28576E+03
  2.35345E+03 -2.18643E+03 -8.76116E+02 -6.34851E+03  3.18834E+03 -3.01023E+03  1.16113E+03  1.57025E+03
  4.28774E+03  2.78987E+03  5.04393E+02  5.02353E+02  6.35284E+02 -5.92992E+02 -5.73292E+03 -1.15022E+03
 -2.15623E+03  1.66766E+02  3.91135E+03  6.27335E+02  1.57535E+02 -8.05306E+02  3.38185E+03  3.25318E+03
  1.34216E+03 -2.93793E+03  1.92444E+03  4.46276E+03 -3.75142E+03  3.54619E+03 -2.24901E+03  1.72840E+03
 -1.41434E+03 -1.11827E+03  1.65208E+03 -8.69054E+00 -3.23287E+03  5.81818E+03  3.66476E+02  1.91559E+03
 -4.67463E+03  6.46534E+03 -2.89698E+03 -4.90531E+01 -1.64461E+03  2.21771E+03  3.41488E+03  2.66672E+03
 -4.94818E+02  2.05180E+03  3.97066E+03 -1.24434E+03 -1.16056E+03  6.47299E+03  5.97587E+02  1.58223E+03
  6.46126E+02  1.85588E+03 -4.94735E+03 -2.22048E+03  6.05566E+02 -4.60516E+03 -2.04533E+03  1.62009E+03
 -1.18824E+03 -2.91924E+03  2.74742E+03  4.28015E+03  2.39146E+03 -2.78120E+02 -4.87877E+02  3.26621E+03
  3.53283E+02  1.17871E+02 -6.88441E+02 -4.02293E+02 -9.56710E+01  5.70886E+02  2.48044E+03  6.41853E+02
  1.26880E+03  5.84347E+02  2.31605E+03  2.07675E+03  1.58047E+03  2.07997E+03 -7.17964E+02  2.50897E+03
  1.69998E+03  1.02323E+03 -1.95897E+03  6.29383E+02 -7.72061E+02  3.07497E+03 -1.66833E+03  1.57945E+03
  2.76247E+03 -1.66433E+03  3.49990E+03 -1.14225E+03 -1.47436E+03  3.52198E+03  1.63877E+03 -8.78540E+02
  1.01335E+01 -1.82686E+03  2.11264E+03 -8.17335E+02 -3.26392E+03 -1.68921E+03  5.69786E+02  2.66227E+03
 -3.90501E+03  3.13121E+03 -4.02248E+03 -1.01796E+03 -1.85445E+03  2.53824E+03 -5.20687E+03  1.28151E+03
 -8.20526E+01 -1.45936E+03  9.63724E+02 -7.24837E+03  2.87798E+03 -5.54397E+03  4.91257E+03 -2.88993E+03
 -1.89371E+03 -5.30981E+03 -1.63530E+03 -1.73737E+03 -2.04249E+03  2.64899E+03  2.73105E+03  3.00032E+03
 -2.85880E+02 -5.50547E+02  2.82640E+03  3.99506E+02  1.30230E+03  2.54677E+03 -1.41752E+03  5.27487E+01
  1.22605E+03 -2.13139E+03 -5.12331E+02  4.97025E+03  1.35109E+03 -4.01066E+03  4.84696E+02 -2.29145E+03
  2.14970E+03 -1.77861E+02 -1.61294E+03 -9.44563E+02  3.49267E+03 -2.79761E+03  8.81798E+02 -9.61088E+02
  2.54294E+02  4.68086E+02  1.26265E+03  3.66188E+03  1.23625E+03 -1.81578E+03 -3.46392E+03  1.36892E+03
 -1.65954E+02 -1.66690E+03 -2.60783E+03 -4.06130E+03  4.35302E+02 -6.05950E+03 -3.95557E+03  2.22195E+03
  2.94145E+03  8.01247E+02  2.92296E+03  1.61242E+03 -1.75346E+03  1.51014E+02  4.11176E+03 -3.87742E+02
 -2.55506E+03 -1.01526E+03  2.03098E+03 -1.05068E+03 -3.45277E+03 -3.66964E+02 -1.68056E+03  1.28531E+03
 -4.17901E+03  5.54210E+03 -2.83179E+03  1.67798E+03 -2.48187E+03 -4.54963E+02  1.84181E+03 -2.79310E+03
 -2.16687E+01 -5.90617E+03 -3.40838E+02  1.36766E+03 -1.42836E+03  6.80409E+02  7.43840E+02  6.84479E+02
  3.08146E+02 -2.58548E+02  6.11297E+01  9.87307E+02  1.65942E+03  3.83281E+02 -1.65284E+03  2.22568E+03
  5.00738E+02  1.72191E+03 -1.46809E+03 -3.02824E+02 -4.74955E+03 -4.37082E+03 -2.12601E+02 -7.30087E+02
 -4.22902E+03  4.35048E+03 -9.16382E+02 -1.23754E+03  2.26659E+03 -5.67539E+03 -1.31761E+03 -1.84946E+03
 -2.18714E+03 -1.55301E+03 -1.26110E+03 -6.05584E+03  1.36127E+03  2.63194E+03  7.20995E+02  5.17909E+02
