 $NMID ID='MM_0lb_SNR50_16hz_g50_4.RAW', FMTDAT='(8E13.5)'
 TRAMP=1., VOLUME=1. $END
  3.10066E+05  1.65149E+02  3.39216E+05  2.49846E+05  8.40160E+04  3.39213E+05 -1.37391E+05  2.48794E+05
 -1.92697E+05  8.14372E+04 -1.16552E+05 -3.34071E+04  3.13736E+03 -4.72548E+04  5.36694E+04 -1.88673E+03
  4.01006E+04  5.38183E+04 -1.37807E+04  7.39074E+04 -5.90528E+04  6.39336E+04 -8.52570E+04  3.63557E+04
 -7.66893E+04 -1.27787E+04 -5.65599E+04 -5.34893E+04 -1.45614E+04 -6.66084E+04  2.96835E+04 -4.87068E+04
  4.27193E+04  3.97686E+03  1.73779E+04  5.27380E+04 -3.85888E+04  4.71833E+04 -6.73792E+04 -2.16467E+03
 -5.14916E+04 -5.68223E+04 -6.21045E+03 -7.54996E+04  3.41750E+04 -5.47413E+04  4.69294E+04 -1.55264E+04
  4.08807E+04  1.05113E+04  3.43838E+04  2.01008E+04  1.74741E+04  3.02089E+04 -7.55645E+03  3.16812E+04
 -2.60323E+04  1.40273E+04 -2.24504E+04 -7.05457E+03  2.77625E+03 -5.30096E+03  2.67089E+04  1.17275E+04
  3.13246E+03  3.59861E+04 -2.99425E+04  3.60537E+04 -6.21835E+04  2.82297E+03 -5.85176E+04 -4.46002E+04
 -1.46232E+04 -6.18673E+04  3.54703E+04 -4.80188E+04  5.77059E+04 -4.18072E+03  3.58894E+04  2.49278E+04
 -9.01463E+03  3.61168E+04 -2.62818E+04  1.71515E+04 -3.19134E+04 -6.76662E+03 -1.05506E+04 -1.44181E+04
 -4.69759E+03 -1.11651E+04 -3.50516E+02 -2.10624E+04  1.21040E+04 -2.31721E+04  1.58170E+04 -1.72963E+04
  1.19614E+04  6.89449E+03 -6.83996E+03  1.68672E+04 -1.85175E+04 -1.89590E+03 -8.65785E+03 -3.82001E+04
  2.20840E+04 -4.59624E+04  4.34816E+04 -2.33017E+04  4.19104E+04  1.98304E+04  1.65811E+04  4.65495E+04
 -1.59511E+04  3.48990E+04 -2.54297E+04  3.41183E+03 -1.37400E+04 -2.93487E+04  2.40075E+04 -2.98469E+04
  3.92326E+04 -7.90423E+03  3.92222E+04  2.21144E+04  1.74714E+04  4.45294E+04 -1.00559E+04  4.92319E+04
 -3.51470E+04  3.17515E+04 -4.26232E+04  9.38642E+03 -4.13489E+04 -1.47358E+04 -1.82927E+04 -3.69130E+04
  7.18858E+03 -3.77538E+04  3.23164E+04 -2.18516E+04  3.09886E+04  9.87252E+03  2.88966E+03  1.67241E+04
 -1.36053E+04  8.01199E+03 -1.00956E+04 -9.43144E+03  5.60724E+03 -1.18476E+04  1.23636E+04  8.89739E+03
  1.63710E+04  2.35604E+04 -5.36432E+03  3.14583E+04 -2.38067E+04  1.06936E+04 -2.54011E+04 -7.97681E+03
 -1.57974E+04 -1.68361E+04 -9.16287E+03 -2.23739E+04  7.24284E+03 -1.21842E+04  1.50315E+04 -2.13142E+04
  2.28588E+04 -1.03331E+04  3.01593E+04 -1.04139E+03  2.10650E+04  1.97870E+04  3.39174E+03  3.82219E+04
 -1.27658E+04  3.17341E+04 -2.75942E+04  1.07549E+04 -1.72470E+04 -1.05784E+04 -1.53548E+03 -1.21939E+04
  6.89706E+02 -4.24933E+03 -8.73380E+03  1.04404E+04 -1.82237E+04  5.34455E+03 -1.58013E+04 -5.68796E+03
 -7.03522E+03 -1.50760E+04  4.16357E+03 -1.74097E+04  1.17801E+04 -1.53076E+04  1.78921E+04  9.28858E+02
  1.31201E+04  1.03811E+04 -2.24452E+02  1.39833E+04 -1.35965E+04  1.25150E+04 -1.90304E+04 -4.05195E+03
 -1.11027E+04 -1.51772E+04 -3.09959E+02 -1.84091E+04  5.52944E+03 -1.63075E+04  1.64036E+04 -1.42193E+04
  1.35849E+04 -7.49022E+02  1.27734E+04  7.66701E+03  5.76755E+03  3.24802E+03  1.27562E+04 -2.08218E+03
  1.32716E+04  2.41781E+03  1.67252E+04  1.76724E+04  9.70722E+03  3.20615E+04 -6.97177E+03  3.02676E+04
 -1.81037E+04  2.31927E+04 -2.90804E+04  1.28841E+04 -2.90319E+04 -9.74476E+02 -2.94735E+04 -1.65511E+04
 -1.08610E+04 -2.41321E+04  5.90760E+03 -2.69192E+04  1.74294E+04 -1.46599E+04  1.91040E+04  7.04388E+03
  5.15438E+03  1.53066E+04 -6.06757E+03  1.05740E+04 -1.32027E+04  6.50564E+02 -9.20779E+03 -9.10932E+03
 -2.00297E+03 -1.92946E+04  3.74785E+03 -9.18865E+03  4.72847E+03 -6.68653E+03 -1.03381E+02  6.10788E+03
 -6.46973E+03  6.11677E+03  8.34207E+02 -4.72736E+03  1.29968E+03 -1.27548E+04  8.60344E+03 -1.25885E+04
  1.45401E+04 -3.93797E+03  1.61313E+04 -1.45603E+03  1.44143E+04  1.60618E+04  5.09080E+03  1.60893E+04
 -4.18720E+03  1.50745E+04 -1.25435E+04  1.22904E+04 -1.32545E+04  6.47433E+03 -7.68095E+03 -4.77064E+03
 -4.04379E+03  3.99537E+03 -5.67376E+02  2.81954E+03 -6.53122E+03  3.17766E+03 -6.87906E+03  7.48678E+03
 -5.91821E+03  8.06144E+02 -9.75904E+03 -7.81797E+03 -5.04509E+03 -9.31648E+03  4.04774E+03 -8.70594E+03
  6.21580E+03 -6.17968E+03  4.73731E+03  1.83804E+03  1.39104E+03 -2.23578E+02 -6.42339E+03 -6.33764E+02
 -7.10066E+03 -7.72090E+03  2.32046E+03 -8.82151E+03  4.97654E+03 -1.38063E+04  1.25327E+04 -8.69246E+03
  1.23941E+04  1.99213E+03  8.15160E+03  1.05118E+04  2.31014E+03  8.77091E+03 -5.62077E+03  6.75321E+03
 -7.68256E+03  6.07591E+00 -2.02205E+03 -4.35284E+03  2.97288E+03 -1.09386E+03  2.81120E+03  2.43879E+02
  2.51191E+03  7.32189E+03  6.22237E+03  8.37621E+03 -5.04207E+03  1.05231E+04 -1.15629E+04 -1.95859E+02
 -1.02240E+04 -5.33356E+03  1.60808E+03 -4.30045E+03  9.55366E+03 -1.91001E+03 -1.32915E+02  3.83243E+03
 -2.37928E+03 -2.21810E+02 -6.64057E+03  5.43595E+03 -6.97338E+03  1.43213E+03 -4.21532E+03 -3.04675E+03
 -6.73301E+03 -8.11748E+03 -1.95020E+03 -5.84077E+03  7.83758E+03 -1.39188E+03  9.27644E+03 -1.87963E+03
  6.57520E+03  6.71629E+03  1.27098E+03  6.96030E+03 -5.07695E+03  4.25771E+03 -7.46153E+03  2.41634E+03
 -2.99320E+03 -4.30742E+03 -3.65335E+03 -1.30399E+04  3.22163E+02 -1.44261E+03  4.14639E+03 -7.23541E+02
  5.49539E+03  4.13498E+03 -3.58128E+03  1.75261E+03 -3.36937E+02 -6.86270E+03 -3.91684E+03 -3.07071E+03
  4.75602E+03 -4.90224E+03  4.72871E+03  3.20557E+03  1.05724E+04  7.48848E+03  1.07240E+04  1.26292E+04
 -3.53862E+02  1.08959E+04 -7.31810E+03  5.97221E+03 -1.35281E+04  3.60817E+03 -7.24545E+03 -2.16009E+03
 -5.44209E+03 -7.06444E+03  2.10620E+03 -1.02279E+04  7.28748E+03 -4.28190E+03  1.61997E+03 -1.61353E+03
  5.69602E+03  2.00578E+03  3.06402E+03 -3.84370E+03  3.90016E+03 -4.32321E+02  4.23403E+03 -1.18043E+03
  8.36728E+03 -7.67340E+02  6.56062E+03  6.78966E+03 -3.23249E+03  7.55975E+03  5.11930E+02  2.55701E+03
 -4.43350E+03 -4.54787E+03 -2.27980E+03 -7.41865E+03 -2.60721E+03 -3.31247E+03  2.19641E+03 -6.27859E+03
  4.19055E+03 -2.51681E+03  1.11480E+04 -2.33562E+03  1.10694E+04  4.95675E+03 -2.08396E+03  1.02013E+04
 -4.15225E+03  6.59998E+03 -3.02459E+02  5.25226E+03  2.37576E+02  3.27310E+02 -1.26222E+03 -1.18869E+03
 -2.68451E+03  2.87428E+01 -2.57533E+03  2.14011E+03 -2.40732E+03  8.07103E+01 -5.18519E+03  2.56044E+02
 -6.25306E+03 -3.13448E+03  8.00608E+03 -6.22298E+03  1.15482E+03 -2.05534E+03  7.72910E+03 -3.98554E+03
  7.12308E+03  4.40986E+03 -1.35852E+03  5.70460E+03  1.16943E+03  5.50007E+03  8.49342E+02  1.93050E+03
 -3.82824E+03 -5.11239E+02 -9.65972E+03 -4.26880E+03 -1.00497E+03 -1.02292E+03  6.38092E+03 -4.02540E+03
  4.57277E+03  3.16777E+02  8.38937E+03  2.24061E+03 -9.02264E+02  5.66821E+02 -1.68373E+03  2.79598E+03
  3.20143E+03 -3.17574E+03  9.22330E+02  8.76874E+03  2.48523E+02  5.44389E+03 -4.21169E+03  4.21945E+03
 -4.71885E+03  1.79660E+03 -3.69947E+03  7.39333E+01 -7.65867E+03  5.01391E+03 -5.71320E+03 -1.41019E+03
 -2.52022E+03 -7.92005E+03  1.98093E+03 -5.96212E+03  1.57388E+03 -4.91761E+03  3.46986E+03  2.45226E+03
  8.68905E+03  1.65537E+03 -1.44951E+03  7.01670E+03 -7.38258E+02  3.17914E+02 -5.24498E+03  5.71183E+03
  1.19522E+03  9.98834E+02 -1.73133E+03 -3.45390E+03  5.76123E+03 -1.37799E+03  4.89653E+03 -4.63790E+01
  5.71985E+03  1.43109E+02  2.72450E+02  2.13543E+03 -2.10971E+03 -8.99635E+02  6.64571E+03  5.37297E+02
 -3.13872E+03  8.48165E+02  5.21935E+02 -3.10198E+02 -9.77999E+02  3.53443E+03 -2.71235E+03  4.06534E+03
 -5.77031E+03  3.63557E+03 -1.39740E+03 -3.07511E+03 -3.29923E+03  3.01731E+03 -2.70162E+03  4.77353E+03
  3.05679E+03 -4.43836E+03  3.88228E+03 -1.39066E+03  8.26504E+02  2.33364E+03 -5.18270E+03  4.41444E+03
  3.35175E+03 -4.57103E+02 -1.63629E+03 -9.06502E+02 -6.31944E+03 -3.47332E+03 -1.74188E+03 -5.99760E+03
  1.64452E+03 -3.68902E+03  3.38521E+03 -1.40111E+03  5.54915E+02 -2.35282E+03 -1.17400E+03  5.00200E+03
 -4.78088E+03 -1.41474E+03 -5.67336E+02 -2.15985E+03 -1.51328E+03  1.50889E+02  1.49328E+03 -5.11877E+03
 -2.69730E+03  7.76539E+02  3.02207E+03  2.59050E+03  5.30449E+03 -1.68844E+03 -4.28797E+03  4.47352E+03
 -5.88951E+02 -7.92855E+01 -5.44788E+02 -3.18097E+02 -2.79408E+03 -1.01382E+03 -1.08010E+03 -5.03066E+02
  3.32610E+03 -6.98496E+02 -1.17064E+03  1.32944E+03 -4.85100E+02 -7.39750E+02  1.87564E+03  2.62602E+03
 -6.10359E+03 -3.16096E+03 -3.61363E+03  4.00367E+02  2.99542E+03  2.67492E+02 -2.85240E+03 -2.76090E+03
 -6.63514E+02  3.12005E+03 -4.44678E+03  4.90517E+02 -2.27409E+03 -8.34045E+02  2.62088E+03 -6.04019E+03
 -5.49345E+03 -1.12233E+04 -3.62197E+03 -2.21957E+03  1.99345E+02 -5.88531E+03  4.38269E+02  1.13608E+03
  3.37612E+03  4.63638E+02  7.07544E+03  3.11982E+03 -2.91577E+02  3.96832E+03 -3.26329E+03  3.25294E+03
 -2.40919E+03  5.08099E+03 -8.68753E+01  4.37952E+02 -3.87701E+03 -2.51295E+03  5.08357E+03  1.51981E+03
  2.90979E+03  1.11509E+03 -1.84790E+03  9.67218E+02  8.39712E+02  1.81345E+03 -3.73977E+03 -4.50747E+01
 -9.64214E+02 -1.61974E+03 -2.67122E+03  2.74071E+03  2.35751E+03  2.07956E+03  1.12003E+03  7.08257E+03
  1.41529E+03  4.60881E+03 -2.45297E+03  2.49194E+03 -1.09861E+04  9.99218E+02 -1.15607E+03 -1.92728E+03
 -2.44500E+03 -1.35174E+03 -2.81444E+03 -4.16150E+03  6.91507E+01 -3.09220E+03 -2.36820E+02  3.77637E+03
  2.68775E+03  4.40209E+03  1.21095E+02  2.51839E+03 -2.73143E+03  1.16050E+03  7.51424E-01 -1.33858E+03
  1.69431E+03 -9.66177E+02 -2.14982E+01  1.33104E+03 -7.50533E+02  5.93037E+02  2.00665E+02  2.41622E+03
  3.74358E+03 -3.37054E+01  3.24092E+03 -1.05483E+03 -3.55528E+03 -8.90486E+02 -1.78673E+03  1.70257E+03
  2.35214E+03 -5.53332E+02  2.02166E+03  6.53758E+02 -2.26192E+01 -4.94113E+03  2.70622E+03 -3.15897E+03
  4.34906E+03  1.47452E+03  1.91688E+03  5.13266E+02 -9.29203E+02  4.54038E+02  9.08439E+02 -1.50717E+03
 -4.38329E+02 -2.66226E+03 -2.78014E+03  2.70822E+03  1.14969E+03 -7.60635E+02 -3.74931E+03 -1.04067E+03
 -3.11327E+03  1.99544E+02 -3.09538E+03 -2.88359E+03 -9.72975E+02 -1.64448E+02  2.50317E+03  6.83205E+02
  1.39774E+03  1.30926E+03  1.79570E+02 -3.62546E+02 -1.36354E+03  2.53874E+03 -5.59048E+03  4.63049E+03
