 $NMID ID='MM_0lb_SNR50_18hz_g45_38.RAW', FMTDAT='(8E13.5)'
 TRAMP=1., VOLUME=1. $END
  3.09456E+05  2.72175E+03  3.36789E+05  2.48097E+05  8.06765E+04  3.35915E+05 -1.31746E+05  2.48723E+05
 -1.87357E+05  7.90658E+04 -1.12367E+05 -3.57921E+04  6.37920E+03 -4.99221E+04  5.41060E+04 -2.16150E+03
  3.94318E+04  5.45031E+04 -1.78629E+04  7.91330E+04 -5.92843E+04  6.32345E+04 -7.98467E+04  2.99477E+04
 -8.40575E+04 -8.14740E+03 -5.59314E+04 -4.97449E+04 -1.86122E+04 -6.98269E+04  3.09579E+04 -4.38832E+04
  3.73788E+04  4.98841E+03  1.05400E+04  5.08120E+04 -3.87459E+04  4.36394E+04 -6.58671E+04 -1.22730E+03
 -5.12042E+04 -5.17421E+04 -6.19693E+03 -7.03356E+04  3.04697E+04 -5.63674E+04  5.05048E+04 -1.34049E+04
  4.18408E+04  7.40184E+03  2.87166E+04  2.40915E+04  1.36888E+04  2.87142E+04 -1.16979E+03  2.81783E+04
 -2.30317E+04  1.42148E+04 -1.65291E+04 -2.09678E+03  3.82029E+02 -1.04259E+04  1.72290E+04  1.42211E+04
  9.11020E+03  3.68692E+04 -3.28994E+04  3.48651E+04 -5.69132E+04  2.85280E+03 -6.05375E+04 -4.14465E+04
 -1.35264E+04 -5.79536E+04  3.51101E+04 -4.62881E+04  5.67106E+04 -1.28672E+03  3.12130E+04  2.52030E+04
 -8.46472E+03  3.59991E+04 -2.19527E+04  1.35895E+04 -2.84602E+04 -4.11334E+03 -1.77481E+04 -1.16370E+04
 -7.40732E+03 -6.91542E+03  3.03852E+03 -1.83478E+04  8.65381E+03 -2.22936E+04  1.23394E+04 -1.45938E+04
  1.08249E+04  4.40950E+03 -9.91467E+03  1.08692E+04 -1.95113E+04 -4.39755E+03 -1.15403E+04 -2.86450E+04
  1.92284E+04 -3.95605E+04  4.49758E+04 -2.08125E+04  4.11787E+04  1.66515E+04  1.61178E+04  4.29693E+04
 -1.88966E+04  2.91984E+04 -2.03191E+04  1.78848E+03 -9.15371E+03 -2.80259E+04  2.00726E+04 -2.81807E+04
  4.17470E+04 -6.78615E+03  3.16938E+04  2.08704E+04  1.18677E+04  3.97402E+04 -1.15853E+04  4.78226E+04
 -2.91121E+04  3.36657E+04 -4.09283E+04  7.10697E+03 -3.97558E+04 -1.14891E+04 -2.42715E+04 -3.62046E+04
  4.69407E+03 -3.56736E+04  2.96142E+04 -1.06734E+04  2.90606E+04  6.51275E+03  3.36588E+03  1.79391E+04
 -1.45700E+04  9.89971E+03 -7.75838E+03 -9.88405E+03  5.80605E+03 -7.78255E+03  1.69940E+04  8.57351E+03
  1.29125E+04  2.05451E+04 -1.08216E+04  2.57983E+04 -1.86187E+04  9.77065E+03 -2.14752E+04 -3.56723E+03
 -1.62882E+04 -1.70321E+04 -5.42281E+03 -1.74891E+04  1.58268E+03 -1.78327E+04  1.30123E+04 -1.83404E+04
  2.25808E+04 -8.48740E+03  2.89808E+04  2.87258E+02  2.12440E+04  1.54338E+04  3.21317E+03  3.31510E+04
 -1.55774E+04  3.17004E+04 -2.97249E+04  3.20382E+03 -2.12726E+04 -1.25934E+04  4.47197E+02 -1.42915E+04
  5.90138E+03 -4.45105E+03 -2.00070E+03  5.36865E+03 -1.04127E+04  4.44231E+03 -1.26735E+04 -5.52529E+02
 -9.00199E+03 -1.38349E+04  2.92634E+03 -1.60222E+04  1.26414E+04 -1.80861E+04  1.49152E+04 -9.84998E+02
  1.56719E+04  1.54182E+04 -1.16720E+03  1.69492E+04 -1.11308E+04  6.69741E+03 -1.89183E+04 -3.50195E+03
 -6.85965E+03 -1.43409E+04 -4.89867E+03 -2.34168E+04  7.04619E+03 -1.53522E+04  1.54818E+04 -6.87143E+03
  1.30949E+04 -1.21579E+03  1.73611E+04  3.57166E+03  6.40929E+03 -5.73018E+03  7.01570E+03  5.30967E+03
  1.19377E+04  1.06334E+03  1.34255E+04  1.09405E+04  1.43565E+04  2.49191E+04 -1.46711E+03  2.49560E+04
 -1.27857E+04  2.23422E+04 -2.48352E+04  9.61841E+03 -2.66691E+04 -1.20632E+03 -1.64015E+04 -1.70845E+04
 -1.22620E+04 -2.07563E+04  6.38451E+03 -1.98734E+04  1.69680E+04 -9.17607E+03  1.77881E+04  4.03808E+02
  7.71513E+03  8.61465E+03 -8.26142E+03  1.18479E+04 -1.49534E+04  5.56568E+03 -1.29732E+04 -7.70669E+03
  2.12370E+02 -1.62438E+04  6.69196E+03 -6.74102E+03  6.52140E+03 -1.45448E+03  3.79829E+03  2.10848E+03
 -5.73124E+03 -6.62224E+00 -2.63911E+03 -1.50896E+03 -2.73909E+02 -7.37092E+03  8.72678E+03 -9.75194E+03
  1.20203E+04 -4.72550E+03  1.11779E+04  5.70199E+03  1.18161E+04  9.61194E+03  7.18164E+03  1.76922E+04
 -2.60681E+03  2.00440E+04 -1.05050E+04  1.24623E+04 -1.32911E+04  1.31127E+03 -1.40064E+04 -3.83333E+03
 -3.54495E+03 -3.66470E+03 -4.14318E+03  3.89383E+03 -2.08451E+03  1.67058E+02 -5.11532E+03  4.13869E+03
 -6.59857E+03 -4.77916E+03 -1.01008E+04 -9.82586E+03 -3.92248E+03 -1.09083E+04 -5.15789E+02 -7.25478E+03
  1.04802E+04 -5.47386E+03  8.52967E+03  1.62990E+03  3.88709E+03  5.74566E+03 -4.70467E+03  2.12175E+03
 -1.66017E+03 -1.42079E+03 -1.11050E+03 -1.03930E+04  7.39661E+02 -8.17468E+03  9.58706E+03 -5.71354E+03
  1.23560E+04  1.36980E+03  6.84303E+03  8.02892E+03  8.14529E+02  1.07943E+04 -3.09075E+03  1.29774E+04
 -9.30253E+03  7.31431E+03  2.48927E+03 -3.63842E+02 -1.13261E+03 -1.34522E+03  2.07759E+03 -5.35169E+03
  5.66167E+03  1.65618E+03  2.75458E+03  6.31326E+03 -5.96638E+03  3.35775E+03 -9.76715E+03 -3.75081E+03
 -8.80655E+03 -3.48849E+03  2.13712E+03 -5.42196E+03  3.34292E+03 -4.65477E+03  2.51360E+02  3.51670E+03
 -6.02317E+01  5.06761E+03 -6.37664E+02  3.88340E+03 -3.18590E+03 -1.08753E+02 -7.49707E+03 -1.55754E+03
 -4.40935E+03 -8.79242E+03  2.67209E+03 -5.44415E+03  4.41948E+03 -2.24185E+03  9.10207E+03  2.42986E+03
  8.21573E+03  6.56615E+03 -5.49882E+03  5.11020E+03 -8.29194E+03  4.39693E+03 -1.43589E+03 -2.19443E+03
 -5.30743E+03 -8.20569E+02  1.73780E+03 -2.42176E+03  2.94147E+03 -3.62107E+03  1.99271E+03  3.13485E+02
  5.76176E+03 -9.71063E+02 -1.26982E+03  9.43777E+02 -4.94108E+01  7.41251E+02 -2.26243E+03 -4.12853E+03
  7.61170E+03 -5.44362E+03  1.79731E+03  2.19562E+02  4.91719E+03 -5.48135E+02  3.82832E+03  5.87477E+03
  8.49957E+02  9.02617E+03 -8.14462E+03  6.17982E+03 -4.38107E+03 -3.65418E+03 -5.38472E+03  1.37418E+03
 -2.65976E+03 -6.98945E+03  2.41725E+03 -1.21877E+02  1.21958E+03  8.02817E+02  2.69313E+03 -5.26201E+02
  5.81703E+03 -2.46755E+03  2.01813E+03 -3.93577E+03  2.23286E+03 -2.91393E+03  3.28803E+03 -1.17035E+03
  2.33640E+03  3.42009E+03  2.31773E+03  4.61667E+03 -2.90669E+03  1.18255E+03 -2.70764E+03  8.25608E+02
 -6.02145E+03 -7.42340E+02 -7.13690E+03 -1.18005E+03 -1.00637E+03 -5.99489E+03  4.64906E+03 -6.16865E+03
  5.56416E+03 -2.18879E+03  6.05583E+03  4.47890E+03  5.89284E+03  4.21757E+03  5.57893E+02  7.02251E+03
 -1.93910E+03  4.99469E+03 -1.97994E+03  3.28188E+03 -3.77753E+03 -5.13731E+03  2.25745E+02  1.70144E+03
 -2.05484E+02 -1.80426E+03 -1.07247E+03  4.04120E+03 -3.89309E+03  4.42871E+02 -5.85427E+03  4.86045E+02
 -3.80843E+03 -6.67182E+03 -5.07273E+02 -3.66141E+03 -7.60132E+02 -4.71146E+03  8.74117E+03 -1.11767E+03
  3.08208E+03  2.55866E+02  5.61102E+03  3.10132E+03  3.75579E+03  1.12220E+03 -4.60999E+03  3.35073E+03
 -1.95819E+03 -2.39419E+03 -7.83312E+03 -9.90991E+02 -2.53802E+03 -2.37937E+03 -9.84978E+02 -4.80186E+03
  9.23064E+02 -1.98127E+03  4.75624E+03  5.57239E+03 -1.05397E+02  1.10023E+03  2.33045E+03  3.78214E+03
 -1.78315E+02 -1.30756E+03 -2.26948E+02  1.57968E+03 -4.52051E+02  8.74280E+02  1.31683E+02 -2.00458E+03
 -2.19274E+03  2.70432E+03 -2.20415E+03  3.21937E+03  2.99374E+02  1.57513E+03 -2.39577E+03  1.03009E+03
 -1.52070E+03 -5.48266E+03 -3.03226E+03 -6.05925E+03  4.39236E+03 -6.39398E+03  3.49010E+03 -9.05291E+02
  4.02501E+03  3.27794E+03  6.24500E+03  1.81527E+03 -2.56786E+03 -2.31945E+03  1.68073E+03 -8.07623E+02
  5.63730E+02  1.19166E+03 -6.26716E+02 -6.56110E+03  4.85440E+03  2.20948E+03  2.80587E+03  5.60002E+02
  2.08590E+03  1.98122E+03  6.28233E+02 -4.65344E+03  1.99070E+03  2.37514E+02  4.75097E+03 -5.75400E+02
 -5.32574E+03 -2.95036E+03  2.07249E+02 -7.00886E+02  6.56890E+03  3.38166E+03  9.27604E+01  2.44234E+03
 -5.32423E+03  3.43158E+02 -5.18359E+03 -7.53938E+02 -3.27672E+03  3.07934E+03  8.30195E+02 -1.63033E+03
  7.04960E+01 -1.85061E+03 -1.25795E+03 -3.34334E+03  3.21198E+03  6.48231E+02 -3.00799E+03 -1.24122E+03
 -5.59570E+03  1.49403E+03  1.45197E+03 -7.08080E+03 -1.41227E+03 -4.87818E+03 -1.29340E+02 -6.31899E+03
 -4.67808E+02 -2.13856E+03  2.64989E+03 -3.42516E+03 -1.36936E+03  9.59065E+02  1.04877E+03  2.44181E+03
 -4.84256E+02 -1.98975E+03  1.77837E+01 -2.53935E+03  6.25167E+02  4.00340E+02  2.54669E+03  2.24323E+03
  7.98145E+02  3.58976E+03  1.40141E+03  7.01064E+02  3.69890E+03  1.18057E+02 -7.07166E+02  7.76866E+02
 -3.44832E+03  3.75182E+03 -2.83246E+03 -3.24996E+03 -1.45077E+03 -2.17274E+03  6.16306E+03 -1.84597E+03
 -2.31838E+03  7.11585E+01  3.56262E+03  1.35820E+03 -1.68668E+03 -7.27931E+02 -9.83180E+02  2.44571E+02
  1.75363E+03  8.86334E+02  1.54680E+02 -1.28739E+03  6.38568E+02 -4.59921E+03  3.93744E+02  5.11941E+02
 -3.16585E+03 -1.50665E+03 -2.66589E+03 -3.50740E+02 -7.14341E+01  4.19408E+03 -9.11954E+02 -6.24343E+02
  3.63863E+02 -3.47566E+03  2.66781E+03 -2.12440E+03  4.12951E+03  1.34774E+02 -1.62458E+03 -1.78609E+03
  3.69211E+03  7.80493E+03  1.28902E+03 -2.31455E+03 -1.73933E+03  3.14299E+03  2.50825E+03  1.49254E+03
 -3.03662E+03 -6.61628E+02 -6.79951E+02 -4.43672E+03 -8.81606E+02 -3.76818E+03 -7.39623E+02 -7.15048E+02
  8.45517E+01  1.20865E+02 -4.31821E+02  1.52302E+03 -1.13811E+03 -4.26216E+03 -1.87398E+03 -1.93547E+03
 -2.26405E+03 -2.86824E+03 -3.64755E+02 -1.82686E+02  2.88800E+02 -1.08709E+03 -7.00045E+02  2.01409E+03
 -3.12315E+03  1.34536E+03 -6.07471E+02 -1.44621E+03  8.71686E+01  4.88117E+02 -1.59864E+03 -3.17077E+03
 -1.60480E+02 -2.28997E+03 -3.15111E+03  7.09750E+02 -1.13311E+03  1.26448E+03  3.75466E+03 -8.53723E+02
  2.39005E+03  3.45749E+03  1.73420E+03  2.10831E+02  1.00468E+03  1.73170E+03  4.40937E+03 -1.82483E+03
 -1.57515E+03 -1.33225E+03 -3.14174E+03 -1.27275E+03  8.94321E+02  6.55074E+03  1.23517E+03  2.70546E+03
  2.74766E+03 -1.84586E+03  1.00309E+03 -3.48978E+03 -2.68686E+03  3.10743E+03  3.52335E+03 -7.18478E+02
  6.31297E+02 -3.91698E+03  2.60270E+03 -2.80919E+02  3.46642E+03 -8.31601E+02 -1.55293E+03 -7.80280E+02
  1.09458E+03 -8.63688E+02  3.15802E+03  5.59888E+03 -1.15734E+02  3.20418E+03 -1.94599E+03  1.28081E+03
  2.64637E+03 -1.71263E+01 -2.31416E+03  9.26000E+02 -1.35408E+03  8.73983E+02  2.60147E+03 -2.55004E+03
 -4.74696E+03  6.65992E+00 -1.57157E+03  7.73865E+01  5.49517E+03 -8.74512E+02  9.26627E+02  2.13504E+03
  5.12538E+02 -7.77624E+01  1.16161E+03  5.58933E+02  7.94679E+02 -8.55698E+02 -2.54823E+03 -6.38989E+03
