 $NMID ID='MM_0lb_SNR50_11hz_g55_3.RAW', FMTDAT='(8E13.5)'
 TRAMP=1., VOLUME=1. $END
  3.11196E+05  4.30632E+03  3.40944E+05  2.54320E+05  9.17955E+04  3.37690E+05 -1.33881E+05  2.49725E+05
 -1.88643E+05  8.17606E+04 -1.10006E+05 -3.18734E+04  9.19115E+02 -4.71560E+04  5.71673E+04  2.09354E+03
  4.09792E+04  4.99770E+04 -1.57777E+04  6.97051E+04 -6.18607E+04  6.74633E+04 -9.12911E+04  3.30992E+04
 -8.25036E+04 -7.89215E+03 -5.73434E+04 -5.06726E+04 -1.60986E+04 -6.86743E+04  2.37029E+04 -4.72214E+04
  3.45338E+04 -5.41368E+02  1.57878E+04  5.08286E+04 -3.30490E+04  5.03319E+04 -7.06068E+04  2.11935E+03
 -5.48124E+04 -5.50835E+04 -8.17607E+03 -7.57209E+04  3.25932E+04 -4.89826E+04  5.44309E+04 -1.25560E+04
  4.65642E+04  7.24082E+03  3.47639E+04  2.40830E+04  1.53265E+04  2.84829E+04 -4.65940E+03  2.83213E+04
 -2.17939E+04  1.48434E+04 -1.75587E+04 -5.18340E+03  6.01118E+03 -5.23065E+03  2.32095E+04  1.75486E+04
  5.61823E+03  3.67628E+04 -3.26866E+04  3.92003E+04 -6.18262E+04  4.40271E+03 -6.49235E+04 -4.47881E+04
 -1.59698E+04 -6.54656E+04  3.52384E+04 -4.14522E+04  6.36028E+04 -4.43722E+03  3.53621E+04  3.74668E+04
 -6.87823E+03  3.95024E+04 -3.40896E+04  1.67868E+04 -4.02340E+04 -3.32238E+03 -2.61769E+04 -1.03010E+04
 -9.06462E+03 -1.15624E+04 -6.85225E+02 -1.97412E+04  6.89437E+03 -2.09112E+04  1.52891E+04 -1.15875E+04
  1.17187E+04  8.02633E+03 -6.82607E+03  1.71754E+04 -2.15186E+04 -9.09922E+03 -7.04846E+03 -3.72896E+04
  2.81080E+04 -4.66210E+04  4.98857E+04 -1.38918E+04  4.64149E+04  2.47901E+04  1.77171E+04  4.93497E+04
 -1.74056E+04  3.96998E+04 -2.94195E+04 -1.55171E+03 -6.71776E+03 -2.46545E+04  2.34065E+04 -3.56366E+04
  3.81522E+04 -1.22005E+04  3.96512E+04  2.61822E+04  2.52412E+04  4.65271E+04 -8.40596E+03  5.47681E+04
 -2.94630E+04  3.57918E+04 -4.50304E+04  9.47122E+03 -4.61982E+04 -1.50078E+04 -1.60438E+04 -3.77151E+04
  8.13149E+03 -3.84877E+04  3.93730E+04 -1.77114E+04  2.59851E+04  3.46142E+03  5.49480E+03  2.13851E+04
 -1.11876E+04  8.64014E+03 -6.41460E+03 -1.22830E+04  8.42592E+03 -1.45023E+04  2.28781E+04  3.43899E+03
  1.18311E+04  2.34531E+04 -6.37567E+03  3.15571E+04 -2.38817E+04  1.46230E+04 -3.03298E+04 -8.43734E+03
 -2.12536E+04 -1.89403E+04 -9.15614E+03 -3.03143E+04  5.32038E+03 -2.04289E+04  1.44199E+04 -2.20798E+04
  2.44903E+04 -1.21898E+04  3.26862E+04  2.66371E+03  2.03462E+04  2.54960E+04  4.10111E+03  3.44542E+04
 -2.01271E+04  3.11041E+04 -3.54995E+04  7.69422E+03 -2.37860E+04 -1.71060E+04 -3.49746E+03 -1.86377E+04
  4.99713E+03 -3.81865E+03  3.44973E+02  6.05264E+03 -1.84180E+04  2.70144E+03 -1.94417E+04 -8.89293E+03
 -1.02282E+04 -2.00356E+04  9.25665E+03 -2.79557E+04  1.85243E+04 -2.01860E+04  1.72733E+04 -6.93732E+02
  6.87812E+03  1.90583E+04  5.80229E+02  1.56822E+04 -1.95676E+04  1.35089E+04 -2.15284E+04 -5.65898E+03
 -1.46722E+04 -1.43127E+04  5.21007E+03 -2.46416E+04  1.17042E+04 -1.92402E+04  1.72868E+04 -1.13501E+04
  2.15405E+04  8.80567E+02  2.08918E+04  4.30656E+03  4.26475E+03  1.14887E+03  7.53187E+03 -7.74702E+03
  2.49767E+04  5.99883E+03  2.12965E+04  1.73694E+04  1.83799E+04  3.57286E+04  1.66752E+03  4.82456E+04
 -2.17373E+04  3.10472E+04 -3.98691E+04  1.37574E+04 -4.26248E+04 -6.63081E+03 -3.48985E+04 -2.54767E+04
 -2.05838E+04 -2.95279E+04  8.76753E+03 -3.16693E+04  2.75582E+04 -1.23649E+04  2.27795E+04  6.62238E+03
  9.89343E+03  8.89561E+03 -1.16117E+04  1.52871E+04 -1.92882E+04  1.10455E+03 -1.47804E+04 -1.10398E+04
  2.47711E+03 -1.81638E+04  1.01038E+04 -1.47353E+04  1.16193E+04 -7.23365E+02  5.41989E+03  7.07920E+03
 -2.97458E+03  2.32462E+03 -7.49228E+03 -2.29776E+03 -2.88098E+02 -2.04945E+04  8.31041E+03 -2.76774E+04
  1.97113E+04 -9.23705E+03  2.49767E+04  3.53985E+03  1.93655E+04  1.43443E+04  9.85749E+03  2.39052E+04
 -7.34320E+03  2.87301E+04 -2.03247E+04  2.08706E+04 -2.46666E+04  2.84820E+03 -1.25568E+04 -9.84012E+03
 -1.66523E+03 -4.01988E+03 -2.59358E+03 -9.81108E+02 -1.50402E+03 -3.84411E+02 -9.04834E+03  5.72803E+03
 -1.02568E+04 -4.04808E+01 -1.36684E+04 -1.71902E+04 -5.21567E+03 -1.54635E+04  2.32928E+03 -1.17879E+04
  1.82018E+04 -9.79121E+03  9.06543E+03  6.65962E+03  2.40447E+03  1.69444E+03 -1.11741E+04  1.86396E+03
 -9.07445E+03 -6.02803E+03 -1.39784E+03 -8.81122E+03  5.85589E+03 -1.30778E+04  1.75812E+04 -6.36627E+03
  2.50737E+04  8.90319E+01  2.14118E+04  1.55176E+04  3.61776E+03  1.77419E+04 -7.96904E+03  1.33297E+04
 -1.13936E+04  3.84525E+03 -1.43431E+04 -3.36812E+03  1.40442E+03 -6.27185E+03  7.02483E+03 -2.62882E+03
  7.72409E+03  5.06539E+03  2.62456E+03  1.35271E+04 -9.57616E+03  6.20714E+03 -1.26027E+04  1.40480E+03
 -1.12978E+04 -8.80275E+03 -2.98339E+02 -9.23623E+03  1.04134E+04 -9.63715E+03  4.14162E+03  6.35910E+03
  2.02385E+03  4.59562E+03 -8.13817E+03  9.69679E+03 -8.33738E+03  5.20879E+03 -1.13685E+04 -5.28733E+03
  3.84169E+02 -1.41133E+04  4.39620E+03 -1.69140E+04  1.61275E+04 -9.25232E+03  1.77423E+04  1.68239E+03
  1.14023E+04  1.20242E+04  3.52622E+03  1.23658E+04 -1.58915E+04  7.27943E+03 -6.59174E+03 -1.46969E+03
 -7.98081E+03 -4.75926E+03 -8.71208E+02 -1.07504E+04  1.53204E+03 -1.30865E+04  6.20655E+03 -4.25435E+03
  4.05178E+03 -2.73655E+03  7.01209E+03  1.48724E+03  4.54508E+03 -6.56865E+03 -1.42652E+03 -3.25539E+03
  9.96121E+03 -2.91808E+03  1.07117E+04 -3.21272E+03  1.61328E+04  1.08052E+04  7.50631E+03  1.50673E+04
  5.13267E+03  2.34303E+04 -1.57961E+04  1.35124E+04 -1.95845E+04  1.70755E+03 -1.92089E+04 -2.02457E+03
 -1.15846E+04 -9.26785E+03  3.22359E+03 -1.38547E+04  5.96259E+03 -3.14612E+03  3.62920E+03 -5.09402E+03
  4.90780E+03 -5.63670E+03 -8.72599E+01  2.59869E+03  4.04036E+03 -2.22836E+03  3.91355E+03 -2.98202E+03
  1.36211E+04  2.02362E+03  3.31639E+03  9.45228E+03 -2.18183E+03  4.93823E+03 -1.66167E+04  3.08155E+03
 -1.54565E+04  3.95773E+03 -5.83485E+03 -4.99013E+03  6.95601E+03 -4.29108E+03  8.71973E+03 -1.40102E+04
  1.35444E+04 -2.08436E+03  2.15348E+04  3.56249E+03  1.57747E+04  1.17420E+04 -2.04830E+03  1.59123E+04
 -9.65304E+03  1.36044E+04 -9.51682E+03  2.55355E+03 -6.51608E+03  2.79967E+03 -3.59759E+03 -1.47861E+03
  3.62762E+03 -4.19993E+03 -4.02863E+03  9.29960E+03 -3.95241E+03  1.89968E+03 -8.97310E+03  2.33336E+03
 -3.39757E+03 -1.16436E+04  4.90924E+03 -7.65459E+03  9.34080E+03 -5.82886E+03  9.54830E+03 -3.70897E+03
  9.16546E+03  1.25193E+04  3.56999E+03  7.55684E+03 -2.41480E+03  1.71203E+04 -8.82034E+03  1.38082E+04
 -1.00423E+04 -6.32621E+03 -5.43360E+03 -5.01368E+03  2.06900E+03 -9.37680E+03  4.67443E+03 -8.69094E+03
  1.15576E+04 -3.03049E+03  6.06523E+03  1.41624E+02  2.06475E+03  1.29968E+03  4.33420E+02  5.67987E+03
 -1.01877E+03  3.17945E+03  4.57585E+03 -1.96209E+02  1.51086E+03  2.95735E+03  1.08095E+03  4.74284E+03
 -7.84342E+03  1.39844E+04 -1.01428E+04  1.18313E+04 -1.65044E+04  2.64215E+03 -1.54005E+04 -8.50531E+03
 -7.21150E+03 -1.33553E+04  4.25432E+03 -1.76503E+04  6.20336E+03 -8.55641E+03  5.20455E+03 -1.88595E+03
  1.11439E+04  3.89910E+02  2.61048E+03  5.41055E+03 -4.19612E+03  6.32472E+03 -1.33042E+03 -6.83740E+03
  1.09401E+03 -4.36004E+03 -3.87916E+02  1.42104E+03  7.89683E+03  5.28978E+03  7.38402E+03 -1.85608E+02
  4.33896E+03  4.03633E+03  1.97624E+03  5.09713E+03  7.69085E+03  6.73336E+03  1.55566E+01  6.10124E+02
  4.52297E+03  4.57034E+02  9.19995E+03  1.85642E+03  5.42910E+03  7.23104E+03 -5.75898E+03  9.22744E+03
 -7.05803E+03  9.09004E+03 -1.15518E+04  2.72330E+03 -9.05503E+03 -3.04999E+03 -3.22261E+03 -5.84628E+03
 -2.97310E+03 -6.44521E+03  1.05424E+04  1.69475E+03  6.83053E+03  4.34546E+03 -3.97722E+03  3.24607E+03
 -2.15885E+03  2.56964E+03 -6.56752E+03 -1.21748E+03 -5.27204E+03 -1.08491E+04 -1.84362E+03 -9.38744E+02
  9.12780E+03 -4.62107E+03  4.86325E+03 -3.18281E+02  2.23305E+03 -2.99973E+03 -4.15643E+03 -6.55626E+02
 -5.84818E+03 -2.74212E+03 -8.20271E+03 -5.74293E+03  1.68509E+03 -5.40713E+03  4.14469E+03 -6.08864E+03
  1.06864E+04 -3.20979E+03  7.13650E+03  9.24882E+03 -3.81620E+02  8.63858E+03 -3.00784E+03  6.78415E+03
 -5.99155E+03  7.66947E+03 -6.51427E+03 -4.90182E+03  3.91796E+03 -5.73784E+03 -1.80244E+03 -2.10135E+03
  5.16183E+03 -4.06925E+03  1.06767E+03  2.57810E+03  1.06529E+03 -3.47181E+03 -2.96104E+03  5.87482E+03
 -3.49398E+03  3.61366E+03 -5.38627E+03  2.20565E+03  1.07157E+03  7.19944E+02 -4.79914E+02 -8.74043E+02
 -2.35049E+03 -3.07152E+03 -4.07247E+03  1.32121E+03 -8.52507E+03 -2.76914E+03 -9.02282E+03 -5.63774E+03
 -5.98844E+03 -1.18396E+04  7.60430E+03 -1.25903E+04  2.97631E+03 -8.31844E+03  9.44196E+03 -3.80425E+03
  2.30618E+03  1.99768E+03 -2.38318E+03  6.28616E+03  2.70924E+03  4.11356E+03 -7.25102E+03  2.66682E+03
  4.05499E+02  1.41279E+03  9.58134E+02  2.01483E+03 -4.83562E+02 -5.67392E+03 -4.22543E+03 -1.71979E+03
 -4.45937E+03 -6.60193E+02 -3.53030E+03 -1.79114E+03 -1.42236E+03 -6.13819E+03 -2.18964E+03 -7.31356E+03
  1.66903E+03 -2.13852E+03  4.88745E+03  1.86243E+03  7.72111E+03  5.09240E+03  2.68195E+03  1.05569E+04
 -1.22588E+03  1.22276E+04 -5.55232E+03  2.02795E+02 -1.25955E+04 -2.20189E+03 -4.43365E+03 -5.30911E+03
 -6.01309E+03 -9.59477E+03  2.92055E+03 -1.03872E+04  7.64816E+03 -1.16043E+03  3.05732E+03 -1.96380E+03
 -7.47564E+02  2.77584E+03 -4.16637E+03 -1.54096E+03 -6.67369E+03  2.27229E+03 -3.71839E+03  3.70783E+01
  2.71445E+03  1.22819E+03  4.43438E+03 -3.10987E+03  5.73523E+02  4.60426E+03  3.69513E+03  5.64980E+03
 -4.94312E+03  7.94814E+03 -3.52787E+03 -1.10643E+03 -8.49829E+03 -4.73805E+03 -2.85989E+03 -1.11624E+04
  3.92505E+03 -8.29584E+03  8.91167E+03 -6.79642E+02  8.70607E+03  2.08500E+03  5.85737E+03  3.04203E+03
  3.79799E+02  2.14335E+03  3.41369E+03  5.65791E+03 -5.55724E+03  1.84452E+03 -4.23352E+03  7.47734E+02
  1.20930E+03 -4.23354E+03 -1.11293E+03  1.43764E+03  1.69717E+03 -4.08889E+02  4.66353E+02  1.77334E+02
 -4.01092E+03 -4.57811E+03 -3.46013E+03 -9.77463E+03  7.42591E+03 -9.53100E+03  7.55493E+03 -5.56399E+03
  9.24010E+03  4.86570E+03  9.18252E+02  3.39309E+03  2.27055E+03  1.99360E+03 -2.98792E+03  7.07302E+01
