 $NMID ID='MM_0lb_SNR50_11hz_g60_56.RAW', FMTDAT='(8E13.5)'
 TRAMP=1., VOLUME=1. $END
  3.13871E+05 -4.17275E+03  3.36073E+05  2.51789E+05  8.93642E+04  3.35355E+05 -1.30839E+05  2.52685E+05
 -1.87011E+05  8.15233E+04 -1.21474E+05 -3.00037E+04 -2.00102E+03 -5.59036E+04  5.60773E+04  1.58556E+03
  3.93997E+04  4.75401E+04 -1.43496E+04  7.59732E+04 -5.72116E+04  6.80347E+04 -8.47281E+04  3.30850E+04
 -8.27793E+04 -6.84040E+03 -5.60751E+04 -5.38009E+04 -1.30661E+04 -7.06610E+04  2.40448E+04 -4.44728E+04
  4.38369E+04  5.55690E+03  1.46370E+04  5.17864E+04 -3.07934E+04  5.26577E+04 -6.84623E+04  1.18642E+03
 -5.16149E+04 -5.64025E+04 -1.22491E+04 -8.32073E+04  3.80672E+04 -5.63361E+04  5.23205E+04 -2.21220E+04
  4.32719E+04  1.34105E+04  3.32897E+04  2.53287E+04  1.55755E+04  3.27662E+04 -1.16355E+04  3.03274E+04
 -2.53332E+04  1.41733E+04 -1.94215E+04 -9.76533E+03  1.22904E+04 -5.82887E+03  3.03728E+04  1.57555E+04
  9.67063E+03  3.72381E+04 -3.13042E+04  3.40502E+04 -6.52772E+04  1.17681E+03 -5.95612E+04 -4.43975E+04
 -1.59539E+04 -6.78851E+04  4.23065E+04 -5.24020E+04  6.13979E+04 -9.40353E+03  3.77591E+04  3.03933E+04
 -5.75624E+03  3.80321E+04 -3.28030E+04  1.79865E+04 -4.01028E+04 -1.13744E+03 -2.12577E+04 -1.58530E+04
 -1.19683E+04 -1.62190E+04  1.91821E+03 -1.96459E+04  9.47763E+03 -2.34242E+04  1.58101E+04 -1.50136E+04
  5.36683E+03  6.90177E+03 -6.76022E+03  1.56274E+04 -1.94099E+04 -1.17829E+04 -8.16279E+03 -3.37042E+04
  2.88091E+04 -4.50869E+04  5.41275E+04 -1.83475E+04  5.09279E+04  2.41093E+04  1.83115E+04  4.28761E+04
 -1.34849E+04  3.79262E+04 -2.33940E+04  5.69032E+03 -1.08553E+04 -2.84467E+04  2.25009E+04 -3.65001E+04
  4.61960E+04 -8.23741E+03  3.35557E+04  2.05989E+04  1.71445E+04  4.97912E+04 -4.69109E+03  5.42662E+04
 -3.41152E+04  3.74846E+04 -4.98528E+04  9.21063E+03 -4.56767E+04 -2.20083E+04 -2.26893E+04 -3.71156E+04
  4.48939E+03 -4.21825E+04  3.79595E+04 -4.16204E+03  3.35653E+04  1.24284E+04  7.28247E+03  2.60347E+04
 -1.35914E+04  1.12360E+04 -1.06740E+04 -9.06431E+03  8.98982E+03 -1.11593E+04  2.28604E+04  4.19379E+02
  1.51156E+04  1.65270E+04 -2.26965E+03  2.93404E+04 -2.68130E+04  1.22624E+04 -2.50168E+04 -2.42335E+02
 -2.37731E+04 -1.88938E+04 -1.22796E+04 -2.23220E+04  2.92654E+03 -2.19263E+04  1.85364E+04 -2.25657E+04
  3.63900E+04 -1.41133E+04  4.10705E+04  6.01327E+03  2.60871E+04  2.16376E+04  4.45362E+03  4.06237E+04
 -1.62789E+04  3.30485E+04 -2.26609E+04  1.31886E+04 -2.79158E+04 -8.36027E+03 -3.10445E+03 -9.80806E+03
 -2.16786E+03 -9.42797E+02 -1.14608E+03  7.94352E+03 -1.67767E+04  9.16462E+03 -2.14701E+04 -1.16943E+04
 -1.12192E+04 -2.83085E+04  5.47168E+03 -2.95972E+04  1.83284E+04 -1.90953E+04  2.44959E+04  3.08036E+02
  1.57499E+04  1.19226E+04 -5.74080E+03  2.39444E+04 -2.08515E+04  2.02036E+04 -2.46623E+04 -4.91297E+03
 -2.25072E+04 -1.87429E+04  1.66930E+03 -2.20818E+04  1.63269E+04 -1.56056E+04  2.01771E+04 -7.65558E+03
  1.88735E+04  1.65734E+02  1.54742E+04  2.84374E+03  9.33439E+03  3.50846E+03  1.18420E+04 -5.34599E+03
  1.96509E+04  4.26219E+03  2.28900E+04  1.67282E+04  8.81625E+03  3.52157E+04  5.31072E+03  3.76203E+04
 -2.77683E+04  3.64361E+04 -3.84820E+04  1.83866E+04 -3.80305E+04 -2.85099E+03 -3.82140E+04 -2.33456E+04
 -1.83420E+04 -4.11256E+04  1.11627E+04 -3.29080E+04  2.64451E+04 -2.30025E+04  2.78367E+04  8.45717E+03
  5.52419E+03  1.64776E+04 -1.04586E+04  1.57497E+04 -2.06508E+04  3.34894E+03 -1.17440E+04 -1.39463E+04
 -1.86405E+03 -1.91698E+04  7.39165E+03 -1.44196E+04  1.15557E+04 -2.35565E+03  1.16303E+03  1.55667E+04
 -9.46823E+03  2.72707E+03 -7.56914E+03 -7.39762E+03  3.12097E+03 -2.21414E+04  1.07082E+04 -1.85767E+04
  2.67420E+04 -1.29444E+04  2.61618E+04 -4.16058E+02  1.87095E+04  1.48343E+04  1.06073E+04  1.58740E+04
  2.96840E+02  3.32693E+04 -1.25230E+04  1.93465E+04 -2.44840E+04  7.38949E+03 -1.22527E+04 -1.24815E+04
 -5.57709E+03 -3.30485E+03 -2.37196E+03  5.39862E+03  5.29959E+02  5.77019E+03 -1.72979E+03  3.31926E+03
 -9.16011E+03 -1.54273E+03 -1.65101E+04 -1.38739E+04 -7.95673E+03 -1.65043E+04  5.32470E+03 -1.78501E+04
  1.21962E+04 -5.41135E+03  1.12005E+04  2.52781E+03 -2.40430E+03  4.41304E+03 -1.05778E+04  6.28659E+03
 -9.43572E+03 -9.39466E+03  1.41171E+03 -1.35264E+04  1.19744E+04 -1.21405E+04  2.18386E+04 -1.09338E+04
  2.80471E+04  2.62826E+03  2.00591E+04  1.12144E+04  1.15573E+03  1.41791E+04 -9.87250E+03  1.66395E+04
 -6.73025E+03  6.31220E+03 -4.11890E+03  2.39926E+03  4.34183E+03 -5.89389E+03  9.41174E+03  3.53430E+02
  1.09401E+04  2.55540E+03 -2.05649E+03  1.32071E+04 -1.21227E+04  1.50220E+04 -1.76283E+04  5.35760E+03
 -8.79033E+03 -2.49196E+03 -6.63167E+02 -9.71875E+03  5.80019E+03 -9.74876E+03  1.04600E+04  4.88640E+03
  2.27688E+03  1.25925E+04 -7.36998E+03  8.54434E+03 -1.27634E+04  3.07534E+03 -1.19347E+04 -8.25647E+03
 -6.24401E+03 -1.89459E+04  6.07349E+03 -1.79525E+04  1.61415E+04 -8.58481E+03  1.21924E+04  1.36673E+03
  5.79200E+03  1.20084E+04 -8.84753E+02  1.48081E+04 -9.80283E+03  1.89894E+03 -1.65677E+04 -2.89562E+03
 -1.16119E+04 -1.25300E+04 -1.19885E+03 -1.41839E+04  5.24556E+02 -8.62027E+03  7.47356E+03 -3.49227E+03
  4.92880E+03  1.86805E+03  3.60460E+03 -6.81630E+02  3.61836E+03  3.44853E+03  1.39356E+03 -8.72212E+03
  1.26821E+04 -1.55653E+03  2.08599E+04  3.47916E+02  1.11120E+04  1.04620E+04  1.16569E+04  1.66655E+04
 -4.97428E+03  2.52255E+04 -2.11062E+04  1.36216E+04 -2.10355E+04  2.23039E+02 -1.75642E+04 -1.96801E+03
 -1.10800E+04 -8.40861E+03 -1.53662E+03 -1.05358E+04  7.08192E+03 -3.40259E+03  6.61212E+03 -5.58605E+03
  4.17003E+03 -4.73100E+03  2.23895E+02 -6.85132E+03  8.91549E+03 -3.61748E+03  4.49272E+02 -4.53070E+03
  8.79287E+03  5.19406E+03  1.06013E+04  9.42180E+03  1.87974E+03  1.21889E+04 -8.04282E+03  1.09995E+04
 -1.44625E+04  2.51439E+03 -1.00453E+04 -9.01463E+03 -2.86043E+02 -1.10410E+04  6.23503E+02 -1.30895E+04
  1.62251E+04 -1.06565E+04  1.62153E+04  7.43502E+03  1.14265E+04  1.44659E+04 -9.28491E+02  1.11362E+04
 -6.73801E+03  1.37583E+04 -8.29920E+03  9.57111E+02 -3.55285E+03  4.39287E+03 -3.05692E+03 -1.93291E+03
  5.41649E+03  9.97688E+02 -3.91922E+03  2.18347E+03 -4.32222E+03  5.11524E+03 -8.77967E+03  1.91635E+03
 -6.50957E+03 -7.06178E+03 -2.21477E+02 -1.22695E+04  6.57768E+03 -3.77748E+03  1.12277E+04 -4.72509E+03
  1.65792E+04  5.39371E+03  8.34762E+03  9.90741E+03 -5.72250E+03  1.56483E+04 -1.40982E+04  1.08855E+04
 -9.01045E+03  2.14357E+03 -9.65522E+03 -8.47926E+03  3.27179E+02 -1.46760E+04  2.85579E+03 -6.11293E+03
  1.38314E+04 -6.07834E+03  7.93755E+03 -1.09228E+03  1.55795E+03  2.69909E+03  5.65387E+03 -1.91583E+03
 -1.42448E+03 -2.72097E+03  2.44179E+03  2.83888E+03 -1.41140E+03  3.83757E+03  1.38452E+03  6.18465E+03
  2.88196E+01  7.57843E+03 -7.75236E+03  4.45056E+03 -1.14563E+04  2.41198E+03 -1.23958E+04 -5.59173E+03
 -5.56691E+03 -6.78890E+03  2.94159E+03 -1.59737E+04  1.43738E+04 -1.10673E+04  9.36971E+03 -3.45427E+03
  7.56912E+03  6.74311E+03  1.94163E+02  9.84217E+03 -5.72493E+03  7.08167E+03 -4.87271E+03 -1.27555E+03
 -3.10392E+03 -5.96345E+03  4.24745E+01 -5.73604E+03  4.93992E+03 -3.33329E+03  6.69081E+03 -2.45282E+03
  2.81895E+03  8.93119E+02  7.07793E+02  3.84213E+03  6.10755E+02 -1.55799E+03 -1.63821E+03  2.86243E+02
 -2.00046E+03 -2.16436E+03  4.04020E+03  7.17304E+03  6.51166E+03  5.55205E+03 -4.21359E+03  7.70418E+03
 -4.37278E+03  9.24539E+03 -9.82523E+03 -9.89675E+02 -7.98518E+03  2.09822E+03 -3.54777E+03 -1.41479E+02
  2.21501E+03 -3.37226E+03  1.16765E+03  1.97687E+03  8.30959E+02  2.12238E+03 -1.77198E+02  1.02450E+04
 -6.15382E+03 -2.19383E+03 -8.00409E+03 -6.15103E+03 -3.80247E+03 -9.65720E+03  2.59925E+03 -9.65665E+02
  4.38642E+03  1.13627E+03  3.19540E+03 -3.17800E+03  5.17306E+03  4.91565E+03 -8.77106E+02 -8.17459E+02
 -6.18817E+03  3.16286E+03 -1.07552E+03 -5.35250E+03 -4.83433E+02 -4.99715E+03  8.12480E+03 -8.31559E+03
  3.99901E+02  1.98637E+03  1.15863E+04  1.24055E+03  5.24418E+02  9.63232E+03  3.49175E+02  1.22039E+04
 -1.43180E+04  3.04024E+03 -6.67020E+03 -4.93834E+03 -9.94888E+03 -6.51061E+03  2.30874E+03 -6.11587E+03
  3.07042E+03  1.02620E+02  1.72775E+03  2.56135E+03 -4.11399E+02  9.44317E+02  1.81172E+03  5.84040E+03
 -6.11392E+03 -7.11828E+02 -1.17338E+03 -2.68098E+03 -6.49792E+03  3.89364E+03 -1.26018E+03 -2.11051E+03
  2.47011E+03 -1.54777E+01 -7.47388E+03  2.11127E+03 -8.76068E+03 -2.85675E+03 -7.42515E+03 -6.28101E+03
 -3.22799E+03 -3.97371E+03 -1.11600E+03 -1.68243E+04  1.37074E+04 -8.11663E+03  1.29304E+04 -3.63835E+03
  8.94741E+03  4.33091E+03  6.30133E+03  1.01368E+04  6.62957E+03  3.31988E+03  1.67853E+02  4.72878E+03
 -3.25630E+03  4.26473E+03 -4.31078E+03 -2.51147E+02 -2.80280E+03 -5.29226E+03  2.53503E+03  1.34034E+03
 -4.28732E+03  6.71801E+03 -5.54348E+03 -5.41832E+03  1.87791E+03  4.24220E+03 -1.94763E+03  2.56823E+03
  1.98007E+03  4.38808E+02  3.76838E+03  3.24859E+03  6.03620E+03  8.07023E+03 -1.41274E+03  1.10445E+04
 -4.13674E+03  1.24663E+04 -3.38223E+03  1.09173E+04 -1.56850E+04  1.68282E+03 -8.25625E+03 -7.96877E+03
  2.42656E+03 -5.87196E+03  2.46444E+03 -4.63761E+03  8.32715E+03 -5.97041E+03  1.19651E+03 -1.70960E+03
  2.47964E+03  1.83121E+03  1.56116E+03  3.98430E+03  1.11603E+03 -4.22518E+03  4.14508E+03 -2.79516E+03
  7.38296E+02 -3.76940E+03  4.56343E+03  3.34094E+03  1.46884E+03 -1.95617E+03  2.12920E+03  4.24957E+03
 -3.78770E+03  3.65265E+03 -4.58703E+03 -6.23775E+03 -4.18306E+03 -4.27172E+03  7.34179E+02 -1.16771E+03
  1.09257E+04 -6.20259E+03 -6.49284E+02 -1.31605E+03  6.25780E+03 -2.51955E+03 -3.63449E+03  1.25434E+04
  2.55309E+03  4.37207E+03 -3.22772E+03  4.66989E+03 -4.02792E+03 -4.01384E+03 -4.85017E+03  3.95821E+03
 -3.51264E+03 -2.03714E+02  1.83524E+03 -2.84741E+03 -4.43144E+03  4.35211E+03 -1.88180E+03 -5.08465E+02
 -3.68245E+03 -4.34124E+03  2.28114E+02 -7.49017E+03  3.01109E+03 -9.39048E+03  1.76254E+03 -1.30266E+02
  5.63694E+03  5.07711E+02  2.44845E+03  3.84453E+03 -5.80902E+02  9.54806E+02 -3.01517E+03 -2.06249E+03
