 $NMID ID='MM_0lb_SNR50_11hz_g60_34.RAW', FMTDAT='(8E13.5)'
 TRAMP=1., VOLUME=1. $END
  3.14756E+05 -2.73636E+03  3.33821E+05  2.50359E+05  9.00620E+04  3.39122E+05 -1.38187E+05  2.52943E+05
 -1.96659E+05  8.57969E+04 -1.11742E+05 -3.19641E+04  4.06667E+03 -5.29050E+04  5.50711E+04 -2.49596E+03
  3.32679E+04  4.98643E+04 -1.74931E+04  7.38990E+04 -6.36552E+04  6.20738E+04 -8.76378E+04  3.10845E+04
 -8.28243E+04 -1.31893E+04 -5.91963E+04 -4.97023E+04 -1.59100E+04 -6.99340E+04  2.30769E+04 -4.46832E+04
  3.92168E+04  8.60736E+03  1.66515E+04  4.51529E+04 -3.43922E+04  5.04063E+04 -7.09596E+04  4.20048E+03
 -5.78956E+04 -5.80936E+04 -1.04718E+04 -7.71609E+04  3.18111E+04 -6.28026E+04  5.52737E+04 -1.99870E+04
  4.03717E+04  1.54470E+04  3.30531E+04  2.60472E+04  1.26015E+04  2.78288E+04 -1.95545E+03  3.27958E+04
 -2.07517E+04  9.68742E+03 -1.90715E+04 -7.73580E+03  5.62485E+03 -7.51437E+03  2.20736E+04  1.26352E+04
  8.53627E+03  3.93916E+04 -3.37712E+04  3.24565E+04 -6.74415E+04  6.86636E+03 -5.87762E+04 -4.20081E+04
 -1.25797E+04 -6.70675E+04  4.09686E+04 -4.47153E+04  5.56865E+04 -1.02596E+03  3.79047E+04  3.48700E+04
 -9.03910E+03  4.23451E+04 -2.88746E+04  2.16704E+04 -3.69367E+04 -2.49409E+03 -1.83799E+04 -1.62376E+04
 -5.95028E+03 -1.40086E+04 -1.49928E+02 -2.46954E+04  4.11594E+03 -2.62638E+04  1.58851E+04 -1.57637E+04
  9.94796E+03  5.92300E+03 -9.55179E+03  9.65505E+03 -2.12305E+04 -6.94258E+03 -4.22388E+03 -4.37412E+04
  2.51963E+04 -4.45866E+04  5.59137E+04 -1.85438E+04  4.86937E+04  1.88731E+04  1.22100E+04  4.93531E+04
 -1.92083E+04  3.83449E+04 -2.56865E+04  3.40016E+03 -9.67599E+03 -2.91542E+04  2.02206E+04 -3.31526E+04
  4.81164E+04 -1.14182E+04  4.01750E+04  2.18948E+04  2.45332E+04  5.68510E+04 -8.13169E+03  5.28288E+04
 -3.76017E+04  4.04877E+04 -4.30437E+04  1.22311E+04 -4.55272E+04 -1.58084E+04 -3.00885E+04 -4.07786E+04
  4.87381E+03 -3.66610E+04  3.49572E+04 -2.05532E+04  3.51642E+04  6.72959E+03  3.14499E+03  2.41813E+04
 -1.10060E+04  8.24386E+03 -6.56628E+03 -6.73943E+03  3.02162E+03 -1.17613E+04  1.97714E+04  5.13417E+03
  1.19738E+04  2.63578E+04 -7.33776E+02  2.91867E+04 -2.32413E+04  1.05272E+04 -3.57802E+04 -2.86505E+03
 -2.50520E+04 -1.63840E+04 -1.12631E+04 -2.48649E+04  1.01082E+04 -2.92431E+04  2.36702E+04 -2.62935E+04
  3.18675E+04 -1.82804E+04  3.59075E+04  2.80293E+03  2.87266E+04  2.79154E+04  2.98747E+02  4.26558E+04
 -1.44034E+04  3.11626E+04 -3.31757E+04  1.12555E+04 -2.42210E+04 -8.52282E+03 -8.75771E+03 -1.34228E+04
 -1.93386E+03 -4.29386E+03 -1.47962E+04  7.18408E+03 -1.62727E+04  8.20154E+03 -1.94483E+04 -1.30400E+04
 -1.62939E+04 -1.90626E+04  6.05897E+03 -3.50387E+04  2.16051E+04 -1.86502E+04  2.00744E+04 -6.98262E+03
  9.50354E+03  1.78526E+04 -3.39475E+03  2.40072E+04 -1.49823E+04  1.49003E+04 -2.27681E+04 -2.71918E+03
 -1.42851E+04 -1.85231E+04 -1.69026E+03 -2.31189E+04  1.23589E+04 -2.59349E+04  2.41587E+04 -1.41133E+04
  1.97433E+04  4.26333E+02  1.46333E+04  9.39767E+03  8.46443E+03 -8.06915E+02  1.32853E+04 -2.58295E+03
  2.22646E+04  2.31743E+03  2.30296E+04  1.68812E+04  1.34049E+04  3.75339E+04 -5.06456E+03  4.59736E+04
 -2.76184E+04  3.82295E+04 -3.48321E+04  1.75203E+04 -4.74183E+04 -4.79884E+03 -3.87404E+04 -2.56870E+04
 -1.64170E+04 -3.47884E+04  1.62831E+04 -2.86731E+04  2.85347E+04 -1.37229E+04  3.00250E+04  2.39424E+03
  5.31240E+03  2.14702E+04 -1.17591E+04  1.73087E+04 -1.88479E+04  3.49328E+03 -1.40298E+04 -9.67590E+03
  1.14162E+03 -1.87557E+04  1.37615E+04 -1.15167E+04  1.44001E+04 -8.56178E+01  1.19531E+03  5.72436E+03
 -1.27539E+04  9.86363E+02 -5.02514E+03 -6.92466E+03 -1.34156E+03 -2.03118E+04  7.31434E+03 -2.52306E+04
  2.35065E+04 -7.03825E+03  2.52654E+04 -1.53592E+02  1.94979E+04  1.70509E+04  9.27806E+03  3.03003E+04
 -1.04609E+04  3.35854E+04 -1.73114E+04  2.00981E+04 -1.38193E+04  2.07428E+03 -1.11091E+04 -5.90849E+03
 -8.53261E+03 -4.35792E+03 -5.73442E+03  3.50420E+03 -2.69901E+03  3.03029E+03 -1.01971E+04  4.57224E+02
 -1.16025E+04 -1.61976E+03 -1.38060E+04 -1.40775E+04 -9.29887E+03 -1.62776E+04  6.51903E+03 -1.61642E+04
  1.43805E+04 -5.56046E+03  1.05125E+04  1.07366E+04  4.79274E+03  5.88381E+03 -9.16483E+03  1.93943E+03
 -8.59042E+03 -1.44587E+04 -6.51242E+03 -1.03158E+04 -6.22056E+02 -1.57116E+04  1.76441E+04 -4.85989E+03
  2.12110E+04  3.90855E+03  1.84845E+04  1.43838E+04  5.67494E+03  1.88235E+04 -7.63771E+03  1.86903E+04
 -1.10117E+04  8.04662E+03 -3.88090E+03 -2.31380E+03 -1.44034E+03 -7.09233E+03  1.28919E+04 -1.81842E+03
  8.45907E+03  4.33691E+03  7.64011E+02  9.30169E+03 -7.25208E+03  1.11836E+04 -1.40288E+04 -9.70192E+02
 -5.60939E+03 -5.36498E+03  6.99861E+02 -1.26414E+04  1.11135E+04 -1.32366E+03  4.38621E+03  2.41637E+03
 -3.83676E+03  1.53569E+04 -8.77967E+03  1.65647E+04 -2.09278E+04  6.89050E+03 -1.62606E+04 -2.94425E+02
 -9.57296E+03 -1.08427E+04  4.12048E+03 -1.28308E+04  1.05780E+04 -1.23157E+04  1.24111E+04  4.62321E+03
  1.80337E+04  1.22265E+04  2.75377E+03  2.11417E+04 -7.20756E+03  4.99896E+03 -1.44059E+04 -3.96899E+03
 -1.20271E+04 -1.17802E+04  3.57076E+02 -1.32864E+04  1.02220E+04 -6.33525E+03  1.46254E+04  6.72757E+01
  1.53509E+03  3.12634E+03  9.24518E+02  4.75145E+03 -3.60182E+03 -5.22746E+03  6.43699E+03 -7.11101E+03
  6.01892E+03 -1.57708E+03  1.35267E+04  5.78523E+02  1.35907E+04  8.37716E+03  7.73928E+03  2.37715E+04
 -3.04569E+03  1.82166E+04 -1.60353E+04  1.14183E+04 -2.74793E+04  5.25924E+03 -1.69169E+04 -4.01349E+03
 -1.47991E+04 -1.07262E+04  1.78763E+03 -1.04000E+04  9.97887E+03 -3.71580E+03  6.79593E+03 -2.68624E+03
  2.98794E+03 -8.19291E+03  9.68415E+02 -5.99794E+03  8.78659E+03 -4.88769E+03  8.62151E+03 -2.91626E+03
  1.47428E+04 -1.88038E+03  6.84125E+03  1.09978E+04 -2.21180E+03  1.59467E+04 -1.13360E+04  5.47848E+03
 -1.32582E+04 -1.65048E+03 -1.14410E+04 -4.07347E+03 -4.09720E+03 -1.95026E+04  8.88112E+03 -1.19768E+04
  1.48008E+04 -7.95493E+03  1.81219E+04  2.11985E+03  8.30351E+03  1.22736E+04 -1.78977E+03  1.56034E+04
 -1.10320E+04  1.29533E+04 -1.18862E+04  4.16778E+03 -5.25226E+03  3.31786E+03 -4.37754E+02 -4.72408E+03
  1.53748E+03 -2.24772E+03 -2.80860E+03  5.37237E+03 -6.51543E+03 -6.13915E+03 -9.26391E+03  2.53842E+03
 -1.18226E+04 -7.86790E+03  1.14027E+03 -2.16087E+04  8.32873E+03 -1.10448E+04  9.61120E+03 -6.64978E+03
  1.30620E+04 -2.41470E+01  3.25352E+03  1.28545E+04 -3.02544E+03  1.35418E+04 -8.13168E+03  1.15551E+04
 -9.87959E+03  1.53658E+03 -9.12408E+03 -2.08027E+03 -3.81476E+03 -6.88924E+03  7.14421E+03 -5.77414E+03
  1.26485E+04 -1.05701E+03  6.75831E+03 -5.68183E+03  6.19593E+03  7.55136E+03  1.12618E+03 -9.15179E+02
 -3.84540E+02  1.93835E+03  4.37076E+03  2.98210E+03 -5.05020E+02  3.49287E+03  4.63828E+03  7.11321E+03
 -2.95719E+03  9.29656E+03 -4.31296E+03  8.67601E+03 -7.87744E+03  4.47473E+03 -9.22326E+03 -2.32027E+03
 -6.48286E+03 -9.74817E+03  4.71351E+03 -1.56151E+04  1.34880E+04 -8.23476E+03  3.21315E+03 -9.38038E+02
  1.14023E+04  1.40808E+03  2.34331E+03  1.20091E+04  1.55575E+03  3.72413E+03 -2.72858E+03 -6.26033E+03
 -2.54405E+03 -8.59936E+03  7.34390E+03 -3.80379E+03  3.53380E+03 -6.91803E+03  1.06247E+04  2.63119E+02
  5.06458E+03  4.77377E+03 -7.84783E+02  1.74601E+03 -1.19602E+03  1.40405E+03  4.19618E+03  4.75178E+03
 -1.46313E+02 -2.70961E+03  4.51202E+03 -1.53630E+03 -1.03439E+03  9.54346E+03  3.43097E+03  6.94137E+03
 -1.95766E+03  4.14763E+03 -1.19674E+04  1.86968E+03 -5.94447E+03 -4.46013E+03 -7.99468E+02 -8.76787E+03
  2.74782E+03 -2.94972E+03  5.90012E+03 -1.23749E+03 -3.42324E+03  1.39808E+03 -4.65144E+03  2.00098E+03
 -1.45388E+03  4.05022E+03 -8.29614E+03 -3.30368E+03  8.32360E+02 -7.26885E+03  9.85390E+03  4.19905E+02
  8.92067E+03 -8.12218E+03  5.32009E+03  2.80208E+03  5.63936E+03 -1.26591E+03  2.55225E+03  6.01566E+03
  2.41931E+03  7.85362E+02 -9.19626E+02 -1.06690E+02 -6.19042E+03 -7.82049E+03  5.57743E+03 -4.70582E+02
  5.72725E+03 -9.18117E+02  3.06008E+03  9.29203E+03  4.21564E+03  1.17026E+04 -6.18370E+03  6.59267E+03
 -6.91077E+03  2.92698E+03 -2.11164E+03  3.09523E+03 -1.05093E+04 -5.10184E+03  2.05315E+03 -1.91215E+04
  1.01573E+03 -1.95246E+03 -2.45897E+03  5.73028E+03 -7.32197E+02  3.03473E+03 -5.35519E+03  2.34823E+03
 -7.44694E+03  6.86039E+03 -4.53265E+03 -1.31062E+02  4.22346E+03  1.20538E+03  2.84346E+02  5.00517E+03
 -3.27850E+03  6.77062E+03  2.18891E+03  4.22094E+03 -1.09455E+04  1.35196E+03 -5.36856E+03 -3.95244E+03
 -2.77158E+02 -7.23435E+03  1.14523E+04 -1.50197E+04  1.04629E+04 -5.44558E+03  1.13470E+04 -4.39958E+03
  1.08718E+04  1.73750E+03  7.53723E+03  1.00911E+04  7.23538E+03  9.47349E+03 -6.74034E+03  5.85255E+03
 -9.40346E+03  6.67797E+03 -3.19021E+03 -1.10764E+03 -2.71648E+03 -2.12940E+03  4.13432E+03  3.63901E+02
  1.95283E+03 -1.21761E+03  4.25977E+03 -5.11941E+03 -1.16178E+03  6.27484E+03 -1.62331E+02 -2.15288E+03
 -2.76919E+03  3.29470E+03  8.26024E+03 -2.07802E+03  4.48726E+03  1.56233E+03  2.11113E+03  1.33425E+04
 -7.14446E+03  7.97796E+03 -6.21943E+03  6.07052E+03 -1.61557E+04  4.74332E+03 -8.61573E+03 -1.15932E+04
 -3.79726E+03 -9.44246E+03  4.78249E+03 -1.22072E+04  9.19642E+03 -9.54377E+03  5.95622E+03  6.40839E+03
  3.57832E+03  3.28302E+03  2.15246E+02  3.90935E+03 -7.02772E+02  1.68053E+03  3.60023E+03 -9.78050E+02
  1.83413E+03  5.06398E+03 -1.69084E+03  1.61288E+03  3.69164E+03 -3.56341E+03  4.48582E+03  4.01139E+03
 -2.24425E+03  3.08637E+03 -4.46223E+03 -1.04926E+03 -1.05211E+03 -5.06163E+03 -1.51776E+03 -5.81314E+03
  5.76134E+03 -1.86005E+03  7.23981E+03 -4.38389E+03  8.91340E+03 -1.39500E+02 -1.40365E+03  3.26424E+03
  1.04072E+03  4.11940E+03 -5.81328E+01  5.44682E+03 -3.86424E+03  6.14105E+03 -8.23589E+02 -2.37350E+03
 -3.10415E+03  2.45738E+03 -2.85287E+03  1.58928E+03 -3.57388E+03 -1.14809E+03 -3.81195E+03 -3.36152E+03
 -6.46963E+03 -2.06580E+03 -2.59042E+03  9.21656E+01 -2.50574E+03 -7.95904E+03 -1.51241E+03 -3.21312E+03
  8.31003E+03  9.92513E+02  1.19829E+04 -5.78110E+02  2.30270E+03 -4.47088E+03 -6.79712E+03  6.57783E+03
