 $NMID ID='MM_0lb_SNR50_13hz_g45_80.RAW', FMTDAT='(8E13.5)'
 TRAMP=1., VOLUME=1. $END
  3.05824E+05 -3.37935E+03  3.38545E+05  2.49375E+05  8.46700E+04  3.36978E+05 -1.38244E+05  2.53867E+05
 -1.82518E+05  8.05604E+04 -1.11644E+05 -3.40151E+04  7.32776E+02 -5.29391E+04  5.75387E+04  7.66494E+02
  4.14651E+04  4.76651E+04 -1.63098E+04  7.76278E+04 -6.20784E+04  6.45077E+04 -8.72385E+04  3.32931E+04
 -8.11778E+04 -9.94488E+03 -6.13299E+04 -4.96575E+04 -1.12495E+04 -6.71381E+04  2.59228E+04 -4.68215E+04
  3.46341E+04  2.35413E+03  1.74270E+04  4.96926E+04 -3.44760E+04  4.80671E+04 -6.56607E+04  5.82358E+02
 -5.11377E+04 -5.48498E+04 -8.35381E+03 -7.41701E+04  3.25065E+04 -6.09637E+04  4.34303E+04 -1.33962E+04
  4.51607E+04  1.08627E+04  3.07098E+04  2.65760E+04  1.82308E+04  2.54275E+04 -4.69848E+03  2.61088E+04
 -1.97311E+04  1.62304E+04 -2.50935E+04 -2.61582E+03  7.18860E+03 -5.34447E+03  2.35843E+04  1.54978E+04
  8.16756E+03  3.52733E+04 -3.26076E+04  3.10531E+04 -5.97813E+04 -1.86496E+02 -5.66176E+04 -4.37109E+04
 -1.47468E+04 -6.30604E+04  3.96748E+04 -4.67878E+04  6.03504E+04 -2.96014E+03  3.61478E+04  3.43327E+04
 -8.95849E+02  3.84546E+04 -3.31786E+04  1.44036E+04 -2.93787E+04 -6.74007E+03 -2.02462E+04 -1.12911E+04
 -1.28925E+04 -1.36779E+04 -5.63072E+03 -1.82216E+04  8.96126E+03 -1.86486E+04  1.60539E+04 -1.56338E+04
  1.53385E+04  1.87436E+03 -1.12720E+04  1.27806E+04 -2.70287E+04 -7.78358E+03 -7.07834E+03 -3.70234E+04
  2.07177E+04 -4.35966E+04  5.09700E+04 -1.64710E+04  4.41684E+04  1.71099E+04  1.07033E+04  4.06622E+04
 -1.34241E+04  3.30975E+04 -2.67185E+04  2.03243E+03 -5.82830E+03 -3.19131E+04  2.08569E+04 -3.00215E+04
  4.06248E+04 -9.30043E+03  4.04425E+04  2.29237E+04  1.53226E+04  4.87822E+04 -7.93265E+03  4.83343E+04
 -3.24966E+04  2.89915E+04 -4.26624E+04  1.00956E+04 -4.77909E+04 -2.01070E+04 -2.58439E+04 -4.13639E+04
  1.06774E+04 -3.69231E+04  3.58717E+04 -1.23222E+04  3.11940E+04  5.78697E+03  1.72846E+03  1.90624E+04
 -1.49076E+04  4.56136E+03 -9.68390E+03 -1.07932E+04  3.67887E+03 -1.35305E+04  2.44583E+04  7.06929E+03
  7.74598E+03  2.06728E+04 -9.52182E+03  2.61117E+04 -2.46936E+04  9.56492E+03 -2.72161E+04 -1.44329E+03
 -2.17619E+04 -1.67995E+04 -5.87042E+03 -2.04537E+04  2.68069E+03 -1.79743E+04  1.23411E+04 -1.59051E+04
  2.64646E+04 -1.38995E+04  3.57395E+04  2.31514E+03  2.65689E+04  2.13327E+04  1.11560E+04  4.01078E+04
 -1.45978E+04  2.56575E+04 -3.37883E+04  1.15447E+04 -1.66218E+04 -1.23394E+04  8.35517E+02 -1.03948E+04
  5.52934E+03 -6.54270E+03 -5.49454E+03  3.80189E+03 -1.87265E+04  4.45773E+03 -1.84665E+04 -1.32859E+04
 -1.52628E+04 -1.90366E+04  3.09328E+02 -2.11263E+04  1.36715E+04 -1.74669E+04  1.22956E+04 -3.42017E+03
  1.09941E+04  7.86617E+03  9.14772E+02  1.81097E+04 -1.51803E+04  9.30940E+03 -1.78357E+04 -2.40023E+03
 -1.12148E+04 -2.06288E+04 -2.80846E+03 -2.33963E+04  5.98508E+03 -2.26268E+04  1.64974E+04 -1.13469E+04
  1.74431E+04 -2.14818E+03  1.30352E+04  2.09048E+03  8.05091E+03  2.87555E+03  1.47351E+04  1.31545E+03
  1.92831E+04  3.65830E+03  1.43775E+04  1.75988E+04  9.16688E+03  3.14836E+04 -5.42702E+03  3.40922E+04
 -1.63427E+04  2.91975E+04 -3.39952E+04  1.38758E+04 -3.69065E+04 -3.52329E+03 -3.14447E+04 -1.82334E+04
 -8.19068E+03 -3.44498E+04  1.06938E+04 -2.22621E+04  2.15555E+04 -1.12980E+04  1.80764E+04  4.35013E+03
  7.39174E+03  1.35628E+04 -1.01982E+04  1.39669E+04 -1.78524E+04  5.28100E+03 -8.09228E+03 -7.90839E+03
  8.66852E+02 -9.67472E+03  1.12364E+04 -1.18370E+04  1.26825E+04  1.21147E+03  4.80842E+03  9.78101E+03
 -8.39943E+03  6.61923E+03 -6.09802E+03 -8.55708E+03  8.13732E+02 -1.61472E+04  1.17442E+04 -1.34351E+04
  2.06565E+04 -8.96170E+03  1.58170E+04 -2.75104E+02  1.75639E+04  1.47125E+04  1.47833E+04  2.44013E+04
 -7.20375E+03  2.63072E+04 -1.60697E+04  1.23719E+04 -1.56785E+04  6.03160E+03 -8.08502E+03 -3.86291E+03
 -2.02002E+03 -3.75083E+03 -3.88248E+03  2.02430E+03 -2.27883E+03  7.03737E+03 -4.72184E+03  6.96247E+03
 -9.88500E+03 -9.44821E+02 -1.13572E+04 -8.20301E+03 -9.75640E+03 -1.40529E+04  5.97690E+03 -1.13417E+04
  1.03782E+04 -4.32574E+03  1.05294E+04 -9.52162E+01 -8.93259E+02  6.41661E+03 -8.24136E+03 -5.88321E+02
 -6.17570E+03 -3.50291E+03 -1.10856E+03 -1.16645E+04  8.78987E+03 -7.97782E+03  1.13526E+04 -1.39804E+03
  1.88392E+04  3.56567E+03  1.81901E+04  9.29969E+03  1.49738E+03  1.12251E+04 -7.88954E+03  1.33995E+04
 -8.96982E+03  3.70134E+03 -5.28282E+03  6.70158E+02 -1.03538E+03 -3.30428E+02  8.03373E+02 -6.23802E+03
  4.57576E+03 -4.34306E+02 -2.73954E+03  9.29488E+03 -4.37146E+03  8.44374E+03 -1.42309E+04 -2.51459E+03
 -6.54006E+03 -4.04676E+03 -2.10740E+03 -1.10499E+04  5.08422E+03 -3.22436E+03  8.98362E+03 -1.98092E+02
  8.53805E+03  1.09069E+04 -6.90365E+03  9.30624E+03 -1.28515E+04  2.63918E+03 -1.03399E+04 -8.06383E+02
 -1.05709E+04 -1.08956E+04  2.52901E+03 -1.17299E+04  1.07678E+04 -1.13774E+04  9.91756E+03  5.34268E+03
  1.08442E+04  7.58596E+03  1.35926E+03  1.25959E+04 -4.49597E+03  2.06501E+03 -7.35030E+03  5.00400E+02
 -7.92967E+03 -8.05009E+03  8.45967E+02 -7.37546E+03  2.04215E+03 -7.13583E+03  6.62866E+03 -1.43910E+03
  4.11473E+03  1.14660E+03  3.34016E+03  3.24094E+03 -5.77988E+01  1.89638E+03  2.33324E+03 -2.55948E+03
  4.57506E+03 -3.99415E+02  1.17392E+04  4.00333E+03  9.51418E+03  6.27845E+03  5.68767E+03  2.17673E+04
 -1.06379E+03  1.62296E+04 -1.35669E+04  1.07402E+04 -1.90492E+04  4.36245E+03 -1.46544E+04 -1.46666E+04
 -3.75520E+03 -5.57274E+03 -2.88161E+02 -4.04884E+03 -3.71479E+03 -1.79473E+03  7.90254E+03 -4.99377E+03
 -1.90896E+02 -1.54639E+03  2.15201E+02 -7.02812E+03  3.96250E+03 -4.77050E+03  3.96950E+03 -1.61589E+03
  7.06590E+03 -6.43933E+00  2.26989E+03  1.01665E+04  1.48299E+03  1.01634E+04 -6.37967E+03  8.51407E+03
 -8.69052E+03 -6.59267E+03 -5.67052E+03 -8.80929E+03  1.98610E+03 -9.50247E+03  1.08525E+04 -1.18826E+04
  9.73049E+03 -1.10384E+04  1.57508E+04 -4.05218E+03  1.35639E+04  1.20552E+04  7.02611E+03  8.11327E+03
 -6.57199E+03  1.04080E+04 -7.50089E+03  6.16276E+03 -7.98193E+02 -5.11679E+03 -5.17161E+03  2.21051E+03
 -1.30819E+03  8.97307E+01 -1.28638E+03  6.04612E+03 -5.02179E+03 -1.43846E+03 -7.58245E+03 -3.25051E+03
 -4.16219E+03 -1.18801E+04 -1.78900E+03 -6.38240E+03  6.94426E+03 -5.20587E+03  8.77704E+03 -1.46049E+03
  1.09977E+04  5.68684E+03  1.70398E+02  1.02222E+04 -6.54749E+03  1.65129E+04 -9.50276E+03  6.13887E+03
 -1.01694E+04  2.57483E+03 -7.07140E+03 -1.37264E+03  1.16337E+03 -1.15937E+04 -4.49555E+03 -1.06470E+04
  5.32659E+03 -3.19222E+03  2.75703E+03 -9.61336E+01 -1.05116E+03  6.03875E+03 -1.86640E+03 -1.79982E+02
 -4.92927E+02 -1.47599E+01  1.99935E+03 -2.46031E+02  1.78193E+03  4.86535E+03 -9.38171E+02  5.43834E+03
  3.47202E+03  1.06377E+04 -8.27950E+03  2.62698E+03 -8.11152E+03  7.56565E+02 -3.85446E+03 -9.33966E+02
 -1.12462E+04 -9.82328E+03 -7.87753E+02 -7.13749E+03  3.87669E+03 -2.05890E+03  1.12031E+04 -2.39441E+03
  6.44594E+03  2.40041E+03  3.48267E+03  6.94715E+03 -3.75455E+03  7.02403E+03 -2.82105E+03 -8.06161E+02
  1.88281E+03 -1.35946E+03  5.23796E+02 -3.90055E+03  4.92525E+03 -5.35441E+03  1.48955E+03 -3.13794E+03
 -2.62018E+03 -1.56569E+01  2.40190E+03  6.59516E+02 -8.36389E+02  2.85151E+01 -3.66019E+03  4.12359E+03
  8.13100E+02  2.92560E+03  3.68037E+01  2.11373E+03  3.37508E+03  1.13726E+04 -2.20084E+03  8.35643E+03
 -4.21159E+03  8.83887E+03 -3.89645E+03 -8.43852E+02 -3.98672E+03 -2.67707E+03  9.00483E+02 -6.76371E+03
  2.29972E+03 -1.74162E+03  3.89271E+03  1.62853E+03  5.42188E+02  2.34621E+03 -4.23598E+03 -3.97575E+03
 -4.05455E+03  2.64848E+03 -4.12530E+03  1.99155E+03 -5.41538E+03 -9.73357E+02 -1.98796E+02 -2.54090E+03
  1.05713E+03 -6.68962E+03  7.88610E+03 -2.83270E+03 -2.54252E+03  1.97064E+03 -3.79341E+03  4.70686E+03
 -3.69052E+02  4.33233E+03  3.60452E+03 -4.51299E+03  3.23883E+03 -3.79466E+03  4.54295E+03 -7.05109E+02
  8.75708E+03 -1.58911E+03  9.45983E+03  5.87328E+03  2.30513E+03  8.99932E+03  7.65901E+02  9.65398E+03
 -1.73235E+03 -1.72190E+03 -7.63091E+03  3.18239E+03 -7.58996E+02 -5.95022E+03 -6.29231E+02 -4.17841E+03
  2.61899E+03 -5.06961E+03  5.76877E+03 -1.65713E+03 -3.78302E+03  6.11829E+03 -2.37004E+03  6.13267E+03
  1.38246E+03 -3.19945E+03  2.07625E+03 -2.30217E+03  1.35833E+03 -7.28967E+03 -8.10277E+02  2.53245E+03
 -2.40210E+03  4.90218E+03  2.64039E+02  2.78785E+01 -3.67013E+03 -3.44959E+02 -9.73695E+03 -1.80159E+03
 -2.69580E+03 -8.97374E+03 -8.04400E+02 -1.05986E+04  1.86996E+03 -7.18493E+03  2.97643E+03 -3.21155E+03
  3.30445E+03  4.81022E+03  3.56349E+03  3.83480E+02 -4.55092E+03  5.81373E+03 -2.21462E+03  6.87210E+02
 -1.30357E+03  4.82515E+03  9.71418E+02 -5.55396E+03 -6.31299E+03 -2.73051E+03 -1.82228E+03 -1.29765E+03
  1.35065E+03 -6.39402E+03 -1.69955E+01  5.93145E+03  3.87750E+03  3.69872E+03 -2.48148E+03 -1.66939E+03
 -2.54554E+03 -9.72208E+02  2.39532E+03 -1.45143E+02  5.08894E+03  2.66321E+03 -4.56569E+02  3.36758E+03
  4.90462E+02  6.73926E+03 -1.04955E+04  3.63777E+03 -5.12812E+03  1.11273E+02 -3.47217E+03 -1.01951E+03
 -2.04840E+03 -9.42959E+03  3.34512E+03 -3.54408E+03  3.76833E+03 -5.23150E+03  5.49897E+03 -9.53348E+02
  2.66461E+03  3.84558E+03  1.63145E+03 -5.66733E+01 -1.40194E+03  1.68773E+03 -1.49068E+03 -3.21854E+03
 -2.45743E+03  8.43581E+02  1.22536E+03 -2.32298E+03  2.18769E+03 -2.53004E+03  3.90577E+03  4.02607E+03
 -3.14594E+03  5.89435E+03 -4.80229E+03  9.03433E+02 -3.80811E+03  3.09453E+03 -2.84025E+03 -4.98270E+03
  5.01241E+03 -6.51795E+03  6.74250E+03  1.91405E+03  6.29870E+03  7.03274E+02  6.21122E+03  3.38597E+03
  3.56491E+03  2.51254E+03 -1.03870E+03 -3.30317E+03 -4.68626E+03  3.03013E+03 -4.42221E+03  4.74085E+03
 -3.40950E+03 -2.54890E+03 -2.44496E+03  1.07077E+03 -1.57733E+03  7.38475E+02 -2.96191E+03 -8.00563E+02
 -5.63019E+03 -3.86784E+03  1.81992E+03 -1.97120E+03 -3.51173E+03 -4.32031E+03 -1.94986E+02  4.70439E+03
 -1.11749E+03  2.77712E+02 -3.25893E+03  2.00271E+03 -5.24498E+03  9.56942E+03  1.26950E+03  4.34421E+03
