 $NMID ID='MM_0lb_SNR50_16hz_g45_55.RAW', FMTDAT='(8E13.5)'
 TRAMP=1., VOLUME=1. $END
  3.15588E+05 -1.18641E+03  3.39344E+05  2.55244E+05  8.41734E+04  3.34706E+05 -1.35645E+05  2.51787E+05
 -1.89717E+05  8.01960E+04 -1.08313E+05 -3.14892E+04  2.43781E+02 -4.99828E+04  5.38298E+04  3.49872E+01
  3.08404E+04  5.05995E+04 -1.97966E+04  7.53178E+04 -6.16296E+04  6.83172E+04 -8.11546E+04  3.56612E+04
 -8.13210E+04 -1.22212E+04 -5.57758E+04 -5.03549E+04 -1.68459E+04 -6.89843E+04  2.57980E+04 -4.51517E+04
  4.08374E+04  4.79689E+03  1.67532E+04  4.61289E+04 -3.02034E+04  4.28016E+04 -6.38933E+04  2.20634E+03
 -5.48067E+04 -5.59537E+04 -4.48338E+03 -7.57478E+04  3.17616E+04 -5.52054E+04  4.58376E+04 -1.51500E+04
  4.16334E+04  1.17225E+04  3.08349E+04  2.68125E+04  1.75107E+04  2.87811E+04 -1.06827E+04  2.93025E+04
 -2.12420E+04  1.29643E+04 -2.12873E+04 -2.81756E+03  5.27751E+03 -4.70208E+03  1.85519E+04  6.86591E+03
  3.92294E+03  3.47083E+04 -3.57140E+04  3.43199E+04 -6.32809E+04  9.87477E+02 -5.33818E+04 -4.10046E+04
 -1.79965E+04 -6.18014E+04  3.52170E+04 -4.30613E+04  5.37275E+04 -5.65392E+02  3.16594E+04  3.20831E+04
 -6.86056E+03  2.96783E+04 -2.49672E+04  1.63961E+04 -2.78167E+04 -3.93309E+03 -2.26447E+04 -1.27393E+04
 -5.46596E+03 -1.19720E+04  2.45974E+03 -1.68437E+04  7.95648E+03 -2.37066E+04  1.73260E+04 -8.02982E+03
  1.24950E+04  6.13802E+03 -1.08431E+04  1.16160E+04 -1.69653E+04 -3.38958E+03 -6.48734E+03 -3.15783E+04
  2.36861E+04 -4.42080E+04  4.39948E+04 -2.05432E+04  4.34768E+04  2.04375E+04  1.36171E+04  4.30728E+04
 -1.45938E+04  3.19140E+04 -2.09171E+04  2.96909E+03 -1.08084E+04 -2.96126E+04  1.99887E+04 -3.15878E+04
  3.95372E+04 -6.58159E+03  3.46490E+04  2.11470E+04  1.73855E+04  4.69592E+04 -6.23342E+03  4.96195E+04
 -3.24050E+04  3.41254E+04 -4.12040E+04  6.04703E+03 -4.27635E+04 -1.29410E+04 -2.16369E+04 -3.68113E+04
  8.56705E+03 -3.08318E+04  2.75826E+04 -1.60548E+04  2.72607E+04  1.13637E+04  6.17707E+03  2.46824E+04
 -1.03465E+04  7.63158E+03 -6.27581E+03 -8.61044E+03  4.57292E+03 -1.18482E+04  1.75189E+04  4.89987E+03
  1.09286E+04  2.17772E+04 -1.39796E+03  2.44268E+04 -2.16213E+04  1.36055E+04 -2.68444E+04 -9.92651E+03
 -2.10176E+04 -1.99983E+04 -1.36939E+03 -2.09955E+04  3.25798E+03 -1.45174E+04  1.37299E+04 -1.26195E+04
  2.32963E+04 -1.10106E+04  2.94840E+04  2.52112E+02  2.25628E+04  1.49171E+04  7.99439E+02  3.06750E+04
 -1.55866E+04  2.43273E+04 -2.83885E+04  9.54302E+03 -2.25587E+04 -1.19463E+04 -5.24884E+03 -1.44807E+04
 -1.38799E+02 -2.35819E+03 -1.40230E+03  8.42648E+03 -1.01067E+04  7.06030E+03 -1.71806E+04 -6.61203E+03
 -1.06002E+04 -1.44016E+04  3.87645E+03 -2.49416E+04  1.24954E+04 -1.21886E+04  1.35584E+04 -2.50196E+03
  1.13578E+04  1.22461E+04  1.51465E+03  1.70635E+04 -1.14835E+04  9.58884E+03 -1.64244E+04 -4.93244E+03
 -1.25466E+04 -1.12523E+04 -2.84110E+03 -1.48714E+04  8.99391E+03 -1.52285E+04  1.62221E+04 -6.36530E+03
  1.64967E+04  2.41708E+03  1.49263E+04  6.14944E+03  6.77147E+03 -2.12402E+03  9.68193E+03  9.04590E+02
  1.87062E+04  3.33586E+03  1.61360E+04  1.53416E+04  1.00975E+04  2.82417E+04  1.34093E+03  3.00076E+04
 -2.01151E+04  2.26624E+04 -2.50672E+04  1.06264E+04 -2.59708E+04 -1.05737E+03 -2.48968E+04 -1.19933E+04
 -1.48278E+04 -2.62511E+04  9.51745E+03 -1.80514E+04  2.15550E+04 -1.42641E+04  1.69229E+04  3.86531E+03
  1.17707E+04  1.40898E+04 -1.33944E+04  1.38301E+04 -1.42823E+04  2.95640E+03 -6.65839E+03 -6.93067E+03
 -1.71042E+03 -1.50229E+04  3.34330E+03 -1.39813E+04  9.41280E+03 -6.06531E+02 -3.80658E+03  2.40284E+03
 -7.33301E+03  5.88120E+03 -8.52163E+02 -6.46885E+03 -8.67128E+02 -1.06791E+04  1.30022E+04 -7.20154E+03
  1.32252E+04 -5.68492E+03  1.53733E+04  3.20987E+03  1.19675E+04  9.22431E+03  6.48593E+03  1.74781E+04
  1.60758E+03  1.91595E+04 -1.15484E+04  1.32354E+04 -9.43539E+03  5.97533E+03 -8.91605E+03 -3.19289E+03
 -3.56964E+03 -2.47699E+03 -1.61674E+03  4.41580E+03  7.74490E+02  4.23258E+03 -8.25582E+03  2.94259E+03
 -1.05714E+04 -1.02954E+03 -1.20566E+04 -9.30412E+03 -3.71137E+03 -1.47982E+04  5.80027E+03 -1.05913E+04
  7.27777E+03 -4.85946E+03  8.54802E+03  6.32692E+03 -2.91501E+03  9.04948E+02 -2.56925E+03 -1.23633E+03
 -2.74580E+03 -8.72661E+03  1.45074E+03 -5.32305E+03 -2.90015E+02 -1.38862E+04  1.15791E+04 -4.07999E+03
  1.35656E+04  1.55723E+03  1.14444E+04  7.13815E+03  3.62914E+01  1.18524E+04 -8.56798E+03  1.26931E+04
 -7.78901E+03  2.18565E+03 -3.78917E+03 -4.43324E+02  1.70690E+03 -5.69714E+03  2.51307E+03 -2.88262E+03
  6.67431E+03  3.73746E+03  2.01751E+03  4.14735E+03  2.19048E+03  7.04371E+03 -7.79357E+03  2.03341E+03
 -8.91465E+03 -1.35538E+03  3.23232E+03 -1.23113E+04  7.68821E+03 -6.31317E+03  1.19541E+03 -2.65108E+02
  1.28310E+03  2.32672E+03 -1.13188E+03  4.51793E+03 -7.72354E+03  5.17579E+03 -7.87505E+03 -4.00733E+03
 -4.86080E+03 -1.15914E+04  2.99896E+03 -1.32476E+04  6.56074E+03 -3.33638E+03  1.08067E+04  4.54185E+03
  5.11944E+03  1.17577E+04 -1.32108E+03  8.51261E+03 -4.91885E+03  8.26110E+03 -1.05321E+04  3.17306E+03
 -7.01168E+03 -5.92383E+03 -4.20504E+03 -6.03513E+03  1.13520E+03 -5.99945E+03  1.11097E+04 -2.40803E+03
  4.80793E+03 -4.15465E+02 -4.10520E+03  3.68321E+03 -4.11024E+03  1.55877E+03  2.27272E+03  1.97815E+03
  2.58518E+03 -1.63829E+03  1.24848E+03  4.08400E+03  6.91278E+03  3.32515E+03  5.37744E+03  1.09891E+04
 -5.38686E+03  8.81878E+03 -1.00956E+04  1.31437E+04 -1.46192E+04  4.72457E+02 -8.40830E+03 -4.61559E+03
 -4.90328E+03 -8.39635E+03  1.01794E+03 -2.93795E+03  1.60568E+03 -2.24671E+03 -2.44874E+02 -2.33491E+03
  2.70107E+03 -2.06385E+03  2.51772E+03 -1.39962E+03  4.36638E+03 -4.70179E+03  3.32973E+03  4.01770E+02
  7.99894E+02  3.53275E+03 -2.47311E+03  6.30209E+03  5.03060E+02  5.29137E+03 -5.91622E+03  3.34315E+03
 -3.50545E+03 -5.49401E+03  2.13080E+03 -5.24652E+03  9.54284E+02 -7.43339E+03  3.10917E+03 -7.39592E+03
  1.76319E+03 -6.04516E+03  9.83267E+03 -2.23161E+03  5.00911E+03  5.07389E+03  3.53580E+03  4.60935E+03
 -3.01247E+03  4.80131E+03 -1.28558E+03  5.12360E+03 -3.46056E+03 -1.50281E+03 -4.00498E+03  3.29976E+03
 -1.92263E+03 -3.49504E+03 -2.25981E+03  1.25695E+03 -6.59290E+03  3.79595E+03 -5.57266E+03 -1.51241E+03
 -9.17081E+02 -3.19170E+03 -2.35797E+02 -6.78638E+03  1.04392E+03 -2.72769E+03  5.46361E+03 -2.71337E+02
  1.49283E+03  1.38771E+03  1.03726E+03  6.39697E+03 -1.36191E+03  3.27967E+03 -3.27566E+03  5.32543E+03
 -1.93553E+03 -1.81147E+03 -2.72978E+03 -8.90135E+03 -1.79997E+03 -2.91715E+03  2.46436E+03 -6.57351E+03
 -9.19496E+02  8.81619E+02  6.30993E+03  6.48494E+03  3.25043E+03 -2.99236E+03  1.23182E+03 -2.80585E+03
  4.23742E+03 -6.32716E+02  1.00043E+03 -7.72569E+02  4.46923E+02  5.09858E+03  3.58419E+03  3.41285E+03
 -4.47753E+03  6.64668E+03 -2.39167E+03  4.20307E+03 -3.52589E+03 -1.60500E+02 -7.40090E+03 -1.35244E+03
 -1.24751E+03 -6.47372E+03  2.24116E+03 -5.46213E+03 -2.82205E+03 -3.32418E+03  2.55912E+03 -1.50535E+03
  6.09669E+03  3.27597E+03 -1.26447E+03 -1.04349E+03 -7.62517E+03  4.02715E+03 -2.40947E+03 -1.57346E+03
  3.47053E+03 -8.56281E+02  2.51993E+03 -4.23968E+03  7.91059E+02  4.61085E+03  6.97681E+03 -3.38573E+02
  2.02365E+02 -2.67197E+02  1.89292E+02  4.35607E+03  1.15673E+03  3.45044E+03  4.97743E+01 -7.17783E+03
 -1.55477E+03  2.05243E+03  7.20956E+03 -1.47782E+03  1.16994E+03  3.65802E+03  1.73217E+03  4.16101E+03
 -6.84726E+03  3.37142E+03 -7.02042E+03  5.05780E+03 -2.81369E+03 -2.79855E+03 -4.86449E+03 -4.53324E+02
 -3.01175E+03  6.86281E+02  3.48343E+03  1.39526E+03 -2.42129E+02  6.53451E+02  2.69754E+03  2.37574E+03
  8.76771E+02  7.90730E+02 -2.42004E+03 -7.97018E+02 -1.20363E+03 -1.54713E+03 -5.04765E+03 -3.91778E+03
 -1.76908E+03 -3.75929E+03  5.24175E+02  3.74991E+03 -3.16211E+02 -4.10777E+03  3.13244E+03  3.17548E+03
 -5.31342E+03  1.15580E+03 -6.39612E+03  1.17099E+03  3.71460E+03 -2.71593E+03  5.57315E+03  1.01190E+02
 -6.41885E+02 -6.09255E+03  7.43065E+03  2.00965E+03  3.63409E+03  4.64990E+03 -1.58461E+03  3.43200E+03
 -4.45255E+03  7.58110E+02 -2.18409E+03  3.54867E+03 -3.94963E+02  4.07044E+02 -1.29746E+02 -1.95774E+03
  2.93598E+03 -2.96635E+03  5.44144E+03  5.67623E+03  2.64522E+03 -9.57268E+02 -1.26790E+03  3.01474E+02
  1.75177E+03  5.66310E+03  1.75339E+03  5.16201E+03 -4.26654E+03 -2.04228E+03 -1.86196E+03  3.00973E+03
  7.94795E+02  2.87375E+03 -5.13530E+03 -5.51520E+03 -3.00579E+03 -5.20467E+03 -2.53698E+03  3.44154E+03
 -2.50971E+03 -4.76537E+03  2.64996E+03 -5.49943E+03  2.62173E+03 -1.83840E+03  6.15391E+03 -7.05117E+02
  5.14823E+03 -2.01154E+03 -1.17169E+03  4.87002E+03  2.24928E+02 -7.58071E+02 -2.13373E+02 -1.87330E+03
  7.58182E+02 -1.69254E+02  1.68330E+03  1.20331E+03 -5.21691E+03  2.82928E+03  2.17380E+03  1.82372E+03
  2.32804E+03 -2.02687E+03 -3.64733E+03  1.45946E+03  1.16833E+01 -1.41877E+03 -9.55132E+02 -2.23280E+03
  5.60260E+03  1.90954E+03 -9.93472E+02  7.99510E+02  1.84130E+03  1.28154E+03  2.81908E+03  9.70008E+02
 -3.94240E+03  1.29415E+02 -6.20493E+03  8.30265E+02 -4.35555E+03 -3.65991E+03 -5.98797E+03 -3.37652E+03
  1.42911E+03 -7.71014E+02  3.19273E+03 -6.92815E+03  6.10490E+03 -2.55969E+03  6.86384E+03  6.79920E+02
 -1.14644E+02  3.58011E+03  3.12512E+03  2.43110E+02  1.77262E+03  2.62009E+03  3.34871E+03  9.10988E+02
  1.20198E+03  5.84547E+02  4.16731E+03  6.34308E+02  1.56513E+03 -1.87035E+02 -2.71960E+03  1.49547E+03
 -2.47141E+03  3.26472E+03 -1.50725E+02  8.45933E+02 -1.33741E+03 -1.21790E+03 -9.48107E+02 -5.86242E+03
  3.85328E+02  1.45310E+03 -1.68392E+03  3.92933E+01  3.34408E+02  4.74250E+03  1.94841E+03  4.37103E+03
 -1.36683E+01  4.99486E+03 -3.95346E+02  1.13561E+02 -4.60867E+03  1.24584E+03  1.91932E+03 -1.47313E+03
  1.45585E+03  2.34672E+03 -2.37801E+03 -2.07839E+03 -3.49694E+03  1.83250E+03 -3.34675E+03 -4.27072E+02
 -3.32462E+03  4.85698E+01  6.86895E+02 -4.07657E+03  3.31078E+02 -3.97704E+03  1.38225E+03 -5.79640E+02
  1.35386E+03  1.69529E+03 -9.81812E+02  4.83954E+03 -1.90544E+03 -2.56126E+03  1.48921E+03 -8.82008E+02
