 $NMID ID='MM_0lb_SNR50_16hz_g60_14.RAW', FMTDAT='(8E13.5)'
 TRAMP=1., VOLUME=1. $END
  3.08871E+05  5.83536E+02  3.39730E+05  2.48919E+05  8.27345E+04  3.38777E+05 -1.27239E+05  2.54579E+05
 -1.90314E+05  8.12934E+04 -1.10607E+05 -3.01739E+04  1.30428E+03 -5.08474E+04  5.24553E+04 -2.12136E+03
  3.34970E+04  5.34422E+04 -1.63764E+04  7.47534E+04 -6.36084E+04  6.53236E+04 -8.23887E+04  3.87703E+04
 -8.03381E+04 -1.33788E+04 -5.71634E+04 -4.83977E+04 -1.71824E+04 -6.97576E+04  2.50776E+04 -4.49258E+04
  3.87376E+04  6.93771E+03  1.72083E+04  4.95062E+04 -3.40906E+04  4.24390E+04 -6.32556E+04  6.79145E+02
 -5.60130E+04 -6.27361E+04 -1.00749E+04 -7.83179E+04  2.95338E+04 -5.56604E+04  4.52779E+04 -1.93798E+04
  4.10174E+04  1.74279E+04  3.32502E+04  2.07376E+04  1.78634E+04  3.28936E+04 -3.04963E+03  2.54867E+04
 -1.65032E+04  9.10396E+03 -2.08820E+04 -3.21971E+03  3.00465E+03 -1.85367E+03  1.61051E+04  1.20556E+04
  2.91882E+03  3.93246E+04 -3.30377E+04  3.58890E+04 -6.49878E+04  1.54829E+03 -5.56866E+04 -4.22994E+04
 -1.55165E+04 -6.47571E+04  4.29130E+04 -4.63614E+04  5.73794E+04 -1.46372E+03  3.31603E+04  3.64913E+04
 -7.24605E+03  3.21907E+04 -3.07635E+04  1.68819E+04 -3.19937E+04 -2.62911E+03 -1.86105E+04 -1.28808E+04
 -1.07220E+04 -1.21188E+04 -6.16647E+03 -2.09500E+04  6.63525E+03 -1.85672E+04  1.52178E+04 -1.24498E+04
  1.38981E+04  5.13380E+03 -1.04542E+04  1.52098E+04 -2.23477E+04 -5.00506E+03 -5.67925E+03 -3.37243E+04
  2.20248E+04 -4.57729E+04  4.82758E+04 -2.41469E+04  4.83006E+04  2.41822E+04  1.70789E+04  4.39551E+04
 -1.65326E+04  3.56766E+04 -2.64382E+04  9.03537E+02 -8.93609E+03 -2.67586E+04  2.31030E+04 -3.48735E+04
  4.88431E+04 -9.70526E+03  3.75078E+04  2.25354E+04  1.63944E+04  4.58761E+04 -8.21694E+03  4.53173E+04
 -3.28031E+04  3.55172E+04 -4.69775E+04  8.18722E+03 -4.38560E+04 -1.13942E+04 -2.34654E+04 -3.28535E+04
  7.91168E+03 -3.94916E+04  3.13071E+04 -1.27142E+04  2.60841E+04  8.92705E+03  3.53782E+03  1.64689E+04
 -1.66582E+04  1.10357E+04 -9.66667E+03 -5.71268E+03  4.56732E+03 -1.10546E+04  1.53177E+04  7.31308E+03
  1.42093E+04  2.39622E+04 -6.70949E+03  2.65185E+04 -2.44129E+04  1.38715E+04 -3.31274E+04 -5.28348E+03
 -1.74525E+04 -2.02621E+04 -6.03692E+03 -2.09634E+04  5.85068E+03 -1.40914E+04  1.83286E+04 -1.64048E+04
  2.37966E+04 -1.32115E+04  3.52304E+04  4.53659E+03  2.21751E+04  1.87039E+04  6.91699E+01  3.35923E+04
 -2.12669E+04  2.92787E+04 -3.38846E+04  1.15673E+04 -2.25359E+04 -1.07657E+04 -5.72839E+03 -1.40027E+04
 -1.87276E+03 -2.58078E+03 -3.89260E+03  9.02413E+03 -1.53090E+04  6.73804E+03 -1.68321E+04 -1.17991E+04
 -1.31223E+04 -1.88701E+04  4.07954E+03 -2.31328E+04  1.18502E+04 -1.25813E+04  1.49566E+04  1.24240E+03
  1.06457E+04  1.40125E+04 -1.09410E+01  1.81415E+04 -1.07948E+04  1.05915E+04 -1.75018E+04 -5.09687E+03
 -1.57567E+04 -1.63431E+04 -4.09265E+03 -2.04239E+04  1.26481E+04 -1.66207E+04  1.95769E+04 -1.13794E+04
  1.71457E+04  1.25667E+03  1.20387E+04  3.89832E+03  8.43735E+03 -6.91153E+02  8.44227E+03 -3.59136E+03
  1.07537E+04  9.20507E+02  2.33789E+04  1.48624E+04  1.44022E+04  2.56979E+04 -4.21468E+03  3.77502E+04
 -1.72525E+04  2.85881E+04 -3.10622E+04  1.33895E+04 -3.60536E+04 -1.89572E+03 -2.65617E+04 -1.62243E+04
 -1.35352E+04 -2.42791E+04  3.57100E+03 -2.44452E+04  2.41292E+04 -1.32442E+04  1.75820E+04  2.81803E+03
  4.66035E+03  1.73350E+04 -8.95737E+03  1.26690E+04 -1.80614E+04  2.68292E+03 -1.69153E+04 -8.02004E+03
 -2.10527E+03 -1.52966E+04  3.06288E+03 -1.22389E+04  8.83685E+03 -1.15806E+03  2.72726E+03  6.33654E+03
 -8.71285E+03  6.16340E+03 -8.33324E+03 -3.26005E+03  2.89480E+03 -1.41540E+04  4.85415E+03 -1.25904E+04
  1.56361E+04 -6.70847E+03  2.05249E+04  6.93776E+02  1.44436E+04  1.04867E+04  7.54013E+03  2.09638E+04
 -4.74458E+03  1.97460E+04 -1.26647E+04  9.92748E+03 -1.45388E+04  3.77549E+02 -1.08133E+04 -2.02907E+03
 -6.56688E+03  1.11348E+03  2.58908E+03  1.03160E+03  7.64328E+02  2.17760E+03 -1.50849E+03 -2.04332E+03
 -1.18899E+04 -2.78526E+03 -7.57605E+03 -8.27137E+03 -4.06527E+03 -1.34410E+04  9.31258E+03 -6.85769E+03
  7.25729E+03 -3.67217E+03  9.68095E+03  3.89960E+03  8.81763E+02  6.62561E+03 -3.60992E+03 -3.15626E+03
 -5.52809E+03 -5.25574E+03  1.07218E+03 -1.20939E+04  5.15210E+03 -1.02711E+04  8.60860E+03 -3.42166E+03
  1.22596E+04  3.45949E+03  6.48766E+03  1.02972E+04  4.96578E+03  1.41296E+04 -5.76074E+03  9.75027E+03
 -7.90668E+03  7.16941E+03 -5.99348E+02 -1.25343E+03  1.73111E+03 -4.16318E+03  8.03170E+03 -4.08211E+03
  3.63385E+03  5.72465E+03 -2.44766E+03  8.68683E+03 -6.69624E+03  8.87198E+03 -1.30847E+04 -1.04304E+03
 -8.47852E+03 -1.90327E+03  5.75612E+03 -4.71346E+03  6.50263E+03 -5.86124E+03  7.38428E+03 -2.10612E+03
  4.71318E+03  8.30091E+03 -7.31541E+03  7.55595E+03 -7.82191E+03  7.45941E+03 -8.45334E+03 -2.72905E+03
 -4.85433E+03 -1.02167E+04  3.74797E+03 -9.58540E+03  6.19723E+03 -3.32921E+03  8.68501E+03  1.22613E+03
  3.85165E+03  7.78769E+03 -2.82279E+03  1.04008E+04 -8.40042E+03  6.97955E+03 -4.32119E+03 -4.22474E+02
 -8.20280E+03  2.43920E+02 -8.85527E+03 -7.17988E+03  7.78793E+02 -8.46642E+03  1.57434E+03 -6.76245E+03
 -1.39496E+03 -3.16882E+03  3.03348E+03 -8.74118E+02 -4.52182E+02 -3.60337E+03 -1.22482E+03 -4.62345E+02
  7.26653E+03 -4.88896E+02  1.18913E+04 -1.30967E+03  8.93563E+03  6.26149E+03  8.02528E+03  1.00669E+04
  1.65288E+03  1.62810E+04 -9.72976E+03  1.14163E+04 -1.59823E+04  3.06864E+03 -1.35405E+04 -6.97688E+02
 -5.66305E+03 -7.25829E+03 -9.23529E+02 -9.27222E+03  3.13388E+03 -4.05233E+03  6.98871E+03 -5.01092E+03
 -1.10508E+03 -5.68407E+03  6.22366E+03 -6.78688E+03  4.18719E+03 -1.36437E+03  8.87039E+03  1.85955E+03
  3.49720E+03  3.47816E+03  1.27378E+03  5.97780E+03  2.39884E+03  5.75125E+03 -1.27530E+03  3.92303E+02
 -7.32597E+03 -3.24833E+03 -2.79473E+03 -1.47659E+03 -5.83531E+03 -9.04214E+03  1.76812E+03 -1.14666E+04
  7.81493E+03 -5.49938E+03  1.13011E+04 -5.50967E+02  9.29518E+03  7.47490E+03  2.18440E+02  1.08920E+04
 -4.80483E+03  7.40488E+03 -4.63861E+03 -3.18703E+02 -7.73849E+03 -4.43109E+02  2.15569E+03  3.01561E+03
  3.39610E+03  2.45644E+03 -1.91320E+03  2.17851E+03 -3.73840E+03  4.69474E+03 -3.92522E+03 -1.90856E+03
 -2.18894E+03 -9.57724E+03  1.06464E+03 -6.57686E+03  5.47814E+03 -2.52324E+03  5.53550E+03 -2.61901E+03
  9.40915E+03  3.79103E+03  5.70358E+03  2.69481E+03 -2.69344E+03  9.30223E+03 -1.47132E+03  4.23677E+03
 -1.66611E+03 -8.03918E+02 -4.47271E+03 -4.36939E+03  8.77815E+02 -3.22067E+03  6.08028E+02 -3.78499E+03
  1.42579E+03  3.81716E+02 -2.90713E+03 -1.42983E+03  6.44223E+03  3.30227E+03  1.84747E+03  1.47186E+03
  6.46003E+03  9.94066E+02  1.26778E+03  3.30748E+03 -3.79735E+02  3.82126E+03  5.88748E+03  3.05154E+03
 -8.31379E+02 -3.87640E+03 -4.78557E+03  3.41840E+03 -5.16251E+03 -2.14953E+03 -6.06803E+03 -1.76819E+03
 -2.59683E+03 -5.41077E+03 -4.09330E+03 -5.17514E+03  6.30910E+02 -2.58968E+03  2.75499E+03 -3.16076E+03
  3.96913E+03  5.40873E+03  3.82621E+03  2.34516E+03 -2.09549E+03  1.73312E+03 -3.98979E+03  1.96382E+03
 -3.99468E+03 -1.27902E+03 -2.46436E+03 -9.83371E+02  3.35418E+03 -4.00620E+03  2.70149E+03  3.51062E+02
  1.51136E+03  1.47218E+03  2.79012E+03  4.70614E+02  5.65599E+02  2.34602E+03  6.97731E+03 -2.18799E+03
 -1.58961E+03  4.17470E+03  4.18854E+03  1.71072E+03  7.61293E+02  4.33457E+03 -7.59525E+02  5.37934E+03
  2.55165E+03  2.72403E+03 -4.73777E+03 -2.57816E+03 -1.02508E+03  2.18797E+03 -7.88317E+02 -2.78129E+03
  5.43460E+03 -1.21906E+03  5.40468E+03  7.25178E+02 -7.82845E+02 -1.49025E+02  5.30278E+03  1.94075E+03
 -5.41883E+03  3.43581E+03 -4.05808E+03 -4.63941E+02  4.68795E+03 -1.44457E+03 -3.73092E+03 -4.27764E+03
  4.72150E+01  1.61565E+03  3.12970E+03 -1.28916E+03  5.45926E+02  1.02737E+03  1.78745E+03  2.35766E+03
 -3.98301E+03  1.26195E+03 -2.48509E+03 -3.72319E+03  1.71465E+03  1.58443E+02  1.13063E+03  1.40171E+03
  6.52779E+03  2.14387E+03  3.60551E+03 -5.75938E+01  2.35638E+03  3.25671E+03 -4.70707E+02  3.91983E+03
 -2.13484E+03  1.14883E+03 -2.80122E+03  3.59549E+02 -1.27990E+03  9.82308E+02 -1.27790E+03  2.59826E+03
  4.09298E+03 -3.99510E+03  9.33839E+02 -3.88023E+02 -2.45779E+03  7.16587E+03 -2.85719E+03  1.07725E+03
 -3.06545E+03  2.46933E+03 -1.48216E+03  1.96468E+03  1.06696E+02  2.62990E+03 -2.76187E+03  1.14735E+03
  2.63929E+03  2.81495E+03 -5.32128E+03 -2.19623E+03 -2.90843E+03 -4.89879E+02 -6.80359E+03  8.70944E+02
  5.32012E+02 -6.71940E+03 -5.44736E+02 -3.92486E+03 -1.66997E+03 -6.01450E+03  5.68413E+03 -7.75168E+03
  5.86799E+03 -1.08171E+03  5.83253E+03  3.42579E+03 -2.35986E+03 -6.57137E+02 -1.28345E+03 -4.51233E+03
 -2.33864E+03 -2.75293E+03 -2.04341E+03 -3.63202E+03 -7.71577E+02 -5.65919E+02  3.95747E+02 -2.32177E+03
 -1.37108E+03  1.35056E+03  4.07182E+02  1.82962E+03  1.44212E+03 -4.13590E+03 -5.51620E+03 -3.14280E+03
 -6.83561E+02 -7.68773E+02  2.18693E+03  1.47041E+03 -1.75268E+03  1.84022E+03 -1.11056E+03  1.31791E+03
 -3.42306E+02  4.37010E+03 -2.02999E+03  2.36744E+03 -1.96703E+03 -2.54384E+03  5.82950E+02 -1.30656E+03
 -9.15999E+02 -2.19210E+03  1.68296E+03  7.51068E+02 -1.39098E+03 -3.03888E+03 -1.83514E+02  2.86856E+03
 -7.35649E+02 -1.51274E+02  2.96730E+03  1.21507E+03 -2.73447E+03 -1.63014E+03 -1.98122E+03  4.80090E+03
  1.37460E+03 -2.28505E+03  2.66745E+03  8.52523E+03  7.31557E+02  8.41636E+03 -3.39193E+03  4.65711E+03
 -2.72794E+03  2.52091E+03 -2.15946E+03  1.02451E+03 -1.40828E+03 -2.36447E+03  6.02920E+03  3.38678E+02
  1.88251E+03  1.43502E+03  4.09031E+03  1.89210E+03  4.88872E+03 -4.65318E+03  1.86171E+03 -1.59300E+02
 -6.69016E+03  2.32591E+03 -1.70726E+02  9.30955E+02 -3.61462E+03  2.41825E+03  1.73416E+03 -6.48686E+02
 -1.20983E+03 -1.63900E+03 -4.29496E+03 -4.11808E+03 -4.90898E+03 -1.63253E+03 -2.67600E+02 -2.30884E+03
 -2.57227E+02  6.15050E+02 -8.30469E+02 -4.02736E+02  8.05968E+02 -2.51731E+03 -7.32593E+02 -8.71708E+02
 -1.49388E+03  6.61216E+03 -2.82728E+03  3.50937E+03  3.08257E+03 -2.18513E+03  7.18507E+02 -3.74329E+02
