 $NMID ID='MM_0lb_SNR50_15hz_g40_51.RAW', FMTDAT='(8E13.5)'
 TRAMP=1., VOLUME=1. $END
  3.10372E+05 -1.51338E+03  3.40677E+05  2.50435E+05  7.96939E+04  3.36035E+05 -1.33517E+05  2.51218E+05
 -1.91457E+05  8.20053E+04 -1.06314E+05 -3.41165E+04  3.94769E+03 -5.43201E+04  5.27623E+04  5.55489E+02
  3.60498E+04  4.93130E+04 -1.40197E+04  7.56878E+04 -5.90702E+04  6.34527E+04 -8.53397E+04  3.08511E+04
 -8.21470E+04 -1.22440E+04 -5.76314E+04 -4.43099E+04 -1.84497E+04 -6.74134E+04  3.11086E+04 -4.66819E+04
  4.28724E+04  5.35659E+03  1.37992E+04  4.48886E+04 -3.61482E+04  4.10234E+04 -7.00975E+04  2.31498E+03
 -5.36896E+04 -5.16867E+04 -1.04059E+04 -7.40850E+04  3.28537E+04 -5.33717E+04  4.73190E+04 -1.62958E+04
  4.65710E+04  1.21636E+04  2.92860E+04  2.71415E+04  1.53234E+04  2.62744E+04 -9.47413E+03  2.61268E+04
 -2.56851E+04  7.35261E+03 -1.81144E+04 -2.00439E+03  1.33533E+03 -5.63887E+03  2.46039E+04  9.94916E+03
  7.41157E+03  3.55354E+04 -3.25241E+04  3.24867E+04 -6.27854E+04 -7.11048E+02 -5.76630E+04 -4.49132E+04
 -1.23289E+04 -6.57056E+04  3.54134E+04 -4.50733E+04  5.84327E+04 -2.86281E+03  3.43676E+04  3.46361E+04
 -6.54827E+03  3.40734E+04 -2.98660E+04  1.22782E+04 -2.87698E+04 -2.56661E+03 -2.09862E+04 -1.22030E+04
 -1.26074E+04 -1.19181E+04 -1.69830E+03 -1.57197E+04  7.71963E+03 -2.60331E+04  1.57145E+04 -9.37662E+03
  1.50883E+04  7.69178E+03 -7.53563E+03  1.21290E+04 -1.60130E+04 -2.45521E+03 -9.84121E+03 -2.61387E+04
  1.77314E+04 -3.76187E+04  5.17123E+04 -2.04393E+04  4.01522E+04  1.94462E+04  1.83621E+04  4.09952E+04
 -1.51370E+04  3.65294E+04 -2.27961E+04  4.36981E+02 -8.13381E+03 -3.01825E+04  2.42834E+04 -3.29128E+04
  4.29491E+04 -7.11576E+03  3.09973E+04  2.31955E+04  1.78814E+04  4.60931E+04 -1.00827E+04  4.85996E+04
 -3.14234E+04  2.89429E+04 -3.77931E+04  9.12650E+03 -3.93791E+04 -9.35478E+03 -2.09991E+04 -4.03204E+04
  9.59068E+03 -3.40512E+04  2.93993E+04 -1.45316E+04  2.61278E+04  1.42298E+04  4.67824E+02  1.94502E+04
 -1.35746E+04  8.76813E+03 -9.22783E+03 -9.74581E+03  6.43554E+03 -8.83404E+03  1.75359E+04  1.81876E+03
  1.44579E+04  1.90384E+04 -1.05478E+04  2.47390E+04 -2.21159E+04  1.11630E+04 -2.52004E+04 -2.12807E+03
 -2.06881E+04 -1.41372E+04 -1.03507E+04 -2.35985E+04  6.12908E+03 -1.55002E+04  2.09979E+04 -1.82412E+04
  2.53319E+04 -1.14392E+04  2.60734E+04  9.90319E+02  2.31121E+04  1.59405E+04  9.34558E+02  3.49051E+04
 -2.14109E+04  3.13483E+04 -3.17623E+04  8.05169E+03 -2.05869E+04 -7.14985E+03 -5.10852E+03 -1.42264E+04
  2.03663E+03 -3.96250E+03 -4.46817E+03 -4.34447E+03 -1.54578E+04  2.78089E+03 -1.89119E+04 -9.02283E+03
 -6.23148E+03 -1.25879E+04  7.73192E+03 -2.07099E+04  1.51848E+04 -1.54918E+04  1.33947E+04  1.36078E+03
  1.06562E+04  1.36442E+04 -1.93120E+03  1.66074E+04 -1.22986E+04  1.08222E+04 -2.04170E+04 -6.42622E+03
 -1.07510E+04 -1.85710E+04 -2.86873E+03 -2.51373E+04  1.44996E+04 -2.16480E+04  2.05169E+04 -1.19292E+04
  1.60986E+04  4.49489E+03  1.38001E+04  2.21752E+03  6.83466E+03  5.67168E+02  1.10741E+04 -7.62739E+01
  1.57641E+04  1.52313E+03  2.00811E+04  1.38820E+04  1.17031E+04  2.96936E+04 -5.07664E+03  3.90208E+04
 -1.80050E+04  2.90215E+04 -2.70853E+04  1.30451E+04 -2.72553E+04 -7.28465E+03 -2.17601E+04 -1.64421E+04
 -1.26473E+04 -2.70438E+04  1.09666E+04 -2.26804E+04  1.76752E+04 -9.04431E+03  1.74740E+04  1.78913E+03
  4.03687E+03  1.13666E+04 -1.15994E+04  1.25985E+04 -1.38053E+04  5.12244E+03 -1.31331E+04 -1.02101E+04
 -2.08830E+03 -1.02462E+04  4.72374E+03 -9.74642E+03  1.07017E+04 -4.50985E+03  5.35666E+03  4.17783E+03
 -6.19367E+03  1.06291E+03 -4.46918E+03 -5.02592E+03  3.63199E+02 -1.02063E+04  1.06467E+04 -1.39249E+04
  1.41543E+04 -1.65514E+03  1.00189E+04 -3.63955E+02  1.60145E+04  6.35950E+03  7.60470E+03  2.05463E+04
 -2.49392E+03  2.23531E+04 -8.08218E+03  1.36319E+04 -1.44200E+04  8.05664E+03 -1.10690E+04 -2.24893E+03
 -3.87575E+03 -2.35638E+03  1.23531E+03 -5.49225E+02 -3.96939E+02 -1.23147E+03 -5.81646E+03  3.36968E+03
 -6.59486E+03 -4.38109E+03 -1.30774E+04 -2.96361E+03 -3.32571E+03 -1.29519E+04  8.71131E+03 -6.26929E+03
  8.12858E+03 -9.85577E+03  5.07935E+03 -2.53475E+03  1.11911E+03  5.39833E+03 -7.45210E+03  4.87287E+03
 -7.86501E+03 -5.28950E+03 -4.29135E+03 -1.17125E+04  2.29563E+03 -8.01557E+03  8.78177E+03 -8.19347E+03
  1.56968E+04  6.69746E+03  1.10086E+04  3.00010E+03 -1.50180E+03  8.97082E+03 -2.88814E+03  1.29668E+04
 -8.69828E+03  6.81991E+03 -2.46782E+03 -6.11515E+03  2.80501E+03  3.25567E+03  1.16811E+04 -4.99526E+03
  4.64526E+03  2.46540E+03  3.73617E+03  1.32261E+04 -9.83254E+03  1.10438E+04 -6.61071E+03  2.84151E+03
 -8.03364E+03 -5.46621E+03  3.50913E+03 -5.82255E+03  1.01500E+04 -3.79016E+03  5.15314E+03  9.20181E+01
  6.23133E+03  4.07273E+03 -7.08512E+03  2.31956E+03 -3.97620E+03  7.42356E+03 -6.45196E+03 -4.03001E+03
 -3.04941E+02 -1.35688E+04  3.38790E+03 -1.23829E+04  6.01888E+03 -1.06674E+04  1.09700E+04  2.33789E+03
  7.50036E+03  3.08219E+03 -1.19930E+03  1.32156E+04 -9.78255E+03  4.33813E+03 -8.13185E+03 -2.63766E+03
 -4.53052E+03 -8.46419E+03  1.53930E+03 -8.57159E+03  3.07952E+03 -4.57944E+03  5.06962E+03 -4.87477E+03
  2.47946E+03  3.77616E+03  2.45830E+01 -3.02272E+02 -3.36387E+02  4.77864E+03 -4.79577E+01 -3.31700E+03
  7.50357E+03 -4.43794E+03  7.32462E+03  2.00414E+03  6.54249E+03  4.06638E+03  1.50225E+03  1.15860E+04
 -4.53098E+03  6.14967E+03 -1.10427E+04  9.40512E+03 -1.01959E+04  1.90068E+03 -1.30532E+04 -5.33679E+03
 -7.52537E+03 -1.23610E+04  2.05250E+03 -3.84401E+03  1.61817E+03 -3.08571E+03  1.70984E+03 -2.82026E+03
 -1.24509E+03 -2.94510E+03  1.70058E+03 -1.90202E+03  3.37153E+03  4.00821E+02  1.64758E+03  1.93682E+03
  1.01828E+04  3.50761E+03  3.19040E+03  5.19509E+03 -3.45336E+03  7.68018E+03 -5.46119E+03  1.88456E+03
 -9.34031E+03 -2.44618E+01 -2.62285E+03 -5.21978E+03 -1.19371E+03 -7.12388E+03  8.24784E+03 -1.26981E+04
  8.63735E+03 -7.18633E+03  1.05003E+04  1.98112E+03  1.00678E+04  4.89618E+03 -2.66253E+03  8.86410E+03
 -3.01628E+03  1.22688E+03 -3.90612E+03  3.51158E+03 -2.93559E+02  2.02536E+03 -3.12188E+03  3.93997E+03
 -2.62500E+03  1.10108E+03  3.58418E+03 -9.20761E+01  2.43743E+03 -1.13250E+03 -1.05262E+04 -1.29851E+03
 -3.13731E+03 -6.53448E+03 -3.71430E+02 -8.96472E+03  3.26132E+03 -4.76560E+03  8.95984E+03 -1.99739E+03
  1.14100E+04  5.71879E+02  1.49668E+03  7.93446E+03 -2.12358E+03  7.48325E+03 -5.40703E+03  4.60361E+03
 -2.43965E+03 -4.41759E+03 -5.21115E+02 -2.53919E+03 -4.74036E+02 -8.51992E+03  2.76511E+03 -8.43724E+03
  3.04354E+03 -5.39348E+02 -2.29313E+03  1.84077E+03 -1.29458E+03  4.12810E+03  2.67034E+03 -1.88834E+03
  2.94253E+03  2.10374E+03  3.17404E+03  1.40290E+03 -3.49974E+03  2.62791E+02  4.62426E+03 -2.62204E+03
 -2.29641E+03  1.46555E+03 -5.38433E+03  7.89180E+03 -6.02766E+03  4.21720E+03 -1.76003E+03 -3.58825E+03
 -4.99249E+03 -8.79893E+03 -1.34101E+03 -4.64253E+03  1.86907E+03 -1.63533E+03  3.05703E+03 -5.07961E+03
  6.92725E+03  1.41255E+03  3.10257E+03  4.39737E+03 -8.56079E+00  2.69029E+03 -2.46135E+03 -2.45165E+03
  3.46803E+02 -4.38418E+03  2.24576E+03 -5.93322E+03  5.76856E+03 -8.32255E+02  2.26372E+03  5.21684E+03
 -1.89383E+03 -2.61065E+03 -6.03090E+02 -4.20827E+03  3.48947E+03  1.70315E+03  3.03295E+02 -1.48248E+02
  3.40820E+03 -3.39346E+03  9.86722E+02 -2.49861E+03  6.19269E+02  4.16243E+03 -3.58299E+02  7.90782E+03
 -4.81177E+03  1.48637E+03 -5.13521E+02 -3.53628E+03 -7.51275E+02  6.33701E+02  6.02953E+02 -1.52497E+03
  3.05746E+03 -9.49699E+02 -2.32928E+03 -1.93169E+02 -3.13569E+02  2.89247E+03 -3.22281E+03  5.60859E+03
 -2.73182E+03  5.36840E+03  8.11308E+02 -1.62907E+03  6.47022E+02  1.35014E+03 -2.73463E+03 -2.31247E+03
  3.72655E+03 -3.94214E+02  1.86819E+03  3.76807E+03  1.02707E+03 -4.42815E+03 -6.13131E+02  1.95167E+03
  3.76261E+03 -2.38483E+03  1.97388E+03 -2.29145E+03  7.69044E+02  1.33050E+03  3.48429E+03 -3.49458E+03
  4.88908E+03  1.69307E+03  3.31023E+03 -1.46706E+03 -3.48888E+03  6.71297E+03  2.28431E+03  2.00719E+03
 -4.70151E+03 -2.28237E+03 -1.61297E+03 -2.61698E+03 -4.04528E+03 -3.09756E+03 -2.50340E+03  1.57396E+03
 -1.44005E+03 -1.32771E+03  4.86806E+03 -6.91885E+02 -9.79289E+02  8.47819E+02  4.65938E+03 -2.67280E+02
  1.35455E+03  1.24071E+03  1.30778E+03  4.64120E+03  9.36690E+02  1.28346E+03 -2.21669E+03 -4.37689E+02
 -3.67854E+03  3.90299E+03 -5.97270E+03  3.16590E+03 -2.19424E+03  1.28531E+03 -5.01432E+03 -4.61543E+03
 -1.14974E+03 -3.35458E+03 -9.58049E+02 -4.42697E+03  5.28583E+03 -2.10244E+03  3.85384E+03 -2.97816E+03
  4.11502E+03 -2.21040E+03  7.52178E+03  6.06466E+03  1.55100E+03  2.53116E+03 -2.31509E+03  3.50347E+03
  2.31167E+02  3.24983E+03 -2.96133E+02 -1.24977E+03  2.83910E+03 -7.47256E+02 -8.98687E+02 -4.84512E+02
 -1.41045E+03 -1.17945E+03 -8.83373E+01 -2.53163E+02  8.75678E+02  2.20767E+03 -5.64026E+02  4.48679E+02
  8.54433E+03  3.14791E+03 -1.93146E+03 -5.31373E+03  2.58155E+03  7.33590E+03  2.55463E+03  2.57533E+03
  3.97644E+03  7.47539E+03 -1.91521E+03  9.11111E+03 -3.26864E+03  1.05567E+03 -6.55981E+03 -2.67334E+03
 -3.04515E+03 -2.48105E+03 -3.46935E+03  1.39366E+03 -8.62486E+02 -1.34301E+03 -6.80432E+02  2.71137E+02
  5.42411E+03 -2.97103E+03  3.72801E+03  2.81851E+03 -8.12453E+02 -6.02043E+02 -2.52562E+03 -9.68937E+02
  7.26052E+03 -3.57277E+03 -4.01618E+03  3.35062E+03 -2.56829E+03 -2.39816E+02 -3.97058E+03  4.91336E+03
 -2.91850E+03 -2.53642E+03  1.70157E+03 -4.67498E+03 -3.13115E+03 -1.14165E+03  9.56223E+02 -3.09455E+03
  1.03743E+03  3.45275E+03  6.92569E+03 -8.22793E+03  3.33412E+02 -8.29448E+02  1.10503E+03 -2.87110E+03
 -5.06902E+00  2.71912E+03 -2.68839E+03 -6.35560E+02 -4.69528E+03  2.23363E+03 -1.12957E+03 -5.40813E+02
  1.25519E+02  9.84142E+02 -2.00568E+03  2.07705E+02 -2.20010E+03 -1.03629E+03  1.81408E+03  1.97304E+03
  1.03097E+03  9.54354E+02  2.72303E+03 -4.57321E+03  4.98358E+03 -2.66106E+03  5.57732E+02 -3.70680E+02
 -6.77900E+02 -4.97307E+03 -3.82397E+03  2.83857E+02  6.53484E+02  4.22690E+03 -4.37573E+03 -1.21240E+03
