 $NMID ID='MM_0lb_SNR50_16hz_g60_54.RAW', FMTDAT='(8E13.5)'
 TRAMP=1., VOLUME=1. $END
  3.10014E+05  4.93468E+03  3.39437E+05  2.51457E+05  8.31342E+04  3.38259E+05 -1.34019E+05  2.51851E+05
 -1.87242E+05  8.32686E+04 -1.10512E+05 -3.33623E+04  1.51168E+03 -4.56470E+04  5.70734E+04 -2.75692E+03
  3.16932E+04  5.05020E+04 -1.13591E+04  6.75055E+04 -5.73787E+04  5.65952E+04 -8.18809E+04  3.03533E+04
 -8.04077E+04 -1.39432E+04 -5.39377E+04 -5.13814E+04 -1.43410E+04 -7.14615E+04  2.80755E+04 -4.51127E+04
  4.06541E+04  4.15456E+03  1.30177E+04  4.62819E+04 -3.23405E+04  5.20186E+04 -7.15356E+04 -5.53101E+03
 -5.41948E+04 -5.62577E+04 -6.22376E+03 -8.20269E+04  3.11473E+04 -5.23734E+04  4.54032E+04 -1.44888E+04
  4.22505E+04  1.21904E+04  2.85853E+04  2.87155E+04  2.19931E+04  2.69420E+04 -7.13012E+03  2.72899E+04
 -2.06699E+04  1.28975E+04 -1.38280E+04 -7.28359E+03  4.84734E+03 -4.03743E+03  1.85635E+04  1.14507E+04
  1.07832E+04  3.58928E+04 -3.46415E+04  2.85358E+04 -6.25133E+04  7.41865E+03 -5.76317E+04 -3.79138E+04
 -9.41621E+03 -6.76856E+04  4.23348E+04 -4.40222E+04  5.58590E+04 -5.21665E+02  3.51760E+04  3.55906E+04
 -6.65331E+03  3.42250E+04 -3.15354E+04  2.02115E+04 -3.45046E+04  2.14777E+02 -1.52699E+04 -1.10584E+04
 -1.09457E+04 -1.70162E+04  1.26411E+03 -1.62494E+04  5.15492E+03 -2.54317E+04  1.68799E+04 -1.18566E+04
  1.21635E+04  6.69288E+03 -8.75938E+03  1.25357E+04 -2.46743E+04 -5.74430E+03 -7.79476E+03 -3.43613E+04
  2.00157E+04 -3.79145E+04  4.76889E+04 -1.90957E+04  4.55754E+04  1.69435E+04  1.09757E+04  4.81166E+04
 -1.22395E+04  3.28510E+04 -2.43109E+04  1.50398E+03 -1.53684E+04 -2.84485E+04  2.38872E+04 -3.49739E+04
  3.80961E+04 -7.38160E+03  3.54569E+04  2.47201E+04  1.39213E+04  4.65473E+04 -5.62090E+03  5.20777E+04
 -3.26236E+04  3.57088E+04 -4.59776E+04  9.86875E+03 -4.44493E+04 -1.89748E+04 -2.15317E+04 -3.86236E+04
  1.07124E+04 -3.90296E+04  3.16341E+04 -1.56681E+04  2.91226E+04  8.41614E+03 -1.21608E+02  2.18481E+04
 -1.60349E+04  7.29102E+03 -1.06393E+04 -6.77949E+03  7.23484E+03 -9.99959E+03  1.50868E+04  4.88453E+03
  1.29215E+04  1.74104E+04 -6.29275E+03  2.24877E+04 -1.92193E+04  1.23338E+04 -3.02011E+04 -6.18234E+03
 -2.06280E+04 -1.45763E+04 -9.03085E+03 -1.89994E+04  4.67981E+02 -1.95516E+04  1.83163E+04 -1.10037E+04
  2.74903E+04 -1.28416E+04  3.63291E+04  2.97995E+03  2.33390E+04  2.18345E+04  1.03538E+02  3.31277E+04
 -2.07129E+04  3.31099E+04 -3.00530E+04  1.12028E+04 -2.28465E+04 -8.97349E+03 -7.26791E+03 -1.13195E+04
  2.11899E+03 -1.33084E+03 -1.00906E+04  4.54161E+03 -1.40804E+04  9.01615E+03 -1.59359E+04 -5.91134E+03
 -9.88151E+03 -1.75284E+04  5.22513E+03 -2.36172E+04  1.98046E+04 -1.48013E+04  1.61108E+04 -1.38993E+03
  1.24883E+04  1.12958E+04  2.46020E+03  2.02643E+04 -1.16359E+04  1.40052E+04 -1.43239E+04 -3.10037E+03
 -1.46311E+04 -1.94687E+04 -3.12985E+03 -2.00745E+04  1.00545E+04 -2.14791E+04  1.77106E+04 -6.68824E+03
  1.99921E+04  7.22385E+02  1.23842E+04  3.89225E+03  5.56132E+03  1.39011E+02  1.09758E+04 -4.67469E+03
  1.85736E+04  9.84068E+02  1.91687E+04  1.20600E+04  9.80029E+03  2.97362E+04 -8.89960E+03  3.48921E+04
 -1.86159E+04  2.57959E+04 -2.60009E+04  1.44435E+04 -3.02752E+04 -4.92736E+03 -2.17215E+04 -1.77906E+04
 -9.84072E+03 -2.24193E+04  9.73821E+03 -2.03318E+04  1.89296E+04 -1.20421E+04  1.67905E+04  2.64209E+03
  6.28283E+03  1.01838E+04 -6.38716E+03  1.45096E+04 -1.61984E+04  1.25632E+03 -1.12965E+04 -1.27829E+04
 -7.15262E+02 -1.71066E+04  1.03233E+04 -9.13083E+03  7.21038E+03  3.04033E+02  7.70185E+02  8.36652E+02
 -3.37888E+03 -2.28418E+03 -2.11672E+03 -3.92968E+03  1.30385E+03 -1.20044E+04  7.57697E+03 -1.31734E+04
  1.62484E+04 -1.39547E+04  1.73620E+04  4.28265E+03  1.53775E+04  9.45007E+03  6.43751E+03  2.06410E+04
 -3.11292E+03  2.30843E+04 -1.55070E+04  9.99332E+03 -1.91027E+04  4.52309E+03 -1.14783E+04 -1.63389E+03
 -7.10703E+03 -6.04513E+03  4.59066E+03  5.50704E+03 -1.69079E+03  2.43438E+03 -1.08837E+04  2.73891E+03
 -9.63215E+03  8.88252E+02 -1.40607E+04 -1.10179E+04  7.08799E+02 -1.24270E+04  3.28201E+03 -8.33981E+03
  7.86940E+03  6.60805E+01  5.56192E+03  5.29426E+03 -6.64483E+01  3.39935E+03 -8.13516E+03 -1.08173E+03
 -5.77673E+03 -4.16552E+03 -4.18898E+03 -8.28585E+03  1.30645E+03 -1.19519E+04  1.32332E+04 -1.53512E+03
  1.82366E+04  5.48696E+02  1.00908E+04  7.65888E+03  2.37241E+03  7.55190E+03 -5.58340E+03  7.82374E+03
 -1.09067E+04  5.95629E+03 -6.17792E+03 -3.62573E+03 -1.31078E+03  4.50570E+02  6.43900E+03 -1.19214E+03
  1.01178E+04  2.23180E+03  6.70554E+03  1.36507E+04 -9.37836E+03  9.42317E+03 -9.17810E+03 -3.95852E+02
 -3.16526E+03 -5.66245E+03  2.36325E+03 -9.16753E+03  3.78960E+03 -4.91943E+03  6.46872E+03  9.18803E+03
  2.49122E+02  2.82647E+03 -8.29291E+03  8.33638E+03 -9.62317E+03  7.35337E+03 -1.10110E+04  1.84503E+02
 -4.85509E+03 -2.17219E+03  1.74748E+03 -7.03748E+03  6.66893E+03 -8.90833E+03  1.37930E+04  4.79265E+03
  2.90110E+03  6.56648E+03 -1.84855E+03  6.20260E+03 -7.83381E+03  4.76258E+03 -6.32529E+03 -3.33635E+03
 -6.27017E+03 -1.78227E+03 -2.89192E+03 -1.09795E+04 -7.30958E+02 -7.55691E+03  4.28954E+03 -3.13341E+03
  3.53711E+03 -1.84700E+03 -1.46976E+03  8.55738E+03  2.60935E+03  6.79619E+02 -4.20374E+03 -2.15287E+03
  8.83237E+03 -2.17830E+03  7.30641E+03  3.66998E+03  6.87767E+03  6.08471E+03  9.84996E+03  1.12228E+04
  1.31166E+03  1.55136E+04 -1.18022E+04  8.72892E+03 -1.43616E+04  3.12680E+03 -7.89447E+03 -2.33478E+03
 -2.41299E+03 -7.79065E+03 -4.93657E+03 -1.04686E+04  3.62418E+03 -2.47582E+03  6.42090E+03 -1.02078E+03
 -1.00522E+03 -5.12084E+03  4.15115E+03 -1.72409E+02  1.05282E+04 -3.52767E+03  6.46921E+03 -1.20333E+03
  9.85658E+01  3.82416E+03  3.30334E+03  6.49139E+03  4.90230E+02  2.93862E+03 -4.35436E+03  6.07431E+03
 -7.40784E+03 -2.71307E+03 -4.11206E+03 -7.14488E+03 -4.97296E+03 -1.07309E+04  5.90812E+03 -7.62488E+03
  4.86865E+03 -1.00081E+04  7.71467E+03  6.54835E+03  8.94295E+03  5.09993E+03  3.92115E+03  1.28539E+04
 -3.08843E+03  1.01636E+04 -6.69095E+03  2.10557E+03 -4.25129E+03  5.54032E+02  2.11333E+03 -5.58332E+03
 -1.02555E+03 -9.15896E+02 -2.00892E+03  2.24005E+03  1.59409E+03  3.62283E+02 -6.99002E+03  2.74116E+03
 -5.37458E+03 -9.39117E+03 -2.19394E+03 -9.96769E+03  1.65111E+03 -6.82935E+03  5.25004E+03  1.49451E+03
  6.78179E+02 -7.19720E+01  3.74720E+03  9.74199E+03 -3.95968E+03  4.83864E+03  1.87835E+03  5.34695E+03
 -5.11723E+03 -2.93098E+02 -3.61530E+03 -6.99723E+03 -1.20175E+02 -4.67057E+03  4.74433E+03 -5.71519E+03
  2.37748E+03 -4.23005E+03  1.49750E+03  2.06174E+03 -3.14606E+03  4.34461E+03  1.15037E+02 -1.38472E+03
  4.82158E+02  3.55532E+03  4.98336E+02 -2.82444E+03 -1.97920E+03  4.27748E+03  9.14019E+00  2.03904E+03
  1.09431E+02  3.20999E+03 -4.52265E+03  4.29284E+03 -4.68049E+03  1.28107E+03 -9.11002E+03  9.24274E+02
 -1.65664E+03 -6.59002E+03 -7.41055E+01 -8.59415E+03 -3.41681E+02 -5.16206E+03  3.98361E+03  2.90688E+03
  3.76037E+03 -4.50304E+03  4.38322E+02  1.29811E+03 -1.65360E+03  2.49404E+03 -5.08258E+03 -2.15023E+02
  3.37163E+03 -4.29465E+03  3.07035E+03  6.60869E+01  3.71146E+03 -3.52618E+02  7.25273E+02  2.39726E+03
  1.61381E+02 -8.21959E+02  5.43152E+03  4.64569E+03  6.42537E+02 -1.14206E+02  5.02218E+03  5.84396E+02
 -4.33242E+03  2.05859E+02  1.12577E+03 -6.62521E+02  2.28564E+03  4.10230E+03 -5.49395E+03  4.41755E+03
 -2.50476E+03  6.14751E+03 -3.92603E+03  3.47938E+03 -4.57896E+03 -4.34761E+03 -2.03149E+03  2.62177E+03
  2.28003E+03 -8.03933E+03 -1.47557E+03 -2.08448E+03  5.70796E+03  8.93753E+01 -6.72792E+02 -4.78542E+02
 -4.30847E+03 -2.78000E+03 -2.68831E+02 -1.92485E+03  2.09665E+03 -5.73630E+03  9.58429E+02 -1.84666E+02
  4.87941E+03  1.75642E+02  3.48226E+03  2.52388E+03  3.07848E+03  8.73772E+01 -1.99192E+03 -2.12261E+03
 -1.89819E+02 -4.04290E+03  2.81567E+03  3.38424E+03 -2.27453E+03 -3.91123E+03  5.99471E+03  3.19268E+03
 -2.20371E+03  2.90901E+02  6.21588E+03 -9.17172E+02  3.55427E+02  6.79362E+03 -5.39559E+03  3.48646E+03
 -2.01841E+02  3.49717E+02  5.56484E+02 -2.42913E+02 -2.98068E+02 -2.39287E+03 -3.62332E+03  2.90428E+01
  1.86333E+03  1.37313E+03  3.28289E+02 -3.58204E+02  3.46265E+02  1.78775E+02  3.80521E+03  4.45942E+03
  2.54575E+03  1.40142E+03 -3.01722E+03  2.23056E+03  2.41267E+03  2.59094E+02 -1.30295E+03 -5.17971E+03
 -4.86873E+03  1.11923E+03  6.07110E+02  2.47992E+03 -1.30692E+03 -8.25063E+02 -1.37467E+02  1.36970E+03
 -3.48161E+03 -5.65890E+03 -2.16087E+03 -4.47367E+03  5.67320E+03 -2.99748E+03  1.69222E+03 -1.62609E+03
  2.33656E+03  2.86981E+03  1.91179E+03 -5.18247E+03 -1.68582E+02  5.50219E+02 -3.95641E+03 -2.84587E+03
  1.75710E+03  5.43705E+03 -1.09849E+03  3.83088E+03 -1.77698E+03  2.33046E+03 -6.68337E+02 -2.21805E+03
  2.31934E+02 -4.98428E+03  2.33843E+02 -2.70766E+03  2.80876E+03 -6.25841E+02 -1.90849E+03 -7.61986E+02
  4.44937E+03 -2.54417E+03 -2.67058E+03  1.57724E+03 -1.09693E+03  7.57546E+02  4.04755E+03  3.78458E+03
 -4.20823E+03  1.93531E+03 -3.51631E+03 -1.57304E+03 -3.66737E+03 -1.47226E+03 -3.51779E+03 -2.54470E+03
  1.56198E+03 -3.65142E+03  2.57012E+03 -6.32502E+02  1.15453E+02 -4.78932E+03  3.68295E+03  2.83971E+03
  1.13206E+03  5.69347E+03 -1.14229E+03  8.80902E+02 -4.45030E+03  7.47511E+02 -1.38928E+03 -3.10191E+03
 -1.88124E+03  1.06528E+03 -1.13031E+03 -2.64626E+03 -5.77778E+02  4.08685E+03 -1.25528E+03  5.64934E+02
 -3.30729E+03 -1.52748E+02 -3.32241E+03  3.45433E+03 -2.29945E+03 -3.74225E+03 -2.14993E+03 -1.52216E+03
  1.81797E+03 -2.02981E+03  3.63633E+03 -2.53828E+02  2.02184E+03  2.46071E+03  4.47870E+03  4.54607E+03
  4.83617E+02  3.46257E+03  2.26748E+02 -3.28647E+03 -2.66493E+03 -3.40217E+03  2.65730E+03  4.83270E+03
 -1.18701E+03 -1.72259E+03 -4.92851E+02  3.22796E+02 -8.80168E+02 -6.26460E+02  1.55770E+03 -9.58759E+02
 -7.77425E+02  2.05421E+03  3.06404E+03 -2.37424E+03 -8.83246E+02 -5.58269E+02  4.38753E+03 -2.70907E+03
 -3.65780E+03  1.09051E+03 -2.18782E+03 -2.47366E+03 -7.46944E+02  3.54353E+03 -3.20970E+03  8.38580E+02
