 $NMID ID='MM_0lb_SNR50_19hz_g60_65.RAW', FMTDAT='(8E13.5)'
 TRAMP=1., VOLUME=1. $END
  3.11259E+05 -1.13713E+00  3.39032E+05  2.51835E+05  7.88008E+04  3.35284E+05 -1.33452E+05  2.49568E+05
 -1.87183E+05  8.09092E+04 -1.14904E+05 -3.39687E+04  2.69606E+03 -4.98612E+04  5.32520E+04  9.79508E+02
  3.54608E+04  5.50878E+04 -1.19180E+04  7.65071E+04 -6.17570E+04  6.29146E+04 -8.60539E+04  3.18687E+04
 -8.28492E+04 -1.02566E+04 -5.81321E+04 -5.39636E+04 -1.67431E+04 -6.75474E+04  2.69758E+04 -4.58000E+04
  4.15895E+04  1.75587E+03  1.84992E+04  4.69162E+04 -3.30324E+04  4.34412E+04 -6.87561E+04  3.87323E+02
 -5.24739E+04 -5.55530E+04 -3.74352E+03 -8.00540E+04  3.23621E+04 -5.58840E+04  4.70437E+04 -1.38093E+04
  4.41744E+04  1.27200E+04  2.47039E+04  2.31288E+04  1.94718E+04  3.66082E+04 -7.25160E+02  2.21752E+04
 -2.39506E+04  1.05516E+04 -2.04790E+04 -3.64854E+03  2.28413E+03 -5.62639E+03  2.48668E+04  1.74698E+04
  4.55919E+03  3.17161E+04 -3.30891E+04  3.41478E+04 -5.76472E+04 -4.08050E+01 -5.43954E+04 -4.48340E+04
 -1.18785E+04 -5.62200E+04  4.15303E+04 -4.48192E+04  5.92331E+04 -2.88992E+02  3.45041E+04  3.33135E+04
 -7.03782E+03  3.49105E+04 -2.63949E+04  1.34749E+04 -3.21103E+04 -7.22785E+03 -1.67463E+04 -1.26833E+04
 -5.52678E+03 -1.30808E+04 -1.20194E+03 -1.65109E+04  3.85255E+03 -2.07839E+04  1.33143E+04 -1.71229E+04
  1.05867E+04  3.22216E+03 -3.98683E+03  1.16762E+04 -2.13811E+04 -1.77229E+03 -7.43619E+03 -3.08511E+04
  2.47580E+04 -4.09516E+04  4.76955E+04 -1.97039E+04  4.65954E+04  2.10299E+04  9.16365E+03  4.09885E+04
 -1.53872E+04  3.07407E+04 -2.29547E+04  1.60367E+03 -1.06220E+04 -2.84635E+04  2.29357E+04 -3.04683E+04
  3.92899E+04 -1.23783E+04  2.68932E+04  2.66685E+04  1.91746E+04  4.53867E+04 -6.80439E+03  4.78787E+04
 -3.15082E+04  3.05977E+04 -3.99083E+04  9.63519E+03 -4.54883E+04 -1.57430E+04 -2.20767E+04 -3.67925E+04
  3.28911E+03 -3.71442E+04  2.93239E+04 -1.79900E+04  3.15593E+04  1.35641E+04  2.80065E+03  1.78421E+04
 -1.10983E+04  7.50941E+03 -1.03541E+04 -9.54219E+03  8.84947E+03 -7.05978E+03  1.54882E+04  5.85481E+03
  1.33543E+04  2.23431E+04 -5.89410E+03  2.28099E+04 -2.51809E+04  8.56536E+03 -2.56415E+04 -8.27843E+03
 -1.54677E+04 -1.77446E+04 -6.91600E+03 -1.92618E+04  4.72842E+03 -1.03745E+04  1.60870E+04 -2.24483E+04
  2.56407E+04 -1.60244E+04  2.65866E+04  1.69419E+03  2.71710E+04  1.71265E+04  5.23965E+03  3.43940E+04
 -1.64708E+04  2.86030E+04 -2.80452E+04  8.26862E+03 -2.03568E+04 -1.21218E+04 -2.89253E+03 -1.39904E+04
  8.48732E+02 -4.09326E+03 -4.38137E+03  6.83142E+03 -1.01113E+04  2.11884E+03 -9.39398E+03 -9.04572E+03
 -5.53696E+03 -1.01407E+04  4.50049E+03 -1.85308E+04  1.18597E+04 -1.35723E+04  1.31545E+04  2.03919E+03
  7.95271E+03  1.22899E+04 -5.47582E+03  1.61979E+04 -8.70397E+03  1.01436E+04 -1.40974E+04 -2.50266E+03
 -1.37325E+04 -1.60311E+04 -4.07421E+03 -2.14262E+04  1.04548E+04 -1.64578E+04  1.84403E+04 -8.76183E+03
  1.50963E+04 -2.65814E+03  6.11944E+03  5.32525E+03  2.72194E+03  2.87207E+03  6.55587E+03 -6.06316E+03
  1.59216E+04  6.12421E+03  1.56130E+04  1.04365E+04  1.14853E+04  2.37258E+04 -2.81431E+03  2.96676E+04
 -1.71644E+04  2.19306E+04 -2.35924E+04  9.10850E+03 -2.69130E+04 -7.31546E+02 -2.52348E+04 -1.95882E+04
 -1.18676E+04 -2.57343E+04  6.61395E+03 -2.38477E+04  1.83302E+04 -1.14978E+04  1.71478E+04  3.43692E+03
  3.29750E+03  9.32353E+03 -7.00807E+03  9.76694E+03 -1.31559E+04  1.57714E+03 -9.60677E+03 -1.27632E+04
 -2.77778E+03 -8.46403E+03  9.46575E+03 -6.64315E+03  1.01953E+04 -6.11542E+03  3.06034E+03  9.04845E+03
 -5.55534E+03 -1.93243E+02 -4.03668E+03 -3.91725E+03  1.40858E+03 -7.41851E+03  1.15529E+04 -1.16299E+04
  1.71836E+04 -2.35459E+03  1.42778E+04 -6.17749E+02  9.40195E+03  1.05316E+04  6.33002E+03  1.79344E+04
  1.87214E+03  1.52813E+04 -8.96920E+03  1.39369E+04 -1.22492E+04  2.33749E+03 -5.39203E+03 -3.21904E+03
 -5.63416E+03 -2.98419E+03 -2.63651E+03  4.05675E+02 -6.31270E+03  4.34527E+03 -2.20938E+03  4.86537E+03
 -8.47360E+03 -1.64799E+03 -9.37391E+03 -8.27564E+03 -3.39607E+02 -1.41684E+04  4.65900E+03 -1.13873E+04
  1.07838E+04  2.25520E+03  8.21402E+03  3.71687E+03 -1.95958E+02  2.66153E+03 -5.52325E+03 -3.67433E+03
 -1.72902E+03 -3.74610E+03 -1.50982E+03 -9.69527E+03  6.10718E+03 -8.61427E+03  1.02707E+04 -4.23056E+03
  1.46226E+04  6.40016E+02  6.22471E+03  4.99294E+03  2.40783E+03  7.42736E+03 -5.09826E+03  8.36836E+03
 -9.35077E+03  2.10068E+03 -1.32172E+03  2.25941E+03  6.05554E+03 -4.90005E+03  7.35816E+03 -1.55632E+03
  5.65756E+02  6.71608E+03 -2.79391E+03  6.22249E+03 -3.79686E+03  4.14922E+03 -8.99416E+03  3.03491E+03
 -1.62343E+03  2.23541E+03  1.82883E+03 -1.04134E+04  6.49077E+03 -5.87370E+03  5.10737E+03  4.76026E+03
 -3.97749E+02  7.63169E+03 -1.24933E+03  8.76477E+03 -7.09327E+03  1.02376E+03 -4.64392E+03 -3.13526E+03
 -5.65120E+03 -9.28610E+03  3.37804E+03 -9.70758E+03  7.55626E+03 -2.85557E+03  4.17082E+03  2.44542E+03
  4.21737E+03  2.22582E+03 -7.24560E+02  9.64809E+03 -3.17727E+03  2.57179E+03 -4.47380E+03 -1.03874E+03
 -3.23367E+03 -6.27592E+03  1.67774E+03 -8.55720E+03 -1.26357E+03 -5.70860E+03  6.78978E+03 -1.71854E+03
  1.42602E+03 -1.47964E+03  8.49700E+02  1.14989E+03 -1.11064E+03  1.79219E+03  1.48887E+03 -4.37325E+03
  3.50355E+03 -2.58432E+03  7.21770E+03 -2.16326E+03  7.48034E+03  1.36645E+03  2.91108E+03  3.20962E+03
 -3.12294E+03  8.23384E+03 -3.30915E+03  1.79843E+03 -1.00728E+04 -1.46234E+03 -5.52019E+03 -4.20971E+03
 -4.36102E+03 -7.01443E+03 -5.91592E+02 -4.98868E+03  3.75320E+03 -2.04531E+03  7.03180E+02  4.45077E+01
  8.53080E+02 -2.49083E+03  2.06352E+03 -1.59236E+03  6.70372E+03  3.81897E+03  4.58582E+03 -2.00807E+03
  5.53968E+03 -1.57500E+03  1.34322E+03  5.00840E+03  1.89002E+03  5.91226E+03 -3.48602E+03  4.55283E+03
 -4.99909E+03 -3.96588E+03 -5.73262E+02 -3.08353E+03  7.65787E+02 -2.63294E+03  1.31880E+03 -3.69179E+02
  8.46169E+03 -3.97726E+03  3.04205E+03 -1.48779E+03  8.54395E+03  4.99478E+03 -3.82153E+01  9.64922E+03
  7.43904E+01  9.11736E+03 -6.07093E+03  1.29751E+03 -6.96016E+03 -1.65470E+03 -5.77673E+02 -2.21236E+03
  2.89132E+03 -2.15093E+03 -3.77089E+03 -1.27609E+03 -3.55195E+03 -1.22714E+03 -2.22305E+03 -4.23883E+03
  3.43139E+03 -2.78554E+03 -9.44858E+02 -5.39173E+03  3.33668E+02 -2.31027E+03  2.65599E+03  3.19022E+03
  3.43908E+03 -2.61932E+03 -1.36128E+03  2.01071E+03 -2.70933E+03  1.23267E+03 -1.46357E+03  5.44790E+03
 -4.22740E+03 -1.42553E+03 -2.47045E+03 -3.36660E+03  1.87152E+03 -4.77275E+03  1.67157E+02 -1.00782E+03
  4.97671E+03 -4.74831E+03  4.19325E+03  2.16698E+03  3.05558E+03  4.10726E+02 -1.86299E+01  1.29461E+03
  2.74355E+03 -1.24891E+03  1.91747E+03  1.12233E+03 -2.44353E+03  2.79088E+03  3.43423E+03 -1.62101E+03
 -1.46447E+03  3.15346E+03  1.10900E+03  5.29975E+03 -5.99235E+03 -4.81629E+02 -7.39768E+03 -4.43164E+02
 -1.25123E+03 -4.00752E+03 -1.04452E+03 -7.61068E+01  5.72099E+02 -7.92682E+01  3.04691E+02 -5.88280E+03
 -7.08350E+02  3.40832E+03  2.21669E+01 -1.57394E+03  5.24774E+02  3.23607E+03 -2.81074E+03 -7.13623E+02
 -1.33601E+03 -5.38991E+02  2.29834E+03 -1.27491E+03  3.41206E+03 -2.43148E+03 -2.62312E+03 -2.89667E+03
 -1.50696E+03  4.93321E+03 -1.49912E+02 -3.41071E+02 -3.18222E+03  1.80814E+03  1.90203E+03 -4.14848E+02
 -1.69903E+03  2.07267E+03  7.91779E+02 -1.66837E+03  4.27581E+02  2.13384E+03  3.38067E+03  1.81368E+03
 -1.29119E+03  1.38831E+01 -1.95345E+03  2.66808E+03 -2.46538E+03 -6.24615E+02  1.75713E+03 -3.92486E+02
  6.32569E+02 -9.06979E+02  1.69734E+03  1.67975E+03 -1.43294E+03 -9.19864E+02 -2.84436E+03  2.42184E+03
 -5.34078E+02  1.34045E+03 -3.88600E+03 -2.05151E+03 -2.05632E+03 -9.93115E+01  2.21307E+03 -3.94376E+03
  4.56051E+03 -4.36842E+02  7.88900E+02 -1.95608E+02 -2.11019E+03  3.16519E+03  4.88710E+03  2.18300E+03
 -9.77655E+02  9.29083E+02  7.37625E+02  3.53488E+03 -6.64937E+02  5.16066E+03 -3.52473E+03 -3.84004E+03
  7.42532E+02  1.10790E+03 -5.91426E+02  2.82285E+03  2.64186E+03  2.85302E+03 -3.55360E+03  2.51710E+03
  9.59975E+02  1.90545E+03 -2.99094E+03  1.30300E+03 -4.28847E+03 -7.47776E+02 -7.58943E+02 -5.92551E+02
  2.54401E+02 -1.78524E+01  4.24588E+03 -6.36591E+02 -1.14307E+03  1.43215E+03  2.24264E+03 -4.83599E+02
 -4.62694E+02  2.25839E+01  2.69985E+03 -3.62863E+03 -6.47439E+02 -5.91878E+03  1.98997E+03 -2.67604E+03
  1.21308E+03  1.20087E+03 -5.03177E+02  8.18159E+02 -3.76577E+03  2.24214E+03 -1.80859E+03 -1.46086E+03
  3.26460E+03 -2.47617E+03  6.56244E+02 -5.75720E+03 -2.65577E+03  7.94372E+02  3.09524E+03  1.81188E+02
  9.51331E+02  8.71669E+02  8.80487E+02  2.55278E+03  1.47288E+03 -7.38290E+02 -2.32763E+03  5.50061E+03
  2.84247E+03  2.74539E+03 -2.74101E+03 -2.46669E+03  8.59147E+02 -4.29494E+03  1.52386E+03 -1.62163E+03
 -3.22228E+03 -1.84510E+02 -2.69223E+03 -4.55366E+03  9.04802E+02  1.73572E+03 -2.08686E+03 -4.34726E+03
  4.31646E+03 -3.35192E+03  5.03639E+03  2.80044E+03  4.88487E+03  1.83652E+03 -2.49886E+03  2.56902E+02
 -1.77752E+03  2.54835E+03 -7.15564E+02 -2.82530E+03 -6.79856E+03 -4.06461E+03 -2.35583E+03 -2.59960E+03
 -4.75592E+02 -2.83251E+02  6.80512E+02 -9.64680E+02 -1.10606E+03 -1.14199E+03 -5.64462E+02 -2.21216E+03
  3.65813E+03 -2.10934E+03  1.32971E+03  2.56462E+03  1.10058E+03  2.87315E+03  2.01632E+03 -1.87080E+03
  5.11819E+02  4.44525E+03 -1.75053E+03 -3.88683E+03 -5.00182E+01 -5.20126E+02  3.59967E+01  2.18898E+03
 -4.59562E+02  6.10193E+02 -1.42753E+03 -3.05491E+02 -1.59157E+03 -2.11318E+02 -3.01526E+03 -3.72267E+03
  8.61877E+01 -2.43217E+03  2.90376E+02 -9.36963E+02  1.71198E+03 -5.51966E+02  1.97003E+02 -7.60318E+02
  4.24771E+03 -1.11647E+03 -5.31480E+02 -1.14958E+03 -3.83191E+03 -9.40202E+02  3.36241E+03 -3.40902E+03
 -1.44097E+03 -9.46056E+02 -9.84423E+02 -5.75505E+03 -3.14191E+03  3.74249E+03 -5.02065E+03  6.07443E+02
  6.75401E+01 -5.74729E+02 -1.19564E+03 -7.41836E+01  2.46311E+03  8.48219E+02  1.81017E+03  2.65380E+03
  3.28157E+02  2.00327E+03  7.29327E+03 -1.07328E+03 -2.02872E+03  1.37826E+03 -2.59216E+03 -1.18446E+03
