 $NMID ID='MM_0lb_SNR50_20hz_g50_22.RAW', FMTDAT='(8E13.5)'
 TRAMP=1., VOLUME=1. $END
  3.10545E+05 -2.55048E+02  3.38828E+05  2.46885E+05  8.42108E+04  3.39063E+05 -1.31756E+05  2.47540E+05
 -1.90488E+05  8.08431E+04 -1.07147E+05 -3.49708E+04 -2.10964E+03 -4.91528E+04  5.30488E+04 -2.79115E+03
  3.50997E+04  5.49981E+04 -1.97453E+04  7.19707E+04 -6.19267E+04  6.26032E+04 -8.08903E+04  2.85920E+04
 -7.79465E+04 -9.59623E+03 -5.92817E+04 -5.21171E+04 -1.57798E+04 -7.00494E+04  2.46960E+04 -4.50158E+04
  3.97793E+04  6.79437E+03  1.66509E+04  4.61475E+04 -3.30725E+04  4.69791E+04 -6.58776E+04 -3.48164E+03
 -5.06465E+04 -5.98444E+04 -5.23377E+03 -7.57098E+04  2.95571E+04 -4.69466E+04  4.82544E+04 -1.83345E+04
  4.11013E+04  1.26828E+04  2.62069E+04  2.28636E+04  1.50951E+04  3.10799E+04 -4.87474E+03  2.54963E+04
 -2.12448E+04  1.29137E+04 -2.01705E+04 -6.18101E+03  5.52729E+03 -8.62039E+03  2.21944E+04  1.34709E+04
  7.68577E+03  3.77173E+04 -2.94573E+04  3.27198E+04 -6.14602E+04  4.43318E+03 -5.90112E+04 -4.25980E+04
 -1.19751E+04 -6.23829E+04  3.62055E+04 -4.14802E+04  5.70337E+04 -2.21246E+03  3.12662E+04  2.91343E+04
 -7.43626E+03  3.35767E+04 -2.66346E+04  1.46078E+04 -2.96311E+04 -5.03901E+03 -1.41586E+04 -1.30322E+04
 -6.12431E+03 -1.22952E+04 -4.75495E+03 -1.60784E+04  1.03876E+04 -2.19702E+04  1.71938E+04 -1.83400E+04
  1.34606E+04  6.84151E+03 -6.74488E+03  1.22897E+04 -2.44798E+04 -4.73118E+03 -8.81432E+03 -3.10810E+04
  1.86224E+04 -4.36545E+04  4.60938E+04 -1.84900E+04  4.01931E+04  1.68923E+04  1.32738E+04  4.42767E+04
 -1.72083E+04  3.19369E+04 -1.90442E+04  1.45448E+03 -7.14361E+03 -2.65778E+04  1.69525E+04 -3.26975E+04
  3.58756E+04 -9.41837E+03  3.06903E+04  2.54081E+04  1.56057E+04  3.96907E+04 -3.19546E+03  3.86668E+04
 -2.73939E+04  2.68191E+04 -3.66321E+04  8.65244E+03 -3.70886E+04 -1.58813E+04 -1.97010E+04 -3.34957E+04
  3.06616E+03 -3.50166E+04  2.88202E+04 -9.79716E+03  2.42214E+04  1.15777E+04  3.05189E+03  1.45883E+04
 -1.21633E+04  9.90964E+03 -1.19221E+04 -9.69154E+03  1.06834E+04 -1.41543E+04  1.37206E+04  5.39650E+03
  7.92360E+03  2.37878E+04 -9.02624E+03  2.35292E+04 -1.80603E+04  7.83765E+03 -2.37646E+04 -8.21133E+03
 -1.83597E+04 -1.46987E+04 -4.36082E+03 -1.83937E+04  4.60729E+03 -1.63240E+04  9.83858E+03 -1.38183E+04
  1.90399E+04 -1.11712E+04  2.25475E+04  2.32386E+03  1.94561E+04  1.64141E+04  3.70801E+03  3.44475E+04
 -1.36152E+04  2.39152E+04 -2.50375E+04  6.90878E+03 -1.78023E+04 -6.20786E+03 -6.06814E+03 -1.27382E+04
  2.63050E+03 -1.35325E+03 -4.28444E+01  4.68964E+03 -1.21865E+04  3.72059E+03 -1.45430E+04 -4.70705E+03
 -9.52578E+03 -1.59091E+04  5.22423E+02 -1.72116E+04  1.11645E+04 -1.33348E+04  1.23508E+04 -3.29173E+03
  9.53226E+03  7.43660E+03  2.45632E+03  1.44212E+04 -9.72242E+03  7.16005E+03 -1.41453E+04 -6.14007E+03
 -9.34402E+03 -1.09703E+04 -2.99576E+03 -1.89310E+04  7.55304E+03 -1.52499E+04  1.98225E+04 -5.36960E+03
  1.79255E+04  1.14375E+03  9.05822E+03  5.30706E+03  4.04302E+03  2.10866E+03  8.48252E+03  1.24487E+03
  1.20360E+04  1.85982E+03  1.20446E+04  1.59639E+04  6.71270E+03  2.24856E+04  4.41698E+02  2.77339E+04
 -1.59528E+04  2.07458E+04 -2.32114E+04  9.47498E+03 -1.91488E+04 -3.37512E+03 -2.14510E+04 -1.38619E+04
 -6.79292E+03 -2.54539E+04  7.92750E+03 -1.90550E+04  1.30486E+04 -1.30184E+04  1.50232E+04  5.70505E+03
  7.41290E+03  4.40734E+03 -6.54483E+03  1.21930E+04 -1.48969E+04  4.80098E+03 -8.57000E+03 -5.18263E+03
 -2.67234E+03 -9.88484E+03  1.38914E+03 -6.91790E+03  5.85297E+03 -5.66558E+02  1.53423E+03  5.12940E+03
 -9.10338E+03 -6.78324E+02 -9.12119E+02 -3.06513E+03  5.33402E+02 -9.31165E+03  7.54141E+03 -5.99834E+03
  9.02687E+03 -5.99901E+03  1.36484E+04  1.17757E+03  9.12643E+03  7.48107E+03  9.07832E+02  1.29699E+04
 -7.74040E+02  9.49908E+03 -5.01789E+03  7.20631E+03 -7.38830E+03  2.25221E+03 -5.67466E+03  2.64230E+02
 -9.60655E+02 -2.70770E+03  1.93803E+03  1.52379E+03 -3.25314E+03  3.94586E+03 -5.65114E+03  3.96332E+03
 -9.14551E+03 -3.16245E+02 -5.39029E+03 -8.75578E+03  3.70285E+02 -8.98308E+03  3.95957E+03 -9.30845E+03
  1.03803E+04 -5.37354E+03  6.49884E+03  8.04712E+03  5.39337E+02  1.61587E+03 -2.48903E+03  2.84052E+03
 -1.38864E+03 -4.91939E+03  3.08574E+02 -6.35033E+03  5.39778E+03 -8.02750E+03  8.02790E+03 -2.91905E+03
  1.14978E+04  8.89956E+02  8.09046E+03  5.54917E+03  1.99967E+03  9.31459E+03 -4.53346E+03  9.25842E+03
 -8.08855E+03  2.03300E+03 -6.99518E+02 -9.02113E+02 -1.36407E+03 -2.49168E+03  5.59097E+03 -5.59150E+02
  3.52319E+03  1.50128E+03 -7.49067E+02  8.08576E+03 -6.78764E+03  5.01659E+03 -6.57808E+03  1.86130E+03
 -4.78897E+03 -4.98367E+03 -1.83713E+03 -6.30345E+03  3.49706E+03 -1.16558E+03  4.31394E+03  1.80841E+03
 -3.98272E+03  4.19280E+03 -5.17206E+03  8.96874E+03 -1.28979E+03  5.87292E+03 -4.91603E+03 -3.24066E+03
 -5.41809E+03 -7.97715E+03 -5.35035E+02 -1.09965E+04  3.01938E+03 -4.98647E+03  3.34061E+03  5.67074E+02
  6.56110E+03  4.48048E+03  6.49865E+02  6.78299E+03 -6.08474E+03  1.35255E+03 -4.03938E+03 -9.72846E+02
 -3.28284E+03 -2.63395E+03 -3.07976E+03 -9.93967E+03  2.25798E+03 -2.24216E+03  2.48306E+03 -5.41584E+03
  3.80930E+03 -4.15879E+03 -4.58850E+02  1.58982E+03 -1.13934E+03 -1.22427E+03 -2.51152E+02 -5.80470E+03
  6.60284E+03  1.15491E+03  6.67799E+03 -1.40422E+03  3.19489E+03  1.08474E+03  2.78418E+03  6.80697E+03
 -1.41042E+03  6.06362E+03 -8.24901E+03  9.49089E+03 -1.14775E+04  6.96683E+03 -5.05764E+03 -6.98373E+03
 -5.50042E+03 -7.62377E+03 -3.38296E+03 -5.63488E+03  1.15472E+03 -7.53320E+02 -8.31174E+02 -6.42066E+02
  1.69632E+03  9.06387E+02  1.19703E+03 -1.79096E+03  3.16982E+03  1.13596E+03  5.58688E+02  3.02926E+02
  1.98930E+03  6.49328E+02 -2.03904E+03  7.67197E+03 -2.50934E+03  5.78532E+03 -6.78947E+03 -1.07477E+03
 -2.12478E+03 -6.74646E+03 -1.24441E+03 -6.40565E+03  7.50439E+02 -3.74364E+03  4.88858E+03 -3.08060E+03
  3.76763E+03 -4.79395E+03  7.21369E+03 -1.66158E+03  2.72845E+03  3.00463E+03 -2.56587E+01  5.47410E+03
  1.02779E+03  6.16861E+03 -2.01036E+03  3.19330E+03 -5.99978E+02 -3.27643E+02  2.50218E+03 -1.79399E+03
  1.77514E+03  3.76730E+02  1.15838E+03  2.53558E+03 -3.03849E+03 -1.23925E+03 -2.98666E+03  1.58782E+02
 -2.51967E+03 -3.44767E+03 -1.16135E+03 -3.97043E+03  1.75430E+02  3.28894E+02  6.47897E+03 -4.07459E+03
  4.92350E+03  9.39238E+02  1.87820E+03  3.52489E+03  7.68900E+02  1.68791E+03  2.79018E+02  4.68543E+03
 -1.16801E+03  1.26354E+03 -1.23111E+03 -8.04796E+02  1.21566E+03 -1.41281E+03 -1.93873E+03 -5.96967E+03
  6.84875E+01 -2.85689E+03  2.38894E+03 -1.30815E+03 -2.69278E+02  2.66506E+03  2.28208E+03  8.76248E+03
 -5.69196E+02  3.33891E+03  1.18205E+02  3.65326E+03 -3.42257E+03  6.71385E+03  4.75342E+03  2.42717E+03
 -4.15965E+03  2.31777E+02  6.46730E+02  2.43454E+03 -5.17235E+03  4.60041E+02 -2.45215E+03  2.07196E+03
 -2.83286E+03 -5.81014E+03  9.80507E+02 -4.02280E+03  1.35316E+03 -4.38392E+03  1.84981E+03 -1.03869E+03
 -4.21625E+02 -3.72736E+02 -4.27772E+03  3.98754E+02 -1.17415E+03 -1.60120E+02  2.22013E+02 -3.78837E+03
 -1.67968E+03 -1.33537E+03  3.38299E+03  1.63820E+03  2.05896E+03  3.60508E+02 -3.45781E+03 -1.54561E+03
 -9.88359E+02  2.19817E+03 -8.56986E+02 -2.31722E+03  1.97503E+03  1.93560E+03 -4.74153E+02 -3.48725E+03
  3.54084E+03  3.13940E+03  1.80607E+03  2.34214E+03  4.87424E+03  1.30068E+03  1.52820E+02  2.51820E+03
 -7.25761E+03  2.14005E+03 -3.92814E+03  1.93502E+03 -2.65234E+03  1.74272E+03  1.26199E+03  4.99834E+03
  4.23690E+03 -3.87897E+03  1.22134E+03  2.57162E+02  1.93232E+03  1.14450E+03  1.33278E+03  3.39157E+03
  1.09195E+03 -4.97599E+02  6.82364E+02 -1.73228E+02  1.75321E+03 -2.80484E+03 -1.16317E+01 -1.47514E+03
  4.92720E+02 -8.43343E+01 -8.79783E+02  1.11590E+03  5.83117E+03  5.39390E+03 -9.93948E+02 -6.78720E+02
  6.34918E+02 -1.36412E+03 -1.27266E+02 -1.54689E+03 -6.75579E+02 -4.50211E+03  3.19326E+03 -1.91617E+02
 -2.85655E+03 -2.69692E+03  4.08889E+03  2.45926E+03  3.18643E+03  4.96529E+03 -1.41213E+01  8.76585E+02
  2.80343E+03 -6.03148E+03  1.48885E+03  1.92979E+03 -4.30875E+03  1.72135E+03  2.54012E+03 -5.24217E+02
 -3.92337E+02 -4.63394E+03  7.68968E+02  6.85055E+02  1.56518E+03  2.02585E+03  2.08688E+03  2.80271E+03
 -1.39102E+03  2.98978E+03  8.40728E+02 -4.91573E+02  2.76475E+02 -1.16744E+03 -2.44764E+03  3.60744E+03
 -1.88565E+03  3.10344E+03 -2.71288E+03  9.55441E+02 -8.46336E+03  6.05845E+03  2.71326E+03 -2.24240E+02
  1.24141E+03 -1.30101E+03  2.84000E+03 -4.92254E+03  1.26023E+03  2.31846E+02  3.76862E+02  1.36869E+03
  1.88916E+03 -2.38276E+03  9.39618E+02  1.00392E+03  2.24773E+03  2.54972E+03  2.06165E+03 -1.51656E+03
 -8.55145E+02 -3.33432E+03 -6.44610E+02 -1.76333E+03 -3.61574E+03  2.77317E+03  3.31814E+03 -1.13619E+03
 -1.57818E+03 -4.65471E+02  1.15262E+03 -4.31998E+02  4.38748E+03  5.78409E+02 -1.47523E+02 -1.05571E+03
  2.92975E+03 -4.22489E+02 -6.56741E+03 -2.92408E+03  1.60098E+03  1.83268E+03 -4.45635E+03  2.42565E+03
  9.38123E+02  1.57149E+03 -2.79716E+03 -1.01687E+03  2.31773E+03 -1.36264E+03 -2.65295E+03 -3.08775E+03
 -2.29778E+03  7.83824E+02 -7.15923E+02  2.95908E+02  3.62383E+03 -9.07357E+02 -1.30908E+02 -1.13994E+03
  6.47343E+02 -4.16493E+03 -2.46110E+03 -1.99184E+02  3.25783E+03  8.61824E+02  2.40593E+03  2.16460E+03
 -1.02372E+03 -1.83484E+03  4.75289E+03  2.65485E+03  1.50612E+03  2.69200E+03  5.80820E+02 -7.07271E+02
 -5.65718E+02  4.33684E+03 -1.78874E+03  1.03994E+03 -3.36642E+03 -1.39923E+03  1.08407E+03 -1.20231E+03
  2.31911E+03  2.72522E+03  4.92496E+03 -1.37669E+02  3.70487E+03 -1.61751E+01  3.11633E+02  3.06432E+02
 -2.53227E+03  1.23456E+02  4.74944E+02 -1.01469E+03 -2.29762E+03  1.96623E+03 -1.04869E+03 -2.36030E+03
 -7.39949E+02  2.57920E+03  5.39331E+03  1.13897E+03 -5.41315E+03  2.31914E+03  3.54042E+03 -5.33905E+02
 -1.75825E+03  1.04819E+03 -2.85228E+03  1.26549E+03 -1.72272E+03  4.23064E+03  1.09032E+03  3.48446E+02
  9.22505E+02  1.55709E+02  5.06965E+01 -1.65702E+03 -7.10364E+02 -3.91885E+03  9.37673E+02 -4.03712E+03
