 $NMID ID='MM_0lb_SNR50_9hz_g55_89.RAW', FMTDAT='(8E13.5)'
 TRAMP=1., VOLUME=1. $END
  3.11914E+05  4.93826E+03  3.43549E+05  2.47995E+05  8.16726E+04  3.36763E+05 -1.34129E+05  2.53827E+05
 -1.92883E+05  8.44499E+04 -1.11684E+05 -2.96582E+04  2.68846E+03 -4.61363E+04  5.07330E+04 -1.90327E+03
  3.48745E+04  5.65163E+04 -1.30675E+04  7.50241E+04 -6.33207E+04  6.74829E+04 -8.73311E+04  2.68259E+04
 -7.88316E+04 -1.00355E+04 -6.03326E+04 -5.65311E+04 -1.39779E+04 -7.78728E+04  2.88235E+04 -4.66710E+04
  3.99609E+04  2.92631E+03  1.92289E+04  5.03142E+04 -3.07684E+04  4.76117E+04 -7.34644E+04  4.17558E+01
 -6.29903E+04 -6.34681E+04 -5.24620E+03 -7.74856E+04  3.60619E+04 -5.64288E+04  5.03682E+04 -1.69160E+04
  4.45909E+04  1.45639E+04  3.08632E+04  2.97517E+04  1.34430E+04  3.05784E+04 -2.03165E+03  2.59948E+04
 -2.01932E+04  9.37683E+03 -1.74949E+04 -3.39068E+03  6.85573E+03 -9.16644E+03  2.20897E+04  1.68870E+04
  1.46343E+04  4.16169E+04 -2.98841E+04  4.44484E+04 -6.64731E+04  7.29845E+03 -5.98651E+04 -4.48776E+04
 -1.25919E+04 -7.51187E+04  4.46803E+04 -4.55534E+04  5.83254E+04 -4.43436E+03  4.63880E+04  3.30183E+04
 -2.30667E+03  3.40920E+04 -3.07247E+04  1.97711E+04 -3.39308E+04 -8.86718E+03 -2.00573E+04 -1.34247E+04
 -1.01261E+04 -1.60517E+04 -5.13331E+03 -2.25105E+04  2.92684E+03 -1.94027E+04  2.06219E+04 -1.54368E+04
  1.23104E+04  7.56375E+03 -1.10289E+04  1.08005E+04 -2.49540E+04 -6.11492E+03 -1.35934E+04 -3.75758E+04
  2.63438E+04 -3.63140E+04  5.28205E+04 -2.18945E+04  4.74808E+04  2.16570E+04  1.21208E+04  4.36117E+04
 -1.75671E+04  4.02560E+04 -3.68984E+04  6.48761E+03 -8.98952E+03 -2.60306E+04  2.60641E+04 -3.98996E+04
  5.14100E+04 -1.29463E+04  4.06888E+04  2.48307E+04  1.57982E+04  5.83980E+04 -6.49473E+03  5.91104E+04
 -3.44161E+04  4.25792E+04 -4.84937E+04  1.31179E+04 -5.39581E+04 -2.33489E+04 -2.58548E+04 -4.96875E+04
  9.62528E+03 -4.29409E+04  3.39572E+04 -1.36628E+04  3.60115E+04  1.28049E+04  1.28025E+03  2.04286E+04
 -8.53832E+03  4.55244E+03 -4.37402E+03 -3.35098E+03  5.07727E+03 -1.52361E+04  1.75373E+04  7.09025E+03
  1.86718E+04  2.38250E+04 -5.25305E+03  3.02259E+04 -2.26912E+04  1.63014E+04 -3.19964E+04 -7.06848E+03
 -2.55691E+04 -1.21162E+04 -1.33030E+04 -2.49261E+04  1.13161E+03 -2.99568E+04  2.31629E+04 -2.27671E+04
  3.21644E+04 -2.75976E+04  3.80695E+04  1.68466E+04  2.97009E+04  2.65139E+04  7.57588E+03  4.14451E+04
 -2.06719E+04  3.61337E+04 -3.44618E+04  2.03118E+04 -2.79090E+04 -1.10496E+04 -8.91434E+03 -2.01447E+04
  3.29748E+03 -3.39430E+03 -5.36492E+03  8.94560E+03 -2.64322E+04  1.13983E+04 -1.89781E+04 -1.13188E+04
 -2.00481E+04 -2.48220E+04  5.52517E+03 -3.10785E+04  2.77395E+04 -1.77166E+04  2.83389E+04 -5.07192E+03
  1.62502E+04  1.85242E+04 -3.41508E+03  2.93998E+04 -1.63383E+04  5.57171E+03 -2.61219E+04 -7.67571E+02
 -2.19274E+04 -2.21941E+04 -6.29835E+03 -3.27451E+04  1.19870E+04 -2.39409E+04  2.44980E+04 -1.27895E+04
  1.75808E+04 -3.22510E+03  1.66750E+04  6.52059E+03  7.67683E+03  5.47163E+03  1.32403E+04 -1.10657E+04
  2.09110E+04  5.03037E+03  2.37171E+04  2.07107E+04  1.99929E+04  4.23257E+04 -5.85385E+03  4.82460E+04
 -2.35787E+04  4.12027E+04 -4.12845E+04  1.53304E+04 -4.67384E+04 -6.44299E+03 -3.19722E+04 -2.69734E+04
 -1.38046E+04 -4.09153E+04  1.65592E+04 -3.47997E+04  3.51785E+04 -2.17258E+04  2.88850E+04  9.05466E+03
  1.62253E+04  1.66921E+04 -1.18573E+04  1.79860E+04 -2.37783E+04  1.69748E+03 -1.75615E+04 -1.14868E+04
 -3.04270E+03 -2.20024E+04  1.18530E+04 -1.19063E+04  1.83666E+04 -5.76237E+02  7.18856E+03  7.79055E+03
 -9.74340E+03  4.13177E+03 -4.84631E+03 -5.67916E+03 -4.69986E+03 -2.27596E+04  1.30281E+04 -1.92641E+04
  2.73877E+04 -1.36103E+04  3.22446E+04  5.42514E+02  2.44355E+04  2.15556E+04  1.39990E+04  2.81025E+04
 -8.43965E+03  3.33304E+04 -1.81237E+04  1.47375E+04 -3.09454E+04  3.49685E+03 -1.61263E+04 -1.57062E+03
 -6.91320E+03 -1.37095E+04  3.55408E+03 -5.28400E+03 -7.83378E+03  6.67999E+03 -7.81912E+03  1.05279E+04
 -1.48639E+04 -2.55688E+03 -1.07554E+04 -1.93144E+03 -9.41698E+02 -2.21888E+04  9.54796E+03 -1.00804E+04
  1.23927E+04 -6.41942E+03  1.36589E+04 -9.48817E+02  3.91234E+02  5.06356E+03  4.16265E+02  2.97001E+03
 -4.69566E+03 -6.44127E+03  2.04898E+03 -1.69394E+04  1.54441E+04 -1.40371E+04  1.85629E+04 -1.05335E+04
  2.59614E+04  7.33822E+03  1.72559E+04  1.35255E+04  3.51611E+03  1.62389E+04 -1.20759E+04  1.30643E+04
 -1.62807E+04  6.22762E+03 -1.12064E+04  2.78325E+03 -3.50291E+03 -9.49785E+03  6.93392E+03  8.25167E+02
  1.78846E+03  8.24944E+03  6.92387E+03  1.39844E+04 -1.12238E+04  1.41928E+04 -2.05139E+04  6.54716E+03
 -9.58727E+03 -2.79216E+03 -1.29155E+03 -1.40941E+04  6.56274E+03 -6.46191E+03  1.60285E+04  8.53278E+03
  2.63718E+03  8.11791E+03 -3.53686E+03  9.68204E+03 -1.06965E+04  9.83019E+03 -1.39034E+04 -7.77327E+02
 -3.43495E+03 -1.77782E+04  5.61067E+03 -2.06925E+04  1.69291E+04 -5.54704E+03  2.12700E+04  2.43579E+03
  8.94341E+03  1.54535E+04  5.39957E+03  1.35132E+04 -8.60186E+03  6.51037E+03 -1.45592E+04  2.61598E+03
 -6.47600E+03 -1.66607E+04 -3.23163E+03 -1.76301E+04  1.18666E+04 -8.62509E+03  7.20485E+03  9.01125E+02
  6.32407E+03 -3.25550E+03  5.06844E+02  3.57857E+03 -7.59668E+03  3.32564E+02  3.69992E+03 -4.42133E+03
  1.20328E+04 -1.08061E+03  1.62352E+04 -1.98444E+02  1.75997E+04  1.14307E+04  7.94824E+03  2.63542E+04
 -3.18575E+03  2.33894E+04 -2.32807E+04  1.73599E+04 -2.86101E+04  1.17582E+04 -2.24706E+04 -1.24249E+04
 -1.16402E+04 -1.07424E+04 -3.84119E+03 -1.87935E+04  5.63656E+03 -5.57759E+03  8.38164E+03 -8.75827E+03
  9.86664E+03 -7.81851E+03 -2.98467E+02 -1.00136E+03  7.28890E+03 -2.50198E+03  7.39616E+03 -1.35315E+03
  9.20227E+03  4.78861E+03  1.15233E+04  9.15967E+03 -3.29813E+03  1.05277E+04 -1.01847E+04  1.32763E+04
 -1.63160E+04  3.90364E+03 -1.72532E+04 -8.05485E+03 -1.32544E+03 -1.59395E+04  7.71658E+03 -1.05213E+04
  1.95399E+04 -3.56221E+03  1.80362E+04  1.76436E+02  1.40959E+04  1.61832E+04 -4.59180E+03  1.77646E+04
 -8.18867E+03  1.82271E+04 -1.23291E+04  2.88861E+03 -8.99664E+03 -1.51801E+03 -6.46612E+03  2.88757E+03
 -4.28424E+03  3.97633E+03 -8.59445E+02  4.70190E+03  1.37373E+03  8.44564E+03 -8.99526E+03 -5.46597E+02
 -7.25514E+03 -1.19263E+04 -4.30224E+03 -1.44529E+04  5.56357E+03 -1.24809E+04  1.65155E+04 -5.06100E+03
  7.36654E+03  8.81727E+03  5.77409E+03  1.66478E+04 -1.12201E+04  1.74713E+04 -9.02725E+03  6.74554E+03
 -1.86172E+04  3.58192E+03 -1.23254E+04 -3.28002E+03 -3.94235E+03 -8.53170E+03  1.33616E+04 -9.33149E+03
  7.63360E+03 -9.62402E+03  8.83016E+03  4.17677E+03  6.24690E+03  3.56840E+03 -3.66652E+03 -4.42457E+03
  6.68784E+03  4.75330E+01  8.81518E+03  2.43716E+03  1.06950E+04  3.14467E+03  3.01254E+03  1.18065E+04
 -1.28458E+03  1.74350E+04 -1.28193E+04  1.51363E+04 -1.70204E+04  1.91758E+03 -1.54070E+04 -8.60996E+03
 -7.38425E+03 -1.93388E+04  4.09909E+03 -1.95192E+04  1.18359E+04 -7.05936E+03  1.42103E+04 -5.02548E+03
  1.35411E+04  3.59400E+03  5.37912E+03  1.57834E+04 -1.07160E+04  6.78472E+03 -8.54339E+03  3.49540E+03
  2.71642E+03 -3.54952E+03  8.84599E+03 -6.22347E+03  6.41382E+02 -3.68631E+03  6.70582E+03 -2.51133E+03
  6.74273E+03  3.16363E+03  5.35362E+03 -5.99169E+03 -7.27679E+03 -5.51809E+03 -3.10935E+02 -2.86513E+03
  8.00933E+03 -1.42224E+03 -1.46926E+03  3.41291E+02  1.46496E+04  1.41251E+04 -1.75748E+02  1.78152E+04
 -8.93022E+03  1.38782E+04 -1.02075E+04 -2.01334E+03 -7.20242E+03 -6.47017E+03 -2.24378E+03 -5.29012E+03
 -2.84932E+02 -6.00230E+03  3.56815E+03 -2.97267E+03  5.91582E+03  4.77455E+02  5.58531E+03 -9.87393E+01
 -4.35110E+03  6.21216E+03 -8.44706E+03 -6.46962E+03 -8.98837E+03 -4.40535E+03 -2.56570E+03 -4.84002E+03
  5.15631E+03 -3.55452E+03  8.41202E+03  3.18731E+03  6.91119E+03 -8.17697E+02 -3.27917E+02  3.33395E+03
 -3.41971E+03 -5.67563E+02 -3.24862E+03 -1.86980E+03  9.38120E+03 -1.16790E+04  6.42397E+03 -7.37783E+03
  1.01247E+04 -2.40222E+03  1.42216E+04  1.09803E+04  5.58781E+03  6.24547E+03 -2.75882E+03  1.33459E+04
 -1.12602E+04  6.57754E+03 -5.06412E+03 -6.97565E+03 -1.22957E+04 -8.97117E+03  3.51123E+03 -3.56455E+03
  8.21149E+03 -4.47441E+03  4.74655E+03  6.41486E+03 -1.59642E+03  3.84415E+03  1.46640E+03  5.77573E+03
 -2.85431E+03  6.30280E+03 -3.52963E+03  5.24423E+02 -6.69725E+03 -2.57855E+02  3.13440E+03 -2.06311E+02
 -2.00654E+02 -7.72236E+02 -8.07320E+03  5.05266E+03 -5.77341E+03  3.56380E+03 -1.50044E+04 -5.28940E+03
 -4.91042E+03 -1.23875E+04  1.92256E+03 -1.71214E+04  8.29459E+03 -4.81998E+03  1.08419E+04 -7.71546E+03
  1.43450E+04  5.07643E+02  1.55151E+04  1.09104E+04  7.74487E+03  1.62395E+04 -2.07375E+03  1.28123E+04
 -7.12227E+03  9.86499E+03 -8.52445E+01 -2.52257E+03 -2.51041E+03  8.19062E+03 -1.01389E+03  7.42284E+02
 -2.46581E+03 -1.02280E+02 -4.42047E+03 -8.10652E+02  1.00055E+03 -5.74229E+03 -2.90297E+03 -5.74976E+03
  8.87687E+03 -2.50186E+03  7.11528E+03 -7.34450E+03  7.54126E+03  1.38553E+04 -2.55890E+02  1.30288E+04
 -9.76507E+03  7.66155E+03 -2.80484E+03  1.23698E+04 -9.29931E+03 -5.13999E+03 -7.97046E+03 -9.21585E+03
  1.80181E+02 -1.79742E+04 -9.66636E+02 -1.09454E+04  1.21252E+04 -4.93068E+03  4.36336E+03  5.20774E+02
  8.17776E+03  9.21072E+03  7.60900E+02  6.38002E+02 -1.25023E+03 -2.69811E+03 -2.41857E+03 -1.02623E+04
  6.65100E+03 -3.78185E+03  5.40215E+03 -2.60658E+03  2.94135E+03  1.03335E+04  7.68053E+02 -1.92262E+02
  7.41398E+01  5.25596E+03 -6.03378E+03  2.60292E+03 -1.11330E+04 -6.29152E+03 -3.98688E+03 -9.71829E+03
  1.26996E+04 -6.92461E+03  6.10617E+03 -1.64060E+03  1.04048E+04 -7.92613E+02  2.77920E+03  1.05935E+04
 -1.10520E+03  3.92667E+03 -4.28676E+02 -1.74916E+03 -3.14533E+03  1.00943E+04 -8.09156E+02  4.25809E+03
 -8.85209E+03 -4.98090E+03 -2.30535E+03 -5.10426E+03 -5.12818E+03 -1.02008E+03 -4.94618E+03  1.91508E+03
 -5.04293E+03 -4.97194E+03 -1.42014E+03 -6.77403E+03  4.17748E+03 -1.19017E+04  4.86827E+03 -3.99198E+03
  8.68920E+03  1.10007E+03  2.03056E+03  3.25643E+03 -4.12298E+03  4.27823E+03 -8.33403E+03  1.96067E+03
