 $NMID ID='MM_0lb_SNR50_20hz_g55_12.RAW', FMTDAT='(8E13.5)'
 TRAMP=1., VOLUME=1. $END
  3.14294E+05  2.55543E+03  3.34756E+05  2.49772E+05  8.27452E+04  3.39666E+05 -1.32695E+05  2.51109E+05
 -1.89253E+05  8.46085E+04 -1.12746E+05 -3.58605E+04 -1.53283E+03 -4.60575E+04  5.79432E+04 -2.80129E+03
  3.69910E+04  5.14753E+04 -1.19089E+04  7.50078E+04 -5.89839E+04  6.24902E+04 -8.08251E+04  3.50868E+04
 -8.34257E+04 -7.94913E+03 -5.99270E+04 -4.73006E+04 -1.51128E+04 -7.03477E+04  2.92627E+04 -4.26126E+04
  3.74728E+04  5.47206E+03  1.52328E+04  5.22838E+04 -3.54736E+04  4.32152E+04 -6.98707E+04  2.16285E+03
 -5.24984E+04 -5.79424E+04 -7.37907E+03 -8.00617E+04  3.12335E+04 -5.36704E+04  4.81121E+04 -1.93722E+04
  4.11037E+04  9.85235E+03  3.21669E+04  2.40805E+04  1.36312E+04  2.98635E+04 -5.23424E+03  2.36605E+04
 -2.23844E+04  1.31011E+04 -1.83030E+04 -5.54043E+03  1.56476E+03 -8.55390E+03  1.92300E+04  1.07189E+04
  4.52798E+03  3.49761E+04 -3.41118E+04  3.19620E+04 -5.98830E+04  6.14712E+03 -5.58273E+04 -4.16605E+04
 -1.28649E+04 -6.33937E+04  3.67778E+04 -4.26290E+04  5.87591E+04  3.15338E+03  3.31615E+04  2.66228E+04
 -8.01468E+03  3.47695E+04 -3.19218E+04  9.95330E+03 -2.77530E+04 -9.19385E+03 -2.03616E+04 -1.35369E+04
 -6.96227E+03 -1.16763E+04 -2.80365E+03 -1.86847E+04  1.16232E+03 -2.16160E+04  1.62167E+04 -1.44277E+04
  1.26293E+04  4.03621E+03 -7.90633E+03  1.30281E+04 -1.87926E+04  1.81415E+03 -8.02696E+03 -2.58551E+04
  2.17413E+04 -4.18986E+04  4.21517E+04 -1.50671E+04  4.09562E+04  1.97585E+04  1.38307E+04  3.80431E+04
 -1.47983E+04  3.29665E+04 -2.52956E+04  5.42278E+02 -6.66883E+03 -2.41735E+04  2.18291E+04 -2.77664E+04
  3.70388E+04 -9.00788E+03  3.32389E+04  2.04878E+04  2.03413E+04  4.18337E+04 -8.34441E+03  4.48617E+04
 -2.71332E+04  2.73734E+04 -3.60675E+04  4.13148E+03 -3.80166E+04 -1.64547E+04 -2.18395E+04 -3.63210E+04
  7.33304E+03 -2.83253E+04  2.41407E+04 -9.80130E+03  3.04945E+04  1.12077E+04  5.08954E+01  2.03302E+04
 -9.72418E+03  1.54655E+04 -1.25515E+04 -4.96675E+03  1.73964E+03 -1.14885E+04  1.89672E+04  8.67956E+03
  7.87924E+03  2.11907E+04 -7.48238E+03  2.09173E+04 -2.30655E+04  1.13815E+04 -2.48160E+04 -6.70331E+03
 -1.70990E+04 -1.22588E+04 -8.49213E+03 -1.48758E+04  3.86358E+03 -1.36508E+04  1.47142E+04 -1.66375E+04
  2.13568E+04 -1.18970E+04  2.94445E+04 -1.12703E+03  2.29702E+04  1.45380E+04  4.19046E+02  3.47078E+04
 -1.49564E+04  2.64231E+04 -2.72104E+04  1.23843E+04 -1.84041E+04 -9.77112E+03 -4.15308E+03 -1.75270E+04
  6.53339E+03 -4.88371E+03 -3.90014E+03  6.39088E+03 -1.53243E+04  4.70889E+03 -1.02816E+04 -2.67541E+03
 -1.07241E+04 -1.70981E+04  3.27747E+03 -1.79783E+04  9.63219E+03 -1.39684E+04  1.06753E+04 -4.46306E+03
  1.13818E+04  1.07064E+04 -1.78404E+03  1.29037E+04 -1.12684E+04  1.04437E+04 -1.64380E+04 -3.24553E+03
 -1.05671E+04 -1.36269E+04 -9.28147E+02 -2.06714E+04  7.16296E+03 -1.56843E+04  1.63261E+04 -6.06667E+03
  1.43920E+04 -1.34141E+03  6.76648E+03  3.75185E+03  2.99090E+03  1.13138E+03  8.17635E+03 -3.53755E+03
  1.11040E+04  2.25603E+03  1.40578E+04  1.24625E+04  1.18256E+04  2.06148E+04 -1.24537E+03  2.36842E+04
 -1.13139E+04  1.70399E+04 -2.53231E+04  7.52970E+03 -2.48579E+04 -4.40891E+03 -2.03264E+04 -1.15490E+04
 -6.65570E+03 -1.79791E+04  6.51850E+03 -1.92004E+04  1.81836E+04 -1.11119E+04  1.35992E+04  5.23404E+03
  7.21598E+03  1.03635E+04 -6.75979E+03  9.68469E+03 -1.21532E+04  1.35590E+03 -9.50819E+03 -9.53146E+03
 -1.34802E+03 -1.50299E+04  9.45239E+03 -8.39903E+03  9.04258E+03  7.42741E+02  1.80904E+03  6.42364E+03
 -7.48540E+03 -7.40836E+02 -1.04246E+03 -3.62273E+03  1.71134E+03 -7.19854E+03  3.57582E+03 -1.02550E+04
  1.08276E+04 -6.60638E+03  8.07530E+03  1.73455E+03  1.02066E+04  3.39938E+03  6.30214E+03  9.83211E+03
 -1.89088E+03  1.43490E+04 -9.55313E+03  8.45414E+03 -1.11312E+04  3.29781E+03 -8.65639E+03 -4.98140E+02
 -3.16962E+03 -4.48013E+03 -1.38818E+03  9.68672E+02 -2.94911E+03  3.01105E+03 -3.74090E+03  1.97265E+03
 -8.22873E+03 -2.59394E+03 -6.92252E+03 -6.40088E+03 -4.44737E+03 -7.51725E+03  3.22783E+03 -9.20710E+03
  4.12657E+03 -1.24380E+03  2.10827E+03  6.75635E+03  8.09699E+02  4.84700E+03 -1.75468E+03 -9.03729E+02
  2.64113E+03 -4.08464E+03 -2.59691E+03 -5.24588E+03  5.34011E+03 -9.19285E+03  8.84095E+03 -4.13212E+03
  1.09516E+04 -2.68203E+03  1.31406E+04  4.70013E+03 -2.04748E+03  8.45690E+03 -4.94138E+03  8.55822E+03
 -4.50629E+03  1.94510E+01 -4.36501E+03 -2.65057E+03  6.84163E+01 -3.82743E+03  8.72094E+03  1.72610E+03
  5.32936E+03 -1.54484E+03  1.37440E+02  3.98860E+03 -6.19688E+03  2.54387E+03 -1.12777E+04  4.70808E+02
 -7.45020E+03 -1.75520E+03  1.03307E+03 -1.25105E+04  1.52477E+03 -4.58872E+03  6.95719E+03  4.36458E+02
  2.40653E+03  3.58621E+03 -2.72563E+03  9.77009E+02 -5.01482E+03  3.61518E+03 -1.40874E+03  1.69167E+03
 -1.91503E+03 -1.15089E+03  2.65917E+03 -6.22375E+03  2.56153E+03 -3.57105E+03  4.60262E+03 -1.12854E+03
  2.44767E+03  2.25251E+03  9.54827E+02  7.78769E+03 -4.78290E+03  1.89962E+03 -2.26325E+03 -8.40840E+02
 -3.86947E+03 -4.15523E+03 -3.27786E+03 -1.86092E+03 -2.41276E+03 -4.65625E+03  1.40917E+03 -2.97282E+01
 -5.46635E+02  2.03038E+03 -4.29536E+03  1.52315E+03  2.23588E+03 -1.08876E+03 -1.30296E+03 -9.43681E+02
  3.22845E+03 -3.88334E+02  1.73218E+03 -1.44812E+03  4.59581E+03 -1.64408E+03  5.64738E+03  7.69491E+03
 -1.28988E+03  1.98451E+03 -6.40197E+03  7.42258E+03 -4.38332E+03  2.48592E+03 -8.61410E+03  3.63497E+02
 -2.55903E+03 -6.17090E+03 -2.31549E+02 -5.68017E+03 -1.44163E+03 -1.97445E+03  1.21844E+02 -2.78871E+03
  3.80094E+02 -2.13732E+03  1.30271E+03 -1.41843E+03  2.17937E+03  2.27023E+03  1.04287E+03  1.94104E+02
  6.72993E+03  1.23538E+03  3.94231E+02  2.08840E+03 -3.99015E+02 -1.98377E+02 -5.98789E+03  2.76694E+03
 -4.93127E+03 -3.57877E+03 -2.76189E+03 -4.50793E+03  1.62363E+03 -5.23316E+03  3.58008E+03 -5.70954E+03
  1.95286E+03 -1.86809E+03  1.03228E+04  1.35069E+03  2.50493E+03  3.63402E+03  2.13538E+03  8.93676E+03
  1.06054E+02  1.89390E+03  4.66863E+02  9.43672E+02 -5.49380E+03  6.17934E+02  2.98827E+02 -1.88054E+03
 -1.07325E+01  1.07891E+02  5.23876E+02  9.46452E+00 -5.18669E+03  2.55527E+03 -2.81506E+03 -7.71952E+01
 -1.86474E+03  1.09678E+03  1.58231E+03 -4.02900E+03  1.06853E+03 -2.19973E+03  2.91741E+03 -1.33551E+01
  6.78596E+03  1.06741E+02  2.70116E+03  2.11284E+03 -3.78502E+03  5.88970E+03 -8.54067E+02 -4.45984E+02
 -6.45471E+03  6.21106E+03 -1.95775E+03 -2.57086E+03 -4.30649E+03 -5.45299E+03  3.63471E+03 -1.64015E+03
  2.35975E+03  1.30783E+03  7.14386E+03 -2.07310E+03  1.64913E+03  2.38046E+03 -2.40295E+03  1.67474E+02
 -1.30957E+03  3.09628E+03  5.59410E+03  2.83298E+03  2.26028E+03  6.24102E+03  6.79053E+03 -2.46138E+02
 -2.24899E+03  3.65587E+03 -8.58732E+02  5.65213E+03 -4.16138E+03  6.35017E+03 -5.19259E+02 -3.23105E+03
 -1.14136E+03 -2.15867E+03 -1.53513E+03 -3.95999E+03  4.83030E+03 -5.90383E+02  6.12167E+03 -3.06520E+02
 -1.05225E+03  2.12539E+03  1.00940E+02  1.10331E+03 -4.19623E+03  1.57118E+03  6.54831E+02  1.00787E+03
 -2.91028E+03 -4.61304E+03  3.74216E+03 -2.75792E+02  1.22328E+02  1.55003E+03 -2.72823E+03  1.27267E+03
  4.12843E+03 -1.10867E+02  6.17229E+02 -2.71974E+01 -1.37981E+03 -4.47650E+03  2.72976E+03  2.28182E+03
  5.58085E+03  2.67349E+02  7.91136E+02  3.08096E+03  7.21556E+02 -1.91334E+03 -2.52112E+03  7.19586E+03
 -4.27940E+03 -8.95405E+02 -2.92402E+03  2.52108E+03  1.69076E+03  8.23524E+01 -1.08460E+03 -5.93167E+03
 -1.84010E+03 -1.33029E+03  6.19906E+02 -2.04638E+03  4.44032E+01  8.66503E+02  3.78566E+03  2.87627E+03
  4.86775E+02  3.62714E+03 -3.81136E+03  3.03973E+02 -5.25029E+02 -8.40529E+02  1.51893E+03 -4.10416E+03
  6.03766E+02 -1.54187E+03  3.01703E+03  1.36198E+03  3.16098E+03  9.55618E+02  2.18842E+03  1.01020E+02
 -2.98692E+03  2.28989E+03  2.27614E+03 -3.66898E+03  9.19891E+01  1.74667E+03  3.45306E+03  2.00268E+03
  1.10086E+03 -4.88263E+03  1.37381E+03 -5.40804E+02  4.99873E+03  3.59603E+03  2.46113E+03  3.67471E+03
 -1.71520E+01  1.38061E+03 -1.75658E+03 -1.40429E+02  3.57642E+03  1.09512E+03 -1.13778E+03 -8.69458E+02
  1.80903E+03  3.61921E+03 -2.61238E+03  1.97736E+03  4.80823E+02  6.33638E+02 -5.02313E+03  3.98476E+02
 -2.07053E+03  2.55238E+03  2.18250E+03  1.22527E+02  2.74197E+02  7.75716E+02 -1.03683E+03  1.73555E+03
  1.89483E+03  2.56694E+03  1.11970E+03 -1.72018E+03 -4.54233E+02  9.62973E+02  2.62455E+03  2.57121E+03
 -9.83377E+02  3.14132E+03  1.43549E+03 -1.95767E+03  5.39223E+02 -1.88907E+02  1.54749E+03  8.62102E+02
  5.53352E+03  1.51000E+03  4.48092E+02 -4.94766E+02 -2.46166E+03  2.31550E+03 -1.67312E+03  7.55999E+02
  2.41449E+02  3.27161E+03  2.49621E+03 -2.98050E+02  1.88063E+03  1.23536E+03 -4.74562E+02  6.33897E+02
 -1.36238E+03  2.62915E+02  6.91821E+01  3.01661E+03  1.08909E+03 -3.94766E+03  2.29492E+03  1.45838E+03
  1.64405E+03 -2.64798E+03  2.63986E+03  7.78945E+02  1.02593E+03  1.86763E+03  1.75341E+02 -3.10501E+03
 -5.43163E+03 -1.25986E+03 -1.58484E+03 -1.61440E+02 -1.15160E+03  1.00594E+03 -4.55439E+03 -2.54024E+03
 -2.52584E+03 -3.47247E+03  6.39013E+02 -2.44168E+03 -1.78820E+03 -2.01825E+01 -3.78481E+03 -2.15026E+02
  1.67436E+03 -8.03404E+03 -2.66242E+02 -6.70734E+02 -3.73880E+03 -5.77396E+03  4.12202E+03  7.47870E+02
  1.65748E+03  3.05361E+01  8.51562E+02 -8.98173E+02  2.35202E+03 -4.08785E+03  2.86178E+03 -5.27963E+03
  2.25160E+03  1.13456E+03 -6.08265E+02 -1.02373E+03  8.12777E+02 -2.36282E+03  1.03203E+03 -3.27445E+03
  2.62183E+03 -1.54095E+03 -3.51755E+03  3.73588E+02  9.31682E+02 -2.06132E+03 -3.44486E+03 -3.88252E+02
  2.34037E+03 -3.59434E+03  5.07120E+03  2.37160E+03 -2.44540E+03  1.31720E+03  8.90726E+00 -2.89178E+03
 -2.84598E+03  8.37952E+02  3.13555E+03 -4.09339E+03  1.26987E+03 -2.31969E+03 -2.85127E+03 -2.81203E+03
  3.73595E+03  2.05475E+03  3.06359E+03 -2.12357E+03 -2.07770E+03 -7.81111E+03  3.52128E+03 -6.50466E+02
  1.96303E+03  1.50041E+02 -1.25816E+02  5.58938E+03  6.69468E+02 -2.46164E+03 -1.49362E+03  1.92637E+03
