 $NMID ID='MM_0lb_SNR50_19hz_g55_41.RAW', FMTDAT='(8E13.5)'
 TRAMP=1., VOLUME=1. $END
  3.11034E+05 -1.00310E+03  3.36771E+05  2.50504E+05  8.46276E+04  3.38223E+05 -1.37818E+05  2.49116E+05
 -1.87960E+05  8.12179E+04 -1.06402E+05 -2.72716E+04 -1.35556E+02 -4.63859E+04  5.44589E+04  3.69071E+03
  3.67967E+04  5.57614E+04 -1.59431E+04  7.50167E+04 -6.20115E+04  6.12102E+04 -7.92734E+04  2.79440E+04
 -8.43980E+04 -1.22151E+04 -6.01439E+04 -4.94843E+04 -1.46774E+04 -6.52988E+04  2.52595E+04 -4.75233E+04
  3.71713E+04  4.65971E+03  1.82390E+04  4.69530E+04 -3.33606E+04  4.57183E+04 -6.73417E+04  2.28983E+03
 -5.27438E+04 -5.03713E+04 -6.81325E+03 -7.56491E+04  3.05070E+04 -5.17091E+04  4.14931E+04 -1.81380E+04
  4.22721E+04  1.06458E+04  3.03780E+04  2.79902E+04  1.66314E+04  2.87168E+04 -7.19607E+03  2.07782E+04
 -2.55964E+04  1.18633E+04 -1.85332E+04 -2.66304E+03  4.96770E+03 -1.02430E+04  2.63086E+04  1.07013E+04
  7.76847E+03  3.48052E+04 -3.33592E+04  3.27368E+04 -6.80252E+04  3.28397E+03 -5.54449E+04 -3.95870E+04
 -1.58121E+04 -6.38317E+04  3.64636E+04 -4.31768E+04  5.21644E+04 -5.68771E+03  3.26907E+04  2.80191E+04
 -3.02724E+03  3.70033E+04 -2.63226E+04  1.27567E+04 -3.24393E+04 -4.97768E+03 -1.27066E+04 -6.17923E+03
 -8.25721E+03 -8.29900E+03 -2.72709E+03 -1.99341E+04  9.42118E+03 -2.06782E+04  1.54181E+04 -1.48848E+04
  1.10792E+04  2.14560E+03 -1.54701E+03  1.31605E+04 -2.01306E+04 -4.86895E+03 -5.38537E+03 -3.55449E+04
  2.70410E+04 -4.22892E+04  4.39969E+04 -1.82255E+04  4.46367E+04  1.40573E+04  1.41623E+04  4.40695E+04
 -1.57233E+04  3.17436E+04 -2.65871E+04  3.33790E+02 -9.55490E+03 -2.53689E+04  2.38585E+04 -3.23388E+04
  4.01368E+04 -3.89591E+03  3.22690E+04  2.09536E+04  1.61822E+04  4.14276E+04 -6.27388E+03  4.52341E+04
 -3.22080E+04  3.07018E+04 -4.03036E+04  6.03990E+03 -3.89720E+04 -1.70114E+04 -1.93331E+04 -3.46430E+04
  1.03209E+02 -3.38286E+04  2.69282E+04 -1.54150E+04  3.09136E+04  1.23325E+04  2.91762E+03  1.77353E+04
 -1.37953E+04  9.42663E+03 -8.05616E+03 -9.55420E+03  6.99859E+03 -1.23263E+04  1.73642E+04  8.88722E+03
  1.43331E+04  2.36020E+04 -6.22192E+03  2.69949E+04 -1.97931E+04  1.05691E+04 -2.82937E+04 -1.43700E+04
 -1.85654E+04 -1.53232E+04 -4.43966E+03 -1.69637E+04  3.49699E+03 -1.43816E+04  1.57097E+04 -1.67950E+04
  2.21193E+04 -1.20884E+04  3.09438E+04  7.57591E+02  2.14826E+04  1.50196E+04  3.80901E+03  2.65139E+04
 -1.26017E+04  3.11730E+04 -2.66902E+04  1.21522E+04 -2.10889E+04 -7.46327E+03 -5.92351E+03 -1.49576E+04
 -1.81731E+03 -6.37990E+03 -5.60533E+03  8.48622E+03 -1.70502E+04  5.32929E+03 -1.71789E+04 -2.78844E+03
 -7.56388E+03 -1.44031E+04  7.76281E+02 -2.55729E+04  1.43125E+04 -1.25483E+04  1.71463E+04 -4.53557E+03
  7.73982E+03  1.39868E+04  8.99829E+02  1.73241E+04 -9.91414E+03  9.88816E+03 -1.86735E+04  3.10395E+02
 -1.29572E+04 -1.52333E+04 -5.63142E+02 -1.27211E+04  7.50524E+03 -1.61502E+04  1.58742E+04 -9.54555E+03
  1.15240E+04  1.05798E+03  9.51109E+03  3.47389E+03  6.11263E+03 -7.81419E+02  8.60875E+03 -2.73207E+03
  1.51771E+04  4.10832E+03  1.19250E+04  1.19081E+04  9.92845E+03  2.39156E+04 -4.38939E+03  2.79254E+04
 -1.67595E+04  2.16249E+04 -2.48019E+04  7.02279E+03 -2.40163E+04 -2.22815E+03 -2.43723E+04 -1.47376E+04
 -1.03345E+04 -2.10968E+04  6.65425E+03 -2.14835E+04  1.61456E+04 -1.60053E+04  1.79235E+04  5.24439E+03
  4.19375E+03  9.30210E+03 -6.12275E+03  1.18715E+04 -1.34515E+04  1.88062E+03 -7.49284E+03 -9.86280E+03
 -3.61864E+03 -1.88765E+04  8.71883E+03 -1.07374E+04  1.23316E+04 -5.40821E+02  6.46765E+02  4.56727E+03
 -6.94597E+03 -2.30866E+03 -3.92894E+03 -5.36284E+03  9.03927E+02 -1.02141E+04  7.12613E+03 -1.08308E+04
  1.16144E+04 -8.32192E+03  1.24022E+04  4.57939E+03  1.32375E+04  1.37859E+04  3.98479E+03  1.45067E+04
 -6.39904E+02  1.76722E+04 -6.10204E+03  8.81737E+03 -1.11358E+04  3.48352E+03 -1.07315E+04 -3.75270E+03
 -1.80323E+03 -3.14713E+03  2.32518E+02  6.00530E+02 -5.77463E+03  7.90260E+02 -2.72126E+03  3.17968E+03
 -1.06766E+04  2.27166E+03 -7.55284E+03 -4.68248E+03 -1.42817E+03 -9.52463E+03  5.93565E+03 -1.09156E+04
  6.18570E+03 -3.60192E+03  4.14937E+03  6.39446E+02  4.20297E+03  4.21989E+03 -1.64001E+02  5.03245E+03
 -4.45561E+03 -5.69194E+03 -3.12572E+03 -7.03191E+03  8.19312E+03 -9.55315E+03  9.87147E+03 -5.86236E+03
  1.21160E+04 -2.79801E+03  3.72637E+03  6.76978E+03  2.36246E+02  8.66373E+03 -6.63320E+03  2.27635E+03
 -4.23018E+03  6.37210E+03 -6.47466E+03 -2.79166E+03  4.90454E+02 -2.55837E+03  2.99303E+03 -6.22539E+02
  5.57767E+03  3.39801E+03  4.95086E+03  3.94910E+03 -9.32095E+03  5.00387E+03 -8.13585E+03 -1.28587E+03
 -5.60288E+03 -5.32888E+02  3.65218E+03 -9.09171E+03  2.35135E+03 -2.50817E+03  4.73202E+03  2.66877E+03
  1.98603E+03  6.40680E+03 -3.26478E+03  2.94871E+03 -6.65186E+03  2.85438E+03 -7.25819E+03 -4.44678E+03
 -3.21593E+03 -6.50143E+03 -4.99884E+03 -3.85085E+03  6.70367E+03 -3.59906E+03  5.77572E+03  3.13050E+03
  7.15473E+03  4.07541E+03  3.04174E+03  1.79533E+03 -1.20639E+03  6.69825E+03 -6.06540E+03  2.22262E+03
 -7.01103E+03 -2.65892E+03 -2.53232E+03 -4.59843E+03  5.79738E+03 -4.09593E+03  3.41008E+03 -3.17004E+03
  5.29912E+03 -2.11600E+03 -6.72491E+02  1.49679E+03  1.38961E+03 -9.52709E+02  5.40476E+01  3.37672E+02
  2.15811E+03  2.09149E+03  6.50379E+03 -1.79084E+03  7.21407E+03  5.55238E+02  5.39283E+03  4.76685E+03
 -3.03010E+03  1.05991E+04 -6.40505E+03  4.98787E+03 -1.05745E+04  3.66611E+03 -4.52105E+03  1.90795E+02
 -7.87475E+03 -6.71972E+03  9.31972E+02 -4.09807E+03  1.44272E+03 -1.88020E+03 -4.60557E+03  2.28893E+03
 -5.75116E+02 -4.82734E+03  6.07604E+02 -1.49056E+03  8.43971E+02 -4.64356E+03  3.11666E+03 -7.94104E+02
  4.56526E+03 -2.22836E+02  6.35952E+03  4.94837E+03 -1.17765E+03  7.67950E+03 -3.89309E+03  1.39415E+03
 -3.83788E+03 -1.14317E+03 -4.16207E+03 -3.99899E+03  3.73176E+03 -5.08102E+03  7.00794E+03 -4.05775E+03
  5.58158E+03  4.62870E+02  5.19300E+03  4.21973E+02 -8.50101E+02  2.13474E+03  5.00448E+03  2.83779E+03
 -7.63078E+03  3.12154E+03 -2.50722E+03  8.93210E+02 -3.45715E+03  7.79598E+02  1.91560E+03 -1.36650E+03
  6.43403E+02 -1.67163E+02 -4.65807E+03  2.05169E+03 -3.70297E+03 -2.35674E+03 -6.43921E+03  9.91889E+02
 -3.39186E+03 -2.14415E+03 -3.78651E+03 -2.85653E+03  1.75995E+02 -5.55580E+03  4.48805E+03 -2.02855E+03
  5.27074E+03 -2.47413E+01 -5.50694E+02  5.25752E+03  4.77799E+01  4.06178E+03 -3.18212E+03  4.28819E+03
 -6.19999E+03  8.23298E+02 -6.29234E+03  1.36417E+02 -2.02036E+03 -1.01352E+03  1.41916E+03  1.33040E+03
  6.57234E+03  8.32577E+02 -2.85586E+02  1.26755E+03 -2.65668E+03  2.48927E+03  1.86632E+03  1.83124E+03
  2.23258E+02  3.26729E+03 -3.66531E+03  9.66793E+02  3.52872E+03  2.97581E+01  8.27441E+02  4.86044E+03
  1.85872E+03  1.83569E+03 -5.75487E+03  5.65149E+03  1.86613E+03  2.90851E+03 -9.03385E+02 -1.03069E+03
 -8.65170E+03  2.30626E+03  1.85306E+03 -2.51324E+03  3.18658E+02 -4.17694E+03  3.36361E+03 -3.05149E+03
  3.30543E+03  2.33289E+03  3.49408E+03 -3.55469E+02  1.53977E+02  2.44012E+03 -4.58375E+03 -1.09131E+00
  5.43857E+02  9.99872E+02  3.36787E+02 -6.99661E+02  3.00680E+03  1.42527E+03 -2.44484E+02  8.84911E+02
  1.44212E+03 -5.35738E+00 -8.14192E+02 -1.41011E+03 -2.51683E+03 -2.16224E+03  1.00374E+03 -4.38434E+03
 -1.42252E+03  8.32215E+02  3.49104E+03  8.44357E+02  1.60216E+02  3.64212E+03  1.11535E+03  1.65305E+03
 -2.51590E+03  1.13458E+03 -2.27664E+03  2.92591E+02  4.76227E+02 -1.09184E+03  4.30559E+03  1.19361E+03
  2.52340E+03  1.02381E+03  1.20131E+02 -2.64992E+03  3.60212E+03  1.29279E+03  8.79139E+02  5.09044E+02
  7.55543E+02 -8.83021E+02 -3.93492E+02  1.36190E+03  4.07924E+03  5.72444E+02 -4.77704E+03 -2.09335E+03
 -2.00314E+03  9.58887E+02  1.78779E+03 -1.72347E+02  6.25883E+03  3.15664E+03  6.59581E+01  2.02578E+02
  8.69194E+02 -4.11279E+03 -9.58321E+02 -8.58475E+02 -2.97484E+03  4.20890E+02 -4.74462E+02 -2.67242E+03
 -6.31019E+02  1.25210E+03  5.23599E+03  1.75623E+03  3.09138E+03 -1.94185E+03  2.81273E+03  5.45008E+02
 -2.56705E+03  1.89642E+03  1.74131E+03 -9.60994E+02 -1.89666E+03  1.79565E+03  3.06600E+03 -1.83745E+02
  5.27647E+03 -6.30154E+03  1.65928E+03  1.83299E+03 -2.72395E+02  1.52542E+03  1.97892E+03 -1.99694E+03
 -6.49059E+02 -1.05888E+03  3.24554E+03 -4.83048E+03  9.27739E+02 -4.19641E+02  2.22107E+03 -5.02408E+03
 -3.18434E+03 -1.98296E+03 -2.91621E+03  5.66600E+02  1.51810E+03  1.31047E+03  1.28221E+03 -3.62670E+03
 -2.66448E+03 -4.07612E+03  2.80802E+03  1.80815E+03  1.64159E+03 -4.12758E+03 -7.67307E+02 -1.90986E+03
  4.56222E+03 -6.81343E+02  3.00103E+03  2.63883E+03 -6.38100E+02  1.11786E+03 -3.35295E+03  1.61172E+03
 -2.12395E+03 -1.65919E+03  1.88508E+03 -3.85063E+02 -6.58225E+02  1.06629E+02  2.70755E+02 -1.46002E+03
 -2.97529E+03  4.08813E+03 -2.05206E+03  2.63659E+03 -5.31865E+03  1.33614E+03 -8.62484E+02 -9.25863E+02
  3.10613E+03  1.95997E+03 -1.73332E+03  7.66592E+02  3.90692E+03  5.40073E+02 -1.27549E+03  3.63151E+03
  2.46968E+03  4.06496E+03  1.15107E+02  5.25585E+03 -6.66071E+03 -5.25897E+03 -1.02653E+03 -6.82214E+02
 -3.73194E+03 -3.77049E+03 -2.98721E+03 -3.63388E+02  3.04733E+03 -4.91318E+02  5.62142E+03  5.51431E+03
  3.72249E+03 -1.12567E+03  1.18765E+03 -1.23840E+03  3.10954E+03 -6.01000E+02 -2.33066E+03  1.76932E+03
 -4.86318E+03  5.54972E+02  1.12554E+03  2.25101E+03  3.17268E+03 -1.68663E+02 -6.29466E+02  4.39240E+02
 -1.79381E+03 -7.22695E+02 -3.63650E+03 -2.73667E+03  3.40229E+02 -4.39538E+03  5.78994E+02 -4.15391E+03
 -1.88146E+03  2.48931E+03 -1.40854E+03 -1.34473E+03  3.90759E+03 -1.43668E+03  8.78962E+02 -1.66061E+02
  3.06746E+01  8.65823E+02  2.17583E+03 -3.62741E+01 -3.66287E+03  1.91854E-01  4.58145E+00  4.32963E+03
  2.55586E+03  1.57643E+03  1.99819E+03 -3.35752E+03  4.54805E+02  2.21178E+03  1.94617E+03  1.46075E+03
  1.52618E+03  8.11668E+02 -7.79174E+02  3.95325E+02 -7.81401E+02 -1.48249E+03  2.21995E+03  1.12358E+03
  8.25300E+02 -1.39132E+03 -1.48159E+03  9.89221E+01 -1.02787E+02 -1.36447E+03 -1.01853E+03  4.88906E+02
