 $NMID ID='MM_0lb_SNR50_9hz_g60_81.RAW', FMTDAT='(8E13.5)'
 TRAMP=1., VOLUME=1. $END
  3.08275E+05  1.36860E+03  3.37127E+05  2.54931E+05  8.72672E+04  3.32609E+05 -1.28394E+05  2.46906E+05
 -1.84856E+05  8.60265E+04 -1.10228E+05 -3.24835E+04  2.66040E+03 -5.58831E+04  4.98022E+04 -8.16566E+02
  3.01824E+04  6.07901E+04 -1.70271E+04  7.93651E+04 -6.33517E+04  6.87490E+04 -7.96808E+04  3.17213E+04
 -8.30889E+04 -7.38858E+03 -5.49463E+04 -4.81541E+04 -1.68227E+04 -7.24615E+04  2.33969E+04 -3.94292E+04
  4.22054E+04  4.15423E+03  1.12256E+04  4.13487E+04 -3.23864E+04  4.52867E+04 -7.13986E+04  9.34133E+02
 -6.05102E+04 -5.91837E+04 -9.57374E+03 -7.75336E+04  3.05876E+04 -6.24865E+04  4.97428E+04 -1.18507E+04
  5.28668E+04  1.30514E+04  3.10133E+04  2.23581E+04  1.89748E+04  2.84819E+04 -4.84424E+03  2.55481E+04
 -2.29280E+04  8.32245E+03 -1.71912E+04 -1.71961E+03  1.60841E+04 -2.53937E+03  2.80081E+04  1.59588E+04
 -1.79174E+02  3.54728E+04 -3.46542E+04  3.68085E+04 -6.59793E+04  5.25054E+03 -5.64622E+04 -3.96421E+04
 -1.32537E+04 -6.48279E+04  4.31040E+04 -4.40272E+04  6.66639E+04 -2.56301E+03  4.27276E+04  3.46082E+04
 -5.46002E+03  3.82688E+04 -3.51915E+04  2.84393E+04 -3.58328E+04 -1.17345E+04 -1.76070E+04 -8.76356E+03
 -2.38996E+02 -1.21680E+04  2.91836E+03 -1.99739E+04  7.70887E+03 -1.93970E+04  7.39696E+03 -1.31288E+04
  1.11957E+04  8.34829E+03 -1.21115E+04  1.74249E+04 -2.37749E+04 -4.21455E+03 -8.74679E+03 -4.09143E+04
  3.16438E+04 -4.85575E+04  5.75257E+04 -2.32590E+04  5.48986E+04  1.91853E+04  2.17399E+04  4.78498E+04
 -2.15667E+04  3.52798E+04 -2.69599E+04  4.43742E+03 -1.17904E+04 -3.18898E+04  2.10751E+04 -4.14883E+04
  4.77891E+04 -5.36950E+03  3.85568E+04  2.60975E+04  1.75333E+04  5.14571E+04 -1.15139E+04  5.99685E+04
 -3.65216E+04  3.94658E+04 -4.48323E+04  1.79572E+04 -4.98730E+04 -2.52454E+04 -3.09644E+04 -4.65228E+04
  8.78162E+03 -3.65202E+04  2.79222E+04 -1.95979E+04  3.48300E+04  1.21839E+04  3.36566E+03  1.96485E+04
 -2.21480E+04  7.17053E+03 -1.15843E+04 -1.11436E+04  3.11796E+03 -1.04880E+04  1.48110E+04  6.48315E+03
  1.04089E+04  1.55752E+04 -6.65594E+03  3.03269E+04 -2.69886E+04  1.81851E+04 -3.77081E+04 -4.70820E+03
 -2.97096E+04 -1.74219E+04 -1.60726E+04 -2.48963E+04  3.46479E+03 -2.96442E+04  1.93652E+04 -2.32597E+04
  4.07329E+04 -1.56890E+04  3.22064E+04  1.52207E+03  2.46566E+04  3.11171E+04  6.43509E+03  3.90310E+04
 -1.66292E+04  3.31305E+04 -3.06987E+04  7.93509E+03 -1.98899E+04 -1.00999E+04 -1.05713E+04 -8.66050E+03
  2.56344E+03 -3.44625E+03 -5.11379E+03  2.80487E+03 -2.33844E+04  4.34772E+02 -1.96838E+04 -1.19999E+04
 -1.35469E+04 -2.66201E+04 -1.10376E+03 -2.94054E+04  1.19472E+04 -1.43187E+04  1.63033E+04 -3.29440E+02
  1.66906E+04  1.51172E+04  3.53232E+03  2.43218E+04 -1.23164E+04  1.88787E+04 -3.33130E+04 -3.54722E+03
 -2.01002E+04 -2.60043E+04 -4.98369E+03 -3.19395E+04  1.26100E+04 -2.47703E+04  3.02827E+04 -1.37319E+04
  2.19238E+04 -1.80181E+02  1.99660E+04  1.39075E+04  1.31203E+04  2.77251E+03  9.48703E+03 -1.42492E+03
  1.67263E+04  3.72901E+03  2.71228E+04  1.99933E+04  2.13384E+04  3.32697E+04 -5.54910E+02  5.19566E+04
 -2.62281E+04  3.43460E+04 -4.09377E+04  1.77872E+04 -4.72932E+04 -8.74377E+03 -4.41014E+04 -1.89080E+04
 -1.09628E+04 -3.59347E+04  9.00568E+03 -2.91974E+04  2.82098E+04 -1.04483E+04  2.91021E+04  1.59999E+04
  7.20723E+03  2.08562E+04 -5.93882E+03  2.13397E+04 -1.90395E+04  5.13728E+03 -1.66367E+04 -1.02704E+04
  2.68157E+01 -1.97945E+04  1.27539E+04 -2.08045E+04  1.14267E+04 -4.85322E+03  6.40250E+03  1.12932E+04
 -3.87829E+03  1.20480E+04 -7.55480E+03 -6.84846E+03 -1.49675E+03 -1.19033E+04  1.04154E+04 -2.16061E+04
  1.85091E+04 -4.45775E+03  2.94597E+04 -1.16266E+03  2.43231E+04  1.61308E+04  1.20909E+04  2.89870E+04
 -3.28814E+03  3.65768E+04 -1.99707E+04  1.83213E+04 -2.31060E+04 -3.92110E+02 -1.76743E+04 -2.58168E+03
 -5.03186E+03 -1.35023E+04 -3.53474E+03  2.00499E+03 -5.67849E+03  1.64832E+02 -1.03975E+04  6.45964E+03
 -1.55199E+04 -8.09375E+03 -2.12410E+04 -7.79433E+03 -3.49906E+03 -2.16995E+04  7.64708E+03 -1.85669E+04
  1.54580E+04 -1.02709E+04  1.47016E+04  3.86403E+03 -7.51074E+02  7.04310E+03 -1.08233E+04 -3.46506E+03
 -1.20230E+04 -9.78942E+03 -3.85656E+03 -1.91154E+04  1.20195E+04 -1.87217E+04  2.15116E+04 -1.38734E+04
  2.58990E+04  1.59469E+04  1.65828E+04  9.92946E+03  4.07724E+03  1.61948E+04 -8.90517E+03  1.65667E+04
 -9.27355E+03  8.98971E+03  4.71755E+02 -4.11777E+03  5.73577E+02 -6.43069E+03  1.73456E+03  5.76677E+03
  6.12326E+03  6.85384E+03 -4.16591E+02  4.54056E+03 -1.96509E+04  9.84344E+03 -1.83318E+04 -1.80486E+03
 -1.16141E+04 -9.94131E+03 -4.03575E+03 -1.24180E+04  1.00986E+04 -1.28218E+04  1.59830E+04  6.21070E+03
  4.52056E+03  4.46653E+03 -1.50969E+04  1.39193E+04 -1.25153E+04  4.37834E+03 -1.47327E+04 -9.78407E+03
 -1.86815E+04 -1.27107E+04  4.80869E+03 -1.64046E+04  1.67070E+04 -1.12862E+04  1.68610E+04  2.77377E+03
  1.16503E+04  7.14295E+03  1.15840E+02  1.89999E+04 -1.38101E+04  1.43298E+04 -1.80659E+04 -2.29425E+03
 -1.27424E+04 -1.52442E+04 -6.10192E+03 -9.45291E+03  8.89109E+03 -1.28222E+04  1.05035E+04 -4.35564E+03
  8.53602E+03  1.30689E+03 -7.65214E+02 -1.00428E+03 -5.82665E+03 -3.00963E+03  4.11557E+03 -6.16281E+03
  1.36222E+04 -7.32315E+03  1.59240E+04  1.07157E+03  1.34553E+04  1.09534E+04  1.19555E+04  1.91942E+04
 -5.31595E+03  2.49906E+04 -2.35511E+04  1.69075E+04 -2.33768E+04  7.66529E+03 -1.49954E+04 -6.81811E+03
 -1.54607E+04 -1.74420E+04  4.03640E+03 -1.53820E+04  2.30958E+03 -7.84337E+03 -1.92840E+03 -6.52335E+03
 -1.14888E+02 -6.08881E+03  2.13117E+03 -4.92148E+03  4.06967E+03 -7.36620E+03  8.03200E+03  1.85687E+03
  1.75330E+04  4.26962E+03  4.53880E+03  5.76855E+03  3.56649E+03  1.79725E+04 -1.04597E+04  5.27567E+03
 -1.62020E+04 -1.40555E+03 -7.72075E+03 -7.30092E+03 -1.43116E+03 -1.29416E+04  1.35620E+04 -1.54145E+04
  1.42326E+04 -9.56185E+03  1.90270E+04  3.59802E+03  1.09307E+04  1.46433E+04  2.70252E+03  2.03972E+04
 -7.96317E+03  2.07111E+04 -8.30913E+03  1.37128E+04 -9.80049E+03  2.08249E+02 -8.35196E+03 -5.01885E+03
 -2.08780E+03 -3.94543E+02 -1.99574E+03  4.77738E+02 -8.81109E+03  2.02565E+03 -1.18720E+04 -1.38989E+03
 -1.08419E+04 -2.43750E+04  1.00474E+03 -2.17935E+04  8.99319E+03 -1.62984E+04  1.72846E+04 -7.30594E+00
  2.29780E+04  6.65113E+03  7.05817E+03  7.86548E+03 -9.56364E+03  1.64489E+04 -1.33631E+04  1.22766E+04
 -1.68406E+04 -2.65983E+03 -1.63843E+03 -1.37840E+04 -1.82558E+03 -1.73991E+04  7.75527E+03 -1.55599E+04
  6.88932E+03 -3.85348E+03  7.53983E+03  5.93927E+03  7.18465E+03  2.58476E+03  2.19386E+03 -4.65654E+03
 -1.97074E+02 -4.99857E+03 -9.14976E+02  3.75088E+03  5.89241E+03  4.28489E+03  5.22850E+03  6.66247E+03
 -8.63291E+03  9.98943E+03 -8.19908E+03  3.39710E+03 -1.48041E+04  1.13025E+03 -1.79544E+04 -2.29086E+03
 -9.44125E+03 -1.79549E+04  3.98132E+03 -2.04072E+04  8.83959E+03 -8.26809E+03  9.55969E+03 -3.25793E+03
  8.53169E+03  2.39058E+03  3.93735E+03  1.91451E+04 -3.69053E+03  7.76511E+03 -9.65486E+03  2.54158E+03
 -5.93265E+02 -6.70251E+03  3.65951E+03 -8.04482E+03  9.92624E+03 -4.88152E+03  3.99281E+03  1.61545E+02
  3.32682E+03 -1.20178E+03  7.63481E+01  4.46649E+03 -1.66957E+03  2.97595E+02  4.08886E+03 -3.29244E+03
 -3.73798E+02  1.46133E+03  1.42721E+04  6.12664E+03  3.35941E+03  9.11736E+03  1.80707E+03  8.46251E+03
 -9.95742E+03  1.16472E+04 -1.88978E+04  3.96892E+03 -1.19752E+04 -4.51321E+03 -1.01717E+04 -6.13517E+03
 -2.44888E+02 -1.34418E+04  1.78194E+03 -7.92022E+02 -3.29871E+03  7.76293E+03 -1.44992E+03 -1.62379E+03
 -8.01526E+03  2.74617E+03 -1.14982E+04 -5.57361E+03 -5.46160E+03 -6.19302E+03  6.03775E+03 -1.39104E+04
 -5.61173E+03  3.95660E+03 -2.63046E+02  2.70984E+03  1.34171E+03  6.51578E+03  4.08745E+03  2.16964E+03
 -4.25962E+02 -1.07144E+01 -8.12765E+03  8.84700E+02  3.23464E+03 -7.48969E+03  1.05852E+04 -5.50503E+03
  6.41815E+03  5.30641E+03  1.93403E+03  1.45997E+03  2.03236E+03  1.13807E+04 -4.39223E+03  1.28002E+04
 -1.42645E+04  1.36520E+04 -6.68798E+03  1.62910E+03 -1.47649E+03 -1.43928E+03 -1.96025E+03 -6.93819E+03
  6.25160E+03  4.47561E+03  5.51264E+03  9.88248E+03  4.69080E+03 -1.60563E+03 -7.85796E+03  7.42853E+03
 -5.03411E+02 -1.68703E+03 -8.24475E+03  1.18255E+04 -4.32923E+03  5.37510E+02 -6.14218E+03  5.71493E+02
 -3.43568E+03  1.73123E+03 -6.14487E+03  6.69707E+03 -9.56132E+03  1.86903E+03 -5.04943E+03 -1.27063E+04
 -1.95570E+04 -1.08334E+04 -3.73564E+03 -1.53146E+04  1.15249E+04 -1.67565E+04  1.45687E+04 -5.02235E+03
  1.53542E+04 -2.55086E+03  8.38288E+03  8.96295E+03 -6.47216E+03  1.63015E+04 -5.86106E+03  5.46020E+03
 -5.16571E+03 -4.83964E+03 -3.82495E+03 -8.69341E+03 -1.13036E+03  1.55438E+03 -1.72681E+03 -4.39519E+02
 -2.92894E+02 -1.56965E+03 -7.30330E+03  3.23473E+03 -1.19587E+03 -2.76636E+03 -1.76631E+03 -3.68976E+03
  9.02824E+03 -7.94223E+03  3.90806E+03  8.04056E+01  3.06021E+03  3.81276E+03  1.48889E+04  1.28708E+04
 -6.79142E+03  1.38326E+04 -6.65536E+03  4.06630E+03 -1.54412E+04  2.24948E+03 -3.74796E+03 -6.63573E+03
 -1.56985E+03 -1.26407E+04 -6.69419E+03 -1.36249E+04  1.16291E+04 -3.26802E+03  2.77911E+03  2.63846E+03
  8.53528E+03  5.38564E+03 -6.01978E+03  9.68476E+03 -6.56559E+02 -1.09770E+03  5.34244E+03  2.23155E+03
  4.44105E+02 -1.98469E+02  3.21518E+03  5.08166E+03  5.23273E+03  5.94691E+03  8.04718E+02 -1.57120E+03
 -2.30661E+03  4.90338E+03 -1.10544E+04 -2.30683E+03 -9.97535E+03 -6.03815E+03 -5.12182E+03 -5.42075E+03
  4.51338E+03 -3.98133E+03  1.01968E+04  4.21563E+02  9.29571E+03 -2.68427E+02  9.40967E+03  1.29787E+04
  4.23624E+03  6.39688E+03 -3.24536E+01  7.79558E+03 -3.94053E+03 -2.63033E+03 -3.25275E+02 -1.15739E+03
 -1.61892E+03 -4.11220E+03 -1.06076E+03  1.87253E+03 -3.64478E+03  3.64799E+03 -5.25126E+03 -6.91562E+02
 -3.58067E+03 -5.05230E+03 -6.21644E+03 -9.09233E+03  3.67487E+02  3.85621E+03  7.99648E+03 -4.72298E+03
  3.03599E+03 -5.70023E+03  4.80112E+03  1.03641E+03 -6.15634E+03  1.04665E+04 -3.19547E+03  1.08085E+04
