 $NMID ID='MM_0lb_SNR50_9hz_g55_31.RAW', FMTDAT='(8E13.5)'
 TRAMP=1., VOLUME=1. $END
  3.10606E+05 -4.94187E+03  3.32094E+05  2.57388E+05  8.56000E+04  3.34840E+05 -1.29578E+05  2.46016E+05
 -1.90547E+05  8.76984E+04 -1.13807E+05 -2.73029E+04  4.43454E+03 -5.06030E+04  5.34609E+04  6.05289E+02
  3.18246E+04  5.43800E+04 -1.49428E+04  7.47715E+04 -6.30617E+04  6.68655E+04 -8.21223E+04  2.63274E+04
 -8.88270E+04 -1.19358E+04 -4.81341E+04 -5.47722E+04 -1.07373E+04 -7.01839E+04  2.50236E+04 -4.33326E+04
  4.27628E+04  6.86263E+02  1.52191E+04  4.28646E+04 -3.46136E+04  4.51274E+04 -6.67138E+04 -1.63404E+02
 -5.06128E+04 -5.57440E+04 -6.51024E+03 -8.24560E+04  3.23289E+04 -5.24636E+04  4.80991E+04 -1.56168E+04
  4.17995E+04  1.18475E+04  3.58128E+04  2.84651E+04  1.08542E+04  3.72386E+04 -7.25338E+03  2.82075E+04
 -2.82686E+04  1.28840E+04 -2.40027E+04 -4.79054E+03  1.06255E+04 -7.08359E+03  2.29863E+04  1.57527E+04
  4.93180E+03  4.04210E+04 -3.48490E+04  4.12180E+04 -6.11388E+04 -4.15487E+02 -5.80694E+04 -4.28886E+04
 -8.06033E+03 -6.14575E+04  4.17105E+04 -5.35314E+04  6.22475E+04 -1.52343E+03  4.04046E+04  3.47840E+04
 -6.97996E+03  3.88951E+04 -2.81964E+04  1.82555E+04 -2.59877E+04  2.91752E+02 -1.76635E+04 -1.77075E+04
 -6.92941E+03 -1.31511E+04 -1.85121E+03 -1.96348E+04  8.71848E+03 -2.77172E+04  1.50757E+04 -1.48859E+04
  1.30644E+04  7.79321E+03 -7.81991E+03  1.76618E+04 -2.42027E+04 -9.51006E+03 -1.33851E+04 -4.11611E+04
  2.53186E+04 -4.61568E+04  4.49458E+04 -2.26996E+04  4.51519E+04  2.16697E+04  1.80975E+04  4.83477E+04
 -1.99296E+04  3.42841E+04 -2.97612E+04 -3.52049E+03 -6.43520E+03 -2.54658E+04  1.44952E+04 -4.20230E+04
  3.92604E+04 -1.17369E+04  4.72859E+04  2.86694E+04  2.58667E+04  4.74758E+04 -6.12796E+03  6.06351E+04
 -3.66551E+04  3.37336E+04 -4.87699E+04  1.06701E+04 -4.59213E+04 -1.54183E+04 -2.27662E+04 -3.89629E+04
  6.37643E+03 -4.59893E+04  2.89585E+04 -1.47467E+04  3.19900E+04  1.32998E+04  4.51729E+03  2.03658E+04
 -1.25308E+04  9.64679E+03 -6.65513E+03 -8.86819E+03  7.84498E+03 -1.17928E+04  1.36504E+04  4.44016E+03
  1.40243E+04  1.89641E+04 -8.93253E+03  2.26244E+04 -1.82589E+04  1.10387E+04 -2.83258E+04 -2.78701E+03
 -2.81085E+04 -1.78603E+04 -5.25170E+03 -2.46309E+04  7.54898E+03 -2.76768E+04  1.85099E+04 -1.67662E+04
  3.38493E+04 -1.87721E+04  4.05926E+04  7.62536E+03  3.15483E+04  2.98571E+04  8.94873E+01  4.43590E+04
 -1.99545E+04  3.51537E+04 -3.55741E+04  1.04624E+04 -1.82116E+04 -1.63002E+04 -3.34238E+03 -1.77412E+04
 -1.02181E+03 -2.09865E+02 -6.01361E+02  2.58129E+03 -2.52191E+04 -1.66433E+03 -1.88377E+04 -1.11254E+04
 -6.64479E+03 -2.22660E+04  1.61071E+04 -2.47868E+04  2.05839E+04 -2.44274E+04  2.98521E+04 -8.42132E+03
  1.64933E+04  1.57473E+04 -2.88688E+03  2.97927E+04 -1.59709E+04  1.34191E+04 -2.11758E+04 -7.11830E+03
 -1.67855E+04 -1.54340E+04  3.87629E+02 -2.52098E+04  7.75851E+03 -2.52662E+04  2.64682E+04 -1.10802E+04
  2.18215E+04 -6.82727E+03  1.33959E+04  7.55641E+03  1.07250E+04  2.74883E+03  1.32058E+04 -1.78361E+02
  2.33622E+04  2.07196E+03  2.94369E+04  1.64073E+04  2.24262E+04  3.87335E+04 -2.42867E+03  4.98566E+04
 -2.83870E+04  4.34068E+04 -3.73391E+04  2.17111E+04 -4.86812E+04 -7.47472E+03 -4.00823E+04 -2.76232E+04
 -1.19652E+04 -3.94653E+04  1.63948E+04 -2.79509E+04  2.37484E+04 -2.02668E+04  2.16750E+04  1.15595E+04
  1.03502E+04  2.35043E+04 -1.23284E+04  1.65367E+04 -2.27221E+04 -2.42980E+03 -1.28139E+04 -1.58572E+04
  2.53769E+03 -1.66351E+04  1.06583E+04 -1.71183E+04  1.11911E+04 -7.03005E+03  1.36456E+03  1.20232E+04
 -1.31174E+04  5.84487E+03 -7.67194E+03 -9.96995E+03  8.12152E+02 -1.29646E+04  1.11212E+04 -2.11210E+04
  1.96973E+04 -1.13136E+04  2.49596E+04  1.76060E+03  2.58869E+04  1.35480E+04  9.96873E+03  2.84664E+04
 -3.97870E+03  3.34046E+04 -2.00797E+04  2.54196E+04 -2.18408E+04  3.02062E+03 -1.37142E+04 -4.02571E+03
 -7.86106E+03 -9.07532E+03  2.62163E+03 -4.12550E+03  2.74137E+03  5.38131E+03 -9.47161E+03  9.36163E+03
 -1.27576E+04 -4.68800E+02 -9.15028E+03 -1.00716E+04 -8.10098E+03 -2.69762E+04  4.83923E+03 -1.09110E+04
  1.55425E+04 -1.03732E+04  1.25305E+04  5.54250E+03 -4.07386E+03  7.26149E+03 -8.64153E+03 -2.24507E+03
 -1.81208E+04 -9.91180E+03 -2.78269E+03 -1.36480E+04  7.65991E+03 -1.07355E+04  2.53448E+04 -6.70409E+03
  2.89032E+04  3.27230E+03  2.16055E+04  2.26162E+04  8.57739E+03  2.21884E+04 -1.48004E+04  1.94031E+04
 -1.03352E+04  5.74450E+03 -1.21733E+04  3.51275E+03  3.26016E+01 -6.27699E+03  4.86521E+03 -1.57132E+03
  1.44214E+04  1.23096E+04 -1.25637E+03  8.40119E+03 -1.08294E+04  1.43197E+04 -1.48428E+04  2.33168E+03
 -1.14815E+04 -1.01305E+04 -3.25283E+03 -1.72626E+04  1.27124E+04 -7.08805E+03  1.35635E+04  5.66956E+03
 -3.40701E+03  1.28766E+04 -1.48063E+04  8.65197E+03 -1.56442E+04  7.98277E+03 -1.38827E+04 -6.07336E+03
 -7.47359E+03 -1.32369E+04  2.07102E+03 -1.50034E+04  1.72745E+04 -4.82389E+03  1.76386E+04  1.68964E+03
  9.84596E+03  1.37563E+04  4.70001E+02  8.41036E+03 -1.53418E+04  7.12094E+03 -7.11031E+03 -1.23082E+03
 -8.80996E+03 -1.54765E+04 -4.47082E+03 -1.10925E+04  4.57236E+03 -7.95124E+03  8.58003E+03 -4.64853E+03
  4.90850E+03  3.25396E+03 -4.95168E+03  1.49443E+03 -8.65734E+03 -8.95768E+03  9.14463E+02 -1.20588E+03
  9.17884E+03 -4.29916E+03  1.66079E+04  7.45239E+03  1.46962E+04  1.16572E+04  1.18691E+04  2.05265E+04
 -4.76170E+03  2.20687E+04 -2.09911E+04  1.43403E+04 -2.45011E+04  2.45845E+03 -2.05022E+04 -1.03058E+04
 -1.33851E+04 -1.88533E+04 -2.42354E+03 -1.51270E+04  4.40934E+03 -1.25114E+04  8.84084E+03 -2.79817E+03
  4.98033E+03 -7.20322E+03  3.84591E+03 -1.49604E+04  1.17608E+04  1.03403E+03  9.69813E+03  1.64313E+03
  1.48086E+04 -2.50468E+03  1.71783E+04  8.58341E+03  5.64230E+03  1.71900E+04 -1.36876E+04  4.91527E+03
 -1.18039E+04  5.11063E+03 -8.36380E+03 -1.31280E+04 -2.75280E+03 -1.51064E+04  7.86792E+03 -1.65949E+04
  2.04913E+04 -8.38442E+03  1.73476E+04  2.33583E+03  1.57045E+04  1.60525E+04  4.84500E+03  2.51365E+04
 -6.94338E+03  1.25920E+04 -1.24013E+04  2.98962E+03 -8.72920E+03  6.01638E+02 -2.56552E+03 -4.59557E+03
 -1.66778E+03 -2.04781E+03 -4.27132E+03  4.19717E+03 -2.80705E+03 -1.17389E+03 -8.01841E+03 -9.48881E+02
 -6.21560E+03 -1.41076E+04 -4.24520E+03 -1.75409E+04  1.45355E+04 -1.50482E+04  1.00825E+04 -7.54646E+03
  1.51519E+04  7.40117E+03  3.70860E+03  1.15023E+04  4.32525E+03  1.32496E+04 -1.17258E+04  1.29744E+04
 -8.74832E+03  5.08136E+02 -1.65852E+04 -1.21516E+04  7.71421E+02 -1.01818E+04  8.04981E+03 -9.97736E+03
  4.41167E+03 -7.21102E+03  7.99185E+03  8.51517E+03  3.90859E+02  2.37333E+03  3.01721E+03 -1.31438E+02
  5.38579E+03  2.78174E+03  5.89070E+03 -3.50272E+03  3.57224E+02 -1.69944E+02  2.21640E+03  1.32131E+04
 -3.50052E+03  1.16911E+04 -6.34795E+03  1.11789E+04 -1.74472E+04  4.40457E+03 -2.18890E+04 -7.23345E+03
 -7.69894E+03 -2.34225E+04  7.85121E+03 -1.72260E+04  8.06391E+03 -1.02568E+04  2.07544E+04  1.10741E+03
  8.87907E+03  1.11719E+04 -2.52298E+03  8.12591E+03 -5.53401E+03  7.23964E+02 -5.55063E+03  1.22064E+03
  2.96811E+03 -1.19842E+04  7.22141E+03 -4.28114E+03  6.16453E+03 -5.94325E+03  5.34469E+03  2.79384E+02
  4.35348E+02  2.71234E+03 -7.00133E+02  1.42450E+03  6.07298E+02  4.30720E+03  1.03962E+03  9.78343E+02
  1.16615E+03 -5.25483E+03  9.29323E+03  7.90912E+02  7.09568E+02  1.43511E+04  4.11132E+02  1.26061E+04
 -6.80589E+03  4.34771E+03 -1.11839E+04  3.54893E+02 -1.23182E+04 -2.45439E+03 -3.15564E+03 -1.94891E+03
  4.57009E+03 -7.45652E+03  4.27133E+03 -4.21142E+03  3.09013E+02  5.95917E+02 -5.90381E+03  2.07100E+03
 -6.69999E+03  7.30052E+03 -4.18252E+03 -1.73116E+03 -2.57954E+03 -6.32401E+03 -5.92711E+02 -1.14167E+04
  1.25749E+03 -4.27030E+03  6.65921E+03  3.14505E+03  6.50388E+03 -2.35374E+03 -5.21611E+03  1.89869E+02
 -4.57038E+03 -1.52840E+03 -1.44888E+03 -6.87027E+03  7.29204E+02 -8.94131E+03  1.38454E+04 -3.38052E+03
  1.10194E+04  2.18127E+02  1.35769E+04  6.79845E+03 -2.94555E+03  8.32000E+03 -8.64777E+03  9.99354E+03
 -1.27327E+04  5.97418E+03 -2.11242E+03  2.17280E+03  1.04274E+03 -6.63370E+03 -3.97613E+03 -8.36013E+03
  6.94151E+03  2.49801E+02  8.45727E+03  1.98682E+03 -2.34611E+03  7.16547E+03 -1.42475E+03 -8.75088E+02
  1.61417E+03 -1.20756E+03 -5.14108E+03 -2.68442E+03  3.39205E+03 -1.98606E+03 -5.61420E+03  7.95928E+03
 -3.58641E+03  3.83677E+03 -8.08250E+03  5.30182E+03 -1.09971E+04  2.34897E+03 -1.40809E+04 -5.85388E+03
 -1.12630E+04 -1.04522E+04  3.92022E+03 -2.27668E+04  4.36993E+03 -1.63265E+04  7.21448E+03  2.43102E+03
  1.31874E+04 -9.06334E+01  8.48499E+03  1.15078E+04  2.26339E+03  7.73405E+03 -1.14584E+04  9.56336E+03
 -7.31637E+03  8.63218E+03 -8.49721E+03 -4.63201E+03 -1.50999E+03 -3.50619E+03  1.98507E+03  1.46909E+03
 -2.64648E+02  2.18717E+03 -7.69593E+03 -5.81670E+03 -1.67396E+02  1.71257E+01 -2.71264E+03 -3.76483E+03
  5.04266E+03  4.31040E+03  6.01543E+03  3.46922E+03  1.02805E+04  3.93196E+03  1.51665E+03  1.54761E+04
 -4.63831E+03  1.57372E+04 -1.29410E+04  7.63440E+03 -1.18873E+04 -1.10354E+03 -5.42191E+03 -7.07178E+03
 -7.81938E+03 -9.18368E+03  8.43972E+03 -3.48273E+03  7.99478E+03 -7.20293E+02  5.05266E+03  4.89260E+03
  1.66946E+03  3.33607E+03 -4.23023E+03  3.14561E+03 -4.38379E+03 -3.95487E+03 -3.95937E+03 -5.28904E+03
  5.84583E+03 -2.10497E+03  8.52175E+03 -1.91553E+03  5.43962E+03  1.35052E+03  3.31455E+03  6.42576E+03
 -7.65920E+02  3.59936E+03 -1.12053E+04 -2.90974E+03 -9.89994E+03  2.74295E+02 -2.25768E+03 -1.05302E+04
  8.06014E+03 -1.05167E+04  5.95605E+03 -2.88849E+03  7.59913E+03  4.04229E+02  7.00420E+03  3.24406E+03
  2.29191E+03  6.99279E+03 -5.71506E+03  9.87044E+03  2.57744E+03  3.60593E+03 -2.99629E+03 -7.61909E+03
 -3.86319E+01 -1.13424E+03 -1.47296E+03 -2.29467E+03 -4.76849E+03  3.32992E+03 -4.98400E+03  1.15993E+03
 -7.77339E+03 -1.45740E+04 -5.00282E+03 -4.85388E+03  4.14301E+03 -8.41395E+03  4.56377E+03 -5.23540E+03
  6.58834E+03  1.50723E+03  1.15717E+03  2.77424E+03  3.62877E+03  9.54482E+03 -2.90764E+03  1.35312E+03
