 $NMID ID='MM_0lb_SNR50_15hz_g60_13.RAW', FMTDAT='(8E13.5)'
 TRAMP=1., VOLUME=1. $END
  3.11998E+05 -3.34123E+02  3.36942E+05  2.53432E+05  8.40593E+04  3.37331E+05 -1.27104E+05  2.51388E+05
 -1.86285E+05  8.46255E+04 -1.08574E+05 -3.41490E+04 -4.08147E+03 -5.51744E+04  5.44904E+04  3.48032E+02
  3.58197E+04  4.79612E+04 -1.43270E+04  7.17758E+04 -5.82830E+04  5.74886E+04 -8.41380E+04  2.74077E+04
 -8.13378E+04 -1.45133E+04 -6.45883E+04 -5.56306E+04 -1.67424E+04 -6.89543E+04  2.79314E+04 -4.52147E+04
  3.64166E+04  2.74860E+03  1.95800E+04  4.66935E+04 -3.21724E+04  4.65278E+04 -6.73535E+04 -1.54566E+03
 -5.35246E+04 -5.08840E+04 -8.54338E+03 -7.64988E+04  3.27464E+04 -5.07725E+04  4.75111E+04 -1.67134E+04
  4.49882E+04  7.50316E+03  3.17237E+04  2.87972E+04  1.47939E+04  2.94277E+04 -4.86587E+03  2.92475E+04
 -2.21056E+04  1.55444E+04 -2.42521E+04 -2.92272E+03  3.83126E+03 -1.02172E+04  2.65042E+04  1.27651E+04
  8.10757E+03  3.51997E+04 -3.07048E+04  3.80469E+04 -6.13912E+04 -1.45856E+03 -5.60727E+04 -4.22465E+04
 -1.54491E+04 -6.46228E+04  4.14269E+04 -4.32806E+04  5.77842E+04 -1.66770E+03  3.43815E+04  3.21799E+04
 -3.87653E+03  3.71795E+04 -2.80394E+04  1.31551E+04 -3.06797E+04 -2.93635E+03 -2.24763E+04 -1.53145E+04
 -7.63130E+03 -1.51701E+04  8.72871E+02 -1.91792E+04  9.96330E+03 -1.99370E+04  1.36809E+04 -1.66282E+04
  1.23790E+04  6.30893E+03 -4.67337E+03  1.71491E+04 -2.22916E+04 -9.06307E+03 -9.59065E+03 -3.14294E+04
  2.42118E+04 -4.22478E+04  4.70984E+04 -1.44648E+04  4.75655E+04  2.24152E+04  1.37320E+04  4.43924E+04
 -1.42353E+04  3.45249E+04 -2.78672E+04  5.08218E+03 -1.12679E+04 -2.90753E+04  2.13366E+04 -3.54495E+04
  4.04914E+04 -7.91542E+03  3.67574E+04  2.29389E+04  1.79520E+04  5.29483E+04 -9.14001E+03  5.35556E+04
 -3.09197E+04  3.50379E+04 -3.90438E+04  9.47319E+03 -4.79853E+04 -2.20847E+04 -2.16395E+04 -3.72718E+04
  1.27732E+04 -3.06746E+04  2.98223E+04 -1.31822E+04  2.46777E+04  1.22886E+04  3.85929E+02  1.45787E+04
 -1.38031E+04  9.13456E+03 -1.06930E+04 -4.01301E+03  1.02199E+04 -9.37875E+03  2.01472E+04  4.35580E+03
  1.37133E+04  2.55427E+04 -3.24722E+03  2.47165E+04 -2.95558E+04  1.17295E+04 -2.93460E+04 -8.08008E+03
 -2.16805E+04 -1.64074E+04 -7.82833E+03 -2.06405E+04  8.81235E+03 -2.15411E+04  1.14213E+04 -1.94454E+04
  2.74654E+04 -9.46332E+03  3.19515E+04  8.58211E+03  2.46251E+04  1.77790E+04  1.86583E+03  3.64343E+04
 -1.07446E+04  2.54157E+04 -2.65899E+04  9.89187E+03 -1.84891E+04 -1.12474E+04 -8.11200E+03 -1.45131E+04
  3.59512E+03 -2.89206E+02 -2.06123E+03  7.85153E+03 -1.76776E+04  2.10145E+03 -1.61475E+04 -8.56209E+03
 -9.78084E+03 -1.87698E+04  4.03781E+03 -1.92141E+04  1.59873E+04 -1.66386E+04  1.97791E+04 -1.99872E+03
  1.06526E+04  1.14691E+04 -2.71188E+03  2.35513E+04 -1.13372E+04  1.17833E+04 -2.49874E+04 -1.39192E+03
 -1.46848E+04 -1.44253E+04 -2.57075E+03 -2.04977E+04  1.37299E+04 -1.98146E+04  2.40027E+04 -1.25650E+04
  1.61607E+04  5.03479E+02  1.57836E+04  9.96254E+03  6.55844E+03 -5.08488E+02  1.02736E+04  1.62722E+03
  2.09697E+04 -3.36977E+02  2.51961E+04  1.38741E+04  1.74239E+04  3.08041E+04 -2.85349E+03  3.72419E+04
 -2.34649E+04  2.90369E+04 -3.05556E+04  1.57493E+04 -3.50887E+04 -1.14639E+02 -3.00093E+04 -1.59958E+04
 -1.24743E+04 -2.97532E+04  8.61871E+03 -2.65039E+04  1.78273E+04 -1.02907E+04  2.24171E+04  2.75851E+03
  4.37589E+03  1.08504E+04 -1.22710E+04  1.88308E+04 -2.06375E+04  6.26530E+02 -1.19169E+04 -1.04779E+04
 -1.52987E+03 -1.54105E+04  8.21482E+03 -4.56495E+03  1.09157E+04 -4.16633E+03  4.12931E+03  4.78657E+03
 -5.65524E+03  4.80685E+03 -7.02447E+03 -5.18663E+03 -1.68047E+03 -1.28179E+04  8.00810E+03 -1.30114E+04
  2.04051E+04 -8.22582E+03  1.72286E+04 -1.07041E+02  9.39239E+03  9.85698E+03  4.67538E+03  1.97278E+04
  2.64283E+02  2.51523E+04 -8.92380E+03  1.80995E+04 -1.55971E+04  5.72894E+03 -9.98597E+03 -4.60670E+03
 -5.17866E+02 -3.43903E+03 -2.73197E+02  1.43574E+03 -3.51487E+03  9.18280E+02 -2.04345E+03  4.19926E+03
 -1.06400E+04 -7.84416E+02 -9.41838E+03 -1.10208E+04 -7.26848E+03 -1.19755E+04  6.03264E+03 -1.41686E+04
  9.03985E+03 -7.11430E+03  4.87811E+03  4.46473E+03  7.52949E+02  6.97783E+03 -8.11954E+03  1.31195E+03
 -3.91088E+01 -9.71027E+03 -4.56371E+03 -8.88987E+03  3.31356E+03 -1.53942E+04  1.75912E+04 -2.68280E+03
  2.22427E+04 -1.19741E+03  1.45454E+04  1.28710E+04  3.17750E+03  1.47355E+04 -1.08044E+04  1.36374E+04
 -1.13081E+04  4.88711E+03 -4.76302E+03 -9.63816E+02  1.67685E+03 -4.35555E+03  1.14460E+04 -1.15906E+03
  7.62551E+03  4.44190E+03 -2.59705E+02  6.57440E+03 -9.54022E+03  6.32196E+03 -6.45521E+03  5.61199E+03
 -6.73327E+03 -9.96117E+03  5.73540E+03 -1.25390E+04  5.00083E+03 -3.98915E+03  7.92141E+03  3.76894E+03
  2.97264E+03  3.45398E+03 -3.86748E+03  3.82940E+03 -1.10470E+04  1.10065E+03 -8.68391E+03 -2.64781E+03
 -9.62219E+03 -4.46300E+03 -1.12292E+03 -1.06274E+04  1.15377E+04 -7.15541E+03  8.99036E+03  2.97919E+03
  3.49642E+03  1.13375E+04 -2.13126E+03  6.28774E+03 -9.73806E+03  9.19853E+03 -6.80461E+03 -5.28245E+03
 -7.14041E+03 -6.56059E+03 -3.05787E+03 -6.20178E+03  3.00947E+03 -5.38185E+03  7.38684E+03 -1.12975E+03
  7.41321E+02  4.99642E+03 -1.45722E+03  1.57316E+03  2.23611E+02  5.78748E+03 -2.29947E+03 -8.38444E+02
  8.57672E+03  3.48461E+02  7.55929E+03  2.36573E+03  1.10576E+04  5.62319E+03  4.90442E+03  8.99640E+03
 -5.26361E+03  1.66937E+04 -1.23165E+04  1.14888E+04 -2.25904E+04 -2.84295E+03 -1.17406E+04 -5.03201E+03
 -3.05573E+03 -8.57274E+03 -9.08684E+02 -4.84406E+03  2.14223E+02 -5.50204E+03  5.23905E+03  4.73431E+02
  1.62693E+03  2.49840E+03  4.19423E+03 -5.33085E+03 -2.33251E+02 -8.39742E+02  5.18321E+03  3.83603E+03
  9.93431E+03  3.95239E+03  2.46496E+03  7.19152E+02 -7.46371E+02  6.36451E+03 -6.81057E+03  4.86091E+03
 -6.96941E+03 -1.91328E+03 -1.06570E+03 -7.05054E+03  4.07191E+02 -9.03573E+03  9.43202E+03 -5.48224E+03
  6.86531E+03 -7.01665E+03  9.77206E+03  4.92922E+02  3.14117E+03  4.64156E+03 -1.52607E+03  8.49855E+03
  3.73042E+00  7.89863E+03  2.03516E+02  7.05671E+03 -7.66171E+03  4.75545E+03  6.41880E+02 -4.60466E+02
 -1.84568E+03  2.33370E+03 -2.94911E+03  6.25159E+02 -4.69980E+03  1.34338E+03 -9.96270E+03  4.28698E+02
 -2.86475E+03 -1.76645E+03 -2.34841E+02 -6.10952E+03  6.48463E+03 -9.23072E+03  1.17725E+04 -3.10373E+03
  6.28529E+03  7.18043E+03  7.65799E+03  3.10556E+03 -1.26734E+03  1.07092E+04 -4.42875E+03  5.61220E+03
 -5.57840E+03  1.15428E+03 -6.83733E+03 -7.96592E+03 -1.13113E+03 -9.08779E+03  2.91705E+03 -2.70945E+03
  2.06629E+03 -7.88612E+03  6.28241E+03 -3.98827E+03 -1.40890E+02  5.37842E+03  1.91088E+03  1.92027E+03
  3.57719E+03 -2.96448E+03  1.57018E+02  1.08578E+01  1.36262E+03  3.32491E+03  2.64554E+03  5.10779E+02
 -9.72883E+02  6.56942E+03 -2.94952E+03  7.71094E+03 -9.91540E+03  6.04514E+03 -9.49074E+03 -1.25842E+03
 -2.73977E+03 -5.56277E+03  4.27214E+03 -8.24010E+03  4.53414E+03 -2.27574E+03  1.15945E+04  3.26592E+02
  3.12098E+03  6.61967E+03 -9.69293E+02  2.75871E+03 -3.27876E+03  3.32481E+03 -5.99576E+03 -3.97745E+03
 -4.39947E+02 -3.98368E+03  2.93546E+03 -5.59707E+03 -3.16822E+03 -5.17463E+03  3.15908E+03 -4.58725E+03
  3.92387E+03 -3.29842E+03  5.13574E+03 -3.93267E+03 -3.00319E+03  2.16828E+03  2.58947E+03  1.72382E+03
  7.21124E+02 -2.06365E+02 -1.57519E+03  1.81609E+03  3.42315E+03  7.94947E+03  9.79721E+02  7.56892E+03
 -4.86822E+03  3.85661E+03 -2.41431E+03 -1.37820E+03 -5.37506E+03  2.63040E+03  3.58936E+03 -4.69513E+02
  1.51854E+03 -1.78394E+03  1.32607E+03 -1.71423E+03  1.25288E+03 -1.60959E+03 -3.16056E+03 -9.13585E+02
  9.97358E+02  1.99254E+03 -2.78467E+03 -1.20509E+02 -3.76021E+03 -3.50996E+03 -2.09056E+03 -1.09218E+04
  9.36229E+01 -3.65584E+03  4.74156E+03 -2.47990E+03  2.22964E+03 -2.06766E+03 -1.39726E+03  4.25446E+02
  1.90823E+02 -3.08350E+03 -1.09977E+04  7.33559E+03  7.91935E+02 -3.26461E+03  6.89680E+03  3.09680E+02
  5.77233E+03  2.39157E+03  4.12898E+03  3.35005E+03  1.15108E+03  7.44220E+03 -2.84614E+02  4.68133E+03
  2.60497E+01  2.00856E+03 -3.92479E+03  3.78107E+02 -3.26079E+03  9.35232E+00  1.97212E+03 -2.80423E+03
  6.84479E+01  1.90989E+03 -6.82158E+02  5.11724E+03 -1.90215E+02  1.26764E+03 -6.82856E+02 -3.53749E+01
  8.75394E+02 -3.42488E+03 -5.37876E+03  2.51707E+03 -8.00446E+03 -2.42319E+03 -2.40392E+03  3.65693E+03
  2.45765E+03  9.86732E+02 -1.18441E+04  4.05255E+03 -6.84667E+02 -2.54764E+03 -4.98514E+03  2.42910E+02
 -1.31198E+03 -6.06085E+03  4.41547E+02 -7.35854E+03  3.00973E+03 -3.76400E+03  6.32004E+03  9.19492E+02
  1.30915E+03  1.56883E+03 -5.84245E+02 -7.04741E+02 -6.91555E+02  7.08164E+02  2.24953E+03  5.19511E+03
 -3.21494E+03  1.05814E+03 -2.43300E+03  9.20811E+02  1.06721E+02  5.33473E+03  6.37041E+03 -2.35022E+03
  1.06500E+03 -2.13255E+03  2.24521E+02  5.71765E+03 -4.68556E+03 -4.55024E+03 -2.53734E+03 -3.92451E+02
  4.56389E+03 -2.31667E+01  1.96780E+03  3.00817E+03  8.49426E+03  2.46052E+03  1.72545E+03  4.63283E+03
 -2.99552E+03  1.12551E+03 -5.94377E+03  4.21107E+03 -4.37885E+03 -2.80659E+03 -3.85508E+03 -9.35330E+03
 -4.20704E+03 -1.34670E+03 -7.99246E+02 -2.09357E+03  3.25340E+03  1.80796E+03  3.20044E+02  3.27773E+03
 -4.08395E+03  9.23165E+02 -2.07181E+03 -1.15763E+02  3.25919E+03  3.30903E+03 -4.97453E+03 -1.04161E+03
 -3.17058E+03 -2.83398E+03 -2.66679E+03  5.40918E+03 -3.39059E+02  1.02994E+03 -1.58491E+03 -3.75929E+03
  2.14957E+03  2.24349E+03 -3.70116E+03 -4.10598E+01  7.38146E+01 -2.40864E+03 -1.93462E+03 -3.90550E+03
 -5.67654E+02 -1.91126E+02 -2.74578E+03  3.75640E+03  6.05862E+03 -2.17498E+03 -3.15087E+03  5.62743E+03
  1.74939E+03  7.29246E+02 -3.12908E+03  4.67089E+03 -3.52576E+03  9.97476E+02  2.93711E+03 -1.33988E+02
  2.10338E+03  5.06651E+02 -3.02932E+03 -1.25446E+03 -4.69080E+02  3.64042E+02 -2.12046E+03 -2.41206E+03
 -2.99765E+03 -7.38417E+02  3.16391E+03 -1.63517E+03  6.71572E+02 -2.36125E+03  5.37722E+02  2.19292E+03
  6.06790E+03  2.29803E+03 -1.76715E+02  1.34130E+03 -4.81503E+02  1.31107E+03 -8.78906E+02  4.16316E+03
