 $NMID ID='MM_0lb_SNR50_7hz_g55_81.RAW', FMTDAT='(8E13.5)'
 TRAMP=1., VOLUME=1. $END
  3.08927E+05 -2.26971E+03  3.35682E+05  2.54111E+05  8.58332E+04  3.45376E+05 -1.38376E+05  2.51331E+05
 -1.95473E+05  8.44241E+04 -1.16181E+05 -3.06208E+04 -5.21452E+03 -5.18337E+04  5.92282E+04  2.78062E+03
  3.55393E+04  5.86540E+04 -2.09198E+04  7.01074E+04 -5.97399E+04  6.83895E+04 -8.60176E+04  3.51388E+04
 -7.62332E+04 -1.24843E+04 -5.85624E+04 -6.26239E+04 -2.19615E+04 -7.04998E+04  3.16051E+04 -4.54872E+04
  3.80818E+04  5.02449E+03  1.23929E+04  4.47962E+04 -4.23229E+04  4.69161E+04 -7.13229E+04  1.04236E+03
 -6.25441E+04 -5.85686E+04 -5.83687E+03 -8.15535E+04  3.26613E+04 -5.71737E+04  4.77166E+04 -1.90342E+04
  4.67288E+04  7.85048E+03  2.80356E+04  2.57325E+04  2.09471E+04  3.20749E+04 -4.11470E+03  2.50822E+04
 -2.13244E+04  4.79588E+03 -1.39806E+04  1.33970E+03  6.54383E+03 -2.13229E+03  3.70232E+04  1.95030E+04
  8.32159E+03  3.19690E+04 -3.46432E+04  3.26491E+04 -6.89123E+04  3.02049E+03 -6.04875E+04 -5.64709E+04
 -7.45897E+03 -6.21601E+04  4.86425E+04 -4.52544E+04  6.40816E+04  9.43202E+02  3.95843E+04  3.47470E+04
 -6.61286E+03  4.19899E+04 -2.55661E+04  1.94539E+04 -2.83642E+04 -2.23088E+03 -2.21696E+04 -6.35828E+03
 -5.07551E+03 -2.13938E+04 -3.55299E+03 -2.81890E+04  9.55570E+03 -2.11274E+04  1.66187E+04 -1.99680E+04
  9.82954E+03  4.06466E+03 -1.29418E+04  8.79773E+03 -2.30739E+04 -1.55739E+03  2.26489E+02 -3.33557E+04
  2.18719E+04 -4.80150E+04  4.83997E+04 -2.67274E+04  4.51529E+04  1.33151E+04  1.99626E+04  4.07468E+04
 -1.83182E+04  3.04545E+04 -2.47341E+04  9.18312E+02 -5.65429E+03 -3.26635E+04  1.62600E+04 -3.14999E+04
  4.40361E+04 -1.70141E+04  4.76915E+04  2.87116E+04  1.81521E+04  4.04124E+04 -1.01913E+04  5.54266E+04
 -4.25445E+04  4.26238E+04 -4.40382E+04  7.23914E+03 -4.31308E+04 -2.23783E+04 -2.95249E+04 -4.14700E+04
  1.30643E+04 -5.20127E+04  4.02282E+04 -1.71873E+04  3.20128E+04  1.51388E+04  7.06045E+02  2.47623E+04
 -1.29088E+04  5.70150E+03 -1.01418E+04 -4.59541E+03  2.47615E+03 -1.03456E+04  1.91253E+04  2.64907E+03
  1.45809E+04  2.36367E+04 -1.37428E+04  2.83270E+04 -2.42426E+04  7.46438E+03 -3.83288E+04  1.03489E+02
 -2.34216E+04 -1.72363E+04 -1.56555E+04 -2.96957E+04 -3.97605E+03 -2.41287E+04  2.13883E+04 -2.76385E+04
  3.94680E+04 -9.27125E+03  4.68626E+04 -4.77624E+03  2.69203E+04  2.67000E+04  4.12309E+03  4.45967E+04
 -2.08026E+04  4.34495E+04 -3.58510E+04  1.31187E+04 -1.45574E+04 -8.43045E+03 -4.83690E+03 -1.18419E+04
  2.95982E+03  8.56093E+02 -7.03437E+03  1.32530E+04 -2.26554E+04  2.11749E+03 -1.99920E+04 -9.41996E+03
 -8.61340E+03 -2.73276E+04  6.92891E+03 -3.40604E+04  2.21760E+04 -2.25966E+04  2.28421E+04 -2.43728E+03
  1.08455E+04  1.80511E+04  8.74867E+03  2.28412E+04 -1.65677E+04  1.24872E+04 -3.06856E+04 -4.81249E+03
 -1.85578E+04 -2.26696E+04 -1.92171E+03 -3.05005E+04  1.54940E+04 -2.61069E+04  2.50967E+04 -9.33743E+03
  1.61222E+04 -7.02006E+03  1.96318E+04  7.30122E+03  1.01188E+04  1.57976E+03  1.28773E+04 -3.89703E+03
  2.61087E+04  1.20795E+03  2.89836E+04  1.88807E+04  1.49855E+04  3.83886E+04  5.06464E+03  4.48165E+04
 -2.53304E+04  3.32829E+04 -3.76234E+04  1.65053E+04 -4.86353E+04 -6.16037E+03 -4.75849E+04 -3.62349E+04
 -9.20471E+03 -4.69187E+04  1.17576E+04 -3.81118E+04  3.44599E+04 -2.54772E+04  2.52836E+04  1.37358E+04
  1.11751E+04  3.09335E+04 -1.99467E+04  1.27980E+04 -1.59195E+04  3.49189E+03 -1.61128E+04 -1.65372E+04
 -5.63351E+03 -1.46528E+04  1.31699E+04 -1.74315E+04  1.92155E+04 -8.97952E+03  7.32335E+03  1.10741E+04
 -7.15113E+03  3.56783E+03 -1.42116E+04 -1.00487E+04 -8.31545E+03 -9.93216E+03  1.67371E+04 -1.73561E+04
  2.85188E+04 -3.05231E+03  3.12462E+04  1.73526E+03  3.58133E+04  2.79668E+04  1.31380E+04  3.50695E+04
 -1.54496E+04  3.84423E+04 -2.53379E+04  1.98167E+04 -2.49837E+04 -3.31657E+03 -2.08722E+04 -1.21790E+04
 -8.50062E+03 -6.45855E+03  6.04000E+03  3.85864E+03 -1.92030E+03  5.09400E+03 -3.48259E+02  1.84147E+03
 -1.47274E+04 -1.13073E+03 -1.63815E+04 -8.78609E+03 -5.06322E+03 -2.15817E+04  6.36682E+03 -1.52979E+04
  1.23906E+04 -1.22874E+04  3.13553E+03 -1.39285E+03 -1.58259E+03  6.08271E+03 -1.19184E+04 -1.46119E+03
 -7.29885E+03 -1.26986E+04  6.82664E+03 -1.37099E+04  1.74845E+04 -2.22142E+04  2.18928E+04 -4.08208E+03
  2.88024E+04  4.55819E+03  1.72061E+04  2.04244E+04  6.71262E+02  2.84967E+04 -3.15044E+03  2.03256E+04
 -1.45788E+04  7.53489E+03 -1.35033E+04 -5.05479E+03 -1.81087E+02 -7.90094E+03  1.12571E+04 -8.60005E+02
 -1.52604E+03  4.39135E+03  1.11693E+03  1.38326E+04 -9.34962E+03  1.42886E+04 -1.81841E+04 -5.17329E+03
 -1.53555E+04 -1.02831E+04 -3.50602E+03 -1.84955E+04  8.29795E+03 -1.18664E+04  1.26034E+04  5.34474E+03
  1.22232E+03  1.87798E+04 -6.60653E+03  1.81247E+04 -1.60079E+04 -2.71859E+02 -2.02264E+04 -9.70929E+03
 -8.00415E+03 -1.95514E+04  2.42736E+03 -1.92042E+04  1.68655E+04 -1.55439E+04  2.48202E+04  2.51429E+03
  1.27367E+04  1.67868E+04 -6.75508E+03  1.55814E+04 -1.36414E+04  1.10756E+04 -9.06308E+03 -2.79515E+03
 -1.57304E+04 -1.46759E+04 -6.81866E+03 -1.53521E+04  6.96757E+03 -1.09451E+04  1.28717E+04  4.55370E+03
  8.61017E+03  8.02236E+03  3.38746E+03 -3.14894E+03  1.47319E+03 -4.51788E+03  5.84984E+03 -1.34905E+04
  1.52115E+04 -1.30438E+04  2.18256E+04  9.27369E+03  1.46443E+04  1.19234E+04  1.04158E+04  2.82806E+04
 -6.47278E+03  3.28780E+04 -2.43334E+04  2.52901E+04 -2.59327E+04 -2.21598E+03 -2.29239E+04 -6.04023E+03
 -8.35268E+03 -2.01226E+04 -8.67236E+03 -2.36656E+04  6.14525E+03 -1.40503E+04  2.93987E+03 -6.79467E+02
  1.36303E+04 -6.94921E+03  7.01383E+03 -6.79959E+03  1.24328E+04 -1.78096E+03  4.27143E+03  3.29164E+03
  1.73151E+04  8.41886E+03  3.19883E+03  1.03540E+04 -3.75171E+02  1.62226E+04 -1.18669E+04  6.57416E+03
 -1.99703E+04 -1.26404E+03 -1.01736E+04 -1.63998E+04 -1.46750E+03 -2.43924E+04  6.47409E+03 -2.37186E+04
  2.43878E+04 -1.34453E+04  2.41409E+04  7.17069E+03  1.44279E+04  1.35425E+04  2.96506E+03  2.01206E+04
 -8.51092E+03  2.04978E+04 -1.67897E+04  2.07260E+03 -2.27092E+03 -1.01877E+01 -2.67213E+03 -6.54688E+03
 -5.44156E+03  6.81084E+02 -4.88300E+03 -7.24154E+03 -2.35789E+03 -2.51304E+03 -1.82488E+04 -3.55315E+03
 -6.17176E+03 -1.02483E+04  4.47101E+02 -1.95068E+04  7.64821E+03 -1.30094E+04  1.70713E+04 -3.36742E+03
  1.99389E+04  1.34355E+04  1.36537E+04  2.24482E+04  1.04888E+03  2.35601E+04 -1.10975E+04  8.19271E+03
 -2.34701E+04 -3.29061E+03 -1.46906E+04 -1.32879E+04  3.07126E+03 -1.76322E+04  1.67339E+04 -1.10640E+04
  1.29008E+04 -1.35988E+04  1.14466E+04  2.24380E+03  1.88145E+03  4.04613E+03  4.22352E+03 -4.40246E+03
 -5.40595E+03 -9.21201E+03  5.60866E+02  9.61030E+03 -1.15155E+03  1.40280E+04  6.04957E+03  1.95358E+04
 -7.85433E+03  1.50319E+04 -2.04415E+04  2.05382E+04 -2.49616E+04  1.50008E+04 -1.87613E+04 -6.58206E+03
 -1.20100E+04 -2.90297E+04 -5.24213E+02 -2.20174E+04  1.51649E+04 -1.06627E+04  2.06688E+04 -2.81613E+03
  1.34563E+04  8.49822E+03  4.11164E+02  1.43631E+04 -2.14612E+03  6.85516E+03 -9.17469E+03  9.10381E+02
 -9.50981E+03 -1.41396E+04  2.50746E+03 -2.31917E+03  1.93031E+04 -3.12827E+03  8.19663E+03  4.76708E+03
  1.06311E+04  1.60282E+03  3.84876E+03  7.56861E+03  4.37511E+03  3.56116E+03  1.94432E+03 -3.89385E+02
 -3.36379E+02  2.34037E+03  5.70589E+03  2.01306E+03  4.98597E+03  9.37758E+03 -7.55371E+03  1.33894E+04
 -1.50220E+04  8.68863E+03 -1.27221E+04 -4.12520E+03 -1.44267E+04 -8.39757E+03  4.65533E+02 -1.03891E+04
 -9.00182E+03 -5.99481E+03  8.49876E+03 -2.69554E+03  9.04088E+01  7.45952E+03 -5.25405E+03  3.16234E+03
 -1.15594E+04 -2.09468E+03 -9.13867E+03 -2.43954E+03 -1.26729E+04 -1.34746E+04 -1.58066E+03 -1.55632E+04
  1.74883E+03 -3.88654E+03  1.08104E+04 -1.73573E+03  1.81051E+03  9.84149E+03 -3.83438E+03  9.12800E+03
 -1.85833E+03  1.13483E+04 -6.52439E+03 -6.37746E+03  1.06428E+03 -1.46643E+04  7.65223E+03 -1.09839E+04
  1.84226E+04 -4.24060E+03  2.03090E+04  1.73836E+04  6.39934E+03  1.29067E+04 -6.88810E+03  1.34494E+04
 -1.10446E+04  2.59243E+03 -1.38596E+04  2.12319E+02 -5.03826E+03 -1.17076E+04  4.43556E+03 -5.39721E+03
  4.91714E+03 -8.56316E+03  1.18502E+04  4.79212E+03 -5.34117E+03  5.50355E+03  3.91703E+01  1.22256E+03
  9.46694E+02  2.49879E+03 -8.20155E+03  7.63941E+03  4.80621E+03  3.02549E+03 -1.01070E+03 -8.24448E+02
 -1.45976E+04  8.04559E+03 -7.06506E+03 -7.67454E+03 -8.14498E+03  8.08782E+02 -8.86821E+03 -7.96974E+03
 -1.17947E+04 -1.39470E+04  9.25659E+03 -2.48254E+04  1.22953E+04 -1.41642E+04  1.38681E+04 -7.81584E+03
  1.97132E+04  3.80475E+03  1.37243E+04  1.54623E+04  3.08668E+03  1.51807E+04  6.28841E+02  8.22476E+03
 -1.92094E+04  7.80132E+03 -3.34503E+03  3.08367E+03 -1.12382E+04 -2.44699E+03 -4.22608E+03  5.68728E+03
 -9.68789E+02 -2.44594E+02  2.34333E+02  6.78734E+02  1.44770E+03 -2.09013E+03  1.66326E+03 -1.19127E+04
  8.58697E+03 -3.87524E+03  1.45803E+04 -6.80841E+03  1.31937E+04  1.04852E+04  4.14501E+03  1.29536E+04
 -1.08460E+04  1.95972E+04 -1.83130E+04  9.53081E+03 -1.86919E+04 -4.17305E+03 -1.27669E+04 -1.61136E+04
 -7.20801E+03 -1.49608E+04 -6.20939E+02 -9.06345E+03  1.04045E+04 -1.07306E+04  7.19088E+03  2.93987E+03
  8.18098E+03  1.19912E+03 -1.81498E+03  1.19134E+03 -2.63367E+03 -4.13003E+03  5.56063E+03 -2.71477E+03
  6.81853E+03 -3.78865E+03  1.20170E+04  9.25963E+03  3.84475E+03  9.40105E+03 -1.44923E+03 -4.35427E+03
 -3.94964E+03  3.89458E+03 -4.26566E+03 -9.92024E+02 -4.22448E+03 -1.01610E+04 -1.11009E+04 -5.67828E+03
  7.04810E+03  2.45675E+02  1.43617E+04 -4.75898E+03  1.50738E+04  7.01872E+03  6.63974E+03  7.40222E+03
  1.49969E+02  1.36000E+04 -7.56626E+03  5.08671E+03  7.19025E+02  2.68557E+03 -1.11715E+04  3.72323E+03
 -1.87117E+03 -3.96993E+02 -1.55590E+02 -7.09379E+02 -2.55825E+03  8.99780E+03 -5.33735E+03  1.71771E+03
 -1.18981E+04 -3.86520E+02  2.34730E+03 -1.85337E+04  8.85904E+03 -1.05610E+04  1.08100E+04 -7.05211E+03
  4.71849E+03  7.48793E+03  1.54281E+04  8.59140E+03  2.24310E+03  1.33840E+04  1.04981E+03  1.13168E+04
