 $NMID ID='MM_0lb_SNR50_20hz_g55_29.RAW', FMTDAT='(8E13.5)'
 TRAMP=1., VOLUME=1. $END
  3.07994E+05  2.21734E+03  3.33390E+05  2.49705E+05  8.26046E+04  3.36133E+05 -1.33536E+05  2.51279E+05
 -1.89713E+05  8.50115E+04 -1.08375E+05 -3.37105E+04  3.20141E+03 -4.66141E+04  6.04697E+04 -3.36170E+03
  3.19317E+04  5.09103E+04 -1.55957E+04  7.79982E+04 -6.42985E+04  6.16598E+04 -8.04976E+04  3.41637E+04
 -8.10389E+04 -1.14530E+04 -5.58675E+04 -5.46047E+04 -1.79416E+04 -6.80735E+04  2.37271E+04 -4.46939E+04
  3.92640E+04  4.51740E+03  1.22357E+04  5.15954E+04 -2.98131E+04  4.56772E+04 -6.76650E+04 -8.99394E+02
 -4.94451E+04 -5.42154E+04 -4.86730E+03 -7.73687E+04  3.44320E+04 -5.01982E+04  4.47413E+04 -1.69273E+04
  4.25253E+04  9.96582E+03  2.66476E+04  2.73115E+04  2.04269E+04  3.07738E+04 -3.75231E+03  2.84666E+04
 -2.45157E+04  1.30889E+04 -1.63349E+04 -6.75276E+03  6.29100E+03 -5.78759E+03  2.62445E+04  1.05401E+04
  6.96624E+03  3.04326E+04 -2.93067E+04  3.33139E+04 -5.65008E+04  4.44717E+03 -5.42893E+04 -3.98215E+04
 -1.66282E+04 -5.98806E+04  3.76087E+04 -4.05886E+04  5.98371E+04 -2.19102E+03  3.05383E+04  3.01750E+04
 -8.63576E+03  3.32010E+04 -3.00250E+04  1.41283E+04 -2.80876E+04 -6.84174E+03 -1.29870E+04 -7.61482E+03
 -1.17561E+04 -1.01579E+04 -7.51875E+02 -1.86979E+04  1.09991E+04 -1.98156E+04  1.96154E+04 -1.23181E+04
  9.15751E+03  5.04734E+03 -5.27864E+03  1.20132E+04 -2.09878E+04 -1.89166E+03 -7.91483E+03 -3.24038E+04
  1.86291E+04 -4.66313E+04  4.40543E+04 -2.34142E+04  4.34537E+04  1.94718E+04  1.83098E+04  4.45952E+04
 -1.65444E+04  3.48067E+04 -2.62979E+04 -1.64136E+03 -9.13809E+03 -2.64685E+04  1.93862E+04 -3.51674E+04
  3.74588E+04 -1.05199E+04  3.15706E+04  2.35417E+04  1.78100E+04  4.51866E+04 -9.31435E+03  4.51087E+04
 -2.69266E+04  2.75833E+04 -4.05467E+04  5.31269E+03 -3.79415E+04 -1.12384E+04 -1.90550E+04 -3.74614E+04
  2.24095E+03 -3.55816E+04  2.86010E+04 -1.56042E+04  2.69184E+04  8.65235E+03  1.17848E+03  1.69968E+04
 -1.42191E+04  1.00809E+04 -4.58504E+03 -6.71637E+03  1.03920E+04 -9.45593E+03  1.51177E+04  7.56559E+03
  1.54836E+04  2.41256E+04 -6.99281E+03  2.30677E+04 -2.02617E+04  8.05447E+03 -2.42300E+04 -8.91303E+03
 -1.12726E+04 -1.72539E+04 -8.63182E+03 -1.74996E+04  4.03312E+03 -1.70292E+04  1.36084E+04 -1.36903E+04
  1.91063E+04 -1.20653E+04  2.40493E+04 -1.07680E+03  2.24615E+04  1.28062E+04  3.00321E+03  3.06155E+04
 -1.72558E+04  2.74912E+04 -2.69083E+04  8.33500E+03 -1.85395E+04 -7.33803E+03 -3.85776E+03 -1.04322E+04
  5.55662E+03 -2.30550E+03 -2.58357E+03  7.46157E+03 -1.13382E+04  1.96515E+03 -1.31825E+04 -3.80287E+03
 -9.80197E+03 -1.55891E+04  1.23840E+03 -2.09327E+04  1.55916E+04 -1.24649E+04  1.06237E+04 -4.30831E+03
  7.02338E+03  7.48600E+03  7.70560E+02  1.79853E+04 -9.47507E+03  9.32497E+03 -1.93767E+04 -6.62939E+03
 -9.10476E+03 -1.76625E+04 -4.82470E+03 -2.27179E+04  6.77188E+03 -1.17833E+04  1.95512E+04 -8.96201E+03
  1.41653E+04 -2.58379E+02  7.47601E+03  2.52166E+03  2.32932E+03  6.68183E+02  3.09272E+03 -7.55382E+03
  1.62531E+04  5.75956E+03  1.52703E+04  1.46197E+04  1.04640E+04  2.68786E+04 -1.97482E+03  2.39197E+04
 -1.33631E+04  2.03110E+04 -2.30554E+04  4.83840E+03 -2.11649E+04 -3.14313E+03 -2.12308E+04 -1.15280E+04
 -9.46747E+03 -1.63218E+04  7.07496E+03 -1.83164E+04  9.60422E+03 -9.11137E+03  1.48340E+04  1.39069E+03
  4.90559E+03  8.97399E+03 -5.77474E+03  1.12450E+04 -1.27346E+04  2.42139E+03 -1.16307E+04 -4.15838E+03
 -2.48671E+03 -1.25992E+04  4.68057E+03 -1.12647E+04  6.16955E+03 -2.89457E+03 -5.20260E+02  3.33365E+03
 -5.09435E+03  5.58243E+02 -4.16463E+03 -3.05097E+02  7.29199E+02 -9.73130E+03  7.69307E+03 -1.05559E+04
  1.27268E+04 -3.26666E+03  1.06280E+04  4.49985E+03  1.06682E+04  1.07135E+04  3.75480E+03  1.77815E+04
  7.60099E+02  1.19730E+04 -1.13683E+04  8.18022E+03 -7.44232E+03  1.98748E+03 -7.19339E+03  9.44838E+02
 -7.44433E+03 -2.74968E+03  2.51059E+02 -7.99822E+02 -3.83091E+03  2.94369E+03 -4.11528E+03  4.46364E+03
 -1.03114E+04  1.69497E+02 -9.29708E+03 -6.50651E+03 -3.18225E+03 -1.05662E+04 -8.83268E+02 -5.28474E+03
  4.92874E+03 -4.32622E+03  1.11192E+03  7.43218E+03  2.56241E+03  2.22847E+03 -5.61687E+03 -2.32213E+03
 -2.20562E+03 -3.72552E+03 -3.45272E+03 -7.19758E+03  5.37143E+03 -9.25069E+03  9.80178E+03 -3.15949E+03
  7.94625E+03  4.29702E+02  5.42944E+03  6.37001E+03 -2.78917E+03  1.09130E+04 -1.02216E+03  1.11150E+04
 -5.88376E+03  4.77017E+03 -1.78204E+03 -2.39087E+03  4.05238E+03  4.37785E+02  5.05980E+03  6.36290E+02
  1.56795E+03  2.26031E+03  4.44511E+03  1.00020E+04 -3.78902E+02  5.01168E+03 -6.48942E+03  5.93959E+03
 -1.40509E+03 -4.08870E+03  4.67166E+03 -6.92801E+03  2.86534E+03 -1.07547E+03  2.80848E+03  1.10817E+03
  1.56329E+03  5.69027E+03 -2.37685E+03  3.50693E+03 -1.90387E+03  3.30175E+03 -1.54557E+03 -8.91214E+02
 -5.73775E+03 -1.04524E+04  3.61969E+03 -2.31741E+03  6.83719E+03 -4.63976E+03  5.73524E+03  2.57553E+03
  8.82662E+03  2.06798E+03  2.71497E+03  6.78226E+03 -3.48063E+03  2.39418E+03 -5.13353E+03  1.84269E+03
 -4.00366E+03 -3.44565E+03 -4.85702E+02 -6.07979E+03  1.29003E+03 -2.23988E+03  7.43667E+02 -4.00984E+03
  4.48325E+03  2.13595E+03 -2.84197E+03  1.16098E+03  3.27114E+02 -1.59784E+02 -1.35077E+03 -3.19424E+03
  5.75086E+02 -2.53717E+03  1.97927E+03 -4.86138E+02  6.57526E+03  4.49830E+03  3.34234E+03  6.27070E+03
 -1.72053E+02  7.67132E+03 -1.02301E+04  1.87182E+03 -9.24949E+03  1.21798E+02 -1.21725E+04 -5.69799E+03
 -6.64819E+03 -6.79205E+03  1.98419E+03 -4.52436E+03  4.41121E+03  3.58959E+02  4.72022E+03 -1.84998E+03
  1.02379E+03  2.35973E+03  2.40485E+03 -5.69296E+03  3.13863E+03 -3.00123E+03  4.85231E+03 -3.77703E+03
  6.82238E+03 -2.36148E+01  1.11967E+03 -9.90813E+02 -6.03303E+03  3.19952E+03 -4.61934E+03  6.25650E+03
 -2.67176E+03  8.30899E+02 -6.25435E+03 -4.74751E+03 -3.03370E+03 -7.45550E+03  1.23429E+03 -4.54780E+03
  3.94782E+03 -6.05483E+03  7.88600E+03  3.86788E+03  5.26731E+03  1.33711E+02  1.03135E+03  5.65075E+03
 -4.36351E+03  4.32794E+03  1.80704E+03 -1.88494E+02 -9.04901E+02  1.05540E+03 -2.31181E+03 -3.27534E+03
  2.30342E+02  6.98780E+02 -1.31122E+02  1.33101E+03  2.19762E+03  1.77999E+03 -5.80921E+03  1.93453E+03
 -9.10039E+02 -3.02135E+03 -7.68786E+02 -3.04355E+03  9.01118E+02 -4.87692E+03  1.67613E+03 -2.62454E+03
  5.56936E+03  3.48179E+03  4.73735E+03  3.93761E+03  5.33975E+03  3.26043E+03 -1.00493E+03  2.78608E+03
 -5.75148E+03 -1.88844E+03 -7.06030E+02 -7.51942E+02  2.82394E+03  2.89706E+02 -5.35645E+03  1.34307E+00
  4.17972E+03 -3.94742E+03  9.26854E+02 -4.68947E+03 -1.11308E+03  5.93853E+03  5.38448E+02 -1.27358E+03
  3.64542E+03  2.47076E+02  9.10297E+03  1.56009E+03 -7.80392E+02  5.16627E+03  1.38271E+03  1.89344E+03
  1.04417E+03  5.22034E+03 -1.11175E+03 -2.51393E+03  2.12954E+03 -1.38571E+03 -3.16388E+03  3.27809E+03
 -3.92943E+03 -1.70219E+03  1.41353E+03  1.99192E+03 -3.62526E+02  1.63660E+02  2.17882E+03  4.51961E+03
  3.59218E+03  1.45461E+03  3.12707E+03  3.71742E+02  1.31501E+03 -1.82883E+03  1.42616E+03  7.21288E+02
 -4.44209E+02 -5.73413E+02  4.09557E+02 -3.30678E+03  1.03934E+03  2.22741E+03  4.02026E+03 -3.36500E+03
  5.04320E+02  2.20950E+03 -2.21012E+03  3.06124E+02 -9.78354E+02 -1.18826E+02  1.14524E+02 -3.24408E+03
  1.19837E+03  2.61686E+02  3.06457E+03 -2.50872E+03  1.09803E+02  2.87878E+03 -4.17312E+02  1.96974E+02
 -5.70030E+02 -7.32975E+02 -2.12056E+03 -1.20364E+03 -3.52303E+02  1.17326E+03 -1.91781E+03 -6.97275E+03
  4.55899E+02 -2.44121E+03  4.48967E+03 -3.70253E+03  3.88066E+03  2.36879E+03 -7.34737E+02  2.02507E+03
  1.91719E+03 -3.53945E+03 -1.28304E+03 -2.39302E+03 -6.68428E+00 -2.56116E+02  9.57740E+02 -4.22393E+03
 -9.02795E+02 -2.09877E+03 -2.57110E+03 -2.02947E+03  1.36081E+03 -1.03421E+03 -2.02933E+03  9.16845E+02
 -1.34173E+03 -1.52350E+02  2.24707E+03 -2.11954E+03  2.27044E+03  9.45049E+02  2.98781E+03 -2.61700E+03
  1.70272E+03 -3.38598E+03 -1.31003E+03  6.35871E+03 -4.32532E+02  3.18448E+03 -3.38403E+03  5.58788E+02
 -3.22802E+03 -5.77686E+02  9.41930E+02 -1.27100E+03  3.93874E+03 -4.46038E+03  6.22521E+02  2.69103E+03
  1.22151E+03 -3.16985E+03  1.87815E+02 -7.49437E+02 -1.19199E+03  2.30096E+03 -1.94541E+03 -2.91326E+03
  6.06811E+02 -1.46925E+03 -1.73098E+03 -6.43506E+02  6.85319E+01  8.30527E+01  4.11374E+02  2.95767E+02
 -1.18815E+03  1.06069E+03 -2.63862E+03  2.33062E+03  1.29402E+03  6.53936E+02 -2.46214E+03 -1.14664E+03
  1.88924E+03 -4.36126E+03 -8.39028E+02 -1.91045E+03  4.71981E+03  2.12269E+03  2.00651E+03 -1.53463E+02
  2.22879E+03  2.23648E+03 -2.00413E+03 -9.04777E+02 -6.19458E+02  1.55439E+03 -3.02532E+03 -3.27058E+03
 -8.75496E+02  9.59484E+02 -3.38431E+03 -1.25299E+03 -2.64356E+03 -1.86977E+03  4.74481E+02 -2.86887E+03
 -1.17846E+03  6.09622E+01  9.19344E+02  3.96617E+03  2.81553E+03  3.74217E+03 -1.67071E+02 -3.94451E+03
  1.40356E+02  1.30723E+03 -2.08976E+03  2.02447E+03  2.60568E+03 -1.14321E+03  6.72774E+02  2.36618E+03
 -2.80512E+03  1.23134E+03 -5.90913E+02  3.46708E+03 -1.77256E+03  1.92986E+03  2.48196E+03 -7.05751E+02
 -2.13725E+03 -3.54729E+03 -7.09187E+02  2.59777E+02  1.61021E+03  6.95612E+02 -3.24871E+03  1.78037E+03
  2.04314E+01  2.03706E+03  2.07631E+03 -1.47328E+03  2.55287E+03 -1.36090E+03 -1.31991E+03 -3.65649E+03
 -4.51469E+02  2.45768E+03 -4.94303E+02  3.16028E+03  1.46335E+03 -4.56323E+03 -4.17147E+02  1.13032E+03
  4.82159E+02  1.31957E+03  2.78072E+02 -5.07409E+03 -1.09412E+03 -1.08741E+03  2.39406E+03 -1.23998E+03
 -5.97303E+02 -4.09733E+02  3.44359E+03 -3.84399E+02 -8.14973E+00 -2.67704E+03 -3.19194E+02  6.61542E+01
  5.77100E+03 -1.21858E+03 -2.00882E+03 -2.18795E+03 -2.93539E+03 -2.94609E+02 -3.03352E+02  3.57382E+02
 -8.46142E+02  6.24728E+03 -2.04220E+03 -3.29472E+02  2.10619E+03 -1.77829E+03 -2.67091E+03 -5.48128E+03
 -1.48417E+03  2.84663E+03 -4.79593E+02 -4.30485E+03 -8.06233E+02  2.34344E+03 -1.08269E+03 -1.55845E+03
 -2.92514E+03 -1.31744E+03 -4.64367E+01  1.47172E+03  3.08544E+03 -3.52392E+03 -8.93849E+02  1.85794E+03
