 $NMID ID='MM_0lb_SNR50_20hz_g50_32.RAW', FMTDAT='(8E13.5)'
 TRAMP=1., VOLUME=1. $END
  3.05158E+05 -1.18255E+03  3.38048E+05  2.50610E+05  8.37617E+04  3.37793E+05 -1.28808E+05  2.51372E+05
 -1.92371E+05  8.16849E+04 -1.12943E+05 -3.14350E+04 -4.26379E+01 -5.06725E+04  4.88689E+04  6.23092E+03
  3.77481E+04  5.51229E+04 -2.05419E+04  7.45431E+04 -6.10975E+04  6.47115E+04 -8.22615E+04  3.23520E+04
 -7.83245E+04 -1.15298E+04 -5.47199E+04 -4.82940E+04 -1.34867E+04 -7.02618E+04  2.88253E+04 -4.40246E+04
  3.93741E+04  1.50373E+03  1.70887E+04  4.90670E+04 -3.35566E+04  4.86030E+04 -6.70870E+04  1.19438E+03
 -5.10891E+04 -5.68065E+04 -6.45009E+03 -7.32563E+04  3.87714E+04 -5.01319E+04  4.59212E+04 -1.95991E+04
  4.35939E+04  8.93589E+03  3.02324E+04  2.17461E+04  1.66208E+04  2.99734E+04 -7.04369E+03  2.70899E+04
 -2.27960E+04  1.61979E+04 -2.30780E+04 -2.41414E+03  5.40460E+03 -6.09806E+03  2.26537E+04  1.21044E+04
  9.79488E+03  3.15213E+04 -3.37342E+04  3.13816E+04 -5.95243E+04  3.13269E+03 -5.09987E+04 -4.51409E+04
 -1.21196E+04 -5.97718E+04  3.66913E+04 -4.43409E+04  5.74837E+04 -2.93363E+03  3.20069E+04  2.89265E+04
 -6.46368E+03  3.34284E+04 -2.68453E+04  7.40474E+03 -3.09109E+04 -4.53198E+03 -8.62228E+03 -1.10934E+04
 -9.57361E+03 -1.13134E+04 -2.88322E+03 -1.68031E+04  4.86572E+03 -2.82240E+04  1.58390E+04 -1.55752E+04
  1.26633E+04  1.82272E+03 -4.89973E+03  1.11871E+04 -2.05544E+04 -2.37400E+03 -5.66197E+03 -3.23284E+04
  2.00604E+04 -4.33892E+04  4.39320E+04 -2.06919E+04  4.18224E+04  1.54754E+04  1.31602E+04  3.93850E+04
 -1.42361E+04  3.22645E+04 -2.26938E+04  6.19772E+02 -1.15729E+04 -2.79546E+04  1.94412E+04 -3.61375E+04
  3.76146E+04 -2.72742E+03  2.75713E+04  2.03408E+04  1.45799E+04  4.29040E+04 -4.15603E+03  4.26832E+04
 -2.46029E+04  2.91296E+04 -3.73640E+04  1.04752E+04 -3.55647E+04 -1.45906E+04 -1.98680E+04 -3.50853E+04
  1.08094E+03 -3.88826E+04  2.71166E+04 -8.98493E+03  2.83704E+04  9.64641E+03 -7.10175E+02  1.75673E+04
 -1.39385E+04  9.36843E+03 -9.07308E+03 -8.30126E+03  4.55317E+03 -1.19209E+04  1.80699E+04  1.08115E+04
  1.10469E+04  2.63877E+04 -7.62983E+03  2.28900E+04 -1.77796E+04  5.60167E+03 -2.25899E+04 -5.42118E+03
 -1.49161E+04 -1.41358E+04 -6.15608E+03 -1.71535E+04  2.02047E+03 -1.42580E+04  1.18741E+04 -1.32622E+04
  2.12657E+04 -7.63510E+03  2.65140E+04 -4.20043E+02  2.13250E+04  1.69196E+04  6.15148E+03  3.28091E+04
 -1.14658E+04  2.81468E+04 -2.88258E+04  7.02355E+03 -2.10126E+04 -7.20680E+03 -3.99762E+03 -1.27500E+04
  3.67211E+03 -6.96590E+03 -6.34012E+03  7.79746E+03 -9.31374E+03  4.39275E+03 -1.05368E+04 -4.40265E+03
 -8.42093E+03 -1.18613E+04  5.97500E+03 -1.82255E+04  1.04349E+04 -1.18174E+04  1.24210E+04 -1.52501E+03
  8.65708E+03  1.05272E+04 -3.71598E+03  1.54542E+04 -9.62881E+03  8.16521E+03 -1.56027E+04 -2.24136E+03
 -9.52668E+03 -1.24409E+04 -5.50410E+03 -1.64581E+04  1.07885E+04 -1.35457E+04  1.34844E+04 -7.81267E+03
  1.67849E+04  1.60381E+03  8.95959E+03  2.84675E+03  5.84453E+03 -6.32996E+02  3.33289E+03 -6.87384E+02
  1.19964E+04  4.91298E+03  1.50935E+04  1.56442E+04  8.58524E+03  2.27789E+04 -4.40088E+03  1.91175E+04
 -1.14841E+04  1.94649E+04 -2.14351E+04  7.78731E+03 -2.42977E+04 -3.19461E+03 -1.93119E+04 -1.12035E+04
 -8.72990E+03 -2.20320E+04  4.72821E+03 -1.71551E+04  1.63205E+04 -1.09452E+04  1.40530E+04  6.29660E+03
  7.91781E+03  8.15523E+03 -4.64086E+03  6.61021E+03 -1.28337E+04  2.64390E+03 -4.52394E+03 -6.32791E+03
  1.30018E+03 -7.17317E+03  3.86230E+03 -7.35801E+03  5.48976E+03  1.88986E+03  2.28534E+03  3.88722E+03
 -8.76861E+03  8.63456E+02 -4.10157E+03 -5.46767E+03 -5.46261E+02 -9.46841E+03  9.80490E+03 -6.77256E+03
  1.28253E+04 -1.67341E+03  1.18838E+04  2.25520E+03  8.55956E+03  7.10763E+03  4.45800E+02  1.39317E+04
  1.21388E+03  1.07977E+04 -9.14245E+03  9.16158E+03 -8.61854E+03  6.57081E+03 -9.17345E+03  3.17988E+02
 -7.57372E+03 -1.14501E+02 -1.35257E+03  2.62429E+03 -7.28064E+03  5.34488E+03 -2.06952E+03  3.85615E+03
 -9.04850E+03 -2.08853E+03 -8.64599E+03 -7.74793E+03 -4.23026E+03 -1.04982E+04  2.94037E+03 -1.03396E+04
  6.34404E+03 -4.13557E+03  2.50230E+03  4.24193E+02 -4.55396E+02  3.40215E+03 -6.22138E+03 -4.88750E+02
 -9.33859E+02 -4.79748E+03 -1.40150E+03 -1.05083E+04 -1.53463E+03 -5.01115E+03  1.16334E+04 -4.98772E+03
  1.21322E+04 -2.73039E+03  9.74091E+03  9.69032E+03 -2.38000E+03  8.52647E+03 -2.17387E+03  8.67154E+03
 -7.82692E+03  2.92571E+03  1.74737E+02 -1.47290E+03  1.32231E+03 -4.60339E+03  5.20459E+03 -4.00501E+03
  3.36883E+03 -3.71112E+02  2.94910E+03  9.43918E+03 -6.50044E+03  4.50277E+03 -5.73751E+03  3.23530E+03
 -5.35743E+03 -1.58321E+03  1.35517E+03 -1.04436E+04  5.23922E+03 -6.17843E+02  3.25994E+03 -4.46191E+02
  3.22868E+03  1.11858E+03 -6.40909E+02  4.18164E+03 -6.98318E+03  1.65643E+03 -4.93340E+03 -2.68610E+03
  1.97573E+03 -1.62228E+03  2.57430E+03 -8.17598E+03  3.29447E+03 -9.89338E+03  2.86411E+03 -4.74576E+03
  5.81995E+02  2.05021E+03  2.31611E+03  1.60117E+03 -6.92297E+03  2.92071E+03 -8.07040E+02 -5.58171E+01
 -5.79160E+03 -4.57436E+02 -9.58536E+02 -5.78328E+03  9.90231E+02 -4.00702E+03 -7.74299E+02 -4.83387E+03
  5.19951E+03 -1.50666E+03  4.22174E+02  2.44759E+03 -1.71818E+03 -1.11206E+03  2.11586E+03 -1.63160E+03
  1.52686E+03  6.05772E+02  5.91179E+03 -6.86670E+03  8.67550E+03  2.67103E+03  5.55671E+03  2.99230E+03
  6.37525E+02  7.58123E+03 -8.21248E+03  7.69409E+03 -9.57390E+03 -2.59354E+02 -4.73308E+03 -1.10392E+03
 -1.21634E+03 -4.38420E+03  1.72268E+03 -7.32704E+03 -2.95304E+03 -1.28581E+03 -7.30565E+02 -1.14154E+03
  2.38255E+03 -3.35788E+03  1.69999E+03 -3.99403E+03  1.68518E+03 -1.95080E+03  1.04764E+03  5.29184E+03
  1.00041E+03 -2.12861E+02  3.44361E+03  4.02043E+03 -2.12501E+03 -8.77786E+02 -2.07771E+03  7.36223E+03
 -9.63833E+02 -1.10854E+03 -2.77446E+03 -6.33860E+02 -1.55129E+03 -8.66036E+03  7.35011E+03 -3.68054E+03
  5.71734E+03 -4.38558E+03  6.41995E+03 -1.42753E+03  4.39009E+03  6.23589E+02 -1.36128E+03  8.51453E+03
 -5.09278E+03  4.26852E+03 -2.57363E+02  2.67133E+03 -9.70690E+02  2.08351E+03  1.72091E+03 -1.94377E+03
 -2.29469E+03  3.39717E+03  8.30497E+02  2.95596E+03 -6.35743E+03  1.90262E+03 -5.01039E+03  1.34195E+02
 -1.28998E+02 -4.52886E+03 -3.90291E+03 -3.43440E+03  6.71191E+03 -4.64397E+03  2.20000E+03 -3.28306E+02
  4.59952E+03  2.05258E+03  1.45999E+03  6.16496E+03 -2.52109E+03  2.95836E+03  1.77621E+03  2.29157E+03
 -6.24532E+03  7.80799E+02 -3.84361E+03 -3.10793E+03  7.43099E+02 -4.61325E+03  2.27218E+03 -6.17660E+03
  1.52213E+03 -4.20978E+03  5.86251E+03  1.04407E+03  1.49528E+03  5.55250E+02 -2.32181E+03 -1.42250E+03
 -3.57505E+02  1.67738E+03  1.84878E+03  2.54539E+03 -2.75335E+03  3.67051E+03  4.19804E+03  2.66394E+03
 -9.58474E+02  1.86260E+03 -2.56140E+03  2.13101E+03  1.66700E+03 -1.01802E+03 -4.94046E+03 -2.91435E+03
  5.31037E+02 -4.14071E+03 -8.68596E+02 -4.07942E+03  2.61757E+03  8.87282E+02 -1.87905E+03 -2.88291E+03
  1.19669E+03 -2.35120E+03 -1.41668E+02  4.68100E+02  1.47210E+03 -2.29147E+03 -1.46230E+03 -2.72110E+03
 -1.63604E+03  1.00275E+03 -2.00679E+03 -2.30520E+03 -8.31475E+02  1.21709E+03 -8.21782E+02  2.62114E+03
  2.32804E+03  1.21171E+03 -9.38661E+02 -2.15868E+03  1.03867E+03  2.83349E+03  1.66551E+03  4.09402E+03
  2.65262E+01  1.94450E+03 -1.30371E+02 -5.29344E+03 -2.42939E+03  2.36537E+03 -7.83733E+00 -1.05458E+03
 -1.71515E+03  2.86659E+03 -2.09117E+03 -4.85803E+03 -4.94098E+03 -7.14861E+02 -2.52370E+03 -3.17343E+03
  2.28283E+03 -2.05502E+03  2.61183E+03 -1.84711E+03  4.62752E+03  3.40873E+03 -6.79320E+02  1.31191E+03
 -2.05949E+03  2.43336E+03 -2.56035E+03 -1.38758E+03  7.91363E+01  2.13902E+03  9.83607E+02 -2.89432E+03
  1.10606E+02 -5.13877E+03 -1.81893E+03  1.63821E+03  4.05388E+03  4.12240E+03  6.09181E+02 -6.09796E+02
  1.03926E+03  4.35805E+03  2.18965E+03  3.73530E+03 -1.58714E+03 -1.13455E+03  5.36456E+02  2.16277E+03
  3.43329E+03  1.91381E+02  3.91241E+03  4.53653E+01  3.31022E+03  5.38122E+03  2.94576E+03  4.91770E+03
 -1.83889E+03 -1.42237E+03  1.11858E+03  2.03663E+02  4.21124E+03 -3.01159E+03  4.24473E+02 -6.99945E+03
  2.26163E+03 -4.89679E+03  1.16922E+03  4.29152E+02  4.07624E+02 -3.48978E+03  1.75997E+03  1.86286E+03
 -2.92607E+02 -9.70867E+02 -2.80262E+03  2.78575E+03  3.15447E+03 -1.04148E+03 -3.60248E+03 -2.61874E+03
 -2.22881E+03  2.02257E+02 -2.21636E+03  3.22946E+03 -2.16163E+03  4.13375E+03 -1.27694E+03  1.14874E+03
  1.44719E+03  3.29860E+02  9.58438E+00 -2.88022E+03 -9.34072E+02  1.77787E+03  3.03829E+03  2.11948E+03
 -8.23600E+01 -1.71898E+03  2.13789E+03  3.32160E+03 -4.39376E+02  1.40879E+02 -1.78734E+03 -4.62070E+02
 -2.23723E+03  2.69282E+02  1.81371E+03  1.45034E+03 -3.42816E+03 -2.33640E+03  1.15034E+03  1.99403E+03
 -1.15524E+03 -2.85344E+02 -2.84925E+02 -2.81633E+03  3.95297E+03  2.07845E+03  1.65627E+03  5.39347E+03
  6.12681E+03 -2.25673E+03 -3.26256E+03  8.16583E+02  5.71915E+02  3.67913E+03 -3.12783E+02  4.52624E+03
 -2.69765E+03 -5.64857E+03 -9.02217E+02 -2.61425E+03 -3.29524E+03 -5.50791E+03 -7.04065E+02  9.13133E+02
  4.17326E+03 -1.31928E+02  1.72796E+03  5.97536E+01  2.37182E+03  2.96425E+03 -2.78081E+03 -4.19877E+02
  3.12642E+03  1.56181E+03 -1.07341E+03  2.59121E+03  2.20500E+03 -2.35106E+03  3.56874E+03  2.44083E+03
 -1.63644E+03  2.40502E+03 -1.51322E+03  6.33344E+02 -2.80769E+02 -6.75599E+02 -5.63203E+02  1.33079E+03
  2.66762E+02 -2.85353E+03  1.51765E+03  3.51329E+02  2.49591E+03 -1.89920E+03 -5.08145E+02  2.13337E+03
  2.78364E+02  3.84196E+03 -1.07151E+03 -1.60870E+03 -2.39179E+03 -1.24484E+03 -2.44999E+03  3.24889E+03
  1.92047E+03 -1.09395E+03  2.72002E+03 -2.62039E+02  3.15065E+03 -3.48634E+03 -5.40676E+02  1.32878E+03
 -4.31768E+02  2.42016E+03 -5.38540E+02  1.29232E+03  1.45816E+03  1.42449E+02  4.30662E+02 -6.10089E+02
  7.78755E+02  3.23435E+03  8.65235E+02 -2.59693E+03 -1.82232E+03 -3.70056E+03  3.86415E+03  4.61364E+02
  1.54948E+03 -1.66343E+03 -2.83319E+03 -1.68447E+03 -6.26173E+02  1.92453E+03 -2.05016E+03 -3.58872E+03
