 $NMID ID='MM_0lb_SNR50_11hz_g45_96.RAW', FMTDAT='(8E13.5)'
 TRAMP=1., VOLUME=1. $END
  3.13478E+05  1.59974E+03  3.33321E+05  2.48551E+05  8.55140E+04  3.36709E+05 -1.34292E+05  2.55091E+05
 -1.85111E+05  8.39679E+04 -1.06850E+05 -3.14717E+04  3.28247E+03 -5.01656E+04  5.83516E+04 -1.62781E+03
  3.43479E+04  5.47967E+04 -1.23141E+04  7.61346E+04 -5.70620E+04  6.58217E+04 -8.25852E+04  3.55575E+04
 -8.58334E+04 -1.24711E+04 -5.41592E+04 -5.50594E+04 -2.38575E+04 -6.76336E+04  2.90155E+04 -4.48522E+04
  4.03801E+04  3.53011E+03  1.84876E+04  4.63550E+04 -3.64704E+04  5.22862E+04 -7.01741E+04 -6.50589E+02
 -5.52101E+04 -5.63869E+04 -2.14865E+03 -8.12035E+04  3.24150E+04 -5.76329E+04  4.53877E+04 -1.92526E+04
  4.47565E+04  1.04468E+04  3.36093E+04  2.92532E+04  1.35147E+04  3.11717E+04 -1.72870E+03  3.03308E+04
 -2.24731E+04  1.34580E+04 -1.62787E+04 -8.71002E+03  6.45299E+03 -6.97724E+03  2.54762E+04  1.18107E+04
  1.05552E+04  3.20753E+04 -3.25665E+04  3.37247E+04 -6.47609E+04  2.17950E+03 -5.55238E+04 -4.11093E+04
 -1.31267E+04 -6.31558E+04  3.96116E+04 -5.20277E+04  6.19621E+04  2.47620E+03  3.46469E+04  2.84984E+04
 -5.38016E+03  4.13876E+04 -3.33848E+04  1.46561E+04 -3.30749E+04 -6.52812E+03 -1.38713E+04 -1.00442E+04
 -8.40561E+03 -1.15264E+04 -5.25824E+03 -1.77455E+04  8.54004E+03 -2.45546E+04  1.73779E+04 -1.62222E+04
  1.30642E+04  1.95293E+03 -8.58102E+03  1.82392E+04 -2.42658E+04 -9.28838E+03 -8.80732E+03 -3.08828E+04
  2.41428E+04 -4.65557E+04  5.53055E+04 -2.14324E+04  4.86994E+04  2.24035E+04  1.10665E+04  4.50462E+04
 -1.78399E+04  3.92463E+04 -2.72598E+04  3.29872E+03 -6.05747E+03 -2.96207E+04  2.93003E+04 -3.37553E+04
  4.49221E+04 -8.53991E+03  4.05730E+04  2.19750E+04  1.84563E+04  4.68950E+04 -5.11555E+03  4.45488E+04
 -3.70881E+04  4.06210E+04 -4.55012E+04  7.02474E+03 -4.21085E+04 -1.30179E+04 -2.48889E+04 -3.89118E+04
  7.64827E+03 -4.11711E+04  2.98630E+04 -1.21468E+04  2.88815E+04  1.34435E+04  2.51338E+03  2.21581E+04
 -1.40044E+04  3.07039E+03 -1.04939E+04 -7.99832E+03  1.37916E+04 -1.66304E+04  1.60366E+04  7.08053E+03
  1.54624E+04  1.91544E+04 -4.76374E+03  2.50679E+04 -2.12793E+04  1.70756E+04 -3.01562E+04 -3.93211E+02
 -2.22724E+04 -1.82992E+04 -1.26113E+04 -2.27565E+04  8.59387E+03 -2.05948E+04  1.32859E+04 -2.32591E+04
  2.81030E+04 -1.10582E+04  3.48032E+04 -1.62239E+02  2.73388E+04  2.58642E+04  3.01919E+02  3.79873E+04
 -1.95569E+04  2.60314E+04 -3.03363E+04  9.86932E+03 -2.54249E+04 -1.10934E+04 -5.00099E+03 -1.74601E+04
 -2.84557E+03 -1.25741E+03 -4.24714E+03  7.55537E+03 -1.65419E+04  7.33872E+03 -1.18617E+04 -9.24088E+03
 -1.00169E+04 -2.32425E+04  6.27912E+03 -1.81435E+04  1.27217E+04 -1.32150E+04  1.56530E+04  7.60753E+01
  1.26888E+04  2.03620E+04 -3.98895E+03  1.81538E+04 -1.62965E+04  1.23558E+04 -1.75740E+04  1.69333E+03
 -2.00077E+04 -2.01256E+04 -1.37743E+03 -2.65472E+04  6.80979E+03 -2.27977E+04  2.32011E+04 -1.79353E+04
  2.25821E+04  1.92987E+03  1.48150E+04  7.53187E+03  8.61032E+03  7.76432E+03  9.09950E+03 -6.52181E+03
  2.53499E+04 -2.24647E+03  2.30898E+04  1.63170E+04  1.50782E+04  3.39332E+04 -1.94651E+03  4.18593E+04
 -1.97786E+04  3.61912E+04 -3.15982E+04  1.31343E+04 -3.56240E+04 -3.48768E+03 -2.89148E+04 -2.59547E+04
 -1.26663E+04 -3.43981E+04  1.05076E+04 -2.91468E+04  1.99826E+04 -1.53571E+04  1.98202E+04  7.04035E+03
  9.65637E+03  1.44557E+04 -9.47842E+03  8.49583E+03 -1.71523E+04  3.49552E+03 -1.74552E+04 -9.01551E+03
 -1.09344E+03 -1.87559E+04  1.13199E+04 -1.48861E+04  7.30189E+03 -5.41912E+03  3.26557E+03  1.01513E+04
 -1.00982E+04  4.05439E+03 -7.33291E+03 -4.74304E+03 -2.73989E+03 -1.40524E+04  9.53757E+03 -1.03742E+04
  2.11571E+04 -7.86338E+03  2.28924E+04  1.27976E+04  2.05053E+04  1.54666E+04  1.24500E+04  2.49244E+04
 -5.07705E+03  2.46376E+04 -1.90105E+04  1.97473E+04 -2.09249E+04  1.26602E+03 -1.30772E+04 -8.73722E+03
 -5.13723E+03 -4.05540E+03 -3.48983E+02  2.26348E+03  1.86559E+03  7.79668E+02 -1.18730E+04  6.35113E+03
 -2.12387E+04 -3.97377E+03 -1.20009E+04 -1.37204E+04 -4.90852E+03 -1.44239E+04  7.12704E+03 -1.67666E+04
  1.08452E+04 -7.45589E+03  3.96715E+03  3.27348E+03  1.64952E+03  9.62446E+03 -5.42174E+03 -2.64727E+03
 -4.99249E+03 -1.02207E+04  2.75971E+03 -1.16416E+04  6.01660E+03 -1.46809E+04  1.83363E+04 -8.65502E+03
  1.39112E+04  1.53293E+03  8.67806E+03  1.18401E+04  5.75685E+03  2.00950E+04 -5.24813E+03  1.96085E+04
 -7.85957E+03  1.06038E+03  1.16070E+03 -2.02343E+03  3.56211E+03 -5.93934E+03  3.07402E+03  2.61491E+03
  2.15530E+03  7.84223E+03  3.19390E+03  1.87341E+04 -5.67980E+03  1.13825E+04 -1.77346E+04  2.31326E+03
 -6.70535E+03 -9.27598E+03  6.15813E+03 -9.91195E+03  1.14436E+04 -5.72715E+03  7.47981E+03 -1.73948E+03
 -3.32735E+03  4.07971E+03 -3.43696E+03  1.13154E+04 -1.57010E+04  5.66407E+02 -1.11338E+04 -9.51430E+03
 -9.89001E+03 -1.31825E+04  2.98124E+03 -1.23114E+04  1.36422E+04 -4.47884E+03  1.75930E+04  8.66312E+02
  5.63092E+03  1.16996E+04  3.71811E+03  1.41141E+04 -8.18983E+03  1.30256E+04 -8.77088E+03 -5.57579E+02
 -8.31556E+03 -3.28992E+03  1.67066E+03 -7.05541E+03  4.09076E+03 -2.06069E+03  6.04142E+03 -6.22634E+03
  4.31239E+03  6.82935E+03 -3.27028E+03  1.30071E+03 -3.34171E+02 -1.06140E+03  6.89631E+03 -3.34304E+03
  4.94729E+03 -4.08323E+03  1.23360E+04  1.29416E+03  1.35431E+04  6.88043E+03  7.67775E+03  1.84288E+04
 -3.47568E+03  1.65122E+04 -1.05317E+04  1.51620E+04 -1.95517E+04  7.45423E+03 -1.83269E+04 -5.75663E+03
 -6.24909E+03 -1.29122E+04 -4.41900E+03 -1.11808E+04  3.15730E+03 -6.17602E+03  2.58055E+03 -3.34009E+03
  4.73117E+03 -2.16469E+03  9.47005E+03  1.14618E+03  2.13400E+03 -2.68129E+03  6.74816E+03 -2.83215E+03
  5.98563E+03  7.81788E+02  1.78009E+03  9.53192E+03 -3.72122E+03  6.36057E+03 -1.03621E+04  8.90744E+03
 -1.57847E+04 -1.81084E+03 -5.58529E+03 -1.13278E+04  3.61843E+03 -1.58410E+04  1.05511E+04 -1.08614E+04
  1.18998E+04 -4.06473E+03  1.43062E+04 -5.10236E+03  6.67550E+03  1.25070E+04 -3.70411E+01  1.61313E+04
 -4.64545E+03  1.23714E+04 -7.95003E+03  7.14575E+03 -1.04713E+04  1.49413E+02 -1.89501E+03 -6.74798E+03
 -2.85608E+03  6.24734E+02 -4.86985E+03  2.55711E+03 -6.49464E+03  4.12600E+03 -4.53111E+03 -3.35440E+02
 -4.22856E+03 -7.28516E+03 -2.68439E+03 -7.27463E+03  3.75937E+03 -1.22882E+04  1.19532E+04 -4.07367E+03
  1.17144E+04 -1.78358E+03  6.37426E+03  6.46115E+03 -4.13353E+03  1.43334E+04 -8.41312E+03  1.00049E+04
 -1.17187E+04  3.32001E+03 -1.53240E+04 -4.05585E+02  2.55421E+03 -1.40473E+04  9.19656E+03 -6.52541E+03
  1.62276E+03 -7.02075E+03  1.10427E+04  5.06108E+03  4.95093E+02  4.58985E+03  3.12865E+03  3.80840E+03
  5.65750E+03  7.01277E+02  8.55063E+02  6.91290E+02  4.13466E+03  7.69523E+03  6.37694E+03  4.79270E+03
  1.59299E+03  6.76405E+03 -8.43257E+03  6.19800E+03 -1.38867E+04  2.36249E+03 -1.22397E+04 -7.85847E+03
  2.60122E+03 -8.14290E+03  3.94352E+03 -1.34582E+04  7.72852E+03 -8.69056E+03  6.36528E+03 -1.39249E+03
  5.08461E+03  1.68596E+03  3.60345E+02  3.06187E+03  8.91068E+02  1.49563E+03 -6.06642E+03 -2.72111E+03
 -4.31743E+03 -7.95586E+03  8.03567E+03 -3.22760E+03  4.16404E+03 -4.51991E+03  4.52812E+03  5.70068E+03
 -3.61354E+03  1.19349E+03  5.69753E+03  3.11842E+03 -4.08703E+03  3.38673E+03  4.66122E+03 -8.42784E+02
 -4.13754E+02  7.38071E+02  6.79133E+03  1.99801E+03  3.05161E+03  1.29001E+04  1.21461E+02  6.92835E+03
 -5.38753E+03  6.62811E+03 -6.81018E+03  1.17173E+03 -7.24820E+03 -4.86079E+03  2.95329E+03 -1.92822E+03
  1.82736E+03 -7.71196E+03 -1.84234E+03 -2.73396E+03  6.31701E+03  5.35124E+03  1.25105E+03  5.38044E+03
 -2.12760E+03  1.34194E+03 -6.68591E+02 -5.58911E+03  1.80430E+03 -6.08502E+03 -5.69723E+03 -8.01390E+03
  1.88512E+03  1.78004E+03  7.73045E+03 -1.22674E+03  1.90365E+03 -1.14936E+03 -6.63129E+02  3.47812E+03
 -4.03786E+03  1.53055E+03 -6.92946E+03 -5.63619E+03  1.16311E+03 -5.52561E+03  6.78662E+03  5.95789E+02
  6.01667E+03 -2.76936E+03  5.29780E+03  5.90979E+03 -4.27847E+03  1.01743E+04 -5.23061E+02  1.27665E+04
 -5.02345E+03  1.36846E+03 -6.46915E+03 -2.25846E+03 -6.79269E+03 -7.07919E+03  1.37267E+03  2.97697E+03
  9.49594E+03  1.00836E+03  4.42977E+03 -7.61631E+02  1.49207E+03  5.06929E+02  5.27137E+03  4.78299E+03
 -4.34994E+03  6.49574E+03 -8.35042E+00 -6.60864E+02  3.17395E+03  5.27941E+03  1.51547E+03  2.54285E+03
 -1.21966E+03  6.92539E+03 -1.90234E+03  1.36762E+03 -3.83850E+03 -5.63341E+03 -7.24751E+03 -1.13822E+03
 -2.02542E+03 -7.00892E+03  1.22638E+03 -7.75847E+03  7.32259E+02 -1.10520E+04  6.47178E+03  4.11492E+03
  1.14367E+04  1.24134E+03  8.69366E+03  9.79910E+03 -5.02089E+03  5.89973E+03 -6.41871E+03  2.00067E+03
 -3.88884E+03  6.81087E+03 -6.38690E+03  3.63100E+03 -1.41497E+03  4.19897E+03  5.77030E+03  1.31534E+03
 -1.07896E+03  3.73162E+02  1.53292E+03 -4.24702E+03  2.12151E+03 -5.55069E+03  7.26495E+03 -5.87705E+03
  5.72005E+03  4.39793E+02  4.19819E+03 -2.79166E+03  5.21964E+03 -2.09532E+03 -1.14956E+03  3.75780E+03
 -5.68388E+03  6.95786E+03 -1.09069E+04  1.07431E+04 -1.13912E+03  2.92758E+02 -6.01005E+03 -7.52237E+03
 -8.37853E+03 -6.04952E+03  7.38558E+03 -1.25918E+04  5.73661E+03 -4.08038E+03  1.30973E+03 -2.54622E+03
  1.43482E+03  4.54274E+03  3.02763E+03  2.24028E+03 -3.15742E+03  2.45132E+03 -2.07531E+03 -4.87441E+03
  2.05719E+02  1.89652E+03  6.00361E+03  2.94432E+03  6.76249E+03  1.43226E+03  2.15567E+03  6.11358E+03
  2.16704E+03  3.24023E+03 -3.84178E+03  6.88249E+02 -8.23173E+03 -4.58566E+03 -1.43922E+03 -2.33511E+03
  1.09793E+04 -5.67441E+03  6.45868E+03  4.04897E+03  7.41384E+03  8.67093E+03  8.03622E+02  6.37453E+03
  1.35228E+03  7.14998E+03  1.35365E+03  3.49682E+03 -1.83997E+03  3.91379E+03 -5.57889E+03 -1.90798E+03
  2.91862E+03  1.65597E+03 -4.62893E+02  3.85950E+03 -4.88291E+03 -2.18380E+02  4.12608E+03  1.87247E+03
 -1.46715E+03  2.96679E+03  1.21719E+03 -8.35611E+02 -3.72768E+03 -6.40553E+03  1.94154E+03  2.24266E+03
  7.90712E+03  2.77174E+03 -1.78324E+03  6.07971E+03  1.37658E+03  6.83356E+03  1.17524E+03  5.41263E+03
