 $NMID ID='MM_0lb_SNR50_18hz_g50_24.RAW', FMTDAT='(8E13.5)'
 TRAMP=1., VOLUME=1. $END
  3.09296E+05  1.00184E+03  3.37471E+05  2.52264E+05  8.68108E+04  3.33410E+05 -1.32832E+05  2.51633E+05
 -1.91090E+05  8.20204E+04 -1.12773E+05 -3.18584E+04  1.81861E+03 -4.85583E+04  5.47167E+04  7.87965E+02
  3.62021E+04  5.91271E+04 -1.68661E+04  7.14026E+04 -5.90289E+04  5.63555E+04 -8.02752E+04  3.00802E+04
 -7.53372E+04 -1.01410E+04 -5.60455E+04 -4.77183E+04 -1.50084E+04 -6.43686E+04  2.49926E+04 -4.58608E+04
  4.10446E+04  5.01428E+03  1.82339E+04  4.69660E+04 -3.92085E+04  4.71658E+04 -6.76107E+04 -1.56069E+03
 -5.26627E+04 -5.96607E+04 -9.95731E+03 -7.40049E+04  3.07809E+04 -5.56099E+04  4.89245E+04 -1.32370E+04
  3.80651E+04  9.11681E+03  2.41547E+04  2.09399E+04  1.49479E+04  3.03925E+04 -1.08502E+04  2.70308E+04
 -2.69125E+04  1.16343E+04 -1.73594E+04 -1.64131E+03  5.44781E+03 -6.98942E+03  1.73123E+04  1.22745E+04
  1.07905E+04  3.50437E+04 -3.71362E+04  3.34218E+04 -6.07107E+04  7.09677E+03 -5.70563E+04 -3.94971E+04
 -1.43662E+04 -6.44093E+04  4.00093E+04 -4.67445E+04  5.32973E+04 -3.36265E+01  3.23760E+04  2.99009E+04
 -3.59529E+03  3.15354E+04 -2.35979E+04  1.06776E+04 -2.90178E+04 -3.00617E+03 -1.41936E+04 -1.15176E+04
 -5.38086E+03 -1.37856E+04 -7.73573E+02 -1.83590E+04  5.12157E+03 -2.00718E+04  1.57399E+04 -1.75341E+04
  1.54217E+04  4.08783E+03 -8.03881E+03  1.43804E+04 -2.43069E+04 -1.52910E+03 -4.45027E+03 -3.14430E+04
  1.84293E+04 -4.05168E+04  4.48801E+04 -1.64818E+04  4.02304E+04  1.94269E+04  9.75775E+03  4.50733E+04
 -1.79763E+04  3.06094E+04 -2.48545E+04 -8.87659E+02 -7.70372E+03 -2.54076E+04  1.36799E+04 -3.39054E+04
  3.73040E+04 -9.42845E+03  3.19688E+04  2.01030E+04  2.07175E+04  4.11251E+04 -7.26529E+03  4.46991E+04
 -2.90755E+04  3.39606E+04 -3.88062E+04  8.62741E+03 -4.04153E+04 -1.67331E+04 -2.07331E+04 -3.60877E+04
  8.90909E+03 -3.25159E+04  2.63055E+04 -1.47479E+04  2.81978E+04  1.05280E+04  1.55504E+02  1.96741E+04
 -1.68555E+04  4.91803E+03 -1.25388E+04 -5.90490E+03  5.31260E+03 -1.75102E+04  1.71063E+04  7.12452E+03
  1.33342E+04  2.57842E+04 -4.51199E+03  2.56888E+04 -2.29369E+04  6.96246E+03 -2.51535E+04 -6.59022E+03
 -2.15583E+04 -1.37556E+04 -7.96007E+03 -1.51893E+04  3.99449E+03 -1.64700E+04  1.51277E+04 -1.63845E+04
  2.63617E+04 -1.35513E+04  2.82169E+04 -4.98068E+02  1.93116E+04  1.68941E+04  5.36670E+03  3.48780E+04
 -1.85566E+04  2.75918E+04 -2.66599E+04  9.37599E+03 -1.77102E+04 -1.40291E+04 -3.77613E+03 -1.25333E+04
  2.96171E+03 -2.54512E+03 -1.53502E+03  5.88550E+03 -7.76359E+03  8.72400E+03 -1.33752E+04 -6.04119E+03
 -5.53517E+03 -1.98087E+04  8.49549E+03 -1.90511E+04  9.38818E+03 -1.46365E+04  1.20199E+04  6.61515E+02
  1.27868E+04  9.10876E+03 -2.22792E+02  1.64938E+04 -1.08460E+04  7.80951E+03 -1.64877E+04 -7.26826E+03
 -8.95882E+03 -1.20389E+04  3.30858E+03 -2.04651E+04  7.88390E+03 -1.91209E+04  1.77814E+04 -8.16854E+03
  1.62611E+04 -2.67361E+02  7.50979E+03  9.39819E+03  6.13877E+03  3.45451E+03  6.90906E+03  1.22114E+03
  1.84934E+04  3.30507E+03  1.50545E+04  1.77121E+04  1.09257E+04  2.39292E+04 -1.88755E+02  2.36651E+04
 -1.65199E+04  1.93683E+04 -2.56638E+04  8.29104E+03 -2.38420E+04  2.54247E+01 -2.28686E+04 -1.31861E+04
 -1.07953E+04 -2.01428E+04  7.03666E+03 -2.23447E+04  2.22193E+04 -1.08911E+04  1.32032E+04  1.68703E+03
  3.98781E+03  1.18009E+04 -7.08622E+03  1.40626E+04 -1.81461E+04 -1.65693E+03 -1.25218E+04 -4.46174E+03
 -6.04128E+01 -1.60655E+04  7.47327E+03 -1.47777E+04  6.73639E+03 -5.40361E+02 -4.81443E+02  6.38688E+03
 -7.47605E+03  4.65716E+03 -6.27352E+03 -2.89995E+03 -6.99335E+02 -1.07101E+04  6.40099E+03 -1.09365E+04
  1.32268E+04 -6.83183E+03  1.30248E+04  5.98130E+03  1.46700E+04  7.33830E+03  4.07574E+02  1.56824E+04
 -4.58275E+03  2.01906E+04 -1.15687E+04  8.65476E+03 -1.18005E+04  2.19000E+03 -6.38376E+03 -8.14145E+02
 -3.16573E+03 -3.39308E+03 -1.36805E+03 -3.46190E+03 -2.11532E+03  4.55559E+03 -3.88837E+03  3.56197E+03
 -1.01405E+04  1.79093E+03 -1.17129E+04 -7.26125E+03 -6.36897E+03 -1.28131E+04  5.55796E+03 -1.18891E+04
  5.38447E+03 -7.74067E+03  5.83265E+03  1.41198E+03  4.17041E+01  3.58433E+03 -3.51575E+03 -2.07523E+03
 -5.89821E+03 -5.05714E+03 -1.98676E+03 -4.64402E+03 -8.80950E+02 -8.63121E+03  1.11584E+04 -6.68045E+03
  8.27886E+03  8.36434E+02  1.23678E+04  3.96189E+03  3.44739E+03  7.98668E+03 -6.90505E+03  7.76371E+03
 -8.14147E+03  7.26984E+03 -4.05869E+03 -2.72696E+03  6.79049E+03  1.35616E+03  6.75589E+03  4.69468E+03
  5.62505E+03  6.12208E+03  1.56597E+03  8.36746E+03 -1.09256E+03  5.22363E+03 -9.41744E+03  2.13058E+03
 -8.61912E+03 -4.74855E+03 -5.88653E+02 -8.31080E+03  4.06922E+03 -5.39239E+03  5.67874E+03  4.42039E+03
 -9.44676E+02 -4.36153E+02 -6.21764E+03  6.37890E+03 -1.35508E+03  3.03666E+03 -1.97512E+03  8.93206E+02
 -2.75956E+03 -1.29371E+03  2.27726E+03 -9.22867E+03  4.25912E+03 -5.80980E+03  7.62954E+03  5.34275E+02
  8.49699E+03  4.08572E+03 -1.56095E+03  3.25396E+03 -1.95919E+03  4.00048E+03 -5.08041E+03 -3.77279E+03
 -3.70500E+03 -4.18875E+03  9.28596E+02 -5.49569E+03  2.83518E+03 -4.93462E+03  7.04142E+02 -1.31271E+03
  2.19478E+03  4.10585E+02  9.19745E+02 -2.74952E+03  2.23662E+03  8.03896E+03  1.55538E+02 -1.27397E+03
  7.14842E+03 -1.48602E+03  3.40915E+03  2.56204E+03  4.54535E+03  4.00703E+03  5.96798E+03  1.13150E+04
  2.12741E+03  1.09296E+04 -8.86161E+03  6.31711E+03 -1.50386E+04 -8.33833E+02 -9.95309E+03 -3.40634E+03
 -2.63079E+03 -1.17741E+03  3.18456E+03 -7.07059E+03  5.04433E+03 -1.80821E+03  3.16962E+03 -3.28384E+03
  4.33925E+03 -2.36031E+03 -1.26583E+02  5.76036E+02  1.46854E+03 -4.52504E+03  7.65511E+02 -2.27369E+03
 -5.75327E+02  4.10964E+03 -1.51274E+03  2.49447E+03 -1.37060E+03  5.17044E+03 -7.24171E+03  2.45510E+03
 -6.75258E+03 -2.05102E+03 -8.74712E+02  3.64078E+02  2.96796E+03 -5.85431E+03  3.14700E+03 -4.51730E+03
  8.26373E+03 -1.63797E+03  3.50732E+03  3.94314E+03  6.75783E+03  3.94401E+03  1.54481E+03  6.22464E+03
 -1.55557E+03  4.17536E+03  7.78087E+02  8.91479E+02 -5.48565E+03 -7.70990E+02  4.22564E+03 -1.55526E+03
 -5.10329E+03  6.68720E+02 -1.05288E+03  1.02857E+03 -3.87508E+03 -1.23926E+03 -1.57315E+03  1.76465E+03
 -7.73062E+03 -5.28031E+03  2.46114E+03 -6.74616E+03  2.58160E+03 -6.79846E+03  2.46374E+03 -5.60494E+03
  5.35751E+03  2.37535E+03  1.26701E+03  8.68085E+02 -1.25958E+03  2.67891E+03 -3.48034E+03  6.99153E+03
 -1.35570E+03  3.09176E+03 -5.39388E+03 -2.96530E+03 -3.63222E+02 -3.65232E+03  4.79143E+03 -1.61001E+03
  3.40426E+03 -1.89159E+03  3.09663E+02 -2.00949E+03  2.98628E+03  3.69947E+03  3.70627E+03 -1.26787E+03
 -7.72359E+02  1.24424E+03  6.80047E+02 -4.21958E+03 -6.35816E+02  5.19243E+03  3.44221E+03  1.99550E+03
  1.31358E+03  3.80698E+03 -6.78672E+03  6.49107E+03 -2.65367E+03 -8.75069E+02 -6.53175E+03 -3.95926E+03
  7.60658E+02 -3.02704E+03  2.62053E+03 -7.69592E+03  1.76613E+03 -5.25752E+03  2.42792E+03  5.16464E+02
 -3.44464E+02 -1.51791E+02 -3.24040E+02 -6.67313E+02 -4.84524E+00  2.13097E+03 -2.43958E+03  2.61852E+03
 -1.49395E+03 -2.27974E+03  1.37387E+02 -3.35826E+03 -1.61036E+03 -1.71780E+03 -3.42226E+02  7.42784E+02
 -2.25021E+03 -8.98580E+02  2.59887E+00  3.01235E+02 -2.11904E+03  1.25752E+03 -9.28462E+02  1.42897E+03
  2.25598E+03  1.55201E+03  1.07339E+03 -2.24162E+03  5.39768E+02  1.60773E+03  5.87004E+02 -1.00673E+03
  1.58895E+03 -1.27260E+03  9.27804E+02 -4.12635E+03 -2.31084E+03  3.94558E+03 -2.51754E+03 -2.97859E+02
  1.21496E+03  1.48283E+03  2.42397E+03 -4.67606E+02  1.48005E+03  2.62573E+03  2.72215E+03  1.56154E+03
 -4.84613E+03  9.74828E+02 -6.18264E+02  3.91889E+03 -3.30254E+03 -3.48017E+03 -4.81390E+01 -4.10972E+03
 -6.41686E+01  2.10910E+03  4.73725E+03  1.77259E+03 -2.84620E+03  3.70200E+02  2.70127E+02  1.66923E+03
  3.14799E+03 -6.61045E+02 -3.03136E+03  1.97691E+03  2.98972E+03 -1.17916E+03 -1.11411E+02 -3.96862E+03
  5.61839E+03  2.11424E+03  4.35468E+03  2.34371E+03 -9.01872E+02  4.53975E+03 -2.11701E+02  5.90836E+03
 -3.08412E+02 -2.13706E+03 -6.54202E+03  8.37118E+02  1.54346E+03  1.49511E+01  3.90778E+03  1.96208E+03
  3.10777E+03 -9.68010E+02  1.12952E+02 -1.65038E+03  1.62505E+03 -3.65652E+01  2.96230E+03  3.69302E+03
 -4.08326E+02 -3.07577E+02  1.74349E+03  5.33803E+02 -1.67346E+03  7.52858E+02 -5.01835E+03  2.73606E+03
  2.90486E+03  2.68462E+03 -1.24896E+03  2.04175E+03  1.18706E+03 -3.39235E+03 -1.02934E+03 -3.95815E+03
  1.75193E+02 -2.04341E+03 -5.97399E+02 -6.66141E+03  2.98390E+03 -4.19841E+02  2.16940E+03  1.00623E+03
  4.27177E+03 -2.64165E+03  3.90667E+03  1.08380E+02 -6.76020E+02 -1.87108E+03 -1.12310E+03 -6.71225E+02
 -2.11422E+03  3.99810E+03 -3.78875E+03  3.39189E+03  1.39199E+03  1.43213E+03 -1.62601E+03 -3.31181E+03
 -7.24891E+03 -2.00952E+03 -1.07201E+03  1.56044E+02 -2.90637E+02  1.60654E+03 -1.69655E+03 -3.75148E+03
  2.29058E+03 -1.74233E+03  6.47776E+02 -2.81238E+02  3.36463E+03  3.08703E+02  1.51041E+03  5.32138E+03
  2.00120E+03  1.26154E+03 -5.47967E+03 -1.57446E+03 -5.44710E+03 -1.90927E+03 -3.74467E+02 -1.47213E+03
  2.20501E+03 -6.74197E+03  3.89963E+02  3.25532E+03  3.64684E+03 -2.23231E+03 -6.49452E+02 -1.74138E+03
 -1.21714E+02 -3.03920E+03  1.70142E+03  5.97293E+03  4.34298E+02  2.24934E+03  4.61209E+02 -1.76519E+03
  3.27556E+03 -2.95883E+03  5.18447E+02 -1.75387E+03  2.15778E+03  2.64521E+02  4.75704E+03  3.07502E+03
 -3.05081E+03 -9.42997E+01  2.14370E+03 -9.00765E+02 -4.82206E+02  3.91388E+02 -1.06793E+03  1.33105E+03
  7.48337E+03 -7.11874E+02  3.76780E+03 -1.34838E+02  5.70918E+02  2.28749E+03 -5.61792E+02 -3.17818E+03
 -4.87225E+02  5.86089E+03 -1.41319E+03  1.18976E+03 -2.24677E+03  3.82723E+03 -1.68537E+03  1.45313E+03
 -1.10641E+03  2.72045E+02 -2.79834E+02  1.56020E+03 -3.35334E+03 -3.05935E+03 -2.72239E+02 -1.25656E+03
 -1.94425E+03  1.05840E+03 -2.81802E+02  4.58473E+02  2.38050E+03  1.71256E+03  2.22043E+03 -9.39954E+02
  2.20529E+03 -7.40341E+02 -1.60108E+03  5.14987E+03  1.95120E+02  2.92639E+03 -1.90572E+03 -1.28443E+03
