 $NMID ID='MM_0lb_SNR50_13hz_g60_74.RAW', FMTDAT='(8E13.5)'
 TRAMP=1., VOLUME=1. $END
  3.06133E+05 -1.29519E+03  3.41363E+05  2.51494E+05  8.38500E+04  3.35590E+05 -1.36143E+05  2.51278E+05
 -1.90600E+05  8.72465E+04 -1.09228E+05 -3.10349E+04 -2.89994E+03 -4.81785E+04  5.86145E+04 -3.26074E+03
  3.67980E+04  5.23831E+04 -1.75725E+04  7.87654E+04 -6.42602E+04  6.29156E+04 -8.39718E+04  2.77074E+04
 -8.33553E+04 -1.29274E+04 -5.73982E+04 -5.24481E+04 -1.85936E+04 -7.04487E+04  2.77539E+04 -4.60320E+04
  4.02312E+04  3.07415E+03  1.97236E+04  4.83282E+04 -3.39998E+04  4.74596E+04 -6.99349E+04 -9.65487E+02
 -5.17946E+04 -6.02024E+04 -7.11254E+03 -8.01460E+04  3.49456E+04 -5.33619E+04  4.80866E+04 -2.04131E+04
  4.58450E+04  1.11931E+04  3.14329E+04  3.13729E+04  1.53273E+04  3.20049E+04 -6.52056E+03  2.50936E+04
 -2.17276E+04  1.45435E+04 -1.58031E+04 -2.81164E+02  4.31100E+03 -1.12268E+04  2.44819E+04  1.86346E+04
  7.88307E+03  3.57645E+04 -3.07706E+04  3.39840E+04 -6.56692E+04 -2.32498E+03 -5.53264E+04 -4.82691E+04
 -1.20681E+04 -6.62007E+04  3.75839E+04 -4.88688E+04  5.75581E+04  2.87606E+03  4.08271E+04  3.09436E+04
 -8.13247E+03  3.62296E+04 -2.99255E+04  2.18983E+04 -3.14792E+04 -6.63555E+03 -1.56806E+04 -1.35204E+04
 -1.10905E+04 -1.24893E+04 -7.58516E+03 -1.48536E+04  1.43242E+04 -2.25870E+04  1.78874E+04 -1.53601E+04
  1.08085E+04  6.32735E+03 -7.15182E+03  1.19205E+04 -1.85487E+04 -3.23321E+03 -1.05596E+04 -3.55720E+04
  2.84322E+04 -4.06872E+04  4.81048E+04 -2.00516E+04  4.89750E+04  2.26582E+04  1.68883E+04  4.53360E+04
 -1.60168E+04  3.57283E+04 -2.74029E+04  1.01870E+02 -1.49350E+04 -2.69276E+04  1.97959E+04 -4.00858E+04
  4.03249E+04 -7.00851E+03  4.03622E+04  2.83923E+04  1.49159E+04  5.39128E+04 -1.04402E+04  5.26080E+04
 -3.22609E+04  3.74018E+04 -4.50420E+04  7.87777E+03 -4.53867E+04 -1.74437E+04 -2.79181E+04 -3.77534E+04
  3.99523E+03 -4.52131E+04  3.63142E+04 -1.77953E+04  3.42581E+04  1.46190E+04  1.84600E+03  1.98817E+04
 -1.13934E+04  1.23536E+04 -1.16269E+04 -6.52297E+03  4.83278E+03 -1.21922E+04  1.94279E+04  5.52371E+03
  1.33307E+04  1.92808E+04 -5.30220E+03  2.25517E+04 -1.76065E+04  1.12146E+04 -2.81791E+04 -7.30889E+03
 -1.81168E+04 -1.77516E+04 -7.23134E+03 -2.59944E+04  9.88398E+02 -2.23939E+04  1.83811E+04 -1.54402E+04
  2.84069E+04 -1.25112E+04  3.39431E+04  4.87699E+03  1.93818E+04  2.50223E+04  8.03007E+03  3.72473E+04
 -1.65877E+04  3.24615E+04 -3.54201E+04  1.42411E+04 -2.32979E+04 -1.37387E+04 -3.50385E+03 -1.32593E+04
  3.60689E+03 -5.20512E+03 -6.57368E+03  8.38149E+03 -1.62212E+04  8.08764E+03 -1.82586E+04 -1.28178E+04
 -6.76323E+03 -2.15631E+04  6.62224E+03 -2.24354E+04  1.86796E+04 -1.73074E+04  1.66088E+04  3.10309E+02
  1.59205E+04  1.41732E+04  5.79389E+03  1.60130E+04 -1.68461E+04  1.15603E+04 -1.99933E+04 -3.65588E+03
 -1.78809E+04 -1.39439E+04 -6.04918E+03 -2.83925E+04  1.14313E+04 -1.72129E+04  2.15277E+04 -1.01583E+04
  1.78669E+04 -1.12248E+03  1.19379E+04  1.47832E+03  8.49468E+03  1.84494E+03  1.43933E+04  9.90805E+02
  1.91084E+04 -4.42011E+01  2.32953E+04  1.97376E+04  1.38341E+04  3.80296E+04  2.33822E+03  3.93444E+04
 -2.31395E+04  3.25331E+04 -3.65047E+04  1.11592E+04 -4.04032E+04 -5.06934E+03 -3.32089E+04 -2.39059E+04
 -8.21690E+03 -3.36630E+04  7.82244E+03 -2.76787E+04  2.07289E+04 -1.27910E+04  2.21366E+04  5.21435E+03
  1.08446E+04  1.85034E+04 -1.12070E+04  1.37847E+04 -1.53902E+04 -1.14290E+03 -1.20126E+04 -1.01187E+04
 -4.33960E+03 -1.20947E+04  8.39704E+03 -1.17420E+04  1.18315E+04 -2.73352E+03  4.50528E+03  2.08152E+03
 -8.87421E+03  7.73983E+03 -1.41366E+04 -5.34360E+03  7.05943E+02 -1.60051E+04  5.99901E+03 -1.07366E+04
  2.04480E+04 -4.24528E+03  1.98540E+04  6.50016E+03  2.24013E+04  1.62976E+04  7.87655E+03  2.54266E+04
 -5.05620E+03  2.53033E+04 -1.66533E+04  2.11653E+04 -1.86709E+04  2.59355E+03 -1.45296E+04 -9.04193E+03
 -7.89768E+03 -3.76077E+03 -2.93690E+03 -3.31316E+03 -4.30345E+03  3.39609E+03 -7.23042E+03  9.93953E+03
 -1.16906E+04 -1.46493E+03 -1.05920E+04 -8.51092E+03 -4.54422E+03 -1.99698E+04  5.31399E+03 -1.66257E+04
  1.47282E+04 -1.03080E+04  8.40846E+03  1.05364E+03  2.42318E+03  3.43608E+03 -9.06152E+03  6.22743E+03
 -8.98279E+03 -1.27081E+04  2.87888E+03 -8.35357E+03  4.96412E+03 -1.25226E+04  1.99020E+04 -2.43030E+03
  1.82576E+04  6.20225E+03  1.34920E+04  1.10387E+04  3.65599E+03  1.10828E+04 -8.21028E+03  1.26143E+04
 -1.23309E+04  9.24607E+00 -4.12669E+03 -4.51708E+03  2.06729E+03 -4.44236E+03  6.23778E+03 -1.33149E+03
  3.87226E+03  4.76914E+03  4.40271E+03  1.16382E+04 -4.89394E+03  1.23324E+04 -1.31781E+04  5.89097E+03
 -4.85223E+03 -5.82765E+03  2.07539E+03 -1.70856E+04  9.46691E+03 -3.37403E+03  4.54828E+03  3.88370E+03
  5.93374E+03  8.39524E+03 -1.07611E+04  5.24645E+03 -5.91527E+03  4.63870E+03 -9.76167E+03 -5.08750E+03
 -9.14634E+03 -1.30590E+04  2.28970E+02 -1.39589E+04  7.19395E+03 -1.41627E+04  1.52167E+04  5.97934E+03
  1.36050E+04  8.92891E+03  2.07446E+03  1.35823E+04 -5.25673E+03  1.10718E+04 -1.17080E+04 -2.55733E+03
 -6.08424E+03 -4.04729E+03 -1.15069E+03 -7.63207E+03  8.13337E+03 -1.81425E+03  9.41829E+02 -6.85230E+03
  8.22938E+03 -3.92258E+02  3.84910E+02  5.21887E+03 -2.78650E+03 -4.41465E+03  9.86015E+02 -6.49186E+03
  4.59084E+03 -8.91679E+03  1.72259E+04  2.06473E+03  1.06477E+04  9.62267E+03  4.72212E+03  1.25502E+04
 -1.45467E+03  2.02031E+04 -1.84961E+04  1.69166E+04 -2.02062E+04  3.59648E+03 -1.90867E+04 -8.37619E+03
 -9.09227E+03 -1.77566E+04  6.99364E+02 -1.31559E+04  9.05560E+03 -6.13030E+03 -2.45863E+02  7.32911E+02
  3.16277E+02 -2.16294E+03 -2.15657E+03 -1.57353E+03  7.46173E+02 -5.73258E+03  8.54123E+03 -1.22296E+03
  1.01174E+04  6.79517E+03  6.57999E+03  6.04847E+03 -1.35563E+03  8.94223E+03 -7.26360E+03  9.23173E+03
 -1.03457E+04 -3.22199E+03 -1.60251E+03 -5.90464E+03 -6.03330E+02 -1.19347E+04  4.78688E+03 -1.49703E+04
  7.13092E+03 -7.11280E+03  1.58340E+04  4.49011E+03  8.78827E+03  1.12838E+04 -1.24749E+03  1.30167E+04
 -5.91300E+03  9.21860E+03 -7.70002E+03 -1.41296E+02 -2.14144E+03 -2.10017E+03 -3.59520E+03 -3.29137E+03
 -1.79193E+03  4.82847E+03  1.54375E+03  7.34506E+02 -6.21738E+03  4.10173E+03 -7.48192E+03 -3.85660E+03
 -5.27767E+03 -4.45627E+03  3.27390E+03 -1.05113E+04  3.22598E+03 -7.86584E+03  7.93969E+03  1.33812E+03
  1.08693E+04  6.75168E+03 -1.60529E+03  9.82670E+03  1.49557E+03  6.35343E+03 -1.31409E+04  3.66498E+03
 -9.03269E+03  6.99690E+02 -8.57815E+03 -4.17896E+03  3.74608E+03 -8.22251E+03 -3.96117E+02 -3.46387E+03
  5.45487E+03 -3.09973E+03  5.99104E+03 -2.14208E+03  2.21385E+02  2.01249E+03  4.00521E+03 -2.61097E+03
  3.11737E+03 -2.80816E+03  6.03092E+03 -7.05628E+02  1.93984E+03  4.56881E+03 -1.62982E+03  6.46813E+03
  2.00431E+02  5.21532E+03 -9.66110E+03  9.00266E+03 -1.00317E+04  4.34995E+03 -7.05019E+03 -4.06475E+03
 -5.89130E+03 -9.65757E+03 -1.28770E+03 -1.05734E+04  3.18663E+03 -5.77826E+03  8.37412E+03  3.28089E+02
  4.91358E+03 -5.61022E+03  4.87465E+03  3.31513E+03 -3.73017E+03  1.34628E+02  5.15337E+02 -2.45776E+03
 -4.10167E+03 -3.48164E+03  1.23161E+03 -5.67527E+03  5.79422E+03 -1.69786E+03  5.34842E+03  2.95324E+03
  1.85748E+03  4.02397E+02 -6.17380E+02 -4.43512E+03 -4.55107E+03 -3.09767E+03  6.40264E+03  4.67541E+03
 -7.51979E+02 -1.22728E+03 -1.35688E+03  4.36146E+03 -2.21183E+02  4.26070E+03  1.52129E+02  7.91908E+03
 -9.54568E+03  7.00741E+03 -7.03315E+03  7.14239E+03 -8.64604E+03 -4.27438E+03  1.04054E+03 -6.12468E+03
  1.97640E+03 -4.44057E+03  3.02097E+03 -7.44281E+02  2.97191E+03  1.06693E+02 -1.75246E+03  7.30828E+03
 -6.45809E+02  1.66557E+03 -1.68877E+03 -3.99798E+03 -4.73039E+03 -8.15884E+03  1.32320E+03 -6.80314E+03
  6.58901E+03  2.94195E+03  3.70433E+03  2.06502E+03 -3.94858E+03  3.00371E+03 -3.28020E+03  5.40837E+03
 -2.67009E+03 -1.85942E+03 -3.44173E+02 -1.06744E+03  1.74194E+03 -4.18910E+03  2.25846E+03 -6.79320E+03
  6.29806E+03  1.49654E+03  4.57057E+03  3.90546E+03  5.05728E+03  2.03878E+03  7.38649E+02  5.23555E+02
 -5.44685E+02  7.52415E+03 -9.62634E+03  5.08686E+02 -5.18647E+03 -4.74945E+02  6.23106E+02  8.39305E+02
  6.36039E+03 -1.63486E+03 -6.35566E+02  4.11369E+03  4.61985E+03  4.42888E+03 -3.45725E+03 -7.56833E+02
 -5.41826E+03 -3.41739E+02 -4.73754E+03  6.77603E+03 -1.31373E+03 -5.94629E+03 -5.51696E+03  5.00086E+02
 -1.41176E+03  4.53230E+03 -4.73850E+02  2.47148E+03 -1.36557E+04  1.52893E+03 -3.37311E+03 -3.72782E+03
 -6.75525E+03 -1.13174E+04  1.03770E+04 -7.37230E+03  6.63764E+02 -4.75722E+03  9.65798E+03 -3.86322E+03
  5.90412E+03  1.39859E+03  9.55556E+03  7.00689E+03  1.17386E+03  4.05982E+03 -4.07925E+03  2.27972E+03
  4.66105E+02  2.92292E+03  1.90803E+03 -3.58620E+02 -1.84006E+03  4.09339E+03 -2.51649E+02 -4.48043E+03
  1.95519E+03 -1.29976E+03 -3.42487E+03 -1.63790E+03 -3.15961E+03  3.83626E+03 -6.91239E+03 -2.60606E+03
  1.79329E+03  1.40015E+03  1.21628E+03  5.77782E+02  6.32677E+03  1.00831E+03 -8.75816E+02  5.41685E+03
 -3.03644E+03  3.56904E+03 -7.20716E+03 -5.38921E+02 -3.07062E+03 -1.48981E+03 -3.63181E+03 -1.65646E+03
  4.36002E+03 -9.75355E+03  1.24733E+03 -1.04779E+04  2.60819E+03 -3.04912E+03  4.35010E+03  9.19752E+02
  5.89676E+03 -1.55850E+03 -2.51521E+03  4.72770E+03 -3.67912E+03 -2.44905E+03  2.45541E+03 -2.46551E+03
 -1.75304E+03 -1.47115E+03 -3.81122E+03 -1.71085E+03  1.41573E+03 -1.35382E+03 -1.38478E+03 -2.70807E+03
 -6.75031E+01  4.03867E+03 -5.58957E+03  7.81042E+03 -4.41116E+03  3.63680E+03  1.00757E+03 -3.77368E+03
  1.25555E+03 -5.17060E+03  6.67986E+03  1.27432E+03  2.58334E+03  2.44610E+03  3.23061E+03  2.97065E+03
  3.93937E+03  9.18464E+03  3.62290E+03 -3.99725E+03 -1.75218E+03 -2.14040E+03 -5.65634E+03 -2.02142E+02
 -9.82154E+02 -7.41459E+02 -1.15863E+03  3.97272E+03 -3.05792E+03  1.35359E+03 -3.00770E+03 -1.54094E+03
 -4.35877E+03 -3.06934E+03  5.66802E+03 -4.10211E+03  1.08317E+03 -5.64132E+03  1.39545E+03 -5.42513E+03
  3.77787E+03  6.27806E+01  3.71409E+02  2.23476E+03  1.30631E+03  8.87358E+03  1.05058E+03 -9.72730E+02
