 $NMID ID='MM_0lb_SNR50_8hz_g60_29.RAW', FMTDAT='(8E13.5)'
 TRAMP=1., VOLUME=1. $END
  3.01527E+05 -5.17246E+03  3.41198E+05  2.50025E+05  8.68080E+04  3.36250E+05 -1.28577E+05  2.54149E+05
 -1.89047E+05  8.37804E+04 -1.16045E+05 -3.01818E+04  2.53119E+03 -4.73967E+04  5.17723E+04 -1.95473E+03
  4.06025E+04  4.90071E+04 -1.68865E+04  7.66644E+04 -6.31283E+04  6.90996E+04 -8.91389E+04  3.47588E+04
 -8.22798E+04 -1.40365E+04 -5.59776E+04 -4.61289E+04 -1.70052E+04 -6.80549E+04  2.87098E+04 -3.89732E+04
  4.35279E+04  6.11041E+03  2.08148E+04  4.77494E+04 -3.37892E+04  4.72617E+04 -7.47819E+04  1.21163E+03
 -5.50049E+04 -5.57517E+04 -1.43003E+03 -8.13252E+04  3.12791E+04 -6.11395E+04  4.95476E+04 -1.76831E+04
  4.53231E+04  5.52550E+03  3.09186E+04  3.14627E+04  2.17001E+04  2.47452E+04 -2.93973E+03  2.58601E+04
 -2.91331E+04  2.09287E+04 -2.41725E+04 -6.93794E+03  1.11799E+04 -4.89065E+03  2.12065E+04  1.61869E+04
  4.52820E+03  3.55230E+04 -2.71471E+04  4.86257E+04 -6.29385E+04  1.34624E+03 -6.03250E+04 -4.49443E+04
 -1.57565E+04 -6.13923E+04  4.26224E+04 -4.68709E+04  6.25373E+04 -1.79593E+03  4.18105E+04  3.39985E+04
 -9.32056E+03  3.56958E+04 -2.97759E+04  2.20410E+04 -3.27158E+04 -7.67941E+03 -2.39805E+04 -1.16219E+04
 -3.59483E+03 -1.49124E+04  3.92378E+03 -2.67725E+04  1.03062E+04 -2.44401E+04  1.90658E+04 -1.05990E+04
  7.65426E+03 -3.72537E+02 -1.25727E+04  1.28256E+04 -3.42827E+04 -6.28314E+03 -2.18885E+03 -3.62869E+04
  2.82902E+04 -5.37972E+04  5.50788E+04 -1.71185E+04  5.56747E+04  1.77658E+04  1.92732E+04  4.88569E+04
 -2.51541E+04  3.45900E+04 -3.01656E+04  6.66668E+03 -1.02789E+04 -3.28117E+04  2.59357E+04 -4.23728E+04
  5.09355E+04 -7.79938E+03  4.22976E+04  3.06649E+04  1.84386E+04  4.89674E+04 -6.09129E+03  5.64659E+04
 -3.77214E+04  3.90603E+04 -4.56529E+04  1.09389E+04 -5.01854E+04 -2.25451E+04 -2.79050E+04 -3.61039E+04
  1.20428E+04 -4.11886E+04  3.37419E+04 -1.82251E+04  3.74699E+04  8.44945E+03  5.90015E+03  1.68656E+04
 -1.48518E+04  6.09796E+03 -1.50861E+04 -1.23195E+04  4.57054E+03 -9.51808E+03  1.68704E+04  6.18830E+03
  1.49662E+04  2.35860E+04 -9.87944E+03  2.59284E+04 -2.93287E+04  1.71383E+04 -3.16796E+04 -6.43975E+03
 -2.43827E+04 -1.69967E+04 -1.56651E+04 -2.65594E+04 -3.96776E+03 -2.12819E+04  2.79065E+04 -3.05488E+04
  3.29484E+04 -1.43542E+04  4.52644E+04  1.19492E+04  3.59766E+04  2.81364E+04  3.35491E+03  4.31412E+04
 -2.15444E+04  3.97222E+04 -2.84550E+04  1.90629E+04 -2.80331E+04 -1.04932E+04 -3.51299E+02 -1.12903E+04
  9.63421E+02 -2.55187E+03 -5.25156E+03  3.82326E+03 -2.66659E+04  1.40275E+04 -2.25290E+04 -1.21730E+04
 -1.79771E+04 -2.26372E+04 -8.75913E+02 -2.99268E+04  1.99603E+04 -2.23963E+04  2.26605E+04 -7.36363E+03
  1.76596E+04  1.95704E+04 -2.72879E+03  2.68639E+04 -1.64514E+04  1.75656E+04 -2.21043E+04 -3.09492E+03
 -1.40912E+04 -2.23445E+04 -5.28197E+03 -3.24553E+04  1.58938E+04 -2.39683E+04  2.67790E+04 -1.11940E+04
  2.06803E+04  1.74217E+03  1.99218E+04  2.42491E+03  8.39017E+03  1.67139E+03  6.01404E+03  5.57780E+02
  1.71300E+04  2.71162E+03  3.24363E+04  1.79201E+04  1.60194E+04  4.30832E+04 -4.17233E+03  5.41814E+04
 -3.19646E+04  3.67344E+04 -4.79700E+04  1.70416E+04 -4.86422E+04 -4.11433E+03 -4.52292E+04 -2.71625E+04
 -1.47240E+04 -4.03774E+04  1.56295E+04 -3.87280E+04  3.40739E+04 -2.01921E+04  2.82504E+04  9.44794E+03
  6.55087E+03  1.71019E+04 -1.50479E+04  2.23821E+04 -2.41159E+04  1.48191E+03 -1.72411E+04 -8.97455E+03
  3.53598E+03 -2.08688E+04  9.62009E+03 -1.25127E+04  1.38824E+04 -2.43801E+03  1.02699E+04  9.64728E+03
 -1.32427E+04  5.93647E+02 -1.31714E+04 -1.04576E+04 -9.20236E+03 -2.53664E+04  1.54138E+04 -2.21244E+04
  2.22193E+04 -4.37036E+03  3.13746E+04 -4.79223E+03  2.67151E+04  1.52110E+04  2.02184E+04  3.26024E+04
 -6.47828E+03  3.31713E+04 -2.58241E+04  2.56952E+04 -3.26523E+04  5.00483E+03 -1.87430E+04 -6.01447E+02
 -9.91286E+03 -1.87608E+03 -3.34618E+02  2.25372E+03 -7.39126E+03  8.20780E+03 -1.37417E+04  5.60718E+03
 -1.43963E+04 -6.56825E+03 -1.62953E+04 -1.15098E+04 -1.39111E+03 -1.88084E+04  3.61176E+03 -1.51535E+04
  1.02816E+04 -1.03475E+04  1.46882E+04  1.42198E+03  2.92872E+03  2.63083E+03 -1.18858E+04 -2.11613E+03
 -4.39507E+03 -1.40796E+04 -8.39177E+03 -1.72415E+04  1.47859E+04 -2.04097E+04  2.07979E+04 -6.64778E+03
  3.21063E+04  1.72686E+03  1.99104E+04  1.60515E+04  6.86780E+03  2.68353E+04 -1.14819E+03  1.33265E+04
 -1.42134E+04  8.37435E+03 -6.84389E+03  5.98239E+02  4.30279E+03 -4.29356E+02  9.08485E+03 -2.44704E+03
  1.13730E+04  4.90110E+03  5.25657E+03  1.07702E+04 -1.20166E+04  1.81338E+04 -1.25136E+04 -2.89370E+03
 -1.76884E+04 -1.27258E+04 -3.30321E+03 -1.44479E+04  1.17851E+04 -1.42279E+04  4.90522E+03 -2.70579E+03
  2.55468E+03  9.95521E+03 -4.62874E+03  2.04643E+04 -2.20984E+04  3.58541E+03 -1.71316E+04 -9.98391E+03
 -6.69588E+03 -1.65167E+04 -8.79791E+01 -1.99206E+04  1.20794E+04 -1.25027E+04  1.70546E+04  8.60138E+03
  9.88394E+03  1.38042E+04  1.81144E+03  1.49618E+04 -1.35177E+04  9.62552E+03 -1.02809E+04 -5.23344E+02
 -1.00999E+04 -9.16386E+03  4.74261E+02 -1.86286E+04  7.31445E+03 -1.20127E+04  9.77355E+03  3.85330E+02
  7.39545E+03  4.61091E+02 -3.07154E+03  1.87230E+03 -3.23455E+03 -6.66403E+03  6.41496E+03 -1.28487E+04
  1.34658E+04 -3.07864E+03  2.84287E+04 -3.18958E+02  1.54799E+04  1.51838E+04  1.28952E+04  2.54229E+04
 -1.57071E+04  3.03604E+04 -2.30590E+04  2.46724E+04 -3.26472E+04  3.04005E+03 -1.92788E+04 -1.31827E+04
 -2.16970E+04 -2.23532E+04 -3.77080E+03 -1.97229E+04  6.21669E+03 -1.48340E+04  2.04162E+03 -6.34204E+03
  4.83015E+03 -3.76090E+03  4.76535E+03 -4.44116E+03  7.44872E+03 -1.97317E+03  1.20539E+04 -1.90965E+03
  1.21207E+04  1.79449E+03  3.12083E+03  1.09592E+04 -1.65384E+03  1.60939E+04 -6.74487E+03  3.56236E+03
 -1.18102E+04 -2.64006E+03 -8.77034E+03 -1.68623E+04 -2.78703E+03 -2.22707E+04  1.40143E+04 -2.15354E+04
  1.53682E+04 -1.63308E+04  2.60582E+04  4.65805E+03  1.19098E+04  1.19935E+04  6.88386E+03  2.00454E+04
 -9.06535E+03  1.81124E+04 -1.48478E+04  7.77401E+03 -6.70457E+02 -3.54200E+03 -4.89963E+03 -5.30229E+03
  2.60832E+03 -2.22242E+03 -2.01477E+03 -1.37819E+03 -4.90719E+03  1.00082E+03 -8.49237E+03 -1.33259E+04
 -1.16416E+04 -1.81658E+04 -9.74405E+03 -1.04157E+04  7.13720E+03 -1.88985E+04  2.01795E+04 -3.79943E+03
  2.61059E+04  1.39878E+04  7.74938E+03  8.10756E+03 -6.63045E+03  2.50410E+04 -2.15767E+04  8.02835E+03
 -1.77516E+04 -8.35705E+01 -1.39600E+04 -1.15552E+04  6.90072E+02 -1.77355E+04  8.33650E+03 -1.50268E+04
  1.35007E+04 -1.13543E+04  1.29910E+04  1.83971E+03  9.98756E+02  1.89179E+03  3.52203E+03 -3.71769E+02
  1.37661E+03  1.60350E+03  6.88209E+03 -2.00170E+03  8.47621E+03  2.20490E+03 -6.51109E+01  1.03037E+04
 -2.10490E+03  1.41822E+04 -1.95109E+04  9.05423E+03 -1.46929E+04  2.34304E+03 -1.23419E+04 -9.19565E+03
 -1.06011E+04 -1.22366E+04  8.53700E+02 -1.74598E+04  1.26240E+04 -1.10548E+04  9.90482E+03 -1.10402E+04
  1.10388E+04  8.80198E+03  1.01647E+03  9.43055E+03 -1.79497E+03  7.41532E+03 -1.51338E+04  3.26071E+02
 -4.52758E+03 -5.89849E+03  4.27638E+03 -8.24505E+03  2.54860E+03  1.31550E+03  6.50487E+03 -7.13553E+03
  5.65223E+03  5.07569E+03 -7.61380E+03  1.26607E+03 -3.93624E+03  8.34965E+03 -6.21957E+02 -3.57583E+03
  9.49881E+03  6.43877E+03  7.88399E+03  9.98367E+03  1.13285E+03  3.59659E+03  3.00311E+03  1.72681E+04
 -3.68871E+03  5.52608E+03 -1.35785E+04 -3.20752E+03 -1.24249E+04 -3.74235E+03 -1.35698E+04 -3.32520E+03
 -1.16725E+03 -1.02444E+04  7.78378E+02 -2.30748E+03  4.27115E+02  3.94082E+03 -1.13427E+04 -6.88434E+03
 -6.10264E+03  7.70280E+03 -5.15909E+03 -2.18541E+02 -9.39102E+03 -3.80519E+03  6.09347E+02 -7.55586E+03
  3.69905E+03  4.49183E+03  1.22619E+04 -1.03611E+03  5.16316E+03  5.68734E+03  3.27269E+03  7.14110E+02
 -3.15834E+03 -3.12091E+03 -5.51475E+02  1.26929E+03  3.16734E+03 -1.05261E+04  1.32574E+04 -7.99402E+03
  1.45705E+04  7.14637E+02  1.48392E+04  1.36440E+04  8.33400E+03  1.46392E+04 -5.19264E+03  1.86787E+04
 -1.15049E+04  6.69547E+03 -1.69036E+04 -6.79840E+03  3.96507E+03 -1.26260E+04  4.36670E+03 -1.78599E+04
  3.31190E+03  5.06956E+03  9.58243E+03  9.21617E+02  1.87214E+03  1.95732E+03 -1.39648E+03  6.79880E+03
 -2.34030E+03  5.00117E+03  4.04009E+03  6.06906E+03 -3.13812E+03  7.92252E+02 -2.13345E+03  8.75482E+03
 -5.41716E+03  5.55123E+02 -5.56008E+03 -4.71216E+03 -1.42670E+04  7.95012E+03 -1.25527E+04 -1.12040E+04
 -7.08491E+03 -2.23577E+04  8.38646E+03 -2.59981E+04  8.43784E+03 -2.04151E+04  1.95423E+04 -6.70249E+03
  1.81255E+04  1.51512E+03  8.06751E+03  8.17245E+03  1.52754E+02  1.57535E+04 -2.13642E+03  1.76630E+04
 -6.08561E+03  2.87878E+03 -4.24229E+03  3.11036E+03 -8.17995E+03 -5.79435E+02 -3.78763E+03  4.15042E+02
 -1.47580E+03 -3.68942E+03 -1.02762E+04  1.97769E+03 -5.24691E+03 -4.31858E+03 -6.32908E+03 -1.84768E+03
  5.12553E+03 -4.72926E+03  9.69818E+03  5.08474E+02  1.43890E+04  1.10834E+04 -1.83457E+03  1.47482E+04
 -7.73718E+03  1.07310E+04 -1.51450E+04  1.34407E+04 -2.38646E+04  1.91851E+03 -1.11447E+04 -1.16711E+04
 -1.97645E+03 -2.13089E+04 -5.17848E+02 -1.56924E+04  1.34544E+04 -7.06530E+03  8.43828E+02  4.92953E+02
  1.01539E+04  6.35937E+03  2.38295E+02  5.93493E+02  1.21941E+03  5.04324E+03  2.98504E+03 -7.83791E+03
  2.92250E+03 -3.31061E+03  6.28540E+03 -2.07359E+03  8.27806E+03  8.12460E+03  1.07116E+04  7.36620E+03
 -4.03724E+03  1.08507E+04 -7.68103E+03  1.31488E+03 -7.47728E+03 -5.10126E+03  5.17205E+03 -1.76767E+04
  8.72421E+03 -1.34537E+04  1.16198E+04 -4.01053E+03  3.37022E+03  8.54432E+03  1.00916E+04  1.42055E+04
  6.04296E+03  3.00974E+03  3.26504E+01  4.12041E+03 -2.36757E+03  2.47841E+03 -8.35175E+03  8.41431E+03
 -6.70573E+03 -3.11063E+03 -4.75728E+03  2.66112E+03  2.02515E+03  2.31960E+03 -8.80381E+03 -2.99701E+02
 -4.09628E+03  1.96786E+03 -4.59615E+03 -9.03130E+03  6.82964E+03 -1.43896E+04  1.43798E+04 -5.09895E+03
  7.59262E+03  9.79790E+02  2.15077E+03  4.26185E+03  2.16235E+03  1.09154E+04 -2.47456E+03  3.74850E+03
