 $NMID ID='MM_0lb_SNR50_17hz_g50_49.RAW', FMTDAT='(8E13.5)'
 TRAMP=1., VOLUME=1. $END
  3.10145E+05  2.14986E+03  3.42291E+05  2.49147E+05  8.31739E+04  3.39009E+05 -1.28261E+05  2.43137E+05
 -1.84714E+05  8.28827E+04 -1.11599E+05 -3.84824E+04  3.11384E+03 -5.08831E+04  5.50262E+04 -4.26627E+03
  4.06465E+04  5.15943E+04 -1.83892E+04  7.89793E+04 -6.00441E+04  6.50802E+04 -8.39450E+04  3.24515E+04
 -8.32153E+04 -1.47540E+04 -5.57098E+04 -5.13905E+04 -1.64381E+04 -6.76767E+04  2.62789E+04 -4.36267E+04
  3.88306E+04  7.26931E+03  1.86897E+04  4.47733E+04 -3.29890E+04  4.55820E+04 -6.49329E+04 -2.50337E+03
 -5.22674E+04 -5.35432E+04 -3.28807E+03 -7.57075E+04  3.38325E+04 -5.33999E+04  4.62600E+04 -1.63109E+04
  4.09759E+04  9.85979E+03  3.15655E+04  2.68071E+04  1.62099E+04  3.09665E+04 -6.28233E+03  2.15405E+04
 -2.29080E+04  1.20634E+04 -1.67911E+04 -3.80627E+03  4.27622E+03 -7.82150E+03  2.46079E+04  1.50250E+04
  1.28981E+03  3.65428E+04 -2.77134E+04  3.42307E+04 -6.04201E+04 -1.95193E+03 -5.49376E+04 -4.04054E+04
 -1.62070E+04 -6.32367E+04  3.41510E+04 -4.59481E+04  5.90490E+04 -5.54966E+03  3.59572E+04  3.05828E+04
 -7.52643E+03  3.36651E+04 -3.00455E+04  1.05563E+04 -3.24744E+04 -3.38578E+03 -1.55885E+04 -7.01074E+03
 -2.95595E+03 -1.56596E+04 -6.82626E+02 -1.29941E+04  4.60570E+03 -2.28013E+04  1.59176E+04 -1.06382E+04
  1.00608E+04  8.12147E+03 -8.78173E+03  1.78178E+04 -1.93528E+04 -4.68768E+03 -7.60431E+03 -3.26343E+04
  2.27976E+04 -4.42366E+04  4.87217E+04 -2.10981E+04  4.26587E+04  1.94493E+04  1.61290E+04  3.96746E+04
 -1.52597E+04  2.90274E+04 -2.67131E+04  1.97296E+03 -6.87948E+03 -3.31202E+04  1.67066E+04 -3.14878E+04
  3.87384E+04 -1.33084E+04  3.23395E+04  1.92218E+04  1.81667E+04  4.36827E+04 -1.09310E+04  5.02779E+04
 -2.81286E+04  3.16096E+04 -3.69174E+04  7.37814E+03 -4.36898E+04 -1.51654E+04 -2.25983E+04 -3.69786E+04
  8.70048E+03 -3.34464E+04  2.49554E+04 -1.28611E+04  2.92104E+04  9.14166E+03  2.72816E+03  1.70259E+04
 -1.00455E+04  4.63621E+03 -1.27415E+04 -9.88118E+03  4.67185E+03 -7.12239E+03  1.83481E+04  8.54759E+03
  1.62282E+04  2.55602E+04 -7.45971E+03  2.44705E+04 -2.15122E+04  8.19386E+03 -2.56357E+04 -1.31174E+03
 -2.15868E+04 -1.46857E+04 -6.74686E+03 -2.17193E+04  1.82264E+03 -1.43939E+04  1.25374E+04 -1.30393E+04
  2.73718E+04 -1.15112E+04  3.22190E+04  1.11088E+03  1.91972E+04  1.62528E+04  5.00517E+03  3.27950E+04
 -1.63542E+04  2.65612E+04 -2.53707E+04  1.03296E+04 -1.87932E+04 -1.16808E+04 -3.86331E+03 -1.36298E+04
  4.74463E+03 -5.40788E+03 -4.22320E+03  6.49299E+03 -1.15316E+04  6.45853E+03 -1.60853E+04 -6.64481E+03
 -5.63083E+03 -1.35688E+04  4.45069E+03 -1.78755E+04  1.19602E+04 -1.43300E+04  1.22322E+04 -5.10348E+03
  1.34415E+04  1.19280E+04 -6.16433E+02  1.78845E+04 -1.09754E+04  1.04863E+04 -1.47632E+04 -9.01349E+02
 -1.28343E+04 -1.40495E+04 -4.57694E+02 -2.13138E+04  6.58712E+03 -1.62506E+04  1.91975E+04 -5.70372E+03
  1.73082E+04  1.94835E+03  9.89469E+03  8.09990E+03  4.32891E+03  1.25035E+03  1.47677E+04  8.97502E+02
  1.68835E+04  3.24026E+03  1.69918E+04  1.58408E+04  1.43060E+04  2.54309E+04 -7.28031E+02  2.95428E+04
 -1.50607E+04  2.19881E+04 -2.76648E+04  1.05682E+04 -3.11766E+04 -5.08113E+03 -2.28865E+04 -1.46736E+04
 -1.05041E+04 -2.22027E+04  6.93871E+03 -1.93221E+04  1.78287E+04 -1.12297E+04  1.55601E+04  2.65874E+03
  5.44796E+03  1.33933E+04 -9.07082E+03  6.33119E+03 -1.37936E+04  3.17239E+03 -1.29223E+04 -8.03989E+03
 -5.17073E+03 -1.46147E+04  4.97680E+03 -9.76566E+03  1.21940E+04 -4.24464E+03 -1.04861E+03  4.42840E+03
  5.85074E+02 -3.32623E+03 -3.23324E+03 -2.82641E+03  1.59733E+03 -1.08940E+04  1.26985E+04 -1.44319E+04
  1.46427E+04 -4.45994E+03  1.50800E+04  2.56834E+03  1.10228E+04  1.74725E+04  7.32336E+03  1.82629E+04
 -1.90909E+03  1.30333E+04 -1.32607E+04  1.38244E+04 -1.57431E+04  5.15426E+03 -8.52170E+03 -2.01690E+03
 -7.33194E+02 -1.42354E+03 -2.47295E+03  1.28041E+03 -4.19571E+03  1.22443E+03 -1.15734E+03  7.47086E+03
 -1.02814E+04 -3.23122E+03 -1.19358E+04 -7.66377E+03 -5.86640E+03 -1.23173E+04  6.48886E+03 -4.89276E+03
  9.92169E+03 -5.63605E+03  6.52751E+03  1.18892E+03  4.74589E+03 -2.73304E+03 -1.79420E+03 -9.54299E+02
 -2.64155E+03 -3.01717E+03 -1.19049E+03 -7.21055E+03  1.74314E+03 -7.91196E+03  1.13670E+04 -2.41016E+03
  1.25408E+04  3.27141E+03  9.17390E+03  8.15945E+03  5.86562E+02  4.44098E+03 -5.52118E+03  1.04523E+04
 -6.74642E+03  2.11412E+03 -3.56206E+03  6.84648E+02  9.22561E+02 -1.15627E+02  5.63076E+03 -4.15499E+03
  7.55489E+03  7.14555E+03  1.69926E+03  1.14180E+04 -3.10646E+03  7.63702E+02 -9.73151E+03  6.10483E+03
 -5.06719E+03 -5.89860E+03 -4.15286E+03 -7.31737E+03  1.75856E+03 -5.05629E+02  4.41971E+03 -1.28101E+03
  1.79826E+03  1.65134E+03 -5.47427E+03  4.42916E+03 -4.17973E+03  6.24669E+02 -5.08252E+03 -5.62233E+03
 -4.54539E+03 -4.31083E+03  9.38787E+02 -7.53086E+03  4.94059E+03 -5.73625E+03  8.09540E+03  1.27945E+03
  8.48253E+03  8.14645E+03  1.90818E+03  1.28780E+04 -5.53217E+03  7.58481E+03 -2.85266E+03  4.84006E+03
 -6.71197E+03 -4.83972E+03 -4.31813E+03 -9.40851E+03  1.85346E+03 -5.87081E+03  2.28466E+03 -2.34017E+03
  1.45771E+03 -3.15448E+03  1.85882E+03  4.21768E+03  1.53312E+03  2.70334E+03 -2.25351E+02 -4.08942E+03
  3.37299E+03  1.07855E+03  5.52067E+03  1.24845E+03  1.05614E+04  5.77020E+03  6.34560E+03  6.96590E+03
 -3.31224E+03  6.88219E+03 -1.06320E+04  5.21462E+03 -7.69442E+03 -1.43969E+03 -9.41839E+03 -1.85078E+03
 -8.47608E+03 -2.15475E+03  1.04839E+03 -5.01697E+03  3.66530E+02 -7.33926E+03 -4.98595E+03 -8.27714E+02
  4.24021E+03 -3.37500E+03  1.88478E+03 -1.67673E+03  3.67934E+03  4.68839E+03  4.87685E+03 -5.04183E+01
  6.23951E+03  6.25487E+03 -1.71914E+03  7.19324E+03 -4.66795E+03  4.83585E+03 -8.83250E+03  5.54836E+03
 -1.09990E+04 -2.86802E+03 -4.74225E+03 -2.40180E+03 -3.59130E+03 -5.75105E+03  2.41164E+03 -4.35987E+03
  5.23919E+03 -2.25486E+03  9.97652E+03  1.94709E+02  4.32961E+03  5.30515E+03 -9.83608E+02  8.06071E+03
 -1.64800E+02  4.54832E+03 -3.19415E+03  1.02119E+03 -3.22429E+03 -3.84174E+00  1.61171E+03 -2.60536E+02
  5.04138E+01 -2.24513E+03  4.50271E+02 -1.66636E+03 -2.93712E+03 -8.89795E+02 -3.19912E+02  2.43774E+03
 -4.24166E+03 -1.03896E+03 -2.56729E+02 -5.84754E+03  1.59861E+03 -5.61544E+03  4.64929E+03  2.19088E+03
  2.22494E+03  5.53131E+03 -1.91599E+03  8.20461E+03 -1.97287E+03  9.12532E+03 -7.32887E+03  3.57358E+03
 -2.23437E+03 -2.91693E+03 -6.18776E+03 -4.71206E+02  3.50399E+03 -9.24957E+03  1.83866E+03 -1.11593E+03
  2.21269E+02 -2.17384E+03  1.27332E+03  9.22014E+02 -9.02250E+02  2.15170E+03 -3.08683E+03  1.56322E+01
 -1.78572E+03  5.72585E+03 -4.82992E+02  3.80641E+03  2.86170E+03  5.22740E+03  1.34729E+03  4.04427E+02
  3.90805E+03  4.35428E+03 -4.42371E+03  6.64879E+03 -2.72816E+03 -3.67169E+02 -5.27633E+03  5.26772E+02
 -4.13698E+03 -2.93691E+03  2.51691E+03 -5.35327E+03  2.27014E+03 -2.13037E+03 -1.21938E+02 -1.03313E+03
  1.34718E+03  1.84422E+03  2.62839E+03  2.81041E+02  1.83163E+03  3.60426E+03  1.09495E+03  1.99520E+02
  1.41334E+03 -2.58961E+03  3.73591E+03  5.24513E+03  2.23196E+03 -1.81461E+03  1.66077E+03  3.83837E+02
  7.54916E+02 -3.13022E+03 -9.71976E+02  2.62795E+03  1.83754E+03 -2.17420E+02  1.96399E+03 -6.91681E+02
  3.64278E+03  2.47229E+03  9.00277E+02 -1.53392E+03 -5.08884E+03  1.41242E+02  4.36951E+03  6.49625E+03
  2.28209E+02  4.73893E+03  1.49937E+03 -2.91479E+01 -1.00659E+02 -2.94908E+03 -1.21931E+03 -4.15778E+03
  1.82026E+03  1.07241E+03  2.17401E+02 -1.31291E+03  2.35472E+02  4.30911E+03  1.61783E+03  1.29347E+03
 -3.59152E+03  1.25367E+03  4.81783E+03 -2.26834E+03  2.05678E+03 -1.56023E+03  7.94124E+03 -1.30587E+02
  3.49552E+03  7.59132E+00  4.13372E+03 -1.31803E+03  3.23120E+03 -1.38002E+03 -7.14762E+02 -6.93972E+02
  1.41197E+03  3.48445E+02  1.43172E+03  2.61262E+03  2.84229E+02 -5.33500E+02  2.98251E+03 -8.00707E+02
  1.45340E+03  6.16280E+03  3.55294E+03  1.09208E+03  9.47925E+02  5.75806E+02 -1.62192E+02  1.46358E+03
 -6.57229E+03  1.59660E+03 -8.03012E+02 -1.45763E+03  1.17422E+03  2.87283E+03  6.79467E+02 -1.29035E+02
  9.67736E+02 -3.05756E+03  1.40228E+03  7.30195E+02  1.29978E+03  4.50201E+03 -9.57068E+01  7.07591E+01
 -2.08526E+03  2.74661E+03  1.82933E+03 -1.93108E+03  4.64939E+03 -8.77049E+02 -2.52549E+03  5.55002E+01
 -6.41082E+02  2.21638E+02 -4.02480E+03  2.13321E+03 -3.59824E+03  1.40552E+03 -6.12783E+03 -6.99972E+02
  2.20221E+03 -2.07273E+03 -2.80529E+03 -4.17216E+03  1.59587E+03 -4.68826E+03  7.82985E+03 -5.51358E+03
  7.17438E+03 -1.53602E+03  1.84493E+03  7.58814E+03  1.45435E+03 -1.85442E+03 -6.97340E+02  2.72063E+03
  1.28472E+03  4.11847E+03  1.95520E+03  6.46068E+03 -1.01404E+03  3.96262E+03 -2.00317E+03  1.24092E+03
  2.97969E+03  3.65396E+03 -5.25461E+02  4.64167E+03  9.50285E+02 -3.42589E+03 -2.74347E+03 -5.51403E+03
  2.20950E+03 -1.72388E+03 -9.74516E+02  3.69475E+03  2.36479E+03 -6.64837E+03  1.42667E+02  2.58164E+03
 -1.39940E+03  2.60059E+03  2.42742E+03  4.15093E+02 -3.26822E+03  8.20797E+02 -1.61215E+03 -9.80520E+02
 -3.23221E+03 -1.62674E+03  5.60860E+03 -2.76359E+03  4.03723E+03 -1.16414E+03  1.60745E+03  4.35298E+03
  6.60020E+03  2.15720E+03 -2.12126E+03  1.08484E+03  4.03806E+03  1.56850E+03 -2.70394E+03 -3.49395E+02
  2.21036E+03 -2.96374E+03 -1.72169E+02  3.24995E+01  1.16816E+03  1.12801E+03 -1.76644E+03  2.25036E+03
  9.05562E+02  7.72988E+02 -1.27174E+03 -4.72860E+02 -8.75993E+02  2.86706E+02  8.15203E+01 -2.06655E+03
  3.29588E+03 -8.98445E+02  1.36586E+03  1.15274E+03  1.48118E+03 -8.29590E+02  2.46644E+03  4.53044E+03
  2.99910E+03  5.61755E+03  5.24903E+02  2.04105E+03  6.61794E+00  3.26058E+03  4.72459E+03 -2.59095E+03
 -1.35882E+03  3.77242E+02  3.04310E+02 -1.49692E+03 -2.11669E+02  4.30175E+02 -2.86341E+03 -8.72304E+02
 -4.13350E+03 -1.98372E+02  1.36012E+02 -2.98528E+03  1.02959E+03 -2.49038E+03 -4.17530E+03 -1.68110E+03
  2.55845E+03 -5.35760E+02  1.45138E+03  4.58509E+03 -1.86341E+02  3.26504E+03  2.56313E+03 -4.81105E+01
