 $NMID ID='MM_0lb_SNR50_15hz_g40_33.RAW', FMTDAT='(8E13.5)'
 TRAMP=1., VOLUME=1. $END
  3.11834E+05 -1.87837E+02  3.39754E+05  2.51248E+05  8.67310E+04  3.37135E+05 -1.33440E+05  2.48336E+05
 -1.94887E+05  8.52669E+04 -1.14876E+05 -3.35432E+04 -4.43871E+02 -5.15654E+04  5.27167E+04  1.78337E+02
  3.60253E+04  4.72620E+04 -1.68089E+04  7.65237E+04 -6.39055E+04  6.61874E+04 -8.00816E+04  3.09332E+04
 -8.08205E+04 -1.32684E+04 -5.61324E+04 -4.41198E+04 -1.41919E+04 -6.62795E+04  2.52090E+04 -4.30037E+04
  3.95678E+04  3.94935E+03  9.89841E+03  4.73627E+04 -3.55988E+04  4.92600E+04 -6.40728E+04  5.84104E+02
 -5.02946E+04 -6.07183E+04 -7.52920E+03 -7.81650E+04  3.69713E+04 -5.36559E+04  4.23374E+04 -1.93251E+04
  4.17355E+04  1.35735E+04  3.23599E+04  2.36709E+04  2.20799E+04  3.19682E+04 -1.47887E+03  2.63712E+04
 -2.29062E+04  1.84291E+04 -1.84162E+04 -6.76722E+03  1.24092E+04 -7.15133E+03  2.40492E+04  8.96715E+03
  6.48434E+03  3.48554E+04 -3.02588E+04  3.20586E+04 -6.37245E+04  6.10416E+03 -5.88518E+04 -4.26078E+04
 -9.14015E+03 -5.85530E+04  4.10554E+04 -3.73217E+04  5.73020E+04 -7.65340E+03  3.89457E+04  3.42812E+04
 -7.74397E+03  3.25130E+04 -2.80285E+04  1.41733E+04 -2.78016E+04 -4.04714E+03 -1.41223E+04 -1.34250E+04
 -7.44582E+03 -9.10500E+03 -2.05139E+03 -1.97345E+04  4.37987E+03 -2.07871E+04  1.46231E+04 -8.80227E+03
  1.49328E+04  3.25371E+03 -1.03507E+04  1.40619E+04 -1.86045E+04 -1.26377E+03 -6.24006E+03 -3.19800E+04
  2.85177E+04 -4.15954E+04  4.69386E+04 -1.82752E+04  4.20822E+04  2.09266E+04  1.34894E+04  4.40110E+04
 -2.13403E+04  3.41611E+04 -2.72864E+04 -2.09630E+03 -1.14218E+04 -2.57064E+04  1.65221E+04 -3.29479E+04
  3.70545E+04 -7.72686E+03  3.50836E+04  1.99830E+04  1.61939E+04  4.02640E+04 -5.73005E+03  5.03669E+04
 -3.15695E+04  3.10817E+04 -3.97365E+04  5.87607E+03 -4.14104E+04 -1.22375E+04 -2.28783E+04 -3.42485E+04
  2.93923E+03 -3.52061E+04  2.77433E+04 -1.23113E+04  2.59122E+04  1.56824E+04  3.75837E+03  1.75803E+04
 -1.30206E+04  9.00044E+03 -1.35295E+04 -9.35268E+03  6.45378E+03 -1.47996E+04  2.16760E+04  4.47028E+03
  1.48717E+04  1.97865E+04 -7.96626E+03  2.73632E+04 -1.95855E+04  1.02390E+04 -2.63056E+04 -2.17112E+03
 -1.84349E+04 -1.59983E+04 -1.17551E+04 -2.01271E+04  4.11041E+03 -1.27865E+04  1.26448E+04 -2.11102E+04
  2.39612E+04 -1.05397E+04  2.84631E+04  4.64027E+03  2.40687E+04  1.90385E+04  3.65321E+03  3.58340E+04
 -1.75668E+04  3.07343E+04 -2.79613E+04  1.24122E+04 -1.76681E+04 -1.07170E+04 -7.86087E+03 -1.43452E+04
  2.74877E+03  1.43006E+02 -3.50382E+03  1.77575E+03 -1.64343E+04  6.38128E+03 -1.68963E+04 -6.94212E+03
 -9.48349E+03 -1.47497E+04  4.26707E+03 -2.08276E+04  9.18090E+03 -1.18009E+04  1.36672E+04  4.77726E+02
  9.75067E+03  1.57571E+04 -1.08314E+03  1.44328E+04 -1.64764E+04  1.12674E+04 -1.01943E+04 -2.26519E+03
 -1.22237E+04 -1.88392E+04 -3.33938E+03 -2.50377E+04  8.30221E+03 -1.54199E+04  1.64752E+04 -4.08208E+03
  1.99481E+04  2.86556E+03  1.40108E+04  3.23478E+03  6.54247E+03 -1.98605E+03  7.15818E+03  1.90922E+03
  1.69953E+04 -4.09196E+02  1.57533E+04  1.92158E+04  1.33571E+04  3.10315E+04  2.43816E+03  3.18573E+04
 -1.56372E+04  2.35741E+04 -2.85537E+04  9.83112E+03 -3.08268E+04 -2.92530E+03 -2.55077E+04 -1.95555E+04
 -8.55171E+03 -2.01421E+04  7.70612E+03 -1.76725E+04  2.07384E+04 -1.13541E+04  1.39845E+04  2.18634E+03
  9.98909E+03  1.56694E+04 -1.05324E+04  1.13490E+04 -1.66983E+04  2.28196E+03 -1.11513E+04 -5.36784E+03
 -6.90496E+01 -1.81605E+04  4.44957E+03 -1.28336E+04  1.34575E+04 -1.71870E+03  1.61941E+03  8.88479E+03
 -6.06884E+03  1.79180E+03 -8.01650E+03 -7.34145E+03 -1.08709E+03 -1.66906E+04  7.63382E+03 -1.38038E+04
  1.43814E+04 -7.28423E+03  1.91456E+04  4.67796E+03  1.38841E+04  1.29947E+04  6.90702E+03  1.83455E+04
 -3.41734E+03  2.03489E+04 -1.56450E+04  1.56389E+04 -1.93981E+04  2.30624E+03 -1.02108E+04 -1.99812E+03
 -6.08851E+03 -1.88432E+03  3.39541E+03  1.51640E+03 -1.10958E+03  4.10431E+03 -5.09081E+03  5.61954E+03
 -1.04116E+04  4.24621E+02 -1.09553E+04 -7.19930E+03 -3.48603E+03 -1.41003E+04  1.18245E+03 -7.53114E+03
  3.42420E+03 -6.02661E+03  5.63171E+03  4.13432E+03  6.99076E+03  1.96641E+03 -5.23059E+03  3.30434E+03
 -2.50832E+03 -3.10402E+03  8.13263E+02 -6.89912E+03  1.09222E+04 -1.27834E+04  1.44483E+04  1.08915E+01
  1.22237E+04 -3.07978E+03  1.36437E+04  1.20851E+04 -2.14932E+03  1.20502E+04 -1.20232E+04  1.11184E+04
 -8.47357E+03  5.26795E+03 -5.89660E+03 -5.50813E+03  1.27659E+03 -9.73872E+02  4.48293E+03 -1.86813E+03
  2.08454E+03  3.50678E+03 -6.47090E+03  8.38358E+03 -3.63702E+03  1.08749E+04 -8.49846E+03  1.92562E+03
 -6.88363E+03 -5.94294E+03 -4.88250E+03 -7.11716E+03  5.33015E+03 -6.20266E+03  5.02621E+03  3.33339E+03
 -1.03436E+03  4.45188E+03 -2.92219E+03  6.66252E+03 -8.19525E+03  2.03560E+03 -7.49460E+03 -4.85288E+03
 -2.53601E+03 -6.39135E+03  7.23052E+02 -1.11040E+04  8.03163E+03 -1.22687E+04  1.12917E+04  3.34197E+03
  6.15274E+03  6.58332E+03 -9.06289E+02  1.20841E+04 -1.15313E+04  9.48656E+02 -1.11854E+04 -6.86851E+02
 -4.30921E+03 -1.20337E+04 -9.85233E+02 -6.38420E+03  2.04812E+03 -9.94858E+03  2.85052E+03 -2.69186E+03
  1.19864E+03  5.21495E+03  1.12776E+03  4.33664E+03 -1.97144E+03  3.20882E+03  3.20558E+03  1.21636E+03
  8.46545E+03  5.86837E+02  9.29061E+03  1.30995E+03  1.18354E+04  4.49686E+03  4.11319E+03  8.98950E+03
 -3.39921E+03  1.18543E+04 -1.09772E+04  1.10469E+04 -1.15908E+04  3.07675E+03 -8.35714E+03 -2.13855E+03
 -2.91355E+03 -1.37587E+04 -2.86563E+03 -3.18885E+03 -9.87261E+01 -7.26586E+03 -3.68933E+03 -5.26759E+03
  3.13208E+02 -2.36644E+03  3.54291E+03 -3.86555E+03  7.64785E+03 -4.76914E+03  5.90212E+03  1.98054E+03
  7.15402E+03  6.99100E+03  3.04733E+02  6.48381E+03 -3.80847E+03  4.48230E+03 -1.09807E+04  3.23092E+03
 -7.22852E+03  8.77760E+02 -4.97274E+02 -3.97763E+03 -1.43802E+03 -6.75869E+03  8.41236E+02 -9.19368E+03
  8.04924E+03 -6.14448E+03  3.52894E+03  3.67559E+02  3.93081E+03  1.13460E+04  3.54646E+03  9.50915E+03
 -6.54588E+03  8.96084E+03 -1.94947E+03  3.87587E+03 -2.49834E+03 -2.23836E+03  1.40233E+03 -3.72438E+02
 -3.32697E+03  6.78840E+02 -2.38729E+03  2.96963E+03 -2.18665E+03  4.20095E+03 -4.82480E+03  1.25558E+03
 -1.88871E+03 -6.62996E+03 -7.58082E+03 -4.08527E+03  4.71621E+03 -6.01035E+03  6.10423E+03 -2.02957E+03
  1.50577E+03  3.48512E+03  2.58316E+03  6.45225E+03 -5.59058E+03  4.79676E+03 -5.00229E+03  7.04353E+03
 -4.43243E+03 -3.19407E+02 -3.04613E+03 -1.10421E+03 -1.97107E+03 -2.90019E+03  3.02206E+03 -4.90603E+03
  3.94014E+03  6.55557E+02 -1.22593E+03  1.14205E+03  2.75770E+03  1.87316E+03  2.57140E+03 -4.03030E+03
  1.20174E+03 -2.08543E+03  2.96737E+03 -6.50289E+02  4.72276E+03  3.49715E+03  4.35186E+03  1.54523E+03
 -4.14228E+03  4.73735E+03 -2.88857E+03  2.05849E+03 -7.08976E+03 -4.82908E+03 -9.59656E+03 -2.86396E+03
 -4.28032E+03 -8.74206E+03 -2.72780E+02 -6.72693E+03  2.77146E+03 -5.13096E+03  6.59713E+03 -4.86490E+03
  7.79600E+03  4.86330E+03  9.31740E+03  6.91135E+03  4.16463E+03  4.37157E+03 -1.42007E+03  9.44759E+02
 -1.79014E+03  9.68189E+02 -8.70857E+02 -1.87825E+03  5.24845E+03  4.14166E+02  3.24082E+03 -5.94463E+01
  6.57458E+02 -5.74120E+02 -1.30128E+03  6.11452E+02  1.09381E+03  7.51697E+03  2.80664E+02 -5.79909E+03
 -2.88944E+03  1.11884E+03  3.29245E+03  2.96087E+02 -1.76162E+03  1.24986E+03 -1.53452E+03 -1.06540E+02
 -1.15263E+02  4.61720E+03 -7.49839E+03 -3.56344E+03 -5.46096E+03 -2.81215E+02  3.25456E+03  1.97613E+03
  1.71444E+03 -4.59024E+03  4.00689E+03 -3.83845E+02  2.30769E+03 -1.93273E+03 -2.04532E+03  3.12238E+03
 -2.87208E+03  3.12040E+03 -8.54129E+02 -6.38394E+03 -1.89104E+03 -7.17108E+03 -1.05852E+02 -5.31009E+03
  1.04133E+03  3.19332E+02  3.35595E+03 -4.31143E+03  7.36099E+02  2.21603E+03  3.80361E+03  7.27136E+02
 -4.04834E+03  2.69099E+03  2.20893E+02 -5.42395E+03 -9.52646E+01 -1.23798E+03  6.61928E+03 -3.48252E+03
  7.40691E+02  6.38006E+03  2.55243E+03  3.32055E+03 -1.40724E+03  9.67709E+02 -1.86182E+02 -2.48493E+03
 -7.11810E+02 -1.59230E+02 -3.96405E+03 -1.82801E+03 -6.26912E+02 -4.57461E+03 -3.59768E+03 -4.01711E+03
  8.04039E+03  1.02128E+03 -7.62753E+02  3.24510E+03 -1.12943E+03  2.68739E+03  1.53661E+03  3.27719E+03
 -2.38224E+03  4.06713E+03 -1.65623E+03  2.78493E+03 -1.53527E+02 -2.08892E+03  2.95951E+01 -1.96585E+03
 -2.48882E+03  1.30178E+03 -3.20645E+03 -1.60200E+01 -4.22746E+03  2.56829E+03 -5.62033E+03 -1.88980E+03
 -1.87393E+03 -7.07986E+03  1.16776E+03 -2.13164E+03  2.37767E+02 -5.90842E+02  8.38081E+03 -4.01899E+03
  4.57974E+03 -2.45255E+03  1.84797E+01 -3.28783E+03 -8.02720E+02  2.36722E+03 -2.24587E+02  2.12044E+03
  1.71913E+03 -1.09273E+03  2.92681E+03 -7.40829E+02  8.00999E+02  4.47883E+03  1.14193E+03 -1.98055E+03
 -2.14880E+03 -3.16402E+03 -1.43911E+03  6.44064E+03 -2.75786E+03  6.24973E+02  2.15092E+03 -1.95727E+03
  4.52235E+00  2.09471E+03  3.48108E+03  6.64212E+02  1.85827E+03  3.02389E+03  1.50131E+03  2.79174E+03
 -3.51670E+03  5.06256E+03 -6.57002E+03 -2.63291E+03 -3.59084E+03 -3.16085E+03 -2.32857E+03  1.90347E+03
 -4.94434E+03 -5.90323E+03  1.74939E+03  5.73481E+00  2.47629E+03 -2.31714E+03  5.75695E+02  1.32141E+03
  1.14270E+03  6.76081E+02 -1.87357E+03 -2.33870E+03 -2.70313E+02 -7.28842E+02 -8.31198E+02 -5.59436E+03
  2.40799E+03 -2.37560E+03 -1.12372E+02 -2.64543E+03  1.31792E+03  7.48982E+02 -3.95894E+03  6.34564E+03
 -1.61551E+03  1.15711E+03 -2.43201E+03  5.51777E+03 -1.73626E+03 -2.49112E+02  2.68842E+03 -1.84114E+03
  2.87130E+02 -4.22890E+03 -6.87113E+02  3.53025E+03  2.18694E+03  6.65950E+03 -5.15476E+01 -1.26514E+02
 -5.50070E+01 -4.04749E+02 -9.78080E+02  2.42884E+03 -3.29184E+03  1.40708E+03 -3.61056E+03 -2.82547E+03
 -3.78000E+03 -3.13840E+03 -6.06586E+03 -4.21530E+03 -4.39095E+03 -2.06100E+03 -3.04462E+03  9.43395E+02
 -3.06968E+03  1.87910E+03  1.12575E+03 -5.53104E+03 -2.17328E+02 -1.84207E+03 -2.13921E+03 -9.19918E+02
 -2.36928E+03  8.42384E+02  1.03448E+02  7.31363E+01 -4.48360E+03 -3.76507E+02 -2.16303E+03  5.37940E+03
