 $NMID ID='MM_0lb_SNR50_16hz_g50_75.RAW', FMTDAT='(8E13.5)'
 TRAMP=1., VOLUME=1. $END
  3.09409E+05  2.67694E+03  3.37315E+05  2.51079E+05  8.09437E+04  3.41994E+05 -1.32056E+05  2.51776E+05
 -1.90612E+05  8.41024E+04 -1.14853E+05 -3.46585E+04 -1.57334E+03 -4.50005E+04  5.74973E+04  1.47588E+03
  3.53127E+04  5.19469E+04 -1.71384E+04  7.17217E+04 -5.80566E+04  6.26944E+04 -8.21226E+04  3.28080E+04
 -8.15538E+04 -1.22117E+04 -5.90528E+04 -4.75030E+04 -1.40208E+04 -6.71893E+04  3.01005E+04 -4.57856E+04
  4.07503E+04  3.25076E+03  1.36822E+04  4.86678E+04 -3.24382E+04  4.70989E+04 -6.16899E+04 -4.69807E+02
 -5.18136E+04 -5.77670E+04 -8.16636E+03 -7.37140E+04  3.47469E+04 -5.76751E+04  4.70965E+04 -2.15754E+04
  4.06999E+04  4.01240E+03  2.93756E+04  2.45819E+04  1.66431E+04  2.81770E+04 -3.41942E+03  2.49053E+04
 -2.16900E+04  9.19383E+03 -2.00136E+04 -7.90823E+03  5.74523E+03 -7.79360E+03  2.13984E+04  8.68580E+03
  6.11244E+03  3.52144E+04 -3.37331E+04  3.44315E+04 -5.84953E+04  1.20761E+03 -5.50169E+04 -4.10888E+04
 -1.13358E+04 -6.39925E+04  4.12293E+04 -4.23947E+04  5.93126E+04 -2.61611E+02  3.27196E+04  3.40986E+04
 -7.40366E+03  3.44666E+04 -3.05736E+04  1.19535E+04 -2.63869E+04 -2.00584E+03 -1.87656E+04 -8.92322E+03
 -1.00939E+04 -1.08131E+04  2.26958E+02 -1.43230E+04  7.03789E+03 -2.37263E+04  1.87344E+04 -1.31613E+04
  8.68545E+03  6.48857E+03 -3.14096E+03  1.30883E+04 -2.29499E+04 -2.95754E+03 -8.04501E+03 -3.27869E+04
  2.65677E+04 -4.01956E+04  4.51461E+04 -2.14771E+04  4.09253E+04  2.37261E+04  1.06663E+04  4.07103E+04
 -1.79045E+04  2.67094E+04 -3.03222E+04  7.48543E+01 -7.36633E+03 -2.53185E+04  1.68176E+04 -3.70512E+04
  3.59238E+04 -7.44901E+03  3.66949E+04  2.12433E+04  1.82696E+04  4.38327E+04 -5.62340E+03  4.65113E+04
 -3.21601E+04  3.14429E+04 -4.43881E+04  5.69717E+03 -4.28459E+04 -1.65058E+04 -2.91621E+04 -3.54708E+04
  1.07163E+04 -3.52881E+04  3.04159E+04 -1.42018E+04  3.02546E+04  1.18141E+04  7.43689E+02  2.08408E+04
 -1.32375E+04  7.61693E+03 -9.09510E+03 -1.13344E+04  6.02382E+02 -9.12673E+03  1.81074E+04  7.42375E+03
  1.62761E+04  2.22446E+04 -4.80527E+03  2.22203E+04 -1.85451E+04  1.40190E+04 -2.85673E+04 -4.12869E+03
 -2.11031E+04 -1.63686E+04 -5.22557E+03 -1.89116E+04  3.44099E+03 -1.21551E+04  1.41781E+04 -1.33681E+04
  2.61008E+04 -8.99073E+03  2.94413E+04  1.87396E+03  2.26823E+04  1.74172E+04  5.88909E+03  3.16742E+04
 -2.14103E+04  3.22024E+04 -2.63888E+04  1.00773E+04 -2.37513E+04 -8.21334E+03 -5.36136E+03 -1.49860E+04
  2.25266E+02 -2.88990E+03 -5.74286E+03  4.05011E+03 -9.82509E+03  2.95548E+03 -1.01494E+04 -4.78609E+03
 -1.02738E+04 -2.08475E+04  4.53367E+03 -2.08139E+04  1.73331E+04 -1.46097E+04  1.58215E+04  5.52175E+03
  8.57832E+03  1.32771E+04  2.62334E+02  1.98801E+04 -1.10347E+04  1.21669E+04 -1.50086E+04 -4.70907E+03
 -1.10650E+04 -1.52633E+04 -1.78462E+03 -2.07443E+04  1.06505E+04 -1.33474E+04  1.58743E+04 -7.18234E+03
  1.89376E+04  2.84855E+03  8.78986E+03  5.52343E+03  3.01792E+03 -2.65862E+01  1.10888E+04  1.14160E+03
  1.82392E+04  3.47942E+03  1.30796E+04  1.27411E+04  1.23803E+04  3.07068E+04 -1.16298E+03  2.96537E+04
 -2.23526E+04  2.02484E+04 -3.08690E+04  1.64768E+04 -2.85154E+04 -8.81858E+02 -2.42198E+04 -1.00466E+04
 -1.10362E+04 -2.13445E+04  1.66423E+04 -2.26611E+04  1.90300E+04 -1.47606E+04  1.92695E+04 -1.29305E+00
  9.26839E+03  2.02880E+04 -6.82432E+03  9.51860E+03 -1.34940E+04  2.53519E+03 -6.53553E+03 -1.18675E+04
  1.41648E+02 -1.05153E+04  6.99393E+03 -8.38660E+03  8.41453E+03  1.60036E+03  1.05707E+03  1.44330E+03
 -1.03827E+04  5.05023E+03 -5.67937E+03 -4.72781E+03 -3.77455E+03 -1.20002E+04  3.46138E+03 -1.35813E+04
  1.37293E+04 -6.07540E+03  1.82628E+04  4.55193E+02  1.25054E+04  1.20198E+04  7.07826E+03  2.15664E+04
 -2.96614E+03  1.85101E+04 -1.26238E+04  8.38251E+03 -1.81499E+04  1.52667E+03 -7.77957E+03 -3.15048E+03
 -4.62923E+03  1.48852E+02  7.46015E+01  1.06695E+03 -2.02745E+03  3.45906E+03 -2.43652E+03  5.19745E+03
 -1.17895E+04  1.44515E+03 -9.44249E+03 -1.12829E+04 -3.26841E+03 -8.62299E+03  2.74137E+03 -7.41479E+03
  8.21664E+03 -5.66090E+03  3.21637E+03  3.90507E+03 -6.17864E+02  2.11925E+03 -1.27860E+03 -1.06510E+03
 -5.15224E+03 -7.72816E+03 -4.47667E+03 -7.26491E+03  5.34402E+03 -3.51802E+03  1.15685E+04 -3.46718E+03
  2.07819E+04  1.32380E+03  9.20991E+03  9.70601E+03  2.41875E+03  1.51218E+04 -2.95399E+03  1.19448E+04
 -7.29950E+03  1.55289E+03 -6.29087E+03 -1.31342E+03 -5.51910E+02 -3.14349E+03  6.62716E+03  2.09243E+03
  9.87854E+02  6.85585E+03  2.10033E+03  4.92538E+03 -3.53796E+03  6.69203E+03 -8.77289E+03 -3.48904E+03
 -5.01026E+03 -5.73673E+03  1.45440E+03 -1.09151E+04  3.48772E+03 -5.35363E+03  2.05969E+03 -7.26093E+02
  4.64429E+03  9.72296E+03 -5.53990E+03  7.98807E+03 -5.90099E+03  5.94664E+02 -2.39223E+03 -4.33930E+03
 -3.18714E+03 -1.02021E+04  8.05859E+02 -8.54770E+03  9.17504E+03 -1.14830E+04  1.17909E+04  4.49167E+03
  6.14933E+03  3.32516E+03 -5.37483E+03  4.91627E+03 -6.86240E+03  4.42655E+03 -8.39723E+03 -3.97031E+03
 -6.79757E+03 -1.00129E+04 -3.17773E+02 -6.69870E+03  4.82240E+03 -3.88164E+03  4.56513E+03 -1.12339E+03
  2.97147E+03  3.51911E+03  4.37197E+03  2.10125E+03  4.25341E+03 -2.99064E+03 -3.77647E+03 -1.68073E+03
  2.34107E+03 -1.19627E+02  2.84535E+03 -1.59140E+03  1.22561E+04  6.06440E+03  8.22291E+03  6.35319E+03
 -2.58323E+03  7.50015E+03 -9.28093E+03  7.52789E+03 -1.35018E+04  1.23876E+03 -1.25993E+04 -4.49972E+03
 -2.31287E+03 -9.52084E+03 -5.33057E+03 -1.22376E+04  7.86148E+03 -5.93050E+03  1.90463E+03 -3.76407E+02
  9.56556E+02 -4.93152E+03  1.15595E+03 -2.46159E+03 -3.97247E+02 -3.07622E+03  1.75716E+03  1.88956E+03
  6.94496E+03 -1.20443E+03  1.67996E+01  2.29777E+03 -2.09138E+03  5.39947E+03 -6.08499E+03  3.80593E+03
 -3.38976E+03 -2.25158E+03 -6.89215E+03 -4.69011E+03  8.39429E+02 -5.07062E+03  3.90104E+03 -4.55125E+03
  5.71831E+03 -7.19841E+03  1.06234E+04 -7.64535E+01  5.25870E+03  5.76771E+03 -2.36800E+03  1.14309E+04
 -6.81588E+02  7.58892E+03 -8.07856E+03  1.23505E+03 -2.63721E+02 -6.42314E+03  3.52173E+02 -1.56180E+03
 -1.88627E+03  2.23836E+03 -2.07171E+03  4.98409E+03 -6.58729E+03 -2.06725E+03 -5.72776E+03 -7.08215E+01
 -5.65580E+03 -5.02910E+03 -3.07027E+02 -9.28007E+03  4.36327E+03 -7.48237E+03  2.35488E+03 -1.91148E+03
  9.47504E+03  4.51861E+03  4.40505E+03  6.25635E+03 -1.98838E+03  9.72518E+03 -4.50292E+03  5.57115E+03
 -1.49862E+03  5.23969E+02 -7.54458E+03 -6.34882E+03 -2.41439E+03 -2.65101E+03  1.32788E+03 -6.36583E+03
  3.82707E+03 -6.67710E+01  4.92795E+03  4.08727E+03  1.64724E+03  4.99163E+02  9.59029E+00  4.70886E+03
 -1.61614E+03  3.73048E+03  2.12515E+03  3.66837E+03  1.39159E+03  3.45304E+02  9.78308E+02  1.52618E+03
 -4.73412E+03  8.95485E+03 -6.86326E+03  2.29416E+03  5.79997E+02 -2.74290E+03 -6.88038E+03  4.26848E+02
  1.69955E+03 -2.78882E+03  2.44762E+03 -6.13262E+03  2.74658E+03 -4.06467E+03  6.35859E+03  2.68124E+02
  4.25372E+03 -7.65132E+02  1.51907E+03  3.33105E+03 -6.78527E+02  3.34294E+03  2.10958E+03 -1.15168E+02
 -4.49142E+02 -4.70320E+03  2.06623E+03 -2.76913E+03  9.01829E+02 -5.91062E+03 -1.18189E+03 -5.33686E+02
  2.91490E+02 -3.59245E+03 -1.24557E+03 -2.09612E+03 -2.71449E+03  4.21240E+01  2.92696E+03 -4.93270E+03
 -1.80881E+03 -4.49214E+03  3.58042E+03  1.48646E+03  2.93737E+02  2.03374E+02  1.42862E+03  5.29130E+03
 -1.45517E+03  6.36626E+02 -3.97338E+03  1.20600E+02 -1.00037E+03 -2.84058E+03 -8.67868E+02 -2.19120E+03
 -2.73252E+03 -3.00206E+03 -2.12243E+03 -2.89176E+03  2.47162E+03  2.77529E+03 -7.00314E+02 -1.07295E+02
 -2.32674E+03  1.75935E+03 -3.40994E+03  3.22699E+02  6.30593E+02  1.08037E+03 -1.06092E+03 -3.15685E+03
 -1.42868E+03 -1.67998E+03  5.47422E+03 -1.60316E+03  1.59541E+03  1.96833E+03 -5.78951E+02 -2.47466E+02
 -1.80045E+02 -3.31371E+02 -3.25042E+03 -3.30518E+02  1.24080E+03  2.86993E+03  4.27176E+03  9.17287E+02
 -1.92940E+03  2.08467E+03  3.32851E+03  4.93784E+02 -4.47503E+02  1.98035E+02  2.54853E+03 -9.28152E+02
 -1.34703E+03  1.87685E+03 -3.47199E+02  1.90668E+03  8.77678E+02 -2.38765E+02  1.40085E+03 -2.67492E+03
  5.50534E+03 -4.44167E+03  7.41980E+03  1.19730E+03 -7.02185E+01  6.14931E+03  6.97815E+03  1.38478E+03
  3.01335E+03  8.95052E+02  4.18500E+02 -2.80631E+03 -2.01387E+03 -2.63421E+03  1.89873E+03 -1.40921E+03
 -2.10719E+02 -1.68036E+03 -5.26336E+03 -4.39162E+02 -1.38679E+02 -1.17814E+02 -2.46790E+03 -7.06201E+03
  3.10956E+01 -5.03675E+03 -6.18096E+02 -3.85886E+03  3.32775E+02 -4.67809E+03  5.60365E+03 -6.89739E+02
  1.70614E+03  3.57634E+03  3.18922E+03  3.22370E+03  6.50152E+02  5.18359E+03 -1.18543E+03  5.96386E+03
 -1.02274E+03  3.49291E+03  1.55632E+02  2.11540E+03  2.91682E+03 -3.33453E+03  4.42204E+03 -3.16045E+02
  2.82890E+03 -3.49379E+03 -3.69970E+03  1.09378E+03  8.56966E+02 -4.30215E+03  1.02036E+03 -2.60370E+03
  7.03975E+02 -3.19339E+03  2.15764E+03  1.62971E+03  5.59290E+03  2.67408E+03 -5.74670E+02  3.40415E+03
 -2.77255E+03 -2.21299E+03 -5.33947E+03  4.13271E+03 -5.44133E+03  2.83138E+02 -2.50614E+03 -2.92561E+03
 -5.95764E+03 -2.06054E+03  6.29664E+02  9.84198E+02 -2.07163E+02  3.08572E+03  2.04903E+03  2.56918E+03
  6.74578E+02 -4.85663E+03 -1.73107E+03 -8.18956E+02 -1.13787E+03  6.09404E+02 -2.07937E+03 -1.84739E+03
  1.15583E+03 -1.60509E+03 -1.68073E+03 -3.48574E+03  2.31322E+02 -1.26042E+02 -1.96637E+03 -2.57533E+02
  5.54871E+03  3.25865E+03 -1.35075E+03 -1.88335E+03 -2.16939E+03  2.36508E+03 -4.50150E+02  1.89635E+03
 -2.53007E+03 -4.06593E+03 -1.18598E+03  1.76463E+03  2.64744E+03 -1.15031E+03  1.74541E+03  2.01205E+03
  3.90663E+03  6.49681E+03  1.14185E+03  2.27847E+03 -4.00324E+03 -3.17945E+03 -2.64360E+03 -2.80801E+03
  5.21733E+03  3.02324E+03 -3.41283E+03  2.31576E+03 -5.78401E+02 -2.23093E+03  5.00050E+03 -2.23556E+03
 -2.56391E+03 -2.24588E+03 -5.82253E+03  5.66510E+01 -8.93169E+02 -2.64480E+03  6.77439E+03 -5.67765E+00
 -4.14097E+03  3.39218E+03  2.58040E+03  5.21125E+03 -1.17568E+03 -4.60639E+01  9.61176E+02  6.49438E+02
