 $NMID ID='MM_0lb_SNR50_8hz_g60_26.RAW', FMTDAT='(8E13.5)'
 TRAMP=1., VOLUME=1. $END
  3.05669E+05  3.06432E+03  3.46645E+05  2.49879E+05  9.44739E+04  3.40378E+05 -1.34139E+05  2.57550E+05
 -1.97634E+05  8.36988E+04 -1.14313E+05 -3.07683E+04  4.54767E+02 -4.74016E+04  5.01737E+04 -7.00016E+03
  3.33427E+04  5.41706E+04 -9.77287E+03  7.69499E+04 -6.17589E+04  6.74319E+04 -8.05068E+04  2.90501E+04
 -8.23388E+04 -1.49164E+04 -5.64441E+04 -4.64265E+04 -1.57902E+04 -7.23349E+04  3.03840E+04 -4.59825E+04
  3.76609E+04  6.46989E+03  1.44305E+04  4.85530E+04 -3.65775E+04  5.25222E+04 -6.83786E+04 -2.62444E+03
 -5.69832E+04 -6.64949E+04 -1.01919E+04 -8.24232E+04  4.05608E+04 -5.65733E+04  5.28208E+04 -1.77413E+04
  4.32552E+04  1.35058E+04  3.33973E+04  2.24444E+04  1.14796E+04  3.45482E+04 -1.04844E+04  3.46157E+04
 -2.78976E+04  1.12029E+04 -2.55797E+04 -5.62410E+03  2.63976E+03 -3.39544E+03  2.64237E+04  1.25392E+04
  3.46860E+03  3.85418E+04 -3.89175E+04  4.08474E+04 -6.59249E+04 -1.46843E+03 -5.87622E+04 -4.75589E+04
 -8.59816E+03 -7.31990E+04  4.66110E+04 -4.89433E+04  6.23597E+04  4.62575E+03  4.39530E+04  2.77869E+04
  1.90396E+03  4.42440E+04 -3.27449E+04  2.59102E+04 -3.34620E+04 -3.52541E+03 -2.57511E+04 -1.20864E+04
 -1.47425E+04 -2.10378E+04 -1.58502E+03 -1.92417E+04  8.25341E+03 -2.26819E+04  1.70246E+04 -1.20361E+04
  1.35757E+04  6.54830E+03 -8.69008E+03  1.88598E+04 -2.69238E+04 -1.23813E+04 -9.03564E+03 -4.25929E+04
  2.34277E+04 -4.97635E+04  5.46656E+04 -1.76213E+04  4.63316E+04  1.90848E+04  1.91129E+04  5.32381E+04
 -1.15555E+04  3.59434E+04 -2.61808E+04  6.45668E+03 -1.17987E+04 -3.07516E+04  2.24899E+04 -3.49830E+04
  5.54098E+04 -9.64111E+03  4.62583E+04  2.08589E+04  1.82751E+04  4.89327E+04 -5.87304E+03  5.29519E+04
 -4.25513E+04  3.64469E+04 -4.40705E+04  1.34461E+04 -5.19197E+04 -1.72043E+04 -3.53971E+04 -4.51129E+04
  1.13002E+04 -4.58837E+04  3.36504E+04 -2.14450E+04  3.63967E+04  7.64878E+03  9.00096E+03  1.72461E+04
 -1.07721E+04  9.92181E+03 -8.24190E+03 -1.37622E+03  7.54067E+03 -6.07012E+03  1.18817E+04  1.47973E+04
  8.37512E+03  2.88862E+04 -3.05153E+03  2.77547E+04 -1.54405E+04  2.05176E+04 -2.69098E+04 -1.99528E+03
 -2.44031E+04 -1.75504E+04 -1.56233E+04 -2.34177E+04  1.10295E+04 -3.23475E+04  2.30200E+04 -1.97004E+04
  3.50306E+04 -1.64147E+04  3.91068E+04  6.90447E+03  2.84924E+04  3.07285E+04  7.84640E+03  4.14537E+04
 -2.35670E+04  2.89096E+04 -3.23908E+04  9.75081E+03 -2.44270E+04 -6.91135E+03 -1.57244E+03 -1.63447E+04
  1.27533E+03  1.45615E+03 -1.02374E+04  8.68905E+03 -2.22675E+04  5.27468E+03 -2.07970E+04 -1.57126E+04
 -1.53333E+04 -1.85149E+04  9.00151E+03 -3.01340E+04  2.79176E+04 -2.28301E+04  2.78306E+04 -5.82019E+02
  1.13653E+04  9.73410E+03 -8.75767E+03  2.10968E+04 -2.38975E+04  1.16531E+04 -2.70384E+04 -5.28645E+03
 -1.62799E+04 -2.16122E+04 -2.46651E+03 -3.19834E+04  1.38011E+04 -2.23503E+04  2.37993E+04 -1.52619E+04
  1.94730E+04 -2.86828E+03  2.24751E+04 -9.80188E+02  1.62445E+04 -3.47430E+03  1.35462E+04 -4.75883E+03
  2.87194E+04  9.43514E+03  2.04413E+04  2.48248E+04  1.74878E+04  3.77330E+04 -2.00660E+03  5.14715E+04
 -2.73982E+04  4.19476E+04 -4.18908E+04  1.94058E+04 -4.88699E+04 -3.04883E+03 -3.96157E+04 -2.90991E+04
 -1.14612E+04 -3.84042E+04  1.35842E+04 -3.32725E+04  2.79126E+04 -1.84124E+04  2.94046E+04  1.51269E+04
  7.19773E+03  2.46943E+04 -1.51790E+04  1.30404E+04 -2.00467E+04  4.05500E+03 -1.67157E+04 -1.08202E+04
  8.30118E+02 -3.67444E+04  1.01584E+04 -1.17576E+04  1.40894E+04 -8.22961E+03 -2.46647E+03  1.00633E+04
 -1.48194E+04 -5.33852E+03 -9.59122E+03 -3.74474E+03  2.98697E+03 -1.41216E+04  1.88255E+04 -2.16032E+04
  2.33128E+04 -1.43008E+04  3.34551E+04  6.33899E+03  3.10898E+04  1.91055E+04  1.55313E+04  3.96215E+04
 -9.22010E+03  3.81222E+04 -2.26365E+04  2.45621E+04 -2.32978E+04 -1.43215E+03 -1.46701E+04 -2.88190E+03
 -1.41018E+04 -5.48633E+03 -2.22680E+03  3.71649E+03 -2.52651E+03  4.28667E+03 -3.91042E+03 -2.75614E+03
 -1.96514E+04 -1.65537E+03 -1.36906E+04 -1.76971E+04 -8.76314E+03 -2.15503E+04  3.48593E+02 -1.56224E+04
  1.27150E+04 -1.19797E+04  4.48032E+03 -2.13165E+03 -4.66734E+03  1.57991E+04 -1.19650E+04 -1.17063E+04
 -1.45431E+04 -1.22773E+04  2.45688E+03 -1.59378E+04  1.60501E+04 -1.82278E+04  2.03409E+04 -5.11595E+03
  2.92049E+04 -2.59815E+03  1.56849E+04  1.57551E+04  4.84388E+03  2.39979E+04 -1.02835E+04  1.87683E+04
 -7.84771E+03  2.06711E+02 -8.07708E+03 -2.37641E+03 -2.18999E+03 -9.76501E+03  1.65531E+04  1.87568E+03
  8.12066E+03  5.35432E+03 -2.01263E+02  7.30773E+03 -2.10882E+04  1.69321E+04 -1.06481E+04  4.94240E+03
 -1.93300E+04 -4.43264E+03 -3.50347E+03 -6.80557E+03  1.24234E+04 -9.89982E+03  9.76622E+03  7.84151E+02
  7.80159E+03  1.18126E+04 -2.69160E+03  1.42781E+04 -1.83900E+04  8.92332E+03 -1.87782E+04 -1.41625E+04
 -2.49331E+02 -1.93956E+04  4.20655E+03 -1.16335E+04  1.84366E+04 -8.23280E+03  2.06252E+04  6.94830E+01
  8.03020E+03  1.78352E+04 -7.73679E+03  1.97247E+04 -1.21745E+04  7.75693E+03 -1.64922E+04 -6.86721E+03
 -1.27418E+04 -5.97455E+03  3.33269E+03 -1.63117E+04  9.38843E+03 -1.32504E+04  9.98417E+03 -5.08498E+03
  1.00367E+03 -3.27555E+03 -4.33964E+03  7.62369E+03 -2.72218E+03 -7.22384E+03  4.66138E+03 -1.17568E+04
  1.58615E+04 -9.35101E+03  1.98497E+04  1.95835E+03  1.58039E+04  1.56012E+04  1.37184E+04  2.57054E+04
 -1.06009E+04  3.07196E+04 -2.47880E+04  2.00819E+04 -3.75288E+04  2.98546E+03 -2.22161E+04 -1.42283E+04
 -1.42757E+04 -1.84434E+04 -3.81941E+03 -1.58415E+04  1.41295E+03 -1.35825E+04  9.92968E+03 -2.54723E+03
 -3.97616E+03 -6.06377E+03  1.06367E+04 -8.24766E+02  9.18478E+03 -2.63477E+03  7.85501E+03 -1.15761E+02
  6.30609E+03 -3.18481E+03  4.49964E+03  2.88702E+03  4.90704E+02  1.28930E+04 -1.23275E+04  9.68591E+03
 -2.10580E+04 -7.73884E+03 -1.17788E+04 -6.45218E+03 -1.78155E+03 -1.72900E+04  3.86164E+03 -1.93005E+04
  2.25554E+04 -1.52503E+04  2.33854E+04  1.00834E+04  1.60928E+04  1.24798E+04  8.26031E+03  2.00718E+04
 -6.14228E+03  8.35124E+03 -1.57050E+04  5.88315E+03 -1.05303E+04  2.26867E+03 -1.05883E+03 -8.83224E+03
  3.55925E+03 -7.85161E+03 -6.16361E+03  4.24149E+03 -8.95620E+03 -2.24416E+03 -1.25099E+04  5.84831E+03
 -2.81665E+03 -7.22393E+03  6.87766E+03 -1.94071E+04  1.16959E+04 -1.52594E+04  1.49664E+04 -8.44477E+03
  2.43250E+04  6.90119E+03  2.13136E+03  1.11636E+04 -4.83103E+03  2.31839E+04 -9.55549E+03  4.47921E+03
 -1.80446E+04  3.39098E+03 -1.53599E+04 -1.53210E+04  2.77175E+03 -1.17153E+04  4.67410E+03 -1.46233E+04
  1.04556E+04 -2.09945E+03  7.62216E+03  7.26838E+03  2.50446E+03 -8.56565E+02 -2.56117E+03  4.59421E+03
  6.64226E+03 -3.46329E+02  7.22112E+03  2.58461E+03  5.30118E+03  7.73055E+03  5.22841E+03  9.80446E+03
 -1.97439E+03  1.30931E+04 -1.54882E+04  1.06647E+04 -2.20341E+04  8.49258E+03 -2.33732E+04 -9.12864E+03
 -1.25150E+04 -1.53299E+04 -1.31613E+03 -2.61644E+04  5.33010E+03 -1.23713E+04  1.87843E+04 -4.37531E+03
  1.76363E+04  6.49579E+03  4.09587E+03  1.39073E+04 -5.45925E+03  9.35238E+02 -1.05402E+04 -5.27277E+03
 -7.96640E+03 -2.86476E+03  1.00014E+04 -1.10277E+04  6.83056E+03 -8.06869E+02  7.78151E+03 -7.74983E+02
  5.26885E+03  2.37587E+03  1.82456E+03  1.18354E+04  5.24196E+03 -1.45814E+03 -1.78367E+03  8.31011E+02
 -4.92154E+03  6.11209E+03  8.73611E+03  2.40600E+02  1.06876E+04  8.22660E+03 -2.23189E+03  1.18871E+04
 -9.22841E+03  7.44422E+03 -1.29847E+04  3.81912E+02 -9.87801E+03 -3.40793E+03 -3.22260E+03 -4.65973E+03
  3.51010E+03 -9.13297E+03  8.25528E+03  1.15211E+02  8.07227E+03  4.70095E+03 -7.42833E+03  1.10919E+04
 -5.19831E+03  1.66979E+04 -8.84137E+03 -6.97228E+03 -3.91959E+03 -1.31599E+04 -8.09174E+02 -1.27390E+04
  1.10494E+04 -1.27823E+04  1.27067E+04 -5.71139E+02  1.07428E+04  6.70578E+03 -1.32306E+03  7.89016E+03
 -1.58933E+03  3.20493E+03 -1.93198E+03 -3.47686E+03  1.08914E+03 -1.67873E+04  1.01579E+04 -8.42804E+03
  1.16715E+04 -5.61691E+03  1.94628E+04  1.65830E+04  4.87011E+03  1.13167E+04 -9.05238E+03  1.11574E+04
 -1.54112E+04  5.49068E+03 -6.72091E+03  4.73344E+02 -5.67487E+03  3.32884E+02  6.44262E+03 -1.09002E+04
  8.05758E+03 -3.60027E+03  1.02939E+04  1.27903E+04  2.95324E+03  4.08751E+03  4.81250E+03  1.09842E+04
 -9.19648E+02  6.49178E+03 -5.80800E+03  7.45301E+03 -7.99199E+03  4.91754E+03 -4.01713E+03  1.18359E+03
  4.42445E+02  1.03117E+04 -1.26128E+03 -3.00089E+02 -1.96222E+04  8.67061E+03 -1.47747E+04 -1.01294E+04
 -6.79903E+03 -1.50561E+04  3.19182E+03 -2.00680E+04  1.34601E+04 -1.59690E+04  1.56053E+04 -1.25401E+04
  1.75020E+04 -3.52200E+03  1.64469E+04  8.52058E+03 -7.20967E+03  1.51832E+04 -2.29982E+02  5.54469E+03
  6.80733E+02 -3.84038E+03 -4.01400E+03  8.30801E+02  1.09729E+03  2.00706E+03 -9.51937E+02 -2.07535E+03
  3.89623E+03 -2.97952E+03 -3.97884E+03 -3.09537E+03 -3.86833E+02 -9.50855E+03 -5.26669E+02 -4.38047E+03
  5.73053E+03 -6.65211E+03  9.30629E+03  9.40491E+03  1.36982E+04  9.36907E+03  6.02845E+03  1.50550E+04
 -4.20366E+03  1.31315E+04 -1.29733E+04  1.13193E+04 -2.72904E+04 -1.58037E+03 -2.10533E+04 -6.19224E+03
 -3.28465E+03 -1.03241E+04 -1.55461E+03 -1.81875E+04  6.22331E+03 -8.45891E+03  1.41914E+04 -3.53474E+03
  3.60915E+03  2.44127E+03 -5.24742E+03  6.93211E+03  1.54980E+03 -7.98754E+03 -5.47039E+03 -1.29565E+04
  9.28120E+03 -3.21151E+03 -3.90249E+03 -2.28729E+02  8.86498E+03  7.34957E+03 -1.68321E+03  1.29504E+04
 -1.13073E+04  8.92006E+03 -1.09737E+04  7.44478E+03 -4.89639E+03 -8.70954E+03  3.13801E+02 -1.03267E+04
  3.32607E+03 -8.01727E+03  2.14745E+04  6.15630E+02  1.03161E+04  5.05501E+03  5.53075E+03  8.36368E+03
  7.47693E+03  1.08377E+04 -7.11529E+03  5.61545E+02 -8.72973E+03 -4.03017E+03 -2.78303E+03 -4.15594E+03
 -3.69817E+03  2.92906E+01 -6.76546E+03 -1.06795E+03  5.33194E+03 -1.77561E+03 -9.93487E+03  1.59935E+03
 -2.18876E+03 -5.26636E+03  1.57203E+03 -1.30768E+04  2.87560E+03 -1.19095E+04 -4.39682E+03 -6.90838E+02
  1.26079E+04 -4.19242E+03  4.47235E+03  2.22867E+03 -6.47391E+02  1.71660E+04 -9.24973E+03  5.28075E+03
