 $NMID ID='MM_0lb_SNR50_10hz_g50_96.RAW', FMTDAT='(8E13.5)'
 TRAMP=1., VOLUME=1. $END
  3.10517E+05 -4.33636E+02  3.33898E+05  2.58179E+05  8.14468E+04  3.40486E+05 -1.31814E+05  2.51527E+05
 -1.86669E+05  7.76715E+04 -1.07738E+05 -3.16640E+04  2.93840E+03 -4.83570E+04  5.08607E+04 -1.92984E+03
  2.83241E+04  5.37526E+04 -1.40371E+04  7.49588E+04 -5.87576E+04  7.13810E+04 -8.62348E+04  3.28754E+04
 -7.78700E+04 -9.58818E+03 -5.61416E+04 -5.28153E+04 -1.26888E+04 -7.17185E+04  2.58850E+04 -4.36935E+04
  3.70700E+04  1.63883E+03  2.36534E+04  4.45673E+04 -3.56905E+04  4.76956E+04 -6.41784E+04  2.99069E+03
 -5.01386E+04 -5.70392E+04 -8.11578E+03 -7.86551E+04  3.94632E+04 -5.28131E+04  5.02471E+04 -2.03383E+04
  4.71429E+04  5.90024E+03  3.58422E+04  3.05327E+04  1.39107E+04  2.91046E+04 -3.30527E+03  2.45195E+04
 -2.01940E+04  1.61620E+04 -2.03849E+04 -5.33900E+03  4.66868E+03 -5.23825E+03  2.00751E+04  1.52793E+04
  3.99050E+03  3.92076E+04 -3.17607E+04  3.53041E+04 -6.50479E+04  8.70744E+01 -6.10893E+04 -4.15137E+04
 -1.88599E+04 -6.49418E+04  3.49518E+04 -4.51172E+04  6.41232E+04 -8.50579E+03  3.87762E+04  3.50977E+04
 -5.10674E+03  3.53961E+04 -3.43079E+04  1.59584E+04 -3.18802E+04 -4.63408E+03 -2.16613E+04 -8.27460E+03
 -8.06975E+03 -1.84347E+04  7.00443E+02 -1.90057E+04  1.00575E+04 -1.65946E+04  1.92556E+04 -1.51801E+04
  9.99598E+03  4.05862E+03 -1.13151E+04  1.17019E+04 -2.39151E+04 -5.31419E+03 -6.99606E+03 -3.26785E+04
  2.45453E+04 -4.39734E+04  5.36957E+04 -2.13512E+04  4.72778E+04  1.48503E+04  1.31108E+04  4.86625E+04
 -2.12140E+04  3.15228E+04 -2.40713E+04  5.96876E+03 -7.46016E+03 -3.63732E+04  2.33557E+04 -3.12051E+04
  4.23825E+04 -1.31062E+04  3.98612E+04  2.26467E+04  2.30479E+04  5.20444E+04 -1.00058E+04  5.88066E+04
 -3.17592E+04  3.77666E+04 -4.37508E+04  8.98097E+03 -4.21854E+04 -1.17906E+04 -2.00999E+04 -4.56816E+04
  7.32861E+03 -3.67877E+04  3.34003E+04 -1.37019E+04  3.30020E+04  1.06685E+04  6.98055E+03  2.27243E+04
 -2.13417E+04  1.50453E+04 -1.27686E+04 -6.47800E+03  8.28811E+03 -4.15420E+03  1.74599E+04  2.22835E+03
  1.19006E+04  2.56264E+04 -5.11795E+03  3.22117E+04 -1.76987E+04  1.35645E+04 -2.91344E+04  3.48131E+02
 -3.05995E+04 -1.64964E+04 -1.17323E+04 -2.35320E+04  8.01905E+03 -2.54295E+04  2.04745E+04 -2.30516E+04
  2.89453E+04 -1.02861E+04  3.62121E+04  6.76620E+03  2.18636E+04  2.65370E+04  1.01090E+03  4.12336E+04
 -1.99943E+04  2.97788E+04 -2.84901E+04  1.27384E+04 -2.58026E+04 -1.32971E+04 -4.68483E+03 -1.39662E+04
  4.42646E+03 -8.92559E+03 -5.13944E+03  7.55815E+03 -2.23844E+04  2.44671E+03 -1.83471E+04 -8.71339E+03
 -1.84679E+04 -2.95836E+04  4.12530E+03 -2.21744E+04  1.53737E+04 -1.37383E+04  1.90973E+04 -1.23317E+03
  1.53247E+04  1.52931E+04 -5.56909E+03  2.26278E+04 -1.16885E+04  1.28550E+04 -1.96577E+04 -2.58003E+03
 -1.66117E+04 -2.80646E+04  4.04260E+02 -2.76075E+04  1.12549E+04 -2.45845E+04  2.55937E+04 -6.58039E+03
  2.48159E+04 -1.83035E+03  1.74507E+04  5.38261E+03  7.45041E+03 -2.30272E+03  1.61386E+04  9.80123E+01
  1.64638E+04  5.09355E+03  2.05284E+04  1.73415E+04  1.40803E+04  3.61453E+04 -6.05725E+03  4.02694E+04
 -3.23844E+04  3.00926E+04 -3.38388E+04  1.74720E+04 -3.73629E+04 -3.09385E+03 -3.59721E+04 -2.37838E+04
 -1.77653E+04 -3.82793E+04  5.50900E+03 -2.94560E+04  2.06323E+04 -1.43902E+04  2.26625E+04  1.02585E+04
  9.90508E+03  2.24180E+04 -5.01191E+03  1.48191E+04 -1.95575E+04  2.09907E+03 -1.72116E+04 -8.50071E+03
 -2.73805E+03 -1.69728E+04  1.16954E+04 -9.88326E+03  1.24851E+04 -1.13747E+03  7.44561E+03  6.84916E+03
 -4.55375E+03  2.40609E+03 -7.91867E+03 -6.44099E+03 -2.09762E+03 -1.44646E+04  1.47548E+04 -1.92637E+04
  2.20378E+04 -8.89375E+03  2.67873E+04 -1.33928E+03  1.70486E+04  1.54466E+04  1.14092E+04  2.71535E+04
 -7.66740E+03  3.11269E+04 -2.51665E+04  2.34939E+04 -2.18551E+04  7.77702E+03 -1.12862E+04 -4.30437E+03
 -7.57772E+03 -1.33962E+04 -2.59423E+03  4.10682E+03 -5.61281E+03  2.53322E+03 -3.05692E+03  2.89556E+03
 -1.99731E+04 -2.41273E+03 -1.51205E+04 -1.14454E+04 -2.56244E+03 -2.03156E+04  7.52585E+03 -8.70441E+03
  1.08632E+04 -7.06804E+03  1.19254E+03  4.69705E+03 -8.50936E+03  3.72353E+03 -3.42512E+03  1.90839E+02
 -1.15767E+03 -7.53625E+03  3.84631E+03 -1.17501E+04  5.64554E+03 -1.11497E+04  1.73668E+04 -8.30503E+03
  2.46724E+04 -1.39638E+03  1.70040E+04  7.35200E+03  3.84338E+03  2.07593E+04 -9.95449E+03  1.48860E+04
 -1.31416E+04  5.60015E+03 -1.94049E+04 -1.16483E+04  2.14595E+03 -5.45578E+03  8.96729E+03  1.53002E+03
  1.09888E+04  1.10308E+04 -2.01310E+02  7.22872E+03 -7.58542E+03  1.14371E+04 -1.59760E+04  5.77447E+03
 -3.46015E+03 -4.15176E+03 -6.45923E+02 -9.57162E+03  3.53951E+03 -7.68689E+03  1.04785E+04  6.45934E+03
  9.52479E+03  1.16647E+04 -6.27544E+02  1.24566E+04 -1.81583E+04  6.42591E+03 -8.86291E+03 -5.16643E+03
 -9.38646E+03 -1.04045E+04  2.22807E+02 -2.11182E+04  1.15407E+04 -1.41379E+04  1.76136E+04  5.58455E+02
  7.28007E+03  1.09480E+04 -1.80914E+03  1.36206E+04 -8.82955E+03  8.06093E+03 -6.90423E+03 -2.29434E+03
 -1.26086E+04 -9.27214E+03 -2.77180E+03 -9.12340E+03  8.40553E+03 -1.33428E+04  6.04457E+03 -4.96814E+03
  1.80280E+03 -1.85634E+03  3.75519E+02  1.62090E+03 -1.12627E+02 -5.79488E+03  4.24415E+03 -8.22228E+03
  9.54429E+03 -5.79724E+03  1.80811E+04  2.75971E+02  1.86622E+04  9.22872E+03  6.52173E+03  1.98577E+04
 -4.85920E+03  2.22352E+04 -1.85330E+04  2.11947E+04 -2.52962E+04  7.16935E+03 -2.24205E+04 -1.02835E+04
 -1.43840E+04 -1.98332E+04  6.31553E+02 -1.25509E+04  2.97455E+01 -6.84273E+02  8.30931E+03 -6.30551E+03
  4.66244E+03 -8.92836E+02  4.70542E+03 -4.60582E+03  3.00819E+03 -4.85386E+03  7.89095E+03 -4.01231E+03
  7.23924E+03  5.07228E+03  7.93836E+02  8.17600E+03 -2.59265E+03  1.10743E+04 -8.04737E+03  7.87164E+03
 -9.92016E+03 -1.50368E+03 -1.09937E+04 -1.08428E+04  7.01935E+02 -1.88055E+04  1.40396E+04 -1.80412E+04
  1.42047E+04 -3.81446E+03  1.62593E+04  6.90522E+03  8.07028E+03  1.23990E+04  2.40529E+03  1.15917E+04
 -6.33316E+03  1.00367E+04 -1.52902E+04  2.56906E+03 -6.88656E+02 -6.05782E+03 -1.73208E+03  1.91283E+03
  3.92280E+03  4.39379E+03 -4.18685E+03 -1.37274E+01 -6.10347E+03  3.42341E+03 -1.29490E+04  3.26507E+03
 -5.01760E+02 -6.42577E+03 -4.57553E+03 -1.25811E+04  8.71176E+03 -1.64495E+04  1.29941E+04 -3.14943E+03
  7.97145E+03 -7.81761E+02 -6.10019E+02  9.62125E+03 -1.49941E+03  9.92220E+03 -7.07891E+03  8.05057E+03
 -1.36481E+04 -1.59513E+03 -8.17890E+03 -6.80228E+03  4.43779E+03 -1.24143E+04  7.85862E+03 -7.27601E+03
  8.33338E+03  2.32835E+03  7.91442E+03  9.95301E+03  6.49144E+02  4.81288E+03  2.32336E+03  1.88212E+03
  9.17056E+03 -1.41996E+03  5.82275E+03  4.02936E+03  3.19248E+03  8.03756E+03 -5.01490E+03  6.28017E+03
 -6.30556E+03  9.27370E+03 -5.14432E+03  9.86571E+03 -1.79974E+04 -9.16518E+02 -1.80969E+04 -5.96201E+03
 -2.47573E+03 -9.90287E+03  6.77289E+02 -1.57657E+04  7.03014E+02 -1.06681E+04  1.54781E+04 -8.37233E+02
  9.41019E+03  7.43557E+03 -8.78277E+03  8.85254E+03 -3.91576E+03  5.21723E+03 -5.13190E+03 -4.31161E+02
 -5.50967E+03 -2.81184E+03  2.44636E+03 -6.72627E+03  6.00003E+03 -1.66001E+02  5.86935E+03 -5.93904E+03
  4.48138E+03  8.87318E+03 -4.47794E+03  1.25344E+03 -1.54210E+02 -4.06659E+03  4.18461E+02 -1.58222E+03
 -3.29711E+03 -1.86997E+02  1.05425E+03  3.99515E+03  4.76453E+03  5.75075E+03 -1.56916E+03  1.05356E+04
 -9.99206E+03  4.81330E+03 -8.34447E+03  2.73215E+03 -8.39869E+03 -6.70822E+03 -3.65246E+03 -1.08322E+04
  4.59116E+03 -6.24109E+03  1.57441E+03  2.23926E+03  8.64252E+02  5.72449E+02 -1.49769E+03  5.99583E+03
 -2.87610E+03  7.00239E+03 -7.26297E+03 -3.45341E+03  4.57715E+02 -5.33253E+03 -7.84036E+02 -1.07771E+04
  5.79576E+03 -3.23483E+03  4.91109E+03  2.38896E+03  4.82154E+02  1.98107E+03 -2.41907E+03  4.20347E+03
 -2.04449E+03 -2.88365E+03  8.56756E+02 -6.65050E+03 -6.28970E+02 -1.25328E+03  8.82166E+03 -5.98823E+03
  8.44211E+03  4.46613E+03  2.45082E+03  1.40209E+03  4.79370E+03  1.26543E+04  3.26515E+03  8.98949E+03
 -1.31203E+04 -4.97463E+02 -6.42354E+03 -3.16802E+03 -7.12088E+03 -5.59433E+03 -2.37142E+03 -5.79888E+03
  7.11918E+03 -6.92588E+03  8.27961E+03 -4.23842E+02  5.29837E+03  7.44204E+03 -1.45250E+03  6.98377E+03
 -1.11762E+03  1.07857E+04  6.71789E+03 -4.22209E+02 -2.91647E+03  7.12950E+02  3.29215E+03 -8.03301E+02
 -5.11338E+03  3.55570E+03 -4.85054E+03  2.90268E+03 -8.85428E+03 -4.51687E+03 -1.02994E+04 -1.09072E+04
 -6.51735E+03 -1.39474E+04  3.19736E+03 -1.48221E+04  1.05511E+04 -5.60209E+03  1.42775E+04 -4.48688E+02
  1.35402E+04  2.11871E+02  7.13588E+03  1.09645E+04  2.53147E+02  9.39619E+03 -4.58845E+03  4.12541E+03
 -3.09695E+03  6.71238E+03 -6.74897E+03  3.71362E+03  7.67613E+02 -2.17955E+03  1.30146E+03 -1.56648E+03
 -3.07262E+03 -2.01699E+03 -4.39081E+03  1.91834E+02  3.35163E+03 -1.77151E+03  4.40184E+03 -6.01367E+03
  4.98152E+03 -5.04919E+03  8.57843E+03  1.25767E+03  8.01479E+03  6.79531E+03  6.58514E+03  1.00856E+04
 -8.95286E+03  1.39842E+04 -9.91593E+03  9.75240E+03 -6.75939E+03 -1.93849E+03 -1.17310E+04 -8.37409E+03
  1.79972E+03 -1.24677E+04  1.51145E+03 -8.27422E+03  3.99182E+03 -7.91811E+03  4.87414E+03 -7.83683E+03
  6.04145E+03  3.36876E+03 -1.37501E+03  4.67854E+03  1.60248E+02 -3.61425E+03 -7.36649E+02  2.81820E+03
  2.44574E+03 -4.13031E+03  1.68617E+03  2.29396E+03  5.11008E+03  5.36534E+03 -3.43629E+03  3.35792E+03
 -4.13698E+03  7.93364E+02 -8.80177E+03 -2.84938E+03 -2.13368E+03 -6.76195E+03 -1.40081E+03 -1.37576E+04
 -3.15091E+03 -6.40882E+03  5.88468E+03 -8.02651E+03  4.91864E+03 -5.10414E+03  7.59136E+03  6.12457E+03
  8.29000E+02  3.76700E+03  2.52984E+03  9.75163E+02 -2.63956E+03  2.16159E+03 -2.37092E+03 -1.05069E+03
  2.50170E+03  2.66208E+03 -1.02848E+03 -9.21950E+02 -1.59336E+03  1.46769E+03 -1.39357E+03  9.82819E+01
 -7.95018E+03 -2.35154E+03  4.00053E+03 -1.55156E+03  2.83695E+03 -1.50452E+03  1.07444E+04 -9.60003E+02
  8.78115E+03 -3.82688E+03  1.64946E+02  6.98700E+03  1.89534E+02  1.14348E+04 -8.94434E+03  5.05421E+03
