 $NMID ID='MM_0lb_SNR50_8hz_g60_86.RAW', FMTDAT='(8E13.5)'
 TRAMP=1., VOLUME=1. $END
  3.04835E+05 -5.46349E+01  3.39629E+05  2.54723E+05  8.31751E+04  3.36943E+05 -1.33885E+05  2.50985E+05
 -1.95167E+05  7.96164E+04 -1.16127E+05 -3.01607E+04 -8.11321E+03 -5.26037E+04  4.87339E+04 -4.39183E+03
  3.21116E+04  5.17896E+04 -2.17807E+04  7.58358E+04 -5.40478E+04  7.17742E+04 -8.92883E+04  3.24872E+04
 -7.85386E+04 -1.30304E+04 -5.78802E+04 -4.73494E+04 -1.98145E+04 -7.06896E+04  2.20991E+04 -5.06910E+04
  3.84006E+04  3.66828E+03  2.16728E+04  4.47127E+04 -3.96434E+04  4.90888E+04 -6.98072E+04 -1.54199E+03
 -5.23699E+04 -5.05989E+04 -9.97214E+03 -7.94162E+04  3.84223E+04 -6.51356E+04  4.83212E+04 -1.56214E+04
  4.37809E+04  1.73999E+04  3.43255E+04  2.09269E+04  1.02669E+04  3.15474E+04 -1.15899E+04  2.82583E+04
 -2.08743E+04  1.09275E+04 -1.35430E+04 -6.02836E+03  8.24021E+03 -9.61610E+03  2.76689E+04  1.28684E+04
  9.84447E+03  3.91850E+04 -3.91491E+04  3.90149E+04 -6.86812E+04  4.74717E+03 -5.89472E+04 -4.41319E+04
 -1.75466E+04 -5.93555E+04  4.46578E+04 -4.86531E+04  6.73586E+04 -2.14396E+03  3.63452E+04  3.44032E+04
 -4.03080E+03  3.63936E+04 -2.09247E+04  1.88171E+04 -3.98405E+04 -2.61530E+03 -1.35909E+04 -6.91656E+03
 -1.47133E+04 -1.82976E+04  4.70714E+03 -1.68750E+04  1.09528E+04 -2.35530E+04  1.59657E+04 -3.70698E+03
  5.32500E+03  5.14323E+03 -9.09906E+03  5.81100E+03 -2.03833E+04 -5.79152E+03 -9.16750E+03 -3.74829E+04
  1.92993E+04 -4.80372E+04  5.68133E+04 -2.71124E+04  4.73145E+04  2.15770E+04  1.81110E+04  5.46095E+04
 -1.94923E+04  4.26921E+04 -2.80807E+04  2.26618E+03 -1.47877E+04 -2.95938E+04  2.01913E+04 -3.25674E+04
  4.53552E+04 -4.94320E+03  4.08109E+04  3.05724E+04  1.58746E+04  4.73023E+04 -5.75559E+03  5.44991E+04
 -3.56843E+04  4.39062E+04 -5.16192E+04  8.60779E+03 -5.17423E+04 -1.57580E+04 -2.08363E+04 -4.49130E+04
  9.00109E+03 -4.03138E+04  2.72830E+04 -2.33249E+04  3.29187E+04  1.73267E+04  1.06063E+04  1.96658E+04
 -1.70608E+04  6.32820E+03 -1.61070E+04 -5.75704E+03  9.27147E+03 -1.24539E+04  2.21034E+04  1.16789E+04
  2.37430E+04  3.08268E+04 -1.15358E+04  1.95177E+04 -2.51707E+04  2.02039E+04 -3.50431E+04 -2.50618E+03
 -3.14437E+04 -1.30803E+04 -1.20112E+04 -2.41097E+04  4.66999E+03 -3.04476E+04  2.14567E+04 -2.54616E+04
  2.86536E+04 -1.54505E+04  4.37184E+04  6.00100E+03  3.26105E+04  2.97883E+04  6.69287E+03  4.47390E+04
 -2.36921E+04  3.49895E+04 -3.94315E+04  1.46781E+04 -2.28857E+04 -9.14808E+03 -9.15697E+03 -2.67805E+03
  4.38598E+03  7.08681E+02 -1.35391E+04  5.80351E+03 -2.04943E+04  3.01493E+03 -2.33780E+04 -7.91119E+03
 -1.51659E+04 -2.59927E+04  5.21541E+03 -3.53440E+04  1.92398E+04 -2.29351E+04  1.54022E+04  3.64416E+03
  1.64702E+04  2.24108E+04 -3.63803E+03  2.47563E+04 -1.56466E+04  1.50636E+04 -2.57710E+04 -1.03557E+03
 -1.65798E+04 -2.80694E+04 -1.19244E+04 -3.06631E+04  2.14723E+04 -2.28958E+04  2.72610E+04 -1.30098E+04
  2.22801E+04 -4.51872E+02  1.86682E+04  2.30838E+03  8.55485E+03  2.49979E+03  1.60392E+04 -6.91272E+03
  2.44832E+04  3.36160E+03  2.92349E+04  2.38228E+04  1.84365E+04  4.06996E+04  3.29214E+03  4.84688E+04
 -2.41027E+04  4.07242E+04 -4.88467E+04  2.27353E+04 -5.42859E+04 -7.06834E+03 -3.85883E+04 -3.46222E+04
 -1.57395E+04 -3.78477E+04  1.75272E+04 -4.08779E+04  2.58818E+04 -1.50790E+04  2.75570E+04  9.90916E+03
  1.50144E+03  2.84036E+04 -1.23379E+04  1.80215E+04 -1.85694E+04  4.52846E+03 -1.73826E+04 -1.74521E+04
 -7.97022E+02 -2.04669E+04  8.82815E+03 -1.96612E+04  1.11416E+04  2.79141E+03  5.17488E+02  8.69902E+03
 -5.72126E+03  9.85766E+03 -1.34573E+04 -2.35175E+03 -7.39674E+03 -2.05629E+04  1.44473E+04 -2.17904E+04
  2.43518E+04 -2.16635E+04  3.80122E+04  1.65044E+03  2.90709E+04  2.12829E+04  1.48878E+04  2.95516E+04
 -3.98509E+03  3.35850E+04 -2.79573E+04  2.11327E+04 -3.44742E+04  7.37289E+03 -1.38732E+04 -6.46380E+03
 -7.35149E+03 -1.23655E+04  1.68834E+03  2.61965E+03 -2.73831E+03  7.76940E+03 -1.37706E+04  9.21785E+03
 -1.13558E+04 -5.95229E+02 -1.57539E+04 -8.12263E+03 -4.69492E+03 -2.05868E+04  9.77546E+03 -1.63448E+04
  1.67136E+04 -5.84326E+03  1.65188E+04  7.84175E+03  5.40708E+03  1.61922E+03 -6.10074E+03 -3.10449E+03
  7.57285E+02 -7.76647E+03 -2.73244E+03 -1.43614E+04  6.59694E+03 -2.43026E+04  1.46779E+04 -9.69871E+03
  2.24531E+04  6.42082E+03  2.02557E+04  1.27427E+04  5.50635E+03  1.90015E+04 -9.17973E+03  1.66638E+04
 -1.24675E+04 -2.50536E+03 -7.68741E+03 -1.83001E+03 -5.42537E+03 -4.27278E+03  6.93418E+03  1.56713E+03
  1.41144E+04  8.62788E+03  7.83882E+03  8.15875E+03 -5.29010E+03  1.59952E+04 -2.22738E+04  3.84870E+03
 -8.64871E+03 -8.16643E+03  1.16154E+03 -2.28188E+04  2.08813E+04 -1.11862E+04  6.27880E+03 -8.36113E+02
  4.29837E+03  8.08051E+03 -1.33459E+04  1.58192E+04 -1.81993E+04  5.80828E+03 -1.79359E+04 -7.15416E+03
 -8.40861E+03 -1.75284E+04  9.17340E+03 -1.50630E+04  1.59316E+04 -1.98108E+04  1.76901E+04  6.27633E+03
  1.54806E+04  2.14571E+04 -7.80656E+03  1.66207E+04 -5.31198E+03  8.36457E+03 -1.54181E+04 -2.90810E+03
 -6.73278E+03 -1.15182E+04  4.33009E+03 -1.93072E+04  1.20809E+04 -7.49180E+03  9.92917E+03 -1.28751E+04
  6.89161E+03 -4.98569E+03 -1.87585E+03  6.05174E+03  3.84863E+03 -5.49734E+02  8.02406E+03 -1.82864E+04
  1.39838E+04 -7.00186E+03  1.92437E+04 -5.48859E+02  2.16475E+04  1.18462E+04  1.66561E+04  2.20428E+04
 -9.19288E+03  2.51605E+04 -2.41243E+04  1.60682E+04 -3.48700E+04  5.05050E+03 -3.31213E+04 -1.09119E+04
 -1.06184E+04 -1.31077E+04 -5.59025E+03 -1.33339E+04  1.66869E+03 -7.16293E+03  8.64145E+03 -1.56476E+04
  6.34582E+03 -2.95493E+02  2.11071E+03  3.23498E+03  4.64076E+02  7.86972E+02  7.19732E+03 -2.75157E+03
  8.01017E+03  1.10751E+03  6.41017E+03  1.42861E+04 -6.56696E+03  1.07628E+04 -1.52459E+04  1.54215E+04
 -2.35823E+04  2.34414E+03 -1.43982E+04 -1.68484E+04 -3.42876E+03 -2.53893E+04  1.18261E+04 -1.72912E+04
  2.25440E+04 -7.67847E+03  1.82425E+04 -9.67922E+03  1.12796E+04  2.06056E+04 -3.78592E+03  2.92109E+04
 -6.93446E+03  1.83159E+04 -1.40457E+04  8.26387E+03 -1.20249E+04  3.45409E+03 -1.19589E+04 -6.95559E+03
 -2.08000E+03 -8.22029E+03  2.14636E+03  6.46652E+03 -7.41916E+03  5.43868E+03 -8.54939E+03 -6.03008E+03
 -6.70791E+03 -9.49887E+03 -1.79007E+03 -2.84345E+04  9.96005E+03 -1.01391E+04  1.86250E+04  1.19928E+03
  1.29705E+04  4.79575E+03  8.40202E+03  1.48723E+04 -2.78269E+03  1.72439E+04 -1.75587E+04  1.13230E+04
 -1.70528E+04  6.15466E+00 -1.78191E+04 -1.83163E+04 -2.07526E+03 -1.49633E+04  3.37753E+03 -1.31093E+04
  1.32951E+04 -7.64182E+03  6.06707E+03  3.25512E+03  1.86589E+03  8.08400E+03  5.78189E+03  3.29492E+03
  6.66017E+03 -1.53134E+03 -2.43991E+03  3.80907E+03  2.02766E+03  4.70483E+03  9.80922E+03  1.47530E+03
 -6.74377E+03  1.53590E+04 -8.01897E+03  5.24261E+03 -2.22677E+04  5.82931E+03 -2.25269E+04 -1.63976E+04
 -1.05304E+04 -1.37949E+04  5.76397E+03 -2.14880E+04  1.90380E+04 -6.09817E+03  1.99835E+04 -1.03977E+04
  1.20402E+04  6.98544E+03 -2.20390E+03  9.24050E+03 -2.92913E+03  5.07396E+03 -4.63626E+03 -5.85668E+03
 -7.69624E+03 -2.54247E+03  7.48853E+02 -8.93897E+03  1.00960E+04 -4.26895E+03  8.36819E+03  3.09656E+03
  3.29107E+03 -1.60474E+03  3.40952E+03  2.44444E+03  1.39286E+03  1.58015E+03  5.28725E+03  5.99256E+03
  1.84629E+03 -9.72839E+03  9.38437E+03 -1.88521E+03  3.11818E+02  8.00112E+03 -4.74896E+02  9.12452E+03
 -1.59925E+04  8.72289E+03 -1.57429E+04 -2.93883E+02 -7.23263E+03 -4.05253E+03 -9.87223E+03 -2.52784E+03
  1.42056E+03 -5.96884E+03 -2.36269E+03 -1.86018E+03  4.66563E+03 -1.35254E+03 -2.76625E+03  2.32830E+02
 -5.15475E+03  9.25475E+03 -1.04952E+04 -6.79041E+02 -6.81833E+03 -5.91342E+03  5.30380E+03 -1.15733E+04
  9.88455E+03 -1.01001E+04  1.28936E+04 -9.29418E+02  4.88915E+03 -2.46432E+03 -2.06657E+03  4.48035E+03
 -7.18207E+03  6.31540E+03 -5.22387E+03 -7.08429E+03 -2.22044E+03 -9.67908E+03  5.99299E+03 -8.81751E+03
  8.91381E+03 -2.31149E+03  1.33582E+04  1.53960E+04  8.68064E+03  1.15860E+04 -3.82569E+03  1.26054E+04
 -9.80915E+03  9.12010E+03 -3.60131E+03 -7.73636E+03 -2.73387E+03 -1.16085E+04  3.35553E+03 -8.18352E+03
  1.07337E+04 -2.41876E+03  1.72924E+03  7.56990E+03 -9.18468E+03  7.76381E+03  4.22516E+03  7.99205E+03
  1.82750E+03 -6.35036E+02  1.42492E+03  2.41227E+03 -3.76433E+02 -2.64422E+03 -2.89921E+03  5.24457E+03
 -2.16346E+03  4.62245E+03 -1.18307E+04  3.08119E+03 -1.38500E+04 -3.24419E+03 -1.88468E+04 -1.01451E+04
 -9.90254E+03 -2.19847E+04  6.65852E+03 -1.47755E+04  9.63881E+03 -1.51632E+04  1.20494E+04 -4.06117E+03
  1.80454E+04  3.66804E+03  1.07701E+04  6.21304E+03  6.60747E+03  1.47883E+04 -5.71481E+03  1.04759E+04
 -8.07411E+03  1.10951E+04 -9.42413E+03 -1.76792E+03 -4.09589E+03 -1.51623E+03  3.15425E+03 -6.71744E+03
 -5.60716E+03  7.30485E+02 -2.37675E+03 -4.91936E+03 -5.32207E+03 -2.66961E+03 -3.43521E+03 -3.29129E+03
  1.11200E+04 -8.30905E+03  1.70557E+03  2.04892E+03  7.00447E+03  1.40780E+04  3.59624E+03  6.78756E+03
 -3.34229E+03  1.42583E+04 -1.22029E+04  6.94664E+03 -1.79920E+04  7.41868E+02 -1.31812E+04 -1.19800E+04
 -1.00864E+04 -9.27373E+03  1.71911E+03 -1.45598E+04  1.00561E+04 -9.64260E+03  1.05552E+04 -2.97133E+03
  4.79902E+03  4.70029E+03 -3.07992E+03  1.91291E+03 -5.18956E+03  2.86498E+01  1.97299E+02  1.98522E+03
  3.88298E+03 -2.74554E+02  4.69108E+03 -7.61397E+03  1.82828E+03  8.64791E+03 -5.56191E+03  9.69635E+03
 -1.02624E+04  5.38621E+03 -9.53070E+03  2.71498E+03 -2.39264E+03 -1.67151E+04  8.02724E+02 -1.21770E+04
  1.31486E+04 -1.46961E+04  1.19803E+04 -2.54975E+03  1.25020E+04  6.41821E+03  1.14710E+04  1.53435E+04
 -7.54353E+02  5.90635E+03  2.02214E+03  1.00510E+04  3.59135E+03  7.72064E+03  2.00885E+03  3.32660E+03
  3.44186E+03  7.96704E+02  1.41174E+03 -3.68531E+02  4.96431E+03  7.38286E+02 -1.41820E+04 -3.72146E+03
 -1.07692E+04 -5.55985E+03 -2.84180E+02 -3.98038E+03  1.52417E+03 -1.23275E+04  3.96453E+03 -5.14737E+03
  1.11721E+04 -7.14595E+02 -3.91989E+03  7.10567E+03  1.33407E+03  9.08975E+03 -6.14624E+03  6.03537E+03
