 $NMID ID='MM_0lb_SNR50_20hz_g40_2.RAW', FMTDAT='(8E13.5)'
 TRAMP=1., VOLUME=1. $END
  3.07657E+05  2.94986E+02  3.40517E+05  2.47704E+05  8.22088E+04  3.36443E+05 -1.30696E+05  2.49893E+05
 -1.89139E+05  8.15374E+04 -1.08073E+05 -3.08749E+04 -1.86113E+01 -4.87758E+04  5.43826E+04  4.07171E+03
  3.75166E+04  5.76785E+04 -1.86255E+04  7.87418E+04 -6.09341E+04  6.48352E+04 -8.03329E+04  2.88262E+04
 -7.97701E+04 -1.50814E+04 -5.64647E+04 -5.16389E+04 -1.63181E+04 -6.49606E+04  2.56848E+04 -4.67169E+04
  3.94005E+04  3.21785E+03  1.42589E+04  4.69952E+04 -3.25214E+04  4.60663E+04 -6.21911E+04 -9.63937E+02
 -5.23696E+04 -5.57582E+04 -5.17885E+03 -7.31942E+04  3.14356E+04 -5.62604E+04  4.45659E+04 -2.00032E+04
  4.08807E+04  1.00290E+04  3.21173E+04  2.70268E+04  1.40501E+04  2.82527E+04 -5.83854E+03  2.57828E+04
 -2.40154E+04  1.08511E+04 -1.85897E+04 -5.12752E+03 -1.25926E+02 -8.22142E+03  1.76369E+04  1.31613E+04
  7.31928E+03  3.06848E+04 -2.53059E+04  3.24720E+04 -6.08931E+04  5.86533E+03 -5.35547E+04 -4.14110E+04
 -8.03311E+03 -5.72302E+04  3.66840E+04 -4.58191E+04  5.47269E+04 -6.04672E+02  3.24054E+04  2.77980E+04
 -7.24283E+03  2.91198E+04 -2.46795E+04  1.13297E+04 -2.84615E+04 -3.26497E+03 -1.14579E+04 -7.55726E+03
 -6.89959E+03 -1.08380E+04 -3.95827E+02 -1.71060E+04  9.37736E+03 -2.26659E+04  1.10751E+04 -1.57510E+04
  1.50698E+04  4.38567E+03 -1.11006E+04  1.54293E+04 -1.99259E+04  2.03590E+03 -2.33003E+03 -3.08747E+04
  1.95765E+04 -3.73683E+04  4.76951E+04 -2.01097E+04  3.99096E+04  1.48999E+04  1.28475E+04  3.45093E+04
 -1.21409E+04  2.73562E+04 -2.15693E+04  2.53364E+03 -4.50303E+03 -2.60124E+04  2.35314E+04 -2.81434E+04
  3.49390E+04 -7.31387E+03  2.86436E+04  2.10407E+04  1.47879E+04  3.96845E+04 -7.28938E+03  4.20245E+04
 -2.34667E+04  2.77652E+04 -3.37127E+04  7.20747E+03 -3.39381E+04 -1.20808E+04 -1.92778E+04 -2.89314E+04
  3.25651E+03 -3.12379E+04  2.47624E+04 -1.42138E+04  2.19670E+04  1.27663E+04  4.88902E+02  1.71609E+04
 -1.12906E+04  7.57146E+03 -1.20536E+04 -6.81210E+03  6.62554E+03 -1.04985E+04  1.77811E+04  4.94001E+03
  1.47598E+04  2.10341E+04 -5.31462E+03  2.17070E+04 -1.74215E+04  5.43246E+03 -2.09877E+04 -6.15656E+03
 -1.41739E+04 -1.31361E+04 -3.19100E+03 -1.48093E+04  2.21005E+03 -1.31028E+04  7.86192E+03 -1.50088E+04
  2.32063E+04 -1.26884E+04  2.72742E+04  6.19639E+02  1.93421E+04  2.05309E+04  4.28075E+03  3.08825E+04
 -1.53205E+04  2.84467E+04 -2.34817E+04  8.31905E+03 -1.86981E+04 -9.31033E+03 -3.64873E+03 -1.16241E+04
  5.21673E+03 -5.57978E+03 -2.51524E+03  8.41004E+03 -1.22955E+04  4.25430E+03 -1.37219E+04 -2.70856E+03
 -3.73370E+03 -1.42449E+04  3.88857E+03 -1.68072E+04  1.36093E+04 -1.46429E+04  1.19890E+04 -6.47666E+02
  7.07862E+03  1.10480E+04  1.36986E+03  1.40742E+04 -9.11626E+03  6.69382E+03 -1.42008E+04 -5.36935E+03
 -1.27091E+04 -1.19842E+04 -3.05612E+03 -1.73360E+04  8.28094E+03 -1.12190E+04  1.43597E+04 -4.05037E+03
  1.51536E+04  8.09874E+02  8.67283E+03  4.25476E+03  5.79504E+01  5.35248E+03  2.96710E+03  6.50396E+02
  1.60115E+04  2.99799E+02  1.14578E+04  1.02681E+04  9.19457E+03  2.35073E+04 -3.92596E+03  1.98459E+04
 -1.52642E+04  1.60971E+04 -2.47278E+04  8.15029E+03 -2.02164E+04 -1.58722E+03 -1.99085E+04 -1.30250E+04
 -9.15284E+03 -1.61523E+04  9.04881E+03 -2.09215E+04  1.10006E+04 -8.00679E+03  1.37508E+04  2.81009E+03
  8.38583E+03  5.82733E+03 -5.71066E+03  1.39018E+04 -1.18546E+04  1.27294E+03 -1.15026E+04 -3.83195E+03
  1.40760E+03 -1.34267E+04  3.04450E+03 -6.28264E+03  8.43879E+03 -4.10253E+03 -7.18420E+02  2.39366E+03
 -2.59002E+03 -7.20772E+02 -3.60284E+03 -5.28090E+03  2.12512E+03 -5.82373E+03  8.78992E+03 -7.87713E+03
  6.14925E+03 -1.80180E+02  6.97371E+03  2.35388E+03  4.85635E+03  9.28779E+03 -8.16410E+02  9.48084E+03
  4.69299E+02  1.07963E+04 -1.08134E+04  8.28923E+03 -1.13222E+04  6.91345E+03 -7.84674E+03 -2.90910E+03
 -7.94705E+03 -2.22574E+03 -1.60946E+03 -1.60621E+03 -4.21531E+03  1.94822E+03 -3.41329E+03  6.14973E+02
 -3.95485E+03 -2.04707E+02 -8.75256E+03 -2.65189E+03 -2.85956E+03 -1.57280E+04 -7.23297E+02 -4.70821E+03
  9.31914E+03 -6.28497E+03  4.89589E+03  6.04549E+03  9.57682E+02  4.27141E+03 -4.09628E+03  1.31263E+03
  8.05003E+02 -4.09236E+03 -4.68416E+03 -2.14903E+03 -5.32569E+02 -8.22705E+03  8.96329E+03 -6.47117E+03
  1.21385E+04  3.70411E+03  9.56460E+03  5.02043E+03 -1.63403E+03  9.03448E+03 -5.22621E+03  7.97036E+03
 -7.76427E+03  3.22990E+03  3.30148E+03 -7.73694E+03 -3.44930E+03  1.08194E+03  5.41526E+03 -1.94538E+03
  4.51259E+03  3.97174E+02 -4.96582E+02  9.10761E+03 -2.28523E+03  7.36933E+03 -7.07269E+03 -3.81700E+02
 -4.35545E+03 -4.98262E+03  7.82893E+02 -4.43125E+03  3.22817E+03 -3.29591E+03  5.13167E+03  9.77097E+02
  1.74056E+03  4.08678E+03 -1.29829E+03  5.49366E+03 -3.36058E+03  2.14173E+02 -6.69582E+03 -1.60683E+03
 -6.31034E+03 -4.46863E+03 -1.45169E+03 -4.84554E+03  2.64557E+03 -1.91113E+03  8.47061E+03  2.44689E+03
  1.99012E+03  5.57433E+03  1.93165E+02  7.24519E+03 -4.68955E+03  6.53919E+03 -6.73478E+03  2.26690E+02
 -4.77785E+03 -1.90374E+03  1.12580E+02 -1.48897E+03  4.94428E+03 -3.86759E+03  1.31189E+03 -2.46414E+03
  3.48128E+03  1.16490E+03  3.07858E+03  1.00048E+03  8.64128E+02 -9.68485E+01 -1.76374E+03 -2.56410E+03
  5.47607E+03  1.21659E+03  4.93732E+03 -2.05284E+03  5.22867E+03  4.04688E+03  4.65824E+03  5.20959E+03
 -2.56179E+03  8.28351E+03 -1.08231E+04  5.88398E+03 -1.06299E+04 -2.32441E+03 -4.63724E+03  5.42223E+01
 -3.40067E+03 -6.98840E+03 -9.97667E+02 -4.79312E+03 -5.22806E+02 -6.08273E+02  1.16734E+03 -3.19154E+03
 -6.71332E+01 -1.51448E+03  8.97334E+02  1.79090E+03  3.75827E+02  1.99470E+02  3.50618E+03  1.58419E+03
  3.03817E+03  2.64882E+03  1.71192E+03  7.21025E+02  1.49185E+03  2.70428E+03 -4.06177E+03  1.73347E+03
 -6.33502E+03 -5.14051E+03  9.74911E+02 -5.38208E+03  4.81913E+00 -4.37753E+03 -5.93421E+01 -4.72661E+03
  2.97535E+03 -2.77831E+03  5.95921E+03 -7.45057E+02  1.54945E+03 -1.05257E+03 -1.10364E+03  6.10951E+03
 -1.72206E+03  4.75458E+03  1.44465E+03  3.25064E+03  1.70273E+03 -4.21963E+02  1.19486E+03 -2.05998E+03
  1.49132E+03  1.26492E+02  1.58625E+03  6.56556E+02 -2.19322E+02  3.29311E+03 -2.78907E+03  3.47381E+03
 -4.26553E+03 -3.53356E+03 -3.84046E+03 -5.16617E+03 -5.29599E+02 -4.75894E+03  2.24324E+03 -3.72381E+03
  1.24025E+03  6.77916E+02 -2.93235E+03  4.76440E+03  1.46440E+03  3.55259E+03 -6.39109E+02  9.69966E+02
  3.98047E+02 -1.41213E+02 -4.24192E+03  1.69511E+02  3.37994E+03 -5.21910E+03  3.09985E+03  2.04742E+03
  3.23623E+03 -5.56778E+02  2.35760E+03  9.14680E+02  1.66773E+03 -6.38545E+02  1.25204E+03  2.51963E+03
 -1.27301E+03  1.30066E+03 -1.33862E+03  1.87842E+03 -1.85343E+03 -7.72266E+02  3.37100E+03 -2.70950E+03
  1.09918E+03  2.81817E+02  1.73464E+03 -1.95437E+02 -1.14139E+03  1.98300E+03 -5.73248E+03 -5.57916E+02
 -2.09524E+03 -4.49868E+03  1.01495E+03 -1.86226E+03 -1.17125E+03 -2.09408E+03  1.02848E+03 -2.52704E+03
  4.36767E+03 -1.25367E+03  6.99905E+02  5.17236E+03  9.98999E+02  1.47675E+03 -1.41424E+03  5.75039E+02
  1.73203E+03  4.69754E+02 -7.12673E+02 -1.37259E+03  5.98655E+02 -4.85931E+03  2.54342E+03 -1.96631E+03
  6.12943E+02  4.94131E+02 -7.40913E+02  2.98776E+03  2.19030E+03 -3.11500E+03  9.97320E+02  1.15443E+02
 -3.56037E+03 -5.61408E+01 -1.75747E+02  2.06932E+02 -1.85511E+03 -1.53227E+02 -1.27103E+03  2.54762E+03
 -1.92241E+03 -2.95527E+02  1.13891E+03 -1.44137E+03 -9.16265E+02 -9.45179E+02 -2.38084E+02 -2.26152E+03
  8.59389E+02 -3.31090E+03 -1.91053E+02 -1.89272E+03 -8.26776E+02 -1.81263E+03 -6.66615E+02  1.88842E+03
 -1.44055E+03  2.76245E+03  2.26591E+03  1.51496E+03 -1.71645E+03 -2.72307E+03  1.31764E+03  9.58686E+02
  4.22386E+03 -9.12172E+02  1.07472E+03 -2.18662E+03  1.70689E+03 -2.50982E+03 -8.65769E+02  4.04425E+03
  3.90188E+03 -4.68821E+01 -5.24953E+03 -1.31877E+03 -4.69442E+02 -4.37709E+03  3.20208E+03  2.21020E+03
 -3.44446E+03  2.84765E+03  6.55996E+03 -1.23389E+03  2.63237E+03  3.94330E+03 -9.70862E+02  2.66017E+03
 -1.68498E+03 -1.45647E+03 -2.64896E+03 -1.54911E+03 -1.01849E+03  2.49541E+03 -3.80643E+02  2.47773E+03
  1.24213E+03 -4.57686E+01  2.27428E+03 -6.10252E+02 -3.04097E+02 -5.31737E+01 -6.05514E+02  3.47950E+03
  2.48869E+03  4.33253E+03 -1.76403E+03 -1.37303E+03  4.77091E+00  4.03332E+03  1.03220E+03 -1.08584E+03
 -1.01273E+03  1.95645E+02 -5.02912E+03  2.44340E+02  4.26560E+02  4.32593E+02 -4.87768E+03 -1.89208E+03
  1.20440E+03 -1.76408E+03 -8.77153E+02 -9.82417E+02 -1.29334E+03 -7.00341E+02  5.64938E+03  2.02824E+03
  4.95295E+03  2.21755E+03 -1.08318E+03  2.52534E+02 -2.04201E+03  3.81806E+03  1.17078E+03 -2.19185E+03
 -4.91460E+03 -7.13942E+02 -1.00015E+03 -2.77475E+03 -1.63601E+03 -7.14432E+02  1.29383E+03 -1.85710E+03
  2.45859E+03 -2.12460E+03 -2.87944E+03  8.26897E+01 -1.01378E+03 -3.69514E+02 -3.32064E+03  1.97747E+03
  6.44613E+02  5.26576E+02 -2.02742E+03  3.93546E+02 -1.02796E+03 -1.60406E+03  8.12337E+02 -1.57164E+03
  2.92321E+03  4.58654E+02  2.08301E+02  2.46320E+02 -2.77102E+03  2.25249E+03 -7.82943E+02 -5.16783E+03
 -1.86489E+03  2.43898E+03 -1.91242E+03 -5.95231E+02 -3.21911E+03 -1.26020E+03  2.08598E+03  1.91004E+01
  5.10568E+01  1.96792E+03  3.58903E+03 -2.91741E+02  2.22652E+03  1.45466E+02 -7.49801E+02 -1.67365E+03
  2.80356E+03  1.48174E+03  1.12129E+03 -8.93947E+02  4.19131E+03 -3.94988E+03 -3.17946E+03 -1.95117E+03
 -4.76437E+03  2.08002E+03 -5.12490E+03  4.54143E+01  9.63834E+02 -1.97517E+02  1.21118E+03 -2.82018E+03
 -2.75007E+03  2.42874E+03  1.38283E+03 -3.09968E+02  4.75371E+03  1.95674E+03  1.52753E+03 -1.42595E+03
  1.13028E+03 -3.85626E+02  1.05974E+03  1.65449E+02 -9.27511E+02  2.39224E+03  1.83741E+03 -4.43543E+03
  3.37000E+03  5.49519E+02 -1.95210E+03  2.70266E+03  2.46845E+03  7.21759E+03  1.60266E+03 -1.41432E+03
  3.90391E+02  4.06644E+03  1.88020E+03  5.28644E+02 -2.76083E+03  1.47665E+03  1.17159E+03  6.03819E+02
 -1.92311E+03  3.37811E+03 -4.75281E+02  2.43540E+03 -3.33488E+03  4.33685E+03  1.29185E+02  4.87937E+02
