 $NMID ID='MM_0lb_SNR50_15hz_g60_89.RAW', FMTDAT='(8E13.5)'
 TRAMP=1., VOLUME=1. $END
  3.07786E+05 -2.47173E+03  3.40016E+05  2.49658E+05  8.42019E+04  3.33397E+05 -1.31141E+05  2.50262E+05
 -1.88302E+05  8.32076E+04 -1.11839E+05 -2.99811E+04  1.54484E+03 -5.13112E+04  5.25196E+04  3.77911E+03
  3.53560E+04  5.00631E+04 -1.50778E+04  7.07036E+04 -5.68213E+04  6.16223E+04 -8.19248E+04  2.77125E+04
 -8.36201E+04 -1.14100E+04 -5.65395E+04 -5.22625E+04 -1.58567E+04 -6.80147E+04  2.99044E+04 -4.42944E+04
  3.80601E+04  7.16387E+03  2.09719E+04  4.77276E+04 -3.70707E+04  4.50369E+04 -6.68733E+04 -1.31727E+02
 -5.17979E+04 -6.00774E+04 -1.04486E+04 -7.64110E+04  3.36991E+04 -5.78628E+04  5.12885E+04 -1.78876E+04
  4.31260E+04  1.06925E+04  2.59532E+04  2.87190E+04  1.81874E+04  2.86833E+04 -8.17520E+03  2.81245E+04
 -2.29366E+04  9.34719E+03 -1.80846E+04 -2.31113E+03  4.51549E+03 -5.32680E+03  2.65511E+04  1.10059E+04
  6.44373E+03  3.37210E+04 -3.38875E+04  3.39651E+04 -6.54634E+04  1.56114E+03 -5.65215E+04 -4.47356E+04
 -1.03340E+04 -6.55752E+04  4.25091E+04 -4.91486E+04  5.91225E+04 -2.10471E+02  3.34575E+04  3.94229E+04
 -5.07703E+03  4.16632E+04 -3.15116E+04  1.66396E+04 -3.08485E+04 -8.08112E+02 -1.84853E+04 -9.34037E+03
 -6.61779E+03 -1.58741E+04  3.25797E+02 -1.66840E+04  1.24199E+04 -1.83342E+04  1.35012E+04 -1.25784E+04
  6.27854E+03  5.39009E+03 -1.52201E+04  1.19754E+04 -1.47230E+04 -4.69863E+03 -8.65428E+03 -2.82985E+04
  2.03172E+04 -4.49842E+04  5.33381E+04 -2.33680E+04  4.63709E+04  1.99518E+04  1.23259E+04  4.41221E+04
 -1.54773E+04  3.53369E+04 -2.86833E+04  1.47902E+03 -1.12975E+04 -2.98795E+04  2.02502E+04 -3.42238E+04
  4.66328E+04 -7.55372E+03  3.65151E+04  1.92792E+04  1.62564E+04  5.07965E+04 -6.79147E+03  4.99723E+04
 -3.42506E+04  3.30733E+04 -4.58659E+04  1.30227E+04 -4.31300E+04 -2.05853E+04 -2.35517E+04 -3.82280E+04
  1.08921E+04 -3.82744E+04  3.62311E+04 -1.65360E+04  3.13759E+04  9.13588E+03  1.27987E+03  1.93204E+04
 -1.46831E+04  7.85781E+03 -8.50496E+03 -9.14110E+03  3.50961E+03 -1.07744E+04  1.51857E+04  8.12808E+03
  1.22418E+04  2.29788E+04 -6.32006E+03  2.23592E+04 -2.63541E+04  1.21225E+04 -3.31647E+04  5.25492E+02
 -2.45169E+04 -1.97818E+04 -9.82953E+03 -2.23317E+04  6.36845E+03 -2.11605E+04  1.51016E+04 -1.76962E+04
  2.87558E+04 -1.52961E+04  3.50170E+04  1.17032E+03  2.27872E+04  2.32028E+04  2.24090E+03  3.85459E+04
 -1.65162E+04  3.21162E+04 -2.65476E+04  1.44691E+04 -1.86450E+04 -1.22464E+04 -3.94520E+03 -1.28031E+04
  5.64454E+03 -7.07742E+03 -8.98301E+03  1.08803E+04 -1.46319E+04  7.66568E+03 -1.82474E+04 -5.88741E+03
 -1.35798E+04 -1.99606E+04  6.28793E+03 -2.29382E+04  1.55464E+04 -1.73017E+04  1.77145E+04 -2.93550E+03
  9.32262E+03  1.28638E+04 -1.31276E+03  2.12285E+04 -1.56760E+04  1.12765E+04 -1.51785E+04 -6.15427E+03
 -1.77480E+04 -2.43946E+04  1.89798E+03 -2.25554E+04  8.94839E+03 -1.65424E+04  1.50441E+04 -5.89357E+03
  1.87620E+04  3.91780E+03  1.64210E+04  6.73837E+03  6.88191E+03  6.47005E+03  6.62463E+03  2.03439E+03
  1.88275E+04  2.46182E+03  2.38087E+04  1.10704E+04  9.86565E+03  2.83435E+04 -2.77107E+03  3.04941E+04
 -1.84303E+04  2.70886E+04 -3.47669E+04  1.17902E+04 -3.38825E+04 -7.68581E+03 -3.40101E+04 -2.09815E+04
 -5.96579E+03 -3.21110E+04  7.60793E+03 -2.64109E+04  1.83860E+04 -1.25323E+04  2.31976E+04  5.17770E+03
  4.33004E+03  1.05895E+04 -6.66687E+03  1.29194E+04 -1.54781E+04  2.28956E+03 -1.13785E+04 -9.62025E+03
  2.10656E+03 -1.19824E+04  6.33372E+03 -1.19772E+04  7.57461E+03 -2.97610E+03 -3.72938E+01  5.49612E+03
 -7.59003E+03  4.06710E+03 -2.29269E+03 -4.46660E+03 -4.05712E+02 -9.60900E+03  6.21694E+03 -1.54424E+04
  1.38179E+04 -1.10855E+04  1.72279E+04  3.79070E+03  1.71529E+04  1.09586E+04  6.50000E+03  1.95125E+04
  6.05629E+02  2.38797E+04 -1.21264E+04  1.16193E+04 -1.82044E+04  3.21358E+03 -1.18357E+04 -3.78609E+03
 -8.16497E+03 -3.26518E+03  3.74133E+02  3.58591E+03  1.97388E+03  3.63599E+03 -7.36189E+03  6.13869E+03
 -7.74924E+03  2.51314E+02 -1.66509E+04 -9.52859E+03 -3.54258E+03 -1.51274E+04  3.93023E+03 -1.26732E+04
  6.29240E+03 -4.02523E+03  2.93951E+03  4.22595E+03  1.66350E+02  3.71726E+03 -7.06009E+03 -9.31575E+02
 -5.73327E+03 -1.14118E+04 -1.91787E+03 -1.02353E+04  9.90918E+03 -1.15536E+04  1.22314E+04 -5.19542E+03
  1.49689E+04 -1.29325E+03  1.10076E+04  6.90291E+03 -1.25176E+03  1.31063E+04 -8.50089E+03  1.48491E+04
 -1.26809E+04  2.18541E+03 -2.99190E+02  2.01896E+02 -1.30849E+03 -3.95441E+03  5.48374E+03 -6.84210E+03
  3.84743E+03  2.27544E+02 -3.55587E+02  5.71622E+03 -6.62326E+03  5.62357E+03 -1.25986E+04  4.41970E+03
 -8.76523E+03 -7.03021E+03  4.55803E+03 -4.81645E+03  2.64617E+03 -7.69819E+03  1.00326E+04  2.82097E+03
 -3.41790E+03  6.89802E+03 -1.98016E+03  5.23946E+03 -8.38331E+03  5.81627E+03 -1.11541E+04 -5.42321E+03
 -6.76867E+03 -8.77653E+03  3.51396E+03 -9.37104E+03  1.00963E+04 -7.42948E+03  1.05269E+04  3.46177E+03
  8.03947E+03  8.59228E+03 -1.09164E+03  1.07255E+04 -1.13537E+03  6.17515E+03 -1.00002E+04 -2.09235E+03
 -5.37052E+03 -6.87440E+03  3.43562E+03 -5.08551E+03  7.32603E+03 -8.95556E+03  5.86383E+03 -5.34241E+03
  6.13719E+02 -2.13321E+03 -4.86410E+02  6.32319E+03 -4.80595E+02 -2.42811E+03  5.33407E+02 -4.42476E+03
  6.98622E+03 -3.27319E+03  8.82526E+03  2.36791E+03  9.81225E+03  5.27488E+03  4.99356E+03  1.14662E+04
 -3.88904E+03  1.81686E+04 -1.31085E+04  1.08954E+04 -1.48104E+04 -1.49638E+03 -1.60016E+04 -5.58657E+03
 -6.67438E+03 -1.03746E+04 -1.53857E+03 -7.65491E+03  9.57473E+03  8.09005E+01  6.12932E+02 -4.76914E+03
  7.44069E+02 -2.92036E+03  6.54009E+03 -2.23812E+03  8.89333E+02 -4.39845E+03  1.10064E+03  2.49897E+03
  1.17340E+04  5.70604E+03  1.61945E+03  2.09066E+03 -2.88396E+03  5.50966E+03 -4.72561E+03  3.40674E+03
 -5.14447E+03 -2.35085E+03  1.31711E+02 -1.34623E+03 -5.03945E+03 -7.06362E+03  5.81302E+03 -1.15698E+04
  1.40911E+04 -5.06512E+03  9.18879E+03 -8.72739E+02  7.96128E+03  1.05770E+04  3.30060E+02  1.15783E+04
 -9.28204E+02  8.76953E+03 -5.13045E+03  7.07242E+01 -6.73947E+03 -1.56804E+03 -5.28963E+03  1.20150E+03
 -7.03272E+02  1.24706E+03  5.51807E+02  2.59209E+03  1.16243E+03 -6.37316E+03 -8.10124E+03 -3.97530E+02
 -4.70146E+03 -7.64824E+03  2.94722E+03 -8.37006E+03  7.17585E+03 -1.08703E+04  4.10083E+03 -4.22111E+03
  6.21879E+03  1.40831E+02  3.97216E+03  4.70410E+03  9.24570E+02  6.91797E+03 -1.43328E+03  1.44395E+03
 -6.04658E+03  4.08316E+02 -6.46477E+03 -8.38930E+03 -1.46592E+03 -4.20557E+03 -4.35616E+01 -3.19396E+03
  5.33712E+02  1.26291E+03  3.50886E+03  3.71093E+03 -1.79546E+03  1.19657E+03 -3.84495E+03  1.75931E+03
  1.29521E+03  7.68960E+02  7.21812E+03  8.87417E+01  4.95874E+03  1.08731E+04  4.53414E+03  3.76027E+03
 -1.64025E+03  4.76255E+03 -6.83122E+03  7.82557E+02 -1.07342E+04  7.50160E+02 -8.95543E+03 -1.81231E+03
 -1.79687E+03 -8.64289E+03  3.30298E+03 -8.54006E+03  7.00797E+03 -6.53107E+03  6.76158E+03 -2.80210E+03
  5.30150E+03  3.47375E+02 -5.89700E+02  2.08681E+03  1.19351E+03  6.94263E+02 -5.01331E+03 -6.87548E+02
 -4.46200E+03 -4.02977E+03 -2.50685E+02  6.70088E+02  4.12224E+03 -2.31329E+03  6.34425E+03  3.82103E+03
  4.52994E+03 -1.83572E+03  5.74245E+02  2.07191E+03 -1.24100E+03 -6.41049E+02 -1.18809E+03  1.89252E+03
 -4.84225E+02 -2.65093E+03  2.19071E+03  1.47296E+03  3.47606E+03  3.94670E+03  3.06748E+02  6.98216E+03
  2.10250E+03  3.60506E+03 -2.84806E+03 -1.92770E+03 -4.51149E+03 -3.06999E+03 -1.20106E+03  7.06068E+02
  1.10539E+03 -3.64730E+03  9.46339E+02 -4.76507E+03  3.68338E+03  5.93975E+02 -7.26454E+03  1.84859E+03
 -3.53666E+03 -4.50643E+02 -2.25275E+03 -5.07478E+03  1.11606E+03 -2.07813E+03  1.09851E+03 -3.70017E+01
  2.58880E+02 -3.72479E+03  1.21341E+02  2.33630E+03  1.98888E+03  7.47698E+01 -4.75623E+02 -1.78381E+03
 -2.23353E+03  4.75149E+01 -1.95748E+03  2.13523E+03  8.67872E+02 -2.18594E+03  2.36328E+03  6.22772E+02
  5.75593E+03  1.35159E+03  2.72957E+03  1.97954E+03  1.79994E+03  2.09529E+03 -7.33953E+02  1.11628E+03
 -5.24009E+03 -7.09442E+02 -5.97052E+03 -2.26507E+03  8.57920E+02 -1.49555E+03  1.90289E+03 -2.95676E+03
  3.78205E+03 -8.52449E+02  2.71814E+03  8.14656E+02 -7.44190E+02 -3.16940E+02  2.75626E+03  7.53223E+02
 -5.79926E+02  3.73116E+02 -2.34140E+03 -1.79045E+03 -2.73457E+03  1.25959E+03  5.18143E+02  2.34214E+03
 -1.83473E+03  1.47194E+03 -7.99371E+03  1.05235E+03 -3.34427E+03  1.43748E+03 -2.87308E+03 -4.07237E+03
 -5.48483E+03 -6.13484E+03  5.90250E+03  6.40790E+02  2.19647E+03 -3.53336E+03  1.15761E+04 -3.66834E+03
  5.44151E+03 -3.60073E+03  1.14203E+03  8.66549E+03 -7.53268E+03  6.01896E+03 -3.36227E+03  6.43157E+02
 -7.92978E+02  2.23565E+03  2.14308E+03 -2.67905E+03  1.83829E+03  2.31165E+03 -2.66116E+03  1.00239E+03
 -2.47702E+03  3.15268E+03  5.72802E+02 -8.18926E+01 -3.84896E+03 -2.79874E+03  3.68903E+03 -1.12519E+03
 -8.12710E+02  4.54228E+03  6.29626E+03 -6.73618E+02  3.12898E+03  3.08415E+03  4.62090E+03  4.15999E+03
 -4.28403E+03  4.39631E+02 -6.37201E+03 -1.50131E+03 -1.36338E+03  1.51740E+03 -3.90426E+03 -3.19607E+03
 -1.04267E+03 -1.06509E+03 -1.65524E+03 -7.34805E+03 -2.81377E+03  6.24587E+02  5.80851E+03 -6.56043E+02
  2.16800E+03  7.43794E+03  3.20967E+03 -6.12617E+02 -4.39423E+02  2.09166E+03 -9.89764E+02  2.75638E+02
 -1.97843E+03  3.09275E+02  3.15840E+03  4.33211E+03  3.40419E+02  3.37091E+03 -9.81780E+02  5.36544E+03
  3.84954E+03 -8.32889E+02 -3.78998E+03 -2.89621E+03 -5.86266E+02 -7.74882E+03  3.80967E+03 -1.66204E+03
  5.08267E+02  1.29689E+03  4.51557E+03  1.74827E+02  4.71168E+02  1.34825E+03  3.20848E+03 -1.02893E+03
  2.99686E+03  4.06516E+03 -3.95932E+03  3.97378E+03  2.27993E+03  3.04565E+03 -2.89646E+03  2.20758E+03
  3.13883E+03 -2.63073E+03 -1.03133E+03  4.78278E+03 -8.41027E+02  2.12384E+03 -2.61241E+03 -4.24605E+03
 -1.73904E+03 -3.58128E+03 -1.60154E+03  8.12654E+02 -5.18985E+02 -1.14562E+03  4.02630E+03 -1.71158E+03
 -6.84548E+02  4.49600E+02  3.73867E+03  1.07439E+03  1.54390E+03 -2.75501E+03 -2.03884E+03 -1.14566E+03
