 $NMID ID='MM_0lb_SNR50_15hz_g55_47.RAW', FMTDAT='(8E13.5)'
 TRAMP=1., VOLUME=1. $END
  3.11236E+05 -1.59023E+03  3.37479E+05  2.53894E+05  8.01350E+04  3.38678E+05 -1.32621E+05  2.48513E+05
 -1.89804E+05  8.26400E+04 -1.13877E+05 -3.11223E+04  2.35093E+03 -4.53729E+04  5.72074E+04  3.25478E+03
  3.70506E+04  5.43356E+04 -1.70490E+04  7.26449E+04 -5.88303E+04  6.34860E+04 -9.05565E+04  3.23956E+04
 -8.32852E+04 -6.70464E+03 -5.53477E+04 -5.22960E+04 -1.87115E+04 -6.57776E+04  2.93301E+04 -4.49195E+04
  3.99184E+04  3.14967E+02  1.81576E+04  4.77758E+04 -3.55733E+04  4.83732E+04 -7.46939E+04 -3.02454E+03
 -5.07738E+04 -5.53007E+04 -8.94394E+03 -7.51373E+04  3.52988E+04 -5.62910E+04  4.81637E+04 -1.68791E+04
  4.38926E+04  1.47328E+04  3.51214E+04  3.26266E+04  1.39926E+04  2.71029E+04 -1.00837E+04  2.84378E+04
 -2.27392E+04  1.28032E+04 -1.41774E+04 -5.89013E+03  6.43846E+03 -7.55958E+03  1.74114E+04  1.68441E+04
  5.49912E+03  3.97485E+04 -3.24412E+04  3.29571E+04 -6.69352E+04  3.75555E+03 -5.59614E+04 -4.21853E+04
 -1.36377E+04 -6.35779E+04  4.06859E+04 -4.59130E+04  5.63727E+04  1.31301E+03  3.41388E+04  3.07704E+04
 -2.18323E+03  3.43117E+04 -3.42276E+04  1.66917E+04 -3.03423E+04 -8.18119E+03 -1.22743E+04 -1.02645E+04
 -1.61755E+04 -1.16216E+04  9.14314E+02 -1.55678E+04  8.03958E+03 -2.23052E+04  1.86389E+04 -1.14817E+04
  8.83271E+03  7.96456E+03 -1.04789E+04  1.30345E+04 -1.87493E+04 -8.89961E+03 -3.82359E+03 -3.36135E+04
  2.25993E+04 -4.18923E+04  5.13868E+04 -1.34542E+04  4.44167E+04  2.56292E+04  1.68466E+04  3.98747E+04
 -2.16712E+04  3.25223E+04 -2.23701E+04  9.88807E+02 -1.24961E+04 -2.54591E+04  1.66821E+04 -3.55978E+04
  4.09012E+04 -6.30676E+03  3.20484E+04  2.37787E+04  2.40551E+04  5.06038E+04 -1.20112E+04  4.92021E+04
 -3.25867E+04  3.52482E+04 -4.41714E+04  7.91551E+03 -4.50018E+04 -1.43206E+04 -2.33864E+04 -3.63286E+04
  6.18970E+03 -3.77385E+04  3.36855E+04 -1.61472E+04  3.55067E+04  1.16017E+04  9.10644E+03  1.86093E+04
 -1.96826E+04  9.80969E+03 -1.35247E+04 -7.85347E+03  7.17991E+03 -3.32231E+03  1.55510E+04  9.55724E+03
  1.39477E+04  2.30820E+04 -7.05255E+03  2.12115E+04 -2.15161E+04  1.48075E+04 -2.98080E+04 -4.31192E+03
 -2.35283E+04 -1.19253E+04 -7.46701E+03 -2.37670E+04  2.25135E+03 -2.11701E+04  1.68532E+04 -1.47115E+04
  2.44445E+04 -1.67708E+04  3.20106E+04  5.80334E+03  1.97214E+04  2.33522E+04  4.04781E+03  3.62320E+04
 -1.87889E+04  2.71375E+04 -2.42694E+04  1.14839E+04 -1.89119E+04 -1.30294E+04 -3.05855E+03 -9.18435E+03
  1.04868E+03  1.71783E+03 -4.14633E+03  2.38545E+03 -1.49771E+04  6.27638E+03 -1.76038E+04 -4.47131E+03
 -1.18413E+04 -1.88615E+04  1.01023E+04 -2.78066E+04  1.65830E+04 -1.77419E+04  2.29848E+04 -3.12143E+03
  1.42476E+04  1.74558E+04  9.31768E+02  1.87585E+04 -1.70341E+04  1.01761E+04 -1.86061E+04 -6.66498E+03
 -1.64916E+04 -1.09040E+04 -8.08805E+03 -2.45487E+04  7.48297E+03 -2.13161E+04  1.91433E+04 -8.11801E+03
  1.90827E+04 -9.46532E+02  1.14447E+04  1.17103E+04  6.31415E+03 -3.12061E+03  9.11413E+03 -5.79693E+02
  1.58200E+04  5.03668E+03  1.95998E+04  1.70841E+04  1.34560E+04  3.38761E+04 -5.69856E+03  3.30977E+04
 -1.87171E+04  2.86573E+04 -2.93406E+04  1.55030E+04 -3.40733E+04 -7.04975E+03 -2.19580E+04 -2.31071E+04
 -1.40468E+04 -2.75562E+04  5.35610E+03 -2.32597E+04  2.43728E+04 -1.80758E+04  1.91669E+04  9.51223E+03
  8.56348E+03  1.27835E+04 -1.23993E+04  1.23189E+04 -1.34973E+04  8.42103E+03 -1.12168E+04 -1.08937E+04
  2.28448E+03 -1.70999E+04  7.17571E+03 -1.10289E+04  1.05165E+04 -2.14280E+03  3.66045E+03  9.46592E+03
 -7.47742E+03  7.37178E+02 -6.42509E+03 -7.91997E+03 -7.39187E+02 -1.29616E+04  1.59504E+04 -1.34852E+04
  1.31922E+04 -8.44499E+03  1.65138E+04  6.44660E+03  1.36584E+04  1.54553E+04  6.66097E+03  1.73689E+04
  5.13732E+02  1.86272E+04 -1.85937E+04  1.17954E+04 -1.70559E+04  2.98129E+03 -1.18970E+04 -3.94046E+03
 -4.29449E+03 -1.04963E+04  1.80083E+03  5.95133E+03 -2.26773E+03  1.34040E+03 -5.45453E+03  2.99470E+03
 -1.03428E+04 -1.66149E+03 -1.35231E+04 -9.11364E+03 -1.54028E+03 -1.33066E+04  8.62947E+03 -1.58434E+04
  8.84837E+03 -1.65841E+03  5.72190E+03  4.77018E+00 -2.90716E+03  6.84138E+03  3.43722E+02  2.36399E+03
 -7.68246E+03 -8.42621E+03 -1.86545E+03 -9.72889E+03  5.32334E+03 -1.29161E+04  7.44405E+03 -9.49818E+03
  1.77488E+04 -1.31319E+03  1.27142E+04  6.43005E+03  6.43631E+03  1.41541E+04 -3.59691E+03  1.08361E+04
 -1.18946E+04  7.18002E+03 -5.41397E+03 -5.60473E+02  1.08754E+03 -4.07351E+03  6.93956E+03  1.60853E+02
  4.02516E+03  5.18653E+03 -1.53562E+03  1.05780E+04 -7.25062E+02  1.25331E+04 -1.08739E+04  1.48955E+03
 -4.40618E+03 -2.52360E+03 -2.40599E+03 -7.03360E+03  2.66933E+03 -1.17667E+03  7.52824E+03 -8.81917E+01
  1.89761E+03  6.57355E+03 -4.39824E+03  6.94564E+03 -6.86473E+03  4.34141E+03 -5.17906E+03 -4.69194E+03
 -1.01208E+03 -6.71140E+03 -4.51283E+03 -1.18020E+04  5.97324E+03 -7.63684E+03  9.60647E+03  5.37313E+03
  9.41603E+03  5.49429E+03 -2.39719E+03  8.42772E+03 -9.89117E+03  5.40577E+03 -2.03372E+03 -1.71952E+03
 -5.82717E+03 -1.13910E+04 -3.65672E+03 -9.04988E+03  3.06233E+03 -9.71520E+03  7.97157E+03 -4.29834E+03
  6.66950E+03 -4.31039E+03 -3.63594E+02  6.82726E+03 -4.63115E+03 -1.48115E+03  6.36180E+02 -1.45594E+03
  9.24743E+03 -3.59530E+03  1.25180E+04  3.50242E+03  1.22401E+04  1.42506E+03  7.20231E+03  1.41681E+04
 -6.31060E+03  1.17758E+04 -8.41108E+03  1.25021E+04 -1.44216E+04  2.49749E+03 -1.56933E+04 -4.39797E+03
 -1.10167E+04 -9.70240E+03  1.26647E+03 -6.64996E+03  3.56145E+03 -7.27925E+03  2.05935E+02  4.56550E+02
  1.97240E+02 -4.17467E+03  6.34856E+03 -6.08414E+03  1.27732E+03 -2.81530E+03  5.89248E+03  2.80881E+03
  6.90443E+03  4.54062E+02 -2.53890E+03  3.70354E+03 -2.04360E+03  9.21115E+03 -3.38142E+03  8.21208E+03
 -1.09218E+04  7.73289E+03 -1.95124E+03 -3.21262E+03 -4.25860E+03 -5.36420E+03  4.08482E+03 -7.98107E+03
  2.07558E+03 -2.28657E+03  1.15397E+04 -2.09941E+03  9.01276E+03  8.03530E+03  1.49745E+02  8.03244E+03
 -2.17045E+03  5.12167E+03 -7.91327E+03  3.19810E+03 -8.24650E+03  3.35921E+03  9.44133E+02  3.67170E+02
  3.00365E+03 -1.58949E+03  2.37781E+03  3.79138E+03 -2.88993E+03  2.35789E+03 -4.02721E+03 -5.34160E+03
 -4.74691E+03 -5.24752E+03  1.50769E+03 -1.18781E+03  2.17296E+03 -7.94668E+03  1.05787E+04 -4.54939E+03
  1.01434E+04  3.37790E+02  8.40137E+03  2.40177E+03 -1.62569E+03  4.82165E+03 -6.23532E+03 -1.76221E+02
 -4.52098E+03  5.78423E+02 -4.70876E+03 -6.11478E+03 -2.69548E+03 -4.52317E+03  1.69447E+03 -4.09651E+03
  5.40680E+02 -1.67089E+03  1.54268E+03 -1.65508E+03  2.61518E+03  2.94673E+03  4.06312E+03  3.98112E+03
  1.94244E+03 -1.76082E+00 -3.57187E+02 -2.93848E+03  2.01685E+03  1.91009E+02  2.53467E+03  3.75929E+03
  6.45993E+03  3.90455E+03 -3.61502E+03  9.78786E+03 -1.09785E+04  1.36057E+03 -1.03418E+04 -1.90124E+03
  2.75946E+02 -7.44811E+03  3.53551E+03 -9.42640E+03  1.33497E+03 -5.15582E+03  5.14316E+03 -2.69861E+03
  3.69024E+03  1.78350E+03  4.37694E+03  1.21492E+03 -3.71005E+03  6.01646E+02 -1.05359E+03 -2.80032E+03
 -2.92113E+03 -2.72233E+03  3.85329E+03 -3.99782E+03  3.25352E+03 -1.76800E+03  4.78456E+03  2.89918E+03
  4.49632E+01  2.52215E+03  2.93447E+03  4.95318E+03 -8.22545E+02  9.58377E+02  2.35292E+03  1.49493E+03
 -2.93774E+02 -2.72163E+03  7.30588E+03 -5.95893E+02 -3.76791E+03  2.21937E+03  6.24647E+00  5.77977E+03
 -5.57304E+02  1.23845E+03 -4.93724E+03 -2.76017E+03 -1.11178E+03 -5.73535E+03 -3.05024E+03 -7.01730E+03
  2.96472E+03  1.29570E+03  1.46386E+03  5.85880E+03  1.41583E+03  2.32489E+02 -2.87759E+03  3.59968E+02
 -2.74198E+02  7.98187E+02 -9.22318E+01 -3.53623E+03 -1.40625E+03 -6.80566E+03 -9.25679E+01 -3.19454E+03
  4.04686E+03 -8.46444E+03  7.01044E+03 -1.05298E+01  3.54095E+03 -5.79969E+02 -2.53744E+02  2.94080E+03
 -4.91846E+03 -1.65848E+03 -3.85054E+03  1.62056E+03  1.59257E+03 -4.03804E+03 -5.87953E+03 -3.53543E+03
  5.72347E+03  1.53361E+03  1.85270E+03  1.56860E+03 -2.35766E+03  4.48659E+03 -4.58908E+02  6.05893E+03
 -2.87790E+03 -1.16070E+03  2.02866E+01  2.68291E+03  1.32925E+03 -3.36479E+03 -3.87510E+03 -2.25856E+03
  4.44703E+03 -2.17600E+03 -9.04356E+02 -2.36940E+03  4.94685E+03  3.78741E+03 -9.10715E+02 -2.08920E+03
 -1.76921E+03  4.21046E+02 -6.11159E+02  7.59359E+01  1.39604E+03 -2.73529E+03 -8.27792E+03 -1.47874E+03
  1.14031E+03  4.53265E+03 -2.06454E+03 -7.46984E+02 -1.54135E+03  2.49712E+03 -2.48407E+03 -9.16167E+01
 -1.39881E+03 -7.14884E+03 -3.81478E+02 -7.87873E+03  3.19406E+02 -7.36882E+03  1.18304E+03 -2.05047E+03
  6.89979E+03  1.43362E+03  3.32260E+03 -1.12714E+03  2.68669E+03  5.43422E+03 -1.46896E+03  5.63325E+03
 -1.30266E+03  2.07644E+03  1.26078E+03 -4.55408E+02  2.06245E+03  2.58041E+03 -5.86676E+03 -3.49236E+02
 -7.45331E+03  7.52115E+03 -2.76359E+03 -4.02879E+03  1.74084E+03 -5.88780E+03  1.38698E+02 -3.87377E+01
  4.69293E+03 -2.04243E+03  9.94410E+02  4.95809E+03 -4.54646E+03  4.58001E+03  3.76776E+03  3.18900E+03
  3.85397E+02  6.13601E+03 -5.93865E+03  2.25487E+03 -8.91417E+03  3.27766E+03 -2.62582E+03 -3.74920E+03
 -4.17642E+03 -1.56226E+03  1.55097E+03 -3.19227E+03  4.21929E+03  1.23805E+01  3.78177E+03 -2.23082E+03
 -1.34704E+03  1.73293E+03  3.27511E+03  3.54072E+03  1.47206E+03 -1.45311E+03 -7.21533E+02 -2.02455E+02
  1.99255E+03 -1.05264E+02  5.20217E+03 -3.88985E+03 -3.59683E+02 -6.99378E+02  4.35535E+03  1.44064E+03
  2.16777E+02  9.68295E+03 -6.24804E+03  2.75273E+03 -6.21639E+02  2.72221E+03  1.78257E+03 -2.76447E+03
  3.44754E+03 -5.02510E+02  5.43770E+03 -8.18837E+02  3.75457E+03 -1.93363E+03  2.77980E+03  6.68539E+02
  5.54856E+03  1.41901E+03  2.14917E+03  7.84142E+02  4.93785E+03  1.48036E+03 -3.23909E+03 -3.67700E+03
 -2.52749E+03 -9.38397E+03  3.02139E+02  5.05481E+02 -1.75446E+03  3.08002E+02 -1.54463E+03  9.99817E+02
 -2.76038E+03 -2.14122E+03 -4.05479E+03 -1.65281E+03 -4.47047E+03 -2.42791E+01  1.53742E+03 -2.37093E+03
  5.43173E+03  2.77192E+03  2.51237E+02  1.77526E+03 -9.24749E+02  5.23450E+02 -2.63680E+03 -9.10034E+02
