 $NMID ID='MM_0lb_SNR50_15hz_g45_49.RAW', FMTDAT='(8E13.5)'
 TRAMP=1., VOLUME=1. $END
  3.12820E+05  9.20155E+02  3.39546E+05  2.48755E+05  8.15771E+04  3.40123E+05 -1.36483E+05  2.49185E+05
 -1.91207E+05  8.12025E+04 -1.11515E+05 -3.11288E+04 -1.19471E+03 -5.07770E+04  5.70086E+04 -3.70370E+03
  4.35544E+04  4.77432E+04 -2.02171E+04  7.50474E+04 -6.10137E+04  6.26506E+04 -8.31135E+04  3.16425E+04
 -7.90893E+04 -9.77864E+03 -6.04101E+04 -4.83217E+04 -1.26500E+04 -6.89612E+04  2.67110E+04 -4.35997E+04
  3.81381E+04  3.23087E+03  1.58405E+04  4.50673E+04 -3.26222E+04  4.70330E+04 -6.52933E+04 -3.11522E+03
 -5.30541E+04 -5.36889E+04 -8.60884E+03 -7.76622E+04  3.57254E+04 -5.44909E+04  4.44914E+04 -1.40028E+04
  4.32518E+04  9.29922E+03  2.92627E+04  2.30888E+04  1.60228E+04  3.07236E+04 -4.50503E+03  2.25762E+04
 -2.51293E+04  9.53156E+03 -1.69662E+04 -7.64706E+02  4.32641E+03 -7.03605E+03  1.97827E+04  1.20081E+04
  5.01162E+03  3.35894E+04 -3.20311E+04  3.42452E+04 -6.34382E+04  3.48584E+03 -5.32460E+04 -3.97929E+04
 -9.59039E+03 -6.29125E+04  3.46020E+04 -4.74000E+04  6.09906E+04 -1.35783E+03  3.28732E+04  3.48364E+04
 -9.54801E+03  3.66402E+04 -2.89338E+04  1.28727E+04 -2.92121E+04 -7.08785E+03 -1.86604E+04 -8.49918E+03
 -4.55572E+03 -1.65296E+04 -6.52215E+03 -1.33577E+04  6.90925E+03 -2.38088E+04  1.59689E+04 -1.13392E+04
  1.24837E+04  2.46812E+03 -4.53121E+03  1.11488E+04 -1.89933E+04 -1.40893E+03 -2.38872E+03 -3.52711E+04
  2.22344E+04 -4.34618E+04  4.46048E+04 -1.99093E+04  5.11237E+04  1.58409E+04  1.37275E+04  4.31997E+04
 -2.02592E+04  3.39283E+04 -2.35886E+04 -3.31234E+02 -7.30017E+03 -2.77582E+04  2.12233E+04 -3.19832E+04
  3.71764E+04 -8.59890E+03  3.61078E+04  2.15646E+04  1.75296E+04  5.05292E+04 -1.15413E+04  4.99263E+04
 -3.20037E+04  3.32709E+04 -4.18987E+04  1.06093E+04 -3.97430E+04 -1.80068E+04 -2.11228E+04 -3.89915E+04
  1.30058E+04 -3.98065E+04  3.61189E+04 -1.50264E+04  2.29792E+04  6.84093E+03  1.43702E+03  1.77978E+04
 -1.64786E+04  9.39954E+03 -1.25872E+04 -8.76418E+03  6.28824E+03 -9.22487E+03  1.31067E+04  6.82145E+03
  1.08286E+04  2.00021E+04 -1.86432E+03  2.53730E+04 -2.26554E+04  1.65263E+04 -2.45769E+04 -6.11100E+03
 -2.09056E+04 -1.79065E+04 -8.33495E+03 -1.78838E+04  5.48674E+03 -1.42773E+04  1.31277E+04 -1.89035E+04
  2.33172E+04 -1.53156E+04  3.28339E+04 -6.65093E+02  1.86965E+04  1.58664E+04  3.78105E+02  3.37705E+04
 -1.54388E+04  3.17464E+04 -2.31201E+04  6.71556E+03 -2.51276E+04 -1.05012E+04 -5.73834E+03 -1.19885E+04
  2.49908E+02  1.13867E+03 -1.80474E+03  1.28337E+04 -1.49227E+04  8.76616E+03 -1.53518E+04 -1.00486E+04
 -8.71778E+03 -2.06464E+04  8.20660E+03 -2.32495E+04  1.22595E+04 -1.93622E+04  1.62935E+04  2.35352E+03
  1.01014E+04  9.60347E+03 -1.17184E+03  1.96279E+04 -1.60752E+04  8.89974E+03 -2.01293E+04 -2.63148E+03
 -7.47652E+03 -1.47930E+04 -2.03135E+03 -1.79421E+04  9.47287E+03 -1.76182E+04  1.88887E+04 -1.11989E+04
  1.79834E+04 -4.04767E+02  7.39744E+03  1.25614E+03  5.39867E+03  2.77185E+03  1.34813E+04  2.71466E+02
  1.46333E+04  1.64126E+03  1.63005E+04  1.46788E+04  1.37125E+04  2.77848E+04 -7.88481E+03  3.43677E+04
 -1.80126E+04  2.47395E+04 -2.97121E+04  1.47585E+04 -2.92788E+04 -1.36894E+03 -2.44354E+04 -1.74917E+04
 -1.42146E+04 -2.33943E+04  1.01238E+04 -2.51578E+04  2.00843E+04 -1.56943E+04  1.67342E+04  5.54099E+03
  9.00093E+03  9.99894E+03 -6.78366E+03  1.24411E+04 -1.65332E+04  8.96559E+02 -1.29095E+04 -1.07790E+04
  3.65427E+03 -1.21912E+04  8.07301E+03 -8.08245E+03  9.97069E+03 -2.05216E+03  4.18703E+03  6.45683E+03
 -1.04176E+04 -4.37061E+01 -7.67678E+03 -3.74938E+03  1.91696E+03 -6.43884E+03  1.37583E+04 -1.43965E+04
  1.61155E+04 -6.16707E+03  1.84065E+04  2.74757E+03  1.41388E+04  1.65089E+04  9.66897E+03  1.99621E+04
 -4.23247E+03  1.99480E+04 -1.09201E+04  1.25369E+04 -1.26776E+04  2.22699E+03 -7.61794E+03 -4.36543E+03
 -5.35370E+03 -6.23277E+03 -3.25536E+03  3.81000E+02 -6.95558E+03  2.93992E+03 -1.79833E+03  4.41728E+03
 -5.89889E+03 -1.88881E+03 -3.81452E+03 -8.83818E+03 -5.88378E+03 -1.71489E+04  3.33641E+03 -9.86158E+03
  8.58392E+03 -5.32669E+03  5.93735E+03  2.24503E+03  2.83427E+03  7.48071E+02 -6.75412E+03  1.63681E+03
 -4.24008E+03 -9.40109E+03 -1.45029E+03 -1.16340E+04  3.42916E+03 -1.21932E+04  1.68716E+04 -2.56227E+03
  1.50944E+04  4.78409E+02  7.00649E+03  8.35973E+03  3.40781E+03  1.21043E+04 -4.58733E+03  1.20498E+04
 -4.45098E+03  2.52789E+03 -6.71216E+03 -5.43873E+03  2.55901E+03  5.42971E+02  4.67154E+03 -2.61798E+03
  2.09285E+03  4.00488E+03  1.63441E+03  1.23218E+04 -1.43447E+03  1.21936E+04 -9.10519E+03  5.33635E+03
 -6.54813E+03 -8.55380E+03 -1.25397E+03 -4.05188E+03  6.70684E+03 -7.64661E+03  1.37898E+03 -5.56094E+03
  4.87088E+02  6.06127E+03 -1.68689E+03  7.75396E+03 -6.91549E+03  4.26533E+03 -1.15641E+04 -1.10605E+03
 -9.77490E+03 -6.14073E+03  1.56148E+03 -1.07240E+04  9.48096E+03 -6.08130E+03  1.06270E+04  3.49706E+03
  5.64617E+03  6.27116E+03 -3.34457E+03  1.10582E+04 -6.93913E+03  4.59051E+03 -7.31676E+03  2.87710E+03
 -8.53189E+03 -8.04709E+03 -1.57795E+02 -8.22535E+03  4.32315E+03 -3.97042E+03  4.89008E+03 -7.13515E+03
  5.21547E+03  1.37045E+03 -1.09091E+02  1.04721E+03 -1.28708E+03  1.41174E+03 -3.09856E+03 -5.54761E+03
  6.87097E+03 -2.66870E+03  1.10514E+04 -2.77987E+03  7.50675E+03  4.83540E+03  6.98133E+03  9.91363E+03
 -1.30779E+03  8.92018E+03 -9.02574E+03  5.45658E+03 -1.15102E+04 -1.05111E+03 -1.17307E+04 -5.95190E+03
 -7.15128E+03 -9.08909E+03 -1.33144E+03 -5.23762E+03  2.80902E+02 -1.12443E+03  4.46146E+03  1.28950E+03
  4.05245E+02 -5.62035E+03  2.56833E+03 -4.39953E+03  3.81448E+03 -2.37705E+03  1.42246E+02 -3.81844E+03
  4.24675E+03  6.75108E+03  2.07613E+03  5.31898E+03 -1.49411E+03  7.10240E+03 -4.51147E+03  1.14394E+04
 -6.39026E+03  2.78796E+03 -2.39097E+03 -6.29736E+03 -8.37170E+02 -8.63978E+03  6.16160E+03 -4.92697E+03
  5.84969E+03 -4.18237E+03  1.02837E+04 -1.51581E+01  1.05280E+04  9.21462E+03  2.37448E+02  1.08636E+04
 -4.63947E+03  8.69333E+03  1.35739E+03  1.27823E+03 -2.34076E+03  1.02069E+03  1.35695E+03 -1.85797E+03
 -2.13710E+03  7.24091E+03 -5.42327E+03  2.12754E+03 -3.15919E+03 -6.80122E+02 -4.12160E+03 -9.97029E+02
 -4.61749E+03 -2.14171E+03  2.92727E+03 -7.33722E+03  6.52683E+02 -8.60421E+03  8.39203E+03 -1.21857E+03
  5.25030E+03  7.53003E+03  5.64572E+03  8.94219E+03  4.39269E+03  6.89877E+03  2.26775E+02 -2.30928E+02
 -1.04595E+04 -1.08956E+03 -4.15765E+03 -3.13649E+03  2.58509E+03 -4.54361E+03  2.39748E+03 -2.82654E+03
  3.36743E+03  3.50842E+02  4.27508E+03  4.13339E+03 -1.79344E+03  2.87841E+03  2.64652E+03  1.05576E+03
 -3.79198E+02  4.87853E+03  4.14820E+03  1.05034E+03  2.36147E+03  2.84927E+03  6.66741E+02  5.79034E+03
 -4.24818E+03  2.84610E+03 -5.11015E+03  6.25180E+03 -7.88899E+03  8.44430E+02 -6.52496E+03 -3.14698E+03
 -3.93033E+03 -2.47017E+03  5.54941E+03 -8.00075E+03  4.94853E+03 -4.49481E+03  6.46331E+03 -2.20955E+03
  1.15148E+03  4.43356E+03 -1.19494E+03 -4.01916E+02 -8.35427E+03  1.57397E+03 -1.81061E+03 -8.78667E+02
  3.12741E+02 -5.53181E+03  9.47570E+02 -2.90460E+03  2.83530E+03 -8.82703E+02  2.23689E+03 -1.48388E+03
  5.53278E+03  1.72546E+03  4.24909E+03 -2.37643E+03 -4.53814E+03  4.42498E+03 -1.00681E+01 -9.71507E+02
  3.63896E+03 -1.21709E+03  2.27633E+03  1.59724E+03  5.67271E+03  3.19662E+03  3.21604E+03  7.71162E+03
 -4.35956E+03 -4.05315E+02 -3.46532E+03 -1.88248E+03 -3.32237E+03 -2.32257E+03  1.97275E+02 -1.97181E+03
  4.77258E+02 -8.39028E+02  3.54175E+03 -1.19601E+03 -3.00672E+03 -2.70098E+03  1.78555E+03  3.03196E+03
 -5.74938E+03  2.46124E+03 -3.39269E+03 -5.48324E+03 -8.21643E+02 -7.22203E+03  9.67062E+02 -2.32822E+03
 -1.04604E+03 -5.90572E+02  1.20713E+03  4.64684E+03  1.30193E+03  3.08985E+03 -1.52371E+03 -9.43473E+02
  2.74851E+03 -3.09796E+02 -6.21509E+03  2.09435E+03 -1.58080E+03 -3.23918E+03 -3.46576E+02  7.23930E+02
  2.85889E+03  1.62429E+03  7.22716E+03  3.62750E+03  4.96817E+03 -8.95880E+02 -4.61265E+03 -2.20199E+03
 -4.04261E+03  2.64194E+03  1.40179E+03 -2.23945E+03  1.19254E+03 -1.72938E+03 -1.93563E+03 -1.07227E+03
  1.89542E+03 -2.05303E+03  8.61811E+03  1.87465E+03 -3.51145E+03  5.63512E+03  1.72935E+03  2.59099E+03
 -1.76324E+02  1.90528E+03 -4.74007E+03  5.93744E+02 -8.69896E+03 -2.30686E+03 -6.39907E+03 -2.66913E+03
  5.40906E+03  1.43824E+03 -2.32070E+02  2.15941E+03 -2.06632E+03  1.04796E+02 -6.99428E+03  4.58781E+03
 -6.86611E+02 -1.31655E+03 -1.15173E+03 -7.18513E+03  1.57546E+03 -5.35211E+03  6.50271E+03 -4.80329E+03
  7.22256E+03  2.50892E+03 -4.28227E+02  2.21992E+03 -2.15725E+02  1.54562E+03 -3.18743E+03  7.86641E+03
 -9.98188E+02  3.83330E+03  1.52859E+03 -2.31476E+03 -1.05425E+03  8.51475E+02  2.04492E+03  1.53170E+03
 -2.45400E+03 -2.28485E+03 -5.13612E+02  1.30999E+03 -4.54527E+02 -1.43131E+03 -3.25733E+02  4.33122E+03
  2.29528E+03  5.16256E+02  7.57670E+02  2.37065E+03 -2.80528E+03  7.86925E+02  1.10715E+03  4.27585E+03
 -3.40509E+03  2.35093E+03 -2.19807E+03  1.32918E+03 -1.01246E+04  4.01669E+03 -4.37233E+03 -7.41010E+03
 -1.00958E+03 -5.94429E+03 -1.35729E+03 -2.97649E+03  5.32747E+02 -1.77031E+03  1.96318E+03 -3.61297E+03
  1.70214E+03 -4.81134E+03 -2.00490E+03  3.65780E+03  5.00729E+03 -1.46126E+03 -2.52292E+03 -6.60893E+02
  1.25578E+03 -7.42705E+02  2.72035E+03  5.56921E+03  6.03575E+03  2.75174E+03  4.32673E+03  3.88319E+03
 -3.95275E+03  2.90096E+03  4.55415E+03  3.36115E+03 -1.17447E+03 -1.47505E+03 -4.60659E+03 -4.12741E+03
  2.23407E+03 -4.22988E+03  8.44845E+02 -1.90602E+03 -1.40080E+03 -3.18668E+03  1.27911E+03  5.07082E+02
  5.36060E+03  3.80824E+03 -1.09665E+03  6.77091E+03 -1.32168E+03 -7.80098E+02 -4.53643E+03 -2.85785E+03
  3.59021E+03 -8.39912E+02  2.00255E+03  2.19497E+02 -1.69835E+02  1.35515E+03 -7.84262E+03  2.44769E+03
 -9.08684E+02 -1.13593E+02 -1.42951E+03 -4.64047E+03  4.30736E+03 -5.48900E+02  4.08652E+03 -1.45139E+03
  2.31740E+03  3.63224E+03  2.99797E+03 -1.42543E+03 -2.15259E+03  2.48307E+03  1.26514E+03 -8.61382E+02
