 $NMID ID='MM_0lb_SNR50_7hz_g45_27.RAW', FMTDAT='(8E13.5)'
 TRAMP=1., VOLUME=1. $END
  3.15422E+05  1.08786E+03  3.40421E+05  2.51622E+05  8.00739E+04  3.37366E+05 -1.24572E+05  2.51315E+05
 -1.90511E+05  7.17741E+04 -1.09534E+05 -3.76037E+04  2.09027E+03 -5.21426E+04  5.68498E+04 -8.62478E+03
  3.75597E+04  5.64109E+04 -1.44246E+04  7.60523E+04 -6.72802E+04  5.95085E+04 -9.20483E+04  2.71462E+04
 -8.53074E+04 -4.06550E+03 -6.00095E+04 -5.50445E+04 -7.55727E+03 -7.49470E+04  3.53618E+04 -4.10502E+04
  4.19664E+04  6.09941E+03  1.64155E+04  4.03322E+04 -3.89561E+04  4.78675E+04 -6.64564E+04  1.23789E+03
 -6.04005E+04 -6.26960E+04 -9.32494E+03 -8.11167E+04  3.20674E+04 -5.37332E+04  5.09671E+04 -2.24277E+04
  4.45437E+04  1.26830E+04  3.32466E+04  2.43633E+04  1.29443E+04  2.70882E+04 -1.08505E+04  1.95182E+04
 -2.73422E+04  1.27660E+04 -1.84373E+04  4.27958E+03  7.08595E+03 -7.60916E+03  3.18821E+04  6.86228E+03
  6.37063E+03  3.45701E+04 -2.36560E+04  3.79770E+04 -6.40029E+04 -1.65681E+03 -5.97056E+04 -4.49352E+04
 -7.83567E+03 -6.80914E+04  3.57134E+04 -4.79813E+04  6.66707E+04  1.31075E+04  3.70386E+04  3.76857E+04
 -1.11550E+04  3.49714E+04 -3.61237E+04  1.29910E+04 -3.97355E+04 -6.89376E+03 -2.44370E+04 -2.90157E+03
 -1.33760E+04 -7.65004E+03  5.14329E+02 -1.78518E+04  7.66953E+03 -2.39669E+04  1.55818E+04 -1.29355E+04
  1.45556E+04  5.78284E+03 -1.10350E+04  6.53389E+03 -2.48385E+04  3.46730E+02 -8.52875E+03 -3.83708E+04
  2.45651E+04 -5.02928E+04  5.22899E+04 -1.73819E+04  4.82125E+04  1.68774E+04  2.29188E+04  4.65672E+04
 -2.12121E+04  3.15197E+04 -2.45841E+04 -3.53913E+03 -1.75654E+04 -3.84943E+04  1.71738E+04 -3.95089E+04
  4.71725E+04 -9.23864E+03  3.82854E+04  2.18340E+04  3.48051E+04  4.60297E+04 -5.90830E+03  6.09461E+04
 -3.65825E+04  4.13726E+04 -4.61757E+04  9.21593E+03 -4.65079E+04 -2.43822E+04 -2.40176E+04 -4.65778E+04
  9.20475E+03 -4.30649E+04  3.64379E+04 -1.90631E+04  3.64088E+04  1.33498E+04  7.88739E+03  2.57004E+04
 -1.73944E+04  1.28400E+04 -1.55242E+04 -3.31335E+03  1.79096E+03 -1.46860E+04  1.33911E+04  8.76551E+03
  1.32959E+04  2.61104E+04 -6.73081E+03  3.08958E+04 -2.82465E+04  1.57119E+04 -3.28585E+04  4.52291E+02
 -2.97273E+04 -1.71770E+04 -1.41226E+04 -2.59334E+04  1.49491E+03 -3.27703E+04  1.04464E+04 -2.10782E+04
  3.26256E+04 -1.16580E+04  4.47832E+04  5.58888E+03  3.07916E+04  2.58460E+04  5.89995E+03  3.66657E+04
 -2.55909E+04  2.71827E+04 -3.16322E+04  1.04427E+04 -2.69309E+04 -6.35458E+03  1.59766E+03 -1.54097E+04
  3.57015E+03 -8.91919E+03 -9.66150E+03  1.02681E+04 -1.81034E+04  5.89394E+03 -2.09179E+04 -1.62327E+04
 -6.07781E+03 -1.78886E+04  8.72426E+03 -3.13011E+04  1.80751E+04 -2.20689E+04  2.58721E+04 -4.56607E+03
  1.24939E+04  1.05199E+04 -2.86130E+03  2.40882E+04 -2.32031E+04  1.67300E+04 -2.30167E+04 -5.77023E+03
 -1.77815E+04 -2.20604E+04 -6.38526E+03 -3.52048E+04  1.88605E+04 -2.07535E+04  2.16623E+04 -1.34541E+04
  1.93703E+04 -5.87431E+02  1.30662E+04  3.87189E+03  1.11883E+04  1.13050E+04  8.63678E+03  4.06627E+02
  2.67295E+04  1.91495E+03  2.81516E+04  2.33872E+04  1.74612E+04  4.05657E+04 -1.50577E+03  4.49131E+04
 -2.77545E+04  5.17066E+04 -4.32199E+04  1.86004E+04 -5.26276E+04 -5.40045E+03 -3.89514E+04 -2.78253E+04
 -1.62832E+04 -4.20031E+04  1.70420E+04 -3.42019E+04  3.20573E+04 -1.69948E+04  3.23376E+04  2.81104E+03
  1.95807E+04  1.81861E+04 -1.73171E+04  1.84916E+04 -2.01864E+04  1.63248E+03 -2.07047E+04 -9.42367E+03
  8.40092E+01 -2.12179E+04  1.47881E+04 -1.61940E+04  1.31819E+04 -2.77785E+03  5.10861E+03  9.99512E+03
 -6.49993E+03  8.97206E+03 -1.78760E+04 -1.29687E+04 -9.74258E+03 -2.20914E+04  1.08927E+04 -1.87689E+04
  3.09900E+04 -8.70200E+03  3.11224E+04  1.74818E+03  2.72994E+04  1.85922E+04  1.30515E+04  3.69871E+04
 -4.85145E+03  3.57726E+04 -1.56518E+04  2.03333E+04 -2.64500E+04  9.69249E+03 -9.92152E+03 -5.69798E+03
 -7.82715E+03 -3.23440E+03  5.22324E+03 -1.75635E+03 -3.95316E+03  4.23194E+03 -2.85474E+03  4.00033E+03
 -1.77726E+04 -1.89452E+03 -2.81432E+04 -1.07890E+04 -1.24348E+04 -2.06317E+04  1.15883E+04 -1.68854E+04
  1.62229E+04 -5.11944E+03  1.27201E+04  1.20835E+04  3.00485E+03  9.96404E+03 -3.67026E+03 -2.41237E+03
 -7.39965E+03 -1.78230E+04 -7.25033E+03 -1.72008E+04  1.42735E+04 -1.65485E+04  1.83410E+04 -7.78617E+03
  2.79653E+04  7.10034E+03  1.91715E+04  1.62401E+04 -2.93390E+03  2.02420E+04 -3.88353E+03  1.05704E+04
 -1.16144E+04  5.67978E+03 -5.38529E+03 -3.90511E+02 -7.27746E+01 -3.76802E+03  7.19334E+03 -2.28419E+03
  1.85548E+04  6.49315E+03 -3.23268E+03  1.72964E+04 -4.60842E+03  1.21111E+04 -1.75914E+04 -7.08753E+03
 -7.42752E+03 -2.61496E+03  1.95824E+03 -1.59841E+04  9.90738E+03 -1.15487E+04  1.12145E+04 -4.54344E+03
  1.29750E+04  8.29362E+03 -1.59455E+04  1.85740E+04 -1.05030E+04  5.26490E+03 -2.04988E+04 -5.60064E+03
 -1.10557E+04 -1.61046E+04  7.86795E+03 -2.10567E+04  1.47957E+04 -9.76379E+03  1.17462E+04  6.01515E+03
  7.25480E+03  1.88295E+04  3.45694E+03  1.21224E+04 -1.38024E+04  9.61675E+03 -9.93791E+03 -9.69482E+03
 -1.35064E+04 -4.47243E+03  2.14343E+03 -7.55054E+03  1.28669E+04 -9.30662E+03  1.19831E+04 -9.59960E+03
  4.39696E+02  5.32762E+03 -1.27376E+04  5.83623E+03 -4.64406E+03  2.20467E+03  9.57978E+03 -1.89982E+04
  1.22645E+04 -8.96033E+03  2.21252E+04 -2.31926E+03  1.59956E+04  1.10453E+04  1.30042E+04  1.94257E+04
 -1.24631E+04  3.35205E+04 -3.20070E+04  1.72172E+04 -3.04658E+04  5.92150E+03 -2.77643E+04 -1.16085E+04
 -6.96986E+03 -2.40140E+04 -7.56196E+03 -1.56840E+04  2.75486E+03 -2.91578E+03  4.22077E+03 -1.29951E+04
  7.69876E+03 -3.91214E+02  3.76508E+03 -8.79882E+03  6.18473E+03 -6.91455E+02  1.45275E+04 -1.66229E+01
  8.44651E+03  8.39385E+02  1.52255E+04  1.31748E+04 -4.55261E+03  1.03599E+04 -1.10123E+04  1.83299E+04
 -2.25313E+04  1.14111E+03 -1.93268E+04 -1.35854E+04 -5.50365E+03 -1.31490E+04  6.55897E+03 -1.61103E+04
  2.32783E+04 -7.20705E+03  1.98497E+04  5.59090E+03  1.40931E+04  1.25126E+04 -2.08371E+03  2.05955E+04
 -1.71914E+03  2.40877E+04 -1.41650E+04  7.30725E+03 -7.75923E+03 -8.48948E+02 -1.10554E+04  9.19141E+03
 -2.27747E+03 -1.41563E+03 -2.58301E+03  5.03912E+03 -9.77429E+03 -2.89211E+03 -1.42089E+04 -4.45810E+03
 -6.90264E+03 -1.56298E+04 -6.37622E+02 -1.83628E+04  9.76267E+03 -1.00134E+04  2.31999E+04 -4.84814E+03
  1.92332E+04  1.30829E+04  1.44687E+04  1.53202E+04 -4.07705E+03  1.96564E+04 -1.52839E+04  1.61093E+04
 -1.72443E+04  1.54775E+03 -1.46307E+04 -1.48044E+04 -6.08725E+03 -5.92217E+03  9.86917E+03 -1.08148E+04
  1.67281E+04 -7.55693E+03  1.06726E+04  8.35847E+03  4.40814E+03  1.50740E+03 -3.60688E+02 -2.31731E+03
  2.02992E+03  4.36583E+03  3.47780E+03  3.28296E+03  3.76320E+03  9.62213E+03  1.11284E+04  4.42391E+03
 -2.50295E+03  1.51254E+04 -1.54998E+04  1.14821E+04 -1.84518E+04  5.95441E+02 -2.03068E+04 -6.46676E+03
 -1.71485E+04 -1.73218E+04 -8.08079E+03 -2.63705E+04  1.26796E+04 -1.87516E+04  1.67057E+04 -3.99528E+03
  1.34111E+04  5.41307E+03  5.96683E+03  1.45521E+04 -6.37540E+03  4.10689E+03 -9.17521E+03  3.24389E+03
  2.02399E+03 -1.83401E+04  1.05680E+03 -7.55040E+03  4.94512E+03 -3.75690E+03 -2.79523E+02  2.33913E+03
 -4.49538E+03  8.18904E+03 -1.54229E+03  7.21913E+03 -1.54031E+03  3.17621E+03  6.71773E+03 -6.68110E+03
 -2.42989E+03  5.40616E+03  9.09211E+03  7.27097E+03  5.99686E+03  6.72167E+03  5.76590E+03  1.96580E+04
 -1.15621E+04  1.20823E+04 -1.18055E+04  2.39643E+03 -1.76820E+04 -3.61312E+03 -1.15717E+04 -8.69793E+03
  3.49115E+03 -6.61451E+03 -2.69785E+03 -9.10688E+02  1.13402E+04 -1.30369E+03  5.28152E+02  4.07472E+01
 -6.34360E+03  5.95838E+03 -1.06962E+04 -1.32365E+03 -1.63623E+03 -6.11319E+03  6.84045E+03 -1.40665E+04
  1.27763E+04 -5.09258E+03  1.11187E+04 -4.91495E+02  8.01610E+03  6.70438E+02  3.51141E+02  2.71818E+03
 -1.69126E+03 -4.13573E+03 -9.27326E+03 -4.58020E+03 -1.84403E+03 -1.57247E+04  9.97578E+03 -9.94337E+03
  8.77417E+03  8.18979E+03  6.79430E+03  3.73110E+03  5.62534E+03  1.20071E+04 -5.32377E+03  1.72819E+04
 -6.71048E+03  1.24808E+04 -6.79135E+03 -9.59603E+02 -7.31434E+03 -1.63075E+04  6.68036E+03 -3.04573E+03
  8.07994E+03 -8.77933E+03  8.73131E+03  7.83059E+03  5.50259E+03  1.51470E+04  1.24214E+03  2.72830E+03
 -6.26160E+03 -1.05617E+03 -6.68182E+03 -4.44739E+03 -4.94357E+03 -4.33779E+02  2.85657E+03  4.92384E+03
  1.75982E+03  6.60307E+03 -6.47926E+03  4.70838E+03 -1.46096E+04 -3.97796E+03 -1.95194E+04 -5.56041E+03
 -1.28678E+04 -9.10299E+03 -7.26658E+03 -2.93875E+04  1.14485E+04 -1.86519E+04  1.64086E+04  2.10187E+03
  1.15944E+04  1.42712E+04  7.08783E+03  1.47537E+04  6.41182E+03  9.98689E+03 -5.91005E+03  7.03778E+03
 -3.97294E+03  1.44345E+03 -9.12987E+03  8.16353E+01 -4.28076E+03 -3.65115E+03 -1.10379E+03 -1.14786E+02
  2.05568E+03 -3.83648E+02 -4.48620E+03  1.55060E+03 -9.33270E+02 -2.08512E+03 -1.50990E+03 -5.43391E+03
  6.12877E+03 -1.93401E+03  9.29952E+03 -1.42456E+03  4.18639E+03  1.08290E+04 -6.03139E+03  1.95804E+04
 -6.38093E+02  5.35456E+03 -1.10428E+04  1.32822E+04 -1.63600E+04 -3.60382E+03 -1.72597E+04 -1.07918E+04
 -2.13320E+03 -1.21924E+04 -9.16192E+02 -1.31009E+04  7.66934E+03 -1.13676E+04  9.66862E+03  4.14485E+03
  3.92908E+03  3.65774E+03  1.33954E+03  6.40897E+03 -3.09885E+03 -5.62150E+03  6.97198E+01 -4.33870E+03
  5.31811E+03 -2.03422E+03  1.18181E+04 -2.06640E+03  8.29073E+03  6.09180E+03  6.24284E+03  1.62542E+04
 -4.92892E+03  6.30851E+03 -9.93034E+03  2.57395E+03 -1.69753E+04  1.57198E+03 -9.57629E+03 -2.06323E+04
  4.97419E+03 -1.60497E+04  1.48716E+04  3.27619E+03  1.13445E+04  7.20115E+03  5.80691E+02  1.26705E+04
 -2.25319E+03  1.26731E+04 -1.74191E+03  9.51463E+03 -8.45768E+03 -1.46237E+03 -8.79647E+03  4.41295E+02
  4.73537E+03  9.09203E+02 -1.84697E+03 -3.14612E+03 -1.14439E+04 -4.89656E+03 -1.16555E+04 -4.62639E+03
 -4.98001E+03 -4.95400E+03 -7.81260E+03 -9.86926E+03  3.61262E+03 -9.07658E+03  5.79385E+03 -5.10142E+03
  1.93999E+04  6.23507E+03  5.93244E+03  8.41932E+03 -2.45081E+03  1.07532E+04 -1.21214E+04  2.16658E+03
