 $NMID ID='MM_0lb_SNR50_18hz_g40_29.RAW', FMTDAT='(8E13.5)'
 TRAMP=1., VOLUME=1. $END
  3.09970E+05  1.63213E+02  3.37292E+05  2.47955E+05  8.54615E+04  3.37860E+05 -1.31397E+05  2.45140E+05
 -1.86951E+05  8.00788E+04 -1.10551E+05 -3.35597E+04  3.46014E+03 -5.19694E+04  5.48456E+04 -2.82652E+03
  3.27058E+04  4.92453E+04 -1.89661E+04  7.51639E+04 -6.27540E+04  6.72185E+04 -8.32119E+04  3.27892E+04
 -7.86524E+04 -1.20590E+04 -5.03396E+04 -4.72636E+04 -1.55761E+04 -6.57798E+04  2.26801E+04 -4.22513E+04
  3.90282E+04  7.61840E+03  1.53959E+04  4.60202E+04 -2.94016E+04  4.45711E+04 -6.58514E+04 -4.80050E+02
 -5.03151E+04 -5.55366E+04 -4.66789E+03 -7.64227E+04  3.64207E+04 -5.06928E+04  4.40344E+04 -1.76342E+04
  4.32890E+04  1.35037E+04  3.03342E+04  2.51922E+04  1.74539E+04  3.51981E+04 -6.11851E+03  2.80340E+04
 -2.09047E+04  8.69243E+03 -1.91191E+04 -7.01304E+03  4.76527E+03 -6.34541E+03  2.40625E+04  9.86665E+03
  7.38849E+03  3.65176E+04 -2.92365E+04  3.25170E+04 -5.98674E+04  5.09417E+03 -5.55002E+04 -3.64634E+04
 -1.39583E+04 -5.99520E+04  3.63108E+04 -4.46961E+04  5.87136E+04  4.63797E+02  3.30660E+04  3.29718E+04
 -3.23938E+03  3.21632E+04 -2.79081E+04  1.28117E+04 -2.76874E+04 -2.89109E+03 -1.65606E+04 -1.24544E+04
 -7.18540E+03 -9.13925E+03 -9.18589E+02 -1.96961E+04  5.50125E+03 -2.31750E+04  1.67153E+04 -1.44572E+04
  1.09014E+04  3.55521E+03 -5.68550E+03  1.43657E+04 -2.05580E+04 -2.05434E+03 -4.03595E+03 -2.88331E+04
  2.30290E+04 -3.75860E+04  4.35791E+04 -1.59104E+04  4.18074E+04  1.71480E+04  1.63035E+04  3.90633E+04
 -1.78351E+04  3.07234E+04 -2.49848E+04  1.10233E+03 -1.04999E+04 -2.71680E+04  1.66004E+04 -3.09353E+04
  3.56714E+04 -7.02723E+03  3.17211E+04  2.12477E+04  1.70321E+04  4.56458E+04 -1.09111E+04  4.41585E+04
 -3.02508E+04  3.32098E+04 -3.55168E+04  1.00338E+04 -3.56534E+04 -1.47010E+04 -2.28657E+04 -3.11850E+04
  1.00357E+03 -3.49918E+04  2.89608E+04 -1.17225E+04  2.54391E+04  1.49885E+04  8.04321E+02  1.93905E+04
 -1.37562E+04  6.14313E+03 -4.18304E+03 -9.33047E+03  3.25505E+03 -5.57207E+03  1.39375E+04  6.71931E+03
  1.30899E+04  1.95400E+04 -5.07063E+03  2.38699E+04 -2.09868E+04  4.53274E+03 -2.11472E+04 -3.03243E+03
 -1.55496E+04 -1.62476E+04 -5.42109E+03 -1.60210E+04  3.96738E+03 -1.45878E+04  9.30570E+03 -1.49002E+04
  2.00301E+04 -9.39050E+03  2.98336E+04  5.77461E+03  1.59367E+04  2.17662E+04  1.45876E+03  3.47024E+04
 -1.45053E+04  2.54251E+04 -2.65299E+04  8.09705E+03 -2.39068E+04 -1.16468E+04 -1.11977E+03 -1.39886E+04
  7.50857E+02 -5.82264E+03  1.20771E+03  6.87133E+03 -1.43038E+04  6.44726E+03 -1.57047E+04 -6.01374E+03
 -7.42093E+03 -1.93588E+04  3.42254E+03 -1.84281E+04  1.53950E+04 -9.93480E+03  1.51495E+04  8.83256E+02
  6.79811E+03  7.71729E+03  7.55234E+02  1.51807E+04 -1.07112E+04  1.04294E+04 -1.33110E+04 -3.51496E+03
 -7.90568E+03 -1.43404E+04 -1.91122E+03 -1.94890E+04  8.25837E+03 -1.26732E+04  1.22380E+04 -8.91213E+03
  1.25556E+04  3.48293E+03  1.28053E+04  4.85697E+02  4.82322E+02 -1.29753E+03  1.01495E+04  2.49287E+03
  1.39596E+04  3.74283E+03  1.41108E+04  1.27388E+04  5.96636E+03  2.34411E+04 -4.15753E+03  2.64284E+04
 -1.56070E+04  1.78294E+04 -2.24046E+04  9.89769E+03 -2.50363E+04 -2.62236E+02 -2.46214E+04 -1.65322E+04
 -1.22273E+04 -2.13259E+04  4.48815E+03 -1.68045E+04  9.53744E+03 -1.06049E+04  1.60571E+04  1.78295E+03
  3.23214E+03  1.06906E+04 -5.94858E+03  1.20178E+04 -1.68555E+04  3.96431E+03 -8.62209E+03 -5.86641E+03
  1.68948E+03 -1.09863E+04  4.97980E+03 -7.43832E+03  7.87242E+03  6.14767E+03  1.89916E+00  6.10843E+03
 -3.27578E+03  1.55671E+03 -1.49422E+03 -5.60243E+03 -3.92658E+03 -1.33275E+04  6.64821E+03 -9.12145E+03
  9.50759E+03 -8.63848E+03  1.05093E+04  2.50650E+03  1.02536E+04  7.19787E+03  4.58509E+03  1.76274E+04
 -8.70998E+02  1.61844E+04 -1.07310E+04  1.59780E+04 -1.35507E+04  9.34711E+01 -1.19509E+04 -2.46979E+02
 -2.79088E+03 -3.43901E+03 -3.91197E+01  1.31964E+03  1.39809E+03  2.53965E+03 -5.65229E+03  4.98135E+03
 -8.30799E+03 -7.67333E+02 -1.49244E+04 -1.28359E+04 -5.89658E+03 -1.12117E+04  4.51553E+03 -4.39563E+03
  7.53543E+03 -4.46173E+03  4.04870E+03  8.25055E+00 -3.24958E+02  3.12638E+03 -6.50655E+03  5.48652E+02
 -7.47899E+03 -1.08102E+04  1.73653E+03 -4.43190E+03  5.19318E+03 -6.05501E+03  9.98740E+03 -3.69051E+03
  1.17678E+04  1.17231E+03  8.89276E+03  5.86330E+03  4.69313E+03  1.06392E+04 -6.49392E+03  6.39137E+03
 -3.55045E+03  6.59516E+02 -1.08425E+03 -4.71017E+03  2.49650E+03 -1.51459E+03  2.06294E+03 -3.20762E+03
  3.01003E+03  4.75190E+03 -2.63452E+02  8.31174E+03 -5.53204E+03  6.82729E+03 -9.81148E+03  5.93713E+02
 -3.20006E+03 -3.61351E+03 -1.17727E+03 -9.13478E+03  5.68550E+03 -6.68614E+03  1.85792E+03  3.47632E+03
 -2.74467E+03  5.77536E+03 -4.57357E+03  3.79719E+03 -6.28461E+03  4.83544E+03 -1.72282E+03 -3.04307E+03
 -4.12677E+03 -4.76411E+03  4.49822E+03 -9.46522E+03  7.25532E+03 -5.55697E+03  9.11223E+03  4.33829E+03
  5.55199E+03  7.66357E+03 -3.15225E+02  7.38787E+03 -9.02287E+03  5.67226E+03 -1.02705E+03 -4.66416E+03
 -5.35818E+03 -8.75994E+03 -3.14520E+03 -7.02698E+03  3.47757E+03 -2.46892E+03  1.64749E+03 -4.41712E+03
  6.33394E+03 -2.19819E+03 -5.06601E+03  1.78441E+02  4.17383E+03  1.28880E+03 -4.42922E+03 -2.42335E+03
  4.54093E+03  4.43090E+03  2.54413E+03 -2.51031E+03  5.23221E+03  4.49919E+03  3.55061E+03  9.79434E+03
 -4.79095E+03  5.96468E+03 -7.57962E+03  8.81900E+03 -1.12638E+04  2.19296E+03 -5.72843E+03  2.13964E+02
 -2.86319E+03 -9.40035E+03 -3.09869E+03 -1.55081E+03 -3.39168E+01 -4.65610E+03 -4.05439E+03 -2.26072E+03
  3.05123E+03 -1.72934E+03  3.81524E+03 -4.63964E+03 -2.92940E+02 -1.31933E+03  5.48459E+03  1.07805E+03
  3.45924E+03  1.39969E+03  6.78184E+03  9.28315E+02 -5.06198E+03  5.43457E+03 -2.09696E+03  5.06330E+03
 -6.12177E+03 -6.02104E+03 -2.06363E+02 -1.12114E+03  1.08385E+03 -8.19319E+03  1.01199E+03 -5.66885E+03
  9.08046E+02 -1.55657E+03  4.33824E+03  1.65365E+03  1.37544E+03  6.90683E+03 -1.96543E+03  8.63379E+03
 -2.71108E+03  5.40056E+03 -4.97072E+03  2.14201E+03 -1.72662E+01 -2.32403E+03 -8.74244E+02 -2.39097E+03
 -2.16472E+02  1.91728E+02 -1.06627E+03 -1.75489E+03 -4.12914E+03  7.74556E+02  1.07365E+02 -5.80099E+02
 -5.45739E+03 -2.28018E+03  3.78210E+03 -4.01487E+03  9.02543E+02 -1.79258E+03 -6.83359E+00 -3.41444E+03
  4.87190E+03  1.59907E+03  5.63964E+03  2.19819E+03  2.33941E+03  5.62843E+03 -1.69640E+02 -2.01592E+03
 -3.22490E+03 -1.20600E+03  1.94236E+03 -3.83152E+03 -1.01754E+03 -1.81815E+03  1.89110E+03 -2.24571E+03
  3.81401E+02  2.65588E+03  1.84734E+03  2.50367E+03  4.64190E+03  2.57104E+03 -2.30989E+03  3.64218E+03
  1.73112E+03 -4.27679E+02  1.74157E+03  3.97548E+03  1.63366E+03  3.21072E+03  1.88254E+03  4.91030E+03
 -2.06164E+03  4.03721E+02 -7.59511E+03  6.62392E+01 -2.20017E+03  4.58260E+03 -4.01452E+03 -4.20960E+03
 -8.22669E+02 -1.33282E+03 -1.60037E+03 -4.58724E+03  2.65088E+03 -2.12173E+03 -8.80021E+02 -3.31594E+03
  5.64090E+03  3.86017E+03 -2.93815E+03  2.37361E+03 -4.33240E+03 -8.25283E+02  3.44507E+03 -2.95123E+03
  1.94184E+03  1.23716E+03  1.44782E+03 -1.15947E+02 -1.65168E+03 -3.39419E+02  1.52071E+03  2.25409E+02
  6.31858E+03  3.50294E+03 -2.96986E+02  3.50568E+02 -8.90898E+02  4.41609E+03  1.09920E+03 -6.94789E+02
  2.99497E+03  9.15675E+02 -1.59341E+03 -1.01205E+03 -4.36824E+02 -5.11515E+02 -1.37952E+03  7.88531E+03
 -5.38254E+03 -2.76564E+03 -1.87676E+03  2.07054E+03 -3.31323E+03 -1.15708E+03 -1.01387E+03 -4.84965E+02
 -2.66876E+03 -7.78540E+02  3.90327E+03  1.14288E+02  1.37288E+03  2.48768E+03 -1.47694E+03  1.72506E+03
 -3.79504E+03 -7.63244E+02 -3.06914E+03 -4.00908E+03 -8.23482E+02 -3.06731E+03 -6.77568E+03 -9.12656E+02
  4.87774E+02  2.73764E+03  1.23484E+03 -1.18189E+03 -2.38689E+02  2.38458E+03  2.42454E+03 -3.45941E+03
  4.50890E+03 -4.70194E+02 -1.51650E+03 -4.41285E+02  1.91880E+03  3.09113E+02  1.70446E+03 -1.72150E+03
 -2.34777E+03  4.69588E+01  2.53423E+03 -2.08508E+02  2.99952E+03  1.43195E+02  5.82612E+02 -5.62294E+02
  4.86491E+03 -3.34270E+03 -2.75579E+03  1.40097E+03  2.03202E+02 -3.12966E+03 -2.69466E+02 -1.63164E+03
  1.99746E+03 -1.96851E+03 -6.35152E+02  1.98711E+03  1.30692E+03 -3.12126E+03 -1.17629E+03  2.00564E+03
  1.05799E+03 -1.81588E+02  1.33241E+03  2.07551E+03  7.62842E+02  4.29848E+03 -2.53720E+02  4.51173E+03
 -1.30535E+03  2.62213E+03  5.97177E+01 -1.27429E+03 -2.02884E+03 -2.61469E+03 -3.33963E+03 -7.16514E+03
 -3.20030E+03 -5.85610E+03  2.47410E+03 -4.15798E+03  1.17069E+03  3.54619E+02  1.40950E+03 -3.30124E+03
  2.32413E+03 -1.74630E+03  3.58349E+03  1.15005E+03 -7.96632E+02  5.37940E+03 -3.62259E+02 -2.25239E+03
 -1.83093E+03  8.98559E+02  1.26450E+03 -1.00126E+03 -1.26564E+03  8.25340E+01  2.44482E+03  4.53473E+03
 -4.04877E+03  4.13584E+03 -1.05249E+03 -6.42639E+01  3.78225E+03 -1.69360E+03 -3.77155E+03 -1.64842E+03
 -2.33781E+03 -9.09596E+02 -3.35350E+03 -4.76702E+03  4.66433E+03 -3.22224E+03  1.91580E+03  5.40484E+02
  3.90609E+03  6.04688E+02 -5.71137E+03 -1.26062E+03 -3.43085E+03  6.42519E+02 -2.19951E+03  1.13102E+03
 -1.44134E+03  4.55751E+01  1.27453E+03 -3.21182E+03  4.87079E+03 -3.68785E+03  1.78660E+03 -3.34408E+03
 -7.61276E+01  3.18759E+02 -6.05230E+02  1.39395E+03 -1.20605E+03  6.78723E+03  1.80526E+03  2.71768E+03
 -2.56070E+03 -2.90174E+03 -4.56181E+02 -1.79681E+03  3.00964E+03  2.13410E+02  2.18665E+03  1.28631E+02
  2.45133E+03  2.33865E+03 -7.58505E+02  1.39667E+03 -1.81243E+03 -1.63084E+03  3.90185E+03  3.21540E+03
 -2.50106E+03  3.28541E+02  6.40952E+03 -8.14817E+01  4.40207E+03 -2.12468E+03 -4.67614E+03 -3.63662E+02
  4.24913E+02  2.97028E+03  3.13731E+03  1.68946E+03 -2.88519E+03  2.56307E+03 -1.87751E+02  4.13095E+03
  2.29422E+03  1.60685E+03 -1.79251E+03 -4.34756E+03  2.64881E+03  8.70312E+02 -6.07985E+02 -8.33512E+02
 -2.01728E+03 -1.39692E+03 -2.19472E+03 -4.01636E+02  1.73550E+02 -3.25495E+02  4.96823E+03 -4.62428E+01
 -3.20135E+02  7.69815E+03 -4.12808E+03  8.31937E+02 -1.19751E+02  1.02256E+03  2.93709E+03  4.51642E+03
