 $NMID ID='MM_0lb_SNR50_13hz_g40_76.RAW', FMTDAT='(8E13.5)'
 TRAMP=1., VOLUME=1. $END
  3.05726E+05  4.76226E+03  3.43828E+05  2.48033E+05  8.74805E+04  3.41750E+05 -1.33721E+05  2.50578E+05
 -1.87887E+05  8.02706E+04 -1.09127E+05 -2.96814E+04 -1.15526E+03 -5.38665E+04  5.38395E+04 -3.71266E+03
  3.69681E+04  5.21082E+04 -1.59634E+04  7.36878E+04 -5.70572E+04  6.21900E+04 -8.12259E+04  2.88275E+04
 -7.95209E+04 -1.48139E+04 -6.06911E+04 -5.12720E+04 -1.53051E+04 -7.03204E+04  2.48623E+04 -4.63000E+04
  4.03089E+04  5.44339E+03  1.05859E+04  5.23591E+04 -3.49723E+04  4.16360E+04 -6.79759E+04 -9.94539E+02
 -5.61373E+04 -5.65624E+04 -9.33542E+03 -8.06686E+04  3.13986E+04 -5.22533E+04  4.59535E+04 -1.51924E+04
  4.14259E+04  1.01582E+04  3.31648E+04  2.32287E+04  1.78630E+04  3.00858E+04 -6.00387E+03  2.60161E+04
 -1.83781E+04  1.18903E+04 -1.82427E+04 -2.21337E+03  3.16230E+03 -7.95256E+03  2.58510E+04  1.48055E+04
  7.22722E+03  3.45717E+04 -3.23837E+04  3.57730E+04 -6.71182E+04  4.77332E+02 -5.89019E+04 -4.14916E+04
 -1.49852E+04 -5.78997E+04  3.93945E+04 -4.11566E+04  5.67669E+04 -6.91569E+02  3.56404E+04  3.42745E+04
 -6.38165E+03  3.67743E+04 -3.02906E+04  1.16763E+04 -2.58452E+04  5.07362E+02 -1.58061E+04 -1.27814E+04
 -1.09113E+04 -1.34317E+04 -2.56034E+03 -1.67223E+04  8.53251E+03 -2.42695E+04  1.87813E+04 -1.21324E+04
  1.58490E+04  6.15082E+03 -3.67046E+03  1.54364E+04 -2.27869E+04 -3.87429E+03 -1.07020E+04 -3.40107E+04
  2.03774E+04 -4.56590E+04  4.62522E+04 -2.20995E+04  3.94929E+04  2.10384E+04  1.02667E+04  4.38027E+04
 -1.46204E+04  3.66512E+04 -2.68111E+04 -1.54741E+01 -1.15943E+04 -2.93727E+04  2.47544E+04 -3.62166E+04
  4.14172E+04 -4.39445E+03  3.42129E+04  2.32368E+04  1.73191E+04  4.64554E+04 -1.08595E+04  4.97166E+04
 -3.23228E+04  3.20496E+04 -3.92574E+04  1.27784E+04 -4.49274E+04 -1.33620E+04 -2.57608E+04 -3.59529E+04
  8.44936E+03 -4.04447E+04  3.14277E+04 -1.86231E+04  2.26734E+04  1.32137E+04  5.85415E+03  1.93909E+04
 -1.54257E+04  8.52965E+03 -7.08993E+03 -1.04616E+04  8.23074E+02 -1.33400E+04  2.02398E+04  4.31008E+03
  1.09838E+04  2.21836E+04 -3.86488E+03  2.45743E+04 -2.82661E+04  1.15848E+04 -2.59387E+04 -4.10870E+03
 -2.55465E+04 -1.81707E+04 -3.59787E+03 -2.33088E+04  7.14574E+03 -1.78434E+04  1.72259E+04 -1.74423E+04
  2.78421E+04 -7.03812E+03  3.26507E+04  5.14497E+03  2.77385E+04  1.93154E+04  2.01137E+03  4.15588E+04
 -2.06641E+04  3.27341E+04 -2.99433E+04  1.24274E+04 -1.84848E+04 -6.01946E+03 -6.70005E+03 -1.47605E+04
  3.35239E+03 -2.39788E+03 -1.95463E+03  7.10363E+03 -1.36879E+04  4.53737E+03 -1.54143E+04 -1.37503E+04
 -1.21187E+04 -2.18783E+04  6.24079E+03 -1.97893E+04  1.34809E+04 -1.45097E+04  1.74620E+04 -7.70492E+02
  1.71657E+04  1.17709E+04  2.29694E+03  1.88623E+04 -1.29365E+04  8.86339E+03 -1.53540E+04 -1.20482E+03
 -1.01415E+04 -1.65612E+04 -2.91839E+03 -1.96267E+04  4.92792E+03 -1.70381E+04  1.49559E+04 -1.06621E+04
  1.59282E+04 -2.57872E+03  1.59119E+04  1.73141E+03  1.85299E+03  8.59278E+02  1.35129E+04 -2.81585E+03
  1.59695E+04  1.85042E+03  1.98984E+04  1.32688E+04  1.21744E+04  2.95116E+04 -5.68225E+03  3.40140E+04
 -2.18412E+04  3.06701E+04 -3.10058E+04  1.38660E+04 -3.11781E+04 -1.34837E+03 -2.88655E+04 -1.62894E+04
 -1.08876E+04 -2.75294E+04  4.98077E+03 -2.40043E+04  1.94466E+04 -1.34914E+04  1.37154E+04  9.71079E+02
  5.39145E+03  1.07065E+04 -8.61978E+03  1.41974E+04 -1.57106E+04  8.72912E+01 -1.52415E+04 -1.11208E+04
  8.31931E+01 -1.70191E+04  1.21523E+04 -1.23772E+04  9.79202E+03  2.29073E+03 -1.94795E+03  4.63034E+03
 -7.86576E+03  4.49320E+02 -6.54739E+03 -8.11395E+03 -5.62454E+03 -9.87232E+03  4.85057E+03 -1.80053E+04
  1.82717E+04 -7.48855E+03  1.62848E+04  3.44681E+03  1.85609E+04  1.41490E+04  7.52643E+03  2.21275E+04
 -5.11569E+03  2.09704E+04 -1.81442E+04  1.03731E+04 -1.53453E+04  3.18499E+03 -1.14422E+04 -3.56259E+03
 -3.87417E+03 -5.19708E+03 -4.28320E+02 -2.00146E+03 -4.58097E+03  8.72742E+03 -4.61353E+03  8.24932E+03
 -1.29170E+04  5.58615E+03 -1.02003E+04 -8.82275E+03 -4.97068E+03 -1.91006E+04 -9.05371E+02 -1.04503E+04
  1.11441E+04 -1.54248E+03  7.61304E+03  5.67428E+03 -3.62204E+03  4.88272E+03 -3.67727E+03 -7.49951E+02
 -4.82700E+03 -6.00263E+03 -4.48579E+03 -7.19982E+03  4.86626E+03 -1.04988E+04  1.52735E+04 -7.17293E+03
  1.66801E+04 -2.23612E+02  9.47980E+03  1.01458E+04  2.00392E+03  1.15125E+04 -9.30211E+03  9.96511E+03
 -7.41497E+03  3.23683E+03  1.59383E+03 -1.72238E+03  4.73081E+02 -8.27958E+03  3.52458E+03  1.83741E+03
  7.69647E+03  4.12879E+03 -3.34871E+03  1.37186E+04 -5.14671E+03  8.92194E+03 -7.86740E+03  1.81480E+03
 -4.56776E+03 -8.95000E+03  7.69869E+01 -5.87272E+03  7.45640E+03 -8.17909E+03  4.98418E+03  9.05180E+03
  2.37220E+03  6.27921E+03 -2.10430E+03  9.01351E+03 -6.32654E+03  7.04243E+03 -8.64364E+03 -2.32650E+03
 -5.37445E+03 -9.39089E+03  3.37325E+02 -1.15465E+04  9.16028E+03 -1.00059E+04  1.40117E+04  2.70688E+03
  1.60178E+02  4.19612E+03 -2.29774E+03  8.31406E+03 -5.44180E+03  7.18504E+03 -3.04838E+03  2.95294E+03
 -1.01170E+04 -1.07821E+04  1.91882E+03 -7.71543E+03  8.23997E+03 -3.28215E+03  1.12637E+04 -3.69213E+03
  3.03739E+03  4.82951E+02 -4.56762E+02  4.38639E+02 -1.42050E+03  2.65403E+03  1.60255E+03  4.21694E+02
  5.03055E+03 -8.08246E+02  4.91928E+03  1.27040E+03  3.12432E+03  9.86560E+03  1.13106E+04  9.74033E+03
  6.99100E+02  1.38825E+04 -1.22238E+04  1.14808E+04 -1.57572E+04  2.00647E+03 -1.22691E+04 -7.95600E+03
 -1.09789E+04 -1.26819E+04 -3.30816E+02 -1.27302E+04  1.45225E+03 -1.66213E+03  7.08704E+03 -1.78071E+03
  3.19351E+03 -4.94685E+03  6.25291E+03 -6.46706E+03  5.25904E+02 -2.54966E+02  1.02022E+04  3.66431E+03
  5.24757E+03  2.11955E+02  3.44898E+03  9.70434E+03 -2.45780E+03  6.34503E+03 -6.23495E+03  3.99442E+03
 -8.45753E+03 -4.69784E+02 -2.88970E+03 -6.40572E+03  2.63727E+03 -7.25760E+03  6.56324E+03 -8.59974E+03
  1.05823E+04 -3.20609E+03  6.73633E+03  7.84833E+02  8.02534E+03  8.00434E+03 -2.13813E+02  1.25758E+04
 -5.93082E+03  1.04211E+04 -9.29767E+03  3.42353E+03 -6.48159E+03  1.08551E+03 -1.68680E+03 -4.78324E+03
 -1.60202E+03 -7.11395E+02 -1.41634E+03  2.32481E+03 -4.11424E+03  1.24150E+03 -2.75585E+03 -3.02593E+02
 -1.61263E+02 -5.34833E+03 -1.79858E+03 -9.90377E+03  2.17875E+03 -1.24925E+04  1.06546E+04 -3.04513E+02
  8.32640E+03  4.16226E+03  6.04320E+02  4.37039E+03 -4.57617E+03  1.07677E+04 -9.16108E+03  8.89935E+03
 -9.34990E+03  2.04216E+03 -7.73368E+03 -3.94411E+03 -1.61380E+03 -1.13191E+04  5.94841E+03 -3.04757E+03
  3.09959E+03 -6.67801E+03  4.98156E+03 -7.33050E+02  1.34940E+03  5.02598E+03  1.53919E+03  1.28820E+03
  3.27934E+03  4.83172E+03  3.28915E+03  4.92323E+03  3.22904E+03  5.17587E+03  6.26936E+03  2.03298E+03
  3.35569E+03  9.97621E+03 -2.27501E+03  5.71995E+03 -1.15043E+04  1.78919E+03 -8.32472E+03 -3.85186E+03
 -4.15644E+03 -1.12956E+04  3.42531E+03 -9.00003E+03  4.82723E+03 -3.89404E+03  1.18392E+04 -1.94216E+03
  7.15479E+03  6.30622E+03  3.85475E+03  5.94801E+03 -2.36369E+03  5.70745E+03 -2.38406E+03 -4.56299E+02
 -2.74940E+01 -9.76325E+02  4.30455E+03 -7.77324E+03  1.83944E+03 -2.81396E+03  5.02508E+03 -4.28099E+03
  8.79656E+02  4.23377E+03  2.42096E+03  6.80458E+03 -4.83525E+02  2.82185E+03  2.54830E+03 -5.46187E+03
 -2.78950E+03 -6.94345E+02  4.17746E+03  5.94200E+03  2.04093E+03  3.57518E+03 -6.76767E+02  6.88821E+03
 -2.86830E+03 -4.41755E+02 -5.06944E+03  7.34800E+03 -7.13694E+03 -3.13083E+03 -2.45252E+03 -1.04827E+03
  4.58329E+01 -3.39781E+03 -1.82223E+03 -7.09698E+03 -1.07966E+03  1.41974E+03 -2.48023E+02  5.18705E+03
 -3.73272E+03 -1.78130E+03 -1.33509E+03  4.48896E+02 -2.64821E+02 -2.02724E+03 -5.47367E+02 -3.25138E+03
  4.30906E+03  7.21109E+00  3.29737E+03  2.30641E+03  4.40020E+03 -5.45552E+02 -3.02819E+03 -3.31736E+02
  3.83469E+03 -1.28340E+03  3.32302E+02 -3.68048E+03 -5.73029E+02 -8.37147E+03  6.83529E+03 -4.42598E+02
  3.52662E+03 -2.04968E+03  4.84129E+03  4.29513E+03  3.72235E+03  4.07216E+03 -2.19469E+03  6.50671E+03
 -4.86712E+03  1.90950E+03 -5.67201E+03  1.09929E+03 -4.30631E+03  3.34388E+03 -4.29509E+03  1.42079E+03
  6.31928E+03  2.66298E+03  3.93947E+03  2.62747E+03  2.39858E+03  1.12202E+03  1.01714E+03 -9.09347E+02
 -1.33483E+03  9.96380E+02 -4.68354E+01  2.92583E+03  2.32250E+03  4.56624E+03 -8.36859E+02 -1.34711E+03
 -4.48382E+03  3.74234E+03 -6.32378E+03  6.46012E+01 -9.13538E+03 -8.04376E+02 -4.43126E+03 -1.06090E+04
 -4.90388E+03 -7.88284E+03  1.80896E+03 -1.33928E+04  4.85454E+03 -8.22444E+03  1.00147E+04 -3.28362E+03
  6.54346E+03 -2.45315E+02  2.82805E+03  1.14058E+04 -2.67753E+03  1.78330E+03 -9.13434E+02  1.32112E+03
  7.69489E+02  2.29994E+03  1.00324E+03  2.55284E+03  4.36373E+02 -2.12981E+03 -1.18828E+03  2.38080E+03
  1.93464E+03  6.69236E+02 -2.20025E+01  3.12769E+03  1.04505E+03 -1.83444E+03 -4.03478E+03 -2.75376E+03
  5.03073E+02 -2.74929E+03  4.34248E+03 -2.30292E+03  5.04299E+03  5.84780E+03 -2.76308E+03  2.75659E+03
 -1.30049E+03  4.18958E+03 -5.56643E+03  6.02622E+03 -6.94957E+03 -1.40759E+03 -7.95911E+03 -2.14969E+03
  1.15342E+03 -2.39401E+03  4.15901E+03 -1.54351E+03  3.63850E+03  2.16126E+03 -8.82061E+02 -1.29847E+03
 -6.44972E+02  3.99953E+02  1.42440E+03  3.52364E+03 -5.99095E+03 -3.69634E+03 -4.36319E+03  3.07042E+02
  1.47974E+03 -9.20485E+03  5.99251E+03 -1.57865E+03  2.25672E+03  4.08632E+03 -2.29903E+03  1.68656E+03
 -1.47268E+03  1.46301E+03 -1.80004E+03  4.21388E+03 -7.89274E+03 -5.44400E+02 -6.38163E+02 -2.32243E+03
  6.46053E+02 -3.57231E+03  4.89046E+03 -1.46918E+03  1.50344E+03 -1.93294E+03  4.25945E+03  1.19604E+03
 -1.31420E+03  4.05503E+03  6.65479E+02  6.07416E+03  4.52256E+02  1.61483E+03 -4.17651E+03 -3.14220E+02
  3.59511E+03  3.70034E+03 -1.75298E+02 -9.05338E+02 -1.98052E+03 -5.05561E+03 -3.08931E+03  2.97573E+03
 -1.16474E+03 -2.11899E+03 -2.63980E+03 -4.31193E+03  3.75460E+03 -1.83147E+03  3.84130E+03 -3.90804E+03
 -1.16919E+02 -4.04392E+02  4.31574E+03 -6.34438E+03  2.13952E+02  9.11863E+02 -4.36053E+03 -1.90035E+03
