 $NMID ID='MM_0lb_SNR50_17hz_g40_76.RAW', FMTDAT='(8E13.5)'
 TRAMP=1., VOLUME=1. $END
  3.09850E+05  2.18418E+03  3.37181E+05  2.51264E+05  8.54581E+04  3.39987E+05 -1.34202E+05  2.47447E+05
 -1.87307E+05  8.51197E+04 -1.13320E+05 -3.23458E+04  6.16149E+02 -5.76775E+04  5.57671E+04 -1.46953E+03
  3.68221E+04  5.08381E+04 -1.70292E+04  7.70920E+04 -6.11386E+04  6.42529E+04 -8.48809E+04  3.03651E+04
 -7.53178E+04 -1.30183E+04 -5.61331E+04 -5.11290E+04 -1.71682E+04 -6.95407E+04  3.06466E+04 -4.32705E+04
  3.75097E+04  7.25251E+03  1.91080E+04  4.35076E+04 -3.24165E+04  4.67634E+04 -6.36794E+04 -3.74244E+03
 -5.79529E+04 -5.44722E+04 -6.38026E+03 -7.47513E+04  3.20291E+04 -5.65979E+04  4.78868E+04 -1.72948E+04
  4.46144E+04  9.75612E+03  3.26642E+04  2.49020E+04  1.47972E+04  3.04683E+04 -6.39880E+03  2.80774E+04
 -2.25473E+04  1.30070E+04 -1.19641E+04 -1.47651E+03 -6.51465E+02 -8.14910E+03  1.86009E+04  1.43080E+04
  1.06044E+04  3.30223E+04 -2.81760E+04  3.25733E+04 -5.76309E+04  3.22492E+03 -5.83904E+04 -3.88161E+04
 -1.28112E+04 -6.24461E+04  3.76848E+04 -4.57996E+04  5.27885E+04  2.11920E+03  3.11419E+04  3.57912E+04
 -3.28114E+03  3.43098E+04 -2.65029E+04  1.21939E+04 -2.67790E+04  3.79993E+02 -1.11923E+04 -1.10833E+04
 -7.58566E+03 -1.23346E+04 -2.47635E+03 -1.54989E+04  3.02974E+03 -2.40472E+04  1.41221E+04 -1.45167E+04
  1.90490E+04  5.43923E+03 -9.81468E+03  1.61016E+04 -2.10860E+04  1.83671E+02 -4.59153E+03 -3.13116E+04
  2.50963E+04 -4.40433E+04  4.48389E+04 -1.72534E+04  4.55216E+04  1.27477E+04  1.42143E+04  3.46310E+04
 -1.56798E+04  2.63933E+04 -2.32608E+04 -3.65293E+03 -1.86351E+02 -2.93449E+04  2.10254E+04 -3.31242E+04
  3.89902E+04 -6.80453E+03  3.24507E+04  2.31311E+04  1.34193E+04  4.64258E+04 -5.61121E+03  4.35835E+04
 -3.33987E+04  2.85276E+04 -4.20291E+04  7.46985E+03 -3.72537E+04 -2.11660E+04 -2.20475E+04 -3.58197E+04
  1.29093E+04 -3.77655E+04  2.52636E+04 -1.32912E+04  2.43078E+04  1.22206E+04  2.22705E+03  1.90194E+04
 -1.46537E+04  8.75381E+03 -1.12185E+04 -6.63983E+03  1.25818E+03 -7.64662E+03  1.85422E+04  5.78559E+03
  1.29181E+04  2.17995E+04 -6.65473E+03  2.92315E+04 -2.21068E+04  5.66832E+03 -2.61000E+04 -2.84728E+03
 -1.65858E+04 -1.06433E+04 -6.23318E+03 -1.88242E+04  7.48850E+03 -1.28352E+04  1.64490E+04 -1.64770E+04
  2.45572E+04 -1.26566E+04  2.63039E+04 -9.62871E+00  2.53168E+04  2.03391E+04  3.69715E+03  2.85938E+04
 -1.51401E+04  2.55104E+04 -2.50311E+04  1.12096E+04 -1.70457E+04 -1.02565E+04 -4.31229E+03 -1.39923E+04
  5.42556E+03 -5.39207E+03 -9.17860E+02  3.21609E+03 -1.09355E+04  4.28411E+03 -1.56300E+04 -5.84513E+03
 -7.42051E+03 -2.00537E+04  5.00598E+03 -2.40766E+04  1.70492E+04 -1.67975E+04  1.61479E+04 -4.98525E+03
  9.63833E+03  8.22241E+03 -4.35815E+03  1.52592E+04 -1.09771E+04  1.00277E+04 -1.83575E+04 -2.66093E+03
 -1.52825E+04 -1.42392E+04 -5.33239E+02 -2.28742E+04  8.85128E+03 -1.64561E+04  1.50373E+04 -9.31437E+03
  1.40862E+04  5.49665E+02  1.06762E+04  4.03810E+03  2.03624E+03  2.50618E+03  3.23281E+03 -2.54255E+03
  1.15952E+04  1.26069E+03  1.25056E+04  1.21076E+04  1.19465E+04  2.45242E+04 -1.92891E+03  2.71393E+04
 -1.59616E+04  2.00920E+04 -2.74652E+04  6.77330E+03 -2.47033E+04  9.66097E+01 -2.19200E+04 -1.49085E+04
 -1.15953E+04 -2.06223E+04  8.51784E+03 -1.75241E+04  1.51609E+04 -1.36139E+04  1.34742E+04  5.30593E+03
  9.02436E+03  9.48802E+03 -6.15593E+03  9.31607E+03 -1.73512E+04  6.69450E+03 -1.21112E+04 -8.11348E+03
 -5.15127E+03 -1.22732E+04  9.24436E+03 -1.04360E+04  8.89553E+03 -2.05570E+02  1.96847E+03  6.37734E+03
 -7.87683E+03  1.64230E+03 -3.13182E+03 -7.20793E+03  9.33863E+02 -1.11593E+04  6.40513E+03 -7.76949E+03
  1.55123E+04 -6.05649E+03  9.66231E+03  3.39550E+03  8.88299E+03  3.19001E+03 -2.91986E+03  8.07649E+03
  2.31109E+03  1.47931E+04 -9.99692E+03  1.05033E+04 -1.37900E+04  3.25662E+03 -9.00384E+03  5.42732E+02
 -7.36207E+03 -1.25219E+03 -1.60587E+02  1.18639E+03 -2.33722E+02  3.74856E+03 -3.02280E+03  2.23800E+03
 -7.65580E+03  3.27649E+03 -8.38317E+03 -2.06087E+03 -1.16633E+04 -1.09273E+04  3.95489E+03 -8.21310E+03
  7.05024E+03 -5.22066E+03  3.07583E+03  4.02938E+03  1.23739E+03  5.75462E+02 -7.34489E+03  1.43454E+03
  2.64568E+02 -6.05157E+03 -2.22957E+03 -6.71261E+03  5.71290E+03 -1.24981E+04  7.44278E+03 -6.42377E+03
  1.42328E+04  1.56889E+03  1.58667E+04  8.63076E+03 -2.62396E+02  1.12684E+04 -3.23548E+03  1.08577E+04
 -8.66438E+03  4.97738E+03 -6.65800E+03 -4.31142E+03 -3.55672E+03  1.34367E+02  9.14611E+03  7.95016E+01
  8.41139E+03  5.34857E+03  2.18132E+03  7.45658E+03 -4.56409E+03  1.03004E+04 -1.00878E+04  1.94470E+03
 -4.83644E+03 -4.92932E+03  1.63059E+03 -4.64254E+03  9.04852E+03 -5.06804E+03  4.04397E+03  3.74984E+03
  3.77090E+03 -6.42645E+01 -1.10203E+03  9.14552E+03 -9.36869E+03  2.65150E+03 -3.89870E+03 -4.22388E+03
 -5.06385E+02 -5.53835E+03  4.98507E+02 -9.57216E+03  6.41163E+03 -7.86597E+03  3.99135E+03  1.98789E+03
  5.44373E+03  8.60785E+03 -2.32693E+03  8.62840E+03 -6.24498E+03  3.53147E+03 -5.45011E+03  1.04888E+03
 -8.82276E+03 -3.41349E+03 -3.79982E+03 -7.37507E+03  1.93894E+03 -2.38661E+03  5.37423E+03 -5.17242E+03
  1.23866E+03 -5.22708E+03 -3.44098E+03  2.66465E+03  5.05488E+03  4.12247E+03  3.64203E+03 -3.31730E+03
  4.04821E+03  5.67836E+01  5.28565E+03 -2.99115E+03  7.76368E+03 -2.27611E+02  6.72125E+03  5.32600E+03
  1.54995E+03  1.12418E+04 -1.06698E+04  9.39720E+03 -1.33906E+04  2.94127E+03 -4.73947E+03 -3.85393E+03
 -1.09208E+04 -9.50592E+03 -2.47227E+03 -3.71595E+03  1.34150E+03  1.65913E+03  1.05824E+03 -5.44705E+02
  6.28994E+03 -5.84538E+02 -1.14265E+03 -4.61303E+03  2.45537E+03 -3.90680E+03  2.28365E+03 -4.46855E+03
  5.34156E+03  3.11678E+03  3.84518E+02  3.57032E+03  5.41095E+02  3.81510E+03 -9.22721E+03  2.07036E+03
 -6.95700E+03 -3.28084E+03 -1.69830E+03 -5.14586E+03 -2.64241E+03 -3.85620E+03 -9.67641E+02 -6.32668E+03
  4.14979E+03 -3.23193E+03  5.49767E+03 -6.53793E+02  5.24828E+03  2.45625E+03 -1.45199E+03  4.74158E+03
 -1.02911E+04  6.82072E+03 -7.31577E+02  8.42957E+02 -1.24266E+03  1.33869E+02 -2.40795E+03  1.34161E+03
 -1.86675E+03  1.17203E+03  5.23793E+02  1.32406E+02 -4.45444E+03  2.10931E+03  1.23788E+03  2.14656E+03
 -6.22334E+02 -4.28388E+03 -5.86592E+03 -2.97908E+03  4.32074E+03 -5.34926E+03  3.48838E+03 -3.66246E+03
  9.24240E+03  2.03299E+03  5.37057E+03  4.54289E+03  1.47444E+03  5.98922E+03  2.10528E+02 -1.92595E+03
 -5.07409E+03  1.34271E+03 -1.00731E+03 -4.51509E+03 -1.12464E+03 -3.87825E+03  2.98111E+03 -2.47646E+03
  7.27210E+03  3.00819E+03 -7.25314E+01  3.54939E+03  1.43040E+03  9.76493E+02  6.08157E+03 -1.60971E+03
  3.74979E+03  1.72025E+02  3.09684E+03  1.94355E+03  1.48949E+03  3.30424E+02  2.56483E+03  2.86012E+03
 -4.30829E+03  5.80776E+03 -5.13269E+03 -4.74978E+02 -5.89457E+03  2.12684E+03 -6.00403E+03 -1.41559E+03
  4.19456E+02 -3.17843E+03  6.64621E+02 -5.91708E+03  2.31754E+03 -1.74157E+03  7.44244E+03 -6.73684E+02
  3.89740E+03  5.37467E+03 -9.03125E+02  3.67822E+03 -2.83655E+03  8.39349E+02  2.23680E+03 -3.15959E+03
 -2.18124E+03 -9.88842E+02  1.12252E+03 -2.79712E+02  2.79937E+03 -1.04463E+01  4.87744E+03  1.37495E+03
 -5.98407E+01  1.99678E+03  3.32779E+03 -3.53312E+02 -1.46861E+03  1.44379E+03  6.21410E+02 -5.65297E+02
 -2.84316E+02 -7.03110E+02 -1.36888E+03  2.42453E+03 -2.58054E+03  2.54523E+03 -1.26183E+03  4.58448E+03
 -3.97282E+03  1.48781E+03 -3.52103E+03  1.60793E+03 -1.01316E+02 -1.17919E+03 -4.93055E+03 -5.58285E+03
 -3.15668E+03  3.99537E+03  1.02228E+03 -1.65876E+01 -6.37152E+01  5.67331E+03  2.27817E+02  2.44770E+03
 -4.90041E+03  1.75001E+03 -2.10894E+03 -2.55929E+03 -1.19208E+03 -5.97916E+03 -1.65751E+03 -2.08249E+02
  1.97330E+03 -1.10156E+03  7.54294E+02  3.33909E+03  5.54613E+02 -4.31549E+02 -3.51622E+03  8.17475E+02
  2.85002E+02  3.43304E+02 -3.93125E+03  1.22703E+03  4.20050E+03 -5.72289E+02  4.95343E+03 -3.83818E+03
  4.64941E+03  2.54633E+03  2.42038E+03  2.91434E+03  2.08351E+03  3.57650E+03  2.83629E+03  5.34246E+03
  3.20478E+03  4.09646E+02 -2.77958E+03  4.03751E+01 -1.00342E+03 -7.11253E+03  3.66359E+02  2.08532E+03
  6.40136E+03 -1.46402E+03 -4.12637E+03  1.99063E+03  2.97527E+03  2.00348E+03 -1.95176E+03  1.50937E+03
  6.86725E+02  4.61583E+03 -9.50124E+02 -2.69622E+03  2.51229E+03 -5.67068E+02 -9.85503E+02  2.92167E+03
 -2.06463E+03 -8.31112E+02  8.25991E+02  5.83203E+03 -8.24522E+03  1.45759E+03 -1.23981E+03  1.56435E+02
 -2.09627E+03 -5.96001E+03  8.99938E+02 -2.41139E+03 -5.55671E+03 -3.33976E+03  2.78979E+03 -4.66050E+03
  7.15598E+03  3.49388E+03  4.14097E+03  1.63217E+03 -3.29249E+03  6.65328E+03 -1.21976E+02  2.42660E+03
 -6.77768E+02  1.50126E+03  1.88727E+03  2.97989E+03 -2.71789E+03  3.97012E+02 -1.30030E+03 -1.40122E+03
 -2.95965E+03 -5.32990E+02  1.16793E+03  3.19137E+03  1.82147E+03  5.41295E+02 -6.23712E+03 -5.07001E+03
 -2.24037E+03 -1.50408E+03 -4.60578E+03  1.48563E+03  1.66268E+03 -3.41858E+03  8.69184E+02  1.28982E+03
 -8.08574E+02  1.70989E+03 -3.88701E+03  2.92300E+03 -1.60549E+03  2.29437E+03 -3.32303E+03  1.73115E+02
 -1.66052E+03 -4.05963E+03  1.74403E+03 -4.42480E+03  1.82174E+03 -4.42898E+03  1.74679E+03  2.92268E+03
  1.95790E+03 -6.54898E+02  3.03261E+03  4.48967E+02 -1.59902E+03 -4.67681E+02  5.22058E+01 -5.98192E+03
 -4.50077E+03  1.51248E+03  6.79536E+01  4.04614E+03  3.44143E+02  4.52595E+03  3.53039E+02 -2.14283E+03
 -5.07364E+03  7.52178E+01  2.15825E+03 -1.74059E+03 -1.01163E+03  6.03567E+02 -8.29402E+02 -3.59919E+03
  2.21930E+03  2.39281E+02 -1.28482E+03 -3.36700E+03  3.03068E+03  2.48543E+03 -2.40883E+03  2.28092E+03
  5.48783E+03 -2.19945E+02  3.68478E+02  3.99334E+02  1.54749E+03  2.17856E+03 -1.66703E+03 -5.03631E+02
  4.30481E+03  7.92202E+02  1.30389E+03  3.01583E+02 -8.47628E+02  1.92677E+03  6.16916E+02 -6.18915E+03
 -1.39414E+03 -4.05224E+03  4.54938E+02  4.59603E+02 -3.19433E+02 -4.67506E+03 -2.88218E+02  2.27455E+03
  4.16543E+03  5.74024E+02 -2.37595E+03 -1.84201E+03 -2.90645E+02 -7.27918E+02 -2.49574E+03  7.08672E+01
