 $NMID ID='MM_0lb_SNR50_11hz_g55_69.RAW', FMTDAT='(8E13.5)'
 TRAMP=1., VOLUME=1. $END
  3.12669E+05 -1.89990E+02  3.34023E+05  2.48554E+05  8.25106E+04  3.40254E+05 -1.34357E+05  2.50426E+05
 -1.89850E+05  8.33854E+04 -1.10977E+05 -2.71615E+04  2.31910E+03 -4.74006E+04  4.50721E+04 -2.32310E+03
  3.55543E+04  5.46360E+04 -1.56093E+04  7.53687E+04 -5.73430E+04  5.91078E+04 -8.65775E+04  3.19479E+04
 -7.97351E+04 -8.90279E+03 -6.31044E+04 -6.16577E+04 -1.89337E+04 -7.04228E+04  2.15653E+04 -4.57985E+04
  3.87285E+04  1.40560E+03  1.31024E+04  5.25090E+04 -4.05324E+04  4.16047E+04 -6.87464E+04  7.95429E+02
 -5.75358E+04 -5.82272E+04 -4.85737E+03 -8.03323E+04  3.32471E+04 -5.71008E+04  4.96836E+04 -2.23358E+04
  4.65800E+04  6.27676E+03  3.34925E+04  2.38981E+04  1.54484E+04  2.90508E+04 -1.32142E+04  2.47620E+04
 -2.10986E+04  6.79749E+03 -1.54711E+04 -4.12893E+03  3.20234E+03 -1.31277E+04  2.89377E+04  1.48337E+04
  1.06207E+04  3.95425E+04 -3.56919E+04  3.28957E+04 -7.21462E+04 -1.46313E+03 -5.99971E+04 -4.37757E+04
 -1.34375E+04 -6.63456E+04  3.28155E+04 -4.81595E+04  6.19563E+04  1.18816E+02  3.79801E+04  3.32476E+04
 -1.82063E+03  4.12546E+04 -3.07883E+04  1.56329E+04 -2.70359E+04 -9.33393E+03 -1.72495E+04 -2.15706E+04
 -8.10376E+03 -1.08556E+04  5.12517E+02 -1.90138E+04  6.40031E+03 -2.17394E+04  1.97656E+04 -1.31391E+04
  1.44793E+04  8.42022E+03 -1.27041E+04  1.49792E+04 -2.76340E+04 -6.74339E+03 -1.07634E+04 -3.52571E+04
  2.77028E+04 -4.73148E+04  5.52086E+04 -2.46447E+04  4.86015E+04  2.55624E+04  2.03791E+04  4.88673E+04
 -1.67327E+04  3.50577E+04 -2.89797E+04 -2.04686E+02 -8.82800E+03 -2.16546E+04  2.20602E+04 -3.06749E+04
  4.36656E+04 -8.50240E+03  4.29991E+04  2.24319E+04  1.78242E+04  5.29879E+04 -1.02355E+04  5.63489E+04
 -3.92205E+04  3.80548E+04 -4.58417E+04  6.13260E+03 -4.43321E+04 -1.91931E+04 -2.05943E+04 -3.93423E+04
  5.93417E+03 -3.96754E+04  2.94471E+04 -1.95457E+04  3.17292E+04  1.05157E+04  1.53525E+03  2.84957E+04
 -1.23128E+04  1.06274E+04 -8.90418E+03 -1.16755E+04  8.58102E+03 -1.52816E+04  2.09253E+04  4.96211E+03
  1.39761E+04  2.23673E+04 -2.19745E+03  2.86622E+04 -2.15551E+04  1.65494E+04 -2.70403E+04 -1.74493E+03
 -2.50456E+04 -2.01153E+04 -1.54065E+04 -2.45787E+04  4.41789E+03 -2.24390E+04  2.38299E+04 -1.79801E+04
  3.14394E+04 -1.47241E+04  3.65105E+04  5.64601E+03  2.47417E+04  2.52648E+04  6.01921E+03  3.93987E+04
 -2.01204E+04  3.71486E+04 -2.55912E+04  1.22252E+04 -2.09294E+04 -1.00719E+04  7.53235E+01 -1.54633E+04
 -3.53013E+02 -6.28425E+03 -5.61343E+03  9.67195E+03 -1.91826E+04  3.08636E+03 -1.79711E+04 -9.37142E+03
 -7.03331E+03 -2.00884E+04  9.93221E+03 -2.58710E+04  1.66344E+04 -1.52322E+04  2.08370E+04 -5.18115E+03
  1.51497E+04  1.36961E+04  1.63952E+03  1.78753E+04 -1.55458E+04  1.19132E+04 -1.83810E+04 -6.04864E+03
 -2.06240E+04 -2.17480E+04  1.10923E+03 -2.27768E+04  1.25262E+04 -1.87125E+04  2.21622E+04 -9.06452E+03
  1.66351E+04  1.56616E+03  1.65557E+04  8.76365E+03  1.00432E+04 -1.56391E+03  5.42871E+03 -5.56851E+03
  2.18200E+04  4.60247E+03  1.95527E+04  2.05832E+04  1.29692E+04  3.64172E+04 -2.93643E+03  4.39847E+04
 -2.35074E+04  3.43291E+04 -3.75239E+04  2.23814E+04 -4.05151E+04 -6.73047E+03 -3.12428E+04 -1.51176E+04
 -1.44627E+04 -2.95678E+04  1.13014E+04 -2.94371E+04  3.07484E+04 -1.92882E+04  2.97897E+04  2.24628E+03
  5.10042E+03  1.44788E+04 -7.88164E+03  1.33621E+04 -1.70373E+04  2.36048E+03 -1.82708E+04 -1.19667E+04
  3.74297E+03 -1.72386E+04  7.43434E+03 -1.64922E+04  1.29894E+04  1.48720E+03  1.27044E+03  9.50232E+03
 -9.22696E+03  5.81736E+03 -9.18885E+03 -8.06382E+02 -3.25033E+02 -1.82345E+04  7.80242E+03 -1.29021E+04
  1.77752E+04 -9.62660E+03  2.42846E+04  1.81559E+03  2.47998E+04  1.53987E+04  1.45395E+04  2.32506E+04
 -9.31904E+02  2.33162E+04 -1.90111E+04  1.67314E+04 -2.30950E+04  4.31181E+03 -1.34000E+04 -2.21355E+03
 -3.36904E+03 -1.01188E+04 -2.36025E+03  2.06523E+03 -1.64323E+03  3.36276E+03 -7.60000E+03  5.85328E+03
 -1.45718E+04  4.26138E+03 -1.62232E+04 -9.79419E+03  2.88318E+03 -1.58529E+04  9.26783E+03 -1.52687E+04
  1.29503E+04 -7.72689E+03  1.03892E+04  3.11101E+03 -3.94233E+02  3.99568E+03 -4.62422E+03 -6.95550E+03
 -8.44432E+03 -1.15879E+04 -4.12117E+03 -4.28031E+03  7.70882E+03 -1.39492E+04  1.47304E+04 -7.73553E+03
  2.12736E+04  4.74034E+03  1.58525E+04  1.26808E+04  3.89622E+03  1.54860E+04 -9.14409E+03  1.94946E+04
 -1.75321E+04  7.72431E+03 -2.40813E+03 -2.07091E+03 -8.98189E+02 -6.44711E+03  2.03537E+03 -2.37594E+03
  8.58209E+03  1.04532E+04  9.19035E+02  1.13654E+04 -8.98613E+03  5.95314E+03 -1.48410E+04  2.54046E+03
 -9.40096E+03 -4.59101E+03 -4.28895E+03 -1.24859E+04  8.86375E+03 -7.99134E+03  8.73403E+03  5.28422E+03
 -2.05074E+03  1.17645E+04 -1.38181E+04  7.66790E+03 -1.14600E+04  4.78505E+03 -1.40840E+04 -3.74183E+03
 -2.31743E+03 -1.64562E+04  3.05864E+03 -1.64711E+04  1.65295E+04 -7.53638E+03  1.03119E+04 -9.45654E+02
  8.45889E+03  1.54546E+04 -2.77360E+03  1.55855E+04 -1.10206E+04  9.61537E+03 -1.33454E+04  1.82070E+03
 -9.51520E+03 -7.03727E+03 -4.58006E+03 -1.14486E+04  1.04934E+04 -1.67742E+04  8.40698E+03 -4.57686E+03
  1.67698E+03  6.87182E+03 -3.82477E+03 -2.62293E+03  1.02439E+03 -4.65391E+03  4.52834E+03 -1.04279E+04
  4.40544E+03 -2.09476E+03  5.27094E+03  1.23056E+03  1.26287E+04  1.06636E+04  9.73128E+03  1.57026E+04
 -3.96819E+03  2.60107E+04 -1.70142E+04  1.10767E+04 -2.19960E+04  9.73414E+02 -1.99048E+04 -1.17580E+04
 -4.19620E+03 -1.90950E+04 -5.78843E+03 -1.22971E+04  1.78704E+03 -5.79600E+03  7.45259E+03 -5.55525E+03
  4.24827E+03 -2.95335E+03  1.41705E+03 -4.14354E+03  4.10222E+03 -6.71376E+03  1.01051E+04 -6.57443E+02
  1.10803E+04  4.59302E+03  9.78057E+02  9.11817E+02 -1.46489E+03  8.65099E+03 -2.51873E+03  3.83338E+03
 -1.32996E+04  9.97459E+02 -6.01764E+03 -1.00953E+04 -2.68099E+03 -1.48631E+04  1.03214E+04 -1.74328E+04
  1.38183E+04 -1.03177E+04  1.30608E+04  3.21551E+03  8.84112E+03  1.10100E+04 -3.49705E+03  1.85605E+04
 -1.12137E+04  1.34444E+04 -1.65882E+04  5.14742E+03 -4.99855E+03 -1.33052E+03 -5.70989E+02 -3.13270E+03
 -1.03576E+02  2.43882E+03 -8.12829E+02  1.85874E+03 -4.64134E+03  5.98944E+03 -9.63333E+03 -1.27787E+03
 -1.12019E+04 -8.95038E+03  7.60560E+02 -7.56119E+03  9.94916E+03 -1.00496E+04  1.00624E+04 -3.33201E+03
  1.37606E+04  5.55954E+03  6.35643E+03  9.76747E+03 -1.52363E+03  8.54743E+03 -7.34567E+03  2.82657E+03
 -1.49140E+04  5.87537E+03 -1.12371E+04 -8.91860E+03  2.58034E+03 -7.79448E+03  4.32087E+03 -1.15055E+04
  9.06821E+03  1.41853E+03  3.45227E+03  2.98055E+03  7.71578E+02  4.72456E+03  1.28265E+03 -1.55026E+03
  2.15940E+03 -3.95834E+02  7.58832E+03  7.33763E+03  9.46805E+03  4.86034E+03  9.47213E+03  1.03738E+04
 -1.02991E+04  1.38222E+04 -8.98945E+03  1.10314E+04 -1.14876E+04  1.15535E+03 -1.12686E+04 -7.45134E+03
 -6.65388E+03 -1.18878E+04  1.44520E+03 -1.09412E+04  6.25395E+03 -8.15885E+03  8.38770E+03  1.35045E+03
  1.11021E+04  6.15456E+03 -2.98947E+03  5.13507E+03  1.18305E+03  4.06632E+03 -4.94126E+03  4.84842E+02
 -9.89849E+02 -1.51846E+04  5.79874E+03 -3.12166E+03  5.83191E+03 -1.78453E+03  5.51872E+03 -2.22870E+03
 -2.70825E+03  5.07902E+03 -9.25886E+02  2.12457E+02  1.67900E+02 -4.33855E+03 -1.92786E+03 -3.01262E+03
  3.18506E+03  2.16988E+03  9.46021E+03  2.09837E+03 -1.06933E+03  6.21043E+03  3.22817E+02  9.16990E+03
 -1.43287E+03  6.22411E+03 -1.14909E+04  6.92774E+02 -7.53752E+03 -5.79646E+02 -2.71654E+03 -7.33031E+03
  1.73407E+03  4.52035E+03  1.21952E+03 -5.02680E+03  1.15630E+03 -3.83211E+02  8.39486E+02  4.39250E+03
 -3.25752E+03  1.00057E+04 -9.05483E+03 -5.21224E+03  2.95791E+03 -8.53022E+03  6.44574E+03 -5.22373E+03
  3.77684E+03 -2.79499E+03  3.84336E+01 -2.38493E+03  8.29860E+03 -7.41663E+02  2.40159E+03  4.96269E+03
 -1.86617E+03 -1.15307E+03 -6.38751E+03 -4.44369E+03  9.52127E+01 -1.54601E+04  4.19576E+03 -3.84006E+03
  7.48788E+03  5.13464E+03  7.21974E+03 -1.22888E+03  1.67564E+03  8.44805E+03 -2.25745E+03  8.12251E+03
 -5.97264E+03  2.03448E+03 -4.46241E+03 -2.91169E+02 -8.28986E+03 -6.35368E+03 -3.86276E+03 -8.42586E+03
  6.42732E+03 -7.57578E+03  1.42636E+03  4.08317E+02  9.91095E+02 -1.26235E+03 -2.38958E+03  4.55713E+03
  3.07521E+03  1.92446E+03 -1.26560E+03  5.98082E+02 -9.40633E+02 -7.28381E+02 -7.31994E+02  9.81490E+02
 -1.31632E+03  3.74117E+03 -6.20599E+03  6.59028E+03 -8.70312E+03  1.43567E+03 -7.10088E+03 -1.51591E+03
 -7.86751E+03 -9.66687E+03 -3.26687E+03 -1.57508E+04  1.13474E+04 -1.01022E+04  1.11398E+04 -2.40838E+03
  9.71634E+03  3.02063E+03  5.06426E+03  3.55713E+03 -2.40451E+03  7.24623E+03 -7.43007E+03  5.67384E+03
 -2.68855E+02  9.33104E+03 -8.30156E+03  3.45730E+03 -5.66650E+02 -5.91615E+03  1.05392E+03  9.41699E+01
 -5.31031E+03  6.90287E+03 -5.22717E+02  3.74029E+03 -2.60139E+03 -3.15055E+03  2.87254E+01  1.95267E+03
  6.35940E+03 -2.96796E+03  8.10801E+03  1.61352E+01  7.25971E+03  5.54289E+02 -5.59176E+03  2.55620E+03
 -4.51026E+03  1.08268E+04 -1.18197E+04  2.50869E+03 -4.59334E+03 -5.23976E+03 -5.43564E+03 -8.00065E+01
  8.09859E+00 -7.06527E+03  3.11872E+03 -8.05979E+03  3.49703E+03 -2.72732E+03  5.21837E+03 -4.10613E+03
  1.93695E+03  3.73306E+03  2.50712E+02  4.34598E+02  5.07398E+02 -4.94710E+02 -3.77848E+03 -1.17656E+03
 -3.00654E+03  2.78386E+03  5.80634E+03 -1.31729E+03 -5.13981E+03 -2.54014E+02 -1.75569E+02  4.36176E+03
 -1.29229E+03  3.24206E+03 -8.01258E+03  4.55045E+03 -8.67066E+03 -6.38351E+03 -1.71669E+03 -2.52677E+03
  1.53655E+03 -3.96686E+03  1.12200E+04 -6.32358E+03  5.18735E+03  3.47868E+03 -6.14972E+02  8.02251E+03
  1.53878E+03  7.82468E+03  1.21474E+03  1.22114E+03  1.75414E+03  4.63376E+03 -5.24919E+03  2.36527E+03
 -4.53745E+03 -8.01621E+02 -2.45569E+03  2.13602E+03 -2.08221E+03 -1.67254E+03 -4.58586E+03 -6.20959E+03
 -5.68638E+03  4.50315E+00  9.95129E+02 -4.18158E+02  9.66838E+02 -4.02908E+03  7.14888E+03  9.46149E+02
  6.69977E+03 -1.22862E+03  5.32701E+03  6.10746E+02 -6.28639E+02  5.34560E+03 -5.83379E+03  5.44014E+03
