 $NMID ID='MM_0lb_SNR50_12hz_g60_56.RAW', FMTDAT='(8E13.5)'
 TRAMP=1., VOLUME=1. $END
  3.10828E+05  2.51902E+03  3.41882E+05  2.49098E+05  8.27511E+04  3.33521E+05 -1.32818E+05  2.48050E+05
 -1.94595E+05  7.60233E+04 -1.12644E+05 -3.67912E+04  1.80084E+03 -5.30100E+04  5.25914E+04  2.56007E+03
  3.59692E+04  5.24900E+04 -2.17992E+04  7.39413E+04 -5.78915E+04  7.01557E+04 -8.75443E+04  3.30387E+04
 -7.52296E+04 -5.05465E+03 -5.47740E+04 -5.09886E+04 -1.44995E+04 -7.47654E+04  2.77415E+04 -4.61242E+04
  4.32489E+04  7.37167E+03  1.74805E+04  5.17323E+04 -3.25801E+04  4.51245E+04 -7.09076E+04  1.56546E+02
 -5.79622E+04 -5.72857E+04 -6.89721E+03 -8.07068E+04  3.76295E+04 -5.62714E+04  4.87728E+04 -1.51858E+04
  4.39391E+04  1.23536E+04  2.49052E+04  2.84973E+04  1.48653E+04  2.38198E+04 -4.14112E+03  2.72378E+04
 -2.14243E+04  1.23700E+04 -1.67839E+04 -3.01471E+03  1.06082E+04 -1.32511E+04  1.86587E+04  1.60891E+04
  6.12876E+03  2.91089E+04 -3.07805E+04  3.19504E+04 -6.72393E+04  4.17160E+03 -5.44706E+04 -4.12672E+04
 -1.14965E+04 -6.79932E+04  3.47755E+04 -4.88436E+04  6.03166E+04 -4.78073E+03  4.14275E+04  3.51346E+04
  1.15605E+03  3.60297E+04 -4.02475E+04  1.85477E+04 -2.94868E+04 -5.36940E+03 -1.72330E+04 -1.15412E+04
 -1.08430E+04 -1.88954E+04 -1.45933E+03 -1.92182E+04  1.15768E+04 -2.36013E+04  1.51772E+04 -1.68615E+04
  1.12988E+04  1.49494E+03 -9.39958E+03  1.16813E+04 -2.56329E+04 -8.95317E+03 -8.09512E+03 -3.83168E+04
  3.08862E+04 -4.46981E+04  4.69943E+04 -2.45129E+04  4.60486E+04  1.97864E+04  1.82612E+04  4.41355E+04
 -1.11281E+04  3.19450E+04 -2.33465E+04  9.29004E+02 -7.52299E+03 -2.89408E+04  2.58209E+04 -3.37315E+04
  4.58300E+04 -7.22710E+03  4.22186E+04  2.52679E+04  2.33149E+04  4.58096E+04 -7.93246E+03  5.80078E+04
 -3.70116E+04  4.45465E+04 -4.76212E+04  1.49048E+04 -4.24281E+04 -1.59946E+04 -2.44924E+04 -4.18458E+04
  7.37533E+03 -3.61196E+04  3.62291E+04 -2.11684E+04  2.58819E+04  1.34395E+04  1.47879E+03  2.41394E+04
 -6.94431E+03  5.92048E+03 -1.55866E+04 -6.84219E+03  5.39077E+03 -1.17880E+04  1.21655E+04  4.95546E+03
  1.54025E+04  2.63573E+04 -7.63689E+03  2.84468E+04 -2.76510E+04  1.72398E+04 -3.25061E+04 -1.08269E+03
 -1.96423E+04 -2.12133E+04 -1.04134E+04 -2.24947E+04  7.92144E+03 -2.77523E+04  1.82174E+04 -2.44208E+04
  3.14377E+04 -1.89814E+04  3.89721E+04  3.53190E+03  2.27926E+04  2.18517E+04  4.91152E+03  4.17031E+04
 -2.16272E+04  3.80976E+04 -2.83392E+04  1.49558E+04 -2.25202E+04 -6.32292E+03 -3.01236E+03 -1.60263E+04
  2.51714E+03  1.90138E+03 -8.20268E+03  3.93051E+03 -2.55901E+04  7.48091E+03 -1.78222E+04 -8.29900E+03
 -1.32859E+04 -2.44742E+04  7.05830E+03 -2.73963E+04  1.35474E+04 -2.03286E+04  1.87658E+04 -1.36771E+02
  1.60948E+04  1.50509E+04 -2.36647E+03  2.32378E+04 -1.33549E+04  1.35707E+04 -2.29044E+04 -3.29872E+03
 -1.45842E+04 -1.99024E+04 -2.17339E+03 -2.84866E+04  1.21819E+04 -1.38676E+04  1.45084E+04 -1.33509E+04
  1.99953E+04  1.63684E+03  1.45934E+04  8.92391E+03  4.05517E+03  2.30441E+03  1.36077E+04  8.92260E+03
  2.05120E+04  1.14788E+03  2.35613E+04  1.86385E+04  1.64984E+04  3.70037E+04 -2.61569E+03  3.64061E+04
 -1.94529E+04  3.21196E+04 -4.16591E+04  1.55249E+04 -4.00738E+04  4.43767E+03 -3.48234E+04 -2.22966E+04
 -1.45829E+04 -3.30588E+04  1.28281E+04 -3.12892E+04  2.45556E+04 -1.74594E+04  1.69992E+04  1.75928E+03
  1.11622E+04  1.47461E+04 -1.85921E+04  1.24463E+04 -2.01792E+04 -1.10828E+02 -1.10702E+04 -1.58283E+04
  2.95595E+03 -1.86142E+04  3.32785E+03 -1.48513E+04  8.01109E+03 -2.45352E+03  3.12105E+02  6.25155E+03
 -1.51514E+04  4.73544E+03 -2.95946E+03 -8.42509E+03 -2.91317E+03 -1.70966E+04  5.59545E+03 -1.87767E+04
  1.55759E+04 -8.16500E+03  1.87068E+04  2.56375E+02  1.81932E+04  1.65482E+04  4.65890E+03  2.95678E+04
 -7.01070E+03  3.31223E+04 -1.83326E+04  2.08747E+04 -1.90393E+04 -3.72561E+02 -9.96409E+03 -1.81460E+02
 -3.32352E+03 -4.61722E+03 -8.98943E+02  1.49473E+03 -3.30789E+03  7.51850E+02 -7.58600E+03  1.61463E+02
 -1.08950E+04 -4.89701E+03 -1.35722E+04 -1.54184E+04 -3.72263E+03 -1.94487E+04  6.81830E+03 -1.74604E+04
  1.35899E+04 -5.51280E+03  7.11078E+03  6.75512E+03 -2.20433E+03  2.31510E+03 -2.09054E+03 -4.44406E+03
 -5.82113E+03 -9.38461E+03 -5.96120E+02 -1.00284E+04  1.20801E+04 -1.22827E+04  1.57270E+04 -7.56646E+03
  2.01287E+04  2.08734E+03  1.81032E+04  1.39272E+04  2.86623E+03  1.38625E+04 -4.16974E+03  1.51523E+04
 -1.15112E+04  1.51784E+03 -9.63269E+03 -4.30219E+03  9.24426E+03 -4.71763E+03  4.48854E+03  9.92501E+02
  3.83259E+03  9.74888E+03  5.09604E+02  1.03618E+04 -8.91000E+03  1.03974E+04 -1.18869E+04  2.28650E+03
 -6.22264E+03 -1.18915E+04  7.30940E+03 -1.26270E+04  4.36051E+03 -8.46196E+03  2.22960E+03  4.82967E+03
  4.58662E+03  9.10822E+03 -4.29237E+03  6.87049E+03 -1.08482E+04  3.13630E+03 -1.14986E+04 -4.29883E+03
 -5.18617E+03 -1.26936E+04  5.00262E+03 -1.56620E+04  1.49393E+04 -8.12713E+03  1.48212E+04  2.77241E+03
  5.26303E+03  1.73450E+04 -1.65867E+03  1.23198E+04 -1.10422E+04  5.81949E+03 -9.29081E+03 -2.58922E+02
 -5.78870E+03 -4.83870E+03 -5.14493E+03 -1.41256E+04  7.23728E+03 -1.31373E+04  7.67691E+03  1.57080E+03
  4.16991E+03  2.63604E+03 -2.40205E+03 -1.13209E+03  2.09738E+03 -3.70696E+03  2.74502E+03 -1.11837E+04
  1.32311E+04 -2.86575E+03  1.06451E+04 -5.66027E+02  1.31148E+04  1.09584E+04  1.33204E+04  1.62029E+04
  7.43751E+02  1.67488E+04 -1.58260E+04  1.90336E+04 -2.51087E+04  9.84235E+02 -1.56002E+04 -3.11382E+03
 -1.29984E+04 -1.60129E+04  1.08110E+03 -4.18183E+03  5.53198E+03 -2.18400E+03  5.45117E+03 -6.56736E+03
  5.20786E+03 -3.48005E+03  1.76347E+03 -1.97922E+03  7.53865E+03 -4.13735E+03  2.67028E+03  4.83309E+03
  9.12288E+03  2.64735E+02  3.24055E+03  4.17406E+03 -3.21042E+03  1.13768E+04 -6.56801E+03  8.20830E+03
 -1.38095E+04 -2.77757E+03 -9.67614E+03 -7.31376E+03 -5.01324E+03 -1.40063E+04  6.50991E+03 -1.54826E+04
  1.21207E+04 -1.98224E+03  9.96239E+03 -1.22548E+01  1.00805E+04  1.15575E+04  5.53764E+03  1.50547E+04
 -3.68449E+03  1.10555E+04 -9.84628E+03  7.63083E+03 -6.46909E+03 -1.53512E+03 -4.25248E+03 -2.36815E+03
  7.31307E+02  1.29529E+03 -3.89730E+02 -1.25131E+03 -8.81689E+03  1.03977E+04 -1.06003E+04 -7.50668E+03
 -5.06169E+03 -6.45333E+03  5.31976E+02 -2.14104E+04  9.58209E+03 -8.15306E+03  1.15588E+04 -4.71771E+03
  1.03555E+04  5.17877E+03  5.51834E+03  1.22186E+04 -7.76783E+03  1.32155E+04 -2.46613E+03  2.56088E+03
 -1.12954E+04 -1.50317E+03 -6.60096E+03 -6.46007E+03 -1.25626E+03 -6.65243E+03  3.09192E+03 -7.63711E+03
  7.03252E+03 -1.02357E+03  2.92985E+03  2.49076E+03  1.35147E+03  7.83971E+03 -1.52884E+03  2.61213E+03
  1.15535E+03  2.88395E+03  3.84691E+03  7.86744E+02  1.52382E+03  2.35216E+03  3.43316E+03  1.25121E+04
 -3.03416E+03  5.21672E+03 -7.73333E+03  8.73804E+03 -4.77302E+03  2.73356E+03 -1.27706E+04 -3.88366E+03
 -5.44726E+03 -1.05712E+04  5.53394E+03 -1.42569E+04  7.86704E+03 -7.52932E+03  6.25892E+03 -4.60701E+02
  5.97738E+03  1.21463E+04  7.95432E+02  6.76218E+03 -2.59882E+03  5.62665E+03 -4.78690E+03 -6.67692E+02
 -6.07495E+02 -7.36525E+03  2.13083E+03 -3.86259E+03  3.85454E+03  1.82913E+03 -1.09774E+03 -1.50633E+03
 -4.74074E+02  4.65288E+03  6.33606E+03  4.61754E+03  2.63829E+03  6.24329E+03  1.07629E+03  1.72142E+03
  5.63068E+03 -3.39101E+03  5.57811E+03 -4.03807E+02  3.04950E+03  6.63073E+03 -2.73110E+02  6.25897E+03
 -5.64251E+03  4.50678E+03 -1.05352E+04  4.35575E+03 -3.20965E+03 -6.20953E+03 -7.08682E+02 -4.91959E+03
 -3.41563E+02 -7.97530E+03 -2.01385E+03  3.49574E+03  5.00727E+03 -3.12704E+03 -2.28536E+03  1.68604E+03
 -6.32212E+03  2.22457E+03 -5.45725E+03 -6.28516E+03 -5.17914E+03 -8.60754E+03  2.46907E+03 -7.08459E+03
  2.10784E+03 -2.22902E+03  5.04089E+03 -1.14127E+03  5.76098E+03  2.42647E+03 -9.11710E+02  4.66180E+03
  7.97746E+02 -1.30082E+03 -5.26245E+03 -2.57142E+03  4.21913E+03 -7.41711E+03  8.43549E+03 -3.40167E+02
  2.41163E+03 -8.85915E+02  2.57300E+03  4.24833E+03  5.13618E+02  9.77730E+03 -2.68947E+03  3.43696E+03
 -6.92090E+03  9.12567E+03 -2.93824E+03 -4.77208E+03 -4.09275E+03 -2.76741E+03  2.48907E+03 -3.35212E+03
  5.44147E+03 -2.33129E+03  2.49263E+03 -1.22871E+03  4.10145E+03  1.57942E+03  4.10688E+03  1.99379E+03
 -5.20906E+03 -7.88639E+02  2.15414E+03  2.67343E+03  3.02788E+02  3.76794E+03 -6.12763E+02 -3.38836E+03
 -1.09912E+03  7.34469E+03 -1.34028E+04  7.04680E+03 -5.44022E+03  4.12472E+03 -6.69203E+03 -4.06627E+03
 -4.01976E+03 -1.04240E+04  6.38691E+03 -1.03950E+04  7.86927E+03 -1.05917E+04  1.23977E+04 -2.60350E+03
  7.13794E+03  5.25903E+03  5.63259E+03  7.83957E+03  2.60893E+03  2.92490E+03 -4.32860E+03  8.59055E+03
 -3.98314E+03  1.44156E+03 -7.47370E+02 -3.13452E+03  1.16346E+03  5.97127E+03 -1.56973E+03 -3.29120E+02
 -3.46986E+03  3.68492E+03 -3.67999E+03  8.65637E+02  6.11349E+02 -2.61014E+02  1.44615E+03  1.06384E+03
  9.05968E+03  1.79295E+03  4.27137E+03  4.10031E+03  5.20840E+03  5.55147E+03 -1.55562E+03  3.55822E+03
 -3.92499E+03  8.52709E+03 -4.50440E+03  3.26486E+03 -1.27339E+04 -3.67230E+03 -6.46635E+03 -3.91754E+03
  2.54423E+03 -1.05971E+04  4.37889E+03 -4.49796E+03  3.14354E+03 -5.56419E+03  4.03069E+03  2.55592E+03
 -1.10525E+02 -1.18414E+03 -1.54222E+03  2.99946E+03  1.19372E+03 -7.32703E+03 -1.26804E+03  2.14654E+03
  3.38904E+03  6.99529E+03  6.43266E+03 -5.56217E+03 -4.52751E+02  1.14281E+03  2.48636E+02  6.89949E+03
 -2.42354E+03 -2.01248E+03 -1.22841E+03  1.24550E+03 -5.54749E+03 -7.37047E+02 -3.08041E+03 -5.78847E+03
  8.65541E+03 -5.43036E+03  1.15558E+03  3.18800E+03  4.19356E+03 -2.26056E+03  3.76441E+03 -3.32318E+01
  5.73184E+03  5.05222E+03 -8.94011E+03  1.90558E+03 -2.35247E+03  5.89103E+03 -2.58757E+03  1.65611E+03
  7.05336E+03  6.41109E+03 -3.14196E+03 -8.02519E+02 -4.25132E+02  1.72486E+03 -1.18195E+03 -1.57210E+02
  4.13206E+03 -1.83261E+03  6.79092E+02 -2.40920E+03  7.05078E+02 -6.71655E+03  6.65093E+03 -2.49746E+03
  4.93696E+03  1.27048E+03  2.78578E+02  2.14181E+03 -3.53056E+03  8.63089E+03 -2.81181E+03  1.02591E+03
