 $NMID ID='MM_0lb_SNR50_18hz_g45_33.RAW', FMTDAT='(8E13.5)'
 TRAMP=1., VOLUME=1. $END
  3.03067E+05 -3.55498E+03  3.34600E+05  2.51231E+05  8.84299E+04  3.36503E+05 -1.33043E+05  2.52165E+05
 -1.86913E+05  8.31294E+04 -1.10595E+05 -3.58924E+04 -2.77250E+03 -4.79422E+04  5.42218E+04  3.04925E+03
  3.59633E+04  5.43260E+04 -1.85862E+04  7.34965E+04 -6.19788E+04  5.80032E+04 -7.86400E+04  2.92664E+04
 -8.28168E+04 -1.21130E+04 -5.73783E+04 -5.13229E+04 -1.69468E+04 -6.68291E+04  2.55524E+04 -4.45823E+04
  3.90886E+04  5.19471E+03  1.28185E+04  4.43785E+04 -3.29866E+04  4.70813E+04 -6.21980E+04  7.92813E+02
 -5.07849E+04 -5.27909E+04 -5.72697E+03 -7.69343E+04  3.24370E+04 -4.88120E+04  4.41836E+04 -1.45673E+04
  3.92143E+04  1.55907E+04  2.98463E+04  2.46826E+04  1.40492E+04  2.58799E+04 -4.65996E+03  2.35935E+04
 -2.37815E+04  1.35626E+04 -2.17209E+04 -4.36927E+03  2.71062E+03 -6.79900E+03  2.45100E+04  1.18135E+04
  9.93716E+03  3.11027E+04 -3.35808E+04  2.96192E+04 -6.27245E+04  2.92883E+02 -5.63221E+04 -4.17401E+04
 -1.24347E+04 -5.82218E+04  4.07192E+04 -4.15998E+04  5.22532E+04  9.75879E+02  3.16279E+04  2.91773E+04
 -6.06121E+03  3.28661E+04 -2.83687E+04  1.46003E+04 -3.49828E+04 -3.02165E+03 -1.23995E+04 -1.10694E+04
 -9.10149E+03 -1.72346E+04 -1.94352E+03 -1.63319E+04  4.57422E+03 -2.73429E+04  1.66567E+04 -1.19165E+04
  8.63611E+03  2.33866E+03 -5.00796E+03  7.00074E+03 -2.35105E+04 -7.87558E+02 -5.12101E+03 -3.65230E+04
  1.87989E+04 -4.13256E+04  4.61300E+04 -1.90171E+04  3.98600E+04  1.81330E+04  1.59543E+04  4.10382E+04
 -1.50299E+04  2.67716E+04 -2.30798E+04  1.08702E+03 -8.65051E+03 -3.01947E+04  1.63078E+04 -3.12924E+04
  3.92165E+04 -7.49169E+03  3.13998E+04  2.15795E+04  1.60261E+04  4.52024E+04 -8.08997E+03  4.61222E+04
 -3.17122E+04  2.86669E+04 -3.54349E+04  1.22346E+04 -3.99901E+04 -1.50464E+04 -1.84445E+04 -3.52454E+04
  2.72362E+03 -3.49684E+04  3.11859E+04 -1.29760E+04  2.70311E+04  7.80400E+03  2.28499E+03  2.14521E+04
 -8.60388E+03  7.56570E+03 -8.62813E+03 -8.84383E+03  5.88111E+03 -7.82964E+03  1.57193E+04  9.11072E+03
  6.19566E+03  2.17184E+04 -5.65180E+03  2.65650E+04 -2.20745E+04  1.13657E+04 -2.77328E+04 -2.20333E+03
 -1.28147E+04 -1.81450E+04 -4.22148E+03 -1.72826E+04  5.26249E+03 -1.58079E+04  1.60873E+04 -1.45884E+04
  2.17113E+04 -1.10086E+04  2.99026E+04  3.22821E+03  2.32391E+04  1.77910E+04  3.38190E+03  3.14921E+04
 -1.65812E+04  2.45440E+04 -2.48334E+04  8.31617E+03 -2.07165E+04 -8.86367E+03 -2.18907E+03 -1.37048E+04
  6.77194E+03 -2.46988E+03 -1.91434E+03  2.80570E+03 -1.65080E+04  4.15197E+03 -1.18705E+04 -6.25562E+03
 -7.64874E+03 -2.03885E+04  4.44493E+03 -1.73874E+04  1.24141E+04 -1.35376E+04  1.21173E+04 -1.16874E+03
  1.29315E+04  9.57720E+03  1.73644E+03  1.72600E+04 -1.27982E+04  6.84503E+03 -1.59331E+04 -1.30598E+03
 -8.75867E+03 -1.58209E+04 -5.02471E+03 -1.58373E+04  1.14122E+04 -1.48246E+04  1.62197E+04 -6.00519E+03
  1.45701E+04 -2.45966E+02  1.24684E+04  3.96889E+03  6.27246E+03  8.11329E+02  1.08181E+04 -2.02866E+03
  1.53827E+04  2.30396E+03  1.81221E+04  1.49256E+04  8.05118E+03  2.35128E+04 -3.99402E+03  2.89529E+04
 -1.65442E+04  1.99767E+04 -2.47484E+04  1.18391E+04 -2.98123E+04 -4.02752E+03 -1.75060E+04 -1.31020E+04
 -1.06866E+04 -2.24351E+04  6.10461E+03 -1.94887E+04  1.53423E+04 -1.00173E+04  1.60638E+04  4.35467E+03
  9.35808E+03  1.28477E+04 -7.97818E+03  1.02930E+04 -1.43136E+04  3.86462E+03 -1.23047E+04 -7.71127E+03
 -8.26902E+02 -1.06333E+04  5.96433E+03 -9.64474E+03  8.55922E+03 -1.59293E+03 -3.03371E+03  6.16564E+03
 -3.60072E+03  9.77541E+01 -3.00637E+03 -8.19683E+03  2.09395E+03 -1.50725E+04  9.51212E+03 -9.17249E+03
  1.32278E+04 -9.41789E+03  8.24064E+03 -1.73568E+02  7.74412E+03  1.19033E+04  5.36069E+03  1.04413E+04
  6.38457E+01  1.07881E+04 -1.03365E+04  1.00959E+04 -1.09359E+04  5.62387E+03 -9.00284E+03 -7.72586E+02
 -1.04632E+04 -5.00976E+03  8.37562E+02  3.92322E+03 -1.29510E+03 -6.52778E+02  1.49777E+03  4.36243E+03
 -1.12374E+04  2.51385E+03 -7.13918E+03 -5.29834E+03 -9.19186E+03 -1.33811E+04 -1.23951E+02 -5.65478E+03
  7.53202E+03 -7.53591E+03  4.43136E+03  1.38193E+03  3.53783E+03  4.82849E+03 -8.18299E+03 -1.43822E+03
 -7.76814E+03 -5.98104E+03 -4.81289E+03 -4.60122E+03  4.87769E+03 -8.68591E+03  1.42096E+04 -1.56589E+03
  1.31431E+04 -6.32069E+01  8.82106E+03  5.98301E+03  2.10213E+03  6.52452E+03 -5.64249E+03  8.88410E+03
 -4.63144E+03  2.25147E+02 -4.59086E+03 -3.45583E+03  3.33012E+03 -1.44406E+03  5.79429E+03  2.90157E+03
  7.25059E+03  7.29061E+03  2.70914E+03  4.27426E+03 -9.41930E+03  6.57960E+03 -4.59163E+03  2.66731E+03
 -9.45639E+03 -1.15883E+03  3.17918E+03 -1.07346E+04  1.86797E+03 -2.84021E+03 -1.68271E+02  2.94247E+03
 -1.08567E+03  6.49564E+03 -1.02642E+03  2.60294E+03 -6.30463E+03  2.59207E+03 -1.25423E+03  4.81593E+02
 -3.17974E+03 -4.08454E+03 -3.99789E+02 -7.03611E+03  4.17112E+03 -7.43176E+03  6.54077E+03  1.13253E+03
  2.06638E+03  7.63090E+03 -2.15342E+03  3.64759E+03 -5.94640E+03  3.03766E+03 -4.80958E+03 -2.32274E+03
 -9.97746E+03 -4.30560E+03  3.87061E+03 -4.23079E+03  1.74876E+03 -5.90200E+03  2.25490E+03 -2.52950E+03
  2.58345E+03 -1.79980E+02 -2.79657E+03  2.04915E+03 -3.02167E+02  2.44121E+03 -2.32500E+02 -3.64805E+03
  3.97531E+03 -1.93297E+03  6.83511E+03 -2.73346E+03  4.35897E+03  5.68524E+03  2.38142E+03  8.61502E+03
  3.30573E+03  1.04203E+04 -1.08065E+04  4.60117E+03 -1.33163E+04  9.64731E+02 -9.87025E+03 -6.20629E+02
 -7.59405E+03 -7.47803E+03 -2.77013E+03 -6.19606E+03  1.71444E+03 -1.95112E+03  2.76723E+03 -1.85268E+03
 -2.08779E+03  1.94168E+03  5.50337E+03 -3.51091E+03  3.43042E+03 -3.62017E+02  9.07022E+03  1.48147E+03
  5.64717E+03 -2.39400E+03  5.41026E+03  3.92931E+03 -3.85724E+03  3.17228E+03 -4.12692E+03  6.21072E+03
 -5.71835E+03 -3.30468E+02 -6.61952E+02 -2.01909E+03 -3.42881E+03 -5.94443E+03  1.46162E+03 -4.97172E+03
  5.48427E+03 -3.51699E+03  8.68675E+03 -2.14452E+01  6.85262E+03  7.06512E+03  1.97555E+03  5.69574E+03
 -3.05033E+03  4.46850E+03 -1.13962E+03  2.32717E+03 -3.34499E+03 -2.23513E+03  3.01766E+03 -4.15676E+00
 -1.61845E+03 -7.24588E+02 -4.91265E+03  3.04122E+03 -5.89087E+03 -1.80784E+03 -5.62626E+03  1.21827E+03
 -2.58112E+03 -5.52523E+03 -2.59402E+01 -8.43397E+03 -2.77146E+02 -4.78822E+03  3.97004E+03 -1.02640E+03
  2.77006E+03  2.87154E+03  3.74926E+03  9.15065E+02 -7.65544E+02  5.76175E+03 -3.90195E+03 -7.11587E+02
 -3.38876E+03  2.81813E+03 -2.20936E+03 -4.53830E+03 -6.95703E+03 -2.20638E+03  1.21729E+03 -7.73217E+03
  1.43441E+03  8.65259E+02 -8.27308E+02  2.33936E+03 -1.04017E+03  8.81192E+02 -2.01751E+03  3.24605E+03
  1.03574E+03  1.88481E+03  4.71137E+02  6.10758E+03 -1.76644E+02  6.78679E+03  2.66410E+03  2.44800E+03
 -4.18880E+03  4.01073E+03 -7.01644E+03  8.44195E+03 -9.53482E+02  2.75218E+03 -1.70696E+03 -3.50242E+03
 -4.02033E+03 -4.88021E+03 -1.50571E+03 -6.88020E+03  1.11989E+03 -6.42704E+03  2.37924E+03 -1.57478E+03
  8.26535E+02  4.13493E+03  9.34428E+02  1.88698E+03  1.31182E+03  2.83864E+03  1.25348E+03  1.74063E+03
 -6.60683E+02  1.41048E+03  3.92841E+03 -5.72000E+03  2.13485E+02  2.41466E+03  5.23387E+03  1.66988E+03
  2.12848E+03  2.81959E+03  6.10647E+02  6.14974E+03 -4.18076E+03 -1.49334E+03 -9.94342E+02  8.64728E+02
 -3.70797E+03  1.25021E+03  1.28759E+03  3.80909E+02  8.37619E+02  1.02446E+03 -2.81649E+02  9.13745E+02
 -1.27092E+03  1.40333E+02 -2.28889E+03  3.48232E+03 -1.97160E+03 -4.26759E+03 -1.53414E+03 -7.48454E+02
  8.40048E+02 -7.81071E+02 -7.13361E+01  5.11590E+03  1.17086E+03  1.28318E+03 -2.85738E+03  1.93181E+02
 -1.17155E+03  1.84343E+03 -6.25317E+03 -2.60444E+02  1.17277E+03  2.86148E+02  7.95370E+02 -1.94568E+03
  1.05034E+03  4.41696E+03  2.89242E+03  7.49591E+02 -6.37320E+02 -3.36725E+03  9.14193E+02  2.16034E+03
  2.90069E+01 -2.93616E+02 -1.40779E+03  1.20476E+03  6.32551E+02 -2.01884E+01  1.92069E+03 -1.45447E+03
  6.42684E+02  2.10019E+03  3.67120E+03  5.47595E+03 -1.17945E+03 -8.13385E+02  8.66180E+02 -5.96888E+02
 -4.50614E+03  2.19551E+03 -2.27672E+03  1.59122E+03 -5.75277E+03 -6.20777E+03 -3.50171E+03 -5.19895E+02
 -2.67608E+02 -5.01317E+03 -4.16291E+03  1.23873E+01 -9.35105E+02  6.42079E+02 -7.60874E+03 -4.24734E+03
 -4.58639E+03  3.25408E+03  2.86733E+03 -1.29430E+03  8.57050E+01  3.62770E+03 -4.07835E+03  3.30731E+03
 -9.39795E+02 -2.38562E+02  7.87990E+02  7.34206E+02  6.41007E+02  1.73925E+03 -4.15475E+02 -4.70882E+03
 -2.38317E+03 -5.51002E+03 -3.40560E+02 -3.93596E+03  2.68858E+03 -3.93106E+03  3.94301E+03 -5.28050E+03
  3.85854E+03  1.00722E+03  4.55076E+03  4.93615E+02 -3.61254E+02 -1.44153E+02  2.00262E+03  1.21247E+03
 -1.61379E+03  1.64089E+03 -2.34902E+03  1.33620E+03 -3.71016E+03  1.24723E+03 -5.39153E+03  2.16583E+03
  3.46333E+03 -9.47642E+02 -2.13441E+03 -1.76042E+03 -5.12307E+03 -3.43158E+03 -3.09243E+03 -1.55452E+03
  2.22208E+03 -1.42262E+03 -3.04196E+02  2.45633E+03  7.65849E+02 -1.18263E+03 -5.50631E+01  1.27422E+03
  1.49626E+03  3.79059E+03 -1.85314E+03  1.55472E+03 -3.61947E+03  2.54329E+03 -3.24843E+03 -3.31040E+03
 -2.49459E+02 -4.34334E+03  1.80050E+03  1.37826E+02 -2.35105E+03 -1.79175E+03 -3.74502E+03 -2.97484E+03
  1.17698E+03  2.58693E+03 -5.69885E+03  1.20010E+03 -1.77114E+03  1.46241E+03 -2.22014E+03 -3.55471E+02
  8.49340E+02  2.08955E+03  2.59936E+03  1.44446E+03  1.37403E+03  8.18388E+01 -1.99183E+03  1.69890E+03
 -2.14109E+03 -2.39200E+03  4.72968E+03 -4.25257E+02 -4.66737E+03  8.22382E+02 -2.53963E+03 -3.02835E+03
  2.05220E+02  3.08860E+03  6.09547E+02 -2.19637E+03 -1.26347E+03  5.85669E+02  1.25501E+03  4.16882E+03
  4.28121E+02 -2.53463E+03 -2.74484E+03 -2.67540E+03 -2.02322E+03 -1.30284E+03  4.94848E+02  1.69284E+03
 -3.42082E+03 -6.60405E+02 -9.92166E+02 -5.83714E+02 -1.73031E+02  4.33305E+03 -2.39607E+03 -2.03568E+02
 -1.99468E+03  4.45593E+03 -6.66035E+03 -1.05243E+03  2.27474E+03  1.72817E+02 -3.51315E+03  4.11918E+02
  3.89958E+03  9.13118E+02  3.79705E+03 -2.80881E+03  3.88800E+02 -2.11996E+03  6.11052E+02  8.94034E+02
