 $NMID ID='MM_0lb_SNR50_12hz_g40_67.RAW', FMTDAT='(8E13.5)'
 TRAMP=1., VOLUME=1. $END
  3.09744E+05  4.14699E+03  3.30313E+05  2.51932E+05  8.44068E+04  3.38515E+05 -1.31291E+05  2.49913E+05
 -1.91329E+05  8.56661E+04 -1.09960E+05 -3.03725E+04  6.03696E+01 -4.75627E+04  5.58216E+04 -2.93645E+03
  3.13346E+04  5.07717E+04 -1.26882E+04  7.34078E+04 -5.89751E+04  6.18093E+04 -8.21160E+04  2.96497E+04
 -7.44611E+04 -9.46465E+03 -5.23666E+04 -5.63406E+04 -1.75608E+04 -6.64269E+04  2.76334E+04 -4.72884E+04
  4.33688E+04  2.29717E+03  1.83697E+04  4.69702E+04 -3.49722E+04  4.68120E+04 -6.86631E+04 -2.73074E+02
 -5.63649E+04 -5.90316E+04 -4.37125E+03 -7.95707E+04  3.55606E+04 -5.37860E+04  5.09395E+04 -1.59954E+04
  4.09009E+04  1.61202E+04  3.05021E+04  2.77082E+04  1.57843E+04  3.29286E+04 -6.73714E+03  2.52642E+04
 -2.17295E+04  1.46654E+04 -2.31597E+04 -3.78571E+03  7.47216E+02 -1.07214E+04  1.93001E+04  1.52512E+04
  9.37841E+03  3.50436E+04 -2.89286E+04  3.41488E+04 -5.77914E+04  5.01688E+03 -5.88573E+04 -3.95706E+04
 -1.53350E+04 -6.87055E+04  3.45000E+04 -4.50492E+04  5.73350E+04  5.02912E+02  3.02454E+04  3.59150E+04
 -9.73201E+03  3.45445E+04 -3.26553E+04  1.27224E+04 -3.23816E+04 -8.79251E+03 -1.59111E+04 -6.41754E+03
 -9.38210E+03 -9.07808E+03 -4.09897E+03 -1.87330E+04  9.27998E+03 -2.28244E+04  1.36026E+04 -1.34176E+04
  1.42750E+04  7.35732E+03 -1.30915E+04  1.73544E+04 -1.40001E+04 -8.47103E+03 -9.75868E+03 -3.72766E+04
  2.88624E+04 -3.87229E+04  5.67204E+04 -1.96377E+04  4.87404E+04  1.85579E+04  1.30121E+04  4.67157E+04
 -1.72815E+04  3.54363E+04 -1.90587E+04  1.20850E+03 -9.07111E+03 -2.96321E+04  1.91114E+04 -3.09839E+04
  4.53753E+04 -5.76905E+03  3.86736E+04  2.81429E+04  1.96982E+04  4.49380E+04 -5.24754E+03  4.97620E+04
 -3.62145E+04  3.99641E+04 -4.67392E+04  1.05303E+04 -4.61161E+04 -2.15301E+04 -2.66975E+04 -3.82396E+04
  9.65425E+03 -3.81976E+04  3.83483E+04 -1.45698E+04  3.11272E+04  1.19826E+04  6.46625E+03  1.71371E+04
 -1.17210E+04  9.49265E+03 -6.83697E+03 -9.42762E+03  3.80205E+03 -1.17397E+04  1.41411E+04  2.84307E+03
  1.58865E+04  1.86926E+04 -8.55042E+03  3.15390E+04 -2.32751E+04  1.05882E+04 -2.33546E+04 -9.10859E+02
 -1.97371E+04 -1.80541E+04 -8.75720E+03 -2.17216E+04  1.30220E+03 -1.59547E+04  1.61838E+04 -2.13055E+04
  2.79836E+04 -1.61827E+04  4.19757E+04  3.69577E+03  2.47298E+04  1.88040E+04  4.83537E+03  3.62730E+04
 -2.07777E+04  3.19499E+04 -3.27716E+04  8.97302E+03 -2.57846E+04 -1.12225E+04 -7.99679E+03 -1.18922E+04
 -8.04700E+02 -6.66016E+03 -7.17771E+03  6.30833E+03 -1.28179E+04  1.08324E+04 -2.19223E+04 -3.94474E+03
 -1.04872E+04 -2.02618E+04  1.44280E+04 -2.36260E+04  2.02308E+04 -1.22911E+04  2.22880E+04 -3.00625E+03
  9.48529E+03  1.45064E+04 -3.16971E+03  1.79937E+04 -1.71427E+04  1.16386E+04 -1.83313E+04 -4.78487E+03
 -1.41113E+04 -2.24442E+04 -1.51539E+03 -2.53388E+04  8.20722E+03 -1.87504E+04  2.02460E+04 -6.97221E+03
  1.88487E+04  4.15241E+03  1.48593E+04  6.11905E+03  8.66001E+02  1.03844E+03  1.12631E+04  1.53881E+03
  1.55064E+04 -2.75849E+03  2.45917E+04  2.06320E+04  1.14391E+04  2.85318E+04  2.07001E+03  3.76832E+04
 -1.94062E+04  3.00680E+04 -3.43948E+04  1.69496E+04 -3.85567E+04 -4.39709E+03 -2.95473E+04 -1.83674E+04
 -1.36393E+04 -2.79538E+04  1.45333E+04 -2.84865E+04  2.31826E+04 -1.39022E+04  2.00656E+04  6.14779E+03
  8.85058E+03  1.45583E+04 -1.04973E+04  1.45298E+04 -1.52612E+04  3.44912E+03 -1.56515E+04 -1.42400E+04
 -1.13099E+03 -1.25096E+04  9.84587E+03 -7.96213E+03  1.31840E+04 -6.39645E+03  2.56856E+03  9.41693E+03
 -3.92823E+03  3.89130E+03 -5.70375E+03 -1.07702E+04 -1.05677E+03 -1.88396E+04  7.96804E+03 -1.27336E+04
  1.38896E+04 -6.81911E+03  1.96152E+04  1.32440E+03  2.29780E+04  1.34729E+04  7.43220E+03  2.23541E+04
 -2.93872E+03  2.50314E+04 -1.34334E+04  1.23435E+04 -1.89722E+04  4.93005E+03 -7.70298E+03  1.61584E+03
 -7.87342E+03 -4.55202E+03  2.69948E+03 -1.83610E+03 -2.23310E+03 -3.53600E+03 -6.84855E+03  1.79183E+03
 -1.23038E+04 -7.18762E+02 -1.45598E+04 -1.19097E+04 -2.47693E+03 -2.07877E+04  6.78553E+03 -1.35061E+04
  1.47491E+04 -1.44788E+03  4.83287E+03  6.34702E+03  2.15935E+03  5.56709E+03 -9.11525E+03 -2.23069E+02
 -5.95754E+03 -5.84094E+03 -7.25474E+02 -1.28130E+04  6.48577E+03 -8.96996E+03  1.59545E+04 -2.11101E+03
  1.64518E+04  5.34452E+03  1.44061E+04  1.09702E+04 -2.13629E+03  1.03425E+04 -9.65003E+03  1.10273E+04
 -8.13936E+03  6.59184E+03 -5.70894E+03 -4.21174E+03  1.19452E+03 -2.69596E+03  6.89692E+03 -2.00690E+03
  8.14976E+03  3.88164E+03  2.50482E+03  1.22743E+04 -6.64803E+03  7.00982E+03 -9.56467E+03 -2.03098E+03
 -5.39880E+03 -5.40586E+03  2.06705E+03 -5.33267E+03  6.67568E+03 -4.65006E+03  5.06280E+03  2.67958E+03
 -2.44031E+03  7.98257E+03 -8.45924E+03  8.98622E+03 -6.56569E+03  2.76065E+03 -1.21990E+04 -5.53268E+03
  2.06636E+03 -1.48197E+04  6.19901E+03 -7.23579E+03  8.93424E+03 -9.24861E+03  1.09595E+04  6.39553E+02
  9.68341E+03  1.34919E+04  3.95783E+02  9.94378E+03 -1.56599E+04  6.80320E+03 -4.11954E+03 -3.26224E+03
 -7.56081E+03 -6.37034E+03 -4.81323E+03 -7.52912E+03  6.70061E+03 -7.20207E+03  4.50029E+03 -1.17867E+03
  5.20614E+03  1.46003E+03 -7.59635E+03  3.29231E+03  1.84472E+03 -3.82423E+03  6.10686E+02 -4.36655E+03
  1.16614E+04 -6.07638E+03  4.90901E+03  9.29837E+02  9.23744E+03  9.65590E+03  1.04970E+04  1.04594E+04
 -3.72916E+03  1.63796E+04 -1.66946E+04  1.42384E+04 -1.98913E+04 -8.48752E+02 -1.43129E+04 -8.33133E+03
 -1.04049E+04 -1.03620E+04 -5.12675E+03 -9.94898E+03  5.58093E+03 -3.33986E+03  2.19643E+03  2.09808E+03
  8.43469E+00 -3.72239E+03  5.08651E+03 -6.04416E+03  6.57605E+03 -4.63702E+02  9.32960E+03 -1.28731E+03
  9.81351E+03  1.18448E+03  1.22814E+03  9.98251E+03 -3.69550E+02  1.12644E+04 -1.39382E+03  7.43607E+03
 -5.23358E+03  1.15844E+03 -5.89659E+03 -6.66427E+03  3.46500E+02 -9.04397E+03  5.78285E+03 -9.47918E+03
  1.73403E+04 -3.93680E+03  7.76422E+03  3.07441E+03  1.00691E+04  8.08011E+03  1.00763E+03  1.42445E+04
 -1.50915E+03  8.31789E+03 -8.50390E+03  3.99238E+02 -2.29961E+01 -6.00541E+03  1.95499E+02 -2.94018E+03
 -1.23158E+03  4.82570E+02  5.34868E+03  3.37917E+03  1.39281E+03  8.79437E+02 -3.73242E+03  3.05468E+01
 -1.02657E+04 -1.06826E+04 -9.58290E+02 -1.57052E+04  6.06520E+03 -9.23513E+03  8.10558E+03 -4.06340E+03
  6.34174E+03  9.98490E+03  3.34207E+03  1.29155E+04 -4.21141E+03  9.53458E+03 -6.26362E+03  3.03848E+03
 -5.91824E+03  2.03773E+03 -7.80779E+03 -5.29196E+03 -1.92857E+03 -7.40771E+03  9.50856E+03 -5.51360E+03
  6.67668E+03 -2.81003E+03  4.52865E+03 -7.07944E+02 -2.45493E+03  2.49064E+03 -2.07631E+03  3.35601E+02
  2.23989E+03  4.85446E+03 -4.86653E+03  4.85462E+03  3.47206E+03  7.50337E+03  6.60429E+01  5.38456E+03
 -2.27168E+03  1.01727E+04 -5.63262E+03  1.10705E+04 -9.61466E+03  5.60139E+03 -9.40555E+03 -8.79846E+03
 -1.93029E+03 -7.44228E+03  2.58569E+03 -8.57026E+03  1.77268E+03 -3.37947E+03  7.47054E+03 -2.95119E+03
  8.39388E+03  1.74623E+03  2.90324E+03  8.48683E+03 -3.62903E+03  3.46824E+03 -4.48720E+03 -9.04909E+03
 -4.82748E+02  9.61841E+02  3.83013E+03 -5.63421E+02  7.17639E+03 -1.64354E+03 -3.39466E+03  1.62262E+03
 -7.31884E+02  3.38476E+03  6.21703E+03 -1.20594E+02 -6.04342E+03  1.81617E+03  3.14018E+02 -8.07612E+03
  7.89808E+02 -1.82783E+03  7.37289E+03  4.43161E+03  5.24721E+02  3.44751E+03 -1.93463E+03  6.86406E+03
 -2.25621E+03  5.02728E+03 -8.59850E+03  1.96575E+03 -8.01623E+03  3.53912E+03 -6.97224E+03  8.46595E+02
  1.12961E+03  4.03625E+03 -1.73265E+03 -1.94474E+03  2.18226E+03  2.89397E+03 -5.62315E+03  4.34831E+03
 -8.07008E+03  4.37879E+03 -4.81176E+03 -1.30555E+03 -6.48584E+03 -7.63267E+03 -8.10078E+02 -6.40227E+03
 -3.31760E+02 -4.63273E+03  5.23682E+03 -1.54770E+03  2.72507E+02  2.71286E+03  6.23317E+02 -8.82514E+02
  1.13910E+03 -3.49828E+02 -4.11436E+03 -4.61491E+03 -5.88575E+02 -5.95078E+03  1.46636E+03 -1.17273E+03
  1.20050E+03 -1.92672E+03  4.45633E+03  7.30574E+03 -8.78771E+02  3.80152E+03 -3.98690E+03  8.23408E+03
 -7.01081E+03 -1.79859E+03 -7.89836E+03 -1.32248E+03  5.16687E+02  7.68720E+02  6.37652E+02 -7.25429E+02
  2.07075E+01 -6.81586E+03  1.05829E+03  3.55341E+03  2.79946E+03  3.69368E+03 -1.18675E+03  8.09159E+03
 -1.52340E+03  3.57667E+03 -2.57440E+03  7.08966E+02  1.84850E+03 -2.35614E+03 -1.95422E+02  3.66618E+03
  8.61666E+02  4.06286E+03  2.35884E+03  1.16748E+03 -5.69808E+03 -3.64755E+03 -6.27686E+03 -6.50700E+03
 -4.32322E+03 -1.15221E+04 -1.32038E+03 -1.49210E+04  5.26890E+03 -7.44499E+03  6.20653E+03 -5.06741E+03
  7.83720E+03  4.80105E+03  5.34201E+03  3.77910E+03  7.10810E+01  7.58571E+03 -9.30527E+02 -1.02465E+03
 -4.71136E+03  6.39693E+02  1.57203E+03 -8.54440E+02 -4.75166E+02 -2.48205E+03 -4.38156E+03  1.22833E+03
  3.60733E+02 -3.25128E+03 -5.46726E+03  2.68381E+03 -2.19220E+03  3.00892E+03  2.07889E+03 -5.60982E+03
  1.44416E+03 -5.19084E+03  4.81413E+03 -2.25625E+03  2.44845E+03 -1.85116E+03  2.88172E+03  6.57155E+02
 -5.55030E+03  1.14104E+04 -5.36109E+03  8.26444E+03 -4.08434E+03  1.58713E+03 -8.84677E+02 -2.00933E+03
 -2.62132E+02 -2.54557E+03 -5.22221E+02 -4.69360E+03  9.80677E+01 -3.61319E+03 -5.16416E+02 -6.31069E+03
  3.84697E+03  3.89070E+02 -3.15518E+03 -3.07327E+03  4.32034E+03  1.14540E+03 -7.80144E+02  1.70462E+03
  8.34287E+03  1.44935E+03  1.18656E+03  3.32542E+03  8.56266E+02  4.40950E+03 -7.38286E+02  8.94691E+03
 -1.77390E+03 -3.58834E+03 -6.38866E+03  3.95140E+02 -2.71576E+03 -8.81933E+02 -5.17501E+00 -4.73790E+03
  2.86225E+02 -1.14023E+03 -4.13487E+03 -3.28322E+03  3.05453E+03  5.28121E+03  9.73659E+03 -1.28005E+03
  5.32298E+03  2.06368E+03 -3.28270E+03  7.62926E+03 -2.72361E+03  6.84709E+03  9.30029E+02  4.29380E+03
  2.19769E+03 -5.39823E+02  1.79821E+02  3.79845E+03 -3.11498E+03  2.63073E+03 -5.93203E+03  3.13426E+03
 -5.08363E+03 -2.75941E+03 -1.53971E+03 -4.45886E+03  3.69583E+03 -1.17273E+02  2.29981E+03 -4.87430E+03
 -1.85016E+03  7.55196E+03  5.13371E+03  9.13506E+02 -1.84159E+03  8.06041E+03  2.01499E+03  1.55566E+03
