 $NMID ID='MM_0lb_SNR50_14hz_g40_48.RAW', FMTDAT='(8E13.5)'
 TRAMP=1., VOLUME=1. $END
  3.10172E+05  7.69445E+01  3.37293E+05  2.51818E+05  8.75512E+04  3.43160E+05 -1.31152E+05  2.52466E+05
 -1.89024E+05  8.09234E+04 -1.11979E+05 -3.56662E+04 -7.35860E+02 -4.95866E+04  5.31123E+04 -1.08146E+03
  3.15766E+04  5.14013E+04 -1.70455E+04  7.39448E+04 -5.83617E+04  5.89806E+04 -8.27027E+04  2.88824E+04
 -8.05050E+04 -1.22620E+04 -5.88410E+04 -5.27991E+04 -1.89869E+04 -6.90939E+04  2.25552E+04 -4.96295E+04
  3.97000E+04  6.43338E+03  1.78751E+04  4.06321E+04 -2.96784E+04  4.48476E+04 -6.54849E+04 -5.98044E+03
 -5.13386E+04 -5.67715E+04 -7.22881E+03 -7.67671E+04  3.73601E+04 -5.91729E+04  4.45384E+04 -1.81358E+04
  4.32543E+04  1.12957E+04  3.55200E+04  2.57657E+04  1.44538E+04  2.62963E+04  5.30296E+02  2.60502E+04
 -2.63673E+04  1.44356E+04 -2.41667E+04 -5.57283E+03  6.91739E+03 -5.14885E+03  2.10239E+04  1.37809E+04
  7.97741E+03  3.91636E+04 -3.34235E+04  3.38984E+04 -6.37320E+04  3.38131E+03 -5.94016E+04 -4.41233E+04
 -1.05146E+04 -6.59564E+04  4.29769E+04 -4.49312E+04  5.71168E+04 -2.93390E+02  3.12603E+04  3.38522E+04
 -1.15477E+04  3.24735E+04 -2.95861E+04  1.59589E+04 -2.99314E+04 -9.87167E+03 -1.42623E+04 -9.46677E+03
 -9.40577E+03 -1.45947E+04  4.38603E+03 -1.59264E+04  8.24772E+03 -2.02477E+04  1.70017E+04 -1.01886E+04
  1.44792E+04  1.16073E+04 -7.73922E+03  1.12081E+04 -2.38377E+04  7.74023E+02 -5.25432E+03 -3.13230E+04
  2.18358E+04 -4.26018E+04  4.68067E+04 -1.32391E+04  4.18320E+04  2.10984E+04  2.05950E+04  4.44126E+04
 -1.26376E+04  3.24677E+04 -2.38478E+04  2.52383E+03 -1.22019E+04 -2.76839E+04  2.01974E+04 -3.28534E+04
  3.89239E+04 -8.66644E+03  3.30231E+04  1.82223E+04  1.55020E+04  4.35379E+04 -9.31521E+03  4.88684E+04
 -3.21109E+04  2.93878E+04 -3.82252E+04  1.55387E+04 -3.48453E+04 -1.46549E+04 -2.30038E+04 -3.70665E+04
  8.80945E+03 -3.76119E+04  3.29392E+04 -1.23973E+04  2.97064E+04  1.69909E+04  2.32037E+03  1.73963E+04
 -1.42671E+04  8.50119E+03 -6.19525E+03 -5.85938E+03  7.61262E+03 -9.85520E+03  1.45925E+04  3.02926E+03
  1.47998E+04  2.02433E+04 -8.42813E+03  2.62139E+04 -2.11532E+04  1.20938E+04 -2.30760E+04 -6.57965E+03
 -2.19342E+04 -2.14384E+04 -9.81000E+03 -1.67888E+04  7.61379E+03 -2.29560E+04  8.32343E+03 -1.55198E+04
  2.42258E+04 -1.56350E+04  3.35054E+04 -2.57503E+03  2.29912E+04  1.93559E+04  2.58496E+03  3.33181E+04
 -2.21143E+04  3.23538E+04 -2.50778E+04  9.45923E+03 -1.87861E+04 -1.37012E+04 -3.79213E+03 -1.54534E+04
  2.63410E+03 -5.02677E+03 -4.49212E+02  5.09089E+03 -1.54277E+04  3.62041E+03 -1.94256E+04 -8.80287E+03
 -1.03789E+04 -1.80639E+04  5.02366E+03 -2.35135E+04  1.37246E+04 -1.48082E+04  1.55612E+04 -2.43168E+03
  1.16819E+04  1.57181E+04 -5.34986E+03  2.22332E+04 -1.37193E+04  1.09176E+04 -1.87798E+04 -7.79998E+03
 -1.38430E+04 -1.50976E+04 -5.02218E+03 -1.40757E+04  1.23502E+04 -2.42770E+04  2.04909E+04 -9.18764E+03
  1.97905E+04 -3.00246E+03  1.05160E+04  6.51978E+03  4.18802E+03  1.26110E+03  8.20224E+03 -6.83064E+02
  1.27366E+04  2.55281E+03  1.37025E+04  1.63447E+04  1.30501E+04  2.60176E+04 -3.63877E+03  3.71275E+04
 -2.17773E+04  2.54617E+04 -2.85759E+04  1.05126E+04 -3.43250E+04 -3.44172E+03 -2.51689E+04 -1.33593E+04
 -8.95666E+03 -2.82910E+04  8.68401E+03 -2.01875E+04  1.97130E+04 -1.30679E+04  1.78123E+04  2.91647E+03
  1.13613E+04  1.82587E+04 -7.02644E+03  9.45293E+03 -1.68859E+04  2.60527E+03 -9.14370E+03 -1.09814E+04
  2.33615E+03 -8.53081E+03  8.81379E+03 -8.51286E+03  5.90958E+03 -3.26803E+03  2.59149E+03  6.59532E+03
 -7.66141E+03  7.08546E+03 -1.42584E+03 -7.95760E+03  1.93906E+03 -1.29554E+04  1.00867E+04 -1.67384E+04
  1.56224E+04 -4.50978E+03  1.77978E+04  6.28122E+03  2.01464E+04  1.04869E+04  1.35605E+02  1.81594E+04
 -1.64038E+03  2.15887E+04 -1.76034E+04  1.40332E+04 -1.15165E+04  6.15981E+03 -1.15788E+04 -3.33311E+03
 -3.76697E+03 -6.16243E+03 -3.22935E+03  6.10182E+03 -3.94318E+03  2.29500E+03 -6.85095E+03  6.12900E+03
 -1.17407E+04 -2.11982E+03 -7.02136E+03 -5.72340E+03 -5.81340E+03 -1.61530E+04  8.56025E+03 -9.21653E+03
  5.21620E+03 -5.22804E+03  2.13401E+03  1.44546E+03 -1.76445E+03  1.72330E+03 -3.07208E+03 -3.82997E+03
 -4.58554E+03 -7.57794E+03  8.15389E+02 -1.16043E+04  7.97403E+03 -8.48223E+03  1.27248E+04 -9.53641E+03
  1.86250E+04 -9.80498E+02  9.76741E+03  6.22948E+03 -1.63594E+02  1.11286E+04 -8.33489E+03  9.19484E+03
 -1.10896E+04  3.88018E+03 -4.36650E+03 -6.15103E+03  1.53131E+03 -3.94739E+03  5.86535E+03  1.90076E+03
  1.16115E+03  7.97345E+03  5.93793E+02  9.80934E+03 -7.80195E+03  4.89384E+03 -1.08495E+04  5.89276E+03
 -8.31212E+03 -8.68472E+03 -3.03193E+03 -6.44931E+03  3.04485E+03 -1.05095E+03  3.38867E+03  3.91750E+03
  7.04188E+03  9.02255E+03 -1.06003E+04  6.18930E+03 -6.58813E+03  9.49724E+02 -1.12520E+04 -3.50726E+03
 -6.82020E+03 -1.11474E+04 -1.87041E+03 -9.81527E+03  6.15574E+03 -6.49699E+03  8.60847E+03  4.62094E+03
  3.35512E+03  1.05872E+04 -2.70353E+03  4.91130E+03 -6.01269E+03  6.91722E+03 -7.80790E+03  2.17917E+02
 -2.15479E+03 -2.45882E+03 -1.08230E+03 -4.99312E+03  3.16128E+03 -7.35598E+03  4.06907E+03 -2.93285E+03
  1.17740E+03 -1.59098E+03  4.83674E+03  4.03944E+03 -9.11820E+02  2.34153E+03  4.66267E+03 -5.22276E+03
  6.66178E+03  4.89948E+03  5.81579E+03  1.49582E+03  9.66072E+03  3.52728E+03  9.12617E+03  1.54829E+04
 -3.88211E+03  1.67057E+04 -1.38240E+04  3.72743E+03 -1.78116E+04  4.48501E+03 -9.99083E+03 -7.03908E+03
 -4.95229E+03 -9.91526E+03 -4.96835E+03 -2.87212E+03  6.38834E+03 -7.28282E+03  3.98723E+03 -1.35776E+03
  2.59165E+03 -9.38246E+02  2.66787E+01 -9.79334E+02  4.24676E+03 -5.06109E+03  3.49337E+03  2.56110E+03
  6.45639E+03 -4.55036E+02  4.40285E+03  8.99590E+03 -9.13894E+02  7.46436E+03 -5.09640E+03  5.68302E+03
 -7.38944E+03 -2.02113E+03 -4.18805E+03 -7.39045E+03  5.02077E+03 -9.77468E+03  3.45944E+03 -1.16376E+04
  7.88212E+03 -5.45670E+03  9.65897E+03  4.59653E+03  5.15788E+03  8.49469E+03  3.80430E+02  6.58971E+03
 -6.11085E+03  1.34703E+04 -8.02624E+03  4.42093E+03 -3.38798E+03 -1.37438E+03 -2.18930E+03 -2.96602E+02
 -7.21925E+03 -1.41558E+03 -4.70419E+03  2.94232E+03 -5.34491E+03  2.63428E+02 -6.91669E+03  1.93369E+03
 -4.35580E+03 -6.89136E+03  1.78547E+03 -4.03992E+03  4.74937E+03 -1.05175E+04  1.25656E+04 -6.68139E+02
  1.59224E+03  2.75818E+03  2.39985E+03  7.15767E+03 -1.33856E+03  8.18293E+03 -9.57115E+03  6.03285E+03
 -3.35300E+03 -1.58370E+03 -5.88975E+03 -2.01319E+03  2.63030E+02 -7.00458E+03  7.84890E+03 -3.48879E+03
  2.75165E+03 -4.38927E+03  1.67120E+03 -8.75902E+02 -1.14151E+03  6.86290E+03  4.67068E+02  2.75290E+03
  2.66773E+03 -1.13411E+03 -2.84443E+03 -3.45067E+03  1.06860E+02  9.59345E+02  4.36171E+03  1.07312E+03
  3.09424E+03  4.67138E+03 -6.38792E+03  6.20041E+03 -8.54211E+03 -7.17736E+02 -1.71769E+04 -6.21910E+03
  2.02887E+02 -5.41134E+03  2.64274E+03 -7.01712E+03  4.81936E+03 -1.90680E+03  6.16348E+03 -2.46441E+03
  2.07291E+03 -5.27746E+02  3.42622E+03  3.15125E+03  1.12186E+03  3.44973E+02  1.03713E+03 -1.74461E+03
 -6.49609E+03  1.41599E+03 -1.56826E+02 -7.98005E+03  1.34311E+03 -2.11623E+03  1.96695E+03  7.06870E+02
  3.21178E+03  1.43989E+03 -2.34559E+02  4.27496E+03  9.87699E+02  3.20960E+03  7.73654E+02  4.09645E+02
 -1.23450E+03  3.34393E+03  3.67246E+03 -1.05187E+02  1.55412E+03  7.37327E+03  1.30105E+03  3.40996E+03
 -4.01966E+03  4.60871E+03 -7.32320E+02  1.47588E+03 -5.46580E+03 -4.29241E+03 -2.03010E+03 -3.87335E+03
 -4.20934E+02 -4.23335E+03  2.25287E+03 -2.43059E+03  8.20584E+01  3.67541E+03 -5.55979E+03  4.90113E+02
 -5.92011E+03 -4.31787E+02 -4.48160E+02  2.89210E+03 -2.06124E+02 -3.87596E+03 -8.62077E+02 -4.64167E+03
  3.93663E+03 -4.09358E+02  6.67905E+03  1.33738E+03  7.36051E+03  1.52785E+02 -6.22258E+02  5.54964E+03
 -1.85088E+03 -7.21448E+02 -3.43207E+03 -1.83424E+03  2.84756E+03  1.08135E+03 -8.70244E+02 -1.49357E+03
  4.83101E+03 -4.05659E+03  5.02498E+03  5.10257E+02 -1.06707E+03  4.87848E+03 -7.65777E+02  2.57214E+03
 -1.60202E+03  1.70511E+03 -2.29192E+03  3.52392E+02 -5.24853E+03 -1.67233E+03 -1.03632E+03 -2.47104E+03
 -6.41627E+02 -2.87436E+03  1.33857E+03  4.16872E+03  2.26228E+03 -7.61686E+01 -5.72288E+02  3.80310E+03
  2.58407E+03  3.91021E+02 -1.38374E+03 -1.41824E+03 -8.74168E+02 -2.94706E+03 -3.91449E+02  2.35038E+03
 -1.96320E+03  7.31791E+02 -7.49907E+02  2.38774E+03 -8.28980E+03  3.77390E+03 -5.08117E+03 -1.44753E+03
 -8.53567E+02 -8.20259E+03  1.94608E+03 -6.47046E+03  2.58275E+03 -6.23318E+03  4.85690E+03 -3.26731E+03
  8.30802E+03  1.37057E+03  2.99435E+03  5.69827E+03 -1.15945E+03  4.12606E+03 -2.53724E+03  4.09461E+02
 -2.97421E+03  3.19785E+03  2.18472E+03 -1.98808E+03  2.12332E+03 -1.74729E+03 -8.91414E+02 -8.09265E+02
 -1.15061E+03  1.09629E+03  3.93235E+03  9.73470E+02 -2.20737E+03  1.18819E+03  1.78549E+03 -6.70505E+02
  5.72993E+03  5.03061E+03  2.19139E+03 -5.60800E+02  4.86674E+03  4.74730E+02  5.83021E+03  5.09161E+03
 -7.24980E+02  2.18150E+03 -6.81457E+03  3.81137E+03 -5.68244E+03  2.60778E+03 -2.02983E+03  1.58594E+02
 -4.57630E+02 -6.63849E+03  6.52476E+03 -7.97733E+02  3.55162E+01 -5.98689E+03  4.96722E+03  6.40178E+02
  2.80724E+03  1.67558E+03  1.82244E+03 -1.30034E+03 -2.20376E+03 -7.55169E+02  1.20871E+03 -4.18968E+03
  2.44844E+03 -2.11437E+02 -2.98766E+02 -1.13583E+03  1.52885E+03  2.45990E+03  6.73259E+02  2.12847E+03
 -9.19050E+02  5.55790E+02 -1.68357E+03  3.85661E+03  8.92603E+01  3.13569E+03  3.46138E+03 -6.63175E+03
 -1.94041E+02 -1.89054E+03 -7.46506E+02  7.81931E+03  2.50179E+03  5.80068E+01  4.18753E+03  3.65030E+03
  9.51765E+02  8.29710E+02  2.99184E+03  2.24052E+02 -1.76175E+02 -5.39426E+03 -2.87747E+03  2.82934E+03
 -3.36246E+03 -6.83450E+02  6.08677E+02  5.40503E+02  3.55446E+03 -2.53209E+03 -2.26007E+02  7.08603E+02
  1.01224E+03  2.51032E+03 -7.96965E+02 -1.58619E+03 -3.32673E+03  2.43399E+03  6.81449E+03 -6.30941E+03
  5.72888E+03  1.72672E+03 -3.84224E+03 -2.79786E+01 -5.79795E+03  4.28506E+03 -4.38436E+03  2.93857E+03
