 $NMID ID='MM_0lb_SNR50_13hz_g60_35.RAW', FMTDAT='(8E13.5)'
 TRAMP=1., VOLUME=1. $END
  3.08261E+05 -3.68793E+02  3.43300E+05  2.47336E+05  8.63148E+04  3.35019E+05 -1.34312E+05  2.53773E+05
 -1.88826E+05  8.55397E+04 -1.12195E+05 -2.86183E+04 -1.53701E+03 -4.73522E+04  5.20995E+04 -1.89886E+03
  3.50496E+04  5.52621E+04 -1.33701E+04  7.29931E+04 -6.11660E+04  6.48398E+04 -8.27259E+04  3.16008E+04
 -8.57472E+04 -1.07633E+04 -5.96513E+04 -4.72542E+04 -1.46475E+04 -8.03905E+04  2.31067E+04 -4.24426E+04
  4.62622E+04  8.03085E+03  1.51462E+04  4.71136E+04 -3.20963E+04  5.50335E+04 -6.25615E+04 -1.19994E+03
 -5.32553E+04 -5.70682E+04 -9.81500E+03 -7.75466E+04  3.67487E+04 -4.91101E+04  4.93827E+04 -2.17994E+04
  3.95427E+04  8.60439E+03  3.58788E+04  2.74782E+04  1.34909E+04  2.11128E+04 -6.50343E+03  3.09125E+04
 -1.83144E+04  1.16010E+04 -1.87654E+04 -6.15531E+03  1.03808E+04 -8.80915E+03  2.42088E+04  1.18943E+04
  8.75489E+03  3.84256E+04 -3.60626E+04  3.72633E+04 -6.27889E+04  3.89622E+03 -5.61616E+04 -4.11322E+04
 -1.39259E+04 -6.69886E+04  4.48028E+04 -4.79727E+04  5.83731E+04 -6.14630E+02  3.76291E+04  3.32823E+04
 -3.33749E+03  3.77104E+04 -3.14087E+04  1.85759E+04 -3.24329E+04  1.42385E+03 -1.67017E+04 -7.93675E+03
 -6.25771E+03 -1.24741E+04 -1.88804E+03 -1.57316E+04  4.10674E+03 -2.54864E+04  1.41433E+04 -8.52140E+03
  1.08118E+04  5.70973E+03 -6.44158E+03  1.42781E+04 -2.18173E+04 -6.12268E+03 -6.17798E+03 -3.19060E+04
  3.00047E+04 -4.11799E+04  5.25267E+04 -1.96574E+04  4.71362E+04  2.05109E+04  1.37383E+04  4.66682E+04
 -1.77913E+04  3.34078E+04 -2.47621E+04 -8.27924E+02 -8.96054E+03 -2.96292E+04  2.24464E+04 -3.34509E+04
  3.90073E+04 -1.27573E+04  4.00630E+04  2.60356E+04  1.50284E+04  5.06349E+04 -8.51655E+03  5.10026E+04
 -3.59096E+04  3.31637E+04 -4.21559E+04  1.28109E+04 -4.29298E+04 -1.56463E+04 -2.82906E+04 -4.06019E+04
  8.64860E+03 -4.44235E+04  3.21092E+04 -1.56234E+04  2.88022E+04  1.32437E+04  5.89247E+03  2.07187E+04
 -1.17944E+04  9.19414E+03 -1.03846E+04 -6.75642E+03  6.87138E+03 -9.17366E+03  1.87310E+04  5.89331E+03
  1.70285E+04  2.35252E+04 -5.02566E+03  3.08025E+04 -2.37049E+04  1.94516E+04 -2.95023E+04 -8.64259E+03
 -2.40686E+04 -1.57221E+04 -6.14380E+03 -1.68665E+04 -9.72951E+02 -2.13941E+04  1.58716E+04 -1.68053E+04
  2.58318E+04 -1.65671E+04  3.45316E+04  5.39973E+03  2.94219E+04  2.42982E+04  2.72438E+03  3.84485E+04
 -1.52963E+04  3.08224E+04 -3.03464E+04  1.54523E+04 -2.02422E+04 -7.12418E+03 -8.10160E+03 -1.19701E+04
  2.04858E+02 -2.80734E+03 -3.98875E+03  5.77293E+03 -2.09866E+04  4.82469E+03 -1.72273E+04 -8.10806E+03
 -1.14119E+04 -1.99227E+04  8.18524E+03 -2.29550E+04  1.66506E+04 -2.16842E+04  1.80884E+04  1.17876E+03
  1.37957E+04  1.89358E+04 -5.67924E+01  1.94270E+04 -1.86796E+04  9.63966E+03 -2.73689E+04 -3.87166E+03
 -1.68327E+04 -1.78435E+04 -5.76754E+03 -2.38708E+04  1.36174E+04 -2.12077E+04  2.48144E+04 -9.34357E+03
  2.11972E+04 -3.28419E+03  1.00707E+04  1.47310E+03  9.77159E+03  3.73443E+03  8.55688E+03 -2.53174E+03
  1.59656E+04  2.69351E+03  2.11812E+04  1.49682E+04  1.31571E+04  3.32593E+04 -2.06425E+03  4.08286E+04
 -2.35789E+04  3.04532E+04 -3.59872E+04  1.50612E+04 -3.69924E+04  1.15125E+03 -2.90471E+04 -2.34969E+04
 -1.70601E+04 -3.33063E+04  1.24449E+04 -2.72048E+04  2.72882E+04 -1.18283E+04  1.99652E+04  8.80969E+03
  9.23888E+03  1.31090E+04 -6.53807E+03  1.36136E+04 -1.89941E+04  3.02841E+03 -9.65808E+03 -1.13370E+04
  1.64577E+03 -1.70880E+04  1.08103E+04 -1.24861E+04  1.55758E+04 -1.22076E+03  1.21054E+03  4.04094E+03
 -1.19664E+04 -3.45734E+03 -8.15328E+03 -4.34476E+03 -4.15249E+02 -1.41899E+04  9.94864E+03 -1.81995E+04
  2.07912E+04 -1.01451E+04  1.94498E+04  5.67994E+03  2.00120E+04  1.62017E+04  1.24613E+04  2.11196E+04
 -5.73766E+03  2.83896E+04 -1.96133E+04  1.55547E+04 -1.76996E+04  3.76723E+03 -1.24484E+04  2.04566E+03
 -6.31068E+03 -3.92350E+03 -4.55173E+02  2.68323E+03 -3.30515E+03  6.69838E+03 -6.65903E+03  7.88849E+03
 -9.10516E+03 -3.72299E+03 -1.43249E+04 -9.39854E+03 -1.05303E+04 -1.41462E+04  5.68163E+03 -1.41859E+04
  1.15072E+04 -4.22553E+03  8.25541E+03  8.52922E+03 -3.15975E+03  4.02810E+03 -4.58037E+03 -2.02594E+03
 -1.19690E+04 -1.00280E+04 -5.33794E+03 -1.23668E+04  8.26188E+03 -1.65256E+04  1.36454E+04 -2.59126E+03
  1.91536E+04  7.72419E+03  1.21511E+04  1.04701E+04 -1.17505E+03  1.84981E+04 -1.19763E+04  1.22027E+04
 -1.21018E+04  6.23473E+03 -7.44062E+03 -6.74240E+03  4.27289E+03 -3.54347E+03  7.19616E+03 -2.68746E+03
  5.29833E+03  5.45573E+03  5.24730E+03  3.50967E+03 -8.83810E+03  9.15391E+03 -1.06975E+04 -3.49974E+03
 -5.28872E+03 -8.05459E+03  4.62759E+03 -1.68530E+04  6.72256E+03 -2.20746E+03  1.05541E+04  4.24458E+03
 -2.93236E+03  4.14577E+03 -5.09671E+03  9.17130E+03 -9.67637E+03  4.73956E+03 -9.97613E+03 -1.76221E+03
 -7.19962E+03 -1.24496E+04  1.14467E+03 -1.74790E+04  1.08704E+04 -4.09202E+03  1.04587E+04  4.33014E+03
  1.18501E+04  1.51078E+04 -4.57050E+03  1.24621E+04 -8.23621E+03  8.61999E+03 -1.19713E+04 -5.23499E+03
 -5.89582E+03 -1.13074E+04 -2.94411E+03 -9.45025E+03  1.25010E+03 -1.19878E+04  4.98545E+03  3.96977E+02
  4.38490E+03 -2.09893E+03  5.61556E+03  6.31735E+03 -2.23054E+03 -1.47977E+03  2.62718E+03 -4.68553E+03
  1.10652E+04 -7.22373E+03  1.26369E+04  4.64441E+03  1.21233E+04  4.41238E+03  7.32983E+03  1.20992E+04
 -8.77429E+03  2.00191E+04 -1.18437E+04  1.69367E+04 -1.87029E+04 -3.25956E+02 -2.23069E+04 -2.23747E+03
 -1.14521E+04 -1.23008E+04 -7.27324E+02 -1.17260E+04  6.86298E+03 -8.25663E+02 -9.59045E+02 -5.98309E+02
 -2.86194E+03 -1.09397E+03  7.90456E+03 -8.75203E+03  4.50973E+03  5.06282E+02  8.25270E+03  2.65746E+03
  8.55704E+03  1.22799E+03  4.52549E+03  7.54212E+03 -6.10058E+03  5.58797E+03 -8.69293E+03  4.89876E+03
 -1.16212E+04  2.42253E+03 -1.36902E+04 -7.62339E+03 -6.79255E+01 -7.46873E+03  1.16556E+04 -1.07056E+04
  6.81076E+03 -2.57429E+03  1.45527E+04  2.16732E+03  8.16695E+03  1.17542E+04  1.53679E+03  1.24730E+04
  1.83012E+03  1.07855E+04 -8.73257E+03  3.74531E+03 -7.27214E+03 -3.16913E+03  3.27095E+03 -2.66871E+03
  4.03116E+03 -1.58319E+03  1.82315E+03  3.57145E+03 -1.03455E+03  6.48815E+03 -5.06167E+03 -4.68812E+03
 -7.07804E+03 -1.80109E+03  2.28075E+03 -1.09189E+04  5.40317E+03 -7.03044E+03  8.31363E+03  1.29633E+02
  8.69310E+03  6.49988E+03  6.51113E+03  8.57244E+03 -7.73857E+03  1.36743E+04 -8.51553E+03 -1.55196E+02
 -5.17803E+03 -1.29730E+03 -7.13135E+03 -3.69005E+02  4.29976E+02 -6.33159E+03  3.14423E+03 -8.25674E+03
  1.17487E+04 -3.78679E+03  2.75804E+03  6.35029E+03 -3.17085E+03  1.46596E+02  3.36152E+03 -2.38992E+03
  5.15710E+03  1.19784E+03  4.51675E+03  7.78124E+03  3.21751E+03  8.24954E+03  8.52544E+02  3.75114E+03
 -1.84495E+03  4.92033E+03 -5.55571E+03  9.26995E+03 -1.02668E+04 -5.90817E+02 -7.99977E+03 -3.67765E+03
 -6.58520E+03 -2.92408E+03 -1.88829E+03 -1.12345E+04  5.87484E+01 -5.02470E+03  8.76655E+03 -6.87888E+03
  1.02391E+04  4.72854E+03  3.48860E+02  6.09711E+03 -5.96030E+03  4.66272E+03 -4.47215E+03  2.28495E+03
  4.81912E+02 -2.28300E+03  1.02593E+03 -4.95319E+03  7.68101E+03 -2.74148E+03  3.45482E+03  4.93415E+02
  2.98131E+03  3.99490E+03  4.12563E+03  1.72026E+03  1.46277E+03  1.70664E+02 -7.35324E+03  2.90078E+03
  4.06760E+02  3.07955E+02  4.82317E+03  8.02793E+02  5.78098E+03  3.45808E+03  1.85428E+03  4.01968E+03
 -3.23705E+03  8.33995E+03 -4.76021E+03 -4.73089E+03 -6.56082E+03 -6.11629E+03 -7.68691E+03 -3.15896E+03
  3.52959E+03 -3.39199E+03  2.06121E+03 -3.74813E+03  2.71865E+03  5.79005E+03 -1.86621E+02  3.09111E+03
 -5.20450E+03 -4.59192E+03 -5.33130E+03 -2.28232E+03 -5.41928E+03 -2.13972E+03 -1.45357E+02 -7.08315E+03
 -2.65386E+03  5.36985E+02  3.43142E+03  2.17168E+03  3.70372E+03  2.65109E+03  2.22799E+02  3.49797E+03
 -2.36048E+03  4.38346E+03 -4.15577E+03  2.59898E+03  2.46157E+03 -8.25724E+01 -1.86938E+03 -4.19771E+03
  3.23733E+03 -9.62728E+02  4.07483E+03  7.39616E+03  5.55389E+02  5.13399E+03 -1.71763E+03  4.55190E+03
 -4.80100E+03  4.94305E+03 -4.51528E+03 -1.18991E+03 -1.18037E+03 -9.67726E+03  4.24138E+03  1.88298E+03
  8.72333E+03 -2.15124E+03  2.03738E+03 -2.04190E+03  1.70983E+03  5.74559E+03  3.04202E+03  3.63503E+03
  2.11163E+02  3.13875E+03  3.00316E+03  5.78826E+02 -1.33415E+03 -9.84782E+02  2.16113E+03  4.13987E+03
 -4.91323E+03  2.93541E+03 -7.17095E+03  2.11530E+03 -3.05248E+03  5.77140E+03 -4.94182E+03 -4.75040E+03
 -5.95452E+03 -9.56192E+03  1.38761E+03 -9.83743E+03  7.49671E+03 -5.70992E+03  7.40726E+03 -2.55267E+03
  5.77924E+03 -2.65852E+03  4.77417E+03  1.01230E+04  4.90495E+02  4.75380E+03 -3.59170E+02  2.86529E+03
  8.41386E+01 -3.23953E+02 -3.56752E+03 -5.20948E+03  1.82711E+02 -2.21421E+03  7.91732E+02  4.68928E+03
 -9.83706E+02 -1.44937E+03 -2.71117E+02 -1.08827E+03  2.33049E+03 -5.10133E+03 -1.89490E+03 -1.96645E+03
  8.68175E+03 -3.60410E+03  1.86147E+03 -1.96041E+03  6.55559E+03  1.24819E+03  1.31508E+03  3.48858E+03
 -8.30919E+02  3.77803E+02 -5.62217E+03  6.63666E+03 -6.37046E+03 -6.28722E+02  1.52936E+03 -2.78199E+02
 -4.99228E+03 -7.86169E+03  1.31519E+03 -6.76533E+02  1.90729E+03 -1.34605E+03  5.33300E+03 -1.19926E+03
  1.30099E+03  2.75935E+03 -1.06127E+03  1.72802E+03  3.37174E+03  1.37200E+02 -6.73938E+03 -1.01339E+03
  1.91528E+03  3.98638E+03 -6.76117E+02  4.17170E+03  5.03986E+03 -5.00871E+02 -2.29377E+03 -6.42188E+01
 -5.69490E+03  3.44553E+03 -3.02993E+03 -3.00289E+03 -6.12190E+03  7.96413E+02  1.33506E+03  1.59732E+03
  4.32308E+03 -2.20232E+03  2.45649E+03  5.33919E+03  6.10973E+03  1.45346E+03  1.51836E+03  3.68831E+03
 -4.44925E+03  4.91174E+03 -5.13320E+02  4.40023E+03 -3.25862E+03  9.43384E+03 -2.77470E+03 -7.68293E+02
  3.09254E+03  3.71655E+02  1.92029E+03  4.50114E+03  1.40559E+02  4.55519E+03 -2.35880E+03  8.98798E+02
 -5.05954E+03 -4.23230E+03  4.54456E+02 -2.91198E+03  8.15630E+01 -3.61961E+03  1.24700E+03 -1.30229E+03
  4.72019E+03  1.64094E+02  1.84409E+03  6.39641E+03  7.35200E+02  4.77940E+03 -4.18463E+03  1.59809E+03
