 $NMID ID='MM_0lb_SNR50_15hz_g45_10.RAW', FMTDAT='(8E13.5)'
 TRAMP=1., VOLUME=1. $END
  3.10524E+05 -2.32776E+03  3.35208E+05  2.50848E+05  8.35502E+04  3.37651E+05 -1.32145E+05  2.46895E+05
 -1.86030E+05  8.30440E+04 -1.16929E+05 -3.48328E+04 -2.24340E+03 -5.18048E+04  5.12372E+04 -4.56929E+03
  3.37962E+04  4.74503E+04 -1.57385E+04  7.36426E+04 -6.51383E+04  6.52178E+04 -8.51907E+04  3.20708E+04
 -7.99426E+04 -1.04101E+04 -5.86904E+04 -5.47100E+04 -1.37516E+04 -6.69735E+04  2.38373E+04 -4.72683E+04
  4.01756E+04  4.80429E+03  1.85217E+04  4.58865E+04 -3.38384E+04  4.87698E+04 -6.73928E+04  7.59041E+02
 -4.91574E+04 -5.76520E+04 -7.14168E+03 -7.08579E+04  3.20206E+04 -5.71836E+04  5.48674E+04 -1.66181E+04
  4.36017E+04  1.22773E+04  3.07788E+04  2.45618E+04  1.61974E+04  3.02801E+04 -8.78648E+03  3.41595E+04
 -2.23806E+04  1.21913E+04 -1.52622E+04 -4.17079E+03  3.99755E+03 -6.27815E+03  2.11161E+04  1.10219E+04
  6.40620E+03  3.46069E+04 -3.08994E+04  3.09855E+04 -6.17908E+04  1.52365E+03 -5.70824E+04 -4.76733E+04
 -1.30049E+04 -6.34217E+04  3.85887E+04 -4.84238E+04  5.70439E+04 -3.56397E+02  3.16180E+04  3.46722E+04
 -2.48269E+03  3.86981E+04 -3.16632E+04  1.60063E+04 -2.71874E+04 -4.50674E+03 -1.64093E+04 -8.96522E+03
 -1.90473E+03 -1.46463E+04 -1.90296E+03 -1.94247E+04  6.44078E+03 -2.32913E+04  1.89295E+04 -1.08010E+04
  9.93619E+03  9.73296E+03 -9.35165E+03  1.25270E+04 -2.38508E+04 -9.16718E+03 -5.91953E+03 -3.32020E+04
  2.53559E+04 -3.96432E+04  4.51455E+04 -1.92784E+04  4.36816E+04  2.30207E+04  1.20679E+04  4.29938E+04
 -1.61863E+04  3.04502E+04 -2.15972E+04  5.67774E+03 -8.00031E+03 -2.48482E+04  2.67252E+04 -3.23645E+04
  3.86952E+04 -9.58185E+03  3.86540E+04  2.48886E+04  1.22392E+04  4.34509E+04 -1.10631E+04  5.04831E+04
 -3.00490E+04  3.47937E+04 -4.04043E+04  5.24242E+03 -4.51737E+04 -1.23585E+04 -2.30736E+04 -3.58208E+04
  3.65199E+03 -3.61948E+04  3.07087E+04 -1.13705E+04  3.32856E+04  1.17807E+04  1.61607E+03  2.16566E+04
 -9.16646E+03  9.13918E+03 -5.48037E+03 -7.49435E+03  8.28263E+03 -7.99714E+03  1.65556E+04  3.95104E+03
  1.14020E+04  1.86478E+04 -7.59884E+03  1.84334E+04 -2.24575E+04  7.76595E+03 -3.57027E+04  1.53224E+03
 -1.60987E+04 -1.87482E+04 -6.26384E+03 -1.75331E+04  6.94331E+03 -1.70916E+04  1.37312E+04 -1.81936E+04
  2.78655E+04 -1.16081E+04  2.97998E+04  9.70511E+02  2.00049E+04  1.74062E+04  7.28455E+03  3.20394E+04
 -2.27275E+04  3.18073E+04 -3.00050E+04  8.72237E+03 -2.09447E+04 -1.50124E+04 -3.94319E+02 -1.45910E+04
 -9.01228E+02 -4.30089E+03  1.83419E+03  5.71090E+03 -1.29727E+04  6.27842E+03 -1.23443E+04 -9.40895E+03
 -1.02343E+04 -1.57920E+04  5.50148E+03 -1.97249E+04  1.50503E+04 -2.10812E+04  1.54669E+04 -3.26292E+03
  8.73295E+03  1.59488E+04  2.35288E+03  2.02714E+04 -1.29657E+04  1.09776E+04 -1.71361E+04 -2.21319E+03
 -1.23493E+04 -1.79937E+04 -8.58895E+02 -2.20411E+04  9.08253E+03 -2.09194E+04  1.51785E+04 -1.00263E+04
  1.71481E+04  3.27504E+03  1.13412E+04  2.93585E+03  1.04933E+04  6.62893E+03  1.08789E+04 -5.98634E+03
  1.18461E+04  1.64111E+02  1.44863E+04  1.63581E+04  1.17002E+04  2.41506E+04 -7.31294E+03  2.80080E+04
 -1.73788E+04  2.10923E+04 -3.03274E+04  1.29496E+04 -3.51961E+04 -6.06369E+03 -2.66219E+04 -1.49856E+04
 -1.32514E+04 -2.05675E+04  9.85425E+03 -2.49428E+04  1.90210E+04 -1.13864E+04  1.23108E+04  7.13222E+03
  8.83399E+03  1.48570E+04 -5.98296E+03  1.05058E+04 -1.22063E+04 -4.62178E+02 -1.22400E+04 -1.26878E+04
 -2.47517E+03 -1.21733E+04  6.58710E+03 -1.41926E+04  1.08696E+04 -2.57610E+03  3.52619E+03  6.39444E+03
 -4.89753E+03  4.97660E+03 -3.80230E+03 -7.94966E+03  2.36518E+03 -1.50253E+04  1.00902E+04 -1.20469E+04
  1.24547E+04 -7.12403E+03  1.24573E+04  3.48709E+03  1.30442E+04  8.76493E+03  1.04618E+04  1.83838E+04
 -6.82619E+03  1.89502E+04 -1.39108E+04  8.60204E+03 -1.49809E+04  2.48606E+03 -8.25154E+03 -2.66390E+03
 -8.69182E+03 -3.53646E+03 -3.90028E+03 -1.31679E+03 -4.60112E+03  1.07235E+03 -4.06196E+03  3.73791E+03
 -1.33098E+04 -2.52367E+03 -7.81935E+03 -7.37442E+03 -8.66759E+02 -1.39054E+04  4.03247E+03 -1.05349E+04
  1.01060E+04 -4.59179E+03  7.58628E+03  2.66889E+03 -1.66039E+03  3.64592E+03 -2.68801E+03  1.19244E+03
 -2.09230E+03 -7.50212E+03  1.08603E+03 -9.32890E+03  5.95654E+03 -6.94499E+03  1.54632E+04 -7.36062E+03
  1.54172E+04  1.32673E+03  1.48684E+04  8.60068E+03  9.46813E+02  1.22115E+04 -6.10446E+03  7.61080E+03
 -1.00786E+04  1.61409E+02 -2.62562E+03 -2.96836E+03  3.07141E+03  9.91661E+02  8.22741E+03 -1.98095E+03
  4.03050E+03  5.90380E+03  5.75464E+02  6.94279E+03 -3.69427E+03  4.98474E+03 -9.69647E+03  2.28766E+03
 -3.55701E+03 -3.19604E+03 -2.04930E+03 -6.17335E+03  3.57090E+03 -4.45541E+03  7.96706E+03  1.55250E+03
  5.58861E+02  3.90054E+03 -1.72766E+03  9.59467E+03 -1.18836E+04  5.70059E+03 -7.19479E+03 -3.68435E+03
 -2.04229E+02 -3.78642E+03  5.99312E+03 -9.79202E+03  9.99177E+03 -4.91146E+03  9.37745E+03 -2.87948E+03
  7.73620E+03  6.90340E+03 -3.28017E+03  1.17671E+04 -3.73969E+03  1.89815E+02 -7.13795E+03  1.60632E+03
 -3.39948E+03 -8.66488E+03  1.40517E+03 -3.76215E+03  3.77159E+03 -6.54477E+03  3.46011E+03 -4.71317E+03
  2.13572E+03 -2.82221E+03  1.49584E+03  2.47129E+03 -2.60379E+03 -4.17105E+03 -2.53229E+03 -7.02103E+02
  1.14586E+04 -3.66651E+03  8.28282E+03 -2.19031E+03  1.13057E+04  9.61156E+03  5.36722E+03  1.80091E+04
  5.08585E+02  1.02216E+04 -1.19527E+04  1.06957E+04 -1.92341E+04  4.38002E+02 -1.08805E+04 -5.58948E+03
 -5.63325E+03 -1.41153E+04  1.39406E+03 -5.33567E+03  1.43069E+03 -4.68149E+03 -2.70033E+02 -2.42546E+03
  1.97537E+03 -4.63071E+03 -1.94971E+02 -6.65270E+03  1.61936E+03 -2.21422E+03  5.61981E+03 -5.89129E+02
  1.79121E+03  5.57473E+03 -2.05583E+03  5.30765E+03  4.06336E+03  4.16517E+03 -2.40197E+03  6.09023E+03
 -1.33250E+03 -2.02533E+03 -4.35079E+02 -8.69370E+03 -1.81676E+03 -6.76315E+03  1.12025E+04 -7.79340E+03
  5.89398E+03 -4.40492E+03  8.55414E+03  3.30886E+03  1.13517E+04  6.13158E+03 -8.75994E+02  9.02363E+03
 -7.03908E+03  1.26715E+04 -7.41813E+03  1.20581E+02 -3.45757E+03 -1.64342E+03  8.40274E+02 -1.44615E+03
 -2.75769E+03 -2.14128E+03 -2.39645E+03  6.42849E+03 -3.46923E+03  2.49881E+03 -7.75968E+03  1.24473E+03
 -4.88551E+03 -6.26313E+03  1.61458E+03 -1.23957E+04  9.75175E+03 -2.35057E+03  6.50915E+03  1.65605E+03
  5.00881E+03  2.88063E+03  2.95520E+03  5.43788E+03 -2.08790E+03  4.99950E+03 -4.50859E+02  3.44302E+03
 -2.84137E+03  1.18683E+03 -3.28749E+03 -1.00589E+04 -3.33617E+03 -3.72349E+03  5.94405E+03 -4.54636E+03
  2.17550E+03 -2.02478E+03  6.97526E+03 -1.17655E+03  6.19461E+02  1.05187E+03  4.23869E+03  2.57217E+03
  5.23134E+03  1.56111E+03  5.67743E+03  1.93513E+03  4.07998E+03  6.99675E+03  3.41436E+03 -3.43698E+02
  6.28924E+02  8.63713E+03 -3.10399E+03  5.21165E+03 -3.88702E+03  5.17101E+03 -6.40725E+03 -3.41066E+03
 -1.89293E+03 -3.03555E+03 -9.20874E+02 -7.95983E+03  3.50289E+03 -4.31065E+03  1.08770E+04 -9.44924E+02
  9.50741E+03  9.30619E+02  2.72079E+03  5.92446E+03 -5.45216E+03  6.61097E+03  4.29567E+01 -1.58894E+03
  1.64329E+03 -3.31835E+03  6.81111E+01 -9.45078E+02  4.32174E+03 -5.55131E+03  2.99061E+03  9.43431E+02
 -2.01938E+03  3.39117E+03  5.02699E+03  4.73647E+02  1.48634E+03  6.36151E+02  4.25599E+02  1.67370E+03
  8.13148E+02 -1.94275E+03  5.67845E+03  2.68059E+03 -9.66848E+02  4.29524E+03 -1.17319E+03  1.37881E+03
 -2.62429E+03 -3.84626E+03  4.43965E+02 -2.45771E+03  5.85847E+02  3.17835E+02 -3.94179E+03 -1.92307E+03
  5.75267E+03 -3.61757E+03  3.16625E+03 -1.67178E+03  4.74586E+03  3.42833E+03 -1.16562E+03  7.41842E+02
 -4.68978E+03  3.30464E+02  1.33596E+02 -6.47776E+03 -6.63280E+02 -3.25306E+03 -5.02774E+03 -1.17317E+02
  1.69824E+03 -8.07494E+02  1.00313E+03 -1.62737E+02  2.51891E+03 -7.39645E+02 -8.61783E+02  4.54331E+03
 -2.96249E+03  1.99517E+03 -3.20551E+03 -1.26517E+02 -1.20115E+02 -1.50989E+03  2.70127E+03 -1.43046E+03
  5.86934E+02 -6.13761E+02  4.04169E+03 -8.73537E+02  3.16771E+03  6.01748E+03 -8.82226E+02  1.27570E+02
 -3.51242E+03 -1.27802E+03 -4.41121E+03  1.58015E+03 -6.88922E+03 -1.52984E+03 -1.67707E+02 -6.35235E+02
  5.84045E+03 -4.82456E+03  4.24257E+03  1.54851E+03  1.49902E+03  5.19755E+03 -1.39382E+02  1.13800E+02
 -2.65935E+03  3.41590E+02 -5.70714E+02 -3.89669E+02 -2.10050E+03  3.34753E+02  4.53182E+02 -4.68668E+02
  1.74741E+03 -3.05720E+03 -7.54465E+02 -5.45482E+02 -4.33987E+03 -2.34926E+03 -4.84046E+03 -2.95774E+03
 -1.27666E+03 -1.57880E+03  2.47521E+03 -8.37293E+02  1.07760E+03  4.83286E+03  3.95633E+03  2.48174E+03
  4.40403E+03  4.42873E+03 -2.90486E+03 -2.88938E+02 -2.16992E+03  3.47953E+03 -1.89598E+03  5.77794E+02
 -3.13970E+02  4.32692E+03  2.99445E+03  1.55588E+03 -2.47454E+03 -1.53109E+03 -1.53514E+03 -3.75568E+02
 -4.36930E+03 -9.48474E+02 -2.72766E+03  8.77832E+02  2.53299E+03  5.58565E+02  1.71936E+03 -1.83780E+03
  7.35647E+02 -2.20803E+03 -3.46245E+02 -4.93582E+03 -1.44810E+03  2.78473E+03 -2.66998E+02 -4.24742E+03
 -1.99691E+03  5.82181E+03 -4.93212E+03  2.27297E+03 -3.81967E+03 -1.43896E+03 -4.51074E+03 -1.21912E+03
  5.32874E+02 -1.42606E+03 -3.33848E+02 -2.13858E+03 -5.75945E+02  1.07163E+03  1.97655E+03 -2.72446E+03
  4.97497E+03  3.86113E+03 -7.88062E+02  4.83353E+03 -3.77955E+03 -4.42810E+03  2.90722E+03 -2.44378E+03
  1.83108E+03  1.63832E+03  1.84062E+03 -6.80063E+02 -4.33243E+03  2.12563E+02 -1.01345E+03 -1.42654E+03
  9.50466E+02 -1.07222E+03 -5.15910E+03  1.22224E+03 -2.16834E+03 -6.25566E+03  4.65721E+02 -5.05721E+03
  2.06717E+03 -4.08843E+03 -3.11122E+03 -3.65351E+03  5.98391E+03 -2.71937E+03 -2.71338E+03  8.82935E+02
  4.70006E+03 -2.17563E+03  3.04580E+03  3.38337E+03 -4.27760E+03 -3.48494E+02 -1.40615E+03 -4.81629E+03
  4.19232E+03 -1.68662E+03 -4.84801E+02  4.50338E+03 -1.92765E+03 -2.44493E+03  1.51372E+03 -9.07958E+02
 -2.07389E+03 -1.07179E+03 -1.88916E+02 -3.11202E+03  3.97470E+03 -2.70403E+03 -2.75437E+02 -6.00234E+03
  3.43605E+03  2.41540E+03 -2.68602E+03 -1.56504E+03  8.45431E+02 -1.00629E+03 -4.18495E+03  7.56337E+02
