 $NMID ID='MM_0lb_SNR50_16hz_g50_94.RAW', FMTDAT='(8E13.5)'
 TRAMP=1., VOLUME=1. $END
  3.09240E+05  4.88012E+01  3.40465E+05  2.48010E+05  8.74945E+04  3.32675E+05 -1.35259E+05  2.52300E+05
 -1.90223E+05  8.15781E+04 -1.11771E+05 -2.92136E+04  5.93863E+01 -5.26135E+04  5.22948E+04 -8.17415E+02
  2.96783E+04  4.97885E+04 -1.65345E+04  7.46287E+04 -5.72699E+04  6.61274E+04 -8.65888E+04  3.25302E+04
 -7.94376E+04 -1.35756E+04 -5.75554E+04 -4.99289E+04 -1.69776E+04 -6.91733E+04  2.78897E+04 -4.67996E+04
  3.79333E+04  6.84634E+03  1.96140E+04  4.42657E+04 -3.39029E+04  5.07294E+04 -6.30456E+04 -2.68019E+03
 -5.15344E+04 -6.04151E+04 -3.36942E+03 -7.70515E+04  3.41671E+04 -5.67578E+04  4.73544E+04 -1.29941E+04
  4.31127E+04  1.16217E+04  3.00094E+04  2.86056E+04  1.13538E+04  2.90102E+04 -3.72348E+03  2.82263E+04
 -2.86341E+04  1.52455E+04 -1.87626E+04 -4.30925E+03  4.52656E+03 -7.03894E+03  2.08456E+04  6.80178E+03
  5.54815E+03  3.85815E+04 -3.40745E+04  3.61196E+04 -6.59872E+04  4.25369E+03 -5.77227E+04 -4.54986E+04
 -1.77446E+04 -6.91904E+04  3.50939E+04 -4.40022E+04  6.17066E+04 -4.33579E+03  2.93562E+04  2.99634E+04
 -7.40969E+03  3.45772E+04 -3.22879E+04  2.08761E+04 -2.61123E+04 -4.06788E+03 -1.61235E+04 -5.99505E+03
 -8.46567E+03 -1.38971E+04  4.04423E+03 -1.78167E+04  6.57770E+03 -2.57057E+04  1.43364E+04 -1.19946E+04
  1.05621E+04  7.18896E+03 -8.98524E+03  1.75978E+04 -2.14743E+04 -1.91062E+02 -9.78039E+03 -3.47624E+04
  2.03113E+04 -4.29759E+04  4.43952E+04 -1.92376E+04  4.42817E+04  1.91358E+04  1.83031E+04  4.16368E+04
 -1.46504E+04  3.08859E+04 -2.27839E+04  3.24639E+03 -6.72613E+03 -2.72257E+04  2.07879E+04 -3.75477E+04
  4.26760E+04 -9.49479E+03  3.62257E+04  2.49547E+04  1.57784E+04  4.77704E+04 -3.48641E+03  5.14369E+04
 -2.64760E+04  2.75217E+04 -3.30292E+04  8.11162E+03 -4.02669E+04 -8.26279E+03 -2.11773E+04 -3.62317E+04
  3.62361E+03 -3.37879E+04  3.35319E+04 -1.77361E+04  2.98585E+04  9.82655E+03  5.26240E+03  1.67951E+04
 -9.88295E+03  6.97512E+03 -9.76649E+03 -8.76336E+03  5.61674E+03 -7.11336E+03  1.84460E+04  6.23484E+03
  1.46961E+04  1.88103E+04 -3.73553E+03  2.56310E+04 -1.85263E+04  9.14128E+03 -2.72979E+04 -5.89907E+03
 -1.90970E+04 -1.72142E+04 -6.44900E+03 -2.05124E+04  4.14893E+03 -1.75238E+04  1.41729E+04 -1.82819E+04
  2.09213E+04 -9.36102E+03  2.96804E+04  9.92034E+02  2.49697E+04  1.93548E+04  7.82100E+03  4.19172E+04
 -1.64349E+04  2.95526E+04 -2.69360E+04  7.38584E+03 -2.31974E+04 -9.14733E+03 -2.56252E+03 -1.47981E+04
  2.29536E+03 -4.10712E+03 -6.91530E+03  6.44148E+03 -9.31788E+03  4.49589E+03 -1.57762E+04 -1.52642E+03
 -3.99120E+03 -1.84433E+04  3.00954E+03 -2.70824E+04  7.47463E+03 -1.43274E+04  2.33552E+04 -3.12234E+03
  3.99291E+03  8.30046E+03 -3.86784E+03  1.46318E+04 -1.58475E+04  8.93773E+03 -1.43730E+04  7.06151E+02
 -1.23436E+04 -1.80195E+04 -4.24904E+03 -2.26834E+04  1.34972E+04 -1.98785E+04  1.92679E+04 -1.12461E+04
  1.43124E+04 -2.56756E+03  1.57305E+04  8.44190E+03  3.27323E+03 -1.00951E+03  6.87261E+03 -2.26891E+02
  1.15505E+04  1.08746E+04  1.87381E+04  1.68898E+04  1.08202E+04  2.34622E+04 -5.57935E+03  3.07837E+04
 -1.98816E+04  2.45091E+04 -2.75160E+04  1.04122E+04 -2.62587E+04  9.50544E+02 -2.39100E+04 -1.65157E+04
 -1.10660E+04 -2.53931E+04  4.98335E+03 -2.56843E+04  1.79290E+04 -1.72896E+04  2.35012E+04  6.59017E+03
  6.96017E+03  1.19782E+04 -8.23547E+03  1.29671E+04 -1.14244E+04  9.00130E+03 -1.59021E+04 -1.26382E+04
 -1.16345E+03 -1.32069E+04  1.29090E+04 -1.13117E+04  9.79640E+03 -1.18387E+02  7.22155E+03 -9.42990E+01
 -6.95481E+03  8.03003E+03  1.23363E+03 -7.18585E+03 -1.87526E+03 -1.33707E+04  8.54290E+03 -1.27107E+04
  1.38259E+04 -4.17475E+03  1.68196E+04  3.83873E+03  1.42494E+04  1.09784E+04  6.00864E+03  1.54187E+04
 -2.60209E+03  1.93399E+04 -1.37402E+04  1.34142E+04 -1.62127E+04  4.65594E+03 -9.58083E+03 -1.75382E+03
 -1.21744E+03 -3.90825E+03 -1.93023E+03 -1.53775E+03 -4.82344E+03  3.60828E+03 -4.62594E+03  4.20967E+03
 -9.81026E+03 -2.34583E+02 -1.31846E+04 -4.39092E+03 -5.03915E+03 -1.58133E+04  3.60901E+03 -9.41325E+03
  1.16425E+04 -6.04701E+03  5.12486E+03 -6.62174E+02 -1.60370E+03  2.03573E+03 -4.91715E+03  2.38416E+02
 -5.29272E+03 -1.03004E+04 -2.65366E+03 -9.15224E+03  1.09570E+04 -1.02293E+04  1.23258E+04 -3.22268E+03
  1.56056E+04  6.89921E+02  1.55961E+04  8.11215E+03 -1.89836E+02  1.18549E+04 -5.77400E+03  1.09648E+04
 -6.93019E+03  5.22670E+03 -2.09125E+03  1.34882E+03  5.91299E+02 -2.35857E+03  6.25433E+03 -3.73589E+03
  4.85855E+03  4.14282E+03 -1.48467E+03  8.53315E+03 -8.89929E+03  6.70727E+03 -8.29247E+03  4.27528E+03
 -9.31601E+03 -3.47481E+03 -4.35065E+03 -8.03833E+03  1.00541E+04 -7.03180E+03  2.20781E+03  2.00383E+03
  1.05855E+03  7.09969E+03 -1.02278E+04  7.08032E+03 -6.34593E+03  6.24280E+03 -2.13392E+03 -1.28512E+03
 -3.57314E+03 -1.24952E+04  2.69089E+03 -1.06306E+04  7.71834E+03 -7.57247E+03  6.37165E+03  2.60447E+03
  5.14259E+03  3.11988E+03 -5.01404E+02  1.05329E+04 -5.71892E+03  4.34483E+03 -4.40691E+03 -1.79765E+03
 -1.04985E+04 -6.51088E+03 -1.70360E+02 -5.83151E+03  3.32159E+03 -6.18330E+03  4.79733E+03 -6.05185E+03
  2.23419E+03  6.48783E+02  3.17236E+03 -9.78140E+02  2.29192E+02 -2.33916E+03  3.55386E+03  1.62831E+03
  4.59211E+03 -1.48221E+03  5.35894E+03 -2.30943E+03  4.31952E+03  3.82034E+03  1.12013E+04  1.20763E+04
 -3.73808E+03  1.24730E+04 -9.36781E+03  1.20873E+04 -1.23208E+04  4.65860E+03 -1.11575E+04 -5.17950E+03
 -9.53941E+03 -1.18283E+04 -3.52592E+03 -9.21419E+03  4.60052E+03 -3.94251E+02  9.25981E+03  8.06420E+02
  2.08721E+03  3.13148E+02  1.10191E+03 -3.66506E+03  3.70851E+03 -1.56318E+03  1.72024E+03 -3.93965E+03
  5.09055E+03  4.69069E+03  3.95452E+03  6.25132E+03 -8.52558E+02  6.81383E+03 -4.15652E+03  6.12975E+03
 -9.38831E+03 -1.42167E+02 -4.61329E+03 -3.00926E+03 -1.15237E+03 -1.19777E+04  4.23700E+03 -6.35074E+03
  9.10974E+03 -1.39511E+03  9.62627E+03  2.63804E+03  2.26269E+03  4.53694E+03  3.91719E+03  3.71265E+03
 -4.37774E+03  6.86540E+03 -2.54296E+03  5.17088E+03 -4.59039E+03 -3.78693E+02  3.00573E+02 -3.88376E+02
  3.01029E+01 -7.91415E+02 -4.67654E+02 -1.60455E+03 -5.78403E+03 -2.58044E+02 -6.34672E+03 -7.24123E+01
 -8.17635E+03 -2.76926E+03 -1.46200E+02 -7.33561E+03  6.70618E+03 -3.72503E+03  3.40215E+03 -3.84475E+02
  6.53871E+03  4.17013E+03  3.79270E+03  2.10888E+03 -1.68439E+03  1.22786E+03 -2.04211E+02  8.41691E+03
 -6.31042E+03  3.01976E+03 -2.67151E+03 -2.83406E+03 -1.56464E+03 -7.39028E+03  7.42623E+02 -4.55124E+03
  1.48133E+03  4.87307E+02  2.00952E+03  5.64668E+03 -2.31544E+01  2.57568E+02  1.91487E+02 -1.85995E+03
  4.28189E+03  6.16339E+03  1.42983E+03  7.28403E+02 -7.24271E+02  5.86676E+02  2.11071E+03 -2.74738E+02
  4.21707E+03  8.38726E+03 -1.49903E+03  4.59700E+03 -6.16228E+03  4.30880E+03 -5.67646E+03  9.42017E+02
 -3.62051E+03 -4.26578E+03  4.65763E+03 -5.49082E+03 -8.74667E+02 -9.73327E+03  2.91748E+03 -8.26217E+03
  1.36815E+03 -1.66345E+03 -2.20920E+03  3.36371E+03 -1.01707E+03  1.46540E+03 -3.37010E+03 -5.79113E+02
  1.65281E+02 -2.41038E+03  9.21509E+02 -4.46098E+03  2.36984E+03 -6.67511E+02  7.11802E+03  8.78820E+00
  1.66433E+02  3.52605E+02  6.64263E+02 -4.06668E+02 -4.46988E+03  6.23790E+02  2.16837E+03  2.19115E+03
  3.76484E+03 -1.58749E+03  4.28739E+03  3.41760E+02 -1.42666E+03  7.13896E+03 -1.30159E+02  4.67283E+02
 -6.25480E+03  6.72310E+03 -1.07036E+03  2.00662E+03 -3.62174E+03 -3.71681E+03  1.34678E+03 -4.76924E+03
  3.60184E+03 -3.59123E+03  3.34527E+03 -1.83397E+03 -1.33583E+03  2.53563E+03 -5.76270E+02  3.46098E+03
 -3.33911E+02  1.38495E+03 -4.81097E+03  2.09519E+03  3.18407E+02 -4.17618E+03  3.18346E+03 -4.03495E+03
 -4.21440E+02 -4.81943E+03 -1.25481E+03  6.29453E+02 -2.77597E+02  2.39434E+03 -4.41978E+03 -5.58405E+01
 -4.12911E+03 -2.56387E+03 -1.76866E+03 -1.08929E+03  1.63016E+03 -4.10008E+03  1.96614E+03  3.86570E+03
  3.57859E+03  6.00586E+02  7.13533E+03  4.20544E+03  1.58727E+03  4.32153E+03 -1.20918E+03  5.66486E+03
 -3.81101E+03 -8.70087E+02  2.52267E+02 -4.66194E+03 -4.91060E+03 -2.80871E+02  5.82529E+01  4.49815E+03
  3.23848E+03 -2.15763E+03  4.20540E+03  1.27928E+03  4.34187E+02  2.70160E+03  2.90918E+03 -1.12366E+03
  2.79538E+03  1.05961E+03 -1.28077E+03  1.91111E+03  1.90117E+03 -1.50193E+03 -3.55855E+03  1.08298E+03
 -8.72530E+02  6.56910E+03 -3.05401E+03  1.84963E+02 -2.90381E+03 -1.47307E+03 -9.16275E+03 -2.20173E+03
  2.12098E+02 -3.80200E+03 -4.68704E+02 -7.05485E+03  2.11655E+02 -5.42836E+03  6.01733E+03 -3.44617E+02
  2.52429E+03 -7.36324E+02  2.28224E+03  2.66851E+03 -2.39775E+03  4.01037E+03 -2.30888E+03 -1.33197E+03
 -4.99378E+03  1.73544E+02  4.90821E+03  3.30372E+03 -4.91541E+03 -3.45258E+02 -3.77352E+03 -4.92083E+03
  8.11789E+02  8.96257E+02 -2.60590E+02  1.05742E+03  4.19116E+03 -1.38564E+03  3.04045E+02 -1.13971E+02
  1.13846E+03 -3.77067E+02  3.33373E+03 -3.94331E+02 -2.34794E+03  3.38878E+02 -4.81125E+03 -8.32546E+02
  2.50531E+02 -6.29125E+01 -1.06296E+03  2.70552E+03 -2.83571E+03  1.95229E+03 -4.03737E+02 -3.52094E+03
 -7.19380E+02 -6.57099E+02  3.57719E+03 -3.66213E+03  2.02386E+03 -5.25906E+03 -1.64753E+03 -9.18149E+02
  3.08924E+02 -2.31587E+03  1.63841E+03  3.03058E+02 -9.08862E+02 -2.19900E+03  3.38003E+03  6.76369E+02
  2.93310E+03 -8.13515E+03 -2.29831E+03 -6.11187E+03 -3.09240E+03  7.19123E+02 -1.88861E+03  3.46239E+03
  1.04206E+03 -2.13160E+03  2.60472E+02  2.10518E+02 -5.43415E+03 -1.46162E+03 -3.74705E+03 -1.57883E+03
  1.26504E+03 -2.63085E+03  3.93872E+03 -3.90236E+02 -2.34676E+03  2.84129E+03  4.03285E+02  3.70438E+02
  4.17734E+03 -8.18489E+02 -1.45285E+03 -1.86026E+02 -3.55909E+02  1.55197E+03 -5.98545E+03  1.72697E+03
 -2.17501E+03  9.78164E+02 -7.34310E+03  1.51518E+03 -9.53584E+02  2.03961E+03 -5.29201E+03 -1.96194E+03
 -3.41002E+03  9.69434E+02 -3.24299E+03  2.19936E+03  4.21308E+02 -2.16128E+03  3.91991E+03  2.05706E+02
  3.46374E+03  2.55205E+02  9.19790E+02 -1.98970E+02 -4.55896E+02  2.37099E+03 -1.24580E+03 -7.11737E+02
