 $NMID ID='MM_0lb_SNR50_13hz_g55_92.RAW', FMTDAT='(8E13.5)'
 TRAMP=1., VOLUME=1. $END
  3.10131E+05  1.30257E+03  3.36375E+05  2.51603E+05  8.02451E+04  3.33439E+05 -1.34090E+05  2.55938E+05
 -1.93253E+05  8.71057E+04 -1.17812E+05 -3.72078E+04  3.45924E+03 -5.74384E+04  5.18719E+04  4.67239E+03
  3.86337E+04  5.06864E+04 -1.63771E+04  7.41005E+04 -6.61930E+04  6.69727E+04 -8.83394E+04  3.11850E+04
 -8.36690E+04 -1.54585E+04 -5.81860E+04 -4.50628E+04 -1.58519E+04 -7.30759E+04  2.53465E+04 -5.05444E+04
  4.03397E+04  4.65038E+03  1.30677E+04  4.89057E+04 -3.52565E+04  4.95831E+04 -6.99189E+04  9.73533E+01
 -5.47475E+04 -5.80450E+04 -4.41188E+03 -7.59565E+04  3.08163E+04 -5.51066E+04  5.16248E+04 -1.23834E+04
  4.83801E+04  1.21454E+04  3.14979E+04  2.03944E+04  1.28078E+04  3.03117E+04 -5.67530E+03  2.92842E+04
 -1.83197E+04  1.64405E+04 -1.60309E+04 -6.96011E+03  6.94076E+03 -4.61386E+03  2.68063E+04  8.02917E+03
  5.79235E+03  3.29569E+04 -2.96181E+04  3.80296E+04 -5.94818E+04 -1.06097E+03 -5.59479E+04 -4.39042E+04
 -1.06757E+04 -5.91589E+04  4.44203E+04 -4.91393E+04  5.94151E+04 -2.10834E+03  3.52490E+04  3.45692E+04
 -9.38003E+03  3.96081E+04 -3.21209E+04  1.31239E+04 -2.96071E+04 -4.42466E+03 -1.59859E+04 -1.29713E+04
 -1.59258E+04 -1.17442E+04 -7.16873E+03 -1.93281E+04  6.12798E+03 -1.83090E+04  1.82908E+04 -1.05009E+04
  1.02918E+04  3.86904E+03 -8.38155E+03  1.52966E+04 -2.50373E+04 -8.49056E+03 -1.14620E+04 -3.66916E+04
  1.85756E+04 -4.61651E+04  4.82318E+04 -2.31302E+04  4.92677E+04  1.97280E+04  1.54719E+04  4.23476E+04
 -2.25230E+04  2.81024E+04 -2.68307E+04  4.18120E+03 -1.25245E+04 -2.89227E+04  2.37120E+04 -3.67899E+04
  3.94235E+04 -8.96778E+03  3.52115E+04  2.60347E+04  2.20442E+04  4.89102E+04 -1.09129E+04  4.67721E+04
 -3.20235E+04  4.25332E+04 -4.83000E+04  1.56449E+04 -4.48802E+04 -2.14552E+04 -2.59367E+04 -3.57391E+04
  3.83911E+03 -4.21502E+04  3.03478E+04 -1.36549E+04  3.16945E+04  7.19836E+03  3.73611E+03  2.46054E+04
 -1.59561E+04  1.06808E+04 -1.06543E+04 -6.74647E+03  4.49235E+03 -8.71652E+03  1.84793E+04  3.81251E+03
  1.16506E+04  2.31252E+04 -5.05419E+03  2.32859E+04 -2.01483E+04  1.46472E+04 -2.86741E+04 -2.92755E+03
 -2.32980E+04 -1.82898E+04 -1.46451E+04 -1.80480E+04  4.69368E+03 -2.37381E+04  1.59496E+04 -1.73781E+04
  2.82312E+04 -1.36868E+04  3.44244E+04  1.13689E+04  3.14839E+04  2.33250E+04  3.52846E+03  3.92933E+04
 -2.05551E+04  3.04444E+04 -2.71313E+04  1.36014E+04 -2.77571E+04 -1.44584E+04 -7.04220E+03 -1.34335E+04
  1.88039E+03 -1.36407E+03 -5.10854E+03  4.84070E+03 -1.44481E+04  5.34286E+03 -1.87649E+04 -9.80658E+03
 -8.66038E+03 -1.72454E+04  7.16636E+03 -1.87198E+04  1.82506E+04 -1.74188E+04  1.47236E+04 -2.19663E+03
  1.21926E+04  1.24714E+04  3.27519E+03  2.33228E+04 -1.57010E+04  1.10376E+04 -1.87889E+04 -2.84508E+03
 -1.38572E+04 -1.28655E+04 -1.53234E+02 -2.91914E+04  1.02622E+04 -2.03962E+04  2.24127E+04 -1.31401E+04
  1.56329E+04 -4.59861E+02  9.78444E+03  8.49978E+03  5.08902E+03 -3.19112E+03  8.81889E+03  5.56580E+02
  1.64502E+04  6.35189E+03  2.02535E+04  1.50613E+04  7.36879E+03  3.52889E+04 -6.74058E+03  3.78307E+04
 -2.26580E+04  2.96560E+04 -3.67072E+04  1.41356E+04 -3.86401E+04  3.72336E+03 -2.87883E+04 -2.18452E+04
 -1.71689E+04 -3.25005E+04  1.43385E+04 -2.42170E+04  2.46351E+04 -1.06614E+04  1.70377E+04  7.44319E+03
  9.96903E+03  1.82430E+04 -5.49043E+03  1.52276E+04 -1.37183E+04  2.33788E+03 -1.54660E+04 -9.01553E+03
  2.81508E+03 -2.15337E+04  9.18060E+03 -4.36381E+03  1.29974E+04 -6.89072E+03  2.07298E+03  6.56526E+03
 -4.49804E+03  3.60173E+03 -8.25811E+03 -9.13226E+03 -3.94081E+03 -1.85917E+04  1.15907E+04 -1.61546E+04
  1.90305E+04 -8.89657E+03  1.91607E+04  4.88375E+03  2.09003E+04  1.14923E+04  5.89133E+03  2.42958E+04
 -3.09134E+03  2.57824E+04 -1.75297E+04  1.22449E+04 -2.05785E+04  2.86252E+03 -1.23652E+04 -5.67498E+03
 -2.89203E+03 -7.26029E+03  2.80057E+03  1.10251E+03  9.25119E+02  6.04677E+03 -8.90000E+03  8.99242E+03
 -1.03494E+04  3.42344E+03 -1.43585E+04 -9.30364E+03 -4.08280E+03 -1.84397E+04  1.26330E+04 -1.43365E+04
  1.36198E+04 -4.32955E+03  7.19706E+03 -1.01233E+03  6.75906E+02  8.43681E+03 -1.07541E+04  5.44153E+03
 -3.26650E+03 -6.07537E+03  4.43225E+03 -7.62940E+03  9.35221E+03 -1.27473E+04  1.14258E+04 -1.20360E+04
  1.80243E+04 -1.53390E+03  1.71555E+04  1.23409E+04 -1.63163E+02  1.24472E+04 -1.18254E+04  8.89710E+03
 -9.61347E+03  1.19084E+03 -5.76304E+03  1.18215E+03 -6.24959E+03 -9.07775E+03  8.19961E+03 -7.94458E+02
  9.86548E+03  3.41034E+03 -3.42646E+03  8.10094E+03 -9.12564E+03  1.18177E+04 -1.48048E+04 -5.23033E+02
 -9.41266E+03 -2.59993E+03  8.79232E+02 -7.32039E+03  4.50199E+03 -2.01952E+03  7.14220E+03  2.38471E+03
 -5.09802E+03  7.35745E+03 -3.46122E+03  9.64417E+03 -8.04499E+03  7.41612E+03 -1.08066E+04 -3.90566E+03
 -3.74679E+02 -8.85075E+03  1.83127E+03 -1.20541E+04  8.71133E+03 -8.68358E+03  1.09592E+04  1.82534E+03
  8.53912E+03  6.41927E+03  1.17012E+03  1.62962E+04 -8.32586E+03  7.37796E+03 -1.16286E+04 -2.84628E+03
 -8.75382E+03 -1.04641E+04 -4.69373E+02 -1.13257E+04  4.55171E+03 -2.19854E+03  3.85996E+03  1.52793E+03
  4.07070E+03  3.27988E+03  4.25641E+03 -3.12372E+03 -3.64978E+03 -2.72782E+03  1.98974E+03 -4.90870E+03
  4.15451E+03 -3.77532E+03  1.48734E+04  4.67811E+03  1.22913E+04  4.02806E+03  1.01478E+04  1.47819E+04
 -1.83190E+03  2.04397E+04 -1.17067E+04  1.25812E+04 -1.91614E+04  6.25517E+03 -1.53042E+04 -8.35078E+03
 -6.28841E+03 -1.12927E+04  1.41084E+03 -1.30975E+04  1.64493E+03 -1.50145E+03 -2.55989E+03 -5.94130E+03
  4.47860E+02 -2.20406E+03  1.96189E+03 -8.52757E+03  8.77288E+03 -8.78127E+02  5.09599E+03  2.83135E+03
  1.22734E+04  6.32249E+03  5.51690E+03  3.19965E+03  1.53907E+03  1.01560E+04 -3.10415E+03 -2.45453E+02
 -1.12937E+04  9.89476E+02 -3.18050E+03 -4.98801E+03 -4.72503E+03 -1.04075E+04  4.81308E+03 -6.50180E+03
  1.13855E+04 -5.71659E+03  1.19945E+04 -3.90751E+02  1.06709E+04  1.14091E+04  5.59031E+03  9.31519E+03
 -5.37862E+03  1.25900E+04 -7.96503E+03  5.17596E+03 -7.29396E+02 -2.78647E+03 -3.18651E+03  1.47001E+02
 -9.31876E+02 -3.04602E+02  1.41367E+03 -1.68957E+03  4.15642E+02 -3.64279E+03 -3.46050E+03 -3.33694E+03
 -3.67206E+03 -3.25278E+03  4.96556E+02 -1.13422E+04  6.33571E+03 -8.84201E+03  7.46638E+03 -1.97185E+03
  8.99416E+03  4.02198E+03  5.31244E+03  2.78089E+03  2.39563E+03  7.42645E+03 -5.64813E+03  3.09990E+03
 -9.61265E+03  4.76650E+01 -8.45407E+03 -7.42109E+03  2.26201E+03 -1.43645E+04  1.26619E+03 -7.10994E+03
  8.93959E+03 -2.87144E+03  6.10210E+03  3.52941E+03  1.69921E+03  2.82773E+03 -4.28680E+03 -5.06837E+03
  3.62343E+03  1.51782E+02  3.39899E+03  1.83029E+03  3.13921E+03  3.36865E+03  2.35056E+03  6.16357E+03
 -3.32073E+03  9.69396E+03 -3.86278E+03  7.80713E+03 -1.24621E+04  8.96986E+02 -5.88035E+03 -2.83169E+03
 -5.45474E+03 -1.06126E+04  4.37096E+03 -5.38201E+03  3.66703E+03 -3.79512E+03  1.04772E+04 -3.57263E+02
 -1.74938E+03  1.42223E+03  3.24711E+03  2.65878E+03 -9.30317E+02  8.91509E+03 -4.81235E+02  4.04034E+03
 -3.49028E+03 -2.15641E+03 -4.49278E+03 -5.39333E+03  6.99632E+03 -7.07034E+02  3.37746E+03  6.27865E+03
  6.15579E+03  1.08018E+03  1.07193E+03 -2.69989E+03  2.37101E+03  1.05606E+04  5.32704E+03  1.64391E+03
 -4.09214E+03  7.72979E+03  5.67585E+03  4.32379E+03  3.35676E+03  1.50277E+03  1.03481E+03  7.58872E+03
  6.66957E+02  6.58899E+03 -6.95607E+03  6.19379E+02 -4.83206E+03 -3.01834E+03 -2.13152E+03 -3.36239E+03
  4.08796E+03 -3.81611E+03  1.75622E+03  2.05158E+03  2.29644E+03  2.92799E+03  6.55562E+03  3.04132E+03
 -5.85652E+03  1.14319E+03 -7.90315E+03 -3.67101E+03 -5.00554E+03 -3.31741E+03  1.45564E+02 -1.46814E+03
  2.66802E+03 -1.23726E+03  3.47521E+03  3.90843E+03  1.75218E+03 -1.37866E+03 -2.47015E+03  2.36345E+03
 -1.21696E+03  1.65459E+03 -1.22722E+03 -4.62387E+03 -2.82462E+02 -3.29516E+03  1.20467E+04 -1.39056E+03
  3.65983E+03 -1.81730E+03  5.50980E+03  9.59001E+03  3.14507E+03  4.13115E+03 -4.75135E+03  3.14662E+03
 -5.71231E+03  2.84587E+03 -4.47846E+03  2.36875E+03 -8.99660E+03 -2.29739E+03  2.90719E+03 -3.52023E+03
  7.23790E+03  5.00918E+02  2.03670E+03  2.63446E+03  3.57069E+03  1.84230E+03  4.87405E+03 -6.44685E+02
 -1.09853E+03  4.83576E+03 -2.48205E+03  2.24483E+03  1.73803E+03 -4.21131E+02  3.23074E+03  2.82475E+03
 -4.35685E+03  2.32821E+03 -5.48377E+03 -1.27760E+03 -9.88624E+03  1.26067E+02 -1.47425E+03 -5.37379E+03
  2.33633E+03 -7.57983E+03  6.80592E+03 -7.67977E+03  3.33870E+03 -5.35583E+03  4.80112E+03 -5.96931E+03
  8.25056E+03  8.70886E+03  3.10728E+03  4.33776E+03 -1.60567E+03  6.85902E+03 -3.11494E+03  3.32646E+03
 -4.13778E+03  4.11058E+03  3.73441E+03  3.43495E+03  1.76759E+03  2.61542E+03  1.20598E+03  1.84090E+03
 -1.14512E+03  4.07272E+03 -3.22119E+03 -1.15588E+03  7.82417E+02 -2.30048E+03 -1.49781E+03 -4.75162E+03
  4.36568E+03 -1.29405E+02  5.52261E+03  3.98893E+03  2.07518E+02 -1.70783E+03  5.03882E+02  9.76960E+03
 -9.11357E+02  5.83434E+03 -3.64270E+03  4.41041E+03 -9.18369E+03  1.60187E+03 -1.44506E+03 -1.06033E+04
 -5.44710E+03 -3.79935E+03  6.32601E+03 -8.23423E+03  2.85653E+03  3.36971E+03  3.97694E+03 -1.53457E+03
  3.69922E+03  7.86018E+02 -1.31004E+03  3.03563E+03  4.06287E+03  1.11873E+03  6.58530E+02 -1.55026E+03
 -1.07690E+03  8.17717E+02 -2.40937E+03  3.93724E+03  5.02748E+03  2.57157E+03  2.08336E+03  2.73698E+03
  8.26766E+02  4.58895E+03 -1.49764E+03 -7.86780E+02 -6.19696E+03 -7.73052E+03  2.16199E+03 -4.65904E+03
  2.98765E+03 -2.37677E+03  7.62150E+03  2.91461E+03  4.19416E+03 -1.14421E+03  2.44695E+03  9.53046E+02
  2.60772E+02  2.09329E+03  1.29842E+03 -1.01593E+03 -2.54726E+03  9.04659E+03 -3.67459E+03  2.81036E+03
 -5.33559E+03  4.19178E+03 -4.20345E+03  5.72527E+03 -1.28266E+03 -9.48809E+01 -5.44529E+03 -4.61524E+03
 -6.81344E+03  3.74233E+01  2.92824E+03 -1.91561E+03 -3.01591E+03 -1.34611E+03 -5.45037E+02 -2.39067E+03
 -2.48001E+03  5.12935E+03  2.09771E+03 -2.54961E+03  1.43831E+03 -2.01561E+03 -4.56358E+03  2.80927E+03
