 $NMID ID='MM_0lb_SNR50_13hz_g45_91.RAW', FMTDAT='(8E13.5)'
 TRAMP=1., VOLUME=1. $END
  3.09921E+05 -4.44495E+03  3.30956E+05  2.50355E+05  8.11438E+04  3.40235E+05 -1.28160E+05  2.52279E+05
 -1.86806E+05  8.33637E+04 -1.06798E+05 -2.72134E+04 -3.20533E+03 -5.01907E+04  5.70015E+04  3.06771E+03
  3.83312E+04  5.37875E+04 -1.63981E+04  7.57992E+04 -5.96571E+04  6.44972E+04 -8.84399E+04  3.60406E+04
 -8.13930E+04 -8.35537E+03 -5.68878E+04 -5.43188E+04 -1.85623E+04 -7.61787E+04  2.75783E+04 -4.59987E+04
  3.96135E+04  2.53178E+03  1.51308E+04  5.40331E+04 -3.11974E+04  4.81945E+04 -6.70879E+04  3.76838E+03
 -5.20162E+04 -6.37906E+04 -8.40790E+03 -7.70554E+04  3.09710E+04 -5.31327E+04  5.11675E+04 -1.67154E+04
  4.48560E+04  6.22002E+03  3.27044E+04  2.80759E+04  1.70586E+04  2.73379E+04 -5.53240E+03  2.73456E+04
 -2.00541E+04  1.43072E+04 -1.55245E+04 -9.70983E+03 -1.07459E+03 -9.95502E+03  1.72740E+04  1.03459E+04
  7.16799E+03  3.65101E+04 -2.72024E+04  3.58242E+04 -6.42359E+04  3.76703E+03 -5.56233E+04 -4.14033E+04
 -7.52807E+03 -5.99287E+04  3.86851E+04 -4.74652E+04  5.30283E+04 -1.02303E+03  3.45923E+04  3.40667E+04
 -6.09469E+03  3.65390E+04 -2.79394E+04  1.55469E+04 -3.16250E+04 -2.35003E+03 -1.44241E+04 -1.20942E+04
 -9.49690E+03 -1.52168E+04 -7.02394E+02 -1.39683E+04  9.45580E+03 -1.88932E+04  1.99971E+04 -1.21004E+04
  7.95117E+03  4.18949E+03 -1.04209E+04  1.32381E+04 -2.33897E+04 -4.61785E+03  1.48108E+03 -3.32688E+04
  2.91925E+04 -4.54444E+04  4.60101E+04 -1.74972E+04  4.60433E+04  1.92588E+04  1.85754E+04  4.45162E+04
 -1.93831E+04  2.94576E+04 -2.51522E+04  1.82583E+03 -1.41004E+04 -2.74935E+04  2.10666E+04 -3.29795E+04
  4.04774E+04 -8.35336E+03  3.50244E+04  2.85316E+04  1.63111E+04  4.60020E+04 -1.26540E+04  5.11401E+04
 -3.13989E+04  3.54334E+04 -4.67482E+04  2.50645E+03 -4.52000E+04 -1.49031E+04 -2.33928E+04 -3.78538E+04
  7.38475E+03 -3.67341E+04  2.96448E+04 -1.96161E+04  3.35041E+04  1.09483E+04  5.90255E+03  2.53534E+04
 -8.56089E+03  6.58403E+03 -1.59551E+04 -8.37314E+03  5.25267E+03 -1.26435E+04  2.22552E+04  6.56213E+03
  1.34958E+04  1.99882E+04 -5.65605E+03  2.31071E+04 -2.39481E+04  1.30380E+04 -2.16823E+04  1.39788E+03
 -2.22070E+04 -1.28777E+04 -9.99308E+03 -2.16876E+04  3.92057E+03 -2.43317E+04  1.53491E+04 -1.62506E+04
  2.59666E+04 -1.86782E+04  3.25331E+04  3.31402E+01  2.63047E+04  1.90990E+04  5.75521E+03  4.44670E+04
 -1.36271E+04  3.04879E+04 -2.61405E+04  9.79956E+03 -1.84091E+04 -1.00319E+04 -4.06797E+03 -1.05803E+04
  3.76091E+03 -4.33101E+03 -6.99191E+03  6.44998E+03 -1.98723E+04  7.14098E+03 -1.82231E+04 -6.11605E+03
 -9.15702E+03 -1.66288E+04  6.56068E+03 -2.35810E+04  1.65020E+04 -1.49727E+04  1.86579E+04  1.27521E+03
  1.58653E+04  6.72128E+03  4.11438E+03  2.40010E+04 -1.02780E+04  9.40072E+03 -1.99235E+04 -3.27104E+03
 -1.10375E+04 -2.00018E+04 -1.46196E+02 -2.44198E+04  1.35997E+04 -1.70833E+04  2.20731E+04 -8.09975E+03
  1.54505E+04 -3.98692E+03  1.09435E+04  3.06823E+03  6.76105E+03  1.13140E+03  2.87765E+03 -7.47724E+03
  1.74251E+04 -2.62224E+02  1.58421E+04  1.76912E+04  1.51525E+04  2.67218E+04 -6.42541E+03  3.52956E+04
 -1.57816E+04  3.78489E+04 -3.31298E+04  1.25828E+04 -3.29049E+04 -3.49332E+02 -3.12550E+04 -1.86165E+04
 -9.31021E+03 -3.28100E+04  1.26873E+04 -2.86115E+04  2.10314E+04 -1.61966E+04  1.83103E+04  9.29153E+03
  4.46786E+03  1.60133E+04 -1.03593E+04  1.02537E+04 -1.58723E+04 -6.22960E+02 -1.15714E+04 -1.20735E+04
  1.91305E+03 -1.17463E+04  7.04746E+03 -5.04925E+03  1.17144E+04  1.52235E+03 -2.80688E+02  4.10477E+03
 -8.24610E+03  3.81236E+03 -5.34743E+03 -9.95886E+03 -1.87579E+03 -1.39682E+04  1.37015E+04 -1.41420E+04
  1.79813E+04 -1.14688E+04  2.20449E+04  7.46026E+03  1.58383E+04  1.14591E+04  6.80816E+03  1.81138E+04
 -5.94882E+03  2.28356E+04 -1.67629E+04  1.88650E+04 -1.54617E+04  5.64730E+03 -1.41914E+04 -3.23405E+03
 -2.34936E+03  1.50538E+02 -7.05354E+02  2.55778E+03  3.02097E+03  3.89831E+03 -6.63281E+03  4.23759E+03
 -6.27088E+03 -3.18739E+03 -9.37291E+03 -9.17351E+03 -2.06198E+03 -1.50456E+04  4.95587E+03 -1.53112E+04
  1.17548E+04  3.30954E+03  1.05565E+04 -1.25278E+03 -1.61553E+03  5.02173E+03 -8.91341E+03 -4.38336E+03
 -8.20407E+03 -6.07841E+03  3.46959E+02 -1.47299E+04  5.75741E+03 -1.28916E+04  1.37484E+04 -2.81426E+03
  1.50775E+04  9.71593E+02  1.16224E+04  1.00326E+04  4.99426E+03  1.62620E+04 -6.50505E+03  1.24728E+04
 -1.25393E+04  3.48698E+03 -1.66913E+03  1.18626E+03  4.58834E+02 -6.12273E+03  8.34867E+03  2.19715E+02
  2.15807E+03  2.62578E+03  3.07125E+03  1.08544E+04 -1.02771E+04  1.47684E+04 -9.04005E+03 -7.50976E+02
 -6.37748E+03 -1.09324E+04 -2.51026E+03 -1.30631E+04  6.45945E+03 -6.00916E+03  3.05517E+03  4.22967E+03
 -1.30927E+03  5.21747E+03 -5.00239E+03  1.15203E+04 -7.03979E+03  5.64611E+03 -6.50607E+03 -5.87240E+03
 -4.78305E+03 -8.77439E+03  1.69815E+03 -1.26335E+04  1.09661E+04 -9.81474E+03  1.21744E+04 -1.07709E+03
  6.58925E+03  1.36297E+04  2.37367E+03  9.01940E+03 -1.18951E+04  5.30788E+03 -1.09115E+04 -1.88579E+03
 -7.90804E+03 -4.57012E+03  2.19042E+02 -8.54164E+03  5.45158E+03 -5.54808E+03  6.33387E+02 -2.57556E+03
  4.75983E+03  8.37374E+02 -3.24450E+02  2.41707E+03  1.44618E+03 -4.45151E+03  7.51827E+02 -6.53438E+03
  5.74476E+03 -3.41521E+03  1.20392E+04 -5.36614E+02  1.54387E+04  1.09682E+04  6.53586E+03  1.24493E+04
 -2.36926E+03  1.37199E+04 -1.24601E+04  1.16178E+04 -1.93747E+04  2.31444E+03 -1.55369E+04 -6.09030E+03
 -6.53098E+03 -9.59390E+03  1.01424E+03 -9.49880E+03  6.09588E+03 -4.01736E+03  5.60822E+03 -7.10379E+03
  5.60450E+03 -4.13597E+03  3.37218E+03 -7.87211E+03  1.63033E+03  2.71404E+03  3.91399E+03  1.88306E+03
  8.21203E+03  4.15773E+03  6.30515E+03  6.05180E+03  8.87371E+02  5.03085E+03 -7.09788E+03  7.40316E+03
 -1.12586E+04 -3.51523E+03 -5.67369E+03 -6.45945E+03 -2.49839E+03 -7.21834E+03  8.38252E+03 -8.34505E+03
  9.23461E+03 -8.65648E+03  1.01863E+04  3.73959E+03  1.02569E+04  8.09413E+03 -1.52728E+03  1.17600E+04
 -1.70845E+03  5.93346E+03 -2.35687E+03  5.44004E+03 -1.35981E+03  2.31857E+03  6.17949E+01 -3.51728E+03
 -1.43954E+02 -1.21531E+03 -4.83034E+03  2.90529E+03 -2.17913E+03  2.99334E+02 -7.31141E+03 -4.81234E+03
 -2.80945E+03 -5.05221E+03  6.20958E+02 -8.79365E+03  2.18526E+03 -6.37192E+03  5.66951E+03  3.08551E+03
  1.64513E+04  5.30081E+03  6.73984E+03  7.84812E+03 -2.03237E+03  8.32269E+03 -5.40144E+03  8.47830E+03
 -8.48075E+03  1.38120E+03 -9.99562E+02 -3.46311E+03 -1.41160E+03 -5.65729E+03  4.97669E+02  1.92536E+02
  8.27185E+03 -1.42306E+03  6.86671E+03  3.53028E+03  4.88241E+03  4.97669E+03 -4.13262E+02 -7.36634E+02
  5.13842E+03  2.52150E+03  4.90390E+03  1.19405E+02  4.36916E+03  3.42860E+03  7.78746E+03  4.43498E+03
 -2.14247E+03  1.64787E+03 -7.79667E+03  7.28323E+03 -7.28524E+03  2.57887E+03 -6.11417E+03 -9.14203E+02
 -2.47702E+03 -1.05622E+04  1.58331E+02 -1.32976E+04  4.94719E+03 -6.94515E+03  8.26149E+03 -7.79701E+02
  3.70880E+03  7.27544E+03  8.09770E+03  4.83622E+03 -3.98940E+03  2.14236E+03 -1.39851E+03  6.73811E+02
  5.14025E+03 -8.31556E+03  4.32927E+03 -3.66095E+03  3.05850E+03 -1.50936E+03  2.95508E+03  3.45548E+02
  8.29190E+02  3.82452E+03  4.01199E+03  2.28618E+03 -1.08926E+03  2.21609E+03  8.56593E+02  2.42977E+02
 -1.70599E+03  2.40472E+03  3.94479E+03  2.96659E+03  2.14586E+03  1.52171E+03  2.97310E+03  4.96276E+03
 -4.69146E+03  1.52132E+03 -7.34169E+03 -3.96743E+02 -3.78610E+03  2.68090E+03 -3.35045E+03 -2.55798E+03
  5.18796E+03 -6.92314E+03  8.78992E+02  2.71275E+03  4.57086E+03 -5.14465E+03 -4.02515E+03  2.46326E+03
 -3.49675E+03  5.91937E+03 -6.14654E+03  1.62488E+03 -3.10081E+03 -1.14605E+03  2.35617E+03  1.46203E+03
  3.23130E+03 -4.26215E+03  9.67710E+03  1.01464E+03  1.14525E+03  2.44312E+03 -1.51049E+03 -1.55369E+03
 -7.55053E+03 -5.87094E+02 -1.69517E+03  1.75679E+03 -4.39532E+02  2.60362E+03  8.01556E+03 -1.09930E+03
  1.10520E+04  3.91121E+03  6.26983E+03  2.51503E+03 -1.03541E+03  1.57841E+03 -3.65145E+03  7.71659E+03
 -3.59459E+02  2.80047E+03 -3.76556E+03 -1.78390E+03 -8.21444E+03 -8.65846E+03  3.09349E+03 -5.27726E+03
  3.46193E+02 -4.67955E+03 -6.50370E+02 -1.34820E+03  2.91670E+03 -1.38593E+02 -2.18613E+02  1.40524E+02
 -1.14314E+02 -4.38512E+03 -6.67596E+02 -7.93127E+00 -6.37881E+03  8.85432E+02 -1.19069E+03  4.64020E+03
  1.80670E+03 -1.80158E+02 -8.34321E+03  6.58682E+03 -5.42090E+03  2.57005E+03 -7.97089E+03 -3.66264E+03
 -6.64815E+03 -7.31088E+03  4.49506E+03 -5.67429E+03  8.04670E+03 -3.69281E+03  4.42317E+03 -3.36283E+03
  8.67967E+03  5.30161E+02  1.86140E+03  5.64301E+03  3.46889E+03  1.77897E+03 -5.23946E+02  3.43894E+03
 -2.60232E+03  2.42106E+03 -3.78333E+03  1.29484E+03 -7.52105E+02 -6.71487E+02 -1.56210E+03  5.10491E+03
 -1.06868E+03  8.92123E+02 -3.84589E+03 -3.84906E+03  4.80828E+03 -3.07540E+03 -2.65083E+03  1.87553E+03
  3.53819E+03 -4.79422E+02  2.25212E+03 -1.65233E+03  3.79787E+03  2.81382E+03  7.99235E+02  1.52960E+03
  9.61736E+01  1.68226E+03 -2.49614E+02 -7.71331E+02 -1.80964E+03  1.74622E+03 -5.27336E+03 -6.01540E+02
 -3.07130E+02 -5.81491E+03  6.50693E+03 -4.68426E+03  7.66188E+03 -2.43302E+03 -1.99914E+02 -2.90668E+02
  1.18879E+01  6.05486E+03  7.24740E+02 -2.89936E+02  1.73880E+03  2.84901E+03 -3.45802E+03 -7.60935E+03
  5.17670E+03  2.08047E+03  4.94924E+03  4.21257E+03  1.34903E+03  9.52441E+02  7.15298E+02 -6.44196E+02
 -5.72087E+03  2.71968E+03  3.09054E+03 -1.05734E+03 -1.54293E+03 -3.60899E+03 -2.60186E+03 -4.98113E+03
  1.34775E+03 -2.64129E+03  2.89850E+03  2.84257E+03  8.17530E+02 -1.17774E+03  2.50114E+03  2.11918E+03
  1.74785E+03  8.60173E+02 -5.85612E+02  1.69330E+03 -8.40119E+03 -1.50580E+03 -3.86758E+03  1.94590E+03
 -1.26174E+03 -1.26352E+03 -6.97178E+02  1.04523E+03 -2.09707E+03 -6.94966E+02 -3.75484E+03  1.05718E+03
 -3.13856E+03  4.65356E+03 -4.98584E+03 -2.66932E+01  3.56912E+03 -3.23162E+03  3.39947E+03 -4.26404E+03
 -1.95454E+03 -5.68725E+03  3.40389E+03  6.09292E+03  1.82414E+02  1.18393E+03 -1.72251E+03 -2.47603E+03
