 $NMID ID='MM_0lb_SNR50_8hz_g45_34.RAW', FMTDAT='(8E13.5)'
 TRAMP=1., VOLUME=1. $END
  3.09438E+05 -6.12815E+03  3.36874E+05  2.56314E+05  8.70880E+04  3.40460E+05 -1.34832E+05  2.52006E+05
 -1.88053E+05  7.85261E+04 -1.13982E+05 -3.09424E+04 -1.02560E+03 -5.16307E+04  5.61405E+04  4.61582E+03
  2.51240E+04  5.25705E+04 -2.34391E+04  8.01082E+04 -6.50410E+04  5.53649E+04 -8.63281E+04  3.29267E+04
 -8.25924E+04 -1.50097E+04 -6.12938E+04 -5.23691E+04 -1.96976E+04 -7.22526E+04  3.30657E+04 -4.56271E+04
  4.17159E+04 -3.23604E+03  1.55487E+04  4.85742E+04 -3.97022E+04  4.49092E+04 -6.90327E+04  5.28368E+03
 -5.97460E+04 -5.76777E+04 -5.26281E+03 -7.68531E+04  3.59864E+04 -6.04010E+04  4.57632E+04 -1.61496E+04
  4.75659E+04  8.61310E+03  2.95057E+04  2.37808E+04  1.93891E+04  3.23006E+04 -5.96937E+03  2.30405E+04
 -2.30874E+04  1.10415E+04 -2.60823E+04 -4.64528E+03  5.93247E+02 -1.23723E+04  2.35998E+04  1.08998E+04
  1.03902E+04  3.57841E+04 -3.14671E+04  3.92163E+04 -6.39264E+04 -2.78602E+02 -5.72233E+04 -4.18391E+04
 -7.60016E+03 -6.71590E+04  4.04742E+04 -4.32621E+04  6.50763E+04 -2.04755E+03  3.90505E+04  3.66677E+04
 -6.46961E+03  4.24729E+04 -3.01792E+04  2.57031E+04 -3.17676E+04 -3.72103E+03 -1.76315E+04 -1.18692E+04
 -1.64832E+04 -2.18421E+04  1.90742E+03 -2.42229E+04  5.10992E+03 -3.15384E+04  1.31807E+04 -1.03910E+04
  8.65042E+03  4.22701E+03 -9.99125E+03  1.26531E+04 -2.59099E+04 -1.27318E+04 -9.19744E+03 -3.93115E+04
  1.93325E+04 -4.61721E+04  5.01019E+04 -2.27561E+04  5.10201E+04  2.08511E+04  1.01771E+04  4.41918E+04
 -9.67028E+03  3.49535E+04 -2.33052E+04 -1.59488E+03 -1.53190E+04 -2.93380E+04  1.86534E+04 -4.22937E+04
  5.13843E+04 -1.35233E+04  4.09166E+04  3.06291E+04  2.18610E+04  5.09013E+04 -7.14551E+03  5.04671E+04
 -3.79439E+04  3.91875E+04 -4.99613E+04  1.05966E+04 -4.81329E+04 -1.21429E+04 -3.27050E+04 -3.95947E+04
  7.79592E+03 -4.57422E+04  3.49755E+04 -1.98187E+04  2.72567E+04  2.02382E+04 -2.09237E+03  2.22727E+04
 -1.17531E+04  6.90675E+03 -1.51826E+04 -1.18990E+04  5.70730E+03 -1.45130E+04  2.32676E+04  3.59784E+03
  1.82937E+04  1.69659E+04 -8.71436E+03  2.97839E+04 -1.99100E+04  1.09477E+04 -3.24010E+04  4.71961E+03
 -2.34196E+04 -2.09793E+04 -1.07706E+04 -2.62712E+04 -4.97880E+03 -2.51551E+04  1.75305E+04 -1.95628E+04
  3.49559E+04 -2.06216E+04  3.19744E+04  6.68154E+03  3.38266E+04  2.18264E+04  8.01650E+03  3.55516E+04
 -1.45064E+04  3.22154E+04 -2.72605E+04  1.13386E+04 -2.56370E+04 -1.62197E+04 -4.16615E+03 -6.45859E+03
  6.23269E+02  1.53026E+03 -2.33214E+03  3.53378E+03 -1.82802E+04  4.49042E+03 -1.60236E+04 -5.58381E+03
 -1.38360E+04 -2.12163E+04  7.51900E+03 -2.60520E+04  2.14455E+04 -1.51227E+04  2.07531E+04 -5.01882E+03
  1.85177E+04  1.87802E+04 -6.92927E+03  2.92769E+04 -1.70607E+04  1.96449E+04 -2.20811E+04 -1.11702E+04
 -1.49341E+04 -2.08144E+04 -1.63359E+03 -3.17074E+04  1.08077E+04 -2.96250E+04  2.02240E+04 -1.31485E+04
  2.23857E+04 -1.21251E+03  1.74762E+04  8.53840E+03  9.63589E+03  9.03438E+03  1.78963E+04  1.69885E+03
  2.67767E+04  4.62342E+03  1.94618E+04  1.54588E+04  1.47034E+04  3.88147E+04  2.49781E+03  4.30233E+04
 -2.37883E+04  4.39277E+04 -3.77860E+04  1.65209E+04 -4.66963E+04  3.67158E+02 -3.32850E+04 -2.73511E+04
 -1.10213E+04 -4.28676E+04  1.12625E+04 -3.43273E+04  3.32318E+04 -1.31199E+04  2.77910E+04  5.72058E+03
  6.18166E+03  2.23937E+04 -1.23410E+04  1.54585E+04 -2.60098E+04  1.87314E+03 -9.86952E+03 -6.94439E+03
  1.41325E+03 -1.37544E+04  9.40442E+03 -1.93802E+04  1.57556E+04  2.24958E+03 -1.76640E+03  1.19678E+04
 -1.43827E+04 -1.47581E+03 -1.24925E+04 -1.31483E+03 -2.05498E+03 -1.97798E+04  1.86814E+04 -1.93725E+04
  2.98915E+04 -1.34449E+04  2.82655E+04  8.46319E+03  2.45519E+04  1.76440E+04  8.81109E+03  3.02843E+04
 -7.66432E+03  3.45813E+04 -3.01565E+04  2.27821E+04 -2.03153E+04  2.57268E+01 -1.29734E+04 -3.22735E+03
 -2.03741E+03 -1.08527E+04  1.17922E+03  3.21628E+02 -6.37486E+03 -3.06159E+03 -8.99193E+03  3.60231E+03
 -1.99923E+04 -2.00106E+03 -1.24031E+04 -5.99605E+03 -2.80859E+03 -2.23698E+04  7.52830E+03 -1.22063E+04
  1.75529E+04 -5.09785E+03  5.56847E+03  3.44586E+03  1.99298E+03  9.42993E+03 -1.33954E+04 -2.75267E+03
 -8.43545E+03 -7.10620E+03  1.58890E+03 -1.71181E+04  4.94605E+03 -1.58194E+04  1.70907E+04 -9.44243E+03
  2.24058E+04  3.07095E+03  1.73781E+04  2.11684E+04  7.44375E+02  1.92946E+04 -6.66128E+03  1.92706E+04
 -1.13792E+04  1.15824E+04 -5.39642E+03 -2.63627E+03  3.16013E+03 -9.71225E+03  5.32145E+03  1.67151E+03
  8.51791E+03  1.10550E+04 -2.10643E+03  8.15149E+03 -8.97310E+03  1.25324E+04 -1.73562E+04  1.08216E+03
 -1.09533E+04 -1.78116E+04  1.68912E+02 -8.71380E+03  1.04919E+04 -1.16762E+04  7.08307E+03  2.67760E+03
  2.94488E+03  7.01328E+03 -1.05961E+04  9.77479E+03 -1.37656E+04  5.94264E+03 -1.44097E+04 -4.76582E+03
 -1.01027E+04 -1.71754E+04  3.89901E+03 -1.46956E+04  1.60858E+04 -7.98112E+03  1.75981E+04 -1.30917E+03
  1.20910E+04  1.41358E+04 -2.56077E+03  1.83225E+04 -9.87982E+03  2.14143E+04 -1.00078E+04 -3.56095E+03
 -1.52005E+04 -1.49627E+04 -3.19662E+03 -6.84526E+03 -5.63131E+02 -1.12271E+04  2.73183E+03 -5.45691E+03
 -1.48941E+03  3.70125E+03  1.49525E+03  5.42531E+03 -3.83092E+03 -3.37065E+03 -1.36008E+02 -6.18216E+03
  1.19958E+04 -5.07804E+03  2.08657E+04  4.78623E+03  1.85343E+04  1.64506E+04  1.59815E+04  2.83646E+04
 -4.22687E+03  2.54021E+04 -1.55437E+04  2.35231E+04 -2.22748E+04  8.16956E+01 -2.29365E+04 -1.04627E+04
 -1.45114E+04 -1.75305E+04  1.52556E+03 -1.58355E+04  9.14549E+03 -7.54274E+03  7.78158E+03 -6.49723E+02
  1.53713E+03 -5.65318E+03  1.11289E+04 -2.98436E+02  6.71173E+03 -5.12203E+03  7.68778E+03 -2.93730E+03
  8.65254E+03  1.72769E+03  8.75205E+03  9.12595E+03 -4.76956E+03  7.41215E+03 -7.62053E+03  1.25196E+04
 -8.88707E+03 -2.61862E+03 -1.14393E+04 -1.17052E+04 -2.99990E+03 -2.28538E+04  1.12551E+04 -1.84609E+04
  1.91785E+04 -4.91917E+03  1.80017E+04  4.11330E+02  9.18082E+03  1.67198E+04  1.77077E+03  1.97988E+04
 -9.29366E+03  1.62807E+04 -1.14885E+04  3.25533E+03  3.91518E+03  5.53336E+02  5.61481E+03 -5.43324E+03
  7.81967E+02  7.93030E+02  2.00720E+03  6.05473E+03 -2.39776E+03  1.42235E+03 -8.98198E+03 -4.64019E+03
 -1.08774E+04 -9.84196E+03 -2.15790E+03 -1.77167E+04  9.93803E+03 -1.88525E+04  1.86495E+04 -4.02640E+03
  1.95095E+04  1.11503E+03  8.55911E+03  2.09778E+04 -3.16510E+03  1.75074E+04 -7.44728E+03  1.02759E+04
 -1.42108E+04  5.56127E+03 -1.26768E+04 -1.05284E+04  4.96439E+03 -1.90869E+04  3.67939E+03 -1.56236E+04
  6.76032E+03 -3.54458E+03  6.04001E+02  5.82009E+03  6.15240E+03  2.50264E+03 -1.55566E+03  1.24624E+03
  5.51177E+03 -5.75034E+02  1.38841E+03 -3.51691E+03 -9.26493E+02  3.03305E+03  1.69409E+03  1.45186E+04
 -2.26439E+03  9.94214E+03 -1.14152E+04  1.53179E+04 -2.11768E+04  3.64318E+03 -1.77382E+04 -1.44704E+04
 -7.86265E+03 -1.72662E+04  8.96549E+03 -2.17097E+04  8.24278E+03 -1.14923E+04  1.05733E+04  2.35094E+02
  3.64938E+03  1.53244E+03  7.10490E+02  1.58432E+04 -9.12871E+03  7.19886E+03 -1.05913E+04  1.59985E+03
 -5.29264E+03 -1.08221E+04  8.60885E+03 -8.59751E+03  8.52507E+03 -4.86421E+03  8.25567E+03  1.54020E+03
  2.18314E+03  9.61242E+03 -2.82012E+03  2.39411E+03 -1.54345E+03 -1.55871E+02  5.11294E+03  5.04501E+03
  2.25309E+02 -1.63733E+03  7.51463E+03  7.38596E+03  2.43892E+03  6.49931E+03 -2.67619E+03  1.09351E+04
 -4.62596E+03  1.30239E+04 -1.46082E+04  4.67508E+03 -1.48924E+04 -1.35084E+03 -6.17280E+03 -8.58133E+03
  4.24523E+02 -4.70966E+03  5.56037E+03 -1.54250E+03  5.59359E+03 -2.31728E+03  2.26968E+03  3.35380E+03
 -6.14794E+03  8.92711E+03 -8.46725E+03  5.61952E+02 -3.79151E+03 -1.44299E+04 -5.93760E+03 -1.12960E+04
  7.63818E+03 -8.13048E+03  6.20322E+03  6.80143E+02 -9.80183E+02 -9.28849E+01 -7.11757E+03  1.29238E+04
 -6.28349E+03 -5.11720E+03 -6.80151E+03  9.19158E+02  3.77819E+03 -5.51693E+03  3.85600E+03 -9.22638E+03
  1.20880E+04  2.79921E+03  5.01637E+03  1.02443E+04  6.94872E+03  1.47439E+04 -3.50770E+03  6.32262E+03
 -1.53579E+04  3.18389E+03 -1.45400E+04 -1.53561E+04 -1.22079E+04 -5.60516E+03  5.39172E+02 -6.77362E+03
  3.75137E+03 -1.30135E+03  9.72407E+03  3.36959E+03 -1.81523E+02  5.25238E+03 -6.56748E+03  4.46962E+03
  2.77919E+03  1.02185E+03 -7.84899E+03 -1.67855E+03 -3.63881E+03  7.24960E+03 -3.46153E+03  1.88334E+03
  6.05155E+03  6.77085E+03 -1.22704E+04  8.94119E+03 -1.06307E+04  2.84921E+03 -1.09397E+04 -3.55909E+03
 -4.43973E+03 -1.78829E+04  4.06214E+03 -1.70083E+04  1.27906E+04 -1.20496E+04  1.72007E+04 -1.17582E+04
  1.10038E+04  3.59408E+03  9.05645E+03  4.31775E+03  7.27099E+02  1.13096E+04 -7.81034E+03  2.93873E+03
 -6.37961E+03  5.21900E+03 -6.94867E+03 -1.08147E+03 -4.49938E+03  1.40066E+03 -4.83613E+03 -1.10391E+03
 -6.24712E+03  1.81188E+03 -2.19048E+03 -1.50973E+03  1.52053E+02 -1.04680E+04  8.02051E+02 -3.70011E+03
  1.16560E+04 -3.94909E+03  7.40290E+03  1.98774E+03  8.10676E+03  9.32680E+03  1.43905E+03  1.24502E+04
 -2.88130E+03  1.85401E+04 -9.01025E+03  8.82979E+03 -1.11197E+04 -9.02441E+03 -9.15217E+03 -4.96050E+03
 -4.41472E+03 -1.00210E+04  4.60623E+03 -7.94288E+03  1.09637E+04 -4.80134E+02  9.57624E+03  1.98698E+03
  2.99299E+02  4.13272E+02 -3.23558E+03  5.05188E+03 -4.98459E+02 -4.20846E+03 -6.95465E+03 -1.15342E+04
  3.75558E+03  6.09249E+03  1.05518E+04  8.76673E+03 -2.22548E+03  6.24219E+03  5.17016E+02  4.77878E+03
 -6.17025E+03  7.13489E+03 -7.22992E+03  4.23363E+03 -1.25013E+04 -5.48377E+03  2.13886E+03 -3.45248E+03
 -7.18381E+02 -7.49495E+03  1.28123E+04 -1.69408E+03  8.28952E+03  2.64772E+03  2.50045E+03  1.91672E+03
  4.75506E+03  1.37427E+04 -8.91555E+03  3.14504E+03 -3.64609E+02  3.09830E+03 -5.88361E+03  3.76888E+02
 -5.34886E+03 -2.90637E+03 -5.77488E+03  3.89662E+02 -4.59444E+03  5.45809E+03 -5.43385E+03 -4.18632E+03
 -8.15337E+03 -2.35394E+03 -1.09835E+04 -3.08910E+02  7.65688E+03 -8.38323E+03  6.39655E+03 -4.38827E+03
  1.10729E+04  2.41849E+02  1.24487E+04  4.39033E+03 -5.99842E+03  3.16598E+03 -7.65080E+03  3.07448E+03
