 $NMID ID='MM_0lb_SNR50_9hz_g50_15.RAW', FMTDAT='(8E13.5)'
 TRAMP=1., VOLUME=1. $END
  3.12179E+05 -2.82802E+03  3.40442E+05  2.52252E+05  8.82633E+04  3.37986E+05 -1.32998E+05  2.54202E+05
 -1.88033E+05  8.22937E+04 -1.13461E+05 -3.54327E+04  1.04695E+03 -5.91097E+04  4.89834E+04  1.88374E+03
  4.17621E+04  6.07808E+04 -1.65769E+04  7.93114E+04 -5.98934E+04  6.42982E+04 -8.57482E+04  3.36122E+04
 -7.96829E+04 -8.95103E+03 -5.70149E+04 -5.71317E+04 -1.55552E+04 -7.34427E+04  2.97985E+04 -4.70187E+04
  4.47209E+04  2.49506E+03  1.41923E+04  4.60638E+04 -4.00461E+04  4.87281E+04 -6.72758E+04  8.44832E+02
 -5.84415E+04 -5.77728E+04 -3.46893E+03 -7.51309E+04  3.20781E+04 -5.80524E+04  5.31196E+04 -2.06786E+04
  3.97268E+04  1.53192E+04  3.78999E+04  2.52328E+04  1.29995E+04  3.16633E+04 -2.61996E+02  3.01289E+04
 -2.20073E+04  9.03421E+03 -1.78942E+04 -6.05173E+03  9.63089E+03 -5.31319E+03  2.08065E+04  7.39816E+03
  4.39258E+03  4.25111E+04 -3.37571E+04  3.42551E+04 -6.92589E+04 -3.02037E+03 -6.08761E+04 -4.06231E+04
 -1.36142E+04 -6.91953E+04  4.21033E+04 -4.84501E+04  6.64808E+04 -3.13006E+03  3.58009E+04  3.85497E+04
 -6.56309E+03  3.87103E+04 -3.63907E+04  1.58934E+04 -3.07912E+04 -2.67887E+03 -2.01008E+04 -9.43115E+03
 -1.40358E+04 -1.71319E+04 -4.32440E+03 -1.27671E+04  1.17677E+04 -2.59205E+04  1.44707E+04 -1.18460E+04
  9.83571E+03  1.52927E+03 -1.40309E+04  1.13646E+04 -1.92363E+04 -5.70155E+03 -7.87081E+03 -3.29619E+04
  1.79254E+04 -4.61176E+04  5.73119E+04 -1.86962E+04  4.99363E+04  2.32474E+04  1.44853E+04  4.10174E+04
 -2.19088E+04  3.20137E+04 -1.97168E+04 -2.58963E+02 -1.54219E+04 -3.06276E+04  2.13562E+04 -3.80669E+04
  4.56672E+04 -1.28880E+04  4.13855E+04  2.25105E+04  2.39889E+04  4.71131E+04 -7.21275E+03  6.29236E+04
 -2.96498E+04  4.00958E+04 -4.01747E+04  1.45325E+04 -4.62370E+04 -2.29395E+04 -2.88860E+04 -4.17034E+04
  8.10132E+03 -4.73945E+04  3.84772E+04 -1.85948E+04  3.01109E+04  9.51990E+03  4.75697E+03  2.14538E+04
 -1.33762E+04  6.62199E+03 -1.30633E+04 -4.23195E+03  6.25417E+03 -1.32044E+04  2.27873E+04  4.38080E+03
  1.72550E+04  2.72469E+04 -1.13714E+04  3.30326E+04 -1.75971E+04  1.24309E+04 -3.15848E+04  3.48921E+03
 -2.39629E+04 -1.61666E+04 -5.08502E+03 -2.27595E+04  4.24455E+03 -2.59440E+04  2.43563E+04 -2.25238E+04
  3.29338E+04 -1.56565E+04  3.89293E+04  5.75383E+03  2.21553E+04  3.25527E+04  7.24046E+03  3.52995E+04
 -2.54038E+04  2.84902E+04 -2.79724E+04  1.02837E+04 -2.41790E+04 -7.16137E+03 -8.01922E+03 -1.48522E+04
  1.68221E+03 -1.16692E+03 -6.26809E+03  9.32367E+03 -2.20613E+04  6.33333E+03 -1.93083E+04 -7.39582E+03
 -1.07299E+04 -2.35506E+04  3.63901E+03 -2.67766E+04  1.29107E+04 -1.79563E+04  2.28056E+04 -1.90988E+03
  1.61336E+04  1.71021E+04 -1.61261E+03  2.02509E+04 -2.16409E+04  1.27361E+04 -2.15770E+04 -5.19509E+03
 -1.38708E+04 -2.58805E+04 -8.57303E+03 -2.44322E+04  1.00530E+04 -2.77123E+04  2.20546E+04 -1.55380E+04
  2.77434E+04 -1.62115E+02  1.52662E+04  1.49526E+03  1.12794E+04  7.43948E+03  9.82689E+03  4.60116E+03
  1.73837E+04  2.76126E+03  2.05192E+04  2.25461E+04  1.37322E+04  3.29762E+04  3.61090E+03  4.70161E+04
 -2.43323E+04  4.09054E+04 -4.64327E+04  2.11609E+04 -4.58691E+04 -4.73659E+03 -3.94889E+04 -2.62752E+04
 -1.45204E+04 -3.95646E+04  1.37467E+04 -3.24472E+04  3.63558E+04 -1.92136E+04  2.66432E+04  6.45068E+03
  1.29126E+03  1.49750E+04 -1.30081E+04  2.36701E+04 -1.31077E+04 -2.30621E+03 -1.54714E+04 -1.36625E+04
 -3.15035E+02 -1.79615E+04  9.21740E+03 -1.55004E+04  1.21679E+04 -3.55722E+03  2.08856E+03  8.66656E+03
 -3.86282E+03  8.52983E+03 -9.07019E+03 -6.20601E+03 -3.81431E+03 -1.31548E+04  1.01104E+04 -1.42729E+04
  2.69770E+04 -1.11414E+04  2.69706E+04  3.23242E+03  2.18848E+04  2.35205E+04  1.18157E+04  3.13764E+04
 -7.27231E+03  2.89752E+04 -2.51626E+04  1.40152E+04 -2.02960E+04  5.64224E+02 -1.59063E+04 -3.50585E+03
 -5.39964E+03 -7.38008E+03 -2.47091E+03  1.02404E+03  2.60643E+02  2.05291E+03 -8.40660E+03  5.75092E+03
 -1.31880E+04 -5.85079E+03 -1.25894E+04 -9.63118E+03 -1.79895E+03 -1.52423E+04  6.26051E+03 -7.85834E+03
  1.52454E+04 -8.30948E+03  6.98358E+03  3.58112E+03 -7.10831E+02  7.37520E+03 -7.39363E+03 -4.45713E+00
 -7.30714E+03 -9.30484E+03 -6.34078E+03 -8.38603E+03  7.54023E+03 -1.37968E+04  2.43163E+04 -1.24881E+04
  2.52431E+04  6.53367E+02  1.62786E+04  1.76581E+04 -5.59544E+02  1.48511E+04 -9.94337E+03  1.26825E+04
 -1.50580E+04  3.89276E+03 -6.65494E+03 -4.45163E+02 -1.59662E+02 -2.77492E+03  7.69892E+03  6.90105E+03
 -1.06921E+03  1.35582E+04  1.21909E+03  1.12160E+04 -1.33377E+04  1.63083E+04 -1.19659E+04  3.83451E+03
 -6.25191E+03 -8.15178E+03  7.86850E+02 -1.36231E+04  1.23902E+04 -2.58026E+03  1.14811E+04 -2.70707E+03
  3.39249E+03  1.33240E+04 -7.86262E+03  1.11687E+04 -8.32905E+03 -1.77414E+02 -1.69955E+04 -3.16903E+03
 -5.82448E+03 -9.19131E+03  2.27171E+03 -1.21060E+04  1.97840E+04 -6.98107E+03  1.04429E+04  2.93576E+03
  8.25348E+03  6.62204E+03 -2.54580E+03  1.58589E+04 -1.08868E+04  8.34210E+03 -1.02762E+04 -3.03963E+02
 -1.45916E+04 -1.50880E+04 -4.35201E+03 -1.14707E+04  6.23306E+03 -4.22254E+03  1.20256E+04 -3.30605E+03
  5.58040E+02  3.56679E+03  3.06790E+02  2.92568E+03  3.17267E+03 -4.80292E+03  7.19248E+03 -6.02610E+03
  1.97588E+04 -3.47896E+03  1.70262E+04  2.38997E+03  1.70376E+04  1.09238E+04  9.15215E+03  1.72046E+04
 -1.04040E+04  2.42477E+04 -1.35146E+04  1.30098E+04 -2.51539E+04  6.92025E+03 -2.14143E+04 -7.17163E+03
 -1.78036E+04 -1.51354E+04  5.91957E+02 -1.61144E+04  5.11217E+03 -5.48262E+03  4.57181E+03 -3.86180E+03
 -1.02824E+03 -3.30572E+03  6.45293E+03 -9.64285E+02  3.90582E+03 -3.45223E+03  7.01697E+03 -4.14661E+03
  1.04015E+04  6.15071E+03  7.92245E+03  1.17010E+04 -3.00204E+03  5.68411E+03 -9.73895E+03  5.93008E+03
 -1.32510E+04 -9.42076E+03 -4.08044E+03 -1.14691E+04  3.20392E+03 -1.74226E+04  1.12852E+04 -1.44170E+04
  1.39830E+04 -8.34475E+03  1.34303E+04 -3.54506E+03  1.70850E+04  1.78233E+04  1.56217E+03  2.06732E+04
 -4.16717E+03  1.82532E+04 -5.49224E+03  5.88785E+03 -6.77427E+03 -1.77162E+03  4.27820E+03 -4.56286E+03
 -1.46532E+03 -1.94358E+03 -3.58794E+03  5.61573E+03 -1.29208E+04  2.98754E+03 -1.52137E+04  4.35511E+03
 -8.09237E+03 -5.86232E+03  2.99142E+02 -1.75970E+04  6.44152E+03 -1.22017E+04  1.50630E+04 -9.08309E+03
  1.48732E+04  1.38335E+04  6.96944E+03  1.21277E+04 -1.17960E+03  1.45726E+04 -1.06307E+04  1.06196E+04
 -1.69198E+04  1.39768E+03 -1.48074E+04 -1.29947E+03  1.26615E+02 -1.82334E+04  5.84767E+02 -1.14630E+04
  1.09632E+04 -1.87545E+03  7.51094E+03 -2.68724E+03  5.26811E+03  5.41839E+03 -1.00871E+03  5.92138E+03
  4.59176E+03  3.92588E+02  7.74736E+03  1.08133E+03  7.47690E+03  1.80641E+03  7.36188E+03  1.03591E+04
 -6.42988E+03  1.18136E+04 -1.25404E+04  7.72254E+03 -1.75283E+04  6.17949E+03 -1.85298E+04 -7.35651E+03
 -7.12776E+03 -7.57484E+03 -7.22267E+01 -1.18537E+04  1.23083E+04 -9.35312E+03  1.46312E+04 -7.08407E+03
  1.49267E+04  4.15177E+03  6.41444E+01  3.35902E+03 -3.55335E+03  8.83628E+03 -1.12455E+04  4.57357E+03
  3.29257E+02 -9.08312E+03  2.55199E+03 -4.14414E+03 -3.90880E+02 -6.00314E+03  1.03335E+04  4.36521E+03
 -1.88579E+03  7.00454E+03 -9.33231E+02 -7.46563E+02 -5.07537E+03  2.24838E+03  6.80733E+03  1.46363E+03
 -2.22396E+02 -4.64134E+03  9.70481E+03 -3.92460E+03  2.07481E+03  6.08797E+03  2.82457E+03  1.22513E+04
 -5.01866E+03  1.08061E+04 -8.29257E+03  2.02208E+03 -9.01025E+03 -3.70667E+03 -4.47629E+03 -1.11065E+04
 -1.24395E+03 -2.10511E+03  4.36522E+03  1.87880E+02  3.05953E+03  5.29993E+03 -5.89159E+03  1.05668E+03
 -9.65449E+03  2.52546E+03 -8.37620E+03 -9.43821E+03 -4.69495E+03 -2.68932E+03  3.18849E+03 -8.20073E+03
  1.88649E+03 -3.80466E+03  9.61834E+03 -2.84482E+03  9.12488E+03  3.96711E+03 -5.15532E+03  2.00506E+03
 -1.14006E+03  5.70045E+03 -8.90540E+03  1.20389E+03  1.38526E+03 -4.36147E+03  5.15100E+03 -8.51389E+03
  3.37042E+03 -3.27985E+03  7.39178E+03  4.44318E+03  7.84724E+03  1.08243E+04 -1.01043E+03  1.11444E+04
 -1.11240E+04  1.00057E+03 -8.70170E+03  1.14866E+01 -6.98297E+03 -3.87891E+03 -4.12487E+03 -2.02183E+03
  1.01743E+04 -1.03289E+04  2.23268E+03  3.05684E+02  2.77946E+03  3.54885E+03 -1.59009E+03  5.84715E+03
 -2.96988E+02  3.90934E+03 -1.23183E+03  5.33316E+03 -4.26805E+03  6.67179E+03 -6.45984E+03  8.53980E+03
 -8.88091E+02  6.83804E+03  1.19968E+03  2.18939E+03 -2.31800E+03 -9.68072E+02 -7.80612E+03 -2.16292E+03
 -7.54305E+03 -9.70719E+03 -2.50219E+03 -1.14018E+04  6.62622E+03 -1.17925E+04  1.45856E+04 -5.28780E+03
  1.14347E+04  5.38069E+03  8.08333E+03  1.13775E+04 -4.78067E+03  7.84124E+03 -2.68283E+03  1.05859E+04
 -4.93161E+03  7.48865E+03 -2.36100E+03  2.71335E+03 -5.98067E+03 -4.58274E+03 -1.51738E+03 -1.56013E+03
 -2.84920E+03  8.23423E+02  5.48986E+02 -3.49050E+03  1.36845E+03 -5.48320E+02 -6.87026E+01 -1.00782E+04
  9.42134E+03  2.48814E+02  1.25334E+04 -2.32966E+03  4.48057E+03  6.10788E+03  1.75041E+03  8.95448E+03
 -5.70477E+03  1.28137E+04 -1.36020E+04  1.06423E+04 -8.89622E+03 -3.26643E+03 -7.40294E+03 -7.24024E+03
 -1.11899E+04 -1.15911E+04  3.98207E+03 -7.76970E+03 -3.44746E+01 -2.10250E+03  8.58204E+03  1.16244E+03
 -3.45963E+03  2.06472E+03 -1.91008E+03  1.52586E+03 -6.01115E+02  1.40272E+03 -1.21006E+03 -3.28120E+03
  3.79277E+03 -5.95209E+03  9.00499E+03  2.26843E+03 -1.87433E+03  1.17596E+04  1.42985E+03  7.17718E+03
 -1.00286E+03  3.10801E+03  2.65721E+03  9.43555E+02 -9.75325E+03 -1.29387E+04  1.15912E+03 -7.04264E+03
  7.20655E+03 -7.62021E+03  8.25716E+03 -5.83195E+03  1.40984E+04 -7.43969E+02  6.71992E+03  6.80362E+03
  3.13807E+03  6.80621E+03 -6.60260E+02  8.01422E+03 -9.40607E+03  6.14153E+03  4.64865E+03 -3.34183E+03
 -5.81696E+03  6.21363E+03 -4.55309E+03 -2.09904E+03 -7.07368E+03  4.89500E+03 -1.06318E+04 -2.05965E+03
  4.75970E+02 -2.34564E+03 -2.22026E+03 -7.35009E+03  1.36491E+04 -7.84711E+03  3.98261E+03 -3.24708E+03
  4.99155E+03 -4.97558E+03  3.73340E+03  7.53074E+03 -4.65853E+03  3.02923E+03 -1.06682E+04  3.31122E+03
