 $NMID ID='MM_0lb_SNR50_7hz_g50_95.RAW', FMTDAT='(8E13.5)'
 TRAMP=1., VOLUME=1. $END
  3.08631E+05  2.37657E+03  3.37487E+05  2.46433E+05  8.60376E+04  3.41439E+05 -1.34906E+05  2.48851E+05
 -1.91231E+05  8.21564E+04 -1.11920E+05 -2.75067E+04  3.55540E+03 -5.25970E+04  5.57583E+04 -3.57550E+02
  2.97091E+04  4.72704E+04 -1.71839E+04  7.66594E+04 -5.82622E+04  6.56266E+04 -8.70157E+04  3.71926E+04
 -8.98426E+04 -1.13302E+04 -5.48133E+04 -5.37211E+04 -1.54182E+04 -7.30000E+04  2.60095E+04 -4.70984E+04
  3.56546E+04  1.95851E+02  1.96271E+04  5.24304E+04 -2.94921E+04  5.48534E+04 -6.54781E+04  4.42477E+03
 -5.70078E+04 -5.79686E+04 -7.52611E+03 -8.22516E+04  3.53212E+04 -5.82990E+04  5.22135E+04 -1.75243E+04
  4.97656E+04  4.62008E+03  3.39878E+04  3.21686E+04  1.24837E+04  2.86524E+04  9.44525E+02  2.69235E+04
 -2.65760E+04  9.90834E+03 -1.05886E+04 -6.85497E+03  5.00783E+03 -8.21171E+03  2.06022E+04  8.54686E+03
  1.33623E+04  3.29059E+04 -3.55595E+04  4.06359E+04 -6.73949E+04  3.68229E+02 -6.33469E+04 -4.82844E+04
 -1.22266E+04 -7.02607E+04  4.16637E+04 -4.99339E+04  5.97863E+04 -4.51054E+03  3.31605E+04  3.62687E+04
 -2.23834E+03  4.06882E+04 -3.42521E+04  1.62940E+04 -4.07628E+04 -2.31316E+03 -2.05240E+04 -1.48149E+04
 -1.25920E+04 -1.80986E+04  8.19083E+03 -2.11865E+04  8.92331E+03 -2.13839E+04  1.21203E+04 -9.19515E+03
  2.58127E+03  1.46174E+04 -1.15563E+04  1.36806E+04 -1.96194E+04 -8.18670E+03 -1.13794E+04 -3.70922E+04
  2.07106E+04 -4.98063E+04  5.82150E+04 -1.79092E+04  5.24956E+04  1.71662E+04  2.21930E+04  5.31000E+04
 -1.66115E+04  4.20672E+04 -3.01223E+04  9.00444E+03 -3.09994E+03 -2.77855E+04  2.08467E+04 -4.42430E+04
  5.06679E+04 -1.14472E+04  4.47400E+04  2.61188E+04  1.21583E+04  5.56744E+04 -4.27516E+03  5.19815E+04
 -3.20323E+04  5.01679E+04 -5.35038E+04  1.28575E+04 -4.89216E+04 -1.83300E+04 -2.63004E+04 -4.03013E+04
  1.37771E+04 -3.70418E+04  2.81727E+04 -2.07365E+04  3.24902E+04  5.67943E+03  3.41425E+03  2.21354E+04
 -1.18126E+04  1.28623E+04 -8.59541E+03 -2.93071E+03  4.37952E+03 -1.29477E+04  2.25930E+04  1.09037E+04
  9.95628E+03  1.97006E+04 -1.11190E+03  2.26592E+04 -2.92222E+04  1.65207E+04 -3.49142E+04  3.04198E+03
 -2.76904E+04 -2.64306E+04 -1.11148E+04 -3.10422E+04  7.22814E+03 -2.93024E+04  1.76081E+04 -2.85592E+04
  3.57268E+04 -1.74577E+04  3.88740E+04 -3.39597E+03  2.84296E+04  2.34300E+04  2.91492E+00  4.26862E+04
 -1.84923E+04  3.88724E+04 -3.52930E+04  1.03878E+04 -3.12700E+04 -9.10486E+03 -4.82385E+03 -1.02073E+04
 -5.30706E+03  1.21725E+02 -1.13022E+04  7.75124E+03 -2.37746E+04  7.42107E+02 -2.00412E+04 -6.78099E+03
 -1.44193E+04 -2.28550E+04  2.32193E+03 -2.50775E+04  1.42393E+04 -2.46378E+04  1.95126E+04  3.80875E+03
  1.84047E+04  1.96895E+04  1.77022E+03  2.93465E+04 -1.66702E+04  1.71056E+04 -2.65282E+04 -2.53952E+03
 -1.98122E+04 -1.37694E+04 -6.65275E+03 -3.21508E+04  1.37650E+04 -2.39610E+04  2.77568E+04 -9.10784E+03
  2.25055E+04  3.29866E+03  9.75323E+03  8.12712E+03  1.11055E+04  3.30481E+03  1.99557E+04 -2.96343E+03
  2.30731E+04  1.31026E+03  3.27451E+04  1.97311E+04  1.95865E+04  3.95607E+04 -1.19919E+04  5.16377E+04
 -1.90948E+04  4.20321E+04 -4.13972E+04  2.02707E+04 -5.18572E+04 -8.42692E+03 -4.22407E+04 -2.73246E+04
 -3.95513E+03 -3.96579E+04  1.02999E+04 -3.20417E+04  3.39473E+04 -1.78167E+04  2.53356E+04  6.06780E+03
  7.80332E+03  1.89599E+04 -1.19872E+04  2.12208E+04 -1.75700E+04  3.30024E+03 -1.20698E+04 -1.11604E+04
  3.48352E+03 -1.82396E+04  8.67056E+03 -1.44110E+04  1.60625E+04  5.30350E+03  5.84841E+03  1.59765E+04
 -4.35758E+03  2.97549E+03 -1.27322E+04  7.96238E+01 -7.26246E+03 -1.66186E+04  1.47711E+04 -2.85173E+04
  2.64889E+04 -1.72506E+04  2.62629E+04  7.86308E+03  2.82245E+04  2.23326E+04  1.64079E+04  2.50478E+04
 -6.32024E+03  3.28783E+04 -1.85161E+04  1.68659E+04 -3.55723E+04  4.37036E+03 -2.15819E+04 -9.40716E+03
 -4.94784E+03 -3.30325E+03 -6.17138E+02 -3.60358E+03 -8.32148E+03  9.66811E+02 -1.29880E+04  6.05432E+03
 -1.97238E+04 -4.95880E+03 -1.49105E+04 -1.12664E+04 -9.08722E+03 -2.04250E+04  3.03740E+03 -1.48033E+04
  1.34965E+04 -6.84662E+03  1.14625E+04  8.75081E+03  7.62918E+03  1.10005E+04 -8.84439E+03 -3.18958E+02
 -1.07456E+04 -6.90242E+03 -1.53345E+03 -1.76658E+04  9.43270E+03 -2.08723E+04  2.26150E+04 -5.35028E+03
  3.35190E+04  3.27075E+03  1.54370E+04  1.95849E+04  1.64104E+03  1.74577E+04 -7.52383E+03  1.50407E+04
 -1.04695E+04 -8.18669E+03 -1.16361E+04 -5.17448E+03 -1.18353E+03 -2.73587E+03  1.56599E+04 -2.82490E+03
  1.13945E+04  8.84766E+03 -1.16359E+03  1.66427E+04 -1.35815E+04  1.18023E+04 -2.04595E+04  8.63056E+03
 -1.42930E+04 -1.53373E+04 -5.30861E+03 -1.13960E+04  1.20616E+04 -6.75980E+03  6.12632E+03  2.94708E+03
  5.97267E+03  1.10895E+04 -9.49464E+03  1.23580E+04 -2.11054E+04  1.07443E+04 -1.09564E+04 -5.81021E+03
 -7.24842E+03 -2.05331E+04  4.20515E+03 -2.24920E+04  2.36821E+04 -9.86738E+03  1.56905E+04  3.34998E+03
  7.31034E+03  1.73508E+04  2.42676E+03  2.53961E+04 -1.85143E+04  9.27088E+03 -1.59991E+04 -5.50644E+03
 -1.51098E+04 -9.71624E+03  4.17395E+03 -1.18809E+04  8.75453E+03 -1.58037E+04  3.62291E+03 -5.80493E+03
  8.49309E+03  7.26652E+03 -7.09520E+03  6.56762E+02 -2.68533E+03  4.95616E+02  2.01111E+03 -1.35362E+04
  1.04979E+04 -1.17033E+04  2.18592E+04  1.09906E+03  2.46938E+04  7.10408E+03  1.29945E+04  3.08222E+04
 -5.51420E+03  2.88075E+04 -3.05385E+04  2.37317E+04 -3.25631E+04  5.90572E+03 -2.73510E+04 -1.23633E+03
 -1.48329E+04 -1.73023E+04  1.68491E+03 -1.32820E+04  1.72150E+03 -1.64570E+04  4.97059E+03 -5.91855E+03
  1.99815E+03 -2.73451E+03  1.43465E+04 -7.52817E+03 -5.14622E+03 -5.42565E+03  1.95578E+03  2.09205E+03
  1.03899E+04  3.26521E+03  1.89275E+02  1.07190E+04  1.56381E+02  8.75035E+03 -2.23582E+04  9.93199E+03
 -2.42400E+04 -4.57459E+03 -1.53150E+04 -8.07711E+03 -5.29497E+02 -2.17497E+04  1.43042E+04 -1.86515E+04
  1.93595E+04 -1.44717E+04  2.68016E+04 -5.50289E+03  1.29746E+04  1.43750E+04  6.39101E+02  1.93515E+04
 -9.48570E+03  2.22468E+04 -5.54827E+03  8.67840E+03 -8.93880E+03 -1.45554E+03 -2.24460E+03  3.04125E+03
  2.75881E+03 -4.69903E+03 -1.34118E+03  7.21250E+03 -6.93495E+03  2.22485E+03 -1.69704E+04 -7.90079E+03
 -8.12355E+03 -1.19057E+04 -7.07214E+03 -1.60250E+04  1.33159E+04 -1.88059E+04  2.29855E+04  1.17354E+01
  1.46144E+04  1.10381E+04  1.41361E+04  1.18168E+04 -9.85089E+03  2.10914E+04 -1.70435E+04  7.82503E+03
 -1.85329E+04 -3.56332E+03 -1.61575E+04 -1.03796E+04 -5.12969E+03 -1.43377E+04  1.46196E+04 -1.58077E+04
  9.77654E+03 -2.27018E+03  7.78832E+03  7.71454E+01  1.45116E+03  4.46970E+03  1.49009E+02  3.98479E+03
 -1.98589E+03 -3.34961E+03  9.79168E+03  4.44499E+03  1.03637E+04  6.68605E+03  1.28607E+04  6.67441E+03
 -8.36295E+03  1.60444E+04 -1.54896E+04  1.15621E+04 -1.72340E+04  4.34924E+03 -1.82586E+04 -3.43585E+03
 -1.07205E+04 -1.96118E+04  4.06682E+03 -1.86450E+04  1.20887E+04 -1.35137E+04  1.56771E+04 -1.15891E+04
  1.15473E+04  1.08403E+04  6.35867E+03  1.14532E+04 -5.47572E+03  1.06449E+04 -7.17202E+03 -4.18344E+03
 -9.91937E+03 -3.37195E+03  8.05924E+03 -1.39614E+04  6.77445E+03 -7.83399E+03  1.58974E+04  4.53230E+03
  1.39349E+03  1.43374E+03 -5.20271E+03  2.34980E+02 -1.26119E+03  3.01512E+03  1.94330E+03 -8.21828E+02
  9.93216E+03 -6.76293E+03  4.18246E+03  1.92951E+03  1.38060E+04  1.05314E+04  1.99780E+03  1.96933E+04
 -9.56288E+03  1.24567E+04 -1.10764E+04  4.90207E+03 -9.26079E+03 -6.40559E+03 -2.24239E+03 -9.97707E+03
  7.87800E+03 -9.55174E+03  6.96288E+03 -1.45898E+03  9.54374E+03  5.78441E+03  6.18444E+03  4.98003E+03
 -1.07605E+04  1.90894E+03 -4.50771E+03 -4.25165E+03 -1.41733E+04 -4.88991E+03  4.01465E+03 -1.28994E+04
  8.63074E+03 -3.73498E+02 -1.05809E+03  5.75295E+03  1.13305E+04 -3.75238E+02  5.12548E+03  7.79693E+03
 -1.14122E+03  3.80019E+03 -7.14733E+03 -3.11952E+03 -1.34072E+04 -1.19737E+04  5.28276E+03 -1.26561E+04
  6.63278E+03  3.01644E+03  9.67186E+03  1.16575E+04  3.11973E+03  1.47107E+04 -3.20903E+02  8.11041E+03
 -1.66349E+04  1.06158E+04 -1.24077E+04  1.52660E+03  5.12730E+02 -5.27981E+03  1.34819E+03 -6.42027E+03
  9.79190E+03  1.02375E+03  1.17746E+04  4.44139E+03  7.49990E+02  1.04250E+03 -1.30003E+03  1.70629E+03
 -4.61241E+03  2.14292E+02 -8.05982E+03  3.09170E+03 -1.51772E+02  1.10304E+03 -2.06723E+03  1.77660E+03
  1.69700E+03  5.69144E+03 -8.39836E+03  6.00839E+03 -1.70398E+04  5.30247E+02 -1.90258E+04 -1.22638E+04
 -5.76458E+03 -2.05413E+04  7.98173E+03 -1.51626E+04  2.19401E+04 -1.20794E+04  2.40784E+04 -6.13831E+03
  2.13124E+04  6.42821E+03  1.24674E+04  1.44931E+04  1.22555E+03  1.29975E+04 -9.08194E+03  5.57411E+03
 -5.75722E+03  7.41871E+03 -9.82291E+03 -7.54724E+03 -3.70455E+03  2.03439E+03 -5.48474E+03 -8.63830E+03
  2.31593E+02  1.32381E+03 -9.76918E+03 -1.62307E+03  4.12872E+03  1.11414E+03 -3.90762E+03 -3.30778E+03
  2.22507E+03 -6.64307E+03  1.10661E+04  2.19387E+03  1.46540E+04  9.64182E+03  3.21392E+03  1.36627E+04
 -8.84777E+03  1.63862E+04 -1.86075E+04  1.23982E+03 -1.77408E+04  7.17052E+03 -1.37286E+04 -9.47893E+03
 -6.58033E+03 -1.55533E+04  5.36999E+03 -1.43768E+04  9.76848E+03 -4.85126E+03  1.72370E+04 -6.84302E+02
  5.54682E+03  1.77725E+02 -3.13133E+02  6.62750E+03 -1.11148E+04 -9.63493E+02 -1.17307E+03 -6.58801E+03
  2.83594E+03 -5.28027E+03  1.12506E+04  4.96643E+03  4.99382E+03  1.89291E+03 -2.68014E+03  1.05108E+04
 -8.41875E+03  6.96272E+03 -1.03425E+03  2.86664E+03 -5.37745E+03 -5.69120E+03  4.71957E+02 -1.09965E+04
  3.84376E+03 -8.40730E+03  8.88499E+03 -3.87809E+03  5.70929E+03  2.94060E+03  1.15383E+04  1.68813E+04
  1.53844E+03  8.09294E+03 -1.48215E+03  1.25722E+04  5.17515E+02  1.28401E+04 -5.10664E+02  1.33736E+03
 -9.51511E+03 -2.16843E+03  1.74094E+02 -6.88191E+02 -2.80884E+03  5.56622E+03 -1.26787E+04 -1.14224E+04
 -9.41290E+03 -6.65391E+03 -9.12125E+02 -4.58817E+03  1.08001E+04 -7.26496E+03  1.19038E+04 -7.40647E+03
  1.00889E+04  5.79092E+03  5.40944E+02  7.62597E+03 -1.26666E+03  9.06674E+03 -6.01933E+03  1.10525E+04
