 $NMID ID='MM_0lb_SNR50_8hz_g40_83.RAW', FMTDAT='(8E13.5)'
 TRAMP=1., VOLUME=1. $END
  3.12247E+05 -2.56302E+03  3.42969E+05  2.52149E+05  8.83570E+04  3.38588E+05 -1.34258E+05  2.54013E+05
 -1.90890E+05  8.92061E+04 -1.11870E+05 -3.59449E+04  3.38851E+03 -5.03870E+04  5.92391E+04 -4.93424E+03
  3.92379E+04  5.25932E+04 -1.49140E+04  6.82102E+04 -5.96651E+04  6.97276E+04 -8.11881E+04  2.70721E+04
 -8.60965E+04 -3.75433E+03 -5.88786E+04 -5.02034E+04 -1.15562E+04 -7.26392E+04  2.97295E+04 -4.90821E+04
  4.60710E+04 -2.23885E+03  1.45955E+04  4.20936E+04 -4.14695E+04  4.69278E+04 -6.92130E+04 -5.97713E+03
 -5.19108E+04 -5.33851E+04 -1.15437E+04 -7.53591E+04  3.16721E+04 -5.21551E+04  4.39537E+04 -1.86991E+04
  4.97752E+04  9.13045E+03  3.47859E+04  2.96313E+04  1.94201E+04  2.48450E+04 -1.14979E+04  2.94563E+04
 -2.21530E+04  8.67232E+03 -1.88776E+04 -5.21415E+03  1.13742E+04 -9.34286E+03  1.81585E+04  1.62997E+04
  6.29348E+03  3.49024E+04 -2.96738E+04  3.89528E+04 -6.90744E+04  6.79206E+02 -5.89512E+04 -4.80934E+04
 -1.28903E+04 -6.44330E+04  4.27165E+04 -5.08544E+04  5.35755E+04  4.38103E+02  3.74566E+04  3.80521E+04
 -1.10101E+04  4.07576E+04 -3.31011E+04  1.69256E+04 -3.50814E+04 -1.39374E+03 -1.94512E+04 -8.09165E+03
 -7.49129E+03 -1.08463E+04 -1.80609E+03 -2.00691E+04  9.00722E+03 -2.09153E+04  1.48118E+04 -1.38165E+04
  9.77419E+03  2.21245E+03 -4.30938E+03  1.76439E+04 -2.64917E+04 -6.16640E+03 -9.83954E+03 -4.24726E+04
  2.41163E+04 -4.25245E+04  5.28678E+04 -2.65391E+04  5.15726E+04  2.34590E+04  2.19607E+04  4.26332E+04
 -1.51014E+04  3.42609E+04 -2.91350E+04  3.46076E+03 -4.18144E+03 -2.42471E+04  2.25168E+04 -3.63132E+04
  4.52345E+04 -1.72119E+04  3.40419E+04  2.19309E+04  2.10724E+04  5.13959E+04 -4.48941E+03  5.26839E+04
 -3.91113E+04  4.26888E+04 -5.11220E+04  2.53611E+03 -5.02080E+04 -1.80902E+04 -2.99065E+04 -3.73116E+04
  3.83287E+03 -4.22086E+04  3.15238E+04 -1.67206E+04  2.88461E+04  8.48852E+03  3.98822E+03  1.91157E+04
 -1.06018E+04  7.51350E+03 -1.55143E+04  6.60719E+02  9.37924E+03 -1.11461E+04  1.71659E+04 -2.93749E+03
  2.12532E+04  2.34187E+04 -7.33043E+03  2.20213E+04 -3.03616E+04  1.30789E+04 -2.82951E+04  4.20795E+03
 -2.74686E+04 -1.99008E+04 -1.02625E+04 -2.60895E+04  1.08703E+04 -2.51252E+04  1.30877E+04 -2.37062E+04
  2.64767E+04 -1.32368E+04  3.85173E+04 -2.91722E+02  2.81104E+04  2.74312E+04 -9.04813E+02  3.82164E+04
 -2.30952E+04  3.02743E+04 -3.28690E+04  6.67939E+03 -2.48511E+04 -1.00577E+04 -5.26156E+03 -1.59934E+04
 -5.35833E+02  2.64965E+03 -7.53751E+03  9.89154E+03 -1.69294E+04  1.90203E+02 -1.48438E+04 -9.30340E+03
 -7.52046E+03 -2.76616E+04  1.10043E+04 -2.81511E+04  2.32745E+04 -2.16003E+04  1.93009E+04  1.31353E+03
  1.05671E+04  1.56384E+04 -2.94668E+03  2.17584E+04 -1.79136E+04  1.46692E+04 -2.66791E+04 -5.30363E+03
 -1.73549E+04 -2.16987E+04  1.02283E+03 -2.74000E+04  1.14139E+04 -2.48281E+04  2.64643E+04 -1.24256E+04
  2.71979E+04  8.06449E+02  9.38666E+03  5.77086E+03  8.05498E+03  5.02297E+03  1.08304E+04 -1.53641E+03
  2.37156E+04 -1.53077E+03  2.76686E+04  1.61830E+04  1.69602E+04  3.53169E+04 -3.08235E+03  4.54338E+04
 -2.85589E+04  3.82015E+04 -4.42242E+04  1.06255E+04 -4.38828E+04 -1.26206E+02 -3.88827E+04 -2.88511E+04
 -1.51756E+04 -3.35419E+04  1.11323E+04 -3.53785E+04  2.94692E+04 -1.55547E+04  2.08258E+04  6.18985E+03
  9.10853E+03  1.75238E+04 -1.10613E+04  1.55164E+04 -2.00321E+04  1.58670E+03 -1.53764E+04 -8.36273E+03
  2.21286E+03 -2.62442E+04  1.46732E+04 -1.81453E+04  1.61700E+04  4.40057E+02  2.27808E+03  1.40899E+04
 -9.27756E+03  6.04432E+03 -1.46113E+04 -5.41504E+03 -1.97827E+03 -2.24175E+04  1.22333E+04 -1.31676E+04
  2.70143E+04 -1.44109E+04  2.33182E+04  1.23749E+03  2.66404E+04  2.25519E+04  9.79233E+03  2.80215E+04
 -6.03239E+03  3.23595E+04 -1.57961E+04  2.05936E+04 -2.31448E+04 -8.75715E+02 -1.60524E+04 -3.34119E+03
 -8.94047E+03 -1.00141E+04 -3.43907E+03 -3.00958E+03  9.53877E+01  3.09801E+03 -1.22437E+04  2.98685E+03
 -1.16730E+04  6.90345E+02 -2.09712E+04 -9.67271E+03 -1.47179E+04 -1.41967E+04  1.06936E+04 -1.49904E+04
  1.50364E+04 -5.39661E+03  1.04777E+04  1.12727E+03 -1.44352E+03  5.39714E+03 -3.53049E+03 -1.91163E+03
 -5.66683E+03 -9.59816E+03  4.63122E+03 -1.42972E+04  9.35068E+03 -2.03919E+04  2.19330E+04 -5.92432E+03
  2.57833E+04  7.26954E+02  1.43196E+04  1.25941E+04  1.03778E+04  1.67873E+04 -6.21159E+03  1.81737E+04
 -4.09506E+03  3.92920E+02 -6.97115E+03 -4.64084E+03  1.94915E+03 -8.57078E+03  1.13037E+04 -1.70419E+02
  4.06286E+03  1.00226E+04 -2.37955E+03  1.05441E+04 -9.85407E+03  1.37037E+04 -1.72152E+04  1.59606E+03
 -1.29789E+04 -1.17008E+04  3.31269E+02 -1.10290E+04  4.59225E+03 -3.06814E+03  8.28858E+03  7.24660E+03
  6.45541E+03  1.48029E+04 -1.16636E+04  1.24206E+04 -7.95430E+03  3.58103E+03 -1.07196E+04 -1.96997E+03
 -2.39601E+03 -1.69257E+04  3.42820E+03 -1.96929E+04  1.57726E+04 -1.42101E+04  1.89301E+04  3.71574E+03
  9.64824E+03  1.65868E+04  6.11439E+02  9.33653E+03 -7.23729E+03  5.69401E+03 -6.65861E+03 -3.17189E+03
 -5.31019E+03 -8.66900E+03  3.58081E+03 -1.22765E+04  2.55070E+03 -9.81268E+03  6.82457E+03 -5.52545E+03
  1.30494E+03  5.97833E+02 -3.34023E+03  1.03078E+03 -4.47133E+03 -1.51388E+03  5.47158E+03 -2.54971E+03
  1.25488E+04 -9.74886E+03  1.98734E+04 -2.07615E+02  9.47509E+03  6.71865E+03  2.19499E+04  2.36073E+04
 -3.58348E+03  2.19497E+04 -1.36503E+04  2.06223E+04 -2.73651E+04  9.80674E+03 -1.13234E+04 -7.01353E+03
 -1.17900E+04 -1.58849E+04  4.89350E+03 -1.67793E+04  5.48901E+03 -9.14062E+03  8.68834E+02 -5.95972E+03
  8.24887E+03 -8.29661E+03  4.45992E+03 -5.68084E+03  7.72649E+03 -8.83873E+03  8.50948E+03 -2.00811E+03
  8.02743E+03  5.06215E+03  7.34024E+03  1.19398E+04  1.85333E+02  1.16093E+04 -1.17876E+04  4.80245E+03
 -1.72945E+04  1.25812E+02 -3.64353E+03 -1.01388E+04 -2.73297E+03 -1.50541E+04  6.68845E+03 -1.90608E+04
  1.77828E+04 -1.44690E+04  1.78508E+04  3.99837E+03  1.64492E+04  1.07797E+04  3.65135E+03  1.45987E+04
 -8.80614E+03  1.19675E+04 -1.57718E+04  4.54542E+03 -2.77099E+03 -3.01948E+03 -7.33186E+03 -7.27497E+02
  5.55042E+03 -5.43726E+03  3.40845E+03  6.35067E+03 -6.29045E+03 -2.73317E+03 -1.49242E+04  6.03025E+02
 -4.32634E+02 -1.13642E+04  6.16079E+03 -6.22267E+03  9.99701E+03 -1.40471E+04  1.14082E+04 -6.65556E+03
  2.01206E+04  7.92627E+03  1.52328E+04  1.62047E+04  2.09246E+02  1.39277E+04 -6.60555E+03  1.42009E+04
 -1.94517E+04 -6.26644E+03 -6.64873E+03 -1.23521E+04 -1.13427E+03 -1.28341E+04  9.11830E+03 -7.73143E+03
  8.47348E+03 -8.90936E+03  1.15897E+04 -5.24148E+02  7.74471E+03  9.78561E+03  5.25869E+03  1.63467E+01
  5.19089E+03 -3.37297E+03  6.84962E+03  3.01442E+03  2.86760E+03  6.54511E+03 -3.58769E+03  8.88557E+03
 -5.82838E+03  1.59703E+04 -1.26318E+04  1.16753E+04 -1.97566E+04  1.87551E+03 -1.77714E+04 -7.90960E+03
 -5.41758E+03 -2.04427E+04  3.08819E+03 -1.85088E+04  7.74767E+03 -9.52180E+03  1.86635E+04 -3.22450E+03
  8.27323E+03  4.86093E+03  9.06446E+03  1.51683E+04 -1.16433E+04  9.32490E+03 -5.26125E+03 -7.05071E+02
 -3.62183E+03 -7.11164E+03  4.86037E+03 -9.32734E+03  5.56923E+03 -4.25857E+03  8.96906E+03  5.79202E+03
  1.08468E+04  7.14187E+03  1.14582E+04  5.68252E+03 -2.10611E+03 -1.55182E+03  9.70273E+03 -4.41990E+03
 -4.68039E+02 -4.36440E+03  2.70758E+03  5.40412E+01  4.02515E+03  7.65972E+03  1.15394E+03  1.30136E+04
 -1.31068E+04  1.26306E+04 -1.09643E+04 -2.17408E+03 -1.23451E+04 -7.25449E+02 -6.33591E+03 -6.16794E+03
 -2.99158E+03 -1.00922E+04  5.25711E+03 -6.74649E+03 -6.20094E+02  5.60234E+03  3.36234E+03  3.92504E+03
 -7.55719E+03  3.47616E+03 -6.80276E+03 -3.53915E+03 -2.58929E+03 -7.09183E+03  1.09976E+03 -9.09031E+03
  3.15970E+03 -7.50407E+03  7.81938E+03 -7.33870E+03  7.09191E+03  6.57520E+03  3.32028E+02  4.62100E+02
  1.23411E+03 -1.79392E+03 -1.95583E+03 -4.77515E+03 -2.00652E+02 -8.26239E+03  1.22858E+04 -4.18024E+03
  1.27427E+04  6.87213E+03  8.05465E+03  1.74634E+01  9.53336E+02  1.39268E+04 -2.06643E+03  6.67092E+02
 -7.71008E+03  5.55897E+03 -1.14513E+04  1.10357E+03 -4.79720E+03 -4.23151E+03 -8.13934E+02 -4.35325E+03
  2.67947E+03  1.74118E+03 -1.62251E+03  2.58407E+03  8.70660E+02  2.77358E+03 -3.91750E+03  5.37406E+03
 -2.26127E+03  4.81494E+03 -1.92592E+03 -5.05047E+03  3.25418E+02 -8.00152E+03  1.14158E+03  3.93035E+03
 -3.44989E+03  7.10784E+03 -4.68233E+03  4.54285E+03 -9.73447E+03 -2.72649E+03 -1.98396E+04 -4.08478E+03
 -4.49876E+03 -2.01553E+04  2.33866E+03 -1.38020E+04  8.01366E+03 -1.21461E+04  1.55805E+04 -6.04587E+03
  1.70624E+04  2.88779E+03  5.83889E+03  5.51523E+03  3.91543E+03  1.85578E+04 -2.28765E+02  9.79277E+03
 -1.29458E+04  2.52566E+03 -1.25206E+04  4.53237E+03  4.85697E+01 -4.37480E+02  3.72208E+03  2.91256E+02
 -2.19525E+03  1.20859E+03  3.38093E+03 -4.45653E+03 -7.39476E+03  4.28967E+03  1.41006E+03 -9.69481E+03
  5.60641E+03 -7.69131E+03  6.00858E+03 -3.25257E+03  1.38312E+04  1.06613E+04 -3.15541E+02  6.83673E+03
 -4.16882E+03  1.20586E+04 -1.35782E+04  3.32355E+03 -9.70294E+03  2.01964E+03 -1.40450E+04 -8.14716E+03
 -1.51612E+03 -1.16823E+04  4.08221E+03 -4.68085E+03  9.78376E+03 -8.57538E+03  9.39826E+03  2.14640E+03
  7.47001E+03  4.05324E+03  5.01540E+03  5.45879E+02  5.09609E+03 -1.79251E+03 -3.67399E+03 -2.74922E+03
  1.39345E+02 -1.36891E+03  7.27138E+03  2.44640E+03  4.00374E+03  3.05851E+03  1.68851E+03  5.96418E+03
 -1.57727E+03  6.81671E+03 -9.01530E+03  3.89408E+03 -7.98406E+02  1.46705E+03  3.04096E+03 -1.44669E+04
  3.43094E+03 -1.14830E+04  9.93964E+03  3.43543E+03  1.53538E+04  8.69042E+03  9.10219E+03  2.68020E+03
 -6.08454E+03  1.01337E+04 -4.24612E+03  5.43297E+03 -4.05457E+03  4.25085E+03 -6.18794E+03  7.68753E+02
  7.87637E+02 -8.04555E+02 -2.60160E+03 -1.71691E+03 -5.85423E+03  5.44210E+03 -4.89447E+03 -2.56449E+03
 -8.46542E+03 -3.13110E+03 -1.18143E+03 -7.70914E+03  4.80824E+03 -1.45713E+04  1.33000E+03 -2.65473E+03
  9.56514E+03  5.15986E+03  7.54395E+03  1.94120E+03 -3.85774E+03  5.66532E+03 -6.10099E+03  7.14523E+03
