 $NMID ID='MM_0lb_SNR50_8hz_g55_94.RAW', FMTDAT='(8E13.5)'
 TRAMP=1., VOLUME=1. $END
  3.11606E+05 -3.76857E+03  3.34083E+05  2.54266E+05  8.37086E+04  3.39238E+05 -1.32537E+05  2.53983E+05
 -1.96216E+05  8.34891E+04 -1.09101E+05 -3.25278E+04  1.13813E+03 -5.83254E+04  5.37038E+04  3.05189E+03
  3.70167E+04  5.13285E+04 -1.59141E+04  7.87520E+04 -6.25404E+04  6.13651E+04 -8.76359E+04  3.10668E+04
 -7.52984E+04 -1.53366E+04 -5.76683E+04 -5.36575E+04 -1.01739E+04 -7.36314E+04  2.39154E+04 -4.84414E+04
  4.79405E+04  1.06645E+04  1.10800E+04  3.82372E+04 -3.12083E+04  4.71187E+04 -6.73832E+04 -2.54297E+03
 -5.25514E+04 -6.01268E+04 -1.04066E+04 -8.05385E+04  3.25844E+04 -5.60160E+04  4.64768E+04 -1.79549E+04
  3.95400E+04  6.12463E+03  3.43276E+04  2.88773E+04  1.56607E+04  2.74200E+04 -6.93524E+03  3.03884E+04
 -2.38422E+04  1.32772E+04 -1.37535E+04 -2.96930E+03  9.18038E+03 -1.19429E+04  2.70410E+04  1.26337E+04
  8.41678E+03  3.35359E+04 -3.05548E+04  3.51899E+04 -6.40542E+04  6.60721E+03 -6.14843E+04 -5.01824E+04
 -1.99342E+04 -6.70189E+04  4.03342E+04 -4.79448E+04  6.36123E+04 -4.15907E+03  3.42269E+04  3.69472E+04
 -6.50877E+03  3.77114E+04 -2.84493E+04  2.07598E+04 -4.02701E+04  2.39076E+03 -1.38022E+04 -1.44023E+04
 -9.71306E+03 -1.46679E+04 -1.61816E+02 -2.99152E+04  6.85022E+02 -2.24057E+04  1.55297E+04 -1.31072E+04
  1.15040E+04  1.52601E+03 -7.56962E+03  1.01377E+04 -2.04688E+04 -5.28759E+03 -1.25399E+04 -3.37010E+04
  2.24214E+04 -5.16285E+04  5.22010E+04 -1.60194E+04  4.93799E+04  2.42910E+04  1.57409E+04  4.51989E+04
 -1.73520E+04  3.54818E+04 -2.65911E+04 -7.70041E+02 -1.03151E+04 -3.04422E+04  1.78048E+04 -3.86529E+04
  4.43764E+04 -1.36280E+04  4.48758E+04  2.62208E+04  1.98566E+04  4.97614E+04 -7.13243E+03  5.70582E+04
 -4.08012E+04  3.48563E+04 -5.29234E+04  1.07842E+04 -5.01919E+04 -2.21710E+04 -2.63535E+04 -5.08986E+04
  7.53217E+03 -4.25271E+04  3.89613E+04 -1.88802E+04  3.53954E+04  1.59338E+04  3.64773E+03  2.50548E+04
 -1.30654E+04  9.03432E+03 -1.37487E+04  4.55930E+00  4.15052E+03 -5.76451E+03  2.06727E+04  3.34382E+03
  1.70338E+04  1.90908E+04 -1.09481E+04  3.00592E+04 -2.53276E+04  1.25252E+04 -3.16887E+04 -6.28451E+03
 -1.92461E+04 -1.04325E+04 -2.20866E+04 -2.21051E+04  8.25819E+03 -3.17873E+04  1.57502E+04 -1.74134E+04
  2.95930E+04 -1.70987E+04  4.54538E+04 -4.67685E+02  3.22554E+04  2.18630E+04  6.17977E+03  4.05599E+04
 -2.65378E+04  3.49296E+04 -3.51611E+04  1.00743E+04 -2.43212E+04 -1.26134E+04  5.00328E+02 -2.02050E+04
  1.75243E+03 -3.84385E+02 -1.31032E+04  1.46189E+04 -1.56469E+04  6.42503E+03 -3.02946E+04 -7.51197E+03
 -1.45296E+04 -2.44490E+04  5.65846E+03 -3.31290E+04  2.65869E+04 -1.87822E+04  2.24753E+04  8.39322E+02
  1.52679E+04  1.25686E+04 -7.75246E+03  2.40244E+04 -1.84575E+04  1.32383E+04 -2.11997E+04 -4.75335E+03
 -2.12736E+04 -2.29666E+04  5.57916E+03 -3.25023E+04  1.80504E+04 -2.42874E+04  2.62133E+04 -1.09820E+04
  2.23430E+04  3.23956E+03  1.92643E+04  7.24731E+03  1.01194E+04  4.89208E+02  1.41111E+04 -5.07312E+03
  2.74725E+04  3.85050E+02  3.30219E+04  2.12848E+04  2.01190E+04  3.93017E+04  2.44878E+03  5.06413E+04
 -2.55411E+04  3.34729E+04 -4.79761E+04  2.50840E+04 -5.08785E+04  2.31087E+03 -4.20319E+04 -3.25192E+04
 -1.30303E+04 -4.35525E+04  1.67290E+04 -3.61312E+04  2.93731E+04 -1.73804E+04  2.63776E+04 -2.31321E+03
  1.00031E+04  2.08801E+04 -6.31570E+03  1.91596E+04 -1.93592E+04  1.72991E+03 -9.51347E+03 -7.97604E+03
 -2.82976E+03 -2.62989E+04  1.06656E+04 -1.77990E+04  1.75324E+04 -1.77645E+03  1.74337E+03  2.91771E+03
 -5.28073E+03 -4.39214E+03 -1.39787E+04 -5.29836E+03 -4.71114E+03 -1.80750E+04  1.92539E+04 -1.40909E+04
  3.04283E+04 -1.27583E+04  3.07732E+04  1.42359E+03  1.87371E+04  1.60960E+04  1.08139E+04  3.17617E+04
  2.31194E+03  3.34279E+04 -2.05371E+04  1.20569E+04 -2.46920E+04  6.26624E+02 -1.86303E+04 -1.05285E+04
 -4.81743E+03 -1.23382E+04 -3.99082E+03  2.99779E+03 -2.82687E+03  3.78392E+03 -4.99389E+03  9.98597E+03
 -2.09145E+04 -4.21384E+03 -1.98185E+04 -1.46569E+04 -4.79421E+02 -2.08123E+04  7.99998E+03 -1.79206E+04
  1.48765E+04  4.02691E+03  1.32030E+04  4.55481E+03 -1.01425E+04  8.37887E+03 -1.09028E+04 -2.41343E+03
 -5.50578E+03 -9.08181E+03 -3.21729E+03 -1.15050E+04  1.11170E+04 -1.66361E+04  2.31391E+04 -7.35090E+03
  2.58739E+04  5.52867E+03  2.59179E+04  1.60593E+04  2.97047E+03  2.55325E+04 -1.48455E+04  2.01156E+04
 -1.73111E+04  6.88006E+03 -3.09728E+03  5.48198E+02  1.78566E+03 -3.68314E+03  6.64274E+03 -2.89899E+02
  1.17381E+04  5.57647E+03  3.62909E+02  7.47196E+03 -9.56129E+03  1.73584E+04 -1.49479E+04  3.71239E+03
 -1.26072E+04 -7.51111E+03  2.66242E+03 -1.30608E+04  1.13380E+04 -1.40140E+04  1.14711E+04 -7.33578E+02
  1.76015E+03  1.27057E+04 -8.48848E+03  1.24725E+04 -1.75447E+04  2.23001E+03 -2.29073E+04 -1.56992E+04
 -3.46609E+03 -1.81190E+04  5.92034E+03 -1.71851E+04  1.96223E+04 -9.21087E+03  1.02350E+04  3.74069E+03
  1.13413E+04  1.79046E+04  7.20717E+03  1.90310E+04 -1.38783E+04  1.36113E+04 -1.43013E+04 -5.15558E+03
 -8.57601E+03 -1.17476E+04 -3.97002E+03 -6.41184E+03  6.14920E+03 -1.21735E+04  6.38704E+03 -3.83530E+03
  7.29465E+03 -6.71661E+03 -3.14209E+03  6.87467E+03 -1.70054E+03 -5.12416E+03  1.10924E+04 -5.65399E+03
  1.77250E+04 -7.20397E+03  2.15029E+04 -1.58924E+03  2.24684E+04  1.76844E+04  8.14192E+03  2.35098E+04
 -8.03472E+03  3.32818E+04 -2.85673E+04  2.65263E+04 -2.82104E+04  8.69398E+03 -2.57205E+04 -1.65885E+04
 -1.04726E+04 -1.76889E+04 -1.45337E+03 -1.21683E+04  2.75508E+03 -1.05462E+04  3.93129E+03 -6.09420E+03
  4.51427E+03 -5.88242E+03  4.84980E+03 -5.31183E+03  1.15820E+04  2.00721E+03  5.17630E+03 -3.72976E+03
  5.45956E+03  1.12078E+03  8.82653E+03  9.07034E+03 -1.53094E+03  1.23369E+04 -9.69333E+03  1.29087E+04
 -2.67262E+04 -1.73680E+03 -1.06619E+04 -1.72166E+04 -1.27709E+03 -1.60348E+04  1.48930E+04 -1.67319E+04
  1.72022E+04 -7.96387E+03  2.38751E+04  5.56958E+03  9.84367E+03  1.90664E+04  4.68045E+02  1.83082E+04
 -6.16159E+03  1.59092E+04 -1.36755E+04 -4.26504E+03 -8.53890E+03 -3.86787E+03 -6.84653E+03 -5.81365E+03
  7.18391E+02  4.56427E+03 -7.24243E+02  6.99814E+03 -9.28263E+03  1.00882E+04 -5.57823E+03  2.73757E+02
 -5.86238E+03 -7.67600E+03 -3.99061E+03 -2.20019E+04  8.41080E+03 -1.86263E+04  1.54539E+04 -3.74832E+03
  1.37458E+04  1.28744E+04  3.26979E+03  1.90009E+04 -7.66712E+02  1.82028E+04 -1.07656E+04  1.09557E+04
 -1.92021E+04 -5.25674E+03 -1.45102E+04 -1.16916E+04 -2.40534E+03 -1.50050E+04  3.69090E+03 -1.00305E+04
  1.17077E+04 -5.60912E+03  8.73802E+03  5.31508E+03  2.23928E+03  5.78768E+03  2.77762E+03 -3.78117E+01
  1.37475E+03  2.23891E+03  1.09599E+04 -8.08489E+03  4.00442E+03  7.52006E+02  9.80504E+03  1.27045E+04
  4.28451E+03  1.40542E+04 -1.59044E+04  1.10059E+04 -1.44643E+04  1.52920E+03 -1.26722E+04 -1.03122E+04
 -7.95933E+03 -2.22829E+04  3.06936E+03 -1.47271E+04  9.95088E+03 -1.04482E+04  1.40123E+04 -1.29743E+03
  1.21048E+04  5.26942E+03 -4.14669E+02  1.62718E+04 -1.06456E+04  8.11286E+03  3.56080E+02  6.06322E+03
 -6.24486E+03 -5.76891E+02  6.95373E+02 -9.75079E+03  9.42551E+03 -3.60413E+03  1.02414E+04  4.67964E+03
  5.17112E+03  3.49070E+03  2.98105E+03 -1.45675E+02 -2.71582E+03 -4.35318E+01 -3.43801E+03 -1.48701E+03
  1.17484E+04 -1.72291E+03  1.17265E+04 -1.66795E+03 -2.44338E+03  1.39939E+04  2.41979E+02  9.33623E+03
 -1.17678E+04  4.07019E+03 -1.57271E+04  1.15157E+03 -8.51096E+03 -2.00683E+03 -6.53715E+03 -1.23055E+04
 -1.22741E+03 -1.11715E+04  4.63579E+03 -6.48295E+03  3.19796E+03  2.33122E+03 -3.57265E+03  1.44044E+04
 -1.31295E+04  7.00754E+03 -1.54091E+04  1.80751E+03 -7.52753E+03 -9.66159E+03  1.64120E+03 -1.42431E+04
  9.50820E+03 -1.70371E+03  2.04547E+03 -4.88739E+03  5.67858E+03 -9.82639E+02  7.22444E+03  7.49827E+03
 -7.80115E+03  4.75239E+02 -9.21767E+03 -2.36558E+03  2.08565E+03 -1.20820E+04  8.49974E+03 -8.77097E+03
  2.01595E+04  1.71705E+03  1.01007E+04  5.46224E+03  1.75489E+03  1.42409E+04 -5.88050E+03  1.17663E+04
 -1.10553E+04  3.61170E+03 -9.73236E+03  7.81024E+02 -1.23029E+04 -9.42686E+03 -1.63375E+03 -1.03555E+04
  8.12474E+03  1.35509E+03  1.14322E+04  5.15918E+03  7.37152E+03  1.15957E+04 -4.00579E+03  4.89234E+03
 -2.80287E+03  3.94836E+03 -5.05551E+03  4.88606E+03  2.87731E+03 -5.74379E+03 -1.64590E+03  2.01158E+03
 -6.33794E+03  2.90184E+03 -1.50850E+04  3.62731E+03 -1.48728E+04 -8.50645E+03 -1.05560E+04 -3.59350E+03
  5.58095E+02 -1.21384E+04  1.16923E+03 -1.65361E+04  1.31748E+04 -7.99819E+03  2.02308E+04 -8.81359E+03
  1.38351E+04 -2.36883E+02  1.48932E+04  1.41375E+04  3.16719E+02  7.65760E+03 -6.28910E+03  1.45244E+04
 -6.43177E+03  8.99892E+02 -7.43188E+02 -1.15062E+04 -1.21284E+03  1.82152E+03 -9.73068E+01  3.13203E+03
  6.87626E+02  4.50314E+02 -3.41967E+03 -1.64923E+03 -8.81277E+03 -1.50707E+03  3.19413E+03 -7.43019E+03
  7.84317E+03 -1.67728E+03  1.52899E+04 -2.39045E+03  1.10466E+04  8.21818E+03  1.03204E+03  9.92039E+03
 -1.70579E+03  1.82392E+04 -1.90055E+04  2.46941E+03 -1.03898E+04  1.02998E+03 -1.50336E+04 -1.33669E+04
 -3.60551E+03 -1.11332E+04  4.29515E+03 -4.78715E+03  2.76796E+03 -7.13328E+03  1.13761E+04 -2.03817E+03
  2.12519E+03 -2.33838E+03  3.54624E+03  1.00004E+04  3.28253E+03 -4.21544E+03  5.86005E+03 -7.34244E+03
  5.98310E+03 -4.24855E+02  6.97112E+03  2.70419E+01  3.34707E+03  1.39046E+04  2.63139E+03  7.42093E+03
 -6.54187E+03  3.62898E+03 -6.23403E+03  1.77273E+03 -7.71950E+03 -7.43158E+03  2.42863E+03 -3.86286E+03
  6.47492E+03  1.05309E+03  1.07719E+04  7.59277E+02  1.06319E+04  7.66057E+03  1.07433E+04  7.42415E+03
  7.96895E+03  1.70896E+04 -5.80340E+03  1.05743E+04 -5.50862E+03  5.14574E+03 -1.52056E+03 -2.76463E+03
 -5.42236E+03 -1.65920E+03  3.18491E+03 -7.64523E+02 -1.36380E+03 -2.45901E+03 -6.86666E+03  1.20829E+03
 -1.08694E+04 -9.15908E+02 -6.68920E+03 -1.57022E+04  3.85466E+03 -6.12757E+03  1.21279E+04 -2.71218E+03
  2.24442E+03  2.43420E+03  3.25877E+03  1.36320E+04 -8.81503E+02  1.17531E+04 -3.31953E+03  4.89519E+03
