 $NMID ID='MM_0lb_SNR50_15hz_g45_63.RAW', FMTDAT='(8E13.5)'
 TRAMP=1., VOLUME=1. $END
  3.11995E+05  1.64164E+03  3.39418E+05  2.51048E+05  8.35193E+04  3.39609E+05 -1.35626E+05  2.51472E+05
 -1.89698E+05  8.47420E+04 -1.12695E+05 -3.44325E+04 -9.04056E+02 -4.88124E+04  4.89390E+04  3.40527E+03
  3.42182E+04  5.58987E+04 -1.60391E+04  7.21578E+04 -6.31710E+04  6.74173E+04 -8.54543E+04  3.37501E+04
 -8.12005E+04 -8.57297E+03 -5.65809E+04 -5.37741E+04 -1.61698E+04 -6.71387E+04  2.95849E+04 -4.98855E+04
  3.73136E+04  3.53131E+03  1.86280E+04  4.72640E+04 -3.91153E+04  4.99554E+04 -6.92411E+04 -1.98073E+03
 -4.88670E+04 -5.41297E+04 -7.47314E+03 -8.19285E+04  3.28065E+04 -6.04858E+04  4.82533E+04 -1.67039E+04
  4.52449E+04  1.47757E+04  3.04724E+04  2.57292E+04  1.50261E+04  2.72605E+04 -3.68787E+03  2.28273E+04
 -2.38956E+04  1.27403E+04 -1.45266E+04 -3.62153E+03  6.43701E+03 -7.53587E+03  2.09839E+04  9.29881E+03
  9.94519E+03  3.47475E+04 -2.80861E+04  3.30827E+04 -6.36785E+04  2.63532E+03 -5.18166E+04 -4.40780E+04
 -1.26256E+04 -6.54036E+04  4.17418E+04 -4.20013E+04  5.55689E+04 -2.56437E+03  3.41834E+04  2.93022E+04
 -3.40862E+03  3.19896E+04 -2.75498E+04  1.37961E+04 -3.21695E+04 -3.42686E+03 -1.58648E+04 -8.39063E+03
 -6.05531E+03 -9.35597E+03 -1.33358E+03 -1.46483E+04  4.96030E+03 -2.43139E+04  1.47693E+04 -1.64440E+04
  1.10461E+04  1.79293E+02 -4.56250E+03  1.48120E+04 -1.60500E+04 -6.26485E+03 -8.21478E+03 -3.11554E+04
  2.02621E+04 -3.84313E+04  4.58941E+04 -2.27874E+04  4.17633E+04  2.09549E+04  1.57417E+04  4.40339E+04
 -1.71243E+04  3.27386E+04 -2.52985E+04  6.42375E+02 -1.01202E+04 -2.73263E+04  2.12979E+04 -4.09458E+04
  3.69720E+04 -1.08783E+04  3.26703E+04  2.26803E+04  1.48710E+04  4.38442E+04 -3.03293E+03  4.67551E+04
 -3.40553E+04  3.22538E+04 -3.71562E+04  8.92353E+03 -3.62969E+04 -1.27664E+04 -2.13586E+04 -3.75360E+04
  7.07641E+03 -3.62489E+04  3.21174E+04 -1.93583E+04  3.09383E+04  1.28846E+04 -1.74933E+03  2.06835E+04
 -1.28810E+04  8.84589E+03 -8.65157E+03 -5.22808E+03  6.22357E+03 -7.45075E+03  1.75902E+04  5.05626E+03
  1.13796E+04  2.24245E+04 -4.74254E+03  2.26733E+04 -2.51237E+04  1.13240E+04 -3.17133E+04 -1.05911E+04
 -1.79509E+04 -1.52085E+04 -3.98922E+03 -2.55055E+04  4.69641E+03 -2.03255E+04  1.44730E+04 -1.64683E+04
  2.53552E+04 -1.69523E+04  3.26781E+04  4.85597E+03  2.04316E+04  1.67962E+04  2.18197E+03  3.05952E+04
 -1.74492E+04  2.97398E+04 -3.15771E+04  1.16488E+04 -2.27634E+04 -5.98539E+03 -4.31291E+03 -1.26322E+04
  1.41195E+03 -1.85929E+03 -7.28519E+03  8.46768E+03 -1.59350E+04  3.70615E+03 -1.53596E+04 -7.21339E+03
 -7.88726E+03 -2.02495E+04  7.78284E+03 -1.55998E+04  9.95397E+03 -1.51957E+04  1.85269E+04  8.77707E+02
  1.13549E+04  1.10422E+04 -1.34211E+03  1.99728E+04 -1.45112E+04  1.16077E+04 -1.86397E+04 -1.48771E+03
 -1.40530E+04 -1.64573E+04 -1.16954E+03 -1.93843E+04  7.13023E+03 -1.71830E+04  1.74107E+04 -1.08854E+04
  1.88560E+04  2.33922E+02  1.13895E+04  5.74191E+03  9.66111E+03 -1.05985E+03  1.04115E+04 -3.32275E+03
  1.82854E+04  7.72260E+03  1.56425E+04  1.50168E+04  1.14304E+04  2.65992E+04 -2.72441E+03  3.48301E+04
 -1.92890E+04  2.44151E+04 -2.83466E+04  1.37655E+04 -2.89472E+04 -2.00827E+03 -2.41910E+04 -2.02790E+04
 -1.14933E+04 -2.68346E+04  8.92027E+03 -1.93476E+04  1.56180E+04 -1.51266E+04  1.51930E+04  5.67161E+03
  1.15521E+04  1.63772E+04 -5.37638E+03  1.45621E+04 -1.33497E+04  3.23157E+03 -1.29585E+04 -8.78387E+03
 -6.94354E+02 -1.67277E+04  1.07454E+04 -8.76928E+03  1.13115E+04 -1.46195E+03  4.17248E+03  4.35897E+03
 -5.59323E+03  3.55421E+03 -4.15960E+03 -2.03337E+03 -2.39841E+03 -1.29287E+04  1.00338E+04 -1.59769E+04
  1.77986E+04 -8.90197E+03  1.19676E+04  7.38785E+02  1.60911E+04  9.09843E+03  4.92522E+03  2.36972E+04
 -4.95821E+03  2.14741E+04 -1.20462E+04  9.89201E+03 -1.34178E+04  3.62535E+03 -8.32121E+03 -4.04451E+02
 -4.65582E+03 -6.84444E+03 -7.67793E+02  2.59795E+03 -7.11091E+03  1.82551E+03 -4.00126E+03  5.14589E+03
 -1.14089E+04 -6.45334E+02 -1.36440E+04 -1.01109E+04 -4.86220E+03 -7.50368E+03  1.32343E+03 -9.39001E+03
  9.16469E+03 -5.51993E+03  4.57750E+03  1.80615E+03  3.13400E+03  5.36935E+03 -5.09802E+02  2.52069E+01
 -7.42190E+03 -4.31427E+03 -3.93072E+03 -7.10122E+03  8.93898E+03 -1.22810E+04  1.53156E+04 -1.33198E+03
  1.34944E+04  3.03605E+03  7.00149E+03  1.31567E+04  3.17915E+03  1.16198E+04 -4.66854E+03  6.89421E+03
 -9.72480E+03  3.94634E+03  3.04017E+02 -3.49677E+02  1.01249E+03 -1.35404E+03  4.91828E+03  6.24973E+02
  7.20273E+03  5.95083E+03  1.11316E+03  8.61571E+03 -8.48559E+03  6.70712E+03 -1.42336E+04  1.40180E+03
 -4.49408E+03  1.21629E+02  4.88557E+03 -5.03062E+03  2.75059E+03 -3.82945E+03  5.06377E+03 -1.77300E+03
 -2.80280E+03  6.17614E+02 -5.49805E+03  8.47396E+03 -8.26789E+03  3.91987E+03 -5.09232E+03 -2.60351E+03
 -3.84013E+03 -7.15169E+03  1.40327E+03 -6.77635E+03  9.32082E+03 -5.81762E+03  1.28532E+04  3.74395E+03
  4.20401E+03  3.06500E+03  2.73298E+03  1.00403E+04 -7.23878E+03  3.07273E+03 -9.38227E+03  2.35350E+02
 -9.80740E+03 -9.00530E+03  1.35144E+03 -9.92672E+03 -3.09705E+03 -5.60525E+03  5.37287E+03 -3.78141E+03
  4.70238E+01  1.24497E+03 -3.26944E+03 -4.44459E+02  1.05738E+03 -5.35290E+03 -2.28951E+03 -4.87605E+03
  5.19484E+03 -4.30679E+03  5.51044E+03 -1.64772E+03  1.09021E+04  5.57970E+03  5.66639E+03  1.35587E+04
 -5.69082E+00  1.76142E+04 -1.14425E+04  1.01568E+04 -1.20799E+04  4.57342E+03 -1.51602E+04 -4.89951E+03
 -2.54410E+03 -8.74507E+03 -8.36329E+02 -8.71265E+03  4.15461E+03  5.61250E+00  4.81008E+03 -7.45601E+03
  4.17664E+03 -3.39668E+03  3.01242E+03 -7.93130E+03  6.91315E+03 -1.60348E+03  7.10475E+01  7.68490E+02
  4.29967E+03  2.28206E+03  9.52280E+02  7.52794E+03 -9.31001E+03  1.15390E+04 -7.44112E+03  8.10325E+02
 -4.40527E+03 -3.98294E+03 -3.22096E+03 -6.06088E+03 -3.62653E+03 -6.47685E+03  5.12374E+03 -7.47604E+03
  1.25739E+04 -5.76752E+03  1.10529E+04  2.85641E+02  5.25688E+03  7.59185E+03  6.01109E+03  4.79568E+03
 -3.48760E+03  6.93622E+03 -7.10249E+03  2.62547E+03 -2.17152E+03  1.48080E+03 -7.38895E+02 -4.06532E+03
 -1.45716E+02  1.26512E+03 -1.80239E+03  4.90246E+03 -5.82799E+03 -2.60510E+03 -8.20872E+03  2.22535E+03
 -6.10343E+03 -6.24358E+03 -2.21480E+03 -5.76032E+03  2.11235E+03 -9.09863E+03  9.60412E+03 -7.41467E+03
  4.70924E+03  5.67245E+03 -1.98634E+01  4.37763E+03 -6.43555E+03  7.33487E+03 -2.45615E+03  4.73979E+03
 -1.34969E+03  3.31490E+03  6.03538E+02 -4.92019E+03  1.48207E+03 -1.04650E+04 -1.19004E+03 -1.66039E+03
  5.36108E+03 -3.19085E+03  3.13960E+03  4.30127E+03  1.31538E+02  3.83424E+03  2.49637E+03  1.94200E+03
  8.83336E+02  3.97451E+02  2.51565E+03 -2.15167E+02  3.04879E+03  5.48115E+03  1.28963E+03  2.32542E+03
 -4.96268E+02 -4.94181E+02  6.96154E+02  7.05278E+03 -3.40363E+03 -1.32964E+03 -6.52780E+03 -6.08528E+02
 -3.57316E+03 -5.60190E+03  4.59529E+03 -7.88547E+03  1.94626E+03 -8.55686E+03  1.00203E+04 -2.23734E+03
  5.72159E+03  6.23504E+03 -8.12631E+02  6.46663E+02 -7.81361E+02  3.43477E+03 -2.49785E+02 -1.30008E+03
 -2.11389E+03 -3.55835E+03  3.07985E+03  1.27141E+02  3.45380E+03  2.37623E+03  5.10265E+03  2.16901E+03
  1.59984E+03  6.77057E+03 -2.89121E+02  1.78781E+03 -2.09920E+03  1.07383E+03  6.65228E+02 -2.96997E+03
 -3.51241E+03 -5.64770E+03  1.12097E+04  2.49852E+03 -3.37636E+02  3.16347E+03  8.99899E+02  2.84851E+03
 -5.51507E+03  5.14943E+03 -5.66799E+03  1.84540E+03 -1.88760E+03  1.53833E+03  1.47220E+03 -3.41431E+03
 -2.58754E+03 -1.57079E+03  1.19159E+03 -7.30407E+02  2.02871E+03  1.36249E+03  2.78000E+03 -5.21730E+02
 -6.75213E+03  1.46933E+03 -2.38286E+03 -6.64826E+03 -3.95878E+03 -2.10351E+03 -1.72442E+03 -2.83148E+03
 -1.71515E+02 -1.09036E+03  2.91681E+03 -3.14263E+03  5.52530E+03 -4.10499E+03  5.78116E+02  3.09287E+03
  1.09106E+03  4.37958E+03 -4.99439E+03 -4.20028E+03 -2.87230E+02 -3.48180E+03 -2.07444E+03 -3.59149E+03
  5.62123E+02  2.94295E+03  8.53182E+02  4.65956E+03  6.47693E+02  9.03651E+02 -7.16019E+01 -1.16910E+03
 -5.03567E+03  1.84663E+03 -7.87547E+03 -2.45229E+03 -4.20788E+03 -2.57269E+03 -2.09299E+03 -3.89542E+03
 -7.36477E+02 -1.21984E+03 -1.50923E+03  7.37666E+03 -1.35204E+03  4.55284E+03  2.84956E+03  4.23216E+03
 -1.98794E+03  2.14513E+03  1.54706E+03  1.66997E+03 -1.62201E+03  8.51626E+02  3.88187E+03  4.68482E+02
  1.06636E+03  3.69738E+03 -1.50443E+03 -2.29907E+02 -5.33843E+03  1.19429E+03 -3.99362E+03 -3.14716E+03
 -4.92810E+03 -1.94969E+03 -2.73678E+01 -1.36805E+03  2.97994E+03 -5.53532E+03  4.54981E+03 -1.20502E+03
  8.00754E+03  5.93561E+03 -1.68957E+03  4.13954E+03 -8.38251E+02  4.49638E+03 -5.33937E+03  4.27527E+03
 -5.79381E+03  3.29764E+03 -4.33957E+03 -2.50299E+03 -1.50910E+03  8.25475E+02 -2.88997E+03 -4.86959E+02
 -4.41720E+03 -1.54966E+03 -2.70800E+02 -2.09661E+03  1.03263E+03  2.39992E+03 -8.47063E+02 -4.36183E+03
  9.32030E+03 -1.48231E+03  3.76612E+03 -3.50776E+03  4.79612E+03  1.76562E+03  1.09963E+03  9.46393E+03
 -3.13461E+03  6.09360E+03 -2.29618E+03  3.93090E+03  1.55602E+03  2.06529E+03 -2.97637E+03 -3.48476E+03
 -2.55909E+03 -4.95560E+03  2.70260E+02 -4.42478E+03 -2.08226E+02 -2.09024E+01  1.98972E+03  2.32054E+03
  2.01037E+03  6.03399E+03 -1.85910E+03 -7.51052E+02  4.08346E+02  6.40847E+02  1.98870E+03 -3.17869E+03
  6.69262E+02 -1.47387E+03  2.97420E+03  7.76804E+02  8.20067E+02  3.99862E+03 -6.68414E+02  4.95925E+03
 -4.78326E+03  9.55086E+02 -4.22589E+02 -2.12343E+03 -4.35987E+03 -4.57630E+03  3.42039E+03  2.94774E+03
 -3.37736E+03  1.44797E+03 -8.03065E+02 -1.92502E+03  2.88091E+03 -9.69157E+02  7.20326E+03  2.12027E+02
 -1.28230E+03  1.37929E+03 -1.48184E+03  4.24413E+03 -4.21064E+03  1.81522E+03 -2.34782E+03  2.47776E+03
  2.78527E+03 -1.09085E+03 -1.08157E+03 -2.27369E+03 -6.27304E+01  2.38834E+03 -5.69708E+02  8.66429E+02
 -1.24118E+03 -5.77072E+02 -1.51574E+03 -1.30520E+03  3.18222E+03 -1.59519E+03  2.39688E+02 -9.66264E+02
  2.30423E+03  3.07577E+02  3.21811E+03 -3.67337E+02  1.15033E+03  4.74413E+03 -4.99852E+03  1.65023E+03
