 $NMID ID='MM_0lb_SNR50_10hz_g40_41.RAW', FMTDAT='(8E13.5)'
 TRAMP=1., VOLUME=1. $END
  3.07826E+05  4.24192E+03  3.41322E+05  2.53140E+05  8.48849E+04  3.36518E+05 -1.31706E+05  2.48548E+05
 -1.86220E+05  7.80907E+04 -1.13724E+05 -3.51535E+04  1.59431E+03 -5.10858E+04  5.37091E+04  1.40186E+03
  3.29819E+04  5.21692E+04 -2.33955E+04  7.56343E+04 -6.16712E+04  6.30154E+04 -7.57627E+04  3.37258E+04
 -7.96441E+04 -8.70451E+03 -5.93467E+04 -4.66225E+04 -1.79578E+04 -7.56650E+04  3.36902E+04 -4.27427E+04
  4.06787E+04  3.70412E+03  1.95423E+04  5.07922E+04 -3.24169E+04  4.79054E+04 -6.51340E+04  3.89714E+03
 -5.30311E+04 -6.00545E+04 -8.07826E+03 -7.92052E+04  3.66695E+04 -5.66141E+04  5.35754E+04 -1.65477E+04
  4.02935E+04  1.12951E+04  2.63997E+04  2.51138E+04  1.07703E+04  3.12957E+04 -5.72443E+03  3.01158E+04
 -2.15453E+04  1.40518E+04 -1.80088E+04 -6.12576E+03  1.05393E+04 -4.30405E+03  2.18734E+04  1.39395E+04
  5.70334E+03  3.51909E+04 -2.66849E+04  3.60709E+04 -7.02075E+04  3.48657E+03 -6.26035E+04 -4.07308E+04
 -1.57021E+04 -6.45044E+04  4.00570E+04 -4.70507E+04  6.22408E+04  1.37875E+02  2.99412E+04  3.30506E+04
 -3.75926E+03  3.13212E+04 -2.50957E+04  1.78962E+04 -2.94109E+04 -1.15019E+03 -1.76900E+04 -1.17446E+04
 -8.48995E+03 -9.29519E+03  3.10472E+03 -1.68837E+04  7.33324E+03 -2.08754E+04  1.94065E+04 -1.57461E+04
  1.44301E+04  1.73619E+02 -1.20832E+04  1.44859E+04 -2.76699E+04 -5.49357E+03 -1.02576E+04 -3.89909E+04
  2.66085E+04 -4.78016E+04  5.06223E+04 -2.62891E+04  4.58447E+04  2.13274E+04  1.66017E+04  4.28563E+04
 -1.90824E+04  3.54967E+04 -2.97322E+04  3.51795E+03 -1.29623E+04 -3.11115E+04  1.87853E+04 -3.32590E+04
  4.18994E+04 -7.95962E+03  4.17017E+04  2.68292E+04  1.60595E+04  4.63600E+04 -5.80532E+03  5.32693E+04
 -4.04865E+04  3.30057E+04 -4.75395E+04  1.28996E+04 -5.03800E+04 -1.82094E+04 -2.94685E+04 -3.15593E+04
  1.08403E+04 -3.98375E+04  3.69526E+04 -1.54978E+04  3.34886E+04  1.02288E+04  2.66620E+03  2.36629E+04
 -1.29844E+04  1.11276E+04 -1.34392E+04 -8.56246E+03 -2.31661E+03 -8.84974E+03  1.57747E+04  9.36133E+03
  1.39081E+04  2.91785E+04 -6.14699E+03  2.37214E+04 -2.53429E+04  1.41701E+04 -2.92429E+04 -2.32073E+03
 -2.21803E+04 -1.66928E+04 -1.39304E+04 -2.57593E+04  6.09393E+03 -2.26283E+04  1.71800E+04 -2.38167E+04
  2.77018E+04 -1.38314E+04  3.38518E+04  9.41445E+02  2.91819E+04  2.07115E+04  3.73944E+03  4.00084E+04
 -2.59823E+04  3.81281E+04 -3.67689E+04  1.14247E+04 -2.48624E+04 -1.25923E+04 -2.32244E+03 -1.74387E+04
 -2.50993E+03  8.21755E+02 -8.27131E+03  5.30606E+03 -1.99649E+04  7.01483E+03 -1.40005E+04 -7.09327E+03
 -1.30525E+04 -2.50646E+04  6.92370E+03 -1.97163E+04  2.02943E+04 -1.92699E+04  1.97531E+04 -1.42697E+03
  1.58697E+04  1.79981E+04 -9.20100E+03  2.32958E+04 -1.35229E+04  9.77850E+03 -1.50672E+04  2.55761E+03
 -1.68217E+04 -1.94223E+04 -4.96485E+03 -2.93471E+04  1.55685E+04 -2.18414E+04  1.83686E+04 -1.36668E+04
  1.42067E+04  7.05928E+02  7.73193E+03  3.71503E+03  1.13600E+04  2.36477E+03  9.04091E+03 -5.62925E+03
  1.87246E+04  4.02284E+03  2.43636E+04  2.21832E+04  1.58688E+04  3.92511E+04 -3.06263E+03  4.09124E+04
 -2.08990E+04  3.13718E+04 -3.43709E+04  2.17452E+04 -4.20771E+04 -6.39558E+03 -3.29050E+04 -2.30296E+04
 -1.53535E+04 -3.56549E+04  9.29874E+03 -3.13220E+04  2.86533E+04 -1.32388E+04  2.82310E+04  7.61707E+03
  3.26762E+03  2.37012E+04 -1.03199E+04  1.36833E+04 -1.56286E+04  5.62736E+02 -1.26744E+04 -9.28880E+03
  1.11131E+03 -2.14509E+04  9.85509E+03 -1.10158E+04  1.45450E+04 -3.21025E+03  4.14574E+03  1.14713E+04
 -5.82765E+03  2.67269E+03 -4.89794E+03 -7.62872E+03 -6.91143E+03 -1.29792E+04  1.21103E+04 -1.89677E+04
  1.89634E+04 -5.22901E+03  2.48030E+04  5.58968E+03  1.93321E+04  1.74106E+04  1.08511E+04  2.41457E+04
 -4.46577E+02  2.79209E+04 -1.96728E+04  1.55605E+04 -2.23747E+04  3.39389E+03 -8.29387E+03 -1.40792E+03
 -5.66057E+03 -2.07332E+03  5.66730E+03 -8.31286E+02  3.02233E+01  7.67740E+03 -8.02663E+03  5.39255E+03
 -1.49974E+04 -3.95287E+02 -1.42576E+04 -9.49636E+03 -9.98345E+03 -1.22914E+04  1.44980E+03 -1.48476E+04
  1.36732E+04 -7.41064E+03  7.51616E+03  5.56317E+03  3.43475E+03  1.06368E+04 -6.98889E+03  4.18097E+03
 -1.15361E+04 -9.55020E+03  2.37577E+03 -1.60670E+04  9.54106E+02 -1.33858E+04  1.69035E+04 -9.15721E+01
  2.15700E+04  2.34081E+03  1.39747E+04  8.18842E+03  1.27750E+03  1.81219E+04 -5.49290E+03  1.18649E+04
 -1.45921E+04  5.14536E+03 -7.46028E+03  3.34021E+03 -2.84761E+03 -2.73320E+03  6.66270E+03 -2.01977E+02
  9.39949E+03  6.45866E+03  1.44082E+03  1.18059E+04 -4.25404E+03  7.77631E+03 -1.76890E+04  1.66476E+03
 -1.29033E+04 -3.39239E+03 -3.19161E+03 -1.03745E+04  6.24176E+03 -7.24436E+03  6.29366E+03  5.34808E+03
  3.80378E+03  8.28088E+03 -1.47854E+03  1.15004E+04 -9.46435E+03  5.75298E+03 -1.29342E+04 -6.33757E+02
 -2.93211E+03 -1.20318E+04  8.72926E+03 -1.15078E+04  1.37924E+04 -1.26522E+04  1.39474E+04  6.08845E+03
  1.11948E+04  1.71923E+04 -6.81895E+03  1.18664E+04 -6.60122E+03  5.64265E+03 -1.42860E+04 -4.61630E+03
 -1.19179E+04 -1.21700E+04 -7.81222E+02 -9.03748E+03  5.78108E+03 -1.79580E+04  1.03657E+04 -8.04869E+02
  7.01537E+03  8.04509E+02  5.06927E+03  6.53086E+02 -2.91564E+03 -8.72722E+03  4.58523E+03 -3.46076E+03
  1.45072E+04 -6.62742E+03  1.89898E+04  3.83187E+03  1.37543E+04  8.67460E+03  1.68374E+04  2.32682E+04
  1.39870E+03  1.81132E+04 -1.10763E+04  1.69394E+04 -2.89134E+04  4.31023E+03 -1.58475E+04 -3.70529E+03
 -9.83756E+03 -1.65545E+04  5.99517E+03 -1.13286E+04  1.84059E+03 -5.84634E+03  7.33635E+03 -5.61954E+03
  2.42915E+03 -6.71079E+01  3.11619E+03 -1.26043E+03  5.48344E+03 -7.20724E+03  6.77181E+02  1.59387E+03
  5.38151E+03  2.59849E+02  4.88326E+03  6.41779E+03 -5.24537E+03  1.44022E+04 -1.10518E+04  1.17511E+04
 -1.69877E+04 -3.52809E+03 -7.29541E+03 -1.19632E+04 -1.54369E+03 -1.05575E+04  1.22010E+04 -1.22621E+04
  1.07028E+04 -5.53016E+03  1.35253E+04  1.27603E+03  8.82377E+03  8.93698E+03 -2.51397E+03  1.01102E+04
 -2.04339E+03  9.20379E+03 -1.51642E+04  9.35182E+03 -7.46769E+03 -3.82198E+03 -1.90082E+03  1.31711E+03
  1.77077E+03 -3.29623E+02 -4.86897E+03  3.48852E+03 -4.24926E+03 -2.39206E+03 -1.13959E+04  2.06895E+03
 -5.56720E+03 -8.15769E+03  4.38307E+03 -1.16896E+04 -1.32005E+03 -8.86386E+03  1.43373E+04 -2.97352E+03
  9.84581E+03  4.53382E+03  5.58250E+03  5.69384E+03 -4.70755E+03  1.66760E+04 -1.49168E+04  5.79500E+03
 -1.78481E+04  3.33464E+03 -5.21247E+03 -9.89622E+02  9.76997E+02 -1.05983E+04  5.21100E+03 -1.19427E+04
  1.20317E+03 -9.45029E+02 -4.33418E+03  4.85192E+03  1.61582E+03 -2.50427E+03  9.52643E+02  3.38265E+03
  3.83910E+03  1.74079E+03  1.94693E+03  8.62198E+03  2.81452E+03  1.83309E+03  8.58404E+03  3.67492E+03
  8.33999E+02  8.46668E+03 -6.18008E+03  5.94003E+03 -8.81325E+03  4.71860E+03 -1.30289E+04 -7.82881E+03
 -6.46900E+03 -1.15596E+04  8.99684E+02 -9.22060E+03  3.98248E+03 -1.43412E+04  1.25813E+04 -3.48523E+03
  9.28865E+03  8.05195E+02 -1.30589E+03  1.24031E+04 -7.43188E+02  1.32521E+03 -5.19409E+03  4.89426E+03
 -2.79428E+03 -3.86797E+03  6.66126E+03 -8.84647E+03  3.20269E+03  5.93215E+01  4.11403E+03  1.09726E+03
 -1.92942E+02  7.17552E+03 -5.83354E+02  2.51771E+03 -4.62441E+03 -5.43051E+03  5.30599E+03 -3.35718E+02
  4.78445E+03 -2.68368E+03  5.62539E+03 -3.20067E+03  4.72461E+03  2.63752E+03 -3.10607E+03  1.09569E+04
 -8.95890E+03  2.27548E+03 -9.90160E+03  2.56569E+03 -1.26716E+04 -6.97344E+03 -2.44251E+03 -6.65664E+03
  5.33589E+03 -5.84996E+03  6.54482E+03  1.69696E+02  1.85289E+03  2.57419E+03  2.06342E+03  5.63666E+03
 -5.36132E+03 -7.39290E+02 -7.89639E+03 -4.88866E+03 -4.62845E+03 -9.33730E+03  4.90600E+02 -6.95288E+03
  3.42434E+03 -3.60256E+03  8.39687E+03 -3.09364E+03  8.75847E+03  2.84338E+03  3.87678E+02  3.40468E+03
  2.84051E+03 -1.85998E+03 -1.29662E+03  3.93135E+02  4.11609E+03 -8.59623E+03  1.23899E+04 -4.32904E+03
  1.05778E+04  2.72275E+03  1.04168E+04  9.22240E+03  1.22591E+03  7.41135E+03 -8.82607E+03  3.47320E+03
 -1.15912E+04 -2.63932E+03 -9.70157E+03 -5.15045E+02 -1.18218E+03 -7.70975E+03 -2.38849E+03 -4.94684E+03
  9.26560E+03  2.60192E+02  9.07856E+03  2.29722E+03 -1.70121E+03 -1.41891E+03 -5.69891E+02  4.90709E+03
 -4.17034E+03 -5.24512E+02 -6.62074E+02 -1.47118E+03 -3.50290E+03  2.83123E+03  2.75204E+03  1.92941E+03
 -4.29970E+03 -9.13905E+02 -2.09572E+03  1.80003E+03 -7.44045E+03 -4.02164E+02 -1.71865E+04 -1.63906E+03
 -3.08054E+03 -8.26789E+03  2.43220E+03 -7.82235E+03  9.96518E+03 -1.60613E+04  1.04455E+04 -3.45028E+03
  1.53220E+04  2.37495E+03  6.31490E+03  1.46194E+03 -1.77250E+03  2.03751E+03 -5.95141E+03  1.09074E+04
 -1.05586E+04  8.25015E+03 -6.35283E+03 -4.71687E+02  6.29223E+03  9.63829E+02 -6.03038E+02 -7.78256E+03
  1.48580E+03 -5.27197E+02 -8.17253E+03 -4.65424E+03  1.20436E+03  6.23428E+03  6.34724E+03 -9.39669E+03
  5.06601E+03 -2.36307E+03  3.96132E+03  4.14599E+03  6.71636E+03  2.76802E+03 -3.00684E+03  5.98436E+03
 -6.80526E+03  6.81998E+03 -8.43371E+03  3.54042E+03 -7.42160E+03 -9.89979E+02 -7.10851E+03 -3.60927E+03
 -5.88681E+03 -1.27727E+04  4.85980E+03 -1.05690E+04  1.03837E+04 -6.24481E+03  3.43501E+03  2.64774E+03
  2.29826E+03  8.29544E+03 -1.33082E+03  2.82985E+03 -4.77292E+02 -1.90741E+03 -1.99694E+03 -1.02873E+03
  5.02687E+03 -1.19546E+03 -1.39939E+03  1.42014E+03 -3.64966E+03  8.07198E+03  2.94947E+03  5.29567E+03
 -6.50795E+03  2.85865E+02 -9.50997E+03 -6.66205E+02 -1.69908E+03  4.48944E+02 -3.27670E+03 -4.77602E+03
  4.65002E+03 -4.47140E+03  3.73483E+03 -3.30217E+03  5.13878E+03  4.26753E+03  4.72626E+03  7.48947E+03
  2.58328E+03  8.36650E+03 -1.84432E+02  6.63549E+03 -7.39897E+03  1.64295E+03 -3.96981E+03  7.13650E+03
 -7.04135E+03 -2.11904E+03 -1.53049E+03  4.30107E+02 -4.87079E+03  2.31181E+03 -1.99947E+03 -3.60766E+03
 -1.21764E+03 -1.60094E+03 -2.97275E+02 -5.93268E+03  2.07228E+03 -7.00327E+03  9.36366E+03 -1.38043E+03
  2.69819E+03  3.11387E+03  2.23634E+03  6.94560E+03 -3.17309E+03  6.74533E+03 -5.64884E+03  7.35284E+03
