 $NMID ID='MM_0lb_SNR50_15hz_g55_25.RAW', FMTDAT='(8E13.5)'
 TRAMP=1., VOLUME=1. $END
  3.11753E+05  2.51125E+02  3.42255E+05  2.48944E+05  8.34221E+04  3.38340E+05 -1.32860E+05  2.50876E+05
 -1.92563E+05  8.04015E+04 -1.16172E+05 -3.33645E+04 -3.91195E+03 -5.53643E+04  5.76718E+04  1.45915E+03
  3.13671E+04  5.06129E+04 -1.88820E+04  7.35386E+04 -6.05513E+04  6.20135E+04 -8.49315E+04  3.57206E+04
 -8.32954E+04 -1.12162E+04 -5.84518E+04 -4.91883E+04 -1.04791E+04 -7.16017E+04  2.69318E+04 -4.47537E+04
  4.02402E+04  3.59513E+02  2.02953E+04  4.31328E+04 -3.59289E+04  4.63163E+04 -7.13327E+04 -1.59716E+03
 -5.23481E+04 -5.60319E+04 -5.81386E+03 -7.59994E+04  3.54994E+04 -5.09476E+04  4.70982E+04 -1.84517E+04
  4.17239E+04  7.27386E+03  2.78046E+04  2.63718E+04  1.66798E+04  3.00475E+04 -5.20673E+03  2.66286E+04
 -2.26017E+04  1.94828E+04 -1.87536E+04 -2.57966E+03  6.04315E+03 -7.45192E+03  2.48484E+04  1.06484E+04
  8.49268E+03  3.44479E+04 -3.20942E+04  3.93695E+04 -5.91096E+04  8.88175E+03 -5.54210E+04 -4.50353E+04
 -1.37273E+04 -5.93543E+04  4.28900E+04 -4.80954E+04  6.12646E+04 -3.47611E+03  2.96683E+04  3.80179E+04
 -7.54220E+03  3.67437E+04 -3.02368E+04  1.08405E+04 -3.48804E+04 -3.07564E+03 -1.77456E+04 -1.03937E+04
 -5.24618E+03 -1.26099E+04 -3.33426E+03 -1.39261E+04  5.33368E+03 -2.13782E+04  1.04969E+04 -1.54632E+04
  1.09477E+04  8.40562E+02 -6.47863E+03  1.06963E+04 -2.14422E+04 -6.19015E+03 -9.04369E+03 -3.92673E+04
  2.27813E+04 -4.06063E+04  5.07785E+04 -2.24762E+04  4.09630E+04  1.80551E+04  1.18389E+04  4.12508E+04
 -1.68393E+04  3.23015E+04 -2.55842E+04  3.91147E+03 -4.88802E+03 -2.99756E+04  1.78406E+04 -3.36984E+04
  4.12049E+04 -1.22315E+04  3.30132E+04  2.65605E+04  1.82146E+04  4.63567E+04 -9.22652E+03  4.93911E+04
 -2.77283E+04  3.05304E+04 -4.31318E+04  1.36743E+04 -4.02828E+04 -1.90133E+04 -2.32033E+04 -3.92645E+04
  3.23535E+03 -3.53121E+04  2.85033E+04 -1.73697E+04  2.72652E+04  1.16026E+04  1.93779E+03  2.05764E+04
 -1.62965E+04  6.70041E+03 -1.14151E+04 -8.72057E+03  5.80773E+03 -9.68182E+03  1.32012E+04  4.80467E+03
  1.21619E+04  2.09900E+04 -7.76595E+03  2.41140E+04 -2.61564E+04  1.18674E+04 -3.13421E+04 -5.83304E+03
 -1.86729E+04 -1.58395E+04 -7.55730E+03 -1.98284E+04  3.28612E+03 -2.33864E+04  1.39627E+04 -2.01917E+04
  2.70666E+04 -8.12098E+03  3.45162E+04  3.35737E+03  2.45073E+04  2.11361E+04  6.69657E+03  3.72594E+04
 -1.71844E+04  3.20769E+04 -2.67118E+04  1.14093E+04 -2.10887E+04 -1.64172E+04 -4.55025E+03 -1.95569E+04
 -9.22197E+02 -2.83234E+03 -5.26098E+02  8.23855E+03 -1.53349E+04  3.77605E+03 -1.81826E+04 -5.76569E+03
 -7.64868E+03 -2.08892E+04  1.53386E+03 -1.80911E+04  1.38557E+04 -1.45906E+04  2.27639E+04 -4.90279E+03
  1.30275E+04  1.39141E+04 -4.48975E+03  1.91616E+04 -7.20808E+03  1.10189E+04 -2.13759E+04 -2.46301E+03
 -1.11980E+04 -1.85621E+04 -3.36146E+03 -2.45016E+04  8.05329E+03 -1.29579E+04  1.56683E+04 -6.50127E+03
  1.80243E+04 -2.05006E+02  1.37539E+04  2.00513E+03  5.32312E+03  3.82479E+03  7.48453E+03  1.28731E+03
  1.32171E+04  2.64423E+03  1.92184E+04  1.81455E+04  8.60316E+03  2.80732E+04 -2.92386E+03  3.54966E+04
 -1.90566E+04  3.06268E+04 -3.09844E+04  1.26629E+04 -2.95667E+04  6.61315E+02 -2.51337E+04 -1.85925E+04
 -1.21586E+04 -2.29615E+04  8.27015E+03 -1.84331E+04  2.19754E+04 -1.32551E+04  1.98684E+04  7.12965E+03
  8.64874E+03  1.51390E+04 -7.25058E+03  1.19839E+04 -1.58866E+04  5.98986E+02 -1.59173E+04 -8.91538E+03
  1.07074E+03 -1.64780E+04 -3.04307E+02 -8.16513E+03  7.01522E+03 -1.10416E+03  5.08300E+03  1.10928E+04
 -1.58370E+04 -2.00363E+03 -7.62846E+03 -7.42327E+03 -5.47117E+02 -8.49372E+03  1.21243E+04 -1.18117E+04
  1.13862E+04 -8.03144E+03  2.02266E+04  1.89654E+03  1.48971E+04  1.26245E+04  5.27999E+03  2.21950E+04
  1.53450E+03  2.49418E+04 -1.81040E+04  1.14312E+04 -1.67403E+04  3.73527E+03 -1.37189E+04 -2.54357E+03
 -4.10532E+03 -6.68518E+03 -3.01876E+03 -4.60344E+02 -2.82909E+03  3.25082E+03 -5.77181E+03  7.35108E+02
 -6.90357E+03 -4.84202E+02 -1.03914E+04 -4.88785E+03 -2.39380E+03 -1.28399E+04  3.83488E+03 -1.27590E+04
  8.81709E+03 -5.07809E+03  8.56165E+03  4.99762E+03  5.03163E+02  6.09767E+03 -4.31730E+03  9.34078E+02
  1.88744E+03 -5.43338E+03  4.60882E+03 -1.04238E+04  6.04840E+03 -1.47419E+04  1.35401E+04 -2.20800E+03
  1.77124E+04  1.49179E+03  1.52337E+04  6.69622E+03  2.21372E+03  1.15291E+04 -6.16031E+03  7.53970E+03
 -1.00185E+04  1.55351E+03 -6.66068E+03 -3.49150E+03  3.52486E+03 -2.01515E+03  3.76195E+03 -5.76519E+00
  6.29012E+03  3.79050E+03  3.52916E+03  9.96390E+03 -4.37432E+03  6.88103E+03 -7.86586E+03  6.57685E+03
 -8.82963E+03 -6.10234E+03 -2.44763E+03 -1.09744E+04  3.41572E+03 -5.65534E+03  4.67397E+03  1.49459E+03
  4.78896E+02  4.18625E+03 -4.87944E+03  1.06928E+04 -1.25528E+04  6.40719E+03 -8.61292E+03 -3.64832E+03
 -7.53086E+03 -1.13794E+04  2.93116E+03 -1.08121E+04  6.34461E+03 -6.41957E+03  7.66218E+03  3.27726E+02
  7.79701E+03  8.19863E+03 -1.02776E+03  6.34024E+03 -1.21712E+04  4.78854E+03 -8.29096E+03 -4.78908E+03
 -5.07970E+03 -4.46550E+03  1.08002E+03 -5.64170E+03  3.38575E+03 -3.20759E+03  4.99457E+03 -3.81669E+03
  3.45314E+03 -1.61560E+03 -4.29267E+02  4.92691E+03 -3.38978E+03  3.99828E+03 -2.33804E+03 -2.23893E+03
 -2.74355E+03 -2.73165E+03  4.10092E+03  3.02559E+03  9.41873E+03  8.06687E+03  4.97529E+03  1.39428E+04
 -1.58747E+03  9.59129E+03 -1.72027E+04  9.74982E+03 -1.70814E+04  1.95163E+03 -1.27281E+04 -6.95868E+03
 -7.21173E+03 -1.45349E+04  4.21749E+03 -8.88134E+03  4.50069E+03 -4.41891E+03  4.50374E+03  8.33149E+02
  1.99877E+03 -1.75831E+03  4.81090E+03  3.60988E+03  5.04125E+03  3.92808E+03  7.25561E+03 -3.02854E+03
  8.64991E+03 -1.21037E+03  1.26786E+03  7.65515E+03 -7.61851E+02  5.51379E+03 -3.50135E+03  5.21916E+03
 -6.31668E+03 -2.28701E+03 -6.67588E+03 -6.31561E+03  2.42070E+03 -1.10434E+04  6.62186E+03 -8.83854E+03
  4.04879E+03 -6.32273E+03  1.32888E+04  1.47749E+03  7.21977E+03  1.16041E+04 -1.48177E+03  2.21413E+03
 -4.06640E+03  5.46782E+03 -7.69950E+03  7.17217E+02 -4.92170E+03 -3.37987E+03  4.78467E+03 -1.98396E+02
  3.32865E+03 -1.82859E+03 -1.94047E+03  1.11918E+03 -6.33791E+03  4.03365E+03 -2.25089E+03 -3.55597E+03
 -5.54403E+03 -3.50176E+02 -8.61474E+02 -7.99125E+03  4.84041E+03 -4.58751E+03  5.62851E+03 -1.93471E+01
  4.44395E+03  4.75335E+03  1.30892E+02  6.85828E+03  1.60829E+03  3.65271E+03 -8.41603E+03  3.72349E+03
 -1.25384E+04  4.26555E+03 -5.15813E+03 -1.82766E+03  7.47827E+03 -2.27754E+03  2.28681E+03 -4.10086E+03
  4.68201E+03  2.86621E+03 -6.92826E+02  2.52292E+03 -2.70339E+03  3.78537E+03 -7.56906E+01  2.72825E+03
 -6.11809E+01  3.81304E+03  3.62385E+03  1.78445E+03  2.11419E+03  2.57886E+01 -1.02131E+02  7.25376E+03
 -4.72587E+03  2.74460E+03  1.95265E+03  6.95576E+03 -3.91613E+03  2.69181E+03 -5.91909E+03 -1.59932E+03
 -5.19208E+03 -3.87791E+03 -8.42052E+01 -1.30737E+04  4.35370E+03 -3.22725E+03  2.66655E+03  1.11749E+03
  3.39721E+03  1.08895E+03 -1.60926E+03 -1.24188E+03  2.14441E+03  1.61048E+03  2.28072E+02 -3.34984E+03
 -1.26234E+03  6.21556E+02 -3.32420E+03 -3.60018E+03  2.24048E+03  1.70177E+02  5.92885E+03  3.72577E+03
  1.45819E+03  6.70882E+03  5.72707E+03 -2.19166E+03 -5.96227E+03  3.83184E+03  6.60329E+02 -1.55800E+03
 -2.83563E+03 -4.67651E+03  6.15602E+03  3.44186E+03  2.01073E+03  8.41955E+03 -1.01929E+03  1.03448E+04
 -2.62305E+02  6.09234E+03 -4.19596E+03  3.09821E+03 -3.75691E+03  1.68339E+02 -2.91390E+03  3.41329E+03
 -1.82572E+03 -3.59843E+03 -8.10631E+03 -5.47182E+02 -1.41183E+03  1.40323E+03  3.22225E+03  2.44673E+03
 -4.09378E+03 -4.48259E+03 -2.88765E+03 -2.85502E+03  1.62677E+03  3.62755E+02  1.86686E+03 -1.06631E+01
  1.87165E+03 -2.66113E+03  2.10281E+03  9.86022E+02  4.14972E+03  6.12405E+03  1.10321E+03  2.93326E+03
 -1.72861E+03 -3.79590E+03 -5.54985E+03 -3.63612E+03  1.34699E+03 -1.15087E+03  5.34466E+03 -2.72465E+03
  4.44696E+03  5.28877E+03  5.03156E+03 -2.57924E+03  1.72520E+03  1.50048E+03 -4.52981E+03  3.01604E+03
 -2.88089E+03 -2.65377E+02 -5.50821E+03  1.98151E+03  1.29345E+03 -1.16094E+03 -5.48695E+03 -1.84306E+03
  6.48525E+03 -1.89332E+03 -1.43943E+03 -9.75130E+02  6.39873E+02  4.53233E+03 -3.13754E+03 -2.80779E+02
 -2.31243E+03 -9.12708E+02  2.67402E+03  1.65320E+03  3.49164E+03  2.38633E+03 -4.10759E+03  2.01324E+03
 -1.93850E+03  4.36717E+03 -1.71313E+03 -9.04934E+02 -7.45900E+03 -1.47049E+03 -2.65798E+03 -4.97186E+03
 -6.14457E+01 -6.51247E+03  3.94460E+03 -6.37770E+03  6.32218E+03 -2.20071E+03  4.82726E+03 -8.82907E+03
  3.20236E+03 -2.54811E+03  2.00303E+03  1.07256E+04  6.13637E+02  1.00351E+01 -4.34334E+02 -1.29331E+03
 -3.55798E+03  4.94079E+03 -2.67183E+03 -1.37149E+03  2.78287E+03  7.97045E+02 -3.70548E+03  8.46302E+02
 -2.06739E+02  3.26705E+03 -4.23973E+03 -3.96194E+03  3.32639E+03  8.05460E+02 -1.82221E+03 -5.98885E+03
  4.44334E+03  6.62517E+01 -1.49818E+03 -9.45599E+02  2.20515E+03  9.87953E+02 -2.66787E+02  3.19410E+03
 -4.43893E+03  3.64443E+03 -5.14527E+03  1.04233E+03 -5.45887E+03 -8.03914E+02 -4.17289E+03  1.13935E+03
  6.80150E+02 -6.66929E+03 -3.69125E+03 -6.66611E+03  3.49155E+03 -3.72278E+03  2.20967E+03  9.53289E+02
  3.12567E+02 -1.35463E+03 -2.84227E+03 -1.87553E+03 -9.17399E+01  1.73280E+02  6.75290E+02 -8.91502E+01
 -9.26476E+02  7.06956E+02  2.17451E+03  1.40660E+03  1.17486E+03  3.40759E+03 -6.22173E+02 -6.44569E+02
 -1.93825E+03 -2.13355E+03 -7.11580E+03  5.94152E+02 -2.66098E+03 -4.05065E+03  1.17306E+03 -4.70031E+03
  3.97460E+03  4.00024E+00  6.90687E+03 -2.34359E+03  2.01937E+03  1.50901E+03  1.93939E+03  4.43221E+03
  2.37082E+03  4.46642E+03  3.42109E+02 -1.34828E+03 -6.41974E+02 -2.50143E+03  1.27295E+03  4.84992E+03
  1.97175E+03  4.43249E+03 -7.99548E+03 -1.24467E+03 -1.69824E+03 -7.37850E+02 -4.59180E+03  3.47656E+03
  6.09124E+02  1.69807E+03 -8.94758E+02 -3.01347E+03  2.69269E+03 -1.48755E+03 -2.40817E+03  2.82204E+03
 -4.19236E+02  4.02071E+03  1.66000E+03 -5.26033E+03  6.58439E+02  2.36521E+03 -2.92338E+03 -1.16769E+03
