 $NMID ID='MM_0lb_SNR50_15hz_g40_48.RAW', FMTDAT='(8E13.5)'
 TRAMP=1., VOLUME=1. $END
  3.09306E+05 -6.10076E+02  3.37417E+05  2.53491E+05  8.24515E+04  3.39750E+05 -1.34343E+05  2.55276E+05
 -1.92667E+05  8.59273E+04 -1.07064E+05 -3.47508E+04  4.83497E+02 -5.06473E+04  5.23279E+04  2.59577E+03
  3.72466E+04  5.53139E+04 -1.87972E+04  7.53435E+04 -6.59951E+04  6.71765E+04 -8.39086E+04  3.29037E+04
 -7.71383E+04 -1.17052E+04 -6.17850E+04 -5.22707E+04 -1.26525E+04 -6.55960E+04  2.44751E+04 -5.01481E+04
  4.24050E+04  4.90879E+03  1.44293E+04  4.92862E+04 -3.01204E+04  4.68467E+04 -7.22311E+04 -1.82382E+03
 -5.38688E+04 -5.53013E+04 -7.23568E+03 -7.58669E+04  3.68596E+04 -5.31513E+04  4.68633E+04 -1.83351E+04
  3.97942E+04  1.07707E+04  3.37045E+04  2.11699E+04  1.76460E+04  2.72488E+04 -7.46412E+03  2.31068E+04
 -1.53772E+04  1.34990E+04 -1.71969E+04 -6.65778E+02  4.13030E+03 -6.72220E+03  2.37370E+04  1.47483E+04
  1.03431E+04  3.50239E+04 -3.00859E+04  3.43868E+04 -6.61312E+04  1.32144E+03 -5.31438E+04 -4.68205E+04
 -1.76751E+04 -5.46258E+04  3.71003E+04 -4.47059E+04  5.35652E+04 -3.28057E+03  3.12205E+04  3.34067E+04
 -6.79662E+03  3.65490E+04 -3.30325E+04  2.08013E+04 -2.83462E+04 -6.94224E+03 -1.69831E+04 -1.31841E+04
 -9.46253E+03 -1.44931E+04 -4.94457E+03 -1.63252E+04  7.12015E+03 -2.34174E+04  1.62083E+04 -1.23615E+04
  1.20010E+04  5.39387E+03 -3.27236E+03  1.65075E+04 -2.21505E+04 -8.73038E+02 -3.81530E+03 -3.12363E+04
  2.38272E+04 -4.16618E+04  4.75384E+04 -1.85018E+04  4.16059E+04  1.70750E+04  1.55348E+04  3.86949E+04
 -1.71713E+04  3.45521E+04 -2.76102E+04  1.26517E+03 -9.27864E+03 -3.00306E+04  2.33317E+04 -3.31863E+04
  4.42004E+04 -9.64251E+03  3.37221E+04  2.48314E+04  1.38308E+04  4.81739E+04 -1.34532E+04  4.83393E+04
 -2.14015E+04  2.57465E+04 -3.82753E+04  7.84144E+03 -4.10326E+04 -1.26824E+04 -2.59166E+04 -3.57615E+04
  9.56608E+03 -3.46298E+04  2.90179E+04 -1.31218E+04  2.37290E+04  1.24091E+04 -5.57826E+02  1.70844E+04
 -1.06894E+04  4.42874E+03 -1.08369E+04 -3.88034E+03  8.70109E+03 -4.28041E+02  1.78690E+04  7.09443E+03
  1.62618E+04  2.29696E+04 -5.78396E+03  2.77637E+04 -2.43846E+04  8.69621E+03 -2.66851E+04 -6.71772E+03
 -2.21472E+04 -1.66431E+04 -6.16129E+03 -2.31841E+04  2.94834E+03 -1.72604E+04  1.21379E+04 -2.10501E+04
  1.80955E+04 -1.02857E+04  2.90082E+04  5.22270E+03  2.57633E+04  1.97066E+04  3.98608E+03  3.12208E+04
 -2.02235E+04  2.42493E+04 -2.67794E+04  1.27881E+04 -1.99640E+04 -1.03720E+04 -3.54785E+03 -1.40485E+04
 -4.90840E+02 -2.34143E+03 -3.52093E+03  4.15526E+03 -1.68923E+04  2.45147E+03 -1.10696E+04 -6.78118E+03
 -4.37161E+03 -1.75390E+04  4.52741E+03 -1.85370E+04  1.39189E+04 -1.58311E+04  1.67885E+04 -4.96379E+03
  1.14215E+04  1.08514E+04 -4.52836E+03  1.80614E+04 -1.24811E+04  1.07579E+04 -1.91445E+04 -8.85721E+02
 -1.53068E+04 -1.70199E+04  7.69220E+02 -1.79774E+04  1.20415E+04 -1.63028E+04  1.74257E+04 -9.36746E+03
  1.59466E+04  8.68096E+02  1.03240E+04  1.21447E+03  8.01677E+03 -3.57269E+01  1.00213E+04 -2.48169E+03
  1.44202E+04  1.22599E+03  1.67235E+04  1.60885E+04  1.31535E+04  3.07573E+04 -5.43260E+03  3.20139E+04
 -2.15803E+04  2.25097E+04 -2.40023E+04  1.32592E+04 -2.83657E+04 -2.82913E+03 -2.52674E+04 -1.97480E+04
 -1.47284E+04 -2.64606E+04  4.90703E+03 -1.99689E+04  1.85237E+04 -1.02625E+04  1.65728E+04  8.55277E+03
  5.18431E+03  1.38775E+04 -8.91741E+03  1.15815E+04 -1.80646E+04  7.79548E+02 -1.38274E+04 -9.91295E+03
  3.45009E+03 -2.00226E+04  7.04537E+03 -1.08054E+04  6.36163E+03  1.59937E+03  5.42840E+03  8.53118E+03
 -6.30291E+03  1.12413E+03 -7.67356E+03 -4.30586E+03  3.55490E+03 -1.73715E+04  9.45569E+03 -1.42872E+04
  1.62356E+04 -4.37795E+03  1.56652E+04  5.51746E+03  1.50884E+04  1.68391E+04  3.43694E+03  1.84814E+04
 -2.69311E+03  1.94468E+04 -1.15341E+04  9.84509E+03 -1.54761E+04  3.00441E+03 -8.58177E+03 -1.36912E+03
 -4.58414E+03 -2.51730E+03 -1.16830E+03  2.03474E+03  3.04300E+02  6.17817E+03 -5.72997E+03  2.87550E+03
 -8.88659E+03 -2.36263E+03 -9.32430E+03 -1.17208E+04 -3.59425E+03 -1.47109E+04  3.75964E+03 -1.28566E+04
  7.05444E+03 -7.55268E+03  6.80323E+03  4.54112E+03 -1.32764E+03  3.54597E+03 -5.09054E+03  4.27271E+02
 -6.91122E+03 -9.07988E+03 -3.27154E+03 -1.16581E+04  5.43468E+03 -1.03988E+04  1.25940E+04 -2.16236E+03
  1.37295E+04 -9.25523E+00  1.08862E+04  2.64314E+03  3.42250E+03  5.60388E+03 -6.73802E+03  1.09257E+04
 -7.81089E+03  1.20297E+03 -6.49120E+03 -1.71298E+03  3.52708E+03 -5.45501E+02  6.09475E+03 -7.82849E+02
  4.74311E+03  9.25993E+02  1.77576E+03  9.00666E+03 -6.09237E+03  5.93550E+03 -5.79767E+03  1.45161E+03
 -3.82183E+03  2.51092E+03  1.69381E+03 -5.02223E+03  4.08229E+03 -6.22087E+03  9.24691E+03 -2.75115E+02
  5.18653E+03 -1.05526E+03 -1.58153E+03  2.77149E+03 -4.41348E+03 -1.50617E+03 -8.45500E+03 -1.16083E+03
 -1.99548E+03 -1.04035E+04  4.48789E+03 -1.18487E+04  8.90333E+03 -8.51320E+03  1.09553E+04 -2.49720E+03
  3.02722E+03  3.07915E+03  2.12265E+03  1.17034E+04 -7.36851E+03  6.01749E+03 -2.52219E+03  3.12357E+02
 -7.33118E+03 -7.78879E+03 -3.14693E+03 -8.33200E+03  3.91342E+03 -3.91302E+03  4.57299E+03  5.89960E+02
  1.35189E+03 -1.12693E+02 -1.17749E+03 -2.17707E+03 -2.04255E+03  4.42209E+02  1.78216E+03 -4.92179E+03
  4.61511E+03 -2.11926E+03  9.36220E+03 -3.69902E+02  9.28887E+03  1.19272E+03  7.15834E+03  1.14716E+04
 -2.79097E+03  9.89224E+03 -1.32736E+04  7.23415E+03 -1.52633E+04  1.46462E+03 -7.89380E+03 -3.79446E+03
 -8.53165E+03 -1.08514E+04 -1.94737E+03 -7.58176E+03  5.65915E+03 -5.72761E+03  3.29931E+03 -3.44886E+03
 -1.60421E+03 -2.25850E+03  7.15704E+03 -1.46220E+03  5.61699E+03 -2.86816E+03  2.78502E+03 -1.50631E+03
  6.95223E+03  4.29605E+03  5.26817E+02  1.39578E+02 -2.85656E+03  9.83985E+03 -6.47396E+03  7.78316E+03
 -3.80136E+03 -2.66641E+03 -1.49164E+03 -9.73918E+02 -7.92542E+02 -7.90629E+03  6.66034E+03 -8.02163E+03
  1.20062E+04 -2.41169E+03  4.01304E+03  4.18822E+03  9.12276E+03  7.72772E+03  8.45231E+02  7.52673E+03
 -3.90408E+02  8.38125E+03 -8.18993E+03  1.02263E+03 -1.66725E+03  2.40946E+03  5.44188E+02 -4.54694E+03
  6.27073E+02  1.75126E+03 -4.27927E+03 -2.56764E+01 -4.84193E+03  3.69273E+03 -7.42399E+02  1.96507E+03
 -4.99519E+03 -6.32536E+03  3.01525E+03 -6.50497E+03  3.55803E+03 -6.11353E+03  4.33419E+03  7.68860E+02
  2.26442E+03  8.44960E+03  5.05681E+03  6.18732E+03  2.83488E+02  5.60062E+03 -8.85123E+03  3.69667E+03
 -8.91772E+03  2.48417E+03 -4.01795E+03 -4.12959E+03 -1.26610E+03 -3.91084E+03  3.49561E+03 -8.69220E+03
  2.88054E+03 -6.63486E+02  3.98330E+03  4.52213E+03  2.64767E+03  2.58584E+03 -6.54945E+02 -1.46995E+03
  1.15368E+03 -1.00162E+03  4.03832E+03 -7.46719E+02  8.08721E+02  2.96341E+03  3.07788E+03  5.63028E+03
 -7.29811E+03  4.76200E+03 -2.83397E+03  6.53701E+03 -7.04394E+03  3.39679E+03 -9.07044E+03 -1.84043E+02
 -2.86639E+03 -8.28009E+03  3.38826E+03 -3.94853E+03  6.63302E+03 -4.56283E+03  4.67557E+01 -3.84565E+03
 -5.67349E+02  5.04546E+03  3.44649E+03  5.46856E+03  6.01077E+02  4.52890E+03 -2.67261E+03  1.01295E+03
  1.37216E+03 -2.90485E+03  2.64598E+03 -3.21415E+03  3.40664E+03 -1.30287E+03  2.96392E+03 -7.24005E+02
 -2.18511E+03 -2.41913E+03  1.19819E+03 -1.91202E+03 -1.12072E+03  3.69698E+03  5.88248E+02 -2.42327E+03
 -4.86363E+02  5.33276E+03  3.86421E+03 -2.67010E+03 -2.93953E+03  2.78838E+03 -8.45282E+02  6.06945E+03
 -3.31671E+03 -9.39352E+02 -4.11957E+02  4.19921E+03 -1.52123E+03 -1.85511E+03  3.74623E+02  1.72774E+03
 -1.49904E+03  1.51364E+03  2.11608E+03 -3.45943E+03  6.65990E+03 -8.92843E+01  3.23800E+03  6.35836E+03
 -1.77870E+03  4.69293E+03  1.26644E+03 -3.11698E+03 -5.04167E+02 -1.73662E+03  1.21654E+03 -5.16385E+03
  9.43509E+02 -3.15333E+03  3.91599E+03 -7.43223E+02  4.34352E+03  4.65984E+03  1.42203E+03  2.99741E+03
 -6.59448E+03  4.27573E+03 -2.51595E+03  4.15593E+03  5.58318E+03 -3.20194E+03  1.09072E+03  1.03617E+02
  2.11414E+02 -7.83169E+02  3.30605E+03 -3.76326E+03  6.75454E+02  8.52069E+02 -3.24780E+03  2.65322E+02
  1.24093E+03 -1.49021E+03  2.15135E+03  1.49483E+01 -4.69892E+03  2.28246E+03 -2.77468E+03 -2.69503E+03
  3.21915E+03  2.84111E+03  5.50453E+03 -6.94921E+02 -8.07882E+02 -9.26293E+02  1.24565E+03  6.11459E+03
  1.20996E+03  1.55446E+03 -3.57751E+03  2.90881E+03 -5.19952E+02  3.23022E+01 -4.29189E+03  1.34006E+03
  4.94658E+02  8.33559E+03 -3.00167E+03  4.69874E+03 -1.57949E+02 -1.64041E+03 -6.30450E+03  2.30565E+03
  9.08810E+01 -8.52340E+03 -8.14483E+02 -7.65868E+03  2.91370E+03 -3.14034E+03  1.47389E+03 -1.65875E+03
  5.23774E+03 -2.25315E+03  5.31965E+03  3.56997E+03  7.75187E+02  6.69384E+03 -3.12065E+01  7.00119E+03
 -4.39060E+03  4.29348E+03 -3.65612E+03 -2.25481E+03 -1.38014E+03 -4.12721E+03  3.88551E+01 -8.93283E+01
  1.81972E+03  1.45146E+03 -1.86502E+03 -4.03940E+03 -2.25068E+03 -1.39717E+02  1.03789E+03 -1.74410E+02
  7.03516E+03  2.02370E+02 -8.34040E+02 -3.99424E+02  2.70095E+03 -1.87282E+03 -2.08810E+03 -2.13959E+02
 -1.14947E+03  3.94390E+03 -1.03702E+03  6.20366E+02  1.43498E+03  1.90298E+03 -2.23420E+03 -3.23374E+03
 -2.51458E+03 -8.70589E+03  5.14553E+03 -1.27693E+03  1.85678E+03 -4.14542E+02  9.34859E+02  1.19814E+03
 -1.44954E+03  3.02378E+03  2.91001E+03  3.89519E+03 -2.96440E+01 -3.33910E+03 -7.72119E+02  1.67470E+03
 -2.28807E+03 -2.39476E+03  5.19792E+02 -3.27405E+03  4.11329E+03  1.19898E+03  8.97195E+02  9.18998E+01
  1.56541E+03 -3.55152E+02 -2.75430E+03  2.89179E+03  2.04233E+03 -2.15814E+03 -1.49471E+03 -6.47172E+03
 -2.63596E+03 -3.39602E+03  1.10732E+03  2.96141E+03  1.45081E+03 -5.05269E+03 -3.97616E+03 -1.58029E+03
  1.74319E+03  1.79191E+03 -9.86529E+02  3.05478E+03 -2.33705E+02  1.66021E+03  4.05252E+03 -1.03380E+03
 -1.44375E+03  9.10276E+02  1.54767E+03  3.49692E+03 -1.37789E+03  8.12564E+02 -3.29502E+03  2.87796E+03
 -2.67613E+03  1.27498E+01 -1.77345E+02  1.48109E+03 -4.53514E+01  1.04395E+03  1.20034E+03 -3.74081E+03
  3.07710E+03 -1.65241E+03 -1.35753E+03  1.09803E+03  1.71318E+03 -2.42544E+03 -5.66600E+03  2.40654E+03
