 $NMID ID='MM_0lb_SNR50_20hz_g55_74.RAW', FMTDAT='(8E13.5)'
 TRAMP=1., VOLUME=1. $END
  3.08687E+05  2.17515E+03  3.37791E+05  2.52298E+05  7.78712E+04  3.39670E+05 -1.34738E+05  2.50376E+05
 -1.90333E+05  7.98059E+04 -1.14329E+05 -3.42395E+04  2.76865E+03 -5.14644E+04  5.62628E+04 -2.99475E+03
  3.29171E+04  5.39914E+04 -1.53394E+04  7.99394E+04 -6.36076E+04  6.41663E+04 -8.44708E+04  2.90979E+04
 -8.02349E+04 -8.08621E+03 -6.03550E+04 -5.37351E+04 -1.81072E+04 -7.00785E+04  3.06984E+04 -4.67920E+04
  3.86065E+04  1.81803E+03  1.70239E+04  4.92520E+04 -3.41090E+04  4.84398E+04 -6.63508E+04 -3.39473E+03
 -5.33971E+04 -5.56598E+04 -6.12975E+03 -7.16579E+04  3.54156E+04 -5.40783E+04  4.41841E+04 -1.23434E+04
  4.26499E+04  1.13915E+04  3.35400E+04  2.19845E+04  1.61727E+04  2.66416E+04 -4.27590E+03  2.75688E+04
 -2.05648E+04  1.43330E+04 -1.83076E+04 -5.75483E+02  4.37150E+03 -1.01338E+04  2.23494E+04  1.02073E+04
  3.35590E+03  3.35849E+04 -2.76784E+04  3.18882E+04 -6.40040E+04  2.90456E+03 -5.32200E+04 -4.33731E+04
 -1.45003E+04 -6.05173E+04  4.05114E+04 -4.57566E+04  5.41067E+04 -4.53851E+03  3.28125E+04  3.04747E+04
 -4.78151E+03  3.50133E+04 -2.91572E+04  1.42136E+04 -2.91590E+04 -4.82150E+03 -1.16289E+04 -1.13268E+04
 -5.78550E+03 -1.15062E+04 -1.66026E+03 -1.39365E+04  3.87846E+03 -2.16880E+04  1.68151E+04 -1.40922E+04
  9.91920E+03  2.52266E+03 -8.14740E+03  1.22177E+04 -1.81947E+04 -3.17628E+03 -8.25753E+03 -3.09738E+04
  2.19693E+04 -4.19582E+04  4.65973E+04 -1.54103E+04  4.11471E+04  1.84036E+04  1.24215E+04  4.29996E+04
 -1.22290E+04  3.03178E+04 -2.24081E+04  9.52501E+02 -6.43456E+03 -2.95215E+04  1.82077E+04 -2.77965E+04
  3.60687E+04 -4.36694E+03  3.36489E+04  2.25227E+04  1.68562E+04  4.23659E+04 -1.18052E+04  4.49114E+04
 -2.29009E+04  3.31654E+04 -3.71658E+04  4.85342E+03 -4.04549E+04 -1.43685E+04 -2.37603E+04 -3.44754E+04
  4.22484E+03 -3.46068E+04  3.33653E+04 -1.54750E+04  2.35914E+04  1.02106E+04  6.90713E+03  2.04708E+04
 -1.36091E+04  5.15851E+03 -9.25781E+03 -7.20494E+03  5.26506E+03 -7.71677E+03  1.71120E+04  6.33540E+03
  1.29414E+04  1.58459E+04 -3.87989E+03  2.27912E+04 -2.33884E+04  8.42670E+03 -2.62359E+04 -2.94982E+03
 -1.77489E+04 -1.64129E+04 -5.56194E+03 -1.49815E+04  5.56209E+03 -1.70343E+04  1.00846E+04 -1.16360E+04
  2.17310E+04 -1.43298E+04  2.64312E+04  1.47955E+03  2.00545E+04  1.62432E+04  4.82601E+03  3.12733E+04
 -1.26976E+04  2.76623E+04 -2.99952E+04  1.01090E+04 -1.74430E+04 -9.31458E+03 -6.06947E+03 -1.39956E+04
  3.89089E+03 -3.88497E+03  1.54697E+03  5.34080E+03 -1.60662E+04  3.48463E+03 -1.12708E+04 -4.15276E+03
 -1.08688E+04 -1.54780E+04  7.33590E+03 -1.92898E+04  1.12136E+04 -1.48776E+04  1.17007E+04 -1.23200E+03
  6.48430E+03  1.19166E+04  3.04460E+03  1.97132E+04 -1.21374E+04  8.21783E+03 -1.16786E+04 -3.01363E+03
 -1.21643E+04 -1.05737E+04 -2.78531E+02 -2.00653E+04  8.28849E+03 -1.54160E+04  1.67464E+04 -1.49051E+04
  1.29272E+04 -9.05025E+00  7.26546E+03  4.12263E+03  9.46778E+03 -2.53240E+03  7.62340E+03 -2.43591E+03
  1.13712E+04  4.93975E+03  1.44551E+04  1.13886E+04  7.41749E+03  2.74851E+04 -9.61594E+02  2.50920E+04
 -1.60789E+04  2.14031E+04 -2.23717E+04  9.44997E+03 -2.04085E+04 -3.95677E+03 -1.98775E+04 -1.36040E+04
 -9.97256E+03 -1.91549E+04  7.48844E+03 -1.65813E+04  1.76171E+04 -1.19443E+04  1.42005E+04  2.66301E+03
  3.65414E+03  1.21287E+04 -7.36764E+03  8.71040E+03 -1.07899E+04 -1.05592E+03 -1.02104E+04 -1.17248E+04
 -2.64496E+03 -1.31853E+04  5.32893E+03 -1.18521E+04  7.48256E+03 -6.37598E+02  2.26926E+02  3.30931E+03
 -1.83246E+03  8.28303E+02 -4.39501E+03 -6.74822E+03  5.96181E+03 -8.30045E+03  1.26402E+03 -1.02570E+04
  1.13406E+04 -1.08074E+04  7.78028E+03  7.55159E+02  5.54997E+03  8.95869E+03  3.16318E+03  1.61259E+04
 -3.35125E+03  1.64809E+04 -1.11499E+04  1.06178E+04 -1.33071E+04 -7.71460E+01 -5.59662E+03 -1.33245E+03
 -2.79176E+03 -4.67447E+03 -2.42750E+01  4.31297E+03 -1.60862E+03  1.19334E+03 -5.68794E+03  5.87881E+03
 -7.38481E+03  2.26195E+03 -9.34224E+03 -6.22698E+03 -3.47701E+03 -9.60191E+03  2.70545E+03 -9.54370E+03
  5.42425E+03 -2.66521E+03  5.01279E+03  1.12542E+03  4.17642E+03  2.62865E+03 -5.99473E+03  3.04507E+03
 -2.34746E+03 -8.64900E+03  1.19569E+03 -5.31792E+03  5.13330E+03 -8.79541E+03  8.64700E+03 -3.49011E+03
  1.27708E+04 -5.66247E+02  8.52467E+03  7.63355E+03  6.26800E+03  9.84960E+03 -5.01288E+03  8.92107E+03
 -6.80096E+03  5.44256E+03 -1.59047E+03 -4.66042E+02 -9.85203E+02 -1.89893E+03  4.17501E+03 -3.59511E+03
  4.33990E+03  4.81820E+03  1.74364E+02  1.79678E+03 -5.48151E+03  7.39417E+03 -5.87508E+03  5.93232E+03
 -5.61053E+03 -2.42737E+03  8.78738E+01 -7.86052E+03  1.53045E+03 -1.82619E+03  1.17668E+03  2.44561E+03
  2.03193E+03  5.91667E+03 -8.19376E+03  1.32288E+03 -7.46295E+03  2.56822E+03 -4.40232E+03  2.62640E+03
 -4.60504E+03 -5.76785E+03  5.10492E+03 -6.58593E+03  7.75784E+03 -2.62666E+03  3.79391E+03 -3.17144E+03
  2.45177E+03  8.01071E+03  2.67232E+03  5.17959E+03 -1.97095E+03  4.43062E+03 -5.16556E+03 -1.94750E+02
 -2.80877E+03 -5.21880E+03 -3.25759E+03 -1.25211E+03  3.12750E+03 -4.34122E+03  1.98382E+03 -6.68391E+03
  4.87429E+03 -4.30432E+03 -3.16523E+03  1.73711E+03  1.39948E+03 -3.30794E+03  1.88515E+03 -1.21681E+03
  3.42330E+03 -2.66526E+03  5.24290E+03  1.45127E+03  9.38183E+02  3.10114E+03  8.92420E+03  4.49724E+03
 -2.12063E+03  4.02376E+03 -5.26150E+03  4.91867E+03 -8.45064E+03  5.15938E+02 -4.88289E+03 -4.04548E+03
 -5.60520E+03 -6.64633E+03  8.47037E+02 -3.68718E+03  2.57326E+03 -1.88346E+02  2.20142E+03 -3.03547E+03
  4.72413E+03  3.27208E+02  1.56000E+03 -7.39987E+02  4.33882E+03  1.11574E+03  6.83170E+02  4.15296E+02
  3.22565E+03  4.75171E+03  3.49480E+02  4.99229E+03  1.13020E+03 -4.82971E+02 -5.94900E+03  2.40279E+03
  9.56964E+02  2.62300E+03  1.27237E+03 -2.45264E+03 -1.37132E+03 -6.50191E+03  1.91434E+02 -5.94952E+03
  4.76717E+03 -1.90128E+03  6.70543E+03 -4.58353E+03  4.64526E+03  3.98128E+03  2.11919E+02  5.01302E+03
 -1.39605E+02  2.90261E+03 -2.35382E+03  4.29189E+02 -1.14466E+03 -1.61134E+03 -2.15013E+02  1.58117E+03
 -5.38170E+02  8.17904E+03  1.73321E+02  2.22224E+03 -4.27832E+03  1.20622E+03 -6.77301E+03  2.57221E+02
 -3.66511E+02 -7.02057E+03  1.33479E+03 -9.01559E+03  8.28253E+02 -4.42548E+03  3.59219E+03 -1.59528E+03
  2.91659E+03  6.29564E+03 -2.40792E+03  3.04957E+03  2.70381E+02  5.09376E+03 -5.00016E+03 -2.50767E+02
 -3.52289E+03  2.75660E+03 -2.10516E+03 -9.70773E+03 -3.87258E+03 -6.96231E+03  2.18248E+03 -2.33578E+03
  4.39930E+03  3.98834E+03  5.30926E+02 -1.15867E+03 -1.06034E+03 -4.24473E+02 -3.63655E+03 -8.61222E+02
  1.18307E+03  1.12158E+03 -1.44929E+03 -5.11871E+02  3.83119E+03  3.42146E+03 -2.00721E+03  2.72637E+03
 -2.06007E+03 -1.79027E+03 -3.02142E+03  3.48820E+03  2.96163E+02 -4.28752E+03 -4.31565E+03 -2.14985E+03
 -1.56750E+03 -3.79425E+03 -4.22829E+03 -5.84667E+03  8.94207E+02  1.50871E+03  4.59111E+03  2.82583E+03
 -8.14487E+02 -1.82640E+03 -2.19164E+03  2.63087E+03  1.20654E+03  1.76414E+03  8.80317E+02  2.77700E+02
 -2.52164E+03 -4.05932E+03 -1.98046E+03 -5.45713E+03  3.49593E+03 -3.99108E+03 -9.36641E+02 -8.67358E+02
  1.18185E+03 -8.46336E+02 -2.81715E+03 -1.64613E+03  2.63067E+03  8.44504E+02 -6.82405E+02 -1.55125E+03
  2.32213E+03  1.78764E+02 -5.52500E+02  2.65347E+03 -1.61786E+03 -3.23874E+02 -2.31112E+03  4.54490E+02
 -5.20735E+03 -8.33783E+02 -2.11902E+02 -1.09112E+03 -1.84272E+03 -1.87261E+02  1.24920E+02 -2.06468E+03
  8.14421E+02 -1.58536E+03  9.25699E+02 -3.94297E+02 -3.88822E+03  6.81514E+03  9.94127E+02  1.90592E+03
 -1.99886E+03 -3.58346E+02 -3.93549E+03 -5.58632E+02 -2.47852E+02 -2.21889E+03 -1.55486E+03 -4.81652E+03
  2.03377E+03  2.54344E+02  2.69629E+03 -1.43408E+03 -1.01160E+03 -2.23691E+02  3.49946E+03  4.30947E+03
  1.27656E+03 -4.59178E+03 -1.65262E+03  1.85325E+02  3.90080E+03 -3.75526E+03  1.13155E+03  2.87709E+03
  4.10809E+02 -9.40389E+02  2.07461E+03 -2.12145E+03  3.19391E+03 -2.49737E+03 -7.56065E+02  8.27552E+00
 -9.68507E+02 -9.18374E+00 -3.06073E+03 -4.42352E+03  2.35227E+03 -2.56167E+03  4.04543E+03  4.77112E+02
 -1.43375E+03 -3.42818E+02  6.18147E+02 -1.29590E+03 -6.18510E+03  4.46947E+03 -3.57259E+03  2.68177E+03
  3.40484E+02 -3.42668E+03  5.52328E+01 -3.39877E+03 -2.37006E+03  2.94811E+03 -1.11168E+03  8.71778E+02
  3.56611E+03 -1.27466E+03 -3.90047E+03  3.09191E+03 -7.25886E+02 -1.71228E+03  2.66142E+03 -1.01663E+03
 -5.80567E+03 -3.31802E+03  8.49440E+01 -3.21365E+03 -1.69160E+03 -5.22632E+03 -3.16785E+03  2.36584E+02
  4.73455E+03 -6.44110E+01  5.98370E+03 -2.50019E+03 -1.05701E+03  1.12280E+03 -1.86312E+03  6.94516E+03
 -3.31243E+03  1.97151E+03 -1.12897E+03  3.57105E+02 -3.83126E+03  3.93716E+03 -2.76050E+03 -6.26717E+02
 -1.67128E+03  1.54430E+03  1.18543E+03 -3.77954E+03  8.16691E+02 -3.35735E+03  1.78791E+03 -2.44509E+03
  2.96817E+03  3.53138E+03 -2.53097E+03  2.25400E+03  3.47976E+03  1.94680E+03 -1.47048E+03 -6.11508E+01
 -1.64110E+03  2.53632E+03  7.38845E+02  1.51855E+03 -3.99350E+03  6.81714E+02  1.80591E+03 -2.72221E+03
 -4.47390E+02  3.99090E+03 -2.31779E+02 -5.52480E+02  1.97272E+03  8.36130E+02 -3.11104E+03 -6.08277E+02
  1.23642E+03 -1.43881E+03  1.35877E+03 -8.69840E+02 -1.56337E+03  7.29375E+02 -2.58689E+02 -3.68363E+03
 -2.32988E+03  1.61778E+03 -4.72269E+01  2.45951E+03  5.13014E+03 -1.97430E+03  8.74182E+02  5.73759E+02
  1.81578E+01 -6.58922E+02 -2.01340E+03 -1.67167E+03 -3.40852E+03  2.72961E+03  3.95755E+03  2.78958E+02
  1.59013E+03  7.21524E+02  2.85901E+03 -2.35189E+03  1.09759E+03  3.45789E+03 -2.24584E+03 -1.42615E+03
 -2.17107E+03 -2.70245E+02 -1.26275E+03  2.46653E+03  4.50985E+03 -7.06179E+02  1.48380E+03 -3.35553E+03
 -3.31848E+03 -9.67591E-01 -3.91617E+03  7.82554E+02 -1.03437E+02 -4.25044E+02  1.41031E+03 -2.90992E+02
 -2.78447E+03 -3.14118E+03 -3.01372E+03 -1.98262E+03  3.28062E+03 -1.17136E+03 -1.83514E+03 -1.16067E+03
 -2.03028E+03  9.38382E+02 -3.15171E+02  2.20139E+03 -2.53694E+03  2.52769E+03 -8.68680E+02  1.26614E+03
