 $NMID ID='MM_0lb_SNR50_9hz_g45_60.RAW', FMTDAT='(8E13.5)'
 TRAMP=1., VOLUME=1. $END
  3.06499E+05 -1.33903E+03  3.38299E+05  2.46886E+05  8.54148E+04  3.33126E+05 -1.37492E+05  2.53728E+05
 -1.92858E+05  8.08826E+04 -1.14650E+05 -2.93085E+04 -5.50273E+03 -5.44120E+04  5.52363E+04  8.17692E+02
  3.25169E+04  4.64236E+04 -1.82161E+04  7.48246E+04 -6.09406E+04  6.23605E+04 -8.62908E+04  3.01252E+04
 -7.70565E+04 -1.46667E+04 -6.22643E+04 -5.09008E+04 -1.22787E+04 -6.50246E+04  2.28150E+04 -4.74476E+04
  4.14309E+04  1.06347E+03  1.35127E+04  5.03677E+04 -3.19934E+04  4.66706E+04 -6.71151E+04 -2.44072E+03
 -5.93334E+04 -5.93822E+04 -1.07292E+04 -8.36276E+04  3.20806E+04 -5.63214E+04  4.40735E+04 -1.72580E+04
  4.87842E+04  1.12020E+04  2.94900E+04  2.42105E+04  1.55176E+04  3.36724E+04 -5.87571E+03  2.49588E+04
 -2.30640E+04  1.35547E+04 -2.07976E+04 -6.66121E+03  6.77151E+03 -5.45597E+03  2.71785E+04  1.08298E+04
  8.22040E+03  3.94804E+04 -3.42483E+04  3.57594E+04 -6.31994E+04  4.60529E+03 -5.77976E+04 -4.65918E+04
 -9.11656E+03 -6.90010E+04  3.70959E+04 -4.14750E+04  6.17347E+04  4.86163E+03  3.81436E+04  3.36043E+04
 -1.10038E+04  2.96765E+04 -3.62634E+04  2.13832E+04 -3.48272E+04  1.17657E+03 -6.07688E+03 -5.69835E+03
 -1.10986E+04 -1.52851E+04 -1.73197E+03 -2.10320E+04  7.33867E+03 -2.45010E+04  1.55798E+04 -1.62979E+04
  7.37074E+03  5.74710E+03 -1.35440E+04  1.59755E+04 -2.05073E+04 -7.99546E+03 -1.10127E+04 -4.24406E+04
  2.37435E+04 -4.89307E+04  4.89215E+04 -9.02316E+03  4.93478E+04  2.28486E+04  1.49351E+04  5.49279E+04
 -2.09038E+04  3.42689E+04 -3.16825E+04  6.23122E+03 -1.15608E+04 -2.64712E+04  2.31402E+04 -3.83572E+04
  4.41400E+04 -8.86507E+03  3.78820E+04  2.76231E+04  2.04637E+04  5.72699E+04 -5.86405E+03  5.47143E+04
 -3.45365E+04  3.43159E+04 -4.99111E+04  6.41216E+03 -4.98778E+04 -1.32578E+04 -2.71586E+04 -4.29536E+04
  1.63524E+04 -3.55560E+04  3.33751E+04 -1.49380E+04  2.84216E+04  1.23296E+04  6.70456E+03  1.91589E+04
 -1.31179E+04  7.11600E+03 -1.22176E+04 -1.01106E+04  6.31294E+03 -1.13218E+04  2.11196E+04  7.09791E+03
  1.88778E+04  1.92291E+04 -4.41756E+03  2.47239E+04 -2.76018E+04  1.53782E+04 -3.18510E+04  1.72329E+03
 -2.46511E+04 -1.77592E+04 -1.63175E+04 -2.07535E+04 -2.56978E+03 -2.55836E+04  2.50374E+04 -1.72970E+04
  3.39999E+04 -1.35309E+04  4.22021E+04  2.05923E+03  2.12779E+04  2.72444E+04  1.91879E+03  3.60608E+04
 -1.65198E+04  3.53013E+04 -2.90058E+04  6.67777E+03 -2.74634E+04 -1.24735E+04 -3.19195E+03 -1.31884E+04
  2.15975E+03 -3.73443E+03 -5.61146E+03  1.15302E+04 -1.87910E+04  3.51624E+03 -1.82800E+04 -7.28020E+03
 -1.20183E+04 -2.25836E+04  5.18668E+03 -2.99452E+04  1.83319E+04 -1.52932E+04  2.09647E+04 -2.86390E+00
  1.44706E+04  1.80895E+04 -8.40874E+02  2.19359E+04 -1.86053E+04  1.51067E+04 -2.34783E+04 -8.95836E+03
 -1.37877E+04 -1.82498E+04  1.67290E+03 -3.07621E+04  1.40583E+04 -2.27671E+04  2.41394E+04 -9.87769E+03
  2.44109E+04  8.10072E+01  5.34051E+03  5.86493E+03  1.43824E+03  4.52910E+03  9.52596E+03  1.49706E+03
  2.07929E+04  2.90246E+03  2.18623E+04  2.07754E+04  1.77196E+04  3.27451E+04 -1.48382E+03  4.03499E+04
 -2.50290E+04  3.73667E+04 -4.44214E+04  1.62922E+04 -3.67885E+04 -1.43225E+03 -3.61461E+04 -2.47122E+04
 -1.54913E+04 -3.71730E+04  2.13426E+04 -3.03636E+04  2.32838E+04 -2.11023E+04  2.73504E+04  8.80306E+03
  1.09915E+04  1.94747E+04 -1.13405E+04  1.20490E+04 -1.77300E+04  5.81409E+03 -1.52838E+04 -1.09029E+04
  8.81087E+00 -2.45907E+04  1.07153E+04 -1.12040E+04  8.78221E+03 -6.69194E+02 -3.14683E+01  9.25893E+03
 -9.41643E+03  7.39485E+03 -7.07682E+03 -9.14608E+03 -4.41071E+02 -1.92768E+04  1.13092E+04 -1.84956E+04
  2.07342E+04 -1.35689E+04  2.21451E+04  3.30799E+03  2.22919E+04  2.12027E+04  1.34323E+04  2.08268E+04
 -8.87713E+03  2.57640E+04 -1.93488E+04  1.20109E+04 -2.32008E+04  1.50360E+03 -1.64555E+04 -9.75476E+03
 -7.40090E+03 -3.43726E+03  7.67798E+02  1.22449E+03  2.60671E+03  6.71059E+02 -6.22954E+03  7.57809E+03
 -1.32751E+04 -9.80406E+02 -1.38983E+04 -1.03843E+04 -1.63944E+02 -1.49621E+04  3.26342E+03 -1.39251E+04
  1.32778E+04 -8.38231E+03  1.04705E+04  3.83446E+03 -2.38688E+03  6.29165E+02 -5.05907E+03 -3.55949E+03
 -1.18256E+04 -5.52462E+03  4.00716E+03 -1.58834E+04  6.81037E+03 -1.15747E+04  2.42344E+04 -9.61625E+03
  1.62133E+04  6.37159E+02  1.58190E+04  1.19603E+04  2.99157E+03  1.69094E+04 -1.00530E+04  1.03316E+04
 -1.73023E+04  5.40175E+03  2.31901E+03 -3.05240E+03 -1.91453E+03 -5.91101E+03  7.15317E+03 -2.65727E+03
  9.61829E+03  3.68301E+03 -3.59134E+03  1.29022E+04 -7.85802E+03  1.43112E+04 -1.28788E+04  1.25246E+03
 -1.14510E+04 -5.81990E+03  1.62489E+02 -9.90389E+03  7.77400E+03 -4.13949E+03  1.04905E+04  2.30555E+03
 -2.21248E+03  1.36426E+04 -6.99166E+03  5.78931E+03 -1.22722E+04  8.60977E+03 -1.33924E+04 -1.80147E+03
 -6.30234E+03 -1.72794E+04  3.56706E+03 -1.71415E+04  2.26749E+04 -7.95459E+03  2.14925E+04 -5.19704E+02
  1.13245E+04  1.30473E+04  1.53831E+03  1.63363E+04 -1.25655E+04  4.36527E+03 -6.81816E+03 -6.42584E+02
 -1.09289E+04 -1.63004E+04 -7.50189E+01 -1.34368E+04  5.73662E+03 -1.06153E+04  6.50616E+03 -2.79207E+03
  1.55425E+03  1.18323E+03  3.91090E+03 -6.13045E+02 -2.19725E+03 -1.44162E+03  8.26396E+03 -1.09541E+04
  1.08067E+04 -9.93161E+03  1.48113E+04  7.72124E+02  1.11695E+04  9.56689E+03  9.46958E+03  2.05098E+04
 -6.54808E+03  1.96678E+04 -2.28608E+04  1.58293E+04 -2.86045E+04 -8.28058E+03 -2.46107E+04 -9.37498E+03
 -1.20350E+04 -1.92310E+04 -3.95795E+02 -7.71615E+03  2.36085E+03 -7.04994E+03 -8.33146E+02 -3.10426E+03
  5.94246E+03 -8.16299E+03  3.00451E+03  8.16789E+02  6.54253E+03  9.49496E+02  5.25509E+03 -1.53317E+03
  9.76242E+03  4.34435E+03  2.94234E+03  7.99142E+03 -2.74663E+02  1.13693E+04 -1.36170E+04  7.26897E+03
 -1.24878E+04 -4.30752E+03 -2.14333E+03 -1.17084E+04 -6.77450E+03 -1.92405E+04  1.24833E+04 -1.63526E+04
  1.85707E+04 -5.92534E+03  2.11551E+04  4.58997E+03  1.61575E+04  6.85389E+03 -4.77249E+02  1.30125E+04
 -5.52969E+03  1.17257E+04 -8.54266E+03 -7.13236E+01 -6.02558E+03  2.95638E+03 -5.92520E+03  1.11769E+02
  2.21732E+03  1.19745E+03 -2.43634E+03  3.62692E+03 -4.94985E+03 -3.92598E+03 -1.24645E+04 -4.83360E+02
 -8.59495E+03 -1.16695E+04  8.77479E+02 -2.46431E+04  4.26556E+03 -1.01639E+04  1.67522E+04 -4.01452E+03
  1.67577E+04  8.41216E+03  1.23189E+04  8.87530E+03  4.80236E+03  1.19524E+04 -1.23162E+04  8.40327E+03
 -9.93371E+03 -3.79782E+03 -9.53577E+03 -1.05727E+04 -7.16884E+03 -1.55073E+04  4.68281E+03 -9.41728E+03
  1.08965E+04 -6.37684E+03  6.66130E+03  8.69637E+01  5.30888E+03  5.24070E+03  4.09268E+03 -6.18753E+03
  3.18092E+03 -5.31016E+02  2.21166E+03 -2.96977E+02  5.27565E+03  4.64076E+03 -1.08022E+02  4.20184E+03
 -2.03073E+03  1.08911E+04 -6.69423E+03  1.30394E+04 -1.76470E+04  3.66624E+03 -1.23751E+04 -4.70324E+03
 -8.89816E+03 -1.47154E+04  7.30741E+03 -1.70313E+04  6.83152E+03 -1.19908E+04  1.10320E+04 -3.75168E+03
  5.03790E+03  8.92869E+03  7.60029E+03  1.00507E+04 -2.71649E+03  4.84186E+03  2.42452E+03 -3.94606E+02
 -5.64117E+03 -9.09937E+03  1.28156E+03 -4.85822E+03  4.32233E+03 -3.76480E+03  2.85387E+03 -1.29715E+03
  2.87589E+02  4.53520E+03  1.79374E+03  1.76855E+03 -3.42972E+03  3.15739E+03 -8.17193E+02  5.41543E+03
  4.83957E+03 -2.06393E+03  2.77394E+03  8.81861E+02  4.74473E+03  1.47991E+03 -1.11025E+03  1.23240E+04
 -3.49209E+03  8.52488E+03 -7.62377E+03  4.70298E+02 -8.20421E+03 -3.32152E+03 -6.00538E+02 -4.14489E+03
 -9.49491E+03  8.41326E+01 -1.72797E+03 -5.20437E+03  4.93536E+03  8.99346E+02 -9.89133E+02  4.97788E+01
 -4.99817E+03  5.21323E+03 -8.07445E+02 -6.67353E+03 -9.37741E+03 -4.39123E+03 -1.47829E+03 -5.91887E+02
  2.81204E+03 -5.69265E+03  6.93489E+03  2.61335E+02  9.05380E+03 -9.10170E+02 -5.04792E+03  4.72113E+03
 -1.01338E+03 -2.21612E+03 -2.61670E+03 -3.00486E+03 -2.89437E+03 -6.95618E+03  7.42119E+03 -1.07227E+04
  5.36259E+03  9.95332E+02  1.13472E+04  5.90189E+03  5.90559E+03  1.60852E+04 -2.12777E+03  1.46664E+04
 -9.69755E+03  8.25063E+03 -9.91987E+03  3.49699E+03 -5.40845E+03 -1.05311E+04 -3.71399E+03 -4.81412E+03
  3.18535E+03  1.23099E+03  3.25462E+03  2.16533E+03 -1.99939E+02  8.29874E+03 -1.27482E+03  5.65221E+03
  5.55282E+03  8.49831E+02 -5.76235E+03  2.71294E+03 -2.16751E+03  3.01622E+03 -2.03439E+03  2.19098E+02
 -5.00322E+03  1.41379E+03 -6.20044E+03 -3.95950E+03 -9.20832E+03  4.81207E+02 -1.19531E+04 -1.08236E+03
 -2.93372E+03 -1.61976E+04 -2.59541E+03 -1.85266E+04  8.32596E+03 -1.25867E+04  1.31835E+04 -6.35827E+03
  1.41011E+04  5.59039E+03  7.37281E+02  6.08914E+03  4.81531E+03  7.63065E+03 -2.21821E+03  9.67076E+03
  3.33311E+03  3.12290E+03 -3.16619E+03  4.33658E+03 -5.53693E+03  6.37383E+02 -4.40223E+03  2.76423E+03
 -1.17413E+03  2.61070E+01 -6.31043E+03  5.20411E+02  1.09576E+03  1.93392E+03 -5.82750E+03 -4.42354E+03
  1.84120E+03  4.83925E+03  6.31923E+03 -4.21031E+03  1.37446E+03  4.64293E+03  4.66889E+03  9.48654E+03
 -8.95302E+03  1.09202E+04 -1.52166E+04  9.29003E+03 -1.41082E+04  4.54385E+03 -5.29568E+03 -5.21781E+03
 -2.40673E+03 -9.62385E+03 -4.34773E+02 -9.62656E+03  6.53957E+03 -1.87938E+03  2.41632E+03  1.74586E+03
  2.53878E+03 -3.50661E+03  5.61440E+03  4.50898E+03 -5.86792E+03  2.17829E+03  2.17344E+03 -5.14114E+03
  4.20994E+03 -2.03639E+02  3.16801E+03 -6.14279E+03  7.40263E+03  3.79405E+03 -5.73813E+03  2.82454E+03
 -6.86447E+03  2.85902E+02 -5.43035E+02  3.94311E+03 -7.35078E+03 -1.01003E+04 -2.68302E+03 -1.15492E+04
  5.24732E+03 -4.09863E+03  7.29196E+03 -4.70471E+03  8.98841E+03 -2.01064E+03  5.97938E+03  4.73069E+03
  8.02457E+03  9.20595E+03 -1.87550E+03 -2.30355E+03 -1.09090E+03  4.34407E+03 -5.67679E+03  3.66913E+03
  3.24101E+03 -2.49338E+03 -1.78539E+03  1.00770E+02 -4.44582E+03  1.56933E+03 -4.21681E+03 -5.74860E+02
 -1.23770E+04 -4.09976E+03  5.58017E+02 -1.00023E+04 -6.05108E+02 -2.39119E+03  6.62566E+03 -5.23315E+03
  8.76896E+03 -6.57379E+03  7.98904E+03  7.09164E+03  1.33578E+03  8.78981E+03 -9.08787E+03  5.50626E+03
