 $NMID ID='MM_0lb_SNR50_19hz_g45_26.RAW', FMTDAT='(8E13.5)'
 TRAMP=1., VOLUME=1. $END
  3.07961E+05 -3.04381E+03  3.35601E+05  2.52717E+05  8.38381E+04  3.36720E+05 -1.31573E+05  2.49960E+05
 -1.86894E+05  8.32038E+04 -1.14641E+05 -3.28566E+04  4.21723E+03 -5.36461E+04  5.28195E+04  4.00251E+03
  3.68939E+04  5.57600E+04 -1.74901E+04  7.89868E+04 -5.72462E+04  6.24424E+04 -8.27867E+04  3.68954E+04
 -8.01328E+04 -9.17752E+03 -5.38533E+04 -4.78453E+04 -1.56576E+04 -6.80803E+04  2.56740E+04 -4.41759E+04
  3.58388E+04  3.00392E+03  1.17053E+04  4.68445E+04 -3.46361E+04  4.43111E+04 -6.52596E+04 -1.81284E+03
 -5.31994E+04 -5.24828E+04 -5.65437E+03 -7.54003E+04  2.91657E+04 -5.59691E+04  4.48207E+04 -1.84914E+04
  4.55092E+04  9.58211E+03  3.46811E+04  2.50425E+04  1.68995E+04  3.09422E+04 -4.76772E+03  2.43570E+04
 -2.18505E+04  1.44998E+04 -1.83723E+04 -1.52022E+03  5.19121E+03 -8.65656E+03  2.35863E+04  1.05819E+04
  1.20663E+04  3.58369E+04 -2.86374E+04  3.15642E+04 -6.09693E+04  4.64057E+02 -5.80919E+04 -4.19806E+04
 -1.30357E+04 -5.68850E+04  4.16709E+04 -4.41971E+04  5.93975E+04 -5.24832E+02  3.45446E+04  2.84456E+04
 -4.87220E+03  3.14123E+04 -2.96888E+04  1.21826E+04 -2.88232E+04 -3.96220E+03 -1.42364E+04 -1.04466E+04
 -4.44147E+03 -1.26660E+04 -3.48447E+02 -1.61363E+04  2.29825E+03 -2.57814E+04  1.10913E+04 -1.22141E+04
  1.15641E+04  7.76320E+03 -6.78895E+03  1.34587E+04 -2.06628E+04 -1.08681E+03 -4.60104E+03 -2.92446E+04
  1.97169E+04 -4.40647E+04  4.49721E+04 -1.74079E+04  3.84336E+04  1.90827E+04  8.80724E+03  3.91506E+04
 -1.56066E+04  3.10940E+04 -2.40235E+04  1.00283E+03 -4.49487E+03 -2.39220E+04  1.98441E+04 -2.87404E+04
  3.94639E+04 -4.08110E+03  2.79756E+04  1.94110E+04  1.27995E+04  3.97996E+04 -1.05722E+04  4.46137E+04
 -2.75732E+04  2.98044E+04 -4.13296E+04  7.42029E+03 -4.14068E+04 -1.69685E+04 -2.09614E+04 -3.55741E+04
  3.94194E+03 -3.10041E+04  2.69424E+04 -1.41298E+04  2.46584E+04  8.16074E+03  2.13905E+03  1.56440E+04
 -1.23667E+04  4.29388E+03 -9.76750E+03 -9.04634E+03  8.35151E+03 -9.73426E+03  1.83928E+04  4.52110E+03
  1.39828E+04  2.50079E+04 -4.40391E+03  2.01925E+04 -2.26011E+04  1.02365E+04 -2.17057E+04 -4.47830E+03
 -1.68128E+04 -1.03254E+04 -3.20688E+03 -1.37112E+04 -1.25585E+03 -1.31910E+04  1.07404E+04 -1.25966E+04
  2.11708E+04 -1.10720E+04  3.03986E+04  2.72482E+03  1.48951E+04  1.34425E+04  5.20102E+03  3.41823E+04
 -1.59444E+04  2.43770E+04 -2.52838E+04  7.77469E+03 -1.81470E+04 -1.03422E+04 -5.47943E+03 -1.72112E+04
 -1.57527E+03 -3.74234E+03 -3.89928E+03  2.94848E+03 -1.35351E+04  6.74387E+03 -8.91333E+03 -8.66716E+03
 -8.54339E+03 -1.48702E+04  2.79560E+03 -1.65806E+04  1.12979E+04 -1.33551E+04  1.39535E+04 -4.07503E+03
  7.79225E+03  1.13716E+04 -2.53137E+03  1.28804E+04 -1.05427E+04  5.88782E+03 -1.69347E+04  1.60214E+03
 -1.15949E+04 -8.96411E+03 -8.18901E+02 -2.10502E+04  8.47740E+03 -1.18995E+04  1.41724E+04 -9.08651E+03
  1.51984E+04  7.29529E+02  8.56565E+03  3.60372E+03  4.80208E+03  1.44223E+03  9.00163E+03 -1.55318E+03
  1.71918E+04  1.68699E+03  1.96347E+04  1.13504E+04  6.33814E+03  2.35285E+04 -1.88297E+03  2.57935E+04
 -1.81471E+04  1.81851E+04 -2.07691E+04  1.09257E+04 -2.47903E+04 -4.38770E+03 -2.34252E+04 -1.35712E+04
 -1.05660E+04 -1.98312E+04  9.26664E+03 -1.70782E+04  1.57176E+04 -1.26605E+04  1.41812E+04  4.28337E+03
  4.87880E+03  9.70025E+03 -1.02156E+04  9.45873E+03 -1.23559E+04  4.08095E+03 -5.58146E+03 -8.84644E+03
  6.52325E+02 -1.19211E+04  1.23573E+03 -9.75598E+03  5.54123E+03 -1.07756E+03 -6.95577E+02  5.57916E+03
 -3.30489E+03  4.87120E+02 -1.70091E+03 -9.20981E+03 -2.57970E+02 -9.04567E+03  5.18233E+03 -1.00843E+04
  1.14925E+04 -5.52553E+03  1.08661E+04  9.82164E+02  1.03786E+04  6.26368E+03  6.21999E+03  1.14181E+04
 -1.57369E+03  1.58406E+04 -1.01725E+04  1.17238E+04 -9.97824E+03  1.05241E+03 -9.14766E+03 -3.36378E+03
 -5.29258E+03 -5.00277E+03  9.54550E+02  2.75964E+03 -1.55933E+03  4.36476E+03 -4.41155E+03  3.72001E+03
 -5.58058E+03 -1.38102E+03 -6.97124E+03 -2.46773E+03 -4.77444E+03 -1.44476E+04  2.69521E+03 -8.21623E+03
  5.09358E+03 -1.05080E+03  5.99657E+03 -7.34751E+02  1.67805E+03  6.00834E+03 -5.39775E+03 -7.08448E+02
 -4.78673E+02 -1.03215E+04 -4.30054E+03 -4.41675E+03  5.78801E+03 -8.32196E+03  7.11889E+03 -1.70945E+03
  1.16417E+04 -2.73018E+03  1.48678E+04  7.00642E+03  1.14752E+03  8.81903E+03 -1.81211E+03  1.05634E+04
 -5.75373E+03  2.70915E+03 -3.21720E+03 -6.48430E+02  3.84449E+03  6.66532E+02  2.75359E+03 -1.69302E+03
  5.15475E+03  2.40009E+03 -2.05706E+03  5.39994E+03  1.59650E+02  8.28641E+03 -9.84520E+03  2.02336E+03
 -7.15246E+03 -4.00983E+03  2.31460E+03 -1.04565E+04  6.39834E+03 -5.31943E+03  4.88360E+03 -2.32931E+01
 -9.62775E+02  4.90269E+03 -4.97131E+03  5.88962E+03 -5.65640E+03  7.28006E+03 -4.27549E+03 -8.70156E+02
 -4.02213E+03 -3.87910E+03 -3.45239E+03 -6.35863E+03  1.84982E+03 -5.05970E+03  5.57068E+03  2.87442E+03
  1.96728E+03  1.41075E+03  2.05580E+02  8.19617E+03 -6.26235E+03  4.59483E+03 -5.53334E+03  1.94888E+03
 -3.77620E+03 -5.01261E+03 -4.73465E+03 -1.77067E+03 -1.37670E+03 -6.74830E+03  2.14129E+03 -6.54569E+02
  1.07624E+03  4.43766E+02  7.41984E+02  3.37126E+03  1.34303E+03  3.67626E+02 -5.73559E+03 -2.34190E+03
  5.33391E+03 -1.41186E+03  2.78349E+03 -1.57767E+03  3.85737E+03  2.11775E+02  2.80855E+03  5.34778E+03
 -1.83302E+03  3.46134E+03 -1.06593E+04  6.36982E+03 -7.00551E+03  9.07843E+00 -1.03116E+04 -1.88343E+03
 -6.26061E+03 -6.69645E+03  1.33862E+03 -1.59254E+03  2.11473E+03 -2.49994E+03  8.66726E+02 -2.99437E+03
  4.07548E+03 -4.79052E+03  2.60489E+03 -3.99980E+03  3.53998E+03  2.59539E+03  3.98871E+03  2.94368E+03
  3.96979E+03  4.94851E+02  1.08672E+03 -2.79130E+02 -4.75237E+03  6.31714E+02 -4.18461E+03  1.10533E+03
 -1.91996E+03  3.09740E+03 -1.08965E+03 -5.61207E+02  9.09895E+02 -7.94339E+03  4.66484E+03 -3.56489E+03
  6.90663E+03 -3.49887E+03  3.90740E+03  6.03351E+03  4.72053E+03  2.15805E+03  3.32988E+03  6.06468E+03
 -3.02688E+03  1.78956E+03 -1.01731E+03 -1.24161E+03  2.56761E+02 -2.89103E+02 -9.29185E+02 -4.04228E+03
 -3.12342E+03 -1.08365E+03 -6.47434E+03 -2.32683E+03 -2.93374E+03  7.08950E+02 -3.11754E+03 -2.55856E+03
  2.90559E+02 -5.48960E+03  3.70870E+03 -6.98668E+03 -1.59689E+03 -6.21474E+03  4.24009E+03 -3.51799E+03
  6.04387E+02 -4.66024E+02  2.22581E+03  9.15748E+02 -2.13571E+03  1.02835E+03 -2.75226E+03  3.58558E+03
 -3.70736E+03  4.73415E+03 -3.06476E+03 -2.67514E+03  2.75827E+03 -1.71925E+03  3.91158E+03  1.34281E+03
  4.73572E+03 -6.88625E+03  3.74879E+03 -1.40452E+03  2.45749E+03  2.47821E+03 -4.87774E+03 -6.02623E+03
  3.04652E+03  2.13349E+03  4.65617E+02  2.56335E+03  6.72483E+02  3.85935E+03  2.96748E+02  9.32052E+02
 -9.32579E+02  7.08879E+03 -3.04936E+03  6.19932E+03 -4.35118E+03 -8.52728E+02  4.64397E+01 -3.37748E+03
  6.37558E+01  2.75140E+02  4.87538E+02 -3.99957E+03  4.99395E+03 -2.86828E+02  3.51292E+03 -3.94090E+03
 -6.50572E+02  9.95044E+02 -6.50467E+02 -1.79206E+03 -1.64206E+03  5.97315E+03 -3.82640E+01  5.01076E+02
 -2.17024E+03  7.16154E+02 -1.10091E+02 -3.93037E+02  2.84689E+03  1.57550E+02  1.28470E+03 -4.33854E+03
 -5.04418E+03  8.61239E+02  4.97123E+02  1.46758E+03 -1.61323E+03 -6.35617E+02  3.33106E+03 -3.25942E+03
 -1.81776E+02  9.90719E+02  8.14976E+02 -2.66531E+02  6.28267E+01  2.58971E+02 -3.03256E+03  3.45454E+03
 -4.03133E+03  2.79042E+03 -4.31795E+03 -2.89339E+02 -1.95821E+03  1.23322E+03  2.26924E+03 -2.54969E+02
 -2.44816E+03 -9.14031E+02 -1.34369E+03  2.23331E+03 -4.72579E+03  1.97552E+03 -2.69565E+03  2.84181E+03
  5.74375E+02  2.21308E+02 -1.41832E+03 -6.04928E+02 -1.80875E+03 -2.27501E+03  2.42289E+03 -2.06990E+03
 -1.90374E+03  2.77388E+03  1.19298E+03 -1.13293E+03  2.77788E+02 -7.96151E+02 -3.51143E+02  3.71447E+03
  4.46263E+02 -1.95943E+03 -5.39950E+03  9.95983E+02 -7.44034E+02 -7.95309E+02  2.12285E+03  2.87697E+02
 -1.90251E+02 -3.40113E+03  9.04126E+02  9.54029E+02  5.20500E+03 -1.47915E+03 -6.78124E+02  3.80120E+03
 -2.93685E+03  1.86283E+03 -1.06441E+03 -8.12183E+02 -1.52253E+03 -6.69957E+02  2.72631E+03 -1.61704E+03
  1.40847E+03  3.74860E+03 -5.63884E+02  3.18595E+03 -5.19345E+02  9.72273E+02  1.79302E+02  2.71263E+03
  1.97188E+03 -3.81911E+03 -3.36880E+03 -6.41441E+02 -5.16489E+01  3.93521E+02 -1.29696E+03  1.78199E+03
 -2.54457E+03 -5.08282E+02 -1.56210E+03 -1.61628E+03 -1.31946E+03  1.23848E+03  5.21836E+01 -8.78624E+02
  6.43125E+02 -2.04509E+03  1.02915E+02 -4.02333E+03 -2.74877E+03  1.16411E+03  1.91314E+03 -2.01057E+03
 -3.50997E+02 -1.88150E+03 -2.25282E+02  4.67313E+03 -4.56812E+03  3.57442E+03 -2.85291E+03 -3.30768E+02
 -3.00360E+03 -9.35678E+02  2.85194E+03 -1.66324E+03 -3.07753E+03 -4.34165E+03 -4.91945E+03 -1.61690E+03
  1.71548E+03 -1.10010E+03 -6.27530E+02  1.97191E+03 -2.86701E+03 -3.08375E+02  2.59258E+02 -4.13487E+03
 -4.38392E+03 -6.16471E+02 -1.30855E+03 -1.73449E+03 -2.81068E+03  5.58863E+03  4.98122E+02  1.46759E+03
 -3.59921E+02  2.01324E+03  2.31097E+02 -9.49398E+02 -1.12196E+03 -1.67503E+03 -2.76418E+02 -6.00977E+03
  2.15919E+03 -1.10776E+03  2.83769E+03  7.01185E+02  4.97675E+03  1.59090E+03  3.23654E+03 -1.91044E+03
  1.38395E+03 -1.30641E+03  9.25245E+02  4.54575E+02 -1.27510E+03  5.48383E+02  1.96621E+03  3.38041E+03
  4.32531E+02  2.21451E+02 -2.16005E+03  1.94051E+03  1.47183E+03 -8.24299E+02 -2.87258E+03  1.33028E+03
 -7.50801E+02  2.78508E+02 -4.30109E+03 -2.82460E+03 -1.60211E+03  5.36179E+00 -2.68039E+03  1.75635E+03
  3.99157E+03 -1.28076E+03  4.84441E+02  5.50805E+03  5.26976E+02 -4.58679E+03 -2.39633E+03  2.90257E+03
  1.96872E+03  9.62144E+02 -2.96404E+03  5.79917E+02  1.08638E+03  2.67278E+03  3.02273E+03  2.02875E+02
 -1.35640E+03 -4.46003E+02 -4.86060E+03 -4.29892E+03 -1.74851E+03 -1.04870E+03 -9.70303E+02 -3.49216E+03
  6.96883E+02 -2.22192E+03  1.94153E+02  1.93185E+03 -1.37530E+03 -1.65311E+03  1.75476E+03  1.20268E+03
 -9.82997E+02 -1.01754E+03  9.61971E+02  2.61745E+03  2.26875E+03 -9.20438E+02  2.34056E+03 -2.10482E+03
