 $NMID ID='MM_0lb_SNR50_16hz_g50_32.RAW', FMTDAT='(8E13.5)'
 TRAMP=1., VOLUME=1. $END
  3.07931E+05 -1.36396E+03  3.36905E+05  2.55148E+05  8.42874E+04  3.40971E+05 -1.33101E+05  2.52368E+05
 -1.90850E+05  8.26485E+04 -1.08134E+05 -3.60531E+04  2.19270E+03 -5.29273E+04  5.48864E+04 -3.26983E+02
  3.24348E+04  5.26403E+04 -2.00988E+04  7.40403E+04 -6.24069E+04  6.30921E+04 -8.57971E+04  2.81228E+04
 -7.94519E+04 -1.95044E+04 -5.46763E+04 -5.08327E+04 -1.14159E+04 -6.04387E+04  2.57077E+04 -4.91412E+04
  4.07769E+04  7.69967E+03  1.67768E+04  4.74883E+04 -3.27804E+04  4.56403E+04 -6.75137E+04  6.79381E+02
 -5.18878E+04 -5.30847E+04 -7.38863E+03 -7.30275E+04  3.51660E+04 -5.63284E+04  4.55665E+04 -1.66439E+04
  3.69789E+04  1.08410E+04  2.95722E+04  2.57643E+04  1.82921E+04  3.18082E+04 -1.12757E+03  3.07290E+04
 -2.46787E+04  1.48670E+04 -2.24102E+04 -9.22970E+03 -1.19542E+02 -1.09288E+04  2.08263E+04  1.10603E+04
  7.29406E+03  3.48660E+04 -2.89088E+04  3.28814E+04 -5.92525E+04  1.54876E+03 -5.46790E+04 -3.92009E+04
 -7.99275E+03 -5.80581E+04  4.12334E+04 -4.65602E+04  5.73547E+04 -1.84747E+03  3.19665E+04  2.69749E+04
 -3.64616E+03  3.30545E+04 -2.98707E+04  1.50644E+04 -2.67872E+04 -1.98611E+03 -1.76031E+04 -1.07557E+04
 -6.99165E+03 -9.52538E+03 -1.38938E+03 -1.33717E+04  8.14595E+03 -2.61552E+04  1.34642E+04 -1.20273E+04
  1.23306E+04  2.05241E+02 -1.22887E+04  1.85198E+04 -1.75094E+04 -3.58866E+03 -7.84589E+03 -3.39294E+04
  2.42693E+04 -4.14645E+04  4.93742E+04 -1.75679E+04  4.19033E+04  2.37847E+04  1.62932E+04  4.40938E+04
 -1.52265E+04  3.33786E+04 -2.32319E+04  2.24664E+03 -7.41958E+03 -2.66889E+04  2.19307E+04 -3.23469E+04
  3.98156E+04 -9.53653E+03  3.61723E+04  2.22958E+04  1.80090E+04  4.24213E+04 -8.71126E+03  4.74230E+04
 -3.26090E+04  3.16123E+04 -3.57263E+04  9.45847E+03 -3.90712E+04 -1.46664E+04 -2.06647E+04 -3.33386E+04
  7.44722E+03 -3.39464E+04  3.04102E+04 -1.13818E+04  2.64164E+04  1.10556E+04  1.70350E+03  2.26501E+04
 -1.42796E+04  5.35101E+03 -1.06394E+04 -8.36129E+03  3.48120E+03 -7.21914E+03  1.64740E+04  1.15398E+03
  2.00758E+04  2.51363E+04 -3.55809E+03  2.26794E+04 -2.44978E+04  1.48505E+04 -2.88847E+04 -9.24540E+03
 -1.90928E+04 -1.67505E+04 -3.87409E+03 -1.21865E+04  5.44404E+03 -1.91853E+04  1.08237E+04 -1.67967E+04
  2.42762E+04 -8.40555E+03  3.20011E+04 -2.27032E+02  2.12060E+04  2.09039E+04  4.51263E+03  3.54965E+04
 -1.96830E+04  2.94505E+04 -2.94227E+04  9.06550E+03 -2.17923E+04 -7.63452E+03 -4.79031E+03 -1.38283E+04
  2.51186E+03 -3.01685E+03 -2.02626E+03  5.45311E+03 -1.12223E+04  5.65561E+03 -1.80246E+04 -2.98867E+03
 -8.49258E+03 -1.71132E+04  3.48703E+03 -2.14742E+04  1.65373E+04 -1.41803E+04  1.30095E+04 -2.92640E+03
  1.03811E+04  1.46389E+04  9.80009E+02  2.01039E+04 -1.39770E+04  1.33037E+04 -1.63449E+04 -4.39646E+03
 -9.69487E+03 -1.95583E+04 -2.81817E+03 -1.84288E+04  5.04031E+03 -1.82723E+04  1.76415E+04 -8.17692E+03
  1.21251E+04 -6.25334E+02  9.99870E+03  4.89915E+03  9.26830E+03 -2.33015E+03  9.10559E+03 -4.00825E+03
  1.76976E+04  3.40626E+03  1.59660E+04  1.66254E+04  8.59654E+03  2.60409E+04 -1.72925E+03  2.86958E+04
 -2.24091E+04  2.80967E+04 -2.57270E+04  1.38596E+04 -3.34296E+04  4.01263E+03 -2.41514E+04 -1.31725E+04
 -1.31397E+04 -2.39392E+04  5.92098E+03 -2.16264E+04  2.45677E+04 -9.27040E+03  1.86796E+04  7.30850E+03
  8.70659E+03  7.29912E+03 -9.14987E+03  1.39574E+04 -1.69698E+04  2.62535E+03 -1.27646E+04 -1.10222E+04
  4.14812E+02 -1.33619E+04  5.42720E+03 -1.20705E+04  8.91553E+03 -4.78952E+03  2.14735E+03  1.05893E+04
 -3.90516E+03  2.13326E+03 -1.25030E+03 -7.52657E+03 -5.65374E+03 -1.49440E+04  9.49881E+03 -1.24265E+04
  8.75130E+03 -1.12970E+04  1.12023E+04  1.96640E+03  1.44653E+04  1.13427E+04  7.53946E+03  1.90190E+04
  1.66987E+03  2.21420E+04 -1.22075E+04  1.48617E+04 -1.25694E+04  2.08697E+03 -1.23622E+04 -2.58541E+03
 -6.46726E+03 -5.49967E+03 -1.21062E+03  2.21338E+03  9.94685E+02  1.58555E+03 -4.88878E+03  5.40924E+03
 -8.56995E+03 -2.77702E+03 -8.46169E+03 -9.13412E+03 -8.98604E+03 -1.32219E+04  3.28121E+03 -1.50792E+04
  8.52638E+03 -1.57894E+03  7.41296E+03 -1.85895E+03 -1.78386E+03  4.97885E+03 -3.52010E+03 -1.35030E+03
 -3.35301E+03 -7.87392E+03  1.29048E+02 -1.05488E+04  1.81456E+03 -8.29477E+03  1.15408E+04 -5.62838E+03
  7.26067E+03  4.91974E+02  4.90784E+03  7.81748E+03  3.18128E+03  9.37542E+03 -1.64640E+03  1.04537E+04
 -7.50608E+03  2.98106E+03 -7.23243E+02 -5.97160E+02  3.63996E+03 -5.62532E+03  1.16874E+04 -2.48148E+03
  6.35577E+02  4.46273E+03  2.88777E+03  9.04175E+03 -5.39828E+03  6.27893E+03 -5.52801E+03  2.67012E+03
 -7.20539E+03 -4.25140E+03  2.61443E+03 -5.65648E+03  4.77042E+02 -7.65341E+03  7.59090E+03  1.88413E+03
 -1.61402E+02  2.00213E+03 -1.88314E+02  6.28806E+03 -9.11110E+03 -1.45160E+03 -4.31296E+03 -5.61555E+03
 -2.08422E+03 -5.83583E+03  2.55585E+03 -9.67596E+03  9.09382E+03 -8.05372E+03  6.27797E+03 -1.99452E+03
  3.65827E+03  8.73695E+03  2.03864E+03  7.19076E+03 -1.60038E+03  5.78247E+03 -6.62579E+03  3.98751E+03
 -4.18769E+03 -7.48973E+03 -8.98931E+02 -7.08443E+03 -1.98200E+02 -5.83049E+03  2.42645E+03 -4.40464E+03
  6.71706E+03 -3.90348E+03  1.00411E+03  1.70078E+03 -4.38171E+03 -1.58259E+03 -2.18582E+03 -2.74210E+03
  6.92355E+03 -6.10289E+02  8.27638E+03 -6.11399E+02  4.92650E+03  6.73314E+03  3.08641E+03  1.25510E+04
 -3.74929E+03  1.11184E+04 -1.05572E+04  9.04976E+03 -1.24825E+04  1.96525E+03 -1.01875E+04 -5.65691E+03
 -3.24933E+03 -5.70479E+03  2.34119E+03 -7.60543E+03  2.59945E+03 -3.87484E+03 -1.61803E+03 -1.82848E+03
  4.94927E+03  9.02854E+02  1.75859E+03 -4.20715E+03 -6.89549E+01 -9.40740E+01  4.38600E+03 -2.42836E+03
  4.72561E+03  4.34827E+03  1.53060E+03  2.51978E+03  1.14680E+03  5.97837E+03 -4.23396E+03  2.56788E+03
 -6.64236E+03  1.59260E+03 -4.21540E+03 -2.87980E+03 -2.34658E+01 -9.37905E+03  7.18651E+03 -7.69819E+03
  6.79292E+03 -7.03073E+02  1.18458E+04 -7.83041E+01  7.22360E+03  4.53327E+03  4.74203E+02  9.87193E+03
 -3.56806E+03  1.11708E+04 -6.26135E+03  5.87514E+03 -2.62969E+03 -2.37866E+03 -2.29106E+03 -4.88113E+03
 -7.92330E+02  2.46969E+03 -4.08924E+03  2.75732E+03 -2.89346E+03 -1.45730E+03 -2.38221E+03 -1.11266E+03
 -4.86697E+03 -6.71896E+03  4.93935E+02 -1.83305E+03  4.87185E+03 -4.68147E+03  9.15593E+03 -1.14692E+03
  4.98370E+03  5.58257E+03  3.25457E+03  3.74765E+03  1.18125E+03  6.23219E+03 -7.78783E+03  4.39675E+03
 -1.05688E+04  9.92534E+02 -8.43733E+03 -7.47523E+03  5.96010E+02 -4.35890E+03 -2.50961E+03 -9.39527E+02
 -7.19825E+02 -4.10767E+03 -6.76604E+02  7.59572E+03  5.63063E+03  5.60392E+01  2.69009E+03  3.00817E+02
  7.12176E+03 -5.33619E+03  2.38943E+03  3.24273E+03  6.93010E+02  1.07315E+03 -3.85044E+02  2.73970E+03
  2.02043E+02  3.00408E+03 -3.78203E+03  1.05144E+04 -5.52651E+03  1.12092E+03 -5.77471E+03 -3.52191E+03
 -4.79074E+03 -2.26412E+03  1.18335E+03 -4.28255E+03  6.79244E+03 -2.56231E+03  4.38468E+02  1.79035E+03
  6.72617E+03  6.73951E+03 -1.11847E+03  5.42361E+03  4.83023E+02  4.15389E+03 -1.74224E+03 -1.11920E+02
 -6.73696E+03 -2.37626E+03  2.48044E+03 -1.96054E+03  1.55137E+03 -8.15526E+03  6.70002E+03 -2.92293E+03
  5.50050E+03  1.82394E+03 -4.62595E+01 -2.74326E+03 -4.86545E+02  4.39210E+03 -2.06039E+03  1.04715E+03
 -3.02748E+02  3.65528E+02  3.12382E+03 -7.09877E+03  6.84290E+01  5.18327E+03 -9.32988E+02  9.97797E+02
 -1.51364E+03  4.38194E+03 -3.34999E+03  2.18958E+03 -4.88385E+03 -1.03355E+03  5.37313E+03 -1.24338E+03
 -2.92740E+03  3.23213E+03  3.66676E+03 -3.90621E+03 -7.28240E+03  4.69651E+03 -3.05091E+03  5.27115E+03
 -4.64889E+03  1.92286E+03 -2.51314E+03 -1.53657E+03 -5.75601E+03  1.54227E+02  1.78875E+03 -6.14231E+02
  4.96168E+03  4.59429E+03  2.48460E+03  1.51857E+03  9.62870E+02 -3.06591E+03 -3.33232E+03  3.88200E+03
 -5.18707E+02 -1.58892E+03 -1.68584E+03  2.85400E+03  4.09449E+03 -4.87466E+03  1.48333E+03  7.54988E+02
  9.44307E+02 -4.04290E+03  2.52456E+03  3.44355E+03  4.40849E+03  3.69685E+03 -8.78988E+02  1.21433E+03
 -3.39013E+03  6.34468E+02 -2.73737E+03 -2.28604E+03  4.94350E+01 -3.56269E+03  4.84281E+03  3.31311E+02
  1.01001E+03  1.36680E+03  3.38458E+03 -3.56063E+02 -5.02084E+03  2.70338E+03  1.19939E+03 -1.42415E+03
  5.09775E+03  4.96924E+02  1.60157E+02  5.69342E+03 -4.21376E+03 -2.30064E+03  5.80916E+02  1.83783E+03
  3.50387E+03 -2.03004E+03 -1.41870E+03  3.11598E+03 -6.81484E+03  1.35366E+03 -3.48351E+03 -1.90702E+03
 -3.94495E+03 -3.09788E+03 -2.59535E+03 -4.72872E+03  3.90886E+02 -4.45666E+03  7.16278E+03  1.26495E+03
  1.86417E+03 -3.10216E+02  1.48906E+03  3.94608E+03  1.56793E+03  2.63907E+03  5.65090E+02  1.88210E+03
 -2.60154E+03 -2.61018E+03 -8.53107E+02 -4.75218E+02  2.11561E+03  3.41135E+03 -8.45665E+02  2.13027E+03
 -5.25324E+03 -4.52524E+02 -4.08753E+03 -1.34504E+03  2.25270E+02 -2.08129E+03 -3.41709E+03 -3.51809E+03
  3.53985E+03 -2.22590E+03  5.10971E+03  4.01716E+03  4.39518E+03  2.93952E+03 -4.45262E+03  4.67052E+03
  1.10732E+03  5.76839E+03  1.73700E+03 -2.27574E+03 -2.42637E+03 -2.04467E+03 -1.85510E+03 -4.82639E+03
 -4.77791E+03 -4.88995E+03  1.62426E+03 -1.14383E+03  9.14414E+02 -5.18523E+03  5.54529E+02  4.24591E+03
  9.96663E+02  2.37581E+03  3.92067E+03  1.53845E+03 -2.15810E+01  4.51446E+03 -1.47270E+03  1.36210E+03
 -2.13785E+03  5.74666E+03  6.15911E+02  5.37280E+02 -3.42519E+03  2.67138E+03  2.72645E+03  7.14507E+01
 -3.74653E+03  2.97263E+03 -3.69065E+03  1.56486E+03 -3.16564E+02 -3.96203E+03 -4.64599E+03 -2.67777E+03
 -9.43928E+02 -4.46555E+03  4.79253E+03  6.53350E+01  3.08218E+03 -1.73905E+03  2.88381E+03 -3.61630E+03
  1.60571E+03 -7.04851E+02 -1.60286E+03 -2.26610E+03 -9.84284E+02 -4.00179E+02  5.82456E+03 -1.23123E+03
  2.20096E+03 -3.44609E+03  1.73544E+02 -4.26725E+03 -4.04692E+03  1.56108E+03 -5.41852E+02  6.87090E+02
 -1.76993E+03  5.59353E+02 -1.65917E+03 -1.57070E+03 -2.97515E+02 -3.92095E+03 -2.35569E+03 -2.78741E+03
  5.12080E+03  1.43451E+03 -1.48404E+03  4.11035E+03 -4.58451E+03  2.54638E+03  9.33454E+02 -7.11621E+02
