 $NMID ID='MM_0lb_SNR50_16hz_g60_28.RAW', FMTDAT='(8E13.5)'
 TRAMP=1., VOLUME=1. $END
  3.09689E+05  4.60872E+03  3.40832E+05  2.47091E+05  8.47354E+04  3.38331E+05 -1.34758E+05  2.55930E+05
 -1.86383E+05  8.24607E+04 -1.15425E+05 -3.21665E+04 -1.00877E+03 -4.95642E+04  5.32569E+04  4.93123E+03
  3.76244E+04  5.12303E+04 -1.79873E+04  7.63859E+04 -6.22478E+04  6.83741E+04 -8.61333E+04  3.38575E+04
 -7.90203E+04 -9.61653E+03 -6.20265E+04 -5.24474E+04 -1.35298E+04 -7.29548E+04  2.57407E+04 -4.52049E+04
  3.89318E+04  8.83953E+03  1.46354E+04  4.60002E+04 -3.67536E+04  4.73897E+04 -6.68407E+04  3.78302E+03
 -5.51904E+04 -5.69924E+04 -6.52600E+03 -7.85260E+04  3.39576E+04 -5.48075E+04  4.47121E+04 -1.65010E+04
  4.10255E+04  7.28691E+03  3.48252E+04  2.24927E+04  1.59829E+04  2.50004E+04  3.75564E+02  2.92506E+04
 -1.70286E+04  1.27225E+04 -1.63878E+04 -3.56315E+03  1.82283E+03 -4.66548E+03  2.36262E+04  1.01473E+04
  1.09306E+04  3.10568E+04 -3.23681E+04  3.45975E+04 -6.11382E+04 -6.16334E+02 -6.55654E+04 -4.65254E+04
 -1.15568E+04 -6.88894E+04  3.99508E+04 -4.51785E+04  5.86874E+04 -1.75998E+03  3.45591E+04  2.97875E+04
 -6.50060E+03  3.13629E+04 -3.15861E+04  1.51703E+04 -3.28423E+04 -5.05547E+03 -1.61552E+04 -1.32358E+04
 -3.41272E+03 -1.05671E+04 -1.45674E+03 -1.77405E+04  1.09269E+04 -2.65859E+04  1.70317E+04 -1.29069E+04
  1.45807E+04  7.55163E+03 -1.12447E+04  1.26594E+04 -2.27565E+04 -4.85681E+03 -1.47182E+04 -3.50979E+04
  2.51156E+04 -4.43902E+04  4.96527E+04 -2.13095E+04  4.67429E+04  2.18734E+04  1.73271E+04  4.82136E+04
 -1.69115E+04  3.45254E+04 -2.33241E+04  7.02535E+03 -1.05760E+04 -3.00970E+04  2.09271E+04 -3.14859E+04
  3.97311E+04 -9.13492E+03  3.11773E+04  2.04332E+04  2.06373E+04  4.73006E+04 -3.03355E+03  5.44124E+04
 -3.02852E+04  3.29349E+04 -3.77071E+04  9.61119E+03 -4.13048E+04 -1.55775E+04 -1.83192E+04 -4.13401E+04
  6.98886E+03 -3.39095E+04  3.16607E+04 -1.61000E+04  2.49773E+04  7.94638E+03  5.05410E+03  1.96125E+04
 -1.91359E+04  6.75628E+03 -8.91009E+03 -7.89801E+03  3.14176E+03 -6.93116E+03  1.63662E+04  1.72309E+03
  1.45669E+04  1.96934E+04 -6.53696E+03  2.70283E+04 -2.14728E+04  1.18546E+04 -2.68139E+04 -3.35825E+03
 -2.65967E+04 -1.72421E+04 -1.11419E+04 -2.04899E+04  5.32117E+03 -1.94792E+04  2.22803E+04 -2.18655E+04
  2.44358E+04 -1.51393E+04  3.48186E+04  8.61201E+02  2.13999E+04  1.99869E+04  1.71505E+03  3.75585E+04
 -1.80889E+04  3.28533E+04 -3.01808E+04  1.01186E+04 -2.19470E+04 -1.39791E+04 -7.76374E+03 -1.60921E+04
 -2.10344E+03 -1.88961E+03 -8.83377E+03  7.40128E+03 -1.41417E+04  5.48657E+03 -1.90455E+04 -8.13014E+03
 -7.47347E+03 -1.89941E+04  5.67000E+03 -2.45941E+04  8.56733E+03 -1.92232E+04  1.61286E+04 -3.89880E+03
  9.65030E+03  1.16839E+04  2.37022E+03  2.30424E+04 -1.74530E+04  9.64577E+03 -2.18550E+04 -5.01389E+03
 -1.35344E+04 -1.54939E+04 -2.44595E+02 -2.26854E+04  9.95256E+03 -2.29979E+04  2.07133E+04 -1.11611E+04
  1.40591E+04 -9.42237E+02  1.44462E+04  8.14085E+03  1.04152E+04  3.87106E+03  1.03090E+04 -5.53105E+03
  1.40548E+04  6.53858E+02  2.02090E+04  1.73127E+04  1.58978E+04  3.59799E+04 -2.91708E+03  3.25637E+04
 -2.12906E+04  3.01991E+04 -2.76072E+04  1.40541E+04 -3.32533E+04 -5.21117E+03 -2.65985E+04 -2.30425E+04
 -1.46955E+04 -2.88023E+04  1.15704E+04 -2.30230E+04  2.16205E+04 -6.68483E+03  2.33783E+04  6.01912E+03
  4.59776E+03  1.50050E+04 -3.52088E+03  1.33710E+04 -1.05721E+04 -2.27057E+03 -1.33380E+04 -1.11102E+04
 -3.12769E+02 -1.75415E+04  5.21151E+03 -1.28187E+04  9.08612E+03 -2.53459E+03  1.04838E+02  4.36406E+03
 -6.85206E+03 -1.48552E+03 -1.76328E+03 -2.72288E+03 -6.94807E+02 -1.04474E+04  8.07804E+03 -1.41858E+04
  1.81530E+04 -6.54863E+03  1.99983E+04  3.86774E+03  1.67460E+04  1.08361E+04  8.35893E+03  1.65304E+04
 -3.78488E+03  2.26836E+04 -1.19608E+04  1.23645E+04 -1.27350E+04  3.68041E+03 -1.30488E+04 -6.40272E+03
  3.71688E+02 -3.54193E+03 -7.49889E+03  6.90736E+02 -2.90005E+03  7.25116E+03 -5.52047E+03  4.72634E+03
 -1.25293E+04 -2.70686E+03 -1.45409E+04 -3.92211E+03 -9.38329E+03 -1.84047E+04  3.36082E+03 -1.11100E+04
  1.21792E+04 -1.78472E+03  7.37703E+03  4.89530E+03 -2.08296E+03  7.03122E+03 -2.08383E+03 -1.86644E+03
 -1.92848E+03 -9.74014E+03  2.04873E+01 -1.36011E+04  2.40562E+03 -1.17486E+04  1.49468E+04 -6.14890E+03
  1.30395E+04  2.78645E+03  8.11051E+03  1.17595E+04 -2.33453E+03  1.51663E+04 -3.16077E+03  1.19809E+04
 -5.22318E+03  3.05697E+03 -5.14876E+03  1.34105E+03 -3.33524E+03 -8.42655E+02  3.55017E+03 -4.60810E+03
  1.82228E+03  5.68233E+03  5.97927E+03  9.93810E+03 -8.96371E+03  8.00106E+03 -1.00039E+04 -2.78151E+03
 -6.43985E+03 -4.49629E+03 -2.07509E+03 -7.73110E+03  5.20842E+03 -4.31059E+03  6.89337E+03  7.63365E+02
  5.01669E+03  4.84938E+03 -5.52803E+03  5.16642E+03 -4.34565E+03  2.07135E+03 -1.13852E+04 -3.80856E+02
 -7.46955E+03 -9.35254E+03 -1.10063E+03 -7.20502E+03  7.31193E+03 -3.55644E+03  9.13227E+03  2.65372E+03
  5.62987E+03  4.60380E+03  9.43567E+02  6.59077E+03 -1.25644E+04  2.66136E+03 -8.14845E+03 -6.04736E+03
 -9.59337E+03 -3.75409E+03 -2.81244E+03 -7.01874E+03 -1.02524E+02 -1.04619E+04  2.26699E+03  5.57305E+01
  4.80816E+03  1.60055E+03  2.48090E+02  1.02397E+03  3.01576E+03  2.91547E+02  3.45569E+02  5.69411E+02
  3.56284E+03 -3.80920E+03  4.01031E+03 -4.88221E+03  1.12940E+04  8.89399E+03  5.14393E+03  1.02080E+04
  2.32558E+03  1.00081E+04 -8.59700E+03  9.77083E+03 -1.30611E+04  4.19242E+03 -1.04681E+04 -1.12653E+03
 -6.56147E+03 -1.54396E+04  4.36995E+03 -6.15303E+03  2.77249E+03 -4.90863E+03  4.33618E+03 -3.96476E+03
  4.43051E+03 -1.98367E+03  3.45865E+03  3.18940E+02 -3.45435E+02 -9.96331E+02  7.85196E+03 -1.35035E+03
  7.05240E+03  2.47686E+03  3.51847E+03  2.52503E+03 -7.34940E+02  6.14923E+03 -5.75779E+03  4.52138E+03
 -8.95155E+03  1.55022E+03 -2.21993E+03 -3.06720E+03  1.32609E+03 -5.15950E+03  5.03504E+03 -8.73582E+03
  6.60828E+03 -2.83035E+03  4.07626E+03 -8.90085E+01  6.39226E+03  8.10919E+03  1.31322E+03  3.30073E+03
 -3.66125E+03  2.94472E+03 -3.65948E+03 -7.20662E+02 -2.89868E+03 -4.73614E+03  1.19374E+03 -8.82980E+02
 -5.74716E+02 -2.63200E+03  2.17612E+00  2.14392E+03 -6.36888E+03  4.35808E+01 -5.15334E+03 -6.13839E+02
 -2.35886E+03 -1.23115E+03  3.03571E+03 -6.05596E+03  3.56745E+03 -9.60201E+03  7.02936E+03 -5.34794E+03
  7.87287E+02  5.78724E+03  4.57975E+03  4.57019E+03 -4.41158E+02  7.94721E+03 -2.34978E+03  4.69532E+03
 -4.32248E+03  2.05747E+03 -8.06452E+03 -5.88875E+03 -2.65450E+02 -1.11388E+03  4.03742E+03 -6.02011E+03
  4.89338E+03 -3.98270E+03 -9.26554E+02  3.65051E+03  3.58771E+02  4.21065E+02  1.07287E+03  1.06778E+04
  2.00906E+03  1.64171E+03 -3.95110E+02 -2.81461E+03  1.30768E+03  1.20597E+03  4.98320E+03  2.54006E+03
 -2.23229E+03  5.70164E+03 -5.89879E+03  7.68649E+02 -4.44683E+03  3.13400E+03 -7.28728E+03 -1.43285E+03
  1.96632E+03 -7.20298E+03  1.82334E+03 -5.95379E+03  4.10774E+03 -5.55013E+03 -5.84764E+02 -1.67382E+03
  1.60406E+03  2.21895E+03  3.34384E+03 -3.11876E+02 -7.38338E+02  1.49302E+03 -3.65846E+03 -1.92753E+03
  4.40654E+03 -1.65567E+03  1.84471E+03 -3.06650E+03  4.70627E+03 -1.51061E+03  4.00428E+03  1.95041E+03
  1.77929E+03  2.59238E+03  4.34458E+02  2.52339E+03  2.01506E+03  1.86111E+03  1.54057E+03 -5.76038E+03
  2.57237E+02  1.76394E+03  1.22339E+03 -1.78456E+02  3.75178E+02  2.58342E+03  3.89122E+03  5.78561E+03
 -3.43206E+03  2.83132E+03 -5.75251E+03 -1.22685E+03 -9.32549E+02 -2.44210E+03  3.24458E+02 -3.05308E+03
  2.31078E+03  7.28045E+02  2.93158E+03 -4.50462E+02 -2.19029E+03  1.59054E+03 -2.80356E+03  2.64961E+03
 -8.59206E+02 -3.18495E+02 -3.65991E+03 -1.24297E+03 -2.10499E+03 -6.99452E+02 -2.92752E+03 -1.35014E+03
  1.71489E+02 -3.65826E+03 -3.73578E+03  2.65007E+03  1.02388E+03  4.04097E+02  1.82146E+03 -3.61849E+02
 -3.39260E+03 -1.66133E+03 -2.59080E+03 -1.39861E+03  1.17713E+03 -1.55042E+03  5.27783E+03 -1.22850E+02
  7.45309E+02 -5.74140E+03  5.79784E+01  3.98148E+03 -2.02496E+03  9.11295E+03 -1.21401E+03 -3.81334E+02
 -7.24936E+03  1.20473E+01  3.76358E+03 -6.84304E+03 -2.66332E+02 -2.81905E+02  4.06014E+03 -3.88755E+03
  1.67900E+03 -1.23301E+03 -2.97421E+03  3.31318E+03  6.03552E+03 -5.68251E+02  1.67134E+03  2.93896E+03
  3.36293E+02 -4.43835E+02  9.78318E+02  4.23996E+03 -2.25287E+03  2.50029E+02  3.88507E+02  2.90117E+03
 -2.45852E+03 -2.76302E+03 -2.04993E+03  4.35924E+03  3.49227E+02  7.69882E+02 -1.03744E+03  1.80188E+03
 -3.53237E+03 -3.48847E+03 -5.04602E+03 -3.33202E+03  2.09927E+03 -4.23903E+03  5.97403E+03 -3.46307E+03
  1.15912E+03  2.38333E+03  3.10006E+03  2.39209E+03  1.11707E+03  2.10865E+01 -2.31402E+03  2.73949E+03
  3.38537E+03  1.14077E+03 -9.58009E+02  2.41090E+02  1.56667E+03 -2.22563E+03  3.43038E+02  2.19203E+03
 -4.84833E+02  8.68395E+02 -3.53151E+02  2.47213E+03  4.40980E+03 -4.23301E+03 -7.32769E+02 -5.63370E+02
  7.99481E+03  1.98984E+03 -1.72193E+03 -1.80522E+03  6.02900E+01  8.96361E+03 -1.33372E+03  1.05247E+03
 -2.44547E+03  7.27800E+03 -3.25625E+03  2.01954E+03 -3.93905E+03  1.80761E+03 -4.41472E+03 -5.24458E+03
  1.25368E+03 -5.14599E+03  4.15850E+03 -1.66076E+03 -8.14680E+02 -1.39589E+03  3.03475E+03  4.64436E+02
  1.25538E+03 -1.34893E+03  1.95011E+03  8.77536E+02 -4.88240E+03 -2.11068E+03 -1.94628E+03 -7.16558E+02
  3.86778E+03  2.70392E+02  2.47652E+03 -1.81980E+03  5.90700E+03 -1.26457E+02 -4.82629E+03  3.89234E+03
  7.59222E+02 -3.80226E+03 -4.73455E+03  1.24040E+03  6.46412E+02 -1.11966E+03  2.33814E+03 -6.96064E+03
  2.89171E+03  3.04934E+03  5.27848E+02 -7.97206E+02  1.45223E+03  2.55562E+03  1.74613E+03 -8.82506E+02
  3.35766E+03  1.66453E+03 -9.67049E+02  1.87663E+02  1.04762E+03  3.07438E+03  9.96944E+02  1.98118E+03
 -1.92202E+03  1.07511E+03 -2.79363E+02 -2.28605E+02 -2.06920E+03  8.30532E+02 -7.32974E+02 -3.38914E+03
 -5.50589E+03  3.58542E+02 -2.89835E+03 -5.89735E+03  3.96829E+03  1.66321E+03  1.85587E+03  2.21852E+03
  2.41623E+03  1.49397E+03  3.43209E+03 -3.16581E+02 -2.48096E+03  2.03276E+03  9.74747E+02  4.37735E+03
