 $NMID ID='MM_0lb_SNR50_14hz_g40_2.RAW', FMTDAT='(8E13.5)'
 TRAMP=1., VOLUME=1. $END
  3.09110E+05  1.22523E+03  3.37944E+05  2.46426E+05  8.08535E+04  3.37232E+05 -1.32896E+05  2.52445E+05
 -1.93669E+05  8.20158E+04 -1.12530E+05 -3.40275E+04 -8.69747E+01 -5.50671E+04  5.72546E+04 -8.15765E+02
  3.53825E+04  5.14148E+04 -1.82057E+04  7.60821E+04 -5.95292E+04  6.31453E+04 -8.17691E+04  2.98741E+04
 -8.39579E+04 -1.07292E+04 -5.13032E+04 -4.89525E+04 -1.22557E+04 -6.52351E+04  2.84900E+04 -4.45026E+04
  4.02549E+04  2.63655E+03  1.72985E+04  4.61927E+04 -3.11427E+04  4.57512E+04 -6.59431E+04 -1.98540E+03
 -5.52066E+04 -5.72301E+04 -5.36811E+03 -7.74815E+04  2.64730E+04 -5.47504E+04  4.66020E+04 -1.49477E+04
  3.97570E+04  1.20540E+04  3.07384E+04  2.15766E+04  1.34254E+04  2.69439E+04 -2.74751E+03  2.20604E+04
 -2.22871E+04  1.17290E+04 -2.16533E+04 -1.24063E+02  8.13036E+03 -2.96629E+03  2.08399E+04  1.09637E+04
  5.23056E+03  3.34932E+04 -3.45171E+04  3.33369E+04 -6.60954E+04 -6.20519E+02 -5.66191E+04 -4.55010E+04
 -1.68874E+04 -6.44043E+04  3.48872E+04 -4.20461E+04  5.97331E+04 -1.56223E+03  3.14648E+04  3.11752E+04
 -5.34876E+03  3.27711E+04 -2.93850E+04  9.78781E+03 -3.18188E+04 -5.06934E+03 -2.12936E+04 -1.10593E+04
 -1.05315E+04 -1.14947E+04  1.66988E+03 -1.51594E+04  8.85240E+03 -2.28619E+04  1.63702E+04 -1.28085E+04
  1.51877E+04  3.25616E+01 -6.07832E+03  8.94887E+03 -1.66166E+04  1.53966E+03 -1.03892E+04 -3.35239E+04
  2.23749E+04 -4.77811E+04  4.74818E+04 -2.24658E+04  4.74228E+04  1.90269E+04  1.45316E+04  4.22407E+04
 -1.72014E+04  3.85675E+04 -2.28144E+04 -1.38598E+03 -6.59139E+03 -2.76157E+04  2.20763E+04 -3.48378E+04
  3.97389E+04 -8.01097E+03  3.56836E+04  2.33958E+04  1.78764E+04  4.89926E+04 -1.15834E+04  4.68154E+04
 -3.40428E+04  2.96773E+04 -4.02963E+04  6.60570E+03 -4.65928E+04 -1.54683E+04 -2.44519E+04 -3.82986E+04
  7.28108E+03 -3.54077E+04  2.82367E+04 -1.34499E+04  3.36094E+04  9.33929E+03  2.12050E+03  2.08371E+04
 -1.15291E+04  9.53353E+03 -1.21774E+04 -6.79248E+03  1.12340E+04 -1.14165E+04  1.58657E+04  1.18368E+04
  4.95806E+03  1.85090E+04 -5.49145E+03  2.94072E+04 -1.65866E+04  1.34832E+04 -2.94257E+04 -3.72260E+03
 -2.43730E+04 -1.73816E+04 -1.29379E+04 -2.23297E+04  3.58166E+03 -1.93779E+04  1.15873E+04 -2.00682E+04
  2.20057E+04 -1.27114E+04  3.27266E+04  4.60001E+03  2.33050E+04  1.86017E+04 -1.80039E+03  3.78957E+04
 -2.07957E+04  3.02154E+04 -2.68689E+04  8.30401E+03 -2.45172E+04 -1.60917E+04 -4.70447E+03 -1.49017E+04
  5.96163E+03 -5.22187E+02 -3.33928E+03  8.19795E+03 -1.40291E+04  6.33652E+03 -1.64197E+04 -7.35423E+03
 -1.31978E+04 -2.17528E+04  4.78200E+03 -2.06548E+04  1.43560E+04 -2.06855E+04  1.77064E+04  8.14529E+02
  5.42100E+03  1.46911E+04 -9.07371E+02  2.09652E+04 -8.34868E+03  1.25539E+04 -1.38675E+04 -1.52513E+03
 -1.50273E+04 -1.83059E+04 -1.81196E+03 -2.48522E+04  9.97587E+03 -1.83072E+04  1.89276E+04 -6.36932E+03
  2.22509E+04  3.51075E+02  9.81034E+03  4.86554E+03  6.05872E+03 -1.61043E+03  1.30607E+04 -4.10863E+03
  1.55220E+04 -5.51860E+02  2.11635E+04  1.23803E+04  1.33468E+04  3.02148E+04 -1.47398E+01  3.27693E+04
 -1.80277E+04  2.37281E+04 -2.92055E+04  1.30522E+04 -3.24532E+04 -3.06312E+03 -2.90054E+04 -1.16455E+04
 -1.38025E+04 -2.64739E+04  7.58504E+03 -2.05465E+04  1.41816E+04 -1.11631E+04  1.70097E+04  7.83309E+03
  8.44678E+03  1.64895E+04 -1.10407E+04  1.01309E+04 -1.29264E+04  3.51522E+03 -1.63951E+04 -7.46128E+03
 -4.85085E+02 -1.58628E+04  1.17998E+04 -1.25649E+04  4.76205E+03 -3.03882E+03 -2.93088E+02  1.87430E+03
 -5.41916E+03  5.75771E+03 -6.37127E+03 -3.76443E+03 -3.42007E+03 -1.28915E+04  8.02274E+03 -7.68790E+03
  1.60564E+04 -5.77161E+03  1.57725E+04 -8.28663E+02  1.33936E+04  1.23211E+04  8.16654E+03  1.90825E+04
 -3.04495E+03  1.85368E+04 -1.42616E+04  1.07253E+04 -1.71195E+04  4.72433E+03 -1.02514E+04 -7.70751E+03
 -4.57627E+03 -1.35474E+03 -2.94980E+03  1.24355E+03 -1.68635E+03  1.59576E+03 -3.35467E+03  5.88099E+03
 -1.54497E+04 -1.23822E+03 -9.58451E+03 -1.16890E+04 -1.25606E+03 -1.39676E+04  2.79892E+03 -9.85883E+03
  1.33723E+04 -6.28586E+03  5.44155E+03 -1.00659E+03  2.59000E+03 -3.04683E+03  2.44033E+03  1.73545E+03
 -3.52620E+03 -8.23454E+03  2.61941E+02 -1.30492E+04  6.38671E+03 -1.15379E+04  1.27947E+04 -6.48850E+03
  1.55192E+04  6.41643E+03  7.48601E+03  4.07747E+03 -3.13378E+03  1.15625E+04 -1.22584E+04  1.06251E+04
 -7.99858E+03  5.37423E+03 -3.92867E+03 -4.37596E+03  1.41941E+03 -4.20696E+03  2.35487E+03  6.07411E+03
  6.18335E+03  6.84394E+03  5.05024E+01  9.20173E+03 -3.09776E+03  1.02903E+04 -8.23669E+03 -1.32398E+03
 -8.09352E+03 -1.81938E+03  5.46625E+03 -7.64387E+03  7.21393E+03 -1.03646E+04  7.38337E+03  4.60564E+03
  1.59034E+03  2.29795E+03 -8.57386E+03  1.53060E+03 -1.02095E+04 -6.52339E+02 -8.56457E+03 -2.04421E+03
 -5.45779E+03 -9.87962E+03  6.20909E+03 -1.17842E+04  7.08482E+03 -1.09507E+04  1.24439E+04 -3.39285E+03
  7.63675E+03  7.30935E+03 -1.05476E+03  8.37344E+03 -6.94124E+03  5.24375E+03 -6.26790E+03  3.99955E+03
 -8.57255E+03 -5.57144E+03 -6.00666E+02 -6.52262E+03  4.33723E+03 -4.07480E+03  9.03092E+03 -7.66513E+03
  5.79284E+03  1.99680E+03 -1.50188E+03  1.42746E+03  2.52464E+03 -1.18146E+03  1.78207E+03 -3.89778E+03
  6.22946E+03 -8.75937E+03  1.01510E+04  5.26739E+03  1.17017E+04  3.94047E+03  1.98497E+03  1.23075E+04
 -1.63167E+03  1.37987E+04 -1.06618E+04  1.39331E+04 -1.26645E+04  6.29762E+03 -1.38701E+04 -3.80036E+03
 -6.81685E+03 -6.90439E+03  5.31099E+02 -5.70478E+03  3.64814E+03  7.69763E+02  1.05666E+04 -5.28905E+02
  3.95879E+03 -3.88387E+03  3.51387E+03 -4.34022E+02  4.61195E+03 -2.85650E+03  1.30408E+03 -1.61321E+03
  8.47385E+03  6.24451E+02  3.69509E+03  7.63284E+03 -1.46788E+03  1.13846E+03 -6.13823E+03  8.58564E+03
 -1.02002E+04  8.70185E+02 -4.84169E+03 -7.42028E+03  2.28655E+02 -7.51598E+03  6.89564E+03 -5.93540E+03
  8.38090E+03 -2.60199E+03  1.02717E+04  4.23987E+03  6.09555E+03  6.17775E+03  2.91289E+03  8.99551E+03
  3.87072E+03  6.48382E+03 -7.12407E+03  1.78559E+03 -9.84606E+03 -2.43164E+03 -3.70008E+03 -1.42306E+03
 -3.88431E+03  1.06718E+03 -5.00428E+03 -3.23515E+03 -7.66488E+03  2.29116E+03 -6.32775E+03  1.15972E+03
 -7.05880E+03 -5.00259E+03 -1.26792E+03 -4.00902E+03  2.58748E+03 -7.57684E+03  6.66401E+03  1.65616E+03
  1.53859E+03  7.57567E+02  3.29809E+03  6.10569E+03 -5.38750E+03  6.38751E+03  3.20346E+02  5.11251E+03
 -6.56749E+03  1.50130E+03 -2.96027E+03 -9.09355E+03  2.80036E+03 -9.73628E+03  5.50309E+03 -2.20344E+03
  7.12979E+03 -3.16393E+03  3.79895E+03  3.96982E+03 -1.60657E+03  2.13567E+03  4.66006E+03  1.62863E+03
  3.80549E+02 -3.28604E+03  4.23135E+03  2.74377E+02  2.74774E+03  1.33964E+03  2.14687E+03  7.26934E+03
 -2.55738E+03  8.12438E+03 -4.66786E+03  9.79535E+03 -4.87823E+03  7.55926E+03 -8.15667E+03 -2.91899E+03
 -5.34435E+03 -5.05489E+03  1.97281E+03 -5.16855E+03  1.72347E+03 -2.20375E+03  5.59460E+03 -1.90390E+03
  2.88793E+03 -5.50411E+02 -1.53806E+03  6.06411E+02 -3.82261E+03  6.53196E+03 -5.61558E+03 -1.28402E+03
 -3.63476E+03 -5.91689E+03  4.01953E+03 -4.03961E+03  8.07019E+02 -7.89932E+02  8.78364E+02  4.31652E+03
  1.49733E+03 -6.09703E+02  2.33873E+03 -1.69456E+03 -2.87276E+02  1.29019E+03 -2.67806E+03 -7.28301E+01
  3.28170E+03 -1.84410E+03 -3.89363E+02  2.41990E+03  1.30922E+03  3.10932E+03  6.20301E+03  3.14726E+03
 -2.56860E+03  8.55938E+02  4.01062E+02 -3.51187E+03 -6.88784E+03  3.40350E+03 -2.78166E+03 -5.95017E+02
  9.05745E+02 -7.81588E+02  4.22342E+03 -2.77185E+03  5.28486E+03  3.01873E+03 -3.32240E+03  3.28768E+02
 -4.48219E+03  1.59423E+03 -5.35001E+03 -2.80742E+03  1.18127E+03 -2.51361E+03 -3.58486E+02 -6.24993E+03
 -1.14945E+03 -1.08580E+03  5.57666E+03 -2.88963E+03  3.38442E+02 -8.98342E+02  6.09554E+02 -8.30605E+02
 -1.18000E+02 -1.24210E+03 -5.95494E+02 -3.46752E+03  2.47705E+03  2.47240E+03 -2.10191E+03  2.21137E+03
  1.05804E+02 -2.30079E+03  1.12488E+03 -5.37452E+02  7.53372E+02  5.16159E+03 -4.67567E+03 -1.37792E+03
 -8.18807E+03  2.51755E+03 -4.38015E+03 -5.20369E+03  9.61121E+02 -4.37040E+02 -3.45510E+03 -1.24522E+03
  7.24771E+03 -2.78138E+03  3.82465E+03 -4.09100E+02  1.15909E+03  4.41764E+03  3.19429E+01  2.37444E+03
 -2.41929E+01 -2.82322E+03  3.26386E+03  8.36852E+02 -1.63800E+03 -1.22918E+03  4.45788E+02 -1.31786E+03
  7.16342E+02  3.17068E+03 -4.35161E+03  5.30590E+03 -3.82627E+03  1.35512E+03 -5.74880E+03  4.20240E+02
 -5.40466E+03 -3.68559E+03  3.41416E+03 -4.65016E+03  5.90032E+03 -4.50458E+03  5.53790E+03 -5.53234E+03
  9.00708E+03 -1.25030E+03  5.55843E+03  5.16358E+03 -2.15031E+03 -5.28888E+03 -1.79080E+03  2.69960E+03
 -4.61199E+03 -1.15439E+03  9.94581E+02  2.47771E+03 -2.67121E+03 -1.97284E+02 -5.82933E+01 -5.01886E+03
  2.93583E+03 -8.83756E+02 -1.12069E+03  2.85804E+03 -2.44718E+03 -4.32104E+03 -3.49227E+03 -6.45342E+02
  3.42555E+03 -5.81025E+03  6.70975E+03 -3.67437E+03  3.25778E+03 -5.82081E+02  4.12551E+03  2.25224E+03
 -1.43983E+03  4.81295E+03 -4.66719E+03  4.01933E+03 -6.63501E+03 -5.51311E+02 -4.60401E+03 -3.73399E+03
  3.43471E+03 -7.76049E+03 -4.37660E+03 -6.47655E+03  9.27735E+02 -1.55210E+03  5.41999E+03  5.29764E+03
 -9.38479E+02  2.29330E+03 -3.26176E+03 -6.44267E+02 -1.53325E+03 -1.87552E+03  4.10577E+03 -2.73149E+03
  1.34513E+03 -3.19673E+03 -2.07855E+03 -4.54061E+03  1.16282E+03  2.10779E+03  4.52148E+03  1.10519E+03
 -3.81487E+03  2.00848E+03 -2.52176E+03 -4.18526E+03 -5.30091E+03  1.68928E+02 -5.57267E+03 -3.43780E+03
  2.38481E+03  1.49061E+03  6.57939E+02 -5.11682E+02  2.04811E+03 -3.63304E+03  1.50219E+03  1.18478E+03
  3.02823E+03  5.49852E+03 -1.69044E+03  3.34134E+03 -4.34880E+03  5.83113E+02 -3.43667E+03 -1.41796E+03
 -5.83717E+03  1.15522E+03 -6.15930E+03 -3.97155E+03 -6.60381E+03  2.48971E+03 -2.87449E+03  6.57810E+02
 -2.39689E+03 -4.11853E+03 -3.61073E+03  2.90871E+03 -4.38485E+03 -1.81877E+03  3.55251E+03 -1.27668E+03
  9.27516E+02 -2.30479E+03  2.81248E+03 -4.85884E+02  1.85868E+02 -1.56967E+03 -8.20331E+02  1.89446E+03
