 $NMID ID='MM_0lb_SNR50_9hz_g40_92.RAW', FMTDAT='(8E13.5)'
 TRAMP=1., VOLUME=1. $END
  3.11128E+05  6.07499E+03  3.37282E+05  2.54013E+05  8.38352E+04  3.33971E+05 -1.35751E+05  2.56985E+05
 -1.89164E+05  8.24453E+04 -1.13057E+05 -3.17694E+04  6.84615E+03 -5.02895E+04  5.71848E+04 -3.50178E+03
  4.17439E+04  5.52582E+04 -1.20126E+04  7.47214E+04 -6.54984E+04  6.66077E+04 -8.29204E+04  3.22640E+04
 -8.07187E+04 -1.02277E+04 -5.89031E+04 -5.63119E+04 -1.52986E+04 -6.97082E+04  2.75411E+04 -4.72108E+04
  4.17285E+04  3.07632E+03  1.86464E+04  4.22682E+04 -3.54567E+04  5.24322E+04 -6.49563E+04 -3.52561E+02
 -5.76435E+04 -5.64167E+04 -6.14567E+03 -7.98899E+04  3.38989E+04 -6.08211E+04  4.29471E+04 -1.43593E+04
  4.37321E+04  1.42049E+04  2.96926E+04  2.12638E+04  1.44990E+04  3.02162E+04 -1.46104E+04  3.10849E+04
 -2.44192E+04  7.96352E+03 -1.81290E+04 -3.79466E+03  3.86784E+03 -1.23414E+04  1.78157E+04  1.36536E+04
  1.11309E+04  2.83608E+04 -3.54843E+04  3.16449E+04 -6.39347E+04  1.51096E+03 -6.17222E+04 -3.98524E+04
 -1.05999E+04 -6.51495E+04  4.54928E+04 -4.51774E+04  6.27375E+04 -4.46169E+03  4.14830E+04  3.52572E+04
 -6.93754E+03  3.48473E+04 -3.20437E+04  1.33911E+04 -3.33581E+04 -8.40016E+03 -1.92252E+04 -1.77977E+04
 -4.25792E+03 -1.43219E+04  2.80259E+03 -2.52015E+04  1.20342E+04 -2.36122E+04  1.01094E+04 -1.47634E+04
  9.39846E+03  7.28892E+03 -9.43287E+03  1.94696E+04 -2.28977E+04 -4.36318E+03 -5.17604E+03 -4.27865E+04
  2.45431E+04 -4.42006E+04  4.86746E+04 -1.95067E+04  4.87222E+04  2.21023E+04  1.44023E+04  5.57835E+04
 -1.57857E+04  3.71641E+04 -2.89744E+04  1.86637E+03 -9.74855E+03 -2.68470E+04  1.84314E+04 -3.01209E+04
  4.53603E+04 -1.16690E+04  3.64544E+04  2.01748E+04  1.69119E+04  4.81309E+04 -6.50552E+03  5.30829E+04
 -3.56377E+04  3.60828E+04 -4.22041E+04  1.40826E+04 -4.96236E+04 -1.71137E+04 -2.54689E+04 -4.17154E+04
  3.16980E+03 -4.42563E+04  3.11382E+04 -1.64070E+04  3.20613E+04  8.94773E+03 -1.68249E+03  2.39470E+04
 -9.18784E+03  7.51618E+03 -6.49797E+03 -2.61870E+03  5.38910E+03 -1.68679E+04  2.22841E+04  2.24670E+03
  1.23467E+04  2.19970E+04 -2.26657E+02  2.59793E+04 -1.57796E+04  1.29020E+04 -2.88537E+04 -1.13420E+03
 -2.76856E+04 -2.22808E+04 -9.48583E+03 -2.68598E+04 -1.92797E+03 -2.13063E+04  2.07060E+04 -2.52860E+04
  2.86664E+04 -1.83581E+04  4.43569E+04  4.90978E+03  2.64975E+04  2.28382E+04 -3.55034E+02  4.44578E+04
 -1.90613E+04  3.32447E+04 -2.97289E+04  1.21919E+04 -2.47155E+04 -1.48804E+04 -2.69129E+03 -1.34982E+04
  5.09673E+03 -2.42921E+02 -1.27639E+04  3.96572E+03 -2.46168E+04 -1.60487E+03 -2.11396E+04 -4.97948E+03
 -8.84512E+03 -2.03931E+04  2.26518E+03 -2.56827E+04  1.01653E+04 -1.84040E+04  2.42753E+04  1.21830E+03
  1.89707E+04  1.40424E+04  5.71118E+03  2.93939E+04 -1.92976E+04  1.37285E+04 -2.08326E+04  1.98199E+03
 -1.35784E+04 -1.79357E+04  4.78423E+02 -2.68942E+04  9.70715E+03 -2.56323E+04  2.21934E+04 -1.85631E+04
  2.08421E+04  4.04693E+03  1.24195E+04  4.47706E+03  7.34796E+03  1.28151E+03  1.70731E+04 -4.85255E+02
  2.04547E+04  1.15388E+04  2.28147E+04  2.62955E+04  1.61526E+04  4.24298E+04 -8.17816E+02  3.86478E+04
 -2.38385E+04  4.30993E+04 -3.83518E+04  2.49688E+04 -4.81917E+04 -1.28894E+03 -3.35692E+04 -2.95303E+04
 -1.61142E+04 -3.53086E+04  1.22488E+04 -3.88176E+04  2.33512E+04 -1.94729E+04  1.79851E+04  7.13678E+03
  8.42776E+03  2.07415E+04 -1.34116E+04  1.62086E+04 -1.57791E+04 -8.94317E+02 -1.34012E+04 -1.10671E+04
 -1.06316E+04 -1.79510E+04  8.21185E+03 -1.55242E+04  1.29695E+04  3.88190E+03  2.18140E+03  6.08275E+03
 -9.18986E+03 -2.37274E+03 -1.47207E+04 -6.65723E+02 -1.59663E+03 -1.57600E+04  1.16840E+04 -1.68772E+04
  2.60267E+04 -1.02787E+04  2.05443E+04  2.08451E+03  2.96177E+04  2.18011E+04  5.50847E+03  3.08279E+04
 -6.65154E+03  3.28797E+04 -2.19948E+04  2.04500E+04 -1.72781E+04  2.09113E+03 -1.02442E+04 -5.62268E+03
 -6.65113E+03 -5.40943E+03 -5.84812E+03 -8.23947E+02  2.79611E+03 -4.92258E+03 -6.92641E+02  1.00581E+03
 -9.80715E+03 -2.50062E+03 -7.97224E+03 -9.97695E+03 -8.89083E+03 -2.58812E+04  5.49667E+03 -2.04541E+04
  1.38906E+04 -7.13737E+02  8.04441E+03 -4.34175E+03  2.56167E+03  6.96164E+03 -6.90051E+03  5.03364E+02
 -2.60387E+03 -9.14487E+03 -1.10338E+03 -1.63653E+04  1.15160E+04 -1.33644E+04  2.31662E+04  1.53505E+03
  1.98749E+04 -2.79500E+02  1.76096E+04  1.50719E+04 -2.15863E+03  9.58356E+03 -7.74167E+03  1.36684E+04
 -1.48915E+04 -6.40708E+02 -7.14611E+03 -9.82839E+02  5.19537E+02 -2.40201E+03  6.52540E+03  2.52151E+03
  8.88921E+03  7.34685E+03  9.85020E+02  1.14360E+04 -1.02022E+04  1.32457E+04 -1.70274E+04  8.47303E+03
 -1.06817E+04 -8.81229E+03 -1.46412E+03 -1.63114E+04  5.35438E+03 -1.23543E+04  9.84808E+03  5.49433E+03
 -4.45127E+03  1.26246E+04 -7.95067E+03  6.36880E+03 -1.57634E+04 -2.08849E+03 -1.68354E+04 -2.70260E+03
 -7.53486E+03 -1.57217E+04  2.66895E+02 -1.94488E+04  1.39428E+04 -1.20893E+04  1.23331E+04  3.90072E+03
  1.06754E+04  9.35790E+03 -5.96762E+03  1.25722E+04 -1.28671E+04  8.79927E+03 -8.27632E+03  6.31769E+02
 -1.34498E+04 -1.51300E+04 -2.19272E+03 -1.66789E+04  1.45481E+03 -1.03611E+04  1.34435E+04 -4.50144E+03
  4.07994E+03  3.48157E+03  1.87627E+03  6.03199E+02  1.39547E+03 -2.18802E+03  8.19751E+03 -1.44481E+03
  1.82406E+04 -5.92680E+03  1.53766E+04  5.57591E+03  1.25114E+04  1.57303E+04  1.11810E+04  2.07225E+04
 -5.34391E+03  2.06961E+04 -2.18203E+04  1.48101E+04 -2.28957E+04  1.24485E+03 -2.07760E+04 -8.24501E+03
 -1.36334E+04 -1.49316E+04 -2.27753E+03 -1.29489E+04 -4.50474E+02 -1.11791E+04  2.28286E+02 -7.66368E+03
  2.82383E+03 -5.92222E+03 -3.82103E+03 -4.02262E+03  3.78074E+03 -3.40193E+03  1.31495E+04 -2.95633E+02
  1.62729E+04  3.57546E+03  2.53650E+03  1.54452E+04  1.48659E+03  1.86056E+04 -1.48074E+04  7.75374E+03
 -1.30683E+04 -4.98079E+02 -8.91237E+03 -9.12384E+03  1.00848E+03 -2.22846E+04  6.78040E+03 -1.58618E+04
  1.54018E+04 -8.43092E+03  1.57214E+04  1.26422E+03  1.33140E+04  1.12822E+04  5.35359E+02  1.92185E+04
 -1.03356E+04  1.06796E+04 -7.19028E+03  5.84073E+03 -7.82219E+03 -3.67169E+03 -3.02821E+03 -6.85606E+03
 -6.11306E+01  2.55236E+02 -4.62401E+03 -5.15021E+03 -1.80200E+03  9.43076E+01 -7.47369E+03  2.19947E+03
 -1.26296E+04 -1.02693E+04  1.19446E+03 -9.80139E+03  5.03442E+03 -1.02546E+04  1.73040E+04 -3.53897E+03
  1.62850E+04  4.11843E+03  5.42826E+03  1.16141E+04 -7.60947E+03  1.92038E+04 -2.13953E+04  1.37768E+04
 -8.77596E+03  1.42894E+02 -9.82392E+03 -7.57238E+03 -1.88272E+03 -8.24784E+03  3.12720E+03 -1.16887E+04
  1.20671E+04 -3.06160E+03  3.76312E+03  5.28431E+03 -2.28777E+02 -4.72848E+02  3.65137E+03  3.88301E+01
  6.70187E+02  2.05489E+03  3.14860E+03  2.40833E+03 -4.47242E+02  1.13638E+04  7.32316E+02  8.03385E+03
 -7.09444E+03  8.77158E+03 -8.27435E+03  1.12951E+04 -1.18971E+04  2.02864E+03 -2.10482E+04 -9.02386E+03
 -7.44709E+03 -1.14080E+04  4.91025E+03 -1.83808E+04  4.64278E+03 -7.02932E+03  1.15558E+04  1.70736E+03
  1.93052E+03  1.05885E+04  3.49659E+03  1.19938E+04 -4.68693E+03  5.88746E+03 -1.36190E+04 -3.84580E+03
 -3.79457E+02 -3.47264E+03  5.28161E+03 -2.07575E+03  2.51116E+03  2.31054E+03  4.70691E+03  4.28489E+02
  2.72943E+03  6.55546E+03  1.16864E+03  5.60680E+03 -4.02865E+03  3.03344E+03 -2.89037E+03  1.31624E+03
 -3.29120E+02 -3.05409E+03  4.20794E+03  2.49208E+03  4.28189E+03  1.23882E+04 -1.44896E+03  8.44700E+03
 -8.53120E+03  6.53551E+03 -9.27005E+03 -5.42149E+03 -6.18514E+03 -4.45392E+03 -2.32249E+03 -2.93246E+03
  6.28136E+02 -4.61514E+03  4.18461E+03 -5.53040E+03  3.07785E+03  1.28214E+03  2.95815E+03  7.99087E+03
 -2.83900E+02  1.00527E+03 -3.16375E+03 -3.97914E+03 -3.92209E+03 -8.75202E+03  1.90758E+03 -6.73309E+03
 -6.89678E+03 -4.61631E+03  1.89174E+03 -2.97902E+03  2.36683E+03  8.40348E+03 -2.20305E+03  1.62313E+03
 -1.12627E+03 -1.37917E+03 -3.86013E+02 -4.32154E+03 -4.71098E+02 -6.93358E+03  1.66903E+03 -9.78661E+03
  9.18655E+03 -1.95874E+03  1.03684E+04  1.40618E+03  1.47718E+03  1.20049E+04 -2.58683E+03  8.21129E+03
 -8.49039E+03  3.74025E+03 -1.31899E+04  2.94104E+03 -1.05602E+04 -4.51689E+03  5.74427E+03 -3.45961E+03
  3.30898E+03 -1.49941E+03  3.44286E+03  6.11759E+03  5.17407E+03  4.98429E+03 -2.93933E+03  1.31220E+03
 -9.56765E+03 -1.40891E+03 -2.92602E+03  3.33032E+03  9.47558E+02 -1.47590E+03 -1.23813E+03 -2.92013E+03
 -2.42653E+03  3.70081E+03 -6.74469E+03  5.07081E+03 -1.02668E+04 -6.27771E+02 -9.59388E+03 -8.86352E+03
 -1.23435E+04 -9.43869E+03  1.39835E+03 -1.66452E+04  1.03007E+04 -1.80342E+03  2.05723E+04 -9.73199E+01
  1.25238E+04 -4.90524E+02  1.73292E+03  5.41333E+03  1.60657E+03  1.22358E+04 -1.04920E+03  9.27057E+03
 -3.33815E+03 -1.04526E+03  3.51162E+03 -1.97726E+03 -2.68092E+03 -5.66434E+02 -1.86823E+03  2.27141E+03
 -3.00962E+03  3.90724E+03 -6.01550E+03 -5.79879E+03 -5.70887E+03 -7.23952E+03 -1.31399E+03  1.06622E+03
  1.63723E+03 -5.18550E+03  1.23004E+04 -2.09960E+03  9.01688E+03  2.59450E+03 -7.13425E+02  2.70709E+03
 -2.40909E+03  1.35468E+04 -9.25827E+03  7.62131E+03 -1.65812E+04 -2.71979E+03 -7.70308E+03 -7.45744E+03
  2.72887E+02 -1.25231E+04 -3.58012E+03 -1.42689E+04  4.94749E+03 -5.47783E+03  4.84546E+03 -2.26848E+03
  5.95462E+03  4.14673E+03  5.42405E+03  1.22084E+03 -3.29472E+03 -3.76761E+03 -6.94688E+02 -1.14824E+03
  2.18913E+03  2.09361E+03  4.86349E+03 -2.59101E+03  4.27157E+03  1.31219E+03  1.84247E+03  7.62847E+03
 -1.88739E+03  7.73103E+03 -1.08881E+04  2.06705E+02 -1.35410E+03 -3.82207E+03  1.06322E+02 -1.24429E+04
  5.83967E+03  2.41670E+03  7.68579E+03 -3.48301E+02  7.68805E+03  1.37009E+03  5.21171E+03  1.16217E+04
  7.01228E+03  1.66045E+03 -4.29593E+03  6.37457E+03 -7.01260E+03  3.68921E+03  1.25365E+03  2.12315E+03
  1.87954E+02  2.34013E+02 -2.18544E+03  3.30336E+03 -3.20370E+03  6.19276E+03 -3.39474E+03 -3.03587E+03
 -8.57523E+03 -4.83541E+03 -6.69124E+02 -7.84031E+03  1.17443E+02 -6.24755E+03  6.13002E+03 -5.68028E+03
  4.97518E+03  1.95634E+03 -4.10604E+03  6.16193E+03 -3.35357E+03  8.08265E+03 -9.38304E+03  5.78059E+03
