 $NMID ID='MM_0lb_SNR50_20hz_g45_96.RAW', FMTDAT='(8E13.5)'
 TRAMP=1., VOLUME=1. $END
  3.10096E+05 -1.83121E+03  3.34936E+05  2.48384E+05  8.67111E+04  3.36208E+05 -1.27893E+05  2.51621E+05
 -1.87426E+05  8.02645E+04 -1.08767E+05 -3.15924E+04  7.38270E+03 -4.93764E+04  5.25967E+04 -7.33237E+02
  3.27463E+04  5.28493E+04 -1.63371E+04  7.41713E+04 -6.39914E+04  5.87091E+04 -8.11341E+04  3.79081E+04
 -8.09642E+04 -4.92934E+03 -5.52225E+04 -5.22749E+04 -1.43925E+04 -6.42172E+04  2.55094E+04 -4.52142E+04
  3.93540E+04  5.10626E+03  1.82094E+04  4.24102E+04 -3.09911E+04  4.36901E+04 -6.85757E+04 -1.15120E+01
 -5.06174E+04 -5.91330E+04 -3.77582E+02 -7.38808E+04  3.19858E+04 -5.20842E+04  4.37200E+04 -1.47365E+04
  3.77071E+04  1.41308E+04  2.84078E+04  2.45323E+04  1.43810E+04  2.68624E+04 -2.06619E+03  2.25396E+04
 -2.33247E+04  1.34260E+04 -2.12458E+04 -5.04444E+03  6.40280E+02 -7.39666E+03  1.78846E+04  1.09655E+04
  9.64989E+03  3.41423E+04 -2.83791E+04  3.23812E+04 -6.56609E+04  2.84143E+03 -5.48244E+04 -3.90213E+04
 -1.29932E+04 -5.93900E+04  3.58568E+04 -4.21811E+04  5.73285E+04 -3.58782E+03  3.30179E+04  3.30014E+04
 -4.86923E+03  3.35460E+04 -2.81351E+04  9.93143E+03 -2.50643E+04 -3.56334E+03 -1.62417E+04 -9.22462E+03
 -7.51848E+02 -1.08956E+04 -1.18668E+03 -1.63268E+04  7.67716E+03 -2.46055E+04  1.42630E+04 -1.49698E+04
  1.16575E+04  8.18186E+03 -7.71667E+03  1.03451E+04 -1.92621E+04 -3.68719E+03 -7.64596E+03 -2.48255E+04
  2.10081E+04 -3.87756E+04  4.54705E+04 -2.00065E+04  4.21772E+04  1.81404E+04  1.51513E+04  3.93066E+04
 -1.95573E+04  3.26627E+04 -2.31379E+04 -2.59655E+03 -9.40548E+03 -2.69202E+04  2.43985E+04 -2.92491E+04
  3.78236E+04 -4.38171E+03  3.09304E+04  2.06853E+04  1.47068E+04  4.06828E+04 -4.48550E+03  4.54414E+04
 -2.68224E+04  2.88240E+04 -3.70240E+04  1.26048E+04 -3.71983E+04 -1.32163E+04 -2.19949E+04 -3.38251E+04
  4.67002E+03 -3.15779E+04  2.78947E+04 -1.54442E+04  2.35841E+04  1.14715E+04  2.20721E+03  1.55503E+04
 -1.37209E+04  9.98958E+03 -1.35328E+04 -1.03377E+04  2.80173E+03 -1.16216E+04  1.83086E+04  6.71188E+03
  1.14321E+04  1.91634E+04 -9.01752E+03  2.55535E+04 -1.94635E+04  1.76093E+03 -2.56199E+04 -7.29269E+03
 -1.33932E+04 -1.26477E+04 -6.22604E+03 -1.29529E+04  3.84087E+03 -1.22712E+04  1.55023E+04 -1.25325E+04
  2.35302E+04 -1.02214E+04  2.70782E+04  4.12709E+03  1.96517E+04  1.52748E+04  5.39011E+03  3.22255E+04
 -1.66725E+04  2.81900E+04 -2.67784E+04  9.20867E+03 -2.17868E+04 -7.98844E+03  2.68281E+01 -1.59011E+04
  3.58041E+03 -2.18057E+03  1.67018E+02  6.45208E+03 -1.36241E+04  9.45596E+03 -1.41106E+04 -5.81351E+03
 -8.76445E+03 -1.59121E+04  3.36266E+03 -1.83908E+04  1.30591E+04 -1.50078E+04  1.43935E+04 -9.33213E+02
  8.08691E+03  1.06656E+04 -1.48505E+03  9.77832E+03 -1.38574E+04  1.06414E+03 -1.56215E+04 -3.16673E+03
 -1.09119E+04 -1.17360E+04 -1.43193E+02 -1.81548E+04  5.99377E+03 -1.07841E+04  1.34373E+04 -9.04608E+03
  1.44368E+04  2.79030E+03  1.27786E+04  4.95836E+03  1.22686E+03 -3.95707E+03  2.26586E+03 -3.30037E+03
  1.23505E+04  8.48326E+02  8.69685E+03  9.04141E+03  8.41261E+03  2.12363E+04  7.23267E+02  2.39238E+04
 -1.60571E+04  1.71003E+04 -2.02035E+04  9.89510E+03 -2.45053E+04 -5.03425E+03 -1.91753E+04 -1.11093E+04
 -7.80317E+03 -2.23957E+04  6.29533E+03 -1.57237E+04  1.26866E+04 -8.00987E+03  1.19863E+04  7.12425E+03
  4.92172E+03  1.07429E+04 -3.27427E+03  1.23717E+04 -7.64572E+03  3.99680E+03 -8.75471E+03 -1.46186E+04
 -2.36184E+03 -1.47529E+04  7.23672E+03 -5.69433E+03  1.16917E+04 -2.39710E+03  2.92249E+03  4.82490E+03
 -4.56934E+03 -1.08187E+03 -6.23769E+03 -4.13477E+03  8.06792E+01 -1.30623E+04  6.00070E+03 -5.69771E+03
  1.25974E+04 -6.83176E+02  9.84638E+03  4.50710E+03  5.79253E+03  7.99719E+03  7.99704E+03  1.30753E+04
 -3.01489E+03  1.35856E+04 -8.55064E+03  7.10527E+03 -1.07168E+04  3.19997E+03 -8.89366E+03  1.37324E+03
 -9.24539E+03 -5.47372E+03 -3.83299E+03  3.34727E+03  5.92482E+02  1.97915E+03 -5.34032E+02  4.10806E+03
 -1.11342E+04 -3.59920E+03 -1.05657E+04 -2.15750E+03 -5.73077E+01 -1.20989E+04  3.12264E+03 -1.15098E+04
  4.89260E+03 -4.71454E+03  5.69001E+03 -2.90929E+02  5.53354E+03  3.06697E+03 -3.60728E+02  1.29858E+02
 -2.47358E+03 -6.38595E+03 -5.26937E+00 -9.46892E+03  3.95205E+03 -5.88976E+03  1.18206E+04 -8.82016E+02
  1.47809E+04 -2.58885E+03  1.04400E+04  8.35913E+03 -1.25751E+02  7.34528E+03 -5.80764E+03  6.15941E+03
 -3.43210E+03  4.27055E+03 -8.90390E+03 -1.72169E+03  1.16683E+03  4.33687E+00  2.57920E+03  1.13871E+03
  6.37082E+03  3.30324E+03  6.15243E+03  5.28125E+03 -5.36287E+03  8.42440E+03 -7.23279E+03  5.32294E+03
  8.25660E+02 -3.63993E+03  2.52338E+03 -7.10765E+03  5.20640E+03 -4.89730E+03  8.11980E+03 -7.90399E+02
  8.95330E+02 -1.79383E+03 -4.83323E+03  3.50513E+03 -3.30078E+03  2.44537E+03 -3.29001E+03 -1.07485E+03
 -1.54786E+03 -3.95529E+03  3.98553E+03 -2.98076E+03  1.18780E+03 -2.71158E+02  5.18284E+03  9.88441E+02
  5.04782E+03  3.22160E+03  7.77410E+03  8.28407E+03 -6.66422E+03  2.13144E+03 -4.87464E+03  2.00304E+02
 -2.91465E+03 -2.21432E+03  2.33130E+03  3.86191E+02 -3.36170E+03 -6.40214E+03  2.73868E+03 -4.26787E+03
  4.93792E+03 -1.86083E+03 -7.89428E+02  4.51684E+02  2.76786E+03  9.55526E+02  1.01925E+03 -3.45421E+03
  5.19204E+03 -2.60861E+03 -9.98347E+02  1.79975E+03  5.96132E+03  1.18776E+03  2.36561E+03  8.86554E+03
 -6.97929E+01  6.86376E+03 -4.60608E+03  5.61708E+03 -1.05569E+04 -1.65230E+03 -8.15700E+03 -3.74459E+03
 -8.94101E+03 -8.66637E+03 -5.36648E+03 -6.19952E+03  2.08690E+03 -2.53020E+03  3.31783E+03 -3.88653E+03
  1.77246E+03 -2.56273E+03  2.92373E+03  2.54709E+03  4.70710E+03  5.79901E+02  5.38906E+03 -2.56944E+03
  5.50120E+03  2.31684E+02 -2.28800E+03  4.83011E+03  2.31757E+03  1.15794E+03 -1.36024E+03 -2.22273E+03
 -2.33273E+03 -2.26295E+03  1.26278E+03 -1.60773E+03 -1.79851E+02 -3.69699E+03 -2.10466E+03 -4.66795E+03
  1.27255E+03 -3.68623E+03  3.64667E+03  2.30823E+03  2.88179E+03  4.69183E+03  3.81879E+03  1.90782E+03
 -1.48286E+03  4.85834E+03 -2.96364E+03  2.37705E+03 -1.00945E+03 -1.53446E+03  7.30121E+02 -1.35315E+03
  3.07505E+03  3.45163E+02  2.04016E+03  4.86239E+03 -3.06604E+03  2.67650E+03 -4.03396E+03 -1.33143E+03
 -1.86450E+02 -5.31430E+03  2.39069E+03 -5.08190E+02  1.75595E+03 -2.35298E+03  2.32945E+03 -5.15088E+02
 -1.17697E+03 -1.55849E+03 -1.62807E+03 -6.72759E+02 -3.69694E+02  7.09300E+01 -3.20564E+03 -8.02292E+02
 -4.15043E+03 -2.76559E+03 -1.72152E+03 -3.52028E+03  2.63679E+02 -5.32120E+02 -5.16597E+02 -1.83189E+03
 -1.52858E+03  1.25117E+03  2.55694E+03  1.33908E+03  1.31319E+03  4.97393E+03  2.15279E+03 -1.89887E+03
  2.42408E+03  2.03230E+02 -9.11369E+02  3.03606E+03 -3.42645E+03  2.19516E+03  4.96509E+02  6.25787E+02
 -2.89987E+03  1.14778E+03  9.83034E+02  2.02380E+03 -2.06699E+03 -3.10536E+03  1.76810E+03 -8.51152E+02
  2.97289E+03  4.74041E+02  3.68926E+03 -3.10261E+03  3.37962E+03 -9.73487E+02  3.04036E+03  3.69776E+03
  3.50754E+03  3.82241E+03 -2.02696E+03  3.95829E+03  1.90018E+03 -8.24121E+02 -5.46418E+03  3.82906E+03
  1.64055E+03 -8.43786E+02  2.77920E+03 -2.80819E+03  8.29530E+02  2.25845E+03  3.13977E+03  1.61030E+03
  1.07685E+03 -1.80344E+02 -2.52637E+03 -2.85319E+03  6.38847E+02  1.18945E+03  4.66537E+03 -1.86969E+03
 -8.38075E+02 -2.13319E+03  1.41195E+03  3.88858E+02 -2.59827E+03 -5.07914E+02  2.61523E+03  3.68905E+03
  1.69387E+03 -7.14357E+02 -1.42208E+03 -2.24977E+03 -6.89562E+02 -9.27865E+02 -6.97332E+02 -2.38006E+03
  2.76386E+03  1.56850E+03  3.31592E+03  1.44360E+02  2.89151E+03  5.90356E+02 -1.46596E+03  6.02833E+03
 -2.61527E+03 -2.90852E+03 -4.32718E+03  1.37842E+03 -6.02444E+02  2.05585E+03  2.64555E+03 -5.16555E+03
  9.34565E+02 -2.15270E+03 -2.21232E+03  8.80661E+02  2.18956E+03 -3.70397E+03 -1.87358E+03  1.79217E+03
  3.06320E+03 -1.62541E+03 -2.48177E+03 -6.22236E+02  4.26370E+03 -4.47192E+03 -6.47471E+02  3.50126E+00
  2.58494E+03  7.94305E+02  1.49644E+03  2.66698E+03  1.46908E+02 -1.72626E+03 -2.17553E+03  2.93361E+03
 -3.73102E+03 -1.99347E+03 -2.98885E+02  1.89031E+03 -2.30301E+03 -1.46831E+03 -4.44753E+03 -2.66972E+03
  3.62361E+03  9.31975E+02  2.44320E+03 -9.86313E+02 -1.45129E+03  3.25429E+03 -1.98065E+03  1.69002E+03
  6.84517E+02 -4.15478E+03  2.23077E+03 -1.00974E+03  2.13859E+03  9.59060E+02  1.57616E+02 -1.36639E+03
 -2.84680E+03  4.16398E+03 -1.12046E+03  2.58973E+03 -3.05023E+03  1.80120E+03 -4.96112E+03 -1.76234E+03
  3.48098E+02 -3.48981E+03  3.10336E+03 -4.25024E+03  9.81978E+02 -3.82405E+02  8.02305E+02 -8.77247E+02
  2.65729E+03  3.85430E+03 -7.19528E+02  1.90581E+03  7.63351E+02  2.12932E+03  9.26646E+01  3.25385E+03
 -1.02211E+03 -9.91801E+02 -2.97986E+02  3.81152E+03  2.10138E+02 -4.46687E+03 -4.41836E+02 -1.02803E+03
 -1.86978E+03  1.10664E+03  5.93140E+02 -3.05342E+02  2.17317E+03 -2.89383E+03 -1.53245E+03  1.76611E+03
  2.63865E+03 -1.14039E+03  1.50880E+03  5.01144E+02  5.39917E+02 -5.19952E+02 -3.10891E+03  1.12003E+03
 -1.75091E+03  3.53374E+03  1.86244E+03  2.20604E+03 -4.62914E+03 -2.11433E+03 -7.18583E+03 -6.61691E+02
  1.08578E+03 -7.16374E+02 -3.76106E+01 -1.70283E+03  2.15771E+03  1.43610E+03 -1.13619E+03 -1.73384E+03
  5.15522E+02 -1.18669E+03 -9.82308E+02  3.11187E+03  3.52132E+02  2.39581E+03  1.61607E+03 -3.97362E+03
  3.21479E+03  1.51922E+03 -8.13350E+02  1.85200E+03 -9.41981E+02 -4.87962E+03  2.67254E+03  1.63314E+03
 -1.20333E+03  2.64596E+03 -2.21532E+03 -2.71010E+03  3.00244E+03 -2.64637E+03 -2.84985E+03 -1.05759E+02
  3.18049E+01 -1.61170E+03  1.97555E+03  4.85607E+02  1.03282E+03 -1.86951E+03 -1.60225E+03  4.49175E+03
 -2.19616E+03  4.39868E+02  3.69361E+02  2.62872E+03  6.62440E+02  2.70303E+03  1.84638E+02  6.57879E+02
 -2.82520E+03 -2.49793E+03 -4.96208E+02  7.51093E+02  1.61826E+02  1.14156E+02 -1.96918E+03 -2.61038E+03
  2.07401E+03  1.61723E+03 -1.94823E+03 -7.84198E+02  4.45579E+02  1.77830E+03  5.46880E+02  1.73145E+03
 -9.79717E+02 -6.27184E+02 -5.55480E+02  1.28110E+03  4.26254E+03  5.21887E+02 -5.73776E+02 -2.80294E+03
