 $NMID ID='MM_0lb_SNR50_10hz_g40_81.RAW', FMTDAT='(8E13.5)'
 TRAMP=1., VOLUME=1. $END
  3.08713E+05  1.55177E+03  3.34509E+05  2.54397E+05  8.25058E+04  3.39253E+05 -1.38255E+05  2.52438E+05
 -1.90789E+05  8.73474E+04 -1.15367E+05 -3.16348E+04 -1.85165E+03 -4.76942E+04  4.99057E+04  3.48703E+03
  3.20168E+04  4.69454E+04 -1.51865E+04  7.51868E+04 -6.42616E+04  5.95704E+04 -8.63420E+04  2.80236E+04
 -7.93055E+04 -1.27012E+04 -5.80771E+04 -4.54432E+04 -1.53147E+04 -6.76473E+04  2.66321E+04 -4.45568E+04
  3.65243E+04  2.74025E+03  2.33031E+04  4.93097E+04 -3.04058E+04  4.62696E+04 -6.55346E+04 -3.93396E+03
 -5.23412E+04 -5.73634E+04 -7.81842E+03 -7.65074E+04  4.36234E+04 -5.89651E+04  4.97641E+04 -1.70701E+04
  4.79939E+04  1.04509E+04  3.12499E+04  3.01089E+04  1.32916E+04  3.06370E+04 -9.13757E+03  3.04533E+04
 -2.30474E+04  1.16304E+04 -2.08880E+04 -8.04087E+03  3.62354E+03 -1.01465E+04  2.44821E+04  1.16952E+04
  1.08701E+04  3.95329E+04 -3.22738E+04  4.03807E+04 -6.05865E+04  6.23342E+03 -5.40354E+04 -3.74049E+04
 -1.03803E+04 -6.06573E+04  4.27104E+04 -4.80421E+04  5.72972E+04 -1.02875E+04  4.22016E+04  3.60526E+04
 -1.05423E+04  3.83478E+04 -2.37332E+04  1.81898E+04 -3.34845E+04 -5.71384E+03 -1.39488E+04 -6.39894E+03
 -9.15154E+03 -1.63536E+04  1.12818E+03 -1.46218E+04  5.29057E+03 -2.83517E+04  1.47729E+04 -1.16798E+04
  1.15747E+04  4.18322E+03 -4.99947E+03  1.51466E+04 -2.14292E+04 -6.04385E+03 -4.52993E+03 -3.41049E+04
  2.71455E+04 -4.12569E+04  4.77618E+04 -2.11824E+04  4.46704E+04  1.88429E+04  1.53160E+04  4.73680E+04
 -1.23051E+04  3.23868E+04 -2.31439E+04 -3.50757E+03 -1.79270E+04 -2.54360E+04  2.55495E+04 -3.54115E+04
  4.27563E+04 -1.21619E+04  3.91558E+04  2.29364E+04  1.71577E+04  5.37299E+04 -4.52442E+03  5.81919E+04
 -3.59632E+04  3.23334E+04 -4.26469E+04  1.75014E+04 -5.03163E+04 -1.57758E+04 -3.17488E+04 -3.87975E+04
  8.54823E+03 -4.36767E+04  2.97668E+04 -1.72197E+04  3.72204E+04  8.45338E+03 -2.75004E+03  2.24893E+04
 -1.60033E+04  1.44394E+04 -7.15600E+03 -7.58739E+03  8.25167E+03 -1.07657E+04  1.44909E+04  7.93573E+03
  1.66928E+04  2.13586E+04 -4.48159E+03  2.55364E+04 -1.88538E+04  9.71679E+03 -2.78980E+04 -3.31899E+03
 -2.71070E+04 -2.43085E+04 -1.34330E+04 -2.67981E+04  3.09076E+03 -1.92711E+04  1.91893E+04 -2.07793E+04
  2.79895E+04 -2.15510E+04  3.52402E+04  9.46379E+03  2.40069E+04  2.00725E+04  5.64727E+03  4.35490E+04
 -2.38346E+04  3.50657E+04 -2.97363E+04  1.12167E+04 -2.08077E+04 -1.22742E+04 -5.06629E+03 -1.41420E+04
  1.93767E+03 -4.29780E+03 -5.85064E+03  5.09998E+03 -2.01670E+04 -1.02531E+03 -2.27142E+04 -7.57370E+03
 -8.44477E+03 -2.05222E+04  1.73165E+03 -2.18400E+04  2.22271E+04 -1.48072E+04  1.71455E+04  6.88842E+01
  1.60145E+04  1.09071E+04 -4.01017E+01  1.89376E+04 -1.75112E+04  1.15671E+04 -1.85508E+04 -6.29494E+03
 -2.01242E+04 -1.52897E+04 -4.05944E+03 -2.40116E+04  1.00874E+04 -2.26095E+04  2.43314E+04 -1.12031E+04
  1.71758E+04 -2.94956E+03  2.15854E+04  9.03652E+03  9.15775E+03 -2.20251E+03  1.15827E+04 -4.01978E+03
  2.05745E+04  4.97251E+03  2.75257E+04  1.15762E+04  9.67499E+03  3.59074E+04 -5.07091E+03  3.89574E+04
 -2.07517E+04  3.65353E+04 -3.68062E+04  1.90793E+04 -4.21451E+04 -4.30692E+03 -3.12792E+04 -2.71343E+04
 -1.49455E+04 -3.23642E+04  6.00271E+03 -3.18078E+04  2.97568E+04 -1.32417E+04  2.28014E+04  6.56042E+03
  1.05377E+04  2.20955E+04 -9.64922E+03  1.32592E+04 -1.79153E+04  3.05076E+03 -1.38748E+04 -1.47493E+04
  1.31722E+03 -8.67131E+03  8.19697E+03 -9.12359E+03  1.20511E+04 -4.90798E+03  3.93980E+03  1.02005E+04
 -6.04169E+03  4.15783E+03 -9.22754E+03 -1.55889E+03 -5.18856E+03 -1.61655E+04  1.52627E+04 -1.86037E+04
  1.62806E+04 -7.50393E+03  2.55187E+04  6.52622E+03  1.82505E+04  1.39598E+04  4.49284E+03  3.09780E+04
 -5.53668E+03  2.24430E+04 -1.07003E+04  1.90137E+04 -2.28648E+04  8.83198E+03 -1.07022E+04 -1.48352E+03
 -8.25129E+03 -1.10071E+04  1.42547E+03 -1.09159E+02 -4.99177E+03  6.32138E+03 -2.14572E+03  4.21373E+03
 -1.14088E+04 -5.21931E+01 -9.40756E+03 -9.15802E+03 -7.40919E+03 -2.37934E+04  7.24895E+03 -9.29272E+03
  9.28183E+03 -6.09223E+03  9.41214E+03  5.28944E+03  1.10590E+03  3.31641E+03 -6.06844E+03 -2.55381E+02
 -4.38595E+03 -7.44702E+03 -4.13609E+03 -1.23058E+04  1.12019E+04 -1.51297E+04  1.84200E+04 -8.82731E+03
  1.52341E+04 -1.71271E+03  1.67030E+04  2.07279E+04  4.01811E+03  1.78070E+04 -8.06239E+03  1.03268E+04
 -4.26895E+03  1.11511E+03  6.67778E+02 -1.43427E+03 -3.92802E+02 -9.75895E+03  7.41714E+03 -1.50866E+03
  4.61796E+03  7.13016E+03 -3.73002E+03  1.29547E+04 -7.85436E+03  9.35479E+03 -1.75627E+04  2.89968E+03
 -6.21683E+03 -3.14821E+03  4.89672E+02 -5.05734E+03  9.43969E+03 -7.06608E+03  6.08332E+03  3.78086E+03
  1.34382E+03  4.26544E+03 -3.15316E+03  1.64012E+04 -1.07938E+04  2.91101E+03 -1.54142E+04 -2.66744E+03
 -6.02131E+03 -9.53843E+03  7.24581E+03 -1.55901E+04  1.33527E+04 -1.01828E+04  1.46214E+04  4.20886E+03
  5.02692E+03  1.23504E+04 -3.41237E+03  1.42429E+04 -9.41360E+03  3.97885E+03 -1.08648E+04 -8.81694E+02
 -1.08094E+04 -9.97557E+03  1.05643E+03 -1.33022E+04  4.51295E+03 -6.52403E+03  7.70736E+03 -3.55875E+03
  1.41227E+03  4.06810E+03  1.37222E+03 -4.98888E+02 -2.87556E+03 -4.31345E+03  2.22636E+03 -7.68113E+03
  6.87038E+03 -2.69052E+03  1.07133E+04 -2.54876E+03  1.56930E+04  8.20911E+03  1.01332E+04  1.26637E+04
 -7.98456E+03  1.81949E+04 -1.42445E+04  1.40536E+04 -2.18187E+04  2.97740E+03 -1.88937E+04 -6.33481E+03
 -7.25837E+03 -1.30439E+04  2.22611E+03 -9.13889E+03  5.94559E+03  2.19691E+02  4.20116E+03 -5.86815E+03
  3.07499E+03 -1.81243E+03  3.41922E+03  1.05634E+00  3.25725E+03 -3.96456E+02  5.35231E+03 -9.74943E+01
  1.14109E+04 -1.89397E+03  9.59785E+03  7.46935E+03 -3.62036E+03  1.08755E+04 -8.45943E+03  4.89084E+02
 -1.03418E+04 -1.29655E+03 -9.47034E+03 -7.44897E+03 -3.40432E+03 -1.27836E+04  7.63623E+03 -1.28665E+04
  1.45588E+04 -1.09861E+04  1.77026E+04  1.92040E+03  1.18290E+04  1.24777E+04  2.62684E+03  1.73135E+04
 -4.07029E+03  8.37454E+03 -1.35757E+04  6.94388E+03 -1.02776E+04 -5.51624E+03 -2.41833E+03  2.91119E+03
 -8.49055E+02 -1.11388E+04 -5.78916E+03  1.53930E+03 -2.25781E+03  3.47690E+03 -9.05479E+03 -5.85252E+03
 -3.91351E+03 -6.23685E+03  9.96060E+02 -1.44256E+04  4.31084E+03 -9.70229E+03  1.59898E+04 -5.03069E+03
  1.54127E+04  2.57122E+03  4.19886E+03  1.35229E+04 -3.13085E+03  1.52545E+04 -4.78044E+03  1.36147E+04
 -9.71534E+03  1.03574E+03 -8.08385E+03 -2.16965E+03 -6.29380E+03 -1.04629E+04  4.02162E+03 -5.31032E+03
  1.00635E+04  1.09687E+03  6.80431E+03  5.53247E+02 -3.74966E+03  3.39038E+03  5.45081E+03  5.78698E+03
  6.88335E+02  3.81089E+03  7.21741E+03 -8.19942E+02 -5.87101E+02  6.03022E+02 -4.41660E+02  3.40270E+03
 -5.14685E+03  1.58696E+04 -9.51664E+03  1.44716E+04 -1.12153E+04  2.00268E+03 -1.21384E+04 -7.96384E+02
 -9.95632E+03 -1.30638E+04  1.17141E+03 -1.53167E+04  2.26814E+03 -6.57704E+03  1.30632E+04  9.06144E+02
  1.13365E+04  3.52076E+03  6.78905E+03  8.70188E+03 -4.16483E+03  3.42059E+03 -9.82026E+03  3.25589E+03
 -6.41092E+03 -5.55092E+03  2.55075E+03 -6.25921E+02  3.76879E+03  7.95866E+02  8.54453E+03  3.23839E+03
 -2.89251E+02  2.71720E+03  1.75712E+03  2.20188E+03  1.05960E+03  2.36070E+03 -3.01132E+03  2.85064E+03
  4.47849E+03 -3.69415E+02  8.22020E+03  6.90087E+02  8.91139E+03  5.68914E+03 -3.68827E+03  1.44138E+04
 -5.04538E+03  5.60522E+03 -3.24754E+03  1.13061E+04 -1.17010E+04 -3.48231E+03 -6.68302E+03 -1.03693E+03
 -4.47735E+01 -8.92788E+02  4.25476E+03 -1.46143E+03  5.41134E+03  1.63437E+03  1.12719E+03  1.59596E+03
 -5.96941E+03  2.79934E+03 -6.48327E+03  1.24179E+02  3.77815E+02 -8.12675E+03  7.57398E+02 -6.26009E+03
  9.12305E+03 -2.34913E+03  6.88602E+03 -2.58898E+03  5.34656E+03  2.16524E+03 -2.24205E+03  2.17620E+03
 -1.11844E+04  3.15879E+03 -1.50466E+03  1.45550E+03  2.23347E+03  1.07074E+03  3.40292E+03 -5.36161E+03
  6.52102E+03  5.82878E+03  6.96155E+03  2.54263E+03 -2.01893E+03  8.08253E+03  2.48114E+03  7.48663E+03
 -3.02216E+03  3.46713E+03 -6.38444E+03  4.71089E+03 -5.23834E+03 -2.35766E+03 -4.04652E+03  7.37766E+02
  1.92943E+03 -4.88660E+03  5.63543E+03  2.59703E+03 -2.08874E+03  9.24708E+02 -4.19784E+03  5.50144E+03
 -2.93350E+03  9.25067E+03  1.81302E+03 -4.39701E+03 -4.17341E+03 -2.22709E+03 -4.06056E+03 -2.99360E+02
  1.85463E+02 -3.91977E+02 -1.09302E+04  6.08072E+03 -1.17576E+04  6.83864E+02 -8.32077E+03 -8.04536E+03
 -8.95737E+03 -1.02065E+04  1.21802E+03 -1.06100E+04  6.92417E+03 -1.47668E+04  8.96674E+03 -5.54353E+03
  7.36907E+03 -1.03710E+03  1.41111E+04  2.66361E+03 -1.87542E+02  1.06386E+04  2.84318E+03  7.78842E+03
 -7.11245E+03 -4.78823E+03 -2.52931E+03 -8.25493E+03 -4.70453E+03 -1.68942E+03  1.53161E+03 -3.71083E+03
  2.13686E+03 -8.61941E+02 -1.70305E+03  3.38851E+03 -8.21219E+03 -1.72175E+03  1.61034E+03 -5.03197E+03
  3.91555E+03 -2.98347E+02  5.39667E+03  7.14626E+03  3.90569E+03  8.06071E+03  4.00769E+03  9.94665E+03
 -1.79127E+03  6.25536E+03 -1.20500E+04  4.88132E+03 -8.25906E+03 -6.05260E+03 -5.10694E+03 -5.99262E+03
 -5.17565E+03 -2.80969E+03  6.05255E+03 -3.89009E+03  4.53481E+03 -5.64418E+03  4.62451E+03  1.66201E+03
  4.48071E+03  4.64805E+03 -6.46441E+02 -1.25431E+03 -5.55745E+03  6.60042E-01  7.44755E+03 -2.93768E+02
  6.83997E+03  1.02561E+03  2.85516E+03 -4.69299E+02  2.90734E+03  7.16378E+03 -4.79425E+02  3.00317E+03
 -2.64787E+03 -2.85483E+02 -9.58094E+03  1.90915E+03 -7.40064E+03  1.28621E+03 -2.26667E+03 -9.03747E+03
  9.82256E+02 -1.30625E+04  4.69541E+03  1.75375E+02  1.29321E+03 -5.29765E+03  2.89015E+03  4.31156E+03
 -2.53170E+03  1.10562E+04 -1.33161E+03  5.08155E+03 -4.70025E+03  8.25542E+03 -4.45272E+03  2.74435E+03
 -3.49251E+03  2.37868E+03  6.27073E+02  4.41328E+03  3.09759E+03 -3.32712E+03 -1.69612E+03  3.03958E+03
 -3.43791E+03 -2.83823E+03 -1.72069E+03 -3.79155E+03  3.23061E+03 -6.60334E+03  6.64769E+03 -2.14155E+03
  1.39997E+03 -5.07382E+02 -8.11911E+02  7.40672E+03  4.22974E+03  2.60731E+03 -4.56580E+03  7.91023E+03
