 $NMID ID='MM_0lb_SNR50_8hz_g40_32.RAW', FMTDAT='(8E13.5)'
 TRAMP=1., VOLUME=1. $END
  3.07854E+05  1.87721E+03  3.37905E+05  2.46112E+05  8.66678E+04  3.39989E+05 -1.32791E+05  2.52135E+05
 -1.92535E+05  8.78668E+04 -1.10901E+05 -3.16893E+04  2.47730E+03 -5.08573E+04  5.65844E+04 -6.87823E+03
  3.76557E+04  5.62073E+04 -2.06662E+04  7.64864E+04 -6.01741E+04  6.51732E+04 -8.72040E+04  3.31215E+04
 -8.37915E+04 -1.55585E+04 -5.92740E+04 -5.18672E+04 -9.69132E+03 -7.52092E+04  2.69319E+04 -4.76882E+04
  4.11402E+04  4.64927E+03  1.51910E+04  4.87440E+04 -3.80013E+04  4.55874E+04 -7.14144E+04  4.11741E+02
 -5.48676E+04 -5.58521E+04 -1.17573E+04 -7.77388E+04  4.03146E+04 -6.53291E+04  4.65442E+04 -2.67953E+04
  3.95121E+04  1.02728E+04  3.49079E+04  2.82056E+04  2.16436E+04  3.43859E+04 -9.09306E+03  2.39540E+04
 -2.67790E+04  2.00142E+04 -1.80278E+04 -1.85009E+04  8.97307E+03 -5.71983E+03  2.78431E+04  1.35498E+04
  5.34510E+03  3.27291E+04 -3.51690E+04  4.44426E+04 -6.75908E+04  4.04628E+03 -5.53462E+04 -3.39688E+04
 -1.52410E+04 -7.01292E+04  3.82477E+04 -4.72060E+04  6.42578E+04 -1.79842E+03  3.35054E+04  4.01112E+04
 -6.78351E+03  3.71732E+04 -3.73377E+04  2.95395E+04 -3.42384E+04 -1.49409E+03 -2.64734E+04 -9.30911E+03
 -3.87840E+03 -7.69948E+03 -3.11225E+02 -1.32960E+04  9.55329E+03 -1.94187E+04  1.35247E+04 -6.77616E+03
  1.00908E+04  2.49837E+03 -1.31929E+04  7.14435E+03 -2.18595E+04 -7.54579E+03 -9.15612E+03 -3.66706E+04
  2.23263E+04 -4.55008E+04  5.28843E+04 -1.83131E+04  5.14129E+04  2.95875E+04  1.47875E+04  5.06175E+04
 -1.48303E+04  3.95430E+04 -2.25730E+04  5.45326E+03 -9.49067E+03 -3.36465E+04  2.33279E+04 -3.22996E+04
  3.94295E+04 -9.54862E+03  4.42704E+04  2.76224E+04  1.94639E+04  4.57767E+04 -1.03293E+04  5.76812E+04
 -3.54880E+04  3.52426E+04 -4.23978E+04  9.83538E+03 -5.20788E+04 -1.93482E+04 -2.58357E+04 -4.81468E+04
  9.95087E+03 -4.34225E+04  3.86901E+04 -1.23552E+04  3.01523E+04  1.45036E+04  7.91711E+03  2.35761E+04
 -1.59784E+04  6.58590E+03 -1.30811E+04 -5.58776E+03  2.19556E+03 -4.91784E+03  1.46352E+04  4.74414E+03
  1.53892E+04  2.75963E+04 -3.63861E+03  2.92680E+04 -2.41846E+04  9.21884E+03 -3.74824E+04 -5.96915E+02
 -2.39670E+04 -1.72890E+04 -7.44054E+03 -2.67795E+04  5.76370E+03 -3.35408E+04  2.24781E+04 -1.97665E+04
  3.43641E+04 -1.46970E+04  4.05355E+04  9.14881E+03  2.32274E+04  2.28050E+04  1.19927E+03  3.40784E+04
 -2.08080E+04  3.14238E+04 -3.34076E+04  8.73758E+03 -2.05983E+04 -1.43351E+04 -2.64802E+03 -1.30591E+04
 -3.20991E+03 -6.98249E+02 -5.42208E+03  7.20830E+03 -1.95264E+04  3.84104E+03 -2.30344E+04 -1.48198E+04
 -6.60861E+03 -2.16371E+04  1.01075E+04 -2.80580E+04  2.68250E+04 -2.06314E+04  2.66751E+04 -1.98320E+03
  9.81772E+03  2.13454E+04 -7.16363E+03  1.56647E+04 -1.05423E+04  1.15745E+04 -2.31361E+04 -3.93800E+03
 -1.75342E+04 -2.50647E+04  1.86201E+03 -2.84933E+04  1.22193E+04 -2.32041E+04  1.64774E+04 -1.08589E+04
  2.01309E+04  1.10894E+03  1.50989E+04  6.25573E+03  1.98853E+04  1.21464E+01  9.30504E+03 -5.07169E+03
  1.96358E+04 -1.72134E+03  2.19986E+04  1.32111E+04  2.17521E+04  3.43677E+04 -7.90660E+03  4.04470E+04
 -3.08230E+04  3.58666E+04 -4.04499E+04  2.54283E+04 -4.14459E+04 -5.59006E+03 -4.25632E+04 -1.82393E+04
 -1.72077E+04 -2.77566E+04  1.24699E+04 -3.36006E+04  3.09771E+04 -1.34498E+04  3.22750E+04  1.25943E+04
  9.00644E+03  2.19865E+04 -1.21018E+04  2.02113E+04 -1.99585E+04  9.24026E+03 -9.11934E+03 -1.65803E+04
 -6.26930E+02 -2.12836E+04  8.36336E+03 -9.02056E+03  1.78804E+04 -3.17537E+03  2.08857E+03  2.73093E+03
 -8.93378E+03  1.18396E+04 -1.26539E+03 -2.74395E+02 -5.45897E+03 -1.65212E+04  9.59489E+03 -1.84145E+04
  2.35933E+04 -8.30774E+03  2.70456E+04  4.42721E+03  2.13965E+04  2.08708E+04  5.25668E+03  2.93224E+04
 -6.17014E+03  3.19874E+04 -1.70641E+04  2.04100E+04 -1.91054E+04  7.73474E+03 -1.86388E+04 -7.26366E+03
 -1.16668E+04 -3.95420E+03  3.24702E+02 -1.92617E+03 -2.61911E+03  4.32190E+03 -7.35319E+03  1.20951E+04
 -8.86881E+03 -1.15341E+03 -1.65060E+04 -1.11404E+04 -6.49358E+03 -2.15377E+04  1.00658E+04 -1.38853E+04
  1.82708E+04 -8.27537E+03  1.17943E+04  3.42600E+03 -1.35056E+03  3.42755E+03 -6.45275E+03 -1.19465E+03
 -8.93482E+03 -1.22511E+04 -1.65149E+03 -1.19297E+04  7.40562E+03 -1.93576E+04  1.97364E+04 -1.38753E+04
  2.49447E+04  5.05708E+03  1.81002E+04  1.54262E+04  5.96114E+03  2.00218E+04 -2.85305E+03  1.45298E+04
 -1.03405E+04  1.10968E+03 -5.32169E+03 -3.28899E+03  6.86696E+03 -1.38041E+02  6.84656E+03  2.48150E+03
  4.48667E+03  9.82949E+03 -8.40422E+02  1.13229E+04 -1.03107E+04  1.14943E+04 -1.92167E+04 -7.72050E+02
 -8.82782E+03 -6.53478E+03  3.86872E+03 -1.01730E+04  1.09328E+04 -1.49044E+03  1.50096E+04  4.85058E+03
 -2.66217E+03  8.35102E+03 -5.46656E+03  1.60866E+04 -1.86496E+04  7.46125E+03 -1.24377E+04 -6.42826E+03
 -1.11302E+04 -1.01875E+04  8.67895E+03 -1.55375E+04  1.61637E+04 -1.76808E+04  1.83707E+04  9.68001E+02
  6.30118E+03  1.40177E+04 -1.48933E+03  1.64052E+04 -1.61209E+04  9.35072E+03 -1.37223E+04 -3.71293E+03
 -6.30749E+03 -1.13977E+04 -2.58678E+03 -1.43385E+04  4.21052E+03 -8.16810E+03  7.94901E+03  3.74197E+03
  8.39563E+03 -4.21408E+02 -5.27365E+03  3.33783E+03  2.82389E+03 -5.06142E+03  2.92262E+03 -6.71080E+03
  1.48357E+04 -4.91885E+03  1.73323E+04  1.10736E+03  1.72353E+04  1.85559E+04  1.08273E+04  2.45254E+04
 -5.83022E+03  2.53064E+04 -2.07879E+04  2.04268E+04 -2.26971E+04  7.41157E+03 -2.69592E+04 -1.17116E+04
 -6.49373E+03 -1.84161E+04  6.67480E+03 -1.89149E+04  1.66238E+03 -9.06934E+03  4.27599E+03 -1.46048E+04
 -1.70028E+02 -4.74930E+03  5.08654E+03 -5.42716E+03  3.43849E+03 -7.23070E+03  9.06744E+03  8.57960E+02
  9.33801E+03  1.36888E+03  1.05885E+04  9.57071E+03 -1.47452E+03  1.61343E+04 -6.78165E+03  8.80083E+03
 -1.42997E+04 -2.44542E+03 -3.92673E+03 -1.35090E+04  1.31372E+03 -1.75116E+04  3.21970E+03 -1.68152E+04
  1.58552E+04 -4.59737E+03  2.43698E+04  2.75220E+03  1.10351E+04  1.14047E+04 -1.57286E+03  1.99424E+04
 -5.33533E+03  1.94196E+04 -1.67899E+04  6.88423E+02 -9.28072E+03 -2.42059E+03 -6.72664E+03 -3.89662E+03
  3.61768E+03  8.75965E+02 -3.80375E+03 -8.59486E+02 -3.81661E+03  3.66816E+03 -1.26282E+04  2.00439E+03
 -6.52057E+03 -1.15885E+03 -1.33312E+03 -1.57800E+04  1.38989E+04 -1.34273E+04  2.01076E+04 -1.25866E+03
  1.32702E+04  1.02882E+04  7.33757E+03  1.21746E+04 -1.56911E+03  1.25946E+04 -1.32642E+04  1.27043E+04
 -1.59285E+04 -3.51076E+02 -5.82608E+03 -8.95965E+03 -2.69199E+03 -1.16547E+04  2.64016E+03 -7.36171E+03
  4.55627E+03  4.09414E+03  2.47245E+03 -2.47983E+03  3.87350E+03  4.55697E+03  1.57483E+03  8.39334E+03
  3.74474E+02  4.02585E+03  3.37893E+03  4.02591E+03  3.34270E+03  5.48728E+03  2.02436E+03  8.23886E+03
  2.67624E+02  1.35626E+04 -1.52430E+04  9.73895E+03 -1.40794E+04 -1.93699E+03 -1.75889E+04 -1.50746E+03
 -1.20514E+04 -1.82088E+04  6.85981E+03 -1.93284E+04  8.30721E+02 -4.77014E+03  1.72503E+04 -4.25019E+03
  1.00198E+04  1.42090E+04 -8.89132E+02  6.31984E+03 -2.14260E+03  5.63680E+03 -1.10098E+04  4.41191E+03
 -1.24249E+03 -8.73709E+02 -1.15176E+03 -8.36960E+03  1.70405E+03  1.67020E+03  1.06501E+04  1.51376E+03
  7.03037E+03  4.35526E+03  2.33284E+03  5.31361E+03 -3.15084E+03 -8.28618E+02  6.56215E+03  5.47168E+02
  7.28816E+03 -2.71178E+03  1.21681E+04  4.81100E+03  4.59672E+03  1.18670E+04 -2.47771E+03  1.08965E+04
 -4.32357E+03  6.00177E+03 -1.24402E+04  2.77832E+03 -2.59522E+03 -6.87586E+03 -4.18481E+02 -5.32448E+03
  1.75794E+03 -9.40481E+03  7.08156E+03 -1.11754E+03  6.40647E+03 -2.91060E+03 -3.10539E+03  8.36863E+03
 -4.95179E+03  1.45417E+03 -1.07259E+04 -4.57674E+03 -1.12383E+03 -1.80931E+04  3.07304E+03 -6.17194E+03
  6.08164E+03 -2.74832E+03  1.67102E+03 -3.67092E+03  6.54661E+03  6.58544E+03 -5.26719E+03  6.78701E+03
 -2.52992E+03 -4.74240E+03 -2.98945E+03 -6.46445E+03  3.77978E+03 -9.90265E+03  1.59138E+04 -5.80287E+03
  1.11529E+04 -5.80803E+02  1.13315E+04  6.05956E+03  1.85978E+03  1.02674E+04 -7.76480E+03  1.32518E+04
 -2.04432E+04  4.38515E+03 -1.51974E+04  5.75784E+03 -6.10112E+03 -3.91667E+03 -5.65861E+01 -8.48029E+03
  5.55290E+03  1.02724E+03  5.07085E+03 -3.89223E+02 -4.31958E+02  1.39767E+03  3.39273E+03  5.81674E+03
 -7.63440E+03  5.20319E+03  1.09538E+03 -1.46526E+02 -4.47208E+03  2.00038E+03 -8.25374E+03  8.57489E+03
 -3.60165E+02  1.65157E+03 -6.41556E+03  4.71445E+03 -1.67079E+04  5.33716E+03 -2.04356E+04 -6.42792E+03
 -6.53187E+03 -1.74358E+04  2.11068E+03 -2.44138E+04  8.00853E+03 -1.61705E+04  1.66724E+04 -1.11249E+04
  1.22127E+04  2.86871E+03  1.21010E+04  1.14333E+04 -3.32218E+03  1.54276E+04 -4.62127E+03  6.89080E+03
 -6.98487E+03  1.59828E+02 -9.29127E+03 -1.70728E+03 -1.88761E+02  1.90659E+03 -5.37947E+02 -6.74388E+03
 -3.44655E+03  2.08822E+03 -9.87083E+02  1.08831E+03 -2.98280E+03 -9.29767E+03 -6.88472E+03 -3.44334E+03
 -1.65747E+03 -9.03770E+03  9.26647E+03  4.86164E+02  1.19178E+04  7.11610E+03 -1.50573E+03  1.12138E+04
 -1.99181E+03  8.54720E+03 -1.46772E+04  5.25450E+03 -1.68884E+04 -5.23942E+03 -1.53442E+04 -1.29363E+04
 -5.40821E+03 -1.58421E+04 -7.89674E+02 -9.40335E+03  5.33263E+03 -1.94117E+03  7.51013E+03  4.69173E+01
  5.89110E+03  2.77622E+03 -5.06194E+02  3.23686E+03 -4.27981E+03 -5.49847E+03 -1.14230E+03 -3.50261E+03
  1.63455E+03 -4.58159E+03  3.04945E+03 -3.55547E+02  2.82993E+03  1.03962E+04  3.22694E+03  1.27197E+04
 -4.50004E+03  8.79740E+03 -2.88846E+03  2.40722E+03 -1.18485E+04 -1.15201E+04  1.61156E+03 -7.79175E+03
  7.75225E+03 -1.24714E+04  1.48550E+04  1.30043E+02  1.29989E+04  4.27521E+03  3.17735E+03  8.16164E+03
  2.16110E+03  8.49190E+03 -1.99155E+02  6.03131E+03 -1.95966E+03  8.70068E+03  1.09027E+03 -5.27582E+02
 -5.73199E+03 -2.84914E+03  1.72505E+03  4.31946E+02 -1.61842E+04  5.37166E+03 -1.04760E+04 -8.69813E+02
 -1.38814E+03 -3.78488E+03  3.78714E+03 -7.88983E+03  1.79657E+03 -1.41923E+04  3.69787E+03 -2.33015E+02
  1.16017E+04 -8.00442E+02  4.08875E+03  6.93661E+03 -6.52875E+03  1.51372E+04 -1.75794E+03  1.45622E+03
