 $NMID ID='MM_0lb_SNR50_12hz_g45_82.RAW', FMTDAT='(8E13.5)'
 TRAMP=1., VOLUME=1. $END
  3.11564E+05 -4.09200E+03  3.39330E+05  2.50732E+05  8.82614E+04  3.39045E+05 -1.33229E+05  2.59294E+05
 -1.93050E+05  8.72031E+04 -1.10979E+05 -3.31394E+04  1.07618E+02 -5.33409E+04  5.27921E+04 -2.28342E+03
  3.47244E+04  4.59825E+04 -1.59634E+04  8.02065E+04 -6.35483E+04  6.63011E+04 -8.24587E+04  2.63475E+04
 -8.52828E+04 -9.57480E+03 -5.48197E+04 -5.29836E+04 -1.15601E+04 -6.87029E+04  2.40088E+04 -4.62819E+04
  4.16889E+04  1.43983E+01  9.75262E+03  5.04350E+04 -3.02579E+04  4.51585E+04 -6.97172E+04  2.35635E+03
 -5.19218E+04 -5.66515E+04 -1.10972E+04 -7.41333E+04  3.37617E+04 -5.29228E+04  4.97721E+04 -1.60417E+04
  3.67236E+04  1.28734E+04  3.39529E+04  2.05425E+04  1.62444E+04  3.00506E+04 -3.19864E+03  2.65683E+04
 -2.05153E+04  8.29253E+03 -1.87195E+04 -2.93056E+03  3.09330E+03 -9.49088E+03  2.46438E+04  7.03347E+03
 -8.87444E+02  3.71044E+04 -2.95532E+04  3.95422E+04 -6.92456E+04  1.51680E+03 -5.27405E+04 -4.81773E+04
 -9.72765E+03 -6.86980E+04  4.23651E+04 -4.29377E+04  6.02933E+04 -1.73274E+03  3.40194E+04  3.65896E+04
 -6.53482E+03  3.58553E+04 -3.03921E+04  1.83788E+04 -3.29232E+04  2.18890E+03 -1.78347E+04 -1.38576E+04
 -7.98840E+03 -1.19411E+04 -1.91585E+03 -2.34800E+04  1.08183E+04 -2.64059E+04  1.15881E+04 -1.64139E+04
  8.69167E+03  5.40570E+03 -5.82552E+03  1.57725E+04 -2.02595E+04 -2.83804E+03 -1.11007E+04 -3.52442E+04
  2.61122E+04 -4.73673E+04  4.74680E+04 -1.63520E+04  4.92158E+04  2.25602E+04  1.50293E+04  4.55384E+04
 -1.77962E+04  3.92845E+04 -3.09501E+04  3.59715E+03 -1.06960E+04 -2.50473E+04  1.83988E+04 -4.00129E+04
  4.16847E+04 -9.38742E+03  3.74704E+04  2.62698E+04  1.48097E+04  4.90361E+04 -1.99323E+03  5.06584E+04
 -3.37395E+04  3.88583E+04 -4.41282E+04  1.25035E+04 -4.94064E+04 -1.41250E+04 -2.72055E+04 -4.53188E+04
  9.15147E+03 -3.28235E+04  3.47042E+04 -1.97903E+04  2.68864E+04  8.61615E+03  3.40420E+03  2.17270E+04
 -8.68884E+03  4.02577E+03 -1.02027E+04 -5.77039E+03  9.58009E+02 -1.00308E+04  1.66608E+04  4.95423E+03
  1.03962E+04  2.32684E+04 -1.26430E+03  2.42499E+04 -2.34616E+04  1.93349E+04 -3.16423E+04 -3.16580E+03
 -2.02603E+04 -1.72336E+04 -7.24945E+03 -2.18888E+04  2.78956E+03 -1.94469E+04  1.82557E+04 -2.25151E+04
  2.93983E+04 -1.42912E+04  3.68849E+04  3.77338E+03  2.46258E+04  2.70795E+04  5.69069E+03  4.32598E+04
 -1.64850E+04  3.45857E+04 -2.90396E+04  1.48725E+04 -2.39962E+04 -1.27346E+04 -5.34844E+03 -1.34239E+04
  4.54370E+03 -4.86271E+03 -1.92744E+03  1.07086E+04 -1.65783E+04  1.22826E+03 -2.04729E+04 -6.22255E+03
 -7.95888E+03 -2.04117E+04  2.73537E+03 -2.05348E+04  1.28984E+04 -1.78350E+04  2.20303E+04 -6.49998E+03
  1.08646E+04  1.04433E+04 -2.26731E+03  1.96698E+04 -1.61886E+04  8.09759E+03 -1.28559E+04  1.41082E+03
 -1.14392E+04 -1.94409E+04 -2.71307E+03 -2.20705E+04  7.99061E+03 -2.07782E+04  2.82913E+04 -1.47864E+04
  2.13204E+04  4.39542E+03  1.28176E+04  1.25925E+03  3.62570E+03 -8.57459E+02  5.49925E+03 -4.50988E+03
  1.47218E+04  2.25983E+03  1.90959E+04  1.74159E+04  1.25369E+04  2.93750E+04 -6.50839E+03  3.90769E+04
 -2.59575E+04  2.79952E+04 -3.44195E+04  1.77107E+04 -4.35548E+04  1.04311E+03 -2.77273E+04 -2.22425E+04
 -1.52896E+04 -2.87339E+04  1.42447E+04 -2.81487E+04  2.13110E+04 -1.64806E+04  1.81494E+04  6.77115E+03
  1.03952E+04  1.73482E+04 -8.01266E+03  1.16482E+04 -1.67668E+04  2.59429E+03 -1.60708E+04 -9.32356E+03
 -6.77274E+02 -1.19586E+04  9.19773E+03 -1.15785E+04  7.38041E+03 -5.38286E+03  3.28341E+03  5.04307E+03
 -6.48513E+03  6.45310E+03 -1.40978E+04 -7.62740E+03 -5.84211E+02 -1.51899E+04  1.21777E+04 -1.40457E+04
  2.35799E+04 -9.93094E+03  1.69898E+04  3.11232E+03  1.15837E+04  1.46516E+04  3.55043E+03  2.46954E+04
 -6.88403E+03  1.88495E+04 -1.80897E+04  1.38904E+04 -2.02250E+04  8.34089E+02 -1.52308E+04 -1.13110E+04
  1.11590E+03 -8.33083E+03 -6.61815E+03 -2.93679E+02 -9.40370E+02  3.35150E+03 -2.98336E+03  4.20665E+03
 -1.22807E+04 -1.42748E+03 -1.22345E+04 -8.27727E+03 -8.62684E+03 -1.79742E+04  8.20580E+03 -1.12806E+04
  1.08156E+04 -1.01531E+04  4.63853E+03  1.60223E+03 -5.24973E+02  4.02288E+03 -4.61433E+03 -1.16632E+02
 -2.72348E+03 -9.82792E+03 -1.23197E+03 -1.24112E+04  2.51858E+03 -1.36862E+04  1.78150E+04 -3.23761E+03
  1.85827E+04  6.61741E+02  1.17025E+04  1.16243E+04  4.05138E+03  1.26327E+04 -8.77958E+03  1.22081E+04
 -1.14792E+04  3.21165E+03 -2.19435E+03 -1.15404E+03  1.36518E+03  7.08783E+02  1.04345E+04 -4.19542E+03
  8.84197E+03  9.59432E+03 -1.88100E+03  9.75566E+03 -7.22088E+03  6.67854E+03 -1.94912E+04  2.43856E+03
 -8.69396E+03 -7.11254E+03  3.56983E+03 -1.43362E+04  4.66521E+03 -5.77118E+03  5.66805E+03 -1.25887E+03
  1.91582E+03  9.45927E+03 -5.38965E+03  7.58173E+03 -1.06700E+04  6.31760E+03 -7.67283E+03 -6.56648E+00
 -5.51207E+03 -1.55829E+04  9.64022E+02 -1.38427E+04  9.67840E+03 -8.53306E+03  1.32993E+04  3.47475E+03
  4.25042E+03  8.78520E+03 -2.98118E+02  2.05828E+04 -1.14409E+04  3.88429E+02 -7.81086E+03 -5.04896E+03
 -3.34017E+03 -8.94420E+03  6.54605E+03 -1.40538E+04  2.16897E+03 -1.09436E+04  2.09343E+03 -4.69361E+03
  5.04802E+03 -3.74515E+03  1.64678E+02  4.08026E+03  8.70007E+02 -2.78515E+03 -6.87262E+02 -3.23122E+03
  1.12611E+04  4.96944E+03  1.32951E+04  5.85479E+03  1.28189E+04  9.62702E+03  8.64720E+03  1.41363E+04
  2.10905E+03  1.60336E+04 -9.38746E+03  6.78109E+03 -1.91792E+04  6.43255E+02 -9.54862E+03 -6.45343E+03
 -9.68982E+03 -1.85280E+04 -2.24616E+03 -8.30691E+03  7.73361E+03 -7.97734E+03 -2.79900E+03 -3.38875E+03
  2.77133E+03 -3.34667E+03  3.16400E+03 -1.02019E+03  6.25470E+03 -4.29992E+03  5.27908E+03 -2.56259E+03
  5.28264E+03  5.63402E+02 -1.25304E+02  6.75122E+03 -7.96824E+02  8.88763E+03 -5.63807E+03  4.66983E+03
 -8.69015E+03  1.92557E+03 -9.14360E+03 -7.85904E+03  1.39085E+03 -1.07864E+04  5.28750E+03 -1.12145E+04
  8.18101E+03 -7.70739E+03  1.22674E+04 -2.34328E+03  1.04031E+04  1.03435E+04  9.80380E+02  1.46187E+04
 -5.14734E+03  9.76618E+03 -1.15192E+04  5.68220E+03 -6.94419E+03 -7.08335E+02 -4.32988E+03  1.70592E+03
  4.84604E+02 -3.76158E+02 -4.09601E+02  1.06086E+03 -3.09213E+03 -3.64054E+03 -7.12618E+03 -1.22590E+03
 -4.56369E+03 -6.00927E+03 -1.68602E+02 -9.69571E+03  7.27480E+03 -6.24677E+03  1.05491E+04 -3.50883E+03
  1.32167E+04  2.88656E+03  2.41589E+03  6.47361E+03 -1.33196E+03  6.99272E+03 -8.51395E+03  1.10635E+04
 -9.75934E+03  1.11185E+02 -1.02471E+04 -6.44221E+03 -5.63972E+03 -7.87318E+03  3.53957E+03 -9.13594E+03
  4.51284E+03 -4.55666E+03  4.93611E+03  2.18354E+03  4.01363E+03  1.37748E+03  4.13047E+03  4.30421E+02
 -1.27649E+03 -7.50520E+02  1.51428E+03  1.70983E+03  3.00206E+03  1.01573E+03  8.58781E+02  6.37061E+03
 -4.08677E+03  5.05873E+03 -3.09200E+03  5.30337E+03 -7.49707E+03  5.31703E+02 -9.83956E+03 -9.36138E+03
 -4.67211E+03 -1.14773E+04  1.30120E+03 -6.61508E+03  1.67552E+03 -6.24540E+03  1.00659E+04 -1.18511E+02
  1.14865E+04  2.10637E+03  2.15470E+03  1.56360E+03  9.16416E+02  3.11617E+03 -1.90516E+03  1.52850E+03
 -3.70578E+03 -9.25173E+03  8.69699E+03 -5.72274E+03  6.99671E+03 -1.88316E+03  8.20471E+03  1.91518E+03
  3.44424E+03  1.62485E+03 -1.00002E+03  4.56213E+03 -2.77112E+03  2.06571E+03 -2.77217E+02 -1.72310E+03
  1.49175E+02  2.96546E+03  4.46736E+03  3.54574E+02  5.79235E+02 -3.93570E+02 -9.54552E+03  1.18969E+04
 -1.88505E+03  4.93780E+03 -7.63924E+03  2.96392E+03 -3.76053E+03  8.17905E+03 -3.25236E+03  1.13338E+03
  2.64274E+03 -1.51264E+03  4.16652E+03 -1.68616E+03  3.63425E+03  1.70924E+03  1.81818E+03  4.49138E+03
 -4.34592E+03  1.48958E+03 -3.35482E+03 -6.17020E+02 -5.72143E+02 -5.71500E+03  1.64044E+03 -5.90973E+03
  4.08042E+03  3.11826E+03  2.20765E+03 -1.45107E+03  2.82602E+03 -4.32627E+03  4.25209E+03  1.59878E+03
 -9.69503E+02  3.92511E+02 -3.22276E+03  9.08520E+02  1.09817E+03  1.40454E+02  4.10964E+02 -2.71086E+03
  6.94210E+03  7.38888E+02  3.75823E+03  3.78831E+03  2.55381E+03  3.11975E+03 -2.92438E+03  6.72518E+03
 -8.91392E+03 -6.66437E+02 -2.64467E+03 -1.79274E+03 -3.72792E+03 -4.33937E+03  3.57985E+03 -5.36307E+03
  5.75129E+03 -7.36992E+03 -9.36254E+02 -1.53882E+03  4.51956E+03 -4.11200E+02 -1.07600E+03  1.07050E+04
 -3.39261E+03  1.63589E+03 -4.39440E+02 -2.80024E+03 -1.69046E+03  3.05131E+03 -2.04130E+03  1.52952E+03
 -5.88746E+02  2.99625E+03 -5.16084E+03  6.41130E+03 -4.58089E+03  1.25773E+03 -7.92468E+03 -5.75921E+03
 -5.57056E+03 -1.19171E+04 -2.31859E+03 -1.59627E+04  4.05025E+03 -5.48905E+03  1.43333E+04 -9.33135E+03
  6.83031E+03  1.34226E+03  1.16293E+03  3.77692E+03 -3.92075E+03  4.62418E+03 -6.14717E+03  1.29418E+03
  1.58146E+03 -7.55872E+02 -1.06442E+04 -2.02228E+03 -2.53615E+03 -4.91433E+02 -2.15698E+03  2.63974E+02
  4.84620E+03  3.00658E+03  3.43229E+03 -1.64021E+03 -2.21349E+03 -2.17995E+03  6.31678E+02  5.51367E+02
  2.45893E+03 -3.89115E+03  4.39978E+03 -2.88188E+03  4.58028E+03  6.64863E+03 -1.35676E+03  8.48673E+03
 -7.40715E+02  7.02910E+03 -7.33280E+03  2.90049E+03 -7.86912E+03 -6.73397E+03 -3.64087E+03 -4.72169E+03
 -6.05490E+03 -1.01955E+04  6.52480E+03 -2.39102E+03 -1.87889E+02 -4.18766E+02  4.20378E+03  4.68562E+03
  1.24583E+03  5.18204E+03  2.62975E+03  7.59958E+02  2.63677E+03  3.43541E+03  1.40158E+03 -1.02379E+03
  1.37160E+00 -2.38495E+03 -1.55685E+03 -7.62411E+02 -9.52817E+02  1.22345E+04 -4.64991E+03  1.06597E+03
 -1.11743E+04  2.82929E+03 -7.92519E+03  7.99377E+02 -3.84188E+03 -3.39804E+02 -4.58154E+02  5.26869E+02
  6.80740E+02 -1.47089E+03 -1.43148E+03 -1.64560E+02  6.08475E+03  8.17958E+01  1.00871E+02  4.61764E+02
  3.96920E+03  7.20587E+03 -9.20777E+02  8.00105E+03  6.57598E+02  6.68230E+03 -1.81008E+02 -8.97355E+02
 -2.95324E+03  3.91088E+03  2.08719E+03  5.23196E+03  2.96199E+03  1.65380E+03 -5.95161E+03  2.94111E+03
 -5.67403E+03 -1.82144E+03 -4.72050E+03 -5.06196E+03  5.76932E+03 -4.21052E+03  3.44947E+03 -2.59657E+03
  2.14748E+03 -3.15894E+03 -4.47065E+02  5.65266E+03 -6.32777E+03  4.64384E+03 -2.73762E+03  1.20946E+03
