 $NMID ID='MM_0lb_SNR50_13hz_g45_25.RAW', FMTDAT='(8E13.5)'
 TRAMP=1., VOLUME=1. $END
  3.03589E+05  4.07313E+03  3.38601E+05  2.53588E+05  8.39165E+04  3.36718E+05 -1.35512E+05  2.54037E+05
 -1.91862E+05  8.31363E+04 -1.11203E+05 -3.51473E+04 -9.29867E+02 -4.90175E+04  5.54764E+04  2.82401E+02
  3.39589E+04  5.70005E+04 -1.41861E+04  7.88158E+04 -6.38262E+04  5.97275E+04 -8.77021E+04  3.00019E+04
 -8.25159E+04 -1.18452E+04 -5.64881E+04 -5.21067E+04 -6.46476E+03 -6.76434E+04  2.50378E+04 -4.50102E+04
  3.63319E+04  9.59203E+03  1.84109E+04  4.95382E+04 -3.58584E+04  4.83714E+04 -6.69436E+04  2.40987E+02
 -4.93394E+04 -5.94101E+04 -5.93650E+03 -8.08500E+04  3.10454E+04 -5.49524E+04  4.60557E+04 -1.37786E+04
  4.25703E+04  1.28591E+04  3.04607E+04  2.56298E+04  1.81181E+04  2.85434E+04 -1.69262E+03  2.88787E+04
 -2.06863E+04  1.79842E+04 -1.84906E+04 -7.20403E+03  4.92571E+03 -3.09788E+03  2.02913E+04  1.45713E+04
  7.78576E+03  3.90742E+04 -3.12181E+04  3.72116E+04 -6.20060E+04  2.51409E+03 -6.12715E+04 -4.58114E+04
 -1.22218E+04 -6.34257E+04  4.26674E+04 -4.47030E+04  5.62242E+04 -5.45417E+03  3.12004E+04  3.06676E+04
 -1.05672E+04  3.59493E+04 -2.72343E+04  1.93836E+04 -3.41928E+04 -5.23574E+03 -1.52421E+04 -1.10149E+04
 -1.02089E+04 -1.27358E+04  5.11534E+01 -2.16390E+04  8.34181E+03 -2.55895E+04  1.94659E+04 -1.09998E+04
  1.11828E+04  5.84074E+02 -6.16850E+03  1.53422E+04 -2.08212E+04  3.07457E+02 -8.57569E+03 -3.01798E+04
  2.11302E+04 -4.29709E+04  4.83160E+04 -2.08297E+04  4.48194E+04  2.02507E+04  1.51151E+04  4.37213E+04
 -1.42904E+04  3.39534E+04 -2.59299E+04  2.48360E+03 -1.03373E+04 -2.70619E+04  2.10324E+04 -3.03612E+04
  4.18888E+04 -8.04882E+03  3.94035E+04  1.95845E+04  2.34419E+04  5.00052E+04 -8.26769E+03  5.13751E+04
 -3.59807E+04  3.35000E+04 -4.05125E+04  8.08933E+03 -4.29478E+04 -1.73358E+04 -2.40560E+04 -3.47023E+04
  1.47947E+04 -4.14470E+04  3.13870E+04 -1.21333E+04  2.96282E+04  1.34922E+04  4.87490E+03  1.51216E+04
 -1.08328E+04  7.34552E+03 -1.19512E+04 -3.53172E+03  7.61679E+03 -1.06915E+04  1.78047E+04  1.30765E+04
  1.72164E+04  1.92051E+04 -1.98027E+03  2.34911E+04 -2.62471E+04  1.36135E+04 -2.58128E+04 -4.16603E+03
 -2.29315E+04 -2.01365E+04 -1.47954E+04 -1.82084E+04  1.10158E+03 -2.03791E+04  1.46348E+04 -2.26119E+04
  3.39535E+04 -1.63361E+04  4.07783E+04  6.60968E+03  2.39992E+04  1.58732E+04  9.49878E+03  3.43815E+04
 -1.59335E+04  2.83477E+04 -2.43957E+04  1.39507E+04 -2.16722E+04 -1.20428E+04 -2.25207E+03 -1.47753E+04
  4.89947E+03 -5.55861E+03 -3.53311E+03  1.25290E+04 -1.63071E+04  6.24599E+03 -1.58279E+04 -6.12420E+03
 -1.22382E+04 -1.47970E+04  7.23129E+03 -2.49106E+04  1.63669E+04 -2.06532E+04  1.76916E+04 -3.46750E+03
  1.29499E+04  1.06221E+04  5.51032E+02  1.96427E+04 -1.95192E+04  7.45793E+03 -1.96668E+04 -2.45514E+03
 -1.22602E+04 -1.71630E+04 -1.62982E+03 -2.05818E+04  9.36323E+03 -1.46301E+04  2.62727E+04 -8.42099E+03
  2.03827E+04 -6.98563E+02  1.46091E+04  3.68771E+03  7.70358E+03  5.44395E+02  5.78118E+03 -2.11013E+03
  1.65783E+04  4.94457E+03  2.19217E+04  1.59690E+04  1.34092E+04  3.18599E+04 -1.85930E+03  3.73614E+04
 -2.01655E+04  3.02395E+04 -3.48161E+04  1.60335E+04 -3.61016E+04 -7.36682E+03 -2.96729E+04 -2.15679E+04
 -1.65224E+04 -2.97416E+04  3.24865E+03 -2.80830E+04  2.24826E+04 -1.09613E+04  2.14360E+04  5.41460E+03
  1.16206E+04  1.39016E+04 -1.10360E+04  1.55307E+04 -1.87521E+04  7.88961E+03 -1.32168E+04 -4.74693E+03
 -2.34961E+03 -1.54932E+04  3.10738E+03 -1.72762E+04  1.24416E+04 -2.20991E+02  9.24620E+02  1.09009E+04
 -5.80214E+03  5.30824E+03 -7.47238E+03 -8.03754E+03 -8.86304E+02 -1.56422E+04  9.78659E+03 -1.65883E+04
  2.31360E+04 -1.04092E+04  1.67158E+04  3.21273E+03  1.49242E+04  1.84450E+04  4.81933E+03  2.15421E+04
 -3.40953E+03  2.31498E+04 -1.70734E+04  1.60004E+04 -1.61481E+04  4.37464E+03 -1.18335E+04 -2.87523E+03
 -8.15341E+03 -6.23448E+03 -2.97293E+02 -1.57463E+03 -3.98453E+03  7.13554E+03 -3.18736E+03  2.24334E+03
 -1.42760E+04  2.94758E+03 -1.49431E+04 -7.21226E+03 -6.58490E+03 -1.78789E+04  1.10396E+04 -1.00247E+04
  1.46384E+04 -2.17018E+03 -1.11705E+03  4.49267E+03  1.98108E+02  3.59429E+03 -2.99962E+03  3.18676E+02
 -3.14009E+03 -7.52210E+03 -6.63682E+01 -6.96101E+03  8.38274E+03 -1.48828E+04  1.60762E+04 -1.14590E+04
  1.44923E+04  2.62510E+03  1.52475E+04  6.77932E+03  6.53529E+02  1.07345E+04 -1.13273E+04  8.87062E+03
 -1.23832E+04  3.49761E+03 -8.17679E+03  3.11671E+03 -1.96851E+03 -1.45641E+03  7.16907E+03 -2.11237E+02
 -7.47599E+02  3.71007E+03  1.72957E+03  1.20526E+04 -8.07925E+03  1.42457E+04 -1.38186E+04  6.56978E+03
 -1.24888E+04 -6.15920E+03 -2.38970E+03 -9.73805E+03  8.24667E+03 -1.98987E+03  1.12140E+04  1.01677E+03
  5.90383E+03  6.90363E+02 -4.87152E+03  5.51456E+03 -1.36364E+04  2.42797E+02 -1.16044E+04 -5.62703E+03
 -7.29465E+03 -9.37430E+03 -1.53331E+03 -1.39447E+04  9.02099E+03 -9.59593E+03  1.20713E+04  1.20551E+03
  6.68101E+03  1.00655E+04  3.61563E+02  1.25394E+04 -7.00684E+03  4.48910E+03 -4.72143E+03 -1.08314E+04
 -1.06838E+04 -1.03425E+04  1.28436E+03 -9.56055E+03  4.68170E+03 -1.31935E+04  4.71977E+03 -5.20826E+03
  7.70374E+03  2.62833E+03 -1.16420E+03  2.67650E+03  1.25631E+03 -1.89458E+03  6.39517E+03 -4.73434E+03
  9.21813E+03 -6.11333E+03  5.83314E+03  4.22888E+03  1.39910E+04  8.59316E+03  3.31827E+03  1.77587E+04
 -5.55435E+03  1.73617E+04 -1.30507E+04  1.48102E+04 -1.53243E+04  6.67046E+02 -1.01720E+04 -5.29234E+03
 -7.17693E+03 -1.41413E+04  6.72825E+03 -6.72758E+03  1.28384E+03 -6.42874E+03  9.01645E+03 -8.69392E+02
  3.23333E+03  8.48266E+01 -1.05283E+03 -3.57692E+03  1.33328E+03  3.45075E+02  7.74744E+03 -1.23812E+03
  1.26074E+04  2.07008E+03  2.67676E+03  2.02519E+03 -3.08248E+03  5.64045E+03 -4.80445E+03  9.77418E+03
 -7.55917E+02  5.52779E+03 -4.64561E+03 -4.16922E+03  8.99585E+02 -9.55356E+03  5.32423E+03 -1.17966E+04
  9.07325E+03 -1.28271E+03  1.70129E+04  4.98781E+03  7.80603E+03  8.05435E+03  2.44113E+03  1.45572E+04
 -1.29313E+03  9.46145E+03 -6.24812E+03  1.06208E+03 -5.38225E+03 -3.32649E+02 -8.89306E+02 -1.38871E+03
 -2.21655E+03  1.70666E+03 -1.35458E+03 -9.32319E+02 -7.41108E+03  4.61208E+03 -4.61641E+03 -1.44160E+03
 -1.27579E+03 -6.54171E+03  2.82895E+03 -1.29148E+04  7.02699E+03 -8.66174E+03  1.07313E+04 -7.17149E+03
  9.99888E+03  7.25328E+03  6.11228E+03  7.11083E+03 -5.56612E+03  7.17258E+03 -1.19190E+04  5.82933E+03
 -8.26707E+03  1.68866E+02 -1.46792E+04 -4.79674E+03  1.40183E+03 -6.67712E+03  6.52596E+03 -4.29998E+03
  7.49922E+03 -8.55626E+03  2.14592E+03 -1.84991E+03  3.88938E+03  4.05139E+03  5.02143E+03  1.20718E+03
 -5.72283E+01  3.78449E+03  4.05683E+02  5.05402E+03  4.11968E+03  5.74507E+03  6.00153E+03  5.01566E+03
 -2.89466E+03  7.57510E+03 -5.11836E+03  5.90662E+03 -7.50003E+03  6.76680E+02 -9.90495E+03  1.08144E+03
 -4.14919E+03 -9.80310E+03 -9.28569E+02 -1.11825E+04  8.02087E+03 -1.15644E+04  6.82991E+03 -8.29961E+02
  2.70911E+03  9.90240E+03 -1.70008E+03  6.32714E+03 -2.02992E+03  5.47326E+03 -9.87836E+03  1.28518E+03
 -4.39364E+02 -5.99065E+03  2.84749E+03 -1.44183E+02 -2.56200E+02 -2.88629E+03  1.97801E+03  5.01668E+02
  3.33039E+03 -3.34495E+02 -2.41398E+03  2.16216E+03 -5.00748E+03  1.09812E+03 -2.76118E+03  3.10866E+02
 -1.01170E+03  2.80884E+03  1.93275E+03  4.10232E+02  2.77586E+03  5.41960E+03  2.25780E+03  6.06249E+03
 -5.42303E+02  3.68763E+03 -4.53453E+03 -1.20550E+03 -4.69642E+03  1.96538E+03  4.94191E+02 -2.05453E+03
 -1.30115E+03  8.17043E+02 -7.42332E+02 -1.29785E+03 -6.26668E+03  2.20777E+03  9.01931E+02  1.10993E+03
 -2.25363E+03  2.02210E+03 -1.31082E+03 -2.84091E+03 -3.70660E+03 -2.69197E+03 -1.14461E+03  8.54733E+02
  3.83648E+03 -1.10069E+02  2.85601E+03  3.03538E+03  1.52162E+03  4.78385E+03  2.96004E+03 -1.68842E+03
  4.58594E+02  1.35814E+03 -4.39750E+03 -1.38497E+02  3.78170E+03 -9.10708E+02  2.92132E+03  1.58652E+03
  6.68702E+03 -7.03247E+02  8.05993E+03 -3.18224E+03 -9.58413E+02  4.96205E+03 -4.16057E+02  7.91132E+03
 -6.32965E+03 -1.06809E+03 -1.85050E+03 -2.60365E+03 -6.84711E+03 -3.65839E+03  1.57881E+02 -2.01682E+03
  4.81030E+03 -5.13134E+03  5.28316E+01  3.05587E+03  6.66016E+03  6.52255E+02 -7.17997E+02  1.86009E+03
 -1.83796E+03  3.72002E+03 -3.45507E+03  4.55864E+03 -6.84667E+02 -2.63245E+03 -2.84749E+03  2.54559E+03
 -4.81230E+02  2.28151E+03 -4.59941E+03 -1.29538E+03 -9.67100E+03 -1.25838E+03 -8.98624E+03 -2.40491E+03
 -4.67850E+03 -4.67969E+03  4.82021E+03 -6.31551E+03  2.84185E+03 -9.68016E+03  5.39350E+03 -6.27703E+03
  5.89332E+03  2.07559E+03  3.54423E+03  2.85601E+03 -2.47937E+03  8.79361E+03 -2.69714E+03 -1.48980E+03
 -4.14057E+03  4.22311E+03 -4.32580E+02 -2.42043E+02  2.51090E+03 -2.32491E+03  5.10918E+03  1.80131E+03
 -3.47174E+03  5.39501E+02 -3.68731E+03 -3.59327E+03 -3.54751E+03 -8.00489E+03  7.10064E+02  1.09030E+03
 -5.10287E+02 -5.04965E+03  3.58689E+03 -4.97510E+03  3.95254E+03  6.38709E+03  2.70990E+03  3.77152E+03
 -4.10782E+03  4.07540E+03 -3.16021E+03  9.62576E+02 -4.85357E+03 -4.20025E+03  1.44057E+03 -2.83872E+03
 -4.94333E+03 -9.48668E+03  2.32604E+03 -3.97741E+03  7.11464E+03  1.34801E+03 -3.00411E+03 -4.05185E+03
  1.71843E+03 -8.79270E+02  5.05373E+03  7.80756E+02 -1.21130E+03 -1.50028E+02 -2.39317E+03 -1.91783E+03
  8.51895E+02  2.23277E+03  6.05310E+03 -6.15217E+02 -8.96213E+02  6.41931E+02  3.11328E+02  1.25036E+03
 -5.04162E+03  1.22260E+03 -3.25923E+03  2.17389E+03  5.38601E+02 -4.50300E+03  1.11298E+03 -1.03137E+03
  6.21899E+03 -4.51786E+03  2.70077E+03 -5.07092E+02  3.28508E+03  2.65324E+03  6.47813E+03  6.63200E+03
  2.92879E+03  1.33681E+03 -1.35253E+03 -3.05212E+03 -3.19122E+03 -1.49055E+03 -1.74209E+03  2.12038E+03
  1.60380E+03 -2.79727E+03 -6.11129E+03 -3.46947E+03 -3.62236E+03  3.69542E+03 -5.62175E+03  1.93140E+03
 -5.90993E+03 -5.52687E+02 -2.81610E+03 -5.64885E+03  2.41879E+03 -4.79222E+03  4.53430E+03 -4.26432E+03
  4.00838E+03  3.27896E+03 -1.72642E+03  1.00317E+03  2.16767E+03  4.00597E+03 -7.65114E+03 -3.92163E+03
