 $NMID ID='MM_0lb_SNR50_19hz_g55_1.RAW', FMTDAT='(8E13.5)'
 TRAMP=1., VOLUME=1. $END
  3.11326E+05  1.72288E+03  3.37089E+05  2.48278E+05  8.45540E+04  3.37232E+05 -1.34549E+05  2.52365E+05
 -1.90448E+05  8.47815E+04 -1.10909E+05 -3.16510E+04  9.46413E+02 -4.59562E+04  5.26096E+04 -6.06054E+02
  3.45137E+04  5.52099E+04 -2.10190E+04  7.94016E+04 -6.34113E+04  5.95732E+04 -8.24596E+04  3.15036E+04
 -7.83301E+04 -1.14451E+04 -5.64731E+04 -5.34872E+04 -1.29529E+04 -6.51152E+04  2.99496E+04 -4.54225E+04
  4.21396E+04 -5.17673E+01  1.50256E+04  5.01311E+04 -3.37610E+04  4.42052E+04 -6.75126E+04 -9.19696E+02
 -5.23683E+04 -5.77470E+04 -3.05448E+03 -7.53227E+04  3.19149E+04 -5.74179E+04  4.65981E+04 -1.34156E+04
  4.19363E+04  1.35767E+04  2.70062E+04  2.54708E+04  1.88937E+04  2.79167E+04 -2.16459E+03  2.39952E+04
 -2.19106E+04  1.33315E+04 -1.59899E+04 -3.26877E+03  2.08388E+02 -3.84593E+03  2.21391E+04  1.07856E+04
  6.23461E+03  3.26665E+04 -3.13186E+04  3.41862E+04 -6.18606E+04  7.47938E+01 -5.50779E+04 -4.28549E+04
 -1.12203E+04 -6.06997E+04  4.01448E+04 -4.45010E+04  5.84021E+04 -1.58192E+03  3.64093E+04  3.18621E+04
 -4.91132E+03  3.59565E+04 -2.84973E+04  1.23035E+04 -2.81095E+04 -3.33449E+03 -1.65135E+04 -7.27589E+03
 -8.37687E+03 -8.43414E+03  1.95447E+02 -1.55632E+04  9.05949E+03 -2.43066E+04  1.49078E+04 -1.07514E+04
  1.23722E+04  5.66432E+03 -3.61291E+03  1.57728E+04 -2.56851E+04 -7.59494E+03 -1.08674E+04 -2.89383E+04
  1.90453E+04 -3.88862E+04  4.42078E+04 -1.97953E+04  3.51152E+04  2.12665E+04  1.46785E+04  4.30544E+04
 -1.46160E+04  3.25027E+04 -2.13963E+04  5.38310E+03 -1.09679E+04 -2.79128E+04  2.43828E+04 -3.15453E+04
  4.28366E+04 -7.74300E+03  3.15051E+04  1.93190E+04  1.39507E+04  3.81769E+04 -9.98231E+03  4.91454E+04
 -2.27680E+04  3.09230E+04 -3.55052E+04  6.23752E+03 -3.91265E+04 -1.60360E+04 -2.15581E+04 -3.57652E+04
  6.33505E+03 -3.36736E+04  3.44705E+04 -1.29287E+04  2.69420E+04  7.20718E+03  2.66357E+03  1.83972E+04
 -1.20960E+04  8.65477E+03 -1.23399E+04 -8.51719E+03  3.59936E+03 -1.51957E+04  1.95319E+04  9.25938E+03
  1.19799E+04  2.27637E+04 -4.80109E+03  2.01458E+04 -2.28747E+04  8.21853E+03 -2.31091E+04 -8.68004E+03
 -1.33783E+04 -1.64137E+04 -7.93039E+03 -1.76195E+04  2.42042E+03 -1.70289E+04  1.21979E+04 -1.28597E+04
  2.01332E+04 -1.28925E+04  3.38623E+04  4.75431E+03  1.91799E+04  1.36162E+04  2.77189E+03  3.64683E+04
 -1.37248E+04  2.81262E+04 -2.31237E+04  1.04134E+04 -1.84305E+04 -1.01810E+04 -4.31667E+03 -1.31945E+04
  6.39149E+03 -3.74888E+03 -1.55525E+03  7.96921E+03 -1.57518E+04  5.94099E+03 -1.30807E+04 -7.56475E+03
 -9.71076E+03 -1.74629E+04  2.27360E+03 -1.88184E+04  1.22620E+04 -1.11514E+04  1.21159E+04 -7.30416E+03
  6.70966E+03  1.24802E+04  7.00479E+02  1.48778E+04 -1.24156E+04  1.11854E+04 -1.47551E+04 -3.37336E+02
 -8.88905E+03 -1.54235E+04 -1.56696E+03 -2.14044E+04  5.63645E+03 -1.89354E+04  1.41559E+04 -2.57042E+03
  1.27349E+04 -1.85024E+03  8.87414E+03  2.92434E+03  3.13756E+03  1.35399E+02  8.36652E+03 -1.64939E+03
  1.46720E+04  4.94476E+03  1.84242E+04  1.31506E+04  7.71782E+03  2.53492E+04 -7.38638E+03  2.52110E+04
 -1.83785E+04  1.89465E+04 -2.04604E+04  1.33959E+04 -2.25173E+04 -7.33780E+02 -1.96594E+04 -1.32087E+04
 -1.11223E+04 -2.10408E+04  5.93918E+03 -2.14528E+04  1.87558E+04 -1.66168E+04  2.03142E+04  6.49850E+03
  3.62406E+03  7.79847E+03 -1.13031E+04  7.88435E+03 -1.22347E+04  3.90227E+03 -1.22962E+04 -9.19649E+03
 -5.32857E+02 -1.41043E+04  3.82980E+03 -6.72228E+03  7.47946E+03 -5.50612E+03  7.36697E+02  5.85751E+03
 -4.45058E+03 -3.28477E+02 -4.68925E+02 -4.79775E+03  1.68028E+03 -9.26277E+03  7.04681E+03 -9.42747E+03
  1.03120E+04 -3.30562E+03  1.49485E+04  1.03451E+03  1.00231E+04  4.27139E+03  7.99380E+03  1.57084E+04
 -2.99025E+03  1.33515E+04 -6.21307E+03  1.03408E+04 -1.18057E+04  1.46068E+03 -7.33129E+03  2.57317E+03
 -1.62177E+03 -3.25815E+03  3.51002E+02  1.30826E+03 -2.91332E+03  3.13238E+03 -3.96562E+03  3.52496E+03
 -1.01530E+04 -1.77552E+03 -1.15990E+04 -5.20239E+03 -6.94706E+03 -1.12440E+04  4.04845E+03 -1.31303E+04
  9.73859E+03 -3.15371E+03  5.98631E+03  4.39076E+03  4.38516E+03  2.95840E+03 -3.98088E+03 -2.40786E+01
 -1.03691E+02 -3.40171E+03  1.03607E+03 -9.39292E+03  5.62866E+03 -1.03093E+04  9.30167E+03 -1.83557E+03
  9.69603E+03 -3.16745E+03  9.45338E+03  6.08717E+03 -3.48177E+01  6.90797E+03 -4.34479E+03  8.90561E+03
 -2.85336E+03  6.98882E+03 -8.94024E+02  1.09951E+02 -1.99266E+03  4.48429E+02  3.26619E+03  8.56139E+02
  4.23108E+03  5.31738E+03  1.31668E+03  6.50065E+03 -8.40976E+03  6.02786E+03 -5.68459E+03  3.38535E+03
 -9.41639E+03  3.04524E+02 -8.82106E+02 -3.80409E+03  1.01221E+03  3.10666E+03  3.49556E+03  1.43971E+03
  3.12080E+03  4.44040E+03 -2.47259E+03  7.65262E+03 -3.05787E+03  3.56167E+03 -3.93141E+03  2.99677E+03
 -1.05463E+03 -4.88090E+03  1.50229E+03 -9.01634E+03  6.85290E+03 -3.13867E+02  4.65655E+03 -8.61976E+02
  5.26935E+03  7.74570E+03  5.84635E+03  1.26315E+04 -7.39659E+03  4.41147E+03 -9.52953E+03 -2.48599E+02
 -8.08152E+03 -6.54178E+03 -4.65838E+03 -1.72877E+03  3.63329E+03 -7.96892E+02  4.47053E+03 -2.86188E+03
  4.65578E+02 -1.19681E+03  1.07298E+03  9.07987E+02  3.64652E+03 -1.18647E+03 -1.18831E+03 -4.51324E+03
  1.06416E+04 -4.42364E+03  4.14989E+03 -1.94767E+03  4.42039E+03  5.96750E+03 -3.83897E+02  8.01092E+03
  1.15175E+03  4.51918E+03 -9.92261E+03  4.50588E+03 -9.11646E+03  8.40344E+01 -6.83745E+03 -2.78880E+03
 -3.98929E+03 -5.81451E+03 -8.74084E+02 -4.83882E+03  3.94015E+02 -5.02027E+03 -8.34926E+02 -4.82520E+03
  8.75015E+02 -2.59186E+03  1.16216E+03  2.59092E+03  3.39600E+03  5.21136E+02  7.89475E+03  3.15347E+02
  7.49574E+03  3.62772E+03 -2.15423E+02  1.65468E+03 -1.12499E+03  3.38901E+03 -4.39852E+03  4.49422E+03
 -5.20950E+03  1.04542E+03  3.22173E+03 -5.80214E+03 -3.04600E+03 -8.51347E+03  3.91204E+03 -2.61334E+03
  7.04246E+03 -2.96802E+03  6.28489E+03 -1.92805E+03  2.07341E+03  1.89905E+03  5.39034E+03  4.28448E+03
 -3.90443E+03  8.58817E+03 -4.07921E+03  1.34075E+03  1.32832E+03  2.49514E+03  7.33991E+02  8.12135E+02
  6.02952E+02 -2.23496E+02  1.89955E+03  4.08781E+03 -4.95535E+03  2.13267E+03 -6.52138E+03 -1.60882E+03
 -4.37544E+03 -4.09358E+03 -3.84628E+03 -7.77735E+03  7.84440E+03 -1.71501E+03  5.25299E+03  2.76953E+03
  1.80527E+03  3.89482E+03  5.88946E+02  4.41768E+03  7.28888E+01  4.35032E+03 -2.05712E+03  4.51809E+03
 -2.88523E+03  2.34659E+03 -3.54623E+03 -5.50206E+03 -5.07943E+02  2.32225E+02  2.79474E+03 -1.93758E+03
  2.36657E+03 -4.67527E+03  3.82325E+03  4.66316E+02  3.07083E+03  4.92867E+03  3.24202E+03 -1.63603E+03
  5.45038E+03 -5.63037E+02  2.30677E+03 -2.78422E+03  2.08672E+03  2.91497E+03  1.40308E+03  2.33194E+03
  1.67555E+03 -1.76908E+03 -2.30326E+03  4.75338E+03 -3.77002E+03  1.96903E+03 -3.02570E+03 -2.73652E+02
  5.44640E+02 -3.16602E+03 -1.99842E+03 -1.30355E+03  2.72555E+03 -4.71968E+03  7.53517E+03 -3.93875E+03
  5.16155E+03  2.40122E+03  8.30618E+02  2.52553E+03 -8.83873E+02 -1.87095E+03 -2.32811E+03 -4.53978E+03
 -2.00991E+02 -3.95756E+03 -2.40858E+03 -1.02962E+03  4.77786E+03  2.19242E+03 -3.26091E+02  3.67154E+03
 -1.05309E+03 -3.98422E+03  2.56437E+03  1.83673E+03 -4.98788E+03 -2.34749E+02  1.23467E+03  1.13704E+03
  2.16901E+03  2.01187E+03 -2.36866E+02  2.66151E+03  1.29569E+03  2.47546E+03  2.11752E+03  8.29828E+02
  1.08420E+03  3.32337E+03  1.53733E+03 -6.73607E+02 -1.80475E+03 -6.75392E+03  3.09043E+03  7.59818E+02
  2.31653E+03 -8.40369E+02  4.51906E+03 -1.92091E+03  2.35494E+03 -1.59272E+03 -3.37098E+02  2.34970E+03
 -3.55922E+03  1.13976E+03 -1.17116E+03 -8.68518E+02  2.14222E+03 -4.01483E+03 -1.34286E+03 -1.73417E+03
 -3.60920E+03 -6.21730E+02  5.87270E+02 -5.52392E+02  6.84676E+02  4.69906E+02 -2.63385E+03  6.36212E+03
 -1.95310E+03  1.69119E+02 -3.53710E+03  2.40999E+03  4.15344E+02 -3.33648E+03 -1.89287E+03 -4.49742E+02
  4.78956E+03 -4.84668E+02  3.95515E+03  3.51255E+03  4.51712E+03 -6.42949E+02 -6.74472E+01 -8.64031E+02
 -3.75780E+03  1.11323E+03 -1.00358E+03 -8.40309E+02  1.26186E+03  2.60136E+03  1.84947E+03  7.03895E+02
 -6.01694E+02  5.75611E+02 -1.94346E+02  4.19304E+03 -2.19051E+03  5.73040E+02  7.29668E+02  1.44797E+03
  3.37117E+03  2.09926E+03 -4.20312E+02 -6.02407E+03  1.26521E+03  2.09918E+03 -4.77953E+03  1.84321E+03
 -2.05940E+03  2.83631E+03 -4.41092E+03  2.00466E+03 -4.61935E+03 -3.27934E+03 -2.30778E+03 -3.58299E+03
  6.75615E+02 -1.48864E+03  1.09314E+03 -2.09545E+03  2.87181E+02 -2.60390E+03  5.03104E+03 -3.52080E+03
  2.18403E+03  3.66800E+03 -4.72348E+02  5.17381E+03 -3.10218E+03 -5.84209E+02 -1.62559E+03 -1.37195E+03
  2.84174E+03  9.84187E+02 -3.60601E+03 -6.80371E+03  1.42108E+03  1.85353E+03  7.08441E+03 -6.23560E+02
 -1.46369E+03 -3.54918E+03 -4.11923E+03  2.29093E+02 -2.05196E+02 -2.65646E+03  4.40560E+03 -1.02432E+03
  4.38892E+03  2.23907E+03  1.23052E+02 -6.37470E+03 -1.79725E+03  9.04907E+02 -1.50162E+03  1.87236E+03
 -2.49094E+03  2.76585E+03 -4.56956E+03  1.93686E+03 -2.47587E+03  1.97418E+03 -1.46919E+03 -9.19831E+01
  4.16295E+02 -1.87177E+02 -1.36909E+02 -4.07458E+03  1.88850E+03  2.82096E+02 -3.32324E+02  2.54497E+03
  2.04123E+03 -3.91977E+03 -1.40442E+02  3.57496E+03  2.56617E+03 -4.27919E+02 -3.06910E+02 -1.43681E+03
  1.90240E+03 -1.93146E+03  6.52012E+02 -1.38325E+02  8.68670E+02 -1.40405E+03 -4.49395E+02  3.36448E+03
 -4.73385E+02  6.55236E+02  1.64968E+03 -4.22480E+03  1.15276E+02  2.81073E+03 -1.17829E+03 -4.77715E+03
 -6.27553E+02 -1.47435E+03 -2.81681E+03 -2.63934E+03  2.39832E+03 -1.35090E+03 -1.75671E+00  3.41479E+03
  4.43440E+03 -6.22929E+02 -3.48292E+03  1.98240E+03  6.14194E+02 -1.00798E+03 -1.42282E+03 -2.92994E+03
  1.63073E+03  1.27029E+02 -2.47806E+03 -6.43326E+02  1.06726E+03 -2.13175E+03 -7.99702E+02 -2.09477E+03
 -3.90401E+03 -2.28463E+03  1.57758E+03 -1.50667E+03 -1.05346E+03 -5.67583E+02 -6.28101E+02 -2.03391E+03
  4.35303E+03  3.97127E+03 -1.25876E+03  3.25099E+03 -2.26657E+03  1.08529E+03 -3.03402E+03  1.37319E+03
