 $NMID ID='MM_0lb_SNR50_20hz_g40_62.RAW', FMTDAT='(8E13.5)'
 TRAMP=1., VOLUME=1. $END
  3.08348E+05 -1.71620E+03  3.35335E+05  2.49462E+05  8.72286E+04  3.38182E+05 -1.37510E+05  2.51548E+05
 -1.89506E+05  8.07668E+04 -1.06835E+05 -3.51095E+04  1.36465E+03 -4.90889E+04  5.09500E+04  3.75563E+03
  3.72268E+04  4.90634E+04 -1.50279E+04  7.35201E+04 -6.20995E+04  6.48926E+04 -8.04634E+04  2.81375E+04
 -7.72233E+04 -1.08800E+04 -5.57650E+04 -4.79070E+04 -1.63165E+04 -6.76654E+04  2.72111E+04 -4.21063E+04
  4.03805E+04  3.64779E+03  1.81070E+04  4.93505E+04 -3.66119E+04  4.79526E+04 -6.75536E+04 -4.80580E+03
 -5.08080E+04 -5.52156E+04 -5.49851E+03 -7.53496E+04  3.64547E+04 -5.46927E+04  4.26030E+04 -2.04188E+04
  4.13953E+04  1.18230E+04  3.01951E+04  2.11571E+04  1.91434E+04  2.86059E+04 -7.82771E+03  2.51482E+04
 -2.43255E+04  1.31363E+04 -1.99692E+04 -5.51707E+03  2.48120E+03 -6.28818E+03  1.81800E+04  1.07471E+04
  1.22815E+04  2.93487E+04 -2.87153E+04  3.17909E+04 -5.98016E+04  2.57527E+03 -4.93708E+04 -4.39695E+04
 -1.62596E+04 -5.85814E+04  3.87178E+04 -4.37111E+04  5.12571E+04 -1.47226E+03  3.19178E+04  2.81000E+04
 -6.27979E+03  3.04127E+04 -3.19483E+04  1.45125E+04 -2.52870E+04 -8.54419E+03 -1.17710E+04 -1.16555E+04
 -7.86909E+03 -1.27467E+04 -1.66493E+03 -1.16845E+04  3.63907E+03 -2.11162E+04  1.07201E+04 -1.75518E+04
  1.79811E+04  3.83889E+03 -1.03585E+03  1.03010E+04 -1.88954E+04  3.83493E+03 -1.18606E+04 -2.85284E+04
  2.18041E+04 -3.81858E+04  3.72363E+04 -1.87567E+04  4.41604E+04  1.85098E+04  1.02682E+04  3.87400E+04
 -1.75348E+04  3.26463E+04 -2.14349E+04  2.36835E+03 -9.98549E+03 -2.68723E+04  1.76860E+04 -2.89521E+04
  3.93973E+04 -3.95935E+03  3.27904E+04  2.23421E+04  1.21344E+04  3.54850E+04 -1.11194E+04  4.39263E+04
 -2.64205E+04  2.58064E+04 -3.42032E+04  5.52066E+03 -3.31092E+04 -1.21591E+04 -1.56889E+04 -3.49969E+04
  7.47863E+03 -2.78425E+04  2.95259E+04 -7.87862E+03  2.67877E+04  9.62592E+03  1.99561E+03  1.65985E+04
 -1.42691E+04  7.77216E+03 -8.68003E+03 -1.22220E+04  1.04727E+04 -8.99598E+03  1.48906E+04  1.04444E+04
  9.50875E+03  1.88682E+04 -1.18472E+04  1.79990E+04 -2.26618E+04  6.64070E+03 -2.10650E+04 -6.75416E+03
 -2.00182E+04 -1.66594E+04 -1.07546E+04 -1.92205E+04  4.92696E+03 -8.99179E+03  9.94091E+03 -1.36881E+04
  1.83670E+04 -1.16963E+04  2.01802E+04  1.40892E+03  1.63724E+04  1.40582E+04  1.38152E+03  2.83663E+04
 -1.13759E+04  2.65938E+04 -2.26676E+04  9.81739E+03 -2.04290E+04 -8.82198E+03  1.48782E+02 -1.56293E+04
  4.23946E+03 -4.27467E+03  5.72951E+02  3.55946E+03 -1.22261E+04  6.50993E+03 -1.25062E+04 -6.66502E+02
 -6.46071E+03 -1.02874E+04  2.53907E+03 -1.85825E+04  1.47407E+04 -1.11801E+04  1.34825E+04  2.13495E+03
  5.30810E+03  7.87750E+03  1.11476E+03  1.55927E+04 -8.70843E+03  9.60521E+03 -1.63204E+04 -2.02592E+03
 -1.39829E+04 -1.87015E+04 -5.39919E+02 -1.45876E+04  8.91329E+03 -1.46809E+04  1.02247E+04 -8.26432E+03
  1.22800E+04 -9.12089E+02  1.01778E+04  8.90187E+03  1.97606E+03  2.18121E+03  4.22931E+03  1.84039E+03
  1.09056E+04  3.06524E+03  9.06246E+03  8.18480E+03  3.77755E+03  2.32043E+04 -7.79870E+02  2.51010E+04
 -1.34144E+04  1.87700E+04 -2.07360E+04  8.39214E+03 -1.93988E+04  2.76316E+01 -2.08138E+04 -1.03589E+04
 -8.79201E+03 -1.63890E+04  8.01604E+03 -1.79136E+04  1.40471E+04 -1.00586E+04  1.31669E+04  3.87879E+03
  6.54256E+03  4.67208E+03 -3.19636E+03  8.51810E+03 -1.24468E+04  1.90539E+03 -1.12476E+04 -1.11881E+04
 -2.73109E+03 -1.18875E+04  6.16779E+03 -1.18064E+04  1.27035E+04  2.08021E+03  8.25086E+02  4.41012E+03
 -3.34058E+03  2.10721E+03 -4.90123E+03 -3.42003E+03  2.15846E+03 -6.61041E+03  8.71390E+03 -1.17386E+04
  7.44730E+03 -3.44752E+03  7.32675E+03  3.30940E+03  1.05428E+04  9.43738E+03  6.85161E+03  8.75760E+03
  1.92376E+03  1.49979E+04 -7.96125E+03  4.14187E+03 -8.62105E+03  3.71208E+03 -6.26972E+03 -3.55580E+02
 -5.82219E+03  9.39650E+01  3.34792E+03  3.56107E+03 -3.00340E+03  4.47707E+03 -3.20512E+03  3.07346E+03
 -9.74531E+03  2.78743E+02 -7.78729E+03 -3.29241E+03 -4.00709E+03 -1.13875E+04  5.18573E+03 -6.71318E+03
  3.55803E+03 -1.19117E+03  4.43353E+03  6.48592E+03  2.22377E+02  3.90491E+03 -3.84626E+03 -3.20246E+03
  2.61856E+03 -9.11965E+03 -1.28157E+03 -5.04696E+03  4.37317E+03 -8.51413E+03  9.59237E+03 -4.17962E+03
  1.16194E+04  9.45937E+02  8.41794E+03  5.81549E+03  4.57190E+03  6.69043E+03 -7.30858E+03  8.93070E+03
 -4.38302E+03  5.17461E+03 -2.20926E+03 -3.85237E+02 -3.25095E+02  1.77819E+03  3.46471E+03 -2.81997E+03
  5.75080E+03  2.32089E+03  4.83644E+02  6.20339E+03  2.99028E+02  7.32268E+03 -5.09565E+03  1.97386E+03
 -6.25440E+03 -5.00048E+03  3.68191E+03 -3.19948E+03  2.38510E+03 -3.13548E+03  3.80335E+03 -6.49910E+02
  3.18314E+02  9.89258E+02 -2.08436E+03  1.63299E+03 -3.34442E+03  3.71336E+03 -4.12077E+03 -4.60071E+03
 -3.75401E+03 -6.39638E+03  3.01555E+03 -3.86569E+03  3.65658E+03 -5.35651E+03  5.05560E+03  4.66015E+03
  4.33361E+03  5.10992E+03 -1.34880E+03  4.95077E+03 -8.71800E+02  7.28217E+02 -2.63996E+03  7.73488E+01
 -5.18417E+03 -6.00118E+02 -2.28539E+03 -8.66918E+03 -9.09922E+02 -6.79887E+02 -2.54875E+03 -3.96725E+03
  1.80703E+03  1.27378E+03 -3.14044E+03  4.25377E+03 -5.35459E+03  1.35686E+03  3.86911E+02 -1.23006E+03
  2.78094E+03 -1.04831E+03  3.26885E+03  5.29801E+00  3.15713E+03  7.93844E+02  6.83973E+03  2.88848E+03
  4.50948E+02  6.34411E+03 -7.18036E+03  5.11036E+03 -9.87274E+03  1.11394E+03 -5.54165E+03 -1.80681E+03
 -4.20518E+03 -9.51968E+03 -1.13497E+03 -6.68867E+03 -6.43809E+02 -4.28715E+02  2.19984E+03 -7.02372E+03
  1.19238E+03 -1.60422E+03  2.29345E+03 -2.42082E+01  5.32497E+03  2.99172E+03 -4.82526E+02 -7.28817E+02
  3.94395E+03  2.93729E+03 -1.43447E+03  1.71933E+03 -1.36370E+03  4.43244E+03 -5.15219E+03  9.56234E+02
 -3.76295E+03 -1.73678E+03  2.01254E+02  5.48159E+02  1.48415E+03 -3.37299E+03 -2.24451E+02  2.36366E+03
  3.81691E+03 -3.89484E+03  4.53461E+03 -3.54520E+03  5.56214E+03  2.99004E+03 -6.77625E+02  5.88533E+03
 -3.20363E+03  7.33864E+03 -3.05677E+03  7.72254E+02 -1.64380E+03 -3.75156E+03  4.36589E+02  3.58297E+03
  5.06822E+01 -1.28760E+03 -4.50225E+03  3.18831E+03 -4.78600E+03  3.48983E+03 -4.50664E+03 -4.94250E+03
 -2.43255E+03 -3.76787E+03 -1.98107E+03 -5.69760E+03 -6.07678E+02 -7.78844E+02  3.57500E+03 -9.98611E+02
  8.01386E+03  1.85418E+03  7.66284E+02  3.96781E+03  2.14145E+02  2.18841E+03 -2.00111E+03  2.76727E+03
 -1.76466E+03 -8.46588E+02 -2.24038E+03  2.68384E+03  1.57170E+03 -2.92604E+03  1.55671E+02 -7.85477E+02
 -1.82489E+03 -5.93860E+03  2.32238E+03  8.06406E+02  4.54435E+02 -2.17835E+03 -1.25322E+03  4.12869E+03
 -1.07901E+02  8.57244E+02 -9.98973E+01  2.48811E+03 -3.20400E+03  5.79952E+03 -1.03839E+03  8.21291E+02
 -8.08995E+01  2.01771E+03 -3.21732E+03  1.76282E+03  3.97622E+02  1.67332E+03 -4.36028E+03 -2.00097E+03
 -1.61745E+03  2.37782E+02  2.60618E+03 -2.57973E+03  3.26186E+03 -1.65030E+03 -2.90512E+03 -5.95466E+02
  3.38303E+03 -1.49181E+03 -2.15229E+03  1.71929E+03 -1.05755E+03  1.30793E+03 -2.59596E+03  3.52932E+02
  3.18239E+03  1.70501E+03  9.21458E+02 -1.06719E+03  1.28498E+03 -3.67778E+03  4.62096E+03  9.05247E+02
  1.32516E+03  1.42586E+03 -7.35260E+02 -6.32785E+02  1.20378E+03  3.26719E+02 -1.21215E+02 -4.33383E+02
  1.72883E+03 -2.49621E+03  6.98144E+02 -3.54132E+03  4.11229E+03 -2.09762E+03  1.68696E+03  6.49424E+03
  8.69156E+02 -4.75142E+02  4.86249E+01  1.12046E+03 -2.52043E+03 -1.90567E+03 -1.15416E+02 -2.88313E+03
  2.45708E+03 -1.70732E+02  5.56691E+02 -1.60727E+03  5.08613E+03  2.63899E+03 -1.00028E+03 -4.25931E+03
 -2.67247E+03 -1.75730E+03 -2.36693E+03 -9.97064E+02  3.02677E+03 -4.12120E+03 -2.47184E+03 -5.79899E+02
 -2.13784E+03 -4.55983E+03  3.08454E+03  5.72765E+02  2.61490E+03 -3.60850E+03 -1.42847E+03  2.79126E+03
 -2.69112E+03 -9.32573E+02 -8.55061E+02 -4.64872E+03  1.09747E+03 -3.83843E+03  3.78455E+03 -2.16010E+03
  2.37436E+03 -8.89465E+02  4.29661E+03 -4.57430E+03  1.35494E+03  2.77129E+03 -6.44799E+02 -9.36056E+02
  1.44206E+03 -4.99392E+03 -4.94244E+03 -4.00385E+03 -1.61153E+03  1.36895E+03  4.90701E+03  1.91237E+02
  1.17932E+03 -1.12839E+03 -2.81534E+02  3.09536E+03  1.19694E+03  1.18839E+03 -9.98260E+02 -3.57649E+02
  6.10001E+02  3.79691E+02  5.04276E+01 -1.98727E+03 -9.29553E+02  4.44969E+02 -2.06459E+02 -7.16492E+03
  6.94587E+01 -4.41034E+02 -2.24346E+02 -6.94339E+02  2.36819E+02  6.89461E+03 -5.17951E+03 -1.34591E+03
 -2.32367E+03 -6.70847E+03 -1.40045E+03  5.00049E+02 -1.49093E+02 -2.73403E+03  5.07934E+03  1.80845E+02
  2.57067E+03  1.58341E+03 -2.28730E+02  1.11720E+03  9.58473E+02 -2.85039E+03 -1.85737E+03 -2.15120E+02
 -2.43805E+03  3.35625E+03  2.94797E+03  7.62075E+03 -1.02429E+03  2.71722E+03 -1.08529E+03 -3.43353E+03
 -4.73997E+03 -4.15724E+03 -1.45845E+03  2.13337E+03  1.07429E+03 -4.20689E+02 -2.20063E+03 -2.64576E+03
 -1.64051E+02  1.13745E+03  6.44752E+02  3.61764E+03 -1.71395E+03  8.53501E+02 -4.54988E+01  2.02078E+02
 -5.04833E+01 -4.22552E+03  3.71801E+02  2.98616E+03 -1.41231E+03 -1.59406E+02 -2.47087E+03 -3.29615E+03
  1.86678E+03 -1.56599E+03 -3.33447E+03 -2.10125E+03 -1.32621E+03  4.56152E+03 -3.94545E+03  5.12029E+03
  2.32086E+03 -4.10316E+02  1.03928E+03 -1.84908E+03  3.47535E+03  1.92372E+03  1.31319E+03  2.54838E+03
  8.44630E+02  4.79527E+03 -2.07442E+03 -1.89899E+03 -3.67767E+03  3.88752E+03 -8.72874E+02 -1.11570E+03
 -1.13564E+03 -1.24670E+03  8.73195E+02 -6.12736E+02  5.83499E+02 -1.29232E+03 -3.15076E+03  4.00645E+03
  8.14707E+02 -5.21267E+03  1.80457E+03  5.78953E+03  2.59288E+03 -1.36261E+03  1.30211E+03 -4.75079E+02
  2.44191E+03  3.36864E+03  9.37315E+01  2.30565E+03 -1.63802E+02  2.48071E+03  4.93050E+02  2.81191E+02
 -2.12639E+03  7.58295E+02  1.20869E+02  1.28647E+03 -6.43749E+03 -1.16493E+02 -2.21113E+03  5.07942E+02
 -1.47609E+03 -6.46206E+02 -8.74611E+02 -1.06603E+03  2.61590E+03 -1.10127E+03 -1.86403E+03 -3.38895E+03
 -4.45910E+03  2.12321E+03 -1.97486E+03 -2.67740E+02 -8.64904E+02  2.74559E+03 -2.53889E+03  1.75146E+03
