 $NMID ID='MM_0lb_SNR50_12hz_g40_84.RAW', FMTDAT='(8E13.5)'
 TRAMP=1., VOLUME=1. $END
  3.14014E+05  2.13120E+03  3.38949E+05  2.50836E+05  8.84725E+04  3.34924E+05 -1.35508E+05  2.56094E+05
 -1.89334E+05  8.75227E+04 -1.16648E+05 -3.80285E+04  1.66707E+03 -5.31257E+04  5.33295E+04  9.21445E+01
  3.27474E+04  5.69909E+04 -1.58423E+04  7.59221E+04 -6.18064E+04  6.12807E+04 -7.99519E+04  3.27268E+04
 -8.30962E+04 -7.60571E+03 -5.27945E+04 -5.30822E+04 -1.69731E+04 -6.82667E+04  2.91440E+04 -4.59850E+04
  3.70122E+04  5.02878E+03  1.13123E+04  5.06705E+04 -3.48903E+04  4.91315E+04 -6.83918E+04 -3.22755E+03
 -5.29546E+04 -6.09766E+04 -9.14905E+03 -7.68441E+04  3.37782E+04 -5.19525E+04  4.95102E+04 -1.66543E+04
  4.31293E+04  9.01499E+03  3.48492E+04  3.00571E+04  1.81906E+04  3.35361E+04 -7.94417E+03  2.98188E+04
 -2.25362E+04  9.16690E+03 -1.77123E+04 -8.47440E+03  3.22840E+02 -8.15528E+03  2.38415E+04  1.39764E+04
  6.84254E+03  3.64077E+04 -3.23026E+04  3.70024E+04 -6.06703E+04 -2.76026E+03 -5.53733E+04 -4.49333E+04
 -1.37818E+04 -6.33278E+04  3.94224E+04 -4.55080E+04  5.96992E+04 -3.10897E+03  3.37626E+04  3.20149E+04
 -6.32524E+03  4.18927E+04 -3.21023E+04  1.64699E+04 -3.34925E+04 -1.40211E+03 -1.91520E+04 -8.78541E+03
 -6.43050E+03 -1.63877E+04 -2.08131E+03 -2.08024E+04  4.95497E+03 -2.28552E+04  1.74568E+04 -1.32431E+04
  1.15702E+04  6.44758E+03 -8.13184E+03  1.62537E+04 -2.17115E+04 -1.09782E+04 -8.49177E+03 -3.36041E+04
  2.21115E+04 -4.13759E+04  4.68481E+04 -1.84238E+04  4.69450E+04  2.15723E+04  2.10434E+04  4.71743E+04
 -1.72822E+04  3.33481E+04 -2.57241E+04  4.34894E+02 -9.02745E+03 -3.28892E+04  2.13582E+04 -3.17764E+04
  4.60885E+04 -1.29762E+04  3.69396E+04  2.27142E+04  2.27006E+04  4.67528E+04 -7.17441E+03  5.03973E+04
 -3.64444E+04  3.95913E+04 -4.69091E+04  9.46299E+03 -5.12324E+04 -1.75893E+04 -1.94764E+04 -3.53487E+04
  4.97394E+03 -3.68452E+04  2.98007E+04 -1.74605E+04  3.16681E+04  7.71871E+03  4.26406E+03  2.29096E+04
 -1.38186E+04  7.67471E+03 -1.33180E+04 -1.12497E+04  6.35553E+03 -1.70301E+04  1.69014E+04  6.62546E+03
  1.12931E+04  2.34626E+04  2.04226E+02  2.44173E+04 -3.00159E+04  1.00012E+04 -2.96970E+04 -1.28497E+03
 -2.40187E+04 -1.52947E+04 -9.34173E+03 -1.87549E+04  9.21465E+03 -2.26212E+04  1.76027E+04 -1.59698E+04
  2.83628E+04 -1.19584E+04  3.52387E+04  1.34710E+03  2.09305E+04  1.59305E+04  8.99041E+03  3.30549E+04
 -2.17883E+04  2.72987E+04 -2.70424E+04  1.15454E+04 -1.79908E+04 -1.00019E+04 -3.91244E+03 -1.35995E+04
  4.87616E+03 -5.62806E+03 -3.58064E+03  4.35790E+03 -1.92991E+04  4.01808E+03 -1.99738E+04 -4.68794E+03
 -9.85743E+03 -2.10647E+04  9.06188E+03 -2.63225E+04  1.69558E+04 -1.52270E+04  2.26104E+04 -2.76207E+03
  6.89491E+03  1.07937E+04  7.70295E+03  2.05429E+04 -1.91541E+04  8.01058E+03 -1.75818E+04 -2.73473E+03
 -1.10560E+04 -1.48551E+04  3.80301E+02 -2.37912E+04  4.42324E+03 -2.40013E+04  1.75956E+04 -3.02432E+03
  2.17823E+04 -6.90964E+02  1.03997E+04  1.42923E+03  7.19172E+03  1.55276E+03  9.93792E+03 -3.45772E+03
  2.18012E+04  2.30699E+03  2.74789E+04  1.57739E+04  1.55333E+04  3.30513E+04 -3.81139E+03  3.75138E+04
 -1.86233E+04  2.94371E+04 -3.23064E+04  1.57910E+04 -4.22766E+04 -9.04328E+02 -2.98834E+04 -2.12131E+04
 -1.22069E+04 -2.83688E+04  8.96881E+03 -2.27558E+04  2.17687E+04 -1.26941E+04  2.20916E+04  3.29097E+03
  9.40824E+03  1.53247E+04 -1.45377E+04  1.61795E+04 -1.70653E+04  4.10894E+03 -1.64288E+04 -9.98090E+03
 -1.55238E+02 -1.71849E+04  7.18686E+03 -1.53826E+04  7.45670E+03 -2.82412E+03  6.09397E+03  9.63236E+03
 -6.25176E+03  2.13686E+03 -8.34780E+03 -8.22650E+01 -3.80958E+03 -1.16735E+04  7.94206E+03 -1.77177E+04
  2.15514E+04 -4.11835E+03  1.93048E+04  3.81039E+03  1.84016E+04  1.01784E+04  1.09966E+04  1.86080E+04
 -5.30914E+03  3.14140E+04 -1.68490E+04  1.42980E+04 -1.31807E+04 -2.84091E+02 -1.60972E+04 -4.40452E+03
 -5.01626E+03 -8.62783E+03 -3.88199E+03  1.19614E+03  1.60269E+03  2.95192E+03 -6.74267E+03  8.05015E+03
 -9.65655E+03 -2.26505E+03 -1.15294E+04 -8.75494E+03 -2.61696E+03 -1.65342E+04  2.17597E+03 -1.28774E+04
  1.19153E+04 -7.39099E+03  7.36736E+03  6.35469E+02  2.97457E+03  1.10673E+04 -4.95081E+03 -3.84490E+03
 -1.05956E+04 -7.84119E+03 -1.02665E+04 -1.22902E+04  9.69308E+03 -1.48180E+04  2.07560E+04 -7.51048E+03
  1.75951E+04  2.88661E+03  1.25559E+04  6.71265E+03  6.69446E+03  1.31214E+04 -7.21068E+03  1.27678E+04
 -1.26717E+04  2.78504E+03 -9.95307E+02  4.56497E+03  2.03651E+03  5.42927E+01  4.75801E+03 -4.17724E+03
  2.01493E+03 -1.69857E+03  2.19253E+03  8.25850E+03 -4.07878E+03  1.03830E+04 -1.49203E+04  5.52755E+03
 -4.12516E+03 -6.64593E+03 -1.30659E+03 -9.30448E+03  8.54813E+03 -4.79679E+03  7.06110E+03  8.64420E+02
  1.81598E+03  2.32481E+03 -8.85212E+03  9.00814E+03 -7.70151E+03  3.59361E+03 -1.28910E+04 -8.08289E+03
 -2.19994E+03 -9.23049E+03  1.28954E+03 -1.60521E+04  7.17987E+03 -1.02869E+04  8.67022E+03  3.93693E+03
  7.07698E+03  1.42170E+04  2.27535E+03  1.71643E+04 -1.06167E+04  2.36041E+03 -9.02753E+03  8.41400E+02
 -9.66714E+03 -4.55447E+03 -9.21856E+02 -6.71446E+03  3.26658E+03 -9.63767E+03  7.72674E+02 -4.45184E+03
  6.32395E+03  8.26455E+02 -3.89809E+03  5.64678E+03 -4.27434E+03 -5.66222E+03  1.56583E+03  5.16618E+02
  1.37966E+04 -1.15142E+03  1.41332E+04 -2.17010E+02  1.14641E+04  6.74612E+03  6.51057E+03  1.46167E+04
 -3.77000E+03  1.61544E+04 -1.01408E+04  1.09948E+04 -1.49273E+04  2.71709E+03 -1.69258E+04 -1.42839E+03
 -6.16797E+03 -1.08525E+04  2.16041E+02 -1.42911E+04  3.46071E+03 -5.76442E+03  2.11818E+03 -7.14575E+03
  1.53838E+03 -9.99983E+02  3.55191E+02 -1.57389E+03  4.12685E+03  7.94603E+02  4.61512E+02  1.18993E+03
  1.29265E+04  1.89087E+03  1.89742E+03  1.33670E+03  5.89892E+03  4.73245E+03 -1.15929E+04  6.10904E+03
 -9.69760E+03  3.72966E+03 -9.00073E+03 -7.39012E+03 -5.44001E+03 -1.08807E+04  7.10000E+03 -8.89557E+03
  6.09142E+03 -5.48148E+03  1.35224E+04  2.16593E+02  9.40944E+03  1.13021E+04  4.29914E+03  1.34965E+04
 -5.81689E+03  1.06712E+04 -5.20647E+03  7.00107E+03 -5.16944E+03  7.39574E+00  1.54525E+03  1.47783E+03
 -4.77358E+03  6.50672E+02 -3.37410E+03  6.31497E+03 -2.61447E+03 -8.58456E+02 -9.51900E+03 -2.09887E+03
 -4.38136E+03 -9.86733E+03  3.90682E+03 -1.18525E+04  1.18585E+04 -6.18835E+03  7.00241E+03  4.61027E+02
  7.56505E+03  1.54560E+03  8.49177E+03  9.17887E+03 -1.40971E+02  7.72870E+03 -1.01216E+04  7.00353E+03
 -8.34550E+03  2.28770E+03 -4.14206E+03 -8.19089E+03 -1.10952E+02 -8.61647E+03  4.83128E+03 -5.46385E+03
  1.07660E+04 -1.63468E+03  2.90415E+03  4.21189E+03  2.20563E+03  2.23362E+03 -6.84777E+02  2.90449E+03
  4.30412E+03  4.39609E+03  5.65479E+03  2.64087E+03  3.01143E+03  2.82082E+03  6.21493E+02  3.79158E+03
 -3.91393E+03  1.31674E+04 -6.59642E+03  6.80923E+03 -9.82544E+03  4.76135E+02 -9.88810E+03 -2.48273E+03
  1.76537E+03 -7.32100E+03  3.93372E+03 -7.29420E+03  2.69339E+03 -2.66699E+03  6.78145E+02 -2.07420E+03
  6.50603E+03  7.34999E+03 -1.46419E+03  7.73295E+03 -2.92590E+02  6.99049E+03 -8.62063E+03  3.60294E+02
 -1.15508E+03 -8.01024E+03 -2.28300E+03 -2.51677E+03  3.36584E+03 -3.05816E+03  3.24869E+03  2.34926E+03
 -1.39897E+03  2.06513E+03  3.68191E+03  3.71865E+02  3.30027E+03  3.63255E+03 -2.14639E+03  1.38897E+03
 -7.77833E+02 -3.42418E+03  1.36233E+03  2.80235E+03  3.45476E+03  5.98136E+03  1.05001E+03  7.64795E+03
 -8.80326E+03  7.08889E+03 -9.59224E+03 -2.81222E+03 -4.49365E+03 -4.10537E+03 -2.84016E+03 -5.92804E+03
  4.43149E+03 -2.81824E+03  3.46321E+03 -7.75764E+03  8.14162E+02  6.53751E+02  4.58454E+03  4.42259E+03
 -1.30537E+03 -1.91762E+03 -1.38578E+03 -3.61124E+03 -4.32600E+03 -4.69404E+03  4.84866E+02 -7.55144E+03
  8.54402E+02  1.36167E+02  4.17402E+03  9.64208E+02  6.51549E+03  1.20964E+03 -2.58273E+03  4.01443E+03
 -1.21392E+03  5.32178E+03 -1.90874E+03  1.26168E+02  2.48161E+03 -4.94740E+03 -6.25133E+02 -3.08253E+03
  3.13211E+03 -1.92235E+03  5.51238E+03  2.46937E+03  5.47711E+03  4.01118E+03 -3.88067E+03  5.40653E+03
  3.32043E+03  1.87548E+03 -3.54321E+03  1.94924E+03 -3.22061E+03 -4.56998E+03 -3.48251E+03 -8.49431E+03
  4.29930E+03 -1.56849E+03  1.61872E+02 -3.52601E+03 -1.44154E+03  7.85012E+03  5.97190E+03  1.00689E+04
 -3.42252E+03  3.48861E+03 -3.44642E+03  3.52749E+03  5.33146E+02  1.09049E+03  4.55728E+02 -1.74512E+03
  1.01246E+03  3.28618E+03 -6.24546E+03  3.19349E+03 -8.80269E+03 -2.00500E+03 -7.74521E+03 -6.70421E+03
 -4.71249E+03 -1.01033E+04  6.28957E+03 -1.10704E+04  2.03565E+03 -3.57439E+03  8.22536E+03 -4.00347E+03
  3.89168E+03  4.85973E+03 -2.01398E+03  6.51900E+03 -5.59908E+03  4.91193E+03 -2.32849E+03  4.81820E+03
  1.30204E+03  2.58120E+03  2.36028E+03 -9.57211E+02 -5.79113E+01 -1.61116E+03 -1.08128E+03 -2.29042E+03
 -1.79413E+03 -2.89559E+03 -4.11949E+03 -3.09362E+03 -9.63804E+02 -4.17779E+03 -8.98670E+01 -5.13354E+03
 -1.70965E+02 -1.07816E+03  8.15787E+01  7.52964E+03  7.26743E+03  7.07235E+03 -9.86815E+02  5.77908E+03
 -4.08720E+03  2.01686E+03 -6.56853E+03  6.14772E+03 -3.37453E+03 -1.50923E+02 -8.52684E+02 -3.75306E+03
  6.01478E+02 -3.42521E+03  4.30499E+03 -7.05367E+03  3.90180E+03  1.39267E+03  3.29706E+03 -8.01367E+02
  1.52434E+03  2.15581E+03 -2.11844E+03 -1.83584E+03  1.58275E+03  1.21459E+03 -1.99757E+03 -6.88338E+03
 -1.81909E+02 -1.15280E+03  2.84877E+03 -7.74344E+02  5.55192E+02  3.13547E+03 -2.18882E+03  6.50537E+03
  1.14471E+03  2.53114E+03 -5.03764E+03  2.70087E+03 -2.44442E+03 -4.01506E+03  3.19264E+03 -4.81206E+03
  3.72288E+03 -8.91157E+03 -7.96150E+02 -1.29760E+03  4.71097E+03 -6.67033E+02  5.25934E+03  3.74438E+03
 -2.29872E+03  3.80925E+03 -1.44297E+03  2.48200E+03 -2.07595E+03  3.62138E+03 -3.79310E+03 -1.90877E+03
 -2.53109E+03 -3.35258E+03 -6.42485E+03  5.40899E+03 -6.67418E+03  1.06180E+03  9.72950E+02 -1.60279E+03
 -5.30869E+03 -2.00769E+03  7.39921E+02 -4.50704E+03 -5.38931E+02 -4.11944E+03  4.45404E+03  6.00251E+03
  3.08364E+03  5.09705E+03  1.50467E+03  1.87090E+03  1.83337E+03  6.29062E+03 -5.00093E+02 -4.08679E+02
