 $NMID ID='MM_0lb_SNR50_11hz_g55_99.RAW', FMTDAT='(8E13.5)'
 TRAMP=1., VOLUME=1. $END
  3.13675E+05  4.70036E+02  3.38283E+05  2.52106E+05  7.93778E+04  3.37435E+05 -1.31248E+05  2.45578E+05
 -1.91959E+05  8.40682E+04 -1.13100E+05 -3.22157E+04 -1.10350E+03 -4.97987E+04  5.11592E+04 -5.17686E+03
  3.70724E+04  5.13668E+04 -1.46243E+04  7.93546E+04 -6.05971E+04  6.52699E+04 -8.65609E+04  2.61703E+04
 -7.98240E+04 -1.20999E+04 -5.95884E+04 -5.46515E+04 -1.91605E+04 -6.80239E+04  3.29300E+04 -4.79812E+04
  3.52128E+04  5.59317E+03  1.61377E+04  4.83913E+04 -3.62532E+04  5.04143E+04 -6.12425E+04  3.06958E+03
 -4.81689E+04 -5.90557E+04 -1.08934E+04 -8.08875E+04  3.80849E+04 -5.60892E+04  5.45253E+04 -1.77866E+04
  4.52148E+04  1.25412E+04  3.82063E+04  2.94902E+04  1.45976E+04  2.46081E+04 -9.75136E+03  3.05982E+04
 -2.14510E+04  1.20318E+04 -1.62808E+04 -9.47153E+03  8.68604E+03 -9.69575E+03  2.07939E+04  1.42716E+04
  9.77391E+03  3.30304E+04 -3.85972E+04  3.39323E+04 -5.78660E+04 -6.80283E+02 -5.95901E+04 -4.11857E+04
 -7.67202E+03 -6.45244E+04  4.25775E+04 -5.00537E+04  6.15915E+04 -4.07305E+03  4.13010E+04  3.33128E+04
 -1.15201E+04  4.33377E+04 -3.47269E+04  1.79106E+04 -3.31419E+04 -3.73063E+03 -1.57498E+04 -1.39588E+04
 -7.63572E+03 -1.96002E+04  4.43416E+03 -1.30987E+04  9.44052E+03 -2.82643E+04  1.16808E+04 -1.24358E+04
  7.67491E+03  7.70045E+03 -5.62642E+03  1.00503E+04 -2.47614E+04 -4.01050E+03 -1.66769E+03 -3.87524E+04
  2.27815E+04 -4.78348E+04  5.16353E+04 -2.27360E+04  4.99034E+04  1.87742E+04  2.39432E+04  4.84729E+04
 -1.25875E+04  3.49586E+04 -2.50456E+04 -1.07369E+03 -1.45569E+04 -3.10672E+04  2.01848E+04 -3.68171E+04
  4.96165E+04 -1.18401E+04  3.66698E+04  2.06499E+04  1.72215E+04  5.05979E+04 -7.69997E+03  5.44892E+04
 -3.40891E+04  3.91931E+04 -4.43742E+04  5.00402E+03 -4.89897E+04 -1.18955E+04 -2.51976E+04 -3.69068E+04
  4.86081E+03 -4.22689E+04  3.27356E+04 -1.68778E+04  3.47173E+04  1.54574E+04  7.78887E+03  1.95112E+04
 -1.31439E+04  4.89335E+03 -1.33955E+04 -5.03203E+03  6.39707E+03 -1.35706E+04  1.69247E+04  1.39162E+03
  1.88722E+04  2.39280E+04  3.96196E+02  2.29801E+04 -2.09553E+04  1.46979E+04 -3.47120E+04 -6.16762E+03
 -2.49977E+04 -1.58440E+04 -8.72439E+03 -2.85025E+04  6.51728E+03 -2.78286E+04  1.72884E+04 -1.94336E+04
  2.99279E+04 -1.68502E+04  3.42870E+04  8.60360E+03  2.60758E+04  2.39498E+04  3.94643E+03  3.46997E+04
 -2.10687E+04  3.16651E+04 -2.75465E+04  1.20146E+04 -1.58753E+04 -8.31403E+03 -5.98440E+03 -1.67185E+04
  2.76115E+03 -6.27014E+03 -8.14815E+03  1.24439E+04 -2.09916E+04  1.04119E+04 -1.93892E+04 -6.92864E+03
 -1.52651E+04 -2.51410E+04  3.03097E+03 -2.08956E+04  1.38415E+04 -1.59674E+04  2.82147E+04 -3.81673E+03
  1.34173E+04  7.59666E+03 -2.44586E+03  2.28030E+04 -1.69693E+04  1.23323E+04 -1.25758E+04 -3.67938E+03
 -1.64767E+04 -1.54127E+04 -2.12565E+03 -2.26399E+04  8.68101E+03 -1.45449E+04  2.54184E+04 -9.48676E+03
  1.92308E+04  5.46010E+02  1.92003E+04  3.09385E+03  4.28660E+03 -3.61988E+03  1.32646E+04 -3.60062E+03
  1.72459E+04  2.15764E+03  2.20343E+04  1.62497E+04  1.82587E+04  2.90151E+04  7.03518E+03  4.08934E+04
 -2.51420E+04  2.94039E+04 -3.56011E+04  1.87188E+04 -4.35454E+04 -3.82290E+03 -3.65247E+04 -2.45424E+04
 -8.93267E+03 -3.37491E+04  9.05471E+03 -3.07623E+04  2.43044E+04 -1.34080E+04  2.33128E+04  7.54375E+03
  1.21602E+04  1.04085E+04 -7.86044E+03  1.85042E+04 -1.65967E+04  3.69425E+03 -1.65432E+04 -1.20467E+04
  6.38105E+01 -2.12240E+04  1.07999E+04 -1.63263E+04  7.98890E+03  2.19316E+03 -2.34127E+02  5.04957E+03
 -1.08744E+04  5.25907E+03 -1.42166E+04 -7.53900E+03 -3.52797E+03 -1.76275E+04  8.12923E+03 -1.95021E+04
  2.59301E+04 -1.02199E+04  1.66131E+04  3.63038E+03  2.32937E+04  1.62628E+04  8.03994E+03  2.89827E+04
 -3.52866E+03  2.61201E+04 -1.81763E+04  1.93609E+04 -1.88204E+04  2.00811E+03 -8.50555E+03 -9.46825E+03
 -7.87651E+03 -1.28712E+04  3.65207E+02  6.17443E+03 -1.11426E+04  1.86359E+03 -6.58712E+03  2.56627E+03
 -1.60646E+04 -4.08733E+03 -1.26724E+04 -1.51971E+04 -2.33409E+03 -1.41755E+04  7.77279E+03 -1.47449E+04
  1.35734E+04 -6.63418E+03  6.37274E+03 -5.72788E+01  5.36020E+02  3.81003E+03 -7.50671E+03  2.14511E+03
 -1.64255E+03 -2.90781E+03 -1.84633E+03 -1.74731E+04  2.51557E+03 -1.26668E+04  1.74017E+04 -4.72487E+03
  2.82483E+04  5.18864E+03  1.49171E+04  9.78045E+03 -2.93459E+02  2.19435E+04 -1.21119E+04  1.16091E+04
 -1.52537E+04  7.30986E+03 -1.06075E+04 -1.25547E+03  4.70504E+03 -1.87950E+03  1.07324E+04 -1.94798E+03
  1.00234E+04  3.23775E+03  4.59602E+03  8.85832E+03 -6.42401E+03  1.36813E+04 -2.01563E+04  1.51294E+03
 -1.05455E+04 -5.46324E+03  5.16503E+03 -1.48732E+04  5.93216E+03 -1.70879E+03  8.32439E+03  3.23030E+03
  4.35980E+03  5.09582E+03 -1.48183E+04  7.91235E+03 -1.07829E+04  3.22533E+03 -7.69213E+03 -6.93359E+03
 -1.06051E+04 -8.35833E+03  2.55306E+03 -1.78903E+04  1.34232E+04 -6.70390E+03  1.23379E+04  1.17119E+03
  1.00216E+04  1.02079E+04 -4.00501E+03  1.46534E+04 -1.19400E+04  1.00440E+04 -9.07577E+03 -2.00772E+02
 -8.24551E+03 -5.73078E+03 -2.89231E+03 -1.68336E+04  6.37249E+03 -9.90882E+03  8.43026E+03 -4.20432E+03
  5.57673E+03  1.06108E+01  3.55179E+03  2.36448E+02 -3.07310E+03 -7.60303E+03 -3.54011E+03 -2.53166E+03
  1.34746E+04 -7.68484E+03  2.03191E+04  4.05656E+03  1.46580E+04  1.48641E+04  6.82811E+03  1.55882E+04
 -4.87577E+03  2.70876E+04 -1.21425E+04  1.41860E+04 -2.16079E+04  5.73333E+03 -1.52968E+04 -6.82918E+03
 -8.31664E+03 -1.10803E+04 -3.65054E+03 -9.89202E+03  3.63541E+03 -6.46226E+03  5.35102E+03 -3.18793E+03
  6.17604E+03  1.26530E+03 -3.15446E+03  1.40845E+03  2.28185E+02 -4.81504E+03 -2.13639E+03  1.10516E+03
  2.53311E+03  2.81686E+03  9.74804E+03  7.31678E+03 -7.67513E+03  1.15677E+04 -9.54297E+03  6.19828E+03
 -1.33115E+04  3.09862E+03 -8.02755E+03 -1.04446E+04 -5.39773E+03 -1.20736E+04  2.67905E+03 -1.21256E+04
  1.41615E+04 -1.15954E+04  1.73466E+04  2.57087E+03  1.47921E+04  1.20679E+04  2.87104E+02  1.21430E+04
 -7.86440E+03  1.18807E+04 -8.80050E+03  5.55628E+03 -6.02214E+03 -5.22900E+02 -7.26527E+03  2.03488E+02
 -2.16626E+03  1.69589E+03 -4.12364E+03 -1.59250E+03 -7.05123E+03 -1.14693E+02 -5.13669E+03 -5.05520E+03
 -4.31916E+03 -5.04702E+03 -6.71110E+02 -1.17696E+04  1.08838E+04 -9.29449E+03  1.19447E+04 -1.36955E+03
  7.45946E+03 -1.18060E+03  6.26229E+03  6.68842E+03 -1.86202E+03  1.05992E+04 -7.57430E+03  9.99829E+03
 -7.93005E+03 -2.28657E+03 -6.96956E+03 -4.14754E+03 -1.28252E+03 -6.72166E+03  9.64490E+03 -8.83763E+03
  1.46832E+02 -8.96859E+03 -1.73782E+03 -8.18514E+02 -1.32966E+03 -1.38663E+03 -3.33353E+02  2.14792E+03
  8.15974E+03 -1.37930E+03 -3.53063E+02  6.92467E+03  4.69454E+03  3.84562E+03  3.46496E+03  3.51616E+03
 -3.06235E+03  8.04973E+03 -8.77016E+03  1.23277E+04 -1.72418E+04 -1.28024E+03 -1.15544E+04 -8.29811E+03
 -4.69064E+03 -1.25803E+04  2.67648E+03 -1.59869E+04  4.79758E+03 -6.17828E+03  8.13961E+03 -3.35481E+03
  1.13713E+04  4.01826E+03  3.26753E+03  5.61392E+03 -5.88058E+03 -2.88628E+02  2.41726E+03  2.43871E+03
 -8.33245E+02 -1.03193E+04  3.97271E+03 -1.87588E+03  1.00429E+03  1.75241E+03  1.92746E+03  2.00680E+03
  3.80945E+03 -3.60223E+01  3.47345E+03  5.48340E+03 -1.86736E+03  3.78949E+03 -5.85641E+02  3.38687E+03
  3.61227E+03  2.66200E+02  5.84799E+03  4.22899E+03  5.60268E+02 -4.05564E+02  2.37809E+03  5.58322E+03
 -1.19986E+04  5.71474E+02 -4.79602E+03  1.39826E+03 -4.73051E+03 -6.18534E+03 -2.79705E+03 -3.67842E+03
 -3.22078E+03 -1.99883E+03  3.46246E+03 -4.63438E+03  1.92065E+02  1.71995E+03 -1.11989E+03 -3.42122E+03
  1.83995E+03  4.29960E+03 -4.45022E+03 -2.13584E+03  7.91061E+02 -7.54737E+03 -6.12188E+02 -9.32644E+03
  3.02870E+03 -2.03892E+03  6.81559E+03 -3.24748E+03  5.58171E+03  1.76069E+03  2.39115E+02 -1.89869E+03
 -2.22975E+03 -7.97805E+03 -7.79005E+02 -2.54942E+03  4.53257E+03 -4.08786E+03  8.42626E+03  9.26443E+02
  9.97424E+03  1.48056E+03  5.81667E+03  4.54215E+03  7.96314E+03  3.57387E+03 -3.43072E+03  1.04164E+04
 -2.78149E+03  2.46700E+03 -9.43717E+03 -1.95979E+01 -7.45314E+03 -2.09431E+03 -7.99535E+01 -3.91087E+03
  9.09233E+02 -3.74463E+03  6.04078E+03  3.17812E+02 -8.45102E+02  8.02196E+03 -6.02984E+02  4.21024E+03
  4.80937E+03 -4.11598E+03 -1.92453E+03  1.11908E+04 -3.30809E+03 -2.47181E+03 -3.90948E+03  6.15544E+02
  2.72923E+03  4.83045E+03 -4.60989E+03  1.52219E+03 -6.15120E+03  5.55161E+03 -4.53995E+03  4.53970E+02
 -7.75371E+01 -1.05654E+04  5.38637E+03 -1.09813E+04  3.28871E+03 -8.26884E+03  1.21744E+04 -2.29519E+03
  8.87229E+03  3.88711E+03  3.33457E+03  3.35268E+03  3.28287E+03  1.19417E+03 -6.02238E+03  3.24970E+03
 -1.50566E+03 -5.45592E+02 -3.70964E+03 -2.24064E+03 -1.92058E+03 -7.27226E+02  5.68195E+03 -2.10983E+03
  3.14320E+03  1.60713E+03  1.11193E+03  2.25737E+03 -1.25302E+03  1.35482E+03  3.00800E+03 -5.59251E+03
  2.49980E+03 -6.65803E+02  6.28946E+03 -9.46387E+02  6.55451E+03  6.87339E+03  2.36410E+03  7.40616E+03
 -1.00182E+04  5.14420E+03 -6.38837E+03  1.20751E+04 -1.21966E+04  1.80034E+03 -1.22421E+04 -3.62520E+03
 -2.23814E+03 -1.02733E+04  8.14221E+02 -6.81359E+03  6.92151E+03 -1.86619E+03  1.09767E+04 -1.14830E+03
  3.56304E+03 -8.31904E+02  2.30992E+03  3.42382E+03  4.53298E+02 -2.58436E+03  1.26317E+03 -6.05894E+03
 -3.50373E+02 -2.46688E+03  1.41962E+04  3.84607E+03  5.38716E+03  1.99685E+03 -5.86250E+03  3.27361E+03
 -1.58395E+03  4.60657E+03 -1.49678E+02  1.04514E+03 -3.79131E+03 -1.79203E+03 -1.96711E+03 -4.17559E+03
  3.35230E+03 -6.54580E+02  7.27419E+03 -4.45591E+03  2.30272E+03 -3.77751E+02  3.16892E+03  3.71025E+03
  2.78508E+03  9.93513E+02 -5.00437E+03  3.81670E+00 -2.40375E+03  1.11603E+03 -4.98767E+03  1.33210E+03
  4.01194E+03 -1.81467E+03 -5.27500E+03  1.21355E+03 -1.59563E+03  5.30951E+01 -1.78848E+03  2.75322E+03
 -6.25556E+03 -5.09845E+03 -3.72419E+01 -4.46947E+03  6.60970E+02 -9.78971E+03  6.10136E+03  1.25580E+03
  2.93693E+03 -3.05132E+03  3.63523E+03  5.07092E+03  1.73245E+02  5.70335E+03 -6.20313E+03  1.00772E+03
