 $NMID ID='MM_0lb_SNR50_13hz_g50_7.RAW', FMTDAT='(8E13.5)'
 TRAMP=1., VOLUME=1. $END
  3.05198E+05  2.23001E+03  3.37750E+05  2.55918E+05  8.51849E+04  3.35660E+05 -1.28502E+05  2.50150E+05
 -1.88488E+05  8.06109E+04 -1.19081E+05 -3.16598E+04  3.96967E+03 -5.25844E+04  5.36239E+04 -5.79584E+03
  3.22063E+04  5.28565E+04 -2.05394E+04  7.72411E+04 -6.17334E+04  6.27885E+04 -8.68317E+04  3.42649E+04
 -8.37107E+04 -1.28289E+04 -5.47249E+04 -5.45392E+04 -1.29778E+04 -7.26966E+04  2.71421E+04 -4.74122E+04
  4.03838E+04  5.37889E+03  1.48615E+04  4.57285E+04 -3.07612E+04  5.00167E+04 -7.19917E+04  3.46260E+03
 -4.84676E+04 -5.98290E+04 -3.86037E+03 -8.30883E+04  3.21306E+04 -5.62929E+04  5.22767E+04 -1.82715E+04
  4.44653E+04  1.14603E+04  3.59515E+04  2.68077E+04  1.30230E+04  2.60437E+04 -4.52687E+03  2.92732E+04
 -2.46645E+04  1.29271E+04 -2.21120E+04 -1.16447E+04  6.89046E+03 -6.67432E+03  2.69249E+04  1.43940E+04
  9.01033E+03  3.51899E+04 -3.49342E+04  3.82596E+04 -6.19014E+04  1.98810E+03 -5.40169E+04 -4.04695E+04
 -1.89660E+04 -6.58256E+04  4.39760E+04 -4.08223E+04  6.24344E+04 -1.41527E+03  2.97046E+04  3.16308E+04
 -3.51414E+03  3.62876E+04 -3.31382E+04  1.74912E+04 -2.84778E+04 -5.35693E+03 -1.44791E+04 -1.06688E+04
 -9.10850E+03 -1.65392E+04 -2.40987E+03 -1.89903E+04  6.25426E+03 -2.00671E+04  2.22345E+04 -1.28214E+04
  1.17404E+04  3.89279E+03 -1.16465E+04  1.00947E+04 -2.32034E+04 -5.74136E+03 -8.32781E+03 -3.13204E+04
  2.21736E+04 -4.38159E+04  5.08724E+04 -1.93678E+04  4.39240E+04  1.89927E+04  1.37415E+04  4.41408E+04
 -1.19637E+04  3.66424E+04 -2.83512E+04  2.59694E+03 -8.28347E+03 -3.37182E+04  1.78984E+04 -3.61276E+04
  3.97649E+04 -9.35693E+03  3.69530E+04  2.12180E+04  1.63123E+04  4.62682E+04 -8.36670E+03  4.54157E+04
 -3.01635E+04  3.07731E+04 -4.28282E+04  9.48060E+03 -4.58082E+04 -1.50986E+04 -2.17563E+04 -3.89406E+04
  9.97635E+03 -3.41572E+04  2.96006E+04 -1.75521E+04  3.59825E+04  8.77264E+03  3.86705E+02  1.88468E+04
 -1.13600E+04  1.08031E+04 -1.27405E+04 -5.57903E+03  7.07446E+03 -1.29904E+04  1.93802E+04  1.28728E+03
  8.90087E+03  2.48591E+04 -4.09928E+03  2.84718E+04 -2.42117E+04  1.07624E+04 -2.61051E+04 -7.48475E+03
 -1.86420E+04 -1.53233E+04 -9.84313E+03 -1.98060E+04  1.17295E+03 -1.80791E+04  1.56750E+04 -1.61586E+04
  2.87927E+04 -1.51393E+04  3.29727E+04  4.95391E+03  2.64721E+04  2.41044E+04 -2.07843E+03  3.71920E+04
 -1.63494E+04  3.31703E+04 -3.08302E+04  1.50261E+04 -1.90860E+04 -7.14664E+03 -6.19673E+03 -1.47299E+04
  1.85086E+03  2.03792E+02 -1.17216E+04  7.47192E+03 -1.83481E+04  1.26272E+03 -1.98297E+04 -3.91100E+03
 -8.23910E+03 -1.90836E+04  5.87097E+03 -2.41672E+04  1.87811E+04 -1.67748E+04  1.24533E+04  4.33461E+03
  1.34824E+04  1.73970E+04 -1.07516E+03  1.82444E+04 -1.16687E+04  1.15471E+04 -2.21093E+04 -5.29272E+03
 -1.20080E+04 -1.90244E+04 -9.11587E+02 -2.41726E+04  1.26130E+04 -2.00925E+04  1.43673E+04 -1.04261E+04
  1.53205E+04  3.64641E+03  1.90304E+04  6.32167E+03  3.62733E+03 -1.41379E+03  8.44155E+03  3.71146E+02
  2.21783E+04  3.05428E+03  1.81558E+04  1.62566E+04  1.17167E+04  2.80936E+04 -1.32481E+03  3.37127E+04
 -1.66753E+04  3.16343E+04 -3.54248E+04  1.37388E+04 -3.23005E+04 -1.54301E+03 -3.25614E+04 -2.04746E+04
 -1.54499E+04 -2.52575E+04  1.14414E+04 -2.11562E+04  2.08054E+04 -1.31793E+04  1.93152E+04  4.57501E+03
  7.56521E+03  1.85885E+04 -8.87042E+03  9.39440E+03 -1.68774E+04  1.97713E+03 -1.14157E+04 -1.15203E+04
 -5.22527E+03 -1.35759E+04  7.51689E+03 -1.18110E+04  7.10933E+03 -2.98549E+03  4.61857E+02  5.63609E+03
 -3.78603E+03  1.64541E+03 -9.32560E+03 -7.11181E+03 -9.77202E+02 -1.81432E+04  8.69170E+03 -1.50163E+04
  1.12075E+04 -8.04896E+03  1.88322E+04  1.26988E+02  1.36975E+04  1.50086E+04  9.01137E+03  1.77871E+04
 -1.27397E+03  2.38635E+04 -1.86065E+04  1.07003E+04 -1.45328E+04  1.44859E+03 -9.23599E+03 -6.03826E+03
 -1.01779E+04 -5.79977E+03  1.43139E+02  2.83973E+03 -2.20666E+03  4.21399E+03 -3.40310E+03  4.20981E+03
 -1.08839E+04 -9.76229E+02 -1.05030E+04 -8.86129E+03 -8.15718E+03 -1.48617E+04  9.97438E+01 -1.82705E+04
  1.13983E+04 -9.90452E+02  9.48622E+03  5.15917E+03  1.23256E+03 -3.18388E+02 -6.04357E+03 -2.91636E+03
 -7.31576E+03 -7.31111E+03 -1.98542E+03 -9.80041E+03  8.51378E+03 -1.18606E+04  1.28898E+04 -5.94998E+03
  1.93485E+04  2.97493E+03  1.03611E+04  8.58740E+03  3.19964E+02  1.79199E+04 -1.06900E+04  1.62110E+04
 -6.68240E+03  4.45554E+03 -1.23832E+03 -2.51894E+03  3.59693E+03 -4.01200E+03  8.50520E+03  3.69541E+02
  7.58098E+03  6.29006E+03  9.50003E+02  8.15768E+03 -4.08496E+03  5.51652E+03 -7.70991E+03  4.97387E+03
 -8.44051E+03 -5.23165E+03  2.80371E+03 -9.78577E+03  3.06967E+01 -4.07160E+03  6.64631E+03  9.99678E+02
  1.28342E+03  7.88565E+03 -6.36079E+03  6.01677E+03 -8.43867E+03  1.39493E+03 -8.00796E+03 -3.04535E+03
 -7.18708E+03 -4.22331E+03  9.25884E+02 -9.64130E+03  1.04482E+04 -5.66915E+03  8.48822E+03  3.72571E+03
  8.37952E+03  7.68777E+03 -2.87131E+03  1.37389E+04 -9.69850E+03  8.94872E+03 -6.57310E+03 -5.87426E+02
 -4.56419E+03 -6.34823E+03 -6.19435E+02 -8.35300E+03  5.23789E+03 -4.47664E+03  7.20121E+03 -6.42030E+03
  1.45082E+03  2.11074E+03  2.03019E+03  3.61943E+03 -6.10799E+03 -8.17689E+03  7.39123E+02 -2.83538E+03
  5.90029E+03 -7.82755E+02  1.49223E+04  2.33389E+03  1.03554E+04  9.55640E+03  7.82004E+03  8.37524E+03
  1.48829E+03  1.61892E+04 -1.13807E+04  9.10810E+03 -1.90773E+04 -2.00330E+03 -1.11372E+04 -3.24206E+03
 -2.80843E+03 -1.35299E+04  7.95584E+02 -1.05276E+04  4.33053E+02 -7.71414E+03  5.94285E+02 -1.80788E+03
  4.15045E+03 -6.44305E+03  1.54890E+03  6.98615E+02  4.03026E+03 -2.03794E+02  1.02607E+04 -5.40905E+03
  8.90763E+03  8.01520E+02  4.77863E+03  8.89150E+03 -6.88796E+02 -1.72044E+03 -8.52191E+03  3.41556E+03
 -8.98551E+03 -2.75103E+03 -4.61813E+03 -7.87761E+03  1.82540E+03 -9.28592E+03  3.02192E+03 -1.41995E+04
  1.22278E+04 -7.52623E+03  1.17607E+04  2.07578E+03  1.09971E+04  8.70174E+03 -1.83059E+03  1.14604E+04
 -3.89855E+03  9.54565E+03 -4.50142E+03  3.43882E+03 -6.75892E+03 -2.49652E+03 -7.24510E+03  8.95264E+02
  4.15426E+03 -1.68465E+03 -1.33699E+03  4.56335E+03 -3.05277E+03  2.51531E+03 -9.24154E+03 -3.14398E+03
 -1.64932E+03 -8.52511E+03  3.44120E+02 -1.05884E+04  2.66144E+03 -8.97521E+03  1.32193E+04 -6.50758E+02
  7.74336E+03  2.39966E+03  3.62647E+03  9.05691E+03  6.02812E+02  7.92544E+03 -7.89505E+03  6.19825E+03
 -1.41923E+04 -2.44608E+03 -5.17053E+03 -3.99031E+03  2.33843E+02 -3.03051E+03  5.95441E+02 -5.75427E+03
  4.90267E+03 -2.50040E+03  2.48258E+03  1.59167E+03  3.28753E+03  5.51281E+03 -1.70914E+02  4.89985E+03
  3.56845E+03 -1.36813E+03  3.45962E+03 -4.39203E+03  1.00495E+04  4.17131E+03  3.77026E+03  1.25231E+03
 -1.63116E+03  2.52274E+03 -5.30122E+03  6.36415E+03 -1.21727E+04  2.00642E+03 -8.44206E+03 -7.18263E+03
 -6.58441E+03 -1.36050E+04  7.92818E+02 -7.22129E+03  7.32555E+03 -3.72877E+03  1.39287E+04 -2.27043E+03
  4.57406E+03 -5.33150E+03 -4.00306E+03  8.18053E+03 -6.28687E+03  6.06790E+03 -6.61133E+03 -1.54648E+03
 -2.26446E+03  2.93178E+02  4.81985E+03 -9.61736E+03  1.79730E+03  2.00462E+03 -1.33114E+03 -4.40717E+02
  1.84783E+03  4.12251E+03  5.61603E+03  5.28886E+02 -1.38145E+03  1.71231E+03 -3.52739E+03  5.69304E+03
 -3.42905E+03 -4.99408E+03  3.28415E+03  1.78194E+03  7.95284E+03  8.41800E+03 -1.38684E+03  7.18749E+03
 -2.74820E+03  3.10951E+03 -7.81124E+03  5.40389E+03 -1.48584E+03  1.72943E+03 -8.57140E+02 -1.94902E+03
  2.46462E+02 -3.93304E+03 -1.07145E+02  3.48231E+03 -5.85852E+02 -1.89325E+03 -2.06078E+03  4.30059E+03
  1.93448E+03  2.03438E+03 -6.24819E+03 -1.08154E+03 -3.78554E+03 -1.03708E+04  3.70159E+02 -2.15482E+03
  2.23477E+03 -1.29250E+03  1.81963E+03  2.42590E+03  6.85477E+03  5.27041E+03 -8.52866E+02  3.93159E+03
 -3.17997E+03  1.47233E+03 -1.17292E+03 -1.74541E+03  3.56205E+03 -4.92920E+02  7.69059E+03 -2.11258E+03
  1.69914E+03 -8.22151E+02  1.88439E+03  8.46095E+03  1.95582E+03  7.87676E+03 -1.17896E+02  4.79470E+03
 -4.58040E+03  8.64014E+02 -6.79044E+02  1.02984E+03 -1.24976E+03 -5.85952E+03 -1.03202E+03 -1.56865E+03
  6.52423E+03 -5.30910E+03 -8.92398E+02  1.09782E+03  9.20162E+02  3.43324E+03 -1.51716E+03 -8.06383E+02
 -5.95779E+03  9.31986E+02 -4.53019E+03 -4.48459E+02 -6.07111E+02  4.64572E+03 -2.93228E+03 -4.64895E+02
  2.48105E+03  2.52610E+03 -7.08850E+03  4.87779E+03 -9.31587E+03  3.82935E+02 -3.05073E+03 -1.40235E+03
  5.09157E+02 -5.10135E+03  2.52798E+03 -1.01300E+04  5.17495E+03 -3.28589E+03  6.28405E+03 -5.83010E+03
  4.10180E+03 -1.41615E+03  3.81920E+03  3.63146E+03 -1.34856E+03  4.72945E+03 -8.98698E+03  1.71094E+03
  3.28108E+02  7.50045E+02 -4.64601E+03  1.24060E+03 -2.74952E+03  2.61619E+03 -1.86918E+03 -3.55331E+02
 -1.30926E+03 -8.54279E+02 -1.87043E+03  9.90614E+02  3.91246E+03 -1.47769E+02  1.10154E+03 -4.50077E+03
  4.75905E+03  1.92189E+03  7.99577E+02  1.57016E+03  3.62629E+03  2.88410E+03 -3.20532E+03  7.00381E+03
 -7.03715E+02  8.99734E+03 -7.09986E+03  5.71626E+03 -3.43749E+03 -6.84743E+02 -7.29172E+03 -4.30841E+03
  1.35532E+03 -1.06242E+04  6.42783E+03 -9.25705E+02  7.67201E+03  5.41266E+02  6.07249E+02 -5.53287E+03
  8.34370E+02 -5.74407E+03 -1.53526E+03  5.59615E+02  2.26537E+03 -5.10244E+03 -2.21678E+03 -2.58196E+01
  9.65060E+02  4.74356E+03  2.74357E+03  2.26143E+03 -2.96616E+03  1.34563E+03  2.28907E+03  3.05423E+03
 -1.41902E+02  6.09539E+02 -2.88755E+03 -3.27534E+03 -7.21508E+03 -7.52643E+02 -4.04878E+03 -1.90814E+03
  8.33643E+03 -1.29172E+03  4.79259E+03 -4.85247E+03  2.07905E+03 -4.65119E+03  2.14421E+03  4.16027E+03
 -2.66962E+03 -1.28081E+03  1.08504E+03 -2.89595E+03 -2.81898E+03  2.49369E+03 -3.64971E+03 -3.79332E+02
  1.18538E+03  4.10402E+02 -5.03274E+03 -2.95827E+02 -1.58326E+02 -7.76146E+02 -5.82063E+03 -6.82735E+03
 -4.80304E+03  4.06400E+02  3.11420E+03 -7.93143E+02  4.67333E+03 -5.60768E+03  5.96845E+03  5.70481E+03
  7.38829E+02  7.43581E+02 -1.91891E+03 -1.91289E+02  2.67209E+03  2.36095E+03 -2.34332E+03  2.71513E+03
