 $NMID ID='MM_0lb_SNR50_19hz_g45_56.RAW', FMTDAT='(8E13.5)'
 TRAMP=1., VOLUME=1. $END
  3.10177E+05  2.76588E+03  3.37519E+05  2.50864E+05  8.44548E+04  3.36205E+05 -1.32067E+05  2.53578E+05
 -1.90276E+05  8.49802E+04 -1.13842E+05 -3.49249E+04  9.96829E+02 -4.68279E+04  5.48207E+04 -2.69450E+03
  3.18756E+04  5.14415E+04 -1.71039E+04  7.53274E+04 -6.02811E+04  6.84352E+04 -8.36641E+04  3.30312E+04
 -7.85179E+04 -1.30215E+04 -5.63753E+04 -4.99007E+04 -1.30708E+04 -6.96046E+04  2.84943E+04 -4.38533E+04
  4.11606E+04  5.53293E+03  1.41784E+04  4.51353E+04 -3.76169E+04  4.57462E+04 -6.69982E+04  3.86470E+03
 -5.47427E+04 -5.41458E+04 -1.01287E+04 -7.66384E+04  3.16904E+04 -5.24635E+04  4.60537E+04 -1.72337E+04
  3.98844E+04  1.04444E+04  3.36440E+04  2.55453E+04  1.43972E+04  2.72993E+04 -5.04949E+03  2.75189E+04
 -2.57523E+04  1.35951E+04 -1.62323E+04 -1.41123E+03  5.94424E+03 -8.86569E+03  2.18929E+04  9.59341E+03
  5.31977E+03  3.20047E+04 -2.95149E+04  3.23852E+04 -6.40266E+04  3.53407E+03 -5.73123E+04 -4.07932E+04
 -1.00791E+04 -6.09399E+04  3.54051E+04 -3.94777E+04  4.95588E+04 -4.59286E+03  2.86560E+04  3.21470E+04
 -6.54074E+03  3.52843E+04 -2.72577E+04  1.47721E+04 -2.61765E+04 -4.44797E+03 -1.37597E+04 -1.01066E+04
 -6.66001E+03 -9.89525E+03 -3.51357E+03 -1.98623E+04  7.86638E+03 -2.20954E+04  1.39468E+04 -1.45437E+04
  1.52232E+04  9.76305E+02 -4.03672E+03  1.16895E+04 -1.65660E+04 -2.63008E+03 -7.07583E+03 -2.72171E+04
  1.79530E+04 -4.10844E+04  4.25069E+04 -1.80906E+04  4.31979E+04  1.93579E+04  1.27377E+04  4.37831E+04
 -1.48935E+04  2.92561E+04 -2.51734E+04  7.01404E+02 -4.77444E+03 -2.87762E+04  2.38243E+04 -2.87892E+04
  3.89137E+04 -1.00906E+04  2.77653E+04  2.17502E+04  1.63275E+04  4.32322E+04 -8.87087E+03  4.27266E+04
 -2.84563E+04  2.88107E+04 -3.87417E+04  8.99303E+03 -3.66407E+04 -1.34503E+04 -1.96311E+04 -3.56972E+04
  6.62679E+03 -3.35499E+04  3.13639E+04 -1.38864E+04  2.54584E+04  1.08917E+04 -7.38936E+02  1.77148E+04
 -1.50192E+04  6.41402E+03 -1.07270E+04 -8.46035E+03  6.89792E+03 -1.50147E+04  1.61393E+04  1.03837E+04
  1.19757E+04  2.62561E+04 -7.09889E+03  2.26046E+04 -1.66052E+04  7.56877E+03 -2.42402E+04 -3.02478E+03
 -1.32886E+04 -1.49735E+04 -6.90597E+03 -1.52144E+04  4.78111E+03 -1.29720E+04  9.93590E+03 -1.46554E+04
  2.15097E+04 -1.00724E+04  2.75159E+04 -1.73675E+03  2.14587E+04  1.42077E+04  3.61842E+03  3.56962E+04
 -1.22622E+04  2.47420E+04 -2.03111E+04  9.60461E+03 -1.85364E+04 -1.01476E+04 -4.55804E+03 -1.24707E+04
  3.55765E+03 -6.16197E+03 -2.55700E+03  5.61030E+03 -8.78223E+03  8.86086E+03 -1.37567E+04 -6.84301E+03
 -1.10016E+04 -1.43872E+04  3.27697E+03 -1.61845E+04  1.15051E+04 -9.84643E+03  1.52996E+04 -4.16404E+03
  6.76902E+03  9.57558E+03 -2.25411E+03  1.35929E+04 -1.04562E+04  1.02146E+04 -1.43961E+04  8.59369E+02
 -1.24705E+04 -1.16759E+04 -2.35339E+03 -1.93225E+04  7.55971E+03 -1.57324E+04  1.37821E+04 -7.92785E+03
  1.74817E+04  1.68515E+03  1.42349E+04  5.51632E+03 -1.96483E+00  2.87650E+03  5.66092E+03  2.10340E+03
  1.49488E+04  2.80856E+03  1.46928E+04  9.84586E+03  1.03829E+04  2.22459E+04  7.65661E+02  2.53425E+04
 -1.43543E+04  2.11009E+04 -2.57620E+04  1.15011E+04 -2.36294E+04 -3.38784E+02 -2.08942E+04 -1.24931E+04
 -1.07464E+04 -1.95057E+04  3.14386E+03 -1.69962E+04  1.46719E+04 -1.17491E+04  1.31306E+04  3.88407E+03
  1.05464E+04  9.91803E+03 -6.55926E+03  4.99193E+03 -1.63444E+04  1.22698E+03 -1.36536E+04 -7.49754E+03
  3.29654E+03 -1.57797E+04  7.84932E+03 -8.07405E+03  7.47266E+03 -3.78905E+03  1.89713E+03  8.28929E+03
 -1.53211E+03  5.35129E+02 -3.82144E+03 -5.46781E+03 -9.76568E+02 -9.03063E+03  8.68839E+03 -1.07134E+04
  1.09294E+04 -6.39590E+03  1.03534E+04  3.20768E+02  1.19148E+04  1.23553E+04  8.72340E+03  1.21358E+04
 -9.84171E+02  1.49959E+04 -7.19025E+03  1.32479E+04 -1.34032E+04 -1.44558E+03 -9.75157E+03 -5.93524E+03
 -4.66092E+03 -1.97666E+03 -1.09987E+03  3.76429E+03 -9.83086E+02  1.87972E+03 -3.41033E+03  5.96572E+03
 -1.12129E+04  2.36488E+03 -9.81826E+03 -1.19114E+04  1.71506E+02 -8.32545E+03  2.08795E+03 -6.66667E+03
  4.57178E+03 -5.34831E+03  5.70271E+03  1.20326E+02 -2.83348E+03  2.90099E+03 -3.40902E+03  1.49333E+03
 -7.57660E+03 -4.92059E+03  8.17411E+02 -7.44771E+03  2.88537E+03 -6.68836E+03  9.82340E+03 -2.98343E+03
  1.20671E+04  2.56202E+03  1.24410E+04  6.52233E+03  1.09517E+03  7.34683E+03 -8.10151E+03  8.50465E+03
 -7.20065E+03  1.48082E+02  2.97970E+02  9.12609E+02 -1.72440E+03 -3.07684E+03  5.17559E+03 -1.72190E+03
  1.87583E+03  2.21215E+03  5.72077E+03  8.58549E+03 -1.89187E+03  8.48956E+03 -6.60402E+03  3.87252E+03
  3.48175E+02 -4.94754E+03  1.66199E+03 -5.03469E+03  2.29084E+03 -4.07022E+03 -1.68980E+03  3.48512E+03
 -4.58085E+03  8.06125E+03 -5.19261E+03  7.68190E+03 -4.61888E+03  3.19504E+03 -2.56911E+03 -1.26799E+03
 -3.21052E+03 -1.54664E+03  3.42590E+03 -4.47677E+03  6.01802E+03 -7.77719E+03  5.57869E+03  2.40847E+03
  3.78006E+03  5.17045E+03  5.98493E+03  7.55218E+03 -6.05308E+03  6.72624E+03 -6.67831E+03  5.24678E+03
 -2.24720E+03 -8.68208E+03  1.76301E+03 -5.01105E+03 -5.96327E+02 -8.65893E+03  5.18862E+03 -2.64920E+02
  3.33932E+03 -2.61928E+03 -2.11871E+03  2.36656E+03  1.60761E+02  3.97662E+02  4.03574E+03 -3.28979E+03
  5.03078E+03 -3.56496E+03  3.77972E+03  3.64841E+02  7.81902E+03  3.63182E+03  6.95956E+03  1.34684E+03
  1.18247E+03  7.68518E+03 -9.71519E+03  6.23846E+03 -7.14065E+03  2.83726E+03 -5.93394E+03 -9.56376E+02
 -3.65899E+03 -7.95364E+03 -2.52343E+03 -5.87976E+03  5.08417E+03 -1.29052E+02  5.78826E+02 -1.49138E+03
  5.34282E+01 -2.33506E+03  1.10573E+03 -3.47821E+03  5.22340E+03 -6.53835E+02  2.86868E+03 -1.66350E+03
  4.15735E+03  4.81817E+03  2.63374E+03  1.75146E+03 -4.35574E+02  2.29361E+03 -4.60048E+03  1.76361E+03
 -5.58667E+03 -2.74190E+03 -6.46679E+03 -2.85221E+03 -2.86894E+03 -5.62381E+03  7.12994E+03 -4.43016E+03
  7.77294E+03 -4.25936E+03  8.61753E+02  6.50355E+03  4.42180E+03  8.99014E+03  7.81212E+01  6.14594E+03
 -3.13427E+03  2.11002E+03 -5.15865E+03  3.30525E+03  1.75312E+03  9.03788E+02 -2.84252E+03  4.71956E+02
 -1.94305E+03  1.63578E+03 -3.33780E+03  1.95569E+03 -2.53520E+03 -2.14219E+03 -1.61096E+03  2.24977E+03
  2.18178E+03 -2.49680E+03 -1.21242E+03 -4.74046E+03  2.83412E+03 -2.71644E+03  3.58257E+03 -4.32182E+03
  4.85544E+03  5.16203E+03 -2.64735E+02  3.84261E+03 -4.39552E+03  5.62734E+03 -1.30526E+03  2.82271E+03
 -4.27328E+03 -3.09158E+02 -3.10395E+03 -1.27571E+03 -5.00638E+03 -3.34108E+02 -1.79394E+03  2.65499E+02
  1.38817E+03 -1.47192E+03  1.69887E+03 -1.90367E+02  1.61481E+03  1.76547E+03  6.90024E+02  7.25683E+02
 -7.63921E+02  4.84665E+02 -3.71561E+03  1.79357E+03  2.88152E+03  4.63464E+03  5.34908E+01  6.30599E+02
 -3.25480E+03  2.08212E+03  2.33408E+03  2.52780E+03 -3.88757E+03  4.77685E+03 -3.77798E+03  2.14932E+03
  1.09126E+03 -7.58645E+02  1.91054E+03 -4.99634E+03  1.52237E+03 -2.48491E+03  1.75682E+03  2.05934E+03
  7.54977E+03  2.07153E+03 -1.70933E+03 -6.93995E+01  1.66468E+03  4.10748E+03 -2.85859E+03 -2.41942E+02
 -6.30156E+02 -2.83626E+03 -4.07385E+03 -5.00085E+03  1.97203E+02 -1.83791E+03  4.13536E+03  5.56772E+03
  2.43868E+03 -1.19259E+03  5.76429E+01  1.70591E+03  2.97489E+03 -1.97213E+03  6.64634E+02 -2.28564E+03
  2.09256E+02 -5.94511E+03 -1.26415E+03  1.22330E+03 -5.57215E+03  3.05303E+03  3.85080E+03 -9.19759E+02
 -4.50645E+03  2.27552E+03 -3.96575E+03 -1.73911E+03 -3.76119E+03  6.63490E+02 -1.36141E+03 -1.93025E+02
  2.61300E+03 -5.67729E+03 -4.23850E+03  2.69007E+03 -1.14131E+02  2.45437E+03 -4.49493E+03  2.04757E+03
  2.33749E+03  3.11669E+03 -3.14311E+03 -1.41680E+03 -1.10693E+03 -8.52958E+02 -3.44244E+03 -8.43981E+02
  3.83686E+02 -3.11155E+03  1.07602E+03 -1.74564E+03  3.71528E+03 -2.71042E+02  3.84252E+03  2.76494E+03
  1.64070E+03  4.20594E+03 -1.78964E+03 -2.18454E+03  1.84164E+02  6.69392E+01 -1.23396E+03 -4.49472E+03
  2.71410E+03  2.91919E+02  4.81590E+03 -4.54496E+02  4.62275E+02  7.30728E+03 -4.06735E+02  1.74511E+03
 -8.93307E+01  3.49090E+02 -4.57248E+03  1.39934E+02  3.97756E+02 -5.31736E+01  6.85319E+02  8.28691E+02
 -2.30220E+02 -3.84552E+03  2.69578E+03  3.14131E+03 -3.79285E+03  3.55511E+03  2.38667E+02  5.42833E+03
  3.29415E+03 -7.75705E+01 -5.81158E+02 -2.06085E+03  2.38087E+03 -1.94188E+02  8.26660E+02 -1.42563E+03
 -3.99667E+03  2.14177E+03 -2.65044E+03  5.75922E+03 -1.59061E+03 -8.65561E+02 -9.81281E+01 -1.53115E+03
 -2.06462E+03 -2.83056E+02 -2.39083E+03  1.78850E+03  6.31893E+02 -2.40189E+03  7.16674E+02 -1.74760E+03
  1.34418E+03 -2.73341E+03 -2.50966E+03  2.04295E+03  9.77620E+02  1.66625E+03  8.17469E+02 -3.76369E+03
 -2.23218E+03  1.52752E+03  3.12490E+03  1.57181E+03  4.42025E+03  2.10725E+03  1.25717E+03  2.48756E+03
 -2.88920E+02  4.32414E+02 -2.39156E+03  2.12746E+03  3.13085E+03 -5.66930E+02  2.41440E+02  2.24413E+03
 -3.58951E+02 -1.05920E+03 -8.44379E+02 -5.82147E+02  3.04515E+03  1.61372E+03 -2.32289E+03 -2.20387E+03
  2.43612E+03 -2.91776E+00 -2.91856E+03  1.30396E+03 -6.18687E+03  3.45598E+03 -2.48183E+03 -2.84472E+03
  2.40951E+03 -4.15465E+03  2.42169E+02 -1.83208E+03  1.50312E+03  2.86437E+03 -1.01135E+03  3.48511E+03
  9.09136E+01 -8.23764E+02 -3.34990E+03  4.70688E+02  1.80991E+03 -8.24175E+02  4.93567E+02 -3.18112E+01
 -7.56140E+02  3.58823E+03 -1.49691E+02  3.90015E+03  1.85545E+03 -5.63050E+02  1.06328E+03 -9.19952E+01
 -2.32820E+03  5.55036E+02 -2.90413E+03  2.11118E+02 -2.33180E+03 -3.98107E+03 -2.46040E+02 -3.69017E+03
  3.86539E+02 -3.09992E+02 -2.57235E+03  8.55415E+02  2.02550E+03  1.29859E+02  2.22063E+03  2.13311E+03
  1.75652E+03 -2.63718E+03  1.76130E+03 -4.52531E+03 -3.34230E+03  3.65387E+03  2.37661E+03 -1.57145E+03
  7.16579E+02  3.78172E+03 -3.13273E+02  1.02593E+03  4.49230E+03 -1.43849E+03 -2.43950E+03 -2.07254E+03
 -8.15386E+02 -4.00999E+03  2.73785E+03  3.07229E+02  2.84368E+03 -2.93120E+03  2.49990E+03  3.35625E+03
 -1.19066E+03  1.81522E+03  1.16704E+03 -7.74382E+02 -5.53434E+01 -1.01755E+03  2.43770E+03  7.48479E+02
