 $NMID ID='MM_0lb_SNR50_8hz_g50_80.RAW', FMTDAT='(8E13.5)'
 TRAMP=1., VOLUME=1. $END
  3.08166E+05  3.30117E+03  3.42172E+05  2.48762E+05  7.81798E+04  3.41026E+05 -1.33128E+05  2.52869E+05
 -1.88288E+05  8.37964E+04 -1.13389E+05 -3.02741E+04 -1.84906E+02 -4.05175E+04  5.25524E+04 -1.25908E+03
  3.25553E+04  6.14515E+04 -2.21781E+04  7.40245E+04 -6.16076E+04  5.82675E+04 -7.60695E+04  3.13968E+04
 -7.87971E+04 -1.57614E+04 -5.70282E+04 -5.24550E+04 -1.34059E+04 -7.28776E+04  2.61869E+04 -3.83927E+04
  3.15377E+04  5.42542E+03  2.01490E+04  4.66819E+04 -3.56840E+04  4.97976E+04 -7.65946E+04 -2.74061E+03
 -5.62855E+04 -5.32066E+04 -7.76858E+03 -8.54391E+04  3.47508E+04 -6.10785E+04  4.81564E+04 -2.23419E+04
  4.79768E+04  1.50793E+04  3.40093E+04  2.51343E+04  1.66225E+04  3.26803E+04 -1.09773E+04  2.66919E+04
 -1.91869E+04  1.31666E+04 -1.51589E+04 -1.20394E+04  1.07405E+04 -9.00607E+03  2.66269E+04  1.18632E+04
  6.01078E+03  4.24730E+04 -3.22763E+04  3.46620E+04 -7.13562E+04  1.21623E+03 -5.94206E+04 -4.75521E+04
 -1.24246E+04 -6.72262E+04  4.63849E+04 -5.41068E+04  6.08001E+04 -3.70701E+03  3.95456E+04  3.65071E+04
  6.55234E+02  4.13026E+04 -4.06854E+04  1.23482E+04 -3.76154E+04 -5.21436E+03 -2.36282E+04 -4.25897E+03
 -1.07407E+04 -1.24878E+04 -1.95579E+03 -1.81916E+04  1.20577E+04 -2.03667E+04  1.46991E+04 -1.40125E+04
  7.33135E+03  1.84249E+04 -1.02335E+04  1.65101E+04 -2.48136E+04 -9.16232E+03 -2.76590E+03 -3.34967E+04
  2.49619E+04 -5.40241E+04  5.22840E+04 -2.23234E+04  4.56266E+04  2.27073E+04  1.72545E+04  4.67771E+04
 -1.79867E+04  3.76842E+04 -2.88944E+04  2.72542E+03 -1.09873E+04 -2.11908E+04  2.30158E+04 -3.87419E+04
  4.69828E+04 -7.48972E+03  3.79980E+04  2.83142E+04  2.69328E+04  5.32095E+04 -8.18673E+03  5.43972E+04
 -3.89920E+04  4.00137E+04 -5.06143E+04  1.08380E+04 -4.32198E+04 -1.64833E+04 -3.09543E+04 -4.80280E+04
  1.13558E+04 -4.92944E+04  3.47810E+04 -1.93840E+04  3.34264E+04  1.67360E+04 -3.56190E+03  2.83583E+04
 -1.61795E+04  9.16988E+03 -1.44398E+04 -4.46002E+03  1.62171E+04 -8.63597E+03  1.90785E+04  5.83309E+03
  1.30780E+04  2.49958E+04 -8.03806E+03  2.57010E+04 -2.27811E+04  1.29506E+04 -3.53397E+04 -4.79313E+03
 -3.03861E+04 -2.54735E+04 -1.08609E+04 -2.39535E+04 -1.37128E+03 -2.67200E+04  2.39962E+04 -2.50534E+04
  2.62792E+04 -1.29076E+04  4.13992E+04  6.85780E+03  2.88756E+04  2.93605E+04  3.11428E+03  4.51615E+04
 -2.06991E+04  3.40434E+04 -3.90730E+04  9.58041E+03 -2.62533E+04 -8.05822E+03 -2.19257E+03 -1.85892E+04
 -3.48009E+03 -5.44638E+03 -6.37321E+03  3.78576E+03 -1.91273E+04  4.06597E+03 -2.47579E+04 -1.11141E+04
 -8.59062E+03 -2.50873E+04  4.89185E+03 -3.20148E+04  2.55207E+04 -2.35609E+04  2.53125E+04 -7.78068E+03
  1.53180E+04  1.44634E+04 -2.14430E+03  2.17825E+04 -2.06230E+04  1.87935E+04 -2.16211E+04 -5.01537E+03
 -1.91563E+04 -2.09363E+04  2.82482E+03 -3.25583E+04  1.31725E+04 -2.55327E+04  2.18051E+04 -1.26709E+04
  2.82228E+04  2.42073E+03  1.90816E+04  4.53689E+03  1.52036E+04  4.91082E+03  1.46803E+04 -4.83423E+03
  1.99279E+04  5.37492E+03  2.13866E+04  1.36715E+04  1.87589E+04  4.20168E+04  5.66132E+03  4.72910E+04
 -2.83644E+04  3.98876E+04 -4.34614E+04  2.21915E+04 -3.80066E+04 -3.05210E+03 -4.16027E+04 -2.94502E+04
 -1.84015E+04 -4.52582E+04  1.77289E+04 -2.95057E+04  3.62145E+04 -1.40437E+04  1.81744E+04  3.72933E+02
  1.00871E+04  2.08443E+04 -1.19168E+04  1.10449E+04 -1.81325E+04 -9.91219E+02 -1.59625E+04 -1.16020E+04
 -3.66737E+03 -1.94104E+04  4.43903E+03 -7.08745E+03  1.53187E+04  5.63332E+03  6.73422E+03  8.99565E+03
 -7.02976E+03  5.11553E+03 -1.72203E+04 -7.67981E+03  4.40656E+03 -1.40358E+04  8.12223E+03 -2.00825E+04
  2.18768E+04 -1.41438E+04  2.57277E+04 -9.42524E+02  2.02849E+04  2.40256E+04  1.30983E+04  2.90387E+04
 -1.21462E+04  3.43943E+04 -1.95828E+04  2.15055E+04 -2.31242E+04  6.46350E+03 -1.92604E+04 -3.90722E+03
 -4.47776E+03 -5.56485E+03 -1.14044E+03 -7.63720E+03 -5.09980E+03  9.81095E+02 -2.90942E+03  8.41752E+03
 -1.77174E+04  4.77174E+03 -1.74450E+04 -8.52652E+03 -1.28680E+04 -2.19195E+04  3.53343E+03 -2.02292E+04
  2.26829E+04 -7.58206E+03  8.24285E+03 -1.39683E+03  2.35890E+03  3.87999E+03 -9.48575E+03  7.31620E+02
 -9.50641E+03 -9.83664E+03  5.18228E+03 -2.27842E+04  8.62323E+03 -2.28772E+04  2.64759E+04 -1.43059E+04
  2.23656E+04 -2.60632E+03  2.41935E+04  1.79738E+04  4.70956E+03  1.64895E+04 -1.39062E+04  1.54876E+04
 -1.11159E+04  8.12494E+03 -1.23062E+04 -1.66083E+03  4.04985E+03  1.27653E+03  5.21905E+03  7.88445E+02
  7.28394E+03  7.81519E+03  1.72733E+02  1.91296E+04 -3.47549E+03  1.26922E+04 -1.86211E+04  2.74099E+03
 -1.75615E+04 -8.00873E+03  4.71542E+03 -2.01059E+04  7.56260E+03 -4.48494E+03  9.13509E+03 -2.45184E+03
  3.19603E+03  6.74681E+03 -1.11478E+04  1.09094E+04 -2.25706E+04 -6.54498E+02 -1.38994E+04 -6.01886E+03
 -1.23752E+04 -1.16088E+04  2.92501E+03 -2.24818E+04  1.28951E+04 -9.12273E+03  2.32339E+04  1.40819E+03
  9.68126E+03  1.33998E+04 -6.60203E+03  1.55126E+04 -1.39088E+04  9.31647E+03 -1.17627E+04 -4.42546E+03
 -1.03838E+04 -7.84620E+03 -8.25728E+03 -1.64748E+04  7.80394E+03 -6.51677E+03  6.67071E+03 -6.24874E+03
  3.13255E+03 -4.93972E+03  1.27557E+03 -4.34506E+03 -4.99655E+03 -1.00612E+04  8.87800E+03 -1.00515E+04
  1.28393E+04 -1.05396E+03  1.72658E+04  1.18040E+03  2.01849E+04  1.42679E+04  1.04513E+04  1.85568E+04
 -2.33677E+03  2.70497E+04 -1.68054E+04  2.21784E+04 -2.76116E+04  8.83995E+03 -2.21811E+04 -1.04383E+04
 -1.49335E+04 -1.36443E+04 -2.65389E+03 -1.45293E+04 -8.63309E+02 -1.03619E+04  7.23285E+03 -7.08524E+03
  1.78990E+03 -3.79973E+03  4.65232E+03 -2.67265E+03 -2.67667E+03 -2.78554E+03  6.04932E+03 -6.29079E+03
  1.17914E+04  7.97813E+03  1.33384E+04  6.04468E+03 -2.26922E+03  1.54850E+04 -1.47057E+04  6.60596E+03
 -1.46892E+04 -5.25936E+03 -1.31749E+04 -1.37933E+04 -2.27117E+03 -1.41716E+04  7.21320E+03 -1.81075E+04
  1.74906E+04 -1.31368E+04  2.30719E+04  2.79864E+03  2.07954E+04  1.83972E+04 -7.32377E+02  1.45469E+04
 -5.00349E+03  7.47556E+03 -1.37435E+04  5.77665E+03 -1.73717E+04 -7.71325E+03 -3.81142E+03 -9.20818E+03
 -4.43579E+03  8.61871E+02  2.41249E+03  8.66611E+03 -9.15762E+03  7.44334E+03 -1.14750E+04 -1.61035E+03
 -6.88599E+03 -1.43945E+04 -9.51133E+02 -1.71049E+04  1.35813E+04 -8.94845E+03  1.95715E+04 -1.29129E+04
  1.83618E+04 -1.47634E+03  3.98854E+03  1.27187E+04  4.46237E+03  1.18187E+04 -1.43032E+04  1.11389E+04
 -1.71317E+04 -6.55242E+03 -1.10499E+04 -4.69009E+03 -7.75592E+02 -1.75026E+04  6.97532E+03 -1.49595E+04
  6.38008E+03  2.99218E+03  9.40320E+03  3.07904E+03  1.56659E+03  8.25179E+02  2.88743E+03 -1.22080E+03
  5.13419E+03 -2.03324E+03  5.13292E+03 -2.15599E+03  6.14641E+03  5.98039E+03  9.26254E+03  1.36482E+04
 -3.65469E+03  1.29150E+04 -6.34694E+03  1.17064E+04 -2.00114E+04 -9.73015E+02 -2.20099E+04 -1.22054E+04
 -1.12895E+04 -2.34954E+04 -3.06795E+01 -1.75768E+04  1.09572E+04 -1.77119E+04  1.83191E+04 -5.42944E+03
  1.38747E+04  9.00570E+03  9.47512E+03  4.16522E+03 -3.01411E+03  1.13789E+04 -6.63979E+02 -9.53810E+02
 -1.19518E+03 -1.00369E+04  1.02893E+04 -6.49217E+03  2.85506E+03 -1.88921E+03  4.24649E+03  5.28703E+03
  5.80562E+03 -2.11053E+03  4.75504E+03  1.02517E+04 -1.83525E+03 -7.83394E+02  7.79767E+03  2.63755E+03
  1.35164E+04 -1.99326E+03  1.17254E+04 -3.31642E+02  6.86391E+03  1.07193E+04  4.02951E+02  1.52769E+04
 -7.90618E+03  6.38488E+03 -9.81038E+03  2.72719E+03 -7.31894E+03 -6.00529E+03 -9.56800E+03 -4.52930E+03
 -4.66643E+03 -8.46387E+03  6.46563E+03 -1.00469E+04  6.62919E+03  9.57149E+03 -2.17441E+03  3.69585E+03
 -6.36157E+03  2.13060E+03 -1.21771E+04 -5.55780E+03 -1.49303E+03 -1.32988E+04  7.34885E+03 -1.62232E+04
  5.25431E+03 -5.87713E+03  7.75136E+03  1.16588E+03  1.94872E+03 -1.16180E+03 -8.81689E+02  4.52341E+03
 -9.08190E+03  5.97090E+03 -3.72023E+03 -2.47604E+02  4.28654E+03 -6.83245E+03  7.55642E+03 -7.70758E+03
  1.83168E+04 -2.67483E+03  9.73588E+03  4.19522E+03  1.18835E+03  1.45909E+04 -6.09808E+03  1.18379E+04
 -8.91133E+03  7.49553E+03 -8.88630E+03 -1.44221E+03  4.02035E+02 -5.36562E+03  4.83176E+03 -4.91226E+03
  9.75002E+03 -4.03599E+03  7.42991E+03 -1.21526E+03 -2.75780E+02  3.98147E+03  2.51927E+03  1.28539E+04
 -1.83788E+03 -2.66562E+03 -1.71181E+03 -4.12581E+03  6.22595E+02  3.31029E+03 -3.37027E+03  5.77989E+03
 -1.23827E+03  2.24989E+03 -1.26166E+04  1.02077E+04 -1.15293E+04 -7.02632E+02 -1.46045E+04 -1.07785E+04
 -7.00602E+03 -2.38180E+04  6.30084E+03 -2.41992E+04  1.30196E+04 -1.43056E+04  1.81768E+04 -5.96696E+03
  1.96228E+04  9.76444E+03  5.10075E+03  1.63945E+04 -2.89396E+03  1.79870E+04 -9.39546E+03  9.24551E+03
 -5.71815E+02  6.36287E+03 -1.60248E+03  1.20747E+03 -1.11292E+04 -6.54399E+03 -2.38870E+02 -5.70211E+03
  1.74035E+03  5.05731E+03 -1.11294E+04 -4.51683E+03  3.00527E+03 -5.68684E+03  8.94781E+03 -4.27815E+03
  3.15540E+02  4.47019E+03  3.69813E+03  5.31690E+03  1.05792E+04  8.96211E+03  9.77622E+01  1.38302E+04
 -3.11262E+03  1.27900E+04 -1.18010E+04  8.13262E+03 -1.31531E+04 -2.74362E+03 -7.94287E+03 -8.27979E+03
 -4.21916E+03 -9.85555E+03 -6.03116E+01 -5.78862E+03  1.02340E+04 -5.95136E+03  1.00194E+04 -2.19478E+03
  5.28909E+03  6.42634E+03 -1.33704E+03  7.00028E+03 -3.27437E+03  1.05726E+03 -1.77263E+03  2.95508E+03
  2.54438E+03 -2.98384E+03  7.62856E+03 -9.48063E+01  2.72889E+03 -3.30725E+02  3.68643E+03  6.07218E+03
 -1.00115E+04  1.27463E+04 -8.45831E+03 -5.66961E+01 -2.78788E+03 -2.20125E+03 -2.94498E+03 -2.12318E+04
  5.07106E+03 -1.38793E+04  5.12725E+03  8.59047E+01  1.66174E+04  6.22458E+03  5.69657E+03  1.09402E+04
 -8.53785E+02  1.84623E+04 -4.45742E+03  6.18830E+03 -3.47274E+03  1.14746E+03  2.50495E+03  3.86430E+03
 -7.37192E+02  1.29020E+03 -3.75782E+03  8.97768E+03 -8.22118E+01  6.07709E+03 -7.21496E+03 -2.04438E+03
 -3.64090E+03 -2.62430E+03  3.94625E+03 -4.18477E+02  6.71980E+03 -9.61336E+03  4.66852E+03  9.60349E+02
  6.45332E+03  9.45064E+03  3.87316E+03  1.28161E+04  4.32351E+02  1.07756E+04 -8.61154E+03  1.30980E+04
