 $NMID ID='MM_0lb_SNR50_11hz_g45_68.RAW', FMTDAT='(8E13.5)'
 TRAMP=1., VOLUME=1. $END
  3.06933E+05  2.04934E+02  3.35821E+05  2.55725E+05  8.47042E+04  3.34537E+05 -1.31384E+05  2.45797E+05
 -1.87805E+05  8.01778E+04 -1.13502E+05 -2.84345E+04  2.52513E+03 -5.34970E+04  5.52512E+04 -6.89419E+02
  3.43831E+04  5.49872E+04 -1.67418E+04  7.55146E+04 -6.63238E+04  6.20563E+04 -8.72114E+04  3.22769E+04
 -8.30782E+04 -1.78335E+04 -5.67466E+04 -5.05488E+04 -1.12119E+04 -6.16254E+04  2.61976E+04 -5.16442E+04
  4.34279E+04 -1.23155E+03  1.89463E+04  4.65422E+04 -3.13605E+04  4.66637E+04 -6.69690E+04 -7.03700E+02
 -5.29611E+04 -5.59415E+04 -5.13269E+03 -8.00783E+04  3.26194E+04 -5.17422E+04  5.04002E+04 -2.28071E+04
  4.27177E+04  1.49327E+04  3.28320E+04  2.45714E+04  1.74200E+04  2.74571E+04 -2.80537E+03  2.61531E+04
 -1.92791E+04  1.59717E+04 -1.83224E+04 -3.08796E+03  8.65878E+03 -7.65087E+03  2.28370E+04  1.33730E+04
  7.87695E+03  3.49482E+04 -3.04317E+04  3.30927E+04 -6.55578E+04  3.50376E+03 -5.66354E+04 -4.59479E+04
 -1.15206E+04 -5.88871E+04  4.48731E+04 -4.83121E+04  5.99806E+04 -1.85061E+03  3.69574E+04  2.77679E+04
 -6.07785E+03  4.28861E+04 -3.26073E+04  1.65538E+04 -3.29585E+04 -2.08135E+03 -1.61174E+04 -1.69582E+04
 -7.90474E+03 -1.18402E+04  4.15359E+03 -2.26402E+04  2.29361E+03 -2.68666E+04  1.33182E+04 -1.38214E+04
  1.06610E+04  8.33686E+03 -5.30737E+03  9.18579E+03 -2.48237E+04 -7.96901E+03 -1.05471E+04 -3.87483E+04
  2.31569E+04 -4.56438E+04  4.46795E+04 -2.18562E+04  4.97687E+04  2.31546E+04  1.59316E+04  4.04621E+04
 -1.47786E+04  3.31399E+04 -2.56440E+04  1.85508E+03 -9.17849E+03 -2.88827E+04  1.87250E+04 -3.13405E+04
  3.78205E+04 -8.32233E+03  3.79401E+04  2.53127E+04  1.71496E+04  4.77520E+04 -7.69680E+03  5.67103E+04
 -3.77961E+04  3.59176E+04 -4.96001E+04  9.06241E+03 -4.48062E+04 -1.29456E+04 -2.48732E+04 -3.73977E+04
  9.89190E+03 -3.94680E+04  3.36268E+04 -1.74867E+04  3.47898E+04  9.50333E+03  3.44296E+03  2.07551E+04
 -1.27738E+04  1.29121E+04 -7.15609E+03 -9.22728E+03  4.78341E+03 -8.08470E+03  2.28630E+04  6.74559E+03
  1.39492E+04  2.33780E+04 -7.99529E+03  2.51209E+04 -2.46524E+04  1.69950E+04 -2.56310E+04 -4.70474E+03
 -2.31213E+04 -1.44413E+04 -1.21831E+04 -2.18843E+04  6.62864E+03 -2.33338E+04  1.72020E+04 -1.84502E+04
  3.05914E+04 -1.03702E+04  3.64308E+04  2.74635E+03  2.68623E+04  1.93024E+04  7.66224E+03  3.89723E+04
 -1.41182E+04  3.44791E+04 -2.79823E+04  1.21090E+04 -2.23398E+04 -1.25926E+04 -7.49373E+03 -1.93353E+04
 -3.15802E+02 -2.52080E+03 -7.01061E+03  7.46386E+03 -1.67278E+04  1.00777E+04 -1.72224E+04 -6.34753E+03
 -1.03095E+04 -2.82158E+04  9.17056E+03 -2.64000E+04  1.66145E+04 -2.41822E+04  2.22991E+04 -4.14716E+03
  1.16192E+04  1.41434E+04 -2.95005E+03  1.77596E+04 -1.66155E+04  1.29965E+04 -2.37337E+04 -8.11855E+03
 -1.26401E+04 -2.27854E+04 -3.42979E+03 -2.49048E+04  1.39128E+04 -1.90478E+04  2.38105E+04 -1.18744E+04
  2.34263E+04 -3.39068E+03  1.41343E+04  4.48830E+03  9.35326E+03  2.61798E+03  1.10496E+04  1.72651E+03
  2.09607E+04  6.45711E+03  2.14262E+04  1.29665E+04  1.18450E+04  3.92991E+04 -2.63510E+03  3.68947E+04
 -2.17942E+04  3.40184E+04 -3.43401E+04  1.76574E+04 -4.48482E+04 -2.13194E+03 -3.10584E+04 -2.34503E+04
 -1.62915E+04 -3.32371E+04  1.15121E+04 -3.08840E+04  2.89144E+04 -5.31687E+03  2.53289E+04  8.61508E+01
  7.30999E+03  1.78988E+04 -8.77993E+03  1.91981E+04 -1.21442E+04  2.67840E+03 -1.11249E+04 -1.06336E+04
 -1.44174E+03 -2.07584E+04  8.01482E+03 -1.29147E+04  1.56805E+04  1.94754E+03 -4.31999E+03  6.47614E+03
 -6.46463E+03  9.99500E+02 -4.45714E+03 -1.29293E+04 -1.25306E+03 -1.61125E+04  6.70546E+03 -1.83777E+04
  2.36926E+04 -8.83398E+03  1.95911E+04  3.80737E+03  1.96380E+04  1.70728E+04  1.15449E+04  2.42272E+04
 -7.68892E+03  1.85877E+04 -1.59661E+04  1.70147E+04 -2.04957E+04 -2.26794E+02 -9.22391E+03 -3.58403E+03
 -9.22919E+03 -6.75147E+03 -6.20394E+03  6.59403E+02 -3.49860E+03  2.19331E+03 -5.40382E+03  4.62458E+02
 -1.45478E+04  7.23029E+02 -1.55993E+04 -7.38290E+03 -8.10869E+02 -1.85779E+04  7.84028E+03 -1.10708E+04
  9.60067E+03 -4.50193E+03  5.43275E+03  5.22463E+03  1.33178E+03  6.53843E+03 -6.86819E+03 -5.45006E+03
 -1.00239E+03 -6.64534E+03  6.94609E+01 -1.54296E+04  9.44492E+03 -1.55581E+04  1.59593E+04 -5.84777E+03
  1.78334E+04  5.54412E+02  1.43736E+04  7.91327E+03  9.83563E+02  1.25371E+04 -1.03960E+04  1.49481E+04
 -1.09279E+04  5.11344E+03 -6.09550E+03 -3.67809E+03 -1.48448E+03 -2.67497E+03  6.55932E+03 -6.08115E+03
  7.44016E+03 -1.02404E+03  5.08463E+03  1.19748E+04 -6.73130E+03  9.33759E+03 -1.19150E+04 -2.37148E+03
 -8.16916E+03 -9.47731E+03  3.71683E+03 -5.85138E+03  7.08530E+03 -4.97564E+03  8.63592E+03  1.06138E+03
 -3.83051E+03  9.01761E+03 -5.75906E+03  8.80473E+03 -3.70204E+03  5.56007E+03 -9.62665E+03 -3.46699E+03
 -8.61495E+03 -1.22593E+04  3.05991E+01 -1.64592E+04  1.26767E+04 -9.40342E+03  1.01280E+04  2.47418E+03
  8.91272E+03  8.39536E+03 -1.55846E+03  1.42717E+04 -1.18706E+04  8.25008E+03 -1.23753E+04 -3.68319E+03
 -8.28735E+03 -5.31703E+03 -6.68736E+03 -1.19154E+04  7.62265E+03 -5.51296E+03  5.54114E+03 -9.61237E+03
  7.37643E+03 -8.03476E+03  6.94986E+02  2.35637E+03  2.17197E+03 -8.11666E+02 -3.13672E+03 -4.66459E+03
  1.28369E+04 -5.61627E+03  1.73010E+04  4.86473E+02  1.35701E+04  3.06852E+03  1.08993E+04  1.55353E+04
 -3.52780E+03  1.81913E+04 -1.29288E+04  1.81628E+04 -2.11184E+04  2.49032E+03 -1.83712E+04 -1.73516E+03
 -8.05269E+03 -1.80758E+04  8.24343E+02 -1.61300E+04  4.99449E+03 -7.05194E+03  9.01553E+03 -3.96086E+03
 -2.66814E+03 -6.81894E+02  6.17480E+03 -1.32839E+03  6.16728E+03 -9.54819E+03  6.63840E+03 -4.16195E+03
  1.17279E+04  1.96002E+02  3.47598E+03  6.13324E+03 -2.09894E+03  1.44236E+04 -7.63030E+03  5.08594E+03
 -1.52025E+04 -2.43446E+03 -5.12392E+03 -7.66155E+03 -2.93370E+03 -1.60317E+04  3.74781E+03 -1.37568E+04
  1.50792E+04 -2.44907E+03  2.66883E+04  3.14577E+02  7.44408E+03  1.30010E+04 -1.66051E+03  1.39501E+04
 -3.66079E+03  1.74254E+04 -8.17474E+03  8.35203E+03 -1.58366E+03 -3.12114E+03 -7.35993E+03  1.45584E+03
  4.61646E+02  5.37118E+02 -1.04687E+03 -1.03987E+03 -5.07837E+03  2.52805E+03 -1.02911E+04  2.72711E+03
 -6.25278E+03 -3.57829E+03  3.03109E+03 -1.01563E+04  2.02860E+03 -3.39091E+03  1.34605E+04 -8.80145E+02
  1.05293E+04  6.78338E+03  9.83731E+03  1.04468E+04 -5.32915E+02  1.64627E+04 -9.79170E+03  9.56940E+03
 -1.06596E+04 -2.00890E+03  5.42243E+02 -9.83968E+03 -1.30283E+03 -4.94712E+03  4.46740E+03 -5.30607E+03
  1.01973E+04 -3.32172E+03  6.36242E+03 -8.33531E+02  4.20508E+03  1.12009E+04 -4.63234E+03 -1.68046E+03
  2.02133E+03  9.56113E+02  3.82656E+03  2.21225E+03  1.48104E+03  4.86660E+03  4.42399E+03  1.02423E+04
 -3.13972E+03  6.91630E+03 -1.07102E+04  9.92326E+03 -1.06103E+04 -2.73933E+02 -9.44973E+03 -4.68336E+03
 -3.96374E+03 -7.06060E+03  3.73117E+03 -1.03503E+04  9.62985E+03 -8.87584E+03  1.13383E+04  2.47827E+03
  2.72476E+03  1.22318E+04  2.13514E+03  4.46432E+03 -4.28844E+03  6.92370E+03 -7.71898E+03 -1.65669E+03
 -6.20892E+03 -2.41889E+03  9.75337E+03 -5.94052E+03  4.96895E+03 -6.78085E+03  7.46423E+03  7.97891E+01
  5.54634E+03  4.28344E+03 -1.64304E+02  7.57219E+03 -3.34615E+03  2.36227E+01  2.23505E+03 -4.79363E+03
 -2.18617E+03  4.70601E+03  4.91486E+03 -3.21617E+03  8.09313E+03  6.22526E+03 -2.91634E+03  1.04126E+04
 -5.79585E+03  3.49795E+03 -7.68478E+03  6.73812E+02 -6.48336E+03 -2.45712E+03 -5.72882E+03 -3.21433E+03
  2.48816E+03 -2.35041E+03  4.37144E+03 -3.06824E+03  1.18582E+03  3.77616E+03 -3.78193E+02  5.23316E+03
 -6.50950E+03 -1.45656E+03 -7.20240E+03 -3.35714E+03 -1.04637E+03 -6.95091E+03  2.95585E+03 -1.03483E+04
 -1.03735E+03 -1.38597E+03  3.69973E+03 -7.26838E+02  5.52729E+03  5.50795E+03  3.92368E+03  4.56085E+03
 -1.29000E+03  8.01441E+03 -4.34633E+03 -6.02795E+03 -5.37426E+03  4.35245E+03  9.69381E+03 -4.17348E+03
  9.22467E+03  8.61339E+03  8.52744E+03  6.72120E+03  2.42734E+03  4.13134E+03 -2.55563E+03  6.61574E+03
 -1.92856E+03  9.75722E+03 -6.64095E+03 -1.47200E+02  1.03857E+03 -5.78846E+03 -4.06884E+03 -2.42171E+03
  2.70345E+03 -3.23673E+02  5.59384E+03  4.60033E+03  4.03013E+03  5.45048E+03  9.03068E+02  8.14659E+03
 -3.59127E+02 -1.75850E+02 -3.03738E+03 -3.32329E+03  9.86098E+02 -3.39006E+02 -9.49765E+02  4.26384E+03
 -2.04833E+03  2.00340E+03 -2.81513E+03  2.57001E+03 -7.11066E+03 -1.21261E+03 -1.06367E+04 -3.82945E+03
 -6.66290E+03 -9.60761E+03  4.84091E+03 -9.73790E+03  5.76840E+03 -5.71450E+03  7.56100E+03  3.72089E+03
  6.69152E+03  2.00626E+03  1.04948E+04  4.75377E+03 -3.80300E+03  1.56545E+04 -7.64957E+03  5.13685E+03
 -3.02557E+02 -8.54798E+02 -2.58523E+03 -3.92677E+03 -2.40072E+03  2.74521E+03  2.62668E+03  1.89095E+03
 -2.27005E+03  6.23367E+03 -3.25422E+03 -1.29395E+02  2.12464E+03 -2.09065E+02 -3.86549E+03 -5.78966E+03
  4.95643E+03 -9.20075E+03  1.10205E+04 -2.93773E+03  3.98466E+03  5.41891E+03  6.99533E+02  5.54503E+03
 -3.80051E+03  4.23982E+03 -5.42872E+03  2.25349E+03 -6.44407E+03  4.88138E+03 -7.43530E+03 -8.98701E+03
 -2.99558E+02 -1.05078E+04 -1.27018E+03 -3.70637E+03  3.89188E+03 -5.05316E+03  3.95062E+03  2.52694E+03
 -1.82061E+03 -5.09210E+02 -2.26340E+03  4.90342E+03 -6.39431E+03  1.65157E+03 -7.59614E+02  4.84808E+02
 -2.47366E+03  2.60078E+03  5.53931E+03  5.63750E+03 -6.26983E+02  7.88839E+03 -3.63676E+02  1.19073E+03
 -5.10015E+03  6.25518E+03 -1.04868E+03  1.88872E+02 -1.69146E+02 -3.19521E+03 -7.61796E+02 -1.24374E+04
  3.77130E+03 -8.65861E+03  1.41261E+03 -4.53577E+03 -2.25597E+02  2.56942E+03  4.72423E+03  8.73245E+03
  8.36491E+03  1.01023E+04  3.37407E+03  9.64733E+02 -5.53818E+03 -1.76596E+03  6.10011E+03  6.63622E+01
 -3.26079E+03 -5.76382E+03 -4.09941E+03  4.53377E+03 -2.49657E+03  6.45494E+03 -3.18321E+03 -6.31245E+03
  5.04139E+02  3.56204E+02  2.15041E+03 -3.10339E+03  5.20854E+02 -7.42743E+03  3.18502E+03 -1.75375E+03
  4.89836E+03  1.43035E+03 -1.01053E+03  7.62560E+03 -3.47675E+03  5.42150E+03  7.31859E+00 -1.92047E+03
