 $NMID ID='MM_0lb_SNR50_18hz_g60_2.RAW', FMTDAT='(8E13.5)'
 TRAMP=1., VOLUME=1. $END
  3.10244E+05 -1.80341E+03  3.38866E+05  2.49012E+05  8.50396E+04  3.36417E+05 -1.34457E+05  2.50874E+05
 -1.88561E+05  8.14902E+04 -1.12980E+05 -3.55276E+04  5.39953E+03 -5.46428E+04  5.49576E+04  5.87859E+02
  3.15844E+04  5.22047E+04 -1.15214E+04  7.84462E+04 -6.14776E+04  6.21649E+04 -8.60828E+04  2.73362E+04
 -8.12696E+04 -1.15217E+04 -6.04799E+04 -5.28788E+04 -1.73634E+04 -7.23315E+04  3.01148E+04 -4.43588E+04
  4.10005E+04  3.02263E+03  1.71231E+04  4.86686E+04 -3.62337E+04  4.65331E+04 -6.98249E+04  5.19006E+02
 -5.14665E+04 -5.64733E+04 -6.12924E+03 -7.62940E+04  3.71020E+04 -5.42552E+04  5.27314E+04 -1.44817E+04
  4.17049E+04  7.43413E+03  3.32502E+04  2.53229E+04  1.69968E+04  2.79906E+04 -8.73373E+03  2.81059E+04
 -2.01523E+04  1.17984E+04 -1.81303E+04 -7.24566E+03  2.64853E+03 -6.41772E+03  2.28614E+04  1.31850E+04
  9.46162E+03  3.35130E+04 -3.09451E+04  3.39578E+04 -6.10225E+04  4.34143E+03 -6.03975E+04 -4.33584E+04
 -1.31790E+04 -6.42805E+04  3.67527E+04 -4.68393E+04  5.79847E+04 -1.35063E+03  3.56661E+04  3.38090E+04
 -3.11461E+03  3.66870E+04 -2.83381E+04  1.24537E+04 -2.94750E+04 -5.30664E+03 -1.51002E+04 -7.40559E+03
 -1.18814E+04 -1.28296E+04 -2.44574E+03 -1.68044E+04  8.77921E+03 -2.16918E+04  1.40415E+04 -1.43381E+04
  1.42478E+04  5.39048E+03 -1.02994E+04  7.71909E+03 -1.86690E+04 -1.44003E+03 -1.06403E+04 -3.23059E+04
  1.92728E+04 -3.74207E+04  4.66094E+04 -2.09975E+04  4.20551E+04  1.72682E+04  1.27955E+04  4.39584E+04
 -1.76830E+04  3.10049E+04 -2.04596E+04  3.36165E+03 -8.78100E+03 -2.72188E+04  2.16240E+04 -3.45250E+04
  4.55364E+04 -5.58784E+03  2.87845E+04  2.39757E+04  2.03250E+04  4.31856E+04 -1.10023E+04  4.84159E+04
 -2.95573E+04  3.14712E+04 -3.76608E+04  7.62005E+03 -3.96880E+04 -1.69548E+04 -1.99831E+04 -3.57320E+04
  3.29323E+03 -3.70494E+04  3.23228E+04 -1.41088E+04  2.92065E+04  1.08831E+04  4.19473E+03  2.00346E+04
 -9.79542E+03  9.82170E+03 -8.02026E+03 -4.78158E+03  8.70744E+03 -1.16720E+04  1.39625E+04  7.51903E+03
  1.03090E+04  1.88041E+04 -3.88847E+03  2.32199E+04 -2.15901E+04  9.20607E+03 -2.49849E+04 -1.75952E+03
 -1.69121E+04 -1.69367E+04 -8.48873E+03 -2.04907E+04  3.07949E+03 -1.92127E+04  1.44721E+04 -1.68094E+04
  2.51456E+04 -1.37041E+04  2.46835E+04  6.39136E+03  2.21753E+04  1.44650E+04  6.45709E+03  3.08258E+04
 -1.81276E+04  3.24318E+04 -2.60330E+04  8.64341E+03 -2.00354E+04 -1.16751E+04 -2.51060E+03 -1.60477E+04
  4.10288E+03 -5.45863E+03 -2.58404E+03 -1.18659E+01 -1.01732E+04  6.25876E+03 -1.61478E+04 -5.78635E+03
 -6.92502E+03 -1.45599E+04  2.71008E+03 -1.67430E+04  1.48623E+04 -1.45925E+04  1.29468E+04  2.51953E+03
  1.05691E+04  8.94578E+03 -1.80835E+02  2.11957E+04 -8.78603E+03  1.19027E+04 -1.68489E+04 -4.59416E+03
 -1.57371E+04 -1.60699E+04 -3.26868E+02 -1.78214E+04  3.14029E+03 -1.48474E+04  1.95903E+04 -9.90130E+03
  1.84278E+04  2.72044E+03  8.60848E+03  2.02778E+03  4.08816E+03 -2.66472E+03  8.34155E+03  1.06352E+03
  1.23106E+04  6.39197E+03  1.61193E+04  1.89325E+04  9.67010E+03  2.77334E+04 -3.02950E+03  3.15578E+04
 -2.01395E+04  2.85042E+04 -2.55400E+04  1.16693E+04 -2.75201E+04 -2.96470E+03 -2.26295E+04 -1.28957E+04
 -1.11725E+04 -1.97803E+04  9.60919E+03 -1.88638E+04  1.72901E+04 -6.06372E+03  1.73191E+04  4.98158E+03
  6.40477E+03  1.46191E+04 -6.44643E+03  8.78510E+03 -1.55040E+04  1.13810E+03 -7.01507E+03 -5.47485E+03
  1.08953E+03 -1.01927E+04  8.92683E+03 -1.18267E+04  9.85603E+03 -2.07203E+03  2.96665E+03  1.00195E+04
 -3.97045E+03  3.26580E+03 -5.91756E+03 -2.88541E+03 -2.56668E+03 -8.44390E+03  9.52544E+03 -1.04277E+04
  1.55221E+04 -6.02463E+03  1.36856E+04  4.86706E+03  1.24426E+04  9.38227E+03  7.74533E+03  1.99605E+04
 -4.07487E+03  1.82477E+04 -1.17424E+04  1.02776E+04 -1.12774E+04  1.94323E+03 -1.16567E+04 -1.25726E+03
 -8.50477E+03 -7.88150E+03  6.45314E+02 -1.06186E+03  2.88365E+03  7.70537E+03 -4.15333E+03  1.31197E+03
 -1.22845E+04  3.11658E+03 -1.00310E+04 -8.49633E+03 -6.89388E+03 -1.13148E+04 -2.07489E+02 -1.27152E+04
  6.71363E+03 -6.53694E+03  7.17617E+03  4.27557E+03  2.73350E+03  3.95391E+03 -3.28705E+03 -8.68766E+02
 -3.35534E+03 -7.29892E+03 -6.32936E+03 -9.75205E+03  6.77160E+03 -1.06721E+04  1.19436E+04 -5.83234E+03
  1.09556E+04  3.45845E+03  1.00137E+04  5.52361E+03  4.35654E+02  9.43520E+03 -4.33637E+03  1.22543E+04
 -8.33583E+03  3.41612E+03 -2.85119E+03  3.46820E+03  3.08568E+03 -3.82735E+03  4.36426E+03 -1.82331E+03
  7.40903E+03  1.07202E+03 -1.90230E+03  1.88723E+03 -5.30777E+03  5.04155E+03 -8.63829E+03  2.38716E+03
 -7.56633E+03 -4.04727E+03  3.84869E+03 -6.71615E+03  6.79746E+03 -4.66166E+03  8.24048E+03  6.18272E+03
  1.91247E+03  7.35401E+03 -4.77379E+03  3.18451E+03 -1.14329E+04  3.75287E+03 -9.81583E+03 -2.69765E+03
 -2.05574E+03 -7.10252E+03 -1.05480E+02 -8.47715E+03  6.51705E+03 -4.97630E+03  5.45297E+03  1.09692E+03
  4.23270E+03  7.65350E+03  2.67965E+03  4.95794E+03 -7.13788E+03  7.12892E+03 -8.59826E+03 -1.71981E+02
 -1.02120E+04 -4.79720E+03 -4.48066E+03 -8.74319E+03  2.44365E+03 -3.21773E+03  3.23817E+03  1.45645E+03
 -4.84645E+02 -2.80316E+03  9.38282E+02  3.37418E+03  2.92281E+03 -1.63141E+03 -1.45656E+03 -2.32938E+03
  3.35511E+03 -2.56158E+01  8.91163E+03  1.26949E+03  8.45433E+03  2.44560E+03  8.09862E+03  7.17166E+03
 -2.12048E+03  1.39796E+04 -8.88020E+03  9.01226E+03 -7.85803E+03  6.96163E+01 -9.93601E+03 -1.89173E+03
 -4.12137E+03 -5.37089E+03 -1.91713E+03 -8.26430E+03  1.64306E+03  4.08383E+02  4.07509E+03  8.89454E+02
  2.54833E+03 -4.39336E+03  2.28192E+02 -2.81209E+02  5.28171E+03 -4.30682E+03  1.11385E+04 -2.39164E+03
  7.35348E+03 -2.45455E+03  1.01994E+03  2.72338E+03 -8.23777E+02  4.58452E+03 -1.97951E+03  4.42690E+03
 -8.14468E+03 -1.33482E+03 -1.87564E+03 -6.66184E+03 -6.71173E+02 -1.92236E+03  2.60079E+03 -8.40611E+03
  4.64917E+03 -5.61922E+03  7.32241E+03  1.93834E+03  9.52749E+03  5.70037E+03 -4.57281E+03  6.35282E+03
 -1.19045E+03  4.44734E+03 -6.70403E+03  4.68171E+03 -4.89495E+03 -5.01186E+02 -5.70845E+03  2.70858E+03
 -4.93262E+03  1.15610E+03 -2.44359E+03  4.01203E+03 -3.51195E+03 -6.38412E+02 -8.46057E+03 -1.19890E+03
  2.08091E+02 -5.65080E+03 -1.98756E+03 -2.16322E+03 -1.10831E+03 -8.25192E+02  4.04845E+03 -2.45462E+03
  4.02950E+02  4.26635E+03  5.26148E+03  6.19848E+03 -1.12631E+03  4.13227E+03 -2.77777E+03  4.19578E+03
 -5.43342E+03 -2.74215E+03 -5.90219E+03 -2.28189E+03  2.76664E+03 -1.57029E+03  8.52363E+02 -1.45551E+03
  4.36505E+03 -5.59601E+02  3.55226E+03  6.25333E+01  4.70327E+02  2.17251E+03 -1.71538E+03  3.54679E+02
  5.71055E+01  5.20378E+02  2.13838E+03 -5.38368E+02  3.06546E+03  7.46862E+02 -9.79651E+02  4.97481E+03
 -3.42430E+03  8.13723E+03 -3.22725E+03  2.54644E+03  7.76559E+02 -1.35040E+03  3.43646E+02 -2.25366E+03
 -5.40188E+03 -8.36065E+03 -1.32351E+03 -3.31613E+03  4.23421E+03 -4.73356E+03  3.36093E+03 -4.24090E+03
  3.61562E+03  7.15382E+03  3.90609E+03  2.90305E+03  1.03323E+03 -2.41407E+02 -2.20474E+03 -9.64139E+01
 -2.26949E+03  1.71980E+03  6.35388E+03 -4.78035E+03 -9.54986E+02  1.39864E+03  3.15757E+03 -3.45693E+02
  2.21961E+03 -4.66381E+03  1.52582E+03 -4.57037E+03  3.36778E+02 -4.29675E+02  3.30425E+03  3.18191E+03
  1.85592E+03  1.12903E+02  3.08876E+03  2.19714E+03  2.68808E+03  3.74062E+03 -1.93854E+03  8.09681E+02
  1.32751E+03 -9.56849E+02 -1.09981E+03  2.29388E+03  5.57041E+02 -3.74795E+03 -4.23740E+03  8.52523E+01
  3.00242E+03 -1.23699E+03  3.17266E+03 -4.43184E+02  1.44105E+03  3.66832E+02 -1.02674E+03  5.99702E+03
 -3.22382E+03  3.40085E+03 -7.68961E+02 -6.39973E+03  1.56269E+03 -1.28077E+03  6.40291E+02  2.48720E+02
 -8.21432E+02 -8.93361E+02  1.51780E+03 -4.49251E+03  2.09153E+03  4.46222E+03  8.28617E+02  4.71589E+02
  2.38572E+03 -1.73077E+03  3.82821E+03 -6.78082E+01  1.03043E+03 -3.15502E+03 -4.52542E+02 -9.67041E+01
  5.58496E+02  1.34592E+03 -4.01060E+03  6.18733E+03  1.90603E+03  3.47976E+03  1.55058E+03  7.54823E+02
 -4.09791E+03 -3.44221E+03 -5.41623E+03 -2.04499E+03 -1.66364E+03 -2.36650E+03  4.61684E+03 -2.84186E+03
 -4.92844E+03  4.58692E+02 -7.84600E+02  2.16580E+03  2.85503E+03 -3.31567E+02  1.35228E+03 -2.26503E+03
  8.71247E+02  4.70402E+03 -7.17129E+02 -4.12889E+03 -5.87353E+03 -2.41745E+03 -3.87706E+03 -2.72313E+03
  6.02310E+01  1.17154E+03  2.98151E+01 -5.46447E+03 -1.85901E+03  2.51616E+03 -3.59621E+03 -4.31572E+03
 -3.50724E+03 -2.91009E+03  3.35639E+03 -1.91686E+03 -7.21801E+02 -2.92134E+02  6.56336E+03 -2.53642E+03
  4.95855E+03 -4.20241E+03 -2.79069E+03  5.49085E+03 -3.70556E+03  5.91197E+03  3.50312E+02 -2.78069E+03
  1.17987E+03  1.01691E+03 -2.19179E+03 -2.38606E+03  2.44799E+01  2.23935E+03 -1.19870E+03  6.77801E+02
 -2.65192E+03 -2.48056E+03 -2.81992E+03  1.89104E+03 -1.14104E+03 -2.30687E+03 -2.86719E+03  1.75139E+02
 -1.04462E+03  3.66690E+03  2.56210E+03  1.62773E+03  6.17216E+02  4.51253E+03  1.36821E+03  5.22062E+03
  1.66924E+03  5.66840E+03 -7.02013E+03  5.70671E+02 -1.87990E+02 -1.40612E+03 -4.18833E+03  3.06651E+03
  1.22219E+03  1.37585E+02  2.52043E+03 -3.56178E+03  1.44138E+03 -3.40929E+02  2.22449E+02  1.31972E+03
  1.12103E+03  6.97776E+02 -9.86821E+02  1.44089E+03  1.48819E+03  7.22646E+02 -8.42711E+02 -1.55099E+03
  3.86553E+03  8.57170E+03 -1.20659E+02  6.91782E+03 -2.19692E+03  2.48547E+03  1.60655E+03 -1.48480E+02
 -2.55735E+03 -3.06251E+02  6.92586E+02 -3.25585E+03  1.26379E+03 -1.25852E+03  2.24246E+03 -2.77669E+03
  4.71584E+03 -2.20521E+03 -5.83988E+01 -6.62459E+03  1.44135E+02 -3.45759E+03 -2.72445E+03  7.10018E+03
  4.43103E+03  4.04513E+02 -6.58193E+02  3.63519E+03  1.60914E+03  2.89735E+03  1.93992E+03 -3.98547E+03
 -9.58115E+02 -2.40096E+03 -1.84561E+03 -1.32792E+03  3.16055E+03 -3.06607E+03  6.30101E+02 -2.49654E+03
  7.12057E+02  1.43281E+03  2.23490E+03  4.26343E+03  2.81687E+02 -4.62935E+03  7.08325E+03  1.48611E+03
 -8.52465E+02  3.18749E+03  2.54729E+03  4.49609E+03  2.73763E+03  1.50285E+03  2.33697E+03 -3.11442E+03
