 $NMID ID='MM_0lb_SNR50_10hz_g50_42.RAW', FMTDAT='(8E13.5)'
 TRAMP=1., VOLUME=1. $END
  3.12618E+05  4.03903E+02  3.38454E+05  2.51196E+05  8.15776E+04  3.39583E+05 -1.34424E+05  2.52120E+05
 -1.89983E+05  8.56049E+04 -1.11597E+05 -3.13534E+04  4.02404E+03 -4.75353E+04  5.19281E+04  1.81401E+03
  3.08101E+04  5.37227E+04 -1.99063E+04  7.66111E+04 -5.93720E+04  6.99455E+04 -8.02396E+04  3.67494E+04
 -8.31230E+04 -5.89996E+03 -5.73403E+04 -5.52473E+04 -1.83363E+04 -7.34482E+04  2.95864E+04 -5.00727E+04
  3.59589E+04  2.58490E+03  1.92007E+04  5.00371E+04 -3.87929E+04  5.06126E+04 -6.83049E+04 -2.59344E+03
 -5.41071E+04 -5.88188E+04 -6.86413E+03 -7.61770E+04  3.56158E+04 -5.84628E+04  5.26922E+04 -1.08061E+04
  4.69217E+04  1.12142E+04  3.89232E+04  2.48344E+04  1.39590E+04  3.45120E+04 -7.38368E+03  2.20431E+04
 -2.26464E+04  1.21708E+04 -2.55853E+04 -6.15111E+02  4.71569E+03 -5.92994E+03  2.44823E+04  1.43645E+04
  1.23015E+04  3.83636E+04 -3.61183E+04  3.17644E+04 -6.84547E+04  7.41983E+03 -6.73829E+04 -4.38387E+04
 -6.85675E+03 -6.54915E+04  3.94326E+04 -4.81792E+04  6.16001E+04  2.64483E+03  3.35914E+04  3.38000E+04
 -8.26284E+03  4.87738E+04 -3.38706E+04  2.03051E+04 -3.03018E+04 -7.34503E+03 -2.35055E+04 -1.49975E+04
 -2.17083E+03 -2.22089E+04  1.85882E+03 -1.57696E+04  1.03417E+04 -2.32571E+04  1.01236E+04 -6.16071E+03
  1.45857E+04  4.90159E+03 -5.68447E+03  1.76705E+04 -2.43483E+04 -6.21858E+03 -1.27402E+04 -3.66187E+04
  2.02669E+04 -3.95477E+04  5.20583E+04 -2.51564E+04  4.21458E+04  1.83715E+04  1.70744E+04  4.95079E+04
 -1.66866E+04  3.13313E+04 -2.81364E+04 -2.24097E+03 -8.48541E+03 -2.69433E+04  2.02016E+04 -3.80750E+04
  4.49675E+04 -5.26341E+03  3.85327E+04  2.84720E+04  1.66891E+04  4.47602E+04 -9.75306E+03  6.10053E+04
 -3.78378E+04  3.57633E+04 -4.69229E+04  3.69712E+03 -4.78455E+04 -2.39510E+04 -2.28030E+04 -3.96435E+04
  1.26166E+04 -3.48230E+04  3.42213E+04 -2.18314E+04  3.65664E+04  8.94137E+03  7.38779E+03  2.84921E+04
 -1.20204E+04  5.40797E+03 -1.20181E+04 -1.02048E+04  7.66599E+03 -1.33415E+04  1.94125E+04  5.17934E+03
  1.05025E+04  2.60152E+04 -4.16144E+03  2.43323E+04 -2.50884E+04  1.26671E+04 -3.06663E+04 -2.32567E+03
 -2.24748E+04 -2.12970E+04 -1.15952E+04 -1.93988E+04  2.18663E+03 -2.44158E+04  1.71774E+04 -2.10258E+04
  2.92324E+04 -1.56932E+04  3.91045E+04  7.74585E+03  3.03599E+04  2.56557E+04  1.25344E+03  4.72956E+04
 -1.63303E+04  3.27231E+04 -2.57146E+04  7.35380E+03 -1.98661E+04 -1.17105E+04 -4.38762E+03 -7.97084E+03
 -1.24539E+03 -3.85918E+03 -7.92195E+03  1.13517E+04 -1.98872E+04  6.84380E+03 -2.39023E+04 -8.71921E+03
 -9.84431E+03 -2.59977E+04  3.98954E+03 -2.94087E+04  1.71458E+04 -1.82127E+04  2.54418E+04  2.20651E+03
  1.11855E+04  1.64214E+04 -1.21159E+03  1.87467E+04 -1.83014E+04  1.74698E+04 -1.81293E+04 -4.02268E+03
 -1.82920E+04 -1.77499E+04  2.11519E+03 -3.25526E+04  1.32124E+04 -2.52070E+04  2.77306E+04 -1.47411E+04
  2.08941E+04 -1.98022E+03  1.20146E+04  6.97615E+03  9.10283E+03  3.69564E+03  1.32389E+04  6.16215E+03
  1.92769E+04  7.00068E+03  2.48627E+04  1.46134E+04  2.32215E+04  3.12776E+04 -7.53027E+03  4.47234E+04
 -2.13604E+04  3.53161E+04 -4.13581E+04  1.73597E+04 -4.16627E+04 -3.41831E+03 -3.30227E+04 -2.01922E+04
 -9.43148E+03 -3.42449E+04  1.36288E+04 -3.19328E+04  2.44134E+04 -1.49725E+04  2.02047E+04  1.06641E+04
  9.01184E+03  1.50990E+04 -8.47782E+03  1.90036E+04 -1.93608E+04  1.92477E+03 -1.84387E+04 -9.13305E+03
 -2.61839E+03 -1.66628E+04  7.42835E+03 -1.91415E+04  1.53259E+04  1.94661E+02  4.68195E+03  6.72162E+03
 -4.18051E+03  4.13113E+02 -7.60107E+03 -9.56377E+03 -3.44938E+03 -1.35894E+04  1.58563E+04 -2.30958E+04
  1.99433E+04 -5.17743E+03  2.28365E+04  8.01948E+03  1.85058E+04  8.46324E+03  1.01800E+04  2.25205E+04
 -6.09543E+03  3.03408E+04 -1.96199E+04  1.65216E+04 -1.62915E+04  3.78777E+03 -1.39953E+04 -4.82020E+03
 -1.49783E+03  9.58195E+02  2.44943E+03  3.30763E+03  1.59275E+02  5.93612E+03 -4.59634E+03  1.09378E+03
 -1.74191E+04 -2.05208E+03 -1.33196E+04 -1.47853E+04 -3.17045E+03 -1.26953E+04  8.21487E+03 -1.26734E+04
  1.26966E+04 -6.70770E+03  6.23465E+03  6.99178E+03 -2.10042E+03  1.89088E+03 -5.45881E+03  2.44688E+03
 -2.60852E+03 -7.39746E+03 -2.61278E+03 -1.28972E+04  8.99570E+03 -1.38375E+04  1.42962E+04 -4.78868E+03
  2.00588E+04 -1.57590E+03  9.07464E+03  1.21741E+04  1.24908E+03  1.55328E+04 -1.36875E+04  1.25472E+04
 -4.96367E+03  6.37651E+03 -1.61743E+03 -2.50874E+03  4.10602E+03  1.66223E+03  6.65991E+03  4.73264E+03
  8.87825E+03  8.39856E+03  4.58262E+02  1.59037E+04 -9.30961E+03  1.12140E+04 -1.01075E+04  3.38832E+03
 -8.56040E+03 -4.57544E+03  2.92216E+03 -1.71178E+04  1.25961E+04 -4.51655E+03  9.05710E+03  6.18652E+03
  1.74676E+03  1.09266E+04 -3.23766E+03  9.05109E+03 -1.62874E+04  4.64682E+03 -1.25899E+04 -1.39081E+01
 -2.06656E+03 -1.64196E+04 -3.77286E+03 -1.61872E+04  1.31387E+04 -9.12301E+03  9.02156E+03  2.17442E+03
  1.45354E+04  1.29959E+04 -5.61474E+03  1.45769E+04 -1.44906E+04  4.77123E+03 -9.36098E+03  2.05345E+03
 -7.86856E+03 -6.72100E+03  5.83154E+03 -1.07202E+04  1.23675E+02 -8.00137E+03  7.64085E+03 -4.98917E+03
  4.16141E+03  3.95603E+03 -2.24694E+03  1.80067E+03  7.00509E+02  3.29728E+03 -7.83389E+02 -9.13959E+03
  1.37874E+04 -2.77673E+03  1.29675E+04  3.86799E+03  1.71573E+04  1.11169E+04  9.24963E+03  2.08846E+04
 -9.25456E+02  2.14156E+04 -1.78885E+04  2.15116E+04 -2.16932E+04  2.12404E+03 -1.94924E+04 -6.18876E+03
 -8.06882E+03 -1.40041E+04 -7.38014E+03 -9.94647E+03  1.77220E+03 -7.64832E+03  8.66304E+03 -1.72556E+03
  3.43686E+03 -3.90800E+03  1.53103E+03 -5.56538E+02 -2.36059E+02 -6.61497E+03  6.49832E+03 -4.77157E+03
  8.26844E+03  4.74238E+03  5.43086E+03  3.54073E+03 -2.46597E+03  1.31563E+04 -7.78158E+03  9.97201E+03
 -8.04448E+03  5.36847E+03 -1.70560E+04 -1.18868E+04 -1.61069E+03 -1.45835E+04  9.35131E+03 -1.54616E+04
  1.29064E+04 -1.22386E+04  1.29693E+04  1.75236E+03  1.24633E+04  1.65762E+04  1.48499E+03  1.93885E+04
 -1.19074E+04  8.05260E+03 -1.12835E+04  1.60229E+02 -7.36643E+02 -1.11555E+03 -2.51261E+03 -5.35676E+03
  4.12662E+00 -3.63950E+03 -4.10747E+03  8.80307E+02 -5.39943E+03  1.41061E+03 -1.32146E+04 -2.66702E+03
 -7.25744E+03 -1.32120E+04  6.50383E+02 -1.11256E+04  9.34256E+03 -1.48929E+04  1.79678E+04 -4.16709E+03
  1.59923E+04  4.09412E+02  3.54613E+03  9.66269E+03  1.33482E+03  1.47750E+04 -7.06854E+03  5.38505E+03
 -1.35488E+04  2.12584E+03 -1.37124E+04 -7.75907E+03 -5.94410E+03 -7.19777E+03  7.79418E+03 -1.24809E+04
  3.15469E+03 -3.30682E+03  5.00778E+03  2.08742E+03  4.15835E+03  5.16116E+03  3.40598E+03 -5.31264E+02
 -2.01960E+03  6.30653E+03  1.14017E+03 -1.58128E+03  5.62748E+03  6.37885E+03  7.40891E+03  8.98164E+03
 -3.90811E+03  1.13466E+04 -1.08655E+04  9.06557E+03 -1.72864E+04  2.61264E+03 -1.33255E+04 -5.63755E+03
 -7.51026E+03 -1.39986E+04 -1.08963E+03 -1.46088E+04  6.92814E+03 -8.03804E+03  1.02074E+04 -7.51791E+03
  5.74483E+03  4.38229E+03  2.81128E+03  4.52071E+03 -2.65127E+03  1.01362E+04 -5.49822E+03  1.50458E+03
 -4.42041E+03 -3.12741E+03  2.53402E+03 -4.81496E+03  5.64283E+03  3.77436E+02  6.71822E+03  1.86678E+03
 -1.83701E+03  6.33764E+01 -1.21477E+02  1.38021E+03 -4.61077E+03  2.71937E+03  3.81822E+03  4.15823E+02
  2.67189E+03 -1.60825E+03  9.21216E+03 -4.63907E+02  2.36424E+03  1.68666E+03 -5.33505E+03  6.41334E+03
 -3.95262E+03  7.09607E+03 -6.01583E+03  4.62927E+03 -7.55152E+03 -6.85289E+03 -2.44333E+03 -4.92753E+03
 -3.41183E+03 -3.23628E+03  3.62159E+03 -2.00425E+03  1.14977E+03  9.15798E+03 -7.66260E+03  1.87372E+03
  3.91834E+01  1.83456E+03 -7.43845E+03 -9.99799E+02 -7.67802E+03 -5.18643E+03 -4.21808E+03 -4.70463E+03
  4.44101E+03 -3.81442E+03  1.48712E+03  3.39956E+03 -9.83982E+02  3.35991E+03 -9.55227E+01  2.22229E+03
 -5.22846E+03  1.60632E+03 -4.44374E+02 -7.89736E+03  7.95070E+02 -4.75084E+03  8.50112E+03 -4.04265E+03
  1.04352E+04  5.23905E+03  8.13629E+03  3.18488E+03  5.06490E+03  4.48854E+03 -5.60424E+03  1.16576E+04
 -2.62642E+03  5.98577E+03 -3.06706E+03 -1.47102E+03 -7.03075E+03 -5.51666E+03  1.65437E+03 -4.72635E+03
 -4.49019E+03 -4.86346E+03  4.09434E+03  5.49680E+03  5.33131E+03  7.40023E+03 -4.47961E+03  1.02000E+04
 -4.50345E+03  1.69328E+02  2.27674E+03 -1.36995E+03 -1.26042E+03 -2.97590E+03 -3.63234E+01  2.77235E+02
 -2.66751E+03  7.66571E+03 -3.56261E+03  5.70530E+03 -1.17026E+04  6.70893E+02 -8.00148E+03 -1.03612E+04
 -3.68339E+03 -1.33812E+04 -2.97694E+03 -8.26743E+03  7.63939E+03 -1.11007E+04  4.33180E+03 -4.50508E+03
  4.38291E+03  5.23257E+03  4.07028E+03  7.60789E+03 -4.62012E+03  1.27664E+04 -5.03312E+03  9.38290E+03
 -5.44749E+03  3.81193E+03 -6.80273E+02  7.35870E+03 -3.49459E+03  1.55739E+03  3.96490E+02  5.50995E+02
  4.68713E+03  2.52189E+03 -6.01091E+03  1.38110E+03  2.30584E+02 -2.17099E+03 -7.18075E+02 -2.80500E+03
  5.12692E+03  2.35014E+03  8.17244E+03  1.09253E+03  6.87305E+03  6.05334E+03  2.17409E+03  9.11123E+03
 -1.72679E+03  7.86260E+03 -2.89755E+03  4.66642E+03 -6.74764E+03 -3.60593E+02 -5.11194E+03 -2.90111E+03
  2.45151E+03 -6.46524E+03 -3.84280E+03 -5.01879E+03  5.35597E+03 -3.23264E+03  1.64545E+03  2.82726E+03
  9.47117E+03  4.73471E+02  1.40697E+03  5.07018E+03 -1.82133E+03  4.65383E+03 -1.10314E+03 -1.03417E+03
  3.02888E+03 -2.10305E+03  2.53026E+03 -4.28985E+03 -3.84932E+03  2.73620E+03 -7.15268E+01 -4.64457E+02
 -3.68991E+03  5.94876E+03 -6.16557E+03  9.22495E+03 -3.74807E+03  8.88647E+02  1.24418E+03 -1.03598E+04
  5.76665E+03 -8.54729E+03  6.12452E+03 -3.28568E+02  5.78027E+03  3.72358E+03  3.17040E+03  3.26072E+03
  3.54241E+03  6.47961E+03 -9.58811E+03  8.81130E+03 -8.71717E+03 -3.21809E+01 -3.16577E+03  3.98922E+02
 -3.51567E+01 -3.44664E+03  5.24647E+02  1.61048E+03 -5.14013E+03  6.40322E+03  1.40134E+03  2.98788E+03
 -9.03679E+03  4.16434E+03 -1.83575E+03 -7.64332E+03  8.10396E+03 -4.37799E+03  6.09488E+03 -9.45638E+02
  2.81187E+03 -3.83943E+03  5.23530E+03  5.66882E+03  8.90247E+01  3.62569E+03 -2.92867E+03  6.30224E+03
