 $NMID ID='MM_0lb_SNR50_8hz_g55_63.RAW', FMTDAT='(8E13.5)'
 TRAMP=1., VOLUME=1. $END
  3.05568E+05  2.11845E+03  3.39140E+05  2.41462E+05  8.99975E+04  3.41487E+05 -1.36871E+05  2.49258E+05
 -1.89000E+05  7.75652E+04 -1.04804E+05 -2.98880E+04 -5.67441E+02 -5.45316E+04  4.68547E+04  1.16838E+03
  3.73175E+04  5.16458E+04 -1.59756E+04  7.58614E+04 -6.45051E+04  6.38640E+04 -8.13705E+04  3.05407E+04
 -7.89848E+04 -9.87228E+03 -5.21793E+04 -5.35470E+04 -1.67603E+04 -7.24406E+04  2.54323E+04 -4.56397E+04
  4.22144E+04  4.62781E+02  1.22264E+04  5.35595E+04 -3.82055E+04  4.91020E+04 -6.41660E+04  4.90874E+03
 -5.46703E+04 -5.44356E+04 -9.58640E+03 -7.54462E+04  3.08648E+04 -6.40680E+04  5.75234E+04 -1.57939E+04
  5.15559E+04  1.03692E+04  3.17277E+04  2.44409E+04  1.97941E+04  2.66583E+04 -5.67188E+03  2.81579E+04
 -1.75533E+04  1.28800E+04 -9.78005E+03 -3.35531E+03  5.56694E+03 -5.42940E+03  2.51462E+04  1.57517E+04
  8.93096E+03  3.79339E+04 -3.64354E+04  3.81979E+04 -6.50295E+04  2.17981E+02 -6.00998E+04 -4.30313E+04
 -1.09570E+04 -6.97797E+04  4.09388E+04 -4.74135E+04  5.64837E+04 -7.30297E+02  3.65500E+04  3.54778E+04
 -4.96678E+03  3.42414E+04 -3.26533E+04  1.85285E+04 -3.94868E+04 -1.04329E+04 -2.29410E+04 -8.28971E+03
 -5.10663E+03 -3.80729E+03  4.16759E+03 -2.46079E+04  4.10878E+03 -1.88710E+04  1.52886E+04 -9.16461E+03
  8.21292E+03  7.83409E+03 -1.33874E+04  1.84389E+04 -2.92804E+04 -1.29266E+04 -7.71872E+03 -3.59642E+04
  2.17724E+04 -4.83348E+04  4.87119E+04 -2.15559E+04  5.51751E+04  2.43669E+04  1.71498E+04  4.25955E+04
 -2.15898E+04  3.34188E+04 -2.69771E+04  7.52722E+02 -1.37164E+04 -2.92342E+04  1.90091E+04 -4.26855E+04
  5.07508E+04 -1.78634E+04  4.36657E+04  2.68025E+04  2.74720E+04  5.42329E+04 -1.25588E+04  5.84919E+04
 -3.59867E+04  3.83281E+04 -5.40754E+04  8.61831E+03 -5.04465E+04 -1.58696E+04 -2.54476E+04 -4.00147E+04
  7.70420E+03 -5.05266E+04  3.82741E+04 -1.36521E+04  3.48540E+04  1.03958E+04  4.96198E+03  1.87876E+04
 -1.53429E+04  9.88929E+03 -1.44330E+04 -1.40639E+04  1.02493E+04 -9.96444E+03  2.00955E+04  6.96190E+03
  1.94535E+04  2.18052E+04 -6.97857E+03  2.10215E+04 -2.37861E+04  2.14178E+04 -3.75614E+04 -6.69823E+03
 -2.35451E+04 -2.01463E+04 -1.18644E+04 -3.55043E+04  8.29870E+03 -2.68634E+04  2.29893E+04 -2.59431E+04
  3.29429E+04 -7.73458E+03  4.12464E+04  1.03943E+04  2.70384E+04  2.62215E+04  2.58371E+03  4.15915E+04
 -2.42267E+04  3.32439E+04 -3.67533E+04  5.99047E+03 -2.29669E+04 -1.86948E+03 -3.13642E+02 -1.38887E+04
  4.66270E+02  2.98965E+03 -4.74313E+03  1.17914E+04 -2.19978E+04  7.40704E+03 -2.19696E+04 -1.43452E+04
 -5.40566E+03 -2.76088E+04  1.57776E+03 -2.59898E+04  2.11988E+04 -1.93956E+04  2.18473E+04  5.54253E+03
  1.38559E+04  1.15685E+04 -4.90668E+03  1.43164E+04 -1.16466E+04  1.87260E+04 -2.59680E+04 -8.48286E+03
 -2.20261E+04 -1.65617E+04 -4.79253E+02 -3.18106E+04  1.40408E+04 -2.50671E+04  2.75797E+04 -1.12181E+04
  2.04485E+04 -2.13564E+03  1.50867E+04  4.78853E+03  1.26978E+04  6.94501E+02  1.73118E+04 -2.69926E+03
  2.23715E+04  7.58571E+03  2.58665E+04  1.93681E+04  1.40826E+04  3.98989E+04  1.18254E+03  4.67188E+04
 -2.94490E+04  4.45038E+04 -4.34418E+04  1.85784E+04 -5.19286E+04 -8.04836E+03 -3.68309E+04 -2.81963E+04
 -1.21611E+04 -4.22368E+04  1.20250E+04 -3.97513E+04  3.46792E+04 -1.59726E+04  2.51323E+04  1.05597E+04
  1.01212E+04  2.26945E+04 -1.18840E+04  1.64521E+04 -2.46907E+04  6.55270E+02 -1.60225E+04 -7.39225E+03
 -1.14404E+03 -2.48370E+04  1.03370E+04 -1.87825E+04  1.47136E+04  2.78806E+03  3.71123E+03  1.11950E+04
 -1.34836E+04  8.08464E+02 -5.20865E+03 -1.45712E+04 -7.27644E+02 -2.02314E+04  1.71635E+04 -1.69536E+04
  2.66824E+04 -8.97435E+03  2.97508E+04  4.41584E+03  1.97976E+04  2.50901E+04  1.56054E+04  3.41912E+04
 -7.86733E+03  3.69816E+04 -2.86770E+04  2.13846E+04 -2.48301E+04  4.48658E+02 -1.93551E+04 -9.02177E+03
 -1.31359E+04 -8.18854E+03  3.26056E+03 -2.28789E+03  3.18037E+03  5.35308E+03 -1.19989E+04  1.01711E+04
 -2.16974E+04 -1.27532E+03 -1.74799E+04 -1.28479E+04 -5.79235E+02 -1.95715E+04  8.90134E+03 -1.48491E+04
  8.80458E+03  3.42096E+03  1.25436E+04  1.08586E+03 -1.16672E+02  2.91838E+03 -9.20902E+03 -1.53327E+03
 -9.30718E+03 -8.18505E+03  6.99736E+03 -1.52581E+04  1.71475E+04 -2.03705E+04  2.28849E+04 -1.19862E+04
  2.80577E+04  2.83668E+02  1.08888E+04  7.27916E+03  2.24806E+03  2.43289E+04 -8.47405E+03  1.94001E+04
 -1.61022E+04  2.73574E+03 -1.13070E+04  1.83617E+03  6.69758E+03 -5.46655E+03  1.17922E+04  4.46992E+02
  1.00123E+04  1.43708E+04  1.53625E+03  1.16385E+04 -1.35631E+04  1.01084E+04 -1.73260E+04  8.58030E+02
 -1.64342E+04 -1.10561E+04 -7.23938E+01 -1.80767E+04  1.50856E+04 -9.68322E+03  8.84177E+03  3.38413E+03
  4.71209E+03  1.27187E+04 -6.23817E+03  1.22052E+04 -1.79287E+04  6.27230E+03 -1.69910E+04 -1.17313E+04
 -1.15198E+04 -1.22006E+04  7.78047E+02 -2.44187E+04  1.76375E+04 -1.03563E+04  1.78990E+04  2.27457E+03
  1.58632E+04  1.44411E+04 -2.90824E+03  1.58885E+04 -1.42013E+04  7.60130E+03 -1.21201E+04 -3.18760E+03
 -2.01840E+04 -7.97253E+03  1.62441E+03 -7.19131E+03  3.65030E+03 -1.60904E+04  6.24556E+03 -9.45636E+03
  4.94410E+03  3.41810E+03 -3.23829E+03  7.44809E+03 -5.54289E+02 -2.24952E+03  1.21485E+01 -8.50577E+03
  1.22534E+04  1.51886E+03  1.13813E+04  1.06236E+04  2.27897E+04  1.03266E+04  8.73502E+03  2.60011E+04
 -7.17068E+03  2.51412E+04 -1.86262E+04  1.80798E+04 -3.25209E+04  9.53552E+03 -2.52997E+04 -1.43953E+04
 -5.21727E+03 -1.81742E+04 -3.08162E+02 -1.57169E+04 -3.95697E+03 -6.63738E+03 -4.00512E+03 -7.73947E+03
  5.59922E+02 -2.19946E+03  5.91959E+03 -2.90175E+03  1.17945E+04  4.18801E+03  1.07856E+04 -2.64526E+03
  1.03390E+04  7.02286E+03  3.23545E+03  8.98548E+03 -5.51624E+03  2.01158E+04 -1.46589E+04  4.47642E+03
 -1.78155E+04 -2.28327E+03 -7.18444E+03 -1.51096E+04 -6.07557E+03 -2.45721E+04  8.13704E+03 -1.45279E+04
  2.16259E+04 -1.43149E+04  1.79221E+04  3.24942E+03  1.20821E+04  1.52576E+04  1.40624E+03  1.16725E+04
 -4.07577E+03  2.15114E+04 -7.94566E+03  4.80146E+03 -6.09659E+03 -6.76797E+03 -4.00129E+03 -5.22275E+03
 -1.27314E+03  5.80837E+03 -6.32672E+01  1.02053E+04 -1.28156E+04 -2.56114E+03 -1.50798E+04  1.08184E+03
 -5.46523E+03 -6.06836E+03 -4.47070E+03 -1.93860E+04  1.75929E+04 -1.44477E+04  2.04298E+04 -9.47282E+03
  1.72183E+04  2.79514E+03 -1.13048E+03  9.90936E+03 -5.11526E+03  1.63717E+04 -1.77496E+04  7.79999E+03
 -2.38266E+04  4.26227E+03 -1.65086E+04 -1.40993E+04  1.30532E+03 -1.17721E+04  1.23546E+04 -6.51399E+03
  1.19388E+04 -3.31451E+02  7.20474E+03  8.18246E+03  7.21778E+03 -2.15686E+03  2.31719E+03 -7.12388E+03
  5.67362E+03  2.77724E+03 -1.22013E+03  2.94377E+03  9.86734E+03  4.95263E+03  8.99009E+03  1.05995E+04
 -1.24035E+03  1.26294E+04 -1.67228E+04  1.59649E+04 -2.27890E+04  8.75119E+03 -1.77500E+04 -5.66829E+03
 -1.09305E+04 -2.28926E+04  5.24429E+03 -2.21963E+04  1.42526E+04 -1.58010E+04  1.29936E+04 -3.74060E+03
  1.70706E+04  7.49711E+03  1.32282E+04  1.01232E+04 -5.58273E+03 -3.09989E+03 -1.13042E+04 -3.16973E+03
 -1.43049E+03 -8.48625E+03  4.09583E+03 -5.98211E+03  5.06355E+03 -3.48268E+03  9.12417E+03  3.87453E+02
  5.10669E+03  2.64279E+03  4.46608E+03  2.25339E+03 -3.74285E+03  5.63336E+03  8.57989E+03  1.92681E+03
  2.64630E+03 -4.97089E+03  2.98579E+02 -2.50187E+01  2.92597E+03  2.27320E+03 -7.08904E+02  1.38448E+04
 -1.21905E+04  2.88472E+03 -1.71923E+03  4.75057E+03 -1.62600E+04 -4.70909E+02  1.50232E+03 -7.52395E+03
 -3.02302E+03 -2.80951E+03 -1.89218E+03 -1.73912E+03 -3.73505E+03  3.48764E+03 -6.67431E+03  7.36976E+03
 -1.10825E+03  4.67690E+03 -1.43847E+03  2.04434E+03 -6.54826E+03 -1.25786E+04 -2.07829E+03 -9.88064E+03
  4.33343E+03 -5.80979E+03  3.14938E+03 -4.08838E+03  1.33629E+04  3.30903E+03  2.07811E+03  1.13273E+04
 -4.91407E+03  1.78111E+03 -5.68274E+02 -3.51074E+03  1.50531E+03 -1.28798E+04  1.00411E+04 -1.40624E+03
  1.02261E+04 -1.92307E+02  1.06583E+04  1.28579E+04 -2.74404E+03  9.29374E+03  6.12919E+01  1.40221E+04
 -1.38229E+04  4.00274E+03 -1.42924E+04  6.28572E+03 -3.63699E+02 -6.93738E+03  3.95668E+03 -1.34286E+04
  6.67006E+03  2.98699E+03  6.06941E+03  9.15561E+03  8.11276E+03  8.00227E+03 -2.96778E+03  4.66080E+03
  5.65216E+02  6.39656E+03 -5.08204E+03 -1.36570E+03 -3.18010E+03  5.89878E+03 -1.33396E+04  9.28905E+03
 -1.59076E+03  1.08530E+04 -4.23342E+03  5.01443E+03 -9.70808E+03 -4.43162E+03 -1.88756E+04 -7.91406E+03
 -7.34969E+03 -1.64895E+04  2.59592E+03 -1.98701E+04  9.45490E+03 -1.26585E+04  1.34249E+04 -1.11554E+04
  1.68870E+04  5.76877E+03  5.43356E+03  1.24834E+04  2.24916E+03  2.02242E+04 -1.17351E+04  1.21730E+04
 -6.05659E+03  7.11553E+03 -4.72518E+03 -8.27519E+03 -2.32080E+03 -2.08487E+03  1.22039E+03  5.02762E+03
 -2.91024E+03  3.11329E+02  4.12023E+03  2.34558E+03 -1.80045E+03  1.61880E+03 -3.13494E+03  1.89217E+02
  5.25568E+03 -1.65884E+03  3.69828E+03 -3.39889E+03  1.30052E+04 -2.81461E+02  4.10876E+03  8.53546E+03
 -1.25032E+04  1.66043E+04 -1.95107E+04  9.08522E+03 -1.35319E+04  1.13058E+03 -1.01822E+04 -6.25630E+03
 -9.54335E+03 -1.79638E+04  3.09018E+03 -9.47632E+03  5.26545E+03 -7.78850E+03  9.26356E+03  1.40899E+03
  4.05860E+03  1.32240E+04 -3.09749E+03  4.08320E+03 -2.27046E+03 -9.78113E+02  1.03660E+04 -3.97166E+03
  4.36606E+03 -1.55241E+03  7.14333E+03 -4.66640E+03  5.86786E+02  6.06684E+03 -6.40836E+03  6.70380E+03
 -6.94949E+03  6.20532E+03 -1.07389E+04 -2.59696E+03 -1.00925E+04 -3.67800E+03  3.59353E+03 -7.14122E+03
  1.38846E+03 -9.93158E+03  1.59877E+04  1.50967E+03  5.95183E+03 -5.77637E+03 -1.74198E+03  7.98022E+03
  1.19662E+03  6.63507E+03 -8.55127E+03  4.58081E+03 -7.17321E+03  1.34199E+03 -1.09131E+04  6.06472E+03
 -4.44808E+03  9.08073E+02 -4.19506E+03 -5.04603E+02  3.88062E+02  4.18380E+03 -2.66965E+03 -1.69748E+03
 -5.68515E+03  1.32254E+03 -2.87949E+03 -8.62047E+03  8.93671E+02 -8.38415E+03 -2.77439E+03 -5.09245E+03
  6.70256E+03  1.47942E+03  2.12170E+03  1.18531E+04 -2.30918E+03  8.99331E+03 -1.08637E+04  7.43530E+03
