 $NMID ID='MM_0lb_SNR50_14hz_g45_92.RAW', FMTDAT='(8E13.5)'
 TRAMP=1., VOLUME=1. $END
  3.11750E+05 -1.85551E+03  3.38445E+05  2.48730E+05  7.97350E+04  3.37705E+05 -1.34465E+05  2.53018E+05
 -1.92482E+05  8.54890E+04 -1.12184E+05 -3.08514E+04  3.59073E+03 -5.16943E+04  4.92429E+04 -7.41732E+03
  3.73277E+04  5.21460E+04 -2.43204E+04  7.39942E+04 -6.25858E+04  6.50852E+04 -8.28073E+04  3.15606E+04
 -7.67268E+04 -1.21150E+04 -6.00530E+04 -4.99297E+04 -2.17705E+04 -6.67490E+04  2.53456E+04 -4.41605E+04
  4.03135E+04  8.45463E+03  1.51104E+04  4.52792E+04 -3.22944E+04  4.59374E+04 -7.14150E+04  4.21326E+02
 -4.85586E+04 -5.97539E+04 -6.75755E+03 -7.41464E+04  3.34565E+04 -5.51387E+04  5.23840E+04 -1.97674E+04
  4.05889E+04  1.40144E+04  2.98660E+04  3.00781E+04  1.37573E+04  3.18942E+04 -1.08613E+04  2.44051E+04
 -2.25422E+04  1.20467E+04 -2.00003E+04 -1.34975E+03  6.64863E+03 -8.66059E+03  2.07134E+04  1.34276E+04
  7.80759E+03  3.49392E+04 -3.18252E+04  3.30415E+04 -6.71757E+04 -1.71789E+03 -5.74024E+04 -4.18704E+04
 -1.25766E+04 -6.06477E+04  3.98870E+04 -5.03623E+04  5.96756E+04 -5.26332E+03  3.47515E+04  3.12443E+04
 -1.73006E+03  3.44854E+04 -3.43045E+04  1.47760E+04 -2.77829E+04 -5.23554E+03 -1.90623E+04 -1.02572E+04
 -4.86134E+03 -1.12716E+04  9.66573E+02 -1.97763E+04  9.76335E+03 -2.32589E+04  1.44223E+04 -1.59371E+04
  1.35860E+04  5.39240E+03 -8.40571E+03  1.61094E+04 -2.24013E+04 -1.10887E+04 -1.15215E+04 -3.70551E+04
  2.75984E+04 -4.62582E+04  4.79111E+04 -2.20326E+04  4.42689E+04  2.19618E+04  1.15437E+04  3.97859E+04
 -2.12079E+04  3.37272E+04 -2.65966E+04  6.02554E+02 -6.66395E+03 -2.94372E+04  2.64059E+04 -3.58696E+04
  3.98202E+04 -4.35750E+03  3.41289E+04  2.66185E+04  2.04371E+04  4.43692E+04 -4.82753E+03  5.12917E+04
 -3.19423E+04  3.33730E+04 -4.69264E+04  1.13970E+04 -4.29322E+04 -1.43456E+04 -2.26395E+04 -4.12821E+04
  1.18741E+04 -3.80196E+04  3.01815E+04 -1.15731E+04  2.94704E+04  1.18188E+04  7.37005E+03  2.36744E+04
 -1.50869E+04  1.50480E+04 -7.48250E+03 -6.19967E+03  9.77992E+03 -1.59673E+04  1.73074E+04  5.76145E+03
  9.94506E+03  1.99871E+04 -6.49479E+03  2.61046E+04 -2.26662E+04  7.94975E+03 -2.37972E+04 -4.55228E+03
 -2.51002E+04 -2.04411E+04 -5.28348E+03 -2.26959E+04  6.02769E+03 -1.81745E+04  1.17296E+04 -1.44528E+04
  2.69543E+04 -1.30922E+04  3.85808E+04  2.47844E+03  2.98155E+04  2.37603E+04  8.38083E+03  3.47152E+04
 -2.14375E+04  2.97023E+04 -3.28830E+04  1.38442E+04 -1.96984E+04 -5.41357E+03 -3.05898E+03 -1.05881E+04
 -2.56076E+03 -6.61096E+02 -8.14780E+03  8.79819E+03 -1.57038E+04  5.44216E+03 -1.43321E+04 -1.29892E+04
 -6.92525E+03 -1.65645E+04  4.94447E+03 -2.07809E+04  9.90477E+03 -1.60187E+04  1.50567E+04 -4.73452E+03
  1.17241E+04  1.09632E+04 -1.28324E+03  1.98259E+04 -1.51279E+04  1.34175E+04 -2.08826E+04 -5.92923E+02
 -1.48000E+04 -1.57791E+04 -1.21391E+03 -1.91642E+04  8.72727E+03 -1.02691E+04  1.69180E+04 -1.09550E+04
  2.02588E+04  3.19063E+03  1.12283E+04  3.55909E+03  5.77847E+03  2.14935E+02  9.58979E+03 -1.85296E+03
  1.32708E+04  2.06959E+03  1.78746E+04  1.46024E+04  1.44944E+04  2.81816E+04 -3.75774E+03  3.50918E+04
 -2.02840E+04  2.55792E+04 -3.04237E+04  1.23080E+04 -2.97665E+04 -2.31782E+03 -2.39446E+04 -1.57739E+04
 -1.34434E+04 -2.81553E+04  5.63065E+03 -2.63898E+04  2.40804E+04 -1.22398E+04  1.81219E+04  5.27647E+03
  6.19563E+03  1.36117E+04 -1.14159E+04  1.26164E+04 -1.47851E+04 -1.38497E+02 -1.27161E+04 -8.87171E+03
 -2.58652E+03 -1.64539E+04  6.71676E+03 -1.25479E+04  8.83956E+03 -1.82411E+03  5.07293E+03  5.90376E+03
 -4.09351E+03  2.72062E+03 -5.13418E+03 -4.59208E+03 -2.00254E+03 -1.82651E+04  5.89805E+03 -6.55118E+03
  1.88505E+04 -6.97235E+03  1.72210E+04  8.16502E+03  9.33747E+03  1.75852E+04  8.89490E+03  1.63376E+04
 -3.88484E+03  2.10320E+04 -1.29429E+04  1.08178E+04 -1.40504E+04 -1.06368E+03 -8.38403E+03 -4.30161E+03
 -3.05536E+03 -4.37470E+03 -5.97294E+02  7.24775E+02  9.80550E+02  4.65420E+03 -7.30317E+03  8.62430E+03
 -9.69300E+03 -6.55927E+03 -8.86126E+03 -1.08498E+04 -8.27812E+03 -1.59084E+04  3.95301E+03 -1.03074E+04
  6.94036E+03 -5.00564E+03  2.22862E+03  6.30309E+03 -2.23553E+03  4.29045E+03 -3.94627E+03 -3.27502E+03
 -3.43499E+03 -4.29816E+03  8.99792E+02 -1.13788E+04  8.55575E+03 -9.36392E+03  1.13876E+04 -9.25463E+03
  1.34637E+04  3.87785E+03  1.45906E+04  1.10780E+04  1.86042E+03  1.27705E+04 -7.34596E+03  9.86400E+03
 -7.11770E+03 -1.03360E+03 -5.36010E+03  7.06317E+02  5.55317E+03 -2.55687E+03  3.86112E+03 -2.38756E+03
  6.60732E+03  6.29753E+03  3.29928E+03  8.20829E+03 -8.43435E+03  4.78829E+03 -1.38791E+04  5.99080E+03
 -7.64691E+03 -3.60296E+03 -3.96281E+03 -1.02967E+04  7.24141E+03 -1.43979E+03  6.44851E+03  8.17260E+01
  6.60223E+03  8.31695E+03 -5.26508E+03  3.96567E+03 -1.10595E+04  4.86395E+03 -5.96918E+03 -4.75424E+03
 -1.86319E+03 -1.27824E+04  6.04096E+02 -8.80330E+03  9.40528E+03 -8.45793E+03  1.18006E+04 -1.07806E+03
  3.58844E+03  1.35977E+04  9.44231E+02  9.56413E+03 -7.43316E+03  7.79402E+03 -8.11731E+03  2.04003E+03
 -1.03758E+04 -2.86201E+03  3.06551E+02 -6.25448E+03  8.57505E+03 -7.19339E+03  6.54449E+03  8.89821E+02
  4.74078E+03 -4.86183E+02 -2.89729E+03 -5.40118E+02 -2.76089E+03 -5.51737E+03 -1.22814E+03 -4.20275E+03
  7.21527E+03 -2.72724E+03  6.37971E+03  2.33928E+03  7.22474E+03  3.70799E+03  2.70696E+03  9.91195E+03
 -8.39261E+02  1.29254E+04 -8.82688E+03  1.10309E+04 -1.63607E+04 -3.85873E+02 -1.60317E+04 -6.56657E+03
 -9.03487E+03 -8.18740E+03  3.72675E+03 -5.46455E+03  1.34412E+03 -4.08472E+03  9.20676E+02 -5.71800E+03
  7.67478E+03  1.21417E+03  2.86599E+03 -5.42544E+03  3.60480E+03  1.26222E+03  3.06119E+03  1.17814E+03
  1.40809E+04 -1.62909E+03  5.11215E+03  1.79328E+03 -2.28228E+03  2.90963E+03 -1.01104E+04  1.77312E+03
 -6.84528E+03 -4.03904E+03 -2.35878E+01 -3.10975E+03  1.90916E+03 -8.66412E+03  8.52141E+03 -7.26668E+03
  1.03174E+04 -2.06186E+03  9.67679E+03 -5.77393E+02  6.41924E+03  5.38289E+03  6.67186E+03  1.18794E+04
 -6.56176E+03  8.08363E+03 -8.23896E+03 -9.75963E+02 -8.00495E+03 -3.51148E-01  1.61751E+03  2.39037E+02
  5.94600E+03  1.13651E+03 -2.21041E+03  6.09580E+03 -1.66450E+03  2.90327E+02 -3.00105E+03 -1.90094E+03
 -3.16154E+03 -7.95784E+03  1.81812E+03 -1.21326E+04 -8.04726E+01 -9.64002E+03  6.58811E+03 -1.14173E+03
  9.00962E+03  2.29567E+03  3.56649E+03  8.67725E+03 -1.46629E+03  1.18676E+04 -3.80748E+03  8.48837E+03
 -1.11682E+04 -3.69236E+02 -3.33765E+03 -4.20438E+03  1.17926E+03 -1.04417E+04  5.40311E+03 -5.94025E+03
  5.03325E+03 -6.28922E+03  3.86100E+03  6.94939E+03  3.33435E+03  3.84545E+02 -1.74144E+03 -2.00127E+03
  4.28887E+02  9.14491E+02  3.63709E+03  2.14341E+03  6.99126E+03  3.21409E+03 -3.09372E+03  1.85878E+03
 -2.50648E+03  7.51424E+03 -1.38213E+03  9.89664E+03 -6.16384E+03  2.44175E+03 -3.52579E+03  1.29353E+03
 -2.18874E+03 -2.84998E+03  2.05972E+03 -1.27721E+04  3.77754E+03 -7.85569E+03  3.63601E+03 -1.07597E+03
  1.00668E+04  3.94460E+03 -1.99028E+03  7.86130E+03 -1.03676E+03 -2.15039E+03 -1.37097E+03  4.07630E+02
  2.02510E+03 -1.17926E+03  5.49348E+03  1.03417E+02  3.48160E+02 -3.09222E+03  3.34008E+03  2.32007E+03
  2.50501E+03  7.61495E+01 -7.48519E+02  3.23701E+03 -1.01167E+03  1.80101E+02  4.48966E+03  1.36847E+03
  3.91759E+03  9.41829E+02  2.66630E+03  4.72119E+03 -2.70691E+03  4.81795E+03  2.46403E+03  2.65402E+03
 -5.20908E+03 -1.82452E+03 -3.97913E+03 -1.98650E+02 -4.91015E+03 -3.49994E+03 -2.64609E+03 -5.41401E+03
  1.56019E+03 -8.28846E+03 -2.61634E+02 -2.18019E+03  2.87557E+03  4.57233E+03  1.94774E+03  1.56462E+03
 -1.80502E+03 -4.07815E+03 -5.51883E+03 -2.61086E+03 -3.15531E+03 -3.73054E+03 -3.96998E+02 -2.18195E+03
  3.72530E+03 -6.82742E+03  5.85977E+03  2.09370E+03  5.25248E+03 -3.00853E+01 -6.72591E+02  7.25009E+03
  9.74240E+02  4.16653E+03 -5.10841E+03 -5.32956E+03 -4.17562E+03 -5.42626E+03  5.09963E+03  3.94275E+03
  4.10023E+03  2.75983E+03  4.38996E+03  1.35446E+03  2.61935E+03  3.11472E+03 -6.53202E+03  6.12333E+03
 -2.58573E+03  3.14548E+03 -4.05444E+03  9.84778E+02 -6.04952E+02 -1.44602E+03 -2.33885E+03 -6.51862E+03
  3.79715E+01 -1.60696E+03  1.70058E+03  1.33474E+03  1.76083E+03  1.92491E+03 -7.38378E+02  6.72841E+03
  3.36219E+03 -2.88088E+03  3.95276E+02 -3.85193E+03 -6.65443E+03 -1.33668E+03  5.36415E+02  2.13736E+03
 -1.60271E+03  3.02584E+03 -4.68955E+03  2.73381E+02 -1.24069E+03 -4.73514E+03 -6.29381E+03  2.72979E+02
 -7.06374E+03 -3.13283E+03  3.73828E+03 -6.66565E+03  6.26235E+03 -3.67222E+03  4.27842E+03 -1.79173E+03
  2.55912E+03  2.83389E+03  1.40498E+03  7.25194E+03 -6.91725E+02  2.26182E+03 -8.09313E+02  5.15929E+03
 -1.67058E+03 -2.73230E+02 -5.24847E+03 -3.89775E+03 -8.03290E+02 -5.26733E+03 -2.27940E+03  2.37138E+02
 -2.19676E+02 -4.11953E+01 -1.85617E+03  2.48377E+03  7.76841E+02  2.61821E+03  5.52560E+02 -2.59047E+03
  4.43952E+03 -3.00041E+03  4.62746E+03  7.84153E+02  3.07320E+03 -2.88562E+03 -3.15714E+02  7.50893E+03
 -5.33016E+03  6.15881E+03 -1.56960E+03  3.73690E+03 -5.46272E+03 -1.23864E+03 -8.47672E+03 -4.89270E+02
 -6.10347E+03 -8.60169E+03 -7.71726E+03 -4.50547E+03  4.12597E+03 -5.85222E+03 -7.00584E+02 -3.99164E+03
  2.02346E+03  2.58527E+02 -2.48281E+03 -1.46668E+03 -3.46765E+03  9.35039E+02  6.75115E+03  2.99133E+03
  6.15381E+03  8.44332E+02  1.77556E+03 -5.00013E+03 -4.22193E+01 -1.84998E+02 -1.82816E+03  7.75935E+02
  4.33941E+03 -3.04862E+02 -9.66798E+03 -2.50763E+03  1.58568E+03 -1.40584E+03  4.13173E+03 -4.13828E+03
 -1.63240E+02 -2.81519E+02  1.61430E+03  1.22004E+01  4.47656E+03 -2.43300E+02  1.00041E+03  1.93976E+03
  6.48873E+01  4.03468E+03 -1.54231E+03  2.56714E+03 -5.89973E+03  8.08666E+02 -2.84334E+03 -1.83458E+03
 -6.13691E+03 -2.68698E+02  4.30983E+03  1.71977E+02 -3.80359E+03  7.44401E+02 -5.09006E+03 -2.25954E+03
 -2.37130E+03 -1.06716E+03  1.08191E+03  1.50187E+03  1.25207E+03 -3.02122E+03 -3.55915E+02  4.37989E+03
  5.74751E+02 -5.57267E+02 -4.55074E+02  4.65292E+03  3.47558E+03  3.40753E+02 -3.20244E+03  5.04065E+02
