 $NMID ID='MM_0lb_SNR50_14hz_g45_44.RAW', FMTDAT='(8E13.5)'
 TRAMP=1., VOLUME=1. $END
  3.10471E+05  2.55831E+03  3.37226E+05  2.51508E+05  8.13067E+04  3.37979E+05 -1.33750E+05  2.52836E+05
 -1.90086E+05  8.25643E+04 -1.10547E+05 -3.40210E+04 -8.54733E+02 -5.12960E+04  5.74421E+04 -3.06804E+03
  3.62391E+04  5.02107E+04 -1.95079E+04  7.68854E+04 -6.20211E+04  5.96283E+04 -8.00399E+04  3.14803E+04
 -8.44903E+04 -1.56407E+04 -6.11860E+04 -5.37005E+04 -1.21287E+04 -6.77144E+04  2.56790E+04 -4.55557E+04
  3.94417E+04  7.17025E+03  1.82370E+04  4.84424E+04 -3.48873E+04  4.83895E+04 -6.60782E+04 -9.26528E+01
 -5.59964E+04 -5.53835E+04 -5.88194E+03 -7.21326E+04  3.16101E+04 -5.60831E+04  5.06565E+04 -1.33639E+04
  4.17549E+04  8.53623E+03  3.12905E+04  2.38977E+04  1.59638E+04  2.96692E+04 -4.98455E+03  2.70545E+04
 -2.41820E+04  7.60404E+03 -1.41863E+04 -3.98590E+03  5.69010E+03 -7.82254E+03  2.59756E+04  1.26631E+04
  4.44989E+03  4.15990E+04 -3.43271E+04  3.62436E+04 -6.57332E+04  1.94085E+03 -5.81247E+04 -4.29875E+04
 -1.43834E+04 -5.98070E+04  3.86253E+04 -4.98905E+04  5.50198E+04 -5.38543E+03  3.53775E+04  3.29175E+04
 -3.58104E+03  3.65878E+04 -2.80624E+04  1.16399E+04 -2.75193E+04 -3.71593E+03 -1.26513E+04 -1.19997E+04
 -7.54249E+03 -1.30978E+04  5.58044E+03 -1.75418E+04  9.98150E+03 -2.40125E+04  1.50064E+04 -1.14719E+04
  1.33692E+04  6.19321E+03 -6.64801E+03  8.69499E+03 -2.13086E+04 -6.30794E+03 -8.34274E+03 -3.43830E+04
  1.64064E+04 -4.44636E+04  4.38925E+04 -2.64393E+04  4.46583E+04  1.97229E+04  1.44700E+04  4.34025E+04
 -1.58696E+04  3.29777E+04 -2.84154E+04  4.80210E+03 -6.25468E+03 -2.78500E+04  1.55255E+04 -3.15878E+04
  4.32389E+04 -7.60298E+03  3.42768E+04  2.84549E+04  1.55030E+04  4.46317E+04 -7.98469E+03  5.06828E+04
 -3.27981E+04  3.57643E+04 -3.89779E+04  7.84470E+03 -3.98252E+04 -1.98185E+04 -2.32856E+04 -3.85300E+04
  5.64714E+03 -3.87728E+04  2.78721E+04 -1.24362E+04  2.83414E+04  9.63631E+03  5.23142E+03  2.20099E+04
 -1.52672E+04  8.40366E+03 -4.05923E+03 -8.99787E+03  4.49576E+03 -1.92712E+04  1.80491E+04  4.22538E+03
  1.43321E+04  1.82434E+04 -5.36168E+03  2.56638E+04 -1.88010E+04  1.73751E+04 -2.89326E+04 -5.27338E+03
 -1.96427E+04 -1.24130E+04 -5.70252E+03 -2.19671E+04  2.19190E+03 -1.54718E+04  1.62025E+04 -2.03812E+04
  2.58499E+04 -1.02222E+04  3.29240E+04  3.87489E+03  2.29718E+04  1.87519E+04  1.28899E+03  3.57570E+04
 -2.37642E+04  3.32861E+04 -2.71110E+04  1.22813E+04 -2.07953E+04 -1.24580E+04 -4.53731E+03 -1.39710E+04
  2.96456E+03 -3.65906E+03 -1.99383E+03  7.21444E+03 -1.75201E+04  1.86276E+03 -1.17611E+04 -6.42940E+03
 -9.86073E+03 -1.58416E+04  1.03192E+04 -1.89296E+04  1.44670E+04 -1.87035E+04  1.96536E+04  4.16960E+02
  1.16929E+04  1.07453E+04  3.65025E+03  1.75779E+04 -1.46139E+04  8.08337E+03 -2.00014E+04 -4.74474E+01
 -1.40947E+04 -1.71448E+04 -1.29773E+02 -2.49737E+04  7.81041E+03 -1.95220E+04  1.64045E+04 -7.30386E+03
  1.42944E+04 -1.73752E+03  1.45000E+04  1.26535E+03  9.80385E+03  4.25018E+03  1.18025E+04 -7.44969E+01
  1.69864E+04 -2.39625E+03  1.56658E+04  1.54832E+04  1.50839E+04  3.25082E+04 -1.55789E+03  3.37939E+04
 -1.84282E+04  2.63298E+04 -3.13049E+04  1.43077E+04 -3.36215E+04  7.65016E+02 -2.68916E+04 -2.29004E+04
 -7.19681E+03 -2.61354E+04  9.27242E+03 -2.45663E+04  2.14675E+04 -1.27722E+04  2.09751E+04  4.10060E+03
  5.00263E+03  1.21750E+04 -6.70994E+03  1.39925E+04 -1.88684E+04  4.83015E+03 -9.78355E+03 -1.10691E+04
  2.47067E+03 -1.92319E+04  8.79026E+03 -1.07564E+04  9.48391E+03 -5.00270E+03  2.82920E+03  5.55351E+03
 -9.03757E+03  1.74594E+03 -5.68314E+03 -1.35823E+02 -4.09509E+03 -1.17701E+04  1.50609E+04 -1.11075E+04
  1.31318E+04 -5.51851E+03  1.74606E+04  1.80143E+03  1.64845E+04  1.54268E+04  6.82303E+03  2.03875E+04
 -3.74707E+03  2.50637E+04 -1.50249E+04  1.58480E+04 -1.18850E+04  3.99677E+03 -7.65240E+03 -5.46230E+03
 -9.10538E+03 -5.07669E+03  1.36149E+03  2.44983E+03 -3.55781E+03  4.70151E+03 -1.86257E+03  4.61386E+03
 -5.84069E+03 -2.25837E+03 -9.85469E+03 -9.69185E+03 -2.67354E+03 -1.51951E+04 -3.41332E+02 -5.21734E+03
  5.40056E+03 -4.97050E+03  7.81298E+03  6.51218E+03 -1.64285E+03  6.27822E+03 -6.23127E+03 -1.15538E+03
 -3.96156E+03 -1.08529E+04 -4.26631E+03 -1.50652E+04  9.23376E+03 -1.25101E+04  1.47819E+04 -7.19487E+03
  1.77380E+04 -2.51658E+02  1.27032E+04  3.22247E+03  7.60622E+03  1.52991E+04 -6.58901E+03  1.20935E+04
 -1.27879E+04  4.71326E+03 -3.13829E+03 -2.31221E+03 -4.52758E+03 -9.13871E+02  2.18815E+03 -5.50300E+03
  9.51597E+03  5.60940E+03  1.13938E+03  6.25730E+03 -6.57415E+03  8.48289E+03 -8.46447E+03  3.35524E+03
 -5.94752E+03 -5.44859E+03  1.18475E+03 -1.09465E+04  1.42984E+03 -6.07882E+03  2.26977E+03  4.67541E+03
  2.68101E+03  8.62863E+03 -2.58220E+03  6.15649E+03 -1.01377E+04  7.43256E+03 -8.02876E+03 -2.02617E+03
 -5.59349E+03 -1.35887E+04  5.70925E+03 -6.07735E+03  1.16940E+04 -7.59634E+03  1.12809E+04 -5.44041E+02
  5.44862E+03  1.05576E+04  3.16291E+03  8.91941E+03 -5.27483E+03  5.34774E+03 -1.35785E+04 -1.58873E+02
 -7.85841E+03 -3.98750E+03 -2.71173E+03 -8.66860E+03 -1.54023E+01 -8.24499E+03  2.28631E+03 -6.79884E+02
  2.99286E+03 -2.38393E+03 -3.48446E+02  3.28651E+03  4.14220E+03 -6.83523E+02 -3.93790E+03 -8.05729E+03
  4.67301E+03 -7.94054E+03  1.22004E+04 -3.83442E+03  1.38733E+04  5.35748E+03  8.17606E+03  1.49006E+04
 -3.89939E+03  1.84139E+04 -1.19555E+04  8.23618E+03 -9.98729E+03  3.52115E+03 -1.85564E+04 -1.53932E+03
 -8.75009E+03 -6.12194E+02 -4.05431E+03 -9.57914E+03  4.34891E+03 -2.86878E+03  6.86127E+02 -6.87182E+03
  5.68887E+03 -2.32589E+03 -8.13237E+02 -1.87103E+03  1.48436E+03 -4.46023E+02  6.49728E+03  1.94874E+03
  5.44239E+03  5.03868E+03  2.17838E+03  3.52793E+03  2.70077E+03 -2.73663E+02 -1.09844E+04  5.15429E+03
 -1.16812E+04 -9.11389E+02 -4.66610E+02 -2.55031E+03 -7.43527E+01 -7.44745E+03  4.48061E+03 -9.05602E+03
  1.02349E+04 -5.73709E+03  8.65229E+03 -1.95210E+03  6.22401E+03  8.22977E+03 -1.16248E+03  8.52415E+03
 -5.65445E+03  1.31559E+04 -6.26964E+03 -8.61615E+02 -7.63209E+03 -4.81192E+03  1.10031E+03  1.41762E+03
 -3.48848E+03 -4.46701E+03 -3.42608E+03  1.90596E+03 -5.75854E+03 -5.30498E+00 -6.00429E+03  2.31445E+03
 -6.07111E+03 -9.77627E+03 -1.36166E+02 -6.54754E+03  5.43044E+03 -1.20330E+03  7.58506E+03 -1.18886E+03
  1.66833E+03  6.64182E+03  4.66350E+02  1.21132E+04 -4.60161E+03  2.64126E+03 -7.85240E+03  7.87281E+03
 -4.32190E+03 -1.08988E+03 -6.61355E+03  1.46125E+03 -3.95216E+03 -9.00433E+03  2.87695E+03 -6.87840E+03
  1.10709E+03  1.44612E+03  8.17230E+03 -2.55706E+03 -5.61281E+03  1.22039E+03  3.84912E+01 -1.46243E+02
 -4.72269E+02 -1.16366E+03  3.94082E+03 -2.12398E+02  4.17832E+03  7.36762E+03 -2.41244E+03  4.47465E+03
 -1.11804E+03  6.67516E+03 -4.35534E+03  3.43094E+03 -6.04934E+03  2.13201E+03 -6.46358E+03  2.08594E+03
  5.87017E+02 -1.05257E+04  5.05384E+03 -8.40534E+03  8.91971E+03 -3.54504E+03  3.70255E+03 -1.72920E+01
  5.66043E+03  5.24049E+03  9.28156E+01  2.14930E+03 -2.10121E+03  2.09631E+03 -3.23499E+03 -2.71093E+03
  2.07042E+03 -1.87691E+03 -2.57463E+03 -2.74990E+03  3.82548E+03 -1.73782E+03 -3.20805E+02  2.26459E+03
  1.21742E+03 -2.61181E+01 -1.04501E+03 -1.84836E+03 -2.02121E+03 -2.36566E+03  6.81641E+02 -8.28225E+02
  6.50041E+02 -3.23770E+03  3.72657E+03 -1.52001E+03 -8.26305E+02  6.54429E+03  9.61989E+02  6.77609E+03
 -3.92802E+03 -4.26786E+02 -9.76062E+03  1.85474E+03 -3.28792E+02 -9.58361E+02 -1.39015E+03  1.03176E+03
  1.81582E+03 -1.10672E+03  6.88669E+02 -5.37429E+02  1.29580E+03  4.16448E+03  1.77378E+03 -2.02190E+03
 -1.61607E+03  8.46053E+01 -4.74411E+03  2.21935E+03 -2.62344E+03 -6.60005E+03  2.60341E+03 -3.19957E+03
  5.95588E+03  9.82234E+01  6.46356E+03 -2.86058E+03  1.40862E+03 -1.18859E+03  3.69137E+02  3.09878E+03
  9.80109E+02 -1.81826E+03 -1.55917E+02  1.83970E+03  1.44233E+03 -3.63578E+03  7.87356E+03  2.56436E+02
  3.17118E+03 -1.65219E+03  7.09805E+03  1.41529E+03  6.72920E+03  4.73064E+03 -4.33204E+02  6.48319E+03
 -5.86620E+03 -2.19276E+03 -6.22135E+03 -3.08491E+03  1.48352E+03 -7.84303E+03  1.30589E+03 -4.40198E+03
  3.29740E+03  3.61297E+01  8.06824E+02  1.86185E+02  5.75459E+02 -1.71427E+03 -4.76197E+03  6.41854E+03
  5.09482E+03  2.14761E+03  3.55666E+03 -2.40426E+03  1.48817E+03  1.28572E+03 -3.98477E+03  2.76709E+03
 -2.68164E+03  4.23006E+03  3.89766E+03 -1.01345E+03 -2.02055E+03 -7.84939E+02 -1.41326E+03 -8.99013E+03
 -2.24582E+03 -5.70636E+03  6.72663E+03 -8.82448E+03  3.43298E+03 -6.83468E+03  7.69901E+03 -3.36639E+03
  4.02211E+03  3.20199E+03  7.36473E+03  2.78759E+03 -1.93435E+02  2.84835E+03 -4.06665E+03  3.06463E+03
 -9.13623E+02  1.89908E+03  2.08515E+03 -6.81517E+01  8.74090E+02  1.86813E+03 -2.17904E+03 -4.61706E+03
  2.94895E+03 -7.85760E+02  3.69692E+02  2.25561E+03  1.20693E+03  1.03942E+03  2.12848E+03 -3.17646E+03
 -2.84370E+03 -1.26088E+03  1.58317E+03 -1.04182E+02  2.31200E+03  3.44972E+03  5.39364E+03  4.43905E+03
 -3.68755E+03  2.26811E+03 -7.23515E+03  4.14077E+03 -4.71630E+03 -1.53414E+03 -7.18537E+03 -3.78912E+03
 -2.00914E+03 -3.04691E+03 -1.14632E+03 -4.17580E+03  5.33281E+03 -4.89697E+02 -1.04354E+03  3.63600E+03
  6.05329E+02  1.51583E+03  1.34804E+03  3.67769E+03 -2.23242E+03 -2.16209E+03 -2.13832E+03  5.96842E+03
  4.34794E+03 -3.49135E+03  6.27324E+03  7.95358E+03 -1.97832E+03 -1.87266E+02  2.41105E+03  7.22487E+01
 -4.28047E+03  1.57441E+02 -2.64538E+03 -3.70754E+03 -2.96423E+03  9.96611E+02 -4.44073E+02 -2.31811E+03
 -8.26261E+02 -1.06620E+03  2.89714E+03  1.03196E+03  5.73341E+03  4.09783E+03  2.37473E+03  5.38802E+03
  5.35528E+03 -2.43760E+03  1.53753E+03 -6.51239E+02  1.57730E+02  5.61373E+03 -3.12244E+03  2.55549E+03
  4.17321E+03 -1.72158E+03  1.47611E+03 -1.68672E+03  2.23723E+03 -3.30649E+03 -4.52273E+02 -2.91005E+03
 -8.21326E+03 -6.71251E+01  5.17369E+03 -5.51370E+03  3.74159E+03 -3.74961E+03  1.92799E+03 -3.65975E+03
  4.17313E+03 -1.20545E+02  6.83710E+02  5.36290E+03  3.40139E+03  1.45451E+03 -2.94245E+03  1.25109E+03
