 $NMID ID='MM_0lb_SNR50_14hz_g60_48.RAW', FMTDAT='(8E13.5)'
 TRAMP=1., VOLUME=1. $END
  3.11575E+05  2.85497E+03  3.36003E+05  2.49810E+05  8.09771E+04  3.38731E+05 -1.34094E+05  2.53139E+05
 -1.85947E+05  8.35710E+04 -1.11683E+05 -3.17615E+04 -2.08969E+03 -5.13343E+04  5.68464E+04 -3.89581E+02
  3.72673E+04  5.25172E+04 -2.02764E+04  7.57870E+04 -6.35633E+04  6.52481E+04 -8.30106E+04  3.20482E+04
 -8.46559E+04 -1.69026E+04 -5.71842E+04 -5.52790E+04 -1.37458E+04 -6.51407E+04  2.39990E+04 -4.73732E+04
  4.32226E+04 -2.21174E+02  1.10356E+04  4.64818E+04 -3.40392E+04  4.91929E+04 -6.50827E+04 -4.77824E+03
 -6.24652E+04 -5.47453E+04 -7.53045E+03 -7.96786E+04  3.19047E+04 -5.26520E+04  5.25143E+04 -1.72377E+04
  4.45337E+04  9.82701E+03  3.18282E+04  2.70071E+04  1.24793E+04  3.10078E+04 -6.86246E+03  2.62473E+04
 -2.51666E+04  1.24339E+04 -1.63097E+04 -4.26296E+03  8.59624E+03 -6.29882E+03  1.89224E+04  1.71136E+04
  5.83556E+03  3.84677E+04 -3.71993E+04  3.48841E+04 -6.48409E+04  4.53641E+02 -5.44780E+04 -4.90655E+04
 -1.16541E+04 -6.35199E+04  4.43607E+04 -4.77032E+04  5.97560E+04 -5.20943E+03  3.21702E+04  3.37215E+04
 -1.22115E+04  3.75674E+04 -3.36253E+04  1.43778E+04 -3.47865E+04 -3.49823E+03 -1.82896E+04 -1.14775E+04
 -5.56303E+03 -1.33518E+04 -1.34377E+03 -1.96059E+04  5.57161E+03 -2.14093E+04  1.41346E+04 -9.12157E+03
  1.23476E+04  6.32758E+03 -7.75821E+03  2.11431E+04 -2.26426E+04 -1.82825E+03 -3.66361E+03 -3.33383E+04
  2.17019E+04 -4.67588E+04  4.52290E+04 -2.10021E+04  4.71197E+04  2.41680E+04  1.29549E+04  4.60661E+04
 -1.74465E+04  3.54425E+04 -2.62246E+04  4.18734E+03 -1.01765E+04 -2.75221E+04  2.41792E+04 -3.43208E+04
  4.53217E+04 -5.98410E+03  3.56830E+04  2.45148E+04  1.98093E+04  4.42690E+04 -1.20606E+04  5.56338E+04
 -3.64874E+04  3.89024E+04 -4.01106E+04  9.48140E+03 -4.41072E+04 -1.42938E+04 -1.99736E+04 -3.72154E+04
  7.33440E+03 -3.90729E+04  2.94796E+04 -1.38838E+04  3.11967E+04  1.36848E+04  4.60198E+03  2.59234E+04
 -1.44478E+04  6.16400E+03 -1.01360E+04 -9.79761E+03  1.06844E+04 -8.27468E+03  1.51863E+04  6.51759E+03
  1.62938E+04  2.12167E+04 -4.27900E+03  2.78094E+04 -2.10477E+04  9.48560E+03 -2.78568E+04 -5.57444E+03
 -2.23449E+04 -1.68473E+04 -1.19368E+04 -1.57672E+04  4.15210E+03 -2.55150E+04  1.51633E+04 -2.40206E+04
  3.22733E+04 -1.37310E+04  3.57215E+04  6.03284E+02  1.84942E+04  1.94932E+04  1.52518E+03  3.74310E+04
 -2.02806E+04  3.09852E+04 -2.74684E+04  9.24707E+03 -2.27516E+04 -4.97449E+03 -2.52888E+03 -1.00283E+04
  3.69899E+03 -9.00401E+02 -8.44688E+03  1.01372E+04 -1.89847E+04  9.10122E+03 -1.42775E+04 -4.31643E+03
 -1.22678E+04 -2.26783E+04  3.58248E+03 -2.45771E+04  1.27749E+04 -1.79604E+04  1.84977E+04 -5.09335E+03
  9.41452E+03  1.78599E+04  1.10570E+03  2.58237E+04 -1.11270E+04  1.21348E+04 -2.20364E+04 -1.90371E+03
 -1.90184E+04 -2.07167E+04 -4.74225E+03 -2.35220E+04  9.22628E+03 -2.07626E+04  1.94634E+04 -1.05663E+04
  1.59065E+04  3.29266E+03  1.33461E+04  3.08503E+03  9.38021E+03  2.25442E+03  9.56854E+03 -7.14652E+02
  1.92527E+04  5.77398E+03  2.39731E+04  1.40738E+04  1.64406E+04  2.84975E+04  1.63757E+03  3.45578E+04
 -2.19834E+04  3.06375E+04 -3.12019E+04  1.84103E+04 -3.35927E+04 -3.29138E+02 -3.01946E+04 -1.91854E+04
 -7.30417E+03 -3.11285E+04  1.26769E+04 -2.71727E+04  2.26781E+04 -1.19500E+04  2.49282E+04  4.47992E+03
  1.28577E+03  1.27540E+04 -9.02590E+03  1.96691E+04 -1.70021E+04  3.73103E+03 -1.16230E+04 -7.45264E+03
 -3.11509E+03 -1.28006E+04  7.15875E+03 -9.95306E+03  9.57948E+03 -3.86882E+03  2.94898E+03  8.74237E+03
 -2.86153E+03  1.76439E+03 -6.29768E+03 -5.89472E+03  6.27667E+03 -1.60227E+04  1.38413E+04 -1.18957E+04
  2.00651E+04 -9.11825E+03  2.18123E+04  1.00537E+04  2.29450E+04  1.67572E+04  6.60306E+03  2.39367E+04
 -4.75188E+03  2.50879E+04 -1.45639E+04  1.64516E+04 -1.86255E+04  2.49855E+03 -1.11746E+04 -5.97875E+03
 -4.46904E+03 -3.74025E+03 -2.90320E+03  5.88490E+02  3.55571E+02  4.17378E+03 -5.16649E+03  8.99305E+03
 -1.42485E+04 -8.44957E+03 -1.15121E+04 -8.85444E+03 -7.18691E+03 -1.55561E+04  4.34525E+03 -1.36766E+04
  1.32296E+04 -2.25735E+03  4.05718E+03  8.54654E+02  4.18986E+03  4.82515E+03 -7.01856E+03 -2.71234E+03
 -6.02625E+03 -5.08141E+03 -4.91840E+02 -3.82604E+03  2.77419E+03 -1.32034E+04  9.79702E+03 -4.33701E+03
  1.66031E+04 -1.87290E+03  1.68722E+04  9.13289E+03 -1.17062E+03  1.80037E+04 -6.79384E+03  1.06623E+04
 -7.28595E+03  8.39038E+03 -5.86324E+03 -4.80923E+03 -3.73382E+02 -1.85044E+03  5.87447E+03  1.48194E+03
  7.95994E+03 -2.21926E+03  9.41241E+02  1.33329E+04 -7.29325E+03  6.16179E+03 -1.14401E+04  2.42137E+03
 -7.39435E+03 -7.30776E+03  3.29165E+03 -8.99152E+03  4.67143E+03 -2.96909E+03  9.08221E+03  6.28277E+03
  2.85039E+02  5.53935E+03 -5.18668E+03  8.49197E+03 -1.52715E+04  8.24373E+03 -6.24621E+03 -6.54420E+03
 -1.17123E+04 -1.36923E+04  3.50486E+03 -1.19175E+04  1.22791E+04 -6.47164E+03  1.49429E+04 -1.05647E+03
  9.23975E+03  5.92434E+03 -5.58708E+03  1.32165E+04 -1.21861E+04  7.00519E+03 -6.76921E+03  7.34516E+02
 -5.58856E+03 -4.89664E+03 -3.83435E+03 -1.21317E+04  3.63105E+03 -4.75302E+03  5.75960E+03 -8.21992E+03
  6.46750E+02  1.11578E+03  1.81928E+03  2.31677E+01 -2.23346E+03 -6.51799E+03  2.78053E+03 -3.08376E+03
  2.39959E+03 -3.24801E+02  8.83789E+03  2.58449E+03  7.86808E+03  9.53233E+03  2.11733E+03  1.70232E+04
 -4.23614E+03  1.43544E+04 -1.22528E+04  8.91116E+03 -1.99177E+04  7.26807E+03 -9.93672E+03 -8.91712E+03
 -4.68004E+03 -1.33075E+04 -1.36745E+03 -7.41698E+03  5.97918E+03 -8.76866E+02  2.87420E+03 -1.64781E+03
  5.88844E+02 -2.05928E+03  3.28040E+03 -1.07611E+03  6.08192E+03 -5.10449E+03  3.29667E+03  3.78089E+02
  6.29368E+03  2.35796E+03  6.31952E+03  1.12319E+04 -6.40367E+03  1.67440E+03 -9.63434E+03  3.54903E+03
 -1.31363E+04 -4.74582E+03 -7.48848E+03 -8.97025E+03 -3.69732E+03 -9.85403E+03  3.47525E+03 -1.16770E+04
  1.03883E+04 -5.46887E+03  1.62547E+04  3.55118E+03  4.74551E+03  4.35362E+03  3.82586E+02  1.10205E+04
 -6.97893E+03  9.72124E+03 -1.11120E+04  1.69599E+03  9.89601E+02 -2.12207E+03  1.79655E+03 -6.51715E+01
 -5.24111E+01  1.07852E+03 -3.16169E+03  1.53895E+03 -6.94016E+03  6.08990E+03 -7.27663E+03  1.71245E+03
 -6.31262E+03 -4.34375E+03 -4.02607E+03 -1.00475E+04  6.65342E+03 -4.72781E+03  9.29470E+03 -4.23805E+03
  9.39508E+03  5.98969E+03  4.64143E+03  6.62657E+03  1.76894E+03  6.76778E+03 -4.59334E+03  5.79750E+03
 -1.49244E+03 -9.69967E+02 -5.50386E+03 -1.20215E+03 -8.88529E+02 -9.11895E+03  4.73709E+03  3.03736E+03
  8.79772E+03  2.30588E+03  3.21703E+03 -3.89338E+02 -5.48447E+02  4.80899E+03 -5.64139E+02 -1.80041E+03
  1.32378E+03  2.09976E+03  1.84409E+03  4.12307E+03  1.52217E+03  8.00595E+03  3.55648E+03  7.35039E+03
 -1.83884E+03  8.87526E+03 -9.14625E+03  1.30590E+04 -1.37936E+04 -2.26408E+03 -5.23062E+03 -8.27800E+03
 -4.29467E+03 -8.43641E+03 -1.67644E+03 -8.65967E+03  5.15317E+03 -4.66734E+03  2.43454E+03  1.44280E+03
  6.08087E+03  4.85252E+03  1.66752E+03  1.18395E+03 -7.46441E+03  6.61911E+02 -3.12877E+03 -1.89525E+01
 -6.13562E+03  1.58812E+03  2.34994E+03 -7.07514E+03  5.36827E+03 -5.58445E+02  4.63756E+03  4.85710E+02
 -3.03708E+03  8.33332E+02  5.31644E+02  4.20995E+03  6.02367E+02  5.15625E+03  7.01079E+02 -3.15940E+03
  3.52175E+03 -1.34867E+03  1.10736E+04 -1.95866E+03 -1.19080E+02  4.84559E+03 -2.61334E+03  1.30144E+04
 -7.11285E+03  4.86858E+03 -7.41607E+03  1.53499E+01 -4.63983E+03 -5.92525E+02  1.77279E+03 -4.46192E+03
 -9.79032E+01  2.98837E+02 -5.61592E+03 -1.16664E+03 -1.42474E+03  1.07650E+03  3.50175E+02  4.09632E+03
 -9.62299E+03  2.57205E+03 -5.81418E+03 -2.08733E+03 -7.68973E+03 -4.05203E+03  9.72154E+02 -5.14581E+03
  1.63478E+03  2.60867E+03  4.08297E+03 -4.76024E+03  3.96868E+03 -3.04532E+03 -1.96109E+03  3.79069E+03
  1.82563E+03 -1.58889E+03 -3.26550E+03 -3.48608E+03  2.58914E+03 -4.87539E+03  4.84761E+03  9.94248E+02
  6.34878E+03  4.88922E+03  7.91629E+03  4.41590E+03  3.67911E+02  5.17082E+03 -1.34304E+03  9.51184E+03
 -4.16019E+03 -9.75663E+02  3.98463E+03  2.23949E+03 -2.87067E+02 -6.30263E+03  1.98196E+03  1.65469E+02
  8.02778E+03 -1.01519E+03  5.18335E+03  5.81968E+01  2.95289E+03 -4.01239E+03  6.57237E+02  3.63822E+03
  1.72484E+03  1.55139E+02  3.97095E+03 -1.45198E+03 -5.57811E+02  3.92235E+03  2.51695E+03  3.24311E+03
 -2.19793E+03  2.19073E+03  1.47659E+03 -1.53581E+02 -2.34072E+03  2.97724E+03 -7.77169E+03 -3.37812E+03
 -1.16502E+03 -8.71085E+03  6.57704E+02 -1.36142E+04  3.76868E+03 -4.75205E+03  2.97197E+03  2.56896E+02
  7.20492E+03  5.20660E+01  3.39424E+03  6.98968E+03 -2.98027E+02  4.31140E+03  7.48245E+01 -1.65822E+02
 -4.40837E+03  4.68936E+03 -9.61161E+02  4.22633E+03  1.65750E+03 -1.87466E+03 -6.92360E+02  7.29976E+02
 -1.13210E+03  3.88167E+03  5.45580E+03 -4.59324E+03 -2.66334E+03 -3.84687E+01 -1.48185E+03 -7.62755E+03
  4.77928E+03  3.53189E+03 -1.95133E+02  1.35415E+03 -2.05019E+03 -1.39040E+03 -1.88630E+03  6.03572E+03
 -9.74835E+03  3.41510E+03 -1.42496E+03 -1.89502E+03 -5.96955E+03  1.96935E+03 -3.99178E+03 -5.23470E+03
 -2.69559E+03 -8.54860E+03  1.10591E+04 -3.30103E+03  5.37310E+03 -1.87757E+03  2.58139E+03  8.31087E+03
  4.50559E+03  5.07649E+03  2.45279E+03  8.09235E+02  1.68369E+03 -2.68446E+03  8.65713E+02 -2.03940E+03
 -8.66298E+02 -7.04990E+03  1.52776E+03  2.87433E+02  5.09376E+02 -6.16476E+02 -7.50733E+02 -4.05324E+03
  1.56658E+03  1.86308E+03 -1.21211E+03 -1.11995E+03 -3.03581E+03 -1.49503E+03 -2.68402E+03 -5.79475E+03
 -2.64655E+02  3.44825E+03  8.04665E+03 -3.84840E+03  3.45568E+02  3.39468E+02  3.16209E+02  1.56043E+03
  1.92029E+03  8.30489E+02  3.05270E+03  1.90505E+03 -1.77190E+03  3.65714E+03 -3.16907E+03  1.13786E+03
 -2.77366E+03  7.99242E+02 -2.01186E+03  8.24548E+03 -8.60958E+03  1.38916E+02 -3.58554E+03 -1.55984E+03
 -9.17510E+02  6.50786E+03 -1.71888E+03 -3.73732E+03 -2.32765E+03 -1.23910E+03 -1.23025E+03  1.71686E+03
  2.11525E+03 -1.15037E+03 -6.58936E+02 -3.02695E+03 -7.93247E+02  3.59323E+03 -5.74035E+03 -7.64524E+02
