 $NMID ID='MM_0lb_SNR50_13hz_g40_37.RAW', FMTDAT='(8E13.5)'
 TRAMP=1., VOLUME=1. $END
  3.12949E+05  4.05260E+03  3.38300E+05  2.51375E+05  8.73368E+04  3.40290E+05 -1.34480E+05  2.52992E+05
 -1.93421E+05  8.58498E+04 -1.14170E+05 -2.94724E+04 -4.32422E+02 -4.80865E+04  5.69894E+04  3.52100E+03
  3.04313E+04  4.74780E+04 -1.90588E+04  6.96812E+04 -6.00190E+04  6.33030E+04 -7.88103E+04  3.45716E+04
 -8.06439E+04 -6.91401E+03 -5.68751E+04 -5.19253E+04 -1.46330E+04 -6.72283E+04  2.71652E+04 -4.56796E+04
  4.14351E+04  4.80703E+03  1.49342E+04  4.80595E+04 -3.58984E+04  4.92474E+04 -6.69477E+04 -4.92155E+02
 -5.38837E+04 -5.76821E+04 -1.06473E+04 -7.37869E+04  3.43266E+04 -5.26940E+04  4.51373E+04 -2.08825E+04
  4.34424E+04  1.24638E+04  3.31889E+04  2.36625E+04  2.21533E+04  3.43832E+04 -2.36863E+03  2.63193E+04
 -1.91517E+04  1.13707E+04 -2.21624E+04 -4.34715E+03  2.59923E+03 -7.67822E+03  2.57051E+04  8.95197E+03
  8.32755E+03  3.60931E+04 -3.17168E+04  3.57610E+04 -6.30463E+04  5.45572E+03 -6.01687E+04 -4.39975E+04
 -1.22928E+04 -6.35174E+04  3.99889E+04 -4.18376E+04  5.94652E+04  2.54572E+03  3.48879E+04  2.99627E+04
 -5.95035E+03  3.40195E+04 -2.45104E+04  1.99417E+04 -3.40556E+04  1.94468E+03 -1.31409E+04 -9.30553E+03
 -4.56614E+03 -1.72780E+04 -3.67789E+03 -1.67100E+04  9.50582E+03 -2.70108E+04  8.66240E+03 -1.23182E+04
  7.72882E+03  4.74150E+03 -9.55393E+03  1.50504E+04 -2.52791E+04 -6.62164E+03 -9.96605E+03 -3.76709E+04
  2.24152E+04 -4.49499E+04  5.18130E+04 -1.53988E+04  4.29113E+04  2.16328E+04  1.10966E+04  4.06961E+04
 -2.10711E+04  3.83191E+04 -2.59501E+04  9.01292E+03 -1.00582E+04 -2.92489E+04  2.03443E+04 -3.47711E+04
  4.07758E+04 -1.01889E+04  3.92298E+04  2.14857E+04  1.69318E+04  4.61315E+04 -8.32359E+03  5.09079E+04
 -3.38721E+04  3.42222E+04 -4.60525E+04  7.36839E+03 -4.26187E+04 -2.05339E+04 -2.45451E+04 -4.09609E+04
  8.61440E+03 -3.96722E+04  3.17249E+04 -1.78149E+04  3.08849E+04  9.22631E+03 -1.87870E+03  2.22908E+04
 -1.25052E+04  7.26872E+03 -8.89377E+03 -1.29259E+03  5.26589E+03 -1.55654E+04  1.99765E+04  1.03330E+04
  1.09087E+04  2.14508E+04 -8.49808E+03  2.97172E+04 -2.23179E+04  9.71934E+03 -3.14227E+04 -7.17883E+03
 -1.91750E+04 -1.92718E+04 -1.07687E+04 -1.94545E+04  6.51113E+03 -1.94103E+04  1.91528E+04 -1.65692E+04
  2.62332E+04 -1.01319E+04  3.31138E+04  4.76480E+03  2.40133E+04  2.04094E+04  4.45439E+03  4.03645E+04
 -1.51910E+04  2.94751E+04 -2.84691E+04  8.82297E+03 -2.48821E+04 -8.80723E+03 -5.22628E+03 -1.47180E+04
  3.46006E+03  1.03583E+03 -7.87525E+03  4.70103E+03 -1.24782E+04  2.30517E+02 -1.07243E+04 -9.89457E+03
 -1.14228E+04 -2.04203E+04  6.08416E+03 -2.03956E+04  1.20989E+04 -1.54682E+04  1.70495E+04  1.06094E+03
  7.55862E+03  1.18546E+04  2.55024E+03  1.86843E+04 -8.79813E+03  1.09915E+04 -2.26585E+04 -4.57578E+03
 -1.30206E+04 -1.97542E+04  4.28209E+03 -2.23417E+04  1.24118E+04 -2.01966E+04  1.32674E+04 -7.39103E+03
  1.89982E+04  4.74461E+02  1.09299E+04  5.31178E+03  6.87119E+03 -2.92817E+02  1.15893E+04  2.81554E+03
  1.79198E+04  3.14877E+03  2.03517E+04  1.30125E+04  8.54006E+03  3.16374E+04  2.28496E+03  3.80262E+04
 -1.68287E+04  3.37739E+04 -3.13263E+04  1.46856E+04 -3.26519E+04 -8.46637E+03 -2.47572E+04 -1.97133E+04
 -1.17623E+04 -2.99489E+04  8.96703E+03 -2.83412E+04  2.52456E+04 -1.40739E+04  1.99738E+04  9.18346E+03
  9.00216E+03  1.71830E+04 -6.39162E+03  1.56345E+04 -1.08969E+04  3.36292E+03 -1.00334E+04 -1.14578E+04
 -8.34745E+02 -2.13683E+04  7.63768E+03 -1.70556E+04  6.43267E+03 -1.22003E+03  1.98930E+03  5.24150E+03
 -7.40154E+03 -1.69982E+03 -9.36951E+03 -9.05958E+03 -1.45353E+03 -1.66056E+04  5.96595E+03 -1.17169E+04
  1.52543E+04 -6.23329E+03  1.78435E+04  2.59629E+03  1.94097E+04  1.03223E+04  9.83223E+03  2.30793E+04
  1.01444E+03  2.84381E+04 -1.12193E+04  1.53144E+04 -1.64466E+04  7.77052E+02 -1.00413E+04 -1.67303E+03
 -1.01059E+04 -4.43505E+03 -1.45130E+03  1.02855E+03 -1.31515E+03  2.10344E+03 -6.46616E+03  4.86750E+03
 -1.77678E+04 -2.43110E+02 -1.19230E+04 -1.07023E+04 -2.43724E+03 -1.71263E+04  7.78084E+03 -1.49708E+04
  1.16763E+04 -8.52864E+03  6.41140E+03 -3.66238E+03 -5.99570E+02  1.43710E+03 -5.74719E+03 -4.09901E+02
 -6.36077E+03 -5.16688E+03  1.27876E+03 -1.11944E+04  1.12982E+04 -1.06129E+04  2.11727E+04 -9.68532E+03
  1.73712E+04  7.87051E+03  1.41742E+04  1.13297E+04  1.47233E+03  9.64308E+03 -7.53239E+03  1.02813E+04
 -8.66250E+03  8.66971E+03 -8.70507E+03 -1.56014E+03  1.40828E+03 -8.30385E+02  9.86753E+03  6.88637E+02
  2.86954E+03  6.62337E+03 -2.29227E+03  6.08347E+03 -4.66026E+03  8.34099E+03 -9.97719E+03  3.00684E+03
 -4.62225E+03 -3.62139E+03 -4.94113E+02 -1.60122E+04  6.58885E+03 -1.86686E+03  1.01097E+04  1.17268E+03
  1.00960E+03  5.96155E+03 -5.67252E+03  1.02518E+04 -8.62722E+03  3.59208E+03 -9.62571E+03 -4.84743E+02
 -9.69850E+03 -5.58398E+03  3.72490E+03 -9.99316E+03  7.35111E+03 -5.24968E+03  5.28634E+03  2.93697E+03
  6.97870E+03  5.38664E+03  6.96233E+02  1.00406E+04 -8.78623E+03  1.86791E+03 -1.04691E+04  1.88908E+03
 -5.46378E+03 -7.01723E+03 -2.62336E+03 -1.09838E+04  6.31862E+02 -9.17288E+03  4.17584E+03  4.04735E+03
 -1.89221E+02  6.01514E+03  1.13661E+03 -1.82386E+03 -4.46939E+03 -2.27670E+03  2.11942E+03 -4.29902E+03
  8.04840E+03 -4.12018E+03  1.09006E+04  5.50549E+03  6.71455E+03  6.88485E+03  8.93025E+03  1.72406E+04
 -7.45503E+03  1.39031E+04 -1.43414E+04  1.18901E+04 -1.60793E+04  6.31409E+03 -1.38947E+04 -6.93969E+03
 -7.18843E+03 -1.53197E+04 -2.71081E+03 -1.26654E+04  2.36204E+03 -7.44669E+03  4.08029E+03 -4.23123E+03
 -2.47248E+03  1.04944E+03 -2.04715E+03 -6.39856E+02  5.93271E+03 -2.07708E+03  4.99429E+03 -1.03893E+01
  4.70381E+03 -2.53198E+03  5.89768E+03  1.12357E+03 -2.96669E+03  5.00360E+03 -7.53720E+03  1.04616E+04
 -9.48948E+03  2.22748E+03 -7.70634E+03 -8.14937E+03 -5.49908E+02 -1.37882E+04  5.97841E+03 -5.98607E+03
  1.14112E+04 -5.35735E+03  7.36795E+03  4.85494E+03  1.02004E+04  6.65844E+03  4.98360E+03  8.74178E+03
 -5.26509E+03  8.79698E+03 -1.04004E+04  3.66458E+03 -2.18156E+03 -1.35544E+03 -3.58592E+03 -5.47399E+02
  1.71061E+03 -2.79034E+03 -3.16608E+03  3.03707E+03 -2.62580E+03  6.74033E+03 -4.45116E+03  3.07199E+03
 -2.57872E+03 -9.87972E+03 -1.87375E+02 -1.00621E+04  6.96091E+03 -1.20696E+04  9.29339E+03  2.13125E+03
  1.00810E+04  5.09524E+03  7.28658E+03  1.14201E+04  3.10901E+03  1.18496E+04 -5.33437E+03  5.44242E+03
 -8.48871E+03  2.46088E+03 -8.47211E+03 -4.08303E+03  1.66069E+03 -4.53942E+03  9.41970E+02 -1.50324E+03
  9.41191E+03 -8.43405E+02  2.37615E+03  1.55091E+03  3.62862E+03  7.44783E+02 -8.06542E+02  3.41718E+03
  5.05847E+03  5.05190E+03  2.19248E+03 -3.58556E+03 -3.61909E+02  5.55923E+03 -1.05602E+03  4.38146E+03
 -2.60848E+03  3.16237E+03 -4.16107E+03  9.80672E+03 -6.85936E+03  4.66960E+03 -1.03913E+04 -2.59304E+03
 -4.44449E+03 -7.27855E+03  2.45875E+03 -6.74573E+03  1.02582E+04 -7.86448E+03  7.90143E+03 -1.10210E+03
  1.00546E+04 -1.93822E+03  5.45111E+02  2.10987E+03  6.55058E+02  6.51013E+03 -6.96343E+03 -2.35439E+03
 -1.10332E+03 -4.96507E+03 -4.78707E+02 -4.02286E+03  1.48179E+03 -3.72802E+03  1.93975E+03  1.62048E+03
  3.36994E+03 -4.34417E+02 -1.61536E+03  2.56109E+03  2.69432E+03  4.51195E+02  3.17015E+03 -1.27728E+03
 -4.19127E+02 -1.16782E+03 -1.69546E+03  5.44866E+03  5.71492E+03  3.04810E+03 -1.21453E+02  4.35842E+03
 -3.93680E+03  3.90388E+03 -7.31681E+03 -1.52090E+03 -9.96796E+03 -5.70679E+03 -5.73597E+03  3.08966E+03
  3.47785E+02 -6.24900E+02  3.57294E+03 -4.45978E+02  1.18999E+03  6.46227E+02 -7.56682E+03  7.33204E+03
 -2.85534E+03 -5.44079E+03 -4.74668E+03 -4.96270E+03  3.89496E+02 -5.04365E+03 -2.40957E+03 -4.01431E+03
  5.21300E+02 -8.18015E+02  3.09112E+03 -2.77928E+02  5.54479E+03  2.30721E+03  1.42324E+02  1.34283E+03
  1.78846E+03  1.51529E+03 -5.12284E+03 -2.30240E+03  5.30719E+02 -4.56302E+03  8.52514E+02 -2.87062E+03
  6.26688E+03  3.56481E+02  4.99869E+03  4.38443E+03  3.34501E+02  6.09526E+03  8.31362E+02  1.65799E+03
 -7.92220E+03  1.22586E+03 -3.18149E+03 -1.23747E+03 -1.57108E+03 -3.27157E+03  2.41410E+02  2.36600E+03
  2.91134E+03  2.10184E+03  6.32865E+03 -2.63631E+02 -5.28734E+02 -2.01554E+02 -2.79091E+03 -3.78538E+03
 -1.67178E+03  9.84132E+02  4.27112E+01  1.79293E+03 -2.71937E+03  4.79774E+03 -1.80707E+03  1.73598E+03
 -5.51044E+03 -1.03436E+03 -2.49063E+03 -1.29903E+03 -3.17522E+03 -2.87606E+03 -7.61377E+03 -2.30958E+03
  4.58416E+02 -1.13400E+04  5.67303E+02 -1.00230E+04  3.57990E+03 -9.70218E+03  5.57822E+03  2.01457E+03
  7.47499E+03  3.34630E+03  1.00904E+03 -1.52506E+03 -2.32889E+03  6.80750E+03  4.36246E+03  3.81584E+03
 -1.53232E+03  1.80993E+03 -5.58431E+03  2.98253E+02  7.47575E+02 -6.04062E+02 -4.97128E+01 -7.91294E+02
  2.93888E+03  7.85974E+02 -3.10763E+03 -6.89839E+03  2.04830E+03 -7.00092E+02  2.53530E+02 -2.13949E+03
  1.30137E+03  1.23522E+03 -7.36288E+02 -3.11277E+02  4.46237E+02  2.54038E+03 -8.14407E+02 -1.56032E+03
 -1.98617E+03  3.58785E+03 -5.13777E+03  4.35685E+03 -1.81158E+03  1.34222E+03 -2.33143E+03  9.52131E+02
  4.86280E+02 -5.65856E+03 -5.40790E+03 -4.24054E+03  1.66486E+03 -7.42230E+03 -9.00418E+02 -4.31615E+03
  1.81875E+03  3.93205E+03  1.12377E+03  4.93939E+03 -1.61955E+03 -1.51962E+03  3.13654E+03 -1.93121E+03
 -2.20620E+03  2.42583E+03  4.82533E+03  2.91004E+03  4.37030E+03 -3.28443E+03  4.34325E+02  1.99013E+03
 -8.19694E+03  3.75323E+03 -1.03509E+03 -5.06449E+03 -4.29952E+03 -5.98008E+03  3.12088E+03 -8.46838E+02
  3.15014E+03 -1.37314E+03  3.28905E+03 -1.31538E+03  8.96869E+03  8.46372E+02  1.54256E+03  3.18629E+03
  3.34900E+02  1.34770E+03 -2.39344E+03  2.59991E+03 -3.14343E+03 -1.56156E+03  2.59801E+03 -1.32628E+03
  3.21578E+03  4.07540E+03  1.75047E+03 -1.95867E+02 -7.23741E+02  3.99361E+03 -5.28947E+03 -2.80857E+03
 -1.31574E+03 -1.52956E+03  4.01064E+03 -4.71768E+01 -8.73348E+02 -2.90135E+03  6.57234E+03  1.05306E+03
  2.31737E+03  2.60854E+03 -6.28019E+03 -2.12176E+03  2.63049E+03  3.52414E+03 -2.12225E+03  4.84786E+03
