 $NMID ID='MM_0lb_SNR50_7hz_g60_10.RAW', FMTDAT='(8E13.5)'
 TRAMP=1., VOLUME=1. $END
  3.08226E+05  1.98379E+03  3.42918E+05  2.53032E+05  7.76787E+04  3.40221E+05 -1.20235E+05  2.47419E+05
 -1.98595E+05  7.74635E+04 -1.09525E+05 -2.74951E+04 -5.71542E+03 -5.13748E+04  5.31933E+04 -1.03140E+03
  3.80156E+04  5.73314E+04 -1.91506E+04  7.24579E+04 -5.75092E+04  6.46704E+04 -9.22703E+04  3.67314E+04
 -8.08642E+04 -1.29218E+04 -5.98785E+04 -5.12837E+04 -1.15855E+04 -6.81059E+04  3.18942E+04 -4.33853E+04
  4.08307E+04  4.14048E+03  2.02963E+04  4.77745E+04 -3.67922E+04  5.25403E+04 -7.49829E+04 -1.37340E+03
 -6.48462E+04 -5.95515E+04 -4.27928E+03 -8.25072E+04  2.65691E+04 -5.94176E+04  5.36676E+04 -6.35118E+03
  5.28385E+04  1.57581E+04  3.62180E+04  2.55928E+04  1.65702E+04  3.86610E+04 -1.17636E+04  3.44898E+04
 -3.02497E+04  1.34010E+04 -1.63766E+04  1.02093E+03  1.39241E+04 -5.28083E+03  2.22421E+04  1.48157E+04
  3.43717E+03  3.47132E+04 -3.92425E+04  4.09915E+04 -7.11667E+04  1.94202E+02 -5.75976E+04 -4.89690E+04
 -2.52008E+04 -7.45129E+04  3.78613E+04 -4.95889E+04  6.52619E+04 -7.88459E+02  3.61575E+04  4.46259E+04
 -3.53950E+03  3.97624E+04 -2.69489E+04  1.96032E+04 -3.60024E+04  1.42579E+02 -1.62629E+04 -9.77364E+03
 -1.28202E+04 -1.13146E+04 -2.84301E+03 -2.12610E+04  1.17051E+04 -1.58785E+04  1.75546E+04 -1.74293E+04
  5.67465E+03  1.15322E+04 -8.64338E+03  9.94514E+03 -3.05662E+04  3.78867E+02 -1.01957E+04 -4.13053E+04
  2.43972E+04 -4.79284E+04  5.74714E+04 -1.78850E+04  5.24742E+04  2.57168E+04  2.33534E+04  5.00465E+04
 -1.64289E+04  4.17858E+04 -2.40850E+04  8.25128E+03 -1.53678E+04 -3.00950E+04  2.32623E+04 -2.93943E+04
  4.82051E+04 -1.79805E+04  4.29095E+04  2.21888E+04  2.72116E+04  5.73725E+04 -8.53017E+03  5.97029E+04
 -3.38683E+04  4.46022E+04 -5.31057E+04  1.05640E+04 -4.46171E+04 -2.23496E+04 -3.16262E+04 -4.11769E+04
  4.67340E+03 -5.13291E+04  3.64352E+04 -1.59294E+04  3.86452E+04  1.39990E+04  8.47518E+03  2.76505E+04
 -1.14164E+04  1.77484E+04 -1.76788E+04 -1.03119E+04  1.77628E+02 -6.60663E+03  1.83502E+04  9.32505E+03
  1.42415E+04  2.37117E+04 -1.27281E+04  2.97023E+04 -2.40721E+04  1.49810E+04 -3.66480E+04 -8.94369E+02
 -3.30892E+04 -2.49447E+04 -2.01574E+04 -2.74232E+04  1.35704E+03 -3.27934E+04  2.21284E+04 -2.58473E+04
  3.65918E+04 -1.35942E+04  4.63745E+04  1.21470E+04  3.08947E+04  3.40391E+04  3.65197E+03  4.85348E+04
 -2.47081E+04  4.06818E+04 -2.85319E+04  1.43283E+04 -1.95575E+04 -1.57640E+04 -2.48935E+03 -1.59798E+04
 -2.27742E+03 -4.52881E+03 -9.13189E+03  1.88924E+04 -2.83461E+04  5.19271E+02 -2.22749E+04 -1.04871E+04
 -8.88785E+03 -2.47801E+04  5.26559E+03 -2.78437E+04  1.63528E+04 -2.34517E+04  1.98373E+04 -5.20475E+02
  1.59271E+04  2.07671E+04 -5.01967E+02  2.62710E+04 -2.12313E+04  1.75188E+04 -2.26260E+04 -1.10499E+04
 -1.34009E+04 -2.38774E+04  6.88874E+03 -3.35185E+04  1.26102E+04 -2.82588E+04  2.68097E+04 -1.25979E+04
  1.75252E+04  3.33455E+03  8.99725E+03  1.70157E+04  9.64013E+03 -9.42214E+02  1.36776E+04 -2.76478E+03
  2.96121E+04  7.27590E+03  2.99545E+04  2.49079E+04  1.89770E+04  3.91822E+04 -4.02498E+03  5.08499E+04
 -2.77341E+04  3.98737E+04 -4.94015E+04  2.40943E+04 -5.38504E+04 -9.11819E+03 -4.30077E+04 -3.57678E+04
 -1.76362E+04 -3.76000E+04  1.28080E+04 -3.68454E+04  2.61691E+04 -1.49191E+04  2.80726E+04  1.54501E+04
  1.57153E+04  2.12810E+04 -1.05375E+04  2.25985E+04 -1.45543E+04  3.28737E+03 -1.58781E+04 -1.21268E+04
  1.25806E+03 -2.68952E+04  1.23463E+04 -2.43491E+04  1.38736E+04 -5.37175E+03 -2.62810E+03  1.20845E+04
 -1.03541E+04  2.88235E+03 -7.42484E+03 -1.49971E+04 -7.97472E+03 -1.80562E+04  1.85513E+04 -2.71952E+04
  1.85018E+04 -2.22348E+04  3.20007E+04  7.29390E+03  2.92558E+04  2.19692E+04  2.09648E+04  3.38048E+04
 -7.10018E+03  3.52543E+04 -1.49076E+04  2.64190E+04 -2.16265E+04 -2.31891E+03 -1.20921E+04 -3.41219E+03
 -1.58155E+04 -9.78659E+03  5.72845E+03 -3.29597E+03 -5.66659E+03  6.06831E+03 -1.42486E+04 -8.66823E+02
 -6.30871E+03 -5.85486E+03 -2.09044E+04 -1.31544E+04 -1.22878E+04 -2.27199E+04  8.46315E+03 -1.87445E+04
  9.11498E+03 -1.17590E+04  1.02371E+04  6.49078E+03 -2.88193E+03  2.76887E+03 -5.11505E+03 -3.89428E+03
 -8.24448E+03 -9.28632E+03  9.10643E+03 -1.94434E+04  8.20999E+03 -2.01166E+04  2.91232E+04 -1.01368E+04
  3.24778E+04  1.11426E+03  2.29585E+04  1.84552E+04  3.73246E+03  2.35741E+04 -9.14230E+03  2.27802E+04
 -2.10158E+04  6.17385E+03  1.28676E+03  1.49021E+03  6.92301E+03 -1.48654E+04  1.32214E+04 -1.05861E+02
  4.53420E+03  1.03770E+04  6.22785E+02  1.74519E+04 -1.37886E+04  1.48919E+04 -2.13817E+04  2.49307E+03
 -1.80713E+04 -9.11706E+03 -1.58591E+03 -1.73362E+04  1.34802E+04 -5.01030E+03  1.16797E+04  5.27751E+03
  2.20880E+03  1.07453E+04 -1.15621E+04  1.71859E+04 -1.48626E+04  4.69129E+02 -2.16609E+04 -2.00420E+03
 -1.55176E+04 -2.29395E+04  4.49357E+03 -2.15415E+04  1.75353E+04 -9.63231E+03  1.95704E+04  3.83443E+03
  9.27915E+03  1.81836E+04 -4.15051E+03  1.85637E+04 -8.34543E+03  1.57299E+04 -1.64284E+04 -3.97590E+03
 -1.28857E+04 -9.36158E+03 -5.98940E+03 -1.29055E+04  1.08069E+04 -1.02359E+04  4.22407E+03 -5.08332E+03
  9.12781E+03  8.13133E+03 -4.68769E+02 -1.38226E+03 -1.46584E+03 -3.86136E+03  4.42189E+03 -1.09667E+04
  1.13651E+04 -6.40146E+03  1.63286E+04  3.13722E+03  2.05854E+04  3.04913E+03  1.69685E+04  2.80278E+04
 -1.27078E+04  2.06992E+04 -2.90164E+04  2.41784E+04 -4.51964E+04 -1.11539E+03 -2.02714E+04 -1.36774E+04
 -1.00458E+04 -1.93825E+04  6.13421E+02 -1.82163E+04  1.58159E+03 -7.20795E+03  8.26469E+03 -1.52873E+03
  1.10242E+04 -1.12574E+03  4.81132E+03 -2.71746E+03  3.10503E+03 -2.42898E+03  1.23325E+04 -6.07682E+03
  1.50916E+04  1.71661E+03  1.95516E+04  1.97493E+04 -3.26792E+03  1.67736E+04 -1.37421E+04  5.60170E+03
 -2.28690E+04 -7.93519E+03 -1.20018E+04 -7.81980E+03 -2.63824E+03 -2.15228E+04  1.58021E+04 -2.07124E+04
  2.30149E+04 -1.22562E+04  2.61058E+04 -8.32082E+02  2.20562E+04  1.68845E+04  4.29784E+02  3.23759E+04
 -1.13678E+04  1.95903E+04 -1.13280E+04  3.35910E+03 -4.35408E+03 -2.26864E+03 -1.16914E+03  2.31685E+03
 -1.50660E+03  8.58046E+02 -3.73257E+03  7.00888E+03 -1.41292E+03  1.10936E+04 -1.29258E+04 -1.19160E+03
 -1.05636E+04 -1.64161E+04 -5.37028E+03 -1.83820E+04  4.17928E+03 -2.33060E+04  2.54609E+04 -3.63475E+03
  2.13934E+04  8.08293E+03  4.99657E+03  2.06920E+04 -4.34380E+03  1.92848E+04 -1.20027E+04  1.79743E+04
 -2.18284E+04 -6.63942E+02 -1.71591E+04 -1.44279E+04 -3.94535E+02 -2.14238E+04  1.32755E+04 -7.77725E+03
  8.53851E+03 -7.25780E+03  3.52966E+03  5.84714E+03  3.29283E+03  1.15494E+04 -4.61639E+03  6.61037E+03
  4.68083E+03  1.87271E+03  3.49410E+03  1.40730E+03  6.14214E+03  9.28502E+03  7.06099E+02  1.34545E+04
 -1.09586E+04  7.95247E+03 -9.91289E+03  1.43656E+04 -2.53017E+04  9.93022E+03 -2.21789E+04 -1.46593E+04
 -1.24508E+04 -7.16201E+03  2.40624E+03 -2.64302E+04  1.30743E+04 -1.23915E+04  2.10717E+04  2.53834E+03
  1.71292E+04  6.67497E+03  2.24352E+03  1.80847E+04 -8.37706E+03  8.28606E+03 -9.45552E+03 -8.98729E+03
 -1.92756E+03 -1.09841E+04  4.39049E+03 -5.28392E+03  1.30254E+04  1.61543E+03  8.28835E+03 -2.99121E+03
  6.31720E+03 -5.38077E+02 -7.42722E+02  7.79243E+03  4.15006E+03  3.61025E+03 -2.00603E+03  3.40645E+03
  2.98184E+03  4.84119E+03  1.20761E+04  1.67193E+02  1.47229E+03  2.48142E+04 -1.73510E+03  1.04033E+04
 -1.19511E+04  7.81874E+03 -1.43764E+04  2.36920E+02 -1.78955E+04 -7.85463E+03 -6.56669E+03 -1.06394E+04
  3.69513E+03 -9.30345E+03  1.52830E+04 -9.58253E+03  3.92917E+03  6.78112E+03 -3.04408E+03  1.63410E+04
 -1.21724E+04  5.93072E+03 -2.18486E+04 -6.41388E+03 -6.26403E+03 -3.38277E+03  4.27998E+03 -1.52177E+04
  1.01333E+04 -5.73193E+03  8.04722E+03 -7.47527E+03  9.67844E+03 -4.57487E+02  3.19644E+03  1.51751E+03
 -5.25737E+03  4.11082E+03 -8.58822E+02 -1.86386E+03  4.33221E+03 -7.64252E+03  1.40852E+04 -9.04811E+03
  1.61908E+04  2.96283E+03  1.25835E+04  5.67498E+03  4.85451E+03  9.99689E+03 -1.08958E+04  1.41733E+04
 -1.44267E+04  7.62837E+03 -1.21195E+04  1.85135E+03 -6.36903E+03 -8.58345E+03  2.05962E+03 -8.33349E+03
  8.89121E+03 -3.29763E+03  1.39106E+04  5.58797E+03  2.92163E+03  1.07272E+04 -2.89203E+03 -4.28932E+02
 -9.07889E+03 -1.16340E+02 -9.49920E+03 -3.50878E+03 -1.44012E+03 -7.55601E+03  6.73419E+03  3.13886E+03
 -3.30443E+03  6.00046E+03 -8.58459E+03  5.75047E+03 -6.73609E+03 -2.00555E+03 -1.66800E+04 -1.52877E+04
 -6.63905E+03 -2.69414E+04  7.22910E+03 -2.64602E+04  1.74425E+04 -1.60693E+04  2.67427E+04 -3.89521E+03
  1.00562E+04  6.78293E+03  1.89739E+04  1.58019E+04  3.90700E+03  2.42616E+04 -3.15936E+03  9.99491E+03
 -7.07948E+03  4.80366E+03 -9.18482E+03 -1.85065E+03 -2.86809E+03 -4.72845E+03  1.34205E+03 -1.96871E+03
 -1.80708E+03 -4.30809E+03  6.87840E+01 -3.07133E+03  1.97437E+03 -6.79669E+03  6.31712E+03 -8.51047E+03
  8.21641E+03  2.64407E+03  4.76259E+03 -3.35909E+03  1.30988E+04  5.30336E+03  1.05932E+04  2.06960E+04
 -9.90180E+03  1.16002E+04 -9.78794E+03  1.25916E+04 -2.02866E+04 -1.28765E+03 -1.82571E+04 -1.85472E+04
 -1.05158E+04 -1.66410E+04  6.13942E+03 -1.53676E+04  1.13717E+04 -1.25742E+04  1.42077E+04  1.28165E+03
  4.59266E+03  5.33691E+03 -3.02308E+03  1.30307E+04  2.98667E+03 -1.17484E+03 -3.24674E+03 -9.66634E+02
  8.69314E+03 -5.42444E+03  6.12579E+03  4.73247E+03  2.72695E+03  7.09553E+03  1.17445E+03  9.99552E+03
 -1.23697E+04  6.64820E+03 -1.45352E+04 -1.54278E+03 -1.23853E+04 -9.85258E+03 -1.09871E+02 -1.19812E+04
  4.22065E+03 -1.04308E+04  1.07147E+04 -2.11114E+03  1.69742E+03  2.10195E+03  6.45946E+03  7.53573E+03
 -1.78738E+03  9.89725E+03 -5.26605E+03  9.50167E+03 -1.04615E+04 -4.90924E+02 -5.14969E+03 -3.78486E+03
 -4.06389E+03  5.64184E+03 -5.15410E+03 -1.25841E+03 -7.04604E+03  5.22771E+03 -1.79560E+03 -2.63822E+03
 -6.74974E+03 -6.16836E+03 -2.69562E+03 -9.30621E+03 -1.42906E+03 -7.01944E+03  4.69626E+03 -8.84824E+03
  1.32676E+04  3.34645E+03 -3.31187E+03  4.16155E+03 -1.18494E+03  1.35160E+04 -9.81016E+03  7.07058E+03
