 $NMID ID='MM_0lb_SNR50_18hz_g40_71.RAW', FMTDAT='(8E13.5)'
 TRAMP=1., VOLUME=1. $END
  3.07056E+05  1.68448E+03  3.36927E+05  2.52483E+05  8.48245E+04  3.34272E+05 -1.31319E+05  2.46990E+05
 -1.89011E+05  8.40280E+04 -1.08876E+05 -3.53481E+04  1.94701E+03 -4.88413E+04  5.24137E+04 -1.03575E+02
  3.10656E+04  5.32410E+04 -1.58274E+04  7.79131E+04 -5.99481E+04  6.44231E+04 -8.06050E+04  3.20460E+04
 -8.38803E+04 -1.38845E+04 -5.71029E+04 -4.84279E+04 -1.43530E+04 -6.98042E+04  2.53309E+04 -4.38750E+04
  3.53545E+04  3.47831E+03  1.25903E+04  4.69190E+04 -3.61112E+04  4.67965E+04 -6.31797E+04 -3.86713E+03
 -5.12880E+04 -5.66221E+04 -9.33793E+03 -7.82902E+04  2.88519E+04 -5.30877E+04  4.34159E+04 -1.68128E+04
  4.40923E+04  1.41086E+04  2.65771E+04  2.66236E+04  1.74133E+04  2.77704E+04 -5.88442E+03  2.65068E+04
 -2.22041E+04  1.16965E+04 -2.13835E+04  4.19680E+02  9.09317E+03 -6.70012E+03  2.17839E+04  9.06458E+03
  5.70698E+03  3.57308E+04 -3.06453E+04  3.15130E+04 -6.38487E+04 -1.49495E+03 -5.75359E+04 -4.29610E+04
 -1.01585E+04 -6.68555E+04  3.98801E+04 -4.71397E+04  5.34635E+04 -5.55353E+03  3.26388E+04  2.71733E+04
 -4.28694E+03  3.56391E+04 -2.65348E+04  1.28257E+04 -2.60275E+04 -2.33069E+03 -1.25876E+04 -1.37786E+04
 -8.80022E+03 -9.74451E+03 -2.03502E+03 -1.58385E+04  5.85291E+03 -2.15180E+04  1.42485E+04 -1.41490E+04
  1.00345E+04  5.24243E+03 -9.03238E+03  1.57249E+04 -2.17565E+04 -8.50825E+02 -1.14260E+04 -3.50863E+04
  2.28159E+04 -3.86271E+04  4.22416E+04 -1.96207E+04  4.03481E+04  1.55059E+04  1.04776E+04  4.07962E+04
 -1.74769E+04  3.09382E+04 -2.33025E+04  3.76524E+03 -9.65492E+03 -2.61251E+04  2.02870E+04 -2.99644E+04
  3.74852E+04 -1.29803E+04  3.10688E+04  2.48872E+04  1.45299E+04  4.47061E+04 -4.93366E+03  4.55111E+04
 -2.84566E+04  3.02372E+04 -3.50436E+04  2.78701E+03 -3.84083E+04 -1.77771E+04 -2.25733E+04 -3.45894E+04
  7.33530E+03 -3.40164E+04  2.79198E+04 -7.00562E+03  2.05893E+04  9.97053E+03  3.84416E+03  1.65517E+04
 -1.42208E+04  6.49799E+03 -9.94377E+03 -7.24748E+03  5.48594E+03 -9.15302E+03  1.35630E+04  3.20164E+03
  1.02097E+04  2.62039E+04 -3.81346E+03  2.10922E+04 -2.54668E+04  1.01420E+04 -2.67484E+04 -8.02744E+03
 -1.76508E+04 -1.73484E+04 -5.72423E+03 -1.47210E+04  2.13181E+03 -1.56480E+04  9.83259E+03 -1.46386E+04
  2.19817E+04 -1.27989E+04  2.64489E+04  1.97309E+02  1.52457E+04  2.23520E+04  2.63154E+03  3.14036E+04
 -1.62200E+04  2.50144E+04 -2.61441E+04  1.23509E+04 -2.20457E+04 -7.58301E+03 -1.69973E+03 -1.25573E+04
  1.16252E+03 -4.38736E+03 -4.90767E+03  4.57214E+03 -1.49485E+04  4.48322E+03 -1.54159E+04 -2.10240E+03
 -9.69948E+03 -1.10725E+04  7.86774E+03 -1.34494E+04  7.07666E+03 -1.17966E+04  1.18546E+04  2.12879E+03
  7.99654E+03  1.20107E+04 -7.49414E+02  1.84446E+04 -1.07548E+04  7.47467E+03 -1.49032E+04 -1.11247E+03
 -9.38004E+03 -1.59574E+04 -6.75646E+03 -2.02024E+04  8.76589E+03 -1.72695E+04  1.46565E+04 -2.95914E+03
  1.22870E+04  3.12136E+03  8.93078E+03  3.82254E+03  7.41943E+03 -3.13318E+03  6.50447E+03 -2.23289E+03
  1.38047E+04  4.24029E+03  1.49050E+04  1.07647E+04  9.92421E+03  2.29317E+04 -1.19082E+03  2.73609E+04
 -1.08196E+04  2.21529E+04 -2.43254E+04  8.45143E+03 -2.51905E+04  2.38471E+01 -1.77216E+04 -1.25753E+04
 -8.66146E+03 -1.16425E+04  6.52838E+03 -1.74850E+04  1.67675E+04 -8.99222E+03  1.24191E+04  4.20765E+03
  6.45620E+03  1.02639E+04 -7.44187E+03  8.29043E+03 -1.38893E+04  2.02191E+02 -8.49460E+03 -1.40792E+04
  1.11462E+00 -1.49539E+04  6.34141E+03 -6.56615E+03  8.48951E+03 -1.08328E+03  3.10667E+03  4.41201E+03
 -5.92465E+03  8.02416E+02 -5.61476E+03 -3.92897E+02  7.70079E+02 -1.44316E+04  8.03488E+03 -1.10402E+04
  1.31431E+04 -4.66394E+03  1.38938E+04  6.81906E+03  6.60562E+03  9.94819E+03  4.41109E+03  1.22431E+04
 -5.46551E+03  1.33711E+04 -9.34359E+03  6.96547E+03 -1.25962E+04  7.39495E+02 -5.81310E+03  1.64648E+03
 -3.69305E+03 -5.60126E+02 -4.58973E+02 -8.74170E+02 -1.55667E+03 -8.42195E+02  3.76528E+01  8.13919E+03
 -8.74506E+03 -1.11623E+03 -8.72495E+03 -6.48884E+03 -1.22379E+03 -1.31958E+04  6.21946E+03 -6.37355E+03
  8.01024E+03 -3.13750E+03  7.17719E+03  3.11321E+03 -2.21686E+03 -6.44742E+00 -6.15981E+03 -6.67071E+02
 -1.22022E+03 -1.27760E+03 -1.85234E+03 -9.86174E+03  7.27340E+03 -7.65862E+03  1.16231E+04 -8.25215E+03
  1.30096E+04  1.70768E+03  6.29355E+03  4.28777E+03  1.70757E+03  6.81204E+03 -4.67259E+03  9.96007E+03
 -9.47128E+03  6.54845E+03 -2.80977E+03 -7.45900E+02  2.74401E+03 -1.35162E+01  5.30349E+02  5.47361E+02
  5.85480E+03  2.30116E+03  1.72882E+03  3.20623E+03 -3.84116E+03  1.16772E+04 -1.18462E+04  2.84617E+03
 -5.47400E+03 -6.14835E+03  2.40698E+03 -9.02487E+03  5.82947E+03 -2.56978E+03  6.54508E+03 -9.05003E+02
 -9.58603E+01  2.67123E+03 -2.99123E+03  2.69936E+03 -4.47783E+03  3.38911E+03 -2.99359E+03  1.65291E+03
 -5.03362E+03 -4.29799E+03  1.33518E+03 -7.13337E+03  4.11120E+03 -4.08676E+03  7.33417E+03  1.42839E+03
  6.64379E+03  6.09674E+03  1.81944E+03  1.05000E+04 -9.13036E+03  7.59094E+03 -2.34009E+03 -5.71605E+03
 -4.31568E+03 -4.55425E+03 -2.98664E+02 -3.53886E+03  5.41592E+03 -6.38487E+03 -2.31086E+02 -3.39235E+02
  2.16134E+03 -1.45164E+03  1.44456E+03 -2.31849E+03  2.14271E+03 -1.76840E+03  1.52557E+03 -1.08652E+03
  3.34087E+03 -2.58508E+03  5.97173E+03  6.16697E+01  6.44527E+03  1.31960E+03  1.65922E+03  6.80095E+03
 -1.27720E+03  9.84643E+03 -1.15526E+04  9.00715E+03 -1.15039E+04  3.66212E+03 -4.90192E+03 -6.97556E+01
 -5.04570E+03 -7.50145E+03  2.99434E+03 -6.88007E+03  5.28008E+03 -3.41979E+03  3.84836E+03 -6.50442E+03
  3.96172E+03 -1.45215E+03 -6.58113E+02 -4.16059E+03  1.17217E+03  5.09682E+02 -8.22738E+02  2.85692E+02
  5.93958E+03  1.53335E+03  5.22431E+03  3.44410E+03 -2.61097E+03  1.60538E+03 -3.99247E+03  4.58447E+03
 -1.19118E+03 -4.42818E+03 -5.10647E+02 -3.51979E+03  3.17358E+03 -4.72176E+03  2.88029E+03 -5.49672E+03
  6.33966E+03 -1.22914E+03  7.56461E+03 -8.59007E+02  1.65981E+03  5.43467E+03  3.88899E+03  7.43984E+03
 -4.67217E+03  5.75903E+03  8.81948E+00  9.81668E+02 -3.25513E+03 -1.06275E+03 -8.79103E+02 -9.36501E+01
  4.02475E+03  1.74311E+03  1.38645E+02  4.72792E+03 -1.07186E+03  2.93257E+03 -7.19757E+03 -8.77504E+02
 -3.00415E+03 -1.23177E+03  1.94539E+02 -3.33369E+03  4.57346E+03 -4.71494E+03  4.59794E+03 -1.40884E+03
  1.25128E+02  4.68402E+03  3.89692E+03  2.26067E+03 -3.88226E+02  1.82055E+02 -2.41658E+03  2.24767E+03
 -1.61568E+03  3.27998E+03 -2.69682E+03 -7.82471E+02  4.93404E+02 -4.66697E+03  8.28205E+02 -3.56898E+03
  1.33911E+03 -1.04200E+03  3.53338E+02 -7.17167E+02  4.47378E+03  3.28145E+03 -7.58338E+02  2.76672E+03
  2.96890E+03  4.81643E+01 -8.84812E+02  3.20711E+03 -1.89340E+02  2.21173E+03  5.31649E+02  6.18218E+03
 -2.70504E+02  7.37640E+03 -1.86259E+03  6.53137E+03 -2.20974E+03  4.36164E+03 -3.46276E+03  6.16447E+02
  1.01528E+03 -7.06076E+03  1.75120E+03 -2.39740E+03  4.18653E+03 -2.30057E+03  1.65208E+03 -1.68274E+03
  7.25225E+03  2.85527E+03  2.53117E+03  4.06847E+03 -1.81879E+03  3.34941E+03 -3.40890E+03  1.71210E+03
 -1.64112E+03 -1.64759E+03  1.33633E+03  1.98337E+02  3.51971E+03 -1.41476E+03  1.03974E+03 -5.33870E+02
  3.75574E+03  2.54142E+03 -4.98610E+02 -1.71477E+03 -2.10494E+03  1.56877E+03  4.09182E+03 -3.43282E+03
 -2.09004E+03 -1.13860E+03  4.10619E+02 -6.14834E+02 -2.29665E+03  2.67506E+03 -6.03931E+02  3.65104E+03
 -7.76616E+03  1.80295E+03 -2.43986E+03  2.13224E+03 -8.92833E+02 -2.58498E+03  2.16689E+03  1.55494E+03
  1.05349E+02 -2.90296E+03  1.16628E+03 -5.73508E+03 -5.65134E+02 -4.23586E+02 -2.28747E+02  1.04010E+03
  4.31213E+03  2.72527E+03 -2.50154E+02  5.58161E+02  6.78029E+02 -4.09105E+03 -2.64978E+03 -2.42388E+02
 -1.69101E+03 -1.50674E+03  8.70367E+01 -2.04755E+03 -1.34055E+02 -2.45305E+03  5.81153E+03  1.25361E+03
 -2.89545E+03 -1.61164E+03  4.13871E+02 -7.60038E+02  7.77472E+02 -2.03323E+03 -3.27320E+03  8.27037E+02
  4.93454E+03 -1.57753E+03  5.56388E+02  3.28537E+03  1.13798E+01 -2.21184E+02 -7.27561E+02  8.37558E+02
 -3.86773E+03 -9.85704E+02  2.61030E+03  2.01134E+03  1.21859E+03  3.08003E+03 -5.66932E+01  3.71406E+03
  6.93931E+02 -6.35164E+02 -2.49748E+03 -1.10429E+02  6.07675E+02 -1.14087E+03 -2.08719E+03  1.19432E+03
  1.08688E+02  3.10476E+03 -1.58900E+02  8.90645E+02  3.54228E+03 -8.49248E+01  2.03176E+03  3.79079E+02
 -9.01312E+02  3.79540E+02 -6.17260E+03 -3.88930E+02 -2.22589E+03  2.07103E+02 -7.65983E+02 -6.17525E+01
 -8.05959E+03 -4.87785E+03  3.22241E+03 -4.33715E+03 -1.27884E+03 -1.52087E+03  2.06294E+03 -3.33348E+03
  5.23504E+03  2.99796E+03 -3.48492E+01  5.58496E+03 -1.19024E+02  1.89020E+03 -1.41021E+02  4.30225E+03
 -4.91562E+03  3.91481E+03  1.18771E+03  2.45333E+02 -2.65229E+03  7.38055E+02  1.60830E+03 -1.55192E+03
 -1.84463E+03  4.33709E+03 -1.18986E+03  2.24417E+03  4.37520E+03 -4.55004E+03  1.34343E+03  1.70188E+03
 -1.28861E+03 -3.00529E+03  8.64463E+03  7.14051E+02 -3.82853E+01 -1.75101E+03 -3.12916E+03  5.90093E+02
  2.81628E+03 -1.57714E+03 -1.00110E+03 -6.57193E+02 -9.14593E+02  4.31512E+02 -1.89031E+03 -2.35557E+03
  3.28860E+03 -3.40827E+01  1.37034E+03 -2.47963E+03  3.71272E+03 -7.72224E+02  2.33317E+03  1.60206E+03
  5.59490E+00  3.47904E+02  7.23266E+02 -2.98296E+03 -1.11222E+03 -4.34156E+03  1.79370E+01  3.44250E+03
 -3.31831E+03  4.30402E+03 -1.77479E+03 -6.14679E+02 -8.52783E+02  3.34855E+03 -6.48678E+02 -9.65352E+02
 -2.41934E+03  5.10034E+03  1.34219E+03 -3.25791E+03  3.43974E+02 -3.43385E+03 -1.71578E+02 -3.75323E+03
  3.87097E+03  1.53151E+03  1.13978E+03 -1.97291E+03  1.50848E+02  1.27639E+03 -4.66328E+02 -6.37175E+01
 -7.09821E+01  2.40295E+03 -4.91711E+03  1.19964E+03 -1.40868E+03  7.30187E+02 -1.19090E+03 -3.78563E+03
  2.12550E+03  2.30645E+03 -3.88736E+03  5.10967E+01 -1.66528E+03 -9.14873E+02  8.58973E+02 -5.18182E+02
 -3.15223E+03 -1.68088E+03 -2.32045E+03 -2.28232E+03  4.22229E+03 -2.13114E+03  2.31165E+03  4.77859E+02
  3.22546E+03  1.38587E+03  3.58896E+03  3.94738E+03  1.13534E+03 -2.48193E+03 -3.58034E+03  1.62840E+03
