 $NMID ID='MM_0lb_SNR50_19hz_g45_85.RAW', FMTDAT='(8E13.5)'
 TRAMP=1., VOLUME=1. $END
  3.11587E+05  1.77914E+03  3.35422E+05  2.51472E+05  8.28216E+04  3.39062E+05 -1.32753E+05  2.52068E+05
 -1.90172E+05  8.65284E+04 -1.13457E+05 -3.28175E+04  1.30086E+03 -5.22885E+04  5.40833E+04  2.52826E+03
  3.25456E+04  5.13845E+04 -1.48474E+04  7.42264E+04 -6.19710E+04  6.29333E+04 -8.13783E+04  2.86829E+04
 -8.35858E+04 -1.26710E+04 -5.38217E+04 -4.88678E+04 -1.87476E+04 -6.47016E+04  3.09455E+04 -4.66494E+04
  4.12849E+04  2.48943E+03  1.47674E+04  4.71306E+04 -3.50959E+04  4.56100E+04 -6.43122E+04  7.22929E+02
 -5.12007E+04 -5.45020E+04 -4.53621E+03 -7.32456E+04  3.39597E+04 -5.56405E+04  4.73371E+04 -1.73890E+04
  3.90393E+04  8.60487E+03  3.18737E+04  2.15013E+04  1.75456E+04  3.07811E+04 -2.24676E+03  2.62710E+04
 -2.11914E+04  1.41661E+04 -1.77870E+04 -5.22210E+03  6.07074E+03 -8.67474E+03  2.20504E+04  6.91368E+03
  3.35259E+03  2.94710E+04 -2.82932E+04  3.03901E+04 -6.41245E+04  1.04762E+02 -5.31000E+04 -4.34733E+04
 -1.24953E+04 -6.08589E+04  3.32204E+04 -4.17576E+04  5.10834E+04 -3.41281E+03  3.48400E+04  3.16708E+04
 -7.98115E+03  3.18039E+04 -2.53478E+04  1.19129E+04 -2.71108E+04 -4.20823E+03 -1.16785E+04 -6.77492E+03
 -4.36516E+03 -9.37641E+03 -3.24859E+03 -1.17752E+04  6.83352E+03 -2.23637E+04  1.24956E+04 -1.66601E+04
  1.56451E+04  2.28712E+03 -6.40405E+03  9.81083E+03 -1.74511E+04 -1.09378E+03 -9.41281E+03 -2.98598E+04
  1.93945E+04 -3.74438E+04  4.57940E+04 -1.82072E+04  3.97158E+04  1.66671E+04  1.55931E+04  4.12820E+04
 -1.83610E+04  3.01362E+04 -2.73745E+04  3.88756E+03 -9.26827E+03 -2.65123E+04  1.58016E+04 -3.18443E+04
  3.93925E+04 -1.01956E+04  2.91984E+04  2.02254E+04  1.41339E+04  3.94039E+04 -1.05426E+04  4.36637E+04
 -3.09245E+04  2.65275E+04 -3.71067E+04  1.06626E+04 -3.42243E+04 -1.83398E+04 -2.06434E+04 -3.45797E+04
  7.96438E+03 -3.42027E+04  3.39071E+04 -1.32965E+04  2.51413E+04  1.28557E+04  4.73129E+03  1.48305E+04
 -1.39645E+04  3.39904E+03 -1.17565E+04 -9.45297E+03  7.45134E+03 -9.37564E+03  1.65114E+04  7.76277E+03
  9.51120E+03  2.32660E+04 -6.29820E+03  2.48510E+04 -2.44820E+04  9.52644E+03 -2.58884E+04 -3.07263E+03
 -1.42075E+04 -2.02861E+04 -5.25179E+03 -1.59876E+04  2.27759E+03 -1.52726E+04  7.44529E+03 -1.57904E+04
  2.01031E+04 -1.09210E+04  2.57797E+04  4.03042E+03  1.74984E+04  1.40474E+04 -4.66861E+02  3.25718E+04
 -1.47962E+04  2.54262E+04 -2.10024E+04  1.14851E+04 -2.12532E+04 -1.17030E+04 -1.11102E+03 -1.56590E+04
 -1.88906E+03 -1.48350E+03 -4.46114E+03  2.85179E+03 -1.21946E+04  5.21517E+03 -1.52435E+04 -4.90131E+03
 -1.08467E+04 -1.57467E+04  6.10587E+03 -1.70821E+04  1.50640E+04 -1.17607E+04  1.73118E+04 -2.41630E+03
  1.29778E+04  1.37856E+04 -9.62870E+02  1.22158E+04 -8.41509E+03  1.30517E+04 -1.70202E+04 -2.69740E+03
 -1.23006E+04 -1.68089E+04 -3.66729E+02 -1.51603E+04  8.59284E+03 -1.17368E+04  1.64871E+04 -6.97795E+03
  1.32200E+04  1.20247E+03  1.08739E+04  5.48615E+03  8.47791E+03  1.66729E+03  9.65537E+03 -1.97508E+03
  1.31645E+04  1.63638E+03  1.41114E+04  1.00214E+04  1.20404E+04  2.33241E+04 -2.27315E+03  2.19488E+04
 -1.71379E+04  2.19761E+04 -2.16414E+04  6.48638E+03 -2.39820E+04 -2.46637E+03 -2.10913E+04 -1.10291E+04
 -7.01483E+03 -1.76740E+04  9.25332E+03 -1.93836E+04  1.54435E+04 -7.76313E+03  1.50992E+04  5.26847E+03
  7.56708E+03  3.50453E+03 -4.24596E+03  1.33152E+04 -1.66875E+04 -9.06004E+02 -1.46714E+04 -1.00911E+04
 -1.73892E+02 -1.14613E+04  7.09950E+03 -1.12957E+04  7.02276E+03 -5.26912E+03  1.36682E+03  4.29166E+03
 -4.43546E+03  4.14964E+03 -2.02544E+03 -5.57639E+03  4.70002E+03 -1.21881E+04  4.01760E+03 -9.96952E+03
  1.07342E+04 -5.08115E+03  7.38012E+03  2.82850E+03  9.27169E+03  8.15520E+03  1.77919E+03  1.04545E+04
 -4.63970E+02  1.42196E+04 -1.16684E+04  9.49032E+03 -1.03430E+04  5.62779E+03 -9.04318E+03 -3.35767E+03
 -4.21058E+03 -3.83966E+03  1.50419E+03 -7.68163E+01  1.97742E+02 -2.51919E+02 -3.27784E+03  5.77945E+03
 -8.50383E+03  2.23540E+03 -9.59657E+03 -7.11859E+03 -3.64627E+03 -1.09532E+04  4.76201E+03 -9.64736E+03
  8.73427E+03 -3.92008E+03  4.88331E+03 -1.52174E+03 -3.39731E+03  1.51683E+03 -7.00920E+02  9.97859E+02
 -4.55723E+03 -6.29416E+03  2.34067E+03 -6.21177E+03  1.10106E+03 -5.24458E+03  1.04169E+04 -3.72414E+03
  1.24858E+04  1.04615E+03  9.42796E+03  6.89062E+03  3.29401E+03  9.82004E+03 -8.32364E+03  6.80359E+03
 -1.05236E+04  2.50455E+03 -3.21820E+03 -1.24487E+03 -4.07846E+03 -9.58836E+02  6.37257E+03  1.12340E+03
  6.12756E+03  2.73711E+03  3.96170E+03  2.88798E+03 -4.07018E+03  4.92747E+03 -7.81822E+03  2.32261E+03
 -3.55461E+03  1.16639E+02  1.95062E+03 -4.42060E+03  3.38093E+03 -5.92087E+03  5.35612E+03 -7.31982E+02
  1.72166E+03  2.34352E+03 -5.08165E+03  5.80976E+03 -2.36156E+03  4.20057E+03 -3.39771E+03 -4.11773E+02
 -5.11032E+02 -6.58559E+03  6.39814E+02 -7.62061E+03  7.54629E+03 -7.08448E+03  7.11640E+03  5.17957E+03
 -2.15641E+03  1.17707E+03 -2.65786E+03  5.16351E+03 -2.25897E+03  3.63605E+03 -2.97427E+03 -1.16743E+03
 -5.59783E+03 -3.46003E+03 -3.21208E+03 -7.08941E+03  5.35354E+03 -6.02654E+03  3.91453E+03  3.10933E+02
  1.13725E+03 -4.32543E+02  4.12393E+02 -6.38548E+02 -1.16054E+02  4.64767E+01  1.92044E+03 -3.61444E+03
  1.67134E+03  3.27474E+03  4.44042E+03  9.90094E+02  2.72452E+03  4.10251E+03  2.78815E+03  6.41927E+03
 -1.04780E+03  4.17506E+03 -5.26604E+03  6.88010E+03 -8.60906E+03  1.15467E+03 -5.94260E+03  4.97514E+03
 -4.20143E+03 -3.11648E+03  9.16534E+02 -4.23393E+03  1.28806E+03  3.21388E+01  2.99751E+02 -4.41591E+03
  7.22676E-01 -4.41673E+03  1.93535E+02 -5.94798E+03 -2.12917E+02 -1.48366E+03  3.28565E+02 -8.48846E+03
  6.60755E+03 -1.52071E+03  2.83923E+03  3.78021E+03  1.98589E+03  2.58080E+03 -5.49618E+03  3.01372E+03
 -5.40809E+03 -3.41862E+02 -2.19729E+02 -4.55802E+03  3.83014E+03 -6.94565E+03  1.05900E+03 -5.07466E+03
  2.18273E+03 -4.91647E+03  9.37834E+03 -3.06496E+03  3.61070E+03  6.10051E+03 -2.27889E+03  3.97254E+03
 -1.64992E+03  7.12797E+02  2.11126E+01  2.40476E+02 -7.19955E+03  3.11312E+03  3.23049E+03 -3.92342E+03
 -4.46630E+03  9.01212E+00  6.21160E+02  1.52668E+03 -3.96202E+03  6.59033E+02 -5.19414E+03  3.22911E+02
 -2.64579E+03 -2.22396E+03  4.76503E+03 -7.25775E+03  2.96080E+03 -4.37481E+03  3.05161E+03 -1.24476E+03
  4.63374E+03  4.85384E+03  3.70550E+03  1.03301E+03  2.13567E+03  7.29732E+03 -3.83055E+03  3.03944E+03
 -4.77937E+03  1.66541E+03 -3.02059E+03  7.00977E+02 -5.59791E+03 -4.50133E+03 -5.62333E+02 -1.78168E+03
  3.40528E+03 -7.60582E+02  3.97698E+03  3.37154E+03  6.05772E+03 -1.89136E+02  1.41953E+03  2.31553E+03
  1.46170E+03  5.32786E+00 -4.14841E+03 -3.47171E+02  9.55919E+02  4.98381E+03  2.52191E+03  5.11530E+03
 -2.09957E+02  3.02426E+03 -5.81122E+03  3.79871E+03 -5.32616E+03  1.40405E+03 -2.61926E+03 -3.46086E+03
  1.31667E+03  1.64263E+03  2.83111E+03 -5.02925E+03  1.18527E+03  1.36709E+03  2.33572E+03  1.17902E+03
  1.65708E+03  3.02465E+03  3.85323E+03 -2.07294E+03 -4.51631E+03  1.23879E+03 -2.32116E+03 -9.21730E+02
  4.12483E+03 -2.12672E+03  2.05458E+03 -6.22223E+03 -1.64169E+03 -2.49389E+03  4.14868E+03 -5.04292E+03
 -1.48174E+03  5.93855E+02 -5.52642E+02  8.32417E+02 -2.34737E+03  3.59973E+02  3.54145E+03  3.27413E+03
 -1.66929E+03 -2.60401E+03  3.90053E+02 -1.14116E+03  3.32953E+02 -2.94728E+02 -2.70145E+03  4.58423E+03
  3.68879E+03 -1.94512E+03  5.63269E+02  1.74578E+03  3.65099E+02 -2.94964E+03 -3.31439E+03  2.35340E+03
 -1.43920E+02 -1.56937E+03 -1.24187E+03 -5.08950E+03  5.44785E+02  7.41333E+02 -2.23110E+03 -9.71138E+02
  6.60317E+02  2.56417E+03 -2.97110E+03  5.26830E+02  2.09298E+03 -3.90649E+03  1.65357E+03 -1.20306E+03
 -3.61120E+03 -6.47323E+01  2.36674E+03  1.56226E+02  3.94267E+03  8.36319E+02 -1.39652E+02  9.69037E+02
  2.13845E+03  2.46474E+03  9.91101E+02 -3.92874E+02  1.40589E+03 -1.86816E+03 -1.01482E+03 -1.20422E+03
  2.07129E+03  6.68988E+02  1.36500E+03  5.11032E+03 -3.29180E+03  2.05283E+03 -5.18557E+02  2.06917E+03
 -2.85055E+03  5.45425E+01  2.04728E+03 -1.25826E+03 -4.05730E+02  2.35141E+03 -9.01782E+02 -3.31532E+03
  9.09922E+02  3.86314E+03 -1.06641E+03  9.34288E+02 -1.27130E+03  2.79045E+03 -1.08353E+03  3.08621E+03
  1.54845E+03  6.09734E+02  5.10518E+02 -7.36017E+01 -4.22665E+02 -5.07274E+03  1.51024E+03 -1.02783E+03
  3.54597E+02  3.33949E+03 -2.94015E+03  1.14860E+03 -2.72664E+03  2.66837E+03 -3.16045E+03 -2.22512E+03
  2.58604E+03 -3.85239E+03 -7.39837E+02 -2.96995E+03 -1.02729E+03 -9.87859E+02  6.61920E+03 -4.85179E+03
 -3.92131E+03  5.03114E+02  3.84366E+03  1.93672E+03  5.52845E+02  3.30431E+03  2.02950E+03  1.29229E+03
 -3.31120E+03 -3.15521E+03 -2.28428E+02 -4.54582E+03  1.41155E+03  6.11571E+02 -6.15480E+02 -1.92164E+03
  3.64828E+01  6.94100E+02 -4.03996E+03 -3.74939E+02 -6.71496E+02 -1.34067E+03 -3.79800E+03 -1.69728E+03
  4.72755E+02  3.12932E+03 -1.17001E+03 -1.02319E+03  2.86650E+03 -1.57076E+03 -3.66149E+03  7.86400E+01
  4.02659E+03  2.43394E+03 -2.37533E+03  6.40391E+03  3.14163E+03 -1.00694E+03  1.88157E+03  8.76154E+02
  1.61191E+03 -3.00268E+03 -5.19763E+02  6.76301E+02  2.72276E+02 -8.40211E+02 -2.51128E+03  9.94909E+02
  1.51731E+03  4.03721E+03  1.22274E+03  9.29851E+02  3.14702E+03 -3.08735E+02 -8.89533E+02  4.13533E+02
  7.69411E+02  4.18185E+02 -7.94481E+02  2.71259E+03  1.78307E+03  3.23760E+03 -1.73390E+03 -9.86322E+02
  2.36139E+03 -1.55882E+03  1.12024E+03 -2.30783E+03 -2.54505E+02  1.81947E+03  1.46754E+01 -1.60168E+03
  1.93545E+03 -3.79894E+03  1.28457E+02 -7.64458E+02 -1.04927E+03  3.22304E+02  1.58915E+03  3.42893E+03
  7.98101E+02  1.75759E+02  1.33623E+03 -2.08568E+02 -2.05436E+03 -3.35688E+03  3.70288E+02  1.45721E+03
  9.63483E+02  2.91338E+02  1.90538E+02  1.38785E+02 -3.44791E+03  6.98665E+02 -3.63169E+03 -1.64252E+03
  3.88375E+03  2.06200E+01  2.64646E+03 -1.15080E+02  6.09280E+03  2.42888E+02  3.56536E+03 -1.04855E+03
 -1.66661E+03  5.64666E+02 -2.08025E+03  1.53841E+02 -7.58215E+02  1.86787E+03  2.25738E+03 -3.67503E+03
