 $NMID ID='MM_0lb_SNR50_8hz_g60_76.RAW', FMTDAT='(8E13.5)'
 TRAMP=1., VOLUME=1. $END
  3.14622E+05  4.80361E+01  3.43375E+05  2.57589E+05  8.60339E+04  3.43250E+05 -1.34843E+05  2.55477E+05
 -2.08960E+05  8.48717E+04 -1.10939E+05 -3.01374E+04  2.96388E+02 -5.28239E+04  5.62002E+04 -4.26134E+03
  3.61076E+04  5.18467E+04 -1.84405E+04  7.76385E+04 -5.82954E+04  6.01148E+04 -8.75740E+04  2.74035E+04
 -8.54477E+04 -6.53876E+03 -6.59766E+04 -4.60855E+04 -1.74294E+04 -7.43523E+04  2.76266E+04 -4.43705E+04
  4.14432E+04  5.33104E+03  2.41228E+04  5.10261E+04 -3.48803E+04  5.01812E+04 -6.79916E+04  1.67447E+03
 -6.06771E+04 -5.97327E+04 -9.67031E+03 -8.38471E+04  3.28367E+04 -5.79795E+04  5.56508E+04 -1.18697E+04
  4.64529E+04  7.88036E+03  3.43786E+04  2.49256E+04  1.91244E+04  4.02176E+04 -2.51535E+03  3.41502E+04
 -2.50095E+04  1.63613E+04 -2.50493E+04 -7.76476E+03  3.27325E+03 -1.13372E+04  2.75853E+04  1.14801E+04
  1.30678E+04  3.46414E+04 -3.26841E+04  3.88598E+04 -7.63140E+04  7.18949E+03 -5.86732E+04 -5.16158E+04
 -1.50015E+04 -7.24969E+04  4.64618E+04 -5.40296E+04  6.59746E+04 -2.02234E+03  3.84209E+04  3.68388E+04
 -6.08519E+03  3.81118E+04 -3.58619E+04  2.37292E+04 -4.30331E+04 -1.06438E+04 -1.35023E+04 -1.24231E+04
 -1.74336E+04 -1.47466E+04 -6.18872E+03 -2.20845E+04  1.18231E+04 -2.41927E+04  2.09133E+04 -9.35212E+03
  9.14733E+03  4.46969E+03 -7.63517E+03  7.23517E+03 -3.01534E+04 -8.24854E+03 -4.99397E+03 -4.33545E+04
  3.29382E+04 -4.91177E+04  5.50430E+04 -2.76431E+04  5.01846E+04  2.11164E+04  1.57962E+04  5.14069E+04
 -2.05853E+04  4.26974E+04 -3.16959E+04  9.39902E+02 -6.79534E+03 -3.30203E+04  1.98418E+04 -4.29310E+04
  5.42419E+04 -5.61337E+03  3.86253E+04  2.88215E+04  2.09055E+04  4.82801E+04 -1.10603E+04  5.44233E+04
 -3.31341E+04  4.47389E+04 -4.74372E+04  1.44566E+04 -4.93797E+04 -2.39557E+04 -2.89533E+04 -4.22449E+04
  1.22615E+04 -4.72500E+04  3.41011E+04 -1.89293E+04  3.17226E+04  1.21825E+04  1.00907E+04  1.91417E+04
 -1.58781E+04  1.25887E+04 -1.23828E+04 -9.48302E+03  9.70785E+03 -1.07308E+04  1.52460E+04  1.21082E+04
  1.63785E+04  2.08884E+04 -2.50260E+03  3.14126E+04 -2.87643E+04  1.10252E+04 -2.89796E+04 -2.83038E+03
 -2.96304E+04 -1.87282E+04 -1.51052E+04 -2.87413E+04  3.82684E+03 -2.58854E+04  1.51449E+04 -2.53127E+04
  3.62588E+04 -1.59117E+04  4.08911E+04  5.14267E+03  3.61252E+04  3.08346E+04  2.05188E+03  4.80448E+04
 -2.31353E+04  3.43607E+04 -3.29973E+04  1.65210E+04 -2.50103E+04 -7.02727E+03 -7.01307E+03 -9.37519E+03
  1.34557E+03  2.68753E+02 -9.13862E+03  6.90262E+03 -2.17436E+04  6.31956E+03 -2.97022E+04 -1.37625E+04
 -1.90445E+04 -2.76558E+04  4.68009E+03 -2.90706E+04  1.71692E+04 -1.78562E+04  2.04362E+04 -4.44069E+03
  1.37119E+04  1.51265E+04 -3.60088E+03  3.04244E+04 -1.92396E+04  1.32969E+04 -2.79501E+04 -4.91017E+03
 -2.15245E+04 -2.16475E+04 -9.67342E+02 -2.22527E+04  1.31058E+04 -1.85493E+04  2.81713E+04 -1.53718E+04
  2.38562E+04 -8.16485E+02  1.32288E+04  1.05887E+04  7.75409E+03  5.21957E+03  7.94277E+03 -4.57712E+03
  2.40369E+04  6.52801E+02  2.52114E+04  1.17961E+04  2.34366E+04  4.41982E+04 -3.24457E+03  4.76818E+04
 -2.79786E+04  3.42638E+04 -4.94235E+04  2.23476E+04 -4.93856E+04 -6.10782E+03 -4.82872E+04 -3.30929E+04
 -2.15844E+04 -4.20842E+04  1.68504E+04 -3.49313E+04  2.91942E+04 -1.82919E+04  3.27269E+04  1.34757E+04
  5.86936E+03  2.03307E+04 -1.05752E+04  1.50225E+04 -1.94139E+04 -1.40936E+02 -2.08253E+04 -1.03299E+04
 -3.18035E+03 -1.61454E+04  1.15065E+04 -1.49087E+04  6.82887E+03 -9.93305E+02  6.17927E+02  6.05920E+03
 -2.39332E+02 -2.30273E+03 -6.72441E+03 -9.35720E+03 -2.81964E+03 -1.48127E+04  1.73145E+04 -2.55071E+04
  2.58489E+04 -1.09121E+04  3.04769E+04  1.59446E+03  2.13078E+04  2.53862E+04  1.75119E+04  3.48978E+04
  8.93443E+02  3.47364E+04 -1.97801E+04  2.24568E+04 -2.28540E+04  2.75385E+03 -1.96795E+04 -1.05338E+04
 -1.20204E+04 -2.79258E+03 -1.00617E+04 -3.62611E+03 -3.19513E+03  6.44830E+03 -5.67297E+03  1.03575E+04
 -1.07592E+04 -1.66374E+03 -2.20664E+04 -1.10039E+04 -1.04513E+04 -2.23748E+04  5.77437E+03 -2.00601E+04
  1.05957E+04 -6.08986E+03  8.93235E+03  3.13317E+03 -6.01584E+02  5.00913E+03 -4.51788E+03  1.52548E+03
 -3.39643E+03 -3.69063E+03 -4.42395E+03 -1.50709E+04  1.43442E+04 -1.99736E+04  2.37142E+04 -1.27588E+04
  2.86668E+04 -1.07920E+03  1.65996E+04  1.85955E+04  1.93015E+03  2.36899E+04 -1.61805E+04  1.81422E+04
 -9.85751E+03  5.39869E+03 -1.05976E+04 -9.37300E+03  9.08287E+02 -7.37915E+03  5.33333E+03 -8.98085E+03
  2.50144E+03  9.10636E+03 -4.52918E+03  1.98829E+04 -6.15932E+03  1.59475E+04 -1.47410E+04  1.50126E+03
 -1.34172E+04 -9.63420E+03  1.14805E+03 -1.74054E+04  1.25669E+04 -6.18981E+03  9.88066E+03  5.19861E+03
  1.20506E+03  1.33820E+04 -9.04700E+03  9.86475E+03 -2.35319E+04  2.34882E+03 -1.38860E+04 -1.24118E+04
 -3.93033E+03 -1.23913E+04  5.83090E+03 -2.41576E+04  1.46320E+04 -1.92875E+04  2.29120E+04  1.11620E+03
  1.14534E+04  1.26744E+04 -8.00242E+03  1.44479E+04 -1.57100E+04  1.17512E+04 -1.48965E+04 -1.34688E+03
 -1.34896E+04 -1.18170E+04 -1.62434E+03 -2.55029E+04  1.28201E+03 -1.13464E+04  1.21564E+04 -4.76187E+03
  5.45641E+03  4.24554E+03 -5.74295E+02  9.48468E+03 -5.29413E+03  3.13358E+03  4.30051E+03 -1.31862E+04
  1.64269E+04 -7.69974E+03  1.65750E+04 -1.95127E+03  1.53988E+04  8.03507E+03  1.29925E+04  2.37193E+04
 -8.52165E+03  2.38571E+04 -2.23565E+04  2.54053E+04 -3.37086E+04  4.81544E+03 -2.64111E+04 -1.11317E+04
 -1.14363E+04 -1.87378E+04  4.52588E+03 -1.46598E+04  1.03720E+04 -1.04890E+04  1.89298E+04 -7.70525E+03
  3.38455E+03 -3.67009E+03 -1.77869E+03 -6.54896E+03  1.21415E+04 -1.37472E+02  1.60408E+04 -9.17243E+03
  9.61286E+03 -1.22317E+03  3.21339E+03  1.69139E+04 -3.37547E+03  7.32260E+03 -2.13294E+04  8.16525E+03
 -1.94139E+04 -4.91862E+03 -1.57333E+04 -1.10202E+04 -4.07091E+03 -2.08072E+04  6.65800E+03 -1.86729E+04
  2.15501E+04 -6.15969E+03  2.03013E+04  7.29463E+03  1.57510E+04  1.69146E+04 -3.20964E+03  2.40042E+04
  5.36947E+02  1.68372E+04 -1.69963E+04  5.23719E+03 -7.82225E+03  8.03867E+02 -1.40605E+03 -1.26766E+03
 -5.24641E+03  4.83368E+03 -3.70609E+03  2.48468E+03 -1.45247E+04  6.51124E+03 -1.35757E+04  8.09715E+02
 -1.02978E+04 -1.31347E+04 -9.36333E+02 -2.19911E+04  1.10376E+04 -1.07494E+04  1.58663E+04 -5.32094E+03
  1.50385E+04  6.06815E+03  1.01586E+04  1.34052E+04  2.90757E+03  1.53811E+04 -1.26094E+04  1.07217E+04
 -1.38637E+04  2.06890E+03 -1.75384E+04 -7.13450E+03 -2.34220E+03 -1.64470E+04  1.10664E+04 -1.31007E+04
  1.01790E+04 -6.38920E+02  7.08911E+03  1.09452E+03 -7.09092E+02  3.38844E+03  8.36037E+01  8.39189E+01
  4.84088E+03  5.13331E+03 -2.34004E+03  5.39336E+03 -1.50760E+03  3.42167E+03  4.04798E+03  7.44065E+03
  2.02210E+03  1.19447E+04 -1.58265E+04  1.45590E+04 -1.72054E+04  3.55574E+03 -2.23866E+04 -1.24880E+04
 -1.99069E+04 -2.28637E+04 -1.31995E+03 -1.92222E+04  1.31146E+04 -1.16217E+04  1.61437E+04  7.10196E+02
  7.56359E+03  1.06407E+04 -3.90511E+03  1.15992E+04 -5.57895E+03  2.56926E+03 -4.43942E+03  2.18809E+03
  4.29080E+02 -1.39144E+04  3.11916E+03 -9.67233E+03  8.41126E+03 -4.67804E+03  9.09426E+03  8.44299E+01
 -1.39170E+03 -1.61655E+03 -5.96827E+03  6.39771E+03 -7.19757E+03 -2.38772E+03  8.91608E+03 -1.20167E+04
  4.51934E+03 -7.19829E+03  1.08286E+04  3.62148E+03  8.99862E+03  1.13750E+04  2.82830E+03  1.34287E+04
 -6.32402E+03  8.43796E+03 -1.28817E+04  1.33587E+03 -1.03340E+04 -1.28730E+04 -7.93357E+03 -1.06342E+04
 -5.10865E+03 -3.10948E+03  4.77403E+03 -7.87588E+02  4.39374E+03  5.68683E+03  6.04265E+02  5.24033E+03
 -7.68462E+03  3.79091E+03 -5.69557E+03 -1.17870E+04 -1.80542E+03 -1.06059E+04  3.25803E+02 -1.63734E+04
  6.93967E+03 -4.97539E+03  9.30283E+03  4.07145E+03  5.23816E+03  8.69069E+03 -3.74877E+03  6.93825E+03
 -9.44517E+02  2.55137E+03 -5.08574E+03 -5.80827E+03 -1.40729E+03 -5.53423E+03  1.26080E+04 -5.79340E+03
  1.13127E+04 -1.16450E+03  1.18692E+04  1.04828E+04  9.38089E+03  1.44055E+04 -5.91403E+03  1.11806E+04
 -1.09906E+04 -1.39346E+03 -1.36701E+04 -7.03049E+03  8.92602E+02 -8.65312E+03  6.11192E+03 -1.99467E+04
  7.88482E+02 -5.46483E+03  2.33747E+03  4.23894E+03 -1.76485E+03  3.16849E+03  7.83823E+02  3.83210E+03
 -1.60214E+02  8.63667E+03 -2.94190E+03  2.81779E+03  1.38706E+02  3.76002E+03 -5.23223E+03 -3.79177E+03
 -2.66530E+03  6.99619E+03 -9.33474E+03  5.03285E+03 -1.82511E+04  2.70174E+03 -1.47167E+04 -1.23816E+04
 -8.41198E+03 -7.85946E+03  2.23896E+03 -2.18804E+04  8.49656E+03 -1.28209E+04  1.87339E+04 -1.22336E+04
  1.20800E+04  3.50447E+02  1.02119E+04  1.16639E+04 -4.52126E+03  9.84608E+03 -9.01069E+03  1.74190E+04
 -2.22006E+03  7.66463E+03 -1.81770E+03  2.17859E+02  3.46177E+03 -1.69298E+03 -4.65973E+03 -1.51315E+03
 -1.98520E+03 -2.64083E+03 -9.37923E+03 -3.31095E+03 -1.01840E+03 -3.08859E+02 -5.02250E+03 -8.48912E+03
  3.17549E+03 -6.19540E+03  1.25674E+04 -3.24729E+03  8.36698E+03  7.07968E+03  2.88496E+03  1.40848E+04
 -8.08221E+02  2.28618E+04 -1.59772E+04  1.17140E+04 -1.06649E+04 -2.48855E+02 -1.57701E+04 -1.22491E+03
 -4.85826E+03 -1.60744E+04  4.60034E+03 -9.89671E+03  3.13380E+03 -4.21576E+03  5.13165E+03  2.82109E+02
  7.84070E+03  1.04789E+03  3.00340E+03  3.62280E+03 -5.12041E+03  2.09362E+02  2.62639E+03  6.77774E+02
  7.43797E+03 -4.37411E+03  4.32878E+03  7.30463E+03  7.12332E+03  8.86930E+03  2.24542E+03  3.93180E+03
 -9.06446E+02  1.09303E+04 -5.81468E+03 -6.90532E+03 -1.50475E+04  5.31823E+02 -2.66921E+03 -7.01720E+03
  2.95836E+03 -1.50440E+03  1.71811E+04 -8.56361E+03  1.03352E+04  4.58768E+03  1.02987E+04  1.07565E+04
 -4.37468E+03  3.76863E+03 -2.68331E+03  1.47665E+04 -5.98325E+03  2.62399E+03 -5.07869E+03  4.06650E+03
 -5.27867E+03  9.03722E+02  1.53679E+02  4.37563E+02 -5.48764E+03  8.07595E+03 -7.63744E+03 -1.18729E+03
 -2.97820E+03 -8.07919E+03  1.63146E+03 -1.33623E+04  6.07369E+03 -2.75881E+03  1.17982E+04 -6.06336E+03
  4.67472E+03 -1.00122E+03  3.97318E+03  5.65619E+03 -6.30400E+02  7.83849E+03 -3.66337E+03  4.67394E+03
