 $NMID ID='MM_0lb_SNR50_7hz_g45_23.RAW', FMTDAT='(8E13.5)'
 TRAMP=1., VOLUME=1. $END
  3.12080E+05  3.75604E+03  3.29507E+05  2.52006E+05  8.16012E+04  3.33960E+05 -1.29126E+05  2.54867E+05
 -1.95921E+05  7.43979E+04 -1.08371E+05 -3.55221E+04  5.75500E+03 -4.97210E+04  5.16441E+04  1.88709E+03
  3.40840E+04  5.89052E+04 -1.92299E+04  7.66991E+04 -6.04443E+04  6.09431E+04 -8.92612E+04  3.68421E+04
 -8.01116E+04 -9.43447E+03 -4.67642E+04 -5.80588E+04 -1.69810E+04 -6.92850E+04  3.26510E+04 -4.49209E+04
  4.04254E+04  8.39116E+03  2.06821E+04  4.98563E+04 -3.97344E+04  4.70012E+04 -6.66680E+04  1.41279E+03
 -5.35059E+04 -6.10653E+04 -1.76200E+02 -8.09729E+04  3.13212E+04 -6.03534E+04  5.29843E+04 -1.97280E+04
  4.48742E+04  1.28732E+04  1.77770E+04  2.47521E+04  2.00160E+04  3.47853E+04 -1.03658E+04  3.09753E+04
 -3.06397E+04  1.43434E+04 -2.65800E+04  1.45741E+03  1.00291E+04 -7.05707E+03  2.85230E+04  1.33993E+04
  6.66904E+03  4.12583E+04 -2.68400E+04  2.53203E+04 -6.72528E+04  3.24893E+03 -5.43419E+04 -5.29538E+04
 -1.81248E+04 -7.10318E+04  4.81207E+04 -4.42706E+04  6.39993E+04 -1.10791E+04  3.80645E+04  3.30075E+04
 -5.50303E+03  2.87870E+04 -3.08561E+04  1.86057E+04 -3.25301E+04 -6.28439E+03 -1.57016E+04 -1.07301E+04
 -9.42624E+03 -1.88560E+04 -7.33387E+03 -1.74969E+04  1.21106E+04 -2.21980E+04  1.98273E+04 -8.27105E+03
  1.54219E+04  4.99974E+03 -1.47110E+04  9.63182E+03 -2.99694E+04 -8.41805E+03 -8.45053E+03 -3.55124E+04
  3.25168E+04 -4.11639E+04  5.93644E+04 -3.17196E+04  4.13037E+04  2.77997E+04  2.03057E+04  4.77344E+04
 -1.53858E+04  3.97947E+04 -2.85745E+04 -8.65839E+02 -1.85328E+04 -2.43680E+04  1.62676E+04 -3.83991E+04
  4.38394E+04 -1.99818E+04  5.44174E+04  2.45327E+04  2.17023E+04  5.77879E+04 -1.09097E+04  5.84507E+04
 -4.18838E+04  3.96212E+04 -4.72084E+04  1.31571E+04 -4.80052E+04 -1.70462E+04 -2.95784E+04 -4.72589E+04
  7.70089E+03 -4.70837E+04  3.23077E+04 -1.08741E+04  3.76044E+04  1.02907E+04  8.37716E+03  2.10082E+04
 -2.30134E+04  1.00655E+04 -1.03500E+04 -9.13381E+03  1.81963E+03 -7.24320E+03  2.02986E+04  4.18913E+03
  1.67698E+04  1.98420E+04 -6.68062E+03  3.34801E+04 -2.05180E+04  2.03205E+04 -3.04298E+04  1.36398E+03
 -3.08284E+04 -1.52435E+04 -8.86803E+03 -2.86111E+04  3.92945E+03 -3.09916E+04  2.41782E+04 -1.69983E+04
  3.26113E+04 -1.53846E+04  3.69916E+04  4.91503E+03  2.95855E+04  2.12760E+04 -1.88829E+03  4.05793E+04
 -1.78707E+04  4.35068E+04 -3.56946E+04  1.90579E+04 -1.62440E+04 -4.42260E+03  1.49594E+03 -1.73901E+04
 -2.23848E+03 -2.34386E+03 -1.41323E+04  1.43453E+04 -2.30453E+04  5.12338E+03 -1.81259E+04 -6.92089E+03
 -8.56751E+03 -2.53020E+04  8.93268E+03 -2.86737E+04  1.19225E+04 -2.68482E+04  2.58030E+04 -7.50164E+03
  1.68860E+04  2.01091E+04 -6.27381E+03  2.34005E+04 -1.34675E+04  1.00330E+04 -2.16805E+04 -9.57298E+03
 -1.34940E+04 -2.99407E+04 -7.10920E+03 -3.27487E+04  6.58126E+03 -2.81576E+04  2.21781E+04 -1.63984E+04
  2.04496E+04 -2.22198E+03  1.39992E+04  6.55413E+03  9.48534E+03 -1.07130E+03  1.83925E+04 -5.71140E+03
  2.86159E+04 -9.88645E+03  3.23172E+04  2.00878E+04  2.24696E+04  4.27184E+04  3.96320E+03  4.58542E+04
 -2.71729E+04  3.96620E+04 -5.30888E+04  2.98731E+04 -5.27285E+04 -3.67116E+03 -3.95588E+04 -2.97025E+04
 -1.72210E+04 -3.93068E+04  1.18745E+04 -3.73385E+04  3.29867E+04 -1.75443E+04  2.06652E+04  7.69174E+03
  4.63692E+03  2.83419E+04 -6.71934E+03  1.26048E+04 -2.58416E+04  2.95455E+03 -1.98662E+04 -1.55049E+04
  2.10961E+03 -1.60850E+04  1.23694E+04 -1.65722E+04  1.58324E+04  7.22330E+03  1.83347E+03  1.47817E+03
 -1.42853E+04  5.02720E+03 -1.53625E+04 -6.57884E+03  2.00491E+03 -1.77133E+04  4.66795E+03 -2.62980E+04
  1.73693E+04 -1.98614E+04  2.89832E+04  1.87503E+03  2.61063E+04  1.68603E+04  1.51695E+04  2.55881E+04
 -1.24630E+04  3.53315E+04 -1.44225E+04  2.47867E+04 -2.00248E+04  9.92504E+03 -2.00443E+04 -7.73101E+03
 -6.36158E+03 -5.94224E+03 -6.05872E+03  1.14674E+03  8.27714E+02  3.54245E+03 -1.37864E+04  4.87035E+03
 -1.71007E+04  5.17384E+03 -1.50713E+04 -1.41244E+04 -3.59009E+03 -2.49733E+04  4.67639E+03 -1.39165E+04
  1.56898E+04 -8.32895E+03  9.87050E+03  8.76784E+03 -9.13006E+02  1.14256E+04 -9.28460E+03  1.10734E+03
 -8.84615E+03 -1.12462E+04  2.36002E+02 -2.10005E+04  1.27836E+04 -1.41133E+04  2.16657E+04 -1.25417E+04
  2.57863E+04  3.77043E+03  1.78419E+04  1.59307E+04  8.46994E+03  1.76563E+04 -9.45030E+03  1.69458E+04
 -1.36017E+04  8.31662E+03 -9.96414E+03 -5.78348E+03 -2.20154E+03 -6.95320E+03  9.87520E+02 -6.29441E+02
  8.57190E+03  6.44641E+03 -3.55951E+03  1.18258E+04 -1.08458E+04  7.55766E+03 -1.79018E+04  2.18970E+03
 -1.17546E+04 -3.20894E+03 -2.28013E+03 -2.00571E+04  1.59179E+04  3.57911E+02  8.03362E+03 -9.31120E+02
  7.69536E+03  8.50934E+03 -6.73731E+03  1.26311E+04 -1.84252E+04  8.28079E+03 -1.11991E+04 -9.16486E+03
 -9.71961E+03 -2.04368E+04  6.05782E+03 -1.96625E+04  1.33082E+04 -7.21967E+03  2.10702E+04  5.36021E+02
  2.02434E+04  1.34837E+04 -1.49951E+03  2.03499E+04 -1.70958E+04  5.58311E+03 -1.78000E+04 -9.99834E+02
 -1.25083E+04 -4.54400E+02 -4.98395E+03 -1.76346E+04  5.33694E+03 -1.09672E+04  9.70532E+02  6.42632E+03
 -7.79775E+02  3.44140E+03 -4.44210E+03  9.69678E+02 -8.56014E+03 -1.86346E+03  2.51384E+03 -8.74252E+03
  1.48864E+04 -1.05609E+04  2.83722E+04 -2.09805E+03  1.72033E+04  1.25143E+04  8.65462E+03  3.15788E+04
 -8.28353E+03  2.72953E+04 -1.66529E+04  1.91437E+04 -3.08432E+04  3.21161E+03 -2.49231E+04 -1.24911E+04
 -9.18261E+03 -2.17651E+04 -7.59952E+02 -1.58949E+04  1.14137E+04 -9.38783E+03  8.82169E+03 -6.97386E+03
  5.70434E+03 -6.14974E+03 -2.40810E+03 -1.65621E+03  4.93164E+03 -3.34116E+03  1.08142E+04 -4.01226E+03
  1.57629E+04 -2.06315E+03  4.46609E+03  1.32390E+04 -4.75851E+03  7.46102E+03 -1.57318E+04  5.47213E+03
 -2.09155E+04  5.51332E+03 -1.29949E+04 -1.15819E+04 -5.97134E+03 -2.17388E+04  1.13823E+04 -2.59421E+04
  1.88924E+04 -1.03641E+04  2.26547E+04 -4.23732E+03  3.67211E+03  1.69608E+04  2.41461E+03  1.62546E+04
 -3.44752E+03  1.17234E+04 -1.44266E+04  3.31913E+03 -9.77502E+03 -7.89107E+02 -2.67299E+03  1.00845E+03
 -9.67613E+03 -3.49128E+02 -8.30547E+03 -1.54012E+03 -8.15723E+03  7.51208E+03 -1.01986E+04  1.25473E+03
 -7.49786E+03 -1.73782E+04  6.05032E+02 -1.65792E+04  1.44616E+04 -1.65273E+04  1.68215E+04 -4.81410E+03
  2.20460E+04  9.54666E+03  1.30885E+04  1.96582E+04 -3.87306E+02  1.73447E+04 -1.42997E+04  1.25977E+04
 -1.63717E+04 -4.29419E+03 -1.18661E+04 -1.55317E+04 -4.28942E+03 -1.15261E+04  4.10314E+03 -1.66699E+04
  1.71689E+04 -2.83750E+03  1.16032E+04  2.48231E+03  6.38210E+03 -2.81166E+02  1.78201E+03  5.43905E+03
 -1.96007E+03  5.71223E+03  9.39021E+02 -1.74502E+03  6.26566E+03  8.92224E+03  1.55251E+03  1.71846E+04
 -6.80964E+03  1.30973E+04 -1.42073E+04  2.63194E+04 -1.79432E+04  3.81474E+03 -2.15946E+04 -8.84876E+03
 -7.75305E+03 -2.31628E+04 -2.10789E+03 -1.29009E+04  1.71891E+04 -1.58551E+04  1.64398E+04 -6.80301E+03
  1.55568E+04  2.30785E+03 -4.11472E+03  1.16553E+04 -1.23744E+04  1.41977E+04 -8.35467E+03  5.24795E+03
 -3.94061E+03 -1.01679E+04 -3.31305E+02 -5.77489E+03  1.31604E+03  1.38059E+03  9.00627E+03  1.23755E+03
  2.46876E+03 -5.25434E+03  7.63048E+02  4.05586E+03  2.93022E+03  2.58647E+03  2.85435E+03  8.25566E+03
  1.10665E+04 -3.08387E+03  7.27605E+03 -1.65863E+03  3.41788E+03  8.67592E+03 -8.77764E+02  2.62766E+04
 -1.16903E+04  1.31839E+04 -1.38852E+04 -4.94591E+03 -1.28078E+04 -9.07010E+03  2.38894E+03 -1.12777E+04
  1.95406E+03 -9.45066E+03  4.69964E+03 -1.11601E+03  2.25670E+03  2.16898E+03 -7.46138E+03  7.35064E+03
 -8.62526E+03  6.53512E+03 -1.21984E+04 -6.41433E+03 -9.00763E+03 -1.43651E+04 -2.43812E+03 -1.15825E+04
  7.48842E+03 -4.30327E+03  1.48638E+04  4.27935E+03  1.24783E+04  4.00980E+03  6.32180E+02  6.20129E+03
 -2.26096E+03 -4.77926E+03 -9.27202E+02 -8.87521E+03  2.42046E+03 -3.59421E+03  1.10921E+04 -1.11451E+04
  1.47064E+04 -3.07115E+03  1.19716E+04  4.10170E+03  3.34377E+03  1.53330E+04 -3.43933E+03  1.37665E+04
 -1.29694E+04  9.91389E+03 -1.63097E+04 -7.02859E+03 -5.54839E+03 -6.67002E+03 -1.45712E+02 -1.06204E+04
  9.94399E+03 -1.13786E+04  1.33629E+04  9.40258E+03  4.00333E+03  6.50324E+03  8.69033E+02  8.31332E+03
 -6.41898E+03  7.06737E+03 -7.92774E+03 -1.92836E+03 -1.46949E+03  4.17277E+03  3.66690E+03  3.64455E+03
 -1.48321E+03  6.64287E+03 -1.32244E+04 -1.64534E+03 -7.31002E+03  3.09854E+03 -1.35936E+04 -1.35838E+04
 -7.67876E+03 -1.28924E+04  3.32415E+03 -1.54413E+04  6.13304E+03 -1.63900E+04  2.03418E+04 -5.37528E+03
  1.68677E+04 -1.30197E+03  1.63192E+04  8.93279E+03  1.25222E+02  7.83596E+03 -2.42934E+03  5.49895E+03
 -5.63674E+03 -2.94549E+03 -1.45677E+04  6.99226E+02 -6.45938E+03  1.75958E+03 -4.64139E+03  3.73720E+03
 -1.73532E+03 -7.02371E+02 -1.05979E+04  3.88165E+03  3.23947E+03 -1.20117E+04  3.99396E+03 -6.35498E+03
  7.35608E+03  1.77594E+03  1.22662E+04 -5.08559E+03  1.15023E+04  1.46316E+04  1.07939E+04  1.41046E+04
 -6.36491E+03  1.78795E+04 -1.19647E+04  6.63939E+03 -1.98184E+04 -3.71058E+02 -1.47621E+04 -9.70134E+03
 -1.33343E+03 -1.87623E+04  2.39763E+03 -6.31466E+03  1.23140E+04 -5.37226E+03  5.07074E+03  4.80910E+02
  1.00749E+04  4.00801E+03 -2.57442E+03  2.41521E+03 -3.09536E+03 -1.39630E+03  2.63099E+03 -9.38465E+03
  5.90717E+03 -7.91713E+02  2.47824E+03 -9.06124E+03  5.57797E+03  4.36275E+03  2.69208E+03  1.18053E+04
 -1.12365E+03  4.55862E+03 -7.20749E+03  6.74185E+03 -1.43977E+04 -6.28598E+03  1.61239E+03 -1.61980E+04
  4.81453E+03 -1.01127E+04  1.15978E+04 -4.36571E+02  5.81217E+03 -1.62666E+02  1.07196E+04  9.95947E+03
  4.73313E+03  6.10945E+03 -6.22363E+03  2.68863E+03 -4.25381E+02  6.27401E+03 -8.83345E+03 -3.49843E+02
  1.90824E+03  2.09684E+03 -4.88780E+02 -1.64754E+02 -4.16509E+03  5.37520E+03 -5.77884E+03 -5.84440E+03
  4.49125E+03 -5.49333E+02  1.13405E+03 -1.29557E+04  2.28648E+03 -8.57551E+03  1.05263E+04 -5.47400E+03
  1.85425E+04  5.07916E+03  9.30995E+03  5.44407E+03 -4.19047E+03  1.17962E+04 -1.13343E+04  6.89910E+03
