 $NMID ID='MM_0lb_SNR50_10hz_g45_80.RAW', FMTDAT='(8E13.5)'
 TRAMP=1., VOLUME=1. $END
  3.06586E+05 -3.85042E+02  3.38356E+05  2.51375E+05  8.32308E+04  3.39100E+05 -1.36169E+05  2.51232E+05
 -1.88238E+05  8.46750E+04 -1.13619E+05 -3.41569E+04  1.81104E+02 -5.42216E+04  5.38283E+04  6.68066E+03
  3.28057E+04  5.59456E+04 -1.84917E+04  7.70505E+04 -6.54495E+04  6.80384E+04 -8.07896E+04  3.50116E+04
 -8.72276E+04 -1.09512E+04 -6.20646E+04 -5.40098E+04 -2.09762E+04 -7.16004E+04  2.33742E+04 -4.73252E+04
  4.35432E+04  6.76382E+03  1.42188E+04  4.99826E+04 -2.63792E+04  4.29804E+04 -6.50197E+04  1.73404E+03
 -6.09471E+04 -5.48110E+04 -4.74674E+03 -7.84671E+04  3.73473E+04 -5.44149E+04  5.12096E+04 -2.00231E+04
  4.18185E+04  1.76380E+04  3.40748E+04  2.85365E+04  2.00628E+04  3.03374E+04 -1.49243E+03  2.52842E+04
 -2.44301E+04  9.54270E+03 -1.65073E+04 -4.69741E+03  5.80502E+03 -2.88849E+03  1.94366E+04  1.35534E+04
  1.29929E+04  3.13379E+04 -3.47682E+04  3.94576E+04 -6.44343E+04  6.27129E+03 -5.32231E+04 -4.66830E+04
 -1.26220E+04 -6.18495E+04  3.53291E+04 -4.67807E+04  6.25709E+04 -1.00700E+03  3.53897E+04  3.17531E+04
 -9.16847E+03  3.83717E+04 -3.48755E+04  2.12634E+04 -3.04835E+04  9.39999E+02 -1.94357E+04 -1.37380E+04
 -1.01328E+04 -1.70325E+04  8.23999E+02 -1.57378E+04  4.31666E+03 -2.12599E+04  1.14992E+04 -1.72757E+04
  9.98477E+03  4.55789E+03 -1.36948E+04  1.03542E+04 -2.50840E+04 -5.27557E+03 -6.57191E+03 -3.34666E+04
  2.07984E+04 -4.25950E+04  5.07511E+04 -2.06837E+04  5.07024E+04  2.22053E+04  1.35400E+04  5.07242E+04
 -2.04976E+04  2.73835E+04 -2.78999E+04  2.83698E+03 -1.07497E+04 -2.53496E+04  2.30865E+04 -3.50281E+04
  4.56668E+04 -6.89922E+03  3.61267E+04  2.46014E+04  2.03229E+04  4.40431E+04 -1.03532E+04  4.96097E+04
 -2.89876E+04  3.74661E+04 -4.94331E+04  1.26422E+04 -5.27814E+04 -1.41384E+04 -2.88055E+04 -4.07701E+04
  1.03755E+04 -3.66510E+04  2.74296E+04 -1.44308E+04  3.10266E+04  6.76703E+03  4.67188E+03  1.94953E+04
 -1.45119E+04  5.91116E+03 -1.37212E+04 -8.94113E+03  5.42946E+03 -9.87063E+03  1.81670E+04  8.57061E+03
  1.45861E+04  2.07317E+04 -4.83826E+03  2.77937E+04 -2.68896E+04  1.04109E+04 -3.92946E+04 -2.10666E+03
 -2.47331E+04 -2.21862E+04 -1.39461E+04 -1.83764E+04  7.24416E+03 -2.36159E+04  1.88269E+04 -2.45728E+04
  3.57296E+04 -1.30724E+04  4.03763E+04  6.07827E+03  3.28649E+04  2.19236E+04  9.05302E+03  4.12120E+04
 -2.04631E+04  2.96074E+04 -2.14301E+04  1.33394E+04 -1.74585E+04 -8.38651E+03 -7.31831E+03 -1.51940E+04
 -3.40085E+01 -4.38349E+03 -7.89862E+03  1.02840E+04 -1.76033E+04  1.56906E+03 -1.92943E+04 -1.00689E+04
 -1.48258E+04 -2.54939E+04  8.94820E+03 -3.26779E+04  1.20570E+04 -1.75129E+04  2.39330E+04 -2.58342E+03
  1.26486E+04  1.33859E+04 -2.07516E+03  2.17341E+04 -1.80638E+04  1.43832E+04 -2.41983E+04 -5.90715E+03
 -1.08050E+04 -2.03893E+04 -7.51187E+03 -2.54649E+04  1.39980E+04 -2.53111E+04  2.00008E+04 -6.88350E+03
  1.76709E+04 -8.23028E+02  1.10281E+04 -2.23950E+03  8.69952E+03  2.15032E+03  7.00961E+03 -2.87638E+03
  2.01374E+04  5.57032E+03  2.23076E+04  1.73166E+04  1.19080E+04  3.11256E+04 -4.07763E+03  4.04934E+04
 -2.76825E+04  3.45306E+04 -4.19401E+04  2.40266E+04 -4.71847E+04  1.26318E+03 -3.09226E+04 -2.09013E+04
 -1.11933E+04 -3.72084E+04  1.10600E+04 -3.03091E+04  2.91820E+04 -1.57403E+04  2.68424E+04  1.00702E+04
  8.09480E+03  1.25471E+04 -6.25782E+03  1.26992E+04 -1.99333E+04  9.25972E+03 -1.68239E+04 -1.49425E+04
 -3.12574E+03 -1.63217E+04  1.02221E+04 -9.94897E+03  9.23277E+03 -5.97344E+03  7.71923E+03  5.82136E+03
 -7.51490E+03  1.37980E+03 -1.03305E+04 -1.25495E+04 -6.64013E+02 -1.26427E+04  7.74057E+03 -1.63059E+04
  2.16384E+04 -8.95638E+03  2.62764E+04  4.11098E+03  1.50139E+04  1.68431E+04  8.38933E+03  2.82326E+04
 -1.15035E+04  3.01514E+04 -1.45709E+04  2.02088E+04 -2.46740E+04  4.20179E+03 -1.00703E+04 -9.13279E+03
 -8.44310E+03 -1.13522E+04 -5.88949E+02 -2.29708E+03 -5.69877E+03  6.76335E+03 -6.58322E+03  1.18534E+03
 -1.38786E+04  1.92678E+03 -1.36844E+04 -9.75099E+03 -2.49541E+03 -1.56586E+04  8.20137E+03 -1.78907E+04
  1.16037E+04 -4.92689E+03  9.54248E+03 -1.54382E+02 -1.30488E+03  6.85931E+03 -5.45230E+03 -1.21546E+03
 -4.78930E+03 -1.14086E+04 -1.17792E+04 -1.41634E+04  9.27511E+03 -1.39843E+04  2.00025E+04 -1.03231E+04
  1.89339E+04  5.57377E+03  1.49230E+04  1.62540E+04  2.21573E+03  1.77378E+04 -1.67188E+04  1.69313E+04
 -1.50907E+04  6.17061E+03 -9.34343E+03 -1.73552E+03  5.69375E+03 -5.23380E+03  1.38711E+04 -3.60153E+03
  8.66942E+03  1.02180E+04  1.50997E+03  8.23468E+03 -6.24796E+03  7.85429E+03 -1.05778E+04  7.04080E+03
 -1.59380E+04 -8.85159E+03 -2.65168E+03 -1.75644E+03  6.81876E+03 -8.49863E+03  8.32355E+03  7.60044E+03
 -9.69376E+02  8.66007E+03 -9.11981E+03  1.13605E+04 -1.25413E+04  8.21523E+03 -1.05456E+04 -9.54121E+03
 -4.48837E+03 -1.40917E+04 -2.71945E+02 -1.59314E+04  1.26669E+04 -1.24763E+04  2.01354E+04  2.48952E+03
  6.57698E+03  1.31658E+04 -7.65418E+03  1.19692E+04 -1.31478E+04  8.37695E+03 -1.16479E+04 -3.54533E+03
 -1.13749E+04 -1.49062E+04  1.53491E+03 -1.07462E+04  5.28153E+03 -4.75784E+03  3.73047E+03 -3.00698E+03
 -2.76967E+03 -5.14479E+03 -2.61520E+03  1.08103E+04  1.51145E+03 -3.94105E+03  3.37263E+03 -4.18269E+03
  1.33754E+04 -4.80040E+03  1.31865E+04  2.46713E+03  1.43994E+04  7.81075E+03  1.30930E+04  2.08822E+04
 -5.79519E+02  1.97410E+04 -1.57151E+04  1.43044E+04 -2.15022E+04  3.47091E+03 -1.85520E+04 -2.65714E+03
 -5.75340E+03 -1.66634E+04 -6.14042E+02 -6.04617E+03  2.57850E+03 -6.07643E+03  7.75407E+03 -3.90065E+03
  3.18251E+03 -3.36068E+03  5.49009E+03 -8.21079E+02  9.23257E+03  2.47315E+03  2.87178E+03 -1.67890E+03
  1.23034E+04  2.74905E+03  5.99368E+03  9.10201E+03  3.21447E+03  6.97559E+03 -1.42467E+04  1.22030E+04
 -9.27909E+03 -1.64426E+03 -8.19964E+03 -9.65332E+03 -3.52554E+03 -1.45334E+04  1.16087E+04 -1.89437E+04
  1.22109E+04 -6.89988E+03  1.92649E+04 -5.39289E+03  1.13024E+04  1.42188E+04  3.23687E+03  1.59108E+04
 -5.20420E+03  6.20238E+03 -6.59203E+03  7.84198E+03  5.94719E+02 -2.77943E+03 -4.25437E+03 -4.17748E+03
  3.39761E+02 -3.79572E+03 -5.44394E+03  3.89460E+03 -1.11178E+04  6.91517E+03 -1.31533E+04 -4.11514E+02
 -4.83547E+03 -1.09726E+04  7.26221E+03 -1.50732E+04  6.31157E+03 -1.63704E+04  1.33045E+04 -2.49095E+03
  1.01846E+04  1.03079E+04  3.83279E+03  1.09965E+04 -7.63292E+03  1.32480E+04 -5.51098E+03  8.44595E+03
 -4.82296E+03  1.02176E+03 -1.13309E+04 -9.69499E+03 -3.97606E+03 -1.11869E+04  7.84743E+03 -6.27210E+03
  7.59465E+03 -2.29482E+03  4.74669E+03  3.94335E+03 -3.33159E+03  5.05942E+02  8.90660E+02  3.65647E+03
 -2.09575E+03  3.54786E+03  5.42740E+03  5.36839E+03  3.83148E+03  2.59624E+03  5.37958E+03  7.67811E+03
  3.06128E+01  1.45301E+04 -6.51687E+03  1.21053E+04 -7.39609E+03  2.28354E+03 -1.68500E+04 -7.53485E+03
 -5.54693E+03 -1.56956E+04  1.62654E+03 -1.05791E+04  6.54687E+03 -8.53675E+03  1.09656E+04  3.41797E+03
  5.57323E+03  4.34333E+03  2.94689E+03  7.57763E+03  1.49123E+03  9.27230E+03  1.45714E+03  1.39658E+03
 -5.76403E+03 -1.10704E+04  5.60423E+03 -8.38637E+03  8.58593E+02  2.71937E+02  5.72921E+03  1.80773E+03
  5.40730E+03 -2.15619E+03 -5.13506E+03 -7.87988E+02  1.72043E+03  3.11522E+03  6.20190E+03  9.73236E+01
  3.00197E+03 -2.46730E+02  9.04467E+03  4.75605E+03  4.96943E+02  6.48305E+03  4.78662E+01  1.04111E+04
 -3.16826E+03  1.26274E+03 -6.24312E+03  4.07186E+03 -8.46739E+03  1.41166E+03 -8.19576E+03 -2.18077E+03
  2.58769E+03 -7.96666E+03  3.51848E+03  1.15341E+03  7.85236E+02  2.70367E+02 -1.83775E+03  5.83661E+03
 -7.22134E+03  1.30670E+03 -6.36492E+03 -3.30683E+03 -4.74561E+03 -4.92190E+03 -5.34858E+02 -1.15716E+04
  4.80159E+03 -4.06687E+03  2.29930E+03 -4.65972E+03 -2.13976E+03 -7.39415E+02 -3.06929E+03  3.70127E+03
 -7.43980E+03 -2.27384E+03 -8.78581E+03  3.15996E+02  6.41621E+03 -3.70593E+03 -7.87027E+01 -7.83923E+03
  2.18127E+03 -9.85528E+03  6.09007E+03  2.82397E+03  3.13265E+03  9.16006E+03 -3.19232E+03  5.76477E+03
 -8.76370E+03  4.29425E+03 -1.01328E+04 -4.12413E+03  2.08043E+03 -4.28856E+03 -5.44956E+03 -2.53472E+03
  7.73326E+03 -2.94840E+03  4.97239E+03  1.90181E+03  1.95179E+02  9.96794E+02  4.20250E+03  7.13096E+03
 -5.04560E+03 -6.01436E+02  3.31111E+01 -2.73375E+03  2.32078E+03  4.66522E+03  3.09858E+02  1.52552E+03
  3.36554E+02 -1.66542E+03 -6.76170E+03 -6.31113E+02 -1.19016E+04  1.89982E+03 -1.07554E+04 -4.69463E+03
 -2.04179E+03 -9.52144E+03  8.73468E+02 -1.21860E+04  1.12313E+04 -1.14649E+04  1.40286E+04 -1.66468E+03
  7.21430E+03  5.53819E+03  6.85028E+03  1.18987E+04  1.68808E+03  9.94424E+03 -2.31659E+03  5.71566E+03
 -4.43430E+03  2.62108E+03 -5.85947E+03 -1.26304E+03  1.58915E+03  8.05910E+02 -1.40148E+03 -4.59348E+03
  6.55133E+03  4.18460E+03 -9.48411E+03  2.55171E+03  1.28151E+02  1.93780E+03  2.53273E+03 -2.13160E+03
  3.48898E+03 -1.16174E+03  8.59898E+03  4.68037E+03  5.16591E+03 -1.01141E+03  6.46416E+02  1.02153E+04
 -4.60178E+03  1.71670E+04 -1.00616E+04  1.33659E+03 -1.18608E+04  1.43200E+03 -1.00058E+04 -2.04422E+03
 -5.31467E+03 -9.11222E+03  2.48660E+03 -6.17674E+03  5.97026E+03 -7.03117E+03  3.11441E+03  9.79204E+03
  3.57964E+03  3.80341E+03  7.83265E+01  2.51536E+03 -6.96089E+03  9.03456E+01  1.59837E+03  5.20694E+03
 -4.76660E+03 -1.23193E+03  8.60470E+03  3.74344E+03 -1.42126E+03  9.95385E+02  3.08155E+03  5.51326E+03
 -5.76070E+03  5.32979E+03 -5.28447E+03  1.38373E+03 -1.34334E+03 -2.08435E+03 -1.87594E+03 -1.13182E+04
  1.21633E+04 -5.42532E+02  7.24081E+03 -7.88021E+02  1.24627E+04  5.10285E+01  3.48205E+03  4.74236E+03
  3.23642E+03  5.86889E+03 -2.59800E+03  4.45829E+03 -3.47611E+03  2.66888E+03 -2.77963E+02 -6.60843E+02
 -2.36676E+03 -1.12513E+03  4.53423E+02 -3.17006E+03 -4.58827E+03 -1.59169E+03 -6.77731E+03 -1.75882E+03
 -3.36156E+03 -2.10091E+03 -1.67504E+03 -8.91148E+03  1.84983E+03 -7.35199E+03 -2.38226E+03  4.94475E+03
  3.83555E+03  3.09461E+03  7.25179E+03  2.98772E+03 -1.07960E+03  9.81925E+03 -4.47785E+03 -2.12657E+02
