 $NMID ID='MM_0lb_SNR50_10hz_g60_67.RAW', FMTDAT='(8E13.5)'
 TRAMP=1., VOLUME=1. $END
  3.11359E+05 -2.94661E+03  3.35304E+05  2.53811E+05  8.04047E+04  3.36804E+05 -1.31963E+05  2.52357E+05
 -1.92943E+05  8.57067E+04 -1.18435E+05 -2.94103E+04 -3.93951E+03 -5.07110E+04  5.48344E+04  1.96304E+02
  3.12832E+04  5.02703E+04 -1.51818E+04  7.93977E+04 -6.47242E+04  6.62176E+04 -8.22646E+04  3.51532E+04
 -8.87348E+04 -1.18048E+04 -5.17636E+04 -5.87089E+04 -1.88276E+04 -6.85948E+04  2.00438E+04 -5.21474E+04
  3.58127E+04  3.43861E+03  9.84774E+03  4.81434E+04 -3.28226E+04  4.65594E+04 -6.81344E+04 -3.03659E+03
 -4.96834E+04 -5.64072E+04 -6.60957E+03 -7.58004E+04  3.83638E+04 -5.95094E+04  4.78248E+04 -2.08614E+04
  4.90777E+04  1.34774E+04  3.42517E+04  2.69205E+04  1.37330E+04  2.37349E+04 -9.14816E+03  3.09063E+04
 -2.30217E+04  1.16569E+04 -1.71323E+04 -3.67705E+03  1.11393E+04 -9.02021E+03  2.38398E+04  1.26186E+04
  8.29629E+03  3.10280E+04 -3.64436E+04  3.40877E+04 -6.30063E+04  2.24762E+01 -5.32285E+04 -4.62318E+04
 -1.35301E+04 -6.71805E+04  4.49865E+04 -4.61236E+04  5.97011E+04 -2.76257E+03  3.37433E+04  3.37485E+04
 -6.00026E+03  3.75242E+04 -2.78977E+04  1.99375E+04 -3.50091E+04 -4.32659E+03 -1.65757E+04 -1.54722E+04
 -8.82797E+03 -1.39382E+04  1.06262E+03 -1.78469E+04  4.31491E+03 -2.76698E+04  2.09722E+04 -1.01147E+04
  1.56950E+04  7.37714E+03 -1.22603E+04  1.08217E+04 -2.58195E+04 -6.38099E+03 -1.88088E+03 -3.60663E+04
  2.19571E+04 -4.59050E+04  5.19788E+04 -2.46415E+04  4.98572E+04  2.08593E+04  1.75585E+04  4.33262E+04
 -1.24151E+04  4.12305E+04 -2.95910E+04  4.64221E+03 -2.30727E+04 -2.91302E+04  1.74295E+04 -3.86909E+04
  4.79601E+04 -1.39024E+04  3.51680E+04  2.93238E+04  2.26501E+04  5.54462E+04 -1.18157E+04  5.41498E+04
 -3.88825E+04  3.57782E+04 -4.85179E+04  1.10962E+04 -4.96167E+04 -2.08752E+04 -2.37053E+04 -3.90136E+04
  2.31125E+03 -4.66661E+04  3.73529E+04 -1.51904E+04  2.88958E+04  9.87112E+03  4.16084E+03  2.46849E+04
 -1.80638E+04  1.44094E+04 -9.23485E+03 -9.97639E+03  1.74099E+03 -1.37324E+04  1.63822E+04  9.04885E+03
  1.59652E+04  2.34104E+04 -7.31983E+03  3.18242E+04 -2.57567E+04  1.96271E+04 -2.42218E+04 -1.41396E+03
 -2.65182E+04 -2.13138E+04 -1.43260E+04 -2.70282E+04 -1.51213E+02 -2.38519E+04  2.10422E+04 -1.99224E+04
  3.48862E+04 -1.54477E+04  3.62572E+04  5.48794E+03  2.13007E+04  2.74746E+04  3.59719E+03  4.33040E+04
 -1.56670E+04  4.02948E+04 -3.30447E+04  1.02446E+04 -2.48084E+04 -4.45510E+03 -4.17894E+03 -1.20735E+04
  1.71027E+03 -2.95206E+03 -2.76993E+03  5.38408E+03 -1.80142E+04  5.86929E+03 -2.08265E+04 -1.11603E+04
 -8.71110E+03 -2.63050E+04  4.04527E+03 -3.10170E+04  1.94992E+04 -2.57030E+04  2.53785E+04 -3.45855E+03
  1.40272E+04  1.77560E+04 -1.62961E+03  2.08670E+04 -1.16435E+04  1.08338E+04 -2.00723E+04 -6.32273E+03
 -1.73315E+04 -2.36756E+04 -3.32494E+03 -2.84259E+04  5.69929E+03 -2.90488E+04  2.57519E+04 -1.12114E+04
  1.96439E+04 -3.42406E+03  1.97366E+04  1.67232E+03  7.52139E+03  2.01560E+03  1.97858E+04 -3.16771E+03
  1.59892E+04 -3.13180E+03  2.44966E+04  1.93452E+04  2.11699E+04  3.57769E+04 -2.75316E+03  4.85468E+04
 -2.66356E+04  4.22753E+04 -4.07756E+04  1.90166E+04 -4.38074E+04 -6.82011E+03 -4.12388E+04 -2.94769E+04
 -1.22371E+04 -3.90330E+04  1.67865E+04 -2.99018E+04  2.91472E+04 -1.60718E+04  2.31757E+04  4.43919E+03
  6.37274E+03  1.53080E+04 -1.08208E+04  1.68830E+04 -2.49540E+04  8.94298E+03 -1.55018E+04 -7.58836E+03
  4.29286E+02 -1.87386E+04  1.79149E+04 -1.39657E+04  1.97108E+04  3.67520E+03  2.04278E+03  6.97152E+03
 -7.56561E+03  1.03327E+03 -1.36748E+04  1.92456E+03 -5.44699E+03 -2.70129E+04  1.55642E+04 -1.98665E+04
  2.65060E+04 -5.41143E+03  3.06774E+04  5.39833E+03  2.46468E+04  1.11427E+04  1.05594E+04  3.00581E+04
 -4.30011E+02  3.67140E+04 -1.92566E+04  1.61657E+04 -2.11165E+04  8.14562E+03 -1.47260E+04 -9.16824E+03
 -8.04277E+03 -9.10498E+03  6.26743E+02 -2.24712E+02 -3.61868E+03  7.46940E+03 -3.71024E+03  1.65653E+04
 -1.39934E+04 -9.18076E+03 -1.52344E+04 -1.45300E+04 -7.78411E+03 -1.71113E+04  1.18223E+04 -1.40597E+04
  2.04488E+04 -4.67447E+03  6.12343E+03  3.47991E+03 -1.89716E+03  1.05398E+04 -5.49292E+03 -2.20553E+03
 -1.29782E+04 -5.37174E+03  1.37246E+03 -1.81750E+04  9.33147E+03 -1.07751E+04  1.84292E+04 -2.02362E+03
  2.07139E+04 -5.62521E+03  1.59796E+04  1.44360E+04  9.90097E+02  2.44892E+04 -8.52753E+03  1.64774E+04
 -1.29155E+04  8.17726E+03 -3.80133E+03 -3.24386E+03  1.29870E+03 -8.28895E+03  1.32555E+04  1.90315E+02
  1.24606E+04  5.23488E+03 -8.27400E+02  1.11098E+04 -2.11162E+03  1.78136E+04 -1.36216E+04  1.31940E+03
 -1.07098E+04 -6.45560E+03 -1.72769E+03 -1.51800E+04  1.00966E+04 -2.51703E+03  5.21741E+03  4.72568E+03
 -1.10959E+03  1.09843E+04 -6.71687E+03  1.66342E+04 -8.86647E+03  6.20234E+03 -1.27851E+04 -7.71120E+03
 -1.15381E+04 -1.98948E+04 -4.42681E+03 -1.25235E+04  1.47799E+04 -6.28149E+03  1.76220E+04  3.88355E+03
  1.11849E+04  1.20252E+04 -5.18631E+02  9.83301E+03 -1.18891E+04  1.22751E+04 -7.69632E+03  5.45893E+03
 -6.60603E+03 -1.13980E+04  1.30479E+03 -8.06470E+03  1.15283E+04 -1.49250E+04  5.89275E+03 -7.90397E+03
  9.26203E+03  5.12077E+03 -1.86287E+03  2.62263E+02  1.84152E+03 -7.34013E+03 -6.94248E+02 -7.45592E+03
  1.35953E+04  2.19585E+03  1.51876E+04  7.78504E+02  1.25018E+04  8.77772E+03  1.27915E+04  2.06719E+04
 -7.03048E+03  3.18569E+04 -1.53970E+04  1.65072E+04 -2.30291E+04  6.73997E+03 -1.92949E+04 -5.00434E+03
 -8.69543E+03 -1.15074E+04  2.64877E+03 -1.13159E+04  5.33029E+03 -8.30050E+03  2.87415E+03 -5.70104E+03
  5.24418E+03  2.51299E+03  4.50971E+03 -2.91232E+03  7.43920E+03 -7.62887E+03  6.18040E+03  2.13876E+02
  7.54309E+03  2.05969E+03  7.52286E+03  5.98246E+03 -6.36735E+03  1.66440E+04 -1.46878E+04  1.17874E+04
 -2.07853E+04  2.10380E+03 -3.34294E+03 -1.09602E+04  2.37848E+03 -9.64481E+03  1.48324E+04 -1.58106E+04
  1.99704E+04 -7.51095E+03  2.19015E+04  1.30591E+03  1.07328E+04  1.19403E+04  2.45692E+03  1.86442E+04
 -7.04812E+03  1.19560E+04 -9.20813E+03  4.14865E+03 -5.00250E+03  2.14944E+03 -2.05945E+03 -4.07459E+03
  5.45643E+03 -8.28534E+03 -4.17785E+03  1.18970E+03 -1.03855E+04  3.23413E+03 -1.39406E+04  2.33479E+03
 -2.74501E+03 -9.15680E+03 -3.11554E+03 -8.88510E+03  5.95618E+02 -1.06670E+04  1.04205E+04 -5.18752E+03
  1.46583E+04  6.45079E+03  9.13948E+03  1.36463E+04 -3.52067E+03  1.28898E+04 -1.64622E+04  1.17153E+04
 -1.45211E+04  2.24843E+03 -1.15426E+04 -3.49593E+03 -2.09834E+03 -1.38465E+04  4.81809E+02 -5.29410E+03
  1.02113E+04 -1.69080E+03  3.65686E+03  2.37415E+03 -2.45993E+03  2.86810E+03  3.85447E+03  1.18810E+02
  3.25416E+03 -2.92477E+03  7.60959E+03  5.57263E+03  1.51389E+03  2.39762E+03  3.92315E+03  5.35375E+03
 -2.74996E+03  1.35775E+04 -1.05420E+04  9.33823E+03 -1.64541E+04  6.78673E+03 -1.31122E+04 -2.90293E+03
 -4.20214E+03 -1.54711E+04  2.04465E+03 -1.89555E+04  1.38751E+04 -3.01713E+03  1.40880E+04  8.29848E+01
  7.26560E+03  2.10799E+03  1.60199E+03  3.72246E+03 -7.16221E+03  5.57952E+03 -5.69970E+03  3.08251E+03
 -4.18699E+03 -3.23951E+03  3.52716E+03 -7.54618E+03  2.03631E+03 -3.07196E+03  7.69800E+03 -8.76311E+01
  1.19377E+03  4.43385E+03 -2.37310E+03  1.34031E+03  3.89333E+03  4.54391E+03  5.77202E+03  7.81896E+01
  1.03506E+04  5.94502E+02  7.19838E+03  7.48101E+03  1.11074E+04  5.32142E+03 -2.35459E+03  1.05216E+04
 -1.24730E+03  7.93136E+03 -1.82906E+04 -4.77573E+01 -1.03454E+04 -5.57513E+03 -6.04312E+03 -4.19668E+03
  1.25267E+03 -2.13794E+03  8.40438E+03 -2.82012E+03  1.20675E+03 -5.63069E+03 -2.57459E+03  6.45475E+03
 -6.85858E+03  9.84188E+03 -2.39858E+03 -4.19599E+03 -6.20548E+03 -1.22519E+04 -3.17431E+03 -5.08311E+03
  3.30331E+03 -2.66025E+03  7.98988E+03 -7.36021E+02  9.51890E+03  3.02664E+03  5.58886E+03  1.97221E+03
 -4.92438E+03 -1.89573E+03 -6.28272E+03  4.52285E+01  4.31191E+03 -6.70744E+03  6.64018E+03 -1.06189E+04
  1.63093E+04  3.52744E+03  9.90164E+03  4.60487E+03 -3.40525E+02  7.46499E+03 -3.07887E+03  1.17107E+04
 -5.73811E+03 -3.10586E+02 -9.91263E+03  7.51857E+03 -2.85248E+03 -3.92319E+02 -8.00466E+02 -1.92293E+03
  4.63870E+03  2.96173E+03  2.59806E+03  3.17432E+02 -1.54306E+03  4.47238E+03 -1.39574E+03  6.31172E+03
 -5.33561E+03  9.07474E+03 -1.57960E+03  2.25602E+03 -4.76094E+03 -7.78075E+02  6.51179E+03  8.02219E+03
 -2.18593E+03  7.28619E+02 -4.04768E+03  3.65111E+03 -1.04950E+04 -3.49983E+03 -1.86103E+04 -6.07412E+03
 -1.00617E+04 -9.29404E+03  7.12834E+02 -1.12638E+04  1.20992E+04 -8.36390E+03  1.76632E+04 -2.12894E+02
  1.40547E+04  4.70292E+03  7.23735E+03  8.29538E+03 -5.69086E+03  6.25267E+03 -5.67075E+03  1.10031E+04
 -7.01469E+03 -1.98536E+03 -4.33419E+03 -1.10387E+03 -2.40918E+03 -4.98697E+02 -7.69588E+03  1.43830E+03
 -6.50995E+03 -8.71707E+02  4.01580E+02 -1.40128E+03  7.57094E+01 -6.58509E+03 -4.32713E+03 -3.84546E+03
  4.13641E+02  3.95686E+03  2.94899E+03 -2.75760E+03  1.22835E+04  7.59819E+02  6.73133E+03  7.83800E+03
 -7.83691E+03  9.16658E+03 -1.34163E+04  1.30958E+04 -1.41370E+04 -4.51174E+03 -8.17168E+03 -1.23433E+04
 -8.61507E+03 -1.10320E+04  2.52658E+03 -1.11048E+04  7.69729E+03 -2.67387E+02 -3.87454E+01 -3.43663E+03
  1.55363E+02  4.10279E+03 -8.33930E+02  1.73102E+03 -3.87156E+02 -7.93270E+03  2.32898E+03 -1.66214E+03
 -3.49806E+03  1.91041E+03  6.46592E+02  3.58004E+03  1.28549E+03  3.76009E+03 -1.74376E+03  2.65967E+03
 -6.34686E+03  1.70693E+03 -9.02609E+03  2.25769E+03  5.34388E+02 -5.86280E+03  3.30895E+03 -1.47825E+04
  8.67083E+03 -8.26867E+03  7.65247E+03 -1.66769E+03  8.00104E+03  2.23409E+03  1.11181E+04  3.62634E+03
 -6.10466E+03  2.66591E+01  2.66134E+03  5.60752E+03 -7.52888E+03  3.50171E+03 -1.44851E+03  3.59666E+03
 -3.60802E+02  1.74695E+03 -6.77226E+03  6.13550E+03 -1.02879E+04 -4.12395E+03 -4.36587E+03  1.01201E+03
 -7.61397E+03  2.17468E+03  7.69561E+02 -8.55381E+03 -2.55541E+02 -5.46262E+03  6.81882E+03 -3.98047E+03
  7.89548E+03  2.48496E+03  5.40860E+02  4.43179E+03 -2.10999E+02  3.14761E+03 -6.01027E+03  1.55132E+03
