 $NMID ID='MM_0lb_SNR50_18hz_g45_52.RAW', FMTDAT='(8E13.5)'
 TRAMP=1., VOLUME=1. $END
  3.09230E+05 -1.53315E+03  3.38425E+05  2.49631E+05  8.16863E+04  3.39952E+05 -1.31910E+05  2.48292E+05
 -1.92695E+05  7.97802E+04 -1.12571E+05 -3.32828E+04  7.25597E+02 -5.09690E+04  5.47177E+04 -3.63819E+03
  3.58042E+04  5.47591E+04 -1.73732E+04  7.53138E+04 -6.24708E+04  6.50753E+04 -8.02617E+04  3.15875E+04
 -8.00881E+04 -1.01872E+04 -5.28366E+04 -4.88550E+04 -1.72223E+04 -6.90279E+04  3.23639E+04 -4.55954E+04
  3.48813E+04  8.24062E+03  1.73952E+04  4.51647E+04 -3.57031E+04  4.64646E+04 -6.33771E+04  6.14082E+02
 -5.20638E+04 -5.43619E+04 -1.16646E+04 -7.31171E+04  3.10369E+04 -5.40650E+04  4.56196E+04 -1.37563E+04
  3.91282E+04  1.23826E+04  3.24924E+04  2.13128E+04  1.88745E+04  3.37608E+04 -5.10303E+03  3.28248E+04
 -2.01117E+04  1.45044E+04 -1.92655E+04 -2.68834E+03  1.71137E+02 -6.78057E+03  2.15614E+04  1.02278E+04
  8.42880E+03  3.16078E+04 -2.83500E+04  3.19333E+04 -6.37836E+04  2.21007E+03 -5.70303E+04 -4.03409E+04
 -1.08028E+04 -6.55041E+04  3.47085E+04 -4.00563E+04  5.24181E+04 -8.41124E+02  3.09908E+04  3.15099E+04
 -6.58801E+03  3.32490E+04 -3.05891E+04  1.49525E+04 -2.69698E+04 -3.64593E+03 -1.16720E+04 -1.15229E+04
 -8.95467E+03 -9.94830E+03  1.94833E+02 -2.15148E+04  1.04173E+04 -2.21375E+04  1.34021E+04 -1.13416E+04
  6.61217E+03  3.33705E+03 -4.42848E+03  1.13341E+04 -1.90907E+04 -5.65836E+02 -9.70348E+03 -2.99700E+04
  2.09824E+04 -4.02623E+04  4.65846E+04 -1.94141E+04  4.22654E+04  2.25207E+04  1.47588E+04  4.21555E+04
 -1.66981E+04  3.27852E+04 -2.43449E+04 -1.41412E+02 -8.77881E+03 -2.78928E+04  1.89144E+04 -3.32554E+04
  3.50685E+04 -8.97854E+03  3.14511E+04  1.90188E+04  1.38661E+04  4.00662E+04 -8.35730E+03  4.71000E+04
 -2.61239E+04  2.80052E+04 -3.97738E+04  7.27236E+03 -4.01456E+04 -1.78424E+04 -2.46728E+04 -3.41337E+04
  1.09845E+04 -3.34549E+04  2.87900E+04 -1.33994E+04  2.91244E+04  1.19271E+04  2.42380E+03  1.60557E+04
 -1.52200E+04  7.85289E+03 -1.03622E+04 -9.55155E+03  5.08423E+03 -1.09796E+04  1.64878E+04  5.51279E+03
  1.39200E+04  1.86247E+04 -8.79289E+03  1.98461E+04 -2.02198E+04  1.03208E+04 -2.70183E+04 -6.97667E+03
 -1.97348E+04 -2.02621E+04 -1.03666E+03 -1.92554E+04  3.29691E+03 -1.26017E+04  1.25070E+04 -1.54303E+04
  2.29793E+04 -1.02695E+04  2.95245E+04 -7.69638E+02  1.76353E+04  1.50895E+04  3.57361E+03  3.00709E+04
 -1.50740E+04  2.52007E+04 -2.75598E+04  1.17266E+04 -2.11528E+04 -1.03797E+04 -3.41563E+03 -1.70105E+04
 -2.11501E+01 -2.72409E+03 -2.15020E+03  7.61897E+03 -1.12379E+04  6.59044E+03 -1.13804E+04 -4.06412E+03
 -8.72865E+03 -8.97955E+03  1.56547E+03 -1.55610E+04  1.51027E+04 -1.59635E+04  1.41971E+04 -7.38221E+03
  7.41734E+03  9.08019E+03 -1.56369E+03  1.03611E+04 -1.13220E+04  7.40537E+03 -1.51862E+04 -8.18284E+02
 -1.36318E+04 -1.49629E+04  3.34787E+02 -1.91055E+04  8.30414E+03 -1.91419E+04  1.81974E+04 -8.64081E+03
  1.61670E+04  1.89583E+03  1.40985E+04  2.48725E+03  4.88605E+03 -1.51570E+03  8.24871E+03  2.52612E+03
  1.33110E+04  3.58806E+03  1.05250E+04  1.20934E+04  1.23491E+04  2.64760E+04 -7.45541E+03  2.43256E+04
 -1.78766E+04  2.04457E+04 -2.00760E+04  7.45575E+03 -2.92224E+04 -1.15845E+02 -2.36783E+04 -1.96563E+04
 -1.19882E+04 -2.16396E+04  7.19083E+03 -1.82731E+04  1.88284E+04 -8.46110E+03  1.79992E+04  3.27841E+03
  8.48398E+03  1.31595E+04 -6.77275E+03  1.14417E+04 -1.41904E+04  4.26085E+03 -9.29455E+03 -5.29778E+03
 -1.61212E+03 -1.22886E+04  5.81057E+03 -8.75862E+03  6.03342E+03 -4.30296E+03  1.45009E+03  2.16596E+03
 -3.41131E+03  5.38086E+02 -2.93562E+03 -7.87653E+03 -5.28991E+03 -1.45628E+04  1.23303E+04 -9.75461E+03
  1.02368E+04 -6.00222E+03  1.25168E+04 -9.72721E+02  1.54036E+04  9.51286E+03  5.73880E+03  1.70174E+04
 -4.12327E+03  1.40808E+04 -1.29701E+04  1.02235E+04 -1.42018E+04  2.82659E+03 -6.11380E+03 -2.73475E+03
 -4.44308E+03 -1.31859E+03  5.61080E+02  4.83098E+03 -6.26016E+02 -2.71271E+03 -2.97207E+03  5.07000E+03
 -6.81735E+03  3.16019E+00 -1.12493E+04 -9.61888E+03 -2.48214E+03 -1.36839E+04 -5.07883E+02 -6.67669E+03
  6.97689E+03 -5.47661E+03  1.75607E+03  1.73037E+03  4.90006E+03  5.35601E+03 -6.33379E+03 -3.55568E+03
 -3.71931E+03 -5.55712E+03 -3.46424E+02 -7.18831E+03  4.43829E+03 -6.79793E+03  1.10767E+04 -2.20556E+03
  1.19229E+04  3.24133E+03  1.28042E+04  6.16560E+03  4.73768E+03  1.06458E+04 -1.02074E+04  3.90472E+03
 -4.82550E+03  2.81589E+03 -3.48447E+03 -5.73724E+03  3.74038E+03 -5.86476E+03  6.26703E+03 -1.85166E+03
  1.02000E+03  1.32366E+03  4.34047E+02  6.56571E+03 -2.21569E+03  9.99012E+03 -1.16531E+04  3.37554E+02
 -2.13749E+03 -5.39929E+03  2.80898E+02 -5.09661E+03  4.45983E+03 -3.48982E+03  3.23620E+03  4.26738E+03
 -2.95715E+03  2.50634E+03 -4.80766E+03  7.53606E+03 -4.60360E+03  2.29231E+03 -3.59034E+03 -2.08505E+03
 -6.65258E+03 -6.79995E+03 -1.06547E+02 -8.70278E+03  1.83360E+03 -4.68014E+03  1.20960E+04  4.22886E+03
  5.87141E+03  5.06299E+03 -2.37284E+03  6.19281E+03 -2.87310E+03  3.50146E+03 -5.82430E+03 -3.61733E+03
 -6.15502E+03 -4.39056E+03 -1.17109E+03 -6.94639E+03  4.44744E+03 -4.99583E+03  7.32162E+03 -2.10298E+03
  2.62799E+03 -2.38691E+03  2.19839E+03 -5.53762E+02  2.32385E+03 -3.57308E+03  4.96146E+02 -3.20331E+03
  1.77002E+03 -1.53329E+03  5.22956E+03  4.82696E+03  4.73591E+03  5.69916E+03  4.41765E+03  7.79812E+03
 -4.19613E+03  9.08477E+03 -5.90377E+03  4.64661E+03 -9.68667E+03  3.89454E+01 -1.00849E+04 -2.63856E+03
 -7.46471E+03 -4.05178E+03  2.04248E+03 -6.54930E+03  3.36138E+03 -1.10814E+03 -2.16066E+03 -8.49732E+03
 -9.81798E+02 -5.37555E+03  5.26658E+03 -4.02847E+03  1.34544E+03 -3.91255E+03  3.01483E+03 -1.80433E+03
  3.73222E+03  5.79036E+02  7.51109E+02 -6.67816E+02 -1.05529E+03  3.66154E+03 -4.49969E+03  3.85805E+03
 -8.80456E+03 -7.92845E+02  3.10836E+02 -1.74165E+03 -2.77843E+03 -4.64554E+03  8.56423E+03 -7.27323E+03
  6.07902E+03 -7.10567E+03  9.41721E+03  1.89849E+03  1.95244E+03 -1.75151E+01 -1.34063E+03  7.24038E+03
 -1.88483E+03  4.67450E+03 -1.32524E+03 -2.39921E+03 -9.10982E+02 -1.94819E+03  1.31612E+03  3.20663E+02
 -1.82273E+03 -3.97488E+03 -1.03329E+03  2.69016E+03 -4.57514E+03  8.11186E+02 -6.05031E+03 -1.73112E+03
 -3.86442E+02 -4.64010E+03  6.76624E+02 -6.27978E+03  8.95535E+03 -8.69702E+03  3.33617E+03  6.84006E+02
  3.09060E+03  8.79479E+03  6.27569E+02  4.81855E+03  6.11189E+01 -9.38798E+02 -1.83966E+03  3.60926E+03
 -3.44792E+03  2.65593E+03 -2.60881E+03 -1.28127E+03 -7.32198E+02  5.97992E+02  2.63669E+03 -6.57071E+03
  3.35002E+03  9.51718E+02  4.19332E+03  3.33156E+03  1.59095E+03  1.94366E+02  3.91357E+03 -7.15923E+02
  4.41778E+03 -3.05323E+03 -4.26808E+02  4.42952E+03  5.77947E+03  1.35312E+03  1.59417E+03  5.18947E+03
 -3.07351E+03  6.38350E+03 -2.41700E+03  5.87439E+03 -6.49796E+03  3.00842E+03 -2.58830E+03 -3.75406E+01
 -4.17496E+03 -3.22999E+03  2.85611E+03 -8.07730E+03  2.29675E+03 -6.55031E+03  8.76538E+02 -3.64030E+03
  3.55982E+03 -6.78730E+02  9.88031E+02  1.88254E+03 -3.64403E+03  3.40205E+03 -3.65616E+03 -5.65077E+02
  2.08147E+03 -2.84971E+03  5.68532E+03 -9.16403E+02  6.67076E+02 -3.04609E+03 -6.12071E+03  2.74084E+02
 -1.33819E+03  7.36092E+02  1.47018E+03  1.73973E+03 -1.54570E+03 -1.47382E+03  4.34685E+03  4.23494E+03
 -2.36295E+03 -2.70028E+03 -3.52762E+03  7.89792E+02  1.37491E+03  2.14436E+03  1.59556E+03  3.29731E+03
 -3.33263E+03  1.57279E+03 -1.59936E+03  3.03444E+03 -3.14179E+03 -1.79454E+03 -4.34921E+03  2.54254E+02
  1.99499E+03  1.62354E+03 -5.08296E+03  2.38855E+02  9.98372E+02  3.76616E+03  1.50510E+03  2.98609E+02
 -2.24466E+03  1.27849E+03 -3.76612E+03 -1.92911E+03 -1.52442E+03 -1.95213E+03 -2.54003E+03 -3.83217E+02
  5.69137E+02  6.94802E+02 -1.23564E+03  4.72120E+03  3.99338E+03  2.44503E+03  6.65810E+02  5.93097E+02
  1.75257E+03  2.70926E+03  1.31802E+03  2.26733E+03 -2.80911E+02  2.54781E+03  2.70711E+03 -1.51870E+03
 -4.29843E+02  2.45608E+03  5.07587E+02 -8.15728E+02 -1.21094E+03  7.10341E+03 -1.25695E+03  1.40391E+03
  1.53558E+03  7.14525E+02 -3.99661E+03 -3.69283E+03 -5.88604E+03 -4.51294E+03  3.75305E+01  2.71210E+03
  3.72108E+03  2.49852E+03  2.21403E+03  5.36775E+03  1.46114E+03 -1.10734E+03  1.84665E+03  3.60996E+03
  2.69419E+03  1.95276E+03 -1.03233E+03 -2.61785E+03 -1.71504E+03  3.50093E+03 -3.24091E+03  4.44180E+03
  8.00286E+02 -2.89776E+03 -1.19150E+03  2.11933E+03 -4.01924E+02 -4.36242E+03 -5.22089E+03 -1.65525E+03
 -2.65786E+03  3.41453E+02  2.05411E+03 -2.91962E+03  4.24260E+02 -4.85479E+03  9.36762E+02  4.99999E+02
  6.20209E+03  1.51257E+03  4.55107E+03 -2.09882E+02  6.24005E+01  1.48239E+03 -3.44895E+02  1.00034E+03
 -3.07210E+03  2.11352E+03 -2.68041E+03 -1.31272E+03 -6.87997E+03 -1.83691E+03 -1.00595E+03  2.99947E+02
  4.40084E+03 -9.34404E+02  6.05211E+02 -2.03160E+03 -4.16629E+03 -2.86680E+03  3.37776E+02 -5.95482E+03
  1.82710E+03 -3.73414E+02  1.72096E+03 -2.12699E+03  3.64797E+03  3.32749E+03  1.71203E+03  4.16097E+03
  3.26275E+03  4.49634E+02 -6.16660E+02  3.06750E+03 -1.98912E+03  8.76228E+02 -1.29949E+03  1.55290E+03
 -3.45662E+03  2.66403E+03  4.93898E+03  7.01855E+02 -2.32604E+03 -3.25561E+03 -1.17013E+02 -2.06586E+02
  3.49690E+03 -1.31356E+03 -1.49477E+03  2.54052E+03  4.10113E+02 -1.22634E+03  3.46753E+03 -1.03302E+03
 -1.70486E+03  2.64245E+01  2.73549E+03 -3.99253E+03 -1.48690E+03 -3.29265E+03 -1.90647E+03 -2.57914E+03
 -1.69548E+03  2.25553E+03 -2.57751E+03  3.30994E+03 -1.15177E+03  9.46167E+02 -1.03053E+03  1.65422E+03
 -3.25690E+02 -2.26685E+03 -1.53582E+03 -4.01221E+02  1.11195E+03  1.20053E+02  1.81192E+03  4.95460E+02
  1.82536E+03  4.48169E+03 -4.23499E+03 -6.28395E+02 -1.22174E+03  7.15391E+03 -1.10560E+03  1.66026E+03
  4.28102E+03 -7.82776E+02  1.31209E+03 -4.05137E+02 -1.45368E+03  2.37085E+03 -5.07853E+03 -2.26847E+03
 -2.10587E+03 -1.61712E+03  5.06765E+02 -3.79676E+02  1.10599E+03 -9.67919E+02 -3.98152E+03 -5.56638E+02
 -1.20549E+03 -3.03239E+02 -2.66072E+03  2.73832E+03 -2.07172E+03  1.67456E+03 -4.13556E+02  3.51685E+03
