 $NMID ID='MM_0lb_SNR50_10hz_g50_47.RAW', FMTDAT='(8E13.5)'
 TRAMP=1., VOLUME=1. $END
  3.14457E+05  8.92057E+02  3.34986E+05  2.46582E+05  7.96269E+04  3.30776E+05 -1.32944E+05  2.47613E+05
 -1.92454E+05  8.35555E+04 -1.12100E+05 -3.59427E+04 -2.29611E+03 -5.18632E+04  5.27066E+04 -2.54952E+03
  3.85513E+04  5.00643E+04 -2.76796E+04  8.09525E+04 -5.89586E+04  6.68989E+04 -8.65356E+04  3.60303E+04
 -8.50910E+04 -8.20614E+03 -6.17198E+04 -5.39674E+04 -1.29065E+04 -7.27223E+04  2.39691E+04 -4.66881E+04
  3.97539E+04  1.34207E+04  1.53240E+04  4.66696E+04 -3.05090E+04  5.28583E+04 -6.74234E+04  3.37516E+01
 -5.66595E+04 -6.22091E+04 -1.06173E+04 -8.29592E+04  3.92128E+04 -5.89688E+04  4.71675E+04 -1.10180E+04
  5.18154E+04  9.08692E+03  3.10790E+04  2.55551E+04  1.11492E+04  3.58976E+04 -2.51602E+03  1.98348E+04
 -1.93258E+04  9.19371E+03 -2.06325E+04 -3.13627E+03  1.95843E+03  2.86518E+01  2.90492E+04  1.77966E+04
  4.78773E+03  3.46642E+04 -3.22134E+04  3.78641E+04 -6.64291E+04  3.67948E+03 -5.01856E+04 -4.24083E+04
 -1.68784E+04 -5.75270E+04  3.97517E+04 -5.66218E+04  5.81906E+04 -6.48361E+03  3.02278E+04  3.41710E+04
 -3.47188E+03  4.54445E+04 -2.89335E+04  1.32911E+04 -2.56467E+04 -4.32271E+03 -1.66917E+04 -1.02230E+04
 -7.59015E+03 -9.57176E+03 -2.02493E+02 -1.90301E+04  3.56328E+03 -2.17318E+04  2.20671E+04 -1.82751E+04
  6.22890E+03  6.09396E+03 -6.09817E+03  1.43073E+04 -2.27014E+04 -4.68718E+03 -5.15229E+03 -3.87651E+04
  1.97324E+04 -4.65524E+04  4.99925E+04 -2.78310E+04  4.16940E+04  1.92150E+04  1.19039E+04  4.76505E+04
 -1.61802E+04  4.21245E+04 -3.23578E+04  7.19998E+03 -7.65235E+03 -2.99507E+04  3.02855E+04 -3.01943E+04
  4.07755E+04 -1.01463E+04  4.11220E+04  2.68358E+04  2.19550E+04  4.64970E+04 -5.55017E+03  5.86856E+04
 -3.78898E+04  3.60010E+04 -4.86915E+04  1.12410E+04 -4.59671E+04 -1.71484E+04 -2.25486E+04 -3.52645E+04
  9.16248E+03 -3.96034E+04  3.41204E+04 -1.41225E+04  3.00196E+04  9.54710E+03  9.97349E+03  1.70626E+04
 -1.35276E+04  1.05306E+04 -1.15840E+04 -5.00051E+03  4.00647E+03 -1.17460E+04  1.84041E+04  3.91071E+03
  1.49683E+04  2.27456E+04 -3.94770E+03  2.37059E+04 -2.26182E+04  1.71666E+04 -3.21865E+04 -3.76226E+02
 -2.40642E+04 -1.36593E+04 -6.53323E+03 -2.25000E+04  8.75191E+03 -2.21336E+04  1.39177E+04 -1.89976E+04
  2.80060E+04 -1.03018E+04  3.73899E+04  1.89650E+03  2.84021E+04  2.42934E+04  9.41240E+03  4.17516E+04
 -2.17904E+04  3.54781E+04 -3.12539E+04  1.58148E+04 -2.77175E+04 -1.25662E+04 -3.50290E+03 -1.21762E+04
  2.88472E+03 -1.14290E+03 -1.07206E+04  7.52611E+03 -2.27396E+04  7.57935E+03 -2.12698E+04 -8.15463E+03
 -5.18474E+03 -2.72482E+04  6.72146E+03 -2.51709E+04  1.72232E+04 -1.61262E+04  2.25168E+04 -1.72571E+03
  1.36707E+04  1.56215E+04  2.50735E+02  2.30340E+04 -1.13712E+04  1.51366E+04 -2.68955E+04 -6.81788E+03
 -1.53706E+04 -1.61331E+04 -5.94993E+03 -2.97567E+04  1.50579E+04 -2.43550E+04  2.32080E+04 -1.09275E+04
  1.89824E+04 -2.93351E+03  1.34870E+04 -1.91982E+03  4.94528E+03 -1.03091E+03  1.10227E+04 -4.59612E+03
  2.44934E+04  9.83486E+03  2.63149E+04  1.95125E+04  1.88446E+04  3.38078E+04 -6.00432E+02  4.61140E+04
 -2.68308E+04  3.99081E+04 -3.60084E+04  1.66890E+04 -4.34941E+04 -1.53574E+03 -3.47994E+04 -2.93514E+04
 -1.41559E+04 -3.48289E+04  1.06775E+04 -3.14329E+04  3.37112E+04 -2.04956E+04  2.27090E+04  7.46427E+03
  9.78183E+03  2.31347E+04 -1.30504E+04  1.81376E+04 -1.62103E+04  5.15418E+03 -1.26332E+04 -1.29789E+04
 -3.44732E+03 -1.68093E+04  1.30076E+04 -7.88014E+03  7.23150E+03 -7.51399E+03  5.74112E+03  5.59261E+03
 -3.53193E+03  4.08029E+03 -1.19677E+04 -2.54698E+03 -1.58903E+03 -1.97115E+04  1.54277E+04 -1.40074E+04
  2.70283E+04 -8.97073E+03  2.66078E+04 -3.60208E+03  2.29582E+04  2.46016E+04  4.27507E+03  2.91207E+04
 -3.81729E+03  3.04030E+04 -2.00993E+04  1.44846E+04 -2.10609E+04  7.27015E+03 -1.30897E+04 -2.33116E+03
 -7.18688E+03 -8.28102E+03 -2.49468E+03 -9.68970E+03 -1.09507E+04  6.34820E+03 -8.36860E+03  2.78862E+03
 -9.80915E+03  1.31082E+02 -1.20055E+04 -1.21153E+04 -5.09402E+03 -1.99256E+04  4.81468E+03 -1.32245E+04
  1.71427E+04 -1.70274E+03  6.28001E+03 -1.07480E+03  8.71157E+03  4.04104E+03 -1.49655E+04  3.37275E+03
 -8.98303E+03 -1.17917E+04 -4.39995E+03 -1.39998E+04  7.48677E+03 -1.69614E+04  1.67352E+04 -6.99089E+03
  2.52112E+04  2.32998E+03  2.04912E+04  1.01305E+04  2.10688E+03  1.19897E+04 -5.92392E+03  9.63850E+03
 -1.18569E+04  1.06214E+04 -4.76615E+03 -5.82570E+03 -1.74703E+03 -2.45128E+03  6.03483E+03 -5.60890E+03
  7.72001E+03  4.47532E+03  5.59853E+03  4.36959E+03 -7.05313E+03  1.99536E+04 -1.88760E+04 -2.09724E+03
 -5.82162E+03 -4.11346E+03 -1.54823E+03 -1.28399E+04  1.17935E+04 -7.48911E+03  2.87291E+03  6.13949E+03
  3.86143E+03  1.91192E+03 -5.73091E+03  8.51989E+03 -1.79867E+04  6.02293E+03 -1.35267E+04 -3.82745E+03
 -6.02956E+03 -1.39162E+04  5.54699E+02 -1.99536E+04  1.19675E+04 -8.66158E+03  1.68306E+04 -1.03298E+03
  9.40474E+03  1.56100E+04 -2.57693E+03  1.29445E+04 -1.35404E+04  6.01992E+03 -1.30663E+04 -1.71052E+03
 -1.31718E+04 -1.27507E+04 -1.79043E+03 -5.86525E+03  9.99646E+03 -7.91169E+03  2.74724E+03 -1.41839E+03
 -1.78359E+02  7.22552E+03 -1.23972E+03 -1.19969E+03  1.49602E+03  1.22256E+03  3.93876E+03 -3.62911E+03
  1.61909E+04 -3.56931E+03  1.06723E+04  4.77111E+03  1.26702E+04  1.25165E+04  7.44778E+03  1.51621E+04
 -4.92049E+03  2.82958E+04 -1.99091E+04  1.85626E+04 -2.80460E+04  1.22592E+03 -1.91554E+04 -6.41963E+03
 -9.98601E+03 -1.33582E+04 -3.70197E+03 -8.56086E+03  8.81529E+02 -1.14288E+04  1.80891E+03 -2.88706E+03
  2.65873E+03 -1.61142E+03  9.05540E+03 -3.70689E+03  1.43701E+03 -2.00558E+03  5.82756E+03 -1.94247E+03
  7.74627E+03 -4.68627E+03  1.00819E+04  1.32733E+04 -9.46193E+02  1.57312E+04 -1.28653E+04  8.51364E+03
 -1.16173E+04 -4.07734E+03 -5.48612E+03 -4.59426E+03 -2.84919E+03 -1.17551E+04  8.01423E+03 -1.56978E+04
  1.26845E+04 -1.06635E+04  1.54068E+04  2.26915E+03  1.23993E+04  9.12134E+03  3.32350E+03  1.73339E+04
 -5.93029E+02  1.53548E+04 -4.09619E+03  5.14234E+03 -4.37072E+03  1.89117E+03 -9.04769E+02  6.63215E+02
  9.54722E+02  1.55214E+03 -4.43076E+03  8.13379E+03 -1.79219E+03  3.66579E+02 -1.00073E+04 -4.34682E+03
 -6.84781E+03 -5.42100E+03 -3.26218E+03 -1.12855E+04  2.46891E+03 -1.35961E+04  1.29257E+04 -2.95976E+03
  7.52552E+03  4.34773E+03  5.86520E+03  1.17130E+04  1.00955E+03  1.20840E+04 -9.80116E+03  4.95388E+03
 -1.00384E+04  4.57356E+03 -7.05848E+03 -1.27813E+04  5.02541E+03 -1.46132E+04  5.93526E+03 -8.27685E+03
  5.89870E+03 -6.84376E+03  7.76513E+03 -3.64147E+03  4.16576E+03  7.67894E+03 -1.82725E+03  4.24691E+03
  1.28992E+03  2.42495E+02 -1.56261E+02  3.54752E+03  3.09392E+03  4.81437E+03  1.04864E+03  5.17714E+03
  8.37084E+02  1.05794E+04 -8.93306E+03  7.32907E+03 -1.55238E+04  1.64325E+03 -1.32502E+04 -2.56902E+03
 -5.18547E+03 -1.01892E+04  1.64797E+03 -1.79182E+04  7.75501E+03 -9.48995E+03  8.90307E+03 -3.23556E+03
  6.79253E+03  1.11649E+04  8.19913E+03  1.24873E+04 -2.42139E+03  3.06119E+03 -5.18685E+03  9.17931E+01
 -2.52334E+03 -7.68264E+03  3.31930E+03 -6.49267E+03  3.41909E+03 -2.58549E+02  2.70488E+03  2.20502E+03
  9.25580E+03 -1.48118E+03  7.17618E+02  4.39659E+03 -4.01492E+02  7.30321E+03  3.77594E+03 -2.51450E+03
 -3.01074E+02 -3.68662E+03  9.43016E+03 -9.66354E+02  7.02667E+03  3.78866E+03 -2.84752E+03  6.18645E+03
 -1.43993E+04  3.16634E+03 -1.09503E+04  3.73331E+03 -8.31215E+03 -5.71625E+03 -6.39742E+03 -4.53787E+03
  3.29889E+03 -4.86064E+03  4.03492E+03 -5.61007E+03  3.75254E+03  7.34510E+03  1.85993E+03  6.80901E+03
 -2.24868E+03  7.11553E+03 -9.23207E+03 -2.63580E+03 -5.15924E+03 -1.08556E+04 -2.23229E+03 -6.41593E+03
  3.21021E+03 -3.58121E+03  5.15082E+03 -2.88809E+03  6.22768E+03 -1.15478E+03  7.94733E+02  2.67541E+03
 -7.57870E+03  3.04602E+03 -3.83808E+03 -5.33144E+03  1.85319E+03 -2.16331E+03  7.21164E+03 -7.73336E+03
  7.09337E+03  1.57684E+03  1.12595E+04  4.91124E+03 -5.82789E+02  1.26005E+04 -2.49211E+03  5.01084E+03
 -7.39076E+03  9.87322E+03 -1.40987E+04  3.33892E+03 -9.78477E+01 -3.81953E+03  4.26734E+03 -2.04286E+03
  8.53288E+03 -8.03485E+03  9.67452E+03  1.89205E+03  5.33935E+03 -1.59713E+02 -3.01144E+03  3.01410E+03
 -3.88255E+03 -1.81256E+03 -2.83689E+03 -4.44123E+03  5.78286E+02  1.54281E+03 -4.77157E+03  4.80406E+03
 -3.31371E+03  6.38427E+03 -1.14467E+04  8.03328E+03 -9.72986E+03 -8.72559E+02 -2.15090E+03 -6.36080E+03
 -1.88138E+03 -9.16116E+03  2.04981E+03 -1.09959E+04  9.68937E+03 -7.74512E+03  1.23799E+04 -6.84203E+03
  1.04235E+04  6.58027E+03  1.02967E+04  1.43054E+04 -8.61662E+02  1.04479E+04  4.34913E+02  1.09263E+04
 -2.84611E+03  3.22476E+03 -4.83332E+03 -1.45465E+03 -5.49781E+03 -7.57706E+02 -1.59612E+03  1.73947E+03
 -5.97508E+03  4.40470E+02 -2.81088E+03  1.32649E+03 -2.00882E+03 -1.17610E+03  1.70667E+03 -2.89316E+03
  6.30524E+02 -6.56000E+03  1.40986E+04 -5.71666E+03  8.68445E+03  5.53834E+03  3.68479E+03  1.31599E+04
 -8.85152E+03  1.17471E+04 -1.29679E+04  5.86237E+03 -1.02156E+04 -1.86579E+03 -7.46421E+03 -8.00387E+03
 -8.51554E+03 -8.87003E+03  6.64182E+03 -3.40932E+03 -1.55996E+02 -4.02904E+03  8.69018E+03  3.44076E+03
 -7.79036E+02 -2.37722E+03  1.22464E+02  6.04855E+03 -5.51583E+03  2.41103E+03  8.69348E+02 -2.06797E+02
 -2.46236E+03 -2.13504E+03  2.61206E+03  2.77522E+03  2.26482E+03 -7.07777E+02  8.93071E+02  2.47376E+03
 -3.03885E+03 -1.49945E+01 -1.76874E+03  6.43297E+03 -4.46006E+03 -8.78176E+03  2.32499E+03 -5.18499E+03
  1.07206E+03 -6.65142E+03  9.50437E+03 -2.72504E+03  1.05069E+04  1.93402E+03  6.28333E+03  4.73046E+03
  3.95071E+03  4.33041E+03 -4.68252E+03  8.33600E+03 -3.86953E+03  8.82771E+03 -3.99547E+02  1.51069E+03
 -1.01005E+02  1.02661E+03 -5.30681E+02 -1.62880E+03 -1.08963E+03  6.58970E+03 -6.38008E+02 -2.87672E+03
  3.47138E+02 -2.02280E+03 -6.25652E+02 -1.27169E+04 -9.30171E+02 -3.04168E+03  5.70044E+03 -3.35369E+03
  7.24517E+02  2.09681E+03  9.11931E+01  3.64532E+03 -2.52019E+03  5.71071E+03 -2.03403E+03  3.25255E+03
