 $NMID ID='MM_0lb_SNR50_16hz_g40_37.RAW', FMTDAT='(8E13.5)'
 TRAMP=1., VOLUME=1. $END
  3.04959E+05 -2.09765E+03  3.35792E+05  2.51746E+05  8.54372E+04  3.39670E+05 -1.34526E+05  2.50486E+05
 -1.93114E+05  7.63260E+04 -1.13017E+05 -2.97941E+04 -1.49015E+03 -4.73883E+04  5.69729E+04  2.88511E+03
  3.60914E+04  5.31776E+04 -1.72593E+04  7.51892E+04 -6.54757E+04  6.18406E+04 -7.90476E+04  3.13517E+04
 -7.74693E+04 -7.91371E+03 -5.99515E+04 -5.24048E+04 -1.58844E+04 -6.95773E+04  2.61846E+04 -4.69132E+04
  4.15828E+04  4.10712E+03  1.29282E+04  4.43030E+04 -3.44786E+04  4.64984E+04 -6.47018E+04  1.98466E+03
 -4.94123E+04 -5.89551E+04 -6.46117E+03 -7.53308E+04  3.31907E+04 -5.55350E+04  4.99211E+04 -1.09869E+04
  4.30583E+04  1.01566E+04  3.52799E+04  2.64128E+04  1.69655E+04  2.59735E+04 -6.07808E+03  2.83610E+04
 -2.39030E+04  9.98104E+03 -1.93327E+04 -3.21903E+03  2.20819E+03 -3.81911E+03  2.16128E+04  1.49001E+04
  1.13395E+04  3.45608E+04 -3.86249E+04  4.00555E+04 -6.04982E+04 -6.81869E+02 -5.46489E+04 -3.87471E+04
 -1.24035E+04 -5.73169E+04  3.98442E+04 -4.46026E+04  5.22086E+04 -1.31749E+03  3.49520E+04  3.31859E+04
 -6.30274E+03  3.62474E+04 -2.82185E+04  1.71430E+04 -2.78010E+04 -4.36215E+03 -1.60754E+04 -1.06430E+04
 -6.33708E+03 -1.38157E+04 -4.33772E+03 -1.36667E+04  6.55650E+03 -2.30302E+04  1.49665E+04 -1.66600E+04
  9.61477E+03  5.31269E+03 -7.05486E+03  1.32516E+04 -2.12681E+04 -5.47832E+03 -6.07283E+03 -3.06523E+04
  2.16317E+04 -4.19998E+04  4.37846E+04 -1.76406E+04  4.26612E+04  1.56721E+04  1.39066E+04  4.31427E+04
 -1.50188E+04  3.37277E+04 -1.89544E+04  3.52021E+03 -1.28715E+04 -3.00334E+04  2.23339E+04 -3.23325E+04
  4.15345E+04 -1.08301E+04  3.31057E+04  2.44299E+04  1.47013E+04  4.26230E+04 -7.06925E+03  4.92521E+04
 -3.22485E+04  2.87435E+04 -3.73261E+04  1.21561E+04 -3.88908E+04 -1.12022E+04 -2.56733E+04 -3.89121E+04
  8.46542E+03 -3.29271E+04  2.62113E+04 -1.57149E+04  2.72195E+04  9.80584E+03  2.86264E+03  1.97016E+04
 -1.75374E+04  8.17713E+03 -1.05583E+04 -1.04956E+04  5.03930E+03 -9.11793E+03  1.76644E+04  9.66759E+03
  1.64466E+04  2.16106E+04 -5.76266E+03  2.72825E+04 -2.48622E+04  9.71440E+03 -2.53388E+04 -7.87596E+03
 -2.05645E+04 -2.16925E+04 -3.97177E+03 -1.85091E+04  1.06213E+03 -1.60951E+04  1.84225E+04 -1.77422E+04
  1.94942E+04 -1.02834E+04  2.86020E+04  3.66361E+03  2.61821E+04  1.97660E+04  5.43791E+03  3.14918E+04
 -1.20746E+04  2.79470E+04 -2.56435E+04  1.48799E+04 -1.69164E+04 -1.44152E+04 -1.30623E+03 -1.11625E+04
  6.50693E+03 -3.05177E+03 -6.22328E+03  5.28119E+03 -8.14455E+03  3.99430E+03 -2.09627E+04 -7.52872E+02
 -1.01332E+04 -1.63133E+04  5.45896E+03 -2.03353E+04  1.75500E+04 -1.84704E+04  1.15529E+04 -6.05095E+02
  7.32613E+03  8.94975E+03 -2.58542E+03  1.88755E+04 -1.00934E+04  9.68956E+03 -1.61436E+04 -1.61421E+03
 -1.24764E+04 -1.14583E+04 -7.55308E+02 -1.58193E+04  1.38807E+04 -1.28366E+04  1.41127E+04 -9.71613E+03
  1.56470E+04  4.07523E+03  1.02648E+04  7.82041E+03  3.78707E+03 -1.38697E+03  8.45830E+03 -3.12063E+03
  1.35957E+04  8.45713E+02  2.25600E+04  1.80739E+04  9.53361E+03  2.78512E+04 -3.86537E+03  3.16140E+04
 -2.01956E+04  2.73109E+04 -2.76773E+04  9.50563E+03 -2.83675E+04  1.19181E+03 -2.58243E+04 -1.84395E+04
 -1.10446E+04 -1.94207E+04  7.00770E+03 -2.07334E+04  1.54102E+04 -1.13780E+04  1.87949E+04  5.58236E+03
  8.55136E+03  1.02855E+04 -7.28057E+03  9.04762E+03 -1.42696E+04  1.55038E+03 -9.47458E+03 -8.43488E+03
 -3.67926E+03 -1.17067E+04  5.35366E+03 -1.14369E+04  9.85228E+03 -4.81038E+03  6.59936E+02  8.48090E+03
 -1.08321E+04  2.00438E+03 -3.82363E+03 -5.49043E+03 -6.10884E+02 -1.05685E+04  7.78423E+03 -1.08043E+04
  1.31373E+04 -7.64934E+03  1.82266E+04  6.51940E+03  7.75482E+03  1.49897E+04  9.46809E+03  1.67289E+04
 -3.60056E+03  1.89159E+04 -1.46043E+04  1.59326E+04 -1.24894E+04  5.87463E+03 -4.36691E+03 -3.74449E+03
 -8.03214E+03 -4.03602E+03  4.65539E+03  6.05725E+02 -3.89526E+03 -1.57279E+03 -3.69881E+03  4.01125E+03
 -9.30067E+03 -1.64309E+03 -1.18706E+04 -9.61547E+03 -6.61953E+03 -1.71868E+04  7.17472E+03 -4.95420E+03
  8.61383E+03 -5.95309E+03  9.90441E+03 -1.76533E+03  3.77587E+03  2.51258E+03 -8.48279E+02 -3.45862E+02
 -4.85555E+03 -8.68859E+03 -1.86566E+03 -5.69833E+03  3.91037E+03 -1.15780E+04  1.03139E+04 -7.51422E+03
  1.46456E+04  3.06661E+03  5.58405E+03  9.25533E+03  4.85733E+03  1.20106E+04 -7.31232E+03  9.58754E+03
 -3.85600E+03 -6.68988E+02 -6.02877E+03 -2.22066E+03  5.67029E+03 -1.27893E+03  3.71962E+03  1.75852E+03
  2.96046E+03  2.89880E+03  1.60227E+03  9.77902E+03 -2.10402E+03  5.78263E+03 -5.11646E+03  2.11893E+03
 -6.68011E+03 -3.70560E+03  5.94597E+03 -8.00465E+03  2.69198E+03 -1.35194E+03  2.07559E+03  2.59385E+03
 -3.79650E+03  2.44656E+03 -5.65804E+03  3.99337E+03 -3.95073E+03  4.22768E+03 -4.56934E+03 -6.95516E+03
 -2.79304E+03 -4.42065E+03  7.66681E+03 -8.78540E+03  8.06061E+03 -1.54371E+03  5.89173E+03  1.43428E+03
  3.96046E+03  5.07772E+03 -4.89646E+03  6.39518E+03 -8.52439E+03  4.44682E+03 -7.23761E+03  1.50817E+03
 -7.31194E+03 -4.28957E+03  7.36723E+02 -4.81562E+03  1.19412E+03 -7.04045E+03  6.01008E+03  1.83260E+02
  5.75382E+03  2.09493E+03 -2.58225E+03 -2.45622E+03  1.15847E+03 -1.57659E+03  3.61419E+03 -5.16386E+03
  6.11581E+03 -4.14392E+03  3.98057E+03  2.35796E+03  8.21661E+03  1.00781E+03  7.03464E+03  7.09147E+03
 -1.12720E+03  1.21753E+04 -6.53843E+03  3.88022E+03 -1.14039E+04  2.49650E+03 -5.92708E+03 -5.59600E+03
 -6.26590E+03 -9.43033E+03  5.26402E+03 -7.71131E+03  1.93908E+03 -6.35231E+03  4.20091E+03 -2.53089E+03
  4.19416E+03 -3.80280E+03 -2.20296E+03 -3.19841E+02  1.68379E+03 -2.21710E+03  3.97169E+03  6.35518E+02
  7.60366E+03  5.60661E+03  5.50245E+03  2.41209E+03  1.13762E+03  3.68493E+03 -5.72653E+03  3.26589E+03
 -5.77128E+03  9.60128E+02 -6.31015E+03 -5.76357E+03 -2.54077E+02 -6.33883E+03  4.35135E+03 -5.56112E+03
  1.09325E+04 -1.39216E+03  1.05627E+04  1.09465E+03  7.96581E+03  2.52131E+03  6.48273E+03  9.44988E+03
 -5.22869E+03  5.57346E+03 -6.96504E+03  2.54686E+03  1.97035E+01 -1.07237E+03 -1.57045E+03 -1.93873E+03
 -5.15626E+03  1.77991E+03 -1.65882E+02  2.47808E+03 -2.39499E+03 -1.86940E+02  1.23525E+02  9.33383E+00
 -1.92193E+03 -2.11261E+03  6.94660E+02 -4.99901E+03  3.40946E+03 -3.26695E+03  5.90977E+03 -2.44037E+03
 -1.18864E+03  4.48016E+03  2.36493E+03  4.16816E+03  2.25400E+03  5.05123E+03 -6.25969E+03  4.08937E+03
 -3.39852E+03  1.73382E+03 -5.32975E+03 -7.22996E+03  5.11067E+03 -6.15786E+03  2.44455E+03 -2.19531E+03
  3.57494E+03  1.15514E+03  7.55959E+03  4.22619E+03 -8.03015E+02  3.91393E+03  3.81499E+03  5.10043E+03
  4.24444E+03  2.21045E+03  3.79789E+03 -1.49813E+03  5.20973E+02  5.74175E+03  2.54151E+03  5.38573E+03
 -4.61139E+03  1.38584E+03 -3.55012E+03  6.53467E+03 -5.17486E+03  1.76706E+03 -8.61863E+03  4.03870E+02
 -9.72574E+02 -7.75845E+03  2.29469E+03 -8.10099E+03  5.86087E+03 -2.65455E+03  3.69830E+03 -1.12889E+03
  7.29653E+02  1.33971E+03  7.91270E+02  3.73781E+03 -2.23821E+03  5.27916E+03 -5.15428E+02 -1.14283E+02
 -2.68390E+03 -5.46035E+03 -1.84056E+03 -6.36598E+02  4.48738E+03 -4.39851E+03 -1.33057E+03 -2.70335E+02
 -7.37195E+01 -1.91997E+03  4.09496E+03  1.84668E+03 -4.87303E+02  1.19475E+03  3.37682E+03  1.95483E+03
 -1.25576E+03  3.48715E+02  2.08717E+03  4.21467E+03 -3.87614E+02  4.26505E+02  1.75609E+03 -5.65097E+02
 -2.81319E+03  1.13726E+02 -1.02060E+03 -6.39715E+02 -1.42190E+03 -2.33704E+03 -1.39553E+03 -2.02836E+03
  6.09738E+03 -2.55288E+03  1.74322E+03 -2.73056E+03 -7.68755E+02  4.41582E+03  2.86283E+03  2.20296E+03
  3.10980E+03 -2.54027E+03 -4.19408E+03  2.78207E+03  2.26226E+03 -1.02220E+01  1.76878E+03 -3.45718E+03
  3.59256E+02 -1.31032E+03  8.74147E+02 -4.38572E+03  4.33199E+03 -2.99818E+03  1.80372E+03  3.39689E+03
 -2.60719E+02 -2.48807E+03 -1.48366E+03 -1.90593E+02  5.34198E+03 -2.62685E+03  4.61803E+03 -6.59002E+02
  3.01995E+03  2.84949E+03  1.75258E+03  1.89312E+03  1.81060E+02 -2.21729E+03 -6.75333E+02  3.92321E+03
 -5.43285E+03  2.93196E+03 -9.60426E+02 -3.58049E+03 -3.14523E+03 -3.26607E+03 -1.51279E+03  2.72134E+03
  1.75818E+03 -9.50868E+02 -5.34378E+02 -3.53514E+03  3.00686E+03 -6.29160E+02  1.44637E+03  2.07229E+03
  2.58510E+03  1.54601E+03 -3.97347E+03  2.69173E+03 -1.35420E+02 -1.43264E+03 -3.26024E+02 -3.55347E+03
  8.75294E+02  4.47607E+03 -2.56216E+02  7.33561E+02 -2.11593E+03 -6.68664E+02 -4.33248E+03 -1.97754E+03
 -3.70506E+03 -6.71609E+03 -8.06565E+02 -6.24649E+03  9.37109E+02 -3.63415E+03  9.52943E+03 -1.11357E+03
  5.16182E+03 -1.15856E+03 -3.99431E+03  4.99721E+03  2.93251E+03  4.28189E+03  8.37631E+02 -8.96242E+02
 -4.07148E+03  5.39256E+02 -5.65854E+03 -2.22228E+03 -3.44232E+02  1.16123E+03 -3.25145E+03  1.12142E+03
 -1.41349E+02  7.50976E+02  2.32780E+03 -1.47969E+03 -7.96886E+02 -3.96549E+01 -5.15786E+03 -5.29324E+02
  2.60089E+03  1.08486E+03  2.40599E+03 -6.57452E+02 -1.82254E+03  2.51679E+00  2.77277E+03  4.86590E+03
  1.10822E+02 -2.33300E+03 -3.03618E+03  3.39181E+03 -5.66642E+03  2.04080E+03 -6.12671E+03 -1.52071E+03
  5.46368E+01 -1.28994E+03 -8.85262E+02 -5.28604E+03 -1.89876E+02 -2.69930E+03  1.53745E+03  1.11878E+03
  1.53022E+03 -1.11494E+03 -8.06991E+02  3.01718E+03 -2.79355E+03  9.55507E+01  1.14210E+03 -1.92042E+03
  7.78754E+03 -2.37999E+02  5.32187E+03  7.93280E+02  1.98148E+02  4.12329E+03  3.25213E+03  1.27476E+03
  6.22683E+02  3.32653E+03 -3.12254E+03 -8.07678E+02 -3.55002E+03  2.14676E+03  4.57595E+03 -4.39638E+03
 -4.96796E+03  8.70768E+02  2.93070E+03 -3.02032E+03  3.68865E+03 -5.64524E+02  2.49270E+03  4.89222E+02
  3.64435E+03  1.15303E+03 -1.19487E+03 -1.82131E+02 -4.84710E+02  1.97860E+03 -1.26605E+03  3.52787E+03
 -1.44710E+02  1.83927E+03 -2.04727E+03  3.28033E+03 -5.27440E+02  5.67931E+01 -2.65275E+03 -6.31765E+03
  1.14062E+03 -3.67860E+03  6.39427E+02  1.68815E+03  4.87833E+03 -1.30009E+03  3.59440E+03  3.88839E+03
 -2.27723E+02  1.92049E+03  2.34663E+03  2.77851E+03  3.23933E+03  4.90123E+03 -6.99866E+02 -3.76634E+02
