 $NMID ID='MM_0lb_SNR50_15hz_g50_90.RAW', FMTDAT='(8E13.5)'
 TRAMP=1., VOLUME=1. $END
  3.06301E+05  8.05531E+02  3.37055E+05  2.46592E+05  8.67760E+04  3.37636E+05 -1.30144E+05  2.52678E+05
 -1.92838E+05  7.93860E+04 -1.11143E+05 -3.39108E+04  3.44222E+03 -5.21538E+04  5.44041E+04  4.57107E+02
  3.68526E+04  5.52477E+04 -1.14562E+04  7.73838E+04 -6.27933E+04  6.11123E+04 -8.35899E+04  3.33345E+04
 -8.78492E+04 -1.17248E+04 -5.72605E+04 -5.55471E+04 -1.84079E+04 -7.06672E+04  2.67884E+04 -4.35222E+04
  3.88493E+04  1.23982E+03  1.66348E+04  4.66513E+04 -3.66604E+04  4.24324E+04 -6.49008E+04  6.20753E+03
 -5.35233E+04 -5.36617E+04 -4.14930E+03 -8.05913E+04  3.75456E+04 -5.43995E+04  4.72370E+04 -1.84821E+04
  4.19413E+04  1.74165E+04  2.83984E+04  2.67481E+04  1.74995E+04  2.81660E+04 -7.95888E+03  2.61971E+04
 -2.53322E+04  1.25435E+04 -1.47506E+04 -4.79979E+03  5.63106E+03 -5.05536E+03  2.66070E+04  1.44962E+04
  1.08639E+04  3.58399E+04 -3.30923E+04  3.38260E+04 -6.16830E+04 -4.12724E+03 -5.83217E+04 -4.05847E+04
 -9.43974E+03 -6.30411E+04  3.71214E+04 -4.41647E+04  5.67869E+04 -1.77644E+03  3.22284E+04  2.87389E+04
 -9.33597E+03  3.39844E+04 -2.87825E+04  1.22941E+04 -3.05724E+04 -2.10355E+03 -1.26110E+04 -6.38613E+03
 -1.04418E+04 -1.24553E+04  4.00361E+03 -1.96657E+04  9.92187E+03 -2.08633E+04  1.14357E+04 -1.65634E+04
  1.23192E+04  3.39969E+03 -7.33155E+03  1.32249E+04 -2.20753E+04 -2.72322E+03 -6.13747E+03 -2.92652E+04
  2.32987E+04 -4.81845E+04  4.68524E+04 -1.76319E+04  4.36704E+04  1.94659E+04  1.34785E+04  4.52090E+04
 -1.32743E+04  3.35005E+04 -2.48580E+04  6.74268E+02 -1.00623E+04 -3.06944E+04  2.26736E+04 -3.30590E+04
  3.83147E+04 -8.57908E+03  3.47422E+04  2.20587E+04  1.58507E+04  4.53789E+04 -6.67031E+03  5.01653E+04
 -2.78129E+04  3.64641E+04 -4.39822E+04  8.46206E+03 -4.40468E+04 -1.56759E+04 -2.46112E+04 -4.21419E+04
  6.23475E+03 -3.49957E+04  3.10060E+04 -1.33463E+04  2.85661E+04  1.30796E+04  2.13190E+02  2.07734E+04
 -1.51477E+04  9.67411E+03 -1.39958E+04 -7.18780E+03  8.93404E+03 -1.10847E+04  1.73725E+04  4.84294E+03
  1.53984E+04  2.31469E+04 -3.62437E+03  2.37456E+04 -2.04518E+04  9.51248E+03 -2.40526E+04 -2.67400E+03
 -2.43783E+04 -2.15699E+04 -6.18723E+03 -1.79250E+04  3.17129E+03 -2.27347E+04  9.08824E+03 -1.88028E+04
  2.61250E+04 -1.22974E+04  2.92128E+04  1.22002E+03  2.63721E+04  1.57472E+04  5.44888E+03  3.71265E+04
 -2.31124E+04  3.15403E+04 -2.97482E+04  5.99981E+03 -2.01230E+04 -1.05536E+04 -6.33728E+03 -7.13240E+03
  2.62862E+03 -8.10698E+02 -2.56923E+03  9.61636E+03 -1.63206E+04  7.20264E+03 -1.65401E+04 -6.90498E+03
 -1.03834E+04 -1.50153E+04  8.88667E+03 -2.33093E+04  1.12717E+04 -1.41527E+04  1.72765E+04 -5.57879E+03
  1.31281E+04  6.97609E+03  2.42519E+02  1.63821E+04 -1.22584E+04  1.38164E+04 -1.94317E+04 -3.69733E+03
 -1.47685E+04 -1.86277E+04 -3.25535E+03 -2.59082E+04  7.75339E+03 -1.94477E+04  1.78246E+04 -8.92226E+03
  1.79046E+04  1.45709E+02  1.66963E+04  4.69896E+02  3.75206E+03  2.33529E+03  6.79531E+03  1.10177E+03
  1.61871E+04  5.01543E+03  1.99137E+04  1.25832E+04  1.20571E+04  2.84127E+04  2.18352E+03  3.27518E+04
 -1.95886E+04  2.75788E+04 -3.25835E+04  1.15315E+04 -3.26524E+04 -4.65370E+03 -2.40814E+04 -2.14818E+04
 -8.38799E+03 -2.63808E+04  9.08498E+03 -2.89252E+04  1.94956E+04 -1.26271E+04  2.17362E+04  1.60143E+03
  6.98650E+03  1.46879E+04 -1.31349E+04  1.06928E+04 -1.36394E+04 -5.17908E+02 -1.66648E+04 -1.23850E+04
 -2.70098E+03 -1.51967E+04  9.56283E+03 -8.10298E+03  1.40553E+04 -1.88903E+03  2.36588E+03  5.52251E+03
 -2.98079E+03  8.36082E+02 -1.10038E+04 -6.76062E+03 -2.19276E+03 -9.20454E+03  1.09702E+04 -1.48369E+04
  1.68209E+04 -5.87258E+03  1.37191E+04  5.90038E+03  1.66546E+04  7.03251E+03  8.22013E+03  1.78525E+04
 -3.40631E+03  2.37709E+04 -1.18998E+04  1.28889E+04 -1.02971E+04  1.88160E+03 -1.03387E+04 -3.82631E+03
 -7.54914E+03 -7.63416E+03 -3.31659E+03  3.71288E+03 -6.23709E+03  6.54412E+03 -3.60046E+03 -1.78931E-01
 -1.26544E+04  1.10859E+03 -1.35358E+04 -1.42314E+04 -3.76723E+03 -2.15940E+04  2.05904E+03 -8.85469E+03
  7.38662E+03 -8.27924E+03  9.22627E+03  5.64705E+02 -1.32497E+03  7.03330E+03 -1.74853E+03  2.62618E+03
 -5.54017E+03 -8.14204E+03  3.45678E+03 -8.98128E+03  5.65954E+03 -1.22438E+04  1.43430E+04 -2.52051E+03
  1.62665E+04  1.22845E+03  9.95025E+03  8.26422E+03  4.91638E+02  1.39838E+04 -7.63972E+03  6.88592E+03
 -8.39162E+03  2.42082E+03 -4.56936E+03 -3.57769E+03  4.14250E+03 -2.34493E+02  1.92674E+03  3.39077E+03
  6.74558E+03  5.56059E+03 -1.66692E+03  7.97859E+03 -5.92102E+03  6.82655E+03 -8.83901E+03 -1.63522E+03
 -1.71058E+04 -7.59958E+03  2.58228E+03 -1.27726E+04  1.56444E+03 -5.13379E+03  7.15932E+03 -2.04905E+03
  3.33393E+03  6.61634E+03 -4.18567E+03  5.08857E+03 -1.65173E+03  1.91467E+03 -6.16886E+03  2.91102E+03
 -7.19355E+03 -1.12271E+04 -2.65270E+03 -9.50226E+03  1.42126E+04 -7.72370E+03  1.20334E+04  1.71104E+03
  8.47234E+03  6.90808E+03  2.54113E+03  1.19963E+04 -8.63635E+03  7.86109E+03 -6.21533E+03  1.61906E+03
 -5.63483E+03 -6.32699E+03 -5.46055E+02 -6.82937E+03  1.12505E+03 -7.44364E+03  9.29886E+03 -8.96088E+02
  1.01856E+03  6.69377E+03 -3.86316E+03 -1.11768E+02  1.39589E+03 -8.63786E+02  4.11597E+03 -4.75675E+03
  2.41633E+03 -1.80245E+02  7.25977E+03  1.12854E+03  6.35362E+03  2.67285E+03  2.44597E+03  3.08876E+03
 -4.03618E+03  1.73867E+04 -8.60037E+03  6.79714E+03 -1.26255E+04 -1.46170E+03 -9.85400E+03 -3.73057E+03
 -2.97713E+03 -1.06465E+04  1.94868E+03 -8.63888E+03  1.66760E+03 -3.00025E+03  3.87661E+03 -2.03047E+03
 -3.51594E+03 -2.99428E+03  6.56693E+02 -3.73412E+03  5.45964E+03  2.97035E+03  4.67484E+03 -5.46273E+02
  9.26265E+03  2.34757E+03  4.51102E+03  3.74146E+03  1.03425E+03  9.54546E+03 -3.06576E+03  3.97812E+03
 -9.53650E+03  3.32065E+02 -5.21126E+03 -4.76146E+03  8.87596E+02 -1.07793E+04  8.69845E+03 -8.56479E+03
  8.53937E+03 -6.50330E+03  7.18939E+03  1.00870E+03  5.42076E+03  1.12091E+04 -1.70585E+03  1.02432E+04
 -2.48854E+03  8.43768E+03 -7.26008E+03  6.94257E+03 -2.10334E+03  1.50647E+03 -1.74313E+03 -5.94802E+03
 -1.99815E+03  6.70233E+02  1.45174E+03  6.46771E+03 -8.02491E+03  2.19984E+03 -7.92517E+03 -2.75161E+03
  7.53318E+02 -7.22136E+03 -1.40759E+03 -9.11768E+03  1.41934E+03 -5.78500E+03  8.08054E+03 -4.27634E+03
  3.57768E+03  3.36787E+03  3.57226E+03  3.81047E+03 -4.58811E+03  3.57715E+03 -4.57686E+03  2.60877E+03
 -7.68354E+03 -1.07542E+03 -6.66327E+03 -1.61275E+03  3.06687E+03  2.88522E+02  5.47358E+03 -4.19096E+03
  6.67072E+03 -1.22164E+03  3.11389E+03  9.37941E+02  2.34589E+03  9.62472E+02  4.25977E+03  1.22334E+03
  4.86891E+03 -1.09996E+03  3.20967E+03  4.53838E+03  5.11567E+03  1.40059E+03  8.56212E+02  9.28700E+02
 -4.32999E+03 -2.66476E+03 -3.60235E+03  6.17455E+03 -6.24343E+03  2.80551E+03 -9.90261E+03 -3.13297E+03
  2.98037E+03 -5.57070E+03  3.19392E+03 -2.74228E+03  2.19535E+03 -3.36491E+03  6.54775E+03 -2.45438E+01
  5.54282E+03  4.28974E+03 -6.96151E+03  1.86923E+03 -5.29419E+02  7.64052E+03 -3.63012E+03 -1.52315E+03
 -3.28571E+03 -4.66350E+03 -3.55409E+03 -7.01075E+03 -1.23579E+03  7.48118E+01  1.26115E+02  5.68375E+03
  3.48468E+03 -6.05088E+03  7.64227E+02  2.07003E+03 -6.88054E+02  2.80642E+03  3.08681E+03 -1.85795E+03
  4.02737E+03 -1.83224E+03  7.82295E+03  2.29094E+03  2.45532E+03  5.71241E+03 -1.84098E+03  5.08403E+03
 -1.31174E+03 -6.23374E+03  7.14995E+02 -2.66292E+03 -1.62968E+02 -2.30841E+03 -3.15047E+03 -2.05103E+03
 -2.78325E+03 -4.87326E+03 -5.46594E+02 -2.86347E+03  4.77913E+03  4.01146E+02 -3.95832E+03  8.25910E+02
 -1.87227E+03 -2.28949E+03 -3.53839E+03 -3.87930E+02 -6.73383E+03  9.49212E+02  4.28741E+03 -5.17509E+03
  1.96434E+03 -5.89583E+03  4.68788E+03 -1.96761E+03  4.30356E+03 -1.97546E+03  2.43647E+03 -3.78776E+02
 -2.84806E+03  7.33348E+02 -6.55335E+03  2.15391E+03 -2.12158E+03  2.13876E+03  4.51001E+03 -3.44988E+03
  1.63618E+03 -6.50962E+02  3.36792E+03  4.78638E+03  2.11747E+03  4.13000E+03  8.54707E+02  4.92704E+02
 -7.92594E+03  3.06869E+03 -6.73012E+02  5.37089E+03  7.36290E+02 -3.02096E+03 -1.52319E+03  2.77260E+02
  3.15313E+03 -1.63455E+03  1.36302E+03  2.00120E+03  5.05772E+02  4.60319E+03  9.96984E+02  9.21238E+03
 -7.22365E+02 -3.44704E+02 -4.16367E+02  1.82722E+03  1.50782E+03 -4.53965E+03  5.91006E+00  2.22233E+03
 -2.89211E+02  1.13610E+03 -6.25499E+03 -2.88354E+02 -3.29686E+03  5.00341E+03 -1.99851E+03  5.76581E+02
 -1.79661E+03 -3.92026E+03  1.96420E+03 -5.12279E+03  2.05744E+03 -3.26473E+03  1.33758E+03 -3.64541E+03
  6.80577E+03  1.93583E+03  1.16964E+03  4.17640E+03 -3.87561E+03  3.60080E+03 -7.72026E+02  3.80629E+03
 -2.56183E+03 -4.88020E+03 -9.98987E+02 -2.66965E+03 -1.26637E+03  5.28141E+03  2.87416E+00  2.83370E+03
 -2.16158E+03  2.04884E+03 -4.22868E+03  1.00058E+03 -2.43541E+03 -2.23004E+03 -1.34229E+03 -3.00423E+03
  3.63203E+03 -1.07060E+03  2.63333E+03  3.91139E+02  3.61432E+03 -1.13183E+03  1.60612E+03  3.13163E+03
  5.71969E+02  5.87357E+03 -3.43145E+02  2.21347E+03 -6.54607E+03 -3.52635E+03 -2.97923E+03 -3.76760E+03
 -9.94871E+02 -2.72181E+03  4.25680E+01  1.35686E+03  1.12103E+03  8.73841E+02  3.15768E+03 -1.74968E+03
 -1.34446E+03  4.27729E+03  1.10946E+02  5.24082E+03 -1.51727E+02 -3.72666E+03  7.46459E+02 -2.45571E+03
 -3.03230E+03  2.38407E+03  2.15035E+03 -4.10561E+03 -3.00668E+03  2.37723E+02  3.42137E+03  2.25170E+03
 -9.83555E+02 -2.09801E+03  1.87862E+02  3.35497E+03 -1.59646E+03 -6.05223E+02 -2.86297E+03 -2.06492E+02
 -2.64157E+03  2.45327E+02 -4.03482E+02 -8.02747E+02  1.12167E+02 -1.20238E+01 -9.68849E+02  1.98549E+03
 -4.84663E+03 -2.43240E+03  2.43264E+02  2.13622E+03 -9.56913E+02 -1.47418E+03 -3.29008E+03  1.17287E+03
  1.73713E+03  3.33238E+03 -4.22482E+03  4.10552E+03 -1.30161E+03  5.80705E+02 -1.77375E+03 -1.35216E+03
 -2.56110E+03 -3.35705E+03 -1.07742E+03 -2.54710E+03  5.07675E+03  3.49982E+03  8.35173E+02 -1.81427E+03
 -2.71216E+02  3.70799E+03  1.83687E+03  5.12227E+03 -2.28753E+03 -1.04147E+03 -6.55819E+02 -7.94470E+02
