 $NMID ID='MM_0lb_SNR50_7hz_g50_37.RAW', FMTDAT='(8E13.5)'
 TRAMP=1., VOLUME=1. $END
  3.13225E+05  5.01496E+03  3.46998E+05  2.49679E+05  7.26949E+04  3.43445E+05 -1.30294E+05  2.57804E+05
 -1.95556E+05  8.63066E+04 -1.10733E+05 -3.01798E+04 -2.69267E+02 -4.85443E+04  4.75352E+04 -1.01101E+03
  3.30452E+04  5.24261E+04 -1.79389E+04  6.25950E+04 -6.58636E+04  5.88617E+04 -8.64551E+04  3.68685E+04
 -8.87210E+04 -1.45272E+04 -5.72287E+04 -5.84127E+04 -1.53915E+04 -7.77459E+04  2.85285E+04 -4.69199E+04
  4.56565E+04  1.21929E+04  1.40240E+04  5.82825E+04 -3.34165E+04  4.35214E+04 -6.77610E+04 -6.54414E+02
 -5.96290E+04 -6.07738E+04 -7.95719E+03 -7.97132E+04  3.30996E+04 -6.24999E+04  4.98439E+04 -1.43483E+04
  4.30638E+04  1.23631E+04  2.82069E+04  2.27129E+04  1.63403E+04  2.57403E+04  1.23162E+03  4.00066E+04
 -2.62102E+04  1.26862E+04 -2.16877E+04 -1.28413E+04  8.46760E+03 -7.71568E+03  2.36525E+04  1.60337E+04
  9.19514E+03  3.56712E+04 -2.61351E+04  3.78809E+04 -7.03551E+04 -2.23294E+03 -5.80171E+04 -4.50536E+04
 -1.35144E+04 -6.84071E+04  3.69657E+04 -4.67829E+04  6.19725E+04 -7.63454E+03  4.32409E+04  3.94111E+04
  3.54337E+03  4.18428E+04 -3.18573E+04  1.90941E+04 -3.04784E+04 -1.13077E+04 -1.74316E+04 -1.38118E+04
 -1.12975E+04 -1.12623E+04  8.49226E+03 -2.66298E+04  1.54780E+04 -2.18886E+04  1.14494E+04 -1.29830E+04
  1.23211E+04  5.93024E+03 -8.77989E+03  1.57198E+04 -2.14849E+04 -1.26579E+04 -8.85314E+03 -4.11866E+04
  2.47359E+04 -4.81348E+04  5.39751E+04 -2.15644E+04  4.90666E+04  1.48909E+04  1.74115E+04  4.38733E+04
 -1.83613E+04  3.30592E+04 -2.10416E+04 -2.27440E+02 -9.46340E+03 -3.02332E+04  2.55288E+04 -3.66754E+04
  4.88497E+04 -5.32290E+03  3.63056E+04  3.12405E+04  2.45222E+04  5.46831E+04 -1.12011E+04  5.65600E+04
 -3.96557E+04  3.86413E+04 -5.02423E+04  1.19583E+04 -4.95042E+04 -1.91497E+04 -2.34424E+04 -3.95757E+04
 -1.06211E+03 -4.03247E+04  3.03015E+04 -1.51413E+04  3.18270E+04  9.22480E+03  7.88122E+03  2.22737E+04
 -1.38722E+04  6.00040E+03 -1.47520E+04 -9.41448E+03  1.64901E+03 -1.56284E+04  1.76030E+04  5.21049E+03
  7.31943E+03  2.72249E+04 -6.35496E+03  2.97586E+04 -2.18335E+04  1.32127E+04 -2.61866E+04 -6.27257E+02
 -2.02094E+04 -2.05494E+04 -8.97777E+03 -1.91453E+04  9.50128E+03 -2.42831E+04  2.33819E+04 -2.15485E+04
  3.36421E+04 -1.26006E+04  4.20903E+04  4.56840E+03  2.89355E+04  3.10559E+04  8.78272E+03  4.80814E+04
 -2.36304E+04  3.67108E+04 -3.01305E+04  8.24017E+03 -2.12885E+04 -1.34222E+04 -6.01774E+03 -1.47311E+04
 -7.53936E+01  1.82461E+03 -7.44119E+02  1.19768E+04 -1.87360E+04  6.82876E+03 -2.78134E+04 -1.30387E+04
 -1.35026E+04 -2.54230E+04  6.04733E+03 -2.70143E+04  1.46983E+04 -1.69922E+04  1.84690E+04 -5.23834E+03
  1.42725E+04  1.57109E+04 -1.92401E+03  2.91932E+04 -1.57260E+04  1.47092E+04 -2.31505E+04 -8.79586E+03
 -2.13143E+04 -2.73394E+04 -5.21619E+03 -3.02255E+04  1.23736E+04 -2.48252E+04  2.69440E+04 -1.36754E+04
  2.25916E+04  1.95541E+03  1.50359E+04  8.90100E+03  1.12740E+04 -3.28929E+02  1.69029E+04 -3.34775E+03
  2.03397E+04  7.01259E+03  3.42828E+04  1.79858E+04  2.37535E+04  3.81826E+04 -2.71594E+03  5.08931E+04
 -1.99545E+04  3.96815E+04 -4.65542E+04  2.18954E+04 -4.96588E+04  1.27853E+03 -3.69388E+04 -2.58128E+04
 -1.75610E+04 -4.73757E+04  1.67282E+04 -3.47653E+04  3.16137E+04 -2.04787E+04  3.01750E+04  7.29196E+03
  1.10708E+04  2.30666E+04 -1.91933E+04  1.63178E+04 -2.40099E+04  4.73873E+03 -2.15291E+04 -6.99619E+03
 -6.53199E+03 -2.70201E+04  1.06849E+04 -1.38622E+04  2.05979E+04  7.60394E+03  6.21706E+03  1.17768E+04
 -1.31379E+04  5.91081E+03 -1.83022E+04 -7.94393E+03 -5.90261E+03 -2.43246E+04  1.00346E+04 -2.20817E+04
  2.51183E+04 -1.32456E+04  2.58022E+04  5.72420E+03  2.97474E+04  2.37758E+04  7.93905E+03  3.06677E+04
 -8.05338E+03  3.39808E+04 -2.78034E+04  2.73950E+04 -3.06464E+04  2.76251E+02 -2.23420E+04 -1.04059E+04
 -6.28959E+03 -7.51488E+03 -9.18552E+02 -4.03678E+03 -9.45336E+03  3.05250E+03 -1.17223E+04  8.00195E+03
 -1.77185E+04 -5.53269E+03 -9.74769E+03 -1.77857E+04 -9.39900E+03 -1.08067E+04  7.54209E+03 -2.02879E+04
  1.29573E+04 -2.62780E+03  1.01028E+04  1.43167E+04 -9.49799E+03  9.03322E+03 -9.33110E+03 -1.73989E+03
 -8.16013E+03 -6.18693E+03 -5.47242E+03 -1.97296E+04  9.02764E+03 -1.92909E+04  1.84107E+04 -1.44363E+04
  2.54175E+04 -5.92444E+02  2.06696E+04  1.89662E+04  4.67271E+03  2.59444E+04 -1.70097E+04  1.65306E+04
 -1.47746E+04  5.88998E+03 -1.01589E+03 -1.22501E+03  6.86902E+03 -4.76258E+03  9.74408E+03  4.71071E+03
  1.01065E+04  9.72277E+03  5.58971E+02  2.10431E+04 -1.42739E+04  9.51189E+03 -1.67383E+04 -2.95908E+03
 -1.95334E+04 -8.59679E+03  4.72338E+03 -1.74181E+04  8.50571E+03 -1.00914E+04  7.74511E+03  6.33110E+03
  8.60017E+03  1.27352E+04 -3.17326E+03  1.63869E+04 -1.82770E+04  6.13985E+03 -2.00190E+04 -4.59046E+03
 -1.14586E+04 -1.89045E+04  5.99957E+03 -2.12286E+04  1.62987E+04 -1.61194E+04  1.76766E+04  7.56055E+03
  1.50592E+04  2.09406E+04  5.05449E+03  1.75306E+04 -5.51909E+03  1.56317E+04 -2.08573E+04 -1.26334E+04
 -9.49140E+03 -1.80749E+04 -3.48796E+03 -9.02884E+03  4.39772E+03 -1.18411E+04  1.29298E+04 -1.23105E+04
  1.11511E+04  9.90443E+03 -5.93167E+03  6.52916E+03 -4.75440E+03  2.13084E+03  8.14118E+03 -8.34282E+03
  1.52805E+04 -4.26117E+03  2.34905E+04  2.23789E+03  1.95697E+04  1.29004E+04  2.29606E+04  2.33139E+04
  2.55694E+02  3.13189E+04 -2.36825E+04  1.70629E+04 -3.05496E+04 -9.47163E+02 -2.70001E+04 -8.93827E+03
 -1.31171E+04 -2.14856E+04 -4.49224E+03 -1.51145E+04  1.33159E+04 -1.43554E+04  5.71802E+03 -1.70168E+04
  1.61270E+03 -2.72097E+03  8.96281E+03 -7.87447E+03  1.75473E+03 -8.13565E+03  7.07636E+03 -4.90377E+03
  1.35892E+04  3.04713E+03  6.70462E+03  3.53767E+03  1.95939E+03  1.37961E+04 -1.64630E+04  1.37772E+04
 -1.50160E+04 -4.97869E+03 -2.16822E+04 -1.66134E+04 -3.00593E+03 -2.18859E+04  8.41538E+03 -1.95512E+04
  2.63268E+04 -1.09269E+04  2.31953E+04  4.45401E+03  2.19075E+04  2.04185E+04  3.39685E+03  1.82942E+04
 -5.54952E+03  1.54704E+04 -1.95640E+04  1.49077E+03 -1.44758E+04 -7.42391E+03 -4.52248E+03 -5.59690E+01
 -7.00304E+02 -1.99943E+03 -3.62412E+02  4.81621E+03 -1.39878E+04 -1.27111E+03 -9.96049E+03 -3.83699E+03
 -7.03093E+03 -3.58008E+03 -5.69589E+03 -1.82484E+04  6.46603E+03 -1.50350E+04  2.74096E+04 -2.24701E+03
  1.42981E+04  6.99526E+03  1.27611E+04  1.50193E+04 -8.22120E+03  1.47496E+04 -1.73029E+04  1.41195E+04
 -1.71009E+04  1.56507E+03 -1.49005E+04 -1.53770E+04 -4.16059E+03 -1.21530E+04  4.33532E+03 -1.13194E+04
  1.76204E+04  8.39249E+02  1.08457E+04  1.99979E+03  5.92627E+01  3.13821E+03  8.06369E+02  6.84613E+03
  4.29089E+03 -3.77503E+03  6.13120E+03  9.59005E+03  5.39826E+03  5.55084E+03  1.36020E+04  1.77066E+04
  3.25680E+03  1.66848E+04 -1.85738E+04  1.62640E+04 -2.67797E+04 -1.92156E+02 -2.47117E+04 -7.09055E+03
 -9.91582E+03 -2.25294E+04  4.62173E+02 -2.54141E+04  1.06970E+04 -1.33805E+04  1.72255E+04 -7.62227E+03
  1.61417E+04  1.26106E+03  1.24241E+03  1.46699E+04 -1.03935E+04  8.81929E+03 -3.51999E+03  1.30619E+03
 -1.43856E+03 -1.23204E+04  1.19954E+04 -7.22654E+03  8.25218E+03 -5.48351E+03  1.09799E+04  4.86296E+03
  2.37819E+03  4.91871E+03  4.65649E+03  8.14025E+03 -1.43456E+03  7.85862E+02 -1.05466E+03 -4.50002E+03
  7.33125E+03 -7.06919E+03  9.17835E+03  5.71415E+03  4.71081E+03  1.45836E+04 -2.65154E+03  5.85507E+03
 -4.37999E+03  2.00007E+04 -9.18718E+03  5.36419E+03 -1.36556E+04 -1.08904E+04 -9.52225E+03 -6.91987E+03
 -6.89137E+02 -1.13430E+04  5.29474E+03 -6.44245E+03  1.05644E+04  4.49962E+03 -1.04784E+04  1.14271E+04
 -2.44013E+03  8.43481E+02 -1.34558E+04 -3.89162E+03 -3.82538E+03 -7.26420E+03  1.74091E+03 -1.08915E+04
  3.10553E+03 -7.04460E+03  1.24242E+04 -2.81604E+03  8.57447E+03 -4.68008E+02 -2.90625E+03  5.98336E+03
 -3.79802E+03 -2.65886E+03 -9.89478E+03 -4.55466E+03  8.34928E+03 -1.36633E+04  1.03227E+04 -5.60862E+03
  9.70412E+03 -2.81070E+03  1.24317E+04  9.76403E+03  1.02799E+04  9.57034E+03 -3.08649E+03  1.20397E+04
 -7.28856E+03  6.08022E+03 -8.26679E+03  1.98127E+01 -9.10760E+03 -1.70810E+04  1.84535E+03 -1.10519E+04
  1.00469E+04 -5.88296E+02  1.23060E+04  2.95370E+03  4.69270E+03  5.05493E+03 -3.73128E+03  9.64929E+03
 -1.13252E+04  5.27910E+03 -6.11495E+03  4.29883E+03  5.54546E+03  8.75047E+03 -1.09057E+03 -1.25280E+03
 -2.46126E+03  1.09706E+04 -9.39732E+03  2.83147E+03 -1.11119E+04 -6.38883E+03 -8.67063E+03 -1.32346E+04
 -7.46854E+03 -1.77425E+04  6.29722E+02 -2.00306E+04  1.14656E+04 -1.33838E+04  2.07494E+04 -8.98446E+03
  2.52242E+04 -3.30616E+03  9.49534E+03  1.68912E+04  2.27803E+03  1.75256E+04  1.35325E+03  1.21911E+04
 -1.21780E+04  2.21321E+02 -4.92769E+03 -2.69512E+03  6.99783E+02 -5.11917E+03 -4.38772E+03 -3.50650E+03
 -2.77057E+03 -2.70855E+03 -2.56160E+01  7.28530E+03 -1.14680E+03 -4.41574E+03  3.54063E+02 -5.63730E+03
  5.29416E+03 -9.83320E+03  7.15647E+03 -2.43901E+03  8.20447E+03  3.03394E+03  4.70130E+03  1.57099E+04
 -3.83717E+03  1.23685E+04 -2.15502E+04  8.49181E+03 -1.78025E+04 -1.14267E+04 -1.11098E+04 -9.07560E+03
 -5.48604E+03 -1.35449E+04  4.32270E+03 -1.67410E+04  1.06298E+04 -1.36513E+04  7.86008E+03  1.58179E+03
  9.40654E+03  3.80507E+03  7.15832E+03  1.00973E+04 -4.71498E+03 -3.50806E+03  3.20741E+03  4.05293E+03
  6.79477E+03 -1.17716E+03  1.15130E+04  3.39558E+03  5.28427E+03  3.91891E+03 -1.64088E+03  2.09038E+04
 -1.46140E+03  6.56406E+03 -1.25182E+04  1.75371E+03 -1.18434E+04 -4.97075E+03  4.47088E+03 -1.11446E+04
  1.16269E+04 -1.17511E+04  7.75981E+03 -2.29373E+03  1.35992E+04  1.08392E+04  6.08680E+03  6.15986E+03
  2.53097E+03  6.12004E+03 -8.35999E+03  8.31025E+03 -2.70670E+03  6.89221E+03 -7.89638E+03  1.67719E+03
 -4.13789E+03 -4.57561E+03 -7.17370E+03  3.53054E+03 -7.59701E+03  4.14284E+03 -2.97071E+03  1.25395E+01
 -8.04479E+03 -8.81935E+03 -7.89112E+02 -1.66004E+04 -2.71052E+02 -1.78272E+04  4.23826E+03 -7.14236E+03
  8.16402E+03  5.22418E+03  5.88083E+03  2.95857E+03 -1.81518E+03  9.23386E+03 -1.05432E+03  5.94036E+03
