 $NMID ID='MM_0lb_SNR50_19hz_g60_3.RAW', FMTDAT='(8E13.5)'
 TRAMP=1., VOLUME=1. $END
  3.09713E+05  8.00560E+02  3.38737E+05  2.45044E+05  8.73208E+04  3.36822E+05 -1.28573E+05  2.47189E+05
 -1.95473E+05  8.13082E+04 -1.09295E+05 -3.47313E+04  7.64481E+02 -4.37148E+04  5.25807E+04  3.42092E+03
  3.45302E+04  4.90403E+04 -1.82526E+04  7.66446E+04 -5.82813E+04  6.47309E+04 -8.49165E+04  3.22505E+04
 -8.15402E+04 -1.20514E+04 -6.14993E+04 -4.86709E+04 -1.41169E+04 -6.99222E+04  2.46033E+04 -4.33429E+04
  3.78443E+04 -9.59770E+02  1.70475E+04  4.54336E+04 -3.38945E+04  4.38176E+04 -6.56857E+04  4.99014E+02
 -5.38494E+04 -5.34744E+04 -7.04219E+03 -7.64590E+04  3.19201E+04 -5.56370E+04  5.23114E+04 -1.35988E+04
  4.35540E+04  1.46964E+04  3.11349E+04  2.42742E+04  1.49915E+04  2.81207E+04 -3.35984E+03  2.45121E+04
 -2.02394E+04  9.67241E+03 -2.28785E+04 -4.38507E+03  4.03507E+03 -9.31668E+03  2.21536E+04  1.36093E+04
  1.04064E+04  3.48097E+04 -3.23176E+04  3.33922E+04 -6.36502E+04 -4.82436E+01 -5.80471E+04 -3.79940E+04
 -1.26594E+04 -6.03338E+04  3.59346E+04 -4.29813E+04  5.58405E+04 -1.44427E+03  3.60354E+04  2.84779E+04
 -8.62626E+03  3.24257E+04 -3.05768E+04  1.51667E+04 -2.93835E+04 -3.43869E+03 -1.70660E+04 -1.05843E+04
 -4.08463E+03 -1.11622E+04  3.27910E+02 -1.80178E+04  8.10030E+03 -2.72166E+04  2.12585E+04 -1.52746E+04
  1.13452E+04  8.87403E+03 -8.57226E+03  1.13618E+04 -1.69607E+04 -3.33221E+03 -6.42174E+03 -2.98656E+04
  2.50580E+04 -4.17993E+04  4.59706E+04 -2.45273E+04  4.46629E+04  2.04689E+04  1.42571E+04  4.21643E+04
 -1.44391E+04  2.82104E+04 -2.36262E+04 -2.83384E+02 -8.00539E+03 -2.51074E+04  1.85317E+04 -3.23447E+04
  3.86320E+04 -8.06594E+03  2.99930E+04  2.13916E+04  1.65441E+04  4.02896E+04 -9.35301E+03  4.67282E+04
 -3.11869E+04  3.22249E+04 -4.10205E+04  1.26761E+04 -3.93045E+04 -1.74082E+04 -2.19333E+04 -3.97496E+04
  5.72767E+03 -3.56092E+04  2.77196E+04 -9.65209E+03  2.79602E+04  1.38451E+04  3.83254E+03  1.59867E+04
 -1.30694E+04  5.37568E+03 -1.51505E+04 -9.02216E+03  6.10464E+03 -1.06380E+04  1.53153E+04  6.00257E+03
  1.22998E+04  2.61506E+04 -2.69381E+03  2.24225E+04 -2.22779E+04  9.84457E+03 -2.43800E+04 -6.24538E+03
 -1.73302E+04 -1.59431E+04 -8.95321E+03 -1.47945E+04  1.40810E+03 -1.79598E+04  1.24716E+04 -1.56564E+04
  2.16363E+04 -1.10332E+04  3.21146E+04  1.18431E+03  2.40609E+04  1.44066E+04  3.37071E+03  3.21120E+04
 -1.52754E+04  2.73792E+04 -2.50820E+04  8.96734E+03 -2.01527E+04 -1.15576E+04 -3.76698E+03 -1.50354E+04
  2.23363E+03 -5.83799E+03 -5.73505E+02  6.00796E+03 -1.85128E+04  4.02150E+03 -1.20617E+04 -6.12866E+03
 -8.30087E+03 -1.49586E+04  7.64532E+03 -2.12268E+04  9.22461E+03 -1.54920E+04  1.47132E+04 -1.64769E+03
  8.59521E+03  1.44163E+04  1.20051E+03  1.56250E+04 -8.67785E+03  7.88473E+03 -1.87362E+04 -2.56235E+03
 -1.21737E+04 -1.89178E+04  6.71137E+02 -2.14012E+04  7.35132E+03 -1.50132E+04  1.72021E+04 -9.78647E+03
  1.57303E+04 -1.21219E+03  1.02213E+04  3.19610E+03  1.03506E+04  5.08285E+02  5.21190E+03 -5.84871E+02
  1.47361E+04  8.19113E+02  1.37546E+04  9.97078E+03  1.23822E+04  3.07203E+04 -4.75906E+03  2.58054E+04
 -1.79518E+04  2.44811E+04 -2.11189E+04  1.08601E+04 -2.53237E+04 -2.48242E+03 -2.42847E+04 -1.68260E+04
 -8.63693E+03 -2.18410E+04  8.97472E+03 -2.42447E+04  1.87464E+04 -4.79572E+03  1.38876E+04  6.65301E+03
  9.59034E+03  7.64942E+03 -8.73974E+03  9.59537E+03 -1.41812E+04  5.33878E+03 -1.21271E+04 -1.08331E+04
 -3.81452E+03 -9.16300E+03  7.87904E+03 -8.15797E+03  8.74468E+03 -2.94862E+03  4.82212E+03  5.33336E+03
 -5.77046E+03  3.73074E+03 -5.33276E+03 -8.58005E+03 -3.26848E+03 -1.21406E+04  1.18645E+04 -1.08779E+04
  1.08447E+04 -2.57245E+03  1.43936E+04  7.68828E+02  1.12121E+04  1.42581E+04 -4.77967E+02  1.42221E+04
 -1.92659E+03  2.00217E+04 -7.38869E+03  1.47914E+04 -9.56782E+03 -3.28069E+03 -6.81615E+03 -7.48350E+02
 -6.56009E+03 -3.58092E+03 -3.67930E+03 -1.65607E+03 -6.38388E+03  5.31529E+03 -3.23237E+03  6.22765E+03
 -6.38109E+03 -1.16183E+03 -2.31034E+03 -4.23987E+03 -4.06915E+03 -8.85572E+03  1.27051E+03 -7.78753E+03
  3.96631E+03 -8.08009E+03  2.71648E+03  3.37528E+03  3.91771E+03  4.21851E+02 -2.49430E+03 -4.45331E+02
 -4.64251E+03 -1.10948E+03 -4.83344E+02 -6.92770E+03  8.52091E+03 -8.42826E+03  1.42233E+04 -2.88831E+03
  1.29171E+04  4.99430E+02  8.88332E+03  4.63920E+03  2.95104E+03  9.87707E+03 -4.23287E+03  9.92935E+03
 -5.28265E+03  1.30542E+02 -1.68718E+03 -3.79454E+02 -2.24425E+03 -2.78691E+03  3.11057E+03 -1.34970E+02
  3.33468E+03  1.99264E+03  3.34120E+03  3.92201E+03 -6.28189E+03  4.58393E+03 -4.36549E+03  9.42716E+02
 -6.29945E+03 -3.28333E+03  7.22972E-01 -6.42778E+03  4.33052E+03 -4.20358E+03  2.23919E+03  3.11085E+03
  4.25322E+02  6.06320E+03  4.14171E+01  1.75904E+03 -4.72831E+03 -2.51765E+03 -4.75310E+03 -2.77032E+03
 -2.87201E+03 -4.63333E+03  2.86629E+03 -5.67031E+03  4.10028E+03 -6.18359E+03  1.05122E+04  3.69089E+03
  4.72406E+03  1.35262E+03  7.54043E+02  5.41681E+03 -5.94209E+03  2.67262E+03  3.62607E+03 -1.89951E+03
 -8.06626E+03 -6.88526E+03 -9.93531E+02 -5.90077E+03  3.65746E+03 -4.08245E+03  4.05529E+03 -3.07527E+03
 -2.06550E+03  5.05886E+03  2.46281E+03  7.46280E+02 -1.63071E+03 -3.44473E+03 -1.45484E+03  3.99955E+01
  2.10331E+03 -4.48001E+03  7.78635E+03 -4.18895E+03  6.99208E+03  4.54304E+03  5.75977E+03  7.73926E+03
 -1.57127E+03  8.91686E+03 -8.47932E+03  1.05310E+04 -1.02343E+04  1.58640E+03 -1.10224E+04 -6.04650E+03
 -4.95921E+03 -1.04493E+04  2.25343E+02 -1.27855E+04  4.65241E+02 -1.04449E+03  4.50180E+03 -1.89217E+03
  4.69999E+02 -6.68837E+02 -2.63926E+02  1.42853E+02  4.54966E+03 -4.03200E+03  2.46181E+03  1.79381E+03
  2.86648E+03  1.32960E+03  1.63222E+03  4.03272E+03  2.42289E+02  2.17555E+03 -6.73774E+03 -5.07215E+02
 -4.05147E+03 -6.04628E+02 -2.57336E+02 -4.75098E+03  3.55746E+03 -5.15809E+03  1.34705E+03 -6.75739E+03
  5.02647E+03 -3.39971E+03  5.63117E+03  1.31555E+03  3.21515E+03  4.77361E+03  2.09080E+03  5.54622E+03
 -3.00151E+03  6.80702E+03 -3.57840E+03  2.35954E+03 -3.09663E+03 -1.01549E+03  3.47455E+03  1.53829E+03
 -2.64015E+03  3.69175E+03 -1.53410E+03  3.25181E+03 -3.11411E+03  3.92074E+03 -4.18529E+03 -6.39188E+03
 -2.78933E+03 -4.38515E+03 -1.46113E+03 -3.32008E+03  4.07421E+03 -4.61954E+03  4.22804E+03 -8.86353E+02
  4.36455E+03  4.83036E+03 -2.62234E+01  1.77531E+03 -3.03337E+03  2.74979E+03 -2.94848E+03  3.19588E+03
 -9.23764E+02 -1.85653E+03 -2.44754E+03 -2.30637E+01  2.18243E+03 -3.10150E+03  6.92962E+02  1.53101E+03
  7.11425E+03  2.37726E+03  1.46993E+03  3.49330E+02  2.27015E+03  7.46370E+03 -2.08389E+03  1.38251E+03
  3.35219E+03  2.93396E+03  9.67064E+02  2.46302E+03  4.75371E+03  3.69656E+03  7.48128E+02  9.91153E+03
  2.15093E+03  3.96954E+03 -2.35704E+03  6.65111E+03 -2.42332E+03 -3.15874E+03 -4.44819E+03  1.75067E+02
 -1.13358E+02 -4.80281E+03  2.22425E+03 -2.70189E+03  1.14078E+03 -6.99066E+03  3.58823E+03  2.32643E+03
  5.40636E+02 -6.34041E+02  3.16186E+03  2.49090E+03 -2.71767E+03  1.61080E+03 -3.46755E+03 -4.03918E+03
  4.74963E+03 -2.97753E+03  4.31816E+03 -5.09977E+03  7.30614E+02  4.20082E+03 -7.85433E+02  3.17470E+03
  3.82369E+02  2.76228E+02  1.07651E+03 -6.88060E+03  1.57278E+03  1.10799E+03 -1.96922E+02 -4.30400E+03
  2.42344E+03  2.10400E+03  4.21858E+03  2.05202E+03  4.87757E+02  2.12410E+03 -2.85234E+03  1.19695E+03
 -7.54282E+02  7.63631E+02 -7.95362E+02  7.77533E+02 -4.52457E+03 -2.29480E+03  2.22222E+03  2.69002E+03
  2.62638E+02  5.84765E+02  3.34702E+01  1.73952E+03 -1.23024E+02 -1.88678E+03 -2.79248E+02 -9.79775E+02
  1.25608E+03 -1.70886E+03 -2.78002E+03 -3.60998E+03 -6.26774E+02 -2.62998E+03  3.91428E+03 -9.62588E+02
  7.24178E+02 -1.23967E+03 -2.36624E+02  8.54568E+02  1.43638E+03 -5.12022E+03  5.89367E+02  1.47366E+03
 -1.99370E+03 -1.71558E+03  2.59972E+02 -2.92005E+03 -9.82804E+02 -7.28266E+02  3.58743E+03  2.80492E+03
  4.35311E+03 -5.62699E+03  1.41429E+03  3.69904E+03  1.52164E+03  5.08235E+02 -7.85413E+01  4.07562E+03
  2.16855E+03 -1.56451E+03 -6.76012E+02 -1.56331E+03 -2.89778E+03 -3.03985E+03  3.30941E+01  3.07328E+03
  2.74736E+02  2.51751E+03  1.42036E+03  7.68261E+02 -3.48344E+02  1.58849E+03 -1.62944E+03  1.95181E+03
 -4.77781E+03 -3.15759E+03 -2.83725E+03  4.93979E+03  1.10923E+03  2.58374E+03  6.59777E+02 -8.16916E+02
  2.27258E+03 -2.96150E+02 -1.00205E+03  4.93414E+03 -1.48879E+03 -1.72984E+03 -2.05493E+03  1.33665E+03
  3.53673E+03 -3.53975E+03  1.10308E+03 -3.79528E+03 -2.75174E+03  2.14404E+03  4.56897E+03 -2.38581E+03
  2.89118E+03 -1.16850E+03 -5.22453E+02 -1.59741E+03  1.90584E+03 -1.60211E+03  5.24760E+02  1.62755E+03
 -4.23019E+03  9.69734E+02 -5.48041E+03 -3.69090E+02  1.60710E+03 -1.38451E+03  7.45358E+02 -3.46775E+02
  3.37804E+03  1.65523E+03 -8.30819E+02  2.39194E+03  9.98344E+02  2.26086E+03 -1.02974E+03 -1.15755E+03
  1.67469E+03 -9.01077E+02 -2.66749E+03 -1.91234E+03  3.67551E+03  3.45043E+03 -3.77773E+03 -1.66886E+03
 -2.07515E+03 -1.04470E+03 -5.07172E+02  3.95219E+01 -3.05125E+03  6.42774E+02  9.93066E+02  2.66238E+03
 -2.32434E+03 -9.79300E+02 -2.07721E+03  1.48681E+03  2.38631E+02  5.81551E+01  2.32963E+03  2.23322E+03
  2.37454E+03  1.10576E+03  3.77556E+03 -1.54034E+03  2.11882E+03 -5.06938E+02 -2.04537E+02  4.08179E+02
 -5.06027E+02  4.40988E+03  3.99591E+03 -9.73165E+02  3.42167E+03 -2.11103E+03  1.54369E+03  1.39514E+01
  1.86685E+03 -1.67089E+03  3.54719E+03 -3.00124E+03 -2.27275E+03 -9.73155E+02 -2.80885E+03 -3.56083E+03
  5.84240E+03 -4.14313E+03  1.54486E+03 -2.62802E+03 -2.33320E+03  9.10655E+02  1.03571E+03  3.78137E+02
 -2.21324E+03  1.32465E+03 -1.02272E+03 -5.15126E+03 -4.40123E+03 -3.30060E+03 -4.06404E+03 -2.59437E+02
  4.09144E+03  3.34848E+02  1.43926E+03 -4.10876E+03  5.07447E+02  1.42003E+03  1.17406E+03  5.50882E+02
 -1.49346E+03  1.30126E+03  1.04344E+03 -1.95594E+03  1.06393E+02  2.16905E+03  1.36643E+03 -3.05813E+03
  4.40371E+03 -1.52377E+03  1.08988E+03  6.45982E+01  5.70808E+02 -1.63401E+03 -3.16999E+03  1.02710E+03
