 $NMID ID='MM_0lb_SNR50_15hz_g55_89.RAW', FMTDAT='(8E13.5)'
 TRAMP=1., VOLUME=1. $END
  3.12388E+05  1.80548E+03  3.37466E+05  2.51785E+05  8.45214E+04  3.35872E+05 -1.32104E+05  2.51159E+05
 -1.88539E+05  8.20786E+04 -1.14393E+05 -3.46663E+04 -1.64104E+03 -5.45968E+04  5.15935E+04 -2.88395E+03
  3.39870E+04  5.15639E+04 -1.22473E+04  7.61243E+04 -5.71589E+04  6.11748E+04 -8.37622E+04  3.19085E+04
 -7.94940E+04 -1.47248E+04 -5.40170E+04 -5.63532E+04 -8.84811E+03 -7.23744E+04  2.23588E+04 -4.42103E+04
  4.13803E+04 -8.93974E+01  1.57951E+04  4.47096E+04 -3.95829E+04  4.49688E+04 -6.55485E+04  8.30867E+02
 -5.62749E+04 -5.24553E+04 -1.08396E+04 -7.64425E+04  3.16506E+04 -5.74073E+04  4.62682E+04 -1.45444E+04
  4.39278E+04  1.09714E+04  3.17706E+04  2.56183E+04  1.48889E+04  2.97523E+04 -3.10722E+02  2.71174E+04
 -2.28076E+04  1.06468E+04 -1.88457E+04 -5.09843E+03  5.00727E+03 -3.38036E+03  2.37728E+04  1.63190E+04
  9.24448E+03  3.70193E+04 -3.32277E+04  3.52549E+04 -6.17524E+04  2.94645E+03 -5.35764E+04 -4.52918E+04
 -1.33146E+04 -6.25440E+04  4.57513E+04 -4.49526E+04  5.93646E+04 -2.86258E+03  2.89889E+04  3.22399E+04
 -2.64070E+03  3.29745E+04 -2.85558E+04  1.88563E+04 -2.42148E+04 -9.47257E+03 -2.19288E+04 -1.20245E+04
 -1.29433E+04 -1.91472E+04  1.55014E+03 -1.74607E+04  8.26588E+03 -2.39448E+04  1.86598E+04 -1.59530E+04
  1.25101E+04  4.06088E+03 -7.81212E+03  1.09617E+04 -2.59614E+04 -5.23456E+03 -1.10170E+04 -3.51537E+04
  1.74721E+04 -4.35152E+04  5.35328E+04 -2.02633E+04  4.68132E+04  1.60312E+04  1.61589E+04  4.01045E+04
 -1.36172E+04  3.41021E+04 -2.39345E+04  9.59648E+03 -1.26901E+04 -3.23920E+04  1.96067E+04 -3.46974E+04
  4.54817E+04 -8.15559E+03  3.95294E+04  2.57119E+04  1.63754E+04  4.62686E+04 -1.26321E+04  5.01759E+04
 -3.74740E+04  3.30899E+04 -4.24094E+04  7.65244E+03 -4.51713E+04 -1.42087E+04 -2.76732E+04 -3.94771E+04
  1.23348E+04 -3.65891E+04  3.07968E+04 -1.42642E+04  3.21942E+04  7.79691E+03  5.15901E+03  2.36317E+04
 -1.02759E+04  6.11050E+03 -1.05974E+04 -5.73902E+03  9.56976E+03 -9.02920E+03  1.74910E+04  8.73333E+03
  1.58019E+04  1.89926E+04 -2.13677E+03  2.36742E+04 -2.69875E+04  6.35564E+03 -2.80831E+04 -6.97962E+02
 -1.61467E+04 -2.31027E+04 -3.63854E+03 -2.06288E+04  3.42794E+03 -1.69224E+04  1.29611E+04 -1.24363E+04
  2.52947E+04 -1.39880E+04  3.02883E+04  2.76753E+03  2.28325E+04  1.53517E+04  3.32623E+03  4.02388E+04
 -2.18954E+04  3.14922E+04 -2.76999E+04  1.10747E+04 -2.17362E+04 -1.35107E+04 -1.04232E+04 -1.07264E+04
  5.28278E+03  3.41385E+02  9.43221E+02  7.68615E+03 -1.37998E+04  4.05835E+03 -1.53915E+04 -9.03943E+03
 -7.52801E+03 -1.69847E+04  5.68129E+03 -2.29663E+04  1.37865E+04 -1.34866E+04  1.76863E+04  1.33906E+03
  9.03343E+03  8.35739E+03 -3.15657E+03  1.68544E+04 -1.13970E+04  7.06411E+03 -1.50420E+04 -4.42282E+03
 -1.08042E+04 -2.06131E+04 -3.90774E+03 -2.44050E+04  1.12807E+04 -1.61472E+04  2.06972E+04 -1.50210E+04
  2.10694E+04 -2.66743E+03  1.26357E+04  5.60189E+03  4.38742E+03  5.69750E+03  9.72137E+03 -6.35786E+03
  1.42929E+04  1.90404E+03  1.94468E+04  1.19340E+04  1.38764E+04  2.89369E+04 -2.28619E+03  3.29745E+04
 -2.25518E+04  2.83901E+04 -3.15572E+04  1.57456E+04 -3.28943E+04 -2.07076E+03 -2.50655E+04 -1.92023E+04
 -1.45847E+04 -3.00774E+04  5.68442E+03 -2.49648E+04  2.18688E+04 -1.86427E+04  2.00420E+04  5.33636E+03
  8.65071E+03  1.39865E+04 -1.24960E+04  1.13914E+04 -1.66762E+04  7.69566E+03 -8.48641E+03 -6.05023E+03
  8.34220E+02 -1.21662E+04  9.40813E+03 -9.75880E+03  9.69916E+03  1.21078E+03 -1.79295E+02  1.00875E+04
 -4.64993E+03  5.98591E+03 -6.58806E+03  1.16403E+03  1.68059E+02 -1.86748E+04  8.69238E+03 -1.81650E+04
  1.67596E+04 -5.83951E+03  1.71587E+04  6.42312E+03  1.18108E+04  8.23888E+03  9.18271E+03  1.70871E+04
 -3.27314E+03  2.10125E+04 -1.41608E+04  1.53617E+04 -1.76903E+04  7.04743E+03 -1.00423E+04 -1.33093E+03
 -4.55715E+03  1.83519E+03  7.76897E+02  2.40444E+03 -1.24189E+03  2.96671E+03 -5.87564E+03  2.91641E+03
 -1.21291E+04  1.49337E+03 -1.44827E+04 -1.18978E+04  2.54016E+02 -1.42459E+04  4.03775E+03 -1.17041E+04
  8.48732E+03 -6.86910E+03  4.66006E+03  2.47052E+03  7.87831E+02  3.59646E+03 -3.97864E+03 -3.14137E+03
 -5.24544E+03 -6.10725E+03 -5.52816E+03 -1.09020E+04  5.18930E+03 -1.05754E+04  9.54694E+03 -6.90809E+03
  1.87977E+04 -4.41565E+03  1.34145E+04  8.53020E+03  7.06718E+03  1.06817E+04 -6.68343E+03  1.21477E+04
 -8.18444E+03  8.83370E+03 -1.52311E+03 -4.61749E+03  3.50245E+03 -5.78228E+03  4.42857E+03  7.79071E+02
  2.77911E+03  5.18409E+03 -2.46978E+03  8.17836E+03 -5.63957E+03  6.96388E+03 -7.43213E+03  7.74660E+02
 -8.95042E+03 -4.54681E+03 -3.70855E+03 -7.27647E+03  7.87860E+03 -1.73029E+03  5.03474E+03  2.47601E+03
  4.04709E+03  7.47035E+03 -7.89864E+03  9.56309E+03 -1.21159E+04  4.83138E+03 -1.17893E+04 -2.43334E+03
 -1.31187E+03 -1.06113E+04  4.95955E+03 -9.24863E+03  7.36615E+03 -8.08782E+03  1.05475E+04 -1.08161E+02
  8.30025E+03  8.93276E+03  3.25795E+01  6.66447E+03 -5.04190E+03  4.08713E+03 -7.02588E+03 -2.39223E+01
 -4.41736E+03 -1.00026E+04 -9.16681E+02 -7.94504E+03  2.52701E+03 -8.63680E+03  5.49626E+03 -3.79879E+03
  1.35217E+03 -2.23012E+03  7.18616E+02  2.30105E+03  1.99060E+03 -1.81270E+03  2.83714E+03 -1.61245E+03
  1.91003E+03 -3.67226E+03  8.77495E+03  8.48405E+02  4.14120E+03  3.84664E+03  8.69278E+03  1.35548E+04
 -2.57406E+03  1.95637E+04 -1.26136E+04  8.50285E+03 -1.68408E+04  3.68740E+03 -1.58926E+04 -4.30755E+03
 -1.02436E+04 -1.24377E+04 -6.11600E+02 -7.52566E+03  4.95461E+03 -6.20499E+03  3.63275E+03 -3.90458E+03
  1.10885E+03 -6.35889E+03 -8.20161E+02 -6.87259E+02  1.62666E+03 -3.06919E+03  8.00055E+03 -4.52205E+03
  7.45357E+03 -6.14641E+03  5.69833E+03  5.57853E+03 -4.56108E+02  6.32352E+03 -2.13417E+03  4.47128E+03
 -9.78971E+03  6.23505E+02 -1.72310E+03 -7.11060E+03  2.05963E+03 -9.53192E+03  4.30662E+03 -8.06167E+03
  1.16448E+04 -4.18282E+03  1.08812E+04  4.05878E+03  1.00617E+04  6.17524E+03 -1.26562E+03  1.62827E+04
 -4.42345E+03  1.13610E+04  5.47069E+02 -4.30729E+03 -5.32685E+03 -5.04135E+03 -3.47713E+03 -1.96657E+03
 -1.59222E+03  2.31670E+03 -3.44547E+02  3.21988E+03 -3.47789E+03  5.96457E+02 -4.14352E+03 -1.26775E+03
 -5.54965E+03 -6.85888E+03  5.88279E+03 -8.78595E+03  2.65521E+03 -9.62733E+03  8.99836E+03 -6.93149E+02
  5.23552E+03  2.19782E+03  7.21250E+03  7.97821E+03 -2.59908E+03  1.02903E+04 -6.01648E+03  5.98302E+03
 -6.96999E+03 -3.37112E+03 -1.74849E+03 -6.45130E+03 -3.25648E+03 -5.12903E+03  1.16050E+03 -3.85713E+03
  1.77252E+03 -9.25489E+02  2.33248E+03  3.81097E+03  6.22698E+02  3.46279E+03  3.16165E+03  3.22338E+03
  2.09423E+02  3.75905E+03 -2.35450E+03 -3.63349E+03  3.34948E+03  2.08394E+03 -2.06857E+03  5.50925E+03
 -1.73932E+03  6.17927E+03 -6.08738E+03  5.39996E+03 -6.22994E+03 -1.44825E+03 -7.23534E+03  5.35845E+02
 -1.77022E+03 -4.55371E+03  4.46629E+03 -3.08574E+03  3.11387E+03 -2.21442E+03  4.23309E+03 -2.96567E+02
  3.78470E+03  2.27609E+03 -1.99203E+03  6.77141E+03  3.42202E+03  2.90598E+03  2.40920E+03  1.19500E+03
  4.30403E+02 -3.20222E+02  3.50104E+03 -5.16416E+03  4.26071E+03  3.97932E+03  4.38359E+03  1.69389E+03
  2.71663E+03  2.11898E+03  3.34241E+03  4.49856E+03  3.53507E+03  6.16095E+02  6.29728E+03  1.11760E+03
  4.57034E+03  2.25871E+03  2.71022E+03  7.79715E+03  4.33901E+03  2.11341E+02 -6.96485E+03  8.92312E+03
 -3.45873E+03  2.76808E+03 -5.48281E+03  9.57326E+02 -3.02445E+03 -3.42176E+03 -3.62800E+03 -5.19399E+03
  8.12937E+02 -3.29116E+03  7.14062E+03 -4.67799E+03  4.24337E+02  2.15556E+03 -1.00405E+03  2.95244E+03
 -3.01231E+03 -4.24219E+02 -1.81954E+03 -1.63253E+03 -3.47371E+03 -2.24860E+03  5.82105E+03 -5.97643E+02
  2.69793E+03 -7.12087E+03  1.85586E+03  2.63133E+03  2.14825E+03 -1.86120E+02  5.63510E+03  1.57168E+03
  1.28931E+03 -1.38128E+03 -1.68011E+03 -1.17127E+03  2.96505E+02 -3.22330E+03  3.91269E+03 -2.38140E+03
  5.71502E+03 -5.72673E+03  2.41760E+03 -1.01447E+03  5.80650E+03  6.00299E+03 -5.02862E+02  1.30177E+03
 -2.31829E+02  7.86684E+03 -3.86631E+03  3.02205E+03 -3.39674E+03  2.56439E+03  1.91536E+03 -2.49881E+03
 -8.86334E+02  6.27612E+02  6.17807E+03  5.59582E+03  4.86937E+03 -8.31144E+02 -4.35400E+02  3.41979E+03
 -2.35886E+03  1.81386E+03 -2.38296E+03  1.42804E+03  2.61320E+03  5.56412E+03 -1.58964E+03 -5.37246E+03
  5.72026E+02  2.64402E+03 -2.95726E+03 -3.44378E+03 -4.25649E+03 -5.03952E+02 -7.37917E+03 -1.40010E+03
  5.58625E+02 -4.87311E+03  1.50441E+02 -7.49062E+03  4.60952E+03 -3.53084E+03  4.24120E+03  1.92794E+03
  6.79445E+03  5.42028E+02 -6.52351E+02  7.81961E+03 -2.47272E+03  6.25414E+03  1.91398E+02 -2.30578E+02
 -3.57354E+03  7.50300E+02 -7.70162E+02 -1.08234E+03 -1.59080E+03  3.99222E+03 -7.49936E+02 -2.57275E+03
  3.53706E+03  6.08935E+02 -1.11814E+03 -3.33126E+03  1.05491E+03  8.12977E+02 -1.46864E+03  2.38854E+03
  5.38179E+03 -1.27971E+03  3.00707E+03 -6.92120E+02  1.76069E+03 -2.01490E+03  3.59338E+03  6.16772E+03
 -1.11110E+02  4.50941E+03 -1.80400E+03  4.52964E+03 -5.68336E+03  1.20685E+03 -1.66382E+03 -7.45897E+03
 -4.19508E+03 -2.27331E+03  1.94111E+03 -2.65151E+03  2.88462E+03  2.96384E+03  3.41969E+03 -7.43100E+01
  1.62242E+03 -1.91482E+03 -5.30194E+01 -4.43454E+03 -6.13296E+03  2.58171E+03 -1.16895E+02 -9.84780E+02
  3.83810E+02 -6.99232E+02 -3.46928E+02 -2.95032E+03  8.44459E+02 -2.16620E+02 -9.79928E+01  3.26234E+03
 -5.72925E+02  1.36008E+03 -5.88338E+03 -1.34245E+02 -4.69586E+03  1.21022E+03  7.33561E+02  2.04633E+03
  1.95365E+03 -5.74173E+03  4.61125E+03 -4.04993E+03  3.78652E+03  2.27973E+03  4.77918E+03  3.54254E+03
  1.13085E+03  1.17228E+03 -5.78424E+02  3.72640E+03 -7.23867E+03  2.23846E+03 -4.88756E+02  1.85805E+03
  1.16704E+03 -1.28581E+03 -6.15101E+03 -1.43439E+03  7.51174E+02  2.32486E+03 -3.68083E+03  6.71541E+02
 -9.31502E+02  3.76739E+03 -1.14757E+03 -3.11625E+03  1.46186E+03  1.12752E+03  1.78030E+03  1.34653E+02
  2.07092E+03  4.01733E+03 -3.10206E+03  4.63696E+03  3.89891E+03  2.58008E+02 -1.49527E+03  1.69510E+02
