 $NMID ID='MM_0lb_SNR50_11hz_g40_89.RAW', FMTDAT='(8E13.5)'
 TRAMP=1., VOLUME=1. $END
  3.11516E+05 -5.15442E+02  3.35886E+05  2.53923E+05  8.58135E+04  3.43879E+05 -1.34029E+05  2.52160E+05
 -1.91688E+05  8.27060E+04 -1.14005E+05 -3.25878E+04 -3.84685E+03 -4.82567E+04  5.02228E+04 -3.01199E+03
  3.50406E+04  5.25313E+04 -1.74363E+04  7.03887E+04 -6.34837E+04  6.38761E+04 -8.43335E+04  3.66516E+04
 -7.62330E+04 -2.70886E+03 -6.20029E+04 -5.07314E+04 -1.39008E+04 -6.59004E+04  2.98498E+04 -4.22791E+04
  3.72716E+04  4.50438E+03  9.68443E+03  5.24702E+04 -3.62665E+04  5.03274E+04 -6.67384E+04  2.51989E+03
 -5.45477E+04 -5.97118E+04 -8.11893E+03 -8.07782E+04  3.48759E+04 -5.44702E+04  5.15427E+04 -1.94840E+04
  4.22432E+04  1.45810E+04  3.06790E+04  2.50245E+04  2.10534E+04  2.49518E+04 -7.79789E+03  3.10426E+04
 -2.15324E+04  1.31917E+04 -1.86839E+04 -2.08014E+03  6.54032E+03 -9.24307E+03  2.27098E+04  1.32001E+04
  6.59815E+03  3.14333E+04 -3.57698E+04  3.64794E+04 -6.76419E+04  2.22708E+03 -5.56750E+04 -5.10208E+04
 -1.46432E+04 -6.10211E+04  3.72136E+04 -5.03621E+04  6.16550E+04 -2.14251E+03  3.69602E+04  3.96874E+04
 -5.35524E+02  4.39661E+04 -2.96405E+04  1.47660E+04 -2.79947E+04 -6.24146E+03 -1.30093E+04 -1.26795E+04
 -8.86924E+03 -1.40262E+04 -6.20835E+03 -1.17720E+04  9.06385E+03 -2.52055E+04  1.78232E+04 -7.92919E+03
  1.02569E+04  6.93793E+03 -5.07023E+03  8.69677E+03 -2.21882E+04 -5.55426E+03 -5.62480E+03 -3.25188E+04
  2.19188E+04 -4.51157E+04  5.31489E+04 -2.32694E+04  4.30784E+04  2.75919E+04  1.92813E+04  4.88536E+04
 -1.83303E+04  3.81572E+04 -2.69330E+04  6.93652E+03 -1.21912E+04 -2.55171E+04  2.26843E+04 -3.18772E+04
  4.22179E+04 -8.90403E+03  3.56267E+04  2.73428E+04  1.89200E+04  4.91129E+04 -5.04545E+03  5.40480E+04
 -2.67202E+04  3.67243E+04 -3.86191E+04  1.10441E+04 -4.64412E+04 -1.74291E+04 -2.54295E+04 -3.98466E+04
  1.19101E+04 -3.53912E+04  3.40116E+04 -1.51032E+04  2.92300E+04  1.21297E+04  1.21349E+04  1.69775E+04
 -1.44769E+04  7.17761E+03 -1.09848E+04 -9.99499E+03  7.08279E+03 -1.37640E+04  1.74004E+04  4.94335E+03
  1.05786E+04  2.12171E+04 -2.88009E+03  2.19745E+04 -2.05873E+04  1.03499E+04 -2.98653E+04 -3.50737E+03
 -1.94562E+04 -2.43701E+04 -1.04133E+04 -2.57526E+04  3.09763E+03 -2.03993E+04  1.66744E+04 -1.99805E+04
  2.64873E+04 -1.62444E+04  3.56018E+04  8.22344E+03  2.36787E+04  2.19063E+04  7.60775E+02  3.74491E+04
 -2.03589E+04  2.76612E+04 -3.13427E+04  1.18039E+04 -1.87143E+04 -1.71371E+04  1.31584E+03 -1.33661E+04
  1.85153E+03  3.54136E+03 -6.94218E+03  8.17452E+03 -1.80278E+04  7.77524E+03 -2.04153E+04 -1.17202E+04
 -9.47609E+03 -1.48508E+04  1.27301E+04 -2.50213E+04  2.24446E+04 -1.90303E+04  1.97271E+04  4.40388E+02
  6.57650E+03  9.03492E+03 -1.80874E+02  1.95969E+04 -1.19948E+04  1.49670E+04 -1.76071E+04 -3.56996E+03
 -1.13186E+04 -1.71805E+04 -3.34293E+03 -2.84122E+04  1.40345E+04 -1.46133E+04  2.15899E+04 -7.35281E+03
  2.43351E+04 -6.79698E+03  1.55821E+04  7.21695E+03  8.68666E+03 -1.68432E+03  1.32058E+04  2.65863E+02
  1.85200E+04  7.24535E+03  2.37144E+04  1.63299E+04  1.63927E+04  3.06460E+04 -8.24738E+03  3.70030E+04
 -2.19635E+04  3.18263E+04 -4.12653E+04  1.78611E+04 -4.02379E+04 -4.57741E+03 -3.35483E+04 -1.81017E+04
 -1.15643E+04 -3.10414E+04  8.94858E+03 -2.86214E+04  2.64868E+04 -1.48196E+04  1.96052E+04  4.57855E+03
  6.13267E+03  1.39995E+04 -8.46697E+03  1.61077E+04 -2.04899E+04  1.01208E+03 -1.25904E+04 -1.04287E+04
 -3.67477E+03 -1.97492E+04  1.45071E+04 -1.45657E+04  9.88280E+03 -6.60098E+03  5.39755E+03  8.97986E+03
 -7.91819E+03  4.07257E+03 -1.31812E+04 -4.51040E+02 -5.73265E+03 -1.83135E+04  1.07769E+04 -1.22187E+04
  1.98191E+04 -1.09603E+04  2.19007E+04  5.48527E+03  1.95145E+04  1.52392E+04  6.40025E+03  2.36109E+04
 -6.92572E+03  2.31462E+04 -1.52434E+04  1.08093E+04 -1.45994E+04  2.07479E+03 -9.74862E+03 -1.87749E+03
 -2.92125E+03 -4.75158E+03 -3.64603E+03  2.32636E+03 -3.99034E+03  2.41066E+03 -4.65753E+03  4.87732E+03
 -1.30157E+04 -3.31823E+03 -1.35071E+04 -1.69455E+04  6.19943E+01 -1.42382E+04  4.62074E+03 -1.19144E+04
  1.03916E+04 -1.11171E+04  7.80459E+03  1.01998E+03  1.40323E+03  6.49950E+03 -9.76078E+03  4.14190E+03
 -6.26959E+03 -1.05801E+04 -5.44352E+03 -7.17973E+03  9.83228E+03 -1.45214E+04  2.08893E+04 -6.77406E+03
  1.80602E+04 -1.27734E+03  2.40777E+03  8.87284E+03  2.09967E+03  1.64506E+04 -7.23067E+03  1.95561E+04
 -1.19344E+04  1.05211E+04 -5.81446E+03 -1.96005E+03 -8.78745E+02 -3.95784E+03  5.53174E+03  3.36333E+03
  4.74182E+03  3.23689E+03  2.31746E+03  1.02663E+04 -6.04391E+03  1.31585E+04 -1.22598E+04  1.76786E+03
 -4.18316E+03 -8.90175E+03 -3.41424E+03 -1.26594E+04  4.23169E+03 -7.73479E+03  3.42201E+03 -4.99142E+02
  1.50271E+03  6.16970E+03 -5.81879E+03  1.54461E+04 -1.42497E+04  8.99832E+03 -1.13177E+04 -7.55825E+03
 -9.26929E+03 -1.32891E+04 -3.18160E+02 -1.38359E+04  1.27662E+04 -3.94346E+03  1.45511E+04  6.60038E+03
  1.16818E+04  8.61766E+03 -1.59764E+03  9.64317E+03 -9.27110E+03  1.30720E+04 -1.50040E+04 -2.59946E+03
 -6.57372E+03 -3.77303E+03 -4.50879E+03 -7.19327E+03  8.21829E+03 -6.68043E+03  1.29012E+04  1.68534E+03
  3.77390E+02  8.36918E+02 -1.03963E+03 -3.49243E+03 -9.31562E+03 -4.61033E+03  3.50039E+03 -1.09294E+04
  5.77702E+03 -1.97492E+03  1.02480E+04  2.09442E+03  1.52756E+04  3.60398E+03  8.87611E+03  1.50816E+04
 -6.15236E+03  1.47133E+04 -1.59334E+04  1.11364E+04 -2.21383E+04  6.18977E+03 -1.76471E+04 -4.38885E+03
 -9.01639E+03 -1.20338E+04 -1.00820E+03 -5.87928E+03  7.71563E+03 -4.44850E+03 -7.18873E+02 -5.59741E+03
  3.35644E+03  1.54674E+03  6.44140E+03 -4.41613E+03  7.58612E+03 -2.79018E+03  8.08032E+03 -2.76074E+03
  6.07661E+03  5.17316E+03  3.02087E+03  6.06509E+03 -8.71131E+02  7.15154E+03 -1.36266E+04  8.68125E+03
 -1.03534E+04 -3.02369E+03 -2.52878E+03 -9.36016E+03 -5.54236E+03 -1.12194E+04  9.48968E+03 -1.15519E+04
  1.05878E+04 -1.31798E+04  1.23266E+04 -5.98197E+02  5.21761E+03  1.05626E+04  1.15959E+03  1.26060E+04
 -8.10872E+03  1.06676E+04 -4.78935E+03  4.57921E+03 -6.93521E+03 -5.49448E+02  3.26577E+02 -3.19413E+03
  8.04295E+01  4.75126E+03 -1.05097E+02  1.26742E+03  5.26071E+03  3.18519E+03 -1.28928E+04 -3.76543E+03
 -6.97835E+03 -7.93415E+03  3.88988E+03 -1.14317E+04  9.04012E+03 -7.23829E+03  7.37604E+03 -3.02102E+03
  9.16960E+03  4.33798E+03  7.88651E+03  1.22484E+04 -1.08215E+02  1.73143E+04 -1.31920E+04  5.10637E+03
 -1.08605E+04 -5.24885E+02 -9.04237E+03 -1.07418E+04 -4.25265E+03 -1.09204E+04  3.40111E+03 -1.06949E+04
  9.62612E+03 -6.81841E+02  9.46715E+03  1.72532E+03  1.36518E+03  1.98492E+03  6.68920E+03 -2.88353E+03
 -2.44436E+03 -2.32539E+03  4.06157E+03  4.67220E+03  3.32357E+03  5.71537E+03  3.61421E+03  3.69398E+03
 -5.67215E+02  1.50455E+04 -5.56238E+03  1.19495E+04 -1.01691E+04 -2.34773E+03 -1.20799E+04 -9.17447E+03
 -7.75170E+03 -1.19165E+04  7.07444E+03 -1.53801E+04  6.53140E+03 -8.59069E+03  7.42077E+03  2.64098E+03
  1.04445E+04 -3.26672E+03  3.86287E+02  3.17563E+03 -3.52259E+03  5.87359E+03 -2.13107E+03 -1.43447E+02
 -7.69056E+02 -1.61750E+03 -6.84036E+02 -1.35445E+03  2.47553E+03 -2.79225E+03  6.92727E+03  6.24741E+03
 -2.84512E+03  6.84055E+03  3.93624E+03  1.61814E+03  1.97679E+03 -2.67505E+03  1.47484E+03  1.08185E+03
  4.66956E+02 -4.21144E+03  1.71288E+03  2.61891E+03 -5.77363E+02  5.31058E+03 -5.50258E+03  1.38767E+04
 -4.54342E+03  1.85157E+01 -5.30372E+03  4.00539E+03 -1.45228E+03 -5.08250E+03 -3.87313E+03 -4.23745E+03
 -1.19841E+03 -5.40438E+03  1.75556E+02  3.89761E+03 -4.67423E+03  5.95391E+03 -3.78902E+03  5.81213E+03
 -6.78283E+03  1.18436E+03 -9.04782E+03 -1.33025E+03 -1.35344E+03 -8.32685E+03  1.18301E+03 -5.41103E+03
  2.95828E+03 -4.07907E+03  6.94919E+03 -3.12155E+03  4.49276E+03 -1.54133E+03 -1.73354E+03  4.86445E+03
 -1.69649E+02  9.26820E+02  2.12450E+02  2.46306E+03  1.31666E+03 -4.94660E+03  2.12235E+03 -6.54664E+03
  8.40723E+03 -2.06391E+02  1.06382E+04  7.30700E+03  1.83168E+02  9.50319E+03 -4.15281E+03  3.15586E+03
 -5.69645E+03 -5.54851E+02 -5.81975E+03  3.73715E+02 -3.37271E+03 -1.72734E+03  2.10580E+03 -3.77697E+03
  8.00599E+03  3.13230E+02  1.52713E+03  2.30823E+03  3.84136E+03  1.06240E+04 -1.65370E+03  7.54358E+03
  6.29833E+02  2.60790E+03  7.43266E+02 -2.49843E+03 -5.04236E+03  2.84942E+03 -4.04860E+03  2.11279E+02
  1.76353E+02  5.25102E+03 -9.77037E+03  1.11224E+03 -7.96692E+03 -3.68644E+01 -2.69558E+03 -3.89775E+03
 -4.28655E+03 -6.78753E+03 -7.02848E+01 -1.11166E+04  9.05415E+03 -1.09696E+04  9.03563E+03  3.35652E+03
  1.04084E+04  4.25347E+03  9.51119E+03  2.63340E+03  1.28560E+03  6.55754E+03 -3.33410E+03  8.52822E+02
 -3.81390E+03  3.69319E+03 -3.64432E+03 -6.12898E+02 -6.48429E+03  7.18924E+02  1.03824E+03 -1.57878E+03
  2.30346E+03  1.94513E+03  1.05738E+03 -2.69515E+03 -1.00227E+03 -1.28102E+03  4.13577E+03 -1.69226E+03
  1.84920E+03 -6.29637E+03  6.00201E+03  4.46038E+03  4.31631E+02  2.77641E+03  3.90185E+03  6.97296E+03
 -7.63238E+03  8.37375E+03 -8.73083E+03  5.16582E+03 -6.70871E+03 -9.38289E+02 -8.64368E+03 -2.60330E+03
 -6.93388E+03 -5.91206E+03 -1.43817E+02 -7.37685E+02  1.86742E+03 -5.75406E+03  4.69420E+03 -1.62886E+03
  5.13724E+03  4.25388E+03  1.28773E+03  7.78341E+03  1.39428E+03  1.53801E+03  1.44057E+03 -3.67254E+03
  1.29069E+03  8.30530E+02  2.42056E+03  2.74072E+03 -1.26281E+03  1.66585E+03 -3.32477E+03 -1.94160E+02
 -7.27396E+03  4.97196E+03  1.35757E+03  3.81749E+03 -6.61302E+03 -4.61395E+03 -2.13455E+03 -4.96902E+03
 -2.14043E+03 -4.29438E+03  5.32679E+03 -8.32975E+02  2.78002E+03  2.12258E+01  1.93648E+03  3.02351E+03
  4.39497E+03  5.76726E+03  1.34271E+03  6.14456E+03 -7.17708E+02  2.88017E+03 -3.30780E+03  2.17975E+03
  2.85829E+03  1.14140E+03  5.01068E+03  5.50793E+02 -5.19651E+03 -3.22020E+03 -3.92463E+03  1.02866E+03
 -5.00981E+03  1.25139E+03  1.50646E+03 -1.53640E+03  1.68172E+03 -2.55891E+03  4.89037E+03 -4.25685E+03
  4.61247E+03  2.17729E+03 -2.94747E+03  6.07114E+03  2.08443E+03  4.27167E+03 -2.07648E+03  4.56754E+03
