 $NMID ID='MM_0lb_SNR50_16hz_g40_67.RAW', FMTDAT='(8E13.5)'
 TRAMP=1., VOLUME=1. $END
  3.05617E+05  2.16619E+03  3.36416E+05  2.56775E+05  8.79385E+04  3.37329E+05 -1.31977E+05  2.45136E+05
 -1.86237E+05  8.30339E+04 -1.10511E+05 -3.21718E+04  1.47560E+03 -4.73220E+04  5.62789E+04 -1.02824E+03
  3.27563E+04  5.22762E+04 -1.85605E+04  7.76180E+04 -6.12237E+04  6.48416E+04 -8.10318E+04  2.70737E+04
 -8.23495E+04 -1.11676E+04 -5.59022E+04 -5.16703E+04 -1.52318E+04 -6.47557E+04  2.09993E+04 -4.54120E+04
  3.53997E+04  5.02339E+03  1.63009E+04  4.76726E+04 -3.49481E+04  4.73619E+04 -6.27805E+04 -3.65648E+03
 -4.79168E+04 -5.58960E+04 -7.30757E+03 -7.46170E+04  3.53301E+04 -5.58109E+04  4.66320E+04 -1.48739E+04
  3.87866E+04  1.02847E+04  2.74543E+04  2.45435E+04  1.64934E+04  2.76290E+04 -4.38500E+03  2.29754E+04
 -2.46356E+04  1.24702E+04 -1.48662E+04 -6.35314E+03  4.84690E+03 -7.38785E+03  2.38789E+04  9.46946E+03
  7.17834E+03  3.24326E+04 -3.20139E+04  3.20432E+04 -6.57301E+04  5.37340E+03 -5.43977E+04 -4.04591E+04
 -1.45918E+04 -6.78487E+04  4.10179E+04 -5.02474E+04  5.65085E+04 -1.20421E+03  3.43960E+04  3.15939E+04
 -9.09573E+03  3.18310E+04 -2.63707E+04  1.26712E+04 -2.80648E+04 -1.15358E+03 -1.75548E+04 -1.05290E+04
 -3.45486E+03 -1.01913E+04 -2.67325E+03 -1.92681E+04  2.05450E+03 -1.86160E+04  1.39851E+04 -1.32757E+04
  1.77000E+04  1.34151E+03 -4.04216E+03  1.32003E+04 -1.77256E+04 -1.58443E+03 -9.12221E+03 -3.36424E+04
  1.84138E+04 -4.31528E+04  5.14570E+04 -2.29382E+04  4.21841E+04  1.75756E+04  1.48355E+04  4.42306E+04
 -1.53163E+04  2.94368E+04 -2.11931E+04  3.27692E+03 -8.81370E+03 -2.92203E+04  1.91679E+04 -2.94302E+04
  3.83706E+04 -5.93550E+03  2.97515E+04  2.35791E+04  2.10162E+04  4.38198E+04 -8.51769E+03  4.72055E+04
 -3.18127E+04  3.14653E+04 -4.04922E+04  7.44486E+03 -3.76416E+04 -1.19494E+04 -2.38533E+04 -3.09319E+04
  1.26681E+04 -3.76112E+04  2.94637E+04 -1.29627E+04  2.66248E+04  1.16141E+04  6.93042E+03  1.67018E+04
 -1.34712E+04  7.11717E+03 -1.04572E+04 -5.75725E+03  9.60863E+03 -1.38837E+04  1.86416E+04  6.44323E+03
  9.83951E+03  2.07717E+04 -4.86284E+03  2.31802E+04 -2.27960E+04  8.25978E+03 -2.08108E+04 -9.51118E+03
 -1.12426E+04 -1.17794E+04 -7.85055E+03 -1.47598E+04  6.34273E+03 -1.84669E+04  1.50043E+04 -1.87244E+04
  2.23613E+04 -1.09172E+04  2.90959E+04  1.52175E+03  2.06037E+04  1.64075E+04  3.77564E+03  3.43124E+04
 -1.75582E+04  3.11033E+04 -2.78518E+04  5.36361E+03 -1.56486E+04 -9.15493E+03 -8.56623E+03 -1.48516E+04
  8.64381E+02 -3.98506E+03 -4.62130E+03  8.24210E+03 -1.79734E+04  8.80586E+03 -1.22892E+04 -7.07209E+03
 -7.46486E+03 -1.66059E+04  8.21709E+03 -2.19082E+04  1.74794E+04 -1.27524E+04  1.37145E+04  3.81848E+03
  1.15664E+04  1.30305E+04  2.70824E+03  1.73577E+04 -1.16272E+04  1.01480E+04 -1.42192E+04  1.35642E+03
 -1.39275E+04 -1.58222E+04 -1.80086E+03 -2.18534E+04  1.29240E+04 -1.55496E+04  1.91339E+04 -1.23891E+04
  1.63053E+04 -2.17347E+03  1.53827E+04  4.36899E+03  8.25446E+03  2.51076E+03  8.87527E+03  3.20236E+02
  1.51323E+04  7.97397E+03  1.54461E+04  1.44971E+04  9.46995E+03  2.92524E+04 -2.36612E+03  3.28709E+04
 -1.89419E+04  2.00133E+04 -2.78410E+04  1.46926E+04 -2.98448E+04  3.74585E+03 -2.38257E+04 -1.59082E+04
 -9.06349E+03 -2.08917E+04  9.33440E+03 -1.86591E+04  1.91375E+04 -1.24710E+04  1.43753E+04  1.25672E+03
  3.31534E+03  1.36937E+04 -7.12420E+03  1.12463E+04 -1.78024E+04  2.52778E+03 -7.42129E+03 -9.46814E+03
 -6.66077E+02 -1.38449E+04  3.71848E+03 -1.44626E+04  1.12848E+04 -2.52541E+03  1.16200E+03  5.46456E+03
 -8.85586E+03  1.74494E+03 -4.31583E+03 -2.75198E+03 -4.20566E+03 -1.10507E+04  5.50636E+03 -9.65055E+03
  1.80801E+04 -6.25059E+03  1.63196E+04  4.28045E+03  1.14030E+04  1.02838E+04  1.90744E+03  1.84977E+04
 -3.02042E+02  2.32498E+04 -1.28001E+04  1.81590E+04 -1.39830E+04  5.06590E+03 -7.02596E+03 -7.88836E+03
 -2.72409E+03 -2.01481E+03 -2.11574E+02  1.88630E+02 -1.32264E+03  3.85044E+03 -5.01727E+03  1.97040E+03
 -8.58171E+03  1.89804E+03 -6.00108E+03 -9.32315E+03 -5.25379E+03 -1.20063E+04  1.92924E+03 -7.95301E+03
  7.99331E+03 -2.50862E+03  5.98756E+03  4.30402E+03  3.64382E+03  1.19630E+03 -3.84079E+03 -1.57151E+03
 -4.07821E+03 -4.36753E+03 -2.77030E+03 -1.01156E+04  7.15640E+02 -6.41519E+03  1.14645E+04 -1.33499E+03
  7.00255E+03 -1.52542E+03  9.15829E+03  6.90280E+03 -9.97324E+02  1.05615E+04 -1.02811E+04  8.12310E+03
 -1.24369E+04  1.96547E+03 -7.28091E+03 -4.13302E+02 -8.87462E+02 -3.76697E+03  6.49500E+03  2.63711E+03
 -9.59134E+02  3.79962E+03  3.74425E+03  5.20520E+03 -5.85452E+03  9.16358E+03 -8.24372E+03  4.41549E+03
 -4.88071E+03 -3.60760E+03 -2.32169E+03 -4.72688E+03  8.03848E+03 -7.56563E+03 -1.51965E+03  7.06600E+03
  4.88062E+03  8.11819E+03 -1.15324E+04  1.15866E+04 -4.51701E+03  5.35970E+03 -7.30286E+03 -4.78464E+03
 -6.13670E+03 -6.57286E+03 -3.98296E+02 -1.01526E+04  9.10612E+03 -6.35955E+03  9.71918E+03  3.89637E+03
  1.08029E+04  4.53653E+03  1.04751E+03  1.13774E+04 -8.27065E+03  3.63938E+03 -5.10305E+03  2.79799E+02
 -4.21751E+03 -7.29909E+03 -1.98857E+03 -3.96162E+03  1.28108E+02 -4.18215E+03  5.64437E+03 -2.46747E+03
  7.72404E+03 -3.04593E+03  1.21075E+02 -2.14787E+03  7.93370E+02 -7.93189E+02  1.50217E+03 -7.50334E+01
  4.10906E+03 -3.71672E+03  7.83648E+03 -2.10869E+03  6.91559E+03  9.00530E+03  4.98509E+03  1.20026E+04
 -1.51265E+03  9.66390E+03 -1.27818E+04  1.08277E+04 -1.56921E+04  1.83693E+02 -9.94314E+03  2.12542E+03
 -3.34891E+03 -5.27408E+03 -4.21077E+03 -4.59172E+03  8.74766E+03 -5.51030E+03  2.28548E+03 -2.39944E+03
 -1.68247E+03  1.72950E+03  6.59124E+03 -4.02002E+03 -9.90693E+01  1.53633E+03  2.53931E+03 -2.02121E+03
  6.50841E+03 -2.58948E+03  1.39226E+02  2.95871E+03  8.27576E+02  3.71623E+03 -8.61473E+03  3.80222E+03
 -5.46671E+03  6.13053E+02 -4.76098E+03 -7.09967E+02  2.43404E+01 -5.68737E+03  5.20567E+02 -2.99605E+03
  4.88178E+03 -9.59316E+03  5.49318E+03  1.81357E+03  5.76315E+03  3.40105E+03  1.56905E+03  8.52233E+03
 -4.50854E+02  7.69046E+03 -8.17932E+03  9.56678E+01 -2.77934E+03 -6.82438E+03 -1.94426E+03 -5.24118E+01
  4.84807E+02 -3.49919E+03 -3.82861E+03  2.05655E+03 -2.14629E+03  6.81745E+02 -5.88910E+03  5.06446E+02
 -1.97303E+03 -4.71169E+03  2.69381E+03 -7.01764E+03  5.32608E+03 -2.04031E+03  7.05553E+03 -2.62592E+03
  8.12712E+03  3.77524E+03  2.21695E+03  4.51044E+03 -8.27151E+02  4.23440E+03  3.04300E+03  3.96129E+03
 -3.80038E+03  2.91523E+03 -4.49530E+03 -6.46758E+03 -7.65076E+02 -5.16428E+03  2.55213E+03 -2.11551E+02
  2.84563E+03 -1.37153E+03  3.24360E+03  2.63880E+03 -1.35271E+03  3.92804E+03 -3.55795E+03  1.67315E+03
 -6.85570E+02  3.16441E+03 -1.42871E+01  1.29384E+03  2.05726E+03  3.78954E+03  1.58724E+03  1.95287E+03
 -1.05234E+03  8.71593E+03 -1.86481E+03  6.21701E+03 -1.88741E+03 -1.19779E+03 -9.49400E+03 -2.99878E+03
 -4.71970E+03 -6.89987E+03 -2.63007E+03 -7.99118E+03  2.75006E+03 -1.68038E+03  5.47578E+03 -1.48169E+03
  2.79918E+03  5.08360E+03 -3.64565E+03  4.67505E+03 -2.65920E+03  8.08417E+01 -6.89404E+02  2.83987E+03
 -5.31866E+03 -2.27592E+03  2.94913E+03  7.86325E+02  4.43004E+03 -4.31091E+02  1.40463E+03  2.15861E+03
 -7.41000E+02  5.46110E+03 -1.29197E+03 -2.34506E+03 -1.08570E+03  7.36908E+03  4.34641E+03  1.50734E+03
  3.95760E+03  2.59617E+03 -3.38357E+03  4.02761E+03 -2.68457E+03  1.31747E+03  4.59925E+03  3.80075E+03
 -2.48351E+02 -2.44078E+03 -4.20521E+03  2.42958E+03 -1.36331E+03 -1.51670E+02 -5.10707E+03  1.53870E+03
  4.44332E+03 -1.97876E+03  1.09057E+02  1.61957E+03  1.63982E+03 -2.28904E+02  1.32721E+03  1.21302E+03
 -3.70112E+03  1.07532E+03 -8.18700E+00 -1.02030E+03 -8.01741E+03 -1.46878E+03  2.66057E+03  7.21618E+02
  9.39063E+02 -8.84071E+01  5.85171E+03  1.28110E+03  2.30540E+03  1.18822E+02  3.01566E+03 -3.17481E+03
  3.51347E+02  3.30446E+03 -6.59977E+01 -1.28578E+03 -1.15265E+03 -4.84290E+03  3.78046E+03  1.97984E+03
  4.75819E+03  1.43279E+02  4.44927E+03  1.07548E+03  2.74887E+03  2.02990E+03 -2.64324E+03  4.55893E+03
 -3.40069E+03  2.73590E+03 -1.29157E+03 -4.88593E+03 -2.32868E+03 -4.51039E+03  3.34233E+03  1.76558E+03
  3.92639E+03  2.92827E+03  4.31083E+03  5.56242E+02  1.50167E+02  3.99688E+03  1.53851E+02  4.72339E+03
 -3.50875E+03  1.92314E+03 -2.04537E+03  4.05758E+03 -4.34861E+03  3.03245E+03 -4.70321E+03  6.43383E+01
  7.88270E+02  3.07380E+03 -4.21401E+03  7.19501E+02 -2.62976E+03  4.32916E+02 -4.64372E+03 -6.82426E+02
 -1.61748E+03 -3.43165E+03  1.90462E+03 -5.86667E+03  4.68833E+03 -1.34572E+03  7.37156E+03 -2.91917E+03
  1.64656E+03 -1.43197E+03  7.04153E+03 -4.29315E+01  2.41253E+03 -1.53999E+03 -4.63693E+03  3.60384E+03
  2.81062E+02 -9.11700E+02  3.57170E+02 -3.60238E+03 -1.50851E+03  2.04545E+03  1.45067E+03  8.46363E+02
  1.54201E+01  1.71462E+03  2.23689E+03 -2.98782E+03  1.55155E+02 -2.66779E+03 -5.00659E+01 -6.12815E+03
  8.51581E+03 -2.75833E+03 -9.12983E+02  2.94331E+03  3.75507E+03 -2.52653E+03 -2.39878E+03  6.96865E+03
 -3.16498E+02  1.35073E+03 -4.98690E+03  4.42829E+03 -8.15855E+03  1.97530E+03 -5.10826E+03 -2.07761E+03
 -1.17558E+03 -1.89934E+03  6.91762E+01 -6.48139E+03  6.39836E+03 -1.95212E+03  3.05621E+03  4.28918E+03
  6.85760E+02  1.59535E+03  4.84316E+03  9.57997E+00 -1.75477E+03 -1.84345E+03 -4.07259E+03  2.25770E+03
 -2.51263E+03  1.12876E+03 -1.11856E+03  1.36597E+03  5.61398E+03 -1.78729E-01  7.02749E+03  3.00462E+03
 -3.89618E+03 -2.40888E+03  3.24812E+03  1.51689E+03  1.48113E+03 -6.24188E+02  1.97649E+03 -3.14767E+03
  2.84526E+03 -3.23765E+03  2.32819E+03 -1.06703E+03 -1.12516E+03 -8.63535E+02  3.74017E+03  1.82171E+03
 -2.65987E+03 -3.29441E+02  1.10245E+03  4.26304E+02  4.36674E+02 -4.69818E+02 -5.92309E+02 -4.33889E+02
  3.16529E+02  6.61320E+02  2.22531E+03  2.33616E+03  7.50440E+02  2.37178E+03  1.57796E+03 -1.78471E+03
 -1.67479E+03  6.81702E+03  2.41881E+03 -3.70815E+03  1.90202E+03 -2.98518E+03  3.18543E+03 -2.25245E+02
  4.87229E+02 -1.26363E+03  1.48100E+03  5.08696E+02  7.22351E+02  1.75165E+03 -2.89106E+03  2.66898E+03
