 $NMID ID='MM_0lb_SNR50_16hz_g45_65.RAW', FMTDAT='(8E13.5)'
 TRAMP=1., VOLUME=1. $END
  3.08768E+05 -6.50499E+02  3.38313E+05  2.51322E+05  8.48667E+04  3.38956E+05 -1.34709E+05  2.53141E+05
 -1.90292E+05  8.28292E+04 -1.10443E+05 -2.81450E+04  2.69332E+03 -4.93576E+04  5.45583E+04  1.80121E+03
  3.52092E+04  5.39984E+04 -1.82735E+04  7.73673E+04 -6.07236E+04  6.19691E+04 -8.56701E+04  3.39837E+04
 -8.43512E+04 -1.30703E+04 -6.07601E+04 -5.37473E+04 -1.38284E+04 -6.62150E+04  2.56212E+04 -4.77929E+04
  4.09696E+04  5.69286E+03  1.24100E+04  4.65044E+04 -3.10913E+04  4.23008E+04 -6.98005E+04 -1.38276E+02
 -4.82220E+04 -5.56663E+04 -2.47687E+03 -7.45854E+04  3.22316E+04 -5.32350E+04  4.54672E+04 -1.88248E+04
  4.01940E+04  1.20871E+04  2.88677E+04  2.08994E+04  1.88822E+04  2.40385E+04 -2.44948E+03  2.73452E+04
 -2.04082E+04  1.16293E+04 -1.48509E+04  3.92989E+02  8.89373E+03 -5.35470E+03  2.12687E+04  1.70329E+04
  9.22489E+03  3.04229E+04 -3.13029E+04  3.43667E+04 -5.92711E+04  2.12699E+03 -5.61490E+04 -4.18024E+04
 -1.11320E+04 -6.50316E+04  4.01758E+04 -4.43508E+04  5.59578E+04 -3.81868E+01  2.98121E+04  3.11862E+04
 -6.73871E+03  3.38762E+04 -2.62714E+04  1.41588E+04 -2.85530E+04 -3.52722E+03 -1.83640E+04 -1.28144E+04
 -1.06439E+04 -1.51837E+04  2.02253E+03 -1.83273E+04  8.48201E+03 -2.39453E+04  1.62781E+04 -1.49775E+04
  1.30140E+04  2.86289E+03 -6.04469E+03  1.73411E+04 -1.56948E+04 -3.68976E+03 -1.01749E+04 -3.38662E+04
  2.38273E+04 -4.01345E+04  4.97791E+04 -2.14255E+04  4.14595E+04  1.78175E+04  1.45049E+04  3.98730E+04
 -1.77668E+04  3.03394E+04 -2.81164E+04  1.18668E+03 -6.97384E+03 -2.86985E+04  2.04509E+04 -3.31526E+04
  3.78249E+04 -6.62160E+03  3.29277E+04  2.28052E+04  1.75701E+04  4.18129E+04 -7.53549E+03  5.18079E+04
 -2.92051E+04  3.13258E+04 -3.88661E+04  4.10337E+03 -4.02122E+04 -1.54241E+04 -2.31180E+04 -3.60078E+04
  1.05627E+04 -3.47466E+04  3.46857E+04 -1.17661E+04  2.69671E+04  1.47764E+04  8.35598E+03  1.53487E+04
 -1.55096E+04  7.88745E+03 -7.75001E+03 -1.19437E+04  6.14895E+03 -1.01879E+04  2.33957E+04  3.22857E+03
  1.40841E+04  2.45921E+04 -1.88737E+03  2.38573E+04 -1.75485E+04  1.05222E+04 -2.71172E+04 -4.87213E+03
 -2.16264E+04 -1.70473E+04 -4.97595E+03 -1.97408E+04  4.97387E+03 -1.79772E+04  1.42621E+04 -1.94772E+04
  2.56588E+04 -9.39838E+03  2.86301E+04  2.04758E+03  2.25385E+04  1.69073E+04  2.59715E+03  3.42544E+04
 -2.13466E+04  2.77146E+04 -2.99755E+04  1.02659E+04 -1.61805E+04 -1.08424E+04 -8.94425E+03 -1.64964E+04
  2.37701E+03 -5.63179E+03 -2.03174E+03  6.46679E+03 -1.55433E+04  7.51185E+03 -1.32587E+04 -7.08698E+03
 -1.19524E+04 -1.90442E+04  5.31933E+03 -2.42317E+04  1.11676E+04 -1.50933E+04  1.71977E+04 -2.66903E+03
  6.93649E+03  8.97227E+03 -3.05987E+03  1.87461E+04 -1.12090E+04  1.18701E+04 -1.61132E+04 -2.36397E+03
 -1.05151E+04 -1.61665E+04 -4.44759E+03 -2.02092E+04  1.15172E+04 -1.50532E+04  2.34103E+04 -4.38600E+03
  1.44947E+04  4.38008E+03  1.50867E+04  1.32607E+03  4.77071E+03  3.76337E+03  5.98975E+03 -3.69462E+03
  1.82786E+04  7.02010E+02  1.33783E+04  1.10272E+04  8.34964E+03  3.05281E+04  1.60168E+02  2.95155E+04
 -1.86410E+04  2.40209E+04 -2.84363E+04  1.09742E+04 -2.73839E+04 -5.37877E+03 -2.64347E+04 -2.12998E+04
 -1.30585E+04 -2.70193E+04  1.35063E+04 -2.14454E+04  1.82776E+04 -1.33672E+04  1.50933E+04  1.62646E+03
  8.77859E+03  1.26758E+04 -1.05944E+04  1.21513E+04 -1.03523E+04 -5.64110E+02 -1.32025E+04 -1.09428E+04
 -2.01524E+03 -1.36116E+04  2.97724E+03 -1.21098E+04  1.67933E+04 -2.61305E+03  2.62859E+03  5.94222E+03
 -4.07733E+03 -4.70452E+02 -7.88430E+03 -1.43902E+03  3.69464E+03 -1.20498E+04  7.44327E+03 -1.26620E+04
  1.47346E+04 -5.03140E+03  2.17259E+04  5.19727E+02  1.29740E+04  1.15367E+04  7.87091E+03  1.55951E+04
 -3.31261E+03  2.10921E+04 -1.56483E+04  1.29439E+04 -1.47661E+04 -5.97987E+02 -8.25646E+03 -5.92980E+03
 -7.28215E+03 -1.54403E+03 -4.35970E+03  2.54943E+03  1.37777E+03 -1.46973E+03 -8.43619E+03  3.45705E+03
 -8.69931E+03  1.74550E+03 -8.93676E+03 -8.03712E+03 -6.92115E+03 -1.23304E+04 -6.34748E+02 -9.68135E+03
  6.15078E+03 -5.14011E+03  6.34426E+03  6.92134E+03 -4.29353E+03  2.82512E+03 -4.30176E+03  4.36251E+02
 -2.34590E+03 -7.91691E+03  3.15720E+02 -5.58253E+03  9.46490E+03 -1.04050E+04  9.03960E+03 -1.97062E+03
  1.10469E+04 -2.10092E+03  1.10618E+04  8.88464E+03 -1.71273E+03  7.46076E+03 -3.60552E+03  7.92763E+03
 -4.90863E+03  3.71947E+03 -5.52725E+03 -3.01792E+02  2.75942E+03 -3.63064E+03  3.54849E+03  2.65544E+03
  3.72131E+03  2.15563E+03  2.49167E+03  5.20505E+03 -7.24319E+03  7.05369E+03 -1.04988E+04  8.44878E+02
 -1.05869E+04 -5.27322E+03 -6.49284E+02 -7.77727E+03  4.44511E+03 -8.66326E+03  6.06318E+03  1.42530E+03
 -5.88336E+03  3.67964E+03 -7.80531E+03  7.97876E+03 -4.35536E+03  3.64633E+03 -9.97475E+03 -1.34311E+03
 -1.29168E+03 -6.71477E+03  5.99622E+03 -1.00780E+04  1.20709E+04 -3.29675E+03  6.54933E+03  2.90946E+03
  6.44042E+03  7.55239E+03  1.30173E+03  1.19950E+04 -4.98380E+03  4.65852E+03 -9.05269E+03 -3.16916E+02
 -6.19832E+03 -3.38060E+03 -2.63673E+03 -9.93875E+03  3.04948E+03 -1.60339E+03  4.21685E+03 -7.86474E+03
  1.49952E+03  2.09539E+02 -6.76895E+02 -2.60024E+02  2.68093E+03  9.65108E+02  1.30266E+03  2.10647E+03
  3.27971E+03  2.65139E+03  5.51737E+03 -5.16026E+03  1.35868E+04  6.31415E+03  8.60185E+03  7.75376E+03
 -3.76226E+03  1.13982E+04 -9.01099E+03  9.35861E+03 -1.23405E+04  3.76400E+03 -1.10224E+04 -4.61395E+03
 -4.66675E+03 -9.73381E+03 -1.58946E+03 -2.59621E+03  9.87202E+02 -9.97706E+02  8.31697E+02 -7.05357E+03
 -3.83786E+03  4.46699E+03  5.94789E+03  6.07736E+02  3.46613E+03 -2.23616E+03  5.24512E+03 -2.00034E+03
  6.79914E+03  2.36830E+03  5.39808E+03  7.37410E+03 -1.51913E+03  7.72429E+03 -3.61836E+03  5.07493E+03
 -9.38036E+03 -4.18047E+03 -1.28977E+03 -6.57184E+03  3.43852E+03 -4.39400E+03 -8.06429E+01 -3.29248E+03
  9.81893E+03 -4.65947E+03  7.32868E+03 -8.79393E+02  8.33036E+03  5.50021E+03  3.05228E+03  1.21507E+04
 -4.89796E+03  6.39501E+03 -2.37602E+03  6.83792E+03 -2.73239E+03 -6.65895E+02 -2.25955E+03  5.39533E+02
  5.81825E+02 -1.98461E+03 -1.78234E+03  9.98730E+02  4.93494E+02 -5.45230E+02 -9.73014E+03 -6.00185E+02
 -6.69409E+03 -5.25827E+03  1.89696E+03 -3.13346E+03  8.76872E+03 -5.08547E+03  4.84155E+03  3.17537E+03
  3.55059E+03  1.00862E+03  4.99563E+03  3.45240E+03  1.13403E+03  4.94756E+03 -4.64911E+03  5.65172E+03
 -5.24315E+03 -9.83610E+02 -3.87023E+03 -6.32275E+03 -2.06070E+03 -5.42236E+03  1.37796E+00 -4.22885E+03
  1.23323E+03 -3.25069E+03  1.60612E+03 -4.35651E+02  1.46389E+03  4.19544E+03  5.16735E+03  5.85564E+01
  6.89750E+03  3.36624E+03 -8.49589E+02  8.42627E+02  2.17626E+03  4.46238E+03 -3.14569E+03  5.83627E+03
  4.40389E+02  5.16201E+03  1.60441E+03  2.85703E+03 -5.78231E+03 -1.23263E+03 -8.25013E+03 -1.83652E+03
 -1.85018E+03 -4.32186E+03  9.59953E+02 -1.02166E+04  3.81576E+03 -1.61806E+03  7.36497E+03 -2.93861E+03
  3.15125E+03  3.50138E+03 -2.58319E+02  4.90874E+03 -4.30167E+03  4.24502E+03 -1.09787E+03  1.32191E+03
 -2.43545E+03 -4.53791E+02  2.36137E+03 -5.44458E+03  1.00592E+03 -4.15902E+03  4.96329E+03 -2.54663E+03
  3.17117E+03 -2.57340E+02 -1.14211E+03 -1.06857E+03  2.91799E+03  3.74661E+03  4.14247E+03  4.68372E+03
 -3.67376E+02 -2.82810E+02  1.88478E+03  1.03376E+03  2.12139E+03  3.96933E+03 -1.98431E+03  4.03641E+03
 -1.21411E+03  9.15395E+02 -1.20822E+01  1.00222E+03 -4.51608E+02 -2.00672E+03  2.32280E+03 -2.27066E+03
  4.63989E+01 -2.80354E+02 -2.21437E+03  8.25939E+02  3.13683E+03  1.42166E+03 -3.07930E+03  2.95642E+03
 -6.07445E-01 -2.08014E+03  3.11377E+02 -4.09702E+02 -3.01284E+03 -4.12414E+03 -2.67843E+03 -2.34441E+03
  2.04772E+03 -1.66197E+03  6.07565E+03 -1.68249E+03  5.94793E+03  2.89303E+03  6.81798E+03  1.54577E+02
  1.21439E+03 -3.50654E+03 -3.34806E+02 -3.73643E+02  3.06710E+03 -3.72264E+03  9.65471E+02  4.09016E+02
  1.28870E+03 -2.91991E+03  1.55206E+03 -5.47128E+01  2.02124E+02  1.95072E+03 -2.62534E+03  1.18936E+03
 -1.56262E+03  2.69106E+03 -6.63603E+03  1.46902E+03 -1.34942E+03 -1.51228E+03  2.59730E+02 -6.34307E+02
  5.16465E+03 -3.33813E+03  3.69510E+03 -2.16248E+02  3.38480E+03 -3.36862E+03  5.28997E+02  5.13739E+03
 -2.98373E+03  7.53551E+03 -2.66371E+03  1.33809E+03 -6.51338E+03  1.29949E+03  3.02714E+02  4.48905E+03
 -3.72303E+03 -8.60988E+02 -8.34802E+02 -8.77684E+02 -5.48942E+03 -1.19481E+03 -4.28406E+03 -4.84383E+03
 -1.83069E+02 -6.55779E+03 -3.79818E+03 -5.85377E+03  2.52005E+03 -2.55518E+03  2.86248E+03 -1.72109E+03
  2.20078E+03 -1.43135E+03 -2.36888E+03  3.17848E+03 -3.45184E+03  2.78537E+03 -3.90468E+03  4.42313E+03
 -5.22075E+02 -1.91203E+03 -3.63780E+03 -6.91611E+02  1.93878E+03 -4.12259E+03 -9.45592E+02  3.52113E+03
 -6.10592E+03  2.55690E+03 -8.84824E+02  3.45229E+02 -3.30882E+03 -2.04480E+03  3.13647E+03 -1.18145E+02
  3.55438E+03 -5.81164E+03  2.54704E+03 -5.40584E+03  1.18679E+03  3.65120E+03  2.19889E+03  3.70391E+02
 -6.16306E+03  4.79438E+02  2.52713E+02 -2.12440E+03 -3.73714E+03  1.86896E+03 -5.47445E+03 -9.80446E+01
  1.36791E+03 -1.10433E+03  3.73318E+02 -2.03180E+03  1.26548E+03  9.62317E+02 -6.06734E+03  8.39534E+02
 -1.87749E+03 -5.87382E+02 -7.68189E+02 -3.39287E+03 -7.57912E+02  1.81461E+03  2.35515E+03  1.24737E+03
  3.37251E+03  2.30677E+03 -6.66552E+02  2.96841E+03 -1.01937E+03  2.48978E+03  8.85458E+03  7.75621E+02
 -7.03083E+03  4.78963E+02  3.45815E+03  4.91166E+03 -1.18115E+03  3.30818E+02  1.98799E+03 -2.24296E+03
  6.37786E+02 -6.43939E+02  1.99426E+03  2.33400E+03  3.86257E+03 -5.84864E+02 -1.83695E+03  2.13619E+03
 -2.91262E+03  2.95939E+03  3.14030E+03 -2.36370E+02 -3.81407E+03  2.14158E+03  1.18302E+03 -1.97676E+03
 -3.69331E+03  5.36124E+02  4.80894E+03 -2.30595E+03 -4.34170E+03 -5.05911E+01 -2.48172E+03  6.82122E+02
  1.25740E+03  3.81715E+03  1.65669E+03 -1.78992E+03 -1.60836E+03 -1.95487E+03 -4.43515E+03 -1.07883E+03
  2.98854E+03 -1.10828E+02 -1.16308E+03  8.52224E+02 -4.70839E+03  1.79622E+03  1.49627E+03  5.90754E+03
