 $NMID ID='MM_0lb_SNR50_14hz_g45_85.RAW', FMTDAT='(8E13.5)'
 TRAMP=1., VOLUME=1. $END
  3.07143E+05 -3.57469E+02  3.38034E+05  2.54202E+05  8.14414E+04  3.37555E+05 -1.32879E+05  2.51018E+05
 -1.88608E+05  8.44774E+04 -1.15703E+05 -3.06746E+04 -2.63286E+03 -5.30029E+04  4.91107E+04  3.03334E+03
  3.69488E+04  5.47676E+04 -2.38155E+04  6.79762E+04 -6.03697E+04  6.12594E+04 -7.64695E+04  2.91042E+04
 -8.01736E+04 -1.59125E+04 -5.79119E+04 -5.00956E+04 -1.44219E+04 -6.53693E+04  2.83524E+04 -5.03557E+04
  4.00789E+04  6.96702E+02  1.87284E+04  5.07138E+04 -3.49934E+04  4.80969E+04 -6.87135E+04 -2.87065E+02
 -5.90911E+04 -5.62952E+04 -7.26629E+03 -7.67883E+04  3.38916E+04 -5.57849E+04  5.34253E+04 -1.86422E+04
  4.17475E+04  7.83044E+03  3.80887E+04  2.94123E+04  1.48764E+04  3.02275E+04 -2.13805E+03  2.73106E+04
 -1.96110E+04  1.33521E+04 -1.44761E+04 -5.38036E+03  6.64848E+03 -5.22898E+03  2.05779E+04  1.30911E+04
  1.20906E+04  3.89978E+04 -3.52181E+04  3.54085E+04 -6.60836E+04  1.45525E+03 -5.60628E+04 -3.95033E+04
 -1.61914E+04 -6.58791E+04  4.18136E+04 -4.37600E+04  5.28809E+04  7.93994E+02  2.91738E+04  3.25046E+04
 -7.76859E+03  3.32033E+04 -2.69481E+04  1.33822E+04 -2.93196E+04 -1.95227E+03 -2.05929E+04 -1.30165E+04
 -1.11345E+04 -1.38923E+04  1.90498E+03 -1.43434E+04  5.70773E+03 -2.44349E+04  1.69135E+04 -1.16807E+04
  1.03526E+04  3.84502E+03 -7.92070E+03  1.74872E+04 -2.01481E+04 -2.51043E+03 -8.05032E+03 -2.80048E+04
  1.84265E+04 -4.60484E+04  4.41912E+04 -2.20486E+04  4.47323E+04  1.27783E+04  1.27701E+04  4.73694E+04
 -2.12228E+04  3.18519E+04 -2.81144E+04  2.54262E+02 -1.00940E+04 -3.20186E+04  2.16414E+04 -3.21972E+04
  3.88379E+04 -9.18440E+03  3.55055E+04  2.44100E+04  1.78082E+04  4.52212E+04 -6.90622E+03  4.77433E+04
 -3.22145E+04  2.93852E+04 -4.26096E+04  4.07232E+03 -4.08318E+04 -2.23097E+04 -2.86888E+04 -3.83703E+04
  6.58514E+03 -3.41477E+04  3.36467E+04 -1.42877E+04  2.60755E+04  1.07878E+04  4.92731E+03  1.34787E+04
 -1.47777E+04  8.11144E+03 -1.44473E+04 -1.86851E+03  6.89350E+03 -9.05840E+03  1.80488E+04  9.49001E+03
  1.67237E+04  2.68462E+04 -1.84652E+03  2.62011E+04 -2.68201E+04  1.00555E+04 -2.40827E+04 -1.17176E+04
 -2.01988E+04 -1.83071E+04 -5.48153E+03 -1.59452E+04  3.44691E+03 -2.18275E+04  1.77213E+04 -1.54121E+04
  2.43196E+04 -9.12174E+03  3.54134E+04  4.32426E+03  1.91344E+04  1.71442E+04  3.71059E+03  3.51741E+04
 -1.74811E+04  3.03902E+04 -2.95182E+04  8.20867E+03 -1.30096E+04 -9.18063E+03 -3.78513E+03 -1.28787E+04
 -2.72523E+02  9.63498E+02 -7.81504E+03  2.65841E+03 -1.47765E+04  7.37259E+03 -1.90100E+04 -6.49159E+03
 -1.14404E+04 -1.83008E+04  7.08861E+03 -2.29528E+04  1.39552E+04 -1.40703E+04  2.02807E+04  1.91776E+03
  1.30707E+04  1.18637E+04 -4.74998E+03  2.15540E+04 -1.42960E+04  1.09230E+04 -1.77253E+04 -3.63544E+03
 -1.69294E+04 -1.43781E+04 -2.49380E+02 -1.92631E+04  1.31632E+04 -2.15210E+04  1.95503E+04 -1.04051E+04
  1.75384E+04 -1.27760E+03  1.09682E+04  1.98655E+03  9.57366E+03  3.12413E+03  9.05728E+03  3.49674E+03
  1.74054E+04  1.67183E+03  1.87436E+04  1.33672E+04  1.40796E+04  2.69707E+04 -4.13719E+03  3.39086E+04
 -2.20043E+04  2.84267E+04 -3.01565E+04  5.11066E+03 -3.05671E+04  1.58969E+03 -2.71404E+04 -2.24372E+04
 -1.00366E+04 -2.68788E+04  1.23792E+04 -2.52629E+04  2.28350E+04 -1.17353E+04  1.45636E+04  9.09603E+03
  7.02957E+03  1.46931E+04 -1.44853E+04  1.17458E+04 -1.55416E+04  4.17436E+03 -1.31081E+04 -1.75717E+04
 -3.90829E+03 -1.71951E+04  8.96672E+03 -7.98899E+03  1.10768E+04 -1.47524E+03  3.61822E+02  9.81565E+03
 -4.04933E+02  1.90922E+03 -2.12545E+03 -8.05760E+03 -5.71558E+03 -1.63087E+04  7.83324E+03 -1.75603E+04
  1.72170E+04 -1.47244E+03  1.02973E+04  5.29604E+02  1.46491E+04  1.24347E+04  5.36945E+03  1.87745E+04
  3.96506E+03  1.76318E+04 -1.32511E+04  9.07292E+03 -1.29322E+04  5.93458E+02 -1.28576E+04 -4.06340E+02
 -2.03364E+03 -6.51325E+03  1.02660E+03  3.07786E+03 -4.84084E+03  2.41822E+03 -3.67678E+03  7.13101E+03
 -1.65413E+04  6.11605E+02 -7.10627E+03 -1.07222E+04 -6.29309E+03 -1.45096E+04  5.00041E+03 -8.61170E+03
  1.03829E+04 -5.82535E+03  5.64446E+03  2.63733E+03 -2.28693E+03  1.53203E+03 -5.02012E+03  1.11886E+03
 -2.95609E+03 -1.19516E+04 -1.98682E+03 -1.07601E+04  2.79251E+03 -1.24482E+04  1.66894E+04 -2.44824E+03
  1.72234E+04  1.65513E+03  1.13705E+04  7.62548E+03  1.89587E+03  1.32653E+04 -7.19872E+03  1.07620E+04
 -7.20531E+03  4.24073E+03 -3.70649E+03 -4.98248E+02  1.26372E+03 -1.36068E+03  8.18437E+03 -2.04145E+03
  2.66548E+03  7.18009E+02  3.83704E+03  6.63867E+03 -5.84208E+03  5.57952E+03 -1.00839E+04 -2.27800E+03
 -9.16712E+03 -1.57310E+03 -1.70687E+01 -6.61521E+03  2.35355E+03 -9.85280E+02  3.16075E+03  5.77739E+02
 -7.69899E+02  4.90738E+03 -5.66573E+03  1.10970E+04 -1.00282E+04 -8.40459E+02 -1.04970E+04 -6.74654E+03
 -3.33381E+03 -1.24112E+04  1.99410E+03 -1.46152E+04  1.38248E+04 -2.93659E+03  1.02726E+04 -2.00135E+03
  6.85532E+03  1.06152E+04 -1.28950E+02  8.73050E+03 -7.00023E+03  4.44727E+03 -8.18343E+03 -2.13870E+03
 -1.24381E+03 -8.25043E+03 -1.24511E+03 -7.77327E+03  5.13628E+03 -8.95060E+03  3.19510E+03 -7.63455E+03
  6.69937E+03 -6.33192E+02 -7.37365E+03  1.13007E+03 -5.75013E+03 -8.83201E+02  3.55951E+03 -4.62449E+03
  4.88341E+03 -3.78969E+03  7.52842E+03 -6.13157E+02  1.23794E+04  5.20573E+03  7.44997E+03  1.44489E+04
  1.58762E+03  1.32989E+04 -7.14272E+03  1.16741E+04 -1.80628E+04  6.06994E+03 -1.23836E+04 -5.68459E+03
 -4.40652E+03 -9.17907E+03  6.35891E+03 -1.16488E+04  5.27904E+03 -3.12048E+03  3.57103E+02 -2.29162E+03
  2.12600E+03 -2.55406E+03  1.30942E+03 -1.30842E+03 -1.81757E+03  1.38093E+03  5.22923E+03 -9.91533E+01
  5.99130E+03  9.17592E+00  1.22927E+03  5.12989E+03 -3.91006E+03  2.28187E+03 -5.69836E+03  3.85670E+03
 -3.56684E+03 -1.94088E+03 -8.66681E+03 -3.68173E+03 -8.06669E+02 -1.00029E+04  6.57897E+02 -9.04912E+03
  1.20033E+04 -3.97266E+03  9.68608E+03 -4.05969E+02  1.20168E+04  1.09064E+04  2.35005E+02  1.01158E+04
 -6.70442E+02  7.94413E+03 -7.92667E+03  2.15652E+03  3.96124E+03  1.54621E+03 -2.09877E+02 -2.91835E+03
  3.20780E+03 -1.04637E+03  4.95899E+02  7.36899E+03 -8.48655E+03  2.02623E+03 -2.65169E+03 -1.94765E+03
 -4.60397E+03 -7.20585E+03  1.73775E+03 -9.15093E+03  3.05342E+03 -8.50582E+03  7.54720E+03 -5.70628E+03
  7.26881E+03  3.74356E+03  3.27509E+03  1.07799E+04  9.51711E+02  4.51001E+03 -5.72681E+03  5.25925E+03
 -8.94508E+03 -5.95909E+03 -1.66524E+03 -2.25265E+02 -3.96173E+03 -5.41268E+03 -3.64179E+02 -1.23703E+03
  7.42576E+03 -1.44413E+03  5.56120E+03 -5.42822E+03 -1.65134E+03  5.96450E+03  5.05384E+02  1.99286E+03
  3.93507E+03  4.68837E+02  7.03377E+02 -5.01348E+02  2.42413E+03  1.16069E+03  3.08677E+03  6.34959E+03
  2.86250E+03  5.56655E+03 -8.60318E+03  9.36554E+03 -9.50467E+03 -1.34294E+03 -3.82355E+03 -6.44668E+02
  1.14602E+03 -6.38565E+03 -1.16103E+03 -1.00024E+04  7.04135E+03 -4.10985E+03  8.97823E+03 -2.21821E+03
  7.44077E+03  2.36914E+03 -4.32946E+03 -2.16345E+03 -2.14711E+03  3.09723E+03 -7.79784E+03 -8.98645E+02
  9.98464E+02  9.57212E+01  7.30428E+03 -4.99136E+03  8.07659E+03 -3.16590E+03  5.84905E+03  1.85042E+03
  1.85088E+03  8.41575E+01  3.65970E+03  4.03663E+03 -4.98994E+03  1.81411E+03  5.61806E+03 -3.76683E+03
  6.72072E+02 -2.48036E+03  4.03163E+03  1.87264E+03 -1.80700E+03  1.48821E+03 -2.34794E+03  4.98969E+03
 -4.33753E+03  2.02583E+03 -5.87799E+03  2.08339E+03 -2.25225E+03 -2.92215E+03 -1.52845E+03 -2.30895E+03
  2.70036E+03 -8.33520E+02 -1.24213E+03  2.08823E+02  2.59048E+02  4.57604E+03  1.89720E+03  5.56723E+02
 -5.96802E+03  1.45706E+02 -1.10089E+03 -6.96142E+02  3.23288E+02 -4.24300E+03  4.63768E+03 -3.74357E+03
  5.87852E+03 -1.94354E+03  3.96914E+03 -3.11970E+03  2.18289E+03  3.24828E+02  4.62391E+03  4.86047E+03
 -1.59081E+03  4.72045E+03 -4.39222E+03 -1.27327E+03  1.29913E+03 -4.15318E+03  6.19772E+03 -5.85686E+03
  2.91861E+03 -4.34410E+03  6.55099E+03  1.26221E+02  2.23694E+03  6.39826E+03 -4.54956E+03  4.76325E+03
 -2.96659E+03  1.07975E+03 -6.84913E+03 -5.04772E+02 -4.74804E+03 -6.86920E+03  6.61115E+01 -3.48186E+03
 -3.33606E+03 -4.40888E+02 -2.87591E+03  4.73931E+02  3.01849E+03  4.18734E+03 -4.68044E+03  3.48938E+03
 -4.21537E+02  2.79976E+03 -4.35002E+03 -6.91754E+03 -5.84213E+02  3.37032E+03 -1.76360E+03  1.64616E+03
 -1.25750E+02  3.97890E+03  1.24049E+03  2.32661E+03 -3.11785E+03  1.60726E+02 -5.58188E+03 -3.66660E+03
 -1.26547E+03 -1.27178E+04  1.89709E+03 -8.23398E+03 -2.47856E+03 -4.45295E+03  4.82829E+03 -3.50008E+03
  6.40941E+03  2.67167E+02  4.30945E+03 -2.61485E+02  3.91584E+02  5.48978E+03 -1.97919E+03  8.18153E+03
  3.78954E+03  6.94937E+03  2.64920E+03 -1.46403E+03 -2.44006E+03  1.46429E+03  2.15107E+03  6.66638E+02
 -3.51880E+03  1.63997E+03  1.45502E+03  4.78657E+02 -2.47376E+03 -5.00894E+03  2.88566E+03 -6.95379E+03
 -1.46486E+01  2.50339E+03 -4.23752E+03 -2.79764E+03  4.44877E+02  2.15110E+03  5.82410E+03  2.66715E+03
 -4.88148E+03  7.34840E+03 -5.49301E+03 -6.01702E+03 -6.07099E+03 -3.42936E+03 -3.20595E+03  4.45156E+02
 -1.80989E+03 -4.09848E+02  8.34447E+02  8.78508E+02 -9.17154E+01 -2.03128E+03 -3.46238E+03  4.30044E+03
 -6.34103E+02  5.18026E+03  6.97754E+02  2.61852E+03  4.15546E+02  2.74648E+02 -2.54416E+02  1.46128E+03
 -4.69983E+02 -4.27336E+03  2.79945E+02 -1.11141E+03  3.44406E+03  1.29553E+03 -2.60670E+03  4.90929E+03
 -5.76576E+03  8.09334E+01 -2.10217E+03  2.87922E+03 -4.70007E+03 -8.84448E+03 -3.13514E+03 -8.35107E+02
 -1.53631E+03  3.42319E+02  1.20948E+03  8.87033E+02  6.71739E+03  1.98564E+03  1.05024E+03 -5.32509E+01
  4.10814E+02  3.40008E+03  5.30055E+03  4.94572E+03  6.25494E+01  3.33048E+03 -2.73199E+03 -2.55158E+03
 -1.74030E+03 -1.86402E+03 -5.19009E+03  4.12804E+02 -2.74015E+03  1.65209E+03 -5.53137E+03 -3.38012E+03
  5.50073E+03 -2.06522E+03 -2.38393E+03 -9.19941E+02  4.81734E+03  1.54812E+02  4.85753E+03 -1.81671E+02
  3.13047E+03  1.72299E+03 -2.67592E+01 -1.04207E+03  2.53860E+02  1.64512E+03 -4.87451E+03  2.76315E+03
