 $NMID ID='MM_0lb_SNR50_18hz_g55_38.RAW', FMTDAT='(8E13.5)'
 TRAMP=1., VOLUME=1. $END
  3.07839E+05  4.06450E+03  3.33814E+05  2.52265E+05  8.28347E+04  3.38293E+05 -1.32223E+05  2.51798E+05
 -1.90590E+05  8.42186E+04 -1.06839E+05 -3.30875E+04  3.26782E+03 -4.94843E+04  5.50127E+04 -7.23087E+02
  3.26532E+04  5.84038E+04 -1.81584E+04  7.37675E+04 -6.45006E+04  6.69064E+04 -8.04082E+04  3.13312E+04
 -7.72812E+04 -1.58398E+04 -5.72591E+04 -5.04232E+04 -1.37285E+04 -6.91967E+04  2.67414E+04 -4.46451E+04
  3.79697E+04  8.25822E+03  1.47268E+04  4.61609E+04 -3.41039E+04  4.48662E+04 -6.31161E+04  3.11341E+02
 -5.68282E+04 -5.91311E+04 -4.40023E+03 -7.58997E+04  3.45469E+04 -5.16241E+04  5.05112E+04 -1.54960E+04
  3.87733E+04  7.44199E+03  3.18934E+04  2.48803E+04  1.64569E+04  2.81550E+04 -7.11002E+03  2.80482E+04
 -2.10071E+04  1.68538E+04 -2.03635E+04 -2.31341E+03  1.53852E+03 -4.25009E+03  2.94604E+04  9.93771E+03
  7.13466E+03  3.41138E+04 -3.07428E+04  3.99661E+04 -6.01555E+04  2.37142E+03 -5.58405E+04 -4.05776E+04
 -1.47839E+04 -6.35566E+04  4.01484E+04 -3.96432E+04  5.56831E+04  2.28725E+03  3.52905E+04  3.30141E+04
 -3.95818E+03  3.47170E+04 -3.09360E+04  1.59156E+04 -3.12040E+04 -5.97200E+03 -1.55751E+04 -9.11675E+03
 -9.56253E+03 -1.05015E+04 -2.00172E+02 -1.78519E+04  8.79773E+03 -2.12698E+04  1.41150E+04 -9.42091E+03
  1.20662E+04  9.32907E+02 -1.08380E+04  1.13723E+04 -2.00799E+04 -3.25074E+03 -6.67155E+03 -3.20445E+04
  2.21323E+04 -4.04822E+04  4.54140E+04 -1.51186E+04  4.14028E+04  1.86615E+04  1.43492E+04  4.24298E+04
 -1.82271E+04  3.45679E+04 -2.03715E+04  2.34553E+03 -9.75073E+03 -3.02981E+04  1.95071E+04 -3.16370E+04
  3.95623E+04 -7.58660E+03  3.27085E+04  2.26157E+04  1.49297E+04  4.04407E+04 -2.50369E+03  4.87007E+04
 -2.72556E+04  3.01179E+04 -4.23303E+04  6.67000E+03 -3.90212E+04 -1.37412E+04 -2.41630E+04 -3.91272E+04
  6.24288E+03 -3.82301E+04  2.97539E+04 -1.18179E+04  2.78746E+04  6.07579E+03  5.70389E+03  1.78099E+04
 -1.03606E+04  1.09827E+04 -1.10329E+04 -6.61034E+03  7.70047E+03 -1.54640E+04  1.48299E+04  5.31062E+03
  1.43235E+04  2.70545E+04 -5.52752E+03  2.57337E+04 -2.23528E+04  1.13026E+04 -2.78307E+04 -6.61931E+03
 -1.57839E+04 -1.54456E+04 -6.40571E+03 -1.35107E+04  7.97360E+03 -1.73659E+04  1.53205E+04 -1.30176E+04
  1.86524E+04 -1.15304E+04  3.10129E+04  2.75419E+03  1.43688E+04  1.72868E+04  6.88708E+03  3.39037E+04
 -1.71468E+04  3.02419E+04 -2.78429E+04  8.50914E+03 -1.93176E+04 -1.30132E+04 -3.07043E+03 -1.18818E+04
 -2.31071E+03  9.66659E+02 -4.32179E+03  4.61794E+03 -1.19720E+04  7.63351E+03 -1.51127E+04 -8.04409E+03
 -1.00605E+04 -1.79561E+04  9.15117E+03 -2.10412E+04  1.49663E+04 -1.29197E+04  1.68245E+04 -3.65963E+03
  8.20612E+03  8.64863E+03  1.84905E+03  1.82387E+04 -8.03030E+03  5.65169E+03 -1.63683E+04 -2.29771E+03
 -1.25100E+04 -1.24093E+04 -4.13232E+03 -2.26101E+04  6.78754E+03 -1.92567E+04  1.19129E+04 -1.08016E+04
  1.49776E+04 -3.63508E+02  1.17526E+04  2.32737E+03  1.73992E+03  1.38387E+03  6.42878E+03 -7.51398E+02
  1.54810E+04  2.43571E+03  1.38528E+04  1.54174E+04  1.45085E+04  2.58621E+04 -3.42820E+03  2.76967E+04
 -1.53838E+04  2.50386E+04 -2.37780E+04  8.33890E+03 -2.66685E+04 -1.45916E+03 -2.23145E+04 -1.71097E+04
 -1.19856E+04 -2.35201E+04  1.22674E+04 -2.23667E+04  1.82677E+04 -1.30219E+04  1.48618E+04 -4.73744E+02
  8.88879E+03  1.33286E+04 -5.53852E+03  1.29764E+04 -1.54961E+04  1.00304E+03 -1.35657E+04 -7.15065E+03
  1.57114E+03 -1.37387E+04  8.57398E+03 -1.17261E+04  7.15851E+03 -4.04482E+03 -3.17172E+03  6.06433E+03
 -5.61017E+03  1.39789E+03  2.68152E+01 -7.00895E+03  4.05774E+03 -1.55749E+04  7.76027E+03 -1.05130E+04
  1.63300E+04 -5.04237E+03  1.42408E+04  7.50813E+03  1.24944E+04  8.77302E+03  3.12873E+03  1.64267E+04
 -1.77988E+03  1.98974E+04 -1.37074E+04  1.42727E+04 -1.60934E+04  1.69735E+03 -1.05882E+04 -1.36560E+03
 -2.23996E+03 -4.41940E+03 -2.52388E+03 -7.66535E+02  2.15145E+02  6.19188E+02 -3.61263E+03  5.68170E+03
 -1.01447E+04 -2.31570E+03 -9.36670E+03 -5.26096E+03 -3.79876E+02 -1.19800E+04  2.34412E+03 -6.81369E+03
  9.71153E+03 -2.62664E+03  3.67730E+03  3.35930E+03  3.16968E+03  4.55722E+03 -8.18412E+03  1.43830E+03
 -5.67963E+03 -9.30668E+03 -4.82567E+03 -6.87597E+03  4.24993E+03 -1.12637E+04  1.07583E+04 -4.87623E+03
  1.23016E+04 -3.11319E+03  9.06524E+03  8.28579E+03  2.96713E+03  1.35365E+04 -5.10073E+03  8.16540E+03
 -6.39812E+03  3.00895E+03  5.84384E+02  3.51726E+03  2.49185E+03  4.19041E+01  2.91169E+03 -1.55097E+03
  1.00125E+03  4.95039E+03  1.33897E+03  6.25749E+03 -6.21082E+03  1.19132E+03 -1.04144E+04  1.17729E+03
 -5.77781E+03 -4.69352E+03 -4.98191E+03 -4.00683E+03  2.61880E+03 -5.14825E+03  4.00813E+03 -2.28240E+02
  1.98897E+03  3.19231E+03 -1.12036E+03  8.21776E+03 -6.54812E+03 -3.70977E+02 -5.90929E+03 -4.41424E+03
 -1.25361E+03 -2.54820E+03  2.31465E+03 -6.01278E+03  5.40119E+03 -3.17145E+03  6.30444E+03  2.02072E+03
  9.44118E+03  4.43019E+03  3.88464E+03  8.15591E+03 -5.14052E+03  7.19320E+03 -7.33621E+03 -1.12744E+03
 -6.05415E+03 -7.59422E+03 -1.30729E+03 -5.16722E+03  5.36452E+03 -7.77914E+03  6.27143E+03 -3.49099E+03
  7.74463E+02  1.98587E+03  2.54231E+02  3.25420E+03 -2.19762E+03 -2.15074E+03  4.65010E+02 -3.14156E+03
  3.11631E+03 -8.94480E+02  8.64586E+03 -3.17839E+03  1.82749E+03  5.57022E+03  7.55915E+03  9.77645E+03
 -1.06002E+02  7.83694E+03 -1.32623E+04  3.16000E+03 -8.86379E+03 -8.29509E+02 -6.93452E+03  1.83916E+01
 -6.74809E+03 -7.06946E+03  3.12877E+02 -5.22261E+03  3.24779E+03 -2.65437E+03  1.06926E+03  1.19730E+03
 -4.82452E+02  4.68048E+02  3.06847E+03 -5.20126E+03  1.83188E+03 -1.03867E+01  7.14993E+02  1.11726E+03
  2.69856E+03  3.64316E+03  2.70674E+03  2.71485E+03 -2.27474E+03  1.24986E+03 -1.81010E+03  1.36725E+03
 -4.40900E+03  6.51245E+03 -2.03445E+03 -6.89330E+03 -3.25323E+03 -2.47200E+03  6.82061E+03 -3.95382E+03
  7.07838E+03 -2.30703E+03  1.61814E+03  1.11219E+03  8.33197E+03  7.69748E+03  6.65461E+02  6.55843E+03
 -1.40493E+03  4.01298E+03 -3.07583E+03  7.32667E+03 -2.93704E+03  1.82368E+03  1.88853E+03  3.88863E+03
  9.12954E+02  3.98310E+03 -4.31350E+03  4.51923E+03 -4.09930E+03  3.15170E+03 -3.04319E+03 -3.95803E+03
 -3.62253E+03 -4.13679E+03 -1.47959E+03 -8.55581E+03  1.66260E+03 -1.82133E+02  9.19421E+02  1.39368E+03
  7.62446E+03 -3.02521E+03 -2.93769E+02  3.49101E+03 -1.61817E+03  4.88956E+03  1.02046E+03 -1.51869E+03
 -5.97176E+03  1.27760E+03 -4.41436E+03 -1.85798E+03 -5.34892E+01 -1.91074E+03  5.91720E+03 -1.72068E+03
  2.27842E+03  1.11439E+03  1.89897E+03  2.55376E+03  6.34251E+03  2.57435E+03  3.64844E+03  1.17042E+03
  5.78412E+03  3.40062E+02  1.74710E+03 -4.19115E+03  2.32245E+03  6.22319E+03  5.76928E+03  8.23775E+03
  2.73889E+03  6.67802E+03  5.25816E+01  4.56273E+03 -1.56926E+03  4.88686E+03 -2.94306E+03 -2.31942E+03
 -5.98944E+03 -3.90814E+03  1.42858E+03 -6.24147E+03  6.22414E+03  7.21817E+02  2.16425E+03 -1.11778E+03
  3.53509E+03  2.50112E+03  9.78834E+02  1.95511E+03  5.05197E+02  1.82691E+03 -2.10192E+03  9.75030E+02
 -2.71723E+03 -6.10657E+03  5.12890E+03 -1.49254E+03  3.38565E+03  2.23039E+03  5.24628E+03  2.17719E+03
  2.32591E+03 -4.83702E+02  9.75413E+02  1.36087E+03  1.38326E+03  5.26745E+03 -6.05883E+02  2.44409E+03
 -1.97579E+03 -1.60275E+03  2.95892E+03  5.28927E+03 -3.31973E+03  2.12904E+03  3.66679E+03  2.65584E+03
 -4.42880E+02  1.98401E+02 -2.71749E+03  2.25083E+03 -6.12022E+02 -4.16743E+03 -6.15825E+02  2.18939E+03
 -3.41952E+03 -4.67840E+03 -9.43089E+02 -3.50284E+03  1.57186E+03  5.61377E+03  2.83672E+02  4.60733E+02
 -4.38440E+03  4.76109E+03  1.81572E+03 -4.02336E+03  1.33632E+03 -1.31079E+03 -7.88293E+02 -2.38692E+03
 -3.73936E+03  6.71631E+02  3.70741E+03  5.18086E+03  4.21156E+03 -4.50370E+03  2.89565E+03 -1.30792E+03
 -3.10185E+03  3.71152E+03 -1.46315E+03 -2.10754E+03 -1.95336E+03 -2.57463E+03 -2.70234E+03 -1.29703E+03
  3.62160E+03  4.73390E+03  2.72156E+03  1.57127E+03  1.42963E+03  1.60899E+02  1.24360E+03  3.42249E+03
  2.96484E+03  5.30763E+03  1.29814E+03 -5.56381E+03  8.19194E+02 -2.71082E+03 -1.67287E+03  1.58265E+03
  3.82437E+03  2.08789E+03 -1.85699E+03  1.60936E+03  1.24733E+03  1.04402E+02 -1.67684E+02 -1.48029E+03
 -5.52239E+03  3.88724E+03  3.20339E+03 -2.32611E+03 -1.68858E+03  8.77620E+01 -1.19212E+03 -4.74570E+03
  4.62581E+03  2.04886E+03 -4.32090E+03  2.55464E+03  1.24955E+03 -2.79231E+03 -5.60043E+03 -5.34152E+03
  4.64213E+03 -5.97612E+03 -6.45259E+01 -6.42294E+03  1.60198E+03 -2.59113E+03  5.75801E+03 -6.02757E+02
  1.44454E+03 -2.96856E+03 -6.90311E+02  2.72770E+02  2.50152E+03  1.30095E+02  1.93884E+03  1.87489E+03
  2.63704E+02  4.79429E+01  3.73067E+03 -2.43252E+03  3.21224E+03  2.88271E+02  1.56558E+03 -2.27852E+03
 -5.07902E+03 -1.15924E+03 -2.81352E+03  1.88604E+03 -6.18825E+03 -1.92038E+03 -4.02737E+03 -1.99608E+03
  1.39546E+03 -5.10062E+02  4.52242E+03 -4.65498E+03  2.87760E+03  2.14915E+03  3.16449E+03  5.73975E+02
 -2.99859E+03  7.02581E+02 -4.98605E+03  4.13101E+03 -2.05046E+03  1.54711E+03  1.05220E+03 -1.88368E+03
 -1.58245E+03 -4.94833E+03 -1.56894E+03 -3.21232E+03  1.22747E+03 -6.94556E+02 -5.62311E+00 -2.11390E+02
  3.95796E+02  1.99398E+03 -4.26369E+03  2.83549E+03 -3.25617E+03  7.01376E+02 -1.80965E+03 -1.28530E+03
 -1.10264E+03  1.67701E+03 -8.70868E+02  3.84827E+03  7.31688E+02 -2.52766E+03 -1.99043E+03  2.18260E+02
  1.99516E+02 -1.39256E+03  2.22142E+03  3.26501E+03  9.86522E+02 -5.49320E+03 -5.05395E+02  2.25615E+03
  2.02783E+03  1.80866E+03 -2.08850E+03  1.26488E+03  1.90940E+03  6.56558E+02 -3.33963E+03 -1.61320E+03
 -4.03104E+01  2.74631E+03  1.09081E+03  4.25662E+03 -6.01262E+02  3.57570E+03  3.47698E+03 -2.04741E+03
  2.66554E+03  8.29768E+02  2.30307E+03 -3.04468E+03  1.65461E+03 -2.44563E+03 -1.75009E+03 -3.59581E+03
  3.01623E+03  1.20117E+03  6.53088E+02 -3.50872E+02 -3.46896E+03 -2.41501E+03  3.08775E+02  1.41345E+03
  8.62333E+02 -2.80700E+03 -6.86636E+02 -1.43550E+03 -2.48324E+03  1.29080E+03  1.03515E+03 -1.99197E+02
