 $NMID ID='MM_0lb_SNR50_14hz_g50_36.RAW', FMTDAT='(8E13.5)'
 TRAMP=1., VOLUME=1. $END
  3.08984E+05 -2.44047E+03  3.36156E+05  2.49979E+05  8.62897E+04  3.38568E+05 -1.35702E+05  2.54901E+05
 -1.94086E+05  8.21593E+04 -1.09732E+05 -3.43830E+04  2.35061E+03 -5.47049E+04  5.29328E+04 -7.18145E+02
  3.50858E+04  5.10809E+04 -1.45754E+04  6.93339E+04 -6.56018E+04  6.33995E+04 -8.38472E+04  3.15552E+04
 -7.96648E+04 -6.01442E+03 -6.02043E+04 -5.10591E+04 -1.66797E+04 -6.55232E+04  2.88915E+04 -4.38372E+04
  3.89282E+04  1.06756E+03  1.65247E+04  4.84047E+04 -3.49928E+04  4.21744E+04 -6.62003E+04 -2.26316E+03
 -5.47612E+04 -6.17136E+04 -6.46282E+03 -7.76298E+04  3.68419E+04 -5.70306E+04  4.64698E+04 -1.74408E+04
  4.03731E+04  9.76262E+03  3.11620E+04  2.40813E+04  1.96843E+04  2.42093E+04 -8.23926E+03  2.86515E+04
 -2.09691E+04  1.19493E+04 -1.61157E+04 -2.58069E+03  7.97527E+03 -9.27578E+03  1.84265E+04  9.30206E+03
  1.28150E+04  3.88726E+04 -3.15360E+04  3.83833E+04 -6.44993E+04 -1.23028E+02 -5.39668E+04 -4.30505E+04
 -1.58293E+04 -5.97433E+04  4.19396E+04 -5.35419E+04  5.86853E+04  2.06355E+03  3.43703E+04  3.20173E+04
 -4.40197E+03  3.95003E+04 -3.47598E+04  1.90964E+04 -3.38748E+04 -4.57766E+03 -2.13635E+04 -4.13210E+03
 -7.25458E+03 -1.29095E+04 -3.12136E+03 -2.18544E+04  6.32429E+03 -2.43196E+04  1.29255E+04 -1.59739E+04
  1.42178E+04  7.83574E+03 -5.78233E+03  1.03607E+04 -2.16954E+04 -4.00894E+03 -9.69281E+03 -3.17903E+04
  2.42207E+04 -4.50188E+04  4.34912E+04 -1.97421E+04  5.16569E+04  1.66296E+04  2.30270E+04  5.23495E+04
 -1.22115E+04  3.45893E+04 -1.84671E+04 -2.01429E+03 -6.06604E+03 -2.94341E+04  2.15555E+04 -3.94259E+04
  3.99520E+04 -1.27001E+04  3.41999E+04  2.27565E+04  1.83615E+04  4.37676E+04 -8.94301E+03  5.14233E+04
 -3.22336E+04  3.65487E+04 -3.85338E+04  7.48253E+03 -3.94443E+04 -1.92736E+04 -2.18023E+04 -4.35475E+04
  7.74677E+03 -4.43943E+04  3.56115E+04 -1.45508E+04  2.81492E+04  7.85058E+03  3.95946E+03  1.50902E+04
 -1.01916E+04  7.83490E+03 -6.76627E+03 -6.78704E+03  4.67151E+03 -1.05527E+04  1.88602E+04  7.41235E+03
  1.97415E+04  2.27377E+04 -7.38465E+03  2.35537E+04 -2.50783E+04  1.23565E+04 -3.13456E+04 -7.61693E+03
 -1.87431E+04 -2.18338E+04 -1.12912E+04 -2.10518E+04 -1.20175E+03 -2.01052E+04  1.70371E+04 -1.80360E+04
  2.77819E+04 -1.45083E+04  3.24181E+04  2.86765E+03  2.64680E+04  2.41282E+04  7.95742E+03  3.36672E+04
 -1.75055E+04  3.22184E+04 -2.53801E+04  1.20847E+04 -1.91695E+04 -1.37578E+04 -7.17275E+03 -1.14952E+04
 -5.75159E+02 -6.67574E+03 -6.69682E+03  9.03332E+03 -1.67939E+04  2.94197E+03 -1.78258E+04 -7.01285E+03
 -1.08852E+04 -2.26015E+04  8.15577E+03 -1.82810E+04  1.62444E+04 -1.06397E+04  2.02553E+04 -4.73926E+03
  9.67317E+03  1.08029E+04  1.94634E+03  1.72116E+04 -1.29999E+04  8.36253E+03 -1.15176E+04 -7.32845E+03
 -1.58274E+04 -1.84670E+04 -1.89412E+03 -1.95785E+04  8.89122E+03 -2.00803E+04  2.10220E+04 -9.01414E+03
  1.77498E+04 -1.52568E+03  1.10182E+04  7.30225E+03  7.15097E+03 -1.47583E+03  9.15586E+03  2.26214E+03
  1.87796E+04  3.86273E+03  2.13344E+04  1.69555E+04  1.56438E+04  3.29685E+04 -2.45225E+03  3.54496E+04
 -1.62540E+04  2.95848E+04 -3.10496E+04  1.29474E+04 -3.47616E+04 -4.75273E+02 -2.64816E+04 -1.89811E+04
 -1.36776E+04 -2.63439E+04  9.93067E+03 -2.54759E+04  1.93782E+04 -1.55086E+04  1.93484E+04  2.74126E+03
  8.76903E+03  1.13732E+04 -7.15574E+03  1.11503E+04 -1.67312E+04 -6.39790E+02 -1.42711E+04 -8.11637E+03
 -3.77883E+03 -1.16921E+04  1.02379E+04 -1.48609E+04  1.13803E+04 -2.32581E+03  3.69068E+03  8.82659E+03
 -7.07554E+03 -4.39198E+03 -5.85491E+03 -4.80046E+03 -5.42431E+01 -1.37607E+04  7.06046E+03 -1.79722E+04
  1.35201E+04 -5.02016E+03  1.67709E+04  8.85173E+03  1.73592E+04  8.64351E+03  1.15970E+04  2.24343E+04
 -2.81888E+03  2.34239E+04 -1.44818E+04  1.14090E+04 -1.27299E+04  3.02238E+03 -1.13750E+04 -2.41171E+03
 -4.03779E+03 -1.08945E+03 -2.10463E+03  1.23190E+03 -3.81496E+03  6.69510E+03 -7.70879E+03  5.50110E+03
 -9.12005E+03  1.44233E+03 -1.36560E+04 -4.01125E+03 -9.97759E+03 -1.40647E+04  6.88831E+03 -1.31820E+04
  8.66584E+03 -2.27407E+02  1.08308E+04  3.52718E+03  4.39025E+03  4.22839E+03 -4.51705E+03 -5.32779E+03
 -5.59803E+03 -6.05040E+03 -5.91270E+03 -1.01834E+04  9.76194E+03 -1.09093E+04  1.88522E+04 -4.70961E+03
  2.01237E+04  2.79838E+03  9.86373E+03  8.48957E+03  4.12036E+03  9.18390E+03 -1.03391E+04  1.28831E+04
 -1.01296E+04  2.18424E+03 -5.62939E+03 -3.08051E+03  2.37064E+03 -1.98148E+03  8.24852E+03 -1.26706E+03
  5.08083E+03  6.32752E+03  2.52983E+03  9.81109E+03 -9.60832E+03  9.67564E+03 -1.04235E+04  2.51395E+03
 -7.52332E+03 -6.76359E+03  3.96933E+03 -1.43430E+04  7.56554E+03 -4.83005E+03  5.00415E+03  2.65184E+02
  2.16527E+03  7.32879E+03 -6.12831E+03  7.91895E+03 -1.31579E+04  9.82380E+02 -7.33376E+03 -3.97783E+03
 -4.44351E+03 -9.81369E+03  1.87893E+00 -1.55450E+04  1.14742E+04 -6.44888E+03  1.07729E+04  4.24593E+03
  7.93048E+03  9.39844E+03 -3.61781E+03  5.11333E+03 -2.96977E+03  8.68376E+03 -1.05991E+04 -3.77431E+03
 -9.24444E+03 -1.08072E+04 -9.58381E+02 -6.38147E+03  1.43136E+03 -7.75533E+03  1.57323E+03 -6.73959E+03
  1.51476E+03  4.07035E+03 -4.93428E+02 -2.13775E+02 -1.89530E+03 -4.07755E+03 -1.24226E+03 -4.78563E+03
  5.38724E+03 -5.28371E+03  7.37974E+03  1.79051E+03  1.50794E+04  5.68195E+03  6.05420E+03  1.65054E+04
 -1.79682E+03  1.35013E+04 -1.48216E+04  1.32918E+04 -1.75159E+04  5.09955E+03 -1.06205E+04 -9.30735E+03
 -4.25236E+03 -1.28007E+04  3.31634E+03 -8.42084E+03  2.30308E+03 -3.42909E+03  7.74575E+02 -4.11692E+03
  6.31659E+03 -1.58082E+03  1.68468E+03  9.44073E+02  8.71407E+03 -1.87327E+03  2.01194E+03  1.49867E+03
  8.83055E+03  4.56630E+02  5.24078E+03  3.41745E+03 -3.79241E+03  4.57253E+03 -9.47271E+03  2.72332E+03
 -1.01913E+04 -1.08379E+03 -4.31765E+03 -4.03563E+03 -2.80573E+03 -1.26621E+04  8.01710E+03 -5.68279E+03
  9.48356E+03 -6.61960E+03  1.75520E+04  5.86765E+03  8.11861E+03  1.14712E+04 -7.67138E+02  1.55209E+04
 -3.44772E+02  5.54285E+03 -5.84466E+03  2.22775E+03 -3.49873E+03 -2.83359E+03 -1.63391E+03  6.70399E+02
 -1.89768E+03 -4.89334E+03  3.63303E+03  8.87630E+02 -2.31544E+03  5.65225E+02 -6.52696E+03 -2.95770E+03
 -3.77164E+03 -3.18431E+03 -2.88892E+02 -1.13758E+04  2.53476E+02 -1.01126E+04  1.96057E+03 -1.50376E+03
  6.27194E+03  5.30495E+03  2.00182E+03  9.65477E+03 -5.92159E+03  8.56377E+03 -7.34406E+03  4.47405E+03
 -8.29234E+03 -2.93914E+03 -5.80209E+03 -8.47568E+03 -3.75320E+03 -3.67870E+03  2.08461E+03 -1.07115E+04
  7.58140E+03  1.36876E+01  1.26425E+02  1.35128E+03  7.38223E+02  3.61932E+03  8.14266E+02  1.04235E+03
  4.06808E+02 -2.65116E+03  5.14929E+03 -5.31150E+02  1.25182E+03  3.10138E+03 -2.68044E+03  4.10381E+03
 -2.11979E+03  1.42588E+03 -9.25828E+03  4.37148E+03 -4.17457E+03  2.44668E+03 -7.18491E+03 -5.87743E+02
 -6.74520E+03 -7.86356E+03 -1.00118E+03 -6.34327E+03  2.48153E+02 -8.42627E+03  9.55265E+03  7.92489E+02
  2.47938E+03  7.98167E+02 -1.49514E+03  1.48354E+02 -4.63333E+03  1.91190E+03 -3.48363E+03 -7.55590E+03
 -8.03926E+03 -2.77489E+03  5.18013E+03 -6.93404E+03  2.85958E+03  5.99509E+02  5.95235E+03  1.62674E+03
 -2.43092E+03 -1.80775E+03  1.66829E+03 -1.33922E+03  3.65859E+03  2.78989E+03 -3.88882E+03 -1.02845E+02
  1.17359E+03 -1.39694E+03  4.26826E+03  3.39263E+03  2.20083E+03  7.49467E+02  7.78576E+02  5.92624E+03
 -1.93447E+03  5.85864E+03 -5.99130E+03 -2.41381E+03 -1.65018E+03  1.59395E+03 -1.89060E+03 -6.17827E+03
  2.80092E+03 -8.60574E+02  6.15881E+03  1.55680E+03 -3.89625E+03  3.36433E+03 -3.47897E+03  5.64571E+03
 -6.35123E+03  4.68042E+03 -5.06649E+03 -5.43221E+03 -3.95973E+03 -4.34275E+03  5.50941E+03  1.27191E+02
  2.95496E+01 -1.58767E+03  1.95755E+03  1.49100E+03  4.57270E+03 -1.75946E+02  5.18784E+03  5.27257E+02
 -9.37221E+01 -2.23931E+03  2.14634E+03 -5.72657E+03 -8.17822E+02  2.77182E+02  2.19687E+03 -2.77590E+03
  2.40360E+03 -8.21583E+02  6.58919E+03  6.97854E+02  4.63477E+03  5.26926E+03  2.12847E+02  5.29418E+03
 -1.34033E+03  7.33006E+03  1.36134E+03  5.87772E+02  1.87127E+03 -2.30214E+02  1.07254E+03 -8.23974E+03
  3.37754E+03 -1.33207E+03  6.04400E+03 -3.45657E+03 -5.42202E+02  1.50310E+03  2.31760E+03  5.50959E+03
 -3.11075E+02  4.23861E+03  1.10267E+03  5.70581E+03  5.23596E+03  1.65823E+03  5.37620E+02  4.29538E+03
  3.01549E+02 -5.17639E+02 -2.21261E+03 -2.22672E+03 -2.04061E+02  1.51266E+03 -7.70979E+03 -5.40463E+03
 -5.49162E+03 -1.11842E+03  1.98829E+03 -5.65589E+03  2.32001E+03 -4.90126E+03  4.79339E+03 -4.93010E+03
  3.12412E+03 -2.96820E+03  1.87738E+03  5.60096E+03  4.17382E+03  4.72586E+03 -4.01101E+03  5.94999E+03
 -7.29467E+02  3.43786E+03 -7.31933E+02  2.60441E+03  1.03718E+03 -3.54378E+03 -1.55812E+03 -2.57208E+03
  1.99226E+03  1.79674E+03 -1.38712E+02  9.95127E+02  2.10863E+03 -2.17960E+03  9.76513E+02 -2.84234E+03
  1.78328E+03 -1.36352E+03  2.80680E+03  1.32976E+03 -8.56105E+02  4.57157E+03  2.46096E+03 -2.58128E+03
 -2.74096E+03  6.66376E+03 -5.47944E+02  6.75636E+03 -7.41146E+03  9.19433E+02  1.93313E+03 -3.08893E+03
  3.22673E+03 -2.59779E+03  2.12355E+03 -1.40286E+03 -2.56197E+02 -2.27386E+03  9.51339E+02  4.21560E+03
  8.06188E+02 -1.25618E+03  4.35488E+03 -4.13895E+03 -4.78732E+03  3.71863E+02 -2.40421E+02 -5.11951E+01
  6.00273E+03  1.98795E+02 -7.76678E+02  5.04690E+03  3.92293E+03  2.51090E+03  4.23613E+03 -3.20258E+03
 -4.01655E+03 -2.91197E+02  1.38448E+03 -3.41253E+03 -5.40636E+03 -2.61270E+03  2.35152E+02 -2.34188E+03
 -1.50012E+03 -6.67374E+02  4.04637E+03 -2.73206E+03  2.22100E+03  5.04374E+03  1.07808E+03  6.69591E+03
  3.15940E+03  6.04497E+03 -1.84434E+03  7.05759E+02  1.03496E+03  2.13161E+03  2.07201E+03 -6.05670E+03
  3.74602E+02  1.02054E+03 -4.78423E+03 -5.01467E+03  2.85410E+03 -3.10318E+03  6.45144E+02  1.05628E+03
 -4.51617E+03 -3.68086E+03 -8.08778E+02 -6.55545E+03  2.39999E+03 -1.16186E+03 -1.08640E+03 -6.89918E+02
  9.88506E+02  3.36839E+03  3.98549E+03 -1.67313E+03  8.02461E+02  1.31769E+03 -3.97206E+03  1.73892E+03
