 $NMID ID='MM_0lb_SNR50_15hz_g45_88.RAW', FMTDAT='(8E13.5)'
 TRAMP=1., VOLUME=1. $END
  3.06623E+05  2.62605E+03  3.41291E+05  2.46389E+05  8.33696E+04  3.40541E+05 -1.34726E+05  2.48118E+05
 -1.90835E+05  7.94706E+04 -1.12712E+05 -3.03411E+04  4.99633E+03 -4.95605E+04  5.18617E+04 -1.96001E+02
  3.29786E+04  5.77758E+04 -1.54709E+04  7.48913E+04 -5.73676E+04  6.08927E+04 -8.49332E+04  3.26061E+04
 -8.30957E+04 -1.30376E+04 -5.45017E+04 -4.90566E+04 -1.86368E+04 -6.70603E+04  2.53008E+04 -4.80344E+04
  4.13860E+04  7.35197E+03  1.31623E+04  4.47158E+04 -3.21343E+04  4.70778E+04 -6.42981E+04 -1.56996E+03
 -5.41499E+04 -5.80943E+04 -6.60531E+03 -7.36008E+04  3.25963E+04 -5.89038E+04  4.86518E+04 -2.08107E+04
  4.46228E+04  9.51388E+03  3.52631E+04  2.51195E+04  1.73667E+04  2.99596E+04 -4.35242E+03  2.67411E+04
 -2.19732E+04  1.29912E+04 -1.90109E+04 -9.86776E+03  2.73722E+03 -7.35761E+03  2.22359E+04  1.18085E+04
  1.00063E+04  3.76360E+04 -3.22658E+04  3.58106E+04 -6.39243E+04  2.84689E+03 -5.87221E+04 -4.40367E+04
 -1.18005E+04 -6.21289E+04  4.28651E+04 -4.58836E+04  5.80050E+04 -3.79371E+03  3.47947E+04  3.16763E+04
 -8.50033E+03  3.84687E+04 -3.15261E+04  1.16704E+04 -2.83693E+04 -1.75585E+03 -1.64953E+04 -1.62557E+04
 -1.07278E+04 -1.38255E+04 -1.14641E+03 -1.84747E+04  6.22847E+03 -2.53227E+04  1.59771E+04 -7.78648E+03
  1.26711E+04  6.57022E+03 -6.46825E+03  1.68683E+04 -2.25410E+04 -6.73359E+03 -5.41459E+03 -3.10547E+04
  2.29978E+04 -4.02424E+04  4.46385E+04 -2.01378E+04  4.30944E+04  2.03190E+04  1.24528E+04  4.10135E+04
 -1.32113E+04  3.23408E+04 -2.11352E+04  4.74543E+03 -6.10342E+03 -2.80688E+04  2.51536E+04 -3.25122E+04
  3.81480E+04 -8.68269E+03  3.32515E+04  1.82426E+04  1.22282E+04  4.01908E+04 -1.15301E+04  5.35506E+04
 -3.08150E+04  3.66719E+04 -4.68269E+04  4.52064E+03 -3.86572E+04 -1.77787E+04 -2.24085E+04 -3.65118E+04
  6.85704E+03 -3.71748E+04  3.28690E+04 -1.62719E+04  2.95116E+04  1.14633E+04  3.57679E+03  1.96252E+04
 -8.13020E+03  6.45791E+03 -9.33842E+03 -5.87277E+03  7.59346E+03 -1.25378E+04  2.05370E+04  6.69474E+03
  1.17942E+04  1.84993E+04 -9.44040E+03  2.23176E+04 -2.09327E+04  1.11300E+04 -2.67459E+04 -7.68235E+03
 -1.39873E+04 -2.02838E+04 -3.03631E+03 -1.79209E+04  1.04678E+04 -1.81769E+04  1.07025E+04 -1.73891E+04
  2.35558E+04 -1.18942E+04  3.16667E+04  4.12024E+03  2.46410E+04  1.88357E+04  8.64145E+03  3.14155E+04
 -1.93659E+04  2.62012E+04 -2.27934E+04  9.29270E+03 -1.95620E+04 -5.46880E+03  3.99301E+02 -1.14276E+04
  4.82154E+03 -5.66717E+03 -5.23113E+03  1.02815E+04 -1.69999E+04  2.26604E+03 -1.47283E+04 -3.44622E+03
 -8.27739E+03 -2.14616E+04  6.44538E+03 -1.75795E+04  1.41209E+04 -2.01351E+04  1.53856E+04 -3.31889E+03
  1.05844E+04  1.07151E+04  2.06199E+03  1.81863E+04 -1.34229E+04  8.41349E+03 -2.33009E+04 -3.92490E+03
 -9.46260E+03 -1.40782E+04  4.96571E+03 -1.94229E+04  1.29862E+04 -1.97628E+04  1.65044E+04 -9.79648E+03
  1.46706E+04  9.32272E+02  1.70422E+04  4.66318E+03  3.87956E+03  2.76368E+03  9.81105E+03 -3.06718E+03
  1.96718E+04  5.00164E+03  1.92911E+04  1.93606E+04  1.20206E+04  2.39919E+04 -9.98056E+03  2.70590E+04
 -1.92827E+04  2.16480E+04 -2.79900E+04  9.66983E+03 -3.01585E+04 -3.90173E+03 -2.27113E+04 -9.27359E+03
 -9.24451E+03 -2.29940E+04  8.40667E+03 -2.11961E+04  2.10557E+04 -1.08669E+04  1.87973E+04  8.76542E+03
  9.95480E+03  1.27295E+04 -4.15186E+03  1.08816E+04 -2.01858E+04  2.12932E+03 -1.20081E+04 -9.83838E+03
  2.06652E+03 -1.46583E+04  8.14336E+03 -1.62064E+04  1.19512E+04 -5.76089E+03  5.66871E+02  5.71875E+03
 -6.92560E+03 -1.62942E+03 -6.16626E+03 -9.00328E+03 -2.30947E+03 -7.32096E+03  6.44482E+03 -1.04406E+04
  1.04193E+04 -9.25465E+03  1.01412E+04  2.56562E+03  1.19344E+04  7.57004E+03  8.10178E+03  2.29319E+04
 -4.53859E+03  1.95577E+04 -8.65716E+03  1.32476E+04 -1.83048E+04  4.01196E+03 -1.27834E+04 -7.17279E+03
 -6.08016E+03 -6.73454E+03 -5.90433E+02 -2.01254E+03 -2.07135E+03  4.97799E+03 -7.94809E+03 -4.56597E+02
 -1.08231E+04  5.78241E+01 -8.00582E+03 -7.75526E+03 -2.09277E+02 -1.33001E+04  3.65360E+03 -1.29380E+04
  9.98093E+03 -1.34476E+03  6.60119E+03  2.15987E+03  2.09856E+03  2.83909E+03 -4.18083E+03 -6.63738E+03
 -6.68230E+03 -9.90911E+03 -1.82187E+03 -1.22454E+04  4.50394E+03 -8.00746E+03  1.51084E+04 -4.88955E+03
  1.51339E+04 -5.17181E+03  6.02235E+03  1.20475E+04 -3.87447E+03  1.47959E+04 -4.16484E+03  8.56021E+03
 -6.46126E+03  4.82587E+03 -3.00032E+03 -3.72671E+03  9.75711E+02 -5.39773E+03  5.18108E+03 -1.42341E+03
  4.93630E+03  3.89953E+03  4.69987E+03  1.07151E+04 -1.12154E+04  9.77443E+03 -8.69055E+03 -3.33072E+01
 -1.00517E+04 -4.94541E+03  5.67488E+02 -9.74382E+03  9.08814E+03 -4.70305E+03  3.16160E+03  1.83642E+03
  2.12537E+03  8.28359E+03 -3.74900E+03  8.82546E+03 -1.03700E+04  3.47877E+03 -6.89973E+03 -3.71777E+03
 -5.45994E+02 -8.82770E+03 -4.13588E+02 -8.24186E+03  3.97115E+03 -3.90182E+03  1.19770E+04 -1.86547E+03
  7.10533E+03  2.42987E+03 -9.54130E+02  7.29161E+03 -7.67415E+03  3.48294E+03 -9.87319E+03 -1.74960E+03
 -5.05743E+03 -8.86934E+03 -3.52487E+01 -3.45878E+03  7.06659E+03 -7.62737E+03  2.34340E+03 -2.74571E+03
  1.01221E+03  2.02339E+03 -1.46881E+03  4.24416E+03  2.50465E+02  2.53255E+03  4.52282E+03 -4.32985E+03
  8.82549E+03 -1.75792E+03  1.25030E+04  9.90333E+02  9.59859E+03  6.76181E+03  1.00337E+04  1.33404E+04
 -1.21739E+03  1.44015E+04 -1.30965E+04  1.16020E+04 -1.71407E+04  2.60762E+03 -1.38710E+04 -3.64945E+03
 -6.93373E+03 -1.13480E+04  6.71663E+03 -7.80490E+03  1.93727E+02  1.33720E+03 -7.91843E+01  9.90163E+02
  1.15202E+03  4.70265E+02  4.12117E+03 -4.07907E+03  5.74568E+03  4.40738E+02  2.46656E+03 -1.64373E+03
  6.97263E+03  4.21002E+03 -5.51551E+02  9.52511E+03 -3.33914E+03  4.54992E+03 -5.64218E+03  4.64511E+03
 -5.05843E+03 -2.72601E+02 -8.20112E+03 -3.99212E+02  2.36578E+03 -7.76719E+03 -3.04291E+03 -8.89078E+03
  9.80977E+03 -7.03277E+03  1.04896E+04  2.66488E+03  6.18757E+03  5.18965E+03  1.47718E+03  1.03692E+04
 -9.08070E+03  1.05060E+04 -4.11838E+03  3.82154E+03 -6.56311E+03 -2.46352E+03 -3.66786E+03 -4.03459E+02
 -9.18893E+02 -1.72617E+03  2.74723E+03  6.27289E+02 -6.52855E+03  3.98848E+03 -5.25324E+03 -2.67526E+03
 -5.45949E+03 -2.27479E+03 -2.16382E+01 -5.95464E+03  2.70008E+03 -8.06671E+03  3.66771E+03 -2.20417E+03
  7.15123E+03  7.41044E+03  8.21720E+03  5.74714E+03  6.48540E+02  9.27724E+03 -7.04917E+03  3.06569E+03
 -9.60169E+03 -3.70956E+02 -5.21825E+03 -4.58142E+03 -3.79275E+03 -6.20410E+03  3.95249E+03 -7.62997E+03
  2.19758E+03 -3.54116E+03  2.68131E+03 -1.92620E+03  2.03712E+03  3.37353E+03  1.12587E+03  1.48049E+03
  2.87444E+03  1.33907E+03 -1.85831E+03  2.59410E+03  4.68364E+03  2.61790E+03 -1.32190E+03  3.75823E+03
  3.19190E+01 -2.77869E+02 -1.83805E+03  4.47409E+03 -6.98919E+03 -2.21544E+03 -7.73918E+03  5.04964E+02
 -3.05858E+02 -4.24148E+03  3.75501E+03 -3.90456E+03  2.32187E+03 -9.62262E+02  4.01639E+03  3.24318E+03
  4.10868E+02  3.79940E+03  2.43225E+03  4.75819E+03  8.40288E+02 -3.29128E+03 -5.24101E+03 -5.31587E+02
  1.65653E+02  9.64869E+01  4.94448E+02 -4.85740E+02  2.54665E+03  1.54589E+03  2.36880E+03  6.06587E+02
  1.95384E+02  8.02371E+03 -4.21629E+02  3.10770E+03  9.78915E+01 -1.72145E+03  1.96103E+03 -2.20807E+02
  1.20211E+03 -6.56173E+02  2.66697E+02  9.52248E+03 -4.15988E+01  2.45699E+03 -2.67998E+03  5.13443E+03
 -1.71542E+03  7.73316E+02 -3.73844E+02  1.20571E+03 -7.85646E+03 -3.55671E+03 -6.08135E+03 -2.05351E+01
  1.93746E+03  7.23153E+02  3.01827E+03  1.12867E+03 -4.37771E+02 -2.64335E+03 -3.82333E+02 -3.53154E+02
 -6.54937E+03  1.61865E+03 -2.85677E+03  2.52860E+03  1.52974E+02 -1.84607E+03  3.66945E+03 -5.22631E+03
 -2.79347E+03 -6.01110E+03  2.29451E+03 -3.24764E+03 -5.69444E+02 -2.95824E+03  1.94524E+03 -4.65526E+03
 -2.79366E+03  2.79248E+03 -8.03237E+02 -3.47296E+03 -8.78251E+02 -1.83887E+03  2.01211E+03 -1.03205E+03
  1.32395E+03 -1.54373E+03  2.53889E+03  2.35784E+03  1.32639E+03  2.78604E+03 -5.57995E+02  1.36388E+02
 -1.79076E+03 -1.41868E+03 -3.76426E+03 -1.71609E+03  6.69179E+02 -8.91867E+02  3.43784E+02  3.52522E+01
 -1.41890E+03 -5.50883E+03  7.74119E+03 -2.74372E+03 -3.55845E+02 -6.48909E+02  9.72369E+02 -2.74556E+02
  3.33777E+02  1.91440E+03  5.75272E+03 -1.91562E+03  3.24243E+02  3.22718E+03 -2.06855E+03  4.34780E+03
 -4.33970E+03  1.12493E+03 -2.13175E+03 -2.14146E+03 -8.74371E+03  1.40280E+02 -5.27397E+03 -2.70984E+03
 -5.42608E+02 -3.78226E+03  2.78833E+03 -4.85032E+03  3.85408E+03 -4.41049E+03  5.00118E+03 -1.04166E+03
  1.63114E+03 -3.48252E+03  4.65700E+03  3.18072E+03  4.66465E+03  2.72706E+03 -3.77080E+03  4.23968E+03
 -1.63072E+03  1.30703E+03  1.15016E+03  2.09139E+03  2.91816E+03  2.42698E+03 -3.74729E+03  2.12730E+03
 -4.36971E+03  3.85296E+03 -1.55682E+03 -4.50099E+03  3.84217E+03  5.18887E+02 -2.35812E+02 -1.31272E+03
  1.40665E+03 -3.88024E+03  4.31793E+03  7.69356E+02  2.30709E+03  2.20683E+03  1.31798E+03  5.08469E+03
 -1.82182E+03  7.03194E+03  7.64798E+02  6.32298E+02 -2.10724E+03 -7.44492E+02 -4.56904E+03 -4.02501E+03
 -6.09801E+02 -4.19275E+02 -1.09119E+03 -6.43174E+02 -6.76665E+02 -1.47727E+03  8.29794E+03 -4.43232E+02
  1.31791E+03  2.45492E+03 -2.79600E+03  1.70479E+02 -1.42308E+03 -1.33131E+03  2.02494E+03  5.93835E+03
 -1.63723E+03 -4.01247E+03  1.05718E+03  3.69626E+03  4.40054E+03 -2.43112E+03  1.60385E+03  1.42937E+03
 -2.16736E+03  2.30772E+03 -2.18554E+03 -2.22941E+03 -4.10573E+03 -1.38086E+03 -7.62358E+03 -6.06470E+03
 -9.16744E+02 -8.39050E+03 -7.15500E+02 -3.27662E+03  1.75860E+03 -3.23732E+03  7.14436E+03  9.79213E+02
 -3.19601E+03  6.66227E+03  1.57077E+03 -7.73609E+01 -3.43391E+02 -4.57186E+03 -1.17498E+03  4.71959E+03
 -1.77963E+03 -3.17483E+03 -1.26561E+03  2.01780E+03 -1.12530E+03 -2.97226E+02 -1.68205E+02  1.91260E+03
 -2.74579E+03  8.52625E+02  1.24951E+03 -1.08599E+03  2.26740E+03 -4.33454E+03 -2.14932E+03  3.60108E+02
  2.47157E+03 -4.63600E+03 -1.52757E+03  2.36622E+03 -2.32649E+03 -6.83105E+02 -3.76851E+02  1.42514E+03
