 $NMID ID='MM_0lb_SNR50_11hz_g45_49.RAW', FMTDAT='(8E13.5)'
 TRAMP=1., VOLUME=1. $END
  3.08212E+05  3.31265E+03  3.34830E+05  2.52162E+05  8.36279E+04  3.31889E+05 -1.34058E+05  2.45215E+05
 -1.83487E+05  8.17556E+04 -1.12747E+05 -3.18348E+04 -8.57666E+03 -5.00564E+04  4.88897E+04 -1.75819E+03
  3.30352E+04  5.45461E+04 -1.77448E+04  7.53439E+04 -5.96498E+04  6.17526E+04 -8.50106E+04  3.24001E+04
 -8.53583E+04 -1.29207E+04 -5.41543E+04 -5.28379E+04 -1.00622E+04 -7.60152E+04  3.35472E+04 -4.08969E+04
  3.91401E+04  1.38741E+03  1.69119E+04  4.24218E+04 -3.63151E+04  4.93159E+04 -6.61653E+04  3.18463E+03
 -5.70905E+04 -5.42330E+04 -5.71325E+03 -7.71290E+04  3.41919E+04 -5.52804E+04  4.76116E+04 -1.72074E+04
  4.43757E+04  1.04050E+04  3.66680E+04  2.22518E+04  1.18192E+04  3.68676E+04 -9.29756E+03  2.81866E+04
 -2.38493E+04  1.41470E+04 -2.30114E+04 -9.04337E+03  6.94009E+03 -8.22914E+03  2.35083E+04  1.27739E+04
  9.98080E+03  3.42307E+04 -3.15593E+04  3.87472E+04 -6.75785E+04 -3.34374E+03 -5.82379E+04 -4.17994E+04
 -1.14026E+04 -6.37177E+04  4.45100E+04 -4.22086E+04  5.62828E+04 -8.96117E+03  3.26186E+04  3.53385E+04
 -1.07420E+04  3.47913E+04 -3.11328E+04  1.64008E+04 -3.16305E+04 -5.83210E+03 -1.98271E+04 -1.60698E+04
 -1.32671E+04 -1.10392E+04  2.73176E+01 -1.75012E+04  3.54877E+03 -2.38640E+04  1.97414E+04 -1.45595E+04
  1.00611E+04  9.87620E+03 -9.68352E+03  1.21026E+04 -1.87180E+04 -7.73276E+03 -9.27279E+03 -3.03744E+04
  2.52162E+04 -4.74609E+04  5.08690E+04 -1.99251E+04  4.21751E+04  1.71270E+04  1.66512E+04  4.60786E+04
 -1.70020E+04  3.19408E+04 -2.66268E+04  6.62628E+03 -1.71276E+04 -2.90580E+04  1.69690E+04 -3.46114E+04
  4.16704E+04 -6.53415E+03  3.48068E+04  2.80692E+04  2.24450E+04  4.95126E+04 -8.33990E+03  4.95182E+04
 -3.17351E+04  3.48339E+04 -4.83402E+04  1.07984E+04 -4.45044E+04 -1.44074E+04 -2.31516E+04 -3.99749E+04
  3.64938E+03 -4.00783E+04  3.41017E+04 -1.98796E+04  2.90165E+04  4.80760E+03  6.39213E+03  1.83041E+04
 -1.62411E+04  9.81422E+03 -6.30906E+03 -1.06260E+04  4.65643E+03 -9.45000E+03  2.02782E+04 -8.36754E+02
  1.21250E+04  2.17447E+04 -7.79801E+03  2.59066E+04 -2.86228E+04  1.25876E+04 -2.97932E+04 -2.71746E+02
 -2.56722E+04 -1.90154E+04 -1.07729E+04 -3.00319E+04  8.99928E+03 -1.97950E+04  1.90665E+04 -2.26216E+04
  3.06800E+04 -7.40875E+03  3.61598E+04  4.95565E+03  2.77561E+04  2.17117E+04  3.58090E+03  4.13022E+04
 -1.78972E+04  3.05004E+04 -3.40658E+04  7.58960E+03 -1.99298E+04 -4.18298E+03 -7.69640E+03 -1.14351E+04
  1.33374E+03 -2.39914E+03 -5.96549E+03  7.65783E+03 -1.93425E+04  1.03235E+04 -1.93229E+04 -1.42112E+04
 -1.09795E+04 -1.91920E+04  8.20087E+01 -2.57909E+04  1.90859E+04 -1.27213E+04  2.33664E+04 -3.87130E+03
  1.30280E+04  1.24009E+04 -8.29281E+02  1.61495E+04 -1.84509E+04  1.15314E+04 -2.70661E+04 -4.47957E+03
 -1.43843E+04 -1.34635E+04 -3.58988E+03 -2.22278E+04  1.17063E+04 -2.10495E+04  2.21019E+04 -1.17804E+04
  1.74017E+04  3.39218E+03  1.82377E+04  7.00486E+03  6.21000E+03 -1.63293E+03  1.20849E+04 -7.80066E+03
  1.49794E+04  4.00361E+02  2.50772E+04  1.79517E+04  8.75422E+03  2.97148E+04  2.64006E+03  3.89545E+04
 -2.78030E+04  3.10315E+04 -3.48392E+04  1.58193E+04 -3.64826E+04 -1.90489E+03 -3.27368E+04 -2.49676E+04
 -1.41372E+04 -3.20885E+04  7.44601E+03 -2.93876E+04  3.15466E+04 -1.49000E+04  2.26542E+04  6.18026E+03
  2.04509E+03  1.93450E+04 -9.39031E+03  1.77012E+04 -1.90153E+04  4.27644E+03 -1.30956E+04 -1.06442E+04
  3.67462E+03 -1.81285E+04  1.07809E+04 -1.00911E+04  1.47719E+04  2.19572E+03  1.04013E+03  1.05409E+04
 -7.97468E+03  1.06219E+04 -9.03578E+03 -5.95986E+03 -7.09416E+02 -1.50304E+04  3.76805E+03 -1.60581E+04
  1.83780E+04 -9.68594E+03  2.44357E+04  7.04542E+02  2.81303E+04  9.68509E+03  7.49395E+03  2.12570E+04
 -9.79383E+03  2.43674E+04 -1.72494E+04  1.10978E+04 -1.85241E+04  5.79712E+03 -1.03814E+04 -7.65474E+03
 -2.77480E+03 -6.92050E+03 -4.80896E+03  4.16833E+02 -4.82738E+03  4.44877E+03 -4.84107E+03  5.47834E+03
 -9.02187E+03 -1.83200E+03 -1.20284E+04 -7.29287E+03 -5.80975E+03 -1.64370E+04  5.80816E+03 -1.22980E+04
  9.27995E+03 -4.49009E+03  1.17703E+04  4.70332E+03 -6.50981E+02 -1.52702E+03 -7.90058E+03  3.35930E+03
 -8.06059E+03 -1.17172E+04  3.87472E+02 -1.33552E+04  5.85286E+03 -1.53943E+04  2.02214E+04 -2.29934E+03
  1.95624E+04 -2.16119E+02  1.15142E+04  1.50605E+04  6.04433E+02  1.76720E+04 -9.83045E+03  1.44607E+04
 -1.55490E+04  4.27793E+03 -3.01572E+03  7.74159E+02 -1.66135E+03 -2.15206E+03  6.20677E+03  1.46974E+03
  1.37013E+03  1.99363E+03 -1.28855E+03  8.78487E+03 -4.73800E+03  1.11560E+04 -1.65259E+04  3.28867E+03
 -1.17029E+04 -9.81835E+03  2.75625E+03 -8.97469E+03  2.83119E+03 -2.76889E+03  5.38796E+03  2.83353E+03
  7.44676E+03  5.62275E+03 -1.00446E+04  1.29109E+04 -5.23242E+03  8.85089E+02 -1.71181E+04 -4.26445E+03
 -6.77964E+03 -1.63502E+04  3.37258E+03 -1.35746E+04  1.39688E+04 -7.83838E+03  1.12164E+04  6.21103E+03
  3.89793E+03  9.86407E+03 -2.50389E+03  1.63460E+04 -6.04992E+03  3.35796E+03 -9.45024E+03 -8.29966E+03
 -6.01775E+03 -1.71754E+04 -1.04973E+03 -4.22772E+03  5.21880E+03 -7.40191E+03  3.41556E+03 -4.58550E+03
  4.66182E+03  3.16467E+03 -1.62010E+03 -3.55400E+03  2.23804E+02 -5.62525E+03  5.54756E+03 -8.66269E+03
  8.69269E+03 -2.77188E+02  1.18164E+04  3.37757E+03  1.70332E+04  1.09775E+04  8.41938E+03  1.46879E+04
 -3.12958E+03  2.00799E+04 -2.01708E+04  1.99914E+04 -2.41608E+04  3.51351E+02 -1.80264E+04 -4.53068E+03
 -6.97150E+03 -1.36043E+04 -3.05141E+03 -2.10411E+04  5.88335E+03 -4.32201E+03  2.90073E+03 -3.52915E+03
  7.27268E+03 -5.18264E+02  1.26439E+03 -8.70288E+03 -6.64318E+02 -5.15353E+03  4.56684E+03  1.13498E+03
  3.36292E+03 -5.51044E+03  5.04560E+02  7.96701E+03 -2.17282E+03  1.43505E+04 -6.00409E+03  7.28393E+03
 -7.48051E+03 -4.41378E+03 -8.50685E+03 -2.54996E+03 -1.25410E+03 -1.60776E+04  4.44727E+03 -1.87820E+04
  1.07975E+04 -5.94167E+03  1.03061E+04 -8.32780E+01  1.00854E+04  1.46266E+04  6.87176E+03  1.44135E+04
 -1.58959E+03  7.59618E+03 -1.35909E+04  6.84492E+03 -6.32201E+03  1.49370E+02  1.16492E+03 -2.32599E+02
  3.57713E+03  5.09747E+03 -1.56870E+03  1.37909E+03 -5.33129E+03  3.13378E+03 -8.71766E+03 -4.10042E+03
 -7.71881E+03 -7.31183E+03  1.22603E+03 -8.00962E+03  4.07975E+03 -8.86991E+03  1.07489E+04 -8.77246E+03
  1.25420E+04  7.13929E+03  5.06896E+03  9.36897E+03 -3.89371E+03  9.50001E+03 -2.68336E+03  7.29531E+03
 -1.24672E+04 -3.47238E+03  5.70096E+02 -7.76157E+03  2.95384E+03 -1.19474E+04  5.26988E+03 -4.88515E+03
  2.84696E+03  1.35162E+03  5.39314E+02  5.40575E+03 -2.61163E+03 -1.97959E+03  3.45892E+03 -1.74893E+03
  3.99742E+03 -2.64776E+03  3.37612E+03  1.11143E+03  1.84026E+03  6.53445E+03  6.46088E+03  5.16693E+03
 -1.06804E+03  6.41444E+03 -5.39375E+03  7.14161E+03 -9.60996E+03  4.36237E+03 -1.50708E+04 -6.11838E+03
 -3.70624E+03 -6.47628E+03  5.38665E+03 -1.29849E+04  1.17582E+04 -4.75449E+03  7.17374E+03  8.13766E+02
  5.86916E+03  7.24249E+03 -4.37015E+03  5.83270E+03 -2.18807E+03  4.83912E+03 -1.99448E+03  2.39802E+03
 -5.32761E+03 -4.50267E+03  5.50097E+03 -1.22340E+03  1.81977E+03 -1.21284E+03  2.50841E+03  1.00640E+03
  7.79243E+02  2.75381E+03  8.49107E+02 -1.23027E+03 -5.87235E+03  7.96499E+02 -1.15642E+03 -3.51765E+03
  6.42966E+03 -1.05271E+03  9.58935E+03  7.06683E+03  1.10709E+03  5.27945E+03 -1.44428E+03  3.73082E+03
 -7.57919E+03  7.69483E+03 -5.10384E+03  5.22086E+03 -1.09938E+04 -1.92441E+03 -5.55685E+03 -6.03297E+03
 -8.62841E+02  4.79971E+03  4.33761E+02 -7.63337E+03  6.84765E+03 -9.16544E+02 -2.68433E+03 -8.42100E+02
 -3.42103E+03  4.40723E+03 -2.53120E+03 -3.15718E+03 -2.22791E+03 -3.76108E+03 -8.43845E+02 -3.64845E+03
  5.85865E+03 -4.68428E+03  3.07683E+03 -2.48663E+03  2.88640E+03  1.61076E+03  1.58886E+03  2.26449E+03
 -3.28102E+03  4.04822E+03 -2.29105E+03  1.51298E+03  5.54093E+03 -7.18025E+02  2.00621E+03 -1.35974E+03
  4.65016E+03  3.69779E+03  6.77996E+03  2.22314E+03  4.07191E+03  6.76050E+03 -7.54720E+02  4.15147E+03
 -1.07226E+03  5.16780E+03 -3.68774E+03 -3.53566E+03 -9.25769E+03 -7.37623E+03  2.66499E+03 -4.13327E+03
  4.92527E+03  1.87645E+03  2.74455E+03 -5.24972E+02  3.60830E+03 -4.55965E+02 -3.49542E+03  5.38509E+03
 -4.62984E+03  1.40813E+03 -2.85223E+03  1.74354E+02 -1.40760E+03 -4.14854E+03 -2.06578E+03  2.18154E+03
 -1.92042E+03  9.64521E+03 -9.41002E+03  3.29919E+03  1.44304E+03  4.72064E+03 -8.90185E+03 -4.97410E+03
 -5.48795E+03 -6.76167E+03  4.71979E+02 -1.38693E+04  5.14499E+03 -8.11159E+03  1.50151E+04 -4.86831E+03
  2.74196E+03  7.35538E+03  6.74881E+03  7.00509E+03 -7.14493E+02  4.88947E+03 -2.75081E+03  7.63946E+03
 -6.00882E+03  1.25102E+03 -3.61720E+03 -1.43367E+03  7.18537E+01  4.08321E+03 -8.89361E+02 -3.09843E+03
 -1.22891E+03  2.10764E+02 -8.89849E+02  1.42942E+02  4.58758E+02  4.73193E+02 -4.42916E+02  1.48911E+03
  1.32680E+04 -1.08582E+04  3.01916E+03 -3.49730E+03  4.60293E+03  1.77733E+03 -3.04785E+03  3.44934E+03
  4.08505E+03  1.06738E+04 -9.25990E+03  5.12939E+03 -1.38956E+04 -1.71053E+03 -4.66468E+03 -1.97097E+03
 -6.77551E+03 -5.95941E+03  3.60037E+03 -4.51574E+03  4.84154E+03 -2.58925E+03  9.42531E+03 -1.95208E+03
  2.01391E+03  4.49592E+03 -3.26658E+03  7.64518E+03  4.49261E+03  4.18752E+03  2.23409E+03 -3.67047E+03
  4.42270E+03  3.43027E+03  4.91455E+03 -3.80460E+03  2.77054E+03  6.73328E+03  1.52910E+02  1.85145E+02
 -2.26823E+03  7.19558E+03 -3.29471E+03  3.11713E+03 -4.51186E+03 -7.73401E+01 -7.12189E+03 -3.99401E+03
  2.48934E+03  3.87653E+03  3.37511E+03 -2.31456E+03 -2.18951E+03 -8.33321E+02  1.01425E+03  7.73240E+03
 -1.25843E+02  5.62115E+03 -7.78051E+03  5.31283E+03 -7.40037E+03 -3.48077E+03  1.00381E+03  4.63987E+03
 -5.01326E+03 -7.57556E+01  2.56127E+02 -2.07631E+03 -6.14412E+03  2.71878E+03 -5.18986E+03  1.21038E+03
 -5.50274E+03 -4.86915E+03  8.25690E+02 -1.31969E+04  7.50974E+03 -5.22471E+03  7.18828E+03 -1.22238E+03
  6.14079E+03  2.04365E+03  6.73901E+03  2.77107E+03 -2.34984E+03  2.35962E+03 -8.64339E+03  2.36262E+03
