 $NMID ID='MM_0lb_SNR50_18hz_g50_54.RAW', FMTDAT='(8E13.5)'
 TRAMP=1., VOLUME=1. $END
  3.08477E+05  3.64703E+03  3.36562E+05  2.48672E+05  8.57199E+04  3.33914E+05 -1.37922E+05  2.49476E+05
 -1.87108E+05  7.92665E+04 -1.09908E+05 -3.40533E+04  1.96269E+03 -5.08836E+04  5.52115E+04 -3.47830E+03
  3.37000E+04  5.29619E+04 -1.83804E+04  7.22293E+04 -5.61669E+04  5.76769E+04 -8.45195E+04  3.08025E+04
 -7.80819E+04 -1.26896E+04 -5.55734E+04 -5.38337E+04 -1.41783E+04 -6.57724E+04  2.89660E+04 -4.55059E+04
  4.33941E+04  7.27554E+03  1.42406E+04  5.05029E+04 -3.54439E+04  4.84416E+04 -6.60647E+04 -3.18539E+03
 -5.29623E+04 -5.28984E+04 -6.58404E+03 -7.38835E+04  2.82478E+04 -5.14143E+04  4.49273E+04 -1.59674E+04
  4.28749E+04  1.13864E+04  2.98263E+04  2.83050E+04  1.46504E+04  3.16830E+04 -3.03472E+03  3.05282E+04
 -2.21251E+04  1.37822E+04 -1.45811E+04 -4.77476E+03  3.07098E+03 -6.57635E+03  2.28704E+04  1.20619E+04
  8.01046E+03  3.79660E+04 -3.17400E+04  3.59048E+04 -6.12041E+04 -2.10339E+02 -5.35601E+04 -4.05837E+04
 -1.67737E+04 -6.33375E+04  3.75320E+04 -4.78422E+04  5.56963E+04 -4.08281E+03  3.23228E+04  3.26970E+04
 -6.63852E+03  3.41585E+04 -3.07974E+04  1.69778E+04 -2.89635E+04 -7.23426E+03 -1.35478E+04 -7.45720E+03
 -5.15541E+03 -8.92447E+03  4.50739E+03 -1.67739E+04  1.15904E+04 -2.14626E+04  1.48732E+04 -1.15289E+04
  1.09295E+04  5.93344E+03 -9.96608E+03  1.26126E+04 -2.05113E+04 -2.47743E+03 -1.02729E+04 -3.43090E+04
  2.08841E+04 -4.10486E+04  4.77642E+04 -1.79318E+04  3.99103E+04  2.21051E+04  1.07538E+04  4.05290E+04
 -1.49144E+04  3.01512E+04 -2.28919E+04  2.06596E+03 -8.04743E+03 -2.81171E+04  2.11364E+04 -3.30283E+04
  4.10530E+04 -5.79563E+03  3.22701E+04  1.94336E+04  1.67690E+04  4.56979E+04 -6.11182E+03  4.46970E+04
 -2.54256E+04  3.35944E+04 -3.61074E+04  1.29092E+04 -3.87134E+04 -1.51644E+04 -1.70866E+04 -3.66612E+04
  1.06318E+04 -3.31416E+04  2.94691E+04 -1.30982E+04  2.83295E+04  1.08246E+04  2.34079E+03  1.67339E+04
 -1.61358E+04  6.69205E+03 -1.08045E+04 -5.03268E+03  7.76605E+03 -1.11402E+04  1.82996E+04  9.97144E+03
  1.23843E+04  2.16242E+04 -1.81832E+03  2.30332E+04 -2.14036E+04  6.40231E+03 -2.42642E+04 -5.63789E+03
 -1.80977E+04 -1.77754E+04 -3.89719E+03 -1.55080E+04  5.64758E+03 -1.71606E+04  1.13535E+04 -1.59406E+04
  2.47603E+04 -1.31036E+04  2.83813E+04 -2.88038E+03  1.89526E+04  1.62778E+04  6.21539E+03  3.22777E+04
 -1.38571E+04  2.51015E+04 -2.66567E+04  7.97488E+03 -2.10729E+04 -1.09823E+04 -4.21761E+03 -9.22062E+03
  2.03644E+02 -2.18356E+03 -3.69705E+03  3.34686E+03 -1.51584E+04  6.64038E+03 -1.17909E+04 -8.47975E+03
 -4.46418E+03 -1.36308E+04  5.74884E+03 -1.93506E+04  1.01614E+04 -1.19686E+04  1.80809E+04 -4.18503E+02
  7.49537E+03  1.08097E+04  1.13262E+03  1.37064E+04 -1.01798E+04  5.04777E+03 -1.37522E+04 -4.55276E+03
 -1.42643E+04 -1.13018E+04 -8.13575E+02 -2.18454E+04  7.35921E+03 -1.62796E+04  1.57020E+04 -1.21852E+04
  1.34137E+04 -2.41381E+03  9.38354E+03  4.59529E+03  1.49812E+03 -1.80244E+03  8.52394E+03  1.27858E+03
  1.84797E+04 -3.06763E+02  1.41807E+04  8.26405E+03  1.01328E+04  2.55109E+04 -2.28911E+03  2.99597E+04
 -1.82965E+04  2.07426E+04 -2.37105E+04  8.21862E+03 -2.61948E+04 -4.61626E+03 -1.97194E+04 -1.75139E+04
 -9.54625E+03 -2.18686E+04  7.46727E+03 -1.75279E+04  1.67332E+04 -1.34773E+04  1.67747E+04  3.72635E+03
  5.58284E+03  9.23389E+03 -6.88244E+03  1.26773E+04 -1.26048E+04  4.23583E+03 -1.68063E+04 -1.00787E+04
 -2.87994E+03 -1.19190E+04  6.34365E+03 -8.75253E+03  1.05386E+04 -3.45696E+02  2.34670E+03  3.47465E+03
 -5.31374E+03  2.31666E+03 -2.42134E+03 -2.67380E+03  2.44738E+03 -1.13767E+04  7.78551E+03 -1.09779E+04
  1.11622E+04 -1.22524E+03  9.33194E+03 -4.01080E+02  1.28334E+04  8.47343E+03  7.01336E+03  1.64152E+04
  1.41712E+03  1.74681E+04 -1.23436E+04  9.91587E+03 -1.29896E+04  9.16865E+02 -6.96075E+03 -1.66316E+03
 -6.19238E+03 -1.10821E+03 -1.33834E+03  3.96033E+03 -2.37423E+03  3.47923E+03 -4.53737E+03  4.14136E+03
 -6.22297E+03  3.01747E+03 -4.69687E+03 -8.57435E+03 -3.54462E+03 -9.01008E+03  9.61658E+03 -9.15379E+03
  6.43542E+03 -5.18982E+03  6.50375E+03  4.28694E+03  1.13885E+03  3.97441E+03 -1.18905E+03 -4.71591E+02
  2.31760E+02 -8.91772E+03 -2.67572E+03 -7.64846E+03  5.08993E+03 -2.09679E+03  9.05707E+03 -4.48268E+03
  1.20126E+04 -1.11303E+03  6.55192E+03  7.30071E+03  3.25896E+03  1.03743E+04 -5.81986E+03  6.07894E+03
 -7.03398E+03  7.70823E+03 -2.42864E+03  6.18808E+02  4.23501E+02 -1.17858E+03  4.26154E+03 -4.06588E+03
  4.53555E+03  4.06294E+03  2.26800E+03  9.11540E+03 -4.86741E+03  3.66700E+03 -3.78809E+03  3.50136E+03
 -4.37785E+03 -4.25496E+03 -2.67978E+03 -7.70405E+03  8.76076E+02 -5.67360E+03  7.09726E+03  9.90219E+02
 -1.21109E+03  1.69324E+02 -4.26865E+03  6.25443E+03 -4.83214E+03  1.93366E+03 -4.22326E+03 -3.17325E+03
  8.19105E+02 -3.40666E+03 -1.01415E+03 -8.05682E+03  6.86263E+03 -8.96872E+03  9.82298E+03 -1.07251E+03
  4.42957E+03  8.40897E+03 -1.86929E+03  8.51423E+03 -5.13854E+03  4.61945E+03 -3.23701E+03 -1.13351E+03
 -5.21323E+03 -8.59559E+03 -1.37208E+03 -3.19492E+03  2.60712E+03 -4.58802E+03  2.59465E+03 -5.21902E+02
 -2.67075E+03 -6.55664E+02 -2.60093E+03  8.87924E+01  2.74160E+03  2.09297E+03 -1.30256E+03  6.37786E+02
  5.09291E+03 -3.47527E+02  9.33948E+02 -1.39984E+03  5.81638E+03  7.71751E+03  4.26590E+03  5.25145E+03
 -1.30107E+03  3.67992E+03 -8.87293E+03  7.69453E+03 -7.91732E+03  1.01301E+03 -8.89464E+03 -5.67428E+02
 -5.56466E+03 -5.76974E+03 -3.64183E+03 -5.10319E+03  2.29698E+03 -1.93676E+03  4.52282E+03 -4.59040E+03
  2.78269E+03 -9.94818E+02 -1.21167E+03 -4.10436E+03  9.18183E+02 -2.06294E+03  6.43051E+02  1.41688E+03
  7.58663E+03  3.67293E+03  8.33593E+02  4.64144E+02 -2.55194E+03  3.38135E+02 -5.44617E+03  4.43742E+03
 -6.07791E+03 -3.26679E+02 -1.89936E+03 -6.46658E+03  9.61073E+02 -3.73876E+03  3.66318E+03 -3.31810E+03
  8.34284E+03 -4.28569E+03  7.43704E+03 -2.57816E+03  4.78439E+03  2.13597E+03  3.35794E+03  5.65359E+03
 -8.42443E+02  6.16854E+03 -5.94124E+03  4.42388E+02 -1.01600E+02 -2.14818E+03  2.77491E+03 -4.39515E+03
 -2.33269E+02 -8.66441E+02 -5.70127E+00 -1.52379E+03 -3.72232E+02  2.71661E+03 -2.86996E+03 -2.18461E+03
 -2.22769E+03 -4.15850E+03 -1.55324E+03 -4.75483E+03  5.78941E+03 -1.86168E+03 -1.55485E+03  9.80898E+01
  6.16060E+03 -2.68547E+02  2.64321E+03  2.38695E+03 -2.65759E+03  5.92278E+03 -6.12974E+03  2.74283E+03
 -2.59494E+03  4.09825E+03 -1.86506E+03 -9.62564E+03  1.23750E+02 -2.49198E+03  2.41318E+03 -6.85084E+02
  1.53310E+03 -5.71362E+02  2.09009E+03  1.57831E+03  2.11880E+03  2.29171E+03  7.48688E+02  2.61931E+02
  2.18502E+03 -9.78285E+02  3.61507E+03  1.96420E+03 -1.05369E+03  2.44689E+03  2.34612E+03  8.79456E+02
 -5.67383E+03  3.29339E+03 -1.77908E+03  6.55000E+03 -9.22179E+02  8.19056E+02 -5.24690E+03 -1.77503E+03
 -5.39103E+03 -3.50115E+03 -2.15395E+02 -3.28699E+03  2.87943E+03 -1.92723E+03  4.60617E+03 -9.93790E+02
  5.69110E+03  5.82370E+02  2.01182E+02  1.52918E+03 -2.58949E+03  6.23724E+03 -2.07728E+03 -1.14176E+03
 -6.71030E+01 -1.55524E+03  4.16339E+03  2.01638E+03  2.04306E+03 -3.36189E+03 -1.35579E+03  6.60882E+03
  2.34960E+03  3.86586E+03 -1.04066E+03 -1.10353E+03 -4.37320E+03 -7.05258E+02 -2.65052E+03 -3.79887E+03
  4.74255E+02 -2.34782E+03  3.98423E+03  4.03911E+03 -3.74654E+02  3.82487E+03 -9.25703E+02  1.77998E+03
 -1.50583E+03  1.87082E+02 -4.05538E+03  8.15264E+02 -2.02674E+03 -9.72373E+02 -5.97196E+02  6.83166E+01
 -2.94620E+03  6.42408E+01 -4.28035E+01 -3.50659E+03  1.16131E+03  3.64094E+03 -1.97115E+03 -9.08967E+02
 -1.54134E+03  1.29274E+03 -2.82552E+03 -2.75150E+03 -5.02121E+02  5.27611E+02  6.53377E+02 -5.33787E+03
 -2.69414E+02  1.11600E+03  1.06835E+03 -4.27892E+03  3.00787E+03  1.71252E+02  1.49362E+03 -2.41996E+03
 -1.03867E+03  3.34243E+03  1.15122E+03 -4.39036E+03  2.59017E+02  3.10581E+03  3.66642E+03 -9.84283E+02
  2.29365E+03 -1.02166E+03  1.27692E+03  2.13358E+03  4.07024E+03  4.76558E+03 -1.53910E+03 -3.46257E+02
 -1.76566E+03  4.17286E+03 -5.31116E+03 -2.27072E+03  3.44090E+02 -6.57132E+03 -1.98703E+03 -3.84370E+03
  2.40745E+03 -1.04291E+03 -2.85724E+02 -2.05260E+03 -1.77536E+03 -6.68444E+02  3.96817E+03 -8.39159E+02
 -1.77236E+03  1.81140E+03 -1.59694E+03  2.78109E+03 -3.27336E+03  2.53294E+03 -1.53438E+03  1.13156E+03
  1.91769E+03  1.89455E+03  3.23830E+02 -9.87724E+02  1.15825E+03 -7.86037E+02 -3.92761E+03 -3.10366E+02
  6.37680E+02 -5.68848E+02  4.88447E+03 -6.90850E+01 -1.09824E+02 -1.72260E+03 -8.49188E+02 -3.78041E+02
  1.50665E+03  3.73250E+03  2.46196E+03  4.59643E+02  7.09338E+02  1.88220E+03 -6.69361E+01 -9.95591E+02
  7.27871E+02 -2.21527E+02  3.11317E+03  5.88584E+03  9.73296E+02  2.54112E+03  9.15956E+02 -9.47107E+02
 -3.19683E+01  1.04186E+03 -1.20513E+03 -2.31714E+03 -3.01767E+03 -4.12379E+03 -2.52755E+03 -1.01501E+03
  3.23984E+03 -5.94370E+02  3.37018E+03  2.37196E+03  1.21171E+03  3.24158E+03 -6.80925E+02  2.52168E+03
 -8.84125E+02  3.60218E+03 -6.90829E+02  2.99725E+02 -2.60992E+03 -3.46166E+03 -3.18550E+03  9.83299E+02
 -1.33301E+03 -2.27002E+03 -1.41078E+03 -3.15608E+02  2.15757E+03  1.95088E+03 -6.76849E+00 -2.63328E+03
  1.38227E+02  5.46576E+03  1.08848E+03 -2.02845E+03 -1.96093E+03  3.72792E+02  3.62000E+03  1.92790E+03
 -1.14814E+03 -1.62285E+03 -4.78207E+02 -4.95646E+03  3.17224E+03  3.47082E+03  1.93328E+03  1.36037E+03
 -1.08607E+03 -3.31117E+03 -1.94362E+03  2.94401E+03 -8.19987E+02 -5.41289E+02 -5.90838E+02  1.27256E+03
  2.33128E+03  1.04437E+02 -1.92920E+03  2.95950E+03  1.18596E+03 -1.40341E+03  8.24433E+02  2.90540E+03
 -3.56210E+03  8.27700E+02 -3.35473E+03 -4.40868E+03 -3.33079E+03  3.91969E+03  2.92795E+03 -2.72679E+03
 -1.02459E+03  1.55979E+03  3.65041E+03  2.79176E+03 -2.77262E+03  3.63835E+03 -2.25932E+03  1.01043E+03
 -1.79344E+03 -4.70041E+03 -1.77653E+03 -3.29137E+03 -1.46353E+01 -1.50064E+03  5.08637E+02 -1.56929E+03
 -4.50986E+03 -3.75628E+03  1.80419E+03 -3.79631E+03  1.99843E+02 -3.42415E+03 -3.01634E+03  2.25680E+03
