 $NMID ID='MM_0lb_SNR50_14hz_g45_46.RAW', FMTDAT='(8E13.5)'
 TRAMP=1., VOLUME=1. $END
  3.06113E+05 -1.97044E+03  3.33598E+05  2.53999E+05  8.31521E+04  3.38519E+05 -1.32846E+05  2.48577E+05
 -1.87677E+05  7.70779E+04 -1.15264E+05 -3.48225E+04  2.81005E+03 -4.98832E+04  5.53427E+04  5.54865E+02
  3.24763E+04  4.88515E+04 -1.81432E+04  7.82450E+04 -5.93249E+04  6.38796E+04 -8.49996E+04  3.26363E+04
 -8.11722E+04 -1.09693E+04 -5.82894E+04 -4.79645E+04 -1.18605E+04 -7.20535E+04  2.81208E+04 -4.61309E+04
  4.18650E+04  4.89804E+03  1.69129E+04  4.71889E+04 -3.02550E+04  4.95765E+04 -6.42962E+04  5.36948E+03
 -4.88856E+04 -5.45230E+04 -7.38025E+03 -8.02992E+04  4.02637E+04 -5.42077E+04  4.65072E+04 -2.01137E+04
  4.12338E+04  9.75307E+03  3.20822E+04  2.36606E+04  1.45020E+04  3.01023E+04 -5.57768E+03  3.10577E+04
 -2.49840E+04  1.18478E+04 -1.95141E+04 -6.86065E+03  8.61711E+03 -4.48013E+03  2.45017E+04  8.89191E+03
  8.64743E+03  3.95390E+04 -3.16229E+04  3.50908E+04 -6.14895E+04 -6.85176E+02 -5.80934E+04 -4.31738E+04
 -1.08173E+04 -5.91524E+04  3.69070E+04 -4.24917E+04  5.49911E+04 -3.23717E+03  3.46471E+04  3.17322E+04
 -3.07455E+03  3.68540E+04 -2.77296E+04  1.86887E+04 -2.44423E+04 -2.88376E+03 -1.23534E+04 -1.07920E+04
 -9.67893E+03 -1.53547E+04 -5.05852E+03 -1.87388E+04  2.12898E+03 -2.56107E+04  1.27964E+04 -1.32275E+04
  1.19707E+04  3.72948E+03 -7.49231E+03  1.13656E+04 -1.77151E+04 -9.97236E+03 -3.37843E+03 -3.12488E+04
  2.13124E+04 -4.05374E+04  4.51367E+04 -1.67957E+04  4.55419E+04  1.63402E+04  1.64707E+04  3.87055E+04
 -1.72909E+04  3.12644E+04 -2.30286E+04  2.91654E+03 -1.02555E+04 -2.57966E+04  2.09350E+04 -3.36478E+04
  3.99647E+04 -1.01304E+04  3.28778E+04  2.47366E+04  1.80622E+04  5.11026E+04 -5.01312E+03  5.04939E+04
 -3.12305E+04  2.97393E+04 -3.53458E+04  1.21172E+04 -4.48409E+04 -1.99139E+04 -2.38411E+04 -3.60424E+04
  7.19821E+03 -3.21742E+04  2.98595E+04 -1.79136E+04  2.34831E+04  1.43979E+04  5.02253E+03  2.26480E+04
 -1.05254E+04  1.15821E+04 -1.34919E+04 -7.88685E+03  4.12698E+03 -1.09025E+04  1.79422E+04  8.83395E+03
  1.27788E+04  1.85552E+04 -9.73299E+02  2.60574E+04 -2.35168E+04  6.49195E+03 -2.55091E+04 -6.30725E+03
 -2.50372E+04 -1.89406E+04 -7.70000E+03 -2.00547E+04  4.75014E+02 -1.59873E+04  1.61848E+04 -2.01802E+04
  2.66613E+04 -1.53309E+04  2.84282E+04  2.97301E+03  2.24109E+04  2.05888E+04  7.09733E+03  3.40488E+04
 -1.85265E+04  2.52336E+04 -2.19181E+04  5.72263E+03 -2.22522E+04 -1.45567E+04 -2.20035E+03 -1.16080E+04
  7.09670E+03 -3.73342E+03 -2.67413E+03  1.13406E+04 -1.45597E+04  3.49331E+03 -1.27241E+04 -6.82369E+03
 -1.22033E+04 -2.16025E+04  8.23662E+03 -1.77562E+04  1.60790E+04 -1.47851E+04  1.88500E+04 -9.94727E+02
  7.44808E+03  1.41932E+04 -2.66147E+03  1.60565E+04 -1.35592E+04  1.03059E+04 -1.70202E+04 -8.03287E+03
 -1.56157E+04 -1.77216E+04  9.37274E+02 -1.93546E+04  1.03778E+04 -1.88280E+04  1.74211E+04 -9.80174E+03
  1.84875E+04 -2.22580E+03  1.41228E+04  5.77259E+03  6.66965E+03  4.21850E+01  7.89500E+03 -4.29435E+03
  1.47350E+04  7.48368E+03  1.63366E+04  1.87152E+04  1.27498E+04  3.00479E+04  5.95956E+02  3.03150E+04
 -1.86191E+04  3.04027E+04 -3.23802E+04  1.41695E+04 -3.04608E+04 -5.44578E+03 -2.64519E+04 -1.71462E+04
 -1.88749E+04 -2.72559E+04  5.76372E+03 -2.19216E+04  1.94880E+04 -9.07708E+03  1.86269E+04  4.48341E+03
  6.61671E+03  1.30125E+04 -1.43626E+04  1.08203E+04 -1.81161E+04  2.92068E+03 -1.16501E+04 -5.19706E+03
  2.79677E+03 -1.76651E+04  1.07195E+04 -1.33817E+04  1.02375E+04  5.49953E+02 -6.13084E+02  8.59112E+03
 -1.20297E+04  5.82858E+03 -6.57305E+03  1.13037E+03  2.12303E+03 -1.48210E+04  8.94965E+03 -1.55319E+04
  1.55965E+04 -1.00827E+04  1.72885E+04  3.58137E+03  1.74722E+04  1.44219E+04  4.61027E+03  1.84894E+04
 -2.71425E+03  2.44308E+04 -1.80389E+04  1.20558E+04 -1.65673E+04  9.16527E+02 -9.22866E+03 -3.97306E+03
 -5.36004E+03 -9.11329E+03 -6.14831E+03  6.64287E+01  3.59560E+03  4.59899E+03 -2.55428E+03  1.07424E+04
 -1.10701E+04  7.50916E+02 -1.08502E+04 -1.02677E+04 -9.59420E+03 -1.16896E+04  4.92743E+03 -1.04977E+04
  8.01435E+03 -4.37986E+03  8.11589E+03  3.67118E+03  2.09891E+03  7.99090E+02 -2.66191E+03 -1.39626E+03
 -6.31537E+03 -8.78163E+03  1.43049E+03 -9.24421E+03  8.36143E+03 -1.40822E+04  1.25782E+04 -8.16669E+03
  1.38338E+04  2.19347E+02  1.15852E+04  1.07028E+04  3.71284E+03  1.54439E+04 -5.89605E+03  1.32322E+04
 -8.67536E+03  3.46781E+03 -4.16702E+03 -2.49626E+03  1.06926E+03 -9.20331E+02  4.46628E+03 -1.32002E+03
  7.06479E+03  6.30545E+03  6.02420E+02  5.89724E+03 -5.05557E+03  7.65104E+03 -1.31319E+04 -4.80932E+03
 -7.13232E+03 -3.45837E+03  5.65196E+02 -1.20937E+04  5.33403E+03 -7.09622E+03  7.63809E+03  5.46918E+03
  4.76857E+03  8.77738E+03 -5.44039E+03  4.44237E+03 -8.12849E+03  4.38205E+02 -8.28541E+03 -3.91739E+03
 -3.30877E+03 -1.11760E+04  2.84982E+03 -1.65421E+04  8.74029E+03 -5.43442E+03  6.39440E+03  3.55809E+03
  9.99846E+03  6.43353E+03  1.82678E+03  1.05226E+04 -9.21713E+03  8.21343E+03 -5.15011E+03  6.23720E+03
 -8.68621E+03 -7.57904E+03 -3.77062E+03 -1.31861E+04  4.45605E+03 -8.34997E+03  4.14543E+03 -6.15820E+03
  3.40748E+03 -1.93940E+03  3.13962E+03 -1.64992E+03  1.69262E+03 -2.92335E+03  2.74257E+02 -2.41487E+03
  9.41561E+03 -2.12995E+03  5.73233E+03 -2.62094E+03  1.27760E+04  6.28289E+03  7.58988E+03  1.18689E+04
  3.36862E+03  1.14531E+04 -9.26789E+03  1.01113E+04 -1.41190E+04  9.35644E+02 -1.32966E+04 -4.65863E+03
 -4.54852E+03 -8.23531E+03  1.55022E+03 -7.91098E+03  4.31390E+03 -8.24831E+03  4.09903E+03 -1.06601E+04
  5.11773E+03 -2.82885E+03  9.20857E+02 -5.83367E+03  8.86599E+03 -2.01332E+03  1.66992E+03  1.17585E+03
  9.44317E+03  4.74114E+03  5.76482E+02  7.40880E+03 -1.69559E+03  4.28902E+03 -5.73629E+03 -8.26595E+01
 -4.96198E+03 -7.52124E+03 -5.43013E+03 -6.75277E+03  2.26008E+03 -1.03358E+04  8.57453E+03 -1.10701E+04
  8.61250E+03 -2.51682E+03  7.18364E+03  2.72198E+02  8.15423E+03  4.41558E+03 -1.12630E+03  4.04488E+03
 -8.05377E+03  1.12462E+04 -2.79051E+03 -1.13211E+03 -2.32172E+03 -4.12840E+03 -4.73391E+03 -3.52565E+02
  1.64078E+03  3.33550E+03 -5.25614E+03 -1.01886E+03 -7.33350E+02  2.87484E+03 -4.53390E+03  1.88623E+02
 -2.06093E+03 -5.63166E+03 -2.36649E+03 -6.94875E+03  8.50302E+03 -6.94943E+03  4.62813E+03 -1.52047E+03
  6.31242E+03  8.70087E+03  8.03849E+02  1.23441E+04 -3.40342E+03  5.62295E+03 -4.81133E+03  4.94219E+03
 -3.26644E+03 -4.50222E+03 -4.93267E+03 -5.57125E+03 -3.24802E+03 -9.29707E+03  2.39889E+03 -9.94371E+02
  6.30789E+03 -3.91420E+03  2.07780E+03  2.36720E+03 -1.77738E+03  2.29352E+03  3.35722E+03  2.87679E+03
  7.32857E+03 -1.26279E+03 -1.17047E+03 -4.19511E+03 -1.55383E+03  3.95880E+03  1.05438E+03  5.66054E+03
 -2.44869E+03  5.91513E+03 -3.13736E+03  4.51716E+03 -3.63977E+03  3.33401E+03 -8.89609E+03 -1.92536E+03
 -6.50420E+03 -4.90568E+03  3.02492E+03 -8.74259E+03  6.48296E+03 -2.92745E+03  6.30990E+03  5.86958E+03
  3.28481E+03  2.05215E+03  1.71124E+03  2.58229E+03  2.75606E+02  7.88878E+02 -2.97068E+03  2.40653E+03
  2.13278E+03 -1.09699E+03  1.71034E+03  4.15157E+02  2.49038E+03 -3.14349E+03 -5.36942E+02  5.79448E+02
  7.26908E+03  7.65713E+02  2.34494E+03 -6.77577E+00 -3.80736E+03  6.75463E+03  1.39684E+03  3.08873E+03
  2.06659E+03 -3.96825E+03  3.04002E+03  3.41051E+03  1.59754E+03 -3.42883E+03 -7.74695E+02  1.73009E+03
 -4.29344E+03  1.48482E+03 -3.19986E+03  4.95961E+02 -1.02612E+04 -2.25105E+03  3.26362E+03 -5.54579E+03
 -6.39885E+03 -2.61865E+03  3.29529E+03 -8.89631E+00  4.15872E+03  3.93427E+03  1.93450E+03 -2.08510E+03
 -1.44656E+03 -1.64696E+02  3.55519E+02 -4.63502E+03 -3.24048E+03 -1.69018E+03 -2.20969E+02 -3.29525E+03
 -3.97465E+02 -3.85608E+03 -1.86724E+03 -6.25030E+02  2.17906E+03 -5.88566E+02 -7.88468E+02  2.83645E+03
  1.46288E+02 -5.61196E+02 -5.96988E+02 -1.60400E+03 -3.32884E+03 -1.95899E+03  1.94185E+03 -8.74934E+01
  3.37600E+03  1.43710E+03  5.57798E+03  4.36243E+03 -1.40580E+03  5.66624E+03 -3.85334E+02  6.59994E+03
 -2.61624E+03 -9.46064E+02 -1.35715E+03 -2.81649E+03 -4.47162E+03 -5.48262E+03  2.87447E+03 -2.71929E+03
  5.13911E+03 -5.99569E+02  5.09423E+02 -1.20164E+03  1.81096E+02  2.97798E+03  1.06629E+03 -2.68753E+03
  1.26272E+03  3.05473E+03 -4.34824E+02 -1.21474E+03 -7.72584E+02 -2.53644E+03 -3.41669E+03 -2.24973E+03
  4.88123E+03  5.15705E+03 -4.49662E+03  1.82339E+03 -6.47696E+03  3.03553E+03 -3.61679E+03 -1.88790E+03
 -2.72655E+03 -4.42456E+03  1.39833E+03 -5.35008E+02  3.62964E+03 -5.70094E+03  1.77858E+03 -3.83019E+03
  1.03530E+04  3.67585E+03  3.47909E+03  2.10907E+03  1.47678E+03  5.00161E+03 -8.65295E+02  4.38461E+03
 -1.77625E+03  5.42873E+03  8.29799E+02  4.72937E+02 -1.90971E+03  4.04464E+02  7.92062E+02  5.82623E+02
 -1.67186E+03  6.59840E+02 -4.09095E+03 -2.77688E+03  2.03975E+03 -7.19306E+02  2.87369E+03 -6.68947E+03
  7.57584E+02 -1.78557E+03  2.43149E+03 -2.17907E+03 -1.03411E+03  6.76733E+02 -1.23448E+02  4.80931E+03
 -1.33373E+03  6.76450E+03 -1.63987E+03 -3.40298E+02 -2.60241E+03  1.99501E+01 -9.02797E+03 -3.62425E+03
  4.94287E+02 -4.09200E+03 -3.76531E+03 -4.01579E+03  9.13744E+02 -2.19799E+03 -2.00147E+02  4.21568E+03
  3.07462E+03 -4.45306E+02  9.89764E+02  3.47824E+03 -6.80437E+03  2.20900E+03  4.04303E+03 -1.46370E+03
 -2.88349E+02 -7.21711E+02  3.58422E+03  4.32433E+03  4.08796E+03 -1.17326E+03  2.74987E+03  2.67964E+03
 -2.93591E+03  4.77065E+03 -1.88336E+03 -3.72341E+03 -2.45615E+03 -9.68489E+03  4.78070E+03 -2.64264E+03
  2.66537E+03 -5.25158E+03  2.67601E+03 -2.71551E+03  3.32538E+03  2.68350E+02  6.64929E+03  1.07898E+02
  2.90008E+03  2.14510E+03  1.78798E+03 -1.15258E+03 -6.78583E+03  3.81435E+03  3.99229E+02 -1.56005E+03
 -2.11676E+03 -3.94722E+03 -1.47306E+03 -2.56810E+02 -1.87778E+03  2.09848E+03  5.44524E+02  4.36977E+03
 -4.93564E+03  6.86671E+02  3.36716E+03 -1.44184E+03  4.15721E+03 -1.79539E+03 -8.94403E+01 -1.40974E+03
  1.41697E+03 -1.51611E+02  5.41290E+03  1.43419E+03  1.50995E+03  3.41267E+03 -4.94083E+03  1.77163E+03
