 $NMID ID='MM_0lb_SNR50_12hz_g45_6.RAW', FMTDAT='(8E13.5)'
 TRAMP=1., VOLUME=1. $END
  3.14548E+05  5.76831E+02  3.36859E+05  2.50878E+05  8.26406E+04  3.40821E+05 -1.33655E+05  2.54002E+05
 -1.97273E+05  8.69383E+04 -1.15287E+05 -3.29485E+04  3.78076E+03 -5.36629E+04  4.85012E+04 -2.81541E+03
  3.99795E+04  5.41088E+04 -1.53569E+04  8.20603E+04 -6.00746E+04  5.94084E+04 -8.66771E+04  3.35287E+04
 -7.91813E+04 -9.49170E+03 -5.65978E+04 -5.34085E+04 -1.54949E+04 -6.74830E+04  2.44506E+04 -4.35307E+04
  3.92947E+04  6.10431E+03  1.77673E+04  5.03881E+04 -3.70231E+04  4.83658E+04 -6.78452E+04  1.15783E+01
 -5.62891E+04 -5.25597E+04 -9.45434E+03 -7.86200E+04  3.87922E+04 -5.72138E+04  4.80608E+04 -1.46828E+04
  4.62170E+04  1.35974E+04  3.22779E+04  2.27239E+04  1.78586E+04  3.17344E+04 -6.97246E+03  2.79889E+04
 -1.65907E+04  1.31955E+04 -1.91873E+04 -5.60952E+03  4.23012E+03 -8.40054E+03  2.62547E+04  1.49074E+04
  8.14976E+03  3.82361E+04 -3.11585E+04  3.28687E+04 -6.23772E+04  2.15539E+03 -6.01231E+04 -4.56402E+04
 -1.40563E+04 -6.58678E+04  4.15669E+04 -4.66971E+04  5.94167E+04 -5.23029E+03  3.71544E+04  3.12358E+04
 -5.64659E+03  3.48408E+04 -2.89418E+04  1.79034E+04 -3.44792E+04 -3.28213E+03 -1.60281E+04 -7.88279E+03
 -6.99439E+03 -1.72562E+04 -2.16968E+03 -1.28278E+04  1.11388E+04 -2.27679E+04  1.56572E+04 -1.53704E+04
  8.78162E+03  8.01326E+03 -1.29597E+04  1.31350E+04 -2.28450E+04 -8.76971E+03 -1.47446E+04 -3.25599E+04
  2.32903E+04 -4.62725E+04  5.03927E+04 -1.50229E+04  5.08966E+04  1.86060E+04  1.42284E+04  4.66623E+04
 -1.39081E+04  2.97342E+04 -2.76663E+04  3.70705E+03 -1.31581E+04 -2.88765E+04  1.81794E+04 -3.23938E+04
  4.13456E+04 -1.01215E+04  3.68864E+04  2.06348E+04  1.70701E+04  4.61479E+04 -8.38914E+03  5.72272E+04
 -3.20075E+04  3.31588E+04 -4.82895E+04  1.19728E+04 -4.50802E+04 -1.70221E+04 -2.91802E+04 -3.27196E+04
  7.37703E+03 -4.34923E+04  3.65507E+04 -1.51442E+04  2.61046E+04  1.11485E+04  3.51908E-01  1.43040E+04
 -1.22985E+04  1.13420E+04 -1.15423E+04 -9.91113E+03  8.89954E+03 -1.10944E+04  1.86750E+04  7.45466E+03
  1.16067E+04  2.36324E+04 -3.53476E+03  2.53504E+04 -2.81838E+04  8.57910E+03 -3.36682E+04 -2.00488E+03
 -1.49421E+04 -1.26066E+04 -8.25166E+03 -1.93445E+04  7.78980E+03 -2.54624E+04  1.87513E+04 -2.08977E+04
  2.74744E+04 -1.06229E+04  3.61082E+04  1.59409E+03  2.82680E+04  1.68323E+04  7.40143E+02  3.23433E+04
 -2.17497E+04  3.01043E+04 -2.95547E+04  4.07644E+03 -2.35235E+04 -6.87331E+03 -2.25045E+03 -1.29186E+04
  7.43597E+03 -2.58896E+03 -4.75280E+03  7.64725E+02 -1.28602E+04  6.84044E+03 -1.51082E+04 -1.18218E+04
 -1.00085E+04 -2.01480E+04  6.31005E+03 -2.65694E+04  1.27494E+04 -1.76376E+04  1.96634E+04 -4.02536E+03
  1.48218E+04  1.21917E+04 -2.18501E+03  2.35217E+04 -1.32151E+04  1.89447E+04 -1.77249E+04 -3.13206E+03
 -1.52482E+04 -2.05158E+04  1.02376E+03 -2.07380E+04  1.42984E+04 -1.86243E+04  2.38903E+04 -1.18381E+04
  2.35273E+04 -1.30733E+03  1.38618E+04  4.41840E+02  7.66128E+03  3.38037E+03  1.16589E+04  7.08070E+02
  2.13085E+04  4.85887E+03  2.05437E+04  2.41401E+04  1.76699E+04  3.29343E+04 -6.59137E+03  3.67281E+04
 -2.31085E+04  2.78366E+04 -3.22065E+04  1.45383E+04 -3.51525E+04  6.98928E+02 -3.44737E+04 -2.13120E+04
 -1.01031E+04 -2.84777E+04  1.09131E+04 -2.65512E+04  2.56684E+04 -1.37752E+04  1.84456E+04  5.51334E+03
  8.55942E+03  1.63980E+04 -7.79999E+03  1.24933E+04 -2.04946E+04 -1.74361E+03 -2.03086E+04 -1.02587E+04
 -8.42110E+02 -1.09675E+04  5.20885E+03 -1.74444E+04  1.12643E+04  3.84637E+03 -1.98489E+03  8.58212E+03
 -1.34299E+04 -1.17411E+03 -5.37389E+03 -2.21551E+03  6.79266E+02 -1.51367E+04  1.09976E+04 -1.42717E+04
  1.90606E+04 -6.51920E+03  2.23472E+04  2.74355E+03  1.75667E+04  1.34889E+04  5.14418E+03  2.06327E+04
 -7.72844E+03  1.90211E+04 -1.72691E+04  1.10248E+04 -1.72465E+04  5.28497E+03 -1.54625E+04 -2.79785E+03
 -7.51393E+03 -1.01430E+04 -1.29074E+03  1.86355E+03 -1.74769E+03  8.68158E+03 -1.79327E+03  4.55439E+03
 -1.13150E+04 -2.70475E+03 -1.13543E+04 -9.29552E+03 -6.05785E+03 -1.89980E+04  2.88478E+03 -1.88808E+04
  9.38738E+03 -5.91436E+03  4.95348E+03  4.62991E+03  1.15238E+03  5.58030E+03 -2.83414E+03 -5.41126E+03
 -9.28382E+03 -7.80787E+03 -4.02595E+03 -1.28165E+04  1.67923E+03 -1.20032E+04  1.60959E+04 -1.02473E+04
  2.25251E+04 -4.39981E+02  8.21847E+03  7.88310E+03  2.20238E+03  1.59641E+04 -1.20119E+04  1.56754E+04
 -1.38706E+04  2.54155E+03 -8.13131E+03 -3.25566E+03 -9.30840E+02  5.18429E+01  5.40788E+03 -3.46363E+03
  7.80297E+03  5.80924E+02  5.25407E+03  1.07545E+04 -7.87876E+03  4.21131E+03 -1.20779E+04  1.85196E+02
 -1.01297E+04 -8.23599E+03 -2.82175E+03 -5.34868E+03 -4.31686E+02 -7.85051E+03  4.31775E+03 -3.70148E+02
  2.28781E+01  8.31646E+03 -2.79879E+03  1.17568E+04 -1.33389E+04  3.68403E+03 -9.82452E+03 -1.94769E+03
 -5.56808E+03 -1.72682E+04  4.86976E+03 -1.36960E+04  9.31366E+03 -6.53995E+03  1.16714E+04 -3.84674E+03
  1.00426E+04  8.85239E+03  1.13367E+03  1.51279E+04 -1.10697E+04  6.49408E+03 -1.02589E+04  4.91716E+02
 -8.46924E+03 -8.32950E+03 -4.35634E+03 -1.21422E+04  5.14678E+03 -7.08941E+03  6.75172E+03 -2.21345E+03
  1.40972E+03  7.32693E+02  2.14135E+03  4.48187E+03  1.02893E+03 -2.42048E+03  4.92903E+03 -7.45200E+03
  1.07136E+04 -2.43170E+03  1.24767E+04  3.45012E+03  1.31941E+04  9.48092E+03  7.21693E+03  1.23457E+04
 -4.72550E+03  1.93353E+04 -1.92740E+04  8.78100E+03 -1.85173E+04 -4.13789E+03 -1.50732E+04  3.07930E+02
 -5.78533E+03 -1.28451E+04 -4.24782E+02 -1.36646E+04  9.26061E+03 -1.47230E+03  2.72288E+03 -7.64578E+03
  1.21038E+03 -3.21892E+03  2.50012E+03 -4.10279E+03  3.23241E+03 -4.72177E+03  7.61946E+03  1.38396E+03
  1.10248E+04  2.26074E+03  5.99746E+03  6.77368E+03 -3.95864E+03  2.31874E+03 -9.12990E+03  2.98115E+03
 -7.50966E+03  1.34239E+03  7.45040E+02 -9.19877E+03  2.73997E+03 -1.01265E+04  5.37540E+03 -1.43575E+04
  1.45558E+04 -4.51090E+03  9.38942E+03  4.84037E+01  1.14963E+04  1.10803E+03  6.93790E+02  5.69372E+03
 -3.22516E+03  7.06178E+03 -6.03557E+03  6.81307E+02 -5.74373E+03 -4.37651E+02 -2.12802E+03  1.09539E+03
 -3.12369E+03 -3.41398E+03 -6.90979E+02  5.57807E+03 -4.87808E+03  3.04635E+03 -2.74436E+03 -8.08075E+03
 -5.46276E+03 -1.03016E+04 -1.94819E+03 -1.15959E+04  9.64535E+03 -4.71578E+03  7.43187E+03 -3.82539E+03
  1.06207E+04 -6.41083E+02  3.51902E+03  9.25320E+03 -2.49740E+03  1.40718E+04 -4.47892E+03  3.23887E+03
 -1.24834E+04  4.15714E+03 -9.21225E+03 -5.48202E+03  5.14727E+03 -1.41247E+04  5.15191E+03 -4.13297E+03
  1.10525E+04 -5.57543E+03  1.58006E+03  4.65499E+03  2.85676E+02  3.76655E+03 -9.86082E+02  3.98049E+03
  3.04294E+02 -1.52950E+03  1.87684E+03 -1.43681E+03  3.06278E+03  4.70715E+03  8.20992E+02  7.04838E+03
 -6.98489E+03  1.42246E+04 -9.45511E+03  4.61953E+03 -9.51715E+03  2.74206E+03 -9.07010E+03 -1.92815E+03
 -8.67504E+02 -1.16140E+04  1.56369E+03 -8.83018E+03  2.33846E+03 -5.12384E+03  9.12238E+03 -4.79055E+03
  2.03869E+03  1.80010E+03  8.27943E+02  4.90108E+03  2.65428E+03 -2.53612E+02 -7.99349E+03  3.14257E+02
 -1.58378E+03 -3.96288E+03 -3.05159E+03 -6.13284E+03  2.46498E+03 -7.04492E+03  4.45247E+03  3.59571E+03
 -2.60183E+03  4.48468E+03 -3.73639E+03  2.55106E+03  1.61101E+03 -2.00949E+02 -3.52798E+03  1.24668E+03
 -2.90710E+03 -5.52469E+03  8.79698E+03  2.30080E+03  7.61558E+03  9.00123E+03 -1.36264E+03  3.98678E+03
 -7.13563E+03  3.97192E+03 -6.58171E+03  5.47619E+03  3.58400E+02 -5.65074E+03  2.28300E+03  7.16684E+02
  9.37483E+01 -3.02511E+03  4.33019E+03 -1.76096E+03  2.75497E+03  2.30436E+03 -2.73134E+03  1.28316E+03
 -6.39654E+03  7.39209E+03 -5.25821E+02 -2.67762E+03 -2.76812E+03 -6.11116E+03  2.81834E+02 -7.34523E+03
  2.52871E+03 -6.21960E+03  4.36750E+02 -2.00478E+03  6.66968E+03 -7.78062E+03 -3.47132E+03  1.51021E+03
 -6.17572E+03  1.28777E+03 -2.58341E+03 -1.90879E+03  2.85046E+03 -5.38951E+03  4.35962E+02  1.64774E+03
  8.71253E+03 -6.94188E+01  7.06738E+03  2.38376E+03  2.60153E+03  9.59609E+03  2.38644E+03  2.77188E+03
 -5.26185E+03  5.50166E+03 -6.64888E+03  2.35674E+02 -7.65990E+01 -5.88842E+03  4.50383E+03 -2.18236E+03
  1.47733E+03 -5.56074E+03  3.62563E+03  2.12726E+03  7.04177E+02  7.54482E+03  8.82215E+02  4.77432E+02
  1.72758E+03 -4.86440E+02  7.03607E+02  9.52869E+02  2.93996E+02  2.23290E+03  4.77886E+03  6.00890E+02
 -1.47812E+03  4.14133E+03 -5.44455E+03 -2.43862E+03 -9.71191E+03 -6.70412E+02 -9.33018E+03 -3.87802E+03
  2.50204E+03 -9.62344E+03  3.60701E+03 -8.10111E+03  4.66311E+03 -9.53570E+03  9.05360E+03 -3.95321E+03
  7.07351E+03 -5.33310E+03  5.81745E+03  7.72183E+03 -1.30283E+03  2.76090E+03 -3.04402E+03  8.37955E+03
  1.59323E+02 -3.76503E+03  6.24610E+03 -1.02780E+03 -5.44962E+03  3.18995E+03 -1.28478E+03  1.42042E+03
 -1.33317E+03  2.23105E+03 -3.13159E+03  1.64835E+03  1.40663E+03 -1.58171E+03 -4.64875E+03  1.51264E+03
  5.25337E+03 -1.89945E+03  8.16898E+03  1.58916E+03  5.97984E+03 -1.98953E+03 -4.52306E+03  5.84282E+03
 -2.85287E+03  5.29736E+03 -1.03358E+03  2.64480E+03 -1.09477E+04 -1.02543E+03 -6.97143E+02 -5.65378E+03
 -3.53861E+03 -8.64029E+03  3.16853E+03 -7.41438E+03  4.14178E+03 -1.91005E+03  3.68490E+03 -1.38641E+03
  4.49467E+02  4.98825E+03 -2.82551E+03  2.71911E+03 -5.32008E+03 -6.49546E+03  7.67416E+02 -3.62609E+03
 -2.04369E+03  1.45874E+03  1.06974E+03  3.34704E+03  3.82800E+03  2.19537E+02 -1.71823E+03  2.12359E+03
 -1.53563E+03  5.56658E+03 -4.47853E+03  1.40467E+03 -3.53622E+03 -2.86520E+03  2.08704E+03 -5.23161E+03
  4.92535E+02 -4.39094E+03 -2.20014E+03 -2.63823E+02  6.29537E+03  9.18553E+00  5.21351E+02  6.16843E+03
 -3.41915E+02  8.20534E+03  2.79612E+03  3.74175E+03 -2.48623E+03  1.07161E+03 -4.60194E+03  4.44252E+03
  6.94848E+02 -1.65133E+03 -6.44157E+03  4.72153E+03 -4.99210E+03  1.19577E+03  4.20265E+02 -1.53378E+03
 -3.81568E+03 -2.93902E+03  8.51534E+02 -5.77050E+03  5.11528E+03 -9.65224E+03  4.45302E+03 -9.53740E+02
  9.76800E+02  2.89471E+03  1.01655E+03 -1.10652E+03  1.04271E+03  3.09141E+03 -7.56325E+03  1.61415E+03
