 $NMID ID='MM_0lb_SNR50_12hz_g45_9.RAW', FMTDAT='(8E13.5)'
 TRAMP=1., VOLUME=1. $END
  3.15363E+05  3.82619E+02  3.28806E+05  2.47990E+05  8.41010E+04  3.41902E+05 -1.29529E+05  2.51519E+05
 -1.95273E+05  8.06253E+04 -1.12000E+05 -3.41503E+04  1.37084E+03 -5.66357E+04  5.74977E+04 -2.27009E+03
  3.32573E+04  5.28071E+04 -1.59675E+04  7.19784E+04 -6.51613E+04  6.59569E+04 -8.29179E+04  3.05791E+04
 -8.16279E+04 -1.20067E+04 -5.93124E+04 -5.37605E+04 -1.49743E+04 -6.68125E+04  2.89391E+04 -5.02066E+04
  3.71019E+04  5.16023E+03  1.70763E+04  4.92025E+04 -3.19242E+04  4.42079E+04 -7.02132E+04 -3.64449E+03
 -5.51499E+04 -6.05801E+04 -1.13221E+04 -8.18184E+04  2.93098E+04 -6.01103E+04  4.92434E+04 -1.92110E+04
  4.27738E+04  8.52002E+03  3.57204E+04  2.60948E+04  1.74529E+04  2.64918E+04 -4.52921E+03  2.84489E+04
 -1.91035E+04  1.20877E+04 -1.98778E+04 -3.97271E+03  4.77637E+03 -1.03935E+04  2.06884E+04  1.40110E+04
  9.15680E+03  3.58256E+04 -2.77194E+04  3.88139E+04 -6.69995E+04  5.19548E+03 -5.82888E+04 -4.40385E+04
 -1.09312E+04 -5.86642E+04  3.84366E+04 -4.26346E+04  5.61768E+04  2.89767E+02  3.36919E+04  3.40763E+04
 -7.12736E+03  4.00206E+04 -3.26061E+04  1.81711E+04 -2.94968E+04 -5.46206E+03 -1.77154E+04 -1.09478E+04
 -8.06860E+03 -1.21230E+04  6.87921E+01 -1.63635E+04  8.72088E+03 -2.31168E+04  1.59427E+04 -1.45343E+04
  6.49938E+03  6.63714E+03 -7.21975E+03  8.53288E+03 -2.17211E+04 -5.22423E+03 -2.82667E+03 -3.56253E+04
  2.29261E+04 -3.97891E+04  5.12716E+04 -1.51891E+04  4.37400E+04  1.69260E+04  1.82480E+04  4.89926E+04
 -1.51766E+04  3.08184E+04 -2.66882E+04  3.32112E+02 -1.20408E+04 -2.65442E+04  1.90303E+04 -3.83699E+04
  4.09514E+04 -7.96430E+03  3.62230E+04  2.37250E+04  1.67652E+04  4.89438E+04 -7.10356E+03  5.49737E+04
 -3.03431E+04  4.22258E+04 -4.43317E+04  9.77610E+03 -4.43132E+04 -1.38942E+04 -2.38033E+04 -3.87655E+04
  2.88818E+03 -4.03006E+04  3.45894E+04 -1.50920E+04  3.07768E+04  5.92844E+03  2.87092E+03  1.82960E+04
 -1.86202E+04  1.07938E+04 -4.56003E+03 -6.71159E+03  5.38091E+03 -8.23701E+03  1.38989E+04  8.14002E+03
  1.16629E+04  2.27944E+04 -9.03650E+03  2.67910E+04 -2.14254E+04  1.48355E+04 -3.00983E+04 -4.88297E+03
 -2.19632E+04 -1.54102E+04 -5.18071E+03 -3.01241E+04  8.38883E+03 -2.28797E+04  1.63416E+04 -1.94068E+04
  2.78831E+04 -1.43951E+04  3.39197E+04  5.25280E+03  2.10847E+04  2.32696E+04  3.52491E+03  3.74180E+04
 -1.92327E+04  3.26367E+04 -2.96970E+04  8.29077E+03 -2.58278E+04 -9.24482E+03 -4.27585E+03 -1.22930E+04
  1.87577E+03  2.54342E+03 -6.31952E+03  1.06120E+04 -2.03259E+04  1.67298E+03 -1.37949E+04 -1.32060E+04
 -6.77663E+03 -2.20791E+04  2.29027E+03 -2.52574E+04  1.81105E+04 -1.75647E+04  1.62982E+04 -4.57823E+03
  1.50132E+04  1.12232E+04 -1.98447E+03  2.07520E+04 -1.16854E+04  1.02469E+04 -1.81130E+04 -4.59993E+03
 -1.38016E+04 -2.03094E+04 -5.67233E+03 -3.07687E+04  1.18913E+04 -1.86921E+04  1.76256E+04 -1.30412E+04
  1.72719E+04  3.56811E+03  1.50584E+04  1.81402E+03  6.76265E+03  2.39303E+03  6.96270E+03 -9.06537E+02
  2.01991E+04  2.78621E+03  1.94238E+04  1.76291E+04  1.82369E+04  3.66523E+04 -3.04225E+03  3.99964E+04
 -1.76989E+04  3.14036E+04 -3.29294E+04  1.99915E+04 -3.68162E+04 -2.10353E+03 -3.10720E+04 -2.34670E+04
 -4.57421E+03 -3.03423E+04  1.52274E+04 -3.10813E+04  2.65249E+04 -1.34998E+04  2.20619E+04  5.31153E+03
  2.72601E+03  1.80522E+04 -1.25393E+04  1.66089E+04 -1.22191E+04  3.39191E+03 -1.00900E+04 -1.08085E+04
  1.21350E+03 -1.66027E+04  1.05388E+04 -1.20554E+04  1.05268E+04 -2.88427E+03  5.72518E+03  6.23556E+03
 -9.21875E+03  1.42837E+03 -6.07928E+03 -7.53425E+03 -1.37648E+02 -1.87784E+04  8.90516E+03 -1.90682E+04
  1.76079E+04 -1.36129E+04  2.56487E+04  6.77039E+03  1.58543E+04  1.11940E+04  5.79203E+03  2.10206E+04
 -9.51683E+03  2.02535E+04 -1.63849E+04  1.70277E+04 -1.35192E+04  4.14043E+03 -1.62331E+04 -5.37746E+03
 -1.33250E+04 -5.28952E+03 -1.98169E+03  8.64980E+02 -1.14276E+02  6.92439E+02 -3.95794E+03  3.67663E+03
 -9.52621E+03 -1.01569E+03 -6.29028E+03 -8.90444E+03 -6.65225E+03 -1.75698E+04  9.75876E+03 -1.22118E+04
  1.80615E+04 -7.11858E+03  9.87754E+03  4.51327E+03  1.09935E+03  5.16998E+03 -9.78643E+03 -4.47767E+03
 -4.46897E+03 -1.11559E+04  3.24847E+03 -7.38090E+03  6.85157E+03 -6.91701E+03  1.21142E+04 -7.36018E+03
  1.55115E+04  6.53637E+03  1.00400E+04  1.26562E+04  5.58664E+03  1.24806E+04 -7.02784E+03  1.40755E+04
 -1.17290E+04  3.84087E+03 -5.58838E+03 -7.18114E+03 -3.00982E+03 -6.14968E+03  5.70680E+03 -5.56619E+03
  6.83380E+03  6.16951E+03  4.48138E+03  1.12809E+04 -1.39782E+04  1.03495E+04 -1.24306E+04  1.39687E+03
 -1.42661E+04 -8.07004E+03 -1.85984E+03 -1.13417E+04  6.60266E+03 -7.05930E+03  6.52248E+03 -7.69902E+02
 -1.30932E+02  7.69487E+03 -9.87161E+03  7.11447E+03 -1.02186E+04  3.47844E+01 -8.82085E+03 -2.71877E+03
 -8.36067E+03 -1.20997E+04  9.48411E+03 -1.38025E+04  1.17285E+04 -1.00270E+04  1.23894E+04  3.83927E+02
  7.00679E+03  1.00744E+04 -2.55785E+03  1.16333E+04 -9.80661E+03  1.13824E+04 -1.12700E+04  5.56236E+03
 -1.26962E+04 -5.67345E+03 -4.63156E+03 -1.18651E+04  3.84509E+03 -4.10868E+03  2.13867E+03  2.18422E+03
  3.98557E+03  4.95689E+03 -1.96674E+03  3.07051E+03 -4.35267E+03 -4.79794E+03  1.65578E+03 -2.36544E+03
  1.02314E+04 -2.59827E+03  1.14382E+04 -7.89341E+02  1.44499E+04  7.80235E+03  1.70176E+03  1.14829E+04
  4.87934E+02  1.53328E+04 -1.22383E+04  1.29690E+04 -1.44340E+04 -1.24432E+03 -1.62617E+04 -9.00389E+03
 -6.38156E+03 -1.27469E+04 -8.51906E+01 -1.22758E+04  4.10191E+03 -8.84020E+03  1.66261E+03 -2.57240E+03
  6.68915E+03  6.58676E+02  2.21647E+03 -1.38211E+03  6.82574E+03  8.65765E+02  3.95625E+03 -2.10532E+03
  1.12392E+04  9.71445E+03  4.59173E+03  6.52275E+03  3.33904E+02  1.09037E+04 -3.18037E+03  3.45942E+03
 -9.34779E+03  1.90666E+03 -6.23666E+03 -9.13814E+03 -1.01533E+03 -1.51991E+04  6.62890E+03 -1.04054E+04
  1.03675E+04 -1.29421E+04  1.31523E+04  3.84742E+03  8.83738E+03  1.38270E+04  1.94219E+03  1.18250E+04
 -4.43184E+03  1.08259E+04 -3.14764E+03  3.43926E+03  5.25689E+02  1.71733E+02 -2.19820E+03  2.70925E+03
  2.41799E+03  2.63937E+03 -4.85525E+02 -1.72033E+03 -1.03411E+03 -1.77679E+03 -9.38525E+03  2.99283E+03
 -6.68158E+03 -1.46808E+04 -1.82014E+02 -8.86916E+03  3.14316E+03 -1.07742E+04  1.00767E+04 -2.99253E+03
  1.26543E+04  2.51568E+03 -6.62139E+01  9.59635E+03 -2.68693E+03  3.57135E+03 -5.13580E+03  5.98064E+03
 -1.46499E+04  2.35515E+02 -5.54675E+03 -5.83930E+03 -2.65873E+02 -1.27600E+04  2.43351E+03 -2.48656E+03
  7.07398E+03 -2.39712E+03  1.48359E+03  2.17702E+02  5.70122E+03  1.99705E+02  3.99821E+03  7.89315E+02
  1.91854E+03  1.59921E+03  1.36752E+03  7.65452E+03 -3.85847E+03  5.48411E+03  3.53466E+03  2.36303E+03
 -3.84670E+03  7.19702E+03 -8.97532E+03  9.32310E+03 -9.26288E+03  4.65176E+03 -7.29984E+03 -3.37766E+03
 -2.78175E+03 -7.98203E+03  1.78267E+03 -6.05774E+03  9.21992E+03 -7.69571E+03  8.32541E+03  5.17725E+01
  2.76424E+03  8.06293E+03  3.96076E+03  7.93594E+03 -6.34021E+03  3.10492E+03 -6.97371E+03  1.30677E+03
 -6.27747E+02 -1.93172E+03 -3.16231E+03 -5.11449E+03  1.42284E+03  1.85287E+03 -3.42432E+03  8.30783E+02
  3.00012E+03  5.34830E+02 -3.11626E+03 -5.75246E+02 -8.87004E+02  4.07137E+02  5.16410E+02  3.02805E+03
  4.92234E+03 -6.25418E+03  1.45637E+03  2.95102E+03  1.48879E+03  9.13225E+03 -1.03292E+03  5.21670E+03
 -8.17176E+03  3.35392E+03 -7.64652E+03  3.31569E+03 -7.57172E+03 -1.76052E+03 -6.74509E+03 -3.81246E+03
  7.60370E+03 -9.92881E+03  1.05001E+03 -5.14507E+02  3.27418E+03 -7.87550E+01  4.55590E+03  3.92817E+03
 -3.48706E+03 -2.01596E+03  1.71819E+03 -2.61037E+03 -2.23587E+03 -4.47371E+03  1.70950E+03  1.24265E+03
  5.89617E+03  1.25796E+03  1.22901E+03  9.00442E+01  4.03768E+03  2.84284E+03  1.28101E+03  3.59478E+03
 -9.27007E+01  4.14441E+03 -2.40300E+03 -8.92167E+02  4.37806E+03 -2.50064E+03  4.83158E+03 -1.06210E+03
  3.91217E+03 -1.24033E+03  5.55500E+03  6.76610E+03 -7.12722E+01  8.58507E+03 -1.71090E+03  2.38827E+03
 -8.02324E+03  6.81514E+03 -8.88323E+03 -6.51324E+03 -2.37563E+03 -3.77270E+03 -2.08455E+02  4.43685E+02
  2.66050E+03 -1.56182E+02  3.65443E+03  4.78267E+03  3.61586E+03  7.50257E+03 -4.11209E+03  2.19670E+02
  8.06120E+00  5.44327E+02  7.22273E+02 -8.73492E+02 -3.47253E+03  3.06921E+03  5.88505E+02  1.17778E+03
 -2.65321E+03 -6.53109E+02 -3.62036E+03  5.24985E+03 -6.26436E+03  8.78128E+02 -4.08163E+03 -8.61848E+03
 -5.54558E+03 -1.06486E+04  3.61198E+03 -3.22846E+03  7.33886E+03 -5.89768E+03  8.55879E+03  1.05268E+03
  1.25754E+04  1.53421E+03  6.66704E+03  4.62629E+03 -4.21383E+03  6.13174E+02  1.62842E+03  3.95145E+03
  2.72500E+03 -2.91399E+03 -2.46617E+03  3.48777E+03 -3.55585E+03  2.87132E+03  3.83005E+03 -4.30813E+03
 -4.78309E+03 -7.47596E+03 -1.20067E+03 -4.44893E+03  2.44885E+03  2.12528E+03 -4.85111E+03  1.26539E+03
  5.64264E+03 -2.71480E+03  2.01052E+03  1.55215E+03  6.91307E+03  4.08962E+03  8.38237E+02  4.87963E+03
 -2.59869E+03  3.64210E+03 -7.36808E+03  4.88313E+03 -6.56125E+03 -1.55197E+03 -6.03966E+03 -5.36801E+03
 -1.98703E+02 -1.16314E+04  1.65466E+03 -4.66575E+03 -4.03092E+02 -1.73879E+02  2.03082E+03  1.65517E+03
  2.29195E+03  3.09107E+03  6.18699E+02 -6.93028E+01 -2.82008E+02 -7.27414E+02 -2.33721E+03 -2.99471E+03
 -8.12430E+02 -5.27445E+03  2.93177E+03  2.88710E+02 -1.01391E+03  5.10819E+03 -3.91734E+02  3.99022E+03
 -5.85246E+03  1.75726E+03 -3.16551E+03 -4.16482E+02 -4.88302E+03 -4.20268E+03  1.69136E+03 -5.26159E+03
 -4.76680E+01 -5.71518E+03  8.08206E+03 -3.11215E+03  5.64809E+02 -5.59864E+03  2.60845E+03  3.02100E+03
  3.23261E+03  3.87245E+03  1.80442E+03  6.14133E+02 -3.87872E+03  7.85819E+03  1.23043E+03 -8.67077E+02
  1.68259E+02 -1.54615E+03 -3.10040E+03  1.91607E+03 -7.67438E+02  1.56053E+03 -3.61190E+03  2.46859E+03
 -6.29434E+03 -3.66801E+03 -1.95329E+02 -2.97736E+03  4.52026E+03 -1.51116E+03  3.43030E+03 -2.54484E+03
  7.86840E+03  5.48371E+03  1.47736E+03  5.62874E+03  6.83037E+02  6.47043E+03 -6.62208E+03  1.14510E+03
