 $NMID ID='MM_0lb_SNR50_18hz_g50_73.RAW', FMTDAT='(8E13.5)'
 TRAMP=1., VOLUME=1. $END
  3.11763E+05  3.23024E+03  3.41634E+05  2.44158E+05  8.39126E+04  3.32421E+05 -1.28896E+05  2.47877E+05
 -1.92402E+05  8.09590E+04 -1.11576E+05 -3.40428E+04 -4.00274E+03 -4.89385E+04  5.58882E+04 -5.31154E+03
  3.53973E+04  5.17527E+04 -1.91413E+04  7.27548E+04 -6.23884E+04  6.30216E+04 -8.57305E+04  3.02838E+04
 -8.17184E+04 -1.10003E+04 -5.64484E+04 -5.33668E+04 -1.44999E+04 -6.32514E+04  2.91252E+04 -4.73880E+04
  3.79142E+04  1.42616E+03  1.32462E+04  4.16773E+04 -3.30509E+04  4.76606E+04 -6.82919E+04 -3.02530E+03
 -5.26582E+04 -5.69542E+04 -4.83534E+03 -7.55892E+04  3.30690E+04 -5.24401E+04  4.20626E+04 -1.92307E+04
  4.02984E+04  1.29212E+04  3.20345E+04  3.00438E+04  1.43932E+04  2.96517E+04 -5.47329E+03  2.59382E+04
 -2.06042E+04  1.51203E+04 -2.08494E+04 -5.63095E+03  3.13715E+03 -4.57306E+03  2.17965E+04  8.36646E+03
  7.02150E+03  3.47293E+04 -2.78075E+04  3.65092E+04 -6.38002E+04  2.54772E+03 -5.29717E+04 -4.39823E+04
 -8.27996E+03 -6.48878E+04  4.07972E+04 -4.44026E+04  5.64904E+04  4.66584E+02  3.40880E+04  2.90677E+04
 -3.51090E+03  3.54572E+04 -2.90235E+04  1.60120E+04 -3.11327E+04 -6.87900E+03 -1.42026E+04 -9.17142E+03
 -1.14264E+04 -1.12537E+04 -2.92617E+03 -1.94850E+04  3.34175E+03 -2.18447E+04  1.54817E+04 -1.50819E+04
  9.05516E+03  6.61459E+02 -8.40406E+03  7.79202E+03 -2.37621E+04 -1.05707E+03 -7.76617E+03 -3.28022E+04
  2.16482E+04 -3.84755E+04  4.71095E+04 -2.42115E+04  4.52504E+04  2.14377E+04  1.40978E+04  4.16790E+04
 -1.75092E+04  3.25395E+04 -2.53858E+04  4.02256E+03 -9.76193E+03 -2.74735E+04  2.70078E+04 -3.22253E+04
  3.45748E+04 -5.63407E+03  3.12933E+04  2.19448E+04  1.15501E+04  4.33514E+04 -7.64922E+03  4.40705E+04
 -2.59870E+04  3.16383E+04 -3.54043E+04  9.74940E+03 -4.13772E+04 -1.35139E+04 -2.18903E+04 -3.70997E+04
  8.49664E+03 -3.54889E+04  3.17528E+04 -1.71185E+04  2.65099E+04  1.21956E+04  2.85136E+03  2.00879E+04
 -1.51053E+04  4.11138E+03 -3.42604E+03 -9.60650E+03  6.40216E+03 -8.54597E+03  1.81099E+04  1.02763E+04
  1.03786E+04  2.06364E+04 -8.71449E+03  2.34710E+04 -2.34391E+04  1.32867E+04 -2.51757E+04 -5.57299E+03
 -1.83579E+04 -1.46151E+04 -2.84540E+03 -1.35309E+04  5.35433E+03 -1.78316E+04  1.33406E+04 -1.32305E+04
  2.16905E+04 -1.28354E+04  2.64858E+04  5.31260E+03  2.02322E+04  1.67833E+04  2.56321E+03  3.25407E+04
 -1.72485E+04  2.82218E+04 -2.86847E+04  4.81623E+03 -2.30380E+04 -9.45301E+03 -5.54500E+03 -1.69400E+04
  3.93193E+03 -4.54612E+03 -4.64896E+03  4.21341E+03 -1.43119E+04  8.77196E+03 -1.44957E+04 -1.27226E+03
 -6.85759E+03 -1.66222E+04  2.34176E+03 -2.00205E+04  1.50170E+04 -1.42523E+04  1.55080E+04 -2.98376E+03
  1.24429E+04  7.21968E+03 -2.83564E+03  1.96042E+04 -1.03457E+04  7.07937E+03 -1.50812E+04 -8.39365E+02
 -1.03042E+04 -1.39914E+04  1.72543E+02 -1.79347E+04  5.54312E+03 -1.28650E+04  1.79367E+04 -1.01000E+04
  1.81713E+04 -4.32382E+03  8.84146E+03  4.36647E+03  3.46587E+03  5.04814E+02  6.14654E+03 -2.72611E+03
  1.59243E+04  1.47112E+03  1.68848E+04  1.22983E+04  7.44581E+03  2.66747E+04 -1.58030E+03  2.88537E+04
 -1.86252E+04  2.02320E+04 -3.05941E+04  9.35371E+03 -2.81186E+04 -1.53698E+03 -2.45699E+04 -1.56351E+04
 -1.02338E+04 -2.15962E+04  6.82004E+03 -1.81817E+04  1.76645E+04 -1.10195E+04  1.67607E+04  9.23049E+02
  7.21213E+03  1.07565E+04 -8.56454E+03  5.30896E+03 -1.49425E+04  3.76821E+03 -1.23300E+04 -7.08537E+03
 -4.21437E+03 -1.30857E+04  8.72461E+03 -1.23841E+04  4.65039E+03  2.36931E+03  1.06394E+03  4.60021E+03
 -6.13423E+03 -1.48025E+03 -2.48748E+03 -7.89459E+03  4.10013E+03 -1.06323E+04  1.11597E+04 -7.90745E+03
  1.29516E+04 -4.63737E+03  1.37247E+04  2.29495E+03  1.38117E+04  8.07633E+03  2.88455E+03  1.24317E+04
 -1.85733E+03  1.88846E+04 -9.01807E+03  7.79709E+03 -1.28277E+04  4.36486E+03 -9.12225E+03 -1.09033E+03
 -5.13130E+03 -2.59263E+03 -1.98028E+03  2.88950E+03 -2.34951E+03  4.67150E+03 -5.64092E+03  3.81393E+03
 -6.06083E+03  2.97688E+03 -1.03438E+04 -8.99529E+03 -5.92909E+03 -1.04106E+04  5.91551E+03 -1.38719E+04
  4.25777E+03 -6.46430E+03  6.85840E+03  5.96055E+03 -2.09752E+01  1.06868E+03 -4.90064E+03  2.10779E+03
 -2.59444E+03 -4.78596E+03 -4.10475E+02 -4.64279E+03  5.63978E+03 -8.40146E+03  9.71853E+03 -1.84897E+03
  1.02569E+04 -3.61091E+02  1.19540E+04  6.43134E+03  3.94112E+03  1.11165E+04 -6.43735E+03  7.63915E+03
 -1.26516E+04  3.77263E+03 -2.98653E+03  1.53852E+03  4.18641E+03 -3.03101E+03  5.22066E+03 -2.32548E+03
  4.44884E+03  6.88355E+03  3.00332E+03  8.75539E+03 -9.11827E+03  2.25219E+03 -7.09632E+03  1.48466E+03
 -9.21231E+03 -4.48187E+03 -2.71153E+02 -7.11831E+03  1.98310E+03 -2.62763E+03  1.28293E+03  1.17882E+03
  8.78389E+02  1.16200E+03 -6.37223E+03  2.36422E+03 -5.92043E+03  2.77195E+03 -3.44434E+03 -1.70585E+03
 -3.95606E+03 -4.50726E+03 -3.44212E+03 -9.58932E+03  6.09216E+03  1.81473E+03  7.80372E+03 -1.17319E+03
  8.14925E+03  5.77953E+03 -5.86384E+02  9.96159E+03 -3.24119E+03  8.30734E+03 -8.24828E+03 -1.77830E+03
 -7.98461E+03 -7.42585E+03  2.76524E+03 -4.98306E+03  9.01851E+02 -3.77974E+03  7.09664E+00 -1.86402E+03
  3.30517E+03 -8.21104E+02  3.79858E+03  9.44421E+02  2.53473E+03  6.08200E+01  5.61682E+02 -3.28569E+03
  5.36080E+03 -3.89455E+02  6.73662E+03 -3.96781E+03  6.47256E+03  6.62740E+03  4.76346E+03  8.23560E+03
 -4.06236E+03  9.10003E+03 -1.01085E+04  9.00428E+03 -1.22370E+04 -4.65015E+01 -1.01486E+04  6.39503E+02
 -3.61162E+03 -4.25265E+03  2.00281E+02 -1.00205E+04  4.54674E+03 -1.68285E+03  1.73235E+03 -1.15198E+03
  3.75962E+03 -3.94306E+02  4.84219E+03 -2.88976E+03  1.55716E+03  1.43972E+03  7.92382E+03 -9.58712E+02
  5.97877E+03  1.26571E+03 -5.13096E+01  6.13548E+03 -4.53826E+03  6.11714E+03 -4.86174E+03  2.30813E+03
 -7.21976E+03 -8.51725E+02 -3.29829E+03 -7.75230E+03  1.90447E+03 -5.31255E+03  3.85267E+03 -6.45310E+03
  5.66043E+03 -3.43260E+03  6.14139E+03  1.86054E+01  6.69857E+03  8.74510E+03  5.39873E+03  3.34886E+03
 -1.97732E+03  5.77810E+03 -4.15529E+03  2.40365E+03 -1.36794E+03 -5.09483E+02 -1.65417E+03  3.32280E+03
  2.45010E+03 -2.05054E+03  8.38536E+02  1.36085E+03 -3.16704E+03  8.53539E+02 -5.36438E+03  6.16134E+03
 -2.79969E+03 -5.93702E+03  1.94441E+03 -5.20455E+03  3.47953E+03 -2.27347E+03  2.93362E+03 -3.90520E+02
  5.32690E+03  5.50737E+03 -1.38106E+03  9.28335E+02 -1.94196E+03  6.52806E+03 -1.16065E+03  3.07462E+03
 -4.21367E+03  1.78746E+02 -7.36003E+03 -4.57716E+03  4.40327E+02 -1.27810E+03  2.49916E+03 -4.93629E+03
  7.93634E+02  1.67644E+03  2.35973E+03 -1.94598E+03  9.42359E+02 -9.23958E+02  6.20203E+02 -1.24656E+03
  7.00043E+03  4.37249E+02  1.52323E+03  3.21104E+02  5.29318E+02 -3.24366E+03 -2.58187E+02  5.10005E+03
  5.21109E+02  9.62779E+02 -1.39016E+03  2.47128E+02 -3.71806E+03  6.94631E+02 -7.62534E+03  2.57165E+03
  1.74196E+01 -5.83900E+02 -2.82446E+03 -3.93248E+03  1.50924E+03 -7.68244E+03  2.96724E+03  8.94790E+02
  4.40862E+03  1.96532E+03  1.21651E+02  2.80629E+03 -1.95737E+03  8.50201E+03 -4.70221E+02  5.17483E+02
  1.39531E+03  2.07042E+02 -1.60404E+03 -3.68698E+03  3.09618E+03 -1.91156E+03  3.37729E+03  1.88268E+03
  3.43623E+03 -2.30264E+03  1.03236E+03  2.51708E+02 -4.92672E+02 -7.56819E+02  2.17549E+03 -6.84745E+02
  1.62261E+03  8.95524E+02 -1.58292E+03  2.15858E+03 -2.41250E+03  4.91434E+02  2.11172E+03  1.28112E+03
  6.39617E+02  6.39433E+03  5.48203E+01  1.84514E+03 -2.62969E+03  5.31729E+03 -3.42485E+02  1.47033E+03
 -1.06472E+03  1.12788E+03 -4.31711E+03 -2.51320E+03  2.03343E+03  3.61890E+03 -1.40718E+03 -1.82928E+03
 -1.40698E+03  8.33091E+02 -1.76468E+03 -4.36561E+03  4.53921E+02 -4.29267E+03 -3.39741E+02 -4.74979E+03
 -4.78681E+03 -3.65498E+03 -7.14831E+02 -7.26673E+01  3.02775E+03  3.04772E+03 -3.76359E+03 -2.30019E+03
  2.97054E+03  4.31992E+03 -1.72105E+03 -4.23602E+03 -1.25772E+02 -3.19696E+03  1.29605E+03 -1.74778E+03
 -1.48928E+03  5.88579E+02 -1.87943E+03  2.29796E+03 -3.00168E+03  4.77910E+02 -6.55067E+02  1.63866E+03
 -3.93917E+03  2.88535E+02 -1.47844E+03  2.28190E+02  1.17029E+03 -9.67019E+02  1.15670E+03 -2.45178E+02
  7.72595E+01  1.02131E+03 -1.65849E+02  1.75281E+03 -7.15567E+02  3.03011E+03  1.39962E+03  3.78007E+03
  1.39016E+03 -2.12658E+03  9.41115E+02 -3.32441E+03 -1.93233E+02 -1.91071E+03  2.70233E+03 -1.15705E+02
  1.22165E+03  6.36266E+02 -2.35638E+02  1.53466E+03 -1.99771E+03 -8.06032E+02 -6.86393E+02 -4.42241E+03
 -3.08580E+03 -3.57647E+03  4.28178E+03 -5.85026E+02  4.74449E+03 -8.62195E+02  6.18923E+03 -3.46655E+03
 -8.13502E+01 -7.73812E+01  4.88967E+03  4.06922E+03 -2.72287E+03  2.07332E+03 -2.84185E+03  6.69794E+02
  1.82784E+03 -5.44939E+01 -2.07041E+03 -3.06205E+03  5.98707E+02  1.50339E+03 -2.66209E+03 -1.78973E+03
  1.40817E+03 -1.62035E+03 -7.75077E+02  2.61734E+03  1.42477E+03 -5.34763E+03  4.07609E+03  2.28685E+02
  1.30106E+03 -4.02576E+03  3.60767E+02 -3.15143E+02 -2.77276E+03  1.14199E+00  3.34933E+03  4.54712E+03
  1.22584E+03  1.20579E+03 -2.47328E+03  5.91251E+03 -4.41747E+03  9.78829E+02  8.38536E+02 -2.09102E+03
  1.12180E+03 -2.01232E+03 -5.07058E+03 -5.15184E+03  3.11142E+03  3.51659E+03 -5.94224E+02  2.67792E+03
 -5.46823E+02 -1.33067E+03  1.10575E+03  5.81420E+01 -3.62190E+02 -1.99954E+03 -1.56573E+03 -3.49174E+02
  5.75907E+02 -2.57852E+03 -3.45135E+03  3.19891E+03 -2.55878E+03  1.86437E+03  5.88886E+03 -9.40730E+02
 -6.76236E+02 -1.37877E+03  2.23953E+03 -2.45404E+03  2.62387E+03 -2.20652E+03  1.03325E+03 -4.40183E+03
 -1.26959E+03 -2.60006E+01 -3.71667E+02  3.67303E+03  2.75234E+03 -3.21716E+02 -8.53257E+01 -7.89822E+02
 -1.59325E+03 -2.63032E+03  2.19908E+03  1.03834E+03 -2.03966E+03 -8.15310E+02 -2.04396E+03 -1.55033E+02
 -3.21761E+03  2.64548E+03  2.41079E+03  9.80156E+01  3.63660E+03 -3.39173E+03 -1.05433E+03 -1.03578E+03
 -6.26587E+01 -2.99956E+02 -2.00063E+03 -9.71779E+02  4.59766E+03 -1.81905E+03 -5.55390E+03  8.73102E+02
  1.23006E+03  5.32068E+02  4.45766E+03  2.66058E+03  1.31685E+03  3.44727E+02 -1.08124E+03  1.38548E+03
