 $NMID ID='MM_0lb_SNR50_15hz_g45_13.RAW', FMTDAT='(8E13.5)'
 TRAMP=1., VOLUME=1. $END
  3.12483E+05  5.45963E+03  3.39662E+05  2.48385E+05  8.05435E+04  3.35362E+05 -1.28378E+05  2.51717E+05
 -1.88532E+05  8.00580E+04 -1.12577E+05 -3.50160E+04  2.90803E+03 -5.10947E+04  5.54138E+04 -5.65185E+02
  3.58113E+04  5.39899E+04 -1.83285E+04  8.13063E+04 -6.15239E+04  6.56728E+04 -8.99969E+04  3.63964E+04
 -8.05070E+04 -1.19501E+04 -5.67226E+04 -5.08576E+04 -1.35882E+04 -7.07780E+04  2.88562E+04 -4.36145E+04
  3.96404E+04  1.28421E+03  1.31587E+04  4.78414E+04 -3.40552E+04  4.42452E+04 -6.42949E+04 -1.55928E+03
 -5.39443E+04 -5.69367E+04 -7.11323E+03 -7.78095E+04  2.96785E+04 -5.71460E+04  5.06817E+04 -1.76794E+04
  3.99275E+04  1.36162E+04  3.34448E+04  2.23261E+04  1.85001E+04  2.72226E+04 -4.39157E+03  2.66184E+04
 -2.22537E+04  1.39795E+04 -2.19154E+04 -5.12341E+03  6.17486E+03 -9.74403E+03  1.94780E+04  9.20847E+03
  1.52360E+04  3.63687E+04 -3.20070E+04  3.47793E+04 -5.84821E+04 -1.38102E+03 -6.00151E+04 -3.72326E+04
 -1.53209E+04 -6.33794E+04  4.08676E+04 -4.60468E+04  6.22340E+04 -4.11543E+03  3.48903E+04  3.40075E+04
 -6.35657E+03  3.64871E+04 -2.61659E+04  1.20848E+04 -3.31022E+04 -4.76572E+03 -1.92774E+04 -8.51079E+03
 -3.49403E+03 -1.10342E+04  1.06164E+03 -1.76473E+04  8.58718E+03 -2.55909E+04  1.17681E+04 -1.38220E+04
  1.27703E+04  7.21234E+03 -7.90823E+03  1.65497E+04 -1.92026E+04 -8.18508E+03 -5.92433E+03 -3.25942E+04
  2.20934E+04 -4.57624E+04  4.87781E+04 -2.23418E+04  4.28629E+04  1.68413E+04  1.73561E+04  4.02197E+04
 -1.86417E+04  3.08244E+04 -2.86392E+04  2.35875E+03 -1.11485E+04 -3.40137E+04  1.89468E+04 -3.53915E+04
  3.92279E+04 -1.04400E+04  3.30994E+04  2.28014E+04  2.19520E+04  4.11013E+04 -5.72913E+03  5.05212E+04
 -2.84347E+04  3.27194E+04 -4.32295E+04  7.30568E+03 -4.19332E+04 -1.84020E+04 -1.96947E+04 -4.00762E+04
  6.67157E+03 -3.80022E+04  3.31733E+04 -1.85654E+04  2.57495E+04  9.86810E+03  4.05809E+03  1.86521E+04
 -1.29132E+04  7.75019E+03 -1.06934E+04 -6.53848E+03  8.72509E+03 -8.21129E+03  1.65818E+04  5.69979E+03
  1.37538E+04  2.26567E+04 -4.05749E+03  2.48531E+04 -2.24039E+04  9.05092E+03 -2.65839E+04 -5.59916E+03
 -2.11572E+04 -2.00302E+04 -3.44371E+03 -2.11378E+04  3.14095E+03 -1.67966E+04  1.32185E+04 -1.42505E+04
  2.27031E+04 -1.00564E+04  3.49090E+04 -2.17408E+03  2.40292E+04  1.57289E+04  5.10101E+03  3.64814E+04
 -1.90765E+04  2.94275E+04 -2.89615E+04  1.50211E+04 -2.12556E+04 -8.58397E+03 -7.43663E+03 -1.10985E+04
  1.50410E+03 -4.12808E+03 -4.43132E+03  9.67134E+03 -1.33435E+04  3.17733E+03 -1.83595E+04 -3.81844E+03
 -7.32305E+03 -2.19605E+04  5.36814E+03 -2.36976E+04  1.70824E+04 -1.26202E+04  1.68024E+04  2.14933E+02
  8.89452E+03  1.47529E+04  2.50778E+02  1.84265E+04 -1.49155E+04  1.22770E+04 -1.97384E+04 -1.52325E+03
 -1.54169E+04 -1.84592E+04 -5.48528E+03 -2.12872E+04  1.02397E+04 -1.37882E+04  2.25550E+04 -1.34407E+04
  1.69629E+04 -3.62714E+03  1.34778E+04  1.06521E+04  5.35665E+03  4.06357E+03  1.34845E+04 -1.37460E+03
  1.51106E+04  3.79448E+03  1.50997E+04  1.18918E+04  1.02860E+04  2.85360E+04  1.36205E+01  3.31768E+04
 -1.75252E+04  2.29826E+04 -2.93729E+04  1.61355E+04 -2.84386E+04 -3.08838E+03 -1.91530E+04 -1.61240E+04
 -1.22383E+04 -2.66046E+04  1.28524E+04 -2.33777E+04  2.11311E+04 -1.36051E+04  1.81369E+04  3.73708E+03
  5.75715E+03  1.53384E+04 -7.99620E+03  8.67604E+03 -1.48004E+04  7.73292E+03 -1.13560E+04 -8.96531E+03
  2.20307E+03 -1.26705E+04  1.11139E+04 -1.16751E+04  9.71489E+03 -2.06984E+03  1.20269E+03  1.22208E+04
 -7.20734E+03  2.68532E+03 -9.81553E+03 -5.77602E+03 -4.43094E+03 -1.15862E+04  6.38857E+03 -1.11893E+04
  1.67233E+04 -7.97690E+03  1.29821E+04  3.17579E+03  1.39832E+04  7.89443E+03  8.52866E+03  2.32111E+04
 -8.41145E+02  1.93519E+04 -1.72961E+04  1.58908E+04 -1.13321E+04  3.43536E+03 -1.05495E+04 -5.41858E+03
 -1.07170E+03 -4.68700E+03 -1.90063E+03  3.23522E+02 -2.57841E+03 -8.38692E+02 -1.33597E+03  5.41047E+03
 -1.02419E+04 -1.07677E+03 -9.89052E+03 -6.96696E+03 -6.64679E+03 -1.63680E+04  2.95388E+03 -6.99044E+03
  1.31441E+04 -2.71309E+03  8.25638E+03  5.42121E+03  2.41751E+03  8.53728E+03 -6.32841E+03 -1.12592E+03
 -3.93105E+03 -5.52437E+03  9.18927E+02 -8.10705E+03  3.35473E+03 -1.19585E+04  9.76552E+03 -9.32999E+03
  1.27217E+04  1.88537E+03  1.49817E+04  1.07193E+04  1.83240E+03  1.16634E+04 -4.63166E+03  8.32864E+03
 -9.53791E+03  3.17831E+03 -7.35106E+03 -4.77682E+03 -1.42169E+02 -3.44652E+03  3.45257E+03  7.02805E+02
  3.55660E+03  4.17606E+03 -2.83272E+02  9.34529E+03 -5.16286E+03  7.43985E+03 -1.00131E+04  2.59398E+03
 -6.17044E+03 -4.86977E+03 -4.62202E+03 -1.00141E+04  6.78910E+02 -7.93747E+03  5.23749E+03  3.37051E+03
  5.60098E+02  6.41708E+03 -3.95187E+03  1.12889E+04 -4.68193E+03  9.21008E+03 -2.04164E+03 -2.01335E+03
 -3.84027E+03 -4.97649E+03  3.38830E+03 -1.35300E+04  1.15566E+04 -7.66203E+03  9.79836E+03  1.72827E+03
  6.95508E+03  1.02949E+04 -1.94552E+03  1.02899E+04 -9.79914E+03  1.85984E+03 -3.13590E+03 -9.75813E+02
 -8.20829E+03 -3.66660E+03  6.57999E+02 -8.65141E+03  5.99735E+03 -2.20230E+03  4.12471E+02 -2.64133E+03
  3.41262E+03 -2.10045E+03  4.34401E+03  1.78734E+03 -2.35750E+02 -2.09405E+03  1.76692E+03 -7.24698E+01
  8.69461E+03 -4.06697E+03  7.84716E+03  1.86107E+02  8.15007E+03  1.29517E+03  6.22447E+03  1.08796E+04
 -1.32451E+03  1.00567E+04 -9.79501E+03  8.07954E+03 -9.75099E+03  2.18236E+03 -9.50220E+03 -6.87435E+03
 -5.01995E+03 -1.00189E+04 -8.83017E+02 -6.02147E+03  3.04263E+03 -4.29765E+03  1.39266E+03  3.33199E+02
  1.35971E+03  1.09787E+03  2.62069E+03 -8.22099E+02  1.32243E+03  1.92837E+03  3.06821E+01  1.22285E+03
  2.79509E+02 -2.30476E+03  1.03460E+03  4.13637E+03 -4.13631E+02  5.15264E+03 -4.01102E+03  4.45738E+03
 -3.59212E+03  2.74573E+02  3.36741E+02 -8.34651E+03 -1.89169E+03 -5.43325E+03  1.31062E+03 -8.27714E+03
  9.22189E+03 -9.29614E+03  8.83535E+03 -2.36453E+03  6.30271E+03  5.45140E+03  2.72125E+03  8.50816E+03
 -3.89239E+03  9.18140E+03 -2.61849E+03  2.51282E+03 -3.92062E+03 -9.08691E+02 -6.41197E+02 -1.60641E+03
 -3.28732E+03  4.49882E+03 -2.63400E+03 -6.15660E+02 -2.87663E+03 -9.04612E+02 -5.67556E+03  2.32649E+03
 -2.42910E+03 -6.85050E+03  2.37386E+02 -5.03262E+03  2.93419E+03 -1.20738E+04  5.73169E+03 -5.79104E+03
  4.98506E+03  4.21465E+03  3.64718E+03  7.50339E+02 -1.72290E+03  8.18933E+03 -6.01241E+03  3.77688E+02
 -4.76366E+03 -1.26747E+03 -4.13036E+03 -5.67623E+03 -4.07527E+03 -5.35205E+03  4.03102E+03 -4.53444E+03
  2.62152E+03 -4.83633E+03  4.71225E+03  4.26887E+03 -1.28279E+03  4.37418E+03 -2.07743E+03 -5.20453E+02
 -1.60199E+03 -6.73841E+02  6.58932E+03 -2.42774E+03  1.76256E+03  3.33891E+03  1.62765E+03  6.12908E+03
 -3.24573E+03  4.40743E+03 -4.57843E+03  4.99804E+03 -5.22137E+03  1.16510E+03 -1.16584E+04 -3.95066E+02
 -6.99998E+03 -7.47373E+03  5.24108E+03 -4.96315E+03  4.19794E+03 -3.11298E+03  6.57135E+03  2.59193E+03
  4.05954E+03  3.47327E+02  3.13021E+03  9.21211E+03 -4.76704E+03  3.68748E+03 -7.42236E+02 -2.14901E+03
 -3.02643E+03  1.95276E+03  2.82924E+03 -5.28072E+03  2.97069E+03 -1.34215E+03  5.27491E+03 -3.05482E+03
  3.46952E+03  1.96760E+03 -5.87344E+02 -5.22977E+03  4.33079E+02 -1.63754E+03  6.20810E+02 -3.92926E+03
 -1.31692E+02 -1.66534E+02  2.37955E+03 -1.37215E+03 -2.58132E+02  4.44402E+03  1.85582E+03  4.43501E+03
 -1.96761E+03  1.66428E+03 -3.14988E+03 -3.13635E+03 -4.18196E+03 -8.83656E+02  1.56005E+03 -2.95353E+03
  3.72552E+03 -1.65370E+03  4.39800E+03 -2.90478E+03  5.56797E+03  1.43392E+03  3.12724E+02  7.04776E+03
 -3.36107E+02  5.58698E+03 -1.18916E+04 -1.41527E+03 -4.69712E+03  9.21041E+02 -2.83879E+03 -3.92590E+03
 -1.05024E+03 -7.26011E+02  4.51328E+03 -2.53410E+03  2.07087E+02  4.88280E+03  6.46304E+02  8.73016E+02
 -4.95886E+03 -3.45274E+03 -2.67785E+03 -6.06391E+02 -2.07232E+03 -1.97330E+03  2.86959E+03  1.33937E+03
  4.18004E+03  6.13662E+02  4.26070E+03  2.66383E+02  2.59642E+03  8.40274E+03 -1.59062E+03  9.25375E+03
 -2.94509E+03  1.89099E+03 -3.33628E+03  1.11906E+03 -2.30425E+03 -7.80451E+02  7.74029E+02 -1.74494E+02
  5.25611E+03  3.06229E+03  1.45268E+03  2.24877E+03  4.00331E+02  3.25033E+03  2.36551E+03  1.12079E+02
 -2.52977E+03  1.05650E+02 -3.70269E+03 -2.03076E+03 -3.40364E+03 -8.80332E+01  7.38586E+02  4.44744E+03
  5.86224E+01  2.45668E+03 -1.63966E+03 -1.80503E+03 -7.97313E+02  1.18530E+03 -1.76648E+03 -4.49689E+02
 -1.74332E+03 -2.09184E+03 -8.11678E+02 -6.90820E+03 -1.13907E+03 -4.09889E+03  4.10375E+03 -4.85570E+02
  2.36442E+03  7.47115E+03  1.77016E+03 -2.96320E+03 -3.77494E+03  2.01446E+03  2.08022E+02  1.84858E+03
 -2.54726E+03 -1.49254E+03 -3.86591E+03 -1.79792E+03  4.91430E+02 -2.37203E+03 -1.13788E+03 -6.45975E+02
  1.07780E+03  3.73001E+03 -3.61251E+03  1.85176E+03  8.15228E+02 -3.90204E+02  1.57766E+03  5.98943E+02
 -1.90808E+02 -6.40089E+02  4.38023E+03 -2.28525E+03  3.65491E+03  3.71506E+03 -3.88969E+03  8.28623E+02
 -7.66302E+02  5.98236E+03 -3.86769E+03 -7.16612E+02 -2.86060E+03  1.78532E+02 -2.18053E+03  4.70420E+01
  8.80812E+02 -1.52139E+03  3.48815E+03 -1.04750E+03  4.86247E+03 -5.69971E+03  1.08832E+03  1.69493E+03
  8.67627E+02 -2.80071E+03  8.43193E+02  1.97099E+03 -4.96694E+03 -6.60275E+02  1.20395E+03 -3.78722E+03
  1.86724E+03 -2.41688E+03  7.30274E+02  7.83687E+02  2.57466E+03 -1.47533E+03  2.02855E+03  5.05387E+03
 -3.64281E+01 -2.61615E+03 -9.25927E+02  1.44056E+03 -5.48102E+03 -3.18372E+03  4.41098E+03  7.59282E+02
 -1.77066E+03 -6.83140E+03  3.00138E+03 -3.22753E+03  3.45761E+03 -2.80335E+03 -9.58038E+02  3.20506E+03
  4.20316E+02  8.61880E+02  5.93504E+02  6.06798E+02 -3.89470E+03  3.45810E+03  1.44842E+03 -2.82437E+03
 -1.55234E+02  2.67548E+03 -6.78819E+03 -1.11539E+03 -1.08719E+03  3.49203E+03 -2.15910E+03  2.17577E+03
 -4.11071E+03  1.29605E+03  6.98358E+02  1.96308E+03  3.24993E+03 -2.95931E+03  2.76900E+03  4.04357E+03
  7.67102E+02 -2.08561E+02  2.44721E+03 -1.31194E+03 -1.65188E+03 -1.10412E+03 -6.16779E+02 -8.44290E+01
