 $NMID ID='MM_0lb_SNR50_14hz_g45_20.RAW', FMTDAT='(8E13.5)'
 TRAMP=1., VOLUME=1. $END
  3.13967E+05  1.27839E+03  3.33543E+05  2.50169E+05  8.53344E+04  3.39475E+05 -1.36303E+05  2.50968E+05
 -1.88824E+05  8.24559E+04 -1.12111E+05 -3.14951E+04  2.53751E+03 -4.85122E+04  5.78374E+04  1.61810E+03
  3.44624E+04  5.14920E+04 -1.97394E+04  7.73876E+04 -6.05092E+04  7.30831E+04 -8.77236E+04  3.11304E+04
 -8.20767E+04 -8.48165E+03 -5.56668E+04 -5.12191E+04 -1.45105E+04 -7.05529E+04  3.10189E+04 -4.67661E+04
  3.11215E+04  1.74223E+02  1.24238E+04  4.91508E+04 -3.12072E+04  4.58629E+04 -6.85453E+04 -9.63434E+02
 -5.08376E+04 -5.35937E+04 -9.94974E+02 -8.11038E+04  3.67510E+04 -5.34280E+04  5.25722E+04 -2.21255E+04
  4.57797E+04  1.19996E+04  3.41504E+04  2.83643E+04  1.56919E+04  3.45479E+04 -4.68354E+03  3.14113E+04
 -2.09507E+04  1.15160E+04 -2.06159E+04 -4.88744E+03  5.01209E+03 -6.41409E+03  2.21952E+04  1.27109E+04
  1.13347E+04  3.70955E+04 -3.24353E+04  3.52130E+04 -6.52011E+04  4.43372E+03 -5.68294E+04 -4.13040E+04
 -1.51067E+04 -5.57900E+04  3.82712E+04 -4.59958E+04  5.68454E+04 -3.05325E+03  3.39605E+04  3.10421E+04
 -9.57717E+03  2.95298E+04 -2.72466E+04  1.53860E+04 -2.95822E+04 -2.11652E+03 -2.02148E+04 -9.20262E+03
 -8.70149E+03 -1.23481E+04 -2.04266E+02 -1.76264E+04  3.55318E+03 -1.87007E+04  1.93004E+04 -1.29903E+04
  9.76139E+03  2.61462E+03 -9.00519E+03  1.70166E+04 -2.29503E+04 -4.31107E+03 -9.02796E+03 -2.94882E+04
  2.20769E+04 -4.29118E+04  4.51614E+04 -2.05762E+04  4.37026E+04  2.31748E+04  1.62739E+04  4.44801E+04
 -1.50470E+04  3.27940E+04 -2.56702E+04  2.47562E+03 -1.19912E+04 -2.50842E+04  1.90836E+04 -3.65065E+04
  3.87403E+04 -1.27760E+04  3.55104E+04  2.30481E+04  1.52316E+04  4.75694E+04 -1.15695E+04  4.55700E+04
 -2.75645E+04  3.39928E+04 -4.03001E+04  9.53682E+03 -4.40083E+04 -1.98182E+04 -2.41430E+04 -4.07931E+04
  7.58019E+03 -3.91381E+04  3.21191E+04 -1.69416E+04  2.62735E+04  1.27111E+04  3.20505E+03  1.92726E+04
 -1.25184E+04  5.24810E+03 -1.27648E+04 -7.89901E+03  7.71342E+03 -9.93338E+03  1.81423E+04  1.11412E+04
  1.32301E+04  1.99885E+04 -1.09919E+04  2.52508E+04 -2.05290E+04  9.39409E+03 -2.63188E+04 -1.33421E+03
 -2.60210E+04 -2.11575E+04 -1.20181E+04 -2.14937E+04  1.24358E+03 -2.30277E+04  1.67993E+04 -1.70410E+04
  2.16436E+04 -1.54494E+04  2.83468E+04  2.79423E+03  2.64282E+04  2.00432E+04 -6.76191E+02  3.72847E+04
 -1.57424E+04  3.14621E+04 -3.16626E+04  1.41105E+04 -2.41952E+04 -7.50566E+03 -7.03859E+03 -1.29431E+04
 -6.37057E+02 -9.57665E+02 -2.72318E+03  7.90211E+03 -1.47822E+04 -2.84097E+02 -1.90820E+04 -6.60228E+03
 -5.04264E+03 -1.68609E+04  5.67130E+03 -2.11520E+04  1.61920E+04 -1.79887E+04  1.55910E+04 -3.29544E+03
  8.11884E+03  1.53960E+04 -1.86238E+03  2.11838E+04 -1.67059E+04  1.09088E+04 -1.81178E+04  4.13498E+02
 -1.49868E+04 -1.40388E+04 -1.22084E+03 -2.24041E+04  1.28583E+04 -1.75954E+04  1.81219E+04 -7.79303E+03
  1.46307E+04  1.51032E+03  1.22988E+04  3.10832E+03  1.14261E+04  2.81646E+03  4.39704E+03 -2.19466E+03
  1.49439E+04  4.87600E+03  2.02254E+04  1.76208E+04  1.57625E+04  2.77388E+04 -4.88716E+03  3.35134E+04
 -1.78575E+04  2.96940E+04 -2.85253E+04  1.57184E+04 -3.19509E+04 -4.86657E+03 -2.78409E+04 -1.99515E+04
 -1.20196E+04 -2.18065E+04  5.38814E+03 -2.40728E+04  1.85934E+04 -1.16880E+04  1.76299E+04  2.97576E+03
  5.82021E+03  1.64919E+04 -6.88992E+03  1.26957E+04 -1.30596E+04  1.74629E+03 -1.22095E+04 -1.28923E+04
 -5.42293E+03 -1.48644E+04  6.09164E+03 -1.33741E+04  1.06826E+04  2.93863E+03  3.85065E+03  2.10104E+03
 -1.57125E+03  2.19732E+03 -7.35189E+03 -6.77131E+03 -4.82053E+03 -1.29503E+04  1.11031E+04 -1.52013E+04
  1.30382E+04 -3.96438E+03  1.49575E+04 -7.48391E+02  1.62114E+04  1.14776E+04  4.64719E+03  2.15052E+04
 -5.78574E+03  2.27370E+04 -1.34679E+04  1.21369E+04 -1.57914E+04  2.82893E+03 -1.08662E+04  1.26646E+03
 -5.78518E+03 -6.68305E+03 -2.04248E+03 -8.54241E+02 -4.75821E+03  5.67779E+03 -1.63642E+03  4.79838E+03
 -7.37567E+03  1.31184E+03 -1.25637E+04 -5.29178E+03  3.94834E+01 -1.50308E+04  4.57287E+03 -9.76951E+03
  8.31533E+03 -6.39546E+03  6.58555E+03  4.94460E+03  1.90129E+03  2.77482E+03 -3.44780E+03 -5.09114E+02
 -2.57292E+03 -1.85651E+03 -7.28498E+01 -1.54750E+04  6.16952E+03 -8.25335E+03  1.39525E+04 -3.48553E+03
  1.58424E+04  3.38247E+03  1.63446E+04  7.45853E+03  2.53770E+03  1.02152E+04 -7.34679E+03  1.01784E+04
 -6.48807E+03  2.97324E+03 -5.81157E+03  9.57673E+02  1.85113E+03 -1.19787E+03  5.15381E+03 -5.53888E+03
  5.91050E+03  5.27105E+03  1.40202E+03  1.06675E+04 -7.46102E+02  7.47270E+03 -6.52996E+03  1.24057E+03
 -4.99375E+03 -6.04146E+03  9.68611E+02 -8.47857E+03  4.06755E+03 -3.87628E+03  5.81544E+03  9.80907E+02
  3.64228E+03  7.75791E+03 -5.99688E+03  6.77907E+03 -8.13021E+03  4.65459E+03 -7.27399E+03 -2.55651E+03
 -6.36767E+02 -1.07799E+04  8.28703E+03 -1.42352E+04  1.19920E+04 -7.31716E+03  5.17548E+03  2.67954E+03
  1.89356E+03  5.37597E+03  5.84732E+02  1.30855E+04 -7.44305E+03  7.69564E+03 -8.12058E+03 -3.16309E+03
 -6.39409E+03 -9.65116E+03 -3.98975E+03 -1.08971E+04  5.83582E+03 -2.67631E+03  4.01205E+03 -9.37042E+02
  2.22995E+03 -2.73396E+03  3.62125E+03  3.34756E+02  2.89889E+03 -4.65315E+03  5.09533E+03 -5.57358E+03
  5.13362E+03 -3.59964E+03  9.22897E+03  2.69170E+03  1.40357E+04  5.85733E+03  7.78983E+03  1.25278E+04
 -8.01823E+03  1.55851E+04 -9.18020E+03  8.78443E+03 -1.30654E+04  1.49074E+03 -1.36810E+04 -6.91503E+03
 -2.73013E+03 -9.75478E+03 -3.73396E+03 -4.35891E+03  4.97635E+03 -3.99787E+03  2.57412E+03 -6.77605E+03
  3.18875E+03 -1.64004E+03  4.62791E+03 -1.17661E+03  2.76350E+03 -2.73634E+03  1.03242E+04 -2.76478E+03
  6.45069E+03  5.88102E+02  5.53126E+02  4.69634E+03 -4.23109E+03  8.87209E+03 -2.05177E+03  4.98314E+03
 -6.41094E+03  1.97622E+02 -4.24249E+03 -2.89572E+02  3.66039E+03 -1.25826E+04  7.11531E+03 -6.57842E+03
  1.16201E+04 -4.75140E+03  9.57022E+03 -2.97729E+03  1.02903E+04  4.10279E+03  3.87821E+03  5.89822E+03
 -4.18068E+03  8.58696E+03 -2.49402E+03  3.74461E+03 -1.20052E+03  1.11777E+03  1.85374E+03  1.67079E+02
 -2.71612E+03 -6.20283E+02 -1.38253E+03  3.39365E+03 -5.63853E+03  2.52318E+03  8.87514E+02 -1.56191E+01
 -6.72303E+03 -5.82088E+03  3.79331E+03 -8.34013E+03  6.95367E+03 -8.39321E+03  3.84673E+03 -7.22150E+00
  5.22562E+03  6.66860E+02  5.24936E+03  4.96451E+03 -2.55324E+03  1.00323E+04 -5.13787E+03  6.43140E+03
 -6.70156E+03  3.09752E+03 -4.85666E+03 -7.11828E+03 -6.12909E+03 -4.18936E+03 -2.41041E+03 -4.67568E+03
  4.07427E+03 -4.91932E+02 -1.91168E+03  1.90963E+03  2.57743E+03  3.97447E+02 -4.30447E+03  1.85772E+03
 -1.47849E+03 -2.04887E+03 -7.68785E+02  1.39828E+03  1.24826E+03  5.33271E+03 -7.05798E+02  3.55674E+03
 -5.57214E+03  3.30583E+03 -7.75393E+03  7.11410E+03 -3.41315E+03  3.94678E+02 -8.91842E+03 -1.12347E+03
 -9.11854E+03 -7.38098E+03  3.27669E+03 -7.69427E+03  2.64730E+03 -6.20058E+03  1.03865E+03  2.81255E+03
  3.34152E+02  7.44461E+03  1.42386E+03  8.32234E+03 -3.22376E+02  4.43957E+03 -8.03092E+03  8.07433E+02
 -6.60419E+02 -2.86441E+03  1.44545E+03 -4.84038E+03  7.39256E+03 -1.54329E+03  1.68932E+03  1.76560E+03
  6.73197E+03  3.08127E+03 -2.62637E+03 -1.40545E+02 -5.94474E+02  1.95049E+03  8.27731E+03  1.24628E+03
 -2.15214E+03 -8.70558E+03 -2.15998E+03  3.41459E+02  1.42522E+03  5.95702E+03  4.99315E+03  2.22175E+03
 -1.50679E+02  1.38405E+03 -5.84432E+03  1.83947E+03 -2.88962E+03 -2.29629E+03 -4.38937E+03  8.76851E+02
  3.77429E+03 -3.39743E+03  1.92371E+03 -2.10719E+03  3.00225E+03  3.56080E+03  3.11472E+03  8.92600E+02
 -3.43586E+03  1.38040E+03 -8.40513E+03 -3.87987E+03 -1.02264E+03 -4.09540E+03  9.23208E+02 -4.99235E+03
  3.99868E+03 -1.59476E+03 -2.84366E+03  1.51125E+02 -4.21167E+02 -1.31249E+03 -1.86202E+03  3.66640E+03
 -9.36679E+02 -2.21703E+03  1.50403E+03 -2.28818E+03  1.33882E+03 -1.64582E+03  2.02919E+03 -1.36084E+03
  1.63068E+03  5.79129E+03  1.07541E+04 -4.04876E+03 -6.45472E+02  4.11017E+03  1.27519E+03 -4.81686E+02
 -7.76274E+03  2.43417E+03 -3.25508E+03 -3.52898E+03 -3.66295E+03 -5.70201E+03  1.70307E+03 -7.70985E+03
 -8.44728E+02  6.67604E+03  3.06409E+03 -2.17508E+03  1.12688E+03 -8.06150E+02 -2.05708E+03  1.36977E+03
 -3.59275E+03  6.42968E+03  2.97542E+03 -4.32210E+03  5.35752E+02 -3.45725E+03 -1.20493E+03 -6.81512E+02
 -2.08833E+03  5.91174E+03 -4.91128E+03  1.28254E+03 -4.16814E+03  2.39868E+02 -4.82655E+03 -5.42867E+03
  3.25116E+03 -7.81737E+03  1.32182E+03 -5.41611E+03  1.94782E+03 -5.74699E+03  6.28900E+03 -2.99393E+03
  2.10723E+03 -1.13384E+03  5.22628E+03  2.54792E+03  2.93471E+03  3.06372E+03  1.07007E+03  6.65013E+02
 -4.15237E+03  1.69674E+03  1.59523E+01 -2.26969E+03 -2.61939E+03  9.39412E+02 -2.55268E+03 -3.85888E+03
  9.91868E+02 -3.20540E+03 -4.02753E+03 -2.55995E+03  4.44134E+02 -1.59746E+03  4.56437E+03 -4.73685E+03
  1.70673E+03  9.94869E+02  5.77632E+02  2.97423E+03  3.31151E+03 -4.17293E+03  3.79675E+03  6.92687E+03
 -2.39805E+03  3.43612E+03  1.49234E+03 -6.68676E+02 -4.52867E+03  1.37995E+03 -7.25808E+03 -5.01591E+03
 -1.14864E+03 -1.68296E+03 -1.38024E+03 -2.85994E+02  1.82981E+03 -8.10075E+03 -1.12268E+03 -5.56002E+01
  1.14491E+03 -1.34285E+03  4.20226E+03  4.75242E+02 -5.97297E+02  1.34435E+03  2.56115E+03 -1.29586E+03
  5.52612E+03 -3.42749E+03  2.24162E+03  3.64091E+03 -1.24804E+03 -3.25954E+03  3.62652E+03  3.73021E+03
 -3.92258E+03 -2.77257E+03 -2.61622E+03 -8.04977E+02 -3.73459E+02 -3.35924E+03  9.07304E+02 -1.42294E+03
  2.97012E+03  1.91065E+03  2.11946E+03 -2.85683E+03  9.34837E+02  4.22710E+03  4.64959E+03 -1.33621E+03
  4.69646E+03 -1.90077E+03 -1.53770E+03  1.20176E+03 -4.31496E+03 -1.70387E+02 -2.35211E+03 -1.74303E+03
 -2.93874E+03 -4.17333E+02 -4.42170E+02 -7.43364E+02  5.32341E+03  1.42089E+03 -1.53581E+03  6.21192E+03
 -2.24738E+03 -7.39439E+02  3.06886E+03 -3.83064E+02  3.78697E+03 -3.85594E+03  8.11284E+03 -4.39893E+03
  3.76047E+02  3.38290E+03 -2.33597E+03  1.22568E+02 -1.43749E+03  2.53994E+03 -1.57686E+03  5.91746E+03
