 $NMID ID='MM_0lb_SNR50_10hz_g60_21.RAW', FMTDAT='(8E13.5)'
 TRAMP=1., VOLUME=1. $END
  3.03561E+05  3.36232E+03  3.39549E+05  2.54627E+05  8.34740E+04  3.36497E+05 -1.28774E+05  2.47970E+05
 -1.90580E+05  8.52937E+04 -1.11200E+05 -3.62459E+04 -4.20539E+02 -4.87554E+04  4.83854E+04 -5.23962E+03
  3.56996E+04  5.14944E+04 -1.72839E+04  8.07853E+04 -6.57101E+04  6.71036E+04 -8.29349E+04  3.10205E+04
 -8.19583E+04 -1.21199E+04 -6.07052E+04 -5.29486E+04 -1.35621E+04 -6.81748E+04  2.27028E+04 -4.84554E+04
  4.35280E+04  3.64158E+03  1.13301E+04  5.17491E+04 -3.02208E+04  4.71229E+04 -6.29673E+04 -1.28304E+03
 -5.27116E+04 -6.16628E+04 -1.09190E+04 -7.75142E+04  2.95420E+04 -6.36658E+04  5.23656E+04 -2.29311E+04
  4.78686E+04  1.32150E+04  3.38409E+04  2.32126E+04  1.42869E+04  2.72310E+04 -7.70961E+03  2.92408E+04
 -2.13266E+04  3.97152E+03 -1.47048E+04 -8.70104E+03  8.71794E+03 -1.58374E+03  2.42297E+04  1.19296E+04
  3.86487E+03  3.99785E+04 -3.61091E+04  3.27966E+04 -6.38119E+04 -5.04846E+02 -5.55043E+04 -4.21384E+04
 -1.77965E+04 -7.03003E+04  4.08055E+04 -3.97306E+04  6.23818E+04  9.36156E+02  3.46692E+04  3.53392E+04
 -5.77952E+03  3.70145E+04 -3.70125E+04  1.75542E+04 -2.91587E+04 -3.15390E+03 -1.87758E+04 -1.99578E+04
 -1.02793E+04 -1.67037E+04  2.09273E+03 -1.91893E+04  1.10533E+04 -3.05943E+04  2.00452E+04 -1.94766E+04
  1.13917E+04  5.91807E+03 -1.21896E+04  9.22392E+03 -2.90837E+04 -1.16298E+04 -1.04975E+04 -3.70836E+04
  2.66217E+04 -4.69713E+04  4.80945E+04 -2.16474E+04  5.39732E+04  1.58693E+04  1.71620E+04  4.84737E+04
 -1.36521E+04  3.38822E+04 -3.04525E+04  5.08512E+03 -1.00981E+04 -3.15935E+04  1.97282E+04 -3.68350E+04
  4.23279E+04 -1.23441E+04  4.39312E+04  1.97798E+04  2.34132E+04  5.20489E+04 -1.27493E+04  5.73828E+04
 -3.18804E+04  3.49539E+04 -4.72381E+04  1.64372E+04 -5.02506E+04 -1.70379E+04 -2.46220E+04 -4.07454E+04
  1.26169E+04 -4.64086E+04  3.25099E+04 -2.11349E+04  3.18112E+04  1.28390E+04  4.59893E+03  2.04064E+04
 -1.12045E+04  2.57014E+03 -7.41953E+03 -3.47435E+03  6.75708E+03 -1.42051E+04  2.06753E+04  5.36170E+03
  1.28867E+04  2.41546E+04 -3.68271E+03  2.47978E+04 -2.80757E+04  1.47466E+04 -3.13447E+04 -2.40818E+03
 -2.27649E+04 -1.62964E+04 -1.21303E+04 -2.44339E+04  1.22476E+04 -3.34199E+04  2.01819E+04 -2.83578E+04
  3.16031E+04 -1.38475E+04  3.82589E+04  8.50362E+02  2.10685E+04  3.00654E+04  5.55461E+03  4.42541E+04
 -1.70309E+04  3.39568E+04 -3.38882E+04  1.79187E+04 -1.91696E+04 -1.01494E+04 -8.96518E+03 -1.35367E+04
 -1.51463E+03 -1.74846E+02 -7.60269E+03  1.10086E+04 -2.13831E+04  1.30744E+04 -1.55737E+04 -1.30269E+04
 -7.12911E+03 -1.99095E+04  6.54808E+03 -2.52580E+04  1.39573E+04 -9.53058E+03  2.04912E+04  5.93658E+01
  9.72866E+03  1.04054E+04 -6.49686E+03  2.47615E+04 -2.16432E+04  8.26962E+03 -1.74251E+04 -3.67088E+03
 -1.80401E+04 -2.26399E+04 -3.28830E+03 -2.08262E+04  1.01909E+04 -2.88666E+04  2.19011E+04 -5.83559E+03
  1.92340E+04  5.50270E+03  1.29306E+04  4.54242E+03  1.06162E+04 -2.41539E+03  1.01626E+04 -6.67197E+03
  2.00836E+04  3.89064E+03  2.50298E+04  1.82403E+04  1.87787E+04  3.57320E+04 -2.03790E+03  4.94599E+04
 -2.95881E+04  4.03094E+04 -4.29210E+04  1.19418E+04 -4.98085E+04 -1.01166E+04 -4.10281E+04 -2.60601E+04
 -8.94656E+03 -3.67456E+04  2.15759E+04 -3.01987E+04  2.86717E+04 -1.49005E+04  2.11566E+04  5.66776E+03
  7.94534E+03  2.02910E+04 -1.37550E+04  1.45750E+04 -1.99059E+04  1.15790E+04 -5.35106E+03 -8.20495E+03
  8.81910E+02 -1.70537E+04  8.44334E+03 -1.96267E+04  9.23245E+03 -5.64694E+03  6.14230E+03  9.78325E+03
 -1.03898E+04 -1.04740E+03 -7.37812E+03 -6.58428E+03 -2.45787E+03 -1.83275E+04  1.13386E+04 -1.94725E+04
  2.17086E+04 -9.43419E+03  2.98105E+04 -9.58376E+02  2.79511E+04  1.45357E+04  8.30207E+03  3.09750E+04
 -3.68066E+03  3.54912E+04 -2.07035E+04  1.70576E+04 -2.28336E+04 -2.55814E+03 -1.37261E+04 -1.08359E+04
 -2.71131E+03 -1.25274E+04  4.29773E+03  1.10777E+03 -7.85410E+03 -3.16768E+03 -6.68448E+03 -1.32761E+03
 -1.09410E+04 -3.51125E+02 -1.10062E+04 -9.95046E+03 -4.40135E+03 -2.04387E+04  8.23980E+03 -2.01795E+04
  1.24219E+04 -4.05936E+03  5.87473E+03  5.22128E+03 -2.77979E+03  5.29354E+03 -8.18504E+03  8.03899E+02
 -7.87761E+03 -7.78257E+03  2.30473E+03 -1.29796E+04  1.35669E+04 -1.99953E+04  2.29992E+04 -1.05482E+04
  2.27932E+04  3.42811E+03  1.70581E+04  1.52009E+04  3.52593E+03  1.39660E+04 -1.69068E+04  1.31735E+04
 -1.09193E+04 -1.03794E+03 -8.80483E+03 -1.01650E+04 -2.63954E+03 -4.13341E+03  4.41111E+03 -5.84390E+03
  7.34779E+03  3.05744E+03  5.29882E+03  8.43359E+03 -5.49908E+03  1.10185E+04 -1.67189E+04  7.58265E+01
 -1.47055E+04 -1.07549E+04  1.08839E+03 -1.18231E+04  8.16313E+03 -7.10287E+03  5.50346E+03  7.05481E+03
  3.93980E+03  1.09932E+04 -1.26914E+04  9.11300E+03 -1.05733E+04  9.87308E+03 -9.41659E+03 -3.67942E+03
 -1.16436E+03 -1.65992E+04  6.90391E+03 -1.47311E+04  1.97131E+04 -1.06855E+04  1.72856E+04  6.41452E+03
  8.35342E+03  1.10158E+04 -5.72666E+03  1.81871E+04 -1.37547E+04  4.18558E+03 -1.68478E+04 -4.41704E+03
 -8.25761E+03 -1.03658E+04 -6.96998E+03 -1.04018E+04  1.47950E+03 -1.22765E+04  2.42765E+02 -1.16028E+03
  4.54967E+03 -2.71709E+03  2.97252E+03  9.45322E+03 -2.64566E+03 -1.05760E+04  5.64348E+03 -1.87896E+03
  1.28748E+04 -1.59496E+03  1.53707E+04  4.74944E+03  1.07951E+04  1.26916E+04  8.89329E+03  2.13032E+04
  8.29306E+02  1.89727E+04 -1.85278E+04  1.03851E+04 -2.61517E+04  6.41284E+03 -2.06082E+04 -5.81986E+03
 -5.57355E+03 -1.31620E+04  4.11311E+03 -1.26479E+04  2.91785E+03 -8.57612E+03  1.69499E+03 -5.12909E+03
  3.82066E+03 -5.98140E+03  2.49632E+03 -1.73774E+03  5.50483E+03 -6.96628E+03  5.84850E+03  1.82449E+03
  1.04640E+04  7.88134E+03  8.90003E+03  7.57179E+03  3.16461E+03  1.30308E+04 -1.08974E+04  1.24954E+04
 -1.39431E+04  2.15571E+03 -1.03880E+04 -7.62804E+03 -4.42875E+03 -1.31720E+04  1.37823E+04 -1.07869E+04
  2.07313E+04 -1.18885E+04  2.55401E+04  2.91141E+03  2.09896E+04  1.73463E+04  1.65257E+03  1.45851E+04
 -9.16901E+03  1.57576E+04 -1.34293E+04  2.69693E+03 -9.47985E+03 -7.03495E+03 -7.27025E+03 -2.46746E+03
  8.39786E+02 -2.73351E+03 -1.81239E+03  6.85861E+03 -9.09369E+03 -8.88933E+03 -1.02553E+04 -2.05276E+02
 -8.00061E+03 -1.73099E+04 -3.20345E+03 -1.00070E+04  1.08180E+04 -1.09708E+04  1.67583E+04 -1.14775E+03
  1.17736E+04  8.02232E+03  8.72201E+03  1.44932E+04 -3.23136E+03  1.30694E+04 -9.12576E+03  1.53781E+04
 -1.67575E+04  3.21120E+03 -7.78562E+03 -7.79645E+03 -1.00398E+02 -7.24848E+03  5.22720E+03 -1.20134E+04
  7.90817E+03 -3.23885E+03  1.05776E+04 -2.32305E+03 -1.15339E+03  8.54135E+03  1.57925E+03 -5.03409E+03
 -3.92529E+03  1.54849E+01  6.94550E+03  4.72021E+03 -3.74865E+02  6.33584E+03 -3.53261E+03  9.19197E+03
 -1.96274E+03  1.41302E+04 -9.24500E+03  1.62038E+04 -1.58024E+04  1.37330E+03 -1.09301E+04 -6.06294E+03
 -1.10763E+04 -1.23299E+04  1.97608E+02 -2.18349E+04  9.06675E+03 -9.14930E+03  1.49082E+04 -1.58729E+03
  6.06909E+03  4.02625E+03  5.70149E+03  8.65822E+03 -2.80562E+03  6.70160E+03 -7.25659E+03 -3.55520E+03
 -1.41160E+03 -2.69119E+03  5.70904E+03 -6.56272E+03  5.94993E+03 -3.92193E+03  6.67231E+03 -3.08661E+03
  5.55871E+03  4.78203E+03  3.29806E+03  5.25631E+03 -1.30643E+03 -1.12783E+03  4.01700E+03  1.33642E+02
 -1.08363E+03  2.98349E+03  7.54727E+03  2.01431E+03  9.46618E+03  8.26018E+03 -6.45532E+03  9.22288E+03
 -6.99253E+03  7.25464E+03 -9.77137E+03 -7.43544E+02 -1.25822E+04 -4.51638E+02 -2.62321E+03 -9.27782E+03
 -9.11839E+02 -1.49481E+04  1.40235E+03 -1.09951E+04  2.10686E+03  2.46926E+02 -1.17878E+03  6.81578E+03
 -7.70800E+03  3.34838E+03 -9.87690E+03 -3.20631E+03 -3.41945E+03 -3.92566E+03  2.75036E+03 -9.71861E+03
  3.01938E+03 -1.43012E+03  5.30289E+03 -2.28541E+03  1.21330E+04  4.57649E+03  2.61132E+03  2.99366E+03
  1.74457E+03 -5.44540E+03 -7.36308E+03 -3.86967E+03  4.97114E+02 -8.15653E+03  1.15016E+03 -2.40634E+03
  9.20984E+03 -3.73623E+03  1.23460E+04 -1.10390E+03  1.33707E+03  6.47930E+03 -5.52913E+03  2.83273E+03
 -5.38479E+03  2.14237E+03 -6.84491E+03  2.83555E+03 -1.15762E+04 -6.75698E+02  1.46384E+03 -4.09046E+03
  7.26371E+03 -2.35246E+03  5.60604E+03 -2.66600E+03  3.37128E+03  6.68220E+03  7.08995E+02  1.01901E+04
 -4.28544E+03  3.83897E+03 -4.83401E+03  7.73306E+02 -1.09193E+04  4.73425E+03 -3.30148E+03  2.74604E+02
 -9.64704E+02  3.85409E+03 -4.25602E+03  3.50147E+03 -1.05799E+04 -1.33054E+03 -1.22233E+04  1.70248E+02
 -3.39229E+03 -1.49858E+04  4.84939E+03 -1.31537E+04  2.56154E+03 -1.20007E+04  7.44196E+03 -2.97300E+03
  1.04909E+04  7.20446E+03  8.60222E+03  6.54598E+03  2.59363E+03  3.40965E+03 -5.10426E+03  6.84506E+03
 -9.96130E+03  5.01694E+01 -8.19298E+03  3.01827E+03 -3.74930E+03  2.20769E+03  3.99620E+03  6.55901E+03
  6.64894E+03  4.12845E+03 -3.61827E+03  2.82416E+02  4.57853E+03  1.42355E+03 -6.29709E+02  1.67490E+02
  1.76677E+03 -2.72210E+03  6.49446E+03  5.80369E+03  7.46514E+03  6.09025E+03  6.25242E+03  5.33418E+03
 -8.76299E+03  8.75924E+03 -8.69783E+03  3.71514E+03 -6.24766E+03 -7.03454E+02 -1.25147E+04 -9.96706E+03
 -8.54705E+03 -1.75706E+04  3.02281E+03 -6.80783E+03  2.53179E+03 -6.73921E+02  9.31483E+03  8.29926E+03
  6.51721E+03  2.89569E+03  5.52947E+03 -4.74782E+02 -7.07926E+02  7.16711E+03 -2.85471E+03 -3.05405E+02
 -1.52265E+03 -5.80642E+03  5.65893E+03 -1.28069E+02  3.71892E+03  6.77965E+03 -3.03288E+03  4.80085E+03
 -8.68692E+03  7.18986E+03 -8.90275E+03 -1.19777E+02 -2.53471E+03 -9.28009E+03  7.43555E+03 -1.28012E+04
  3.11868E+03 -6.77549E+03  6.13583E+03 -2.01865E+03  5.74514E+03 -6.73745E+02  5.77202E+03  8.37240E+03
 -2.92557E+03  9.62923E+03 -8.53154E+03  2.28514E+03 -7.17982E+03  5.84070E+03 -9.62376E+02 -4.39670E+03
  3.49708E+03 -8.02877E+03  2.99923E+02  2.09530E+03 -7.13565E+03 -4.52427E+03 -4.65841E+03  1.79197E+03
 -8.59536E+03 -7.73366E+03  2.62253E+03 -5.37808E+03 -2.24790E+03 -6.31589E+03  5.92567E+01 -7.04565E+03
  4.76552E+03  7.40794E+03 -4.09421E+03  5.34100E+03 -6.58924E+03  1.27472E+04 -4.39729E+03 -3.54250E+03
