 $NMID ID='MM_0lb_SNR50_15hz_g45_86.RAW', FMTDAT='(8E13.5)'
 TRAMP=1., VOLUME=1. $END
  3.11768E+05  5.69913E+02  3.41865E+05  2.48783E+05  8.57711E+04  3.38611E+05 -1.31727E+05  2.50790E+05
 -1.92948E+05  7.97957E+04 -1.11117E+05 -3.21349E+04  1.87471E+03 -5.45411E+04  5.49529E+04  1.58540E+03
  3.51834E+04  5.56037E+04 -1.81208E+04  7.55545E+04 -6.17419E+04  6.57903E+04 -8.30386E+04  3.62058E+04
 -8.28675E+04 -1.44574E+04 -5.73785E+04 -4.72457E+04 -1.46202E+04 -7.44735E+04  2.69718E+04 -4.94649E+04
  4.22817E+04  3.51615E+02  1.52020E+04  4.79187E+04 -3.75042E+04  4.66146E+04 -6.66036E+04 -6.06227E+03
 -4.90744E+04 -5.94453E+04 -1.13314E+04 -7.52328E+04  2.92717E+04 -5.80333E+04  4.74023E+04 -1.79433E+04
  4.17917E+04  1.10760E+04  3.05806E+04  2.66125E+04  1.34171E+04  2.82851E+04 -2.85312E+03  2.29847E+04
 -2.33102E+04  1.74871E+04 -1.73296E+04 -3.92517E+03  6.26831E+03 -3.00622E+03  2.01046E+04  1.19342E+04
  1.15736E+04  3.46986E+04 -3.09347E+04  3.45668E+04 -6.07627E+04 -1.53944E+03 -5.61427E+04 -3.62359E+04
 -1.48822E+04 -5.94279E+04  4.15778E+04 -4.38248E+04  5.33052E+04 -1.12043E+03  3.67040E+04  3.17164E+04
 -8.28681E+03  3.31280E+04 -2.85856E+04  1.84124E+04 -2.73496E+04 -1.79475E+03 -1.66413E+04 -8.66815E+03
 -8.39002E+03 -1.22730E+04  3.36560E+03 -1.96890E+04  5.37838E+03 -2.12404E+04  1.44908E+04 -1.18496E+04
  5.03848E+03  2.85253E+03 -5.38049E+03  1.51171E+04 -1.98806E+04 -4.45970E+03 -8.46548E+03 -3.27259E+04
  2.08386E+04 -4.33144E+04  4.73329E+04 -2.09521E+04  4.23923E+04  2.09889E+04  1.67116E+04  4.12727E+04
 -1.53719E+04  3.48895E+04 -3.13141E+04 -5.69224E+03 -7.38056E+03 -2.14409E+04  2.35878E+04 -3.54500E+04
  4.14034E+04 -4.36253E+03  3.11959E+04  2.52329E+04  2.14113E+04  4.17685E+04 -6.69918E+03  4.94568E+04
 -2.95302E+04  2.84881E+04 -4.13871E+04  1.19517E+04 -4.08301E+04 -2.11852E+04 -2.39095E+04 -3.72005E+04
  5.67020E+03 -4.12053E+04  3.18811E+04 -1.30125E+04  3.14633E+04  1.23661E+04  4.55729E+03  1.99233E+04
 -2.00830E+04  4.98759E+03 -5.67513E+03 -6.11419E+03  1.12353E+04 -6.29180E+03  1.83140E+04  6.30168E+03
  9.93779E+03  2.28195E+04 -8.04137E+03  2.49239E+04 -2.17569E+04  9.83434E+03 -2.85472E+04 -8.40423E+03
 -1.89264E+04 -1.65967E+04 -9.39889E+03 -2.33029E+04  5.10607E+03 -1.88488E+04  1.83057E+04 -1.49273E+04
  2.67834E+04 -9.98512E+03  3.13706E+04 -1.74031E+03  2.26313E+04  1.94935E+04  4.16304E+03  3.46631E+04
 -1.39194E+04  2.97460E+04 -2.73975E+04  1.25712E+04 -1.97250E+04 -7.34908E+03 -8.63820E+03 -1.25445E+04
  2.47662E+03 -2.03925E+03 -4.56825E+03  4.89406E+03 -1.11850E+04  8.22827E+03 -1.18168E+04 -5.51574E+03
 -6.88438E+03 -1.36383E+04  2.29388E+03 -2.66244E+04  1.46299E+04 -1.40055E+04  1.67231E+04 -3.24802E+02
  1.00018E+04  1.39371E+04 -4.67517E+03  1.84592E+04 -1.25912E+04  7.39319E+03 -1.82522E+04 -6.93932E+03
 -8.14985E+03 -1.71572E+04 -2.11722E+03 -1.84395E+04  1.01949E+04 -2.07227E+04  2.10573E+04 -5.46082E+03
  1.62888E+04 -4.80084E+02  8.61128E+03  5.32704E+03  7.22326E+03 -4.33334E+03  1.21116E+04 -1.20635E+03
  1.39850E+04  1.98438E+03  1.56040E+04  1.34059E+04  1.19835E+04  2.68871E+04 -2.34008E+03  2.65039E+04
 -2.41903E+04  2.54848E+04 -2.87360E+04  1.55913E+04 -3.34586E+04  2.57515E+03 -2.37250E+04 -1.50438E+04
 -1.29088E+04 -2.31360E+04  9.73237E+03 -1.96930E+04  2.63311E+04 -1.00480E+04  1.87046E+04  6.87330E+02
  8.46181E+03  1.47992E+04 -1.33314E+04  9.75437E+03 -1.72425E+04  3.42376E+03 -1.36936E+04 -1.04763E+04
 -5.99051E+02 -1.10559E+04  6.53885E+03 -1.24106E+04  6.97321E+03 -2.44857E+02 -2.47683E+03  6.56182E+03
 -6.49694E+03  5.28293E+03 -2.31667E+03 -5.15185E+03 -1.57770E+02 -1.13548E+04  4.18540E+03 -1.74035E+04
  1.64318E+04 -4.07703E+03  1.64945E+04  1.37645E+03  1.44721E+04  1.63924E+04  6.73278E+03  2.20043E+04
 -5.06259E+03  1.97297E+04 -1.45444E+04  1.09158E+04 -1.13543E+04  6.09552E+02 -1.56958E+04 -4.55685E+03
 -1.04771E+04 -8.65846E+03 -2.40323E+03 -1.57451E+03 -2.96992E+03  5.10150E+03 -9.49948E+02  4.94828E+03
 -1.17326E+04  4.63452E+03 -1.09266E+04 -1.08648E+04 -7.57565E+03 -1.18288E+04  3.38381E+03 -7.04260E+03
  7.19857E+03 -5.10505E+02  9.21505E+03  2.09718E+03 -1.71013E+03  5.17565E+03 -2.13788E+03  1.76219E+03
 -4.62030E+03 -5.25313E+03 -1.43712E+03 -5.76413E+03  3.77662E+02 -9.79176E+03  9.53575E+03 -3.11508E+03
  1.65291E+04  4.44688E+03  1.32104E+04  8.77525E+03  9.29283E+00  1.31892E+04 -4.95127E+03  4.40353E+03
 -8.53012E+03  4.19178E+03 -2.09257E+03  3.81368E+03 -2.49858E+03 -5.22851E+01  6.23215E+03 -4.78990E+03
 -2.38717E+03  6.61132E+03 -7.50792E+00  9.72937E+03 -7.65006E+03  5.04243E+03 -6.23688E+03  3.29742E+03
 -4.78750E+03 -2.81674E+03 -2.45373E+03 -6.71174E+03  5.14581E+03  3.48484E+02  5.22303E+03  4.58556E+03
  1.05440E+03  1.01832E+03 -9.26129E+03  1.34807E+04 -5.36787E+03  1.45633E+03 -9.93502E+03 -1.51720E+03
 -4.85352E+03 -1.17861E+04  1.29545E+03 -9.57613E+03  5.31789E+03 -7.61685E+03  7.54519E+03 -2.15131E+02
  4.98411E+03  1.11509E+04 -2.82543E+02  1.44788E+04 -3.66134E+03  7.85145E+03 -6.69934E+03  4.68490E+02
 -3.12926E+03 -1.03284E+04 -2.70147E+02 -9.76116E+03  4.34345E+03 -5.06928E+03  5.52601E+03 -3.85282E+03
  3.88557E+03  1.31718E+03 -6.80145E+02  1.85122E+03  3.01866E+03  1.92368E+03 -2.03061E+02 -3.32658E+03
  6.10217E+03 -1.38888E+03  1.04828E+04  3.40338E+03  3.59636E+03  3.90396E+03  6.64403E+03  1.03584E+04
 -3.47752E+03  1.11016E+04 -9.80628E+03  1.14103E+04 -1.38316E+04  2.75018E+03 -1.23333E+04 -1.19962E+03
 -6.40040E+03 -8.90759E+03  3.56564E+03 -6.59602E+03  3.79182E+03  1.70393E+03  2.93459E+03  1.84509E+03
  4.64443E+02 -2.18129E+03  3.65899E+03 -2.43473E+03  4.08352E+01  8.81976E+02  3.65869E+03 -4.71181E+03
  4.89638E+03  4.78379E+03  1.49209E+03  8.03712E+03 -5.02981E+03  6.20975E+03 -4.90591E+03  4.79599E+03
 -6.11895E+03 -2.31592E+02  7.02401E+01 -7.82560E+03 -2.55701E+03 -6.25815E+02  4.66673E+03 -7.59663E+03
  3.20330E+03 -7.81966E+03  9.48942E+03  9.35640E+02  1.06039E+04  7.82177E+03  1.96596E+03  8.58588E+03
 -8.20292E+03  1.43708E+04 -1.32505E+04  4.24685E+03 -3.00800E+03 -2.35062E+03  7.96547E+02 -1.32214E+03
  9.65340E+02  3.06822E+03 -1.11058E+03  3.17126E+03 -7.31753E+03 -1.44935E+03 -9.66764E+03 -3.34355E+03
  5.97017E+02 -9.45803E+03 -3.24625E+02 -5.07322E+03  8.61655E+03 -5.43461E+03  4.34039E+03  2.32324E+03
  5.61516E+03  1.20205E+03  3.82542E+03  6.47688E+03  1.15050E+03  5.39801E+03 -2.75938E+03  1.69348E+03
 -7.51183E+03  4.19489E+03 -3.11474E+03 -3.30401E+03  1.16382E+03 -6.89144E+03  2.85994E+03 -3.25034E+03
  3.88892E+03 -5.16360E+03  4.56847E+03  8.49566E+02  4.66015E+03  5.89119E+03 -7.58487E+02  2.79539E+03
 -4.68909E+03  1.19720E+03  1.37131E+03  8.30733E+02  1.64960E+03  3.04444E+03 -2.07448E+03  1.05961E+03
 -1.17209E+03  8.75192E+03 -6.38501E+03  8.87769E+03 -3.46217E+03  5.45261E+02 -6.52255E+03 -1.87094E+02
 -3.81088E+02 -9.40386E+03 -2.49130E+02 -9.81240E+03  6.54371E+03 -1.03750E+04  5.10758E+03 -7.23196E+01
 -4.52077E+02  4.44226E+03  3.64180E+03 -8.70440E+02  1.34660E+02  4.19135E+03 -1.04656E+03 -9.01736E+02
 -6.80428E+03 -3.67261E+03  4.65441E+03 -2.39838E+03  3.91361E+03 -2.14347E+03  4.85722E+01  2.75062E+03
  1.42655E+03  2.03224E+03  3.93959E+03 -3.49625E+03  1.15638E+03 -4.74190E+02  1.10340E+03  1.44975E+03
 -1.82038E+03 -1.89586E+03  5.44053E+03 -3.77275E+03  2.45817E+03  5.07103E+03 -3.26339E+03  4.60928E+03
 -1.58701E+03  2.28556E+03 -7.08259E+02 -6.18342E+02 -5.04989E+03  3.96832E+03 -8.96211E+02 -2.91974E+03
  4.62633E+03 -3.69518E+02 -5.60402E+03  3.98307E+03  2.89939E+03 -1.94510E+03 -3.84580E+03 -1.49643E+03
  1.41962E+03  3.94357E+03 -3.96889E+03  7.86579E+02  5.05731E+01 -5.20023E+03  3.40247E+03 -5.10826E+03
  5.24947E+03  1.25003E+03  5.31135E+03 -5.41725E+03  3.06302E+03  6.49641E+03 -3.65121E+03  9.93901E+02
  1.78473E+03  2.16435E+02 -7.84703E+02  1.53002E+03 -4.88766E+02 -2.65470E+03 -2.50864E+03 -2.86845E+03
  3.80936E+02 -9.72151E+02  3.07871E+03  4.73835E+03 -1.05972E+03  1.44955E+03 -1.25079E+03  3.21745E+03
 -7.06229E+03 -7.22107E+03 -1.32085E+03 -2.80387E+03 -5.73294E+03  8.94627E+02 -7.11293E+02 -1.46058E+03
  7.16702E+03 -2.76913E+03 -2.03840E+03 -9.32617E+02 -4.13478E+03 -3.70642E+03 -1.79278E+02  2.79147E+03
 -2.36924E+03 -3.02847E+02  1.72364E+03  2.88819E+03  2.36215E+03 -1.15668E+03  1.08698E+03 -3.19946E+03
 -2.14167E+03  2.56153E+03 -2.67611E+03  1.24688E+03 -9.27176E+03 -8.75164E+02 -2.25826E+03 -1.27098E+03
 -8.36818E+03 -2.34718E+03  1.50851E+03 -4.19812E+03  4.07743E+03 -7.10746E+03  2.03231E+03 -3.98660E+00
  1.58231E+03  4.32095E+03  3.91633E+03  2.70823E+03  1.08761E+03  5.31672E+03 -6.38814E+01  3.25236E+03
 -2.83952E+03 -1.62986E+03 -1.11660E+03 -1.20876E+03  2.41972E+02 -1.52729E+02  3.12941E+02  1.05730E+03
  4.43433E+02  2.68499E+02 -3.35362E+03 -2.24123E+02 -1.25421E+03  4.32800E+03  1.94042E+02 -1.57067E+02
  3.10097E+03 -7.20754E+03 -9.73091E+02  7.88774E+01  3.54809E+03 -1.73778E+03  1.61247E+03  3.86633E+03
 -1.29876E+03  3.11444E+03 -5.35731E+03  3.22693E+03 -5.60606E+03  2.21693E+03 -7.06346E+03 -9.86396E+02
 -7.59451E+02 -4.62567E+03  1.78832E+03  2.78560E+03  3.87296E+03  4.76131E+03  6.06762E+03  3.87996E+03
  7.94372E+02  1.19490E+03 -3.75526E+02  1.64598E+03  1.56085E+03 -6.31557E+02  1.97673E+03  2.07995E+03
  1.06903E+03 -4.22603E+03 -4.53218E+03 -2.48495E+03  6.16527E+02  2.04601E+03 -2.03679E+03  2.92840E+03
 -1.31894E+03 -2.41827E+03  3.39691E+03 -2.22260E+03  1.15357E+03 -5.05345E+03 -5.01169E+02 -2.98039E+03
  5.56488E+03 -1.14190E+03  1.12286E+03  1.08961E+03  1.07470E+03  1.15125E+03 -2.23420E+03  2.94849E+03
  5.22651E+01  3.94789E+03 -2.59820E+03  2.24957E+03  3.06427E+03 -2.55746E+03 -2.15963E+03 -4.75303E+03
  4.06768E+03 -1.13784E+03 -1.44839E+03 -1.86944E+03 -1.13009E+03  3.45884E+03 -3.55447E+03  2.57628E+03
 -4.82356E+03  8.35890E+02 -1.05441E+03 -2.75886E+03  1.21463E+03 -4.90441E+03  1.80968E+03  4.38025E+02
  2.05147E+03 -5.25609E+01 -5.82621E+03 -4.03110E+03  1.48838E+03  2.06513E+03  2.90939E+03 -1.99127E+02
