 $NMID ID='MM_0lb_SNR50_11hz_g40_35.RAW', FMTDAT='(8E13.5)'
 TRAMP=1., VOLUME=1. $END
  3.07415E+05 -2.52905E+03  3.35076E+05  2.47262E+05  8.28551E+04  3.43052E+05 -1.31513E+05  2.43801E+05
 -1.89533E+05  8.48535E+04 -1.10738E+05 -3.12187E+04 -1.88654E+03 -5.69748E+04  5.05798E+04  4.26608E+03
  3.58011E+04  4.70838E+04 -1.65271E+04  8.03652E+04 -6.39798E+04  6.22482E+04 -8.47872E+04  2.66398E+04
 -8.33622E+04 -9.97451E+03 -5.43993E+04 -5.14085E+04 -1.11468E+04 -7.04099E+04  3.05010E+04 -4.53523E+04
  4.45942E+04  5.97567E+03  1.81291E+04  4.79232E+04 -3.88890E+04  4.49408E+04 -7.10925E+04  7.29255E+02
 -5.06940E+04 -5.63848E+04 -1.06986E+04 -7.45885E+04  3.54520E+04 -5.24529E+04  5.29081E+04 -1.47289E+04
  4.05350E+04  1.06770E+04  2.84219E+04  2.39946E+04  1.66341E+04  2.91573E+04 -3.21940E+03  3.19248E+04
 -2.49975E+04  1.29088E+04 -1.82647E+04 -6.47780E+03  7.62813E+03 -3.83064E+03  1.87572E+04  1.24462E+04
  1.26171E+04  3.55653E+04 -2.95433E+04  3.92975E+04 -6.28432E+04  3.46803E+03 -5.86760E+04 -4.03729E+04
 -1.50670E+04 -6.16677E+04  3.80959E+04 -4.42852E+04  6.50566E+04  7.74171E+02  3.29352E+04  3.36267E+04
 -1.88162E+03  3.81388E+04 -2.95839E+04  1.38031E+04 -2.90286E+04 -2.87534E+03 -1.66686E+04 -1.32756E+04
 -6.80347E+03 -1.34329E+04  2.79103E+03 -2.00253E+04  7.77909E+03 -2.91560E+04  1.38099E+04 -1.66504E+04
  1.15548E+04  5.96545E+03 -8.22823E+03  1.47748E+04 -2.05374E+04 -4.41737E+03 -1.07313E+04 -3.06264E+04
  2.62963E+04 -4.22165E+04  4.75322E+04 -1.84127E+04  4.22579E+04  2.11347E+04  1.97941E+04  4.61448E+04
 -1.37380E+04  3.30035E+04 -2.91544E+04  2.19230E+03 -8.42445E+03 -2.79403E+04  2.70728E+04 -3.31995E+04
  4.71116E+04 -9.97367E+03  3.32734E+04  2.77986E+04  1.84546E+04  5.15404E+04 -2.91928E+03  5.13881E+04
 -3.07740E+04  3.65406E+04 -4.45515E+04 -6.96802E+02 -3.99964E+04 -2.18884E+04 -2.21252E+04 -3.73674E+04
  4.07208E+03 -4.01626E+04  3.97468E+04 -1.83561E+04  3.00425E+04  1.33894E+04  8.01504E+03  1.93731E+04
 -1.44249E+04  9.03538E+03 -6.19361E+03 -5.52500E+03  3.27075E+03 -1.19696E+04  2.28134E+04  2.39038E+03
  1.55226E+04  2.52859E+04 -5.83606E+03  2.71827E+04 -2.46007E+04  1.16648E+04 -3.03829E+04 -4.53240E+03
 -2.05405E+04 -1.83557E+04 -8.41667E+03 -1.51952E+04  3.47837E+03 -1.82488E+04  1.96336E+04 -1.84444E+04
  2.76657E+04 -1.07865E+04  3.29918E+04  4.25077E+03  2.41235E+04  2.18745E+04  2.61785E+03  4.26112E+04
 -2.15352E+04  3.47874E+04 -2.98230E+04  1.52603E+04 -1.67301E+04 -1.19724E+04 -1.13782E+04 -1.34502E+04
  1.86472E+03 -4.07557E+03 -3.28340E+03  5.20165E+03 -1.84097E+04  6.25085E+03 -1.17859E+04 -1.00182E+04
 -5.83027E+03 -2.62504E+04  3.71979E+03 -2.43658E+04  2.39860E+04 -1.80444E+04  1.70646E+04 -5.09935E+03
  7.25468E+03  1.01544E+04 -4.26960E+03  1.53493E+04 -1.16245E+04  8.58260E+03 -2.37575E+04 -7.01870E+03
 -1.51880E+04 -1.46718E+04 -4.25233E+03 -2.64631E+04  1.25475E+04 -1.57471E+04  1.49553E+04 -9.50878E+03
  1.76984E+04 -1.77161E+02  1.33137E+04  5.95839E+03  5.38706E+03 -2.62534E+03  8.50459E+03 -2.04684E+03
  1.92045E+04  8.56753E+03  1.31290E+04  1.60596E+04  1.44251E+04  3.29927E+04  2.34647E+02  4.11847E+04
 -2.07584E+04  3.31871E+04 -3.39872E+04  1.39933E+04 -3.58278E+04 -5.64184E+03 -2.88437E+04 -2.06223E+04
 -1.57129E+04 -2.85562E+04  7.07102E+03 -2.86462E+04  2.62644E+04 -1.23498E+04  1.88495E+04  1.28605E+04
  3.77064E+03  1.40411E+04 -9.92155E+03  1.05600E+04 -1.50096E+04  2.26719E+03 -6.09872E+03 -1.34201E+04
  3.08526E+03 -9.01240E+03  9.93664E+03 -1.55940E+04  9.54483E+03 -3.35592E+03  3.41865E+03  9.36277E+03
 -9.81146E+03  1.91975E+03 -5.04375E+03 -8.50190E+03 -5.64225E+03 -1.24087E+04  8.39106E+03 -1.29180E+04
  2.29519E+04 -8.24105E+03  1.87484E+04  1.92095E+03  1.36751E+04  1.73048E+04  1.20752E+04  2.69318E+04
 -3.61835E+03  2.59517E+04 -1.89976E+04  1.74014E+04 -1.85926E+04  6.74740E+03 -1.59602E+04  1.59806E+03
 -5.20684E+03 -4.88020E+03  2.22072E+03  1.10014E+03 -4.64052E+03 -1.75575E+03  3.92936E+02  1.89680E+03
 -1.20566E+04  5.71246E+02 -8.34010E+03 -5.65230E+03 -4.46197E+03 -1.29493E+04 -1.08160E+03 -1.71792E+04
  1.19001E+04 -2.65178E+03  6.80631E+03  5.97148E+03 -3.01163E+03  1.69017E+03 -1.34592E+03 -7.78178E+02
 -8.16209E+03 -4.24426E+03 -4.34911E+03 -1.16724E+04  1.10646E+04 -1.85856E+04  2.11822E+04 -1.34839E+04
  1.96333E+04 -2.66720E+03  1.81536E+04  1.07717E+04  1.13178E+01  1.29310E+04 -9.61718E+03  9.44782E+03
 -1.22226E+04 -5.75785E+02 -3.43094E+03 -3.76534E+03 -6.91326E+02 -6.02786E+03  6.05086E+03 -1.00327E+03
  2.47210E+03  3.75842E+03 -1.55960E+03  1.17747E+04 -6.84898E+03  5.05941E+03 -1.46001E+04  3.19731E+03
 -1.49671E+04 -4.94087E+02  1.42435E+03 -8.42102E+03  6.90237E+03 -7.36103E+03  4.36135E+03  8.74107E+02
  9.22104E+03  1.06984E+04 -6.19071E+03  2.44808E+03 -1.50375E+04  3.08090E+03 -7.62293E+03 -4.96851E+03
 -9.71753E+03 -8.05594E+03  7.69874E+03 -7.85750E+03  1.17760E+04 -8.68242E+03  1.19893E+04  2.39615E+03
  1.27381E+04  1.04899E+04  1.31980E+02  1.39387E+04 -1.63079E+04  5.74251E+03 -7.04469E+03 -1.77365E+03
 -1.18519E+04 -1.10907E+04 -1.11147E+03 -8.05353E+03  7.96907E+02 -7.08593E+03  4.85433E+03 -4.42345E+03
  2.81089E+03  1.25065E+03 -4.50919E+03  7.79384E+02 -7.31577E+03 -2.65596E+03 -2.14068E+03 -8.62300E+03
  8.21057E+03 -2.29083E+03  1.53910E+04  3.68528E+02  1.40823E+04  9.81580E+03  9.57491E+03  1.79795E+04
 -1.30601E+02  2.13466E+04 -1.89540E+04  1.85316E+04 -1.56621E+04  4.21082E+03 -1.32457E+04 -2.64539E+03
 -6.79791E+03 -1.54844E+04 -1.33889E+03 -1.13599E+04  2.65681E+03 -2.01528E+03  1.05651E+03 -6.28950E+03
 -1.85892E+03 -3.40378E+03  8.15166E+03 -5.38692E+03  3.16274E+03 -3.03807E+03  4.83986E+03 -2.84915E+03
  8.20051E+03  1.05912E+03 -1.03768E+03  5.63032E+03 -2.27739E+03  9.11466E+03 -9.19452E+03  9.02228E+03
 -6.45483E+03 -5.54608E+03 -6.85694E+03 -9.74284E+03 -1.28596E+03 -7.41684E+03  8.22144E+03 -1.48207E+04
  1.41650E+04 -1.12410E+04  1.31306E+04 -6.74205E+03  1.22516E+04  1.16763E+04 -4.61858E+03  1.57972E+04
 -3.61577E+03  7.61860E+03 -1.21746E+04  3.35947E+03  2.46959E+03 -1.33697E+03 -3.10760E+03  1.37510E+02
  1.24772E+03  1.81095E+03  5.96976E+02  5.29652E+03 -4.53139E+03  7.03169E+03 -9.92896E+03 -3.73022E+03
 -6.17050E+03 -9.17783E+03  2.45802E+02 -1.26748E+04  6.68711E+03 -1.30574E+04  8.00925E+03 -4.55172E+03
  1.53996E+04  3.57322E+03  8.99378E+03  1.03294E+04  1.38956E+03  7.13504E+03 -1.12119E+04  8.41280E+03
 -7.50238E+03 -4.62116E+03 -2.81140E+03 -4.30133E+03  3.46023E+02 -1.00275E+04  7.94211E+03 -1.06915E+04
  4.04048E+03 -5.52057E+03  2.03102E+03  2.59114E+03  4.11429E+02  7.92733E+03 -3.00882E+03  2.20942E+02
 -1.06808E+02  5.99864E+03  6.27682E+03 -2.84404E+03  4.78904E+03  5.05651E+03  4.81019E+03  7.46508E+03
  2.97483E+03  7.90073E+03 -4.66909E+03  7.61980E+03 -1.05855E+04  2.36868E+03 -1.18642E+04 -8.30652E+03
 -4.99380E+03 -1.03466E+04  5.60148E+03 -1.88030E+04  8.30073E+02 -7.19420E+03  6.98510E+03  9.91907E+02
  9.74076E+03 -5.47056E+02 -1.70251E+03  1.06849E+04  1.53114E+03  9.90014E+03 -1.02418E+03 -3.50663E+03
 -2.91009E+02 -5.76434E+03 -5.29223E+03 -5.54624E+03  3.13526E+03 -1.65199E+03  4.32472E+03  5.63395E+02
  7.56076E+03  6.18581E+02 -2.02654E+03 -1.87659E+03  2.16843E+02  9.71533E+02  6.43147E+03 -2.71375E+03
 -6.87370E+02 -2.28772E+03  4.22460E+01 -1.30450E+03  1.27711E+03  1.32523E+04  3.85355E+03  7.61289E+03
 -2.08489E+03  1.44142E+03 -7.36805E+03  3.13781E+03 -8.16714E+03 -2.12947E+03 -2.07246E+03 -7.16567E+03
  2.21525E+03 -8.78501E+03  4.48161E+03 -6.33824E+03 -3.22368E+02  1.58624E+03 -4.81437E+02  3.20341E+03
 -3.77293E+03  5.27977E+03 -3.51905E+03 -3.42892E+03 -3.18358E+03 -5.72740E+03 -4.66915E+03 -6.75862E+03
  3.79558E+03 -5.79331E+03  2.95893E+03 -3.01571E+03  1.11071E+03 -5.41066E+02 -8.89287E+02  2.96065E+03
 -8.55153E+02  2.70251E+03 -2.85031E+03  9.12176E+02 -1.57713E+03 -6.16249E+03  7.40760E+03 -6.58749E+03
  8.80628E+03 -4.14337E+03  7.41337E+03  8.30325E+02  6.51543E+03  6.12503E+03 -5.28047E+03  2.26934E+03
 -4.98052E+03  4.32986E+03 -6.57007E+03 -4.37602E+03 -3.15340E+03 -6.51417E+03  3.46826E+03 -3.65389E+03
 -7.59117E+02 -1.75532E+03  8.05291E+03 -8.49836E+02 -4.89681E+03  9.73670E+03  5.03804E+02  7.66297E+03
 -1.56467E+03  1.76562E+03 -2.14142E+03  8.37701E+02 -4.49023E+03 -3.25599E+03 -2.53344E+03  5.30536E+03
 -3.81456E+03  6.04276E+03  8.00034E+02  4.67332E+03 -1.23787E+04  1.13252E+03 -9.53296E+03 -7.86201E+03
 -4.85918E+03 -9.03518E+03 -6.65366E+02 -8.73172E+03  2.20463E+03 -6.51940E+03  7.85788E+03 -6.15028E+03
  9.15483E+03  4.86136E+03  1.91295E+03  2.70924E+02  3.36021E+03  7.70623E+03  2.96936E+03  4.26379E+03
 -1.14747E+04 -4.29422E+03 -2.88217E+03  1.17146E+03  7.85911E+02  2.70206E+02  9.60209E+02 -8.10945E+03
 -7.34636E+02 -7.92947E+03 -1.71268E+03  3.58865E+02 -2.35552E+03 -3.82122E+03 -1.07916E+03 -3.70223E+03
  4.00667E+02 -7.42350E+03  3.37530E+03  4.66085E+03 -1.64970E+03  1.52946E+03  2.34114E+02  4.78363E+03
 -5.62162E+02  7.39932E+03 -1.10495E+04  1.99813E+03 -6.82076E+03 -4.84169E+02 -1.13038E+04 -8.54910E+03
 -3.46442E+03 -5.70082E+02  3.33153E+03 -3.57511E+03  3.17134E+03 -3.18685E+03  2.46314E+03 -2.07857E+03
  6.58305E+03  1.83399E+03  7.89730E+02  2.43410E+03 -7.28555E+02  8.11626E+03 -3.33240E+03 -2.42153E+02
  2.19595E+03 -9.54538E+02  3.10047E+03  6.23476E+03  1.95598E+03  1.94820E+02  4.82454E+03  3.83107E+03
 -8.37783E+03  4.31951E+02 -5.46309E+03 -6.30787E+02 -4.10072E+03 -4.80742E+03 -4.66752E+02  1.41191E+03
  3.87672E+03 -6.48411E+03  1.06946E+04  3.40209E+03  6.34062E+03  7.15064E+02 -3.78426E+02  5.57966E+03
  2.12318E+03  2.61051E+03  8.89186E+02  6.19342E+03 -1.21321E+03  7.00758E+03  3.88882E+03 -5.18243E+02
 -6.45908E+03  1.57642E+03  2.82004E+03  1.22969E+03  7.11341E+02 -2.18753E+03  3.11015E+03  2.29609E+03
  3.29854E+02  4.36476E+03  2.11252E+03 -8.24218E+03  3.63482E+03 -4.60309E+03  3.08848E+03 -4.90638E+01
  5.45274E+03  2.45329E+03  3.90879E+03  2.37772E+03  1.42139E+01  5.22679E+03 -2.54049E+02  5.46128E+02
