 $NMID ID='MM_0lb_SNR50_19hz_g50_61.RAW', FMTDAT='(8E13.5)'
 TRAMP=1., VOLUME=1. $END
  3.10057E+05  1.84590E+03  3.35378E+05  2.55128E+05  8.81355E+04  3.36002E+05 -1.33244E+05  2.48573E+05
 -1.90060E+05  8.29823E+04 -1.11395E+05 -3.28366E+04 -8.03935E+02 -4.86726E+04  4.84100E+04  3.87250E+02
  3.55411E+04  5.58435E+04 -1.90231E+04  7.07277E+04 -5.48719E+04  6.63739E+04 -8.20888E+04  3.27695E+04
 -8.01276E+04 -1.11687E+04 -5.53733E+04 -5.57244E+04 -1.84489E+04 -6.90341E+04  2.85185E+04 -4.37481E+04
  3.72610E+04 -1.49986E+03  1.48154E+04  4.99599E+04 -3.62712E+04  4.46549E+04 -6.65739E+04 -3.82919E+02
 -5.57487E+04 -5.37109E+04 -1.25211E+04 -7.94191E+04  3.10514E+04 -5.13185E+04  4.91544E+04 -2.08898E+04
  4.19453E+04  8.55851E+03  3.23210E+04  2.34893E+04  1.75986E+04  2.69259E+04 -3.48257E+03  2.90504E+04
 -2.09618E+04  1.13738E+04 -1.95958E+04 -7.59529E+03  2.90972E+03 -9.00722E+03  2.73003E+04  1.35030E+04
  6.77901E+03  3.77201E+04 -2.53674E+04  3.82228E+04 -6.10247E+04  8.65539E+02 -5.25302E+04 -4.09389E+04
 -1.12664E+04 -6.48401E+04  3.62975E+04 -4.08756E+04  5.75766E+04 -1.50785E+03  3.42272E+04  3.33624E+04
 -7.12729E+03  3.14953E+04 -2.78049E+04  1.31771E+04 -2.71265E+04 -2.74936E+03 -1.84450E+04 -8.42879E+03
 -8.02713E+03 -1.05905E+04 -3.32295E+03 -2.07445E+04  6.43268E+03 -2.46067E+04  1.53337E+04 -1.32670E+04
  1.00685E+04  3.73951E+03 -6.94916E+03  1.27511E+04 -1.68008E+04 -4.46916E+03 -7.61235E+03 -3.12870E+04
  2.21857E+04 -4.29303E+04  4.37177E+04 -1.79239E+04  4.05514E+04  1.75086E+04  1.04689E+04  4.03385E+04
 -2.00463E+04  2.79106E+04 -2.32949E+04 -1.41542E+03 -9.13564E+03 -2.65595E+04  2.04433E+04 -3.06502E+04
  3.40868E+04 -6.84017E+03  3.43626E+04  2.20273E+04  1.30652E+04  4.45926E+04 -9.81476E+03  4.08127E+04
 -3.34691E+04  3.28415E+04 -4.34029E+04  4.98575E+03 -4.01451E+04 -1.70936E+04 -2.12739E+04 -3.37623E+04
  8.68212E+03 -2.91588E+04  2.84787E+04 -1.30182E+04  2.76293E+04  9.39690E+03 -1.21890E+03  1.67723E+04
 -1.21197E+04  8.35986E+03 -7.52966E+03 -1.11699E+04  5.90762E+03 -8.97993E+03  1.73904E+04  6.03189E+03
  1.50110E+04  2.25253E+04 -7.85187E+03  1.97164E+04 -2.11736E+04  8.29720E+03 -2.45879E+04 -7.33337E+03
 -1.73379E+04 -1.72183E+04 -7.78099E+03 -1.90128E+04  1.77872E+03 -1.52154E+04  1.36973E+04 -1.57373E+04
  2.11391E+04 -7.83886E+03  2.09265E+04  1.50454E+03  2.17458E+04  1.31757E+04  4.34426E+03  3.14325E+04
 -1.80977E+04  2.52523E+04 -2.36054E+04  1.01189E+04 -1.90953E+04 -9.87874E+03 -4.23667E+03 -1.72721E+04
  1.42030E+03 -7.76104E+03 -7.85991E+02  8.65703E+03 -1.39193E+04  8.72356E+03 -1.20460E+04 -6.16981E+03
 -9.12707E+03 -1.40432E+04  5.77278E+03 -2.10411E+04  1.20937E+04 -1.64851E+04  1.51286E+04 -1.71511E+03
  5.43712E+03  1.33532E+04 -9.03567E+02  1.38628E+04 -1.07906E+04  8.88182E+03 -1.67031E+04 -6.17309E+03
 -7.59540E+03 -1.57569E+04  1.04598E+03 -2.16478E+04  8.99025E+03 -1.25626E+04  1.50677E+04 -7.60922E+03
  1.12493E+04  1.52027E+02  1.20387E+04  6.95570E+03  2.79113E+03 -6.60091E+03  1.14288E+04 -2.49978E+03
  1.26858E+04  2.04316E+03  1.59667E+04  1.70524E+04  1.05800E+04  2.54111E+04 -2.34265E+03  2.70858E+04
 -1.37352E+04  2.13410E+04 -2.17138E+04  9.37427E+03 -2.66542E+04  2.99036E+03 -2.29371E+04 -1.22764E+04
 -9.23567E+03 -2.03867E+04  4.89472E+03 -1.82564E+04  1.20607E+04 -1.11558E+04  1.56248E+04  4.11128E+03
  6.84473E+03  1.15286E+04 -5.07765E+03  8.26658E+03 -9.82519E+03  2.03659E+03 -1.12666E+04 -1.27759E+04
 -3.72033E+02 -1.59607E+04  5.45185E+03 -7.60817E+03  5.23963E+03 -4.80365E+03  5.21071E+03  3.65169E+03
 -8.11605E+03 -7.10634E+02 -3.68176E+03 -7.63167E+02 -3.84597E+02 -9.90727E+03  9.12262E+03 -1.11532E+04
  1.12773E+04 -5.28811E+03  1.32329E+04 -6.09739E+02  7.24525E+03  1.15573E+04  1.61859E+03  1.13022E+04
 -6.73775E+03  1.33912E+04 -9.82081E+03  4.91123E+03 -1.21681E+04  5.70568E+03 -7.23155E+03 -1.62191E+03
 -2.85301E+03  3.89718E+03  2.40116E+03  2.74989E+03 -3.23537E+03  2.18019E+03 -2.87529E+03  1.38219E+03
 -5.91278E+03  3.20229E+03 -6.46153E+03 -5.87090E+03 -4.34917E+03 -1.09064E+04  2.87815E+03 -9.97509E+03
  1.07820E+04 -2.40702E+02  5.23139E+03  5.09697E+03 -1.67816E+02  4.48572E+03 -3.10589E+02  7.25446E+01
 -8.77405E+02 -6.67477E+03 -3.49112E+03 -2.83817E+03  2.70449E+03 -5.25205E+03  7.69346E+03 -2.79735E+03
  1.00888E+04 -5.77002E+02  7.47824E+03  1.01841E+04  5.99917E+03  8.57681E+03 -8.79704E+03  1.00715E+04
 -8.72167E+03  2.24089E+03 -6.71175E+03 -3.33455E+03 -1.01451E+03 -9.25478E+02  4.22023E+03 -1.86276E+03
  3.39117E+03  1.15353E+03 -1.00199E+03  4.98950E+03 -4.91612E+03  6.14133E+03 -6.67269E+03  5.05116E+02
 -6.71714E+03 -3.77315E+03  1.72689E+03 -1.09048E+04  5.88674E+03 -3.96094E+03  2.17032E+03  8.24979E+02
  5.73734E+02  5.60179E+03 -2.25220E+03  3.52088E+03 -4.87019E+03  2.64655E+03 -5.78951E+03 -2.14309E+03
 -4.50400E+03 -4.58294E+03  4.68348E+02 -1.15559E+04  9.14442E+03 -6.88369E+03  7.48347E+03  7.83426E+01
  5.20474E+03  5.00138E+03  1.07531E+02  3.85903E+03 -6.27382E+03  2.79849E+03 -2.44596E+03 -2.98970E+02
  2.79238E+02 -4.70942E+03 -2.81106E+03 -1.01842E+04  3.17649E+03 -2.45324E+03  5.04603E+03 -6.03325E+03
  6.12156E+03 -2.01713E+03 -1.70467E+02 -2.26288E+03 -1.12504E+03  3.87433E+02 -2.74301E+03 -5.17557E+02
  1.84470E+03 -1.59831E+03  3.70979E+03 -4.84811E+02  5.16653E+03  4.11497E+03  7.11322E+03  5.03496E+03
 -3.99919E+03  9.01667E+03 -7.46105E+03  5.96267E+03 -9.57246E+03  4.34169E+03 -5.63123E+03 -6.24063E+03
 -2.56397E+03 -1.10279E+04 -4.37846E+03 -1.81630E+03 -8.73399E+02 -1.95294E+03  5.96472E+03 -2.65682E+03
  4.57137E+02 -2.94202E+03 -2.09502E+03 -1.35059E+03  3.83793E+03  1.86277E+03  1.10878E+03  2.10517E+03
  6.18005E+03 -2.27481E+03 -1.26880E+03  1.91015E+03 -2.24320E+03  3.84987E+03 -3.99023E+03  2.91224E+03
 -5.54905E+03  7.28644E+02 -1.00993E+03 -4.53342E+03 -3.19346E+03 -8.40690E+03  5.06456E+03 -3.82405E+03
  6.45611E+03  8.40501E+01  6.13876E+03 -3.70628E+03  4.61428E+03 -3.29852E+02 -3.22123E+02  5.66173E+03
 -6.03260E+02  6.64771E+03 -3.59291E+03  1.06354E+03 -2.78580E+03  3.51508E+03 -1.16513E+03  2.90610E+03
 -4.18822E+02  5.28751E+03  2.28930E+03  5.83357E+03 -3.95773E+03  2.42031E+03 -3.81574E+03  1.67309E+03
  2.57218E+03 -6.79237E+03  4.51941E+03 -1.54695E+03  6.92414E+03 -6.73840E+03  3.87997E+03  1.35862E+03
  4.33054E+03  1.04245E+03  1.87898E+03  2.19523E+03 -7.10875E+02 -3.64727E+02 -6.78615E+02  3.95562E+03
 -3.33191E+03  6.62991E+02 -6.20194E+02 -4.58011E+03  3.41569E+03 -3.84751E+03  4.75693E+03  1.41579E+03
  4.47272E+02 -4.80550E+02 -8.37569E+02  3.74180E+02  9.92527E+02 -2.31423E+03  3.49282E+03  1.01250E+03
  2.55973E+03  6.26046E+03 -5.05838E+03 -7.38506E+02  1.42019E+03  4.02389E+03  2.13513E+03  3.31243E+02
 -4.33853E+03  1.20978E+03 -4.38598E+02 -9.05858E+02 -1.62720E+03 -2.44764E+03 -6.04965E+03 -4.81257E+03
 -3.10710E+03 -5.74612E+02  6.45126E+03 -5.07122E+03 -1.43881E+03 -3.48691E+03  3.01936E+03 -2.10720E+03
  4.74933E+03  1.43386E+03  2.74041E+03 -3.15887E+03 -2.78805E+03 -9.92239E+02 -1.86939E+03  4.93052E+02
 -5.83585E+01  1.97426E+03  4.39656E+02 -1.26160E+03 -1.51590E+03  6.48395E+02  1.19760E+03  3.21021E+03
 -1.20561E+03  2.81143E+03 -3.51220E+03 -7.67444E+02 -6.52956E+02  2.76110E+03  8.60349E+03 -1.63124E+03
  4.41150E+01  4.05434E+03 -1.14854E+03  3.10696E+03 -2.21200E+02  2.88712E+03  1.94892E+03  3.19835E+03
 -6.66906E+03  1.55729E+02 -5.55193E+02 -1.98618E+03 -1.03476E+03 -2.75230E+02 -3.77556E+03 -2.77705E+03
 -2.30401E+03 -5.53836E+03 -1.25915E+03 -4.44714E+03  3.98482E+03 -4.69212E+03 -2.66711E+02  2.20421E+03
  9.16272E+02  2.66671E+03 -3.53554E+03 -1.04899E+03  1.62934E+03 -9.49510E+02 -4.80519E+02  1.42026E+03
 -1.89641E+03 -6.61492E+02  6.84369E+02 -1.86792E+03 -1.48561E+02  2.21781E+03 -2.41322E+03  4.00244E+03
  4.82631E+01 -3.06718E+03 -1.34464E+03  7.40337E+02 -3.08150E+03  3.04209E+03  4.05244E+03 -1.30803E+03
  2.07440E+02  3.44455E+03 -1.65313E+03  7.99158E+02 -1.37206E+03  3.66026E+03  3.16654E+02  4.35937E+03
 -6.77641E+03  1.35345E+03 -1.73619E+03  2.01738E+03 -1.14971E+03  2.76180E+03 -1.84264E+03 -4.84478E+03
  2.27402E+03  1.36547E+03  1.84278E+03  1.32050E+03  4.84340E+02 -7.78461E+02  1.81985E+02 -1.31144E+03
 -9.00473E+02  3.18742E+03  1.97306E+03  5.99719E+01  4.13455E+03  3.69083E+03 -6.12933E+03  6.01242E+01
  1.30682E+03 -1.29631E+03 -1.38256E+03  1.13329E+03 -2.31412E+03  2.90446E+03 -3.22408E+01 -2.14837E+03
  1.75017E+03 -3.46248E+03  8.95583E+02 -3.77372E+03  1.47975E+03 -8.42123E+03  5.04050E+03 -1.11405E+03
  9.10145E+02 -7.49655E+02  2.88856E+03 -2.23831E+03 -3.52607E+03 -2.46099E+03 -1.75140E+03  3.07850E+03
 -1.25486E+03  1.86194E+03  1.71602E+03 -1.16159E+02  3.33660E+03 -2.71503E+03 -1.01477E+03  1.62615E+03
 -4.20008E+02 -2.90568E+03  3.27428E+03  2.97830E+03  3.19689E+03 -1.16519E+03  1.37617E+03 -3.59155E+03
  6.86410E+03  1.16651E+03  5.33296E+02  1.76981E+03 -2.15387E+03 -4.99647E+02 -2.72832E+03 -1.38592E+03
 -2.15012E+03  1.22428E+02 -4.22942E+03  3.02982E+02 -1.23380E+03 -3.72329E+03 -1.21346E+03  3.08875E+03
 -2.20708E+03 -1.30273E+03 -3.88056E+02 -3.69569E+03 -9.16653E+02  1.24947E+03 -5.53127E+02 -2.21360E+03
 -2.54926E+03 -2.47698E+03  2.72643E+03 -4.64741E+02 -7.20604E+03 -4.21848E+03 -5.02674E+02  5.88053E+02
  2.42454E+03  1.62093E+03 -8.43583E+02  1.46726E+03 -9.88116E+02  4.30896E+03 -1.12559E+03  4.48954E+03
 -4.21191E+03 -1.28500E+03 -2.14534E+03 -1.89467E+03 -1.35375E+03  2.55928E+03 -2.08174E+03  4.51304E+03
 -2.96639E+03 -7.06586E+02 -1.39961E+03  1.65619E+03  4.37100E+03  8.34818E+02  4.49432E+03 -1.63187E+03
  3.21375E+03 -4.90133E+02 -2.14666E+03 -2.89429E+03 -1.71650E+03 -9.91010E+01 -3.24841E-01  5.68048E+02
 -1.39214E+03 -2.55785E+03 -4.78757E+02  7.95593E+02  1.02540E+03 -2.88233E+03  7.87851E+02 -7.42986E+02
 -1.17258E+03  1.64595E+03  3.35421E+02 -4.72778E+02 -2.04487E+03 -1.02704E+02  1.50994E+03  7.57805E+02
  3.38475E+03  1.51225E+03 -4.11390E+03 -4.30510E+03 -1.89876E+03 -2.10250E+03  7.06125E+02  4.58735E+03
