 $NMID ID='MM_0lb_SNR50_19hz_g45_47.RAW', FMTDAT='(8E13.5)'
 TRAMP=1., VOLUME=1. $END
  3.11245E+05  6.37496E+02  3.37160E+05  2.50779E+05  8.78252E+04  3.37513E+05 -1.31222E+05  2.51545E+05
 -1.90007E+05  8.34288E+04 -1.07200E+05 -3.58479E+04 -2.14434E+03 -5.16828E+04  5.32847E+04 -3.34090E+03
  3.46796E+04  5.20665E+04 -1.85627E+04  7.39688E+04 -6.12542E+04  5.88228E+04 -8.50186E+04  2.95471E+04
 -7.72749E+04 -1.17008E+04 -5.92209E+04 -4.58391E+04 -1.71608E+04 -6.42163E+04  2.71357E+04 -4.76789E+04
  4.12102E+04  6.97206E+03  1.69080E+04  4.77575E+04 -3.71465E+04  5.09073E+04 -6.43371E+04  1.63618E+03
 -5.36926E+04 -5.17667E+04 -7.94327E+03 -7.47518E+04  3.25113E+04 -5.55835E+04  4.56378E+04 -1.45753E+04
  4.57476E+04  1.14586E+04  2.92820E+04  1.89989E+04  1.95912E+04  3.03782E+04 -4.81765E+03  2.62648E+04
 -2.01923E+04  1.57387E+04 -1.81480E+04 -3.11392E+03  9.46231E+03 -8.65626E+03  2.20777E+04  9.64488E+03
  9.24713E+03  2.95822E+04 -3.06931E+04  3.45052E+04 -6.10245E+04  2.83581E+03 -5.28113E+04 -4.32874E+04
 -1.17639E+04 -6.25266E+04  3.73034E+04 -4.23834E+04  5.29466E+04  1.11043E+02  3.03851E+04  3.24815E+04
 -6.49143E+03  3.47501E+04 -2.47044E+04  1.34159E+04 -2.76206E+04 -3.32550E+03 -1.29863E+04 -1.08623E+04
 -6.93075E+03 -1.39481E+04 -2.04658E+02 -1.72253E+04  7.78131E+03 -2.16508E+04  1.51619E+04 -1.53734E+04
  1.21958E+04  5.50879E+03 -9.03594E+03  1.22725E+04 -1.88639E+04 -4.41898E+03 -9.55987E+03 -2.95320E+04
  2.14073E+04 -4.21292E+04  3.97368E+04 -2.29325E+04  3.94494E+04  2.15871E+04  1.15900E+04  4.16128E+04
 -1.43634E+04  3.54272E+04 -2.20303E+04 -2.66939E+03 -9.41269E+03 -2.48486E+04  2.07457E+04 -3.12462E+04
  3.93087E+04 -6.37188E+03  3.00213E+04  2.81538E+04  1.53768E+04  4.43017E+04 -8.63238E+03  4.68078E+04
 -2.84159E+04  2.94711E+04 -3.91417E+04  7.36566E+03 -4.00304E+04 -1.55336E+04 -2.02607E+04 -3.51980E+04
  6.47479E+03 -3.77015E+04  2.53950E+04 -1.32837E+04  2.61086E+04  9.07224E+03  4.36565E+03  1.71785E+04
 -1.39358E+04  9.02871E+03 -7.43944E+03 -5.95708E+03  5.58279E+03 -1.21197E+04  1.56365E+04  3.88409E+03
  1.39340E+04  2.01983E+04 -6.43135E+03  2.38697E+04 -2.06344E+04  1.24403E+04 -2.53524E+04 -5.79827E+03
 -1.58280E+04 -1.53667E+04 -5.67946E+03 -1.64753E+04  5.63406E+03 -1.51714E+04  1.19489E+04 -1.62951E+04
  2.26755E+04 -1.14495E+04  2.45187E+04  7.40942E+03  2.10270E+04  1.17506E+04  8.74045E+03  3.28957E+04
 -1.43291E+04  2.46600E+04 -2.76903E+04  6.47423E+03 -1.62692E+04 -9.02295E+03 -4.43760E+03 -1.46881E+04
  3.37440E+03 -6.21142E+03 -2.39168E+03  7.48237E+03 -1.19597E+04  9.61355E+03 -1.33435E+04 -9.70550E+03
 -8.14641E+03 -1.41089E+04  6.37370E+03 -1.70567E+04  1.52748E+04 -1.29513E+04  1.54189E+04 -1.25276E+03
  5.89746E+03  8.97180E+03 -2.47105E+03  1.48963E+04 -7.79814E+03  5.59807E+03 -1.45985E+04  2.99353E+02
 -1.24359E+04 -1.23881E+04 -5.48710E+03 -1.89469E+04  1.28468E+04 -1.93925E+04  1.66508E+04 -6.46030E+03
  1.82962E+04  2.74817E+02  6.02688E+03  1.45803E+03  8.39654E+02  2.20521E+03  9.01557E+03  1.11287E+03
  1.33091E+04  6.27179E+03  1.39453E+04  1.29063E+04  7.63918E+03  2.68491E+04 -1.26698E+03  2.86231E+04
 -1.66940E+04  2.10709E+04 -2.41589E+04  9.27143E+03 -2.14800E+04 -1.06953E+03 -1.73815E+04 -1.38007E+04
 -1.29348E+04 -1.86855E+04  4.96028E+03 -2.10304E+04  1.70285E+04 -1.11909E+04  1.43403E+04  6.52781E+02
  5.49084E+03  7.46298E+03 -9.15002E+03  6.81967E+03 -9.21122E+03  6.71685E+03 -7.92834E+03 -5.36746E+03
  1.97537E+03 -1.19990E+04  2.58541E+03 -9.38999E+03  1.13297E+04 -2.90689E+03 -1.99397E+02  4.15083E+03
 -3.23504E+03 -1.24935E+03 -4.35799E+03 -5.54297E+03  4.09620E+02 -8.28866E+03  8.26821E+03 -8.30607E+03
  1.05752E+04 -5.99834E+03  9.29530E+03  4.80666E+02  7.98383E+03  7.74996E+03  3.65665E+03  9.98533E+03
 -1.16184E+03  1.20671E+04 -8.63690E+03  7.71370E+03 -1.53438E+04  4.75720E+03 -9.97913E+03 -3.69330E+03
  2.14992E+03 -3.04209E+03 -2.10060E+03 -7.77778E+02 -6.22593E+02  4.41478E+03 -2.96469E+03  5.18779E+03
 -7.71359E+03  7.44028E+02 -9.78516E+03 -5.60755E+03 -3.99851E+03 -1.32591E+04  4.68263E+03 -5.08224E+03
  6.29277E+03 -6.56500E+03  5.28511E+03  2.32790E+03 -2.08641E+03  4.79882E+03 -4.11577E+03 -4.01717E+02
 -2.20643E+03 -5.37903E+03 -2.28197E+03 -5.06761E+03  3.58961E+03 -7.72119E+03  7.62703E+03  3.09522E+02
  7.70424E+03  3.63214E+02  9.11051E+03  4.93827E+03  4.17010E+02  9.83247E+03 -1.02864E+04  7.89853E+03
 -7.48586E+03  3.80228E+03 -2.31421E+03 -2.05737E+03  2.60856E+03 -4.19295E+03  1.10337E+04 -1.73145E+03
  3.98546E+03 -2.23104E+02  3.25569E+03  4.20778E+02 -1.52728E+03  9.36469E+03 -7.28140E+03  1.37975E+03
 -6.03897E+03 -1.43525E+03  1.29201E+03 -6.98577E+03 -4.73596E+02 -2.92701E+03  1.93354E+03  1.19560E+03
  4.31112E+02 -7.55527E+01 -9.17432E+02  7.07007E+03 -4.23534E+03  3.61421E+03 -4.20743E+03  7.07575E+01
 -1.41689E+03 -6.45819E+03  2.77639E+03 -9.68136E+03  5.15582E+03 -7.75453E+03  8.31091E+03  1.39347E+02
 -1.20196E+03  4.65922E+03  1.09422E+03  3.47006E+03 -1.33640E+03  5.01215E+03 -3.92977E+03  3.09106E+03
 -5.07111E+03 -4.80646E+03  2.50013E+03 -1.69276E+03  1.81081E+03 -4.90097E+03  4.32382E+03 -4.37674E+03
  4.36606E+03  2.40602E+03  1.49209E+03  2.65382E+03  8.78623E+02 -5.26180E+03 -5.73452E+01  1.54731E+02
  2.95046E+03  5.30940E+02  2.39281E+03 -4.89507E+02  5.78539E+03  7.99909E+02  8.80704E+03  4.21625E+03
 -1.84510E+03  8.18579E+03 -2.55883E+03  4.04066E+03 -1.29264E+04  3.55081E+01 -8.87362E+03 -2.20806E+03
 -5.80603E+03 -6.90041E+03 -4.17668E+03 -4.99832E+03 -3.13888E+03  2.69248E+03  1.15901E+03 -4.35458E+03
 -4.28699E+03 -5.21247E+03  3.03568E+03 -4.93858E+03  5.08717E+03  3.42139E+02  3.65308E+03  9.35570E+02
  6.34700E+03 -5.49661E+02  1.58369E+03  5.31790E+03 -1.02728E+03 -5.59798E+02 -1.52317E+03  4.42986E+03
 -5.47918E+03 -1.53185E+03 -4.99732E+03 -1.77554E+03  3.14551E+02 -4.89795E+03  2.28450E+03 -4.91854E+03
  2.51549E+03 -4.75992E+03  5.80730E+03 -1.61229E+02 -2.16744E+02  5.48269E+03  7.91158E+03  9.05903E+03
  1.48617E+03  4.77498E+03  1.43153E+03  2.12703E+03 -4.14533E+02  1.98669E+03 -2.58428E+03  3.11073E+03
  8.66365E+02  3.10683E+03 -5.12748E+03  2.57199E+03 -4.15425E+03  9.02376E+02 -2.21703E+03  2.54836E+03
 -1.44773E+03 -6.33856E+03  2.76763E+03 -2.93002E+03  3.64548E+03 -3.72642E+03  2.22706E+03 -3.64316E+03
  5.89746E+03 -1.24086E+03  3.37358E+02  1.40728E+03  3.03631E+03  5.73501E+03 -4.09595E+03  6.55338E+03
 -3.72696E+03 -1.48877E+03 -2.51074E+03 -1.70813E+03  3.43713E+03 -4.51672E+03  2.59674E+03 -3.07404E+02
  8.98227E+03 -1.55049E+03 -2.92725E+03 -4.45103E+03 -2.71989E+03  1.84736E+03 -3.68384E+02  5.92596E+01
 -3.08616E+02  2.17473E+03  3.07739E+03  2.23473E+03  1.18565E+03  3.49202E+03  7.79269E+02 -5.41880E+02
 -2.34937E+03  5.04222E+03 -4.58846E+03  2.67049E+03 -3.19719E+03  5.48080E+02 -7.16083E+01 -1.56977E+03
 -1.09250E+03 -3.32120E+03 -8.76472E+02 -1.89059E+03  4.27008E+03 -5.21323E+03  4.69124E+03 -2.54370E+03
  4.93985E+03  4.35399E+03 -3.42560E+03  3.68737E+02 -6.27200E+02 -1.41789E+03  2.00600E+03  7.08554E+01
 -2.51113E+02 -1.43548E+03  3.01875E+03 -3.63625E+03  2.09399E+03  1.43798E+03  1.52930E+02 -5.68152E+02
 -2.86370E+03  1.75696E+03  2.20822E+03  2.08031E+03  3.18799E+03 -1.58249E+03  5.06184E+03 -5.16087E+03
  1.22675E+03 -1.17337E+03  6.40802E+02 -1.98604E+03  1.25923E+03  4.99585E+03  1.70744E+03  2.49579E+03
  4.16525E+03  2.05852E+03 -2.37862E+03 -2.58077E+03 -3.78883E+03 -1.16572E+03  2.03348E+02  3.72029E+01
 -1.66473E+03 -3.01665E+03  5.28147E+03 -3.39772E+02 -7.84053E+02 -5.40137E+02  1.63870E+03  6.37592E+01
 -4.85113E+02  4.91138E+03  1.41604E+02  1.66613E+03 -2.12434E+03 -8.33817E+02 -5.62471E+03  1.58630E+03
 -2.19253E+03 -1.30455E+03 -7.15596E+01 -1.36413E+03  3.38121E+03 -1.74343E+03 -2.31245E+03  1.46700E+03
 -8.25829E+02  7.97416E+02 -3.24976E+03  3.19489E+03  5.97052E+02 -1.33128E+02  4.66260E+03 -3.43242E+02
 -7.33167E+02  2.54737E+03  1.74231E+03  1.11157E+03  1.12324E+03  1.03733E+03 -1.26185E+03  1.87604E+03
 -3.62203E+03  3.40280E+03 -3.08579E+03  9.66654E+02 -3.21109E+03  3.60867E+03 -2.91972E+02 -8.24363E+02
  3.69353E+03 -3.56580E+03  1.18990E+03  1.83655E+03  1.55419E+03  2.54847E+03 -2.59180E+03  2.50886E+03
  2.17032E+03  2.85233E+03 -2.24818E+03 -2.08115E+03  7.61338E+02 -9.94394E+02 -1.89448E+03 -1.67675E+03
 -2.88190E+03  5.34605E+03 -4.88458E+03  2.67069E+03 -2.38881E+03  7.28180E+01  9.41738E+02 -2.60934E+03
 -1.23282E+03 -2.03133E+03  2.23761E+03 -3.45499E+03 -2.70828E+03 -2.86702E+03  1.28941E+03  4.26725E+02
  1.55415E+03  2.47619E+03 -2.54167E+03  2.26873E+03  3.72367E+02 -1.18642E+02 -4.63700E+03  1.42021E+03
 -1.78933E+03 -5.26602E+02 -2.09135E+03  1.61562E+03 -2.91355E+03  8.32515E+02 -4.75393E+03  3.18067E+03
 -2.76830E+03  2.10009E+03  2.42526E+03  5.35323E+03 -7.69128E+02 -1.58396E+03 -8.38932E+02  2.14449E+03
  4.13704E+02  4.25104E+03  4.18484E+03  3.78179E+03 -2.45901E+03  2.78153E+03 -1.20912E+01  1.02166E+02
 -3.76755E+03  4.95332E+03 -1.29615E+02  3.15187E+03 -1.43080E+03 -1.47861E+03 -1.42247E+03  8.59328E+02
  2.30633E+02  1.15040E+03  4.17937E+03 -7.56507E+02 -1.53528E+03  3.20304E+03 -1.75881E+03 -7.38434E+02
 -4.78415E+01  1.09767E+03  1.22145E+03  1.55096E+03  1.72818E+03 -2.71733E+03 -1.26650E+03 -2.35418E+03
  2.62782E+03  2.01696E+02  2.59718E+03  4.08497E+03  6.17887E+02 -1.50039E+03  2.70401E+02 -7.99315E+02
 -4.34700E+02  2.58889E+03  8.99986E+02 -2.69033E+03 -1.57303E+03 -2.38505E+03  1.55720E+03  2.98591E+02
  4.18612E+03 -1.39382E+03  4.20225E+02 -4.11089E+03  1.56740E+03 -1.16210E+03  1.24326E+03  1.82794E+03
  1.06510E+03  2.11745E+03  3.99109E+02 -4.89549E+03 -1.66687E+02 -1.06612E+03 -4.18371E+03  9.56584E+02
 -1.27517E+03 -2.51196E+03  4.50044E+02  3.22877E+03 -4.12506E+03 -2.09488E+03 -9.88385E+02 -1.08639E+03
 -9.92991E+02  4.10861E+02 -6.36024E+02 -3.83461E+03  6.42205E+02  2.89515E+02  8.05215E+02 -7.87631E+02
 -1.39445E+03  1.18462E+03  5.20285E+02  1.69802E+03 -3.85366E+03  1.65140E+03  4.79004E+02 -1.80443E+03
