 $NMID ID='MM_0lb_SNR50_13hz_g60_72.RAW', FMTDAT='(8E13.5)'
 TRAMP=1., VOLUME=1. $END
  3.08948E+05 -2.16348E+03  3.33485E+05  2.51443E+05  8.46474E+04  3.41894E+05 -1.34361E+05  2.49220E+05
 -1.93263E+05  8.58141E+04 -1.12650E+05 -3.31907E+04  5.39634E+02 -4.70214E+04  5.03023E+04 -1.19227E+03
  3.38068E+04  5.07203E+04 -2.01580E+04  7.53693E+04 -6.48875E+04  6.32876E+04 -8.43247E+04  2.77742E+04
 -7.82901E+04 -1.75635E+04 -6.10190E+04 -5.09033E+04 -1.60432E+04 -7.33156E+04  2.86368E+04 -4.61974E+04
  4.14497E+04  9.81076E+03  1.72264E+04  5.09469E+04 -3.18613E+04  4.42683E+04 -6.71579E+04 -2.35562E+03
 -5.63616E+04 -6.03841E+04 -1.12686E+04 -7.66667E+04  2.97599E+04 -5.30212E+04  4.51033E+04 -2.50782E+04
  4.55474E+04  1.62301E+04  3.42855E+04  2.84649E+04  1.62381E+04  3.03065E+04 -7.61534E+03  2.54819E+04
 -2.27048E+04  1.09879E+04 -2.21257E+04 -2.89680E+03  6.73890E+03 -9.39759E+03  2.41849E+04  1.18275E+04
  6.77497E+03  3.57364E+04 -3.35142E+04  3.45839E+04 -6.35956E+04  3.76187E+03 -5.91465E+04 -4.40366E+04
 -1.27661E+04 -7.17133E+04  3.23451E+04 -3.89063E+04  6.05756E+04 -2.84322E+03  3.30689E+04  3.46001E+04
 -5.41717E+03  3.87557E+04 -2.93526E+04  1.49606E+04 -3.12043E+04 -7.63729E+03 -1.74832E+04 -1.72188E+04
 -1.17150E+04 -1.43641E+04 -2.17742E+03 -2.13596E+04  9.60377E+03 -2.02473E+04  1.32632E+04 -1.46054E+04
  1.24503E+04  9.42987E+02 -9.59337E+03  1.34881E+04 -2.41432E+04 -9.70963E+03 -9.98597E+03 -3.81610E+04
  2.82914E+04 -4.10832E+04  4.94511E+04 -1.91810E+04  5.00373E+04  2.07697E+04  1.82356E+04  4.71390E+04
 -1.18685E+04  4.00030E+04 -2.61054E+04  2.07688E+03 -8.89661E+03 -2.87894E+04  1.90612E+04 -3.63111E+04
  4.61797E+04 -1.28262E+04  3.89613E+04  2.55009E+04  1.93393E+04  4.59614E+04 -1.21898E+04  5.47962E+04
 -3.47069E+04  3.71753E+04 -4.27834E+04  1.34557E+04 -4.29446E+04 -1.77858E+04 -2.12156E+04 -4.16263E+04
  6.69008E+03 -3.94416E+04  3.31067E+04 -1.40042E+04  3.53957E+04  5.98191E+03  1.28329E+03  2.07824E+04
 -9.02410E+03  1.35655E+04 -1.20968E+04 -5.57593E+03  3.71205E+02 -1.45499E+04  1.69940E+04  4.22473E+03
  1.21800E+04  2.34944E+04 -9.45033E+03  2.49515E+04 -2.20407E+04  9.16427E+03 -2.94914E+04 -8.35498E+03
 -2.18592E+04 -2.08673E+04 -3.91514E+03 -2.21397E+04  3.18335E+03 -1.88515E+04  1.60664E+04 -2.11398E+04
  2.64983E+04 -9.80904E+03  3.61868E+04  5.52547E+03  2.40786E+04  2.20338E+04  3.09155E+03  3.87480E+04
 -2.13850E+04  3.91259E+04 -3.02042E+04  1.27148E+04 -2.07013E+04 -1.12339E+04 -2.67014E+03 -1.63682E+04
 -6.66611E+01 -3.54242E+03 -5.60566E+03  1.10782E+04 -1.34638E+04  1.49729E+02 -1.96958E+04 -8.77612E+03
 -7.78149E+03 -2.01643E+04  3.45383E+03 -2.75337E+04  2.02454E+04 -2.05400E+04  1.76059E+04 -2.27038E+03
  1.01117E+04  1.79779E+04  1.00009E+02  2.05477E+04 -1.60782E+04  1.48736E+04 -1.74398E+04 -1.06569E+04
 -1.87050E+04 -1.50094E+04  3.31802E+02 -2.49727E+04  1.18804E+04 -1.75826E+04  2.56843E+04 -5.36279E+03
  1.74027E+04  3.09885E+03  1.19489E+04  6.16710E+03  1.60076E+03  7.91228E+02  1.42272E+04 -6.49712E+03
  1.46695E+04  3.49954E+03  2.66637E+04  1.62916E+04  1.73649E+04  3.64412E+04 -2.66720E+03  4.19577E+04
 -2.23377E+04  3.32634E+04 -3.47205E+04  1.81948E+04 -3.47963E+04 -1.59225E+03 -3.82750E+04 -1.95805E+04
 -1.07292E+04 -2.65775E+04  1.61251E+04 -2.68670E+04  2.48609E+04 -1.81415E+04  2.07192E+04  1.24585E+04
  9.91691E+03  1.68545E+04 -1.18815E+04  1.00903E+04 -1.90043E+04  2.82510E+03 -1.04060E+04 -9.73590E+03
 -1.16176E+03 -1.69082E+04  7.04956E+03 -1.38713E+04  9.56666E+03  1.35416E+03  3.73657E+03  9.09232E+03
 -9.45793E+03  2.64740E+03 -5.72748E+02 -4.29371E+03  7.80320E+02 -1.07553E+04  5.98347E+03 -1.15951E+04
  1.85869E+04 -1.33389E+04  1.71828E+04  5.74553E+03  1.67612E+04  1.42862E+04  1.42746E+04  2.70397E+04
 -4.88755E+03  2.48296E+04 -1.48700E+04  2.21484E+04 -1.96427E+04  6.35241E+03 -1.10784E+04 -7.44664E+03
 -7.99878E+03 -8.50461E+03 -1.21342E+03  2.90444E+02 -9.89522E+02  2.99247E+03 -5.22865E+03  5.87470E+03
 -1.25848E+04  2.30091E+03 -1.27498E+04 -8.67376E+03 -3.01481E+03 -1.67236E+04  2.63586E+02 -1.34784E+04
  1.63044E+04 -8.97916E+03  3.02676E+03  8.38450E+03  3.92226E+03  6.82671E+03 -2.08482E+03  6.83913E+02
 -6.24896E+03 -7.92046E+03 -2.86669E+03 -1.43306E+04  4.52647E+03 -1.66683E+04  9.08847E+03 -7.19191E+03
  2.00473E+04  6.57442E+03  1.47126E+04  1.77433E+04  4.90345E+03  1.45478E+04 -5.42477E+03  1.56786E+04
 -1.22243E+04  9.26639E+03 -2.24826E+03 -4.12050E+03  3.19399E+03 -1.61069E+03  5.13953E+03  1.22969E+03
  1.11256E+04  7.52973E+03  1.38644E+03  8.69905E+03 -1.07689E+04  7.81892E+03 -1.58109E+04  1.86300E+03
 -1.13836E+04 -4.27470E+03  2.04093E+03 -9.99917E+03  2.56278E+03 -4.26280E+03  2.29185E+03 -2.58375E+02
 -2.60981E+03  5.40017E+03 -8.71197E+03  1.28596E+04 -1.21176E+04  5.32577E+03 -9.16972E+03 -7.47791E+03
 -8.10802E+03 -9.57314E+03  5.39526E+03 -1.07845E+04  1.98106E+04 -8.55453E+03  1.09430E+04  2.26543E+03
  8.37998E+03  4.88465E+03  4.09149E+03  1.37326E+04 -9.62411E+03  8.68914E+03 -1.16288E+04 -1.43899E+03
 -1.23968E+04 -8.46958E+03 -5.63054E+03 -1.07541E+04  7.22973E+03 -4.89278E+03  7.67297E+03 -4.37393E+03
  2.76494E+03 -6.80386E+02  4.31745E+03  1.77549E+03 -2.55438E+03  1.57495E+03 -1.28785E+03 -8.16900E+03
  1.24430E+04 -8.60009E+03  1.48122E+04 -2.70232E+03  1.54173E+04  6.96573E+03  2.60470E+03  1.70024E+04
 -3.24853E+03  1.61957E+04 -1.67874E+04  8.12675E+03 -2.14595E+04  2.84486E+03 -1.44841E+04 -1.15598E+04
 -6.89179E+03 -8.41468E+03 -3.13545E+03 -1.06469E+04  5.25275E+03 -1.24710E+04  4.54309E+03  1.28337E+03
  6.72321E+01 -1.44590E+03  1.60252E+02 -5.44154E+03  6.95974E+03 -6.98268E+03  4.15659E+03 -6.10844E+03
  7.11748E+03  1.17317E+03  6.13862E+03  8.96992E+03  2.85725E+03  7.11914E+03 -3.26384E+03  6.76996E+03
 -8.45947E+03 -2.84744E+03 -6.40063E+03 -9.61203E+03  1.14125E+03 -1.27643E+04  1.18746E+03 -1.09304E+04
  1.52285E+04 -9.23636E+03  1.29073E+04 -2.56179E+03  3.59375E+03  7.81552E+03 -2.41126E+03  1.64050E+04
  2.25027E+03  1.34677E+04 -8.76643E+03  2.14819E+03 -8.31349E+03  3.38886E+02 -5.75182E+03 -7.27782E+03
 -4.67124E+03  1.92049E+03 -5.62485E+02  5.03057E+02 -1.00877E+04  2.45052E+03 -7.22249E+03 -5.15293E+03
  1.13950E+03 -6.21569E+03  1.99633E+03 -7.63816E+03  8.71515E+03 -1.09545E+04  1.20804E+04 -3.32259E+03
  1.28232E+04  6.05443E+03  7.60680E+03  7.04684E+03 -8.39354E+03  9.60672E+03 -6.03796E+03  3.77435E+03
 -1.06375E+04 -4.02286E+03 -4.33359E+03 -5.87207E+03  1.35707E+03 -6.64805E+03  5.20813E+03 -1.18707E+04
  6.98807E+03 -1.30501E+03  5.36100E+03  2.93806E+03  3.08068E+03  6.05942E+03  2.08643E+03  7.25943E+02
  4.47438E+03 -1.47561E+03  4.07440E+03  1.55542E+02  4.03931E+03  5.20719E+03  8.96271E+02  3.63037E+03
  7.68917E+02  5.68399E+03 -3.91215E+03  5.23213E+03 -9.76381E+03  1.38852E+03 -6.92659E+03  2.75092E+02
 -4.07078E+03 -8.92279E+03  2.35414E+03 -5.29572E+03  5.25007E+03 -5.00322E+03  3.08720E+03 -2.77268E+03
  4.50902E+02  1.98972E+03  1.45387E+03  9.16132E+03 -3.79100E+03  4.81931E+03 -5.27947E+03 -1.80061E+03
 -1.94896E+03 -8.91651E+02 -2.26154E+03 -1.44652E+03  1.12483E+03 -9.06035E+02  4.48036E+03  4.19026E+03
  2.04098E+03  4.21404E+02  4.93191E+03 -2.03504E+03  4.41411E+03 -3.22461E+03  8.51430E+02 -5.46263E+03
  5.51563E+03 -8.49964E+02  2.42988E+03  3.86979E+03 -5.23043E+02  6.72887E+03  9.57735E+02  4.69572E+03
 -6.85163E+03  4.98962E+03 -3.98822E+03  8.58243E+02 -7.02391E+03  2.06396E+03 -8.02777E+03 -6.74184E+03
 -2.59140E+03 -2.25126E+03 -2.47944E+03 -4.94362E+02 -4.70921E+03  4.01319E+03  2.35078E+03  6.13356E+03
 -5.84752E+03 -2.14363E+03 -8.43807E+03 -2.97806E+03 -4.31947E+03 -1.68141E+03  3.05779E+03 -2.75624E+03
 -1.82361E+02 -1.48841E+03  6.24761E+03 -3.52766E+03  1.04540E+04 -5.68473E+03 -1.05041E+03  2.49747E+03
 -3.52405E+03 -4.98207E+01 -1.79352E+03 -3.63864E+03 -2.11784E+03 -1.69323E+03  4.85044E+03 -7.21798E+03
  6.65951E+03 -1.18089E+03  7.91648E+03  8.44791E+03 -1.40658E+03  3.74620E+03 -2.73363E+03  2.16398E+02
 -6.22427E+03  7.62104E+02 -1.54318E+03 -1.76677E+03 -5.27498E+02 -5.33271E+03  4.01347E+03 -5.04619E+03
  3.47027E+03 -2.42585E+03  8.97594E+03  5.02679E+03  2.89215E+03  2.62707E+03  1.14646E+03 -2.13867E+03
  1.71000E+03  9.78097E+01 -3.43038E+03  1.70735E+03 -1.72126E+03 -1.40954E+03  8.04875E+02  2.79273E+03
  1.78788E+03  2.07041E+03 -1.82427E+03  2.05153E+03 -4.40365E+03  3.02374E+02 -1.65633E+03 -4.32319E+03
 -4.60363E+03 -1.41948E+04  2.38448E+02 -1.11890E+04  4.60493E+03 -4.10674E+03  1.00186E+04 -4.59150E+03
  9.65512E+03  4.61660E+03 -1.42195E+03  5.82629E+03  2.14182E+03  5.56141E+03 -3.10635E+03  4.11499E+03
 -3.57219E+03  5.53306E+01  2.72258E+03 -3.58980E+03 -1.40447E+03 -4.66287E+03  3.08067E+03 -1.07632E+03
 -5.32499E+03 -5.34605E+02  1.65071E+03 -5.63013E+03  1.71858E+03 -4.26503E+03  9.37446E+02  2.47548E+03
  2.13388E+03 -1.01086E+03  3.40940E+03 -4.78768E+03 -8.04924E+02  5.70219E+03  6.86524E+03  7.41717E+03
 -6.51606E+03  5.02663E+03 -4.58157E+03  4.32689E+03 -3.81130E+03  1.02904E+03  2.10963E+02 -5.72688E+03
 -3.44458E+03 -3.59295E+03  5.29533E+03 -7.37365E+03 -1.32454E+03  4.32528E+03  8.45984E+02  2.77367E+03
  2.61680E+03  4.11867E+03 -2.57933E+03  4.37506E+03 -2.33018E+03 -2.06596E+03  6.91575E+02 -2.84289E+03
  9.44084E+02 -1.87065E+03  2.14205E+03  8.19428E+02  2.14650E+03 -2.25810E+02  2.62775E+03  3.81876E+02
 -7.74933E+03  5.02113E+02 -3.67064E+03 -4.02097E+02 -2.49258E+03  1.18195E+03 -8.04819E+03 -7.93853E+03
  3.57050E+03 -3.98755E+03  2.26021E+00 -6.84891E+03  4.05037E+03  6.15520E+02  1.46432E+02  3.83297E+03
  9.02662E+02  2.61774E+03 -2.10951E+03  1.23771E+03 -2.91494E+03  4.86931E+03 -8.19469E+03  4.57406E+03
 -5.01305E+03  9.30884E+03  1.54482E+03 -4.71895E+03 -5.25187E+03 -6.07036E+03 -5.05549E+03 -2.64798E+03
 -4.95842E+03  3.99709E+03 -2.91879E+03 -3.21164E+03 -2.17326E+02 -1.15166E+03  2.82344E+03  2.91706E+03
 -1.39213E+03 -1.03872E+03  2.15035E+03  3.03062E+02 -3.95339E+03  5.78619E+03 -8.52369E+02 -2.00583E+03
