 $NMID ID='MM_0lb_SNR50_20hz_g60_65.RAW', FMTDAT='(8E13.5)'
 TRAMP=1., VOLUME=1. $END
  3.05318E+05 -3.62050E+03  3.36806E+05  2.53439E+05  8.40181E+04  3.35247E+05 -1.29048E+05  2.51920E+05
 -1.90426E+05  8.13648E+04 -1.08805E+05 -3.22661E+04  4.45267E+03 -4.83430E+04  5.04180E+04  1.04749E+03
  3.19799E+04  5.10359E+04 -2.13012E+04  7.57787E+04 -5.94004E+04  6.18808E+04 -8.64982E+04  3.20261E+04
 -8.11474E+04 -1.39450E+04 -5.37326E+04 -4.90382E+04 -1.63614E+04 -6.62355E+04  2.65301E+04 -4.57905E+04
  3.59582E+04  4.70608E+03  1.73393E+04  4.78504E+04 -3.05371E+04  4.95074E+04 -6.55353E+04 -1.09413E+03
 -5.05107E+04 -5.74146E+04 -3.45481E+03 -7.76258E+04  3.08378E+04 -5.53931E+04  4.80933E+04 -1.75754E+04
  4.17955E+04  1.00498E+04  3.29238E+04  2.26687E+04  9.74653E+03  3.03507E+04 -3.32489E+03  2.75635E+04
 -1.96087E+04  1.42674E+04 -1.71012E+04 -3.87226E+03  4.38430E+03 -7.11539E+03  2.34105E+04  8.32627E+03
  8.20213E+03  3.26843E+04 -3.04641E+04  3.18737E+04 -6.03258E+04  4.62114E+03 -5.51128E+04 -4.50224E+04
 -1.39246E+04 -6.26424E+04  4.15790E+04 -4.41623E+04  5.80481E+04 -3.05687E+03  2.76756E+04  3.10426E+04
 -5.67930E+03  3.25535E+04 -3.16883E+04  1.24976E+04 -2.56606E+04 -9.45307E+03 -1.42344E+04 -9.66787E+03
 -8.62258E+03 -1.08363E+04 -3.47382E+03 -1.52451E+04  6.04676E+03 -2.08852E+04  1.67248E+04 -1.34394E+04
  8.10093E+03  4.42919E+03 -3.15195E+03  1.10189E+04 -1.54429E+04 -4.38881E+03 -4.64260E+03 -2.94429E+04
  2.16035E+04 -4.21169E+04  4.62600E+04 -1.81789E+04  4.03794E+04  1.65995E+04  1.51461E+04  4.07835E+04
 -1.36643E+04  2.89108E+04 -2.29322E+04 -3.31168E+03 -8.11206E+03 -2.84746E+04  1.89337E+04 -3.17227E+04
  4.12958E+04 -6.65475E+03  3.48778E+04  2.51587E+04  1.80914E+04  4.59108E+04 -7.18597E+03  4.81254E+04
 -2.81525E+04  3.15251E+04 -4.18747E+04  9.82645E+03 -3.53471E+04 -1.49378E+04 -2.11339E+04 -3.42888E+04
  6.32696E+03 -2.76334E+04  3.43396E+04 -1.34054E+04  2.51015E+04  5.11310E+03  4.47711E+03  1.62135E+04
 -1.53937E+04  1.01130E+04 -1.04850E+04 -7.71140E+03  3.04901E+03 -1.14713E+04  1.73027E+04  4.69070E+03
  1.45407E+04  2.24933E+04 -7.48081E+03  1.99716E+04 -2.21280E+04  6.49860E+03 -2.47848E+04 -5.08930E+03
 -2.03440E+04 -1.97510E+04 -6.64334E+03 -2.10084E+04  3.90650E+03 -2.24367E+04  8.94319E+03 -1.16468E+04
  2.03935E+04 -1.38566E+04  2.90225E+04 -2.42162E+03  2.18596E+04  1.81768E+04  2.99373E+03  3.31098E+04
 -1.46066E+04  2.24184E+04 -2.79242E+04  1.31053E+04 -1.75609E+04 -9.89193E+03 -4.64878E+03 -1.61286E+04
  1.44949E+03 -7.76611E+03 -2.34343E+03  2.41303E+03 -1.83045E+04  2.34573E+03 -1.16159E+04 -7.53241E+03
 -6.48489E+03 -1.41821E+04  7.24480E+03 -1.71840E+04  1.52056E+04 -1.58270E+04  1.51194E+04 -1.65247E+03
  8.17383E+03  1.37807E+04 -2.16141E+03  1.65480E+04 -8.99996E+03  5.49056E+03 -1.66922E+04 -1.14400E+03
 -1.01979E+04 -1.30989E+04  1.55456E+03 -1.98523E+04  6.82380E+03 -1.25510E+04  1.78602E+04 -3.92201E+03
  1.86067E+04  1.17828E+03  1.17023E+04  6.55462E+03  6.06462E+03 -6.88521E+03  9.79734E+03 -3.07800E+03
  1.04410E+04 -3.56740E+02  1.56091E+04  1.47347E+04  8.78630E+03  2.63396E+04 -2.47927E+03  3.03184E+04
 -1.76377E+04  2.03912E+04 -2.40877E+04  7.11147E+03 -2.72407E+04 -2.73079E+03 -2.28781E+04 -1.81769E+04
 -1.53039E+04 -1.86980E+04  9.75673E+03 -2.15553E+04  1.64613E+04 -8.69974E+03  1.86392E+04  5.34904E+03
  6.52263E+03  1.06771E+04 -6.51771E+03  1.20167E+04 -1.40374E+04 -2.74890E+02 -8.55673E+03 -5.89128E+03
  2.38978E+03 -1.34933E+04  8.35794E+03 -1.13098E+04  6.66115E+03 -2.99508E+03  2.10650E+03  4.36875E+03
 -5.13329E+03 -1.36448E+02 -4.18922E+03 -6.85262E+03  1.74120E+03 -1.13749E+04  1.04713E+04 -1.35181E+04
  1.36467E+04 -6.33686E+03  1.39413E+04  7.19937E+02  1.19220E+04  9.16213E+03  6.67359E+03  1.22861E+04
 -8.27676E+02  1.39536E+04 -8.53007E+03  1.15838E+04 -9.45500E+03  7.02310E+03 -1.17936E+04 -1.27211E+03
 -4.55134E+03 -1.93592E+02 -1.57175E+03  5.14671E+03 -2.25268E+03 -7.80850E+02 -1.40188E+03  7.38916E+03
 -9.57909E+03 -1.49421E+03 -6.92551E+02 -9.08924E+03 -4.98331E+03 -1.28992E+04  5.96135E+03 -8.50228E+03
  5.26772E+03  1.77532E+02  3.25446E+03  3.06617E+02 -3.14033E+03  5.28304E+03 -3.39437E+03  4.65575E+03
 -8.39329E+02 -1.47297E+03 -5.22852E+03 -6.35848E+03  3.10784E+03 -6.95778E+03  1.05761E+04 -3.88699E+03
  8.84833E+03 -9.29628E+02  1.01964E+04  6.77998E+03  3.74224E+03  9.64357E+03 -4.82767E+03  1.10283E+04
 -1.09591E+04  1.12818E+03  2.08641E+02 -5.21905E+03  2.23339E+03 -4.68764E+03  6.27331E+03 -5.73882E+02
  5.86698E+03  2.27104E+03  3.82368E+03  4.27748E+03 -4.62342E+03  9.38356E+03 -6.09976E+03  2.61432E+03
 -9.41173E+03 -4.58997E+03  5.44919E+02 -3.82798E+03  5.15613E+03 -2.89424E+03  3.92381E+03 -5.03726E+02
  2.23889E+03  2.17477E+03 -4.21057E+03  4.92834E+03 -3.42459E+03  6.57686E+03 -2.36480E+03  9.35906E+02
 -1.01047E+03 -7.74764E+03  1.70270E+03 -4.92886E+03  7.18096E+03 -1.74939E+03  6.08623E+03  2.00008E+03
  2.51585E+03  4.26631E+03 -5.64012E+03  3.73553E+03 -1.32919E+03  7.32247E+02 -5.32252E+03 -1.02883E+03
 -5.05650E+03 -4.86332E+03 -1.46605E+03 -6.88620E+03  1.94317E+02 -4.54632E+03  4.41776E+03 -4.68496E+03
  7.00249E+03  2.93517E+02 -3.04898E+03  5.07723E+03  2.48262E+03 -5.80512E+02 -2.50368E+03 -5.24755E+02
  6.20198E+03 -3.15009E+03  3.63638E+03  1.05956E+03  7.91232E+03  3.34682E+03  5.15793E+03  6.06134E+03
  2.59085E+03  4.22121E+03 -6.92747E+03  1.00879E+04 -9.93198E+03 -1.68245E+03 -8.08453E+03  7.09340E+02
 -1.79818E+03 -7.58030E+03  6.12703E+02 -4.77291E+03 -1.88336E+03 -2.44297E+03 -3.11375E+02 -5.15247E+03
 -8.73470E+02 -2.88643E+03  3.74933E+02 -3.03938E+03  1.83020E+03 -5.23361E+02  4.98743E+03  3.37262E+02
  6.54230E+03 -7.98195E+02  4.42500E+03  4.46735E+03 -1.97432E+02  2.27314E+02 -1.35717E+03  1.35987E+03
 -4.51875E+03 -1.75710E+03 -2.07825E+03 -3.84431E+03  3.24564E+03 -5.12722E+03  1.06293E+03 -2.87048E+03
  3.56896E+03 -1.73078E+03  2.99249E+03 -3.50633E+03  6.27335E+03 -1.70751E+03  3.74142E+03  5.58771E+03
 -3.19762E+03  5.63452E+03 -3.02607E+03 -2.03355E+03 -5.60525E+02  9.49424E+02 -3.14160E+03 -9.03072E+02
 -1.18622E+02  3.50815E+03 -1.96696E+03  5.46388E+03 -4.44870E+03  3.76115E+03 -7.75926E+03  1.95341E+02
 -2.63519E+03 -4.08797E+03  2.17018E+03 -5.69828E+03 -1.04630E+03 -6.22312E+03 -9.50870E+02 -3.61523E+03
  5.61121E+03  5.80694E+03 -3.87888E+03  3.81212E+03  3.30289E+02  3.74923E+03 -2.91371E+03  5.93637E+03
 -7.66801E+02  5.63479E+03 -2.75134E+02 -1.77344E+03  2.26939E+03 -2.17567E+03  1.86135E+03 -7.65975E+02
 -3.30340E+03 -3.30416E+03 -5.58418E+02 -1.08485E+03 -4.65706E+03 -1.32406E+03  9.99527E+02  1.39638E+03
  6.04541E+03  1.13130E+03 -2.68828E+02  8.41368E+02  5.14795E+03  7.03416E+02  8.19809E+02  4.18029E+02
  2.61985E+03  6.06255E+03 -2.08277E+03  6.98335E+03 -7.95101E+03  1.13560E+03 -2.67151E+03 -5.19340E+02
 -3.83055E+02 -2.07375E+02 -1.53930E+03 -3.55170E+03  6.75798E+03 -2.43955E+03 -8.85309E+02 -6.95634E+01
  7.88045E+03  3.23327E+03 -2.09643E+03  6.62084E+02  1.31875E+03  4.60742E+03 -2.71842E+02 -1.51152E+03
  2.91679E+03 -5.41716E+02  1.98389E+03 -1.92946E+03 -3.08116E+03 -1.15383E+03 -8.94004E+02  3.56983E+03
  3.13234E+03 -2.92387E+02  1.91228E+03 -4.42067E+03 -3.34388E+03  2.01758E+03  2.00895E+02  3.88492E+03
  1.08092E+03 -3.06982E+03  1.60586E+03 -1.24632E+03  5.68057E+03  3.36874E+03 -8.12537E+02  4.30634E+03
  2.11148E+03 -5.23501E+03 -5.58270E+03  3.59891E+03 -3.75659E+03  2.13008E+03 -2.10732E+03  3.47242E+03
  4.69683E+02 -1.52547E+03  3.65447E+03 -8.35954E+02  1.18048E+03 -2.23691E+03 -1.25241E+03 -2.54144E+02
 -4.82044E+03  4.02406E+03 -2.33798E+03 -1.22711E+03 -2.19836E+03 -2.47735E+03 -2.14477E+03 -1.22543E+03
  2.01068E+03  1.35763E+03 -3.66823E+03 -4.70724E+03  7.93196E+02  2.41250E+03 -2.20977E+03  2.64611E+03
 -6.79903E+02  1.70085E+03  3.40497E+03  2.50226E+03 -3.22001E+03  2.61485E+03  2.99381E+03 -2.47688E+03
  1.35088E+02  2.31371E+02  3.25250E+03  3.48529E+03  4.78171E+03  3.03237E+02 -4.49539E+03 -4.19324E+02
 -1.39117E+03 -1.50275E+03 -4.01825E+03 -3.44492E+03 -2.18927E+03 -2.52214E+03 -3.37271E+02  2.06488E+03
  2.32031E+03  2.25698E+03  1.32267E+03 -2.90320E+01  2.26826E+03 -1.88751E+02  3.70154E+03 -4.15351E+02
  6.63682E+02 -9.82787E+02  2.54756E+03  2.65852E+03 -1.05904E+03  2.92302E+03  2.33379E+03  2.63397E+03
 -1.21608E+03  1.62594E+01 -2.50632E+03 -3.23314E+03  6.05083E+02  1.34434E+03 -3.78114E+03 -2.25162E+03
 -1.90862E+03 -3.14427E+03  3.96217E+03 -3.29214E+02 -1.25428E+03 -3.19108E+03 -1.48228E+03 -6.31043E+01
  2.56075E+03 -9.69393E+02  5.00179E+02  2.31083E+03  2.29281E+03  2.35738E+03 -4.13423E+03  5.69692E+02
 -3.08344E+03  7.22186E+03  1.44814E+03 -1.26944E+03 -1.62885E+03 -7.34000E+02  5.00299E+03  4.59133E+02
  2.85275E+03  3.76512E+03 -1.73390E+03  8.46656E+02  9.13621E+02 -3.22882E+03  3.73611E+02 -2.29970E+02
  6.67518E+03  1.40976E+03  2.90107E+03  6.73907E+02  2.95320E+03  2.23538E+03 -2.80363E+03 -3.93366E+03
  1.19850E+03  1.45107E+03 -1.09720E+03 -8.36477E+02  1.63882E+00 -2.89847E+03 -3.03141E+02 -2.21771E+03
 -8.11230E+02  2.59943E+02  8.17818E+02 -1.02451E+03  1.74060E+03 -1.02599E+03 -2.73453E+03  1.07221E+03
 -1.66303E+03 -3.75695E+02 -2.27274E+03 -1.67581E+03  2.62436E+03  4.35104E+02 -1.03973E+03 -1.93635E+03
 -2.45757E+02  2.25818E+02 -8.68049E+02 -1.01031E+03  1.21414E+02  2.73765E+03 -9.28085E+02 -3.02931E+03
  1.01012E+03 -4.11005E+02 -2.20009E+02 -1.58467E+03 -1.23912E+03 -2.64288E+02  1.16258E+03  2.06429E+03
  3.43466E+03 -1.40988E+03  1.46150E+03 -2.24583E+03 -1.46037E+03  7.80201E+01 -4.02978E+03  9.48031E+02
 -1.84989E+03 -2.44754E+02 -3.03677E+02  7.36114E+02 -3.86211E+03 -4.78143E+02 -1.25672E+03  1.77141E+03
  2.90519E+03  2.39893E+03  2.13000E+02  2.92552E+03 -5.22720E+02  8.84476E+01 -2.60962E+03 -1.50620E+02
 -1.13174E+03 -4.70176E+02 -3.50903E+02 -1.76744E+03 -2.46722E+03 -2.98748E+02 -1.29594E+03 -2.50259E+02
  1.18784E+03 -1.12740E+03 -1.83166E+03  6.63234E+02 -1.46364E+03  4.85573E+02  2.21533E+03 -1.01417E+03
