 $NMID ID='MM_0lb_SNR50_19hz_g60_82.RAW', FMTDAT='(8E13.5)'
 TRAMP=1., VOLUME=1. $END
  3.12152E+05  2.99121E+03  3.34343E+05  2.48888E+05  8.25536E+04  3.35860E+05 -1.32629E+05  2.49449E+05
 -1.87801E+05  8.21383E+04 -1.13520E+05 -3.09373E+04  1.48418E+03 -5.20297E+04  5.29536E+04 -6.44277E+02
  3.16301E+04  5.57728E+04 -1.70151E+04  7.47122E+04 -5.90347E+04  6.59563E+04 -8.60817E+04  3.40679E+04
 -8.07833E+04 -1.13406E+04 -5.65297E+04 -4.97399E+04 -1.71455E+04 -7.00882E+04  2.78972E+04 -4.85194E+04
  4.07837E+04  2.39589E+03  1.80109E+04  4.76891E+04 -3.04843E+04  4.59853E+04 -6.35115E+04 -8.72690E+02
 -5.42398E+04 -6.03883E+04 -4.27676E+03 -7.48194E+04  3.12871E+04 -5.63308E+04  4.86453E+04 -1.54491E+04
  4.48092E+04  8.79035E+03  3.22910E+04  2.34493E+04  1.12132E+04  2.89868E+04 -1.05022E+04  2.89078E+04
 -2.10729E+04  1.61982E+04 -1.98090E+04 -2.90359E+03  1.48978E+03 -5.56408E+03  2.18965E+04  7.97675E+03
  6.42392E+03  3.44235E+04 -3.08220E+04  3.51588E+04 -6.13914E+04  2.32717E+02 -5.82960E+04 -4.32317E+04
 -1.40389E+04 -6.31814E+04  4.07713E+04 -4.22935E+04  5.86553E+04 -1.14234E+03  3.55035E+04  3.14009E+04
 -4.71501E+03  3.60693E+04 -2.69359E+04  1.60197E+04 -2.87334E+04 -6.23468E+03 -1.27661E+04 -6.14586E+03
 -1.00263E+04 -1.16151E+04 -1.05903E+03 -1.47286E+04  6.73505E+03 -1.92902E+04  1.91035E+04 -1.51866E+04
  1.04423E+04  9.13528E+03 -7.31502E+03  1.00756E+04 -1.87852E+04 -2.94816E+03 -1.37336E+04 -2.71763E+04
  2.06335E+04 -4.01709E+04  4.54958E+04 -1.84713E+04  4.34245E+04  1.63985E+04  1.50576E+04  4.46803E+04
 -1.40132E+04  3.00027E+04 -2.28579E+04 -4.16854E+03 -6.63334E+03 -2.86123E+04  2.07715E+04 -3.51011E+04
  3.76255E+04 -6.33837E+03  3.21713E+04  2.26036E+04  1.50403E+04  4.18394E+04 -2.22695E+03  4.38203E+04
 -2.76613E+04  3.31403E+04 -3.83591E+04  7.96371E+03 -3.84724E+04 -1.45180E+04 -2.47831E+04 -3.75846E+04
  6.92378E+03 -3.33964E+04  3.08702E+04 -1.14539E+04  3.04068E+04  1.09139E+04  2.82927E+03  1.67000E+04
 -1.33583E+04  6.84137E+03 -1.08619E+04 -6.70808E+03  6.15679E+03 -1.31176E+04  1.56153E+04  4.30383E+03
  1.52906E+04  2.23585E+04 -5.38834E+03  2.61257E+04 -1.95060E+04  1.23693E+04 -2.84687E+04 -4.08236E+03
 -2.03269E+04 -1.57707E+04 -8.28045E+03 -1.99886E+04  5.25203E+03 -1.45387E+04  1.88465E+04 -1.71330E+04
  2.25561E+04 -1.22127E+04  3.24692E+04  2.97398E+03  1.64021E+04  1.47956E+04  5.16547E+03  3.19720E+04
 -1.78849E+04  2.46774E+04 -2.67683E+04  1.04098E+04 -1.98067E+04 -1.36796E+04 -5.04268E+03 -1.31096E+04
  2.29351E+03 -6.44376E+03 -3.91994E+03  3.51174E+03 -1.47984E+04  1.03613E+04 -1.28366E+04 -4.96385E+03
 -8.03589E+03 -1.55613E+04  4.36816E+03 -1.94674E+04  1.27868E+04 -1.67137E+04  1.26296E+04  6.85539E+02
  9.08398E+03  1.28790E+04 -2.62946E+03  1.49014E+04 -1.34175E+04  9.37408E+03 -1.58171E+04 -5.26267E+03
 -1.17352E+04 -2.01262E+04  1.26301E+03 -2.21245E+04  1.05744E+04 -1.96302E+04  2.18803E+04 -7.42229E+03
  1.56976E+04 -3.70800E+03  1.32986E+04  6.96415E+03  4.46347E+03 -8.04594E+02  7.90141E+03 -9.75510E+02
  1.20810E+04  6.75866E+03  1.42288E+04  1.18460E+04  1.03608E+04  2.91613E+04 -4.31272E+02  2.74866E+04
 -1.33156E+04  2.41989E+04 -2.48456E+04  9.48364E+03 -2.67420E+04 -2.91750E+03 -2.62121E+04 -1.34546E+04
 -9.86608E+03 -2.05259E+04  5.32664E+03 -2.36641E+04  1.62382E+04 -1.60854E+04  1.49018E+04  2.69227E+03
  8.69008E+03  1.26982E+04 -3.43094E+03  1.07999E+04 -1.11220E+04  1.31845E+03 -1.03874E+04 -5.59173E+03
  4.28707E+02 -1.48616E+04  5.90894E+03 -1.03613E+04  9.47139E+03 -4.51227E+03  9.86754E+02  6.40235E+02
 -2.43050E+03  1.80433E+03 -4.32224E+03 -3.40338E+03 -1.80490E+03 -5.18287E+03  5.98911E+03 -1.72053E+04
  1.11982E+04 -5.62737E+03  1.61767E+04  1.68656E+03  1.65075E+04  9.96268E+03  5.92111E+03  1.66247E+04
  1.87654E+03  1.79669E+04 -1.06290E+04  7.46873E+03 -1.43033E+04  2.89222E+03 -9.99178E+03 -4.35520E+01
 -3.20283E+03 -3.42689E+03 -3.42801E+03  4.29076E+03 -5.39116E+03 -2.43010E+03 -3.66260E+03  5.46774E+03
 -3.21383E+03 -3.55682E+03 -9.51945E+03 -7.00824E+03 -2.52478E+03 -1.00513E+04  1.84485E+03 -5.97139E+03
  3.40436E+03 -5.53180E+03  7.18110E+03 -5.56338E+02  3.61090E+03  7.23543E+03 -5.48746E+03  5.59063E+03
 -5.26161E+03 -8.95926E+03 -1.69237E+03 -7.55593E+03  2.69563E+03 -9.25161E+03  1.23301E+04 -5.32347E+03
  1.48736E+04  3.04355E+03  8.75024E+03  6.97308E+03  7.83091E+02  1.62306E+04 -4.34697E+03  9.30295E+03
 -3.38818E+03  4.20429E+03 -4.10175E+03  1.09054E+03 -1.62671E+03 -1.02157E+03  1.87709E+03 -2.02542E+03
  4.20628E+03  1.92000E+03  1.21355E+03  7.22408E+03 -7.16175E+03  4.21975E+03 -1.28009E+04 -1.76063E+03
 -4.20224E+03 -4.42910E+03  3.91108E+03 -8.25576E+03  3.67969E+03 -5.69929E+01  2.33410E+03  3.67862E+02
 -2.44725E+02  2.66542E+03 -2.89443E+03  3.94623E+03 -8.60198E+03  2.20755E+03 -8.43395E+03  2.60157E+03
 -8.22582E+02 -5.67540E+03  8.25136E+02 -5.86416E+03  8.08310E+03 -5.91541E+03  7.33824E+03 -3.92191E+02
  4.95889E+03  6.45738E+03 -4.29368E+02  8.46580E+03 -5.21943E+03  6.42959E+03 -5.99586E+03  1.79110E+03
 -6.08467E+03 -3.80761E+03  8.37831E+02 -3.94741E+01  4.07056E+03 -5.84057E+03  4.71551E+03 -4.59521E+03
  4.18296E+02  3.03725E+03 -2.16636E+02  3.75266E+03 -3.43653E+02 -3.78569E+03  1.15694E+02 -5.38496E+02
  4.70556E+03  1.14617E+03  2.30899E+02  2.64729E+03  7.64184E+03  3.83566E+03  4.36575E+03  7.57658E+03
  1.90681E+02  1.06860E+04 -3.10408E+03  1.18401E+04 -7.28322E+03  1.51087E+03 -5.91809E+03 -5.30649E+02
 -1.48012E+03 -8.82702E+03 -1.57010E+03 -1.12427E+04 -1.71225E+03 -4.99291E+03 -6.82606E+02 -4.36570E+03
 -5.37205E+02 -2.43878E+03 -3.63898E+02 -2.77036E+03  4.25621E+03 -2.27814E+03  2.02839E+03  6.43425E+02
  4.47585E+03  5.42465E+03 -1.23943E+03  6.49049E+03 -5.05130E+03  1.84222E+03 -1.89652E+03  2.08036E+03
 -7.65141E+03  2.98514E+03 -2.66567E+03 -5.35691E+03 -1.25819E+03 -3.14974E+03  1.58192E+02 -7.87963E+03
  4.67254E+03 -6.58893E+03  7.21520E+03  2.61889E+03  5.63708E+03  8.23511E+03  3.63848E+03  3.93259E+03
 -3.65749E+03  5.51810E+03 -2.35116E+03 -1.96156E+03 -4.65564E+03  1.94221E+03  1.59492E+03  9.76476E+02
  1.01760E+03 -3.29519E+03 -1.85640E+03  4.38917E+02  2.87440E+02  4.89798E+03 -4.58477E+03 -5.21841E+03
 -2.26500E+03 -5.94054E+03 -8.14037E+02 -1.95311E+03  1.49126E+03 -7.33484E+03  2.03883E+03 -5.38278E+02
  4.42138E+03  4.31355E+02  1.98928E+03  2.56948E+03 -3.21975E+02  2.39905E+03 -2.02836E+03  4.63427E+03
 -6.27328E+03 -3.89896E+03 -3.02020E+03  5.08118E+02  1.65213E+03 -4.16429E+03 -8.98060E+02 -3.50869E+03
  4.74354E+03 -1.20153E+03 -5.02742E+00  3.15852E+03 -2.81727E+03  6.54882E+01 -1.84022E+03  2.03192E+02
  2.18561E+02 -4.74982E+03  1.76683E+03 -6.54631E+02 -1.55041E+02  3.23665E+03  1.52914E+03 -9.74453E+02
 -5.05672E+03  2.22435E+03 -6.38777E+02  1.68048E+03 -4.58370E+03 -1.02100E+03 -4.54209E+03 -2.18796E+03
 -1.50281E+03 -6.30729E+03  2.13658E+02 -4.67467E+03  6.15301E+03 -1.68240E+03  3.30692E+03  1.86811E+03
 -3.83686E+03  3.82619E+03 -2.09317E+03 -2.94029E+03  2.95761E+03 -1.33975E+03 -5.57329E+02 -5.52506E+02
  1.14834E+03  2.97044E+02  2.71891E+03 -9.60926E+02  2.95539E+03 -2.00760E+03  2.66097E+03  4.88959E+02
 -2.72819E+03 -1.05863E+03 -2.51152E+03  1.53861E+03 -1.29989E+03 -1.84419E+03  4.38214E+03  2.96747E+03
  1.81502E+01  2.69536E+03 -3.10730E+03 -8.91540E+02 -3.13381E+03  2.45923E+03 -8.89538E+02  6.09522E+03
 -5.24876E+02  4.08186E+02 -4.82524E+03  3.00330E+03 -3.37887E+03 -3.01457E+03  2.15261E+03 -2.30172E+03
 -2.28702E+03 -3.46500E+03  4.74628E+02  5.10034E+03 -2.22941E+03  2.44867E+03  3.80371E+03  2.07133E+03
 -4.16838E+03 -2.68540E+03 -1.79201E+03 -5.56528E+03 -1.98206E+02 -3.25786E+02  2.01444E+03 -6.95973E+03
  1.04871E+03 -2.48484E+03 -2.94916E+03  1.56421E+03 -1.06552E+03 -1.88004E+03 -6.19242E+03  4.63280E+03
  2.47036E+02  2.20868E+02  1.04401E+03 -4.95306E+02  4.53109E+03 -2.02197E+03  1.61137E+03 -3.49696E+03
  1.50184E+02  6.94141E+02  3.17886E+03  3.86413E+03  1.74493E+03  4.19389E+02 -2.07532E+02  1.47404E+03
 -1.12917E+03  2.78875E+03 -1.70243E+03 -4.89302E+03 -2.71622E+03 -2.50537E+03 -1.42383E+02 -6.03841E+02
 -2.28775E+03 -2.39423E+03  3.88499E+03 -5.33716E+02  2.41668E+02 -2.28053E+02  4.25616E+03  4.02026E+03
  4.62673E+03 -1.68702E+03  1.98628E+03  7.90244E+02  2.47938E+03 -4.89015E+02  4.68543E+02 -2.76170E+01
 -3.51435E+03  1.13144E+03 -2.69149E+03  3.24578E+03 -7.19185E+03  4.28858E+02 -2.10807E+03  3.71411E+03
 -2.92622E+03 -2.47452E+03  7.87873E+02 -2.14145E+03  1.99908E+03 -2.15856E+03  1.90983E+03 -8.45836E+02
  3.91458E+03  2.06515E+03 -1.91517E+01  2.59082E+03 -2.67729E+03  1.58408E+03 -1.72469E+03  4.06103E+03
  1.30787E+03  5.88547E+03  2.93057E+03  2.23767E+01  6.68809E+02 -3.35162E+02  1.67772E+03 -9.15240E+02
  1.07843E+03 -1.27664E+03 -1.67591E+03  1.82256E+03  7.62825E+02 -2.21259E+03 -3.05161E+03 -1.14623E+03
  1.23671E+03  1.21199E+03 -1.56150E+03 -6.16151E+02  4.38742E+02  1.36409E+03  1.95233E+03  1.81269E+03
 -1.76999E+03  1.85084E+03 -1.44742E+03  2.58960E+03 -2.00423E+02  3.80763E+03  2.51673E+03 -1.49811E+03
  1.24127E+03 -4.87582E+03 -3.06074E+03  1.96684E+03  9.11425E+02  6.39386E+02  1.94209E+03 -5.07986E+02
  1.67641E+03  3.93191E+02 -2.48527E+03  1.50120E+03  8.47891E+02 -2.96224E+03  2.17241E+03 -2.25389E+03
  1.91617E+02  1.46349E+03 -3.73317E+03  4.19395E+03 -1.80858E+03  2.41038E+03  2.09668E+02  4.32233E+03
 -2.96614E+03 -1.65767E+02 -8.75917E+02  9.00427E+02 -4.99680E+02 -4.36035E+03 -5.23078E+02 -3.50693E+03
  6.21387E+03 -2.63611E+03  6.42282E+03 -2.43781E+03  1.64737E+03 -5.13434E+03 -3.47577E+03  1.98357E+03
  1.12316E+03 -1.49460E+03  9.74525E+02  9.46845E+01 -3.16818E+02 -6.64172E+02  3.26462E+03 -3.70715E+01
 -2.20693E+03  1.90742E+03 -1.57600E+02 -1.07450E+03  7.75973E+02  2.86572E+03 -2.35271E+02 -1.64211E+03
  1.55416E+03 -2.13643E+03 -1.45049E+03 -5.54122E+03  1.56272E+03 -3.89580E+03 -1.89590E+03 -9.51470E+02
 -4.11122E+02  4.64505E+02 -3.13442E+03 -6.38343E+02  2.55751E+03  4.10837E+03 -2.37619E+03 -2.23715E+03
