 $NMID ID='MM_0lb_SNR50_15hz_g60_97.RAW', FMTDAT='(8E13.5)'
 TRAMP=1., VOLUME=1. $END
  3.14333E+05  3.78906E+03  3.38486E+05  2.52223E+05  8.58410E+04  3.40507E+05 -1.31999E+05  2.47313E+05
 -1.88027E+05  8.11948E+04 -1.13254E+05 -2.92632E+04 -3.74935E+02 -5.01196E+04  5.31414E+04 -4.03143E+03
  3.30304E+04  5.15674E+04 -1.47222E+04  7.46984E+04 -5.73033E+04  6.57001E+04 -8.22257E+04  3.05408E+04
 -8.28697E+04 -1.31914E+04 -5.77026E+04 -4.98908E+04 -9.32121E+03 -7.11826E+04  2.60041E+04 -4.21047E+04
  4.46846E+04  4.01833E+03  1.53528E+04  4.99677E+04 -3.40010E+04  4.62336E+04 -6.85235E+04 -2.86265E+03
 -5.41094E+04 -5.53211E+04 -8.10173E+03 -8.12776E+04  3.51759E+04 -5.37729E+04  4.81042E+04 -1.69899E+04
  4.35872E+04  9.19215E+03  3.23222E+04  2.22082E+04  1.06880E+04  2.79483E+04 -4.13168E+03  2.87008E+04
 -2.00847E+04  1.39435E+04 -2.17010E+04 -7.91429E+03  7.24986E+03 -7.03552E+03  2.36905E+04  1.32123E+04
  2.29110E+03  3.72461E+04 -3.46284E+04  3.62838E+04 -5.80852E+04 -3.54418E+02 -5.88882E+04 -4.30595E+04
 -1.14680E+04 -6.11192E+04  3.73518E+04 -4.74003E+04  5.83847E+04 -6.08593E+03  3.78988E+04  3.31799E+04
 -3.60304E+03  3.60437E+04 -3.17218E+04  1.63366E+04 -3.06555E+04 -6.49483E+02 -1.23213E+04 -1.29720E+04
 -5.25967E+03 -1.30774E+04  8.87210E+02 -1.32454E+04  7.02536E+03 -2.14712E+04  1.73321E+04 -1.41704E+04
  1.03335E+04  3.45185E+03 -5.16573E+03  1.11618E+04 -2.40489E+04 -6.77023E+03 -1.07237E+04 -3.28529E+04
  1.95785E+04 -4.60683E+04  4.97288E+04 -2.43815E+04  4.91167E+04  1.60367E+04  1.95225E+04  4.47706E+04
 -1.68530E+04  3.51564E+04 -3.09013E+04  7.96499E+02 -6.18732E+03 -2.89998E+04  1.80010E+04 -3.56600E+04
  4.26051E+04 -6.44767E+03  3.64505E+04  2.20728E+04  1.94387E+04  5.05486E+04 -3.63209E+03  5.11200E+04
 -3.35950E+04  3.36506E+04 -4.18728E+04  7.44617E+03 -4.11115E+04 -1.29841E+04 -2.39218E+04 -3.88492E+04
  1.01485E+04 -4.13652E+04  3.20773E+04 -1.43198E+04  3.21904E+04  1.02399E+04  6.34774E+03  2.09709E+04
 -1.00907E+04  9.31882E+03 -9.58243E+03 -6.31063E+03  8.19527E+03 -9.59534E+03  2.15531E+04  5.20640E+03
  8.03397E+03  2.28050E+04 -5.72866E+03  2.29745E+04 -2.05630E+04  1.36844E+04 -3.14983E+04  1.75223E+03
 -1.93933E+04 -1.66158E+04 -7.93396E+03 -1.89131E+04  4.46709E+03 -2.04977E+04  1.69383E+04 -2.15344E+04
  2.70865E+04 -1.31259E+04  3.08678E+04  2.63318E+03  2.02544E+04  2.16037E+04  6.78820E+03  3.35180E+04
 -1.92054E+04  2.98305E+04 -2.79119E+04  1.12682E+04 -1.90982E+04 -1.24628E+04 -6.80567E+03 -1.05635E+04
 -2.95318E+03 -9.17412E+03 -3.91886E+03  3.04960E+03 -1.26977E+04  3.61370E+03 -1.52141E+04 -5.47842E+03
 -1.12761E+04 -1.30215E+04  7.21740E+03 -2.50926E+04  8.38684E+03 -1.44446E+04  1.77269E+04 -5.70411E+03
  1.43728E+04  1.07396E+04 -6.62450E+02  2.24588E+04 -1.66339E+04  9.45333E+03 -2.06648E+04 -4.98127E+03
 -1.52862E+04 -1.81810E+04 -4.78599E+03 -2.37733E+04  1.31015E+04 -1.98431E+04  1.97317E+04 -9.48634E+03
  2.22666E+04 -2.23985E+03  1.22675E+04  1.74625E+03  7.83129E+03  1.83537E+03  1.26611E+04  1.92858E+02
  2.24796E+04  2.93266E+03  2.05518E+04  1.98218E+04  1.14639E+04  2.46649E+04 -4.82299E+03  3.31602E+04
 -2.48339E+04  3.03089E+04 -2.79169E+04  1.65891E+04 -3.53886E+04 -4.33418E+03 -2.30244E+04 -2.17411E+04
 -1.37527E+04 -2.96908E+04  4.51167E+03 -2.50437E+04  2.38902E+04 -1.76345E+04  1.86186E+04  7.45296E+03
  4.90446E+03  1.27875E+04 -9.80654E+03  1.51285E+04 -1.57148E+04  5.20751E+03 -1.27617E+04 -1.06724E+04
 -7.89428E+02 -1.66375E+04  2.46119E+03 -9.27848E+03  8.11792E+03  5.10854E+03  1.02420E+03  6.14559E+03
 -5.12487E+03  8.90037E+03 -4.90693E+03 -3.36978E+03  1.76678E+03 -1.68346E+04  7.66051E+03 -1.31715E+04
  1.62270E+04 -4.74427E+03  1.53428E+04  1.34857E+02  1.81636E+04  1.33282E+04  7.40893E+03  1.79810E+04
 -7.07394E+03  2.55809E+04 -1.46309E+04  1.32384E+04 -1.71358E+04  5.17181E+03 -1.20917E+04 -2.69877E+03
 -6.23697E+03 -4.34780E+03 -9.48995E+01 -2.54275E+03  1.41872E+03  3.18195E+03 -4.42105E+03  3.59473E+03
 -9.94912E+03 -4.83594E+02 -8.01845E+03 -7.42220E+03 -5.62661E+03 -1.36814E+04  3.42933E+03 -1.44863E+04
  1.24497E+04 -4.78199E+03  4.90625E+03  2.60116E+03  8.65379E+02  1.51462E+03 -3.34579E+03 -1.92754E+03
 -3.74789E+03 -7.93943E+03  1.28021E+03 -1.09809E+04  8.58936E+03 -1.01456E+04  2.08687E+04 -7.07259E+03
  2.11712E+04  1.53338E+03  9.74283E+03  9.08991E+03  1.99679E+03  1.08156E+04 -6.91972E+03  1.32066E+04
 -7.71222E+03  8.53923E+03 -5.84230E+03 -2.86972E+03  2.02130E+03 -2.86843E+02  7.07408E+03 -3.48944E+03
  5.16290E+03  6.64130E+03  4.75257E+03  6.90663E+03 -6.61817E+03  6.85897E+03 -1.17638E+04  8.93324E+02
 -7.11454E+03 -6.96614E+03  2.52453E+03 -1.50007E+04  5.93782E+03 -1.71451E+03  3.22881E+03 -1.52561E+03
  1.39355E+03  5.27294E+03 -6.23895E+03  5.75446E+03 -5.77447E+03 -1.31954E+03 -1.00613E+04 -2.60708E+03
 -1.04039E+04 -1.02356E+04  1.82098E+02 -1.39159E+04  6.47979E+03 -3.48219E+03  1.17059E+04  9.04411E+02
  9.40429E+03  4.79312E+03 -1.02543E+03  8.50336E+03 -8.06754E+03  4.50300E+03 -6.76552E+03 -1.95490E+03
 -6.05916E+03 -8.51397E+03 -2.08061E+03 -1.21904E+04  6.59893E+03 -8.06803E+03  8.35940E+03 -1.82157E+03
  3.37314E+03  4.80642E+03 -2.36112E+03 -3.60303E+02 -1.03140E+02 -3.58402E+03  3.27050E+03 -2.81987E+03
  7.24138E+03 -3.04516E+03  1.31113E+04  3.15196E+03  1.37288E+04  1.54448E+04  8.59021E+03  1.27350E+04
  5.49093E+02  6.90849E+03 -1.56158E+04  1.30339E+04 -1.46879E+04 -1.51942E+03 -9.56156E+03 -5.44706E+03
 -8.28370E+03 -7.52198E+03 -1.36444E+03 -1.43812E+04  6.48507E+03 -5.03097E+03  1.33211E+03 -3.65785E+03
  3.72136E+03 -2.09060E+03  7.43277E+01 -3.32048E+03  9.38007E+03 -2.09207E+03  5.65546E+03  3.14848E+03
  6.83292E+03  2.89027E+03  1.32210E+03  9.07225E+03 -4.84300E+03  8.45290E+03 -1.16416E+04  6.51648E+03
 -5.16616E+03 -1.44630E+03 -1.54483E+03 -4.93898E+03 -1.39172E+03 -7.94484E+03  2.30709E+03 -8.71205E+03
  9.72634E+03 -2.55040E+03  9.60428E+03  3.48336E+03  6.14898E+03  7.54154E+03  5.79498E+02  1.45770E+04
 -6.29141E+03  1.20887E+04 -3.20973E+03  2.19920E+03 -2.74223E+03 -2.36225E+03 -2.52877E+03 -5.79951E+03
  4.46800E+03 -2.84174E+03  1.71730E+03  3.97535E+03 -2.38094E+03 -3.60199E+02 -5.19128E+03 -5.38625E+03
 -2.07440E+03 -2.55641E+03  3.69391E+03 -6.07647E+03  7.55323E+03 -5.65621E+03  7.87126E+03 -1.55229E+03
  4.67939E+03  2.27986E+03 -5.33302E+01  6.93248E+03  4.03171E+02  5.07474E+03 -7.50294E+03  3.27527E+03
 -7.47540E+03  4.54376E+03 -3.25332E+03 -5.60154E+03  4.93362E+02 -1.44978E+04  5.26482E+03 -1.99190E+03
  5.29196E+03  2.67365E+03 -1.03240E+03  7.97011E+03 -2.68479E+02 -1.96281E+02  3.53190E+03 -1.32868E+03
 -1.35144E+03  6.22100E+01  8.03008E+02  1.37615E+03 -2.30357E+03  3.76520E+03 -1.43315E+03  2.53983E+03
 -3.92232E+03  7.28905E+03 -5.55722E+03  7.98909E+03 -8.67928E+03 -3.12082E+03 -7.17710E+03 -2.96730E+03
 -2.21668E+03 -5.81202E+03 -4.21515E+02 -6.74533E+03  7.14890E+03 -4.57342E+03  8.19828E+03 -1.40457E+03
  3.67486E+03  2.27529E+03  4.63752E+03  1.78360E+03 -6.99779E+03  3.24729E+03 -5.75720E+03 -3.54776E+03
 -2.03682E+03  2.29589E+03  1.88214E+03 -3.53153E+03  2.66795E+03 -1.65287E+03  2.93930E+03  1.70988E+02
  9.09366E+02  4.59920E+03  7.39282E+03  1.31760E+03  6.47028E+03  4.02077E+03  2.27406E+03  3.95345E+02
  4.36705E+02  1.82189E+02  2.43849E+03 -1.52179E+01  1.18600E+03  3.05557E+03  2.20316E+01  2.24385E+02
 -1.20915E+03  3.99639E+02  1.51243E+02 -6.19120E+02 -4.52986E+03  2.58814E+02  7.72859E+02 -2.34573E+03
 -2.02086E+03 -2.39668E+03 -2.74826E+02 -4.19686E+03  3.60461E+02 -4.00282E+03 -2.42088E+02  6.71537E+03
  2.82283E+03 -2.02483E+03 -1.82090E+03 -2.79932E+03 -2.62376E+03 -6.66592E+03 -3.11368E+03 -1.14492E+03
  6.29550E+02 -2.45219E+03 -2.14294E+02  2.60968E+03 -2.15077E+03  7.82312E+02 -3.52351E+03 -3.34017E+03
 -2.93202E+03  4.68163E+03 -2.41958E+03  1.19830E+03  2.46551E+03 -3.03865E+03  4.26197E+03 -6.79070E+03
 -1.07640E+03 -1.03721E+03  9.72016E+03  6.93182E+02  1.84184E+02  6.47813E+03 -4.07861E+02  8.08365E+03
 -5.16902E+03  2.26371E+03 -5.39281E+03  3.69867E+03  5.50504E+03 -1.44872E+02 -4.06945E+02 -2.28954E+03
  6.41962E+03  4.13262E+02 -1.80141E+03  4.38970E+03 -6.58153E+03  2.23074E+03 -3.21533E+03  1.99464E+03
 -3.23847E+02  2.21600E+03 -1.57175E+03  2.18411E+03  2.19332E+03  1.95841E+03  4.80074E+01  3.44833E+02
 -2.99269E+02  4.75918E+03 -5.76566E+02  2.02323E+03 -6.01443E+03 -3.44974E+03 -5.58503E+03 -4.08292E+03
 -4.16986E+03 -6.42106E+03 -1.47543E+02 -8.12676E+03  4.51904E+03 -1.00968E+03  3.71990E+03 -4.19415E+03
  5.92816E+03 -4.95487E+02 -1.41364E+03  5.36335E+03  6.51962E+03  4.68402E+03 -1.72353E+03 -1.93808E+03
  3.04876E+03  3.62604E+03 -1.30905E+03 -4.10983E+02 -3.76823E+03  3.12991E+03  1.58760E+03  3.01168E+03
 -3.82297E+03 -2.43962E+03  1.36183E+02 -4.04855E+03  3.30164E+03  6.80251E+03 -2.93069E+02 -1.58256E+03
  2.02664E+03  1.86846E+03  1.77920E+03 -3.41223E+03  1.87128E+03 -1.52446E+03  1.03897E+03  1.85428E+03
 -3.60749E+03  3.51198E+03 -2.40019E+03  2.80595E+03 -1.53055E+03 -2.22689E+03 -5.83936E+03  7.75208E+01
 -3.23588E+03 -4.61348E+03 -1.21146E+03 -2.43807E+03  6.38676E+02 -3.84844E+03  1.06822E+03  1.47453E+03
  3.32498E+03  1.23185E+03  2.43482E+03  2.57322E+02  5.74882E+01 -9.03333E+02 -1.57986E+03  7.54054E+02
  3.30578E+03 -2.52420E+03  1.46944E+03 -6.33680E+03 -1.17055E+03  3.23711E+03  6.94454E+02  1.37103E+03
 -9.92512E+02  4.18209E+02  2.11157E+02  3.46390E+03 -1.36081E+03 -1.67393E+03 -5.24046E+03 -3.01813E+03
  3.96443E+03 -3.33201E+03  3.73423E+03  2.50740E+03 -3.60424E+02  9.62599E+02 -3.69075E+03  2.70193E+03
  2.86364E+02 -2.24265E+02  1.76499E+03  3.42452E+03 -6.13127E+02 -1.50003E+03 -2.84475E+03 -1.47326E+03
 -2.03646E+03 -7.72602E+02 -2.64287E+03  7.20409E+02  1.44262E+03 -7.94158E+02  4.44643E+03  2.01957E+03
 -4.14981E+02  4.34302E+03  5.94002E+02 -4.91062E+03  1.22264E+03  7.39031E+02  6.97942E+03 -4.42223E+03
 -6.36088E+02 -6.63114E+02  3.07985E+03  1.24026E+03  1.50806E+03 -1.79402E+03  1.07450E+03 -1.73841E+03
