 $NMID ID='MM_0lb_SNR50_8hz_g55_22.RAW', FMTDAT='(8E13.5)'
 TRAMP=1., VOLUME=1. $END
  3.12121E+05 -5.27164E+03  3.40497E+05  2.51275E+05  8.88619E+04  3.39923E+05 -1.32330E+05  2.46975E+05
 -1.88566E+05  8.65112E+04 -1.14402E+05 -3.22955E+04  2.81884E+03 -5.58492E+04  5.28154E+04  2.82021E+03
  3.04733E+04  5.86849E+04 -2.11923E+04  8.01031E+04 -6.31171E+04  6.68026E+04 -9.01734E+04  3.58068E+04
 -8.07130E+04 -1.59897E+04 -6.21793E+04 -4.85033E+04 -1.80576E+04 -7.61843E+04  2.53525E+04 -5.05295E+04
  4.09146E+04 -1.67544E+02  1.62993E+04  4.36219E+04 -3.48426E+04  4.55576E+04 -7.06482E+04 -2.56557E+03
 -5.33053E+04 -5.87453E+04 -3.00227E+03 -8.59935E+04  3.14075E+04 -6.00372E+04  4.99378E+04 -1.54007E+04
  4.63687E+04  1.49973E+04  3.86994E+04  2.78829E+04  1.52118E+04  2.95850E+04 -9.14099E+03  2.79719E+04
 -2.12432E+04  1.71681E+04 -1.67802E+04 -6.05789E+03  6.73529E+03 -7.66945E+03  2.05830E+04  1.54545E+04
  3.80932E+03  3.71090E+04 -3.26417E+04  3.20323E+04 -6.82484E+04  3.14967E+03 -5.63974E+04 -4.67821E+04
 -1.65017E+04 -6.57110E+04  4.07247E+04 -5.70389E+04  6.24932E+04 -9.44526E+02  4.00036E+04  3.79535E+04
 -3.01004E+03  3.53960E+04 -3.17524E+04  1.88113E+04 -3.77316E+04 -2.53579E+03 -1.36222E+04 -1.06415E+04
 -1.20919E+04 -1.41737E+04 -9.55704E+03 -1.30180E+04  5.34361E+03 -1.69082E+04  2.20478E+04 -2.14815E+04
  1.57159E+04  7.40407E+03 -1.36298E+04  1.22893E+04 -2.56540E+04 -1.25921E+04 -7.46262E+03 -3.10752E+04
  3.32619E+04 -4.64013E+04  4.66116E+04 -2.15706E+04  4.76842E+04  2.60910E+04  1.70252E+04  4.93727E+04
 -1.88292E+04  4.18986E+04 -2.83982E+04 -2.46969E+03 -1.07496E+04 -3.16492E+04  2.25034E+04 -3.72939E+04
  4.69504E+04 -6.90198E+03  3.76552E+04  2.99231E+04  2.26159E+04  5.24773E+04 -9.59441E+03  5.46194E+04
 -4.19783E+04  4.03857E+04 -5.02939E+04  1.41675E+04 -4.45086E+04 -1.04390E+04 -2.74989E+04 -4.43136E+04
  9.67760E+03 -4.96413E+04  3.94933E+04 -2.00644E+04  3.13644E+04  9.70256E+03  6.70663E+03  1.44439E+04
 -2.13090E+04  5.93721E+03 -1.58447E+04 -2.55176E+03  1.28239E+04 -1.37830E+04  2.01766E+04  5.62109E+03
  1.76880E+04  2.66662E+04 -1.84378E+03  2.95168E+04 -2.92704E+04  2.11541E+04 -3.67825E+04  8.12000E+03
 -2.53627E+04 -1.62261E+04 -1.40516E+04 -2.64549E+04  2.86819E+03 -2.55877E+04  2.34398E+04 -2.51235E+04
  3.82978E+04 -1.21508E+04  3.80349E+04 -2.93920E+03  2.60275E+04  2.37059E+04  9.38564E+03  4.36867E+04
 -2.32888E+04  3.01157E+04 -2.87823E+04  1.49388E+04 -1.95514E+04 -1.02013E+04  8.47974E+02 -9.53178E+03
  3.07667E+03 -3.30505E+03 -1.53376E+02  1.38472E+04 -1.88045E+04  3.15614E+03 -2.36362E+04 -6.24641E+03
 -7.05142E+03 -2.61902E+04  4.91237E+03 -3.33645E+04  1.89833E+04 -2.93856E+04  2.36436E+04 -6.29633E+03
  1.39014E+04  1.26603E+04 -1.69697E+03  1.82497E+04 -1.66596E+04  1.55727E+04 -2.74165E+04 -2.49442E+03
 -1.85608E+04 -1.96821E+04 -7.26022E+03 -3.17276E+04  1.29303E+04 -2.42084E+04  2.84378E+04 -1.82955E+04
  2.58807E+04 -3.84946E+03  1.37439E+04  1.22652E+04  4.98598E+03  1.01804E+04  1.26557E+04 -8.47555E+02
  2.37484E+04  1.47523E+03  2.42366E+04  1.74525E+04  1.80146E+04  4.02939E+04  4.85144E+03  4.84713E+04
 -2.73184E+04  4.18778E+04 -4.77328E+04  2.41180E+04 -4.97431E+04 -8.00625E+03 -3.97706E+04 -2.70214E+04
 -1.79625E+04 -3.91367E+04  2.33255E+04 -3.34585E+04  3.45290E+04 -2.13308E+04  2.48468E+04  7.13704E+03
  7.98316E+03  2.24907E+04 -2.19671E+04  1.50918E+04 -2.25857E+04 -1.42786E+03 -1.61756E+04 -1.83151E+04
 -3.77029E+03 -2.24258E+04  1.12796E+04 -1.68760E+04  1.44527E+04  1.66949E+03  1.89082E+03  1.10217E+04
 -6.97450E+03  5.17352E+03 -1.00930E+04 -7.18837E+03 -7.40282E+02 -1.91516E+04  8.66401E+03 -2.33487E+04
  2.92907E+04 -8.98136E+03  3.15560E+04  3.34484E+03  2.04172E+04  1.11241E+04  1.90726E+04  2.94790E+04
 -7.11447E+03  4.06383E+04 -1.63308E+04  2.34111E+04 -2.15004E+04 -1.22116E+03 -1.46698E+04 -9.48674E+03
 -6.58497E+03 -5.99193E+03  1.63610E+02  2.75808E+03 -4.84174E+03  4.04593E+03 -7.77123E+03 -1.06783E+03
 -1.66010E+04 -1.75652E+03 -2.04197E+04 -1.46274E+04 -1.10592E+03 -2.24728E+04  8.77413E+03 -2.33307E+04
  1.98665E+04 -4.49984E+03  1.10508E+03  6.11322E+03  7.05358E+03  7.11134E+03 -1.04956E+04  1.77156E+03
 -1.45764E+04 -1.03089E+04  1.21901E+03 -5.15530E+03  1.15242E+04 -1.37188E+04  2.07811E+04 -6.38673E+03
  2.51946E+04  5.86551E+03  2.24540E+04  1.93634E+04  4.78820E+03  1.73259E+04 -1.08347E+04  1.30940E+04
 -2.14170E+04 -4.97247E+03 -1.31018E+04 -5.24164E+03 -1.16012E+03 -3.41282E+03  5.00396E+03 -5.64485E+03
  9.36159E+03  5.56004E+03  2.92179E+03  1.77878E+04 -5.19970E+03  1.35020E+04 -1.57883E+04  6.16893E+03
 -7.16102E+03 -1.64315E+04  1.76051E+03 -1.94245E+04  8.74609E+03 -1.00724E+04  3.19518E+03  8.92401E+03
 -1.49986E+03  1.43013E+04 -6.97812E+03  7.69807E+03 -1.72441E+04  5.12886E+03 -1.51318E+04 -4.51132E+03
 -3.53586E+03 -1.55330E+04  8.75881E+03 -1.70243E+04  1.45959E+04 -1.15653E+04  1.47039E+04  5.18048E+03
  8.36674E+03  1.76350E+04  3.79521E+03  2.61649E+04 -1.51613E+04  1.06790E+04 -2.14118E+04  4.01505E+03
 -1.01667E+04 -9.36775E+03  1.98959E+03 -1.47484E+04  6.08168E+03 -7.53878E+03  9.33768E+03 -3.02293E+03
 -1.39652E+03  7.87779E+03 -8.63747E+02  7.09376E+03 -6.28259E+03 -2.64970E+03 -6.34323E+03 -8.31512E+03
  1.29055E+04 -6.43899E+03  1.99669E+04  4.34354E+02  1.97231E+04  2.15208E+04  1.92823E+04  3.16542E+04
 -1.02504E+04  3.11532E+04 -1.92568E+04  2.33560E+04 -2.83316E+04  5.21237E+03 -2.46160E+04 -6.91531E+03
 -1.81488E+04 -1.69651E+04  1.89561E+03 -1.95480E+04  1.26663E+04 -1.42864E+04  3.78178E+03 -8.08041E+03
 -5.93922E+02 -9.53922E+03  2.09364E+03 -5.22308E+03  5.01113E+03 -2.57913E+03  1.06375E+04 -2.10544E+03
  1.50551E+04  9.19069E+03  1.11779E+04  1.25552E+04 -2.76175E+03  1.21937E+04 -1.69633E+04  9.67025E+03
 -1.69782E+04 -4.75851E+03 -5.05555E+03 -1.17270E+04 -3.22398E+03 -1.81120E+04  8.62188E+03 -1.50819E+04
  1.80415E+04 -5.55472E+03  3.16910E+04  2.62507E+03  1.56534E+04  1.51697E+04  1.40217E+02  2.63815E+04
 -9.20674E+03  1.44692E+04 -1.72952E+04  1.11538E+04 -1.08504E+04 -5.47327E+03 -9.68004E+03 -1.98568E+02
  1.60222E+03 -3.06108E+03  6.10931E+03  4.77597E+03 -1.01322E+04 -1.79170E+02 -1.34042E+04  3.86974E+03
 -1.99260E+02 -1.33251E+04 -2.87060E+03 -1.36627E+04  1.22002E+04 -1.24287E+04  2.24344E+04 -4.43960E+03
  2.13054E+04  1.21946E+04  1.40883E+04  1.21789E+04 -7.93218E+03  2.00517E+04 -7.73517E+03  8.79998E+03
 -1.86793E+04  4.07857E+03 -1.05129E+04 -1.29336E+04 -4.89552E+03 -1.28021E+04  1.58024E+04 -9.50404E+03
  6.23115E+03 -7.11014E+03  1.62690E+04 -5.40182E+02  3.10356E+03  7.87694E+03 -8.26460E+03  1.36451E+03
 -8.73137E+02 -3.18972E+03  1.55890E+03 -2.16836E+03  6.81386E+03  5.08496E+03  8.87118E+03  1.23986E+04
 -8.24191E+03  7.64963E+03 -8.31479E+03  1.60722E+04 -1.35204E+04  1.74418E+03 -2.12748E+04 -9.96641E+03
 -1.11346E+04 -2.29504E+04  6.39442E+03 -2.22993E+04  9.01494E+03 -1.64452E+04  1.53223E+04 -1.86287E+03
  6.33611E+03  7.20731E+03  5.53305E+03  1.21723E+04 -3.72916E+03  1.03485E+04 -1.30769E+04  7.09831E+02
 -4.29554E+03 -7.19439E+03  1.88264E+03 -2.62602E+03  3.53567E+03 -3.57975E+03  5.00581E+03  1.16204E+03
  4.45192E+03  1.00440E+04  5.33295E+03  1.26362E+03  3.46816E+03  3.57669E+03 -3.69478E+03 -4.46575E+02
  4.18854E+03 -9.44095E+03  3.61624E+01  3.93364E+03  1.53227E+03  1.43129E+04 -3.60872E+03  1.28279E+04
 -6.93102E+03  8.41306E+03 -6.22586E+03  1.35705E+03 -1.00852E+04 -1.74230E+03 -8.54887E+03 -6.98634E+03
  6.63689E+03 -1.74963E+03  3.57841E+03 -3.12253E+03  1.66949E+03  4.14786E+03 -7.82667E+03  2.35783E+03
 -3.90565E+03  8.57880E+03 -2.86497E+03 -2.63457E+03 -9.19938E+03 -1.18455E+04 -1.63943E+03 -6.35181E+03
  4.70679E+03 -6.02505E+03  1.41633E+04 -3.87153E+03  7.99870E+03  5.18596E+03 -8.10156E+02  8.21413E+03
 -3.12319E+03 -2.12243E+03 -4.16537E+03  1.12009E+03  2.24354E+03 -5.44978E+03  1.26841E+04 -1.12113E+04
  1.40244E+04  3.34076E+03  1.49375E+04  7.61711E+03  1.40725E+03  1.62862E+04 -8.70608E+03  9.33386E+03
 -1.46878E+04  4.64402E+03 -5.82210E+03  5.32893E+03 -7.02470E+03 -1.16973E+04  2.20792E+03 -8.92735E+03
  1.36845E+04 -2.94733E+03  9.72835E+03  2.25238E+03  3.65861E+03  4.45218E+03 -5.54985E+03  5.23228E+03
 -3.56601E+03  5.36698E+03 -2.03857E+03  1.92044E+03 -2.33716E+03 -1.11215E+03 -3.74460E+03  9.24974E+03
 -1.25694E+04 -2.61841E+03 -8.92170E+03  4.86672E+03 -1.41029E+04 -1.43140E+03 -1.66341E+04 -9.47181E+03
 -5.68026E+03 -1.70270E+04 -6.39882E+02 -2.32758E+04  1.10360E+04 -1.26797E+04  1.41116E+04 -8.61497E+03
  1.18743E+04  8.77314E+02  8.02519E+03  7.54382E+03  5.34320E+02  8.67377E+03 -7.86999E+03  1.41502E+04
 -4.96665E+03 -3.76274E+02 -2.44533E+03  2.36411E+03  1.86195E+03 -3.21515E+03  1.38023E+02  2.36265E+03
 -3.19786E+03  7.80961E+03 -6.32206E+03  4.93292E+03 -8.33452E+03 -8.45658E+03 -4.12783E+03 -2.33318E+03
  5.94559E+03 -8.18992E+03  1.22712E+04 -2.78857E+03  8.70883E+03  6.57806E+03  4.39230E+03  1.37445E+04
 -3.92789E+03  2.20504E+04 -1.29247E+04  3.39036E+03 -1.68906E+04 -3.73101E+03 -1.84003E+04 -6.80471E+03
 -1.43478E+04 -1.41464E+04  8.22891E+03 -1.10234E+04  5.03761E+03 -2.17735E+03  1.52384E+04 -5.57499E+03
  7.89943E+03  2.22552E+03  2.09809E+03  7.47926E+03  2.44309E+03  4.73065E+03 -6.83507E+02 -8.70590E+03
  4.61468E+03 -2.01287E+03  3.03701E+03 -3.15104E+03  2.30766E+03  2.41936E+03  1.06049E+03  6.40870E+03
 -1.41752E+04  7.02486E+03 -3.24849E+03 -6.99170E+03 -5.81246E+03 -8.42955E+03 -2.87709E+03 -1.47015E+04
  6.82612E+03 -1.09237E+04  1.14274E+04 -6.52671E+03  1.35146E+04  8.04602E+03 -1.46281E+03  8.27975E+03
  1.05508E+03  1.10321E+04 -6.60833E+03  7.06903E+03 -1.33117E+03 -1.78693E+03 -9.86860E+03  2.05645E+03
 -1.87489E+03 -1.58721E+03 -4.17830E+03 -2.92766E+03 -2.05213E+03  1.57734E+02  1.10965E+03 -5.54087E+03
  1.92877E+03 -1.19281E+03 -1.94234E+03 -1.29381E+04  5.34805E+03 -1.64605E+03  6.51022E+03 -4.95203E+03
  7.36577E+03  2.88533E+03  1.07511E+04  5.24171E+03  2.03202E+02  1.01611E+04 -5.18935E+03  5.62318E+03
