 $NMID ID='MM_0lb_SNR50_7hz_g60_52.RAW', FMTDAT='(8E13.5)'
 TRAMP=1., VOLUME=1. $END
  3.14949E+05 -3.95633E+03  3.36683E+05  2.54520E+05  8.48118E+04  3.34859E+05 -1.37398E+05  2.49384E+05
 -1.83753E+05  8.65026E+04 -1.11884E+05 -4.28843E+04  2.33066E+03 -5.05822E+04  5.29369E+04 -6.45224E+03
  2.50650E+04  4.53489E+04 -1.61161E+04  7.43341E+04 -6.16774E+04  6.02732E+04 -8.37284E+04  2.83112E+04
 -7.55302E+04 -1.92366E+04 -6.23191E+04 -5.68411E+04 -1.44492E+04 -7.46602E+04  2.46747E+04 -4.53582E+04
  4.48098E+04  6.48871E+03  2.10864E+04  4.49289E+04 -3.65177E+04  5.32700E+04 -6.44772E+04  8.40999E+03
 -4.95294E+04 -6.09211E+04 -1.13878E+04 -8.55551E+04  2.95677E+04 -6.08305E+04  5.04459E+04 -1.69868E+04
  5.00514E+04  1.61244E+04  2.73977E+04  3.14117E+04  1.66473E+04  2.44714E+04 -3.36307E+03  2.53081E+04
 -2.79872E+04  6.63345E+03 -2.39788E+04 -2.08990E+03  7.89411E+03 -1.23888E+04  2.44456E+04  2.29169E+04
  1.03975E+04  4.04041E+04 -3.06957E+04  4.21564E+04 -6.31704E+04  2.25535E+02 -6.09942E+04 -5.43332E+04
 -1.73953E+04 -7.02870E+04  4.88198E+04 -4.57699E+04  6.40174E+04 -1.05941E+04  3.65914E+04  3.63963E+04
 -4.07284E+03  4.13979E+04 -3.52059E+04  2.23357E+04 -3.41426E+04 -4.20762E+03 -8.17477E+03 -1.83524E+04
 -1.52380E+04 -1.24392E+04 -5.35248E+02 -1.20255E+04  7.92192E+03 -1.80872E+04  1.30809E+04 -1.04454E+04
  1.22558E+04  5.77069E+03 -1.53078E+04  1.31184E+04 -2.29083E+04 -9.90616E+03  2.74671E+03 -4.21857E+04
  2.77758E+04 -4.50057E+04  5.08341E+04 -2.70133E+04  5.16943E+04  1.21978E+04  1.93191E+04  5.22788E+04
 -1.50478E+04  3.62302E+04 -2.47872E+04  5.31156E+03 -1.75746E+04 -2.37259E+04  2.71174E+04 -3.25835E+04
  5.48578E+04 -1.07854E+04  3.78663E+04  1.79328E+04  2.44385E+04  5.77956E+04 -6.86652E+03  5.87214E+04
 -3.74285E+04  4.30912E+04 -5.10010E+04  1.26489E+04 -4.76145E+04 -2.53804E+04 -2.29207E+04 -4.63989E+04
  7.73388E+03 -4.41062E+04  3.72685E+04 -2.13388E+04  2.24900E+04  1.32915E+04  1.77151E+03  2.23530E+04
 -1.58362E+04  8.18400E+03 -8.69470E+03 -3.83893E+03 -2.25334E+03 -7.27901E+03  2.01298E+04  2.07070E+03
  1.23300E+04  2.22998E+04 -2.63491E+03  2.97815E+04 -2.48478E+04  1.25771E+04 -3.70788E+04 -2.49058E+03
 -2.07003E+04 -1.02529E+04 -1.22115E+04 -3.45365E+04  1.96074E+03 -2.89627E+04  1.71352E+04 -2.59754E+04
  4.05500E+04 -1.58392E+04  4.44782E+04  2.75534E+03  2.56066E+04  2.68518E+04  6.30032E+03  4.19888E+04
 -2.80304E+04  3.71155E+04 -3.09188E+04  8.15898E+03 -2.64450E+04 -8.64318E+03 -2.39567E+02 -9.32375E+03
  3.69515E+03 -1.50646E+03 -1.29528E+04  1.10435E+04 -1.87070E+04  9.37080E+03 -1.95350E+04 -3.08397E+03
 -1.32010E+04 -2.82063E+04  7.59072E+03 -3.23076E+04  2.69382E+04 -1.59750E+04  2.83079E+04 -4.51600E+03
  1.66838E+04  1.77708E+04  1.71320E+03  2.57192E+04 -1.67751E+04  1.81491E+04 -1.88072E+04 -1.77059E+03
 -2.29757E+04 -2.43149E+04 -2.18827E+03 -4.07322E+04  1.71707E+04 -2.42287E+04  2.90354E+04 -1.40741E+04
  2.25956E+04  6.18165E+03  1.94212E+04  3.49163E+03  1.22446E+04 -1.27800E+03  1.03975E+04 -2.52601E+03
  1.95900E+04  4.75530E+02  3.17401E+04  2.61069E+04  2.03553E+04  4.17864E+04 -2.65847E+03  4.51460E+04
 -2.57893E+04  3.95471E+04 -4.70091E+04  2.06766E+04 -5.12709E+04 -4.80852E+02 -3.76120E+04 -3.19727E+04
 -1.06740E+04 -3.96572E+04  1.89481E+04 -3.87153E+04  2.91717E+04 -1.47333E+04  2.34167E+04  9.99243E+03
  1.01143E+04  2.14266E+04 -1.23194E+04  1.67700E+04 -2.33479E+04  6.80974E+03 -1.17951E+04 -1.93717E+04
 -3.17462E+03 -1.96789E+04  1.23313E+04 -1.44103E+04  2.08897E+04 -2.18835E+01 -6.36931E+02  1.63590E+04
 -1.06502E+04  2.29933E+03 -1.60318E+04 -1.93052E+03 -4.96444E+03 -2.11772E+04  1.32707E+04 -2.58999E+04
  2.71113E+04 -1.60942E+04  3.00144E+04  2.11194E+03  2.79726E+04  2.49935E+04  1.23570E+04  2.96605E+04
 -1.08312E+04  4.13554E+04 -3.09073E+04  1.92645E+04 -2.68474E+04  6.40203E+03 -1.76060E+04 -8.45727E+03
 -1.15915E+04 -1.39928E+03 -1.51531E+03 -4.10756E+03 -1.54495E+03  2.13226E+03 -1.06162E+04  1.05486E+04
 -1.01604E+04 -3.02167E+03 -1.01800E+04 -2.17426E+04 -3.39731E+03 -2.92229E+04  1.73721E+03 -2.05708E+04
  1.08701E+04 -4.86787E+03  7.69228E+03  1.02957E+04  5.73939E+03  7.21625E+03 -7.83878E+03  5.46127E+02
 -4.08749E+03 -2.35116E+03 -7.79327E+02 -1.76753E+04  1.38586E+04 -1.06163E+04  2.19467E+04 -1.57362E+04
  3.39338E+04  2.12963E+03  2.04063E+04  1.19045E+04  2.38775E+03  2.49778E+04 -2.00205E+04  2.13900E+04
 -1.80916E+04 -6.90874E+02 -1.51223E+04 -8.35478E+03  2.53271E+03 -4.50663E+03  5.65321E+03 -7.44847E+03
  1.29282E+04  1.54082E+04  1.94579E+03  1.16674E+04 -1.08779E+04  1.08405E+04 -1.55078E+04  7.03623E+03
 -1.49716E+04 -1.29229E+04  5.92788E+03 -1.37350E+04  1.02725E+04 -1.00287E+04  5.38187E+03  6.69095E+03
  1.01217E+04  1.75718E+04 -1.17277E+04  1.52095E+04 -1.58268E+04  6.61343E+03 -2.51934E+04 -1.11777E+04
 -6.99432E+03 -1.44594E+04  6.06728E+03 -2.55095E+04  2.19052E+04 -1.06306E+04  2.17288E+04  1.28040E+03
  1.22704E+04  1.68283E+04 -1.58210E+03  1.43426E+04 -1.51042E+04  1.16553E+04 -1.51855E+04 -6.64531E+03
 -8.22177E+03 -1.21235E+04 -4.67818E+03 -1.98424E+04  4.86978E+03 -1.48086E+04  6.28553E+03 -5.60128E+03
  1.07889E+04  2.71742E+03  3.36976E+03  6.75951E+03 -5.75662E+03 -2.10114E+03  4.85758E+02 -1.30067E+04
  1.63753E+04 -4.76329E+03  2.26473E+04  5.12117E+03  1.87320E+04  1.99859E+04  1.96578E+04  2.66914E+04
 -3.38063E+03  2.98492E+04 -2.92795E+04  2.13890E+04 -3.47856E+04  1.18953E+03 -2.80038E+04 -8.82617E+03
 -2.06239E+04 -2.77485E+04  7.58825E+02 -1.35061E+04  5.29009E+03 -1.50457E+04  2.50981E+03 -9.07047E+03
  6.47153E+03 -3.82957E+03 -8.20112E+02  1.34497E+02  2.37973E+03 -7.04309E+03  6.14972E+03 -1.60287E+03
  1.55727E+04 -1.91491E+02  1.26012E+04  1.14984E+04 -3.51271E+03  1.07860E+04 -1.90472E+04  1.26885E+04
 -1.54517E+04 -2.43834E+03 -1.38049E+04 -1.27261E+04 -4.32772E+03 -2.20146E+04  1.56318E+04 -2.15775E+04
  2.34606E+04 -1.85664E+04  1.67656E+04  4.02689E+03  1.15409E+04  1.92720E+04 -6.10521E+03  3.11390E+04
 -1.04673E+04  1.64857E+04 -1.34208E+04  6.75502E+03 -1.08550E+04 -2.19107E+03 -9.35083E+03 -2.50543E+03
  8.85035E+03  3.07641E+02 -5.29363E+03  8.94274E+02 -9.93676E+03  8.12883E+03 -1.78329E+04 -4.90883E+03
 -5.55719E+03 -1.68757E+04  1.79924E+03 -1.63903E+04  9.05148E+03 -1.54234E+04  1.46493E+04 -8.35476E+03
  1.42974E+04  1.07223E+04  1.02849E+04  2.09116E+04 -6.31546E+03  1.88344E+04 -1.75750E+04  8.23962E+03
 -1.47107E+04 -1.85231E+03 -1.46964E+04 -1.42505E+04  4.02265E+03 -2.00510E+04  7.47066E+03 -1.51403E+04
  5.48068E+03 -4.80644E+03  1.19670E+04  4.02480E+03  3.52602E+03  6.55495E+03  5.15607E+02  8.32215E+03
  2.95568E+03  8.06259E+03  4.09795E+03  5.87195E+03  8.72079E+03  8.66562E+03  2.34766E+03  1.59436E+04
 -2.48365E+03  2.13133E+04 -1.69477E+04  1.25832E+04 -1.75910E+04  2.35109E+03 -2.50342E+04 -3.80501E+03
 -1.11275E+04 -2.17058E+04  3.74009E+03 -2.06019E+04  7.94992E+03 -1.75360E+04  1.59749E+04 -8.17344E+03
  1.16629E+04  4.20046E+03 -1.44671E+03  1.73449E+04 -2.76235E+03  6.82436E+03  8.53656E+02 -5.69226E+02
 -2.55338E+03 -7.67216E+03  6.87249E+02 -1.08537E+04  6.33453E+03 -3.25210E+03  4.83653E+03  9.69776E+02
 -8.15127E+02  1.95496E+03  3.51108E+03  4.81034E+03 -2.84289E+03  1.27832E+04  5.97246E+03 -2.15408E+03
  8.97863E+03 -1.00087E+04  9.02106E+03  6.64004E+03  8.32152E+03  1.03863E+04 -6.65880E+03  1.11967E+04
 -9.54317E+03  1.25107E+04 -1.17306E+04  7.73838E+02 -8.89604E+03 -8.18175E+03 -6.06473E+03 -2.93321E+03
  2.04874E+03 -6.03312E+03  2.06353E+03 -1.07676E+04  7.46073E+03  3.46253E+03 -6.06741E+03  8.20532E+03
 -1.42503E+04 -7.32031E+02 -7.42912E+03 -4.07665E+03 -3.59469E+03 -4.76949E+03  4.18465E+03 -2.10290E+04
  1.29379E+04 -8.26271E+03  5.33349E+03 -1.76340E+03  3.84530E+03  6.61733E+03  3.97679E+02  1.40690E+04
 -5.39635E+03  5.02016E+03 -5.77598E+03 -1.08615E+04 -7.42789E+01 -1.18107E+04  1.17967E+04 -2.22682E+03
  1.71270E+04  7.98746E+03  1.57093E+04  1.02489E+04 -5.28430E+03  1.11536E+04 -7.39330E+03  1.56980E+04
 -1.01313E+04  4.32478E+03 -8.32559E+03 -6.13612E+03 -1.65879E+03 -7.34336E+03  2.02591E+03 -8.71136E+03
  1.19937E+04 -1.03060E+04  1.10987E+04  7.73713E+03 -2.30072E+03  8.16421E+03 -5.70793E+03  9.04365E+03
 -7.69278E+03  2.17795E+02 -2.11419E+03  6.16997E+03 -1.42436E+02  6.43497E+03 -7.08193E+03  1.00408E+04
 -8.60518E+03  6.28377E+03 -6.34945E+03 -1.43150E+03 -6.65224E+03  7.74162E+03 -2.15252E+04 -1.12232E+04
 -4.50934E+03 -1.58644E+04  1.23058E+03 -2.15192E+04  1.30713E+04 -1.63838E+04  2.41773E+04 -4.35652E+03
  1.72062E+04  4.33488E+03  1.61032E+04  8.98623E+03 -2.17089E+03  2.20313E+04 -9.02605E+03  1.28271E+04
 -8.78481E+03  8.37545E+03 -4.76971E+03 -3.17450E+03  3.84070E+03 -9.06106E+03  3.26100E+03  1.50837E+03
 -3.64288E+03 -7.56108E+02 -3.17328E+03 -1.04571E+03 -6.09630E+03 -5.58428E+03  1.42291E+03  3.35797E+02
  1.27104E+04 -7.25989E+03  1.11444E+04  2.33244E+03  1.23381E+04  1.12492E+04 -1.77171E+02  1.24087E+04
 -1.28881E+04  1.94549E+04 -1.63814E+04  5.31137E+03 -1.65579E+04  4.80693E+02 -1.17739E+04 -1.57220E+04
 -8.43147E+03 -9.26145E+03 -7.37535E+02 -1.71753E+04  1.26158E+04 -8.85284E+03  1.17376E+04 -4.90494E+03
  5.59298E+03  4.20395E+03  2.81837E+03  2.52743E+03 -1.73499E+03 -5.27082E+03  6.58754E+02 -1.84855E+03
  1.53041E+03  3.29265E+03  4.71781E+03  1.00718E+03  4.96006E+03  6.56064E+03 -3.81187E+03  1.79313E+04
 -3.39880E+03  2.31095E+03 -9.18268E+03 -3.96948E+03 -4.29922E+03 -1.07325E+04  1.88286E+03 -1.38657E+04
  1.12977E+04 -1.22121E+04  9.24887E+03  2.55933E+03  7.89798E+03 -6.92684E+02  6.31958E+03  1.31648E+04
 -6.69945E+03  7.93977E+03 -6.39106E+03  1.06471E+04 -4.32936E+03  1.07414E+04 -7.38448E+02 -2.77780E+03
 -3.95316E+03 -6.54593E+03  1.29930E+03  5.76106E+03 -1.48830E+04  4.19834E+03 -9.22701E+03 -1.27341E+04
 -5.83549E+03 -4.54250E+03  1.10077E+03 -6.36431E+03  9.67318E+02 -1.90596E+04  1.47387E+04 -6.00683E+02
  1.23952E+04  1.25509E+04  1.14958E+03  1.07897E+04 -4.71126E+03  2.51792E+03 -5.48169E+03  7.18964E+03
