 $NMID ID='MM_0lb_SNR50_20hz_g55_14.RAW', FMTDAT='(8E13.5)'
 TRAMP=1., VOLUME=1. $END
  3.08652E+05  1.13561E+03  3.36490E+05  2.48963E+05  8.45107E+04  3.36743E+05 -1.33764E+05  2.48377E+05
 -1.88433E+05  7.87690E+04 -1.12035E+05 -3.34224E+04  1.91740E+03 -4.87679E+04  5.33510E+04  1.90374E+02
  3.85766E+04  5.39203E+04 -1.38408E+04  7.73513E+04 -5.87630E+04  5.51460E+04 -8.24423E+04  3.12933E+04
 -8.31493E+04 -7.55523E+03 -5.86490E+04 -4.86216E+04 -1.57209E+04 -6.98813E+04  2.64160E+04 -4.83025E+04
  3.95285E+04  3.53174E+03  1.26623E+04  4.80615E+04 -3.58638E+04  4.96528E+04 -6.28036E+04 -4.06882E+02
 -5.36531E+04 -5.85331E+04 -7.95087E+03 -7.40922E+04  3.21767E+04 -5.57010E+04  5.01331E+04 -1.48474E+04
  4.18956E+04  1.04842E+04  2.88169E+04  2.24932E+04  1.81354E+04  2.42533E+04 -9.27876E+03  2.38835E+04
 -2.04279E+04  9.86785E+03 -1.82664E+04 -2.35923E+03  2.96947E+03 -8.05390E+03  2.02695E+04  1.39272E+04
  5.73445E+03  3.53788E+04 -3.14857E+04  3.26656E+04 -6.13591E+04 -2.87881E+02 -5.48746E+04 -3.91732E+04
 -1.18487E+04 -6.32194E+04  3.50463E+04 -4.58080E+04  5.68831E+04 -9.21930E+02  3.22042E+04  3.43463E+04
 -8.54440E+03  3.80724E+04 -2.29316E+04  1.73091E+04 -2.62943E+04 -1.55581E+03 -9.75654E+03 -8.66062E+03
 -6.16693E+03 -1.23609E+04  8.38580E+01 -1.68555E+04  7.37960E+03 -2.07206E+04  1.49458E+04 -1.01675E+04
  1.03508E+04  6.14305E+03 -7.05641E+03  1.15760E+04 -1.78936E+04 -9.00379E+03 -1.16187E+04 -2.98539E+04
  2.19308E+04 -3.91984E+04  4.42448E+04 -1.95297E+04  4.01123E+04  2.00237E+04  1.07295E+04  3.81606E+04
 -1.56305E+04  2.74883E+04 -2.20880E+04  2.24929E+02 -9.22210E+03 -2.56742E+04  2.06016E+04 -3.09937E+04
  3.84627E+04 -7.73015E+03  2.77481E+04  2.25960E+04  1.78396E+04  4.05069E+04 -9.25135E+03  4.64440E+04
 -2.73188E+04  2.87623E+04 -4.07439E+04  9.49612E+03 -3.53894E+04 -1.56465E+04 -1.72458E+04 -3.78334E+04
  3.65097E+03 -3.46855E+04  3.18218E+04 -1.29973E+04  2.26388E+04  1.04667E+04  4.96254E+03  1.23933E+04
 -1.41346E+04  5.34113E+03 -5.61588E+03 -4.44467E+03  4.24855E+03 -1.16600E+04  1.72508E+04  7.39852E+03
  1.13097E+04  1.91618E+04 -4.98616E+03  2.33951E+04 -2.49144E+04  6.60309E+03 -2.14709E+04 -6.42021E+03
 -1.52413E+04 -1.52122E+04 -5.17433E+03 -1.79842E+04  4.92620E+03 -1.40673E+04  1.33461E+04 -1.82655E+04
  1.81622E+04 -1.24489E+04  2.84656E+04  1.37619E+03  2.46593E+04  1.74324E+04  6.07083E+03  3.28943E+04
 -1.96184E+04  2.64790E+04 -3.11728E+04  8.66554E+03 -2.26458E+04 -9.42858E+03 -1.20538E+03 -1.12610E+04
  6.30259E+03 -2.15861E+03 -3.92165E+02 -8.69590E+02 -1.49609E+04  9.16059E+03 -1.27496E+04 -4.35442E+03
 -7.08273E+03 -2.07206E+04  6.07801E+03 -1.77720E+04  1.04265E+04 -1.26626E+04  1.16633E+04 -3.37644E+03
  1.15180E+04  1.28652E+04 -4.24814E+03  1.55009E+04 -1.00338E+04  8.09587E+03 -1.42561E+04 -3.83558E+03
 -1.23788E+04 -1.64384E+04 -3.28294E+03 -1.66573E+04  8.61206E+03 -1.55877E+04  1.58491E+04 -1.15254E+04
  1.21714E+04  2.81789E+03  8.18222E+03  4.83184E+03  1.00177E+04  1.33855E+03  1.15475E+04 -2.37324E+03
  1.19842E+04  3.29081E+03  1.38193E+04  1.63887E+04  7.69002E+03  2.49036E+04 -1.71613E+03  2.12740E+04
 -1.59301E+04  1.72679E+04 -2.49452E+04  9.05300E+03 -2.66067E+04 -6.66547E+03 -1.93836E+04 -1.36882E+04
 -1.03846E+04 -2.04012E+04  7.62093E+03 -1.21945E+04  1.47561E+04 -1.02158E+04  1.43802E+04 -1.61795E+02
  8.08831E+03  8.52498E+03 -5.03607E+03  8.90680E+03 -1.24784E+04  3.43178E+03 -1.16481E+04 -3.95856E+03
  2.90092E+03 -1.32650E+04  4.84707E+03 -7.03336E+03  1.02389E+04 -3.14845E+03  4.77816E+03  3.78583E+03
 -5.59724E+03  8.22943E+02 -1.13572E+03 -7.37066E+03  3.24328E+03 -1.30513E+04  1.02200E+04 -9.19696E+03
  1.43729E+04 -5.06140E+03  1.42961E+04  1.07239E+03  1.03640E+04  1.01978E+04  3.96962E+03  1.28717E+04
 -3.39396E+03  1.94055E+04 -1.22869E+04  1.12004E+04 -9.78782E+03  7.51420E+02 -9.09406E+03 -1.21284E+03
 -7.73225E+03 -4.71980E+02 -2.17746E+03  2.41528E+03 -1.72747E+03  2.63442E+03 -4.05161E+03  3.63965E+03
 -3.49039E+03  1.85574E+03 -3.54638E+03 -5.60862E+03 -2.64885E+03 -1.21164E+04  2.59503E+03 -1.07713E+04
  7.92253E+03 -3.11322E+03  1.26477E+04  5.13568E+03  2.34177E+03  1.28545E+03 -7.96484E+03  8.29254E+02
 -7.15815E+03 -2.81356E+03  5.92900E+02 -5.23364E+03  4.89194E+03 -8.95553E+03  6.89653E+03 -8.29951E+03
  1.25949E+04 -1.16063E+03  5.76889E+03  6.00051E+03  3.95972E+03  5.95816E+03 -5.79888E+03  6.32280E+03
 -7.14681E+03  3.49640E+03 -4.14633E+03  4.65447E+02 -4.46466E+02 -3.12610E+03  2.80463E+03 -1.61880E+03
  8.05178E+03  1.81245E+03 -2.01689E+03  7.88311E+03 -7.09384E+03  5.96753E+03 -9.28490E+03  1.30351E+03
 -6.52405E+03 -6.01354E+03  1.43698E+03 -4.71491E+03  1.08961E+03 -4.27720E+03  5.91036E+03  1.73840E+03
 -2.08456E+02  4.15120E+03 -3.71854E+03  5.33013E+03 -1.72907E+03  3.53012E+03 -5.50856E+03 -3.16698E+02
 -6.67007E+03 -3.66908E+03  2.97178E+03 -2.63295E+03  2.88059E+03 -8.12497E+02  4.10949E+03 -4.85257E+01
  6.13817E+03  6.40027E+03 -2.47729E+02  7.10008E+03 -3.87251E+03  3.18192E+03 -5.01339E+03 -1.15539E+03
 -2.12902E+03 -5.56145E+03 -1.47832E+03 -6.47259E+03  4.68026E+02 -9.40188E+03  2.11703E+03 -3.73542E+03
 -8.17907E+02  5.50412E+02  2.74426E+03  2.03320E+03  2.75827E+03  2.27523E+03  1.79563E+03 -7.94065E+02
  3.35854E+03 -4.27757E+03  5.40121E+03 -2.57779E+03  5.48330E+03  3.58484E+03  4.78222E+03  3.21049E+03
 -2.22653E+03  8.42961E+03 -4.07336E+03  2.58581E+03 -1.07496E+04 -2.14634E+03 -6.31708E+03  2.21006E+03
 -4.62221E+03 -3.55533E+03 -8.36331E+02 -3.63193E+03  3.77523E+03  3.90053E+02 -1.18718E+03 -4.07913E+03
  9.35626E+02  4.32960E+03  4.05360E+03 -8.57882E+02  2.35754E+03 -1.22580E+03  4.61836E+03 -2.65198E+02
  2.77012E+03  9.06341E+02  1.73554E+03  1.53001E+03  2.47988E+03  2.10279E+03  1.24370E+03  5.60687E+03
 -7.76630E+03 -2.72804E+02 -1.85786E+02 -2.86782E+03  2.87233E+03 -7.83920E+03  2.61899E+03 -7.93908E+03
 -1.03634E+03 -2.05266E+03  5.50605E+03 -7.51918E+02  1.47953E+03  1.94255E+03  1.39787E+03  8.35620E+03
 -8.28822E+02  4.92878E+03 -1.07124E+03 -1.09808E+03  8.39508E+02 -7.05411E+03 -8.25747E+02  4.42263E+01
  1.72544E+03 -5.99363E+02 -1.99866E+03  1.29941E+03 -2.98576E+03  1.58183E+03 -6.10333E+03 -8.04965E+02
 -2.35968E+03 -6.90025E+03  2.24733E+03 -6.23111E+03  1.26767E+03 -3.19713E+03  1.27380E+03 -7.31086E+02
  7.65348E+02 -9.74157E+02 -5.45506E+02  1.21198E+03 -1.35727E+03  6.13711E+03 -6.45462E+03  5.88842E+02
 -6.29277E+03  3.53247E+03 -2.36071E+02 -1.92573E+03  1.36354E+03 -9.63155E+02  2.64550E+03 -3.14224E+02
  3.38620E+03  7.49996E+02  5.20481E+03 -1.70109E+03 -7.36896E+01 -4.37294E+02  4.64745E+03  2.89617E+03
  8.98531E+02  2.83061E+03 -1.18127E+03 -9.71815E+02  3.79533E+02  4.34258E+03 -1.25856E+02  7.32407E+02
 -2.26162E+03  2.04203E+03 -2.25803E+03  7.03264E+03 -7.97681E+02  1.98863E+03 -6.98191E+03 -5.06960E+03
 -2.19612E+03 -1.32464E+02  4.92566E+03 -1.94884E+03  6.06581E+03 -2.00080E+03  4.55449E+03 -1.56442E+03
  7.12306E+02  2.50211E+03  3.30534E+03  9.47498E+02 -1.30007E+03  5.31209E+02  9.74566E+02  1.93152E+03
 -6.99717E+02 -4.68941E+03 -1.31098E+03  1.25442E+03  2.25812E+03  3.45895E+02 -5.10703E+02  1.34141E+03
  2.26675E+03  5.99754E+02  3.62962E+03 -2.62007E+03  7.06155E+02  4.15376E+03 -3.71290E+02  1.51459E+03
 -1.32627E+03  3.33169E+03  4.00815E+03 -1.16633E+03  9.40921E+02  4.59332E+02 -3.59665E+02  2.27015E+03
 -1.17133E+03  3.19184E+02 -5.76714E+03  3.58881E+03 -2.02388E+02 -1.47446E+03  2.53695E+03 -1.46063E+03
  1.37574E+03 -2.59255E+03 -2.85167E+03 -1.09753E+03 -1.92820E+03  1.52105E+03 -2.90832E+03  5.98881E+03
  3.36041E+03 -3.21702E+03  8.38862E+02 -1.04917E+03 -8.05049E+02  1.46462E+03  5.53147E+03 -1.76250E+03
 -1.39779E+03  1.89914E+03  2.55726E+03  4.41240E+03  3.97770E+03 -1.45163E+03  2.80715E+03 -1.44662E+03
 -1.55506E+03 -3.18117E+02 -3.20779E+03  1.84016E+03 -2.89541E+01 -3.25949E+03 -5.67307E+02 -1.35526E+03
  5.69034E+03 -2.10885E+03  9.16455E+02  1.12121E+02 -1.01874E+03  4.50676E+03 -2.57357E+03  7.66366E+02
 -2.05574E+03 -6.27306E+03  1.81176E+03 -3.19864E+03 -1.42236E+03  2.57087E+03 -8.39840E+02  1.91883E+03
  1.92425E+03 -1.72826E+03  8.90970E+02 -4.66527E+01  1.34072E+03 -1.71222E+03  7.46135E+01  2.41599E+03
 -2.64022E+03  4.65210E+02 -1.19119E+01  3.94605E+03  2.19285E+03 -1.72394E+03 -1.16659E+03  1.27159E+03
  1.28994E+03  2.15680E+03 -2.84271E+03  1.37212E+03  3.44848E+03  3.22197E+03 -1.50965E+03 -2.59579E+03
 -6.56882E+02  4.50992E+02 -2.29559E+02 -3.37076E+03  8.71969E+01  1.87051E+03  5.33693E+03  1.95491E+03
  5.11317E+03 -7.03128E+02 -4.28541E+03  3.38798E+03 -4.22378E+02 -2.32837E+02  4.08122E+03  6.38603E+02
 -3.47717E+03  1.50737E+02 -3.75854E+03  2.41558E+03  8.03108E+01  8.13638E+02  5.56676E+02  1.13490E+03
  5.79075E+02  1.12906E+02 -2.61211E+03  1.96167E+03  3.73228E+03  8.43715E+02 -3.28100E+03 -1.61039E+03
 -4.72979E+02 -7.59679E+02  7.16449E+02 -2.16031E+02  4.10578E+03  3.98346E+03 -2.70719E+03  4.43759E+01
 -2.21290E+03  4.88198E+03 -8.01771E+02 -1.24554E+03 -3.17415E+03 -8.85954E+02 -4.69763E+02 -2.08447E+03
  2.43742E+03 -2.61729E+03 -5.05690E+02 -4.26390E+02  5.04620E+02  2.84281E+03 -1.66494E+03 -4.07854E+03
  3.38173E+03  2.06526E+03 -2.49165E+03 -2.19094E+03 -1.20257E+02  1.35656E+03 -2.77043E+03 -3.80122E+03
  2.62785E+03  3.73197E+02 -1.85172E+03 -4.82339E+02  4.86957E+02 -2.25752E+02  4.05597E+03 -2.04194E+03
  4.41293E+03 -3.50378E+02  3.25598E+02  1.38154E+03  5.39255E+02 -2.92341E+03  6.41383E+02  6.63287E+02
 -3.22864E+03 -1.60303E+03  1.11399E+03 -1.31447E+03  3.07308E+02 -1.09339E+03  6.17674E+02 -1.27715E+03
  4.10389E+03  4.29315E+03 -6.78645E+01  1.32977E+03  2.86236E+03 -1.75208E+03 -2.89532E+02 -4.87259E+02
 -8.41199E+02 -9.46994E+02  3.49221E+02  2.79280E+03 -1.65988E+03  9.59507E+02 -9.41441E+02  2.30379E+00
 -9.46179E+02 -2.90869E+03 -8.63971E+02 -4.46452E+03  1.24954E+02 -3.42237E+03 -4.19154E+02  7.92206E+01
 -7.41018E+02 -1.20268E+03 -1.61152E+03 -1.33822E+03  1.44050E+03  2.55009E+03  2.78229E+02 -1.05324E+03
