 $NMID ID='MM_0lb_SNR50_13hz_g45_32.RAW', FMTDAT='(8E13.5)'
 TRAMP=1., VOLUME=1. $END
  3.08229E+05  2.83852E+03  3.36525E+05  2.49129E+05  8.00919E+04  3.35262E+05 -1.33689E+05  2.47761E+05
 -1.88368E+05  7.93930E+04 -1.09848E+05 -2.69372E+04 -1.00670E+03 -4.98497E+04  5.22717E+04  4.87728E+03
  3.90439E+04  5.46962E+04 -1.36425E+04  7.62762E+04 -5.95158E+04  6.71032E+04 -8.51542E+04  2.64248E+04
 -7.84244E+04 -1.00738E+04 -5.36503E+04 -5.14526E+04 -1.21473E+04 -6.55802E+04  2.99189E+04 -4.78504E+04
  4.64483E+04 -1.23153E+03  1.45258E+04  4.72327E+04 -3.03885E+04  4.80956E+04 -6.27659E+04 -1.97082E+03
 -5.27355E+04 -5.80828E+04 -5.87168E+03 -7.17052E+04  3.86908E+04 -5.63799E+04  5.44398E+04 -1.89699E+04
  4.30740E+04  9.77387E+03  3.23631E+04  2.44062E+04  1.38511E+04  2.47269E+04 -5.93602E+03  2.40660E+04
 -1.96154E+04  9.53570E+03 -1.83025E+04 -8.51001E+03  6.98289E+03 -3.85490E+03  2.28984E+04  1.15522E+04
  2.96816E+03  3.62373E+04 -3.58725E+04  3.35948E+04 -6.47785E+04  2.22390E+03 -6.02294E+04 -3.65284E+04
 -6.78233E+03 -5.78797E+04  3.87401E+04 -4.85537E+04  6.02821E+04 -6.15560E+03  3.91961E+04  3.39859E+04
 -5.39447E+03  3.48092E+04 -2.88828E+04  1.22121E+04 -3.02373E+04 -3.50643E+03 -2.01460E+04 -1.27354E+04
 -7.49914E+03 -1.65487E+04 -1.01266E+03 -1.84101E+04  2.46193E+03 -2.12820E+04  1.57763E+04 -9.71253E+03
  7.83133E+03  3.57314E+03 -9.95323E+03  1.56359E+04 -2.44034E+04 -5.77244E+03 -7.55536E+03 -3.52633E+04
  2.54384E+04 -4.87405E+04  4.30595E+04 -2.24957E+04  4.43016E+04  1.95388E+04  1.97493E+04  4.87950E+04
 -1.67064E+04  3.45568E+04 -3.21027E+04 -4.93146E+03 -1.20513E+04 -3.19892E+04  2.16055E+04 -3.13564E+04
  3.67357E+04 -1.07466E+04  3.48804E+04  2.45978E+04  2.13050E+04  4.70125E+04 -7.42938E+03  4.50172E+04
 -2.80952E+04  3.54042E+04 -4.51898E+04  6.69429E+03 -4.41863E+04 -1.77808E+04 -2.05633E+04 -4.62227E+04
  8.95958E+03 -3.50250E+04  3.03560E+04 -1.70909E+04  3.17813E+04  1.54380E+04  6.15582E+03  1.69387E+04
 -9.88260E+03  5.00322E+03 -2.08887E+03 -1.67202E+03  2.31402E+03 -1.28761E+04  1.45418E+04  8.94036E+03
  1.35160E+04  1.66286E+04 -8.48993E+03  2.51450E+04 -1.87571E+04  6.80422E+03 -2.59304E+04 -4.78187E+03
 -2.11798E+04 -1.97210E+04 -7.13067E+03 -2.14901E+04  5.35421E+03 -1.99201E+04  1.82161E+04 -1.37202E+04
  2.73609E+04 -1.51217E+04  3.38785E+04 -3.14804E+02  2.80863E+04  1.55820E+04  8.94382E+03  3.69287E+04
 -1.83654E+04  2.98000E+04 -3.17912E+04  7.53863E+03 -2.07977E+04 -6.91861E+03 -7.69517E+03 -7.03521E+03
  5.06084E+03 -1.13169E+03 -3.03490E+03  5.90139E+03 -1.37378E+04  3.47448E+03 -1.90872E+04 -5.83922E+03
 -5.15530E+03 -2.34854E+04  3.36443E+03 -2.29032E+04  1.43174E+04 -1.75670E+04  1.30917E+04 -4.18425E+02
  1.46256E+04  1.52513E+04 -8.13522E+03  1.84633E+04 -1.08076E+04  1.13458E+04 -1.78518E+04 -3.15569E+03
 -1.77176E+04 -1.58226E+04 -2.37196E+03 -2.46769E+04  6.79456E+03 -2.17644E+04  1.88732E+04 -1.16162E+04
  1.86318E+04  5.07777E+03  1.68737E+04  6.03946E+03  8.09061E+03  2.11101E+03  9.96405E+03  1.57119E+03
  1.47864E+04  3.99479E+03  1.83065E+04  1.45579E+04  1.62201E+04  3.59406E+04 -3.02763E+03  3.91356E+04
 -1.77465E+04  2.63214E+04 -3.22006E+04  1.30816E+04 -3.46188E+04 -3.48477E+02 -2.81598E+04 -2.06752E+04
 -1.38081E+04 -2.75136E+04  9.87416E+03 -2.61769E+04  2.22833E+04 -7.31925E+03  1.82932E+04  5.87334E+03
  1.04716E+04  1.10113E+04 -8.87640E+03  1.33977E+04 -1.68655E+04 -1.42256E+03 -1.68579E+04 -1.75608E+04
 -1.97859E+03 -1.68519E+04  5.98321E+03 -1.40969E+04  8.76699E+03 -8.84817E+02  2.97933E+03  7.04757E+03
 -5.89476E+03  2.02985E+03 -6.31181E+03 -8.14601E+03 -8.48275E+02 -5.80151E+03  1.28686E+04 -1.71620E+04
  1.66783E+04 -7.86695E+03  1.58728E+04  1.80378E+03  1.85332E+04  1.58212E+04  1.17519E+04  2.53998E+04
 -3.44469E+03  2.17911E+04 -1.29497E+04  2.13877E+04 -1.95262E+04 -1.34828E+03 -1.50515E+04 -2.34965E+03
 -5.55094E+03 -1.71049E+03  1.16145E+03 -9.45149E+02  3.66156E+03  7.43531E+03 -2.10906E+03  7.04774E+03
 -1.07444E+04 -1.64014E+03 -1.23510E+04 -1.08472E+04 -1.17322E+04 -1.51529E+04  3.73927E+03 -7.07198E+03
  1.15652E+04 -1.06003E+04  1.00853E+04  3.35750E+03  2.07413E+03  2.24672E+03  9.04987E+02  3.52337E+02
 -3.50600E+03 -2.29269E+03 -4.07398E+03 -1.48623E+04  6.34942E+03 -1.34730E+04  1.75655E+04 -5.98099E+03
  1.34130E+04  6.95854E+03  1.69879E+04  8.35381E+03  1.07420E+03  1.72500E+04 -7.77861E+03  1.08078E+04
 -3.44332E+03  2.43983E+02 -1.83870E+03 -9.12747E+03  2.31169E+01 -8.11268E+02  6.52775E+03  2.93695E+03
  8.12910E+03  4.96898E+03 -2.28587E+03  8.67786E+03 -1.89666E+03  1.42594E+04 -1.10040E+04  7.38286E+03
 -7.77402E+03 -9.64238E+03 -9.57345E+02 -1.16124E+04  7.86568E+03 -6.90655E+03  4.67062E+03 -1.80345E+03
  5.46084E+03  8.91484E+03 -1.01037E+04  9.22820E+03 -4.74135E+03  2.25491E+03 -7.25121E+03  3.14027E+03
 -7.38534E+03 -7.00344E+03  8.87815E+03 -1.03959E+04  1.17559E+04 -5.08566E+03  8.89724E+03  1.74944E+03
  8.28793E+03  8.12816E+03 -1.97593E+03  9.90353E+03 -1.05252E+04  7.40210E+03 -5.59701E+03 -1.66317E+03
 -4.52842E+03 -7.46639E+03 -2.60397E+03 -8.22675E+03  2.47553E+03 -4.81302E+03  1.23641E+03 -4.41660E+03
  9.29065E+03  4.92825E+02 -2.53787E+03 -4.49472E+02  1.75980E+03  3.49203E+02  1.19171E+03 -4.38399E+03
  7.02425E+03 -4.49420E+03  6.86424E+03 -1.61932E+03  1.19271E+04  9.73000E+03  3.11297E+03  9.68494E+03
 -3.91590E+03  1.55456E+04 -1.87938E+04  1.05143E+04 -1.07963E+04  2.14159E+03 -1.64347E+04 -8.80350E+03
 -2.54285E+03 -8.06704E+03 -5.36427E+02 -1.47225E+04  1.99162E+03 -5.71018E+03  4.72606E+03 -2.94004E+03
  6.12132E+03 -8.04606E+02  3.59089E+03 -5.26140E+03  8.49272E+03 -4.29315E+03  4.16945E+03  4.04523E+03
  7.52103E+03 -5.54631E+02  5.32591E+03  7.51931E+03 -5.40649E+03  9.12453E+03 -3.12942E+03  6.16195E+03
 -7.30308E+03 -4.11834E+03 -7.46723E+03 -7.18337E+03  7.65394E+02 -7.53465E+03  1.35101E+03 -1.07644E+04
  4.32290E+03 -1.15667E+04  6.62634E+03  2.41640E+03  5.59184E+03  1.00166E+04 -3.66082E+01  9.96849E+03
 -6.91343E+03  9.42271E+03 -1.12799E+04  1.00127E+03 -7.22664E+03 -3.37612E+02 -6.59146E+02  1.35349E+03
 -6.88427E+03 -3.57919E+03 -1.07491E+03  6.05799E+03 -4.24211E+03  1.91528E+03 -6.54875E+03 -1.38520E+02
 -3.45038E+03 -5.30183E+03 -1.12806E+03 -1.17067E+04  2.33788E+03 -7.08148E+03  1.06059E+04 -7.31278E+03
  1.06805E+04  3.48797E+03  3.58619E+03  7.43479E+03 -1.61665E+03  5.25112E+03 -8.30520E+03  6.17361E+03
 -9.99406E+03  6.19570E+02 -6.72283E+03 -7.63288E+03  6.01772E+02 -3.80436E+03  3.01440E+03 -1.46745E+04
  8.38329E+03  1.75101E+03  7.87096E+02 -1.36097E+02  3.81517E+03  2.67219E+02  2.14314E+03  6.57258E+03
  6.03783E+03 -4.75346E+03  1.12767E+03  3.18589E+03  1.11322E+03  4.74967E+03 -1.28242E+03  7.72110E+03
  1.29207E+03  6.56862E+03 -2.79603E+03  1.04867E+04 -7.21861E+03 -2.95232E+03 -6.38827E+03 -4.01692E+03
 -6.04519E+03 -8.39205E+03  5.86864E+03 -6.37686E+03  1.05273E+04 -6.42880E+03  4.37285E+03 -6.57172E+03
  1.72915E+03 -1.40308E+03  2.36030E+03  4.19051E+03 -6.36271E+03  5.64159E+02 -4.92100E+03 -2.70921E+03
  3.36137E+03 -4.61118E+03  6.07456E+03 -2.69772E+01  2.33697E+03 -2.52666E+02  5.05030E+03  1.14681E+03
 -1.42827E+03  5.79239E+03  4.34123E+03  3.44137E+03  4.27462E+03 -9.11573E+01 -1.68522E+03 -2.46862E+03
  1.87259E+02 -6.75018E+03  6.94367E+03  4.75174E+03 -3.94408E+02  2.05876E+03  1.80465E+03  9.38591E+03
 -3.39515E+03  5.46412E+03 -1.63366E+03  5.73848E+03 -3.95841E+03 -3.95483E+03 -9.05575E+03  4.38333E+01
  3.15514E+03 -5.02050E+03  5.85249E+03  1.31594E+03  4.04620E+03 -1.95491E+02  5.40927E+02  6.09601E+02
 -1.09087E+02  4.46344E+03 -1.84069E+03 -3.03322E+03 -5.22333E+03 -1.68969E+03 -2.48440E+03 -4.08034E+03
  4.00022E+03  9.94531E+02 -1.45468E+02  1.97481E+03  2.63987E+03  4.03481E+03  4.37782E+03  2.30624E+03
 -5.83525E+03  2.46987E+03  6.90501E+02  2.98077E+03 -1.54865E+03 -3.73615E+03  4.85173E+03 -2.52800E+03
  6.12759E+03 -2.84327E+03  8.48755E+03  1.10341E+03  6.77843E+02  2.92716E+03  9.94716E+02  5.49700E+03
 -6.06356E+03  1.92093E+03 -8.12579E+03  1.69985E+03 -2.67325E+03 -2.64725E+03  6.10035E+02 -1.48050E+03
  1.47155E+03  5.16010E+02  8.63762E+03  1.63010E+03  2.82514E+03 -1.73074E+03  1.64429E+03  4.03978E+03
 -6.11933E+03 -1.10956E+02 -3.93566E+03  2.15277E+03 -4.67585E+03  3.85352E+03 -1.50196E+03  2.55241E+03
 -4.11522E+03  6.20075E+03 -3.96827E+03  3.62676E+03 -3.65325E+03 -1.65921E+03 -7.53225E+03 -1.40761E+03
 -7.77200E+03 -2.81760E+03  7.86271E+02 -6.31885E+03 -4.66634E+03 -6.36065E+03  5.92724E+03  3.04581E+03
  7.87065E+03  4.91254E+03  2.24180E+03  7.08517E+03  4.20063E+03  3.99675E+03  5.23769E+02  7.24695E+03
 -6.45816E+03  1.99062E+03 -1.32260E+03 -3.82315E+03  1.36906E+03  2.07446E+03  7.30000E+02  4.22081E+03
 -2.06005E+03 -2.42288E+03 -1.52312E+03  2.22060E+03 -6.15624E+03  4.24318E+03  2.20837E+03  9.27616E+02
  1.53310E+03  4.83098E+03  5.03660E+03 -1.21738E+03  4.31104E+03  7.24186E+03  3.34038E+03  4.27570E+03
 -2.97958E+02  2.39205E+03 -5.50280E+03  7.55538E+03 -4.23171E+03 -5.03041E+03  3.18095E+02 -1.21386E+03
 -3.90467E+03 -5.24081E+03  3.11023E+03 -6.72267E+03 -2.53078E+03  2.57957E+00  1.99834E+03  4.72654E+03
  3.58540E+03  1.20958E+03 -4.70728E+02 -1.72525E+03 -1.14754E+03 -1.63219E+02  1.17976E+03 -9.01889E+03
  1.27903E+03  5.75996E+03  2.06415E+03  8.21701E+02  3.05031E+03  6.46961E+03 -4.74427E+03  7.35124E+02
 -5.02278E+03 -1.79962E+03  3.17826E+02 -5.22292E+02 -7.08465E+03 -1.05813E+03 -1.81006E+03 -1.26185E+03
  1.64251E+03 -3.80035E+03  3.73807E+03  3.89196E+00 -2.02592E+03  1.16360E+03 -1.56235E+03  4.86633E+03
  4.46047E+03 -3.18875E+02 -1.28772E+03  2.85916E+03 -1.43400E+03  8.48126E+02  9.83117E+02 -2.96099E+03
 -1.92919E+03  8.70371E+01 -9.39016E+02 -3.26823E+03 -5.01105E+03  1.95082E+03 -2.27169E+03  4.08891E+03
 -4.08162E+03 -3.84135E+03 -2.45529E+03  1.28033E+03  3.30911E+01 -3.01509E+03  5.72114E+03 -3.30896E+02
  3.41169E+03 -3.77589E+03  9.12876E+01  4.93279E+03  2.43146E+03  2.49939E+03 -1.02771E+03  1.98440E+03
