 $NMID ID='MM_0lb_SNR50_10hz_g60_87.RAW', FMTDAT='(8E13.5)'
 TRAMP=1., VOLUME=1. $END
  3.16095E+05  3.31943E+03  3.34329E+05  2.50877E+05  7.48942E+04  3.43741E+05 -1.34897E+05  2.50150E+05
 -1.91056E+05  8.18627E+04 -1.12360E+05 -3.45535E+04  5.98350E+03 -4.93778E+04  4.91994E+04 -5.53499E+03
  3.08000E+04  5.02644E+04 -1.85721E+04  7.46736E+04 -6.37260E+04  6.23649E+04 -8.37123E+04  3.17459E+04
 -7.68150E+04 -1.07340E+04 -5.99710E+04 -5.80185E+04 -1.09306E+04 -7.17682E+04  2.64368E+04 -4.68077E+04
  4.30148E+04  2.95928E+03  1.91594E+04  5.20575E+04 -3.64418E+04  5.14926E+04 -6.70556E+04 -2.07490E+02
 -5.51896E+04 -5.94901E+04 -7.12558E+03 -8.33804E+04  4.03253E+04 -5.42720E+04  4.81358E+04 -1.84065E+04
  4.90392E+04  3.08352E+03  3.22001E+04  2.83185E+04  1.84246E+04  3.51415E+04 -6.25225E+02  2.60038E+04
 -2.64931E+04  1.50293E+04 -2.07108E+04 -5.86819E+03 -5.38325E+02 -1.11806E+04  2.64742E+04  2.06898E+04
  9.04727E+03  4.39128E+04 -3.44893E+04  3.83323E+04 -6.65147E+04  9.68071E+02 -5.65830E+04 -3.81960E+04
 -1.05169E+04 -6.57330E+04  3.96970E+04 -4.30057E+04  6.00101E+04 -1.27621E+03  3.38363E+04  3.20668E+04
 -3.68482E+03  3.17545E+04 -3.06067E+04  2.30724E+04 -3.59112E+04 -2.56806E+03 -2.17401E+04 -1.13145E+04
 -8.71526E+03 -1.47529E+04  2.85790E+02 -1.74058E+04  1.06975E+04 -2.59081E+04  1.17723E+04 -7.00156E+03
  8.41196E+03  8.38904E+03 -7.32673E+03  1.32806E+04 -2.55068E+04 -1.55594E+03 -8.37254E+03 -4.07888E+04
  2.24241E+04 -4.76095E+04  5.15241E+04 -1.95109E+04  4.72640E+04  2.49238E+04  2.13610E+04  4.70954E+04
 -1.31496E+04  3.92915E+04 -2.26633E+04  4.03504E+03 -1.18249E+04 -2.74688E+04  1.59987E+04 -3.04518E+04
  4.12246E+04 -1.31581E+04  3.86161E+04  2.38013E+04  2.33041E+04  4.40565E+04 -1.11098E+04  5.27040E+04
 -2.96323E+04  3.61962E+04 -4.73636E+04  1.11838E+04 -4.74904E+04 -1.91807E+04 -2.47166E+04 -4.66886E+04
  7.07892E+03 -4.42262E+04  3.40716E+04 -1.46729E+04  3.39583E+04  7.44707E+03  1.35110E+04  2.11101E+04
 -8.28076E+03  3.90901E+03 -7.96227E+03 -8.31386E+03  1.14280E+04 -1.68043E+04  1.80352E+04  3.87480E+03
  1.63203E+04  1.91127E+04 -5.87774E+03  2.39956E+04 -2.83661E+04  1.07782E+04 -3.01608E+04 -2.94809E+02
 -2.31040E+04 -2.26647E+04 -1.61549E+04 -2.91110E+04  8.40576E+03 -2.98295E+04  2.12565E+04 -2.01243E+04
  3.56616E+04 -1.11083E+04  3.44866E+04  6.12758E+03  2.19789E+04  2.25675E+04  3.89240E+03  3.91232E+04
 -2.67518E+04  3.97555E+04 -3.55005E+04  1.99788E+04 -2.73974E+04 -1.07948E+04 -5.13323E+03 -1.50031E+04
  2.13301E+03  5.85819E+03 -6.57952E+03  1.65538E+03 -2.54430E+04 -1.62905E+03 -1.73010E+04 -1.01532E+04
 -8.35095E+03 -2.42265E+04  7.35688E+03 -2.50815E+04  1.77461E+04 -1.96780E+04  2.45760E+04 -5.88321E+03
  1.90660E+04  1.35851E+04 -1.14085E+03  2.33293E+04 -1.65883E+04  1.44872E+04 -2.22126E+04 -3.69827E+03
 -1.83010E+04 -1.74969E+04 -9.26188E+02 -2.03956E+04  7.40242E+03 -2.19237E+04  2.49763E+04 -1.43242E+04
  2.24319E+04  1.20789E+03  1.07924E+04  2.16422E+03  1.09648E+04  3.17514E+03  8.32958E+03 -6.16395E+03
  2.60913E+04  2.23164E+03  2.09646E+04  2.00559E+04  1.88279E+04  3.91741E+04 -1.01731E+03  4.68123E+04
 -2.05286E+04  3.57870E+04 -4.02714E+04  2.30538E+04 -4.48667E+04  5.16823E+03 -3.24150E+04 -2.36954E+04
 -1.93571E+04 -3.99001E+04  1.82402E+04 -3.62213E+04  2.63209E+04 -1.60438E+04  2.60930E+04  2.68751E+03
  1.32069E+04  1.60631E+04 -1.01221E+04  1.42299E+04 -2.10019E+04 -2.28777E+03 -1.54975E+04 -1.36074E+04
 -4.32169E+03 -1.39390E+04  4.04641E+03 -1.97952E+04  1.25575E+04 -2.88143E+01  2.35966E+03  1.44642E+04
 -3.96253E+03  9.29149E+03 -1.23556E+04 -3.58352E+03  1.16898E+02 -2.21018E+04  7.86084E+03 -1.69807E+04
  2.47914E+04 -1.37122E+04  2.34106E+04 -8.45805E+02  2.40688E+04  1.54877E+04  1.04669E+04  2.72265E+04
 -3.35624E+03  3.43464E+04 -1.61709E+04  2.33834E+04 -2.26827E+04  3.71984E+03 -1.49807E+04 -8.09659E+03
 -1.30747E+03 -1.24169E+03 -2.58046E+03 -8.13520E+02 -7.83997E+02 -4.10242E+03 -6.80898E+03  9.88458E+03
 -1.61108E+04 -1.51410E+03 -1.37788E+04 -1.56494E+04 -7.93071E+03 -1.95290E+04  6.27708E+03 -1.31403E+04
  1.30093E+04 -4.21321E+03  1.30215E+04  3.90711E+02 -3.16736E+03  6.51979E+03 -4.57675E+03 -2.83484E+03
 -3.34530E+03 -6.55244E+03 -1.47646E+02 -1.55086E+04  7.26603E+03 -1.12276E+04  2.13992E+04 -1.15804E+04
  2.37482E+04  3.06120E+03  1.64048E+04  1.86847E+04  2.52471E+03  1.36066E+04 -9.80653E+03  1.43718E+04
 -1.06480E+04 -2.95770E+02 -1.26977E+04 -4.52140E+03 -7.02331E+02 -9.31856E+03  1.00852E+04  5.92778E+03
  1.38104E+03  7.72279E+03  1.47943E+03  7.89017E+03 -1.17443E+04  1.22005E+04 -1.37688E+04  3.58487E+03
 -1.19186E+04 -5.28744E+03  2.31200E+03 -1.24869E+04  5.21955E+03 -8.47883E+03  1.11137E+04  1.32443E+03
 -6.50379E+01  6.46657E+03 -7.42224E+03  1.18042E+04 -1.20852E+04  3.56137E+03 -1.23808E+04 -4.25261E+03
 -1.14132E+04 -2.07048E+04  7.88151E+03 -2.18689E+04  1.33277E+04 -1.11959E+04  1.67819E+04  3.77477E+03
  1.28755E+04  7.79214E+03 -2.85653E+03  1.64967E+04 -1.48944E+04  1.13893E+04 -1.05202E+04 -5.61523E+03
 -3.27785E+03 -1.07725E+04 -5.11950E+03 -5.76250E+03  1.02389E+03 -1.19392E+04  5.29563E+03 -5.70735E+03
  6.13823E+03 -1.90810E+03 -4.07334E+03  2.83291E+03  3.05447E+03 -7.51266E+03  6.41304E+03 -8.81337E+03
  1.64954E+04 -2.97205E+03  1.25940E+04 -1.37778E+03  1.87623E+04  1.55228E+04  2.04335E+04  2.22451E+04
 -5.38230E+02  2.41194E+04 -1.80915E+04  1.95468E+04 -2.10355E+04  2.32243E+03 -2.22497E+04 -7.73122E+03
 -9.35526E+03 -1.22661E+04 -1.29983E+03 -1.81289E+04  7.56046E+03 -5.45190E+03  5.20028E+03 -8.17973E+03
  7.46790E+03 -8.92257E+03  4.11005E+03 -1.33449E+03  7.97145E+03 -6.61788E+03  5.07731E+03 -4.70096E+03
  1.28627E+04  4.16202E+03  4.67532E+03  9.10223E+03 -5.22984E+03  1.05793E+04 -1.44131E+04  1.44333E+04
 -1.51474E+04 -8.30984E+03 -1.34393E+04 -1.53375E+04 -6.84108E+02 -1.79592E+04  8.63269E+03 -1.21560E+04
  1.02491E+04 -1.19662E+04  1.74313E+04  5.20878E+03  8.88678E+03  9.83626E+03  5.20718E+02  1.67348E+04
 -1.27493E+04  2.13181E+04 -1.02703E+04  3.64763E+03 -6.68372E+03 -2.61744E+03 -5.57134E+03 -9.19253E+02
 -9.16430E+01 -8.15872E+03 -3.58609E+03  3.22459E+03 -7.88713E+03  7.99761E+02 -9.51209E+03 -2.12666E+03
 -6.19634E+03 -6.97562E+03  7.28678E+03 -1.69883E+04  4.31632E+03 -1.28750E+04  1.20221E+04 -1.08110E+04
  9.71038E+03  5.42310E+03  2.57307E+03  9.16326E+03  2.67542E+03  1.37664E+04 -1.70198E+04  1.46924E+04
 -1.41323E+04  5.45292E+02 -8.76879E+03 -4.62011E+03  5.29414E+03 -1.38124E+04  8.67607E+02 -3.26683E+03
  5.49258E+03 -4.96589E+03  5.46887E+03 -6.06986E+02  1.88720E+03  6.57933E+03  2.34311E+03  4.53915E+02
  5.75955E+01  4.67224E+03  1.39621E+03  8.38240E+00  1.70944E+03  6.18511E+03  8.62225E+03  9.83134E+03
 -5.53587E+03  7.91276E+03 -1.07628E+04  6.70075E+03 -9.50555E+03  3.77139E+03 -2.03515E+04 -2.84813E+03
 -7.99375E+03 -1.46909E+04 -2.85549E+03 -1.19751E+04  1.18471E+04 -1.48841E+04  1.39401E+04 -6.87973E+03
  7.07897E+03  4.07504E+03  3.00790E+03  9.54417E+03  2.94447E+03  7.33115E+03 -5.60433E+03 -3.71281E+03
 -1.91457E+03 -3.99014E+03  1.09109E+04 -3.00423E+03  7.47513E+03 -5.98231E+02  7.10221E+03  5.87487E+01
  8.66989E+03  3.55976E+03  1.01942E+04  5.94531E+03  3.82605E+03  4.17163E+03  7.49516E+03 -1.12397E+02
  7.13362E+03 -3.39589E+03  6.55795E+03 -2.78409E+03 -7.32669E+02  5.47741E+03 -2.19293E+03  1.05614E+04
 -1.40169E+04  8.28540E+03 -8.67415E+03  1.93226E+03 -1.13227E+04  5.91937E+03  1.51812E+03 -4.46422E+03
  4.09519E+03 -6.38952E+03  5.44504E+02 -4.61414E+03  7.21245E+03  3.91888E+03 -3.23056E+03 -1.40834E+03
 -7.68741E+03  6.74303E+03 -8.96629E+03 -9.25841E+03 -1.27158E+03 -6.05519E+03  5.47140E+03 -1.22640E+04
  3.85258E+03 -5.95763E+03  5.99520E+03 -2.21813E+03  4.48055E+03 -4.92918E+03  6.97370E+03  7.67194E+03
 -6.67695E+03  2.00259E+03 -4.90478E+03 -3.95581E+03  7.85119E+03 -1.04966E+04  9.25966E+03 -5.82974E+03
  5.25743E+03  1.68807E+03  7.93060E+03  1.13380E+04  9.00444E+03  6.14493E+03 -2.09730E+03  1.57643E+04
 -4.68445E+02 -1.33079E+01  1.58298E+02  6.90302E+02 -3.56437E+03 -8.47505E+03 -4.20761E+02 -2.08941E+03
  7.63876E+03 -4.26731E+03  5.27150E+03  3.78830E+03 -4.12033E+03  1.08616E+04  2.72235E+03  2.40545E+03
  1.17738E+03  3.91581E+03 -8.57335E+03  2.85750E+03  5.24449E+03 -3.43815E+03 -6.59601E+03 -1.18023E+03
 -5.86511E+03  6.47724E+02 -6.75410E+03  7.56692E+03 -1.10815E+04  8.76728E+02 -1.01075E+04 -3.16357E+03
 -1.26476E+04 -8.09757E+03 -4.49558E+03 -1.14896E+04  5.62882E+03 -1.33289E+04  1.26525E+04 -4.94081E+03
  1.55261E+04 -1.81589E+03  1.12684E+04  1.23932E+04  2.93457E+03  1.39870E+04  1.43894E+03  1.11409E+04
 -5.06772E+03  1.94048E+03  8.02576E+02  2.22750E+03 -5.36448E+02 -3.06889E+03  3.30083E+03  3.32254E+03
 -2.69693E+02 -4.52461E+02 -2.55501E+03  5.97402E+02 -2.84022E+03 -7.33794E+03  6.55692E+03 -5.02521E+03
  2.53325E+03 -8.53833E+03  3.20652E+03 -3.49881E+03  1.16643E+04 -1.60643E+03  2.28067E+03  1.25177E+04
 -6.50752E+03  1.30962E+04 -1.12499E+04  8.62152E+03 -1.02507E+04 -5.51835E+03 -7.62257E+03 -6.23696E+03
 -3.99531E+02 -1.01286E+04  4.90199E+03 -7.62561E+03  8.12133E+03 -4.36455E+03  4.54367E+03  7.57790E+02
  1.00388E+02 -1.62001E+03 -4.72272E+02  1.67160E+03 -3.43429E+03  5.36721E+03 -3.70334E+03 -9.91066E+02
  6.82825E+03 -4.92818E+03  1.81395E+03  4.79795E+03  9.14976E+03  3.46661E+03  2.01215E+03  6.87013E+03
 -1.12831E+04  1.84486E+02 -6.28316E+03 -1.87887E+03 -8.35119E+03 -1.86728E+03  4.45829E+03 -1.17896E+04
  4.26039E+03 -1.40670E+04  8.46473E+03 -5.75567E+03  6.35698E+03  3.54344E+03  4.29335E+03  2.87594E+03
 -3.82430E+03  5.16599E+03 -2.33833E+03 -1.98323E+01 -4.80721E+03 -1.84062E+03 -2.37187E+02 -3.80474E+03
 -1.52118E+03  4.67376E+03  2.79522E+03 -3.91023E+03 -4.46388E+03  4.69898E+03 -6.46406E+03 -1.89974E+03
 -5.19636E+03  2.47365E+03 -3.42680E+03 -9.58117E+03  4.72836E+03 -1.48170E+03  8.28616E+03 -2.30417E+03
  7.61603E+03  3.83642E+03  4.91518E+03  8.11886E+02 -3.70470E+03  8.12325E+03 -7.62535E+03  2.60774E+03
