 $NMID ID='MM_0lb_SNR50_15hz_g40_5.RAW', FMTDAT='(8E13.5)'
 TRAMP=1., VOLUME=1. $END
  3.14619E+05 -7.41920E+02  3.36816E+05  2.47705E+05  8.23041E+04  3.40522E+05 -1.32978E+05  2.47907E+05
 -1.96112E+05  8.55269E+04 -1.10254E+05 -3.08239E+04  4.57126E+03 -5.25699E+04  5.12870E+04 -3.71758E+02
  3.36845E+04  5.41643E+04 -1.87769E+04  7.76520E+04 -6.01585E+04  6.41879E+04 -8.91737E+04  3.31322E+04
 -8.58682E+04 -1.33172E+04 -5.47157E+04 -5.05540E+04 -1.68038E+04 -6.87995E+04  2.67986E+04 -4.49369E+04
  3.79574E+04  3.46681E+03  1.37978E+04  4.69329E+04 -3.24174E+04  4.74136E+04 -6.87706E+04 -3.22630E+03
 -5.48888E+04 -5.69909E+04 -6.72957E+03 -7.41809E+04  2.70066E+04 -5.49508E+04  4.60110E+04 -1.43258E+04
  4.21448E+04  5.72365E+03  3.23018E+04  2.79115E+04  2.19337E+04  2.75146E+04 -4.08989E+03  2.71617E+04
 -2.20617E+04  1.21205E+04 -2.04005E+04 -7.69371E+03  5.64121E+03 -5.36690E+03  1.97223E+04  1.02490E+04
  7.65809E+03  3.72611E+04 -3.14371E+04  3.60679E+04 -5.77971E+04  4.14472E+03 -5.53066E+04 -3.98579E+04
 -1.37752E+04 -5.84197E+04  4.26458E+04 -4.38877E+04  5.78862E+04 -4.06440E+03  3.05707E+04  3.43067E+04
 -7.02250E+03  2.85183E+04 -2.55788E+04  1.50955E+04 -3.09173E+04 -1.69269E+03 -1.63388E+04 -9.50022E+03
 -6.26386E+03 -7.83219E+03 -8.98072E+02 -2.19929E+04  1.04050E+04 -2.09699E+04  1.65033E+04 -1.77721E+04
  1.20330E+04  3.80589E+03 -7.78282E+03  7.72713E+03 -2.00226E+04 -7.79591E+03 -6.35753E+03 -3.33855E+04
  2.09538E+04 -4.56925E+04  4.73314E+04 -1.98127E+04  4.29792E+04  1.96854E+04  1.58265E+04  4.75495E+04
 -1.27077E+04  3.07740E+04 -1.76944E+04 -8.75223E+02 -6.54876E+03 -2.77256E+04  2.18594E+04 -3.27992E+04
  4.25123E+04 -9.57630E+03  3.11987E+04  2.08611E+04  1.71226E+04  4.59528E+04 -4.81273E+03  4.51503E+04
 -2.87085E+04  3.07059E+04 -3.43002E+04  8.92298E+03 -4.52586E+04 -1.35744E+04 -2.12884E+04 -3.31044E+04
  9.89647E+03 -3.70127E+04  3.09160E+04 -1.42449E+04  2.61390E+04  1.07154E+04  2.67890E+03  2.30801E+04
 -1.34419E+04  5.64499E+03 -1.34760E+04 -6.33617E+03  4.94574E+03 -1.01412E+04  1.83558E+04  6.60286E+03
  9.90103E+03  2.49259E+04 -4.63306E+03  2.41161E+04 -2.16722E+04  1.30916E+04 -2.00243E+04 -7.37104E+02
 -1.95212E+04 -1.63321E+04 -8.55890E+03 -2.17560E+04  6.39640E+03 -1.81134E+04  1.22001E+04 -1.50951E+04
  2.52041E+04 -1.30349E+04  3.40819E+04 -6.55122E+02  2.03290E+04  2.12520E+04  6.16215E+03  3.85491E+04
 -1.64064E+04  2.91820E+04 -2.58877E+04  5.83553E+03 -2.36585E+04 -1.09658E+04 -1.98209E+03 -1.29291E+04
 -8.59605E+01 -5.11864E+03 -2.47908E+03  1.10010E+04 -1.33503E+04  6.08953E+03 -1.53401E+04 -1.10169E+04
 -1.35813E+04 -1.35121E+04  6.90918E+03 -1.64757E+04  1.72782E+04 -1.76332E+04  1.37406E+04 -2.60428E+03
  6.52046E+03  1.66547E+04 -1.12405E+02  1.52630E+04 -7.38608E+03  1.25960E+04 -1.58594E+04 -6.68572E+03
 -1.18661E+04 -1.73666E+04 -4.12975E+02 -2.14435E+04  9.91441E+03 -2.07654E+04  1.51661E+04 -9.54232E+03
  1.78681E+04 -1.39445E+03  9.32625E+03  2.70771E+03  5.12181E+03  1.95357E+03  6.13141E+03 -5.37305E+03
  1.68302E+04  1.14715E+03  1.92871E+04  1.51436E+04  1.06562E+04  2.60388E+04 -4.74215E+03  2.88394E+04
 -1.36663E+04  2.58039E+04 -2.61550E+04  1.36115E+04 -3.11054E+04 -5.45271E+03 -2.15353E+04 -1.54945E+04
 -1.12891E+04 -2.43285E+04  7.43711E+03 -2.20429E+04  1.97448E+04 -1.89433E+04  1.99846E+04  5.17621E+03
  2.86344E+03  9.92354E+03 -1.00021E+04  1.05078E+04 -1.63103E+04  4.68533E+03 -9.11815E+03 -9.76262E+03
 -2.10747E+03 -1.59300E+04  4.90418E+03 -1.10603E+04  8.20294E+03 -4.76927E+03  2.23980E+03  9.16716E+03
 -1.11168E+04 -2.27109E+03 -3.11894E+03 -8.74124E+03  3.42258E+03 -1.23915E+04  9.65200E+03 -1.50178E+04
  1.68891E+04 -5.84358E+03  1.80080E+04  9.42800E+03  1.62760E+04  1.19488E+04  8.76256E+03  1.67244E+04
 -1.38517E+02  2.02716E+04 -1.08310E+04  1.69007E+04 -1.49302E+04  3.00591E+02 -7.67177E+03 -1.80308E+03
 -3.24468E+03 -4.38091E+03 -3.48886E+03  1.70966E+02 -1.36640E+03  3.01040E+03 -4.05440E+03  1.99725E+03
 -5.83965E+03 -1.01551E+02 -5.11160E+03 -9.65228E+03 -2.43145E+03 -6.58255E+03  2.68855E+03 -9.41688E+03
  1.03451E+04 -1.81492E+03  7.08416E+03  1.70309E+03 -9.61496E+02  3.71937E+03 -6.94970E+03  2.58048E+03
 -3.83306E+03 -8.11122E+02 -2.36734E+03 -1.12398E+04  5.61438E+03 -9.40079E+03  1.44761E+04 -5.58260E+03
  1.02325E+04 -9.42478E+02  1.11272E+04  7.86232E+03 -1.25268E+02  1.24452E+04 -1.20202E+03  1.29181E+04
 -8.49602E+03  6.49267E+03 -4.06358E+03 -1.72708E+03  6.91841E+03 -7.29862E+02  5.56877E+03 -3.42099E+03
  6.10080E+03  4.14409E+03  2.27310E+03  7.30983E+03 -3.93771E+03  1.10739E+04 -9.57404E+03  2.68637E+03
 -2.01790E+03 -5.88929E+03 -1.70620E+03 -1.14025E+04  8.50739E+02 -5.68931E+03  8.39153E+01  7.37461E+02
  9.16527E+02  6.96831E+03 -8.18478E+03  6.54818E+03 -7.45285E+03  3.37981E+03 -4.83472E+03 -4.31366E+03
 -4.19988E+03 -7.94040E+03  1.16523E+03 -9.04885E+03  6.84234E+03 -5.69147E+03  6.15989E+03  8.45359E+02
  6.73992E+03  7.88040E+03 -3.61228E+03  1.28038E+04 -6.83723E+03 -1.32137E+03 -7.66246E+03  8.22090E+02
 -7.15276E+03 -3.49478E+03  1.64211E+03 -6.13016E+03  6.10982E+02 -5.40341E+03  3.19467E+03 -3.55301E+03
  5.30252E+03 -2.96337E+03 -2.43843E+03 -6.69225E+01 -3.84673E+03 -3.20631E+03  3.22575E+03 -2.57877E+03
  2.38768E+03  2.90524E+03  1.06205E+04  4.46794E+03  9.22358E+03  7.31475E+03  8.52266E+03  1.12840E+04
  3.62950E+01  1.56964E+04 -1.01849E+04  6.97270E+03 -1.01580E+04 -1.73985E+03 -2.10701E+03 -6.44899E+03
 -8.29013E+03 -1.13423E+04 -6.73179E+03 -6.74336E+03 -1.19655E+03 -6.48118E+02  3.69616E+03 -1.35295E+03
  6.00111E+03 -3.36926E+03 -1.44818E+03 -6.48903E+03  6.83567E+03 -2.79242E+03  7.82201E+03 -4.09900E+03
  8.52401E+03  1.27205E+03 -1.15974E+03  1.42235E+03 -3.06000E+03  1.11956E+04 -4.52818E+03  6.37418E+03
 -7.27649E+03  9.78990E+02 -1.95333E+02 -5.21162E+03  2.30890E+03 -4.41109E+03  4.90993E+03 -7.27943E+03
  3.80346E+03 -4.41444E+03  5.61467E+03  7.22822E+03  1.41651E+03  5.70856E+03  1.55684E+03  9.50448E+03
 -1.92048E+03  8.66684E+03 -3.28440E+03  2.38077E+03 -4.25295E+03 -7.10031E+01  4.46637E+03 -6.35713E+02
 -1.73590E+03  2.78342E+03  3.66552E+03  3.49925E+03 -3.47793E+03  4.57065E+03 -9.01514E+03  2.31295E+03
 -4.47691E+03 -1.01654E+04  1.19219E+03 -5.12007E+03  6.03806E+03 -8.99486E+03  4.99512E+03 -8.48968E+03
  5.24462E+03  3.71273E+03  7.05049E+02  7.75720E+03 -6.38243E+03  5.93185E+03 -7.25332E+03  1.78791E+03
 -4.08679E+03  2.86110E+03 -3.07976E+03 -3.09141E+03  1.67647E+03 -7.28853E+03  1.54669E+03 -7.18446E+03
  6.40836E+03  3.02858E+03  1.33954E+03  3.70783E+03  1.09267E+03  4.86168E+03 -1.81151E+03 -2.59765E+03
  3.10933E+02 -6.51932E+02 -4.52625E+03  4.65288E+03  3.07982E+03  1.45187E+03  4.33677E+03  3.43087E+03
 -1.15636E+03  8.63479E+03 -2.51025E+03  6.83179E+03 -4.93613E+03  2.48478E+03 -6.03514E+03 -2.43815E+03
  1.85810E+02 -1.49702E+03 -3.70116E+03 -4.13156E+03  3.21982E+03 -6.63852E+03  7.52622E+03 -1.20133E+03
  3.81542E+03 -5.83893E+02  1.08744E+03  1.84334E+02 -4.07126E+03 -4.13241E+03 -5.75195E+03  2.15476E+03
 -6.30548E+03 -9.45319E+02  2.31743E+03 -7.69346E+02  3.41522E+03 -4.11871E+03  1.66684E+03  3.19513E+02
  2.78162E+03  3.62432E+03  4.99961E+02  1.03950E+03 -3.05832E+03  5.99659E+03  2.34939E+03 -2.01233E+03
  2.02169E+03 -2.30583E+03  4.43320E+03  2.17789E+03  1.67811E+03  1.94658E+03 -1.55696E+02  6.60253E+03
 -7.38633E+03  4.91436E+03 -4.03558E+03 -4.50879E+03 -1.58994E+03 -3.05419E+03 -3.44606E+03 -3.93357E+03
  3.19650E+03  4.09683E+02  3.60584E+03 -2.21912E+03 -7.90848E+02  2.33103E+03 -1.74920E+03  3.32739E+03
 -6.53300E+02  9.89395E+02 -4.36462E+03  3.30328E+03 -2.00249E+03 -1.07573E+02  4.13116E+02 -3.96842E+02
  3.72152E+03 -2.08487E+03  4.38362E+03 -1.78794E+02  1.41936E+03 -2.55086E+03  3.62197E+03  3.29569E+03
 -1.52455E+03 -4.84445E+03  2.70400E+03 -2.41313E+03 -2.89699E+03 -5.22842E+03  1.40756E+03  7.80841E+02
  4.92579E+03 -1.15604E+03  6.15787E+03  5.35994E+03  6.83106E+03  3.27638E+03  3.14310E+03  5.18734E+03
 -2.64477E+03  3.41609E+02 -2.21623E+03 -7.47270E+02  2.20460E+03 -1.76666E+03 -2.50062E+03 -3.08502E+03
  2.97528E+03 -6.21539E+02  2.32877E+03  1.98678E+02  2.98945E+03  1.60452E+03  3.20363E+02  3.06925E+03
 -5.06060E+03  5.63534E+03 -3.77822E+03  1.35118E+03  2.86675E+03  1.52574E+03 -5.48576E+03 -1.79195E+03
 -1.95000E+03  3.94886E+03 -1.06396E+03 -1.11716E+03 -6.36027E+03 -2.66213E+03 -2.72742E+03 -8.20634E+02
 -2.24425E+03 -3.71296E+03 -8.34999E+01 -3.13171E+03  3.76129E+02 -5.40067E+03  4.55558E+03 -2.25033E+03
  1.22510E+04 -4.73762E+03  1.37918E+03 -1.57030E+01 -5.69540E+02  3.39097E+03  1.94008E+03  1.92890E+03
 -4.51145E+02  3.27444E+03  2.10962E+03  2.54719E+03 -3.05169E+03 -9.10251E+02 -2.21696E+03 -1.75871E+03
 -8.90126E+02 -1.68020E+03  1.22066E+03  3.63327E+03 -6.78332E+02  7.03584E+02 -1.80931E+02 -5.60174E+02
  2.73672E+03  1.54378E+03  2.75780E+02  4.73304E+03 -3.23895E+03  6.85023E+03 -1.03578E+03  3.33386E+03
 -2.74109E+02  3.39672E+02 -1.25154E+04  4.96047E+03  1.71811E+03  3.52089E+03 -2.10549E+03 -6.23170E+02
  3.44147E+02 -2.74552E+03  1.20179E+03 -2.14498E+03 -6.89816E+02 -2.08265E+03 -8.53154E+02 -2.22327E+03
 -1.43592E+03 -1.50753E+03  2.86507E+03  1.99890E+03 -5.71009E+02  5.33780E+03 -3.35287E+03  1.60972E+03
  3.94803E+03  1.81712E+03  3.24688E+03 -2.34042E+03  8.23511E+02  2.27545E+03 -6.27379E+02  1.46150E+03
 -2.54353E+03  1.94530E+03  1.75968E+03  2.08599E+03 -3.19891E+03 -4.39913E+03 -1.08147E+03 -6.02035E+03
 -1.81079E+03 -3.51475E+03  5.98040E+02 -4.19219E+03  4.58489E+03  7.75476E+02  3.56397E+03  3.97203E+03
  1.41819E+03 -2.08883E+03 -4.21655E+03  3.47875E+03 -3.33215E+03  3.06162E+02  4.85921E+03  2.97672E+03
  1.77842E+03  5.03483E+03  1.37175E+03  8.14306E+02 -4.26677E+03 -2.29997E+03 -8.30089E+03 -4.32429E+03
  1.59463E+02 -3.73629E+03 -3.34587E+03  2.72071E+03  1.26347E+03 -8.20738E+03 -3.06137E+03  1.83262E+03
  1.58223E+02  1.12388E+02  4.05037E+03  4.58176E+03  1.17565E+03 -2.17965E+02 -1.79795E+03 -1.98153E+03
