 $NMID ID='MM_0lb_SNR50_10hz_g50_89.RAW', FMTDAT='(8E13.5)'
 TRAMP=1., VOLUME=1. $END
  3.16726E+05 -2.61957E+03  3.38588E+05  2.49718E+05  8.43978E+04  3.37087E+05 -1.30351E+05  2.48905E+05
 -1.88542E+05  8.32248E+04 -1.09672E+05 -3.46108E+04 -2.16126E+03 -5.31145E+04  5.16798E+04  3.59397E+02
  2.96475E+04  5.83058E+04 -1.93715E+04  7.47950E+04 -5.59994E+04  6.75558E+04 -8.88053E+04  3.36653E+04
 -7.88229E+04 -1.16636E+04 -5.51801E+04 -4.92821E+04 -1.62344E+04 -7.06852E+04  2.86200E+04 -4.64241E+04
  4.33586E+04  9.75754E+03  1.57217E+04  4.68476E+04 -3.16544E+04  4.16409E+04 -6.26862E+04  5.48614E+02
 -5.14813E+04 -5.28566E+04 -1.22617E+04 -7.70750E+04  3.47122E+04 -6.36329E+04  4.85819E+04 -2.11687E+04
  4.87603E+04  1.13878E+04  2.25497E+04  2.70112E+04  1.34106E+04  3.08755E+04 -1.05110E+04  2.46897E+04
 -2.54313E+04  5.14698E+03 -1.44190E+04 -7.87219E+03  9.79860E+03 -9.10005E+03  2.04966E+04  1.67596E+04
  8.05729E+03  3.70887E+04 -2.54873E+04  3.69220E+04 -6.64500E+04  1.17814E+03 -5.51024E+04 -4.28643E+04
 -8.07633E+03 -6.71231E+04  4.38821E+04 -4.86332E+04  5.89533E+04 -1.76668E+03  3.66599E+04  3.60265E+04
 -7.34099E+03  3.66254E+04 -3.18301E+04  1.52786E+04 -2.70527E+04 -3.41127E+03 -1.03063E+04 -1.55518E+04
 -1.31699E+04 -8.03165E+03  3.18843E+03 -2.13512E+04  3.25553E+03 -2.53309E+04  1.40249E+04 -1.47267E+04
  1.69752E+04 -1.41353E+03 -1.22089E+04  8.27384E+03 -2.82065E+04 -9.50698E+03 -7.04193E+03 -3.36972E+04
  2.03484E+04 -4.55681E+04  5.14593E+04 -2.18039E+04  4.85189E+04  1.97316E+04  1.08798E+04  5.01785E+04
 -8.98778E+03  3.77036E+04 -2.82286E+04 -1.50057E+03 -1.93969E+04 -3.57749E+04  2.20263E+04 -3.33521E+04
  4.77860E+04 -1.01560E+04  4.03831E+04  2.59730E+04  2.43961E+04  4.89853E+04 -4.84907E+03  6.06943E+04
 -3.30532E+04  3.91255E+04 -4.73075E+04  1.27288E+04 -4.65464E+04 -2.04059E+04 -2.89240E+04 -3.59942E+04
  1.68134E+03 -4.77755E+04  3.41894E+04 -1.81777E+04  3.57644E+04  1.23115E+04  4.89227E+03  2.44919E+04
 -1.94598E+04  1.50784E+04 -1.00058E+04 -1.28762E+04  5.69436E+03 -1.59943E+04  1.38859E+04  7.70171E+03
  1.56628E+04  2.25063E+04 -4.09991E+03  3.20199E+04 -1.79137E+04  1.75101E+04 -2.86794E+04 -6.51479E+03
 -2.68674E+04 -8.33551E+03 -1.01287E+04 -2.70792E+04  2.26476E+03 -2.20062E+04  1.90877E+04 -2.22751E+04
  2.78981E+04 -1.98226E+04  3.79982E+04  3.79849E+03  2.24531E+04  2.25814E+04  4.78410E+03  4.02958E+04
 -1.83020E+04  3.46288E+04 -2.95215E+04  1.00771E+04 -1.89444E+04 -6.62624E+03 -7.96499E+03 -1.02558E+04
 -4.47883E+02 -4.16827E+03 -5.82860E+03  4.48147E+03 -2.48578E+04  6.09719E+03 -2.00968E+04 -1.14069E+04
 -1.41716E+04 -2.11750E+04  5.99961E+03 -2.65742E+04  1.69130E+04 -1.97460E+04  1.98208E+04  3.43000E+03
  1.36046E+04  1.93064E+04 -4.20921E+03  1.78840E+04 -1.50167E+04  1.52225E+04 -1.70517E+04 -5.99546E+03
 -1.15094E+04 -1.80478E+04  2.87553E+03 -2.50494E+04  1.24888E+04 -2.17261E+04  2.48221E+04 -2.02647E+04
  2.20595E+04  1.72999E+02  1.87779E+04  8.49065E+03  1.19524E+04 -7.07990E+02  1.63970E+04  2.47423E+03
  2.25200E+04  6.84741E+03  2.68250E+04  2.23750E+04  1.58941E+04  3.72410E+04 -5.69428E+03  4.41019E+04
 -1.60499E+04  3.34062E+04 -4.00498E+04  1.92582E+04 -3.94696E+04 -4.92883E+03 -2.89524E+04 -2.64575E+04
 -8.81665E+03 -3.55801E+04  1.37093E+04 -3.32829E+04  3.10789E+04 -9.97904E+03  2.76015E+04  7.00657E+03
  4.05198E+03  1.74129E+04 -1.20989E+04  1.05218E+04 -1.54611E+04  1.09642E+03 -1.81506E+04 -1.39809E+04
  1.57481E+03 -1.34388E+04  1.17380E+04 -1.90032E+04  1.76377E+04 -2.20906E+03  8.25545E+03  6.90113E+03
 -4.39322E+03  6.71092E+03 -5.94927E+03  7.59863E+02 -4.55262E+03 -1.92323E+04  1.06906E+04 -1.81077E+04
  2.16460E+04 -2.38042E+03  2.17237E+04  6.23138E+03  1.95854E+04  1.45229E+04  7.50514E+03  1.68983E+04
 -1.58074E+03  3.53614E+04 -2.13655E+04  2.11593E+04 -1.77366E+04  1.07023E+04 -6.94984E+03 -9.04798E+03
 -1.00161E+04 -1.82997E+03 -3.63157E+03 -3.70418E+03 -7.24897E+03  1.85911E+03 -2.06992E+03  2.28971E+03
 -1.08436E+04 -2.55360E+03 -1.99664E+04 -1.02119E+04 -4.30205E+03 -2.13362E+04  3.47659E+03 -1.58259E+04
  9.40304E+03 -7.20743E+03  1.03293E+04 -1.16750E+03 -1.65323E+03  6.04524E+03 -8.25771E+03 -3.21251E+03
 -2.88448E+03 -1.15213E+04 -3.26937E+03 -1.39541E+04  1.15864E+04 -1.28115E+04  1.67377E+04 -7.19822E+03
  2.25183E+04  2.83973E+03  1.60030E+04  1.52375E+04  6.88160E+03  1.53791E+04 -9.97916E+03  1.45485E+04
 -1.29666E+04  2.74626E+03 -7.34944E+03 -3.27247E+03  5.07857E+03 -1.51902E+03  8.04097E+03 -3.24609E+03
  2.83989E+03  4.48661E+03 -2.31838E+03  1.19268E+04 -5.69387E+03  1.65538E+04 -1.49916E+04 -2.25975E+03
 -4.32528E+03 -6.91899E+03  6.31147E+02 -1.38642E+04  1.85268E+03 -7.41073E+03  1.14360E+04  5.80797E+03
 -5.62745E+02  5.00022E+03 -8.28367E+03  1.12753E+04 -1.46566E+04  5.10078E+03 -6.87623E+03 -5.08473E+03
 -1.04682E+04 -1.29955E+04 -1.52756E+03 -1.30252E+04  1.22303E+04 -8.02630E+03  1.37287E+04  2.61177E+03
  7.80672E+03  1.29888E+04 -7.70267E+02  1.38700E+04 -9.40097E+03  9.51110E+03 -1.49604E+04 -1.18694E+02
 -1.32111E+04 -9.90230E+03 -2.22181E+03 -1.24281E+04  1.29789E+04 -5.54424E+03  3.23539E+03 -4.32770E+03
  3.05295E+03  5.66261E+03 -9.84329E+02 -3.01435E+03 -5.92125E+03 -3.86927E+03  4.25057E+01 -4.90077E+03
  1.04575E+04 -7.86391E+03  1.36751E+04 -1.84815E+03  1.27323E+04  7.90514E+03  8.29934E+03  1.77223E+04
  5.48656E+02  2.44756E+04 -1.96160E+04  2.14273E+04 -2.68582E+04  4.45970E+03 -2.06161E+04 -9.77928E+03
 -1.24547E+04 -1.16822E+04 -7.22408E+02 -1.18607E+04  1.18006E+03 -3.52794E+03  5.92097E+03 -3.23073E+03
  3.13662E+03 -3.20335E+03  5.42042E+03 -5.32408E+03  3.62485E+03 -8.28667E+03  8.08448E+03 -1.74415E+03
  1.23519E+04  2.87635E+03  8.71934E+03  1.60638E+04  9.65706E+01  1.16806E+04 -1.09726E+04  5.16943E+03
 -8.32368E+03 -2.81701E+03 -8.18226E+03 -8.67678E+03  2.15917E+03 -1.46977E+04  5.16201E+03 -1.75011E+04
  1.76160E+04 -3.63796E+03  2.10475E+04 -2.36371E+03  1.05946E+04  1.40625E+04 -7.98484E+02  1.84274E+04
 -8.20945E+03  1.11233E+04 -7.22269E+03  2.15898E+03 -9.06342E+03 -3.92773E+03 -8.96491E+03 -2.77498E+03
 -6.28561E+03 -2.59378E+03  4.46482E+03  4.49766E+03 -9.24395E+03 -3.21771E+03 -1.19407E+04  3.56847E+03
 -6.89252E+03 -3.32007E+03 -1.41440E+03 -1.64772E+04  9.57272E+03 -7.72999E+03  1.32662E+04  1.01901E+03
  8.06771E+03  5.57500E+03  2.84020E+02  1.35333E+04 -4.75615E+03  1.61449E+04 -5.07904E+03  1.10583E+04
 -8.06877E+03 -2.65958E+03 -9.89476E+03 -5.91145E+03 -2.26853E+03 -1.10473E+04  3.47764E+03 -1.37278E+04
  6.20291E+03 -3.22375E+03  7.20676E+03 -1.38606E+03 -4.17712E+03  6.16222E+03  2.03405E+03  5.36876E+03
  7.18991E+02  2.13035E+03  4.03981E+03  3.43502E+03  9.63271E+03  9.01845E+03  6.29847E+02  7.60053E+03
  3.05445E+02  1.22358E+04 -6.15876E+03  7.16676E+03 -1.21021E+04 -1.89142E+02 -1.33383E+04 -1.96689E+02
 -8.98986E+03 -1.39887E+04  2.86512E+03 -1.34623E+04  4.63608E+03 -1.19709E+04  8.10295E+03 -9.35906E+02
  3.23099E+03  2.69120E+03  6.66437E+02  9.84735E+03 -2.84912E+03  4.58897E+03 -1.28488E+04 -3.64230E+03
 -3.47759E+03 -1.20106E+04  2.25249E+03 -5.21882E+03  8.54312E+03 -6.06871E+03  1.00682E+04 -3.84383E+02
  1.84508E+03 -1.19179E+03  1.90817E+03  5.92677E+03 -6.86967E+02  1.39237E+03  6.14927E+03 -2.19835E+02
  8.52707E+03 -9.59981E+03  3.73701E+03  3.08253E+03  6.99883E+03  5.45223E+03 -3.85333E+03  8.22064E+03
 -6.63362E+03  7.76582E+03 -9.79251E+03  6.71627E+03 -1.03934E+04 -2.76939E+03  2.12098E+03 -6.54922E+03
  6.41366E+03 -8.81015E+03  4.93377E+02 -2.02688E+03  7.29384E+03  6.35650E+02 -1.08529E+03  2.57851E+03
 -3.72609E+02  2.34978E+03 -8.86453E+03 -2.73340E+03 -3.76567E+03 -5.99842E+03 -3.77900E+03 -2.46044E+03
  9.45824E+03 -5.40125E+03  5.94888E+03 -3.33061E+03  4.71470E+03  1.94091E+02  5.32190E+03  7.74124E+02
 -1.01547E+03 -2.70804E+03 -1.76400E+02  1.10709E+03  2.59573E+03 -3.96772E+02  4.80084E+03  1.27247E+03
  2.46473E+03  5.00803E+03  1.05866E+04  6.60659E+03  4.27555E+03  8.46082E+03 -1.59199E+03  7.51365E+03
 -4.83524E+03  6.86372E+03 -6.81730E+03 -5.62139E+03 -3.16580E+03 -2.05068E+03  3.94531E+03 -5.09663E+03
  4.91161E+03 -7.48538E+03  3.07209E+03  2.34408E+03  5.84864E+03  6.62989E+03 -1.01240E+03  3.56671E+03
 -5.42617E+03  9.15444E+03  1.98153E+02 -3.86541E+03  5.02888E+03 -6.02771E+03 -4.30484E+03 -1.25250E+03
 -2.03102E+03 -2.27177E+03 -2.85486E+03  6.24820E+03 -9.94409E+03  2.24757E+03 -5.74426E+03 -6.13382E+03
 -5.93078E+03 -9.93668E+03 -4.77028E+02 -1.58822E+04  8.24035E+03 -7.07714E+03  1.08243E+04 -6.14680E+03
  1.46699E+04  6.44955E+03  5.77595E+03  7.21252E+03  3.80608E+03  1.12974E+04 -5.21434E+03  5.98132E+03
 -4.47223E+03  1.84421E+03 -4.42749E+03 -7.34040E+03 -1.79423E+03 -4.71907E+03  2.33811E+03  2.66153E+02
  1.86804E+03 -4.19680E+02 -5.19428E+03 -7.83381E+02 -7.20762E+02 -1.08013E+03  6.71969E+02 -1.29331E+03
  5.65181E+03 -4.11746E+03  8.84264E+03  9.15750E+02  5.71122E+03  8.07087E+03  5.14918E+03  6.78522E+03
 -6.33275E+03  9.32774E+03 -1.00952E+04  4.91901E+03 -4.11634E+03 -7.56403E+03 -5.65125E+03 -8.54924E+03
 -1.09692E+02 -1.29845E+04  6.86192E+02 -1.01899E+04  6.21898E+03 -6.38426E+03  4.00067E+03  3.22121E+03
  4.83396E+03  7.33821E+03  8.54801E+01  1.39565E+03 -3.52372E+03 -3.69342E+03  5.61168E+03 -2.18707E+03
  2.93559E+03  1.17731E+03  1.33972E+03 -1.12189E+03  3.56011E+03  2.00222E+03  6.13329E+03  4.54556E+03
 -4.38971E+03  5.75968E+03 -9.04392E+03 -4.30482E+01 -3.93409E+03 -8.42909E+03  1.31234E+03 -8.45556E+03
  6.21901E+03 -8.32939E+03  5.60251E+03 -6.04515E+02  7.88027E+03  8.46034E+02  7.13376E+03  9.28199E+02
 -3.16884E+03  3.19648E+03 -6.48768E+03  7.09901E+03 -4.59516E+02 -8.94534E+02 -2.53752E+03  1.12164E+03
 -2.34253E+03  3.21213E+03 -1.73722E+03 -4.95171E+02 -4.89008E+03 -5.65342E+02 -6.88174E+03 -2.67285E+02
 -3.62149E+03 -5.90977E+03 -1.79063E+03 -9.21150E+03  7.46069E+03 -5.86851E+03  6.73031E+03 -2.79690E+03
  6.40876E+03  2.99026E+03  7.29110E+03  1.96744E+03 -2.22987E+03  6.08118E+03 -2.01206E+03  6.52945E+03
