 $NMID ID='MM_0lb_SNR50_9hz_g40_28.RAW', FMTDAT='(8E13.5)'
 TRAMP=1., VOLUME=1. $END
  3.07269E+05  3.87772E+03  3.43555E+05  2.52953E+05  8.38636E+04  3.42396E+05 -1.32771E+05  2.50765E+05
 -1.90943E+05  8.64688E+04 -1.11574E+05 -3.43427E+04  5.09697E+03 -5.53554E+04  5.27018E+04 -1.59933E+03
  3.51978E+04  5.61495E+04 -1.70983E+04  7.65164E+04 -6.43381E+04  6.24488E+04 -8.90696E+04  3.18827E+04
 -8.31349E+04 -1.26746E+04 -6.15447E+04 -5.41212E+04 -2.00882E+04 -6.96225E+04  2.71368E+04 -4.87244E+04
  4.50453E+04  3.50531E+03  1.51052E+04  4.68204E+04 -3.94450E+04  4.51380E+04 -6.28474E+04  7.04903E+03
 -4.79955E+04 -5.56103E+04 -1.02280E+04 -7.78155E+04  3.21746E+04 -5.17225E+04  4.30415E+04 -2.23940E+04
  4.57197E+04  1.54308E+04  3.04167E+04  2.76991E+04  1.80183E+04  3.19967E+04  4.82278E+02  2.62181E+04
 -1.97606E+04  1.00184E+04 -1.25824E+04 -2.54993E+03  5.19543E+03 -1.00843E+04  2.38328E+04  1.51728E+04
  8.69265E+03  3.67609E+04 -3.65014E+04  3.56264E+04 -6.95504E+04  3.79644E+02 -5.49683E+04 -4.54719E+04
 -1.43526E+04 -6.40047E+04  3.56964E+04 -5.45002E+04  6.01110E+04 -7.35005E+03  3.29512E+04  3.74421E+04
 -6.64855E+03  3.81787E+04 -3.44144E+04  1.01975E+04 -3.20815E+04 -2.24534E+03 -1.82698E+04 -9.80143E+03
 -6.47592E+03 -1.17065E+04  1.60356E+03 -2.35080E+04  1.01533E+04 -2.07370E+04  1.77008E+04 -1.04971E+04
  1.02112E+04  5.22532E+03 -6.81818E+03  1.14705E+04 -2.66654E+04 -5.96548E+03 -6.65712E+03 -4.43450E+04
  2.42873E+04 -4.65203E+04  5.23494E+04 -2.57758E+04  5.06724E+04  2.09080E+04  1.17838E+04  4.17551E+04
 -1.67408E+04  3.51042E+04 -3.00970E+04  3.82880E+03 -1.25255E+04 -2.71223E+04  2.17302E+04 -3.66521E+04
  4.79468E+04 -1.58482E+04  3.95837E+04  1.93021E+04  2.01840E+04  4.55038E+04 -9.95540E+03  6.14407E+04
 -3.44136E+04  3.70674E+04 -4.41592E+04  1.22081E+04 -4.60201E+04 -1.88443E+04 -2.64814E+04 -4.59757E+04
  1.09526E+04 -3.81346E+04  3.65598E+04 -1.56777E+04  2.95522E+04  1.53089E+04  6.26680E+03  1.78035E+04
 -1.58107E+04  1.13174E+04 -8.60895E+03 -5.26847E+03  7.14614E+03 -1.51750E+04  1.51083E+04  8.94193E+03
  1.49665E+04  2.31863E+04 -4.53512E+03  3.10288E+04 -2.67728E+04  1.03287E+04 -3.43440E+04 -5.38947E+03
 -2.52114E+04 -1.18438E+04 -9.60124E+03 -2.41563E+04  2.73568E+03 -2.14977E+04  1.72054E+04 -1.87717E+04
  2.80329E+04 -1.09009E+04  3.43832E+04  9.73594E+01  2.62855E+04  2.13222E+04  5.25312E+02  3.76937E+04
 -2.03622E+04  3.77463E+04 -2.62859E+04  1.16067E+04 -2.07325E+04 -9.02972E+03 -6.22759E+03 -1.37690E+04
 -5.84578E+03 -2.10989E+03 -6.72867E+03  2.19284E+03 -2.04537E+04 -2.64131E+03 -1.64611E+04 -5.25352E+03
 -7.49055E+03 -2.02021E+04  7.57457E+03 -2.43512E+04  1.85159E+04 -2.07656E+04  1.88801E+04 -4.02106E+03
  1.68247E+04  2.08125E+04 -7.81507E+03  1.83488E+04 -2.15426E+04  1.26731E+04 -2.41561E+04 -6.72300E+03
 -1.03732E+04 -2.62620E+04 -8.55591E+03 -2.16236E+04  1.34048E+04 -1.79595E+04  2.12155E+04 -1.14706E+04
  1.41435E+04  3.07021E+03  1.98101E+04  8.04367E+03  6.45614E+03  2.51867E+03  1.31456E+04  4.36165E+02
  2.25919E+04  4.28865E+03  1.94405E+04  1.80799E+04  1.61987E+04  3.31377E+04 -6.80239E+03  4.16014E+04
 -3.19673E+04  2.70486E+04 -4.06863E+04  1.89465E+04 -4.44082E+04 -7.22594E+02 -3.61130E+04 -2.58164E+04
 -1.78888E+04 -2.99380E+04  1.36972E+04 -3.10104E+04  2.43954E+04 -1.72446E+04  2.59292E+04  1.06630E+03
  1.48090E+04  1.65493E+04 -1.63672E+04  1.90617E+04 -2.00407E+04  7.64809E+02 -1.15448E+04 -1.44640E+04
 -4.07254E+03 -2.81184E+04  6.53964E+03 -1.91576E+04  1.93715E+04 -1.39747E+03  1.25466E+02  6.90177E+03
 -6.55071E+03  2.55959E+03 -7.93094E+03 -7.70640E+03  3.58146E+03 -1.58254E+04  1.61650E+04 -2.01805E+04
  2.00891E+04 -5.86390E+03  2.69955E+04  3.07122E+03  1.72108E+04  1.45132E+04  1.01061E+04  2.83584E+04
 -6.04264E+03  3.34571E+04 -1.71412E+04  2.05907E+04 -2.24696E+04  9.00638E+03 -2.06670E+04 -6.40602E+03
 -2.90239E+03 -7.32611E+03 -1.93141E+03 -2.86349E+03 -7.48810E+03  6.23053E+03 -8.14311E+03  1.32438E+03
 -1.45477E+04 -1.88055E+03 -1.23645E+04 -8.51394E+03 -6.33734E+03 -1.39623E+04  1.05170E+04 -1.59719E+04
  1.50025E+04 -8.33478E+03  1.52767E+04  9.57816E+03 -3.12716E+02  3.11603E+03 -4.58598E+03 -9.15132E+02
 -8.34161E+03 -7.67185E+03  8.24587E+02 -1.29791E+04  9.81351E+03 -1.60015E+04  2.37936E+04 -1.72494E+04
  2.49073E+04 -6.90477E+02  1.92411E+04  1.52359E+04  4.17684E+03  1.81786E+04 -7.61516E+03  1.57535E+04
 -7.40380E+03  2.02662E+03 -6.68153E+03 -9.72463E+02 -8.31021E+02 -8.73334E+03  9.37095E+03  2.29324E+03
  7.00201E+03  8.41807E+03  1.44875E+03  1.68725E+04 -7.78585E+03  1.19093E+04 -1.60248E+04  2.79309E+03
 -1.09346E+04 -7.19239E+03  1.31197E+03 -1.32285E+04  4.30828E+03 -9.47173E+03  9.82942E+03  7.16352E+03
  7.04536E+03  1.43610E+04 -1.03102E+04  1.22038E+04 -6.05905E+03 -6.75620E+02 -9.58231E+03 -2.12126E+03
 -8.68277E+03 -1.53190E+04  8.41148E+02 -1.25437E+04  9.95736E+03 -1.29507E+04  1.04835E+04  3.74448E+03
  3.74750E+03  8.83382E+03 -7.69326E+02  2.49059E+04 -6.76221E+03  8.13169E+03 -1.46840E+04 -3.45033E+03
 -1.48000E+04 -7.86701E+03 -2.63175E+03 -9.40298E+03  2.63860E+03 -7.53279E+03  2.82777E+03 -6.32534E+03
  9.05329E+03  7.68426E+03 -1.75537E+02  1.45092E+03  6.78614E+03 -4.05230E+03 -6.27535E+02 -6.96834E+03
  9.09075E+03 -6.06409E+03  1.59947E+04  1.80767E+03  9.60646E+03  1.25985E+04  9.68494E+03  2.47946E+04
 -8.90103E+03  1.69666E+04 -1.32956E+04  1.85080E+04 -2.34507E+04  4.35221E+03 -1.74526E+04 -9.87720E+03
 -1.14475E+04 -1.15149E+04 -2.14458E+03 -1.28213E+04  5.71649E+03 -1.07957E+04  3.17001E+03  4.56227E+02
  1.50317E+03  3.52278E+03  2.67955E+03 -3.88120E+03  3.69272E+03  3.04679E+03  4.67670E+03 -4.22556E+03
  1.02015E+04  3.62024E+03  8.66153E+03  1.39500E+04 -2.15246E+03  4.19939E+03 -1.43885E+04  8.65853E+03
 -1.17665E+04 -2.14104E+03 -6.84278E+03 -8.29697E+03 -4.31331E+03 -2.37463E+04  1.00085E+04 -1.61484E+04
  1.57131E+04 -6.50337E+03  1.99880E+04  5.45182E+03  1.03301E+04  1.39390E+04 -4.27084E+03  1.30681E+04
 -4.71112E+03  8.90836E+03 -1.00465E+04  1.07431E+04 -7.02844E+03 -3.49307E+03  1.74410E+03 -3.01268E+03
  1.05134E+03 -2.13463E+03 -4.92370E+03 -1.36207E+03 -3.49173E+03  5.88586E+02 -1.19155E+04  3.62242E+03
 -7.16915E+03 -7.13658E+03  4.58427E+03 -1.67222E+04  1.61114E+03 -1.18216E+04  1.85061E+04 -3.65564E+03
  1.66380E+04  1.43006E+04  9.50858E+03  9.61455E+03 -6.19282E+03  1.45680E+04 -1.76950E+04  5.51092E+03
 -1.90023E+04 -1.80242E+03 -9.72387E+03 -6.71404E+03 -1.83184E+03 -1.76000E+04  5.40749E+02 -8.87820E+03
  1.08467E+04 -4.88121E+03  9.13094E+03  4.08006E+03 -5.13886E+02  9.52810E+03 -5.61533E+03  5.59955E+03
  2.79776E+03  1.82948E+03  4.13376E+03 -1.98014E+03 -2.86741E+03  6.93647E+03  2.27837E+03  8.94044E+03
 -8.88357E+03  1.25548E+04 -1.11117E+04  1.72991E+04 -1.86473E+04  3.95726E+03 -1.76499E+04 -7.15872E+03
 -6.23213E+03 -9.83228E+03  5.92251E+03 -1.07705E+04  8.13161E+03 -3.10230E+03  1.53254E+04 -1.51470E+03
  9.98386E+03  7.75510E+03  3.85251E+03  3.52982E+03 -6.49976E+03  2.01832E+03 -2.25897E+03  5.32709E+03
 -2.98853E+03 -1.97369E+03 -1.76441E+02 -8.43310E+03  1.32083E+04  2.03884E+02  4.73218E+03  2.15546E+03
  3.47094E+03  1.27080E+03  4.41891E+03  1.81811E+03 -5.98048E+03  4.72480E+03  5.09320E+02  1.02420E+03
  2.39833E+03 -4.97713E+03  1.19693E+03  2.22164E+03  1.25009E+03  1.15347E+04 -3.69068E+03  1.29179E+04
 -1.08512E+04  6.44425E+03 -4.08245E+03  8.04217E+03 -9.18981E+03 -9.00263E+02  9.61255E+02 -5.96208E+03
  1.19472E+03 -3.55264E+03  2.51615E+02 -6.93551E+03  6.61771E+03  6.88288E+03  2.90703E+03  5.38157E+03
 -7.84213E+03  5.49057E+03 -2.94964E+03 -8.10201E+03  3.96572E+03 -3.72995E+02  8.02627E+03 -1.52766E+04
  5.59412E+03 -6.41169E+03  2.48131E+03  8.34285E+03  6.40933E+03  1.59235E+03  2.80360E+03  5.93460E+03
 -4.93410E+03 -7.95230E+02 -2.71007E+03 -4.24785E+03  3.15556E+03 -7.52138E+03  1.61908E+03 -1.00701E+04
  1.13763E+04  3.99651E+03  6.48312E+03  3.46118E+03  1.18604E+04  8.01678E+03 -3.30681E+03  1.63787E+04
 -5.80153E+03  7.77209E+03 -4.52093E+03  3.11101E+03 -3.44126E+03 -3.98127E+03  2.12282E+03 -1.25579E+04
  7.17373E+03 -4.15222E+03 -3.87685E+02 -2.28192E+03 -3.52852E+03  9.42005E+03 -5.38753E+01  6.45485E+03
  1.34257E+03 -1.82146E+02 -3.30217E+03 -1.15285E+03  1.05660E+03  3.94507E+03 -7.82156E+03  7.46604E+02
 -4.01705E+03 -2.21503E+03 -7.90385E+03  5.31238E+03 -1.14010E+04  3.64899E+03 -1.07682E+04 -4.56562E+03
 -2.31457E+03 -8.78224E+03 -1.16278E+03 -1.63436E+04  9.88303E+03 -1.29152E+04  1.56168E+04 -7.17569E+03
  1.19606E+04  3.77413E+03  7.66092E+03  7.27797E+03 -5.32386E+03  1.43457E+04 -1.76986E+03  6.87997E+03
 -7.51868E+03  2.78606E+03  8.12397E+01 -4.35002E+03  3.82347E+02 -2.37576E+03  6.16594E+03  5.42011E+02
 -1.85569E+03  1.75076E+03 -1.94966E+03  2.77740E+03 -3.42164E+03 -1.90182E+03  7.78455E+02 -8.02718E+03
  8.21847E+03 -5.32341E+03  4.80814E+03 -4.28727E+03  8.29056E+02  6.39698E+03  1.51742E+03  3.99904E+03
 -1.08339E+04  1.40144E+04 -1.41640E+04  8.05556E+03 -1.37020E+04 -4.96921E+03 -1.10667E+04 -1.17411E+04
 -1.74286E+03 -1.07162E+04 -3.47898E+03 -1.10871E+04  3.19638E+03 -1.43570E+03  4.94233E+03  1.27481E+03
  1.35132E+03  5.75304E+03 -4.90426E+03  4.47527E+03  1.24677E+03 -6.41376E+03 -1.69102E+03 -5.41815E+03
  3.99307E+03  3.56272E+02 -2.47328E+01  2.15833E+03  2.85416E+03  7.62759E+03  1.87320E+03  1.38500E+04
 -7.53975E+03  5.23175E+03 -5.42728E+03 -7.44155E+02 -5.20084E+03 -4.59792E+03  2.02249E+03 -1.15505E+04
  7.98319E+03 -9.04924E+03  8.30246E+03 -4.69062E+03  7.41591E+03  1.54180E+03  1.55176E+03  1.31440E+04
 -9.66279E+02  9.94192E+03 -4.10437E+03  4.48168E+03 -1.06598E+04  6.78709E+03  2.14848E+03  3.31553E+03
 -2.05920E+03  8.82342E+02 -6.99861E+03  3.30120E+03 -1.08008E+03  4.89410E+03 -5.23456E+03  3.22122E+03
 -5.79168E+03  8.21775E+02  9.41728E+03 -4.65961E+03  3.61512E+03 -3.36351E+03  5.43280E+03 -5.90025E+03
  1.15489E+03  4.71719E+01  1.02763E+03  4.05702E+03  2.10976E+03  9.96561E+03 -1.34479E+03  3.31752E+03
