 $NMID ID='MM_0lb_SNR50_19hz_g55_70.RAW', FMTDAT='(8E13.5)'
 TRAMP=1., VOLUME=1. $END
  3.10014E+05 -9.30095E+00  3.37484E+05  2.46910E+05  8.62150E+04  3.37639E+05 -1.30844E+05  2.46649E+05
 -1.90609E+05  7.93075E+04 -1.10227E+05 -3.35386E+04 -1.00599E+03 -5.06660E+04  5.08310E+04  4.63570E+03
  3.31526E+04  5.27340E+04 -1.18413E+04  7.79347E+04 -5.93099E+04  5.84374E+04 -8.29485E+04  3.03841E+04
 -8.58481E+04 -1.13011E+04 -5.74494E+04 -5.35293E+04 -1.65427E+04 -6.81230E+04  3.06194E+04 -4.33587E+04
  4.19524E+04  4.32443E+03  1.79627E+04  4.85279E+04 -3.29312E+04  5.03363E+04 -6.47980E+04 -1.44951E+03
 -5.29262E+04 -5.86482E+04 -3.89335E+03 -7.42236E+04  3.60934E+04 -5.36289E+04  4.85318E+04 -1.86836E+04
  4.83540E+04  1.17495E+04  2.81126E+04  2.44608E+04  1.77209E+04  2.39376E+04 -1.10912E+04  2.69765E+04
 -2.34705E+04  1.11635E+04 -1.39577E+04 -2.09772E+03  7.12988E+03 -9.65767E+03  2.06854E+04  1.25749E+04
  1.26996E+04  3.28094E+04 -3.01486E+04  3.08066E+04 -6.46222E+04  5.52550E+03 -5.48901E+04 -4.23472E+04
 -1.06513E+04 -6.39172E+04  3.58414E+04 -4.51194E+04  5.48880E+04 -2.73808E+03  3.29942E+04  3.02196E+04
 -7.98350E+03  3.75902E+04 -3.01727E+04  1.51708E+04 -2.93476E+04 -5.45961E+03 -1.45222E+04 -7.16965E+03
 -7.76874E+03 -1.20736E+04 -3.67285E+03 -1.94204E+04  5.93641E+03 -2.30996E+04  1.55772E+04 -1.30642E+04
  1.03611E+04 -6.05881E+02 -5.70043E+03  1.41984E+04 -1.99767E+04  1.30171E+03 -7.33834E+03 -2.95391E+04
  1.93256E+04 -3.85874E+04  4.20340E+04 -1.70927E+04  4.60061E+04  1.93953E+04  1.37058E+04  4.56457E+04
 -1.76992E+04  3.17938E+04 -2.44600E+04  3.90786E+03 -1.01377E+04 -2.33046E+04  1.74144E+04 -2.81271E+04
  3.92136E+04 -5.29399E+03  3.31405E+04  2.14384E+04  1.14973E+04  3.71021E+04 -8.73375E+03  4.75335E+04
 -2.76320E+04  3.21176E+04 -3.70059E+04  8.81187E+03 -3.99573E+04 -1.31068E+04 -2.26624E+04 -3.52340E+04
  7.05521E+03 -3.56355E+04  2.98602E+04 -1.12701E+04  3.03154E+04  1.38603E+04  2.40183E+03  1.64024E+04
 -1.55886E+04  9.02833E+03 -7.38703E+03 -9.47480E+03  5.99704E+03 -7.20441E+03  1.47427E+04  4.32777E+03
  1.22424E+04  1.82337E+04 -7.38478E+03  2.24282E+04 -2.25701E+04  6.93319E+03 -2.30697E+04 -8.50760E+03
 -2.12694E+04 -1.48432E+04 -4.22501E+03 -1.49746E+04  6.30951E+03 -1.50015E+04  1.37817E+04 -1.62576E+04
  1.85095E+04 -7.35857E+03  2.93964E+04  1.14410E+03  2.13860E+04  1.56642E+04  2.12171E+03  3.73822E+04
 -1.23957E+04  2.34473E+04 -2.15173E+04  9.33365E+03 -1.81794E+04 -1.37144E+04 -1.77315E+03 -1.44644E+04
  1.73656E+03 -7.64758E+03 -4.50479E+03  9.70825E+03 -1.44572E+04  6.40424E+03 -1.28215E+04 -7.58033E+03
 -1.31104E+04 -1.39594E+04  3.30675E+03 -1.97016E+04  1.19220E+04 -1.56905E+04  1.22468E+04 -3.19704E+03
  1.07025E+04  1.19445E+04 -2.72537E+03  1.55092E+04 -9.54533E+03  1.00157E+04 -1.74321E+04 -3.29406E+03
 -1.10334E+04 -1.30891E+04 -1.33098E+03 -1.86417E+04  4.58306E+03 -1.81360E+04  1.64557E+04 -6.14702E+03
  1.45456E+04  6.69975E+03  1.09513E+04 -5.95381E+02  4.87434E+03  5.65360E+02  3.26554E+03 -3.74907E+03
  1.43649E+04  5.83885E+03  1.37147E+04  7.85713E+03  1.09234E+04  2.65925E+04 -4.26119E+03  2.96006E+04
 -1.77132E+04  1.80491E+04 -2.33506E+04  8.25456E+03 -2.53983E+04  1.90242E+02 -2.30636E+04 -1.69095E+04
 -1.45249E+04 -1.41754E+04  1.04123E+04 -1.88024E+04  1.71557E+04 -1.37840E+04  1.65582E+04 -7.10087E+02
  7.67972E+03  1.29275E+04 -9.24908E+03  7.40288E+03 -1.51308E+04  3.46779E+03 -9.96138E+03 -1.06431E+04
  3.43132E+03 -1.11164E+04  7.93039E+03 -8.74908E+03  1.02851E+04 -2.01956E+03 -1.58734E+03  3.80489E+03
 -6.79674E+03  7.75515E+02 -4.14170E+03 -7.77097E+02  9.12241E+02 -7.81206E+03  1.55163E+04 -1.04892E+04
  1.16508E+04 -6.16803E+03  8.53082E+03  1.91202E+03  7.60363E+03  6.42827E+03  5.83711E+03  1.41075E+04
  1.01968E+03  1.96605E+04 -9.72210E+03  5.47102E+03 -1.19994E+04  5.06438E+03 -8.51733E+03  2.02792E+03
 -4.52660E+03 -4.46402E+03  1.23851E+03 -1.39665E+01 -2.62931E+03  1.66835E+03 -2.62018E+03  3.80252E+03
 -7.50200E+03  5.73286E+02 -9.81281E+03 -6.63251E+03 -2.83456E+03 -1.48848E+04  4.54324E+03 -1.00147E+04
  4.05673E+03 -1.14317E+03  3.18087E+03  1.33601E+03  1.38819E+03  4.23890E+03 -4.58986E+03 -1.55254E+03
 -2.82020E+02 -3.43521E+03 -7.42324E+02 -7.01366E+03  3.67454E+03 -5.86814E+03  1.07952E+04 -2.70521E+03
  1.54937E+04 -1.44060E+03  9.58845E+03  8.11387E+03 -8.57634E+02  8.35170E+03 -7.39711E+03  1.03780E+04
 -8.01692E+03  3.06961E+03  4.15009E+02 -2.09369E+03  2.80116E+03 -5.46081E+03  6.49955E+03 -1.57444E+03
  4.71939E+03  5.21551E+03 -2.13903E+03  9.08098E+03 -1.96045E+03  5.69921E+03 -7.48470E+03  3.32695E+03
 -1.50001E+03 -2.46797E+03 -2.77243E+03 -9.94608E+03  4.93218E+03 -2.79662E+03  3.27550E+03  9.98550E+02
  2.01658E+03  2.96533E+03 -2.06258E+03  3.46882E+03 -7.19937E+03  1.90289E+03 -2.48104E+02 -2.30303E+03
 -5.23467E+03 -5.36058E+03  4.38050E+03 -7.63376E+03  1.02195E+04 -3.74129E+03  5.77642E+03  7.39630E+02
  4.85044E+03  7.01694E+03  1.05684E+03  6.30637E+03 -4.81577E+03  9.79302E+03 -2.20399E+03 -6.18301E+02
 -9.32038E+02 -8.89634E+03  1.05997E+03 -3.36767E+03  3.51919E+03 -2.09864E+03  3.98134E+03 -3.25297E+03
  6.38405E+03  7.44851E+02  2.47092E+03 -5.51431E+02  2.03536E+03  6.24290E+02  2.45985E+03 -4.36562E+03
 -2.90836E+01 -6.36864E+02  7.30287E+03  2.13043E+03  6.07877E+03  3.48858E+03  5.73663E+03  5.74561E+03
 -5.29664E+03  4.69080E+03 -6.89704E+03  6.62698E+03 -9.51451E+03  2.98845E+03 -1.14806E+04 -2.88694E+03
  1.05546E+03 -1.11753E+04 -6.04412E+02 -7.98543E+03  3.62545E+03 -1.57660E+03  1.80587E+03 -3.60122E+03
  2.36698E+03  3.70024E+03  1.54523E+03 -4.65558E+03  6.65475E+03 -1.50172E+03  3.61893E+03  1.81803E+03
  6.26574E+03  1.23211E+03  2.44719E+03  5.48995E+03 -3.56919E+03  6.93936E+03 -7.36029E+03  5.53139E+03
 -6.94177E+03  3.50388E+03 -2.94123E+03 -2.97016E+03 -3.62321E+03 -5.62165E+03  6.49182E+03 -6.00209E+03
  7.12686E+03 -2.43941E+03  1.15159E+04 -5.30627E+02  6.57198E+03  6.27241E+03  5.85356E+03  1.81490E+03
 -3.63238E+03  7.91984E+03 -3.23920E+02  4.22840E+03 -1.00476E+03 -4.64664E+03  4.19409E+02 -1.54621E+03
  7.98250E+02  3.72481E+03 -2.44446E+02  6.21943E+03 -1.27467E+03  7.00889E+02 -4.09674E+03 -2.15325E+03
 -7.47963E+02 -4.16390E+03 -3.33700E+03 -5.11641E+03 -8.10823E+02 -4.32112E+03 -1.20161E+03 -6.12723E+02
  2.83789E+03 -3.77947E+02  2.01184E+03 -5.47428E+02 -6.06297E+03  3.76019E+03  6.44735E+02  3.76835E+03
 -4.91700E+03 -1.20343E+03 -5.09247E+03 -3.68435E+03 -3.25774E+03 -2.73784E+03  1.34455E+03 -1.91722E+03
  4.17270E+03 -2.89620E+03  1.33299E+03 -2.54072E+03  1.54971E+03  2.58808E+03 -7.11745E+01  1.84909E+03
 -2.34543E+03  2.08411E+03  6.43817E+02  5.21124E+02  1.25068E+03  7.90025E+02 -1.97806E+03  3.71000E+02
 -1.47364E+03 -2.59706E+02 -1.07931E+03  4.91283E+03  8.05379E+02  2.17282E+03 -6.94785E+03 -2.21527E+03
 -3.29138E+03 -2.24982E+03  1.86247E+02 -1.09840E+04 -7.34940E+02 -5.43299E+01  3.98540E+03 -3.43461E+03
  2.53745E+03  1.92567E+02 -1.53394E+03  4.79054E+03  8.99407E+02  3.12988E+03 -1.57949E+03 -1.75376E+03
 -7.96290E+02 -1.26203E+03  2.01688E+03 -9.63460E+02  3.96853E+03 -6.10611E+02  2.30198E+03 -5.79471E+02
  1.26949E+03  4.22385E+03  2.24494E+02  1.46603E+02  4.92499E+03 -1.12418E+03 -1.20066E+03  8.94522E+02
 -1.29018E+02  3.49347E+03 -1.10981E+03  4.61392E+03  7.47521E+02  3.01683E+03 -4.75926E+03  6.60920E+02
 -3.74592E+03  1.04975E+02 -2.25898E+02  1.25460E+03  1.19634E+03 -3.68441E+02 -9.37702E+02 -2.87683E+03
 -2.41155E+03 -7.83646E+02 -3.02277E+03  5.06518E+02 -1.62734E+03  1.68656E+03 -3.69567E+03  2.26605E+03
 -2.89325E+03  2.84975E+03 -7.46040E+02  6.45662E+02  5.51173E+02 -7.55971E+03  2.15701E+03  3.02089E+02
  1.61706E+03  1.93055E+02  4.68111E+02 -1.10534E+03  2.85075E+03  3.79031E+03 -2.83445E+03  3.62488E+03
 -1.07866E+03  8.15789E+02 -5.42855E+02  1.16307E+03  1.73428E+03 -2.08261E+02  3.46532E+03 -1.61716E+03
 -3.22936E+03 -8.49007E+02  1.26415E+03 -3.74470E+03  5.99419E+01  4.58101E+03  8.72455E+02 -3.71902E+01
  1.05963E+03 -2.86876E+03  1.38364E+03 -3.89920E+03  1.82717E+03  3.27481E+02  2.15351E+02 -1.39934E+03
 -8.96290E+02 -2.44041E+03  2.96762E+03  1.82971E+03  7.33490E+03 -1.79295E+03 -2.66911E+03  3.37092E+03
 -4.59499E+03 -1.41433E+03 -5.58831E+03  6.25956E+02  8.63491E+02 -2.57901E+03 -9.80038E+01  3.04759E+03
  1.81018E+03  2.37959E+03 -1.45917E+03  1.69742E+03 -6.07767E+02  2.69388E+03  5.14472E+02  2.58908E+01
 -2.38836E+03 -1.00264E+02  6.30927E+02  2.91064E+02  6.17618E+03 -1.54927E+03  9.47462E+02 -3.56115E+03
  9.37692E+02  1.36848E+03  2.10643E+03 -2.37227E+03 -2.49147E+03  1.33722E+03  8.17958E+02  1.08522E+02
 -2.02822E+02 -8.53703E+02 -1.39361E+03 -2.46576E+03 -3.91950E+03  6.77021E+03 -2.83436E+03 -3.15520E+03
  3.75861E+03 -2.49596E+02 -1.03347E+02  2.41442E+03  1.10005E+02 -8.80273E+02  2.85085E+03 -5.91214E+02
  1.89389E+03 -1.24715E+03 -1.23299E+03 -2.41646E+03  2.31699E+03  4.70022E+03 -1.53988E+02  2.56478E+03
 -3.42166E+02  9.32315E+02 -5.61874E+01  2.28671E+03 -1.79531E+03 -7.27394E+02 -2.17698E+03 -3.73138E+02
 -1.09688E+03 -3.34787E+03  6.84825E+02 -2.89579E+03 -1.53768E+03  2.26645E+03 -1.75191E+03  3.06847E+03
 -1.46675E+03  1.36923E+03  2.47937E+03 -1.01582E+03 -3.66938E+03 -2.05326E+03  5.20804E+03  6.97629E+02
  2.66228E+03  1.36596E+03  1.47513E+03  6.42043E+03  1.76191E+03 -5.98796E+03 -2.02152E+03  2.60796E+03
  2.69351E+03 -2.84491E+03 -5.29408E+01  7.91502E+02  7.33728E+02 -3.87856E+03 -3.53708E+03 -1.80192E+03
  2.42415E+03  2.50263E+03  1.45419E+02 -2.70931E+03 -2.86389E+03 -2.23803E+03  1.96999E+03  8.67540E+02
 -3.21545E+03  2.52429E+03 -1.35503E+03 -6.76920E+01  1.37383E+03 -1.35522E+03 -1.61525E+03  8.33502E+02
 -6.33814E+01  3.02825E+01 -4.17953E+03 -6.22228E+02  3.23502E+03 -2.30302E+03 -1.54017E+03 -2.43210E+03
 -3.20422E+02  4.73210E+02  2.69748E+02  1.95554E+01  2.49489E+03  4.70636E+02 -3.51230E+02 -5.61014E+02
  2.63011E+03  8.69581E+02 -6.68879E+02  1.20333E+03  1.39303E+02  3.35252E+02  2.70458E+03  1.59393E+03
