 $NMID ID='MM_0lb_SNR50_14hz_g40_59.RAW', FMTDAT='(8E13.5)'
 TRAMP=1., VOLUME=1. $END
  3.13469E+05  1.34121E+03  3.37933E+05  2.47216E+05  8.52178E+04  3.44505E+05 -1.34059E+05  2.47947E+05
 -1.89134E+05  8.19899E+04 -1.10696E+05 -3.10501E+04  1.03808E+03 -5.29778E+04  5.65857E+04 -3.41988E+02
  3.11394E+04  4.97584E+04 -1.95544E+04  7.78218E+04 -6.21742E+04  6.54111E+04 -8.62681E+04  3.28468E+04
 -8.16361E+04 -8.10648E+03 -5.46386E+04 -5.17809E+04 -1.35449E+04 -6.60581E+04  2.91320E+04 -4.78758E+04
  4.30422E+04  2.27027E+03  1.39092E+04  4.55638E+04 -3.01814E+04  4.80936E+04 -7.05166E+04  2.90591E+03
 -5.24266E+04 -5.49443E+04 -4.76204E+03 -8.26826E+04  3.28072E+04 -5.27663E+04  4.92813E+04 -1.88105E+04
  4.66938E+04  9.24081E+03  3.37490E+04  2.60861E+04  1.38567E+04  2.44159E+04 -4.21770E+03  2.49521E+04
 -2.05743E+04  1.07475E+04 -2.35375E+04 -4.62419E+03  7.14702E+03 -8.62628E+03  2.58822E+04  7.31356E+03
  8.67048E+03  3.96832E+04 -3.39089E+04  3.04309E+04 -6.60905E+04  3.58950E+03 -6.00974E+04 -4.42117E+04
 -7.94700E+03 -6.28851E+04  3.68449E+04 -4.30414E+04  5.75683E+04 -3.20324E+03  3.22048E+04  3.38923E+04
 -5.35606E+03  4.02356E+04 -3.14774E+04  1.27367E+04 -3.02793E+04 -7.22730E+03 -1.84682E+04 -1.01726E+04
 -8.55575E+03 -1.46509E+04  4.29948E+03 -1.48763E+04  1.21951E+04 -2.58355E+04  1.37405E+04 -1.34037E+04
  1.14175E+04  4.54637E+03 -5.56338E+03  1.62684E+04 -2.08720E+04 -3.35669E+03 -6.71478E+03 -3.79463E+04
  2.13691E+04 -4.89583E+04  4.75908E+04 -2.05988E+04  4.00163E+04  2.38049E+04  1.33062E+04  4.46415E+04
 -1.66524E+04  2.94289E+04 -1.88054E+04  3.28404E+03 -6.44720E+03 -2.96661E+04  2.56948E+04 -3.23311E+04
  4.12328E+04 -1.06189E+04  3.43048E+04  2.49830E+04  2.16388E+04  4.83613E+04 -8.07462E+03  4.78891E+04
 -3.60899E+04  3.44490E+04 -3.92735E+04  1.12107E+04 -3.97177E+04 -1.41094E+04 -2.24809E+04 -3.77118E+04
  8.02724E+03 -3.41186E+04  3.58473E+04 -1.21214E+04  2.73142E+04  9.36843E+03  5.36100E+03  2.13125E+04
 -9.77836E+03  4.75875E+03 -1.03153E+04  1.15045E+02  3.33691E+03 -1.11152E+04  1.35438E+04  6.60479E+03
  1.44198E+04  2.33118E+04 -1.02176E+04  2.15484E+04 -2.12689E+04  7.18511E+03 -2.53739E+04 -1.16474E+03
 -1.62696E+04 -1.43124E+04 -8.55901E+03 -1.69983E+04  6.47239E+03 -1.56924E+04  2.02715E+04 -1.49628E+04
  2.53382E+04 -1.33470E+04  3.16987E+04  5.38932E+03  2.62352E+04  1.45705E+04 -1.24832E+02  3.38053E+04
 -1.45230E+04  3.10245E+04 -2.34078E+04  1.29379E+04 -2.31370E+04 -8.89740E+03 -2.10962E+03 -9.22639E+03
  7.29315E+03  3.04601E+03 -3.09010E+03  1.36390E+03 -1.38253E+04  3.52926E+03 -1.26078E+04 -4.60335E+03
 -7.17678E+03 -1.96004E+04  5.30058E+03 -2.03288E+04  1.59422E+04 -1.39623E+04  1.94485E+04 -1.54820E+02
  1.50161E+04  1.37066E+04 -8.30754E+02  1.83095E+04 -1.41201E+04  6.99036E+03 -2.07678E+04 -5.61179E+03
 -1.55999E+04 -1.84518E+04 -4.54603E+03 -2.15817E+04  5.84393E+03 -1.85460E+04  1.76876E+04 -1.20251E+04
  1.74659E+04 -1.47852E+03  1.49121E+04  3.09864E+03  1.04992E+04 -1.97238E+03  1.21172E+04 -1.16473E+03
  2.25290E+04  1.55217E+03  1.42623E+04  1.42636E+04  1.23683E+04  2.75787E+04 -2.50463E+03  3.69585E+04
 -1.99519E+04  2.71775E+04 -3.08275E+04  1.16271E+04 -2.87892E+04 -7.49976E+02 -2.69888E+04 -1.97078E+04
 -1.23739E+04 -2.68210E+04  8.52830E+03 -2.51363E+04  2.17677E+04 -1.59400E+04  1.67166E+04  8.34601E+03
  6.25230E+03  1.03432E+04 -7.97793E+03  1.30805E+04 -1.57539E+04  4.96561E+03 -7.77417E+03 -6.24706E+03
 -2.05950E+03 -1.44197E+04  8.38033E+03 -1.10534E+04  1.28625E+04  2.84498E+03  3.76323E+03  3.19000E+03
 -4.78593E+03 -4.64747E+02 -2.39015E+03 -6.29791E+03 -1.37491E+03 -1.24845E+04  6.29351E+03 -1.31083E+04
  1.22569E+04 -8.92379E+03  1.59244E+04  9.49848E+02  1.49235E+04  1.17077E+04  7.11973E+03  2.16035E+04
  1.61920E+03  2.07465E+04 -7.49461E+03  1.01700E+04 -1.45490E+04  2.66705E+03 -7.94489E+03 -2.80158E+03
 -1.02131E+04 -5.20285E+03 -1.27263E+03 -5.12024E+02 -4.74927E+03  4.97995E+03 -1.00518E+04  4.85088E+03
 -1.05495E+04 -6.89701E+02 -1.23968E+04 -7.80698E+03 -5.14535E+03 -1.08732E+04  2.06292E+03 -1.35659E+04
  4.67567E+03 -5.34789E+03  2.62412E+03  2.37661E+02 -2.26378E+03  1.81098E+03 -4.51318E+03 -2.26248E+03
 -5.61014E+03 -5.26786E+03  9.36548E+02 -1.00094E+04  9.23264E+03 -1.58423E+04  1.38015E+04 -5.37710E+03
  1.17938E+04 -8.90915E+02  1.22568E+04  1.28383E+04  5.29131E+03  5.70873E+03 -8.01275E+03  8.05665E+03
 -9.15227E+03 -3.52188E+03 -7.05841E+03 -2.42012E+03  1.29915E+03 -5.70457E+03  2.04766E+03 -2.11436E+03
  8.48018E+03  8.21818E+03  7.73265E+03  8.09798E+03 -6.90368E+03  9.54364E+03 -1.17796E+04  1.87975E+03
 -1.21020E+04 -3.08776E+03  2.81169E+03 -1.29949E+04  3.17987E+03 -8.39477E+03  5.84123E+03  3.87989E+03
  6.25025E+03  6.11556E+03 -7.39089E+03  9.01847E+03 -9.06402E+03  7.67739E+03 -4.30102E+03 -4.59804E+03
 -1.04052E+04 -3.10696E+03  4.72620E+03 -1.10567E+04  1.48078E+04 -1.04518E+04  9.58918E+03  4.36397E+03
  9.69235E+03  1.15819E+04  6.22564E+03  1.15250E+04 -5.80979E+03  7.30027E+03 -5.32700E+03  2.67393E+03
 -9.21897E+03 -5.06115E+03  2.99679E+02 -1.09121E+04  8.91366E+03 -7.21539E+03  7.39697E+03 -8.88552E+02
  3.40714E+03 -5.73462E+03 -4.69728E+03 -1.96445E+03  3.41768E+03 -5.30983E+02  2.05160E+03 -3.91179E+03
  4.12730E+03 -5.72102E+03  2.79447E+03  4.22167E+03  1.01816E+04  2.78789E+03  5.56618E+03  1.31312E+04
 -2.78655E+03  1.27455E+04 -1.03692E+04  1.14246E+04 -2.09826E+04 -4.32063E+02 -1.31584E+04 -3.22455E+03
 -1.06463E+04 -1.26510E+04  1.95156E+03 -1.27730E+04  5.43205E+03 -7.74252E+03  1.67650E+03 -8.11302E+02
  1.86111E+03  4.43284E+02 -6.43850E+00 -2.91159E+03  2.43406E+03 -2.68602E+03  5.93942E+03 -2.78447E+03
  3.52032E+03 -1.04784E+03  4.71371E+03  8.84244E+03 -1.76972E+03  3.82811E+03 -7.70428E+03  8.33401E+03
 -6.66691E+03  7.13575E+01 -5.55066E+03 -6.12103E+03  1.46985E+03 -8.59329E+03  7.76690E+03 -7.70835E+03
  1.10475E+04 -3.90146E+03  1.25459E+04  3.57891E+03  6.72630E+03  9.58515E+03  6.22725E+03  9.67610E+03
  1.68658E+01  1.07849E+04 -4.41768E+03  2.61843E+03 -8.07358E+02 -1.35895E+03 -2.03402E+03 -8.17264E+02
  2.65062E+03  6.92934E+03 -4.43839E+03  2.36449E+03 -3.20048E+03  5.41780E+03 -4.07057E+03  5.50750E+02
 -2.51320E+03 -3.82485E+03  1.42361E+03 -5.51711E+03  6.91871E+03 -9.44151E+03  3.94002E+03 -4.84512E+03
  7.74765E+03  1.10481E+02  6.15842E+03  6.50207E+03  5.85769E+02  4.87511E+03 -5.25414E+03  2.48046E+03
 -7.43665E+03 -1.95251E+03 -5.25650E+03 -1.62315E+03  3.85146E+02 -9.06150E+03  1.57002E+03 -2.44186E+03
  7.44302E+03 -4.05317E+03  3.67143E+03 -1.64608E+03 -1.05490E+02  4.07219E+01  4.28165E+03  1.62113E+03
  1.01761E+03 -3.85781E+03  5.64473E+03  2.43238E+03  8.29144E+02  2.16794E+03 -5.63672E+02  2.75973E+03
 -6.37781E+03  6.48654E+03 -6.84196E+03  6.53850E+03 -6.84879E+03  1.68942E+02 -1.07963E+04 -5.51566E+03
 -3.92776E+03 -8.80115E+03  3.99313E+03 -9.76160E+03 -1.06375E+03 -8.80211E+03  7.99136E+03 -1.11183E+03
  5.37801E+03  1.23933E+02  1.53553E+03  3.36800E+03 -4.10530E+03  4.65588E+03 -3.06428E+03 -4.32755E+03
 -1.11053E+03 -6.23792E+03  1.90485E+03 -5.71379E+02  1.47981E+03 -1.27349E+03  4.25800E+03  1.69411E+03
  1.30945E+03 -3.34892E+02  2.12270E+03 -1.60034E+02  8.73425E+02  1.09338E+03  5.56520E+03 -3.05997E+03
  1.71249E+03  3.05362E+03  3.63265E+03  2.16498E+03  1.23191E+03  1.43732E+03 -3.52633E+03  9.58909E+03
  2.14318E+02 -7.93601E+01 -7.25228E+03 -3.58599E+02 -4.40713E+03 -3.65931E+03 -2.11550E+03 -6.52359E+03
  2.57987E+03 -3.87100E+03  2.76090E+03 -2.04114E+03 -1.74033E+03  5.17539E+03 -7.79053E+02 -8.64767E+00
 -4.91099E+03  1.93699E+03 -2.21518E+03 -3.58818E+03 -3.18780E+03 -5.51717E+03  2.49049E+03 -3.46964E+03
 -1.33463E+03 -4.93905E+03  1.80209E+03  2.60769E+02  1.31537E+03 -1.51261E+03 -5.31656E+03  4.66743E+03
 -2.52499E+03  2.30025E+03 -9.41834E+03 -6.42164E+03 -8.34150E+00  1.24547E+03  3.29066E+03 -7.76297E+03
  4.74892E+03 -1.09357E+02  3.76916E+03  3.88806E+03  1.21387E+03  2.80087E+03  2.52436E+03  2.28061E+03
 -6.00828E+03 -1.91231E+03 -2.50938E+03 -4.05395E+03 -1.22032E+03  8.28219E+01 -2.03872E+02 -4.04805E+03
 -9.68010E+02 -3.93722E+03 -1.80116E+03  4.94509E+03  1.20467E+03 -5.12823E+02 -4.54933E+03  6.17158E+03
 -2.17547E+03 -4.80616E+02 -1.91704E+03  1.31188E+03  1.43892E+03 -4.19868E+02 -3.68169E+03 -2.10048E+03
 -8.17930E+02 -5.88442E+03 -6.01308E+03  1.30128E+03 -2.91237E+03  5.68180E+02 -7.35028E+03 -7.19099E+03
 -2.01531E+03 -8.12041E+03  2.38512E+03 -9.48253E+03  1.45360E+03 -6.76946E+03  8.69122E+03  2.22839E+03
  3.81807E+03  4.44999E+03  1.79054E+02  5.07720E+03 -3.23093E+03  2.91436E+03 -2.72337E+03  1.65070E+03
 -3.26127E+03 -8.35862E+02  3.57428E+03 -3.17237E+03 -1.44918E+03  5.42217E+03 -4.42240E+02 -6.27719E+03
 -4.85819E+03 -4.11085E+03  3.88724E+03 -4.33219E+03 -1.83596E+02 -2.95233E+03 -2.99659E+03 -5.48540E+02
  3.91810E+03  1.81211E+03  4.79390E+03  1.19627E+03  2.65812E+03  4.77480E+03  2.43171E+03  4.59803E+03
 -6.51582E+03  4.61735E+03 -4.47860E+03  1.48129E+03 -4.81626E+03 -1.03335E+03 -2.50546E+03 -4.47631E+03
 -6.09254E+03 -1.03905E+04  5.54040E+02 -3.69836E+03  3.71519E+03 -9.23591E+01 -7.83490E+02  4.18677E+03
  2.44163E+03  1.74834E+03 -6.23527E+02 -6.91611E+01  1.83159E+03  7.20951E+02 -5.16343E+02  3.11823E+03
  5.96690E+02  8.15371E+01  1.86129E+03  2.48213E+03 -5.37323E+03  1.38303E+03 -2.89757E+03 -5.01757E+01
 -4.55547E+03 -1.64103E+03  7.84338E+02 -2.88409E+03 -3.47393E+03 -1.72269E+03  1.83949E+03 -1.00713E+03
  4.01142E+03 -1.73808E+03  2.29080E+03 -6.80692E+02  5.97421E+01  1.22594E+03  1.83534E+03  4.91208E+03
 -2.35323E+02  2.12167E+03 -1.08971E+04 -1.22818E+03  2.75295E+03 -9.31715E+02 -7.32201E+00  1.56362E+02
 -3.30732E+02 -3.58571E+03  2.02384E+03  3.73399E+03  7.76021E+00  8.47091E+02 -1.20087E+03  1.56229E+03
 -4.00945E+03  4.62403E+02  1.42868E+02 -3.82306E+03  4.21875E+03 -5.05335E+03  3.65225E+02 -2.08162E+02
  2.12851E+03  1.15451E+03 -7.09631E+02 -2.47462E+03  5.39331E+03 -2.31972E+03  2.07447E+03 -1.03898E+03
