 $NMID ID='MM_0lb_SNR50_7hz_g60_85.RAW', FMTDAT='(8E13.5)'
 TRAMP=1., VOLUME=1. $END
  3.16126E+05 -4.24882E+03  3.39805E+05  2.53797E+05  9.81000E+04  3.40048E+05 -1.33616E+05  2.53419E+05
 -1.85673E+05  8.69955E+04 -1.14502E+05 -3.25800E+04  1.58391E+02 -5.61357E+04  5.00564E+04  3.17090E+03
  4.01432E+04  5.15228E+04 -1.46511E+04  7.67105E+04 -4.71554E+04  6.07549E+04 -8.19628E+04  3.20939E+04
 -7.75852E+04 -1.59033E+04 -5.79046E+04 -5.42226E+04 -1.78534E+04 -6.66734E+04  3.46223E+04 -4.58681E+04
  3.52386E+04 -3.63413E+03  1.65132E+04  5.32384E+04 -2.80802E+04  4.46360E+04 -7.13385E+04 -2.21507E+03
 -6.16094E+04 -6.24759E+04 -4.71976E+03 -7.91310E+04  3.18387E+04 -5.57795E+04  5.40351E+04 -8.34018E+03
  3.93109E+04  1.49708E+04  3.72041E+04  3.27398E+04  7.39970E+03  3.62062E+04  1.74321E+03  2.59550E+04
 -2.62949E+04  1.20099E+04 -1.61485E+04 -7.71407E+03  9.52085E+03 -2.08175E+03  2.34355E+04  2.40440E+04
  7.79029E+03  3.39503E+04 -3.71405E+04  3.56688E+04 -6.83147E+04 -1.27216E+03 -5.69549E+04 -4.68953E+04
 -9.91200E+03 -7.13779E+04  4.22673E+04 -4.97922E+04  6.26557E+04 -5.07789E+03  4.03353E+04  3.37200E+04
  1.25369E+03  3.69634E+04 -3.40861E+04  1.73000E+04 -3.33168E+04 -8.35898E+03 -2.36994E+04 -1.27800E+04
 -1.45053E+04 -1.78441E+04 -5.28015E+03 -1.67358E+04  8.81775E+03 -2.72442E+04  1.27381E+04 -1.93425E+04
  6.98083E+03  1.05479E+04 -9.04993E+03  1.58965E+04 -2.29021E+04 -1.49983E+04 -1.12549E+04 -4.01371E+04
  2.71067E+04 -4.90580E+04  4.87978E+04 -2.91701E+04  4.58822E+04  2.05184E+04  6.51192E+03  4.64820E+04
 -1.92927E+04  3.69178E+04 -3.03473E+04  4.95268E+02 -1.88469E+04 -2.55142E+04  2.22204E+04 -3.81322E+04
  4.23741E+04 -8.44549E+03  3.86230E+04  2.52129E+04  1.92210E+04  4.89075E+04 -6.13431E+03  5.46833E+04
 -3.55466E+04  3.60039E+04 -5.74999E+04  1.34187E+04 -4.86059E+04 -1.22288E+04 -3.20470E+04 -3.87581E+04
  2.75095E+03 -5.16936E+04  3.16836E+04 -1.54760E+04  4.13791E+04  9.57177E+03  2.13093E+03  2.16854E+04
 -9.68689E+03  1.41600E+04 -7.60556E+03 -1.51594E+04  3.59902E+03 -1.70454E+04  1.57439E+04  1.01573E+04
  1.57322E+04  2.59867E+04 -1.32084E+04  2.93305E+04 -2.44119E+04  1.10674E+04 -3.23470E+04 -1.74438E+03
 -2.92273E+04 -2.64908E+04 -1.50981E+04 -2.90302E+04 -3.99957E+03 -2.93425E+04  2.25908E+04 -3.30097E+04
  3.21481E+04 -1.40205E+04  4.17143E+04  8.91436E+03  2.65768E+04  3.39985E+04  3.36100E+03  4.51530E+04
 -2.07882E+04  3.29582E+04 -3.39276E+04  1.41484E+04 -2.08078E+04 -1.26231E+04 -4.27293E+03 -8.48994E+03
  1.76769E+03 -4.06855E+02 -1.13298E+04  3.44402E+03 -2.30685E+04  5.46002E+03 -2.36476E+04 -4.63078E+02
 -8.50378E+03 -2.39820E+04 -3.47278E+03 -3.15907E+04  2.17420E+04 -2.45986E+04  2.16071E+04 -4.17564E+03
  9.48413E+03  1.63906E+04  7.96079E+03  2.44695E+04 -1.96838E+04  2.27190E+04 -2.81918E+04 -5.37578E+03
 -2.12426E+04 -2.56413E+04 -2.67751E+03 -3.28589E+04  1.31981E+04 -2.04781E+04  2.74343E+04 -1.40179E+04
  2.14507E+04 -3.16967E+02  1.75030E+04  2.06408E+03  7.64678E+03 -1.68476E+03  1.54373E+04 -9.53336E+03
  1.57352E+04  6.86199E+03  3.34554E+04  2.12162E+04  2.77805E+04  4.11787E+04  2.15332E+02  5.41763E+04
 -3.08992E+04  4.20539E+04 -4.53396E+04  1.84638E+04 -4.90583E+04  5.20788E+03 -3.43543E+04 -3.76743E+04
 -1.85160E+04 -4.52444E+04  1.03329E+04 -4.03351E+04  3.11947E+04 -1.10868E+04  2.41875E+04  1.46631E+04
  6.07260E+03  2.11581E+04 -1.08505E+04  6.90751E+03 -1.95505E+04  8.26029E+03 -1.61046E+04 -1.13896E+04
 -2.32065E+03 -2.26199E+04  1.79276E+04 -1.36436E+04  1.75833E+04  4.97801E+03  8.10779E+03  1.08533E+04
 -8.38509E+03  8.20865E+03 -8.48663E+03 -1.82423E+04 -6.35276E+02 -2.11369E+04  1.66763E+04 -2.56062E+04
  3.22833E+04 -1.55401E+04  3.17776E+04  5.79841E+03  2.66765E+04  2.00350E+04  1.19358E+04  3.21954E+04
 -4.98933E+03  3.44238E+04 -2.62137E+04  2.22636E+04 -2.05488E+04  6.46635E+03 -1.56979E+04 -5.86812E+03
 -8.79905E+03 -6.87123E+03 -6.82901E+03  2.17884E+03  5.82118E+02  1.09918E+03 -1.71390E+04 -6.70429E+03
 -1.57559E+04 -2.15022E+03 -1.15581E+04 -1.81695E+04  3.43127E+03 -2.49004E+04  6.74135E+03 -3.13764E+03
  1.45961E+04 -9.07504E+03  1.48931E+04  5.11368E+03  1.65797E+03  3.12036E+03 -8.13620E+03 -6.59567E+03
 -1.05302E+04 -1.16070E+04 -1.67113E+03 -2.31179E+04  1.72521E+04 -2.13643E+04  2.66994E+04 -1.61167E+04
  2.07518E+04  8.12039E+02  2.35890E+04  1.76270E+04 -1.03970E+03  2.08023E+04 -1.38012E+04  1.52529E+04
 -1.67486E+04 -5.59113E+03 -6.13375E+03 -7.19772E+02 -5.71088E+03 -2.02838E+03  9.86230E+03 -7.02854E+02
  7.20630E+03  1.23610E+04 -4.10523E+00  1.37981E+04 -2.86193E+03  1.15201E+04 -1.68142E+04  1.66214E+03
 -1.36009E+04 -1.15173E+04 -5.01703E+03 -2.29923E+04  1.15589E+04 -4.76968E+03  1.28930E+04  9.70957E+03
  9.24807E+03  1.16387E+04 -4.80202E+03  5.03756E+03 -1.89457E+04  8.32357E+03 -2.31183E+04 -2.92686E+03
 -1.23283E+04 -2.26910E+04  4.75665E+03 -2.94966E+04  2.01834E+04 -9.53894E+03  1.77747E+04  4.63954E+03
  1.31356E+04  2.19646E+04  7.16322E+02  2.38413E+04 -8.25583E+03  1.12541E+04 -1.76256E+04  1.75900E+03
 -1.16252E+04 -1.49731E+04  8.09073E+03 -1.39423E+04  9.40228E+03 -1.13382E+04  6.62959E+03 -7.99440E+03
  7.28685E+03  2.26789E+03  9.22701E+03  7.56681E+03  1.01414E+04 -8.26787E+03  7.58467E+03 -1.66914E+04
  1.94536E+04 -1.37369E+03  1.64750E+04  5.63860E+03  2.41141E+04  1.49621E+04  9.75592E+03  2.18362E+04
 -6.24736E+03  3.04776E+04 -2.72536E+04  1.83996E+04 -3.34098E+04  6.53749E+02 -2.38854E+04 -5.11783E+03
 -1.86805E+04 -2.51191E+04  3.35574E+03 -1.72628E+04  1.67333E+03 -7.29733E+03  4.41776E+03 -1.08595E+04
  5.37585E+03 -1.04194E+04  4.44916E+02 -1.21554E+04  6.33295E+03 -3.44941E+03  9.76993E+03  1.00380E+04
  1.51863E+04  6.34474E+03  9.94480E+03  1.75562E+04  2.60568E+03  1.24926E+04 -2.17416E+04  6.98559E+02
 -1.74731E+04 -1.06023E+04 -1.94506E+04 -8.58584E+03  4.12945E+03 -2.62401E+04  5.08272E+03 -2.07002E+04
  2.44043E+04 -7.96503E+03  1.70809E+04  4.75905E+03  1.72144E+04  1.43207E+04  1.28174E+03  2.32235E+04
 -7.81175E+03  2.38986E+04 -2.11903E+04  1.11780E+04 -5.09443E+03 -5.45439E+03 -5.08653E+03  2.23164E+03
 -1.79469E+03  2.01123E+03 -2.00617E+03  7.75849E+03 -1.06229E+04  2.28020E+03 -1.18136E+04 -3.00480E+03
 -1.10368E+04 -2.11555E+04  3.15278E+02 -1.95568E+04  1.48122E+04 -1.69806E+04  2.30175E+04 -9.43283E+03
  2.50990E+04  8.85887E+03  1.72658E+04  2.07628E+04 -4.44643E+03  1.68161E+04 -1.65905E+04  1.93089E+04
 -1.75673E+04  6.07011E+03 -1.36837E+04 -1.30050E+04 -4.47361E+03 -1.51473E+04  7.79001E+03 -6.73966E+03
  1.71847E+04 -1.81154E+03  5.91245E+03 -2.85134E+03  3.01817E+03  5.55270E+02  2.53493E+03  1.85378E+02
  3.41336E+03  6.74868E+02  9.55872E+03  1.60149E+03  1.03344E+04  6.89850E+03  9.10883E+03  1.07726E+04
 -3.77396E+03  2.06040E+04 -1.46161E+04  1.68751E+04 -2.04441E+04  1.01816E+04 -2.78803E+04 -6.12270E+03
 -9.97172E+03 -1.88771E+04  1.76784E+03 -2.47599E+04  1.06710E+04 -1.19179E+04  1.15719E+04 -6.67854E+03
  1.90100E+04  1.25446E+04  7.27058E+03  1.07854E+04 -3.19648E+03  9.53127E+03 -1.35438E+04  4.48591E+03
  2.04700E+03 -1.19684E+04  5.23864E+03 -5.20598E+03  6.86599E+03  1.05056E+03  4.01599E+03  1.57504E+03
  6.54451E+03  9.65616E+02  4.88490E+02  7.27428E+03 -5.32149E+02 -2.05605E+03  8.36105E+03 -5.12644E+02
  1.27916E+04  2.99633E+03  4.70099E+03  1.12221E+04  9.85363E+03  8.38380E+03  3.17347E+03  1.46969E+04
 -9.38873E+03  9.02057E+03 -1.73412E+04 -5.28079E+01 -1.87928E+04 -6.09582E+03 -3.95390E+03 -2.14081E+03
  3.03561E+02 -7.65664E+03  4.73429E+03 -8.21893E+03  7.23139E+03 -5.13547E+02  1.83626E+03  7.01853E+03
 -1.74401E+04  4.28566E+03 -7.29704E+03 -1.70319E+04 -7.81215E+03 -7.10388E+03  6.39840E+01 -9.65217E+03
  1.45294E+04 -9.00884E+03  1.39132E+04 -5.05790E+02  3.68939E+03  3.82235E+03 -7.30544E+02  1.18297E+03
 -3.00450E+03  4.13968E+03  3.24075E+03  2.24030E+03  8.97039E+03 -4.91274E+03  1.62922E+04 -8.93154E+03
  1.39718E+04  3.09150E+03  1.41219E+04  1.53349E+04  4.36626E+03  1.52950E+04 -4.90391E+03  1.04218E+04
  1.65527E+03  3.45066E+03 -9.01172E+03  4.83435E+03 -4.92003E+03 -7.54573E+01  4.08641E+02 -1.12388E+04
  6.88688E+03 -6.30348E+02  5.61433E+03  4.66595E+03 -3.04634E+02  7.90937E+03  3.48332E+03  5.86889E+03
 -4.48643E+03  1.97258E+03 -8.89731E+03 -1.69416E+03 -7.94309E+03  3.47053E+02  3.48444E+02 -3.40810E+03
 -1.57286E+03  2.95759E+03 -9.10600E+03  2.82979E+03 -1.43226E+04 -1.27376E+03 -9.27448E+03 -1.51943E+04
 -9.72281E+03 -2.48384E+04  5.73126E+03 -2.27577E+04  2.42126E+04 -1.60155E+04  2.44160E+04 -1.03271E+04
  2.18328E+04 -1.43625E+03  7.97886E+03  8.17626E+03 -6.68238E+02  1.63210E+04 -8.84913E+03  9.95725E+03
 -1.11457E+04 -1.00568E+03 -2.00329E+02  3.33144E+03  3.35279E+03  9.78964E+02 -1.06963E+04  4.24575E+03
  4.21646E+03 -5.29239E+03  5.39225E+03  5.07727E+03 -5.23994E+03 -4.22319E+03  3.31167E+03 -1.15555E+04
  5.09447E+03  1.02387E+03  6.22148E+03 -5.43894E+03  5.23614E+03  1.09022E+04  2.58959E+03  1.20564E+04
 -4.37580E+03  2.16635E+04 -1.31704E+04  6.34190E+03 -2.08606E+04 -7.75823E+03 -1.55126E+04 -1.76327E+04
  4.85326E+03 -1.59815E+04  5.13742E+03 -2.28557E+04  1.08138E+04 -6.83467E+03  7.02774E+03 -6.82302E+02
 -1.20843E+02  1.22879E+04  2.26797E+03  7.78480E+03  1.65872E+03  2.40110E+03  2.19451E+03 -2.28101E+02
  3.51395E+03 -9.42776E+02  7.77283E+03  1.65019E+03  6.84886E+03  2.39728E+03  2.47783E+03  7.82780E+03
 -4.59040E+03  6.33752E+03 -9.00160E+03  1.88329E+03 -1.08308E+04 -2.42882E+03 -2.21015E+03 -7.41597E+03
  6.10066E+03 -1.02029E+04  1.42767E+04 -5.56091E+03  1.53246E+04  3.33635E+03  9.54443E+03  7.99416E+03
  6.27131E+03  7.72929E+03 -8.75544E+02  4.80167E+03 -9.53859E+03  3.52825E+02 -7.99472E+03 -3.71912E+03
 -4.60910E+03 -8.54535E+02  1.04577E+03  1.65406E+03 -8.06177E+03 -4.96025E+03 -2.48061E+03 -1.48201E+03
 -7.66964E+03 -1.02751E+04  2.15390E+03 -1.17715E+04  1.57651E+03 -1.22926E+04  5.59709E+03 -4.81302E+03
  1.44831E+04  1.06451E+03  9.84602E+03  1.05072E+04 -1.28616E+03  4.33028E+03 -1.12965E+04  6.09598E+03
