 $NMID ID='MM_0lb_SNR50_17hz_g55_6.RAW', FMTDAT='(8E13.5)'
 TRAMP=1., VOLUME=1. $END
  3.12117E+05  4.40681E+03  3.38262E+05  2.51454E+05  8.63194E+04  3.34045E+05 -1.31811E+05  2.51416E+05
 -1.88702E+05  8.23839E+04 -1.10963E+05 -3.24071E+04  2.51573E+03 -5.16708E+04  5.22194E+04 -2.25838E+03
  3.97847E+04  5.44785E+04 -1.97481E+04  7.72538E+04 -6.13268E+04  6.40726E+04 -8.28537E+04  3.13055E+04
 -7.83757E+04 -1.70255E+04 -5.57390E+04 -5.27324E+04 -9.53399E+03 -6.94418E+04  2.64335E+04 -4.04292E+04
  4.05359E+04  9.14847E+02  1.67563E+04  4.94475E+04 -3.25972E+04  4.10684E+04 -6.73348E+04 -5.88649E+02
 -5.80097E+04 -5.21606E+04 -8.34126E+03 -7.74054E+04  3.03702E+04 -5.39888E+04  4.79376E+04 -1.67329E+04
  4.65428E+04  1.23666E+04  3.07479E+04  2.35795E+04  1.60101E+04  2.88148E+04 -4.66150E+03  2.54145E+04
 -1.87128E+04  1.32489E+04 -1.70378E+04 -4.42471E+03  2.35872E+03 -9.60185E+03  2.15620E+04  1.09589E+04
  7.01335E+03  3.55075E+04 -3.54784E+04  3.12893E+04 -5.98228E+04  5.19049E+03 -5.85759E+04 -4.08903E+04
 -1.20852E+04 -6.71912E+04  4.00802E+04 -3.88568E+04  5.44037E+04 -6.20682E+03  3.30180E+04  2.93249E+04
 -3.95673E+03  3.82363E+04 -2.93204E+04  1.56030E+04 -2.54828E+04 -4.26467E+03 -1.31384E+04 -1.01974E+04
 -9.09561E+03 -1.51082E+04 -3.91093E+03 -1.56176E+04  9.65623E+03 -2.44436E+04  1.41543E+04 -1.65924E+04
  1.20815E+04  2.67207E+03 -4.19477E+03  1.24563E+04 -2.02212E+04 -6.80347E+03 -8.40109E+03 -3.23931E+04
  1.98492E+04 -4.38168E+04  4.72920E+04 -2.00222E+04  4.30522E+04  1.83107E+04  1.84868E+04  4.45108E+04
 -1.64282E+04  3.41039E+04 -2.44301E+04 -1.14893E+03 -1.17719E+04 -2.80231E+04  2.13994E+04 -3.39129E+04
  3.80669E+04 -7.56532E+03  3.45620E+04  2.05903E+04  1.51723E+04  4.55420E+04 -1.03288E+04  4.76926E+04
 -3.29211E+04  3.40723E+04 -3.66592E+04  9.44365E+03 -3.62819E+04 -2.04631E+04 -2.17584E+04 -3.68055E+04
  6.13022E+03 -3.28799E+04  3.21634E+04 -1.48703E+04  2.87711E+04  9.46410E+03  3.26545E+03  2.15866E+04
 -1.77053E+04  9.45917E+03 -1.06447E+04 -5.59917E+03  7.67830E+03 -3.33899E+03  1.44006E+04  2.60267E+03
  1.02302E+04  2.34910E+04 -1.02039E+04  2.41098E+04 -2.10783E+04  1.30433E+04 -2.87619E+04 -3.34730E+03
 -1.79774E+04 -2.06980E+04 -4.36215E+03 -1.61214E+04  2.48892E+02 -1.58717E+04  1.98224E+04 -1.41720E+04
  2.61928E+04 -1.34978E+04  2.94596E+04  1.15423E+03  2.36571E+04  1.85616E+04  5.22718E+03  3.32010E+04
 -1.60662E+04  3.25677E+04 -2.63126E+04  1.38774E+04 -1.91433E+04 -1.05450E+04 -1.21319E+03 -1.63082E+04
  5.50490E+01 -2.36981E+03 -3.95240E+03  3.41416E+03 -1.29356E+04  4.40035E+03 -1.54461E+04 -4.60552E+03
 -1.37995E+04 -1.88464E+04  4.25452E+03 -2.26464E+04  1.47518E+04 -1.48469E+04  1.47202E+04  9.32203E+02
  1.35125E+04  9.16820E+03  2.06349E+03  1.62584E+04 -1.42622E+04  5.44469E+03 -1.54719E+04 -4.65815E+03
 -1.34803E+04 -1.39574E+04 -7.62995E+02 -2.14100E+04  8.40663E+03 -1.52041E+04  1.07851E+04 -7.57491E+03
  1.32190E+04  1.11721E+03  1.16231E+04  8.08929E+03  7.97988E+03  1.17255E+03  7.44169E+03 -5.22515E+03
  1.58268E+04 -3.86680E+02  1.47740E+04  1.41405E+04  8.73466E+03  2.73651E+04 -2.05142E+03  3.51894E+04
 -1.87021E+04  2.20219E+04 -3.08335E+04  1.33310E+04 -3.00935E+04 -2.35970E+03 -2.47838E+04 -1.88189E+04
 -1.03716E+04 -2.38610E+04  1.56265E+04 -1.83383E+04  1.32024E+04 -1.17662E+04  1.76766E+04  5.79929E+03
  6.61288E+03  1.16261E+04 -1.24292E+04  1.83441E+04 -7.48445E+03  7.76829E+03 -7.69359E+03 -6.28730E+03
  3.52348E+03 -1.66115E+04  5.30710E+03 -9.00623E+03  7.12439E+03 -2.37672E+03  1.74887E+03  1.39818E+03
 -6.54474E+03  2.02329E+03  2.30112E+03 -2.73930E+03  1.27462E+03 -1.24700E+04  7.46774E+03 -1.29063E+04
  1.55772E+04 -3.06837E+02  1.40071E+04  4.46010E+03  1.32637E+04  1.36461E+04  8.48154E+03  1.74262E+04
  9.82288E+02  2.06395E+04 -1.40047E+04  1.19255E+04 -1.20387E+04  2.60873E+03 -1.03906E+04 -4.83412E+03
 -1.34283E+03 -2.80275E+03 -4.53461E+03 -4.15930E+02 -2.01904E+03  1.28458E+03 -5.50371E+03 -1.61404E+02
 -6.18456E+03 -4.24434E+03 -9.49055E+03 -7.94757E+03  9.77924E+02 -1.22452E+04  2.32799E+03 -5.88062E+03
  8.81280E+03 -7.83677E+03  4.26496E+03 -1.00552E+03 -1.33171E+03  2.99347E+03 -4.38468E+03 -2.62175E+03
 -3.22503E+03 -7.63152E+03 -1.03708E+03 -1.03423E+04  4.53333E+03 -9.72429E+03  1.25166E+04 -5.90196E+03
  1.28119E+04 -1.25467E+03  1.34920E+04  6.41129E+03  3.65485E+03  9.47931E+03 -4.37121E+03  1.29787E+04
 -6.98810E+03  7.48806E+03 -1.67870E+03 -8.71304E+01  3.16932E+03  9.82305E+02  3.56379E+03 -1.55628E+03
  5.04515E+03  5.91938E+03  8.68715E+02  1.16678E+04 -6.57656E+03  8.52823E+03 -1.17930E+04  1.79406E+03
 -6.91132E+03 -1.84192E+03  2.63927E+03 -5.46809E+03  6.89957E+03 -7.28571E+02  2.38927E+03 -1.59678E+03
  3.67293E+02  3.36806E+03 -3.84798E+03  4.78801E+03 -6.38090E+03  4.40714E+03 -8.44326E+03  1.43988E+03
 -5.34990E+03 -6.83271E+03  1.62795E+03 -3.63609E+03  1.01666E+04 -6.10538E+03  9.44244E+03  9.40205E+01
  7.87634E+03  7.11601E+03  2.85028E+03  1.04218E+04 -8.47176E+03  7.46111E+03 -8.71113E+03 -1.61934E+03
 -5.93347E+03 -1.51650E+03 -1.26394E+03 -4.16365E+03  4.06952E+03 -5.83282E+03 -8.26096E+02 -3.19364E+03
  2.08179E+03 -3.40850E+02 -2.47918E+03 -3.71200E+03 -3.75934E+02 -7.18204E+02 -7.00336E+03 -3.91860E+03
  4.18271E+03 -4.41177E+02  4.99371E+03  5.58671E+02  6.26434E+03  2.40076E+03  7.36305E+03  1.33185E+04
 -1.53474E+03  1.15688E+04 -8.35206E+03  8.01783E+03 -1.03438E+04  3.37005E+03 -1.43424E+04 -3.87113E+03
 -7.69947E+03 -6.34524E+03  8.83941E+02 -4.60919E+03  1.01404E+03 -7.46043E+03  4.33122E+03 -3.95132E+03
 -1.54211E+03 -2.67803E+03  5.12786E+03 -4.14469E+03  5.18143E+03 -1.58967E+03  4.32507E+03 -5.10518E+03
  4.66631E+03  2.83178E+03  4.66987E+03 -3.52440E+03 -8.69123E+02  7.73510E+03 -5.86502E+03  7.87161E+03
 -6.69511E+03  5.25485E+01 -1.61219E+03 -5.92748E+03  3.70275E+02 -7.31469E+03  2.44545E+03 -5.40478E+03
  7.94103E+03 -6.12410E+03  8.91883E+03 -4.87132E+03  7.36348E+03 -7.95643E+02  4.20345E+03  5.61318E+03
  1.01855E+03  3.57665E+03 -3.71108E+03  4.30230E+03 -1.06936E+03 -1.20733E+03  4.23037E+03 -1.43084E+03
 -5.54927E+02 -1.23698E+03 -5.08283E+02 -4.19285E+02 -3.61819E+03 -3.62038E+03 -4.15990E+03  1.20677E+03
 -7.30764E+03 -3.48581E+03  5.53533E+01 -5.71721E+03  2.12919E+03 -6.97516E+03  4.09440E+03 -4.72638E+03
  6.66433E+03  3.01232E+03 -1.62855E+03  3.40526E+03 -8.81654E+02  6.02557E+03 -2.92338E+01  3.10837E+03
 -4.53712E+03 -2.61087E+03 -5.47898E+03  1.48030E+03 -6.56467E+02 -5.78571E+03  5.83227E+03 -5.58987E+03
  5.33256E+03 -2.90511E+03  2.82931E+03  9.78860E+02  6.63816E+03  7.85919E+02  2.78335E+03  5.94625E+02
  4.41380E+03  1.30401E+03  6.81532E+02 -1.10440E+03 -6.12014E+02 -2.99329E+03  6.10882E+03  3.03412E+03
  1.80448E+03  2.78815E+03 -3.22274E+03  5.52682E+03 -6.88212E+03  5.04193E+03 -4.10686E+03 -2.67166E+03
 -2.35124E+03 -6.09272E+03 -1.54781E+03 -9.73099E+03  1.21144E+03 -9.25966E+03  6.23242E+03 -5.10832E+03
  1.89349E+03  4.23706E+03  5.61777E+02  5.74297E+03 -3.62975E+03  7.03686E+02 -3.19433E+03  2.07819E+03
 -8.15283E+02 -4.81425E+03  3.33184E+03 -3.63933E+03  3.68167E+03  8.75065E+02  1.66764E+02 -9.00613E+02
 -2.34175E+03  3.32136E+02  3.83690E+03  2.60399E+03  2.35913E+03  2.80548E+03 -1.86354E+02 -3.15811E+02
  1.08365E+03 -1.09111E+03  2.45304E+03 -1.98957E+03  9.98831E+02  1.08473E+04  9.88921E+02 -1.28574E+03
 -5.61126E+03  1.16284E+03 -3.63293E+03 -1.02327E+03 -6.62614E+03 -1.94542E+03  4.59672E+03 -8.08176E+02
 -9.50310E+02 -5.54328E+02  1.02485E+03 -4.19414E+03  4.47854E+03 -4.64194E+02 -7.56534E+02 -9.27439E+02
  1.46721E+03 -1.43838E+03 -2.78422E+03 -5.29883E+03  3.03907E+02 -3.11758E+03  1.62547E+03  2.18667E+03
 -4.89216E+02  6.48586E+02 -7.08548E+02  4.30944E+03  9.80897E+02 -1.70016E+03  3.60326E+03 -1.45086E+03
 -2.89434E+02  5.07755E+03 -7.54547E+02 -1.53755E+03 -5.80354E+02 -2.11718E+03  1.64112E+03  1.28661E+03
 -2.09451E+02 -1.72274E+03  4.53212E+03  3.62860E+03 -1.17429E+03  2.89666E+03  1.50145E+03  4.97426E+03
 -9.84457E+02 -4.22646E+03 -3.38105E+03 -1.54830E+03 -8.13074E+02 -5.29693E+02 -3.70625E+03 -4.92195E+01
  3.19703E+03  1.48542E+03  2.76263E+03 -2.02707E+03 -1.55516E+03  3.64033E+03  3.52190E+02 -1.80659E+03
  4.95211E+03  4.17201E+03  8.17079E+02 -3.01366E+03  4.95723E+03  3.53807E+03  7.33475E+02 -1.08291E+03
 -5.78669E+03 -7.80385E+02  1.18870E+03  2.68683E+03 -1.75975E+03 -3.52884E+03 -5.26982E+03 -4.80462E+03
 -1.35811E+03 -7.00820E+03  4.37374E+03 -7.56351E+03  5.30227E+03 -3.84827E+03  5.43308E+03  4.02794E+03
  3.13123E+03 -2.88535E+03  1.33604E+03  2.27235E+03  1.04032E+03  2.52919E+03 -3.21544E+03  2.13696E+03
 -5.86059E+02 -4.04568E+03 -4.02821E+03 -2.33886E+03 -2.26113E+03 -2.00302E+03 -3.13020E+02  2.47515E+03
 -2.86452E+03 -5.38348E+03 -1.62029E+03 -3.22394E+03  1.13013E+03 -1.48306E+03  3.25328E+03 -9.02960E+02
  1.05534E+03 -1.64449E+03 -3.50535E+03 -6.50337E+02  1.33661E+03 -9.10777E+02  7.48241E+02  6.72368E+02
 -2.87856E+03 -1.05182E+03 -5.83179E+03  2.67070E+03 -1.11129E+03  3.08481E+02  3.76012E+03 -3.00585E+03
 -6.05761E+02 -2.80436E+03  3.97721E+02 -2.92109E+03  1.19666E+03 -2.49335E+03  1.56161E+03  7.74872E+02
 -1.35515E+03  1.87039E+02  2.32892E+03  2.88932E+02  1.25638E+03 -5.21957E+02  2.85688E+03  3.81004E+02
 -1.07991E+03 -2.49974E+02  5.61368E+03 -1.50858E+02 -2.10305E+03  2.41653E+03  1.95897E+02  1.88284E+03
  1.48534E+03  4.85293E+03  4.79569E+02  2.90096E+03 -5.47526E+03 -1.11953E+03 -1.56728E+03 -3.98740E+03
  3.27519E+03 -2.97669E+03 -3.15897E+03 -3.19757E+03  5.64404E+03 -3.20122E+03  2.89240E+03 -6.75122E+02
  1.42740E+03 -4.11870E+03  5.14049E+03 -1.60727E+03 -3.74313E+03  1.68269E+03  1.62067E+03  9.37301E+01
 -2.79323E+03  7.31709E+02  1.02707E+03  1.22034E+03  2.77137E-01  1.61458E+03  2.69406E+03 -2.59791E+03
 -1.16803E+02  4.84490E+03  1.02110E+03 -1.91490E+02  5.04496E+02  4.59555E+03  1.27220E+03 -1.42411E+03
 -1.20018E+03  5.67795E+02  2.45978E+03  5.96187E+03 -1.45078E+03  2.36221E+03  3.09917E+03  2.46981E+03
