 $NMID ID='MM_0lb_SNR50_18hz_g40_13.RAW', FMTDAT='(8E13.5)'
 TRAMP=1., VOLUME=1. $END
  3.08829E+05 -2.72609E+02  3.33569E+05  2.51264E+05  8.42337E+04  3.35524E+05 -1.33093E+05  2.49337E+05
 -1.89177E+05  7.91678E+04 -1.13976E+05 -3.04663E+04  2.76787E+03 -5.14073E+04  5.42387E+04  1.86956E+03
  3.69377E+04  5.39065E+04 -1.89008E+04  7.67235E+04 -5.90801E+04  6.58021E+04 -8.43239E+04  3.12727E+04
 -8.06644E+04 -8.44890E+03 -6.04364E+04 -5.07456E+04 -1.95888E+04 -6.63958E+04  2.93436E+04 -4.57112E+04
  3.51601E+04  1.53446E+03  1.62387E+04  4.78324E+04 -3.40268E+04  4.49300E+04 -6.34910E+04 -3.88927E+03
 -5.27304E+04 -5.54377E+04 -4.97627E+03 -7.53726E+04  3.03511E+04 -5.15023E+04  4.67172E+04 -1.39104E+04
  3.96225E+04  1.27194E+04  3.25586E+04  2.38521E+04  1.29215E+04  2.78430E+04 -3.75300E+03  2.63160E+04
 -1.97389E+04  1.07139E+04 -1.73923E+04 -6.51069E+03  5.71707E+03 -8.25481E+03  2.09130E+04  1.14768E+04
  1.12983E+04  3.50019E+04 -2.84996E+04  3.29450E+04 -5.83940E+04  3.91751E+03 -5.53557E+04 -4.30095E+04
 -1.05338E+04 -5.64301E+04  3.39095E+04 -4.27235E+04  5.64160E+04 -4.11091E+03  3.40236E+04  2.87548E+04
 -4.41323E+03  3.06415E+04 -3.11549E+04  1.63475E+04 -2.55530E+04 -6.96484E+03 -1.38543E+04 -9.20571E+03
 -9.22080E+03 -9.86747E+03 -2.16246E+03 -1.61501E+04  6.06196E+03 -2.75868E+04  1.47851E+04 -1.09326E+04
  9.19977E+03  5.64427E+03 -7.31760E+03  1.48745E+04 -1.75197E+04 -2.89433E+03 -5.73163E+03 -2.85530E+04
  1.66356E+04 -4.07273E+04  4.49209E+04 -1.91887E+04  4.25418E+04  2.04663E+04  1.57087E+04  4.62943E+04
 -1.53806E+04  2.78526E+04 -2.39814E+04 -2.65328E+03 -1.09609E+04 -2.76060E+04  1.81715E+04 -3.37025E+04
  3.69466E+04 -6.28892E+03  3.36120E+04  2.23616E+04  1.68087E+04  3.95705E+04 -7.40708E+03  3.67791E+04
 -2.49696E+04  3.48180E+04 -3.68874E+04  6.66562E+03 -3.85405E+04 -1.63801E+04 -1.60755E+04 -3.60090E+04
  5.52676E+03 -3.13365E+04  2.67667E+04 -9.92958E+03  2.80572E+04  8.53325E+03  2.88423E+03  1.65540E+04
 -1.36873E+04  3.81390E+03 -1.06745E+04 -7.04869E+03  5.85767E+03 -7.41343E+03  2.09395E+04  8.17313E+03
  1.18950E+04  1.95426E+04 -6.47358E+03  2.30336E+04 -2.03040E+04  9.02511E+03 -2.68508E+04 -4.51061E+03
 -1.81350E+04 -1.39377E+04 -6.63466E+03 -1.70790E+04  4.18794E+03 -1.12386E+04  1.31332E+04 -1.34208E+04
  2.18112E+04 -1.10742E+04  2.46341E+04 -3.93199E+03  2.01694E+04  1.21728E+04  2.96978E+03  3.34428E+04
 -1.77019E+04  2.51838E+04 -2.81190E+04  9.84347E+03 -1.79090E+04 -6.34136E+03 -3.42658E+03 -9.53047E+03
 -4.40064E+02  3.19555E+02 -2.42034E+03  2.61699E+03 -1.36134E+04  9.37900E+02 -1.13503E+04 -2.50825E+03
 -1.15811E+04 -1.69364E+04  4.92145E+03 -2.16896E+04  1.45504E+04 -9.61424E+03  1.12429E+04 -2.36305E+03
  1.17456E+04  7.29496E+03 -3.07076E+03  1.20296E+04 -1.24512E+04  9.23706E+03 -1.16667E+04 -1.33457E+03
 -1.14643E+04 -1.69486E+04  4.22125E+02 -1.81849E+04  7.25862E+03 -1.77766E+04  1.83266E+04 -3.48927E+03
  1.90918E+04  3.55373E+02  6.99110E+03  4.90427E+03  2.92080E+03  1.62072E+03  8.12500E+03 -9.43650E+02
  1.54694E+04  2.39432E+03  1.49641E+04  1.31398E+04  7.45808E+03  2.67602E+04 -3.30448E+03  2.75488E+04
 -1.67825E+04  1.93344E+04 -2.16803E+04  6.01288E+03 -2.10127E+04  6.87718E+02 -1.72703E+04 -1.68591E+04
 -7.97341E+03 -2.04588E+04  5.22502E+03 -1.77470E+04  1.91800E+04 -1.12851E+04  1.58378E+04  1.42446E+03
  7.40202E+03  1.34984E+04 -2.87161E+03  1.38257E+04 -1.15469E+04  4.90840E+03 -8.95771E+03 -9.52806E+03
  8.63909E+02 -1.21250E+04  5.34262E+03 -1.15094E+04  4.68668E+03 -1.96573E+02  2.75018E+03  5.10962E+03
 -4.11534E+03  1.58520E+03 -8.91399E+03 -3.67356E+03  2.00523E+03 -8.60417E+03  7.59949E+03 -7.57336E+03
  1.39756E+04 -4.30402E+03  1.05398E+04  2.58094E+03  9.75672E+03  1.45929E+04  4.19370E+03  1.43624E+04
  1.28921E+03  1.73588E+04 -6.51441E+03  1.03696E+04 -8.76168E+03  1.89865E+03 -8.29857E+03 -6.98746E+02
 -3.41269E+03 -1.94154E+03 -3.08684E+03 -9.19854E+02 -1.84136E+03 -1.24662E+03 -4.80826E+03  4.47492E+03
 -4.67951E+03 -1.04910E+03 -6.88108E+03 -9.47668E+03 -4.11475E+03 -1.19272E+04  6.65241E+03 -9.96449E+03
  1.85182E+03 -3.94238E+03 -1.06935E+03  4.45124E+03 -1.23901E+03  4.11263E+03 -4.02045E+03 -3.59943E+03
 -6.51979E+03 -3.56693E+03  5.86883E+03 -4.64082E+03  4.16589E+03 -7.45196E+03  1.16544E+04 -2.58070E+03
  1.06694E+04  4.49182E+03  1.09980E+04  9.08595E+03  8.48564E+02  3.94903E+03 -3.96782E+03  9.00277E+03
 -3.23178E+03  1.19228E+03 -4.82560E+03 -2.41239E+03 -2.85993E+03 -4.02511E+03  6.93986E+03 -1.25363E+03
  6.75557E+03  4.44165E+03 -1.57348E+03  1.00663E+04 -2.29215E+03  9.34459E+03 -6.42041E+03  4.38197E+03
 -7.13180E+03 -1.77343E+03 -1.97273E+03 -8.28123E+03  2.89882E+03 -2.50407E+03  3.05501E+03  1.78851E+02
  2.84398E+02  8.12270E+03 -2.17187E+03  8.53867E+03 -3.44875E+03  3.41139E+03 -7.81575E+03 -1.32863E+03
 -3.07813E+03 -6.38906E+03  2.43130E+03 -5.52038E+03  7.39573E+03 -3.34183E+03  8.10841E+03  5.47597E+03
  5.92429E+03  1.04972E+04 -5.44288E+02  4.20154E+03 -5.45278E+03  4.73970E+03 -1.47040E+03 -2.37988E+02
  3.46305E+02 -6.34146E+03  2.88871E+01 -3.91739E+03 -6.77340E+02 -1.40789E+03 -1.00868E+02  3.67956E+03
  2.19372E+03 -1.49722E+03  1.46434E+03  3.19389E+03 -1.32568E+03 -7.25631E+02 -5.18131E+02 -3.07795E+03
  4.63222E+03 -6.22605E+02  6.89281E+03  4.08983E+03  6.28919E+03  3.31524E+03  1.78648E+03  8.45057E+03
 -4.98324E+03  5.45421E+03 -8.56104E+03  4.61646E+03 -1.30691E+04 -4.18112E+03 -8.44468E+03 -3.21066E+03
 -2.16343E+03 -7.63762E+03 -2.05852E+02 -2.18482E+03  3.40482E+03  4.85103E+01 -1.27771E+03 -3.27092E+03
  2.54561E+03  2.90488E+02  4.45668E+03 -5.08514E+03  7.99847E+03 -3.47701E+03  7.92302E+03  4.42537E+03
  3.40666E+03  3.37140E+03 -1.11295E+03 -1.08793E+03 -1.34076E+03  3.92734E+03 -5.40728E+03  5.56204E+03
 -8.00544E+03 -2.81727E+02 -2.48226E+03 -5.48301E+03  8.46581E+03 -3.83295E+03  9.81444E+02 -9.33015E+03
  7.07951E+03 -3.30447E+03  6.72089E+03 -1.98902E+03  1.98453E+03 -3.76265E+02 -1.12915E+03  4.86558E+03
 -2.30990E+03  4.95886E+03 -3.88875E+03  5.21546E+02 -1.76644E+03 -1.18473E+02 -2.48034E+03  1.91719E+02
  2.38568E+01 -4.00246E+03 -5.92525E+03  5.04780E+03 -3.93292E+03  4.56411E+03 -3.67710E+03  1.34623E+03
 -8.80357E+02 -1.87265E+03  2.76329E+03 -5.85965E+03  4.00969E+03 -6.46598E+03  5.97910E+03 -1.29458E+03
  2.46652E+03  2.62980E+03 -4.09064E+03  7.03631E+03 -3.78151E+03  8.41871E+03 -4.18892E+03  2.46914E+03
 -2.87113E+03 -1.92527E+03 -2.13013E+03 -2.12530E+03 -1.68431E+03 -6.86898E+03  2.52713E+03 -3.70641E+03
  1.15343E+03 -3.32866E+03  4.79156E+03  2.86957E+03  1.32026E+03 -1.36424E+03  8.83462E+02  1.27169E+03
  3.96811E+03  2.87315E+03  2.79811E+03  3.55694E+03  4.56124E+03  3.05174E+03  1.71603E+03 -1.84045E+03
 -2.17740E+03  7.38576E+03 -4.51162E+03  3.59529E+03 -3.26854E+03  2.52392E+03 -5.96595E+03 -2.59933E+03
  1.60669E+03 -1.04014E+02  2.21426E+02 -6.96864E+03  4.25201E+03 -1.89169E+03  3.07355E+03 -7.28251E+02
  5.19783E+03  2.00449E+03 -3.40153E+03  3.39083E+03  1.23466E+02  3.06458E+03 -1.38802E+02 -1.79244E+03
  3.41070E+03  1.82550E+03  1.81150E+03  3.47721E+02  1.89533E+03  7.15086E+02  3.88498E+03  2.47887E+03
 -1.33477E+03  1.46794E+03 -3.15255E+02  1.53536E+03  1.73542E+02  1.10394E+03 -1.09262E+03  2.78238E+02
 -4.33644E+03 -1.01795E+03 -3.81996E+03  6.32827E+03 -9.92725E+02 -2.17189E+03 -2.26232E+03  3.10218E+03
  8.62626E+02 -2.18197E+02 -1.11021E+03  2.59697E+03 -6.37239E+03 -4.30120E+03  4.12619E+03 -3.01724E+03
 -5.55311E+01  1.17438E+03 -9.34322E+00  3.81548E+03 -4.06055E+03 -1.39583E+03 -8.91009E+02  3.82058E+03
 -1.39112E+03 -1.85379E+03  4.09925E+02 -1.30653E+03 -2.25053E+03 -4.41341E+03 -3.73948E+02  1.59404E+03
 -3.30962E+03  2.14337E+02  1.24132E+03  3.07749E+03  2.69641E+03 -1.03438E+03  7.89657E+02 -5.47072E+02
 -2.67926E+03  2.68391E+03  4.02423E+03 -1.78031E+03 -1.28400E+03 -1.35969E+03 -1.18798E+02  9.64651E+02
  2.40854E+03  1.80524E+03  3.34173E+03  1.42733E+03  1.91700E+03  1.40209E+03 -8.80098E+02 -1.52775E+03
 -1.42491E+03 -7.64854E+02  6.18543E+02 -5.88107E+02  2.82191E+02 -3.12535E+03  5.45349E+03 -2.71388E+02
  5.15464E+02 -4.96872E+02 -1.62142E+03  1.41491E+03  1.67121E+03 -2.12572E+03 -1.32920E+03  3.03998E+03
 -1.92170E+03  2.99780E+03 -3.20357E+01 -5.21718E+02 -2.02952E+03 -2.30234E+03 -2.37997E+03  5.14150E+02
  3.38187E+03  4.76104E+02 -4.45476E+03 -2.23549E+02 -5.54326E+02 -4.06801E+02 -2.82859E+03  1.39553E+03
 -5.49057E+02 -1.11659E+03 -6.73001E+02 -3.50667E+03  2.64921E+03 -6.64980E+03  1.80482E+03 -4.49972E+03
  2.60174E+03  1.44709E+03  4.97066E+03  2.38358E+03  5.00184E+02  2.15351E+03 -4.41633E+02  5.30470E+03
 -2.72333E+02  2.65846E+03 -1.96254E+03  4.18966E+02 -1.96769E+03 -2.66997E+02 -1.92256E+03 -5.54915E+02
  3.73970E+03 -1.03009E+03 -2.63447E+02  1.14560E+03 -5.09499E+03 -5.05813E+00  3.95416E+02 -1.11239E+03
  1.57350E+03 -7.19185E+03  9.64426E+02  3.11361E+02 -2.82284E+03  4.79350E+02  4.09045E+02  2.16271E+02
  1.75712E+03  4.56201E+02 -1.28828E+03  2.41207E+03 -2.56292E+03 -2.95608E+03  2.45738E+03 -7.63315E+02
 -2.83630E+03 -1.87341E+03  3.50536E+03 -4.51038E+02 -1.58301E+03 -5.20701E+03 -3.77336E+02 -4.93308E+02
  6.33560E+03  2.78072E+03 -1.23702E+03  3.41891E+03  1.97412E+02 -4.73963E+03  2.19045E+02  1.11488E+03
  1.06591E+03 -4.23095E+02 -9.05620E+02  1.92686E+03  1.19332E+03  2.57600E+03 -5.47402E+02 -3.34238E+03
 -3.15225E+03  2.08383E+03 -4.55396E+03  3.88557E+03 -2.37954E+03  1.37223E+03  9.50983E+02 -2.14933E+03
  5.48557E+03 -1.81373E+03 -4.55061E+01 -7.21263E+02  1.57044E+02 -3.15376E+03  1.31268E+03  1.47475E+03
  1.24816E+03  1.29232E+03  2.12500E+03 -3.00389E+02 -9.22784E+02  3.43547E+03 -1.54485E+03  1.82709E+03
 -3.19973E+03 -2.13465E+02  3.12165E+02  6.70467E+02 -2.02459E+03  1.90534E+03 -2.89625E+03 -2.34254E+02
 -5.81914E+03 -1.49963E+03  5.95541E+02  3.18246E+02  2.80900E+03 -1.49849E+03  8.96033E+01  2.44546E+02
  3.83458E+03  1.94482E+03 -1.97736E+03 -1.40029E+03  1.03231E+03  1.67646E+03  3.16779E+03  1.72270E+03
