 $NMID ID='MM_0lb_SNR50_9hz_g40_73.RAW', FMTDAT='(8E13.5)'
 TRAMP=1., VOLUME=1. $END
  3.07777E+05  2.02878E+03  3.44908E+05  2.44610E+05  9.17320E+04  3.36102E+05 -1.26888E+05  2.57655E+05
 -1.97712E+05  8.42362E+04 -1.08865E+05 -2.81619E+04 -2.57651E+03 -4.66411E+04  6.02355E+04 -4.06357E+03
  3.26322E+04  4.67084E+04 -1.49564E+04  7.93780E+04 -6.53413E+04  6.13706E+04 -8.64506E+04  3.25017E+04
 -7.27366E+04 -1.04936E+04 -6.01220E+04 -5.29925E+04 -1.15751E+04 -7.81017E+04  2.69114E+04 -5.13963E+04
  4.23843E+04  5.95321E+03  1.80570E+04  4.78328E+04 -3.74845E+04  4.70286E+04 -6.79708E+04 -5.35326E+03
 -5.71682E+04 -5.98603E+04 -7.24242E+03 -8.66368E+04  3.45162E+04 -5.41970E+04  4.95757E+04 -1.85646E+04
  3.74865E+04  1.36038E+04  3.61577E+04  2.66405E+04  1.10114E+04  3.46699E+04 -8.11232E+03  2.90366E+04
 -1.75100E+04  9.95541E+03 -2.27283E+04 -4.26791E+03  5.75340E+03 -6.14837E+03  2.34849E+04  1.53848E+04
  5.03986E+03  3.09075E+04 -3.37880E+04  3.90836E+04 -6.47170E+04  1.23209E+03 -6.08042E+04 -4.03433E+04
 -2.16522E+04 -5.97521E+04  4.63277E+04 -4.51597E+04  5.78261E+04 -2.77233E+03  3.69524E+04  3.48700E+04
 -3.12435E+03  3.52930E+04 -2.67570E+04  2.24141E+04 -3.70819E+04 -4.26097E+03 -1.73656E+04 -1.96129E+04
 -9.29103E+03 -1.68658E+04 -1.87846E+03 -1.92156E+04  1.30729E+04 -2.83881E+04  1.69858E+04 -1.21921E+04
  1.15089E+04  3.50083E+03 -1.00817E+04  1.42121E+04 -2.37681E+04 -7.33786E+03 -1.10533E+04 -3.30499E+04
  2.40059E+04 -4.40189E+04  4.83748E+04 -1.67262E+04  5.57021E+04  2.25508E+04  1.65548E+04  5.04113E+04
 -2.43286E+04  3.10549E+04 -2.19228E+04  2.82210E+03 -1.01920E+04 -3.04839E+04  1.78700E+04 -3.39341E+04
  4.51734E+04 -1.72442E+04  4.25022E+04  2.47984E+04  2.22414E+04  4.71616E+04 -1.01590E+04  5.56880E+04
 -4.31110E+04  3.70880E+04 -5.04880E+04  1.72240E+04 -4.52228E+04 -1.39285E+04 -2.73286E+04 -4.03818E+04
  8.51253E+03 -4.03437E+04  2.62661E+04 -1.83568E+04  3.00740E+04  1.28325E+04  1.00141E+04  2.12490E+04
 -1.10402E+04  8.79657E+03 -1.16712E+04 -5.67058E+03  7.17966E+03 -1.09942E+04  1.97335E+04  8.30064E+03
  9.76874E+03  2.77511E+04 -7.27346E+03  2.87949E+04 -2.28168E+04  1.84738E+04 -2.96561E+04 -9.91134E+03
 -2.72148E+04 -1.90252E+04 -8.93834E+03 -2.44928E+04  5.22757E+03 -2.33662E+04  1.36115E+04 -2.22913E+04
  3.41312E+04 -1.23375E+04  3.31909E+04  6.62687E+03  2.29372E+04  1.76486E+04  5.55625E+03  3.92106E+04
 -1.76299E+04  2.33341E+04 -2.62611E+04  5.54317E+03 -2.51794E+04 -1.23025E+04 -1.03255E+04 -1.45226E+04
  4.15676E+03 -2.40805E+03 -2.79420E+03  1.53732E+04 -1.97202E+04 -2.90735E+03 -1.95990E+04 -1.04256E+04
 -2.05393E+04 -2.31021E+04  4.82288E+03 -2.67541E+04  1.50806E+04 -1.83209E+04  2.62406E+04 -3.23963E+03
  1.72166E+04  1.87216E+04 -3.30981E+03  2.39639E+04 -1.76637E+04  1.03712E+04 -2.18183E+04 -6.01906E+03
 -1.60038E+04 -2.05705E+04 -8.65410E+03 -2.24765E+04  9.93781E+03 -1.89114E+04  2.07158E+04 -9.85074E+03
  2.28477E+04  3.66597E+03  1.79535E+04  1.04751E+04  7.14716E+03 -2.74687E+03  6.29615E+03  4.60319E+02
  1.74285E+04  5.28647E+03  2.27045E+04  1.83706E+04  1.21871E+04  3.68153E+04 -5.37895E+03  3.84280E+04
 -2.97638E+04  2.99654E+04 -4.33747E+04  2.06813E+04 -3.71627E+04 -4.34751E+03 -3.75313E+04 -3.08297E+04
 -1.48007E+04 -3.60996E+04  1.51182E+04 -3.26212E+04  2.86108E+04 -1.63366E+04  2.48711E+04  6.58501E+03
  5.40317E+03  1.49959E+04 -1.11768E+04  1.73915E+04 -1.59350E+04  3.28855E+03 -1.38288E+04 -1.70699E+04
 -6.29943E+03 -1.41250E+04  3.36213E+03 -1.08554E+04  1.50228E+04  4.19076E+01  1.13367E+04  6.62255E+03
 -1.13374E+04  9.70479E+03 -7.66337E+03 -1.07630E+04 -3.17661E+02 -1.32757E+04  5.78535E+03 -1.91415E+04
  2.06680E+04 -1.20001E+04  2.53096E+04  9.08358E+03  2.52004E+04  1.82958E+04  1.60500E+04  2.57470E+04
  2.62083E+03  2.50721E+04 -1.77709E+04  2.27992E+04 -1.80696E+04  2.62354E+03 -6.47918E+03 -4.45463E+03
 -1.08871E+04 -5.25034E+03 -3.66613E+03  7.13278E+02  4.22671E+03  5.72149E+03 -9.35074E+03  3.72083E+03
 -1.47021E+04  7.90790E+02 -1.94841E+04 -1.02562E+04 -7.83332E+03 -1.87039E+04  5.57924E+02 -1.30364E+04
  4.83392E+03 -3.17866E+03  8.89449E+03 -5.01071E+02 -8.14939E+03  9.54641E+03 -4.16331E+03  1.21375E+03
 -1.12748E+04 -1.13196E+04  1.17833E+03 -9.46794E+03  6.75310E+03 -1.46055E+04  1.98525E+04 -4.51019E+03
  1.55048E+04  4.07888E+03  1.45252E+04  2.30115E+04  8.27231E+03  1.02171E+04 -5.82794E+03  1.56175E+04
 -1.81007E+04  5.40917E+03 -1.23975E+04 -3.41677E+03  3.50314E+03 -3.59198E+02  3.13759E+03 -9.93005E+02
  8.41701E+03  5.26712E+03 -3.29087E+03  1.15877E+04 -6.50190E+03  1.56298E+04 -1.91531E+04  2.85870E+03
 -1.13230E+04 -6.70427E+03 -2.10889E+03 -1.38638E+04  7.14229E+03 -7.09289E+03  1.46375E+04 -1.20089E+03
  7.08618E+03  1.10945E+04 -7.51676E+03  1.33383E+04 -1.50197E+04  3.99225E+03 -1.36883E+04 -5.53154E+02
 -8.76731E+03 -1.13473E+04  5.19639E+03 -1.09378E+04  2.01563E+04 -1.49178E+04  1.46374E+04  5.01478E+03
  5.52844E+03  1.81593E+04  1.44227E+02  1.43248E+04 -1.13917E+04  7.22266E+03 -1.53978E+04  3.18284E+02
 -1.10539E+04 -1.37052E+04  7.58455E+02 -8.84576E+03  7.17552E+03 -1.09514E+04 -3.22557E+03 -1.31045E+03
  5.26373E+03  4.36886E+03 -2.35106E+03 -3.62980E+03 -1.04072E+03 -9.93159E+01  3.74140E+03 -3.97957E+03
  1.11550E+04 -5.03740E+03  1.50630E+04  7.54658E+02  1.36127E+04  1.23409E+04  9.95860E+03  1.78275E+04
 -8.43955E+03  2.26145E+04 -2.16792E+04  1.59077E+04 -2.66728E+04  4.58584E+03 -2.17962E+04 -8.29517E+03
 -9.28115E+03 -1.95878E+04 -3.37553E+03 -1.67112E+04  4.24280E+03 -1.14198E+04  9.62745E+03 -9.59472E+03
  5.56195E+03 -2.72990E+03  2.80647E+03 -8.04482E+03  8.08014E+03 -4.88741E+03  1.18364E+04 -1.89643E+03
  1.23526E+04 -1.25633E+03  3.29367E+03  1.03052E+04 -1.41575E+03  7.79278E+03 -1.62541E+04  6.23787E+03
 -1.23281E+04 -2.89862E+03 -8.93104E+03 -1.14176E+04 -1.32366E+02 -1.78900E+04  7.94510E+03 -9.77342E+03
  1.03579E+04 -7.12439E+03  2.34700E+04 -5.04297E+03  8.87305E+03  9.93153E+03  1.56763E+03  1.40726E+04
 -6.86618E+03  1.67595E+04 -1.00809E+04  5.13443E+03 -4.17162E+03 -3.87272E+03 -1.01436E+03  3.49399E+02
 -4.92533E+03  9.51740E+02 -2.92553E+03  3.67445E+03 -2.55787E+03 -2.12636E+03 -7.12819E+03 -1.71800E+03
 -1.21081E+04 -1.01362E+04  5.16464E+02 -1.52355E+04  8.99882E+03 -1.60733E+04  1.28671E+04  2.51561E+02
  1.12312E+04  2.24033E+03  1.62705E+03  1.12107E+04  1.10584E+03  7.95587E+03 -5.23836E+03  1.60945E+04
 -1.40177E+04 -1.96461E+03 -1.12062E+04 -8.92557E+03  4.69569E+03 -1.21080E+04  1.36960E+04 -1.41421E+04
  4.64328E+03 -3.12450E+03  8.13112E+03  4.14508E+03  3.58464E+03 -1.10903E+03 -9.16277E+02  2.66368E+02
  5.51546E+02 -2.42533E+02  3.64062E+03  3.10516E+03  1.26280E+03  9.37399E+03  8.15215E+03  6.08378E+03
 -2.80402E+03  3.83526E+03 -8.09389E+03  1.49317E+04 -1.33488E+04  1.47997E+03 -1.34846E+04 -1.41667E+04
 -3.25333E+03 -1.62493E+04 -2.99212E+02 -1.67056E+04  8.11279E+03 -9.52977E+03  8.70558E+03  1.75103E+03
  6.26955E+03  2.78590E+02  2.28924E+03  4.93434E+03 -5.79490E+03  7.42567E+03 -5.58555E+03  3.49241E+02
 -3.88371E+03 -3.15984E+03  3.43262E+03 -3.23181E+03  8.05473E+03 -5.54530E+03  5.49721E+03  4.05072E+03
 -2.29567E+03  4.24782E+03 -2.95157E+03 -4.24268E+03 -4.26307E+03  1.47351E+03  3.07378E+03  1.70455E+02
 -1.22780E+03 -8.86250E+02  1.00476E+04 -2.37286E+03  5.73033E+03  3.12187E+03  1.20644E+03  8.20368E+03
 -8.07552E+03  7.10376E+03 -1.24035E+04 -1.82729E+03 -4.61034E+03 -3.90187E+03 -3.46132E+03 -9.73191E+03
  2.40355E+02 -8.52530E+02  1.74889E+03 -7.08329E+03 -2.68177E+03  4.24186E+03 -3.27681E+03  8.34752E+03
 -1.47201E+04  1.74606E+03 -1.07314E+04  2.66475E+03 -2.49054E+03 -1.05176E+04 -1.16563E+03 -6.19918E+03
  6.78714E+03 -3.90499E+03  2.55344E+03  1.80796E+03  1.28548E+03 -1.01009E+03  1.00449E+03  1.06240E+04
 -5.45635E+03  3.16064E+03 -1.82830E+03 -5.64840E+03  3.41928E+03 -8.12263E+03  3.80074E+03 -6.25583E+03
  9.24804E+03  8.08778E+01  3.81681E+03  1.09270E+04  7.72915E+03  9.11844E+03 -3.70616E+03  1.04023E+04
 -9.46288E+03  3.62725E+02 -8.87069E+03 -4.58224E+03 -7.76877E+03 -9.61365E+03  5.86425E+03 -8.74291E+02
  3.47649E+03  3.37212E+03  7.12558E+03 -2.34294E+03  3.70081E+03  4.36803E+03  1.06144E+02  6.52586E+03
 -6.19644E+03  3.80575E+03 -4.53350E+03 -8.69663E+03  4.69911E+02 -2.02533E+03  2.26535E+03  1.05692E+03
 -2.06641E+03  1.06460E+03 -3.65355E+03 -3.24776E+03 -1.58272E+04  1.25793E+03 -1.60025E+04  4.90187E+02
 -2.56502E+03 -1.68301E+04 -7.68184E+01 -1.81343E+04  8.81316E+03 -9.32523E+03  1.14053E+04 -6.67623E+03
  1.37823E+04 -3.96034E+03  1.07970E+04  7.65829E+03  5.83098E+03  9.19324E+03 -8.86854E+02  2.31402E+03
 -6.33735E+03  5.96837E+03  7.38538E+03 -1.20072E+03 -1.51217E+03  5.84235E+03 -3.17226E+03  1.86950E+03
  2.85225E+03  2.48040E+03 -2.11080E+02  4.92827E+03  1.51916E+03 -3.25998E+03 -6.51209E+02 -7.29969E+03
  1.52520E+03 -6.45585E+03  6.84075E+03  2.60405E+03  3.66816E+03  6.20325E+03 -3.25157E+03  8.82915E+03
 -6.89880E+03  1.15716E+04 -1.38819E+04  1.03368E+04 -1.18200E+04  7.55718E+03 -9.72062E+03 -4.05969E+03
 -6.44790E+03 -9.24946E+03  1.17327E+02 -1.56204E+04  9.80358E+03 -3.22369E+03  6.57248E+03  5.70247E+03
 -6.30111E+02  5.14518E+03 -9.46043E+02 -2.38846E+03  9.94718E+02  1.16809E+03 -2.92351E+03 -2.62591E+03
  6.60503E+02 -2.77280E+03  9.85825E+03 -1.95512E+03  4.97251E+03  2.23091E+03 -9.61034E+02  3.44488E+03
 -5.99321E+03  5.27277E+03 -1.10674E+04  3.76189E+03 -1.27574E+04 -1.16459E+04 -2.79025E+03 -8.74940E+03
  3.69870E+03 -1.05632E+04  4.67548E+03  4.10382E+03  1.44273E+03  1.46689E+03  6.03362E+03  4.13481E+03
 -2.51502E+03  8.67890E+03 -1.39587E+03  9.40110E+03  4.16686E+02  7.86699E+03 -7.58717E+03  4.06912E+03
 -7.33491E+02  9.45872E+02 -5.65902E+03  4.31115E+03 -2.72992E+02 -2.74848E+01 -7.68089E+03  3.01883E+03
 -1.41092E+04 -1.54254E+03 -4.12335E+03 -1.24981E+04  7.99010E+03 -1.05374E+04  5.68189E+03 -6.32331E+03
  6.09655E+03  2.65476E+03  9.44766E+03  1.02060E+04  2.59808E+03  8.61857E+03 -2.41972E+03  1.05213E+04
