 $NMID ID='MM_0lb_SNR50_15hz_g40_99.RAW', FMTDAT='(8E13.5)'
 TRAMP=1., VOLUME=1. $END
  3.11744E+05  3.98752E+01  3.36518E+05  2.52036E+05  8.04469E+04  3.37977E+05 -1.32666E+05  2.48027E+05
 -1.88087E+05  8.54258E+04 -1.11614E+05 -3.64613E+04  1.12363E+03 -5.22325E+04  5.00621E+04  7.88830E+02
  3.45987E+04  5.08635E+04 -1.49262E+04  7.61050E+04 -6.21565E+04  6.13685E+04 -8.80418E+04  3.17524E+04
 -8.01568E+04 -1.29606E+04 -5.27799E+04 -4.75647E+04 -1.85982E+04 -6.75889E+04  2.52457E+04 -4.82476E+04
  4.01024E+04  7.32336E+03  1.58079E+04  4.74709E+04 -3.33643E+04  4.46669E+04 -6.11471E+04  4.13219E+02
 -5.56016E+04 -5.30837E+04 -9.95369E+03 -7.76454E+04  3.27352E+04 -5.57330E+04  4.77312E+04 -1.62033E+04
  4.33008E+04  1.34853E+04  3.14128E+04  2.70289E+04  1.72628E+04  2.98685E+04 -7.14485E+03  2.49849E+04
 -1.78238E+04  1.04164E+04 -1.50133E+04 -5.46877E+03 -1.79412E+02 -9.54559E+03  2.38317E+04  1.26232E+04
  8.23824E+03  3.34508E+04 -2.64470E+04  3.51509E+04 -5.60765E+04  2.10261E+03 -6.00076E+04 -4.23768E+04
 -1.33908E+04 -6.13509E+04  4.00886E+04 -4.17296E+04  5.46796E+04 -4.50328E+03  2.88971E+04  3.33613E+04
 -6.21272E+03  3.81204E+04 -2.96668E+04  1.40005E+04 -3.16724E+04 -4.15472E+03 -1.75881E+04 -9.72933E+03
 -1.00411E+04 -1.24035E+04 -2.77982E+03 -1.97215E+04  6.72168E+03 -2.13897E+04  1.75441E+04 -1.69584E+04
  9.29149E+03  5.62717E+03 -1.00361E+04  1.48920E+04 -2.35816E+04  1.25340E+03 -1.07649E+04 -3.22082E+04
  2.47169E+04 -4.10229E+04  4.20579E+04 -1.42160E+04  4.14464E+04  2.02130E+04  1.73891E+04  4.58610E+04
 -2.11654E+04  2.86430E+04 -2.04656E+04  2.81317E+03 -8.41722E+03 -2.39415E+04  2.06334E+04 -3.26308E+04
  3.82660E+04 -7.21485E+03  3.63382E+04  1.86846E+04  1.44861E+04  3.97993E+04 -1.05183E+04  4.64291E+04
 -2.55867E+04  3.31618E+04 -3.88856E+04  8.71774E+03 -4.32968E+04 -1.46325E+04 -2.63319E+04 -3.31293E+04
  4.18784E+03 -3.60421E+04  3.19287E+04 -1.07614E+04  3.37191E+04  9.98810E+03  6.53963E+03  1.62446E+04
 -1.41138E+04  7.50529E+03 -9.61088E+03 -7.76994E+03  8.33817E+03 -1.21633E+04  2.06762E+04  8.58437E+03
  9.92311E+03  2.60320E+04 -7.30686E+03  2.25889E+04 -1.99699E+04  9.93570E+03 -2.44551E+04 -7.15680E+03
 -2.12989E+04 -1.87439E+04 -6.11706E+01 -1.89303E+04  2.34385E+03 -1.69002E+04  1.28260E+04 -1.44135E+04
  2.72358E+04 -8.86228E+03  3.15211E+04  3.80856E+02  1.71524E+04  1.63888E+04  7.17297E+02  2.57776E+04
 -2.07853E+04  2.89796E+04 -3.03709E+04  5.17791E+03 -2.12983E+04 -7.13345E+03 -4.89545E+03 -1.53473E+04
  9.59174E+02 -6.76914E+03 -2.27862E+03  4.89166E+03 -1.36605E+04  7.57325E+03 -1.45332E+04 -4.15575E+03
 -1.14934E+04 -1.79491E+04  4.10940E+03 -1.63812E+04  1.09876E+04 -1.01428E+04  1.49163E+04  1.58376E+03
  1.21822E+04  1.24330E+04  2.49714E+03  1.89082E+04 -1.45212E+04  7.90364E+03 -1.39838E+04 -2.15549E+03
 -1.85827E+04 -1.64580E+04  2.50139E+03 -1.88929E+04  5.64971E+03 -1.71025E+04  2.14966E+04 -1.00976E+04
  1.16955E+04 -1.83209E+03  8.58531E+03  3.97139E+03  6.49165E+03 -6.83714E+02  5.20657E+03 -3.95425E+03
  1.37978E+04 -4.01811E+02  1.28293E+04  1.32866E+04  1.12479E+04  2.68765E+04 -2.52542E+03  3.20317E+04
 -1.55608E+04  2.57507E+04 -3.05291E+04  1.64998E+04 -2.68639E+04 -7.52776E+03 -2.65286E+04 -1.64878E+04
 -1.21925E+04 -2.44653E+04  1.23407E+04 -2.26709E+04  1.94542E+04 -1.15344E+04  1.37018E+04  1.59006E+03
  6.54300E+03  1.35927E+04 -9.62419E+03  1.11660E+04 -1.68804E+04  1.97938E+03 -8.81461E+03 -8.15636E+03
  4.08868E+03 -1.39881E+04  6.64103E+03 -1.17427E+04  3.87229E+03 -3.12773E+03  8.36484E+03  7.11484E+03
 -5.08484E+03  6.05348E+02 -2.15946E+03 -5.45650E+03  1.08431E+02 -1.36207E+04  6.82228E+03 -6.99256E+03
  1.53923E+04 -8.91689E+03  1.41114E+04 -3.67605E+02  1.18201E+04  1.51043E+04  5.09063E+03  1.59362E+04
  1.99884E+03  2.26702E+04 -1.24971E+04  9.18392E+03 -7.98056E+03  1.24414E+03 -1.09885E+04  3.10349E+03
 -8.55240E+03 -6.32592E+03 -6.41346E+02  1.06720E+03 -6.64065E+03  1.94134E+03 -5.20219E+03  5.87400E+03
 -9.80513E+03  2.16080E+03 -8.03400E+03 -9.18590E+03 -2.09237E+03 -1.13265E+04 -8.23448E+02 -1.24190E+04
  9.95291E+03 -9.24823E+02  6.13184E+03  3.92958E+03 -3.57822E+03  2.01556E+02 -7.51881E+03  3.90197E+03
 -3.88987E+03 -8.66744E+03  3.95573E+03 -4.27387E+03  6.63288E+03 -1.03103E+04  1.42963E+04 -4.64982E+03
  1.64499E+04 -8.57221E+02  9.84016E+03  6.50901E+03  1.13491E+03  1.25442E+04 -6.77933E+03  7.84508E+03
 -5.08229E+03  3.17018E+03 -7.08927E+03 -2.17629E+03  1.59802E+03  8.14260E+01  8.58440E+03  1.14998E+02
  3.23865E+03  3.10768E+03 -1.54212E+03  4.53954E+03 -4.59333E+03  1.04544E+04 -6.81636E+03  2.49722E+03
 -5.77558E+03 -4.49118E+03 -3.79350E+03 -4.49521E+03  4.98793E+03 -4.22298E+03  3.86095E+03  1.64070E+03
  1.52339E+03  2.43558E+03 -3.34405E+03  1.01548E+04 -6.65479E+03  4.60147E+03 -4.59877E+03  2.24805E+03
 -4.22664E+03 -1.09984E+04  7.03804E+03 -9.12112E+03  5.02914E+03 -6.10751E+03  5.73193E+03 -2.77736E+03
  6.53874E+03  6.90187E+03  3.32535E+01  1.60551E+04 -9.50336E+03  4.29823E+03 -1.12703E+04 -3.06848E+03
 -6.09489E+03 -7.92339E+03  9.79085E+01 -8.76512E+03  1.53304E+03 -7.86058E+03  5.83453E+03 -5.29526E+03
  4.13963E+03  5.03426E+03 -8.11316E+03  1.57229E+03 -1.00987E+03 -1.97390E+03 -5.31900E+02  4.13296E+02
  8.26334E+03 -1.59393E+03  5.40450E+03  2.01913E+03  5.77113E+03  9.67024E+03  5.28473E+03  9.81310E+03
 -3.74891E+02  7.40301E+03 -1.01115E+04  7.81647E+03 -1.40425E+04  6.67834E+03 -1.23711E+04 -5.57663E+03
 -7.35295E+03 -1.16041E+04 -9.46105E+02 -3.78132E+03  4.00870E+03 -3.01888E+03  3.68037E+03 -2.16297E+03
  3.71999E+03 -1.42984E+03  3.97403E+03  2.80422E+03  3.32403E+03 -1.18411E+03  6.15122E+03  5.02658E+03
  5.96014E+03  5.82672E+02  4.04186E+03  3.33435E+03 -2.09373E+03  2.19741E+03 -3.75323E+03  5.14793E+02
 -3.93569E+03  6.45989E+03 -2.26968E+03 -4.72333E+03 -1.97746E+03 -8.44216E+03  5.34119E+03 -7.61665E+03
  5.23644E+03 -4.94109E+03  1.05561E+04 -1.12554E+03  5.91023E+03  7.96724E+03  2.45450E+03  8.01936E+03
 -4.36646E+03  6.61978E+03 -1.55801E+03  4.82638E+03  2.55754E+03 -3.18534E+03  2.25605E+03 -1.62683E+03
 -2.50396E+03  6.03149E+02  6.59737E+02 -1.38274E+03 -3.10702E+03  6.53867E+02 -9.47291E+03 -2.93169E+03
 -5.10910E+01 -5.74234E+03 -4.40576E+02 -3.79924E+03  5.00513E+03 -9.92404E+03  3.50852E+03 -2.47679E+03
  3.36839E+03  4.77200E+03  8.00809E+03  5.70193E+03  1.05197E+03  8.67969E+03 -1.65897E+03  4.32507E+03
 -5.56914E+03 -1.07905E+03 -5.70873E+03 -9.52794E+03 -4.90093E+02 -6.82978E+03 -1.14586E+03 -5.56212E+03
  4.11187E+03  2.09214E+03  5.50177E+03 -3.27690E+02  2.18755E+03  2.09613E+02  1.09743E+03  3.13339E+03
  2.83661E+03  2.17750E+03  2.35195E+02  3.49839E+03  2.89760E+03  2.28660E+03  3.73648E+03 -3.08481E+02
 -1.22000E+03  3.74498E+03 -5.89305E+03  7.00243E+03 -6.66404E+03  3.47152E+03 -7.11133E+03 -2.82462E+03
 -5.09284E+03 -9.99582E+03  7.74425E+03 -4.38536E+03  4.09740E+03 -2.62056E+03  4.78782E+03  6.30816E+02
  3.37427E+03  2.79696E+03  4.02410E+03 -9.23395E+01  2.73810E+03  3.50604E+03  3.55747E+03 -2.27411E+03
 -6.04583E+02 -3.74725E+03  6.73233E+03 -5.31634E+03 -2.35562E+03  7.08399E+02  3.63077E+03 -1.32335E+03
 -4.56057E+02 -1.96638E+03 -7.71093E+02 -5.35265E+02 -2.90147E+03  1.09962E+03  4.35058E+03 -4.85615E+02
  2.00141E+01 -2.25922E+03 -1.75740E+03  1.86469E+03  9.43339E+02 -9.20566E+02 -4.60545E+03  7.15811E+03
 -1.29391E+03  8.24177E+01 -4.85945E+03 -1.94809E+02 -3.78283E+03 -6.17050E+03 -9.81918E+02 -4.44457E+03
  2.05863E+03  1.36166E+03 -4.90901E+02  2.76770E+03  2.38926E+03  1.23171E+03  9.95651E+02  4.07177E+03
 -2.18235E+03  4.76102E+03 -4.60145E+03 -1.44030E+03 -8.52830E+02 -4.76670E+03  1.34461E+03 -5.13293E+03
  4.75684E+03 -2.05063E+02  3.55506E+03 -4.66630E+02  6.33673E+03  3.52333E+03  3.26222E+02  1.88352E+03
  2.41047E+02  1.50805E+03 -3.19507E+03 -2.44493E+03  6.28298E+03 -4.02453E+03  3.23187E+03 -1.99738E+03
  4.40001E+03 -5.61279E+02  6.12702E+03 -1.42516E+03  2.13126E+03  1.20099E+03 -2.11647E+02  4.16461E+03
 -3.62981E+03  3.33539E+03 -5.15436E+00 -2.93463E+03 -2.69989E+02 -1.98372E+03 -9.90447E+02 -5.22074E+03
  3.35614E+03 -1.54048E+03  5.44464E+03  5.97458E+03 -3.60506E+03 -2.45270E+03 -8.31927E+02  5.77192E+03
  3.93680E+03  4.05248E+03  2.70578E+03  1.91921E+01  2.19592E+03  2.71420E+03 -2.86294E+03  2.84695E+03
 -1.82510E+03  1.38412E+03 -7.02679E+03 -2.40977E+03  9.68013E+01 -3.11751E+03 -2.15790E+03 -8.85139E+02
 -4.77997E+03 -1.45525E+03  1.04875E+03 -6.73879E+03 -2.66657E+03 -2.24252E+03  5.91107E+03  1.26614E+02
  4.21423E+03 -1.56329E+03  6.21741E+03  4.86867E+02  1.07173E+03  1.96177E+02 -2.29842E+02 -9.64340E+02
 -1.17855E+03  6.56502E+02 -3.63295E+02  1.72490E+03 -3.95450E+03  1.73561E+03 -2.41572E+03  2.54048E+03
 -5.37626E+02  3.95919E+01 -4.72714E+02  1.25794E+03 -1.18347E+03  2.39075E+03  3.42452E+03 -2.12681E+03
  3.95797E+02 -2.66276E+03  4.83513E+02 -2.33484E+03  5.10137E+03  3.27218E+03 -2.44090E+02  2.02733E+03
  1.25724E+03  3.24281E+03 -4.49130E+03  3.03240E+03 -2.84927E+03 -3.75323E+03 -2.18036E+03 -2.24040E+03
 -3.41975E+03 -4.88319E+03 -5.33494E+03  2.03855E+03  4.84716E+03 -1.97495E+02  2.63608E+03  9.14927E+02
 -4.70282E+03  5.66896E+03  3.59462E+02 -1.25677E+03  6.89695E+02 -5.37514E+02 -8.03122E+02 -4.63137E+03
  9.82294E+02  2.63993E+03 -2.38182E+01  2.82654E+03  8.15524E+02  4.43370E+03  3.92016E+03  1.62520E+03
 -2.44862E+03  2.45045E+03  2.21800E+03  1.55942E+03 -2.71760E+03  7.83327E+02 -2.79344E+03 -5.89885E+03
  1.87662E+03 -1.19003E+03  3.10579E+03 -3.98900E+03  2.18886E+03 -7.89102E+02  5.56537E+02  3.40008E+02
 -4.46438E+01  3.75714E+03 -2.81232E+03 -1.85963E+03  3.03790E+03  1.79425E+03 -5.35927E+03  1.53179E+01
  1.89081E+02 -1.01800E+03  6.17610E+03  1.93737E+03  3.52557E+02 -5.93119E+02  2.98995E+02  4.37848E+02
 -7.06818E+02  4.65788E+02 -1.01715E+03 -1.01334E+02  4.66367E+01 -8.58201E+02  2.49206E+03 -6.88508E+03
  1.46038E+03 -8.93979E+02  2.35879E+03  1.58388E+03 -3.39550E+02  2.22958E+03 -1.47574E+03  4.15036E+03
