 $NMID ID='MM_0lb_SNR50_9hz_g55_96.RAW', FMTDAT='(8E13.5)'
 TRAMP=1., VOLUME=1. $END
  3.09769E+05 -3.40493E+02  3.35122E+05  2.49640E+05  8.67310E+04  3.38589E+05 -1.26556E+05  2.54766E+05
 -1.87879E+05  8.31232E+04 -1.16143E+05 -3.45273E+04  6.79233E+02 -4.68709E+04  6.21337E+04  3.50624E+03
  3.81836E+04  5.86055E+04 -2.23251E+04  7.42986E+04 -6.08135E+04  6.56565E+04 -8.95496E+04  3.65076E+04
 -7.74190E+04 -1.69850E+04 -5.17888E+04 -5.56996E+04 -1.39584E+04 -7.56452E+04  2.98686E+04 -4.58394E+04
  4.66686E+04  1.23769E+04  1.65730E+04  4.75189E+04 -3.77073E+04  4.03369E+04 -6.53408E+04  3.67407E+03
 -5.17378E+04 -6.00088E+04 -4.77905E+03 -8.40939E+04  3.26467E+04 -5.27848E+04  4.85206E+04 -2.92766E+04
  4.64500E+04  1.09151E+04  3.67567E+04  2.29930E+04  2.00319E+04  3.15996E+04 -3.32734E+03  3.23419E+04
 -2.65684E+04  1.41153E+04 -2.22538E+04 -1.21867E+03  1.15663E+04 -6.31314E+03  2.44368E+04  1.32719E+04
  4.20047E+03  3.48325E+04 -3.52226E+04  3.87603E+04 -6.95046E+04  6.65019E+03 -5.83344E+04 -3.92435E+04
 -1.41844E+04 -6.46754E+04  4.33979E+04 -4.74478E+04  7.15405E+04  8.04979E+03  4.18132E+04  2.98973E+04
 -7.01186E+03  3.97680E+04 -2.86433E+04  1.65637E+04 -3.16585E+04  1.95338E+03 -1.84949E+04 -1.27902E+04
 -5.81897E+03 -2.25957E+04 -2.44192E+03 -2.18330E+04  1.31282E+04 -2.97057E+04  2.39948E+04 -1.28426E+04
  6.67605E+03  6.97988E+03 -1.06374E+04  1.45969E+04 -2.90825E+04 -1.00011E+04 -8.03791E+03 -3.72661E+04
  2.37422E+04 -5.07498E+04  5.13466E+04 -1.64457E+04  4.40834E+04  2.49802E+04  1.69157E+04  4.87756E+04
 -1.95825E+04  3.27723E+04 -2.35571E+04  2.06066E+03 -4.39461E+03 -3.52622E+04  1.93077E+04 -4.13442E+04
  5.17817E+04 -1.15867E+04  3.29667E+04  2.67024E+04  2.00517E+04  4.63304E+04 -7.56643E+03  6.30644E+04
 -3.52082E+04  3.63941E+04 -4.39534E+04  1.33615E+04 -4.96449E+04 -2.11622E+04 -2.05075E+04 -4.40640E+04
  1.97005E+02 -3.82435E+04  3.38510E+04 -1.58832E+04  3.53917E+04  1.26027E+04 -3.28608E+02  2.40208E+04
 -1.05489E+04  2.19057E+03 -9.17215E+03 -8.45081E+03  2.26583E+03 -1.75513E+04  2.07647E+04  3.29549E+03
  1.47816E+04  2.91497E+04 -4.57632E+03  2.72828E+04 -2.36651E+04  1.46703E+04 -2.77755E+04 -2.16542E+03
 -2.45535E+04 -2.53444E+04 -1.03580E+04 -1.86831E+04  6.16351E+03 -2.52759E+04  1.85475E+04 -1.98810E+04
  3.13686E+04 -1.26268E+04  3.88097E+04  8.20275E+03  3.21224E+04  2.51148E+04  1.16708E+03  4.31579E+04
 -1.86889E+04  3.07680E+04 -3.13060E+04  1.10873E+04 -2.18751E+04 -5.61506E+03 -1.44708E+03 -1.28696E+04
  8.74878E+03  2.05331E+03 -7.20843E+03  5.56982E+03 -2.13547E+04  7.17378E+03 -1.87938E+04 -1.16247E+04
 -1.04894E+04 -2.17659E+04  8.64623E+03 -3.03364E+04  1.96964E+04 -2.02462E+04  2.06996E+04 -4.59197E+03
  1.05462E+04  2.48439E+04 -3.62511E+03  1.99191E+04 -1.56503E+04  1.41676E+04 -2.31049E+04 -9.47201E+03
 -1.40774E+04 -2.31680E+04  1.62860E+03 -2.92443E+04  1.78168E+04 -2.33396E+04  2.27215E+04 -5.95806E+03
  1.95361E+04 -6.56497E+02  1.93654E+04  3.29357E+03  1.08446E+04  2.18118E+03  1.86245E+04 -8.81069E+00
  2.70322E+04  5.72009E+03  2.35684E+04  2.13794E+04  2.05081E+04  3.23667E+04 -6.76529E+02  4.63200E+04
 -3.32334E+04  4.31040E+04 -3.73350E+04  2.03226E+04 -4.39772E+04 -4.75106E+03 -3.23092E+04 -2.73268E+04
 -1.76347E+04 -3.86802E+04  1.09071E+04 -3.18654E+04  2.67491E+04 -1.87006E+04  2.96388E+04  1.00147E+04
  3.05930E+03  2.08835E+04 -9.77933E+03  1.16909E+04 -2.16395E+04  3.39986E+03 -1.91572E+04 -1.11905E+04
  3.71395E+03 -2.31077E+04  6.08949E+03 -1.35181E+04  1.46517E+04 -2.71728E+03  7.77087E+03  5.23077E+03
 -1.36165E+04  8.06377E+03 -1.36033E+04 -1.03671E+04  1.35976E+03 -2.08724E+04  1.59314E+04 -1.74037E+04
  2.45961E+04 -1.11619E+04  3.29491E+04  3.02544E+03  3.05432E+04  2.70903E+04  8.04410E+03  3.46549E+04
 -4.23098E+03  2.69957E+04 -1.87809E+04  2.67349E+04 -2.56955E+04  6.85759E+03 -1.73662E+04 -3.69382E+03
 -3.14239E+03 -9.18930E+03 -4.30129E+03 -6.46270E+03 -7.26374E+03  1.21568E+02 -3.76823E+03  5.23130E+03
 -9.11803E+03 -3.72176E+03 -1.30578E+04 -7.98061E+03 -2.86111E+03 -2.26060E+04  8.31410E+03 -2.03143E+04
  1.04243E+04 -9.28277E+03  1.14496E+04  5.15995E+03 -1.01753E+03  7.93906E+03 -3.74975E+03 -1.21586E+03
 -5.15346E+03 -1.99576E+04  3.77617E+03 -2.05778E+04  7.78557E+03 -2.08489E+04  2.20472E+04 -5.04744E+03
  2.03589E+04  6.56093E+03  2.08573E+04  9.48023E+03  1.69388E+03  1.72909E+04 -7.40020E+03  1.87589E+04
 -9.33834E+03  6.92241E+03 -5.18123E+03 -5.53917E+03  5.17464E+03 -4.20309E+03  4.84451E+03 -5.47154E+03
  5.34061E+03  1.05641E+04 -2.49084E+03  1.31814E+04 -1.11935E+04  9.15772E+03 -2.42166E+04  6.01809E+02
 -1.28776E+04 -1.22688E+04  6.88331E+02 -1.14691E+04  1.27659E+04 -5.84316E+03  1.00244E+04  6.46840E+03
  9.50409E+03  1.26601E+04 -8.89090E+03  8.21112E+03 -1.43895E+04  1.03916E+04 -1.49307E+04 -3.51345E+03
 -8.97682E+03 -2.23749E+04 -3.15932E+03 -1.68837E+04  9.27988E+03 -6.55196E+03  2.09202E+04  5.42238E+03
  4.16961E+03  1.08312E+04 -4.26962E+03  1.81267E+04 -1.23483E+04  4.75060E+03 -7.04138E+03 -1.97530E+03
 -1.31178E+04 -1.47112E+04 -3.26942E+03 -1.40471E+04  8.07529E+03 -1.35607E+04  7.49531E+03 -5.99491E+02
  3.80002E+03  5.51622E+03 -2.08943E+03 -1.55430E+03  2.14256E+03 -6.81259E+03  1.59710E+03 -1.21437E+04
  1.29738E+04 -2.09887E+03  1.26084E+04  5.43335E+03  2.15007E+04  1.11095E+04  8.51865E+03  2.31326E+04
 -1.58091E+03  2.68984E+04 -2.14461E+04  1.98175E+04 -2.75151E+04  4.50546E+03 -2.61548E+04 -1.14594E+04
 -1.09586E+04 -1.91118E+04 -2.14873E+03 -1.78278E+04  7.91695E+03 -1.01660E+04  7.23213E+03 -8.89106E+03
  3.13927E+03 -1.61401E+03  3.40008E+03 -3.34866E+03  5.59325E+03 -2.82720E+03  9.41287E+03 -3.91187E+03
  1.55663E+04 -1.15690E+03  4.07280E+03  1.10008E+04 -6.90076E+03  1.47163E+04 -1.26332E+04  9.78126E+03
 -1.62864E+04 -2.53384E+02 -1.14397E+04 -4.97144E+03  3.76287E+02 -2.30283E+04  3.25261E+03 -1.61868E+04
  2.10293E+04 -7.76027E+03  1.54680E+04  8.06135E+03  1.22074E+04  6.31392E+03  2.92283E+03  2.02045E+04
 -1.14434E+04  1.72867E+04 -6.00477E+03  2.76055E+03 -1.34934E+04 -3.21583E+03 -4.58443E+03  3.78563E+03
 -2.09805E+02 -4.33979E+03 -8.24228E+02  1.71551E+03 -4.86144E+03  4.91479E+03 -1.22057E+04 -2.27451E+03
 -3.99644E+03 -1.57925E+04 -9.46289E+01 -2.31430E+04  7.56751E+03 -1.25800E+04  1.52770E+04 -9.28863E+03
  1.29476E+04  2.40221E+02  1.12894E+03  1.72798E+04 -1.83845E+03  1.37339E+04 -1.12178E+04  1.00467E+04
 -1.27251E+04  5.34952E+02 -1.73872E+04 -3.18137E+03 -1.50336E+03 -1.41257E+04  1.45569E+03 -1.16727E+04
  1.34876E+04 -2.12525E+03  4.33033E+03  5.87920E+03  7.48690E+02  6.42029E+03 -2.16078E+03 -1.53752E+02
  4.62874E+03  1.22943E+03  3.63900E+03  3.46269E+03  5.97968E+03  3.74024E+03  2.07946E+03  6.50434E+03
 -5.71103E+03  6.08647E+03 -1.06522E+04  1.94604E+04 -1.89761E+04  6.38377E+03 -1.27330E+04 -4.98728E+02
 -1.06114E+04 -1.70348E+04  5.28987E+03 -1.90896E+04  1.61563E+04 -1.52771E+04  8.22606E+03  2.21301E+03
  7.20881E+03 -1.03192E+02  2.19218E+03  1.19386E+04 -3.60677E+03  3.58582E+03 -7.97991E+03  4.67245E+03
 -1.22012E+03 -4.72718E+03  5.24548E+03 -1.06382E+04  5.25398E+03 -8.06245E+03  1.55669E+03  5.17835E+03
  5.04288E+03  9.76214E+02  5.81057E+03  2.23601E+02 -3.02094E+03  1.55084E+03  5.03075E+03  1.25347E+03
  5.64381E+03  7.25942E+02  7.46723E+03 -3.19579E+03  5.67344E+03  3.29429E+03 -2.63478E+03  7.13325E+03
 -9.61329E+03  1.00877E+04 -9.99673E+03  2.61191E+03 -1.22316E+04 -3.23262E+03 -7.45867E+02 -4.62242E+03
  2.17209E+03 -7.41037E+03  5.71588E+03 -5.60136E+03  2.45299E+03  1.74902E+03 -1.16435E+04  7.17218E+03
 -6.31135E+03 -6.53855E+02 -1.05721E+04 -7.39992E+03 -2.93494E+03 -1.10770E+04 -1.11772E+03 -9.05330E+03
  9.65097E+03 -7.01360E+03  3.27122E+03 -2.49301E+03  4.19106E+03  1.83478E+03 -7.48217E+03  8.02860E+01
 -2.20729E+03  2.27936E+03 -3.70788E+02 -2.20458E+03 -3.39047E+03 -4.14172E+03  8.42241E+03 -7.97955E+03
  1.00313E+04 -3.79160E+03  5.96681E+03  2.70305E+03  7.28940E+02  6.67830E+03 -2.09345E+03  8.82092E+03
 -1.12062E+04  1.09188E+04 -9.62139E+03  3.68322E+03 -6.00844E+03 -6.57269E+03  1.22357E+03 -9.30703E+03
  6.20585E+03 -8.69207E+03  5.91951E+03  4.25907E+03  3.80422E+03  6.81458E+03 -5.07268E+02  5.25922E+03
 -7.09526E+03 -2.10140E+03 -1.70848E+03  5.23738E+03  2.45066E+02 -4.86507E+03 -2.45729E+03  2.70501E+03
  7.11430E+02  4.15524E+03 -4.58798E+03 -4.42908E+02 -4.72698E+03 -3.38970E+03 -5.53593E+03 -5.20121E+03
  1.03547E+03 -1.23512E+04  4.89556E+03 -1.72803E+04  7.38830E+03 -1.41285E+04  1.66027E+04 -1.42880E+03
  1.71141E+04  2.68089E+03  9.32802E+03  1.38309E+04  3.68559E+03  9.85846E+03 -4.19807E+03  9.93899E+03
 -3.03381E+03 -3.95216E+02 -4.60966E+03 -2.82353E+03 -8.79650E+03 -3.22460E+03  6.50089E+02  1.22034E+03
 -5.51713E+03  6.29498E+03  2.60979E+03  2.77137E+03 -2.00440E+03 -3.11068E+03  3.88993E+02  5.60836E+03
  4.92632E+03  8.38477E+02  8.33319E+03 -3.38030E+03  1.01224E+04  1.18880E+03  2.90684E+03  1.11957E+04
 -3.59575E+03  1.20130E+04 -1.20567E+04  1.09275E+04 -1.76700E+04 -5.32514E+03 -8.66320E+03 -1.26386E+04
 -2.35352E+03 -1.34955E+04  7.81860E+03 -9.69708E+03  8.05416E+03 -2.00943E+03  1.25888E+04 -2.47934E+03
  5.99792E+03  6.05440E+01 -5.67358E+03  1.66009E+03  4.52212E+03  2.39479E+03  5.75699E+03 -6.90537E+03
  8.88386E+01 -6.59591E+02  4.93442E+03  2.71482E+02  5.58696E+03  8.87998E+03  3.59753E+03  7.21277E+03
 -4.89183E+03  4.68824E+03 -1.19591E+04  1.04137E+02  3.18402E+03 -6.83680E+03  4.01890E+03 -1.14433E+04
  5.09291E+03 -1.36833E+04  1.14826E+04  3.15893E+03  9.69130E+03  7.10124E+03  6.52097E+03  3.61570E+03
 -3.17718E+03  6.66425E+03 -1.95363E+03  1.00296E+04  1.01092E+03  1.68666E+03 -4.71206E+03  7.64664E+02
 -1.90930E+03 -4.14638E+03 -5.18975E+03 -7.75094E+02 -7.30231E+03 -4.61086E+03  2.11680E+02 -5.01408E+02
 -1.75304E+03 -3.98930E+03 -4.28993E+03 -9.52535E+03  6.60700E+03 -6.65569E+03  8.24933E+03 -3.60898E+03
 -2.34730E+03  6.78461E+03  4.00045E+03  4.26287E+03 -4.79406E+03  7.43847E+03 -5.47169E+03  7.79375E+03
