 $NMID ID='MM_0lb_SNR50_7hz_g45_77.RAW', FMTDAT='(8E13.5)'
 TRAMP=1., VOLUME=1. $END
  3.07596E+05  1.85630E+03  3.40826E+05  2.50187E+05  8.86868E+04  3.38522E+05 -1.30509E+05  2.51354E+05
 -1.84601E+05  8.34840E+04 -1.16206E+05 -3.78049E+04  1.15028E+03 -4.63323E+04  4.85211E+04 -1.67490E+03
  4.27209E+04  5.50013E+04 -1.65024E+04  7.22443E+04 -6.55116E+04  6.50436E+04 -8.29411E+04  3.61343E+04
 -7.83781E+04 -1.03173E+03 -5.93997E+04 -5.87608E+04 -1.55121E+04 -7.07141E+04  3.04305E+04 -4.59785E+04
  4.61769E+04  2.66720E+03  1.17699E+04  4.87430E+04 -4.33274E+04  5.15227E+04 -7.00610E+04  3.87569E+02
 -5.61716E+04 -5.76747E+04  3.08431E+03 -8.07835E+04  3.42978E+04 -5.41643E+04  4.68366E+04 -2.08813E+04
  4.18005E+04  1.39298E+04  3.49657E+04  2.45697E+04  1.49245E+04  2.73926E+04 -7.16857E+03  3.24224E+04
 -2.75110E+04  6.96943E+03 -1.28398E+04 -1.10886E+03  1.21855E+04 -5.25459E+03  2.40658E+04  1.91187E+04
  7.40422E+03  3.70473E+04 -4.02158E+04  4.53047E+04 -7.02514E+04  8.29607E+03 -6.62440E+04 -4.34239E+04
 -6.40252E+03 -6.75775E+04  3.97749E+04 -4.04609E+04  5.93563E+04 -3.90270E+01  3.35846E+04  3.25727E+04
 -4.11748E+03  3.41758E+04 -3.41510E+04  2.44079E+04 -3.27847E+04 -1.21088E+04 -2.37387E+04 -1.82679E+04
  3.16028E+03 -1.23582E+04  2.17561E+03 -2.62581E+04  1.54592E+04 -2.59137E+04  1.76489E+04 -1.16212E+04
  1.42100E+04  3.74208E+03 -7.38891E+03  7.09827E+03 -2.78618E+04 -3.45982E+03 -1.10640E+04 -3.45089E+04
  2.60493E+04 -4.92357E+04  5.55439E+04 -1.76493E+04  5.07841E+04  2.35691E+04  1.79595E+04  5.07714E+04
 -1.34623E+04  3.33869E+04 -2.75815E+04  4.03884E+03 -1.34306E+04 -3.23451E+04  2.62115E+04 -3.81279E+04
  4.38129E+04 -1.58463E+04  4.03092E+04  1.95761E+04  2.02451E+04  6.00920E+04 -8.71636E+03  6.11867E+04
 -3.83100E+04  4.45693E+04 -5.09992E+04  1.01575E+04 -4.99217E+04 -1.85636E+04 -2.71609E+04 -5.12249E+04
  1.14369E+04 -4.55702E+04  3.19739E+04 -1.65328E+04  3.33701E+04  1.25400E+04  1.23803E+04  2.06576E+04
 -2.05900E+04  4.02619E+03 -1.56798E+04 -6.61807E+03  1.46919E+04 -1.11097E+04  2.06946E+04  4.85079E+03
  8.83774E+03  1.92301E+04 -5.11698E+03  2.66612E+04 -2.57106E+04  2.14621E+04 -2.28423E+04  1.69743E+03
 -1.98108E+04 -2.27718E+04 -3.59362E+03 -2.11681E+04  1.18613E+04 -2.42781E+04  2.32982E+04 -3.19055E+04
  3.31542E+04 -1.24043E+04  4.23429E+04  3.48364E+03  2.71198E+04  2.62881E+04  9.71075E+03  4.02451E+04
 -2.74304E+04  3.42401E+04 -1.89098E+04  1.82193E+04 -2.31158E+04 -6.12170E+03 -9.34796E+03 -1.93058E+04
 -4.90588E+02 -4.68876E+02 -8.01674E+03  1.22252E+04 -1.95179E+04  9.42378E+03 -1.77413E+04 -6.42961E+03
 -1.14950E+04 -1.98165E+04  1.06732E+04 -3.47036E+04  2.17898E+04 -2.20183E+04  2.10843E+04 -5.86460E+03
  1.59284E+04  1.47779E+04  3.21587E+03  2.27677E+04 -1.72433E+04  1.11984E+04 -2.54075E+04 -3.45569E+02
 -1.18163E+04 -1.74042E+04 -1.85013E+03 -2.84116E+04  1.93253E+04 -2.61865E+04  2.77045E+04 -1.17075E+04
  2.58615E+04  1.10308E+03  1.77256E+04  9.38625E+03  6.84457E+03  1.55055E+03  1.45752E+04 -8.08312E+03
  2.90948E+04  1.03225E+04  3.59400E+04  2.10224E+04  2.41514E+04  3.90143E+04 -1.53981E+02  4.68745E+04
 -3.09607E+04  3.91732E+04 -4.35114E+04  1.93940E+04 -5.04408E+04 -6.83477E+03 -3.88985E+04 -2.79333E+04
 -1.52830E+04 -3.78360E+04  1.05937E+04 -3.76447E+04  3.07293E+04 -1.21593E+04  2.21115E+04  7.04865E+03
  3.35384E+03  2.03178E+04 -1.28354E+04  1.94020E+04 -2.88006E+04  8.38542E+02 -1.96134E+04 -1.19147E+04
 -2.99756E+03 -2.07751E+04  1.00953E+04 -1.36251E+04  1.51466E+04 -5.00468E+03  2.27625E+03  7.41286E+03
 -8.58227E+03 -5.02066E+02 -1.71846E+04 -6.35539E+03 -2.26235E+03 -1.91455E+04  1.49666E+04 -1.51854E+04
  2.33437E+04 -7.91420E+03  2.84543E+04 -2.36330E+02  2.36587E+04  2.60913E+04  1.06774E+04  3.79134E+04
 -1.04025E+04  2.99754E+04 -2.40218E+04  2.01208E+04 -2.63681E+04  2.70017E+03 -1.60145E+04 -4.52318E+03
 -2.18697E+03 -1.00151E+04 -3.18349E+02 -7.32040E+03 -4.11578E+03  1.10150E+04 -1.24847E+04  6.85381E+03
 -1.40157E+04 -8.15057E+02 -1.65291E+04 -1.75641E+04 -2.64236E+03 -2.11755E+04  1.56583E+03 -1.41979E+04
  1.49800E+04 -1.56756E+04  1.40150E+04  6.86040E+03 -5.61087E+03  1.71754E+04 -4.15993E+03 -3.21618E+03
 -9.98722E+03 -1.23744E+04  1.59272E+03 -2.00174E+04  8.18825E+03 -1.95438E+04  2.31030E+04 -1.49276E+04
  1.51565E+04  3.42181E+03  2.18897E+04  1.27762E+04  1.08137E+03  2.43574E+04 -6.64263E+03  1.38473E+04
 -1.69801E+04  3.47034E+03 -8.81370E+03 -4.77019E+03  2.31549E+03 -1.97829E+03  7.81183E+03 -5.38416E+03
  1.07447E+04  2.41311E+03 -3.09156E+03  1.53314E+04 -9.50574E+03  1.29613E+04 -1.78964E+04  2.45830E+03
 -1.41218E+04 -3.76492E+03 -3.90179E+02 -1.78998E+04  1.29022E+04 -8.20499E+03  3.77250E+03  4.49186E+03
  4.28803E+03  1.17606E+04 -9.38109E+03  1.87206E+04 -1.70482E+04  4.80731E+03 -1.41767E+04 -5.43363E+03
 -5.77850E+03 -1.98091E+04  3.84743E+03 -2.18141E+04  1.12391E+04 -6.24194E+03  2.18101E+04  3.03546E+03
  1.27134E+04  1.20199E+04 -5.19937E+02  1.98381E+04 -1.37356E+04  8.16269E+03 -1.48886E+04 -5.67367E+03
 -3.91719E+03 -1.04549E+04 -3.86116E+03 -1.92618E+04  3.16251E+03 -1.11158E+04  9.45664E+03 -1.71528E+03
  5.03455E+02  2.47695E+03 -3.30840E+03 -1.85722E+03  4.84006E+03 -1.64328E+03 -4.46508E+03 -1.11046E+04
  1.96992E+04 -8.95325E+03  2.13725E+04  2.44436E+02  2.06646E+04  9.49923E+03  1.86376E+04  2.36838E+04
 -4.75651E+03  2.91908E+04 -2.76051E+04  1.53047E+04 -3.32614E+04 -3.27124E+03 -2.48304E+04 -1.29924E+04
 -1.10195E+04 -1.85882E+04  5.34201E+02 -1.33391E+04  4.59700E+03 -5.99012E+03  3.45703E+03 -6.67196E+03
  8.47896E+03 -1.59180E+03  1.27865E+03 -8.05977E+03  8.93011E+03 -4.29459E+03  3.47954E+03 -2.85137E+02
  1.22113E+04  7.45081E+03  5.41933E+03  1.52853E+04  1.64879E+03  1.05829E+04 -9.72487E+03  9.93056E+03
 -1.93698E+04 -6.46431E+03 -1.52841E+04 -4.13154E+03 -1.31571E+03 -2.17550E+04  1.43775E+04 -1.71814E+04
  1.40729E+04 -2.15523E+04  2.35022E+04  1.00142E+04  1.53782E+04  1.68107E+04  9.45659E+02  2.72881E+04
 -6.75896E+03  1.49226E+04 -1.33869E+04  3.99549E+03 -1.15813E+04 -8.65552E+03 -3.19721E+03 -5.79465E+03
 -7.23280E+03 -4.03059E+03  2.07559E+03  5.89419E+03 -9.46876E+03  4.67646E+03 -1.19426E+04 -8.78785E+03
 -7.12778E+03 -1.74294E+04  1.84315E+03 -2.01312E+04  8.40044E+03 -1.27455E+04  1.88260E+04 -8.34702E+03
  1.49201E+04  1.07402E+04  7.14176E+03  1.84746E+04 -1.13179E+04  1.22239E+04 -1.77735E+04  1.63215E+04
 -1.52821E+04 -1.10449E+03 -1.10558E+04 -1.02708E+04 -6.43928E+02 -1.44299E+04  2.63278E+03 -1.92728E+04
  1.39556E+04 -1.13983E+03  2.92012E+03  2.48508E+03 -4.38905E+03  1.11876E+04  2.48031E+03  1.45803E+03
  4.12291E+03 -1.00751E+03 -5.56622E+03 -5.93603E+03  9.96849E+03  3.48708E+03 -1.99866E+02  1.08041E+04
  9.83429E+02  2.01544E+04 -1.07499E+04  2.05267E+04 -1.49092E+04  4.70667E+03 -2.36952E+04 -7.19963E+03
 -1.20425E+04 -1.56773E+04  4.16385E+03 -1.99494E+04  8.10379E+03 -1.21287E+04  1.47072E+04 -2.48412E+03
  8.81594E+03  5.39215E+03  4.34510E+03  6.71531E+03 -5.96360E+03  3.20971E+02 -5.97062E+03 -3.00690E+03
 -2.59398E+03 -6.83865E+03  7.73628E+03 -7.27997E+03  8.65784E+03 -7.56165E+03  8.76106E+03 -1.05116E+03
  4.00440E+03  3.63728E+03  2.11402E+03  4.60998E+02 -2.14795E+03  3.50704E+03  1.19425E+03  3.30969E+02
  7.21218E+02 -1.80551E+03  3.85937E+03  4.67607E+03  3.87850E+03  4.27673E+03  6.39670E+03  1.29142E+04
 -1.15354E+04  7.76052E+03 -1.08166E+04  1.95246E+03 -2.40447E+03 -7.70497E+03  2.56887E+03 -7.82453E+03
  4.49628E+03 -9.99772E+03  5.98902E+03 -1.17106E+03  5.29878E+03  4.26967E+03  1.28731E+03  3.76045E+03
 -1.71050E+02  7.11492E+03 -9.50439E+03 -4.40684E+03  1.20478E+03 -9.88328E+03  3.38068E+03 -1.47427E+04
  8.36386E+03 -6.00933E+03  1.18284E+04 -8.99612E+02  7.62150E+03  1.18178E+03 -3.78009E+03  5.49476E+03
 -3.43751E+03 -3.33363E+03 -6.62082E+03 -9.28619E+03  2.90472E+03 -2.84990E+03  4.98904E+03 -9.22895E+03
  1.38443E+04 -1.66195E+02  1.41045E+04  1.52528E+04  4.21826E+03  1.36303E+04 -7.03613E+03  1.08021E+04
 -1.14926E+04 -1.67119E+03 -1.43432E+04 -6.49565E+03 -3.86540E+03 -7.49554E+03  7.44832E+03 -4.76159E+03
  7.24229E+02 -6.77623E+03  4.60211E+03  1.28061E+03 -8.92878E+02  8.51468E+03 -6.19160E+03  7.99364E+03
 -7.58806E+03 -1.16909E+03 -5.41588E+03  2.65580E+03  2.07259E+02 -2.38839E+03  2.10128E+03 -1.88758E+03
 -3.19510E+03  1.37700E+03 -9.27910E+03  1.02898E+04 -1.32002E+04 -2.72309E+03 -9.03559E+03 -9.86334E+03
 -8.00794E+03 -2.36642E+04  8.71766E+03 -2.64891E+04  1.05131E+04 -1.84681E+04  1.94304E+04 -6.74574E+03
  1.41959E+04 -1.67349E+03  1.48398E+04  9.76491E+03 -5.50674E+03  1.50710E+04 -5.56706E+03  1.01408E+04
 -4.69684E+03  5.74497E+03 -9.23484E+03 -5.05995E+01  4.36853E+03 -4.90635E+03  7.56192E+02 -6.34421E+03
  2.91449E+03 -2.11224E+03  4.26215E+02 -2.46978E+03  1.86782E+03 -3.68201E+02 -1.99551E+03 -7.62147E+03
  4.98697E+02 -1.88450E+03  1.41503E+04  4.16743E+03  9.84375E+03  1.97212E+03  2.00837E+03  1.11700E+04
 -7.81526E+03  2.46950E+04 -2.25947E+04  8.22168E+03 -2.15934E+04 -7.29945E+03 -1.35406E+04 -1.27794E+04
 -4.17168E+03 -1.65207E+04 -1.54736E+03 -9.73605E+03  7.73420E+03 -2.30298E+03  3.34962E+03 -5.94502E+03
  8.77862E+03  4.41705E+03 -2.75127E+03  4.20424E+00 -5.17444E+03 -3.13237E+03 -2.90493E+03 -7.43403E+03
  3.03623E+03 -4.14186E+03  5.36947E+03  2.76092E+03  2.85049E+03  4.04459E+03  3.75391E+02  8.18275E+03
 -1.08295E+03  1.53874E+04 -1.56270E+04  1.62361E+03 -6.41821E+03 -2.74424E+03 -2.78316E+03 -1.46866E+04
  6.19562E+03 -1.23568E+04  8.14531E+03 -2.51609E+02  1.27626E+04 -3.00953E+03  3.70645E+03  1.81863E+03
  3.95716E+03  2.17167E+04 -1.23162E+04  5.63428E+03 -1.48663E+04  6.92684E+03 -1.12024E+04 -2.06243E+03
 -2.64362E+03 -1.83635E+03 -9.31906E+03  3.01815E+03  7.80247E+02 -4.29101E+03  3.83025E+02 -2.85446E+03
 -3.93557E+03 -1.00779E+04  1.85076E+03 -1.45400E+04  5.43315E+03 -8.85439E+03  9.89516E+03 -4.68816E+03
  3.25450E+03  4.96095E+03  4.20126E+03  6.74408E+03 -2.35217E+03  1.30210E+04 -5.93965E+03  5.63897E+03
