 $NMID ID='MM_0lb_SNR50_10hz_g40_94.RAW', FMTDAT='(8E13.5)'
 TRAMP=1., VOLUME=1. $END
  3.10579E+05 -5.24233E+03  3.37498E+05  2.52219E+05  8.47042E+04  3.43303E+05 -1.34913E+05  2.47820E+05
 -1.89706E+05  8.33180E+04 -1.08204E+05 -3.10179E+04  1.09022E+03 -5.82989E+04  4.94509E+04  4.52466E+03
  3.74424E+04  5.24720E+04 -1.45339E+04  7.27468E+04 -5.90742E+04  6.64818E+04 -8.39781E+04  3.06090E+04
 -8.21010E+04 -1.51349E+04 -5.67974E+04 -5.61713E+04 -1.92830E+04 -7.15626E+04  2.95822E+04 -4.82756E+04
  4.37064E+04 -3.56896E+03  1.52183E+04  4.44882E+04 -3.30622E+04  4.85961E+04 -6.50605E+04  4.03978E+03
 -5.62224E+04 -5.67637E+04 -1.14056E+04 -8.18884E+04  3.39711E+04 -5.56713E+04  4.83011E+04 -1.17157E+04
  4.13591E+04  9.42436E+03  3.11449E+04  2.74866E+04  1.79726E+04  2.82716E+04 -4.88944E+03  2.80796E+04
 -2.35752E+04  1.33984E+04 -1.97644E+04 -8.66926E+03  6.15383E+03 -7.22952E+03  2.43546E+04  1.19526E+04
  1.32655E+04  3.87691E+04 -2.95648E+04  3.44718E+04 -6.11020E+04 -2.40069E+03 -5.70830E+04 -4.61592E+04
 -9.74249E+03 -6.55124E+04  3.57011E+04 -4.98130E+04  5.62765E+04 -2.51928E+03  3.20710E+04  3.24826E+04
 -5.13040E+03  3.87743E+04 -2.97529E+04  1.90627E+04 -3.49002E+04 -3.09063E+02 -1.53232E+04 -1.28478E+04
 -1.03905E+04 -2.13309E+04 -4.44102E+03 -2.01966E+04  6.45927E+03 -1.37801E+04  1.68207E+04 -1.47876E+04
  1.34009E+04  2.18593E+03 -1.15957E+04  1.18536E+04 -2.08254E+04 -5.37974E+03 -8.56195E+03 -3.53561E+04
  2.17343E+04 -4.17068E+04  5.03958E+04 -2.05096E+04  4.61401E+04  2.23775E+04  1.77444E+04  4.02526E+04
 -1.37674E+04  3.36069E+04 -2.95613E+04  2.34512E+03 -1.79110E+04 -2.94541E+04  2.32638E+04 -3.39042E+04
  4.58236E+04 -1.26336E+04  3.66625E+04  2.30565E+04  1.32963E+04  4.03045E+04 -1.13360E+04  5.86884E+04
 -3.64833E+04  3.68661E+04 -5.06356E+04  1.35220E+04 -4.74791E+04 -2.04259E+04 -3.01928E+04 -3.99003E+04
  9.73364E+03 -3.78358E+04  2.92081E+04 -1.64679E+04  3.22735E+04  1.52404E+04  4.15681E+03  1.78699E+04
 -1.08868E+04  9.52098E+03 -1.19865E+04 -5.40373E+03  5.49532E+03 -1.09665E+04  2.27927E+04  7.59405E+03
  1.76185E+04  2.00879E+04 -2.90083E+03  2.47246E+04 -2.88052E+04  1.57845E+04 -2.99388E+04  1.01240E+03
 -2.48653E+04 -1.83110E+04 -9.73385E+03 -2.62016E+04  3.86945E+03 -2.91980E+04  1.63495E+04 -2.27214E+04
  3.04734E+04 -1.17389E+04  3.84373E+04  3.73186E+03  2.78480E+04  3.15143E+04  3.12560E+03  3.52381E+04
 -2.20123E+04  2.56845E+04 -2.27395E+04  1.22003E+04 -1.49001E+04 -1.09970E+04 -3.55512E+03 -9.89217E+03
 -1.89051E+03 -2.45904E+03 -9.32180E+02  3.52845E+03 -2.10184E+04  7.79465E+03 -1.82152E+04 -3.08041E+03
 -7.20461E+03 -2.53998E+04  2.21137E+03 -2.27245E+04  1.80468E+04 -2.11738E+04  1.81796E+04  2.08085E+03
  1.12853E+04  1.64189E+04 -4.92518E+03  2.52389E+04 -1.45834E+04  1.20518E+04 -2.22029E+04 -2.40794E+03
 -1.80528E+04 -1.87999E+04  4.31358E+02 -2.62646E+04  1.59500E+04 -2.12930E+04  2.03241E+04 -1.65558E+04
  1.64295E+04  6.65094E+03  1.41137E+04  3.37207E+03  9.77638E+03 -1.35139E+03  9.14693E+03 -3.99922E+02
  2.62839E+04  2.19275E+03  2.43964E+04  1.07049E+04  1.70492E+04  3.82465E+04 -7.23830E+02  3.99884E+04
 -2.54741E+04  3.46744E+04 -3.90479E+04  2.07247E+04 -4.02001E+04 -2.59436E+03 -3.37349E+04 -2.42989E+04
 -1.65422E+04 -3.13699E+04  1.03593E+04 -3.13073E+04  2.43279E+04 -1.58268E+04  2.87229E+04  1.03926E+04
  1.08620E+04  2.04015E+04 -1.41856E+04  1.12658E+04 -1.66095E+04  1.43850E+03 -1.36275E+04 -8.61241E+03
 -1.08094E+03 -2.26063E+04  1.20879E+04 -1.18502E+04  3.49723E+03 -3.89519E+03  3.53717E+03  6.00313E+03
 -7.84947E+03  4.46174E+03 -1.21273E+04 -6.40408E+03 -8.92393E+02 -1.76505E+04  8.64847E+03 -2.18445E+04
  2.02212E+04 -5.06454E+03  2.33078E+04  4.01909E+03  2.50012E+04  1.70656E+04  8.27157E+03  2.13955E+04
 -1.81985E+03  2.20951E+04 -1.71248E+04  1.21920E+04 -2.13224E+04  9.62294E+02 -1.99239E+04 -3.17857E+03
 -2.98549E+03 -5.37829E+03  2.40204E+03 -4.24017E+03 -2.82589E+03  7.20969E+03 -6.96489E+03  3.63629E+03
 -1.42061E+04  1.08952E+03 -1.54566E+04 -1.20490E+04 -5.22056E+03 -2.14588E+04 -1.32536E+03 -1.68401E+04
  1.29358E+04 -6.69653E+03  1.72065E+03  8.76323E+03  1.79121E+03  3.97367E+03 -6.71300E+03  4.38386E+03
 -3.13389E+03 -6.69482E+03  1.03312E+03 -6.77277E+03  9.25911E+03 -1.36254E+04  1.85958E+04 -9.87399E+03
  1.93756E+04  3.92851E+03  1.63927E+04  1.73262E+04  9.28446E+03  1.72757E+04 -9.23903E+03  1.62858E+04
 -1.23483E+04  5.00885E+03 -6.46387E+03 -3.38516E+03  3.23676E+03 -2.15741E+03  1.42731E+04 -1.50659E+03
  1.04735E+04  7.62135E+03  2.52786E+03  1.14599E+04 -8.78257E+03  1.21551E+04 -1.73302E+04 -4.59313E+02
 -1.00930E+04 -7.85406E+03  4.81625E+03 -9.83540E+03  6.53366E+03  2.89363E+03  1.19277E+04  1.15399E+03
  7.48533E+03  6.78783E+03 -9.49435E+03  6.23066E+03 -1.20386E+04  5.98716E+03 -1.17023E+04 -1.23962E+03
 -7.61538E+03 -1.65570E+04  7.63307E+03 -1.23458E+04  1.82009E+04 -1.32017E+04  1.55632E+04  3.01577E+03
  7.38541E+03  9.93645E+03 -2.61527E+03  1.22351E+04 -1.02317E+04  4.88425E+03 -1.40196E+04 -5.13570E+03
 -9.99265E+03 -8.46495E+03  1.71930E+03 -1.07295E+04  8.59369E+03 -5.41371E+03  2.55054E+03 -5.95432E+03
  8.36401E+03  3.27923E+01  3.97514E+03  1.63714E+03 -2.56164E+03 -7.54144E+03  9.14518E+02 -6.43422E+03
  1.16847E+04 -3.43463E+03  1.47642E+04  6.79157E+03  1.16623E+04  7.82459E+03  9.08356E+03  2.03714E+04
 -7.42117E+03  1.76214E+04 -2.40184E+04  1.76637E+04 -2.24083E+04  2.25691E+03 -1.85937E+04 -6.33114E+03
 -6.30522E+03 -1.39484E+04  2.25734E+02 -1.58060E+04  1.73295E+03 -5.49666E+03  5.39435E+03 -8.63416E+03
 -2.93504E+03  5.29432E+03  3.53721E+02 -1.01767E+03  8.70857E+03 -1.74148E+03  6.03171E+03  2.08922E+03
  7.76897E+03  1.22223E+02 -5.75043E+02  8.83715E+03 -5.80738E+03  1.33028E+04 -3.67855E+03  6.59542E+03
 -1.23662E+04 -9.12846E+02 -5.48340E+03 -9.21660E+03 -3.45444E+03 -1.23493E+04  9.39100E+03 -1.68935E+04
  1.96277E+04 -6.87877E+03  1.19507E+04  5.04796E+03  1.10794E+04  1.03201E+04  1.38300E+03  1.01576E+04
 -5.67008E+02  1.18201E+04 -6.16702E+03  1.51967E+03 -4.77575E+03 -2.92148E+03 -2.00522E+03 -3.70475E+03
 -7.43626E+03 -7.65231E+03  2.15071E+02  2.40148E+03 -3.98268E+03  3.96169E+03 -3.16918E+03 -8.14045E+02
 -3.34126E+03 -1.32880E+04  6.73184E+03 -1.26241E+04  9.52920E+03 -1.59217E+04  9.67399E+03 -3.71535E+03
  1.19415E+04  6.40714E+03  7.43410E+03  7.81128E+03 -7.67951E+02  1.60303E+04 -7.12234E+03  9.66247E+03
 -1.09850E+04 -1.18946E+03 -8.16010E+03 -4.38154E+03 -3.75830E+02 -1.14393E+03  1.08062E+03 -4.80594E+03
  5.92050E+03 -1.07915E+03  1.32356E+04 -1.48269E+02 -3.50870E+02  5.68466E+03 -1.25135E+03 -2.87446E+03
 -4.06201E+02 -7.17389E+02  7.96202E+03  4.37588E+03  5.86829E+03  7.50824E+03  4.74231E+03  9.82195E+03
 -3.00523E+03  1.55774E+04 -1.35738E+04  1.82986E+04 -1.10958E+04  8.33724E+03 -1.57481E+04 -5.14197E+03
 -2.09568E+03 -1.48225E+04  3.44602E+03 -8.22075E+03  1.10567E+04 -8.34949E+03  5.18981E+03 -5.85424E+02
  1.19053E+04  1.00343E+04 -6.70048E+02  1.50189E+03 -3.07086E+03  5.68959E+03 -3.88595E+03  4.73045E+02
 -5.64128E+03 -8.34919E+03  7.65746E+02 -3.53800E+03  7.29215E+03 -7.04512E+03  4.36645E+03 -1.99222E+03
  1.42399E+03  6.14546E+03 -4.90626E+02  2.35629E+03  4.54311E+03  3.37177E+03  3.33939E+03 -2.31457E+03
  2.49492E+03  3.11311E+03  2.97974E+03  8.49215E+03  6.82645E+03  3.75811E+03 -6.25700E+02  1.43065E+04
 -1.27059E+03  5.95274E+03 -8.42781E+03  3.71230E+03 -5.79560E+03 -6.30607E+02 -8.08231E+03 -1.06378E+04
  5.83998E+03 -8.54801E+03  4.18850E+03 -5.30317E+03  5.80560E+03  1.38009E+02  2.19786E+03  2.06592E+03
 -3.28130E+03 -2.25217E+03 -5.50215E+03 -9.69496E+02 -4.86441E+03 -5.20345E+03  2.09557E+02 -7.02216E+03
  1.67647E+03 -8.63433E+03  5.31929E+03 -5.96168E+02  1.63993E+03 -2.94993E+03 -2.33565E+03  6.51242E+03
 -9.61145E+03 -2.59813E+03 -4.70385E+03 -1.40217E+03  4.26306E+02 -4.90463E+03  7.57600E+03 -3.77182E+02
  7.44878E+03 -1.98996E+03  8.85546E+03  1.73136E+03  1.61560E+03  8.88109E+03 -3.25557E+03  3.50826E+03
 -1.23460E+04  2.16644E+03 -7.90837E+03 -4.27284E+02  9.50234E+02 -4.87543E+03 -2.11840E+03 -5.53874E+03
  4.68768E+03 -2.48000E+03  5.03118E+03  2.67203E+02  2.17810E+03  3.19122E+03 -6.86458E+03  3.96813E+03
  1.99329E+03 -3.42485E+03 -4.00371E+03  2.37986E+03 -7.31459E+02 -1.35467E+03  1.58726E+03 -2.27853E+03
 -4.10315E+03  2.96463E+03 -4.99211E+03  5.83480E+03 -9.93778E+03 -1.57358E+03 -1.17211E+04 -4.59129E+02
 -8.90206E+03 -8.23808E+03  4.43868E+03 -1.96246E+04  8.68840E+03 -1.23768E+04  1.23765E+04 -3.16318E+03
  9.27304E+03  1.03832E+03  1.68913E+03  6.91958E+03 -4.42008E+02  1.38124E+04 -4.33106E+03  3.27520E+03
 -1.03208E+04 -2.77403E+02 -5.25179E+03  1.04456E+03 -1.95341E+03  5.14354E+03 -3.68551E+03 -2.74102E+03
 -3.31809E+03  5.62939E+03  3.57288E+03  1.35049E+02 -2.79700E+03 -2.89063E+03  3.28857E+03 -5.10963E+03
  1.78545E+03 -1.03625E+03  3.77618E+03 -3.78519E+03  1.01842E+04  7.72026E+03  1.19648E+03  7.61234E+03
 -8.24286E+03  9.36420E+03 -3.88988E+03  9.86876E+03 -7.08512E+03  1.89365E+03 -8.92681E+03 -8.35532E+03
 -1.51038E+03 -1.03905E+04 -1.31649E+03 -8.36937E+03  2.37801E+03 -1.93301E+03  5.51641E+03 -9.87351E+03
  2.56069E+03  7.70085E+03  3.11672E+03 -1.94553E+03  2.00831E+03 -2.11254E+03  3.13151E+03 -1.57271E+02
 -7.53131E+02  2.21826E+03  1.90474E+03  4.94794E+02  1.73973E+03 -2.37404E+03  2.14300E+03  4.39351E+03
 -2.48364E+03  4.87409E+03 -4.19103E+03 -6.46626E+02 -2.21871E+03 -1.14133E+03 -1.84473E+03 -3.43981E+03
  8.15257E+03 -9.13478E+03  2.81382E+03 -3.86914E+03  4.41487E+03  4.39259E+03  6.31567E+03  8.29484E+02
  5.84140E+03  7.06585E+03  3.66071E+02  9.92837E+03  1.54921E+03  1.69368E+03  9.11900E+02  3.37256E+03
 -2.30986E+03  2.40345E+03 -1.10657E+03  4.67899E+03 -8.64173E+02  4.86316E+03 -2.69984E+03 -3.33592E+03
 -1.61533E+03 -1.15259E+02  6.72608E+03 -6.87060E+03  1.53150E+03 -7.00042E+03  3.53001E+03  1.23225E+03
  5.97207E+03 -1.93247E+03 -2.12921E+03  1.23483E+04 -7.33584E+03  3.08493E+03 -6.06773E+03  5.99732E+03
