 $NMID ID='MM_0lb_SNR50_14hz_g60_51.RAW', FMTDAT='(8E13.5)'
 TRAMP=1., VOLUME=1. $END
  3.12333E+05 -4.57423E+03  3.38351E+05  2.54286E+05  8.27908E+04  3.38654E+05 -1.33275E+05  2.52042E+05
 -1.93909E+05  8.45337E+04 -1.15419E+05 -3.50989E+04  1.34305E+03 -5.03765E+04  5.07150E+04 -2.10524E+03
  3.85548E+04  5.11948E+04 -1.85986E+04  7.59662E+04 -6.22663E+04  6.40984E+04 -8.54015E+04  3.12267E+04
 -7.92466E+04 -1.06360E+04 -5.28955E+04 -5.22232E+04 -1.42082E+04 -7.38036E+04  2.82460E+04 -4.76661E+04
  4.25083E+04  1.20439E+03  1.64947E+04  4.88009E+04 -3.33827E+04  4.80086E+04 -6.87072E+04 -3.28213E+03
 -5.17779E+04 -5.09325E+04 -2.67358E+03 -7.84722E+04  3.51852E+04 -5.60577E+04  4.76153E+04 -1.71032E+04
  4.15190E+04  1.18433E+04  3.08315E+04  2.66580E+04  1.43052E+04  3.03846E+04 -8.45861E+03  2.95912E+04
 -2.09455E+04  1.07683E+04 -1.96458E+04 -4.33046E+03  9.09643E+03 -8.63470E+03  2.26351E+04  1.00642E+04
  4.18646E+03  3.83655E+04 -2.94975E+04  3.54235E+04 -6.13402E+04  1.14221E+03 -5.89962E+04 -4.41025E+04
 -1.06737E+04 -6.27966E+04  3.75513E+04 -4.78715E+04  6.54257E+04  3.47744E+02  3.00387E+04  3.33585E+04
 -8.80940E+03  4.02536E+04 -3.03057E+04  1.76410E+04 -2.70642E+04 -6.44111E+03 -1.66807E+04 -9.21780E+03
 -9.74532E+03 -1.33043E+04 -1.29684E+01 -1.82765E+04  5.53831E+03 -2.43243E+04  1.53521E+04 -1.40507E+04
  8.17721E+03  8.20033E+03 -1.17446E+04  1.34630E+04 -2.49625E+04 -5.30853E+03 -9.47743E+03 -3.07372E+04
  2.64127E+04 -4.54835E+04  4.91890E+04 -1.58292E+04  4.63063E+04  2.29520E+04  1.46134E+04  4.58282E+04
 -1.71456E+04  3.51426E+04 -2.47156E+04 -1.54509E+03 -9.23926E+03 -2.80594E+04  2.04419E+04 -3.50153E+04
  4.10442E+04 -1.34370E+04  4.06004E+04  2.36273E+04  2.01941E+04  4.87871E+04 -1.21783E+04  4.86239E+04
 -3.63512E+04  3.49441E+04 -4.24289E+04  9.88588E+03 -4.18589E+04 -1.64786E+04 -2.35274E+04 -4.13327E+04
  8.43098E+03 -3.49593E+04  3.01526E+04 -1.44060E+04  2.92974E+04  9.25586E+03  3.51528E+03  2.13263E+04
 -1.21467E+04  1.02510E+04 -7.88043E+03 -1.30839E+04  1.07031E+04 -1.00297E+04  1.46754E+04  8.69269E+02
  1.59583E+04  2.16494E+04 -4.67056E+03  2.73436E+04 -2.13614E+04  8.36102E+03 -2.92002E+04 -8.27885E+03
 -1.92006E+04 -1.65920E+04 -7.17206E+03 -2.35722E+04  8.53558E+03 -2.34534E+04  1.02590E+04 -2.16119E+04
  2.61094E+04 -8.53697E+03  3.21821E+04  6.50611E+03  2.75263E+04  2.53396E+04  5.25119E+03  3.70022E+04
 -2.04421E+04  2.89588E+04 -2.76557E+04  1.39429E+04 -2.08676E+04 -1.22053E+04 -5.11815E+03 -1.34233E+04
  1.45440E+03 -2.79036E+03 -9.09400E+03  6.47033E+03 -1.97413E+04  7.15719E+03 -1.78167E+04 -1.02558E+04
 -1.31052E+04 -2.24315E+04  3.37911E+03 -2.19976E+04  1.25795E+04 -2.21694E+04  2.08860E+04 -4.02678E+02
  1.34412E+04  1.20594E+04  1.81371E+03  1.26544E+04 -1.43206E+04  8.71640E+03 -1.73764E+04 -5.74149E+03
 -1.67990E+04 -1.81233E+04  8.83077E+02 -2.41137E+04  1.17671E+04 -1.72322E+04  2.14456E+04 -1.09839E+04
  2.17220E+04 -2.21975E+03  8.58877E+03  4.16054E+03  7.21862E+03  1.17623E+03  1.00491E+04  4.21697E+03
  1.56218E+04  6.24995E+03  2.16771E+04  1.60296E+04  1.93928E+04  3.07015E+04 -7.76467E+03  4.18944E+04
 -1.39782E+04  3.19805E+04 -3.49859E+04  2.01331E+04 -3.12178E+04  3.76060E+02 -2.79879E+04 -2.04864E+04
 -1.67372E+04 -2.65123E+04  1.03706E+04 -2.42987E+04  2.53281E+04 -1.28447E+04  1.91108E+04  8.56267E+03
  7.79793E+03  1.59101E+04 -9.89657E+03  1.45600E+04 -1.30760E+04  3.49856E+03 -1.32739E+04 -1.04941E+04
  2.63918E+03 -1.76609E+04  6.87449E+03 -1.47464E+04  1.06558E+04 -2.15718E+03  1.02335E+03  7.43909E+03
 -3.04028E+03  9.31745E+03 -2.57879E+03 -1.79682E+03 -2.20591E+03 -1.40206E+04  1.04554E+04 -1.15310E+04
  1.87015E+04 -1.37819E+04  1.68447E+04  3.51728E+03  1.51958E+04  1.12943E+04  9.60175E+03  2.76951E+04
 -9.02504E+03  3.04528E+04 -1.37701E+04  1.12387E+04 -1.64070E+04  2.73352E+03 -9.29907E+03 -5.97788E+03
 -3.35541E+03 -2.52917E+03  3.47451E+03 -1.46418E+03  2.54625E+03  3.43737E+03 -3.09886E+03  4.90383E+03
 -1.49447E+04 -8.31557E+03 -1.00768E+04 -6.66417E+03 -7.86071E+03 -8.65381E+03  6.19362E+03 -1.72017E+04
  1.14617E+04 -5.98865E+03  9.50499E+03  3.59230E+03  1.88606E+03  4.15039E+03 -6.25056E+03 -5.77983E+03
 -5.57929E+03 -6.25664E+03 -1.82685E+03 -1.42604E+04  3.79045E+03 -9.42860E+03  1.65094E+04 -8.52697E+03
  1.59411E+04  4.26435E+03  9.18698E+03  7.95868E+03  2.03561E+03  1.32997E+04 -1.29766E+04  1.15696E+04
 -9.68430E+03  6.52070E+03 -4.02729E+03 -1.97901E+03  1.36346E+03 -5.04039E+03  9.73843E+03  5.93457E+02
  6.02005E+03  6.62827E+03 -3.79785E+02  1.31956E+04 -5.76061E+03  1.23584E+04 -1.67028E+04 -2.75290E+03
 -7.77955E+03 -1.14188E+04  3.40331E+02 -9.48670E+03  8.11265E+03 -3.24746E+03  5.46344E+03  8.54936E+02
  6.52634E+03  7.55282E+03 -7.61299E+03  4.03816E+03 -1.22465E+04  3.08551E+03 -1.01364E+04 -4.56904E+03
 -5.63300E+03 -1.25556E+04 -1.40538E+03 -1.30317E+04  8.24928E+03 -8.42413E+03  1.19680E+04  1.39204E+03
  3.45459E+03  9.97503E+03 -1.70995E+03  1.20103E+04 -6.75479E+03  1.03449E+04 -8.09227E+03  1.69630E+03
 -1.11502E+04 -1.21040E+04  9.48727E+02 -6.75644E+03  2.35101E+03 -6.36168E+03  5.45614E+03 -1.76368E+03
  8.68759E+02  2.28890E+03 -3.63776E+03  1.49953E+03  2.45500E+03 -6.65611E+03 -6.04853E+01 -8.05168E+03
  8.83349E+03 -4.12911E+03  7.67023E+03  2.07859E+03  1.22320E+04  8.09046E+03  7.07747E+03  8.33237E+03
 -4.32132E+03  1.48486E+04 -1.44580E+04  1.52852E+04 -2.19916E+04 -8.04534E+02 -1.58541E+04 -8.57021E+03
 -8.47478E+03 -1.33379E+04  5.70247E+02 -1.14951E+04  1.21761E+03 -5.86761E+03  2.75492E+03  2.89773E+03
  5.92809E+03  1.34162E+03 -8.01684E+02 -7.96997E+03  4.17028E+03 -6.86466E+03  4.57198E+03 -2.95840E+03
  2.34858E+03  4.58213E+03  2.69945E+03  3.41646E+03 -1.65974E+03  7.71812E+03 -1.22324E+04  3.94582E+03
 -3.83571E+03  3.52130E+03 -3.47368E+03 -6.47153E+03  2.80731E+03 -1.10412E+04  5.97997E+03 -6.12063E+03
  5.24621E+03 -8.95877E+03  1.03239E+04  1.63379E+03  1.24469E+04  8.40886E+03  2.90032E+03  1.19880E+04
 -3.61589E+03  1.23082E+04 -1.07316E+04  3.36769E+03 -3.92979E+03  9.82813E+01  4.30762E+02 -5.50968E+03
 -9.28331E+02 -2.14013E+03 -3.78854E+03 -4.16164E+02 -4.99014E+03 -5.45631E+02 -6.39055E+03 -1.73192E+03
 -6.36908E+03 -4.97734E+03 -2.23685E+03 -1.03987E+04  3.28780E+03 -7.07852E+03  1.05935E+04 -4.62223E+03
  1.21761E+04  1.75354E+03  1.08308E+02  5.87169E+03  1.01466E+03  6.85855E+03 -8.82526E+03  7.08003E+03
 -9.61562E+03  5.83964E+03 -9.31352E+03 -5.04565E+03  3.27938E+02 -1.33578E+04  6.05829E+03 -6.51684E+03
  5.44151E+03 -2.08752E+03  3.44391E+03 -6.98352E+02  1.43236E+03  3.70797E+03  1.15874E+03  6.80845E+02
 -2.04951E+03  4.13581E+03  4.86008E+03 -5.14426E+02  2.80769E+03  3.93344E+03  4.86523E+02  2.56505E+02
 -3.37864E+03  1.16117E+04 -3.21535E+03  8.35623E+03 -6.19450E+03 -1.34284E+03 -7.48165E+03 -1.42968E+03
 -3.06779E+03 -2.27021E+03  1.69547E+02 -1.16035E+04  4.04116E+03 -4.39585E+03  8.11889E+03 -2.52918E+03
 -9.63006E+02  5.75302E+02 -5.90594E+03 -1.40803E+03 -1.63254E+03  9.41670E+02 -4.98423E+03  4.50161E+02
 -2.85357E+03 -3.75856E+03  2.70135E+03  6.44944E+02  2.10701E+03  5.80310E+03  7.99917E+03 -3.73996E+03
  5.61778E+03  2.61474E+03  2.25638E+03 -9.82588E+02  2.38826E+03 -1.55763E+03  3.50599E+03 -4.52140E+02
  2.85711E+03 -2.57163E+03 -4.88964E+02 -1.19966E+03  7.55578E+02 -2.71518E+03 -7.61990E+02  3.12020E+03
 -3.48349E+03  7.93601E+02 -4.00455E+02  5.29039E+03 -5.08662E+03 -4.24508E+02 -1.97463E+03 -2.05437E+03
  5.46583E+03 -3.43028E+02  5.41825E+03 -1.20078E+03  1.57368E+01  1.10004E+03 -3.58519E+03 -7.73988E+01
 -6.54703E+02  2.04834E+03  7.90015E+02 -2.43728E+03  4.85337E+02 -1.07707E+03  2.33379E+03  2.68120E+03
  1.09574E+03  2.22589E+03  2.61665E+03 -1.17430E+03  9.00519E+02  8.42513E+02  3.87108E+03  2.44023E+03
 -2.45375E+03 -3.66274E+03 -3.28209E+03  3.29126E+03  3.60087E+02 -3.59687E+03  1.95435E+03 -2.90161E+03
  7.77249E+02 -9.81899E+03  1.49318E+03  3.15165E+03  1.25026E+02  3.68709E+03  2.99738E+03 -1.20617E+03
 -4.76059E+03 -1.17581E+03  3.97512E+03  1.43494E+03 -1.70106E+02 -2.04903E+03  4.29608E+03  2.99681E+02
  3.88280E+03 -1.66943E+02  3.71649E+03  1.38838E+03 -5.55580E+01  3.13056E+03  1.09439E+03  4.74833E+03
  5.59773E+01  8.01663E+03 -1.53134E+03  2.70209E+03 -2.73302E+03 -4.00482E+03  1.32523E+03  7.71093E+03
  4.06424E+02  2.87297E+03 -8.72433E+03 -1.47706E+03 -1.12601E+03 -1.11414E+03  1.47752E+03 -1.47667E+03
  2.58084E+02 -7.86778E+03  3.20955E+03 -7.89193E+03  4.97477E+03 -9.65167E+03  6.70032E+03 -3.73931E+03
  4.41809E+03  2.03622E+03  1.43969E+03  3.79612E+03  3.35917E+03  2.79056E+03 -8.00664E+03  1.80831E+03
 -6.48424E+03  3.76734E+03  1.26345E+03 -2.45942E+03 -6.79445E+03  5.54499E+03 -3.05313E+03 -4.59898E+03
 -5.64700E+02 -1.17375E+03  2.11343E+02 -4.87570E+03 -2.84946E+03 -2.11025E+03  2.96768E+03 -3.34096E+03
  9.50495E+02  1.96803E+03  8.53049E+02 -2.85330E+03  4.80379E+03  3.13492E+03  2.55558E+02  3.20030E+03
 -3.31600E+03  7.08787E+03 -2.69639E+03 -4.35875E+03 -1.84118E+03 -2.07822E+03 -2.61062E+03 -5.52058E+03
 -2.90703E+03 -7.83593E+01  1.77455E+03 -3.04578E+03  3.31885E+03 -7.20392E+02  5.36446E+03 -4.51291E+03
  5.03268E+03  8.43193E+03  1.25585E+03  1.57961E+03  1.59016E+03 -1.12882E+03 -6.49828E+03  8.00655E+02
  4.58819E+02  2.40176E+03  5.85849E+02 -1.28542E+03 -1.62696E+03 -1.11730E+03  2.52967E+03  4.71524E+03
 -6.75719E+03  1.50452E+03 -6.42693E+03  3.14097E+03 -2.93846E+03 -2.21042E+03 -3.39851E+03 -1.09376E+02
  2.17571E+03 -6.04951E+03  1.28620E+03 -6.71280E+03  2.29439E+03 -6.25097E+02  2.26569E+03  3.52413E+03
 -2.20554E+03  3.23648E+03 -7.98464E+02 -4.34295E+02  1.35796E+03 -2.87123E+03 -1.55522E+03  3.96655E+03
 -9.38244E+02 -3.82667E+03 -5.31409E+03 -1.67445E+03 -4.19051E+03  2.32499E+03 -7.26381E+02 -5.56320E+03
 -3.64487E+03 -4.39855E+03 -4.21937E+03 -2.27895E+03  1.87904E+03 -6.02597E+03 -5.50337E+01  5.45485E+03
  2.55199E+03  1.57021E+03 -2.36050E+03 -2.51676E+02  4.42276E+03  5.82460E+03 -6.97700E+03 -6.07412E+03
