 $NMID ID='MM_0lb_SNR50_20hz_g55_90.RAW', FMTDAT='(8E13.5)'
 TRAMP=1., VOLUME=1. $END
  3.10225E+05  2.98410E+03  3.33675E+05  2.50472E+05  8.32682E+04  3.35857E+05 -1.33431E+05  2.54958E+05
 -1.92594E+05  8.51347E+04 -1.09325E+05 -3.44875E+04 -1.81873E+03 -5.04765E+04  5.67000E+04 -1.48597E+03
  3.40997E+04  5.46157E+04 -1.51778E+04  8.00671E+04 -6.07732E+04  6.49603E+04 -8.38524E+04  3.22600E+04
 -8.11900E+04 -1.05653E+04 -5.51666E+04 -4.93414E+04 -1.34518E+04 -6.60136E+04  2.58467E+04 -4.62607E+04
  3.80161E+04  3.00283E+03  1.62444E+04  4.48762E+04 -3.79737E+04  4.61135E+04 -6.98461E+04  1.81722E+03
 -5.08401E+04 -5.55583E+04 -5.76286E+03 -7.61765E+04  3.45220E+04 -5.29067E+04  5.20057E+04 -1.43303E+04
  4.20271E+04  1.11103E+04  3.13336E+04  2.46035E+04  1.32940E+04  2.91126E+04 -8.21541E+03  3.07200E+04
 -2.03823E+04  1.33563E+04 -1.81274E+04 -3.73896E+03  5.84614E+03 -8.57514E+03  2.17129E+04  1.10196E+04
  7.68659E+03  3.06351E+04 -3.06335E+04  3.61420E+04 -6.01249E+04 -7.57227E+02 -5.59366E+04 -3.75908E+04
 -1.14322E+04 -6.33927E+04  3.48209E+04 -4.20347E+04  6.04381E+04 -1.35905E+03  3.02018E+04  3.22392E+04
 -4.34816E+03  2.91938E+04 -2.83082E+04  1.24882E+04 -2.93631E+04 -4.49483E+03 -1.20502E+04 -9.51915E+03
 -1.11119E+04 -1.05780E+04 -1.01256E+03 -1.60660E+04  5.67950E+03 -1.87308E+04  1.63822E+04 -1.31912E+04
  1.02590E+04  3.25612E+03 -6.35893E+03  1.82850E+04 -1.89681E+04 -7.12518E+02 -1.16287E+04 -3.03083E+04
  2.30764E+04 -3.67329E+04  4.48980E+04 -1.76633E+04  3.90917E+04  1.50673E+04  1.69080E+04  3.83105E+04
 -1.59455E+04  2.93865E+04 -1.97187E+04  1.70190E+02 -7.29482E+03 -2.80829E+04  1.67563E+04 -3.27437E+04
  4.26892E+04 -6.90636E+03  3.30463E+04  2.51123E+04  1.44292E+04  4.17850E+04 -6.05644E+03  4.92057E+04
 -2.88365E+04  2.92898E+04 -4.09552E+04  7.12223E+03 -3.65556E+04 -1.71703E+04 -2.54870E+04 -3.42203E+04
  9.62349E+03 -3.53927E+04  2.98509E+04 -1.11209E+04  2.73866E+04  7.76408E+03  2.99870E+03  1.74377E+04
 -1.56280E+04  3.81814E+03 -7.60347E+03 -5.25061E+03  2.65709E+03 -1.12002E+04  1.48157E+04  7.43372E+03
  9.95461E+03  2.06741E+04 -1.11458E+04  2.28562E+04 -2.03842E+04  1.07040E+04 -2.61927E+04 -8.30425E+03
 -1.51785E+04 -1.87368E+04 -6.88533E+03 -1.47725E+04  3.80482E+03 -1.40034E+04  1.32812E+04 -1.59539E+04
  2.08811E+04 -1.21876E+04  2.93377E+04  4.67791E+03  1.85241E+04  1.56144E+04  5.62637E+03  3.04590E+04
 -1.59610E+04  2.84861E+04 -2.47196E+04  8.96217E+03 -2.06848E+04 -1.00800E+04 -3.40467E+03 -1.79344E+04
  6.15204E+03 -4.96382E+03  7.42895E+02  7.94150E+03 -1.44208E+04  5.07525E+03 -1.11057E+04 -9.92241E+03
 -7.46517E+03 -1.65908E+04  6.34265E+03 -2.05906E+04  1.10664E+04 -1.91261E+04  1.06840E+04 -6.19026E+03
  7.48995E+03  1.39478E+04  1.47051E+03  1.85926E+04 -1.17323E+04  1.03629E+04 -1.30083E+04 -4.66550E+03
 -1.00273E+04 -1.31776E+04 -5.57272E+02 -2.10174E+04  1.00606E+04 -1.35162E+04  1.72313E+04 -1.12319E+04
  1.20156E+04  1.12696E+03  1.12962E+04  2.64425E+03  5.80876E+03  5.29019E+01  8.49606E+03 -2.55793E+03
  1.34252E+04  1.44845E+03  1.79153E+04  1.79533E+04  1.05935E+04  2.21446E+04  2.96296E+02  2.57574E+04
 -1.25393E+04  1.82373E+04 -2.15374E+04  9.47547E+03 -2.59617E+04 -3.58641E+03 -2.33691E+04 -1.50982E+04
 -5.34361E+03 -1.94753E+04  8.62123E+03 -2.12984E+04  1.37305E+04 -1.29187E+04  1.43031E+04  1.85708E+03
  5.79234E+03  9.43486E+03 -6.06438E+03  6.41231E+03 -1.29852E+04  6.41974E+02 -1.12378E+04 -7.08934E+03
  1.80177E+03 -1.47126E+04  8.18961E+03 -1.14132E+04  1.12154E+04 -1.90458E+03  3.81744E+03  5.71574E+03
 -4.94657E+03  3.06735E+03 -3.75666E+03 -5.17215E+03 -1.09803E+03 -5.06960E+03  7.57155E+03 -8.87187E+03
  8.37381E+03 -3.53502E+03  9.00828E+03  6.82329E+03  1.41156E+04  7.70379E+03  1.75649E+03  1.08133E+04
 -1.80189E+03  1.72871E+04 -9.31846E+03  9.63030E+03 -1.06650E+04  6.18586E+03 -1.08613E+04 -1.12400E+03
 -5.06303E+03 -7.73346E+02 -3.32332E+03  3.37458E+03 -4.02465E+03  1.33475E+03 -1.07597E+03  9.07314E+02
 -9.47560E+03  1.86979E+03 -7.74774E+03 -8.95139E+03 -2.79525E+03 -1.10540E+04  4.30939E+03 -1.09981E+04
  8.14828E+03 -1.60933E+03  8.93283E+03  2.40112E+03 -2.38149E+03 -2.18320E+03 -7.15917E+03 -1.15526E+03
 -5.43426E+03 -4.69361E+03 -3.01750E+03 -4.61666E+03  1.85216E+03 -1.38990E+04  9.70624E+03 -6.75756E+03
  1.37868E+04 -1.23869E+02  9.66857E+03  8.77211E+03  4.23197E+03  4.60466E+03 -2.15112E+03  5.79026E+03
 -7.76635E+03  4.73746E+03 -1.90478E+03  3.83261E+03 -1.14269E+03  2.97418E+02  4.41082E+03  1.08771E+03
  4.44292E+03  9.37562E+02 -3.50949E+03  1.61923E+03 -6.51103E+03  2.92418E+03 -6.53654E+03  1.22234E+03
 -3.53192E+03 -3.13260E+03 -9.16730E+02 -2.23177E+03  5.28768E+03 -2.72441E+03  4.85392E+03  2.41437E+03
 -2.83107E+03  4.88368E+03 -8.25036E+03  5.91391E+03 -4.39510E+03 -4.53726E+02 -1.98247E+03 -2.40135E+03
 -4.44065E+03 -1.70693E+03  2.21287E+03 -7.09064E+03  5.21506E+03 -4.29636E+03  7.40402E+03  2.50328E+03
  3.70379E+03  4.90345E+03  9.90100E+02  7.36925E+03 -6.40262E+03  2.56970E+03 -4.70167E+03  2.97995E+03
 -2.08581E+03  5.41714E+02  4.31114E+01 -5.04444E+03  6.94037E+03 -5.79397E+03  3.24854E+03 -2.41064E+03
  2.68085E+03  4.37608E+03 -1.35030E+03 -1.64579E+03  7.85050E+02  1.84233E+03  1.59820E+03 -3.40043E+02
  2.32232E+03 -3.44507E+02  5.73300E+03 -2.30321E+03  3.03570E+03  1.16384E+03 -6.67474E+02  3.66141E+03
  2.54293E+03  8.79919E+03 -8.71699E+03  2.12191E+03 -9.13394E+03  3.84485E+03 -7.43939E+03 -3.16928E+03
 -4.77940E+03 -4.72416E+03  1.76428E+03 -2.24160E+03  6.32244E+03 -1.03360E+03  8.45604E+02 -1.59341E+03
  1.38405E+03 -5.12888E+03  4.38078E+03 -1.37747E+03  3.11236E+03 -1.79865E+03  5.06472E+03  3.56625E+02
  5.67724E+03 -1.06827E+03  8.75103E+02 -1.45186E+03 -3.11869E+03  4.01945E+03 -5.26265E+03  9.03565E+02
 -5.79798E+03 -1.41400E+03 -7.22228E+03 -9.49885E+01  5.23820E+02 -3.93174E+03  3.80563E+03 -1.84962E+03
  5.67983E+03 -3.21930E+03  2.32926E+03 -5.17952E+03  4.25614E+03 -1.44196E+03  1.40358E+03  8.92934E+03
 -5.78941E+02  7.01849E+03 -8.36148E+03 -3.22639E+03 -4.49795E+03 -9.18605E+02  1.07610E+02 -3.54061E+03
  4.68790E+02 -3.78772E+03  2.44762E+03  5.19772E+03 -4.02936E+03 -5.50742E+03 -3.28344E+03 -1.47297E+03
 -8.94491E+02 -2.64130E+03  1.97880E+02 -6.33592E+03  7.56736E+02 -2.75283E+03  1.29106E+03 -1.41108E+03
 -3.01100E+03  1.55528E+03  2.89716E+03  2.09610E+03 -1.02121E+03 -1.34662E+03 -8.27285E+02  4.74047E+03
 -4.75824E+03  2.34387E+03 -5.81557E+03 -2.22463E+03 -6.78267E+02 -2.27023E+03  9.69359E+02 -3.11327E+02
  2.84422E+03 -2.69086E+02  4.90714E+03  1.35331E+02  7.94678E+02  3.72761E+03  1.84575E+03  3.38736E+03
  1.10099E+03  3.21578E+03 -2.03758E+03 -9.94366E+02  7.61358E+02 -3.91100E+02  2.38336E+03  5.78635E+03
 -3.18676E+03  2.87902E+03 -3.89551E+03  5.15876E+03  1.79800E+02  3.36843E+03 -3.27552E+03 -2.78512E+02
 -1.65061E+03 -3.11277E+03  2.47222E+03 -6.65168E+03 -1.55686E+03 -1.52860E+03  1.50533E+03 -3.89518E+02
  4.82597E+02 -1.60784E+03 -1.12049E+03  6.60766E+02 -1.74323E+02 -2.56151E+03 -2.34397E+03 -2.75204E+03
 -2.52165E+03  6.67212E+02  2.46090E+03 -1.36842E+03 -2.22115E+03 -7.34161E+02 -1.41671E+02  2.85062E+03
  8.02200E+02 -1.37211E+03  1.79653E+03 -1.72617E+03 -1.03999E+03  3.05384E+02  7.97157E+01  3.47226E+03
  3.22306E+02 -4.87613E+03  1.22204E+02 -2.67198E+03  1.25579E+02  1.83816E+03  8.51237E+02 -5.00922E+02
  4.64720E+03  1.24326E+03  3.77276E+03  4.21732E+03 -3.88410E+03 -1.51535E+03  6.48472E+01 -2.53050E+03
 -1.15580E+03 -1.99993E+03  1.97188E+03 -2.53208E+03  1.60996E+03  1.55334E+03  4.50077E+02  8.99868E+02
  2.97746E+03  1.58263E+03  1.54540E+03  9.33897E+02 -1.35092E+03  1.50607E+03 -3.03047E+03 -2.35889E+03
 -2.57348E+03 -6.35933E+03 -2.35540E+03  7.19890E+02  8.86155E+01  1.94118E+03 -2.37656E+03  2.96513E+03
 -1.50007E+03 -2.43504E+03 -8.80044E+02  1.23362E+03 -1.09923E+03 -2.22514E+03  9.12582E+02 -4.04165E+03
  1.84567E+01 -8.17781E+02  2.83860E+03 -7.40020E+02 -6.70203E+02  2.43660E+03 -1.53751E+03  7.20618E+02
  2.13134E+03  2.57493E+03 -3.36991E+02  1.89609E+03  1.18761E+03 -4.61565E+02  3.33976E+02 -1.31639E+03
 -1.61954E+03 -4.25717E+03 -1.26364E+03  5.93075E+02 -6.92227E+01  3.89428E+03 -4.21900E+03  2.54643E+03
 -7.36720E+02 -1.71725E+03  7.78878E+02 -8.72489E+02 -1.64704E+03  3.32971E+01  5.21431E+02 -7.44347E+01
 -8.04487E+01  2.17679E+03  1.14254E+03  1.63848E+03 -5.17071E+02  1.62332E+03 -3.71310E+01 -2.23681E+02
 -1.72823E+03 -2.92701E+03  2.10700E+03 -7.25546E+02 -1.50736E+03 -3.26118E+03  2.30307E+03 -7.04569E+01
  2.89644E+03 -3.60261E+02  4.71100E+03  6.93823E+02 -1.89148E+03 -1.40787E+03 -4.22717E+03  4.12409E+03
 -5.07790E+02 -1.47710E+03 -1.53316E+03 -8.83440E+01 -1.89635E+03  5.97621E+03 -1.46705E+03  6.32719E+02
 -1.03682E+03  2.19371E+03 -2.92598E+01 -7.49491E+02  6.71075E+02  9.10781E+02 -2.86232E+03 -6.72533E+01
 -2.85332E+03 -4.92931E+03 -2.21756E+03  1.09025E+03  6.10454E+02 -1.01448E+03 -2.29295E+03  2.23983E+03
 -3.25154E+03  3.31707E+03  1.81831E+00 -1.93801E+03  9.20768E+02 -3.10303E+03 -2.63066E+02  8.93593E+02
  2.50276E+03  2.57999E+03 -1.03762E+03 -2.61014E+02  1.50243E+03  1.98853E+02 -1.72404E+03 -6.69750E+02
  6.53524E+02  1.51729E+03  8.36326E+02  3.65044E+03  1.19849E+03 -6.01410E+02 -9.20536E+02  2.38886E+03
  3.00024E+03 -2.10475E+03 -1.38806E+03  2.90419E+03  1.44085E+03 -1.35910E+03  2.50675E+02 -3.58602E+02
 -1.32601E+03 -2.15591E+03 -1.15796E+01  9.51958E+02 -4.73783E+03 -1.65404E+03 -9.84339E+02  1.32709E+03
 -1.12716E+03 -2.52283E+03 -1.59621E+03  3.53603E+03  1.96233E+03 -1.69619E+03  4.13373E+03  1.98399E+03
 -2.70666E+02 -4.05438E+03 -3.69139E+03 -2.98519E+03  4.09776E+03 -2.51965E+03  2.47441E+03  1.52767E+03
 -3.54680E+03  3.27870E+03 -1.73219E+03  6.90278E+02 -2.22334E+03  9.70981E+02  2.23047E+02 -9.84231E+02
 -4.19658E+03  8.02489E+02  5.43246E+02  1.42616E+03 -1.16457E+03 -3.62878E+03 -2.34400E+03  1.55800E+03
 -4.82144E+03 -1.76669E+01  4.96449E+03  1.64589E+02  2.00319E+03  3.40553E+03 -1.77768E+03  2.32695E+03
