 $NMID ID='MM_0lb_SNR50_11hz_g40_61.RAW', FMTDAT='(8E13.5)'
 TRAMP=1., VOLUME=1. $END
  3.05680E+05 -8.13641E+02  3.38722E+05  2.52751E+05  8.97620E+04  3.42142E+05 -1.32882E+05  2.46971E+05
 -1.89907E+05  8.23528E+04 -1.11343E+05 -3.59263E+04  3.83326E+03 -5.09718E+04  5.28050E+04 -1.58551E+03
  3.88620E+04  4.68361E+04 -1.55439E+04  7.97275E+04 -5.99911E+04  6.68053E+04 -8.85952E+04  3.00494E+04
 -8.24495E+04 -1.27045E+04 -5.44368E+04 -4.71767E+04 -1.39543E+04 -6.94351E+04  2.23900E+04 -4.15608E+04
  4.03419E+04  5.78451E+03  1.49837E+04  4.77453E+04 -2.82123E+04  4.51756E+04 -6.38569E+04 -1.14936E+03
 -5.70462E+04 -5.92400E+04 -4.52120E+03 -8.03332E+04  3.92399E+04 -5.85257E+04  5.05623E+04 -2.00676E+04
  4.50035E+04  8.86925E+03  2.41901E+04  2.80656E+04  1.83043E+04  2.75795E+04 -4.35126E+03  2.74775E+04
 -2.67988E+04  1.36059E+04 -1.29370E+04 -3.32592E+03  7.37595E+03 -9.05513E+03  1.92768E+04  1.10218E+04
  4.10744E+03  3.48545E+04 -3.44873E+04  3.38981E+04 -6.28882E+04  4.80127E+03 -5.81071E+04 -4.64831E+04
 -9.73571E+03 -5.87497E+04  3.67701E+04 -4.10119E+04  6.13203E+04 -2.18531E+03  3.66245E+04  3.01921E+04
 -1.02559E+04  3.89981E+04 -2.48750E+04  1.80191E+04 -3.13336E+04 -6.86921E+03 -2.07374E+04 -1.22151E+04
 -1.60444E+03 -1.27870E+04 -3.18840E+03 -1.77156E+04  9.22889E+03 -3.01808E+04  1.66155E+04 -1.43153E+04
  9.52286E+03  4.80360E+03 -1.34240E+04  1.70997E+04 -1.75400E+04 -4.45171E+03 -8.87436E+03 -3.73866E+04
  2.90971E+04 -4.50008E+04  4.81038E+04 -1.88412E+04  5.06229E+04  2.00252E+04  1.86270E+04  5.20444E+04
 -2.05139E+04  4.15282E+04 -2.50227E+04  2.33936E+03 -1.98792E+04 -2.88291E+04  2.44835E+04 -3.31235E+04
  4.85618E+04 -1.08439E+04  3.63632E+04  2.52230E+04  1.67398E+04  5.38381E+04 -7.39753E+03  5.10089E+04
 -3.11096E+04  3.09036E+04 -4.45245E+04  1.53561E+04 -4.46894E+04 -1.80544E+04 -2.31845E+04 -3.37974E+04
  4.53755E+03 -3.67819E+04  3.21787E+04 -1.69465E+04  2.95986E+04  1.14492E+04  1.07782E+03  1.88344E+04
 -1.43063E+04  9.51662E+03 -8.52217E+03 -1.30581E+04  2.38209E+03 -1.17007E+04  1.41395E+04  7.69783E+03
  1.95017E+04  2.18099E+04 -1.06336E+03  2.27628E+04 -2.18381E+04  9.17081E+03 -3.42648E+04 -4.56583E+03
 -1.99966E+04 -1.78456E+04 -1.12370E+04 -1.92878E+04  5.58130E+03 -2.26488E+04  1.87826E+04 -1.97877E+04
  3.56634E+04 -1.56542E+04  3.80050E+04  7.09549E+03  1.82037E+04  2.58986E+04  8.47768E+03  3.49672E+04
 -2.06324E+04  2.63118E+04 -3.29200E+04  1.46046E+04 -2.63659E+04 -6.00478E+03 -9.58016E+03 -1.13141E+04
  4.33517E+02 -1.77887E+03 -3.65343E+03  7.44154E+03 -1.51353E+04  7.25426E+03 -1.60292E+04 -6.67011E+03
 -1.09815E+04 -2.05393E+04  8.37894E+03 -2.75241E+04  1.47607E+04 -2.05054E+04  1.62948E+04  4.39544E+03
  1.12284E+04  1.38490E+04  4.50316E+03  2.30841E+04 -1.43267E+04  1.19173E+04 -2.18488E+04 -5.26713E+03
 -2.27197E+04 -1.45029E+04 -2.19435E+03 -2.20970E+04  1.04174E+04 -2.05084E+04  2.27747E+04 -9.26945E+03
  2.01565E+04 -6.51774E+03  1.84580E+04  9.84991E+03  2.38182E+03  3.21106E+03  7.51077E+03 -5.81472E+03
  2.00334E+04  9.48301E+03  2.42224E+04  2.11732E+04  1.55525E+04  2.77913E+04 -3.18555E+03  3.97438E+04
 -1.95337E+04  2.88847E+04 -3.59261E+04  1.65292E+04 -3.55657E+04  1.49345E+03 -3.16908E+04 -2.38836E+04
 -1.78000E+04 -3.23752E+04  9.30968E+03 -2.95865E+04  3.02727E+04 -1.46313E+04  2.17809E+04  1.13637E+04
  3.69980E+03  1.12872E+04 -9.29710E+03  1.56211E+04 -1.22661E+04  5.44654E+03 -1.57484E+04 -8.88237E+03
 -5.12947E+03 -1.72212E+04  3.03775E+03 -1.35242E+04  1.05998E+04  5.12321E+03  4.78592E+03  8.24409E+03
 -8.86008E+03  4.95532E+03 -6.66776E+03 -3.19995E+03 -7.82728E+02 -1.40765E+04  9.60667E+03 -1.23264E+04
  1.74427E+04 -1.30193E+04  2.15710E+04  5.19686E+03  1.37387E+04  1.75475E+04  7.55505E+03  2.39596E+04
 -3.91814E+03  2.77987E+04 -1.77361E+04  1.75366E+04 -2.17737E+04 -5.08181E+02 -1.50948E+04 -5.54536E+03
 -6.43441E+03 -5.87460E+03  7.46642E+02 -6.04137E+02 -1.47509E+03  5.58635E+03 -5.57352E+03  1.03553E+04
 -1.27879E+04  2.26836E+03 -9.92182E+03 -1.00263E+04 -2.71565E+03 -1.62382E+04  5.17633E+03 -1.51132E+04
  5.82920E+03 -6.59011E+03  9.22256E+03  5.74814E+03 -1.58131E+03 -1.99232E+03 -4.81690E+03  3.42449E+03
 -3.42311E+03 -1.34211E+04 -3.58037E+03 -1.31088E+04  9.15247E+03 -1.42330E+04  1.33689E+04 -7.82935E+03
  2.07169E+04 -6.78305E+02  1.41064E+04  8.59931E+03  3.48140E+03  1.86698E+04 -1.14262E+04  1.58778E+04
 -1.15654E+04  7.66007E+03 -6.09053E+03 -5.71666E+03 -5.85256E+01 -1.54772E+02  7.91367E+03 -2.52279E+03
  9.00766E+03  2.69206E+02 -3.56933E+03  1.36139E+04 -7.29422E+03  1.25902E+04 -7.88037E+03  4.32794E+01
 -5.14689E+03 -2.50001E+03  5.80165E+02 -1.04333E+04  9.69051E+03 -8.59840E+03  9.87552E+03  3.45393E+03
  9.58762E+03  6.70294E+03 -3.33775E+03  1.08985E+04 -1.03188E+04  4.44045E+03 -7.25522E+03 -6.34903E+03
 -1.29110E+03 -1.18685E+04  5.64622E+03 -1.72432E+04  8.53320E+03 -6.06112E+03  1.32630E+04  7.14557E+03
  1.18232E+04  1.60134E+04 -9.87645E+02  1.76709E+04 -1.60981E+04  6.43723E+03 -9.78441E+03 -1.13371E+03
 -1.07346E+04 -1.39401E+04 -1.16807E+04 -8.43007E+03  7.75666E+03 -7.58374E+03  5.65692E+03 -3.02747E+03
  4.89301E+03 -2.38968E+03 -1.77719E+03  5.21482E+03  3.50481E+02 -3.08324E+03  7.87275E+02 -8.07902E+03
  5.00466E+03  9.55148E+02  1.34418E+04 -2.83658E+02  7.58697E+03  8.53177E+03  4.86314E+03  1.25974E+04
 -7.09273E+03  1.81199E+04 -1.22975E+04  7.16003E+03 -2.15739E+04  1.07747E+03 -1.39558E+04 -6.30278E+03
 -1.18328E+04 -1.07937E+04  1.60029E+03 -9.43926E+03  2.75468E+03 -1.18123E+04  1.11211E+04 -9.18930E+03
 -6.33810E+02 -8.78977E+03  7.38191E+03 -7.16075E+03  8.68622E+03 -7.72245E+03  6.44220E+03 -2.30679E+03
  7.18770E+03  4.28958E+03  6.63049E+03  8.97111E+03 -2.20303E+03  9.37713E+03 -9.18231E+03  6.60090E+02
 -8.01725E+03 -4.16198E+02 -1.45300E+03 -2.85594E+03 -1.71913E+03 -4.74961E+03  3.45437E+03 -1.18330E+04
  1.01817E+04 -9.45321E+03  1.35438E+04  2.66206E+03  8.66744E+03  1.10573E+04  3.84078E+03  1.37308E+04
 -4.52540E+03  1.39543E+04 -7.58237E+03  1.26267E+03 -7.71305E+03 -2.20819E+03 -3.28780E+03  2.14818E+02
 -4.18338E+02 -5.13423E+03 -2.42074E+03  2.65348E+03 -1.27804E+03  2.59257E+03 -6.44175E+03  1.45563E+03
 -8.89015E+03 -8.90473E+03  1.95842E+03 -1.22991E+04  1.75804E+03 -1.04089E+04  9.26979E+03  2.49311E+03
  6.66107E+03  7.55736E+03  3.81561E+03  1.12824E+04 -6.08047E+02  8.16003E+03 -8.14111E+03  4.13004E+03
 -1.24272E+04 -3.46734E+03 -3.36268E+03 -5.88038E+03 -9.80958E+02 -7.44693E+03  6.90002E+03 -3.23473E+03
  5.91086E+03 -3.17122E+03  3.51460E+03  3.51978E+03  5.09183E+03  3.07012E+03 -1.00334E+03  1.92938E+03
  2.25557E+03 -6.50998E+02 -4.55443E+03 -7.25347E+02  1.46764E+03  4.50292E+03  1.58186E+03  6.38286E+03
 -4.27450E+01  9.86487E+03 -6.42981E+03  9.72001E+03 -1.16363E+04  4.96083E+03 -9.78665E+03 -1.22490E+03
 -5.96082E+03 -1.70774E+04  1.17750E+03 -1.64348E+04  5.24922E+03 -2.89901E+03  1.14849E+04  1.06814E+03
  8.29915E+03  1.19719E+03 -2.16264E+03  8.29830E+03  2.37086E+03  4.71531E+03  2.45806E+02 -2.29169E+03
 -9.67480E+02 -1.69451E+03 -2.04584E+03 -2.35904E+03  7.72718E+03 -3.80987E+03  6.91515E+03  1.06040E+03
  1.18124E+03  3.79038E+02 -7.71133E+02  1.81807E+03 -2.91809E+03  4.97223E+03 -4.25188E+02 -1.04081E+03
  3.28852E+03 -2.73109E+03  5.22235E+02 -3.92693E+03  8.60429E+03  7.94712E+03  1.56300E+03  1.36302E+04
 -1.58873E+03  3.30278E+03 -3.47719E+03 -2.54371E+03 -6.29834E+03 -4.43643E+03 -7.42580E+03 -7.21434E+03
  1.81978E+03 -6.52601E+03  2.63891E+03 -3.31927E+03 -5.48346E+02 -1.35544E+02 -3.26550E+01 -1.29818E+03
 -5.78344E+03  4.77807E+03 -2.04444E+03 -5.20317E+03 -3.91501E+03 -7.14131E+03  2.46004E+03 -5.02082E+03
  5.79618E+03  3.73592E+03  6.57132E+03 -1.76837E+03  6.26956E+03  5.48497E+03 -1.14661E+04 -2.35965E+03
 -7.09160E+03  6.05093E+03 -4.39593E+03  1.05672E+02  3.12976E+03 -6.70506E+03  6.39620E+03 -5.83667E+03
  7.25163E+03  6.54817E+02  1.70246E+04  8.78274E+03  1.36684E+03  7.24759E+03 -9.91733E+02  3.96007E+03
 -1.60620E+03  2.39118E+03 -8.72653E+03 -4.15104E+03 -4.12070E+03 -3.67788E+03  6.66345E+03 -5.09679E+03
  8.07672E+03  7.31944E+02  1.63088E+03 -4.01650E+02  3.02164E+02  1.14825E+04  7.84205E+02  6.35307E+03
 -5.33965E+03  3.94802E+02  2.99464E+02 -1.27098E+03 -6.38919E+02  2.29965E+03  1.91589E+03  7.37576E+03
 -2.00525E+03  5.25568E+03 -6.78077E+03  5.83617E+01 -3.08527E+03  3.14883E+02 -8.78799E+03 -7.19107E+03
 -2.23284E+03 -1.12790E+04 -5.23817E+02 -5.56387E+03  4.20099E+03 -1.07214E+04  2.42507E+03 -5.90429E+03
  1.06905E+04  3.13757E+03  1.04750E+04  7.66257E+03  2.05703E+03  7.65836E+03 -7.81794E+03  9.54047E+03
 -1.26214E+03  6.30627E+03 -1.79547E+03 -4.85662E+03  7.54674E+02  2.81766E+03  1.42353E+03  2.70048E+03
  9.97650E+02 -4.40503E+03  3.93935E+02  1.01310E+03 -2.02634E+03 -1.49129E+03  1.39812E+03 -2.16493E+03
  1.43347E+03 -5.08978E+03 -1.22266E+03  6.40698E+02  5.53616E+03  1.31366E+03 -9.60420E+02  9.54982E+03
  3.43883E+02  5.54848E+03 -8.99573E+03  5.26470E+03 -5.12553E+03  1.32306E+03 -1.39679E+03 -8.33905E+03
 -2.74182E+03 -6.70870E+03 -5.11536E+02 -8.28373E+03  4.55572E+03  4.11521E+03  3.97190E+03  1.86093E+03
  7.03198E+03  6.54819E+03 -8.15004E+02  4.69152E+03  3.48191E+03  2.12804E+02 -6.65040E+03 -4.53299E+03
 -1.73380E+03 -2.17970E+03  1.00173E+03  9.00045E+02  4.08911E+03  3.92049E+03  1.20620E+02  5.09144E+03
 -4.71088E+03  3.83571E+03 -1.02678E+03 -2.88499E+02 -2.75551E+03 -4.82196E+03  3.00031E+03 -4.94421E+03
 -1.69450E+03 -1.12956E+04  3.63442E+03 -3.52076E+03  7.57508E+03  3.00790E+03  5.27661E+03  3.01807E+03
  6.77816E+03  5.91723E+03 -4.56476E+03  6.66176E+03  7.32742E+02  2.53219E+02 -1.12498E+03 -1.36797E+03
 -5.57037E+03  2.14952E+03 -5.98887E+03 -3.16996E+03 -3.88761E+03  5.02078E+03  7.51309E+02 -1.74781E+03
 -2.36583E+03 -5.51918E+03 -6.25901E+03  3.76911E+03  9.96190E+02 -6.69207E+03  6.44089E+03 -1.63480E+03
  5.76980E+03 -1.14503E+03  2.98624E+03 -2.28218E+02  1.45789E+03  2.21833E+03 -2.35377E+03  3.63949E+03
