 $NMID ID='MM_0lb_SNR50_10hz_g45_76.RAW', FMTDAT='(8E13.5)'
 TRAMP=1., VOLUME=1. $END
  3.07536E+05 -1.01192E+03  3.34347E+05  2.51641E+05  8.28246E+04  3.37640E+05 -1.26655E+05  2.51812E+05
 -1.96931E+05  8.60838E+04 -1.11085E+05 -2.98746E+04 -1.13657E+02 -5.72679E+04  5.40468E+04 -1.87604E+03
  3.94806E+04  6.15151E+04 -1.72448E+04  7.57524E+04 -6.26111E+04  6.42808E+04 -8.60339E+04  3.27810E+04
 -7.84946E+04 -1.26400E+04 -5.95375E+04 -5.07848E+04 -1.31411E+04 -7.03489E+04  3.10622E+04 -4.41944E+04
  4.23674E+04  3.69037E+03  1.43880E+04  4.50792E+04 -3.62431E+04  4.15269E+04 -6.60264E+04 -6.42632E+03
 -5.66655E+04 -5.79935E+04 -2.58163E+03 -7.68585E+04  4.11701E+04 -5.77259E+04  4.95322E+04 -1.45129E+04
  4.28592E+04  8.28911E+03  3.34443E+04  2.59911E+04  1.78859E+04  2.94597E+04 -7.97677E+03  2.47850E+04
 -2.39803E+04  1.71509E+04 -1.47604E+04 -8.14752E+03  3.72553E+03 -8.62501E+03  2.44504E+04  8.35234E+03
  2.81790E+03  3.56457E+04 -2.79358E+04  3.73439E+04 -6.70945E+04  3.32238E+03 -5.90861E+04 -4.25755E+04
 -9.42951E+03 -6.50189E+04  3.78077E+04 -4.54118E+04  6.12693E+04 -3.41965E+02  3.92566E+04  3.38390E+04
 -7.79647E+03  4.39770E+04 -2.99195E+04  1.74970E+04 -3.90252E+04 -4.00624E+03 -1.15974E+04 -6.04186E+03
 -8.23129E+03 -1.34252E+04  2.57325E+03 -2.01978E+04  1.16180E+04 -2.84277E+04  1.39591E+04 -1.41615E+04
  7.55991E+03  9.45292E+03 -9.37670E+03  1.04689E+04 -2.33772E+04 -1.30085E+04 -7.69966E+03 -3.94658E+04
  2.43798E+04 -4.27561E+04  5.07781E+04 -2.19750E+04  4.38495E+04  2.19076E+04  1.67142E+04  4.92836E+04
 -1.53069E+04  4.00900E+04 -3.25336E+04  2.52476E+03 -5.65579E+03 -2.67892E+04  2.42324E+04 -4.07776E+04
  4.63438E+04 -1.39855E+04  4.04789E+04  2.75881E+04  2.01691E+04  5.54261E+04 -5.71055E+03  5.52590E+04
 -3.30258E+04  3.58870E+04 -4.54047E+04  9.55556E+03 -4.66933E+04 -1.33661E+04 -2.17605E+04 -4.02568E+04
  2.23028E+03 -4.41210E+04  3.48906E+04 -1.27047E+04  3.23804E+04  1.07943E+04  2.29249E+03  2.12903E+04
 -1.52477E+04  1.18051E+04 -1.22163E+04 -7.42648E+03  8.65592E+03 -1.13177E+04  2.18547E+04  8.45792E+01
  1.89923E+04  1.90238E+04 -5.54052E+03  2.46448E+04 -2.34098E+04  7.64052E+03 -3.28773E+04 -3.78401E+03
 -2.43785E+04 -1.74516E+04 -1.24825E+04 -2.24948E+04  7.89456E+03 -2.56466E+04  2.14674E+04 -2.32564E+04
  2.46841E+04 -1.35893E+04  3.78536E+04 -7.67844E+02  2.64996E+04  2.31915E+04 -5.64563E+02  4.24107E+04
 -1.54605E+04  3.36818E+04 -2.89350E+04  8.16191E+03 -1.65251E+04 -8.41642E+03 -1.17690E+04 -1.60499E+04
 -1.66654E+03 -6.67024E+03 -8.93722E+03  6.79626E+03 -1.21521E+04  9.22863E+02 -1.87577E+04 -1.44503E+04
 -8.09658E+03 -2.33953E+04  6.72473E+03 -2.65444E+04  1.79904E+04 -1.90743E+04  1.85307E+04 -4.46797E+03
  1.06276E+04  1.19700E+04 -1.69564E+03  1.66430E+04 -1.86238E+04  7.96385E+03 -1.93696E+04 -6.02602E+03
 -1.74367E+04 -1.74502E+04  7.95173E+02 -2.20696E+04  1.43604E+04 -2.47009E+04  1.95693E+04 -1.19008E+04
  1.57061E+04 -6.60184E+02  2.08052E+04  7.50094E+03  1.17169E+04 -1.50065E+02  1.16075E+04  6.08737E+03
  2.54845E+04  5.73941E+03  2.24965E+04  2.40148E+04  1.13634E+04  3.39833E+04 -7.71625E+03  3.58023E+04
 -2.95945E+04  3.39935E+04 -3.66122E+04  1.84365E+04 -4.27355E+04 -3.09100E+03 -3.50705E+04 -2.08607E+04
 -1.24944E+04 -3.69204E+04  9.06198E+03 -3.00284E+04  2.54544E+04 -1.58816E+04  2.22206E+04  8.29130E+03
  9.46485E+03  1.68342E+04 -1.51587E+04  1.38596E+04 -1.41142E+04  1.54838E+03 -1.88927E+04 -1.85428E+04
 -3.53581E+03 -2.63077E+04  1.32200E+04 -1.34441E+04  1.42330E+04 -3.65248E+02  5.08983E+03  7.48459E+03
 -1.44319E+03  5.23186E+03 -9.02579E+03 -3.63615E+03  1.82036E+03 -1.42446E+04  1.16412E+04 -1.61062E+04
  1.76236E+04 -1.29117E+04  1.97119E+04  5.81662E+03  2.27447E+04  1.16432E+04  1.04846E+04  2.74366E+04
 -5.75780E+03  3.03317E+04 -1.64756E+04  2.09174E+04 -1.97943E+04  5.01105E+03 -1.55761E+04 -1.50476E+03
 -7.08252E+03 -3.18631E+03 -5.51764E+03 -2.34750E+03  3.72369E+03 -2.18875E+03 -3.57938E+03 -1.92634E+03
 -5.93603E+03 -3.33789E+03 -1.41843E+04 -7.96814E+03 -5.14506E+03 -1.37170E+04  7.91928E+03 -1.53622E+04
  1.14187E+04 -8.31875E+03  1.62692E+04 -3.78788E+02 -5.89398E+03  6.52170E+03 -7.50425E+03 -6.58381E+03
 -4.56723E+03 -5.34204E+03 -2.73796E+02 -1.77671E+04  5.59772E+03 -1.37308E+04  1.88244E+04 -6.58921E+03
  2.23483E+04  5.19129E+03  1.75152E+04  1.41849E+04  7.93463E+03  1.42682E+04 -5.28331E+03  1.10432E+04
 -1.58922E+04  6.79633E+03 -4.09604E+03 -4.03328E+03 -4.76600E+03  1.81364E+03  1.33794E+03  6.06782E+03
  7.25667E+03  2.23331E+03  1.56988E+03  1.14710E+04 -1.04378E+04  7.63765E+03 -1.24354E+04  4.03109E+03
 -1.33466E+04 -8.91988E+03  2.88561E+03 -1.33215E+04  3.27989E+03 -4.33030E+03  1.01676E+04 -2.49372E+03
  3.57448E+03  1.35897E+04 -1.06749E+04  8.39852E+03 -1.35424E+04  5.07704E+03 -1.35276E+04 -7.89154E+03
 -6.37965E+03 -1.30730E+04  4.54248E+03 -1.64417E+04  1.47108E+04 -1.43774E+04  1.35083E+04  4.83787E+03
  1.28047E+04  1.10963E+04 -3.85365E+03  1.04755E+04 -1.34404E+04  1.23442E+04 -9.82042E+03 -3.30686E+03
 -9.19059E+03 -6.07115E+03 -2.65865E+02 -1.13346E+04  4.44923E+03 -6.86624E+03  1.07750E+04 -1.02556E+03
  3.69820E+03  4.22844E+03  3.80242E+03 -6.26734E+02  2.35861E+03 -1.12199E+04  6.72513E+03 -8.25364E+03
  1.13338E+04 -4.46628E+03  1.77999E+04 -7.08293E+03  1.01538E+04  7.65773E+03  8.71222E+03  1.54383E+04
 -3.11538E+03  1.96545E+04 -2.49432E+04  1.59106E+04 -2.23572E+04  4.52031E+03 -1.06838E+04 -1.33707E+04
 -6.98351E+03 -1.81913E+04 -1.27549E+03 -1.62120E+04  4.14222E+03 -1.03650E+04  8.31369E+03 -3.25491E+03
  3.38343E+03 -3.02237E+03  4.73880E+03 -2.08221E+03  8.54536E+03 -5.13494E+03  5.05639E+03 -4.91832E+03
  7.99507E+03  2.17971E+02  8.15901E+03  3.93246E+03  3.68624E+03  1.32400E+04 -1.28575E+04  2.63930E+03
 -1.68855E+04 -3.28979E+03 -9.22600E+03 -8.08590E+03 -9.46978E+02 -1.53199E+04  8.58917E+03 -1.15355E+04
  1.53491E+04 -1.08917E+04  1.43337E+04  5.20978E+03  8.42425E+03  9.94427E+03  3.15654E+03  1.93822E+04
 -9.26843E+03  1.25788E+04 -9.23462E+03  1.34010E+03 -7.12417E+03  1.99822E+03 -2.94922E+03 -1.02560E+03
 -3.82180E+03 -2.10767E+03 -3.30741E+03  1.12281E+03 -6.39454E+03  5.06077E+02 -1.36814E+04 -2.34540E+03
 -6.55617E+03 -1.00666E+04 -3.24960E+03 -8.09550E+03  1.13925E+04 -7.60379E+03  9.39804E+03 -2.38732E+03
  9.89352E+03  1.06037E+04  2.98277E+03  1.07966E+04 -1.58976E+03  8.53749E+03 -1.07771E+04 -1.40780E+02
 -1.82212E+04  1.73408E+03 -6.09990E+03 -2.91946E+03 -2.84400E+03 -9.26461E+03  6.84494E+03 -4.95063E+03
  4.44490E+03 -6.62484E+03  7.90623E+03  4.13997E+03 -2.00029E+03  4.43328E+03  2.35286E+02 -5.36791E+02
  1.70215E+03  5.13745E+02  7.63164E+03  1.79999E+03  6.03044E+03  1.16542E+04  3.18139E+03  6.52401E+03
  1.75788E+03  6.89379E+03 -7.86840E+03  5.53241E+03 -1.01846E+04 -9.55525E+02 -1.30418E+04 -8.04665E+03
  7.27111E+02 -1.15542E+04 -4.16367E+03 -2.07844E+04  9.94703E+03 -9.14247E+03  9.33920E+03 -6.18891E+03
  6.51518E+03  3.73649E+03  5.42658E+03  9.88153E+03 -1.31909E+04  8.43798E+03 -1.16640E+04  2.74880E+03
  3.36943E+03 -1.18489E+03  3.74060E+03 -1.21495E+04  8.46967E+03  3.98484E+03  8.56698E+03 -5.60747E+01
  3.88133E+03  4.87936E+02  1.55204E+03 -1.10470E+03 -1.39188E+03  4.08974E+03  3.12258E+03  3.70781E+03
  4.75031E+03 -6.20586E+03  6.73614E+03  3.02237E+02  7.95042E+03  1.09005E+04  5.14849E+02  8.73148E+03
 -9.51192E+03  3.59628E+03 -1.04956E+04  2.42083E+03 -8.40449E+03  3.13571E+03 -8.38384E+03 -7.68550E+03
 -3.27549E+03 -1.03210E+04  1.42400E+03 -1.44872E+03  3.91721E+03  9.48189E+02 -3.77610E+03  3.61340E+03
 -9.99997E+03  4.79105E+03 -5.11075E+03 -2.97388E+03 -3.80082E+03 -7.05677E+03  5.41877E+03 -9.45832E+03
  8.55357E+03 -1.79577E+03  5.11903E+03  1.67854E+03  4.35146E+03  8.37941E+02 -3.40725E+03  7.77918E+03
 -1.84905E+03  3.44147E+02 -3.59541E+03  2.11043E+03  5.87548E+02 -8.18353E+03  3.64374E+03 -7.58758E+03
  3.94139E+03 -6.05415E+03  1.21683E+04  1.29634E+04  2.16041E+03  4.72467E+03 -4.68733E+03  1.26457E+04
 -8.25290E+03  3.57776E+03 -9.33018E+03  7.35484E+02 -2.84291E+03 -1.84920E+03 -1.96394E+03 -7.98812E+03
  5.93411E+03 -1.87732E+03  9.85610E+02  5.10576E+03  3.82058E+03  9.05247E+03 -7.49301E+03  4.11573E+03
 -2.30944E+03 -9.02054E+02  3.14103E+03 -4.52495E+03 -2.16439E+03  5.41938E+02 -2.47126E+03  2.11814E+02
 -1.33742E+02  3.78217E+03 -2.00350E+03 -1.26454E+00 -1.46199E+04  9.28320E+02 -8.62270E+03 -6.20429E+03
 -3.38978E+03 -1.43507E+04 -5.54502E+02 -1.11199E+04  9.95404E+03 -7.36939E+03  8.84415E+03 -2.75255E+02
  1.29752E+04  2.47614E+03  5.33184E+03  7.50692E+03 -3.77537E+03  8.08306E+03 -3.54309E+03  6.10861E+03
 -6.92576E+03  1.99883E+03  4.77347E+03  9.25618E+02  5.33928E+02 -1.98423E+03 -1.12680E+01 -7.42054E+01
 -5.19446E+03 -1.40652E+02 -2.44543E+03  2.83491E+03 -1.09120E+03 -1.59939E+03 -1.65769E+03 -7.44783E+03
  9.96704E+02 -7.81297E+01  6.26983E+03  3.57960E+03  4.75145E+03  3.93315E+03 -2.55252E+03  5.29970E+03
 -2.23729E+03  1.03838E+02 -2.24642E+03  6.79382E+03 -8.95439E+03 -8.28065E+03 -1.27782E+04 -4.50739E+03
  3.63660E+02 -1.07821E+04 -5.15142E+02 -1.20949E+04  7.18800E+03 -9.57042E+03  6.52683E+03  1.71310E+03
  4.34350E+03  4.70613E+03  5.51231E+02  6.09596E+03  7.21394E+03 -3.34996E+03  2.90669E+02 -5.67415E+03
  7.30892E+02 -6.77245E+03  3.23034E+03 -3.45628E+03  3.24744E+02  3.80953E+03 -1.24262E+03  2.48405E+03
 -1.96139E+03  2.01757E+02 -6.96188E+03  2.87612E+03 -7.10066E+03 -4.34699E+03  4.29574E+02 -1.28683E+04
  3.94660E+03 -5.01795E+03  4.52779E+03  2.50412E+03  1.47864E+03 -3.50540E+03  9.42301E+02  3.59793E+03
 -4.23038E+03  4.92336E+03 -2.11658E+03 -1.29985E+03 -7.15880E+03  1.93654E+03 -6.10089E+03 -1.88647E+03
  4.68416E+02  4.49485E+02  2.43542E+03 -1.72406E+03 -5.63916E+03  5.74320E+03 -4.99166E+03 -1.53410E+03
 -1.45698E+03 -3.99030E+03 -1.16328E+03 -1.90062E+03  3.22058E+03 -6.49688E+03  2.05119E+03  4.74618E+03
  7.62328E+03 -1.64761E+03  4.20807E+03  2.64960E+03 -3.29461E+03  6.52282E+03 -4.13633E+03  4.74477E+03
