 $NMID ID='MM_0lb_SNR50_20hz_g45_12.RAW', FMTDAT='(8E13.5)'
 TRAMP=1., VOLUME=1. $END
  3.07116E+05  2.59274E+03  3.41189E+05  2.51252E+05  8.38929E+04  3.35508E+05 -1.35158E+05  2.46832E+05
 -1.89850E+05  8.20478E+04 -1.12711E+05 -3.78766E+04  1.38614E+03 -5.15108E+04  5.43181E+04  7.83260E+01
  3.54090E+04  5.02703E+04 -2.06520E+04  7.62305E+04 -6.11878E+04  6.38406E+04 -8.27798E+04  3.26493E+04
 -7.97465E+04 -1.16217E+04 -5.55312E+04 -5.26699E+04 -1.14003E+04 -6.78964E+04  2.84923E+04 -4.40104E+04
  3.69862E+04  1.47257E+03  1.84833E+04  4.70722E+04 -3.23404E+04  5.07065E+04 -6.48031E+04 -3.82263E+02
 -4.88766E+04 -5.57997E+04 -5.72117E+03 -7.62013E+04  3.49287E+04 -5.42412E+04  4.65693E+04 -1.67437E+04
  4.24796E+04  1.21467E+04  3.17851E+04  2.65549E+04  1.48654E+04  2.81127E+04 -4.57193E+03  2.77784E+04
 -2.10202E+04  1.34382E+04 -2.18112E+04 -5.06129E+03  4.48104E+03 -9.09242E+03  2.04744E+04  9.81174E+03
  8.70988E+03  3.29918E+04 -2.75021E+04  3.11513E+04 -5.85975E+04 -7.16444E+02 -5.62731E+04 -3.84691E+04
 -1.93481E+04 -6.12509E+04  4.02802E+04 -3.96924E+04  5.68257E+04 -4.67787E+03  3.08600E+04  2.90859E+04
 -4.85552E+03  3.36062E+04 -2.82098E+04  1.27986E+04 -2.68966E+04 -4.87961E+03 -1.46264E+04 -1.14607E+04
 -3.49581E+03 -8.01702E+03  4.80329E+02 -1.58218E+04  8.88905E+03 -2.55053E+04  9.28907E+03 -1.23919E+04
  1.34168E+04  7.15737E+03 -6.03739E+03  1.59717E+04 -1.90784E+04 -1.85228E+03 -7.34412E+03 -2.99001E+04
  1.85879E+04 -3.43228E+04  4.04734E+04 -2.10851E+04  3.94155E+04  2.05430E+04  1.38544E+04  3.71994E+04
 -1.76135E+04  3.52887E+04 -2.10936E+04 -1.38354E+03 -9.44445E+03 -2.69898E+04  1.91797E+04 -2.91493E+04
  3.76671E+04 -7.77441E+03  3.12212E+04  2.31628E+04  1.69932E+04  4.27012E+04 -8.83084E+03  4.64899E+04
 -2.53580E+04  2.99764E+04 -3.48883E+04  8.88974E+03 -3.55019E+04 -1.31160E+04 -2.12311E+04 -3.87122E+04
  4.72619E+03 -3.42707E+04  2.88994E+04 -1.38423E+04  2.40390E+04  9.44293E+03 -9.66266E+02  1.84290E+04
 -1.05853E+04  6.71645E+03 -4.33997E+03 -1.09802E+04  7.12460E+03 -1.15679E+04  2.00981E+04  3.21571E+03
  1.16918E+04  1.73778E+04 -5.59549E+03  2.16863E+04 -2.28391E+04  9.41904E+03 -2.33502E+04 -5.11380E+03
 -1.14009E+04 -1.58343E+04 -9.22456E+03 -1.42654E+04  5.34184E+03 -1.04018E+04  1.12640E+04 -1.51370E+04
  2.17008E+04 -1.12489E+04  2.71412E+04  8.49170E+02  2.23761E+04  1.38762E+04  9.69586E+02  3.18215E+04
 -1.74561E+04  2.70966E+04 -2.45011E+04  1.11701E+04 -1.64827E+04 -1.22662E+04 -6.21016E+03 -1.37947E+04
  1.63307E+03 -7.19388E+03 -1.03691E+03  3.06257E+03 -1.28997E+04  9.52251E+03 -1.45627E+04 -2.88588E+03
 -6.88267E+03 -6.31547E+03  6.84240E+03 -1.51255E+04  1.03205E+04 -1.43816E+04  1.34375E+04  5.00711E+03
  8.87212E+03  6.38961E+03 -3.02574E+02  1.40400E+04 -1.15051E+04  8.53104E+03 -1.20178E+04 -4.20646E+03
 -1.55938E+04 -1.08405E+04 -4.30081E+03 -1.89769E+04  4.64181E+03 -1.36953E+04  1.80891E+04 -8.46664E+03
  1.29338E+04  1.79230E+03  1.09177E+04  4.12766E+03  3.66223E+03  1.94075E+03  5.36427E+03  3.47695E+02
  1.54112E+04 -1.83109E+03  1.12595E+04  1.12550E+04  7.40749E+03  2.06927E+04 -2.49137E+03  2.68045E+04
 -1.45925E+04  1.93637E+04 -2.37253E+04  8.34912E+03 -2.34867E+04 -1.93654E+02 -2.01701E+04 -1.56640E+04
 -8.73604E+03 -1.56929E+04  8.91933E+03 -1.90606E+04  1.23379E+04 -9.79187E+03  1.15155E+04  6.96450E+03
  8.05377E+03  8.95524E+03 -7.24207E+03  9.61232E+03 -1.15512E+04  1.25402E+03 -9.98453E+03 -6.33314E+03
  2.46815E+03 -9.60729E+03  6.21394E+03 -1.26976E+04  4.62175E+03  1.11348E+03 -1.96618E+03  7.10645E+03
 -3.41214E+03  1.33310E+03 -7.75671E+01 -5.01472E+03  1.13132E+03 -9.11053E+03  5.65301E+03 -1.01082E+04
  7.29983E+03 -3.83602E+03  8.23345E+03  3.31467E+03  6.50026E+03  1.03273E+04  4.90615E+03  1.16764E+04
  2.26411E+03  1.59193E+04 -9.53868E+03  9.36811E+03 -1.16606E+04  6.32649E+03 -4.69344E+03 -2.57767E+03
 -4.83048E+03 -1.33751E+03 -4.33465E+03  2.58991E+02 -3.79449E+03  1.11044E+03 -5.72184E+03  5.16810E+03
 -8.55405E+03  7.89501E+02 -3.51082E+03 -6.87973E+03 -5.82071E+03 -9.73620E+03  7.10125E+03 -4.25132E+03
  4.82016E+03 -5.51737E+02  3.35178E+03  2.36691E+03  1.45192E+03  2.70974E+03 -4.14228E+02 -2.78874E+03
 -2.58195E+03 -5.67777E+03 -5.16703E+03 -7.81237E+03 -2.93883E+02 -7.76717E+03  6.89167E+03 -2.62629E+03
  1.18822E+04 -1.16385E+03  5.40016E+03  2.40218E+03  4.61533E+03  1.09949E+04 -2.96844E+03  7.32727E+03
 -8.86577E+03  5.38312E+03 -4.09309E+03 -3.67726E+03  1.30122E+03  3.89812E+02  7.53701E+03 -3.49451E+03
  3.21749E+03  3.18666E+03  3.18440E+03  7.21004E+03 -3.83391E+03  5.00211E+03 -1.86385E+03  1.29061E+03
 -8.14856E+03 -1.70579E+03  3.28970E+02 -7.33900E+03  3.69472E+03 -4.60893E+03  4.01093E+03  3.46003E+02
  2.62371E+03  5.70685E+03 -8.53977E+03  1.80027E+03 -2.20541E+03  2.53996E+03 -5.10774E+02 -2.39483E+03
 -1.69375E+03 -9.22338E+03  4.07703E+03 -6.73021E+03  7.94015E+02 -5.31179E+03  9.67013E+03  2.02390E+03
  4.98749E+03  4.46507E+03  6.09430E+02  5.62777E+03 -4.15313E+03  2.20536E+03 -5.18491E+03 -2.24603E+03
 -9.15194E+03 -2.89810E+03 -3.65213E+03 -3.24793E+03 -3.11342E+03 -7.11625E+03  2.93259E+03 -6.77522E+03
  4.20357E+03 -1.57042E+03 -4.76027E+03  4.10945E+03  1.93414E+03 -2.52020E+03 -2.14530E+02  6.09918E+02
  8.31186E+03  3.71471E+03  4.65671E+03 -2.34950E+03  1.19107E+03 -2.10759E+02  4.24003E+03  7.99682E+03
 -4.31510E+02  5.30150E+03 -6.96358E+03  6.02831E+03 -1.11018E+04  1.43433E+03 -5.75677E+03 -3.23145E+03
 -2.55035E+03 -8.12485E+03 -2.48827E+03 -2.68181E+03  2.46829E+03 -6.52813E+03  8.58670E+02 -3.11964E+03
 -5.19365E+01 -2.25623E+03  4.64323E+03 -5.86961E+03  4.40507E+03 -1.89380E+03  5.50771E+03 -2.91193E+03
  3.77149E+03  2.20182E+03 -4.67768E+02  4.29348E+03 -2.43911E+03  3.31096E+03  1.12715E+01 -3.23163E+03
 -4.97147E+03 -7.67590E+01  2.16232E+03 -4.12291E+03 -4.07304E+03 -1.31908E+02  7.04839E+02 -2.66460E+03
 -1.92434E+01 -6.50681E+03  7.80474E+03  3.84088E+02  5.86806E+03  4.04015E+02  4.15897E+03  4.38423E+03
  1.76829E+03  7.08587E+03 -3.28743E+03  3.91941E+03  9.00590E+02 -3.79241E+03 -3.94694E+02  6.30872E+03
 -6.28843E+02 -1.47551E+03  2.91183E+03  6.11594E+02 -7.35092E+03 -8.31539E+02 -6.40726E+03 -2.64215E+03
  1.82153E+03 -1.61325E+03  9.15734E+02 -1.82273E+03  5.15553E+03 -2.57551E+03  2.43684E+03 -5.09136E+03
  2.49840E+03  1.56007E+03  7.39194E+02  8.47647E+02 -2.35303E+03  1.37048E+03 -4.05660E+03 -2.44873E+02
 -5.34194E+03 -5.43545E+02 -7.88489E+03  8.62300E+02  2.17333E+03 -3.55367E+03 -1.47061E+03 -3.39849E+03
  1.58632E+03 -1.42189E+03  2.84170E+03 -1.18906E+03  3.35708E+03  3.90259E+03 -2.26397E+03 -2.60931E+03
  1.15801E+03  2.03592E+02 -2.08108E+03  2.60322E+02 -3.44995E+02  2.32333E+03 -9.68953E+02  3.44654E+03
 -4.06823E+02 -1.04539E+03 -1.61584E+03  2.99198E+02 -2.32898E+03 -2.24998E+03 -3.01108E+03  2.74235E+03
 -3.29005E+03 -6.33014E+03  8.20408E+02 -8.17937E+03  5.08791E+02 -5.61999E+03  1.68870E+03 -2.40603E+03
  1.95844E+03 -1.48701E+03  2.95814E+03  1.74423E+03 -6.37813E+02  2.60369E+03 -3.88541E+03  2.85896E+03
 -6.74648E+02 -3.29862E+03  1.25889E+03 -4.21359E+03 -1.38121E+03 -9.70403E+02  2.86057E+03  3.18287E+03
  2.30059E+03  1.44493E+03  1.46692E+03  2.50163E+03  2.24567E+03 -2.99927E+03  4.16952E+03 -1.12327E+03
  9.85166E+02  7.23268E+02  1.92089E+03 -1.91938E+03  3.75356E+03  1.14177E+03  2.89094E+02  1.82229E+03
 -9.73239E+01  8.82089E+02 -2.43166E+03  4.28008E+03 -6.83605E+01 -5.29709E+02 -4.94249E+03 -2.81375E+03
 -1.13524E+03 -3.41048E+03  5.92856E+03  4.07689E+03  1.82066E+02  2.52471E+03 -3.28790E+03 -4.02947E+02
 -3.83671E+03 -3.17885E+02  7.74835E+02 -1.63244E+03 -3.40944E+02  3.39946E+02  4.76359E+03 -3.74076E+03
  1.46049E+03  1.44648E+02 -1.99799E+03  7.53096E+02 -1.26690E+01  2.15521E+03  2.98973E+03 -3.69091E+03
 -1.67524E+03  5.54327E+03 -2.45000E+03  2.69716E+03 -1.94954E+03 -3.10825E+03  1.65184E+03  5.05584E+02
  4.49803E+03  1.81429E+03  2.91145E+02  5.33727E+03  6.95249E+02  3.41913E+03 -2.44888E+03  1.81268E+01
 -2.85897E+03 -5.51803E+03 -2.30059E+03  8.20119E+02  7.46008E+02 -1.24943E+03 -1.56907E+03 -1.86528E+03
  3.15831E+03 -2.97252E+03  1.48425E+03 -9.73334E+02  5.12871E+03  5.09479E+02 -1.82195E+03  3.37560E+03
  2.57006E+03  1.92926E+03 -3.27550E+03  2.30436E+03  2.19743E+03  1.65417E+03 -3.09811E+03  2.14142E+02
  2.74796E+03  1.07656E+03 -1.26018E+03  2.60628E+03 -2.90370E+03 -6.82054E+02 -1.79851E+03  1.45652E+03
 -2.94015E+03 -7.78175E+02  1.59041E+03 -3.93300E+03  3.17271E+03 -4.36985E+03  1.96810E+03  1.24460E+02
 -2.19717E+03  4.22704E+02 -2.93391E+03 -7.29841E+02  6.38608E+03 -4.66146E+02 -3.56369E+03  4.99777E+03
 -6.15106E+03 -7.32335E+02  2.41369E+03 -7.14831E+02  2.36599E+03 -3.91172E+03 -1.01293E+03  2.55083E+03
 -3.67186E+03 -2.77774E+03 -2.74753E+03 -9.85589E+02  2.42756E+03  2.46985E+03 -1.30888E+03 -2.54903E+03
  3.89227E+02 -2.68521E+03 -6.28013E+02  3.58315E+03  5.07552E+03  2.28375E+03  1.42542E+03  3.49929E+03
  1.46513E+03  2.35346E+03 -3.37757E+03  3.45571E+02 -3.71040E+03  2.92881E+03 -2.44508E+03 -2.96591E+03
 -3.95324E+02 -4.30708E+02 -1.62718E+02 -1.56875E+03 -1.03133E+03 -4.40648E+02  3.91916E+03 -7.32045E+02
 -1.94955E+03  1.18651E+03 -2.98621E+03  2.25850E+03 -2.47636E+02 -6.81086E+02  5.10645E+03 -1.02015E+03
 -1.17769E+03 -3.21677E+03 -1.25350E+03  3.14756E+03 -3.27162E+02  1.06569E+03 -5.34622E+02  1.33476E+03
 -3.57911E+03 -1.83998E+02 -4.56565E+03 -1.39960E+03 -1.96057E+03  5.03865E+02  3.85791E+03  3.95166E+02
  4.30445E+02  3.88624E+02 -2.77087E+02 -6.28128E+02 -1.56372E+03  3.55948E+02  3.87415E+03 -1.60026E+03
  5.44049E+03 -1.88166E+03  3.26672E+03 -1.13763E+02 -7.22679E+02  1.97899E+03  4.48079E+01 -3.09199E+03
  4.68269E+02  8.84665E+02 -1.22007E+03 -3.22085E+03 -2.88328E+03 -4.57032E+02  4.28716E+03 -3.38127E+02
  1.41045E+03 -9.85989E+02  2.24489E+03 -2.81701E+03  3.78691E+03 -3.24771E+03 -5.09524E+02 -5.04630E+02
  1.25361E+03  1.73230E+03  3.40920E+02 -1.93976E+03  5.25140E+03 -1.19250E+03  2.71549E+03 -4.48059E+03
