 $NMID ID='MM_0lb_SNR50_13hz_g40_40.RAW', FMTDAT='(8E13.5)'
 TRAMP=1., VOLUME=1. $END
  3.08940E+05 -2.44769E+03  3.40089E+05  2.52312E+05  8.63122E+04  3.34867E+05 -1.28391E+05  2.52806E+05
 -1.89634E+05  8.53303E+04 -1.12010E+05 -3.41693E+04  3.63410E+02 -5.44770E+04  5.83170E+04 -5.73975E+03
  3.66818E+04  5.18457E+04 -1.68361E+04  7.64878E+04 -5.98129E+04  6.04871E+04 -8.22592E+04  3.32157E+04
 -7.68671E+04 -9.81031E+03 -5.74599E+04 -5.25297E+04 -1.65527E+04 -7.41138E+04  2.75101E+04 -4.48899E+04
  4.11705E+04  6.08689E+03  1.90137E+04  5.05359E+04 -3.66625E+04  4.77026E+04 -6.44007E+04 -2.83607E+03
 -5.72355E+04 -5.59298E+04 -6.16542E+03 -7.83051E+04  3.77481E+04 -5.68912E+04  4.99841E+04 -2.17397E+04
  3.96148E+04  1.09492E+04  3.12394E+04  2.56388E+04  1.63046E+04  2.72995E+04 -8.51193E+02  2.41645E+04
 -2.50024E+04  1.50878E+04 -2.32062E+04 -6.83078E+03  9.28790E+03 -1.04182E+04  1.90209E+04  1.47281E+04
  5.88339E+03  3.55947E+04 -3.05403E+04  3.52770E+04 -6.51607E+04 -2.10172E+03 -5.95883E+04 -3.64114E+04
 -1.42270E+04 -6.37402E+04  3.56966E+04 -4.23292E+04  5.92229E+04 -3.03750E+03  3.75024E+04  3.64388E+04
 -4.03379E+03  3.39862E+04 -2.63176E+04  1.37318E+04 -2.52309E+04 -3.06694E+03 -1.43280E+04 -1.18554E+04
 -7.31942E+03 -1.55826E+04 -7.62991E+03 -1.96265E+04  1.04345E+04 -2.15424E+04  1.14056E+04 -1.26266E+04
  9.84068E+03  1.44781E+03 -9.74079E+03  9.23442E+03 -1.90140E+04 -6.32384E+03 -1.07894E+04 -3.03615E+04
  2.11877E+04 -4.33933E+04  4.81030E+04 -2.24113E+04  4.63384E+04  2.06940E+04  1.43092E+04  4.24034E+04
 -1.38426E+04  3.28094E+04 -2.70258E+04 -1.75304E+02 -8.65709E+03 -2.96258E+04  1.84709E+04 -3.68214E+04
  3.72634E+04 -1.30984E+04  3.66047E+04  2.33697E+04  2.00013E+04  4.81655E+04 -8.81202E+03  5.35842E+04
 -3.27393E+04  2.95892E+04 -4.43691E+04  5.92946E+03 -4.49268E+04 -1.52938E+04 -2.13115E+04 -3.68232E+04
  3.23471E+03 -4.03426E+04  3.14635E+04 -1.31673E+04  2.89267E+04  1.23180E+04  2.63757E+03  1.71789E+04
 -1.61090E+04  2.98272E+03 -8.12858E+03 -6.53817E+03  7.02599E+03 -9.41506E+03  1.78064E+04  9.03287E+02
  1.19897E+04  1.85249E+04 -5.48147E+03  2.14962E+04 -2.00081E+04  1.72653E+04 -2.96676E+04 -4.56197E+03
 -2.16744E+04 -1.71954E+04 -7.95111E+03 -2.05956E+04  5.44877E+03 -2.00220E+04  1.31265E+04 -1.82337E+04
  2.17047E+04 -8.75735E+03  2.96578E+04 -6.06383E+02  2.68660E+04  1.95994E+04  1.12604E+04  4.08548E+04
 -1.19964E+04  3.29931E+04 -2.82787E+04  1.86620E+04 -1.63630E+04 -1.15364E+04 -9.03935E+03 -8.91571E+03
  4.12460E+02 -3.18828E+03 -3.90773E+03  1.10033E+04 -1.80956E+04  5.46137E+03 -2.07062E+04 -3.77591E+02
 -9.12372E+03 -2.08183E+04  3.19924E+03 -2.39018E+04  1.39091E+04 -1.52510E+04  2.01194E+04  1.14899E+03
  1.00052E+04  1.12655E+04  8.93372E+02  1.97633E+04 -1.28309E+04  8.52532E+03 -1.50698E+04 -4.00898E+03
 -1.67399E+04 -1.68463E+04 -1.71114E+03 -1.96156E+04  1.30218E+04 -1.96774E+04  1.87706E+04 -3.10214E+03
  2.05381E+04 -1.06812E+03  1.63664E+04  5.43782E+03  9.89263E+03 -1.03245E+03  1.01930E+04 -2.76257E+03
  1.06699E+04  5.11237E+03  2.16915E+04  1.47329E+04  1.76100E+04  3.04915E+04 -4.94677E+03  3.46958E+04
 -1.75762E+04  2.91244E+04 -3.16225E+04  1.87881E+04 -3.65203E+04 -3.22595E+03 -2.72535E+04 -2.16202E+04
 -1.60424E+04 -2.77467E+04  1.36374E+04 -2.71234E+04  2.31791E+04 -1.62806E+04  2.30737E+04  5.45993E+03
  1.22863E+04  1.31065E+04 -8.07911E+03  1.29344E+04 -1.71714E+04  7.44221E+03 -1.41536E+04 -1.48533E+04
 -8.30385E+02 -1.32107E+04  1.06589E+04 -1.65644E+04  1.12111E+04 -3.98506E+03  2.98371E+03  9.64409E+03
 -8.89716E+03  1.34692E+03 -7.20490E+03 -6.06053E+03  2.43667E+03 -1.29144E+04  1.16266E+04 -1.17661E+04
  1.00312E+04 -9.88174E+03  1.81016E+04  3.81688E+03  1.12933E+04  1.49770E+04  6.24633E+03  1.84594E+04
 -6.39348E+03  2.44653E+04 -1.61551E+04  8.43102E+03 -2.10283E+04  4.92248E+03 -1.01452E+04 -1.81904E+03
 -5.31480E+03 -3.68114E+02 -2.80405E+03  1.14494E+03 -2.58211E+03  3.23085E+03 -1.36390E+03  7.09226E+03
 -1.03043E+04  2.03459E+03 -1.32678E+04 -9.65836E+03 -7.94151E+03 -1.33325E+04  7.38096E+03 -1.59260E+04
  1.12644E+04 -1.39050E+03  6.72856E+03  1.79604E+03 -1.88028E+03  4.70881E+03 -7.86466E+02 -2.03325E+03
 -8.88468E+03 -3.12124E+03 -5.34402E+03 -5.60973E+03  7.44569E+03 -6.15000E+03  1.24422E+04 -6.83684E+03
  1.39107E+04 -2.70208E+03  1.19681E+04  8.91929E+03 -8.70503E+02  1.15508E+04 -2.65950E+03  1.06657E+04
 -1.23366E+04  6.15239E+03 -7.87413E+03 -1.01241E+03  6.41615E+03  2.01062E+03  1.02157E+04 -5.64223E+03
  6.63817E+03  8.66999E+03  7.98037E+02  8.70886E+03 -8.41240E+03  7.17910E+03 -9.79860E+03  8.53425E+02
 -9.76622E+03 -5.82177E+03 -2.92099E+03 -7.35752E+03  3.71654E+03 -5.29226E+03  9.42099E+03  1.78153E+03
  5.13746E+03  1.10324E+04 -3.14258E+03  9.02202E+03 -7.23835E+03  1.20552E+03 -8.37263E+03 -1.50066E+03
 -6.07989E+03 -8.11747E+03  5.64402E+03 -1.09189E+04  1.36439E+04 -8.28963E+03  7.02622E+03  4.72491E+03
  4.61167E+03  1.09842E+04  7.57981E+02  1.24806E+04 -7.23382E+03  4.82957E+03 -1.09035E+04 -3.12487E+03
 -1.03460E+04 -5.69051E+03 -3.54754E+03 -4.24287E+03  5.04013E+03 -4.03045E+03  6.24722E+03 -2.33275E+03
  2.76140E+03  7.94651E+03  3.01176E+03  3.42443E+03 -1.29916E+03 -2.82107E+03  5.62933E+02 -4.21396E+03
  6.93527E+03  3.32915E+02  8.97052E+03 -3.44096E+02  7.63841E+03  1.01461E+04  6.82576E+03  1.41131E+04
 -6.68647E+03  1.72981E+04 -1.15281E+04  6.98582E+03 -2.08312E+04  1.39387E+03 -1.25644E+04 -4.31073E+03
 -4.28295E+03 -1.74864E+04  1.61232E+03 -1.19288E+04  2.29986E+03 -5.80545E+03  2.61826E+03 -5.68849E+03
  4.17005E+03 -1.97056E+03  6.76984E+03 -1.97881E+03  7.39128E+03 -2.49023E+03  3.66007E+03 -5.05755E+02
  7.38274E+03 -2.08810E+03  4.90671E+03  1.08940E+03  1.95778E+03  6.90062E+03 -1.02384E+03  4.31802E+03
 -1.13815E+04 -1.07191E+03 -1.41666E+03 -8.64837E+03 -4.47043E+03 -5.42319E+03  8.27718E+03 -1.08685E+04
  5.23379E+03 -6.09843E+03  9.98161E+03  1.21914E+03  1.33508E+04  4.49120E+03  2.46366E+03  1.39109E+04
 -4.01427E+03  9.21558E+03 -7.18887E+03  9.78617E+02 -7.44942E+03 -9.10573E+02 -1.02143E+02  3.60556E+03
 -2.33332E+01  1.76730E+03 -8.96713E+02  7.12093E+03 -1.09582E+04  6.26826E+03 -8.31343E+03 -1.02427E+03
 -5.56905E+02 -8.54586E+03 -1.13489E+03 -1.64968E+04  8.82160E+02 -7.68861E+03  9.08470E+03 -4.18394E+01
  1.05063E+04  7.76126E+03  6.51210E+03  6.87678E+03 -3.95928E+03  1.05680E+04  9.81439E+02  6.08419E+03
 -6.00247E+03  2.02917E+02 -2.98759E+03 -8.16714E+03 -2.75090E+03 -8.28136E+03  5.54879E+03 -3.96961E+03
  9.12458E+03  1.05354E+03  1.48679E+03 -3.86243E+03 -2.06514E+03  2.30991E+03  6.83973E+03  5.92303E+03
  1.83908E+03  1.78050E+03  6.14181E+03 -1.94403E+02  4.57598E+02 -2.85596E+03  4.33131E+03  4.23291E+03
  5.81435E+02  6.39496E+03 -4.27338E+03  1.15577E+04 -4.71910E+03 -7.25086E+02 -8.40468E+03 -4.91207E+03
 -3.48194E+03 -3.00477E+03  3.09763E+03 -1.23601E+04  4.96364E+03 -2.14021E+03  3.01263E+03  7.68139E+02
  3.48795E+03  1.97724E+03 -1.91440E+02  7.33179E+03 -4.92052E+02  1.86481E+03 -6.74909E+03 -1.99077E+02
 -4.16265E+03 -1.90869E+03  8.41238E+02 -1.96230E+03  1.89912E+03 -4.94288E+03  4.98883E+03  2.73500E+02
  2.25403E+03 -7.61891E+02  2.30990E+03  3.70393E+03 -2.18150E+03 -3.60862E+02  1.73126E+03 -2.49205E+03
 -3.94580E+03 -2.42322E+03  3.48858E+03  1.29016E+02  1.42719E+03  5.09136E+03 -3.98619E+03  4.59709E+03
 -2.02047E+03 -3.79073E+02 -5.06361E+03  3.58735E+03 -2.03184E+03  8.36852E+02 -1.77521E+03 -3.12675E+03
 -5.93041E+02 -3.64509E+02  4.35741E+02 -9.72822E+02  3.29044E+03  6.31629E+03  3.14243E+03  5.76627E+03
 -5.43949E+03  3.92974E+03 -6.80050E+03 -7.13743E+03 -4.18968E+03 -5.57789E+03 -8.11391E+01 -6.95634E+03
  2.87150E+03 -5.36831E+03  2.50952E+03  1.99637E+02  5.03347E+03  3.59767E+03 -3.24035E+03  5.05431E+03
 -1.95438E+03  1.06002E+02 -2.91415E+03  5.97470E+03  7.87923E+03 -3.56276E+03  8.24726E+03 -3.03949E+03
  6.08364E+03 -3.82689E+03  6.59909E+03  3.02402E+03  6.78630E+03  7.57028E+03 -3.27028E+03  4.21350E+03
 -3.14418E+03  5.56413E+03 -1.00519E+04  1.08630E+03 -8.61235E+02 -3.46471E+03 -4.19784E+03  1.35205E+03
 -2.01626E+03 -3.54713E+03  6.80498E+02  3.16227E+03 -1.92437E+03  6.57545E+03 -1.44449E+03  2.72067E+03
  9.83438E+02  2.51597E+03  2.42191E+02  2.28360E+03  2.34058E+03  2.48698E+03  9.32669E+02  1.65180E+03
  4.94209E+03 -3.14853E+02 -4.04900E+03  6.54136E+03 -2.40544E+03 -1.21435E+03 -4.79884E+03  6.98544E+02
 -7.20514E+03 -6.17837E+03 -3.03597E+02 -2.91269E+03  8.77917E+02 -7.55986E+03  9.20622E+03 -2.11958E+03
  7.26566E+03  1.02101E+03  3.82624E+03  5.54111E+03  4.07772E+03  4.84028E+03  5.12146E+03  5.52456E+03
  9.28740E+01  2.49636E+03 -3.29155E+03  2.37387E+03 -4.56261E+03  3.83595E+03  3.36122E+02  4.82561E+03
  3.51305E+03  4.84629E+03  6.31874E+02  1.40085E+03 -5.23576E+01  8.94582E+02 -1.52337E+03 -6.13479E+03
 -4.88841E+02 -2.81090E+03 -3.22825E+03 -7.81623E+02  3.39470E+03  3.39890E+03  3.36783E+03  7.60854E+03
 -1.80798E+03  4.71289E+03 -2.10454E+03  7.11188E+03 -5.12062E+03 -3.86915E+03  1.34771E+03 -1.74043E+03
 -3.10805E+03 -4.17990E+03 -1.10215E+03 -2.28390E+03  2.54996E+03 -1.23660E+03  6.05152E+03 -1.44458E+03
 -3.15357E+02  1.52886E+03  9.08737E+02  2.61525E+03  1.35384E+02 -1.47986E+02 -7.91817E+02  3.99992E+03
  4.21625E+03 -6.28072E+03  3.18402E+03 -4.90741E+02  8.21384E+02  2.28061E+03  9.21915E+02  9.70191E+02
 -1.49568E+03  1.57543E+03 -6.16264E+03 -1.51852E+03 -4.40457E+03 -1.26260E+03 -3.19948E+02 -2.36709E+03
 -5.53419E+03  1.54257E+03  2.29406E+03 -2.22549E+03  7.69626E+03  5.68921E+03  2.56589E+03  1.09910E+03
  2.75239E+03  3.11395E+03 -3.03977E+03  3.04827E+03 -4.83226E+03  2.25021E+03  1.06429E+03 -3.03983E+03
  1.66867E+03  3.19574E+03  2.30858E+03 -2.81558E+03 -3.22462E+03  1.87091E+03 -2.84721E+03 -7.88374E+03
 -2.60460E+03 -2.45681E+03 -2.40277E+03 -9.35606E+02  2.04307E+03 -1.06575E+03  5.76128E+03 -1.11157E+03
  1.54578E+03  1.04474E+03  3.35295E+03  2.29972E+03 -1.59663E+03  1.97232E+03  1.86878E+03  4.03561E+03
