 $NMID ID='MM_0lb_SNR50_15hz_g50_23.RAW', FMTDAT='(8E13.5)'
 TRAMP=1., VOLUME=1. $END
  3.12680E+05  1.43605E+03  3.38882E+05  2.48490E+05  8.56840E+04  3.37906E+05 -1.28250E+05  2.51382E+05
 -1.88135E+05  8.84157E+04 -1.11169E+05 -3.46612E+04  4.58215E+02 -4.99254E+04  4.79596E+04 -1.90024E+03
  3.33292E+04  4.91617E+04 -1.73536E+04  8.00635E+04 -5.79276E+04  6.80602E+04 -8.96156E+04  2.99898E+04
 -8.35672E+04 -1.30997E+04 -5.43661E+04 -5.09126E+04 -1.73641E+04 -6.70560E+04  3.12014E+04 -4.92727E+04
  3.76629E+04  4.91681E+03  1.31058E+04  4.56116E+04 -3.58921E+04  4.53231E+04 -6.64485E+04  4.31383E+03
 -5.27932E+04 -5.53458E+04 -6.34010E+03 -7.34739E+04  2.83404E+04 -5.90521E+04  4.58750E+04 -2.12054E+04
  4.12684E+04  1.30860E+04  3.74831E+04  2.50970E+04  1.41364E+04  3.28968E+04 -1.14703E+04  2.66042E+04
 -2.28000E+04  8.37070E+03 -2.20362E+04 -6.85950E+03  4.98921E+03 -1.65810E+03  2.18763E+04  1.09771E+04
  8.01749E+03  3.32093E+04 -3.26596E+04  3.38600E+04 -6.14925E+04 -1.20703E+01 -5.62338E+04 -4.52653E+04
 -1.19123E+04 -6.01087E+04  4.18532E+04 -4.75603E+04  6.12704E+04  2.77365E+02  3.19677E+04  3.08614E+04
 -3.21987E+03  3.97770E+04 -2.81825E+04  1.64215E+04 -2.69511E+04 -5.82193E+03 -1.63065E+04 -8.29760E+03
 -4.40800E+03 -1.49954E+04 -1.57989E+03 -1.66609E+04  9.56752E+03 -3.10288E+04  1.47158E+04 -1.50517E+04
  8.94277E+03  4.89860E+03 -7.61865E+03  1.04015E+04 -1.78747E+04 -2.97171E+03 -6.20783E+03 -3.60486E+04
  2.35016E+04 -4.45432E+04  4.85294E+04 -1.77365E+04  5.05435E+04  1.64811E+04  1.21157E+04  5.10748E+04
 -1.30552E+04  3.63070E+04 -1.85473E+04 -1.02566E+03 -9.62785E+03 -3.05605E+04  2.12227E+04 -3.04049E+04
  4.04357E+04 -1.03173E+04  3.52398E+04  2.53756E+04  1.55045E+04  4.67069E+04 -9.48969E+03  4.75866E+04
 -3.41445E+04  3.06443E+04 -4.37394E+04  8.61638E+03 -4.09765E+04 -2.34653E+04 -2.44910E+04 -3.58996E+04
  1.03426E+04 -3.30326E+04  2.96067E+04 -1.42834E+04  3.06148E+04  8.99128E+03  5.39138E+03  1.61363E+04
 -1.15882E+04  8.87702E+03 -9.78291E+03 -8.31009E+03  6.34563E+03 -1.38077E+04  2.04600E+04  8.81050E+03
  7.06214E+03  2.48045E+04 -3.49653E+03  2.45512E+04 -1.91505E+04  1.23793E+04 -3.00838E+04 -2.45220E+03
 -2.60412E+04 -1.90342E+04 -1.03198E+04 -2.06885E+04  4.73109E+03 -1.25771E+04  2.03546E+04 -1.73218E+04
  2.39354E+04 -9.13491E+03  3.65287E+04  2.42777E+03  2.36085E+04  2.20163E+04  7.55364E+03  3.20868E+04
 -1.71442E+04  2.73050E+04 -2.75181E+04  1.07244E+04 -1.82504E+04 -1.69856E+04 -8.88863E+03 -1.46338E+04
  3.18101E+03 -7.48959E+02 -3.88526E+03  8.39463E+03 -1.83979E+04  9.04801E+03 -1.45244E+04 -8.35827E+03
 -7.79851E+03 -1.63477E+04  1.80032E+03 -2.25627E+04  1.60313E+04 -1.71226E+04  1.79625E+04 -7.29748E+02
  7.40837E+03  1.07741E+04  2.64930E+02  1.88773E+04 -1.49623E+04  1.09137E+04 -1.93699E+04 -5.21190E+02
 -1.08957E+04 -1.07920E+04 -5.48523E+02 -2.00772E+04  1.51706E+04 -1.35949E+04  1.69034E+04 -7.69236E+03
  1.34846E+04 -5.02292E+03  8.93705E+03  3.12317E+03  7.01147E+03 -1.66075E+03  8.58234E+03 -2.67985E+03
  1.85755E+04  1.56748E+02  1.86101E+04  1.62194E+04  1.27271E+04  3.35812E+04 -3.82222E+03  3.02006E+04
 -1.95420E+04  1.89587E+04 -2.59738E+04  1.11119E+04 -2.95354E+04 -2.41564E+03 -2.82843E+04 -1.94101E+04
 -8.32301E+03 -2.46428E+04  1.00232E+04 -2.34195E+04  2.00730E+04 -1.48143E+04  1.76946E+04  2.91032E+03
  5.40697E+03  1.34301E+04 -1.30364E+04  1.41114E+04 -1.86143E+04  5.51473E+03 -1.78339E+04 -5.68715E+03
  4.31403E+03 -1.66078E+04  5.86683E+03 -8.65885E+03  8.60059E+03 -7.96498E+02  2.62063E+02  5.62435E+03
 -6.60999E+03  3.79217E+03 -6.00867E+03 -6.29966E+03 -1.02037E+03 -1.66525E+04  1.17777E+04 -1.55910E+04
  1.59281E+04 -6.73947E+03  1.46313E+04 -1.33069E+03  1.61502E+04  1.07747E+04  7.79662E+03  2.23188E+04
 -8.11178E+03  2.06588E+04 -1.04781E+04  1.69777E+04 -1.09142E+04  3.50044E+03 -1.37821E+04 -3.02172E+03
 -5.86460E+03 -2.47226E+03  1.16436E+03  3.77834E+03 -2.34697E+03  2.16054E+03 -4.03196E+03  4.14302E+03
 -1.09936E+04 -2.91981E+03 -5.29884E+03 -8.43426E+03 -1.28314E+03 -1.48841E+04  3.98902E+03 -8.86173E+03
  8.79802E+03 -1.66159E+03  7.37612E+03  3.05912E+03 -5.18309E+02  3.38116E+03 -2.57314E+03  2.24668E+03
 -5.80947E+03 -1.03178E+04 -3.29929E+03 -9.92614E+03  6.05657E+03 -5.78921E+03  1.55694E+04 -5.74119E+03
  1.40199E+04  3.09142E+03  9.90489E+03  1.12684E+04  1.71617E+03  1.14815E+04 -8.67883E+03  9.66794E+03
 -6.08589E+03  1.65249E+03 -9.87445E+03  4.10045E+02  4.69750E+03 -2.21923E+03  4.59457E+03 -2.63601E+03
  7.68672E+03  2.98302E+03 -2.42308E+02  4.13799E+03 -2.57431E+03  8.36142E+03 -7.75117E+03  2.48344E+01
 -4.90719E+03 -1.21060E+03 -2.38390E+03 -1.01475E+04  5.79042E+03 -4.07489E+03  3.25149E+03  6.51063E+02
 -1.05343E+03  3.58406E+03 -2.38671E+03  8.06598E+03 -8.82653E+03  3.47774E+03 -3.23652E+03 -1.34611E+03
 -2.46375E+03 -4.70694E+03  3.94249E+03 -1.28048E+04  9.04584E+03 -9.45753E+03  1.26587E+04 -6.62254E+02
  5.73714E+03  6.63805E+03  1.34024E+03  1.12669E+04 -9.23500E+03  8.18128E+03 -1.01983E+04 -2.58480E+03
 -6.04806E+03 -5.30547E+03 -1.37037E+03 -7.37352E+03  5.30910E+03 -6.75194E+03  2.40937E+03 -7.78707E+03
  4.36460E+03  2.39898E+03  3.95122E+03  3.69650E+02 -2.26750E+02  7.27803E+02 -2.39487E+03 -1.50607E+03
  5.01032E+03  7.27741E+02  1.22087E+04  7.34838E+01  7.90868E+03  8.32741E+03  5.81881E+03  9.84443E+03
 -6.92207E+02  1.26512E+04 -1.52051E+04  1.17106E+04 -1.34302E+04  5.68253E+03 -9.37648E+03 -7.11038E+03
 -7.92274E+03 -7.06406E+03  3.22325E+03 -8.62394E+03  3.15356E+03 -9.98459E+02 -7.61889E+02  2.67583E+03
  1.57073E+03 -3.99213E+03  1.78256E+03 -1.21415E+03  3.83662E+03 -3.83198E+03  8.49549E+02 -3.17572E+03
  5.66216E+03  2.28068E+03  3.30784E+03  9.98199E+03 -8.16927E+02  6.45931E+03 -5.63539E+03  5.77062E+03
 -4.74769E+03 -2.06455E+02 -4.59396E+03 -3.29007E+03  1.37658E+03 -5.19403E+03  4.52566E+03 -1.16941E+04
  7.90704E+03  5.45429E+01  5.64691E+03  3.19940E+03  8.42055E+03  5.62157E+03  9.39548E+02  1.02657E+04
 -4.37236E+03  1.05704E+04 -4.02384E+03  6.30099E+03 -7.96299E+03  8.42327E+02  2.73701E+02  1.12206E+03
  2.54918E+03  8.08293E+03 -3.23364E+03 -1.11519E+03  5.56585E+02  8.99949E+02 -3.48814E+03 -1.03512E+03
 -1.72478E+03 -1.41689E+04  1.97814E+03 -4.91706E+03 -2.70311E+03 -1.00569E+04  7.92132E+03 -1.60543E+03
  5.66873E+03  3.55204E+03  2.13251E+03  6.00879E+03 -1.72169E+03  4.06942E+03 -6.28457E+03  1.47347E+03
 -4.09726E+03  1.17022E+02 -2.02887E+03 -2.01332E+03  2.45509E+03 -6.94639E+03  3.81048E+03 -5.23562E+03
  3.55559E+03 -3.58775E+03  4.96384E+03 -4.69979E+02  3.99624E+03  3.75187E+03  3.13463E+03 -5.67730E+03
  3.78559E+03 -3.92716E+03  1.14828E+03  2.28833E+03  1.86923E+03  7.16948E+03 -7.57214E+02  9.94103E+02
 -8.54454E+02  1.00783E+04 -6.07139E+03  7.45192E+03 -5.83248E+03  1.39693E+03 -9.83731E+03 -4.96025E+03
 -1.56925E+03 -2.87140E+03  4.71805E+03 -9.18383E+03 -1.16722E+03 -5.34974E+03  8.04797E+03 -1.03360E+03
  5.10534E+03  1.52348E+03 -2.66311E+03  6.24603E+03 -5.82842E+02  2.82926E+03 -4.54181E+03  3.87195E+02
 -5.37866E+03 -2.14472E+03  5.46497E+03 -3.31756E+03  5.18698E+03  5.15911E+02 -1.11712E+02  2.81665E+03
  2.11315E+03  1.79668E+03  2.68881E+03 -3.54383E+01 -3.42405E+03  2.74630E+03  5.10346E+03 -1.05851E+02
 -3.26397E+02 -4.43429E+03  3.29841E+03  3.97891E+03  6.28105E+02  4.25178E+03  9.75094E+02  2.74104E+03
 -2.86107E+03 -6.88748E+02 -9.36318E+02 -8.54573E+02 -6.16061E+03 -1.00885E+03 -2.83269E+03  2.46506E+03
  3.91681E+03  3.22593E+03  3.49864E+03 -1.44701E+03  3.14171E+03  2.21520E+03 -4.67425E+02  4.07506E+03
  5.91641E+02  1.34329E+02 -1.99815E+03 -3.57667E+03 -3.58757E+03 -2.15157E+03 -9.36277E+02 -9.81279E+02
 -3.55379E+03  1.53839E+02  2.89720E+03  2.03765E+03 -2.17731E+03  4.86074E+03 -2.70032E+03  5.72276E+02
 -2.32874E+03  1.73113E+03  3.09105E+03 -4.56390E+02 -2.35576E+03  8.15345E+02 -2.26775E+03 -4.86748E+03
  7.22114E+02 -2.14937E+03  6.14998E+03  1.31459E+03  5.93043E+03  4.96914E+03  5.27991E+02  2.72351E+03
 -4.01505E+03  4.06310E+03 -1.38966E+03  1.99610E+03 -3.37394E+03 -4.47029E+03 -1.25030E+03  2.40520E+03
 -1.88979E+03 -5.00952E+02  4.71805E+03  2.41405E+02 -1.31167E+02  2.36930E+03 -2.20448E+03  1.90871E+02
 -8.26419E+02 -6.80604E+02  2.69985E+03 -1.49714E+03 -2.78346E+03  4.77718E+02  3.20502E+03  1.91708E+03
 -2.30879E+02  6.34486E+02 -3.15569E+03  3.52450E+03 -4.29484E+02 -2.93360E+03 -3.26616E+03 -1.55048E+03
 -6.06081E+03 -1.45155E+03 -9.74164E+02 -6.96105E+03 -1.45616E+03 -5.61681E+03  8.97513E+03 -1.81581E+02
  7.12260E+03  1.62223E+03 -2.80876E+02 -1.06357E+03 -1.83720E+02  4.79900E+03 -6.96458E+03  4.33777E+03
 -5.12630E+02  1.21672E+03 -3.68380E+03 -1.61585E+03  1.61380E+03 -7.74007E+02 -1.71491E+03  1.35124E+01
 -2.04225E+02  2.08882E+03 -5.11378E+03  8.86178E+02 -1.36963E+03 -1.89435E+03  2.33996E+03 -3.37742E+03
  4.44523E+03 -1.55008E+03 -3.64815E+03 -4.56444E+03  4.58752E+03 -6.88472E+02  6.95050E+01  2.95717E+03
 -5.84311E+03  5.94390E+03 -3.63284E+03  1.17475E+03 -4.42938E+03  8.92800E+02 -4.02929E+03 -1.69141E+03
  1.50819E+03 -1.01726E+03  2.49815E+03 -2.58886E+03  5.74980E+03 -1.72044E+01  3.77991E+03  5.63995E+01
  2.15367E+03  2.07422E+03  2.34678E+03 -2.22179E+03  1.70961E+02 -4.77969E+02  3.52423E+03 -3.45490E+03
  2.71357E+03 -6.96015E+01 -1.40631E+02 -3.64479E+03  2.44326E+03  9.38326E+02 -7.27875E+02  3.53056E+03
 -1.10482E+03 -3.86520E+03 -4.80814E+03 -2.89944E+03 -4.39193E+02 -3.21858E+03 -2.36097E+03 -4.99777E+03
  5.05243E+03 -4.64505E+03  6.71654E+03 -1.15557E+03  7.35422E+02  1.10683E+02  3.18112E+02  4.66639E+03
 -2.59281E+03  6.07884E+02 -4.75354E+03  4.93629E+03 -2.61379E+03  1.47910E+03  2.77992E+02 -2.66192E+03
 -4.07729E+03  3.04916E+02 -7.21906E+02 -9.77718E+02  4.01404E+03 -2.15531E+03 -4.39150E+03  3.82544E+03
 -2.59043E+03 -2.28977E+02 -3.96471E+03 -3.73457E+03  2.02421E+02 -6.51865E+02  1.80149E+03 -3.33545E+03
  6.27035E+02  6.39546E+02  6.52030E+02 -1.96940E+03 -1.88101E+03 -5.85179E+02  2.34532E+03  4.05376E+02
