 $NMID ID='MM_0lb_SNR50_11hz_g45_51.RAW', FMTDAT='(8E13.5)'
 TRAMP=1., VOLUME=1. $END
  3.08568E+05 -2.57378E+03  3.37684E+05  2.52132E+05  8.56377E+04  3.41169E+05 -1.31386E+05  2.49775E+05
 -1.90821E+05  8.76176E+04 -1.11738E+05 -3.20371E+04 -3.27958E+03 -4.90898E+04  5.06583E+04 -6.01279E+03
  2.94517E+04  5.30908E+04 -1.96334E+04  7.77273E+04 -6.21885E+04  6.16556E+04 -8.84315E+04  3.66812E+04
 -7.97826E+04 -1.22831E+04 -6.10599E+04 -5.14347E+04 -1.89276E+04 -6.39985E+04  3.36414E+04 -4.52062E+04
  3.80689E+04  9.93764E+03  1.03063E+04  5.04200E+04 -3.39033E+04  5.01605E+04 -6.78128E+04  6.87301E+03
 -5.20786E+04 -5.04139E+04 -7.07538E+03 -8.21866E+04  3.32670E+04 -5.38614E+04  5.19219E+04 -1.73695E+04
  4.03155E+04  8.17943E+03  3.55933E+04  2.42872E+04  1.63157E+04  2.88145E+04 -3.27211E+03  2.76790E+04
 -2.22767E+04  1.43550E+04 -2.21065E+04 -8.49694E+03  7.12565E+03 -9.75865E+03  2.56462E+04  1.31027E+04
  7.75113E+03  3.20087E+04 -3.68883E+04  3.62157E+04 -6.08009E+04 -2.86615E+02 -5.65885E+04 -4.99509E+04
 -1.07436E+04 -6.54885E+04  3.67267E+04 -4.67232E+04  6.24021E+04 -2.01925E+03  3.63038E+04  3.30407E+04
 -7.19866E+02  3.63043E+04 -3.76884E+04  2.32282E+04 -2.45018E+04 -1.63788E+03 -1.62537E+04 -1.45166E+04
 -6.55607E+03 -1.18310E+04 -3.18140E+03 -2.02168E+04  8.04465E+03 -1.76261E+04  2.10840E+04 -1.10397E+04
  8.40428E+03  4.49505E+03 -8.47850E+03  1.62054E+04 -2.09536E+04 -6.63690E+03 -6.86374E+03 -3.15753E+04
  1.98564E+04 -4.62960E+04  4.81860E+04 -1.40224E+04  4.95898E+04  1.77021E+04  1.48259E+04  4.76798E+04
 -1.85127E+04  3.64899E+04 -2.61326E+04  3.70616E+03 -7.07831E+03 -3.29247E+04  1.58773E+04 -3.45598E+04
  4.41365E+04 -1.56118E+04  3.97834E+04  1.97657E+04  2.28290E+04  4.39298E+04 -9.70292E+03  5.13357E+04
 -3.34480E+04  3.66845E+04 -4.41996E+04  1.11975E+04 -4.61450E+04 -2.27960E+04 -2.48085E+04 -3.89830E+04
  6.15994E+03 -3.49010E+04  2.99830E+04 -2.12748E+04  2.63948E+04  1.48200E+04  1.84957E+03  1.94934E+04
 -1.69674E+04  1.02273E+04 -1.17382E+04 -6.78071E+03  3.36534E+03 -7.39441E+03  1.71308E+04  6.15195E+03
  8.73011E+03  2.00993E+04 -8.98939E+03  2.33024E+04 -2.23898E+04  1.18269E+04 -3.53179E+04 -1.48484E+03
 -2.45901E+04 -1.48783E+04 -8.25322E+03 -2.77608E+04  1.36672E+03 -2.70358E+04  1.88946E+04 -2.21345E+04
  2.92705E+04 -1.73603E+04  4.10752E+04  3.31892E+03  2.52299E+04  2.23463E+04  3.30299E+03  3.82870E+04
 -1.82213E+04  2.81328E+04 -2.85771E+04  8.60855E+03 -2.64297E+04 -2.09989E+03 -4.48288E+03 -1.06466E+04
  6.05762E+03 -1.76446E+03 -9.88238E+03  6.89340E+03 -1.88424E+04  4.26972E+03 -2.31007E+04 -7.71144E+03
 -1.05584E+04 -1.75194E+04  9.75787E+03 -2.97097E+04  1.67923E+04 -2.10903E+04  1.87740E+04  1.44086E+03
  1.13935E+04  1.26240E+04  2.53693E+02  2.00978E+04 -1.57009E+04  1.31817E+04 -2.30743E+04 -8.11897E+03
 -1.69708E+04 -2.25744E+04 -2.25375E+03 -2.67707E+04  1.02584E+04 -2.61835E+04  1.87903E+04 -1.02365E+04
  1.89704E+04 -6.17007E+03  1.36112E+04  4.54780E+03  9.02235E+03  2.61461E+03  1.46903E+04  9.10437E+02
  2.35497E+04 -4.51449E+03  2.36088E+04  1.88291E+04  1.72618E+04  3.72313E+04 -6.28388E+03  3.92994E+04
 -1.72372E+04  3.46020E+04 -3.67793E+04  1.72988E+04 -3.83355E+04 -1.97017E+03 -2.96456E+04 -1.93737E+04
 -1.22041E+04 -2.79775E+04  1.24347E+04 -3.07464E+04  2.13093E+04 -1.68720E+04  2.16439E+04  6.22759E+03
  1.28729E+04  1.29540E+04 -8.64255E+03  1.36277E+04 -2.09585E+04 -4.04532E+02 -1.37425E+04 -1.66317E+04
 -5.72560E+03 -2.17902E+04  1.18088E+04 -1.49676E+04  1.26090E+04 -8.02442E+03  1.59850E+03  2.44050E+03
 -7.46652E+03  2.47893E+03 -5.65679E+03 -1.39920E+04 -1.25066E+03 -7.56235E+03  1.42547E+04 -1.85681E+04
  1.49155E+04 -1.28634E+04  2.42308E+04  8.12002E+03  1.73020E+04  1.81824E+04  7.58526E+03  2.65355E+04
 -5.52604E+03  2.95862E+04 -1.77822E+04  1.30179E+04 -2.26788E+04  8.54694E+03 -1.16154E+04 -6.22606E+03
 -6.83959E+03 -4.38358E+03 -4.40165E+03  3.93820E+03 -7.04774E+03 -1.37864E+03 -1.07496E+04  2.56233E+03
 -1.64088E+04  4.92371E+03 -9.28737E+03 -1.41775E+04 -4.10141E+03 -1.20573E+04  2.58600E+03 -1.15949E+04
  1.07329E+04 -3.35802E+03  8.58586E+03 -1.33624E+03  4.77691E+03  7.69126E+03 -8.41722E+03 -1.60736E+03
 -1.23664E+04 -5.30800E+03 -2.08156E+03 -1.07824E+04  1.02603E+04 -2.19581E+04  1.65614E+04 -7.91682E+03
  1.97868E+04 -8.08725E+02  1.29436E+04  1.48417E+04 -6.73962E+02  1.29741E+04 -4.38769E+03  1.18179E+04
 -7.65478E+03  5.28590E+03 -1.04297E+04 -6.43157E+02  7.95208E+03 -4.37172E+03  6.17175E+03 -7.82612E+03
  6.71627E+03  1.04583E+04 -1.44193E+03  9.26195E+03 -1.19090E+04  1.06872E+04 -1.43793E+04  2.34500E+03
 -8.34293E+03 -1.24277E+04  1.43201E+01 -1.08457E+04  3.13158E+03 -7.91850E+03  1.70723E+03  3.64163E+03
  9.27001E+03  5.35038E+03 -7.00136E+03  1.34602E+04 -8.42525E+03  6.05749E+03 -1.00521E+04 -2.88789E+03
 -3.81977E+03 -1.17003E+04  3.19631E+03 -1.35688E+04  1.36564E+04 -3.35581E+03  1.37802E+04  1.71944E+03
  1.33875E+04  8.76371E+03  2.26359E+03  8.06836E+03 -7.22364E+03  7.66261E+03 -1.34688E+04 -4.04122E+03
 -9.13980E+03 -7.38445E+03 -6.93607E+01 -1.18851E+04  7.03354E+03 -8.41238E+03  6.93749E+03  9.94151E+02
  1.75249E+03 -1.78066E+03  1.37142E+03 -1.05427E+03  2.21217E+03 -3.59124E+03  1.65591E+03 -3.80754E+03
  8.04516E+02 -3.59277E+03  1.25778E+04  3.63230E+02  9.01545E+03  1.00198E+04  9.43645E+03  1.83604E+04
 -7.53299E+03  2.06810E+04 -1.91045E+04  1.26297E+04 -1.52908E+04  4.76072E+03 -1.83751E+04 -9.14059E+03
 -7.59540E+03 -1.12558E+04  3.74918E+03 -1.17079E+04 -7.34500E+01 -7.99200E+03  2.75121E+03 -6.27470E+03
  4.89938E+03 -3.65033E+03  1.83546E+03 -5.61159E+03  8.69507E+03 -7.83475E+03  7.55489E+03  1.77162E+02
  1.14928E+04  1.00017E+03  6.89006E+03  3.71024E+03 -4.30953E+03  1.00435E+04 -8.62148E+03  4.32540E+03
 -1.46465E+04 -7.77368E+02 -4.27348E+03 -1.11559E+04 -6.27926E+03 -1.54046E+04  8.22796E+03 -1.40383E+04
  1.21095E+04 -6.63092E+03  1.37017E+04  2.31461E+03  1.48656E+04  1.09818E+04  2.84464E+03  1.49261E+04
 -7.84045E+03  8.37355E+03 -1.21908E+04  6.74235E+03 -5.16621E+03 -6.32708E+03  3.04605E+03 -5.13580E+03
 -1.20796E+03 -2.70109E+03  1.60892E+03  5.90632E+03 -2.53146E+03 -5.21686E+02 -4.55867E+03  3.93441E+03
 -6.98779E+03 -6.22723E+03 -4.03433E+03 -9.08449E+03  4.93934E+03 -1.03348E+04  5.82677E+03 -8.76938E+03
  1.23068E+04  3.26818E+03  1.42057E+03  8.22940E+03  7.66724E+02  1.70461E+04 -4.71760E+03  6.65654E+03
 -7.82281E+03 -1.33200E+02 -9.81756E+03 -9.78833E+03  3.57226E+03 -6.93512E+03  5.48340E+03 -9.72260E+03
  1.21372E+04 -5.57214E+03  7.20162E+03  2.43867E+00  3.00905E+02  4.09826E+03  3.40989E+02 -3.71130E+03
  2.55431E+03 -2.71029E+03  1.19838E+03 -2.90661E+03 -2.72379E+03  6.69570E+03  5.36667E+03  7.70267E+03
 -2.78169E+03  1.27976E+04 -7.25060E+03  1.41300E+04 -1.18633E+04 -5.68578E+02 -1.35619E+04 -9.85640E+03
  4.60416E+02 -1.03638E+04  7.69692E+03 -1.19095E+04  3.18002E+03 -5.00762E+03  7.69649E+03 -6.12948E+03
  4.70271E+03  1.37323E+02  1.92790E+03  8.47290E+03 -4.13007E+03  1.45890E+03 -1.26179E+04  2.83613E+03
 -3.60682E+03  8.31443E+02  1.54164E+03 -9.22655E+03  9.76830E+02  4.84688E+02 -1.03783E+03 -2.00886E+03
 -7.92100E+00 -9.80335E+02  2.86956E+03  9.30733E+02 -1.39003E+03  3.92864E+03 -3.51993E+02  1.15707E+03
 -4.12416E+02  5.79968E+02  5.77623E+03  3.19680E+03  8.60805E+02  1.24484E+04 -2.00329E+03  1.10733E+04
 -2.76510E+03  1.04784E+04 -1.17544E+04  5.61580E+03 -1.73974E+02 -1.66764E+03 -4.61222E+03 -1.50169E+02
 -3.06531E+03 -1.02545E+04  5.14360E+03  2.56162E+03  6.29242E+03 -1.30348E+03 -4.24106E+03  9.08833E+03
 -5.16743E+03  6.24815E+03 -1.97111E+03  1.70844E+03 -2.83742E+03 -3.41938E+03  4.56953E+03 -9.64719E+03
  3.83312E+03 -5.11810E+03  5.82528E+03 -2.85870E+03 -1.64940E+03  2.28157E+03  2.93795E+03  1.74625E+03
 -9.95555E+03 -7.49330E+02 -1.46085E+03 -2.50272E+03  3.36938E+03  5.11838E+02  4.37040E+03  2.01694E+02
  8.91289E+03 -5.00554E+03  5.35036E+03  5.00397E+03  3.80687E+03  4.67659E+03 -6.50465E+03  4.31385E+03
 -7.69191E+03  1.63361E+03 -3.82207E+03 -2.92935E+03 -4.24529E+03 -5.49441E+03  6.55684E+03  2.74014E+02
  1.06299E+04  3.02262E+03  6.12197E+03 -3.40962E+02  2.10401E+03  7.08328E+03 -3.90757E+03  4.48444E+03
 -9.05643E+03  3.59234E+02 -4.72199E+03  1.94782E+03 -3.76230E+03 -1.11496E+02 -6.30762E+02 -3.19734E+03
 -4.50541E+03  5.73228E+03  5.00960E+02 -9.43789E+02 -3.47737E+03  1.73287E+03 -1.13847E+04 -5.84697E+03
 -2.25082E+03 -5.00609E+03  5.10362E+02 -7.89057E+03  1.12502E+04 -6.19137E+03  9.06540E+03 -3.96658E+03
  5.24258E+03 -3.22722E+03  7.55953E+02  5.02870E+03 -6.75035E+03  3.40054E+03  1.38057E+03  9.10907E+03
 -9.14204E+03  5.69558E+03 -2.53751E+03  1.63854E+03 -2.53576E+02  5.44838E+03 -3.87983E+03  5.58755E+03
 -4.58453E+03  3.25619E+03 -3.11840E+03  2.58931E+03 -9.36736E+01 -7.75235E+03  2.13454E+03 -6.12314E+03
  3.83758E+03  4.73423E+03  2.41851E+03  2.06676E+03  8.22852E+03  3.91901E+03  4.70537E+03  1.07220E+04
 -4.05569E+03  1.13408E+04 -7.71240E+03  5.91442E+03 -1.21546E+04 -5.79932E+02 -7.09253E+03 -8.51287E+03
 -1.02414E+03 -2.49055E+03  1.03206E+03 -1.18009E+04  1.12959E+04  8.86330E+02  4.23184E+03  3.52938E+03
 -7.61983E+02  4.95224E+03 -3.67389E+03 -4.15841E+03 -1.06631E+03 -5.90600E+02  3.06347E+03 -2.17261E+02
  8.88991E+02 -2.57266E+03  3.64387E+03 -1.83248E+03 -3.43924E+03  5.54055E+03  5.06595E+03  3.72921E+03
 -5.06303E+03  4.00826E+03 -7.77952E+03 -2.28009E+03  1.46325E+03 -2.85191E+03  8.77366E+02 -1.20187E+04
  3.05376E+03 -6.99622E+03  3.54477E+03 -1.15779E+03  1.80710E+03  1.58500E+03  1.19652E+03  6.01514E+03
 -5.91897E+02  5.86624E+03  3.71635E+02 -8.24138E+02 -4.90217E+02  6.75783E+03 -6.17228E+03  3.15068E+02
 -1.89878E+03  3.47831E+03  2.44094E+03 -1.76407E+03 -3.96664E+03 -6.92300E+02  2.06703E+03 -3.34186E+03
 -6.88812E+03 -7.02119E+03  4.92222E+03 -3.86068E+03  3.71565E+03 -3.01102E+03  5.86801E+03  3.17258E+03
  7.04695E+03  1.82191E+03  4.77707E+03  3.48038E+03 -1.01564E+03  8.30352E+03  1.68964E+03  2.58762E+03
