 $NMID ID='MM_0lb_SNR50_11hz_g40_60.RAW', FMTDAT='(8E13.5)'
 TRAMP=1., VOLUME=1. $END
  3.05248E+05 -5.93709E+03  3.40038E+05  2.45576E+05  8.04315E+04  3.34982E+05 -1.24268E+05  2.51667E+05
 -1.95337E+05  8.11155E+04 -1.15812E+05 -3.52463E+04 -1.97423E+03 -5.63125E+04  5.64190E+04  1.79136E+03
  3.15158E+04  5.44910E+04 -2.04608E+04  7.29962E+04 -5.77267E+04  6.36814E+04 -8.84683E+04  2.95000E+04
 -7.63678E+04 -9.83338E+03 -5.49361E+04 -4.95083E+04 -1.76176E+04 -7.42798E+04  3.26304E+04 -4.54322E+04
  3.42254E+04  1.54787E+03  2.04926E+04  4.62464E+04 -3.68074E+04  5.14037E+04 -6.72247E+04 -2.90564E+03
 -5.08605E+04 -5.43944E+04 -3.70881E+03 -7.55480E+04  3.39411E+04 -5.42943E+04  5.24861E+04 -1.91814E+04
  4.22922E+04  7.91821E+03  3.58094E+04  2.33353E+04  1.77735E+04  2.55544E+04 -5.54717E+03  2.57703E+04
 -2.31684E+04  1.10859E+04 -1.98356E+04 -1.00448E+04  5.60546E+03 -1.15387E+04  1.71394E+04  1.35529E+04
  6.67868E+03  4.25493E+04 -3.16889E+04  3.86133E+04 -6.61796E+04  5.12617E+02 -5.91658E+04 -4.08234E+04
 -1.42112E+04 -6.17086E+04  3.64084E+04 -4.75621E+04  5.84403E+04 -1.63355E+03  3.06806E+04  3.55114E+04
 -4.08900E+03  3.61365E+04 -2.94064E+04  2.67504E+04 -2.47186E+04 -6.01359E+03 -1.53640E+04 -7.79099E+03
 -1.44021E+04 -1.57604E+04  2.35378E+03 -1.88217E+04  1.20053E+04 -2.20673E+04  1.91922E+04 -1.04781E+04
  9.72901E+03  1.16865E+04 -9.77520E+03  9.73408E+03 -2.47248E+04 -8.80991E+03 -7.64089E+03 -3.39051E+04
  2.11797E+04 -4.56786E+04  4.63315E+04 -1.21336E+04  5.05571E+04  1.47138E+04  1.68224E+04  4.69698E+04
 -1.85856E+04  3.43364E+04 -2.61532E+04  6.18381E+03 -8.20884E+03 -3.29975E+04  2.62235E+04 -3.48381E+04
  4.24863E+04 -1.02914E+04  3.54932E+04  2.13810E+04  1.48285E+04  4.70266E+04 -9.45960E+03  5.31641E+04
 -3.13048E+04  3.77342E+04 -4.23729E+04  1.03947E+04 -4.40667E+04 -2.30718E+04 -2.47971E+04 -3.62973E+04
  1.09877E+04 -4.60273E+04  3.41418E+04 -1.30408E+04  3.06837E+04  1.41092E+04  5.39061E+03  1.78158E+04
 -1.55602E+04  1.19508E+04 -8.68406E+03 -1.27058E+04  1.10771E+04 -6.02965E+03  2.06733E+04  5.37189E+03
  1.14052E+04  2.59125E+04 -4.29943E+03  2.36070E+04 -2.29817E+04  1.24423E+04 -3.17769E+04 -2.59877E+03
 -2.46150E+04 -2.06421E+04 -1.36398E+04 -3.08989E+04 -1.15579E+03 -2.48697E+04  1.73600E+04 -2.28145E+04
  3.11902E+04 -1.66505E+04  3.64735E+04  8.12472E+02  1.93657E+04  2.28913E+04  4.03454E+03  4.38981E+04
 -1.85795E+04  2.82641E+04 -2.86601E+04  1.07045E+04 -2.48607E+04 -1.01655E+04  1.77055E+03 -1.40297E+04
  1.87340E+03 -4.99917E+03 -6.00246E+03  2.28576E+03 -1.94010E+04  4.63333E+03 -1.55283E+04 -9.53795E+03
 -1.06337E+04 -1.98435E+04  4.56475E+03 -2.65947E+04  1.50603E+04 -1.76394E+04  2.06613E+04 -5.67226E+03
  8.21906E+03  1.43291E+04  2.43304E+03  2.27395E+04 -1.21307E+04  8.49509E+03 -2.69348E+04 -6.06135E+03
 -1.92777E+04 -1.96067E+04 -1.21897E+01 -2.50707E+04  2.02789E+04 -1.50613E+04  2.00941E+04 -5.49387E+03
  1.87169E+04  1.70634E+03  1.53244E+04 -1.59235E+03  5.74803E+03  3.02492E+03  1.19959E+04 -1.20296E+03
  1.70256E+04  2.92483E+03  2.69813E+04  1.84240E+04  1.57894E+04  3.28986E+04 -2.66256E+03  3.36933E+04
 -1.90068E+04  3.19946E+04 -3.44544E+04  1.62136E+04 -3.85198E+04 -1.01333E+04 -2.75404E+04 -2.15236E+04
 -1.34758E+04 -3.06793E+04  1.22702E+04 -2.40306E+04  2.70980E+04 -1.06389E+04  2.10576E+04  5.93801E+03
  9.99609E+03  1.81944E+04 -1.11111E+04  2.04991E+04 -1.80757E+04  8.35003E+02 -1.26504E+04 -9.12239E+03
 -2.93773E+03 -1.98050E+04  7.51417E+03 -9.34657E+03  1.16452E+04 -4.41598E+03  1.11041E+03  5.86536E+03
 -6.40303E+03 -5.25539E+02 -1.39920E+04 -3.30728E+03 -6.41454E+02 -1.66563E+04  9.60273E+03 -1.44070E+04
  2.17531E+04 -8.98421E+03  2.07189E+04  5.11492E+03  1.65682E+04  1.73254E+04  1.09742E+04  2.44469E+04
  1.15718E+03  2.92242E+04 -1.35341E+04  1.84191E+04 -1.23199E+04  3.07540E+03 -1.74426E+04 -8.60141E+03
 -4.24287E+03 -5.90498E+03  2.03618E+03  2.30874E+03 -6.25455E+02  9.27181E+02 -9.89664E+03  1.10378E+04
 -1.45909E+04  3.94726E+03 -1.34784E+04 -1.11162E+04 -4.81380E+03 -1.77089E+04  2.77184E+03 -7.96138E+03
  7.35865E+03 -3.13000E+03  8.66013E+03  1.09542E+02  1.33454E+03  4.98256E+03 -6.49807E+03 -1.71565E+03
 -4.21355E+03 -1.29785E+04  2.38952E+03 -1.58700E+04  1.35660E+04 -7.59964E+03  1.72830E+04 -1.17881E+04
  1.68098E+04  2.40693E+03  1.64984E+04  7.59232E+03  2.40459E+03  1.36828E+04 -5.47469E+03  1.56402E+04
 -8.07584E+03  6.94296E+03 -3.88880E+03 -6.25545E+02 -2.81368E+03 -5.19707E+01  8.66487E+03 -3.09455E+03
  7.18543E+03  2.13547E+03  2.07736E+03  1.48515E+04 -1.17953E+04  9.70793E+03 -7.48834E+03  1.41543E+03
 -1.11263E+04 -4.74513E+03  1.00107E+03 -9.16828E+03  8.18829E+03 -3.42799E+03  7.21682E+03  6.05010E+03
  1.40543E+03  1.18779E+04 -7.89356E+03  1.47203E+04 -9.39324E+03 -2.07699E+03 -9.88274E+03 -4.72186E+03
 -5.60077E+03 -1.00814E+04  5.01201E+03 -1.21588E+04  8.82266E+03 -1.36390E+04  1.97019E+04  4.86869E+03
  6.80426E+03  1.14164E+04 -5.63270E+03  1.19041E+04 -1.24307E+04  7.72984E+03 -7.16853E+03 -3.89966E+03
 -8.86963E+03 -7.90355E+03 -1.28324E+03 -1.02420E+04  1.00052E+04 -6.65376E+03  9.83599E+03 -1.44769E+03
  3.72803E+03  6.59279E+02 -3.04999E+02  2.51591E+03 -7.19637E+01 -5.81970E+02  3.79386E+03 -6.53063E+03
  8.43147E+03 -2.71039E+03  1.45907E+04  4.16130E+03  1.59932E+04  8.18377E+03  8.29119E+03  2.01821E+04
  4.09888E+03  1.67477E+04 -1.09811E+04  1.26800E+04 -1.76468E+04 -3.92684E+03 -1.65077E+04 -7.37682E+03
 -1.02348E+04 -1.01806E+04 -3.28739E+03 -1.54743E+04 -4.98716E+03 -4.99265E+03  5.39535E+03 -4.93041E+03
  4.18521E+03 -6.05193E+03  5.18282E+03 -4.23562E+03 -8.90174E+02 -4.64460E+02  6.73859E+03 -6.44838E+03
  1.41866E+04  1.96249E+03  1.13923E+03  3.15180E+03 -5.29820E+03  1.10400E+04 -3.83527E+03  2.42059E+03
 -1.45379E+04  1.62798E+03 -8.18843E+03 -2.38123E+03 -1.19751E+03 -1.54344E+04  2.23389E+03 -1.12025E+04
  1.47406E+04 -9.07744E+03  1.59234E+04  3.96494E+03  1.06566E+04  4.10904E+02  4.06732E+03  1.20040E+04
 -3.82566E+03  1.62395E+04 -6.12252E+03  1.45194E+03 -2.30959E+03 -5.01828E+03 -1.66555E+03 -6.04897E+03
 -1.41770E+03  3.93107E+03 -1.50464E+03 -2.38700E+02 -5.41349E+03 -9.89392E+02 -3.90006E+03 -1.39209E+03
  5.13863E+03 -1.03599E+04 -1.29921E+03 -7.39876E+03  5.56830E+03 -8.05374E+03  8.68971E+03 -3.19307E+03
  1.14915E+04  6.15340E+03  4.52190E+03  7.13240E+03 -2.44890E+03  1.44519E+04 -1.19772E+04  2.77933E+03
 -1.32176E+04  9.27296E+03 -1.02940E+04 -8.80784E+03 -1.15113E+03 -6.26871E+03  4.62901E+03 -8.58069E+03
  4.63811E+03 -4.01967E+03  4.21170E+03  8.65717E+02  2.43646E+03  4.51336E+03 -1.23503E+03  2.97670E+03
  2.47642E+02  2.71955E+03  3.27285E+03  8.78073E+03  3.64484E+03  1.54144E+03  6.82899E+03  2.37632E+03
  1.45972E+03  5.82664E+03  2.44043E+03  7.70767E+03 -8.84663E+03  6.78234E+02 -1.27337E+04  5.11373E+03
 -1.18295E+03 -6.13185E+03 -1.49336E+01 -1.57273E+04  5.90165E+03 -8.91251E+03  1.07373E+04  7.02061E+01
  7.06022E+03 -3.49421E+03  4.52996E+03  1.68170E+03  3.84821E+02 -1.91214E+02 -7.94093E+03 -4.86169E+03
 -4.06575E+03 -7.42126E+02  2.76838E+03 -3.86413E+03 -2.28274E+03 -3.54458E+03  4.26617E+03  2.13006E+03
  2.05114E+03  4.40147E+02  2.42263E+03 -2.37896E+03  2.73899E+02  2.81220E+03  2.25506E+03 -1.82778E+03
  6.31137E+01  9.02870E+02  3.50692E+03  5.15668E+03  5.52755E+02  4.20510E+03  1.65386E+03  8.70597E+03
 -3.58179E+03  1.42272E+04 -3.96700E+03 -4.65081E+03 -4.41410E+03  4.13253E+03 -4.62740E+03 -4.26103E+03
  1.62270E+03  3.02045E+03  2.21128E+03 -6.59494E+03  1.18796E+03 -1.36018E+03  7.29425E+01  6.79973E+03
 -1.29717E+04  4.73410E+03 -1.84773E+03  1.11693E+03 -4.45882E+03 -4.74292E+03  5.59878E+03 -8.38454E+03
  1.91450E+03 -5.44627E+03  1.27019E+03 -4.71365E+02  4.10890E+03 -1.97651E+03  3.19462E+02  8.53626E+02
  1.63034E+03 -1.63426E+03 -4.14860E+03  1.41162E+03 -2.12339E+03 -5.64190E+03  5.75422E+03 -3.48632E+03
  2.16964E+03 -4.22032E+02  1.11122E+03  1.82679E+03 -9.95642E+02  9.35074E+03 -2.51326E+03  1.00986E+04
 -6.63434E+03 -3.57845E+03 -1.63043E+03 -2.16474E+02 -5.23234E+03 -3.64360E+03 -5.12046E+02 -4.85875E+03
  6.86595E+03 -5.64000E+03  7.62455E+03 -2.24062E+03  1.17855E+03  2.93376E+03 -2.27917E+03 -3.14932E+03
  4.35076E+03  2.60708E+03 -3.57196E+02  8.87430E+02  1.40913E+03  2.14698E+03 -7.19885E+03  4.50518E+03
 -5.67707E+03  2.15956E+03 -3.29894E+03  1.16002E+03 -9.78245E+03 -3.03390E+03 -9.93968E+03 -4.68537E+03
 -6.74626E+03 -6.56523E+03  2.21345E+03 -6.04156E+03 -3.08574E+00 -8.13697E+03  1.09006E+04 -4.76569E+03
  9.64539E+03  6.99265E+03  6.31644E+03  4.72425E+03 -8.31940E+02  8.90591E+03 -3.31070E+03  7.96471E+03
 -3.63954E+02  2.00606E+03 -3.32917E+02 -4.58381E+03 -6.04152E+02 -4.99478E+03 -4.35933E+02 -1.49914E+03
  2.50881E+03  1.07919E+03 -1.06765E+04  4.46875E+02  7.55088E+02 -5.36792E+03  6.41193E+03 -2.50355E+03
  3.60006E+01 -1.80807E+03  4.47393E+03  5.11254E+02 -7.57200E+02  8.27576E+03  3.91745E+03  6.91497E+03
 -3.12977E+03  6.94555E+03 -7.96305E+03 -1.30200E+02 -1.13234E+04  2.21287E+03 -9.97739E+03 -1.02199E+04
 -3.46249E+02 -1.24811E+04  2.85543E+03 -9.65949E+03  2.02383E+03 -7.93941E+02  7.07375E+03  5.81704E+03
  4.66525E+03  2.50352E+02  1.47964E+03  5.47805E+03 -3.85870E+02  2.05738E+03  3.15599E+03 -1.22724E+03
  1.83059E+03  3.16279E+03  4.55450E+03 -2.44243E+03  6.31276E+03  5.30392E+03  2.33773E+03  6.07689E+03
 -2.73974E+03  2.13974E+03 -8.17515E+03 -1.68290E+03 -8.65102E+03  2.10479E+03  9.63994E+02 -1.00067E+04
  2.25527E+03 -1.12497E+04  7.61920E+03 -4.04223E+03  3.99408E+03  1.87305E+03  6.03259E+03  3.04387E+03
  5.56476E+03  3.89556E+03 -4.36871E+03  8.76580E+03 -4.79683E+03 -1.91031E+03  1.10054E+03 -1.78450E+02
  2.68632E+03 -1.01313E+03 -4.56112E+03 -7.79833E+01 -3.32164E+03 -2.55574E+03 -3.15393E+03  3.70893E+03
 -3.42781E+03 -2.30217E+03  4.64765E+03 -4.62403E+03  5.29816E+03 -1.41773E+03  4.22261E+03 -5.50242E+03
  3.32077E+02  8.63601E+01  7.66691E+02  2.36921E+02  5.67228E+02  2.98921E+03 -4.24785E+03 -1.39111E+02
