 $NMID ID='MM_0lb_SNR50_18hz_g40_44.RAW', FMTDAT='(8E13.5)'
 TRAMP=1., VOLUME=1. $END
  3.12170E+05  2.29004E+03  3.33957E+05  2.47771E+05  8.04718E+04  3.37660E+05 -1.31336E+05  2.45989E+05
 -1.89877E+05  8.18280E+04 -1.11394E+05 -2.73182E+04  1.60986E+03 -4.91633E+04  5.42594E+04 -7.60393E+02
  3.66293E+04  5.53269E+04 -1.93739E+04  8.38816E+04 -5.99770E+04  6.28743E+04 -7.88639E+04  2.82808E+04
 -8.21541E+04 -1.38384E+04 -5.36493E+04 -4.63983E+04 -1.49355E+04 -6.83191E+04  2.19951E+04 -4.67928E+04
  3.91717E+04  2.63225E+03  1.77346E+04  4.59217E+04 -3.21614E+04  4.28304E+04 -7.01847E+04 -4.27493E+03
 -5.02089E+04 -5.44506E+04 -4.62936E+03 -7.37218E+04  3.29894E+04 -5.25574E+04  4.89206E+04 -1.57348E+04
  4.27849E+04  1.37367E+04  2.79909E+04  2.57426E+04  1.46208E+04  2.60317E+04 -8.98940E+02  2.77866E+04
 -2.37312E+04  1.31245E+04 -1.91281E+04 -1.75448E+03  2.32277E+03 -3.16240E+03  2.24243E+04  1.20167E+04
  1.17816E+04  3.30248E+04 -3.23186E+04  3.66953E+04 -5.95442E+04  5.86916E+02 -5.33108E+04 -4.20123E+04
 -1.40462E+04 -6.24314E+04  3.88200E+04 -4.42810E+04  5.51306E+04 -5.15950E+03  3.03563E+04  2.75395E+04
 -4.45616E+03  3.05045E+04 -2.66814E+04  1.18909E+04 -2.47533E+04 -6.96017E+03 -1.30274E+04 -1.09325E+04
 -6.89367E+03 -8.19726E+03 -1.38457E+02 -1.71282E+04  6.68320E+03 -2.23111E+04  1.47196E+04 -1.57412E+04
  1.39735E+04  6.96182E+03 -9.36619E+03  1.34559E+04 -2.16671E+04  2.47052E+03 -1.02673E+04 -2.72389E+04
  1.84897E+04 -3.94558E+04  4.64879E+04 -1.42436E+04  4.17433E+04  1.64713E+04  1.55698E+04  4.18420E+04
 -1.44794E+04  3.20067E+04 -2.22834E+04  8.88062E+02 -8.15949E+03 -2.78450E+04  1.89928E+04 -3.18311E+04
  4.07225E+04 -9.69527E+03  2.81905E+04  2.15410E+04  1.47221E+04  4.43447E+04 -1.08012E+04  3.98919E+04
 -3.08386E+04  2.78821E+04 -3.56287E+04  6.48926E+03 -3.80234E+04 -1.43596E+04 -2.51866E+04 -3.21218E+04
  5.68683E+03 -3.13677E+04  3.02041E+04 -1.40383E+04  2.81808E+04  1.08198E+04  6.00947E+03  1.34356E+04
 -1.11796E+04  5.64146E+03 -7.04229E+03 -1.00510E+04  4.75780E+03 -1.15732E+04  1.81617E+04  3.54436E+03
  1.17559E+04  2.17371E+04 -5.13968E+03  2.34572E+04 -2.01313E+04  7.66985E+03 -2.57764E+04 -8.26221E+03
 -1.85503E+04 -1.74033E+04 -6.51088E+03 -1.53854E+04  7.82257E+02 -1.39404E+04  1.23460E+04 -1.18901E+04
  2.09448E+04 -1.13610E+04  2.44999E+04  1.44893E+03  2.08619E+04  1.77353E+04  5.00979E+03  3.43769E+04
 -1.50911E+04  2.61214E+04 -2.41764E+04  1.11804E+04 -2.13389E+04 -1.03861E+04 -6.99614E+03 -1.58187E+04
  5.31404E+03 -2.21791E+03 -1.39106E+03  3.28961E+03 -1.44282E+04  7.45392E+03 -1.25676E+04 -7.14726E+03
 -7.98620E+03 -1.14897E+04  6.32432E+03 -1.99223E+04  1.67705E+04 -1.21786E+04  1.48955E+04 -3.18546E+03
  1.14734E+04  9.66314E+03  9.86950E+02  1.56182E+04 -1.42622E+04  6.41003E+03 -1.78309E+04 -2.31239E+03
 -1.42173E+04 -1.20543E+04 -1.44111E+03 -1.76301E+04  7.72088E+03 -1.77590E+04  1.55869E+04 -1.00878E+04
  1.86220E+04  1.10152E+03  1.00186E+04  3.26073E+03  3.37720E+03 -4.86896E+03  2.58227E+03 -1.43968E+03
  1.02452E+04  9.63184E+03  1.49753E+04  1.60921E+04  5.45723E+03  2.22025E+04 -4.31390E+03  2.72840E+04
 -1.21324E+04  2.23887E+04 -2.08202E+04  9.11903E+03 -2.51088E+04 -2.52382E+03 -2.08670E+04 -1.32583E+04
 -1.05586E+04 -2.05731E+04  7.02957E+03 -1.80651E+04  1.57509E+04 -6.75387E+03  1.79068E+04  1.67722E+03
  7.24986E+03  1.36415E+04 -7.58400E+03  1.42474E+04 -1.29939E+04 -4.88961E+02 -9.87847E+03 -9.69899E+03
  1.01754E+03 -1.68354E+04  3.52036E+03 -1.16006E+04  6.23610E+03  2.51314E+03  2.95939E+03  2.47800E+03
 -5.33315E+03  2.24338E+03 -4.94587E+03 -6.32391E+03 -6.54876E+02 -1.23151E+04  5.12908E+03 -1.39218E+04
  1.09997E+04 -5.98133E+03  1.10188E+04  2.49102E+03  1.19124E+04  8.69017E+03  8.15826E+03  1.00201E+04
 -3.00458E+03  1.82730E+04 -1.10359E+04  1.11014E+04 -1.12830E+04  3.31614E+03 -8.35791E+03 -2.60831E+02
 -6.88653E+03 -4.69033E+03 -3.70693E+03  2.58518E+03 -3.78781E+03  5.06065E+03 -5.70071E+03  2.85051E+03
 -8.96077E+03  2.35963E+03 -6.99492E+03 -1.08879E+04 -7.52607E+03 -1.18993E+04  3.97968E+03 -9.67018E+03
  9.65491E+03 -7.21841E+03  3.40158E+03  1.65573E+03 -1.85821E+03  1.60591E+02 -3.74229E+03 -2.77556E+03
 -3.12522E+03 -7.36710E+03 -6.45425E+03 -4.98886E+03  5.49368E+03 -8.28658E+03  8.09910E+03 -5.46277E+03
  1.09617E+04  1.35639E+03  9.64363E+03  6.95435E+03  4.50173E+03  6.48893E+03 -5.28267E+03  9.25015E+03
 -5.84705E+03  4.45529E+03 -6.08728E+03 -5.12036E+03 -4.47971E+02 -2.78721E+03  7.26914E+03 -1.51102E+03
  5.00001E+03  2.52860E+03  1.62138E+03  9.31167E+03 -7.14365E+03  3.30671E+03 -5.02387E+03  3.59290E+03
 -5.71696E+03 -8.14749E+03  1.78562E+03 -7.18428E+03  1.37004E+03 -2.79987E+03  3.89243E+03  4.62671E+02
 -1.30084E+03  5.06921E+03 -2.50915E+03  5.63796E+02 -2.68409E+03 -1.65837E+02  3.04652E+03 -5.58612E+02
 -3.46172E+03 -9.12866E+03 -1.02092E+02 -6.52393E+03  9.45008E+03 -8.68853E+03  4.46297E+03  2.52628E+03
  7.82867E+03  6.08468E+03  5.51749E+03  1.73554E+03  7.23878E+02  5.71240E+03 -3.00644E+03  7.88015E+02
 -5.15295E+03 -4.56210E+03 -2.46050E+03 -3.72025E+03  8.98603E+02 -4.38933E+03  5.81079E+03 -1.62210E+03
  4.83046E+03  3.56730E+02  2.08857E+03 -6.30957E+02  2.70245E+03 -1.64099E+03  3.33211E+03 -1.35569E+03
  1.15102E+03  5.24510E+01  3.65064E+03  5.98398E+03  2.26779E+03 -1.42128E+03  6.63281E+03  1.01785E+04
 -2.75446E+03  7.38399E+03 -8.63339E+03  5.78653E+03 -8.54075E+03 -2.45812E+03 -4.16486E+03 -4.72863E+03
 -2.90678E+03 -3.66331E+03  3.33119E+03 -5.54084E+03  3.19363E+03 -4.53633E+03  2.04680E+03 -4.07786E+03
  1.15968E+03 -1.35727E+03 -2.58870E+02 -2.29098E+02  1.88187E+03 -1.93685E+03  2.21479E+03  7.89859E+02
  4.08973E+03 -1.19327E+02  1.03470E+03  2.95639E+03 -5.58424E+03  5.37648E+03 -1.60298E+03  2.06913E+03
 -4.22687E+03 -1.78900E+03  4.47071E+02 -4.74136E+03  2.55693E+03 -1.62261E+03  5.21455E+03 -3.15246E+03
 -4.33336E+03 -4.89144E+03  9.69419E+03 -4.73408E+02  4.26804E+03  7.61437E+03 -1.16141E+03  6.13567E+03
 -6.02253E+03  3.51818E+03 -2.27424E+03  2.04275E+03 -1.56984E+03 -6.45672E+02 -6.78971E+02 -3.01085E+03
 -1.98524E+02 -4.00952E+03  2.43768E+03 -1.61444E+03 -4.75631E+03  4.90655E+03 -2.70329E+03  2.39283E+03
  2.75831E+02 -2.31442E+03  1.33407E+03 -9.22616E+03  3.51869E+03 -3.93476E+03 -5.26618E+02 -3.50964E+03
  4.37356E+03  2.22717E+03  3.17480E+03  2.30099E+03 -1.64990E+03  8.11984E+03 -3.66521E+03  3.35381E+03
 -6.17163E+03 -1.24390E+02 -5.99601E+03 -3.28094E+03 -5.54622E+02 -6.99678E+03  5.97377E+03 -2.28952E+02
  2.10239E+03 -1.59668E+03  5.94884E+02 -1.25558E+03  1.88090E+02  3.34169E+02 -3.47142E+03  2.41725E+03
  5.55369E+03  7.13634E+02  1.95654E+03  2.54574E+03  1.16025E+03  3.23540E+03  4.82890E+03  3.75645E+02
 -3.66569E+03  5.89441E+03  2.39453E+03  7.11110E+03 -4.23472E+03  2.47027E+03 -1.45449E+03  1.85996E+03
 -2.78824E+03 -1.03029E+03  1.58420E+03 -5.12902E+03  5.82802E+02 -3.21633E+03  5.51962E+03  1.63176E+02
  7.24172E+02  1.38221E+03  1.67807E+02  2.01770E+03 -4.35316E+03 -3.58936E+02  2.27621E+03 -2.93691E+03
 -7.91508E+01  2.52919E+02  3.12157E+03 -7.76573E+01  2.00383E+03 -4.00356E+03  5.94389E+00  1.48454E+03
  1.20435E+03 -1.45991E+03 -6.71459E+02 -4.26458E+03 -3.73390E+02 -1.13395E+03  2.68791E+02 -1.23222E+03
  1.27949E+03  2.40859E+03  7.19693E+03  8.38216E+02  4.52294E+03  2.32962E+03  4.72708E+02  1.81654E+03
  7.48477E+02  8.25448E+02 -2.38099E+03  2.37340E+03 -1.04682E+03 -4.57888E+03 -1.19127E+03  4.90418E+02
 -4.37607E+02  2.23598E+03 -4.09847E+02  4.76995E+03 -2.55796E+03  4.46219E+03 -9.76076E+02  4.03031E+03
 -5.57401E+02  2.44919E+03 -1.17252E+03  2.71469E+03  3.22367E+02 -1.43320E+03  4.18834E+03 -2.23734E+03
 -1.74781E+02  1.36790E+03 -1.97434E+03  7.32477E+03  2.07219E+03 -1.27889E+03  2.69346E+03  2.22727E+03
 -2.14762E+03 -3.73810E+03 -4.37933E+03  1.72587E+03 -1.34446E+03 -1.67046E+03  1.16502E+03 -1.28613E+03
  2.42213E+03 -2.95137E+02  5.50374E+03  2.18434E+03  3.60516E+03 -1.05679E+03  2.67382E+03 -2.18926E+03
 -3.30598E+02 -2.98007E+03 -7.74782E+03 -3.36782E+03  1.52056E+03  2.60352E+03  2.41433E+03 -4.29696E+02
  2.09533E+03  1.80423E+03  1.36644E+03  4.40431E+03  7.79626E+02  1.27954E+03 -7.58312E+02  9.29436E+02
 -2.28339E+03  1.25814E+03 -1.70188E+02 -1.18549E+03 -1.54898E+03 -3.76435E+03  1.28542E+03  3.06206E+03
  1.83160E+02 -2.84057E+03 -3.88960E+03 -1.46672E+03 -5.14871E+03  1.42845E+03 -1.52149E+03 -2.20644E+03
 -2.07159E+03 -6.59647E+03  2.92129E+02 -4.81182E+03  1.86599E+03 -3.98956E+03  4.48584E+03  2.16098E+02
  3.38401E+03  1.07439E+03  4.92913E+03  1.43883E+03  4.00566E+02  2.31107E+03 -2.46173E+02  5.51149E+02
 -4.55069E+03  2.11612E+03 -1.66388E+03  2.90355E+02  2.58155E+03 -4.59666E+01 -2.96518E+03  5.45256E+03
 -3.82315E+03 -8.37260E+02 -5.44319E+03  4.04557E+03 -7.63377E+02 -9.35011E+02 -1.95484E+02 -1.38925E+03
  3.22955E+03 -3.60433E+03  6.11958E+01  8.63095E+01 -4.46048E+03  1.25468E+03 -2.35943E+03  4.43741E+03
 -3.54945E+03  3.21091E+03 -3.72798E+03 -5.97365E+02 -2.18696E+03  3.72958E+02 -3.46933E+02 -2.95668E+03
  3.24499E+03  7.14174E+02 -9.66864E+02 -2.19786E+03  6.16743E+03 -2.21896E+03 -3.26593E+03 -2.11392E+03
 -1.91295E+03  2.53334E+03 -4.81489E+02  2.40477E+03 -1.26509E+03  8.14601E+02  2.28380E+03 -7.65133E+02
  3.06576E+03  4.61504E+03 -4.76463E+02 -2.25712E+03  9.69951E+02 -9.33125E+02  3.95819E+03  3.00622E+03
 -2.26982E+03 -9.51621E+02 -1.84652E+03  2.99533E+03  1.14171E+02  1.16539E+03 -1.90333E+02  1.80205E+03
 -2.52212E+03 -1.46618E+03  5.15058E+03  9.46439E+02  1.98498E+03  1.08591E+03 -1.59903E+02  4.30034E+03
 -2.65474E+03 -1.73091E+01 -2.95547E+03  2.92123E+03 -2.55604E+03 -1.55211E+03  2.23428E+03  2.68549E+03
  2.29021E+02 -6.58360E+02 -3.37657E+03  2.35538E+03 -1.44803E+03  3.47344E+03 -5.90997E+03 -3.47755E+02
 -4.75921E+03  6.50241E+02  1.70940E+03 -7.61137E+03  2.93990E+03 -1.90078E+03 -9.51724E+02  2.69702E+03
  2.29512E+02 -3.75735E+01 -2.76346E+03  4.00122E+03  1.75710E+03  3.45287E+03  1.24023E+03  1.90101E+03
