 $NMID ID='MM_0lb_SNR50_15hz_g45_82.RAW', FMTDAT='(8E13.5)'
 TRAMP=1., VOLUME=1. $END
  3.08346E+05 -3.07056E+03  3.36849E+05  2.54498E+05  8.76715E+04  3.35634E+05 -1.36895E+05  2.50049E+05
 -1.87047E+05  8.25315E+04 -1.09389E+05 -3.76860E+04  1.45989E+03 -4.98762E+04  5.69410E+04 -3.77346E+02
  3.33670E+04  5.37500E+04 -1.65360E+04  7.49440E+04 -5.81605E+04  6.23896E+04 -8.28670E+04  2.95997E+04
 -7.86751E+04 -1.10481E+04 -5.80959E+04 -5.34926E+04 -1.78910E+04 -6.89645E+04  2.73982E+04 -4.23697E+04
  4.13992E+04  1.69796E+03  1.22923E+04  4.18755E+04 -3.16476E+04  4.59800E+04 -6.48610E+04  3.32168E+03
 -5.29975E+04 -5.54651E+04 -1.10074E+04 -7.71854E+04  3.14579E+04 -5.65475E+04  4.55833E+04 -1.75126E+04
  4.18079E+04  8.73110E+03  3.70023E+04  2.40952E+04  1.59348E+04  3.37293E+04 -5.64643E+03  2.55784E+04
 -2.58804E+04  1.81414E+04 -2.08486E+04 -4.44824E+03  6.04922E+03 -1.11656E+04  1.36832E+04  8.23654E+03
  7.67500E+03  3.93726E+04 -3.30539E+04  3.47304E+04 -6.25181E+04 -1.54002E+03 -5.91138E+04 -4.83826E+04
 -1.47675E+04 -6.16234E+04  3.57206E+04 -4.14732E+04  5.56534E+04 -3.67409E+03  3.42974E+04  3.55718E+04
 -7.25881E+03  3.14613E+04 -2.98405E+04  1.72826E+04 -3.15638E+04 -7.09484E+03 -1.37144E+04 -1.71182E+04
 -6.60674E+03 -1.23821E+04 -1.42140E+03 -1.67921E+04  1.07528E+04 -1.99092E+04  1.70426E+04 -1.22601E+04
  1.23524E+04  6.78295E+03 -4.98088E+03  1.03650E+04 -1.70648E+04 -3.44334E+03 -5.98924E+03 -3.35168E+04
  1.95063E+04 -4.29169E+04  4.82990E+04 -1.79365E+04  4.53620E+04  1.76847E+04  1.58652E+04  4.50397E+04
 -1.47439E+04  3.39987E+04 -2.32960E+04 -6.23880E+03 -8.34368E+03 -2.68175E+04  2.03895E+04 -3.19085E+04
  3.99596E+04 -6.60088E+03  3.26233E+04  2.25378E+04  1.54085E+04  4.18044E+04 -5.42628E+03  4.98964E+04
 -2.66219E+04  2.88532E+04 -4.28605E+04  8.37558E+03 -4.13920E+04 -1.88987E+04 -2.55356E+04 -3.34187E+04
  5.87075E+03 -3.20136E+04  3.67267E+04 -1.32369E+04  2.47175E+04  1.02350E+04  5.03964E+03  2.12654E+04
 -1.25709E+04  5.29016E+03 -7.64511E+03 -7.50075E+03  8.39323E+03 -1.24370E+04  1.49379E+04  7.23260E+03
  8.22978E+03  2.42119E+04 -8.13889E+03  2.38766E+04 -2.49155E+04  1.12436E+04 -2.73695E+04 -2.21369E+03
 -1.81153E+04 -1.68796E+04 -3.34145E+03 -1.35948E+04 -2.61002E+03 -1.63344E+04  1.71192E+04 -1.94250E+04
  2.70503E+04 -9.85337E+03  3.61837E+04  8.67986E+03  2.24293E+04  1.59128E+04  6.65081E+03  3.15109E+04
 -1.24986E+04  2.95872E+04 -2.97056E+04  7.65052E+03 -2.54046E+04 -1.00932E+04 -5.89584E+03 -1.26091E+04
  2.92963E+03 -7.13168E+02 -7.73205E+03  4.24739E+03 -1.88184E+04  6.81712E+03 -1.70141E+04 -7.58828E+03
 -6.19024E+03 -1.42946E+04  2.31096E+03 -1.75304E+04  1.59328E+04 -1.43469E+04  1.76938E+04 -2.73026E+03
  1.18696E+04  1.58126E+04 -3.04868E+03  1.45212E+04 -1.09295E+04  1.11340E+04 -1.75415E+04 -4.22355E+03
 -1.70159E+04 -1.54880E+04 -2.23810E+03 -2.34456E+04  9.28741E+03 -1.80209E+04  1.69550E+04 -1.40183E+04
  1.67884E+04  2.18147E+03  1.29362E+04  1.33898E+03  6.51503E+03  1.31767E+02  8.64784E+03 -7.54013E+03
  1.66413E+04  4.97615E+03  2.02889E+04  1.23653E+04  1.29915E+04  2.84109E+04 -7.86301E+03  3.84419E+04
 -2.01749E+04  2.56531E+04 -3.05306E+04  1.64865E+04 -2.87316E+04 -9.01963E+02 -2.63682E+04 -1.88162E+04
 -1.42526E+04 -2.40909E+04  7.16778E+03 -2.40392E+04  2.31584E+04 -1.31999E+04  1.65201E+04  3.37163E+03
  6.58832E+03  1.15801E+04 -1.02591E+04  1.26067E+04 -1.43469E+04  1.05181E+03 -7.75166E+03 -1.04206E+04
 -6.18418E+03 -1.41264E+04  1.03811E+04 -1.01448E+04  8.28819E+03 -5.21316E+03  3.24633E+03  4.51840E+03
 -7.03208E+03  3.52094E+03 -3.44364E+03 -5.03360E+03 -2.33600E+03 -1.57527E+04  6.74924E+03 -8.89937E+03
  1.90157E+04 -3.64842E+03  1.88799E+04  1.53691E+03  1.52729E+04  1.21328E+04  3.98220E+03  2.15851E+04
 -5.42021E+03  2.25643E+04 -1.31406E+04  1.01027E+04 -1.19883E+04  3.50519E+03 -5.73766E+03 -8.21304E+03
 -3.99902E+03 -1.97818E+03  3.62721E+03  3.02476E+03 -4.08237E+03  6.70153E+02 -4.32872E+03  3.44387E+03
 -1.39481E+04  1.53309E+03 -1.07703E+04 -5.76253E+03 -5.67715E+03 -1.75356E+04  2.21902E+03 -1.10850E+04
  7.47825E+03 -2.49710E+03  7.48305E+03  1.32253E+02  5.51987E+03  4.75328E+03 -2.21627E+03  2.17494E+03
 -1.71898E+03 -4.60318E+03 -2.63889E+02 -1.07952E+04  7.93366E+03 -1.24802E+04  1.23425E+04 -2.83988E+03
  1.54120E+04  8.71217E+02  8.57889E+03  1.13215E+04  1.01243E+02  1.40560E+04 -2.95903E+03  8.18515E+03
 -1.29388E+04 -2.15087E+03 -5.09225E+03 -2.83473E+03  3.80767E+03  6.56623E+02  7.56704E+03  2.31112E+03
  5.41091E+03  5.59055E+03 -5.93013E+03  1.00406E+04 -5.25459E+03  6.39679E+03 -1.12666E+04  3.79108E+03
 -3.05403E+03 -9.54724E+02  6.58758E+03 -4.84586E+03  7.23052E+03 -2.74783E+03  4.93855E+03  2.33231E+03
  4.79765E+03  3.07072E+03 -9.17854E+03  7.61630E+03 -9.95221E+03  1.53520E+03 -1.53518E+03  2.39750E+03
 -3.64240E+03 -1.27285E+04  1.95290E+03 -3.70002E+03  6.71134E+03 -6.97140E+03  9.13426E+03  3.69169E+03
  5.93687E+03  1.06411E+04  1.59811E+03  6.84657E+03 -7.69644E+03  6.55445E+03 -6.00373E+03 -1.67825E+02
 -6.19910E+03 -7.56863E+03 -3.15524E+03 -6.88239E+03  1.95728E+03 -1.05186E+04  3.81505E+03 -2.34740E+03
  4.39728E+03 -2.70749E+03 -2.34702E+03 -1.89446E+01  4.65614E+02 -4.67738E+02 -1.07065E+03 -6.99631E+03
  5.16519E+03  2.11310E+03  6.66349E+03  2.06443E+03  1.03000E+04  7.42558E+03  2.74344E+03  9.40538E+03
 -2.52239E+03  1.31703E+04 -1.35887E+04  9.72137E+03 -1.99438E+04 -7.49755E+02 -1.45378E+04 -6.56463E+03
 -6.10810E+03 -7.55926E+03 -1.48082E+03 -7.87167E+03  8.36345E+03 -2.76271E+03  3.04069E+03 -1.66158E+03
 -1.61612E+03 -2.77690E+03  3.87280E+03 -2.31735E+03  1.89876E+03  9.64765E+02  6.51788E+03  2.53579E+02
  6.42643E+03 -2.90214E+03  2.91819E+03  4.39467E+03 -1.84749E+03  5.89577E+03 -1.02073E+04  7.01417E+03
 -7.35390E+03  1.56829E+03 -3.17305E+03 -3.99956E+03  7.59087E+03 -6.07369E+03  6.49738E+03 -3.39653E+03
  1.12252E+04 -7.33811E+03  1.21855E+04  2.11237E+03  3.09455E+03  4.79930E+03  1.25162E+03  9.40201E+03
 -8.52384E+03  8.58212E+03 -4.45933E+03 -2.44259E+03 -4.25242E+03 -1.03291E+03 -4.48121E+03  2.23682E+03
  2.58810E+02  1.47967E+02 -3.57875E+03  3.44829E+03 -5.18649E+03  1.18578E+03 -5.38769E+03 -3.68787E+03
 -4.34226E+02 -6.75111E+03 -1.80410E+03 -6.01174E+03  1.66287E+03 -4.00910E+03  5.46645E+03 -7.77254E+02
  7.08006E+03  3.43118E+03 -2.80600E+02  1.22502E+04  1.71663E+02  9.89148E+03 -6.57987E+03  5.11108E+03
 -4.89790E+03  9.40213E+02 -7.12216E+03 -2.39365E+03  7.14503E+02 -6.27490E+03  1.76121E+03 -2.07768E+03
  4.55952E+03 -2.88861E+03 -1.13100E+01  1.16825E+03 -1.55672E+03  3.33893E+03  4.06967E+03 -1.53382E+03
  2.95583E+03  1.22988E+03  3.86847E+03 -5.14523E+02  7.45772E+03  5.87274E+03  4.58691E+03  4.59998E+03
  2.11457E+03  1.02215E+04 -9.93934E+03  2.38073E+03 -6.42810E+03  1.75841E+03 -6.18231E+03 -3.69372E+02
 -4.49367E+03 -4.34738E+03 -9.77046E+02 -6.71369E+03 -1.40176E+02 -2.89975E+03  2.72115E+03  2.44374E+03
  5.73388E+03  2.02047E+03  2.22560E+03  5.11482E+03 -5.31295E+02  3.29751E+03 -5.11074E+03  3.66576E+03
 -3.94484E+03 -6.64345E+03  2.85393E+03  3.01807E+03  3.99122E+03  3.39127E+03  9.00838E+02  3.88009E+03
  7.05212E+03 -2.30423E+03  5.67887E+03 -2.68433E+03 -2.43686E+03  3.51811E+02  2.41185E+03  1.26372E+03
  2.87720E+03 -9.84090E+02  4.11352E+02  1.56193E+03 -1.36776E+03  9.51038E+02 -1.09285E+03  4.05008E+03
 -1.66852E+03  4.18328E+03 -1.42706E+03  3.39750E+03 -3.07179E+03 -3.82521E+03  2.87372E+03 -2.44664E+03
  1.69216E+03  2.57992E+03 -1.80223E+03 -5.44337E+03  2.02112E+03  6.38691E+02 -7.33584E+02 -2.62290E+02
 -4.25008E+03 -2.58924E+03 -6.06407E+03  4.32821E+03  2.94977E+02 -4.97135E+03  2.09963E+02 -4.26828E+03
  3.99200E+03  1.89722E+03  2.98636E+03  3.81945E+03 -6.09421E+02  2.76446E+03 -8.92383E+02  1.47558E+03
 -1.51828E+03  3.79907E+03 -1.40554E+03  6.95714E+02 -5.67893E+02 -8.30814E+03  3.13848E+03 -2.94749E+03
  3.22738E+03  2.61753E+03  8.93424E+03  1.11133E+02  5.68239E+03  1.49016E+03 -6.44621E+03  5.43059E+03
 -1.60071E+03  7.51339E+02 -4.02891E+02 -1.50427E+02  1.16801E+03 -7.63090E+03  1.15666E+03 -2.75106E+03
  3.93603E+03 -1.88929E+03  1.48315E+03  4.05563E+02  5.60971E+02  1.77298E+03  1.37769E+03  4.02359E+03
  1.98374E+03  5.49751E+03 -1.07666E+03 -4.40843E+03  1.68888E+03 -5.58431E+03  1.72548E+02  4.62549E+03
  2.70621E+03 -1.48120E+03 -9.99947E+02  2.32699E+03 -4.71392E+03 -1.12683E+03 -9.94562E+03  1.33749E+03
  6.12668E+02 -3.01477E+03 -3.53245E+03 -5.48912E+03  6.30383E+02 -6.12515E+03  5.78465E+03 -1.99348E+03
  2.18783E+03  3.56888E+03  3.75143E+03  3.09129E+03  2.46107E+03  4.94912E+03 -3.49149E+02 -1.06420E+03
 -1.64478E+03  1.24892E+02 -8.77095E+02  7.37330E+02 -5.18086E+03  1.03572E+03  1.47297E+03  9.84406E+01
 -1.40421E+03  4.67969E+03 -3.34665E+03 -4.12242E+03 -1.27377E+03 -1.17034E+03  7.87861E+02 -2.03324E+03
 -2.88314E+03 -3.18562E+02 -7.21509E+02 -3.01938E+03  5.36118E+03  3.52444E+03  5.51825E+02  2.70687E+03
 -1.00094E+03  2.42456E+03 -4.23216E+03  5.28254E+03 -7.38374E+03  1.35030E+03 -4.42040E+03 -3.09452E+03
  7.28410E+02 -1.74242E+03  2.64928E+03 -7.12209E+02  9.79892E+02 -3.33768E+03  1.30138E+03 -5.50615E+01
  3.79765E+03  8.43294E+02 -2.48280E+03 -3.85698E+02 -9.45481E+02  1.03447E+02 -3.80074E+02 -3.19501E+03
  2.67385E+03  3.74084E+03  4.04653E+03 -6.62171E+02 -7.40469E+02  3.56855E+03 -8.69997E+02  3.78827E+03
 -1.30415E+03  4.53642E+03 -8.41182E+01  3.03325E+03 -2.75133E+03  1.70499E+02 -3.53560E+02 -5.99265E+03
 -3.64887E+03 -1.90237E+03  6.75046E+03 -1.11724E+03  1.93632E+03 -5.18465E+03 -2.79142E+03  4.60010E+03
 -4.56253E+03  2.61578E+03 -1.30124E+02  2.18585E+03  7.55544E+01 -3.47124E+02  3.19330E+03  4.66543E+03
  5.64039E+02  3.56875E+03 -1.00031E+03  2.94912E+02 -3.06777E+03 -4.24066E+03 -2.76874E+03 -6.16044E+02
 -2.22456E+03 -5.06905E+02  3.03357E+03  1.69944E+03  1.97990E+02 -7.40759E+02  1.06469E+03 -1.98641E+03
  1.99904E+03 -6.56052E+03  5.10197E+03  3.01888E+03 -2.08181E+02  4.17193E+03 -9.48363E+02  2.47061E+03
