 $NMID ID='MM_0lb_SNR50_20hz_g60_16.RAW', FMTDAT='(8E13.5)'
 TRAMP=1., VOLUME=1. $END
  3.08651E+05  5.75649E+03  3.34882E+05  2.53148E+05  8.51451E+04  3.35272E+05 -1.30977E+05  2.53146E+05
 -1.92044E+05  8.31727E+04 -1.10186E+05 -3.39697E+04 -1.75338E+02 -4.83116E+04  5.59863E+04 -7.24953E+02
  3.90559E+04  5.07762E+04 -2.00819E+04  7.49555E+04 -6.50825E+04  5.89092E+04 -8.47472E+04  3.08841E+04
 -8.11784E+04 -1.34916E+04 -5.77646E+04 -5.00833E+04 -1.45049E+04 -7.06334E+04  2.75820E+04 -4.63837E+04
  3.79336E+04  2.97506E+03  1.52117E+04  4.54637E+04 -3.25867E+04  4.47987E+04 -6.62237E+04  2.41601E+02
 -5.31556E+04 -6.13612E+04 -6.05479E+03 -7.73625E+04  2.93339E+04 -5.42575E+04  4.99588E+04 -1.67458E+04
  4.39087E+04  1.28159E+04  2.91561E+04  2.52024E+04  1.66907E+04  2.72737E+04 -6.98159E+03  2.52733E+04
 -2.07746E+04  1.12086E+04 -2.03543E+04 -7.90605E+02  6.85239E+03 -3.47973E+03  2.29225E+04  1.07780E+04
  6.57759E+03  3.97025E+04 -3.16027E+04  3.63443E+04 -6.20794E+04  3.62131E+03 -5.52484E+04 -3.90417E+04
 -1.38229E+04 -6.01272E+04  3.98606E+04 -4.49908E+04  5.31254E+04 -3.65849E+03  3.30096E+04  2.82634E+04
 -2.73658E+03  3.49165E+04 -2.74733E+04  1.72783E+04 -2.57285E+04 -8.12190E+03 -1.64119E+04 -9.61376E+03
 -9.35245E+03 -7.45229E+03 -2.34216E+03 -1.57758E+04  6.98750E+03 -2.57077E+04  1.39766E+04 -1.40423E+04
  1.58286E+04  3.35093E+03 -7.79867E+03  1.49960E+04 -1.89545E+04 -7.60170E+03 -9.87427E+03 -2.99158E+04
  2.42216E+04 -4.08939E+04  4.69073E+04 -1.60713E+04  4.33511E+04  2.00091E+04  1.56786E+04  4.35339E+04
 -1.79047E+04  3.34108E+04 -2.11031E+04  1.76352E+03 -5.73993E+03 -2.66441E+04  1.80907E+04 -3.29469E+04
  4.15428E+04 -1.12487E+04  3.26763E+04  2.30226E+04  1.86074E+04  4.43779E+04 -7.98784E+03  4.81654E+04
 -3.21193E+04  3.04314E+04 -4.27596E+04  1.16775E+04 -4.14697E+04 -1.51620E+04 -2.35323E+04 -3.82438E+04
  8.12725E+03 -3.17838E+04  3.17882E+04 -1.68621E+04  2.41901E+04  1.13689E+04  3.21857E+03  2.01376E+04
 -1.26104E+04  9.48326E+03 -6.41850E+03 -8.61884E+03  6.99950E+03 -6.58485E+03  2.03150E+04  9.43534E+03
  8.20052E+03  2.38309E+04 -6.97360E+02  2.28911E+04 -1.82443E+04  1.09251E+04 -2.55551E+04 -3.24207E+03
 -1.46176E+04 -1.51822E+04 -6.98798E+03 -1.61367E+04 -1.46478E+03 -1.13172E+04  1.33967E+04 -1.51254E+04
  2.27699E+04 -1.42196E+04  3.00497E+04  1.65640E+03  2.13711E+04  1.41338E+04  6.88563E+03  3.09531E+04
 -1.73704E+04  2.78148E+04 -2.75901E+04  9.63265E+03 -2.09339E+04 -1.02185E+04 -3.15452E+03 -8.91793E+03
  5.17817E+03 -3.31654E+03 -5.18237E+03  1.01290E+04 -1.29075E+04 -4.90865E+02 -1.60754E+04 -5.97131E+03
 -6.19054E+03 -1.60960E+04  3.85194E+02 -1.81726E+04  1.52325E+04 -1.30778E+04  1.80938E+04  1.84549E+03
  8.83577E+03  1.34166E+04 -6.01258E+03  1.82729E+04 -8.55495E+03  1.10170E+04 -1.86509E+04 -3.10583E+03
 -1.35841E+04 -1.56487E+04 -3.28442E+03 -1.45077E+04  7.35598E+03 -1.35478E+04  1.97262E+04 -7.45327E+03
  1.37177E+04 -1.44057E+03  7.78505E+03  6.12803E+03  5.49330E+03  2.01573E+03  4.93752E+03  6.60333E+02
  1.39803E+04 -5.85666E+02  1.14603E+04  1.38724E+04  9.48359E+03  2.54147E+04 -6.12644E+03  2.73460E+04
 -1.16076E+04  2.10771E+04 -2.44305E+04  1.12619E+04 -2.85209E+04 -6.08014E+03 -2.15556E+04 -1.28903E+04
 -9.01342E+03 -2.27926E+04  6.06393E+03 -2.33940E+04  1.57042E+04 -1.11442E+04  1.52806E+04  6.16544E+03
  5.04898E+02  1.15743E+04 -3.61185E+03  9.78075E+03 -1.49444E+04  1.99621E+03 -1.19182E+04 -8.24098E+03
  3.71838E+03 -1.52359E+04  8.18360E+03 -9.72770E+03  4.91297E+03 -4.67845E+02 -5.22227E+02  6.48161E+03
 -4.24900E+03 -4.26336E+03 -5.70484E+03 -6.02138E+03 -5.48808E+02 -7.15166E+03  5.23926E+03 -1.27954E+04
  1.05290E+04 -5.80888E+03  1.41012E+04  4.08761E+03  9.67302E+03  8.56829E+03  5.15214E+03  1.52760E+04
  5.39878E+02  1.52733E+04 -8.34711E+03  8.94982E+03 -1.16869E+04  2.64219E+03 -5.32237E+03  4.67002E+02
 -2.84903E+03 -2.65653E+03  5.87517E+02 -1.24294E+03 -4.31411E+03 -6.35719E+02 -7.54529E+03  3.23341E+03
 -7.30458E+03 -1.33384E+03 -9.68973E+03 -8.06147E+03 -3.42576E+03 -1.28483E+04  1.45501E+03 -7.34027E+03
  8.31376E+03 -4.04759E+03  7.51302E+03  4.96297E+03  1.32892E+03  4.32088E+03 -2.23073E+03 -3.09641E+03
 -1.12621E+03 -5.56783E+03 -2.48070E+03 -4.47930E+03  3.59518E+03 -4.87434E+03  6.94418E+03 -3.16738E+03
  1.24049E+04  5.21958E+01  1.20962E+04  1.09209E+04  1.28015E+03  7.14936E+03 -5.59665E+03  6.93679E+03
 -1.02250E+04  1.87827E+03 -2.26008E+03 -4.24257E+03  2.85808E+03 -4.20461E+03  4.04518E+03 -4.60906E+03
  4.78840E+03  4.00609E+03  1.82193E+03  6.39759E+03 -2.46939E+03  4.44663E+03 -6.58788E+03  2.12885E+03
 -6.11187E+03 -1.04972E+04 -1.85080E+03 -6.49442E+03  4.57017E+02 -2.89382E+03  1.30895E+03  5.37020E+03
  2.70212E+03  5.12915E+03 -3.43985E+03  7.36428E+03 -3.44306E+03  5.14072E+03 -4.98955E+03 -5.95441E+02
 -9.28832E+02 -1.99012E+03  3.09921E+03 -5.81456E+03  5.87774E+03 -6.36574E+03  6.90120E+03 -3.00004E+03
  3.25471E+03  6.29975E+03 -3.15008E+02  9.24201E+03 -5.46868E+03  6.12823E+03 -6.49916E+03 -2.27379E+02
 -4.18750E+03 -6.39531E+03  1.31645E+03 -2.16243E+03 -7.88375E+02 -4.36147E+03  6.03146E+02 -3.12543E+03
  4.85765E+02 -2.41955E+03  2.17171E+03  1.09680E+03  1.19068E+03 -1.26360E+03  8.24478E+02 -1.50496E+03
  5.02323E+03  3.35890E+03  6.51703E+03 -1.23779E+02  8.03800E+03  5.91010E+03  4.67565E+03  5.54639E+03
 -3.99185E+03  7.76606E+03 -1.26126E+04  8.68106E+03 -9.23613E+03 -2.78581E+01 -6.98879E+03 -1.11094E+03
 -5.82446E+03 -3.33187E+03 -1.51780E+03 -2.55269E+03 -8.06725E+02 -5.13989E+02  1.26212E+03 -6.21900E+03
  6.61910E+02 -4.57243E+03  1.63247E+03 -8.05700E+02  3.04026E+03 -2.54287E+03  4.29317E+03 -2.97032E+03
  2.41196E+03  2.72777E+02  6.60269E+03  3.80176E+03 -2.64151E+03  2.46514E+03 -4.56566E+03  2.44571E+03
 -3.84307E+03 -3.31118E+03 -4.09322E+03 -1.95912E+03 -3.61828E+02 -2.17711E+03  2.99798E+03 -5.29841E+03
  6.35513E+03  3.22879E+03  6.17935E+03  2.27155E+03  5.03586E+03  9.59518E+03 -2.52952E+03  3.51289E+03
 -1.75647E+03  5.95490E+03 -6.13895E+03  3.04839E+03  3.13350E+03  1.64657E+03 -3.55577E+03 -1.99443E+03
  6.59889E+02  2.33500E+03 -3.06208E+03  5.36196E+02 -7.82042E+02  2.99576E+03 -3.73364E+03 -2.20992E+03
 -3.95758E+03 -1.67217E+03  1.04598E+03 -1.79628E+03  3.69773E+03 -8.61669E+03 -1.49707E+03 -1.93879E+03
  6.17855E+02  5.09689E+03 -3.49519E+03  5.14197E+03  3.20355E+03  5.72416E+03 -1.78542E+03  3.16630E+03
 -4.75897E+03  2.11770E+03 -2.07552E+03 -4.16937E+03  3.69302E+02 -3.45460E+03  3.30301E+03 -2.76654E+02
  5.81109E+03  2.30239E+03  2.48411E+03 -1.59604E+03  3.07395E+03  4.20400E+03  1.26469E+03  1.36627E+03
  4.34567E+02 -5.52250E+02 -1.37816E+03  2.66341E+03  2.63857E+03  1.55719E+03  3.26958E+02  2.01921E+03
  6.29374E+02  3.53647E+03 -4.27687E+03  2.17767E+03 -3.29586E+03 -2.06872E+03 -4.19189E+03  2.78954E+02
 -1.10081E+03 -5.88381E+03  1.24023E+03 -3.69553E+03  1.21478E+03 -2.43778E+03  6.91595E+03 -1.39335E+03
 -1.06280E+03  5.27343E+03  6.13752E+03  3.22148E+02  3.11891E+03  2.18099E+03  6.39374E+02 -1.79811E+03
 -4.86754E+02 -1.39768E+03  6.66938E+02 -2.32257E+03  2.28274E+03 -1.59518E+03 -2.50870E+02  3.31226E+03
 -1.17954E+02 -1.22583E+03 -9.01991E+02 -7.63312E+02 -1.62933E+03 -1.26758E+03  4.64118E+03  4.33468E+03
 -2.51497E+02  7.39866E+02  3.57484E+03 -2.85614E+03  4.16243E+03  4.21586E+03 -3.69819E+03  5.56418E+03
 -1.30275E+03  5.56967E+02 -6.76061E+03 -5.91663E+02 -3.72900E+03 -5.89652E+02 -4.44710E+03  3.68566E+02
  7.19239E+02 -2.24784E+03  3.03731E+03  1.13029E+03  8.68478E+01  1.40955E+03 -4.43524E+03 -1.59727E+03
 -2.56992E+03 -6.73973E+02  2.21600E+03 -5.61479E+03 -1.10929E+03  6.64452E+02 -1.94433E+03 -5.88955E+02
  7.92458E+02  2.36106E+03  4.66790E+02 -1.45099E+03 -2.24082E+03 -2.61493E+03 -3.23352E+02  1.30105E+03
  6.43370E+02 -2.10561E+03 -2.59894E+03 -8.42670E+02 -1.72743E+03 -4.42240E+03  5.89221E+03 -1.11781E+03
  1.58546E+03 -2.17531E+02  2.28989E+03  7.57358E+02  3.20028E+03 -9.49475E+02  5.16258E+02  2.83590E+03
 -2.42725E+03  1.28350E+03 -3.49652E+03 -3.52489E+03 -2.12721E+01  1.74947E+03  6.76953E+02  2.37403E+03
  1.84608E+03 -6.04088E+01 -1.96700E+03 -4.53068E+03  3.09316E+03  5.84485E+03  1.34555E+02  8.21391E+01
 -1.64321E+03  2.05282E+03 -4.41098E+03  5.52931E+02  3.89376E+02 -1.56502E+03 -6.62687E+02  7.01181E+02
 -2.55642E+03  2.96075E+02 -1.24855E+03  1.36982E+03 -3.42659E+03  2.69586E+03 -5.93945E+03  2.73104E+03
  7.84591E+02  2.56060E+03  3.24020E+03 -9.59721E+02 -5.03505E+03 -3.21341E+03  1.60368E+03 -2.41446E+03
  2.02947E+03 -3.20786E+03  2.54230E+03  8.65221E+00  3.91417E+03  2.46671E+03 -3.19731E+03 -4.35832E+02
  7.35908E+02 -8.64842E+02  1.95973E+03  2.37439E+03 -1.75070E+03 -3.82028E+03 -1.44072E+03 -1.43569E+03
  4.04886E+03 -3.60372E+02 -2.34571E+03  2.80027E+03 -7.99729E+02  1.50995E+03 -1.42805E+03 -2.39149E+03
  4.62774E+03  1.94807E+03  4.03976E+03  4.73352E+03 -1.09204E+03  3.33493E+03 -2.11303E+03 -1.00428E+03
 -6.01249E+02 -2.78979E+02 -4.59089E+03  1.30233E+03 -5.20303E+02  3.38053E+03  6.95645E+01 -1.53022E+03
 -1.33160E+03 -2.04956E+03  2.05014E+03 -4.06665E+02  6.57060E+02  2.11758E+03  3.48512E+03 -6.50021E+01
  9.93771E+02 -3.35540E+03  1.67496E+03 -1.71811E+03  3.04637E+03  2.72114E+03  9.39074E+02 -1.60435E+03
 -1.85977E+03  1.41948E+03 -3.71094E+03 -1.36229E+03 -4.66893E+03 -1.00586E+03 -1.47947E+02  1.61567E+03
  2.38341E+03 -2.08445E+03  1.99262E+03 -4.25416E+03 -6.31083E+03 -3.04896E+03  3.89016E+03  2.02613E+03
  3.66673E+03 -1.46505E+03 -1.24754E+03  9.10620E+01 -4.48900E+01 -3.86695E+03 -2.77301E+03  6.37786E+02
 -1.47892E+02 -1.76289E+03  6.65859E+02 -8.83075E+02 -2.50272E+03  7.07303E+02  9.97872E+02 -1.92913E+03
 -1.08838E+03 -1.09234E+03 -2.21196E+03 -4.94792E+02  2.25255E+03  2.69250E+03 -1.65213E+03 -4.75064E+03
 -1.08742E+03  3.52239E+03 -4.33399E+03 -2.26355E+03 -2.57746E+03  1.45525E+03 -1.19338E+03 -2.93264E+03
 -3.17363E+03 -4.15972E+03  1.67019E+03  5.85998E+02 -2.61802E+03  8.17510E+01  1.05676E+03 -3.39292E+02
