 $NMID ID='MM_0lb_SNR50_18hz_g60_72.RAW', FMTDAT='(8E13.5)'
 TRAMP=1., VOLUME=1. $END
  3.11338E+05  2.10995E+01  3.35754E+05  2.48070E+05  8.73066E+04  3.38796E+05 -1.31625E+05  2.50041E+05
 -1.90359E+05  8.29784E+04 -1.09063E+05 -3.48035E+04  6.62930E+02 -5.50772E+04  5.42077E+04 -2.46183E+02
  3.61384E+04  5.38657E+04 -1.47582E+04  7.38736E+04 -5.83942E+04  5.77189E+04 -8.45299E+04  3.01681E+04
 -8.27785E+04 -1.44705E+04 -5.84779E+04 -5.03618E+04 -9.85871E+03 -6.51278E+04  2.52489E+04 -4.70907E+04
  4.11293E+04  6.50879E+03  1.40868E+04  4.82847E+04 -3.60695E+04  4.69720E+04 -6.42882E+04  1.74358E+03
 -5.13913E+04 -5.46867E+04 -6.13907E+03 -7.78055E+04  3.36075E+04 -5.96840E+04  4.78283E+04 -1.55725E+04
  4.38987E+04  1.14594E+04  3.39889E+04  2.73308E+04  1.83419E+04  2.92321E+04 -7.69345E+03  3.09070E+04
 -2.20463E+04  1.20573E+04 -2.00819E+04 -3.66590E+03  8.16474E+03 -7.34277E+03  2.37765E+04  1.39072E+04
  8.69979E+03  3.42341E+04 -3.45400E+04  3.37872E+04 -6.18633E+04 -1.06132E+03 -5.60153E+04 -4.08681E+04
 -1.18352E+04 -6.61087E+04  4.29137E+04 -4.53582E+04  5.51321E+04 -6.48455E+03  3.42627E+04  3.81355E+04
 -3.22641E+03  3.67020E+04 -3.16455E+04  1.30866E+04 -2.76579E+04 -5.29232E+02 -1.60917E+04 -1.26222E+04
 -5.27672E+03 -1.51219E+04  5.66504E+02 -2.25789E+04  6.12099E+03 -2.47506E+04  1.63279E+04 -1.14338E+04
  1.29684E+04  2.26169E+03 -9.56423E+03  1.55019E+04 -2.18749E+04 -4.13742E+03 -9.23619E+03 -2.95947E+04
  2.38346E+04 -4.59376E+04  4.48642E+04 -1.98440E+04  4.00498E+04  1.95906E+04  1.46197E+04  4.57299E+04
 -1.44823E+04  3.24141E+04 -2.49325E+04 -6.64807E+02 -5.88184E+03 -2.66987E+04  2.26073E+04 -3.22149E+04
  3.71577E+04 -9.35555E+03  3.16652E+04  2.51371E+04  1.85656E+04  4.61483E+04 -6.06844E+03  4.59410E+04
 -3.22397E+04  2.99049E+04 -3.91491E+04  1.37486E+04 -4.03789E+04 -1.32129E+04 -2.22208E+04 -3.72494E+04
  8.40139E+03 -3.84208E+04  2.95253E+04 -1.40574E+04  2.78453E+04  8.16975E+03  7.36452E+03  2.00706E+04
 -1.36207E+04  1.07598E+04 -1.24423E+04 -4.45161E+03  3.27484E+03 -1.36830E+04  1.71010E+04  5.73085E+03
  1.22359E+04  2.37918E+04 -5.20192E+03  2.49394E+04 -2.20707E+04  5.59518E+03 -2.51205E+04  8.54066E+02
 -2.00073E+04 -1.60895E+04 -5.00312E+03 -2.12428E+04  4.03409E+03 -1.67979E+04  1.10408E+04 -1.37012E+04
  2.25984E+04 -1.57973E+04  3.38718E+04  2.85992E+03  1.94988E+04  2.15176E+04  6.67313E+02  3.69658E+04
 -1.73863E+04  2.43426E+04 -3.09898E+04  7.22291E+03 -1.86173E+04 -7.82166E+03 -3.51897E+03 -1.09947E+04
  6.11936E+03  6.95931E+02 -7.63048E+03  5.50573E+03 -1.39806E+04  3.70820E+03 -1.30010E+04 -4.52578E+03
 -1.08542E+04 -2.02325E+04  1.68230E+03 -1.98928E+04  1.28403E+04 -1.66237E+04  1.54442E+04 -7.10196E+02
  6.08645E+03  1.05958E+04  2.18055E+03  1.76081E+04 -1.24527E+04  7.05955E+03 -1.29546E+04 -5.09233E+03
 -8.40927E+03 -1.35884E+04 -4.05668E+03 -2.18678E+04  9.33102E+03 -1.92824E+04  1.76377E+04 -6.61861E+03
  1.41321E+04  3.22013E+03  1.36565E+04  5.62209E+03  9.11313E+03  1.76549E+03  1.21008E+04  8.59946E+02
  1.37914E+04  1.30880E+03  1.47676E+04  1.76000E+04  1.36837E+04  2.78838E+04 -7.38851E+03  3.32025E+04
 -1.73178E+04  2.40520E+04 -2.45096E+04  9.38656E+03 -2.60989E+04 -7.11335E+03 -2.23934E+04 -1.61931E+04
 -1.33203E+04 -2.39963E+04  9.02755E+03 -2.22017E+04  2.01794E+04 -1.44560E+04  1.75503E+04  6.29892E+03
  1.04270E+04  1.26885E+04 -4.48000E+03  1.24132E+04 -1.35052E+04  4.15972E+03 -9.45430E+03 -9.76673E+03
  6.27753E+02 -1.57623E+04  4.39176E+03 -9.98158E+03  7.80199E+03 -2.30855E+03  4.72206E+03  3.94957E+03
 -4.10438E+03  1.52742E+03 -1.64714E+03 -4.51535E+03  2.99045E+03 -1.40193E+04  7.64330E+03 -1.31949E+04
  1.30685E+04 -5.75138E+03  1.27127E+04  3.01479E+03  1.05063E+04  1.40618E+04  8.70928E+03  2.09520E+04
 -5.63284E+03  1.61661E+04 -1.13665E+04  1.04787E+04 -1.43227E+04  1.65560E+02 -8.97001E+03  2.50786E+03
 -7.38411E+03 -1.46786E+03 -5.31836E+03  2.75972E+03 -3.83291E+03  2.05327E+03 -8.05453E+03  7.02960E+03
 -6.41281E+03  1.46233E+03 -6.21185E+03 -6.43785E+03  7.98606E+02 -1.19563E+04  1.86686E+03 -1.15419E+04
  8.25371E+03  7.95843E+02  2.57965E+03 -1.80015E+03 -9.26260E+02  2.02069E+03 -5.51609E+03 -1.95218E+03
 -5.72751E+03 -6.35085E+03  2.60517E+01 -1.14625E+04  5.39433E+03 -1.03873E+04  1.31219E+04 -3.93318E+03
  1.72145E+04 -1.77984E+03  1.30144E+04  5.61506E+03 -9.29205E+02  1.23096E+04 -2.93570E+03  1.00640E+04
 -8.49459E+03  2.88915E+03 -2.57804E+03 -2.17549E+03  2.57200E+02 -8.30072E+02  6.13225E+03 -2.95952E+01
  3.78694E+03  4.98091E+03  1.28060E+03  8.13015E+03 -5.15002E+03  1.00813E+04 -7.35652E+03  1.97803E+03
 -8.30350E+03 -5.16376E+03  1.21282E+03 -7.53478E+03  2.11057E+03  1.93828E+02  1.56790E+03  3.43817E+03
 -4.96557E+02  7.26085E+03 -1.69642E+03  5.89445E+03 -2.87523E+03  8.40092E+02 -6.06903E+03 -3.74211E+03
 -4.30451E+03 -9.24015E+03 -7.19368E+02 -7.51610E+03  7.90917E+03 -7.10952E+03  7.21045E+03  6.24201E+03
  4.59285E+03  6.50772E+03  1.45871E+03  5.38342E+03 -8.42178E+03  5.98755E+03 -6.14733E+03 -1.09527E+03
 -3.85075E+03 -7.68833E+03 -1.14038E+03 -5.74632E+03  3.70748E+03 -4.15180E+03  2.18768E+03 -2.64558E+03
  6.09147E+03  1.96340E+03 -2.04520E+02  1.02083E+03  4.58459E+03 -2.15204E+03 -3.29418E+02  2.06440E+03
  6.06164E+03  2.27259E+03  9.06144E+03  2.99964E+03  7.61663E+03  4.57430E+03  7.48072E+03  5.39684E+03
  7.82174E+02  1.05498E+04 -2.71345E+03  6.20824E+03 -9.88364E+03  3.26082E+03 -9.84363E+03 -3.34804E+03
 -5.84347E+03 -8.50640E+03 -7.83650E+00 -7.90126E+03  5.95417E+02 -8.16414E+02  4.79012E+02 -2.71198E+03
 -4.24506E+02 -2.74772E+03  1.20730E+02 -2.93812E+03  2.69121E+03 -4.90856E+02  8.34530E+03  5.03803E+03
  1.38913E+03 -2.36605E+01 -1.34070E+01  1.69756E+03 -1.63854E+03  5.71510E+03 -5.42880E+03  5.60636E+03
 -7.41092E+03  2.04915E+03 -3.03705E+03 -4.48015E+03 -1.82419E+03 -8.42133E+03  3.39697E+03 -6.39480E+03
  5.25681E+03 -4.64711E+03  5.49692E+03  3.31657E+03  6.09175E+03  3.14236E+03  2.65377E+03  1.31960E+04
 -1.26316E+03  6.84008E+03  2.68758E+03  1.90148E+00 -3.90055E+03  2.60252E+03 -1.09333E+01 -2.19834E+03
  2.81499E+03  4.26554E+03 -1.11260E+03 -1.94957E+03 -1.78397E+03 -2.57136E+03 -4.18147E+03 -8.20282E+01
  1.13383E+03 -4.56174E+03  1.86488E+03 -6.04487E+03  7.42877E+02 -7.41181E+03  6.59842E+03 -2.21210E+03
  4.61397E+03  3.16106E+03  4.64552E+03  2.95904E+03 -1.28461E+02  2.36331E+03 -7.84991E+03  2.36101E+03
 -2.23317E+03  6.77205E+02 -2.09491E+03 -5.79836E+02 -5.61371E+03 -2.52256E+03  5.33609E+03 -4.22071E+02
  5.77710E+03  2.02921E+02  1.51445E+03  6.12618E+03 -7.07244E+02  5.29632E+03  3.92867E+03 -7.62635E+02
  5.01873E+03  3.23748E+03  1.64297E+02 -6.92442E+02 -1.81192E+02  4.90107E+03 -3.46060E+03  2.23629E+03
 -1.27977E+03  4.94872E+02 -9.30946E+03  2.46114E+03 -1.83450E+03  1.57483E+03 -1.44851E+02 -1.32817E+03
  1.49983E+03 -5.45924E+03 -1.39319E+03 -4.24669E+03  2.58914E+03 -2.11808E+03  2.41163E+03  5.30900E+02
  5.75411E+03  4.89038E+03 -2.85780E+03  6.24643E+02 -2.33022E+03  1.61447E+03 -2.94971E+03 -2.83886E+03
  5.45436E+02  3.61535E+03  6.86502E+02 -2.15312E+03  1.15660E+03 -2.97025E+03  4.61191E+03 -1.74148E+03
 -6.75360E+02  1.70795E+03  8.36799E+01  6.52284E+02  1.67827E+03  1.12426E+03  8.88861E+02  1.57373E+01
 -2.32998E+03  1.25801E+03 -1.17162E+02  1.44956E+03  5.03975E+02  3.31743E+03  3.30343E+03  6.19649E+03
 -2.24755E+03  1.22582E+03 -3.00081E+03  3.85336E+03  5.64893E+02 -4.33870E+03  4.31135E+03 -1.34624E+03
 -6.69064E+02 -2.14671E+03 -9.12995E+02 -4.50199E+03  1.36864E+03  3.13208E+03  3.42715E+02  1.52383E+03
  1.89898E+01 -2.36163E+03 -3.38455E+03  7.18724E+02 -5.85289E+03 -5.79605E+03  1.40979E+02 -2.59746E+03
  4.63625E+03 -2.45600E+03  1.56426E+02  1.39635E+02 -1.77814E+02  2.13673E+02  2.52418E+03  3.70208E+03
 -5.39920E+02  1.71610E+02 -3.51166E+03  3.20829E+03  4.22742E+02  4.79763E+03  8.21741E+02  1.75456E+03
  3.15054E+03  2.34790E+03  7.24400E+03  2.65722E+03  2.33029E+03  4.54826E+03 -5.90693E+02  1.92739E+03
 -2.52467E+03 -9.60764E+02 -7.05371E+03 -5.29824E+03  3.12126E+03  2.12826E+02 -2.21410E+03  2.20940E+03
  4.14140E+02 -1.96406E+02  3.08641E+03  2.45699E+03  2.56600E+02  1.77479E+02  2.66450E+03  3.64661E+03
 -1.79884E+02 -1.68839E+03  1.00130E+03  3.58208E+03  2.32198E+03  1.11027E+03  6.64584E+02  5.79399E+03
  1.86587E+02  1.01732E+03 -3.35634E+03  1.45066E+03 -1.41242E+03 -2.96511E+03 -8.01180E+02 -3.22950E+03
 -6.30753E+02 -2.10560E+03  3.00418E+02 -6.56984E+02 -1.37260E+02 -3.02928E+01  3.99859E+03 -1.59831E+03
  2.91381E+03 -3.53548E+03  3.90472E+02  1.57657E+03 -3.71669E+03  1.37967E+02 -2.26882E+03  1.76576E+03
 -1.58819E+03  2.21155E+03  3.27507E+03  4.36750E+02 -8.70492E+02  1.33742E+03 -3.02306E+03 -1.30337E+03
  6.00336E+02 -4.54369E+03 -1.12919E+03  3.02501E+03  2.68328E+03 -1.45051E+03 -1.46872E+03  9.64669E+02
  1.25762E+03 -2.88665E+03 -1.36284E+03 -1.88472E+03  5.01206E+02  4.14605E+03 -1.04159E+03  3.09073E+03
  6.38383E+02  1.88441E+03  1.74407E+03  1.71521E+03 -4.98817E+03 -4.45453E+02  1.92237E+03 -4.13437E+03
 -5.69437E+01 -9.69918E+01  9.18811E+02 -2.89313E+03  1.86918E+03  8.70656E+02 -1.39339E+02 -5.25900E+02
  6.84420E+03 -2.56724E+03  8.88657E+02  4.50459E+03 -2.34412E+03 -1.46757E+03  1.37310E+03 -1.49549E+02
 -1.55975E+02  2.19503E+03 -6.69727E+02 -4.66476E+03  1.09862E+03 -3.25315E+03  8.03379E+02 -3.74796E+02
  3.15268E+03  2.12092E+03  1.94649E+01  2.40619E+03  5.06271E+03 -2.35619E+03  1.46696E+03 -2.60032E+02
  7.40625E+02 -2.78411E+03 -1.94532E+03 -8.81373E+02 -3.18116E+02  2.05707E+03  7.55765E+02  2.01125E+03
 -1.57159E+03 -8.50953E+02 -8.04492E+02  2.07577E+03 -6.26560E+02 -4.30269E+03  9.42122E+02  4.45678E+03
 -1.16687E+03 -3.51859E+02 -2.64478E+03  4.79709E+03  1.23190E+03  9.80545E+02  1.93515E+03  1.50116E+03
 -2.33103E+02 -6.99859E+02  1.50550E+03 -6.06184E+02 -1.14024E+03 -6.47925E+02  1.21790E+03 -4.46155E+03
 -2.01191E+03  8.28437E+01 -1.14915E+03  1.83200E+03  1.65376E+02 -3.06428E+02  2.63066E+03  3.31461E+03
