 $NMID ID='MM_0lb_SNR50_17hz_g45_79.RAW', FMTDAT='(8E13.5)'
 TRAMP=1., VOLUME=1. $END
  3.07989E+05 -2.69903E+03  3.33866E+05  2.51563E+05  8.27916E+04  3.36721E+05 -1.30091E+05  2.50984E+05
 -1.90297E+05  8.49856E+04 -1.08643E+05 -3.32871E+04  3.97182E+03 -4.90669E+04  5.37216E+04  3.36166E+03
  3.12319E+04  5.42952E+04 -1.63219E+04  7.64891E+04 -5.76636E+04  6.29454E+04 -8.41548E+04  3.13629E+04
 -7.69529E+04 -1.05090E+04 -5.67222E+04 -5.03009E+04 -1.73663E+04 -7.04335E+04  2.58613E+04 -4.60015E+04
  3.53930E+04  6.32373E+03  1.84064E+04  4.72535E+04 -3.53235E+04  4.63172E+04 -6.90542E+04 -4.12904E+03
 -5.44069E+04 -5.37697E+04 -5.36466E+03 -7.53490E+04  3.00701E+04 -5.41062E+04  4.41064E+04 -1.83373E+04
  4.02190E+04  1.32704E+04  3.43191E+04  2.21426E+04  1.78237E+04  2.68290E+04 -4.78821E+03  2.49760E+04
 -1.89926E+04  1.22023E+04 -1.94151E+04 -1.15585E+03 -1.04360E+03 -9.53023E+03  2.37056E+04  9.10012E+03
  7.07326E+03  3.58161E+04 -3.21672E+04  3.41282E+04 -6.11582E+04  1.35288E+03 -5.24299E+04 -4.06441E+04
 -1.32082E+04 -6.21156E+04  3.85805E+04 -5.33726E+04  5.27235E+04 -3.40759E+03  3.41631E+04  2.98047E+04
 -5.23618E+03  3.46901E+04 -3.18148E+04  1.40992E+04 -2.72275E+04 -4.51872E+03 -1.89977E+04 -1.01372E+04
 -1.08177E+04 -1.05175E+04 -1.45495E+02 -1.85034E+04  8.86016E+03 -2.66996E+04  1.33265E+04 -1.93915E+04
  9.78433E+03  6.86984E+03 -7.87300E+03  1.17157E+04 -2.29842E+04 -2.83643E+03 -7.68171E+03 -2.75376E+04
  2.65963E+04 -4.06036E+04  4.75708E+04 -1.92999E+04  4.49343E+04  1.82455E+04  1.38469E+04  4.58661E+04
 -1.76435E+04  2.98264E+04 -2.67615E+04 -1.41720E+03 -1.00014E+04 -2.51018E+04  2.22667E+04 -3.38560E+04
  4.04460E+04 -2.23828E+03  3.06502E+04  2.62278E+04  1.49594E+04  4.47113E+04 -8.27697E+03  4.53358E+04
 -2.97173E+04  2.33999E+04 -3.89677E+04  6.82110E+03 -4.06526E+04 -1.76677E+04 -2.33057E+04 -3.58382E+04
  6.20786E+03 -3.41075E+04  2.64757E+04 -1.30118E+04  2.60843E+04  1.03212E+04  4.01839E+03  2.07857E+04
 -1.23440E+04  5.12151E+03 -8.39193E+03 -9.08913E+03  5.55515E+03 -1.41105E+04  1.62190E+04  7.23515E+03
  1.47915E+04  1.76109E+04 -8.09906E+03  2.52235E+04 -2.00889E+04  9.84187E+03 -2.59105E+04 -4.67083E+03
 -1.54307E+04 -1.82880E+04 -4.60897E+03 -1.69403E+04  5.57615E+02 -1.39918E+04  1.66465E+04 -1.30308E+04
  2.36012E+04 -1.26947E+04  2.54206E+04  1.45094E+03  2.08462E+04  1.72532E+04  1.18395E+03  3.11055E+04
 -1.67776E+04  2.87048E+04 -2.45297E+04  8.97527E+03 -2.18291E+04 -9.53294E+03 -5.57070E+03 -1.40017E+04
  3.03948E+03 -3.06239E+03 -1.61051E+03  1.03033E+04 -1.16974E+04  4.16803E+03 -1.71240E+04 -4.46188E+03
 -6.71228E+03 -1.26599E+04  5.67228E+03 -1.81744E+04  1.37063E+04 -1.80652E+04  1.86954E+04 -4.38551E+03
  9.82738E+03  8.63866E+03 -5.13516E+03  1.58907E+04 -7.75210E+03  9.02101E+03 -1.74506E+04 -3.53647E+03
 -8.24656E+03 -1.90847E+04 -1.89481E+03 -1.69271E+04  1.34120E+04 -1.28153E+04  1.87256E+04 -9.09214E+03
  1.57268E+04 -3.35854E+03  1.01633E+04  1.62831E+03  3.07868E+03 -3.83338E+03  6.94741E+03 -1.87368E+03
  1.21544E+04 -2.53180E+02  1.54012E+04  1.03433E+04  1.19749E+04  2.78072E+04 -4.92771E+03  2.68985E+04
 -1.72435E+04  2.15482E+04 -2.79676E+04  1.27105E+04 -2.70749E+04  2.14504E+03 -2.34521E+04 -1.55018E+04
 -1.21361E+04 -2.02600E+04  6.57977E+03 -2.27424E+04  2.03324E+04 -9.87452E+03  1.83433E+04  1.02185E+03
  8.78356E+03  1.22198E+04 -7.79802E+03  1.14078E+04 -1.45238E+04  6.73512E+02 -1.46666E+04 -7.88855E+03
  2.38392E+03 -1.44453E+04  3.45068E+03 -7.00563E+03  7.18176E+03 -5.38896E+02  3.48530E+03  7.49171E+03
 -4.00031E+03  3.53895E+03 -2.21582E+03 -2.67818E+03 -6.22197E+02 -1.01989E+04  6.37141E+03 -9.31858E+03
  1.17282E+04 -5.48443E+03  1.20216E+04  8.35930E+02  1.32898E+04  9.58518E+03  8.17580E+03  1.67386E+04
 -3.43812E+02  1.62844E+04 -7.92762E+03  6.66987E+03 -1.26530E+04  7.42823E+03 -6.25948E+03 -6.38620E+02
 -6.84553E+03 -2.95525E+03 -3.72243E+03 -1.33821E+03 -3.40150E+03  4.83338E+03 -6.76485E+03  8.20769E+03
 -5.53887E+03 -2.24929E+03 -1.26956E+04 -7.87582E+03 -7.85796E+03 -7.35057E+03  3.43062E+03 -1.34785E+04
  2.67799E+03 -6.68929E+03  5.08261E+03  2.37063E+03 -1.48905E+03  3.42743E+03 -6.00208E+03  4.14156E+03
 -5.61232E+03 -7.44495E+03 -2.31306E+03 -7.37526E+03  6.15736E+03 -7.99573E+03  7.15768E+03 -3.57513E+03
  1.32692E+04 -2.99555E+03  7.29284E+03  6.32810E+03  3.03545E+03  7.03221E+03 -3.32759E+03  8.54058E+03
 -5.91284E+03  2.21599E+03 -8.36820E+03 -1.91294E+03  2.61255E+03 -4.16535E+03  6.28179E+03 -4.95135E+03
  7.06750E+03  5.50119E+03  6.95590E+02  4.97177E+03 -3.40908E+03  9.37106E+03 -1.25211E+04  1.72868E+03
 -6.47571E+03 -8.76625E+03 -2.72100E+03 -1.18760E+04 -1.86481E+03 -9.76999E+02  3.42557E+03  1.28334E+03
  2.37282E+03  4.18997E+03 -5.56406E+03  7.54026E+03 -6.64016E+03  1.05070E+03 -8.62142E+03 -6.92807E+02
 -5.85409E+03 -3.44898E+03  8.78074E+02 -3.87597E+03  6.45085E+03 -5.22966E+03  6.83070E+03  1.94247E+03
  3.41599E+03  3.62619E+03  9.42478E+02  7.70699E+03 -5.11814E+03  7.54098E+03 -3.64570E+03 -6.76626E+02
 -6.64432E+03 -6.63649E+03  1.72041E+03 -6.42831E+03  4.72805E+03 -1.11496E+04  3.04273E+03 -1.47359E+02
  3.69269E+03 -3.24379E+03 -3.21355E+02 -1.66094E+03 -2.53062E+03 -4.91345E+03 -1.05560E+03 -4.20018E+03
  4.11341E+03 -6.66390E+02  5.15316E+03 -4.78858E+03  4.82146E+03 -3.01513E+02  1.02312E+04  1.14464E+04
  1.09535E+03  9.85013E+03 -1.08990E+04  8.72131E+02 -1.35143E+04  3.51604E+02 -9.30886E+03 -2.81705E+03
 -2.41548E+03 -6.56258E+03 -1.22468E+03 -4.95264E+03  1.81544E+02 -9.19749E+02  1.70206E+02 -3.25389E+03
  3.12327E+03 -6.01505E+03  2.64611E+03  1.18668E+03  4.87746E+03  3.60188E+03  5.29886E+03 -1.27974E+03
  1.15333E+03  2.01030E+03  6.89963E+02  5.57030E+02 -1.04402E+02  7.32384E+03 -2.16102E+03  4.40399E+03
 -4.50790E+03 -3.75001E+03 -7.92809E+02 -7.31275E+03  1.29293E+03 -9.10948E+03  4.63372E+03 -9.66436E+03
  7.55736E+03 -1.93041E+03  1.06051E+04 -4.21984E+03  6.09436E+03  3.31160E+03 -3.94624E+02  3.58920E+03
 -3.41009E+03  6.12987E+03  6.73405E+02  3.56041E+03 -1.10936E+03 -6.72136E+03 -3.51513E+03 -1.91045E+03
 -1.15397E+03  9.36068E+01 -4.71535E+03 -1.16112E+03  2.81547E+03  5.00780E+02 -7.44172E+03 -1.25212E+02
 -8.59014E+02 -3.45945E+03  3.56366E+03 -5.96196E+03  1.14469E+03 -5.63934E+03  5.27683E+03 -1.06502E+02
  2.26342E+03  2.21844E+03  5.03923E+03  6.99204E+03 -1.39461E+03  8.80786E+03 -1.02223E+04  4.35179E+03
 -4.67905E+03 -2.46237E+03 -7.78245E+03 -3.42880E+03  9.24686E+02 -1.97824E+03  3.25087E+03 -4.17530E+03
  1.23611E+03 -3.98596E+03  2.64473E+03  4.01294E+02 -4.86316E+02  1.86510E+03 -1.70367E+03  1.29360E+03
  3.73576E+03 -7.81943E+02  1.06102E+03  1.99855E+02 -4.96633E+03  1.39927E+03  1.52160E+03 -5.84257E+02
  3.07891E+02  4.83487E+03 -4.49136E+03  2.14621E+03 -2.85103E+03  9.40085E+02 -1.10992E+04 -3.71787E+03
 -1.20256E+03 -2.52013E+03 -3.74298E+03 -2.10871E+03  4.21096E+03 -3.42210E+03  2.23341E+03  2.06120E+03
  3.71866E+03 -6.03739E+02 -1.61400E+03  7.72510E+03  1.07984E+03  1.39025E+02  8.78725E+02 -3.49649E+03
  2.57890E+03  8.79894E+02  3.91800E+03  5.81071E+02 -1.19161E+03 -3.82967E+03  6.32146E+03 -9.06614E+02
  3.44949E+03 -1.87476E+02 -5.67794E+02  3.30169E+02  4.29617E+02 -8.31096E+02  2.82140E+03  1.61957E+02
  3.95261E+03  1.24256E+03  5.01772E+03  5.06683E+03  3.46968E+03  1.31920E+03  4.24639E+03  3.87676E+03
 -2.40786E+03  2.50726E+03 -4.83233E+03 -2.18061E+03 -1.76829E+03 -4.79815E+03  3.18857E+02  2.43017E+02
  8.63817E+02 -8.13907E+02  6.83825E+03 -3.01474E+03 -1.55316E+03 -1.59094E+03 -2.39960E+03 -4.40918E+02
 -5.44467E+03  8.49327E+03 -3.75023E+03 -1.85062E+03 -1.60349E+02 -8.54160E+02 -2.05611E+03 -1.22301E+03
 -1.86249E+03  1.56540E+03  2.84831E+03 -3.39984E+03 -2.38326E+03 -3.82585E+02  2.30960E+02  1.83918E+02
  5.11465E+02  2.77189E+03 -1.27632E+03 -1.96577E+03 -9.76857E+02  2.28287E+03 -2.50038E+03 -6.94367E+03
  4.24962E+02 -1.87517E+03  4.89333E+03 -3.54258E+03 -1.62353E+03  3.15698E+03 -7.63281E+02  3.29621E+03
  1.06535E+03 -7.58579E+02 -2.60706E+03 -1.10209E+03 -2.03915E+03 -8.88098E+02  3.59443E+02 -1.08931E+03
  1.31532E+02  2.11359E+03  2.28926E+03  1.54959E+03  1.67142E+03  2.50589E+03  2.39298E+03  1.75868E+03
 -4.91467E+02 -7.81427E+01  9.85565E+02  4.63893E+03 -6.62140E+02  4.98661E+02  1.89957E+03 -1.86817E+03
 -2.36942E+03  8.04033E+03  6.65736E+02  4.01525E+03 -3.09392E+03  2.02130E+03 -1.64068E+03 -9.46377E+02
 -2.01747E+03 -4.79255E+03  7.42996E+03 -6.30751E+03  1.71349E+03 -2.81102E+03  4.99167E+03  9.29026E+02
  1.39184E+03 -9.84233E+02  1.74310E+03 -1.94179E+03 -1.67010E+03  1.24049E+03 -5.74122E+02  1.98234E+03
 -2.18094E+03  1.45031E+03 -2.96660E+03 -2.37092E+03 -4.23338E+03 -3.07206E+02 -1.94236E+03  7.35766E+02
  5.91869E+02  2.11562E+03  2.07442E+02 -5.76712E+02  1.55509E+03 -1.90592E+03 -2.92778E+02 -1.00675E+03
  2.38619E+03 -2.32292E+03 -1.38338E+03  1.55068E+03  3.87691E+03 -9.25684E+01  3.54845E+03  1.75779E+03
 -8.17821E+01  6.52629E+03  6.21839E+02 -1.54200E+03  1.43714E+03 -3.92430E+03  6.01784E+02 -3.05622E+03
  1.16128E+03  9.20868E+02  2.53621E+03 -2.01116E+03  9.09492E+02  5.97624E+02  2.69774E+03 -1.41328E+02
 -2.03586E+03 -8.85530E+02 -4.58323E+02  9.05374E+03  2.07551E+02 -1.42613E+03  1.77836E+03  4.25896E+03
  4.64114E+01  4.74444E+03 -2.25026E+03  4.69609E+02 -5.18612E+02  4.77390E+03  9.60033E+02 -3.25053E+03
 -3.68310E+03 -1.95955E+03 -1.28328E+03  5.99277E+01 -1.11932E+03 -1.68987E+03 -3.87015E+03  2.65329E+03
 -3.35410E+03 -2.49808E+03  1.99195E+03 -2.75630E+03  4.72980E+03 -3.96447E+01 -6.76067E+02 -6.68632E+01
 -3.64452E+02 -2.93276E+03 -4.22004E+03 -2.86264E+03  1.77317E+03 -2.15456E+03 -2.78679E+03 -2.24529E+03
  1.31128E+03 -2.04159E+03 -4.48988E+03  8.36163E+02 -3.73899E+03 -3.73134E+03 -3.95617E+03  8.97596E+02
 -2.30480E+03 -1.28624E+02 -4.96424E+03  9.27788E+02 -2.25696E+03 -3.14546E+02 -3.89608E+03 -1.22478E+02
  3.99335E+03  7.89205E+02 -2.46565E+03  1.15369E+03  2.89985E+03  4.99911E+03 -3.85274E+03  3.12105E+02
