 $NMID ID='MM_0lb_SNR50_15hz_g40_49.RAW', FMTDAT='(8E13.5)'
 TRAMP=1., VOLUME=1. $END
  3.11692E+05  6.98729E+02  3.40525E+05  2.49798E+05  8.50990E+04  3.34457E+05 -1.32255E+05  2.58842E+05
 -1.92077E+05  8.10497E+04 -1.07707E+05 -3.34847E+04  8.89422E+01 -4.74565E+04  5.08132E+04 -2.63173E+03
  3.47410E+04  5.61393E+04 -2.27118E+04  7.71584E+04 -6.08739E+04  6.45644E+04 -8.32858E+04  3.28409E+04
 -8.23949E+04 -1.14772E+04 -5.84477E+04 -4.69738E+04 -1.38925E+04 -7.05743E+04  2.79525E+04 -4.12535E+04
  4.22197E+04  7.28739E+02  1.52611E+04  4.88421E+04 -3.31076E+04  4.59490E+04 -6.25901E+04  2.95452E+03
 -5.57847E+04 -5.70720E+04 -7.86505E+03 -7.28358E+04  3.35484E+04 -5.27357E+04  4.67972E+04 -1.93801E+04
  3.79731E+04  1.64301E+04  3.27111E+04  2.54857E+04  1.42980E+04  2.86866E+04 -2.30877E+03  2.43626E+04
 -2.19353E+04  1.19050E+04 -1.68055E+04 -1.08870E+03  2.31419E+03 -7.89280E+03  1.91540E+04  1.14100E+04
  7.20006E+03  3.41378E+04 -3.03092E+04  3.49517E+04 -6.36971E+04  3.45730E+03 -5.50502E+04 -4.03436E+04
 -1.61056E+04 -6.16117E+04  4.11445E+04 -4.15521E+04  5.47245E+04 -4.65235E+03  2.98637E+04  3.34417E+04
 -4.54231E+03  2.85385E+04 -2.74857E+04  1.01577E+04 -3.29259E+04 -2.70657E+03 -1.72065E+04 -1.71388E+04
 -8.37879E+03 -1.72648E+04 -3.81953E+03 -1.45554E+04  8.54129E+03 -2.33829E+04  1.51839E+04 -1.36818E+04
  8.65777E+03  5.91953E+03 -6.44274E+03  1.32476E+04 -1.82850E+04 -3.85963E+03 -7.24364E+03 -3.31742E+04
  1.92103E+04 -4.77237E+04  4.88466E+04 -2.18326E+04  4.73996E+04  1.81492E+04  1.59503E+04  4.08826E+04
 -1.40202E+04  3.36396E+04 -2.34696E+04  1.84697E+03 -1.37379E+04 -2.77252E+04  2.41278E+04 -3.47876E+04
  4.11100E+04 -9.75654E+03  3.45181E+04  2.33272E+04  1.87625E+04  4.66072E+04 -9.68421E+03  4.67008E+04
 -3.25027E+04  3.59397E+04 -3.72646E+04  7.70499E+03 -4.09879E+04 -1.78626E+04 -2.03928E+04 -3.84871E+04
  6.55250E+03 -3.73713E+04  3.49230E+04 -1.45120E+04  2.87261E+04  6.31789E+03  6.00852E+03  1.40082E+04
 -1.45815E+04  1.45695E+04 -6.57771E+03 -9.82355E+03  4.41440E+03 -8.75420E+03  1.64808E+04  8.80431E+03
  9.21299E+03  2.46541E+04 -1.11430E+04  1.41625E+04 -2.15157E+04  1.30163E+04 -2.39739E+04 -1.04085E+04
 -1.95697E+04 -2.04370E+04 -7.41999E+03 -1.64645E+04  6.54241E+03 -1.97214E+04  1.60754E+04 -1.78186E+04
  2.56438E+04 -8.71672E+03  2.95014E+04  1.57947E+03  2.15887E+04  1.94124E+04  1.26194E+03  3.17547E+04
 -1.74494E+04  3.04913E+04 -2.85639E+04  1.15730E+04 -2.07470E+04 -1.12155E+04 -6.25712E+03 -1.03725E+04
  5.13928E+03 -8.30274E+03 -2.88303E+03  8.36048E+03 -1.33352E+04 -1.70190E+03 -1.27756E+04 -3.14037E+03
 -1.01168E+04 -1.15768E+04  3.67186E+03 -2.19579E+04  1.70548E+04 -1.63074E+04  1.57322E+04 -5.77440E+02
  9.31160E+03  1.09497E+04 -2.01994E+03  2.10169E+04 -1.22653E+04  9.52958E+03 -1.89422E+04 -5.21177E+03
 -1.65500E+04 -1.75549E+04 -5.19466E+01 -2.21371E+04  8.37355E+03 -1.61523E+04  1.67771E+04 -6.49757E+03
  1.30309E+04 -2.48501E+02  1.10752E+04  3.05089E+03  4.02112E+03 -9.62172E+02  1.19258E+04  1.07263E+03
  1.70304E+04  2.96998E+03  1.42671E+04  1.26560E+04  1.04829E+04  3.05911E+04 -2.27954E+03  3.00855E+04
 -2.00354E+04  2.50205E+04 -2.93540E+04  9.88421E+03 -3.45148E+04 -1.82195E+03 -2.72602E+04 -1.65905E+04
 -1.48212E+04 -2.70707E+04  8.40495E+03 -2.48310E+04  2.07829E+04 -9.27159E+03  1.71077E+04  1.96533E+03
  4.58315E+03  1.35195E+04 -4.74186E+03  1.49137E+04 -1.01813E+04  1.28543E+03 -1.46165E+04 -9.00899E+03
 -2.55463E+03 -1.43412E+04  5.04954E+03 -1.01747E+04  9.53871E+03 -5.37014E+03 -1.48858E+03  2.28018E+03
 -5.62629E+03  3.02001E+03 -4.85184E+03 -3.42498E+03 -1.04671E+02 -1.56882E+04  1.07368E+04 -1.16415E+04
  1.23119E+04 -3.63481E+03  1.39081E+04  1.69657E+03  1.71080E+04  1.52075E+04  4.18489E+03  1.68780E+04
 -3.52502E+03  2.12508E+04 -8.46282E+03  1.20462E+04 -1.18595E+04  1.11760E+03 -1.30924E+04 -3.97852E+03
 -1.49434E+03 -4.61728E+03  1.87431E+03  5.16078E+03 -9.58498E+02  4.91533E+03 -7.42710E+03  4.32947E+03
 -7.85061E+03 -4.55301E+02 -1.03480E+04 -9.96606E+03 -3.77823E+03 -1.36756E+04  4.14685E+03 -1.19825E+04
  1.01476E+04 -3.60570E+03  8.81928E+03  2.60446E+03  1.02467E+03  1.63757E+03 -5.99551E+03 -7.36898E+02
 -1.85457E+03 -8.33123E+03 -6.35946E+03 -8.59535E+03  7.64336E+03 -9.74241E+03  1.25921E+04 -4.22575E+03
  1.37074E+04 -2.55788E+03  1.38909E+04  1.02804E+04  7.56345E+03  8.17255E+03 -6.58295E+03  9.72527E+03
 -9.06614E+03  1.15721E+03 -4.43450E+03 -2.03827E+03  3.07788E+03  2.30694E+03  5.21652E+03 -1.33259E+02
  5.21024E+03  3.92731E+03  3.16588E+02  9.77025E+03 -8.20322E+03  7.34838E+03 -9.20807E+03  3.15150E+03
 -3.80647E+03 -5.35197E+03 -1.83556E+03 -1.77399E+04  4.63785E+03 -2.62733E+03  2.15339E+03 -1.22301E+02
  6.13642E+03  4.10850E+03 -5.84410E+03  1.19184E+03 -1.03898E+03  2.34177E+03 -8.46125E+03  1.63843E+03
 -2.09942E+03 -7.35250E+03  2.90135E+03 -6.35339E+03  1.45321E+04 -3.39047E+03  1.00930E+04 -3.50650E+02
  4.93817E+03  6.78843E+03  1.59877E+03  1.00503E+04 -5.46923E+03  2.55861E+03 -1.07329E+04  1.27362E+03
 -1.12408E+04 -5.11786E+03 -2.21047E+03 -4.83856E+03  5.36753E+03 -7.40552E+03  6.53156E+03 -2.04467E+03
  2.30007E+03  2.49668E+02 -2.61621E+03  2.07938E+02  1.85829E+02 -4.43366E+03  9.03169E+02 -4.13752E+03
  8.06260E+03 -3.76610E+03  1.41899E+04  4.31722E+03  5.37257E+03  6.38666E+03  4.43504E+03  1.11963E+04
  1.81371E+03  1.47846E+04 -6.52688E+03  4.47867E+03 -1.35356E+04 -1.93597E+03 -1.33179E+04 -8.07131E+03
 -7.66547E+03 -3.60116E+03 -9.01910E+02 -9.55408E+03  4.36882E+03 -2.50011E+03 -2.48352E+03  1.02656E+03
  5.97427E+02 -3.19019E+03 -3.25046E+03 -7.44456E+02  3.46130E+03 -2.69859E+03  6.23100E+03  2.62476E+03
  1.00445E+03  1.48999E+03  3.97008E+03  5.46404E+03 -7.72220E+02  3.59927E+03 -5.57933E+03  5.71497E+03
 -1.01169E+04 -4.72774E+03 -4.12464E+03 -2.95713E+03  3.69769E+03 -5.28158E+03  1.17781E+03 -7.30969E+03
  1.09715E+04 -7.08900E+03  1.00431E+04  1.15756E+03  2.88726E+03  7.39646E+03  2.54856E+03  1.05916E+04
 -3.06436E+02  9.64120E+03 -7.71628E+03  1.89163E+03  9.17333E+02 -4.04052E+03 -8.53153E+02 -2.04422E+03
  3.33688E+03 -1.55583E+03  1.68556E+03  4.43700E+03 -3.90190E+03  2.03013E+03 -9.77015E+02 -1.59899E+03
 -1.53264E+03 -7.73523E+03  3.97088E+01 -4.32363E+03  1.50683E+03 -4.52670E+03  6.47290E+03 -3.30182E+03
  5.80318E+03  1.96083E+03  3.25662E+03  9.78340E+03  3.81059E+03  7.79832E+03 -6.53172E+03 -1.04106E+03
 -5.79716E+03 -3.72806E+02 -8.12366E+03 -8.74485E+02  4.00418E+03 -6.70768E+03 -5.21468E+02 -2.52141E+03
  6.23222E+03 -2.21951E+03  2.41166E+02 -1.70366E+03  3.16095E+03 -1.06667E+03 -3.04944E+03 -4.15634E+03
  1.47928E+03  2.52991E+03 -9.26307E+02 -1.65622E+03 -2.92989E+03 -2.69347E+03  7.09634E+03  3.32560E+03
 -6.84710E+03  2.42362E+03 -4.68543E+03  5.56467E+03 -7.69385E+03  8.77539E+02 -1.00331E+04  1.60787E+03
 -5.64424E+03 -4.35384E+03  2.98519E+03 -7.27975E+03  5.92646E+03 -2.99844E+03  4.98655E+03 -3.78298E+03
  1.82541E+03  5.28516E+03  2.70506E+03  4.24604E+03 -1.80027E+02  6.27993E+02 -9.37476E+03  5.19385E+02
  4.71919E+03 -8.13273E+02 -8.54166E+02 -4.59616E+03  3.55108E+02 -2.64797E+03  1.16872E+03  3.37012E+03
  2.00404E+03  2.82147E+02  1.18779E+03 -2.47962E+03  9.24865E+02  5.82900E+02  2.62271E+03 -4.02039E+03
 -1.35088E+03 -6.11940E+03 -1.74754E+03  2.79257E+03  3.08023E+03  3.07068E+03  1.48304E+03  4.80775E+03
 -1.81708E+03 -1.09090E+03 -4.08692E+03 -2.34312E+03 -5.42491E+03  1.42364E+03 -2.59723E+03 -1.88770E+03
  3.12851E+03 -4.63853E+03 -2.34727E+03  5.77020E+02 -2.25450E+03  2.57618E+03 -2.85882E+03 -1.05641E+03
 -2.31606E+03  3.54295E+03  2.89528E+03  1.85109E+03 -4.14912E+03 -1.65190E+03 -2.00733E+03  6.29447E+02
 -5.84612E+01  3.17657E+03 -1.33692E+03  5.95972E+02  4.49736E+02 -2.51912E+03 -2.11773E+03  2.49104E+03
 -2.17183E+03 -3.88108E+02 -2.57660E+03  2.69371E+03  1.49625E+03 -3.45606E+03  5.85740E+03 -3.68141E+03
  2.84883E+03  3.82431E+03  3.06975E+03  3.23669E+03  2.13432E+03  8.78996E+02  1.90124E+03  2.68691E+03
 -3.09557E+03 -1.13839E+03 -4.14311E+03 -4.74277E+02  4.34835E+02  8.83023E+02 -1.68146E+03 -3.55979E+03
  2.71346E+03 -1.14491E+03  4.95871E+03 -6.46363E+02  3.58394E+03  4.76078E+03 -2.55317E+03 -1.50757E+03
 -6.54048E+02  2.16281E+03 -3.17768E+03 -1.00433E+03 -1.54331E+03 -7.85784E+02  3.45525E+03 -7.70141E+02
  9.80222E+02  1.72776E+03  1.45132E+03  2.11366E+03 -2.12895E+03  2.98060E+03 -6.95462E+03 -2.18955E+03
  3.86949E+03 -8.13610E+03 -3.52152E+03 -4.80722E+03  5.71998E+03 -3.85834E+03  1.51023E+03 -6.41764E+03
  5.88178E+03 -5.85106E+02  2.88416E+03  3.20191E+03 -2.49943E+03  6.00989E+03 -4.17431E+03  1.49359E+03
  5.49177E+01  2.50485E+03  1.37297E+03  8.20375E+02  2.43451E+03 -1.23196E+03  2.12170E+03  6.56690E+02
 -2.56105E+03  1.78340E+03 -2.00227E+03  2.35507E+03 -9.51005E+03  9.57736E+01 -1.40538E+03 -2.24483E+03
  2.58351E+03  4.41662E+03 -2.14393E+03 -2.20982E+03  2.32007E+03  1.66875E+03 -5.80554E+03  4.57406E+03
 -5.86651E+02  7.71224E+03 -3.27672E+03  7.26716E+03 -2.52595E+03 -9.60895E+01 -6.73544E+03  1.78114E+03
  6.51571E+01 -3.99237E+03  3.02238E+03 -2.65217E+03 -2.36840E+03 -5.57240E+03  6.06907E+03  1.80136E+03
  2.01337E+03  1.10382E+03 -4.27558E+03  6.13690E+03 -2.27465E+03 -3.45458E+03  4.92838E+03 -5.42470E+03
  2.47971E+03  3.41596E+03  2.47229E+03  2.50895E+03  6.66174E+02  2.55939E+03 -2.80129E+03  2.39950E+03
  5.36128E+03 -1.96255E+02 -3.69699E+03  6.48897E+02 -1.86239E+03 -1.11927E+03 -6.67634E+02 -4.56533E+03
 -2.81635E+03 -5.49478E+03  6.59070E+03 -6.36353E+01  3.06622E+03 -1.14294E+03  2.41927E+03  2.16005E+02
 -1.04672E+03  2.01197E+03  2.39501E+02  4.74987E+03 -1.72809E+03 -5.91074E+02 -4.17510E+03 -2.50397E+03
  4.00050E+03 -2.34074E+03 -1.03873E+03  1.00773E+03  1.04849E+03  2.33018E+03 -1.46161E+03 -1.86799E+03
 -8.26749E+02  4.08142E+03 -3.69202E+03 -1.25661E+03 -8.20430E+02 -2.65307E+03  5.83784E+03 -4.82059E+03
  2.47685E+03  6.37647E+03 -7.27293E+02  1.88058E+03  3.83103E+02  3.70254E+02 -2.04888E+03  5.14255E+03
