 $NMID ID='MM_0lb_SNR50_9hz_g40_32.RAW', FMTDAT='(8E13.5)'
 TRAMP=1., VOLUME=1. $END
  3.07193E+05 -4.62536E+03  3.34412E+05  2.55331E+05  8.32001E+04  3.35709E+05 -1.27361E+05  2.54344E+05
 -1.85310E+05  8.61031E+04 -1.12058E+05 -3.01357E+04  4.78214E+03 -5.54887E+04  5.48484E+04 -2.44423E+03
  3.73360E+04  5.47332E+04 -1.97124E+04  8.10788E+04 -5.80153E+04  6.15210E+04 -8.36518E+04  3.26942E+04
 -7.93579E+04 -1.38241E+04 -5.30796E+04 -5.01220E+04 -1.92589E+04 -6.70397E+04  3.35484E+04 -4.82838E+04
  4.01294E+04  5.09604E+03  1.11092E+04  4.74586E+04 -3.33416E+04  4.58736E+04 -6.66248E+04  3.77575E+03
 -5.36292E+04 -5.72739E+04 -1.23880E+04 -7.95901E+04  3.29863E+04 -4.95513E+04  4.33565E+04 -1.74800E+04
  3.80767E+04  1.18962E+04  3.12098E+04  2.61261E+04  1.71384E+04  3.46170E+04 -2.33621E+03  3.18120E+04
 -2.07935E+04  1.05411E+04 -1.28173E+04 -2.86346E+03  1.01232E+04  6.33777E+02  2.14330E+04  1.49564E+04
  1.06740E+04  3.90596E+04 -3.11799E+04  3.18807E+04 -6.66629E+04  7.03635E+02 -5.91920E+04 -4.60560E+04
 -1.36245E+04 -6.04984E+04  3.94745E+04 -4.81137E+04  6.01458E+04 -1.37201E+03  3.48521E+04  3.36066E+04
 -9.13225E+03  3.86691E+04 -3.09512E+04  1.66726E+04 -3.85866E+04 -3.97963E+03 -1.25212E+04 -1.29701E+04
 -1.10139E+04 -1.15606E+04  4.19241E+02 -2.43226E+04  2.18539E+03 -2.13533E+04  9.92893E+03 -1.26493E+04
  9.92555E+03  2.29046E+03 -9.13098E+03  8.19108E+03 -2.28012E+04 -8.60495E+03 -6.73811E+03 -3.63502E+04
  3.00813E+04 -4.71082E+04  5.11571E+04 -1.80075E+04  5.16030E+04  2.00108E+04  1.59008E+04  4.74824E+04
 -1.43825E+04  3.84471E+04 -2.87611E+04  4.24695E+03 -7.26330E+03 -2.25892E+04  2.12542E+04 -3.62695E+04
  4.34503E+04 -1.18026E+04  4.07685E+04  2.95396E+04  2.23897E+04  5.44150E+04 -7.63727E+03  5.61033E+04
 -3.67568E+04  3.88026E+04 -4.46121E+04  1.24657E+04 -4.58288E+04 -2.31805E+04 -3.10942E+04 -4.43101E+04
  4.72339E+03 -4.13261E+04  3.26659E+04 -8.50801E+03  3.25337E+04  1.06670E+04  2.64726E+03  1.94431E+04
 -1.54650E+04  9.32952E+03 -1.31764E+04 -5.95720E+03  5.70751E+03 -1.76046E+04  1.46512E+04  7.26008E+03
  1.66426E+04  2.62224E+04 -4.49223E+02  2.74682E+04 -2.60931E+04  1.33549E+04 -3.84537E+04 -8.48547E+03
 -1.97068E+04 -1.67046E+04 -3.74486E+03 -2.21193E+04  4.18936E+03 -2.12331E+04  2.05770E+04 -1.61611E+04
  2.72998E+04 -9.79068E+03  3.49474E+04  3.97878E+03  2.46464E+04  3.00257E+04  4.51634E+03  3.88110E+04
 -1.27495E+04  3.09407E+04 -2.83649E+04  1.45862E+04 -2.37870E+04 -1.13199E+04 -4.06820E+03 -1.54618E+04
 -1.14470E+03 -7.27770E+03 -7.02438E+03  3.95988E+03 -2.39608E+04  5.76256E+03 -2.37073E+04 -1.29814E+04
 -1.86648E+04 -2.01116E+04  3.13392E+03 -2.93879E+04  1.08700E+04 -1.90436E+04  1.78814E+04 -6.88353E+03
  1.20778E+04  1.29772E+04 -1.98369E+03  2.28952E+04 -1.78771E+04  1.33209E+04 -2.21899E+04 -1.29089E+04
 -1.56384E+04 -1.93541E+04 -2.32332E+03 -3.48741E+04  1.24264E+04 -2.39156E+04  2.05373E+04 -1.64437E+04
  2.35902E+04  6.98129E+01  1.70948E+04  7.79223E+03  5.90453E+03  2.13389E+03  6.13537E+03 -6.60209E+03
  1.85680E+04 -1.93174E+03  2.40136E+04  1.32179E+04  1.97724E+04  3.82160E+04 -9.98168E+02  4.57844E+04
 -2.56184E+04  3.51687E+04 -4.75979E+04  1.50113E+04 -4.40086E+04 -5.31846E+03 -2.84071E+04 -2.11079E+04
 -1.28317E+04 -2.70583E+04  1.47178E+04 -2.64720E+04  2.63681E+04 -1.46985E+04  2.03888E+04  8.55714E+03
  7.30762E+03  1.41556E+04 -5.40353E+03  1.95842E+04 -2.05690E+04  2.23489E+03 -1.35354E+04 -1.11548E+04
 -2.37912E+03 -2.17261E+04  7.93882E+03 -1.46085E+04  1.40866E+04 -1.64434E+03  5.03879E+03  1.79659E+04
 -1.36376E+04  5.99576E+03 -7.35332E+03 -8.26664E+03 -4.60532E+03 -1.10386E+04  1.29133E+04 -2.03497E+04
  2.73504E+04 -1.31145E+04  1.60537E+04  1.89475E+03  2.91543E+04  2.30434E+04  4.27811E+03  2.83889E+04
 -3.72876E+03  3.35493E+04 -1.45129E+04  2.48544E+04 -2.31661E+04  3.43788E+03 -1.60657E+04 -9.99569E+03
 -9.34517E+03 -6.07676E+03  1.04182E+03  2.96401E+03 -7.17688E+03  1.07748E+04 -1.03371E+04  2.51210E+03
 -1.14517E+04 -2.32519E+03 -2.33897E+04 -1.01757E+04 -6.28913E+03 -2.02294E+04 -1.75935E+03 -1.43831E+04
  1.28706E+04 -6.67724E+03  9.65013E+03  3.33954E+03 -2.37755E+03  5.36702E+03 -3.25804E+03  1.74109E+03
 -7.55668E+03 -2.44409E+03  5.61442E+03 -1.66850E+04  1.26893E+04 -1.62615E+04  1.75082E+04 -1.14168E+04
  2.43889E+04  3.16813E+03  1.40088E+04  1.21077E+04  6.38687E+03  2.32049E+04 -1.35609E+04  1.45554E+04
 -9.55616E+03  1.11888E+03 -7.70230E+03  4.51476E+02 -2.70440E+03 -1.08405E+04  8.69503E+03  3.17420E+02
  2.19196E+03  9.48633E+03  8.04894E+02  1.66084E+04 -7.16381E+03  1.40705E+04 -1.63115E+04  9.96082E+03
 -8.98050E+03 -1.02577E+04 -1.83816E+03 -1.40430E+04  8.94882E+03 -1.26789E+03  4.19524E+03  7.17578E+03
  1.44103E+03  1.04786E+04 -4.53714E+03  1.36134E+04 -6.54333E+03  7.45290E+03 -9.14761E+03 -3.34879E+03
 -5.08057E+03 -1.45632E+04  4.93803E+03 -1.70875E+04  1.98979E+04 -5.05919E+03  1.68438E+04  6.81431E+03
  1.03874E+04  1.25733E+04 -2.41464E+03  1.63708E+04 -7.63363E+03  1.19563E+04 -1.29298E+04 -2.55935E+03
 -7.57445E+03 -6.51504E+03  1.30302E+03 -1.35900E+04  9.00590E+03 -7.27120E+03  6.24440E+03  5.11961E+01
  8.82577E+03 -9.62321E+02 -2.88546E+02  1.20039E+03  8.19309E+03 -1.17821E+01 -4.64647E+03  1.15767E+03
  9.73500E+03  2.55755E+03  1.62548E+04  5.92349E+03  1.39574E+04  1.17480E+04  1.14960E+04  2.29974E+04
 -1.94287E+03  2.24978E+04 -1.98127E+04  1.65566E+04 -1.89754E+04 -1.31294E+03 -1.93055E+04 -1.16932E+04
 -9.10513E+03 -5.91182E+03  1.20835E+02 -1.60142E+04  2.02460E+03 -7.14224E+03  1.22854E+04 -6.65839E+03
  5.60644E+03  6.34827E+02  6.05834E+03  2.64881E+02  1.37473E+03 -5.63944E+03  7.24169E+03 -4.94739E+02
  1.27978E+04  4.82258E+03  5.90608E+03  8.79128E+03 -2.48611E+03  8.81613E+03 -9.99594E+03  1.60404E+04
 -1.51396E+04 -1.80887E+03 -9.68827E+03 -7.65304E+03 -5.14232E+03 -1.23321E+04  1.51362E+04 -8.85775E+03
  2.26952E+04 -1.66044E+04  1.96799E+04  5.01639E+02  7.72493E+03  1.37819E+04  4.13956E+03  2.07435E+04
 -8.00791E+03  1.61245E+04 -1.13584E+04  9.71188E+03 -6.72432E+02 -2.42052E+03 -7.38818E+03 -3.44383E+03
 -2.92060E+03 -1.65442E+03 -7.32348E+03  6.36328E+03 -6.14273E+03  3.61085E+03 -9.66604E+03 -3.75170E+03
 -2.15654E+03 -9.56408E+03  3.27917E+03 -1.72147E+04  8.18306E+03 -1.60832E+04  1.16717E+04 -4.69868E+03
  1.18217E+04  1.95006E+03  6.00097E+03  1.60252E+04 -2.68035E+03  1.31028E+04 -7.66932E+03  9.11353E+03
 -1.07340E+04  5.46792E+03 -7.70746E+03 -3.43889E+03  2.15603E+03 -1.36092E+04  7.93923E+03 -5.61900E+03
  1.13478E+04  1.77949E+03  1.24785E+04  2.09415E+03  1.89465E+03  3.36817E+03  3.17960E+03  8.73675E+03
  9.52756E+02 -4.09709E+03  6.07541E+02 -3.52748E+02  6.06684E+02  3.46501E+03  7.09716E+03  2.99562E+03
 -1.44546E+03  1.20203E+04 -8.51393E+03  1.14217E+04 -1.54418E+04  2.65787E+03 -1.69061E+04 -1.01192E+04
 -1.02880E+04 -7.73374E+03  8.40851E+02 -1.09059E+04  8.21229E+03 -1.41349E+04  1.12445E+04 -1.82615E+03
  1.05993E+04  4.84135E+03 -6.00643E+02  1.15788E+04 -7.43498E+03  2.71007E+03 -1.04858E+04 -4.00793E+03
 -6.10391E+03 -1.04302E+04  6.95966E+03 -5.26489E+03  4.44961E+03 -3.35538E+03  8.60617E+03  8.94016E+01
  3.21203E+03  1.02387E+03  4.25216E+03  4.27917E+03 -5.48749E+01 -2.16993E+03  1.23896E+03 -4.90819E+03
 -1.56339E+03  4.25556E+03  7.63471E+03 -2.61842E+03  1.17526E+03  7.46541E+03 -1.26353E+03  6.70923E+03
 -5.31764E+03  1.77371E+03 -7.11810E+03  1.81008E+03 -7.19468E+03 -3.85346E+03 -5.31564E+03 -6.06188E+03
 -1.62063E+03 -2.22847E+03  3.51699E+03  3.06871E+03 -3.47927E+02  8.53661E+02 -1.40093E+03  3.71373E+03
 -7.20859E+03  2.67581E+03 -4.12483E+03  3.45174E+03 -1.65421E+03 -2.37837E+03  4.31643E+03 -6.83405E+03
  3.68292E+03 -5.12651E+03  1.01151E+04  3.02699E+03  4.54779E+03  2.32623E+02 -1.56045E+03  3.67029E+03
 -3.49608E+03  5.78177E+03 -3.53798E+03 -3.63940E+03  2.31825E+03 -1.02682E+04  1.04399E+04 -6.63296E+03
  5.55539E+03  1.23029E+03  1.17643E+04 -6.55239E+02  2.74028E+03  8.38918E+03 -6.16968E+03  7.93300E+03
 -9.76088E+03  6.45818E+03 -9.76284E+03 -7.70211E+03  2.10354E+03 -4.51689E+03  3.45021E+02 -6.48633E+03
  6.51807E+03 -3.98170E+03  1.17465E+03 -1.11806E+03 -3.06875E+02  4.12154E+03 -4.86141E+03  4.93226E+03
 -6.73238E+02  3.82311E+03 -5.50374E+03  8.50800E+02  9.87432E+02  2.89838E+03 -5.53088E+02  1.42222E+03
 -5.51752E+03  6.28948E+03 -7.78891E+03  1.11385E+03 -7.52639E+03  1.33105E+03 -9.27182E+03 -5.71531E+03
 -6.46607E+03 -1.45371E+04 -1.84678E+03 -1.13456E+04  1.22884E+04 -1.22782E+04  9.94614E+03  3.02416E+02
  1.12023E+04 -1.18403E+03  9.85959E+03  1.13557E+02 -1.80096E+03  1.04826E+04 -1.56593E+03  1.05384E+04
 -6.06592E+03  7.45810E+02 -4.06288E+03 -3.12538E+03 -2.90665E+02 -6.35373E+03 -4.74187E+03  1.21035E+03
 -3.95068E+03  3.91069E+03 -2.74186E+03 -4.13665E+03 -6.59893E+03  2.25351E+03 -1.61714E+03 -4.87407E+02
  1.22097E+04 -7.53711E+03  6.88334E+03  2.66554E+03  4.69279E+03  3.42182E+03  4.43998E+02  7.43385E+03
 -1.96818E+03  6.67571E+03 -7.09769E+03  2.18042E+02 -1.42719E+04  2.24067E+03 -8.57069E+03 -9.81782E+03
 -2.76781E+03 -8.21131E+03  4.66285E+03 -1.23291E+04  7.59219E+03 -6.01332E+03  5.38555E+03  1.35965E+03
  4.67401E+03 -5.35620E+02  1.44229E+03  5.20489E+03  1.52879E+03  2.63359E+03 -5.90106E+02 -4.83713E+03
 -4.00771E+02  1.60894E+03  3.50360E+03  1.15748E+03  6.26172E+03 -2.58481E+03  1.18705E+03  7.04402E+03
 -8.65633E+03  2.66970E+03 -9.93854E+03  4.34924E+03 -3.73873E+03 -5.77665E+03  1.79657E+03 -9.63653E+03
  1.03705E+04 -9.20864E+03  8.16479E+03 -2.00689E+03  1.23445E+04  8.22590E+03  4.65562E+03  1.12550E+04
 -1.19476E+03  8.21903E+03 -2.13692E+03  4.05592E+03 -1.09440E+04 -2.66069E+03 -7.36611E+02  6.98067E+03
  4.34070E+03 -5.12116E+03  4.64639E+03 -4.02233E+02 -3.92091E+02  3.89500E+03  5.62506E+03  1.66998E+03
 -4.31954E+03 -6.89049E+03 -1.48287E+03 -4.91667E+03  1.10235E+03 -3.35244E+03  7.54088E+03 -7.30688E+03
  8.70287E+03  5.54203E+03  2.31307E+03  9.59659E+03  3.95258E+02  8.61313E+03 -6.86151E+03  2.98658E+02
