 $NMID ID='MM_0lb_SNR50_11hz_g40_97.RAW', FMTDAT='(8E13.5)'
 TRAMP=1., VOLUME=1. $END
  3.09806E+05  4.66272E+02  3.38807E+05  2.49779E+05  8.51357E+04  3.36577E+05 -1.28463E+05  2.48743E+05
 -1.89074E+05  8.50643E+04 -1.14772E+05 -3.28518E+04  5.19438E+03 -5.09694E+04  4.93177E+04  1.96928E+03
  3.58335E+04  4.97313E+04 -1.15674E+04  7.53982E+04 -6.37935E+04  6.58597E+04 -8.32432E+04  3.10455E+04
 -7.62347E+04 -7.28331E+03 -5.66550E+04 -5.67497E+04 -1.65047E+04 -7.20710E+04  2.33103E+04 -4.48428E+04
  4.42885E+04  5.26163E+03  2.29014E+04  5.11239E+04 -3.26709E+04  4.80030E+04 -6.73653E+04  1.35184E+03
 -5.48661E+04 -5.58518E+04 -8.00949E+03 -8.13063E+04  3.35576E+04 -5.72076E+04  4.95017E+04 -1.99514E+04
  4.33622E+04  2.66825E+03  3.60565E+04  2.42610E+04  1.53457E+04  2.66734E+04 -3.13403E+03  2.43006E+04
 -2.45427E+04  8.14403E+03 -1.53809E+04 -4.37476E+03  8.92671E+03 -7.47056E+03  2.05799E+04  1.15641E+04
  3.74109E+03  3.66969E+04 -3.13514E+04  3.55879E+04 -6.68137E+04  3.64675E+03 -5.85628E+04 -4.72132E+04
 -1.47619E+04 -6.50726E+04  3.84564E+04 -4.52475E+04  5.94279E+04 -3.46013E+03  3.44762E+04  3.19979E+04
 -4.12680E+03  3.39409E+04 -3.10279E+04  1.71462E+04 -2.99195E+04 -4.82233E+03 -2.10938E+04 -1.00415E+04
 -8.42411E+03 -1.28820E+04  1.58018E+03 -1.74779E+04  1.04649E+04 -2.69627E+04  1.70369E+04 -1.37657E+04
  1.40992E+04  7.48244E+03 -2.72300E+03  1.41023E+04 -1.83267E+04 -3.90436E+03 -7.85024E+03 -2.62349E+04
  2.10308E+04 -4.94914E+04  4.94599E+04 -2.36501E+04  4.89629E+04  1.69506E+04  1.43232E+04  4.46605E+04
 -1.45413E+04  3.55504E+04 -1.98845E+04  6.94488E+02 -5.54129E+03 -2.70032E+04  1.79369E+04 -4.24500E+04
  4.17797E+04 -7.81993E+03  3.27423E+04  2.16285E+04  1.92781E+04  5.18142E+04 -5.33960E+03  4.93314E+04
 -3.67174E+04  3.30363E+04 -4.34116E+04  9.95870E+03 -4.72411E+04 -1.56300E+04 -2.13657E+04 -4.32691E+04
  8.71870E+03 -3.91749E+04  3.48488E+04 -1.90205E+04  3.08805E+04  1.94616E+03 -2.46184E+03  1.34763E+04
 -7.83889E+03  4.78109E+03 -1.07109E+04 -6.31412E+03  8.39219E+03 -1.52491E+04  1.57464E+04  4.06575E+03
  1.72908E+04  2.38402E+04 -1.02121E+04  2.27337E+04 -1.96594E+04  1.57711E+04 -2.80752E+04 -3.99005E+03
 -2.25754E+04 -2.02529E+04 -1.36669E+04 -2.12823E+04  3.76863E+03 -2.26334E+04  1.63427E+04 -1.94461E+04
  2.02752E+04 -1.34437E+04  3.33098E+04  8.34601E+03  2.82631E+04  2.20435E+04  8.53511E+03  3.44533E+04
 -1.32408E+04  2.59830E+04 -3.05311E+04  1.08670E+04 -2.45370E+04 -6.57892E+03 -3.82775E+03 -1.08914E+04
  3.45877E+03 -3.13536E+03 -2.48022E+03  2.52169E+03 -3.01036E+04  8.07147E+03 -1.95730E+04 -8.77123E+03
 -1.43516E+04 -2.23320E+04  8.05426E+03 -2.46519E+04  2.10579E+04 -1.87616E+04  1.66664E+04  6.51029E+02
  1.42863E+04  1.07895E+04  1.28487E+03  2.72858E+04 -1.67496E+04  8.20616E+03 -1.83036E+04 -6.26882E+03
 -1.74655E+04 -2.31739E+04 -5.02045E+03 -2.05229E+04  1.20322E+04 -2.34853E+04  2.43166E+04 -1.18882E+04
  1.54378E+04 -9.35285E+03  1.01914E+04  8.26838E+03  1.68066E+03  2.20741E+03  8.66525E+03 -4.41468E+03
  2.04999E+04 -1.39032E+03  2.40296E+04  1.39721E+04  1.28696E+04  3.04775E+04 -9.09111E+03  3.30786E+04
 -2.40763E+04  3.51810E+04 -3.37195E+04  1.39248E+04 -4.15908E+04 -3.86175E+03 -3.02611E+04 -2.35594E+04
 -1.65198E+04 -3.00934E+04  1.20784E+04 -2.82770E+04  3.19883E+04 -1.34154E+04  2.51988E+04  1.35024E+04
  9.86892E+03  2.40332E+04 -1.60854E+04  1.71337E+04 -1.95401E+04  1.94231E+03 -1.18707E+04 -9.55961E+03
  1.20436E+03 -1.84229E+04  1.49427E+04 -1.47436E+04  1.15671E+04  3.84338E+02  3.49109E+03  4.15031E+03
 -6.74272E+03  3.91828E+03 -9.82267E+03 -6.70686E+03 -3.40184E+03 -1.11880E+04  4.77157E+03 -1.92333E+04
  2.04032E+04 -8.22294E+03  1.89554E+04  4.28032E+03  1.95489E+04  1.57593E+04  7.74206E+03  1.74387E+04
 -1.03636E+03  2.80467E+04 -1.59273E+04  1.36969E+04 -1.89064E+04  1.15378E+03 -1.04183E+04 -2.23234E+03
 -3.33537E+03 -6.06291E+03 -4.69480E+03  2.55527E+03 -3.52290E+03  4.68272E+02 -2.50950E+03  2.75537E+03
 -1.30157E+04 -6.06382E+03 -8.10166E+03 -1.32590E+04 -6.81394E+03 -2.20305E+04  5.73198E+03 -1.17017E+04
  5.20225E+03 -3.15044E+03  5.91646E+03  3.32569E+03  1.16279E+03  4.09610E+03 -1.42374E+03 -1.89937E+03
 -1.54077E+03 -7.36688E+03 -1.90425E+02 -1.13082E+04  5.36013E+03 -1.59336E+04  1.44606E+04 -1.21659E+04
  1.98202E+04 -4.44405E+03  1.58685E+04  1.40771E+04  3.38700E+03  1.47655E+04 -2.77312E+03  1.07243E+04
 -1.07192E+04  1.15442E+03 -7.68438E+03 -2.45824E+03  2.76529E+03 -3.42627E+03  4.25206E+03  3.33670E+02
  1.00532E+04  9.41701E+03  5.07665E+02  7.84253E+03 -8.56606E+03  1.20034E+04 -1.39219E+04  2.14447E+03
 -7.36313E+03 -6.67525E+03 -5.83578E+03 -1.13376E+04  9.37039E+03 -2.75653E+03  1.02240E+04  6.38754E+02
 -4.94366E+03  9.91756E+03 -9.71592E+03  9.11358E+03 -1.25417E+04  4.11681E+03 -1.69218E+04 -5.21549E+03
 -6.40149E+03 -1.42935E+04  4.11252E+02 -1.16231E+04  1.55435E+04 -1.35747E+03  1.13520E+04  5.86665E+03
  1.00558E+04  1.20209E+04 -3.87383E+03  1.49676E+04 -6.64445E+03  7.85077E+03 -1.12067E+04  1.68561E+03
 -5.55146E+03 -7.36617E+03 -4.69100E+03 -1.15987E+04  9.45498E+03 -5.19787E+03  5.17287E+03 -3.64422E+03
  3.52363E+03 -2.58449E+03  3.64693E+03  3.22662E+03  2.98848E+03 -6.00530E+03  6.20798E+03 -3.08385E+03
  5.40683E+03 -2.85147E+03  1.31656E+04  3.53891E+03  9.64256E+03  9.41878E+03  9.65726E+03  1.90054E+04
 -3.50274E+03  1.46652E+04 -1.79290E+04  1.54250E+04 -2.15344E+04  4.58142E+03 -1.30328E+04 -7.38185E+03
 -8.48646E+03 -1.16552E+04  1.70125E+03 -5.32710E+03  4.47959E+03 -5.95340E+03  7.62854E+03 -8.77252E+03
  7.96431E+03  1.80265E+03 -1.57342E+02 -2.67740E+03  2.43092E+03 -2.89907E+03  1.16501E+04  1.37899E+03
  1.02827E+04  1.60040E+02  3.58191E+03  2.64320E+03 -5.82784E+03  1.00553E+04 -9.12790E+03  8.14884E+03
 -1.31210E+04  1.62154E+02 -5.90324E+03 -7.25113E+03 -3.82848E+03 -7.65886E+03  1.17790E+03 -9.95244E+03
  9.32275E+03 -8.30445E+03  1.27995E+04  1.37171E+03  1.97228E+04  1.26001E+04 -2.16464E+03  1.94388E+04
 -6.28854E+03  8.76252E+03 -5.46716E+03 -7.39074E+02 -3.67090E+03  3.57542E+03 -4.47102E+03 -5.80170E+03
  3.93261E+03  4.51988E+03 -3.96142E+03  2.69155E+03 -5.56212E+03  1.36978E+03 -5.37299E+03 -6.76512E+02
 -1.10025E+04 -7.14478E+03 -2.50959E+03 -7.82602E+03  1.03313E+04 -6.11577E+03  8.15541E+03 -2.22827E+03
  1.42504E+04  2.31015E+03  3.29709E+03  9.73285E+03 -3.48055E+03  1.59253E+04 -6.37202E+03  4.41215E+03
 -8.36880E+03 -2.71715E+03 -7.14240E+03 -1.40743E+04 -1.51761E+03 -5.19666E+03  2.50890E+03 -1.28334E+04
  6.74729E+03  1.89899E+03  2.83595E+03  4.24666E+02  2.17013E+03  6.93029E+01 -8.76113E+03  9.28237E+02
  7.16845E+02  2.06665E+03  6.31564E+03 -2.48106E+03 -2.68932E+02  8.75321E+03 -7.86049E+02  5.45682E+03
  1.14393E+03  9.35281E+03 -8.88189E+03  9.98565E+03 -1.07606E+04 -1.90842E+03 -1.60878E+04 -2.31719E+03
 -8.68047E+03 -1.27820E+04  7.11717E+03 -8.28763E+03  5.77502E+03 -4.16412E+03  8.12753E+03 -1.20836E+03
  2.82346E+03 -6.40838E+01 -2.02861E+03  6.73459E+03 -1.04828E+03  2.14891E+03 -6.24297E+03 -2.42304E+02
  1.22421E+01 -6.41447E+03  3.77614E+03  1.39396E+03  1.45772E+03  1.31879E+03  5.15625E+03  6.68284E+03
  4.13037E+02 -7.82497E+02  2.13340E+03 -1.07538E+03  4.11886E+03  4.19860E+03  7.00788E+03 -4.29785E+03
 -1.82111E+03 -2.81517E+03  3.93174E+02 -8.89090E+02  6.08505E+03  4.05235E+03 -4.52427E+03  7.60882E+03
 -1.67780E+03  6.03491E+03 -9.14303E+03 -1.54558E+03 -3.44627E+02 -3.13815E+03 -2.25212E+03 -3.53254E+03
  1.92385E+03 -3.92923E+03 -1.87248E+02 -1.87856E+03  7.70149E+02  2.28763E+03 -1.46050E+03  4.57813E+03
 -4.67968E+03  4.23175E+03 -3.52117E+03  1.76086E+03  1.48649E+02 -2.01069E+03 -9.69714E+02  1.17306E+03
  3.75339E+03  2.02312E+03  4.93780E+03 -1.89605E+03  5.45943E+03  3.34816E+03 -4.27309E+03  4.21532E+02
 -3.91587E+03 -2.52651E+03 -6.64166E+03 -8.79443E+02 -6.92937E+02 -6.41631E+03  8.19707E+03 -1.22951E+03
  5.92907E+02  4.34635E+02  8.39705E+03  3.20538E+03  2.10201E+03  4.10582E+03 -7.96697E+03  3.65743E+03
 -6.88476E+03 -2.24265E+03 -1.04274E+04 -5.41595E+03 -5.46015E+03 -6.65904E+03  4.27926E+03 -5.73389E+03
  6.34110E+03 -2.94731E+03  4.13081E+03  1.46694E+03  8.79312E+02  5.13119E+03 -5.31790E+03  2.15349E+03
 -7.07945E+02  3.72257E+03 -6.32533E+02 -1.58450E+02 -1.07332E+03 -5.76757E+02 -1.84275E+03 -4.86258E+03
 -6.44834E+03  7.07761E+03 -5.04130E+03  4.92959E+03 -1.05050E+02 -1.02805E+03 -1.44600E+04 -5.99565E+03
 -5.87958E+03 -3.59709E+03 -2.89289E+03 -8.27833E+03  9.78460E+03 -4.19387E+03  7.55972E+03 -6.31460E+03
  1.41365E+04  2.96648E+03  4.44541E+03  7.90675E+03 -3.09002E+03  3.46843E+03  1.34575E+03  3.70586E+03
  3.82769E+03  3.01039E+03 -4.78086E+03 -5.49727E+03  3.92788E+02  1.61701E+03 -7.16388E+00  3.48482E+03
  2.64611E+03 -5.84069E+03  2.31725E+03 -1.59965E+03  4.99480E+02 -4.77293E+03 -5.03562E+03 -5.03583E+03
  6.94399E+02 -2.74186E+03  2.35930E+03 -3.05110E+03  5.07699E+03  3.83360E+03  1.31845E+03  4.94334E+03
 -5.35562E+03  8.05690E+03 -8.00733E+03  3.13366E+03 -1.25759E+04  4.19071E+03 -4.24827E+03 -1.89975E+03
  8.09849E+02 -9.22195E+03 -3.03571E+02 -3.90933E+03  4.83194E+03 -7.89538E+03 -4.37434E+03  1.71033E+03
 -1.60876E+03  5.99438E+03  1.80145E+02  4.67164E+02 -1.07352E+03  2.04858E+03 -4.16338E+03 -4.14858E+03
  2.47731E+03 -1.08532E+03  1.60167E+03 -2.47777E+03  1.47003E+03 -1.43479E+03 -1.06466E+03  6.27931E+02
 -1.38717E+03  3.86413E+03 -2.30557E+02  1.66265E+03  1.86154E+02 -5.86871E+03  4.77955E+03 -3.29547E+03
  3.26501E+03 -2.11204E+03  1.10914E+04 -6.75725E+03  4.84284E+03  5.21908E+02  2.07053E+03  1.97912E+03
 -1.47956E+03  1.99766E+03  2.09633E+03  2.82981E+03 -5.76488E+03 -6.15696E+03 -6.50964E+03  6.44553E+03
 -3.13970E+03  1.22942E+03  1.00223E+03 -5.51506E+03 -1.05201E+03  3.10509E+02 -9.61552E+03 -4.10962E+03
 -6.79982E+03 -1.80838E+03 -2.04011E+02 -5.59431E+03  2.41256E+03 -4.58520E+03  2.36169E+03 -3.67990E+03
 -8.90923E+02  1.35509E+03  4.56341E+03  8.33586E+02 -4.35105E+03  3.37868E+03 -4.92520E+03  1.88001E+03
