 $NMID ID='MM_0lb_SNR50_17hz_g60_38.RAW', FMTDAT='(8E13.5)'
 TRAMP=1., VOLUME=1. $END
  3.08711E+05 -2.42807E+03  3.35122E+05  2.56095E+05  8.70271E+04  3.35190E+05 -1.34941E+05  2.53100E+05
 -1.88410E+05  7.92484E+04 -1.12478E+05 -3.54053E+04 -8.64116E+02 -5.28480E+04  5.46863E+04 -3.58483E+03
  3.81626E+04  5.08808E+04 -1.54067E+04  7.77005E+04 -5.76822E+04  6.51901E+04 -8.15185E+04  2.92647E+04
 -7.92183E+04 -1.50981E+04 -5.65811E+04 -5.69802E+04 -1.63086E+04 -6.94316E+04  2.94962E+04 -4.33684E+04
  3.71155E+04  4.13587E+03  1.74715E+04  4.87138E+04 -3.65408E+04  4.33821E+04 -6.54760E+04 -1.98775E+03
 -5.66795E+04 -5.92117E+04 -7.21788E+03 -8.10199E+04  3.35149E+04 -5.70177E+04  5.14402E+04 -2.11394E+04
  3.92668E+04  1.05399E+04  3.09451E+04  2.75806E+04  1.40810E+04  3.03653E+04 -2.96747E+03  2.47310E+04
 -2.26936E+04  8.22113E+03 -1.71190E+04 -1.88840E+03  3.44659E+03 -6.77149E+03  2.47103E+04  1.08918E+04
  7.32645E+03  3.24601E+04 -3.10729E+04  3.08987E+04 -6.56106E+04  1.27842E+02 -6.21531E+04 -4.18950E+04
 -1.70003E+04 -6.26732E+04  4.05425E+04 -4.43119E+04  6.31553E+04 -4.35746E+03  3.63814E+04  3.58073E+04
 -4.99998E+03  3.75993E+04 -3.15134E+04  1.28924E+04 -2.62665E+04 -5.87724E+03 -1.50988E+04 -1.47964E+04
 -2.21866E+03 -9.72857E+03 -1.06265E+03 -1.74533E+04  6.56959E+03 -2.13746E+04  1.55753E+04 -1.53382E+04
  1.19977E+04  7.95700E+03 -6.47758E+03  1.47853E+04 -2.51429E+04 -1.01428E+04 -8.91619E+03 -3.36293E+04
  2.34121E+04 -4.04931E+04  4.72364E+04 -1.62600E+04  4.41438E+04  2.13806E+04  1.36526E+04  4.63101E+04
 -1.26358E+04  3.45240E+04 -2.53109E+04  2.30092E+03 -1.10066E+04 -2.54457E+04  1.86418E+04 -3.26169E+04
  3.63524E+04 -1.04374E+04  3.43275E+04  2.37991E+04  2.21563E+04  4.70680E+04 -9.90816E+03  5.26045E+04
 -3.41284E+04  3.21332E+04 -3.92861E+04  7.99574E+03 -4.18290E+04 -1.86053E+04 -2.32824E+04 -3.52994E+04
  9.96913E+03 -3.37716E+04  3.17876E+04 -1.69154E+04  2.81038E+04  1.17738E+04  8.16097E+02  1.95474E+04
 -1.74115E+04  1.16638E+04 -8.60587E+03 -8.58730E+03  1.86698E+03 -1.28002E+04  1.63983E+04  6.02880E+03
  1.59674E+04  2.55518E+04 -8.32241E+03  2.30375E+04 -1.92364E+04  1.34454E+04 -2.87359E+04 -5.48568E+02
 -2.21298E+04 -1.58736E+04 -5.80874E+03 -1.72430E+04  4.33770E+03 -2.07948E+04  1.96998E+04 -1.71373E+04
  2.53484E+04 -9.83209E+03  2.93456E+04  7.08386E+03  2.18721E+04  2.08882E+04  1.75584E+03  3.17628E+04
 -1.60008E+04  3.08593E+04 -2.85062E+04  1.31488E+04 -1.85010E+04 -1.00080E+04 -3.95431E+03 -1.40597E+04
  2.94602E+03 -7.09834E+03 -5.69405E+03  5.39008E+03 -1.35312E+04  9.31518E+03 -1.40712E+04 -3.95722E+03
 -1.02694E+04 -1.50897E+04  3.98600E+03 -2.00887E+04  1.14267E+04 -1.81678E+04  1.84483E+04 -1.69064E+03
  1.33795E+04  1.14780E+04  2.47581E+03  1.42724E+04 -1.52470E+04  1.14487E+04 -1.80932E+04 -6.44172E+02
 -1.61731E+04 -1.16696E+04 -4.97998E+03 -1.93438E+04  4.42405E+03 -1.59617E+04  2.23818E+04 -1.20563E+04
  1.50418E+04  9.75241E+02  1.70703E+04  6.49628E+03  9.79830E+03  3.54959E+03  8.72736E+03 -6.31954E+03
  1.58793E+04  3.08591E+03  1.87397E+04  1.40148E+04  1.18738E+04  3.21653E+04 -2.51040E+02  2.97956E+04
 -1.55849E+04  2.48888E+04 -2.95902E+04  1.04686E+04 -3.19862E+04 -8.71033E+03 -2.43556E+04 -1.68247E+04
 -9.86807E+03 -2.47440E+04  7.40111E+03 -2.24876E+04  1.68809E+04 -8.87427E+03  2.19163E+04  4.73578E+03
  2.45123E+03  1.38248E+04 -1.10728E+04  9.43625E+03 -1.91308E+04 -7.84854E+02 -1.14232E+04 -9.89623E+03
  3.55999E+02 -1.41493E+04  7.79958E+03 -1.40140E+04  8.32166E+03 -6.72780E+03 -1.36054E+03  5.58083E+03
 -6.63636E+03  1.70557E+03 -3.68020E+03 -3.68815E+03  3.81373E+03 -1.22163E+04  1.22269E+04 -1.30459E+04
  1.61811E+04 -5.58599E+03  1.71182E+04 -1.62086E+03  9.76184E+03  7.62378E+03  4.30090E+03  1.58366E+04
 -2.32834E+03  1.59595E+04 -1.17017E+04  1.20237E+04 -1.21983E+04  5.06432E+03 -1.24793E+04 -4.38308E+03
 -5.18602E+03 -9.47599E+02  1.19148E+03  1.72117E+03 -5.77157E+03  5.44781E+03 -2.54231E+03  2.31560E+03
 -9.73636E+03 -2.98082E+03 -1.17364E+04 -9.95394E+03 -4.96253E+03 -1.40827E+04 -2.49471E+02 -1.13375E+04
  1.01879E+04 -2.92728E+03  4.03618E+03  1.25645E+03 -3.32524E+03  5.15491E+03 -1.87778E+03  1.04183E+03
 -2.01025E+03 -9.19693E+03 -3.42405E+03 -6.48344E+03  4.85959E+03 -7.82578E+03  1.46205E+04 -7.76986E+02
  1.45062E+04  1.50158E+03  1.10485E+04  1.14239E+04  2.95067E+03  7.49302E+03 -4.69433E+03  6.54424E+03
 -2.96491E+03  4.78583E+03 -7.98295E+02 -5.24413E+03  5.11935E+03 -1.58067E+02  8.05571E+03  5.36136E+02
  1.39301E+03  3.45738E+03 -2.43293E+03  1.02681E+04 -4.59174E+03  8.89335E+03 -6.86082E+03  2.47079E+03
 -6.29084E+03 -2.57077E+03 -3.49370E+03 -6.83944E+03 -1.38977E+03 -6.89755E+03  4.02386E+03  6.25641E+03
  7.12476E+02  3.78626E+03 -4.44182E+03  4.94878E+03 -9.25298E+03  1.64193E+03 -4.82889E+03 -2.06149E+03
 -7.73995E+03 -5.45926E+03 -1.27306E+03 -1.03848E+04  5.80622E+03 -4.76801E+03  6.49353E+03  1.24123E+03
  4.40639E+03  9.67343E+03  6.27387E+03  9.88956E+03 -7.67707E+03  7.69872E+02 -8.43078E+03 -2.09616E+02
 -6.31063E+03 -6.09593E+03  5.24072E+03 -5.45737E+03  5.47488E+03 -1.12685E+04  3.63445E+03 -6.63826E+02
  2.81239E+03  1.71177E+03  2.47981E+03 -2.07807E+03  6.76213E+02 -1.91095E+03 -3.05954E+03 -1.76897E+03
  8.73141E+03 -1.05457E+03  8.76198E+03 -1.62842E+03  6.00538E+03  3.81265E+03  3.83735E+03  8.78420E+03
 -5.55172E+03  1.32854E+04 -1.13997E+04  1.03000E+04 -1.34234E+04  3.21942E+03 -1.67498E+04  1.46158E+03
 -6.65362E+03 -9.01931E+03  1.04704E+03 -5.67534E+03  9.13810E+03 -2.22007E+03  2.56842E+03 -3.23626E+03
  1.53182E+03 -3.77601E+03  4.34598E+03  9.50245E+02 -8.82503E+02 -4.42287E+03  2.62014E+03 -7.41013E+02
  5.58840E+03  5.09955E+03  4.55518E+03  7.79534E+03 -6.32511E+03  2.33132E+03 -4.21502E+03  3.44501E+03
 -5.13787E+03 -2.16615E+03 -1.25338E+03 -7.46325E+03  1.86943E+02 -7.23488E+03  5.35423E+03 -7.70685E+03
  9.14322E+03 -3.18748E+03  7.74667E+03 -9.56155E+02  7.63111E+03  6.38340E+03 -1.27562E+03  7.84532E+03
 -4.63094E+03  7.54388E+03 -5.23505E+03  4.46703E+03 -3.05404E+03 -4.85766E+03 -2.68062E+03  2.45588E+03
 -2.17853E+03  2.77549E+03 -4.21021E+03 -1.62666E+02 -3.64785E+02  4.33935E+01 -4.43256E+03 -4.28417E+03
  2.57217E+03 -1.07760E+03  2.81483E+03 -6.41635E+03  3.20346E+03 -5.14782E+03  4.93252E+03  1.41929E+03
  4.19757E+03  2.46356E+03  3.82234E+03  2.58365E+03  4.80393E+02  3.01202E+03 -4.64134E+03  2.76366E+03
 -4.50564E+03  8.55093E+02 -9.65884E+02 -5.77560E+00 -4.81483E+03 -4.99013E+03  1.01911E+02 -2.48385E+03
  4.02123E+03 -5.21485E+03  2.64100E+03  2.04437E+02 -7.91068E+02  6.33065E+03  2.36246E+03  1.59761E+02
  7.96106E+02 -2.06240E+03  5.07886E+03  1.08359E+03 -6.88007E+02 -1.31502E+03  2.41213E+03  7.65836E+03
 -4.79956E+03  7.60534E+02 -1.29240E+03  2.60386E+03 -5.61934E+03  1.72215E+03 -5.11771E+03 -6.32321E+02
 -4.61067E+03 -1.06930E+04  5.11561E+03 -1.04084E+04  4.31684E+03 -7.19864E+02  7.47597E+03 -5.29015E+02
  3.00400E+03  6.53202E+03  1.99515E+03  3.57087E+03 -1.93688E+03 -2.34823E+02 -3.35051E+03  3.67616E+02
 -3.98316E+03 -3.50695E+03  9.65682E+02 -1.90530E+03  3.94327E+03 -1.27856E+03  3.16032E+03  2.44663E+03
  1.99200E+00 -1.72007E+03 -3.19700E+03 -2.64595E+03  1.39031E+03  2.56176E+03  4.28033E+03 -1.52864E+03
  2.07532E+03 -2.40662E+03  6.27274E+03 -1.29082E+03 -1.16495E+02  1.25187E+03 -9.36717E+02  4.54584E+03
 -3.76712E+01  2.73196E+03 -6.68902E+03  1.10540E+03 -3.62404E+03  8.34326E+02 -3.65244E+03 -3.06169E+03
  1.31843E+03 -2.66983E+03 -2.65992E+02 -3.51004E+03  5.75381E+03  4.37062E+03 -1.84038E+03 -6.01879E+02
 -1.51861E+03  5.60208E+02 -1.94118E+03 -3.10541E+03  2.83058E+03 -3.55859E+03 -2.43651E+03 -5.23037E+03
  4.72623E+02 -2.97198E+02  5.55625E+03  4.80695E+02 -1.86638E+03 -4.74753E+02 -1.76980E+03  1.63782E+03
  2.88570E+02 -4.36933E+03 -3.26193E+03 -3.02966E+03  5.72216E+02  7.13692E+02  3.90801E+03 -2.10975E+02
  3.41315E+03  4.84967E+02  5.86785E+03  9.40063E+02  1.15441E+03  9.66448E+02 -3.14929E+03  3.79036E+03
 -3.33263E+03 -2.88816E+03 -1.76963E+03  1.04239E+03 -4.79268E+02  1.54799E+03 -8.41287E+02 -3.17281E+03
  1.89158E+03  1.07007E+03  5.12798E+02 -2.63349E+03  1.55209E+03 -1.72806E+03  2.23577E+03 -1.59007E+03
  1.11557E+03  1.68617E+03 -7.26352E+02  4.64322E+03 -1.85253E+03  3.68965E+03 -1.64364E+03  9.03327E+01
 -8.81625E+02  3.70870E+02 -7.28143E+03  4.00246E+03  1.95319E+03 -8.27845E+02 -3.01550E+03 -2.09224E+03
  4.59190E+02 -1.80954E+03  1.48867E+03 -5.61103E+03 -1.25591E+03 -5.04816E+03  2.57250E+03 -4.72984E+03
  3.35000E+03 -4.97769E+03  5.62116E+03  4.37768E+03  6.90291E+01  5.77100E+03 -3.60579E+03  6.03392E+03
 -5.33921E+03  1.29495E+03 -1.97295E+03 -5.11693E+03  3.19005E+03  3.24346E+03  7.02382E+03 -1.48772E+03
 -1.60604E+03 -1.76887E+03 -7.44287E+01  3.69451E+03  2.67404E+03 -1.86436E+02 -1.48163E+03  8.12502E+02
  3.72917E+03 -2.90252E+03 -3.65315E+02  1.12837E+03  2.71777E+03  2.43688E+03  1.37076E+03  6.53073E+03
 -3.19611E+02  6.58976E+03 -3.95199E+03  3.58817E+03 -4.68040E+03  6.71754E+03 -4.33523E+03  1.94463E+03
  1.31442E+02  6.55441E+02 -2.34876E+03 -2.13092E+03  7.78535E+02 -1.93969E+03  2.39086E+03  1.46902E+03
  2.53047E+03 -2.23000E+03  4.66368E+02 -1.02011E+03 -1.16074E+03 -2.81973E+03 -2.04950E+03  2.75360E+03
  1.18434E+03 -1.21850E+03  2.51607E+02  9.34868E+02 -1.96694E+03  2.74958E+01 -1.92591E+02  7.51749E+02
 -1.91070E+03  6.26216E+03  3.74186E+03  3.25633E+03 -1.40730E+03  1.18431E+02 -2.25694E+03  3.48909E+02
 -1.57161E+03 -1.44297E+03  2.44564E+03 -4.07353E+03  2.41760E+03 -1.13598E+03 -4.03934E+03  1.38305E+03
 -3.01237E+03  2.23454E+03  1.34390E+02  6.80588E+02  3.87520E+03  1.26387E+03 -3.19706E+03  4.65913E+02
 -1.78944E+03 -2.59081E+03 -1.61597E+03 -2.21008E+03  2.99167E+03  1.09583E+03  4.90662E+03  4.30421E+03
 -1.69400E+03  3.12795E+03 -1.41291E+03 -3.61042E+03  2.11006E+03 -5.66801E+03  4.65398E+03 -2.45236E+03
  2.47751E+03  9.93076E+02 -3.45578E+03  1.92882E+03 -2.00625E+03  8.70345E+02 -6.60408E+02  2.21244E+03
