 $NMID ID='MM_0lb_SNR50_12hz_g60_72.RAW', FMTDAT='(8E13.5)'
 TRAMP=1., VOLUME=1. $END
  3.10504E+05  2.51520E+02  3.39666E+05  2.52265E+05  8.26225E+04  3.39744E+05 -1.31287E+05  2.53706E+05
 -1.92005E+05  8.59867E+04 -1.10252E+05 -2.71090E+04 -1.25446E+03 -4.90304E+04  5.92971E+04 -1.33080E+03
  3.25353E+04  5.42725E+04 -1.56532E+04  7.32585E+04 -5.76832E+04  6.10185E+04 -8.18639E+04  2.94166E+04
 -8.11653E+04 -1.11123E+04 -5.85872E+04 -5.14771E+04 -1.67023E+04 -6.97973E+04  2.87256E+04 -4.73496E+04
  4.20301E+04  2.63513E+02  1.76619E+04  4.21749E+04 -3.76504E+04  4.42600E+04 -6.45862E+04  1.47983E+03
 -5.41452E+04 -5.42527E+04 -4.67190E+03 -8.08803E+04  3.66080E+04 -6.08961E+04  5.13555E+04 -1.91519E+04
  3.93948E+04  1.03427E+04  3.50938E+04  2.62379E+04  1.18368E+04  3.11279E+04 -9.34826E+03  2.22204E+04
 -2.87040E+04  9.61867E+03 -8.86766E+03 -6.33954E+03  1.05700E+04 -1.45220E+04  2.77926E+04  8.16192E+03
  1.13293E+04  3.36261E+04 -3.03226E+04  3.58319E+04 -6.80277E+04 -3.91127E+02 -5.75804E+04 -4.08131E+04
 -1.49574E+04 -6.42387E+04  4.27330E+04 -4.67374E+04  5.82761E+04 -3.74542E+03  3.70639E+04  3.66550E+04
 -1.04957E+04  3.50886E+04 -2.80340E+04  2.24000E+04 -3.06490E+04 -3.54793E+03 -1.75890E+04 -7.75521E+03
 -3.17227E+03 -1.29711E+04  1.50003E+03 -1.29622E+04  8.80929E+03 -2.29532E+04  1.29590E+04 -1.18331E+04
  1.77363E+04  8.37939E+03 -1.54688E+04  1.60160E+04 -1.97594E+04 -4.05578E+03 -8.60117E+03 -3.36535E+04
  2.48917E+04 -4.34057E+04  5.31525E+04 -2.02798E+04  5.20818E+04  1.38705E+04  1.38663E+04  4.30916E+04
 -1.38415E+04  3.61566E+04 -2.93932E+04  1.28166E+03 -1.35648E+04 -2.56258E+04  2.72964E+04 -3.39110E+04
  4.44030E+04 -1.18666E+04  4.46818E+04  2.32299E+04  2.15797E+04  4.80098E+04 -1.33927E+04  5.51266E+04
 -3.63496E+04  3.07340E+04 -4.27643E+04  8.91039E+03 -4.56393E+04 -1.80564E+04 -2.09865E+04 -3.61319E+04
  8.95313E+03 -3.81997E+04  3.17401E+04 -1.57675E+04  3.09652E+04  1.02560E+04  5.41756E+03  1.58114E+04
 -1.36942E+04  8.20886E+03 -4.64237E+03 -7.67816E+03  3.26001E+03 -1.20511E+04  1.94500E+04  3.35767E+03
  1.73534E+04  2.11525E+04 -2.27878E+03  2.31224E+04 -2.06740E+04  1.22586E+04 -3.31492E+04 -2.24020E+03
 -2.03279E+04 -1.93287E+04 -5.01378E+03 -2.00381E+04  4.88344E+03 -2.58778E+04  2.34451E+04 -2.19340E+04
  3.01592E+04 -1.19122E+04  3.77832E+04  5.36074E+03  2.64276E+04  2.07439E+04  5.11201E+03  4.02657E+04
 -1.86493E+04  3.23077E+04 -2.56864E+04  1.85920E+04 -2.12015E+04 -1.05049E+04 -6.18836E+03 -1.12532E+04
  3.28549E+02 -3.65339E+03 -3.31141E+03  1.03666E+04 -1.92450E+04  6.51847E+03 -2.43035E+04 -1.19319E+04
 -1.50741E+04 -2.53725E+04  5.60614E+03 -2.66056E+04  1.45374E+04 -1.77237E+04  2.29269E+04 -4.79366E+03
  1.45635E+04  1.34427E+04 -2.68955E+03  1.52948E+04 -1.52245E+04  1.27277E+04 -2.28079E+04 -1.02029E+04
 -1.35504E+04 -1.68458E+04 -1.22941E+03 -2.08960E+04  1.27117E+04 -2.16122E+04  1.87616E+04 -9.68109E+03
  1.78271E+04  3.37473E+03  1.09915E+04  4.66482E+03  7.74520E+03  1.58184E+03  1.46291E+04 -7.61698E+03
  2.00255E+04  1.85811E+03  1.95246E+04  1.95725E+04  1.48845E+04  3.15163E+04 -5.90814E+03  3.33200E+04
 -2.22193E+04  3.23431E+04 -3.64786E+04  1.46523E+04 -3.91587E+04 -6.67221E+03 -3.35641E+04 -2.40604E+04
 -8.56171E+03 -3.34060E+04  5.80677E+03 -2.75347E+04  2.30704E+04 -1.42429E+04  2.34609E+04  4.71384E+03
  9.58699E+03  1.23475E+04 -9.25867E+03  9.97993E+03 -1.77395E+04  5.57157E+03 -1.71806E+04 -1.52667E+04
 -5.15799E+02 -1.82088E+04  4.74085E+03 -1.05294E+04  1.41327E+04  2.60142E+03  3.54423E+03  5.07744E+03
 -1.09953E+04  1.03543E+03 -1.01497E+04 -3.89789E+03 -2.08953E+03 -9.68992E+03  6.86318E+03 -1.44286E+04
  2.03507E+04 -1.10869E+04  2.26554E+04  4.98743E+03  2.03550E+04  1.49997E+04  9.36470E+03  2.57727E+04
 -7.06970E+03  2.87359E+04 -1.78531E+04  1.94805E+04 -1.86406E+04  3.03831E+03 -1.21221E+04 -4.70773E+03
 -7.16996E+03 -1.18709E+03 -6.16020E+03  5.59246E+03 -2.40134E+03  3.27956E+03 -1.64074E+03  5.52219E+03
 -1.37662E+04  5.19924E+03 -1.14237E+04 -1.02495E+04 -3.43624E+03 -1.81296E+04  2.16757E+03 -1.49423E+04
  9.03115E+03 -3.01471E+03  1.24390E+04  4.04573E+03 -2.86791E+03  5.23143E+03 -4.36238E+03 -7.43659E+02
 -8.75778E+03 -5.39372E+03  1.59612E+03 -8.11251E+03  7.48871E+03 -1.46050E+04  2.12387E+04 -5.25978E+03
  2.06627E+04  7.07346E+03  1.63544E+04  7.78562E+03 -9.84839E+02  2.28190E+04 -4.96865E+03  1.22628E+04
 -1.82826E+04  2.13869E+03 -6.42058E+03 -8.94685E+02 -1.55965E+03 -1.00868E+04 -7.70478E+02  8.77435E+02
  6.30280E+03  4.83968E+03  2.38615E+03  1.53309E+04 -7.01614E+03  1.73441E+04 -1.34168E+04  2.24027E+03
 -8.14196E+03 -8.40473E+03  1.30984E+03 -7.92679E+03  1.11228E+04 -1.68310E+03  8.90671E+03  4.06365E+03
  2.96638E+03  1.06993E+04 -9.10206E+03  1.25674E+04 -1.64033E+04  6.09822E+03 -7.55177E+03 -4.07912E+03
 -4.59784E+03 -1.04018E+04  2.40926E+03 -1.27001E+04  1.14988E+04 -1.28432E+04  1.08515E+04 -6.29042E+02
  1.01382E+04  1.11619E+04 -6.46377E+03  1.15109E+04 -1.01610E+04  8.71531E+03 -8.96013E+03 -2.56530E+02
 -8.45833E+03 -7.40700E+03  6.26670E+03 -7.86462E+03  4.07999E+03 -1.05993E+04  2.50964E+02 -2.03045E+03
  1.05510E+03  1.47965E+03 -3.42541E+03  5.62501E+02 -2.38309E+03 -2.83788E+02  3.98680E+03 -5.61496E+03
  8.44747E+03  4.06752E+03  1.34860E+04  1.35808E+03  1.24529E+04  1.00524E+04  7.74779E+03  2.13252E+04
 -1.88525E+03  2.23073E+04 -1.80625E+04  7.00474E+03 -2.34558E+04  1.41180E+03 -1.70485E+04 -6.46907E+03
 -7.07402E+03 -1.51412E+04 -1.99552E+02 -6.75657E+03  8.61716E+03 -6.35163E+03  8.22012E+03 -7.41436E+02
  7.95131E+03 -9.95403E+03  3.36015E+03 -1.02311E+04  1.02720E+04 -3.89864E+02  8.40984E+03 -4.21893E+03
  1.71068E+04  7.40735E+02  2.26188E+03  7.02001E+03  9.14195E+02  9.24864E+03 -5.75180E+03  6.05998E+03
 -1.00373E+04 -5.70660E+03 -6.52149E+03 -9.62388E+03  3.32489E+02 -1.12414E+04  1.06556E+04 -1.35984E+04
  1.53255E+04 -7.32863E+03  1.80810E+04  1.17763E+02  1.22641E+04  1.25217E+04 -1.11777E+02  1.67435E+04
 -1.36496E+03  1.41939E+04 -9.58165E+03  2.87463E+03 -1.39329E+04 -3.12613E+03 -5.55888E+03 -1.49464E+03
 -1.92433E+03  2.13700E+03 -4.75232E+03  6.30642E+03 -6.23254E+03  1.80967E+03 -5.14640E+03 -2.36782E+03
 -2.58225E+03 -8.06750E+03  5.01298E+03 -1.09334E+04  6.94024E+03 -9.98840E+03  1.37047E+04 -8.92311E+02
  1.14378E+04  3.87855E+03  1.83077E+03  8.18676E+03  1.73545E+03  9.69871E+03 -1.23293E+04  6.30764E+03
 -1.08476E+04  8.09813E+03 -4.54265E+03 -1.02957E+04  4.60050E+03 -1.10959E+04  6.80643E+03 -1.03930E+04
  3.57352E+03 -4.40606E+03  9.81184E+03  2.32373E+03  2.80825E+03 -1.11395E+03 -2.19960E+03 -1.39203E+03
  6.29730E+03  1.89896E+03  4.12451E+03  1.95702E+03  9.49591E+00  2.48370E+03  8.35609E+03  6.42303E+03
 -1.19109E+03  5.32735E+03 -3.97688E+03  1.29906E+04 -8.85419E+03  5.82485E+01 -1.16530E+04 -2.22520E+03
 -4.43780E+03 -1.16941E+04  8.39787E+02 -2.09320E+04  1.09627E+04 -8.06505E+03  7.67886E+03 -2.14035E+02
  8.95064E+03 -2.07868E+03 -1.75330E+03  2.67770E+03 -6.30587E+03  3.37143E+03 -3.88367E+02 -1.79602E+03
 -3.67230E+03 -1.42517E+03  2.12060E+03 -3.58954E+03  5.19776E+03 -5.72755E+03  1.94640E+03 -2.22968E+03
  1.83910E+03  3.46539E+03  8.20262E+02 -8.79009E+02  4.44720E+03  1.77072E+03  2.05085E+03  4.93557E+03
  4.98668E+02  9.28498E+02  7.60147E+03 -2.50111E+03  1.80895E+03  7.23971E+03 -1.45116E+03  3.50226E+03
 -6.97844E+03  4.51735E+03 -1.99966E+03 -6.77398E+02 -3.64329E+03 -7.29776E+03  4.44008E+03 -1.70140E+03
  2.19814E+03 -3.96551E+03 -6.23252E+03 -4.66139E+03  1.28708E+03  4.27127E+03  5.00384E+02  1.65845E+03
 -4.41225E+03  2.99486E+03 -5.68945E+03 -5.69367E+03 -3.89245E+03 -8.22466E+03  2.90587E+03 -7.23259E+03
  3.28963E+03 -5.57315E+03  4.59394E+03 -7.67441E+03  2.09652E+03 -7.16134E+02  2.09190E+03  3.24071E+03
 -7.79581E+02  7.12623E+03 -1.87665E+03 -4.86787E+03  2.40191E+03 -2.66190E+03  1.27326E+04 -5.09098E+03
  8.73617E+03  5.30634E+03  1.69358E+03  1.73848E+03  3.18840E+03  7.57892E+03 -2.65196E+03  2.50804E+03
 -1.16512E+04 -1.92669E+03  1.37793E+03 -5.86493E+02 -3.53075E+03 -3.66629E+03  2.19035E+03 -6.48407E+03
  5.16155E+03 -5.93742E+03  3.36913E+03 -3.12975E+03  5.30340E+03  3.52390E+03  4.54950E+03  3.01576E+03
 -7.51008E+03  8.43931E+02 -1.67523E+03 -3.56543E+02 -9.11994E+02  3.89939E+03 -4.18127E+03  1.24097E+03
 -2.23040E+03  1.74106E+03 -4.13969E+03  6.90687E+03 -7.93214E+03  6.98812E+03 -9.06040E+03 -3.94757E+03
 -3.70147E+03 -5.88735E+03  2.64873E+03 -1.52021E+04  5.82877E+03 -6.54451E+03  6.72395E+03 -2.70302E+03
  1.21927E+04 -3.08089E+03  9.64132E+03  6.44979E+03 -2.75867E+02  1.01338E+04 -5.04070E+03  7.34925E+03
 -1.70938E+03  2.96712E+02 -6.06948E+03  5.82590E+03 -5.48522E+03  1.34033E+03 -4.62310E+03  7.98514E+02
 -7.36193E+03  1.18257E+03 -2.62342E+03 -3.41297E+02 -7.28736E+02 -2.01658E+03 -1.85732E+03 -3.38039E+03
  2.58456E+03 -4.82708E+03  4.41872E+03 -3.07083E+03  1.31416E+03  4.80305E+03  2.90547E+03  9.56954E+03
  1.90837E+03  8.08125E+03 -4.07175E+03  7.78696E+03 -6.06068E+03 -4.38377E+03 -4.41348E+03 -1.57439E+03
 -3.33100E+03 -5.67079E+03 -1.91611E+03 -7.20148E+03 -2.67546E+03 -7.36233E+03  2.32514E+03 -6.27807E+02
  1.14087E+03  1.16389E+03  2.53326E+03  6.98116E+03  1.48764E+03  1.32585E+03 -2.35576E+03  3.90262E+02
  4.52665E+03 -2.27339E+03  3.16976E+03  6.95497E+02 -1.96460E+03  1.09404E+03  9.58933E+02  1.94190E+03
 -3.69800E+03  2.42908E+03 -8.85415E+03  1.19165E+03 -4.41776E+03 -1.94556E+03 -1.43112E+03 -7.68858E+03
  2.96125E+03 -1.13433E+04  3.22145E+03  2.16202E+03  8.63809E+03  2.09767E+03  4.46676E+03  2.05588E+03
  2.88770E+03 -6.84391E+02 -1.40127E+02 -4.07521E+02 -2.67856E+03 -8.85940E+02  6.76746E+02 -3.19653E+03
 -4.61866E+03 -7.94765E+02  3.56433E+02  1.77398E+03 -6.94657E+03  4.29222E+03 -3.69581E+03 -2.77467E+03
 -1.32110E+03 -6.74662E+02  1.64748E+03 -1.02869E+03 -4.57613E+02 -6.20030E+03  3.23144E+03 -4.17782E+01
  2.92390E+03  8.96956E+01  3.39666E+03  4.74381E+03  2.44308E+03  2.49033E+03  3.61363E+03  4.44909E+03
