 $NMID ID='MM_0lb_SNR50_10hz_g60_90.RAW', FMTDAT='(8E13.5)'
 TRAMP=1., VOLUME=1. $END
  3.08809E+05 -7.06854E+02  3.38580E+05  2.49439E+05  8.63997E+04  3.39717E+05 -1.26454E+05  2.56718E+05
 -1.93441E+05  8.64481E+04 -1.15207E+05 -3.20541E+04 -4.61379E+02 -5.42104E+04  5.51053E+04 -4.66530E+03
  3.46808E+04  5.63605E+04 -2.25004E+04  7.90937E+04 -6.01367E+04  6.61253E+04 -9.22903E+04  2.91154E+04
 -8.78636E+04 -1.44920E+04 -5.94506E+04 -5.22474E+04 -1.02899E+04 -7.02479E+04  2.69148E+04 -5.01259E+04
  3.98301E+04  5.46367E+02  1.50894E+04  5.03585E+04 -3.19003E+04  5.14355E+04 -6.88144E+04  1.31077E+03
 -5.23802E+04 -6.16632E+04 -4.15259E+02 -7.91504E+04  3.60930E+04 -6.13105E+04  4.92258E+04 -1.82202E+04
  4.23143E+04  9.24839E+03  3.23124E+04  2.81200E+04  1.24444E+04  2.69102E+04 -8.15122E+03  2.08098E+04
 -2.12487E+04  1.13125E+04 -1.82251E+04 -4.83531E+03  6.12727E+03 -1.60928E+04  2.61907E+04  2.31240E+04
  4.61003E+02  3.91608E+04 -3.49412E+04  3.52246E+04 -6.53215E+04 -2.48941E+03 -5.60181E+04 -3.95638E+04
 -1.03910E+04 -6.72025E+04  4.05247E+04 -4.47637E+04  6.47279E+04  3.65791E+02  3.30944E+04  3.45793E+04
 -8.77411E+03  3.96106E+04 -3.27047E+04  1.51259E+04 -3.36935E+04  3.97668E+02 -1.89447E+04 -1.25181E+04
 -1.28864E+04 -1.34641E+04  6.96077E+03 -2.47731E+04  2.87704E+03 -1.75114E+04  1.13018E+04 -1.76552E+04
  1.00251E+04  8.61561E+01 -1.21366E+04  3.94561E+03 -2.25048E+04 -4.00224E+03 -7.72947E+03 -4.24382E+04
  2.49150E+04 -4.83533E+04  5.43559E+04 -2.49702E+04  4.71898E+04  1.89194E+04  1.58757E+04  4.85864E+04
 -1.65635E+04  3.39060E+04 -3.31932E+04 -4.16750E+03 -6.62684E+03 -2.93229E+04  2.53800E+04 -4.10269E+04
  4.60331E+04 -1.99209E+04  3.69126E+04  1.93213E+04  2.46720E+04  4.63510E+04 -2.60229E+03  5.61259E+04
 -3.98648E+04  3.25088E+04 -4.81369E+04  9.04774E+03 -4.92591E+04 -1.90308E+04 -2.22631E+04 -4.21327E+04
  1.24226E+04 -4.08079E+04  2.98906E+04 -1.60800E+04  3.61243E+04  7.71399E+03 -1.41661E+03  1.92358E+04
 -1.80623E+04  8.92045E+03 -8.64955E+03 -5.94033E+03  7.40773E+03 -5.99603E+03  1.98868E+04  3.56423E+03
  1.61209E+04  2.96832E+04 -1.41385E+03  2.88009E+04 -2.37102E+04  9.41297E+03 -3.04621E+04 -3.85227E+02
 -1.92918E+04 -1.67545E+04 -1.30028E+04 -2.33558E+04  8.08852E+03 -2.32110E+04  1.76322E+04 -1.65571E+04
  3.19246E+04 -1.02507E+04  4.31444E+04  4.71677E+03  2.19391E+04  2.32500E+04  6.32979E+03  4.64992E+04
 -2.32397E+04  3.72301E+04 -3.38668E+04  1.48683E+04 -1.70190E+04 -6.08186E+03 -9.22069E+03 -1.20349E+04
  4.65140E+03 -3.28603E+03 -1.18262E+04  9.43026E+03 -2.17176E+04  5.11331E+03 -2.38212E+04 -1.48179E+04
 -1.02083E+04 -2.60479E+04  4.90921E+03 -2.90095E+04  1.97032E+04 -1.93434E+04  2.22790E+04 -1.61313E+03
  1.53940E+04  1.53863E+04 -5.96918E+03  2.12353E+04 -1.86085E+04  1.32970E+04 -2.57884E+04 -5.85816E+03
 -2.12407E+04 -2.11951E+04 -4.97310E+03 -2.79276E+04  1.70677E+04 -2.92591E+04  2.41696E+04 -1.80104E+04
  2.22968E+04 -3.68897E+03  1.48359E+04  1.13451E+04  1.32277E+04  5.64237E+03  1.08988E+04 -3.76222E+02
  2.15930E+04  5.98137E+03  2.57602E+04  2.17144E+04  2.30492E+04  3.85397E+04 -4.09964E+03  4.71883E+04
 -2.56524E+04  3.63962E+04 -4.79649E+04  1.65901E+04 -3.78684E+04 -3.97090E+03 -4.03739E+04 -2.92246E+04
 -1.04139E+04 -3.93197E+04  1.75866E+04 -3.02388E+04  2.90600E+04 -1.11445E+04  2.56664E+04  9.39092E+03
  1.14590E+04  2.08082E+04 -1.21588E+04  1.60055E+04 -2.07070E+04  5.33640E+03 -1.42076E+04 -7.88483E+03
 -3.91444E+03 -1.78865E+04  1.22586E+04 -1.42342E+04  1.14719E+04 -1.47432E+03  3.90238E+03  1.22006E+04
 -8.11106E+03  4.54134E+03 -1.74599E+04  6.64224E+02 -7.80739E+02 -1.96668E+04  7.85220E+03 -2.73925E+04
  2.27269E+04 -9.14927E+03  2.97246E+04  5.19197E+03  2.41888E+04  1.41243E+04  9.24735E+03  3.13557E+04
 -5.17250E+03  3.20355E+04 -1.95174E+04  2.29395E+04 -2.54819E+04  6.13208E+02 -2.10092E+04 -8.24827E+03
 -9.15715E+03 -6.95419E+03 -6.46663E+02 -6.78741E+02 -3.57729E+03  5.53792E+02 -8.21734E+03  7.55687E+03
 -1.06974E+04 -5.19469E+02 -1.47109E+04 -1.58023E+04 -8.25744E+03 -1.50562E+04  3.59705E+03 -1.29254E+04
  6.93750E+03 -3.25585E+03  2.65452E+03  9.57576E+03  5.35805E+02  9.13394E+03 -3.70742E+03  3.61083E+03
 -5.99814E+03 -5.53336E+03  1.48113E+03 -1.87778E+04  7.90520E+03 -2.21112E+04  2.69561E+04 -8.72038E+03
  2.23747E+04  5.13622E+03  1.67483E+04  1.67145E+04 -3.17959E+02  1.07643E+04 -1.28853E+04  1.14889E+04
 -1.95315E+04  4.56074E+03 -1.26269E+03  4.64836E+03  6.72200E+03 -1.02934E+04  5.63179E+03  2.93855E+03
  9.69659E+03  4.92289E+03 -2.77651E+03  1.70650E+04 -6.86624E+03  9.05600E+03 -1.01704E+04  1.99076E+03
 -8.80352E+03  5.28213E+02 -5.84877E+03 -1.16514E+04  9.45684E+03 -7.53860E+03  8.29550E+03  2.51832E+03
  2.24101E+03  1.13823E+04 -8.02633E+03  1.31838E+04 -1.47193E+04  1.08147E+04 -1.97702E+04 -1.28033E+04
 -1.32700E+04 -1.67001E+04  1.03256E+04 -1.85352E+04  1.21107E+04 -5.73264E+03  2.60425E+04  2.74617E+03
  7.56892E+03  1.41966E+04 -2.55608E+03  1.06042E+04 -1.20330E+04  5.65685E+03 -1.11368E+04  2.82935E+03
 -1.29597E+04 -8.43725E+03 -4.03902E+02 -1.17551E+04  1.24809E+03 -8.33428E+03  1.17542E+04  4.98940E+02
  1.11176E+04 -2.64379E+03 -2.92347E+02  4.69073E+03  1.63123E+03 -1.47827E+03  4.81770E+03 -8.85136E+03
  6.66890E+03 -5.27858E+03  1.35646E+04  2.87810E+02  1.71507E+04  1.07337E+04  1.11635E+04  2.00913E+04
 -3.66404E+03  2.58620E+04 -1.92621E+04  1.22999E+04 -2.24088E+04  5.64424E+03 -2.65166E+04 -4.44072E+03
 -1.57332E+04 -1.37508E+04 -1.06927E+03 -1.31097E+04  5.36932E+03 -5.68061E+03  5.60135E+03 -8.02358E+03
 -1.25244E+02  6.41541E+03  3.19112E+03 -6.42544E+02  4.07947E+02 -3.18445E+02  6.92940E+03 -5.97568E+03
  9.32761E+03 -1.42950E+03  3.88722E+03  8.74364E+03 -9.33245E+02  1.70297E+04 -1.05783E+04  9.14624E+03
 -6.26580E+03 -2.68121E+03 -8.80654E+03 -3.62649E+03  7.23672E+02 -1.64519E+04  5.25916E+03 -1.91149E+04
  1.80852E+04 -5.95588E+03  1.94802E+04  2.14129E+03  6.96819E+03  1.16627E+04 -1.61306E+03  1.85124E+04
 -1.55757E+04  8.01071E+03 -8.14830E+03  1.00579E+02 -7.71546E+03  4.37657E+03 -8.82182E+03 -4.50215E+03
 -1.18832E+03 -4.37006E+03 -3.32678E+03  3.46689E+03 -1.20247E+04  2.73049E+03 -1.40517E+04 -1.77284E+03
 -1.07767E+04 -1.39755E+04  1.17163E+03 -1.44044E+04  1.22450E+04 -1.08481E+04  1.02169E+04 -6.21475E+03
  1.65011E+04  4.12230E+03  4.16034E+03  1.21723E+04 -6.92373E+03  1.40413E+04 -9.85234E+03  1.03571E+04
 -1.25747E+04  3.87133E+03 -1.07701E+04 -4.37105E+03  1.01386E+03 -1.48018E+04  1.01159E+04 -9.91263E+03
  8.43414E+03 -2.01522E+03  1.21041E+04  5.14529E+03  2.90317E+03  4.96299E+03  1.45053E+03 -1.21065E+03
  7.01518E+03 -4.28631E+03  1.52491E+03 -4.72920E+03  1.14608E+04  9.14636E+03  3.86317E+03  5.86957E+03
 -1.62451E+03  1.19070E+04 -1.02349E+04  8.50694E+03 -7.75402E+03  2.47803E+03 -1.75879E+04 -1.19837E+04
 -8.05662E+03 -1.56447E+04  3.80545E+03 -1.58164E+04  1.43694E+04 -1.25008E+04  1.55608E+04 -3.70848E+03
  1.37446E+04  9.54051E+02  1.87597E+03  1.18600E+04 -5.21015E+03  4.61284E+03 -4.33936E+03 -2.67041E+03
 -6.45031E+03 -6.06433E+03 -5.08477E+03 -6.87642E+03  8.67176E+03  3.49634E+03  7.56746E+03  1.85652E+03
  9.03145E+03  3.50196E+03 -2.60661E+03 -2.72598E+02 -2.68356E+03 -1.00815E+02  1.89676E+03  6.22007E+02
 -1.31390E+03  1.07993E+03  8.45004E+03  2.09949E+03 -1.10985E+03  4.45375E+03 -2.81539E+02  7.71802E+03
 -9.39375E+03  3.48154E+02 -9.69284E+03  2.19263E+03 -6.69837E+03 -6.83366E+03 -3.52583E+03 -7.69207E+03
  1.17234E+03 -7.15754E+03  5.62764E+03 -6.99322E+03  8.26715E+03  1.04827E+03 -3.00887E+03  1.09543E+04
  2.33636E+03  3.72393E+03 -4.12526E+03  2.83892E+03 -7.58494E+03 -9.78534E+03  2.02659E+03 -1.22431E+04
  7.89844E+03 -5.54018E+03  5.10790E+03  2.23423E+03 -6.98648E+02 -1.50885E+02  1.10749E+03  4.33161E+00
 -6.24187E+02  2.98031E+03 -2.25062E+03 -1.36104E+03  4.56241E+03 -6.66460E+03  9.80394E+03 -7.66194E+03
  6.12555E+03 -6.00339E+03  6.73073E+03  1.10840E+04  4.09610E+03  6.71720E+03 -3.39002E+03  9.90636E+03
 -1.17199E+04  2.23038E+03 -5.19712E+03 -3.30832E+03  4.99779E+03 -4.28779E+03  1.45094E+03 -1.06144E+04
  1.23594E+04 -9.30030E+02  6.75318E+03  2.26279E+03  8.81832E+02  3.53820E+03 -2.48127E+03  3.50211E+03
  1.68619E+01  4.22273E+03  2.98580E+03 -2.90379E+03  2.58163E+03 -3.56842E+02 -1.44388E+03  1.45142E+03
 -7.74888E+03  5.44325E+02 -9.31013E+03  3.45036E+03 -4.80732E+03 -7.78318E+02 -9.13953E+03 -4.35660E+03
 -8.58753E+03 -3.26940E+03  2.27656E+03 -1.44684E+04  9.32496E+03 -1.20876E+04  1.34473E+04 -1.48748E+03
  1.26388E+04  1.55015E+03  9.82639E+03  1.15147E+04 -1.68068E+03  7.68949E+03 -3.78658E+03  3.55497E+03
 -4.76098E+03  4.68721E+03 -4.50048E+03 -3.66767E+03  1.85651E+02 -7.68505E+02 -8.68611E+02  7.42355E+02
  1.84051E+03  4.61319E+03 -6.63204E+03 -1.12428E+03  1.60768E+03  1.18925E+03  6.74161E+03 -1.47123E+03
 -9.89666E+01 -7.15165E+02  9.49368E+03 -6.06997E+03  5.80063E+03  9.25554E+03  4.34041E+03  7.30283E+03
 -4.35235E+03  1.00207E+04 -1.27435E+04  5.45586E+03 -9.56088E+03 -1.56022E+03 -1.16954E+04 -8.56694E+03
 -8.32187E+02 -1.39987E+04  7.19406E+03 -1.73485E+03  4.62595E+03  8.93778E+02  7.55343E+03 -5.17623E+03
  5.71187E+03  3.39803E+03  6.75951E+02  1.62159E+03  7.55199E+02  5.02550E+02 -3.44327E+03  2.97615E+03
 -6.37790E+02 -1.70140E+03 -7.09591E+02 -5.49643E+02 -1.00059E+03  1.56660E+03 -2.24433E+03  1.03225E+03
 -1.00204E+04  2.40537E+03 -5.77090E+03 -7.19680E+03 -1.17332E+04 -4.75967E+03  1.74160E+03 -6.87267E+03
  1.27596E+04 -1.04280E+04  3.81428E+03 -4.84798E+03  8.66165E+03  2.13625E+03  4.14022E+03  3.31538E+03
  5.37879E+03  8.35311E+03  4.04056E+03  7.12742E+03 -8.11344E+03  1.01434E+01  2.61371E+03 -5.67306E+03
 -1.87410E+02  2.92788E+03 -2.69912E+02 -1.67485E+03 -2.77905E+02  5.62792E+02 -8.79833E+03  6.27167E+02
 -1.00685E+04  2.90403E+03 -3.05256E+03 -5.75238E+03 -1.54769E+03 -4.99357E+03  8.45737E+03 -4.00344E+03
  1.06835E+04  4.56552E+03  5.18056E+03  1.02152E+04  2.16674E+03  7.02106E+03 -1.38399E+03  4.70344E+03
