 $NMID ID='MM_0lb_SNR50_19hz_g60_99.RAW', FMTDAT='(8E13.5)'
 TRAMP=1., VOLUME=1. $END
  3.06690E+05  4.37208E+03  3.34684E+05  2.49974E+05  8.06240E+04  3.39366E+05 -1.30523E+05  2.51311E+05
 -1.84611E+05  8.13732E+04 -1.15292E+05 -3.49448E+04 -1.12681E+03 -4.82866E+04  5.45496E+04 -7.46326E+02
  3.12621E+04  5.38385E+04 -1.83671E+04  7.42336E+04 -5.75426E+04  6.33566E+04 -8.61358E+04  3.22197E+04
 -8.22089E+04 -1.42844E+04 -5.77804E+04 -5.06639E+04 -1.52054E+04 -7.03176E+04  2.65361E+04 -4.62014E+04
  4.22726E+04  1.81641E+03  1.48958E+04  4.83602E+04 -3.57107E+04  4.83486E+04 -6.52450E+04  1.46178E+02
 -5.32258E+04 -5.44864E+04 -8.16602E+03 -7.87636E+04  3.76836E+04 -5.17980E+04  4.61893E+04 -1.08707E+04
  4.43862E+04  1.07851E+04  2.82508E+04  2.38958E+04  1.78487E+04  2.75671E+04 -3.98501E+03  2.69210E+04
 -2.35295E+04  8.06140E+03 -1.70884E+04 -4.19144E+03  5.66125E+03 -5.00822E+03  2.00120E+04  1.04484E+04
  4.84264E+03  3.48657E+04 -2.99000E+04  3.38098E+04 -6.03544E+04 -6.87525E+02 -5.70943E+04 -4.45361E+04
 -1.23653E+04 -6.18539E+04  3.96167E+04 -4.21740E+04  5.36438E+04 -1.17306E+03  3.17358E+04  3.36390E+04
 -1.19942E+04  3.28045E+04 -2.92566E+04  1.62091E+04 -3.05142E+04 -4.72241E+03 -1.50379E+04 -1.24672E+04
 -7.45407E+03 -1.18636E+04 -3.67171E+03 -1.73202E+04  9.67565E+03 -1.89429E+04  1.61073E+04 -1.72139E+04
  1.00057E+04  2.23897E+03 -7.88348E+03  1.20454E+04 -2.31882E+04 -4.81204E+03 -9.39900E+03 -3.27158E+04
  2.04538E+04 -4.09884E+04  4.77584E+04 -1.72857E+04  4.51155E+04  2.06075E+04  1.64644E+04  3.92591E+04
 -2.08827E+04  3.57721E+04 -2.22952E+04 -2.20596E+03 -1.21494E+04 -2.27835E+04  1.64978E+04 -3.04850E+04
  4.06464E+04 -7.84077E+03  3.46006E+04  2.28527E+04  1.37672E+04  4.49177E+04 -7.89541E+03  4.96092E+04
 -3.14857E+04  3.35623E+04 -4.34814E+04  1.28277E+04 -4.29463E+04 -8.96306E+03 -2.01546E+04 -3.57432E+04
  5.63135E+03 -3.60535E+04  3.03887E+04 -1.62593E+04  2.71810E+04  1.22291E+04  4.39044E+03  1.64509E+04
 -1.49078E+04  9.80540E+03 -1.17740E+04 -8.75550E+03  7.77435E+03 -1.28511E+04  1.86221E+04  6.72214E+03
  6.65682E+03  2.39254E+04 -8.89189E+03  2.17372E+04 -1.76414E+04  3.45080E+03 -2.24988E+04 -3.05194E+03
 -1.45724E+04 -1.47538E+04 -8.72543E+03 -1.68153E+04  4.15011E+03 -1.50280E+04  1.28353E+04 -1.91126E+04
  2.34579E+04 -1.10016E+04  3.40158E+04 -6.31631E+02  2.18697E+04  1.95321E+04  2.68467E+03  3.54979E+04
 -1.60589E+04  2.97263E+04 -2.58596E+04  9.98494E+03 -2.07366E+04 -9.83625E+03 -2.53158E+03 -1.59921E+04
  3.58835E+03 -7.45107E+03 -2.61494E+03  5.45974E+03 -2.03559E+04  6.22396E+03 -1.29029E+04 -5.91259E+03
 -7.81449E+03 -1.86734E+04  1.28655E+03 -1.89269E+04  1.36341E+04 -1.67574E+04  1.25517E+04 -5.32313E+02
  9.39829E+03  1.05506E+04 -2.06849E+03  1.53076E+04 -9.62474E+03  1.20548E+04 -1.84456E+04  9.01680E+02
 -1.29992E+04 -1.40422E+04 -3.91135E+03 -2.11497E+04  8.58480E+03 -2.05081E+04  1.61249E+04 -8.39215E+03
  1.76871E+04  3.86534E+03  1.44588E+04  6.00166E+03  7.63448E+03  1.86814E+03  9.29171E+03 -1.30352E+03
  1.29501E+04  2.88030E+03  1.76124E+04  1.73529E+04  6.22396E+03  3.14159E+04 -4.38298E+03  2.70534E+04
 -1.46360E+04  2.27198E+04 -2.96851E+04  1.17081E+04 -2.60645E+04  8.83323E+02 -2.56690E+04 -1.68571E+04
 -1.30438E+04 -2.36358E+04  6.45785E+03 -2.25659E+04  1.81438E+04 -1.03583E+04  1.62743E+04  7.95047E+03
  5.36563E+03  1.37383E+04 -9.35032E+03  1.14448E+04 -1.25600E+04  3.99236E+03 -9.39175E+03 -5.08711E+03
  5.61690E+02 -1.20192E+04  1.94907E+03 -8.27876E+03  7.22993E+03 -3.48510E+03  4.52992E+02  5.24035E+03
 -1.43134E+03  2.90621E+01 -1.58771E+03 -1.03780E+03 -1.99704E+03 -1.10794E+04  4.53199E+03 -7.22823E+03
  1.16900E+04 -6.70552E+03  1.34620E+04 -1.75387E+03  9.05752E+03  1.05412E+04  7.06457E+03  1.14010E+04
 -1.87140E+03  1.60289E+04 -1.52812E+04  8.47963E+03 -1.09173E+04  2.72603E+03 -8.13595E+03 -5.69988E+03
 -4.34615E+03 -4.84121E+03  5.27744E+03  1.46942E+02  1.35492E+03  3.20857E+03 -1.15876E+02  2.99893E+03
 -5.95644E+03  8.11430E+02 -9.62580E+03 -8.43605E+03  2.50148E+03 -1.35249E+04  3.29581E+03 -7.70392E+03
  6.97333E+03  2.09938E+03  6.40270E+03  2.85319E+03 -1.22790E+03  1.99168E+03 -3.17489E+03 -2.54519E+03
 -4.69392E+03 -2.69576E+03 -5.18607E+03 -9.66305E+03  6.72580E+03 -4.67162E+03  8.49611E+03 -2.65768E+03
  1.25857E+04  7.99726E+03  7.30169E+03  4.80746E+03  3.33891E+03  6.58625E+03 -9.43429E+02  1.07752E+04
 -7.97807E+03  2.79654E+03 -7.15194E+03  2.33934E+03  1.57376E+03 -2.35376E+03  4.82274E+03 -3.33423E+03
  2.15664E+03  6.08814E+03 -1.35938E+02  8.54897E+03 -2.70588E+03  3.15343E+03 -1.08282E+04  7.33713E+02
 -4.63969E+03 -5.19668E+03  4.74587E+03 -6.34189E+03  5.57571E+03 -1.55551E+03  3.75518E+03  4.37547E+03
  9.16171E+02 -2.44784E+03 -6.49661E+03  3.98416E+02 -1.38032E+03  4.65918E+03 -2.95516E+03 -9.83516E+02
 -5.74244E+03 -6.39101E+03  2.06393E+03 -9.90683E+03  6.86365E+03 -3.48817E+03  1.13590E+04 -5.39409E+03
  6.14732E+03  6.35985E+03  1.26735E+03  6.18640E+03 -4.61336E+03  6.95529E+03 -6.15427E+03 -1.93879E+03
 -7.69859E+03 -3.19616E+03  3.66984E+02 -8.71048E+02  6.52461E+03 -4.77374E+03  2.06648E+03  4.97280E+03
  3.85568E+03 -2.27880E+03  1.97004E+03 -9.22259E+02  1.93775E+03 -5.32919E+02  5.63896E+03 -7.86230E+02
  4.79086E+03 -1.53066E+03  4.98769E+03  1.44217E+03  4.87517E+03  1.76691E+02  3.42634E+03  8.61402E+03
 -2.72119E+03  6.27255E+03 -7.15641E+03  6.47946E+03 -9.63053E+03  8.25160E+02 -6.10555E+03 -2.78351E+03
 -6.78790E+02 -6.70864E+03 -3.20963E+03 -5.46818E+03 -2.91010E+03 -2.00785E+03  3.10442E+03 -5.38651E+03
 -6.20074E+02 -5.53413E+02  4.68952E+03  1.09976E+03  5.15938E+03 -1.47007E+02 -1.01676E+03 -1.42777E+03
  1.54405E+03 -6.91368E+02  1.04417E+04  3.32952E+03 -2.11379E+03  4.99127E+02 -9.13749E+03  1.72354E+03
 -3.98223E+03 -1.49252E+03 -5.98064E+03 -5.35655E+03 -6.58331E+01 -1.90928E+03 -5.88387E+02 -9.91457E+03
  3.98954E+03 -2.27335E+03  7.58703E+03  3.07863E+03  4.15670E+03  6.89908E+03  3.34271E+03  5.51728E+03
 -1.97813E+03  6.36172E+03 -1.73161E+03  2.35893E+03  2.23164E+03  1.23965E+03 -7.07192E+02 -4.84499E+01
  2.28656E+03  1.93795E+03 -6.42201E+02  4.37531E+03 -6.38162E+01 -6.17145E+02 -4.60498E+03 -3.28469E+03
  2.16491E+02 -3.47461E+03 -5.84699E+02 -5.03696E+03  2.26145E+03 -4.53166E+03  7.67070E+03  4.06542E+03
  2.76161E+03  2.75303E+03  2.19633E+03  2.02114E+03  1.27291E+02  5.44315E+03 -6.02907E+03  3.21793E+03
 -6.22105E+03  3.22724E+03 -4.07374E+03  7.73237E+01  7.62368E+02 -2.03437E+03  9.39369E+02  1.02983E+03
  1.01718E+03 -2.86243E+03  4.76163E+03 -9.48302E+02  2.62337E+03  3.68495E+03 -2.24791E+03  2.52210E+02
  1.11321E+03  4.09567E+02 -3.11941E+03  5.10296E+02  9.03403E+02  4.00723E+03  1.73972E+03 -1.67969E+03
 -1.00601E+03  2.37429E+03 -1.86568E+03 -9.59942E+02 -9.28019E+02 -2.13145E+03 -2.80753E+03 -2.24427E+02
 -4.62658E+03 -6.04348E+03  1.73284E+03 -2.99474E+03  2.53977E+03 -3.02907E+03  4.76401E+03 -2.73831E+02
  1.82841E+03  7.13114E+03 -2.95402E+03  3.49995E+03 -2.48263E+03 -1.27543E+03 -3.04276E+03 -2.61444E+02
  1.11189E+03  1.75293E+03 -1.20702E+03 -5.86711E+02  2.63476E+03 -1.89877E+03  1.48391E+03  4.69696E+03
  8.67197E+03  1.67365E+03 -3.10913E+03  5.43484E+02  2.19337E+03  2.00669E+03 -2.10143E+03 -5.90151E+02
  2.97737E+03 -2.41283E+03  3.98800E+03  4.48896E+03 -3.28456E+02  3.56343E+03 -1.54715E+03  1.01834E+03
 -3.04441E+03 -5.73650E+02 -3.17395E+03 -3.62672E+03 -3.27265E+03 -2.89927E+02  2.59130E+02 -8.34409E+02
 -2.00638E+03 -5.35838E+02  2.72097E+03 -2.67240E+03 -4.66445E+03  2.45488E+03 -8.27736E+02  2.67885E+03
 -2.12802E+03  2.88874E+03  1.46321E+02 -1.51802E+03 -3.80080E+02 -6.67805E+02  1.08539E+03 -2.85594E+03
  1.46672E+02  3.33610E+03  2.38865E+03 -1.76964E+03  1.39084E+03 -1.46736E+02  2.86650E+03 -1.30645E+03
 -1.92918E+03 -2.75432E+03 -1.31426E+03  1.98081E+03 -1.82566E+03 -3.38145E+03  2.26193E+03 -1.49598E+03
 -6.44686E+02  3.89379E+03  3.72951E+03 -2.48755E+03  4.23550E+03 -5.12747E+02 -3.13378E+03 -3.10683E+02
 -2.44845E+03 -3.33028E+03 -3.65815E+02 -1.98374E+01 -8.92062E+02  8.23411E+02 -1.21836E+03 -6.71118E+03
  2.60123E+03  2.32113E+02  1.51847E+03  4.53480E+03  4.25897E+03  3.89296E+03  1.21253E+03 -7.42047E+02
 -4.18885E+03  3.11075E+02 -1.58328E+03  1.35289E+03  7.25084E+02 -3.47930E+03 -8.58484E+02 -5.68382E+02
 -3.90084E+03  3.47981E+03  1.19280E+03  9.66954E+02 -3.71668E+03 -1.22627E+03 -4.49459E+02 -1.53701E+03
 -1.43244E+03 -3.78943E+03 -6.24038E+03 -2.53879E+03  3.49965E+03 -2.68877E+03  2.75041E+03 -3.14495E+03
  2.63698E+03 -1.75145E+03  7.28130E+02  1.62240E+02  4.15100E+03  3.61971E+03 -1.57274E+03 -3.78217E+03
 -5.70342E+02  1.56567E+03 -4.27686E+03  2.02877E+03  2.00917E+03  1.37831E+02 -1.57216E+03  8.94993E+02
  1.27924E+03 -5.03861E+03 -1.30695E+03 -1.12267E+03  2.88293E+03  1.47546E+02 -1.80794E+02 -2.36348E+03
 -3.46691E+03  1.06321E+03  2.98477E+03  3.17689E+03  6.19634E+03  1.45170E+03 -3.98918E+03  4.51337E+03
  2.72868E+02  2.44349E+03 -4.62065E+03  4.79005E+02 -1.45450E+02  1.28327E+03 -3.45288E+03  1.94377E+03
  4.39589E+02 -6.69888E+02  8.75000E+02 -2.35728E+03 -2.22724E+03 -3.93665E+03  4.25641E+03  3.27468E+03
  5.85551E+02  2.24129E+03 -5.78211E+02  1.51539E+01 -2.64737E+03 -9.62331E+02 -2.72160E+02  4.09729E+00
 -1.06358E+03 -4.45545E+01  6.32668E+02  2.04627E+03  1.36464E+03 -6.68234E+02  1.04569E+03  1.59877E+03
 -2.10185E+03  3.35594E+02 -5.11820E+02  1.37700E+03 -7.53078E+02 -7.20686E+02  1.07036E+03 -5.01911E+02
 -2.01164E+03  6.63755E+01  6.48107E+01  1.04956E+03  1.25589E+03 -1.61335E+03  2.84904E+03 -1.02157E+03
  1.39410E+03  1.12180E+03  9.91394E+02  4.15143E+03 -3.86528E+03  2.71838E+03 -2.83049E+03 -4.95210E+02
  1.13201E+03 -1.60186E+03  1.24031E+03  2.99546E+03 -2.69145E+03 -1.89718E+03  3.43201E+03  1.52940E+03
 -9.34197E+02  1.00781E+03 -1.32305E+03 -3.43118E+03  5.11549E+03 -3.02191E+02  1.24138E+03 -1.60601E+02
  3.67151E+03  9.76121E+02  1.89363E+03  1.09372E+03  2.36634E+03 -8.68897E+02  1.34976E+03  1.32960E+02
