 $NMID ID='MM_0lb_SNR50_20hz_g55_62.RAW', FMTDAT='(8E13.5)'
 TRAMP=1., VOLUME=1. $END
  3.09357E+05  3.01170E+02  3.38270E+05  2.50640E+05  8.31712E+04  3.36873E+05 -1.31811E+05  2.47099E+05
 -1.92790E+05  8.42835E+04 -1.13806E+05 -2.97445E+04 -2.65661E+03 -4.45200E+04  5.60219E+04 -2.85012E+03
  3.37258E+04  5.27147E+04 -1.98127E+04  7.58626E+04 -5.80737E+04  6.12508E+04 -8.42311E+04  2.71260E+04
 -7.97111E+04 -1.39524E+04 -5.76897E+04 -4.89574E+04 -1.43042E+04 -7.35330E+04  3.04309E+04 -4.26559E+04
  3.57659E+04  5.10804E+03  1.54998E+04  4.95123E+04 -3.57910E+04  4.62045E+04 -6.37031E+04 -3.97121E+03
 -4.88479E+04 -5.72338E+04 -6.93170E+03 -7.78145E+04  3.21221E+04 -5.24080E+04  4.44415E+04 -1.62482E+04
  4.37660E+04  7.84013E+03  3.23886E+04  2.66668E+04  1.80255E+04  2.89266E+04 -4.25179E+03  2.48959E+04
 -2.23218E+04  1.40310E+04 -1.80415E+04 -2.90186E+03  1.78798E+03 -6.33256E+03  2.32517E+04  1.39748E+04
  7.44472E+03  3.35512E+04 -3.15641E+04  3.04745E+04 -5.88745E+04  2.56057E+03 -5.12306E+04 -3.78846E+04
 -1.00972E+04 -5.92104E+04  3.67908E+04 -4.30238E+04  5.69921E+04 -3.18792E+03  3.22697E+04  2.85310E+04
 -7.02528E+03  3.18928E+04 -2.68416E+04  1.10694E+04 -2.97975E+04  4.95450E+02 -9.43702E+03 -8.72780E+03
 -7.09284E+03 -1.15284E+04  1.47205E+03 -1.96146E+04  6.83867E+03 -2.32444E+04  1.33537E+04 -1.45746E+04
  1.43333E+04  5.80387E+03 -8.43117E+03  1.42000E+04 -1.73682E+04 -9.52475E+02 -9.88666E+03 -2.98657E+04
  1.92446E+04 -4.30297E+04  4.90549E+04 -1.65113E+04  4.46465E+04  1.62736E+04  1.48716E+04  4.31593E+04
 -1.36507E+04  3.48934E+04 -2.06819E+04 -1.08498E+03 -1.18326E+04 -2.61895E+04  2.00555E+04 -3.23309E+04
  3.74411E+04 -1.03863E+04  3.27490E+04  2.29082E+04  1.26893E+04  4.24071E+04 -8.34055E+03  4.42072E+04
 -2.51817E+04  3.13418E+04 -3.90387E+04  1.00962E+04 -3.72028E+04 -1.51780E+04 -2.21109E+04 -3.66815E+04
  9.04017E+03 -3.65610E+04  2.79467E+04 -1.18372E+04  3.14523E+04  1.43346E+04  4.44672E+03  1.62032E+04
 -1.37733E+04  6.02042E+03 -6.65376E+03 -4.84610E+03  5.26935E+03 -1.18991E+04  1.74699E+04  5.53799E+03
  9.88721E+03  2.19105E+04 -6.05944E+03  2.49039E+04 -2.09036E+04  1.02646E+04 -2.07895E+04 -5.44613E+03
 -1.77185E+04 -1.65464E+04 -9.56070E+03 -1.65847E+04  3.47028E+03 -1.23948E+04  8.94620E+03 -1.81983E+04
  2.13289E+04 -1.31744E+04  2.97465E+04 -1.80785E+03  2.27706E+04  1.43335E+04  8.12769E+03  3.22382E+04
 -1.49459E+04  2.45247E+04 -2.68287E+04  1.00660E+04 -1.67721E+04 -1.28279E+04 -5.82579E+03 -1.22480E+04
  3.79483E+03 -5.30215E+03 -5.85378E+03  7.94424E+03 -1.35886E+04  3.91768E+03 -1.39981E+04 -1.78014E+03
 -1.16227E+04 -1.57909E+04  4.61418E+03 -1.97718E+04  1.13779E+04 -1.36885E+04  1.52209E+04 -2.24878E+03
  7.60668E+03  1.30527E+04 -5.87009E+00  1.05215E+04 -1.37193E+04  1.18805E+04 -1.77515E+04 -1.68146E+03
 -8.75104E+03 -1.73502E+04 -4.35243E+02 -2.25270E+04  8.24744E+03 -1.68629E+04  1.53623E+04 -4.77203E+03
  1.15272E+04  5.06758E+02  8.85957E+03  1.44318E+03  8.87130E+03  7.68627E+02  9.50780E+03  1.69267E+03
  1.60921E+04  2.03959E+03  1.03897E+04  1.31011E+04  7.86831E+03  2.49539E+04 -2.30895E+03  2.23097E+04
 -1.19707E+04  2.02180E+04 -2.46302E+04  1.07721E+04 -2.34445E+04 -3.98451E+03 -1.82189E+04 -1.62921E+04
 -1.29355E+04 -2.06437E+04  4.50590E+03 -1.78776E+04  1.39586E+04 -9.84172E+03  1.55922E+04  2.70748E+03
  1.24521E+04  9.27591E+03 -7.76365E+03  1.25248E+04 -1.36401E+04  3.11041E+02 -1.21589E+04 -5.58376E+03
  2.60625E+03 -9.54477E+03  6.35125E+03 -6.43253E+03  8.65279E+03 -9.24256E+00  1.63099E+03  3.58618E+03
 -6.24141E+03  1.23718E+03 -6.85164E+03 -5.81143E+03  2.48720E+03 -1.25049E+04  5.96258E+03 -8.51194E+03
  1.26321E+04 -3.92553E+03  1.56661E+04 -6.73784E+02  9.49589E+03  1.07166E+04  7.82640E+03  1.41338E+04
 -8.03243E+02  1.29616E+04 -9.24604E+03  8.27181E+03 -8.07228E+03  5.45552E+03 -6.83579E+03 -2.48776E+03
 -2.90617E+03 -5.75981E+03 -2.61828E+03  1.13933E+03 -3.74427E+03  8.21160E+02 -2.94712E+03  1.55032E+03
 -1.27754E+04  7.05373E+01 -9.79792E+03 -4.00124E+03 -1.98581E+03 -1.42776E+04  1.53660E+03 -4.49203E+03
  7.84917E+03 -2.59339E+03  3.57990E+03  1.83433E+03  3.12434E+03  6.48831E+03 -7.92592E+03  2.07961E+03
 -1.81693E+03 -4.75393E+03  2.24938E+03 -3.78601E+03  2.42761E+02 -6.60753E+03  9.35063E+03 -8.11342E+03
  1.02818E+04  4.16604E+03  1.08476E+04  8.12834E+03 -5.78897E+02  8.26158E+03 -5.83888E+03  4.92440E+03
 -7.32504E+03  6.52174E+03 -3.76278E+03 -2.11158E+03  1.47859E+03 -1.35092E+03  7.22577E+03 -6.57296E+03
  3.50788E+02  1.86091E+03  3.45579E+03  7.43426E+03 -2.57151E+03  5.57266E+03 -1.00369E+04  4.90965E+02
 -6.78135E+03 -6.00269E+02 -1.37230E+03 -6.41864E+03  3.13976E+03 -2.90836E+02  4.52398E+03  1.92499E+03
  3.54283E+02  4.06971E+03  8.55260E+02  3.59837E+03 -5.07926E+03  1.72963E+03 -6.04293E+03  3.54986E+02
 -1.24776E+03 -3.84662E+03 -2.04502E+03 -7.51874E+03  3.58555E+03 -1.83470E+03  6.11567E+03 -2.37156E+03
  5.27324E+03  8.44882E+03 -4.05210E+02  4.65450E+03 -5.22038E+03  2.43393E+03 -5.86209E+03 -8.78889E+02
 -8.39340E+03 -3.71971E+03 -2.04113E+03 -8.64702E+03  5.56060E+03 -4.27484E+03  6.98598E+03 -1.28766E+03
  4.41759E+03 -9.19591E+02  1.25546E+03  1.54614E+03 -1.17774E+03 -5.05740E+02  1.28060E+03  4.59574E+02
  5.59295E+03  1.88666E+03  3.53987E+03  1.91161E+03  8.23379E+03  4.16443E+03  3.80502E+03  6.94572E+03
  4.99221E+03  1.05221E+04 -6.25410E+03  4.54878E+03 -9.61875E+03  1.08794E+01 -6.75486E+03 -2.67636E+01
 -1.11598E+03 -4.85959E+03  1.02610E+03 -3.41333E+03  3.51722E+03 -3.72197E+02 -5.47210E+02  1.53921E+03
  3.64775E+03 -1.53739E+03  7.23169E+03  3.44934E+01  3.10330E+03 -2.56391E+03  2.07138E+03  1.65212E+03
  3.60767E+03 -5.72665E+02  2.56326E+03  3.67258E+03  1.50562E+03  3.02098E+03 -5.81283E+03  2.47273E+03
 -7.96106E+03 -3.59373E+03 -3.34327E+03 -2.45183E+03 -9.08732E+02 -5.22228E+03  3.02913E+03 -4.57352E+03
  6.90412E+03  2.10822E+03  5.53566E+03 -2.10987E+03  4.83254E+03  2.61129E+03  3.22527E+03  9.25345E+03
  4.53803E+02  4.97184E+03 -6.21861E+03  3.02197E+03 -2.00832E+03 -1.39740E+03 -9.04212E+02  5.86523E+02
 -1.97565E+03 -1.46836E+03  4.10175E+01  2.17249E+02 -5.23684E+03  4.85407E+03 -6.03545E+03  3.39710E+03
 -2.70334E+03 -1.88479E+03 -3.06898E+02  3.26110E+03 -1.22744E+03 -3.91520E+03  2.18503E+03  2.25623E+03
  1.16164E+03  2.48924E+03 -8.50728E+01  4.66129E+03  1.08706E+03  1.11725E+03 -4.35621E+03  3.10848E+03
 -6.03193E+03 -2.34387E+03 -3.31164E+03  1.44675E+02 -2.56735E+03 -7.70920E+03  5.00219E+03 -2.22386E+03
  1.39367E+03  1.83638E+03 -1.74056E+03  2.16475E+03  2.09225E+03 -2.18047E+03 -1.65580E+02  3.63503E+03
  3.77745E+03 -6.00189E+02  1.09592E+03 -5.73624E+02  7.58415E+02  5.92786E+03  4.33370E+03  1.57891E+03
 -3.14098E+03  6.97965E+03 -3.94634E+03  4.06775E+03 -5.45254E+03  5.03145E+03 -2.59006E+03  1.64310E+03
 -2.35912E+03 -1.98981E+03  1.84842E+03 -2.72339E+03  4.64291E+03 -1.92134E+03  5.37840E+02  5.18931E+03
 -3.55946E+02  3.61711E+03 -4.15384E+03  3.87844E+03 -1.83757E+03 -8.18485E+02  5.67359E+02 -4.88676E+03
  3.24490E+03 -3.22843E+03  3.64867E+03 -1.88588E+03  6.37160E+03 -3.12803E+03  1.56462E+02 -6.40473E+01
  3.28603E+02 -5.13801E+01  5.24342E+02 -2.05098E+01  5.01253E+03 -2.04258E+02  2.63314E+03 -1.06936E+03
 -3.11375E+03  1.89892E+03  3.24717E+03 -2.80419E+02  1.73814E+03  5.29544E+03  1.81307E+03  3.40864E+03
 -2.07832E+03 -1.23885E+03 -3.60332E+03 -3.79243E+03  1.11583E+03  1.77151E+03  1.20671E+03  3.91222E+02
  1.95055E+03 -2.26392E+03  3.31689E+03 -4.68830E+03 -1.63310E+03  2.53211E+02 -1.26541E+03  2.32951E+03
 -6.56986E+02 -8.10695E+02  2.90085E+03 -2.72641E+03 -7.75274E+02 -1.51006E+03  1.18442E+03 -1.01826E+03
  1.67812E+02  4.66166E+02 -1.61731E+02  3.29095E+03 -1.96355E+02  1.65927E+03  3.61250E+03 -9.00312E+02
  4.30778E+02 -1.15484E+03 -5.76084E+02  2.45894E+02  2.06302E+03 -7.37877E+02  1.96344E+03  2.61280E+03
  1.62669E+03  1.82408E+03  2.42775E+03 -6.14560E+02  1.21426E+03 -2.16806E+03  5.41953E+03 -6.42053E+02
 -1.19668E+03  1.43133E+01  1.35202E+03 -3.66322E+03 -2.56430E+03 -2.21198E+03 -3.24746E+03 -6.10475E+01
  9.55717E+02 -2.80819E+03  2.73378E+03 -5.91280E+02 -1.42414E+03  6.53306E+02 -3.60824E+02 -2.14444E+02
 -1.66915E+03  8.49068E+02  1.54878E+03 -3.97860E+02 -7.77016E+02 -5.66824E+02 -5.32285E+02 -8.46508E+02
  5.16448E+02 -2.78280E+02 -6.87570E+02 -3.10982E+03 -3.38799E+01  1.28505E+03 -3.52159E+03  2.36427E+02
  1.10278E+03 -8.65086E+02 -2.96083E+03 -4.41418E+03  9.44708E+02 -1.77886E+03  3.09216E+02  4.58201E+02
 -7.48996E+02 -7.95541E+02 -6.07794E+02  1.81850E+03 -4.99108E+01  1.27650E+03  1.57431E+03 -1.09824E+03
 -1.75014E+03 -3.12729E+00 -1.25470E+03 -3.23716E+03  1.48672E+03 -1.23347E+00 -8.05918E+02  2.53681E+03
 -4.36282E+03 -5.60685E+02  4.39691E+03  1.72945E+03 -9.45470E+01 -3.60176E+03 -1.54234E+03  4.57052E+03
  3.78220E+03  1.30648E+03  2.41286E+03  5.05753E+02  1.04053E+03 -2.00910E+03  1.11391E+02  1.72066E+03
  3.25601E+02  2.46934E+03 -3.92935E+03  2.86301E+03  1.39536E+03  5.89042E+03  1.38635E+03 -1.55938E+03
 -3.62664E+03 -1.42519E+03 -1.51012E+02 -2.27219E+03  3.93220E+02  3.07681E+03  4.19228E+01  1.66882E+03
  2.26329E+03 -5.48095E+02 -4.23699E+03 -2.78349E+03  2.52105E+02  2.84598E+03 -7.64411E+02 -2.37771E+03
  8.85259E+02  6.34487E+02  2.61158E+03 -1.30927E+03 -2.28041E+03 -2.57297E+03 -1.57162E+03 -5.50844E+02
  3.09667E+02 -3.02949E+01 -3.87825E+02 -1.05701E+02  1.30971E+03 -9.51268E+02  4.32344E+02 -5.57827E+02
  1.20664E+03 -3.26487E+03  2.98130E+02  2.11393E+03 -8.81217E+02  1.24182E+03  3.15035E+03 -1.10776E+03
  5.41878E+02 -3.12435E+03  9.94537E+02 -1.78627E+03  1.44128E+03  4.35411E+02 -1.99026E+03  8.36405E+01
 -8.12213E+02  1.67976E+03  1.75935E+03  1.10768E+03  2.24222E+03  4.80465E+01  2.67667E+03 -1.30813E+03
 -1.54823E+03  9.19882E+02 -7.49031E+02 -3.88877E+03  4.57099E+03 -1.34640E+03  4.35307E+03 -8.50987E+02
 -6.35871E+02 -2.31658E+03  1.96113E+02 -1.78777E+03 -5.44108E+02  4.17021E+02  1.55259E+03  8.83980E+01
