 $NMID ID='MM_0lb_SNR50_20hz_g40_60.RAW', FMTDAT='(8E13.5)'
 TRAMP=1., VOLUME=1. $END
  3.09303E+05  2.08985E+03  3.35364E+05  2.52353E+05  8.70115E+04  3.36493E+05 -1.32990E+05  2.50428E+05
 -1.89198E+05  8.19842E+04 -1.09912E+05 -2.81197E+04  2.90704E+03 -5.17289E+04  4.98009E+04  2.36287E+03
  3.50903E+04  5.53664E+04 -1.42087E+04  7.33465E+04 -6.00654E+04  6.13227E+04 -8.14936E+04  2.81162E+04
 -7.96826E+04 -1.30757E+04 -5.63886E+04 -4.96784E+04 -1.44761E+04 -6.62896E+04  2.98815E+04 -4.12115E+04
  3.84591E+04  5.15966E+03  1.19236E+04  4.70117E+04 -3.31408E+04  4.70421E+04 -6.49289E+04 -9.79005E+02
 -5.30053E+04 -5.52363E+04 -7.44284E+03 -7.24681E+04  3.58565E+04 -5.10534E+04  4.70089E+04 -1.04760E+04
  4.19143E+04  8.37441E+03  3.38076E+04  2.74314E+04  1.50592E+04  2.55442E+04 -6.18433E+03  2.74686E+04
 -2.20984E+04  1.07309E+04 -1.54046E+04 -5.40318E+03  3.21561E+03 -4.74107E+03  2.19280E+04  9.78954E+03
  5.40666E+03  3.34412E+04 -2.85525E+04  3.34438E+04 -6.04884E+04  2.44599E+03 -4.96516E+04 -3.82669E+04
 -1.72720E+04 -6.11334E+04  3.42933E+04 -4.23920E+04  5.25190E+04 -1.40384E+03  3.22588E+04  2.79111E+04
 -7.68378E+03  2.69541E+04 -2.96161E+04  1.35514E+04 -2.57611E+04 -7.20498E+03 -1.58674E+04 -1.04660E+04
 -1.17827E+04 -1.08245E+04  4.83926E+02 -1.45149E+04  6.77421E+03 -1.91834E+04  1.49419E+04 -1.36513E+04
  1.01905E+04  4.59546E+03 -7.31789E+03  1.40324E+04 -1.90627E+04 -1.69488E+03 -1.01830E+04 -2.50611E+04
  1.64015E+04 -3.97573E+04  4.29221E+04 -2.09400E+04  4.07595E+04  1.72082E+04  1.54294E+04  4.31538E+04
 -1.62596E+04  3.08163E+04 -2.06035E+04  1.31384E+02 -4.91674E+03 -2.71357E+04  2.13869E+04 -3.14637E+04
  3.87903E+04 -9.69438E+03  2.87064E+04  2.14150E+04  1.12661E+04  4.04606E+04 -3.33247E+03  3.83876E+04
 -2.22623E+04  2.65940E+04 -3.45312E+04  7.34261E+03 -3.70057E+04 -1.62112E+04 -1.87053E+04 -3.24213E+04
  4.14168E+03 -2.80773E+04  2.94906E+04 -1.30362E+04  2.68644E+04  1.13996E+04 -9.62857E+01  1.54408E+04
 -1.48831E+04  5.33735E+03 -8.90620E+03 -5.38916E+03  4.65314E+03 -6.74018E+03  1.97352E+04  8.86412E+03
  1.48047E+04  2.33248E+04 -5.69851E+03  2.19239E+04 -1.96207E+04  1.01094E+04 -2.45935E+04 -6.01082E+03
 -1.54287E+04 -1.69756E+04 -7.46817E+03 -1.68345E+04  4.57467E+03 -1.41612E+04  1.00470E+04 -1.40369E+04
  1.84165E+04 -9.58973E+03  2.90759E+04  7.08827E+03  1.71946E+04  1.52948E+04  7.68761E+03  3.16346E+04
 -1.82592E+04  2.96119E+04 -2.39924E+04  7.02159E+03 -1.52579E+04 -1.06002E+04 -4.01191E+03 -1.47147E+04
  2.11328E+03 -2.95654E+03 -4.63251E+03  2.69586E+03 -1.57705E+04  4.84028E+03 -1.29589E+04 -6.98665E+03
 -8.96032E+03 -1.03893E+04  1.12118E+02 -1.73442E+04  9.16910E+03 -1.35983E+04  1.45455E+04 -3.44120E+03
  8.95085E+03  7.90617E+03 -2.04083E+03  1.21783E+04 -8.90965E+03  7.71610E+03 -1.75349E+04 -3.77694E+03
 -1.14976E+04 -1.26837E+04 -1.05305E+03 -1.73374E+04  8.99630E+03 -8.31672E+03  1.52309E+04 -4.87292E+03
  1.00473E+04  4.70635E+03  1.16384E+04  6.27159E+03  7.83869E+03 -1.97254E+02  5.75747E+03  1.12742E+03
  1.12237E+04  3.01632E+03  1.30039E+04  1.37185E+04  4.22658E+03  2.46294E+04 -3.85835E+03  1.92296E+04
 -1.54739E+04  1.72051E+04 -2.20097E+04  9.31006E+03 -2.02864E+04 -4.57441E+03 -1.72512E+04 -1.35145E+04
 -8.47922E+03 -1.66323E+04  7.89746E+03 -1.52802E+04  1.69083E+04 -1.01323E+04  1.10909E+04 -7.69920E+02
  7.52834E+03  7.03638E+03 -5.84600E+03  1.05188E+04 -1.24661E+04  6.79296E+03 -1.04743E+04 -3.84482E+03
  1.42141E+03 -1.15845E+04  4.50048E+03 -9.78490E+03  9.95889E+03 -2.16189E+03  5.46287E+02  6.25211E+03
 -7.13278E+02 -2.25397E+03 -7.16282E+03 -4.60118E+03 -3.86605E+02 -1.51387E+04  8.22263E+03 -8.76154E+03
  7.93177E+03 -4.77600E+03  1.26221E+04 -5.13733E+03  1.00520E+04  7.45911E+03  5.98190E+03  9.67676E+03
 -3.85377E+03  1.09769E+04 -1.05818E+04  7.07460E+03 -5.96303E+03 -1.39282E+03 -4.95608E+03 -1.82772E+03
 -2.68016E+03 -3.20206E+03 -5.18914E+02  3.10007E+03 -4.27760E+03  1.26243E+03 -7.00831E+03  5.88027E+03
 -7.43358E+03  1.16922E+03 -9.66824E+03 -3.70842E+03 -7.32890E+03 -7.29347E+03  4.35424E+03 -4.40457E+03
  6.95658E+03 -2.38178E+03  6.38963E+03  1.71806E+03 -1.74768E+03 -2.77690E+03 -1.45342E+02  1.32785E+03
 -2.88516E+03 -6.22591E+03  4.90200E+02 -7.09994E+03  1.35189E+02 -9.59474E+03  6.11873E+03 -7.00639E+03
  8.84518E+03 -3.85702E+03  5.41492E+03  3.68074E+03  2.85209E+03  9.15296E+03 -4.84098E+03  4.85129E+03
 -2.12499E+03  3.87625E+03 -2.57287E+03 -1.68012E+03  4.06987E+03  3.65278E+01  5.51405E+03 -1.44928E+03
  3.09048E+03  1.64489E+03  3.52721E+03  5.68345E+03 -9.02997E+03  5.58791E+03 -4.46191E+03 -2.89705E+02
 -7.57729E+03 -5.20219E+02  4.94013E+02 -1.70549E+02  1.28832E+03  1.92882E+03  3.38611E+03  1.43454E+03
  9.11762E+02  3.29009E+03 -3.00542E+03  6.73562E+03 -1.80149E+03  8.81953E+02 -1.77105E+03 -2.84905E+03
 -3.39527E+03 -3.09248E+03  3.05235E+03 -4.88469E+03  8.58343E+03 -4.36217E+03  6.84531E+03 -3.79587E+02
  4.10787E+03  5.45643E+03  1.09866E+03  7.24525E+03 -7.13033E+02  7.49252E+02 -4.23657E+03 -6.43259E+01
 -7.32773E+03 -5.21140E+03 -2.52186E+03 -3.25358E+03  3.00528E+03 -4.17531E+03  1.68304E+03 -1.62740E+03
  3.87405E+03  3.91306E+03  1.52567E+03  9.60745E+02  3.85209E+02  1.87032E+03 -3.00897E+03 -3.31004E+03
  4.79935E+03 -6.14828E+02  5.02527E+03 -4.08841E+02  4.47810E+03  4.85933E+03  3.62936E+03  1.81082E+03
  2.05627E+03  7.04963E+03 -5.44839E+03  6.96366E+03 -4.54793E+03 -2.49538E+03 -7.55244E+03 -3.47487E+03
 -6.00517E+03 -1.89734E+03  6.95387E+02 -4.80677E+03  4.50024E+02 -2.60658E+03 -3.20422E+03 -6.86726E+02
  1.42258E+03 -2.71429E+03  1.09390E+03 -1.90931E+03  4.90557E+03 -2.32264E+03  3.88679E+03 -3.33172E+03
  3.28443E+03  1.25690E+03  1.56758E+03  7.86782E+03 -2.93718E+03  3.21863E+03 -4.75741E+03  1.29907E+03
 -1.93174E+03 -2.19093E+03 -1.43463E+03  2.83224E+02  3.46884E+03 -4.93200E+02  2.56657E+03 -4.20877E+03
  2.13069E+03 -3.86657E+03  7.80541E+03  5.45404E+03  8.10652E+03  2.85039E+03 -1.99011E+03  7.02001E+03
  9.13048E+02  4.70270E+03  1.75829E+03  2.75170E+03 -2.38025E+02 -1.89242E+03 -8.87479E+02 -2.38036E+03
  2.25582E+02  2.23312E+03 -2.41818E+00  1.47791E+03 -2.04576E+03 -1.49833E+02 -2.28787E+03 -4.02343E+03
  9.81788E+02 -3.45561E+03  7.99116E+02 -5.16967E+03  4.68212E+03 -3.14487E+03  2.17903E+03 -1.37355E+03
  5.14575E+03  4.13768E+03  4.23546E+03  1.20332E+03 -3.64781E+03  2.56890E+03 -1.28847E+03  2.99493E+03
 -3.57823E+03  3.50990E+03 -5.64198E+02 -2.27052E+03 -3.59054E+02 -5.35996E+03  8.50372E+02 -2.66951E+03
  3.46409E+03 -1.65156E+03 -2.34780E+03 -1.01178E+03  4.03157E+03 -3.74935E+03  2.41988E+03 -5.32784E+02
  5.67550E+02 -1.93198E+03 -7.96995E+02 -2.37314E+02  1.92588E+03 -6.65439E+02  7.09382E+02  4.78278E+03
  1.41842E+03  5.13542E+03 -3.94437E+03  2.95314E+03 -6.47537E+02  3.81511E+03 -2.20751E+03 -2.94556E+03
  3.35559E+03  4.68199E+02  1.04939E+03 -6.58467E+03  1.53484E+03  9.79295E+01  4.80802E+03 -4.11932E+03
  7.61831E+02  4.90903E+02 -1.18739E+03  4.87426E+03 -4.00908E+03  2.56492E+03 -1.86927E+03  1.45377E+03
  1.04611E+03 -7.12974E+02 -6.15937E+02 -1.00023E+03  1.58230E+03  2.20183E+03  9.45528E+02 -2.87480E+01
  1.18134E+02  2.79841E+03  2.41527E+03 -7.83925E+02 -1.59440E+03 -2.21034E+03  4.64903E+03 -2.58218E+03
 -1.50762E+03  2.78336E+03  3.57848E+03  2.36651E+03 -4.04057E+01  1.74250E+03 -4.19930E+03  3.35798E+03
 -7.12339E+02  9.92983E+02 -2.98253E+03 -2.90483E+03 -3.71584E+03 -4.08628E+03 -2.48262E+03 -1.77629E+03
 -2.86557E+03 -2.75880E+01  6.39144E+02 -7.71368E+01 -2.96634E+03  3.04674E+03 -9.56131E+02  1.31038E+03
 -2.62996E+02  5.11380E+03 -2.19732E+03 -1.28183E+01 -3.04294E+03 -5.46608E+02  1.85290E+03 -5.96347E+01
  6.56443E+02 -3.62137E+03  4.15678E+01  7.22581E+02  8.36757E+02  1.23718E+03  8.76724E+01 -6.46391E+02
 -2.79811E+03 -4.03839E+03 -6.32158E+03 -1.26237E+03 -5.88881E+02  2.79717E+03  2.17691E+03  6.23894E+01
 -3.77078E+03 -4.41122E+03  2.20727E+03 -3.14595E+03  1.76576E+03  5.19601E+02  5.06499E+02 -1.47634E+03
 -1.34143E+03 -3.44505E+03 -1.85489E+03  1.55643E+03 -2.05028E+03 -2.66373E+03  1.85515E+03 -4.03310E+03
 -2.36371E+03 -1.02330E+02  2.07456E+03 -6.73354E+02 -4.35144E+03  1.92202E+03 -1.18571E+03 -2.98030E+03
 -2.44656E+03  3.11792E+03 -1.07555E+03 -2.29030E+02 -2.03981E+03  3.87782E+02  4.87620E+03  3.55352E+03
  1.27743E+03 -2.32718E+02 -2.74658E+03 -1.69716E+03  9.22728E+02 -1.56880E+03 -2.84496E+03 -1.65323E+03
 -1.14894E+03 -3.89395E+03  1.84132E+03 -3.04497E+03 -2.19736E+03 -1.49174E+03 -1.39476E+02 -5.48895E+03
  2.79471E+03 -1.04217E+03 -7.51057E+02  3.02972E+03  1.72251E+03  2.55652E+03 -3.25698E+03 -7.14210E+02
  4.62153E+03  8.44684E+02 -1.00642E+03  1.94322E+03  2.86183E+03  5.62748E+02 -3.96833E+03  2.97171E+03
 -1.29725E+03 -1.19940E+02 -1.58905E+03 -7.69095E+01 -3.48486E+03 -3.24046E+03 -2.87327E+03  9.19863E+02
  3.58398E+03  2.19209E+02 -1.98746E+03  2.04785E+03  1.15490E+03 -1.39925E+03  1.33344E+03  2.89954E+03
 -5.94068E+02  2.89825E+03 -2.28343E+03 -1.94288E+02 -7.27687E+02  2.23829E+03  1.62902E+03 -1.50912E+03
  7.03406E+01 -7.63393E+02  2.17631E+03 -4.33976E+03 -1.97465E+02 -1.61107E+03  4.31373E+03 -2.56286E+03
  3.52218E+03  3.04263E+03 -2.60281E+03 -9.62912E+02  2.48416E+00 -3.05745E+02 -1.26607E+03 -2.37725E+03
 -4.53804E+02  2.74980E+03 -3.36261E+03 -1.40029E+02  1.46680E+02  3.08495E+03  1.65769E+03 -1.82433E+03
 -1.25244E+03  2.98843E+03 -2.67533E+02  2.15861E+03 -2.93258E+03 -3.17109E+02  4.86214E+02  8.04109E+01
 -1.25294E+02 -3.87843E+01  1.61224E+02  1.08251E+03  1.95256E+03  1.77518E+01 -4.09879E+03 -6.51214E+02
 -1.98136E+03 -3.44355E+03 -3.76134E+03  1.17224E+03  2.38063E+03  3.03534E+02 -7.14653E+02 -5.10362E+03
  2.07844E+03 -1.79220E+03 -1.80866E+03 -4.95827E+00 -5.54158E+03  2.46539E+03  1.40642E+03 -1.96197E+03
  5.15296E+02  1.89230E+01  7.32766E+02 -3.24981E+03  3.54952E+03 -4.10824E+02  1.46892E+02 -1.12276E+03
 -3.78501E+03  5.78231E+02 -4.43888E+03  2.58041E+03  9.50158E+02  3.95023E+03 -2.38262E+02  3.96537E+03
