 $NMID ID='MM_0lb_SNR50_8hz_g50_9.RAW', FMTDAT='(8E13.5)'
 TRAMP=1., VOLUME=1. $END
  3.08917E+05 -9.75126E+02  3.37534E+05  2.56633E+05  9.25212E+04  3.36335E+05 -1.30303E+05  2.58583E+05
 -1.90354E+05  8.04492E+04 -1.13926E+05 -2.93143E+04  1.02244E+03 -5.50166E+04  5.62393E+04 -2.45742E+03
  3.71009E+04  5.47693E+04 -1.61481E+04  7.98748E+04 -5.89609E+04  6.77571E+04 -8.99601E+04  3.07407E+04
 -8.14029E+04 -1.50028E+04 -5.75030E+04 -5.11109E+04 -1.42861E+04 -7.52662E+04  3.28897E+04 -4.37500E+04
  4.17049E+04  2.81805E+03  1.27627E+04  4.99445E+04 -3.90195E+04  5.12693E+04 -6.92265E+04 -2.39599E+03
 -5.39361E+04 -5.90080E+04 -5.02188E+03 -8.03639E+04  3.32017E+04 -5.48399E+04  5.34107E+04 -1.66382E+04
  4.63153E+04  1.59105E+04  3.20591E+04  2.31128E+04  2.60991E+04  2.86516E+04 -6.41117E+03  3.63500E+04
 -2.15867E+04  6.33185E+03 -1.71695E+04 -2.58578E+03  5.66098E+03 -1.08311E+04  1.58913E+04  9.30078E+03
  8.94208E+03  3.71520E+04 -2.67937E+04  2.70314E+04 -7.11942E+04  3.19960E+03 -6.08073E+04 -4.59329E+04
 -1.95134E+04 -5.94255E+04  4.05800E+04 -4.45949E+04  6.49157E+04 -1.22595E+03  2.97631E+04  3.10774E+04
 -4.50045E+03  4.58579E+04 -2.54023E+04  1.94030E+04 -3.47432E+04 -4.27339E+03 -1.79688E+04 -1.44036E+04
 -3.71068E+03 -1.63495E+04  6.75978E+03 -1.66140E+04  8.95291E+03 -2.49063E+04  1.85199E+04 -8.28318E+03
  1.30804E+04  1.07083E+04 -8.73898E+03  6.34773E+03 -2.27994E+04 -5.95340E+03 -3.02346E+03 -3.31753E+04
  3.00415E+04 -4.53674E+04  5.26664E+04 -2.53847E+04  4.77385E+04  1.88891E+04  1.86152E+04  4.63305E+04
 -2.08484E+04  3.90030E+04 -3.01467E+04  5.76292E+03 -1.26320E+04 -2.96275E+04  1.59921E+04 -4.18776E+04
  4.72073E+04 -9.62880E+03  4.99945E+04  2.81478E+04  2.31196E+04  5.43286E+04  3.79427E+02  5.89248E+04
 -3.46716E+04  4.42066E+04 -4.77860E+04  9.41489E+03 -4.91141E+04 -2.09597E+04 -3.29787E+04 -4.55344E+04
  7.63294E+03 -3.85812E+04  2.68728E+04 -2.48394E+04  3.37970E+04  1.17278E+04  5.36703E+03  6.76266E+03
 -1.32478E+04  1.19767E+04 -1.40660E+04 -5.85837E+03  3.18793E+03 -7.94705E+03  1.50431E+04  1.01547E+04
  1.37447E+04  1.76602E+04 -8.10212E+03  2.99726E+04 -2.36247E+04  1.35924E+04 -3.34643E+04  3.24254E+03
 -2.13490E+04 -2.07802E+04 -9.98713E+03 -2.07755E+04  1.02662E+04 -2.91825E+04  1.95669E+04 -1.95166E+04
  3.31989E+04 -1.39878E+04  4.16015E+04  9.43799E+03  2.58587E+04  1.93898E+04  9.92521E+03  4.68599E+04
 -2.02882E+04  3.41889E+04 -3.11622E+04  1.89498E+04 -2.23279E+04 -8.24112E+03 -4.97202E+03 -8.83549E+03
  4.39647E+03  2.97475E+02 -1.46053E+04  7.84148E+03 -3.12592E+04  2.68526E+03 -1.84151E+04 -3.64051E+03
 -1.15947E+04 -2.18153E+04  8.12929E+03 -2.87147E+04  2.55424E+04 -2.58330E+04  1.74152E+04  9.93406E+03
  2.16189E+04  1.48020E+04  6.64103E+02  2.57227E+04 -1.87286E+04  7.72317E+03 -2.14357E+04 -5.05026E+03
 -1.73584E+04 -1.96484E+04  2.62831E+03 -2.84834E+04  1.35607E+04 -2.34235E+04  2.27648E+04 -1.08283E+04
  2.25319E+04  3.08282E+03  1.92802E+04  5.77895E+03  8.55172E+03 -6.63342E+02  1.90842E+04 -2.58569E+03
  2.44812E+04  4.31132E+03  2.73346E+04  1.85802E+04  1.68037E+04  4.07500E+04 -2.19255E+03  5.15881E+04
 -2.63934E+04  3.71607E+04 -4.99434E+04  1.86899E+04 -5.00603E+04 -3.19170E+03 -3.91229E+04 -2.99059E+04
 -1.71143E+04 -3.83018E+04  6.13506E+03 -2.77365E+04  3.30176E+04 -2.23053E+04  2.37797E+04  6.71663E+03
  1.03825E+04  1.95579E+04 -1.34639E+04  1.29906E+04 -1.88047E+04 -7.42335E+03 -1.65076E+04 -1.12330E+04
  3.66428E+03 -1.98134E+04  1.18383E+04 -1.95306E+04  1.86946E+04 -3.93885E+03  5.33382E+01  5.86407E+03
 -7.92374E+03  6.86382E+03 -7.87650E+03 -8.44213E+03 -2.42274E+03 -2.07105E+04  1.63828E+04 -1.71555E+04
  2.39923E+04 -1.64823E+04  2.11255E+04  8.18471E+03  2.59824E+04  2.22677E+04  8.95586E+03  3.53632E+04
 -3.96495E+03  3.91848E+04 -2.26469E+04  2.15714E+04 -2.48561E+04  1.85529E+03 -2.05588E+04 -6.37465E+03
 -7.60225E+03 -1.19454E+04  4.26976E+03 -2.16676E+03  1.22390E+02  6.51880E+03 -1.40703E+04  7.95012E+03
 -1.78214E+04  1.73442E+03 -2.19206E+04 -9.57792E+03 -3.69350E+03 -2.37956E+04  6.81098E+03 -2.13149E+04
  1.68065E+04 -3.45844E+03  7.97711E+03  7.95947E+03  3.64515E+03  1.35062E+04 -8.70659E+03 -4.59253E+03
 -9.67221E+03 -1.43997E+04 -3.70142E+03 -1.55532E+04  7.18863E+03 -9.11999E+03  1.80526E+04 -2.09021E+03
  2.40348E+04  8.47490E+03  1.87610E+04  9.22999E+03  8.06588E+03  2.75906E+04 -6.38374E+03  1.30687E+04
 -1.84585E+04  7.73253E+03 -1.04155E+04 -9.31986E+03  5.20780E+02 -1.67184E+03  8.47923E+03 -2.90803E+03
  4.46052E+03  1.19439E+04 -1.98863E+03  1.02406E+04 -8.88655E+03  9.98097E+03 -1.42081E+04  7.23243E+03
 -1.30465E+04 -2.88888E+03 -4.83055E+02 -9.35650E+03  1.33756E+04 -8.47256E+03  4.92583E+03  4.76991E+03
  7.05975E+02  1.74958E+04 -1.07038E+04  1.06220E+04 -1.90401E+04  1.14793E+04 -1.38555E+04 -4.89327E+03
 -1.39798E+04 -1.65479E+04  3.73601E+03 -2.57199E+04  2.09913E+04 -1.34503E+04  1.89678E+04 -4.62672E+03
  6.19284E+03  1.53405E+04 -2.39767E+03  2.07631E+04 -1.29581E+04  6.46706E+03 -1.02172E+04  5.01220E+03
 -8.85229E+03 -1.49040E+04  1.71530E+02 -1.82779E+04  4.38722E+03 -2.03321E+03  3.66093E+03 -2.78546E+03
  7.60182E+03  3.06203E+02 -1.09545E+03  2.84875E+02 -9.41006E+03 -4.99210E+03 -3.15512E+03 -4.09793E+03
  9.67969E+03 -9.33520E+03  2.57048E+04  2.11680E+03  1.45613E+04  1.19109E+04  7.68447E+03  2.86323E+04
 -4.84827E+03  3.33299E+04 -2.08888E+04  1.79282E+04 -2.74638E+04  8.75966E+03 -2.65852E+04 -1.37812E+04
 -1.68813E+04 -1.53552E+04 -1.15404E+03 -1.33044E+04 -1.29402E+03 -1.53788E+04  6.96832E+03 -2.37857E+03
 -3.83854E+03 -5.21578E+03  7.07584E+03  2.84100E+03  5.14045E+03  4.72622E+02  1.44854E+04  3.85639E+02
  1.47328E+04 -1.32387E+03  3.33949E+03  1.54789E+04  2.42026E+03  1.72050E+04 -1.38151E+04  9.76576E+03
 -1.37640E+04 -5.78649E+03 -1.37827E+04 -1.07758E+04 -7.08837E+03 -1.57113E+04  1.40623E+04 -1.69424E+04
  2.05678E+04 -1.12812E+04  2.27378E+04  1.39251E+03  1.33954E+04  1.63426E+04  2.67545E+03  1.89591E+04
 -1.14173E+04  1.66043E+04 -9.22262E+03  7.02637E+03 -6.80376E+03 -8.08669E+03  3.25104E+02  2.95883E+03
  2.32350E+03 -5.95218E+03 -1.60156E+03  7.23586E+03 -3.91401E+03  1.23025E+03 -1.11016E+04 -2.96998E+03
 -5.83921E+03 -8.03914E+03  3.80143E+03 -1.58992E+04  7.06304E+03 -1.77712E+04  2.04066E+04 -5.80046E+03
  1.57360E+04  1.13262E+04  7.96617E+03  1.74401E+04 -2.56110E+03  1.39738E+04 -1.27272E+04  8.07624E+03
 -2.12015E+04 -2.34711E+02 -1.40450E+04 -1.30247E+04 -7.27736E+02 -1.62422E+04  1.09974E+02 -1.30750E+04
  8.09059E+03 -2.38200E+03  9.87762E+03  6.15417E+03 -1.13983E+03  4.81051E+03  4.73641E+03 -1.36564E+03
  5.73300E+03 -6.73376E+03 -1.64553E+03  3.47138E+03  4.80506E+03  5.26568E+03  5.82817E+03  8.19299E+03
 -3.24828E+03  7.89080E+03 -1.65107E+04  8.26239E+03 -1.92465E+04  8.77737E+03 -1.34611E+04 -7.34658E+03
 -5.94214E+03 -1.93806E+04 -1.38724E+03 -1.91459E+04  9.84783E+03 -8.85225E+03  1.56543E+04  3.79714E+02
  1.83162E+04  8.76803E+03  1.58512E+03  9.90570E+03 -5.62904E+03  1.63562E+04 -7.42607E+03  8.96754E+02
 -2.08584E+03 -1.40601E+03  4.92746E+03 -9.93959E+03  9.07726E+03 -7.12014E+02  8.73119E+02  2.09562E+03
 -1.81144E+03  1.02112E+03 -2.64055E+03  4.36090E+03 -6.33981E+03  9.33368E+03 -2.20310E+03  1.38202E+02
  8.90654E+02 -4.31425E+03  7.48670E+03  3.82016E+03  1.25287E+04  1.19929E+04  1.65886E+03  1.08011E+04
 -1.01438E+04  3.86449E+03 -5.50098E+03 -1.54296E+03 -8.98473E+03 -4.90354E+03 -6.58264E+03 -1.07444E+04
 -2.75074E+03 -7.32673E+03  9.67467E+03  2.54877E+02  9.02729E+03 -7.31578E+03  4.12866E+03  8.50974E+03
 -6.39154E+03  1.92167E+02 -1.44230E+04 -3.98282E+03 -3.70265E+03 -2.31873E+04  6.46736E+03 -1.22054E+04
  6.04027E+03 -9.88150E+03  8.76960E+03 -2.13825E+03  8.71135E+03  7.14730E+03  3.83765E+03  1.04938E+04
 -2.46216E+03 -1.56870E+03  6.51716E+02 -8.10129E+03 -8.04435E+02 -5.56216E+03  5.62843E+03 -4.58412E+03
  9.96845E+03 -7.10678E+02  9.78855E+03  3.34315E+03  4.32964E+03  1.36698E+04 -6.72250E+03  1.61675E+04
 -5.20574E+03  1.57639E+04 -1.25219E+04 -9.11853E+02 -4.19118E+03 -8.99648E+03  3.64172E+03 -7.83277E+03
  3.45087E+03 -4.84116E+03  9.37109E+03  2.48458E+03  4.24846E+02  5.74458E+03  6.30470E+03  1.10144E+04
 -1.81852E+03  1.18565E+04 -2.73964E+03 -2.82406E+03  5.14909E+03  4.63347E+02 -1.08652E+03  4.40279E+03
 -3.50897E+03  3.04502E+03 -1.21298E+04  7.96164E+03 -1.00713E+04  2.77994E+03 -9.22074E+03 -1.11670E+04
 -3.14046E+02 -1.33383E+04  5.36676E+03 -2.46332E+04  1.41959E+04 -1.63126E+04  1.86294E+04 -7.62790E+03
  1.58838E+04  5.78627E+03  9.92586E+03  1.15155E+04  2.69873E+03  8.87859E+03 -3.82627E+03  5.30782E+03
 -8.52122E+03  1.00037E+04 -6.95858E+03 -3.62288E+03 -4.60852E+03 -1.50824E+03  7.57737E+02 -4.72041E+03
  3.17833E+03  3.85727E+02  3.69208E+02  5.01465E+03 -6.17551E+03 -2.43990E+03  2.43355E+02 -5.30526E+03
  1.21219E+04  3.53304E+01  8.03458E+03 -1.31024E+03  3.95162E+03  1.29412E+04  5.50705E+02  1.19121E+04
 -2.57725E+03  1.53695E+04 -1.48245E+04  3.49452E+02 -1.69620E+04  5.95469E+03 -6.56424E+03 -6.93684E+03
 -8.64020E+03 -1.87558E+04  5.18598E+03 -1.27673E+04  8.26167E+03 -9.37385E+03  7.96845E+03  4.66100E+02
  7.13680E+03  5.78436E+02 -1.52296E+03  3.06635E+03 -4.11144E+03  1.33562E+03  1.61918E+03 -5.09678E+03
  8.86332E+01 -4.43200E+03  6.49012E+03  5.87564E+03 -3.85177E+03  2.49845E+03  7.91305E+03  3.21284E+03
 -8.37105E+03  3.40260E+03 -5.36959E+03  5.67672E+02 -4.56174E+03 -9.16085E+03 -8.73003E+02  1.40415E+03
  4.31274E+03 -7.74806E+03  1.17139E+04  2.73120E+03  1.21218E+04  6.17934E+03  9.89728E+03  8.46341E+03
  2.95900E+03  8.85688E+03 -1.11163E+04  1.23054E+04 -1.29089E+03  9.09266E+03  1.33224E+03 -2.41657E+03
  1.63814E+03  1.91442E+03 -2.41218E+03  8.72726E+02 -3.80982E+03  4.85045E+03 -4.89561E+03  6.04940E+03
  8.16625E+02 -4.91963E+03  2.46714E+02 -1.22543E+04  8.72730E+03 -7.10583E+03  1.61251E+04 -9.21525E+03
  8.39959E+03 -1.42657E+03  5.55429E+03  3.04573E+03  6.00901E+03  8.24602E+03 -3.71087E+03  1.06523E+04
