 $NMID ID='MM_0lb_SNR50_12hz_g55_4.RAW', FMTDAT='(8E13.5)'
 TRAMP=1., VOLUME=1. $END
  3.07286E+05  1.47772E+03  3.35489E+05  2.48245E+05  8.73589E+04  3.40724E+05 -1.32864E+05  2.54377E+05
 -1.95316E+05  8.38314E+04 -1.06686E+05 -3.34336E+04  3.85456E+03 -4.71313E+04  5.17863E+04  8.84037E+02
  3.87642E+04  5.30256E+04 -1.36383E+04  7.53787E+04 -5.96013E+04  6.26315E+04 -8.85274E+04  2.68834E+04
 -7.98018E+04 -1.11442E+04 -5.97244E+04 -5.30347E+04 -1.37947E+04 -7.07335E+04  3.06313E+04 -4.38174E+04
  4.23631E+04  7.77713E+03  1.86862E+04  4.77962E+04 -3.58567E+04  4.93957E+04 -6.19945E+04  1.00285E+03
 -5.13848E+04 -5.85479E+04 -6.82223E+03 -7.92730E+04  3.57776E+04 -5.52828E+04  4.81351E+04 -1.39355E+04
  4.46453E+04  1.14714E+04  3.08932E+04  2.43610E+04  1.49031E+04  3.03344E+04 -8.44527E+03  2.70789E+04
 -2.13966E+04  1.14753E+04 -1.90406E+04 -5.27947E+03  5.75005E+03 -6.40365E+03  2.75704E+04  1.27502E+04
  9.02679E+03  3.65967E+04 -3.42892E+04  3.34446E+04 -6.75903E+04  2.26413E+03 -6.11751E+04 -4.27927E+04
 -1.10583E+04 -6.67838E+04  4.10852E+04 -4.55115E+04  6.14452E+04  4.67017E+02  4.00870E+04  3.30567E+04
 -7.79293E+03  3.54253E+04 -3.18061E+04  1.64479E+04 -3.33018E+04 -4.00180E+03 -2.11317E+04 -7.03483E+03
 -1.16418E+04 -1.77020E+04 -3.68287E+03 -1.54120E+04  6.61745E+03 -2.15889E+04  1.69134E+04 -1.22777E+04
  6.70991E+03  5.00300E+03 -1.14641E+04  9.94113E+03 -2.18491E+04 -3.76495E+03 -6.34803E+03 -3.56896E+04
  2.87357E+04 -4.90482E+04  5.11724E+04 -1.79291E+04  4.66130E+04  2.16451E+04  1.96198E+04  4.79711E+04
 -1.28435E+04  3.20374E+04 -2.59913E+04  5.22428E+03 -6.16477E+03 -2.55877E+04  1.74829E+04 -3.88418E+04
  4.06284E+04 -3.88838E+03  3.60937E+04  2.25010E+04  1.96524E+04  5.04038E+04 -9.93057E+03  5.31694E+04
 -3.53997E+04  3.99555E+04 -4.44095E+04  7.94921E+03 -4.18044E+04 -1.76115E+04 -2.53881E+04 -3.74122E+04
  1.24154E+04 -4.45833E+04  3.47087E+04 -1.22510E+04  3.10906E+04  1.22154E+04  4.22677E+03  1.82197E+04
 -1.50043E+04  1.15876E+04 -1.62110E+04 -8.53173E+03  6.32315E+03 -1.04271E+04  2.02553E+04  6.95309E+03
  1.48757E+04  2.35677E+04 -1.48297E+03  2.60779E+04 -1.96061E+04  7.70805E+03 -3.21128E+04 -2.08995E+03
 -1.95347E+04 -1.59234E+04 -1.12540E+04 -2.52937E+04  1.67509E+03 -2.23351E+04  1.73337E+04 -1.86714E+04
  2.60050E+04 -9.34712E+03  4.10219E+04  3.43217E+02  2.54651E+04  2.36981E+04  7.99497E+03  4.16531E+04
 -1.35346E+04  3.42861E+04 -2.91639E+04  1.07509E+04 -2.16641E+04 -1.17062E+04 -2.99816E+03 -9.94249E+03
 -9.32837E+02  1.31767E+03 -8.54580E+03  4.54987E+03 -1.92028E+04  5.11607E+03 -1.97404E+04 -9.25150E+03
 -8.52820E+03 -1.86174E+04  6.26620E+03 -2.77993E+04  1.90348E+04 -2.31944E+04  2.25734E+04 -9.78388E+02
  1.12236E+04  1.49878E+04 -4.16604E+03  1.45969E+04 -1.44527E+04  1.22062E+04 -2.38081E+04 -3.51629E+03
 -1.20756E+04 -1.68315E+04  7.90359E+02 -2.54227E+04  1.37550E+04 -2.47745E+04  1.51887E+04 -1.36540E+04
  2.27506E+04 -4.73463E+02  1.55496E+04 -1.92243E+01  8.62881E+03  1.43502E+03  1.25222E+04 -3.33020E+03
  2.28670E+04  1.72232E+03  2.23673E+04  1.49633E+04  1.30178E+04  3.69025E+04 -5.61484E+03  3.77301E+04
 -1.91319E+04  3.14808E+04 -3.71986E+04  1.79110E+04 -4.07334E+04 -7.31128E+03 -3.30715E+04 -2.47344E+04
 -1.33763E+04 -3.04046E+04  1.22820E+04 -2.94976E+04  2.93777E+04 -1.85249E+04  2.44152E+04  5.34676E+03
  1.20420E+04  1.06567E+04 -5.62189E+03  1.74216E+04 -1.29212E+04  2.85427E+03 -1.38692E+04 -1.62639E+04
  9.68493E+02 -1.50768E+04  1.02503E+04 -5.84762E+03  1.47240E+04 -1.26393E+03  1.79514E+03  5.35076E+03
 -4.06407E+03  5.05279E+03 -7.76969E+03 -5.26716E+03  4.34509E+03 -1.00830E+04  1.27787E+04 -1.51668E+04
  1.61294E+04 -1.43308E+04  2.03909E+04  2.32304E+03  1.33148E+04  1.68661E+04  1.10895E+04  2.59216E+04
 -3.66975E+03  2.44594E+04 -1.55266E+04  1.65030E+04 -2.38596E+04  2.43890E+03 -1.63543E+04 -1.42781E+04
 -8.52091E+03 -1.40626E+04  3.52621E+03  3.94625E+03 -1.73655E+03  5.25037E+03 -7.59680E+03  1.57015E+03
 -1.46490E+04  3.19421E+03 -1.70495E+04 -1.16649E+04 -1.54117E+03 -1.57427E+04  8.48061E+03 -1.08398E+04
  1.06141E+04 -4.34596E+03  7.79547E+03  3.59442E+03  4.02711E+03  6.41544E+03 -7.85116E+03  5.32335E+03
 -1.95116E+03 -1.15050E+04 -1.35977E+03 -9.36187E+03  1.23206E+04 -1.65684E+04  1.40811E+04 -6.32051E+03
  1.92520E+04 -3.19746E+03  1.80184E+04  9.92191E+03  1.48871E+03  1.41468E+04 -6.73120E+03  1.66392E+04
 -1.08359E+04  5.72821E+03 -5.19833E+03 -9.01627E+03  6.67188E+03 -1.49103E+03  1.07241E+04 -3.02534E+03
  2.54324E+03  5.33373E+03 -2.96174E+03  1.36523E+04 -7.00622E+03  1.09919E+04 -2.03804E+04  5.56410E+02
 -6.92755E+03 -5.61912E+03  6.80198E+01 -9.67910E+03  7.45796E+03 -4.52080E+03  1.09560E+04  2.79159E+01
 -7.83138E+02  8.01981E+03 -7.07149E+03  1.29605E+04 -1.67976E+04  8.04918E+03 -1.25420E+04 -9.89774E+03
 -1.46068E+04 -1.14989E+04 -1.48035E+03 -1.32833E+04  1.52026E+04 -8.78856E+03  1.59956E+04 -2.43106E+02
  9.15847E+03  7.90009E+03 -3.84935E+03  9.14406E+03 -9.46131E+03  8.77057E+03 -1.24482E+04 -1.36743E+03
 -6.92711E+03 -4.79922E+03 -2.38301E+03 -1.19362E+04  2.36029E+03 -7.18006E+03  9.91561E+03 -2.15431E+03
  7.86587E+03  3.21245E+03  1.07829E+02  4.23281E+02 -7.23505E+02 -4.42689E+03  3.03966E+03 -4.78520E+03
  1.25787E+04 -3.21330E+03  1.14913E+04  9.64143E+01  1.68384E+04  1.37812E+04  8.99591E+03  2.17067E+04
 -2.38377E+02  1.80352E+04 -1.31456E+04  1.54989E+04 -1.99213E+04  3.55088E+03 -1.28555E+04 -2.02917E+03
 -6.50257E+03 -1.89303E+04  2.06353E+03 -7.68853E+03 -3.19347E+02 -5.46871E+03  8.72749E+03 -4.76138E+01
  1.93056E+03 -3.01959E+03  3.86366E+03 -6.75280E+02  1.67807E+03  4.85501E+03  1.23469E+04  1.18763E+03
  5.86478E+03  5.36821E+02  3.07993E+03  1.21680E+04 -1.14308E+04  1.50206E+03 -2.70692E+03  1.07579E+04
 -1.08725E+04 -4.40250E+03 -1.06025E+04 -8.75854E+03  2.85622E+03 -6.83545E+03  5.90114E+03 -1.20081E+04
  1.50081E+04 -2.81750E+03  1.69056E+04  4.39743E+03  1.37338E+04  6.93852E+03  6.81725E+03  1.05243E+04
 -7.64663E+03  1.04682E+04 -7.27112E+03 -1.07921E+02 -1.17417E+01 -3.17106E+03 -4.31787E+03 -4.49558E+02
  6.23616E+03 -1.35312E+03 -6.67389E+03 -7.71544E+02 -8.47583E+03  3.95651E+03 -6.46092E+03  4.48965E+03
 -1.96290E+03 -4.14243E+03 -1.54463E+03 -1.09138E+04  9.67981E+03 -8.40610E+03  1.09241E+04 -7.05492E+03
  1.02045E+04  5.17412E+03  8.69670E+03  1.22798E+04  9.02006E+02  1.38723E+04 -7.98737E+03  5.35899E+03
 -7.37657E+03 -2.72428E+03 -1.23994E+04 -6.17558E+03 -2.59225E+03 -1.31671E+04  2.56979E+02 -8.03486E+03
  5.34470E+03 -1.11305E+03  6.75928E+03  4.16781E+03  4.52503E+03  5.26726E+03  4.62736E+03 -1.85998E+03
  3.20463E+03  2.55721E+03  4.47285E+03  1.41008E+03  7.85189E+03 -4.63824E+02 -4.29622E+03  7.80196E+03
 -2.64820E+03  1.49129E+04 -6.92410E+03  1.22547E+04 -1.18832E+04  2.37067E+03 -6.18802E+03 -4.57544E+03
  4.70345E+03 -1.18065E+04 -1.86652E+03 -8.14495E+03  7.63932E+03 -9.39222E+03  9.43318E+03 -2.34261E+03
  4.35647E+03  1.58755E+03  1.30892E+03  4.98841E+03  9.54286E+02  2.59953E+03 -9.33769E+03 -5.36241E+01
  5.47747E+02 -6.40300E+03 -6.06663E+02 -7.50394E+03  4.78548E+03  1.18304E+02  9.07865E+03 -1.63944E+03
  6.92727E+03  1.99421E+03  1.74040E+03  3.49899E+03 -2.43790E+03  3.28189E+03 -1.47737E+03  2.32954E+03
  3.24026E+03 -2.12670E+03  6.69303E+03  3.01833E+03  4.80165E+03  9.36113E+03  2.74258E+03  9.51524E+03
 -8.95822E+03  4.69727E+03 -7.09078E+03  1.01621E+03 -8.96124E+03 -4.78187E+03 -9.08571E+02 -4.02495E+03
 -8.65331E+02  1.35329E+03 -1.51375E+03 -9.74407E+02  6.66399E+02  3.87495E+03  8.21427E+02  2.31077E+03
 -8.89613E+03  7.67417E+03 -8.69873E+03 -6.08873E+03  2.28592E+03 -1.43895E+04  3.73233E+03 -1.20959E+04
 -1.25471E+03  5.59147E+02  6.80397E+03  1.00060E+03  1.07981E+04  1.72129E+01 -1.64995E+03  2.87929E+03
 -4.22235E+03  1.35286E+03 -4.57753E+03  8.80074E+02  5.37138E+02 -2.59277E+03  3.93784E+03 -2.74848E+03
  6.25164E+03  2.84972E+02  8.73575E+03  1.03882E+03  1.82694E+03  8.27465E+03 -1.70927E+03  8.34200E+03
 -2.39026E+03  4.09122E+02 -5.99600E+03 -6.03844E+02 -2.17452E+03 -1.90150E+03  8.02160E+03 -3.56272E+03
  7.97690E+03  2.38729E+03  1.53451E+03  1.99436E+03  2.24296E+03  2.00157E+03  1.03839E+03  4.61676E+03
 -1.97656E+03  8.21176E+03  2.83636E+03  1.33554E+03 -1.54672E+03 -2.51505E+03 -3.89210E+03 -5.68321E+02
 -1.13429E+03  4.43464E+03 -3.76886E+03  6.77178E+03 -3.18971E+03  3.85711E+03 -6.80053E+03 -7.10109E+03
 -1.88296E+03 -1.29748E+04 -1.12919E+03 -6.52017E+03  8.09762E+03 -7.05376E+03  7.56100E+03 -1.15400E+03
  3.67171E+03 -3.04835E+03  8.02592E+03  2.71707E+03 -7.29757E+02  3.57587E+03 -9.26619E+03  5.97693E+03
 -2.90788E+03  9.57901E+03 -1.42436E+03 -2.00259E+03 -5.09212E+03 -2.24209E+03  4.07775E+03 -4.34409E+03
 -1.18912E+03  4.29023E+03 -3.80050E+03 -2.03746E+03 -1.87551E+03 -4.41096E+03 -8.27018E+01 -4.96248E+03
  3.39110E+03 -3.75837E+03  8.47586E+01 -2.16519E+03  4.13393E+03  4.15816E+03  2.51132E+03  1.37476E+04
  4.55959E+02  6.53261E+03 -9.94398E+03  6.06688E+03 -1.07215E+04 -9.11402E+02 -4.71097E+03 -6.17135E+03
 -7.59391E+03 -7.57858E+03  4.04035E+01 -5.95113E+03  4.33583E+03 -4.83447E+03 -2.62700E+02  4.62183E+02
  4.94196E+03  3.20180E+03 -3.12618E+03 -1.41210E+03 -3.96286E+02 -1.48235E+03  1.71229E+03 -2.73302E+03
  4.84661E+03  3.02323E+03  3.60366E+03  3.38052E+03 -7.21336E+02  2.87733E+03  1.19781E+02  2.04821E+03
  1.86915E+03  1.29852E+03 -6.93711E+03 -1.69855E+03 -4.45870E+03 -2.07531E+03 -3.72735E+03 -1.34028E+04
 -6.80066E+01 -6.79888E+03  3.13546E+03 -1.30096E+03 -3.14087E+02  4.42310E+03  1.48965E+03  1.92443E+03
  9.73604E+02  5.35629E+03  2.56985E+02  7.00133E+03 -6.63899E+03 -2.47438E+03 -3.45049E+03  2.46706E+03
 -8.86667E+03 -1.40574E+03 -1.15054E+03 -3.53472E+03 -6.76568E+03  1.54992E+03 -8.98663E+03 -4.02391E+03
 -4.57787E+03 -4.55179E+02 -6.74563E+01 -2.54488E+02  6.05489E+03 -4.84697E+03  1.52084E+03 -2.00598E+03
  1.93607E+03  2.68379E+03 -1.59613E+03  2.92455E+02  4.18420E+03  2.31393E+03 -3.85556E+01  3.12212E+03
