 $NMID ID='MM_0lb_SNR50_10hz_g40_70.RAW', FMTDAT='(8E13.5)'
 TRAMP=1., VOLUME=1. $END
  3.07901E+05  5.47750E+01  3.36658E+05  2.49244E+05  8.22326E+04  3.39627E+05 -1.30944E+05  2.47431E+05
 -1.87477E+05  8.54098E+04 -1.11116E+05 -3.09534E+04 -1.16735E+03 -4.72678E+04  5.55921E+04 -1.48599E+03
  3.60653E+04  5.50621E+04 -2.30142E+04  7.27670E+04 -6.22174E+04  6.31409E+04 -7.85857E+04  3.28730E+04
 -8.27042E+04 -7.60989E+03 -5.51738E+04 -5.76195E+04 -1.50413E+04 -7.21983E+04  2.92281E+04 -4.55068E+04
  4.54149E+04  4.64835E+03  1.49122E+04  4.91173E+04 -3.74602E+04  4.72715E+04 -7.10054E+04  6.28482E+02
 -4.87871E+04 -5.62602E+04 -1.86748E+03 -7.89340E+04  3.16792E+04 -5.57671E+04  4.60187E+04 -1.42465E+04
  3.78983E+04  1.09706E+04  3.10589E+04  2.55787E+04  1.56753E+04  3.19444E+04 -3.23507E+03  3.25122E+04
 -1.89794E+04  1.30467E+04 -1.69572E+04 -3.09313E+03  9.79310E+03 -1.06440E+04  2.57453E+04  1.79521E+04
  1.78357E+03  4.02881E+04 -2.92601E+04  3.26653E+04 -6.30876E+04  4.55882E+03 -5.69409E+04 -4.04960E+04
 -1.74841E+04 -6.85294E+04  3.87394E+04 -4.99106E+04  6.02209E+04 -1.30913E+03  3.59667E+04  3.43036E+04
 -8.28732E+02  3.84422E+04 -3.02266E+04  1.65746E+04 -1.91974E+04 -3.42160E+03 -2.33279E+04 -7.91328E+03
 -7.68068E+03 -1.45333E+04 -4.40146E+03 -1.35158E+04  9.45420E+03 -2.85231E+04  1.84888E+04 -1.18400E+04
  1.22135E+04  4.38013E+03 -9.47085E+03  1.16034E+04 -2.63837E+04 -8.14964E+03 -1.19108E+04 -3.37353E+04
  2.17971E+04 -3.79460E+04  4.49700E+04 -1.94595E+04  4.85603E+04  1.39606E+04  1.36120E+04  4.82486E+04
 -1.33964E+04  3.45885E+04 -2.91724E+04 -2.85985E+03 -1.34170E+04 -3.01657E+04  2.27536E+04 -3.46094E+04
  4.51537E+04 -8.37334E+03  4.50228E+04  2.46309E+04  2.11421E+04  4.53339E+04 -5.06090E+03  5.27202E+04
 -3.68289E+04  4.35545E+04 -4.96235E+04  8.71759E+03 -3.97384E+04 -1.90655E+04 -1.85976E+04 -3.66036E+04
  4.67311E+03 -3.89993E+04  3.49825E+04 -1.45135E+04  3.19685E+04  1.36969E+04  2.86513E+03  2.36070E+04
 -1.49486E+04  1.23162E+04 -6.59229E+03 -6.64203E+03  7.94357E+03 -1.23818E+04  1.20471E+04  1.02598E+04
  1.52332E+04  2.18440E+04 -8.67902E+03  3.20624E+04 -2.44392E+04  1.67631E+04 -2.47109E+04 -5.42719E+03
 -2.15907E+04 -1.90129E+04 -1.09150E+04 -2.30791E+04  1.87803E+03 -2.11718E+04  1.89085E+04 -1.72885E+04
  2.75860E+04 -1.30345E+04  3.77044E+04  4.68052E+03  2.62437E+04  2.60492E+04  3.19870E+03  3.69790E+04
 -2.19704E+04  3.14429E+04 -3.28691E+04  1.28909E+04 -2.10665E+04 -7.15838E+03 -3.16075E+02 -1.42796E+04
 -1.19711E+03  1.90048E+03 -3.03663E+03  8.85480E+03 -1.70613E+04  6.83354E+02 -1.62856E+04 -4.57796E+03
 -9.07646E+03 -1.98947E+04  6.30228E+02 -2.38968E+04  1.26529E+04 -2.35257E+04  1.85085E+04 -3.60669E+03
  1.30925E+04  1.54025E+04  1.63485E+03  2.14485E+04 -1.42421E+04  6.17907E+03 -2.14702E+04 -1.13149E+03
 -1.81379E+04 -2.05202E+04 -7.64006E+03 -2.40534E+04  1.37357E+04 -2.01457E+04  2.26530E+04 -8.24230E+03
  2.06373E+04 -1.12579E+03  1.27610E+04  1.74662E+03  1.00230E+04  7.07761E+02  5.67134E+03 -2.50058E+03
  2.24219E+04  2.88789E+03  1.63211E+04  1.47470E+04  1.35876E+04  3.25621E+04 -4.73908E+03  4.52481E+04
 -1.83763E+04  3.17995E+04 -3.76286E+04  1.74363E+04 -3.63854E+04 -2.13508E+03 -3.28819E+04 -2.19894E+04
 -1.52136E+04 -3.19766E+04  1.44293E+04 -3.04663E+04  2.49973E+04 -1.33831E+04  2.01307E+04  7.93460E+03
  1.09826E+04  1.57078E+04 -1.13977E+04  1.66082E+04 -1.97587E+04  1.17319E+03 -1.60320E+04 -1.27639E+04
  4.12076E+03 -2.12083E+04  9.41443E+03 -1.61425E+04  9.72024E+03 -1.94281E+02  1.83272E+03  2.12908E+03
  1.69398E+02  4.24078E+03 -6.94553E+03 -5.06094E+03 -2.00188E+03 -1.52511E+04  1.47172E+04 -1.84389E+04
  1.55134E+04 -9.23143E+03  1.98686E+04  5.50239E+03  1.75175E+04  1.90943E+04  9.45494E+03  2.51478E+04
  4.92389E+02  2.93206E+04 -1.92511E+04  2.04998E+04 -1.81686E+04  9.01761E+02 -1.13764E+04 -5.01502E+03
 -5.82468E+03 -5.01625E+03 -3.09507E+03 -6.90001E+03 -6.58614E+03  8.24262E+03 -5.06292E+03  3.42516E+02
 -1.84460E+04  2.18265E+03 -1.81191E+04 -1.03797E+04 -3.33315E+01 -1.65413E+04  6.45209E+03 -1.17388E+04
  9.73501E+03 -4.44916E+03  1.60405E+04 -2.29537E+03 -5.12897E+02 -1.93304E+03 -7.04122E+03  1.26033E+03
 -4.61257E+03 -8.35881E+03 -1.10294E+03 -9.80000E+03  3.94048E+03 -1.09538E+04  1.96805E+04 -7.13379E+03
  2.29565E+04  5.61476E+01  1.28825E+04  1.55145E+04  9.62389E+02  1.48803E+04 -3.51105E+03  1.10328E+04
 -1.03825E+04  9.28976E+02  7.81373E+02  1.24826E+03  1.88041E+03 -3.18004E+03  1.71637E+03  2.46447E+03
  7.09171E+03  8.12510E+03 -2.03204E+03  1.35370E+04 -9.85964E+03  5.85886E+03 -1.35033E+04  7.60339E+01
 -1.11049E+04 -7.76249E+03  3.52789E+03 -1.19241E+04  6.90471E+03 -4.97021E+03  1.00710E+04 -2.55364E+03
 -3.62723E+02  9.52220E+02 -1.06561E+04  6.58053E+03 -1.35058E+04  4.19572E+03 -1.21617E+04 -2.02145E+03
 -4.78874E+03 -1.08494E+04  6.08772E+03 -1.00361E+04  1.19981E+04 -1.00157E+04  1.79781E+04  2.32233E+03
  1.32364E+04  8.64042E+03 -1.08618E+03  2.22430E+04 -3.62810E+03  9.19095E+03 -9.66049E+03 -3.18233E+03
 -1.04614E+04 -3.61688E+03 -6.03360E+03 -1.50561E+04  5.38661E+03 -2.73095E+03  5.54222E+03 -4.76468E+03
  9.49429E+02  2.60701E+03 -3.26610E+03  2.49268E+03 -1.50883E+03 -2.47189E+03 -1.99373E+02 -6.94527E+03
  1.09344E+04 -5.12640E+03  1.21985E+04 -4.24253E+03  1.47927E+04  1.09232E+04  1.33935E+04  1.19310E+04
 -3.88655E+03  1.47092E+04 -1.90469E+04  1.83009E+04 -2.86941E+04  3.99690E+03 -1.85945E+04 -5.54727E+03
 -1.11874E+04 -1.38853E+04 -4.36296E+03 -1.58425E+04  2.73538E+03 -7.36397E+03  4.00212E+03 -2.05625E+03
  6.08998E+03 -1.64908E+03 -5.87343E+02 -3.73430E+03  3.28011E+03 -5.47968E+03  1.29646E+04 -3.59096E+03
  4.39872E+03  7.65928E+02  4.35052E+03  5.73709E+03 -5.65658E+03  1.15340E+04 -1.23744E+04  6.85703E+03
 -1.41017E+04 -3.40955E+03 -1.08159E+04 -9.75532E+03 -4.57852E+03 -6.78585E+03  7.25734E+03 -1.51297E+04
  1.37451E+04 -1.00123E+04  2.12722E+04  2.97434E+03  8.26660E+03  9.10418E+03  2.02049E+03  6.89779E+03
 -3.69518E+03  1.22318E+04 -1.07725E+04  3.68424E+03 -5.56597E+02  1.13730E+03  2.10050E+03 -9.92537E+03
  1.79509E+03  3.01296E+03 -3.49492E+03  5.65647E+02 -6.01814E+03 -1.17425E+01 -7.16027E+03 -4.47115E+03
 -8.37816E+03 -3.78040E+03  1.48436E+03 -1.44173E+04  7.28933E+03 -1.22922E+04  1.04679E+04 -3.61433E+03
  1.51214E+04  1.53978E+03  3.61140E+03  1.03168E+04 -1.49516E+02  9.35001E+03 -6.07546E+03  5.24584E+03
 -9.45511E+03 -9.08660E+02 -6.18436E+03 -6.48951E+03 -2.95879E+03 -1.43566E+04  9.94910E+03 -1.00021E+04
  4.76319E+03  1.39707E+03  1.82524E+03  5.32657E+03  3.85488E+03  1.16280E+04  1.86871E+02  1.71646E+03
  1.16509E+04 -7.77690E+02  2.87748E+03  1.28967E+03  2.25163E+03  4.81401E+03  3.77673E+03  9.39877E+03
 -6.69203E+03  1.35954E+04 -7.10570E+03  1.18683E+04 -1.20642E+04 -2.98626E+03 -1.30771E+04 -1.76491E+02
 -4.02420E+03 -1.62420E+04 -3.30849E+03 -1.41500E+04  5.19924E+03 -2.85622E+03  1.26076E+04 -4.48435E+03
  6.44620E+03  4.38301E+03  1.36372E+03  3.52173E+03 -3.25011E+03 -1.49230E+03 -8.95412E+03 -8.97031E+02
 -4.53774E+03 -2.06058E+03  8.95369E+02 -8.34843E+03  9.79291E+03 -7.65631E+03  3.14109E+03  2.08787E+03
 -3.22762E+03  3.62177E+03 -6.76530E+01  6.82337E+03 -3.91339E+03  1.37432E+02  4.34803E+03 -5.03665E+02
 -2.25440E+03 -1.84793E+03  4.89679E+03  3.89699E+03  1.23080E+04  9.36822E+03 -2.40352E+03  1.03656E+04
 -4.62782E+03  4.76022E+03 -5.26155E+03  5.08203E+03 -8.13517E+03 -7.40548E+03 -5.42110E+03 -7.10866E+03
 -4.60048E+03 -1.61550E+01  2.10407E+03 -8.43448E+03 -1.67356E+03  5.76186E+03 -4.65850E+03  3.28500E+03
 -4.35015E+03  6.48830E+03 -8.08802E+03 -3.42987E+03 -3.27367E+03 -8.52473E+03 -1.30954E+02 -6.57182E+03
  4.48585E+03 -6.76487E+03  1.03680E+04 -2.26825E+03  6.30173E+03  3.70643E+03  4.63702E+03  8.71449E+03
 -1.86382E+03  3.75010E+03 -2.92847E+03 -5.59484E+03  1.38688E+03 -6.61711E+03  3.82990E+03 -3.76179E+03
  5.35682E+03  4.28220E+02  3.09662E+03  4.13218E+03 -9.54598E+02  9.15063E+03 -4.97689E+03  8.67958E+03
 -3.27574E+03  5.00528E+03 -8.51158E+03  4.72617E+02 -5.39777E+03 -1.16928E+03  9.75053E+03 -4.10285E+03
  8.53568E+03  2.05397E+03 -1.74377E+03  4.72917E+02  1.68779E+03 -5.77876E+03  1.21173E+03 -4.87875E+02
  2.02499E+03  2.66448E+03  1.65693E+03 -2.80882E+03 -8.57792E+02  8.36486E+03  2.08655E+03  8.62128E+03
  2.25278E+03 -9.24589E+01 -5.67726E+03  4.29541E+03 -1.28462E+04  7.36136E+02 -1.38524E+04 -1.08339E+04
 -9.33323E+02 -1.38525E+04  5.16552E+03 -1.12235E+04 -2.40419E+02 -8.74525E+03  1.71710E+04 -8.82437E+02
  1.52075E+04  2.08986E+03  8.16495E+03  6.43801E+03  7.22984E+02  7.51359E+03 -7.03235E+03  1.01631E+04
 -9.82435E+03  3.49118E+03  1.29580E+03  2.38004E+03  4.06399E+03  8.88872E+02  3.68454E+03 -3.25529E+03
 -2.14835E+03  4.38351E+03 -9.42358E+02  7.40967E+02  2.03763E+03 -7.55027E+02  1.12014E+03 -2.82080E+03
  2.38634E+03 -4.11710E+03  1.01584E+04  6.54638E+03  7.29789E+03  5.92630E+03 -4.32744E+02  1.31605E+03
 -4.61651E+03  9.38359E+03 -9.57930E+03  8.93693E+03 -1.04677E+04 -2.30971E+03 -7.22554E+03 -2.35074E+02
 -9.07731E+03 -4.67217E+03 -2.81500E+02 -6.78344E+03  4.29119E+03 -3.66749E+03  1.87618E+03 -1.88613E+03
  1.88629E+03  1.57659E+03 -2.84432E+03  1.22180E+03  2.49213E+03  8.59313E+02 -1.85758E+03  2.20063E+03
  3.97530E+03 -2.41402E+03  9.43605E+03 -1.06578E+03  1.02363E+04  1.73926E+03 -1.27415E+03  6.11950E+01
 -5.67733E+03  3.10731E+03 -2.76560E+03 -2.66328E+03 -3.79101E+03  1.08372E+03 -5.62396E+03 -4.83449E+03
  6.41753E+03 -2.38581E+03  6.62253E+03 -2.73284E+03  4.23355E+03 -1.58995E+03  3.65776E+03  2.14263E+03
 -6.98058E+02  5.49531E+03 -9.72734E+03  3.79247E+03  2.06220E+03  4.23076E+03 -3.18703E+03  1.74402E+03
  9.86209E+02 -4.05459E+03 -2.01495E+03  4.13003E+03  2.22089E+03 -1.24045E+03 -7.33589E+03 -2.21086E+03
 -4.39591E+03 -1.81327E+03 -3.63196E+03 -7.04401E+03  7.14877E+03 -6.70810E+03 -4.68517E+03 -8.80253E+02
  2.63017E+03  1.98816E+03 -2.70199E+03  8.68826E+03 -3.17665E+03  4.00528E+03 -7.11514E+02  2.77775E+03
