 $NMID ID='MM_0lb_SNR50_14hz_g60_56.RAW', FMTDAT='(8E13.5)'
 TRAMP=1., VOLUME=1. $END
  3.09071E+05  4.54459E+03  3.36661E+05  2.51045E+05  8.45027E+04  3.35826E+05 -1.30731E+05  2.49665E+05
 -1.91697E+05  8.43513E+04 -1.08227E+05 -3.24538E+04 -1.62391E+03 -5.16646E+04  5.23749E+04 -4.71294E+03
  3.20988E+04  4.85348E+04 -1.36504E+04  7.70407E+04 -5.89222E+04  6.08491E+04 -8.70587E+04  3.22138E+04
 -7.94785E+04 -1.25046E+04 -5.52400E+04 -5.26981E+04 -1.78956E+04 -6.63918E+04  2.85900E+04 -4.73823E+04
  3.98482E+04  3.61530E+03  1.05475E+04  4.60948E+04 -3.35718E+04  4.34746E+04 -6.75794E+04  9.62175E+02
 -5.56210E+04 -5.55220E+04 -3.16988E+03 -7.54285E+04  3.78359E+04 -6.11259E+04  4.95847E+04 -1.87096E+04
  4.54289E+04  1.19690E+04  3.42190E+04  2.50788E+04  1.80645E+04  2.88288E+04 -6.53390E+03  2.52747E+04
 -2.34884E+04  1.49243E+04 -1.54417E+04 -2.35641E+03  9.71636E+03 -1.38208E+04  2.51788E+04  9.43799E+03
  6.18051E+03  3.19936E+04 -3.26872E+04  3.45682E+04 -6.66694E+04  3.08381E+02 -5.96526E+04 -4.26928E+04
 -7.99597E+03 -5.79836E+04  4.03133E+04 -4.57713E+04  5.80574E+04 -3.95126E+03  3.66820E+04  3.08469E+04
 -4.58644E+03  3.26242E+04 -3.43101E+04  1.72495E+04 -3.50526E+04 -7.80443E+03 -1.28712E+04 -1.46396E+04
 -6.18368E+03 -1.19114E+04 -1.88436E+03 -1.86719E+04  5.23631E+03 -2.02612E+04  1.10307E+04 -1.03579E+04
  1.28748E+04  5.11291E+03 -1.13352E+04  6.09646E+03 -2.17427E+04 -7.20334E+03 -1.16561E+04 -3.75816E+04
  2.27883E+04 -4.40273E+04  5.29014E+04 -2.52796E+04  4.61708E+04  2.03645E+04  2.14640E+04  4.48108E+04
 -1.74687E+04  3.59681E+04 -2.81807E+04 -8.23809E+02 -1.03213E+04 -2.89788E+04  2.31916E+04 -3.37149E+04
  4.21333E+04 -8.02201E+03  3.98187E+04  2.54609E+04  2.00016E+04  5.09071E+04 -8.62331E+03  5.50892E+04
 -3.57465E+04  3.37932E+04 -4.49255E+04  1.22698E+04 -4.54705E+04 -1.79645E+04 -2.61121E+04 -3.71217E+04
  4.52740E+03 -4.37505E+04  3.74334E+04 -1.38309E+04  3.13154E+04  1.00205E+04 -5.87469E+02  2.17893E+04
 -1.67226E+04  1.05012E+04 -1.10696E+04 -1.11780E+04  6.52641E+03 -4.73815E+03  1.94899E+04  6.09712E+03
  1.09156E+04  1.97826E+04 -1.08754E+04  2.93558E+04 -2.49995E+04  1.18420E+04 -2.47124E+04 -6.05098E+03
 -1.59110E+04 -1.71879E+04 -6.13714E+03 -1.92864E+04  6.34049E+03 -2.58663E+04  1.77179E+04 -2.17224E+04
  2.91626E+04 -1.38155E+04  3.26264E+04  8.31200E+03  2.52654E+04  2.18443E+04  6.30292E+03  3.35606E+04
 -1.47923E+04  2.94756E+04 -3.25747E+04  1.13198E+04 -2.51337E+04 -1.04651E+04 -5.74099E+03 -1.27547E+04
  2.31214E+03 -1.70708E+03 -4.48837E+03  6.32872E+03 -1.44251E+04  6.37563E+03 -1.84164E+04 -1.01931E+04
 -1.22979E+04 -2.05284E+04  1.13234E+03 -2.04066E+04  2.01897E+04 -1.85923E+04  1.86319E+04  5.86669E+03
  1.46385E+04  1.12804E+04 -2.07645E+03  2.36091E+04 -1.59727E+04  1.21069E+04 -2.08419E+04 -6.89390E+03
 -6.39431E+03 -1.75086E+04 -2.87585E+03 -2.51343E+04  6.96985E+03 -2.00308E+04  2.22889E+04 -7.00883E+03
  1.76695E+04 -1.68040E+03  1.45481E+04  5.27618E+03  5.71139E+03  3.04254E+03  1.26340E+04 -7.62285E+02
  2.07544E+04  2.34482E+03  2.47299E+04  1.04450E+04  1.51642E+04  3.46445E+04 -1.25138E+03  3.56174E+04
 -2.00754E+04  2.30326E+04 -3.28773E+04  1.41406E+04 -3.32802E+04  2.19701E+02 -2.82844E+04 -2.28159E+04
 -9.90050E+03 -2.98571E+04  9.55777E+03 -2.11492E+04  2.41868E+04 -1.31408E+04  2.14420E+04  2.14929E+03
  3.73210E+03  1.80716E+04 -1.17375E+04  1.27743E+04 -1.94754E+04  6.92838E+03 -1.64066E+04 -8.43156E+03
 -3.29229E+03 -1.75765E+04  6.29920E+03 -1.64001E+04  1.39920E+04 -2.19969E+03  9.26458E+02 -2.06150E+02
 -4.38435E+03  3.72885E+03 -3.55904E+03 -9.41809E+03 -3.45112E+03 -1.21642E+04  9.74593E+03 -1.61872E+04
  1.73452E+04 -5.40468E+03  2.38864E+04  3.14449E+02  1.54335E+04  1.32451E+04  6.86918E+03  2.04524E+04
 -2.10605E+03  1.92660E+04 -2.03213E+04  1.45498E+04 -1.80774E+04  2.49612E+03 -1.25474E+04 -3.51573E+03
 -5.95448E+03 -7.25957E+03 -1.47881E+03  3.72294E+03 -2.98873E+03  2.28577E+03 -5.23030E+03  9.97006E+03
 -6.75565E+03 -1.27697E+03 -1.30480E+04 -3.52317E+03 -5.88492E+03 -1.48702E+04  9.67047E+02 -8.48197E+03
  8.90347E+03 -1.90609E+03  6.08881E+03  4.03167E+03 -6.31802E+02  4.25318E+03 -6.72532E+03 -9.16525E+02
 -2.41386E+03 -1.15084E+04  3.40657E+03 -1.54241E+04  8.14933E+03 -1.21442E+04  1.50519E+04 -7.93671E+03
  2.05043E+04  1.07158E+03  9.52461E+03  1.05783E+04  3.50289E+03  7.65801E+03 -1.16529E+04  1.71341E+04
 -1.02630E+04  4.19190E+02 -2.82332E+03 -6.50916E+02  2.66455E+03 -1.13930E+03  3.39375E+03  1.40128E+02
  7.16812E+03  3.73845E+03 -2.62806E+02  6.94057E+03 -7.59605E+03  7.34281E+03 -1.27305E+04  3.42541E+03
 -7.10842E+03 -5.81871E+03  3.84619E+03 -1.12751E+04  6.80263E+03 -2.79078E+03  6.08072E+03 -3.22388E+02
  4.34524E+03  7.73024E+03 -8.84967E+03  1.25867E+04 -9.60597E+03  6.10897E+03 -5.57325E+03 -5.13358E+03
 -2.18239E+03 -1.19461E+04  1.15603E+03 -1.46301E+04  1.37218E+04 -9.72697E+03  9.32558E+03  6.12127E+03
  5.47525E+03  9.88730E+03 -2.23765E+03  1.20667E+04 -7.05081E+03  4.09703E+03 -1.57174E+03 -5.50596E+03
 -7.14684E+03 -3.50266E+03 -8.48092E+02 -8.20605E+03 -2.69586E+03 -4.51916E+03  7.08108E+03 -3.75703E+03
  4.48499E+03 -9.11275E+02 -1.95281E+03  2.45320E+03 -8.23410E+02  1.85150E+03  5.06428E+02 -5.26837E+03
  5.46590E+03 -1.53147E+03  1.09094E+04 -2.67148E+01  1.23231E+04  4.69518E+03  5.88308E+03  9.43713E+03
 -2.85053E+03  1.97897E+04 -1.08571E+04  1.07471E+04 -1.83705E+04  7.74985E+02 -1.25250E+04 -6.04331E+03
 -1.34824E+04 -6.46051E+03  3.44808E+02 -7.02579E+03  2.70355E+03 -1.10441E+04  6.22139E+02  2.62962E+03
  5.41812E+03  2.13118E+02 -1.06795E+03 -1.91916E+03 -3.77718E+02 -2.69626E+03  2.97908E+03  1.41534E+03
  6.57877E+03  2.69884E+03 -2.30759E+03  7.58972E+03 -4.14320E+02  4.54187E+03 -6.72677E+03  2.71641E+03
 -3.64815E+03  2.22482E+03 -8.75055E+03 -8.01402E+03 -1.40028E+03 -9.20925E+03  7.40521E+03 -1.07247E+04
  9.44711E+03 -7.76678E+03  1.30149E+04 -1.10366E+03  7.37984E+03  5.26422E+03  3.09602E+03  1.65266E+04
  2.01722E+01  1.35012E+04 -9.21690E+03  8.91682E+03 -4.65830E+03  2.13543E+03  4.56713E+01  6.51222E+02
 -2.21396E+02  3.45589E+02 -3.92230E+03  3.14664E+03 -2.61864E+03  7.08103E+02 -1.08869E+04  2.06416E+03
 -6.06666E+03 -5.38446E+03  9.67638E+02 -9.66698E+03  5.82876E+03 -8.10000E+03  1.45314E+04 -3.18296E+03
  1.07903E+04 -1.24278E+03 -2.79632E+03  1.03741E+04  1.75542E+03  1.30410E+04 -2.72786E+03  3.22545E+03
 -3.00869E+03 -4.02823E+02 -8.72159E+03 -3.53314E+03 -4.65458E+03 -4.35883E+03  3.16279E+03 -1.28589E+03
  3.44055E+03 -9.01688E+03  4.98031E+03  1.37691E+03 -4.48062E+03  6.32723E+03  4.17238E+03  2.47495E+03
 -6.73119E+02 -1.17464E+03 -2.03766E+03  1.39188E+03  4.49898E+02  1.01221E+02 -1.44168E+03  5.01783E+03
  8.18845E+02  5.09865E+03 -3.02707E+03  1.31189E+04 -1.74511E+03  1.69189E+02 -1.17324E+04 -2.84039E+03
 -3.02084E+03 -9.20657E+03 -1.90213E+03 -1.53426E+04  1.46805E+03 -3.91271E+03  9.15206E+03 -2.46548E+03
  1.24966E+03  3.25808E+03  1.78984E+03  6.11011E+03 -2.34575E+03  3.36735E+03 -3.71024E+03 -3.32647E+03
  8.78580E+02  3.28794E+03  1.84884E+03 -4.75688E+03  4.49374E+03 -2.54258E+03  2.49162E+03  9.17971E+02
  1.76234E+03  4.94178E+03  4.92491E+03 -1.78150E+03 -3.27033E+01  3.01829E+03  3.64816E+03 -4.12781E+03
  3.38051E+03  4.73161E+03  2.71037E+03  7.01237E+03 -3.61282E+02  1.51641E+03 -1.29151E+03  4.25385E+03
 -9.75095E+02  7.66773E+03 -3.31659E+03  5.85616E+02 -1.00793E+04 -3.77483E+03 -3.72896E+03 -3.67974E+03
 -6.27480E+03 -6.19371E+03  2.29412E+03  3.68942E+03  2.25702E+02  1.49274E+03  1.37684E+03 -2.83306E+02
 -5.91749E+03  1.18544E+03  3.31771E+03  7.77291E+02 -5.67444E+03 -3.78061E+03 -7.63949E+02 -2.70625E+03
  4.18450E+03 -1.65410E+03  5.29807E+03  1.33974E+01 -5.99629E+02 -4.52817E+03  3.13431E+03  3.16026E+02
 -2.59809E+03  9.21551E+02 -1.84234E+03 -3.59831E+02 -7.05599E+02 -5.73932E+03  5.84458E+03 -5.12585E+03
  6.19781E+03  4.08396E+03  2.29765E+03 -4.65346E+02  1.99063E+03  3.21208E+03 -6.18833E+02  3.55956E+03
 -4.03420E+03  8.62994E+02 -7.50275E+03 -1.42453E+03 -6.24805E+03 -4.06787E+02  5.11441E+02 -1.71478E+03
  3.98366E+03 -1.62743E+02  1.58928E+03 -1.26764E+03 -3.12469E+03  2.49509E+03 -1.88234E+02 -7.68870E+02
  4.32091E+02 -2.49216E+03  1.94422E+03  3.99211E+03 -3.81119E+01  1.61794E+03 -8.96208E+02 -2.65508E+03
  4.48364E+02 -9.51141E+02  2.39499E+03  1.31513E+03 -2.31888E+03 -3.84952E+03 -5.00805E+03  1.29836E+03
 -3.32956E+03 -8.87281E+03  5.97590E+02 -3.03949E+03  5.07117E+03 -5.27170E+03  8.04374E+03 -2.71230E+03
  2.25234E+03  1.41409E+03  5.56124E+03  3.99891E+03  1.34115E+03  6.24286E+03  9.12805E+02  4.93992E+03
  7.20884E+02  6.89583E+03 -1.01907E+03  1.54607E+02  1.82943E+03 -1.45470E+03  7.60796E+02  3.82685E+03
 -5.05691E+02 -4.65581E+02  5.73096E+02 -4.95571E+02  5.63323E+02 -5.54488E+03  4.41132E+02 -5.16025E+03
  4.05934E+03 -1.38358E+03 -3.25732E+03 -1.28489E+03  1.62659E+03  2.19686E+03  2.42567E+03  5.29099E+03
  1.80416E+03  7.46205E+03 -3.24692E+03  4.54396E+02 -1.87598E+03 -2.32483E+03 -2.39034E+03 -8.04974E+03
 -3.26491E+03 -7.02764E+03  3.29524E+03 -1.07336E+03  3.80685E+03 -4.50028E+03  5.54040E+03  1.79005E+03
  5.64115E+03  3.53061E+03 -3.96914E+03 -1.02821E+03  3.93819E+02  1.09535E+03  1.22354E+03  1.80856E+03
  3.54356E+03 -3.43652E+03 -7.30176E+01  9.36896E+01  2.52417E+03 -4.67244E+02  1.85259E+03  3.99871E+03
 -3.90380E+03  3.71306E+03 -3.15016E+03 -4.57653E+03 -2.24254E+03  8.88482E+02 -2.29990E+03 -3.96001E+03
  3.65449E+03 -3.12239E+03 -4.46742E+02  1.45291E+03  1.34389E+03 -2.01087E+03  1.55032E+03  3.04016E+03
 -1.43564E+03 -1.94333E+03  4.52595E+02  5.04530E+03  2.38507E+03 -2.14799E+03  1.21882E+03  4.00422E+03
 -2.34192E+03 -9.45370E+02 -1.69579E+03 -8.77031E+02 -6.00398E+02  1.88948E+01 -4.04067E+03  7.06528E+02
 -2.26347E+03 -1.47380E+03  6.60791E+02 -4.62947E+03  2.18719E+03 -6.12398E+03 -8.23398E+02  2.95221E+03
  1.22561E+03  6.07128E+03 -8.95290E+02  5.63627E+03 -5.30489E+03 -7.22579E+02 -2.80668E+03 -7.38123E+00
