 $NMID ID='MM_0lb_SNR50_20hz_g60_60.RAW', FMTDAT='(8E13.5)'
 TRAMP=1., VOLUME=1. $END
  3.08015E+05  2.50440E+03  3.39466E+05  2.46386E+05  8.16985E+04  3.39771E+05 -1.33142E+05  2.47371E+05
 -1.89499E+05  8.53739E+04 -1.09955E+05 -3.27409E+04  2.49836E+02 -5.16257E+04  5.40515E+04 -3.65491E+03
  3.42003E+04  5.19904E+04 -1.87045E+04  7.30331E+04 -6.07623E+04  6.11001E+04 -8.23260E+04  3.54618E+04
 -7.96294E+04 -1.13378E+04 -5.84358E+04 -4.73668E+04 -1.68598E+04 -6.37278E+04  2.60258E+04 -4.68088E+04
  3.87321E+04  2.28061E+03  1.84167E+04  5.13424E+04 -3.11336E+04  4.87935E+04 -6.32928E+04 -2.11251E+03
 -5.70396E+04 -5.64197E+04 -5.31158E+03 -7.43947E+04  3.55409E+04 -5.26504E+04  4.85409E+04 -1.82942E+04
  4.22706E+04  9.40147E+03  3.11121E+04  2.47699E+04  1.06945E+04  2.89620E+04 -1.17344E+04  2.51591E+04
 -2.21393E+04  1.37874E+04 -2.02245E+04 -7.81960E+03  4.94838E+03 -3.45338E+03  2.07217E+04  1.37610E+04
  6.95551E+03  3.44829E+04 -3.37914E+04  3.35580E+04 -6.27664E+04 -1.72137E+02 -5.83007E+04 -4.04703E+04
 -1.42219E+04 -5.76152E+04  3.68672E+04 -4.60994E+04  6.01611E+04 -2.55746E+03  3.23454E+04  3.13259E+04
 -9.55087E+03  3.49278E+04 -3.02122E+04  1.35115E+04 -2.58577E+04 -2.17278E+03 -1.34954E+04 -1.03040E+04
 -5.71433E+03 -1.47214E+04  1.65031E+03 -1.68235E+04  1.18735E+04 -2.30782E+04  1.61855E+04 -1.50945E+04
  6.83405E+03  3.14460E+03 -7.66801E+03  1.57560E+04 -1.97346E+04 -1.70310E+03 -9.26742E+03 -3.25029E+04
  2.02775E+04 -4.04118E+04  4.65787E+04 -2.14272E+04  4.09739E+04  1.49995E+04  1.06489E+04  4.32804E+04
 -1.23187E+04  2.86700E+04 -2.13989E+04  9.77982E+02 -7.92020E+03 -2.51280E+04  1.53434E+04 -2.79194E+04
  4.05855E+04 -6.32790E+03  3.02139E+04  2.17675E+04  1.37000E+04  4.33816E+04 -6.50209E+03  4.80251E+04
 -2.85399E+04  3.05719E+04 -3.90328E+04  1.06422E+04 -3.63433E+04 -1.38631E+04 -2.74901E+04 -3.13513E+04
  5.25357E+03 -3.41731E+04  3.39483E+04 -9.07799E+03  2.35916E+04  1.28458E+04  4.17380E+03  1.56101E+04
 -1.62284E+04  5.23350E+03 -6.44592E+03 -3.47529E+03  6.73620E+03 -1.02218E+04  2.04400E+04  9.26915E+03
  1.16951E+04  2.26082E+04 -9.60486E+03  2.42684E+04 -1.93535E+04  9.83268E+03 -2.62727E+04 -5.14663E+03
 -2.24496E+04 -1.36108E+04 -5.70285E+03 -1.66093E+04  4.82904E+03 -1.23708E+04  1.35351E+04 -1.52407E+04
  2.10119E+04 -1.49293E+04  3.00108E+04  4.34322E+03  2.27790E+04  2.32305E+04  3.32527E+03  3.09473E+04
 -2.07488E+04  2.47483E+04 -2.55484E+04  7.06243E+03 -2.07976E+04 -7.02747E+03 -2.93869E+03 -1.45600E+04
  3.35027E+03 -1.88310E+03 -3.80965E+03  5.05466E+03 -1.47705E+04  5.85931E+03 -1.72328E+04 -6.84015E+03
 -1.14492E+04 -1.41013E+04  1.02643E+04 -1.93149E+04  1.12278E+04 -1.41843E+04  1.43911E+04 -1.53454E+03
  5.63957E+03  8.52196E+03  3.85552E+03  1.86827E+04 -1.01270E+04  8.86784E+03 -1.09644E+04 -2.59465E+03
 -1.20433E+04 -1.65373E+04  2.06656E+01 -1.69469E+04  1.21436E+04 -1.74291E+04  1.48419E+04 -5.61130E+03
  1.38165E+04 -2.39250E+03  7.29584E+03  2.11631E+03  5.80895E+03  1.44831E+03  1.02677E+04 -7.56268E+02
  1.53995E+04  1.05656E+03  1.79932E+04  1.16097E+04  6.26708E+03  2.48102E+04 -7.58305E+03  2.73185E+04
 -1.43132E+04  2.11933E+04 -1.84590E+04  6.63567E+03 -2.45707E+04 -3.68530E+03 -2.15545E+04 -1.71560E+04
 -8.08903E+03 -2.02963E+04  5.53703E+03 -1.66576E+04  1.71661E+04 -1.25586E+04  1.87734E+04  4.14910E+03
  6.95740E+03  1.39997E+04 -6.53376E+03  1.10047E+04 -9.39532E+03 -1.51539E+03 -1.73916E+04 -3.99002E+03
 -4.05844E+03 -1.24061E+04  2.40439E+03 -1.05245E+04  7.85468E+03 -2.22802E+03  3.19451E+03  5.13378E+03
 -6.08505E+03 -2.29274E+03 -5.08553E+03 -5.65396E+03  2.79518E+03 -1.27558E+04  6.20251E+03 -8.61362E+03
  1.12789E+04 -3.00563E+03  1.42502E+04  2.49037E+02  9.49210E+03  1.04997E+04 -6.95718E+02  1.42652E+04
 -1.18569E+03  1.43008E+04 -8.99087E+03  1.02083E+04 -1.08800E+04  5.04520E+03 -1.05189E+04 -1.28521E+03
 -5.13311E+03 -4.75010E+03 -3.37434E+03  3.09500E+03 -3.89534E+03  1.03215E+03 -5.92793E+02  1.93985E+03
 -8.32592E+03  1.02086E+03 -9.03168E+03 -4.21507E+03 -3.47582E+03 -1.05894E+04  3.60874E+03 -7.78490E+03
  6.50083E+03 -3.20444E+03  7.79005E+03  6.19829E+03 -1.49257E+03  3.91977E+03 -4.46540E+03  1.07252E+03
 -5.64501E+03 -4.44444E+03 -6.63048E+03 -5.10996E+03  3.60113E+03 -7.78527E+03  9.94619E+03 -5.13468E+03
  1.32007E+04 -3.33964E+02  7.85548E+03  7.72723E+03  1.82445E+03  5.72223E+03 -4.40890E+03  6.84529E+03
 -6.41347E+03  2.62084E+03 -8.09206E+03  3.29721E+02 -1.42303E+03 -2.19801E+03  6.18315E+03 -1.44347E+02
  3.94211E+03  1.39930E+03  5.44574E+02  6.11061E+03  7.52895E+02  3.91971E+03 -7.10452E+03  3.30444E+02
 -6.39178E+03  2.50386E+03 -3.06879E+03 -7.47423E+03 -1.29504E+03 -1.97247E+03  8.41953E+02  4.15580E+03
 -1.92582E+03  8.11169E+02 -4.52128E+03  2.26961E+03 -5.43291E+03  8.40665E+02 -4.06631E+03  2.95456E+03
 -5.29867E+03 -9.20874E+03  2.69909E+03 -7.52264E+03  5.66343E+03 -9.89949E+02  7.39259E+03  1.55935E+03
  2.55054E+03  6.67958E+03  1.63068E+03  5.16860E+03 -6.00285E+03  8.93528E+03 -7.19963E+03  3.41906E+03
 -2.46838E+03 -7.82784E+02 -3.20242E+03 -4.95443E+03 -9.30996E+01 -8.91065E+03  1.35466E+03 -6.59285E+03
  4.48318E+03 -2.37179E+03 -8.03608E+02 -8.97011E+02  2.56499E+03 -2.61887E+03  7.85153E+02 -5.62447E+03
  2.97758E+03 -8.39620E+02  5.61761E+03  4.06667E+03  4.02162E+03  2.64741E+03  7.40561E+03  9.63166E+03
  1.39599E+03  6.24818E+03 -7.66452E+03  5.38785E+03 -1.38618E+04 -3.40336E+03 -5.21428E+03  1.82683E+02
 -3.78273E+03 -4.64439E+03 -2.37625E+03 -9.99729E+02  6.12223E+02 -2.93902E+01  4.25113E+02 -2.94357E+03
  2.37850E+03 -9.62908E+02  3.51080E+03  1.02047E+03  4.66197E+03 -3.46980E+03 -1.48720E+03 -1.31980E+03
  3.23800E+03  1.76547E+03 -1.91519E+03  4.88917E+03 -3.09532E+03  3.84584E+03 -2.74559E+03  7.48074E+03
 -2.14023E+03 -6.04139E+02 -2.38599E+03 -4.16829E+03 -3.61333E+03 -3.95886E+03  2.95761E+03 -5.07199E+03
  9.08405E+03  1.25747E+03  8.95979E+03 -9.64091E+02  1.71440E+03  7.75841E+03 -6.73451E+02  7.04819E+03
 -3.02506E+03  9.29299E+03  2.56280E+03 -2.49713E+02 -1.89485E+03 -4.64727E+02 -5.88896E+02  5.59259E+02
  1.76767E+03  7.73616E+03  1.60025E+03  2.87892E+03 -4.01297E+03  2.14434E+03 -3.11390E+03  4.92695E+02
  5.98962E+02 -5.57898E+03 -1.65611E+03 -3.66545E+03 -1.41894E+03 -1.33748E+03  2.65076E+03 -1.48466E+03
  4.64728E+03  1.99148E+03  2.93773E+03  5.37274E+03  8.08973E+02  4.78886E+03 -3.63885E+03  1.65446E+03
 -4.84417E+03 -3.62702E+03 -2.19674E+03 -2.94501E+03 -3.30701E+03 -6.18796E+03  1.46385E+03 -3.44721E+03
  4.44186E+03 -3.28788E+03  2.26385E+03  3.16769E+03  1.59634E+03  4.69807E+03 -6.45466E+02  1.12973E+03
  5.41725E+03 -2.08251E+03  7.00791E+03  2.80325E+03 -3.29905E+02  3.94977E+03  2.20567E+03  1.91466E+03
 -2.46789E+02 -1.22307E+03  1.16500E+03  2.49261E+03  2.51627E+02  2.31010E+03 -4.99589E+03  1.38957E+03
  2.61450E+03  3.84214E+02  4.46386E+03 -4.08006E+03  1.51699E+03 -2.74930E+03  1.42136E+03 -1.74677E+03
  8.68236E+03 -2.38306E+03 -2.10423E+03  3.34377E+03 -1.43006E+03  1.12239E+03 -4.29032E+02  4.85127E+02
 -3.22576E+02 -1.82423E+03  3.73881E+03 -2.01357E+03 -1.46305E+03 -1.29617E+03  3.66224E+03 -9.22708E+02
  4.11724E+03 -2.62650E+03 -1.40058E+03 -1.39005E+03  1.13457E+03  5.76360E+01 -3.55949E+03  4.59813E+02
  1.34651E+03  7.11217E+02 -3.88695E+03 -4.60075E+01 -4.97950E+01  2.95850E+03  1.22338E+02 -2.29957E+03
 -3.75974E+03 -2.12284E+03  7.87980E+02  1.12632E+03 -3.14380E+03  1.86857E+03  6.81892E+02  1.22006E+03
  2.23070E+03  2.36590E+03  7.74382E+02  8.49868E+02  2.18767E+03  2.52473E+03  5.51394E+02  5.39172E+03
 -3.56839E+03  3.33495E+02 -8.40204E+02  6.16911E+02  6.86914E+02 -2.40362E+03  3.44538E+03  5.64469E+02
 -2.93940E+02 -7.03218E+02 -5.00205E+03  1.16418E+03  1.49778E+03 -2.04580E+03  2.16775E+03  1.64579E+03
 -1.67287E+03 -2.25280E+03  1.63297E+03  7.43508E+02 -1.84811E+03 -9.14137E+02 -1.95130E+02  7.53707E+02
 -1.49029E+02 -4.82062E+02  3.96720E+03  2.75640E+03  3.25964E+02 -1.03829E+03 -8.14685E+02  4.39189E+03
 -1.43210E+03 -1.63448E+03 -1.28090E+03 -2.92013E+03  2.59997E+02 -7.80884E+03  6.19657E+02  1.06843E+03
  2.92005E+03 -1.93382E+03 -2.59542E+03  4.03886E+03  4.16719E+03  1.03172E+03  1.44389E+03  2.46351E+03
  1.22908E+03 -6.73559E+02  1.64955E+03  8.17812E+02 -4.41149E+03  2.01356E+03  1.31304E+03  2.13978E+03
 -1.73388E+03 -3.01360E+03  3.16686E+02  4.23667E+03 -4.97439E+03  1.21738E+03 -5.19333E+02 -1.77236E+03
 -1.59370E+02  1.59933E+03  2.44775E+03  9.59806E+02  1.71812E+03 -2.81279E+02 -1.70747E+03 -2.24837E+03
 -8.06755E+01 -4.11452E+03  1.18776E+03 -2.98150E+03 -5.21718E+02 -1.72446E+03  2.24424E+03  4.36082E+03
  1.19706E+03 -8.38866E+02 -3.50809E+03 -4.86082E+02  8.85558E+02  3.67105E+03  4.80388E+02  1.54760E+03
 -5.53717E+02 -3.13067E+03 -2.52955E+03  9.17320E+02 -2.05154E+02 -6.89861E+03  2.07243E+03  2.16202E+03
  2.68644E+03  6.59801E+02 -2.68664E+02  2.14706E+03 -2.15750E+03 -1.95907E+03  2.30413E+03  5.11430E+02
  5.23508E+02  2.42194E+03 -8.14581E+02  1.26046E+03 -2.74416E+03 -3.17036E+03  1.98655E+03 -3.82009E+03
  7.55751E+02 -5.03581E+03  1.00671E+03  2.55641E+03  1.72208E+03 -1.32042E+02  5.79330E+03  1.89417E+03
 -2.78462E+03 -2.04053E+03  3.72188E+02 -1.00521E+03  4.30787E+03 -3.69715E+03  3.81358E+02 -3.60624E+03
 -4.14191E+02 -1.67223E+03 -5.27953E+02 -1.22744E+03 -2.51374E+03  2.65805E+03  2.11048E+02 -1.46536E+02
 -1.62790E+03  3.40516E+02  8.83613E+02 -6.17137E+03  3.26831E+03  2.35656E+03  1.94346E+02  2.28460E+03
  2.00814E+03  1.88457E+03 -3.11881E+03 -1.49399E+02 -2.14296E+03 -2.96103E+03  1.29635E+03  8.86351E+01
 -6.19055E+02  1.26527E+03  2.41329E+03 -2.74086E+03  1.48884E+03  4.21297E+03  1.30123E+03 -7.87297E+02
  1.17308E+03  7.68366E+02  8.26395E+01  5.30844E+01 -1.31682E+03  3.03652E+02 -1.83922E+02 -1.73236E+03
 -4.08370E+02  2.25784E+03  1.23664E+03 -8.11600E+02 -6.70301E+02 -2.95770E+03 -1.39453E+02  9.11803E+02
  1.30493E+03 -3.52924E+03 -3.79295E+03  3.05412E+03  2.10848E+03  3.84118E+02 -3.83825E+03  3.32187E+03
