 $NMID ID='MM_0lb_SNR50_13hz_g60_83.RAW', FMTDAT='(8E13.5)'
 TRAMP=1., VOLUME=1. $END
  3.07430E+05 -3.16339E+02  3.37622E+05  2.49384E+05  8.92722E+04  3.36859E+05 -1.30244E+05  2.52964E+05
 -1.81570E+05  8.16424E+04 -1.11963E+05 -3.52000E+04 -3.26353E+02 -5.37297E+04  5.05380E+04  1.58937E+03
  3.92389E+04  5.24513E+04 -1.59387E+04  7.88458E+04 -5.75117E+04  6.26464E+04 -8.61736E+04  3.47715E+04
 -7.95448E+04 -9.22714E+03 -6.16737E+04 -5.37037E+04 -1.02403E+04 -6.84528E+04  3.16777E+04 -4.29451E+04
  4.60724E+04  4.04451E+03  1.69417E+04  4.69444E+04 -3.30578E+04  5.33195E+04 -7.09670E+04  1.67755E+03
 -5.17694E+04 -5.38865E+04 -9.36219E+03 -7.77445E+04  3.52516E+04 -5.96454E+04  4.61443E+04 -1.97248E+04
  4.41816E+04  1.18148E+04  3.38766E+04  3.06535E+04  1.43814E+04  2.93233E+04 -5.25767E+03  2.34716E+04
 -2.26523E+04  1.55519E+04 -2.05896E+04 -1.16079E+04  6.32248E+03 -1.08448E+04  2.29292E+04  1.73480E+04
  9.54241E+03  3.39744E+04 -2.96715E+04  3.20137E+04 -6.87803E+04  3.18508E+02 -5.99219E+04 -4.70159E+04
 -1.62920E+04 -6.43896E+04  4.27542E+04 -4.89058E+04  6.08670E+04 -1.33250E+03  3.20395E+04  3.13303E+04
  2.44831E+03  3.94676E+04 -3.55276E+04  1.93556E+04 -3.46449E+04 -2.60673E+02 -2.27730E+04 -9.08810E+03
 -1.25621E+04 -1.75064E+04 -6.80161E+02 -1.97952E+04  4.07674E+03 -2.50870E+04  1.76968E+04 -1.22533E+04
  1.22468E+04  2.90844E+03 -5.87970E+03  1.14757E+04 -2.34941E+04 -7.80517E+03 -1.21355E+04 -3.37826E+04
  2.16565E+04 -4.40517E+04  4.95430E+04 -2.02333E+04  5.01535E+04  2.24711E+04  1.78736E+04  4.62703E+04
 -1.52979E+04  3.55691E+04 -2.80758E+04  5.25619E+03 -1.19831E+04 -2.89336E+04  2.61454E+04 -4.20464E+04
  4.13296E+04 -1.39781E+04  3.75537E+04  2.05849E+04  2.34482E+04  5.06717E+04 -8.62900E+03  5.67909E+04
 -3.75619E+04  3.62260E+04 -4.17462E+04  6.92169E+03 -4.41403E+04 -1.58774E+04 -3.00713E+04 -3.85895E+04
  6.18559E+03 -4.18104E+04  2.64159E+04 -1.61329E+04  3.10882E+04  8.84359E+03  2.47622E+03  2.09317E+04
 -1.16427E+04  9.06251E+03 -1.03821E+04 -1.19312E+04  8.13520E+03 -8.15973E+03  1.94404E+04 -2.43948E+02
  1.09245E+04  2.11636E+04 -2.99695E+03  2.64141E+04 -2.08375E+04  1.43618E+04 -3.08325E+04 -3.60736E+03
 -2.03549E+04 -1.91222E+04 -1.23848E+04 -2.51079E+04  3.22003E+03 -2.13180E+04  2.02019E+04 -1.95127E+04
  2.73942E+04 -1.19791E+04  3.65705E+04  6.91746E+03  3.06704E+04  2.29455E+04  4.50174E+03  4.14774E+04
 -1.87418E+04  2.79670E+04 -2.88020E+04  1.44316E+04 -2.90456E+04 -5.83831E+03 -1.72381E+03 -1.33421E+04
  1.54625E+03  3.52292E+03 -8.02684E+03  5.61076E+03 -1.97766E+04  4.05218E+03 -1.96837E+04 -1.07664E+04
 -1.24681E+04 -2.83243E+04  7.60094E+03 -2.36001E+04  1.98848E+04 -1.51586E+04  2.03435E+04 -1.01077E+03
  1.57205E+04  1.31008E+04 -6.69656E+02  2.17946E+04 -1.22429E+04  1.30503E+04 -2.30285E+04 -5.47395E+03
 -1.71764E+04 -1.59657E+04  2.10550E+03 -2.40913E+04  1.08661E+04 -2.14689E+04  1.24595E+04 -1.12289E+04
  1.98641E+04 -2.57515E+02  1.58223E+04  9.04144E+03  1.06164E+04 -3.98329E+03  7.88185E+03  1.77007E+03
  1.55311E+04  3.75012E+03  2.25476E+04  1.74055E+04  1.76831E+04  3.74866E+04 -5.31546E+03  3.51482E+04
 -2.53388E+04  3.56801E+04 -3.66679E+04  1.64488E+04 -3.74592E+04 -5.37477E+03 -2.61276E+04 -2.50736E+04
 -1.45414E+04 -2.83996E+04  1.24929E+04 -2.59635E+04  2.24950E+04 -1.47515E+04  2.03974E+04  4.53257E+03
  8.60959E+03  1.79439E+04 -9.98550E+03  1.03001E+04 -1.82699E+04  4.29408E+03 -9.96912E+03 -8.70965E+03
 -4.07546E+03 -1.67416E+04  5.14131E+03 -1.46050E+04  1.04894E+04 -1.37487E+03  1.89993E+03  6.81686E+03
 -1.09099E+04  2.83551E+03 -1.17987E+04 -2.21840E+03 -5.80287E+03 -1.32574E+04  1.11941E+04 -1.53973E+04
  1.56453E+04 -7.12529E+03  2.51022E+04  3.46412E+03  1.95409E+04  1.60481E+04  3.07351E+03  2.18356E+04
 -4.59865E+03  2.13418E+04 -1.54009E+04  1.25836E+04 -2.04387E+04  6.17264E+03 -1.17349E+04 -7.75923E+02
 -2.02433E+03 -9.41640E+03 -3.96483E+03  1.70254E+03 -6.62251E+03  2.36122E+03 -8.26119E+03  1.34122E+03
 -8.35874E+03  4.81325E+02 -1.19954E+04 -1.05415E+04 -6.15377E+03 -1.59604E+04  5.99896E+03 -1.12720E+04
  9.84217E+03 -5.35994E+03  5.86636E+03  1.33455E+03 -3.77354E+03  5.46248E+03 -8.00514E+03  3.10035E+02
 -5.13897E+03 -1.40308E+04  1.32853E+03 -1.20559E+04  2.12728E+03 -1.17926E+04  1.37493E+04 -1.59049E+03
  2.31951E+04  7.12097E+03  1.30694E+04  8.38334E+03  7.38794E+03  1.54410E+04 -6.08780E+03  1.11655E+04
 -9.68308E+03  2.76864E+03 -8.17474E+03 -4.16770E+03  3.77146E+03  1.38729E+01  4.27948E+03 -2.97490E+03
  2.52494E+03  5.32496E+03  6.58061E+01  4.26547E+03 -6.29534E+03  5.63945E+03 -1.20990E+04 -1.59116E+03
 -7.94272E+03 -9.25983E+03 -1.64012E+03 -4.96673E+03  8.01929E+03 -4.75021E+03  3.18722E+03  9.75598E+02
  1.08037E+03  9.96689E+03 -1.37656E+03  5.58089E+03 -7.20403E+03  5.52787E+03 -9.73958E+03 -4.02499E+03
 -7.55064E+03 -1.40767E+04  3.32201E+03 -1.09357E+04  1.50151E+04 -5.72081E+03  1.78163E+04  3.04400E+03
  8.46955E+03  6.54371E+03 -3.84568E+03  1.01689E+04 -4.96407E+03  4.94770E+03 -1.48975E+04 -9.03625E+02
 -6.84526E+03 -8.54519E+03 -4.38352E+02 -4.08137E+03  4.94190E+03 -5.39086E+03  8.15529E+03 -8.82475E+03
  8.51785E+03  3.00039E+03 -1.93757E+03  3.59703E+03  3.07428E+02 -1.52678E+03  3.85048E+03 -1.08818E+04
  8.61902E+03 -9.98814E+02  1.40550E+04 -2.62380E+03  1.17339E+04  6.13947E+03  7.78043E+03  1.54234E+04
 -1.03890E+04  2.07126E+04 -1.91157E+04  1.13525E+04 -1.57182E+04  2.31313E+03 -1.59436E+04 -5.50961E+03
 -4.72348E+03 -1.26504E+04 -7.25893E+03 -1.04330E+04  1.98635E+03 -5.09948E+03  4.86828E+03 -8.20052E+03
 -1.98893E+03 -1.98628E+03  5.88864E+03 -2.05700E+03 -1.52496E+02 -9.53873E+02 -2.44058E+01  5.54700E+03
  6.79916E+03  1.38750E+03  4.57479E+03  5.68746E+03 -7.81578E+03  1.18497E+04 -8.03117E+03  6.75805E+03
 -7.19885E+03 -7.01452E+02 -7.26667E+03 -1.75479E+03  4.40836E+03 -1.03306E+04  1.47210E+03 -1.15442E+04
  1.01420E+04 -6.09260E+03  1.60555E+04  1.16701E+03  1.44449E+04  2.08049E+03  1.24170E+03  8.92633E+03
 -6.53607E+03  1.13613E+04 -6.87981E+03  6.51793E+03 -5.60781E+03 -2.77172E+03 -3.72122E+03  4.72272E+02
  3.80487E+03  6.24498E+03 -2.19251E+03  5.28064E+03 -3.27201E+03  2.82316E+03 -8.47539E+03  2.41017E+03
 -3.97678E+03 -2.99771E+03  4.73289E+03 -1.24802E+04  6.38133E+03 -7.42272E+03  9.92956E+03 -2.76829E+03
  9.05970E+03  3.42471E+03  4.13305E+03  7.11820E+03  6.46252E+02  1.31293E+04 -7.69338E+03  3.91308E+03
 -1.09864E+04  2.76090E+03 -4.97375E+03 -2.22962E+03 -1.34024E+03 -3.82985E+03  2.25621E+03 -6.56940E+03
  5.24794E+03 -7.12573E+03  4.34194E+03  5.48317E+02 -4.02149E+03 -1.27796E+03  9.46850E+02 -5.56782E+02
  4.89791E+03  1.98069E+03  2.75140E+03 -1.47585E+03 -3.42356E+01  4.16826E+03 -2.09020E+02  4.04532E+03
 -2.07581E+03  9.78603E+03 -5.90818E+03  6.39714E+03 -7.83627E+03  4.49029E+03 -7.46036E+03 -5.26967E+03
 -8.57259E+03 -1.12104E+04  2.77044E+03 -1.06796E+04  1.07917E+03 -8.58919E+03  9.70737E+03 -5.58195E+01
  4.10012E+03  3.93124E+03  4.32263E+03  4.31188E+03 -3.15608E+03  7.10979E+03 -6.31443E+03 -2.61490E+03
  9.15769E+02 -2.88465E+03  1.85041E+03 -6.95925E+03  9.58974E+02  2.32601E+03  2.19925E+03  1.08918E+03
  7.23948E+03  1.52887E+02 -1.22945E+03 -3.54689E+02 -2.29580E+02  3.41428E+03  8.57475E+02 -1.95334E+03
  3.43418E+03  1.49101E+03 -6.72713E+02 -1.80303E+03 -2.85110E+03  5.20318E+03 -2.43953E+03  9.02171E+03
  2.04972E+03 -2.22504E+03 -5.58766E+03  1.14284E+03 -3.17159E+03 -3.87378E+02  2.78100E+02 -1.04170E+04
  1.49903E+03 -2.87285E+03 -1.17859E+03  3.33997E+03 -2.29067E+03  2.02012E+03 -1.49201E+03  1.92852E+03
 -6.31013E+03  1.47757E+03 -1.59836E+03 -1.61279E+02  8.83151E+02 -5.98259E+03  3.82753E+02 -1.05510E+04
  2.47264E+03 -5.17125E+03  1.06779E+04  1.41064E+03  6.71637E+02 -3.80134E+03  4.28145E+02 -7.89258E+02
  1.74004E+03 -1.77305E+02 -1.03707E+03 -1.76830E+03  8.73042E+02 -1.01400E+04  1.01783E+04 -1.94344E+03
  4.24539E+02  2.85556E+02  7.11385E+03  3.62362E+03  5.43786E+02  4.37650E+03 -2.25724E+03  6.98794E+03
 -3.44857E+03  2.92313E+03 -3.19404E+03  9.25823E+02 -5.76260E+03 -2.97169E+03  2.50404E+02 -4.50381E+03
  4.93588E+03 -9.33301E+02 -1.29580E+03  4.94724E+03  1.02387E+04  5.31521E+03 -1.21015E+03  3.96888E+03
 -2.66443E+03  7.92717E+03  1.42359E+03 -1.27208E+03  2.33821E+03 -7.73617E+02 -4.61878E+03 -5.04901E+02
 -3.42469E+03 -1.96461E+03 -1.04817E+04  3.07437E+02 -7.66547E+03 -2.17666E+03 -6.30523E+03 -5.00709E+03
 -6.03067E+03 -5.18122E+03  3.02158E+03 -9.89305E+03  4.00836E+03 -1.00364E+04  7.27374E+03 -4.61575E+02
  9.15945E+03 -1.58071E+03  1.68716E+03  5.16492E+03  1.41473E+03  7.91980E+03 -5.44508E+03  4.38645E+03
  1.65097E+03  2.91234E+03 -1.62450E+03 -2.03198E+03 -1.53969E+03  2.94931E+02  7.14182E+03  1.84224E+03
 -4.66018E+03  1.62192E+03  3.57173E+03  2.34570E+03 -1.15459E+03  2.62310E+03 -3.27821E+03 -4.29467E+03
  3.44049E+03  1.64537E+03  4.48127E+03  3.85882E+03 -1.13655E+03  6.39496E+03  5.07604E+03  4.73666E+03
 -3.15513E+03  8.61772E+03 -9.56134E+03  4.47318E+03 -6.16050E+03 -3.86245E+02 -5.28694E+02 -5.65322E+03
 -1.12513E+03  4.02932E+03  1.05861E+03 -3.12124E+03  2.16761E+03 -3.79198E+03  8.51552E+03 -6.72582E+03
  2.28504E+03  4.82641E+03 -2.58172E+03  1.97917E+03 -4.48017E+03  9.98987E+02 -5.21670E+02 -7.44044E+02
  1.70109E+02 -4.00244E+03  1.86500E+03 -5.19538E+03  1.60080E+03  1.43335E+02  4.84482E+02  2.70815E+03
 -1.59805E+03  1.94307E+03 -7.02663E+03  2.19268E+03 -3.94803E+03 -1.21401E+03 -4.19163E+03 -3.45988E+03
  4.52867E+03 -3.03082E+03 -9.64504E+02  4.32799E+03  2.21471E+03 -3.42706E+03  4.14224E+01 -2.10035E+03
  3.30454E+03  2.83611E+03 -4.46829E+03  6.08640E+03 -2.77498E+03  4.33700E+03 -1.65856E+03  2.92971E+03
 -3.95133E+03 -8.84623E+02 -3.40317E+03  1.20347E+03 -4.27510E+03 -2.98283E+03 -4.53974E+03 -2.26068E+03
 -4.86991E+03 -3.38316E+03 -3.06072E+03 -1.31749E+03 -1.57973E+03 -1.44695E+03  4.09713E+03  2.33134E+03
  5.99439E+03 -1.53394E+03  1.06101E+03  5.04529E+02  1.17266E+01  2.19259E+03  3.34566E+02  7.32631E+02
