 $NMID ID='MM_0lb_SNR50_17hz_g55_67.RAW', FMTDAT='(8E13.5)'
 TRAMP=1., VOLUME=1. $END
  3.11190E+05 -1.58399E+03  3.38419E+05  2.50826E+05  8.36406E+04  3.39354E+05 -1.33976E+05  2.52083E+05
 -1.86349E+05  8.21508E+04 -1.06981E+05 -3.16787E+04  4.82252E+03 -4.84511E+04  5.17110E+04 -3.73543E+03
  3.24997E+04  4.84868E+04 -1.17236E+04  7.81649E+04 -6.28443E+04  6.11059E+04 -8.18217E+04  3.29590E+04
 -7.94457E+04 -1.38810E+04 -5.32426E+04 -4.61776E+04 -1.39948E+04 -6.87960E+04  2.47252E+04 -4.69899E+04
  3.72009E+04  2.07596E+03  1.16923E+04  4.69925E+04 -3.58494E+04  4.40769E+04 -6.73447E+04  2.72849E+03
 -5.33991E+04 -5.67915E+04 -1.28093E+04 -7.44601E+04  3.51646E+04 -5.83353E+04  4.39901E+04 -1.43436E+04
  4.68165E+04  1.20027E+04  2.82390E+04  2.55838E+04  2.08231E+04  2.97571E+04 -3.24174E+03  2.55097E+04
 -2.19702E+04  7.12846E+03 -2.09059E+04 -3.80741E+03  1.72668E+03 -6.73071E+03  2.05214E+04  1.48131E+04
  5.40685E+03  3.24867E+04 -2.93875E+04  3.50297E+04 -6.59043E+04 -2.06516E+03 -5.39551E+04 -4.25001E+04
 -1.17878E+04 -6.37659E+04  4.16843E+04 -4.54242E+04  5.91433E+04  2.10016E+02  3.71655E+04  3.39192E+04
 -8.84551E+03  3.63394E+04 -2.55059E+04  2.11600E+04 -3.41932E+04 -4.62100E+03 -1.43368E+04 -5.42724E+03
 -8.42493E+03 -1.15794E+04  1.75452E+03 -1.59424E+04  8.51778E+03 -1.99609E+04  1.54768E+04 -1.91117E+04
  1.15078E+04  4.27157E+03 -5.28809E+03  1.34963E+04 -2.11854E+04 -3.26509E+03 -8.80846E+03 -3.48240E+04
  2.06827E+04 -4.02474E+04  3.97531E+04 -1.81868E+04  4.69805E+04  1.51793E+04  1.41763E+04  4.52974E+04
 -1.50639E+04  3.08085E+04 -2.49113E+04  1.90419E+03 -8.70166E+03 -2.60100E+04  2.05359E+04 -3.14417E+04
  4.09961E+04 -9.86964E+03  3.53016E+04  2.05337E+04  1.95577E+04  4.88098E+04 -7.43649E+03  4.49692E+04
 -2.74476E+04  3.09387E+04 -4.05153E+04  9.94290E+03 -4.18093E+04 -1.47474E+04 -2.08557E+04 -3.82138E+04
  6.81142E+03 -3.48079E+04  3.15329E+04 -1.36414E+04  2.68562E+04  1.01483E+04  3.18209E+03  2.10107E+04
 -1.75426E+04  9.00665E+03 -1.33531E+04 -1.12684E+04  7.15469E+03 -1.11080E+04  1.85516E+04  1.31147E+03
  1.54549E+04  2.34032E+04 -6.20752E+03  2.21608E+04 -1.85460E+04  7.46424E+03 -2.48216E+04 -7.08351E+03
 -1.71984E+04 -1.53306E+04 -6.23257E+03 -1.62435E+04  2.66710E+03 -2.09076E+04  1.75456E+04 -1.25323E+04
  2.08860E+04 -1.63092E+04  2.93041E+04 -4.89602E+03  2.25172E+04  1.83410E+04  3.00720E+03  3.09926E+04
 -1.61442E+04  2.63976E+04 -2.82785E+04  1.50488E+04 -2.19705E+04 -9.67035E+03 -6.06099E+03 -1.08064E+04
  5.44316E+03 -4.34765E+03 -1.89621E+03  7.89021E+03 -2.13219E+04 -5.82817E+02 -1.29976E+04 -2.41736E+03
 -1.04722E+04 -1.76369E+04  3.16794E+03 -1.74297E+04  1.13920E+04 -8.82863E+03  1.11295E+04  3.93796E+03
  9.31096E+03  1.30658E+04 -2.22703E+03  1.68431E+04 -1.05023E+04  6.68299E+03 -1.65500E+04 -4.51878E+03
 -1.30054E+04 -1.37169E+04  3.51154E+02 -2.34379E+04  1.12526E+04 -2.01088E+04  1.26770E+04 -4.70201E+03
  1.61296E+04 -4.60225E+03  1.09435E+04  7.35831E+03  3.35341E+03 -4.54168E+03  9.37243E+03  1.21043E+03
  1.55179E+04  2.31352E+03  1.56036E+04  1.12671E+04  8.38120E+03  2.78408E+04 -2.33719E+03  2.29681E+04
 -2.25607E+04  2.15552E+04 -2.82958E+04  9.20724E+03 -3.04395E+04 -3.90285E+02 -2.19795E+04 -1.95617E+04
 -7.78375E+03 -2.56979E+04  7.00546E+03 -2.47665E+04  1.95094E+04 -1.66560E+04  2.48383E+04  1.53547E+03
  6.30108E+03  1.23682E+04 -8.69159E+03  1.53394E+04 -1.38953E+04  4.97551E+03 -1.29569E+04 -1.26311E+04
  1.05700E+03 -1.52681E+04  9.25918E+03 -1.41772E+04  9.85003E+03 -2.86712E+03  6.25482E+02  5.03001E+01
 -6.53970E+03  2.07131E+03 -6.07046E+03 -4.73190E+03  1.86237E+03 -8.92752E+03  6.56439E+03 -1.00379E+04
  1.36953E+04 -5.36816E+03  1.56491E+04  4.24930E+03  9.88679E+03  9.35869E+03  7.75351E+03  1.98303E+04
 -8.97053E+02  1.66974E+04 -9.13818E+03  1.12922E+04 -1.52670E+04 -8.98404E+02 -9.51295E+03 -1.70174E+03
 -3.80314E+03 -1.04552E+03 -8.91752E+02  1.52696E+03 -4.94150E+03 -3.95918E+03 -5.00756E+03  2.06478E+03
 -8.75767E+03 -1.33409E+03 -5.25131E+03 -9.02486E+03 -1.97499E+03 -1.67210E+04  1.60295E+03 -1.04718E+04
  3.94433E+03 -2.58059E+03  7.31624E+03 -1.51516E+03 -3.60352E+03  3.28073E+03 -3.02116E+03 -1.13613E+02
 -8.28800E+03 -8.44981E+03 -1.65564E+03 -1.26875E+04  3.43815E+03 -9.98110E+03  1.38964E+04 -3.80134E+03
  1.49611E+04  2.40246E+03  1.05466E+04  7.68302E+03  4.99237E+03  1.40985E+04 -3.30640E+03  1.17183E+04
 -1.00179E+04  7.25471E+03 -4.76997E+03  1.08996E+03  1.25472E+01  1.54898E+03  6.04432E+03 -3.36708E+03
  4.33699E+03 -1.05686E+02 -9.30308E+02  7.66300E+03 -7.60364E+03  7.25869E+03 -8.68382E+03 -8.58649E+01
 -4.41599E+03 -7.50023E+03  7.05113E+02 -8.45334E+03 -1.29139E+02 -6.38874E+03  3.91195E+03  1.29373E+03
 -2.85883E+03  1.33663E+03 -5.22917E+03  4.55897E+03 -5.63942E+03 -5.12588E+02 -9.08653E+03 -1.27737E+03
 -1.57429E+02 -8.27160E+03  4.71972E+03 -1.04063E+04  7.57606E+03 -6.86696E+03  4.80686E+03  6.47684E+03
  7.28224E+03  3.65376E+03 -6.83425E+02  5.43139E+03 -1.44062E+03  3.76037E+03 -2.20540E+03 -1.59055E+03
 -8.32566E+03 -3.30838E+03 -9.69066E+02 -8.20697E+03  2.77413E+03 -6.58143E+03  4.44568E+03 -4.01451E+03
  9.31952E+02  3.26858E+01  4.25702E+03  1.49200E+03 -5.22918E+02  1.85572E+03 -1.31038E+03  6.49341E+02
  5.34239E+03 -3.53489E+03  8.51528E+03  3.09387E+03  4.26456E+03  3.45194E+03  9.58563E+03  1.35150E+04
 -2.30309E+03  8.72039E+03 -6.97286E+03  8.37287E+03 -9.93694E+03  2.51893E+03 -1.11085E+04 -1.05510E+04
 -4.91711E+03 -8.40079E+03 -9.63383E+02 -6.52450E+03  2.95627E+03 -6.38141E+02  5.43303E+03  4.02598E+03
 -2.09358E+03 -9.09289E+02  3.74074E+03  1.20159E+02  3.05695E+03 -3.34904E+03  2.83705E+03 -4.28715E+03
  6.67800E+03  5.21811E+03 -1.11801E+03 -1.83085E+03 -9.89965E+02  5.41221E+03 -2.43462E+03  4.10043E+03
 -7.84094E+03 -2.41327E+03 -1.81515E+03 -1.39130E+03  1.41589E+03 -4.56278E+03  5.45190E+03 -1.76365E+03
  7.47610E+03 -6.35304E+03  1.39426E+04 -3.50437E+03  6.02413E+03  6.09532E+03  2.16934E+03  4.46883E+03
 -1.51986E+03  4.23971E+03 -3.35269E+03  1.82574E+03  2.32254E+03 -2.47658E+03 -2.19181E+03 -6.38846E+03
  3.21107E+02 -1.44600E+03 -4.37637E+03 -3.39507E+02 -1.96995E+03  1.45701E+03 -3.81077E+03 -2.44644E+03
  9.48767E+02 -1.41942E+03  8.51057E+02 -9.25962E+03  2.60441E+03 -2.52391E+03  5.01247E+03  2.41934E+03
  6.75015E+03 -9.08109E+01  1.63528E+03  9.09343E+03 -1.50762E+02  8.58157E+03 -1.69513E+03  3.87112E+03
 -9.07433E+03 -3.22691E+03  1.27171E+02 -6.28948E+03 -5.85290E+03 -7.02517E+03  2.56816E+03  7.18478E+02
  3.20905E+03 -1.46690E+03  1.67614E+03 -1.69560E+03  6.88112E+02  2.49353E+03 -3.38997E+03 -1.11778E+03
  2.03879E+03  3.00324E+03 -9.66649E+02  2.43222E+03  6.26015E+02  1.25850E+03  4.59002E+03  4.56827E+03
 -3.68619E+03  5.37861E+03 -3.32188E+03 -1.44316E+02 -6.70762E+03  7.97960E+03 -6.70721E+03 -4.50219E+01
 -1.99013E+03 -2.70717E+03 -2.43106E+02 -1.02828E+04  7.01106E+02  1.27326E+03  6.46867E+03  2.67746E+03
 -6.47148E+02  7.79199E+02  2.45755E+03  3.68198E+03 -1.48281E+03  1.22109E+03 -2.28217E+03  2.25791E+03
 -7.54765E+02 -2.65447E+03  1.83385E+03 -4.43348E+03  2.72850E+03  9.91687E+02  2.81694E+03 -1.67613E+03
  1.30058E+03  9.53345E+02  2.39182E+03  1.41987E+03  7.42229E+01  1.88926E+03  4.47150E+03 -1.20477E+03
 -1.77789E+03 -2.11871E+03  4.27078E+03 -4.22877E+02 -4.72535E+02  1.58668E+03 -1.93903E+03 -6.29951E+02
 -4.77361E+03  3.91947E+03 -3.25688E+03 -3.91313E+03  7.18901E+02  2.34032E+02  1.31006E+03 -1.79897E+03
  3.89109E+03 -8.89169E+02  8.03317E+02 -7.05414E+02  1.02050E+03 -4.50749E+02 -4.04890E+03  2.68658E+03
  1.41370E+03  3.57122E+02 -5.58226E+03  3.04343E+03 -1.11246E+03 -2.23690E+03  8.94492E+01 -2.21487E+03
 -2.17196E+03 -4.87776E+02  5.61421E+03 -3.51478E+03 -5.96115E+02  1.15857E+03  1.22528E+03  8.39872E+02
 -1.23056E+03  1.39622E+03 -2.61015E+03 -4.40767E+03 -6.39678E+02  2.99629E+03  1.60379E+03  8.08375E+02
 -1.88230E+03 -1.53256E+03  2.86962E+03  2.21085E+03  6.71688E+03  2.96820E+03  1.27231E+03  5.91622E+03
 -3.88144E+01  5.04774E+02 -5.02965E+03 -2.30219E+02 -4.53871E+03 -9.07226E+03  3.00711E+03 -4.93402E+03
  2.74454E+03  8.29818E+02 -1.59319E+03 -2.08105E+03 -1.09713E+03  1.42724E+03 -4.61619E+03  1.69598E+03
 -2.08116E+03  3.19326E+02  3.09938E+02  2.92021E+03 -4.59132E+02 -3.48126E+03  1.69320E+03  1.47483E+03
  6.43853E+02  3.19159E+03 -3.35422E+03  1.95241E+02  4.95034E+03 -2.83343E+03  4.87548E+02 -2.48038E+03
 -6.91567E+03 -1.68399E+03 -2.27805E+03 -4.15384E+03 -4.04646E+02 -1.03403E+02  2.03956E+03 -1.71741E+03
  8.64227E+03  4.21224E+03  2.66527E+03  5.21597E+03 -3.23093E+03  1.04746E+03 -3.64814E+03  1.12477E+03
  4.09090E+03  1.71750E+03 -1.29011E+03 -3.56201E+03 -2.45714E+03 -3.91633E+03 -3.58601E+02  1.64133E+03
 -1.64137E+03  7.59830E+02  7.58414E+02 -6.93587E+02  1.00378E+03 -2.79703E+03 -1.60316E+03 -2.04411E+03
  4.33675E+02  7.99222E+02  2.92483E+03 -1.54372E+03 -8.74936E+02  6.14792E+03 -3.62251E+03  4.44053E+03
 -8.67793E+02  8.06214E+03 -1.33983E+03  1.03414E+03 -7.77596E+03 -2.25923E+03 -1.59580E+03  1.82993E+02
  2.21160E+03 -7.04838E+03 -8.06191E+02 -3.32547E+03  3.03901E+03  1.49556E+03  3.40083E+03 -1.04057E+03
  9.69276E+02 -3.63552E+03  4.66336E+03  1.51536E+03  2.46469E+02 -5.39152E+01  2.27632E+03 -4.08547E+03
 -2.97432E+02 -2.23728E+03  1.76930E+03  1.85372E+03  1.22112E+03  3.42403E+02 -4.21309E+02 -1.95872E+03
  3.17798E+03 -1.39331E+03 -7.47455E+02  5.27336E+02 -7.13403E+02 -2.55087E+02  8.86926E+02 -3.12903E+03
  1.28330E+03  5.68486E+02  1.38768E+03 -3.36476E+03  1.13764E+03 -1.31096E+03 -1.94063E+03 -2.52769E+02
  3.09509E+03  4.27869E+03 -4.15918E+02  4.35077E+02 -4.13100E+03 -6.22160E+02  3.40077E+03 -3.35864E+03
 -2.23670E+03 -1.65271E+02 -1.48444E+03 -2.23633E+03 -3.51766E+03 -3.21259E+03  7.35939E+02  2.05551E+02
 -1.72738E+03 -2.49903E+03 -1.29757E+03  7.84945E+02 -1.94214E+03 -7.44604E+02  3.08339E+03 -6.61297E+02
 -8.50570E+02 -2.18736E+03  1.66589E+03 -3.96449E+03 -1.01456E+03  4.65525E+03 -3.04132E+03  6.34009E+02
