 $NMID ID='MM_0lb_SNR50_16hz_g40_63.RAW', FMTDAT='(8E13.5)'
 TRAMP=1., VOLUME=1. $END
  3.10795E+05  1.73247E+03  3.35872E+05  2.50280E+05  8.34513E+04  3.38169E+05 -1.32499E+05  2.50224E+05
 -1.88386E+05  8.44108E+04 -1.09193E+05 -3.51232E+04 -1.82173E+02 -4.70972E+04  5.23055E+04 -3.42759E+02
  3.12384E+04  5.57909E+04 -1.39419E+04  7.64342E+04 -6.10870E+04  6.11436E+04 -8.36974E+04  3.32973E+04
 -7.99040E+04 -1.21205E+04 -5.62923E+04 -4.99578E+04 -1.34358E+04 -6.83851E+04  2.48361E+04 -4.30786E+04
  3.84247E+04  5.62060E+03  1.63884E+04  4.70667E+04 -3.15832E+04  4.41896E+04 -6.66758E+04  1.92598E+03
 -5.12120E+04 -6.07632E+04 -4.63097E+03 -7.55238E+04  3.59808E+04 -5.85406E+04  4.59341E+04 -1.51780E+04
  4.69840E+04  1.23590E+04  3.36259E+04  2.15846E+04  1.69848E+04  2.90139E+04 -1.02598E+03  2.66976E+04
 -2.56304E+04  1.23302E+04 -1.36093E+04 -5.27539E+03  5.46869E+03 -3.80150E+03  2.48609E+04  1.40735E+04
  8.54293E+03  3.32677E+04 -3.07166E+04  2.88769E+04 -6.00524E+04  2.70364E+03 -5.55711E+04 -4.22847E+04
 -9.48990E+03 -6.30865E+04  3.83853E+04 -4.43121E+04  5.45665E+04 -2.77790E+03  3.39973E+04  2.75160E+04
 -1.98531E+03  3.17217E+04 -2.84205E+04  1.35015E+04 -2.77793E+04 -4.86436E+03 -1.61299E+04 -1.12166E+04
 -9.22121E+03 -1.01516E+04 -2.72147E+03 -1.85273E+04  2.18108E+03 -2.03122E+04  2.13078E+04 -1.56056E+04
  1.26981E+04  2.18983E+03 -6.61889E+03  1.04472E+04 -1.85634E+04 -1.98692E+03 -4.88288E+03 -2.88487E+04
  2.19575E+04 -3.83786E+04  4.72202E+04 -1.79902E+04  4.36170E+04  2.06901E+04  1.81993E+04  4.12410E+04
 -1.20547E+04  3.35268E+04 -2.23029E+04 -1.86093E+02 -8.77203E+03 -3.20870E+04  2.31764E+04 -3.46329E+04
  3.79601E+04 -6.53119E+03  3.37191E+04  2.06303E+04  1.59174E+04  4.50466E+04 -3.23633E+03  4.32266E+04
 -2.88630E+04  3.36112E+04 -3.93035E+04  1.05256E+04 -4.21576E+04 -1.26029E+04 -2.09966E+04 -3.46581E+04
  7.94085E+03 -3.25807E+04  3.14957E+04 -1.36836E+04  2.54427E+04  7.69728E+03 -7.46644E+02  1.71053E+04
 -1.34355E+04  1.24376E+04 -1.11369E+04 -4.93676E+03  7.97550E+03 -1.18331E+04  1.48566E+04  1.35580E+03
  1.14728E+04  2.04745E+04 -8.19841E+03  2.45791E+04 -1.60054E+04  1.18108E+04 -2.71953E+04 -6.87871E+03
 -1.48272E+04 -1.93598E+04 -5.04394E+03 -1.90893E+04  1.92791E+03 -2.00673E+04  1.70406E+04 -1.63981E+04
  2.26260E+04 -1.45484E+04  2.54226E+04  2.49049E+02  2.19008E+04  1.71168E+04  3.59196E+03  3.08550E+04
 -2.20754E+04  2.93783E+04 -2.25300E+04  7.67329E+03 -2.02770E+04 -1.17060E+04 -3.98985E+03 -1.58881E+04
  3.33154E+03 -2.41765E+03 -2.77627E+03  1.21174E+04 -1.60157E+04  6.03877E+03 -1.44330E+04 -6.57615E+03
 -7.59221E+03 -1.12614E+04  5.99305E+03 -2.28277E+04  1.34986E+04 -1.28046E+04  2.08581E+04 -2.70135E+03
  1.08590E+04  1.03755E+04  1.51682E+03  1.88885E+04 -8.24985E+03  6.43551E+03 -1.98540E+04  1.19801E+03
 -9.52475E+03 -1.32247E+04 -4.34090E+02 -2.38971E+04  1.18654E+04 -1.18683E+04  1.83131E+04 -1.04463E+04
  1.68652E+04  8.36410E+02  1.35510E+04  2.46410E+03  5.97356E+03  8.67038E+02  9.15282E+03 -3.83341E+03
  1.53192E+04  9.36422E+02  1.83683E+04  1.22877E+04  9.03292E+03  2.79624E+04 -7.92122E+03  2.87146E+04
 -1.53873E+04  2.06410E+04 -2.60129E+04  9.06090E+03 -2.92672E+04 -3.96839E+03 -2.69946E+04 -1.72920E+04
 -1.17287E+04 -2.61854E+04  5.57003E+03 -2.12098E+04  1.61192E+04 -1.05353E+04  1.36176E+04  4.84704E+03
  7.28040E+03  1.42000E+04 -9.13186E+03  1.43835E+04 -2.06310E+04  1.66202E+03 -1.42651E+04 -6.50286E+03
  5.24827E+02 -1.09538E+04  6.28785E+03 -1.09250E+04  9.28645E+03 -2.41513E+03 -1.26520E+03  3.93709E+03
 -8.24164E+03  2.47167E+03 -5.66963E+03 -4.59714E+03 -4.08086E+03 -1.23928E+04  6.30898E+03 -9.10884E+03
  1.21977E+04 -7.11943E+03  1.59252E+04  2.56117E+03  1.15117E+04  1.29413E+04  1.08576E+04  1.95121E+04
  8.03507E+02  2.06878E+04 -8.69828E+03  1.10081E+04 -1.21020E+04  3.12627E+03 -7.53978E+03 -2.37778E+03
 -6.53882E+03 -5.90989E+03  1.33406E+03  4.62004E+03 -2.34696E+03  2.07236E+03 -5.86624E+03  3.16475E+03
 -5.05083E+03 -7.50050E+02 -1.03194E+04 -1.18602E+04 -5.89779E+03 -1.44837E+04  6.68651E+03 -1.03928E+04
  1.42679E+04 -4.11175E+03  8.19935E+03  3.19461E+03  2.42026E+03 -1.00868E+03 -1.35074E+03 -5.24062E+03
 -4.34314E+03 -6.54866E+03 -1.57221E+03 -1.01456E+04  2.93986E+03 -5.12502E+03  7.31679E+03 -7.07442E+03
  1.08321E+04  8.22926E+02  1.12500E+04  7.38317E+03  3.96007E+03  1.09832E+04 -8.97716E+03  1.06188E+04
 -1.12225E+04  5.17567E+03 -7.44624E+03  5.61663E+02  3.28617E+03 -3.56322E+03  6.25164E+03 -5.67145E+03
 -7.64156E+02 -1.92718E+02 -3.41422E+03  1.79172E+03 -1.42299E+03  8.73057E+03 -1.07602E+04  1.67237E+03
 -3.60671E+03 -3.80544E+03  2.82888E+03 -7.79411E+03  1.99589E+03 -7.57025E+03  1.23278E+03  6.06168E+03
  3.53240E+02  3.66999E+03 -2.04495E+03  2.57389E+03 -1.02480E+04  3.50491E+03 -9.21511E+03  1.10251E+03
 -5.97692E+03 -4.97948E+03  3.07796E+03 -1.24344E+04  8.18333E+03 -5.17814E+03  6.33819E+03  3.86043E+03
  1.64180E+02  3.42904E+03 -2.39991E+03  6.72792E+03 -5.78723E+03  5.29959E+03 -3.79724E+03  4.10382E+03
 -1.15055E+04 -2.43675E+03 -4.68123E+02 -3.69437E+03  6.18699E+03 -4.93832E+03  7.00649E+03 -3.14894E+03
  2.23921E+03 -2.67528E+03 -1.61081E+03 -3.04433E+03  4.35558E+03  1.69741E+03 -1.19586E+03 -2.77885E+03
  4.32851E+03 -3.61030E+03  8.86618E+03  1.68686E+03  8.26946E+03  6.74658E+03  7.65973E+03  1.06709E+04
 -1.56762E+02  6.15149E+03 -1.18752E+04  7.47905E+03 -1.29210E+04 -7.22681E+02 -1.04124E+04 -6.41488E+03
 -7.30949E+03 -7.28886E+03  1.85837E+03 -6.94685E+03  5.76072E+03 -2.10867E+03 -6.48554E+02 -3.83765E+03
  4.37796E+02  1.62259E+03  2.77790E+03  1.54664E+03  3.36704E+03 -1.95356E+03  7.41224E+03  4.12861E+02
  5.76758E+03  5.36537E+02  1.93898E+03  2.81438E+03 -2.41567E+02  4.74497E+03 -3.46039E+03  3.68621E+03
 -3.69405E+03  7.38376E+02 -6.73860E+03 -6.52602E+03 -1.07183E+02 -1.13929E+04  6.08591E+03 -6.48789E+03
  7.19094E+03 -3.83908E+03  5.15853E+03 -1.11600E+03  6.72259E+03  7.72430E+03  2.98262E+02  7.04903E+03
 -2.74862E+03  7.92886E+03 -4.72181E+03  1.28847E+03 -3.34469E+03 -6.18328E+03  6.16077E+03 -7.12266E+02
 -2.21122E+03  1.01847E+03 -1.22166E+03  6.31994E+01 -2.66920E+03 -5.37543E+02 -5.34503E+03  8.72879E+02
 -3.30679E+03 -1.77761E+03  4.41174E+03 -4.58230E+03  5.25563E+03 -3.03211E+03  3.01864E+03 -3.59260E+03
  5.99490E+03  3.63746E+03 -2.39135E+03 -4.33481E+02  1.51269E+03  7.61005E+03 -4.46241E+03  5.01843E+03
 -8.32769E+03 -3.55113E+02 -3.45179E+03 -1.70094E+03 -4.74222E+03 -1.26373E+03  5.72739E+03 -2.93945E+03
  6.89563E+03  2.53703E+02  8.94748E+02 -1.60831E+03 -3.19137E+03  2.58896E+03  1.78502E+03  1.95236E+03
 -5.00293E+02  1.34800E+03  3.37932E+03 -3.54151E+02 -1.58324E+03 -2.54963E+03  2.96879E+03  1.27758E+03
 -3.87062E+03  4.57422E+03  6.24931E+02  3.49767E+03 -7.14086E+03  3.00509E+03 -6.64699E+03 -2.42822E+03
 -3.05401E+03 -4.99377E+03  2.75924E+03 -4.01478E+03  5.70348E+03 -2.81261E+03  9.55633E+03 -3.51363E+03
  5.28048E+03  5.04487E+03  6.79650E+01  6.31449E+03 -1.26110E+03  1.24146E+03  3.40501E+03 -3.14548E+02
  1.31618E+03 -3.03369E+02  7.09146E+02 -2.88824E+03  2.92974E+03 -3.47117E+03  2.62412E+03 -2.25259E+03
  3.70122E+02 -4.70041E+02  1.17298E+03  2.76842E+03  1.77585E+03  4.07285E+02 -1.41229E+03  1.64566E+03
  2.83380E+03  3.34298E+03  2.04532E+03  1.30048E+03 -6.22299E+02  2.44651E+03 -4.18323E+03  3.18742E+03
 -3.57035E+03  4.74512E+02 -8.96420E+02  6.64653E+02 -5.41355E+03  3.10767E+01 -2.55824E+03  9.68809E+02
 -1.30585E+03  1.73445E+03  2.13899E+03 -3.77866E+03  1.29856E+03 -5.61807E+02  5.93542E+02  3.19373E+03
 -5.22088E+03 -2.87380E+03 -4.36098E+02 -3.04961E+03  3.21004E+02 -2.23096E+02 -9.12965E+02 -1.74454E+03
 -1.18619E+03 -1.92094E+03  2.41436E+03 -1.67090E+03 -1.20180E+02  2.41756E+03  7.27261E+02  1.64719E+03
  4.68424E+03 -4.48429E+03 -4.45729E+02 -3.04531E+03 -3.46389E+02 -8.76236E+02  3.16902E+03 -2.55833E+03
  4.44132E+02  1.06981E+03  3.78953E+03  5.89213E+02 -4.38306E+02 -4.78030E+02  6.85751E+02  1.82615E+03
  1.08988E+03  1.36323E+02  2.21977E+02  1.09569E+03 -1.78388E+03  6.47205E+02 -2.88489E+02  4.19328E+02
  3.90075E+03 -4.70247E+03 -3.33075E+03  1.78502E+03  5.29563E+03  1.70565E+03  4.36377E+03  1.69541E+03
 -2.05072E+03  6.10571E+03  1.03278E+03  2.95703E+02  3.45854E+03 -1.81551E+02 -2.87067E+02  1.91532E+03
 -1.62916E+03  5.69379E+03 -1.76353E+03  9.44641E+02 -5.69967E+03  2.01539E+03 -8.04249E+02 -1.20202E+03
  1.00727E+03 -4.76124E+03  3.59570E+03 -7.15297E+03  8.44769E+01 -2.19967E+03  7.42985E+03  1.20458E+03
  6.84250E+03  4.08403E+03  2.35070E+02  5.64464E+02  8.13917E+02 -3.70556E+02 -3.03617E+03  3.92926E+03
 -1.04090E+03 -3.09956E+03 -1.61346E+03  2.49066E+03 -1.32955E+03  2.06884E+03  2.04735E+03  1.38483E+03
 -3.69094E+03  3.35451E+02 -2.26940E+03  1.48366E+03 -4.18731E+03  4.64386E+03 -8.23953E+02  5.35149E+02
  1.06414E+03 -4.55119E+03 -2.65270E+03 -2.99232E+03  6.89954E+03  3.48118E+03  2.53796E+03  7.68975E+03
  7.05286E+02  5.83549E+03 -3.95340E+03  2.16789E+03 -9.45938E+02 -3.46398E+03 -4.24222E+03 -2.15500E+03
  3.12465E+03 -4.26099E+03  9.60371E+02 -5.34278E+03  1.95304E+03 -1.00437E+03 -4.67000E+03 -1.68267E+03
  3.21239E+03  9.61606E+02 -2.23704E+03  1.52330E+03  1.82940E+03 -3.28033E+03  2.52602E+03 -4.81481E+03
  2.40014E+03 -2.23575E+03 -2.98549E+03  2.82176E+03 -2.41159E+03 -1.22346E+03  3.16449E+03 -2.75643E+02
 -4.20079E+03 -3.05332E+02 -2.37026E+03 -3.10132E+03 -1.57437E+03 -1.18146E+02  5.83181E+03 -3.47415E+03
  2.26483E+03  4.00057E+03  2.90249E+02 -3.36081E+03  1.29092E+03  1.74449E+03  2.62843E+02  5.24030E+03
 -1.35865E+03  3.15107E+02 -2.86674E+03  4.03422E+03 -1.69524E+02  3.14213E+03 -3.40734E+03  1.39874E+03
 -1.13784E+03 -2.48201E+03 -4.84510E+03 -4.72351E+02 -1.26987E+02  3.71089E+02 -2.30354E+03  2.37059E+03
 -3.67177E+03  4.99189E+02 -2.82612E+03 -3.85711E+03  2.20567E+03 -3.54996E+03 -2.70310E+03  1.25984E+03
  2.05807E+03  5.59867E+03  2.53199E+03  3.71905E+01 -2.21384E+03  9.45266E+02  2.42553E+03  1.17369E+03
