 $NMID ID='MM_0lb_SNR50_16hz_g50_41.RAW', FMTDAT='(8E13.5)'
 TRAMP=1., VOLUME=1. $END
  3.09469E+05  2.24614E+03  3.40563E+05  2.51528E+05  8.15696E+04  3.35880E+05 -1.32569E+05  2.47466E+05
 -1.86428E+05  8.85075E+04 -1.13346E+05 -3.78580E+04 -1.36568E+03 -5.37146E+04  4.87180E+04  2.80105E+03
  3.37610E+04  5.52846E+04 -1.80918E+04  7.66152E+04 -5.62827E+04  6.18862E+04 -8.43665E+04  3.07423E+04
 -8.32869E+04 -1.10151E+04 -5.93909E+04 -5.33424E+04 -1.30821E+04 -7.09539E+04  2.70498E+04 -4.60881E+04
  3.86099E+04  3.34597E+03  1.59689E+04  4.44081E+04 -3.49480E+04  4.75502E+04 -6.68066E+04  1.03033E+03
 -5.35418E+04 -6.16169E+04 -6.48453E+03 -7.01882E+04  3.36835E+04 -5.34131E+04  4.56418E+04 -2.10456E+04
  4.13690E+04  7.85187E+03  2.90925E+04  2.71451E+04  1.33662E+04  2.46052E+04 -1.01612E+03  2.73933E+04
 -2.18551E+04  1.52052E+04 -1.65286E+04 -1.20282E+03  3.56783E+03 -5.92609E+03  2.64056E+04  8.93631E+03
  8.33427E+03  3.38854E+04 -2.74534E+04  3.44381E+04 -6.03888E+04 -3.21106E+02 -5.45974E+04 -4.01040E+04
 -1.77512E+04 -6.21161E+04  3.56670E+04 -4.23886E+04  5.62709E+04  1.43252E+03  3.08062E+04  3.33902E+04
 -4.27406E+03  3.36111E+04 -2.67957E+04  1.73965E+04 -2.86556E+04 -9.68131E+03 -1.67967E+04 -1.43324E+04
 -7.61895E+03 -1.36727E+04  2.24620E+03 -1.61960E+04  5.76888E+03 -2.01337E+04  1.51389E+04 -1.23346E+04
  1.05191E+04  9.71181E+02 -8.46909E+03  1.78740E+04 -1.82247E+04 -2.06419E+03 -8.73147E+03 -3.38680E+04
  2.62813E+04 -3.97041E+04  4.58951E+04 -2.00691E+04  4.28277E+04  1.29923E+04  1.31320E+04  4.33089E+04
 -1.83146E+04  3.31203E+04 -2.16621E+04 -7.17997E+02 -1.24292E+04 -2.84075E+04  1.90033E+04 -3.60708E+04
  4.32145E+04 -7.19863E+03  3.51743E+04  2.35484E+04  1.72944E+04  4.86947E+04 -1.21206E+04  5.19726E+04
 -2.74049E+04  3.26947E+04 -3.91790E+04  1.11899E+04 -4.20164E+04 -2.14773E+04 -2.04022E+04 -3.83316E+04
  5.01735E+03 -3.73218E+04  3.49492E+04 -1.35759E+04  2.38828E+04  1.06828E+04  6.85261E+03  1.99150E+04
 -1.47708E+04  1.05117E+04 -9.01849E+03 -1.01221E+04  2.30317E+03 -6.47099E+03  1.62650E+04  3.47176E+03
  1.44987E+04  2.39317E+04 -7.19836E+03  2.22357E+04 -2.10747E+04  1.43594E+04 -2.93144E+04 -7.91958E+03
 -1.92535E+04 -1.80522E+04 -8.01154E+03 -1.77724E+04  2.80320E+03 -1.64157E+04  1.26559E+04 -1.67030E+04
  2.32975E+04 -1.18381E+04  2.67099E+04 -2.86599E+03  2.46729E+04  1.79885E+04  3.06194E+03  3.40950E+04
 -2.06066E+04  2.45820E+04 -2.95358E+04  9.83589E+03 -1.79623E+04 -1.28432E+04 -4.11621E+03 -1.88147E+04
  3.13621E+03 -4.61506E+03 -4.65829E+03  5.67647E+03 -1.25287E+04  3.18517E+03 -1.40760E+04 -5.64489E+03
 -7.69550E+03 -1.39824E+04  4.18355E+03 -2.28202E+04  1.38421E+04 -1.40784E+04  1.56493E+04 -4.83084E+03
  6.93457E+03  1.10170E+04 -1.50422E+03  1.64265E+04 -1.11030E+04  7.11803E+03 -1.88957E+04 -3.70240E+03
 -1.52782E+04 -1.85828E+04  3.00834E+02 -2.09672E+04  1.25830E+04 -1.65218E+04  1.46449E+04 -1.02266E+04
  1.80675E+04 -2.51396E+03  1.69898E+04  7.32892E+02  6.68888E+03 -1.32511E+03  8.08949E+03  2.47791E+03
  1.92648E+04  4.82565E+03  1.85108E+04  1.43721E+04  1.41819E+04  2.98908E+04 -4.26315E+03  2.88413E+04
 -2.16610E+04  1.87255E+04 -2.70585E+04  8.90696E+03 -2.88557E+04  9.84078E+02 -2.58311E+04 -1.62112E+04
 -1.05303E+04 -2.60785E+04  8.77837E+03 -2.24562E+04  1.77748E+04 -1.32146E+04  1.76093E+04  3.72357E+03
  6.80638E+03  1.01945E+04 -8.75992E+03  9.08760E+03 -9.82404E+03 -7.15184E+02 -1.68277E+04 -8.13135E+03
  1.42780E+03 -1.54945E+04  9.69306E+03 -1.32488E+04  1.21716E+04 -4.92662E+03  4.61265E+03  6.70955E+03
 -4.15461E+03  7.37911E+02 -3.85111E+03 -7.31601E+03 -4.45445E+02 -1.27725E+04  7.16352E+03 -1.24794E+04
  1.22356E+04 -6.81109E+03  1.03029E+04  9.23828E+03  1.12466E+04  1.03585E+04  7.51702E+03  1.30210E+04
 -6.62375E+03  2.50110E+04 -1.38758E+04  1.15613E+04 -1.34180E+04  1.32951E+03 -1.14269E+04 -5.83814E+03
 -6.51597E+03 -4.16455E+03 -6.95788E+03 -1.37134E+03  3.39174E+03 -3.34391E+02 -3.57818E+03  6.93951E+03
 -1.02923E+04 -4.45727E+03 -6.61252E+03 -9.63946E+03 -6.42889E+03 -1.87164E+04  6.14426E+03 -7.53153E+03
  1.26012E+04 -4.37273E+03  8.04290E+03  4.43757E+03  1.42632E+03  3.39898E+02 -4.24148E+03 -2.81870E+03
 -7.85381E+02 -8.35404E+03  8.45019E+02 -6.36559E+03  1.51936E+03 -1.13800E+04  1.48332E+04 -4.32936E+03
  1.49232E+04  4.59856E+03  1.14611E+04  6.87064E+03  4.52825E+03  8.69747E+03 -4.93399E+03  8.92311E+03
 -7.50755E+03  2.86969E+03 -1.18595E+03 -3.68867E+03  4.75993E+03  3.23468E+02  7.35062E+03 -5.32904E+03
  4.14024E+03  4.75851E+03  3.77002E+03  9.70225E+03 -3.87472E+03  1.15755E+04 -9.91485E+03  4.34609E+03
 -8.66798E+03 -5.15623E+03 -3.43587E+03 -3.48610E+03  7.62671E+03 -9.31730E+03  7.21443E+03  2.75403E+03
 -1.12810E+03 -1.15026E+03 -4.33779E+03  5.57442E+03 -4.11343E+03 -1.85799E+03 -8.44069E+03 -3.02345E+03
 -4.69109E+03 -7.77923E+03  1.34837E+03 -6.98517E+03  9.39216E+03 -4.79832E+03  7.58122E+03 -2.87058E+03
  2.75483E+03  7.35027E+03 -3.21670E+03  1.22193E+04 -3.14452E+03  8.73007E+03 -5.96180E+03 -1.03985E+03
 -4.66668E+03 -5.70721E+03 -3.50544E+03 -5.22613E+03  3.49881E+03 -8.59884E+03  1.77885E+03  3.54599E+03
  4.38853E+03  1.53005E+03  7.38458E+03  1.58144E+03  1.94329E+03  2.19423E+03  2.98123E+02 -2.25480E+03
  8.27923E+03  6.32607E+02  2.95653E+03  1.37171E+03  7.79924E+03  4.88412E+03  7.76208E+03  1.06332E+04
  1.25051E+03  1.51554E+04 -1.33284E+04  1.00621E+04 -1.20120E+04  2.85928E+03 -8.82175E+03 -7.54698E+03
 -8.83762E+03 -7.81898E+03  1.14595E+03 -9.18294E+03  2.60904E+03 -6.55847E+03  2.84176E+03 -2.07496E+03
  1.81433E+03 -1.70790E+03  3.01863E+03 -2.07575E+02  5.98284E+03 -5.31901E+03  1.04735E+04 -2.40147E+03
  6.87871E+03  3.41576E+03 -3.08428E+02  6.89155E+03 -3.52437E+03  6.21914E+03 -5.32393E+03  4.00564E+03
 -9.78873E+03 -3.63518E+03 -6.64617E+03 -6.01172E+03  1.63688E+03 -8.91222E+03  5.80669E+03 -1.00347E+04
  9.57482E+03 -4.40372E+03  8.17013E+03 -1.36881E+02  5.41951E+03 -9.90093E+02 -9.64474E+02  1.00465E+04
 -5.48709E+03  8.91350E+03 -3.44011E+03  2.65581E+03  8.62804E+01 -4.92002E+03 -8.52234E+02 -2.85511E+03
 -1.60136E+03  2.75442E+03  5.07804E+03  4.32392E+03 -1.20584E+03 -9.93214E+02 -3.62088E+03 -3.13512E+03
 -5.38120E+03 -1.87044E+03  1.70683E+03 -9.94516E+03  2.64607E+03 -4.52780E+03  1.82949E+03  7.74768E+02
  1.19657E+04  2.02834E+03  4.38498E+03  1.40124E+03 -2.10772E+03  8.17591E+03 -3.28685E+03 -4.20903E+02
 -1.06243E+04  3.32818E+01 -3.14077E+03 -5.05395E+03  1.51336E+03 -1.62263E+03  5.73488E+03 -6.98207E+03
  5.90142E+03 -6.48206E+02  2.72766E+03  3.74700E+02  2.07592E+03 -5.58305E+02  1.36171E+03  1.01641E+03
  4.59309E+03  9.67818E+02 -2.95006E+02  5.84878E+01 -2.35420E+03  5.81393E+03  3.86767E+03 -2.71997E+02
 -4.66719E+02  7.24474E+03 -2.47392E+03  3.11736E+03 -1.63924E+03  1.83948E+03 -7.48068E+03 -2.43788E+03
 -8.03163E+03 -6.68909E+03 -8.90629E+02 -4.37365E+03  1.72598E+03 -6.70123E+03  7.97869E+03 -2.16463E+02
  4.88892E+03  3.02913E+03  5.51290E+02  6.24793E+03  5.20729E+02  1.54104E+03 -1.72014E+03 -1.54265E+03
 -2.07497E+03 -4.10086E+03  2.24462E+03 -1.93095E+03  1.42750E+03 -1.74786E+03  3.35088E+02  1.87527E+03
 -7.89212E+02 -2.04800E+03  2.30415E+03 -4.73979E+02 -3.23307E+03  1.01798E+02 -1.45222E+03 -2.62922E+00
 -1.64582E+03  7.93791E+03  5.32588E+03  1.69257E+03  7.43155E+02  7.01252E+03 -4.92175E+01  3.90544E+03
  1.16028E+03 -1.21746E+03 -4.63321E+03  3.10334E+03  1.64209E+03 -4.72299E+02  3.12329E+03 -4.25871E+03
 -2.02761E+03 -1.33217E+03  2.80278E+03 -3.21231E+03  3.08305E+03  2.03953E+03 -6.50083E+03  5.29900E+03
  3.81861E+02 -1.90935E+02  2.47155E+03 -8.02660E+02 -1.84123E+03 -8.81103E+01 -1.72028E+03 -7.89926E+02
  4.27500E+03 -4.61554E+03  1.49114E+03  1.12865E+03 -7.39292E+02 -2.49746E+03  3.95538E+03  5.14169E+03
 -3.24415E+02 -1.19059E+03  1.45278E+03 -6.90311E+03 -7.37607E+02  2.41953E+03  5.50622E+03 -7.03988E+03
  1.96609E+03 -9.54171E+02  3.88471E+03  7.85115E+02  1.24722E+03  5.63479E+03 -6.02908E+03 -2.68356E+03
 -4.21472E+03  8.00636E+02 -4.75244E+03 -2.53086E+03  2.16028E+03  2.21830E+02 -2.82469E+03 -3.00439E+03
  1.60677E+03 -1.24710E+03  2.89401E+03 -2.68601E+03 -6.06731E+02  5.44472E+03 -1.11907E+03  2.13005E+03
 -3.39008E+03 -1.13017E+03 -3.92261E+02  9.07170E+02 -4.30142E+03  1.77877E+03  1.67942E+03  1.96749E+03
 -2.25618E+03  2.52922E+02 -4.32309E+03 -1.48637E+03 -2.32985E+03  1.45684E+03 -4.73543E+03 -1.12815E+03
 -3.17037E+03 -2.71577E+03  2.58637E+03 -8.45984E+03  2.93896E+03 -4.82067E+02  5.73099E+03 -2.77606E+03
  2.67467E+03 -1.58973E+03  6.33154E+03  1.58960E+03  3.29580E+03  1.88218E+03 -4.68839E+03  7.16921E+03
 -4.27012E+03  3.90888E+03  6.44130E+02  1.67479E+03  1.85995E+03 -2.69747E+02 -2.24259E+03  3.17587E+02
 -3.11426E+03 -3.71842E+03 -4.88419E+03 -9.19560E+02 -4.38603E+02  8.14999E+02  2.61327E+03  4.88143E+02
 -7.20630E+02 -1.28328E+03  2.91227E+02  5.01080E+02  1.99643E+03  3.19569E+03  7.91427E+02  3.69162E+03
  1.25127E+02 -2.21095E+03 -2.50719E+03 -4.04627E+02 -1.07769E+03 -1.09908E+03 -2.68259E+03  2.32704E+03
  5.16689E+02 -4.98603E+03  5.53622E+03  1.16518E+03 -1.40741E+03 -3.25684E+03  7.42931E+02  3.21203E+03
 -1.36813E+01  5.25681E+02  2.64020E+02 -1.93299E+03  2.30117E+03 -3.81386E+03 -8.19007E+01  2.51058E+03
 -9.94935E+02  6.12637E+03  3.38256E+02  7.09507E+02  8.26317E+02  2.27319E+03  3.03499E+03  1.38515E+03
 -2.26895E+03  6.64455E+02  1.45442E+02 -8.69524E+02 -4.52215E+03 -3.11739E+03 -2.02038E+03 -1.66150E+03
 -2.04300E+03 -5.26920E+03 -2.03319E+03  4.34743E+02  2.91416E+03  4.10066E+02 -1.58709E+03 -1.16585E+03
  6.14430E+01 -1.79108E+02 -6.31369E+03 -3.34296E+03 -3.22545E+03  7.85076E+02 -1.24279E+03  1.75407E+03
  5.09494E+02  1.36614E+03 -1.81154E+03 -1.13366E+03 -1.74836E+03 -2.87216E+02 -3.24695E+03  5.72673E+03
 -3.49057E+03 -7.18040E+02  1.06628E+03  3.90849E+02  2.76240E+03 -1.38184E+03  1.70343E+03 -2.12827E+03
  3.80758E+03 -1.10586E+03 -1.58114E+03 -1.87375E+02 -2.77096E+03 -4.59771E+02  9.92824E+02  3.15926E+03
