 $NMID ID='MM_0lb_SNR50_11hz_g45_37.RAW', FMTDAT='(8E13.5)'
 TRAMP=1., VOLUME=1. $END
  3.08183E+05 -5.13534E+03  3.32514E+05  2.50768E+05  9.12977E+04  3.38306E+05 -1.28722E+05  2.50108E+05
 -1.88904E+05  9.11606E+04 -1.13982E+05 -3.33173E+04  2.04451E+02 -4.38593E+04  5.02751E+04 -2.72293E+03
  3.63272E+04  5.61351E+04 -1.67591E+04  7.82100E+04 -5.85588E+04  6.56320E+04 -8.12962E+04  3.10928E+04
 -8.53301E+04 -9.01044E+03 -6.05065E+04 -5.35708E+04 -2.07676E+04 -7.64861E+04  3.05567E+04 -4.21848E+04
  4.42073E+04 -4.30652E+02  1.54304E+04  4.65293E+04 -3.14629E+04  4.73122E+04 -6.77872E+04 -1.19760E+03
 -5.67728E+04 -5.51295E+04 -6.90031E+03 -8.03451E+04  3.27089E+04 -5.22341E+04  4.87575E+04 -1.20558E+04
  4.04904E+04  9.01826E+03  3.38026E+04  2.93789E+04  8.11852E+03  2.75460E+04 -1.24857E+04  2.55140E+04
 -1.95800E+04  1.34532E+04 -1.96997E+04 -2.85326E+03  8.66437E+03 -6.47529E+03  2.18011E+04  1.24146E+04
  1.04683E+04  3.72998E+04 -3.04717E+04  3.70470E+04 -6.54131E+04 -1.94034E+03 -5.79938E+04 -4.62114E+04
 -4.48382E+03 -6.22549E+04  4.01296E+04 -4.27173E+04  6.15482E+04 -3.90379E+03  3.48747E+04  3.45002E+04
 -8.89829E+03  4.16660E+04 -2.96574E+04  1.61676E+04 -2.70129E+04 -4.58192E+03 -2.45369E+04 -1.17671E+04
 -9.62154E+03 -1.22685E+04 -7.26567E+03 -1.80735E+04  5.46113E+03 -2.82600E+04  1.97978E+04 -1.54473E+04
  8.71716E+03  6.12648E+03 -9.78374E+03  1.33821E+04 -1.96437E+04 -4.89165E+03 -9.92130E+03 -3.78612E+04
  2.65013E+04 -4.68823E+04  5.36658E+04 -2.39866E+04  4.22843E+04  2.17426E+04  1.28222E+04  4.39933E+04
 -1.74416E+04  3.47682E+04 -2.75013E+04  4.12201E+03 -7.12724E+03 -2.63702E+04  2.22413E+04 -3.80895E+04
  4.36930E+04 -1.13778E+04  4.00372E+04  2.27132E+04  2.18314E+04  4.37951E+04 -4.97148E+03  5.44304E+04
 -3.39468E+04  3.30542E+04 -5.10186E+04  9.86083E+03 -4.00420E+04 -1.52211E+04 -1.94826E+04 -3.78739E+04
  9.17997E+03 -3.93195E+04  3.11603E+04 -1.73951E+04  3.10776E+04  1.43790E+04  4.38697E+03  1.85856E+04
 -1.30817E+04  8.64867E+03 -8.85357E+03 -1.02332E+04  7.56015E+03 -1.09213E+04  2.21542E+04  9.04267E+03
  1.81664E+04  2.24062E+04 -9.48814E+03  2.96236E+04 -2.30592E+04  1.05735E+04 -2.66738E+04 -9.12019E+03
 -1.88150E+04 -1.83679E+04 -1.12551E+04 -2.48052E+04 -7.22091E+02 -2.76814E+04  1.50031E+04 -2.30131E+04
  2.81806E+04 -9.42998E+03  3.60507E+04  2.83381E+03  2.35322E+04  2.06815E+04  4.44100E+03  3.99924E+04
 -1.92519E+04  3.74777E+04 -2.39914E+04  1.08136E+04 -2.12209E+04 -1.17442E+04 -3.52298E+03 -1.29256E+04
  1.29062E+03 -1.01200E+04 -6.81452E+03  8.06629E+03 -1.52461E+04  2.82513E+03 -2.22272E+04 -1.24378E+04
 -8.04980E+03 -1.93055E+04  7.53485E+03 -2.77124E+04  1.94230E+04 -1.64602E+04  2.21911E+04 -3.81723E+03
  1.25040E+04  7.34000E+03  1.15894E+03  2.15122E+04 -1.18591E+04  1.77437E+04 -1.91279E+04 -1.62049E+03
 -2.20407E+04 -1.85359E+04 -6.78597E+03 -2.65329E+04  1.67269E+04 -2.17608E+04  1.91474E+04 -1.47294E+04
  2.30055E+04  4.15194E+02  9.17159E+03  6.40696E+03  1.03122E+04 -3.14645E+02  1.19057E+04 -5.45325E+03
  2.17733E+04  8.53285E+02  2.14448E+04  1.81562E+04  1.57467E+04  3.53039E+04 -7.12335E+03  4.17566E+04
 -2.45114E+04  3.23270E+04 -3.55962E+04  2.18481E+04 -4.00278E+04 -3.18471E+03 -3.03637E+04 -2.22838E+04
 -1.35448E+04 -3.33193E+04  6.61165E+03 -2.92891E+04  2.66865E+04 -1.69805E+04  2.07136E+04  5.86091E+03
  8.16250E+03  2.15685E+04 -4.88248E+03  1.12560E+04 -1.80176E+04 -2.11192E+02 -1.22750E+04 -1.42503E+04
 -6.23293E+01 -1.77134E+04  1.00545E+04 -1.26473E+04  4.56552E+03  8.56657E+03 -1.89783E+03  6.27199E+03
 -1.59191E+04  1.06840E+04 -9.00703E+03 -9.01632E+03  2.90412E+03 -1.15528E+04  1.26788E+04 -1.75034E+04
  2.57153E+04 -4.93346E+03  2.43988E+04  5.35105E+03  2.14779E+04  1.71644E+04  9.86110E+03  2.82931E+04
 -2.04387E+03  3.25511E+04 -1.79766E+04  1.96372E+04 -1.93187E+04  9.40990E+02 -1.69444E+04 -4.08255E+03
 -8.25802E+03 -7.03654E+03 -2.04932E+03 -1.21127E+03 -9.29607E+03  1.47963E+03 -9.92035E+03  8.51150E+03
 -8.61079E+03  1.51722E+03 -5.33797E+03 -1.66120E+04 -4.07925E+03 -1.51480E+04  3.39291E+03 -1.36884E+04
  9.87772E+03 -8.79512E+03  6.98104E+03  2.75077E+03  1.08566E+03  6.66612E+03 -7.56876E+03 -1.31701E+03
 -1.00236E+04 -1.38089E+04 -6.18473E+01 -1.49948E+04  6.29598E+01 -1.00189E+04  1.40452E+04 -5.55524E+03
  2.48150E+04 -1.04327E+03  1.56510E+04  1.62852E+04  2.69941E+03  1.30433E+04 -4.50353E+03  1.39201E+04
 -1.72456E+04  5.66788E+03 -4.20341E+03 -1.17308E+03 -1.86068E+02 -4.17404E+03  8.51543E+03 -1.40047E+03
  7.58894E+03  5.39405E+03 -1.59480E+03  6.52707E+03 -3.81547E+03  1.45301E+04 -1.38972E+04  2.84319E+03
 -6.49314E+03 -4.60423E+03  5.45377E+03 -1.15696E+04  9.17848E+03 -1.13628E+04  1.04664E+04  5.70303E+03
  5.19809E+03  4.10252E+03 -6.98638E+03  8.18510E+03 -1.37830E+04  3.04858E+03 -8.28806E+03 -7.78856E+03
 -8.00344E+03 -1.69748E+04 -2.02788E+03 -2.07369E+04  1.62172E+04 -1.06122E+04  1.80429E+04  6.42071E+03
  7.85218E+03  9.90833E+03 -6.47274E+02  9.21994E+03 -7.84425E+03  4.21732E+03 -8.61588E+03 -2.55015E+02
 -9.36594E+03 -1.18974E+04  4.84779E+03 -1.25078E+04  5.92657E+03 -7.16217E+03  5.79128E+03 -7.51194E+03
  3.94515E+03  4.29080E+03  1.44117E+03  3.52575E+03 -5.67525E+02 -2.00955E+03  7.93890E+03 -7.08223E+02
  9.24794E+03 -5.43113E+03  9.19822E+03  7.73170E+03  8.56048E+03  1.83904E+03  1.24069E+04  1.88009E+04
 -1.38740E+03  2.19773E+04 -1.64604E+04  9.09536E+03 -2.06750E+04  3.91868E+03 -1.22444E+04 -7.97589E+03
 -1.04830E+04 -9.41395E+03 -1.52224E+02 -1.16454E+04 -1.01410E+03 -2.50289E+03  7.77318E+03 -5.99277E+03
  6.49073E+03 -7.03433E+03  5.50484E+03  7.65647E+02  2.06274E+03 -2.19227E+02  7.28668E+03  6.25471E+01
  6.82847E+03 -1.37881E+03 -4.42351E+02  9.01059E+03 -1.02768E+02  1.11778E+04 -6.54685E+03  8.01292E+03
 -1.63208E+04  6.41471E+02 -8.32866E+03 -1.11875E+04 -3.84294E+03 -1.06654E+04  3.46829E+03 -9.21375E+03
  1.01942E+04 -7.83344E+03  1.80637E+04  5.64464E+03  8.78187E+03  1.03054E+04  4.25229E+03  1.23487E+04
 -4.92452E+03  6.93660E+03 -8.78120E+03  1.73313E+03 -8.26919E+03 -8.14428E+02 -3.24533E+02 -8.11304E+02
  1.89583E+03  4.49485E+03 -2.06358E+03 -1.25694E+03 -6.41136E+02  5.81543E+03 -9.65267E+03  6.07586E+02
 -4.65237E+03 -1.67988E+03  1.79353E+02 -1.36114E+04  7.66236E+03 -7.27578E+03  1.33002E+04 -1.70462E+03
  1.14120E+04  2.47399E+03  6.39168E+03  1.15983E+04 -2.39152E+03  1.33019E+04 -6.49745E+03  9.06666E+03
 -6.33849E+03 -4.65550E+03 -9.40147E+03 -6.49651E+03 -3.41506E+02 -9.96513E+03  6.32917E+03 -2.09362E+03
  8.91480E+03 -4.19131E+03  1.26426E+03  1.07669E+04  6.68281E+03  3.64776E+03  4.61182E+03  8.88116E+01
  2.52481E+03  4.97765E+02  7.55969E+03 -4.91672E+02 -1.12654E+02  3.02428E+03  5.80724E+02  7.06766E+03
 -2.42073E+03  4.57364E+03 -5.00887E+03  7.50352E+03 -7.83240E+03  5.59867E+03 -1.36959E+04 -3.54488E+03
 -3.46820E+03 -8.87817E+03 -1.22417E+02 -1.40845E+04  8.60163E+03 -3.43552E+03  9.32725E+03 -3.53237E+03
  8.16542E+03 -1.20058E+03  8.79769E+02  9.66627E+03 -3.19412E+03  4.72725E+03 -4.42321E+03  1.90934E+03
 -1.84251E+03  3.78243E+02  5.05244E+03 -3.51720E+02  7.79638E+03  4.19706E+03  6.00317E+03  2.41829E+03
  3.31776E+03  3.16598E+03  4.82602E+02  1.45546E+03 -2.99696E+03 -2.50107E+02  2.26119E+03  2.71856E+01
 -2.57174E+03 -3.68065E+03  4.82811E+03  2.48696E+03  2.21159E+01  3.28444E+03  3.78230E+03  1.14456E+04
 -6.26410E+03  4.24812E+03 -1.84016E+03  3.57278E+02 -7.18754E+03  9.87794E+02 -2.03225E+03 -5.66047E+03
 -1.54157E+03 -3.21031E+03 -3.61614E+03 -2.72507E+03  1.47365E+03  6.91283E+03  1.52261E+03  2.71171E+03
 -3.94799E+03  1.12786E+03 -2.82553E+03 -8.61551E+02 -7.78829E+03 -7.29342E+03  4.70100E+03 -1.20235E+04
  3.38740E+03 -2.74465E+03  3.86909E+02 -2.57925E+03 -5.54285E+01 -1.01999E+03  6.41133E+03  6.21535E+03
  8.90443E+02 -4.28581E+03  3.34634E+02 -2.28681E+03  1.77518E+03 -9.14583E+03  2.64509E+03 -2.19876E+03
  8.99586E+03  4.29235E+03  4.52239E+03  3.56632E+03  2.38268E+03  7.13086E+03 -7.86550E+03  7.68244E+03
 -3.78059E+03 -3.37147E+02 -2.46092E+03 -2.05848E+03 -1.78795E+03 -7.03135E+03 -1.72241E+03 -8.61626E+03
  2.81122E+03 -3.95335E+03  5.20910E+03 -1.17607E+03 -9.61189E+02  5.49535E+03  2.36029E+03  8.89773E+03
  2.96492E+03  5.74961E+03  5.96853E+03  1.70837E+03  7.70555E+02  1.43209E+03 -1.41419E+03  2.39975E+03
  4.02509E+03  3.48892E+03 -5.52353E+03  2.10898E+03 -7.49309E+03  1.77610E+03 -1.21369E+04 -4.25592E+03
 -5.78411E+03 -1.47265E+04  1.72447E+03 -9.09522E+03  4.60103E+03 -8.11217E+03  9.87971E+03 -9.34498E+02
  1.14843E+04  3.17945E+03  1.82881E+03  4.49237E+03  1.51357E+03  1.42926E+04  8.32531E+02  3.42440E+03
  3.02362E+03  5.80449E+03 -1.25846E+03 -2.50564E+02  2.79562E+03  1.17775E+03 -2.33497E+03  1.40006E+03
 -4.42885E+03 -5.98115E+03  2.64083E+03  8.32589E+02  4.91199E+02  1.21901E+02 -1.58492E+03 -2.99763E+03
  4.27420E+03 -3.33133E+03  3.02472E+03 -2.57095E+03  5.21220E+03  6.88758E+03  5.26608E+03  1.05318E+04
 -3.09151E+03  6.64057E+03 -4.27392E+03  5.18632E+03 -4.70836E+03 -2.14314E+03 -5.80780E+03 -1.05148E+04
 -3.48224E+03 -7.85555E+03  2.98734E+03 -8.51948E+03  1.06209E+04 -9.18406E+03  5.09442E+02 -2.52571E+03
 -1.63730E+03  9.68126E+02 -4.67036E+03  1.18333E+03  9.28021E+01  5.18617E+02 -8.57154E+02  3.80203E+03
 -6.00509E+01 -5.12467E+03  3.89036E+03 -8.32858E+02  5.64975E+03  1.77118E+03  3.11627E+03  3.92094E+03
 -3.06409E+03  1.74987E+03 -1.56827E+03 -3.67695E+03 -5.72988E+03 -1.49234E+03  3.72827E+03 -3.07634E+03
  2.60765E+03 -3.40312E+03 -5.48084E+03  4.23009E+03  2.38266E+03 -3.47854E+03  3.08318E+03  5.82136E+03
  4.56712E+03  2.12093E+03 -4.37924E+03  3.29030E+03 -2.40096E+03  3.18992E+03 -3.54125E+03  8.54124E+02
 -2.10534E+03 -3.22502E+03  5.52905E+03  3.77511E+03 -6.11539E+02 -6.00636E+03 -6.48947E+03 -1.89281E+03
 -1.86499E+03 -2.12581E+03  3.44388E+03 -8.37532E+03  5.71508E+02 -1.95006E+03  8.14829E+02 -4.28407E+03
  4.41735E+03  1.10008E+03 -1.71556E+03  5.98434E+03 -8.96806E+03  1.45601E+03 -3.82995E+03  5.75624E+03
