 $NMID ID='MM_0lb_SNR50_9hz_g55_6.RAW', FMTDAT='(8E13.5)'
 TRAMP=1., VOLUME=1. $END
  3.12294E+05 -3.79190E+03  3.38436E+05  2.54560E+05  8.97428E+04  3.35173E+05 -1.36298E+05  2.50099E+05
 -1.88496E+05  8.05337E+04 -1.16519E+05 -2.92350E+04  2.57740E+03 -4.84129E+04  5.29725E+04 -2.07743E+03
  3.04249E+04  5.58772E+04 -1.46864E+04  7.25442E+04 -5.64330E+04  5.98568E+04 -8.45817E+04  3.36832E+04
 -7.65755E+04 -1.14742E+04 -6.24081E+04 -5.44579E+04 -1.27517E+04 -7.23798E+04  2.17966E+04 -4.35756E+04
  4.46523E+04  9.48588E+02  7.29355E+03  4.87604E+04 -2.92595E+04  5.15175E+04 -6.97516E+04 -1.58388E+03
 -5.42786E+04 -5.69848E+04 -7.24050E+03 -8.26289E+04  3.27324E+04 -5.35574E+04  5.03372E+04 -2.53436E+04
  4.46046E+04  7.00001E+03  3.80803E+04  2.69048E+04  1.65134E+04  3.73467E+04 -6.83435E+03  2.82339E+04
 -2.70087E+04  8.11479E+03 -1.57373E+04 -9.39749E+03  8.60673E+03 -1.17857E+04  2.86859E+04  1.86559E+04
  9.90617E+03  4.12413E+04 -2.87391E+04  4.28330E+04 -7.03027E+04  3.69537E+03 -6.50162E+04 -4.14284E+04
 -9.44678E+03 -6.43102E+04  3.92078E+04 -4.75011E+04  5.83732E+04 -6.30896E+03  3.26367E+04  2.92444E+04
 -6.17955E+03  3.79920E+04 -3.30478E+04  1.61519E+04 -3.57956E+04 -3.25097E+03 -1.68609E+04 -1.05012E+04
 -9.89487E+03 -1.66604E+04  2.26006E+03 -1.81107E+04  6.23539E+03 -2.68421E+04  1.55786E+04 -1.09418E+04
  1.08666E+04  1.13816E+04 -1.81827E+04  1.65328E+04 -2.85453E+04 -6.55655E+03 -1.09132E+03 -3.81261E+04
  2.11301E+04 -4.32140E+04  4.88560E+04 -1.34719E+04  5.29759E+04  2.08602E+04  2.06660E+04  5.24641E+04
 -1.60014E+04  3.71826E+04 -2.68820E+04  8.21345E+02 -1.51390E+04 -3.06498E+04  2.45834E+04 -3.52662E+04
  4.87417E+04 -1.09347E+04  4.30186E+04  2.24048E+04  2.15782E+04  4.99822E+04 -8.96888E+03  5.70440E+04
 -2.99189E+04  4.20421E+04 -4.50569E+04  3.34785E+03 -4.74325E+04 -1.88769E+04 -3.16490E+04 -4.15709E+04
  1.83682E+04 -4.09826E+04  3.39116E+04 -1.43683E+04  3.15459E+04  1.32463E+04  4.78183E+03  1.90205E+04
 -1.34902E+04  1.33141E+04 -1.17813E+04 -5.25741E+03  1.73420E+03 -4.30220E+03  1.50265E+04  7.90125E+03
  1.80766E+04  2.37538E+04 -4.67934E+03  3.61733E+04 -2.06118E+04  1.77959E+04 -3.44862E+04 -4.88735E+03
 -2.54811E+04 -1.47132E+04 -1.44470E+04 -2.12164E+04 -2.37261E+02 -2.79777E+04  1.78605E+04 -2.15630E+04
  3.66785E+04 -1.78225E+04  3.31474E+04  4.12528E+03  2.91635E+04  1.96981E+04  1.16698E+03  4.02084E+04
 -2.17769E+04  3.18294E+04 -2.80164E+04  1.41429E+04 -2.96336E+04 -1.28901E+04 -4.62615E+03 -1.50882E+04
  4.39082E+03  4.44977E+03 -9.01584E+03  5.02577E+03 -2.00560E+04  3.61065E+03 -1.63805E+04 -8.37181E+03
 -1.77943E+04 -2.29254E+04  4.25021E+03 -2.90152E+04  1.79230E+04 -1.67561E+04  2.36474E+04 -4.69675E+03
  1.55049E+04  1.89481E+04 -6.08893E+02  2.47932E+04 -1.12167E+04  1.05463E+04 -2.50505E+04 -8.98341E+03
 -1.92401E+04 -2.14591E+04  6.21892E+03 -2.68992E+04  1.51580E+04 -2.89077E+04  2.39417E+04 -1.24480E+04
  2.76302E+04 -1.56589E+03  1.29258E+04  3.38232E+03  4.56400E+03  8.09354E+03  1.98279E+04 -3.75177E+03
  1.83878E+04  4.06858E+03  2.91031E+04  1.89909E+04  1.32976E+04  4.08972E+04 -4.51410E+03  3.96010E+04
 -1.89407E+04  3.59378E+04 -4.59407E+04  2.27611E+04 -4.90038E+04 -8.01355E+03 -2.90400E+04 -3.10219E+04
 -1.95036E+04 -4.29459E+04  1.21240E+04 -3.67438E+04  2.71484E+04 -1.44958E+04  2.46301E+04  3.01293E+03
  7.50595E+03  1.48145E+04 -1.12626E+04  1.99368E+04 -2.09223E+04  4.48495E+03 -9.05459E+03 -2.03496E+04
 -5.38259E+03 -2.31812E+04  1.10703E+04 -1.37265E+04  1.08747E+04 -7.89634E+03  1.01641E+03  1.11012E+04
 -1.05903E+04 -5.54367E+02 -7.03458E+03 -9.36165E+03  8.01397E+02 -1.87101E+04  4.79197E+03 -1.77101E+04
  2.35092E+04 -8.62711E+03  2.39042E+04  6.27922E+03  2.04179E+04  1.87224E+04  1.25029E+04  2.81113E+04
 -8.08333E+03  2.76430E+04 -2.98074E+04  2.09659E+04 -1.53600E+04  1.52231E+03 -1.63329E+04 -1.30102E+04
 -8.42179E+03 -8.81142E+03 -9.03614E+02  2.42307E+03 -2.58693E+03  5.14323E+03 -2.86421E+03  1.25500E+03
 -8.97021E+03 -4.47295E+03 -1.60018E+04 -1.30647E+04 -7.60736E+03 -2.16213E+04  5.44994E+03 -1.17243E+04
  1.29255E+04 -1.35336E+04  1.31492E+04  2.50834E+03  2.14412E+03  6.61891E+03 -9.88933E+03 -3.12814E+03
 -7.43540E+03 -6.13747E+03 -6.34823E+03 -2.12101E+04  1.20193E+04 -1.86521E+04  1.73076E+04 -1.45185E+04
  2.53594E+04  8.72471E+03  1.96841E+04  1.47902E+04  1.45275E+03  1.27589E+04 -7.57043E+03  1.91923E+04
 -1.21804E+04  4.17190E+03 -5.01904E+03 -5.44795E+03  7.38865E+02 -6.59631E+03  1.43320E+04  3.37767E+03
  1.19131E+04  1.10883E+04 -2.76459E+03  1.13797E+04 -3.44120E+03  1.07240E+04 -1.57478E+04 -2.41234E+02
 -1.02016E+04 -8.82579E+03  1.08203E+03 -1.01470E+04  7.53173E+03 -1.14894E+04  1.06444E+04  5.54913E+03
  8.27732E+03  9.51563E+03 -1.53420E+04  1.21302E+04 -8.68611E+03  2.64889E+03 -1.47628E+04 -1.32551E+03
 -5.91365E+03 -2.25518E+04 -2.64824E+03 -1.34300E+04  1.41638E+04 -7.61733E+03  1.84460E+04  3.87260E+03
  1.05701E+04  1.14334E+04 -6.50333E+03  1.60308E+04 -9.98165E+03  5.65010E+03 -1.23677E+04 -7.33376E+03
 -1.07552E+04 -8.94070E+03  3.87278E+03 -1.61336E+04  3.32609E+03 -4.52464E+03  9.73845E+03 -7.40001E+03
  4.91386E+03 -3.59166E+03 -2.49800E+03  2.10177E+02 -3.51629E+03 -3.50880E+03  2.82394E+03 -5.40291E+03
  1.13863E+04 -4.94472E+03  1.46832E+04  1.72680E+03  2.12820E+04  7.11575E+03  1.28616E+04  2.37494E+04
 -9.36691E+03  2.91291E+04 -1.49446E+04  1.83160E+04 -1.89169E+04 -1.24954E+03 -2.00413E+04 -7.08912E+03
 -1.05005E+04 -1.85182E+04  2.69406E+03 -1.79425E+04  3.46257E+03 -9.16642E+03  4.36109E+03 -6.56566E+03
 -3.32936E+03  2.62647E+03  5.58868E+03 -6.90273E+02  1.00378E+04 -5.17250E+03  5.32712E+03 -1.89826E+03
  9.92094E+03 -4.96062E+02  1.37545E+03  5.92807E+03 -1.59227E+03  1.21610E+04 -1.52606E+04  5.83467E+03
 -1.56863E+04 -3.58883E+03 -9.29129E+03 -1.49679E+04 -2.87847E+03 -1.58575E+04  9.63780E+03 -1.55807E+04
  1.61890E+04 -6.02961E+03  1.19478E+04  7.62463E+03  1.27541E+04  2.03715E+04  2.45396E+03  1.45420E+04
 -8.29254E+03  2.03854E+04 -9.76672E+03  2.75324E+03 -6.23817E+03 -6.62258E+03 -1.64231E+03 -5.92593E+03
 -4.48676E+03 -1.61790E+03 -2.23862E+03  3.18311E+03 -4.34534E+03 -1.37795E+03 -7.44890E+03 -1.12961E+03
 -1.70576E+03 -9.69376E+03 -2.46083E+03 -1.56527E+04  8.74952E+03 -1.47624E+04  1.57616E+04 -4.86867E+03
  7.67584E+03  4.05064E+03  8.04465E+03  1.34013E+04 -5.55067E+03  1.33565E+04 -8.21523E+03  1.08657E+04
 -1.52170E+04  1.65086E+03 -1.43437E+04 -6.95690E+03 -2.53330E+03 -7.72189E+03  7.40150E+03 -8.37149E+03
  1.18554E+04 -4.00073E+03  7.60192E+03 -2.87433E+03 -1.81637E+03  8.90381E+03  6.03736E+03  4.26367E+03
  9.03112E+03  4.78462E+03  1.10857E+04  8.13627E+02  3.38639E+03  7.97091E+03  4.93029E+03  6.12715E+03
 -9.02368E+03  1.19881E+04 -8.48292E+03  1.36826E+04 -1.96108E+04  8.85019E+03 -2.11776E+04 -6.05732E+03
 -8.44289E+03 -1.81641E+04  4.69985E+03 -1.25136E+04  1.29475E+04 -1.13996E+04  1.59690E+04 -5.65129E+03
  1.44188E+04  6.65273E+03  3.96198E+03  7.90697E+03  4.10147E+02  3.79599E+03 -1.30945E+04 -2.61749E+03
 -5.02226E+03 -9.41567E+03  5.30936E+03 -9.57852E+03  1.16003E+04 -1.08775E+03  2.43611E+03  9.91620E+02
  2.44333E+03  3.09290E+03  4.96934E+03  1.27890E+04  3.00853E+03  8.44963E+01  4.69992E+03 -3.55847E+03
  1.33506E+03 -3.50760E+03  9.68826E+03  4.08733E+03  8.13388E+03  1.06994E+04 -3.81812E+03  6.75988E+03
 -2.74749E+03  7.35572E+03 -9.35778E+03  5.27922E+03 -5.47891E+03 -9.60794E+03 -9.04738E+02 -5.00204E+03
 -6.06001E+02 -7.52685E+03  2.94696E+03  2.44289E+02  6.59340E+03  1.12180E+03 -1.08182E+03  2.11523E+03
 -7.46126E+03  8.58583E+03 -8.13390E+03 -1.65328E+03  6.00018E+02 -6.37170E+03  2.63228E+03 -1.26541E+04
  6.90140E+03 -7.40622E+03  1.25134E+03 -3.73681E+03  9.50768E+03 -1.85765E+03  7.61303E+02  3.04108E+03
 -6.39417E+02 -1.60897E+03 -3.69578E+03 -1.16809E+04  3.54323E+03 -8.16951E+03  7.10148E+03 -4.29048E+03
  1.56550E+04  4.58101E+03  9.67764E+03  8.22189E+03  6.40443E+03  1.09308E+04 -1.35698E+03  1.03061E+04
 -3.68278E+03  1.03035E+04 -1.35230E+04 -7.04205E+03 -3.62810E+03 -5.66511E+03 -3.10830E+03 -8.56126E+02
  9.94005E+03 -2.87864E+03  3.78248E+03 -8.03848E+02  3.19957E+03  6.58426E+03 -3.58970E+03  1.20299E+04
 -7.83672E+03 -1.80234E+03 -3.66032E+03  2.47875E+03  3.43601E+02 -3.64744E+03 -3.70657E+03  2.12387E+03
 -3.92540E+01  6.82257E+03 -1.24653E+04  2.40492E+02 -8.97899E+03  7.33426E+03 -2.01478E+04 -7.19010E+03
 -1.03313E+04 -1.69160E+04 -7.24307E+02 -1.31226E+04  1.10042E+04 -1.22602E+04  1.65607E+04 -1.01927E+03
  9.41877E+03  3.92688E+03  1.57088E+04  9.37213E+03  3.30131E+03  1.23096E+04 -3.01898E+03  2.06681E+03
 -2.06903E+02 -2.28109E+03 -5.20214E+03  6.99803E+03 -1.56265E+03 -2.77604E+03 -1.22751E+03 -5.27947E+03
  2.20306E+03  2.32005E+03  3.56145E+03  1.57231E+03  3.42035E+03 -9.38367E+03 -2.17600E+03 -5.26894E+03
  5.75490E+03  1.13328E+03  9.62478E+03 -2.79012E+03  1.07127E+04  8.26703E+03  1.41149E+03  1.29136E+04
 -8.60053E+03  9.29128E+03 -9.00174E+03  6.17211E+03 -1.67264E+04  1.93713E+03 -1.18796E+04 -3.41361E+03
 -3.59138E+03 -1.24316E+04 -3.50754E+02 -6.47434E+03  6.64857E+03 -9.78465E+03  9.10515E+03 -5.90508E+03
 -2.24146E+03  4.09376E+03  5.95115E+02  1.18999E+03 -2.95514E+00  4.97694E+02 -2.48952E+03  3.41591E+03
  4.22111E+03 -1.72551E+03  1.73682E+03  3.86698E+03 -1.46956E+03  7.55668E+03  3.18884E+03  2.96273E+03
 -4.83597E+03  8.86124E+03 -1.47957E+04  5.57968E+03 -4.76013E+03 -4.76993E+03  6.04234E+03 -1.41095E+03
  2.79207E+03 -7.51756E+03  9.81084E+03  4.99945E+03  8.07039E+03 -2.02403E+03  7.43694E+03  4.82655E+03
 -1.98433E+03  8.45195E+03 -3.18369E+03  1.29321E+03 -1.10972E+04  4.67216E+03 -3.88437E+03  2.85926E+03
 -1.36524E+03 -7.17817E+02  1.67664E+03 -1.22657E+03 -3.00212E+03 -7.74518E+03 -4.43741E+03 -3.09435E+03
 -3.39712E+03 -2.18418E+03 -9.10033E+03 -9.63948E+03  3.29297E+03 -1.28792E+04  6.07465E+03  2.29989E+03
  2.24733E+03  1.39454E+03  4.94681E+03  8.58701E+03 -2.65784E+03  6.46831E+03 -9.98009E+03 -1.33805E+03
