 $NMID ID='MM_0lb_SNR50_9hz_g55_71.RAW', FMTDAT='(8E13.5)'
 TRAMP=1., VOLUME=1. $END
  3.15257E+05  5.11245E+03  3.37893E+05  2.55489E+05  8.32036E+04  3.37156E+05 -1.34619E+05  2.46432E+05
 -1.89175E+05  7.70333E+04 -1.14628E+05 -3.46285E+04  6.95586E+03 -4.59569E+04  5.37262E+04 -2.79245E+03
  3.53531E+04  4.39435E+04 -2.02450E+04  7.19736E+04 -6.36931E+04  6.63331E+04 -8.92067E+04  3.49232E+04
 -8.11920E+04 -1.10129E+04 -6.12240E+04 -5.68455E+04 -2.13862E+04 -7.47001E+04  3.11835E+04 -3.55838E+04
  3.73552E+04  4.83039E+03  1.79124E+04  4.11092E+04 -3.27345E+04  5.36655E+04 -6.67895E+04  1.32481E+02
 -5.22838E+04 -6.24129E+04 -4.98830E+03 -7.65476E+04  3.65831E+04 -5.51602E+04  5.23744E+04 -2.40993E+04
  4.42664E+04  9.41585E+03  3.49103E+04  3.14507E+04  1.64901E+04  2.75180E+04 -3.94338E+03  3.06774E+04
 -2.32129E+04  2.03627E+04 -1.72838E+04 -3.26880E+03  7.50705E+03 -1.01827E+04  2.40274E+04  1.28089E+04
  7.83449E+03  4.44475E+04 -2.98442E+04  3.53903E+04 -7.16686E+04  9.45759E+03 -6.21207E+04 -4.90079E+04
 -1.51694E+04 -5.82163E+04  4.00808E+04 -4.55581E+04  5.53106E+04 -5.51838E+03  4.01705E+04  3.30673E+04
 -8.36122E+03  4.10523E+04 -3.26551E+04  2.08657E+04 -3.43586E+04 -7.98131E+03 -1.54414E+04 -9.02918E+03
 -6.07677E+03 -1.17314E+04  1.10963E+03 -1.74964E+04  1.15536E+04 -2.58617E+04  1.68949E+04 -7.70446E+03
  1.07491E+04  2.11233E+03 -8.67382E+03  1.71031E+04 -1.87610E+04 -5.19175E+03 -7.03719E+03 -4.02285E+04
  2.21658E+04 -4.88101E+04  4.54635E+04 -2.06400E+04  4.98898E+04  1.79536E+04  1.74430E+04  4.46340E+04
 -1.63730E+04  3.25312E+04 -2.50863E+04  5.71170E+03 -7.46428E+03 -2.56382E+04  2.21707E+04 -3.56986E+04
  4.94927E+04 -5.96322E+03  4.24048E+04  1.80587E+04  2.32355E+04  5.08033E+04 -6.30268E+03  5.64354E+04
 -3.77991E+04  4.14565E+04 -4.55939E+04  1.22258E+04 -5.39987E+04 -1.80437E+04 -2.75351E+04 -4.48694E+04
  5.91937E+03 -4.45489E+04  3.57199E+04 -2.33895E+04  2.99224E+04  1.96046E+04  8.82098E+03  1.71644E+04
 -1.71450E+04  8.03779E+03 -6.60844E+03 -3.61802E+03  9.50808E+03 -8.43544E+03  1.54111E+04 -4.61706E+03
  1.21106E+04  2.14050E+04  1.42855E+03  2.59293E+04 -2.70647E+04  1.16793E+04 -2.62830E+04 -6.54543E+03
 -2.35585E+04 -2.06500E+04 -8.03310E+03 -2.37484E+04  8.85738E+03 -2.21657E+04  1.71646E+04 -2.39283E+04
  3.14394E+04 -1.57219E+04  3.76218E+04  4.87162E+03  3.04240E+04  2.35228E+04  4.58185E+03  4.77715E+04
 -2.55119E+04  3.47807E+04 -3.84294E+04  1.19236E+04 -2.31109E+04 -1.39396E+04 -6.40017E+03 -1.58818E+04
  4.15772E+03  9.61825E+02 -7.06227E+03  1.23687E+04 -1.28503E+04 -4.03706E+03 -2.18278E+04 -5.85158E+03
 -1.30239E+04 -2.74296E+04  1.05582E+04 -3.00589E+04  1.92050E+04 -1.59162E+04  2.22040E+04 -5.36243E+03
  9.53871E+03  1.41472E+04  6.71428E+02  2.51312E+04 -1.34151E+04  1.70006E+04 -2.59267E+04 -5.69666E+03
 -1.60200E+04 -1.63605E+04 -2.06383E+03 -3.08601E+04  6.64089E+03 -2.05235E+04  2.55504E+04 -1.72201E+04
  1.97105E+04 -4.21106E+03  1.59402E+04  2.48115E+01  1.10166E+04 -1.50505E+03  7.09500E+03  2.57276E+03
  2.52655E+04  4.53804E+03  2.73448E+04  1.85728E+04  1.88327E+04  4.34802E+04 -3.95993E+03  4.81062E+04
 -3.11345E+04  3.37264E+04 -4.26507E+04  2.98628E+04 -4.24306E+04 -4.00044E+03 -3.49171E+04 -3.35966E+04
 -1.76627E+04 -3.88807E+04  1.71131E+04 -3.49168E+04  2.62194E+04 -1.47841E+04  2.66002E+04  1.03997E+04
  1.58758E+04  2.30388E+04 -9.09592E+03  2.04853E+04 -2.48566E+04  6.85235E+03 -1.61544E+04 -1.19588E+04
  5.31105E+00 -2.02777E+04  1.53516E+04 -2.01219E+04  1.38244E+04 -2.65521E+03  3.00115E+03  5.03528E+03
 -1.01371E+04 -2.88187E+03 -1.24975E+04 -5.67530E+03 -7.99452E+03 -1.52355E+04  1.04103E+04 -1.85996E+04
  1.22260E+04 -9.85345E+03  2.92466E+04  4.36605E+03  1.63589E+04  1.75408E+04  6.91357E+03  3.08873E+04
 -2.14316E+03  3.13119E+04 -2.74654E+04  1.68433E+04 -2.41463E+04  2.20582E+03 -1.48766E+04 -3.39175E+03
 -1.17088E+04 -5.87456E+03  2.81284E+03 -5.04091E+03 -2.37007E+02  2.09826E+02 -8.09846E+03  2.96246E+03
 -2.18615E+04  1.55262E+03 -1.21955E+04 -5.99786E+03  3.81714E+03 -2.46352E+04  3.41986E+03 -1.57140E+04
  1.44322E+04 -4.37382E+03  1.00277E+04  8.98934E+03  1.68997E+03  1.08121E+03 -4.41614E+03 -3.07038E+02
 -4.31420E+03 -1.10975E+04 -6.76162E+03 -2.16241E+04  1.20079E+04 -1.83460E+04  2.41039E+04 -1.30865E+04
  2.59478E+04 -5.18511E+02  1.79493E+04  1.72103E+04  1.37548E+03  2.60356E+04 -9.93279E+03  9.03413E+03
 -1.88923E+04 -1.21564E+03 -8.70051E+03 -5.19369E+03 -2.26717E+03 -9.34811E+03  4.54077E+03  4.78823E+00
  1.86706E+03  1.04985E+04 -5.11277E+02  1.23971E+04 -7.40833E+03  1.25557E+04 -2.18298E+04  7.04901E+03
 -1.02157E+04 -5.81449E+03  4.40438E+02 -8.24828E+03  1.29501E+04 -8.30902E+03  1.43032E+04 -3.02625E+03
  4.62872E+03  1.79292E+04 -1.31175E+04  1.03825E+04 -1.92316E+04  1.15094E+03 -1.47264E+04 -8.05212E+03
 -7.86812E+03 -1.55150E+04  5.95720E+03 -2.09765E+04  1.44891E+04 -1.40264E+04  1.36421E+04  2.99004E+03
  7.05012E+03  1.86593E+04 -5.42293E+03  1.31792E+04 -1.22951E+04 -9.91780E+02 -8.91545E+03 -9.58894E+02
 -1.24530E+04 -1.39742E+04 -1.24872E+02 -1.17875E+04  7.01833E+03 -1.01209E+04  6.77628E+03  3.93813E+03
  8.32242E+03  5.39117E+03 -2.13824E+03  4.13089E+03  2.89552E+03 -4.95127E+03  6.14727E+03 -1.20887E+04
  1.21532E+04 -4.03536E+03  1.18143E+04  2.43914E+03  1.84561E+04  6.34540E+03  1.36310E+04  2.82070E+04
 -7.89644E+03  2.68344E+04 -2.61201E+04  1.79746E+04 -2.61246E+04  7.74888E+02 -2.38775E+04 -9.47250E+03
 -5.11636E+03 -1.76229E+04 -4.52579E+03 -1.77574E+04  1.26505E+04 -5.63553E+03  5.34234E+03 -4.64581E+03
  4.39856E+03 -4.71773E+03  4.05324E+03 -5.73834E+03  1.85788E+04 -2.82338E+03  1.32021E+04 -5.30913E+03
  9.42878E+03  3.47659E+03  9.84226E+03  5.59633E+03  2.83259E+03  1.09259E+04 -1.82152E+04  1.49090E+04
 -1.77291E+04 -1.84475E+03 -5.72525E+03 -1.06058E+04 -1.81298E+03 -1.68239E+04  8.72551E+03 -1.16960E+04
  1.63762E+04 -1.68430E+04  2.40644E+04  1.58343E+02  5.97092E+03  1.15458E+04 -9.61277E+02  1.96566E+04
 -8.99506E+03  1.34543E+04 -1.11625E+04  2.83739E+03 -6.74560E+03 -7.18707E+03 -9.62581E+02 -4.18911E+02
 -1.71325E+03 -1.60463E+03 -8.47170E+03 -2.35467E+03 -6.89465E+03 -4.33660E+03 -5.78093E+03 -3.79717E+03
 -1.28452E+04 -1.26648E+04 -7.21005E+03 -1.49305E+04  2.98671E+03 -1.75049E+04  1.43307E+04 -8.55843E+03
  1.97440E+04  9.93288E+03  7.06904E+03  9.28546E+03 -4.36470E+03  1.15949E+04 -4.75370E+03  9.85055E+03
 -1.72977E+04  8.28452E+02 -1.18064E+04 -1.06578E+04  1.08742E+03 -1.52030E+04  3.66181E+03 -8.56659E+03
  1.09819E+04 -5.73322E+03  7.50440E+03  1.35108E+03  3.52692E+03 -5.45315E+02  9.94510E+02  5.81199E+03
  1.36657E+03  5.48392E+02  4.56496E+03  4.38843E+03  5.56412E+03  1.96643E+03  4.24867E+03  1.17484E+04
 -1.86167E+03  1.39224E+04 -1.14037E+04  1.10552E+04 -1.88764E+04  3.60022E+03 -2.34411E+04  9.23395E+02
 -7.38468E+03 -2.08369E+04  3.82144E+03 -1.75296E+04  8.19710E+03 -4.76937E+03  1.14229E+04  3.79232E+03
  1.08491E+04  4.23823E+03  1.58955E+03  5.76128E+03 -4.29473E+03  6.95706E+03 -1.02261E+04  1.67671E+03
  3.01639E+03 -1.36428E+04 -1.99596E+03 -9.72013E+03  7.43742E+03 -9.10941E+02  6.56735E+03  5.78376E+03
  3.97698E+03  4.02218E+03 -3.10328E+03  1.46244E+03 -5.40539E+03  3.74284E+03  1.20114E+02 -1.94160E+03
  3.68563E+03  2.49921E+03  5.63920E+03  3.64712E+03  6.34057E+03  1.15540E+04 -3.20435E+03  1.34371E+04
 -4.95380E+03  9.17612E+03 -8.28532E+03  3.04733E+03 -2.86467E+03 -2.47802E+03  2.31252E+03 -6.55670E+03
  2.62554E+03 -7.15688E+03  4.55100E+03 -2.10957E+03  3.79990E+01  2.04797E+03  7.13840E+02  9.78860E+03
 -9.36848E+03  6.71701E+03 -6.82959E+03 -6.67884E+03 -7.28220E+03 -4.57505E+03  4.42984E+03 -1.06429E+04
 -6.83163E+02 -3.86718E+03  8.58183E+03  1.75489E+02  3.56438E+03  4.04162E+03 -2.75563E+03  1.85254E+02
 -4.52607E+03 -5.51795E+03  2.94881E+03 -2.13663E+03  2.73058E+03 -8.36480E+03  2.42793E+03 -9.74865E+03
  1.57122E+04 -5.47487E+03  8.21247E+03  7.30589E+03 -2.63792E+02  1.45732E+04 -7.42606E+01  1.48002E+04
 -9.69291E+03  3.46536E+03 -7.18444E+03 -1.38346E+03 -9.54249E+02 -7.24597E+03  3.91052E+03 -4.40002E+03
  1.15703E+04 -1.45540E+03 -3.46054E+02 -4.04040E+03  4.72831E+02  5.31283E+03 -6.02677E+03  3.04234E+03
  1.50221E+03  6.97833E+03  2.97039E+03  5.02628E+03 -9.15171E+03 -5.19420E+03 -6.83442E+03  9.39508E+02
 -1.26373E+04 -1.20871E+03 -5.54696E+03  6.43051E+03 -1.26014E+04  6.48132E+02 -1.09843E+04 -1.35710E+04
 -4.50230E+03 -1.89661E+04 -1.11363E+03 -1.33434E+04  6.65286E+03 -1.76454E+04  1.69907E+04  4.94441E+02
  1.35606E+04  3.57690E+03  9.09626E+03  1.04295E+04 -1.76924E+03  8.31993E+03  1.00157E+03  4.80098E+03
 -8.12636E+03  7.32633E+03  6.26731E+02 -1.97881E+03 -2.11244E+03  1.03146E+03 -1.80605E+03  5.89867E+03
 -1.19320E+03 -2.43428E+03 -8.61340E+03  7.27963E+03 -2.65729E+03 -4.32895E+03 -2.91481E+03 -7.94730E+03
  1.24813E+03  3.57271E+03  7.38398E+03  5.90404E+01  1.52400E+04 -3.09853E+03  4.13875E+03  8.67602E+03
 -3.78509E+03  1.68222E+04 -1.50854E+04  9.65374E+03 -1.04075E+04 -8.33143E+03 -9.51068E+03 -9.02966E+03
 -2.48158E+03 -1.00174E+04  5.45959E+02 -1.22708E+04  8.59718E+03 -5.96769E+03  9.14001E+03  2.16724E+03
  6.85131E+03  3.57506E+03 -3.53369E+02  7.60209E+03 -6.13768E+03 -1.67951E+03 -3.23559E+03 -3.19061E+03
  6.55119E+03  1.16717E+03  1.02266E+02 -4.94046E+03  5.88157E+03 -1.58812E+03 -8.78057E+01  2.54775E+03
 -2.92975E+03  6.55645E+03 -3.46536E+03  1.64403E+03 -1.20481E+04 -3.58601E+03 -6.33385E+02 -1.06125E+04
 -2.42382E+03 -8.73641E+03  3.67384E+03 -3.92494E+03  4.82387E+03 -2.13171E+03 -4.22838E+03  2.38178E+03
  1.95407E+03  5.60330E+03 -8.25176E+03  3.17370E+03 -8.94319E+03  4.07513E+03 -1.02159E+04 -6.66012E+03
 -6.87576E+03 -3.85478E+03 -1.13456E+04  5.27986E+03 -1.07815E+04  1.20475E+03 -7.84968E+03  1.01659E+04
 -7.62865E+03 -1.04878E+04  1.83337E+03 -1.03469E+04  2.12160E+03 -5.89190E+03  6.55084E+03  2.65614E+02
  6.20920E+03  2.84794E+03  9.39688E+03  1.09626E+03 -5.40157E+03  6.63760E+03 -1.14702E+04  3.58386E+03
