 $NMID ID='MM_0lb_SNR50_16hz_g40_14.RAW', FMTDAT='(8E13.5)'
 TRAMP=1., VOLUME=1. $END
  3.10880E+05 -3.26722E+03  3.38405E+05  2.50699E+05  8.71780E+04  3.40336E+05 -1.33553E+05  2.53620E+05
 -1.90451E+05  7.95587E+04 -1.11449E+05 -3.27639E+04 -1.44016E+02 -5.02957E+04  5.81890E+04 -4.15603E+02
  3.65887E+04  5.11788E+04 -1.63288E+04  7.07798E+04 -5.94728E+04  6.70981E+04 -8.26078E+04  3.43624E+04
 -7.93524E+04 -1.04625E+04 -5.76268E+04 -5.39044E+04 -1.22094E+04 -6.79804E+04  2.40543E+04 -5.04223E+04
  4.16332E+04  3.18135E+03  1.46121E+04  4.36093E+04 -3.55859E+04  4.77125E+04 -6.28603E+04  1.51609E+03
 -5.13435E+04 -5.89119E+04 -4.30088E+03 -7.96289E+04  3.45461E+04 -5.04139E+04  4.81423E+04 -1.62010E+04
  3.93774E+04  1.24467E+04  3.47857E+04  2.56987E+04  1.89964E+04  2.94983E+04 -2.20925E+03  2.76774E+04
 -1.91717E+04  9.28121E+03 -2.30865E+04 -8.60161E+03  5.99935E+03 -3.86549E+03  1.84194E+04  1.08145E+04
  6.33629E+03  2.97620E+04 -3.01525E+04  3.24566E+04 -5.94806E+04 -2.15416E+03 -5.58933E+04 -3.91766E+04
 -1.22107E+04 -6.25042E+04  3.85163E+04 -4.82229E+04  5.24165E+04  2.29871E+03  3.63278E+04  3.27643E+04
 -5.47994E+03  3.54719E+04 -2.13624E+04  1.03935E+04 -2.60519E+04 -3.26244E+03 -1.48108E+04 -7.65042E+03
 -6.29375E+03 -7.91140E+03  2.32328E+03 -1.79430E+04  9.94706E+03 -2.22154E+04  1.56036E+04 -1.21594E+04
  1.20847E+04  6.74834E+03 -4.67692E+03  1.35654E+04 -1.93053E+04 -3.71635E+03 -5.38972E+03 -3.05425E+04
  2.41997E+04 -3.95223E+04  5.31057E+04 -2.15805E+04  4.74697E+04  1.72559E+04  1.66203E+04  3.84906E+04
 -1.47654E+04  3.21562E+04 -2.53062E+04  4.02014E+02 -9.67572E+03 -2.95850E+04  2.02978E+04 -3.12823E+04
  4.15520E+04 -8.66708E+03  3.32481E+04  2.09889E+04  1.36670E+04  4.14033E+04 -6.24158E+03  4.79336E+04
 -2.95499E+04  2.88156E+04 -3.51732E+04  9.58300E+03 -3.90350E+04 -1.82681E+04 -2.80157E+04 -3.39614E+04
  9.77856E+03 -3.25947E+04  2.85751E+04 -9.21632E+03  2.25051E+04  9.33358E+03  2.09422E+03  1.56561E+04
 -1.58543E+04  1.16194E+04 -9.92629E+03 -7.12387E+03  4.81643E+03 -1.31505E+04  1.82900E+04  7.80380E+03
  9.48323E+03  2.05519E+04 -5.52384E+03  3.11859E+04 -2.48226E+04  7.60037E+03 -2.31620E+04 -7.08265E+03
 -1.64621E+04 -1.67735E+04 -8.88260E+03 -1.26962E+04  9.67716E+02 -1.68418E+04  1.21057E+04 -1.68188E+04
  2.81232E+04 -8.77433E+03  3.16706E+04  2.04363E+03  2.82819E+04  1.49891E+04  4.17042E+03  3.63724E+04
 -1.65010E+04  2.65395E+04 -2.20758E+04  1.01723E+04 -2.03614E+04 -1.06917E+04 -4.44082E+03 -1.70442E+04
  1.31924E+03 -1.75629E+03 -4.03167E+03  6.52325E+03 -1.25596E+04  3.00044E+03 -1.78463E+04 -3.67454E+03
 -8.86449E+03 -1.42502E+04  7.53470E+03 -1.93440E+04  1.30979E+04 -1.58017E+04  1.17421E+04  1.43765E+03
  1.18651E+04  9.15840E+03  3.12926E+03  1.81024E+04 -1.35304E+04  1.01296E+04 -1.66605E+04 -3.58760E+03
 -1.30897E+04 -1.17318E+04 -2.07919E+03 -2.03516E+04  1.17564E+04 -2.03353E+04  1.61220E+04 -7.99151E+03
  1.45314E+04 -1.26662E+03  1.44767E+04  4.70821E+03  4.79153E+03 -1.30565E+03  8.96069E+03 -3.12554E+03
  1.28898E+04  1.53172E+03  1.41589E+04  1.48856E+04  9.18590E+03  2.98343E+04 -3.21655E+03  2.76723E+04
 -2.00756E+04  2.11507E+04 -3.06922E+04  9.23085E+03 -2.86438E+04 -4.60239E+03 -2.64884E+04 -1.68071E+04
 -8.91500E+03 -2.10486E+04  7.25110E+03 -1.95320E+04  1.79818E+04 -8.80775E+03  1.58892E+04  4.72863E+03
  1.17954E+04  6.12169E+03 -5.50542E+03  1.00321E+04 -1.51305E+04  3.04679E+03 -8.51641E+03 -1.05847E+04
  1.79148E+03 -1.21836E+04  6.05372E+03 -8.26533E+03  7.35211E+03 -4.62401E+03 -1.13398E+02  4.94590E+03
 -4.26978E+03  3.26637E+03 -5.59442E+03 -3.57235E+03  4.55119E+03 -1.17387E+04  8.91880E+03 -1.05124E+04
  8.95322E+03 -7.32274E+03  1.10987E+04  3.09402E+03  1.58995E+04  1.08324E+04  5.28430E+03  1.58730E+04
 -2.73490E+03  1.78726E+04 -9.48223E+03  1.28444E+04 -9.35680E+03  3.91651E+03 -1.06457E+04 -3.72639E+03
 -6.39259E+03 -4.40858E+03  3.45613E+03  3.15439E+03  2.35127E+03 -3.23242E+03 -4.95285E+03  4.28139E+03
 -5.60492E+03  1.83578E+03 -7.52354E+03 -7.50751E+03 -3.10048E+03 -1.31987E+04  6.05684E+02 -5.37891E+03
  1.21856E+04 -7.97184E+02  6.11070E+03  4.32622E+03  3.65692E+02 -1.07098E+03 -1.64339E+03  5.96708E+01
  4.88819E+02 -6.21664E+03  2.59808E+03 -1.13719E+04  3.18971E+03 -8.24102E+03  1.64637E+04  2.15328E+03
  1.66667E+04  1.70445E+03  5.37751E+03  6.96947E+03  2.66842E+03  1.15681E+04 -2.14701E+03  1.17805E+04
 -6.66918E+03  6.53430E+03 -3.43294E+03 -2.18990E+03  7.62373E+03 -7.52960E+01  8.23287E+03 -3.32505E+03
  5.24929E+03  8.18302E+02  1.01216E+03  4.11787E+03 -1.18105E+04  9.60303E+03 -1.00288E+04  5.38837E+02
 -7.87647E+03 -1.11380E+04  3.53369E+03 -1.41790E+04  4.77823E+03 -4.52216E+03  3.12293E+03  4.90003E+03
  4.29014E+03  7.94030E+03 -7.36141E+03  1.41918E+03 -5.12435E+03  4.34808E+03 -7.14875E+03 -3.82602E+02
 -5.60548E+03 -5.89928E+03 -1.73663E+03 -6.99543E+03  7.33166E+03 -8.91451E+03  9.12562E+03 -3.02247E+02
  3.12011E+03  1.27278E+04  3.30209E+03  4.70947E+03 -8.92555E+03  5.51184E+03 -9.49957E+03  2.26511E+02
 -6.84768E+03 -6.48524E+03 -5.44626E+03 -5.44898E+03  5.07933E+03 -5.84349E+03  8.28759E+03 -9.88543E+02
  9.30864E+03 -1.97996E+03 -2.73687E+03 -1.22073E+02 -2.48984E+03 -5.15293E+03 -6.64421E+02 -1.14209E+03
  2.78556E+03 -1.74812E+03  9.29019E+03 -2.28973E+02  8.50447E+03  6.40508E+03  7.96262E+03  1.12554E+04
  8.62707E+01  1.52079E+04 -9.10909E+03  6.00523E+03 -1.33376E+04 -1.27424E+03 -1.05213E+04 -2.61634E+03
 -8.11448E+03 -9.14473E+03  1.82201E+03 -8.23582E+03  4.20387E+03 -2.42858E+02  1.64406E+03 -2.50545E+03
  1.10601E+03 -5.51963E+03  2.57219E+03 -3.85878E+02  3.00458E+03 -7.33458E+02  1.65937E+03 -7.67703E+02
  2.70986E+03  5.93032E+03 -1.16322E+03  3.28122E+03  2.04936E+02  2.55861E+03 -7.51245E+02  4.99894E+03
 -4.58587E+03  3.45974E+03  4.71965E+02 -3.57562E+03 -4.18722E+03 -2.78576E+03  2.31427E+03 -1.25652E+04
  9.37806E+03 -6.97130E+03  7.80099E+03  2.90201E+03  3.34627E+03  7.50649E+03  5.05395E+02  8.34827E+03
 -1.53582E+03  7.29330E+03 -5.23993E+03  2.45220E+03  6.62671E+02 -8.84458E+03  3.92892E+02 -1.01716E+03
 -2.09487E+03  6.34648E+02 -3.78984E+03  6.95448E+02 -1.54248E+03  1.35350E+03 -4.01446E+03 -5.17085E+03
  2.95211E+02 -6.19699E+03  2.30824E+02 -5.64289E+03  3.88247E+03 -5.32099E+03  4.84062E+03 -4.81031E+03
  7.56634E+03  8.16424E+03  5.07966E+03  5.90759E+02  1.63723E+03  5.68290E+03 -6.98026E+03  1.07968E+03
 -6.19379E+03 -1.12337E+03 -3.39088E+03 -1.27692E+03 -2.54321E+03 -2.42066E+03  4.49989E+03 -3.20617E+03
  1.97204E+03  1.05099E+02  3.91782E+03  3.94350E+03 -1.48744E+03  2.16179E+03  4.75644E+02  4.48334E+02
  4.04237E+03  5.99109E+03 -4.59180E+02  1.08873E+03  2.18647E+03 -1.66236E+03  4.37710E+03 -2.29147E+02
 -1.38881E+03  3.43582E+03 -7.90324E+03  2.71181E+03 -5.53393E+03  4.57460E+02 -3.74568E+03  7.40179E+02
 -1.62840E+03 -1.42624E+03  2.45699E+03 -6.82180E+03  3.01770E+03 -3.16078E+03  6.28204E+03 -5.96639E+03
  2.93450E+03  5.03730E+03  5.28686E+03  2.26384E+03 -3.14130E+03  1.99854E+03  1.76380E+03 -2.39934E+03
 -4.39709E+03  1.08031E+03  1.72981E+03 -3.66581E+03  2.61767E+03 -3.12336E+02 -2.96974E+03  1.98553E+03
  4.69376E+03 -2.37125E+03  1.35852E+03  3.68310E+03  5.30493E+02  2.75589E+03  1.07719E+03 -3.45954E+03
  1.07729E+03  4.69220E+03  2.17724E+03 -6.39759E+02  2.98036E+03  1.35904E+03  6.01949E+02  5.81135E+03
 -4.54046E+03  1.24021E+03 -3.46387E+03  2.40459E+03 -1.80304E+03 -3.55319E+02 -8.27557E+02 -4.45333E+03
  2.94090E+03 -2.06305E+02  9.98334E+02 -2.98012E+03 -1.05068E+03  3.28990E+03 -3.40227E+03 -1.71244E+03
 -2.25915E+03  3.87689E+03 -2.49811E+03 -4.58878E+03 -5.70230E+02 -3.70087E+03 -4.03608E+02  1.80364E+03
  3.12034E+03 -5.79594E+02  2.68947E+03 -4.36365E+02 -1.27043E+03  4.55714E+03  3.91303E+03  4.09518E+03
 -3.45360E+03  1.45925E+03  6.43210E+02  2.17666E+03  1.28434E+03  2.03381E+02  3.50463E+03  2.96656E+03
  1.04749E+03  8.38209E+02  5.87601E+03  4.85716E+02  6.75093E+02  8.74670E+01  1.82501E+03  2.35002E+03
 -1.23729E+02  4.81227E+03 -6.09071E+03 -1.84491E+03 -3.42285E+03 -5.82001E+03 -1.57699E+03  7.48186E+02
 -1.42072E+03 -4.52406E+03  2.11008E+03  7.03955E+02  1.06172E+03  3.93491E+03 -1.99849E+03 -4.54171E+02
 -1.30453E+03  3.06787E+03 -1.04526E+03  2.18584E+03  2.95211E+02  6.76063E+02  2.80852E+03 -5.54007E+02
 -3.07591E+03 -5.02039E+00 -5.74650E+02 -4.27876E+03 -1.67335E+03  3.17861E+03 -3.83837E+03 -1.85027E+03
 -3.37409E+02 -7.95734E+03  3.08345E+03 -1.05453E+04  3.13738E+03 -3.68871E+03  4.17514E+03 -1.70207E+03
  1.28149E+03  7.38641E+02  8.38206E+02 -1.71788E+03  2.12265E+03  1.57738E+03 -1.60557E+03  1.25236E+03
  3.08608E+03 -1.36128E+02 -4.03152E+03 -3.18025E+03  4.40727E+03 -2.86348E+03 -3.31460E+02  5.92906E+03
 -3.05284E+03  3.21766E+03  7.78810E+02  3.90376E+03  3.30443E+03  6.97861E+02 -2.79418E+03 -2.08422E+03
  2.36129E+03 -9.59512E+02  1.56991E+03 -4.91092E+02 -7.53833E+02  1.21115E+03 -7.06758E+03  1.66226E+03
 -4.84182E+03  8.34080E+03 -1.02328E+03  7.45009E+03 -1.88096E+03  9.50229E+02  1.63010E+03 -2.43773E+03
  3.69438E+03 -2.92494E+03  6.83591E+02 -7.14851E+03  1.47799E+03  2.95250E+03  3.52527E+03 -6.78169E+02
 -4.92151E+03  1.84064E+02 -3.30419E+03 -2.86220E+03 -3.50279E+03  2.52512E+03  4.16805E+03  8.36622E+02
  3.49331E+03 -2.06184E+03  2.29498E+03  2.32799E+03  1.55568E+03 -2.34552E+02  3.49082E+02  6.74428E+03
 -1.38979E+03  1.96759E+03 -4.07710E+03  5.80405E+03 -2.01804E+03  2.05227E+02  3.04059E+03 -4.61374E+03
  1.69081E+03  2.05330E+03 -1.92943E+03  1.50510E+03  1.46123E+03 -4.31005E+03  3.49083E+03 -2.13893E+03
  1.50565E+03  3.42850E+03  2.39764E+03  1.08038E+03  2.37870E+03  6.61357E+02 -2.49975E+02  3.28588E+03
 -1.34113E+03  2.30626E+03 -1.14157E+03  4.59093E+02 -5.97861E+03 -2.52079E+02 -4.51399E+03  5.29373E+02
 -3.23860E+03 -3.56016E+03 -9.19009E+02 -3.11453E+03  3.14181E+03 -5.26814E+03 -3.06812E+02 -2.27121E+03
  4.32488E+03  1.54724E+03  1.26531E+03 -5.05748E+03  1.88365E+03  2.75171E+03 -3.08620E+03  3.16051E+03
