 $NMID ID='MM_0lb_SNR50_12hz_g60_14.RAW', FMTDAT='(8E13.5)'
 TRAMP=1., VOLUME=1. $END
  3.11920E+05  2.51681E+02  3.37951E+05  2.53122E+05  8.69583E+04  3.32255E+05 -1.32129E+05  2.52639E+05
 -1.92763E+05  8.16977E+04 -1.10274E+05 -3.66627E+04 -2.82139E+03 -5.17298E+04  5.44806E+04 -5.46901E+03
  3.39205E+04  5.44727E+04 -1.39000E+04  7.87690E+04 -5.90323E+04  6.18876E+04 -8.45120E+04  3.54056E+04
 -8.04732E+04 -1.19015E+04 -5.91844E+04 -5.31582E+04 -2.22798E+04 -7.28822E+04  2.78825E+04 -4.73552E+04
  4.20218E+04  3.58031E+03  1.37679E+04  4.99880E+04 -3.13425E+04  4.95069E+04 -6.51736E+04 -3.91959E+03
 -5.47200E+04 -5.47322E+04 -1.88001E+03 -8.04503E+04  3.78913E+04 -5.84061E+04  4.77755E+04 -1.44963E+04
  4.23254E+04  1.33500E+04  2.71329E+04  2.68755E+04  1.08275E+04  2.93965E+04 -7.13115E+03  3.00531E+04
 -2.28983E+04  1.31679E+04 -1.80843E+04 -5.64038E+03  1.31188E+03 -9.72845E+03  2.01350E+04  8.58702E+03
  1.00140E+04  3.66490E+04 -3.30058E+04  3.67179E+04 -6.92559E+04  2.98453E+03 -6.21520E+04 -3.77795E+04
 -1.71171E+04 -6.49557E+04  4.19402E+04 -5.34217E+04  5.88774E+04 -3.14737E+03  3.73424E+04  3.36677E+04
 -8.47087E+03  3.47699E+04 -3.25573E+04  1.34277E+04 -2.55708E+04 -8.17162E+03 -1.69210E+04 -1.53557E+04
 -5.03714E+03 -1.71628E+04  5.55878E+03 -2.13813E+04  1.04408E+04 -2.42740E+04  1.78153E+04 -9.52907E+03
  5.97945E+03  1.03769E+04 -6.64845E+03  1.31178E+04 -2.12268E+04 -4.01972E+03 -8.09396E+03 -3.34245E+04
  2.38004E+04 -4.42598E+04  5.26666E+04 -1.91333E+04  4.86916E+04  2.48376E+04  1.78906E+04  4.91233E+04
 -1.32064E+04  3.46296E+04 -2.55804E+04  2.76886E+03 -1.58565E+04 -3.17894E+04  2.37733E+04 -3.84779E+04
  3.68535E+04 -8.13519E+03  4.08995E+04  2.75950E+04  2.06607E+04  5.11855E+04 -4.47857E+03  5.09110E+04
 -3.87678E+04  3.26564E+04 -5.07136E+04  3.92121E+03 -4.06159E+04 -1.96365E+04 -2.35331E+04 -4.25105E+04
  5.70400E+03 -3.59864E+04  3.74628E+04 -1.37389E+04  2.90790E+04  1.32505E+04  3.86268E+03  1.99317E+04
 -1.16326E+04  1.03306E+04 -1.24356E+04 -5.85844E+03  4.58803E+03 -1.14348E+04  2.34871E+04  1.79611E+03
  1.21022E+04  2.52300E+04 -9.37391E+03  2.76776E+04 -2.22102E+04  7.50439E+03 -2.91590E+04 -6.55189E+03
 -2.10426E+04 -1.33037E+04 -1.15884E+04 -2.58533E+04  3.49640E+03 -2.16094E+04  1.34159E+04 -2.27241E+04
  3.18108E+04 -7.89463E+03  3.49964E+04  3.91377E+03  2.15653E+04  2.86461E+04  3.14061E+03  4.03601E+04
 -2.57374E+04  3.02226E+04 -2.73023E+04  8.90689E+03 -2.46908E+04 -8.09535E+03 -3.76398E+03 -1.15497E+04
  3.70904E+03 -3.66075E+03 -8.60317E+03  9.55729E+03 -1.87285E+04  8.11235E+03 -2.23186E+04 -1.23541E+04
 -1.04059E+04 -1.93934E+04  6.02288E+03 -2.73637E+04  2.21907E+04 -1.98979E+04  2.37473E+04 -1.90376E+03
  1.27557E+04  1.37352E+04  4.90585E+03  1.83645E+04 -1.55007E+04  1.14782E+04 -2.42875E+04 -7.60380E+03
 -1.46668E+04 -2.00013E+04 -1.97867E+03 -2.77303E+04  6.77533E+03 -2.08694E+04  2.24133E+04 -1.40800E+04
  2.43202E+04  4.93321E+03  1.50712E+04  9.91644E+03  1.03829E+04  2.66192E+03  1.42048E+04  1.82842E+03
  2.23079E+04  7.18550E+03  2.72780E+04  1.63182E+04  1.70965E+04  3.05030E+04 -3.98925E+03  3.80178E+04
 -2.25238E+04  2.97392E+04 -3.34151E+04  1.45353E+04 -4.20541E+04  2.48221E+03 -3.60486E+04 -2.24242E+04
 -5.19871E+03 -3.20494E+04  1.52103E+04 -2.78795E+04  2.55303E+04 -1.66350E+04  2.30979E+04  7.65905E+03
  8.67997E+03  1.66340E+04 -1.64611E+04  1.07872E+04 -1.84705E+04  2.42068E+03 -1.29712E+04 -8.12000E+02
 -3.18739E+03 -1.27123E+04  5.69596E+03 -1.35678E+04  1.62308E+04 -4.17048E+03  5.27806E+03  1.46187E+04
 -9.71664E+03  6.18061E+03 -3.05299E+03 -3.09496E+03  1.33295E+03 -1.58382E+04  1.24002E+04 -1.38542E+04
  2.02131E+04 -7.03571E+03  2.53175E+04  2.17318E+03  2.26376E+04  1.14486E+04  1.56267E+04  2.34297E+04
 -8.22579E+03  2.35492E+04 -1.19779E+04  1.34058E+04 -2.17465E+04  2.97320E+03 -1.09037E+04 -6.49011E+03
 -1.13148E+04 -5.99726E+03 -4.33632E+03  1.21769E+03  4.84588E+02  6.15579E+03 -9.59505E+03  3.44619E+03
 -1.67814E+04 -3.28118E+03 -1.07580E+04 -1.27463E+04 -9.41531E+03 -1.79138E+04  3.61689E+03 -1.60861E+04
  1.23948E+04 -5.05383E+03  8.52831E+03  2.37448E+03 -2.01030E+03  7.00360E+03 -6.46772E+03 -3.39556E+02
 -4.72779E+03 -9.58270E+03 -1.36153E+03 -1.11926E+04  1.00285E+04 -1.21008E+04  2.29082E+04 -7.02431E+03
  2.18983E+04  3.84818E+03  1.26320E+04  1.52980E+04 -1.46139E+03  1.71656E+04 -1.02445E+04  1.38633E+04
 -1.37122E+04  5.89310E+03 -5.95618E+03 -9.09933E+02  2.43107E+03 -2.46337E+03  6.83402E+03  8.19428E+02
  3.65984E+03  6.19263E+03 -1.16880E+03  7.89558E+03 -5.17467E+03  7.93819E+03 -1.06477E+04  7.42610E+03
 -9.62238E+03 -9.43798E+03  2.90270E+03 -8.72900E+03  5.25798E+03 -6.11085E+03  7.70040E+03  5.70724E+03
 -2.29608E+03  6.86739E+03 -5.97802E+03  4.33196E+03 -9.60619E+03  8.62288E+02 -1.50252E+04 -1.91474E+03
 -8.02072E+03 -1.07078E+04  7.69088E+03 -1.57804E+04  7.34281E+03 -8.08946E+03  1.23430E+04  5.93676E+03
  1.04828E+04  1.37219E+04  2.20351E+03  1.54339E+04 -1.02819E+04  2.55224E+03 -8.89043E+03  3.08772E+03
 -1.14101E+04 -1.31554E+04  3.81225E+02 -1.28414E+04  4.28883E+03 -1.19001E+04  5.62835E+03 -5.04058E+03
  4.11806E+03  7.82102E+03 -4.43054E+03 -2.12420E+03 -2.58225E+03 -2.07847E+03  3.21088E+03 -1.99351E+03
  8.77201E+03 -3.92127E+03  1.57773E+04 -2.51670E+03  1.02394E+04  4.26006E+03  6.36291E+03  1.57207E+04
 -3.89775E+03  1.48714E+04 -1.74325E+04  1.22162E+04 -2.33626E+04  4.10173E+03 -2.00824E+04 -1.03479E+04
 -1.31675E+04 -1.03361E+04  4.28599E+03 -8.56985E+03  5.17774E+03 -2.03751E+03  3.11184E+03 -1.11740E+03
  6.93133E+03  5.88606E+02 -6.82325E+02 -9.70909E+03  9.69081E+03 -3.68053E+03  8.75131E+03 -4.81720E+03
  8.99283E+03  1.55256E+03  6.64530E+03  6.50602E+03 -5.24305E+03  1.01625E+04 -7.55819E+03  8.05511E+03
 -5.29652E+03 -4.67489E+02 -4.79178E+03 -9.75453E+03 -4.25625E+03 -1.29311E+04  8.91571E+03 -1.63903E+04
  9.69186E+03 -2.05212E+03  1.73152E+04 -1.92643E+02  1.23815E+04  1.04139E+04  3.68132E+03  1.24499E+04
 -4.00951E+03  1.21872E+04 -1.38769E+04  5.05763E+03 -5.94569E+03 -2.70761E+03  9.48571E+01 -2.42580E+03
 -8.82272E+02 -5.67177E+03 -1.13223E+02  2.66009E+03 -1.69067E+03  4.38769E+03 -1.26166E+04  2.07452E+03
 -7.12587E+03 -1.22517E+04 -3.04086E+02 -1.11905E+04  6.03367E+03 -1.11664E+04  7.55947E+03 -6.49191E+03
  6.45669E+03 -1.82644E+03  1.18745E+04  1.16916E+04 -7.03978E+03  7.77576E+03 -1.12282E+04  5.56482E+03
 -8.71284E+03 -3.32515E+03 -1.15311E+04 -9.53422E+03 -2.11436E+03 -1.01422E+04  5.22126E+03 -2.76256E+03
  1.23115E+04  2.45590E+03  5.76966E+03  4.97363E+03  3.71086E+03  1.59824E+03 -3.23390E+03  5.30864E+03
  3.54953E+02  6.62593E+03  1.60580E+03 -3.84325E+03  7.27563E+03  5.55106E+03  4.60488E+03  8.19367E+03
 -4.03144E+03  1.09414E+04 -5.86899E+03  7.13182E+03 -1.15940E+04  1.38604E+02 -1.33724E+04 -5.23851E+03
 -1.05370E+04 -1.07383E+04  1.63455E+03 -1.46429E+04  8.37864E+03 -5.20081E+03  3.54926E+03  1.27267E+03
  6.32080E+03  4.14536E+03  6.39150E+03  5.64835E+03 -1.39661E+03  1.38529E+03 -4.90254E+03  1.33290E+03
 -1.55181E+03 -4.95674E+03  3.09740E+02 -7.58298E+03  6.56523E+03 -5.38278E+03  1.28911E+03 -1.05304E+03
  4.34247E+03  7.47729E+02 -2.81481E+03  3.92650E+03 -6.10180E+03 -7.40785E+02 -2.40280E+02 -1.36900E+02
  1.50545E+03  2.79827E+03  4.10216E+03 -6.04000E+03 -4.85337E+03  8.16446E+03 -9.79155E+02  1.12085E+04
 -7.57001E+03  3.69362E+03 -8.07419E+03  1.86521E+03 -5.16098E+03 -3.01594E+02 -4.18416E+03 -6.06072E+03
 -1.32839E+03 -7.78143E+03  3.89260E+02  8.75512E+02  3.93708E+03  5.50346E+03  2.07958E+03  4.10990E+03
 -6.08699E+03  1.00839E+03 -4.45667E+03  1.24793E+02 -4.31889E+02 -9.36646E+03 -1.72031E+03 -7.91180E+03
  4.00049E+03 -2.85268E+02  8.48598E+03 -3.46077E+02  3.94435E+03  8.43033E+02  2.69592E+03  4.22775E+03
  3.60826E+03  2.44498E+03  2.01924E+03 -2.61336E+03  6.09422E+03 -5.81468E+03  7.86916E+03 -5.41755E+03
  8.42397E+03 -6.64078E+02  8.70508E+03  2.93761E+03  2.01291E+03  1.04792E+04 -5.17589E+03  9.51642E+02
 -5.39238E+03  2.97348E+03 -5.75353E+03 -1.58269E+03  1.86856E+02 -6.52853E+03  1.58025E+02 -6.02245E+03
  2.02234E+03 -4.46653E+02  6.82973E+03  1.04599E+03  1.21514E+03  5.29167E+03  1.33495E+03  6.42322E+03
 -6.94819E+03  1.75103E+03 -7.18988E+03  2.28064E+02 -6.66484E+03 -2.60060E+03 -2.97663E+02  1.66159E+03
  8.42717E+02  4.90869E+03 -1.93566E+02  2.44788E+03 -5.86606E+03  6.05977E+02 -3.91953E+03 -2.22890E+03
 -8.74690E+03 -7.78693E+03  5.05717E+03 -1.29316E+04  6.05141E+03 -5.61802E+03  1.30258E+04  2.09575E+03
  1.45980E+04 -1.19612E+03  1.08922E+04  9.88887E+03 -1.70187E+03  6.99786E+03 -4.66901E+03  2.76127E+03
 -4.20336E+03  6.59667E+03 -1.53466E+03  2.19495E+03 -2.35158E+02 -3.30341E+03 -2.03436E+03 -3.32535E+03
 -1.59716E+02  1.93754E+03 -4.56652E+03 -7.13162E+01 -1.85205E+03 -5.55259E+03  4.42610E+02 -4.66714E+03
  8.34188E+03 -4.74969E+03  8.30419E+03 -1.07177E+02  5.75442E+03  4.54383E+03  1.68717E+03  6.93662E+03
  2.16631E+03  4.95747E+03 -9.28456E+03  9.98422E+03 -7.69176E+03 -2.68863E+03 -3.25279E+03 -1.96345E+03
 -4.22971E+03 -1.00645E+03  4.40429E+03  1.48738E+03  6.90327E+03 -4.92711E+03  4.82790E+03  4.25661E+03
  1.45805E+03 -1.60027E+03  3.76260E+02  7.05690E+02 -5.51074E+03  1.09095E+03  1.55265E+03  1.65724E+03
  5.84744E+03 -2.45802E+03  4.15515E+03 -1.53934E+03 -3.05491E+02  3.00146E+03  3.08169E+02  4.71137E+03
 -7.74068E+03  1.92895E+03 -3.48769E+03  2.47905E+03 -8.58405E+03 -6.80530E+03 -1.21761E+03 -8.17198E+03
  1.60567E+03 -7.10229E+01  6.24743E+03  8.02534E+02  1.92302E+03  3.95307E+03  4.21954E+03  5.80033E+03
 -2.81605E+03  6.37802E+03 -3.68253E+03  4.76429E+03 -2.65087E+03  9.51157E+02 -8.41429E+02  8.89674E+02
  5.11184E+02  1.94628E+03 -5.33064E+02 -3.46631E+03 -4.18272E+03 -3.80708E+03 -6.87245E+03 -1.10428E+03
 -5.06844E+03 -1.31293E+02  2.53695E+03 -4.23103E+03  2.07542E+03  4.04412E+02  3.38122E+03 -3.87333E+03
  1.19690E+03  3.45846E+03 -5.01643E+02  6.91491E+03 -1.58998E+03  1.19581E+03 -2.18254E+03  5.34215E+03
