 $NMID ID='MM_0lb_SNR50_14hz_g40_32.RAW', FMTDAT='(8E13.5)'
 TRAMP=1., VOLUME=1. $END
  3.10605E+05  1.81890E+02  3.38142E+05  2.53669E+05  8.46076E+04  3.36852E+05 -1.31244E+05  2.49939E+05
 -1.90724E+05  8.50316E+04 -1.11653E+05 -3.22314E+04  1.46563E+03 -5.29985E+04  5.66408E+04 -1.98144E+02
  3.27837E+04  5.76594E+04 -1.37554E+04  7.87858E+04 -6.36395E+04  5.96116E+04 -8.76588E+04  3.38038E+04
 -7.96434E+04 -7.86531E+03 -5.45191E+04 -5.08431E+04 -1.79562E+04 -7.30762E+04  3.01501E+04 -4.55829E+04
  3.78665E+04  9.26734E+03  1.37889E+04  4.66130E+04 -3.49161E+04  4.80685E+04 -6.04617E+04  3.76946E+03
 -5.29881E+04 -5.76095E+04 -7.48686E+03 -7.27895E+04  3.58052E+04 -5.98749E+04  4.92985E+04 -1.46929E+04
  4.65338E+04  9.44470E+03  3.26021E+04  2.48671E+04  1.65749E+04  2.90275E+04 -4.20748E+03  3.04642E+04
 -2.12207E+04  1.21919E+04 -2.34989E+04 -1.42818E+03  5.72620E+03 -9.68078E+03  2.05782E+04  1.39055E+04
  8.72708E+03  3.72656E+04 -3.10258E+04  3.36933E+04 -6.08883E+04 -9.75249E+01 -5.95773E+04 -4.29105E+04
 -1.18202E+04 -6.15536E+04  3.90727E+04 -4.29682E+04  5.59677E+04  2.89913E+02  3.40727E+04  3.37958E+04
 -1.00998E+04  3.39489E+04 -3.12769E+04  1.47344E+04 -3.24328E+04 -1.22664E+03 -1.52311E+04 -1.27626E+04
 -9.00055E+03 -1.20424E+04 -4.03848E+02 -1.71303E+04  8.13784E+03 -2.22611E+04  1.95018E+04 -1.34911E+04
  1.04116E+04  6.33652E+03 -7.05007E+03  1.45238E+04 -2.12429E+04 -3.55004E+03 -1.00649E+04 -3.31845E+04
  2.24620E+04 -4.15598E+04  5.09360E+04 -2.25986E+04  4.73256E+04  2.24164E+04  1.42825E+04  4.54154E+04
 -1.77734E+04  3.50597E+04 -2.38768E+04  3.57650E+03 -1.00196E+04 -2.68421E+04  2.20903E+04 -3.09246E+04
  3.92838E+04 -6.13248E+03  3.78055E+04  2.42973E+04  2.01858E+04  4.56960E+04 -6.80910E+03  5.03879E+04
 -2.97119E+04  3.27439E+04 -3.76845E+04  7.38964E+03 -4.12497E+04 -1.87331E+04 -2.22839E+04 -3.74352E+04
  1.03849E+04 -3.53511E+04  2.95042E+04 -1.14346E+04  2.98009E+04  1.04611E+04 -9.84970E+02  1.63359E+04
 -1.09967E+04  9.81726E+03 -9.86295E+03 -6.53132E+03  5.53385E+03 -1.41602E+04  2.47631E+04  6.78649E+03
  1.43885E+04  2.14551E+04 -2.58072E+03  2.63625E+04 -1.84052E+04  6.53608E+03 -2.65877E+04 -1.39108E+03
 -1.81776E+04 -2.18283E+04 -7.65710E+03 -2.11289E+04  2.44131E+03 -1.34492E+04  1.52877E+04 -1.87079E+04
  2.49379E+04 -1.67503E+04  3.14525E+04 -2.21861E+03  2.54145E+04  1.70194E+04  2.00109E+03  3.57411E+04
 -1.50294E+04  3.05241E+04 -2.52612E+04  9.94982E+03 -1.97809E+04 -1.02764E+04  1.36810E+03 -1.26579E+04
 -2.60434E+03 -1.08525E+03 -1.79273E+03  5.07985E+03 -1.37902E+04  2.64665E+03 -1.52018E+04 -5.80296E+03
 -1.30620E+04 -2.39127E+04  2.64256E+03 -1.86172E+04  1.26411E+04 -2.11200E+04  2.22470E+04 -2.51967E+03
  6.32102E+03  1.33776E+04 -2.37670E+03  2.00168E+04 -1.51778E+04  1.21536E+04 -1.90526E+04 -4.82767E+03
 -1.16869E+04 -1.32358E+04 -9.58926E+03 -2.64603E+04  1.48739E+04 -2.07215E+04  1.40554E+04 -1.54061E+04
  1.44432E+04  6.59198E+02  1.17506E+04  8.29856E+03  3.89862E+03 -7.22182E+02  9.58467E+03 -3.22138E+03
  1.35634E+04  1.88377E+03  1.83846E+04  1.26327E+04  9.45109E+03  2.78610E+04 -4.38021E+03  3.00387E+04
 -2.23554E+04  2.65671E+04 -3.59992E+04  1.14616E+04 -3.28804E+04 -7.38896E+03 -2.59065E+04 -1.59139E+04
 -1.14019E+04 -2.74651E+04  1.09124E+04 -2.20356E+04  2.39375E+04 -1.12846E+04  1.70273E+04  4.44252E+03
  7.61944E+03  1.30891E+04 -8.91210E+03  9.37000E+03 -1.57825E+04  4.58923E+03 -9.71466E+03 -1.09741E+04
  3.84201E+01 -2.14925E+04  2.86154E+03 -1.44917E+04  8.18811E+03  9.11988E+02 -1.40997E+03  1.10380E+04
 -6.17651E+03 -8.73526E+02 -2.64033E+03 -5.36430E+03  3.49926E+03 -7.45468E+03  1.08880E+04 -1.58205E+04
  1.30128E+04 -1.00582E+04  1.54249E+04 -2.22648E+03  1.44656E+04  1.34588E+04  1.07171E+04  1.64528E+04
 -1.78579E+03  2.02110E+04 -1.51596E+04  1.47750E+04 -1.22212E+04  5.39270E+03 -1.44058E+04 -4.57444E+03
 -6.19398E+03 -4.04830E+03 -4.87285E+03 -6.16770E+01  2.95609E+03  6.32143E+03 -7.72579E+03  7.14476E+03
 -9.39784E+03 -4.59271E+03 -1.01821E+04 -4.44249E+03 -3.48385E+03 -1.57328E+04  4.74131E+03 -1.03021E+04
  1.05788E+04 -5.97155E+03  4.81538E+03  1.64526E+03  2.98208E+03  5.21232E+03 -5.54396E+03  5.24071E+02
 -3.17123E+03 -3.93068E+03 -1.31681E+03 -1.40949E+04  6.46230E+03 -1.22226E+04  1.42135E+04 -8.65858E+03
  1.48508E+04  3.11938E+03  1.01439E+04  6.37718E+03  6.32761E+03  1.01096E+04 -1.39311E+03  8.76834E+03
 -5.41987E+03  1.80411E+03 -2.75870E+02 -2.03797E+03  5.04237E+03 -5.36384E+02  6.30912E+03 -3.87915E+03
  1.21606E+04  1.83117E+03  1.91107E+03  1.39256E+04 -5.64271E+03  2.64766E+03 -9.79279E+03  5.22731E+03
 -7.16688E+01 -2.43655E+03  6.28661E+02 -1.24308E+04  4.07177E+03 -6.70838E+03  5.77844E+03  2.42379E+03
  1.78010E+03  1.43761E+03 -5.59784E+03  3.96037E+03 -5.16539E+03  2.14285E+03 -9.44984E+03 -7.09484E+02
 -7.96150E+03 -9.83718E+03  1.43483E+03 -9.82875E+03  9.27399E+03 -9.39995E+03  1.57767E+04  4.31445E+03
  1.04621E+04  9.76138E+03  3.65841E+02  9.84349E+03 -4.16895E+03  6.80458E+03 -7.35571E+03 -3.62063E+03
 -1.23327E+03 -8.64292E+03 -1.96812E+03 -7.15932E+03  3.43906E+02 -6.19124E+03  3.74219E+03 -5.31145E+03
  4.29925E+03 -5.28942E+03 -9.42362E+02 -4.31107E+02  7.64163E+02 -6.16192E+03  8.24993E+02  8.38095E+02
  9.03018E+03 -9.69732E+03  3.22232E+03 -1.79036E+03  6.90278E+03  1.20084E+04  1.14514E+04  1.24774E+04
  1.93843E+03  1.38067E+04 -1.41532E+04  1.38240E+04 -1.40816E+04 -8.42325E+02 -1.25141E+04 -3.66365E+03
 -4.81298E+03 -8.12848E+03 -1.47472E+02 -6.11259E+03  2.67678E+03 -4.98908E+03  1.44077E+03 -3.03553E+03
  3.07209E+03 -9.72487E+02  6.30372E+03 -3.20918E+03  6.18080E+03  2.49922E+03  2.72728E+03 -3.87639E+03
  7.07346E+03 -3.88386E+03  6.00250E+02  4.55701E+03  1.39184E+03  4.15139E+03 -6.81186E+03  1.25675E+03
 -6.49773E+03  2.13494E+03 -5.57313E+03 -6.87492E+03  1.08621E+03 -7.00243E+03  1.98132E+03 -5.64292E+03
  8.91472E+03 -5.25759E+03  1.70543E+04  2.86901E+03  8.81454E+03  9.36881E+03  6.90557E+02  1.01796E+04
 -1.55353E+03  4.87023E+03 -6.14999E+03  7.47633E+03 -7.69159E+03 -1.73117E+03 -3.70732E+03 -1.92879E+03
 -3.39856E+03  1.37322E+03 -3.61934E+03  4.29643E+03 -1.08492E+03 -2.44126E+02 -7.09808E+03  5.04886E+02
 -5.07131E+03 -3.56176E+03 -1.20212E+03 -6.79804E+03  7.29795E+03 -1.16891E+04  7.86731E+03 -1.98034E+03
  5.91837E+03  4.51192E+03  6.28600E+03  6.25591E+03 -1.01998E+03  7.64277E+03 -7.31372E+03  2.09662E+03
 -6.26689E+03 -1.31492E+03 -1.01229E+04 -3.33131E+03  2.67045E+03 -6.95741E+03  1.92557E+03 -7.51173E+03
  8.48725E+03  1.52511E+02 -2.05210E+02  1.07264E+03 -8.79618E+02  1.02453E+03  5.68664E+03 -1.09142E+02
 -2.68024E+02 -2.28814E+02 -1.18789E+03  4.12172E+03  4.68510E+03  4.00638E+03 -1.80083E+03  8.62560E+03
 -2.64628E+03  4.88358E+03 -8.17389E+03  9.09609E+03 -6.13015E+03  6.79213E+02 -9.63617E+03 -4.35870E+03
 -7.83043E+03 -4.89454E+03  2.50099E+03 -9.25600E+03  7.48845E+03 -6.66173E+03  6.62952E+03  2.37957E+02
  1.23288E+03  2.36067E+03  3.09495E+03  8.96514E+03  2.58710E+03 -3.70579E+03 -5.39662E+03 -3.80086E+03
  1.94813E+02 -2.74405E+03  2.83164E+03 -6.45205E+03  1.49282E+03 -4.81934E+03  1.17244E+03  3.15999E+03
  3.06538E+03 -1.52954E+03  3.57254E+03 -5.24602E+03 -2.62891E+03  2.72481E+03 -5.17873E+03  1.69486E+03
  6.05493E+03 -2.64420E+02  3.33602E+03 -1.30631E+03  3.46752E+03  5.52373E+03  8.84093E+02  3.37210E+03
 -3.82132E+03  2.91393E+03 -3.02185E+03 -3.84769E+02 -8.73543E+03 -4.48421E+03 -4.92785E+03 -5.29810E+03
  3.35635E+03 -2.73472E+03 -8.65291E+02  5.77018E+01  1.17352E+03  3.45476E+03 -6.83014E+02 -4.90558E+02
 -4.42682E+03 -2.98187E+02 -3.32553E+03  2.50985E+03 -1.70539E+03 -2.79534E+03  1.05110E+03 -3.40553E+03
  5.07314E+03 -5.31012E+03  1.80392E+03 -5.83954E+03  2.60807E+03 -7.10612E+02  3.23644E+03  7.49834E+03
 -5.20937E+03 -8.76995E+02 -2.67492E+03 -2.96404E+03  5.26794E+03 -1.57347E+03  3.89604E+03  2.24775E+00
  1.51732E+03  5.57686E+03  6.27508E+03  2.34942E+03  3.92244E+03  1.60987E+03  3.10381E+02  5.60530E+03
  8.82984E+02  5.18559E+03 -8.03246E+03  4.60814E+03 -7.03422E+03 -3.52255E+03 -9.26080E+02 -7.28116E+03
 -6.77786E+02 -7.46671E+02  3.54687E+03 -1.02228E+03  1.42211E+03  4.63083E+03 -1.58275E+03  1.10527E+03
  7.14763E+02  2.55641E+03 -8.57882E+02  2.72667E+03  5.10763E+03  1.52639E+03 -1.34421E+03  3.71335E+03
 -2.43156E+03  6.18019E+03  1.95624E+03  4.40954E+03 -1.33545E+03  1.49421E+03 -4.87453E+03 -4.52064E+03
 -3.99256E+03 -6.34508E+03  3.04301E+02 -2.49786E+03  6.05245E+03 -2.61228E+03  4.65711E+03 -2.60993E+03
  7.53934E+03  1.85373E+03 -1.49941E+03  3.18566E+03 -3.85871E+02  3.82785E+03 -8.71627E+02  1.07931E+03
 -8.00548E+03  8.94541E+02  3.37662E+01  2.12585E+03  6.34566E+03  6.10103E+03 -3.08846E+03 -2.60491E+03
  2.84709E+02 -2.90483E+03  4.50518E+02 -2.78581E+03 -6.14414E+02  1.26485E+03 -6.72579E+03 -3.28835E+03
  7.62152E+03 -6.19240E+02  7.69099E+02 -3.01675E+03  3.63101E+03  4.61261E+03  2.06029E+03  1.68272E+03
  7.60395E+02 -1.79240E+02 -3.01538E+03  1.04909E+03 -6.45324E+03  7.66894E+02 -5.37866E+03 -6.93748E+03
  7.44169E+02 -4.80734E+03  1.37157E+03  6.77078E+02  2.22194E+03 -3.73144E+03  3.26558E+02  4.17721E+03
 -1.74482E+03  4.18266E+03 -1.87514E+03  1.77812E+03  8.09999E+02  1.42353E+03 -7.28664E+02 -1.69863E+03
 -1.69585E+03  8.46181E+02  2.01755E+03 -8.58083E+02 -7.73873E+02  6.67236E+02 -1.11667E+03  4.91535E+03
  2.96344E+02  4.85285E+01 -6.51619E+03  3.41886E+03 -2.10019E+03 -9.36085E+03  5.50672E+03 -2.92426E+03
  2.74796E+02 -1.49326E+02  5.75579E+03 -1.26206E+03  2.25210E+03  3.25235E+03  1.77228E+03 -1.70841E+03
  1.27131E+03  3.29156E+03 -1.11053E+03  1.17793E+03  4.36501E+03  2.60334E+03 -4.20215E+03 -3.64245E+03
 -1.37736E+03  8.53083E+02 -4.25739E+02 -9.44543E+02 -1.51367E+03 -2.02640E+03 -2.38985E+03 -1.08318E+03
 -5.90011E+03  4.01539E+03  3.66116E+03 -6.69474E+03 -5.98403E+02  5.99382E+02 -4.13129E+02  1.04429E+03
  3.31434E+03  3.01258E+03  6.76635E+03  2.40913E+03 -4.36665E+01  5.04966E+03 -2.19544E+03  3.51212E+03
