 $NMID ID='MM_0lb_SNR50_18hz_g60_12.RAW', FMTDAT='(8E13.5)'
 TRAMP=1., VOLUME=1. $END
  3.08727E+05 -8.90156E+02  3.33845E+05  2.51409E+05  8.37621E+04  3.40279E+05 -1.30371E+05  2.52789E+05
 -1.92040E+05  8.23958E+04 -1.12296E+05 -3.33923E+04  7.22907E+02 -5.29047E+04  5.48282E+04  1.50025E+03
  3.50251E+04  5.42908E+04 -1.61301E+04  7.24716E+04 -5.81424E+04  6.16748E+04 -8.25045E+04  3.08334E+04
 -8.27891E+04 -1.10361E+04 -5.44183E+04 -5.71396E+04 -1.61956E+04 -6.77758E+04  2.73151E+04 -4.87494E+04
  4.00851E+04  6.15668E+03  1.55096E+04  4.58135E+04 -3.71009E+04  4.96229E+04 -6.71490E+04  2.20152E+03
 -5.36567E+04 -5.82991E+04 -5.68076E+03 -7.66142E+04  3.05378E+04 -5.34386E+04  4.79567E+04 -1.54574E+04
  4.40496E+04  1.16322E+04  3.11103E+04  2.00277E+04  1.42350E+04  3.18145E+04 -3.47925E+03  2.62719E+04
 -1.84116E+04  1.19204E+04 -1.91616E+04 -4.96548E+03  4.59784E+03 -5.76105E+03  2.46694E+04  1.12548E+04
  1.00422E+04  3.71099E+04 -2.92248E+04  3.91810E+04 -6.27595E+04  2.33267E+03 -5.59754E+04 -4.79418E+04
 -1.32338E+04 -6.35721E+04  4.05294E+04 -4.37969E+04  5.63788E+04 -2.94055E+03  3.61992E+04  2.97495E+04
 -9.06847E+03  3.50874E+04 -2.89755E+04  1.47190E+04 -3.19790E+04 -8.13853E+03 -1.62233E+04 -8.07802E+03
 -9.14045E+03 -1.35286E+04 -1.45904E+03 -1.08267E+04  6.69142E+03 -2.23387E+04  1.53734E+04 -1.35521E+04
  1.18879E+04  4.08535E+03 -6.59134E+03  1.25813E+04 -2.33120E+04 -4.87265E+03 -5.46816E+03 -3.36618E+04
  2.19994E+04 -4.59252E+04  4.66650E+04 -2.12025E+04  4.52828E+04  1.99508E+04  2.05997E+04  4.40203E+04
 -1.83425E+04  3.43031E+04 -2.46385E+04  1.84815E+03 -1.05876E+04 -2.37220E+04  2.51091E+04 -3.22948E+04
  4.50725E+04 -6.71421E+03  3.13111E+04  2.24161E+04  1.72072E+04  4.27963E+04 -8.52155E+03  4.84763E+04
 -2.86303E+04  3.44406E+04 -4.27947E+04  1.28596E+04 -4.07168E+04 -1.76783E+04 -2.38713E+04 -4.03064E+04
  7.07100E+03 -3.74523E+04  3.48949E+04 -1.27286E+04  2.99593E+04  1.09912E+04  5.80856E+03  2.06712E+04
 -1.15577E+04  1.07151E+04 -9.03404E+03 -5.08420E+03  7.07688E+03 -8.44984E+03  1.92300E+04  8.03104E+03
  8.08333E+03  2.09722E+04 -8.15523E+03  2.27109E+04 -2.01256E+04  9.24945E+03 -2.58785E+04 -8.11617E+03
 -2.20063E+04 -9.47224E+03 -6.88899E+03 -2.19003E+04  6.41836E+02 -1.61546E+04  1.34559E+04 -1.67928E+04
  2.51558E+04 -1.28416E+04  3.14077E+04  2.84671E+03  2.20121E+04  1.45229E+04  2.92158E+03  3.60430E+04
 -1.33646E+04  2.55444E+04 -2.46686E+04  9.04189E+03 -1.96950E+04 -1.17221E+04 -3.45935E+03 -1.19341E+04
  5.52934E+03 -4.50850E+03 -6.30886E+02  1.05975E+04 -1.57145E+04  9.00051E+03 -1.47392E+04 -5.39778E+03
 -5.85191E+03 -1.82830E+04  5.01479E+03 -2.20154E+04  1.01439E+04 -1.58773E+04  1.09817E+04 -3.07832E+03
  9.43481E+03  8.70351E+03  7.34832E+02  1.60478E+04 -1.70378E+04  7.07923E+03 -1.59724E+04 -9.17805E+03
 -1.65716E+04 -1.62606E+04 -5.48536E+03 -2.05433E+04  1.37202E+04 -1.73795E+04  1.83613E+04 -1.26310E+04
  1.46003E+04 -8.27056E+02  8.54958E+03  5.00697E+03  5.60458E+03  3.02510E+03  7.37105E+03 -1.09086E+03
  1.27553E+04  2.54395E+03  2.15193E+04  1.34811E+04  1.07020E+04  2.93974E+04 -4.40023E+03  3.59994E+04
 -1.80715E+04  2.29628E+04 -2.50542E+04  7.87132E+03 -3.13138E+04 -6.86314E+03 -2.52738E+04 -1.40236E+04
 -1.47346E+04 -2.53066E+04  1.26657E+04 -2.35718E+04  1.75763E+04 -1.36732E+04  2.06384E+04  5.81760E+03
  7.36731E+03  1.47557E+04 -7.14611E+03  9.13680E+03 -1.46521E+04  2.62059E+03 -9.15245E+03 -1.31230E+04
  1.92058E+03 -1.71660E+04  1.90081E+03 -8.65201E+03  4.13143E+03  4.27522E+03  1.29604E+03  4.89749E+03
 -1.89803E+03  2.07632E+03 -4.94089E+03 -2.59893E+03  1.00506E+03 -1.00460E+04  9.85722E+03 -1.07282E+04
  1.65709E+04 -2.69707E+03  1.37380E+04  6.38285E+03  1.11746E+04  1.12687E+04  1.62633E+03  1.75568E+04
 -4.34148E+03  2.11554E+04 -1.32524E+04  7.93408E+03 -1.22219E+04  6.90260E+02 -8.49132E+03 -7.08091E+03
 -3.86899E+03 -3.36859E+03 -1.83527E+03  1.22921E+03 -6.13165E+03  1.91438E+03 -5.39703E+03  8.92825E+02
 -8.40952E+03  2.72913E+03 -8.21256E+03 -8.61420E+03 -5.23799E+03 -1.60167E+04  7.63174E+03 -6.75074E+03
  7.63054E+03 -8.63888E+03  4.15096E+03  4.81066E+03  4.11856E+03  5.62952E+03 -5.62107E+03  3.47790E+03
 -5.85028E+03 -5.84860E+03 -5.15646E+03 -7.54418E+03  5.17261E+03 -9.27698E+03  1.05485E+04 -1.30117E+03
  1.57683E+04  2.73223E+03  4.82159E+03  7.49432E+03  1.90280E+03  9.55371E+03 -8.29396E+03  1.05619E+04
 -7.32912E+03  5.16572E+02 -7.10572E+03 -1.33131E+03  2.22683E+03 -5.95621E+03  1.05102E+04  9.85408E+02
  7.62911E+03  6.93244E+03 -9.19276E+02  6.19837E+03 -2.08197E+03  6.56628E+03 -1.07105E+04  3.01617E+03
 -8.28393E+03 -4.39193E+03  9.82161E+02 -4.99762E+03  3.25369E+03 -1.72407E+03  4.08931E+03 -3.70560E+03
 -7.96117E+02  6.71291E+03 -4.74909E+03  9.32475E+03 -4.28298E+03  2.79930E+03 -5.25024E+03 -1.01639E+03
 -5.33301E+03 -6.11937E+03  1.78321E+02 -6.04274E+03  8.13646E+03 -2.51843E+03  4.04169E+03  3.76738E+03
  5.07685E+03  5.69709E+03 -1.05837E+03  1.10324E+04 -8.20936E+03  3.12111E+03 -1.10870E+04  2.08057E+03
 -8.98056E+03 -6.73378E+03 -3.43839E+03 -4.63434E+03  1.08679E+03 -6.21699E+03  4.46953E+03 -4.75677E+03
  5.65198E+03  2.03648E+03  2.17091E+03  2.09339E+03  2.15786E+02 -6.03085E+02 -5.32352E+02 -2.85902E+01
  1.35359E+02  1.65483E+02  7.59679E+03  1.93090E+03  6.35176E+03  2.58040E+03  8.97870E+03  9.53627E+03
 -2.97806E+03  7.32958E+03 -7.71608E+03  5.39008E+03 -1.22626E+04 -6.16447E+02 -1.35025E+04 -6.32569E+03
 -5.16005E+03  5.86310E+02  1.86060E+03 -4.41247E+03  5.82860E+02 -1.46780E+03  1.94860E+03  1.33447E+03
 -2.71081E+03 -5.62389E+03  4.97777E+03  3.21061E+03  3.89400E+02 -2.74694E+03  4.86072E+03  1.13934E+03
  4.32555E+03  1.11060E+03  9.04410E+02  4.24432E+03  2.44860E+03  5.31752E+03 -3.95230E+03  1.08624E+01
 -8.13406E+03 -9.65625E+02  1.32052E+03  3.82464E+02 -1.05962E+03 -7.90183E+03  4.88624E+03 -9.57092E+03
  5.22095E+03 -3.92174E+03  6.55405E+03 -3.14508E+02  3.93782E+03  4.96444E+03 -1.81415E+03  9.94093E+03
 -3.07962E+03  5.79805E+03 -2.71480E+03  2.34242E+03 -2.25686E+03  1.56801E+03  2.32729E+03 -7.34729E+02
 -2.42557E+03  2.41511E+03  1.13874E+03  4.40382E+03 -6.52624E+03  4.57894E+03 -1.50462E+03 -5.80018E+03
 -4.04169E+03 -3.48396E+03  3.38227E+03 -9.37819E+03  4.78851E+03 -5.57601E+03  6.16679E+03 -6.85565E+03
  3.66261E+03  3.16605E+03  4.18671E+03  4.27355E+03  1.45007E+03  2.69766E+03 -1.44277E+03  5.42046E+03
 -4.87301E+03  2.96098E+03 -7.50437E+03 -3.56041E+03  8.07996E+02 -3.23935E+03 -1.27952E+03 -2.10717E+03
  3.06186E+03 -3.09720E+03  3.54475E+03 -6.10544E+02 -2.39960E+03  1.54958E+03 -3.74926E+03  2.21583E+03
  6.45162E+02 -1.67564E+03  3.70323E+02  1.52396E+03 -1.08178E+03  3.62751E+03 -4.22502E+03  4.52087E+03
 -2.78324E+03  1.38853E+03 -3.90464E+03  4.93770E+03 -4.61866E+03  1.93317E+03 -3.34406E+03  4.34407E+02
 -1.78255E+03 -4.17367E+03 -1.36644E+03 -3.15953E+03  2.17198E+03 -3.73356E+03  5.97091E+03 -3.73296E+03
  5.53220E+03  1.86494E+03 -4.39854E+02  6.09688E+03 -1.96927E+03 -3.64099E+01 -6.21005E+02 -1.98869E+03
 -8.13057E+02  1.57908E+03  8.08063E+02 -2.88478E+03  2.94897E+03  5.93410E+03  7.03343E+02 -1.25791E+02
 -2.51069E+03  1.73126E+03  9.45835E+03 -2.66915E+03  1.18365E+03  2.05391E+03  2.22286E+03 -4.96931E+03
  3.68991E+02  3.49570E+03  4.55453E+03  5.25521E+02  1.85559E+03 -2.69052E+03  9.23640E+00  4.87193E+03
 -4.40128E+03  1.03618E+03 -1.26295E+03 -1.31918E+02  1.42981E+03 -2.44417E+03 -4.37381E+02 -5.40393E+03
  2.10477E+03  7.12702E+02 -1.22485E+03 -1.09834E+03  2.56725E+03  4.54287E+03 -1.82600E+03  3.11711E+02
 -1.88482E+03 -3.58438E+02 -3.55149E+03 -2.52873E+03  1.99413E+03  3.95716E+03  4.03194E+01  4.82287E+02
  4.24722E+03 -2.86655E+03  3.53775E+02 -2.17015E+03 -3.54618E+03  1.54796E+03  3.43570E+03  2.70935E+03
  1.35247E+03  1.06140E+03  2.28451E+02 -2.29587E+03  4.33254E+02 -3.16216E+03  1.78256E+03  6.48083E+02
 -1.94938E+03 -7.31102E+02  4.84978E+03  1.29407E+03 -4.31294E+03  1.96768E+03  1.88467E+03  4.88016E+03
  9.08233E+02  1.63350E+03 -4.73762E+02  1.39888E+03 -2.34644E+03 -5.63149E+02  2.95178E+03  3.00212E+03
  4.72250E+03  4.03688E+03 -2.04021E+03  2.69146E+03  6.89868E+03  2.63818E+03  4.34648E+03 -3.54036E+03
 -5.92155E+03  2.03943E+03  4.42643E+02 -1.69906E+03  3.13139E+03 -2.96746E+02 -5.09590E+03  1.15647E+03
  3.28888E+03  3.62099E+03 -3.98472E+03  2.37775E+03  4.33686E+01 -9.07017E+02  3.71890E+02 -1.01040E+03
 -2.78309E+03 -1.20320E+03  9.78271E+02 -4.79531E+03  3.60615E+02 -1.60185E+03 -3.17009E+02 -3.52391E+03
  1.56802E+03  2.37915E+02  2.99913E+02  6.84395E+03 -1.70874E+03 -2.79363E+02 -4.78984E+02  2.83991E+03
  1.28851E+03  8.95230E+02 -1.55450E+03 -4.19256E+02  5.01652E+02  2.14622E+03 -1.13496E+03 -3.18548E+02
 -2.62437E+03  3.63954E+03  2.56046E+03  1.01871E+03  2.42329E+03  6.62150E+02 -1.28600E+03 -1.05675E+03
  7.48450E+02  2.23996E+03 -5.46880E+02  1.32664E+03 -1.50383E+03  7.46273E+03  1.28638E+02  3.03358E+03
  9.94966E+02  4.52669E+02 -5.08312E+03  3.24163E+03 -1.35538E+03 -1.87088E+03  3.07261E+02  2.80475E+03
 -3.53731E+03 -3.13397E+03 -2.49486E+03 -3.18619E+03 -1.12073E+03  2.55740E+03  3.17914E+03 -3.69989E+03
 -2.33262E+03  1.97352E+03  2.46934E+03 -2.46447E+02  4.99328E+03  3.40476E+03  1.67812E+02 -2.79192E+03
  1.33206E+03 -5.44944E+02  1.90358E+02  3.91322E+03 -4.23253E+03  1.25449E+03 -1.30307E+02  4.16388E+03
 -3.11460E+03  5.12655E+03 -1.68867E+03  3.78096E+02  1.22042E+03 -2.20955E+03 -2.38146E+03  1.60240E+03
 -2.81720E+03  3.46310E+03  1.59815E+03  9.60214E+02  4.08162E+03  2.87697E+01  2.59588E+03 -2.64112E+03
  2.44104E+03  1.71335E+03 -4.02104E+02 -3.93575E+03 -3.63213E+03 -5.25837E+03 -1.59497E+03 -8.54649E+02
 -3.36169E+03 -3.63525E+03 -5.22847E+03  1.57521E+03  2.73837E+02  4.35564E+02 -3.83695E+03 -1.27146E+03
 -6.26437E+02  5.58469E+03  3.24495E+03 -3.22817E+03 -1.44618E+03 -3.78715E+03  1.63261E+03 -9.84051E+03
 -1.04547E+02 -4.91937E+02  3.60819E+03  3.23416E+02  1.85251E+02  3.18870E+03 -1.66463E+03  4.76173E+03
