 $NMID ID='MM_0lb_SNR50_8hz_g45_95.RAW', FMTDAT='(8E13.5)'
 TRAMP=1., VOLUME=1. $END
  3.07741E+05  3.99084E+03  3.32097E+05  2.45877E+05  8.82723E+04  3.37273E+05 -1.29263E+05  2.48799E+05
 -1.92419E+05  8.31485E+04 -1.09898E+05 -3.70316E+04  3.15259E+03 -5.55366E+04  5.24478E+04 -5.80328E+03
  3.51116E+04  4.94829E+04 -1.26777E+04  7.27336E+04 -6.01906E+04  6.63600E+04 -8.84578E+04  3.12188E+04
 -8.42664E+04 -6.29098E+03 -6.33800E+04 -5.27252E+04 -1.90971E+04 -7.70405E+04  3.15278E+04 -4.41540E+04
  3.97970E+04  6.20275E+03  1.38923E+04  4.87650E+04 -3.52593E+04  5.21445E+04 -6.38105E+04  1.81438E+03
 -5.94793E+04 -4.98177E+04 -1.39424E+04 -7.27265E+04  3.66256E+04 -5.54946E+04  5.11312E+04 -1.65755E+04
  4.89277E+04  1.28080E+04  3.59830E+04  2.84814E+04  2.24586E+04  3.08485E+04 -1.32444E+04  2.21958E+04
 -1.46208E+04  1.15713E+04 -1.63682E+04 -1.27783E+03  1.51368E+04 -6.64726E+03  2.65675E+04  1.34053E+04
  5.03524E+03  3.75987E+04 -2.86408E+04  3.84373E+04 -6.74937E+04  3.66147E+03 -5.28500E+04 -4.52197E+04
 -1.15203E+04 -6.49085E+04  4.39729E+04 -4.48288E+04  6.22019E+04 -5.32122E+03  4.25938E+04  3.18129E+04
 -3.05963E+03  4.51662E+04 -2.87713E+04  1.60556E+04 -3.87587E+04 -4.60083E+03 -2.15375E+04 -1.09929E+04
 -5.22153E+03 -1.34450E+04  1.72571E+02 -2.40673E+04  1.03610E+04 -2.75180E+04  9.73519E+03 -1.53787E+04
  1.17271E+04  8.87104E+03 -9.22668E+03  6.53696E+03 -1.85291E+04 -6.56192E+03 -6.10768E+03 -3.71278E+04
  2.31712E+04 -4.96957E+04  5.56502E+04 -1.90568E+04  4.21248E+04  1.74981E+04  1.62923E+04  5.13686E+04
 -1.48572E+04  3.34978E+04 -2.95917E+04  9.74294E+02 -1.45426E+04 -2.46643E+04  2.26649E+04 -3.95591E+04
  4.40192E+04 -1.87046E+04  4.55760E+04  1.99455E+04  2.15237E+04  5.00242E+04 -5.84762E+03  5.27433E+04
 -3.15751E+04  3.84767E+04 -4.47144E+04  1.75326E+04 -4.73828E+04 -1.51172E+04 -2.68071E+04 -4.04723E+04
  5.42108E+03 -4.56275E+04  3.48470E+04 -1.30508E+04  3.51745E+04  6.30117E+03  3.63720E+03  2.38997E+04
 -1.94853E+04  7.82499E+03 -1.21808E+04 -8.82924E+03  2.25060E+03 -1.13558E+04  1.72611E+04  4.53520E+03
  1.60562E+04  1.56462E+04 -1.26999E+03  3.44754E+04 -2.07474E+04  1.51525E+04 -3.17717E+04 -2.17742E+03
 -2.52665E+04 -1.89230E+04 -4.22054E+03 -1.92553E+04 -1.45196E+03 -2.37280E+04  1.95448E+04 -2.42225E+04
  3.03137E+04 -1.87136E+04  3.16587E+04  7.70771E+03  2.53741E+04  2.34409E+04 -3.94857E+03  4.36205E+04
 -3.01136E+04  3.73655E+04 -2.63752E+04  9.81551E+03 -1.86555E+04 -1.19614E+04 -7.81895E+03 -1.59304E+04
  9.64946E+02 -1.35282E+03 -1.09493E+04  1.10246E+04 -2.06590E+04  2.11888E+03 -2.13682E+04 -1.06368E+04
 -1.03150E+04 -2.09622E+04  2.91199E+03 -2.93986E+04  1.85452E+04 -2.53704E+04  2.43604E+04 -1.77976E+03
  1.35177E+04  1.66921E+04 -9.15456E+02  2.12746E+04 -1.89249E+04  1.10973E+04 -2.63880E+04 -7.16867E+03
 -1.76117E+04 -2.35257E+04 -2.08363E+02 -2.67105E+04  1.13566E+04 -2.19967E+04  2.55292E+04 -1.22178E+04
  2.00523E+04  2.01374E+02  2.12059E+04  3.20831E+03  4.17977E+03 -1.05152E+03  2.03921E+04 -2.38527E+03
  2.64140E+04 -1.16181E+03  2.67866E+04  1.71559E+04  1.54132E+04  3.68623E+04  3.03443E+03  5.22784E+04
 -2.73674E+04  4.23898E+04 -3.78407E+04  2.13965E+04 -4.45902E+04 -6.73606E+03 -4.13260E+04 -2.36764E+04
 -1.54509E+04 -4.23164E+04  1.25886E+04 -2.97904E+04  2.70250E+04 -1.02558E+04  2.06506E+04  6.25686E+03
  1.40930E+04  2.16938E+04 -1.44380E+04  1.56137E+04 -2.04436E+04  3.59624E+03 -1.61282E+04 -1.62326E+04
  1.68658E+03 -2.36484E+04  4.51241E+03 -1.38765E+04  1.03740E+04 -6.11640E+03 -1.78145E+03  7.75015E+03
 -1.42411E+04  7.23862E+03 -5.11300E+03 -9.21212E+03 -3.94098E+03 -1.54077E+04  1.34478E+04 -2.02463E+04
  2.66563E+04 -1.63075E+04  1.96808E+04  1.05141E+04  2.29336E+04  2.14068E+04  1.27514E+04  2.64745E+04
 -1.16837E+04  3.49314E+04 -2.42786E+04  1.80295E+04 -2.41342E+04  7.25896E+03 -1.32890E+04 -9.06572E+03
 -4.76635E+03 -5.31145E+03  4.67312E+03  1.47910E+03 -3.01600E+03  1.20192E+03 -7.08709E+02  8.75903E+03
 -1.19199E+04 -9.55538E+03 -2.20564E+04 -1.15616E+04 -7.63880E+03 -1.84332E+04  6.53234E+03 -1.57720E+04
  7.38722E+03 -5.39401E+03  1.82086E+04 -6.22441E+02  9.26342E+03  7.16515E+03 -1.56248E+04 -2.88552E+03
 -6.30532E+03 -9.30817E+03 -8.13430E+03 -1.53079E+04  1.23278E+04 -1.51326E+04  1.87059E+04 -8.51828E+03
  2.33262E+04  3.70325E+03  1.89246E+04  1.93907E+04 -2.50405E+01  2.14076E+04 -7.36278E+03  1.35575E+04
 -1.68818E+04  4.62177E+02 -2.73506E+03  1.01671E+03 -5.28932E+03 -8.67622E+03  5.65701E+03 -2.57957E+02
  4.97572E+03  1.16225E+04 -1.38036E+03  1.81198E+04 -1.02772E+04  1.17081E+04 -1.31435E+04 -3.01796E+03
 -1.24584E+04 -8.93396E+03 -1.74194E+03 -1.41597E+04  9.66018E+03 -9.13151E+03  3.81288E+03  5.28076E+03
  1.16153E+04  7.63041E+03 -6.98559E+03  1.27272E+04 -1.73546E+04  6.85828E+03 -1.66697E+04 -3.36133E+03
 -7.78127E+03 -1.80730E+04  5.59685E+03 -1.23654E+04  1.13703E+04 -1.51683E+04  1.71621E+04  1.75123E+03
  8.92563E+03  1.73065E+04 -3.20338E+03  1.03108E+04 -6.46239E+03  5.92000E+03 -6.94887E+03 -6.48966E+02
 -9.15119E+03 -1.10989E+04  2.48107E+03 -1.27961E+04  7.16551E+03 -9.53648E+03  1.22999E+03 -5.14909E+03
  8.52134E+02  5.37303E+03 -2.32007E+03  6.72135E+03  4.71412E+03 -9.35291E+03  2.44740E+03 -2.64224E+03
  2.22290E+04 -8.71035E+03  1.81190E+04 -1.19456E+03  2.03078E+04  1.37529E+04  1.14317E+04  2.60218E+04
  4.12597E+03  2.64645E+04 -2.52893E+04  1.90599E+04 -3.36193E+04  6.98198E+03 -2.18304E+04 -1.57948E+04
 -6.23416E+03 -1.86410E+04 -1.67614E+03 -1.53410E+04  1.98510E+03 -6.14058E+03  1.40152E+03 -6.85941E+03
  7.30394E+03 -2.28520E+03  6.21169E+03 -3.75430E+03  3.25759E+03  2.27194E+03  9.80412E+03 -8.44186E+03
  1.20870E+04 -3.62462E+03  5.26681E+03  4.38156E+03 -8.89198E+03  1.83604E+04 -1.69733E+04  9.12714E+03
 -2.05127E+04 -4.23740E+03 -9.59573E+03 -5.85886E+03 -4.19777E+03 -2.01258E+04  1.25362E+04 -1.11790E+04
  1.74086E+04 -9.75978E+03  2.14175E+04  7.40401E+03  1.44102E+04  9.00393E+03 -1.30128E+03  1.70174E+04
 -7.86724E+03  1.38599E+04 -6.57796E+03  7.53389E+03 -7.37519E+03 -1.82076E+03 -6.39828E+02 -3.03580E+03
  1.14700E+03  3.05702E+03  1.59605E+03  2.57544E+03 -4.02032E+02  1.31157E+02 -9.89732E+03  2.97845E+03
 -1.16193E+04 -4.27738E+03 -2.49237E+03 -1.01276E+04  9.96925E+03 -1.57384E+04  1.71616E+04 -7.92440E+03
  1.59296E+04  7.03842E+03  1.90421E+03  1.52375E+04  1.20464E+03  1.70574E+04 -1.55928E+04  1.36750E+04
 -1.92290E+04 -1.19585E+03 -1.37496E+04 -4.96861E+03  3.15043E+03 -1.27839E+04  5.19644E+03 -1.26889E+04
  8.19739E+03 -2.82668E+03  3.78800E+03 -2.88278E+02 -2.34938E+03  8.08723E+03  7.21816E+03  5.69511E+03
  5.63276E+03  3.74172E+03  8.08291E+02  1.29001E+03  5.70461E+03  9.73413E+02  3.39157E+03  5.36209E+03
 -6.68470E+03  1.00527E+04 -1.07171E+04  1.63404E+04 -1.56998E+04  6.29098E+03 -2.27313E+04 -5.32267E+03
 -9.13981E+03 -1.89214E+04 -5.09256E+03 -1.37043E+04  1.13741E+04 -2.13456E+04  1.82861E+04 -7.01974E+03
  7.63824E+03  3.94485E+03  2.86590E+03  9.49457E+03 -5.37747E+03  6.01586E+03 -1.58315E+03 -2.89835E+03
  2.05007E+03 -1.26906E+04  9.60221E+03 -8.65802E+03  4.96254E+03 -2.47436E+03  6.11998E+03 -1.59013E+02
 -1.08399E+03  9.21555E+03 -4.66484E+02  5.12685E+03 -4.25707E+03 -4.57746E+03  6.39713E+03 -2.01287E+03
  8.79210E+03 -1.43853E+03  9.91405E+03  9.38083E+03  6.41218E+02  1.54220E+04 -3.81254E+02  6.89051E+03
 -8.53706E+03  8.59428E+03 -1.38734E+04  6.47255E+03 -1.20946E+04 -3.14636E+03 -4.16919E+03 -1.05953E+04
 -1.50067E+03  2.59696E+03  8.84796E+03  1.08917E+03  4.63449E+03  9.84642E+02 -6.61304E+03  5.98728E+03
 -8.23955E+03  2.57837E+03 -1.66720E+04 -2.96103E+03 -4.09155E+03 -6.23302E+03  4.33358E+03 -1.21158E+04
  5.13064E+03 -1.03617E+04  5.67692E+03 -2.27794E+03  1.54490E+03  2.51159E+02 -7.34658E+03  1.24659E+03
 -6.17834E+03  3.64334E+03 -1.04026E+03 -5.59228E+03  3.50381E+03 -4.80542E+03  3.65562E+03 -5.50470E+03
  1.55594E+04  7.52157E+03  8.89725E+03  1.75413E+04  5.08919E+03  1.34779E+04 -4.54247E+03  1.39280E+04
 -1.01181E+04  9.36350E+03 -7.65123E+03 -1.21599E+04 -7.38167E+03 -9.82514E+03  6.91002E+03 -1.67084E+03
  1.02157E+04 -1.50850E+03  6.45183E+03  1.84005E+03  8.40717E+03  4.39769E+03 -6.41854E+02  6.62092E+03
 -3.92649E+03  2.51555E+03 -2.11091E+03  6.17461E+02 -3.02106E+03 -3.18860E+02 -5.77005E+03  4.05619E+03
 -5.98967E+03  3.99570E+03 -1.17143E+04  5.26924E+03 -1.35638E+04 -4.61302E+03 -1.43673E+04 -1.59548E+04
 -4.33375E+03 -1.64063E+04  2.19393E+03 -2.02302E+04  5.96310E+03 -1.34086E+04  1.34806E+04 -5.28365E+02
  1.31653E+04  3.70399E+03  1.32761E+04  1.77544E+04 -2.38204E+03  9.50656E+03 -4.47346E+03  8.51678E+03
 -2.82742E+03  3.73536E+03 -5.45272E+03  3.63831E+02 -7.12907E+03  6.16777E+02 -2.84659E+02 -3.01416E+03
 -7.09847E+03 -5.68403E+03 -6.59294E+03  5.80789E+03 -4.54870E+03 -4.41367E+03  3.67868E+03 -1.27343E+03
  3.28991E+03  4.63725E+02  3.64446E+03  3.29453E+03  8.91867E+03  9.84919E+03  7.83420E+03  7.20608E+03
 -7.46935E+03  1.47389E+04 -1.31516E+04  8.13171E+03 -1.29768E+04  1.91574E+03 -1.47340E+04 -7.43482E+03
 -1.30397E+03 -1.58801E+04  5.86925E+03 -2.94807E+03  8.76315E+03 -6.96175E+03  6.53731E+03  1.61787E+03
  1.84017E+02  6.40943E+03  3.54654E+03  5.96019E+03 -4.28523E+03 -1.81067E+03  1.65433E+03  6.80816E+03
  3.61091E+03 -1.40894E+03  5.63763E+03 -1.23618E+03  3.60915E+03  9.56077E+03  2.65356E+03  1.80946E+03
 -3.93566E+03  3.11724E+03 -4.50964E+03  2.80499E+03 -3.92673E+03 -6.05183E+03 -4.02776E+03 -1.53578E+04
  2.23759E+03 -6.38044E+03  1.15909E+04 -2.92562E+02  1.05679E+04  4.14495E+03  3.44541E+03 -5.01157E+01
  1.92949E+03  1.08002E+04 -4.14957E+03  9.91151E+03 -7.29628E+03  4.49771E+03 -6.25616E+03 -3.74311E+02
 -9.99255E+03  3.02976E+03 -5.75719E+03 -2.13587E+03 -3.65635E+03  3.03085E+03 -1.04329E+04  2.24362E+02
 -6.49758E+03 -1.25588E+04 -1.76778E+03 -4.53432E+03  9.86353E+03 -1.04854E+04  1.63496E+04 -8.31302E+03
  1.02990E+04  3.50718E+02  9.66557E+02  3.99448E+03 -3.63453E+03  9.74761E+03 -5.13163E+03  8.71703E+03
