 $NMID ID='MM_0lb_SNR50_11hz_g50_91.RAW', FMTDAT='(8E13.5)'
 TRAMP=1., VOLUME=1. $END
  3.14591E+05  1.24992E+03  3.39176E+05  2.52611E+05  8.95616E+04  3.35125E+05 -1.31762E+05  2.47780E+05
 -1.94594E+05  8.34421E+04 -1.11078E+05 -3.06584E+04  2.54023E+03 -4.78074E+04  4.85115E+04 -8.87144E+03
  3.92600E+04  5.50632E+04 -1.63433E+04  8.16519E+04 -5.92687E+04  5.76982E+04 -8.09595E+04  2.82917E+04
 -7.65316E+04 -1.50686E+04 -5.76396E+04 -5.14512E+04 -1.10671E+04 -8.08895E+04  2.55295E+04 -5.21748E+04
  3.83680E+04  4.26214E+03  1.42941E+04  4.42838E+04 -3.37563E+04  4.78082E+04 -6.82153E+04 -1.35205E+03
 -5.77606E+04 -5.67432E+04 -8.04889E+03 -7.81047E+04  3.14323E+04 -5.72782E+04  4.69311E+04 -1.74242E+04
  4.32016E+04  1.33083E+04  3.59550E+04  2.45985E+04  2.18628E+04  3.16965E+04 -1.09939E+04  2.61989E+04
 -2.30923E+04  1.57004E+04 -2.43852E+04 -5.85319E+03  8.81829E+03 -1.15280E+04  2.90412E+04  1.20704E+04
  7.51733E+03  3.86385E+04 -2.88837E+04  3.61180E+04 -6.18930E+04 -1.75543E+03 -6.26967E+04 -4.22952E+04
 -6.56507E+03 -6.31820E+04  4.06490E+04 -4.63746E+04  6.05252E+04 -6.06793E+02  3.49931E+04  3.37792E+04
 -6.59806E+03  3.50326E+04 -3.31482E+04  1.85768E+04 -3.19913E+04  1.13129E+03 -1.84241E+04 -1.71453E+04
 -1.16849E+04 -1.41897E+04 -3.68277E+03 -2.57417E+04  6.94770E+03 -2.33125E+04  1.62323E+04 -1.20611E+04
  1.06207E+04  8.08571E+03 -1.14988E+04  9.40988E+03 -3.15940E+04 -5.65263E+03 -9.08072E+03 -4.02934E+04
  1.97039E+04 -4.40862E+04  5.22729E+04 -1.65272E+04  4.29446E+04  2.21817E+04  1.54903E+04  4.95835E+04
 -1.65105E+04  3.02870E+04 -2.40410E+04  2.69543E+03 -1.01486E+04 -2.97805E+04  1.86071E+04 -3.64907E+04
  4.10292E+04 -1.01926E+04  3.69716E+04  2.77725E+04  1.44762E+04  5.11057E+04 -4.42158E+03  5.21213E+04
 -3.35088E+04  3.73833E+04 -4.82139E+04  8.07328E+03 -4.46040E+04 -1.05846E+04 -2.23279E+04 -4.28366E+04
  7.57789E+03 -4.31411E+04  3.04183E+04 -1.12536E+04  3.55007E+04  1.49922E+04  4.80308E+03  1.91114E+04
 -1.42387E+04  1.04519E+04 -1.28373E+04 -5.21706E+03  7.37938E+03 -1.70366E+04  2.13405E+04  7.36951E+03
  1.83129E+04  2.34345E+04 -4.64928E+03  2.76974E+04 -2.13429E+04  1.24509E+04 -2.11164E+04 -8.01660E+03
 -2.61965E+04 -1.64361E+04 -1.02707E+04 -2.02781E+04  1.50332E+03 -2.30505E+04  1.76015E+04 -1.96405E+04
  3.06796E+04 -1.56095E+04  3.21074E+04  1.11105E+04  2.72509E+04  2.56928E+04  4.13647E+03  3.90120E+04
 -1.67994E+04  2.88970E+04 -3.28643E+04  1.80292E+04 -1.72312E+04 -1.05037E+04 -4.14996E+03 -1.43113E+04
  9.77276E+02 -3.72777E+03 -6.59606E+03  1.73184E+03 -1.67121E+04  6.31783E+03 -1.84625E+04 -7.86608E+03
 -8.05672E+03 -1.89900E+04  7.35425E+03 -2.40518E+04  1.31207E+04 -2.09454E+04  2.07696E+04  9.18836E+01
  1.46101E+04  1.78782E+04  8.56367E+02  2.16906E+04 -1.21623E+04  1.61275E+04 -2.56295E+04 -3.94718E+03
 -1.71838E+04 -1.48364E+04 -4.37748E+03 -2.63216E+04  1.12438E+04 -2.11080E+04  2.31678E+04 -7.77186E+03
  1.99404E+04 -1.82093E+03  1.60885E+04  4.96303E+03  1.12430E+04  4.11137E+03  1.04113E+04 -3.98289E+03
  1.86546E+04 -2.43377E+03  2.18393E+04  2.00029E+04  1.59948E+04  3.52599E+04 -3.15147E+03  4.45132E+04
 -2.56260E+04  3.43077E+04 -4.05722E+04  1.22749E+04 -3.28412E+04 -4.27818E+03 -3.32824E+04 -2.38022E+04
 -1.04140E+04 -3.23940E+04  9.95192E+03 -2.50896E+04  2.47218E+04 -1.81382E+04  2.30067E+04  1.17024E+04
  9.62666E+03  1.98783E+04 -1.40335E+04  1.52776E+04 -2.09986E+04  3.80783E+03 -1.35967E+04 -1.09172E+04
  2.46444E+03 -1.86633E+04  9.81670E+03 -1.17034E+04  1.11311E+04 -5.41477E+03  1.33888E+03  8.56595E+03
 -4.71909E+03  5.17547E+02 -7.94242E+03 -9.12771E+03  1.28075E+03 -1.83140E+04  9.94845E+03 -1.48173E+04
  2.14707E+04 -6.23096E+03  2.49973E+04  5.50203E+03  1.52183E+04  2.11431E+04  6.59733E+03  2.41397E+04
  8.65930E+02  2.99470E+04 -2.11289E+04  1.64277E+04 -7.97578E+03  4.42243E+03 -1.54537E+04 -2.07638E+03
 -4.94776E+03 -7.48627E+03 -5.95651E+03  5.25816E+02  9.36481E+02  5.49247E+03 -5.38997E+03  7.45286E+03
 -1.48796E+04 -7.41576E+03 -1.70511E+04 -9.37120E+03  1.52974E+03 -1.56211E+04  2.45757E+03 -1.15659E+04
  1.08853E+04 -3.24810E+03  1.08418E+04  4.47713E+03 -6.26404E+03  1.98611E+03 -1.09023E+04 -4.72756E+03
 -1.96870E+03 -9.94031E+03 -3.54295E+03 -9.41882E+03  7.51836E+03 -1.85983E+04  1.57475E+04 -1.14850E+04
  1.63917E+04 -1.67101E+03  1.26057E+04  1.73949E+04  5.08822E+03  1.56096E+04 -1.06523E+04  1.29023E+04
 -1.35235E+04  3.26346E+03 -3.55298E+03 -7.66224E+03  3.06900E+03 -4.21387E+03  1.07825E+04 -3.90308E+03
  1.21079E+04  1.39257E+03  7.62693E+03  1.15655E+04 -1.25255E+04  8.30156E+03 -9.25172E+03 -2.61885E+03
 -5.88621E+03 -7.14981E+03 -7.01284E+03 -1.19677E+04  9.30720E+03 -7.93410E+03  3.54144E+03  4.96920E+03
  2.51928E+03  4.83558E+03 -6.35382E+03  8.24429E+03 -1.30213E+04  6.44231E+03 -1.04448E+04 -3.10971E+02
 -7.87621E+03 -1.74998E+04 -2.84889E+03 -1.28687E+04  1.23504E+04 -1.03401E+04  1.01758E+04  6.64368E+03
  1.07745E+04  1.40894E+04 -1.33520E+03  1.17486E+04 -8.74663E+03  4.95691E+03 -1.07056E+04  7.63926E+03
 -5.89681E+03 -8.39592E+03 -3.37179E+03 -1.42803E+04 -3.20113E+03 -1.05062E+04  6.14090E+02 -2.37508E+03
  4.22521E+03  4.62051E+03 -2.89785E+03  4.78232E+03  3.34882E+03 -3.36748E+03  5.08704E+03 -3.04486E+03
  9.07193E+03 -5.17044E+03  1.81118E+04 -7.35841E+02  1.56009E+04  6.02206E+03  6.37929E+03  1.61283E+04
 -2.11357E+03  1.85158E+04 -1.85904E+04  1.24571E+04 -2.02945E+04  2.40871E+03 -2.54566E+04 -8.63622E+03
 -9.98159E+03 -1.36192E+04 -3.82181E+03 -1.13987E+04  2.37480E+03 -7.10582E+03  5.72537E+03 -5.47936E+03
  4.70717E+03  1.62593E+03  2.20462E+03 -3.15564E+03  6.64711E+02 -7.92041E+03  9.82268E+03  2.09551E+03
  1.17782E+04  6.20949E+02  7.11076E+03  7.93447E+03 -7.69210E+03  1.26070E+04 -8.01255E+03  6.01830E+03
 -1.52311E+04  2.75947E+03 -8.68115E+03 -8.26154E+03  2.53395E+03 -1.25657E+04  6.67277E+03 -1.90064E+04
  1.46163E+04 -1.06595E+04  2.00777E+04 -1.33923E+02  1.80785E+04  9.86566E+03 -4.83468E+02  1.64954E+04
 -3.30979E+03  1.29009E+04 -1.62268E+03  2.98029E+03 -5.33997E+03  1.44980E+03  3.33157E+03  7.93076E+02
  2.39051E+03  2.38933E+03 -6.53992E+03  5.29101E+03 -7.01618E+03  2.41404E+03 -1.32983E+04 -3.50345E+03
 -8.87789E+03 -8.93494E+03 -1.76393E+03 -1.09569E+04  1.24628E+04 -1.27456E+04  1.05190E+04  5.87308E+03
  1.61035E+04  5.58689E+03  2.91656E+03  1.22337E+04  5.02165E+02  9.20473E+03 -8.59710E+03  1.35309E+04
 -9.69670E+03  3.45712E+03 -1.07013E+04 -8.92469E+03  1.89445E+01 -1.23398E+04  2.81732E+03 -1.01167E+04
  7.54876E+03 -5.23920E+02  3.44727E+03 -6.17730E+03 -2.18782E+03  5.41121E+03  4.39554E+03  1.87069E+03
  6.85027E+03 -2.15638E+03 -1.37404E+03  1.32910E+03  9.68305E+03  2.49550E+03  3.13366E+03  5.66330E+03
 -2.92434E+03  9.30576E+03 -9.80444E+03  9.03972E+03 -1.53597E+04 -1.45962E+03 -1.00999E+04 -1.33674E+03
 -7.27953E+03 -1.62176E+04 -4.39434E+03 -9.42370E+03  6.40158E+03 -5.67504E+03  4.22331E+03 -3.88042E+03
  5.78893E+03  1.83853E+03  3.09085E+03  9.66528E+03 -4.87663E+03  3.40184E+03 -7.19507E+03 -9.39263E+02
 -4.80406E+03 -3.61012E+03  1.54844E+02 -3.33519E+03  1.43250E+03 -1.25939E+03  8.83784E+03 -1.41796E+03
  2.87644E+03  1.10799E+03 -1.08907E+03  4.09181E+03 -1.11222E+03  4.01581E+02  2.46690E+03 -7.61659E+02
  6.90457E+03 -3.39748E+03  6.42365E+03  4.42590E+03  8.74385E+03  8.09244E+03 -6.62817E+02  1.35814E+04
 -4.89231E+03  2.66260E+03 -2.35064E+03 -2.56372E+03 -2.85512E+03 -4.46611E+03  1.21402E+03 -1.61091E+03
  2.25737E+03 -5.44411E+03 -3.40443E+03 -4.65357E+03  9.65348E+02  4.18176E+03 -2.38551E+03  2.50548E+03
 -3.84226E+03  5.67948E+03 -7.09130E+03 -3.01611E+03  4.30896E+02 -1.34394E+03  3.10791E+03 -9.99550E+03
  5.29189E+03 -6.85593E+03  4.84802E+03 -1.37507E+03  3.33712E+03  3.08411E+03 -1.02536E+03  6.64439E+02
  1.77206E+03 -5.75443E+02 -5.31914E+03 -1.72382E+03  8.58690E+02 -4.43859E+03  7.45387E+03 -1.07293E+03
  6.44924E+03  2.28944E+03  9.85563E+03 -1.41689E+03  1.20016E+02  1.08990E+04 -8.33891E+03  8.78376E+03
 -8.98077E+02  6.79990E+02 -4.70542E+03  2.33274E+03 -5.36684E+03 -1.29121E+04 -2.37208E+02 -9.36451E+03
  4.34058E+03 -2.35172E+03  9.43328E+03 -2.98749E+03 -9.17280E+02  9.87757E+02 -6.06372E+03  3.27342E+03
 -3.26035E+03  2.07276E+03 -9.21721E+02  7.83129E+00  9.64263E+02 -6.74387E+03 -9.61150E+00  1.41914E+03
  1.24409E+03  2.52244E+03 -1.82619E+03  2.93737E+03 -8.43565E+03 -3.05886E+02 -5.61516E+03 -2.33465E+03
 -4.30115E+03 -1.04662E+04 -3.67373E+03 -1.43797E+04  5.88294E+03 -6.21930E+03  5.52209E+03 -2.79828E+03
  7.97031E+03  5.14148E+03  5.03827E+03  9.68815E+03 -5.91768E+03  4.02922E+03 -5.34523E+03  2.62247E+03
 -3.65805E+03  6.57478E+02 -5.34352E+02 -9.06507E+02 -2.59448E+03  3.73208E+02 -1.58864E+03 -4.87935E+03
 -7.83251E+03 -2.02169E+03  7.32617E+02  4.38327E+03  1.56597E+03 -5.22625E+03 -5.27477E+03 -5.03822E+03
  4.59584E+03 -3.00439E+03  5.48850E+03 -6.77413E+03  5.10668E+03  4.73539E+03 -6.57214E+03  7.85716E+03
 -4.56355E+03  9.46204E+03 -1.06263E+04  4.97178E+03 -5.97336E+03 -3.77526E+03 -1.68042E+04 -5.76965E+03
 -5.92223E+03 -7.49816E+03  1.18046E+03 -7.72282E+03  4.43953E+03 -3.88405E+03  5.55190E+02  3.52564E+03
  4.48900E+03 -1.24077E+03 -4.61983E+02 -4.17243E+03 -1.29378E+03 -4.12104E+03 -7.07322E+03  7.03590E+02
  4.54857E+03 -6.56307E+03  2.43474E+03 -2.88867E+03  6.35467E+00 -1.78423E+03  3.27980E+03  7.32439E+03
 -1.52243E+03  1.27894E+03 -8.21979E+03  4.05611E+02 -2.75026E+03 -2.30629E+02  1.36127E+03 -1.02038E+04
  2.93510E+03 -4.67244E+03  1.89966E+03  1.19325E+03  1.16626E+04  1.27814E+03  1.20665E+03  3.78634E+03
  1.12191E+03  1.76207E+03 -4.90100E+03  2.53748E+03 -6.32918E+03 -1.26176E+03 -5.62791E+03  1.00221E+03
  2.67810E+02 -3.87519E+03 -2.53412E+03 -2.87380E+03 -2.74788E+03  1.56778E+03  2.51023E+03 -5.05804E+03
 -4.90377E+03 -1.72723E+03 -2.75873E+03 -4.42676E+03  1.71743E+03 -4.24878E+03  1.74833E+03 -6.38060E+03
  3.71479E+03  1.36046E+03  3.49920E+03  1.71747E+03  2.30544E+03 -2.47897E+03 -5.89839E+03  7.57158E+03
