 $NMID ID='MM_0lb_SNR50_18hz_g55_10.RAW', FMTDAT='(8E13.5)'
 TRAMP=1., VOLUME=1. $END
  3.11260E+05 -4.39607E+03  3.36577E+05  2.53531E+05  8.69520E+04  3.35872E+05 -1.34777E+05  2.47516E+05
 -1.89900E+05  7.86875E+04 -1.11829E+05 -3.28866E+04  3.24283E+03 -5.19925E+04  5.20441E+04 -1.45640E+02
  3.50009E+04  5.51940E+04 -1.60160E+04  7.37535E+04 -5.91213E+04  6.63823E+04 -8.37254E+04  3.21765E+04
 -8.38657E+04 -9.90686E+03 -5.44426E+04 -5.42204E+04 -1.43004E+04 -6.88015E+04  2.97019E+04 -4.15403E+04
  4.04107E+04  2.78084E+03  2.31799E+04  4.83889E+04 -3.37990E+04  4.68073E+04 -7.04193E+04  3.13592E+02
 -5.50680E+04 -5.58930E+04 -6.36641E+03 -7.96332E+04  3.25437E+04 -5.60587E+04  4.58166E+04 -1.35367E+04
  4.50508E+04  1.61423E+04  3.07425E+04  2.78824E+04  1.41187E+04  3.25824E+04 -9.45125E+03  2.76108E+04
 -1.97527E+04  9.49861E+03 -1.72265E+04 -4.37541E+03  4.39058E+03 -8.87280E+03  2.19774E+04  8.73909E+03
  6.17172E+03  3.22043E+04 -3.19596E+04  3.59202E+04 -6.22965E+04 -1.21124E+03 -5.99225E+04 -3.92011E+04
 -1.33314E+04 -5.95089E+04  3.97152E+04 -4.36314E+04  5.80241E+04  1.47038E+03  3.37732E+04  3.04840E+04
 -5.79934E+03  3.25118E+04 -3.15065E+04  1.60917E+04 -2.62732E+04 -5.00130E+03 -1.38834E+04 -1.01391E+04
 -4.20813E+03 -1.07625E+04 -4.87989E+03 -1.43379E+04  3.98678E+03 -1.97758E+04  1.28734E+04 -1.34696E+04
  8.73112E+03  2.64027E+03 -2.46119E+03  1.32868E+04 -1.83324E+04 -5.80122E+03 -1.06930E+04 -2.78255E+04
  1.74689E+04 -4.43686E+04  4.64123E+04 -2.23344E+04  4.18724E+04  1.96452E+04  1.70084E+04  4.24729E+04
 -1.61990E+04  3.16626E+04 -2.73191E+04 -1.24869E+02 -1.12592E+04 -2.63921E+04  2.28830E+04 -3.31948E+04
  3.87743E+04 -8.76717E+03  3.43056E+04  2.34320E+04  1.47308E+04  4.24158E+04 -8.80518E+03  4.89001E+04
 -3.27427E+04  2.96723E+04 -4.04132E+04  9.25241E+03 -4.29699E+04 -1.53442E+04 -1.88305E+04 -3.29951E+04
  8.25585E+03 -3.41566E+04  3.05571E+04 -1.51795E+04  2.47162E+04  1.17137E+04  7.59136E+01  2.22218E+04
 -1.84775E+04  9.66912E+03 -1.13019E+04 -8.87567E+03  4.03343E+03 -9.28927E+03  1.87902E+04  6.43863E+03
  1.34910E+04  2.09349E+04 -6.60896E+03  2.17919E+04 -2.54737E+04  1.03715E+04 -2.91513E+04 -8.06820E+03
 -1.63701E+04 -1.69079E+04 -9.31938E+03 -1.97741E+04  7.90666E+03 -1.54706E+04  1.14244E+04 -1.66586E+04
  2.41684E+04 -1.44659E+04  2.91653E+04  2.83504E+03  2.13948E+04  1.98167E+04  3.76034E+03  3.76615E+04
 -1.84813E+04  3.04684E+04 -2.71005E+04  1.04910E+04 -1.94030E+04 -1.18336E+04 -4.39517E+03 -1.46461E+04
  3.57024E+03 -5.18632E+03 -6.70419E+03  9.19385E+03 -1.68531E+04  2.40335E+03 -1.30555E+04 -6.98041E+03
 -9.41597E+03 -1.64164E+04  7.07745E+03 -2.06459E+04  1.37254E+04 -1.95065E+04  2.09651E+04 -2.64032E+02
  4.19592E+03  1.19786E+04 -2.63527E+03  1.52163E+04 -1.00893E+04  7.34132E+03 -1.51073E+04  2.09563E+01
 -1.15008E+04 -1.54841E+04 -8.05661E+03 -1.89539E+04  1.27685E+04 -1.68479E+04  1.96529E+04 -8.85267E+03
  1.47367E+04 -4.73639E+03  1.28230E+04 -1.43372E+03  3.94446E+03 -1.83411E+03  7.68952E+03 -1.06534E+03
  1.40998E+04  1.85949E+03  1.38770E+04  1.48289E+04  8.27138E+03  2.65963E+04 -1.90759E+03  3.00804E+04
 -1.60714E+04  2.29304E+04 -2.78232E+04  1.24123E+04 -2.96164E+04 -1.08187E+03 -2.27716E+04 -1.75617E+04
 -1.48293E+04 -2.34767E+04  5.78888E+03 -2.35503E+04  2.00531E+04 -1.27124E+04  1.58798E+04  5.43983E+03
  6.28733E+03  1.08065E+04 -5.60043E+03  1.26635E+04 -1.09722E+04  5.16890E+03 -1.33220E+04 -1.06147E+04
  2.47740E+03 -1.55950E+04  4.26662E+03 -1.13084E+04  1.79308E+03  1.04094E+03 -2.40022E+02  5.57750E+02
 -1.41221E+03 -1.18674E+03 -5.43317E+03 -5.42975E+03 -3.73714E+02 -1.38279E+04  6.55338E+03 -1.66674E+04
  1.03775E+04 -3.26378E+03  9.94137E+03  8.75983E+03  1.31111E+04  1.01627E+04  7.56313E+03  1.52357E+04
 -6.27975E+03  2.32605E+04 -9.65142E+03  1.45561E+04 -8.26888E+03  4.93663E+03 -8.18956E+03 -3.68825E+03
 -6.68062E+03  1.04916E+03 -2.87385E+02  1.71066E+03 -2.91997E+02 -3.10364E+03 -4.35324E+03  7.14814E+03
 -8.67175E+03 -2.86305E+03 -9.44714E+03 -5.27127E+03 -1.69225E+03 -1.01288E+04  7.83183E+03 -6.78991E+03
  8.68002E+03 -5.67469E+03  3.85475E+03 -8.16655E+01  2.36045E+03  1.58001E+03  2.62996E+02  2.34739E+03
 -4.28730E+03 -5.33923E+03  2.85618E+03 -6.01106E+03  5.85130E+03 -1.02938E+04  1.01910E+04 -6.74469E+03
  1.15599E+04  2.00927E+03  1.05029E+04  9.09500E+03 -1.76431E+03  8.84113E+03 -5.29989E+03  1.36884E+04
 -6.79521E+03  6.35763E+03 -2.42731E+03 -2.10490E+03  1.82149E+03 -2.06606E+02  6.10093E+03 -6.19594E+03
  9.91506E+03  7.10644E+03 -1.84914E+03  8.34034E+03 -2.83071E+03  7.57517E+03 -8.32959E+03  1.77139E+03
 -5.75498E+03 -5.69012E+03  3.40013E+03 -6.52634E+03  4.04222E+03 -5.37115E+03  6.70230E+03  1.82397E+03
  1.58262E+03  7.41054E+03 -5.05102E+03  8.62788E+03 -7.17185E+03  3.74296E+03 -6.47284E+03  1.72917E+03
 -3.60115E+03 -5.23744E+03 -1.44716E+03 -8.15738E+03  2.88517E+03 -6.59441E+03  6.98900E+03  2.56912E+03
  1.07958E+04  7.97219E+03 -1.52618E+03  6.53027E+03 -5.80024E+03  1.11228E+03 -5.41726E+03 -5.09979E+02
 -8.29148E+03 -1.69516E+03 -7.30397E+03 -4.07868E+03 -2.07962E+03 -5.06299E+02  4.37721E+03 -6.98210E+03
  3.96101E+03  3.23668E+02 -2.92571E+03  4.31899E+03 -8.70374E+02 -4.27972E+02  6.79777E+01 -6.63899E+03
  1.17943E+03 -9.97777E+02  3.72015E+03  2.30029E+03  2.77530E+03  2.77308E+03  2.93430E+03  1.11115E+04
  6.59808E+02  1.01486E+04 -5.08516E+03  6.49054E+03 -1.21624E+04  4.33143E+03 -8.13940E+03 -7.44797E+03
 -2.87599E+03 -5.93896E+03  8.00753E+02 -1.02730E+04  3.67037E+03 -1.32846E+03 -1.48769E+03 -3.56836E+03
  1.51188E+03 -1.81305E+03 -1.06713E+03 -5.93671E+01  3.71365E+03 -3.25217E+03 -4.61092E+02  4.06654E+03
  4.34459E+03  5.96207E+03  5.82591E+03  3.87409E+03  9.45104E+02  3.25897E+03 -6.03114E+03  5.42651E+03
 -8.34988E+03 -5.26272E+03 -3.59410E+03 -3.94524E+03  5.96813E+00 -8.83581E+03  6.56540E+03 -7.68828E+03
  5.64035E+03 -2.64064E+03  7.98789E+03 -7.88525E+02  9.60240E+03  4.35373E+03 -2.61636E+03  3.23744E+03
 -5.20219E+03  7.52782E+03 -5.33373E+03 -8.27707E+02  3.08725E+03 -1.46706E+03  3.36230E+02 -1.42518E+03
 -1.77603E+03  4.24215E+03  2.89751E+03  1.18291E+03  1.21146E+03 -3.74310E+03 -5.71744E+03 -3.29616E+03
 -1.43095E+03  3.80456E+01 -3.10988E+03 -2.64457E+03  4.38987E+03 -4.05617E+03  4.19590E+03 -2.26980E+03
  6.51082E+03  1.34179E+03  3.34907E+03  1.09950E+01 -5.37580E+02  9.30286E+03 -7.06275E+02  2.53873E+03
 -2.21289E+03 -3.71326E+03 -1.33211E+03 -3.86598E+03  4.28351E+02 -3.51021E+03  3.52491E+03 -6.60207E+03
  3.20236E+03 -3.29601E+03  1.45877E+02 -8.53762E+02  3.73592E+03  2.87175E+03  2.21348E+03 -1.76639E+00
  1.48697E+03  3.06063E+03  2.86307E+03  3.81511E+02  5.00964E+02  2.45091E+03 -8.66396E+02  8.48489E+02
  1.42161E+03  3.66428E+03 -3.97283E+03  3.98223E+03 -1.84479E+03 -1.82617E+02 -3.54758E+03  2.41163E+02
  3.32486E+02 -1.73483E+03 -3.39856E+03 -8.58280E+03 -2.18221E+03 -2.32326E+03  5.23258E+03 -1.31720E+03
 -2.61894E+03  5.15533E+03  3.67491E+03  4.21727E+02  2.07660E+03  4.43548E+03  1.10264E+03  1.70253E+03
 -4.70027E+03  4.50426E+02  4.23834E+03 -3.58152E+03  1.47209E+03 -3.46868E+03  1.60125E+03  2.94620E+03
  2.01164E+03 -2.15358E+03  3.02137E+03 -2.36769E+03  2.77484E+02  2.13934E+03  6.86312E+02 -2.30907E+03
  4.12430E+03  2.25551E+03  1.97360E+03  1.40847E+03 -3.44196E+02  1.10607E+03  2.04509E+03  5.83833E+03
 -2.43604E+03  2.16337E+03 -2.81500E+03 -5.17978E+03 -1.57572E+03 -3.51567E+02 -1.93717E+03 -2.05289E+03
 -7.38621E+01  3.21845E+02 -1.34053E+03 -1.98339E+03  9.26211E+02  9.35318E+02 -1.27872E+03  4.15477E+03
 -4.14433E+03 -1.99367E+03  9.57409E+02 -1.21904E+03 -3.27210E+03 -2.65197E+03 -3.60053E+03  7.03537E+02
  2.55922E+03 -2.66688E+03  2.05629E+03 -4.71543E+02  8.83329E+02 -1.95374E+02 -6.98483E+02 -1.05342E+03
 -2.84424E+03 -6.63459E+02  1.75242E+03  2.32306E+03  1.34269E+03 -1.73791E+03  2.65106E+03  1.37639E+03
 -1.35869E+03  2.40285E+03  3.48770E+03  3.52820E+03  1.29449E+03  2.55441E+03 -7.38632E+02  2.47730E+03
  1.06528E+03 -2.18285E+03 -1.34018E+03 -3.94277E+03 -1.25550E+03 -2.51869E+03  4.75564E+03 -7.40488E+02
  2.31103E+03  8.59095E+01  1.25387E+03 -2.41202E+01  1.21662E+03 -8.53795E+02 -2.15084E+03  1.49239E+03
 -5.58964E+02  4.96320E+02 -1.47610E+03  4.27305E+03  1.91261E+03  2.63466E+03  8.68698E+02  1.81546E+02
  1.85125E+03  2.15575E+03 -4.37598E+03  3.32060E+03  2.90303E+02  2.08992E+02 -3.12615E+03 -1.89555E+03
 -5.66341E+02  7.88331E+02 -1.45521E+03 -5.39191E+03  2.56729E+03 -5.69866E+03  4.38801E+03 -9.85279E+02
  3.42848E+03 -2.86510E+03 -5.40545E+02  8.26517E+02 -1.04996E+03  3.10723E+02 -4.03757E+03  3.83194E+00
  1.18161E+02  1.20917E+03 -2.68658E+03 -1.12167E+03  6.11589E+02  2.17509E+03  3.77833E+03  2.99932E+03
  2.51113E+03  6.14819E+03  2.35782E+03  2.87100E+03 -2.95721E+03  1.45489E+03 -1.17206E+03 -4.24818E+03
 -1.29478E+03 -3.45319E+02  3.71826E+03  2.18019E+03 -2.75016E+02  1.29951E+03 -9.21727E+02  6.06427E+02
 -2.27280E+03 -6.98479E+02  1.65444E+03 -2.36541E+03 -4.52684E+03 -9.31608E+02 -3.09680E+03 -3.97799E+03
  9.36576E+02 -5.70148E+03  1.16565E+03 -5.55704E+03 -4.38962E+03  3.46728E+02  2.78749E+03  2.35425E+03
 -9.07797E+02  2.90607E+01  4.23331E+03 -4.45251E+03 -2.87978E+03  3.67588E+02 -5.14380E+03 -2.61682E+02
  3.30044E+03  1.28954E+02 -2.63177E+03  1.79677E+02 -2.57667E+03 -2.07925E+03  1.15870E+03  2.23366E+03
  2.61505E+03  3.45100E+02 -8.51308E+02  1.20001E+02 -1.10865E+03 -1.09947E+03 -3.07008E+03 -2.91058E+03
  2.01570E+03 -1.67647E+03 -1.29810E+03  1.11655E+03 -1.02864E+02  5.58015E+03 -2.28381E+03  5.90254E+02
  1.88637E+03  1.33887E+02 -1.65734E+03  2.21730E+03 -7.77834E+02  1.56510E+03 -7.53675E+02 -2.84885E+03
 -3.92620E+03 -2.38381E+02 -3.11128E+03  3.14746E+03 -2.41854E+03 -5.07738E+03 -3.98622E+02 -8.19578E+02
 -2.29275E+03  4.98065E+03 -1.46719E+03 -4.14616E+03 -1.28650E+03  7.60578E+02  9.10873E+02  3.40611E+03
 -4.87000E+02 -4.25318E+02  7.85924E+02  3.13798E+03  1.63312E+03 -1.31345E+03 -1.16079E+03 -3.03147E+03
