 $NMID ID='MM_0lb_SNR50_11hz_g45_42.RAW', FMTDAT='(8E13.5)'
 TRAMP=1., VOLUME=1. $END
  3.05134E+05 -1.62460E+02  3.36129E+05  2.48096E+05  8.26368E+04  3.35809E+05 -1.31240E+05  2.54578E+05
 -1.89848E+05  8.51971E+04 -1.12099E+05 -3.09002E+04  7.04420E+02 -4.76429E+04  5.29905E+04  7.12313E+03
  3.86904E+04  5.15652E+04 -1.45644E+04  6.89792E+04 -6.09537E+04  6.08034E+04 -7.81790E+04  3.42271E+04
 -8.43187E+04 -8.17860E+03 -5.54455E+04 -5.03879E+04 -7.86038E+03 -7.26974E+04  2.76039E+04 -5.02872E+04
  3.66003E+04  7.53740E+03  1.76055E+04  5.07455E+04 -2.52846E+04  4.93140E+04 -6.53168E+04  3.85306E+03
 -5.35282E+04 -5.64937E+04 -1.45210E+04 -7.59812E+04  3.49137E+04 -5.48710E+04  4.80354E+04 -2.06566E+04
  4.65821E+04  9.58357E+03  3.27626E+04  1.95979E+04  1.65718E+04  2.93854E+04 -5.84400E+03  2.48248E+04
 -1.99363E+04  1.35910E+04 -1.33421E+04 -1.07077E+04  6.47267E+03 -6.83494E+03  2.11779E+04  1.08470E+04
  1.00334E+04  4.04718E+04 -3.29051E+04  3.73682E+04 -6.47218E+04  1.67818E+03 -5.87674E+04 -4.20983E+04
 -1.33933E+04 -6.15124E+04  3.93265E+04 -4.81958E+04  6.06609E+04  3.16501E+03  3.51918E+04  3.34155E+04
 -2.76456E+03  3.91224E+04 -3.41154E+04  1.51307E+04 -2.55484E+04 -2.71879E+03 -2.11184E+04 -6.71984E+03
 -1.42047E+04 -1.43722E+04 -5.74579E+03 -1.77170E+04  5.41104E+03 -2.36363E+04  1.94003E+04 -1.52902E+04
  9.92143E+03  4.42043E+03 -7.37973E+03  1.50600E+04 -2.06473E+04 -5.98585E+03 -3.69071E+03 -3.36512E+04
  2.55885E+04 -3.83370E+04  4.65634E+04 -2.24579E+04  4.56612E+04  2.19853E+04  1.52939E+04  4.78173E+04
 -2.14768E+04  3.44690E+04 -2.70626E+04 -1.23186E+02 -9.20647E+03 -2.87248E+04  2.02899E+04 -3.23583E+04
  4.41012E+04 -1.12689E+04  3.74969E+04  2.96522E+04  2.09404E+04  4.92669E+04 -4.44977E+03  5.48463E+04
 -2.83003E+04  3.52938E+04 -4.54507E+04  1.03747E+04 -4.46482E+04 -1.99081E+04 -2.60660E+04 -3.97680E+04
  9.00021E+03 -3.82909E+04  2.99652E+04 -1.36306E+04  3.34851E+04  1.24248E+04  1.12245E+04  2.16644E+04
 -1.19824E+04  7.67206E+03 -9.10337E+03 -6.70533E+03  1.46264E+04 -9.32038E+03  1.90883E+04  2.19793E+03
  1.40371E+04  1.83872E+04 -1.21180E+04  2.52034E+04 -2.68792E+04  1.36418E+04 -3.11335E+04 -5.37462E+03
 -1.77158E+04 -1.82610E+04 -8.13075E+03 -2.10443E+04  3.91513E+03 -2.09324E+04  1.48909E+04 -1.81311E+04
  2.98589E+04 -1.17667E+04  3.86024E+04  2.02180E+03  2.63848E+04  1.77925E+04  3.57476E+03  3.69739E+04
 -1.79710E+04  3.51327E+04 -3.35201E+04  8.47140E+03 -2.32959E+04 -9.92174E+03 -9.34521E+03 -1.57812E+04
  5.50689E+03 -8.87631E+03 -7.41538E+03  8.74804E+03 -1.80150E+04  6.87951E+03 -1.77862E+04 -1.28200E+04
 -8.41259E+03 -2.30343E+04 -1.22595E+03 -2.44372E+04  1.64237E+04 -1.64564E+04  2.15081E+04 -6.55729E+03
  1.60761E+04  1.25510E+04 -1.99656E+03  2.05073E+04 -1.24593E+04  1.25100E+04 -2.04291E+04 -5.37950E+03
 -1.15397E+04 -1.62674E+04 -6.40545E+02 -2.61240E+04  1.38506E+04 -1.51602E+04  1.76085E+04 -1.41213E+04
  1.84269E+04 -3.03102E+03  1.09400E+04  6.26629E+03  1.35771E+04  1.83911E+02  1.96034E+04 -5.39822E+03
  1.41862E+04  2.02916E+02  1.65397E+04  1.84970E+04  1.46813E+04  3.40438E+04 -4.57557E+03  3.77231E+04
 -2.16875E+04  3.38071E+04 -3.76298E+04  1.75042E+04 -4.06398E+04  6.26989E+02 -3.45458E+04 -2.39483E+04
 -1.05535E+04 -3.14471E+04  9.44108E+03 -3.14050E+04  2.11534E+04 -1.67904E+04  2.12277E+04  4.35070E+03
  7.46189E+03  1.45275E+04 -9.63385E+03  1.35735E+04 -2.04509E+04  6.38053E+01 -1.18693E+04 -9.63994E+03
  3.50492E+02 -1.82137E+04  8.47734E+03 -7.90978E+03  1.07845E+04 -1.90643E+03  3.16699E+03  2.34699E+03
 -8.62896E+03  1.70253E+03 -7.43332E+03 -4.35032E+03  1.48636E+03 -2.04209E+04  9.22104E+03 -1.73077E+04
  1.78921E+04 -8.35075E+03  1.88430E+04  2.80003E+03  1.86852E+04  1.63882E+04  7.35989E+03  2.30387E+04
 -9.87029E+03  2.58032E+04 -1.91535E+04  1.97466E+04 -1.99761E+04 -2.72818E+03 -1.11799E+04 -3.26984E+03
 -4.12750E+03 -4.69718E+03  3.61285E+03  3.33430E+03 -1.94725E+03  3.43648E+03 -5.98233E+03 -2.70030E+01
 -1.08700E+04 -6.64009E+02 -1.23026E+04 -1.21300E+04 -1.16529E+04 -1.49765E+04  6.98590E+03 -1.19662E+04
  9.02785E+03 -4.35326E+03  6.95589E+03  5.93031E+03 -2.54669E+03  4.57861E+03 -8.44008E+03 -5.54644E+01
 -1.05118E+04 -6.92823E+03 -1.12547E+03 -9.29257E+03  6.97203E+03 -6.22558E+03  1.82365E+04 -4.74812E+03
  1.67935E+04  1.95195E+03  1.37867E+04  1.22713E+04  3.27785E+03  9.63256E+03 -8.63825E+03  1.02026E+04
 -1.11087E+04  6.48202E+03  1.02391E+03 -2.16649E+03 -1.96995E+03 -7.76279E+03  5.87106E+03 -2.43756E+03
  4.98835E+03  5.69205E+03  1.60278E+03  7.25117E+03 -1.01586E+04  1.02716E+04 -7.83478E+03  1.17021E+03
 -1.30199E+04 -5.40417E+03  4.05765E+03 -6.84672E+03  1.17701E+03 -3.83350E+03  6.62545E+03  2.89625E+03
  7.02532E+03  8.01427E+03 -6.57604E+03  8.52530E+03 -6.44869E+03  2.84630E+03 -5.83785E+03 -4.93159E+03
 -6.97900E+03 -7.71662E+03  1.86057E+03 -1.17455E+04  1.06680E+04 -1.36848E+04  1.04659E+04  2.00997E+03
  7.47551E+03  1.05802E+04 -1.83996E+03  1.55642E+04 -1.14355E+04  2.08859E+03 -1.32650E+04  9.97382E+02
 -1.23560E+04 -7.32673E+03 -8.31934E+03 -1.31996E+04 -6.62053E+02 -1.46007E+04  8.67355E+03 -5.41809E+03
 -9.95053E+02 -2.20672E+03 -2.25071E+03 -2.83580E+03 -5.52591E+03 -1.01129E+04  1.83499E+03 -8.96624E+03
  8.27830E+03  1.03267E+03  1.10841E+04  5.22047E+03  1.16223E+04  1.12392E+04  8.46560E+03  1.94214E+04
  3.04615E+03  2.28636E+04 -1.89191E+04  1.73565E+04 -1.75101E+04  1.31826E+03 -1.35983E+04 -6.69870E+03
 -1.27608E+04 -9.53809E+03 -5.26248E+03 -7.77032E+03  2.65635E+03 -9.33106E+03  6.83161E+03 -6.65227E+02
 -3.33847E+03 -3.19898E+03  5.92174E+03 -2.35103E+03  2.80925E+03  2.50564E+03  5.95343E+03 -2.99599E+03
  6.14755E+03  3.87702E+03  7.99597E+02  1.43183E+04 -3.06224E+03  8.22986E+03 -8.70205E+03  1.88025E+03
 -9.69802E+03 -6.34449E+02 -5.48511E+03 -9.51396E+03 -6.55456E+03 -1.24272E+04  6.78372E+03 -1.34666E+04
  1.20087E+04 -7.74646E+03  1.54337E+04  9.44315E+03  1.07335E+04  1.55357E+04  3.67903E+03  7.69158E+03
 -2.25825E+02  8.57951E+03 -5.56429E+03  5.82072E+03 -5.80044E+03  6.69809E+03 -5.97823E+02 -1.02737E+04
 -1.45175E+03  6.77865E+03 -1.00131E+03 -5.26465E+02 -5.01885E+03  3.10306E+03 -1.43432E+04  4.59172E+02
 -9.80674E+03 -7.77841E+03 -5.61888E+03 -1.81135E+04  9.61050E+03 -7.90616E+03  1.16533E+04 -7.39714E+02
  6.82861E+03  5.65055E+03  7.11110E+03  1.06423E+04  1.49003E+03  1.06676E+04 -1.22596E+04  6.78704E+03
 -1.23574E+04  7.63420E+02 -7.73811E+03 -6.70727E+03  6.12075E+02 -8.77777E+03  5.63713E+03 -7.08592E+03
  6.24601E+03  8.68690E+02  4.19116E+03  6.01481E+03  3.11594E+03  3.57258E+03  5.59189E+03  7.79358E+02
  8.95241E+03 -3.66780E+03 -3.85221E+02  3.58152E+03  1.21840E+03  1.36058E+03  2.25379E+03  1.23478E+04
 -4.46283E+03  6.57257E+03 -7.92882E+03  6.83959E+03 -1.44326E+04  4.79745E+03 -1.28239E+04 -8.49225E+03
 -3.87858E+03 -1.19192E+04  4.52467E+03 -1.19262E+04  8.04100E+03 -4.02535E+03  9.45952E+03 -1.14834E+03
  5.13931E+03  4.02156E+03  1.84644E+03  1.00210E+04 -4.11038E+03  5.20606E+03 -1.26045E+03 -8.66575E+02
 -5.41295E+03 -5.37496E+03  7.05139E+03 -6.32539E+03  4.65080E+03 -8.27971E+02  5.09938E+03  3.78856E+03
  4.08539E+03  9.52968E+03 -8.81998E+02 -1.14516E+03 -4.44134E+03 -1.83247E+03  3.03602E+03 -3.76521E+02
  2.28663E+03  2.07294E+03 -2.64240E+03  5.61993E+03  4.03682E+03  6.28025E+03  6.09537E+02  5.81424E+03
 -9.63693E+03  6.58487E+03 -9.44918E+03  4.07383E+03 -6.86127E+03  2.05121E+03  2.63960E+03 -4.02175E+03
 -1.21405E+03 -4.31825E+03  9.76842E+02 -4.92314E+03  3.92738E+03  5.46890E+02 -4.14125E+03  7.17262E+03
 -6.29872E+03 -1.06715E+03  1.97898E+02 -3.62170E+03 -7.36624E+03 -2.89113E+03 -1.04645E+02 -5.61679E+03
  2.66350E+03 -3.52214E+03  4.85189E+03 -1.62862E+03  1.58270E+03  3.18421E+03 -3.38975E+03  3.47116E+03
 -9.85002E+02 -2.45534E+03 -4.80246E+03 -1.48841E+02 -3.74124E+03 -3.49184E+03  1.86580E+03 -8.25031E+03
  7.94387E+03  1.94589E+03  4.40073E+03  1.30221E+03  2.64867E+03  7.25300E+03  1.70798E+03  4.29481E+03
 -4.01486E+03  3.45230E+03 -2.68495E+03 -1.48872E+03  1.51584E+02 -5.53081E+03 -2.97838E+03 -5.19491E+02
  7.46268E+03  9.27913E+02  8.06097E+03 -1.33834E+03  2.11077E+03  3.36913E+03 -3.62650E+01  2.18923E+03
 -3.94332E+03  3.51357E+03 -1.31737E+03 -2.16209E+03  3.63762E+03  2.72101E+02 -8.20061E+02  2.51583E+03
  1.18594E+02  5.20258E+03 -6.43699E+03  2.22564E+03 -9.30937E+03  3.46110E+03 -5.88160E+03 -7.35167E+03
 -5.01001E+03 -1.00237E+04  1.60865E+03 -1.17604E+04  7.41497E+03 -8.48778E+03  8.83208E+03 -5.16039E+03
  1.23764E+04  4.25312E+03  4.61492E+03  8.86787E+03  1.77554E+03  2.62619E+03  2.01829E+03  1.07251E+04
  1.68042E+02 -4.20818E+02 -5.02755E+03 -5.95099E+02 -2.52577E+03 -2.48790E+03 -3.61107E+03  6.77956E+03
  1.22923E+03  2.54274E+03 -4.62690E+03 -3.59783E+03  1.07792E+03 -6.86313E+02  6.09360E+03 -3.39931E+03
  6.13024E+03 -2.12930E+03  3.29377E+03  1.63429E+03  3.47160E+03  1.68478E+02 -1.37551E+03  1.57428E+04
 -3.96330E+03  5.80433E+03 -7.14318E+03  7.64224E+03 -1.27748E+04 -5.15392E+02 -1.60872E+04 -6.46867E+03
 -1.00207E+04 -9.88347E+03  3.34685E+03 -2.19261E+03  5.79054E+03 -4.18470E+03 -5.54918E+01 -1.16562E+03
  3.98915E+03  3.80647E+03  3.13164E+03  5.52978E+03 -5.94311E+03 -3.53408E+02  5.38460E+02  2.73700E+03
 -1.42929E+03  3.50220E+03 -2.74750E+02  4.59345E+03  1.22550E+03  3.70664E+03 -3.68386E+03  6.47139E+03
 -1.42980E+03  2.01060E+03 -5.06291E+03  1.41143E+02 -5.64169E+03 -5.71780E+03 -3.47818E+03 -9.41880E+03
  3.89140E+03 -4.63256E+03  6.07286E+03 -2.18274E+03  6.00604E+03  2.85711E+03  3.23744E+02  4.12520E+03
 -3.01590E+03  7.17129E+03  1.16954E+03  6.77781E+03  3.56350E+02 -3.88427E+03 -1.75410E+03 -3.21953E+03
  1.95609E+03  2.72675E+03  3.29953E+02  4.12551E+03 -1.77564E+03  1.97891E+03  2.21771E+02  3.42452E+03
 -8.58897E+02  2.39698E+03 -4.60176E+03 -3.94448E+02  6.17181E+02 -7.03213E+03  4.14064E+03 -6.33633E+03
  5.60797E+03 -4.75970E+03  6.19186E+02  1.61440E+03 -8.18054E+03  2.97814E+03 -2.12683E+03 -2.08023E+03
