 $NMID ID='MM_0lb_SNR50_15hz_g50_24.RAW', FMTDAT='(8E13.5)'
 TRAMP=1., VOLUME=1. $END
  3.12623E+05 -4.47756E+03  3.36378E+05  2.49591E+05  8.41637E+04  3.40234E+05 -1.34334E+05  2.47570E+05
 -1.92336E+05  8.20367E+04 -1.10211E+05 -3.34195E+04 -2.70579E+03 -5.26029E+04  5.78685E+04 -1.00161E+03
  3.59904E+04  5.00551E+04 -1.21740E+04  7.44446E+04 -6.03317E+04  6.18256E+04 -9.03998E+04  3.33035E+04
 -8.23095E+04 -1.15984E+04 -5.46195E+04 -5.09942E+04 -1.10991E+04 -6.93907E+04  3.21082E+04 -4.54563E+04
  4.12390E+04  6.89740E+03  1.55720E+04  4.54367E+04 -3.58292E+04  4.59006E+04 -6.70382E+04 -4.92490E+03
 -5.35876E+04 -5.75568E+04 -7.64372E+03 -8.11987E+04  3.48673E+04 -5.69247E+04  5.15859E+04 -1.96113E+04
  4.57566E+04  1.06722E+04  3.21138E+04  2.45789E+04  1.67808E+04  2.89177E+04 -5.43452E+03  2.43871E+04
 -1.98704E+04  9.58993E+03 -1.76370E+04 -5.38774E+03  5.31781E+03 -4.87258E+03  1.38698E+04  1.06455E+04
  9.63195E+03  3.82809E+04 -3.37491E+04  3.10195E+04 -6.06520E+04 -1.19937E+03 -5.38962E+04 -3.90597E+04
 -1.59293E+04 -5.79830E+04  4.06556E+04 -4.33001E+04  5.65410E+04 -2.78566E+03  3.57133E+04  3.22034E+04
 -9.84686E+02  3.65908E+04 -3.16377E+04  1.13151E+04 -3.25500E+04 -1.00367E+04 -1.50711E+04 -9.67186E+03
 -1.10380E+04 -1.06573E+04 -6.16184E+02 -2.03260E+04  1.06193E+04 -2.11646E+04  1.42784E+04 -1.17356E+04
  1.60509E+04  3.98215E+03 -7.13418E+03  1.47244E+04 -2.62390E+04  1.05155E+02 -9.26680E+03 -2.90617E+04
  2.37208E+04 -4.04315E+04  4.68057E+04 -2.02393E+04  4.30587E+04  2.50500E+04  2.06659E+04  4.30761E+04
 -1.56517E+04  3.29776E+04 -2.11450E+04 -2.80497E+03 -6.44649E+03 -2.03422E+04  2.30497E+04 -3.34365E+04
  3.80553E+04 -9.52119E+03  3.55708E+04  2.11976E+04  1.87113E+04  4.76349E+04 -8.75729E+03  4.77894E+04
 -3.39679E+04  3.32542E+04 -4.25824E+04  1.50579E+04 -3.78478E+04 -1.72501E+04 -1.92571E+04 -3.53086E+04
  4.70616E+03 -3.68839E+04  2.93386E+04 -1.50211E+04  2.96086E+04  8.72343E+03  2.19056E+03  2.06149E+04
 -1.33893E+04  5.27627E+03 -1.40151E+04 -7.67680E+03  3.16396E+03 -1.29485E+04  1.67784E+04  3.92006E+03
  1.18379E+04  1.75878E+04 -4.51084E+03  2.64577E+04 -2.38079E+04  1.49444E+04 -2.68926E+04 -1.93286E+03
 -1.60901E+04 -2.02695E+04 -1.15739E+04 -1.99090E+04  4.45678E+03 -1.98309E+04  1.50901E+04 -1.62064E+04
  3.07404E+04 -1.00380E+04  2.84975E+04  6.90948E+02  2.12004E+04  2.51964E+04  1.85309E+03  3.61867E+04
 -1.47726E+04  2.94348E+04 -3.09605E+04  1.02349E+04 -2.07310E+04 -9.97149E+03 -1.52825E+03 -1.60622E+04
  2.56573E+03 -4.37377E+03 -1.84274E+03  6.85393E+03 -1.94894E+04  4.25558E+03 -1.79946E+04 -5.20322E+03
 -9.81431E+03 -2.26211E+04  5.01444E+03 -1.84890E+04  2.05352E+04 -1.68335E+04  1.52869E+04  1.80272E+03
  1.08815E+04  1.04276E+04 -1.41105E+03  1.53182E+04 -9.20980E+03  1.01014E+04 -1.12014E+04 -1.31535E+03
 -1.44577E+04 -1.57431E+04 -7.02247E+03 -2.02623E+04  8.76971E+03 -1.86979E+04  1.87255E+04 -8.83049E+03
  1.78956E+04 -1.49137E+03  1.22578E+04  3.91086E+03  6.90394E+03  7.31792E+02  8.68411E+03 -3.87804E+03
  1.79120E+04 -4.14181E+03  1.54242E+04  1.26635E+04  1.06025E+04  2.35768E+04 -5.61552E+03  3.39445E+04
 -2.52347E+04  2.28976E+04 -2.82149E+04  1.21953E+04 -2.89078E+04 -3.46708E+03 -2.83589E+04 -1.63084E+04
 -8.05666E+03 -2.68394E+04  9.05907E+03 -2.12366E+04  2.39145E+04 -1.31115E+04  1.70252E+04  4.37298E+03
  1.02952E+04  6.53695E+03 -8.54416E+03  9.67174E+03 -1.25479E+04  6.30090E+02 -1.23982E+04 -1.05042E+04
  3.21265E+03 -1.12513E+04  5.13078E+03 -1.21816E+04  1.21885E+04  3.33568E+03 -4.47959E+02  2.82305E+03
 -7.60303E+03  4.28017E+03 -7.67281E+03 -1.45835E+03  1.88565E+03 -1.01735E+04  1.44832E+04 -9.41995E+03
  1.36842E+04 -1.05043E+04  1.95018E+04  2.55294E+03  1.59600E+04  9.65406E+03  1.73220E+03  1.84714E+04
 -8.47631E+02  2.11295E+04 -1.28706E+04  1.89851E+04 -1.98017E+04  4.91269E+03 -1.22338E+04 -4.17585E+03
 -3.21200E+03 -6.47142E+03 -4.34240E+02  2.78147E+03 -7.19195E+02  2.61618E+03 -9.51325E+03  7.94825E+03
 -1.04978E+04 -2.35924E+03 -1.37439E+04 -7.54677E+03 -3.91324E+03 -1.46035E+04  2.94309E+03 -1.22181E+04
  1.39529E+04 -3.11524E+03  5.93687E+03  8.43209E+02 -1.17239E+03  7.85076E+03 -8.09737E+03  9.46702E+02
 -8.08177E+03 -1.08268E+04 -1.48002E+03 -6.56933E+03  1.63619E+03 -7.55479E+03  1.53550E+04 -6.18258E+03
  1.59205E+04  5.02687E+03  1.27437E+04  1.06125E+04 -2.56026E+03  1.53302E+04 -4.25704E+03  9.31442E+03
 -1.18561E+04  5.25757E+03 -6.83213E+03 -4.53091E+03  1.63966E+03  7.05692E+02  5.64160E+03  1.82874E+03
  8.49377E+03  6.79283E+03  3.86560E+03  1.19639E+04 -7.85344E+03  7.13793E+03 -6.61861E+03  4.73278E+03
 -5.59005E+03 -7.74537E+03  1.42680E+03 -8.37476E+03  4.34392E+03 -3.57088E+03  7.69142E+03 -7.88409E+02
 -1.28123E+03  4.50167E+03 -6.36655E+03  1.02223E+04 -9.64415E+03  3.77536E+03 -8.43676E+03 -1.01920E+03
 -6.09299E+03 -3.75849E+03 -1.34446E+03 -9.38387E+03  1.19075E+04 -1.40505E+04  9.83890E+03  2.53318E+03
  7.30160E+03  1.26817E+04 -2.06548E+03  1.23990E+04 -7.35487E+03  5.13356E+03 -4.28321E+03 -1.20131E+03
 -4.65375E+03 -7.90549E+03 -1.04788E+03 -1.13043E+04  6.42532E+03 -5.04168E+03  8.92372E+03 -1.76066E+03
  1.32053E+03 -3.35776E+03 -1.96786E+03 -1.88781E+03 -4.55193E+03  7.01024E+02  1.85048E+02 -1.03213E+03
  7.13653E+03 -3.49048E+03  5.30819E+03  1.58871E+03  1.30417E+04  5.76682E+03  9.32548E+03  1.04099E+04
  2.27030E+03  1.40090E+04 -1.00881E+04  1.15005E+04 -1.53451E+04  1.58714E+03 -1.07951E+04 -5.16417E+03
 -6.15585E+03 -8.19000E+03  1.41000E+03 -9.50168E+03  2.05815E+03 -5.00617E+03  3.58816E+03  1.81306E+03
  6.22782E+02 -3.99928E+03  1.31350E+03 -1.97485E+03  5.22638E+03 -8.22335E+02  8.29865E+03  2.22917E+03
  2.11041E+03  3.82362E+03 -1.49764E+03  4.09433E+03 -3.18159E+03  2.01325E+03 -8.31419E+03  2.53584E+03
 -5.63563E+03 -3.09002E+03 -3.87343E+03 -1.23245E+04  5.63118E+02 -1.12571E+04 -1.00894E+03 -8.52880E+03
  9.98135E+03 -8.26487E+03  1.27822E+04  1.69406E+03  2.73554E+03  6.99509E+03 -4.96702E+02  2.42684E+03
 -2.44463E+03  8.00055E+03 -4.61184E+03  1.77237E+03 -2.48281E+03 -5.87363E+02  2.80929E+02 -1.79536E+03
 -4.05162E+03 -3.91398E+02 -1.57717E+03  8.34669E+02 -7.59286E+03 -1.57485E+03 -4.85379E+03 -4.70818E+03
 -3.50260E+03 -3.39631E+03  1.01247E+04 -4.97649E+03  1.34407E+03 -5.40421E+03  1.16764E+04 -1.50621E+03
  1.05766E+04  5.21678E+03  4.42997E+03  8.05425E+03 -5.42338E+01  9.56685E+03 -3.19499E+03  3.39305E+03
 -5.62787E+03  1.88981E+03 -6.14733E+03 -3.52940E+03 -2.75847E+03 -6.36973E+03  2.77226E+03 -5.22950E+03
  3.99790E+03 -5.94824E+03  6.31965E+03 -1.15368E+03 -4.11550E+03  1.30730E+03 -1.62310E+03 -1.18818E+03
  2.36869E+03  4.38998E+03  9.16312E+02 -1.07334E+03  4.61661E+03  3.03712E+03 -9.30537E+02  7.84676E+02
 -1.00892E+03  7.59588E+03 -5.95796E+03  5.06603E+03 -1.01586E+04  4.67220E+02 -8.48754E+03 -8.07776E+03
 -1.68996E+03 -8.62284E+03 -8.97702E+02 -4.58591E+03  6.41734E+03 -5.39534E+03  9.36113E+03 -3.11683E+03
  4.88005E+03  4.27783E+03  2.26953E+02  1.08099E+04 -2.72584E+03  4.34589E+03  1.20902E+03  1.90631E+03
  6.06144E+02  5.53473E+02 -7.86846E+02 -3.92168E+03  7.24712E+03  5.26033E+02  2.86122E+03  3.74361E+03
 -2.18486E+03  4.63575E+02 -1.03885E+03  3.12833E+02 -1.88577E+03  2.93957E+03 -3.22979E+02  6.02664E+02
  1.06421E+03 -7.74015E+02  4.33634E+03  3.24407E+03  7.91604E+03  7.66452E+03 -2.06448E+03  8.74461E+02
 -4.12273E+03  1.74073E+03 -3.51039E+03  1.70672E+03 -5.70323E+03 -2.58040E+03  2.66031E+03  2.55993E+03
  3.82363E+03 -6.18011E+03  7.64996E+03 -5.95106E+03 -8.25015E+02 -1.80567E+03  5.04419E+02  3.73480E+03
 -1.49858E+03  3.04790E+03 -6.12160E+03  1.46619E+03  6.64209E+02 -4.32388E+02  3.58136E+03  1.74778E+03
  1.51689E+03 -5.09204E+02 -2.07431E+03  8.40506E+02 -9.99217E+02  2.18784E+03 -2.29531E+02  2.13157E+03
  1.10116E+03 -6.18313E+03 -4.18752E+03 -3.29362E+02 -8.10277E+02 -2.79835E+03  5.08305E+03 -2.69282E+03
 -2.45817E+03 -3.01148E+03  1.19086E+03  2.65907E+02  4.66193E+03  3.98001E+03  3.27949E+03  2.41405E+03
 -3.25283E+03  4.65013E+03 -5.02729E+03 -4.29678E+02 -6.43001E+02 -4.52260E+03  2.84953E+02  2.89921E+03
  3.16289E+03 -1.27675E+03  1.64784E+03  3.23642E+03 -7.45325E+03 -2.06030E+02 -1.10412E+03  9.21320E+03
 -6.31990E+02  2.76580E+03  3.38744E+02  2.85093E+03 -3.91716E+03  5.11744E+03  1.77113E+03  2.41480E+02
 -1.48756E+03  2.81055E+03  4.67624E+03 -1.02070E+03  3.08185E+03  6.97219E+02 -7.96926E+03 -3.43420E+02
  2.89591E+03 -8.87020E+03 -5.44847E+03 -5.90840E+03 -3.55379E+03 -7.25551E+03  1.11840E+04 -5.64211E+03
  4.28754E+03  1.30143E+03  2.06804E+03  5.89142E+03  1.91643E+03  4.06704E+02 -1.43980E+03  1.23610E+03
 -2.09911E+02  3.22577E+03 -3.44367E+02  4.48284E+03 -5.83473E+03  3.50071E+03  1.19529E+03 -2.89929E+02
 -5.39460E+02  6.27377E+03 -4.01373E+03 -1.55805E+03 -1.52080E+02 -1.15849E+03  2.51300E+03  6.09878E+03
  4.16442E+02 -1.34585E+03  2.85032E+03 -8.93377E+02  2.43615E+03  1.06211E+03 -2.94414E+02  2.54112E+03
  1.16620E+03  5.14084E+03 -5.78876E+03  3.45129E+03 -8.12025E+03  3.50761E+03 -4.32562E+03 -8.15784E+03
 -2.28112E+03 -7.41226E+03  2.74007E+03 -2.94835E+03  2.95470E+03 -5.58283E+03 -8.13380E+02  5.88093E+03
  4.60368E+03  2.01463E+03  4.73290E+03 -2.43646E+03 -3.53514E+03 -4.83822E+02  2.49759E+03  3.46932E+03
  3.09082E+03  2.10176E+03  1.22040E+03  9.92529E+01  5.37730E+02 -2.72176E+03 -2.18639E+03 -3.26224E+03
 -4.76232E+02 -4.84267E+03 -3.09065E+03 -4.23206E+03  8.33262E+02 -5.97451E+03 -2.97877E+03 -2.24191E+03
  2.29965E+03 -2.76934E+03  1.91934E+03  8.13115E+02  3.50428E+03 -4.50976E+02  2.01947E+03  6.51547E+02
 -3.69980E+02  7.10485E+03 -3.70645E+03 -1.61045E+03 -5.39921E+03  1.32457E+03  5.21487E+03 -3.58008E+03
 -2.64763E+03 -2.16471E+03 -2.09084E+03  3.57902E+03 -9.52913E+02 -5.32149E+02 -3.06936E+03 -2.27948E+02
  3.81867E+02  4.40558E+03  2.31828E+03 -1.13008E+03  8.59910E+02 -3.26400E+03 -4.63118E+02  3.31031E+03
  3.97935E+03 -4.45225E+02 -3.94523E+02  2.69189E+02  9.19426E+02  1.05613E+03 -3.67614E+03  9.10861E+02
