 $NMID ID='MM_0lb_SNR50_9hz_g55_43.RAW', FMTDAT='(8E13.5)'
 TRAMP=1., VOLUME=1. $END
  3.06429E+05  2.38118E+03  3.32397E+05  2.55949E+05  8.24118E+04  3.42530E+05 -1.33738E+05  2.53899E+05
 -2.00776E+05  8.74009E+04 -1.14873E+05 -3.03024E+04  3.92874E+03 -5.40702E+04  4.97343E+04 -2.43224E+03
  3.63740E+04  5.02095E+04 -1.06854E+04  7.34794E+04 -6.40487E+04  6.25019E+04 -8.43182E+04  3.41902E+04
 -8.29000E+04 -1.54222E+04 -6.00097E+04 -5.08926E+04 -1.38148E+04 -7.43249E+04  2.71896E+04 -4.81193E+04
  4.35344E+04  1.03939E+04  1.20619E+04  4.72339E+04 -4.05669E+04  4.45977E+04 -6.50751E+04 -1.09015E+02
 -5.55595E+04 -5.20918E+04 -7.57886E+03 -7.62301E+04  3.26535E+04 -5.27956E+04  4.61369E+04 -3.00925E+04
  4.96672E+04  1.55352E+04  3.94118E+04  3.89054E+04  1.70445E+04  3.51765E+04 -1.82462E+03  3.07427E+04
 -2.03091E+04  8.25973E+03 -1.91898E+04 -3.36232E+02  8.07647E+03 -3.83360E+03  2.42680E+04  1.31073E+04
  9.23568E+03  3.91619E+04 -3.61744E+04  4.48867E+04 -6.51927E+04  6.39748E+03 -5.83422E+04 -4.74197E+04
 -5.45062E+03 -6.69859E+04  4.40437E+04 -5.03490E+04  6.16134E+04 -6.08787E+03  3.57136E+04  3.21375E+04
 -1.50475E+03  4.36034E+04 -3.31414E+04  1.92422E+04 -3.82016E+04 -1.57546E+03 -2.02033E+04 -1.06921E+04
 -1.59855E+04 -1.94856E+04 -1.92868E+03 -1.63173E+04  1.08056E+04 -2.28391E+04  1.53298E+04 -1.53628E+04
  1.58234E+04 -1.08545E+02 -1.18465E+04  1.56125E+04 -2.11945E+04  2.74276E+03 -1.24725E+04 -3.51048E+04
  2.60550E+04 -4.60383E+04  5.61111E+04 -2.18817E+04  4.50931E+04  3.03917E+04  1.94795E+04  4.68145E+04
 -1.63219E+04  3.23963E+04 -2.75664E+04  4.78305E+03 -1.53758E+04 -3.24183E+04  2.58422E+04 -3.17390E+04
  4.19420E+04 -5.73544E+03  4.01410E+04  1.91023E+04  1.63874E+04  4.89779E+04 -1.25090E+04  6.03292E+04
 -3.57707E+04  3.78740E+04 -4.72922E+04  1.64079E+04 -4.88602E+04 -2.27679E+04 -2.60402E+04 -4.29161E+04
  1.07733E+04 -4.60539E+04  3.58201E+04 -1.68542E+04  3.28938E+04  9.84325E+03  8.32601E+03  2.14557E+04
 -1.32828E+04  1.11212E+04 -8.30185E+03 -9.47487E+03  5.22306E+03 -1.45640E+04  2.88043E+04  1.54913E+04
  1.55158E+04  1.92863E+04 -1.15596E+03  2.98892E+04 -2.79004E+04  2.43550E+04 -3.29231E+04 -9.69949E+03
 -3.25389E+04 -1.62329E+04 -1.00671E+04 -2.46685E+04  7.25237E+03 -2.62846E+04  1.75440E+04 -2.28677E+04
  3.17434E+04 -1.80712E+04  3.57793E+04  6.35154E+02  2.90676E+04  1.63789E+04  3.96005E+03  3.97843E+04
 -1.55441E+04  3.49746E+04 -3.00600E+04  1.36008E+04 -1.65734E+04 -7.13770E+03 -4.26467E+03 -1.60190E+04
  6.21095E+03 -3.52351E+03 -7.15371E+03  5.41851E+03 -2.07806E+04  4.73472E+03 -1.87680E+04 -8.15769E+03
 -1.71205E+04 -2.27512E+04  6.89176E+03 -2.76814E+04  1.67502E+04 -2.10257E+04  2.46653E+04 -6.60987E+03
  1.20245E+04  2.19829E+04 -1.57060E+03  3.08287E+04 -1.95782E+04  1.30326E+04 -2.59339E+04 -8.62434E+03
 -1.94373E+04 -1.98254E+04  3.56694E+02 -2.92105E+04  1.43028E+04 -1.66720E+04  2.39235E+04 -1.34988E+04
  1.84971E+04  1.67135E+03  1.13231E+04  1.55866E+04  4.78631E+03 -1.25973E+03  1.21095E+04 -5.42280E+03
  3.02203E+04  3.49094E+03  2.83068E+04  1.83414E+04  1.82742E+04  4.07289E+04 -6.89985E+03  4.55111E+04
 -2.26624E+04  3.30413E+04 -4.56214E+04  2.01377E+04 -4.78481E+04 -3.07889E+02 -3.95315E+04 -2.72501E+04
 -1.86977E+04 -3.36718E+04  1.76672E+04 -2.76575E+04  2.53981E+04 -1.71695E+04  2.30020E+04  5.48966E+03
  5.26519E+03  1.78190E+04 -1.29287E+04  1.42492E+04 -2.01888E+04  2.88780E+03 -1.64528E+04 -1.24476E+04
 -2.50573E+03 -1.86180E+04  7.52006E+03 -1.99598E+04  1.67961E+04 -8.45411E+03  5.67321E+02  8.29717E+03
 -1.17167E+04  1.01346E+04 -6.45516E+03 -6.99493E+03 -2.11908E+03 -2.13285E+04  1.38998E+04 -1.74193E+04
  2.18276E+04 -1.39240E+04  2.74473E+04 -5.93196E+02  2.52512E+04  1.77601E+04  9.88068E+03  2.98125E+04
 -4.03659E+03  3.59962E+04 -2.07805E+04  2.18964E+04 -2.36375E+04  5.33824E+02 -2.18902E+04 -5.56331E+03
 -1.33302E+04 -1.00121E+04 -7.08745E+03  5.29625E+03 -6.84898E+03  1.21429E+04 -6.90754E+03 -2.61176E+03
 -1.82815E+04  3.05746E+03 -1.23069E+04 -1.43937E+04  3.76416E+03 -1.60882E+04  1.15332E+04 -1.64783E+04
  7.35189E+03 -7.78099E+03  1.46378E+04  5.62718E+03 -5.74461E+03  5.58123E+03 -5.65744E+03 -5.80731E+03
 -1.40961E+04 -1.24889E+04  3.08715E+03 -1.27825E+04  1.36766E+04 -1.81046E+04  1.59299E+04 -1.34090E+04
  3.06588E+04  5.93219E+03  1.84397E+04  1.19375E+04  1.23069E+03  2.03927E+04 -1.15972E+04  1.39866E+04
 -1.63004E+04 -6.20980E+03 -2.74314E+03 -5.72457E+03 -1.44743E+02 -6.07748E+03  7.22904E+03 -4.18764E+03
  1.14837E+04  8.96212E+03  4.36985E+02  1.28526E+04 -8.36432E+03  1.22270E+04 -1.33625E+04  1.03020E+03
 -1.06787E+04 -8.50435E+03  2.15258E+03 -1.90970E+04  7.12583E+03 -6.40577E+03  1.34034E+04  5.60029E+03
  2.90417E+03  8.52763E+03 -1.10798E+04  1.72281E+04 -1.42661E+04  5.71470E+03 -1.75541E+04 -7.63225E+03
 -1.22150E+04 -1.56750E+04  4.23882E+02 -1.34870E+04  1.75885E+04 -9.94417E+03  1.60716E+04  4.30237E+03
  9.13111E+03  1.90137E+04 -5.28042E+03  2.04730E+04 -7.03705E+03  1.00799E+04 -1.55162E+04 -1.82420E+03
 -8.08546E+03 -9.70526E+03 -1.69545E+03 -1.59986E+04  1.01426E+03 -1.37114E+04  8.59011E+03 -3.98368E+03
  6.42350E+03  5.38094E+03 -2.81580E+03  4.37549E+03 -2.31252E+03 -5.72565E+03  3.83451E+03 -1.54606E+04
  1.50170E+04 -7.78444E+02  9.84526E+03  1.50244E+03  2.09479E+04  1.69653E+04  8.36761E+03  2.44796E+04
 -4.07080E+03  2.34959E+04 -2.13392E+04  1.44462E+04 -2.63515E+04 -3.17934E+03 -2.86610E+04 -1.03486E+04
 -1.72861E+04 -1.46224E+04 -4.36952E+03 -9.92895E+03  5.85493E+03 -1.46053E+04  1.29735E+04 -5.19873E+03
  2.13812E+03 -9.89264E+03  6.01596E+03 -6.20446E+03  8.53535E+03 -4.28960E+03  9.86491E+03  4.59026E+03
  1.43940E+04  4.95672E+03  1.53329E+04  8.82370E+03 -2.26937E+03  1.60682E+04 -1.39209E+04  9.43792E+03
 -1.49908E+04 -2.88791E+03 -1.20325E+04 -5.39758E+03 -4.29002E+03 -2.34157E+04  1.30687E+04 -1.16700E+04
  1.62231E+04 -1.20934E+04  2.21441E+04 -2.34297E+03  1.03378E+04  9.48787E+03  6.17245E+03  1.70578E+04
 -1.93388E+03  1.19060E+04 -1.21756E+04  5.08682E+03 -8.04221E+03 -3.32202E+03 -5.26934E+03 -3.64920E+03
  3.23828E+03  2.40720E+03 -8.92859E+03  3.07524E+03 -1.88635E+03  6.13754E+03 -1.08384E+04 -1.87319E+03
 -2.52078E+03 -1.00610E+04 -3.40194E+03 -2.03157E+04  1.16318E+04 -1.08542E+04  1.89996E+04 -2.49924E+03
  1.38563E+04  1.27349E+04  3.89427E+03  1.59657E+04  3.10955E+02  1.72079E+04 -8.78978E+03  1.45471E+04
 -1.51776E+04  2.78937E+03 -1.14037E+04 -8.96725E+03 -7.00815E+02 -6.68394E+03  3.83532E+03 -1.16664E+04
  1.19175E+04  2.57648E+03  5.59088E+03  2.13985E+02  1.14563E+03 -3.00387E+03  1.29377E+03  5.05627E+03
  3.93962E+03 -5.71649E+03  3.74739E+03  1.00816E+04  3.42432E+03  9.30402E+03  5.39578E+03  1.21095E+04
 -2.86289E+03  1.12022E+04 -5.17346E+03  1.94446E+04 -1.52918E+04  1.78300E+03 -1.71198E+04 -7.02779E+03
  1.23971E+03 -1.77317E+04 -2.17454E+03 -1.21048E+04  1.05229E+04 -1.49048E+04  1.78533E+04 -1.49973E+03
  1.39851E+04  7.66892E+03 -1.37463E+03  9.28205E+03 -6.29903E+03  7.42849E+03 -4.04968E+03 -6.40606E+02
 -3.93701E+03 -2.49296E+03 -4.57978E+03 -7.56298E+03  2.52364E+03 -9.76916E+02  1.67598E+03 -9.23246E+02
  9.66328E+03  9.64856E+03  5.06286E+03 -8.39433E+02  2.61890E+02  3.00466E+03  4.95513E+03  2.71909E+02
  6.04471E+03 -4.05786E+02  7.20315E+03  3.30585E+02 -1.42921E+01  8.68667E+03 -2.47349E+02  1.30894E+04
 -4.52765E+03  5.85848E+03 -9.68107E+03 -1.93742E+03 -8.92847E+03 -3.93808E+03 -3.03923E+03 -1.34740E+04
  2.35543E+03 -1.42688E+03 -6.96767E+02 -1.18724E+04  7.36306E+03  3.49176E+03 -1.24598E+03  5.76005E+03
 -6.15647E+03 -1.88391E+03 -9.71941E+03 -2.66629E+03  9.81495E+02 -5.07715E+03  1.57842E+03 -8.20628E+03
  8.31668E+03 -3.74743E+03  9.95851E+03  1.04047E+03  2.61686E+03  1.58437E+03 -8.71005E+03  1.66543E+03
 -2.69288E+03  2.02024E+03 -8.25796E+03 -5.23670E+03 -7.12990E+02 -1.97045E+03  9.54083E+03 -2.52348E+03
  8.32112E+03  5.04280E+03  8.68982E+03  8.52864E+03 -9.24307E+02  1.21230E+04 -2.58516E+03  9.17715E+03
 -4.83307E+03  8.88909E+03 -7.81421E+03  5.23037E+02 -7.62364E+03 -6.94748E+03 -1.91688E+03 -7.39847E+03
  4.41379E+03 -6.78572E+02  1.38055E+04  4.40246E+03  9.00914E+03  6.63677E+03  4.41048E+03 -1.03531E+02
 -2.72115E+03  2.15631E+03 -4.90529E+03  7.84667E+01 -4.00761E+03  2.63521E+03 -1.77114E+03 -5.81475E+03
 -1.00379E+04  2.58799E+03 -7.82805E+03  4.53108E+03 -7.86244E+03 -1.64182E+03 -1.04889E+04 -9.30674E+03
 -2.81494E+03 -1.44320E+04  2.43055E+02 -1.58693E+04  1.19340E+04 -1.18183E+04  1.29189E+04 -9.60384E+03
  1.18177E+04  3.19171E+03  4.65906E+03  1.21761E+04 -3.63015E+03  1.73675E+04 -4.68543E+03  1.05708E+04
  5.06106E+02  3.00254E+02 -1.35376E+03 -1.75493E+03  1.05695E+03 -3.13378E+02  1.90840E+03 -2.23128E+03
 -6.21133E+03 -7.92298E+02 -2.86352E+03 -6.90841E+02  3.31367E+03 -3.36644E+03 -2.58807E+03 -1.66960E+03
  5.53516E+03 -3.28916E+03  1.72934E+03  2.29059E+03  7.60290E+03  2.01189E+03 -1.82471E+03  9.30499E+03
 -8.17996E+03  1.25650E+04 -1.50791E+04  7.58341E+03 -1.19432E+04 -1.38470E+03 -1.00291E+04 -8.61118E+03
 -6.24802E+03 -1.25804E+04  3.03335E+03 -5.18827E+03  1.04341E+04 -9.19513E+03  5.48198E+03 -1.25235E+03
  3.30298E+03  1.30623E+03 -4.94124E+03  5.12542E+03 -2.70717E+03 -1.95648E+03  5.42109E+02 -2.36619E+03
  9.56940E+02  9.77135E+02  6.25600E+03 -1.19774E+02  4.45528E+03  5.01247E+03  3.79763E+03  2.09338E+03
 -1.88293E+03  5.41889E+03 -8.70803E+03  2.09263E+03 -6.31736E+03 -4.03917E+03  9.60120E+02 -5.62584E+03
  5.99111E+03 -5.61660E+03  1.45736E+04 -4.26597E+03  7.21830E+03  1.33620E+03  1.91500E+03  7.94166E+03
  3.79115E+03  6.37297E+03 -3.34739E+03  3.53001E+03 -4.32555E+03  4.31375E+03 -4.30084E+02 -1.35847E+03
 -4.57030E+02  2.57328E+03  2.42919E+03  3.62173E+03 -5.23964E+02  1.80138E+03 -3.94645E+03  8.56775E+02
 -2.88939E+03 -6.83399E+03 -5.49880E+03 -3.22352E+03  3.01313E+03 -7.19900E+03  7.00481E+03 -2.44816E+02
  1.00158E+04  4.81838E+02  5.43207E+03  3.24196E+03 -1.49003E+03  4.97106E+03 -2.58558E+03  3.86905E+02
