 $NMID ID='MM_0lb_SNR50_19hz_g45_89.RAW', FMTDAT='(8E13.5)'
 TRAMP=1., VOLUME=1. $END
  3.11638E+05  1.92754E+03  3.37342E+05  2.47549E+05  8.72289E+04  3.39999E+05 -1.34158E+05  2.48192E+05
 -1.88153E+05  8.22891E+04 -1.10114E+05 -3.15058E+04  2.99642E+03 -4.93370E+04  5.94508E+04  3.02614E+02
  3.13400E+04  5.17247E+04 -1.49757E+04  7.15188E+04 -5.90390E+04  6.30200E+04 -8.20596E+04  3.16626E+04
 -7.99193E+04 -1.08282E+04 -5.91963E+04 -5.52386E+04 -1.98923E+04 -6.68073E+04  2.49890E+04 -4.37333E+04
  3.78570E+04  6.15754E+03  2.10769E+04  4.78673E+04 -3.09663E+04  4.74419E+04 -6.75065E+04 -3.59788E+03
 -5.43041E+04 -5.24244E+04 -9.97078E+03 -7.47333E+04  3.87779E+04 -5.09885E+04  4.81120E+04 -1.76188E+04
  3.99289E+04  1.26102E+04  3.11117E+04  2.39044E+04  1.78218E+04  2.84926E+04 -5.89290E+03  2.60378E+04
 -2.20568E+04  1.00725E+04 -1.76608E+04 -4.16442E+03  4.28095E+03 -3.28577E+03  2.33215E+04  1.50930E+04
  6.64712E+03  3.14124E+04 -2.90701E+04  3.60018E+04 -5.66772E+04  5.70401E+03 -5.21464E+04 -4.18940E+04
 -1.19591E+04 -6.03031E+04  3.92589E+04 -4.83642E+04  5.27258E+04 -1.79128E+03  2.95561E+04  3.33665E+04
 -8.11621E+03  3.65070E+04 -2.52725E+04  8.91430E+03 -2.52624E+04 -3.78475E+03 -1.55896E+04 -8.47956E+03
 -6.04558E+03 -1.22282E+04 -5.56727E+02 -1.45466E+04  1.39404E+04 -2.49254E+04  1.50208E+04 -1.76743E+04
  1.60418E+04  2.49932E+03 -2.75562E+03  1.00618E+04 -1.92398E+04 -2.73933E+03 -5.77504E+03 -2.61820E+04
  2.02874E+04 -3.94153E+04  4.46742E+04 -1.59546E+04  4.26248E+04  1.55492E+04  1.38460E+04  4.12368E+04
 -1.61646E+04  3.43494E+04 -2.38467E+04  6.43654E+01 -8.04841E+03 -2.88619E+04  1.95498E+04 -2.99523E+04
  3.79357E+04 -4.28742E+03  2.80346E+04  2.27451E+04  1.31762E+04  3.88732E+04 -7.10588E+03  4.05420E+04
 -2.80674E+04  3.10032E+04 -3.75148E+04  1.14643E+04 -3.95731E+04 -1.78550E+04 -1.88436E+04 -3.41690E+04
  8.38425E+03 -3.40509E+04  2.81960E+04 -9.86665E+03  2.23608E+04  7.91827E+03  5.46327E+03  1.42506E+04
 -9.85736E+03  1.10487E+04 -1.02113E+04 -5.58683E+03  1.88944E+03 -9.94896E+03  1.74679E+04  7.54039E+03
  1.15734E+04  2.01501E+04 -7.30876E+03  2.25364E+04 -2.10194E+04  3.00610E+03 -2.49297E+04 -7.67698E+03
 -1.76129E+04 -1.57206E+04  9.11522E+02 -1.57901E+04  4.37112E+03 -1.65062E+04  1.27470E+04 -1.29059E+04
  2.30883E+04 -9.39130E+03  2.97095E+04 -1.15823E+03  2.34878E+04  1.27801E+04  7.35235E+03  3.39319E+04
 -1.42803E+04  2.73018E+04 -2.49794E+04  1.00536E+04 -2.01803E+04 -7.04687E+03 -1.71378E+03 -1.08636E+04
 -1.70305E+02 -5.30136E+03 -2.26307E+03  2.18874E+03 -8.81860E+03  4.51889E+03 -1.14568E+04 -7.60396E+03
 -9.67894E+03 -1.79534E+04  5.69827E+03 -1.66664E+04  1.17067E+04 -1.20715E+04  1.07515E+04  1.80652E+03
  7.84911E+03  9.85327E+03 -1.33696E+03  1.57147E+04 -8.52211E+03  9.70672E+03 -1.42031E+04 -7.16537E+02
 -1.11156E+04 -1.04991E+04 -3.40226E+03 -1.74246E+04  1.15552E+04 -1.53813E+04  1.69426E+04 -4.97269E+03
  1.10226E+04 -5.16080E+03  7.05519E+03  1.68606E+03  3.47737E+03 -1.15114E+03  7.22841E+03 -4.03054E+03
  1.44140E+04 -3.18564E+03  1.69514E+04  1.49028E+04  7.75884E+03  2.10509E+04 -4.70809E+03  2.67386E+04
 -1.23558E+04  1.19654E+04 -2.35395E+04  9.55641E+03 -2.55583E+04 -7.32391E+03 -2.11494E+04 -1.60840E+04
 -1.01068E+04 -1.96659E+04  5.25274E+03 -1.74724E+04  1.35409E+04 -1.15337E+04  1.29950E+04  5.15819E+03
  1.30482E+04  1.10601E+04 -7.70059E+03  1.18631E+04 -1.50593E+04  2.09706E+03 -1.01876E+04 -1.04290E+04
 -1.60984E+03 -1.00291E+04  4.50218E+03 -9.86992E+03  6.16495E+03 -8.18278E+03 -5.34291E+02  7.99926E+03
 -4.53993E+03  4.61879E+02  2.62872E+02 -6.44363E+03 -2.16223E+03 -1.02921E+04  7.45129E+03 -1.20438E+04
  1.05778E+04 -7.94757E+03  8.86366E+03  2.93403E+03  9.75699E+03  9.31249E+03  5.20814E+03  1.55900E+04
 -1.29491E+03  1.55788E+04 -6.05105E+03  7.98638E+03 -8.72460E+03  6.00328E+02 -5.50365E+03  2.13554E+03
 -6.05631E+03 -4.12914E+03 -4.68551E+02  4.27508E+02 -3.31937E+03  2.84291E+03 -9.39981E+02  4.98988E+03
 -8.99762E+03 -9.80401E+02 -6.90438E+03 -6.79033E+03 -3.63531E+03 -6.55451E+03  2.87013E+03 -7.28978E+03
  5.99975E+03 -3.96810E+03  6.41799E+03 -9.81495E+02  2.53609E+03  2.35450E+03 -2.63080E+03 -3.60409E+02
 -8.13677E+00 -6.33666E+03 -3.18057E+03 -7.87967E+03  5.83828E+03 -5.08387E+03  8.22684E+03 -4.53777E+03
  1.15021E+04 -4.28787E+03  7.18907E+03  6.27620E+03  1.57289E+03  4.09915E+03 -4.18041E+03  7.27920E+03
 -6.76102E+03  3.28956E+03 -2.34266E+03  1.36034E+03  2.86613E+03 -2.93316E+03  7.86994E+03 -7.44574E+03
  2.08228E+03  2.91460E+03 -2.76362E+02  4.40895E+03 -4.28732E+03  4.11627E+03 -1.29316E+04  1.20086E+03
 -5.80812E+03 -7.04791E+02 -4.46719E+02 -1.96757E+03 -1.14041E+01 -7.60169E+02  2.26494E+03 -1.34117E+03
  2.40622E+03  7.61352E+03 -2.57729E+03  5.63264E+03 -3.81970E+03  4.71984E+03 -8.68897E+03  3.61604E+03
  1.66024E+03 -6.03513E+03  3.74978E+02 -9.32160E+03  8.02207E+03 -8.53551E+02  5.12225E+03 -2.15043E+03
 -5.33982E+02  1.61017E+03 -2.15552E+03  9.61549E+03 -7.28530E+03  6.01555E+03 -3.24578E+03 -2.15426E+03
 -4.67440E+03 -3.94811E+03 -1.78783E+03 -7.46567E+03  2.08325E+03 -3.50906E+03  6.27734E+03 -4.52483E+03
  6.45293E+03 -6.58527E+02 -1.38162E+03  1.62397E+03  1.27424E+03 -1.91382E+03  1.43777E+03  1.55505E+03
  3.15664E+03 -5.42759E+03  4.92350E+02 -1.31776E+03  2.50440E+03  2.99851E+03  5.80856E+03  6.39183E+03
  2.69685E+03  6.18845E+03 -9.33407E+03  7.34004E+03 -7.64879E+03  2.24795E+03 -5.48248E+03 -4.70366E+02
 -2.95161E+01 -9.00036E+03  8.65561E+01 -7.59753E+03 -2.75126E+03 -1.60345E+03  6.34511E+03 -2.05576E+03
 -1.47525E+03 -5.95412E+02  5.78604E+02 -2.57772E+03  3.45546E+03 -2.10211E+02  3.72586E+03  4.66012E+01
  7.80066E+03  1.84097E+03  3.08818E+03  4.58260E+03 -5.89636E+02  8.31138E+03 -4.22839E+03  4.25327E+03
 -7.52309E+03 -1.02118E+03 -7.58277E+02 -3.57482E+03  1.61607E+03 -4.35137E+03  5.37842E+03 -3.47005E+03
  5.85101E+01 -3.93759E+03  3.09030E+03  6.96640E+02  1.29283E+03  2.20817E+03 -2.79475E+03  1.98893E+03
 -4.90607E+03  2.88197E+03 -7.93992E+03  1.66475E+02 -4.88420E+02 -2.48038E+03 -1.85814E+03 -2.24021E+02
  1.85735E+03 -1.25934E+02 -7.91582E+03 -1.78941E+03  6.05275E+02 -9.66999E+02 -6.32798E+03  9.19826E+02
 -3.14412E+03 -5.10174E+03  9.90111E+02 -6.35267E+03  4.70228E+03 -4.07584E+03  5.09614E+02  7.81307E+02
  4.03659E+03  4.90880E+02  2.55751E+03  1.66375E+03  1.75222E+03  1.07882E+03 -4.19094E+03  6.47182E+02
 -5.25176E+03  7.23232E+02 -1.26881E+03 -2.08282E+03  3.78850E+03 -5.38225E+03 -1.45673E+03 -2.82420E+03
  2.40485E+03  5.27340E+01 -2.49458E+02 -2.76816E+03 -2.33098E+03 -6.26855E+02  9.67737E+02 -3.19599E+02
  7.62176E+01 -1.22846E+03  2.57106E+03 -1.69064E+03  2.02098E+03  2.86578E+03  1.69091E+03  2.43610E+03
 -3.67972E+03  5.70896E+03 -3.85152E+03  4.04128E+03 -5.49158E+03  1.35876E+03 -3.38784E+03 -2.78073E+03
 -2.44228E+03 -2.20893E+03  3.01034E+03 -2.32386E+03  5.68500E+02 -1.01402E+03  4.04965E+03 -2.49017E+03
  1.36918E+03 -5.66546E+02 -2.56769E+03 -5.65122E+02  2.51173E+03  1.57746E+03 -6.76395E+02  1.53329E+03
 -4.65045E+03  3.45839E+02 -1.01150E+02 -4.40637E+03 -1.70272E+03 -7.47887E+02 -5.08371E+02  3.45006E+03
 -2.19821E+03  1.06778E+03  2.90725E+03 -2.27126E+03 -4.16899E+03 -2.29014E+03  5.02907E+02  4.32880E+03
  4.43384E+03 -2.29198E+03 -9.09619E+01 -6.82318E+02 -1.73224E+03  4.99336E+03 -1.38124E+03  2.92022E+03
  1.08355E+02 -2.63940E+03 -2.47120E+02  1.86323E+03 -3.97554E+03 -4.68022E+03  2.75660E+03  2.99279E+03
  6.42977E+01 -2.52342E+03  4.72817E+02  6.00440E+02 -1.79421E+03  2.12069E+03  8.04760E+02 -4.26583E+02
 -1.94459E+03 -1.36702E+03 -2.82644E+03 -4.82126E+02 -7.80379E+02 -5.55555E+03  3.69573E+03  7.19495E+02
  1.81652E+03  3.79141E+03 -7.19875E+02  6.44203E+02 -1.23068E+03  5.65653E+02 -2.37491E+03  3.10377E+03
  1.69206E+03 -4.33086E+02  1.32765E+03 -1.78217E+03  8.88553E+02  3.41915E+03  4.47419E+02  4.51896E+02
  1.40788E+03  3.39796E+02  3.18380E+03  1.25919E+02  2.12943E+02  6.51186E+02 -7.95874E+02 -2.07700E+03
 -2.99288E+03  1.07638E+03 -3.80264E+03  2.20445E+03 -2.03260E+03 -1.94172E+03  1.53332E+03 -3.37557E+02
  5.24568E+03 -3.71933E+03  6.85612E+02  2.42196E+03 -8.70118E+02  7.88549E+02  3.18761E+03 -1.21156E+03
 -4.32278E+03  1.75168E+03 -2.52326E+03  1.32680E+03 -8.62359E+02 -1.01558E+03 -4.76712E+03  3.68315E+03
  9.26354E+02  4.42494E+03 -4.72869E+03  3.25412E+03  2.12835E+02  2.84882E+00 -4.66102E+03  2.75373E+03
 -2.44976E+02 -2.90031E+03 -5.46659E+02 -4.56726E+03 -1.65385E+03  1.01487E+03  3.54555E+03 -3.29456E+03
  3.49549E+03  2.76223E+03 -2.08395E+03  1.17649E+03 -2.66172E+03  7.17322E+02 -2.50003E+03  3.33661E+03
 -1.47084E+03  1.78747E+03  1.96870E+03 -2.92347E+03 -3.25161E+03  1.43101E+03 -8.21243E+02  1.96483E+03
  1.01211E+03  3.64583E+03  4.30256E+03 -1.47657E+03  2.72676E+03  1.34699E+02 -9.94358E+02  7.74395E+02
  4.20084E+03  1.53764E+03  2.89529E+03  5.31712E+03  1.66988E+03  3.50283E+02 -2.52836E+03  1.11135E+03
 -1.41368E+03  1.92418E+03 -4.37279E+03 -1.78576E+03 -2.11449E+03  1.05244E+03 -2.88333E+03 -8.83459E+02
 -2.17304E+03 -1.69077E+03  4.15508E+03 -2.05672E+03  8.22456E+02  1.07894E+03  1.43245E+03 -3.89654E+03
 -5.37856E+03 -9.32176E+02 -2.69340E+03 -6.93515E+02  4.39108E+01 -2.28955E+03  2.76265E+03 -3.71730E+03
  1.80327E+03  1.93851E+03 -4.19031E+02  2.19616E+03 -4.95272E+03  8.18284E+02 -1.99536E+03  9.30220E+03
 -2.67736E+03 -3.85342E+02  1.18937E+03 -1.04046E+02  5.43019E+00  4.01541E+03  4.91772E+02 -1.55495E+03
  1.18256E+03  5.13993E+02  3.43532E+01  4.45965E+02  1.39256E+03 -2.21723E+03  7.89459E+02  5.35539E+03
  5.97672E+02  1.83793E+03 -9.22506E+02  4.95750E+03 -1.18737E+03 -3.53168E+02 -6.59370E+02  3.98012E+02
  2.20894E+03 -7.37137E+01 -2.95269E+03  3.00380E+03 -3.03300E+03  4.12507E+03 -2.99249E+02  4.15288E+02
 -1.74157E+03 -5.40315E+02  2.01442E+03  2.25083E+03  1.90176E+03 -2.54687E+03 -9.20374E+02 -3.90417E+03
  1.63974E+02 -2.89043E+03  5.31768E+01 -2.28106E+03 -1.59540E+03  2.00141E+03  8.26812E+02 -2.76049E+02
