 $NMID ID='MM_0lb_SNR50_17hz_g50_28.RAW', FMTDAT='(8E13.5)'
 TRAMP=1., VOLUME=1. $END
  3.11182E+05 -1.77529E+03  3.38155E+05  2.48929E+05  8.75441E+04  3.34489E+05 -1.30775E+05  2.48071E+05
 -1.91945E+05  8.23667E+04 -1.08607E+05 -3.19606E+04  2.68325E+03 -5.02455E+04  5.04518E+04  4.24221E+03
  3.40797E+04  4.88575E+04 -1.57168E+04  7.70713E+04 -5.53719E+04  6.66447E+04 -8.36226E+04  2.98757E+04
 -8.21020E+04 -1.14493E+04 -5.34251E+04 -4.71769E+04 -1.04440E+04 -7.17307E+04  2.73217E+04 -4.50057E+04
  4.05877E+04  2.16000E+03  1.42968E+04  4.21495E+04 -3.45314E+04  4.43154E+04 -6.63068E+04  4.18245E+03
 -5.06559E+04 -5.25241E+04 -6.02004E+03 -7.65665E+04  3.31440E+04 -5.59941E+04  4.73589E+04 -1.41496E+04
  4.08580E+04  9.91269E+03  3.48903E+04  2.46991E+04  1.25083E+04  3.21520E+04 -3.85141E+03  2.44137E+04
 -1.97291E+04  1.38874E+04 -1.05055E+04 -4.93215E+03  8.12185E+03 -9.68686E+03  2.08003E+04  7.66284E+03
  4.38653E+03  3.12890E+04 -2.88187E+04  3.02391E+04 -6.26607E+04  2.83979E+03 -5.44428E+04 -4.52215E+04
 -7.59617E+03 -5.89978E+04  3.92346E+04 -4.29093E+04  5.95798E+04 -1.62315E+03  3.23705E+04  3.14031E+04
 -4.52352E+03  3.79837E+04 -2.64838E+04  1.10004E+04 -3.14044E+04 -6.89253E+03 -1.45370E+04 -8.27710E+03
 -5.59665E+03 -1.40789E+04 -1.19180E+03 -1.83649E+04  7.40431E+03 -2.64014E+04  1.29420E+04 -1.49922E+04
  1.74808E+04  7.44012E+03 -6.32817E+03  1.21918E+04 -1.99255E+04 -2.33512E+03 -9.65672E+03 -2.97988E+04
  1.77859E+04 -4.36272E+04  4.88356E+04 -2.18045E+04  4.89345E+04  2.02279E+04  1.27819E+04  4.16715E+04
 -1.35186E+04  3.19988E+04 -2.64865E+04  1.95763E+03 -2.90112E+03 -2.19471E+04  2.32998E+04 -3.58870E+04
  4.10459E+04 -1.15266E+04  3.73233E+04  2.27673E+04  1.31850E+04  4.49865E+04 -8.49711E+03  4.54157E+04
 -2.60506E+04  3.20315E+04 -3.89531E+04  1.03133E+04 -4.16023E+04 -1.36084E+04 -2.50899E+04 -3.58020E+04
  8.75021E+03 -3.79231E+04  2.88103E+04 -1.90055E+04  2.81879E+04  1.00938E+04  4.20360E+03  2.32806E+04
 -1.13461E+04  8.32714E+03 -1.07958E+04 -1.00744E+04  3.31315E+03 -8.52481E+03  1.30597E+04  5.75262E+03
  1.77848E+04  2.11322E+04 -1.01091E+04  2.46937E+04 -2.09915E+04  9.61982E+03 -2.66365E+04 -4.99546E+03
 -1.49575E+04 -1.83586E+04 -1.04232E+04 -1.92153E+04  8.45332E+03 -1.10453E+04  1.39464E+04 -1.69666E+04
  2.08430E+04 -6.85600E+03  3.63043E+04  4.56913E+03  2.50763E+04  1.90644E+04  2.21412E+03  3.22802E+04
 -1.75128E+04  3.13759E+04 -2.19754E+04  7.12736E+03 -2.11392E+04 -7.83152E+03 -4.03168E+03 -1.49814E+04
  3.97291E+03 -3.12621E+03 -2.91347E+03  7.21611E+03 -1.64176E+04  6.78147E+03 -1.51809E+04 -9.14763E+03
 -1.01536E+04 -1.08494E+04  3.38715E+03 -1.80930E+04  1.20712E+04 -1.66260E+04  1.56998E+04 -2.95981E+03
  1.23344E+04  1.03074E+04  9.18934E+02  1.92765E+04 -1.36534E+04  1.33346E+04 -1.82384E+04 -2.74229E+03
 -1.38312E+04 -1.71852E+04 -5.51671E+03 -2.22228E+04  8.04288E+03 -1.94802E+04  2.00795E+04 -1.05057E+04
  1.73833E+04  1.67872E+03  1.47815E+04  4.03598E+03  7.37530E+03 -8.83106E+02  1.29744E+04 -8.15841E+02
  1.19895E+04  2.52320E+03  1.71518E+04  1.34599E+04  9.93549E+03  2.45659E+04 -5.92327E+03  3.15604E+04
 -2.25318E+04  1.91957E+04 -2.74672E+04  1.26192E+04 -2.48443E+04 -6.39479E+03 -2.32527E+04 -1.49117E+04
 -1.15505E+04 -2.57447E+04  1.03761E+04 -2.36043E+04  1.66366E+04 -1.32927E+04  1.97715E+04  4.94585E+03
  3.70903E+03  1.24920E+04 -8.51015E+03  1.12840E+04 -1.21669E+04  2.26132E+03 -1.11505E+04 -8.88587E+03
  2.61880E+03 -1.42145E+04  6.62920E+03 -1.28931E+04  6.02884E+03  4.22716E+03  3.46549E+03  9.54986E+03
 -6.79252E+03  8.27431E+02 -4.86221E+03 -6.35693E+03  7.86486E+01 -8.74064E+03  9.97298E+03 -1.20194E+04
  1.57779E+04 -5.91931E+03  1.12207E+04  1.51885E+03  1.50369E+04  1.29639E+04  1.33890E+03  1.36249E+04
 -5.29002E+03  1.76923E+04 -1.17397E+04  1.30601E+04 -9.08361E+03 -8.86688E+01 -7.62891E+03 -4.10572E+03
 -1.09474E+03 -2.95485E+03 -1.00730E+03 -1.27149E+03 -2.93182E+03 -3.15873E+03 -2.72510E+03  3.18231E+03
 -6.81269E+03 -1.82397E+02 -1.09166E+04 -6.48613E+03 -3.86465E+03 -1.32385E+04  2.00954E+03 -8.52666E+03
  8.03390E+03 -4.29653E+03  6.71099E+03 -3.73869E+02  4.87924E+03  5.45086E+03 -2.42737E+03  3.10439E+02
 -7.23472E+03 -7.71602E+03  6.54443E+02 -4.64206E+03  5.91577E+03 -8.65012E+03  8.39370E+03 -7.61411E+03
  1.53346E+04  4.69243E+03  1.28978E+04  5.20627E+03 -1.91555E+03  1.01854E+04 -6.92696E+03  7.55956E+03
 -7.45232E+03  3.26082E+03 -3.52028E+03 -3.31528E+03 -1.81717E+03 -1.99703E+03  2.49916E+03 -7.93930E+02
  7.28478E+03  1.06991E+04  1.92794E+03  7.59747E+03 -8.52303E+03  6.44444E+03 -7.78427E+03  1.93360E+03
 -5.13813E+03 -6.52445E+03  4.22108E+02 -8.34878E+03  5.20912E+03 -6.28132E+03  2.61074E+03  1.67622E+03
 -8.93172E+02  3.97982E+03 -1.80774E+03  4.31975E+03 -9.07731E+03  3.63997E+03 -3.24917E+03 -2.59364E+03
 -5.16112E+03 -6.51514E+03  1.00646E+03 -1.12661E+04  7.52823E+03 -6.74040E+03  3.42672E+03 -1.05694E+03
  2.21204E+03  5.49783E+03 -1.74404E+03  7.55779E+03 -7.05152E+03  2.29276E+03 -5.19426E+03 -1.02258E+03
 -5.63248E+03 -1.04696E+04  2.60651E+02 -4.13937E+03  4.18551E+03 -5.38095E+03 -1.60095E+02 -5.18677E+03
  4.89157E+03 -1.97186E+03  2.81043E+03 -1.01469E+03  5.97126E+03 -2.90133E+03 -3.61208E+03 -1.27451E+03
  4.77737E+03  3.01562E+03  8.32361E+03  2.87311E+02  6.12794E+03  4.26031E+03  8.67135E+03  6.49638E+03
  2.40438E+03  6.85557E+03 -1.11460E+04  5.32967E+03 -1.51368E+04  5.21727E+02 -1.03736E+04  1.11407E+03
 -5.03297E+03 -6.00212E+03 -2.80949E+03 -3.86213E+03  3.23486E+03 -3.79111E+03 -9.25007E+02 -3.68812E+03
  7.23023E+02 -8.24816E+03  3.16654E+03 -1.88462E+03  4.83480E+03 -2.85154E+02  5.20372E+02 -9.25272E+02
  9.70893E+03 -4.46053E+03 -8.94134E+02  1.52873E+03 -2.25991E+03  3.02636E+03 -1.68896E+03 -2.55329E+02
 -7.52260E+03 -2.91966E+02  2.14349E+03 -5.11918E+03 -4.14575E+02 -6.81173E+03  3.37540E+03 -8.72346E+03
  1.00253E+04 -7.13562E+03  8.23724E+03 -1.80520E+02  6.45313E+03  2.33041E+03  2.08641E+03  7.41655E+03
 -8.59190E+02  3.62148E+03 -6.38091E+03  4.51878E+02 -6.69780E+02 -2.47300E+03 -9.62436E+02  6.84424E+01
 -1.45952E+03  1.89000E+03 -2.58446E+03 -8.36523E+02  1.26456E+03  8.44642E+03 -1.02880E+03 -1.44389E+03
 -5.90600E+03 -3.28490E+03  2.13022E+03 -3.44145E+03 -6.67486E+02 -5.10743E+03  8.01952E+03  2.82076E+03
  8.20467E+03 -9.83198E+02  6.51964E+02  2.13686E+03 -1.33936E+03  1.25419E+04 -3.67144E+03  2.10965E+03
 -5.23044E+03  7.00046E+03 -6.88975E+03 -9.29983E+02 -3.53766E+03 -6.33150E+03  4.70706E+03 -1.63601E+03
  3.06538E+03  1.50007E+03  3.01747E+03  2.22366E+03  2.18926E+03  3.25832E+03 -1.21995E+02  6.82971E+02
  3.49680E+03  2.68298E+03  2.71713E+03  7.45123E+03  2.02910E+03  4.32145E+03  5.94230E+03  1.02764E+03
 -2.75660E+03  1.80063E+03 -1.96351E+03  5.04017E+02 -5.05843E+03  1.03364E+03 -6.04832E+03 -2.13213E+03
 -8.20950E+03 -8.82542E+03  2.80655E+03 -6.16160E+02  1.97856E+03 -3.99279E+03  6.77559E+03 -6.95114E+03
  7.04881E+03  1.51081E+03  2.44873E+03  1.57674E+03 -1.49643E+03  2.92254E+03 -2.99865E+03 -2.65314E+03
 -3.41783E+03 -5.99904E+02  2.86426E+03  4.12711E+03 -4.68684E+02  4.91704E+02  1.65078E+03  2.00051E+03
  2.40414E+03 -1.61530E+03  4.27865E+03  2.36621E+03 -2.04505E+03  5.13676E+02  1.68801E+03  1.94917E+03
 -4.63703E+03 -3.21809E+03  6.87764E+03  1.57281E+03  1.30616E+03  4.48791E+03 -3.51281E+03  7.85232E+03
  3.91784E+02  3.06165E+03 -1.34891E+03 -1.99683E+02 -2.08833E+03 -4.17024E+03 -2.92428E+03 -4.73753E+03
  9.69490E+02 -5.70074E+02  3.59976E+03 -2.21312E+03 -2.58826E+03  1.79650E+03  3.77482E+03 -5.96687E+02
 -3.50317E+03 -3.83222E+02 -2.01113E+03 -3.11792E+03 -6.44859E+02 -1.54021E+03  2.68739E+03 -2.97327E+03
  5.83143E+03  2.48254E+03  6.80469E+02 -1.54262E+02  5.35347E+03 -2.25013E+03  2.53854E+03 -6.57110E+02
 -1.85269E+03 -5.43573E+03 -5.62392E+02 -2.41528E+03  1.44856E+03 -1.69583E+03  5.04343E+03  3.65077E+03
  3.29047E+03 -2.53803E+03  1.27629E+03 -2.36151E+03  1.78825E+03  5.97881E+03 -1.79798E+02  4.19852E+03
 -1.40643E+03 -9.32533E+02 -5.61927E+02 -2.22908E+03 -1.81776E+02 -1.71681E+03  1.63626E+03 -2.48224E+03
  1.19228E+03 -4.80174E+03  4.13075E+02 -4.02247E+02  2.27866E+03 -2.67500E+03 -2.04314E+03 -4.77745E+03
  7.36453E+02  5.12118E+03 -5.33285E+03  1.79599E+03  1.82439E+03  2.65077E+03 -1.82952E+03  2.83301E+02
  6.51186E+02  2.88386E+03  2.02055E+03  5.92591E+02 -1.86641E+03  1.53539E+03 -3.07909E+01 -2.99604E+03
 -4.64561E+03  2.24425E+03  3.19056E+02 -4.02245E+03  7.83221E+02 -7.57810E+03  9.97174E+02 -5.43812E+03
  5.84684E+03  2.52779E+03  1.39824E+03  7.36570E+03 -2.78171E+03 -1.65109E+03 -1.79480E+03  3.50521E+03
 -5.25998E+02  6.42080E+02 -3.68167E+03 -2.09172E+03 -4.25615E+03 -7.15599E+02 -8.88659E+02  6.65163E+02
 -1.85733E+03 -8.96731E+02  3.44723E+03  3.86125E+03  9.51048E+02 -5.56814E+03  1.90214E+02 -3.34915E+03
  1.11175E+03 -3.41084E+02 -1.18226E+03 -1.17931E+03  2.60580E+03 -2.55057E+03  1.00546E+03  3.72937E+03
  9.25866E+02  3.65493E+03 -2.05752E+03  5.19075E+03  6.93626E+02 -5.07280E+03 -1.02759E+03 -3.18096E+03
 -3.24816E+03 -5.15354E+02 -6.30358E+02 -2.60926E+03  1.54542E+03  2.30374E+03  4.31627E+02  2.57920E+01
 -1.61043E+03 -4.20328E+03  2.60508E+03 -7.24581E+01 -8.95287E+02 -1.41123E+03  5.02750E+02  4.88377E+02
  1.68905E+03  2.11092E+03 -7.53926E+02  3.97834E+01 -4.26554E+03  2.21176E+03 -1.39207E+03  3.58808E+03
 -4.04200E+03  2.58794E+02 -3.94311E+03 -7.20287E+01 -4.27681E+03  3.67737E+03  3.05587E+03  1.80237E+02
 -3.21253E+03 -2.53416E+03  9.29652E+02 -2.43887E+03  1.60871E+03  1.07261E+03  3.98274E+03  3.67962E+03
  1.84586E+03  3.34545E+03 -1.11471E+03  1.95491E+03  3.57505E+03  4.68939E+03 -6.01562E+03  6.89794E+02
 -3.58507E+03  1.69822E+02 -2.72180E+03  7.70598E+02 -1.54264E+03  3.92955E+03 -4.26568E+03 -2.64011E+02
 -3.61441E+03  2.12120E+03 -4.33499E+02  7.12102E+02  1.31934E+03 -2.22365E+02  2.47074E+03  1.81716E+03
  1.60093E+02  8.79390E+02  4.02868E+00  1.27334E+03  1.44390E+03  1.91631E+03 -1.66942E+03  8.14791E+03
