 $NMID ID='MM_0lb_SNR50_17hz_g40_73.RAW', FMTDAT='(8E13.5)'
 TRAMP=1., VOLUME=1. $END
  3.12083E+05 -2.83821E+03  3.35192E+05  2.47197E+05  8.89067E+04  3.40167E+05 -1.31372E+05  2.48052E+05
 -1.92447E+05  8.07952E+04 -1.11926E+05 -3.04034E+04  5.14569E+03 -5.01888E+04  5.77269E+04  2.71442E+03
  4.00734E+04  5.23833E+04 -1.90233E+04  7.25269E+04 -6.06270E+04  6.44876E+04 -8.58347E+04  2.64610E+04
 -8.18080E+04 -6.70235E+03 -6.10175E+04 -5.06967E+04 -1.65054E+04 -6.60465E+04  2.44245E+04 -4.54256E+04
  3.57502E+04  4.78936E+03  1.91758E+04  4.57691E+04 -3.13602E+04  4.93437E+04 -6.24588E+04  1.63641E+03
 -5.64461E+04 -5.95356E+04 -3.22500E+03 -7.23840E+04  3.77222E+04 -5.43982E+04  4.40936E+04 -1.81901E+04
  4.10539E+04  1.13450E+04  3.47015E+04  2.40382E+04  1.55656E+04  2.93135E+04 -6.59071E+03  2.35009E+04
 -2.20345E+04  1.45277E+04 -2.07920E+04 -4.36325E+03  4.46136E+03 -4.76966E+03  2.28743E+04  8.79522E+03
  2.27552E+03  3.19070E+04 -3.23199E+04  3.06657E+04 -5.74311E+04  1.45170E+03 -5.95178E+04 -4.63799E+04
 -1.31404E+04 -5.92327E+04  3.66112E+04 -4.49416E+04  5.77268E+04 -1.31700E+03  3.54447E+04  2.78972E+04
 -6.88251E+03  3.53624E+04 -3.13733E+04  1.35566E+04 -2.77794E+04 -4.78295E+03 -1.45267E+04 -1.05860E+04
 -7.29455E+03 -8.45047E+03 -3.56573E+03 -2.18775E+04  2.39812E+03 -2.26691E+04  1.19423E+04 -1.37849E+04
  1.16338E+04  9.02828E+03 -8.09369E+03  1.18526E+04 -1.72147E+04 -5.19516E+03 -6.34286E+03 -2.84027E+04
  2.12058E+04 -4.01183E+04  4.25579E+04 -1.88828E+04  4.03876E+04  1.64236E+04  1.42179E+04  4.12329E+04
 -1.59940E+04  3.07554E+04 -2.33775E+04  1.12650E+03 -1.07881E+04 -2.73475E+04  2.04817E+04 -2.84196E+04
  4.20457E+04 -8.00979E+03  2.71759E+04  2.21358E+04  1.84013E+04  4.66960E+04 -1.03415E+04  4.73090E+04
 -3.09413E+04  2.80968E+04 -3.84734E+04  9.49388E+03 -3.66053E+04 -1.33813E+04 -2.38948E+04 -3.34026E+04
  9.76392E+03 -3.50176E+04  3.05780E+04 -1.33440E+04  2.67767E+04  1.02916E+04  2.09766E+03  1.52445E+04
 -1.30741E+04  8.60435E+03 -1.18537E+04 -7.35589E+03  7.84093E+02 -1.48349E+04  2.02541E+04  6.06748E+03
  1.51558E+04  1.84406E+04 -5.87103E+03  2.37552E+04 -2.16555E+04  6.86172E+03 -2.14225E+04 -7.35750E+03
 -1.79099E+04 -1.49561E+04 -6.09033E+03 -2.08497E+04 -3.06793E+02 -1.27352E+04  1.16487E+04 -1.15965E+04
  2.25993E+04 -1.41924E+04  2.65507E+04 -1.78728E+03  1.66582E+04  1.52149E+04  5.82415E+03  3.47650E+04
 -1.70790E+04  2.96100E+04 -2.66735E+04  1.00581E+04 -1.61867E+04 -1.29875E+04 -4.61418E+03 -1.43813E+04
 -6.87506E+02 -6.41306E+03  4.50795E+02  7.97472E+03 -9.74003E+03  8.19769E+03 -1.61705E+04 -5.61379E+03
 -9.03820E+03 -1.67565E+04  3.56053E+03 -1.98181E+04  1.46872E+04 -1.50571E+04  1.36859E+04 -2.41467E+03
  9.40004E+03  1.20682E+04  3.28435E+02  1.78083E+04 -7.19797E+03  7.95826E+03 -1.53969E+04 -6.96899E+03
 -1.21286E+04 -1.52694E+04 -2.86761E+02 -2.68734E+04  6.14948E+03 -1.34925E+04  1.57118E+04 -5.29752E+03
  1.69284E+04  2.58418E+03  1.15075E+04 -2.48496E+03  9.87264E+03  3.16650E+03  4.28649E+03 -2.12524E+03
  1.09978E+04  6.77303E+02  1.25126E+04  1.64775E+04  1.30375E+04  2.95996E+04 -1.46631E+03  3.14251E+04
 -1.45534E+04  2.18057E+04 -3.08136E+04  9.08413E+03 -2.50478E+04 -2.56160E+03 -2.33773E+04 -1.50704E+04
 -1.04395E+04 -2.30060E+04  4.12501E+03 -1.81144E+04  1.30838E+04 -8.56223E+03  1.77806E+04  7.53065E+03
  7.01583E+03  1.13398E+04 -7.00499E+03  6.64595E+03 -1.49550E+04  1.34518E+03 -7.42794E+03 -8.74942E+03
 -6.97184E+02 -1.35472E+04  6.85590E+03 -7.76937E+03  8.98317E+03 -9.31743E+02  4.69233E+03  6.72368E+03
 -9.24657E+03  4.69891E+03 -4.47939E+03 -5.72130E+03  1.25842E+03 -8.65639E+03  6.00117E+03 -1.44808E+04
  1.69953E+04 -6.94382E+03  9.70612E+03 -2.87837E+02  1.06174E+04  1.18257E+04  7.82771E+03  1.58959E+04
  2.65495E+02  1.49992E+04 -1.17507E+04  1.23990E+04 -8.88991E+03  7.78761E+03 -7.35722E+03  1.90535E+03
 -7.17796E+03 -4.65944E+03  9.72781E+02  2.18285E+03 -1.99726E+03  2.82382E+03 -2.76320E+03  1.42879E+03
 -6.66172E+03 -2.94448E+03 -1.07602E+04 -1.00192E+04 -4.32925E+03 -1.08618E+04  2.13922E+03 -1.33073E+04
  8.34172E+03 -4.19170E+03  7.39600E+03  4.40416E+02  1.03972E+03  2.22517E+03 -7.51103E+03  1.01800E+03
 -5.86386E+03 -6.49774E+03  1.36541E+03 -8.63521E+03  3.65508E+03 -4.55690E+03  1.16429E+04 -3.33936E+03
  1.39639E+04  9.97616E+02  6.98009E+03  6.64599E+03  1.84999E+02  1.38071E+04 -2.62315E+03  4.43606E+03
 -7.04579E+03  5.69237E+03 -5.86473E+03  7.91941E+02 -3.91693E+03 -3.51649E+03  8.04836E+03 -2.10874E+03
  3.55821E+03  2.56850E+03 -1.26973E+03  6.45190E+03 -3.10653E+03  8.16646E+03 -5.28416E+03 -1.71632E+03
 -4.87360E+03 -1.60401E+02  1.76694E+03 -6.99126E+03  2.65005E+03 -8.38445E+03  3.23944E+03  4.42289E+03
 -6.89636E+02  6.88672E+03 -5.23862E+03  3.49378E+02 -3.38104E+03  7.95039E+03 -6.62199E+03 -3.32452E+03
 -2.56209E+03 -1.11092E+04  2.05648E+03 -7.21892E+03  6.42693E+03 -4.45862E+03  9.28000E+03 -3.22561E+03
  5.27078E+03  5.59147E+03 -1.63220E+02  7.46735E+03 -7.58633E+03  6.34222E+03 -1.81295E+02 -5.95542E+02
 -6.63113E+03 -3.28744E+03 -2.78230E+03 -6.12445E+03  6.53633E+03 -4.14920E+03  6.21126E+03 -3.93152E+03
  1.51513E+03 -2.69441E+02 -8.81672E+02  3.40041E+03 -9.47128E+02  1.07239E+03  1.44015E+03 -2.84869E+03
  1.15421E+03 -4.75135E+03  4.23036E+03  5.52423E+03  2.68055E+03  1.82106E+03  2.61333E+03  9.45563E+03
 -3.27959E+03  6.40623E+03 -4.91759E+03  6.92670E+03 -1.25780E+04 -2.18528E+02 -1.24122E+04 -3.61926E+03
 -1.11809E+04 -9.10597E+03 -4.33888E+03 -7.99519E+03  3.38135E+03 -3.71127E+03  5.07741E+03 -5.12011E+03
  1.79457E+03 -6.68442E+02  4.60776E+03 -7.01902E+03  2.21302E+03  1.51776E+03  6.59318E+03 -1.91921E+03
  5.69230E+03 -1.90766E+03  7.20429E+02  5.14457E+03 -4.94193E+02  3.58273E+03 -5.72471E+03  1.31785E+03
 -3.13222E+03 -3.60409E+03 -3.97175E+03 -1.54320E+03  2.39794E+03 -3.85163E+03  1.88810E+03 -9.51380E+03
  3.97101E+03 -7.19384E+02  9.95954E+03 -3.09440E+02  7.92456E+03  7.52373E+03 -3.69105E+03  2.97895E+03
 -1.73378E+03  5.51337E+03  2.31718E+03  2.94550E+03  2.24659E+02 -2.93944E+03 -5.18469E+03  1.25142E+03
 -3.76387E+03 -9.66942E+02  3.68769E+02 -1.08587E+03 -2.84263E+02  1.43169E+03 -5.15328E+03 -6.55478E+03
 -3.30319E+03 -4.54376E+03 -2.60441E+03 -7.06847E+03  1.28478E+03 -5.00010E+03  6.58610E+02  7.72157E+02
  5.80702E+03  1.10421E+03 -6.74219E+02  2.43862E+03 -2.61644E+03  4.61673E+03 -1.92445E+03 -3.66483E+03
 -5.40198E+03 -8.26756E+02 -1.74130E+03 -3.37901E+03 -1.67317E+03 -9.07999E+03 -1.18749E+02 -2.65407E+03
  5.39776E+03 -8.91633E+02  5.86970E+03  2.95546E+02  2.14140E+03 -1.15145E+03  1.00851E+03  5.38266E+03
  7.81626E+02 -2.96887E+02 -6.20326E+03  5.06813E+03  2.87199E+03  4.36204E+03  2.12603E+03  6.87670E+03
  3.00227E+03  5.25177E+03 -4.15288E+03  7.51009E+03 -1.93458E+03  2.34392E+03 -1.21009E+03  1.14360E+03
 -5.43015E+02 -6.03333E+03 -1.69165E+03 -2.00262E+03  3.61143E+03 -3.61254E+03  3.74737E+03  1.94656E+02
  5.05152E+03  2.86572E+03 -2.52430E+03  3.23874E+03 -1.21936E+03  3.67977E+03  1.81841E+03  1.90003E+03
 -3.04252E+03 -8.84073E+01 -2.15463E+03 -3.69527E+03  2.72513E+03  4.01779E+03  4.16956E+03 -1.51334E+03
  4.21765E+03  4.68949E+03 -1.60401E+03 -1.92998E+03 -2.74366E+02 -1.18462E+03  3.86786E+03  1.09489E+03
  3.85582E+02 -1.96398E+02  3.08244E+03  3.44298E+02  3.48748E+03  1.09003E+03  1.68727E+03  5.93955E+03
 -3.56201E+03  3.37004E+03  8.97435E+01 -6.44065E+02 -3.33812E+03 -2.69728E+03 -1.98940E+03  5.04055E+03
  1.77635E+03 -5.29279E+03 -4.72569E+03  1.00032E+03 -3.11142E+03  6.70959E+02 -5.91067E+02 -5.47846E+03
 -1.36764E+03  3.89210E+03  2.59062E+02 -5.06192E+03  1.54382E+02 -6.05419E+03  2.31148E+03 -2.11876E+03
 -1.92136E+03 -9.53101E+02  8.77923E+02  2.14045E+03  3.23106E+03 -5.75826E+02  2.66472E+03  1.27522E+03
 -9.22926E+02 -1.82355E+03  7.74741E+02  3.17614E+03  1.58706E+03 -5.75226E+03  1.70353E+03 -5.41889E+02
  2.50456E+03 -9.01561E+02  2.74038E+03  4.75481E+03  2.86669E+02  2.52720E+02 -1.72170E+03  5.21541E+03
  2.68095E+02  9.08658E+01  1.76913E+03  3.37906E+03  1.13230E+03  1.29048E+03  5.56456E+02  9.03516E+02
  2.23545E+03  3.15596E+03 -2.99834E+03  3.14055E+03 -3.36308E+03  1.67059E+02  5.97796E+02 -6.18738E+02
 -3.59274E+03  4.31320E+02  3.63330E+02  1.85653E+03 -7.00494E+02  6.15792E+02 -3.59468E+03  3.30800E+02
 -3.99779E+02  1.19781E+03  2.08648E+03 -3.86394E+03 -6.20886E+03 -4.66324E+03  4.05253E+03 -1.64041E+03
 -4.28872E+03 -1.28090E+03  9.09521E+02 -3.59421E+03  2.74120E+02 -3.49831E+03  1.71797E+03 -4.03419E+03
  6.81185E+03 -1.25147E+03  1.61930E+03  2.69539E+03 -2.88392E+03 -3.21975E+03  1.45714E+03  1.03998E+03
 -2.81300E+03  2.96438E+03 -3.15975E+03  4.36511E+03 -1.67758E+03  3.36752E+02 -3.42744E+03 -3.76954E+03
  6.14471E+01 -2.94433E+03 -2.98986E+03  1.39084E+03 -3.57323E+03 -7.42902E+02 -3.50270E+03 -2.14072E+03
  1.84556E+03  5.04272E+02  2.02084E+03 -1.66173E+03  3.50383E+03 -1.87354E+03  4.77541E+03  7.73889E+02
  4.67207E+01  5.35727E+03 -2.21089E+03  5.47027E+03 -1.63454E+03  1.94649E+03 -3.69066E+03 -1.10616E+02
 -3.14048E+03 -1.57592E+03  2.28225E+02  1.93794E+03  2.50095E+03 -5.04995E+03  1.28330E+03  1.56709E+03
  3.61212E+03 -3.42287E+01 -1.55178E+03  1.37930E+03 -1.07908E+03  8.65996E+02 -1.14754E+02  4.92978E+03
  2.61183E+02 -1.58138E+03  5.56025E+03  1.38567E+03  3.05567E+03 -1.07679E+03 -5.61315E+02  1.45130E+03
 -1.77036E+02  4.59814E+03  3.28423E+03  4.11010E+02 -2.39874E+03 -1.73101E+03 -7.61971E+02 -3.57416E+02
 -1.49252E+03  2.40097E+02 -4.74257E+02  3.38101E+03  4.07494E+02 -1.21693E+03 -1.41810E+03  2.20549E+03
 -1.38573E+03  2.79653E+03 -3.45887E+03  2.11478E+03  1.82196E+03 -2.28315E+03  7.96615E+02 -2.25851E+03
 -2.75816E+03 -1.85805E+03 -2.07227E+03  1.88054E+03  1.35873E+03 -4.62740E+01 -9.76159E+02 -1.73288E+03
 -2.37007E+03 -4.42823E+03 -2.73371E+03 -4.26330E+03  3.26784E+03  8.20837E+02  4.59697E+01 -7.05373E+03
  1.65755E+03 -8.44524E+02  5.46652E+02  2.77332E+03 -2.94104E+03 -4.87600E+02  8.43738E+02 -2.00797E+03
