 $NMID ID='MM_0lb_SNR50_12hz_g40_77.RAW', FMTDAT='(8E13.5)'
 TRAMP=1., VOLUME=1. $END
  3.10184E+05 -4.00638E+02  3.37030E+05  2.51654E+05  9.13033E+04  3.37582E+05 -1.30384E+05  2.49455E+05
 -1.89050E+05  8.84981E+04 -1.12722E+05 -3.17807E+04  2.40395E+03 -4.83359E+04  5.37000E+04  4.19213E+03
  3.35786E+04  5.25188E+04 -1.74062E+04  7.14532E+04 -5.90098E+04  6.34710E+04 -8.23223E+04  3.46163E+04
 -8.48758E+04 -1.23784E+04 -5.50120E+04 -5.19352E+04 -1.58197E+04 -7.10411E+04  3.04364E+04 -4.76769E+04
  3.45834E+04  4.19988E+03  1.93012E+04  4.91433E+04 -3.75500E+04  5.17701E+04 -7.02237E+04  4.77897E+03
 -5.68501E+04 -5.89775E+04 -8.26560E+03 -7.98243E+04  2.89123E+04 -5.54958E+04  4.78062E+04 -1.70237E+04
  4.85381E+04  1.69502E+04  3.22033E+04  2.70891E+04  1.20555E+04  2.77070E+04 -1.35974E+03  3.13073E+04
 -1.81219E+04  1.84618E+04 -1.30860E+04  2.80623E+03  3.26334E+03 -9.13881E+03  1.97398E+04  1.56005E+04
  4.96600E+03  3.15515E+04 -2.95439E+04  3.23371E+04 -6.54734E+04 -6.04994E+02 -5.67308E+04 -4.06692E+04
 -7.02651E+03 -6.37272E+04  4.57878E+04 -4.48397E+04  6.12035E+04  2.93354E+02  3.14283E+04  2.97995E+04
 -8.28805E+03  3.75950E+04 -2.69448E+04  1.39921E+04 -3.32862E+04 -4.49116E+03 -1.34396E+04 -1.03831E+04
 -2.89939E+03 -9.20306E+03 -2.93106E+03 -2.06654E+04  6.76584E+03 -2.70408E+04  1.74176E+04 -6.17493E+03
  1.21255E+04  5.92287E+03 -8.07477E+03  1.64987E+04 -1.94797E+04 -6.14046E+03 -6.78480E+03 -3.41295E+04
  2.43626E+04 -4.07192E+04  5.33311E+04 -2.20508E+04  4.42425E+04  2.17610E+04  1.26895E+04  4.48825E+04
 -1.60028E+04  3.83365E+04 -2.27482E+04 -3.35746E+02 -5.63194E+03 -3.21916E+04  1.95945E+04 -3.16945E+04
  4.04428E+04 -1.27082E+04  3.43600E+04  2.43733E+04  1.96401E+04  4.34231E+04 -5.77639E+03  5.38381E+04
 -3.04486E+04  3.08531E+04 -4.98335E+04  1.62674E+04 -3.90789E+04 -1.84373E+04 -2.46103E+04 -4.14202E+04
  8.62247E+03 -4.37018E+04  3.07539E+04 -1.15249E+04  3.02134E+04  7.67108E+03  2.97290E+03  2.14814E+04
 -1.56877E+04  7.15421E+03 -8.87336E+03 -6.02781E+03  9.12122E+03 -1.01183E+04  2.41221E+04  4.23722E+03
  1.17872E+04  2.48479E+04 -2.64281E+03  2.91153E+04 -2.07798E+04  1.48818E+04 -2.37428E+04  1.42097E+03
 -2.09651E+04 -1.96131E+04 -1.00283E+04 -1.89183E+04  6.80249E+03 -2.34563E+04  1.52201E+04 -1.75388E+04
  2.36836E+04 -1.14903E+04  3.17771E+04  4.40715E+03  2.48633E+04  2.12996E+04  6.59614E+03  3.58045E+04
 -1.75112E+04  3.68195E+04 -2.87559E+04  1.29204E+04 -2.15458E+04 -5.30376E+03 -6.07580E+03 -1.83026E+04
  2.23114E+03  3.57639E+02 -1.03303E+04  3.63629E+03 -1.51663E+04 -2.81818E+03 -1.81133E+04 -5.28550E+03
 -3.83735E+03 -1.82590E+04  5.57465E+03 -2.61174E+04  2.27489E+04 -1.82108E+04  1.87288E+04 -2.81075E+03
  1.13307E+04  8.86125E+03 -2.69040E+03  2.01576E+04 -1.03824E+04  1.46278E+04 -1.99250E+04 -5.72292E+03
 -1.09010E+04 -2.05383E+04 -1.02488E+03 -2.90493E+04  9.85929E+03 -2.03027E+04  2.45915E+04 -1.19295E+04
  2.31650E+04 -3.65871E+03  1.69350E+04  2.01450E+03  6.78048E+03 -7.40808E+01  8.27212E+03 -7.87052E+02
  1.24132E+04  2.04712E+03  1.87674E+04  1.51360E+04  6.81258E+03  3.32937E+04 -2.82875E+03  3.88019E+04
 -2.07772E+04  3.50264E+04 -3.35979E+04  1.43932E+04 -3.93474E+04 -3.22565E+03 -2.28044E+04 -2.01970E+04
 -1.42023E+04 -3.30108E+04  1.04907E+04 -2.46497E+04  1.84362E+04 -1.26339E+04  2.05489E+04  4.01584E+03
  4.45088E+03  1.37999E+04 -1.02020E+04  8.56750E+03 -1.33692E+04  3.18915E+03 -1.21942E+04 -1.29203E+04
  3.35980E+03 -1.66077E+04  1.22664E+04 -1.26877E+04  1.27783E+04 -3.68484E+03  4.97684E+03  6.22563E+03
 -2.20018E+03  5.96886E+03 -2.60627E+03 -8.95882E+03 -2.72816E+03 -1.45355E+04  1.04802E+04 -1.51950E+04
  2.11775E+04 -9.92699E+03  1.42856E+04  4.84554E+03  1.66875E+04  1.88089E+04  1.28660E+04  2.35948E+04
 -4.81508E+03  2.62222E+04 -1.46989E+04  1.61701E+04 -1.58160E+04  5.79337E+03 -1.73383E+04  3.91255E+03
 -1.70542E+03 -9.19237E+03 -4.48919E+02 -1.94916E+02  2.36749E+02  1.43455E+03  1.90738E+03  2.48441E+03
 -6.28039E+03  5.97143E+02 -8.22517E+03 -4.25144E+03 -1.23002E+04 -1.77187E+04  5.85727E+03 -1.38368E+04
  9.32918E+03 -2.91614E+03  5.97636E+03  4.81256E+03 -2.78915E+03  3.59139E+03 -4.68509E+03  1.45029E+03
 -1.10637E+04 -4.66465E+03 -1.88581E+03 -1.87005E+04  6.30808E+03 -1.36472E+04  1.73801E+04 -1.14000E+04
  1.93645E+04 -4.11310E+03  1.20821E+04  8.69799E+03  5.79398E+03  9.43241E+03 -1.04499E+04  7.36070E+03
 -1.13395E+04  4.09960E+03  6.75737E+02 -2.83650E+03  2.41257E+03 -8.42781E+03  8.86582E+03 -5.75346E+03
  3.57045E+03  8.87165E+03  2.65245E+02  8.55567E+03 -5.50517E+03  1.03091E+04 -1.20499E+04  3.04911E+03
 -9.35853E+03 -3.62852E+03 -6.03800E+02 -4.35166E+03  1.23065E+04 -1.09607E+04  6.79527E+03 -6.27923E+02
  9.63074E+01  2.53558E+02 -2.71830E+02  6.50153E+03 -1.19471E+04  2.01138E+03 -9.16439E+03 -4.74106E+03
 -1.66518E+03 -5.93492E+03  1.21349E+03 -1.71240E+04  6.24710E+03 -9.98252E+03  1.50065E+04  3.54650E+03
  3.65312E+03  1.08623E+04 -2.31294E+01  1.20363E+04 -9.73225E+03  6.81690E+03 -7.20750E+03 -1.32910E+03
 -1.40544E+04 -1.15829E+04 -3.68241E+03 -2.35857E+03  4.22643E+03 -3.49838E+03  3.48291E+03 -9.10207E+03
  6.18716E+03  1.85402E+03  1.67734E+03 -4.42903E+03 -1.09976E+03 -2.04000E+03  3.52359E+02 -3.47001E+03
  8.56864E+03 -6.36514E+02  1.15911E+04  5.77483E+03  3.72009E+03  1.24226E+04  1.26747E+04  1.35839E+04
 -4.57175E+03  1.88672E+04 -9.60694E+03  1.19398E+04 -1.78923E+04  4.94847E+02 -2.09123E+04 -2.06507E+03
 -1.62751E+04 -1.12969E+04  2.02342E+03 -1.18646E+04  1.14965E+04 -2.15733E+03  5.81629E+02 -8.86348E+03
  3.48333E+03 -2.33786E+03 -1.41981E+03 -8.22366E+02  7.75093E+03 -4.05453E+03  4.07966E+03  2.18869E+03
  2.89628E+03  9.52002E+02  5.26422E+02  9.32334E+03  2.57191E+03  7.72599E+03 -9.03730E+03  3.46436E+03
 -7.74537E+03 -4.48196E+02 -6.76501E+03 -5.71326E+03 -2.05237E+03 -1.13120E+04  7.10553E+03 -6.76909E+03
  9.47002E+03 -6.15201E+03  1.29066E+04  5.89828E+03  1.02243E+04  5.19457E+03  3.30998E+03  7.47279E+03
 -4.29480E+03  1.03074E+04 -8.25643E+03  5.57426E+03 -7.49601E+03 -4.10343E+03  3.72755E+03  1.21016E+03
 -1.79328E+03  4.35951E+01 -6.13986E+03  1.04110E+03 -5.09500E+03  4.87054E+03 -9.26225E+03 -3.86165E+03
 -5.36206E+03 -9.07823E+03  3.88926E+02 -9.41138E+03  6.30889E+03 -3.07463E+03  9.91916E+03 -7.83034E+03
  1.59410E+03  1.05589E+03  4.41761E+03  7.66387E+03  3.43929E+02  1.14332E+04 -3.84303E+03  6.93096E+03
 -6.31044E+03 -1.11098E+03 -8.55026E+03 -4.07057E+03 -2.49215E+03 -3.72888E+03  8.13109E+03 -2.30578E+03
  5.98001E+03 -7.85431E+02  6.38974E+03  2.39168E+03  4.62722E+03  1.05776E+04  1.27299E+03 -1.01064E+03
  4.26633E+03  2.63504E+02  3.48839E+03 -1.04826E+03  3.99164E+03  4.36087E+03  2.45666E+03  5.20778E+03
 -2.70491E+03  1.53085E+03 -2.60440E+03  6.56278E+03 -7.70188E+03 -3.96535E+03 -6.09296E+03 -6.03351E+03
 -4.31377E+03 -1.60684E+04  8.50876E+02 -9.57763E+03  5.26763E+03 -1.39207E+04  9.58830E+03 -3.00678E+03
  9.60725E+03  3.07123E+03 -1.14466E+03  7.93935E+03  8.41538E+02  3.16914E+03 -2.90562E+03 -7.84558E+02
 -2.73155E+03 -1.94168E+03 -7.78209E+02 -6.92382E+02  4.11876E+03 -4.14155E+03  6.84835E+03  1.31534E+02
  6.26576E+03  1.19302E+03  2.11458E+03  3.60911E+03 -3.27372E+02  1.25373E+03  6.66596E+03  1.69534E+03
 -8.88703E+02  3.99482E+03  6.24880E+03  8.38702E+02  3.86415E+03  3.30390E+03 -3.80642E+03  6.80459E+03
 -3.80371E+03  5.85850E+03  2.20672E+02 -1.39853E+03 -4.56755E+03 -1.44609E+03 -3.26282E+03 -7.91614E+02
 -2.17113E+03 -5.55911E+03  2.18598E+02 -3.29104E+03  9.80415E+02  4.43946E+02  1.15900E+02  4.79141E+03
 -1.99992E+03 -1.14608E+03 -4.35822E+03 -7.04321E+03 -8.10987E+03 -3.01963E+03  6.64522E+03 -7.40452E+03
  1.69473E+03 -4.11971E+03  4.56810E+03 -2.00046E+03 -2.76653E+03  7.56117E+03  2.72145E+03  7.70689E+02
 -5.47221E+03 -5.38720E+03 -5.48808E+03 -8.51918E+02  6.12862E+03 -1.85183E+03  4.92674E+03 -5.25912E+03
  3.45616E+03  9.93328E+02  6.96044E+02  2.03348E+03  2.21479E+03  6.65698E+03 -4.29123E+03 -1.16809E+03
 -4.96466E+03  3.20076E+03 -4.06138E+03 -1.21595E+03 -3.54461E+03 -3.50196E+03  5.44915E+02 -6.63561E+02
  6.85605E+03  3.55644E+03 -2.58202E+03  2.12523E+03  2.55256E+03  3.02195E+03 -3.51444E+03 -9.37548E+02
  3.27690E+03  6.81826E+01 -4.86319E+03  1.03291E+02  1.48182E+03 -4.72910E+03  7.99346E+02 -1.66771E+03
 -1.42552E+03  8.12047E+03 -3.85799E+03 -2.42089E+03 -7.00694E+03  7.25796E+02 -7.77787E+03 -4.31615E+03
 -3.16586E+03 -4.37605E+03  7.36197E+03 -1.27598E+04  1.14898E+03 -5.77075E+03  6.32189E+03 -8.24280E+03
  1.14996E+04  1.82520E+03  1.12794E+03  5.77109E+03  1.43604E+03  2.95454E+01 -7.05035E+03  1.04273E+03
 -1.22260E+03  3.16250E+03 -3.21362E+03  5.14850E+03  2.03783E+03 -5.03774E+00 -2.08599E+03 -4.56317E+03
 -2.05065E+03  4.29694E+03  1.11736E+03 -1.00233E+03 -3.32736E+03 -7.15324E+03  2.87189E+03 -2.84178E+02
  3.52225E+03 -8.65900E+03  5.04051E+03 -2.92802E+03  4.52887E+03  1.86529E+03  5.34688E+02  4.51223E+03
  1.92997E+03  5.86556E+03 -7.93300E+03  6.72965E+03 -7.43059E+03  6.17173E+02 -5.42180E+03 -7.27872E+03
 -2.99955E+03 -4.00186E+03  2.50210E+03 -3.20466E+03  5.55803E+02 -1.61830E+03  7.72667E+03  5.70649E+01
  4.21706E+03  7.09372E+02 -1.32642E+03  2.10929E+03  4.66500E+03 -2.05448E+03  5.64820E+03  8.40716E+02
  7.11976E+03 -1.58020E+03  8.28770E+03 -4.74642E+03 -5.25132E+03  6.09378E+03 -1.15517E+03  1.23552E+03
 -1.39194E+03  1.78524E+03 -8.13513E+02  5.64627E+03 -4.92919E+01  3.89984E+02  9.45017E+01 -8.81411E+02
  4.89441E+02 -4.66725E+03  5.00162E+03  4.28730E+00  3.46077E+03 -4.60535E+02  6.76204E+03  5.65439E+02
  3.70857E+03  4.70441E+03  3.65279E+03  6.41312E+03 -2.58710E+03  7.52348E+03 -1.39931E+03  5.39857E+03
  5.47605E+02  4.69903E+03 -1.77142E+03  5.96078E+02 -1.71192E+03  3.03376E+03 -9.46547E+02 -8.44989E+02
  1.35482E+03 -3.85688E+03  2.73010E+03 -5.30607E+03  3.21303E+03 -1.25205E+04  3.06048E+03 -1.16032E+02
  5.30580E+03  3.86063E+03 -2.14521E+03  9.16554E+02  1.28019E+03 -3.38958E+03 -3.94809E+03  2.47354E+03
