 $NMID ID='MM_0lb_SNR50_18hz_g45_77.RAW', FMTDAT='(8E13.5)'
 TRAMP=1., VOLUME=1. $END
  3.06220E+05  2.33511E+03  3.38687E+05  2.50391E+05  8.28581E+04  3.38616E+05 -1.32440E+05  2.48788E+05
 -1.86265E+05  8.21344E+04 -1.12664E+05 -2.97411E+04  5.90103E+02 -4.78343E+04  5.41405E+04  8.39064E+02
  3.42844E+04  5.21440E+04 -1.25873E+04  7.28493E+04 -6.26146E+04  6.26999E+04 -8.87350E+04  3.36492E+04
 -8.37486E+04 -8.45294E+03 -5.91921E+04 -4.93291E+04 -1.56850E+04 -6.58509E+04  2.82533E+04 -4.47485E+04
  4.01687E+04  3.27534E+03  1.47665E+04  4.75828E+04 -3.34002E+04  4.74248E+04 -6.70690E+04  3.17172E+03
 -5.34865E+04 -5.58453E+04 -8.69579E+03 -7.70079E+04  3.39219E+04 -5.46329E+04  4.83437E+04 -1.70416E+04
  3.87117E+04  7.81214E+03  2.82093E+04  2.18228E+04  1.30273E+04  2.88189E+04 -1.18359E+03  2.96024E+04
 -2.16835E+04  1.40612E+04 -2.10962E+04 -2.33137E+03  2.78380E+03 -6.98562E+03  2.19012E+04  9.93466E+03
  7.23884E+03  3.58734E+04 -2.70267E+04  3.51834E+04 -5.88385E+04  1.82926E+03 -5.22294E+04 -4.01306E+04
 -1.13667E+04 -6.21072E+04  3.96984E+04 -4.39257E+04  5.74123E+04 -4.23140E+03  3.14765E+04  3.01791E+04
 -3.93320E+03  3.64828E+04 -2.71342E+04  1.14547E+04 -2.84264E+04 -2.67823E+03 -1.49877E+04 -8.31135E+03
 -8.45088E+03 -1.34860E+04  1.01840E+03 -1.59816E+04  3.30430E+03 -1.67123E+04  1.64354E+04 -1.62876E+04
  1.25683E+04  2.15181E+03 -6.14202E+03  1.63993E+04 -1.59183E+04 -5.36355E+03 -6.32696E+03 -2.82383E+04
  1.80018E+04 -4.08304E+04  4.30161E+04 -1.93386E+04  4.16913E+04  1.57961E+04  1.89868E+04  4.01445E+04
 -1.03370E+04  3.38531E+04 -2.46420E+04  2.71190E+03 -8.16783E+03 -2.66792E+04  2.31735E+04 -3.20536E+04
  4.00293E+04 -5.70663E+03  3.18043E+04  2.41577E+04  1.85885E+04  4.23616E+04 -7.69926E+03  4.55192E+04
 -2.94284E+04  3.15523E+04 -3.44787E+04  8.38422E+03 -4.38577E+04 -1.51113E+04 -2.13976E+04 -3.25875E+04
  1.02449E+04 -3.57021E+04  2.66232E+04 -1.16772E+04  2.30995E+04  9.96722E+03  4.82377E+03  1.72887E+04
 -9.22876E+03  5.47396E+03 -1.21948E+04 -8.55590E+03  7.21079E+03 -8.37205E+03  1.59200E+04  4.50707E+03
  1.31288E+04  1.91973E+04 -5.86778E+03  2.49384E+04 -2.05969E+04  6.31455E+03 -2.26201E+04 -9.77580E+02
 -1.55185E+04 -1.49003E+04 -7.40231E+03 -1.90821E+04  7.17917E+03 -1.58821E+04  1.25520E+04 -1.33366E+04
  1.96636E+04 -1.15252E+04  2.65684E+04  1.34208E+03  1.97542E+04  1.66458E+04  5.62707E+03  2.93722E+04
 -9.42730E+03  2.70979E+04 -2.60513E+04  1.21964E+04 -1.82687E+04 -9.09529E+03 -9.46758E+01 -1.60054E+04
  1.86041E+03 -4.33697E+03 -2.72905E+03  5.48520E+03 -1.21595E+04  3.26386E+03 -1.39439E+04 -4.14596E+03
 -1.27550E+04 -1.58392E+04  6.35678E+03 -1.83880E+04  1.46095E+04 -9.97541E+03  1.49710E+04 -1.09549E+03
  7.53592E+03  7.27713E+03  2.80517E+03  1.31384E+04 -9.43619E+03  1.09372E+04 -1.43810E+04 -8.18032E+02
 -1.29192E+04 -1.41234E+04  7.36225E+02 -1.96967E+04  1.07439E+04 -1.76145E+04  1.65395E+04 -9.14997E+03
  1.75669E+04  2.18470E+03  1.02533E+04  2.03087E+03  3.48493E+03  2.00084E+03  6.20107E+03  6.15687E+02
  1.74003E+04  2.79211E+03  1.43931E+04  1.33729E+04  6.01821E+03  2.07303E+04 -3.85997E+03  2.75514E+04
 -1.85014E+04  2.62780E+04 -2.54109E+04  1.28725E+04 -2.97075E+04 -4.31793E+02 -2.55212E+04 -1.50276E+04
 -9.84580E+03 -1.96566E+04  5.76190E+03 -1.78303E+04  1.64139E+04 -1.41934E+04  1.15680E+04  4.86014E+03
  1.05245E+04  1.41795E+04 -6.71100E+03  7.21409E+03 -9.98256E+03  6.07406E+03 -6.84422E+03 -1.07220E+04
 -5.04212E+01 -1.34893E+04  7.38846E+03 -1.23518E+04  5.40225E+03 -4.14335E+02  2.74646E+03  4.05055E+03
 -4.42724E+03 -1.21483E+02 -4.55471E+03 -5.17956E+03  2.96765E+03 -6.51869E+03  5.82352E+03 -5.78488E+03
  1.11174E+04 -5.17848E+03  1.02797E+04  3.01942E+03  8.48581E+03  9.60158E+03  1.15203E+04  1.25434E+04
 -3.65777E+03  1.70104E+04 -4.56838E+03  1.51532E+04 -1.18164E+04  7.20989E+02 -9.61482E+03 -6.10051E+03
 -4.94586E+03 -2.88701E+03 -4.17641E+03  3.48815E+03  2.36071E+03  2.98960E+03 -6.06639E+03  2.43977E+03
 -7.30957E+03 -3.34966E+03 -9.23878E+03 -1.15022E+04 -9.24569E+02 -9.68112E+03  6.14945E+02 -5.76575E+03
  9.63749E+03 -4.91231E+03  5.78862E+02  1.38477E+03  3.02560E+02  4.27794E+02 -5.87754E+03  6.36148E+02
 -3.95704E+03 -5.51457E+03 -2.02421E+02 -1.11125E+04  4.89754E+03 -6.82371E+03  9.52678E+03 -5.95507E+03
  9.61338E+03 -2.01418E+03  5.47659E+03  1.13662E+04 -1.91563E+03  1.06631E+04 -7.98297E+03  3.88972E+03
 -5.75392E+03  2.90463E+03 -2.46460E+03  1.36670E+03 -9.51664E+02 -7.19637E+03  5.61075E+03  8.14708E+02
  1.00269E+03  1.50490E+03  6.46091E+03  8.16073E+03 -5.55072E+03  1.67919E+03 -9.69503E+03  2.49530E+03
 -5.03642E+03 -2.90130E+03 -4.71656E+02 -3.79813E+03  2.59323E+03 -3.80242E+03  4.12855E+03  4.15293E+03
  1.00181E+03  4.83947E+03 -4.31767E+03  1.95165E+03 -5.61235E+03  7.62864E+02 -1.61483E+03  3.12949E+03
 -5.51293E+03 -4.22272E+03  2.22247E+02 -9.59115E+03  4.70623E+03 -4.00832E+03  4.09033E+03 -5.98275E+02
  9.17052E+03  8.08543E+03  1.23015E+02  4.55604E+03 -3.58225E+03  7.77447E+00 -2.10408E+03  1.44828E+03
 -1.13600E+04 -1.08548E+04  1.99388E+03 -5.50707E+03  2.77610E+03 -8.85443E+03  1.58181E+02 -6.07278E+03
  3.79135E+03  4.67640E+03 -2.20532E+03  1.84410E+03 -1.49746E+03 -4.12613E+02  4.34428E+03 -1.59969E+03
  3.60446E+03 -1.36342E+03  6.41254E+02  1.12946E+03  5.09984E+03  4.80399E+03  5.83651E+03  2.43500E+03
  2.39333E+03  2.56157E+03 -1.21546E+04  5.33184E+03 -1.01806E+04 -6.89946E+02 -4.09762E+03 -3.26470E+03
 -2.88330E+03 -5.51465E+03  3.54280E+03 -6.40091E+03 -1.72871E+03 -1.16924E+03  3.57963E+02 -1.84341E+03
 -3.67832E+03 -2.75594E+03  3.41323E+02 -2.79956E+03  2.50294E+03 -1.95883E+03  2.49334E+03 -1.45248E+03
  5.34658E+03  2.69748E+03 -1.06861E+03  3.74027E+03 -3.16824E+03 -1.38598E+03 -3.40478E+03  4.24110E+03
  3.25719E+03 -2.63259E+02  5.24755E+02 -3.47467E+03 -3.85978E+03 -3.64587E+03  7.45323E+03 -2.75970E+03
  9.48133E+03 -5.75896E+03  9.45836E+03 -2.27658E+03  9.22910E+03  5.12598E+03 -4.11749E+02  6.24457E+03
 -9.90572E+01  7.11893E+03 -6.99804E+03 -9.21249E+02 -3.53236E+03  2.77528E+03  1.45008E+03  5.39395E+03
  4.53449E+03  4.91281E+02 -5.28574E+03  1.60444E+03 -2.64856E+03  2.35811E+03 -1.15527E+03  1.90460E+03
 -2.52587E+03 -1.06499E+03  5.38222E+03 -5.55785E+03  4.92831E+03 -6.04530E+03  7.07943E+02 -1.44692E+03
  5.88519E+03  4.59970E+03  2.08324E+03  2.80980E+03 -1.25151E+03  5.34129E+02 -3.46904E+03  3.45226E+02
 -4.43152E+03 -5.64842E+02 -5.76558E+02 -6.32436E+03  9.34938E+02 -4.03327E+03  3.69912E+01 -2.83839E+03
  6.23692E+02 -4.37758E+03  5.78221E+03 -1.60914E+03  2.83010E+03 -7.61591E+02  1.20478E+03 -7.29716E+02
  1.48295E+03 -2.30744E+03  5.68839E+03  2.66414E+03  9.05305E+02  2.56957E+03  7.21808E+03  1.96319E+03
  1.49379E+02  3.70821E+03 -2.84459E+03  1.58315E+03 -4.68523E+03  4.58148E+03 -4.51487E+03  3.64323E+03
 -6.21886E+03 -2.37822E+03 -5.24765E+02 -7.75826E+03  4.60221E+03 -2.41649E+03  2.99420E+03  1.23775E+03
  4.56617E+03 -1.22289E+03 -6.73668E+02  4.54378E+03  7.70666E+02  4.09659E+03 -3.47635E+03  1.45206E+03
  1.44399E+03 -2.61738E+03  4.96337E+03 -4.51121E+03 -3.69742E+03 -4.18879E+03  2.19047E+03  1.63988E+03
 -2.04053E+03  1.78394E+03  2.01809E+03 -1.52554E+03 -9.09512E+02  3.37701E+02 -2.59804E+02  1.85750E+03
 -1.38505E+02 -1.34599E+03  2.45607E+03 -6.51544E+02  4.11211E+02  1.13776E+03 -1.45702E+03  2.47613E+03
 -1.53347E+03 -1.91760E+03 -6.52920E+03  1.99872E+03 -1.00808E+04  2.93328E+03  2.42844E+03 -3.98552E+02
 -8.38871E+02 -2.76970E+03  3.58316E+03 -7.20748E+01  1.42461E+03 -4.45272E+02 -1.68064E+03  1.81435E+03
 -2.20137E+03  1.71128E+03 -1.51539E+03 -3.77328E+03 -1.05711E+03 -2.62499E+03 -2.89147E+03  8.69143E+02
 -2.14300E+03  1.02318E+03  2.60908E+03  4.09757E+02 -3.27131E+02  2.12099E+03 -3.00035E+03  8.85881E+02
 -3.22093E+02 -8.86151E+02 -3.50556E+03  3.84610E+03 -2.93582E+03 -2.94069E+03  2.36697E+03  4.84850E+03
 -9.74830E+02 -5.93875E+02  4.74443E+03 -1.91360E+03 -4.49382E+02 -2.00703E+02  1.45593E+03  1.12781E+03
 -5.60528E+02  2.95860E+02 -2.97214E+03  3.05111E+01 -1.55418E+03 -4.49989E+03  2.51859E+03  3.02054E+03
  1.92730E+03 -3.80225E+02  2.15085E+03 -5.61447E+02  1.79775E+03  3.29095E+03  1.32453E+03  3.06178E+03
 -6.21394E+02  2.12121E+03 -6.84751E+01  4.28111E+03 -2.51058E+03 -1.83359E+03 -3.96317E+02 -2.68927E+03
 -4.01029E+03  2.72737E+03 -3.61018E+03 -2.31042E+03 -1.26550E+03  2.78996E+03 -4.77399E+03 -3.17020E+03
 -4.06017E+03  3.52020E+02 -2.45959E+03 -4.09115E+03  6.11087E+02 -3.27237E+03  2.07648E+03 -1.80102E+03
  3.79919E+03  7.36486E+01  1.83651E+03  1.80467E+03 -3.82892E+03  7.83537E+03 -1.34828E+02  1.93745E+02
 -3.36738E+03 -2.53808E+03 -1.19228E+03 -2.61090E+02  6.30052E+02 -6.17933E+02 -3.74399E+02  2.85119E+02
 -2.74202E+03  2.68742E+03  3.02460E+03 -6.30197E+02 -3.13551E+02 -4.80507E+03  1.00786E+03  2.61347E+03
  2.02877E+03  2.29594E+03  2.56241E+03  1.01365E+03 -3.68221E+02  3.21114E+03 -1.04249E+03  3.43196E+03
 -2.50576E+03 -2.40961E+03  5.14057E+02  6.47937E+03 -4.42323E+03 -4.40295E+01  4.04369E+02 -9.22587E+02
  2.20298E+03 -2.91875E+03 -2.79356E+03 -4.39708E+03  1.86682E+03 -5.92099E+02 -1.56935E+03  2.02216E+03
 -1.63906E+03 -4.98625E+02 -7.67675E+02  1.96892E+03 -3.87741E+02  7.57888E+02  2.04782E+03 -1.20671E+02
 -1.05199E+03 -3.21970E+03 -3.00405E+03  1.08358E+03 -2.68346E+03 -6.44122E+02 -3.80350E+02 -2.31026E+03
  1.45206E+02  2.76248E+03 -3.46831E+03 -4.74173E+03 -3.84803E+02 -4.56436E+02  1.57841E+02  4.35148E+03
 -9.93249E+02 -2.50003E+03  2.73892E+03 -1.44021E+03 -4.10504E+03 -9.31121E+02  2.40782E+03  1.97202E+03
  3.51177E+03  3.43248E+03 -6.98748E+02  1.26626E+03  1.19899E+01  3.11095E+03 -9.14316E+02  1.25871E+03
  1.93266E+03  2.01498E+03 -2.03294E+03 -9.85185E+02 -4.69333E+02  6.99678E+02  1.70811E+03  4.39030E+03
 -2.35109E+03  4.81264E+03 -2.25423E+03 -1.06102E+03 -3.60317E+03  1.00200E+03  2.31595E+03  8.94096E+02
  3.73790E+02 -4.58082E+03  3.66740E+03  3.47681E+03 -8.24974E+02 -1.34385E+02  2.85779E+03 -2.82505E+03
