 $NMID ID='MM_0lb_SNR50_14hz_g60_41.RAW', FMTDAT='(8E13.5)'
 TRAMP=1., VOLUME=1. $END
  3.03544E+05  1.98576E+03  3.35389E+05  2.46314E+05  8.52196E+04  3.39210E+05 -1.35041E+05  2.53756E+05
 -1.90861E+05  7.68793E+04 -1.12589E+05 -3.15440E+04  1.65651E+03 -4.96892E+04  5.10191E+04 -1.77796E+03
  3.39382E+04  4.97699E+04 -1.86130E+04  6.88801E+04 -6.19183E+04  6.50100E+04 -7.65478E+04  3.15077E+04
 -8.45158E+04 -1.10431E+04 -6.19227E+04 -4.93500E+04 -1.49892E+04 -7.05648E+04  2.96495E+04 -4.46287E+04
  4.28403E+04  3.52702E+03  1.65069E+04  5.40117E+04 -3.92247E+04  4.42793E+04 -6.14205E+04  4.25561E+03
 -5.36567E+04 -5.12746E+04 -4.42694E+03 -7.75668E+04  3.09152E+04 -5.50750E+04  4.56182E+04 -1.79355E+04
  4.26581E+04  1.38676E+04  3.28912E+04  2.28656E+04  1.20124E+04  2.91846E+04 -5.01311E+03  2.59587E+04
 -2.04549E+04  1.33080E+04 -1.48650E+04 -4.29014E+03  4.40964E+03 -6.43433E+03  2.08522E+04  1.87887E+04
  8.64854E+03  3.06150E+04 -3.40282E+04  3.85503E+04 -6.60140E+04  1.35914E+03 -5.72753E+04 -4.19879E+04
 -1.20947E+04 -6.46377E+04  3.93825E+04 -5.12001E+04  6.11539E+04 -2.02819E+03  3.31081E+04  3.47937E+04
 -6.96017E+03  3.93492E+04 -2.90571E+04  1.95446E+04 -3.34738E+04 -8.08980E+03 -1.62535E+04 -9.46317E+03
 -9.59717E+03 -1.27392E+04 -1.80455E+03 -1.65268E+04  3.14220E+03 -2.25189E+04  1.35867E+04 -1.40890E+04
  1.27432E+04  6.16275E+03 -1.47854E+04  1.23980E+04 -1.62145E+04 -6.17016E+03 -9.16366E+03 -3.51326E+04
  2.35370E+04 -5.19384E+04  5.15611E+04 -2.02359E+04  4.58069E+04  1.76439E+04  1.84572E+04  4.83410E+04
 -1.61416E+04  3.56223E+04 -2.96521E+04  2.45432E+02 -9.42138E+03 -2.75539E+04  2.15229E+04 -3.35643E+04
  4.10207E+04 -8.46156E+03  3.66402E+04  1.78692E+04  2.12158E+04  4.89459E+04 -3.19001E+03  4.66276E+04
 -3.09239E+04  3.41493E+04 -4.28813E+04  1.17804E+04 -4.26444E+04 -1.21691E+04 -2.74072E+04 -4.26947E+04
  1.27778E+03 -4.26862E+04  3.25553E+04 -1.93645E+04  3.24712E+04  8.21197E+03 -5.90453E+02  2.04537E+04
 -1.58207E+04  1.10039E+04 -1.17278E+04 -1.12095E+04  5.11087E+03 -1.17325E+04  1.83647E+04  1.04370E+04
  1.13433E+04  2.43320E+04 -6.14735E+03  3.03917E+04 -1.94231E+04  1.25584E+04 -2.56961E+04 -1.38980E+03
 -2.52170E+04 -2.35930E+04 -8.11163E+03 -2.77349E+04  9.25845E+03 -2.17431E+04  1.40150E+04 -1.48912E+04
  2.99128E+04 -1.16916E+04  3.56021E+04  3.70727E+03  2.27864E+04  1.87073E+04  5.02728E+03  4.03623E+04
 -1.63125E+04  2.86587E+04 -2.84110E+04  1.17524E+04 -2.16545E+04 -1.48706E+04 -1.05932E+04 -1.90592E+04
  4.04048E+03 -3.49559E+03 -7.88525E+03  1.01756E+04 -1.50318E+04  1.79146E+03 -1.84805E+04 -1.12897E+04
 -1.35434E+04 -1.76649E+04  3.35088E+03 -2.74075E+04  1.33991E+04 -1.60446E+04  2.21757E+04 -3.54184E+02
  1.64482E+04  1.63746E+04 -6.74373E+02  1.82036E+04 -9.24318E+03  6.68147E+03 -1.72349E+04 -4.90189E+03
 -1.79808E+04 -2.03803E+04  2.87843E+02 -2.57499E+04  8.99645E+03 -2.25286E+04  1.70994E+04 -6.29737E+03
  1.78152E+04 -2.62461E+03  1.14848E+04  5.52858E+03  8.96300E+03  1.36805E+03  9.66945E+03 -1.76707E+01
  2.16141E+04  3.60703E+03  2.57484E+04  1.47596E+04  1.43352E+04  3.03930E+04 -2.29261E+03  3.89485E+04
 -2.04132E+04  2.76040E+04 -3.44324E+04  1.53714E+04 -3.47849E+04 -2.56470E+03 -3.43711E+04 -2.13197E+04
 -1.49453E+04 -3.08166E+04  1.46913E+04 -2.57369E+04  2.51733E+04 -1.28610E+04  1.73419E+04  1.06673E+03
  9.29125E+03  1.26572E+04 -8.45478E+03  1.69074E+04 -1.37975E+04  2.45861E+03 -1.47141E+04 -1.35759E+04
 -1.96774E+03 -1.56495E+04  3.65308E+03 -1.11940E+04  6.28695E+03  3.85303E+03  4.74803E+03  9.31509E+03
 -7.24443E+03 -3.99398E+02 -3.02466E+03 -1.36640E+03 -2.26046E+03 -1.52880E+04  1.03703E+04 -1.22914E+04
  1.88107E+04 -6.59300E+03  2.12823E+04  3.67529E+03  1.57236E+04  1.96347E+04  5.93729E+03  2.26666E+04
 -1.74526E+03  2.04852E+04 -1.53593E+04  1.61703E+04 -1.82205E+04  5.52914E+03 -1.16233E+04 -5.81670E+03
 -2.14592E+03 -4.95141E+03 -3.14962E+03  2.03022E+03 -2.75115E+03  1.82266E+03 -9.35495E+03  4.53447E+03
 -1.04504E+04 -9.25138E+02 -7.78719E+03 -9.97871E+03 -9.46973E+03 -1.73960E+04  7.68011E+03 -5.61716E+03
  1.09245E+04 -8.55254E+03  3.44770E+03  2.37820E+03  7.29536E+02  4.39299E+03 -6.61143E+03 -4.28137E+03
 -4.57471E+03 -9.68659E+03 -2.95826E+02 -1.21884E+04  8.64790E+03 -1.28311E+04  1.17796E+04 -5.14949E+03
  1.83364E+04  4.59655E+03  1.50826E+04  1.08606E+04  1.05710E+03  2.08743E+04 -4.36779E+03  1.53459E+04
 -8.74414E+03  6.13214E+03 -1.03792E+04  1.19982E+03  7.67312E+02 -1.26274E+03  1.05629E+04  6.00615E+02
  9.59292E+03  4.95712E+03 -7.14036E+02  8.37458E+03 -7.79980E+03  5.69586E+03 -7.29150E+03  4.10013E+03
 -9.47568E+03  3.32668E+03  1.67115E+03 -6.37609E+03  4.21461E+03 -6.51314E+03  4.97313E+03  4.17452E+03
 -1.64995E+02  1.48018E+03 -2.38673E+03  7.82398E+03 -1.24390E+04  1.23085E+03 -8.11038E+03 -7.14140E+02
 -5.53766E+03 -8.82797E+03  1.83905E+03 -1.06180E+04  1.12957E+04 -2.01518E+03  7.40179E+03  2.82885E+03
  5.14266E+03  3.13918E+03  1.52534E+03  8.95233E+03 -9.58717E+03  4.72032E+03 -7.85533E+03  7.92640E+02
 -1.56198E+04 -5.77329E+03 -8.22866E+03 -6.71405E+03  8.01072E+03 -1.16169E+04  1.09470E+04 -1.46217E+03
  8.28728E+03 -1.05320E+03 -5.02792E+03 -1.11731E+02 -1.39963E+03 -3.59112E+03  4.20240E+03 -8.66361E+03
  8.57134E+03 -1.77942E+03  1.25096E+04 -1.12906E+03  1.19666E+04  4.37410E+03  5.13720E+03  3.23635E+03
  1.39646E+03  1.81466E+04 -1.09247E+04  1.47532E+04 -1.55827E+04  2.47982E+03 -9.81821E+03 -4.36110E+03
 -8.88321E+03 -1.27321E+04  2.49895E+03 -1.31178E+04  5.68799E+03 -1.48358E+03  5.39846E+03 -3.89279E+02
 -1.32754E+01 -4.82677E+03  6.33683E+02  1.92688E+03  8.35207E+03 -1.44905E+03  5.34272E+03 -5.66010E+02
  1.11308E+04 -6.44085E+03  5.16638E+03  3.10848E+03 -3.91984E+03  8.34422E+03 -5.15602E+03  3.62453E+03
 -1.43764E+04 -1.75313E+03 -7.18834E+03 -4.46451E+03  1.88881E+03 -9.41583E+03  6.11874E+03 -1.09371E+04
  1.36883E+04 -9.84836E+03  1.23154E+04  3.86753E+03  7.32359E+03  6.02303E+03 -5.27016E+02  7.52757E+03
 -6.90151E+03  1.14976E+04 -7.24768E+03  5.24849E+03 -4.60281E+03 -5.83098E+02 -2.55295E+03 -1.53480E+03
 -3.93165E+03  2.38316E+03 -1.97265E+03  3.87603E+03 -4.21124E+03  1.16444E+03 -1.01240E+04  3.23418E+02
  2.14620E+03 -1.01404E+04 -2.21176E+03 -8.00540E+03  5.96839E+03 -7.22214E+03  9.21321E+03 -1.54610E+03
  9.28325E+03  7.42183E+03  1.24983E+03  1.08094E+04 -2.52563E+03  7.44234E+03 -2.24611E+03  5.32656E+03
 -5.96802E+03 -1.00194E+03 -5.74029E+03 -3.68806E+03  8.01640E+01 -5.30251E+03 -1.41404E+03 -7.63710E+03
  6.15333E+03 -4.77811E+03 -2.77435E+03  3.09724E+03 -1.19007E+03  2.25434E+03 -9.07049E+02  1.33478E+03
  2.74631E+03  2.11990E+03  4.16745E+03  4.09132E+03  5.09376E+03  8.39252E+03  1.95804E+03  3.20090E+03
 -5.47917E+02  5.85427E+03 -1.02088E+04  7.46019E+03 -9.17960E+03  3.53854E+03 -1.17015E+04 -9.01423E+03
 -4.96391E+03 -9.68130E+03 -7.71757E+02 -6.89457E+03  2.19665E+03 -6.08514E+03  1.05496E+04 -2.81970E+03
  6.02977E+03  2.47214E+03  3.39320E+03  1.05780E+04  4.87788E+02  6.23685E+03 -5.66395E+02 -6.82601E+02
  1.16841E+03 -9.72700E+03  3.86995E+03 -4.53511E+03  3.83092E+03 -4.09126E+03  6.76400E+03 -1.36934E+03
  1.47577E+03 -1.26585E+03 -1.59086E+02 -2.44194E+02 -5.90427E+02  2.19110E+03  4.73124E+03  3.55492E+03
  2.27140E+03  8.03845E+02  5.63931E+03  1.54000E+03  2.02483E+03  3.53769E+03 -9.17298E+02  7.28807E+03
 -5.66559E+03  1.20540E+03 -4.62391E+03 -1.32011E+03 -4.42244E+03 -1.01885E+03 -4.26300E+03 -2.36407E+03
  2.59760E+03 -4.86392E+03 -1.64530E+03 -4.32344E+03  2.64837E+03 -7.28695E+02 -1.68309E+03  7.95877E+02
 -3.20705E+03  2.20979E+03 -3.14282E+03 -6.58079E+03 -5.29964E+02 -7.52032E+03  3.95379E+03 -2.46225E+03
  4.75578E+02  1.05421E+03  4.28019E+03  2.93045E+03  1.03709E+03  2.88416E+03  2.21763E+03  5.65462E+03
 -1.17465E+03  3.01097E+03  2.90245E+03  9.02630E+02  1.56170E+03 -3.05400E+03  6.76522E+03 -4.96266E+03
  7.63380E+03  4.47845E+02  5.93416E+03  3.51993E+03  1.04617E+03  4.73212E+03 -3.08722E+02  4.26350E+03
 -3.16114E+03  3.97102E+03 -5.69587E+03  5.67193E+02 -9.72990E+02 -4.04592E+03  2.80895E+03 -3.43074E+03
 -6.17206E+01 -4.87297E+03  3.63560E+03 -2.32611E+03  3.87131E+03  8.42601E+03  2.59902E+02  2.29780E+03
  1.41848E+03  9.04725E+03  3.12738E+03 -4.31164E+03 -1.92611E+03  1.01856E+03 -4.30511E+03 -3.39911E+02
 -2.32513E+03  8.49815E+02 -2.18101E+03 -1.75190E+03 -2.24314E+03  2.30735E+03 -5.73187E+03  1.76337E+03
 -1.34925E+03 -6.79851E+03  5.32756E+02 -1.86881E+03  4.86508E+03 -3.27310E+03  4.00244E+03 -9.76901E+02
  8.87547E+03 -3.01535E+03  9.85744E+02  3.05500E+03  1.24831E+03  3.29951E+03 -7.06990E+03  3.55767E+03
 -1.09597E+04  5.49681E+02 -1.29195E+03  1.59075E+03 -2.91243E+03 -3.40522E+03 -1.45339E+03  5.84597E+03
 -1.13459E+03 -3.03707E+03 -3.18083E+03  8.99558E+02  3.62117E+03  1.88834E+02 -1.38380E+03 -1.07246E+04
  2.73008E+03 -1.98575E+03  3.15946E+02 -2.74358E+03  2.64882E+03  6.01312E+02  9.56815E+02  3.31535E+03
 -1.73150E+03  1.82400E+03 -5.77148E+02  3.96104E+03 -8.58959E+03 -4.04117E+03 -5.35950E+03 -9.18741E+03
  2.42046E+03 -6.10470E+02  3.55580E+03 -3.06160E+03  1.38131E+03  3.31817E+03  2.67571E+03  6.50511E+02
 -3.88147E+03  3.83137E+03  1.24010E+03 -1.48311E+02 -3.16560E+03  5.22107E+02  5.16934E+03  8.58030E+02
  1.56989E+03  2.94903E+03  3.09958E+03  3.77083E+03  1.82549E+03  4.02943E+01  3.13500E+03  3.72871E+03
 -2.34732E+03  6.70543E+02 -1.33685E+01 -3.09744E+03  2.10345E+01 -5.00414E+03 -2.21678E+03 -4.55172E+03
  3.59952E+03 -5.97490E+03  9.27377E+02 -4.04150E+03  4.14097E+03 -2.44213E+03  2.79005E+03  1.97011E+02
  2.96876E+03  6.96365E+03 -6.73280E+02  2.63309E+02 -2.95051E+03 -1.91730E+03  1.53698E+03  3.32387E+03
 -1.48953E+03 -2.11346E+03  3.18052E+03  3.98312E+03 -1.70509E+03  3.35133E+02 -3.25695E+02  3.18653E+02
 -2.82500E+03 -8.14845E+02 -3.20046E+01  1.57017E+03  9.79205E+03 -6.87892E+02  9.06386E+02  3.89719E+03
  3.40279E+03  3.08173E+03 -1.08292E+03 -5.17167E+03 -3.60955E+03 -1.15160E+02  8.61438E+01  2.16416E+03
