 $NMID ID='MM_0lb_SNR50_10hz_g60_7.RAW', FMTDAT='(8E13.5)'
 TRAMP=1., VOLUME=1. $END
  3.03057E+05  1.13283E+03  3.35334E+05  2.48646E+05  8.27712E+04  3.38362E+05 -1.34688E+05  2.52169E+05
 -1.92548E+05  7.86967E+04 -1.13014E+05 -2.83699E+04  6.92534E+03 -5.40679E+04  5.60972E+04  2.34575E+03
  3.58095E+04  5.34684E+04 -1.63533E+04  8.04949E+04 -5.63285E+04  6.61007E+04 -8.10341E+04  2.85246E+04
 -8.28547E+04 -1.15934E+04 -5.81097E+04 -5.29271E+04 -1.70632E+04 -6.76581E+04  2.98171E+04 -4.98724E+04
  4.08284E+04  7.23215E+03  1.65924E+04  5.31018E+04 -3.26232E+04  4.67149E+04 -6.62891E+04  7.18739E+02
 -5.64645E+04 -6.27337E+04 -1.02382E+04 -7.63634E+04  3.96987E+04 -5.55401E+04  4.88237E+04 -1.78928E+04
  4.41591E+04  1.17088E+04  3.96571E+04  3.18404E+04  1.17769E+04  3.10686E+04 -5.47410E+03  2.49335E+04
 -1.93229E+04  1.57898E+04 -1.67233E+04 -8.38438E+03  4.07212E+03 -2.85742E+03  2.36236E+04  1.68534E+04
  8.28457E+03  3.36250E+04 -3.48435E+04  3.53128E+04 -5.96122E+04  5.04785E+03 -6.04190E+04 -4.59639E+04
 -1.72048E+04 -6.71546E+04  4.34071E+04 -5.12813E+04  6.42036E+04 -9.82642E+02  3.58931E+04  3.93357E+04
 -1.30362E+03  4.31288E+04 -2.88194E+04  1.47604E+04 -3.51488E+04 -6.83037E+03 -2.12459E+04 -9.20440E+03
 -1.04596E+04 -1.90462E+04 -5.82810E+03 -2.04823E+04  1.41002E+04 -2.70679E+04  8.67813E+03 -1.32324E+04
  7.68987E+03  5.56691E+03 -6.82346E+03  1.34366E+04 -2.78586E+04 -1.03866E+03 -8.35545E+03 -3.86173E+04
  2.43138E+04 -4.03614E+04  5.20449E+04 -1.78273E+04  4.73841E+04  2.10961E+04  1.79251E+04  5.03681E+04
 -1.21604E+04  3.76725E+04 -3.13031E+04  2.73953E+03 -1.09617E+04 -3.08529E+04  2.00652E+04 -3.92185E+04
  4.19269E+04 -1.66775E+04  4.88332E+04  2.31354E+04  2.00934E+04  4.11216E+04 -6.41729E+03  5.53608E+04
 -3.01401E+04  3.30122E+04 -4.59984E+04  1.16254E+04 -4.72913E+04 -1.64390E+04 -2.90116E+04 -3.77490E+04
  4.11774E+03 -3.90901E+04  3.45386E+04 -1.47703E+04  3.03033E+04  1.69863E+04  4.69441E+03  2.02600E+04
 -9.13129E+02  1.49929E+04 -1.18765E+04 -1.32369E+04  3.94461E+03 -9.71524E+03  1.92841E+04  1.15073E+04
  8.07174E+03  2.47036E+04 -4.94754E+03  2.74612E+04 -2.41141E+04  1.54355E+04 -3.22285E+04 -9.56350E+02
 -2.61561E+04 -1.37224E+04 -3.72707E+03 -2.22496E+04  6.42786E+03 -3.04040E+04  2.29573E+04 -2.19432E+04
  4.03753E+04 -1.45370E+04  3.23602E+04  3.83099E+03  2.41709E+04  2.49701E+04  3.21708E+03  3.99428E+04
 -2.22331E+04  3.23203E+04 -2.88525E+04  1.61854E+04 -1.74912E+04 -9.23603E+03 -5.75482E+03 -1.32708E+04
  2.55638E+03  1.40069E+03 -1.60626E+03  6.08752E+03 -2.30885E+04  1.40660E+04 -2.24777E+04 -8.45232E+03
 -1.54048E+04 -2.97816E+04  1.03688E+04 -2.56739E+04  1.91370E+04 -2.22874E+04  2.22590E+04 -3.70339E+03
  1.04067E+04  1.21012E+04 -1.48523E+03  2.37781E+04 -1.54942E+04  6.64863E+03 -2.01432E+04 -1.59074E+03
 -1.50529E+04 -2.29669E+04  2.97589E+02 -3.03120E+04  7.64998E+03 -2.53373E+04  2.94671E+04 -1.01635E+04
  1.85138E+04  1.17167E+03  1.36413E+04  6.59272E+03  7.99683E+03  1.93367E+03  1.40580E+04  2.64393E+03
  1.87192E+04 -5.07319E+02  2.70736E+04  1.53764E+04  1.79718E+04  3.91464E+04  3.13643E+03  4.95902E+04
 -2.35868E+04  3.04731E+04 -5.06595E+04  1.85517E+04 -4.65698E+04 -5.61777E+03 -3.33125E+04 -2.66866E+04
 -7.92471E+03 -4.20864E+04  1.00564E+04 -3.39096E+04  2.56954E+04 -2.01609E+04  2.39600E+04  7.37736E+03
  7.64271E+03  1.97560E+04 -1.60564E+04  2.08223E+04 -2.12828E+04  4.85293E+03 -2.05644E+04 -1.82548E+04
  2.64473E+03 -1.84838E+04  5.90843E+03 -1.37010E+04  1.40959E+04 -7.43319E+03  2.82233E+01  1.13776E+04
 -8.88409E+03  8.07047E+03 -1.22858E+04 -4.56595E+03  6.62827E+03 -1.99387E+04  8.22765E+03 -1.98683E+04
  2.38656E+04 -3.56786E+03  2.65954E+04  7.39023E+03  2.07173E+04  1.63920E+04  9.38796E+03  2.91811E+04
 -3.84615E+03  3.11841E+04 -1.64630E+04  2.10200E+04 -1.89213E+04 -3.27573E+02 -1.32692E+04 -6.78755E+03
 -9.44434E+03 -1.12156E+04  2.99248E+03  2.71268E+03 -1.05600E+03 -2.99322E+03 -7.58074E+03 -1.22941E+03
 -1.44090E+04 -2.44526E+03 -1.80084E+04 -9.43955E+03 -3.42030E+03 -2.06841E+04  5.87161E+03 -1.62855E+04
  1.54267E+04 -9.58451E+03  1.06692E+04  1.32708E+04  3.53563E+03  2.14786E+03 -7.51222E+03  4.41669E+03
 -2.84071E+03 -6.12606E+03 -2.70158E+03 -1.26554E+04  1.15105E+04 -1.31371E+04  2.10760E+04 -4.72738E+03
  2.43178E+04  2.70034E+03  1.77432E+04  1.58193E+04  5.02091E+03  2.27935E+04 -1.05470E+04  1.78850E+04
 -1.03300E+04  8.21726E+03 -6.04745E+03 -1.26233E+03 -4.02474E+03 -3.41799E+03  1.22747E+04 -1.52575E+03
  7.88438E+03  8.70845E+03  4.85060E+03  1.73468E+04 -1.08765E+04  1.30531E+04 -1.18965E+04 -3.42273E+03
 -1.25040E+04 -8.06516E+03  1.23965E+03 -1.15034E+04  8.00191E+03 -7.68076E+03  6.73091E+03  3.44106E+03
 -3.59976E+02  1.03815E+04 -5.20773E+03  1.27749E+04 -1.37494E+04  4.46983E+03 -1.25907E+04 -9.52939E+03
 -7.34649E+03 -1.52708E+04  6.84412E+01 -1.93891E+04  1.65135E+04 -1.12426E+04  1.70218E+04  4.84189E+03
  1.63867E+04  6.82952E+03 -3.02543E+03  1.13403E+04 -5.74691E+03  2.45596E+03 -1.28824E+04 -4.87153E+03
 -1.45837E+04 -1.12063E+04 -4.56033E+03 -1.54164E+04  6.15305E+03 -7.61229E+03  5.06585E+03 -9.47065E+03
  3.54803E+03  1.09512E+04 -1.73778E+03 -2.56157E+03 -8.92742E+02 -7.35092E+03  5.28287E+03 -2.61295E+03
  3.38632E+03 -2.20155E+03  2.62703E+04 -1.48754E+03  1.89848E+04  1.30097E+04  1.38955E+04  2.41697E+04
 -4.52163E+02  2.97741E+04 -1.64132E+04  2.17641E+04 -2.62025E+04  2.08603E+03 -1.96806E+04 -5.50163E+03
 -3.60215E+03 -1.81455E+04  4.59755E+03 -1.06786E+04  4.94739E+03 -4.40028E+03  1.38478E+04 -9.48118E+03
 -3.65090E+03 -7.67559E+03 -2.72250E+02 -2.97417E+03  6.59780E+03 -4.17069E+03  1.23957E+04 -5.16938E+03
  6.30717E+03  4.11684E+03  3.87695E+03  1.34654E+04 -5.85621E+03  8.93783E+03 -1.15681E+04  9.20921E+03
 -1.48556E+04 -2.88350E+03 -1.06353E+04 -7.62811E+03 -3.33805E+03 -1.72645E+04  1.26534E+04 -1.41277E+04
  1.15709E+04 -1.26032E+04  1.95144E+04 -1.31189E+03  5.42980E+03  1.51685E+04 -9.65161E+02  1.62563E+04
 -3.15290E+03  1.28416E+04 -6.36022E+03  4.04015E+03 -8.76207E+03 -1.41527E+03 -9.05481E+02 -4.78739E+03
 -2.31487E+03 -1.16486E+02 -3.06658E+03 -4.39339E+03 -1.66852E+03  1.45823E+03 -4.47293E+03 -7.26904E+03
 -2.22253E+03 -1.36025E+04 -5.15912E+03 -1.72182E+04  7.62981E+03 -1.17492E+04  2.04946E+04 -4.64559E+03
  7.55393E+03  5.20330E+03  8.23014E+03  1.04880E+04 -1.15596E+04  2.10996E+04 -1.49290E+04  1.11345E+04
 -1.94665E+04 -4.43388E+02 -1.30828E+04 -1.24125E+04 -3.00940E+03 -9.82658E+03  2.62024E+03 -8.39999E+03
  8.89623E+03  9.66757E+01  7.00494E+03  8.51278E+03 -7.74740E+02  5.25048E+03  6.72740E+03 -7.46871E+02
  4.93331E+03  3.10143E+03  4.92871E+03  3.81438E+03  9.89513E+03  4.96433E+03  1.17465E+04  8.87324E+03
 -3.68667E+03  1.58237E+04 -5.44951E+03  9.77767E+03 -7.22234E+03 -5.12325E+03 -1.53202E+04 -1.71934E+03
 -1.06713E+04 -1.05775E+04 -4.73878E+03 -1.63162E+04  5.95656E+03 -8.34094E+03  1.31028E+04  1.79426E+03
 -2.86322E+02  2.10279E+03  6.80320E+03  7.11162E+03 -5.72847E+03  5.67369E+03 -4.68555E+03 -2.65318E+03
 -3.35180E+03 -3.87110E+03  2.14474E+03 -6.47947E+03  1.03847E+04 -4.27231E+03  6.24546E+03  1.37803E+03
  3.82713E+03 -5.68477E+03  2.35867E+03  6.44645E+03 -3.25093E+03 -2.93745E+03  2.15582E+03  4.44432E+03
  1.41498E+03 -9.25753E+03  3.20060E+03  1.07665E+03  3.46960E+03 -1.28487E+03 -3.56135E+03  1.07406E+04
 -7.34214E+03  8.40510E+03  2.74295E+03  3.15580E+03 -9.80124E+03 -9.33905E+03  2.42638E+03 -1.69326E+03
  4.40358E+03 -5.59212E+03  2.16276E+03 -6.72322E+03  8.72057E+02  2.77019E+03 -2.10454E+03  7.62059E+03
 -2.79016E+03  2.24354E+02 -1.16737E+04 -3.11806E+03 -7.80603E+03 -9.92209E+03 -2.21473E+03 -6.15537E+03
  2.62202E+03 -1.00039E+04  1.36081E+04  1.25595E+03  5.20214E+03  7.44205E+03  5.02097E+03 -3.32275E+02
 -8.84095E+02  3.19400E+03 -7.32834E+03 -6.35721E+03  5.89363E+03 -8.81825E+03  8.20971E+03 -5.64821E+03
  1.09666E+04 -2.90372E+02  9.44803E+03  2.97901E+03 -2.44598E+03  8.96928E+03 -5.24570E+03  1.18403E+04
 -1.29393E+04  5.04142E+03 -7.35433E+03 -3.02190E+03 -3.92610E+03 -3.60199E+03 -2.09599E+03 -6.42339E+03
  6.45457E+03 -4.18329E+03  7.71415E+03 -2.29927E+03  5.03150E+03  2.07325E+03 -1.56166E+03  4.67938E+03
 -6.07365E+03  1.17934E+04 -3.85739E+03 -1.25113E+03 -5.17070E+03 -2.94268E+03 -1.69315E+03 -6.64300E+02
  2.85487E+03  7.54616E+03 -5.18772E+03  6.34123E+03 -2.11668E+03  1.24847E+03 -9.12914E+03 -6.31704E+03
 -2.23234E+03 -1.78220E+04  5.21667E+03 -1.18917E+04  2.87856E+03 -1.01062E+04  1.14986E+04 -2.05255E+03
  1.04951E+04 -2.61905E+03  9.36955E+03  5.12998E+03  4.79085E+03  1.12999E+04 -5.22873E+03  5.33528E+03
 -9.61935E+03 -2.71092E+03 -2.07934E+03 -3.98063E+03  4.03548E+03  1.51333E+03 -1.93994E+03  7.69847E+03
  5.32982E+03  2.43714E+03 -5.82186E+03  5.11795E+03 -3.17049E+02 -5.47776E+03  4.23646E+03 -6.33557E+03
  5.47982E+03 -6.15594E+03  9.26525E+03 -4.13780E+03  5.41626E+03  1.06690E+04  5.39573E+03  7.96535E+03
 -9.73381E+02  1.37901E+04 -1.04380E+04  1.40449E+04 -1.11127E+04 -1.80615E+03 -3.26762E+03 -2.81097E+02
 -3.61242E+02 -1.13926E+04 -2.75927E+02 -1.00254E+04  6.03904E+03 -7.28917E+03  6.11733E+03  6.59215E+03
  6.97688E+02  5.08003E+03 -5.32904E+03  2.85640E+03 -1.22242E+03  1.34061E+03 -3.83057E+03 -2.86781E+03
  4.33808E+03 -5.28965E+03  4.35161E+01 -2.03667E+03 -4.52932E+02  3.57697E+03  7.19294E+02  3.73710E+03
 -8.01482E+03  7.03892E+03 -4.19874E+03 -4.21493E+03 -7.28567E+03 -4.14777E+03 -5.85021E+03 -9.81135E+03
  4.15774E+03 -9.24034E+03  5.23041E+03  2.46464E+03  1.02499E+04 -9.15467E+02  2.91125E+03  4.27468E+03
  1.51157E+03  5.06006E+03 -5.65078E+03  4.39830E+03  2.67197E+03  6.34067E+03 -8.61249E+03  5.60374E+02
  4.73923E+03 -3.41607E+03  1.95764E+03  1.34292E+03 -1.36810E+03  3.26545E+03 -3.70066E+03  8.17522E+02
  1.05673E+02 -2.62845E+03 -5.29681E+03 -7.47879E+03  5.74444E+03 -6.04199E+03  6.85576E+03 -4.44259E+03
  1.42779E+03  3.85806E+03  5.76876E+03  7.85781E+03 -3.36208E+02  7.21751E+03 -2.00376E+03  1.43917E+03
