 $NMID ID='MM_0lb_SNR50_15hz_g60_41.RAW', FMTDAT='(8E13.5)'
 TRAMP=1., VOLUME=1. $END
  3.15209E+05 -1.67369E+02  3.38291E+05  2.59470E+05  8.37213E+04  3.38256E+05 -1.35113E+05  2.54167E+05
 -1.90165E+05  8.29563E+04 -1.13924E+05 -3.34507E+04  4.51941E+02 -5.12327E+04  5.49669E+04  7.15047E+02
  3.90443E+04  5.45989E+04 -1.26907E+04  7.54942E+04 -6.07130E+04  6.88276E+04 -8.55557E+04  3.28270E+04
 -8.41730E+04 -1.20615E+04 -5.44458E+04 -5.41856E+04 -1.58751E+04 -7.10078E+04  2.66726E+04 -4.96270E+04
  3.95388E+04  5.59725E+03  1.59354E+04  4.63849E+04 -3.59118E+04  4.91591E+04 -6.88162E+04 -3.24982E+03
 -5.20630E+04 -5.92720E+04 -1.04244E+04 -7.90886E+04  3.24493E+04 -5.38034E+04  4.88126E+04 -1.94966E+04
  4.51278E+04  9.78221E+03  3.10644E+04  2.45930E+04  1.17848E+04  3.28448E+04 -7.92497E+03  2.79668E+04
 -1.68189E+04  1.22980E+04 -1.88875E+04 -7.37975E+03  3.56324E+03 -3.27745E+03  2.60308E+04  1.34835E+04
  6.64365E+03  3.37387E+04 -2.95180E+04  3.49731E+04 -6.19572E+04  4.22936E+03 -6.14033E+04 -4.04352E+04
 -1.54317E+04 -6.24816E+04  3.67226E+04 -4.18912E+04  5.93923E+04 -3.61875E+03  3.67084E+04  3.20481E+04
 -7.48532E+03  3.64661E+04 -3.19556E+04  1.76477E+04 -3.01903E+04 -2.42036E+03 -1.53136E+04 -7.65560E+03
 -1.05866E+04 -1.25147E+04 -3.02048E+03 -2.08911E+04  6.93392E+03 -2.55743E+04  1.58667E+04 -7.53669E+03
  1.45897E+04  7.04343E+03 -5.93005E+03  6.40897E+03 -2.11600E+04 -6.15465E+03 -1.12360E+04 -3.24592E+04
  2.32000E+04 -4.34898E+04  4.65606E+04 -1.74302E+04  4.86005E+04  2.29948E+04  1.79344E+04  4.65679E+04
 -1.53057E+04  3.56621E+04 -3.17405E+04  1.48519E+03 -6.34278E+03 -2.61952E+04  1.82465E+04 -3.46616E+04
  4.40753E+04 -7.71438E+03  3.51540E+04  1.96768E+04  1.92482E+04  4.83798E+04 -9.20315E+03  5.09493E+04
 -3.38064E+04  3.36326E+04 -4.53373E+04  1.67093E+04 -4.54579E+04 -2.13690E+04 -2.76709E+04 -3.55628E+04
  9.35240E+03 -3.39668E+04  3.21219E+04 -1.49701E+04  2.75727E+04  1.45258E+04  7.37566E+03  2.20158E+04
 -1.86751E+04  1.05911E+04 -1.50636E+04 -1.03611E+04  5.68984E+03 -1.46680E+04  1.30508E+04  8.81720E+03
  1.45219E+04  2.25841E+04 -6.10983E+03  2.56562E+04 -2.03951E+04  1.05387E+04 -3.04019E+04 -6.02439E+03
 -1.95667E+04 -1.69035E+04 -1.04405E+04 -2.23321E+04  8.05378E+03 -2.38291E+04  1.67525E+04 -1.64631E+04
  2.72309E+04 -1.19550E+04  3.39782E+04  2.99358E+03  2.70485E+04  2.02904E+04  4.64763E+03  3.74241E+04
 -1.88946E+04  3.34987E+04 -2.83998E+04  9.42085E+03 -1.86013E+04 -6.97232E+03 -4.98713E+03 -1.29653E+04
 -5.84497E+02 -4.00630E+03 -6.17186E+03  3.96547E+03 -1.63073E+04  1.03438E+04 -1.90356E+04 -7.48106E+03
 -9.40889E+03 -1.93810E+04  5.57402E+03 -2.64209E+04  1.65895E+04 -1.66997E+04  1.22030E+04 -3.11648E+03
  1.24348E+04  1.36752E+04 -8.85059E+02  1.82745E+04 -1.58751E+04  6.81822E+03 -2.07675E+04 -7.78980E+03
 -1.49768E+04 -1.29186E+04  2.82858E+03 -2.43937E+04  1.34684E+04 -1.59107E+04  1.65317E+04 -9.51065E+03
  1.96333E+04 -4.58841E+03  1.85593E+04  4.96468E+03  6.64040E+03  3.57181E+03  1.15647E+04 -1.65635E+02
  1.77146E+04  2.96362E+03  1.81906E+04  1.51579E+04  1.37896E+04  3.19666E+04 -4.82715E+03  3.70344E+04
 -1.67313E+04  2.87228E+04 -3.36044E+04  1.43258E+04 -3.13598E+04  1.62908E+03 -2.64327E+04 -1.75686E+04
 -1.71554E+04 -2.97738E+04  9.08847E+03 -2.86682E+04  2.22708E+04 -1.26727E+04  1.86619E+04  3.87009E+03
  4.53301E+03  1.26180E+04 -1.02027E+04  1.50683E+04 -1.40256E+04  1.94618E+02 -1.45139E+04 -8.94658E+03
 -3.08120E+02 -1.99415E+04  7.69463E+03 -1.30553E+04  1.19297E+04 -1.58703E+03 -1.45656E+03  5.05694E+03
 -9.64703E+03  1.80306E+03 -1.10718E+04 -5.41207E+03 -5.80987E+02 -6.21765E+03  1.31435E+04 -1.24570E+04
  1.58596E+04 -7.60917E+03  1.79794E+04  1.81193E+03  1.93318E+04  1.36322E+04  6.29987E+03  2.07776E+04
 -1.10804E+03  2.11879E+04 -1.54338E+04  1.33723E+04 -2.12416E+04  2.91926E+03 -1.33786E+04 -6.76336E+03
 -1.14817E+04 -5.80786E+03 -2.01327E+03  3.31182E+03 -7.68110E+03  4.54751E+03 -6.05556E+03  5.10320E+03
 -1.18025E+04 -1.07534E+02 -9.79136E+03 -6.82034E+03 -1.64602E+03 -1.29376E+04  7.85277E+02 -9.52267E+03
  7.10788E+03 -7.75955E+03  9.07023E+03  3.25982E+03 -4.94606E+03  4.86336E+02 -3.32611E+03  9.35256E+02
 -8.73150E+03 -5.97817E+03 -2.91359E+03 -1.10890E+04  3.89742E+03 -1.20605E+04  1.15576E+04 -1.03631E+04
  2.06158E+04 -9.79792E+02  1.58302E+04  8.98876E+03  1.36061E+03  1.01990E+04 -8.09770E+03  1.02859E+04
 -1.07739E+04  7.30027E+03 -4.60415E+03 -2.96841E+03 -9.26466E+02 -4.64674E+03  7.85342E+03 -4.79373E+03
  3.42571E+03  8.89762E+03  6.11658E+02  6.48867E+03 -6.96336E+03  1.12286E+04 -1.11962E+04  2.69145E+03
 -1.01243E+04 -5.95288E+03  3.56939E+02 -1.44506E+04  2.43886E+03  1.94318E+03  3.90749E+03  5.97424E+03
  2.78271E+03  6.24394E+03 -2.58684E+03  9.81357E+03 -6.01067E+03  7.07122E+03 -8.94102E+03 -3.05744E+03
 -7.75933E+03 -1.12010E+04  2.44458E+03 -1.29903E+04  9.66945E+03 -7.76492E+03  7.21640E+03  2.19007E+03
  1.09472E+04  6.10689E+03 -3.53992E+03  1.08100E+04 -8.15592E+03  6.94510E+03 -6.45112E+03  3.59164E+03
 -6.33377E+03 -8.20389E+03  3.06864E+01 -6.39330E+03  1.61168E+03 -1.03408E+04  7.94937E+03 -4.12146E+03
  1.02432E+04  3.61924E+03  5.03866E+03  6.50149E+02 -4.71273E+03 -5.62376E+03 -3.21592E+03 -1.09080E+04
  2.90295E+03  6.08397E+02  1.09409E+04  2.79679E+03  6.47956E+03  1.09621E+04  5.56419E+03  7.43297E+03
 -6.68432E+03  1.61655E+04 -1.36511E+04  1.19623E+04 -2.11964E+04  4.07855E+03 -1.36522E+04 -5.21918E+03
 -5.56624E+03 -8.26798E+03  1.74238E+03 -6.95162E+03  4.99933E+03 -1.27920E+03  7.69382E+03 -6.55466E+03
  3.18689E+03  4.70235E+02 -5.82257E+01 -3.11202E+03  5.06769E+03 -2.19856E+03  6.61218E+03 -5.38537E+03
  5.75182E+03  3.38773E+02  3.47303E+03  1.01270E+04  1.03172E+03  7.45050E+03 -3.93015E+03  4.25095E+03
 -1.04483E+04 -2.37705E+03 -6.85843E+03 -6.46271E+03 -2.45187E+03 -9.55099E+03  3.37851E+03 -1.05672E+04
  8.98575E+03 -2.95536E+03  7.29820E+03  9.43112E+02  6.60142E+03  3.82585E+03  4.25244E+03  1.42176E+04
 -6.61588E+03  9.42314E+03 -9.27894E+03  5.32593E+03 -5.28715E+03  1.24994E+03  2.33441E+03 -2.15075E+03
 -5.55247E+03  8.49532E+02 -5.69149E+03  2.65087E+03 -3.43008E+03 -9.25126E+02 -6.03073E+03 -6.55351E+02
 -3.60665E+03 -5.67708E+03  1.49905E+03 -1.15200E+04  4.69055E+03 -6.28709E+03  9.60068E+03  2.53239E+02
  9.42470E+03  2.57073E+03  3.13152E+03  9.16960E+03  8.87496E+02  1.11805E+04 -6.43334E+03  4.12089E+03
 -6.84427E+03 -8.35182E+02 -8.54519E+03 -5.57454E+03 -4.25512E+02 -6.74639E+03  2.71072E+03  1.18683E+03
  3.70274E+03 -7.05771E+02  2.46144E+02  1.13566E+03  1.72474E+02  5.57542E+03 -4.92569E+03 -4.40281E+03
  3.31935E+03 -3.09802E+03  5.42503E+03  1.24060E+03  2.58636E+03  3.51129E+03  5.07079E+03  1.96386E+03
 -4.28391E+03  1.92758E+03 -7.22656E+03  2.95628E+03 -8.11934E+03  2.71343E+03 -9.59781E+03 -3.67283E+03
 -1.59975E+03 -1.08871E+04 -2.55499E+03 -1.47800E+04  4.37001E+03 -8.33851E+03  3.86751E+03 -4.31217E+02
  1.57978E+03  6.87199E+03 -2.27740E+03  2.01677E+03  3.11041E+03  4.92646E+03 -1.73191E+03 -5.28382E+02
  8.47797E+02 -4.43906E+03  8.85521E+02  1.71044E+03 -2.07738E+01 -5.02650E+02  4.92323E+03 -7.25796E+03
  1.00289E+03  3.61937E+02 -9.10114E+01  1.12465E+03  7.05858E+02  1.41550E+03 -3.19601E+03 -4.35199E+02
 -1.85948E+03 -4.63944E+03  4.44613E+03  2.05643E+03  4.73957E+02  2.66467E+03  2.33965E+03  3.85108E+03
 -2.37335E+03  3.52356E+03 -1.76821E+03 -4.97851E+02 -7.35119E+03 -2.75728E+02 -4.58818E+03 -2.46030E+03
 -6.65501E+02 -3.39394E+03 -1.62549E+03 -1.24403E+03  3.69443E+03 -3.56714E+02 -5.02105E+03  2.25521E+03
 -5.54984E+03  2.18701E+03 -6.79417E+03 -7.71508E+03 -1.52858E+03 -2.38606E+03  3.81073E+03 -3.11092E+03
  5.08069E+02  3.70163E+03 -2.98671E+03  1.00546E+03  5.53127E+02  5.00030E+03  7.45862E+02  1.24342E+03
 -4.06389E+03  3.76497E+03  6.70142E+01 -1.69421E+03  3.09850E+03 -5.20577E+03  7.19211E+03  4.90236E+02
  4.48952E+03  5.57010E+03  7.28664E+03 -1.06359E+03  1.58746E+03  1.07637E+02 -7.33835E+02  4.29485E+03
 -2.72191E+03 -5.99995E+02 -6.09012E+02 -1.86590E+03 -9.03771E+02  3.47279E+03  2.52754E+02 -2.79019E+03
 -4.27591E+02 -8.32449E+02  2.84394E+03 -3.61468E+02  3.66833E+03  1.05252E+03  3.49932E+02  2.69413E+03
  3.13604E+03 -3.11475E+03 -2.22606E+03  2.59549E+03  4.30551E+03  3.85339E+03 -2.79238E+03  1.45091E+03
 -3.70561E+03  5.34204E+03 -1.09246E+03 -2.24835E+03 -6.53325E+03  4.15544E+02 -2.65265E+03 -2.26595E+03
 -5.63972E+03 -1.98277E+03 -4.25261E+03 -1.48417E+03  2.18923E+03 -6.62577E+03  5.93013E+03 -3.60089E+03
 -7.14989E+02 -2.02268E+03  4.57305E+03  2.26646E+03  3.52927E+02  8.82760E+03 -2.23476E+03  6.21663E+03
  7.48587E+02 -3.25869E+03  1.40540E+03  2.21282E+03  1.96150E+03 -2.79499E+03 -3.26726E+03 -5.62927E+03
 -9.93087E+03 -3.86515E+03  4.77841E+03  2.44467E+03 -8.98998E+02 -5.96870E+02 -1.34321E+03  3.11073E+01
  7.59629E+03  2.19727E+03 -3.45628E+02 -3.25804E+03  2.21024E+03  4.29917E+03  1.66094E+03  3.15127E+03
 -6.43666E+03  2.47102E+03 -5.05445E+03  4.86626E+03 -3.57957E+03 -2.39233E+03 -3.53695E+03  1.66339E+01
  5.68466E+00  9.62599E+01 -1.62684E+03 -9.23109E+01  3.11544E+03 -4.30112E+03  3.39664E+03 -1.21005E+03
 -3.61761E+03  2.50374E+02  2.48936E+03  3.06807E+03 -1.01525E+03  2.54752E+03  7.77969E+02 -2.15059E+03
  6.04752E+03  3.41858E+01 -2.43609E+03 -1.55288E+02  3.27174E+02  2.37709E+03  1.62382E+03  2.59126E+03
 -8.01150E+02  5.74248E+03 -8.33035E+02 -6.77069E+02 -7.70574E+02 -4.43054E+03 -2.21988E+03 -2.28796E+03
  4.71671E+03  2.03344E+03  3.50372E+03 -2.22175E+03  1.26213E+03  2.37516E+03  2.68352E+02 -1.11326E+03
  3.32582E+02  1.52187E+03 -3.55936E+03  2.42005E+03 -2.26447E+03  4.43658E+02 -6.48463E+03 -7.99417E+02
  4.19950E+02 -4.09821E+03 -4.38451E+03  2.06178E+03 -1.73660E+03 -2.14578E+03 -5.42332E+03  6.49501E+01
  1.02618E+03 -2.96507E+03 -1.84645E+02 -3.31159E+03 -1.57768E+02 -4.01191E+03  1.13544E+03 -2.16623E+03
  2.34191E+03  3.37679E+03 -5.60326E+02  8.79771E+02  1.05350E+03 -5.87917E+03  8.13443E+02  2.64805E+03
