 $NMID ID='MM_0lb_SNR50_16hz_g45_82.RAW', FMTDAT='(8E13.5)'
 TRAMP=1., VOLUME=1. $END
  3.10284E+05  2.31929E+03  3.32894E+05  2.53963E+05  8.44462E+04  3.34057E+05 -1.30553E+05  2.53063E+05
 -1.90574E+05  8.59099E+04 -1.08357E+05 -3.77977E+04  2.88403E+03 -4.98530E+04  5.75026E+04  2.21197E+03
  3.63868E+04  5.23422E+04 -1.76087E+04  7.56010E+04 -5.90293E+04  6.72535E+04 -8.54020E+04  2.98446E+04
 -8.16590E+04 -1.11500E+04 -5.24069E+04 -4.54760E+04 -1.70539E+04 -7.00937E+04  2.77100E+04 -4.64509E+04
  4.16677E+04  3.90353E+03  1.60859E+04  4.75152E+04 -3.39465E+04  4.92368E+04 -6.45266E+04 -2.91768E+03
 -5.05243E+04 -5.70730E+04 -2.60577E+03 -7.79597E+04  3.02813E+04 -5.69275E+04  4.79443E+04 -1.73995E+04
  4.50932E+04  8.80211E+03  2.81342E+04  2.52826E+04  1.82288E+04  2.72475E+04 -4.93869E+03  2.56685E+04
 -2.04111E+04  8.22430E+03 -1.64207E+04 -3.47825E+03  3.56008E+03 -7.21146E+03  2.39466E+04  1.15319E+04
  8.89085E+03  3.54704E+04 -3.20613E+04  3.32632E+04 -6.12397E+04 -3.44673E+01 -5.58161E+04 -4.00472E+04
 -1.19046E+04 -5.89418E+04  4.17656E+04 -4.75210E+04  5.66917E+04 -2.21721E+03  3.15108E+04  3.16965E+04
 -5.30199E+03  2.98683E+04 -2.83216E+04  1.61707E+04 -3.40785E+04 -4.44274E+03 -1.17514E+04 -1.06333E+04
 -4.35569E+03 -1.44287E+04 -3.27030E+03 -1.55480E+04  4.29366E+03 -2.40729E+04  1.60517E+04 -1.50825E+04
  1.61966E+04  2.04867E+03 -5.90097E+03  1.30369E+04 -1.77656E+04 -3.98903E+03 -1.08832E+04 -3.11863E+04
  2.52041E+04 -4.36362E+04  4.37756E+04 -1.60580E+04  4.07937E+04  2.22468E+04  2.02264E+04  3.82270E+04
 -1.76165E+04  3.14941E+04 -2.44080E+04  1.78350E+02 -6.24951E+03 -2.97419E+04  1.98232E+04 -3.60320E+04
  3.85960E+04 -7.14858E+03  3.39046E+04  2.14946E+04  1.47060E+04  4.42573E+04 -8.33962E+03  5.08041E+04
 -2.99488E+04  3.23106E+04 -4.27773E+04  6.79414E+03 -3.83234E+04 -1.44973E+04 -2.50895E+04 -3.32073E+04
  9.00052E+03 -3.84288E+04  3.26522E+04 -1.07712E+04  2.50337E+04  1.16983E+04  5.87599E+03  1.85290E+04
 -1.28322E+04  8.21836E+03 -7.24734E+03 -1.00169E+04  1.30756E+03 -1.02535E+04  1.87268E+04  4.10654E+03
  1.11285E+04  2.21123E+04 -8.26077E+03  2.44806E+04 -2.25824E+04  7.96374E+03 -2.46067E+04 -2.98953E+03
 -1.53714E+04 -2.32857E+04 -9.18891E+03 -1.85449E+04  1.50184E+03 -1.86178E+04  1.71596E+04 -1.23828E+04
  2.33034E+04 -8.04654E+03  2.96412E+04  4.11368E+03  2.01612E+04  1.94912E+04  6.68044E+03  3.47386E+04
 -1.73920E+04  3.42049E+04 -2.47992E+04  8.92448E+03 -1.95407E+04 -1.26657E+04 -3.42893E+03 -1.49526E+04
  2.44816E+03 -4.07683E+03 -6.78278E+03  6.17612E+03 -1.89559E+04  3.84217E+03 -1.65481E+04 -1.02466E+04
 -9.48023E+03 -1.68306E+04  2.84792E+03 -2.31844E+04  1.42792E+04 -1.40779E+04  2.11281E+04 -5.17380E+03
  6.09651E+03  1.67006E+04  6.18273E+02  1.70076E+04 -1.42120E+04  6.89147E+03 -1.63630E+04  8.86390E+02
 -1.36293E+04 -1.66825E+04 -3.71513E+03 -1.98480E+04  9.11264E+03 -1.57285E+04  1.54094E+04 -6.89773E+03
  1.17092E+04  2.08706E+03  1.13830E+04  3.16467E+03  4.34802E+03 -1.48722E+03  6.36371E+03 -1.98789E+03
  1.20128E+04 -6.36578E+02  2.01622E+04  1.49181E+04  1.04650E+04  2.80932E+04  1.28117E+02  3.46940E+04
 -1.66259E+04  2.08865E+04 -2.86752E+04  1.16138E+04 -2.40007E+04  2.46926E+03 -2.27824E+04 -1.00447E+04
 -7.58078E+03 -2.24904E+04  8.92796E+03 -2.17191E+04  2.10179E+04 -1.52757E+04  1.46326E+04  6.25328E+02
  9.09454E+03  1.57900E+04 -8.16059E+03  7.88051E+03 -1.89337E+04  4.39085E+03 -1.17654E+04 -8.38229E+03
  7.94663E+01 -1.33032E+04  1.02581E+04 -6.98220E+03  6.05829E+03  1.00554E+03 -2.13971E+03  6.01435E+03
 -2.27353E+03  1.74390E+03 -2.94248E+03 -3.57522E+03  3.53644E+03 -1.07342E+04  1.25100E+04 -1.19420E+04
  1.36501E+04 -5.40386E+03  1.68934E+04 -1.04147E+03  1.24460E+04  7.52279E+03  3.46048E+03  1.67935E+04
  2.64977E+03  2.01139E+04 -1.17423E+04  8.96339E+03 -1.24199E+04  1.30562E+03 -1.20938E+04 -2.46653E+02
 -4.86337E+03 -2.81879E+03  1.77438E+03  4.61274E+03 -1.28359E+03  4.48837E+03 -2.81704E+03  6.12615E+03
 -7.21814E+03 -1.31774E+02 -1.32018E+04 -7.79644E+03 -4.00697E+03 -1.17603E+04  4.44623E+03 -4.57619E+03
  1.00004E+04 -1.44281E+03  7.28985E+03  1.36651E+03  1.22233E+01  1.60550E+03 -2.80811E+03  1.72824E+02
 -6.01781E+03 -1.05200E+04 -3.36297E+03 -9.99074E+03  3.81849E+03 -9.37353E+03  8.78206E+03 -4.07626E+03
  1.05850E+04  1.84155E+03  1.32097E+04  9.96547E+03  3.87223E+03  1.40810E+04 -9.55222E+03  9.18036E+03
 -8.02262E+03  2.00416E+03 -5.27107E+03  6.83268E+02  2.18749E+03 -1.38449E+03  2.11718E+03 -2.66563E+03
  7.26812E+03  3.63220E+03  4.42094E+02  4.83029E+03 -5.10948E+03  4.46926E+03 -9.04890E+03  5.56120E+02
 -7.47295E+03 -2.57966E+03 -1.82437E+03 -8.82049E+03  4.62302E+03 -7.20513E+03  3.72937E+03  1.75034E+03
  4.82841E+03  5.97618E+03 -3.10656E+03  7.80854E+03 -1.15579E+04  8.47436E+02 -7.96256E+03  1.19111E+02
 -1.01431E+03 -6.63716E+03  4.52271E+03 -9.38201E+03  6.75200E+03 -7.25093E+03  7.78688E+03 -1.85211E+03
  7.28447E+03  7.86166E+03 -3.16558E+03  8.93179E+03 -8.44732E+03  9.72056E+03 -4.20017E+03 -2.89657E+03
 -6.28620E+03 -5.94520E+03 -1.20505E+03 -6.82460E+03  6.11814E+03 -3.46276E+03  5.59098E+03  2.02512E+03
  2.60165E+03  5.58521E+03 -3.82045E+03  1.10915E+03  5.72845E+02  1.84285E+03 -6.75645E+03 -3.98469E+03
  6.77811E+03 -2.02106E+03  3.93051E+03  1.81706E+03  6.55251E+03  1.37219E+03  8.84346E+03  1.16440E+04
 -4.04006E+03  6.04401E+03 -1.03829E+04  1.19582E+04 -1.53909E+04  6.30728E+03 -8.02958E+03 -3.86758E+03
 -3.54248E+03 -8.62427E+03 -2.58944E+03 -4.02733E+03  5.27164E+03 -4.20784E+03 -8.86307E+02 -4.32219E+03
  4.76212E+03 -3.36355E+03  2.26340E+01 -3.28777E+03  3.42719E+03 -3.48809E+03  6.04648E+03  8.87911E+02
  3.14786E+03  3.14217E+03  6.97777E+03  7.54083E+03 -1.48519E+03  1.60784E+03 -4.22139E+03  5.44668E+03
 -7.48597E+03 -2.39346E+03 -5.11242E+03 -1.08789E+03  4.51453E+03 -7.84136E+03  4.41192E+03 -5.70926E+03
  3.47800E+03 -1.69619E+03  9.83455E+03  1.70350E+03  5.08681E+03  6.91248E+03  2.47915E+03  6.65446E+03
 -2.38665E+03  4.51879E+03 -8.88297E+03  4.24954E+03  1.36803E+03 -1.34843E+03 -3.30063E+03 -7.22266E+02
  1.22670E+03  4.41855E+02 -1.29397E+03 -7.24748E+02 -5.43369E+03  3.20549E+03 -6.66280E+03  4.00748E+03
 -1.49234E+03 -5.59855E+03  1.17335E+03 -7.17644E+03 -1.88518E+02 -8.59879E+03  2.85975E+03 -3.27539E+03
  6.61057E+03  2.41051E+03  1.87187E+03  3.96156E+03 -3.74221E+02  6.01362E+03 -8.29466E+03  5.66914E+03
 -6.19957E+03  5.91131E+03 -9.00811E+03 -1.49376E+03 -5.94679E+02 -5.55876E+03  2.94826E+03 -4.28679E+03
  2.16486E+03 -4.67421E+03 -9.27103E+02 -3.48525E+03 -1.10426E+03  3.11487E+03  1.49790E+03 -4.49576E+03
 -1.04881E+03 -3.85680E+03 -1.48236E+02  2.27947E+03  1.07920E+02  9.27921E+03 -5.38284E+02  2.94492E+03
 -1.21942E+03  5.70083E+03 -6.48577E+03  9.35912E+02  9.92680E+02  2.57528E+03 -6.17687E+03 -4.84934E+03
 -2.53387E+03 -3.13065E+03  3.71818E+02 -3.37863E+03  1.49817E+03 -5.23384E+03  4.69092E+03  6.92363E+02
  1.05572E+03  7.63337E+02 -5.86515E+01  6.52656E+02 -4.42432E+03  3.93013E+03 -7.54615E+02  6.20190E+02
  1.17292E+03  1.71653E+03  5.09650E+03 -7.12145E+02 -9.86332E+02 -1.70660E+03  5.75583E+03  3.81409E+03
  4.33935E+03  2.17948E+03  1.83464E+03 -1.28538E+03 -2.67698E+03  1.19688E+03  1.71131E+03  3.28982E+03
  9.43206E+02 -1.83027E+03  2.48573E+03  1.97567E+02  1.49950E+03  2.74651E+03  4.00534E+02  8.76997E+03
 -1.41233E+03  2.05787E+03 -5.22234E+02  1.09931E+03 -6.91326E+03  1.27617E+03 -2.57279E+03 -1.73090E+02
  8.53797E+02 -3.10157E+03  9.42262E+02 -3.95037E+03  3.12219E+02  4.58390E+02 -1.55594E+03 -1.41834E+03
 -4.78275E+03  1.55199E+03 -3.49756E+03  5.44729E+02  1.25733E+03 -9.58637E+02  2.44041E+02  7.85680E+02
  3.37341E+03  2.18882E+03 -1.77259E+03  5.54610E+02  3.30956E+03  5.03863E+03  3.01497E+03  6.93964E+02
 -3.96922E+01 -1.06292E+03  1.47831E+03  1.29976E+03  2.86017E+03 -1.79192E+03  7.42110E+03 -2.63874E+03
 -1.94332E+03 -8.96697E+02  1.29530E+03 -5.96174E+02  2.88979E+03  2.83960E+03 -3.15774E+03  4.22020E+03
 -5.08298E+03  3.09295E+03  1.98020E+02 -2.71834E+03 -1.62510E+03  7.73959E+02 -1.27305E+03 -1.60947E+03
  2.84588E+02 -2.44207E+03  4.68853E+03  3.54342E+03  2.11482E+03  3.77530E+02 -2.90996E+03 -1.24911E+03
 -2.04743E+02 -3.16733E+03 -2.47323E+03  4.52654E+03  3.87515E+03  9.54072E+02  2.54579E+03  6.11482E+03
 -1.49478E+03  7.64310E+02 -7.37932E+03 -3.40913E+03 -8.30561E+02 -6.60323E+03 -7.19670E+02 -9.52800E+02
 -4.14055E+03 -4.05790E+03 -1.82950E+03 -5.23548E+03  2.44704E+03 -5.01685E+03  3.62291E+03 -1.63453E+03
  3.62170E+03  7.41463E+01  2.18221E+03 -7.69736E+02  1.09176E+03  7.48080E+03  1.89720E+03 -3.21020E+02
 -1.99248E+03 -2.85938E+03 -9.82188E+02 -3.32219E+03 -1.28930E+03 -3.41025E+03  9.13863E+02 -1.13275E+03
 -2.75954E+03  2.99244E+03 -2.26076E+03  1.96193E+02 -3.18389E+03 -2.04195E+03 -1.26431E+03 -1.88541E+03
  3.20451E+03  1.19170E+03  2.00791E+03 -7.08504E+01  1.73765E+03  5.55174E+03 -1.62035E+03  4.99766E+03
 -7.24845E+02  1.48307E+03 -1.58524E+03 -3.98804E+03 -5.19216E+03  2.42922E+03 -3.01045E+03 -3.86491E+03
  5.84846E+02 -2.00346E+03  7.32012E+02 -4.54766E+03  5.11202E+03 -2.75770E+03  4.07898E+03  1.32887E+03
  1.34281E+03  2.64827E+03 -1.70111E+03  2.72388E+03 -2.48672E+03 -1.65517E+03  6.57208E+02 -1.60002E+03
 -9.72701E+02  4.80378E+03 -2.06592E+03  5.98403E+03 -2.09887E+03 -5.90584E+02  2.64912E+02  2.32277E+03
  6.33987E+02  1.65386E+03  3.54320E+03 -4.44981E+03  9.79494E+02 -5.25924E+03  8.43267E+02 -5.35827E+03
 -4.99720E+02  3.33514E+02  4.55565E+03 -1.93678E+02 -1.07784E+03 -1.65202E+03  3.35489E+02  5.61461E+03
  9.08822E+02  2.90160E+03  1.80798E+03  1.99738E+02 -1.90977E+03  4.39537E+03 -1.49576E+03 -5.06170E+02
  3.11022E+02  3.89365E+03 -4.46329E+03  1.59738E+03 -5.28117E+03 -3.15743E+02  9.53362E+02 -2.73242E+03
 -4.09505E+03 -2.07138E+03 -3.11742E+02 -3.38747E+03  1.85802E+03  8.88768E+02  2.33077E+03  1.14676E+03
 -8.30856E+01 -1.22526E+03  1.42267E+03  5.10006E+03 -3.06946E+02 -1.95130E+03 -2.85617E+03  1.06766E+03
