 $NMID ID='MM_0lb_SNR50_7hz_g60_43.RAW', FMTDAT='(8E13.5)'
 TRAMP=1., VOLUME=1. $END
  3.19869E+05  9.16531E+03  3.39273E+05  2.50583E+05  8.53900E+04  3.42740E+05 -1.30643E+05  2.54534E+05
 -1.95323E+05  8.38080E+04 -1.13284E+05 -3.38723E+04  2.97272E+03 -4.99982E+04  5.25824E+04  9.35496E+02
  3.71360E+04  5.71191E+04 -1.43478E+04  8.30009E+04 -6.49349E+04  5.56040E+04 -8.25225E+04  3.71603E+04
 -8.59038E+04 -1.50184E+04 -5.66886E+04 -5.06363E+04 -1.05273E+04 -7.86694E+04  2.48317E+04 -4.94951E+04
  4.11356E+04  5.55860E+03  1.44603E+04  4.34880E+04 -3.53817E+04  5.20247E+04 -7.21454E+04  4.42198E+03
 -5.35964E+04 -6.46934E+04 -1.96118E+03 -7.85036E+04  3.18658E+04 -6.61169E+04  5.76970E+04 -1.68397E+04
  4.51225E+04  6.56072E+03  3.45382E+04  2.30905E+04  1.71070E+04  2.49106E+04  1.44063E+03  3.23452E+04
 -2.74435E+04  1.46132E+04 -2.30272E+04 -5.40009E+02  6.06108E+03 -1.12642E+04  2.74784E+04  1.68216E+04
  7.72390E+03  3.64674E+04 -3.54687E+04  4.03505E+04 -6.93174E+04  1.26521E+03 -5.58326E+04 -4.45888E+04
 -1.44495E+04 -6.58790E+04  4.57192E+04 -5.18479E+04  6.41596E+04 -2.12567E+03  4.21720E+04  3.86746E+04
 -5.94899E+03  3.83712E+04 -3.18964E+04  2.15820E+04 -3.05835E+04 -1.19040E+04 -2.19518E+04 -1.62649E+04
 -1.31228E+04 -1.53292E+04 -2.75584E+03 -2.20765E+04  1.18384E+04 -2.49690E+04  2.06160E+04 -1.41864E+04
  7.09644E+03  3.46099E+03 -1.98915E+04  1.69303E+04 -2.46840E+04 -1.25655E+04 -1.38695E+04 -4.41808E+04
  2.10746E+04 -4.51341E+04  5.32266E+04 -2.12296E+04  5.14546E+04  2.64746E+04  1.49115E+04  5.04729E+04
 -1.36898E+04  3.44527E+04 -2.59481E+04  4.94785E+02 -1.38356E+04 -2.71370E+04  2.25105E+04 -3.68884E+04
  4.31800E+04 -2.01824E+04  4.54618E+04  2.63204E+04  2.25844E+04  5.64380E+04 -1.33950E+04  5.84583E+04
 -3.65590E+04  3.86479E+04 -4.81507E+04  1.33053E+04 -5.28357E+04 -1.35962E+04 -2.75623E+04 -4.15938E+04
  1.06917E+04 -3.94496E+04  3.50569E+04 -1.60701E+04  3.66125E+04  1.62171E+04  9.46261E+03  2.60957E+04
 -1.19071E+04  3.52820E+03 -7.42888E+03 -5.71373E+03  3.03879E+03 -1.35320E+04  1.41393E+04  4.46114E+03
  1.80505E+04  3.10868E+04 -7.64531E+02  2.77501E+04 -2.20252E+04  1.77857E+04 -2.49673E+04 -5.83539E+03
 -2.86922E+04 -2.20669E+04 -1.22981E+04 -2.45770E+04  3.37634E+03 -3.17381E+04  2.62913E+04 -3.90494E+04
  3.75299E+04 -1.40697E+04  4.33968E+04  7.07283E+03  3.39143E+04  2.04775E+04 -5.63913E+02  4.12313E+04
 -2.28987E+04  4.03911E+04 -3.16440E+04  1.19278E+04 -2.00343E+04 -9.16383E+03 -4.26655E+03 -2.01595E+04
  3.92178E+03 -9.11683E+02 -1.00747E+04  4.14727E+03 -2.60204E+04  1.38951E+03 -2.11433E+04 -1.22228E+04
 -9.28836E+03 -2.75596E+04  8.66508E+03 -1.78908E+04  2.29350E+04 -2.79130E+04  2.31147E+04 -4.15580E+03
  1.53397E+04  1.31783E+04 -1.64464E+03  2.95023E+04 -2.41875E+04  1.49201E+04 -2.95915E+04 -5.75121E+00
 -2.69382E+04 -2.35663E+04 -1.88842E+03 -2.71448E+04  1.70002E+04 -2.41287E+04  3.00179E+04 -1.44390E+04
  3.05935E+04  1.08129E+03  1.66356E+04  1.76187E+03  7.12262E+03  1.72658E+03  2.29960E+04 -5.48873E+03
  2.70688E+04  2.66282E+03  3.49340E+04  2.31008E+04  1.97994E+04  5.02374E+04 -2.70967E+02  5.04414E+04
 -2.99282E+04  3.68198E+04 -4.96651E+04  2.56092E+04 -5.19747E+04 -8.95598E+03 -4.51958E+04 -3.52192E+04
 -1.34213E+04 -3.46045E+04  1.42132E+04 -3.33299E+04  3.24284E+04 -1.94639E+04  2.78442E+04  2.10833E+03
  1.37732E+04  2.26918E+04 -1.30647E+04  1.83509E+04 -2.53436E+04 -4.10110E+03 -1.89853E+04 -1.02008E+04
  8.40138E+03 -1.94226E+04  1.60524E+04 -1.06183E+04  1.37733E+04 -6.05460E+03  3.02744E+03  7.39191E+03
 -1.14110E+04  7.26225E+03 -1.30209E+04 -6.73148E+03 -1.12484E+03 -1.54121E+04  1.36510E+04 -2.33313E+04
  2.95013E+04 -1.53196E+04  4.12804E+04  6.10911E+03  1.77957E+04  2.56413E+04  5.68850E+03  3.64406E+04
 -1.23177E+04  3.68791E+04 -2.13206E+04  2.24766E+04 -2.14863E+04  7.03714E+03 -1.54907E+04 -7.93648E+03
 -1.40438E+04 -4.29687E+03  8.42024E+03 -1.38662E+04 -7.93517E+03  7.83966E+03 -1.02270E+04  7.31461E+03
 -1.98494E+04 -8.06911E+03 -1.70467E+04 -1.71073E+04 -4.43836E+03 -1.73201E+04  6.42913E+03 -1.95908E+04
  1.87671E+04 -1.31255E+04  5.53491E+03  8.71575E+03 -5.88929E+03  1.01141E+04 -9.97427E+03 -2.50747E+03
 -7.08108E+03 -1.34319E+04 -1.01621E+03 -1.63863E+04  1.09887E+04 -1.04195E+04  1.96863E+04 -1.49164E+04
  3.06256E+04  1.61813E+03  2.18743E+04  1.46182E+04  5.18908E+03  2.50774E+04 -1.33656E+04  1.66070E+04
 -1.13711E+04  8.28368E+03 -6.21670E+03 -6.24120E+03 -1.79070E+03 -6.08001E+03  8.74127E+03 -1.36093E+02
  1.30980E+04  1.23989E+04 -5.75506E+03  1.31581E+04 -7.39338E+03  6.50787E+03 -1.13875E+04  1.21396E+04
 -1.17534E+04 -1.35692E+04  4.17424E+03 -9.08814E+03  4.84453E+03 -9.05866E+03  1.23988E+04  7.92858E+03
  1.75530E+03  1.35102E+04 -1.08180E+04  1.35434E+04 -1.68232E+04  1.20787E+04 -1.57280E+04 -1.31455E+04
 -7.14271E+03 -2.76273E+04  9.30004E+03 -1.69377E+04  2.32146E+04 -1.05465E+04  2.42636E+04 -2.44034E+03
  9.42933E+03  1.64153E+04  5.47823E+03  2.38816E+04 -1.00494E+04  1.66577E+04 -1.53233E+04 -4.94191E+02
 -1.68547E+04 -1.26727E+04 -3.58799E+03 -1.41426E+04  5.18508E+03 -1.18040E+04  7.14782E+03 -3.16266E+03
  1.92099E+03  3.71570E+02 -3.79560E+03  4.31394E+03 -3.87724E+03 -2.48237E+03  1.22602E+02 -1.29754E+04
  5.84720E+03 -1.21128E+04  2.12714E+04  5.31638E+03  1.56179E+04  1.26839E+04  9.41023E+03  2.30440E+04
 -9.61287E+03  3.11702E+04 -3.66464E+04  1.68958E+04 -3.50268E+04  4.73229E+03 -2.39911E+04 -1.18628E+04
 -1.13699E+04 -1.21723E+04 -2.62275E+03 -1.40143E+04  8.62131E+03 -1.19521E+04  1.19620E+04 -6.75205E+03
  5.22259E+02  6.32313E+03  1.26703E+03 -2.38432E+03  1.54218E+04  1.50053E+02  1.02923E+04  2.02978E+03
  8.53188E+03  5.98334E+03  1.15069E+04  9.42106E+03 -9.40316E+03  1.28481E+04 -1.42607E+04  7.32051E+03
 -2.87938E+04  1.50852E+03 -1.84922E+04 -1.17541E+04 -7.37677E+03 -1.48473E+04  1.49727E+04 -2.60211E+04
  1.49576E+04 -1.23262E+04  2.31766E+04  4.81952E+03  1.19641E+04  1.82042E+04 -5.13044E+02  1.99715E+04
 -1.29338E+04  1.60199E+04 -9.24438E+03  5.99899E+03 -1.66919E+04 -1.13406E+03 -7.98340E+03  4.79607E+02
  1.15392E+03  5.43888E+02 -2.18948E+03  3.55482E+03 -2.08189E+03 -2.83978E+03 -1.42745E+04  7.35325E+02
 -1.56398E+04 -1.71018E+04  1.67471E+03 -1.88829E+04  9.12211E+03 -2.43293E+04  2.09999E+04 -3.45407E+03
  1.79308E+04  1.20469E+04  3.08047E+03  1.52392E+04 -7.55392E+03  2.08773E+04 -1.85059E+04  1.99634E+04
 -1.94387E+04  2.18718E+03 -1.07546E+04 -1.15129E+04  2.97231E+03 -2.07145E+04 -2.28432E+03 -5.18335E+03
  1.89352E+04 -3.59413E+03  1.69771E+04  7.18105E+03  3.61918E+03  5.43178E+03 -8.53697E+03  7.91106E+03
  3.23907E+03  1.99704E+02  2.63996E+03 -2.63753E+03  1.10803E+04  1.12172E+03  2.86077E+03  1.15453E+04
 -6.38303E+03  1.94563E+04 -1.11003E+04  1.78172E+04 -2.21761E+04  1.01120E+04 -1.83260E+04 -4.19530E+03
 -5.93572E+03 -2.89635E+04  3.45216E+03 -1.38576E+04  1.41305E+04 -1.93894E+04  2.07647E+04 -2.93665E+03
  1.70474E+04  3.03771E+03  1.59785E+03  1.17833E+04 -6.70195E+03  8.11780E+03 -1.23413E+04  1.24285E+03
 -5.67443E+03 -7.91078E+03  7.10011E+03 -1.11869E+04  8.67295E+03 -2.98925E+03  5.71605E+03  7.38082E+03
  3.51794E+03  3.57374E+03 -8.74418E+03 -1.39609E+03 -5.25444E+03  5.52092E+03 -2.18099E+03 -7.64630E+03
  7.20009E+03 -5.23820E+03  1.34458E+04  1.02211E+03  1.21768E+04  1.43727E+04 -9.55952E+03  1.92427E+04
 -1.64693E+04  1.55786E+04 -1.71801E+04 -4.78417E+03 -9.65483E+03 -2.71960E+03 -7.18264E+03 -9.16557E+03
  2.63508E+03 -4.60498E+03  1.80869E+04 -1.04096E+04  2.05762E+03  8.39083E+03  3.91830E+02  9.61884E+03
 -1.29810E+04 -8.71680E+02 -1.16616E+04 -3.83313E+03 -2.81125E+03 -1.57756E+04 -3.65152E+03 -1.28315E+04
  6.93709E+03 -9.90995E+03  7.54809E+03  3.19060E+03  8.10594E+03  8.65245E+03 -7.08045E+03 -1.79750E+03
 -5.10847E+03  1.09585E+03  6.79267E+02 -9.96576E+03  2.60843E+03 -1.00392E+04  8.12953E+03 -3.62126E+03
  1.17606E+04  4.81956E+03  2.54843E+03  9.87665E+03  3.25600E+03  2.48824E+04 -1.33188E+04  2.13602E+04
 -6.37510E+03  1.31564E+04 -5.81237E+03 -7.81516E+03 -1.01291E+04 -4.34369E+03 -2.44927E+03 -1.13920E+04
  1.60732E+04 -3.04493E+00  1.45784E+04  2.92362E+03  6.16796E+03  1.12062E+04  4.68899E+03  5.80801E+03
 -7.69013E+03 -2.28262E+03 -3.92474E+03 -2.90906E+03 -8.09115E+03  7.75218E+02 -1.09453E+04  1.49219E+03
 -3.70224E+02  4.66132E+03 -1.73448E+04  1.73602E+03 -1.23379E+04  2.23443E+03 -2.24155E+04 -4.63365E+03
 -1.27093E+04 -1.87874E+04  5.50308E+03 -2.45212E+04  1.52759E+04 -1.18704E+04  2.53995E+04 -6.12183E+03
  2.33402E+04  6.88953E+03  5.37780E+03  1.49112E+04  4.83692E+03  1.29437E+04 -2.31441E+03  1.38734E+04
 -1.53147E+04 -1.10202E+02 -5.75691E+02 -6.27038E+03  1.07367E+04 -2.66748E+03  1.64925E+03  3.55655E+03
 -2.71213E+03 -3.49955E+03 -9.89985E+03 -4.19744E+03  8.45855E+03 -2.88555E+03 -6.00144E+03 -7.02760E+03
  8.07417E+03  1.51274E+03  7.36720E+03  2.89148E+03  7.34717E+03  1.00271E+04 -4.13963E+03  1.55289E+04
 -8.55996E+03  1.61115E+04 -1.28526E+04  7.95599E+03 -1.70845E+04 -1.15397E+04 -1.52348E+04 -1.29517E+04
 -6.34546E+03 -2.26287E+04  1.08806E+03 -1.51515E+04  1.90997E+04 -9.30912E+03  1.12415E+04 -1.01402E+03
  1.56646E+04 -4.23721E+02  3.25303E+02  7.57653E+03 -6.20345E+03  1.93912E+03  2.42577E+03 -2.31277E+03
  1.61653E+03 -4.32301E+03  1.15004E+04  2.52360E+03  4.00067E+03  1.02022E+04  5.52385E+03  1.21052E+04
 -1.09850E+04  6.64862E+03 -6.33322E+03  1.10148E+03 -1.44753E+04 -1.34431E+04 -4.22061E+03 -1.61342E+04
 -1.03966E+03 -1.25311E+04  9.94302E+03 -7.08185E+03  1.22161E+04 -4.64209E+03  1.16048E+04  8.81908E+03
  1.09787E+03  9.98745E+03 -9.08546E+03  7.14497E+03 -8.04295E+03  1.10099E+04 -4.02298E+03  6.49151E+03
 -6.40235E+03 -3.27708E+03 -2.82195E+03  1.87717E+03 -3.98718E+03 -1.41191E+03 -7.85944E+03 -1.05303E+03
 -7.20554E+03 -1.33131E+04  4.77068E+03 -1.20064E+04  4.91493E+03 -1.09830E+04  9.94311E+03 -6.53974E+03
  9.80508E+03  3.61606E+03  1.28894E+04  6.38565E+03 -6.83272E+03  1.28265E+04 -4.22747E+03  7.61480E+03
