 $NMID ID='MM_0lb_SNR50_14hz_g55_84.RAW', FMTDAT='(8E13.5)'
 TRAMP=1., VOLUME=1. $END
  3.09383E+05  2.55117E+03  3.43160E+05  2.51572E+05  8.60411E+04  3.37203E+05 -1.33487E+05  2.50052E+05
 -1.89561E+05  7.65724E+04 -1.09998E+05 -3.86453E+04  3.82884E+03 -4.59004E+04  5.21842E+04 -8.03302E+03
  3.34500E+04  5.20194E+04 -1.70139E+04  7.68550E+04 -5.98202E+04  6.31759E+04 -8.27449E+04  3.24534E+04
 -8.16618E+04 -1.45719E+04 -5.71585E+04 -4.86692E+04 -1.43698E+04 -7.29865E+04  2.90881E+04 -4.81250E+04
  4.40733E+04  1.55204E+03  1.81841E+04  4.68653E+04 -3.22658E+04  4.58879E+04 -6.69249E+04  2.83103E+03
 -5.74381E+04 -6.08431E+04 -5.87457E+03 -7.45281E+04  3.56980E+04 -5.21084E+04  4.90301E+04 -2.03019E+04
  4.80618E+04  1.07796E+04  3.46803E+04  2.46885E+04  1.47125E+04  3.03985E+04 -7.98313E+03  2.89807E+04
 -2.61962E+04  1.32298E+04 -1.60109E+04 -1.20644E+03  2.94554E+03 -1.09358E+04  2.00895E+04  1.68267E+04
  8.56300E+03  3.68395E+04 -2.95681E+04  3.75019E+04 -6.66520E+04  3.86019E+03 -5.24429E+04 -3.73268E+04
 -1.60489E+04 -6.12904E+04  4.25200E+04 -4.38037E+04  6.34989E+04 -1.48871E+03  3.51106E+04  3.35739E+04
 -6.72527E+03  3.53719E+04 -3.07719E+04  1.59267E+04 -3.35394E+04 -6.28031E+03 -1.94906E+04 -8.87371E+03
 -5.82305E+03 -1.56590E+04 -6.38181E+02 -1.77093E+04  6.33668E+03 -2.78133E+04  1.82516E+04 -1.76906E+04
  1.42781E+04  9.16127E+03 -9.61143E+03  1.78565E+04 -2.47913E+04 -4.23123E+03 -3.57523E+03 -3.49912E+04
  1.84922E+04 -4.43500E+04  5.18406E+04 -1.81022E+04  4.17838E+04  2.34406E+04  1.79036E+04  3.95718E+04
 -1.84585E+04  3.49425E+04 -2.62893E+04  4.60063E+03 -7.57133E+03 -2.60476E+04  1.72699E+04 -3.19334E+04
  4.22428E+04 -9.92639E+03  3.76753E+04  2.36783E+04  1.65580E+04  4.69358E+04 -8.26803E+03  5.02243E+04
 -3.25685E+04  3.56419E+04 -4.35475E+04  1.39224E+04 -4.54066E+04 -1.76244E+04 -3.00332E+04 -3.65707E+04
  1.96822E+03 -3.97111E+04  3.09492E+04 -1.53948E+04  2.79531E+04  1.06033E+04  4.29065E+03  1.90855E+04
 -1.22879E+04  7.06058E+03 -2.08057E+04 -1.17167E+04  8.65764E+03 -1.13499E+04  1.54293E+04  6.44802E+03
  1.44861E+04  1.75688E+04 -4.92379E+03  2.56785E+04 -2.52173E+04  8.75513E+03 -2.58536E+04 -3.66327E+03
 -2.12580E+04 -1.97666E+04 -9.32158E+03 -2.22443E+04  3.90952E+03 -1.81682E+04  1.57653E+04 -1.91401E+04
  3.15619E+04 -1.40297E+04  2.98268E+04 -2.03682E+03  2.42685E+04  1.96388E+04  4.47553E+03  3.65645E+04
 -1.63144E+04  3.04787E+04 -2.94339E+04  1.57928E+04 -2.41427E+04 -1.40681E+04 -1.53564E+03 -1.22179E+04
  5.47137E+02 -5.63561E+02 -4.24783E+03  6.77352E+03 -1.59833E+04  1.74294E+03 -1.41351E+04 -4.36335E+03
 -9.83091E+03 -2.19240E+04  9.15797E+03 -2.24554E+04  1.82145E+04 -1.76070E+04  2.13231E+04 -5.46728E+03
  1.15271E+04  8.32156E+03  2.16413E+02  1.97625E+04 -1.31998E+04  1.12525E+04 -1.90801E+04 -2.51432E+03
 -1.19808E+04 -1.39600E+04 -6.86082E+02 -2.61477E+04  1.31907E+04 -2.42883E+04  1.65806E+04 -1.03234E+04
  1.76852E+04  1.58211E+03  1.26265E+04  2.44165E+03  9.16498E+03 -4.73649E+02  4.74128E+03 -1.39842E+03
  1.89725E+04 -1.08333E+02  2.62808E+04  1.60408E+04  1.50351E+04  3.53072E+04 -2.34387E+03  3.49731E+04
 -1.84498E+04  2.80222E+04 -3.20180E+04  1.24455E+04 -3.12302E+04 -4.29804E+03 -3.04474E+04 -2.38895E+04
 -1.03227E+04 -3.66919E+04  1.42681E+04 -2.69908E+04  2.00737E+04 -1.51999E+04  2.31268E+04  1.04239E+04
  9.68501E+03  1.79264E+04 -1.05213E+04  1.01584E+04 -1.89514E+04  4.10445E+03 -1.20049E+04 -1.24276E+04
  1.25161E+02 -1.57921E+04  9.43772E+03 -1.62748E+04  1.10761E+04 -3.90453E+03  2.15989E+03  1.02928E+04
 -4.84775E+03  1.01077E+02 -6.87555E+03 -1.51274E+03  1.25155E+03 -1.42150E+04  8.78431E+03 -1.94521E+04
  1.65580E+04 -3.50300E+03  1.79007E+04  1.06762E+03  1.67645E+04  1.35435E+04  8.05982E+03  2.13497E+04
 -4.95847E+03  1.74792E+04 -1.04823E+04  1.40056E+04 -1.83383E+04  2.53831E+03 -9.58880E+03 -6.15952E+03
 -3.65164E+03  7.67371E+02 -3.36314E+02 -1.47236E+03 -2.23077E+03 -3.42383E+02 -6.69325E+03  5.24709E+03
 -1.21810E+04  7.87222E+02 -1.76417E+04 -9.29240E+03 -2.89319E+03 -1.99764E+04  4.59119E+03 -1.02416E+04
  8.34987E+03 -5.29595E+03  8.22716E+03  7.95410E+03 -2.54520E+02  2.47985E+03 -7.12811E+03 -1.02045E+03
 -1.67481E+03 -9.90022E+03 -1.77961E+03 -1.15014E+04  8.59404E+03 -8.52902E+03  1.02679E+04 -6.26231E+03
  1.59650E+04 -5.81089E+02  1.37311E+04  1.11260E+04 -2.48134E+03  1.46613E+04 -9.02258E+03  7.89008E+03
 -1.24813E+04  1.69665E+03 -1.73623E+03  6.10086E+02 -4.66225E+02 -4.40247E+03  6.70264E+03 -3.55137E+03
  5.27621E+03  5.12261E+03  9.88258E+02  1.12813E+04 -8.51678E+03  9.06743E+03 -1.15949E+04  3.01924E+03
 -7.93644E+03 -5.60863E+03  3.11351E+02 -6.20593E+03  4.42283E+03 -6.34264E+03  6.83095E+03  1.40094E+03
  3.31034E+03  1.01853E+04 -7.64059E+03  6.21580E+03 -1.07779E+04  3.57124E+03 -8.41778E+03  8.84329E+02
 -6.33582E+03 -9.45157E+03  1.83056E+03 -1.01097E+04  1.48969E+04 -6.56417E+03  7.29057E+03 -1.91212E+03
  2.94795E+03  7.29069E+03 -3.00250E+02  1.32996E+04 -4.96133E+03  9.90143E+03 -1.21023E+04 -4.35739E+03
 -1.02034E+04 -7.40983E+03 -6.42900E+03 -1.12955E+04  3.15240E+03 -9.34434E+03  7.06978E+03 -1.09689E+04
  1.18693E+03  2.85746E+03  1.95153E+03 -4.09838E+02  4.27402E+03 -2.88591E+03  6.50143E+03 -2.88810E+03
  2.12755E+03 -4.27794E+03  7.09311E+03 -1.77509E+03  6.44741E+03  6.38480E+03  1.08810E+04  1.16468E+04
  1.35986E+03  1.57077E+04 -1.11184E+04  1.30186E+04 -1.85738E+04  2.48110E+03 -1.01973E+04 -2.56755E+03
 -9.56493E+02 -6.51015E+03 -1.78886E+03 -7.94787E+03  3.00209E+03 -9.32141E+02 -1.37614E+02 -1.35615E+03
 -1.85336E+03  4.53204E+02  4.09177E+03 -4.75585E+03  7.79882E+03 -7.35152E+03  7.84689E+03  3.12280E+03
  1.58362E+03  2.07977E+03  3.57252E+03  1.89658E+03 -3.18561E+03  4.58808E+03 -1.53584E+04  4.45402E+03
 -1.46408E+04 -1.55977E+02 -1.88246E+03 -1.07455E+04  2.86178E+03 -6.80989E+03  7.71031E+03 -1.19091E+04
  7.99054E+03 -1.17683E+03  1.11356E+04 -7.91381E+02  9.65337E+03  7.64935E+03  2.25154E+03  5.25640E+03
 -2.59675E+03  9.83513E+03 -3.01454E+03  3.73520E+03 -6.96589E+03  4.78536E+02 -4.02155E+03 -4.57862E+03
 -4.31808E+03 -2.82172E+03 -4.54010E+03  6.70916E+02 -6.97599E+03  2.13880E+02 -6.15491E+03  1.04876E+03
 -4.90441E+03 -6.55755E+03 -1.78253E+03 -7.52009E+03  1.24378E+04 -6.64764E+03  7.48842E+03  1.01177E+03
  1.03842E+04  4.15501E+03  6.64095E+03  7.53974E+03  1.51289E+03  9.75095E+03 -6.87418E+03  6.24098E+03
 -1.22078E+04  4.84675E+03 -6.12736E+03  8.54611E+02 -2.58629E+03 -1.07331E+04  7.86483E+02 -2.90673E+03
  5.39624E+03 -7.73931E+03 -6.61798E+02  3.87026E+03  1.85671E+03  2.07706E+03 -5.31886E+03 -1.65726E+03
  3.15738E+03 -4.03236E+03 -5.49993E+02  1.31438E+03  4.34888E+03  5.89563E+03  2.11583E+03  2.60385E+03
 -5.89174E+03  9.94666E+02 -7.58561E+03  6.21275E+03 -8.64931E+03  5.12924E+03 -7.65819E+03  6.52027E+02
 -7.68590E+03 -4.37540E+03 -2.66745E+03 -9.33838E+03  5.19036E+03 -3.30594E+03  7.49984E+03  3.83193E+03
  4.96718E+03  3.54358E+03  2.23231E+03  7.09758E+03 -1.11123E+03  5.17867E+03 -4.02963E+03 -4.93561E+03
 -1.69862E+02 -1.86845E+03 -1.04195E+03 -4.57730E+03  1.46099E+03  1.09271E+03 -7.66937E+02  6.02636E+02
  1.55210E+03 -3.19904E+03  4.33053E+03  4.35982E+03 -1.05271E+03  3.00742E+03  2.05112E+03  1.51578E+03
 -1.13301E+03  3.80063E+03  2.99465E+03 -1.80810E+03  5.40870E+02  3.75114E+03  2.30938E+02  2.67328E+03
 -6.12663E+03  4.06170E+03 -9.47591E+03  2.02510E+03 -2.12868E+03 -7.87647E+02  3.95273E+03 -1.26782E+03
  1.27139E+03 -9.63593E+02 -2.59990E+03  2.38623E+02 -3.14088E+03  4.36875E+03  1.70971E+02  2.31255E+03
 -5.40306E+03  6.01557E+02 -5.93147E+03 -1.27729E+03 -1.51549E+03 -3.17200E+03  4.24343E+03 -6.93346E+03
  4.82739E+03  3.92147E+02  1.67558E+03 -4.67379E+02  5.47845E+03  4.47662E+03  5.77587E+03  1.30820E+02
 -3.43564E+02  6.35192E+03  3.18729E+02 -4.07670E+03  5.26566E+01 -3.96045E+03 -4.65013E+02 -5.12826E+03
  7.29815E+03  4.92751E+02  1.17026E+03  8.60061E+03 -5.14500E+01  2.35134E+03 -3.84803E+03  4.44762E+03
 -6.17423E+03  2.45605E+03 -5.87919E+03  4.33184E+01 -6.58347E+03 -3.11264E+03  6.98772E+03 -5.88242E+03
  1.45550E+03 -6.07274E+03  3.91366E+03 -2.78861E+03  6.83692E+01  2.70893E+03  9.53171E+02  8.89108E+02
  8.24945E+02 -3.40406E+03 -5.27562E+02 -5.87946E+01 -1.96838E+03 -3.93993E+03  2.82425E+03 -2.71852E+03
 -2.45553E+03  1.18592E+03  1.95682E+03  3.23982E+03 -6.20345E+03 -1.70102E+03 -8.46326E+03 -6.30746E+03
 -3.12673E+02 -6.36899E+03 -5.69181E+03 -4.50928E+03  5.13506E+03 -5.25139E+02  1.11084E+04 -6.85631E+03
  1.21137E+04  1.66746E+03  5.61066E+03  5.41989E+03 -3.83954E+03  3.41305E+03 -1.92557E+03  4.74884E+03
  1.68395E+03 -1.76860E+03 -2.25855E+03  5.79438E+03  1.00986E+03 -4.62261E+03 -5.10322E+03 -1.37895E+03
  3.16993E+03 -6.40155E+02 -1.86623E+03  5.03195E+02 -4.67833E+03 -2.17308E+03 -3.99512E+02 -4.15399E+03
 -2.32137E+03 -1.49940E+03  3.95961E+03  9.94694E+02 -9.19339E+02  4.26090E+03 -8.91548E+02  3.28380E+03
  5.97548E+02  4.61157E+03 -3.46852E+03  8.40718E+03 -9.05400E+02 -5.27659E+03 -4.33161E+03 -2.56234E+02
  2.51373E+03 -3.35877E+03  3.84691E+03 -4.42973E+03  2.26722E+03 -5.72334E+03  3.51528E+03 -1.58534E+01
  7.25464E+02 -1.74086E+02  3.87237E+03 -5.49389E+02  1.66996E+03  2.66612E+03  7.19678E+02 -3.55455E+03
 -2.51317E+03 -2.43043E+03 -2.01403E+03  2.45728E+03  1.55344E+03  2.51738E+03  1.26352E+03  3.78218E+03
  4.88496E+01  2.19052E+03  5.81842E+02 -1.22530E+03 -2.70400E+03  1.72574E+03  3.01179E+03 -3.68881E+03
  6.62580E+02 -6.07322E+03 -1.28587E+03  1.40361E+02 -1.00243E+03 -2.85914E+03 -7.12489E+02 -1.26169E+03
 -1.16212E+03  3.37685E+03  1.75175E+03  4.70727E+03 -3.29438E+03  1.12099E+03  7.54676E+02  2.90759E+03
  2.03322E+03  3.57031E+03 -2.89352E+03 -1.06694E+03 -4.27536E+03  2.98935E+03 -5.52775E+03 -1.90370E+02
  2.29965E+03 -2.10091E+03 -2.40443E+03  8.58561E+01  7.15045E+02 -5.87859E+03  1.15529E+03 -2.36271E+03
  4.05275E+03 -3.99049E+03  3.91432E+03  2.75360E+03 -1.44340E+03  2.59473E+03 -1.53362E+03 -4.26346E+03
