 $NMID ID='MM_0lb_SNR50_9hz_g55_74.RAW', FMTDAT='(8E13.5)'
 TRAMP=1., VOLUME=1. $END
  3.03345E+05  8.82006E+03  3.40510E+05  2.48985E+05  8.45819E+04  3.41711E+05 -1.31509E+05  2.50684E+05
 -1.87991E+05  8.70462E+04 -1.14029E+05 -3.09097E+04 -5.35009E+03 -5.20784E+04  5.20300E+04 -4.18137E+03
  4.36219E+04  5.36454E+04 -1.46332E+04  7.13351E+04 -6.18978E+04  6.44147E+04 -8.07053E+04  3.51669E+04
 -8.20698E+04 -7.52197E+03 -5.57228E+04 -4.95012E+04 -1.05002E+04 -6.63314E+04  2.59184E+04 -4.44724E+04
  4.84992E+04  3.95410E+03  1.46244E+04  4.63591E+04 -3.37952E+04  5.20264E+04 -7.10808E+04  6.84060E+03
 -5.40371E+04 -5.71818E+04 -1.41975E+04 -8.00597E+04  3.68912E+04 -5.39131E+04  5.48252E+04 -2.21870E+04
  4.58427E+04  1.50351E+04  3.22207E+04  2.24612E+04  1.80687E+04  3.46502E+04 -3.95238E+03  2.74805E+04
 -1.84289E+04  1.35246E+04 -1.79803E+04 -1.23001E+04  1.06996E+04 -6.17554E+03  2.55970E+04  1.83925E+04
  7.50966E+03  3.63579E+04 -3.56166E+04  3.45733E+04 -6.29399E+04  8.25955E+03 -6.03315E+04 -4.97754E+04
 -1.22963E+04 -7.09035E+04  4.20626E+04 -5.16474E+04  5.96591E+04 -1.61951E+03  3.63306E+04  3.11025E+04
 -5.01326E+03  3.32875E+04 -3.57947E+04  2.62360E+04 -3.54551E+04 -6.22391E+03 -1.97145E+04 -9.75513E+03
 -6.57152E+03 -2.19485E+04 -3.14801E+03 -1.96525E+04  7.34068E+03 -3.05767E+04  1.65421E+04 -1.61607E+04
  1.12656E+04  4.92373E+03 -1.23860E+04  1.11699E+04 -2.60630E+04 -1.25759E+04 -9.13669E+03 -3.52913E+04
  2.19482E+04 -4.47896E+04  5.00287E+04 -1.65305E+04  4.83486E+04  1.64224E+04  1.97799E+04  4.36179E+04
 -1.50892E+04  3.90266E+04 -2.90817E+04 -2.17679E+03 -1.64268E+04 -2.71703E+04  2.10015E+04 -3.47718E+04
  4.44225E+04 -2.80533E+03  4.45075E+04  2.83852E+04  1.20916E+04  5.33595E+04 -6.39728E+03  5.90038E+04
 -3.57227E+04  3.53112E+04 -5.11823E+04  1.29516E+04 -4.87708E+04 -1.84626E+04 -3.28929E+04 -3.63102E+04
  5.66859E+03 -4.18919E+04  3.38453E+04 -1.52420E+04  3.51363E+04  1.64979E+04  9.38760E+03  1.86193E+04
 -1.25789E+04  1.58046E+04 -1.32124E+04 -6.07313E+03  9.47862E+03 -1.28981E+04  2.05299E+04  4.55756E+03
  1.49090E+04  2.12354E+04 -8.24183E+03  2.77891E+04 -2.05347E+04  7.17434E+03 -3.44181E+04  4.57493E+03
 -2.09450E+04 -2.63528E+04 -1.40325E+04 -2.09830E+04 -8.53415E+02 -2.86042E+04  1.57542E+04 -2.65392E+04
  3.15166E+04 -1.16805E+04  4.59887E+04  3.16976E+03  2.71590E+04  2.96410E+04  4.02367E+03  4.50545E+04
 -2.01354E+04  3.63447E+04 -3.56364E+04  8.75418E+03 -1.64742E+04 -1.29327E+04 -1.37935E+04 -1.07748E+04
 -6.50946E+03  1.36428E+03 -8.54942E+03  6.67316E+03 -2.29586E+04  5.25945E+03 -2.43642E+04 -9.63847E+03
 -6.24008E+03 -2.13094E+04  5.12226E+03 -2.79280E+04  2.20143E+04 -2.20642E+04  2.07156E+04 -4.24145E+03
  1.34057E+04  1.73952E+04 -6.60739E+02  2.59392E+04 -1.86438E+04  5.51727E+03 -3.01150E+04 -1.22087E+04
 -2.09865E+04 -2.46307E+04 -4.67941E+03 -2.47309E+04  1.58955E+04 -2.41481E+04  2.85658E+04 -1.01448E+04
  2.23327E+04  5.91451E+03  9.33071E+03  7.20159E+03  7.29454E+03 -3.41896E+02  1.04906E+04  3.34050E+03
  2.09333E+04  2.58904E+03  2.59947E+04  2.04817E+04  1.64960E+04  3.79245E+04 -6.10875E+03  4.49409E+04
 -2.76375E+04  3.32869E+04 -4.34713E+04  1.75647E+04 -5.21449E+04 -8.12651E+03 -3.60983E+04 -2.89478E+04
 -1.63914E+04 -3.95733E+04  1.77486E+04 -3.27002E+04  3.02125E+04 -1.43301E+04  1.91256E+04  9.98397E+03
  1.09735E+04  2.08248E+04 -1.23577E+04  1.66436E+04 -2.22861E+04  4.75698E+03 -9.42278E+03 -1.33056E+04
 -6.81831E+03 -2.53726E+04  7.81136E+03 -1.55375E+04  1.64199E+04  7.52465E+00  2.43970E+03  1.01619E+04
 -5.70158E+03  8.45207E+03 -1.56344E+04 -4.50211E+03  1.04968E+03 -1.85679E+04  1.29049E+04 -1.96334E+04
  2.79289E+04 -1.37044E+04  2.56825E+04  7.17216E+03  2.48896E+04  1.82848E+04  1.57478E+04  2.82030E+04
 -4.56407E+03  3.30573E+04 -2.18321E+04  1.54565E+04 -2.44652E+04  8.92955E+03 -1.57268E+04 -8.84903E+03
 -9.40245E+01 -8.35137E+03  8.50160E+02 -2.11981E+03  1.48623E+03  8.13844E+03 -6.57821E+03  6.92802E+03
 -1.12843E+04 -1.73474E+03 -2.03750E+04 -1.20312E+04 -6.24412E+03 -2.11405E+04  1.05096E+04 -1.45001E+04
  1.16409E+04 -1.07753E+04  7.65540E+03  5.06435E+03 -2.05414E+03 -2.32851E+03 -8.06882E+03 -5.50897E+03
  2.08766E+03 -7.33234E+03 -2.48061E+03 -1.66821E+04  9.35303E+03 -1.86588E+04  1.93376E+04 -7.30457E+03
  2.39697E+04 -5.65800E+02  1.24334E+04  1.45421E+04 -1.24700E+03  1.65038E+04 -1.12896E+04  2.01381E+04
 -6.51097E+03  2.65839E+03 -8.91559E+03 -3.22483E+03  6.58615E+03 -8.73524E+03  3.08559E+03 -7.06756E+02
  6.89317E+03  2.34301E+03  2.87608E+03  1.36644E+04 -1.05850E+04  1.13504E+04 -1.49211E+04 -3.45832E+03
 -1.24435E+04 -4.32398E+03  1.75102E+03 -9.98414E+03  5.94283E+03 -8.39929E+03  5.94082E+03  7.21515E+03
  5.48373E+03  1.33245E+04 -7.91299E+03  1.19783E+04 -1.53165E+04  6.92330E+03 -1.43967E+04 -5.58443E+03
  1.86749E+02 -1.43075E+04  5.86039E+03 -1.89462E+04  1.55798E+04 -1.38473E+04  2.12168E+04  4.39568E+03
  1.34385E+04  1.44129E+04  7.00928E+02  1.46700E+04 -1.17944E+04  1.05877E+04 -1.42205E+04 -5.11513E+03
 -7.46676E+03 -1.00778E+04 -2.93197E+03 -1.07425E+04  4.53081E+03 -1.17678E+04  5.79425E+03 -1.88454E+03
  1.04098E+04  1.14159E+03  2.86878E+03  5.97560E+03  4.25359E+03 -6.57335E+03  8.95170E+03 -9.83777E+03
  8.68883E+03 -6.99170E+03  2.13814E+04  6.55830E+03  1.29962E+04  1.06363E+04  1.78104E+04  2.59526E+04
 -7.65267E+03  2.09219E+04 -2.58206E+04  1.28279E+04 -2.54404E+04  2.51546E+03 -2.12058E+04 -1.01686E+04
 -6.40626E+03 -2.20037E+04  4.72723E+03 -1.36558E+04  2.97489E+03 -1.38446E+04  4.37130E+03 -3.89637E+03
  4.20562E+03 -9.31179E+03  7.14327E+03 -5.40794E+03  4.67674E+03 -2.75515E+02  6.55998E+03 -7.75013E+03
  1.33842E+04 -2.07526E+03  3.75168E+03  1.32764E+04 -2.44568E+03  6.37878E+03 -1.20276E+04  6.46528E+03
 -2.46520E+04 -2.86595E+03 -8.24631E+03 -1.44719E+04  2.30141E+03 -1.21582E+04  1.33913E+04 -1.30764E+04
  1.30960E+04 -1.19929E+04  2.36368E+04  5.86225E+03  1.86505E+04  2.07187E+04  3.27800E+03  1.77089E+04
 -8.61520E+03  1.61552E+04 -1.10371E+04 -3.08842E+03 -2.09467E+03 -7.99339E+03 -3.15130E+03 -8.73427E+02
  2.98453E+03 -1.03079E+03  3.50025E+02  1.33234E+03 -1.09133E+04 -6.12531E+02 -7.38185E+03  3.03048E+03
 -5.57596E+03 -1.38561E+04  2.51394E+03 -1.10836E+04  7.42468E+03 -1.07739E+04  2.33769E+04 -5.83386E+03
  1.75174E+04  1.09005E+04  6.83227E+03  1.02860E+04 -9.38643E+03  1.99499E+04 -7.87586E+03  1.46264E+04
 -1.37130E+04  8.66134E+03 -1.71251E+04 -8.26971E+03  7.23613E+03 -1.42418E+04  9.37122E+03 -5.83303E+03
  6.63141E+03 -1.12797E+02  3.58732E+03  6.50556E+03  2.60538E+03  2.98588E+03 -6.24553E+03  7.08202E+03
 -3.95796E+02  3.57866E+03  1.22771E+03  5.10887E+02  4.05552E+03  3.42089E+03  8.31808E+03  8.64231E+03
 -4.87447E+03  1.24227E+04 -7.24507E+03  1.53651E+04 -1.59099E+04  5.61155E+01 -1.46815E+04 -5.43233E+03
 -1.27418E+04 -1.52284E+04  5.42056E+03 -1.94496E+04  9.34357E+03 -2.37962E+03  1.43557E+04  1.15359E+03
  1.30213E+04  8.56696E+03  3.14295E+03  1.45866E+04 -1.73959E+03  5.57125E+03 -4.48868E+03 -4.87202E+03
 -4.09898E+03 -8.54493E+03  5.49214E+03 -1.24762E+04  6.90508E+03 -7.20244E+03  6.05745E+03  7.47442E+02
  8.02935E+03  6.72559E+03  2.53688E+03  5.42702E+03 -6.90630E+03  4.95385E+03  4.58645E+03 -2.28746E+03
  2.99770E+03  3.31199E+03  6.69683E+03 -2.75847E+02  6.31384E+03  4.65360E+03 -7.12656E+03  1.19130E+04
 -7.79842E+03  3.65929E+03 -1.75864E+04  1.82620E+03 -1.01734E+04 -4.33809E+03 -5.79476E+03 -2.07936E+03
 -1.20149E+03 -8.12601E+03  1.82585E+03 -2.93386E+03  4.47147E+03  7.03132E+03 -1.85543E+03  1.51594E+03
 -7.29601E+03  6.20245E+03 -5.50365E+03 -1.17479E+04 -3.25917E+03 -1.12907E+04  4.20227E+02 -5.96570E+03
  1.17494E+04 -8.10174E+03  6.65605E+03  2.40841E+03  1.13833E+04  8.77235E+02  8.53678E+03  1.85486E+03
 -6.02415E+03  3.96655E+03 -2.10565E+03 -6.49534E+03  1.71692E+03 -1.21490E+04  8.79018E+03 -6.74320E+03
  1.43612E+04 -2.17885E+03  1.19770E+04  5.56065E+03  7.67469E+03  1.05253E+04 -6.81707E+03  1.02323E+04
 -4.45695E+03  4.26705E+03 -1.07343E+04  7.23774E+01  3.90531E+02 -8.35761E+03  1.51410E+03 -3.62975E+03
  5.82843E+03 -5.81547E+03  1.62169E+03  3.14299E+03  5.88398E+03  5.85900E+03  7.06510E+02  6.52019E+03
 -6.58162E+03  3.77125E+03 -3.18086E+03 -3.03564E+03 -2.90177E+02  2.67650E+03 -7.80188E+03 -1.57037E+02
 -7.40974E+03  3.68894E+03 -9.33696E+03  1.14902E+03 -1.45174E+04 -3.45415E+02 -6.57322E+03 -1.16012E+04
 -7.24588E+03 -1.65888E+04  2.44393E+03 -1.81959E+04  1.23532E+04 -1.59825E+04  1.04388E+04 -3.95739E+03
  1.38610E+04  8.75244E+03  1.34476E+04  8.97422E+03 -2.23384E+02  1.24369E+04  2.88820E+03  3.02071E+03
 -1.33860E+04  2.56854E+03 -1.65433E+03 -3.90233E+03 -6.18991E+03 -4.69312E+03  4.19601E+03 -5.38115E+02
  2.37987E+03 -1.68832E+03 -2.69585E+03  6.08521E+01  7.64971E+02 -6.14584E+03  1.24059E+02 -1.11870E+04
  8.62441E+03 -7.05086E+03  3.69925E+03  1.48850E+02  8.52876E+03  5.16894E+03  3.24235E+02  1.72591E+04
 -2.27429E+03  8.95365E+03 -1.38784E+04  4.81217E+03 -9.20076E+03 -1.14775E+03 -9.17460E+03 -8.71041E+03
 -8.06547E+03 -6.71669E+03  8.31187E+03 -8.14115E+03 -1.29648E+03 -5.94842E+03  9.05553E+03 -3.91311E+03
 -2.65389E+03  6.62176E+03 -5.66593E+02  3.15836E+03  2.77152E+01  2.40779E+03  1.99943E+03 -6.13234E+03
  1.35527E+03  1.90111E+03 -2.42939E+03  7.70918E+03  1.02839E+04  4.71359E+03  5.49499E+03 -2.01644E+03
 -8.60109E+03  7.52320E+03 -1.19924E+04  1.41514E+02 -7.04973E+03 -5.34583E+03 -3.25389E+03 -6.71073E+03
  4.78312E+03 -6.45263E+03  4.70901E+03  1.93598E+02  1.07917E+04  1.00245E+03  1.00768E+04  7.96845E+03
  1.95337E+03  3.94996E+03 -9.48954E+03  1.49945E+04 -3.12373E+03  3.22115E+03 -3.52078E+03  2.43996E+03
 -5.64181E+03 -6.77790E+03 -3.16915E+03 -2.46001E+03 -2.91038E+03  2.18058E+03 -5.93833E+03 -3.06423E+03
 -3.54448E+03 -4.09846E+03 -2.70052E+03 -3.04608E+03  7.08244E+03 -6.96607E+03  4.00647E+03  7.19470E+02
  4.10539E+03  3.01762E+03  3.07437E+03  5.63780E+03  1.43564E+03  9.40812E+03 -3.82336E+02 -3.92872E+02
