 $NMID ID='MM_0lb_SNR50_7hz_g45_88.RAW', FMTDAT='(8E13.5)'
 TRAMP=1., VOLUME=1. $END
  3.14568E+05  4.31092E+03  3.32529E+05  2.47432E+05  8.10697E+04  3.38747E+05 -1.33421E+05  2.51566E+05
 -1.98642E+05  8.86143E+04 -1.16542E+05 -2.75576E+04  2.46092E+03 -4.58197E+04  5.82206E+04  2.88778E+03
  4.56457E+04  6.31592E+04 -1.34675E+04  7.79793E+04 -5.93205E+04  6.37844E+04 -8.67313E+04  3.32336E+04
 -8.00460E+04 -7.04214E+03 -6.58354E+04 -5.05796E+04 -2.08784E+04 -6.87678E+04  2.47202E+04 -4.96186E+04
  4.42860E+04  1.93288E+03  1.54759E+04  5.53019E+04 -3.57862E+04  4.75259E+04 -6.22648E+04  1.43950E+03
 -5.27626E+04 -5.82858E+04 -3.63747E+03 -7.74155E+04  3.64722E+04 -5.43715E+04  4.75325E+04 -1.94621E+04
  4.51585E+04  9.99406E+03  2.79700E+04  2.94444E+04  1.84234E+04  2.25434E+04 -4.30893E+03  2.67750E+04
 -1.95162E+04  4.00399E+03 -2.42111E+04 -7.82114E+03  5.05558E+03 -6.24222E+02  2.64936E+04  1.55463E+04
  1.32945E+04  4.37110E+04 -3.80315E+04  3.31873E+04 -6.55171E+04  3.06289E+03 -6.87382E+04 -4.45900E+04
 -8.72079E+03 -7.11878E+04  3.57009E+04 -4.52548E+04  6.20698E+04  3.87610E+03  4.31330E+04  3.51721E+04
 -5.29336E+03  3.48849E+04 -3.55143E+04  2.21885E+04 -3.75901E+04 -7.78621E+03 -2.10909E+04 -1.22327E+04
 -1.09155E+04 -1.16785E+04 -2.65651E+03 -1.89200E+04  6.13577E+03 -2.48570E+04  1.18643E+04 -2.77428E+03
  1.44188E+04  9.01381E+03 -1.33976E+04  1.28351E+04 -2.94267E+04 -6.02539E+03 -8.93105E+03 -3.96084E+04
  2.66678E+04 -4.75496E+04  5.45004E+04 -1.42669E+04  4.85864E+04  2.70857E+04  1.21925E+04  5.22445E+04
 -1.71274E+04  4.49224E+04 -2.81351E+04 -1.40707E+03 -1.80924E+04 -2.24428E+04  2.24686E+04 -3.82749E+04
  4.40589E+04 -3.69334E+03  4.00445E+04  2.80855E+04  1.50626E+04  5.59050E+04 -1.25950E+04  6.16275E+04
 -4.44238E+04  3.70104E+04 -5.08079E+04  1.38964E+04 -4.83020E+04 -1.79629E+04 -3.84781E+04 -4.77903E+04
  1.10468E+04 -3.55800E+04  3.62999E+04 -2.04944E+04  3.70582E+04  1.23804E+04  2.49882E+03  2.22841E+04
 -1.68569E+04  1.43421E+04 -1.30938E+04 -6.85953E+02  8.41609E+03 -9.61947E+03  1.98386E+04  1.65664E+04
  1.58709E+04  2.06418E+04 -8.74187E+03  2.98591E+04 -2.05169E+04  2.04638E+04 -3.29635E+04 -4.92758E+03
 -2.64387E+04 -2.32732E+04 -1.51695E+04 -2.96600E+04 -3.58518E+03 -3.57621E+04  2.00604E+04 -2.27032E+04
  4.27478E+04 -1.30934E+04  4.43861E+04  7.42968E+03  2.60585E+04  1.85498E+04  6.22284E+03  4.32822E+04
 -2.33439E+04  3.41517E+04 -2.91622E+04  1.54802E+04 -2.00543E+04 -1.07683E+04 -9.79498E+03 -8.96125E+03
  1.39488E+02  7.07864E+03 -7.22556E+03  1.49867E+04 -2.54289E+04  6.72105E+03 -2.06520E+04 -1.29503E+04
 -7.69233E+03 -3.18683E+04  4.80928E+03 -3.65688E+04  2.20607E+04 -2.42419E+04  2.29701E+04 -1.70070E+03
  7.94580E+03  1.64584E+04 -5.37548E+03  2.36725E+04 -2.06802E+04  1.00716E+04 -2.48440E+04 -2.82644E+03
 -1.67970E+04 -2.68165E+04 -9.24998E+03 -2.56313E+04  1.13076E+04 -1.81240E+04  2.83985E+04 -1.74144E+04
  1.29313E+04  4.39720E+03  1.93393E+04  8.53478E+03  7.33353E+03 -5.34596E+02  1.11978E+04 -8.24519E+03
  2.50875E+04  2.97664E+03  2.33116E+04  1.88690E+04  1.45373E+04  4.00924E+04  3.66387E+03  4.89910E+04
 -3.09169E+04  3.37281E+04 -3.55775E+04  2.49936E+04 -4.86464E+04 -8.81246E+03 -4.62278E+04 -3.00151E+04
 -1.83287E+04 -3.45295E+04  1.24028E+04 -3.36053E+04  3.45715E+04 -1.47003E+04  2.12931E+04  7.67905E+03
  1.25594E+04  2.21137E+04 -1.85149E+04  1.31259E+04 -2.32276E+04  4.04164E+02 -1.68431E+04 -1.38112E+04
 -8.68863E+03 -2.42993E+04  1.12421E+04 -1.63286E+04  1.23203E+04  1.08799E+03  4.70740E+03  1.48590E+04
 -1.04939E+04  3.23252E+03 -6.10295E+03 -6.83419E+03 -2.29986E+03 -1.31724E+04  1.25424E+04 -2.16654E+04
  2.24252E+04 -1.33763E+04  2.52638E+04  2.77501E+03  3.55413E+04  1.99621E+04  1.30235E+04  3.45800E+04
 -6.67409E+03  3.63267E+04 -1.57970E+04  1.97252E+04 -1.91816E+04  4.93353E+00 -2.28656E+04 -5.83703E+03
 -1.45539E+04 -1.15166E+04  4.21493E+03 -2.80776E+02 -3.50848E+03  1.66507E+03 -2.52391E+03  4.12102E+03
 -2.01728E+04 -3.81302E+03 -1.92128E+04 -1.59928E+04 -6.51216E+03 -2.04346E+04  8.52435E+03 -2.45571E+04
  6.29707E+03 -9.18119E+03  1.01014E+04  1.23718E+03  1.54603E+03  8.12805E+03 -1.66320E+04 -2.93678E+03
 -4.13001E+03 -8.33939E+03  2.96844E+02 -1.39215E+04  4.75846E+03 -1.97624E+04  2.06388E+04 -2.06906E+04
  2.52896E+04 -7.72378E+02  2.54017E+04  1.71266E+04  4.13430E+03  2.34736E+04 -1.31628E+04  1.62374E+04
 -8.43101E+03  1.32110E+04 -1.10904E+04 -5.76922E+03  6.70379E+03 -5.99002E+02  7.97156E+03 -9.32066E+02
  7.46926E+03  4.64458E+03  6.32064E+02  1.14104E+04 -1.03672E+04  7.07626E+03 -1.58502E+04  3.45791E+02
 -1.39237E+04 -7.00159E+03  5.53933E+03 -1.52587E+04  2.44002E+03 -2.61781E+03  1.20472E+04  5.99613E+03
  1.86442E+03  1.64991E+04 -9.57057E+03  1.53249E+04 -1.51082E+04  4.31075E+03 -2.02946E+04 -6.49715E+03
 -1.07197E+04 -1.85466E+04 -1.18924E+03 -1.43111E+04  2.47416E+04 -1.94748E+04  2.09423E+04  2.50968E+03
  1.64113E+04  1.97109E+04 -7.63115E+01  1.63660E+04 -1.57563E+04  1.28419E+04 -1.35818E+04  6.14291E+03
 -1.43301E+04 -7.85123E+03 -4.42649E+03 -1.47695E+04  8.57044E+03 -8.62032E+03  1.14141E+04 -8.85606E+03
  4.33724E+03  5.55851E+03 -6.81591E+03  5.34328E+02 -2.53674E+03  3.87559E+03  1.00459E+04 -1.50681E+04
  1.62921E+04 -3.11252E+03  1.74980E+04  2.94913E+03  1.55371E+04  9.42397E+03  1.48470E+04  2.71200E+04
 -1.32246E+04  2.92637E+04 -1.82686E+04  2.03085E+04 -2.67732E+04 -1.87662E+03 -2.84981E+04 -9.53076E+03
 -1.08122E+04 -2.58261E+04 -1.07719E+04 -2.01420E+04  9.84336E+02 -6.19020E+03  3.15274E+03 -3.68580E+03
  7.19977E+03 -7.60764E+03  5.69620E+01 -9.95313E+03  9.90571E+03  1.46097E+03  8.37540E+03 -5.30154E+03
  1.34386E+04  7.20381E+03  6.48199E+03  4.19899E+03 -6.55780E+03  1.19574E+04 -1.65555E+04  9.09506E+03
 -1.04774E+04 -4.13617E+03 -9.94765E+03 -1.49549E+04 -7.09083E+03 -1.68610E+04  8.45466E+03 -1.12490E+04
  1.46622E+04 -3.69721E+03  2.44728E+04  2.23214E+03  1.91612E+04  2.14594E+04 -1.69759E+02  2.07081E+04
 -1.24029E+04  1.16187E+04 -1.78450E+04  5.71454E+03 -8.48195E+03  2.25221E+03  9.19549E+02  2.17846E+02
  9.84682E+02  3.69306E+03 -5.65567E+03 -4.67654E+02 -4.90641E+03  9.92429E+03 -7.38316E+03  3.46586E+03
 -8.62359E+03 -3.87786E+03 -6.23139E+03 -1.15562E+04  1.40854E+04 -1.71956E+04  2.14078E+04 -8.75824E+03
  1.84036E+04  1.00725E+04  7.48537E+03  1.89322E+04  3.55151E+03  1.43177E+04 -1.38371E+04  7.78882E+03
 -2.09064E+04  7.55642E+02 -9.69393E+03 -1.31099E+04  2.23705E+03 -1.84392E+04  1.49690E+03 -9.24700E+03
  1.82847E+04 -8.11590E+03  1.54667E+04  3.34734E+03  1.29373E+03  9.36621E+03  1.57773E+03  4.07997E+03
  6.12793E+03  4.13130E+03  5.15674E+03  1.32060E+03  5.22867E+03  6.32000E+03  7.92182E+03  1.36806E+04
 -2.86732E+03  1.33167E+04 -1.29260E+04  1.14796E+04 -2.27748E+04  4.78018E+03 -1.94895E+04 -5.58419E+03
 -1.39933E+04 -2.17234E+04  1.01085E+04 -2.67541E+04  9.12165E+03 -1.08287E+04  1.54263E+04 -1.44542E+02
  1.60783E+04  1.15779E+03 -5.57784E+03  9.29539E+03 -1.09692E+04  9.48880E+03 -8.16570E+03  5.93529E+03
 -2.52713E+03 -6.92708E+03  1.10311E+04 -1.04412E+04  9.80488E+03  4.13301E+03  5.05540E+03 -1.88075E+03
  2.74792E+03  4.98042E+03 -5.48849E+02  6.55466E+03  1.47755E+03  2.55733E+03  1.62580E+04 -6.75913E+03
  2.21239E+03  4.46872E+03  1.27820E+04  9.68517E+03  2.60066E+02  6.55512E+03 -2.68147E+03  1.54774E+04
 -8.17795E+03  1.29245E+04 -1.16522E+04  1.14786E+03 -1.01895E+04 -8.98825E+03  6.47895E+02 -1.11005E+04
  3.19579E+03 -1.30123E+04  9.09057E+03 -9.22649E+03  7.28888E+03  1.21833E+03 -2.25110E+03  1.01405E+04
 -1.04053E+04  3.67758E+03 -1.38212E+04 -1.25088E+04 -1.08493E+04 -6.87568E+03 -1.22807E+02 -8.33904E+03
  9.30449E+03 -8.81387E+03  8.03781E+03 -2.10813E+03  1.10209E+03  2.57971E+03  5.78030E+03  6.11979E+02
 -1.26637E+04 -3.62220E+03 -4.79479E+03 -5.36399E+03  4.65705E+03 -8.76210E+03  1.08827E+04 -7.35970E+03
  1.02138E+04 -2.76932E+03  5.68024E+03  6.55965E+03  6.19965E+03  1.51339E+04  1.02265E+03  4.70412E+03
 -5.76431E+03  6.78480E+03 -8.12466E+03  1.51122E+03 -4.54076E+03 -8.77655E+03 -5.08598E+03 -5.34782E+03
  7.99638E+03 -2.37482E+03  8.70975E+03  8.67292E+03 -2.41990E+03  1.34889E+04  2.37319E+03  6.44835E+03
 -1.10021E+04  7.74982E+03  2.28676E+03 -2.79112E+03 -4.79210E+03 -1.48390E+03 -2.90046E+03  6.00130E+02
 -7.05879E+03  1.05380E+03 -6.90502E+03  4.34043E+03 -1.14673E+04  3.89467E-02 -2.02475E+04 -1.28442E+04
 -9.68620E+03 -1.99546E+04  9.78659E+02 -2.39306E+04  1.26770E+04 -1.93423E+04  2.46954E+04 -9.56307E+03
  1.27689E+04  1.02099E+04  1.42110E+04  5.10677E+03  3.75276E+03  1.31687E+04 -3.20543E+02  4.45427E+03
 -4.68454E+03  5.39657E+03 -9.59396E+03  2.31739E+02 -2.65483E+03  5.43211E+03 -3.07580E+03  4.85614E+03
  1.85209E+03  2.52983E+03  5.49024E+03  1.23391E+03 -3.26741E+03 -2.52246E+03 -1.03923E+03 -9.08034E+03
  4.25469E+03 -4.90076E+03  1.06549E+04 -3.07523E+03  7.88755E+03  1.29672E+04  8.50745E+02  1.23584E+04
 -4.16358E+03  1.65829E+04 -1.57443E+04  6.53450E+03 -1.96251E+04 -5.86719E+03 -1.61097E+04 -1.19956E+04
 -1.27824E+03 -1.47502E+04 -1.72227E+03 -1.45404E+04 -8.17531E+02 -6.96530E+03  1.24276E+04  5.63889E+02
  1.01244E+04  3.26420E+01 -1.17051E+02  3.84591E+03 -1.86343E+03  1.25717E+03  4.64216E+03 -6.73168E+03
  6.11862E+03  4.46582E+03  8.74468E+03  4.31410E+03  8.55127E+03  6.47793E+03  2.34956E+03  5.48015E+03
 -1.50112E+04  6.37111E+03 -8.81946E+03  6.52741E+03 -1.36325E+04 -3.68055E+03  3.98459E+03 -1.48106E+04
  7.31082E+03 -9.27741E+03  8.18454E+03 -6.58617E+01  1.50176E+04  6.69929E+02  2.03001E+03  1.04174E+04
 -5.35877E+03  1.62282E+04 -5.02976E+03  8.44505E+03 -1.28154E+03  7.37188E+03 -1.05188E+04  3.01626E+02
 -3.91439E+03  1.35850E+03 -6.31372E+03  1.57794E+03 -3.76568E+02  5.87773E+03 -8.14740E+03 -2.90456E+03
 -1.37190E+04 -6.19683E+03 -8.85830E+02 -1.42356E+04  8.78565E+03 -4.21521E+03  1.59736E+04 -5.84170E+02
  7.10641E+03 -2.59653E+03  2.80583E+03  9.54773E+03  5.66770E+03  1.17187E+04 -5.88863E+03  6.12846E+03
