 $NMID ID='MM_0lb_SNR50_11hz_g45_95.RAW', FMTDAT='(8E13.5)'
 TRAMP=1., VOLUME=1. $END
  3.10417E+05 -3.65027E+02  3.36853E+05  2.48293E+05  8.76894E+04  3.39101E+05 -1.27915E+05  2.52554E+05
 -1.88728E+05  8.64077E+04 -1.09394E+05 -3.18803E+04  2.03022E+03 -5.10740E+04  5.46547E+04  6.03970E+02
  3.94308E+04  4.90874E+04 -1.57990E+04  7.27977E+04 -5.77878E+04  5.79110E+04 -8.37482E+04  3.16322E+04
 -8.35808E+04 -1.14085E+04 -5.40361E+04 -4.91766E+04 -1.95699E+04 -7.30428E+04  2.73198E+04 -4.39826E+04
  4.29914E+04  9.23476E+02  1.72866E+04  4.10563E+04 -3.03944E+04  4.95458E+04 -6.99938E+04 -4.96655E+03
 -5.75190E+04 -5.99953E+04 -4.20737E+03 -7.93204E+04  3.18938E+04 -5.85371E+04  4.31380E+04 -1.52914E+04
  4.57231E+04  1.24289E+04  3.54991E+04  2.08367E+04  1.80305E+04  2.80177E+04 -8.32452E+03  2.66693E+04
 -2.39224E+04  9.82564E+03 -1.99540E+04 -4.09408E+03  1.33691E+04 -1.40077E+04  2.56588E+04  8.88499E+03
  4.45657E+03  4.31042E+04 -2.68606E+04  3.84374E+04 -5.99362E+04 -1.91116E+03 -5.47382E+04 -4.50727E+04
 -1.06470E+04 -6.27607E+04  4.35184E+04 -4.57280E+04  6.67018E+04  1.16124E+03  3.50400E+04  3.29880E+04
 -8.05935E+03  4.22788E+04 -2.93205E+04  1.58883E+04 -3.29812E+04  2.54659E+02 -1.89533E+04 -1.25877E+04
 -1.09839E+04 -1.53897E+04  5.28326E+02 -2.13492E+04  4.53012E+03 -2.10473E+04  1.18163E+04 -1.03242E+04
  1.14429E+04  1.66618E+03 -7.74883E+03  1.63217E+04 -2.32313E+04 -4.66087E+03 -1.34345E+04 -3.57832E+04
  2.59045E+04 -4.55799E+04  4.83031E+04 -2.44056E+04  4.43969E+04  1.80535E+04  1.05984E+04  4.03198E+04
 -1.53084E+04  3.41394E+04 -2.36036E+04 -2.70218E+02 -1.42324E+04 -2.66689E+04  1.69238E+04 -3.04534E+04
  4.07950E+04 -1.10159E+04  3.62164E+04  2.24456E+04  1.90936E+04  5.22371E+04 -1.19564E+04  4.94812E+04
 -3.45438E+04  3.53134E+04 -4.79355E+04  9.87891E+03 -4.85441E+04 -2.14212E+04 -1.98836E+04 -4.14139E+04
  1.81941E+04 -4.20253E+04  3.48663E+04 -1.46760E+04  2.76964E+04  9.92452E+03  1.09472E+03  2.04844E+04
 -1.42800E+04  1.05989E+04 -1.61549E+04 -4.70000E+03  6.54464E+03 -1.76276E+04  1.53697E+04  7.58319E+03
  1.51193E+04  2.26059E+04 -2.16756E+03  2.34102E+04 -2.20125E+04  1.12768E+04 -3.01223E+04 -4.11411E+03
 -2.34204E+04 -2.06927E+04 -1.60994E+04 -2.27371E+04  1.25706E+03 -2.35463E+04  1.92483E+04 -2.84965E+04
  2.24521E+04 -1.65647E+04  4.04464E+04  6.71270E+03  2.12514E+04  2.48667E+04  1.02718E+04  4.49673E+04
 -1.27109E+04  2.65431E+04 -3.06160E+04  1.21964E+04 -2.09990E+04 -1.14248E+04  1.09893E+03 -1.20446E+04
  3.54810E+03 -2.53849E+03 -7.86442E+03  6.81419E+03 -1.67255E+04  6.75401E+03 -1.73978E+04 -7.69089E+03
 -9.79232E+03 -2.21829E+04  7.58009E+03 -2.50389E+04  1.65454E+04 -1.81529E+04  2.05797E+04 -3.51418E+03
  1.48273E+04  1.30585E+04 -1.79693E+03  2.04703E+04 -1.59226E+04  1.14040E+04 -2.14606E+04 -9.11205E+03
 -1.48385E+04 -1.56295E+04 -3.36711E+03 -2.72411E+04  1.42293E+04 -2.45863E+04  1.94382E+04 -1.27965E+04
  1.76011E+04  8.12119E+02  1.73689E+04  5.13172E+03  5.32923E+03  3.96748E+03  1.44968E+04 -1.97687E+03
  2.00019E+04  3.48682E+03  2.68308E+04  1.38770E+04  1.70139E+04  2.91854E+04 -1.92582E+03  3.83296E+04
 -2.96474E+04  3.58635E+04 -3.90749E+04  1.16161E+04 -4.03934E+04 -2.40266E+03 -3.11008E+04 -2.30756E+04
 -1.42635E+04 -3.60468E+04  1.26317E+04 -2.67864E+04  2.45901E+04 -1.16325E+04  2.29798E+04  3.70945E+03
  1.03310E+04  1.86231E+04 -7.76899E+03  1.13476E+04 -1.42829E+04  2.06418E+03 -1.24263E+04 -1.19079E+04
  6.45304E+03 -1.66142E+04  9.04915E+03 -1.36761E+04  6.25323E+03 -1.34433E+03  3.13007E+03  5.16880E+03
 -7.29657E+03  7.25494E+02 -1.71369E+03 -8.02850E+03 -7.10539E+03 -1.73072E+04  1.40547E+04 -1.76055E+04
  1.87292E+04 -1.20932E+04  2.55362E+04  7.40426E+03  2.11475E+04  2.03211E+04  1.09560E+04  2.82019E+04
 -8.05076E+03  2.13585E+04 -1.98265E+04  1.74398E+04 -2.59069E+04 -2.56804E+03 -1.27306E+04 -8.31179E+02
 -1.57617E+02  6.83285E+02  1.49863E+03 -3.10248E+03 -4.59998E+03  4.06602E+03 -6.19294E+03  3.23560E+03
 -1.14440E+04 -1.10770E+03 -1.50515E+04 -1.06895E+04 -7.35097E+03 -1.97364E+04  7.07766E+03 -1.26197E+04
  5.60299E+03 -2.60270E+03  6.77790E+03  1.67394E+03  5.78516E+03  7.22729E+03 -1.28595E+04  1.52196E+03
 -7.57716E+03 -8.22260E+03 -5.11240E+03 -1.21539E+04  9.63644E+03 -1.53279E+04  1.63633E+04 -4.68007E+03
  1.51759E+04  1.19239E+03  1.46274E+04  1.35824E+04  3.79570E+02  1.58080E+04 -4.69634E+03  1.62328E+04
 -9.30782E+03  5.87658E+03 -3.80357E+03  1.22358E+03  2.48475E+03 -4.58763E+03  3.84792E+03 -1.05102E+04
  4.64662E+03  5.17521E+03 -9.46918E+00  5.47490E+03 -1.02786E+04  1.06377E+04 -1.34926E+04  9.20771E+03
 -6.29888E+03 -1.00369E+04  1.66102E+03 -1.17898E+04  9.82304E+03 -7.15094E+03  6.78570E+03  4.92471E+03
  2.22334E+03  8.70094E+03 -2.28198E+02  8.72815E+03 -4.07029E+03  2.75286E+03 -1.51455E+04 -8.27067E+02
 -1.00495E+04 -1.04704E+04  5.69834E+03 -1.29932E+04  1.35191E+04 -7.06529E+03  7.81589E+03  7.37065E+03
  5.58455E+03  6.22176E+03 -7.15027E+03  1.02787E+04 -5.13916E+03  4.00769E+03 -7.05979E+03 -2.57920E+03
 -1.21821E+04 -7.50465E+03 -2.72311E+03 -9.54906E+03  3.84375E+03 -1.28795E+04  1.05037E+04 -1.51143E+03
  1.28103E+03  5.53252E+03 -3.54446E+02  6.02238E+03 -5.14027E+03 -5.18301E+03  1.04067E+03 -5.31129E+03
  6.36903E+03  1.25211E+03  5.64503E+03 -8.92123E+02  1.87932E+04  3.07188E+03  8.58453E+03  1.81209E+04
 -4.16679E+03  2.06683E+04 -7.09112E+03  1.23096E+04 -2.09557E+04 -1.22925E+03 -2.21193E+04 -1.04850E+04
 -7.05676E+03 -2.18611E+04  2.80260E+03 -1.08314E+04  6.12079E+03  2.43212E+03  6.69000E+03 -6.67154E+03
  6.75869E+02 -4.87050E+03  3.35941E+03 -1.94199E+03  4.40127E+03 -1.03903E+03  1.21587E+04 -3.26462E+03
  9.68477E+03  4.49040E+03  8.06416E+03  6.77640E+03 -9.35028E+03  9.79434E+03 -9.83189E+03  9.90816E+03
 -1.05272E+04 -5.13266E+03 -6.14133E+03 -3.83217E+03 -1.76437E+03 -1.21955E+04  9.78444E+03 -1.31920E+04
  1.36022E+04 -6.03031E+03  1.98900E+04 -4.69121E+02  1.04061E+04  1.26869E+04 -5.02113E+03  1.01048E+04
 -8.47291E+03  8.76435E+03 -1.41257E+04  4.70382E+03 -3.88300E+03  8.73373E+02 -6.80282E+02  2.00469E+01
 -2.94296E+03 -8.81542E+02  1.20978E+03  1.41887E+03 -5.09202E+03  5.81358E+03 -5.90502E+03 -4.00944E+03
 -8.44186E+03 -6.39786E+03  4.13943E+03 -6.37734E+03  7.60629E+03 -7.37211E+03  1.34750E+04 -3.87380E+03
  3.83728E+03  4.78277E+03 -2.37579E+03  5.01379E+03 -1.31319E+03  7.80376E+03 -4.28989E+02  1.15750E+04
 -1.10719E+04 -3.16062E+03 -4.43720E+03 -8.26397E+03 -4.18545E+03 -1.14174E+04  3.15074E+03 -7.60911E+03
  6.34295E+03  4.69896E+02  2.74218E+03  1.18032E+03 -3.44370E+03  4.03557E+03 -1.64415E+03  6.13900E+03
  4.20083E+03 -4.96178E+03 -3.52198E+03 -9.54677E+02  5.66663E+02  5.41640E+03  1.92902E+03  6.30038E+03
 -2.73884E+03  7.26700E+03 -2.94896E+03  6.74121E+03 -1.32627E+04  6.79731E+03 -8.33712E+03 -2.34626E+03
 -1.14650E+04 -8.83901E+03  3.21373E+02 -1.59619E+04  3.01708E+03 -1.01882E+04  8.39430E+03 -1.52980E+02
  4.48237E+03  2.67643E+03  6.93503E+03  8.54657E+03 -2.97909E+03  3.58611E+03 -6.28876E+03 -2.78838E+03
 -2.46958E+03 -1.23691E+03  3.00754E+03 -5.67555E+03  4.56871E+03 -6.89287E+03  2.99983E+03 -3.71295E+03
  2.97503E+03 -2.03164E+03  2.54166E+03  5.72811E+03 -1.27546E+03 -8.14728E+02  6.44022E+02  2.76580E+03
  3.42317E+03 -3.02947E+02 -1.02099E+03  4.18880E+03  2.38828E+03  5.02395E+03  2.95316E+03  3.90585E+03
 -7.27178E+03  6.30132E+03 -7.97730E+03  3.26706E+03 -5.99904E+03 -3.36945E+03 -1.20819E+03 -7.11681E+03
 -2.46730E+02 -3.46182E+03  4.26526E+03  4.29280E+03  4.02098E+03 -1.31918E+03  2.95988E+03  3.65450E+03
 -1.95293E+03 -2.02501E+03 -5.83178E+03  1.75814E+03 -3.14873E+03 -6.89590E+03  2.24756E+03 -8.52516E+03
  1.94645E+03 -3.83444E+03  2.97915E+03 -1.20181E+02  2.35526E+03  6.93433E+03  1.29280E+03  6.12002E+03
 -9.57009E+02  3.74096E+03 -2.49932E+03 -7.25733E+03 -1.68876E+03 -4.97234E+03  7.37726E+03 -5.90857E+03
  7.20880E+03 -2.35515E+03  3.73417E+03  3.31408E+03 -1.69076E+03  6.88495E+03  3.58863E+03  4.48200E+03
 -5.58397E+03  2.92299E+03 -6.80269E+03 -1.91236E+03 -1.18993E+03 -6.63311E+03 -7.33757E+02 -8.48329E+02
  8.11231E+03 -1.72750E+03  4.70864E+03 -1.23636E+03 -3.31151E+02  3.24505E+03 -1.63799E+03 -9.49833E+02
 -7.83290E+03 -5.11620E+02  6.48772E+03 -6.75455E+02 -6.74517E+01 -5.76197E+02 -5.75070E+03  4.36354E+03
 -2.19313E+03  1.12373E+03 -4.51747E+03  3.94174E+03 -9.06057E+03  3.26586E+02 -5.89378E+03 -4.80141E+03
 -9.41771E+02 -8.18662E+03 -2.42641E+03 -1.04495E+04  4.81036E+03 -1.15499E+04  1.03467E+04 -5.64716E+03
  8.06547E+03 -8.24118E+02  6.22721E+03  4.83867E+03  4.25073E+03  8.46345E+03 -2.38950E+03  4.26384E+03
 -5.71718E+03  5.29153E+03 -4.67439E+03 -1.49175E+03 -1.59063E+03 -2.23781E+03 -3.80926E+03  5.59864E+02
 -2.11357E+03 -5.81449E+03  7.65274E+02 -1.11517E+03 -4.36875E+03  2.23990E+03 -1.56173E+03 -2.56536E+03
  3.02670E+03 -6.65967E+03  2.03847E+03 -6.08006E+02  1.06304E+04  8.12930E+03 -5.38082E+02  2.09542E+03
 -5.50238E+03  9.01112E+03 -7.93157E+03 -9.27927E+02 -1.25349E+04  5.59962E+03 -4.13573E+03 -5.98457E+03
 -5.28627E+03 -8.56679E+03 -5.04899E+03 -8.19099E+03  5.18318E+02 -2.50718E+03  2.71511E+03 -6.69446E+02
  8.46564E+02 -1.52626E+03 -9.87984E+02  6.84198E+03  3.85277E+03 -9.30330E+03  4.41364E+03 -3.93038E+03
  4.90067E+03 -6.47598E+03  4.62147E+03 -1.19682E+03  2.84819E+03  4.23298E+03 -3.32574E+03  6.67572E+02
 -3.23773E+03  5.31929E+03 -5.81815E+03  6.52675E+02 -3.82731E+03 -5.78805E+03 -2.92231E+03 -9.52608E+03
  2.96309E+03 -1.00475E+03  2.49186E+03  4.46917E+02  2.10936E+03  2.87864E+02  5.50596E+03  2.84722E+03
 -3.78011E+03  1.09761E+03 -3.07614E+03  1.73770E+03 -1.35425E+03  6.11694E+03 -4.13972E+03 -3.09095E+03
 -1.31609E+02 -2.60994E+03  2.16301E+03  1.37546E+03  3.31856E+03 -2.06937E+03 -4.43865E+03  1.79719E+03
 -4.96867E+02 -3.73645E+03 -3.10308E+03 -8.13355E+03  4.87393E+03 -3.22775E+02  7.87561E+03  5.41463E+03
  3.40424E+03  1.93150E+03  3.54027E+03  3.19296E+03  5.31265E+02  6.47019E+03 -7.83397E+02  6.11073E+03
