 $NMID ID='MM_0lb_SNR50_17hz_g60_26.RAW', FMTDAT='(8E13.5)'
 TRAMP=1., VOLUME=1. $END
  3.05069E+05  4.21528E+03  3.40424E+05  2.51838E+05  8.39024E+04  3.40761E+05 -1.33724E+05  2.48732E+05
 -1.93414E+05  8.38168E+04 -1.09517E+05 -3.07095E+04  3.40506E+03 -4.99799E+04  5.50785E+04  2.55068E+03
  3.28586E+04  5.02180E+04 -2.12675E+04  7.43352E+04 -6.15127E+04  5.78308E+04 -8.58000E+04  3.12023E+04
 -8.65749E+04 -8.27891E+03 -5.48618E+04 -5.03084E+04 -1.31430E+04 -6.97146E+04  2.83723E+04 -4.62475E+04
  4.69777E+04  9.41624E+03  1.77659E+04  4.75389E+04 -3.02061E+04  4.81165E+04 -6.94939E+04  3.43649E+03
 -5.13496E+04 -5.45066E+04 -8.38658E+03 -8.06542E+04  3.13159E+04 -5.31099E+04  4.60510E+04 -1.53355E+04
  4.48194E+04  1.42999E+04  2.82204E+04  2.76394E+04  1.25136E+04  2.73144E+04 -4.96940E+03  2.95164E+04
 -2.32712E+04  1.80978E+04 -1.94527E+04  2.14315E+02  5.34858E+03 -5.12425E+03  2.42202E+04  1.44507E+04
  4.66404E+03  3.43496E+04 -3.21806E+04  3.61486E+04 -6.44138E+04  6.80099E+03 -5.77745E+04 -4.45072E+04
 -1.17626E+04 -6.31396E+04  4.19857E+04 -4.82702E+04  5.65608E+04 -4.51829E+03  3.05954E+04  3.06587E+04
 -1.95839E+03  3.41465E+04 -3.37901E+04  1.08985E+04 -3.21730E+04 -2.90692E+03 -1.40224E+04 -1.25766E+04
 -3.75884E+03 -1.64333E+04  3.83769E+03 -1.79033E+04  5.24402E+03 -2.66504E+04  1.22513E+04 -1.65771E+04
  1.14161E+04  5.53369E+03 -1.09793E+04  1.77996E+04 -2.50000E+04 -2.09605E+03 -6.76169E+03 -3.39450E+04
  2.03957E+04 -4.36477E+04  4.70646E+04 -2.09974E+04  5.11747E+04  2.21684E+04  1.55219E+04  3.88783E+04
 -1.36740E+04  3.14341E+04 -2.28870E+04  3.99915E+03 -1.03032E+04 -2.53492E+04  2.41195E+04 -3.38129E+04
  4.19950E+04 -8.41996E+03  3.74656E+04  2.15630E+04  1.16678E+04  4.14915E+04 -7.03680E+03  4.76147E+04
 -2.90135E+04  3.39287E+04 -4.28324E+04  9.83483E+03 -4.40668E+04 -1.81343E+04 -1.82263E+04 -3.79123E+04
  6.54016E+03 -3.77500E+04  2.97476E+04 -1.49776E+04  2.94805E+04  1.46632E+04  5.38392E+03  2.04261E+04
 -1.41248E+04  8.28330E+03 -1.22393E+04 -5.18283E+03  5.63488E+03 -8.04933E+03  2.01450E+04  4.15742E+03
  1.40370E+04  1.79976E+04 -4.29169E+03  2.21807E+04 -1.90595E+04  1.00656E+04 -2.63333E+04 -3.39635E+03
 -2.15344E+04 -1.48682E+04 -5.35146E+03 -1.64056E+04  5.39938E+02 -1.41577E+04  1.61556E+04 -1.73914E+04
  2.58877E+04 -1.31797E+04  3.47222E+04  6.72597E+03  2.37935E+04  1.99850E+04  9.50296E+02  3.95384E+04
 -1.62843E+04  3.08725E+04 -2.66286E+04  1.08583E+04 -1.80651E+04 -1.20202E+04 -4.80375E+03 -1.31887E+04
  4.92871E+03  7.00998E+02 -5.28168E+03  6.42134E+03 -1.75154E+04  7.24050E+03 -1.42204E+04 -5.22713E+03
 -9.14205E+03 -1.58510E+04  6.38039E+03 -1.71968E+04  1.78401E+04 -1.80497E+04  1.90957E+04 -3.61076E+02
  1.11120E+04  1.53265E+04  1.70334E+03  2.01715E+04 -9.58849E+03  8.54243E+03 -2.21559E+04 -4.49516E+03
 -1.32539E+04 -1.41246E+04 -8.06775E+02 -2.73046E+04  8.48851E+03 -1.21843E+04  1.45155E+04 -9.37397E+03
  1.25762E+04 -2.68353E+02  1.32983E+04  5.89323E+03  5.21620E+03  2.69556E+03  6.21764E+03  1.94235E+03
  1.52587E+04  3.04847E+03  1.59765E+04  1.46106E+04  1.51303E+04  2.70880E+04 -1.19317E+03  3.07783E+04
 -1.71434E+04  2.16428E+04 -3.25635E+04  7.65703E+03 -3.26312E+04 -9.73851E+02 -2.22134E+04 -2.00867E+04
 -1.42403E+04 -2.89477E+04  1.21051E+04 -2.40905E+04  2.32048E+04 -9.79038E+03  2.16812E+04  6.94756E+03
  1.08748E+04  1.39321E+04 -9.48596E+03  1.07015E+04 -1.50736E+04  4.15328E+03 -8.71632E+03 -7.53364E+03
  1.69138E+03 -1.37874E+04  8.26624E+03 -8.68401E+03  1.18278E+04 -6.28688E+02  2.98329E+03  3.90591E+03
 -5.89950E+03  2.86791E+03 -3.53034E+03 -6.29432E+03  2.13741E+03 -1.17449E+04  1.15930E+04 -1.27731E+04
  1.48751E+04 -4.42406E+03  1.96156E+04  4.62317E+03  7.94403E+03  1.50792E+04  7.39153E+03  1.97477E+04
 -2.18570E+03  1.91119E+04 -7.50559E+03  1.12891E+04 -1.65939E+04  2.75817E+03 -9.49031E+03 -5.15167E+03
 -6.46060E+03 -1.67855E+03  2.11995E+03 -1.73290E+03 -6.62951E+02  1.80088E+03 -2.40877E+03  4.05773E+03
 -1.16547E+04 -1.87500E+03 -9.26329E+03 -7.25322E+03 -2.53619E+03 -9.49896E+03  2.65581E+03 -1.05035E+04
  8.50887E+03 -5.99533E+03  5.74271E+03  3.58434E+03  5.11932E+02  1.70459E+02 -6.11490E+03  9.86802E+02
 -3.50342E+03 -4.82906E+03 -4.86987E+03 -1.08810E+04  7.14392E+03 -6.62076E+03  1.10590E+04 -5.83592E+03
  1.64418E+04 -1.32078E+02  8.47496E+03  6.74065E+03  4.01960E+03  9.82063E+03 -6.42083E+03  1.12644E+04
 -1.02513E+04  5.34695E+03 -1.74021E+03 -1.93023E+03 -1.00765E+03 -5.74154E+03  2.82874E+03  3.19299E+02
  7.47634E+03  6.68936E+03  3.84368E+03  6.50114E+03 -2.68808E+03  5.67908E+03 -1.05875E+04 -5.61989E+02
 -4.38438E+03 -1.00095E+03 -4.26132E+03 -1.25780E+04  4.37773E+03 -3.32521E+03  2.52033E+03 -1.23515E+03
  9.35433E+02  7.19345E+03 -2.73724E+03  5.04186E+03 -3.96147E+03  3.93785E+03 -6.35036E+03  2.60548E+03
 -5.54255E+03 -1.05752E+04  6.00683E+03 -1.22891E+04  1.39075E+04 -5.63232E+03  1.04259E+04 -1.07670E+03
  3.50518E+03  8.68916E+03  8.72044E+02  1.00194E+04 -3.69331E+03  6.70782E+03 -7.44950E+03  3.86539E+03
 -1.02760E+04 -1.16656E+04 -1.02818E+03 -7.86879E+03  4.82040E+03 -3.81957E+02  5.52713E+03  6.19717E+02
  1.27734E+03 -3.20979E+03 -2.10659E+02  1.61385E+03 -5.52608E+02 -6.11355E+01 -1.63952E+03 -4.29738E+03
  3.08270E+03 -6.17626E+02  4.28141E+03  1.08286E+03  7.19168E+03  5.43123E+03  8.90679E+03  7.08774E+03
 -1.59756E+03  4.62030E+03 -8.44814E+03  6.97753E+03 -1.58414E+04  2.44584E+03 -1.25055E+04 -2.37005E+03
 -6.66647E+03 -7.55848E+03  3.69877E+02 -7.18153E+03  1.85014E+02 -5.31177E+03 -2.08929E+03  8.90216E+00
  1.70598E+03 -1.07632E+03 -1.27972E+03 -4.87567E+03  4.97712E+03  2.07163E+02  6.99421E+03  3.02996E+03
  4.44987E+03  3.79223E+03  3.56859E+03  7.98364E+03 -2.64645E+03  1.96888E+03 -2.06882E+03 -7.19446E+02
 -6.16906E+03  4.44594E+02  5.24855E+02 -3.52419E+03  6.72560E+01 -6.83853E+03 -3.62550E+03 -5.71440E+03
  6.33969E+03 -3.23940E+03  1.03634E+04  2.07312E+03  6.78939E+03  7.34919E+03 -4.05285E+03  5.21271E+03
  3.29565E+03  5.58002E+03 -7.17886E+03  2.04358E+02 -2.87228E+03 -1.41164E+03 -2.12221E+03  1.39916E+02
  2.03397E+03  2.43003E+03  9.08859E+02  1.41337E+03 -2.36969E+03  3.32175E+03 -5.17708E+03  6.38573E+02
 -5.09476E+03 -2.19487E+03  1.55407E+03 -7.52127E+03  1.09827E+03 -2.91027E+03  4.13825E+03 -2.40567E+03
  2.38243E+03  4.11405E+03  1.37087E+03  4.31839E+03  9.07191E+02  7.56135E+03 -3.71503E+03  3.24859E+03
 -8.22934E+03  2.53675E+03 -4.49454E+03 -4.53445E+03 -2.43355E+03 -8.21432E+02 -2.61605E+03 -3.17179E+03
  4.87988E+03 -2.86380E+03  4.22682E+03  1.05380E+03  3.44442E+03  4.35270E+03  3.62972E+02 -8.05970E+02
  3.85004E+03 -4.15788E+03  4.76932E+03  9.02182E+02 -4.60403E+03  5.43325E+03  4.26378E+03  3.84809E+03
  1.42795E+03  6.63659E+03 -1.64941E+03  3.58155E+03 -3.50800E+03  1.67515E+03 -7.97405E+03  8.15298E+02
 -5.62969E+03 -1.23918E+04  2.21622E+03 -7.18687E+02  3.79194E+03 -6.29629E+03  6.90222E+03 -2.73241E+02
 -1.23100E+03  1.43686E+03  1.69201E+02  2.06753E+03 -4.56822E+03  3.39805E+03 -8.51334E+02 -9.77581E+02
  1.44156E+03  5.40251E+02 -8.90523E+00 -1.78966E+03 -1.30740E+03 -3.41002E+03  4.79196E+03 -1.22643E+03
 -2.51999E+02  8.55778E+02  1.97388E+02  1.26536E+03  2.38738E+03  2.74196E+03  1.67155E+02 -3.87605E+02
  3.17436E+03 -2.63001E+02  4.77408E+03  3.24940E+03  2.51253E+03 -1.18906E+03 -2.31930E+03  4.49013E+03
  6.75603E+02  1.48789E+03 -3.60689E+03  1.08241E+03 -4.24675E+03 -9.05380E+03  7.10284E+02 -1.89235E+03
 -2.97483E+03 -3.16294E+03  2.11402E+02  4.39776E+02  5.58468E+03  4.18133E+02  2.61503E+03  9.98803E+02
 -7.75118E+02 -2.67067E+03 -4.39042E+03 -2.30114E+02 -4.04975E+03 -1.90982E+02 -1.71426E+03 -3.06449E+03
  8.22125E+02  1.86589E+03  3.77254E+03  8.88983E+02 -4.97987E+02 -7.53662E+02  5.66804E+02 -7.69429E+02
 -1.32474E+02  3.02369E+03 -1.09766E+03 -2.35418E+03  4.96707E+03  4.37919E+03  1.16439E+03 -1.52465E+03
  2.53060E+03  6.79212E+02  2.90811E+03 -2.63248E+03  4.00210E+03  2.26439E+03  2.45074E+03 -9.91580E+02
 -5.50150E+02 -1.55033E+03 -4.31268E+03  3.42183E+03  1.74661E+03 -2.39024E+03  9.00659E+02  2.14451E+02
 -3.07819E+03 -1.06904E+03  3.33101E+03  6.42122E+02 -5.35657E+03  4.16177E+03 -7.61097E+02  2.01212E+03
 -1.30997E+03  5.48521E+03 -1.29473E+03 -1.21366E+03 -3.44176E+03 -1.01595E+03 -4.15370E+03 -2.65291E+03
 -2.07874E+03 -5.53479E+02 -4.52242E+03  1.10603E+02 -5.58704E+03 -4.38149E+03 -7.68587E+02 -2.63274E+02
 -4.85919E+02 -3.76896E+03  1.35101E+03 -1.98208E+03 -1.48515E+03 -3.08616E+03  2.06689E+03 -6.17208E+03
  2.30646E+03 -7.59267E+02  4.57812E+03  2.29780E+03 -2.40002E+03  2.42923E+03 -2.23618E+03 -1.64820E+03
 -2.29065E+03 -1.77472E+03  1.24950E+03 -5.26587E+02 -7.53469E+02 -2.76950E+03  1.77465E+03  7.21536E+02
 -1.53866E+03 -2.25316E+03  9.25083E+02  1.75933E+03 -6.35964E+02  2.46369E+03 -4.26932E+02 -2.24612E+03
 -7.31245E+02 -2.72673E+03 -8.08681E+02 -2.90313E+03  1.28450E+03  3.86855E+02  3.95870E+03  8.70170E+02
 -2.54128E+03  2.15539E+03  2.74058E+02  3.80748E+03 -3.37432E+03  1.81561E+03 -2.76239E+03  4.33719E+02
  9.08603E+02 -2.20599E+03 -4.05158E+03  4.59116E+02 -1.68893E+03 -5.17002E+03 -8.96535E+02 -6.16678E+02
  2.44572E+03  4.40911E+03  2.73534E+03 -2.62530E+03 -1.73814E+03 -1.53087E+03  6.74820E+02 -1.06429E+03
  2.52306E+02 -5.58318E+02  3.53816E+01 -1.17710E+03 -7.22402E+02  1.24652E+03  5.58975E+02  1.48122E+03
  1.95781E+03 -1.04866E+03 -3.97737E+03  8.79980E+02 -3.28109E+03 -3.68064E+03  8.50801E+02 -7.97881E+02
 -2.24276E+02 -1.18208E+03  1.10392E+03 -4.45271E+02  1.08792E+03  1.99346E+03  2.81067E+03  1.40737E+02
 -7.69016E+02  1.92726E+03  9.59084E+02  2.41384E+02 -3.29857E+03  5.70735E+03  6.45403E+02  9.37533E+01
  5.36584E+02 -2.29487E+03 -5.08777E+03  2.07025E+03 -1.19835E+03 -1.24974E+03 -1.37665E+03  4.31746E+03
  1.59757E+03 -2.14428E+03  2.85992E+03 -8.48788E+02 -1.02854E+03 -5.60627E+03  7.65401E+02 -4.27366E+03
  1.50846E+03  9.44993E+02 -5.22573E+02 -7.65658E+02 -2.06197E+03 -1.05046E+03  5.99685E+02  1.86656E+03
