 $NMID ID='MM_0lb_SNR50_8hz_g50_51.RAW', FMTDAT='(8E13.5)'
 TRAMP=1., VOLUME=1. $END
  3.06988E+05  4.27263E+02  3.38023E+05  2.45011E+05  8.39748E+04  3.42503E+05 -1.29098E+05  2.49444E+05
 -1.88362E+05  8.33673E+04 -1.10225E+05 -2.74459E+04 -4.40943E+03 -5.10917E+04  5.38971E+04 -4.07820E+03
  3.63779E+04  4.68897E+04 -1.49889E+04  7.34978E+04 -6.07143E+04  6.91976E+04 -9.29064E+04  3.47511E+04
 -8.60485E+04 -1.08393E+04 -5.79590E+04 -5.56714E+04 -1.04736E+04 -6.34741E+04  3.43420E+04 -4.61675E+04
  4.10626E+04  7.84289E+02  1.75407E+04  5.34653E+04 -3.32594E+04  4.49829E+04 -6.85119E+04 -5.27504E+03
 -5.45414E+04 -6.08232E+04 -1.30037E+04 -7.50107E+04  3.50206E+04 -5.76276E+04  4.89983E+04 -2.02252E+04
  4.63215E+04  1.11997E+04  3.44701E+04  2.46471E+04  1.49308E+04  2.34149E+04 -4.73838E+03  2.62302E+04
 -1.69265E+04  2.68899E+03 -1.48686E+04 -2.14448E+03  1.22036E+04 -1.29625E+04  2.14776E+04  7.65911E+03
  1.04017E+04  4.04032E+04 -2.75082E+04  4.15462E+04 -6.53982E+04  2.72448E+03 -5.70750E+04 -4.07525E+04
 -9.88553E+03 -6.74904E+04  4.13402E+04 -4.88887E+04  5.79357E+04  9.51404E+02  4.08863E+04  3.95398E+04
 -6.88592E+03  3.57277E+04 -3.25020E+04  1.98344E+04 -3.56480E+04  1.52093E+02 -1.25775E+04 -1.46728E+04
 -1.22366E+04 -1.86768E+04  7.69202E+03 -1.32637E+04  1.02937E+04 -2.58703E+04  1.88825E+04 -1.85695E+04
  1.26206E+04  5.55133E+03 -1.00709E+04  9.81438E+03 -2.41336E+04 -1.57212E+03 -1.23440E+04 -3.54059E+04
  3.17588E+04 -4.64361E+04  5.42419E+04 -2.09175E+04  4.79687E+04  2.47349E+04  1.52377E+04  5.10558E+04
 -2.52251E+04  3.93616E+04 -2.48761E+04  4.24036E+03 -1.68451E+04 -2.70687E+04  2.94416E+04 -4.05374E+04
  4.47754E+04 -1.62452E+03  4.98916E+04  2.08089E+04  1.99365E+04  5.43047E+04 -1.21772E+04  5.64066E+04
 -4.12966E+04  3.33160E+04 -4.58123E+04  1.02233E+04 -5.22068E+04 -1.89756E+04 -2.09441E+04 -4.43368E+04
  8.26383E+03 -4.58475E+04  3.34664E+04 -1.32732E+04  2.32666E+04  5.70964E+03  2.63474E+03  2.12643E+04
 -9.61559E+03  1.21929E+04 -1.25748E+04 -1.09538E+04  3.87233E+03 -1.18515E+04  1.88167E+04  1.45744E+03
  1.68967E+04  1.95005E+04 -1.05085E+04  3.22400E+04 -2.28391E+04  1.93561E+04 -3.08757E+04 -1.08191E+03
 -3.06033E+04 -2.19080E+04 -1.16730E+03 -2.78104E+04  1.46842E+04 -3.13630E+04  1.63005E+04 -2.38426E+04
  3.49785E+04 -2.36533E+04  4.13872E+04  6.66339E+03  2.38572E+04  1.77474E+04  1.05596E+04  4.51583E+04
 -2.65684E+04  3.56670E+04 -3.04519E+04  1.48521E+04 -2.54076E+04 -7.43811E+03 -6.38919E+03 -1.21384E+04
  9.49044E+02  6.15126E+02 -5.84351E+03  2.35423E+02 -2.55707E+04  2.90471E+03 -2.26657E+04 -8.71484E+03
 -5.59129E+03 -2.95648E+04 -5.14630E+02 -3.11491E+04  1.64221E+04 -1.35844E+04  2.19708E+04 -2.99520E+03
  1.29664E+04  5.13500E+03  1.90045E+03  2.08138E+04 -1.49539E+04  1.75704E+04 -2.35744E+04 -1.09101E+04
 -1.26312E+04 -2.49913E+04 -2.16279E+03 -2.67039E+04  6.86236E+03 -2.68901E+04  1.98109E+04 -8.19090E+03
  2.22889E+04  3.94552E+03  1.57517E+04  7.98449E+03  7.78186E+03  6.38152E+03  1.13506E+04 -3.76119E+03
  2.38293E+04 -6.29579E+02  3.04224E+04  1.71140E+04  1.60021E+04  3.66874E+04 -3.46419E+02  4.37106E+04
 -2.62716E+04  3.25594E+04 -4.17394E+04  2.46014E+04 -5.33283E+04 -7.91666E+03 -3.77916E+04 -2.60495E+04
 -8.15657E+03 -3.67452E+04  8.38049E+03 -3.24147E+04  2.73072E+04 -1.25942E+04  1.78513E+04  8.00857E+03
  6.21656E+03  1.46709E+04 -1.11050E+04  1.34698E+04 -2.08376E+04  1.10199E+04 -1.67327E+04 -1.72528E+04
 -9.40464E+03 -2.02600E+04  1.03338E+04 -1.13312E+04  6.51515E+03  1.93896E+03  4.68450E+03  9.26602E+03
 -1.42445E+04 -4.34055E+03 -7.76700E+03 -5.22878E+03 -3.78877E+03 -2.46097E+04  6.46716E+03 -1.42132E+04
  2.18916E+04 -1.15622E+04  2.81394E+04  5.84615E+03  2.54649E+04  2.09533E+04  9.40292E+03  3.23669E+04
 -5.13012E+03  2.99262E+04 -1.97335E+04  2.48537E+04 -2.34772E+04  4.38935E+03 -9.07549E+03  1.30666E+03
 -1.07931E+04 -4.37118E+03 -1.03435E+03 -1.72086E+03 -6.07252E+03  2.09296E+03 -1.43035E+04 -2.27006E+03
 -1.27378E+04 -2.13550E+03 -1.92834E+04 -1.52452E+04 -2.77561E+03 -2.18642E+04  1.77838E+03 -2.47221E+04
  1.94633E+04 -2.39104E+03  1.09033E+04  5.24632E+03  5.22245E+03  7.85584E+03 -3.03264E+03  1.55546E+03
 -1.12014E+04 -7.65442E+03  4.93565E+03 -9.75635E+03  3.46003E+03 -1.20350E+04  2.64674E+04 -6.40645E+03
  2.61126E+04  7.49568E+02  2.06261E+04  9.14389E+03  5.57472E+02  1.92397E+04 -6.22325E+03  1.60406E+04
 -2.16447E+04 -3.76958E+03 -3.43930E+03  9.74588E+02 -6.14618E+03 -7.59124E+03  9.71834E+03  3.31542E+03
  7.29778E+03  1.26101E+04  1.26331E+03  6.01631E+03 -6.08897E+03  1.69757E+04 -2.31031E+04  4.57875E+03
 -1.26728E+04 -7.40544E+03 -4.99922E+03 -1.36661E+04  1.48011E+04 -6.04415E+03  1.53936E+04  8.89129E+03
 -1.74068E+03  7.73915E+03 -7.51230E+03  1.20652E+04 -1.34895E+04  8.57776E+03 -1.46075E+04 -5.71552E+03
 -9.36012E+03 -2.11615E+04  7.62425E+03 -2.25071E+04  1.43665E+04 -8.71023E+03  1.48785E+04  3.28696E+03
  1.54248E+04  2.28808E+04 -6.06719E+02  2.10004E+04 -1.26096E+04  1.27860E+04 -1.39757E+04 -9.28773E+03
 -1.76699E+04 -2.17987E+04 -3.02235E+03 -1.09929E+04  2.66327E+03 -1.26795E+04  1.06132E+04 -1.88175E+03
  5.45077E+03 -2.82701E+03 -7.25938E+03  4.36838E+02  4.61549E+02 -1.41055E+03  2.18725E+03 -1.82470E+04
  1.61560E+04 -1.09757E+03  2.23578E+04  8.16283E+03  1.22466E+04  9.27572E+03  1.08788E+04  2.18632E+04
  7.71943E+02  2.75986E+04 -2.24788E+04  2.13202E+04 -2.74691E+04  3.05488E+03 -2.60942E+04 -8.91525E+03
 -1.76377E+04 -2.01693E+04 -4.26337E+03 -2.01623E+04  8.01535E+03  4.38007E+02  2.93040E+02 -2.76175E+03
  6.69174E+03 -2.98534E+03  3.91036E+03 -2.48283E+03 -1.24217E+03 -1.20419E+04  7.49287E+03 -7.03866E+03
  1.85994E+04 -7.01257E+02  7.26783E+03  1.64181E+04 -2.38325E+03  1.22522E+04 -1.23788E+04  3.98271E+03
 -1.83368E+04  2.07742E+03 -1.26611E+04 -1.42513E+04 -4.97399E+03 -2.39664E+04  1.50437E+04 -1.63356E+04
  1.48005E+04 -7.40616E+03  2.10876E+04  4.47605E+03  1.95506E+04  1.19140E+04  5.00545E+03  1.58671E+04
 -7.84995E+03  2.24948E+04 -5.63561E+03  4.49535E+03 -1.06228E+04 -4.74199E+03 -4.47187E+03 -4.50956E+02
  1.40394E+03 -7.05050E+02 -4.53284E+03 -7.74682E+02 -1.54206E+04  2.39322E+02 -1.63283E+04 -1.20691E+03
 -5.69850E+03 -8.32632E+03  2.05437E+03 -1.49431E+04  8.09083E+03 -1.24121E+04  1.69076E+04 -7.80979E+03
  1.24552E+04  1.37285E+04  8.83971E+03  1.49382E+04 -2.03546E+03  1.70541E+04 -1.06717E+04  4.72579E+03
 -1.67643E+04 -4.78903E+02 -1.48397E+04 -1.37352E+04 -1.32103E+03 -8.18645E+03  8.21651E+03 -8.81629E+03
  1.22123E+04 -2.13742E+03  3.40342E+03  9.82466E+03  1.53753E+03  4.77810E+03 -6.43840E+02  2.67852E+03
  9.97472E+03 -9.32083E+02  4.29716E+03 -3.59672E+03  7.38462E+03  5.45275E+03 -2.18108E+03  1.83444E+04
 -8.12291E+03  1.08670E+04 -1.34295E+04  1.02307E+04 -1.78774E+04 -2.46388E+02 -2.11495E+04 -6.19274E+03
 -5.87267E+03 -2.05583E+04  4.96785E+03 -2.14829E+04  6.90924E+03 -9.20523E+03  1.53981E+04 -6.12603E+03
  1.36283E+04  3.68311E+03  3.75704E+03  1.07671E+04 -2.01490E+03  1.62803E+03 -6.17395E+03 -5.21566E+03
 -4.04469E+03 -1.09170E+04  2.08972E+03 -1.08059E+04  9.01454E+03 -2.29540E+03  9.18014E+03 -6.38437E+03
 -1.73573E+03  1.36183E+04 -3.34901E+03  4.95621E+03  2.09525E+02  7.66387E+03 -5.78536E+01  3.17915E+03
  1.17024E+03  1.10541E+03  5.90150E+01 -2.55069E+03  5.95512E+03  9.67192E+03 -3.20093E+03  7.25137E+03
 -6.12596E+03  1.66030E+01 -1.77833E+04  1.67526E+03 -7.59933E+03 -7.91238E+03 -2.81934E+03 -1.00191E+04
 -3.69140E+00 -6.28047E+03  6.83095E+03 -4.36888E+03  5.68388E+03 -2.17835E+03 -3.39844E+03  1.32260E+04
 -7.85451E+03  9.78084E+02 -3.67510E+03 -7.02478E+03 -3.26490E+03 -6.15164E+03 -1.88499E+03 -9.12837E+03
  5.84628E+03 -8.03664E+03  1.00538E+04  7.18628E+02  1.02104E+04  7.82834E+03  6.08668E+02  7.91834E+03
 -9.40961E+03  1.60784E+03 -6.51837E+03 -2.29674E+03 -3.35525E+03 -9.76794E+03  1.14123E+04 -8.52750E+03
  1.27596E+04  3.40445E+03  1.61030E+04  1.21925E+04  2.69940E+03  1.06588E+04 -1.25030E+04  1.21221E+04
 -8.40887E+03  1.57773E+03 -1.25430E+04  4.04588E+03 -8.29642E+03 -1.15452E+04  4.07337E+03 -6.75488E+03
  1.23720E+04  2.42607E+03  6.92154E+03  1.14600E+02  2.77320E+03  1.09641E+04 -2.63943E+02  6.60033E+03
 -5.49855E+03  3.62806E+03  1.91061E+03  7.24503E+03 -3.62035E+03  2.12757E+03 -5.16348E+03  6.19543E+03
  2.93509E+01  5.03236E+03 -6.39756E+03  6.30386E+03 -1.10649E+04  6.13734E+03 -1.46890E+04 -8.14612E+03
 -8.83888E+03 -1.35918E+04  3.90449E+03 -2.00465E+04  1.14046E+04 -1.39684E+04  1.73234E+04 -5.14288E+01
  1.81322E+04  5.96859E+03  1.01407E+04  9.07700E+03  4.62609E+03  1.78294E+04 -7.18400E+03  5.34036E+03
 -6.02252E+03  3.44092E+02 -4.44077E+03 -6.70135E+03  7.08976E+03 -6.12721E+03 -7.39256E+02  3.75635E+03
  4.16232E+03  3.16816E+03 -8.56069E+03 -1.61916E+03  3.15783E+03  2.03376E+03 -4.54394E+03 -1.41977E+04
  8.19138E+03  3.75571E+03  8.94691E+03 -7.06440E+03  1.04921E+04  1.13090E+04  1.58767E+03  1.00118E+04
 -8.25398E+03  9.59851E+03 -7.43289E+03  7.58992E+03 -1.49354E+04 -2.31942E+03 -9.01029E+03 -9.72883E+03
 -4.43028E+03 -1.30217E+04  3.63014E+03 -1.10000E+04  2.26311E+03 -1.14205E+04  9.13184E+03  2.07249E+03
  7.90863E+03  5.50751E+03  1.86774E+03  1.24117E+03 -4.58982E+03  6.04171E+03  5.93499E+03 -4.04082E+03
  8.92979E+03 -4.31937E+03  1.84019E+03 -1.29667E+03  6.37408E+03  7.03940E+03  2.29068E+03  8.39373E+03
 -1.87604E+03 -1.81263E+03 -9.13735E+03 -9.08795E+03 -8.98499E+03 -4.04953E+03  2.20804E+02 -1.00641E+04
  6.28272E+03 -3.22544E+03  8.02445E+03 -3.93409E+03  1.51639E+04  6.17505E+03  1.05831E+04  8.05538E+02
  1.91804E+03  1.35377E+04 -2.83390E+03  3.75695E+03 -2.59577E+01  8.64753E+01  6.64714E+02 -2.91621E+03
 -4.92130E+03  5.14054E+03 -4.45865E+03 -3.80874E+03 -6.63672E+03 -1.76124E+03 -4.60673E+03 -6.08901E+03
 -1.36758E+04 -5.47197E+03 -5.68453E+03 -1.25939E+04 -4.77561E+03 -9.66163E+03  2.23453E+03 -5.24938E+03
  1.43812E+04 -5.05296E+03  8.15145E+03  1.02678E+04  5.87591E+03  6.58141E+03 -7.50582E+03  1.02572E+04
