 $NMID ID='MM_0lb_SNR50_12hz_g45_7.RAW', FMTDAT='(8E13.5)'
 TRAMP=1., VOLUME=1. $END
  3.06936E+05  2.29736E+03  3.39938E+05  2.45050E+05  8.73675E+04  3.41872E+05 -1.34345E+05  2.50889E+05
 -1.87256E+05  8.36810E+04 -1.08333E+05 -3.19251E+04  2.18481E+03 -4.96613E+04  4.85225E+04 -4.07751E+03
  3.53432E+04  4.98959E+04 -1.58573E+04  6.95171E+04 -5.64355E+04  6.88519E+04 -8.57168E+04  3.62487E+04
 -8.52423E+04 -9.95714E+03 -5.61385E+04 -5.43934E+04 -1.28271E+04 -7.37346E+04  2.84053E+04 -4.38876E+04
  3.65603E+04 -3.68615E+03  1.58808E+04  4.38209E+04 -3.38391E+04  4.41233E+04 -6.76496E+04 -4.40505E+03
 -5.63873E+04 -5.79959E+04 -1.25650E+04 -7.19795E+04  3.46673E+04 -5.82477E+04  4.74779E+04 -2.07827E+04
  4.68469E+04  9.37518E+03  2.99470E+04  2.41522E+04  1.36730E+04  2.56704E+04 -4.51579E+03  2.45296E+04
 -1.94867E+04  1.67441E+04 -2.40858E+04 -1.02818E+04  3.94659E+03 -4.64145E+03  1.94397E+04  1.06317E+04
  4.81885E+03  4.08305E+04 -3.32810E+04  3.77629E+04 -6.83357E+04  3.30212E+03 -5.92101E+04 -3.98782E+04
 -1.33957E+04 -6.63314E+04  4.30205E+04 -4.70907E+04  6.28705E+04 -3.48740E+03  3.45352E+04  3.06558E+04
  6.40634E+02  3.88380E+04 -2.88434E+04  2.04603E+04 -3.50937E+04 -5.17644E+03 -1.38735E+04 -1.18991E+04
 -7.38399E+03 -1.51412E+04  5.60364E+03 -1.44741E+04  9.25231E+03 -2.05321E+04  1.20498E+04 -1.70946E+04
  1.31415E+04  1.21131E+04 -1.12095E+04  1.68291E+04 -2.04929E+04 -8.46723E+03 -1.09261E+04 -3.51432E+04
  2.84438E+04 -4.23165E+04  4.54495E+04 -2.47525E+04  4.56503E+04  1.72376E+04  8.61882E+03  3.83780E+04
 -1.83712E+04  3.15818E+04 -2.88942E+04  1.12103E+03 -8.16522E+03 -2.94004E+04  1.83694E+04 -3.30554E+04
  4.16552E+04 -1.50858E+04  3.25028E+04  2.62949E+04  1.44257E+04  4.75457E+04 -2.09097E+03  5.45695E+04
 -3.71313E+04  3.32910E+04 -4.93633E+04  7.13829E+03 -4.43279E+04 -2.24470E+04 -2.71604E+04 -4.11862E+04
  7.76075E+03 -3.57863E+04  3.14949E+04 -2.04829E+04  3.41935E+04  1.26242E+04  5.86352E+03  2.05615E+04
 -1.03076E+04  4.90536E+03 -8.63944E+03 -6.17908E+03  5.87004E+03 -7.46337E+03  1.53078E+04  6.22053E+03
  1.64504E+04  2.65371E+04 -8.66347E+03  3.24737E+04 -2.07268E+04  1.30437E+04 -2.86827E+04 -5.68549E+03
 -2.51582E+04 -2.18563E+04 -7.62274E+03 -2.43474E+04  1.43798E+03 -2.15354E+04  1.12290E+04 -2.50136E+04
  2.52629E+04 -1.36452E+04  3.17430E+04  6.54909E+03  2.33749E+04  1.88712E+04  7.79418E+03  3.91426E+04
 -1.79600E+04  2.94576E+04 -3.05804E+04  1.01406E+04 -2.11124E+04 -1.43634E+04 -1.72108E+03 -9.08635E+03
  5.72767E+03 -2.15970E+03 -7.68960E+03  7.39660E+03 -1.70841E+04  6.04790E+03 -1.66995E+04 -9.88832E+03
 -1.07747E+04 -2.24460E+04  3.53749E+03 -2.92785E+04  1.29083E+04 -1.82196E+04  2.45826E+04 -9.13817E+02
  1.13194E+04  1.06108E+04 -2.05102E+03  2.20005E+04 -1.61785E+04  1.00212E+04 -1.88425E+04 -3.80386E+03
 -1.31349E+04 -1.69095E+04  2.27641E+03 -2.17715E+04  8.94174E+03 -1.35602E+04  1.76429E+04 -1.00106E+04
  2.12797E+04 -2.62546E+03  1.06204E+04  6.61151E+03  1.06168E+04  2.27403E+03  9.73786E+03 -3.49304E+02
  1.69541E+04  3.79784E+03  2.40452E+04  1.52896E+04  8.76843E+03  3.82865E+04 -4.41025E+03  3.39062E+04
 -2.20291E+04  2.86205E+04 -3.43364E+04  1.03371E+04 -3.17082E+04 -2.21677E+03 -3.44087E+04 -1.99692E+04
 -5.10934E+03 -3.16156E+04  9.27394E+03 -3.09798E+04  2.09811E+04 -1.17791E+04  2.54153E+04  3.59905E+03
  7.46974E+03  1.66082E+04 -1.39070E+04  1.56989E+04 -2.03710E+04 -4.97125E+02 -5.18235E+03 -1.28537E+04
  4.48576E+03 -2.06906E+04  4.91130E+03 -1.67901E+04  1.11737E+04 -1.66470E+03  2.07696E+03  1.34335E+04
 -6.29773E+03  2.60733E+03 -7.23866E+03 -3.64605E+03  3.40306E+03 -1.25381E+04  8.86771E+03 -1.92163E+04
  2.00197E+04 -6.82117E+03  2.13545E+04 -1.07533E+03  1.77365E+04  1.98924E+04  8.02637E+03  2.23576E+04
  1.38863E+03  2.92649E+04 -1.38425E+04  1.90812E+04 -2.10626E+04  3.03763E+03 -1.26417E+04 -3.75470E+03
 -5.75261E+03 -5.30495E+03  1.41505E+03  3.29066E+03  1.92221E+03 -2.17886E+03 -8.92613E+03  4.50584E+03
 -1.47592E+04  2.52946E+03 -1.83650E+04 -1.42128E+04 -3.96026E+03 -1.81369E+04  3.16688E+03 -1.20687E+04
  1.34070E+04 -5.05938E+03  8.28347E+03  7.25798E+03  6.36096E+02  2.65970E+03 -5.70483E+03  3.75849E+03
 -5.37158E+03 -7.37752E+03 -1.85039E+03 -1.11327E+04  9.11698E+02 -1.30815E+04  1.95859E+04 -2.01958E+03
  2.07026E+04  7.40795E+03  1.78499E+04  1.17032E+04  3.82035E+03  1.61058E+04 -6.84391E+03  5.43841E+03
 -5.31348E+03  3.19535E+03 -4.11511E+03 -2.20950E+03  3.14170E+03 -7.51590E+03  8.51157E+03  4.99818E+03
  2.49020E+03 -1.52327E+03 -1.61530E+03  7.60044E+03 -6.37634E+03  1.06803E+04 -9.34751E+03  5.31997E+03
 -9.81524E+03 -4.62496E+03  2.25218E+03 -6.96940E+03  5.70813E+03 -5.50369E+03  8.73381E+03  4.38986E+03
  4.26658E+03  4.46645E+03 -9.11084E+03  5.63467E+03 -7.52981E+03  2.35310E+03 -1.05758E+04 -1.84925E+03
 -4.41226E+03 -1.37004E+04  3.72120E+03 -1.32673E+04  1.13798E+04 -1.36561E+04  1.30168E+04  6.16860E+03
  6.75681E+03  7.92835E+03 -1.31269E+03  1.14644E+04 -6.92145E+03  1.10844E+04 -7.52647E+03 -5.45275E+03
 -6.99035E+03 -9.66655E+03 -2.74170E+03 -1.14115E+04 -2.50681E+03 -7.00821E+03  5.46679E+03 -6.12581E+03
  5.81996E+03 -1.33574E+03  5.86761E+03  1.24104E+03 -1.55902E+03  1.13887E+03 -4.04700E+03 -2.81215E+03
  4.62486E+03  3.51188E+02  1.51709E+04  2.64625E+03  1.26604E+04  8.71290E+03  6.53043E+03  1.62469E+04
 -2.89131E+03  1.37016E+04 -1.76837E+04  1.56571E+04 -1.87537E+04  9.09437E+02 -1.07664E+04 -5.46423E+03
 -9.39960E+03 -1.06657E+04 -5.04550E+02 -1.20114E+04  8.83676E+00 -2.20397E+03  1.96016E+03 -1.93761E+03
  6.31947E+03 -4.46792E+03  7.39593E+03 -4.02169E+03  3.04353E+03 -1.43539E+03  6.59354E+03 -6.98987E+02
  9.83929E+03 -4.60192E+02  1.99325E+03  5.50606E+03 -2.49343E+03  4.94376E+03 -7.71191E+03  3.70365E+03
 -1.25981E+04  3.08228E+03 -8.09473E+03 -6.75404E+03 -2.87347E+02 -9.59922E+03  9.78897E+03 -1.26749E+04
  1.32135E+04 -6.62251E+03  1.48126E+04  2.21684E+03  6.91317E+03  5.60016E+03  3.34589E+03  1.32784E+04
 -1.95688E+03  1.55773E+04 -8.26609E+03  1.59334E+03 -6.28774E+03 -5.08443E+03 -5.34160E+03 -2.57563E+03
 -1.19295E+03 -5.91159E+03 -3.16865E+03  4.66064E+03 -4.95368E+03 -2.27268E+03 -7.27790E+03 -4.01537E+03
 -4.84824E+03 -5.76492E+03 -1.19021E+03 -1.18195E+04  6.58102E+03 -1.16839E+04  3.54577E+03 -4.75947E+03
  7.68147E+03  8.92542E+03  4.71470E+03  1.33088E+04  1.53095E+03  7.80092E+03 -6.28428E+03  5.38561E+03
 -1.14377E+04 -1.35738E+03 -5.66701E+03 -8.53818E+03  4.14642E+02 -1.24525E+04  6.72733E+03 -4.66917E+03
  5.65105E+03 -3.68029E+03  2.79734E+03  1.98531E+02  1.72141E+03  2.20117E+03  1.94274E+03 -3.25244E+02
  2.39093E+03 -3.67908E+03 -1.11593E+03 -3.21738E+03  3.98614E+03  1.30168E+03 -1.13047E+03  5.34793E+03
 -6.54558E+02  3.80103E+03 -6.77386E+03  7.65690E+03 -1.03588E+04  1.37575E+04 -1.15028E+04 -1.55953E+03
 -4.50064E+03 -1.03358E+04  8.00806E+03 -8.24443E+03  1.22210E+03 -7.18415E+03  9.18065E+03  2.71149E+02
  2.96491E+03  5.95875E+03 -1.65733E+02  5.11846E+03 -2.42489E+03  6.55049E+03 -2.11168E+03 -2.29244E+03
 -1.86025E+03 -3.21742E+03  4.52350E+03 -4.17760E+02  7.99368E+03 -2.20853E+03  4.52201E+03 -6.45085E+02
  7.67155E+03  5.91704E+02 -1.68999E+02  1.93741E+03  7.09016E+02  7.14402E+03  4.30696E+02  1.72334E+02
  3.74103E+03  3.21052E+03  6.03341E+03  2.34781E+03  6.00465E+03  5.27273E+03 -3.63481E+03  4.25308E+03
 -4.74201E+03  5.67648E+03 -2.80586E+03  1.51455E+03 -5.46339E+03  7.03422E+02 -2.12551E+03 -3.53766E+02
 -4.28430E+02 -4.37996E+03  3.72158E+03  3.86407E+03  4.91688E+03  4.04391E+02  7.65413E+02  3.31244E+02
 -1.81460E+03  6.99087E+03 -2.17043E+03  2.01410E+03 -3.62995E+03 -6.94368E+03 -2.81176E+03 -4.82897E+03
  2.87730E+03 -7.43669E+03  2.42009E+03  7.61644E+02  7.10329E+03 -1.19004E+03  4.97253E+03  4.41436E+03
  2.84834E+03 -3.53078E+03 -1.17414E+03 -3.71227E+03 -1.66865E+03 -5.84838E+03  3.19637E+03 -6.25704E+03
  1.79382E+03 -1.75589E+03  2.44870E+03  4.57033E+03  4.09702E+03  5.51679E+03 -4.97009E+03  8.83610E+03
 -7.30907E+03  8.52154E+03 -2.73329E+03  4.49720E+03 -3.57974E+03 -1.75457E+03  2.73879E+03 -1.53420E+03
  3.84841E+03  4.82524E+02  5.08573E+03  1.83963E+03 -2.70759E+03  9.92956E+03 -6.87907E+03  2.92887E+03
 -4.43439E+01  1.75006E+03 -1.90163E+03  3.10538E+02 -2.05534E+03 -4.13200E+03 -3.70678E+02 -6.89446E+03
  4.46675E+03  2.16614E+03 -9.53826E+03  2.04982E+03 -8.47921E+03 -8.71751E+01 -3.38286E+03 -2.44972E+03
 -1.77664E+03 -6.79235E+03 -5.87070E+02 -1.08304E+04  3.23766E+03 -5.12143E+03  1.15817E+04 -5.19615E+03
  7.31366E+03  4.09432E+03  7.50454E+03  3.76257E+03 -3.95798E+03  8.22169E+03 -5.80088E+03  8.43768E+03
 -1.36328E+03 -6.44098E+02 -3.72667E+03 -4.45583E+03  1.13641E+03 -1.03978E+03  1.37754E+03 -1.49852E+03
 -6.84838E+03  5.38812E+02  2.27838E+03  1.12787E+03  2.27233E+02 -1.50704E+03  3.49521E+03 -7.67497E+03
  2.52983E+03  1.70897E+03  1.76451E+02 -2.28181E+02  7.58585E+03  8.37633E+03 -1.55730E+03  7.25175E+03
 -4.32966E+03  7.20901E+03 -5.17164E+03  9.40131E+03 -1.01117E+04  1.40293E+03 -7.57087E+03 -1.05164E+04
 -3.28120E+03 -6.56055E+03  3.52821E+03 -4.75922E+03  4.23229E+03 -4.40994E+01  2.83002E+03  3.91344E+03
  1.44476E+03  1.16607E+02 -1.26551E+03  8.21818E+02 -1.03582E+03 -2.04514E+03  1.24689E+03 -4.02722E+03
 -2.03803E+03 -2.07750E+03  4.80671E+02 -7.97269E+02  5.35926E+03 -1.33656E+03  3.95049E+03  4.50989E+03
  1.83420E+03 -1.49693E+03 -6.42460E+02 -2.42261E+03 -3.06905E+03  2.78558E+03 -3.15206E+03 -9.86395E+03
  6.44624E+03 -5.74251E+03 -2.58352E+02 -3.49327E+03  7.24128E+03  2.47709E+03  4.22428E+03  3.49082E+03
 -2.20112E+03  3.23870E+03 -5.50740E+03 -2.28025E+03 -5.42527E+03  4.78800E+03 -4.41540E+03 -1.23974E+03
 -2.29619E+03  2.49710E+03  2.60216E+03  3.37791E+03 -4.43121E+03  2.16742E+03 -6.76007E+03  5.23022E+03
  5.85909E+02 -6.02059E+02  1.86530E+03 -1.51902E+03  3.38028E+03 -4.32062E+03  3.12563E+03 -1.10628E+04
  2.25671E+03  1.58328E+03  6.38413E+03  5.73850E+03  3.03294E+03  8.70059E+02 -8.28357E+02  6.45160E+03
