 $NMID ID='MM_0lb_SNR50_16hz_g60_87.RAW', FMTDAT='(8E13.5)'
 TRAMP=1., VOLUME=1. $END
  3.10552E+05 -1.49156E+03  3.36472E+05  2.50848E+05  8.63356E+04  3.33824E+05 -1.31721E+05  2.55106E+05
 -1.87261E+05  8.26232E+04 -1.10533E+05 -3.31103E+04 -4.93687E+03 -4.97492E+04  5.32085E+04 -2.01829E+03
  3.58994E+04  5.27764E+04 -1.62300E+04  7.85538E+04 -6.22838E+04  6.42720E+04 -8.66452E+04  3.61379E+04
 -7.63454E+04 -1.58119E+04 -5.39050E+04 -5.75262E+04 -1.84749E+04 -7.18041E+04  3.13805E+04 -4.76770E+04
  4.29840E+04  6.19076E+03  1.38439E+04  4.79177E+04 -3.58689E+04  4.76135E+04 -6.68199E+04  2.17527E+02
 -5.28130E+04 -5.64437E+04 -7.63816E+03 -7.76140E+04  3.19162E+04 -5.23475E+04  5.14822E+04 -1.74904E+04
  4.46608E+04  1.11564E+04  3.13971E+04  2.87121E+04  9.70036E+03  2.83469E+04 -7.76472E+03  2.27539E+04
 -2.65349E+04  1.77636E+04 -1.78036E+04 -3.68044E+03  1.09824E+04 -8.24118E+03  2.43123E+04  9.96662E+03
  8.73899E+03  3.42500E+04 -3.18430E+04  3.65529E+04 -6.33607E+04  6.23707E+03 -5.83602E+04 -4.33242E+04
 -1.07116E+04 -6.06952E+04  3.78972E+04 -4.60425E+04  5.69238E+04 -2.90886E+03  3.28837E+04  3.34046E+04
 -6.22312E+03  3.48646E+04 -2.79052E+04  1.36927E+04 -2.93788E+04 -1.08600E+04 -1.27100E+04 -1.44221E+04
 -1.42989E+04 -1.18692E+04  7.37699E+02 -1.90229E+04  8.91291E+03 -2.11939E+04  1.70472E+04 -1.02585E+04
  1.34367E+04  5.13463E+03 -6.50860E+03  1.42006E+04 -2.21614E+04 -6.75233E+03 -7.31807E+03 -3.31028E+04
  2.46456E+04 -4.77794E+04  4.72960E+04 -2.37039E+04  4.23998E+04  1.81635E+04  1.47184E+04  4.34021E+04
 -1.77326E+04  3.07617E+04 -1.96401E+04 -4.64514E+03 -7.73367E+03 -3.11170E+04  1.87860E+04 -3.55973E+04
  4.09510E+04 -6.55981E+03  3.50916E+04  2.26479E+04  1.72840E+04  4.96727E+04 -6.12270E+03  5.17946E+04
 -3.07253E+04  2.97205E+04 -4.33012E+04  4.00877E+03 -3.99253E+04 -1.48952E+04 -2.24251E+04 -3.68822E+04
  6.07161E+03 -3.98571E+04  3.21293E+04 -1.61825E+04  3.13392E+04  7.53964E+03  4.36951E+03  1.61573E+04
 -1.12355E+04  1.12449E+04 -1.79008E+04 -6.48992E+03  6.41331E+03 -7.17917E+03  1.78181E+04  1.14027E+04
  1.09576E+04  2.11400E+04 -7.62196E+03  2.38768E+04 -2.26339E+04  7.94264E+03 -2.56381E+04 -1.11923E+04
 -1.77762E+04 -2.33221E+04 -6.69281E+03 -1.94254E+04  3.28293E+03 -1.93121E+04  1.98939E+04 -2.03745E+04
  2.78551E+04 -1.97208E+04  3.09359E+04 -1.03982E+02  2.55639E+04  1.64070E+04  1.44059E+02  3.34160E+04
 -1.74135E+04  3.41566E+04 -2.68372E+04  8.72465E+03 -2.00190E+04 -1.08665E+04 -2.35430E+03 -1.16876E+04
  2.26189E+03  4.58898E+03 -9.74400E+03  5.92912E+03 -1.51095E+04  3.57743E+03 -1.81706E+04 -6.30128E+03
 -1.47848E+04 -1.68516E+04  7.10457E+03 -2.90159E+04  1.96783E+04 -1.98174E+04  1.89439E+04 -4.53053E+03
  1.13138E+04  9.90613E+03 -3.37478E+03  2.13183E+04 -1.05446E+04  1.17526E+04 -1.92016E+04 -8.81762E+03
 -1.02433E+04 -1.83946E+04  1.70451E+03 -2.15507E+04  1.40368E+04 -1.81633E+04  2.14584E+04 -7.34249E+03
  1.90216E+04  5.24273E+03  1.11317E+04  1.10834E+03  6.62179E+03  4.48072E+03  9.05349E+03 -2.70351E+03
  1.73267E+04  1.54965E+02  1.76009E+04  1.65903E+04  1.34416E+04  3.30230E+04 -3.09798E+03  3.03329E+04
 -1.91789E+04  2.97095E+04 -3.12325E+04  1.27886E+04 -3.70625E+04 -2.56779E+03 -2.51115E+04 -1.74572E+04
 -1.36663E+04 -3.12187E+04  5.27725E+03 -2.17834E+04  1.88474E+04 -1.68868E+04  1.57937E+04  3.26735E+03
  7.79506E+03  1.19146E+04 -5.20428E+03  9.28717E+03 -1.71057E+04  5.41464E+03 -1.28022E+04 -7.50573E+03
 -1.31071E+03 -1.33471E+04  1.21080E+04 -8.38451E+03  1.21474E+04  1.33109E+02  7.40735E+02  4.04220E+03
 -4.22533E+03  2.94239E+03 -6.92250E+03 -5.41782E+03 -3.17670E+03 -1.14374E+04  1.16893E+04 -1.11727E+04
  1.79474E+04 -5.44016E+03  2.13076E+04  4.54588E+03  1.18696E+04  1.36161E+04  9.05132E+03  1.55843E+04
 -3.65132E+03  2.03010E+04 -1.11770E+04  9.80400E+03 -1.73287E+04  4.26168E+03 -8.07531E+03 -6.44808E+03
 -7.50171E+03 -1.47255E+03 -9.35818E+03 -3.65814E+03 -6.80108E+03  7.08768E+03 -8.73691E+03  6.74993E+03
 -9.29088E+03  1.43066E+03 -1.08100E+04 -9.64560E+03 -6.98653E+03 -1.81339E+04  6.94661E+03 -1.00421E+04
  1.54108E+04 -3.46952E+03  7.64986E+03  1.88089E+03  6.31572E+02  5.11611E+03 -5.61979E+03 -1.57914E+03
 -4.39205E+03 -4.21278E+03 -5.65249E+03 -7.75678E+03  4.61321E+03 -8.42688E+03  7.41011E+03 -5.73155E+03
  1.57455E+04  2.26387E+03  7.21113E+03  9.64444E+03  1.75267E+03  1.37124E+04 -9.11772E+03  1.78143E+04
 -1.03668E+04  3.66032E+02 -4.59922E+03 -1.25409E+03  5.46409E+03 -3.01564E+03  2.91418E+03  5.51688E+03
  8.44831E+03  4.12048E+02  1.48291E+03  4.50503E+03 -2.41572E+03  1.34431E+04 -7.39693E+03  9.48167E+02
 -7.90583E+03 -4.06057E+03  1.13401E+03 -9.15221E+03  4.10174E+03 -4.64216E+03  6.45391E+03  6.97682E+02
  5.53186E+03  6.10107E+03 -1.01452E+03  6.05956E+03 -9.38211E+03  1.70350E+03 -6.23626E+03  6.20628E+02
 -6.21222E+03 -8.47202E+03  4.28179E+03 -1.07418E+04  1.11927E+04 -6.88111E+03  1.01294E+04 -1.05614E+03
  8.68631E+03  8.08739E+03 -1.62394E+02  1.19595E+04 -9.31296E+03  8.74982E+03 -7.36595E+03 -2.04368E+03
 -4.30692E+03 -4.39528E+03  1.98025E+03 -9.52162E+03  3.92208E+03 -6.80083E+03  7.54264E+03 -8.67485E+03
  2.55059E+03 -5.28380E+02 -6.54605E+02 -1.56516E+03  6.40746E+03 -3.94708E+03 -1.03736E+03 -6.19118E+03
  5.70374E+03 -1.62921E+03  1.44399E+04  5.54591E+03  9.50517E+03  5.80982E+03  1.34482E+04  1.37010E+04
 -2.51680E+03  1.45878E+04 -1.35612E+04  1.03728E+04 -1.14167E+04  5.46987E+03 -1.06913E+04 -3.87884E+03
 -4.88557E+03 -4.15145E+03 -4.16703E+03 -7.82577E+03  1.75826E+03 -6.83101E+03 -5.06962E+02 -3.03379E+03
  4.75153E+03 -3.10407E+03  2.95351E+03  3.32295E+03  5.49131E+03 -5.77470E+03  8.12305E+03  1.80021E+03
  7.26667E+03  4.39073E+03  6.13008E+03  5.22959E+03 -5.18532E+03  4.24323E+03 -9.11539E+02  2.67702E+03
 -1.17165E+04 -5.07620E+03 -2.25834E+03 -4.64210E+03 -4.66000E+02 -1.07981E+04  2.09398E+03 -8.57844E+03
  9.02846E+03 -6.82266E+03  6.92671E+03 -4.13733E+02  7.99251E+03  9.89347E+03  9.68266E+00  6.35051E+03
 -2.61808E+03  1.02262E+04 -4.48426E+03  4.94718E+03 -2.08031E+03  5.16700E+02 -3.58679E+03  3.69779E+03
  8.63275E+02 -1.14274E+03 -4.10740E+01 -5.82352E+02 -6.25038E+03  4.59107E+03 -4.42900E+03 -1.30107E+03
 -5.02094E+03 -8.29469E+03  3.38755E+03 -1.09669E+04  5.74782E+03 -6.34049E+03  4.88546E+03 -3.98180E+03
  9.81025E+03  4.30400E+03  6.72657E+02  6.82816E+03 -3.08148E+03  3.61125E+03 -2.72708E+03  4.55679E+02
 -2.60889E+03  9.74411E+02 -2.70444E+03 -4.89594E+03 -2.30217E+03 -5.89995E+03  4.59103E+03 -1.16675E+02
  3.52662E+03  8.24314E+02  6.92425E+02 -2.70968E+03 -3.02359E+03  8.52148E+03  6.80023E+02 -5.44395E+02
 -1.98048E+03 -8.91135E+02  5.50828E+03  1.00902E+03 -3.69445E+02  7.62543E+03  3.61397E+03  5.41686E+03
 -2.81826E+02  5.28973E+03 -4.20424E+03  3.99675E+03 -5.26822E+03 -1.44026E+02 -6.28190E+03 -2.06181E+03
 -6.60097E+03 -6.28041E+03  1.29919E+03 -8.96825E+03 -3.09002E+03 -3.98350E+03  2.02068E+03 -2.68729E+03
  4.45525E+03 -1.35604E+03  5.28658E+03  3.95645E+03 -2.92398E+01 -5.28417E+03 -3.07152E+03 -4.90240E+02
  5.54793E+02 -3.87945E+03  1.83070E+02 -4.21579E+03 -3.03186E+03  1.79602E+03  1.84789E+03 -2.59000E+03
  1.22176E+03 -3.90558E+00 -1.12549E+03  2.94316E+03 -2.80262E+03  4.84643E+03 -1.05617E+03 -8.96661E+02
  4.27914E+03 -2.80688E+02  3.09457E+03  1.30539E+03 -1.65129E+03  7.03786E+03 -1.74471E+03  4.86874E+02
 -1.83360E+03  1.32864E+02 -2.28485E+02  9.94806E+02 -8.41376E+02 -3.98899E+03 -2.81312E+02  6.48536E+02
 -7.94490E+02 -3.25863E+03  3.41666E+03  1.02610E+02 -5.66293E+03  3.52236E+03  9.39935E+02  4.21776E+03
 -1.59645E+03  2.79524E+02  8.84601E+02 -5.66867E+03 -3.45890E+03 -1.63508E+03 -2.40068E+03 -4.48867E+03
  2.30406E+03 -6.81135E+02 -5.46170E+01  1.49163E+03  5.97092E+03  5.56832E+03  3.98683E+03  1.65385E+03
 -4.18542E+03  6.34034E+02  3.23522E+02 -3.90135E+03  3.56348E+02  3.24697E+03  1.81021E+03 -3.02279E+03
  5.91114E+03  3.20640E+03  3.68345E+03  2.84719E+03  3.90346E+03  4.46629E+03 -1.53817E+02 -5.49135E+02
 -6.72641E+02  5.42799E+02 -1.99820E+03 -4.57209E+03 -3.46035E+03 -2.99783E+03  3.40880E+02 -5.51195E+03
  1.61480E+03 -2.49596E+03  1.06407E+03 -1.29436E+03 -1.34146E+03 -5.11075E+02 -1.99346E+03  4.12537E+03
 -3.08589E+03  1.03252E+03 -5.64500E+03  1.97632E+03  7.86128E+03  2.99594E+03 -3.48790E+03 -2.11155E+03
 -1.11866E+02 -1.80739E+03  4.24392E+03 -2.06255E+03  4.50657E+02 -2.54208E+03 -9.53357E+03  4.49011E+03
  2.06714E+03 -6.17378E+03 -9.00833E+01 -4.80137E+03 -6.60285E+02 -4.03623E+03  4.13800E+03  8.29618E+01
  4.87735E+03 -3.73229E+03 -3.86408E+03  5.64070E+03 -5.41018E+03  3.54236E+03 -3.25883E+03  4.29224E+03
 -1.99817E+03  5.64247E+03  1.14364E+03  3.08206E+03 -1.50627E+03  3.49899E+03  4.80682E+02 -2.05909E+03
 -5.03644E+03  2.64849E+03 -4.73529E+03 -6.23876E+02  8.22837E+02 -2.08507E+03 -2.41962E+03  2.12036E+02
  1.08455E+03 -2.81531E+03  1.11111E+03 -1.96024E+03  4.34764E+02 -1.09818E+03  3.46960E+03  3.18592E+02
 -2.35026E+03  2.99352E+03 -4.00041E+03  2.17682E+03 -3.27293E+03 -1.34581E+03 -5.33286E+03 -4.34051E+00
  6.62929E+01 -5.74907E+02  1.52148E+02 -1.94636E+03 -1.37975E+03  1.92400E+03  4.63681E+03  8.40401E+02
  1.47891E+03  2.21644E+03 -1.41960E+02  8.10322E+02 -2.02750E+02 -2.26442E+03 -2.72884E+03  2.75312E+03
 -1.44475E+03 -4.76450E+02 -5.04274E+02  5.22470E+03  1.30251E+03  1.45395E+03  5.30906E+03  1.92233E+03
  2.65797E+03  3.59590E+03 -3.88570E+03  1.83692E+03 -2.77061E+03 -1.71028E+03  4.13804E+03 -1.27447E+03
  3.93111E+03 -3.87897E+03 -4.48813E+02 -2.71144E+03  1.97321E+03 -1.00285E+03  2.81131E+03  3.15362E+03
 -4.62488E+03  2.27392E+03  2.08507E+03  3.14307E+02  1.15923E+03 -5.52981E+02  5.98900E+02  4.07065E+03
 -2.36839E+03 -8.91201E+02  1.27642E+03  1.65234E+03 -4.13201E+02 -2.58070E+03 -2.09727E+03 -1.77198E+03
 -3.98308E+03 -4.44414E+03 -4.34342E+03 -4.56158E+02  6.06166E+03  1.03766E+03  4.76801E+03 -2.09908E+03
 -6.25584E+02 -7.20919E+01  4.02218E+03 -6.05191E+02 -2.62177E+03 -1.02480E+03 -1.68889E+03  5.71527E+03
