 $NMID ID='MM_0lb_SNR50_12hz_g50_85.RAW', FMTDAT='(8E13.5)'
 TRAMP=1., VOLUME=1. $END
  3.09262E+05  5.38702E+03  3.41503E+05  2.55099E+05  8.52423E+04  3.34663E+05 -1.29928E+05  2.48931E+05
 -1.90007E+05  8.08034E+04 -1.11721E+05 -2.82151E+04 -2.09569E+02 -4.61295E+04  5.05887E+04  4.92223E+03
  3.54807E+04  4.92248E+04 -1.52015E+04  7.72914E+04 -5.74463E+04  6.95700E+04 -8.32902E+04  3.83728E+04
 -8.42624E+04 -1.06845E+04 -6.14750E+04 -5.16890E+04 -1.84650E+04 -6.67848E+04  3.05180E+04 -4.69897E+04
  4.06628E+04  6.74462E+03  1.67143E+04  5.06395E+04 -3.17417E+04  5.02026E+04 -6.58144E+04  6.59441E+01
 -5.29494E+04 -5.87025E+04 -4.18454E+03 -7.89051E+04  3.14806E+04 -5.54822E+04  4.95338E+04 -1.63130E+04
  3.86740E+04  1.11728E+04  3.61976E+04  2.59023E+04  2.20922E+04  3.09809E+04 -3.75394E+03  2.63940E+04
 -2.34703E+04  1.21060E+04 -1.85325E+04 -5.36114E+03  2.94243E+03 -4.05628E+03  2.21595E+04  1.63140E+04
  2.42145E+03  3.81303E+04 -3.23439E+04  3.44550E+04 -6.33613E+04  2.26856E+03 -5.62999E+04 -3.96675E+04
 -6.09758E+03 -6.53663E+04  4.34208E+04 -4.29664E+04  5.91890E+04 -2.03858E+03  3.47884E+04  3.20016E+04
 -1.17978E+04  3.79652E+04 -3.42538E+04  1.42847E+04 -3.02512E+04  1.25380E+03 -1.67921E+04 -6.81816E+03
 -7.05876E+03 -1.20944E+04  3.73054E+03 -1.85379E+04  1.04554E+04 -2.34968E+04  1.38828E+04 -1.36364E+04
  7.77555E+03  5.58284E+03 -1.09268E+04  1.47677E+04 -1.66264E+04 -3.52161E+03 -9.48917E+03 -4.01610E+04
  2.41863E+04 -4.44300E+04  5.46587E+04 -1.87683E+04  4.32969E+04  1.34057E+04  2.01941E+04  4.69682E+04
 -1.24044E+04  3.69708E+04 -2.75872E+04  1.63379E+03 -1.04518E+04 -2.82612E+04  2.18666E+04 -3.84712E+04
  4.65499E+04 -5.59004E+03  3.98076E+04  2.81040E+04  2.14566E+04  5.02798E+04 -1.05850E+04  4.81857E+04
 -3.10153E+04  3.51094E+04 -4.98892E+04  1.39269E+04 -4.61208E+04 -1.41578E+04 -2.95721E+04 -4.30666E+04
  1.45003E+03 -4.30708E+04  2.90855E+04 -1.39720E+04  3.37649E+04  1.46982E+04  8.09511E+03  1.62336E+04
 -1.26424E+04  9.02415E+03 -9.96425E+03 -1.14305E+03  2.08424E+03 -1.25066E+04  1.57024E+04  5.29267E+03
  1.28955E+04  2.20635E+04 -9.59795E+03  2.75168E+04 -2.44911E+04  9.97197E+03 -2.20257E+04 -5.36447E+03
 -1.81831E+04 -2.18579E+04 -7.79726E+03 -1.77517E+04  8.06970E+03 -2.31700E+04  1.98027E+04 -1.81871E+04
  2.49534E+04 -1.60315E+04  3.62328E+04  5.08687E+03  2.43972E+04  2.11533E+04  2.29219E+03  3.56890E+04
 -2.36220E+04  2.94859E+04 -2.87912E+04  9.81413E+03 -2.52807E+04 -9.08803E+03 -4.49204E+02 -1.18123E+04
  1.28985E+03  9.11436E+01 -5.21478E+03  4.81865E+03 -1.25888E+04  5.12971E+03 -1.92647E+04 -1.43662E+04
 -1.40477E+04 -1.81424E+04  3.99303E+03 -2.36003E+04  1.11714E+04 -1.93885E+04  2.10309E+04 -1.05680E+03
  9.14378E+03  1.49662E+04 -1.05420E+03  2.67462E+04 -1.20547E+04  1.69777E+04 -2.42392E+04 -8.23465E+03
 -1.99129E+04 -2.40047E+04 -5.26498E+03 -2.45400E+04  1.48099E+04 -2.51206E+04  1.75501E+04 -8.04274E+03
  1.79658E+04 -2.28655E+03  1.62066E+04  4.03750E+03  1.37920E+04 -1.35903E+03  1.20378E+04 -8.08510E+02
  2.24892E+04  1.74927E+03  2.19904E+04  1.60692E+04  1.75065E+04  3.07356E+04 -1.77652E+03  3.73777E+04
 -2.34195E+04  2.79512E+04 -3.41275E+04  1.66462E+04 -3.98793E+04 -2.79527E+03 -2.86563E+04 -2.05614E+04
 -1.43153E+04 -2.95356E+04  1.35468E+04 -3.02213E+04  2.54051E+04 -9.65110E+03  2.25066E+04  1.30331E+04
  6.50581E+03  1.50195E+04 -1.53632E+04  1.35717E+04 -1.29633E+04 -1.88395E+02 -8.92419E+03 -1.40152E+04
  2.07718E+03 -1.29568E+04  7.75065E+03 -1.25036E+04  1.12156E+04 -4.91635E+02  4.48331E+03  4.29916E+03
 -9.76250E+03  1.24785E+03 -1.64837E+03 -2.16236E+03 -1.16166E+03 -1.13278E+04  1.33898E+04 -1.34388E+04
  1.44492E+04 -9.33315E+03  2.29269E+04 -2.21621E+03  2.09460E+04  1.11434E+04  6.98714E+03  2.15332E+04
  8.61700E+02  2.59220E+04 -1.48085E+04  1.59751E+04 -1.97761E+04  1.25587E+03 -1.44555E+04 -5.31960E+03
 -6.84566E+03 -3.40081E+03 -5.54523E+02  4.47355E+03 -4.16189E+03  3.81281E+03 -7.63099E+03  2.76880E+03
 -7.75807E+03 -1.09259E+03 -1.17839E+04 -9.62653E+03 -4.07966E+03 -1.78609E+04  5.26814E+03 -1.34358E+04
  7.19201E+03 -4.46784E+03  1.00704E+04  8.24273E+03  5.35617E+02  3.40560E+03 -7.67414E+03  5.92254E+02
 -1.28915E+04 -5.50290E+03 -6.06782E+03 -1.56866E+04 -2.85077E+02 -1.41984E+04  1.85100E+04 -8.46755E+03
  2.51164E+04  2.73466E+03  1.46316E+04  1.25355E+04 -6.74895E+01  1.68233E+04 -6.52534E+03  1.04817E+04
 -1.18632E+04  7.86365E+03 -4.01641E+03 -4.01170E+03 -1.27000E+03 -2.34800E+03  8.70540E+03  6.71758E+02
  9.94663E+03  8.20342E+03 -4.98924E+03  9.92412E+03 -9.83752E+03  7.92090E+03 -1.01055E+04 -1.33956E+03
 -1.14376E+04 -1.96353E+03  1.21918E+03 -1.07196E+04  5.82307E+03 -5.07317E+03  7.12302E+03 -1.16963E+03
 -1.47386E+02  1.44476E+04 -4.63924E+03  4.37852E+03 -4.82004E+03  8.46502E+03 -1.53760E+04 -1.94813E+03
 -5.72301E+03 -9.40842E+03  6.36621E+03 -1.32843E+04  1.66401E+04 -8.37285E+03  1.94599E+04 -7.81047E+02
  7.06568E+03  1.11601E+04 -5.95493E+03  1.51492E+04 -1.38047E+04  7.65062E+03 -1.00527E+04 -2.41945E+03
 -9.95357E+03 -1.18826E+04  3.81788E+03 -6.28164E+03  5.68381E+03 -3.11254E+03  3.82129E+03 -4.63931E+03
  4.27394E+03 -7.14337E+02  4.04840E+03  3.37499E+03 -3.70346E+03 -3.25631E+03  2.64599E+03 -2.55480E+03
  1.03890E+04 -5.86090E+03  5.65802E+03  8.28658E+03  4.76350E+03  6.32861E+03  1.17162E+04  1.20450E+04
 -2.27969E+03  1.79071E+04 -1.28090E+04  1.83403E+04 -1.66904E+04  2.14262E+03 -1.99608E+04 -8.92514E+03
 -7.73718E+03 -1.25118E+04 -4.63472E+03 -9.12997E+03  4.37301E+03 -3.03706E+03  7.09918E+03  3.16027E+03
 -8.38903E+02  1.69395E+03  1.98096E+03  9.18022E+01  6.65935E+03 -3.59092E+03  5.03147E+03 -1.21771E+03
  1.08242E+04  9.83581E+02 -4.63069E+02  2.35331E+03  1.23946E+03  1.38442E+04 -4.56795E+03  4.36305E+03
 -8.34198E+03 -5.51189E+02 -5.57005E+03 -7.47628E+03  7.64512E+02 -7.39769E+03  5.92884E+03 -1.02852E+04
  1.09068E+04 -6.33399E+03  1.43589E+04  3.82167E+03  1.15322E+04  1.27397E+04  7.37902E+03  8.72430E+03
 -3.68750E+03  9.07709E+03 -8.88669E+03  5.38171E+03 -4.00537E+03  1.81357E+03 -1.04884E+03 -1.08711E+03
 -4.48640E+03  7.76320E+02  4.34238E+03  7.17238E+03 -4.80998E+03  4.37105E+03 -6.97721E+03 -1.53931E+03
 -6.09631E+03 -5.17324E+03  8.30367E+02 -1.50507E+04  3.23822E+03 -6.02617E+03  6.98095E+03 -5.68111E+03
  9.29346E+03  6.26453E+02  6.93344E+03  1.01810E+04 -1.65337E+03  8.17496E+03 -2.67428E+03  1.13310E+04
 -5.98156E+03  3.72746E+03 -9.45193E+03 -4.63221E+03 -7.39361E+03 -1.59152E+04  3.18197E+03 -8.77885E+03
  2.08291E+03 -1.19833E+03  5.88144E+03  6.20976E+01  2.45285E+03  2.44038E+03 -1.24372E+03  2.17063E+03
  9.84483E+02  1.78423E+02  1.93555E+03  1.19804E+04  3.48288E+03  8.63992E+03  9.78856E+03  4.44575E+03
 -5.56086E+03  5.99228E+03 -1.39067E+04  7.17200E+03 -1.15226E+04  1.58746E+03 -8.42111E+03 -9.21128E+03
 -3.38410E+03 -1.12287E+04  2.91210E+03 -8.45872E+03  1.51586E+03 -8.29690E+03  5.58210E+03 -2.74405E+03
  7.50436E+03  5.42727E+03  4.60757E+03  5.09079E+03  1.25031E+03  1.86709E+02 -9.98922E+03  4.94974E+03
 -3.41941E+03  7.96122E+02  7.15608E+03 -5.71290E+03  7.01117E+03  5.94762E+03  4.54739E+03 -6.10979E+02
  3.10159E+03  6.95321E+02  4.14688E+03  3.49917E+03 -8.28490E+02 -2.34350E+03 -5.97123E+02 -1.03694E+03
  3.57454E+03  1.45493E+02  4.50504E+03  2.21844E+03 -1.30547E+03  2.24495E+03 -1.02667E+03  7.18736E+03
 -2.32567E+03  5.06667E+03 -7.96569E+03  7.66701E+03 -3.13501E+03 -4.50674E+03 -9.67447E+03 -8.09823E+03
 -4.53172E+03 -6.49730E+03  3.77328E+03  2.47236E+03  1.46543E+03  2.57552E+02 -5.85957E+02  2.87502E+03
 -5.55069E+03  2.24118E+03 -1.08249E+03 -2.10920E+03 -5.01601E+03 -3.96592E+02 -2.14397E+03 -6.03737E+03
  2.63449E+03 -3.43999E+03  4.09024E+03  4.63635E+02  6.54492E+02  1.34830E+03  2.91771E+03  5.54054E+03
  1.97617E+03 -9.51312E+02 -4.36386E+03  3.88450E+03  4.18853E+02  7.98361E+02  6.42560E+03 -6.30642E+03
  1.87545E+03  4.48727E+03  2.91345E+03  7.02181E+03  5.13504E+03  1.22362E+04 -3.81148E+03  5.99684E+03
 -1.41313E+03 -7.94168E+02 -6.50608E+03 -9.00986E+02 -3.54894E+03 -1.77434E+03 -5.11288E+03 -5.95267E+03
  6.58375E+03 -5.81396E+03  4.91423E+02  2.28666E+03 -5.52180E+03  3.07804E+03  3.20005E+03  9.71196E+02
 -7.42111E+03  1.56877E+03  2.13466E+03  2.45373E+03 -6.88318E+03  8.12847E+02  2.98262E+03  9.15415E+02
 -9.37694E+03  2.74780E+02 -7.43151E+03  3.11230E+03 -4.02234E+03  6.77363E+02 -7.04222E+03 -2.22375E+03
 -5.33377E+03 -6.74743E+03  1.05297E+03 -1.30298E+04  7.74464E+03 -6.72900E+03  8.36585E+03  3.26169E+03
  8.19665E+03  4.19020E+03  1.00143E+04  6.76408E+03  5.67380E+02  1.06680E+04 -9.00720E+03  4.33740E+03
 -3.31287E+03  4.92817E+03 -3.59395E+03  2.55393E+03 -3.65654E+03  1.49639E+02  6.76670E+02 -9.77187E+01
 -3.65382E+03  5.07395E+03 -7.03607E+02  3.72555E+03  1.36262E+03  4.18550E+03 -1.13807E+03 -2.25728E+03
  9.29752E+02 -4.28983E+03  3.25110E+02  2.54200E+03  9.80914E+02 -2.88265E+03  3.61915E+03  3.88085E+03
 -1.29575E+03  9.15651E+03 -5.67565E+03  5.44858E+03 -7.91356E+03 -3.57386E+03 -9.14085E+03  4.65782E+01
 -2.88011E+02 -7.15790E+03  1.32711E+03 -7.88223E+03  4.69338E+03 -2.89494E+03  1.94392E+03  3.00351E+03
  2.79021E+03  1.69860E+03 -1.32424E+03 -3.22476E+03 -2.94394E+03 -3.14816E+03  1.91767E+03 -3.05213E+03
  1.46271E+03  7.79187E+03  3.32325E+03 -4.46035E+02 -2.69319E+03  2.69962E+03  3.40093E+03  9.51291E+02
  1.01340E+03  5.02907E+03 -1.92593E+03 -3.41398E+02 -2.85164E+03 -2.01731E+03 -2.42524E+03 -3.57322E+01
 -1.51918E+03 -5.17517E+03  2.36571E+03 -1.50093E+02  6.81564E+03  8.04715E+02 -1.75552E+02 -2.35266E+03
  3.55214E+02  6.61714E+02 -2.70314E+03  9.13897E+03 -5.92048E+03 -2.30283E+03 -2.63768E+03 -2.53659E+03
 -5.76167E+03  2.08839E+03 -1.74107E+03  3.28256E+03  2.86416E+01 -4.65659E+03 -1.24191E+03  1.06046E+02
 -4.83809E+03 -7.09534E+03  6.41627E+02 -1.73632E+03 -1.34272E+02  1.03478E+03  1.78097E+03 -7.87502E+03
  5.09294E+03 -3.49241E+03  1.26632E+03  5.18081E+03  4.87132E+03  1.03207E+03  1.52424E+02  5.57648E+02
