 $NMID ID='MM_0lb_SNR50_8hz_g55_2.RAW', FMTDAT='(8E13.5)'
 TRAMP=1., VOLUME=1. $END
  3.06627E+05 -4.23183E+03  3.40322E+05  2.49698E+05  8.76709E+04  3.41475E+05 -1.37055E+05  2.53509E+05
 -1.94223E+05  8.87652E+04 -1.17687E+05 -3.01150E+04 -2.49328E+03 -4.95995E+04  5.53708E+04  8.25928E+03
  3.82978E+04  5.41367E+04 -1.37827E+04  7.39051E+04 -6.75670E+04  5.50297E+04 -8.22105E+04  2.95935E+04
 -8.36732E+04 -1.79020E+04 -5.35217E+04 -5.14070E+04 -1.37777E+04 -7.32104E+04  3.56547E+04 -4.56104E+04
  3.80977E+04  3.56009E+03  1.23178E+04  5.47539E+04 -3.59911E+04  5.14224E+04 -6.80528E+04 -3.44643E+03
 -4.49817E+04 -5.59511E+04 -3.99326E+03 -7.76661E+04  3.76526E+04 -6.40241E+04  4.30603E+04 -1.71446E+04
  5.19050E+04  1.56588E+04  3.79899E+04  2.81290E+04  1.44917E+04  3.21059E+04 -3.64722E+03  2.99986E+04
 -2.64810E+04  1.45839E+04 -1.84944E+04 -3.43624E+03  1.02790E+04 -3.25528E+03  2.46177E+04  2.12241E+04
  1.23779E+04  3.96436E+04 -3.65107E+04  2.81796E+04 -6.58192E+04 -3.68924E+03 -5.73651E+04 -4.61648E+04
 -9.62759E+03 -6.90518E+04  3.78979E+04 -4.93303E+04  6.72838E+04 -1.79483E+03  3.62786E+04  3.41493E+04
 -7.61201E+03  3.90186E+04 -3.73006E+04  1.61038E+04 -3.67398E+04  2.97578E+03 -2.26094E+04 -1.36668E+04
 -8.97431E+03 -1.20537E+04  1.55927E+02 -2.23741E+04  5.35341E+03 -2.10198E+04  2.12118E+04 -1.29853E+04
  1.20213E+04  5.95370E+03 -8.81710E+03  1.70676E+04 -2.13471E+04 -7.73390E+03 -1.37015E+04 -4.13942E+04
  2.96422E+04 -5.50016E+04  5.89605E+04 -2.32215E+04  4.72178E+04  2.32750E+04  1.34935E+04  4.51280E+04
 -1.50656E+04  3.44593E+04 -3.39535E+04  1.51394E+03 -1.19483E+04 -3.21216E+04  2.82883E+04 -3.57675E+04
  4.40878E+04 -1.09544E+04  3.12928E+04  2.47556E+04  1.78656E+04  5.08137E+04 -2.77438E+03  6.01908E+04
 -3.84491E+04  4.44904E+04 -5.56943E+04  1.42101E+04 -4.78385E+04 -1.71817E+04 -3.16126E+04 -4.27681E+04
  1.71648E+03 -4.71460E+04  3.58837E+04 -1.64747E+04  3.61339E+04  1.39541E+04  8.25753E+03  2.20336E+04
 -1.51512E+04  1.21178E+04 -5.90345E+03 -1.27313E+04  1.40060E+04 -8.92774E+03  2.40234E+04  7.99278E+03
  1.42152E+04  2.02481E+04 -7.35433E+03  2.54555E+04 -2.45456E+04  1.37141E+04 -4.10381E+04 -1.61094E+03
 -2.36610E+04 -2.74473E+04 -1.29019E+04 -1.95862E+04  2.99393E+03 -2.78356E+04  2.30895E+04 -2.45956E+04
  3.68669E+04 -1.33749E+04  3.60895E+04 -2.63050E+03  2.63671E+04  2.60291E+04  6.55285E+03  3.45824E+04
 -2.21660E+04  3.34166E+04 -2.75005E+04  1.53317E+04 -1.52474E+04 -1.05750E+04  4.50494E+02 -1.45112E+04
 -5.03431E+03 -3.03423E+03 -7.47068E+03  4.48436E+03 -1.93072E+04  3.82522E+03 -2.37763E+04 -1.27893E+04
 -1.01719E+04 -1.79002E+04  8.13788E+03 -2.90284E+04  2.29334E+04 -1.60495E+04  2.76179E+04 -2.38012E+03
  1.23387E+04  1.15799E+04 -1.28885E+03  2.98661E+04 -2.02143E+04  1.42411E+04 -2.51524E+04 -6.46128E+03
 -2.24179E+04 -1.36162E+04 -6.94846E+02 -2.92235E+04  1.75919E+04 -2.37268E+04  2.64306E+04 -1.74278E+04
  2.26387E+04  9.08542E+02  1.19227E+04  3.14666E+03  8.12611E+03  5.80828E+02  9.02447E+03  6.60232E+03
  2.12822E+04 -4.94108E+03  3.04462E+04  2.12852E+04  1.51113E+04  3.76172E+04  1.84781E+03  4.90625E+04
 -2.85105E+04  4.00275E+04 -4.26873E+04  2.60619E+04 -4.88331E+04 -2.48513E+03 -4.57931E+04 -2.56857E+04
 -1.70438E+04 -4.65541E+04  6.48412E+03 -3.12186E+04  3.55819E+04 -1.22080E+04  2.24462E+04  9.34949E+03
  2.76515E+03  2.00730E+04 -8.47631E+03  2.55885E+04 -1.85574E+04  5.37721E+02 -1.72727E+04 -1.74390E+04
  3.41605E+03 -2.65441E+04  1.66674E+04 -1.87437E+04  1.47636E+04 -5.10360E+03  3.62180E+03  1.14693E+04
 -1.19614E+04  7.72520E+03 -1.71529E+04 -2.48798E+03  1.09084E+03 -2.43334E+04  1.10448E+04 -2.25229E+04
  2.24272E+04 -1.46660E+04  2.62171E+04  3.18942E+03  2.56697E+04  1.70599E+04  1.28453E+04  3.50859E+04
 -7.76208E+03  3.67099E+04 -1.54994E+04  1.82621E+04 -3.04529E+04  6.38392E+03 -1.75909E+04 -5.36207E+03
  6.27512E+02 -1.04162E+04 -1.37802E+03 -3.29981E+03  3.60721E+02  7.81618E+03 -4.44011E+03  1.08993E+04
 -1.19641E+04 -7.60322E+03 -1.98762E+04 -2.13199E+04 -6.14236E+03 -1.73989E+04 -1.95803E+03 -1.79257E+04
  1.00992E+04 -8.48268E+03  1.31656E+04  5.48068E+03 -2.82075E+03  2.85412E+03 -1.34057E+04  4.48254E+03
 -5.59294E+03 -7.71769E+03 -6.07826E+03 -2.08839E+04  1.70493E+04 -2.10334E+04  2.12336E+04 -9.88927E+03
  2.55687E+04  1.61673E+03  2.17830E+04  1.49740E+04  2.88767E+03  2.16177E+04 -6.56395E+03  1.81072E+04
 -1.40078E+04  4.80379E+03 -3.16944E+03 -4.32628E+03  1.09516E+03 -8.35840E+03  5.37457E+03  1.78929E+03
  1.82170E+04  2.29513E+03  7.03025E+02  1.76584E+04 -1.07277E+04  1.47360E+04 -1.69695E+04  4.27919E+03
 -1.49462E+04 -1.05979E+04 -6.63667E+02 -2.05636E+04  9.81430E+03 -7.07135E+03  1.04567E+04  5.11235E+03
 -1.08927E+03  9.74307E+03 -5.95038E+03  1.38767E+04 -1.96923E+04  1.04183E+04 -1.08026E+04 -1.07524E+04
 -9.43112E+03 -1.79333E+04  4.81065E+03 -2.13184E+04  1.26409E+04 -1.72166E+04  2.03756E+04  2.86142E+03
  8.37651E+03  1.94705E+04 -2.25738E+03  1.51723E+04 -1.12127E+04  1.07995E+04 -1.26604E+04  5.40983E+03
 -1.12366E+04 -1.63774E+04  9.63483E+02 -2.08284E+04  8.27392E+03 -1.66457E+04  3.54488E+03 -7.38115E+03
 -4.72182E+03  5.23949E+03 -4.62818E+03  3.16713E+03 -6.57878E+03 -5.34232E+03 -7.55599E+02 -1.94892E+04
  5.56809E+03 -1.18944E+03  2.11203E+04  7.16943E+03  1.67939E+04  1.12445E+04  8.49969E+03  2.05370E+04
 -2.91467E+03  2.58315E+04 -2.73375E+04  1.64834E+04 -3.05806E+04  6.74645E+03 -2.36602E+04 -1.29878E+04
 -1.14926E+04 -1.79413E+04 -2.83411E+03 -1.68323E+04  3.25710E+03 -8.94329E+03  4.30728E+03 -4.38674E+03
  1.16368E+04 -4.14110E+02  6.03224E+03 -5.49727E+03  5.16201E+03 -7.54877E+03  9.77797E+03  5.72370E+03
  1.45532E+04  8.75167E+03  4.45471E+03  4.65704E+03 -4.87286E+03  1.29318E+04 -1.96667E+04  5.01505E+03
 -1.52163E+04  1.18062E+02 -1.31685E+04 -1.28553E+04 -5.01068E+03 -1.51399E+04  1.06906E+04 -1.92088E+04
  2.03779E+04 -5.77799E+03  2.68721E+04 -3.94374E+03  1.63687E+04  1.77205E+04  6.68816E+03  1.80318E+04
 -5.59513E+03  1.82313E+04 -1.23827E+04  4.40190E+02 -9.39947E+03 -4.17697E+03 -8.78506E+03 -7.05202E+03
 -3.73930E+03  1.53066E+03 -3.10671E+03  4.29072E+03 -1.61813E+04 -1.64041E+03 -1.40902E+04 -1.30044E+04
 -6.35273E+03 -9.84881E+03  2.75537E+03 -1.61365E+04  1.22780E+04 -2.62091E+04  1.58378E+04 -5.20259E+03
  1.23835E+04  4.48532E+03  1.13551E+04  1.55636E+04 -1.13448E+03  1.52911E+04 -1.64016E+04  1.05423E+04
 -1.00989E+04 -2.06755E+03 -8.58734E+03 -1.20842E+04 -1.60616E+03 -1.07357E+04  1.04166E+04 -1.08336E+04
  5.36630E+03 -3.03487E+02  7.39950E+03  7.87559E+02 -1.29810E+03  1.80382E+04  8.39680E+03  5.36213E+03
  3.48295E+03 -1.02497E+03 -9.43563E+03  4.63973E+03  5.96671E+03 -3.32168E+03  6.32256E+03  5.82261E+03
 -2.84586E+03  1.59335E+04 -2.00790E+04  9.28578E+03 -1.79806E+04  4.25881E+03 -1.73990E+04 -8.00797E+03
 -1.22658E+04 -2.41830E+04  1.90716E+03 -2.51349E+04  1.03251E+04 -1.62809E+04  2.15601E+04 -2.15842E+03
  4.13218E+03  7.22397E+03  2.87288E+03  4.73564E+03  1.38827E+03  9.33680E+03 -6.76437E+03 -1.26922E+03
 -4.57294E+03 -1.14419E+04  1.36065E+04 -5.66221E+03  3.14428E+03 -4.07669E+03  4.68302E+03 -6.68257E+02
  2.05292E+03  4.48299E+03  1.66103E+02  1.52355E+03  1.19427E+02 -3.05788E+02  7.16290E+03 -5.43255E+03
  8.62432E+03 -3.27526E+03  4.95987E+03  3.50430E+03  4.47408E+03  7.70213E+03 -4.27173E+03  7.54636E+03
 -1.09589E+04  9.12038E+03 -1.43556E+04  5.90401E+03 -1.27064E+04 -4.81717E+03 -5.37198E+03 -1.34959E+04
  2.65348E+03 -1.65014E+02  3.19175E+03  2.99932E+03 -1.59193E+03  1.79980E+03  3.54780E+03  6.41244E+03
 -1.29916E+04  5.24766E+03 -1.00455E+04 -7.80939E+03 -3.54652E+03 -6.79731E+03  2.62931E+03 -6.35618E+03
  3.74709E+03 -7.88129E+03  7.16093E+03 -4.65561E+03  4.58493E+03 -3.14707E+02  5.53649E+03  3.88588E+03
 -8.02480E+02  5.34672E+03 -7.24677E+03 -6.87759E+03  4.79433E+03 -6.22205E+03  5.56721E+03 -7.24194E+03
  8.04653E+03 -2.57941E+02  1.56140E+04  1.72347E+04 -7.05115E+03  7.85521E+03 -1.56741E+03  1.03274E+04
 -2.06409E+03  1.62681E+04 -7.87830E+03  1.52951E+03 -2.87733E+03 -1.40246E+04  3.36768E+03 -1.63408E+04
  3.07581E+03 -4.05832E+03  4.07188E+03 -3.30495E+03  3.84088E+03  4.56266E+03  2.63537E+03  5.15165E+03
  3.34064E+03  6.05164E+03 -8.97456E+03 -9.37915E+01  4.51196E+03  1.70067E+03 -1.62399E+03 -2.57602E+03
 -2.44451E+03 -1.13743E+03 -8.62682E+03  8.94790E+02 -2.69274E+03  9.71347E+02 -1.15981E+04 -1.21458E+04
 -8.78004E+03 -7.26014E+03  4.86887E+03 -2.28457E+04  6.95223E+03 -1.89863E+04  1.68347E+04 -8.31744E+03
  2.04870E+04  2.88028E+03  6.80367E+02  9.16337E+03  8.29033E+02  1.76430E+04 -2.17796E+03  6.17897E+03
 -8.12056E+03  4.53079E+03 -8.26970E+03  3.95419E+03 -3.24870E+03 -1.60759E+03 -1.07618E+03 -7.25383E+03
 -3.91471E+03  4.06147E+03  3.95042E+01  2.92468E+03 -6.21497E+03  5.16116E+03  3.09191E+03 -1.14997E+04
  8.41610E+03 -7.00155E+03  2.46931E+03 -1.15735E+03  1.12254E+04  6.16765E+03  3.44129E+03  3.00406E+03
 -6.27949E+03  1.02727E+04 -1.40356E+04  1.03833E+04 -5.75069E+03  1.99269E+03 -1.91327E+04 -5.46171E+03
 -4.22129E+03 -1.06881E+04  3.19940E+03 -1.04812E+04  7.03805E+03 -4.03091E+03  1.06731E+04  5.87900E+03
 -2.38340E+03  3.38356E+03  1.56810E+03  4.29544E+02  5.90768E+03 -3.88067E+02 -9.65021E+03 -7.45304E+02
  5.33878E+03 -3.69449E+03  4.20060E+03  2.46793E+03 -1.70141E+03  1.64339E+03  7.35919E+03  9.42161E+03
 -5.04464E+03  5.40708E+03 -9.69339E+03 -3.11788E+03 -1.62414E+04 -3.37017E+03  2.09771E+03 -1.76206E+04
  6.80945E+03 -5.65605E+03  1.22268E+04 -5.82553E+03  1.14748E+04  6.38826E+03  5.33940E+03  1.00841E+04
  1.16584E+04  1.65521E+04 -5.61755E+03  1.06800E+04 -6.64930E+03 -2.51670E+03 -6.97560E+03  3.21463E+03
 -1.38182E+04 -2.80257E+03  5.10647E+03  9.93676E+01 -3.76043E+03  4.46270E+03  8.94178E+01  3.77466E+02
 -7.15480E+03 -5.90966E+03 -5.72192E+03 -1.18644E+04  4.40532E+03 -1.25985E+04  8.51020E+03 -4.68425E+03
 -1.11376E+02  6.55742E+02  1.76263E+03  5.40403E+03 -1.07685E+04  2.15704E+02 -3.42287E+03  1.22891E+04
