 $NMID ID='MM_0lb_SNR50_9hz_g40_52.RAW', FMTDAT='(8E13.5)'
 TRAMP=1., VOLUME=1. $END
  3.08256E+05  5.80840E+02  3.36423E+05  2.50851E+05  8.12162E+04  3.40411E+05 -1.30671E+05  2.50709E+05
 -1.86518E+05  8.87538E+04 -1.15510E+05 -3.43608E+04 -5.21577E+01 -4.88701E+04  6.00743E+04  1.00153E+03
  3.50703E+04  5.43459E+04 -2.04162E+04  7.45389E+04 -5.72200E+04  6.63683E+04 -7.80489E+04  3.30337E+04
 -8.34727E+04 -1.84990E+04 -5.59724E+04 -5.11793E+04 -1.61558E+04 -6.95321E+04  3.00468E+04 -4.27953E+04
  4.13075E+04  9.04910E+03  1.68809E+04  4.54556E+04 -3.51100E+04  4.84256E+04 -6.69924E+04  4.03355E+03
 -5.51243E+04 -5.79329E+04 -8.31127E+03 -7.80912E+04  3.08676E+04 -5.93267E+04  4.63745E+04 -2.35495E+04
  4.57799E+04  1.42495E+04  3.34503E+04  2.61605E+04  1.61859E+04  2.80820E+04 -3.91978E+03  3.16070E+04
 -1.25672E+04  1.44634E+04 -1.42692E+04 -1.10854E+04  1.80156E+03 -1.07162E+04  3.07896E+04  1.58314E+04
  5.14507E+03  4.31526E+04 -3.07364E+04  3.84798E+04 -6.31829E+04  8.47173E+02 -5.64009E+04 -4.26393E+04
 -8.62792E+03 -6.78175E+04  4.14366E+04 -4.59544E+04  6.08519E+04 -3.57831E+02  3.39386E+04  3.57256E+04
 -3.69892E+03  4.04899E+04 -3.31455E+04  2.47956E+04 -2.75955E+04 -1.39697E+03 -2.12096E+04 -1.24013E+04
 -1.44052E+04 -1.23095E+04  4.94482E+02 -1.75619E+04  4.06031E+03 -2.45605E+04  1.77974E+04 -1.44147E+04
  7.96650E+03  3.70485E+03 -9.19299E+03  1.27902E+04 -1.57924E+04 -5.30600E+03 -6.10738E+03 -3.71515E+04
  2.41144E+04 -4.20525E+04  4.82557E+04 -2.55523E+04  4.48043E+04  1.50383E+04  1.63321E+04  4.68229E+04
 -1.86849E+04  4.14786E+04 -2.20345E+04  4.03309E+03 -9.08992E+03 -2.38173E+04  1.97067E+04 -3.68187E+04
  5.04930E+04 -9.29319E+03  3.90845E+04  1.90506E+04  2.36024E+04  4.94510E+04 -1.18330E+04  5.15496E+04
 -3.07653E+04  3.54574E+04 -4.95804E+04  1.25965E+04 -4.12772E+04 -1.31136E+04 -2.27508E+04 -3.96016E+04
  2.72852E+03 -4.23691E+04  3.11486E+04 -1.75859E+04  2.66678E+04  1.06213E+04 -3.61781E+03  1.82996E+04
 -1.50474E+04  1.53065E+04 -1.47558E+04 -9.27642E+03  6.60912E+03 -8.58627E+03  1.53177E+04  2.41141E+03
  1.43834E+04  2.44419E+04 -3.88742E+03  2.59322E+04 -2.23407E+04  1.20678E+04 -3.32397E+04 -4.14787E+03
 -1.50320E+04 -1.95409E+04 -1.26062E+04 -2.28548E+04  2.85277E+03 -2.59057E+04  1.88906E+04 -2.14561E+04
  3.26716E+04 -1.50310E+04  3.32354E+04  4.21958E+03  2.49075E+04  2.46255E+04 -1.41759E+03  4.35837E+04
 -1.93265E+04  3.29818E+04 -3.38960E+04  9.23376E+03 -2.08741E+04 -1.05399E+04 -7.05154E+03 -1.39656E+04
  8.41060E+03 -4.94057E+03 -4.58208E+03  1.39570E+04 -2.44941E+04  5.49055E+03 -2.24794E+04 -1.09558E+04
 -1.18154E+04 -2.50689E+04  5.31177E+03 -2.45170E+04  1.18634E+04 -2.10050E+04  1.83100E+04 -2.19777E+03
  7.36842E+03  1.66533E+04 -6.98127E+02  2.40629E+04 -1.70329E+04  1.60065E+04 -2.96009E+04 -1.21550E+04
 -1.70879E+04 -2.10288E+04 -2.57924E+03 -2.37109E+04  7.16769E+03 -2.72562E+04  2.15240E+04 -1.05557E+04
  2.11581E+04  4.00630E+02  1.68328E+04  7.09682E+03  9.14957E+03 -4.94580E+02  6.48518E+03 -4.96693E+02
  2.24702E+04  6.51494E+01  2.45805E+04  1.37847E+04  1.48146E+04  3.26152E+04 -1.18502E+03  3.72159E+04
 -2.64447E+04  4.09459E+04 -3.63815E+04  1.93281E+04 -4.60068E+04 -1.10792E+03 -3.33636E+04 -2.58415E+04
 -1.75478E+04 -3.79268E+04  1.43601E+04 -3.02704E+04  2.55827E+04 -1.57458E+04  2.21699E+04  9.89959E+03
  5.01830E+03  1.76646E+04 -1.06837E+04  1.85724E+04 -3.27902E+04 -6.28574E+03 -1.35752E+04 -1.14977E+04
 -2.08753E+03 -1.46105E+04  8.66785E+03 -1.51491E+04  1.25441E+04 -4.93377E+03 -1.41327E+03  8.99743E+03
 -6.95681E+03  4.50692E+03 -5.74509E+03 -5.80461E+03 -2.08256E+03 -1.26420E+04  1.44635E+04 -1.38898E+04
  2.09195E+04 -1.00148E+04  2.33226E+04  3.28337E+03  2.45133E+04  2.14723E+04  1.03347E+04  3.06184E+04
 -3.45870E+03  2.51009E+04 -1.91637E+04  2.02932E+04 -1.99382E+04  1.56412E+03 -1.58372E+04 -6.22877E+03
 -9.53553E+03 -4.69426E+03  2.05061E+03 -3.46471E+03 -3.11388E+03  5.69215E+03 -3.34081E+03  9.70690E+03
 -7.69074E+03 -9.37126E+02 -1.88378E+04 -1.30566E+04 -2.67349E+03 -1.96950E+04  1.26306E+04 -1.98546E+04
  6.29034E+03 -6.47727E+03  4.62328E+03 -1.48093E+03 -2.46609E+03  8.31493E+02 -6.32540E+03 -2.41293E+02
 -8.26993E+03 -1.41062E+04 -1.64347E+03 -1.52517E+04  9.99218E+03 -1.63268E+04  2.00259E+04 -1.11747E+04
  2.08243E+04  6.44330E+03  1.49206E+04  1.09039E+04  4.78371E+03  1.73854E+04 -1.28190E+04  1.16244E+04
 -9.64847E+03  4.66518E+03 -6.91390E+03 -4.17627E+03 -4.36106E+03 -1.98136E+03  1.12882E+04 -1.40776E+03
  1.01155E+04  8.93239E+03  1.83282E+03  1.15720E+04 -7.77272E+03  8.19914E+03 -1.66147E+04  3.39237E+03
 -8.61305E+03 -5.32518E+03 -1.52904E+03 -1.66495E+04  1.19441E+04 -3.32251E+03  1.26067E+04  6.16255E+03
  8.59182E+02  1.09075E+04 -5.61493E+03  1.75276E+04 -9.84193E+03  6.60714E+03 -1.63543E+04 -3.18068E+03
 -9.52270E+03 -1.67965E+04  1.08869E+03 -1.96541E+04  1.42992E+04 -8.75067E+03  1.07603E+04  1.03774E+04
  5.54266E+03  9.00451E+03 -3.19731E+02  1.21202E+04 -1.39547E+04  1.33969E+04 -1.18673E+04 -5.87560E+03
 -1.16923E+04 -1.04702E+04 -6.68349E+03 -9.91434E+03  1.08241E+04 -1.98489E+04  1.59607E+04 -6.20673E+03
  3.55021E+03  1.44341E+03 -1.04323E+03 -1.83646E+03 -2.32013E+03 -1.19146E+03  2.21917E+03 -5.53878E+03
  5.39664E+03 -4.09941E+03  1.77553E+04  5.90300E+03  1.72205E+04  1.08176E+04  1.49449E+04  2.19167E+04
 -1.83352E+03  2.65203E+04 -1.60154E+04  2.15411E+04 -2.43473E+04  1.74761E+03 -1.23795E+04 -6.70287E+03
 -8.44616E+03 -1.88072E+04 -1.69864E+03 -1.50296E+04  7.20626E+03 -7.22932E+03  4.68225E+03 -1.35383E+03
  8.63114E+03 -9.15454E+03  1.12850E+03 -2.05886E+03 -1.32907E+02 -1.15846E+04  1.13502E+04 -3.94263E+03
  9.87949E+03  2.48322E+03  4.29874E+03  8.32595E+03  9.23859E+02  8.43597E+03 -1.13429E+04  9.66583E+03
 -1.25061E+04  5.27981E+03 -8.29485E+03 -1.12951E+04 -1.60209E+03 -1.27352E+04  3.11572E+03 -1.79937E+04
  1.94786E+04 -7.72160E+03  1.84525E+04  5.57489E+03  1.35203E+04  1.52482E+04 -3.06261E+03  1.96186E+04
 -3.02202E+03  1.39492E+04 -1.24009E+04  7.78856E+03 -6.49219E+03 -6.04633E+03 -3.19261E+03 -5.97810E+02
  1.74651E+03 -9.34723E+02 -3.71762E+03  5.64772E+03 -1.79951E+03  3.09532E+03 -9.48073E+03 -1.16716E+04
 -2.56423E+03 -1.01618E+04  1.36886E+03 -1.70791E+04  1.01795E+04 -1.21903E+04  1.39872E+04  4.01416E+02
  1.25360E+04  6.93473E+03  1.21623E+04  1.19345E+04 -1.53052E+03  1.67814E+04 -1.00280E+04  9.75030E+03
 -1.77494E+04 -2.47144E+02 -1.16337E+04 -1.09868E+04 -8.15801E+02 -1.46929E+04  8.57592E+03 -1.18534E+04
  1.02594E+04 -3.33053E+03  7.16068E+03  7.77639E+02  7.58596E+03 -8.50093E+02  2.72000E+03  3.73045E+03
 -3.56149E+03  3.02347E+03  4.33183E+03  6.77622E+03  9.76877E+03  8.56804E+03 -1.14239E+03  4.31005E+03
 -2.45008E+03  1.23525E+04 -1.28186E+04  1.81077E+04 -1.59761E+04  7.20119E+03 -1.53043E+04 -5.24677E+03
 -1.18446E+04 -1.88198E+04  7.69278E+03 -1.25291E+04  9.43367E+03 -1.38341E+04  1.69792E+04 -4.39195E+03
  1.07130E+04 -7.01713E+02 -3.33638E+03  8.09991E+03  4.18736E+03  3.62432E+03 -8.42002E+03 -6.23336E+03
  2.86023E+03 -1.48835E+03  8.63572E+03 -4.60906E+03  4.87008E+03 -2.85844E+03  6.89025E+03  3.68643E+03
  1.66934E+03  4.32669E+03  1.50694E+03 -6.34685E+02 -2.86024E+03  2.30083E+03  2.32736E+03  1.34074E+03
 -1.19656E+02  3.78437E+03 -8.41818E+02  7.95532E+03  1.24237E+03  6.16416E+03  1.96282E+03  8.64442E+03
 -2.70376E+03  9.24627E+03 -1.10689E+04  5.37717E+03 -6.37860E+03 -4.59534E+02 -4.07617E+03 -5.67771E+03
 -6.97331E+03 -1.27263E+03  1.04833E+04 -2.21796E+03  3.39390E+03  2.05822E+03  1.35475E+03  7.89485E+03
 -9.27619E+03  3.88791E+03 -1.56200E+04 -2.89307E+03 -7.13348E+03 -8.90394E+03 -5.06760E+02 -8.53569E+03
  3.71454E+02 -1.57309E+03  1.11930E+04 -1.23990E+03  9.29184E+03  1.26624E+04 -1.41439E+03 -9.86743E+02
 -6.14730E+03  3.40198E+03 -2.25604E+03 -3.83255E+03 -9.55526E+02 -7.05412E+03  8.09422E+03  3.99429E+03
  1.41952E+04  5.15622E+03  6.01304E+03  4.04024E+03 -5.15636E+02  8.37784E+03 -1.63322E+03  1.10196E+04
 -8.08588E+03  2.14734E+03 -1.12510E+04  1.92989E+03 -8.43279E+02 -4.88118E+03  2.98633E+03 -6.97350E+03
  4.00157E+03 -1.26970E+04  6.33433E+03  3.65373E+03  2.90562E+03  9.28415E+03 -3.45598E+03  3.98208E+03
  3.88825E+02  3.70161E+03 -6.03077E+03 -2.39343E+03 -7.42737E+03  6.29735E+03  2.63740E+03 -4.29842E+03
 -3.30030E+03  2.32221E+03 -1.30292E+04 -3.04606E+03 -1.37931E+04 -3.28851E+03 -1.34725E+04 -5.32999E+03
 -8.46594E+03 -1.13507E+04  3.10229E+03 -1.37076E+04  4.96972E+03 -1.65071E+04  1.08770E+04  6.87850E+02
  1.59640E+04  2.23648E+03  1.40080E+04  2.10474E+03  6.69991E+03  1.33620E+04 -5.91936E+03  1.57810E+03
 -6.04172E+03  2.10262E+03 -1.01972E+03 -3.89185E+03  8.07118E+03  6.38809E+02 -6.26618E+03 -2.97305E+03
  1.09182E+03 -3.94496E+03  7.15723E+03 -1.84643E+03 -5.00379E+03  4.16049E+03 -5.13216E+03 -8.28607E+03
  1.56739E+03 -4.16124E+03  6.03561E+03 -4.39908E+03  3.95402E+03  6.96657E+03  4.23881E+03  9.12060E+03
 -9.15812E+03  1.31093E+04 -9.83716E+03  6.12131E+03 -8.82097E+03 -4.49731E+03 -1.14716E+04 -4.99093E+03
 -6.74085E+03 -8.70897E+03  5.07307E+03 -1.72825E+03  4.52453E+03 -5.78122E+03  5.44594E+03 -6.28113E+03
  6.78053E+03  4.39081E+03 -1.81030E+03 -1.47918E+02 -2.28006E+03 -4.57993E+02  3.98879E-01 -4.75375E+03
 -9.86768E+02 -1.17247E+03  6.75670E+03  8.01967E+02 -2.89411E+03  6.29406E+03 -4.93943E+03  3.12533E+03
 -6.93573E+03  3.32698E+03 -1.31198E+04  4.90230E+03 -4.19257E+03 -2.64427E+03 -2.30192E+03 -1.10970E+04
  7.33710E+03 -5.46556E+03  9.11811E+03  2.77714E+02  7.81922E+03  9.79781E+02  6.82584E+02  3.77270E+03
 -4.70020E+02  9.94930E+03  1.10143E+02  8.44022E+03 -3.06721E+02  6.09933E+03  1.73744E+03 -1.99375E+03
 -6.48750E+02 -4.75113E+03 -4.38971E+02  1.90015E+03 -3.78871E+03  4.25160E+03 -1.30569E+04 -3.03191E+03
 -1.73589E+03 -5.78776E+03  2.09440E+03 -2.97231E+03  7.35267E+03 -4.60857E+03  2.72955E+03 -5.64544E+03
  4.49753E+03  2.73764E+03  5.28927E+02 -3.34173E+03 -1.37784E+03  7.17190E+03 -3.00544E+03  2.37938E+03
