 $NMID ID='MM_0lb_SNR50_9hz_g45_98.RAW', FMTDAT='(8E13.5)'
 TRAMP=1., VOLUME=1. $END
  3.12982E+05  1.00591E+03  3.42414E+05  2.49138E+05  8.57926E+04  3.38294E+05 -1.37218E+05  2.50991E+05
 -1.91249E+05  8.03798E+04 -1.07693E+05 -2.80024E+04  2.73836E+03 -5.47287E+04  5.58374E+04  3.39243E+03
  3.12537E+04  5.02399E+04 -1.36057E+04  8.49404E+04 -6.70892E+04  5.99756E+04 -8.32386E+04  3.39327E+04
 -8.20567E+04 -9.95307E+03 -6.04615E+04 -5.05025E+04 -1.27809E+04 -6.98913E+04  2.96779E+04 -4.49593E+04
  4.02622E+04 -3.43542E+01  1.72234E+04  4.75057E+04 -4.10119E+04  4.27478E+04 -6.74813E+04  1.11891E+03
 -5.37182E+04 -5.76125E+04 -6.31424E+03 -6.89268E+04  3.46116E+04 -5.18063E+04  4.91288E+04 -1.89959E+04
  4.89542E+04  1.39970E+04  3.04333E+04  3.20821E+04  2.09183E+04  2.99622E+04 -3.94859E+03  2.76484E+04
 -2.37729E+04  1.41874E+04 -1.95633E+04 -4.32918E+03  4.85046E+03 -3.98318E+03  2.17190E+04  1.60588E+04
  9.27820E+03  4.10921E+04 -3.08368E+04  3.41876E+04 -6.39427E+04  4.33617E+02 -5.51894E+04 -4.40810E+04
 -1.27210E+04 -6.18442E+04  4.23859E+04 -4.55617E+04  6.17668E+04 -1.29500E+03  3.75776E+04  3.21597E+04
 -3.88347E+03  3.48251E+04 -3.26008E+04  1.59931E+04 -3.59270E+04 -6.67136E+02 -1.06317E+04 -1.61631E+04
 -7.27462E+03 -1.59019E+04  8.62966E+02 -2.48177E+04  4.16562E+03 -2.59955E+04  1.58300E+04 -1.43174E+04
  1.48836E+04  4.50880E+03 -7.58023E+03  6.31538E+03 -2.01057E+04 -1.08498E+04 -3.37822E+03 -3.73643E+04
  1.76247E+04 -4.52315E+04  5.61798E+04 -2.22621E+04  4.87179E+04  2.02697E+04  1.36467E+04  5.06253E+04
 -1.28675E+04  4.00392E+04 -2.31385E+04  2.72505E+02 -4.43487E+03 -3.50260E+04  2.47674E+04 -3.86348E+04
  4.64053E+04 -9.76946E+03  4.11347E+04  2.60085E+04  1.92947E+04  5.67871E+04 -7.74095E+03  6.00433E+04
 -3.41953E+04  3.87682E+04 -4.33394E+04  1.13682E+04 -4.97837E+04 -1.98800E+04 -3.02050E+04 -4.53467E+04
  1.17175E+04 -4.53959E+04  3.20580E+04 -1.83246E+04  2.98081E+04  1.26959E+04  5.90745E+03  2.22187E+04
 -1.29097E+04  5.10508E+03 -5.56017E+03 -6.75497E+03  7.63463E+03 -4.53985E+03  1.94846E+04  7.81188E+03
  1.43055E+04  2.06154E+04 -3.52674E+02  2.48995E+04 -2.15998E+04  1.64992E+04 -2.76434E+04 -4.44549E+03
 -2.53133E+04 -1.94505E+04 -5.13816E+03 -2.37253E+04  5.49170E+03 -2.91972E+04  2.08751E+04 -2.62181E+04
  3.52478E+04 -9.60640E+03  3.66556E+04  7.09160E+03  2.80201E+04  1.86233E+04  5.94522E+03  3.46450E+04
 -2.17538E+04  3.32095E+04 -2.89304E+04  1.12345E+04 -1.63270E+04 -1.02571E+04 -2.66051E+03 -1.66333E+04
  7.62137E+02  1.22030E+03 -5.21604E+02  8.28882E+03 -1.50872E+04  6.91966E+03 -2.11122E+04 -1.06472E+04
 -1.23812E+04 -2.02900E+04  8.36782E+03 -2.39432E+04  1.58586E+04 -1.86544E+04  2.28582E+04 -1.77142E+03
  1.07928E+04  1.31147E+04  3.71719E+02  2.18317E+04 -1.93930E+04  1.55082E+04 -2.28610E+04 -2.20858E+03
 -2.11030E+04 -1.89211E+04 -1.75419E+03 -3.04308E+04  8.09648E+03 -2.33987E+04  2.24431E+04 -1.20929E+04
  2.09738E+04 -1.18488E+03  1.80127E+04  7.44524E+03  9.64504E+03  6.27935E+02  1.32168E+04 -4.39019E+03
  2.14057E+04 -1.44731E+03  2.60553E+04  2.22811E+04  1.88332E+04  3.55061E+04  3.75201E+03  3.79639E+04
 -2.94201E+04  3.73168E+04 -3.89243E+04  2.29900E+04 -4.49050E+04 -6.96084E+03 -3.24177E+04 -3.26466E+04
 -1.67696E+04 -3.87160E+04  1.76609E+04 -3.33494E+04  3.24365E+04 -1.67022E+04  2.25760E+04  4.72161E+03
  1.21466E+04  1.93506E+04 -1.93244E+04  1.01632E+04 -2.43433E+04  7.62194E+03 -1.72082E+04 -1.11512E+04
 -1.46222E+03 -1.47347E+04  1.21307E+04 -1.27612E+04  1.22457E+04 -2.88724E+02  2.41419E+03  9.20838E+03
 -7.42857E+03  8.47757E+00 -9.83411E+03 -6.15216E+03  3.10861E+03 -1.38531E+04  1.07172E+04 -2.52862E+04
  1.43050E+04 -6.27786E+03  2.07181E+04  1.14811E+03  1.93376E+04  2.22781E+04  1.25642E+04  2.34062E+04
 -5.24681E+03  3.46638E+04 -2.32387E+04  2.44710E+04 -2.09954E+04  8.86227E+03 -1.30665E+04 -6.18262E+03
 -6.13588E+03 -4.63215E+03  1.65482E+03  1.56391E+01 -7.65663E+03 -3.46807E+03 -8.01367E+03  9.01490E+03
 -1.50187E+04 -6.76406E+03 -1.68882E+04 -3.01412E+03 -2.71834E+03 -1.58020E+04  8.11734E+03 -1.34868E+04
  8.65527E+03 -4.67847E+03  1.24480E+04  1.02073E+03  2.53050E+02  4.69502E+03 -9.12304E+02 -1.80789E+03
 -5.30182E+03 -1.26760E+04  4.24485E+03 -1.31502E+04  1.38708E+04 -1.75170E+04  2.11824E+04 -3.80910E+03
  2.97424E+04 -1.47175E+03  1.70469E+04  1.68368E+04  1.66628E+03  1.97308E+04 -9.08355E+03  1.02355E+04
 -9.95179E+03  4.12485E+03 -8.75839E+03 -2.93771E+03 -3.10331E+03 -9.32126E+03  6.27942E+03 -1.80843E+03
  1.02663E+04  4.25078E+03  3.07234E+03  9.54747E+03 -4.61004E+03  1.11917E+04 -1.16295E+04  1.06818E+03
 -1.56459E+04 -6.08264E+03 -3.77094E+02 -1.12496E+04  7.92372E+03 -7.34554E+03  1.36908E+04  6.17661E+02
  2.61332E+03  1.26660E+04 -7.49080E+03  4.78792E+03 -5.09993E+02  8.55675E+03 -8.03501E+03 -4.05922E+03
 -4.69402E+03 -9.72413E+03  6.13098E+03 -1.60552E+04  1.64307E+04 -9.47532E+03  1.63875E+04 -1.85117E+03
  9.01650E+03  1.27913E+04 -4.04958E+03  1.52411E+04 -1.25003E+04  1.43182E+04 -1.36268E+04 -6.24300E+03
 -5.92311E+03 -1.08596E+04 -3.23083E+02 -1.68819E+04  1.39671E+04 -7.38336E+03  4.46923E+03  1.83890E+02
  2.41006E+03 -5.31602E+03  3.29639E+03  2.57288E+03 -2.57345E+03 -5.21458E+03  3.42344E+03 -4.86007E+03
  1.26405E+04 -2.37698E+03  1.22431E+04  4.62168E+03  1.18973E+04  3.96287E+03  8.28630E+03  2.62475E+04
 -3.94170E+03  2.65217E+04 -1.58040E+04  1.40648E+04 -2.57737E+04 -2.48465E+03 -2.07658E+04 -1.81087E+04
 -1.26461E+04 -2.84093E+04 -4.49000E+03 -1.50744E+04 -3.30255E+02 -5.14715E+03  8.98665E+03 -8.99274E+03
  3.36595E+03  2.66590E+03  6.33421E+03 -2.28362E+03 -3.85811E+03  7.06695E+03  7.31296E+03 -4.18934E+03
  1.05124E+04 -1.23020E+02  5.42909E+03  1.59043E+04 -1.58684E+03  6.49814E+03 -1.11722E+04  7.14254E+03
 -1.25515E+04 -6.61888E+03 -6.44401E+03 -1.01683E+04  1.64162E+03 -1.49177E+04  1.36802E+04 -1.70330E+04
  1.29461E+04 -1.33277E+04  1.95472E+04  7.81750E+03  8.89544E+03  1.30028E+04  9.06189E+03  1.56601E+04
 -5.55304E+03  1.66156E+04 -1.51566E+04  7.63817E+03 -1.19403E+04 -2.05432E+02 -2.07182E+03 -2.99062E+03
 -5.18877E+03 -1.27307E+03 -4.01440E+03  4.77205E+03 -7.10465E+03 -1.22162E+03 -4.93903E+03  1.85093E+03
 -6.12373E+03 -7.92294E+03  1.94600E+03 -9.76673E+03  1.97527E+03 -2.02517E+04  9.61714E+03 -6.04090E+03
  1.26760E+04  6.65999E+03  7.72507E+03  1.44137E+04 -4.47379E+01  1.63804E+04  1.43037E+03  1.18550E+04
 -1.86258E+04  4.60429E+03 -9.04298E+03 -3.28616E+03  1.70599E+02 -5.48150E+03  2.71734E+03 -1.01960E+04
  1.08663E+04 -9.87701E+02  1.01468E+04  1.26650E+03  2.06556E+03  5.40949E+03  7.40881E+03  7.51525E+03
  3.07675E+03  4.44847E+03  8.04246E+03  6.59231E+02  1.73241E+03  3.25083E+03  9.98123E+03  9.86154E+03
 -2.44784E+03  1.08524E+04 -6.61267E+03  8.93600E+03 -1.68281E+04  3.64090E+03 -1.34640E+04 -9.88163E+03
 -2.35287E+03 -1.92925E+04  5.95932E+03 -2.18817E+04  1.01979E+04 -1.44843E+04  7.68035E+03 -2.88694E+03
  1.32738E+04  5.02969E+03  7.44414E+02  7.88874E+03  1.32608E+03  4.02759E+03 -8.43492E+03  4.32469E+03
 -5.99707E+03 -2.08228E+03  1.12877E+03 -2.47842E+03  7.82740E+03 -6.10109E+03  1.66858E+02  4.65954E+03
  7.82825E+03 -4.10452E+03  1.67473E+02 -5.72062E+02 -5.36800E+03 -5.48179E+03  1.25260E+03  3.17040E+03
  6.42164E+03 -2.01363E+03  6.14826E+03 -2.50299E+03  6.85914E+03  9.40199E+03  7.60410E+02  1.11921E+04
 -5.01387E+03  6.76802E+03 -1.15791E+04  5.41431E+03 -5.81330E+03 -2.84528E+03 -2.58394E+03 -9.33230E+03
  2.76895E+03 -6.18759E+03 -7.73916E+02 -1.24389E+03  4.68324E+03  5.10853E+03 -2.43801E+02  3.55049E+03
 -5.46400E+03 -3.72585E+02 -3.46767E+03  1.98788E+03 -7.30351E+03 -1.33563E+04  4.45425E+03 -1.08081E+04
 -1.92149E+02  2.05151E+03  4.06226E+02 -3.26660E+02  3.64681E+03  4.33207E+03 -1.80976E+03 -7.24835E+02
  2.54719E+03  7.64996E+03 -4.35068E+03  1.70370E+03 -9.35716E+02 -5.61672E+03  9.91896E+03 -4.03729E+03
  1.35466E+04 -2.26428E+03  9.66414E+03  2.80931E+03  8.68577E+02  1.20955E+04 -5.49979E+03  7.38529E+03
 -1.15381E+04 -1.85800E+03 -1.25183E+04 -1.17360E+03 -8.91096E+03  7.20857E+01  5.75839E+02 -1.98393E+03
  8.46324E+03 -4.32020E+03  8.45822E+03  1.96729E+03  3.02041E+03 -2.73428E+03  7.99673E+02  4.65584E+03
 -2.27457E+03  4.58220E+03 -7.19856E+03 -2.73657E+03 -4.97159E+03  6.77411E+03  2.44685E+02  8.04700E+03
 -2.64471E+03  3.10343E+03 -9.79246E+03  7.15691E+03 -1.14400E+04 -2.84912E+03 -1.02193E+04 -1.11278E+04
 -7.44044E+03 -1.49414E+04  4.23560E+03 -1.18622E+04  1.21610E+04 -1.46808E+04  1.34693E+04 -1.07310E+03
  8.05241E+03  8.90208E+03  8.26423E+03  6.73613E+03  2.24492E+03  9.18189E+03 -2.87715E+03  9.89932E+03
 -7.27943E+03  2.37840E+02 -4.91185E+03  3.53958E+02  4.54086E+03 -1.66691E+03  2.20453E+03  2.71754E+03
 -3.52078E+03 -2.49078E+03 -1.65618E+03  5.62008E+03 -1.52407E+03 -4.28116E+03  5.74590E+03 -9.05583E+03
 -1.23554E+02 -2.18913E+03  6.58160E+03 -3.70043E+03  1.26402E+04  1.46620E+04  4.46260E+02  9.36409E+03
 -2.49136E+03  1.31625E+04 -1.38509E+04  5.33393E+03 -1.47431E+04  1.16400E+03 -1.50811E+04 -8.96613E+03
 -4.94706E+03 -1.28779E+04 -3.43980E+03 -1.30413E+04  1.23819E+04 -6.35552E+03  5.83539E+03  3.53037E+03
  1.03105E+04  3.80014E+03  2.79888E+02  3.81033E+03  1.47039E+03 -6.49508E+03  2.26500E+03 -1.39759E+03
 -3.81327E+03  2.28236E+03  2.61068E+03 -5.82482E+02 -4.71370E+01 -5.94704E+02 -1.69960E+03  4.22699E+03
 -1.85447E+03  3.77831E+03 -3.51814E+03  3.83854E+03 -4.29942E+03 -1.07356E+03  3.60198E+03 -1.00243E+04
  2.57042E+03 -1.02081E+04  4.81611E+03 -5.98202E+03  5.92280E+03  6.96073E+02  7.51723E+03  7.95133E+03
 -2.89156E+03  7.15596E+03 -3.68733E+03  6.19003E+03 -2.59528E+03  8.04744E+03 -7.18845E+03  5.73654E+03
  5.00629E+02 -3.31832E+03 -3.82877E+03  3.53091E+03 -5.10832E+03  6.99463E+02 -1.06403E+04 -6.44098E+03
 -1.15541E+03  1.81976E+02  2.94316E+03 -1.02667E+04  7.44181E+03 -6.10255E+03  3.83826E+03 -7.99509E+03
  1.00273E+04 -1.46187E+03  5.93403E+03  8.39539E+03 -5.32293E+03  4.42271E+03  9.10059E+02  2.31257E+03
