 $NMID ID='MM_0lb_SNR50_10hz_g40_77.RAW', FMTDAT='(8E13.5)'
 TRAMP=1., VOLUME=1. $END
  3.11731E+05 -9.14964E+02  3.37252E+05  2.46619E+05  8.43870E+04  3.40315E+05 -1.35163E+05  2.54367E+05
 -1.89583E+05  8.33074E+04 -1.17407E+05 -3.33176E+04  1.20733E+03 -5.62495E+04  5.12358E+04 -1.47102E+03
  3.56071E+04  4.81960E+04 -1.19202E+04  7.41442E+04 -5.75251E+04  6.83795E+04 -8.63221E+04  3.24108E+04
 -8.32118E+04 -1.09316E+04 -6.18760E+04 -5.48854E+04 -1.91148E+04 -7.10458E+04  3.02038E+04 -4.53695E+04
  3.69569E+04  3.79091E+03  1.71973E+04  4.09443E+04 -3.60300E+04  5.07284E+04 -6.53506E+04 -2.61572E+02
 -5.89124E+04 -6.30447E+04 -9.15517E+03 -7.35058E+04  4.03482E+04 -6.14050E+04  4.29821E+04 -2.04856E+04
  4.74252E+04  1.11138E+04  2.63253E+04  2.61632E+04  1.54332E+04  2.81921E+04 -5.64304E+03  2.84291E+04
 -1.62895E+04  9.63703E+03 -1.50734E+04 -6.80296E+03  5.79730E+03 -1.04804E+04  2.05378E+04  1.40372E+04
  7.28721E+03  3.27143E+04 -3.57181E+04  3.39885E+04 -6.57219E+04  4.48681E+03 -6.26890E+04 -3.88227E+04
 -1.75374E+04 -6.53315E+04  3.94277E+04 -4.70329E+04  5.87211E+04 -6.24038E+03  3.69295E+04  3.73897E+04
 -7.51019E+03  3.91988E+04 -3.13509E+04  1.63605E+04 -3.71824E+04 -4.07529E+03 -2.02405E+04 -7.58360E+03
 -9.41369E+03 -8.82182E+03  5.39673E+03 -2.12843E+04  1.29679E+04 -2.14210E+04  1.35878E+04 -1.11585E+04
  1.01572E+04  7.97165E+03 -1.10435E+04  1.07919E+04 -2.51247E+04 -1.00618E+04 -6.31567E+03 -4.29305E+04
  1.83491E+04 -4.57588E+04  5.08491E+04 -2.23328E+04  4.41024E+04  1.96890E+04  1.44697E+04  4.66469E+04
 -2.38291E+04  3.64455E+04 -3.09217E+04  3.89259E+03 -1.13438E+04 -2.87084E+04  1.84901E+04 -3.32212E+04
  4.01554E+04 -1.42824E+04  3.74462E+04  2.25143E+04  2.36219E+04  5.02519E+04 -5.40549E+03  5.54621E+04
 -2.97133E+04  3.25578E+04 -4.64635E+04  4.38662E+03 -3.92421E+04 -1.44659E+04 -2.91420E+04 -4.41549E+04
  7.40484E+03 -3.77081E+04  2.97085E+04 -2.04486E+04  3.45952E+04  1.31619E+04  1.59912E+03  2.14895E+04
 -1.49627E+04  1.28875E+04 -1.55639E+04 -6.09975E+03  4.16643E+02 -1.28676E+04  1.87432E+04  1.61826E+04
  1.21903E+04  2.54311E+04 -6.43095E+03  2.50608E+04 -2.31225E+04  2.01279E+04 -2.94317E+04 -6.11998E+03
 -2.63412E+04 -1.09618E+04 -1.48402E+04 -2.81391E+04  1.16122E+02 -2.46468E+04  2.27298E+04 -1.59061E+04
  2.75554E+04 -1.15967E+04  3.81822E+04  3.76010E+03  2.71166E+04  1.98961E+04 -9.48801E+02  4.10927E+04
 -2.00585E+04  3.31042E+04 -2.76764E+04  9.66243E+03 -2.03588E+04 -9.53094E+03  1.50140E+03 -1.86009E+04
 -6.54165E+03  7.39209E+02 -6.66439E+03  1.16648E+04 -1.75827E+04  3.02560E+03 -2.12132E+04 -1.41541E+04
 -1.10214E+04 -2.08017E+04  1.58991E+03 -2.72464E+04  1.14147E+04 -1.72399E+04  2.63184E+04 -7.18327E+02
  1.26262E+04  1.55136E+04  3.78443E+03  2.85371E+04 -1.86144E+04  1.26016E+04 -2.37284E+04 -2.48036E+03
 -1.27080E+04 -1.98195E+04 -7.77094E+02 -2.43343E+04  1.25954E+04 -2.04957E+04  1.85505E+04 -7.64426E+03
  2.06249E+04 -4.29403E+03  2.15845E+04 -1.52042E+03  1.58055E+04  2.74368E+03  1.37511E+04 -6.53459E+02
  1.84107E+04  7.92200E+03  1.98373E+04  1.55652E+04  1.25059E+04  3.76734E+04 -6.67658E+03  3.96701E+04
 -2.49711E+04  3.46319E+04 -3.89954E+04  1.55606E+04 -4.45126E+04 -4.29081E+03 -3.05849E+04 -2.10850E+04
 -1.25564E+04 -3.51617E+04  7.91398E+03 -3.33058E+04  2.08471E+04 -1.61301E+04  2.05094E+04  5.73856E+03
 -4.12640E+02  1.96839E+04 -4.51229E+03  2.27126E+04 -1.95472E+04 -7.86052E+02 -1.43879E+04 -1.64717E+04
  1.66372E+02 -1.21671E+04  1.37069E+04 -7.94742E+03  1.41758E+04  1.13950E+03 -6.12746E+02  4.74657E+03
 -1.14899E+04  8.33805E+03 -4.57995E+03 -5.51467E+03 -7.52082E+02 -2.05867E+04  1.04051E+04 -1.60279E+04
  1.95149E+04 -1.46598E+04  2.30226E+04  1.18857E+03  1.91456E+04  1.82194E+04  7.13754E+03  2.53049E+04
 -4.18639E+03  2.75740E+04 -1.79397E+04  1.11136E+04 -1.95801E+04  4.70997E+03 -1.84472E+04 -2.04664E+03
 -2.09495E+02 -9.53363E+03 -6.44321E+03 -2.34902E+03 -2.01016E+03 -9.62249E+02 -9.17811E+03 -1.79561E+03
 -1.36213E+04 -2.52203E+03 -8.40960E+03 -1.16925E+04 -7.49766E+03 -1.74888E+04  2.96083E+03 -1.26317E+04
  1.29796E+04 -8.42123E+03  6.37402E+03  6.88121E+03 -3.07397E+03  7.68983E+03 -1.03629E+04 -7.28639E+02
 -2.05139E+03 -7.70716E+03  2.81324E+03 -1.80058E+04  1.02199E+04 -1.46698E+04  1.73158E+04 -1.22979E+04
  2.46622E+04 -6.49773E+01  1.03608E+04  9.10920E+03  3.86047E+03  1.21361E+04 -5.80795E+03  1.64702E+04
 -1.52586E+04  7.92136E+03 -3.58057E+03  2.90654E+01  7.68832E+02 -4.83899E+03  1.15184E+04 -1.40777E+03
  9.71293E+03  2.81766E+03  2.55023E+02  1.34205E+04 -1.41998E+04  1.14068E+04 -1.41807E+04  4.17509E+03
 -1.39545E+04 -9.50147E+03 -1.51196E+03 -2.49719E+03  1.06862E+04 -7.73379E+03  9.25435E+03  1.02847E+04
 -7.62192E+02  4.44680E+03 -8.43011E+03  9.54092E+03 -1.77072E+04  5.52886E+03 -8.76048E+03 -4.36959E+03
 -9.34183E+03 -1.64309E+04 -2.81825E+03 -1.17650E+04  1.43168E+04 -1.12988E+04  1.75362E+04  1.70869E+03
  1.06027E+04  6.74452E+03  3.22625E+03  1.68734E+04 -1.21245E+04  5.83522E+03 -1.22707E+04  4.01956E+02
 -5.90021E+03 -1.10474E+04 -5.88646E+01 -7.17258E+03  4.92833E+03 -4.78852E+03  7.27498E+03 -4.96587E+03
  2.48291E+03 -6.03851E+02 -4.29643E+02  5.90748E+03 -1.14314E+03 -4.52243E+03  5.29745E+03 -5.15851E+03
  1.37378E+04 -2.14216E+03  1.28928E+04  3.28224E+03  1.32827E+04  1.00926E+04  7.81351E+03  1.20980E+04
 -5.31665E+03  1.93150E+04 -2.22219E+04  1.77481E+04 -2.27822E+04  1.08491E+03 -2.01699E+04 -3.59564E+03
 -7.24851E+03 -1.33232E+04 -2.65695E+03 -1.43172E+04  2.12838E+03 -7.45103E+03  1.51665E+03 -2.97148E+03
  4.25306E+03  1.21983E+02  2.82435E+03 -4.73600E+03  7.26177E+03  1.50015E+03  3.89830E+03 -2.01703E+03
  9.71693E+03  2.95509E+02  8.46452E+03  2.38593E+03 -4.34298E+03  9.53384E+03 -9.46156E+03  1.05043E+04
 -2.15544E+04  3.50346E+03 -8.14209E+03 -1.09372E+04  9.63104E+02 -9.39328E+03  1.08514E+04 -1.93505E+04
  1.19368E+04 -1.04295E+04  2.15326E+04  4.24527E+02  5.73886E+03  9.27514E+03 -4.67876E+03  1.62152E+04
 -2.82552E+03  1.37131E+04 -4.60007E+03  3.82503E+03 -6.58964E+03 -4.43711E+03 -5.57233E+03  7.16498E+03
  2.51689E+02  1.13899E+03 -2.61611E+03 -1.33294E+03 -4.06298E+03  3.10375E+03 -7.66378E+03 -1.74811E+03
 -9.43294E+03 -9.02207E+03  5.89847E+02 -1.83232E+04  3.63182E+02 -1.32884E+04  1.07273E+04  3.89910E+02
  1.29730E+04 -1.17757E+03  2.79305E+03  1.67533E+04  3.02989E+03  1.04731E+04 -1.04474E+04  6.70219E+03
 -9.49240E+03  9.94172E+02 -1.30451E+04 -6.47355E+03 -1.00087E+03 -6.11733E+03  2.87718E+03 -5.75865E+03
  8.82011E+03  1.75244E+01  5.66136E+03 -8.54810E+02  3.79350E+03  4.51897E+03  3.94048E+03  1.98371E+03
 -1.92344E+03  2.32288E+03  1.25896E+04  4.14627E+03  8.81351E+01  4.88521E+03  4.88764E+03  2.40134E+03
 -7.69164E+03  1.38426E+04 -2.44985E+03  9.66163E+03 -1.63541E+04 -8.92506E+02 -1.08030E+04 -1.54855E+03
  1.44154E+01 -1.79415E+04 -1.19731E+03 -1.58572E+04  6.37809E+03 -1.24628E+04  1.01205E+04 -5.01246E+03
  3.73771E+03  9.40252E+03  3.29457E+03  9.11919E+03 -1.90986E+03  6.28438E+02 -3.28795E+03 -6.76707E+03
 -3.34188E+03 -6.63903E+03  4.94002E+03 -6.94832E+03  6.59535E+03 -1.38646E+03  9.45395E+03  1.25642E+03
  2.93581E+03 -1.50599E+01  2.70357E+03  3.26419E+03  5.70525E+02  2.26338E+03 -2.81230E+03 -9.69961E+02
 -1.59756E+03 -4.52794E+03  4.21272E+03  1.10424E+03  5.93461E+03  4.87530E+03 -4.80544E+03  5.59345E+03
 -4.56315E+03  7.12939E+03 -1.17287E+04  2.55731E+03 -8.22062E+03 -6.66503E+03 -4.14427E+03 -1.47057E+03
 -3.30505E+01  1.50910E+03  5.41039E+03 -6.14273E+03  2.31045E+03 -2.19950E+03 -3.10546E+03  5.69147E+03
 -3.51141E+03  5.29669E+02 -2.57703E+03 -3.96523E+02 -4.61650E+03 -1.90307E+03  7.06667E+02 -1.06225E+04
  2.58310E+03 -2.28638E+03  5.57045E+03  1.69559E+03  6.10060E+03  4.01549E+03 -7.40304E+02  2.70951E+02
 -6.47743E+01  1.80756E+03  6.38211E+03 -6.98558E+02 -1.15822E+02 -2.39208E+03  7.33077E+03 -7.02160E+03
  8.28251E+03  8.61897E+02  6.59776E+03  2.67623E+02  2.80895E+03  5.27384E+03 -1.30822E+03  7.59900E+03
 -6.48896E+03  5.06483E+03 -4.93640E+03  2.06888E+03  2.25618E+03  3.21405E+03  2.38810E+03 -6.93880E+03
  2.84261E+03 -5.31222E+03  3.76067E+03  1.15789E+03  3.00828E+03  6.66319E+03  1.15775E+03  3.00804E+03
  1.57499E+03 -3.03967E+02 -4.23843E+03  6.27009E+01  2.34171E+03  2.73228E+02 -5.53693E+03  3.15990E+03
 -4.71911E+03  2.13472E+03 -4.56109E+03  5.44835E+03 -1.02569E+04 -1.91263E+03 -1.03338E+04 -8.47817E+03
 -6.17145E+02 -1.48427E+04 -8.74538E+02 -1.22301E+04  1.21216E+04 -1.19612E+04  1.73039E+04 -5.65434E+03
  9.76858E+03  4.35473E+03  8.79006E+03  4.12544E+03 -2.30446E+03  4.29750E+03 -2.40630E+03  8.13288E+03
 -7.86996E+03  3.35009E+02 -4.26519E+03 -5.61229E+02 -4.21996E+03 -3.72568E+03 -1.72818E+03 -1.24646E+03
 -2.13468E+03 -7.28674E+02  9.64160E+02 -7.98301E+02  5.58726E+03 -5.25222E+03 -2.77959E+03 -3.16171E+03
  4.14875E+03  4.28215E+02  3.11248E+03  3.05105E+03  6.31717E+03  7.70265E+03  2.90805E+03  3.90300E+03
 -5.82989E+03  7.02670E+03 -7.27082E+03  5.75876E+03 -6.46937E+03 -7.56485E+02 -4.41651E+03 -3.88995E+02
 -1.58998E+03 -7.69656E+03 -1.36068E+03 -1.20918E+04  3.74571E+03  1.29440E+03  1.44108E+04 -7.59056E+02
  3.48915E+03 -3.02635E+03  4.57825E+03  4.66603E+03  5.15634E+03  3.48733E+03 -1.42334E+03 -6.07401E+03
  3.46839E+03  2.96971E+03  2.24905E+03  5.19118E+03  3.87026E+03 -5.77135E+02  1.74593E+03  8.38566E+03
 -1.71850E+03  3.12444E+03 -7.96929E+03  3.14983E+02 -3.03047E+03 -5.07159E+03  6.04326E+02 -5.40338E+03
 -2.10365E+03 -8.50914E+03  5.11692E+03 -5.19234E+03  9.20507E+03  8.28064E+02  5.84451E+03  7.18963E+03
 -1.31874E+03  1.85706E+03 -1.61803E+03  1.34089E+03 -3.14438E+03 -2.80147E+03 -6.18090E+03  2.02717E+03
 -2.59850E+03  2.93715E+03  2.11544E+03 -4.10831E+02  6.93386E+03  5.50393E+03  2.68558E+02  8.78193E+03
 -5.30961E+03 -2.96949E+02 -4.39331E+03 -6.79726E+03  4.65035E+03 -3.32386E+03  4.15188E+03 -3.28877E+03
  4.96321E+03 -6.76559E+02  4.22473E+03  5.34205E+03 -9.53298E+02  6.29908E+03 -7.74438E+03  4.63976E+03
