 $NMID ID='MM_0lb_SNR50_12hz_g40_10.RAW', FMTDAT='(8E13.5)'
 TRAMP=1., VOLUME=1. $END
  3.11801E+05 -1.80216E+03  3.39598E+05  2.49173E+05  8.15144E+04  3.30713E+05 -1.36712E+05  2.51816E+05
 -1.93180E+05  8.34448E+04 -1.12868E+05 -3.61263E+04 -1.10101E+03 -4.48890E+04  5.76742E+04  2.76141E+03
  3.02800E+04  5.55457E+04 -1.62898E+04  7.04632E+04 -6.01389E+04  6.97297E+04 -8.85669E+04  3.01084E+04
 -7.86116E+04 -8.66627E+03 -5.63255E+04 -5.33207E+04 -1.54843E+04 -6.77842E+04  2.62577E+04 -4.97552E+04
  4.15993E+04  6.20799E+03  2.01254E+04  4.91721E+04 -3.67885E+04  4.96194E+04 -7.33287E+04 -1.35138E+03
 -5.59805E+04 -5.61769E+04 -4.62043E+03 -7.42065E+04  3.43614E+04 -5.84029E+04  5.20376E+04 -1.72917E+04
  4.12773E+04  1.02787E+04  3.47463E+04  2.43344E+04  1.67654E+04  3.07339E+04 -3.44489E+03  2.46918E+04
 -2.29791E+04  1.05393E+04 -2.04382E+04 -3.05580E+03  4.15473E+03 -7.08346E+03  2.05205E+04  1.35489E+04
  6.64061E+03  3.83646E+04 -3.31650E+04  3.56194E+04 -6.88048E+04  7.77599E+02 -5.88498E+04 -4.40411E+04
 -1.38897E+04 -6.61501E+04  4.27857E+04 -4.59825E+04  5.97005E+04 -2.07565E+03  3.55827E+04  2.90087E+04
 -1.12058E+04  4.05962E+04 -2.60021E+04  1.56703E+04 -3.04872E+04 -6.19047E+03 -1.92849E+04 -1.11660E+04
 -6.36501E+03 -7.56159E+03  4.61370E+02 -2.32759E+04  7.66797E+03 -2.02850E+04  1.89597E+04 -1.29895E+04
  1.26747E+04  9.53769E+03 -8.00755E+03  1.58891E+04 -2.06868E+04 -5.04814E+03 -3.39127E+03 -3.12017E+04
  2.07848E+04 -4.31635E+04  4.84124E+04 -1.81133E+04  4.56060E+04  1.15239E+04  1.27615E+04  4.32343E+04
 -1.15488E+04  2.68779E+04 -2.38763E+04  8.09246E+02 -8.89680E+03 -2.74123E+04  2.41892E+04 -3.69708E+04
  3.91207E+04 -1.01475E+04  3.94501E+04  2.05455E+04  1.55309E+04  4.39515E+04 -4.71150E+03  4.83565E+04
 -2.75497E+04  3.37115E+04 -3.92824E+04  9.26039E+03 -4.15723E+04 -2.15543E+04 -2.84682E+04 -4.32960E+04
  8.34973E+03 -3.75752E+04  3.52953E+04 -1.29622E+04  3.03790E+04  1.23876E+04  3.03398E+03  2.03276E+04
 -1.25819E+04  5.08109E+03 -1.22691E+04 -8.70950E+03  6.79112E+03 -1.22882E+04  2.05636E+04  5.92853E+03
  1.57789E+04  2.10052E+04 -7.19774E+03  2.23775E+04 -2.56585E+04  1.52487E+04 -2.81130E+04 -5.29407E+03
 -1.98007E+04 -1.92009E+04 -9.93224E+03 -2.27714E+04  7.35450E+03 -2.55078E+04  1.79652E+04 -2.21332E+04
  2.83079E+04 -1.28911E+04  3.13450E+04  5.20044E+03  2.74473E+04  2.04260E+04  4.43916E+03  3.45221E+04
 -2.13721E+04  2.73228E+04 -2.91027E+04  1.12187E+04 -1.85547E+04 -1.18862E+04 -2.01288E+03 -1.41713E+04
 -1.18237E+03 -2.84912E+03 -7.52789E+03  1.25684E+04 -1.57801E+04  8.14940E+03 -2.14004E+04 -5.52736E+03
 -7.89769E+03 -2.36968E+04  2.69017E+03 -2.57618E+04  1.28638E+04 -1.65456E+04  2.11416E+04  7.50341E+03
  1.19384E+04  8.11229E+03 -3.51856E+03  1.87368E+04 -1.44177E+04  1.16671E+04 -2.24070E+04 -5.31106E+03
 -1.46433E+04 -1.45793E+04 -1.47285E+03 -2.41430E+04  1.36115E+04 -2.41740E+04  1.89501E+04 -5.27304E+03
  1.48609E+04  4.67958E+03  1.08708E+04  6.94255E+03  5.19320E+03  5.63006E+03  5.77577E+03 -4.81282E+02
  2.28760E+04  7.92336E+03  1.82553E+04  1.47889E+04  1.21658E+04  2.79248E+04 -6.18059E+03  3.88029E+04
 -2.10666E+04  2.68708E+04 -3.26855E+04  1.90121E+04 -3.59731E+04 -1.39639E+03 -3.17414E+04 -2.19459E+04
 -9.28068E+03 -3.24248E+04  4.42802E+03 -2.58236E+04  2.05914E+04 -1.66572E+04  1.27205E+04  9.08155E+03
  8.89274E+03  1.38509E+04 -5.96790E+03  1.38640E+04 -1.61146E+04 -1.04192E+03 -1.36860E+04 -1.31291E+04
  1.28079E+03 -1.38419E+04  1.36120E+04 -1.07603E+04  1.26106E+04 -4.89266E+02  1.50214E+03  1.02825E+04
 -4.39843E+03  1.79191E+03 -1.12225E+04 -8.05036E+03 -6.47750E+03 -1.24329E+04  7.07603E+03 -1.10997E+04
  2.26016E+04 -1.07307E+04  1.93876E+04  5.93012E+03  1.80670E+04  1.50067E+04  6.36240E+03  1.65622E+04
 -2.21422E+03  2.44885E+04 -1.39846E+04  1.21777E+04 -1.54847E+04  1.99559E+03 -1.29640E+04  1.01025E+03
 -8.83678E+03 -2.43010E+03  4.30290E+03 -1.39213E+03 -5.55688E+02  5.76441E+03 -2.23684E+03  6.76578E+03
 -1.12311E+04  2.61009E+03 -1.20974E+04 -9.19663E+03 -9.50406E+03 -1.81200E+04  5.19015E+03 -9.98905E+03
  6.01263E+03 -9.93920E+03  1.75609E+04 -2.50442E+03 -2.17348E+03  7.93051E+03 -1.14894E+03 -3.07027E+03
 -1.20321E+03 -1.07983E+04  1.47490E+03 -1.19080E+04  7.59485E+03 -1.34623E+04  1.16828E+04 -1.04185E+04
  2.01123E+04  3.56111E+03  1.32032E+04  1.05982E+04  2.18687E+03  1.22367E+04 -4.45038E+03  1.14994E+04
 -1.13599E+04  4.47157E+03 -2.13150E+03  1.22108E+03 -3.30743E+02 -1.02746E+03  6.60890E+03 -4.63603E+03
  4.06145E+03  2.52341E+03 -3.13812E+03  8.26025E+03 -6.75006E+03  7.81903E+03 -1.30036E+04 -4.91034E+02
 -8.68119E+03 -6.85475E+03 -3.28920E+03 -1.39061E+04  3.41106E+03 -3.85196E+03  8.72093E+03  1.70840E+03
  3.70539E+02  7.68808E+03 -5.59064E+03  6.89646E+03 -1.21650E+04  1.98755E+03 -8.00932E+03 -1.19241E+03
 -3.10819E+03 -9.84506E+03 -1.32083E+03 -1.92090E+04  1.22704E+04 -1.34804E+04  1.71536E+04  6.53916E+03
  6.61779E+03  5.76042E+03  3.63660E+03  1.25938E+04 -6.85601E+03  9.64359E+03 -1.15655E+04 -1.91775E+03
 -5.62067E+03 -6.04812E+03 -5.78588E+02 -5.92879E+03  4.43332E+03 -7.12843E+03  8.50012E+03 -2.14930E+03
  3.34325E+03 -5.15278E+03  1.47955E+03  1.04932E+03  4.08803E+02 -5.32249E+02 -3.23397E+03 -3.68542E+03
  6.36832E+03  6.54897E+02  1.01599E+04  1.64201E+03  1.03023E+04  6.47640E+03  1.03455E+04  1.26915E+04
 -5.27422E+03  1.62345E+04 -1.78415E+04  1.20208E+04 -1.83357E+04 -1.29414E+03 -1.43528E+04 -1.02496E+03
 -8.17208E+03 -1.19302E+04 -6.15795E+01 -1.70574E+04  3.70221E+03 -6.10402E+03  4.26588E+03 -6.56274E+03
  2.35561E+02 -5.91317E+03  4.03914E+03 -1.71491E+03  1.15483E+03  1.44444E+03  3.81017E+03 -5.79195E+03
  5.72922E+03  3.34177E+03  4.19700E+03  1.03704E+04 -3.89168E+03  4.00303E+03 -1.05115E+04  2.64873E+03
 -5.35089E+03  3.57716E+03 -7.96655E+03 -5.41994E+03 -1.88343E+03 -1.15001E+04  5.96558E+03 -9.60203E+03
  9.53584E+03 -8.25301E+03  1.34853E+04 -1.78698E+03  8.24064E+03  7.70611E+03  5.67990E+03  1.45606E+04
 -3.15757E+03  7.88392E+03 -4.80585E+03 -1.02998E+02 -4.80044E+03 -5.51853E+03 -6.50911E+03 -3.05725E+03
 -2.79929E+02 -4.68130E+02 -5.75899E+03  5.21147E+02  2.52414E+03  3.72872E+03 -3.89251E+03 -2.19203E+03
 -7.05378E+03 -9.54763E+03  7.58787E+03 -1.12514E+04  4.55781E+03 -4.87651E+03  7.85015E+03 -4.74288E+03
  3.38267E+03  3.96944E+03  4.72801E+02  7.49143E+03 -6.56951E+03  5.64919E+03 -6.92994E+03  7.22773E+03
 -1.23987E+04 -3.01916E+03 -1.07677E+04 -5.45597E+03 -1.70336E+03 -5.40607E+03 -2.96983E+03 -5.64073E+03
  9.99533E+03  2.70587E+03 -1.00043E+02 -1.01289E+02 -4.77532E+03  6.69888E+03  1.49850E+03  2.65271E+03
  2.79472E+03 -1.63706E+03  1.53190E+03  7.06548E+02  8.90591E+02  5.14012E+03  5.43260E+03  5.92681E+03
 -2.51545E+03  1.23678E+04 -5.40460E+03  6.61414E+03 -1.34626E+04  8.51791E+03 -1.07288E+04 -4.53206E+03
 -2.42352E+03 -6.34821E+03  4.64817E+03 -9.55628E+03  3.45840E+03 -6.75416E+03  1.13496E+04 -4.68456E+03
  8.12830E+03  6.16314E+03 -2.00468E+03  7.67847E+03 -2.51913E+03  3.72259E+03 -6.64244E+03  1.36491E+03
 -8.35079E+02 -6.02876E+03  3.77338E+03 -5.05499E+03  8.98639E+03  9.82195E+02  4.28932E+03  1.41641E+03
  2.02304E+03 -2.26949E+03  1.41943E+03 -2.18573E+03 -6.39398E+03  1.86895E+02  1.79732E+03 -9.40553E+02
  3.06011E+03  2.67988E+03  1.55374E+03  6.18993E+03 -2.82279E+03  7.28107E+03 -4.65080E+02 -1.39503E+02
 -5.03537E+03  4.38474E+03 -6.81027E+03 -1.51040E+03 -1.27252E+04 -2.77633E+03 -3.20065E+03 -4.00894E+02
 -6.93376E+02 -4.93908E+03  7.43086E+03 -3.54486E+02  3.02959E+02 -8.33957E+02 -4.11013E+03  5.11955E+03
 -1.55414E+03  3.48052E+03  2.46976E+03 -3.08447E+03 -2.69557E+03 -8.54610E+03 -4.85101E+01 -1.11402E+04
  3.64419E+03 -1.86735E+03  2.99881E+03 -9.22775E+02  3.88665E+03 -6.47786E+03  1.64273E+03  2.69313E+03
 -1.03418E+03 -4.20218E+03 -3.89072E+03 -5.68494E+03  2.51679E+03 -9.43443E+02  2.20763E+02 -2.75588E+03
  7.74736E+03 -4.56206E+03  5.74967E+03  1.73405E+03 -4.45677E+03  8.80945E+03 -2.15833E+03  6.50703E+03
 -5.95374E+03  9.13847E+02  5.12795E+02 -5.03773E+03  2.93633E+03 -4.88645E+03 -1.90673E+03 -3.15470E+03
  3.33332E+03 -3.78993E+03  5.19235E+03  1.37560E+03  1.68061E+02  9.21632E+02 -5.02860E+03  9.01005E+02
 -3.98325E+03  1.38800E+03  1.03050E+03 -4.35244E+03 -1.81685E+03 -8.30630E+02 -3.45839E+03  1.39715E+03
 -1.90356E+03  9.18171E+02 -3.97758E+02  3.92042E+03 -5.94079E+03  2.45662E+03 -6.82806E+03 -4.81120E+03
 -1.80899E+03 -5.39278E+03  2.76179E+02 -8.55284E+03  6.78978E+03 -1.09787E+04  1.07675E+04 -1.05827E+03
  6.65924E+03 -9.00091E+02  1.41407E+03  6.05406E+03  1.73664E+03  4.95351E+03 -7.33810E+03  6.24648E+03
 -2.33225E+03  1.01334E+04 -2.37476E+03 -3.27570E+03  1.45338E+03  1.63757E+03 -3.57023E+02 -2.74095E+03
 -3.05072E+03 -1.17850E+03  1.82745E+03 -4.81037E+03 -6.08689E+03 -3.65968E+03 -3.87532E+02 -2.85994E+03
  5.42462E+03 -5.93847E+03  2.06012E+03  2.49337E+03  1.62123E+03  4.74870E+03  2.94719E+03  4.90105E+03
 -5.78811E+03  3.85013E+03 -8.95692E+03  2.50356E+03 -4.77984E+03 -2.44493E+03 -7.67708E+03 -1.12829E+04
 -1.41801E+03 -5.01589E+03  1.16795E+03 -2.26082E+03  6.85947E+03  1.22887E+03  3.55746E+03 -2.53436E+03
 -2.55967E+03  6.57714E+03 -2.19111E+03  8.21687E+02  5.90032E+03 -4.29088E+03  7.93185E+02  1.28527E+03
  3.43826E+03  4.16294E+03  2.06471E+03 -2.76520E+03  5.70469E+03  5.76821E+03  4.15614E+03  6.02937E+03
 -8.67809E+02 -1.24183E+03 -3.40310E+03 -7.80329E+02 -3.82600E+03 -5.44625E+03 -1.50918E+03  2.86539E+03
  6.73069E+03  2.05694E+02  3.00242E+03 -2.57295E+02  4.76205E+03  2.00191E+03 -1.45707E+03  1.95057E+03
  4.63644E+03  5.10116E+03  3.01296E+02  1.98207E+03 -2.50438E+03  4.70502E+03 -7.14022E+02  3.49528E+02
 -2.57811E+03 -3.42819E+02 -1.11704E+03  3.79492E+03 -7.99158E+03  9.53030E+02 -6.39433E+03 -7.35777E+03
 -6.82890E+03 -5.99306E+02  1.82235E+03 -2.40413E+03  3.91921E+03 -4.07663E+03  6.46638E+03 -1.76917E+02
  3.91830E+03 -2.14071E+03  4.60785E+02  4.87783E+02 -4.48865E+02  1.87764E+03 -7.51481E+03  1.03566E+03
