 $NMID ID='MM_0lb_SNR50_12hz_g55_72.RAW', FMTDAT='(8E13.5)'
 TRAMP=1., VOLUME=1. $END
  3.07553E+05  1.97227E+03  3.36368E+05  2.53408E+05  8.48160E+04  3.42952E+05 -1.36250E+05  2.47972E+05
 -1.86419E+05  8.14615E+04 -1.16059E+05 -2.89733E+04  1.60144E+03 -4.98159E+04  5.95093E+04 -1.65808E+03
  3.93806E+04  4.72355E+04 -1.67259E+04  7.62785E+04 -6.00353E+04  6.16479E+04 -7.94428E+04  3.26351E+04
 -7.83929E+04 -1.37664E+04 -6.28476E+04 -5.12534E+04 -1.78396E+04 -7.20910E+04  2.89278E+04 -4.39809E+04
  4.28855E+04  2.52063E+03  1.80113E+04  4.35496E+04 -2.81579E+04  4.60874E+04 -6.67761E+04  2.85873E+02
 -5.50054E+04 -5.54772E+04 -1.21986E+04 -7.90240E+04  3.14400E+04 -5.32452E+04  4.62641E+04 -1.64085E+04
  5.04063E+04  1.01263E+04  3.26972E+04  2.46298E+04  1.29571E+04  3.20613E+04 -6.74605E+03  2.46279E+04
 -2.50528E+04  1.38755E+04 -2.23786E+04 -8.51974E+03  3.03910E+02 -7.18729E+03  2.31219E+04  7.98360E+03
  5.22584E+03  3.50640E+04 -3.03461E+04  3.77171E+04 -6.08582E+04  4.42457E+03 -5.35731E+04 -4.21195E+04
 -1.18896E+04 -6.37962E+04  3.75512E+04 -4.72532E+04  6.16176E+04 -4.96284E+03  3.11730E+04  3.26615E+04
 -8.47370E+03  4.07658E+04 -2.68255E+04  1.48089E+04 -2.88301E+04 -2.77404E+03 -1.50647E+04 -1.29128E+04
 -6.50508E+03 -1.34659E+04 -2.31789E+03 -1.68636E+04  7.36646E+03 -1.75147E+04  1.84723E+04 -1.11724E+04
  7.23024E+03  6.33460E+03 -6.40536E+03  1.64175E+04 -1.94847E+04 -1.28156E+04 -1.05313E+04 -3.29596E+04
  2.13800E+04 -4.83402E+04  5.28098E+04 -1.98678E+04  4.51081E+04  1.99187E+04  2.37824E+04  4.33163E+04
 -1.58467E+04  4.36688E+04 -2.73190E+04  2.30939E+03 -1.06760E+04 -3.43295E+04  2.10662E+04 -3.80597E+04
  4.38027E+04 -5.72341E+03  3.51720E+04  2.27645E+04  1.81508E+04  4.65903E+04 -7.22218E+03  5.60698E+04
 -3.21668E+04  3.87561E+04 -4.83096E+04  1.25528E+04 -4.34272E+04 -1.86843E+04 -1.92656E+04 -3.73197E+04
  4.46407E+03 -4.13907E+04  2.98803E+04 -1.31249E+04  3.26028E+04  1.17699E+04  7.08754E+03  2.27252E+04
 -1.64947E+04  1.10065E+04 -9.46101E+03 -9.28204E+03  2.97098E+03 -1.14774E+04  2.04085E+04  5.05585E+03
  1.46440E+04  1.71862E+04 -1.32749E+03  1.88601E+04 -2.26616E+04  1.36520E+04 -2.55920E+04 -4.54014E+03
 -2.14791E+04 -1.91505E+04 -1.15197E+04 -2.00683E+04  8.79636E+03 -2.51571E+04  2.60856E+04 -2.06616E+04
  2.78001E+04 -1.60033E+04  3.36198E+04  4.15545E+03  2.53623E+04  1.80242E+04  6.19785E+03  3.68394E+04
 -1.33103E+04  2.87997E+04 -2.97691E+04  1.40935E+04 -1.60124E+04 -1.23330E+04 -5.48306E+03 -1.34539E+04
  3.81658E+03  7.97223E+02 -6.98725E+03  4.08075E+03 -2.45210E+04  2.46723E+03 -1.80458E+04 -8.30576E+03
 -7.72524E+03 -2.23809E+04  4.71324E+03 -2.25970E+04  1.97969E+04 -1.76501E+04  2.14585E+04  4.82018E+02
  1.76450E+04  1.74354E+04  1.50870E+03  2.12668E+04 -1.61076E+04  1.01260E+04 -2.29344E+04 -2.11013E+03
 -1.75828E+04 -2.30125E+04 -2.59399E+03 -2.39265E+04  1.37365E+04 -1.80456E+04  2.32703E+04 -1.10011E+04
  2.06105E+04  9.52319E+03  1.37051E+04  5.08596E+03  6.48509E+03  4.67376E+03  8.17708E+03 -1.57543E+03
  1.85116E+04  1.66396E+03  2.02324E+04  2.01354E+04  2.10389E+04  3.33103E+04 -2.70903E+03  3.98910E+04
 -2.13467E+04  3.32995E+04 -3.75257E+04  1.79600E+04 -3.39782E+04  1.55691E+03 -3.53693E+04 -2.17874E+04
 -1.71597E+04 -3.65092E+04  1.30315E+04 -2.85622E+04  2.45002E+04 -1.28028E+04  2.22958E+04  1.12413E+04
  6.26824E+03  2.05299E+04 -9.51836E+03  1.42642E+04 -1.66483E+04  5.57329E+03 -1.27212E+04 -1.41574E+04
  1.72618E+03 -1.74856E+04  1.09135E+04 -1.32700E+04  1.41126E+04 -6.06241E+03  3.71005E+03  8.20873E+03
 -7.78179E+03  2.56618E+03 -1.36529E+04  2.32660E+02  8.36098E+03 -1.18964E+04  1.19062E+04 -1.56841E+04
  1.43429E+04 -8.01924E+03  1.83211E+04  2.46533E+03  2.13852E+04  1.47700E+04  1.02520E+04  2.50529E+04
 -1.80507E+03  2.93049E+04 -1.43704E+04  1.53093E+04 -1.24484E+04  2.66866E+03 -1.24652E+04 -7.91024E+03
 -7.25174E+03 -2.95834E+03  1.96282E+03  1.47479E+03 -1.18076E+03  1.07653E+02 -7.14465E+03  4.66738E+03
 -1.44222E+04 -3.31306E+03 -1.19680E+04 -1.43856E+04 -6.36387E+03 -1.69843E+04  5.89544E+03 -1.52938E+04
  1.31248E+04 -1.39762E+04  2.18128E+03  1.75636E+03  1.53173E+03  4.47759E+03 -3.92636E+03  1.13310E+03
 -4.89311E+03 -7.06182E+03  9.51832E+02 -1.65175E+04  1.16827E+04 -1.31362E+04  1.66458E+04 -4.05516E+03
  1.84279E+04 -2.25244E+03  1.50967E+04  1.21391E+04  8.49129E+01  1.65223E+04 -9.73337E+03  1.09459E+04
 -7.92562E+03  5.55273E+03 -9.53095E+03 -8.11427E+02  3.58839E+03 -4.70675E+03  4.99717E+03 -2.67798E+03
  4.50315E+03  1.13408E+04  1.78041E+03  1.19846E+04 -4.98443E+03  7.94664E+03 -7.52645E+03  2.79442E+03
 -8.48583E+03 -1.49228E+03 -3.31969E+03 -7.11778E+03  1.27833E+04 -8.28317E+03  5.67382E+03 -8.58366E+01
  3.00049E+03  8.85569E+03 -5.90547E+03  9.59236E+03 -5.78575E+03  6.32623E+03 -1.26092E+04 -3.43283E+03
 -4.60226E+03 -8.42877E+03  2.00729E+03 -1.68832E+04  1.01841E+04 -9.99706E+03  7.52987E+03  4.16995E+03
  9.10159E+03  9.08793E+03 -6.29523E+02  1.45783E+04 -4.44050E+03  5.33599E+03 -1.33199E+04 -2.83843E+03
 -3.43084E+03 -9.60917E+03  2.76566E+02 -1.06667E+04  2.78444E+03 -5.33600E+03  2.06270E+03 -4.97356E+03
  3.68210E+03  4.32743E+03 -7.74649E+03 -8.13058E+01  5.58165E+03  1.74249E+02  8.55141E+03 -1.03882E+04
  1.01292E+04 -4.01530E+03  1.14958E+04  2.01902E+03  1.30279E+04  3.51302E+03  1.00078E+04  1.28816E+04
 -3.78997E+03  1.91549E+04 -1.36599E+04  1.35763E+04 -1.85050E+04  1.88557E+03 -1.50858E+04 -1.08105E+04
 -6.69245E+03 -1.03166E+04  8.10927E+01 -1.14993E+04  5.17802E+03 -4.54547E+03  4.48434E+03  7.64601E+02
  7.03013E+03 -3.27067E+03  4.68733E+03 -3.78322E+03  5.32576E+03 -2.46913E+03  8.93367E+03 -8.63039E+02
  4.85481E+03 -1.78078E+03  7.14899E+03  5.45101E+03 -2.07716E+02  1.46880E+04 -6.60352E+03  2.99240E+03
 -1.16394E+04 -7.90812E+02 -6.90313E+03 -4.72454E+03 -7.94046E+02 -1.67970E+04  7.10814E+03 -9.51055E+03
  1.03957E+04 -7.92534E+03  1.56221E+04  1.53847E+03  1.32319E+04  6.56871E+03  2.77764E+03  2.04295E+04
 -7.09182E+03  1.31520E+04 -5.97119E+03  5.67368E+03 -6.61695E+03  2.15825E+01 -3.77755E+02 -1.83805E+03
 -1.43466E+02 -2.84926E+03 -7.89666E+03  5.11291E+03  1.74488E+03  6.42447E+03 -1.04918E+04 -3.61228E+02
 -1.01256E+04 -1.09524E+04 -2.79342E+03 -6.96431E+03  6.48503E+03 -1.08493E+04  1.52468E+04 -6.64930E+03
  1.16973E+04  5.59252E+03  5.95831E+03  1.02865E+04 -1.56738E+03  1.12016E+04 -5.98682E+03  5.56003E+03
 -8.98848E+03 -3.43818E+03 -8.47880E+03 -1.98561E+03 -1.37018E+02 -6.10187E+03  6.09984E+03 -6.48827E+03
  8.25784E+03 -4.47160E+03  4.44002E+03  3.12625E+03  5.43406E+03  4.47780E+03 -1.07062E+03  4.29917E+03
  4.43142E+03 -1.30738E+03 -1.33618E+03  5.14733E+03  4.75953E+03  2.69613E+03  4.65164E+03  1.77930E+03
 -8.61620E+02  8.94056E+03 -1.25647E+04  1.01305E+04 -9.37275E+03  3.86872E+03 -6.65329E+03  1.91341E+03
 -7.15357E+03 -1.02663E+04  2.43954E+03 -1.28708E+04  8.34756E+03 -7.23245E+03  7.66865E+03 -2.12975E+03
  5.35262E+03 -3.86058E+02  5.73116E+03  5.80776E+03 -7.97722E+03  5.31197E+03 -8.19094E+03  1.47954E+03
 -3.50476E+03 -3.35414E+03  6.22108E+03 -4.47382E+03  6.53900E+02  1.08770E+03  3.68054E+03  2.97658E+03
  5.49061E+03  8.70149E+03  4.42996E+03 -9.14924E+01  2.85322E+03 -3.16616E+03  9.90069E+02 -7.15019E+02
  9.38897E+02  4.74191E+03  5.60817E+03  8.14148E+03  3.89009E+03  4.97667E+03 -5.03633E+03  4.10497E+03
 -3.51237E+03  5.24838E+03 -1.14365E+04  1.93102E+02 -9.70257E+03 -3.68602E+03  2.62580E+03 -4.86287E+03
 -4.79943E+03 -9.54810E+03  1.95715E+03 -6.70525E+03  1.86129E+03  7.32346E+03 -1.89638E+03  1.75649E+03
 -4.57023E+03 -2.09371E+03 -4.45137E+03 -6.30311E+03 -1.28945E+03 -6.95160E+03 -1.55317E+03 -9.37274E+03
  1.21298E+02 -2.85160E+03  4.47424E+03  1.40825E+03  1.31854E+03 -6.52427E+02 -4.80930E+02 -1.99097E+03
  1.86491E+03 -7.99186E+03  9.15509E+02  4.00690E+02  2.88764E+03  1.13604E+03  8.01153E+03 -5.63469E+03
  9.02502E+03  2.25891E+03  7.93876E+03 -2.70655E+02  7.99758E+02  5.61674E+03 -5.14156E+03  1.29567E+03
 -2.26514E+03 -1.38385E+03 -6.93717E+03 -1.28579E+03 -3.91987E+03 -1.35304E+03  4.20914E+03 -4.49917E+03
  2.53628E+03 -3.89726E+03  5.89337E+03  3.42040E+03 -1.91695E+02  7.42496E+03  3.18892E+02  1.72330E+03
 -2.02003E+03  2.78785E+03 -1.02345E+03  4.92167E+02 -3.03215E+03 -1.13899E+03 -1.05976E+03  3.22652E+02
 -2.33302E+03  4.72459E+03 -7.14612E+03  2.04135E+03 -9.05117E+03  2.54450E+03 -3.72334E+03 -6.32615E+03
 -9.67867E+02 -1.56451E+04 -7.88710E+02 -1.18486E+04  5.61014E+03 -7.28175E+03  1.52468E+03 -1.50174E+03
  1.10225E+04  3.31966E+03 -1.27941E+03  7.77593E+03  1.92859E+03  9.79141E+03 -5.64237E+03  4.16173E+03
 -1.81361E+03  3.97824E+03  3.16471E+03  1.26788E+02  2.47078E+03 -3.38424E+03 -3.17028E+03 -2.14481E+03
 -4.61530E+03 -3.76400E+03 -1.54559E+03 -4.59777E+02 -4.57305E+02  3.63893E+03  2.51720E+03 -2.68904E+02
  1.99552E+03  2.82928E+03  3.33771E+03  2.48568E+03  3.39661E+03 -2.10151E+03  2.55997E+03  3.45136E+03
 -4.90979E+03  8.10601E+03 -9.17340E+02  7.48105E+03 -1.10230E+04  1.83645E+03 -4.05287E+03 -3.20148E+03
 -2.15225E+03 -3.76652E+03  3.65692E+03 -2.97415E+03  7.95583E+03 -2.73641E+03 -1.94146E+03 -8.72213E+02
  5.51233E+03  1.99302E+03 -7.28983E+03  3.77357E+03 -3.41498E+03 -1.22157E+03  4.58104E+02 -5.46395E+03
  1.63871E+03  3.43007E+03  2.78502E+03 -1.00098E+01  3.63374E+03 -1.02162E+03 -1.09975E+03  2.08401E+03
 -4.12563E+03 -1.24899E+03 -2.22982E+03  1.30909E+03 -4.65658E+03  3.13301E+02 -1.51665E+03 -3.27418E+03
  1.83554E+03 -4.64768E+03  5.67328E+03 -1.70875E+03  6.44794E+03  1.35190E+03  2.03561E+03  1.58634E+03
  4.26150E+03 -2.83312E+02 -1.75203E+03  9.39705E+03 -3.91653E+03  3.37765E+03  5.89214E+02 -9.01290E+01
  1.34837E+03  1.42207E+03 -1.30217E+03 -1.22170E+03  2.02746E+03 -1.03405E+03 -1.92482E+03  1.07856E+02
 -1.89678E+03 -4.04320E+03  4.59251E+03 -3.27068E+03  8.76349E+03 -6.05658E+03  3.72339E+03 -4.29158E+03
  1.16024E+03  4.76816E+02 -3.62924E+03  3.51080E+03 -6.39603E+03  1.72018E+03 -4.27982E+02  5.68345E+02
