 $NMID ID='MM_0lb_SNR50_12hz_g45_1.RAW', FMTDAT='(8E13.5)'
 TRAMP=1., VOLUME=1. $END
  3.11602E+05  6.48258E+03  3.37720E+05  2.51700E+05  8.93228E+04  3.37440E+05 -1.34051E+05  2.52208E+05
 -1.88880E+05  8.37508E+04 -1.08742E+05 -3.04734E+04 -3.66425E+02 -5.08775E+04  5.83429E+04  5.06925E+03
  3.69495E+04  5.22724E+04 -1.55612E+04  7.28678E+04 -5.92860E+04  6.53243E+04 -8.83841E+04  3.64507E+04
 -7.96631E+04 -1.00470E+04 -6.00932E+04 -5.22450E+04 -1.59365E+04 -6.77738E+04  2.41644E+04 -4.88152E+04
  4.28054E+04  5.99674E+03  1.71610E+04  4.70588E+04 -3.47783E+04  4.81349E+04 -6.53501E+04 -9.52970E+02
 -4.96030E+04 -5.51987E+04 -3.54029E+03 -7.48865E+04  4.00966E+04 -5.53036E+04  4.50164E+04 -1.31381E+04
  4.22297E+04  8.90256E+03  3.02419E+04  2.78576E+04  1.30870E+04  3.25624E+04 -3.51079E+03  2.93349E+04
 -2.32661E+04  1.04206E+04 -1.52230E+04 -5.94798E+03  5.49309E+03 -1.10071E+04  1.89593E+04  1.71810E+04
  8.15378E+03  3.54430E+04 -2.98131E+04  4.00851E+04 -6.48728E+04  3.50467E+03 -6.42268E+04 -4.16331E+04
 -1.57332E+04 -6.62614E+04  3.78325E+04 -4.79698E+04  5.98250E+04  1.81910E+03  3.30701E+04  3.52170E+04
 -4.84926E+03  3.66626E+04 -2.96707E+04  1.84424E+04 -2.80590E+04 -7.39433E+03 -1.44924E+04 -1.61103E+04
 -8.60059E+03 -1.11396E+04 -2.54538E+03 -2.22050E+04  5.89475E+03 -2.75815E+04  1.68627E+04 -1.33331E+04
  1.47063E+04  5.27709E+03 -8.21444E+03  1.11625E+04 -2.19934E+04 -6.57757E+03 -7.42094E+03 -3.63634E+04
  2.10963E+04 -4.51791E+04  5.16468E+04 -2.14864E+04  4.32621E+04  1.75912E+04  1.41622E+04  4.24373E+04
 -1.62236E+04  3.03969E+04 -3.10961E+04  1.43674E+03 -1.29999E+04 -2.76008E+04  1.81919E+04 -3.44003E+04
  3.83440E+04 -7.29871E+03  3.46592E+04  2.15179E+04  2.43637E+04  4.45350E+04 -5.28355E+03  5.17456E+04
 -3.22341E+04  2.96764E+04 -4.73272E+04  9.62565E+03 -4.21956E+04 -1.94717E+04 -2.41941E+04 -3.88809E+04
  7.16512E+03 -4.28613E+04  3.03824E+04 -1.91541E+04  2.55075E+04  1.18524E+04  4.35697E+03  2.19052E+04
 -1.11019E+04  7.44855E+03 -1.04488E+04 -1.06034E+04 -2.31270E+03 -1.26824E+04  1.72157E+04  9.61402E+03
  1.47809E+04  2.71919E+04 -1.09709E+04  2.34077E+04 -2.33832E+04  1.08186E+04 -2.45208E+04  5.48031E+02
 -2.10921E+04 -1.78505E+04 -1.06500E+04 -2.50808E+04  8.52128E+03 -1.73301E+04  1.48902E+04 -1.60100E+04
  2.83582E+04 -1.37957E+04  3.11303E+04  2.75811E+03  2.38847E+04  1.50596E+04  2.08547E+03  4.12017E+04
 -1.73553E+04  2.78486E+04 -3.05279E+04  1.21927E+04 -2.33113E+04 -8.06825E+03 -9.87770E+03 -1.54259E+04
 -2.07774E+03 -1.43442E+03 -4.00530E+03  7.27196E+03 -1.98660E+04  2.33203E+03 -1.43576E+04 -4.91376E+03
 -1.35788E+04 -2.37042E+04  1.10592E+04 -2.27809E+04  1.34677E+04 -1.76422E+04  1.94668E+04  1.50135E+03
  1.21275E+04  1.01601E+04 -5.91769E+03  2.31488E+04 -1.87712E+04  1.50618E+04 -1.66374E+04 -3.65422E+03
 -1.40513E+04 -1.83499E+04 -1.13861E+03 -2.31819E+04  6.44299E+03 -2.38637E+04  1.60414E+04 -1.35376E+04
  2.10543E+04  1.12019E+03  1.00610E+04  4.50356E+03  7.75827E+03  1.70331E+03  1.48413E+04 -3.54346E+03
  2.10384E+04  3.67204E+03  2.09101E+04  2.23765E+04  1.49803E+04  3.33085E+04 -1.55568E+03  3.23977E+04
 -2.24863E+04  3.09828E+04 -3.68302E+04  1.61862E+04 -3.99836E+04 -2.56697E+03 -2.54681E+04 -1.73226E+04
 -1.04528E+04 -2.63946E+04  1.40965E+04 -2.44135E+04  2.31598E+04 -1.75473E+04  1.92655E+04  9.73602E+03
  9.89133E+03  1.45048E+04 -1.35120E+04  1.14603E+04 -1.52849E+04  1.92504E+03 -1.80988E+04 -1.48381E+04
 -5.07607E+03 -1.38081E+04  2.80244E+03 -1.09653E+04  9.06371E+03 -1.90324E+03  4.06399E+03  7.44743E+03
 -1.00405E+04  4.21788E+03 -1.08845E+04 -5.68851E+03  4.54021E+03 -1.32649E+04  1.02114E+04 -1.47513E+04
  1.97098E+04 -8.27310E+03  2.12166E+04  1.16465E+03  1.65824E+04  1.45545E+04  3.94197E+03  2.52132E+04
  1.76078E+03  2.97618E+04 -1.73390E+04  1.10431E+04 -1.73009E+04  6.42921E+03 -1.94453E+04 -3.19669E+03
 -8.56878E+03 -9.87315E+03 -1.76627E+03 -1.42506E+03 -7.95915E+02  3.89814E+03 -4.17301E+03  1.50260E+03
 -1.16718E+04  9.71817E+01 -1.49343E+04 -6.04662E+03 -5.21599E+03 -2.34685E+04  1.16207E+04 -1.18181E+04
  7.45317E+03 -1.19279E+03  1.40462E+04  3.85619E+03  2.51372E+03  4.59137E+03 -7.04646E+03  1.66708E+03
 -8.33004E+03 -1.14320E+04  1.38120E+03 -1.08830E+04  8.66581E+03 -1.34740E+04  1.87751E+04 -9.10221E+03
  1.92264E+04  2.39778E+03  1.26425E+04  8.08488E+03 -3.07841E+02  1.48521E+04 -6.52362E+03  1.04711E+04
 -1.07480E+04  3.55302E+02 -2.50158E+03 -1.61282E+03  3.15004E+03 -2.94256E+03  9.40111E+03 -2.56021E+03
  7.33196E+03  9.27975E+03 -1.76632E+03  1.03776E+04 -8.12820E+03  1.34239E+04 -1.52353E+04  5.42973E+03
 -8.59909E+03 -1.06083E+04 -4.49331E+03 -1.24442E+04  3.68347E+03 -5.91410E+03  1.26821E+04  2.79004E+03
 -1.12509E+03  6.79040E+03 -1.06247E+04  1.10368E+04 -8.62571E+03  1.83977E+03 -9.39057E+03 -2.82337E+03
 -1.44162E+03 -1.22034E+04  5.63823E+03 -1.27010E+04  1.20122E+04 -1.12975E+04  1.07676E+04 -7.11174E+02
  1.06618E+03  1.01955E+04  6.84103E+02  1.45517E+04 -9.55780E+03  1.05479E+04 -1.23311E+04 -9.33778E+02
 -6.56502E+03 -7.05497E+03 -1.95292E+03 -1.03149E+04  6.01139E+03 -9.87409E+03  1.12359E+04 -3.77697E+03
  2.12486E+03 -5.96243E+02 -2.27311E+03  1.49391E+03  2.40322E+03 -1.21395E+03  2.66007E+03 -7.14559E+03
  7.90695E+03 -4.40149E+03  7.21897E+03 -3.49176E+03  1.21974E+04  4.64746E+03  3.16295E+03  1.89970E+04
  3.61405E+02  1.28879E+04 -1.56438E+04  1.65718E+04 -1.84833E+04 -3.16324E+03 -2.01624E+04 -9.84910E+03
 -7.39516E+03 -1.04404E+04 -2.06628E+03 -1.32873E+04 -6.56918E+02 -6.20388E+03  3.19950E+03 -2.62603E+03
 -3.59586E+03 -1.97035E+03  5.62338E+02 -1.95418E+03  1.12005E+04  3.55886E+03  5.05307E+03  2.19220E+03
  1.29491E+04  7.78655E+03  2.98183E+02  8.36549E+03 -5.79460E+03  4.71372E+03 -6.36307E+03  6.54624E+03
 -1.19296E+04 -5.95043E+03 -2.73419E+02 -2.22775E+03  3.88845E+02 -1.52618E+04  1.10116E+04 -1.11023E+04
  1.08551E+04 -6.99534E+03  1.24974E+04  1.16636E+03  9.36022E+03  6.61635E+03  1.21566E+03  1.05235E+04
 -3.47856E+03  8.82269E+03 -1.01998E+04  4.92047E+03 -1.04432E+04 -6.40867E+03  1.64218E+02  3.39160E+03
  9.39530E+01 -3.74688E+03  4.50855E+02 -1.36320E+03 -5.94354E+03 -2.22243E+03 -4.81801E+03  3.01506E+03
  2.59148E+02 -1.09374E+04  7.45308E+03 -6.76408E+03  1.30574E+03 -1.07792E+04  1.23925E+04 -5.23666E+03
  1.30938E+04  2.07737E+03  8.56193E+03  1.10948E+04 -3.47451E+03  1.18136E+04 -8.40579E+03  7.79956E+03
 -8.37945E+03  5.46310E+02 -1.10926E+04 -3.11997E+03 -1.60244E+03 -2.07231E+03  2.99672E+03 -7.74419E+03
  4.64619E+03 -2.64510E+03  7.88722E+03  1.49079E+03  2.18893E+03  3.48528E+03 -4.41798E+02  2.36711E+02
  4.77301E+03  1.19397E+03  2.23699E+03  5.32347E+03 -2.56084E+02  4.47022E+03  2.93076E+03  7.07210E+03
 -1.31739E+03  2.18081E+03 -4.74639E+03  9.36266E+03 -1.03739E+04 -1.76679E+03 -1.71382E+04 -3.08626E+03
 -5.97226E+03 -9.92064E+03 -4.31059E+03 -1.28890E+04  1.01626E+04 -4.98462E+03  6.20363E+03 -1.99378E+03
  9.79142E+03  7.00437E+03  3.37789E+02  5.07574E+03 -4.94077E+03  7.20791E+03 -2.19895E+03 -5.84427E+02
 -7.20282E+03 -3.30619E+03  3.36411E+02 -5.74378E+03  5.29946E+03 -5.01290E+03  4.17914E+03 -5.33439E+03
  2.36520E+03  1.38295E+03  2.26332E+03  5.72317E+03 -2.32534E+03  6.73862E+03  8.20769E+02 -1.70114E+02
  3.99333E+03 -1.81474E+03 -5.25771E+02  2.53841E+03 -1.56338E+03  1.94939E+03  4.92246E+02  7.94366E+03
 -2.76560E+03  9.68561E+03 -2.46104E+03  1.76769E+03 -6.92470E+03  3.26095E+03 -3.75732E+03 -4.20650E+03
  4.33601E+03 -7.71415E+02 -9.15515E+02 -7.20109E+01  2.24065E+03  5.27664E+03  3.43345E+03  3.51007E+03
 -2.48556E+03 -1.95390E+03 -3.17163E+03 -2.95931E+03  3.90506E+03 -5.70228E+03 -1.61109E+03 -2.47534E+03
 -1.63609E+03 -4.47442E+03  8.37968E+02  2.97708E+03  2.02034E+03  6.49608E+03  1.03038E+03  1.06106E+03
 -2.28355E+03  2.92837E+03  6.71832E+01  2.59503E+03 -2.79670E+03 -1.92653E+03  1.72336E+03 -1.21205E+04
  2.76396E+02  2.78741E+03  6.35802E+03  1.40126E+03  1.51322E+03  6.73986E+03  1.97481E+03  4.60995E+03
 -5.71543E+03 -2.89519E+03 -2.79530E+03  1.72349E+01 -4.04618E+03  1.68013E+02  7.68686E+03 -4.40671E+03
  7.96451E+02 -2.60165E+03  3.45549E+03  1.84377E+03  1.84918E+03  1.90523E+03 -4.10179E+03  6.55480E+03
 -4.85777E+03  3.89004E+03  6.94635E+02 -2.99972E+03 -1.07440E+03 -3.72507E+02 -6.39779E+03  6.26995E+03
 -1.56444E+03  3.91337E+03 -4.21885E+03 -1.12208E+03 -2.14536E+02 -4.18433E+03 -5.46515E+03 -3.45462E+03
 -5.49085E+03 -8.43781E+03  2.57941E+03 -1.11791E+04  7.12558E+03 -3.59566E+03  8.44719E+03 -1.39845E+03
  5.08350E+03  1.41845E+03  5.98965E+03  9.57482E+03 -1.78252E+03  6.18466E+03 -5.77296E+03  1.47948E+03
 -2.67812E+03  2.43585E+03 -2.86024E+03  7.42575E+02 -6.58088E+03 -2.54330E+03  4.41842E+03 -2.73869E+03
  4.40689E+02  2.69877E+03 -1.08008E+03  5.02753E+03 -2.10329E+03  2.59012E+03  2.28782E+03 -4.65798E+03
  2.11773E+03 -9.60687E+02  1.91241E+03  1.59570E+03 -6.36383E+02 -7.08454E+02  8.47687E+02  3.93762E+03
  1.81691E+03  5.34902E+03 -6.07570E+03  1.31220E+03 -6.80238E+03  3.95212E+03 -8.70665E+03 -6.93955E+03
 -5.16239E+03 -5.00848E+03  1.70240E+03 -9.77130E+03  9.72337E+02 -3.64477E+03  3.06839E+03  3.26028E+03
  2.35249E+03 -4.24024E+03 -3.35320E+03 -3.16512E+03  2.99328E+03  1.59218E+03  2.84810E+03 -1.90631E+03
  5.29571E+03 -2.68147E+03  7.98670E+03 -1.07868E+03  1.15200E+03  3.73726E+03  7.67266E+02  5.25413E+03
 -1.13001E+03  3.88664E+03 -4.81064E+03 -2.77652E+03 -5.04318E+03 -5.26092E+03 -1.57107E+03 -4.01484E+03
  3.78316E+03 -1.99740E+03  8.92568E+03 -6.00749E+03  6.35845E+03  7.07275E+02  4.07651E+03  2.92920E+02
  6.67872E+02  7.01080E+03  9.83554E+02  5.03497E+03 -1.67138E+03 -1.27848E+03 -3.05321E+03  8.15487E+02
  9.09640E+02 -1.83261E+03 -2.31171E+03 -1.81494E+03 -1.61004E+03 -4.48041E+03 -1.27603E+03 -5.36778E+03
 -5.84809E+03  1.77746E+03 -3.96399E+03 -3.67499E+03 -3.90566E+03 -1.07666E+04  3.65391E+03 -2.64287E+03
  3.41722E+03  1.82529E+03  5.40575E+03  8.07449E+03 -2.07671E+03 -2.15534E+03 -3.00512E+03  9.06457E+02
