 $NMID ID='MM_0lb_SNR50_18hz_g50_97.RAW', FMTDAT='(8E13.5)'
 TRAMP=1., VOLUME=1. $END
  3.11941E+05  2.17809E+03  3.39132E+05  2.50773E+05  8.37961E+04  3.41563E+05 -1.28289E+05  2.52237E+05
 -1.92234E+05  8.32655E+04 -1.11575E+05 -3.27487E+04  1.98409E+03 -4.96033E+04  5.63706E+04 -4.38811E+02
  3.57788E+04  5.06392E+04 -1.81307E+04  7.44448E+04 -6.24633E+04  6.54553E+04 -8.19610E+04  3.52133E+04
 -8.26666E+04 -1.07278E+04 -6.07972E+04 -4.89865E+04 -1.59122E+04 -6.81429E+04  2.83638E+04 -4.47467E+04
  4.21839E+04  5.61374E+03  1.33179E+04  4.35809E+04 -3.51825E+04  4.96460E+04 -6.57124E+04  2.28937E+01
 -5.17318E+04 -5.57395E+04 -4.36589E+03 -7.81149E+04  3.22208E+04 -5.73708E+04  4.70158E+04 -1.76666E+04
  4.35597E+04  1.17896E+04  3.03221E+04  2.34091E+04  1.91957E+04  3.11233E+04 -4.96910E+03  2.87665E+04
 -2.29057E+04  1.35581E+04 -1.99950E+04 -1.69038E+03  4.54228E+03 -7.80265E+03  2.04998E+04  6.69977E+03
  8.70867E+03  3.41131E+04 -3.60583E+04  3.50318E+04 -6.37681E+04  1.07321E+03 -5.56773E+04 -4.32185E+04
 -9.40504E+03 -5.82153E+04  3.72009E+04 -4.67049E+04  5.22767E+04 -5.00839E+03  3.15348E+04  2.63118E+04
 -8.05669E+03  3.52382E+04 -2.55765E+04  1.27917E+04 -2.92093E+04 -6.48012E+03 -1.62334E+04 -9.71264E+03
 -8.41586E+03 -1.10883E+04  1.05684E+03 -1.78066E+04  7.30262E+03 -2.27268E+04  1.72336E+04 -1.11712E+04
  1.37420E+04  5.98319E+03 -5.79393E+03  1.32088E+04 -2.03048E+04 -1.31425E+03 -9.21803E+03 -3.08362E+04
  2.28380E+04 -4.34102E+04  4.66901E+04 -1.84134E+04  3.73569E+04  2.08176E+04  1.80032E+04  4.20978E+04
 -1.47477E+04  3.06408E+04 -2.06942E+04  6.60887E+03 -6.32304E+03 -2.06166E+04  2.06771E+04 -2.94204E+04
  3.94992E+04 -6.80496E+03  2.97731E+04  2.72684E+04  1.95788E+04  4.18125E+04 -1.24825E+04  4.56102E+04
 -2.57317E+04  3.20770E+04 -3.72319E+04  7.71026E+03 -3.91233E+04 -1.29300E+04 -2.55386E+04 -3.78392E+04
  9.46769E+03 -3.54768E+04  3.22943E+04 -1.43097E+04  2.47977E+04  5.38988E+03  3.50710E+03  1.72834E+04
 -1.50024E+04  5.09023E+03 -1.06091E+04 -9.59747E+03  3.80494E+03 -1.24944E+04  1.87186E+04  4.90198E+03
  9.89178E+03  2.30940E+04 -4.87546E+03  2.52377E+04 -2.26923E+04  1.07942E+04 -2.66595E+04 -7.94553E+03
 -1.84932E+04 -1.72745E+04 -6.41529E+03 -2.09549E+04  2.10522E+03 -1.65502E+04  1.32235E+04 -1.74614E+04
  2.05485E+04 -1.10588E+04  2.93577E+04  2.88237E+03  2.21724E+04  1.79362E+04  3.11895E+03  2.85689E+04
 -1.66785E+04  2.46011E+04 -2.59134E+04  8.14604E+03 -2.24198E+04 -1.41496E+04 -6.87506E+03 -1.50054E+04
  2.41767E+03 -3.12540E+03 -5.71603E+03  4.76359E+03 -1.09382E+04  1.74354E+03 -1.60615E+04 -5.47639E+03
 -1.03163E+04 -1.55299E+04  4.86456E+02 -1.99057E+04  1.33952E+04 -1.50762E+04  1.75046E+04 -2.15667E+03
  7.14643E+03  8.54994E+03 -7.67534E+02  1.83709E+04 -1.16255E+04  9.69892E+03 -1.37473E+04 -2.27692E+03
 -8.58156E+03 -1.68595E+04  1.88907E+02 -2.26167E+04  1.01763E+04 -1.46629E+04  1.34702E+04 -8.70910E+03
  1.79858E+04  2.03190E+02  1.46598E+04  6.62632E+03  6.85987E+03 -1.03561E+03  4.74991E+03 -4.45595E+03
  1.44687E+04  2.62683E+03  1.42438E+04  1.45825E+04  1.17596E+04  2.92486E+04 -3.52387E+03  2.66399E+04
 -1.49300E+04  2.25836E+04 -2.51257E+04  1.21444E+04 -2.42749E+04 -2.59489E+03 -2.10059E+04 -1.78448E+04
 -8.38106E+03 -2.33786E+04  3.65181E+03 -2.57704E+04  1.58903E+04 -8.91753E+03  1.89704E+04  3.09540E+03
  4.09665E+03  1.40310E+04 -9.22047E+03  9.27985E+03 -1.41467E+04  1.47399E+03 -9.88800E+03 -6.91116E+03
 -2.83507E+03 -1.13757E+04  6.35114E+03 -1.16538E+04  7.39152E+03 -6.67806E+02  2.40231E+03  5.26345E+03
 -4.82863E+03  6.11926E+02 -3.36793E+02 -5.04004E+03  3.97480E+03 -1.45178E+04  8.89031E+03 -1.33983E+04
  1.11279E+04 -4.68687E+03  8.14988E+03  8.42735E+01  1.42341E+04  1.09640E+04  6.95324E+03  1.40146E+04
  8.21413E+02  1.59556E+04 -1.04881E+04  7.31450E+03 -1.33687E+04  6.33276E+03 -7.64065E+03  1.03123E+03
 -3.52024E+03 -3.23866E+03 -5.27450E+02 -2.59692E+01  2.08315E+03  1.52700E+02 -7.74808E+03  4.13737E+03
 -1.37894E+04  4.99565E+03 -8.88177E+03 -6.21095E+03 -7.99056E+03 -6.21430E+03  4.97893E+03 -7.87251E+03
  7.27170E+03 -6.31170E+03  7.52768E+03 -1.22272E+03 -6.86411E+02  1.61600E+02 -4.75584E+03 -8.26519E+02
 -1.34429E+03 -6.37423E+03 -1.86769E+03 -1.37727E+04  3.27486E+03 -9.72992E+03  1.22088E+04 -4.16606E+03
  9.48221E+03  1.65217E+03  9.39328E+03  3.79362E+03  2.88820E+03  8.09369E+03 -8.01651E+03  6.12911E+03
 -7.86270E+03  3.69905E+03  5.79561E+02 -4.91386E+02  6.79296E+02 -3.56786E+03  3.28849E+03 -6.51426E+03
  3.29937E+03  1.26686E+03  3.83309E+03  8.39769E+03 -4.51060E+03  7.78832E+03 -8.17689E+03  1.59597E+03
 -5.66531E+03 -3.18160E+03 -8.05238E+02 -4.87647E+03  4.72066E+03 -2.55419E+03  6.17935E+03 -1.13609E+03
  3.54794E+03  3.79332E+03 -5.05151E+03  2.24574E+03 -2.26511E+03  1.56652E+03 -2.59834E+03  2.23037E+03
  1.86015E+03 -9.61556E+03  1.95408E+03 -8.97289E+03  5.18486E+03 -4.34523E+03  8.14978E+03 -2.59462E+03
  6.68188E+03  4.35963E+03  1.30299E+03  8.28548E+03 -2.97383E+03  3.82048E+03 -4.12944E+03  1.81375E+03
 -4.84573E+03 -7.47068E+03 -9.48363E+02 -8.09742E+03  1.58204E+03 -1.86823E+03  1.54145E+03 -1.23364E+03
  9.91662E+02  7.35681E+02 -4.53613E+03 -1.42503E+03 -2.62755E+03 -3.33696E+02  1.08273E+03 -6.33217E+01
  3.22472E+03 -3.05245E+03  6.13488E+03 -7.98990E+02  5.58029E+03  2.34973E+03  7.05155E+03  8.42920E+03
 -2.52832E+03  1.15253E+04 -7.56357E+03  5.44369E+03 -9.13600E+03 -2.13973E+03 -1.10157E+04 -5.48188E+03
 -7.54589E+03 -6.84389E+03 -5.42855E+03 -8.68830E+03  2.31858E+03 -4.61264E+03  3.03354E+03 -2.00647E+03
  2.70691E+03 -1.03743E+02 -1.05911E+01 -3.60802E+03  5.76799E+03 -1.89596E+03  3.29142E+03 -8.41459E+02
  1.41374E+03  2.83741E+01  1.16625E+03  4.44529E+03  1.91457E+03  6.46086E+02 -3.82609E+03  5.39225E+03
 -7.52602E+03 -2.83026E+02 -2.27134E+03 -1.38941E+03 -2.86656E+03 -8.53160E+03  6.00972E+03 -7.53395E+03
  7.92435E+03 -8.14084E+03  6.20102E+03  6.16515E+03  1.53401E+03  2.86351E+03  5.39054E+01  7.72292E+03
 -1.69756E+03  8.26940E+03 -3.35322E+02 -9.30939E+02 -4.31242E+03 -2.93888E+03 -1.74401E+03 -3.78118E+03
  5.17354E+02  1.54930E+03 -2.10674E+03 -5.46230E+02 -2.07997E+03 -7.55778E+02 -6.39763E+03 -7.91220E+02
 -3.63151E+03 -4.93165E+03 -2.68368E+01 -7.17124E+03  5.13859E+03 -6.11984E+03  9.93640E+02  2.71302E+01
  5.97384E+03  9.49233E+02  7.18449E+03  4.64751E+03 -3.17673E+03  2.71546E+03 -1.17835E+02  2.01409E+03
 -3.32187E+03 -1.43507E+03 -5.22078E+02 -6.46056E+02  4.40702E+03 -1.39044E+03 -2.08760E+02 -3.97083E+03
  4.94867E+03  2.01247E+03 -2.71544E+02  2.03468E+03 -1.60714E+03  2.28350E+03  4.17516E+03 -8.06167E+02
  4.14828E+03 -2.23716E+03  3.03845E+03  5.16710E+02 -2.74286E+03  2.27902E+02 -2.15760E+03  2.96388E+03
 -2.39607E+03  2.74419E+02  6.89399E+02  5.14978E+03 -3.53608E+03 -4.78208E+03 -5.64289E+03 -4.52898E+03
 -5.55177E+02 -5.41621E+03  3.82081E+03 -4.35636E+03  3.33249E+03 -7.30112E+03  1.77303E+03 -2.57772E+03
  7.43246E+02  2.23022E+03  1.13728E+03 -1.07816E+03  1.88199E+03  8.57596E+01 -5.79664E+03 -7.15398E+01
  2.32183E+03 -4.81057E+03  7.06151E+03 -4.23621E+03  7.62534E+02  8.55046E+02  4.28815E+03  3.97155E+02
  7.50434E+03 -6.13381E+01  3.05628E+03  2.49294E+02 -8.73986E+02  5.34643E+03 -3.99240E+03 -3.40634E+03
 -1.42856E+03 -1.75976E+03  3.28491E+03  4.40751E+03  2.00144E+03  3.14379E+03  1.48026E+03  2.13946E+03
 -1.53116E+03 -2.74482E+02 -2.82951E+03  5.35366E+03 -4.84673E+02 -5.63611E+02  1.55655E+03 -5.99233E+02
 -3.59364E+03 -2.13535E+03  5.43114E+03 -5.51857E+02 -2.59591E+03 -3.14454E+03 -6.04557E+02 -5.58494E+03
 -2.41812E+02  4.11159E+03 -1.58887E+03 -1.09561E+03 -3.79367E+03 -7.36768E+03 -8.90021E+02 -3.00735E+03
  5.29939E+02 -3.41581E+03  2.98773E+03  2.12311E+03  2.51565E+03 -5.74352E+02  5.22075E+03 -1.56387E+03
  5.10502E+03 -4.01284E+03  2.52409E+03 -3.91746E+03  2.97681E+03 -1.35903E+03  1.77548E+03  5.87909E+02
 -1.83639E+03  1.10652E+03  3.33395E+03 -4.42779E+03  3.73585E+03  1.05111E+03 -1.21755E+03  7.87277E+02
  9.63631E+01 -1.05828E+03 -1.21426E+03  2.66243E+03 -1.64375E+03 -3.62539E+02  6.39153E+02 -2.43233E+03
 -9.13923E+01  3.48332E+03  5.78517E+02  9.50290E+02  3.74773E+03  1.14828E+03  2.56521E+03  9.33417E+02
 -7.09593E+02  1.57251E+03  2.74066E+03  2.62055E+03 -2.05104E+03  2.91299E+03 -2.60171E+03 -6.12378E+01
 -4.13513E+03 -3.74351E+02 -6.72078E+02  1.45980E+03 -1.95194E+03 -7.25047E+02 -5.62199E+02 -3.00244E+02
 -2.10537E+03 -5.34414E+03  1.32204E+03 -5.64930E+03  1.55034E+03 -6.01169E+03  2.48994E+03 -1.47722E+03
  1.79356E+03 -2.52262E+03  2.78002E+03  1.60888E+03  2.91799E+03  6.15314E+03 -6.48441E+02  2.14590E+03
 -2.68366E+03  2.96904E+03 -1.68415E+03  3.16949E+03  1.45969E+02  2.24359E+03  2.78108E+03 -4.20380E+03
 -6.03143E+03  1.03053E+03 -3.26192E+03  1.99759E+03 -1.62206E+03  8.14890E+02 -2.02040E+03 -8.56222E+02
  3.15432E+03  1.45271E+03 -1.69468E+03  4.70513E+03  1.12621E+03  2.52887E+03 -2.82986E+03  3.27938E+03
  3.39022E+03  5.38049E+03  1.30328E+03  8.34929E+02 -4.24642E+03 -2.84885E+03  4.51437E+03 -5.63217E+02
 -3.01726E+03 -1.78696E+03 -1.77160E+03 -7.57703E+02 -3.09406E+03 -9.53927E+02  6.57324E+03 -5.56731E+03
  2.43401E+03  2.89375E+03  2.23349E+02  6.03512E+03 -2.94081E+03 -3.15966E+03 -2.52716E+03  2.83199E+03
 -3.07842E+03  2.63095E+03  2.24842E+03  8.83039E+02  2.94751E+03  1.73934E+03  4.78816E+03 -4.28931E+03
 -1.52429E+03  2.32418E+03  2.40564E+03 -1.94301E+03 -1.81858E+03 -4.36190E+02 -1.63108E+02  3.34270E+02
  3.90888E+03 -1.15883E+03 -2.23325E+03 -3.30768E+03 -3.80571E+03  5.52200E+02 -2.28863E+03 -2.33965E+03
 -3.10082E+03  1.27906E+03  4.26650E+03  1.53281E+03 -2.15682E+03  4.83184E+03 -3.84758E+02 -2.02345E+03
 -1.41576E+03 -5.02945E+03 -6.78497E+02 -1.88282E+03 -1.32287E+03 -2.39494E+03  3.66652E+02  2.15695E+03
 -1.75991E+03  2.28012E+03  4.46019E+02 -1.71714E+03  8.16439E+01 -6.65344E+02  6.15226E+03  6.08007E+02
 -5.36023E+02 -1.70621E+03 -1.90822E+02  9.46133E+01 -2.86518E+03  2.55120E+03  1.74082E+02  3.89510E+03
