 $NMID ID='MM_0lb_SNR50_17hz_g50_19.RAW', FMTDAT='(8E13.5)'
 TRAMP=1., VOLUME=1. $END
  3.07136E+05  6.66933E+02  3.42759E+05  2.51809E+05  8.26532E+04  3.37065E+05 -1.33702E+05  2.52179E+05
 -1.87919E+05  8.21196E+04 -1.11255E+05 -3.66349E+04 -4.08851E+03 -5.17811E+04  5.34368E+04  5.37496E+02
  3.76613E+04  5.20144E+04 -1.59747E+04  7.05004E+04 -6.21814E+04  6.31448E+04 -8.41421E+04  3.22731E+04
 -8.43395E+04 -8.32427E+03 -6.19729E+04 -5.26686E+04 -1.45884E+04 -6.93361E+04  2.65239E+04 -4.45613E+04
  3.55901E+04  2.73119E+03  1.48084E+04  4.57371E+04 -3.36340E+04  4.99513E+04 -6.98161E+04 -3.07520E+03
 -5.01389E+04 -5.78850E+04 -8.01548E+03 -7.53953E+04  3.40657E+04 -4.89319E+04  4.74092E+04 -1.63802E+04
  4.00003E+04  1.22340E+04  3.35258E+04  2.20046E+04  1.70853E+04  2.56492E+04 -9.56367E+02  2.61878E+04
 -1.98418E+04  1.63317E+04 -1.79974E+04 -6.40915E+03  5.50749E+03 -8.38346E+03  2.19725E+04  1.00022E+04
  6.77658E+03  3.59681E+04 -3.37335E+04  3.49500E+04 -6.41599E+04  9.92043E+02 -6.11852E+04 -4.40229E+04
 -1.08924E+04 -6.21212E+04  3.85511E+04 -4.62216E+04  5.66425E+04  8.26062E+02  3.24243E+04  2.69591E+04
 -4.75588E+03  3.63575E+04 -2.81359E+04  1.53539E+04 -2.67911E+04 -3.84120E+03 -1.52148E+04 -1.42952E+04
 -9.62122E+03 -9.07336E+03 -1.11441E+03 -1.65433E+04  1.27709E+04 -1.84912E+04  1.35817E+04 -1.46461E+04
  1.17259E+04  4.98349E+03 -8.42663E+03  1.59548E+04 -1.91485E+04 -5.94263E+03 -7.43668E+03 -3.34572E+04
  2.48078E+04 -3.90002E+04  4.81100E+04 -1.71836E+04  4.11525E+04  1.86803E+04  1.80398E+04  4.40145E+04
 -1.32063E+04  3.15784E+04 -2.19291E+04  8.23312E+02 -1.70380E+03 -2.83272E+04  1.62494E+04 -2.65542E+04
  3.75099E+04 -1.17340E+04  3.13075E+04  2.48942E+04  1.60811E+04  3.93748E+04 -5.10886E+03  4.96571E+04
 -2.74528E+04  3.06055E+04 -4.23352E+04  1.03505E+04 -3.94530E+04 -1.49683E+04 -2.29560E+04 -3.58539E+04
  7.16301E+03 -3.83819E+04  3.21555E+04 -1.61044E+04  2.61425E+04  1.16792E+04  5.43434E+03  2.18445E+04
 -1.42032E+04  9.62250E+03 -8.66090E+03 -4.38815E+03  4.31559E+03 -7.03258E+03  1.69711E+04  9.74219E+03
  1.43789E+04  2.24105E+04 -1.11377E+04  2.12908E+04 -2.45972E+04  9.25789E+03 -2.82126E+04 -5.51109E+03
 -1.61417E+04 -1.99943E+04 -3.12826E+03 -2.18176E+04  3.80038E+03 -1.76321E+04  1.21048E+04 -1.82745E+04
  1.97158E+04 -1.39511E+04  2.95355E+04 -1.14336E+03  1.94747E+04  1.74571E+04  4.16568E+03  3.37602E+04
 -1.41685E+04  2.49636E+04 -2.53477E+04  9.26979E+03 -1.95670E+04 -9.79577E+03 -9.59186E+03 -1.18004E+04
  2.62400E+03 -3.59068E+03 -3.74840E+03  1.31336E+04 -1.48179E+04  5.60975E+03 -1.27995E+04 -6.76220E+03
 -9.78749E+03 -1.75707E+04  3.25841E+03 -2.50886E+04  8.62035E+03 -1.63474E+04  1.45880E+04 -1.75551E+03
  1.01729E+04  1.46734E+04  1.00196E+02  1.63626E+04 -1.15158E+04  7.97661E+03 -1.57245E+04 -3.35470E+02
 -1.11539E+04 -1.69232E+04 -5.23397E+03 -1.81767E+04  1.01572E+04 -1.67074E+04  1.98333E+04 -6.78697E+03
  1.74264E+04  9.82302E+02  8.61526E+03  1.79482E+03  1.10533E+04  7.66499E+02  7.96760E+03  1.88524E+03
  1.45312E+04  2.06424E+03  1.65121E+04  1.39930E+04  1.10670E+04  2.42569E+04 -8.62630E+02  3.09115E+04
 -1.69194E+04  2.21035E+04 -2.50507E+04  1.02821E+04 -2.34389E+04 -6.91534E+03 -2.41096E+04 -1.25821E+04
 -1.05964E+04 -2.79241E+04  6.51456E+03 -2.34715E+04  1.77902E+04 -1.19500E+04  1.88733E+04  4.25242E+03
  5.34474E+03  1.11437E+04 -7.38337E+03  9.10033E+03 -1.09862E+04  6.28638E+03 -1.42241E+04 -9.72797E+03
  1.80104E+03 -1.54206E+04  9.59268E+03 -9.63405E+03  4.71976E+03 -2.11166E+02  2.22216E+03  6.00375E+03
 -7.31236E+03  8.45415E+02 -5.43138E+03 -3.64486E+03 -2.48386E+03 -1.43533E+04  4.67699E+03 -7.63579E+03
  1.56830E+04 -9.08865E+03  1.40195E+04 -1.21245E+02  1.32194E+04  1.22613E+04  1.02403E+04  1.61339E+04
 -2.53618E+03  1.54299E+04 -1.06559E+04  1.01101E+04 -1.28080E+04  4.48045E+03 -4.66289E+03  2.33834E+03
 -5.15340E+03 -1.92472E+03 -1.23344E+03 -2.09454E+03 -1.73350E+03  3.99300E+03 -5.16741E+03  1.49435E+03
 -8.33676E+03  1.69979E+02 -9.50596E+03 -3.45555E+03 -6.86752E+03 -1.08942E+04  6.36357E+03 -1.25407E+04
  6.26025E+03 -8.71949E+02  4.18637E+03  4.52522E+03  4.61429E+03  1.31170E+02 -5.05855E+03  1.12872E+03
 -4.29608E+03 -9.47903E+03 -7.78429E+02 -1.07518E+04  2.83219E+03 -1.02315E+04  8.32923E+03 -2.97954E+03
  1.43833E+04  2.54573E+03  1.26380E+04  7.91201E+03  3.39625E+03  6.37986E+03 -5.21613E+03  1.47312E+04
 -6.12299E+03  1.81316E+03 -5.23092E+03  9.35749E+02 -8.97504E+02  2.22238E+02  4.30604E+03 -3.90293E+03
  5.72981E+02  6.00175E+03 -2.95466E+02  3.47891E+03 -7.60078E+03  1.21055E+03 -7.87145E+03  3.14618E+03
 -2.76957E+03 -2.50991E+03 -2.58754E+03 -6.94811E+03  6.68770E+03 -4.82942E+03  7.27270E+03 -2.04551E+03
  2.61371E+03  5.06382E+03 -4.03172E+03  8.92911E+03 -3.74268E+03  1.08429E+03 -4.63844E+03  3.23396E+03
 -4.89584E+03 -3.34297E+03  1.03149E+03 -1.04067E+04  1.14832E+04 -5.45468E+03  5.75186E+03 -1.81588E+02
  5.99425E+03  7.72330E+03  3.06409E+02  9.09613E+03 -7.65878E+03  7.10677E+02 -6.52818E+03 -1.80710E+03
 -4.61078E+03 -4.34084E+02 -1.65350E+02 -1.92241E+03  1.09940E+03 -3.58004E+03  4.41114E+03 -4.71257E+03
  5.85063E+03 -1.71483E+03  1.95099E+03 -1.07614E+02  6.35989E+02  7.48840E+02  5.08939E+02 -2.88458E+03
  5.11389E+03  1.31989E+03  6.81719E+03 -5.31662E+02  2.11426E+03  1.11296E+03  5.26054E+03  1.54070E+04
 -5.37144E+03  1.09258E+04 -7.75498E+03  6.81628E+03 -1.19257E+04  1.36410E+03 -5.46339E+03 -7.07300E+03
 -9.74885E+03 -1.00314E+04  4.51737E+03 -1.03114E+04  1.52828E+03 -1.05256E+03 -2.32641E+02 -3.78048E+03
  2.86582E+02 -1.57852E+03  8.73529E+02 -6.50417E+03  3.81173E+03  3.10722E+03  5.65875E+03  8.96719E+02
 -1.04339E+03  3.41244E+02  2.51917E+03  4.33121E+03 -3.16751E+03  9.60642E+02 -7.45412E+03  3.46764E+03
 -4.66050E+03 -1.43855E+03 -1.75935E+03 -1.96499E+03 -2.53465E+03 -1.08925E+04  2.66323E+03 -7.31922E+03
  2.70370E+03 -9.42620E+02  9.33053E+03 -8.19683E+02  4.89363E+03  8.98837E+02 -4.05287E+02  4.91881E+03
 -5.26797E+03  8.06973E+03 -6.43492E+03  2.42931E+03 -8.54868E+02 -1.93955E+03  1.09259E+03 -2.83321E+03
 -2.30597E+02 -5.32855E+02 -3.73758E+03  2.45818E+03 -7.50415E+01  7.56674E+02 -5.27653E+03 -6.08493E+02
  4.34183E+02 -4.72630E+03  2.67257E+03 -6.09335E+03  2.72152E+03 -8.75818E+03  5.95705E+03  4.58632E+02
  6.37664E+03  4.26573E+03  3.28935E+03  2.60879E+03 -2.39003E+03  5.52420E+03 -1.94667E+03  1.07162E+03
 -4.14812E+03 -3.81957E+02 -4.09015E+03  8.76381E+02  4.75519E+03 -4.72323E+03  1.10111E+03 -7.17688E+03
  4.41059E+03 -4.67693E+02  2.57936E+03 -1.87599E+03  1.50711E+03  7.52221E+03  2.92400E+03  4.20268E+01
  4.23466E+03 -9.53407E+02  4.34435E+03  6.71167E+03  1.34334E+03  1.75304E+03  3.12023E+03  6.03149E+03
 -7.86943E+03  6.35997E+03 -8.05172E+03  5.51374E+03 -2.79077E+03 -5.93040E+02 -5.09751E+03 -9.64904E+02
 -4.14598E+03 -5.13574E+03 -9.04280E+02 -5.45639E+03  2.82239E+03 -6.32129E+03  1.51305E+03  8.01938E+02
 -1.65153E+03  5.68796E+03  2.46489E+03  2.60625E+03 -5.73578E+02  2.35750E+03 -1.22815E+03  3.30512E+02
 -3.19984E+03  2.59061E+03  4.32584E+03 -1.14740E+03  1.73634E+03 -2.18109E+03  1.39057E+03  3.35800E+03
  1.50501E+03  5.33736E+03  1.38740E+03 -4.88475E+03 -1.75292E+03 -4.28549E+03  1.64407E+03 -3.51240E+03
 -3.18251E+03  2.00052E+03  4.22125E+03  3.15596E+03 -1.22466E+02 -1.00974E+03  5.49362E+02  5.18184E+03
 -6.17046E+03 -2.63702E+03 -2.57210E+03 -2.25985E+03 -2.01746E+03  8.31558E+01 -4.07222E+02 -3.07245E+03
 -2.89207E+03  6.55224E+02  3.51697E+03 -2.24408E+03 -1.92819E+03 -1.97397E+02 -4.18082E+03  2.34320E+03
  1.20090E+03  2.81248E+03 -1.03265E+03 -2.72444E+01 -1.89831E+02 -7.84675E+03  1.65148E+03 -1.50620E+03
  2.66372E+02 -2.96453E+03  4.47026E+02 -1.65008E+03  2.92016E+03  2.32167E+03 -8.14622E+02  4.25410E+03
 -1.04902E+03 -3.18624E+02 -9.23421E+01  2.53816E+03 -2.82973E+03  2.89023E+03  2.27597E+03 -4.97372E+03
  2.41572E+03  1.24253E+03 -5.12510E+02  2.07047E+03  3.53532E+03  1.77435E+03  3.39405E+03  1.93286E+03
 -4.23513E+03  2.76522E+02  1.99653E+01 -1.03980E+03 -2.87968E+03 -6.80192E+03  3.87312E+03 -5.49098E+02
  4.91842E+03 -8.98505E+02  3.64057E+03 -1.51569E+03  4.38163E+02  1.95163E+03  1.77168E+03  2.57035E+02
  1.36008E+03  3.86315E+03  2.15455E+03  4.62342E+03  1.75055E+03 -3.66728E+01  2.93672E+03 -7.69753E+02
 -1.47175E+03  1.71871E+03 -3.10369E+02  2.33134E+02 -7.54596E+03 -1.77553E+03 -1.83377E+03 -2.77253E+02
 -1.28695E+03 -2.88827E+03 -2.57920E+03 -2.86439E+03  3.23287E+03  4.08089E+02  7.36010E+03 -1.45550E+02
 -4.24505E+02 -1.17313E+03  1.94006E+03 -4.11000E+03 -3.27014E+02  2.25541E+03 -2.58714E+03  7.00305E+03
 -3.11430E+03  1.45054E+03 -2.21452E+03 -1.14597E+03  1.09856E+02 -5.39280E+02 -3.44158E+03  1.99191E+03
  6.11465E+02  9.35042E+02 -1.53480E+02  3.96179E+03  2.02611E+03  2.01412E+03  3.00491E+02 -4.93302E+02
  2.21064E+03  1.66244E+03  2.76063E+03 -4.83635E+03 -3.40601E+03  2.15417E+03 -1.00297E+03  1.81140E+03
 -4.02039E+03  1.83451E+03 -1.09601E+03  4.88306E+03 -4.96564E+03 -2.31075E+03 -1.29336E+03 -2.99361E+03
 -1.21035E+03 -4.86460E+03 -9.87986E+01 -8.68280E+02  3.16090E+03 -3.00725E+02  1.49247E+02  2.38192E+03
  7.91118E+02  4.60399E+03 -4.49932E+03 -1.69741E+03  2.83543E+03 -1.72109E+03  2.55668E+02  4.25675E+03
 -4.90242E+03 -3.91072E+03  2.45780E+03  7.94229E+02 -4.55695E+03  5.27119E+03  3.46146E+03 -1.57453E+03
 -3.33152E+03  2.87851E+03 -2.81043E+03  1.91210E+00 -1.48182E+03 -3.75706E+03  1.32440E+03 -1.51510E+03
 -1.52035E+02 -7.25829E+02  3.62042E+03  1.49529E+03  4.87616E+03  3.41905E+03 -2.45019E+03  1.90090E+03
  3.95130E+03 -6.53028E+02 -4.73912E+03  1.61227E+03 -5.60314E+02 -1.71305E+03 -1.64712E+03 -3.73165E+03
 -2.55321E+03 -3.10107E+02  4.15143E+03  3.92479E+03  4.14008E+03  4.26102E+03 -1.62816E+03 -2.18996E+03
  4.84659E+03 -1.75783E+03 -5.13940E+02 -4.91054E+03 -1.64649E+03  2.88896E+03  3.96083E+03  4.22355E+02
  1.74540E+02 -1.69209E+03  1.24267E+03  1.62318E+03  3.65422E+03  2.18688E+03  2.16197E+03  1.80818E+03
