 $NMID ID='MM_0lb_SNR50_12hz_g60_62.RAW', FMTDAT='(8E13.5)'
 TRAMP=1., VOLUME=1. $END
  3.06925E+05 -5.89968E+02  3.42907E+05  2.50773E+05  7.62892E+04  3.42779E+05 -1.32468E+05  2.55393E+05
 -1.92716E+05  8.59814E+04 -1.08254E+05 -2.83112E+04  1.89671E+03 -5.48550E+04  5.35212E+04  2.46906E+02
  3.71909E+04  5.61331E+04 -1.50602E+04  7.54883E+04 -6.19172E+04  6.64416E+04 -8.23953E+04  2.91891E+04
 -8.04507E+04 -9.62101E+03 -5.81059E+04 -5.35252E+04 -1.42904E+04 -7.20802E+04  2.79175E+04 -5.11975E+04
  3.81998E+04 -2.10667E+03  1.67406E+04  4.85679E+04 -2.80987E+04  4.78927E+04 -6.87561E+04 -3.01066E+03
 -5.51446E+04 -5.60520E+04 -4.48487E+03 -8.02371E+04  3.60735E+04 -5.53488E+04  4.98416E+04 -2.14742E+04
  3.69416E+04  1.64499E+04  3.89875E+04  2.68804E+04  1.67465E+04  3.05292E+04 -1.14818E+04  2.95017E+04
 -2.07197E+04  7.05234E+03 -1.89467E+04 -6.85673E+03  1.44391E+04 -2.64216E+03  3.00070E+04  1.17452E+04
  6.49217E+03  3.68623E+04 -3.86791E+04  3.38211E+04 -6.76445E+04  3.29269E+03 -5.79517E+04 -5.11199E+04
 -7.79235E+03 -6.24177E+04  4.35248E+04 -4.63528E+04  6.36661E+04 -9.88877E+03  3.53304E+04  3.35681E+04
 -4.28448E+03  3.74996E+04 -2.96888E+04  1.81158E+04 -3.09159E+04 -2.48409E+03 -2.04575E+04 -1.81774E+04
 -8.50647E+03 -1.78758E+04 -2.26730E+03 -1.91591E+04  9.05230E+03 -2.01869E+04  6.52063E+03 -9.91820E+03
  1.14727E+04  1.29959E+03 -8.89362E+03  1.55962E+04 -2.28228E+04 -6.72364E+03 -6.23748E+03 -3.81460E+04
  2.72961E+04 -4.56452E+04  4.97317E+04 -2.16796E+04  4.49985E+04  2.50284E+04  1.59061E+04  5.12949E+04
 -1.56448E+04  3.47855E+04 -2.39303E+04  8.98388E+03 -9.09321E+03 -3.09281E+04  2.02635E+04 -3.65611E+04
  4.38248E+04 -1.36224E+04  3.48796E+04  2.19221E+04  2.32161E+04  5.30266E+04 -5.92596E+03  5.69791E+04
 -3.22794E+04  3.63045E+04 -4.77269E+04  1.27635E+04 -4.91859E+04 -1.78146E+04 -2.56573E+04 -4.10804E+04
  4.33324E+03 -4.54454E+04  3.03251E+04 -1.39731E+04  3.25734E+04  1.19522E+04  5.26873E+03  2.03704E+04
 -1.82325E+04  1.93708E+04 -7.80794E+03 -1.44186E+04  5.85683E+03 -9.81918E+03  1.85489E+04  9.06227E+03
  1.40269E+04  2.72784E+04 -8.44643E+03  2.91864E+04 -2.29086E+04  8.12699E+03 -3.59569E+04 -8.61845E+03
 -2.19292E+04 -2.32715E+04 -1.03641E+04 -2.48447E+04  4.78295E+03 -2.16556E+04  1.78448E+04 -1.63219E+04
  3.26555E+04 -1.06717E+04  4.08173E+04  8.15352E+03  2.33310E+04  2.22672E+04  5.42877E+03  3.93847E+04
 -1.95334E+04  3.48207E+04 -3.22934E+04  8.58065E+03 -2.22110E+04 -9.24036E+03 -9.06700E+03 -1.47550E+04
  5.63384E+03 -1.86425E+03 -1.07083E+04  8.48248E+03 -2.32645E+04  4.50970E+03 -1.99410E+04 -1.00812E+04
 -6.71655E+03 -2.58280E+04  3.16361E+03 -2.81231E+04  1.73672E+04 -1.85596E+04  1.90502E+04 -6.00928E+03
  1.25878E+04  1.66664E+04 -3.91627E+03  2.62818E+04 -9.68970E+03  1.68971E+04 -1.80914E+04 -3.36415E+02
 -1.60807E+04 -2.08783E+04 -1.39881E+03 -2.79815E+04  1.32217E+04 -2.21586E+04  2.11110E+04 -1.12024E+04
  1.71406E+04 -6.66488E+02  1.50238E+04 -3.65016E+02  7.70355E+03  3.91247E+03  1.29098E+04  1.98518E+03
  1.71261E+04 -5.20641E+03  2.20621E+04  2.41897E+04  1.67375E+04  3.62979E+04 -5.24100E+00  3.63644E+04
 -2.32066E+04  3.84931E+04 -4.24128E+04  1.31285E+04 -4.28239E+04 -5.41269E+03 -4.02985E+04 -2.26877E+04
 -1.82996E+04 -3.57745E+04  1.12138E+04 -2.75824E+04  2.29833E+04 -1.69135E+04  1.98574E+04  9.30934E+03
  3.75012E+03  1.92204E+04 -1.20610E+04  1.53611E+04 -2.06557E+04  6.28674E+03 -1.76230E+04 -8.48259E+03
 -2.47716E+03 -2.14177E+04  7.52484E+03 -1.53015E+04  8.06448E+03 -1.73217E+03  1.63595E+03  5.48810E+03
 -1.13440E+04  3.56643E+03 -3.96477E+03 -4.29247E+03  2.48459E+03 -2.06420E+04  1.02968E+04 -1.42216E+04
  2.33800E+04 -1.16960E+04  2.62589E+04  2.09564E+03  1.95717E+04  1.83141E+04  2.36093E+03  2.32702E+04
  1.88023E+03  2.12213E+04 -1.45322E+04  1.75149E+04 -1.98005E+04  6.45309E+02 -1.41067E+04 -7.64126E+03
 -7.52839E+03 -5.12992E+03  2.28677E+03  2.78944E+03 -4.54752E+03  6.17462E+03 -7.08447E+03  9.11292E+03
 -1.29772E+04 -4.11326E+03 -1.20764E+04 -1.56556E+04 -1.01307E+04 -1.58592E+04  5.34533E+03 -1.20966E+04
  7.55997E+03 -8.23049E+03  7.88622E+03 -2.09711E+03  1.24621E+03  8.55829E+03 -4.06061E+03  2.51664E+03
 -7.47631E+03 -7.77042E+03 -8.08772E+03 -1.06946E+04  7.24311E+03 -8.03566E+03  1.98376E+04 -7.78583E+03
  1.68089E+04 -2.42046E+03  1.70340E+04  8.25234E+03  3.55134E+03  1.30506E+04 -9.99574E+03  1.49471E+04
 -1.23852E+04  1.08482E+04 -6.99961E+03 -3.45877E+03  1.61322E+03 -2.83431E+03  9.72762E+03  2.73969E+03
  8.48502E+03  1.11881E+04  6.09781E+03  6.35495E+03 -4.95186E+03  1.54548E+04 -1.39361E+04  2.69006E+03
 -7.77543E+03 -8.01807E+03  2.09889E+02 -1.28574E+04  7.29376E+03 -2.41876E+03  7.51334E+03  8.80793E+02
 -1.26773E+03  6.53074E+03 -6.16444E+03  1.13227E+04 -1.08649E+04  4.14973E+03 -1.10551E+04 -5.77500E+03
 -9.19521E+03 -1.19783E+04 -1.47705E+03 -1.85695E+04  1.94278E+04 -1.52378E+04  1.30524E+04  1.67201E+03
  9.97961E+03  7.96314E+03 -1.88905E+03  9.40906E+03 -6.86453E+03  9.81640E+03 -1.09372E+04  5.96537E+03
 -6.80562E+03 -1.49860E+04 -1.01669E+03 -1.31861E+04  1.00932E+04 -1.02671E+04  1.12236E+04 -9.40448E+03
  4.89366E+03  3.14587E+02 -1.09600E+02 -2.26026E+03 -5.80483E+03 -2.49011E+02  3.44233E+03 -3.90873E+02
  1.10559E+04 -8.24328E+03  1.48368E+04  1.88736E+03  1.07432E+04  8.47773E+03  6.37434E+03  1.27014E+04
 -3.95205E+03  1.79378E+04 -1.40729E+04  1.63867E+04 -1.96167E+04  4.44049E+03 -2.35107E+04 -9.27183E+03
 -4.15107E+03 -1.58380E+04 -6.40408E+02 -1.28419E+04  4.50579E+03 -2.27818E+03  4.94377E+03 -1.10435E+04
  3.26734E+03 -6.10446E+02  5.30557E+03  2.23060E+03  3.87531E+03  2.01987E+03  9.59682E+03 -1.14384E+03
  1.08557E+04  3.50421E+03  1.73780E+03  1.02310E+04 -6.18248E+02  6.75454E+03 -9.88006E+03  8.09871E+03
 -1.22012E+04 -4.89494E+02 -8.73840E+03 -9.53516E+03  7.47314E+02 -1.58127E+04  6.96561E+03 -1.48419E+04
  6.88172E+03 -6.62933E+03  1.93918E+04  2.12010E+03  1.25850E+04  1.14705E+04  7.79873E+03  1.32409E+04
 -6.59261E+03  7.71686E+03 -3.19541E+03  1.86381E+03 -6.02563E+03  2.63207E+03 -6.41022E+03 -3.50220E+03
  8.44551E+02 -3.76478E+03 -1.39938E+03  4.44597E+03 -3.37938E+02  3.43157E+03 -6.13663E+03 -2.55995E+03
 -7.79784E+03 -4.90630E+03  2.61578E+03 -9.91985E+03  1.20323E+04 -7.51475E+03  1.17112E+04  2.38663E+02
  5.34144E+03  5.78060E+03  3.51973E+03  1.15560E+04 -7.64241E+03  1.02757E+04 -9.77341E+03  7.41083E+03
 -1.03933E+04  4.43700E+03 -6.18916E+03 -8.68421E+03 -1.12515E+03 -9.74763E+03  3.17866E+03 -1.08748E+04
  5.28000E+03 -2.03202E+03  1.26220E+03 -1.56703E+03  1.70410E+03 -5.34368E+02  3.05064E+03  5.37566E+03
  2.69670E+03 -7.87572E+01  6.88634E+03  8.48071E+03 -5.40406E+03  3.06829E+03  2.31199E+03  8.08557E+03
 -8.28200E+03  1.02927E+04 -9.12066E+03  1.17959E+04 -1.14587E+04  1.79163E+03 -1.24832E+04 -9.47077E+02
 -8.97187E+03 -1.15815E+04  1.40788E+03 -1.31354E+04  7.58105E+03 -9.91771E+03  9.92673E+03 -2.59151E+03
  3.95519E+03  2.97714E+03  1.02261E+03  1.00670E+04 -3.52042E+03  2.18991E+03 -4.97471E+03 -6.08448E+03
  4.29013E+03 -6.27566E+03 -1.46723E+03 -3.06391E+03  6.60880E+03 -3.64851E+03  7.52637E+03  9.51653E+03
 -4.95007E+02 -3.16983E+03  8.72921E+02  2.88657E+03  1.61526E+03  5.04756E+02  1.09903E+03 -1.44145E+03
  3.57665E+03 -3.09857E+03  6.14836E+03 -3.25785E+02  4.76607E+03  5.69662E+03 -5.84897E+02  6.13478E+03
 -4.07406E+03  4.27245E+03 -9.21269E+03 -2.97244E+03 -1.34471E+03 -8.74679E+03 -6.46559E+03 -6.10202E+03
 -1.09061E+03 -3.58087E+03  5.66153E+03 -5.01529E+03  4.09104E+02  2.93276E+03 -8.49992E+03  6.00391E+03
 -3.86776E+03  3.69239E+03 -4.39643E+03 -2.83904E+03 -3.07177E+03 -5.86795E+03 -5.44162E+03 -7.19296E+03
 -2.31311E+03 -6.54629E+03  5.52061E+03 -2.02973E+02  1.92102E+03 -7.86275E+02 -7.05634E+03  1.46621E+03
 -2.17919E+03 -1.58812E+03 -4.84849E+03 -5.44636E+03 -1.00856E+03 -3.35320E+03  7.33669E+03 -5.06926E+03
  3.31194E+03  1.03696E+03  6.73982E+03  1.89641E+03 -3.02306E+02  6.45015E+03 -3.17182E+03  1.52316E+03
 -4.27673E+03  4.04943E+03 -9.95507E+03 -2.12305E+03 -5.38936E+03 -9.30143E+03  1.54310E+03  2.78838E+03
  6.13374E+03  2.75220E+03 -9.39858E+02  4.64938E+03 -4.76947E+03 -1.43939E+02  3.99307E+02  2.58834E+03
  1.75363E+03 -1.18340E+03 -1.66753E+03 -4.55813E+03 -3.05004E+03  5.25394E+02 -4.58408E+03  1.83098E+03
 -4.06213E+03  4.53394E+03 -6.41854E+03  4.22120E+03 -6.74048E+03  3.66305E+03 -3.24396E+03 -2.98927E+03
 -3.79846E+03 -6.26927E+03  3.56190E+03 -7.76471E+03  3.36400E+03 -5.43268E+03  1.18744E+04 -9.57276E+03
  9.63577E+03  7.64013E+02  2.42987E+03  3.90856E+03 -4.27903E+03  5.55198E+03 -1.53609E+03  5.47414E+03
 -1.00385E+04 -3.13755E+03 -2.77011E+02 -6.71207E+02  7.28830E+02  3.58765E+03 -6.44684E+02 -9.76207E+02
 -3.68127E+03  5.69540E+02 -5.24380E+03  1.04585E+03  5.48838E+00 -9.64794E+03  8.54265E+02 -4.88569E+03
  6.25059E+03  2.11951E+03  5.06422E+03  1.67052E+03  8.10181E+02  7.79762E+03 -3.32645E+03  1.11359E+04
  9.26752E+02 -3.52021E+01 -1.07573E+04  5.57436E+03 -1.03306E+04 -1.20235E+03 -2.36872E+03  9.82429E+02
 -4.30119E+03 -3.82731E+03  1.37209E+03 -1.23477E+04  4.98029E+03 -1.23882E+03  1.79544E+03  2.67945E+03
 -4.65705E+03  4.85393E+03  1.17658E+03 -3.14035E+02 -9.86704E+02  2.98010E+03  1.59352E+02 -2.94180E+02
  8.22063E+01 -1.46743E+03  1.27345E+03  4.16252E+03 -1.72325E+03  3.41515E+03  4.00533E+03  4.31757E+03
 -4.19164E+03  4.22704E+03 -9.80536E+03  2.55485E+03 -2.00852E+03 -3.63939E+03  2.50168E+02 -1.40808E+03
 -2.06644E+03 -3.55255E+03  5.61564E+03 -1.62921E+03 -1.61980E+03 -1.68976E+03  7.25220E+03  6.49495E+03
  3.06655E+03  8.09574E+03 -4.66614E+03  4.18324E+02 -1.63868E+03  6.47609E+03 -1.17691E+03  1.21190E+02
 -2.65959E+03 -4.80144E+03  2.25847E+03 -1.06080E+03 -1.70410E+03 -1.75455E+03 -7.97285E+03 -2.16745E+03
 -4.12103E+02 -2.40810E+03  1.17631E+03 -3.48540E+03  1.36371E+03 -4.84770E+02  4.14544E+03 -1.35381E+03
  1.33825E+02  3.73885E+03 -4.05909E+03 -2.94453E+03  1.72352E+03  1.07313E+03 -1.59038E+02 -1.55227E+03
