 $NMID ID='MM_0lb_SNR50_13hz_g60_28.RAW', FMTDAT='(8E13.5)'
 TRAMP=1., VOLUME=1. $END
  3.09963E+05 -4.39120E+03  3.32851E+05  2.49550E+05  8.85372E+04  3.35393E+05 -1.30124E+05  2.53402E+05
 -1.86133E+05  8.74245E+04 -1.11880E+05 -2.99190E+04  2.36365E+03 -5.13375E+04  5.29471E+04 -9.16465E+02
  2.98922E+04  5.66868E+04 -1.66237E+04  6.68888E+04 -6.25101E+04  6.58780E+04 -8.27272E+04  3.11762E+04
 -7.92882E+04 -7.58589E+03 -4.99306E+04 -5.90895E+04 -1.34938E+04 -6.73766E+04  3.07982E+04 -5.13983E+04
  4.28496E+04  2.85407E+03  1.52869E+04  4.61339E+04 -3.21728E+04  4.73041E+04 -6.95228E+04 -2.05551E+03
 -5.82670E+04 -5.62950E+04 -7.02489E+03 -8.36485E+04  4.01742E+04 -5.46207E+04  4.64901E+04 -1.21487E+04
  3.95430E+04  1.08220E+04  3.17232E+04  2.21220E+04  1.42590E+04  2.62987E+04 -4.10716E+03  2.77903E+04
 -2.33758E+04  1.70744E+04 -2.00021E+04 -7.57987E+03  6.75275E+03 -8.47623E+03  2.86527E+04  1.43815E+04
  1.23642E+04  3.35753E+04 -3.61454E+04  2.99174E+04 -6.17677E+04  3.49323E+03 -5.06741E+04 -4.01814E+04
 -1.07120E+04 -6.66386E+04  4.05346E+04 -4.65051E+04  5.69427E+04 -5.84275E+03  3.55775E+04  3.36531E+04
 -7.31325E+03  3.50630E+04 -3.24405E+04  2.34804E+04 -2.73679E+04 -6.06296E+03 -2.20129E+04 -1.60946E+04
 -6.44016E+03 -1.55898E+04 -3.45293E+02 -1.94946E+04  5.95063E+03 -2.73668E+04  1.99602E+04 -1.16989E+04
  9.59662E+03  6.26094E+03 -1.09234E+04  1.16685E+04 -2.13871E+04 -7.90889E+03 -1.25370E+04 -3.66840E+04
  2.08066E+04 -4.42787E+04  5.31067E+04 -1.86992E+04  4.67437E+04  2.06781E+04  1.90046E+04  4.72925E+04
 -1.56213E+04  3.43694E+04 -3.10380E+04 -3.26617E+03 -1.28819E+04 -2.10762E+04  2.12188E+04 -4.15903E+04
  4.24969E+04 -5.75030E+03  3.28357E+04  1.93547E+04  2.20596E+04  4.26440E+04 -6.93772E+03  5.28824E+04
 -3.76796E+04  3.22234E+04 -4.33433E+04  1.21564E+04 -4.89514E+04 -1.42967E+04 -2.33635E+04 -3.90433E+04
  7.21767E+03 -4.36353E+04  2.63276E+04 -1.67158E+04  3.04539E+04  7.29170E+03  7.02139E+03  1.60040E+04
 -1.47812E+04  1.04100E+04 -6.37541E+03 -3.96832E+03  1.49644E+03 -1.23788E+04  1.82817E+04  6.75820E+03
  1.17057E+04  2.10924E+04 -8.09162E+03  1.89550E+04 -1.96234E+04  1.44307E+04 -2.58532E+04 -6.55483E+03
 -2.80262E+04 -1.52650E+04 -6.94214E+03 -2.03440E+04  3.82526E+03 -2.21309E+04  1.20176E+04 -1.93376E+04
  2.96076E+04 -1.52361E+04  2.87731E+04  7.25447E+03  2.44452E+04  2.37422E+04  3.91956E+03  3.42037E+04
 -2.20828E+04  3.01643E+04 -2.76665E+04  1.40144E+04 -2.19962E+04 -1.00767E+04 -1.85489E+03 -1.55670E+04
 -5.50932E+02  1.12400E+03 -1.08242E+04  1.13580E+04 -1.32179E+04  6.51838E+03 -1.84932E+04 -5.59670E+03
 -6.35863E+03 -2.01154E+04  5.14112E+03 -2.29831E+04  2.18760E+04 -2.07426E+04  1.75191E+04 -4.35580E+03
  1.18224E+04  9.80733E+03  5.82762E+01  2.19429E+04 -1.71811E+04  8.27490E+03 -1.86743E+04 -4.35779E+03
 -1.35879E+04 -1.89915E+04 -1.00452E+03 -2.79103E+04  1.61148E+04 -2.09570E+04  2.02686E+04 -9.99540E+03
  1.46972E+04  4.77729E+03  1.02508E+04  2.31017E+03  5.28889E+03  8.78000E+02  1.39615E+04 -7.68614E+03
  2.54833E+04  7.70261E+02  2.81825E+04  2.01452E+04  1.43204E+04  3.43053E+04  2.32449E+02  3.61392E+04
 -2.12622E+04  3.90043E+04 -3.39875E+04  1.63357E+04 -3.38555E+04 -3.98283E+03 -2.75332E+04 -2.08361E+04
 -1.44246E+04 -3.46637E+04  1.06393E+04 -2.96930E+04  3.21621E+04 -1.55708E+04  2.16785E+04  6.55849E+03
  5.80926E+03  1.21727E+04 -8.24315E+03  1.16553E+04 -2.28360E+04 -3.20630E+02 -1.06623E+04 -1.34561E+04
  2.41319E+03 -1.49355E+04  1.22778E+04 -1.51872E+04  1.23150E+04  5.03080E+03  2.29920E+03  7.19997E+03
 -8.27713E+03  7.07433E+03 -5.85825E+03 -7.61869E+03  1.81686E+03 -1.66508E+04  1.69221E+04 -2.45430E+04
  2.22420E+04 -9.22088E+03  2.45959E+04  2.21241E+03  1.84383E+04  1.41019E+04  5.89920E+03  2.55833E+04
 -6.79170E+03  2.47148E+04 -1.87275E+04  1.78574E+04 -2.26872E+04  4.17254E+03 -1.66263E+04  1.66370E+03
 -6.82030E+03 -8.46197E+02  2.66496E+03  2.33260E+03 -1.72403E+03 -1.13623E+03 -7.63564E+03  7.38179E+03
 -9.66797E+03  3.91265E+03 -1.56551E+04 -1.20439E+04 -8.41824E+03 -1.51820E+04  6.10496E+03 -9.10401E+03
  1.35019E+04 -9.10281E+02  1.39154E+04  3.20894E+03  4.86211E+02  4.82967E+03 -6.45859E+03  2.81976E+03
 -6.58364E+03 -7.99529E+03 -3.07849E+03 -1.14817E+04  8.08433E+03 -1.78070E+04  1.16188E+04 -8.44098E+03
  1.69582E+04 -8.30613E+01  1.33372E+04  1.47198E+04  4.06694E+02  1.21523E+04 -6.93120E+03  1.08307E+04
 -8.26483E+03  7.11720E+03 -2.50632E+03  1.11935E+02 -9.25728E+02 -7.38358E+03  7.96750E+03 -4.70397E+03
  1.06055E+04  1.92243E+03  5.96448E+03  9.26367E+03 -4.44161E+03  7.91891E+03 -2.14845E+04  1.08711E+03
 -4.56102E+03 -3.73627E+03  4.86750E+03 -9.45314E+03  1.04450E+04 -9.24996E+03  2.35557E+03 -8.75805E+02
  1.37712E+03  9.51908E+03 -8.26642E+03  5.47452E+03 -1.08493E+04  2.95188E+03 -1.46423E+04 -4.03063E+03
 -3.92254E+03 -2.00094E+04 -5.10781E+03 -1.03659E+04  1.61310E+04 -6.50673E+03  1.43922E+04  3.05921E+03
  7.89836E+03  1.29269E+04  1.94107E+03  1.07036E+04 -8.19812E+03  6.94065E+03 -4.18895E+03 -3.55426E+03
 -1.03286E+04 -7.36121E+03 -4.28560E+03 -1.26238E+04  7.55929E+03 -9.71862E+03  7.54775E+03 -1.64716E+03
  2.23771E+03 -1.17956E+03  3.69716E+03  2.02713E+03 -9.69365E+02 -2.27581E+03  1.67658E+03 -4.63859E+03
  1.04458E+04 -1.35641E+03  8.32017E+03  1.65699E+03  1.27161E+04  7.46202E+03  7.73076E+03  1.37103E+04
 -6.47826E+03  1.76792E+04 -1.27460E+04  8.73260E+03 -1.96447E+04  3.37366E+03 -1.27846E+04 -7.47228E+03
 -8.62872E+03 -7.63312E+03 -8.17940E+02 -1.45983E+04  1.76932E+03 -2.08573E+03  4.90008E+03 -4.98390E+03
  3.36106E+03 -6.34934E+03  2.93726E+03 -8.15876E+03  1.79677E+03 -6.28048E+03  7.06942E+03 -4.46223E+03
  4.56244E+03 -3.39975E+03  1.90750E+03  4.11189E+03 -2.64314E+03  5.16054E+03 -1.25722E+04  6.35901E+03
 -5.77966E+03  2.17323E+03 -5.49399E+03 -9.75509E+03 -1.53023E+03 -1.45833E+04  5.02740E+03 -1.06891E+04
  1.46403E+04 -1.16975E+03  1.44748E+04  1.14592E+02  8.74802E+03  7.96166E+03  9.82852E+02  1.00658E+04
 -3.72012E+03  8.53039E+03 -3.78755E+03  2.84915E+03 -1.15088E+03 -7.39944E+01  3.93102E+03 -1.26758E+03
  2.19353E+03 -3.83031E+03  2.68975E+03  1.04271E+04 -7.93140E+03 -4.21347E+03 -6.75609E+03  7.79324E+02
 -1.06361E+04 -7.49053E+03  1.15372E+03 -9.06528E+03  5.63895E+03 -1.46726E+04  1.02687E+04  5.49323E+03
  9.19644E+03  8.14306E+03  3.13450E+03  1.02133E+04 -1.76649E+03  1.09145E+04 -5.00818E+03  9.99161E+03
 -1.29924E+04  8.69270E+02 -4.52192E+03 -5.38888E+03 -3.07898E+03 -9.60309E+03  4.60870E+03 -7.31385E+03
  9.80722E+03  7.63645E+02  7.88885E+03  1.89232E+03  3.36264E+03  5.33073E+03 -1.51333E+02 -2.81391E+03
 -3.32655E+01 -3.29609E+03  3.96649E+02 -2.13908E+03  4.55508E+03  4.86685E+03  2.50664E+03 -6.62346E+01
 -3.94616E+03  6.75839E+03 -6.21378E+03  6.56797E+03 -9.01725E+03  2.83159E+02 -1.37946E+04 -3.08407E+03
 -6.37619E+03 -7.67117E+03  4.07874E+03 -9.44872E+03  6.76450E+03 -6.00317E+03  8.75439E+03 -1.10901E+03
  6.87144E+03  2.11396E+03 -7.17650E+01  5.25144E+03 -1.10878E+04  1.29737E+03 -3.36574E+03  2.38328E+02
 -4.35671E+03 -3.02964E+03  3.42081E+03 -3.16386E+03  5.96494E+02 -8.45397E+03  7.07716E+03  1.89659E+03
  1.30963E+03  7.15026E+03  5.55428E+03  5.01988E+03 -7.81984E+02  1.50899E+03  3.11461E+03 -6.05173E+03
 -7.39776E+02 -5.95653E+03  4.66449E+03 -8.76423E+02  9.92530E+02  8.56421E+03  2.70181E+02  4.98957E+03
 -8.43737E+03  6.23164E+03 -5.32889E+03  2.44079E+03 -4.97168E+03 -2.80212E+03 -1.17862E+03 -4.60345E+02
 -3.73010E+03 -2.62836E+03  6.14593E+02  3.77721E+03  7.33753E+03  5.53358E+03 -4.25676E+03  6.32141E+03
 -5.72787E+03  5.16981E+03  2.80493E+03 -1.01992E+03  9.46437E+02 -6.17424E+02  3.29359E+03 -4.79208E+03
  4.32495E+03 -3.67061E+02  1.48532E+03 -4.60792E+03  7.25497E+03  3.49206E+03 -1.91691E+03  5.04546E+03
  4.25598E+03  9.52057E+02  1.75907E+03 -3.79634E+03  2.66469E+03 -3.17239E+03  5.40213E+03 -2.70567E+03
  6.99900E+03  3.54955E+03  1.67318E+03  3.60570E+03  2.95441E+03  3.46037E+03 -1.20674E+02  8.17635E+03
 -8.51956E+03 -1.24706E+03 -7.49437E+03  6.77340E+02 -3.51128E+03 -2.42565E+03  2.53009E+03 -3.66889E+03
  6.05643E+03 -3.41539E+03  2.76639E+03  5.68492E+03 -3.05113E+03 -4.08677E+03 -5.10075E+03  1.73123E+03
 -2.74301E+03  1.33322E+03  9.16367E+02  1.84589E+03  2.67524E+03  9.56146E+02 -2.82047E+03  1.83833E+03
 -2.52902E+03  1.57458E+03 -6.58915E+03  1.22275E+03 -4.91311E+03 -5.31144E+03 -8.58955E+03 -5.50812E+03
 -3.59809E+03 -7.85024E+03  2.32231E+03 -9.84631E+03  1.00365E+04 -4.37353E+03  8.35345E+03 -2.04881E+03
  1.52679E+03  5.20996E+03  4.88286E+03  4.30624E+03 -2.78885E+03  5.42288E+03  4.52696E+03  6.40122E+03
 -6.49666E+03  3.97650E+03 -1.35754E+03 -1.47012E+03  2.24561E+03  3.27319E+02 -8.10097E+02  2.22794E+03
 -2.36352E+03  1.01963E+03  6.01483E+02 -4.18809E+03  1.68409E+03 -9.16725E+03  9.47044E+02 -2.29614E+03
  2.13313E+03  1.92190E+03  3.83976E+03 -5.68151E+02  6.74998E+03  3.02255E+03 -1.95736E+03  2.19599E+03
 -3.56049E+03  5.59219E+03 -2.96955E+03  4.38234E+02 -3.13017E+03  2.78335E+03 -3.66778E+03 -9.67539E+02
 -2.67196E+03 -3.93421E+03  1.30253E+03 -2.95401E+03  1.62091E+02 -6.05257E+03 -1.73587E+01  5.06568E+03
 -7.48564E+02  3.79750E+03 -1.34878E+03  6.24175E+03  6.75135E+01  2.53557E+03 -2.10065E+03 -1.69790E+02
  2.87116E+03 -1.62316E+03  1.57796E+03 -7.29048E+02 -3.74743E+03  1.86397E+03  2.01236E+03  2.77287E+03
 -2.15958E+03  2.22742E+03  6.72252E+02 -1.50863E+03 -1.29471E+03 -5.54029E+03 -3.49063E+03 -7.54042E+03
  3.25613E+03  6.73411E+03 -1.56627E+03 -1.34073E+03  6.37889E+03  3.39711E+03  4.17764E+03  1.62828E+03
  4.37226E+03 -2.40741E+03 -2.45745E+03  5.02007E+03  6.83220E+02 -4.86350E+02 -6.84072E+03  5.02459E+03
 -4.52556E+03  1.57088E+03  5.07277E+03 -1.07135E+03  2.51267E+02  2.08051E+03 -7.28653E+02  7.15029E+02
 -5.82313E+03  1.09994E+03 -2.35132E+03  3.05655E+02  2.06487E+03 -7.03303E+03  5.08482E+03 -2.87308E+03
  3.90256E+03 -2.58521E+03 -6.78691E+02  3.45879E+03  1.77249E+03  4.59344E+03 -2.45678E+03  3.72060E+03
