 $NMID ID='MM_0lb_SNR50_16hz_g45_78.RAW', FMTDAT='(8E13.5)'
 TRAMP=1., VOLUME=1. $END
  3.06635E+05  1.10409E+03  3.39305E+05  2.55760E+05  8.43386E+04  3.37218E+05 -1.30968E+05  2.48939E+05
 -1.91176E+05  7.89883E+04 -1.08376E+05 -2.88083E+04  4.44402E+03 -5.19351E+04  5.75212E+04 -1.53857E+03
  3.49072E+04  5.44120E+04 -1.58540E+04  7.30055E+04 -6.28442E+04  6.41748E+04 -8.80212E+04  3.19588E+04
 -7.76106E+04 -1.34900E+04 -5.49445E+04 -5.08499E+04 -1.51560E+04 -6.60063E+04  3.07440E+04 -4.54218E+04
  4.63160E+04  2.08743E+03  1.25418E+04  4.37458E+04 -3.02560E+04  4.60258E+04 -6.72293E+04 -6.73706E+02
 -5.18116E+04 -5.23124E+04 -6.44804E+03 -7.80466E+04  3.04598E+04 -5.47775E+04  5.15635E+04 -1.81778E+04
  4.22939E+04  1.00520E+04  2.86910E+04  2.51226E+04  1.13086E+04  2.92091E+04  5.94420E+02  2.59847E+04
 -2.60006E+04  1.69645E+04 -1.52916E+04 -5.91674E+02  8.31908E+03 -4.72981E+03  2.46663E+04  1.35233E+04
  8.07376E+03  3.81560E+04 -3.32890E+04  3.56636E+04 -6.15072E+04  8.60535E+02 -5.50509E+04 -4.26082E+04
 -1.22711E+04 -6.37397E+04  4.01465E+04 -4.49441E+04  5.54691E+04 -2.81194E+03  3.80049E+04  2.74852E+04
 -4.44027E+03  3.56194E+04 -3.54379E+04  1.72832E+04 -3.15844E+04 -6.27973E+03 -1.44743E+04 -8.39206E+03
 -7.12864E+03 -1.13830E+04  4.43896E+03 -1.91295E+04  3.69878E+03 -2.43995E+04  1.66280E+04 -1.19132E+04
  1.23289E+04  5.38363E+03 -1.00109E+04  1.14945E+04 -2.26432E+04 -6.40029E+03 -1.41613E+04 -3.08923E+04
  1.77280E+04 -3.99408E+04  4.70242E+04 -1.85891E+04  4.26290E+04  1.65227E+04  1.75224E+04  4.10496E+04
 -1.42760E+04  3.31505E+04 -2.47314E+04  1.34651E+03 -8.63781E+03 -3.26955E+04  1.95631E+04 -3.45532E+04
  4.37973E+04 -8.78449E+03  3.31769E+04  2.00585E+04  1.50008E+04  4.04941E+04 -6.02721E+03  4.55175E+04
 -2.91238E+04  3.16450E+04 -4.19399E+04  8.56039E+03 -3.87888E+04 -1.57247E+04 -2.01651E+04 -3.66218E+04
  9.54049E+03 -3.21437E+04  2.89845E+04 -1.14516E+04  2.74122E+04  1.11018E+04  3.78190E+03  2.03851E+04
 -1.58802E+04  3.72815E+03 -8.68008E+03 -8.13802E+03  4.60494E+03 -8.56550E+03  1.98951E+04  1.15029E+04
  1.44389E+04  2.01839E+04 -7.49778E+03  2.41667E+04 -2.15112E+04  1.21578E+04 -2.83951E+04 -4.10216E+03
 -1.78985E+04 -1.77190E+04 -1.51561E+03 -1.97944E+04  4.07797E+03 -1.75368E+04  1.16533E+04 -1.46764E+04
  2.16421E+04 -9.64097E+03  2.85847E+04 -8.01318E+02  2.54416E+04  1.87621E+04  4.04140E+03  3.53248E+04
 -1.83773E+04  3.01773E+04 -2.50165E+04  8.62199E+03 -1.85317E+04 -1.26197E+04 -1.05874E+03 -1.19257E+04
 -8.69083E+02 -3.21931E+03 -4.49306E+03  8.32610E+03 -1.06178E+04  2.94167E+03 -1.74526E+04 -9.52437E+03
 -6.94456E+03 -1.04734E+04  7.04732E+03 -2.50276E+04  1.15194E+04 -1.41336E+04  1.62811E+04  1.23535E+03
  1.05221E+04  8.55929E+03 -2.36538E+03  1.51077E+04 -9.05922E+03  1.04045E+04 -1.75897E+04 -2.38583E+03
 -1.24024E+04 -9.19006E+03 -6.69479E+02 -2.25767E+04  1.00741E+04 -1.61526E+04  1.80319E+04 -1.03861E+04
  1.90868E+04 -1.41115E+03  1.15988E+04  6.48609E+03  2.61559E+03 -4.31496E+02  6.88392E+03 -1.16046E+02
  1.59719E+04  3.02362E+03  1.41447E+04  1.16422E+04  6.65115E+03  2.41553E+04 -4.66397E+03  3.20963E+04
 -2.13902E+04  2.26988E+04 -3.08693E+04  1.81296E+04 -2.99808E+04 -2.80613E+03 -1.84203E+04 -1.26930E+04
 -7.51903E+03 -2.47042E+04  9.24128E+03 -2.59730E+04  1.77181E+04 -1.21202E+04  1.87396E+04  8.63313E+03
  9.94350E+03  1.35616E+04 -8.66093E+03  9.33904E+03 -1.44766E+04 -9.45737E+02 -9.87290E+03 -1.28235E+04
 -3.12045E+03 -9.99047E+03  5.86273E+03 -1.41466E+04  6.35671E+03 -4.88963E+03  9.74181E+02  1.23415E+04
 -8.80108E+03  5.17762E+02 -5.50497E+03 -4.67648E+03  1.15343E+03 -1.72902E+04  7.11784E+03 -9.36243E+03
  1.68282E+04 -7.44981E+03  1.83275E+04  9.99561E+02  1.61956E+04  9.61675E+03  5.10192E+03  1.80462E+04
 -1.82651E+03  1.88444E+04 -1.27964E+04  1.38883E+04 -2.08596E+04 -1.25276E+02 -9.68755E+03 -2.94123E+03
 -6.71813E+03 -6.03109E+03 -4.14774E+03  1.55845E+03 -2.42524E+03  3.08071E+03 -4.07281E+03  4.99860E+03
 -1.26159E+04  1.94506E+02 -7.44338E+03 -5.33189E+03 -4.22557E+03 -1.30448E+04  2.97948E+03 -1.13433E+04
  8.45155E+03 -6.25355E+03  6.12242E+03  3.35910E+03  1.43621E+03 -1.26489E+03 -4.03677E+03  1.37241E+03
 -2.62861E+03 -6.81374E+03  1.00033E+03 -1.04463E+04  6.55866E+03 -1.10477E+04  1.38204E+04 -3.74943E+03
  1.20235E+04 -2.27369E+02  9.65093E+03  9.46692E+03  2.74607E+03  1.13883E+04 -5.84778E+03  3.96135E+03
 -9.08282E+03  3.52953E+03 -4.33901E+03 -1.79582E+03 -1.66747E+03 -2.60518E+03  3.11633E+03 -6.65583E+02
  1.85494E+03  4.75730E+03  2.62691E+03  8.14269E+03 -5.13544E+03  7.32082E+03 -4.46417E+03 -4.14378E+03
 -5.54100E+03 -4.11084E+03 -5.67283E+02 -1.00798E+04  7.01831E+03 -6.37883E+03  3.97006E+03  4.72186E+03
 -1.01607E+03  4.69788E+02 -4.15180E+03  7.38876E+03 -7.81862E+03  3.09699E+03 -3.11074E+03 -2.80963E+03
 -3.73994E+03 -8.67761E+03  3.87395E+03 -1.12937E+04  8.32580E+03 -1.04205E+04  7.17964E+03  2.16901E+03
  5.98063E+03  3.44795E+03 -3.75025E+03  7.17833E+03 -5.61185E+03  5.66196E+03 -5.00030E+03  8.92621E+02
 -4.71551E+03 -4.94485E+03 -1.73619E+03 -7.00855E+03  4.85421E+03 -6.55673E+03 -2.31849E+03 -5.30072E+03
 -1.40458E+03 -6.13775E+02 -2.58309E+02  6.39898E+02  8.76951E+02  1.97723E+02  4.49540E+01 -3.32058E+03
  7.81034E+03 -1.86146E+03  6.74807E+03 -2.36484E+03  6.80774E+03  4.28086E+03  2.32551E+03  9.86636E+03
 -2.45911E+03  5.73301E+03 -8.09209E+03  8.02768E+03 -1.27824E+04 -2.95741E+03 -1.06427E+04 -2.42117E+03
 -2.99494E+03 -7.07603E+03  2.98146E+03 -5.20090E+03  3.31640E+03 -3.00518E+03  2.41987E+03 -4.27570E+03
  8.80739E+02 -4.61061E+03  2.81169E+03  1.95002E+03  3.80996E+03 -2.63733E+03  7.56064E+03  3.12399E+03
  1.11334E+04  7.11296E+02 -3.84335E+03  2.53129E+03 -1.67702E+02  5.68305E+01 -8.39045E+03  1.08075E+04
 -1.18689E+04  1.06916E+03 -1.93105E+03 -3.68815E+03 -2.39259E+01 -9.49804E+03  7.39637E+03 -7.91075E+03
  7.97016E+03  3.91795E+03  7.40298E+03  3.00106E+03  5.96327E+03  5.23082E+03  6.55181E+02  8.39006E+03
  1.39345E+03  8.09831E+03 -6.68041E+03  6.69361E+01 -7.90939E+03 -3.40296E+03 -8.02823E+02  2.17344E+03
  5.26056E+02 -2.67304E+03 -2.60524E+03  3.55324E+02 -6.88594E+03  3.20544E+03 -7.12153E+03 -6.22118E+03
 -1.82573E+03 -4.81213E+03  9.63196E+02 -4.36875E+03  3.99962E+03  1.26667E+03  6.96934E+03  4.73587E+03
  7.64981E+03  3.65459E+03  4.28692E+03  2.47092E+03 -3.27250E+03  7.01527E+03 -1.06163E+03  3.81978E+03
 -2.58299E+03  2.48688E+03 -5.00784E+03 -5.40476E+03 -5.98192E+03 -7.74306E+02  3.47199E+03 -6.06495E+03
 -2.09644E+03 -6.31239E+02  4.13833E+03  1.98350E+03  2.92582E+03 -1.56063E+03  5.21128E+03  2.79267E+03
  5.02517E+03  6.12846E+02  7.95264E+02  2.37968E+03  7.08164E+02  5.34775E+03 -4.00628E+02  1.64785E+03
 -3.21009E+02  6.79071E+03 -3.25547E+03  1.29787E+04 -1.80054E+03  4.05291E+03 -2.93405E+03 -4.19340E+03
  8.34748E+02 -3.95335E+03  1.82865E+02 -1.18407E+04  4.05516E+03 -3.84124E+03  5.59107E+03 -2.59090E+03
  2.50875E+03  6.79375E+03 -3.24657E+03  1.37160E+03 -2.05641E+03  2.62581E+03  3.46150E+03 -2.62290E+03
 -4.92423E+02 -3.44454E+03 -9.95993E+02 -2.43362E+03 -1.82317E+03 -1.16113E+03  3.19914E+03  1.25410E+03
  4.28345E+03 -2.38527E+02  2.51469E+03 -1.63171E+03  6.91633E+02 -3.03448E+03  5.02970E+03  3.17950E+03
 -3.35202E+03  1.75040E+03 -9.12757E+02  9.13021E+02  6.34893E+02  3.72991E+03 -1.54903E+03  6.51505E+03
 -3.09430E+03  1.50549E+03 -2.64591E+03  4.77701E+02 -6.60859E+03 -1.97245E+03 -5.49416E+02  8.83455E+00
 -4.24923E+02 -2.99697E+03 -7.86943E+02 -3.51223E+03  5.55583E+02 -3.50090E+03  8.35239E+02 -2.03854E+03
 -2.71939E+03  1.20119E+03 -4.83776E+03  2.40465E+01 -1.01608E+03 -5.04412E+03 -2.96685E+03 -2.31050E+03
 -4.04930E+03 -8.45732E+01 -2.18783E+02 -3.03760E+03  1.33126E+02  1.63845E+03  7.49082E+02 -6.14047E+02
  3.11603E+03  9.73952E+02 -3.74318E+03 -2.53605E+03  2.27848E+03  1.02901E+03  2.54340E+03 -1.04765E+03
  3.02780E+03  1.60271E+03  2.94314E+03 -3.93572E+03  1.91514E+03  5.41666E+03 -2.74527E+03  2.87320E+03
 -4.00881E+03 -1.67497E+03 -2.48891E+03 -3.69721E+03 -1.83266E+03 -4.30893E+03 -4.30004E+01 -3.49649E+03
  1.11201E+02 -2.88684E+03 -2.41079E+03 -3.25820E+03  4.75678E+03  2.28688E+03  1.08569E+03 -7.00362E+01
 -1.16176E+03  4.23265E+03  7.31643E+03  3.88323E+03 -7.44629E+02 -1.46019E+03 -3.48235E+03  4.16581E+02
  3.71214E+02 -4.18917E+03 -3.65950E+03  3.38834E+02  6.16070E+01  1.56997E+03 -1.43882E+03  1.64574E+02
 -4.93457E+02 -6.04545E+03 -1.93516E+03 -6.82588E+03  7.60640E+03  1.20556E+03  4.39313E+03 -2.85459E+03
  5.55437E+03  1.88717E+02  5.36360E+02  3.31572E+03 -3.29472E+03  2.60220E+03 -2.16678E+03  2.52085E+03
 -3.99333E+03  1.64632E+03  5.43665E+02  8.51507E+02  1.80267E+03  2.62087E+03  1.44331E+03 -1.84336E+03
  4.25917E+03 -3.46389E+03 -3.24082E+03 -1.80597E+03  1.80359E+03 -1.13144E+02  7.37461E+02 -3.56363E+03
  1.54272E+03  1.51566E+03 -4.19858E+03 -1.95943E+03  1.48600E+03  1.17966E+03  3.91367E+03  3.72011E+03
 -1.64200E+03  1.11793E+02 -4.35003E+03  4.77122E+03 -8.84031E+03 -2.99612E+03 -2.91480E+03 -3.94281E+03
  3.85656E+03 -7.44000E+02  5.47317E+03 -1.27647E+03  4.45214E+03  1.81928E+03  3.06898E+02  2.90443E+03
 -2.75910E+03  7.29555E+01 -2.26851E+03  1.18769E+03 -9.99879E+02 -3.26793E+03  1.98392E+03 -1.94340E+03
  2.08159E+03 -1.64142E+03  1.25787E+03 -3.11344E+03  1.09435E+03 -6.29974E+02  3.59108E+02  3.64691E+02
  2.18229E+01  1.82442E+03  1.36386E+03  4.05343E+02  1.25947E+03 -1.76519E+03 -2.87383E+03 -2.71662E+03
  1.24009E+03 -9.35689E+03  5.49187E+03 -4.34787E+03  1.14770E+03  3.33830E+03 -1.86965E+03  6.08218E+03
  9.17676E+02  5.35877E+03 -3.61143E+03  2.15923E+01 -5.85797E+03 -5.60059E+03  5.21214E+03 -2.66933E+03
  2.30704E+03 -2.21398E+03  2.58184E+03 -1.77226E+03 -1.00662E+03  1.46456E+03 -1.76411E+03  6.41560E+02
 -1.85835E+03 -2.42577E+02 -1.08961E+03 -4.29897E+03 -1.19998E+03 -3.32170E+03 -1.64939E+03  2.83190E+03
 -1.30789E+03  1.25119E+03  2.31560E+03  6.75564E+03  1.11708E+03 -1.39639E+03  1.58902E+03 -1.31014E+03
