 $NMID ID='MM_0lb_SNR50_8hz_g40_62.RAW', FMTDAT='(8E13.5)'
 TRAMP=1., VOLUME=1. $END
  3.04204E+05  6.41402E+03  3.41253E+05  2.56981E+05  8.99864E+04  3.35194E+05 -1.34519E+05  2.49633E+05
 -1.93244E+05  8.34650E+04 -1.14742E+05 -3.59833E+04  4.42136E+03 -5.34505E+04  5.36537E+04  1.72831E+03
  3.07911E+04  5.71359E+04 -1.43036E+04  7.59181E+04 -5.86871E+04  6.67179E+04 -8.58602E+04  3.96316E+04
 -8.15761E+04 -9.21716E+03 -5.90959E+04 -4.95331E+04 -1.18383E+04 -7.47345E+04  2.61973E+04 -4.56742E+04
  3.46492E+04  6.42096E+03  2.44667E+04  4.65834E+04 -2.80883E+04  5.21115E+04 -6.48359E+04  2.86200E+02
 -4.86955E+04 -6.16797E+04 -1.52807E+04 -8.31637E+04  3.53350E+04 -5.63212E+04  5.11453E+04 -1.98534E+04
  4.68973E+04  1.16057E+04  2.86372E+04  2.69912E+04  1.13185E+04  3.00909E+04 -4.61082E+03  2.84344E+04
 -2.68234E+04  1.07559E+04 -1.87070E+04 -1.08687E+04  7.83285E+03 -6.02157E+03  2.13044E+04  8.13882E+03
  4.79538E+03  3.78215E+04 -3.56988E+04  3.80628E+04 -6.24928E+04  4.79581E+02 -5.82858E+04 -4.81119E+04
 -1.61095E+04 -6.88219E+04  4.36484E+04 -5.31750E+04  6.25570E+04  1.03651E+03  3.92030E+04  3.30584E+04
 -1.00633E+04  4.63002E+04 -2.61550E+04  2.17337E+04 -2.85250E+04 -7.89562E+03 -2.35059E+04 -4.58024E+03
 -1.43631E+04 -1.36895E+04 -3.99078E+03 -2.16655E+04  9.80680E+03 -2.19238E+04  1.81353E+04 -1.05410E+04
  1.64939E+04  5.22537E+03 -1.06986E+04  1.48770E+04 -1.88566E+04 -1.09209E+04 -1.54392E+04 -3.69744E+04
  2.44738E+04 -4.65324E+04  4.54729E+04 -2.36318E+04  5.05110E+04  2.54798E+04  1.93706E+04  5.17240E+04
 -1.85940E+04  3.63086E+04 -3.49444E+04  7.65800E+03 -1.02301E+04 -2.69027E+04  2.71648E+04 -3.49004E+04
  4.26221E+04 -6.88655E+03  4.11159E+04  2.69123E+04  1.70628E+04  5.32588E+04 -9.97385E+03  5.22314E+04
 -3.98389E+04  4.38134E+04 -4.86073E+04  1.36408E+04 -4.34334E+04 -2.41365E+04 -2.78056E+04 -4.22530E+04
  9.98342E+03 -4.31851E+04  3.68927E+04 -1.46232E+04  3.53954E+04  9.93219E+03  9.33510E+03  1.93119E+04
 -1.45283E+04  8.62177E+03 -9.96654E+03 -2.80942E+03  2.60276E+03 -1.21711E+04  2.14756E+04  6.53500E+03
  1.13397E+04  2.19420E+04 -4.11932E+03  3.06580E+04 -2.07860E+04  1.04378E+04 -2.84338E+04 -4.12618E+03
 -2.59588E+04 -2.34892E+04 -1.19387E+04 -2.29417E+04  4.16588E+03 -2.26071E+04  1.61867E+04 -2.65709E+04
  3.72237E+04 -2.13219E+04  4.23391E+04  4.35318E+03  3.03560E+04  2.46119E+04  1.07724E+04  4.28002E+04
 -1.85632E+04  3.41353E+04 -3.29336E+04  1.14941E+04 -1.85012E+04 -7.13290E+03 -2.51808E+03 -1.15265E+04
 -3.83061E+03 -1.47653E+03 -7.24822E+03  8.68721E+03 -2.46786E+04  6.62609E+03 -1.83603E+04 -4.03480E+03
 -8.29334E+03 -2.33604E+04  7.83762E+02 -3.15643E+04  1.39731E+04 -2.90650E+04  1.61743E+04  4.01085E+03
  1.39976E+04  1.82534E+04 -9.09019E+03  2.30333E+04 -2.11580E+04  7.70353E+03 -2.03450E+04 -6.87837E+03
 -2.26543E+04 -1.90854E+04 -5.58317E+03 -3.77485E+04  1.30764E+04 -2.93069E+04  1.73070E+04 -1.32910E+04
  2.92058E+04  4.17647E+02  2.07974E+04  9.26826E+03  7.92932E+03 -3.09636E+03  1.21457E+04 -2.36296E+03
  2.73676E+04  4.50937E+03  2.79108E+04  2.03791E+04  1.83769E+04  4.01426E+04 -1.87280E+03  4.67774E+04
 -2.86324E+04  3.40965E+04 -4.41862E+04  1.78768E+04 -4.36523E+04 -6.82238E+03 -3.46046E+04 -2.71433E+04
 -1.24441E+04 -3.41671E+04  1.97851E+04 -3.25815E+04  3.14710E+04 -1.33530E+04  2.92012E+04  7.39099E+03
  1.11628E+04  1.91777E+04 -1.24856E+04  1.32578E+04 -1.97294E+04  4.42961E+03 -1.31676E+04 -1.45197E+04
  4.76193E+03 -1.64605E+04  1.40515E+04 -1.01599E+04  1.61483E+04  2.01996E+03  4.37708E+03  1.25792E+04
 -9.72067E+03 -7.42247E+02 -3.53003E+03 -1.09395E+04 -8.73262E+03 -1.72291E+04  3.70092E+03 -1.95452E+04
  2.82008E+04 -6.95391E+03  2.37898E+04  1.20403E+03  1.43926E+04  1.85148E+04  1.01853E+04  2.97632E+04
 -2.22917E+03  2.79068E+04 -2.48909E+04  2.03850E+04 -2.59935E+04  5.54082E+03 -1.25795E+04 -8.07822E+03
 -6.74215E+03 -8.91754E+03  1.81550E+03  4.98918E+02 -2.94507E+03 -4.47245E+02 -2.64548E+03  5.08154E+03
 -1.39970E+04  4.02790E+03 -1.65508E+04 -1.39466E+04 -8.70254E+03 -1.65393E+04  4.10471E+03 -2.24485E+04
  1.00852E+04 -6.84611E+03  7.73999E+03  4.08930E+03 -7.59030E+03  5.61967E+03 -8.06071E+03 -1.68968E+03
 -5.10133E+03 -1.82309E+04 -1.29410E+03 -1.49493E+04  5.74227E+03 -2.39325E+04  1.57953E+04 -1.85330E+04
  2.88916E+04  2.28112E+03  2.14084E+04  1.93106E+04  9.06929E+03  2.17563E+04 -8.09953E+03  1.77521E+04
 -1.05595E+04  2.68219E+03 -5.43212E+03  1.77855E+03  1.43478E+03 -7.25850E+03  1.02767E+04 -2.52853E+03
 -1.84829E+03  3.05870E+03  2.94901E+03  1.86212E+04 -5.66378E+03  1.15770E+04 -1.76315E+04  2.36749E+01
 -1.80740E+04 -8.78907E+03 -1.90766E+03 -1.18019E+04  1.04162E+04 -3.20065E+03  1.05712E+04  3.96982E+03
  5.18908E+03  5.97659E+03 -4.11572E+03  9.12810E+03 -1.15254E+04  1.11607E+04 -2.00336E+04 -2.88139E+03
 -4.42660E+03 -2.40744E+04  1.36252E+03 -1.86921E+04  1.49956E+04 -1.20221E+04  1.60210E+04  2.52641E+03
  1.00438E+04  1.36888E+04 -1.81660E+03  1.81448E+04 -1.64480E+04  4.71287E+03 -1.10013E+04  9.57597E+03
 -1.22601E+04 -1.30500E+04 -4.19596E+03 -1.39767E+04  2.87845E+03 -5.79772E+03  8.73454E+03 -6.05094E+03
 -2.40387E+03  7.68778E+02  1.45065E+02 -2.05767E+03  1.77607E+03 -4.01936E+02  4.55936E+03 -5.72684E+03
  1.68207E+04 -5.83623E+03  1.84790E+04  3.91499E+03  1.28912E+04  9.02628E+03  5.95645E+03  1.71736E+04
 -4.08607E+03  2.72968E+04 -1.72890E+04  1.98813E+04 -2.13463E+04  1.22883E+04 -2.08487E+04 -8.18299E+03
 -1.05250E+04 -1.04474E+04  1.39105E+03 -1.02311E+04  1.06119E+03 -1.22418E+04  5.31461E+03 -4.03845E+03
  7.39312E+03  8.70082E+02  4.80900E+03 -8.04207E+02  2.96899E+03 -2.84898E+03  8.95721E+03 -3.49396E+03
  1.25492E+04  5.53945E+03  7.48805E+03  1.20873E+04 -1.02711E+03  1.29722E+04 -6.78240E+03  4.06036E+03
 -1.94246E+04  3.66101E+03 -7.84738E+03 -1.39099E+04 -4.33300E+03 -1.54686E+04  1.20395E+04 -2.23451E+04
  1.38117E+04 -7.97588E+03  2.29365E+04  1.80919E+03  1.59262E+04  1.37442E+04  3.67255E+03  1.73158E+04
 -1.02038E+04  1.60094E+04 -1.21816E+04 -4.44143E+02 -5.59748E+03  5.34716E+03 -6.13103E+03 -6.27483E+03
  2.32422E+03  3.18514E+03 -6.21386E+03 -1.53102E+03 -3.47062E+03 -5.82850E+01 -1.49459E+04 -1.23220E+03
 -6.57016E+03 -7.04507E+03  6.66871E+03 -2.27239E+04  1.07816E+04 -5.37860E+03  1.87279E+04 -4.26505E+03
  1.57804E+04  8.32422E+03  1.08341E+04  1.23466E+04 -2.54509E+03  1.52801E+04 -5.04971E+03  6.86541E+03
 -1.70020E+04  8.27760E+02 -1.04287E+04 -9.10822E+03  1.28795E+03 -1.45620E+04  7.63122E+03 -1.15166E+04
  9.09124E+03 -1.52799E+03  2.12115E+03 -1.43096E+03  2.34457E+03  2.43083E+03  1.95781E+03  4.51507E+03
  8.62730E+02  3.48161E+03  8.22223E+03  7.86344E+03 -5.66421E+02  4.17724E+03  4.25160E+03  1.49268E+04
 -2.43094E+03  1.12952E+04 -1.59171E+04  1.79652E+04 -1.29517E+04  6.02599E+03 -1.56182E+04 -6.14218E+03
 -1.06075E+04 -2.00848E+04 -3.01988E+03 -1.73462E+04  7.82391E+03 -1.19858E+04  1.47907E+04 -5.48606E+01
  1.33136E+03 -1.38404E+03  7.11195E+02  8.50654E+03 -6.85365E+03  5.68416E+03 -6.05172E+03  1.81516E+03
 -6.74487E+03 -6.30182E+03  5.11928E+03 -1.21330E+04  1.01189E+04 -7.04414E+02  1.07396E+04 -4.53915E+01
  5.50913E+03  2.54538E+02 -2.98211E+03  6.46151E+03 -8.88864E+03 -8.25864E+02 -3.01917E+03  3.43513E+03
  6.55749E+03 -4.01582E+03  6.48662E+03  5.95090E+02 -2.97492E+03  1.19299E+04 -3.19818E+03  1.25460E+04
 -1.06486E+04  4.51143E+03 -1.16017E+04  1.74594E+03 -7.34496E+03 -1.27070E+02 -5.04810E+03 -6.15294E+03
  2.75577E+03 -4.44350E+03  6.17004E+03 -6.18704E+03  1.10225E+03  9.51184E+03 -8.24305E+03  9.94428E+03
 -9.47228E+03  1.73600E+03 -3.74139E+03 -9.35873E+03 -1.02486E+04 -9.98219E+03  5.41812E+03 -1.22742E+04
 -1.71158E+03 -4.14414E+03  4.58543E+03  4.15946E+02 -6.80812E+02  6.07881E+03 -1.81027E+03  5.76910E+03
 -2.57679E+03  3.07343E+02 -4.74198E+03  8.35123E+02  7.38911E+03 -5.85211E+03  1.84012E+03 -6.12948E+03
  5.77544E+03  3.42077E+03  1.15974E+04  1.20433E+04  3.20952E+03  1.40463E+04 -3.21259E+03  4.49047E+03
 -9.00767E+03 -1.41712E+03 -1.03577E+04 -4.45631E+03 -5.32612E+03 -3.94663E+03 -1.07701E+03 -1.16044E+04
  8.38908E+03 -3.74287E+03  7.19723E+03  3.84266E+03  3.55293E+03  1.04253E+04  3.21541E+03  8.73750E+03
  1.68282E+03 -3.38839E+02 -2.25118E+03  2.78156E+03  7.69333E+03  6.83699E+03 -2.61398E+03 -7.22711E+02
 -9.71765E+03  9.32134E+03 -5.90501E+03  1.35012E+04 -1.80786E+04 -5.31377E+03 -7.68915E+03 -7.48927E+03
 -3.51508E+03 -1.93418E+04  1.07088E+04 -1.30082E+04  7.45417E+03 -1.28778E+04  1.52021E+04  1.77989E+01
  1.75812E+04  2.70819E+03  6.63397E+03  3.70203E+03  2.45653E+02  1.48578E+04 -1.43187E+03  1.35687E+04
 -9.32043E+03 -1.58725E+03 -5.31731E+02 -1.94837E+03  2.25140E+03 -3.62566E+03  5.21698E+03  5.37800E+02
  6.39451E+03 -5.16275E+03  6.57797E+03 -7.53536E+03 -9.72749E+03 -6.73418E+03  7.93739E+02 -2.68751E+03
  7.10955E+03 -3.89928E+02  3.02224E+03  1.56648E+03  2.66912E+03  1.68761E+03 -1.63657E+03  1.60278E+04
 -9.42411E+02  7.91656E+03 -1.53809E+04  6.22320E+03 -1.51281E+04  5.75868E+03 -1.54188E+04 -1.26999E+04
  2.13849E+03 -8.32636E+03 -8.32777E+02 -1.78732E+04  4.40741E+03 -2.52067E+03  7.50158E+03  4.34209E+03
  2.22752E+03  7.39917E+03 -1.57938E+03 -5.48940E+03  1.37381E+03  1.23454E+03  3.85729E+03  5.75962E+03
  2.45245E+03  2.37474E+03  2.12681E+03  6.09467E+03  2.02655E+03  7.82837E+03  1.68451E+03  1.02355E+04
 -2.30903E+02  2.47342E+03 -5.50533E+03  3.82970E+03 -5.31598E+03  8.34014E+02 -5.75838E+03 -1.22484E+04
 -4.65977E+02 -4.74782E+03  1.04303E+04 -5.39158E+03  6.97571E+03  1.59469E+03  4.16458E+03  4.63452E+03
  4.17224E+03  9.61252E+03  1.52584E+03  6.40125E+03 -6.55395E+03 -8.82460E+02  1.10413E+03 -2.55639E+03
 -2.52330E+03  4.10785E+03 -2.63395E+03  2.12591E+03 -1.82192E+03 -5.62969E+03 -2.38454E+03  4.50995E+02
 -2.22790E+03 -8.00542E+03  5.42578E+03 -9.37280E+03  7.14958E+03 -7.15990E+03  5.43467E+03 -1.68939E+03
  5.96673E+03  2.76525E+03  6.51454E+03  5.21142E+03 -5.24806E+03  9.11049E+03 -3.56513E+03 -4.80123E+03
