 $NMID ID='MM_0lb_SNR50_18hz_g40_21.RAW', FMTDAT='(8E13.5)'
 TRAMP=1., VOLUME=1. $END
  3.12357E+05 -1.88636E+03  3.38385E+05  2.47454E+05  8.41890E+04  3.32748E+05 -1.36855E+05  2.46059E+05
 -1.90794E+05  8.38378E+04 -1.09686E+05 -2.93768E+04  4.29059E+03 -5.27062E+04  5.48464E+04 -4.31547E+02
  3.37830E+04  4.90083E+04 -1.47015E+04  7.07500E+04 -6.11177E+04  6.37230E+04 -7.79238E+04  3.31930E+04
 -8.08147E+04 -9.28120E+03 -5.82937E+04 -5.04415E+04 -1.20937E+04 -6.81241E+04  2.73396E+04 -4.39740E+04
  3.47155E+04  5.02237E+03  1.54862E+04  4.69841E+04 -3.34874E+04  5.00275E+04 -6.72210E+04  7.05280E+02
 -5.31510E+04 -5.85672E+04 -3.52766E+03 -7.70228E+04  3.25860E+04 -5.56952E+04  4.70251E+04 -1.40614E+04
  4.16765E+04  1.27268E+04  3.16706E+04  2.27394E+04  2.00377E+04  3.06192E+04 -2.00313E+03  2.81560E+04
 -2.36058E+04  1.13779E+04 -1.65708E+04 -4.60578E+03  1.09293E+03 -1.05776E+04  1.98042E+04  1.10736E+04
  9.32664E+03  3.18002E+04 -3.31978E+04  3.41204E+04 -6.32745E+04  1.89295E+02 -5.48095E+04 -3.88636E+04
 -1.19600E+04 -6.45288E+04  3.91962E+04 -4.46895E+04  5.41205E+04  4.39842E+03  3.03677E+04  2.97054E+04
 -9.40715E+03  3.57773E+04 -2.60338E+04  1.57706E+04 -3.03513E+04 -5.77894E+03 -1.54438E+04 -6.29015E+03
 -9.30778E+03 -9.28983E+03 -2.18083E+03 -1.72789E+04  5.99368E+03 -2.47310E+04  1.31039E+04 -1.47564E+04
  6.53861E+03  6.03360E+03 -3.76105E+03  1.30507E+04 -1.75059E+04 -4.01288E+03 -4.68557E+03 -3.08488E+04
  1.95917E+04 -3.82924E+04  4.59466E+04 -2.14491E+04  4.02452E+04  1.66316E+04  1.38465E+04  4.42748E+04
 -1.33469E+04  3.56417E+04 -1.98085E+04 -2.45948E+03 -1.16001E+04 -2.15546E+04  1.97069E+04 -2.86125E+04
  3.57238E+04 -6.64226E+03  2.87499E+04  2.00896E+04  1.57252E+04  4.04922E+04 -6.99606E+03  4.27500E+04
 -2.39863E+04  2.82083E+04 -3.54978E+04  8.27036E+03 -3.90121E+04 -1.66924E+04 -1.89463E+04 -2.97526E+04
  1.19605E+04 -3.44483E+04  3.34683E+04 -1.36857E+04  2.82327E+04  1.39242E+04  2.31345E+02  1.52081E+04
 -1.25602E+04  1.08966E+04 -1.37367E+04 -7.83831E+03  8.99036E+03 -7.20278E+03  2.25358E+04  7.17969E+03
  1.57460E+04  2.11282E+04 -8.02803E+03  2.75228E+04 -1.92523E+04  8.86175E+03 -2.63072E+04 -5.93204E+03
 -1.67915E+04 -1.46916E+04 -3.71895E+03 -1.99255E+04 -4.95646E+02 -1.42128E+04  1.30212E+04 -1.10147E+04
  2.22795E+04 -1.06967E+04  2.23312E+04  3.03565E+03  2.24887E+04  1.52125E+04  9.57888E+03  3.31535E+04
 -1.20908E+04  2.41032E+04 -2.46452E+04  1.06645E+04 -1.98037E+04 -1.23139E+04 -1.85664E+03 -1.15562E+04
  3.46977E+03  1.76985E+03 -5.24417E+03  8.44614E+03 -1.32705E+04  8.68543E+03 -1.42035E+04 -3.54173E+03
 -1.05092E+04 -1.33836E+04  3.38511E+02 -1.48778E+04  1.26563E+04 -1.33155E+04  1.07033E+04  2.49802E+03
  6.86032E+03  1.26174E+04 -2.65126E+03  1.43494E+04 -1.10187E+04  1.01549E+04 -1.56270E+04  2.17068E+03
 -1.44117E+04 -1.77215E+04  1.23660E+03 -1.81606E+04  6.02695E+03 -1.38080E+04  1.44048E+04 -5.63440E+03
  1.51053E+04  4.51942E+03  7.28783E+03  5.40902E+03  4.28840E+03 -2.07097E+02  8.56348E+03 -5.80315E+03
  1.47055E+04  2.89851E+03  1.61597E+04  1.50692E+04  9.92958E+03  2.60541E+04 -3.98778E+02  2.74091E+04
 -1.72449E+04  1.59434E+04 -2.55883E+04  1.34533E+04 -2.69573E+04 -5.38797E+02 -2.62452E+04 -1.31741E+04
 -7.72746E+03 -1.92169E+04  6.15107E+03 -1.46439E+04  1.70955E+04 -1.09513E+04  1.71615E+04  7.38740E+03
  7.41770E+03  7.30951E+03 -8.98249E+03  1.16328E+04 -1.18736E+04  6.21538E+03 -9.88771E+03 -9.42534E+03
 -1.15073E+03 -1.18116E+04  4.49082E+03 -8.96178E+03  7.34679E+03 -1.01395E+03  6.43358E+03  4.45221E+03
 -9.23782E+03  4.15880E+03 -3.32390E+03 -3.79910E+03 -2.04190E+03 -8.22281E+03  7.19809E+03 -1.08367E+04
  9.79336E+03 -2.51017E+03  1.26366E+04  7.34444E+03  8.39278E+03  9.50002E+03  4.46855E+03  1.57691E+04
 -2.38379E+03  1.57872E+04 -9.35529E+03  1.42321E+04 -1.21441E+04  5.22130E+03 -8.89728E+03 -5.58783E+03
 -1.02672E+03 -2.92912E+03 -2.98050E+03  7.59503E+01 -8.33320E+03 -7.15560E+02 -6.88531E+00  1.75098E+03
 -8.32070E+02  3.35937E+03 -1.22102E+04 -4.97902E+03 -3.95825E+03 -8.51358E+03  5.51936E+03 -7.06733E+03
  3.94868E+03 -4.47892E+03  6.98166E+03  2.46116E+03  4.17910E+03  5.90014E+02  1.17283E+03 -2.43321E+03
 -4.99187E+03 -4.18646E+03 -1.27722E+03 -4.35398E+03  5.36680E+03 -7.19852E+03  7.93591E+03 -3.19848E+03
  1.09108E+04 -2.49182E+02  6.61886E+03  6.37418E+03  1.61600E+03  8.10111E+03 -1.67175E+03  9.77970E+03
 -4.75026E+03  1.82756E+03 -3.81002E+03  1.92300E+03 -9.99592E+02 -1.45862E+03  3.08785E+03 -3.34773E+03
  2.37952E+03  4.35410E+03  2.84941E+03  9.66153E+03 -4.45077E+03  6.48735E+03 -6.19120E+03  5.36415E+03
 -3.37176E+03 -1.97719E+03  2.46929E+03 -7.89991E+03 -2.86831E+02  1.74578E+02  2.24565E+03  1.21600E+03
  1.69287E+03  2.91864E+03 -3.06058E+03  3.86416E+03 -6.01584E+03  1.35058E+03 -5.56908E+03 -1.54163E+03
 -3.17135E+03 -8.38190E+03  1.98610E+02 -8.63668E+03  6.02866E+03 -5.63233E+03  5.32828E+03 -2.08496E+03
  2.47532E+03  7.57047E+03 -8.46549E+02  7.68387E+03 -4.37961E+03  2.05971E+03 -3.05131E+03 -7.33079E+02
 -1.08572E+04 -6.13340E+03  2.56364E+03 -8.30664E+03  2.42030E+03 -4.36876E+03  4.82506E+03  1.35340E+03
  2.58841E+03  4.37291E+03  2.05987E+03 -5.43539E+03  1.37345E+03  2.98917E+03 -6.44813E+01  3.72259E+03
 -1.20865E+03 -1.69782E+03  8.88867E+03  3.25263E+03  5.60334E+03  4.55139E+03  4.76980E+03  4.18880E+03
 -9.43182E+02  6.59609E+03 -7.91236E+03  4.65068E+03 -9.38643E+03  3.59877E+03 -8.45017E+03 -5.80227E+03
 -5.60411E+03 -8.30650E+03  2.62795E+02 -4.75153E+03  4.27289E+03 -1.00709E+03 -1.14382E+03 -1.73178E+03
  3.55658E+03 -4.93181E+03  2.82318E+03 -1.99064E+03  5.28599E+03 -2.33896E+03  2.36568E+03  3.08482E+03
  4.73950E+02  5.34250E+02 -1.29446E+03  5.55714E+03  1.09447E+03  6.30652E+03 -5.19440E+03  4.62191E+03
 -1.07423E+04  2.66622E+03 -2.79053E+03 -6.69518E+03  2.46530E+03 -1.64184E+03  4.44254E+03 -4.51689E+03
  6.64653E+03 -3.12172E+03  5.74168E+03  1.00376E+03  2.06019E+03  4.58413E+03 -1.72095E+03  5.29983E+03
 -2.30915E+03  8.18852E+03 -3.42078E+03  4.63149E+03 -6.20089E+02 -8.22159E+02 -2.91337E+03 -2.95804E+02
 -9.55694E+02  4.18129E+02  3.10388E+03 -2.83600E+03 -1.78929E+03  1.05045E+03 -3.86058E+03  1.37059E+03
 -3.40098E+03 -4.08671E+03  2.49851E+03 -7.68082E+03  4.42950E+03 -1.38517E+03  4.87190E+02 -3.48050E+03
  7.57638E+03  5.05922E+03  3.87297E+03  2.95271E+03 -4.46540E+03  7.39148E+03 -3.55996E+01  3.29922E+03
 -4.66892E+03 -1.79957E+03  7.81326E+02 -9.33073E+03  2.90468E+03 -5.52764E+02 -1.52331E+03  4.22917E+01
  8.17474E+03  1.26020E+03 -1.80502E+03 -4.76730E+02  1.80823E+03 -4.22970E+02 -4.08564E+02 -4.72667E+02
 -3.67458E+02  4.42286E+03 -2.08981E+03  4.79342E+02  2.25943E+03  5.21850E+02  1.63103E+03  2.02179E+03
 -9.94369E+02  4.04375E+02 -1.26727E+03  5.45254E+03 -4.67896E+03  2.94166E+02 -1.53157E+03  8.87523E+02
 -1.62034E+03 -1.45950E+03 -4.80283E+03 -3.63431E+03  1.96572E+02 -1.65153E+02  1.07679E+03 -1.62810E+03
  9.05098E+02  5.05635E+00 -3.45651E+03  4.24663E+03  1.07948E+03 -7.80412E+02 -1.98460E+03 -2.38398E+03
 -2.60546E+02 -3.96074E+03 -2.94483E+03 -5.49714E+03  1.68598E+03 -7.52736E+02  1.40772E+03  4.13931E+03
  5.61619E+02 -4.15399E+02  1.87947E+03  3.65415E+03 -4.35990E+03 -3.29078E+03  1.96418E+03 -5.64827E+02
 -4.06221E+03 -2.74774E+03  2.10264E+03  5.81059E+02 -1.49280E+02 -1.63962E+03 -3.86050E+03  4.98600E+02
 -6.48639E+02 -1.11433E+03 -3.65209E+03  1.12645E+03 -2.23151E+03 -2.06023E+03  8.23971E+02 -3.46972E+03
 -1.46273E+03 -3.29177E+03  2.10720E+03  2.19987E+03  8.52255E+02  2.37060E+03  1.08501E+03  1.31801E+02
  2.01002E+03  2.53746E+03  1.84738E+02 -4.66557E+03 -5.69094E+02 -2.21839E+03  2.41114E+03  9.39972E+01
 -6.81836E+02 -7.31936E+03  1.85834E+03  5.73644E+02  3.85864E+03  1.71530E+03  2.39208E+03 -3.08216E+03
 -2.83725E+02  2.31387E+03 -1.59777E+03 -2.08871E+03  1.07817E+03 -1.15694E+03  2.98157E+02 -5.02216E+03
 -1.73539E+03 -1.67956E+02  4.83901E+03  9.46851E+00  1.65528E+03  2.00316E+03  2.88397E+02 -1.91815E+02
 -3.85755E+03 -4.10720E+03  3.82480E+02 -1.44686E+03 -1.71286E+03  5.15090E+01 -2.06525E+03 -4.70461E+02
  1.28716E+03  2.45275E+03  5.25398E+03  4.52925E+02  3.43374E+03 -2.55306E+03  5.87134E+02 -1.07163E+03
  4.20412E+03  3.66884E+03 -2.34519E+03 -4.43774E+03 -3.79356E+03 -4.59491E+03 -4.57793E+02 -3.17354E+02
 -3.07510E+03  2.17238E+02 -2.77605E+03 -1.27602E+03 -1.31046E+03 -7.40275E+02 -1.39531E+03 -2.30467E+03
  3.93569E+03 -6.32876E+02  2.30942E+03 -1.85161E+03 -4.52874E+03 -5.39035E+03  1.28524E+03 -1.11425E+03
  2.91122E+03  1.61532E+02  3.45914E+03  1.06700E+02 -5.92904E+02  1.64339E+03  1.72786E+03 -2.27046E+03
 -1.22901E+03  2.76757E+03 -2.41620E+03  1.60144E+03  1.97970E+03 -1.26606E+03  1.90185E+03  2.61320E+03
  1.95718E+03  2.01203E+03 -1.21393E+03  4.52633E+03  3.29526E+03 -1.93260E+02  2.21521E+03 -1.41752E+03
  3.49068E+03 -4.86551E+03  4.23682E+03  6.75571E+02 -3.67466E+03  6.99873E+02  1.40387E+03  5.01806E+03
  2.74706E+02  3.42309E+03  6.54751E+01 -2.87385E+01 -1.48080E+03  3.79131E+03  1.23370E+03 -2.18732E+02
 -2.13911E+03 -2.34173E+02  3.54213E+03 -2.13181E+03  5.71616E+03  2.90201E+03  2.96292E+03 -3.31215E+03
  3.24373E+03  2.86506E+03  2.24240E+03  4.66868E+03  2.55975E+03 -3.29703E+03 -2.70890E+01 -2.63600E+02
  3.44612E+03 -9.29451E+01 -5.71234E+02 -4.02986E+02  4.85395E+02 -2.00622E+02  1.64238E+03  2.51793E+03
  3.36660E+03  3.59972E+03  8.50104E+02 -2.91022E+03  2.36638E+03  2.04653E+03  1.48520E+03 -1.29671E+03
 -1.77779E+03  1.10593E+03  2.30226E+03 -1.12173E+03  3.84222E+03 -1.04849E+03  2.09531E+03  5.12539E+03
  1.77293E+02  1.33184E+03 -1.82639E+03  1.39110E+03  1.84895E+03 -7.76228E+02  9.93536E+02  9.12270E+02
 -4.54067E+02 -5.22403E+03  7.70285E+01 -9.79806E+02 -2.30335E+03 -8.01731E+02  1.18872E+03  4.53593E+02
 -1.42207E+03  4.69517E+03 -2.74966E+02  1.86259E+03  1.79277E+03 -3.38321E+02  1.02878E+02 -2.95748E+03
 -1.28273E+03 -2.12775E+03 -3.48053E+02  1.39054E+02 -1.97825E+03  6.06321E+02 -5.03467E+03 -4.46971E+03
