 $NMID ID='MM_0lb_SNR50_15hz_g55_44.RAW', FMTDAT='(8E13.5)'
 TRAMP=1., VOLUME=1. $END
  3.11608E+05  1.82079E+03  3.37109E+05  2.48770E+05  8.42413E+04  3.36183E+05 -1.33819E+05  2.51468E+05
 -1.90375E+05  8.65688E+04 -1.09785E+05 -2.85312E+04  1.92889E+03 -4.73011E+04  4.81186E+04 -1.98421E+03
  3.80797E+04  5.01450E+04 -1.30036E+04  7.84670E+04 -5.95555E+04  6.18274E+04 -8.51836E+04  2.98423E+04
 -8.46121E+04 -1.23963E+04 -6.01954E+04 -4.92217E+04 -2.08028E+04 -6.64915E+04  2.54402E+04 -4.50364E+04
  4.15629E+04  3.06613E+03  1.56068E+04  4.92954E+04 -3.14105E+04  5.00317E+04 -6.74623E+04  3.18814E+03
 -5.38451E+04 -5.47330E+04 -3.29648E+03 -7.71697E+04  3.80222E+04 -5.69389E+04  4.69670E+04 -1.90602E+04
  4.60978E+04  9.54649E+03  3.19419E+04  2.64497E+04  1.29485E+04  2.98166E+04 -4.86861E+03  2.41210E+04
 -2.11768E+04  9.16464E+03 -1.71921E+04 -5.12717E+03  6.06404E+03 -9.30430E+03  2.17378E+04  1.62653E+04
  1.59065E+03  3.42986E+04 -3.13505E+04  3.70506E+04 -6.45988E+04  3.46475E+03 -5.44173E+04 -4.37381E+04
 -1.39262E+04 -6.22527E+04  3.74841E+04 -4.50013E+04  5.09778E+04 -3.21692E+03  3.64380E+04  3.20269E+04
 -5.78781E+03  3.31850E+04 -3.26622E+04  1.25195E+04 -3.29408E+04 -9.28249E+02 -1.63351E+04 -1.36640E+04
 -7.66339E+03 -1.17617E+04 -3.03484E+02 -1.61374E+04  5.62513E+03 -2.11362E+04  1.74529E+04 -1.42436E+04
  1.17528E+04  2.27370E+03 -7.21495E+03  1.23853E+04 -2.24317E+04 -3.23891E+03 -6.18860E+03 -3.07799E+04
  2.26073E+04 -4.49794E+04  5.49229E+04 -2.19040E+04  4.30870E+04  1.98344E+04  1.51045E+04  4.77847E+04
 -1.79635E+04  3.43415E+04 -2.61624E+04  1.03662E+03 -1.40813E+04 -2.71764E+04  2.61324E+04 -3.51325E+04
  4.39675E+04 -1.23490E+04  3.34774E+04  2.20227E+04  1.65208E+04  4.38778E+04 -1.35426E+04  5.37601E+04
 -3.24023E+04  3.68701E+04 -4.52478E+04  6.69749E+03 -4.87319E+04 -1.57921E+04 -2.46213E+04 -4.10962E+04
  5.53411E+03 -3.61635E+04  2.62433E+04 -9.83751E+03  3.29619E+04  7.03942E+03 -4.50762E+01  2.06220E+04
 -1.39533E+04  8.43031E+03 -9.72655E+03 -7.59594E+03  5.82036E+03 -8.21910E+03  1.90826E+04  1.01571E+04
  9.11600E+03  2.30448E+04 -4.26810E+03  3.10865E+04 -2.48514E+04  8.12023E+03 -2.66856E+04 -9.85594E+02
 -1.92327E+04 -1.63990E+04 -7.04703E+03 -1.68361E+04  8.75384E+03 -2.29168E+04  1.83024E+04 -2.11878E+04
  2.66650E+04 -5.87964E+03  3.23476E+04  5.61587E+03  2.18653E+04  2.31388E+04  5.65635E+03  3.57584E+04
 -1.36119E+04  3.20726E+04 -2.89646E+04  9.66026E+03 -1.52246E+04 -1.10068E+04 -3.09833E+03 -1.36456E+04
  5.34769E+03 -2.33959E+03 -7.17339E+03  5.66464E+03 -1.71928E+04  2.63023E+03 -1.58544E+04 -8.93067E+03
 -1.21069E+04 -2.18048E+04  1.22764E+03 -2.12743E+04  1.72952E+04 -1.65385E+04  2.11093E+04 -5.83123E+03
  1.36779E+04  1.46628E+04 -2.13762E+03  1.28894E+04 -1.44992E+04  1.11612E+04 -2.20203E+04 -4.50620E+03
 -1.02536E+04 -1.31799E+04 -2.35200E+03 -2.25513E+04  1.06520E+04 -1.95417E+04  1.90434E+04 -7.33619E+03
  1.92581E+04  6.56173E+02  1.13093E+04  4.85193E+03  6.75764E+03  2.50518E+03  8.83462E+03 -2.17235E+03
  1.91445E+04  8.84549E+02  1.41449E+04  1.21659E+04  1.03743E+04  3.16341E+04 -1.45619E+03  3.22495E+04
 -2.09919E+04  2.85752E+04 -3.15810E+04  1.75202E+04 -3.24202E+04 -3.45901E+03 -2.63129E+04 -1.78684E+04
 -1.21988E+04 -2.72120E+04  5.07131E+03 -2.83080E+04  2.27312E+04 -1.53268E+04  2.32354E+04  5.39175E+03
  6.84163E+03  1.77290E+04 -6.16687E+03  1.46091E+04 -1.91860E+04 -2.70781E+03 -7.87366E+03 -6.47398E+03
 -5.60433E+02 -1.53750E+04  6.48601E+03 -1.31068E+04  1.19203E+04 -3.39103E+03  2.06641E+03  5.43423E+03
 -7.96559E+03 -3.93520E+03 -3.68104E+03 -5.69165E+03  2.59352E+03 -1.29041E+04  5.44704E+03 -1.45640E+04
  2.06364E+04 -4.22550E+03  1.26288E+04  1.77880E+03  1.20113E+04  1.37540E+04  8.42458E+03  2.37490E+04
 -5.32242E+03  1.88303E+04 -1.66802E+04  1.01488E+04 -1.07711E+04  3.51700E+03 -1.06583E+04 -4.70059E+03
 -2.30380E+03 -7.32764E+03 -3.22500E+03  4.89493E+03 -1.38282E+03  3.08700E+03 -6.30843E+03  1.29776E+03
 -1.70804E+04 -6.13075E+03 -9.92311E+03 -6.17384E+03 -4.87896E+03 -1.39685E+04  5.33610E+03 -1.38062E+04
  9.67694E+03 -4.68127E+03  7.65966E+03 -4.11510E+02 -2.70423E+03  4.62378E+03 -6.84164E+03  3.61114E+02
 -2.32669E+03 -8.97878E+03  3.73819E+03 -1.14249E+04  4.78626E+03 -9.99426E+03  1.62517E+04 -3.33838E+03
  1.78495E+04  2.22031E+03  1.33722E+04  5.60138E+03  4.40586E+03  1.03856E+04 -7.01885E+03  4.74537E+03
 -5.19470E+03  2.85434E+03  5.02077E+03 -5.70937E+03  1.38804E+03 -3.56409E+03  6.57791E+02 -4.46151E+02
  4.68112E+03  4.53325E+03 -4.83943E+03  9.05028E+03 -8.39942E+03  8.92458E+03 -1.30826E+04 -1.20681E+03
 -9.62953E+03 -5.96678E+03 -5.92382E+02 -1.05384E+04  5.22458E+03 -6.52131E+03  8.22181E+03  2.85715E+02
  1.71169E+03  8.45031E+03 -1.90422E+03  3.25522E+03 -1.12896E+04  4.34583E+03 -7.78283E+03 -6.02304E+03
 -7.75180E+03 -5.22504E+03  3.53799E+03 -1.02531E+04  1.17345E+04 -8.39257E+03  1.23205E+04 -1.81651E+03
  3.87423E+03  1.07263E+04  4.07453E+03  1.32638E+04 -7.99300E+03  5.76649E+03 -1.28836E+04  4.23927E+02
 -5.27008E+03 -9.67281E+03 -2.92329E+03 -9.80422E+03  1.43166E+03 -7.75416E+03  3.15629E+03 -6.02930E+03
  6.98026E+03  5.53689E+03  1.06828E+02 -6.43424E+02  3.76819E+03 -1.47983E+03 -3.76763E+03 -1.99248E+03
  4.60078E+03  1.92758E+03  5.58454E+03  3.32523E+03  4.93714E+03  3.03253E+03  4.29404E+03  1.17373E+04
 -2.45684E+03  1.36832E+04 -9.91580E+03  7.20849E+03 -1.21278E+04  5.07385E+03 -1.17219E+04 -4.85688E+03
 -8.89989E+03 -1.07992E+04 -5.98982E+02 -9.64522E+03  2.71971E+03 -2.63777E+03 -2.72527E+01 -3.32953E+03
  5.47507E+03 -2.31433E+03  1.00414E+03 -9.12166E+03  5.51192E+03 -2.58862E+03  5.71963E+03 -9.99051E+02
  6.93541E+03  3.82010E+03  2.36723E+03  4.72026E+03 -1.52367E+03  6.28914E+03 -6.78788E+03  9.08509E+03
 -9.18064E+03  1.09903E+03 -4.21249E+03 -6.09890E+03 -4.49764E+03 -1.30430E+04  4.27305E+03 -1.07122E+04
  4.17697E+03 -6.81273E+03  1.36963E+04  1.13249E+03  7.46442E+03  5.44387E+03  6.30906E+03  8.16008E+03
 -4.65009E+03  4.13312E+03 -9.59753E+03  5.80687E+03 -2.90738E+03 -2.70743E+02  2.50517E+03 -3.17785E+03
  1.59171E+03 -9.32591E+02  1.42047E+03  1.64912E+03 -1.51472E+03  7.32125E+02 -8.42959E+03 -4.33033E+03
  1.12245E+03  1.00682E+03  2.24113E+02 -5.03890E+03  2.04953E+03 -8.15042E+03  1.25540E+04 -5.04467E+03
  8.12790E+03  3.77831E+03  4.07476E+03  2.10265E+03 -4.15963E+03  9.70431E+03 -9.77557E+03 -6.94715E+02
 -9.35138E+03  2.99704E+03 -3.65929E+03 -9.56412E+02 -5.82897E+02 -4.65769E+03  1.22738E+03 -5.35433E+03
  4.33278E+03 -2.89861E+03  5.19261E+03  9.87063E+02 -9.42978E+01  2.53371E+03  2.06020E+03 -3.65092E+03
  7.00856E+03 -2.26898E+02 -5.91252E+02  1.58894E+03 -4.09379E+03  4.62778E+03  2.59280E+03  2.36003E+03
 -3.99991E+03  6.79973E+03 -7.73468E+03  1.06690E+04 -1.29954E+04 -3.56622E+02 -5.83190E+03 -3.93294E+03
 -7.70191E+03 -8.55747E+03  5.59169E+03 -4.82232E+03  3.55993E+03 -2.46503E+03  3.49213E+03 -2.87563E+03
  6.86172E+03  4.15035E+03  2.19362E+03  9.25578E+03 -1.06957E+03  3.13496E+03 -1.95077E+02  5.78767E+03
 -2.26979E+03 -6.11794E+03 -3.80481E+03 -5.95199E+03  3.09161E+03 -2.87266E+02  2.19709E+03 -4.65183E+02
 -1.29700E+02  1.87006E+03  4.77908E+03  3.23435E+03 -4.67961E+02 -1.89240E+03  2.46173E+03  2.55881E+02
  5.41158E+02 -3.89941E+03  5.36530E+03  3.82900E+03  2.53371E+03  3.01703E+03 -2.21056E+03  5.61115E+03
 -1.48540E+02 -2.17612E+01 -1.13650E+02 -1.18405E+03 -4.60687E+03  2.82333E+03 -3.19912E+03 -1.35870E+03
 -3.18747E+03 -3.30685E+03 -7.81000E+02  1.76958E+03 -3.04692E+03  2.88386E+03 -1.58089E+03  4.19376E+03
 -2.33922E+03  1.40708E+03 -1.57017E+03 -3.66245E+03 -5.63202E+03 -4.55242E+03 -1.06734E+03 -2.07897E+02
 -1.24595E+03  1.36976E+03  5.31566E+03  4.92750E+02  3.60183E+03 -1.58925E+03  1.65561E+02  5.88174E+03
 -6.60229E+03  2.66437E+02 -2.68417E+02  4.01432E+03  1.20330E+02  3.97893E+03  2.06867E+03 -4.18346E+03
  5.51148E+03 -1.15330E+03  1.09033E+03  3.61100E+03 -8.21546E+02  6.49638E+03 -3.07712E+00  4.33486E+03
 -2.57813E+02 -4.02782E+02 -2.39371E+03 -2.01455E+02  4.64245E+02 -2.92755E+03 -1.46811E+03 -6.07628E+02
  4.90276E+03 -1.79426E+03 -2.27075E+02  8.52683E+02  8.69870E+02  3.71841E+03  3.23537E+03 -1.56276E+03
 -2.15277E+02  1.29326E+03 -1.13826E+03  2.02181E+03 -1.22021E+03  7.33840E+02  6.17770E+03  2.82228E+03
  2.39351E+03 -1.46312E+03 -8.04232E+02  6.42075E+03 -2.82678E+03  4.65742E+03 -2.76715E+03  1.19211E+03
 -3.75573E+03 -2.76325E+03  5.73501E+03 -8.19276E+03  3.16948E+03 -4.39520E+03  4.76254E+03 -1.47930E+03
  6.92603E+03  1.14456E+03 -3.68581E+03  4.82396E+03  1.19749E+03  2.10268E+03 -2.42528E+02 -7.69485E+02
 -2.96839E+03  1.18403E+02 -1.55576E+03 -5.17966E+01 -2.51306E+03 -1.58745E+01  9.08635E+02  3.57826E+03
  6.82854E+02 -1.92499E+03  3.83557E+02  5.83704E+03 -2.69429E+03 -3.37882E+03 -1.96666E+03 -2.82078E+03
  9.89013E+02 -4.24763E+03 -1.54739E+03  2.54235E+03  4.87681E+03 -2.13540E+02 -3.36153E+02  8.29488E+03
  2.64468E+03  1.37054E+03 -2.15552E+03  4.87002E+03 -4.65097E+03 -1.75611E+03 -1.48014E+03 -8.13726E+02
 -1.14624E+03 -4.59318E+03  3.36369E+03 -9.34806E+02 -2.72470E+02  5.41074E+02  2.33460E+03  1.28742E+03
  2.14107E+03  3.89497E+03 -2.57343E+03  6.50155E+02 -3.74804E+03  1.36279E+03 -2.01590E+03 -1.28257E+03
  1.87590E+03  3.37572E+03  3.05246E+03 -1.79960E+03  9.79748E+02  5.80264E+02  2.77520E+03  3.41333E+03
 -3.41676E+02  1.98173E+03  3.98996E+02 -2.73726E+03 -7.74507E+03  1.41117E+03  6.79929E+02 -2.55228E+03
 -2.77562E+03  7.72527E+02  2.74213E+03  2.09225E+03  6.24675E+02  2.90727E+03  5.61489E+03  1.17379E+03
 -4.21726E+03  5.20045E+03 -6.22945E+03 -1.54240E+03 -5.94852E+03  4.32136E+02 -1.34756E+03  2.79779E+03
 -1.11709E+03  4.05898E+03 -1.00375E+03  1.95825E+02 -3.92264E+03 -3.02694E+03 -4.86703E+01 -1.80134E+03
 -4.24016E+03 -3.71172E+03 -4.01673E+02  1.37322E+03  2.07571E+03 -5.63299E+03  2.94953E+03  1.64023E+03
  6.72050E+03 -1.75729E+01  2.46878E+03  4.07053E+03  2.16304E+03  8.35309E+02 -6.43416E+03  2.36063E+03
