 $NMID ID='MM_0lb_SNR50_14hz_g40_90.RAW', FMTDAT='(8E13.5)'
 TRAMP=1., VOLUME=1. $END
  3.13760E+05  3.10663E+02  3.37547E+05  2.47565E+05  8.75328E+04  3.40366E+05 -1.34780E+05  2.48944E+05
 -1.91916E+05  8.14992E+04 -1.13999E+05 -2.99086E+04 -2.40940E+02 -5.29950E+04  5.44064E+04  2.92506E+03
  4.28503E+04  5.55821E+04 -2.15902E+04  7.47842E+04 -6.03541E+04  6.53943E+04 -8.85653E+04  2.89762E+04
 -8.00548E+04 -1.03717E+04 -5.97251E+04 -5.41619E+04 -1.82887E+04 -6.80098E+04  2.58674E+04 -4.62332E+04
  3.98518E+04  3.34960E+03  1.67560E+04  4.59163E+04 -3.59685E+04  4.99756E+04 -6.37533E+04 -1.61499E+03
 -5.70105E+04 -5.96072E+04 -1.32218E+03 -7.59298E+04  3.28898E+04 -5.39400E+04  4.32397E+04 -1.98855E+04
  4.02063E+04  1.19538E+04  2.78398E+04  2.11355E+04  1.73795E+04  2.67840E+04 -8.32916E+03  2.71633E+04
 -2.24353E+04  1.49449E+04 -1.92501E+04 -7.74307E+03  5.06716E+03 -9.23975E+03  1.90146E+04  1.26250E+04
  8.96153E+03  3.37991E+04 -2.86104E+04  3.37974E+04 -6.47622E+04  3.13671E+03 -5.90171E+04 -4.08874E+04
 -1.09199E+04 -6.35370E+04  3.39550E+04 -4.24995E+04  5.38069E+04 -6.28765E+02  3.67727E+04  2.60670E+04
 -6.49120E+03  3.67171E+04 -2.50274E+04  1.60757E+04 -2.84589E+04 -6.25561E+03 -1.60449E+04 -7.41081E+03
 -6.09369E+03 -1.59069E+04 -3.29263E+03 -1.80733E+04  5.58162E+03 -1.79812E+04  1.53209E+04 -1.62449E+04
  1.44200E+04  3.91169E+03 -5.66362E+03  1.13861E+04 -2.06549E+04 -4.32566E+03 -4.28694E+03 -3.34572E+04
  2.00980E+04 -4.02651E+04  4.53535E+04 -2.03695E+04  4.63559E+04  1.75237E+04  1.46348E+04  4.10049E+04
 -1.54745E+04  3.24657E+04 -2.55922E+04  6.33089E+02 -1.08278E+04 -2.77652E+04  2.34482E+04 -3.16199E+04
  4.21830E+04 -7.77130E+03  3.32925E+04  2.18287E+04  1.55892E+04  4.11082E+04 -7.16982E+03  5.05660E+04
 -3.39376E+04  2.76653E+04 -4.55442E+04  1.09672E+04 -4.14857E+04 -1.31742E+04 -1.99263E+04 -3.91033E+04
  4.71232E+03 -3.93374E+04  3.44680E+04 -1.34003E+04  2.93894E+04  7.77448E+03  3.46632E+03  2.16582E+04
 -8.89670E+03  9.07283E+03 -2.91171E+03 -4.86448E+03  2.67749E+03 -8.65172E+03  2.15434E+04  5.10282E+03
  1.23098E+04  2.31732E+04 -3.13521E+03  2.44261E+04 -2.02760E+04  1.47433E+04 -2.76655E+04 -9.81044E+03
 -2.15176E+04 -1.60037E+04 -8.71507E+03 -2.37703E+04  8.44796E+03 -1.45448E+04  1.35544E+04 -1.88720E+04
  2.60640E+04 -1.28676E+04  3.71742E+04  3.00770E+01  2.14261E+04  1.56363E+04  5.91596E+03  3.22436E+04
 -1.74065E+04  3.23367E+04 -2.99123E+04  8.96357E+03 -2.33709E+04 -9.61487E+03 -6.09729E+03 -1.45202E+04
 -3.90783E+02 -3.55647E+03 -6.13289E+03  6.19258E+03 -1.30732E+04  2.21889E+03 -1.91932E+04 -2.21741E+03
 -7.04643E+03 -2.19376E+04  7.99077E+03 -2.31035E+04  1.63047E+04 -1.88185E+04  1.23800E+04 -1.27350E+03
  1.05786E+04  8.30677E+03  3.85919E+03  1.71542E+04 -1.33775E+04  1.11371E+04 -1.76160E+04  1.11177E+02
 -1.17328E+04 -9.08201E+03 -1.90811E+03 -1.77747E+04  1.60072E+04 -2.14494E+04  2.04383E+04 -7.40655E+03
  1.67038E+04  1.73835E+03  9.90157E+03  5.92189E+03  9.06594E+03  1.81749E+03  8.68851E+03 -5.22635E+02
  2.04978E+04  1.66744E+02  1.47258E+04  1.31720E+04  1.23366E+04  3.38771E+04 -4.67504E+03  3.18839E+04
 -2.13327E+04  2.58271E+04 -3.34652E+04  1.12027E+04 -2.99494E+04 -6.60453E+03 -2.54585E+04 -1.92843E+04
 -6.01051E+03 -2.45287E+04  1.27763E+04 -2.74555E+04  2.31917E+04 -1.19120E+04  1.41385E+04  9.77307E+02
  8.40836E+03  1.20843E+04 -6.82164E+03  1.48259E+04 -1.71184E+04 -1.19356E+03 -1.12821E+04 -1.13185E+04
 -1.09604E+03 -1.44463E+04  7.58726E+03 -1.50202E+04  9.66651E+03 -1.74903E+03  2.44904E+02  8.03697E+03
 -4.69763E+03  4.55473E+03 -3.28457E+03 -4.26391E+03  3.13147E+03 -8.21942E+03  1.26926E+04 -1.56320E+04
  1.69844E+04 -9.25976E+03  1.80771E+04  1.95107E+03  1.08776E+04  1.62513E+04  8.17786E+03  1.69233E+04
 -2.18807E+03  2.11208E+04 -1.15146E+04  1.09032E+04 -1.62778E+04  7.39183E+03 -1.20373E+04  2.12827E+03
 -1.58506E+03  5.60599E+02  4.91353E+02  2.53014E+03 -7.50351E+02  3.65187E+03 -8.63097E+03  5.10035E+03
 -1.29165E+04 -2.33262E+03 -5.60345E+03 -3.82049E+03 -4.87104E+03 -1.27906E+04  5.13126E+03 -1.09250E+04
  2.57405E+03 -5.26502E+03  4.62968E+03  6.39926E+03  2.06739E+03  6.32611E+03 -6.65002E+03 -2.47992E+03
 -5.18681E+03 -5.60615E+03 -2.82149E+03 -1.03496E+04  5.32909E+03 -1.01460E+04  1.11141E+04 -3.41261E+03
  1.90246E+04  2.38594E+03  1.46034E+04  7.95984E+03 -8.99192E+02  9.54690E+03 -4.70610E+03  8.97115E+03
 -7.92134E+03  1.00500E+04 -3.47045E+03 -9.28276E+02  2.64153E+03  8.25811E+01  8.62989E+03  1.85171E+03
  6.68081E+03  5.64056E+03  3.70812E+03  1.14844E+04 -5.18621E+03  8.71291E+03 -8.85411E+03  3.04229E+03
 -8.42435E+03 -1.49501E+03 -8.23148E+02 -1.00808E+04  7.04905E+03 -2.02300E+03  5.98997E+03  6.49490E+02
  1.75279E+03  6.26293E+03 -9.71581E+02  8.60997E+03 -7.01059E+03 -2.61202E+03 -9.48424E+03  7.40582E+02
 -4.05522E+03 -4.51386E+03  4.45462E+03 -9.69960E+03  1.21497E+04 -2.57819E+03  1.14697E+04  5.27959E+03
  7.53179E+03  9.93548E+03  2.26063E+03  7.80408E+03 -5.54290E+03  6.49896E+03 -6.59663E+03  3.86610E+03
 -9.38228E+03 -6.55639E+03 -5.30452E+03 -4.36858E+03  7.19990E+03 -4.28882E+03  2.85496E+03 -8.37057E+02
  5.78515E+03 -2.75548E+03 -1.56458E+03 -1.45525E+03  1.00504E+03 -3.15727E+03  1.20797E+03 -4.27639E+03
  4.18398E+03 -1.40558E+03  1.31134E+04  2.14233E+03  1.21425E+04  9.64646E+03  7.79753E+03  1.00763E+04
 -2.23948E+03  1.07638E+04 -1.34156E+04  1.06593E+04 -1.01075E+04 -2.56309E+03 -1.80249E+04 -5.73556E+03
 -1.68990E+03 -1.09830E+04 -1.47663E+03 -9.47333E+03  5.62066E+03 -8.72248E+03  4.97067E+03 -5.47236E+03
 -1.60297E+02 -3.75752E+03  6.30385E+03 -3.73098E+03  4.76341E+03  4.57812E+02  3.28373E+03 -5.47578E+02
  9.92246E+03 -8.86501E+02  3.46348E+02  4.28815E+03 -1.90317E+03  3.61659E+03 -5.75053E+03  3.08988E+03
 -8.73053E+03  4.70617E+02 -2.02531E+03 -5.80766E+03 -1.79015E+03 -1.00997E+04  5.01106E+03 -9.06674E+03
  1.18339E+04 -3.44774E+03  1.19502E+04 -2.47539E+03  8.97506E+03  7.83357E+03  2.79401E+03  1.43549E+04
 -6.22148E+02  8.17470E+03 -1.87127E+03  9.14849E+02 -4.19333E+03 -2.43283E+03 -2.83713E+03 -3.29630E+03
 -5.23829E+03 -4.60083E+02 -3.97510E+03  1.90374E+03 -3.82610E+03 -6.90915E+02 -3.15519E+03  2.70199E+03
 -4.13198E+03 -5.11675E+03  2.37437E+03 -8.36986E+03  4.13807E+03 -1.00905E+04  3.07522E+03 -5.27882E+03
  3.17205E+03  1.37135E+03  5.78492E+03  9.79954E+03 -1.90642E+03  6.25556E+03 -4.06217E+03  4.48124E+03
 -9.30193E+03  4.11814E+02 -4.13443E+03 -7.27279E+03 -4.63572E+02 -1.01465E+04  2.94666E+03 -4.82867E+03
  7.72437E+03 -6.01776E+03  1.16905E+03  1.13413E+03 -3.64497E+03  4.31691E+03  3.67771E+03  3.18236E+03
  9.23751E+02  4.99094E+01 -6.15014E+02  5.41333E+03 -1.31510E+03  5.63910E+03  2.01051E+03  6.42109E+03
 -3.44006E+03  7.79047E+03 -1.49829E+02  6.95700E+03 -6.21863E+03  1.39606E+03 -3.23995E+03 -5.54520E+03
 -3.53647E+03 -1.26853E+04  1.24551E+03 -9.65546E+03  8.82046E+03 -2.52730E+03  3.27668E+03 -4.88975E+03
  4.23352E+03  2.91858E+03  5.84958E+03  7.38708E+03  2.65720E+02  4.33188E+03 -2.14262E+03 -1.93933E+03
 -1.86990E+03 -7.63131E+03  2.33228E+03 -3.06338E+03  1.51733E+03 -3.13968E+02  4.34370E+03  3.40983E+03
  5.31616E+02 -1.99695E+03  1.59197E+03  5.82123E+01  6.07452E+03  8.99238E+02  7.44523E+02 -4.85475E+03
  8.02524E+01  3.54086E+02 -1.62493E+03  3.94337E+03  3.97971E+03  3.29073E+03 -1.06065E+03  7.81245E+03
 -4.86750E+03  2.32585E+03 -4.07461E+03 -8.60873E+02 -2.65547E+03 -2.74048E+03  9.04137E+01 -3.08143E+03
 -5.12899E+02 -5.41534E+03  5.83532E+03  4.85916E+03  2.78496E+03  3.07370E+03 -4.02576E+03 -1.12990E+03
 -7.03053E+03  3.35848E+03 -5.64293E+03 -2.70468E+03 -6.20078E+02 -2.51754E+03  1.04103E+03 -2.12572E+03
  5.94900E+03 -1.20932E+03  3.78418E+03 -3.41126E+03  5.16581E+01  6.79719E+02  1.39932E+03 -1.07710E+03
 -6.09711E+02 -3.02982E+03 -5.96432E+03  6.62773E+02  2.44990E+03 -2.47483E+03  4.97535E+03 -5.76052E+03
  3.92502E+03  2.37313E+03  2.49007E+03 -2.81724E+03 -2.19837E+03  5.17831E+03 -7.58851E+02  2.85120E+03
 -2.49631E+03  2.36692E+03 -4.28618E+03  7.14851E+02 -1.33691E+03 -2.11747E+03 -3.44691E+03 -2.56119E+03
  2.15324E+03  4.17744E+03  2.70372E+03 -4.33138E+02 -4.33453E+02  4.99672E+02 -2.70943E+02  4.39853E+03
  1.05766E+03  4.71197E+03  8.38653E+02 -1.82711E+03  2.25553E+03  2.94705E+03 -5.69776E+03  1.81941E+03
 -1.67678E+03  4.71864E+03 -6.98784E+00  4.67379E+03 -2.53298E+03  2.16534E+03  1.75880E+02 -4.97317E+03
  6.91024E+02 -1.50484E+03  1.07882E+03 -4.25751E+03  2.89214E+03 -6.15797E+03  9.59758E+03  2.29793E+03
  4.02236E+02  1.25424E+03  4.12437E+03  7.84120E+02 -1.44383E+02  4.31841E+03  4.04557E+02  6.71749E+02
 -3.33664E+03  3.77245E+02 -3.37829E+03 -2.53214E+02 -9.66567E+02 -6.39492E+02  8.42498E+02  1.96948E+03
 -3.59153E+02 -7.22978E+02 -5.40784E+03 -2.77349E+03  4.92792E+03 -2.45467E+03  3.43141E+02  1.20835E+03
  4.24324E+03  6.56718E+02  2.95968E+03 -5.18971E+03  2.05885E+03  2.04162E+03  3.02697E+03  1.41759E+02
 -2.81261E+02  5.09119E+02 -7.46431E+02  2.18076E+03 -5.66032E+03 -1.10897E+03 -3.10030E+03 -5.70691E+03
  1.96184E+03 -8.72378E+03  4.33967E+03 -8.58054E+02  7.94252E+03  3.60222E+02 -2.82070E+03  1.51419E+03
  3.48321E+03  2.98011E+03  7.79570E+02  7.38188E+02 -5.70807E+03 -1.14055E+03 -1.87052E+03 -2.77682E+03
 -5.52004E+03  9.84020E+02  4.08936E+03  1.23852E+03  2.48105E+03 -4.38828E+02 -7.92247E+02  5.86700E+03
 -3.37834E+03  5.52825E+03 -4.16248E+03  2.25658E+03 -2.72455E+03 -8.97488E+02 -3.39430E+03 -1.74962E+03
 -2.70289E+03 -2.26511E+03  2.58136E+03  2.15325E+02  1.77149E+03 -8.72882E+02  1.86202E+03  5.72928E+02
 -1.61986E+02  2.21203E+03 -2.79691E+03  2.63250E+03 -3.17333E+03 -7.77184E+02  2.49128E+03  1.51998E+03
  6.85255E+02  2.34482E+03  4.39821E+02 -6.18816E+02  1.42479E+02 -5.34520E+03 -3.51104E+03 -1.65049E+03
 -2.76482E+01 -1.95780E+03  2.98633E+03 -3.62062E+03  1.88283E+02 -1.56686E+03  8.55012E+02 -1.07682E+03
 -2.26333E+03 -8.33809E+02  8.48308E+02  5.67306E+03 -2.67058E+03 -1.85632E+02  2.47973E+03  7.29531E+03
