 $NMID ID='MM_0lb_SNR50_12hz_g55_89.RAW', FMTDAT='(8E13.5)'
 TRAMP=1., VOLUME=1. $END
  3.15674E+05  7.04711E+03  3.35548E+05  2.53222E+05  8.34682E+04  3.40357E+05 -1.32493E+05  2.50256E+05
 -1.88696E+05  8.39810E+04 -1.12337E+05 -3.37722E+04 -2.29947E+03 -5.42027E+04  5.67428E+04  2.71108E+03
  2.85042E+04  5.28057E+04 -1.52554E+04  7.33638E+04 -5.91635E+04  6.32208E+04 -9.05937E+04  3.03671E+04
 -7.98597E+04 -1.41014E+04 -6.34104E+04 -4.83332E+04 -1.52503E+04 -6.81409E+04  2.66638E+04 -4.48209E+04
  4.18163E+04  5.47230E+03  1.40263E+04  4.61310E+04 -3.73915E+04  4.69880E+04 -6.80415E+04 -1.85420E+03
 -5.25523E+04 -5.58965E+04 -1.78621E+03 -8.09550E+04  3.11712E+04 -5.78733E+04  4.80817E+04 -1.23540E+04
  4.15743E+04  7.16652E+03  3.18490E+04  2.85303E+04  1.33703E+04  2.70040E+04 -1.33831E+03  2.57672E+04
 -2.13523E+04  1.42076E+04 -1.57820E+04 -9.13505E+03  5.03333E+03 -8.41665E+03  1.83254E+04  1.31745E+04
  1.36857E+04  3.14655E+04 -3.67942E+04  3.98487E+04 -6.13901E+04  7.85525E+02 -5.77295E+04 -4.22683E+04
 -1.21830E+04 -6.50609E+04  4.33270E+04 -4.61925E+04  6.41018E+04  1.18961E+03  3.82943E+04  3.41193E+04
 -4.32014E+03  3.34148E+04 -2.94323E+04  1.53955E+04 -3.65866E+04 -5.03651E+03 -1.77369E+04 -1.35924E+04
 -6.44505E+03 -1.47112E+04  8.92895E+02 -2.07818E+04  1.13330E+04 -1.89303E+04  1.64991E+04 -1.54950E+04
  1.45131E+04  1.25839E+04 -1.52984E+04  8.92714E+03 -2.08302E+04 -8.39170E+03 -5.16114E+03 -3.74061E+04
  2.64269E+04 -5.19154E+04  5.68474E+04 -2.66161E+04  5.16991E+04  2.21248E+04  1.45017E+04  4.87659E+04
 -1.56330E+04  3.50685E+04 -3.32559E+04  3.07349E+03 -1.30104E+04 -3.01301E+04  2.12740E+04 -3.24676E+04
  4.39979E+04 -9.71745E+03  3.88171E+04  2.80665E+04  1.89080E+04  4.47689E+04 -1.07200E+04  5.07606E+04
 -3.09094E+04  3.78251E+04 -4.53078E+04  2.04447E+03 -4.40724E+04 -1.40013E+04 -2.31982E+04 -3.72416E+04
  6.03514E+03 -4.07436E+04  3.28622E+04 -1.82800E+04  3.24346E+04  1.16188E+04  1.00122E+04  2.17189E+04
 -1.24980E+04  9.89748E+03 -6.07159E+03 -9.25595E+03 -2.34887E+02 -1.19915E+04  1.98101E+04  4.19705E+03
  1.27130E+04  2.48110E+04 -3.66877E+03  2.30061E+04 -2.33629E+04  1.17647E+04 -2.46452E+04 -1.04136E+03
 -2.23251E+04 -1.81803E+04 -1.10660E+04 -1.96103E+04  1.53693E+02 -2.07951E+04  1.36776E+04 -2.16601E+04
  2.56299E+04 -8.23540E+03  3.97741E+04  1.19864E+03  1.91168E+04  2.17391E+04  7.89125E+03  3.73756E+04
 -1.82999E+04  3.44233E+04 -3.12589E+04  1.21602E+04 -2.13922E+04 -1.09275E+04  1.49572E+03 -1.14963E+04
 -4.08904E+02 -2.96505E+03 -1.01233E+03  1.40290E+04 -1.43319E+04  6.72821E+03 -1.78160E+04 -1.37132E+04
 -1.34289E+04 -1.97210E+04  9.92976E+03 -2.65403E+04  1.50027E+04 -1.85890E+04  1.92280E+04 -2.03119E+03
  1.72623E+04  1.67395E+04 -4.68547E+03  2.55606E+04 -1.09298E+04  1.36180E+04 -1.70306E+04 -5.22787E+03
 -1.80260E+04 -1.80044E+04  3.17895E+03 -2.26382E+04  1.47888E+04 -1.95264E+04  1.74737E+04 -9.68174E+03
  1.72111E+04 -5.30487E+01  1.41372E+04  3.15282E+03  6.37549E+03  6.86428E+03  1.59195E+04 -5.79981E+02
  1.91165E+04 -1.61884E+03  2.59879E+04  1.27914E+04  1.32644E+04  3.65947E+04 -5.35897E+03  4.40019E+04
 -2.28042E+04  2.85340E+04 -3.92530E+04  1.31372E+04 -3.82640E+04 -6.03444E+03 -3.48843E+04 -2.51215E+04
 -1.10044E+04 -2.88449E+04  1.43966E+04 -2.97498E+04  2.48008E+04 -1.28070E+04  2.83981E+04  5.64771E+03
  1.10811E+04  2.14461E+04 -1.48621E+04  1.63218E+04 -1.64448E+04 -2.58955E+03 -1.76488E+04 -1.41425E+04
  1.74008E+03 -1.58602E+04  4.70874E+03 -1.20078E+04  2.09521E+04  1.47716E+03  4.01949E+03  3.81161E+03
 -9.12765E+03  4.29805E+03 -9.69268E+03 -1.01888E+04 -8.21818E+02 -1.66987E+04  8.76323E+03 -1.56384E+04
  2.24246E+04 -4.34530E+03  2.01378E+04  1.33010E+03  1.58178E+04  1.86101E+04  5.14462E+03  2.13813E+04
 -7.00167E+03  2.57150E+04 -1.32274E+04  1.95165E+04 -1.92776E+04  4.68109E+03 -1.70275E+04 -4.43199E+03
  9.35363E+01 -3.25024E+03  7.77125E+03  1.27757E+03 -3.48378E+03 -2.43492E+03 -5.02622E+03  7.09339E+03
 -1.66163E+04 -2.85171E+03 -1.47488E+04 -1.32097E+04 -1.07187E+04 -2.31841E+04  7.82327E+03 -1.09159E+04
  8.85476E+03 -5.95198E+03  5.18273E+03  6.39438E+02 -2.12708E+02  7.79146E+03 -7.45753E+03  2.46763E+03
 -8.17108E+03 -6.21116E+03  1.51788E+03 -1.13492E+04  7.09733E+03 -1.51691E+04  1.87616E+04 -5.11271E+03
  1.99231E+04 -1.05359E+03  9.87276E+03  1.06381E+04  3.13387E+03  1.43389E+04 -1.25831E+04  1.35139E+04
 -1.18889E+04 -1.77726E+03 -6.32694E+03 -7.87124E+03 -6.24927E+03 -9.45052E+03  8.23975E+03 -4.70433E+03
  6.96600E+03  9.23806E+03 -2.19502E+03  1.38827E+04 -1.06828E+03  6.84939E+03 -1.27871E+04  1.14168E+03
 -8.29339E+03 -5.15107E+03  3.97124E+03 -4.52759E+03  5.83251E+03 -7.31635E+03  1.05323E+04  3.54853E+02
  4.21008E+03  6.11743E+03 -3.98298E+03  1.09760E+04 -1.00630E+04  2.14956E+03 -1.38739E+04 -4.72779E+03
 -1.26581E+03 -8.79489E+03  1.39953E+02 -1.24605E+04  6.09082E+03 -5.69487E+03  1.17054E+04 -2.26628E+03
  7.22339E+03  1.33425E+04 -4.84031E+03  1.87266E+04 -9.21660E+03  6.33029E+03 -1.38221E+04  2.49712E+03
 -6.83289E+03 -1.00698E+04 -1.01181E+03 -9.55544E+03  1.71069E+03 -1.06368E+04  5.42999E+03 -7.43472E+03
  6.97042E+03  2.68830E+03 -1.49117E+03  6.02695E+03 -1.77679E+03 -5.41473E+03 -4.50846E+02 -1.39988E+03
  4.52978E+03 -8.14874E+03  1.01699E+04  3.08095E+03  1.33010E+04  1.29156E+04  1.12488E+04  1.06873E+04
 -4.92637E+03  1.53942E+04 -1.49793E+04  1.88599E+04 -2.45899E+04  3.39212E+03 -1.65729E+04 -4.93091E+03
 -3.87379E+03 -1.67911E+04 -4.51966E+03 -1.14489E+04  3.05599E+03 -5.52862E+03  9.45409E+03 -3.28583E+03
  6.61668E+03 -4.28315E+03 -3.46725E+02 -2.88673E+03  6.16447E+03 -2.79402E+03  3.36211E+03 -7.02143E+03
  1.10752E+04  5.57549E+01  7.68817E+03  8.04888E+03 -3.05225E+02  1.22001E+04 -1.34480E+04  8.19079E+03
 -1.11021E+04 -8.09037E+02 -1.26573E+04 -1.01460E+04 -4.75182E+03 -1.20454E+04  5.54206E+03 -9.11385E+03
  5.48387E+03 -9.41691E+03  1.94056E+04  2.11583E+02  8.70885E+03  1.33517E+04  2.47359E+03  1.03451E+04
 -1.40390E+04  1.18240E+04 -1.32817E+04  4.04048E+02 -4.02025E+03 -7.05786E+03 -5.60668E+03 -5.24467E+03
 -6.08299E+03  2.49431E+02 -4.31267E+03  9.69278E+02 -4.69117E+03  1.42023E+03 -7.67333E+03 -1.25808E+03
 -9.91613E+03 -9.75589E+03  1.16994E+03 -7.82819E+03  6.17067E+03 -3.48407E+03  7.93876E+03 -6.53748E+03
  9.37057E+03  3.19138E+03  7.56918E+03  8.19428E+03 -2.41690E+03  9.20432E+03 -5.22712E+03  7.93140E+03
 -8.41945E+03  3.25535E+03 -3.56871E+03 -9.40292E+03 -2.70724E+02 -1.17580E+04  1.17948E+04 -2.20430E+03
  9.35997E+03  1.58705E+02  4.03491E+03  1.44750E+03  5.07527E+03  4.99454E+03  1.30427E+02  5.88301E+03
 -1.94230E+03  3.52441E+02  1.01228E+03  6.23225E+03  1.43536E+03  1.51340E+03  1.63440E+02  9.43143E+03
 -3.05394E+03  9.75267E+03 -6.89797E+03  1.11503E+04 -1.42145E+04  8.37496E+03 -1.39661E+04 -5.44979E+03
 -2.18608E+03 -1.11990E+04  1.40087E+03 -1.40363E+04  9.22985E+03 -1.03805E+04  7.56655E+03 -5.40170E+03
  7.64652E+03  6.11342E+03  3.92923E+03 -9.40688E+02 -7.58939E+03  5.76032E+03 -2.71304E+03 -8.80545E+02
  6.83585E+02 -7.22487E+03 -7.58880E+02 -3.26807E+03  6.06141E+03  1.82820E+03  8.48834E+03  2.37848E+03
  4.91777E+02  4.09210E+03 -4.37607E+02 -3.07533E+03 -7.37397E+02  1.61170E+03 -1.17532E+03  3.43566E+03
 -2.09281E+02 -8.16941E+02  7.61425E+03  1.38277E+02  7.31590E+03  5.41523E+03 -1.38692E+03  4.16449E+03
 -8.57949E+03 -6.35413E+03 -7.50450E+03  3.55298E+03 -4.21577E+03 -4.63375E+03 -5.94616E+03 -2.30496E+03
 -5.66433E+02 -6.02122E+03  1.09525E+02 -5.07520E+03  2.54119E+03 -2.05553E+03 -3.99039E+03  5.07364E+03
 -3.33711E+03  1.29971E+03 -1.75093E+03 -7.06431E+03 -1.58885E+03 -4.05515E+03 -4.14245E+03 -5.79338E+03
  3.15493E+03  8.08853E+02  6.50333E+02  1.01629E+03  5.06994E+03 -7.19986E+01  1.57274E+03  6.37857E+03
 -6.29079E+03 -3.74847E+03 -5.10905E+03  1.79710E+03  1.36388E+03 -9.52934E+03  6.22140E+03 -1.72486E+01
  6.04649E+03 -4.41286E+03  2.00537E+03  8.53967E+03  5.38634E+03  4.93597E+03 -4.24480E+03  1.28383E+04
 -7.62827E+03  3.24752E+03 -6.11796E+03  7.26591E+02 -2.30922E+03 -3.63972E+03 -2.04314E+03 -2.60878E+03
  5.43205E+03 -6.11275E+03  7.49946E+03 -2.64335E+01  1.61149E+03  1.43736E+02  4.18192E+02 -1.00140E+01
 -3.51032E+03 -3.65567E+03 -4.49757E+03 -5.02497E+03  4.01028E+03  1.04558E+03  1.00884E+03  7.62158E+03
 -3.28450E+03  9.72182E+03 -5.22304E+03  2.96277E+03 -6.72151E+03 -3.26457E+03 -4.87931E+03 -1.74967E+03
 -2.40272E+03 -4.51452E+03  7.88483E+02 -7.67667E+03  6.09718E+03 -1.05653E+04  1.31775E+04 -3.41285E+03
  9.34172E+03  9.82284E+02  2.93689E+03  5.11755E+02  9.89414E+02  3.94426E+03 -2.45799E+03  4.19827E+02
 -2.48907E+03  5.36508E+03 -3.74780E+03 -2.07379E+03  1.78606E+03 -2.82504E+03 -2.13433E+03 -1.95430E+03
  2.42790E+03  2.32333E+03 -3.26164E+03 -4.51176E+02 -2.55194E+03  2.35411E+03 -1.57035E+03  2.64112E+03
  6.17829E+03 -3.12804E+03  7.20856E+03  1.97950E+03 -1.66868E+03  6.61627E+03 -1.26433E+03  9.35380E+03
 -1.56042E+03  6.15158E+03 -1.04983E+04  5.78604E+03 -7.61002E+03  2.64637E+02 -2.11708E+03 -4.31636E+03
 -5.97372E+03 -5.96780E+03  4.66219E+03 -7.40290E+03  8.96723E+02 -3.33900E+03 -3.90202E+03  3.79826E+03
  5.92181E+02  7.15252E+03  2.61328E+03  4.36729E+03 -1.73399E+03 -9.31259E+02  8.47117E+03 -4.25675E+03
 -2.51765E+02 -5.71873E+03 -2.19912E+03 -3.50197E+03 -3.67798E+03  2.49768E+03  7.76679E+03  3.51195E+02
 -3.88547E+03  6.62318E+03 -9.93659E+02 -4.58657E+02 -3.01164E+03 -2.72380E+03 -2.65015E+02 -1.71170E+03
 -8.85498E+02 -7.45395E+03  4.08696E+03  2.19403E+02  7.91280E+03  1.22196E+03  1.67020E+03  3.67721E+03
  3.48145E+03  2.33342E+03  1.79063E+03 -8.72691E+02 -3.55157E+03  3.64123E+03 -1.87643E+03  3.84438E+02
 -5.84055E+03 -7.41490E+03 -2.15176E+02 -6.64020E+02  8.68268E+02  1.31400E+03  1.67354E+03 -4.04145E+03
 -4.59305E+03 -2.52070E+03 -3.24675E+03 -2.05859E+03 -3.02671E+03 -6.00040E+03  3.81770E+03  4.41994E+02
  5.67834E+03 -3.75341E+03 -4.18712E+02  4.09273E+03  3.79690E+03  4.62298E+03  1.36771E+03  1.62882E+03
