 $NMID ID='MM_0lb_SNR50_16hz_g55_81.RAW', FMTDAT='(8E13.5)'
 TRAMP=1., VOLUME=1. $END
  3.09495E+05  1.54892E+03  3.36597E+05  2.49126E+05  7.64830E+04  3.34347E+05 -1.33299E+05  2.48783E+05
 -1.92291E+05  8.37921E+04 -1.09510E+05 -3.07089E+04  1.73817E+02 -5.15746E+04  5.86560E+04 -2.43984E+02
  3.59906E+04  5.26197E+04 -2.01920E+04  7.58818E+04 -6.05181E+04  6.02474E+04 -8.18770E+04  3.39708E+04
 -8.03067E+04 -9.47195E+03 -5.93482E+04 -5.53607E+04 -1.40405E+04 -7.18457E+04  2.35509E+04 -4.47254E+04
  4.35488E+04  5.26815E+03  1.65520E+04  5.14113E+04 -3.44520E+04  4.61422E+04 -6.81771E+04 -1.01972E+03
 -5.24062E+04 -5.45559E+04 -8.31680E+03 -7.68603E+04  3.65784E+04 -5.45753E+04  4.71190E+04 -1.82612E+04
  4.03286E+04  1.28012E+04  3.19536E+04  2.99178E+04  1.71193E+04  3.29845E+04 -8.52087E+03  2.49444E+04
 -2.22171E+04  1.50265E+04 -1.87795E+04 -5.78201E+03  9.25086E+02 -8.21845E+03  2.22620E+04  1.43618E+04
  8.45168E+03  3.42000E+04 -3.12273E+04  3.66820E+04 -5.77472E+04  1.67292E+03 -5.18285E+04 -4.33173E+04
 -1.40322E+04 -6.79038E+04  4.02121E+04 -5.28433E+04  5.75419E+04 -6.46174E+02  3.51667E+04  3.34767E+04
 -1.53672E+03  3.35784E+04 -3.19215E+04  1.41179E+04 -3.46660E+04 -7.10972E+03 -1.53289E+04 -1.05762E+04
 -1.06341E+04 -1.65158E+04  7.42121E+03 -1.70027E+04  5.72805E+03 -1.93703E+04  1.61593E+04 -1.18807E+04
  1.23541E+04  2.84914E+03 -4.41461E+03  1.29763E+04 -1.91146E+04  1.96499E+03 -1.15272E+04 -3.71854E+04
  2.29085E+04 -4.31054E+04  4.80981E+04 -2.15429E+04  4.68643E+04  1.67665E+04  1.11953E+04  4.36325E+04
 -1.66271E+04  3.18822E+04 -2.56990E+04 -6.15387E+02 -1.03407E+04 -3.00694E+04  2.12783E+04 -3.15846E+04
  3.82769E+04 -1.08763E+04  3.66736E+04  2.26842E+04  1.78621E+04  4.86102E+04 -7.74026E+03  4.96492E+04
 -2.68527E+04  2.59935E+04 -4.40183E+04  9.11219E+03 -4.14769E+04 -1.76703E+04 -2.00782E+04 -3.53865E+04
  8.98389E+03 -3.75577E+04  3.23242E+04 -1.43007E+04  2.74671E+04  1.02008E+04 -5.43998E+02  1.79464E+04
 -1.56840E+04  2.14147E+03 -8.97484E+03 -1.15137E+04  8.97593E+03 -7.62560E+03  1.44824E+04  5.89231E+03
  1.84774E+04  2.37432E+04 -4.07590E+03  2.98405E+04 -2.11229E+04  9.70035E+03 -2.62463E+04 -1.13077E+04
 -2.23405E+04 -1.79962E+04 -4.93859E+03 -1.90420E+04  1.23423E+03 -2.14848E+04  1.21849E+04 -2.02539E+04
  2.16554E+04 -1.19255E+04  3.24005E+04  5.62789E+03  2.69895E+04  1.87070E+04  3.05703E+03  3.80224E+04
 -2.08914E+04  2.74197E+04 -2.64700E+04  1.05481E+04 -2.15477E+04 -8.76450E+03 -6.00673E+03 -9.71657E+03
  4.16049E+03 -2.17072E+03 -1.37223E+03  8.99782E+03 -1.48274E+04  3.75878E+03 -1.88498E+04 -8.98561E+03
 -6.93953E+03 -2.21248E+04  5.35864E+03 -1.81062E+04  1.72024E+04 -1.20925E+04  2.37622E+04 -1.09954E+03
  1.23178E+04  1.21754E+04  1.57926E+03  1.91370E+04 -1.57307E+04  1.10459E+04 -1.89077E+04 -1.16375E+03
 -1.15795E+04 -1.79997E+04 -5.58119E+03 -2.01586E+04  1.23869E+04 -1.93341E+04  1.49016E+04 -7.25083E+03
  1.62835E+04  3.03892E+03  1.44223E+04  5.51521E+03  9.46693E+03 -2.03855E+02  6.66600E+03 -4.46269E+03
  2.14206E+04  3.12922E+03  1.91326E+04  1.08916E+04  1.10509E+04  2.80367E+04 -3.36266E+03  3.12804E+04
 -1.96301E+04  2.51834E+04 -2.82286E+04  1.14793E+04 -3.18644E+04  2.90596E+03 -2.31293E+04 -1.65919E+04
 -1.02665E+04 -2.10856E+04  7.99628E+03 -2.12330E+04  2.68206E+04 -1.12749E+04  1.92571E+04  3.63641E+03
  5.31162E+03  1.23635E+04 -8.42801E+03  1.02194E+04 -2.13490E+04  5.45286E+03 -1.34422E+04 -7.12941E+03
  4.14120E+03 -1.32151E+04  5.95837E+03 -9.49704E+03  1.04667E+04 -2.02715E+03  5.44732E+02  3.08586E+03
 -5.67345E+03 -4.03257E+02 -4.77160E+03 -8.07217E+03 -1.30510E+03 -1.45932E+04  8.15660E+03 -8.41451E+03
  1.29054E+04  3.23964E+02  1.05508E+04  6.21084E+03  1.87367E+04  1.56843E+04  3.95149E+03  1.76516E+04
 -5.48550E+03  2.35568E+04 -1.34728E+04  1.40624E+04 -1.31558E+04  5.52271E+03 -1.27552E+04 -5.24607E+03
 -6.57182E+03 -4.47672E+03  2.33723E+02  9.50336E+02 -7.34219E+03  2.02723E+03 -1.18334E+02  3.23363E+03
 -1.12768E+04 -2.20243E+03 -7.58388E+03 -6.41169E+03 -8.10249E+03 -1.34380E+04  5.09271E+03 -1.07064E+04
  6.89674E+03 -2.18801E+03  4.66749E+03  6.35691E+03  1.60511E+03 -3.19979E+01 -7.62391E+03  2.21300E+03
 -6.26686E+03 -9.77390E+03 -3.17338E+03 -9.91570E+03  4.10285E+03 -1.29872E+04  1.28578E+04 -3.19243E+03
  1.89009E+04  7.91377E+03  1.60575E+04  1.15176E+04  4.31621E+03  1.66538E+04 -3.00290E+03  1.20544E+04
 -1.01293E+04  2.47364E+03 -5.33973E+03 -5.02991E+02  4.67340E+03 -2.64984E+03  6.03453E+03  9.37234E+02
  2.36563E+03  3.74296E+03  4.70165E+03  8.04205E+03 -8.93209E+03  7.50990E+03 -8.60141E+03  3.26857E+03
 -6.73997E+03 -4.77214E+03  4.35626E+02 -5.13010E+03  3.35970E+03 -1.76296E+03  5.98697E+03  6.03594E+02
 -2.49502E+03  4.08252E+03 -3.77755E+03  9.63981E+03 -8.15743E+03  1.44719E+03 -9.19554E+03 -8.12262E+03
 -8.26319E+03 -5.19014E+03 -4.24205E+02 -1.39119E+04  8.38393E+03 -7.67289E+03  1.05364E+04  2.81178E+03
  6.36174E+03  5.99560E+03 -5.57304E+02  1.07559E+04 -5.14428E+03  5.36852E+03 -8.97059E+03  2.76981E+00
 -6.47142E+03 -7.10203E+03 -1.83931E+03 -8.11381E+03  5.04669E+03 -6.49982E+03 -1.71527E+03 -4.02176E+03
  3.06351E+03 -2.74222E+02  5.32666E+03  5.44068E+03 -1.22626E+03  1.48805E+03  1.03461E+03 -3.90815E+03
  3.65640E+03 -3.67886E+03  5.77378E+03  1.81595E+03  7.42057E+03  7.60254E+03  7.99452E+03  1.18083E+04
 -4.26048E+03  1.56620E+04 -4.71363E+03  1.15824E+04 -1.28273E+04  2.22397E+03 -1.17013E+04 -1.02173E+03
 -3.27444E+03 -8.40979E+03 -3.91662E+03 -7.19187E+03  5.83449E+03 -4.61204E+03 -1.87134E+03 -4.27469E+03
  4.15463E+03 -3.55367E+03  4.18951E+03 -5.92844E+02  6.78566E+03 -4.02863E+03  1.93218E+03  1.49889E+03
  4.38170E+03  8.63608E+02  1.51080E+03  8.83289E+03 -3.53649E+03  3.34827E+03 -6.47076E+03  4.81915E+03
 -9.11746E+03 -4.01454E+03 -4.86276E+03 -5.20688E+03 -7.94030E+02 -9.36380E+03  3.51397E+03 -5.82456E+03
  7.30353E+03 -1.54318E+03  8.77985E+03  2.19797E+03  7.75941E+03  1.24805E+02  2.37999E+03  3.88242E+03
 -1.79795E+03  7.39639E+03 -3.31677E+03  5.32933E+03 -6.04917E+03 -7.12272E+01 -5.20467E+03 -2.28510E+03
  5.29304E+03  1.64914E+03  8.46564E+02  1.22446E+03 -6.98358E+03  1.42627E+03 -2.84727E+03 -1.51929E+03
 -5.84982E+03 -2.34733E+03  6.04019E+03 -7.74073E+03  2.93661E+03 -9.24966E+03  3.21625E+03 -1.87636E+03
  2.70511E+03  1.73013E+03  3.98983E+03  2.73920E+03  2.74965E+03  6.15280E+03 -1.14070E+03  1.11174E+03
 -6.10571E+03  2.14134E+02 -5.13176E+03 -2.47165E+03 -5.53320E+02 -1.85555E+03  2.20931E+03 -1.40102E+03
  4.30603E+03 -2.88646E+03  8.82069E+03  5.34224E+03  5.52398E+02  3.76705E+03  9.06920E+02  5.14971E+02
  3.68587E+03  3.93878E+03  5.55503E+02  3.34896E+03 -5.35452E+02  2.66728E+03 -1.71114E+01  4.75469E+03
 -1.38568E+03  2.27195E+03 -6.52411E+03  4.85833E+03 -9.71354E+03 -2.72331E+03 -8.29111E+03  3.90770E+03
 -9.27192E+02 -5.56879E+03  8.84059E+02 -9.99071E+03  2.17405E+02 -5.13626E+03  7.68493E+03  2.71953E+02
  2.42033E+03  5.65450E+03 -1.52314E+03  1.44607E+03  4.25284E+03  4.98912E+03 -1.87030E+03 -5.23083E+03
 -4.91648E+03 -8.79643E+03  3.21867E+03 -2.44279E+03  4.34549E+03 -2.35873E+03 -1.80076E+02 -2.72474E+02
  2.94447E+02 -3.44623E+02 -2.91616E+03  3.41313E+02 -5.48239E+03  9.22837E+02  4.83034E+03  1.02745E+03
 -6.60125E+02 -3.28985E+03  3.57421E+03  1.01878E+02  2.79962E+03  4.24872E+03 -1.43960E+03  6.72196E+03
 -3.82775E+02  7.19315E+03 -3.59740E+03  1.45406E+03 -3.50853E+03  2.48877E+03  3.33002E+03 -2.41841E+03
 -4.13259E+03 -1.39803E+03  4.88187E+03 -8.36456E+02  2.51879E+03 -6.84716E+02  4.44655E+03  2.23560E+03
  4.28645E+02  6.86308E+02 -4.14389E+03 -4.03736E+01 -2.93136E+03 -2.42050E+02  1.32205E+03 -2.88816E+03
  2.94006E+03  3.64748E+03  3.99195E+03  3.93382E+03 -1.55978E+03  1.15199E+03 -1.35034E+03  4.73778E+03
 -1.39349E+03  1.95690E+03 -1.93732E+03  2.15975E+03 -1.46577E+02  1.16050E+03  2.12011E+03  3.41265E+02
 -4.78623E+02 -3.91837E+03  6.29980E+03  1.91741E+03 -7.21351E+02  7.28152E+02 -9.12198E+02  2.60403E+03
 -3.68405E+03  3.94550E+03 -2.71948E+03 -2.71480E+03 -8.03191E+02 -4.76820E+02 -1.20145E+03 -5.48312E+03
  3.19906E+03  4.03564E+03  1.46722E+03  5.96280E+03 -1.76732E+03 -2.44053E+03 -2.75452E+02  5.01025E+03
 -9.31757E+02 -2.59638E+02 -2.26497E+03  1.66546E+03 -6.24767E+02  1.15434E+03 -3.42091E+03  8.42586E+01
  1.48833E+01  2.47312E+03  1.51338E+03  2.71972E+02 -1.56563E+03 -2.51410E+03 -5.42454E+02  1.02535E+03
  1.75217E+03 -5.48751E+03  2.07222E+03 -5.37812E+03 -1.45734E+03 -9.44714E+03  6.24183E+03 -4.87147E+03
  2.40227E+03 -5.84197E+03  5.99424E+03  2.84403E+03  3.73353E+03  4.33643E+03 -2.25686E+03  1.82712E+03
 -1.86048E+03 -1.27597E+03 -9.02415E+02  1.87876E+03  7.05959E+02  2.81416E+03 -4.20100E+02  1.72579E+03
 -8.99830E+02 -3.02644E+03 -3.92328E+02  8.66869E+02  1.63670E+03  4.22208E+02  1.81234E+03  1.46976E+03
  3.21935E+03  2.01450E+03  1.35119E+03  6.23896E+02  2.55380E+03  3.16160E+02  1.23611E+03  5.34222E+02
 -1.17291E+03 -1.85455E+02 -1.74319E+03  4.86269E+03 -5.22379E+03 -6.68051E+03  5.54722E+02 -2.50617E+03
 -1.82379E+02 -5.67970E+03 -1.82013E+03 -6.66305E+03  1.19778E+03 -3.11699E+03  4.27730E+03 -3.24764E+01
  1.49248E+03 -3.25695E+03 -6.94278E+03  7.36321E+03  1.92669E+03 -1.25316E+03 -2.18140E+02 -3.71176E+03
 -1.71549E+03  5.21666E+03  1.74647E+03 -1.18381E+03  4.18009E+03  3.51433E+03  1.41902E+03  3.45739E+03
 -1.72831E+03 -2.00560E+03 -3.63324E+03  3.40221E+03 -5.94592E+02  2.10669E+02  4.08363E+03 -8.75449E+03
 -1.06071E+03 -5.98912E+03 -5.05783E+02 -4.99669E+02 -1.49048E+03 -1.69167E+03 -6.32060E+02 -1.71781E+03
 -4.47950E+03  3.42048E+03 -1.03964E+03 -7.31567E+02 -5.99013E+02  3.75572E+03  1.40006E+02 -8.41421E+02
  2.66171E+02  1.19799E+03 -1.38730E+03 -2.10186E+03 -4.20143E+03  5.63240E+02 -3.28422E+02  9.72248E+02
  1.12889E+03  1.57823E+02 -2.89646E+03 -2.36972E+02 -1.61074E+02 -2.22534E+03  1.95211E+03 -1.51917E+03
 -2.32488E+03  3.12092E+03 -6.03339E+02  1.89819E+03  3.92991E+03  2.06224E+03 -2.63016E+03  1.82198E+03
