 $NMID ID='MM_0lb_SNR50_17hz_g45_67.RAW', FMTDAT='(8E13.5)'
 TRAMP=1., VOLUME=1. $END
  3.07827E+05  2.02301E+03  3.43464E+05  2.50140E+05  8.76401E+04  3.39279E+05 -1.32715E+05  2.46209E+05
 -1.92560E+05  8.37435E+04 -1.12225E+05 -3.33582E+04  9.61134E+02 -5.52303E+04  5.36379E+04 -6.33998E+02
  3.43860E+04  5.77690E+04 -1.36667E+04  7.27368E+04 -6.10162E+04  6.16755E+04 -8.61845E+04  2.89571E+04
 -8.32958E+04 -1.27728E+04 -5.91099E+04 -4.85481E+04 -9.63765E+03 -6.43171E+04  2.49767E+04 -4.21446E+04
  3.95397E+04  1.02552E+03  1.60363E+04  4.51844E+04 -3.28754E+04  4.15074E+04 -6.48493E+04 -4.46374E+03
 -5.19884E+04 -5.76650E+04 -8.55284E+03 -7.43607E+04  3.53020E+04 -5.36746E+04  4.88876E+04 -1.46107E+04
  4.25490E+04  1.53635E+04  3.25315E+04  1.73582E+04  1.50164E+04  2.46275E+04 -7.04441E+03  2.42566E+04
 -2.07610E+04  1.43453E+04 -2.13219E+04 -4.23245E+03  6.50065E+02 -8.34427E+03  2.22206E+04  8.39181E+03
  1.10038E+04  3.14969E+04 -3.10268E+04  3.13912E+04 -6.28980E+04 -7.93514E+01 -5.25811E+04 -4.38504E+04
 -1.46905E+04 -6.51171E+04  3.44558E+04 -4.32588E+04  5.39082E+04 -5.75311E+03  3.00099E+04  2.92398E+04
 -4.27559E+03  3.72530E+04 -2.73848E+04  1.98975E+04 -2.66081E+04 -9.40007E+03 -1.10865E+04 -1.08452E+04
 -1.06057E+04 -1.33099E+04  2.31065E+02 -1.78219E+04  8.93067E+03 -2.41647E+04  1.33913E+04 -1.24369E+04
  1.12824E+04  1.87569E+03 -3.58116E+03  1.25577E+04 -1.51722E+04 -6.33081E+02 -2.73227E+03 -3.25257E+04
  2.32037E+04 -3.94560E+04  4.48821E+04 -1.79264E+04  4.52804E+04  1.53259E+04  1.83578E+04  4.47667E+04
 -1.33297E+04  3.25653E+04 -2.41809E+04  3.69901E+03 -5.92781E+03 -2.56229E+04  2.29255E+04 -3.29532E+04
  3.62176E+04 -1.03488E+04  3.28714E+04  2.46817E+04  1.43770E+04  4.32572E+04 -7.95311E+03  4.38165E+04
 -2.54888E+04  2.75050E+04 -4.02158E+04  3.69673E+03 -3.83057E+04 -1.54637E+04 -1.95685E+04 -3.35158E+04
  1.09408E+04 -3.35039E+04  2.95394E+04 -1.08079E+04  2.72586E+04  9.17540E+03  3.75440E+03  1.78171E+04
 -1.39691E+04  3.80804E+03 -8.90709E+03 -4.67827E+03  7.84041E+03 -1.21028E+04  1.99630E+04  5.64677E+03
  1.67721E+04  2.03208E+04 -3.96922E+03  2.25524E+04 -2.15929E+04  6.39850E+03 -2.93205E+04 -2.91246E+03
 -1.96325E+04 -1.60767E+04 -3.74103E+03 -1.62942E+04 -1.60165E+03 -1.82172E+04  1.10020E+04 -1.80297E+04
  2.05759E+04 -1.10745E+04  2.74072E+04  3.27472E+02  2.30238E+04  1.53514E+04  7.31711E+03  3.63119E+04
 -1.64260E+04  3.42342E+04 -2.72495E+04  1.22206E+04 -1.91270E+04 -1.51526E+04 -3.94325E+03 -9.44036E+03
  3.71939E+03  2.53231E+03 -2.84245E+03  5.06000E+03 -1.35142E+04  6.65052E+03 -1.53617E+04 -3.61268E+03
 -8.36855E+03 -1.76032E+04  7.56458E+03 -1.98859E+04  1.38006E+04 -1.01977E+04  1.58975E+04 -3.75076E+03
  1.00953E+04  1.36822E+04 -5.54707E+03  1.21528E+04 -1.31472E+04  8.03906E+03 -1.29304E+04 -5.13116E+03
 -1.23658E+04 -1.31628E+04 -1.34804E+03 -1.94583E+04  9.36357E+03 -1.72128E+04  2.04753E+04 -9.01414E+03
  1.51940E+04 -1.89490E+03  9.31802E+03  4.77804E+03  6.45673E+03 -3.17685E+02  4.68797E+03 -3.61177E+03
  1.57601E+04 -2.47740E+03  1.97158E+04  1.27667E+04  9.47917E+03  2.75637E+04 -6.02448E+03  2.62662E+04
 -1.50826E+04  2.02679E+04 -2.71051E+04  1.03120E+04 -2.53026E+04 -4.64063E+03 -2.09702E+04 -1.59493E+04
 -8.93301E+03 -2.26261E+04  1.37207E+04 -1.90252E+04  1.32779E+04 -9.59185E+03  1.54011E+04  7.92157E+03
  7.21036E+03  1.30287E+04 -5.68722E+03  9.69143E+03 -9.02672E+03  4.94794E+03 -9.97463E+03 -5.73516E+03
 -8.13303E+02 -1.35761E+04  3.85013E+03 -8.67248E+03  3.27026E+03  1.88730E+02  3.20335E+03  6.80555E+03
 -1.67718E+03  1.25270E+03 -1.34821E+03 -6.66905E+03  1.08827E+03 -1.07823E+04  1.39688E+04 -9.68316E+03
  1.11344E+04 -3.35926E+03  1.28813E+04  5.61668E+03  1.79549E+04  1.20881E+04  5.37114E+03  1.81529E+04
 -5.47284E+02  1.76995E+04 -1.31620E+04  7.38717E+03 -1.04616E+04  2.76588E+03 -7.01171E+03 -4.09660E+03
 -1.44021E+03  4.39861E+02 -7.71263E+02  3.69291E+03 -6.32723E+03  3.25754E+03 -3.91447E+03  3.35420E+02
 -1.03772E+04  6.96456E+02 -1.14260E+04 -9.10383E+03 -3.79628E+03 -1.00916E+04  1.52332E+03 -7.46889E+03
  1.04928E+04 -1.94823E+03  3.41356E+03  3.43064E+03  3.05443E+03  5.21594E+03 -5.29249E+03  3.76078E+02
 -5.13438E+03 -4.20632E+03 -6.29542E+02 -4.07700E+03  5.80630E+03 -8.42929E+03  1.20796E+04 -3.78047E+03
  9.12767E+03 -3.81368E+03  9.00895E+03  8.52404E+03  7.08254E+03  1.06871E+04 -3.45619E+03  8.65922E+03
 -5.48861E+03  3.38065E+03 -2.07091E+03 -2.58816E+03 -2.27046E+03 -1.30951E+03  4.63753E+03  7.33220E+02
  9.75580E+03  6.54109E+03  3.15558E+03  6.52129E+03 -7.32903E+03  6.95379E+03 -8.56982E+03 -4.54262E+03
 -8.00603E+03 -6.73192E+03 -1.90331E+03 -7.95095E+03  3.05852E+03 -6.20438E+03  1.12313E+04  2.45576E+03
 -1.69880E+02  7.98614E+03  2.05525E+03  3.54769E+03 -8.72650E+03  6.57829E+03 -8.16169E+03 -1.98825E+03
 -2.49268E+03 -4.32082E+03  2.32971E+02 -5.08896E+03  4.10595E+03 -7.11821E+03  1.07853E+04 -2.10326E+03
  4.75789E+03  4.32329E+03 -1.16013E+03  7.66560E+03 -5.30453E+03  7.67968E+03 -6.61960E+03 -5.53336E+03
 -7.21421E+03 -6.64879E+03  8.38469E+02 -1.07004E+04  4.64286E+03 -1.62764E+03  6.58176E+03 -7.48165E+03
  4.37360E+02  7.48407E+02 -6.69670E+02 -2.92713E+02 -5.22342E+03 -4.71122E+03  8.26296E+02 -9.18501E+02
  6.64383E+03 -1.46014E+03  4.09581E+03 -1.51207E+03  7.35273E+03  1.25886E+03  1.16152E+04  8.13384E+03
 -6.93693E+03  9.12538E+03 -8.60842E+03  8.27425E+03 -1.45275E+04  1.46085E+03 -5.98645E+03 -4.13895E+03
 -3.08492E+03 -8.17220E+03  8.82682E+02 -5.22170E+03  6.29254E+03 -5.04154E+03  4.33820E+03  2.52134E+02
 -1.17959E+02 -8.43583E+03 -1.60831E+03 -4.86029E+03  3.51254E+03 -2.03127E+03  1.99422E+03  4.51881E+03
  5.26242E+03  3.87738E+03  4.06562E+03  5.15954E+03 -1.05370E+03  2.19657E+03 -5.54559E+03  3.34558E+03
 -8.37785E+03 -2.81075E+02 -3.52513E+03  8.01265E+02  2.12861E+03 -5.25520E+03  4.72073E+03 -1.11175E+04
  5.11950E+03 -4.25362E+03  4.99458E+03 -7.16018E+02  4.67103E+03  5.51479E+03 -2.83817E+03  7.91966E+03
  2.58234E+03  2.21666E+03 -7.48236E+03  2.06402E+03 -2.78727E+03 -3.93090E+03  2.02753E+03  1.47267E+03
  1.87913E+03  1.07809E+02 -2.84394E+03  4.78348E+03 -2.10135E+03  1.25703E+03 -6.08213E+03 -1.15172E+03
 -6.59794E+03 -8.68364E+03  1.95710E+03 -4.43194E+03  3.11310E+03 -3.58426E+03  3.42798E+03 -4.20486E+03
  7.74862E+03  5.10309E+03 -9.75471E+02  2.66846E+03 -1.62346E+03  7.74067E+03 -3.66775E+03 -1.29846E+03
 -3.75868E+03  1.39380E+02  2.01852E+03 -3.33628E+03  2.84147E+02 -7.80804E+03  5.74366E+03 -2.21417E+03
  3.56133E+03  6.98908E+02  3.65058E+03  2.63258E+03  2.74520E+03  3.15032E+03  8.01578E+02 -8.75022E+02
  1.66731E+03 -1.40252E+03  2.78034E+03  1.23049E+03  3.52635E+03  1.67036E+03  3.00311E+03  8.54042E+03
 -2.19658E+03  4.65102E+03 -1.69154E+03  8.56880E+03  4.40014E+02  5.54684E+03 -5.23424E+03  1.40990E+03
 -1.23819E+03 -2.35594E+03  3.83889E+03 -4.56740E+03  6.72152E+03 -6.61796E+03 -4.16011E+02 -5.60815E+03
  7.91282E+03  1.27917E+03  3.21495E+02  3.29437E+03  1.62735E+03  1.16986E+03 -8.48401E+02 -4.99604E+03
 -5.35737E+02 -1.33403E+03  8.84369E+02 -3.63236E+03  4.22748E+03 -1.48404E+03  3.51509E+03 -1.74880E+03
  2.10488E+03 -2.67543E+03 -3.09578E+03  4.33559E+03 -7.45569E+01  3.55917E+02  2.39689E+02 -5.17024E+02
  2.58385E+03 -2.34379E+03  5.28306E+02 -2.37025E+03 -1.75847E+03  1.49003E+03  4.29461E+02  1.02331E+03
 -3.87832E+03  1.98655E+03 -1.28834E+03 -1.77703E+03 -1.65343E+03  2.36657E+03 -8.81356E+02 -2.89095E+02
  1.82111E+03  1.36355E+02  2.16424E+03 -3.14749E+03  2.40469E+03 -2.23910E+03 -2.82637E+03  1.86629E+03
 -2.15945E+03  1.80006E+03 -3.12548E+03 -3.41595E+03 -1.67325E+03 -5.18622E+03  1.51789E+03 -2.65704E+03
  8.29053E+02  2.99424E+03 -2.14607E+03 -2.38736E+03  1.60361E+03  3.02822E+03  3.81732E+03  4.75430E+03
 -4.43611E+03  1.07411E+03 -8.67589E+02  4.58665E+02 -7.22555E+02 -1.62441E+03  1.35806E+03 -6.11400E+03
  1.42159E+03  4.57120E+03  2.96540E+03 -1.27937E+02  9.99606E+01 -3.66497E+02 -1.39491E+03 -3.36992E+02
 -2.35412E+03  3.46260E+03  6.38587E+02  2.47393E+03  3.39774E+03 -3.89482E+03  2.21569E+03 -5.77435E+01
  2.31134E+03 -5.59768E+01 -2.36689E+02 -1.90443E+03  2.61858E+03  2.32373E+03  6.84930E+02 -1.50895E+03
  1.01598E+03 -6.16774E+02  2.21855E+03 -6.53460E+01  4.58666E+02  3.31203E+03 -1.62588E+03  6.38584E+03
  3.68275E+03 -1.70010E+02 -2.93749E+03 -1.25603E+03 -1.80391E+03  2.90172E+03 -1.82809E+03 -2.06194E+03
 -3.21724E+03 -4.64915E+03  1.47831E+03 -2.48004E+03  1.23724E+03 -3.48353E+03  2.08828E+03 -1.27301E+03
  4.04700E+03 -9.31686E+02  1.07207E+03  2.77187E+03 -4.67279E+03 -1.79527E+03 -2.37488E+03  4.10887E+03
 -2.36483E+03  1.21743E+03  1.08528E+03 -2.95419E+03  5.06579E+03  5.07235E+03  1.90661E+03  3.96587E+02
 -3.92606E+03 -6.68587E+03 -5.54660E+02 -2.37276E+03  1.25039E+03  1.71812E+03 -2.30014E+03  8.82117E+02
  2.12894E+02 -3.03439E+03 -3.61430E+02 -1.51494E+03 -2.86072E+03  1.12791E+02 -1.74258E+03  2.93224E+03
 -4.18044E+03  5.03223E+03 -5.97360E+02 -2.46780E+02 -8.67939E+02  1.99048E+03 -2.68606E+03  1.75406E+03
 -3.35938E+03 -2.23409E+03 -3.00847E+02 -2.36883E+03  7.83383E+02  1.66580E+03  3.60206E+02 -9.84799E+02
  1.94127E+03  1.33733E+02 -1.05716E+03 -8.34041E+02  9.69509E+02  2.84305E+03  7.73146E+02 -2.80262E+03
 -1.57310E+03  1.41647E+03 -8.28455E+02 -2.89002E+03 -4.36864E+02  1.11791E+03 -5.10687E+02  2.16423E+02
 -9.71539E+02 -1.92885E+03  1.79770E+03  1.08836E+03 -1.81050E+02  2.21946E+03 -1.49324E+03  1.33692E+03
 -1.09811E+03 -2.24791E+03 -8.75513E+02  1.67865E+02  4.97976E+03  2.37631E+03  2.34723E+01 -1.30974E+03
 -2.66226E+03  1.08653E+03 -1.66220E+03  2.14387E+03  2.04218E+02  4.52576E+03 -3.04164E+03 -2.41425E+03
 -6.85295E+02 -2.88961E+02  1.09352E+03  3.86392E+03 -8.17938E+02 -1.62881E+03 -3.33734E+02 -4.17236E+03
 -6.27006E+03  1.24778E+03  1.84341E+02 -4.85221E+03 -3.52677E+03 -1.70127E+03  1.80121E+03  2.31066E+03
  3.29888E+03  1.17436E+03 -2.87499E+03 -1.07396E+02 -2.08919E+01  1.01964E+03  1.01717E+03 -2.22566E+03
