 $NMID ID='MM_0lb_SNR50_14hz_g50_32.RAW', FMTDAT='(8E13.5)'
 TRAMP=1., VOLUME=1. $END
  3.12208E+05  4.70733E+03  3.35349E+05  2.51217E+05  8.46017E+04  3.37565E+05 -1.33921E+05  2.52857E+05
 -1.85128E+05  7.98460E+04 -1.11625E+05 -2.97046E+04 -2.09407E+03 -5.29493E+04  5.26405E+04 -3.81362E+03
  3.96211E+04  5.51180E+04 -1.86202E+04  7.53856E+04 -6.51122E+04  6.25234E+04 -8.17597E+04  3.53388E+04
 -8.21417E+04 -1.14546E+04 -5.69235E+04 -5.13537E+04 -1.18946E+04 -6.49967E+04  2.47624E+04 -4.31354E+04
  3.89998E+04  1.92431E+03  1.55714E+04  4.73797E+04 -3.25852E+04  4.72248E+04 -6.83597E+04 -1.26957E+03
 -5.51545E+04 -5.35383E+04 -8.96609E+03 -7.54229E+04  2.84692E+04 -5.72355E+04  4.58649E+04 -1.37963E+04
  4.63918E+04  1.22428E+04  3.40505E+04  2.23414E+04  1.37789E+04  3.06338E+04 -1.47696E+03  2.87768E+04
 -1.91336E+04  1.29406E+04 -1.99530E+04 -6.96610E+03  5.09869E+03 -5.14315E+03  2.43483E+04  1.34966E+04
  3.42273E+03  3.73762E+04 -2.90088E+04  3.63350E+04 -6.29838E+04  5.59458E+03 -5.72604E+04 -3.98813E+04
 -1.30012E+04 -6.55444E+04  3.80156E+04 -4.51683E+04  5.78039E+04 -4.92506E+03  3.26696E+04  3.34329E+04
 -7.00529E+03  3.70396E+04 -3.26911E+04  1.33886E+04 -3.34643E+04 -4.55166E+03 -2.27494E+04 -1.33118E+04
 -1.07896E+04 -1.65506E+04 -1.61179E+02 -1.84949E+04  1.01786E+04 -2.24378E+04  1.58587E+04 -1.51883E+04
  5.99952E+03  5.33701E+03 -1.04504E+04  1.22081E+04 -1.98599E+04 -1.88610E+03 -9.98711E+03 -2.60438E+04
  2.32854E+04 -4.41065E+04  4.93968E+04 -1.96988E+04  4.28030E+04  2.25722E+04  1.58965E+04  4.60982E+04
 -1.54768E+04  3.52261E+04 -2.37749E+04  5.16031E+03 -1.19018E+04 -3.06312E+04  2.29832E+04 -3.24716E+04
  3.92581E+04 -1.01714E+04  3.51908E+04  2.19615E+04  1.52396E+04  4.47073E+04 -9.67430E+03  5.31135E+04
 -3.34037E+04  3.69395E+04 -3.90621E+04  6.75864E+03 -4.49645E+04 -1.68516E+04 -2.43107E+04 -4.06688E+04
  5.51642E+03 -4.23352E+04  3.38033E+04 -1.81552E+04  2.83548E+04  7.19379E+03  1.70565E+03  1.73902E+04
 -1.93283E+04  5.97206E+03 -9.70936E+03 -9.28931E+03  3.79059E+03 -8.10936E+03  1.58274E+04  6.06949E+03
  1.48971E+04  2.30533E+04 -8.36968E+03  2.48899E+04 -2.35947E+04  1.12754E+04 -2.25752E+04 -4.06814E+03
 -2.64414E+04 -1.74105E+04 -8.99548E+03 -2.13300E+04  6.84736E+03 -2.03468E+04  1.57603E+04 -2.00933E+04
  2.48593E+04 -8.38347E+03  3.08144E+04  5.39418E+03  2.38827E+04  1.91974E+04  7.71217E+03  3.74502E+04
 -1.68620E+04  3.11562E+04 -2.68582E+04  1.38639E+04 -1.96864E+04 -1.49319E+04 -4.15565E+03 -1.23635E+04
  4.39856E+03 -4.56137E+03 -1.05582E+04  1.10459E+04 -1.79646E+04  1.69318E+02 -1.36078E+04 -1.40983E+04
 -4.89198E+03 -2.13195E+04  4.17708E+03 -2.44411E+04  1.66303E+04 -1.28144E+04  1.93401E+04  3.05809E+03
  1.11300E+04  1.53929E+04 -4.93643E+03  1.91882E+04 -1.38922E+04  1.41912E+04 -2.25366E+04 -7.30445E+03
 -2.03871E+04 -1.42407E+04  2.74388E+02 -2.41393E+04  7.68681E+03 -2.21520E+04  1.84387E+04 -1.10944E+04
  1.84575E+04  1.18902E+03  1.29796E+04  1.11706E+03  5.18211E+03  1.90291E+03  1.10962E+04 -5.34544E+03
  2.05174E+04  3.44519E+03  2.29497E+04  1.65221E+04  1.25190E+04  3.03110E+04 -1.99874E+03  3.65040E+04
 -2.27244E+04  2.94042E+04 -3.10938E+04  1.46859E+04 -3.56371E+04 -5.28936E+03 -3.09547E+04 -2.06403E+04
 -1.23395E+04 -2.60481E+04  1.02202E+04 -2.20414E+04  1.85438E+04 -9.99689E+03  1.68117E+04  2.51321E+03
  1.01018E+04  1.60618E+04 -9.73044E+03  1.40633E+04 -2.02780E+04  7.90398E+03 -1.73448E+04 -6.56103E+03
 -5.30208E+03 -1.26112E+04  6.79548E+03 -1.04079E+04  9.17962E+03 -4.79161E+03  5.25910E+03  9.80937E+03
 -4.17898E+03  3.05835E+03 -6.31899E+03 -7.87681E+03 -4.09230E+03 -1.02720E+04  1.22849E+04 -1.38206E+04
  1.68406E+04 -5.89298E+03  1.80313E+04  1.19116E+03  1.67303E+04  1.53215E+04  6.42454E+03  2.18809E+04
 -3.52704E+03  2.28049E+04 -1.44159E+04  1.76599E+04 -9.63945E+03  2.14152E+03 -1.43470E+04 -1.95876E+02
 -6.79081E+03 -7.80404E+03  1.97424E+03 -6.54435E+02 -4.21156E+03  3.41568E+03 -1.47832E+03  7.23331E+03
 -1.04360E+04 -4.54357E+03 -1.20165E+04 -5.61271E+03 -4.49039E+03 -1.61556E+04  6.12383E+03 -1.68570E+04
  1.19673E+04 -9.18789E+03  8.99651E+03  6.55799E+03  9.27152E+02  6.59541E+03 -6.50369E+03 -2.30683E+03
 -3.34017E+03 -7.02268E+02 -1.55788E+03 -1.16708E+04  8.18531E+03 -1.46852E+04  1.56093E+04 -6.82844E+03
  1.14401E+04  7.66606E+02  7.47644E+03  7.62206E+03 -3.10316E+03  1.48489E+04 -4.59229E+03  1.03683E+04
 -8.18266E+03 -1.61655E+03 -1.19424E+03  1.99866E+03  1.65665E+03 -7.58455E+03  3.95778E+03  1.80357E+03
  4.23196E+03  9.98833E+03 -5.42308E+02  5.79517E+03 -5.02335E+03  1.02155E+04 -1.33198E+04  1.77581E+03
 -8.54790E+03 -5.64135E+03 -1.95613E+03 -4.83057E+03  8.20568E+03 -3.99640E+03  8.32891E+03  5.67296E+03
  1.15072E+03  8.24887E+03 -8.29271E+03  9.15677E+03 -7.26202E+03  7.95785E+03 -9.40409E+03  1.94606E+02
 -4.99360E+02 -8.50520E+03 -1.34354E+03 -1.16541E+04  1.56315E+04 -6.06444E+03  6.76470E+03  7.15803E+03
  1.34024E+04  7.89920E+03  1.17671E+03  7.48297E+03 -8.15656E+03  1.27365E+04 -4.61510E+03 -5.31184E+03
 -2.44748E+03 -6.83642E+03  8.73355E+02 -9.26688E+03  2.95974E+03 -2.10665E+03  5.36367E+03 -4.28326E+03
  7.18549E+03  1.18684E+03 -9.61737E+02  3.98910E+03  9.11792E+02 -2.97383E+03  2.11294E+03 -7.12729E+03
  7.21674E+03 -3.99273E+03  7.16586E+03  2.90207E+03  5.32361E+03  2.63049E+03  9.75801E+03  1.40337E+04
 -2.71630E+03  1.51931E+04 -1.27541E+04  8.48220E+03 -1.36846E+04 -8.09715E+01 -1.61291E+04 -6.71496E+03
 -7.79059E+03 -8.79309E+03  2.24623E+03 -6.10160E+03  7.18028E+02 -3.88122E+03  5.89456E+03 -3.24322E+03
  6.34974E+02 -3.13055E+03 -7.46159E+02 -4.82123E+03  7.56648E+03 -1.89184E+03  1.06043E+04  4.61310E+02
  1.00656E+03  4.90735E+03  1.57411E+03  8.78301E+03  2.65623E+03  6.56181E+03 -6.08085E+03  3.67366E+03
 -1.46202E+04 -4.92601E+03 -5.51564E+03 -1.91925E+03  3.55607E+02 -1.24141E+04  6.14545E+03 -9.53427E+03
  1.25290E+04 -8.52841E+03  1.29872E+04 -1.02490E+03  6.27099E+03  6.32160E+03  3.46991E+03  5.88215E+03
 -1.35011E+03  8.14669E+03 -6.49287E+03  9.04129E+03 -6.00115E+03 -2.92623E+03  3.89444E+03 -5.01905E+02
 -6.52009E+03  3.24608E+03  2.04393E+03  2.01192E+02 -3.55408E+03  4.21891E+03 -6.77214E+03 -9.22507E+02
 -2.86009E+03 -2.67631E+03 -3.97024E+03 -5.94962E+03  5.63338E+03 -6.33808E+03  6.96856E+03 -6.49887E+03
  1.05554E+04  7.22998E+03  4.57025E+03  6.29534E+03 -4.29734E+03  6.95408E+03 -2.95304E+03  2.95614E+03
 -5.06632E+03  8.00946E+01 -5.22743E+03 -4.47419E+03 -1.40002E+03 -4.70753E+03  2.64213E+03 -6.44749E+03
  6.73802E+03  1.62186E+03  4.49065E+03  2.75818E+03 -2.31084E+03  1.30742E+03  5.65006E+03 -7.47844E+02
  3.35075E+03 -5.99046E+03  3.06851E+03  2.98070E+03  3.65249E+03  2.81769E+03  8.27965E+03  5.18262E+03
 -4.09013E+03  4.99851E+03 -5.64385E+03  6.45031E+03 -6.73198E+03  5.79169E+03 -8.87969E+03 -3.35214E+03
 -7.04284E+03 -5.21323E+03 -4.83282E+03 -1.10221E+03  8.26207E+03 -5.95432E+03  4.62432E+03  3.27263E+03
  5.51998E+03  2.69667E+03  2.25823E+03  1.38765E+03 -6.15568E+03  1.92246E+03 -1.63525E+03 -4.72494E+03
 -5.51633E+03 -2.36755E+03 -2.01553E+03 -2.95988E+03  2.67789E+03 -8.72694E+03  4.12314E+03  3.35780E+03
  5.11650E+03  1.95843E+03  2.34908E+03 -4.90552E+02 -1.09885E+03  3.19210E+03  2.02237E+03  1.70005E+03
  1.04660E+02  4.03542E+03  1.85668E+03 -2.11534E+03  2.51406E+03  3.74381E+03 -6.06060E+02  1.14387E+04
 -7.36583E+03  4.67308E+03 -6.58653E+03 -3.43721E+03 -1.75056E+03 -1.80743E+03 -5.17039E+03 -8.84931E+03
  4.92744E+02 -2.76755E+03  1.82636E+03 -1.85753E+03 -1.46674E+03 -1.75425E+03 -5.78734E+02  3.57231E+03
 -5.51120E+03 -6.14003E+02 -2.48103E+03  2.25471E+03 -5.27578E+03 -3.52524E+03  3.49202E+03 -8.25882E+03
 -2.44256E+03  6.71577E+02 -1.05481E+03  4.83612E+03  2.12918E+03 -3.28915E+03 -1.45231E+03  2.53060E+03
  1.84012E+03  4.83618E+02 -4.39761E+03 -1.09164E+03 -3.00465E+03 -3.42009E+03  3.41870E+03  1.56089E+03
  1.00865E+03 -1.57416E+03  6.78003E+03  6.66190E+03  2.62265E+03  7.24737E+03 -3.92430E+03  5.13490E+03
 -4.46429E+03 -8.98816E+02 -1.19997E+03  1.71965E+03  1.17052E+03 -2.84947E+03 -9.10567E+02 -1.82885E+02
  4.16968E+03  3.35056E+03  3.19477E+03  4.14387E+03  3.19105E+03 -3.77541E+01 -9.02877E+02  9.53194E+01
 -4.52019E+03  9.56535E+02  5.87661E+03  1.97998E+02 -8.24149E+02 -1.63706E+03 -1.01677E+02 -5.51893E+03
  3.52504E+03  1.84479E+02 -2.65516E+03  3.88781E+02 -5.15793E+03 -8.88207E+02 -5.37381E+03 -5.07464E+03
  1.05394E+03 -2.37259E+03 -3.20867E+02 -4.65994E+03  7.19225E+03 -7.36214E+03  8.17710E+03  1.18352E+03
  4.87880E+03 -1.84007E+02  2.18834E+02  4.65283E+03  1.84002E+03  4.78519E+03 -6.32825E+03  3.46383E+03
 -1.67190E+03 -2.86196E+00 -4.15063E+03 -1.15613E+03  4.50750E+02 -3.16247E+03 -4.36130E+03  1.83605E+03
 -5.63944E+03 -1.52097E+03 -1.13710E+03  1.12043E+03 -5.64204E+03  4.17273E+03 -3.99524E+03 -3.77309E+03
 -1.22915E+03 -4.31483E+02  9.37407E+02 -1.59639E+02  2.59809E+03  3.63453E+03 -1.21624E+03  4.13180E+03
 -5.37702E+03  1.31061E+03 -6.07955E+03  6.19628E+03 -7.29176E+03  1.99510E+03 -1.23261E+03 -2.88437E+03
  9.38127E+02 -6.12264E+03  3.43555E+03 -2.03797E+03 -2.78830E+03 -3.39754E+03  1.25270E+03  3.81745E+03
  1.19130E+03  1.23377E+03  2.02139E+03  3.19619E+03 -5.56471E+02  5.26378E+02  2.29381E+03 -1.09257E+03
  5.01540E+03 -9.25426E+02 -2.62374E+03  1.10681E+03  6.61860E+03  4.06837E+03  2.47389E+03  7.10254E+03
  1.31941E+03  2.23127E+03 -5.63074E+03 -1.08459E+03 -2.30133E+03 -5.16460E+03  3.87138E+03  1.55167E+03
  7.88039E+02  5.45346E+02  5.10769E+03 -2.41975E+03  5.52426E+03 -1.01499E+03  1.22688E+03  6.50126E+03
  5.02062E+03 -3.50830E+03 -3.87504E+03  5.64697E+03  6.31734E+02  2.51608E+03 -2.95054E+03  9.15260E+02
  4.51132E+02 -9.02571E+02 -1.64364E+03  2.85748E+03 -2.76480E+03 -1.62277E+03 -1.74871E+03 -4.50174E+03
 -5.63321E+03  2.38978E+03 -5.62501E+02  1.01403E+02  2.61948E+03 -3.55471E+03  4.90110E+03 -8.65493E+02
  3.37409E+03 -2.86530E+02 -7.40446E+02  6.71493E+02 -1.84028E+03  2.55354E+03 -4.27873E+02 -1.31916E+03
