 $NMID ID='MM_0lb_SNR50_17hz_g40_53.RAW', FMTDAT='(8E13.5)'
 TRAMP=1., VOLUME=1. $END
  3.09662E+05 -9.53878E+02  3.35277E+05  2.53727E+05  8.50442E+04  3.39363E+05 -1.30926E+05  2.53632E+05
 -1.93105E+05  8.02219E+04 -1.09595E+05 -3.41454E+04  3.93538E+03 -5.76949E+04  5.34018E+04 -8.41079E+01
  3.30290E+04  5.33957E+04 -1.58697E+04  7.55965E+04 -6.64685E+04  6.38226E+04 -8.32997E+04  3.27127E+04
 -8.11869E+04 -1.22332E+04 -5.54988E+04 -5.22432E+04 -1.66015E+04 -6.58693E+04  2.40628E+04 -4.13265E+04
  3.86625E+04 -6.39711E+02  1.55877E+04  4.60928E+04 -3.46471E+04  4.57229E+04 -6.33410E+04  4.65612E+02
 -5.16642E+04 -5.23511E+04 -5.84483E+03 -7.51185E+04  3.32522E+04 -5.50803E+04  4.59679E+04 -1.68430E+04
  4.19776E+04  1.29293E+04  2.83604E+04  2.38109E+04  1.67434E+04  2.80003E+04 -5.73241E+03  2.49122E+04
 -2.48235E+04  7.57300E+03 -1.75164E+04  9.76603E+01  5.61217E+03 -6.39686E+03  2.51438E+04  1.13096E+04
  3.36080E+03  3.74939E+04 -2.75364E+04  3.88864E+04 -6.27588E+04 -2.25083E+02 -5.24570E+04 -4.35996E+04
 -8.25290E+03 -5.90396E+04  3.62666E+04 -4.50471E+04  5.25143E+04 -1.30413E+03  3.85937E+04  3.23725E+04
 -7.22395E+03  3.06667E+04 -2.90325E+04  1.53460E+04 -2.89398E+04 -3.59682E+03 -1.23393E+04 -9.87656E+03
 -4.26857E+03 -1.28145E+04  3.61825E+03 -1.45895E+04  5.84917E+03 -2.20993E+04  1.73652E+04 -1.48686E+04
  1.49527E+04  6.01675E+03 -3.35458E+03  1.19329E+04 -1.91820E+04  3.10112E+02 -6.45478E+03 -3.17915E+04
  2.20002E+04 -4.01596E+04  4.22256E+04 -1.70619E+04  4.34065E+04  1.75826E+04  1.53544E+04  4.54430E+04
 -1.84269E+04  3.39100E+04 -2.38804E+04  5.39543E+03 -5.91689E+03 -2.72810E+04  2.30846E+04 -3.26379E+04
  3.86916E+04 -9.08028E+03  3.11362E+04  1.85151E+04  1.21956E+04  4.36191E+04 -7.74256E+03  4.80686E+04
 -2.49911E+04  3.00880E+04 -2.97847E+04  8.15956E+03 -3.48516E+04 -1.44038E+04 -2.34161E+04 -3.17250E+04
  1.01577E+04 -3.97216E+04  2.74116E+04 -1.24195E+04  2.76271E+04  1.24855E+04  6.22326E+03  1.82193E+04
 -1.38396E+04  9.66153E+03 -8.03839E+03 -1.20997E+04  9.50612E+03 -1.49088E+04  1.85547E+04  4.60831E+03
  1.47574E+04  2.27656E+04 -5.80368E+03  2.43657E+04 -2.27641E+04  1.06119E+04 -2.21523E+04 -1.73127E+03
 -1.74409E+04 -1.33829E+04 -6.90137E+03 -1.71225E+04  5.99813E+03 -1.31392E+04  1.44772E+04 -1.39242E+04
  2.20524E+04 -9.08245E+03  2.54336E+04 -1.92118E+02  2.29176E+04  1.54302E+04  5.41736E+03  3.43451E+04
 -1.61368E+04  2.93881E+04 -2.29179E+04  9.31356E+03 -1.93093E+04 -8.32759E+03 -3.13683E+03 -1.03495E+04
  4.02579E+03 -5.10710E+03 -4.10647E+03  7.22656E+03 -1.47413E+04  5.39499E+03 -1.44990E+04 -3.62675E+03
 -8.78428E+03 -1.64705E+04  2.48066E+03 -2.10996E+04  1.25309E+04 -1.60413E+04  1.39145E+04 -2.61856E+03
  7.01504E+03  1.28699E+04 -4.00629E+03  1.65009E+04 -1.17696E+04  1.01526E+04 -1.63126E+04 -5.10155E+03
 -1.02516E+04 -1.69223E+04  2.07017E+02 -2.02208E+04  8.24679E+03 -1.25099E+04  1.51859E+04 -7.05680E+03
  1.30423E+04 -1.04691E+03  1.43293E+04  3.70861E+03  8.37570E+03  5.41892E+03  8.00408E+03 -3.26372E+02
  1.75525E+04  7.82302E+03  1.85915E+04  1.64951E+04  7.89262E+03  2.67510E+04 -4.10702E+03  2.98210E+04
 -2.05910E+04  2.41151E+04 -2.86565E+04  1.00081E+04 -2.40849E+04  8.99405E+02 -2.25489E+04 -1.45646E+04
 -1.14833E+04 -2.28473E+04  9.60370E+03 -2.04344E+04  1.87391E+04 -1.02343E+04  1.69051E+04  3.30001E+03
  3.24649E+03  7.34647E+03 -6.80559E+03  1.12647E+04 -1.42069E+04  9.29889E+02 -1.21650E+04 -8.48387E+03
  4.32996E+03 -1.69540E+04  2.15042E+03 -5.70239E+03  9.97214E+03 -1.66154E+02  1.39960E+02  5.83559E+03
 -5.58727E+03  2.11583E+03 -3.26838E+03  9.68485E+02 -1.88713E+03 -7.04663E+03  7.69355E+03 -9.36005E+03
  1.32461E+04 -5.33065E+03  8.99007E+03  4.62419E+03  1.10551E+04  5.05969E+03  5.02940E+03  1.52042E+04
 -2.99191E+03  1.99385E+04 -9.65415E+03  1.18238E+04 -1.36295E+04  8.28863E+03 -8.38975E+03 -2.29923E+03
 -3.33463E+03 -5.16785E+03 -1.45637E+03  6.15410E+02 -6.90122E+02  2.22476E+03 -3.80757E+03  3.94494E+03
 -9.02691E+03  2.81351E+01 -7.58875E+03 -2.67834E+03 -7.33329E+03 -1.70399E+04  3.76745E+03 -7.28680E+03
  9.92684E+03 -4.79059E+03  3.25872E+03  3.27869E+03  3.12294E+03  4.15285E+03 -2.21825E+03 -3.86224E+03
 -3.51387E+03 -8.55788E+03 -1.32341E+03 -5.85766E+03 -1.30098E+03 -7.92100E+03  1.13120E+04 -6.80067E+03
  1.20307E+04  9.34424E+02  9.69702E+03  8.28056E+03  1.58915E+03  1.00812E+04 -8.21908E+03  1.13553E+04
 -8.07373E+03  1.01128E+03 -4.77897E+03 -2.67786E+03  1.52501E+03  8.33209E+02  1.84269E+03 -1.84261E+03
  2.78430E+03  1.24360E+03  1.59773E+03  1.00358E+04 -5.58953E+03  7.57044E+03 -1.13632E+04 -1.28603E+03
 -5.27816E+03 -3.82901E+03  1.41409E+03 -9.79635E+03  5.14987E+03 -1.95296E+03  2.51639E+03  1.50527E+03
  3.11826E+03  8.55152E+03 -3.08467E+03  7.61813E+03 -6.05122E+03  3.34566E+03 -2.44815E+03  7.71314E+02
 -3.76304E+03 -1.07305E+04  1.85080E+03 -2.70381E+03  8.49526E+03 -6.96592E+03  5.26092E+03 -1.99243E+03
  5.14532E+03  3.71332E+03 -2.73861E+03  5.76945E+03 -8.20523E+03 -9.09806E+02 -4.16645E+03  1.92322E+03
 -9.20207E+03 -6.63724E+03 -3.72758E+03 -6.38934E+03  1.55810E+03 -5.20284E+03  3.23926E+03  2.98517E+03
  4.40544E+03 -2.76526E+03  1.52402E+03  2.00011E+03 -1.08462E+03 -1.43493E+02 -2.57213E+03  1.24857E+02
  1.72758E+03  2.78781E+03  5.68480E+03  7.84695E+02  3.42903E+03  2.56909E+03  5.17106E+03  8.72969E+03
 -2.24390E+03  9.28758E+03 -7.94407E+03  7.97374E+03 -1.12943E+04 -1.74127E+03 -6.83145E+03 -2.81962E+03
 -5.96726E+03 -5.46574E+03 -1.20899E+03 -3.64811E+03  3.09634E+03  3.05647E+02  2.02276E+03 -3.53384E+02
  1.16647E+02 -2.92896E+03  2.93797E+03  4.19826E+03  4.02593E+03 -2.58160E+03  7.24295E+03  4.54964E+02
  6.19017E+03 -1.83609E+03  3.73286E+03  1.41614E+04 -9.73488E+02  3.04036E+03 -2.85439E+03  2.86756E+02
 -7.07002E+03 -3.68805E+03  2.38749E+03 -5.78102E+03  2.53178E+03 -7.35041E+03 -9.53733E+02 -4.21278E+03
  6.93045E+03 -6.63809E+03  6.51728E+03 -1.78059E+03  6.35717E+03  9.91173E+03 -4.24724E+03  4.18446E+03
 -2.74502E+03  8.89192E+03 -6.34390E+02  5.95813E+03 -1.34065E+03 -3.85984E+03 -4.52538E+03  1.39238E+03
  1.99642E+03 -1.96188E+03 -1.27171E+03 -1.44197E+03 -4.59205E+03  3.85379E+03 -2.76752E+03 -7.84501E+02
 -4.59859E+03 -7.92311E+03 -3.19735E+03 -9.63428E+03  3.05419E+03 -4.73834E+03  2.90494E+03  1.21109E+03
  7.55845E+03  2.18733E+03  3.54315E+03  2.67815E+03  4.61038E+02  8.04753E+02 -3.13659E+03  3.14275E+03
 -5.98529E+03 -4.26351E+02 -1.98886E+03 -5.81441E+03  2.48154E+03 -9.78499E+03  2.61382E+03 -4.45582E+03
  2.28911E+03 -3.40963E+03  3.94732E+03  1.74659E+03  1.61379E+02  5.71112E+03  5.83861E+02  3.39144E+03
  6.71697E+02  1.54501E+03  4.27043E+03  4.18619E+02 -6.32141E+02  5.05003E+03  6.06304E+03  5.99488E+02
 -4.08521E+03  5.96220E+03 -4.34868E+03  3.89794E+03 -3.10185E+03 -1.21994E+03 -2.51966E+03  6.69442E+02
 -8.54686E+02 -6.31793E+03  9.93464E+02 -4.93713E+03  2.35705E+03 -6.89412E+03  7.01502E+03 -1.85430E+03
  1.62295E+03  7.09380E+02  1.89815E+03  1.31377E+03 -1.69464E+03  2.62021E+03 -1.02840E+03  1.73558E+03
 -1.77936E+03  1.44371E+03  2.75076E+03 -1.66324E+03  1.30428E+01  9.30256E+02  2.41635E+02  3.66092E+03
 -3.63715E+02  4.14944E+03  4.51115E+02  8.33891E+02 -1.20250E+02  3.07740E+03  3.04700E+03 -3.39812E+02
 -7.42077E+02 -2.07269E+03  1.98281E+03  1.87665E+03 -3.48206E+03  2.50470E+03 -1.35586E+03  2.92844E+03
 -3.29835E+02  6.11660E+03 -1.26829E+03  3.80463E+03 -1.68513E+03 -1.13380E+02  4.41487E+02 -1.55269E+03
 -8.98435E+02 -4.57313E+03  3.11291E+03  9.77450E+02 -5.97351E+03  4.17365E+03  2.66550E+02  1.57066E+03
 -1.04320E+03  2.05375E+03 -7.88037E+03 -3.83633E+01 -3.82594E+03 -4.63681E+03 -7.29216E+02 -4.63872E+03
  9.55996E+02  1.39418E+03  2.67034E+03  4.96202E+03  3.21107E+03  1.67278E+03 -4.54443E+02 -1.27635E+03
 -6.09434E+03  1.34740E+03 -2.14687E+03  1.22972E+03  2.61114E+03  9.92456E+02  4.78357E+03 -1.78548E+03
  1.50558E+03  1.92186E+03  3.48943E+03 -2.72719E+02 -1.22079E+02  1.33812E+03  8.95039E+02  3.16382E+03
  7.77973E+02 -1.22992E+03  1.66818E+03 -2.77586E+03 -2.38076E+03 -2.72139E+03  2.87885E+03 -1.76342E+03
  3.84683E+03 -3.20746E+03 -6.35593E+02 -1.58957E+03  2.45623E+03  3.34898E+03 -1.77281E+03 -7.71533E+02
 -2.06745E+03  4.00558E+03  3.12651E+03  1.07744E+03 -8.67981E+02  3.40896E+03 -1.03580E+03 -2.86774E+03
  1.65685E+03  4.86491E+03 -2.92597E+03  1.03062E+03 -2.91266E+03  2.84143E+02 -6.41663E+03 -1.58696E+03
  4.88621E+02 -1.63761E+03  1.03840E+03 -5.80184E+03  8.21422E+02  2.63949E+03  1.49506E+03 -4.00090E+03
  5.55815E+03  1.98293E+03 -1.70222E+03  1.85210E+03 -2.32543E+03  2.46843E+03 -3.58669E+03  1.87125E+03
 -3.25977E+03 -1.49640E+03 -2.38906E+03  1.61283E+03 -1.40637E+02  2.43996E+03  4.59123E+02 -1.91376E+02
 -2.20895E+03  1.22843E+03 -3.20590E+02  7.73368E+02  4.68751E+03 -1.92297E+03  3.89820E+03  1.75139E+03
 -3.86637E+02 -4.04596E+03  1.08728E+03  7.65263E+02  4.71894E+03  1.59454E+03 -3.46548E+02  2.08505E+03
  8.44742E+02  2.71095E+03  9.72058E+02  5.99925E+03 -3.91210E+03 -3.76170E+03  9.28452E+01  1.25021E+03
  5.43908E+02  7.08421E+02  3.37868E+03 -2.68507E+03 -4.34019E+02  9.15739E+02 -4.82622E+02 -9.28448E+02
 -7.56772E+03 -1.00705E+03  1.24971E+03  3.28140E+03  6.90430E+02  1.32977E+03  4.49508E+02  1.97597E+03
 -1.97415E+03 -4.00785E+03  1.57532E+03  3.54659E+03  6.84789E+02 -6.05079E+02 -1.46341E+03  2.70335E+03
 -2.89502E+03  3.59159E+03  1.84204E+03  3.57032E+03 -2.64231E+03 -1.72667E+03 -4.33546E+03 -1.61294E+03
 -8.25189E+02  7.47709E+02 -1.95241E+03  4.33773E+03  4.59970E+03 -1.13206E+03 -3.00586E+02  3.13356E+03
  3.15799E+03 -2.22388E+03 -3.92169E+02  6.71327E+03 -3.51264E+03  6.11382E+02  6.27249E+02 -1.87281E+03
  3.67221E+03 -2.37634E+02 -2.99281E+03 -2.08647E+03 -1.99571E+02 -3.22719E+03 -1.90363E+03 -4.30089E+02
 -8.01005E+02  2.46031E+03  2.61663E+03 -1.73347E+02  7.65569E+03 -2.10628E+03  2.67913E+03 -1.00766E+03
  6.75872E+03  2.70890E+03 -1.12456E+03 -2.89793E+03  2.16460E+03  2.45804E+03 -1.86444E+03 -1.74881E+02
