 $NMID ID='MM_0lb_SNR50_8hz_g55_73.RAW', FMTDAT='(8E13.5)'
 TRAMP=1., VOLUME=1. $END
  3.10058E+05  1.17114E+02  3.34800E+05  2.54265E+05  8.62719E+04  3.41690E+05 -1.34496E+05  2.53014E+05
 -1.92897E+05  8.38032E+04 -1.12001E+05 -3.69783E+04 -8.69855E+02 -5.32238E+04  4.99621E+04  3.66022E+03
  3.16346E+04  4.87343E+04 -1.62827E+04  7.36765E+04 -6.51324E+04  6.70435E+04 -8.37889E+04  2.95815E+04
 -8.75942E+04 -1.48492E+04 -5.28851E+04 -4.83637E+04 -2.07910E+04 -7.66828E+04  3.15747E+04 -5.03334E+04
  3.96422E+04  9.13176E+02  2.37552E+04  4.77325E+04 -3.01746E+04  4.22581E+04 -6.53847E+04  3.62273E+03
 -6.06940E+04 -5.49763E+04 -2.51483E+03 -7.83885E+04  3.48492E+04 -5.48147E+04  5.10285E+04 -1.50437E+04
  4.56297E+04  8.40475E+03  3.41022E+04  2.30547E+04  1.29439E+04  2.89087E+04 -8.00477E+03  2.66723E+04
 -2.57248E+04  1.43153E+04 -1.49318E+04 -1.90669E+03  3.30533E+03 -7.65226E+03  2.62650E+04  1.53874E+04
  1.31603E+03  4.07149E+04 -3.52593E+04  3.57802E+04 -6.79040E+04  6.82205E+03 -5.68191E+04 -4.63336E+04
 -1.01722E+03 -7.12716E+04  4.45860E+04 -4.48181E+04  6.22850E+04 -3.87909E+03  3.88857E+04  3.48787E+04
 -7.33856E+03  4.18550E+04 -3.10471E+04  1.77717E+04 -3.05242E+04 -6.22930E+03 -2.33974E+04 -1.48499E+04
 -6.49591E+03 -1.60447E+04 -3.86243E+02 -2.19075E+04  4.74654E+03 -2.19122E+04  1.70400E+04 -2.02778E+03
  7.62371E+03  3.22024E+03 -1.52379E+04  1.25518E+04 -2.84035E+04 -5.02187E+03 -7.24198E+03 -4.06731E+04
  2.82000E+04 -4.31448E+04  4.72220E+04 -2.15899E+04  5.50015E+04  1.87987E+04  1.69521E+04  4.90561E+04
 -1.54351E+04  3.94768E+04 -3.12137E+04  6.85790E+03 -7.62074E+03 -2.90552E+04  3.20001E+04 -3.91766E+04
  5.30510E+04 -8.61323E+03  3.98404E+04  2.16500E+04  2.43256E+04  4.41556E+04 -6.07281E+03  5.71629E+04
 -2.99427E+04  3.82526E+04 -5.02020E+04  1.15479E+04 -5.07768E+04 -2.03541E+04 -2.71800E+04 -4.75085E+04
  6.04680E+03 -4.66812E+04  2.96675E+04 -1.52191E+04  3.30589E+04  3.21757E+03  4.40853E+03  2.41570E+04
 -1.50061E+04  1.01189E+04 -1.31717E+04 -1.16216E+04  4.63565E+03 -1.27661E+04  1.89156E+04  4.36409E+03
  1.64662E+04  2.35736E+04 -5.70576E+03  2.80415E+04 -2.79055E+04  1.73636E+04 -3.12001E+04 -3.98273E+01
 -3.03474E+04 -1.54905E+04 -1.63171E+04 -2.25642E+04  5.91298E+03 -2.87220E+04  2.67509E+04 -2.37372E+04
  3.67577E+04 -2.12226E+04  3.39655E+04  5.32018E+03  3.20049E+04  1.86397E+04  5.93356E+03  4.63320E+04
 -1.04142E+04  3.70181E+04 -3.59946E+04  1.73197E+04 -2.67263E+04 -4.70483E+03 -3.89777E+03 -1.12223E+04
  2.60692E+03 -5.58373E+03 -7.85591E+03  1.33057E+04 -2.16843E+04 -2.71812E+02 -2.10304E+04 -1.23322E+04
 -1.66807E+04 -2.81318E+04  6.81656E+03 -2.37935E+04  2.74848E+04 -1.72156E+04  2.07600E+04 -2.43405E+03
  1.79728E+04  2.03857E+04  3.10920E+03  2.47618E+04 -1.45888E+04  1.49880E+04 -3.08187E+04 -7.46931E+03
 -2.05767E+04 -2.27234E+04 -5.66481E+03 -2.91192E+04  1.31963E+04 -3.17796E+04  2.05066E+04 -1.47743E+04
  2.39349E+04 -5.39819E+03  1.91159E+04  6.94946E+03  1.28133E+04  4.55726E+03  1.34749E+04  1.95326E+03
  2.70697E+04  1.99439E+03  2.99270E+04  2.20085E+04  1.85306E+04  3.89731E+04 -8.58843E+03  4.99857E+04
 -3.17110E+04  3.92192E+04 -4.09152E+04  2.03029E+04 -4.67320E+04 -2.74667E+02 -4.04492E+04 -3.08615E+04
 -5.10258E+03 -3.41097E+04  1.77048E+04 -3.52424E+04  2.80585E+04 -1.05789E+04  3.36047E+04  1.13997E+04
  1.01585E+04  1.79203E+04 -1.04001E+04  1.61968E+04 -2.24764E+04  5.89308E+03 -1.85989E+04 -1.26720E+04
 -9.29956E+03 -2.43700E+04  1.16887E+04 -1.27486E+04  1.87006E+04  6.45919E+03  9.20591E+03  4.29775E+03
 -9.95306E+03  1.37258E+04 -7.22623E+03 -9.58755E+03 -3.51270E+03 -2.50732E+04  1.44183E+04 -2.24083E+04
  2.22810E+04 -5.47864E+03  3.01058E+04  7.21573E+03  2.48544E+04  1.54931E+04  1.21888E+04  2.71548E+04
 -4.28880E+03  3.16424E+04 -2.50687E+04  2.17139E+04 -2.31879E+04  4.29740E+03 -1.64675E+04 -2.99359E+03
 -6.88835E+03 -8.26515E+03 -1.94469E+03 -1.33697E+03  6.71677E+02  3.86010E+03 -4.60678E+03  3.59748E+03
 -1.74480E+04 -4.83815E+03 -1.96699E+04 -1.01601E+04 -7.49403E+03 -2.00649E+04  3.18763E+03 -1.36985E+04
  8.73648E+03 -8.77709E+03  9.84955E+03  6.29755E+03  7.83601E+03  3.57508E+03 -2.99470E+03 -9.97672E+02
 -8.71986E+03 -8.56085E+03  3.41292E+03 -1.63796E+04  1.22052E+04 -2.12071E+04  2.16287E+04 -1.29170E+04
  2.31655E+04 -2.25282E+03  1.79878E+04  1.55185E+04  6.18885E+03  1.85035E+04 -7.71331E+03  1.03089E+04
 -9.01067E+03  1.23533E+03 -4.59381E+03  1.00096E+04  3.27154E+03 -9.48851E+03  1.00356E+04  6.15578E+03
  4.88071E+02  8.24291E+03 -2.97949E+03  1.55610E+04 -1.08065E+04  1.05539E+04 -1.80866E+04  3.98679E+03
 -6.69734E+03 -7.77955E+03  8.89562E+03 -1.85171E+04  1.54817E+04 -8.39093E+03  5.96041E+03  1.93348E+03
 -1.54473E+03  1.80729E+04 -9.97250E+03  1.49371E+04 -1.42263E+04 -5.40363E+03 -1.80506E+04 -1.18084E+04
 -6.59303E+03 -2.08387E+04  4.96442E+03 -1.25687E+04  1.37216E+04 -1.07326E+04  2.07153E+04  2.82324E+03
  1.53839E+04  2.07947E+04 -1.10918E+04  1.23479E+04 -1.56833E+04  1.38233E+04 -1.30471E+04 -5.26501E+02
 -3.61364E+03 -8.00507E+03 -2.43717E+03 -1.26482E+04  3.70934E+03 -1.04094E+04  1.07180E+04 -3.25276E+03
  6.73400E+03  3.19945E+03 -1.05180E+03  1.29631E+03  2.71576E+02 -1.09445E+04  8.34011E+03 -9.63465E+03
  1.34240E+04 -7.88257E+03  2.19143E+04  4.47901E+03  2.37690E+04  1.06503E+04  1.74813E+04  2.22394E+04
 -1.48996E+02  2.29873E+04 -2.49850E+04  1.73831E+04 -2.78561E+04  3.10342E+03 -2.10664E+04 -1.17609E+04
 -1.10382E+04 -1.40570E+04  1.48421E+03 -1.57221E+04 -1.70855E+03 -1.56888E+04  5.39591E+03 -7.13225E+03
  6.10200E+01 -7.97416E+03 -5.88958E+03 -5.31253E+03  7.14272E+03 -1.03398E+04  9.83408E+03 -2.49171E+03
  1.67254E+04  2.90351E+03  7.78650E+03  1.20956E+04  7.67614E+02  1.12177E+04 -1.20767E+04  9.12180E+03
 -1.16912E+04 -4.16410E+03 -1.01562E+04 -3.91793E+03 -4.28884E+03 -1.89276E+04  5.92444E+03 -2.02747E+04
  1.92222E+04 -1.32555E+04  2.42586E+04  9.80951E+02  1.10047E+04  1.50772E+04  1.06454E+02  2.06379E+04
 -1.38209E+04  1.30508E+04 -1.00805E+04  1.14167E+04 -6.26481E+03 -5.87402E+03 -6.90237E+03 -1.01041E+04
 -8.60444E+03  1.69032E+03 -3.08179E+03 -3.93519E+03 -2.73073E+03  9.84181E+03 -1.10231E+04 -8.39264E+03
 -7.09675E+03 -4.68563E+03 -6.39748E+03 -2.22481E+04  6.25881E+03 -1.48370E+04  1.17151E+04 -2.28074E+02
  2.15605E+04  7.93476E+03  6.25063E+03  1.60377E+04 -6.77516E+02  1.21857E+04 -9.42906E+03  1.89732E+04
 -1.44629E+04 -6.27160E+02 -1.51599E+04 -1.19823E+04  4.28956E+03 -1.05063E+04  1.12929E+04 -1.03970E+04
  1.14220E+04 -8.32147E+03  1.17422E+04  1.75291E+02 -4.44798E+02  1.59224E+03 -9.53956E+02  5.48228E+03
 -2.76990E+03 -3.50809E+03  8.18025E+03  3.06730E+03  3.01308E+03  3.09735E+03  6.19063E+03  1.42830E+04
 -7.08996E+02  1.70581E+04 -1.12322E+04  1.96446E+04 -1.55633E+04  5.57960E+02 -2.02280E+04 -1.43572E+04
 -7.43564E+03 -1.45442E+04 -1.14478E+03 -2.21070E+04  1.01232E+04 -1.27806E+04  1.65240E+04 -3.76965E+03
  1.37135E+04  4.18919E+03  4.51569E+02  8.34435E+03 -1.31806E+03  1.21884E+04 -5.55021E+03  4.87395E+03
 -4.92066E+03 -1.20195E+04 -5.07186E+02 -1.01016E+04  1.20858E+04 -3.41486E+03  3.60504E+03  3.66921E+03
  6.57179E+03  4.49064E+03  9.85691E+02 -1.76662E+03 -3.23004E+03  6.33266E+03  9.13156E+03  2.52755E+03
  6.42467E+03 -3.99258E+03  7.28045E+03  1.04702E+03 -2.74233E+02  7.18219E+03 -5.78823E+02  7.97290E+03
 -3.58673E+03  1.29779E+04 -1.24550E+04 -4.20793E+03 -1.00882E+04 -1.57919E+03  2.18017E+03 -1.09029E+04
  5.56255E+03 -9.36142E+03  5.49533E+03 -1.36748E+03  5.40552E+03  7.52387E+03  9.29495E+03  1.23721E+03
 -6.77972E+03  6.27293E+03 -4.41613E+03 -1.34129E+03  1.35741E+03 -1.19685E+04  3.88218E+03 -1.63731E+04
  1.05757E+04  1.58543E+03  1.29544E+04 -3.10914E+03  5.46276E+03 -2.57380E+03  3.08330E+03  4.17854E+03
  1.64120E+03  5.74751E+03 -9.72336E+03 -4.75979E+03 -4.64112E+03 -4.69457E+03  1.31409E+04 -3.22090E+03
  7.92799E+03  2.45414E+03  1.42581E+04  9.02376E+03 -1.59163E+02  1.04421E+04 -3.52229E+03  1.56257E+04
 -1.06448E+04  1.28421E+04 -1.29246E+04 -6.33019E+03 -4.94146E+03 -8.21763E+03  3.07080E+03 -1.37765E+04
  8.75647E+03 -6.20201E+01  1.34897E+04 -1.01471E+03 -2.41227E+03  3.19681E+03 -6.46707E+03  3.95432E+03
 -7.55303E+03  6.99253E+03 -7.46926E+03 -1.19727E+03 -4.60610E+03  1.41053E+03 -6.25143E+03  7.70130E+03
 -4.14370E+03  2.76629E+03 -1.10439E+04  1.19432E+04 -1.59125E+04  3.70225E+03 -1.40362E+04 -5.89576E+03
 -3.84070E+03 -1.85981E+04  2.98223E+03 -1.89665E+04  1.45617E+04 -1.32853E+04  1.27062E+04 -2.23245E+03
  9.64691E+03  8.26041E+03  7.46783E+03  1.87446E+04  1.85331E+03  1.41650E+04 -7.14969E+03  4.40585E+03
 -1.03873E+04  6.35962E+03  2.76994E+02 -1.06060E+04 -2.04999E+03 -8.80743E+03  4.89408E+03  2.07896E+03
 -1.52765E+03  2.91669E+03  2.67854E+02 -3.24941E+03  2.47423E+03 -9.43768E+02 -4.99190E+03  3.35505E+02
  3.51090E+03  3.67586E+03  1.20611E+04  1.43216E+03  9.89557E+03 -4.33004E+02  1.44373E+02  1.32932E+04
 -9.57748E+03  1.16854E+04 -9.79011E+03  1.01038E+04 -1.60076E+04  7.50721E+02 -1.24875E+04 -1.17694E+04
 -7.38757E+03 -1.25509E+04 -1.85706E+03 -1.08652E+04  3.93037E+03 -6.55970E+02  1.35275E+04 -1.24209E+02
  4.29507E+01  2.65669E+03 -5.44427E+03  8.43745E+03 -2.88212E+03 -3.47747E+03 -3.60774E+03 -4.13217E+03
  7.13153E+03 -3.58250E+03  1.09265E+04  8.37376E+03  6.76476E+03  3.73390E+03 -4.48265E+03  4.23109E+03
 -8.41003E+02  7.10022E+03 -1.15473E+04  4.56445E+03 -1.26299E+03 -1.09192E+04  3.15049E+03 -1.18149E+04
  7.43498E+03 -1.32516E+04  1.19525E+04 -9.48128E+02  1.23555E+04  2.41483E+03  1.17835E+04  5.82685E+03
  2.71692E+03  9.24270E+03 -7.74325E+03  4.93233E+03 -6.40490E+03  1.31827E+04 -3.57912E+03  9.97365E+02
  1.19623E+03  3.79956E+03 -1.77124E+03  3.64170E+03 -7.00032E+03  1.12864E+03 -1.01868E+04  4.15758E+03
 -4.36530E+03 -1.26724E+03  1.61341E+03 -1.31868E+04  6.84658E+03 -8.93768E+03  6.96329E+03 -7.59557E+03
  6.80839E+03  1.20710E+03  2.91055E+03  1.51819E+04  2.88123E+03  9.27051E+03 -1.50162E+04  8.15539E+03
