 $NMID ID='MM_0lb_SNR50_11hz_g45_18.RAW', FMTDAT='(8E13.5)'
 TRAMP=1., VOLUME=1. $END
  3.06357E+05 -1.24152E+03  3.41564E+05  2.53616E+05  8.71994E+04  3.42692E+05 -1.26925E+05  2.53398E+05
 -1.94078E+05  7.80966E+04 -1.15144E+05 -3.39332E+04 -3.62847E+03 -4.90857E+04  5.89327E+04  5.38724E+02
  3.95829E+04  5.36475E+04 -1.20155E+04  7.66419E+04 -5.54627E+04  6.69497E+04 -8.90656E+04  3.45752E+04
 -8.72518E+04 -1.16380E+04 -5.33159E+04 -5.58032E+04 -1.48233E+04 -7.25715E+04  2.55254E+04 -4.66069E+04
  4.03348E+04  1.52095E+03  1.20855E+04  4.73685E+04 -3.49374E+04  4.64705E+04 -6.50306E+04  1.35779E+03
 -5.88829E+04 -5.34585E+04 -3.73430E+03 -7.78033E+04  3.51647E+04 -6.06494E+04  4.85521E+04 -1.53270E+04
  4.62359E+04  6.23331E+03  3.40991E+04  2.50135E+04  1.46469E+04  3.14080E+04 -8.22121E+03  3.15354E+04
 -1.85865E+04  1.08401E+04 -2.05263E+04 -5.23883E+03  8.34337E+03 -6.59808E+03  2.43375E+04  1.51383E+04
  8.26951E+03  4.08291E+04 -3.75447E+04  4.00791E+04 -6.55561E+04  3.89052E+03 -5.81925E+04 -4.42709E+04
 -9.88192E+03 -6.50654E+04  4.07718E+04 -4.72542E+04  6.07480E+04 -3.03052E+03  3.01181E+04  3.50271E+04
 -5.05186E+03  4.00429E+04 -3.14754E+04  1.67294E+04 -3.05614E+04 -3.00932E+03 -1.81622E+04 -1.27031E+04
 -4.29652E+03 -1.31203E+04 -5.08269E+03 -1.96672E+04  6.60173E+03 -2.00445E+04  1.02846E+04 -1.20394E+04
  6.45002E+03  4.67161E+01 -1.27439E+04  1.75943E+04 -2.10797E+04  9.41871E+01 -1.10162E+04 -3.60872E+04
  2.64146E+04 -4.60006E+04  5.04738E+04 -2.48701E+04  4.47357E+04  2.42034E+04  1.84282E+04  4.51071E+04
 -1.24174E+04  3.57651E+04 -2.63895E+04 -1.31514E+03 -9.15048E+03 -3.17611E+04  2.64951E+04 -3.52948E+04
  4.19678E+04 -8.58677E+03  3.57251E+04  2.24979E+04  2.44469E+04  4.38610E+04 -8.35108E+03  5.24473E+04
 -3.31950E+04  3.70161E+04 -5.25205E+04  6.93963E+03 -4.32377E+04 -1.73371E+04 -2.52205E+04 -3.83237E+04
  5.89896E+03 -4.09186E+04  3.04742E+04 -6.95777E+03  2.73146E+04  9.16766E+03 -3.48396E+03  2.77848E+04
 -1.31250E+04  1.37956E+04 -1.36344E+04 -1.07161E+04  6.82006E+03 -5.58499E+03  2.20605E+04  4.44862E+03
  1.30535E+04  2.44575E+04 -4.01365E+03  2.34656E+04 -2.61290E+04  9.75722E+03 -3.18681E+04 -1.44724E+03
 -2.51097E+04 -1.46738E+04 -6.66521E+03 -2.38718E+04  4.10431E+03 -2.20705E+04  1.75003E+04 -1.86626E+04
  3.08329E+04 -1.30259E+04  3.48500E+04 -1.98474E+02  2.54107E+04  2.14207E+04  2.16303E+03  3.92456E+04
 -1.89204E+04  3.72004E+04 -3.06678E+04  1.32541E+04 -2.46680E+04 -9.63731E+03 -3.34368E+03 -8.28626E+03
  4.90290E+03 -3.57243E+03 -2.17022E+03  1.17976E+04 -2.32120E+04  7.94132E+03 -1.92583E+04 -6.51427E+03
 -3.55519E+03 -1.83894E+04  1.06694E+04 -2.50048E+04  1.89245E+04 -1.21286E+04  1.76882E+04 -4.27699E+03
  1.37007E+04  1.35312E+04 -3.47114E+03  1.88793E+04 -1.35387E+04  1.42749E+04 -2.44762E+04 -2.34271E+03
 -1.11839E+04 -1.54960E+04  5.86021E+02 -2.07623E+04  1.28813E+04 -2.01540E+04  1.63058E+04 -1.62502E+04
  1.39069E+04  2.24983E+03  9.07538E+03  3.94170E+03  6.08255E+03 -2.42897E+02  1.28823E+04 -3.55899E+03
  1.76299E+04  7.28742E+03  1.64402E+04  1.79288E+04  2.11711E+04  3.08325E+04  7.52546E+02  3.69441E+04
 -2.27852E+04  3.33294E+04 -3.04530E+04  1.82659E+04 -3.57983E+04  1.43632E+03 -3.07194E+04 -2.06008E+04
 -1.19204E+04 -2.96243E+04  1.18725E+04 -2.52376E+04  2.46552E+04 -1.17619E+04  2.34157E+04  3.66244E+03
  7.60347E+03  1.35616E+04 -9.78427E+03  1.60085E+04 -2.16996E+04  1.44375E+03 -1.62124E+04 -8.01282E+03
 -6.11292E+03 -1.46991E+04  3.45816E+03 -1.80502E+04  1.11745E+04 -4.09331E+03  2.22165E+03  5.16271E+03
 -1.02098E+04  1.65971E+03 -1.18027E+04 -7.47257E+03 -1.66942E+03 -9.18612E+03  1.31526E+04 -1.97622E+04
  2.07841E+04 -1.06119E+04  2.35626E+04  4.63228E+03  2.30457E+04  1.10126E+04  6.09064E+03  2.58079E+04
  2.29216E+02  2.70969E+04 -1.70023E+04  2.02277E+04 -1.36802E+04  7.53021E+03 -9.62353E+03 -5.42404E+03
 -3.73593E+03 -1.02920E+04 -7.60317E+01  2.85132E+03 -8.18841E+02  2.13903E+03 -4.75495E+03  2.43940E+03
 -8.67103E+03 -5.16776E+03 -1.26501E+04 -9.41690E+03 -1.96922E+03 -1.58772E+04  3.59415E+03 -1.87762E+04
  1.08883E+04 -5.97330E+03  6.03316E+03 -1.93878E+03  5.14200E+03  4.84534E+03 -8.64591E+03  1.04261E+02
 -3.31125E+03 -8.37419E+03  3.32554E+02 -1.34777E+04  1.03444E+04 -1.38601E+04  1.60419E+04 -7.79840E+03
  1.96420E+04  1.66168E+03  1.82513E+04  1.55248E+04 -2.92559E+03  1.96740E+04 -9.91502E+03  1.22458E+04
 -1.17843E+04  2.76184E+03 -5.47894E+03 -3.66110E+02  4.94305E+03 -2.19251E+03  1.00495E+04  4.13091E+03
  4.55099E+03  5.03359E+03  1.00599E+04  3.90582E+03 -7.10684E+03  1.18648E+04 -1.12682E+04 -1.49341E+03
 -9.02813E+03 -6.63530E+03 -3.80856E+03 -1.24088E+04  5.59912E+03 -1.92499E+03  7.14512E+03  4.65559E+03
  2.94611E+03  1.12516E+04 -8.99644E+03  6.71736E+03 -7.52792E+03  6.99336E+03 -7.84857E+03 -1.99726E+03
 -9.96301E+03 -2.03506E+04  3.65047E+02 -1.17233E+04  1.73381E+04 -5.81950E+03  1.11631E+04  1.28875E+03
  7.47496E+03  1.14662E+04  1.75043E+03  1.26964E+04 -9.70178E+03  1.10730E+04 -9.12114E+03 -2.20544E+03
 -1.20837E+04 -1.05885E+04  4.84516E+03 -1.15591E+04  3.36301E+03 -1.09425E+04  1.11716E+04 -2.27103E+03
  6.36685E+03  3.86176E+01 -4.13481E+02 -3.24384E+03 -5.57670E+03 -4.01754E+03  4.22717E+03 -2.66147E+03
  1.11602E+04 -1.68775E+03  1.37962E+04  3.17864E+03  1.02102E+04  1.06368E+04  7.37681E+03  1.13006E+04
 -1.02014E+04  2.02844E+04 -2.04432E+04  1.42608E+04 -1.93869E+04  4.07488E+03 -1.00930E+04 -8.13198E+03
 -1.04707E+04 -9.59294E+03 -2.64195E+02 -1.04547E+04  2.42730E+03 -2.95606E+03  2.09877E+03 -5.66858E+03
  4.25569E+03 -2.27025E+03  4.21032E+03 -1.34433E+03  2.28058E+03 -4.57522E+03  9.89490E+03  7.34966E+02
  1.03763E+04  2.83079E+03  5.79859E+03  4.21595E+03  8.15159E+02  9.10300E+03 -1.04485E+04  8.46292E+03
 -1.41671E+04  3.65093E+03 -7.20338E+03 -6.26697E+03 -4.50985E+02 -1.75800E+04  3.61293E+03 -1.23016E+04
  1.53619E+04 -7.25529E+03  1.42943E+04  2.28646E+03  1.35737E+04  8.04918E+03  2.75337E+03  1.09262E+04
 -3.42817E+03  1.15769E+04 -8.27326E+03  8.69056E+03 -4.25958E+02 -1.64348E+03  1.33840E+03 -3.64182E+03
 -1.40511E+03  1.55907E+03  1.73991E+03 -4.72740E+02 -4.25698E+03 -1.26454E+03 -6.10966E+03 -3.03252E+03
 -7.12999E+03 -7.42154E+03  3.49996E+02 -1.22352E+04  1.22078E+04 -9.30607E+03  1.31728E+04 -3.69125E+03
  1.24843E+04  1.03507E+04  1.75305E+03  9.12301E+03  9.93623E+02  1.37083E+04 -3.52617E+03  7.86085E+03
 -6.23515E+03 -1.84051E+03 -9.88651E+03 -2.62361E+03  3.00861E+03 -1.19707E+04  5.13745E+03 -9.49671E+03
  6.37326E+03 -7.13449E+03  4.86369E+03  2.54537E+03  2.10419E+03  7.31368E+03  1.72017E+03 -5.62557E+03
  8.93969E+01 -3.91389E+03  6.30300E+03  4.06952E+03  6.96581E+03  4.54857E+03  2.46887E+03  4.86050E+03
 -1.12862E+03  6.86557E+03 -4.43723E+03  1.12507E+04 -1.06679E+04  5.14335E+03 -9.80690E+03 -8.36990E+03
 -5.22109E+03 -9.72565E+03  2.07267E+03 -1.06088E+04  2.42940E+03 -9.34326E+03  1.40525E+04  1.69377E+03
  1.21165E+04  5.17359E+03  5.38198E+02  1.04683E+04 -3.29996E+03  5.46417E+03 -1.95363E+03  2.05644E+03
 -5.78198E+03 -8.03690E+03  5.54822E+03 -8.41790E+03  2.93746E+03 -4.93172E+03  3.07072E+03 -3.63557E+03
 -5.58318E+03  1.92425E+03  3.93229E+03  1.34228E+03  3.47013E+03  1.37842E+03  2.43592E+03 -3.91262E+02
  6.36673E+03 -1.75103E+02  6.39534E+03  6.01240E+03  6.76851E+03  8.83354E+03  2.11953E+03  1.29783E+04
 -7.21633E+03  3.92407E+03 -6.67628E+03  8.96427E+02 -1.15651E+04 -7.47626E+03  3.03106E+03 -5.73386E+03
  2.67831E+03 -5.65947E+03  2.51868E+03 -1.90330E+03 -6.68039E+03 -3.47556E+03  7.42347E+03  3.37779E+03
 -4.72430E+03  2.87269E+03 -4.49214E+03 -7.31120E+03 -3.72928E+03 -6.05242E+03  6.43615E+03 -9.10018E+03
  5.15228E+03 -4.08371E+03  1.38358E+03 -7.27734E+02  6.75310E+03  3.22836E+02  1.13804E+03  1.88002E+03
 -6.37007E+03 -1.32327E+03 -1.03461E+02 -1.04317E+03 -4.83719E+02 -7.05018E+03  1.11222E+04  1.16534E+03
  7.63145E+03  2.19950E+03  6.69114E+03  7.30596E+03  1.99467E+03  3.15011E+03  2.49203E+03  9.69367E+03
 -7.00171E+03  7.36557E+03 -3.49736E+03 -2.73047E+03  5.65221E+02 -7.97940E+03 -1.35831E+02 -4.93366E+03
  5.74055E+03 -4.88482E+03  3.83262E+02  2.37427E+03 -6.87693E+03  2.60067E+03 -2.73284E+03  3.46168E+03
 -4.27246E+03  4.64696E+03  1.45486E+03  1.03208E+03 -1.77594E+03  4.09530E+03  2.32985E+03  7.68245E+03
 -5.34300E+03  1.02711E+03 -6.51978E+03  9.59932E+03 -7.49603E+03 -2.38024E+03 -1.76021E+04 -8.70109E+03
 -3.66983E+03 -7.73757E+03  3.82839E+03 -6.43944E+03  5.70838E+03 -2.74815E+03  8.49855E+03 -3.23999E+03
  1.18735E+04  2.19085E+03  2.96446E+03  8.09443E+03  9.12930E+02 -9.94942E+01 -2.91743E+02  7.03330E+03
 -5.22330E+03  6.08798E+02 -1.16511E+03 -2.88247E+03 -1.26298E+03 -2.78982E+03  8.69531E+02 -1.29138E+03
  2.90500E+02  3.32211E+03 -9.55738E+02  4.22296E+03 -8.43399E+02 -2.48861E+03 -3.97102E+03 -2.76821E+03
  2.00785E+03 -4.43272E+03  6.68661E+03 -5.85718E+03  8.49311E+03  2.08609E+02  1.27799E+03  7.74821E+03
 -3.05347E+03  7.24198E+03 -4.78485E+03  4.86660E+03 -8.40017E+03 -5.49543E+03 -8.65668E+03 -8.79396E+03
 -1.55284E+03 -7.06605E+03  8.96827E+02 -1.05827E+04 -1.22528E+03 -5.22518E+03  3.56625E+03 -4.41487E+03
 -3.31147E+03  8.48501E+03 -3.16819E+03  5.80330E+03 -3.36201E+03  2.40432E+03 -6.37560E+02 -6.09673E+03
  1.03010E+03 -8.42172E+02 -1.48039E+03  9.62573E+02  3.12520E+03  4.69351E+03 -8.36709E+01  4.66838E+03
 -8.38673E+03  2.71289E+03 -4.32694E+03 -9.58024E+02 -5.19664E+03 -1.06390E+04 -4.88364E+02 -3.16365E+03
  2.42056E+03 -3.72550E+03  1.14919E+04 -5.18824E+03  6.31619E+03 -2.10517E+02  5.75379E+03  7.06523E+03
  3.62171E+03 -1.57229E+03 -4.45932E+03  4.59606E+03 -7.95782E+03 -2.48113E+03 -7.61862E+03 -2.50457E+03
  1.39549E+03 -6.57447E+03  1.17582E+03  1.24955E+03 -2.44336E+03  1.34094E+03 -6.31351E+03 -3.29025E+03
 -1.28450E+03  4.66016E+02  7.55490E+02 -2.34477E+03  3.28411E+00 -7.13015E+03  2.76633E+03 -1.23655E+02
 -5.78976E+01  2.82050E+03  7.49006E+02  2.07655E+03  7.72281E+02  1.63876E+03  2.56202E-01  6.37308E+03
