 $NMID ID='MM_0lb_SNR50_12hz_g40_88.RAW', FMTDAT='(8E13.5)'
 TRAMP=1., VOLUME=1. $END
  3.11527E+05  3.91187E+03  3.38158E+05  2.52724E+05  8.53264E+04  3.38379E+05 -1.39041E+05  2.50276E+05
 -1.93234E+05  8.44260E+04 -1.10617E+05 -3.03652E+04  2.96267E+03 -5.71300E+04  5.30202E+04  1.34817E+03
  3.74287E+04  5.31554E+04 -1.79524E+04  7.44618E+04 -6.24914E+04  6.32062E+04 -8.18131E+04  3.38073E+04
 -8.10178E+04 -1.29556E+04 -5.12597E+04 -5.40204E+04 -1.05543E+04 -6.71087E+04  2.74348E+04 -4.33047E+04
  3.84587E+04  2.55787E+03  1.54349E+04  4.92106E+04 -3.44507E+04  5.10582E+04 -6.31550E+04 -1.94411E+03
 -5.18899E+04 -6.06017E+04 -6.34852E+03 -7.75403E+04  3.21349E+04 -5.91233E+04  4.98371E+04 -2.05505E+04
  4.34573E+04  7.33489E+03  3.36216E+04  2.86114E+04  1.75797E+04  2.84929E+04 -9.00090E+03  2.95731E+04
 -2.46790E+04  1.52349E+04 -1.72815E+04 -5.34034E+03  4.50317E+02 -3.38567E+03  2.06313E+04  1.22286E+04
  7.31520E+03  3.41114E+04 -3.58980E+04  2.90357E+04 -6.52479E+04 -1.79016E+03 -6.11374E+04 -4.62674E+04
 -6.71771E+03 -6.19612E+04  3.66309E+04 -4.21782E+04  6.03511E+04 -1.54327E+03  3.88635E+04  3.41799E+04
 -8.10611E+03  3.40180E+04 -3.21636E+04  1.74341E+04 -2.81150E+04  3.12096E+02 -1.86234E+04 -1.18044E+04
 -9.01248E+03 -1.08183E+04  2.40094E+03 -1.57927E+04  7.92404E+03 -2.52200E+04  1.57338E+04 -1.30408E+04
  9.62648E+03  4.70725E+03 -1.44062E+04  1.02536E+04 -2.17450E+04 -2.62346E+03 -1.26871E+04 -3.57887E+04
  2.46614E+04 -3.80087E+04  4.60780E+04 -2.06460E+04  4.88002E+04  2.45611E+04  1.59265E+04  4.49697E+04
 -1.36843E+04  2.88966E+04 -2.66120E+04  3.31775E+03 -4.82417E+03 -2.53985E+04  2.57241E+04 -3.59157E+04
  4.39353E+04 -1.08778E+04  4.29588E+04  2.89778E+04  2.16077E+04  4.85167E+04 -1.09166E+04  5.04972E+04
 -3.30700E+04  3.17830E+04 -4.64679E+04  9.81871E+03 -4.06264E+04 -1.65986E+04 -2.68252E+04 -3.88612E+04
  8.56800E+03 -3.90007E+04  2.72046E+04 -1.75531E+04  2.80774E+04  7.60556E+03  9.17737E+02  1.77242E+04
 -1.33893E+04  1.16638E+04 -8.10179E+03 -5.62911E+03  5.34527E+03 -1.49501E+04  1.99705E+04  6.51998E+03
  1.71267E+04  2.21991E+04 -5.10080E+03  2.41273E+04 -2.50576E+04  1.26719E+04 -2.81013E+04 -8.71315E+03
 -1.67381E+04 -1.53851E+04 -7.44507E+03 -1.98921E+04  3.88109E+03 -2.05810E+04  1.30927E+04 -1.84512E+04
  2.68255E+04 -1.00437E+04  2.87954E+04 -1.25324E+03  2.36199E+04  2.11163E+04  2.16425E+03  3.49142E+04
 -2.29598E+04  3.22279E+04 -2.87558E+04  1.36580E+04 -2.48756E+04 -9.13012E+03 -7.61982E+02 -1.26824E+04
 -4.23382E+02 -6.77456E+03 -7.53663E+03  6.76087E+03 -2.18079E+04  8.36912E+03 -2.10847E+04 -9.15500E+03
 -8.92874E+03 -1.98731E+04  5.54528E+03 -2.75132E+04  1.55034E+04 -2.08731E+04  1.47916E+04 -2.05579E+03
  1.27096E+04  1.56930E+04 -4.11029E+03  2.04821E+04 -1.01414E+04  9.77024E+03 -1.74157E+04 -7.62221E+03
 -1.64667E+04 -1.96699E+04 -1.14931E+03 -2.34428E+04  1.01141E+04 -2.48400E+04  1.36955E+04 -4.48796E+03
  1.94141E+04 -2.56782E+03  1.14324E+04  2.38394E+03  3.68003E+03  1.60569E+03  1.00084E+04  2.92398E+03
  1.74962E+04  5.28566E+03  2.16519E+04  1.64143E+04  1.41094E+04  3.15692E+04  6.91189E+02  3.42534E+04
 -2.16361E+04  2.46484E+04 -3.74516E+04  1.44068E+04 -3.03502E+04 -2.94296E+03 -3.00650E+04 -1.99349E+04
 -9.82581E+03 -2.86203E+04  9.44976E+03 -2.45399E+04  1.98395E+04 -1.21950E+04  2.14712E+04  3.36343E+03
  7.54080E+03  1.31714E+04 -1.51531E+04  1.10873E+04 -1.66654E+04  1.57323E+03 -1.37742E+04 -1.62932E+04
 -3.92793E+03 -1.49964E+04  9.38191E+03 -1.38685E+04  1.07377E+04 -5.26454E+02  3.99676E+03  4.95207E+03
 -2.77018E+03  6.26274E+03 -4.56011E+03 -5.75845E+03  6.93144E+01 -1.29865E+04  9.28103E+03 -1.27560E+04
  1.72082E+04 -8.03739E+03  2.31558E+04 -1.96058E+03  1.47856E+04  8.14932E+03  7.76890E+03  1.91538E+04
  6.38899E+00  2.43833E+04 -2.20171E+04  1.48995E+04 -1.97866E+04  3.78334E+03 -1.16983E+04 -1.18855E+03
  1.31412E+03 -9.37915E+03  2.86033E+03 -3.17283E+03  1.95078E+02  9.52812E+02 -6.47498E+03  3.71973E+03
 -1.23031E+04 -5.42363E+03 -1.74835E+04 -1.31004E+04 -6.06888E+03 -1.59684E+04  5.80529E+03 -1.22115E+04
  5.84028E+03 -8.81174E+03  7.45448E+03  1.94077E+03 -1.25705E+03 -2.25253E+03 -1.21723E+04 -1.05365E+03
 -3.66412E+03 -7.09820E+03 -5.12477E+01 -1.16045E+04  7.35377E+03 -1.12057E+04  1.84187E+04 -9.88228E+03
  1.83857E+04  5.47821E+03  1.99658E+04  1.08587E+04  3.00578E+03  1.49201E+04 -4.52198E+03  1.24551E+04
 -1.22715E+04  6.26197E+03 -7.04801E+03 -4.03466E+02 -1.83971E+03 -9.18223E+02  5.32628E+03 -5.24172E+02
  4.86609E+03  5.02510E+03  8.29060E+02  1.37186E+04 -5.87113E+03  1.16300E+04 -1.31923E+04  3.79271E+03
 -1.05359E+04 -6.60740E+03 -9.11341E+02 -1.44585E+04  5.68354E+03 -4.01601E+03  2.83792E+03  8.94083E+03
  9.10693E+02  1.11896E+04 -5.17366E+01  8.30840E+03 -9.62076E+03  7.88765E+03 -6.94295E+03 -3.87019E+03
 -9.94480E+03 -1.30168E+04 -2.69395E+03 -1.29116E+04  1.30019E+04 -1.27387E+04  1.12192E+04 -5.39291E+03
  6.78053E+03  1.34091E+04  2.02890E+03  9.18501E+03 -1.59149E+04  4.35385E+03 -1.13215E+04 -3.97363E+03
 -1.16353E+04 -8.23031E+03 -2.28546E+03 -1.00264E+04  3.98684E+03 -3.84963E+03  7.41250E+03 -7.64580E+03
  3.32598E+03  5.11501E+03  3.80678E+03  2.34128E+03 -8.21428E+02 -2.82392E+03  5.40395E+03 -2.62082E+03
  6.27315E+03 -3.63657E+03  1.18293E+04  7.42035E+03  1.03266E+04  3.01431E+03  5.14323E+03  1.55004E+04
 -3.40889E+03  1.66749E+04 -9.77113E+03  1.10800E+04 -1.66048E+04  1.02872E+03 -1.67232E+04 -7.67939E+03
 -9.17471E+03 -1.25099E+04 -2.89183E+03 -6.45826E+03  1.36487E+03 -1.26220E+03 -3.83170E+02 -4.82819E+03
  4.21156E+03 -4.08468E+03  3.83426E+03 -5.07491E+03  2.75734E+03 -7.84297E+03  7.79814E+03  1.06940E+03
  6.21528E+03 -1.28441E+03  3.86784E+03  4.52936E+03 -7.55639E+03  1.63246E+03 -7.42910E+03  4.74855E+03
 -1.25829E+04  9.70810E+02 -8.49045E+03 -4.76747E+03  6.80113E+03 -1.62745E+04  2.72636E+02 -6.99201E+03
  1.32623E+04 -1.13775E+04  1.05397E+04 -6.65209E+01  8.71231E+03  7.49273E+03  2.47527E+03  1.13319E+04
 -2.08971E+03  1.24346E+04 -5.00739E+03  7.45095E+02 -3.04459E+03  6.11768E+02  3.86152E+02 -1.97931E+03
  7.51355E+02  3.31467E+02 -8.50840E+02 -1.53033E+03 -7.77115E+03  3.80907E+03 -4.65183E+03  1.36863E+03
 -7.32813E+03 -4.22331E+03 -3.66997E+03 -7.54817E+03  6.97234E+03 -1.11029E+04  8.85359E+03  7.42284E+02
  1.34357E+04  7.90318E+03  3.65356E+03  1.11222E+04 -1.36714E+03  5.69829E+03 -9.21321E+03  4.96851E+03
 -1.01127E+04  1.28962E+03 -7.89882E+03 -6.63578E+03 -5.58141E+03 -8.75668E+03  6.79782E+03 -4.63698E+03
  7.74569E+03 -4.17690E+02 -2.67025E+02  1.42938E+03  6.51592E+02  3.74912E+03  4.31869E+03  1.80227E+03
  6.33929E+03  5.48039E+03  2.80501E+03  2.41455E+02 -1.29595E+03  3.33455E+03  4.53781E+03  4.25611E+03
  3.22915E+03  6.23211E+03 -1.11462E+04  5.69202E+03 -8.45914E+03  4.39790E+03 -5.68566E+03 -2.67407E+03
 -1.18432E+03 -9.12031E+03  2.51930E+03 -4.63968E+03  5.27167E+03 -5.04675E+03  1.01240E+04 -3.01827E+03
  2.57541E+03  6.47350E+03  4.09719E+03 -5.41409E+02 -4.55270E+03  5.31092E+03 -7.71609E+03 -1.27717E+03
 -8.14106E+02 -6.24479E+03  3.21896E+03 -2.34438E+03  4.67419E+03 -3.01959E+03  1.36533E+03 -2.18755E+03
  4.59341E+03  5.56330E+03  4.45444E+03 -8.80670E+02 -1.52057E+02  1.31368E+03  8.42197E+02  1.19037E+03
  1.38471E+03 -1.03160E+03  7.37365E+03  6.69850E+03  1.86470E+03  8.44845E+03 -1.29327E+03  3.09097E+03
  2.48834E+03  7.51892E+03 -4.58111E+03 -1.96033E+03 -7.20890E+03 -2.67311E+03 -5.34392E+03 -3.13999E+03
  6.32244E+03 -5.67967E+03  1.00009E+03  1.48044E+03  6.61047E+03 -1.46403E+03 -3.15437E+03  1.73367E+03
 -6.21849E+03 -5.39780E+03 -7.94121E+03 -6.41257E+03 -4.13742E+03 -4.57054E+03  1.29392E+03 -7.21261E+03
 -6.34667E+02  5.30795E+03  2.19371E+03 -1.86961E+03 -6.38586E+02  3.33449E+03 -2.29272E+03  7.72770E+02
 -1.62726E+03  1.94165E+03  2.00545E+03 -1.80234E+03 -1.06082E+03 -5.28590E+03  1.09670E+03 -1.42825E+03
  7.46342E+03 -1.90699E+02  5.82418E+03  6.23992E+03 -1.47827E+03  6.42559E+03 -1.26135E+03  1.60950E+03
 -5.07151E+03  1.07496E+03 -3.98178E+03  2.92617E+03  7.68209E+02 -3.08844E+02 -1.10073E+03 -1.06746E+03
  6.72429E+03 -6.90061E+02  1.11830E+03 -3.82709E+03  1.89984E+03  7.27193E+03  6.56472E+01 -2.13827E+03
  4.40977E+03  6.88570E+02 -8.49449E+02 -3.97956E+03  4.89283E+02  2.53770E+03  6.74090E+02 -4.95242E+02
 -5.50979E+02  2.50758E+03 -4.53155E+03  2.85720E+03 -6.66592E+03  2.18033E+03 -1.00907E+04 -6.50904E+03
 -4.72309E+03 -7.55599E+03  3.64170E+03 -1.14140E+04  5.93080E+03 -7.11773E+03  6.30403E+03 -3.33034E+03
  9.57066E+03  2.25881E+02  7.11169E+03  9.05356E+03 -1.75331E+03  6.83939E+03  3.31527E+03  2.56421E+03
 -4.03273E+03 -9.35747E+02 -4.84466E+03 -4.69472E+03 -8.38904E+03  1.66208E+03  4.07943E+02 -5.69990E+03
  1.95966E+03  2.59798E+03  2.40597E+03 -4.29072E+03 -5.74027E+03 -2.61479E+03 -3.56477E+03 -7.02165E+03
  3.91639E+03 -4.88443E+03  3.90348E+03 -3.81759E+03  5.43446E+03  8.83166E+01 -3.42500E+02  6.87765E+03
 -5.16248E+03  2.03817E+03 -7.83106E+03 -2.93534E+03 -1.39532E+04 -1.78030E+03 -2.93592E+03 -6.79160E+03
 -2.88539E+03 -6.06212E+03  1.54556E+03 -9.00541E+03  1.97054E+03 -5.85666E+03  8.64571E+02 -9.40559E+02
  4.84387E+03  4.78284E+03 -7.51916E+02 -1.47184E+03 -1.94818E+03 -4.95544E+03  2.04284E+02 -8.30156E+02
  6.10697E+03  4.18737E+03 -2.70699E+03  3.44056E+03  2.19680E+03 -4.01839E+02 -2.42202E+03  3.84241E+03
  3.76749E+03 -1.63905E+03 -4.09430E+03 -3.60528E+02 -5.93902E+02 -2.65349E+03  9.86343E+02 -4.29405E+03
  1.88208E+03 -2.57647E+03 -8.72546E+02 -1.64151E+03  8.79441E+03  7.31693E+03  4.83740E+03  3.25982E+03
  2.78153E+03  3.97725E+03  4.36278E+03 -8.19019E+02 -4.29724E+03  3.09690E+03 -9.69975E+03  2.95964E+02
 -4.97104E+03  1.24886E+03 -3.10848E+03 -7.43935E+01  2.60903E+03 -2.64151E+02 -2.25912E+03 -6.63705E+02
 -4.89540E+03 -1.46627E+02 -4.12730E+03 -3.97662E+03  8.32757E+03 -8.79119E+03  2.50806E+03 -2.41325E+03
  2.52333E+03 -2.31872E+03  3.41458E+03  1.66835E+03  3.56616E+03  2.10303E+03  1.12135E+03  4.49205E+03
