 $NMID ID='MM_0lb_SNR50_18hz_g40_80.RAW', FMTDAT='(8E13.5)'
 TRAMP=1., VOLUME=1. $END
  3.02415E+05  2.13800E+03  3.35314E+05  2.50283E+05  8.40880E+04  3.35073E+05 -1.28507E+05  2.50706E+05
 -1.89635E+05  8.59139E+04 -1.13926E+05 -3.38816E+04  2.27694E+02 -4.72749E+04  5.27151E+04 -3.24297E+03
  3.76313E+04  5.59345E+04 -1.43592E+04  7.35225E+04 -5.99253E+04  6.18840E+04 -7.99848E+04  2.51247E+04
 -8.05197E+04 -1.28868E+04 -5.96155E+04 -4.73302E+04 -1.38006E+04 -6.91129E+04  2.50742E+04 -4.63865E+04
  4.11658E+04  1.79876E+03  1.39596E+04  5.06360E+04 -3.77777E+04  4.93809E+04 -6.63968E+04 -3.27785E+03
 -4.93885E+04 -4.96530E+04 -3.57012E+03 -7.41062E+04  3.62026E+04 -5.22380E+04  4.86732E+04 -1.50120E+04
  3.89807E+04  1.19905E+04  3.11166E+04  2.48889E+04  1.60610E+04  2.79807E+04 -8.46909E+03  2.86660E+04
 -2.16451E+04  8.98226E+03 -1.56081E+04 -6.38968E+03  3.68642E+03 -9.70974E+03  2.09744E+04  1.10985E+04
  6.27650E+03  3.57627E+04 -2.69836E+04  3.17447E+04 -6.20886E+04  3.33838E+02 -5.20617E+04 -3.73449E+04
 -8.77537E+03 -6.21447E+04  3.86052E+04 -4.27749E+04  5.56401E+04 -3.72368E+03  3.03108E+04  2.91400E+04
 -8.61600E+03  2.66324E+04 -2.81220E+04  1.19889E+04 -2.70076E+04 -3.35861E+03 -1.09800E+04 -1.09994E+04
 -6.04459E+03 -1.17806E+04 -3.27819E+03 -1.34130E+04  3.45593E+03 -2.18621E+04  1.20752E+04 -1.24333E+04
  1.41931E+04  9.37119E+03 -4.17106E+03  1.51238E+04 -1.69252E+04 -9.02918E+01 -1.27635E+04 -3.48950E+04
  2.06194E+04 -4.21277E+04  4.53254E+04 -2.13709E+04  4.37076E+04  1.72176E+04  1.35885E+04  4.30790E+04
 -1.85075E+04  2.74436E+04 -2.52792E+04  4.23137E+03 -5.33857E+03 -2.48761E+04  1.81738E+04 -2.79339E+04
  3.27051E+04 -9.24701E+03  3.32788E+04  2.47816E+04  1.50289E+04  4.11472E+04 -7.17567E+03  4.31847E+04
 -2.91203E+04  2.77925E+04 -3.61200E+04  6.47275E+03 -4.05442E+04 -1.88378E+04 -1.90538E+04 -3.26255E+04
  5.96095E+03 -3.42571E+04  2.75974E+04 -1.05179E+04  2.46597E+04  7.41663E+03  1.59215E+03  1.58403E+04
 -1.28304E+04  5.63202E+03 -9.86753E+03 -9.09927E+03  6.24664E+03 -1.05393E+04  1.71913E+04  7.95050E+03
  1.15161E+04  1.95366E+04 -3.14018E+03  2.25704E+04 -1.89989E+04  9.07092E+03 -2.30385E+04 -6.17840E+03
 -1.27008E+04 -1.56028E+04 -7.99979E+03 -1.92702E+04  4.51883E+03 -1.12273E+04  1.23925E+04 -1.20244E+04
  2.41364E+04 -1.22306E+04  2.52242E+04 -1.20227E+03  2.13593E+04  1.51988E+04  5.07632E+03  3.31054E+04
 -1.61374E+04  2.51086E+04 -2.81374E+04  9.23548E+03 -2.47989E+04 -1.29490E+04 -7.40775E+03 -1.33403E+04
  1.67120E+03 -7.18353E+03 -3.39403E+03  1.54403E+03 -1.38483E+04  4.62204E+03 -1.34497E+04 -3.31715E+03
 -5.98772E+03 -1.42792E+04  3.68497E+03 -1.60560E+04  9.92856E+03 -1.39090E+04  1.34225E+04 -5.73214E+03
  1.28270E+04  1.72184E+04  1.36781E+03  1.95902E+04 -1.44516E+04  1.21503E+04 -1.65568E+04 -4.49242E+03
 -1.52026E+04 -1.26874E+04 -2.78589E+03 -1.75779E+04  1.10581E+04 -1.09965E+04  1.44447E+04 -5.98432E+03
  1.20726E+04  4.00242E+03  9.13627E+03 -8.43487E+01 -4.50973E+02 -2.20236E+01  4.49741E+03  3.41169E+03
  1.05644E+04  2.75123E+03  1.58300E+04  1.17524E+04  1.15433E+04  2.34414E+04 -5.29511E+03  2.46472E+04
 -2.05954E+04  2.45212E+04 -2.09632E+04  7.98227E+03 -2.60952E+04 -1.08008E+02 -2.01968E+04 -1.46649E+04
 -1.27388E+04 -2.39366E+04  8.52892E+03 -1.65379E+04  1.61756E+04 -7.27306E+03  1.72223E+04  7.67705E+00
  6.98433E+03  9.89785E+03 -8.68977E+03  1.03042E+04 -1.23628E+04  2.46432E+03 -1.03407E+04 -9.22388E+03
 -3.25992E+03 -9.17800E+03  8.26341E+03 -7.26887E+03  9.27391E+03 -1.04105E+03  1.38497E+03  9.65119E+03
 -5.91621E+03  2.35828E+03 -7.31731E+03 -5.92223E+03  1.16138E+03 -7.27556E+03  6.31348E+03 -8.55329E+03
  1.04463E+04 -3.26936E+03  6.87599E+03  2.49080E+03  9.68649E+03  9.58441E+03  5.65990E+03  1.65043E+04
 -1.41091E+03  1.96723E+04 -1.29783E+04  9.39841E+03 -1.54690E+04 -3.41150E+03 -6.83766E+03 -1.25381E+03
 -4.03688E+03 -1.40650E+03 -1.46104E+03 -6.25909E+02 -4.04549E+03  5.37739E+03 -3.22188E+03  4.39182E+03
 -9.12380E+03  1.86323E+03 -8.59121E+03 -7.70293E+03 -5.85010E+03 -1.24954E+04  5.71560E+03 -8.21924E+03
  1.11610E+04 -2.73641E+03  4.08625E+03 -1.83705E+03  2.91769E+03 -3.15935E+02 -3.34852E+03 -4.21035E+03
 -1.43378E+03 -9.81378E+03  3.41613E+02 -1.12001E+04  5.99205E+03 -8.77596E+03  6.69297E+03 -3.23636E+03
  9.66583E+03 -1.72258E+03  1.17874E+04  1.01274E+04  1.82628E+03  9.18401E+03 -4.92443E+03  8.91620E+03
 -1.03339E+04  2.84954E+03 -2.13459E+03 -2.63992E+03  5.74513E+03 -1.01953E+03  1.11551E+03  8.24392E+02
  2.61557E+03 -6.55266E+01 -4.17182E+01  9.32758E+03  6.96125E+02  8.31687E+03 -4.80542E+03  4.76986E+03
 -6.11733E+03 -5.59970E+02 -1.18212E+03 -3.88758E+03  3.39869E+03 -2.96684E+03  2.34670E+03  8.79089E+02
  2.62439E+03  6.00357E+03 -5.22290E+03  5.79946E+03 -3.82303E+03  4.54216E+03 -5.80310E+03 -5.44127E+03
 -1.38134E+03 -3.06384E+03 -9.75540E+02 -7.81264E+03  1.05787E+04 -2.46079E+03  5.74714E+03  1.71162E+03
  9.82498E+02  3.24830E+03 -1.70574E+02  1.31369E+04 -2.87309E+03  5.24176E+03 -4.46739E+03 -1.65624E+00
 -7.17266E+03 -7.03155E+03 -4.28512E+03 -4.59023E+03  4.64479E+03 -1.32335E+03  2.89882E+03 -3.55460E+03
  7.15303E+01 -1.04820E+03 -1.91436E+03 -1.58845E+03  7.29055E+01 -1.15603E+03 -2.26157E+03 -1.85377E+03
  2.13377E+03 -3.24401E+03  8.58276E+03  1.14290E+03  5.58175E+03  1.20113E+02  6.91473E+03  9.15163E+03
  6.09832E+02  1.49050E+04 -6.14359E+03  5.04707E+03 -6.25403E+03 -3.28496E+03 -7.80019E+03 -1.51586E+03
 -4.25539E+03 -7.41495E+03 -3.10688E+03 -5.92230E+03  6.16826E+03 -7.61205E+02 -2.50364E+03 -4.39093E+03
  2.23447E+03 -2.84243E+03  1.71179E+03 -3.52037E+02  6.29714E+03 -3.15457E+03  7.30218E+02  1.12239E+03
  3.25762E+03  6.68455E+03  1.98447E+02  1.87068E+03 -2.36480E+03  8.38673E+03 -3.56291E+03  3.92671E+03
 -2.15245E+03 -7.84430E+02 -3.13827E+02 -4.86619E+03 -1.93448E+03 -7.75199E+02  3.91681E+03 -2.91716E+03
  2.70380E+03  1.26680E+03  5.68445E+03  2.97875E+03  6.38233E+03  3.18127E+03  8.47873E+02  7.93194E+03
 -4.32952E+03  7.47692E+03 -3.87808E+03  2.64900E+03 -1.92370E+03 -4.88693E+03  6.37478E+02 -2.90341E+02
 -3.79896E+03  1.40683E+03 -2.25189E+03  2.60688E+03 -4.69609E+03  8.63931E+02 -2.22421E+03  2.92314E+03
 -2.94657E+03 -7.23756E+03  6.66800E+02 -4.45092E+03  5.30457E+03 -4.49255E+03  5.99189E+03 -4.49885E+02
  4.12741E+03 -1.17723E+03  3.84653E+03  3.51346E+03 -1.64273E+03  8.94862E+03 -2.13080E+03  3.44470E+03
 -2.83495E+03  6.22874E+02 -4.46481E+03  2.34722E+02 -3.14625E+03 -9.53199E+03 -3.37826E+02 -2.48763E+03
  4.97730E+03 -2.07697E+03  2.33110E+03 -1.32682E+03  1.37415E+03  3.42786E+03  2.48935E+03 -1.36962E+03
  4.92628E+02  3.56492E+03  5.21449E+03  7.94796E+02  8.04692E+02  9.45049E+02  4.02976E+02  4.08512E+03
 -4.46542E+02  5.44949E+03 -5.70467E+03  6.92938E+03 -4.94935E+03 -6.47716E+02 -3.27084E+03 -1.38069E+03
 -4.51110E+03 -3.66209E+03  3.79134E+03  1.16006E+03  1.35266E+03 -3.92133E+02  2.14912E+03 -2.01264E+03
  3.00715E+03  1.31496E+03  3.81932E+03  2.21674E+03 -2.71135E+03  1.49264E+02  1.63702E+03 -7.75575E+02
 -2.37142E+03 -6.21571E+02  6.92596E+03 -1.62641E+03  4.02464E+03  2.87861E+03  1.63287E+03 -6.22820E+02
  4.49624E+03  4.22173E+02  4.35545E+03  1.39034E+03  3.87562E+03 -5.17745E+01 -2.56455E+02 -1.16548E+03
  4.77611E+03  7.67019E+02  1.47060E+01  3.62082E+03 -1.10208E+02  3.61477E+02 -7.20339E+02  1.98445E+03
 -5.30613E+03  1.74742E+03 -4.56512E+03 -1.12367E+03 -6.78217E+02 -2.82793E+03 -1.09523E+03 -3.42419E+03
 -5.28604E+02 -2.03494E+03  2.73044E+03  4.06951E+02  1.53810E+03  8.26816E+02  1.93584E+03 -2.16877E+03
 -1.10961E+02  8.71532E+02 -6.42184E+03 -2.52379E+02 -5.88196E+02 -2.57719E+03 -1.56667E+03 -2.08151E+03
  3.26263E+03  2.76894E+02  2.16805E+03 -1.46119E+03 -1.66158E+03 -1.88054E+03  1.45065E+03  1.72045E+03
  9.12015E+02 -1.16471E+03 -1.86711E+03  2.29060E+03  3.82778E+03 -9.57283E+02  9.58476E+02 -5.87096E+02
  1.53566E+03 -6.54979E+02  2.06593E+03  2.27773E+03  2.43476E+03  3.69366E+03 -1.38627E+03  2.14012E+03
 -9.19229E+02 -1.58018E+03 -1.82071E+03  9.35087E+02 -3.46357E+03 -8.34063E+02 -6.36008E+02 -2.46524E+03
  3.01356E+02 -2.40010E+03  2.12987E+03 -4.88170E+02  1.41945E+03  2.56706E+02  5.66775E+02  1.44210E+03
  2.49611E+03  5.39416E+02  1.19520E+03 -5.09857E+03 -3.37964E+03  3.04786E+03 -2.65705E+03  2.75682E+03
 -1.39099E+03 -6.78331E+02 -5.43043E+03 -4.71385E+02 -3.21788E+03  9.99580E+02 -4.15443E+03  1.58152E+02
 -1.88967E+03 -2.33474E+03  7.20934E+02 -3.95281E+03 -2.81874E+02 -8.21174E+01 -1.01736E+03 -1.49386E+03
  5.36242E+03 -3.80315E+03 -4.29787E+02  3.42267E+03 -4.28883E+03 -2.03763E+03  1.34527E+03 -8.43003E+02
 -3.74220E+03 -5.15775E+02 -1.17277E+03  1.04291E+03 -1.36095E+03 -1.79012E+03 -5.87282E+03  2.20079E+03
  8.14946E+02 -2.04005E+03  1.07000E+03  3.19726E+02 -3.42483E+03  1.81310E+03  1.31127E+02  1.24816E+03
 -3.02667E+03 -4.59907E+03 -2.56155E+03 -3.30575E+02  7.98319E+02  3.87876E+03  1.55083E+03  1.25033E+03
  3.11365E+03  1.83827E+03 -1.25945E+02  1.13440E+03  1.77084E+03  1.19853E+03  8.81282E+02 -1.29677E+03
 -1.44637E+02 -5.34001E+03  2.85321E+03  4.48133E+03 -8.30689E+00  3.93870E+03 -1.18772E+03 -1.20313E+03
  3.33920E+02  1.39659E+02 -3.82166E+03 -1.74039E+03  2.65694E+03 -1.43533E+03 -3.97184E+03 -9.37823E+01
 -3.30838E+03  7.66923E+02 -4.50565E+03  1.36591E+03 -1.58052E+03 -3.02888E+03 -3.73675E+02  2.00027E+03
  2.68551E+03 -4.80164E+03  4.83837E+02 -4.33618E+03  5.90708E+02  1.34244E+03  7.09112E+02  4.17179E+02
  2.26515E+03 -8.04406E+02 -1.12766E+03 -1.21385E+03  3.72882E+03  1.22026E+03  1.17221E+03  2.75881E+03
  2.63583E+03 -1.97271E+03 -2.02746E+02  2.05087E+03 -1.81930E+03 -2.00024E+03 -4.17474E+03 -1.59929E+03
  3.39597E+03 -3.48739E+03  1.06949E+03 -5.36021E+02 -1.33100E+03  6.41019E+02  1.28487E+03 -1.99634E+02
  2.41114E+03  3.12894E+03  4.67549E+03 -2.76291E+03  2.40806E+03 -4.60247E+01  2.54597E+03 -1.01633E+03
  2.96526E+03  2.04691E+03 -1.71711E+03  1.43189E+03  5.88040E+01 -2.56905E+03  1.35584E+03  4.91343E+02
