 $NMID ID='MM_0lb_SNR50_15hz_g55_60.RAW', FMTDAT='(8E13.5)'
 TRAMP=1., VOLUME=1. $END
  3.05237E+05  3.00061E+02  3.40350E+05  2.49084E+05  9.00284E+04  3.42774E+05 -1.33638E+05  2.50963E+05
 -1.88895E+05  8.16710E+04 -1.14547E+05 -3.10704E+04 -2.59465E+03 -4.88255E+04  5.68814E+04  2.17920E+03
  3.64931E+04  5.19645E+04 -1.73744E+04  7.98476E+04 -5.98298E+04  6.16900E+04 -8.53892E+04  3.17577E+04
 -8.32382E+04 -1.25238E+04 -5.19167E+04 -5.13552E+04 -1.01074E+04 -7.02360E+04  2.72551E+04 -4.73356E+04
  3.97513E+04  6.95236E+03  1.89558E+04  4.75614E+04 -3.26368E+04  3.96463E+04 -6.63969E+04  1.30579E+03
 -5.56433E+04 -5.90905E+04 -8.59790E+03 -7.72407E+04  3.10668E+04 -5.86023E+04  4.93852E+04 -1.46432E+04
  4.20540E+04  8.05654E+03  2.97288E+04  2.19385E+04  1.38548E+04  2.97251E+04 -7.15259E+03  2.97868E+04
 -2.22765E+04  1.18820E+04 -1.81317E+04 -1.79252E+03  7.06131E+03 -7.58086E+03  1.75789E+04  1.76154E+04
  6.81330E+03  3.26995E+04 -3.15025E+04  3.58334E+04 -6.34538E+04 -1.45352E+02 -5.74252E+04 -4.07174E+04
 -1.38389E+04 -6.17722E+04  3.74723E+04 -4.49514E+04  6.04693E+04  1.44579E+03  3.77212E+04  3.00895E+04
 -8.05633E+03  3.91894E+04 -2.54063E+04  1.47658E+04 -3.06584E+04 -7.14924E+03 -1.12774E+04 -1.37781E+04
 -1.01737E+04 -1.71233E+04 -1.83968E+03 -2.10700E+04  9.57791E+03 -2.23102E+04  1.33577E+04 -7.55450E+03
  1.32061E+04  2.44578E+03 -6.32604E+03  1.60727E+04 -2.17085E+04 -4.57213E+03 -5.86313E+03 -3.42466E+04
  2.27675E+04 -4.50327E+04  4.93366E+04 -1.69373E+04  4.70365E+04  2.06771E+04  1.07008E+04  4.11623E+04
 -1.93221E+04  3.67254E+04 -3.06623E+04  2.33218E+03 -1.13236E+04 -2.44111E+04  2.20043E+04 -3.29085E+04
  4.25006E+04 -9.59590E+03  3.99311E+04  2.07374E+04  1.74762E+04  4.69180E+04 -4.94467E+03  4.71301E+04
 -3.51989E+04  3.19678E+04 -3.94668E+04  1.47654E+04 -4.46706E+04 -1.44040E+04 -2.42638E+04 -3.82446E+04
  2.07792E+03 -4.12268E+04  3.38001E+04 -2.08562E+04  2.68491E+04  1.11662E+04  8.38832E+03  1.72749E+04
 -9.30841E+03  4.56049E+03 -1.17047E+04 -5.03937E+03  7.23712E+03 -1.29783E+04  1.72870E+04  1.04104E+04
  1.28580E+04  2.00123E+04 -8.03568E+03  2.91229E+04 -1.94537E+04  1.14293E+04 -2.67518E+04 -3.63385E+02
 -1.95622E+04 -1.29240E+04 -9.85660E+03 -2.01145E+04  5.33901E+03 -1.90387E+04  1.81909E+04 -2.12841E+04
  2.66602E+04 -1.22336E+04  3.72136E+04  3.77000E+03  2.25105E+04  2.14469E+04  5.99269E+03  3.29844E+04
 -2.01783E+04  3.06310E+04 -2.84014E+04  1.25501E+04 -1.93444E+04 -1.06394E+04 -4.19218E+03 -1.47754E+04
  1.13567E+03 -2.19020E+03 -5.97208E+03  6.77818E+03 -1.56066E+04  7.49004E+03 -1.71299E+04 -5.90569E+03
 -1.16529E+04 -2.32517E+04  6.14144E+03 -2.40460E+04  1.78941E+04 -1.45904E+04  1.69535E+04 -4.54998E+03
  8.71416E+03  1.38475E+04 -2.49232E+03  1.92233E+04 -1.34576E+04  9.81372E+03 -1.54901E+04 -4.59649E+03
 -1.74554E+04 -1.90074E+04 -5.59866E+03 -2.56846E+04  1.14637E+04 -2.39010E+04  2.17583E+04 -1.18626E+04
  1.52201E+04 -7.51520E+02  1.38667E+04  7.24373E+03  9.89120E+03 -1.57455E+03  5.58397E+03 -2.27156E+03
  2.09070E+04 -5.52240E+01  1.24865E+04  1.45922E+04  9.90811E+03  2.65007E+04 -3.85356E+03  3.78437E+04
 -2.49775E+04  2.95667E+04 -2.73677E+04  9.98252E+03 -2.73171E+04  2.01282E+02 -2.59227E+04 -2.19455E+04
 -1.02701E+04 -2.96824E+04  7.32498E+03 -2.32940E+04  1.59402E+04 -1.31544E+04  1.80222E+04  5.27479E+03
  4.46416E+03  1.61673E+04 -8.39466E+03  1.73923E+04 -1.71114E+04  3.69598E+03 -1.21241E+04 -8.80798E+03
 -1.12372E+03 -1.09462E+04  7.40665E+03 -1.28356E+04  1.46176E+04  2.64260E+03  3.18516E+03  2.43875E+03
 -7.14252E+03  4.04827E+03 -4.80567E+03  1.44516E+03 -6.64827E+02 -1.25249E+04  1.40414E+04 -1.39174E+04
  1.72987E+04 -1.26082E+04  2.50644E+04  7.78580E+03  1.59490E+04  1.24484E+04  7.66415E+03  1.48977E+04
 -6.54893E+03  2.25695E+04 -1.39646E+04  1.41401E+04 -1.78698E+04  1.00945E+03 -5.86528E+03 -6.85092E+03
 -7.65930E+03 -6.22243E+03 -1.86136E+03 -6.68310E+03 -5.26934E+03  1.16679E+03 -6.92072E+03  3.86401E+03
 -9.68248E+03 -1.43210E+03 -7.96254E+03 -7.32495E+03  3.79098E+02 -1.68172E+04  8.40012E+03 -1.04097E+04
  5.95023E+03 -9.87354E+03  2.18864E+03  4.57055E+03 -2.47667E+03  3.55166E+03 -4.56849E+03  3.70163E+03
 -5.34000E+03 -4.60387E+03 -4.38257E+03 -1.37125E+04  8.47088E+03 -9.52550E+03  1.01452E+04 -7.18528E+03
  1.39788E+04 -1.09693E+02  6.58050E+03  8.41530E+03 -5.51305E+02  1.81922E+04 -7.45045E+03  1.34874E+04
 -7.90544E+03  7.03428E+03 -3.65967E+03 -1.53651E+03  4.92788E+03 -5.95516E+03  3.31832E+03 -8.31094E+02
  4.37198E+03  6.39331E+03  1.30023E+03  8.44131E+03 -3.97853E+02  7.40556E+03 -8.19216E+03 -9.45572E+01
 -4.97886E+03 -4.12639E+03  7.76121E+03 -8.66032E+03  7.49558E+03 -5.73832E+03  7.52708E+03 -3.68034E+03
 -8.93877E+02  3.70325E+03 -3.83438E+03  7.30045E+03 -6.61741E+03  1.13495E+03 -1.46323E+04 -3.63914E+03
 -4.92271E+03 -4.40195E+03  5.40066E+03 -1.03938E+04  1.01268E+04 -1.00942E+04  1.28591E+04 -1.03999E+03
  2.63009E+03  9.17855E+03 -1.48092E+03  1.08370E+04 -8.25475E+03  8.66608E+02 -7.90466E+03  2.07196E+03
 -1.09880E+04 -8.14921E+03  2.36590E+03 -6.28836E+03  7.97879E+03 -8.47077E+03  3.42096E+03 -6.03134E+03
  1.69066E+03  8.95324E+02  1.93495E+01  3.85511E+03  1.40193E+03 -1.28245E+03  7.24998E+02 -4.39101E+03
  7.27052E+03 -3.67587E+03  1.00969E+04 -1.79487E+03  9.97942E+03  9.40741E+03  7.64331E+03  1.06847E+04
 -1.32236E+03  1.48731E+04 -8.99127E+03  9.11949E+03 -1.12711E+04  1.74767E+03 -9.44184E+03 -7.92440E+03
 -7.83697E+03 -1.14678E+04 -2.48492E+03 -1.10764E+04  5.77249E+03 -2.78865E+03  5.98646E+03 -1.98949E+03
  5.99808E+03 -6.93417E+03  6.08412E+03  1.61796E+02  5.87638E+03  3.14929E+03  8.97390E+02  2.89557E+02
  4.31492E+03 -1.01564E+03  1.00197E+04  5.52886E+03  2.24699E+03  8.95450E+03 -8.91774E+03  8.50925E+03
 -7.76644E+03 -3.08508E+03 -6.33975E+03 -5.58823E+03 -3.49767E+03 -1.41196E+04  4.63423E+03 -1.08273E+04
  8.10991E+03 -6.79715E+03  8.58154E+03 -1.92037E+03  6.12817E+03  3.69295E+03  8.68841E+03  1.15164E+04
 -1.77815E+03  5.03062E+03 -3.53320E+03  3.18416E+03 -2.07865E+03  2.59711E+03 -8.63990E+02  2.23473E+03
  6.00733E+02 -3.90595E+02  1.44631E+02  1.99729E+03 -2.96982E+03  2.94141E+03 -6.49146E+03  1.33050E+03
  1.70533E+03 -4.13837E+03  4.51506E+03 -1.10051E+04  9.02885E+03 -1.02723E+04  7.26572E+03  1.07658E+03
  5.51486E+03  3.13035E+03  3.30345E+02  5.81698E+03 -2.75899E+03  9.26571E+03 -2.16284E+03  3.62449E+03
 -3.49084E+03 -2.11569E+03 -8.69189E+03 -9.32031E+03 -2.98866E+03 -7.59932E+03  2.46652E+02 -5.95969E+03
  3.93527E+03 -7.98562E+03 -1.57445E+03  4.14765E+03  1.98495E+03  1.85593E+03  2.81136E+03  3.21173E+03
  3.37637E+03  3.74795E+03  4.06778E+03  1.71676E+03  2.13125E+03  2.77688E+03  1.61761E+03  5.59295E+03
 -9.03530E+02  6.52411E+03 -4.70049E+03  7.65534E+03 -8.42118E+03  2.90134E+03 -7.29891E+03 -4.93763E+02
 -9.64178E+03 -2.68964E+03 -1.19669E+03 -7.67005E+03  5.39247E+03 -4.22162E+03  4.00114E+03  2.54775E+03
  7.65598E+02  1.86000E+03 -2.28766E+03 -1.81476E+03  2.28537E+03  5.87195E+03 -1.28467E+03 -4.88526E+03
 -5.82755E+03 -4.10724E+03  3.05027E+03 -4.84596E+03  1.61927E+03 -4.45898E+03  1.02298E+03 -3.59956E+03
 -1.04742E+03  1.79349E+03  7.94376E+02  1.25738E+03  5.15731E+03  5.86701E+03  1.14169E+03 -3.50521E+02
  2.63928E+03  1.13106E+02  7.88607E+03  4.59471E+01  1.82135E+03 -1.17115E+02  3.04501E+03  4.66584E+03
  7.99237E+02 -1.54122E+03 -7.81111E+03  4.23393E+03 -6.60870E+03 -5.19975E+03  6.80397E+03  1.82058E+03
  3.56304E+03  1.71786E+03  3.79557E+03 -1.28200E+03  5.60674E+02  1.21055E+03 -1.98235E+03  5.66113E+02
 -1.53589E+03  1.43766E+03  6.45642E+02 -4.14690E+03 -1.58895E+03 -4.31327E+03 -4.19447E+03 -4.08607E+03
  6.17476E+03 -3.61119E+03  3.35384E+03  1.58751E+03  4.05549E+03  2.25188E+03 -2.89130E+03  4.49771E+03
  3.85449E+03  1.98612E+03 -2.66982E+03  4.37088E+01 -3.76933E+03 -5.63652E+03  7.99834E+02 -6.03346E+03
 -1.54459E+02  2.68308E+02  3.50008E+03 -1.05313E+03  3.21785E+03 -2.55543E+03 -6.57457E+03  6.20219E+03
 -3.21081E+03  4.66296E+03 -5.03421E+03  1.39348E+03  3.10509E+03 -2.79256E+03 -5.96261E+02 -1.54117E+03
  2.46625E+03 -3.95631E+03 -2.13228E+03  1.00684E+03  1.32754E+03 -1.25011E+03  8.22035E+02  3.20695E+03
 -5.20914E+03  2.07594E+03  1.81787E+03  2.24772E+03  2.12969E+03 -2.01542E+03 -5.45984E+03  8.55339E+02
 -5.16547E+03  2.18827E+03 -2.25405E+03  2.04680E+03 -3.30726E+03  1.75601E+03 -5.05849E+03 -2.42578E+02
  1.20648E+03 -4.99286E+03  2.39207E+01 -7.50955E+03 -5.92675E+02 -8.01289E+03 -5.61563E+02 -1.30198E+03
  6.07036E+03 -3.79298E+03  3.11345E+03  8.00927E+02 -4.95078E+02  3.08055E+03  4.81690E+03  1.38393E+01
  2.45050E+03 -1.51855E+03 -7.29680E+03  1.68692E+03 -1.17994E+02 -1.74137E+03  1.37778E+03  3.78414E+03
  3.94378E+03 -6.58145E+02 -2.47752E+03  4.34480E+03  1.77692E+03 -6.83983E+02  2.70889E+03 -3.81283E+03
  1.19211E+03  3.77807E+03  2.92753E+03 -3.25312E+03  3.71514E+03 -1.38127E+03 -5.68167E+03 -3.80178E+03
  3.83783E+03  3.09949E+03 -4.19054E+03  2.99754E+03 -7.57283E+03  1.65917E+03 -9.72083E+02  3.58396E+03
 -5.97104E+02 -3.73651E+03  6.65723E+03 -4.05829E+03 -4.25744E+03  1.32357E+03 -2.74903E+03 -3.54556E+03
 -7.63098E+02 -1.35323E+03  1.48186E+02  6.43865E+02 -2.44603E+03 -3.25148E+03 -9.16376E+02 -2.66564E+03
  2.23735E+02  2.62004E+03  6.38205E+01 -8.42620E+02  8.48059E+02  1.15876E+03 -5.26639E+02  3.70577E+03
  2.74201E+03  2.53967E+03 -5.64425E+03 -4.02057E+03 -3.39480E+03 -3.06185E+03 -3.68946E+02 -3.41247E+03
 -1.01598E+03 -3.11017E+03  3.11117E+03 -1.46856E+03  5.98359E+03 -4.13998E+01 -9.78792E+02  5.72529E+03
  3.69560E+03 -1.24315E+03  1.21031E+03  2.59629E+02 -9.97148E+02  1.15899E+03 -1.36502E+03 -8.32700E+02
 -3.71022E+03  7.85497E+02  4.34387E+02  2.48061E+03  3.59768E+03 -9.61274E+02  3.14659E+03  4.05569E+02
 -3.49897E+03 -2.09289E+03 -8.58554E+02  1.97050E+03  6.61980E+03 -2.96563E+03  2.61540E+03  1.13738E+03
  4.53982E+03 -2.95735E+03  2.72711E+03  1.30861E+03  8.53902E+02  2.19940E+03 -2.05200E+03 -8.72763E+02
