 $NMID ID='MM_0lb_SNR50_10hz_g50_23.RAW', FMTDAT='(8E13.5)'
 TRAMP=1., VOLUME=1. $END
  3.06458E+05  2.77206E+03  3.34905E+05  2.52883E+05  8.40817E+04  3.37001E+05 -1.31487E+05  2.56751E+05
 -1.93286E+05  8.59879E+04 -1.09188E+05 -3.11359E+04 -7.65724E+01 -4.85968E+04  5.43332E+04  4.72137E+03
  4.25662E+04  5.52117E+04 -1.23209E+04  6.98217E+04 -6.44097E+04  6.56438E+04 -8.21570E+04  2.97558E+04
 -8.71599E+04 -1.66858E+04 -6.08362E+04 -5.50221E+04 -1.86833E+04 -6.82565E+04  3.01113E+04 -4.43854E+04
  3.56937E+04  5.52884E+03  1.55895E+04  5.03230E+04 -3.71382E+04  4.06526E+04 -6.53092E+04 -4.31617E+02
 -6.04312E+04 -5.82653E+04 -5.49401E+03 -8.10674E+04  3.10147E+04 -5.60048E+04  5.06578E+04 -1.97382E+04
  4.29558E+04  4.07809E+03  3.10453E+04  3.00556E+04  1.29283E+04  2.97323E+04 -1.10683E+04  2.58711E+04
 -1.40549E+04  8.38092E+03 -2.04027E+04 -6.26368E+03  8.77634E+03 -6.03688E+03  2.55042E+04  1.39110E+04
  6.63935E+03  3.73242E+04 -3.20553E+04  4.26438E+04 -6.57438E+04  5.68598E+03 -6.20961E+04 -4.21454E+04
 -1.37394E+04 -5.90764E+04  4.23428E+04 -4.27231E+04  6.12023E+04  2.18555E+02  3.37332E+04  4.00001E+04
 -7.56247E+03  3.87597E+04 -2.94877E+04  1.34546E+04 -3.32517E+04 -3.33119E+03 -1.17138E+04 -1.13479E+04
 -1.02081E+04 -1.70734E+04 -7.46325E+02 -1.62994E+04  1.03832E+03 -2.12507E+04  1.37284E+04 -7.14863E+03
  7.52113E+03  5.31291E+03 -1.67568E+04  1.00401E+04 -2.30494E+04 -8.70303E+03 -1.09521E+04 -3.71807E+04
  2.62979E+04 -5.04261E+04  4.44172E+04 -1.80300E+04  5.15877E+04  1.93836E+04  2.14301E+04  4.08887E+04
 -1.30736E+04  3.99122E+04 -2.65907E+04  3.35564E+02 -9.60602E+03 -3.04379E+04  1.73811E+04 -3.18989E+04
  4.20845E+04 -1.38727E+04  3.49145E+04  2.64682E+04  2.07570E+04  5.36395E+04 -4.64411E+03  5.22884E+04
 -3.49582E+04  3.57807E+04 -5.26691E+04  9.53509E+03 -4.83597E+04 -2.22559E+04 -2.45285E+04 -4.33792E+04
  9.53670E+03 -4.67363E+04  3.18286E+04 -1.49194E+04  3.29490E+04  1.37941E+04  1.92296E+03  2.06322E+04
 -1.49021E+04  1.24137E+04 -8.71424E+03 -6.61982E+03  1.03310E+04 -1.06601E+04  2.25898E+04  1.67610E+03
  1.47789E+04  2.86705E+04 -7.77794E+03  2.45813E+04 -1.76347E+04  1.50953E+04 -2.86761E+04  4.30919E+02
 -1.98732E+04 -1.93516E+04 -3.26609E+03 -2.11283E+04  5.08383E+02 -2.75234E+04  1.05793E+04 -2.22895E+04
  2.61887E+04 -1.26980E+04  3.00306E+04  1.50355E+01  2.96669E+04  2.47074E+04  3.84558E+03  3.78563E+04
 -2.04740E+04  3.17525E+04 -2.81479E+04  9.70008E+03 -2.05025E+04 -3.71377E+03 -4.67902E+03 -6.23422E+03
 -1.01519E+03  4.52729E+02 -1.25321E+04  2.97941E+03 -2.16837E+04  4.43919E+02 -2.12019E+04 -6.39945E+03
 -1.18169E+04 -2.68624E+04  8.59301E+03 -2.84741E+04  1.76866E+04 -2.46837E+04  2.73378E+04 -3.39456E+03
  1.63361E+04  1.61164E+04 -5.64114E+03  2.31491E+04 -1.71581E+04  7.20735E+03 -1.77217E+04 -9.03521E+03
 -1.24337E+04 -2.17127E+04 -1.28709E+03 -3.08015E+04  1.32626E+04 -2.65627E+04  2.91364E+04 -7.90082E+03
  2.04462E+04 -2.65098E+02  1.41519E+04  9.34136E+03  6.67008E+03  5.44366E+02  9.23008E+03 -8.26387E+03
  1.91144E+04  4.42648E+03  2.44521E+04  1.29412E+04  1.51135E+04  3.89297E+04 -4.32188E+03  4.47421E+04
 -2.72672E+04  3.96312E+04 -3.74947E+04  1.72651E+04 -4.58298E+04 -3.12420E+03 -3.77124E+04 -2.65642E+04
 -9.77352E+03 -2.99381E+04  8.55899E+03 -3.59710E+04  2.04100E+04 -1.65738E+04  2.39448E+04  6.53074E+03
  3.17387E+03  1.84619E+04 -1.37161E+04  1.65187E+04 -1.85661E+04  4.09839E+03 -8.97828E+03 -1.72787E+04
  3.18056E+03 -1.94061E+04  1.36839E+04 -1.56237E+04  6.77411E+03 -4.84227E+03  2.90342E+03  1.29903E+04
 -8.05611E+03  4.79520E+02 -7.48799E+03 -8.04197E+03  1.08976E+03 -1.81453E+04  1.10434E+04 -2.31723E+04
  2.12654E+04 -8.81756E+03  2.01318E+04  1.07630E+04  2.24046E+04  1.62213E+04  8.58952E+03  2.84636E+04
 -3.78005E+03  2.69481E+04 -1.89081E+04  1.89567E+04 -1.69690E+04 -1.28232E+02 -2.06358E+04 -1.24170E+03
 -3.36038E+03 -1.28761E+04 -4.39838E+03 -9.29040E+02 -1.20525E+03  1.46970E+03 -8.69020E+03  2.48815E+03
 -1.53911E+04  1.70064E+03 -1.26193E+04 -1.02603E+04 -5.46221E+03 -1.29893E+04  8.77507E+02 -1.32310E+04
  1.07591E+04 -1.02075E+04  6.81889E+03  9.04667E+03 -1.80049E+03  9.93642E+03 -4.06534E+03 -1.22207E+03
 -6.06053E+03 -1.15597E+04 -3.99138E+03 -1.40432E+04  4.18249E+03 -1.58921E+04  1.59029E+04 -3.96519E+03
  2.10674E+04  1.41185E+02  1.68319E+04  1.23301E+04  3.25589E+03  1.44468E+04 -1.21647E+04  1.63377E+04
 -9.26749E+03  6.61373E+03 -9.29044E+03 -3.68538E+03  5.65755E+03 -5.12929E+03  3.43939E+03 -1.25766E+03
 -5.78421E+01  1.11881E+04  1.70689E+03  4.64984E+03 -4.32890E+03  1.04029E+04 -1.13154E+04 -3.88864E+03
 -1.20702E+04 -1.03691E+04 -7.69030E+02 -9.70775E+03  5.64055E+03 -8.74742E+03  4.66039E+03  2.28520E+03
  6.23524E+03  6.35001E+03 -1.26619E+04  9.10534E+03 -1.01385E+04  5.19779E+03 -1.12331E+04 -3.99577E+03
 -5.25957E+03 -1.14290E+04  5.16698E+03 -1.15553E+04  1.29669E+04 -7.77208E+03  1.05070E+04  1.80898E+03
  5.32444E+03  1.44811E+04  1.43768E+03  1.28673E+04 -9.29028E+03  1.46385E+04 -1.43006E+04 -2.80667E+03
 -1.15284E+04 -1.44102E+04 -3.84762E+03 -1.10801E+04 -3.18239E+03 -9.04994E+03 -9.82996E+02 -5.46338E+03
  3.98888E+03 -5.81149E+03  1.86138E+03 -7.76088E+02 -9.53128E+02  6.19871E+02  1.37388E+03 -2.96989E+01
  1.36679E+04 -4.85005E+03  1.31532E+04  6.32089E+03  1.73058E+04  8.46364E+03  1.28333E+04  2.24280E+04
 -6.43287E+03  2.15596E+04 -1.78566E+04  1.16828E+04 -2.13125E+04  9.87088E+02 -1.48647E+04 -1.34437E+03
 -5.08744E+03 -1.53091E+04 -2.20900E+03 -1.03911E+04 -8.99908E+02 -3.40672E+03  8.66922E+03 -4.24532E+03
  4.92383E+03 -3.28125E+03  7.19397E+03 -8.54668E+03  3.41301E+03 -1.95059E+03  9.87064E+03 -3.81597E+03
  7.97464E+03  5.90800E+03 -1.51527E+03  3.34508E+03  1.93692E+03  1.72432E+04 -1.00670E+04  2.30067E+03
 -1.72862E+04  1.04073E+03 -9.89604E+03 -1.55440E+04 -6.78933E+03 -9.34317E+03  5.81005E+03 -1.19914E+04
  1.57578E+04 -6.15585E+03  2.13583E+04  2.02303E+03  1.20972E+04  1.37357E+04  3.74050E+03  1.77642E+04
 -1.13697E+04  1.78575E+04 -7.93346E+03  5.97854E+03 -1.13068E+04 -6.40898E+03 -3.84858E+03  7.61775E+02
 -1.81990E+03  6.65543E+02 -4.95294E+03  1.93623E+03 -6.58630E+03  5.56511E+03 -1.10255E+04  1.38162E+02
 -7.61142E+03 -1.12408E+04 -2.64638E+03 -9.75955E+03  9.17771E+03 -1.76858E+04  1.29564E+04 -6.15530E+03
  1.07301E+04  1.17920E+04  9.93948E+03  1.27786E+04 -6.54567E+03  1.60042E+04 -1.11182E+04  4.53440E+03
 -1.82851E+04  7.84129E+03 -1.18284E+04 -1.08931E+04  3.70589E+03 -1.04785E+04  4.23329E+03 -5.67303E+03
  1.24017E+04 -9.82994E+03 -1.76008E+03  2.81918E+03  3.29853E+03  5.79625E+03  1.95854E+03 -1.14840E+03
  2.86963E+03 -2.68756E+03 -1.34837E+03  1.90566E+03  6.38135E+03  2.02295E+02  6.90909E+02  4.22863E+03
 -5.35852E+03  7.55100E+03 -7.16419E+03  8.31038E+03 -1.50928E+04  5.93746E+03 -1.79568E+04 -7.55041E+03
 -8.36577E+03 -1.33333E+04  2.57309E+03 -1.23812E+04  2.43990E+03 -1.10755E+04  1.63329E+04 -1.76096E+03
  1.30339E+04  5.00821E+03  8.79531E+02  9.44125E+03  1.37220E+03  7.12535E+03 -5.42954E+03  1.39857E+03
 -4.96865E+03 -6.88217E+03  6.32676E+03 -1.84284E+03  3.04424E+03 -1.78725E+03  2.10658E+03  3.38527E+03
  4.18872E+03  5.31294E+03  6.53197E+03  2.72762E+03 -1.27923E+02  3.53412E+03 -6.85730E+01  6.70638E+03
  3.66224E+03  7.78550E+02  8.42939E+03  6.22048E+03  1.42265E+03  1.01346E+04 -2.54717E+03  1.16048E+04
 -7.85814E+03  6.50890E+03 -1.41605E+04  1.80201E+03 -3.15233E+03 -2.76256E+03 -6.74594E+03 -7.54921E+03
  2.27635E+03 -1.08362E+04  2.34621E+03 -2.47384E+03 -4.65284E+02  4.28829E+03 -7.86463E+02  3.96899E+03
 -1.98926E+03  2.87574E+03 -6.13790E+03 -6.38628E+03 -1.10797E+03 -6.74418E+03  2.60384E+02 -3.10009E+03
  1.46687E+03 -5.99576E+03  6.23648E+03  3.78483E+03  5.17736E+03 -1.44272E+03 -5.77010E+03  6.80251E+03
 -1.66686E+03  3.60357E+02 -1.45503E+03  3.05703E+03  6.47439E+03 -5.12111E+03  6.17294E+03 -6.26222E+03
  1.23902E+04 -6.26783E+03  7.99797E+03  7.20954E+03 -1.90967E+03  6.09444E+03 -1.92776E+03  1.00629E+04
 -1.03678E+04  2.53016E+03 -4.64698E+03 -5.03217E+03 -2.28223E+03 -8.29428E+03  3.10085E+03 -4.45788E+03
  7.13494E+01 -5.87308E+03  4.37071E+03  4.35505E+03  2.29321E+03 -1.73897E+02 -3.20851E+03  2.35447E+03
 -2.44173E+03  1.23824E+03  3.85713E+03 -3.22442E+03 -2.05051E+03  8.06642E+02  3.48819E+03  5.55620E+03
  3.43198E+03  4.75198E+03 -5.79117E+03 -9.29262E+01 -1.01005E+04 -4.71013E+03 -1.29740E+04 -8.09001E+03
 -4.27232E+02 -1.25910E+04 -4.30859E+03 -1.76966E+04  5.78098E+03 -5.22674E+03  1.15743E+04 -2.25395E+03
  9.33598E+03  8.98889E+02  1.09689E+04  8.47037E+03  1.36834E+03  4.83076E+03 -6.68640E+03  8.17163E+03
  2.71069E+03  7.59514E+03 -6.19776E+03  3.25588E+03  3.63399E+03 -3.38011E+03  4.15051E+03 -1.81454E+03
 -3.43045E+03 -6.89869E+02  1.63328E+03 -9.23776E+01 -6.14670E+02 -2.65634E+03  2.88903E+03 -1.20358E+03
 -8.80271E+02 -5.74899E+03  6.32379E+03 -1.88964E+03  4.15427E+03  8.71485E+03 -1.49647E+03  1.38432E+04
 -8.45615E+03  1.12409E+04 -9.50496E+03  9.42437E+03 -7.40568E+03  5.69629E+03 -1.00259E+04 -9.97871E+03
  9.10234E+02 -1.36845E+04  7.85706E+03 -1.62773E+04  1.68424E+03 -9.44932E+03  1.30694E+03  2.94837E+02
  3.23290E+03  7.49645E+02 -2.65600E+03  5.04919E+03  1.30440E+03 -1.79969E+03  1.40428E+03 -4.04117E+03
  8.25938E+03  6.17650E+02  3.02644E+03  2.58349E+03 -5.62183E+02  4.23891E+03 -6.53204E+03  4.08218E+03
 -7.78119E+03  2.49009E+02 -8.07168E+03 -3.66387E+03 -5.11183E+03 -8.16974E+03  2.34163E+02 -4.33845E+03
 -3.36822E+03 -5.59984E+03  9.48521E+03 -3.80905E+03  1.15540E+04 -6.08528E+02  4.73407E+03  4.66431E+03
  3.20306E+03  1.19616E+04 -7.69239E+03  4.11175E+03 -1.67154E+03  3.11085E+03 -2.92432E+03  2.33268E+03
 -1.05088E+03 -9.25443E+03  3.46146E+02  9.25432E+02 -4.71947E+03  1.94530E+03 -9.88420E+03 -6.90431E+03
 -7.68504E+03  2.94880E+03 -4.90901E+01 -9.94151E+03  3.57334E+03  6.75723E+02  4.27910E+03 -8.07546E+01
  7.54238E+03  1.35561E+03 -2.83880E+03  2.08042E+03 -4.86513E+03  6.14283E+03 -5.60673E+03  4.80013E+03
