 $NMID ID='MM_0lb_SNR50_16hz_g40_95.RAW', FMTDAT='(8E13.5)'
 TRAMP=1., VOLUME=1. $END
  3.12061E+05 -8.19579E+02  3.37435E+05  2.50800E+05  8.71246E+04  3.38948E+05 -1.36440E+05  2.50873E+05
 -1.87047E+05  8.22859E+04 -1.13198E+05 -3.32080E+04  9.99748E+02 -5.08646E+04  5.41538E+04  1.92139E+03
  3.94403E+04  5.20387E+04 -2.10965E+04  7.29383E+04 -5.93066E+04  6.03520E+04 -8.44024E+04  3.58352E+04
 -7.91162E+04 -1.14558E+04 -6.04994E+04 -5.08305E+04 -1.18432E+04 -7.33306E+04  2.93675E+04 -4.70712E+04
  3.68094E+04  3.77236E+03  1.39370E+04  4.76044E+04 -3.54382E+04  4.21214E+04 -6.48441E+04 -3.18988E+03
 -5.40662E+04 -5.37875E+04 -6.26691E+03 -7.27817E+04  3.50832E+04 -5.89356E+04  4.54848E+04 -1.37580E+04
  4.37582E+04  1.20143E+04  2.72363E+04  2.91189E+04  1.72629E+04  2.44110E+04 -3.64115E+03  2.59026E+04
 -2.15382E+04  1.23246E+04 -1.79671E+04 -9.89444E+02  5.15426E+03 -1.96043E+03  2.18712E+04  9.21014E+03
  5.45130E+03  3.41890E+04 -3.25154E+04  3.79391E+04 -6.05263E+04 -2.84517E+02 -5.34830E+04 -4.74113E+04
 -1.53728E+04 -5.93345E+04  3.84308E+04 -4.35381E+04  5.98249E+04 -2.26370E+03  3.24742E+04  3.19280E+04
 -8.60577E+03  3.49276E+04 -2.55281E+04  2.08655E+04 -2.79727E+04 -7.22300E+03 -1.69260E+04 -9.19665E+03
 -8.48402E+03 -1.14857E+04 -4.46101E+03 -1.73327E+04  9.21835E+03 -2.09221E+04  1.68207E+04 -1.41914E+04
  9.67730E+03  5.11109E+03 -4.01042E+03  1.35019E+04 -1.98068E+04 -3.15896E+03 -6.05413E+03 -3.00515E+04
  2.15888E+04 -4.03457E+04  4.23243E+04 -2.00372E+04  4.27354E+04  1.63876E+04  1.40607E+04  4.38347E+04
 -1.61791E+04  3.10384E+04 -2.55725E+04  6.25493E+03 -5.25254E+03 -2.55092E+04  1.84961E+04 -3.21052E+04
  3.56552E+04 -1.30370E+04  3.06021E+04  2.75707E+04  1.36353E+04  4.63474E+04 -7.21370E+03  4.53574E+04
 -3.03094E+04  3.07538E+04 -3.78629E+04  7.74799E+03 -3.76984E+04 -1.62679E+04 -2.79822E+04 -3.81851E+04
  5.40473E+03 -3.46261E+04  2.71293E+04 -1.26824E+04  2.85611E+04  1.38887E+04 -8.72177E+01  2.13098E+04
 -8.01072E+03  9.82334E+03 -1.10918E+04 -7.39641E+03  1.04555E+04 -6.93902E+03  1.80063E+04  5.66492E+03
  1.23226E+04  2.59055E+04 -7.60077E+03  2.20898E+04 -2.34613E+04  1.16384E+04 -2.62836E+04 -6.88712E+03
 -1.87563E+04 -1.91682E+04 -5.37721E+03 -1.84933E+04  5.88778E+03 -2.03920E+04  1.33447E+04 -2.03632E+04
  2.48434E+04 -1.55558E+04  3.09288E+04  2.37653E+03  2.15404E+04  1.92571E+04  2.92915E+03  3.47403E+04
 -1.58755E+04  2.44065E+04 -2.74681E+04  8.56373E+03 -2.39475E+04 -7.74958E+03 -2.23904E+03 -9.31673E+03
  4.86393E+03 -3.53378E+03 -4.42564E+03  3.26156E+03 -1.50692E+04  3.74473E+03 -1.44967E+04 -1.39372E+03
 -1.12571E+04 -1.84433E+04  3.26567E+03 -2.38159E+04  1.34084E+04 -1.48221E+04  1.45329E+04  5.13918E+02
  7.12301E+03  1.37855E+04  3.23449E+03  1.93317E+04 -1.29562E+04  7.54031E+03 -1.60114E+04 -3.50058E+03
 -1.18846E+04 -1.70352E+04 -2.41504E+03 -1.94813E+04  1.22633E+04 -1.59794E+04  1.57645E+04 -9.13717E+03
  1.66916E+04 -2.30228E+02  1.12961E+04  4.79964E+03  7.57732E+03 -2.72648E+03  7.60551E+03 -1.94475E+03
  1.31859E+04  7.38056E+03  2.14851E+04  1.25061E+04  1.18169E+04  2.85288E+04 -3.71081E+03  2.55721E+04
 -1.76118E+04  2.56826E+04 -2.66202E+04  9.92216E+03 -2.89900E+04 -1.88129E+03 -2.10263E+04 -1.20641E+04
 -1.57041E+04 -2.33373E+04  7.15252E+03 -2.03258E+04  1.90206E+04 -1.02267E+04  1.47847E+04  5.44202E+03
  5.21402E+03  1.04127E+04 -9.11237E+03  1.17678E+04 -1.20709E+04 -1.94270E+02 -1.35016E+04 -8.01684E+03
 -3.01789E+03 -1.60519E+04  8.10607E+03 -1.06799E+04  7.80214E+03 -3.06779E+03  7.96356E+02  2.34279E+03
 -5.82424E+03  2.12409E+03 -3.11873E+03 -3.84910E+03 -4.40055E+03 -1.13454E+04  1.09927E+04 -8.46364E+03
  1.30061E+04 -6.58657E+03  1.14422E+04  3.23609E+02  1.37801E+04  5.99484E+03  9.31828E+03  1.59380E+04
 -1.07001E+02  2.40866E+04 -9.85835E+03  8.84469E+03 -1.61006E+04  1.00474E+03 -9.81705E+03 -8.42262E+02
 -7.74168E+03 -3.21879E+02  3.03109E+02 -4.06286E+03  6.52244E+03  1.75970E+03 -6.65310E+03  3.45836E+03
 -7.20706E+03  2.74623E+03 -4.82734E+03 -7.53653E+03 -6.55534E+03 -1.40770E+04  4.63644E+03 -1.18713E+04
  8.19398E+03 -6.82322E+02  4.92624E+03  4.96555E+03  1.22679E+03  3.31181E+03 -7.62600E+03  1.43790E+03
 -5.60757E+03 -7.63576E+03 -4.85746E+03 -6.50443E+03  2.11882E+03 -7.11832E+03  1.31889E+04 -7.51356E+03
  1.20609E+04  2.73451E+03  9.22348E+03  8.60286E+03 -1.64024E+03  1.45308E+04 -2.72183E+03  1.15482E+04
 -6.67588E+03  1.81530E+03 -9.49910E+03 -4.19206E+03  2.47591E+02 -4.52636E+03  1.92788E+03 -5.64175E+02
  3.70904E+03  4.23190E+03 -1.67259E+03  6.30907E+03 -4.77319E+03  8.09324E+03 -1.06055E+04  6.78682E+02
 -2.02722E+03 -4.34946E+03  1.08522E+03 -9.16833E+03  2.58797E+03 -1.14461E+04  3.61447E+03  3.09016E+03
 -1.92382E+03  4.55517E+03 -5.17286E+03  3.40335E+03 -8.24296E+03  1.64529E+03 -6.79525E+03 -4.10386E+03
 -1.87460E+03 -9.13807E+03  5.17481E+03 -7.20492E+03  3.44018E+03 -5.53015E+03  1.20748E+04  1.58082E+03
  4.74891E+03  8.14280E+03  6.67779E+03  5.91991E+03 -4.49553E+03  5.44767E+03 -6.41059E+03  8.03875E+02
 -4.38116E+03 -4.65689E+03 -2.71974E+02 -5.81027E+03  7.49702E+03 -5.91221E+03  3.79234E+03  7.93630E+02
  4.03638E+03 -3.30895E+02  1.40286E+03 -1.03213E+03 -1.96056E+02  3.34163E+03 -2.72838E+02 -4.38271E+03
 -3.59078E+02 -2.48133E+02  7.38195E+03 -2.73492E+03  5.28183E+03  5.50620E+03  5.84044E+03  6.38315E+03
 -7.01132E+03  1.14188E+04 -1.16874E+04  1.11571E+04 -1.38838E+04 -1.53291E+03 -1.13069E+04 -6.64281E+03
 -2.37083E+03 -6.13496E+03  3.46214E+03 -1.32301E+04  1.16157E+03 -1.08669E+03  2.65225E+03 -6.89887E+03
 -1.48575E+03 -7.56023E+03  5.99943E+03 -2.48293E+03  3.01542E+03 -3.97704E+03  3.56876E+03 -3.13127E+03
  3.58373E+03  1.50400E+03  2.73304E+03  2.27575E+03 -9.87425E+02  2.09184E+03 -1.07146E+04 -1.18247E+03
 -1.10563E+04 -1.99026E+03 -2.68798E+03 -6.29923E+03 -2.11090E+03 -7.46556E+03  7.83056E+03 -8.82356E+03
  5.24303E+03 -3.44302E+03  1.19934E+04  1.52381E+01  8.90446E+03  6.71393E+03 -6.60162E+02  7.00965E+03
 -1.34211E+03  3.70675E+03 -9.10049E+03  1.83104E+03 -2.55427E+03 -2.43631E+03 -7.65691E+01 -2.25772E+03
 -2.16560E+03 -1.42589E+03 -9.16297E+02 -6.73600E+02 -3.63524E+03  2.11211E+03 -4.64144E+03  1.18849E+03
 -5.99319E+03 -4.90967E+03 -7.20499E+02 -4.75354E+03  4.94312E+03 -7.32898E+03  6.27351E+03 -6.32463E+03
 -6.00092E+02  9.76325E+02  1.61161E+03  3.38071E+03  1.25299E+02  8.29004E+03 -1.70328E+03  4.42032E+03
 -6.70341E+03  1.80560E+03 -3.16965E+03 -5.16397E+03  6.75176E+02 -1.07670E+03  2.94101E+03 -2.50796E+03
  3.82528E+03  2.51572E+03  2.30992E+03  1.12693E+03  5.54887E+03 -1.63449E+02 -3.47971E+03 -2.97074E+03
 -4.82496E+03 -2.07463E+03  2.85913E+03  3.56750E+03  6.40716E+02  4.89445E+03  1.16124E+03  3.04489E+03
 -1.79551E+03  7.71161E+03 -1.04418E+02  4.21588E+03 -5.83111E+03  8.42688E+03 -3.45310E+03  3.15086E+02
 -7.23811E+03 -4.35764E+02  1.73329E+03 -9.39902E+03  1.89718E+03 -9.10232E+03  4.47807E+03 -2.74601E+03
  5.84607E+03  2.09363E+03  2.17470E+02  4.34425E+03 -5.59295E+02  1.87721E+03 -8.55824E+03  3.05485E+03
  3.24508E+02 -3.43628E+03  2.96222E+02 -1.41893E+03  4.33232E+03  1.56610E+03  6.24726E+03  6.96358E+02
 -3.86148E+01  4.66586E+03  4.18343E+03  5.12603E+03 -2.97915E+03  8.54412E+02  3.23696E+02 -4.14848E+03
  2.35207E+03 -2.34139E+01  8.92736E+02  2.98601E+03 -4.80909E+03  9.10024E+02 -4.54209E+03  8.09650E+03
 -1.13219E+03  7.98809E+02 -2.71244E+03 -7.03800E+02 -2.35786E+03  9.58066E+02 -1.63099E+03 -1.02707E+03
 -2.63287E+03  6.46931E+02  6.03175E+03 -1.58710E+03 -3.12836E+02  3.92027E+03 -3.08591E+03  2.30326E+03
 -5.60307E+03  3.54346E+03 -3.91272E+02  5.87086E+03 -2.90793E+03 -3.50604E+03 -3.58321E+03 -2.54864E+03
  6.17764E+03 -1.90225E+03  7.24291E+01 -1.92855E+03  3.73687E+03 -1.34423E+03 -1.63185E+03  8.78171E+02
  2.98002E+02 -3.01011E+03  3.12255E+02  2.91811E+03 -7.70828E+02 -1.99094E+03  6.55712E+03 -3.15113E+03
  2.69837E+03  8.28201E+02  4.82653E+03  5.08803E+03  3.49647E+03  2.40536E+03  1.08842E+03  2.80237E+03
 -1.45741E+03 -4.55064E+03  2.26924E+03  5.69396E+02  2.93528E+03 -2.96625E+03  3.63429E+03 -1.41496E+03
  2.91998E+03 -4.48343E+03 -1.13521E+03 -1.00564E+03  9.45146E+02  2.25437E+03 -1.50271E+03  4.87293E+02
 -2.03337E+03  1.88126E+03 -1.34972E+03 -3.12194E+03 -9.73309E+02  2.12910E+03  1.87890E+03  5.86028E+03
  3.32234E+03  5.05463E+03  2.31025E+03  1.23571E+03 -2.06206E+03 -1.71530E+03 -9.12723E+02 -1.61382E+03
 -1.18220E+03 -5.85821E+03  2.49866E+03 -4.52612E+03  5.67496E+03 -5.00594E+03  8.23979E+03 -6.96321E+02
  9.20749E+02  4.15927E+03  1.44116E+03 -1.24157E+03 -3.74126E+03  1.34560E+03 -1.87898E+03  3.32170E+03
 -2.43792E+03  3.08776E+03  3.18472E+03 -1.70743E+03 -4.61361E+02  4.63542E+02  7.60571E+02  3.87318E+03
 -9.67100E+02  2.05713E+03 -1.92363E+03 -2.64874E+03  1.24218E+03 -6.51657E+02 -3.33901E+03 -3.52692E+02
  8.55642E+02  4.80539E+02  2.24638E+03 -3.33337E+03  1.61052E+03 -1.50438E+03  4.30799E+02  1.38485E+03
 -2.39228E+03 -1.69888E+03 -2.14745E+03  1.27345E+03 -3.24628E+03  6.44447E+03  1.92952E+02 -6.37405E+01
 -1.27711E+03 -4.26143E+03 -3.42917E+03 -1.30284E+03 -1.04980E+03 -2.52366E+03  1.75015E+03  1.07984E+03
 -1.08649E+03  2.04748E+03  2.22246E+03 -5.75866E+02 -1.81010E+03 -9.59971E+02 -2.87518E+03 -5.43882E+02
  2.52683E+03  1.63252E+03 -1.90263E+03 -5.65135E+02 -1.29005E+03 -3.76009E+02  3.94935E+03 -5.36201E+02
 -1.89939E+03  3.42053E+03  2.67264E+02  2.78937E+03  1.37738E+03 -1.43995E+03 -2.71967E+03 -3.75619E+03
 -2.24961E+03  5.30849E+02 -1.29300E+03  1.99091E+03  2.51239E+03 -2.85022E+03  4.40719E+03  3.42729E+03
  2.36810E+03  2.46220E+03 -4.06872E+03 -9.51469E+02 -4.79422E+01  2.50833E+03 -9.42727E+02  5.16663E+02
 -4.05473E+02  4.98291E+02  3.82039E+03 -1.89016E+03  6.01597E+03 -4.10041E+03 -1.61953E+03 -4.49257E+02
 -1.37810E+03 -1.78065E+03 -1.59278E+03 -1.41976E+03  1.57802E+03 -5.64179E+03  4.75524E+03  3.91958E+02
  3.59148E+02  4.27457E+03 -3.61920E+03 -2.34673E+03 -1.51594E+03  5.74783E+02 -2.45394E+03  1.54830E+03
