 $NMID ID='MM_0lb_SNR50_12hz_g45_69.RAW', FMTDAT='(8E13.5)'
 TRAMP=1., VOLUME=1. $END
  3.09690E+05 -6.01787E+03  3.43022E+05  2.54651E+05  8.19334E+04  3.39749E+05 -1.32059E+05  2.46824E+05
 -1.90188E+05  8.47976E+04 -1.14305E+05 -3.27460E+04  1.02355E+03 -5.42838E+04  5.36895E+04  3.51803E+03
  3.48374E+04  5.41533E+04 -1.85270E+04  7.68961E+04 -6.17348E+04  6.45526E+04 -8.54211E+04  3.39318E+04
 -7.90199E+04 -1.12559E+04 -5.89528E+04 -5.34618E+04 -1.68228E+04 -6.93224E+04  2.77450E+04 -4.54485E+04
  4.25248E+04 -1.03868E+03  1.80190E+04  4.55145E+04 -4.63940E+04  4.92164E+04 -7.07128E+04  1.38429E+03
 -5.00293E+04 -5.39702E+04 -1.05788E+04 -7.89826E+04  3.18216E+04 -5.82681E+04  4.94027E+04 -2.04412E+04
  4.15638E+04  1.32617E+04  3.47872E+04  2.06839E+04  1.43611E+04  3.03861E+04 -3.39328E+03  2.65923E+04
 -2.03996E+04  5.25037E+03 -2.36345E+04 -9.47926E+03  1.02152E+04 -8.88557E+03  2.48590E+04  1.82656E+04
  7.51697E+03  3.78015E+04 -2.99609E+04  3.51197E+04 -6.32503E+04  1.43897E+03 -5.75114E+04 -3.87102E+04
 -1.24580E+04 -6.53072E+04  3.89699E+04 -4.63836E+04  6.25333E+04 -1.50541E+03  3.12191E+04  2.95361E+04
 -9.31270E+03  3.60181E+04 -2.74602E+04  2.08656E+04 -3.32649E+04 -2.88676E+03 -1.84444E+04 -1.47352E+04
 -9.11334E+03 -1.00029E+04  7.00574E+02 -1.22434E+04  4.14787E+03 -2.53616E+04  1.75031E+04 -1.35977E+04
  1.02095E+04  7.97062E+03 -5.80699E+03  1.22433E+04 -2.18493E+04 -8.10555E+03 -1.20711E+04 -3.68675E+04
  2.93034E+04 -4.82899E+04  5.44155E+04 -1.78481E+04  4.69603E+04  2.21516E+04  1.49673E+04  4.53559E+04
 -2.04879E+04  3.73595E+04 -2.88437E+04  8.59747E+02 -1.16378E+04 -3.47104E+04  1.98780E+04 -3.18287E+04
  4.11215E+04 -9.24646E+03  3.89773E+04  2.74937E+04  1.93636E+04  4.81088E+04 -7.56112E+03  5.41583E+04
 -3.78248E+04  3.46693E+04 -4.32365E+04  1.26183E+04 -4.84402E+04 -1.53059E+04 -2.28917E+04 -3.97879E+04
  9.36422E+03 -3.72641E+04  3.53331E+04 -1.38008E+04  3.22360E+04  1.41352E+04  1.47735E+03  2.22362E+04
 -1.72612E+04  5.93550E+03 -1.10661E+04 -9.89602E+03  5.05585E+03 -1.14230E+04  2.30271E+04  6.29960E+03
  1.74608E+04  2.10047E+04 -1.45173E+03  2.89870E+04 -2.24710E+04  8.34259E+03 -3.26544E+04 -6.70367E+03
 -1.73110E+04 -2.22109E+04 -9.24780E+03 -1.78930E+04  4.07855E+03 -2.08066E+04  1.64814E+04 -1.99364E+04
  2.25264E+04 -7.70893E+03  3.13944E+04  5.22467E+03  2.22855E+04  2.28647E+04  5.18788E+03  3.83900E+04
 -1.84296E+04  3.05346E+04 -2.75752E+04  8.03704E+03 -1.91606E+04 -1.08567E+04 -5.73228E+03 -1.40616E+04
  4.75912E+03 -7.35577E+03 -1.02938E+03  4.86128E+03 -1.23113E+04 -2.90843E+03 -1.91223E+04 -8.79898E+03
 -9.57113E+03 -2.77895E+04  8.17988E+03 -2.41019E+04  1.52390E+04 -2.06496E+04  1.62268E+04  1.87124E+03
  1.19640E+04  9.19373E+03 -2.62271E+03  2.42158E+04 -1.83960E+04  1.24811E+04 -2.24923E+04 -5.32494E+03
 -1.78710E+04 -1.92648E+04 -2.98904E+03 -2.16745E+04  6.54605E+03 -1.74184E+04  2.22964E+04 -1.43646E+04
  2.27748E+04  3.81550E+03  8.04827E+03  1.25166E+03  8.35739E+03 -1.46800E+03  3.65732E+03 -3.17771E+03
  1.90327E+04  4.17171E+03  2.28498E+04  1.46741E+04  1.35934E+04  3.24079E+04 -1.13711E+03  4.04684E+04
 -1.90690E+04  2.82665E+04 -3.50325E+04  1.63488E+04 -3.42169E+04  7.86437E+02 -2.84832E+04 -2.00778E+04
 -6.90715E+03 -3.57135E+04  9.41807E+03 -2.96464E+04  2.58419E+04 -1.18586E+04  2.24771E+04  8.36572E+03
  5.84320E+03  1.79609E+04 -1.09708E+04  1.04874E+04 -1.73147E+04 -2.23270E+03 -1.68671E+04 -1.11995E+04
  1.97262E+03 -1.97162E+04  8.46010E+03 -8.54115E+03  1.21564E+04 -9.68536E+02  5.81482E+03  8.23360E+03
 -6.07011E+03 -1.83808E+03 -8.76800E+03 -5.95144E+03  2.48876E+03 -1.27726E+04  8.91588E+03 -1.25095E+04
  1.93919E+04 -5.34988E+03  2.17230E+04  4.90289E+03  1.18745E+04  1.52307E+04  7.18871E+03  2.57122E+04
 -6.84125E+03  2.13447E+04 -1.66328E+04  1.70974E+04 -1.40960E+04  2.66273E+03 -9.93449E+03 -2.03668E+03
 -8.76516E+02 -4.77479E+03  2.32553E+03 -1.49768E+03 -1.72652E+03  2.56719E+03 -6.78237E+03  1.13057E+04
 -1.28147E+04  1.95913E+03 -1.42152E+04 -1.29729E+04 -5.75691E+03 -1.42429E+04  4.54494E+03 -1.40683E+04
  1.20471E+04 -6.61843E+03  7.08733E+03  4.01599E+03  1.10431E+03  2.66590E+03 -3.03690E+03 -4.82961E+03
 -2.71684E+03 -1.11554E+04  4.51853E+03 -9.67762E+03  1.06483E+04 -1.25212E+04  1.49560E+04 -6.93993E+03
  2.44923E+04  5.75324E+02  1.56295E+04  1.03480E+04  3.75474E+03  1.58376E+04 -1.44175E+04  1.06010E+04
 -9.47330E+03  5.71168E+03 -5.69238E+03  2.99828E+03  7.18263E+03 -3.13945E+03  3.66732E+03  5.00558E+02
  1.94778E+03 -8.35821E+02 -9.59579E+02  5.76167E+03 -4.42568E+03  1.44120E+04 -1.49322E+04  1.32892E+03
 -8.89809E+03 -6.00912E+03 -2.11244E+03 -1.51319E+04  5.42727E+03 -9.22314E+02  3.65936E+03  1.87735E+03
  9.62642E+02  7.89240E+03 -9.35020E+03  7.65847E+03 -8.03009E+03  1.01775E+04 -6.04123E+03 -6.37234E+03
 -1.78834E+03 -1.22830E+04  3.30272E+03 -5.10437E+03  9.22309E+03 -9.39617E+03  1.15477E+04 -4.84328E+02
  7.87223E+03  4.94150E+03 -7.24149E+03  1.13205E+04 -1.13267E+04  2.48288E+03 -8.11066E+03 -4.61643E+03
 -1.06358E+04 -8.66195E+03 -3.00441E+03 -7.86963E+03  7.34896E+03 -1.64785E+04  7.79430E+03 -5.46890E+03
  2.36994E+03  5.87459E+03  8.30722E+02 -7.89657E+02  4.59669E+03 -3.30019E+03 -3.89799E+03 -5.83502E+03
  5.17179E+03  2.31357E+03  1.23168E+04  5.88890E+03  6.90770E+03  7.83746E+03  5.69087E+03  1.59620E+04
  5.03890E+02  1.88636E+04 -1.22881E+04  1.36272E+04 -2.34591E+04  4.12550E+03 -1.81095E+04 -6.55159E+03
 -5.85527E+03 -1.00092E+04 -1.39156E+03 -7.60739E+03  5.65709E+03 -6.33962E+03  4.59900E+03 -1.05664E+03
  4.83701E+02 -5.47202E+02  8.17396E+03 -6.77968E+03  3.89686E+03 -6.42548E+02  4.08918E+03 -9.17807E+02
  3.79210E+03 -3.89069E+02  2.86140E+03  8.52331E+03 -2.57772E+03  6.22055E+03 -2.66863E+03  4.22289E+03
 -1.06405E+04 -4.37598E+02 -1.61980E+03 -5.23861E+03  6.57200E+02 -8.56279E+03  5.41059E+03 -1.49962E+04
  1.09022E+04 -9.94659E+03  9.03807E+03  2.26755E+03  5.47756E+03  6.37818E+03 -5.44052E+03  8.62777E+03
 -5.47700E+03  7.84837E+03 -7.06459E+03  1.47593E+03 -2.63251E+03 -4.40695E+03 -1.25408E+03  3.85475E+03
 -5.33239E+03 -6.57347E+02 -5.39728E+03 -2.55306E+03 -3.41446E+03  1.83297E+03 -9.36755E+03  2.90642E+02
 -1.05238E+04 -7.92202E+03  4.60782E+03 -1.10467E+04  4.00112E+03 -1.14272E+04  7.71752E+03 -3.81657E+03
  1.00456E+04  5.73622E+03  4.20080E+03  8.33441E+03 -4.25384E+03  1.35242E+04 -5.95820E+03  8.37437E+03
 -5.12419E+03  2.72541E+03 -9.89693E+03 -1.43111E+04 -2.70216E+03 -7.17447E+03  4.78368E+03 -7.96647E+03
  4.44054E+03  1.49962E+03  7.09891E+03  2.31867E+03  6.69924E+03  7.94830E+01  1.19359E+03 -1.23198E+03
  3.36889E+03  6.49983E+03  4.41737E+03 -1.75166E+03 -7.62101E+02  4.13618E+03  1.49750E+03  8.28605E+03
 -2.21970E+03  7.53180E+03 -5.82582E+03  6.13103E+03 -1.15513E+04  1.83692E+03 -1.06780E+04 -2.78543E+03
 -1.56285E+03 -1.55886E+04  3.19356E+03 -1.13126E+04  5.21887E+03 -1.10044E+04  9.15054E+03  2.79535E+03
  1.03072E+04  5.47609E+03 -2.55832E+02  3.07154E+03  4.84440E+02  2.93680E+03 -2.44362E+03 -7.32580E+02
  7.30971E+02 -5.97382E+03  4.95300E+03 -2.73421E+03  1.44347E+03 -2.77117E+03  7.84366E+03  4.80901E+03
 -3.73714E+03  2.92549E+02  1.82063E+03 -2.18482E+02 -3.78563E+03 -9.41178E+02  5.33388E+02 -1.98031E+03
 -1.98427E+03 -3.50568E+03  3.78329E+03 -8.47936E+02  2.14807E+03  7.30387E+03  1.65848E+03  9.36177E+03
 -5.55270E+03  8.25227E+03 -4.88875E+03  3.40685E+03 -2.92185E+03 -4.45538E+03 -6.07192E+03  4.88888E+03
  1.86305E+03  1.21972E+03  1.10668E+03  2.60732E+03  5.25222E+03  1.39586E+03  5.53186E+02 -9.67495E+01
 -3.51364E+03  2.23515E+03 -4.72323E+03 -3.23958E+03  4.76412E+03 -3.11795E+03  1.29507E+03 -3.57765E+03
  1.80778E+02  1.66016E+03  1.40507E+03  3.28435E+03 -2.78967E+03  1.44228E+03  1.69685E+03  6.13931E+03
 -1.86067E+03 -6.47816E+03  4.62846E+02 -3.39597E+03  7.15054E+03 -5.06830E+03  5.64461E+03 -6.75633E+03
  6.58381E+03  2.25293E+03  6.15649E+03  4.30570E+03 -7.89172E+02  6.12468E+03 -2.73086E+03  5.08171E+03
 -5.01710E+03  7.25531E+03 -5.65115E+03 -3.00625E+03 -8.67406E+03 -7.80122E+03  2.22712E+03 -2.66820E+03
  1.81866E+03  3.23190E+03  3.58414E+03 -2.41171E+01  3.06257E+03  2.57747E+03  4.11497E+03  8.62467E+03
 -2.64077E+03 -7.13574E+02  1.75288E+03  4.73998E+03  7.63220E+03  2.24034E+03 -2.31208E+03  2.79130E+03
 -7.53373E+03  1.41604E+02 -7.81658E+03  3.68196E+03 -5.76007E+03  1.65508E+03 -5.15838E+03 -3.76175E+03
 -8.54612E+03 -8.49240E+03 -5.27446E+02 -1.02685E+04  6.35985E+03 -3.40700E+03  1.41021E+04 -6.12203E+03
  9.06693E+03  2.35463E+03  3.12069E+03  6.38387E+03  3.61095E+03  5.61499E+03 -2.09402E+03  3.19055E+03
 -1.63592E+03  1.64749E+03 -9.69284E+03 -1.99472E+03  3.22782E+03 -1.31813E+03 -1.03546E+03 -3.57708E+03
  6.28535E+02  1.63283E+03 -3.50134E+03 -2.76855E+03 -5.23121E+02  1.22251E+03  4.57669E+03  2.94374E+02
  5.62509E+03  1.40053E+03  4.91881E+03 -7.63867E+01  5.19006E+03  1.34855E+03  6.79556E+03  1.12201E+03
 -6.86764E+03  1.15342E+04 -7.55913E+03  9.01341E+02 -8.04098E+03 -1.16787E+03 -1.49279E+03 -5.64507E+03
 -7.06714E+03 -8.48239E+03 -2.11406E+02 -5.40840E+03  2.51513E+03  2.81288E+03  5.73760E+03 -1.75656E+03
 -1.46584E+03 -1.20215E+03  9.49759E+02  1.17869E+03 -3.42872E+03  8.63295E+02 -1.07735E+03 -1.08385E+03
 -7.24558E+03  1.03068E+03  1.46310E+03  1.41478E+03  4.14407E+03  5.40140E+03  7.40901E+01  7.97420E+03
 -7.11638E+03  5.08819E+03 -8.70671E+03 -1.87335E+03 -2.90840E+03 -6.90604E+03 -2.84421E+02 -3.38960E+03
  3.18124E+03  8.37460E+02  2.34855E+03 -2.94749E+03  5.68820E+03  6.87099E+02  3.73497E+03  5.00316E+03
 -4.35724E+03  5.19710E+03  3.67342E+02  2.94709E+03 -1.46741E+03 -2.54283E+02 -4.72306E+03 -2.45252E+03
  2.99277E+02 -7.33044E+02 -1.46879E+02  4.62975E+03  2.63373E+03 -9.72118E+02 -2.53572E+03 -1.57971E+03
 -2.52415E+03 -4.00871E+03  1.39005E+03 -5.94372E+03  5.67763E+03 -5.43029E+03 -3.88394E+03  3.88791E+02
  5.77874E+01 -3.53097E+03 -1.06769E+03  2.51397E+03 -6.53444E+03  4.71753E+03  2.23554E+03  2.35637E+03
