 $NMID ID='MM_0lb_SNR50_15hz_g50_84.RAW', FMTDAT='(8E13.5)'
 TRAMP=1., VOLUME=1. $END
  3.08946E+05  1.40218E+03  3.37637E+05  2.50834E+05  8.51045E+04  3.35300E+05 -1.26382E+05  2.51279E+05
 -1.92971E+05  8.37025E+04 -1.11828E+05 -3.29575E+04 -3.40998E+03 -5.12511E+04  5.31126E+04  1.68650E+03
  2.94245E+04  5.50084E+04 -2.15694E+04  7.94293E+04 -6.15328E+04  6.38175E+04 -8.19387E+04  3.14088E+04
 -8.16180E+04 -1.35959E+04 -5.52814E+04 -4.75862E+04 -1.76862E+04 -7.41042E+04  2.75223E+04 -4.42274E+04
  3.79520E+04  1.47626E+03  1.79503E+04  5.11690E+04 -2.77655E+04  4.75942E+04 -6.80767E+04  3.55908E+03
 -5.28816E+04 -5.58385E+04 -9.22233E+03 -7.76633E+04  2.75771E+04 -5.55149E+04  4.27503E+04 -1.87659E+04
  4.35959E+04  1.36011E+04  2.81403E+04  2.50990E+04  9.59255E+03  2.96459E+04 -7.30688E+03  2.63806E+04
 -1.51517E+04  1.19933E+04 -2.17517E+04 -6.04029E+03  2.79333E+03 -6.10366E+03  2.44580E+04  9.81195E+03
  7.81467E+03  3.71632E+04 -3.26731E+04  3.27139E+04 -6.08737E+04  4.13592E+03 -5.79445E+04 -4.71595E+04
 -7.76059E+03 -6.81429E+04  4.25058E+04 -4.30393E+04  5.78812E+04  1.19258E+03  3.03228E+04  3.10589E+04
 -1.00733E+04  3.47119E+04 -2.85666E+04  1.86638E+04 -3.42723E+04 -6.19117E+03 -1.71300E+04 -1.30239E+04
 -3.48082E+03 -1.44564E+04  1.06818E+02 -2.09978E+04  4.46365E+03 -2.09993E+04  1.60574E+04 -1.14949E+04
  1.11697E+04  4.31898E+03 -1.10945E+04  1.76111E+04 -2.14224E+04 -2.24023E+03 -1.20242E+04 -3.34048E+04
  2.36597E+04 -4.28295E+04  4.90676E+04 -1.72240E+04  4.43436E+04  2.17451E+04  1.02088E+04  4.62144E+04
 -1.43660E+04  3.40764E+04 -2.36841E+04 -1.23724E+03 -1.14416E+04 -2.56785E+04  1.83857E+04 -3.57281E+04
  4.33869E+04 -8.95041E+03  3.12032E+04  2.81730E+04  1.78647E+04  4.88637E+04 -5.88468E+03  4.61197E+04
 -3.48010E+04  3.36081E+04 -4.42536E+04  7.06034E+03 -4.22320E+04 -1.65594E+04 -2.54759E+04 -3.59502E+04
  5.39450E+03 -3.48254E+04  3.41252E+04 -1.75252E+04  3.04789E+04  9.36197E+03  2.39281E+02  1.83135E+04
 -1.41279E+04  5.90640E+03 -1.09532E+04 -1.16379E+04  3.27233E+03 -1.04102E+04  1.81630E+04  4.99475E+03
  1.26062E+04  1.91438E+04 -5.25962E+03  2.24932E+04 -2.54899E+04  1.19200E+04 -2.61119E+04 -2.76596E+03
 -1.98921E+04 -2.03758E+04 -5.27561E+03 -2.21893E+04  3.80001E+03 -2.05660E+04  1.35053E+04 -1.90096E+04
  2.67269E+04 -1.07833E+04  2.87160E+04  3.84461E+03  2.24437E+04  1.96572E+04  6.82738E+03  3.83563E+04
 -1.47451E+04  2.49361E+04 -2.68373E+04  7.48915E+03 -2.14040E+04 -5.02287E+03 -5.13215E+03 -9.10526E+03
  2.26520E+03 -3.11049E+03 -3.43014E+03  1.20041E+04 -9.61113E+03  7.15047E+03 -1.71965E+04 -9.31158E+03
 -1.09888E+04 -1.52357E+04  6.48282E+03 -2.33023E+04  1.81643E+04 -1.53281E+04  1.60017E+04 -4.39703E+03
  1.25353E+04  1.05601E+04 -3.23357E+03  1.80836E+04 -1.28125E+04  7.16809E+03 -2.02639E+04 -9.62147E+02
 -1.52657E+04 -1.67673E+04 -3.55612E+03 -2.52351E+04  1.12159E+04 -1.43641E+04  2.07563E+04 -1.13876E+04
  2.28376E+04  7.54107E+02  1.28118E+04  4.36473E+03  5.28070E+03  5.39086E+03  1.20404E+04 -3.16308E+03
  1.43498E+04  3.38010E+03  2.41806E+04  1.16779E+04  7.81446E+03  3.36321E+04 -3.82421E+03  3.23154E+04
 -2.13749E+04  2.39979E+04 -3.01350E+04  9.53538E+03 -3.10395E+04 -1.63436E+03 -2.77999E+04 -1.96790E+04
 -6.88873E+03 -2.56920E+04  8.34940E+03 -2.76128E+04  1.96196E+04 -1.14270E+04  1.96095E+04  6.48379E+03
  9.09803E+03  1.07822E+04 -7.61305E+03  1.38460E+04 -1.72609E+04  2.80775E+03 -9.18487E+03 -1.15562E+04
  1.92019E+03 -1.60106E+04  9.05842E+03 -1.05681E+04  9.37349E+03 -4.18886E+03  1.05889E+03  1.65282E+03
 -7.77818E+03 -1.02092E+03 -4.70330E+03 -5.21073E+03  6.06484E+03 -1.08446E+04  8.07708E+03 -1.45826E+04
  1.50542E+04 -8.17099E+03  1.54932E+04  3.33391E+03  1.71226E+04  1.31090E+04  9.03638E+03  1.81907E+04
 -5.22392E+03  2.13567E+04 -1.46636E+04  1.43790E+04 -1.85737E+04  1.74654E+03 -1.42520E+04 -2.04491E+03
 -6.70201E+03 -6.36187E+03 -3.40410E+03  3.11806E+03  3.68609E+01  4.99977E+03 -3.11143E+03  2.84880E+02
 -6.12208E+03 -1.51078E+03 -1.07733E+04 -5.35970E+03 -6.49631E+03 -1.16222E+04  4.72895E+03 -1.31816E+04
  7.95827E+03  7.36343E+01  2.05142E+03  1.38530E+03 -2.85734E+03  8.36276E+03 -5.03878E+03 -1.78328E+03
 -2.08077E+03 -8.56734E+03  7.30294E+02 -1.24293E+04  5.52081E+03 -8.71992E+03  1.36010E+04 -8.14658E+03
  1.56263E+04 -6.65972E+02  1.10131E+04  1.09692E+04  2.42851E+03  1.43556E+04 -7.39174E+03  8.09541E+03
 -6.49227E+03  4.91030E+03 -1.26580E+03 -7.88552E+02  9.45655E+02 -3.89150E+03  1.15099E+04 -1.26352E+03
  9.96549E+03  5.27717E+03  9.10990E+01  1.06323E+04 -6.52540E+03  6.34703E+03 -1.40863E+04  2.29650E+03
 -9.11920E+03 -3.04565E+03 -3.74374E+03 -8.17725E+03  3.47026E+03 -2.93785E+03  2.04713E+02  2.26811E+03
  1.32395E+03  8.49174E+03 -1.07844E+03  4.10532E+03 -8.06908E+03  4.98770E+03 -6.57356E+03  2.40319E+02
 -5.13180E+03 -5.02729E+03  2.67679E+03 -1.12862E+04  1.33140E+04 -6.65419E+03  7.96290E+03 -1.48466E+03
  4.05566E+03  7.03312E+03  2.50479E+01  5.66284E+03 -8.82530E+03  3.17607E+03 -7.79763E+03 -1.84685E+03
 -4.92055E+03 -3.46953E+03 -2.46629E+02 -6.10969E+03  8.18730E+02 -5.00579E+03  6.03768E+03 -2.33926E+03
 -7.70609E+02  5.27309E+03  1.57501E+03  6.70519E+02 -1.37917E+03  3.74451E+03  1.46018E+03 -6.81105E+03
  2.13275E+02 -3.94862E+03  1.24700E+04  2.66876E+02  1.18497E+04  6.08517E+03  5.85245E+03  9.15847E+03
 -1.79586E+03  1.14592E+04 -9.25001E+03  8.38584E+03 -1.23005E+04  3.34135E+02 -1.22886E+04 -6.68538E+03
 -5.08150E+03 -8.48248E+03  2.63979E+03 -9.35234E+03  3.66502E+03 -3.95985E+03  7.42018E+03 -3.67132E+03
  2.86399E+03 -1.86898E+02  4.67733E+03 -5.34007E+03  6.60583E+03 -3.47707E+03  6.49295E+03  3.35777E+03
  1.10881E+04  7.68343E+02  1.68734E+03  5.18909E+03 -3.03069E+03  2.18287E+03 -5.71030E+03  5.45278E+03
 -9.36515E+03 -6.42221E+03 -4.20793E+03 -3.92058E+03  2.69639E+03  2.08079E+02  6.73902E+03 -4.12852E+03
  1.19710E+04 -4.03085E+03  1.34331E+04 -3.06156E+02  8.88329E+03  6.60215E+03  1.56011E+03  8.85163E+03
 -1.00908E+02  8.43894E+03 -8.55760E+03  1.23320E+03 -3.76035E+03 -2.38928E+03 -2.54622E+03 -3.74710E+03
  1.20360E+03  1.92306E+03 -2.34071E+03  2.36179E+03 -8.95201E+02  3.12172E+03 -3.16777E+03 -3.92975E+03
 -7.75358E+03  2.64459E+02  4.58685E+02 -8.51581E+03  8.41693E+02 -7.28833E+03  6.13975E+03 -4.06802E+03
  2.30923E+03  2.24692E+03  5.13027E+03  9.28849E+03  2.90428E+03  8.72848E+03 -2.41193E+02  5.66839E+03
 -6.20577E+03  5.01807E+02 -4.67559E+03 -3.85735E+03 -3.41215E+03 -3.93813E+03  1.37056E+03 -4.26831E+03
  5.07455E+03 -3.46410E+03 -8.83616E+01 -2.57263E+03  2.09731E+03  2.91297E+03  1.12876E+03  3.13922E+03
 -2.92219E+03  1.20126E+03  1.42655E+03  5.06037E+03  9.19112E+02  8.48324E+03  2.20409E+03  1.62190E+03
  5.76950E+02  5.02850E+03  7.79619E+02  2.63293E+03 -7.00944E+03  1.63510E+03 -6.61606E+03  2.12209E+03
 -4.18274E+03 -7.35741E+03 -5.51377E+02 -6.86062E+03  4.75467E+03 -3.59504E+03  1.68818E+03 -3.42166E+03
  4.15174E+03  2.37756E+03  4.24331E+03  4.04415E+03 -1.39811E+03 -5.83211E+03  5.97904E+01  1.06029E+03
 -2.03218E+03 -4.15522E+02  2.64850E+03 -3.61533E+03  1.27883E+03 -6.08280E+03  8.04394E+02  1.52148E+03
  2.10190E+03  1.39651E+03 -5.89065E+02 -4.82342E+02 -8.56652E+02  2.90485E+02 -2.68862E+02 -1.86955E+03
 -2.48001E+02 -2.85446E+03  1.40969E+03  2.99325E+03 -8.75214E+02  2.73334E+03  2.45821E+03  4.12364E+03
 -7.39138E+01  5.89548E+03  1.21339E+03  1.47932E+03 -8.90279E+02  1.10166E+03 -6.73141E+03 -1.37649E+03
 -2.32987E+02 -8.22798E+03  1.12112E+03  2.02027E+03  9.17698E+02  5.43567E+03 -5.97932E+02  1.06610E+03
 -3.91400E+03  2.29112E+03 -4.03763E+03 -3.88542E+03 -7.21361E+03 -9.21617E+02  1.60040E+03  8.14743E+02
  4.22683E+03  5.96011E+02 -2.35354E+03 -2.56773E+03  4.05912E+03  2.32862E+03  3.21249E+02  8.67516E+01
  3.14650E+03 -6.39471E+02 -1.52297E+03  1.53095E+03  1.40741E+03 -5.08239E+02  3.60483E+03  7.78077E+01
  6.59259E+03  5.01107E+03  6.23462E+03 -1.13044E+03 -2.05168E+03 -4.53472E+03  3.54814E+02  2.66881E+02
 -7.32070E+03 -2.18450E+03  2.09619E+03 -3.13764E+03 -2.41025E+03  1.05788E+02 -1.58769E+02 -2.26476E+03
  2.08752E+03 -2.01135E+03  2.61723E+03  4.76442E+03 -1.28190E+02  4.32155E+03  9.34428E+02  4.61313E+03
  1.98429E+03  4.32215E+03 -1.63598E+03 -2.02533E+03  9.92462E+02 -1.81046E+03 -1.66096E+02  1.07704E+03
 -2.46049E+03  4.19480E+03  9.48877E+02 -1.73034E+03  1.31107E+03  3.10060E+03 -4.12065E+03 -3.08251E+03
 -4.79090E+02 -2.30774E+03  3.30156E+03 -6.27301E+03  5.42976E+02 -4.75252E+03  5.16055E+03 -2.00004E+03
  6.68142E+03  1.07270E+03  1.36113E+03 -9.50155E+02 -1.91726E+03  4.95466E+02 -3.71283E+02  1.40807E+03
 -4.33359E+03  1.65268E+02 -3.75280E+03  2.23675E+03  2.72247E+03 -2.22800E+03 -5.27080E+03  2.89022E+03
 -1.01312E+03 -1.91122E+03  7.92670E+02 -2.96331E+03  4.26043E+03 -3.06519E+02  1.96023E+03 -3.65922E+03
  1.98026E+03  3.01492E+03  3.26309E+03  2.08100E+03  1.94814E+03  3.06425E+03  2.22163E+03  2.10302E+03
 -1.76513E+03  6.40055E+03 -2.37384E+03  3.31493E+03 -4.25650E+02  4.32950E+02 -2.58544E+03  1.03748E+03
 -1.47420E+03 -3.78496E+03 -9.32409E+02 -3.64910E+03  2.75005E+02  1.46385E+03 -4.59297E+02 -5.18614E+02
  4.59230E+03  3.97786E+03  1.34300E+03  1.20905E+03 -8.56305E+02  1.72707E+03  1.66202E+02  3.55450E+03
  1.21485E+03  4.56811E+03  2.67982E+03  1.15740E+03 -1.30670E+03  4.73672E+02  1.30117E+03  6.68627E+02
 -1.29809E+03  1.40803E+03  5.74478E+02 -6.09631E+02 -8.34181E+03 -1.19771E+03  2.06040E+01 -1.78879E+03
  4.27413E+02 -2.78610E+03  2.85414E+03  1.11016E+02 -2.25489E+02 -3.11880E+03  3.88165E+03  4.88849E+03
 -1.84961E+03  2.08345E+03  6.23450E+02  1.45609E+03 -6.91721E+03 -1.87747E+03 -2.56989E+03 -2.59311E+02
 -4.88553E+03 -3.72345E+01  2.22513E+03 -5.05906E+03 -1.88807E+03 -2.80545E+02 -4.10968E+03 -3.99023E+03
 -5.15480E+03  3.34653E+03 -2.06899E+03 -5.30277E+03 -4.28375E+03 -4.76121E+03 -4.07499E+02 -3.66999E+01
  4.85133E+03  1.33033E+03  2.43089E+03  2.80365E+03 -9.19180E+02  5.51780E+03 -1.11706E+03  7.43419E+02
