 $NMID ID='MM_0lb_SNR50_17hz_g45_24.RAW', FMTDAT='(8E13.5)'
 TRAMP=1., VOLUME=1. $END
  3.06883E+05 -1.47467E+03  3.40625E+05  2.50309E+05  8.58881E+04  3.37789E+05 -1.35991E+05  2.45472E+05
 -1.83299E+05  8.46531E+04 -1.09907E+05 -3.45984E+04 -1.64363E+03 -4.89399E+04  4.93304E+04 -5.89972E+02
  3.71239E+04  4.74322E+04 -1.69321E+04  7.34745E+04 -5.77899E+04  6.18272E+04 -8.20453E+04  3.10941E+04
 -8.07000E+04 -1.11400E+04 -5.78944E+04 -4.84179E+04 -1.24267E+04 -6.99282E+04  2.64650E+04 -4.36906E+04
  4.49455E+04  2.59837E+03  1.48215E+04  5.08783E+04 -3.33628E+04  4.66930E+04 -6.56536E+04 -4.00825E+03
 -5.38895E+04 -5.29879E+04 -6.70820E+03 -7.22043E+04  3.25434E+04 -5.38687E+04  4.35340E+04 -1.54211E+04
  4.20527E+04  1.13179E+04  3.08606E+04  2.17324E+04  1.73425E+04  2.89242E+04 -4.26580E+03  2.83701E+04
 -2.09348E+04  1.06991E+04 -2.01270E+04 -9.62881E+02  2.68671E+03 -9.44685E+03  2.10401E+04  1.33221E+04
  9.71289E+03  3.62658E+04 -3.38572E+04  3.24341E+04 -6.01034E+04  1.92912E+03 -5.64898E+04 -4.34288E+04
 -1.31569E+04 -6.03175E+04  3.97409E+04 -4.55629E+04  5.79356E+04  3.08167E+03  2.89790E+04  3.57884E+04
 -3.96056E+03  3.62492E+04 -3.10621E+04  1.54278E+04 -2.60918E+04 -3.17326E+03 -1.63675E+04 -1.09348E+04
 -6.49020E+03 -1.11123E+04 -3.95978E+03 -1.72313E+04  5.57822E+03 -2.29487E+04  1.24500E+04 -1.46127E+04
  9.31433E+03  8.70548E+03 -6.08165E+03  1.49547E+04 -2.00278E+04 -5.87739E+03 -1.20121E+04 -3.07680E+04
  2.20296E+04 -4.25117E+04  4.46844E+04 -1.77296E+04  4.63833E+04  1.64066E+04  1.22819E+04  4.21924E+04
 -2.04743E+04  3.13946E+04 -2.68718E+04  6.22673E+03 -8.58632E+03 -2.60960E+04  2.10842E+04 -3.18955E+04
  3.80570E+04 -5.95617E+03  3.08615E+04  2.85783E+04  1.62790E+04  4.80806E+04 -7.36734E+03  4.38525E+04
 -2.95477E+04  2.64222E+04 -3.78067E+04  8.42517E+03 -4.30277E+04 -1.50156E+04 -1.86633E+04 -3.26587E+04
  6.20597E+03 -3.51880E+04  2.85656E+04 -1.35967E+04  2.37339E+04  1.31930E+04 -7.60157E+01  1.77376E+04
 -1.44932E+04  5.52954E+03 -7.67259E+03 -8.03680E+03  1.11650E+03 -6.34550E+03  1.74590E+04  2.08219E+03
  8.99888E+03  2.02763E+04 -1.13484E+04  2.43862E+04 -2.01933E+04  7.49709E+03 -2.81525E+04 -1.02954E+04
 -1.91507E+04 -1.76532E+04 -9.80830E+03 -1.58840E+04  2.16301E+03 -1.51307E+04  1.31912E+04 -1.49411E+04
  2.49883E+04 -1.08412E+04  2.77822E+04 -1.19103E+03  2.34412E+04  1.63050E+04  4.20580E+03  2.95189E+04
 -1.62470E+04  2.93922E+04 -2.48757E+04  9.75669E+03 -2.18596E+04 -1.16283E+04 -5.19349E+03 -1.01069E+04
  2.97800E+03 -1.50290E+03 -1.30717E+03  3.94633E+03 -1.60088E+04  3.53729E+03 -1.21331E+04 -7.95809E+03
 -1.04168E+04 -2.11028E+04  7.08620E+03 -2.23827E+04  1.42610E+04 -1.37542E+04  1.52728E+04 -2.54030E+02
  7.86556E+03  1.25114E+04 -9.23610E+02  1.59127E+04 -9.93541E+03  7.13022E+03 -1.63039E+04 -2.80504E+03
 -1.38713E+04 -1.48307E+04 -3.08279E+03 -1.62082E+04  1.05780E+04 -1.75845E+04  1.43959E+04 -3.20376E+03
  2.07013E+04 -9.02337E+01  1.24825E+04  2.82394E+03  3.32577E+03 -2.96211E+02  7.06906E+03 -3.23481E+02
  1.51360E+04  6.80464E+03  1.17229E+04  1.41930E+04  1.13580E+04  2.10215E+04 -3.89906E+03  2.71801E+04
 -1.12912E+04  2.00801E+04 -2.59394E+04  1.05846E+04 -2.81018E+04 -1.40938E+03 -1.73233E+04 -1.20262E+04
 -1.06178E+04 -2.31774E+04  9.11085E+03 -1.95636E+04  1.63737E+04 -9.50533E+03  1.93214E+04  1.88607E+03
  9.86917E+03  1.21604E+04 -5.21996E+03  1.03344E+04 -1.70171E+04  2.40676E+03 -1.19020E+04 -1.12413E+04
 -1.37463E+02 -1.33567E+04  5.58420E+03 -1.05465E+04  7.01527E+03 -4.15460E+03  3.46969E+03  6.15668E+03
 -8.65751E+03  2.50494E+03 -1.09371E+03 -5.50125E+03 -1.76007E+03 -1.07400E+04  6.71979E+03 -1.01237E+04
  1.33695E+04 -4.45159E+03  1.56989E+04  4.63804E+03  8.97442E+03  1.15638E+04  4.79857E+03  1.05096E+04
 -7.17547E+02  1.76007E+04 -8.45796E+03  1.14968E+04 -1.14271E+04  2.56565E+03 -1.56006E+04 -3.82308E+03
 -7.00886E+03 -2.72585E+03 -2.18827E+03 -1.57076E+02  2.43174E+03  2.99989E+03 -5.44122E+03  1.72155E+03
 -1.21178E+04 -2.44121E+03 -7.57624E+03 -8.99314E+03 -6.99326E+03 -1.22330E+04  6.23945E+03 -9.51436E+03
  7.22987E+03 -7.02531E+03  9.69685E+03 -3.86727E+02  2.29989E+03  2.63492E+03 -6.85905E+03 -2.02484E+03
 -3.38497E+03 -2.62098E+03 -4.08688E+03 -8.82410E+03  5.65641E+03 -1.53727E+04  1.25332E+04 -4.35278E+03
  7.89315E+03 -2.86924E+03  1.47516E+04  7.41911E+03  9.40909E+02  1.15607E+04 -7.47126E+03  7.09994E+03
 -5.44730E+03  1.95426E+03 -3.65719E+03 -3.76988E+03 -6.33685E+02  1.23360E+03  8.42273E+03 -9.14384E+02
  5.91820E+03  1.02419E+03  3.05597E+03  1.20176E+04 -3.90719E+03  5.71708E+03 -6.43314E+03  4.28165E+03
 -6.55623E+03 -5.54801E+03  3.39411E+03 -8.90159E+03  6.19515E+03 -4.17715E+03  1.17721E+03 -2.27571E+03
  6.75055E+02  2.30320E+03 -7.02107E+03  4.80008E+03 -5.23426E+03  5.99642E+03 -4.02053E+03 -2.42142E+02
 -4.38555E+03 -8.87268E+03  4.14784E+03 -7.88520E+03  5.00952E+03 -5.53710E+03  9.49503E+03  7.62000E+03
  3.51561E+03  9.65352E+03 -9.70200E+02  9.99408E+03 -9.05973E+03  6.65693E+03 -7.82580E+03  4.88412E+02
 -1.19580E+04 -7.40854E+03 -3.81823E+02 -2.20327E+03  1.04824E+03 -8.13541E+03  3.75940E+03 -1.83217E+03
  2.64900E+03 -1.65596E+03 -5.36810E+02  7.87986E+01  2.84018E+03  2.00432E+03  1.75712E+03 -5.26047E+03
  6.96320E+03  2.70111E+02  2.10196E+03  2.02122E+03  7.65677E+03  1.62373E+03  5.72830E+03  8.63058E+03
  6.83369E+02  4.11576E+03 -6.60106E+03  1.16658E+04 -1.22744E+04  2.85750E+03 -1.07751E+04 -3.76493E+03
 -3.81455E+03 -1.25543E+04  2.39138E+03 -5.93947E+03  4.59652E+03 -2.74248E+03  5.81628E+03 -4.48630E+03
 -1.35626E+03 -3.66502E+03  2.33828E+03 -4.77431E+03  4.78078E+03  1.67387E+03  3.75905E+03  5.87866E+02
  2.01688E+03  4.40713E+03  3.41883E+03  6.54308E+03  2.15553E+03  1.45197E+02 -3.67074E+03  2.94859E+03
 -9.52779E+03 -5.12237E+02 -1.95415E+03 -5.71319E+03  2.32503E+03 -7.60808E+03  3.17833E+03 -5.86974E+03
  2.32158E+03 -4.45910E+03  7.96918E+03 -9.81790E+02  2.96996E+03  4.92170E+03 -4.05305E+02  5.14725E+03
 -3.58396E+03  1.00608E+03  2.27001E+02  3.78533E+03  1.73156E+02  1.05547E+01  8.91863E+02 -1.62673E+03
 -1.11923E+03  2.97454E+03  4.45813E+02  6.75338E+03 -1.51298E+03  2.78350E+01 -6.07696E+03 -1.18730E+03
 -1.64509E+03 -3.23798E+03 -5.48163E+03 -4.73927E+03  7.53827E+03 -8.27960E+03  5.83499E+03 -2.86960E+03
  6.49502E+03  2.92686E+03  3.34777E+03  1.51151E+03  1.66631E+03  7.73530E+03 -3.73166E+03  3.59338E+03
 -1.62882E+03 -6.18712E+02 -5.54996E+03 -4.03991E+03 -4.24564E+02 -2.57681E+03 -2.81831E+03 -1.50888E+03
  4.23158E+03  9.93272E+02  4.22566E+03  1.64071E+03 -4.57773E+02  1.20786E+03  2.09521E+02  4.27429E+03
  3.92608E+03 -1.89777E+02  3.07270E+03  7.16418E+02 -1.48845E+03  3.36406E+03  4.04797E+02 -6.79158E+02
 -1.09690E+03  4.52763E+03 -7.31653E+03  3.86789E+03 -3.27073E+03  2.60567E+03 -6.86762E+03  2.06303E+03
 -4.05290E+03 -7.18418E+03  4.62761E+03 -3.55095E+02  3.87961E+03 -4.61985E+03  2.10488E+03 -5.15640E+03
  2.53181E+03  2.11606E+03 -9.44570E+02  1.07292E+03 -1.31538E+03  3.13678E+03  2.16954E+03 -2.95693E+03
 -7.89224E+02  9.46707E+02  2.63297E+03 -1.60246E+03  7.91897E+02 -4.62795E+03  5.91070E+02  2.28697E+03
  2.33040E+03 -2.08499E+03  1.20132E+02 -3.42387E+03 -2.85950E+02  3.09652E+03 -1.68719E+03 -6.96759E+02
 -4.03504E+02 -5.23426E+02  3.98807E+03 -1.25301E+03  2.28702E+03  2.76639E+03  1.49609E+03  8.85681E+03
 -5.23797E+03 -3.76378E+03 -3.91069E+03  5.41047E+02 -1.55140E+03 -3.89739E+02 -6.03064E+03 -5.19526E+03
 -4.18653E+03 -2.81121E+03  5.19529E+02 -4.85145E+03  1.77715E+03 -8.48290E+02  7.48214E+02 -4.69312E+03
 -2.50862E+03  1.05465E+03 -1.94727E+03  3.36073E+01 -5.06876E+03 -6.30122E+03  3.57838E+03 -7.27447E+03
  3.16405E+03 -1.09818E+03 -1.52939E+03  1.41001E+03  2.22481E+03  4.16798E+03 -1.98892E+03  2.54658E+03
 -2.95361E+03 -4.91098E+02 -3.54994E+03  7.56657E+02 -4.47632E+02 -4.42704E+03  1.84811E+03  3.14976E+03
  3.80078E+02 -4.62806E+03  3.83079E+03  4.84519E+03 -1.02256E+02  3.21375E+03  1.82213E+03 -2.62103E+03
 -1.95783E+03 -1.03078E+03 -3.81198E+03 -1.35114E+02 -4.39776E+03 -5.80093E+03  4.39643E+02 -3.06427E+03
 -3.69070E+02 -1.29904E+03  2.25034E+03  1.58357E+03 -1.67338E+03 -6.04184E+02  3.95723E+02  2.10562E+02
 -2.95129E+03  1.11456E+03  3.89623E+03 -4.84226E+02 -1.65518E+03  1.36503E+03  4.67085E+02  3.19266E+03
 -2.57626E+03 -1.12107E+02 -1.77139E+03  1.19763E+03  8.49444E+02 -1.65055E+03 -3.44403E+02 -1.38249E+03
 -1.65071E+03 -1.27892E+03 -1.34935E+03 -5.07168E+03  4.49791E+02 -5.89540E+02  1.67729E+03 -3.68478E+02
  2.13199E+03 -1.09339E+03  2.85705E+03  8.89644E+03 -3.04107E+02  8.89645E+02 -3.40021E+02  2.98930E+01
 -3.06198E+03  2.50560E+03 -3.44823E+01  3.17245E+03 -6.11614E+03 -7.10894E+02  1.30583E+02 -2.57200E+03
 -6.44057E+03  8.42042E+02  4.38902E+03  4.94811E+03 -1.05854E+03  1.64697E+03 -1.70227E+03 -3.41953E+03
 -1.02033E+03 -4.10608E+03 -9.45354E+02  4.49855E+02  6.92232E+03 -9.03447E+01  4.69353E+03 -7.65193E+02
 -4.27633E+03  1.25443E+03 -1.15343E+03  9.72788E+02 -3.96231E+03  1.59838E+03 -4.19048E+03 -2.86334E+03
 -3.27676E+03  5.35157E+02  1.37104E+03 -2.97294E+03  2.51795E+03 -2.50556E+02 -1.43996E+03  2.16597E+03
  4.25570E+03  1.54395E+03  7.39782E+01  4.48008E+03 -3.09946E+03  2.81932E+03  2.25348E+03  3.16453E+02
  3.07466E+03  2.34561E+02  3.88768E+03  2.89420E+03 -1.28001E+01  1.10397E+02 -8.51276E+01  3.95051E+02
  2.19539E+03  1.60384E+03  2.81880E+03 -3.23712E+03  8.50344E+02 -1.43719E+03  2.86085E+03 -4.51254E+03
  1.65165E+03  1.69107E+02 -4.32288E+02  1.59529E+03  6.59014E+03  5.32080E+03  8.00589E+02 -1.06220E+03
 -3.14115E+03  1.79701E+03  2.46351E+03  1.35648E+03  8.41550E+02 -1.02684E+03 -3.77597E+03  9.50609E+01
  3.22535E+03 -9.01858E+02  8.54708E+02  1.73287E+03  3.38988E+03 -2.47877E+03  1.05279E+03  1.61183E+03
 -1.02510E+03  2.35967E+01 -8.52926E+02 -1.84383E+03  9.14209E+02 -2.47264E+03  6.63073E+03 -3.53388E+03
  3.64872E+03  5.28342E+03 -2.54352E+03  4.65237E+02  3.57346E+03  3.12229E+03 -3.63838E+03  6.88909E+03
