 $NMID ID='MM_0lb_SNR50_8hz_g50_16.RAW', FMTDAT='(8E13.5)'
 TRAMP=1., VOLUME=1. $END
  3.03992E+05  3.18086E+03  3.32544E+05  2.50262E+05  8.58896E+04  3.34523E+05 -1.31796E+05  2.55099E+05
 -1.89615E+05  8.79408E+04 -1.10189E+05 -3.06851E+04 -1.98319E+03 -5.61190E+04  4.80549E+04 -2.06933E+03
  3.35285E+04  5.13878E+04 -1.60150E+04  8.34251E+04 -6.54961E+04  6.69834E+04 -8.73684E+04  2.95359E+04
 -8.24495E+04 -1.05913E+03 -5.07524E+04 -4.60785E+04 -1.84948E+04 -7.64923E+04  2.94250E+04 -5.10549E+04
  4.64913E+04  6.11096E+03  1.51342E+04  4.56278E+04 -3.09000E+04  5.17237E+04 -6.13033E+04  2.22683E+02
 -5.38166E+04 -6.16323E+04 -5.49485E+03 -8.25476E+04  4.05646E+04 -4.89698E+04  4.27119E+04 -2.05130E+04
  4.89477E+04  1.24159E+04  3.06738E+04  2.33453E+04  1.90626E+04  3.21823E+04 -6.90588E+03  2.23717E+04
 -2.51116E+04  1.62567E+04 -1.88781E+04 -7.87126E+02  6.90718E+03 -6.88759E+03  2.25535E+04  1.25783E+04
  4.14617E+03  3.80501E+04 -3.35416E+04  3.76080E+04 -6.90657E+04  5.17135E+03 -6.18432E+04 -4.77760E+04
 -7.67580E+03 -6.23449E+04  4.42684E+04 -4.87636E+04  5.99401E+04 -1.19495E+04  3.19846E+04  3.14201E+04
 -1.09956E+04  4.59711E+04 -4.06077E+04  2.03308E+04 -3.85454E+04 -9.35570E+03 -2.11357E+04 -1.05786E+04
 -6.41896E+03 -9.33500E+03 -6.70943E+02 -2.18650E+04  7.75206E+03 -2.35650E+04  1.71175E+04 -6.64770E+03
  7.25307E+03  9.36758E+03 -1.35502E+04  8.19074E+03 -2.32913E+04 -7.52707E+03 -6.31784E+03 -3.62733E+04
  2.58894E+04 -5.24745E+04  4.85501E+04 -1.92158E+04  5.19678E+04  2.50309E+04  1.48599E+04  4.57131E+04
 -2.00416E+04  4.61995E+04 -3.14985E+04  8.97590E+03 -1.30494E+04 -2.89264E+04  2.08745E+04 -3.68393E+04
  4.47508E+04 -1.57268E+04  4.34739E+04  2.89837E+04  2.55529E+04  5.22325E+04 -1.03714E+04  6.07672E+04
 -4.15877E+04  3.12355E+04 -5.01864E+04  5.67562E+03 -5.10785E+04 -1.48208E+04 -3.24087E+04 -4.55827E+04
  1.05024E+04 -4.49458E+04  3.99855E+04 -1.38227E+04  3.30726E+04  1.11631E+04  7.14050E+03  2.37812E+04
 -1.45613E+04  5.48952E+03 -9.05116E+03 -1.76057E+04  4.85603E+03 -9.07056E+03  1.63041E+04  3.63211E+03
  1.45946E+04  2.58150E+04  9.86717E+02  3.44342E+04 -2.25862E+04  1.94819E+04 -3.39486E+04  2.22673E+03
 -3.08319E+04 -9.32868E+03 -1.52622E+04 -2.75519E+04  8.45505E+03 -2.91121E+04  1.87921E+04 -2.72446E+04
  3.49169E+04 -6.08345E+03  3.88920E+04  6.81543E+03  2.70907E+04  2.37767E+04  8.65793E+03  4.49731E+04
 -1.92715E+04  4.00640E+04 -3.43586E+04  1.34202E+04 -2.19876E+04 -1.27918E+04 -6.29865E+03 -1.58709E+04
 -1.46260E+03 -1.50980E+03 -2.05500E+03  1.14394E+04 -1.00489E+04 -1.33350E+03 -2.12287E+04 -9.17162E+03
 -1.52753E+04 -2.26167E+04  1.40695E+04 -2.77817E+04  1.89467E+04 -2.13569E+04  2.55062E+04 -6.90292E+03
  1.37903E+04  1.33660E+04 -3.37174E+03  2.63251E+04 -2.09107E+04  4.17386E+03 -2.59954E+04 -4.02660E+03
 -1.53141E+04 -1.21655E+04 -5.88641E+03 -2.61995E+04  1.56340E+04 -2.45633E+04  2.39010E+04 -1.63689E+04
  1.60500E+04 -1.53180E+03  1.64816E+04  6.01123E+03  9.06464E+03  4.27251E+03  1.60823E+04 -2.13790E+03
  2.25363E+04  2.74120E+03  2.38922E+04  2.17047E+04  1.18000E+04  3.87131E+04  1.62345E+03  4.90689E+04
 -2.69708E+04  4.71968E+04 -3.93950E+04  1.91317E+04 -4.55687E+04 -1.43285E+03 -3.72131E+04 -2.66716E+04
 -1.64456E+04 -3.75934E+04  5.37939E+03 -3.25630E+04  3.98212E+04 -2.16257E+04  2.60621E+04  1.18749E+04
  1.02007E+04  2.17488E+04 -4.81905E+03  1.91215E+04 -1.86553E+04  4.14568E+03 -1.72540E+04 -3.34962E+03
 -5.88212E+02 -1.47666E+04  1.20823E+04 -1.71480E+04  1.11471E+04 -9.80103E+02 -3.46242E+03  6.39873E+03
 -5.42810E+03  3.26010E+03 -1.59921E+04 -1.14115E+04 -2.79729E+03 -1.16561E+04  1.31335E+04 -2.64959E+04
  2.10177E+04 -2.11850E+04  3.12537E+04  1.02484E+04  2.77185E+04  1.82283E+04  1.28212E+04  3.51305E+04
 -4.15553E+03  3.37814E+04 -1.28911E+04  2.33282E+04 -2.21983E+04  1.01787E+04 -1.83468E+04 -5.54948E+03
 -5.87134E+03 -8.71329E+03 -2.63414E+03  4.82020E+03 -1.47275E+04 -7.39714E+02 -9.56823E+03  6.85025E+03
 -1.78284E+04 -4.10789E+03 -1.09022E+04 -1.10350E+04 -5.83357E+03 -2.06637E+04  1.37087E+04 -1.15790E+04
  1.89664E+04 -2.48138E+03  1.04131E+04  2.16724E+03 -3.54133E+03  1.17418E+04 -2.77345E+03  2.64326E+03
 -4.49101E+03 -1.86835E+04  6.75927E+02 -1.43534E+04  1.07958E+04 -1.99636E+04  2.28418E+04 -1.40395E+04
  2.74920E+04 -8.14204E+03  1.88539E+04  1.97747E+04 -3.75875E+03  1.97117E+04 -1.07849E+04  1.66894E+04
 -2.20542E+04  7.25339E+03 -1.14663E+04 -5.29394E+03  4.41029E+03  2.15110E+02  3.46123E+03 -7.33012E+03
  1.23010E+03  7.08962E+02  1.11125E+03  7.26512E+03 -4.26412E+03  1.34733E+04 -2.36143E+04  2.84827E+03
 -1.55768E+04 -1.05803E+04  7.54614E+02 -1.13418E+04  1.25651E+04 -9.86278E+03  1.09010E+04  2.55382E+03
  3.58999E+02  1.27723E+04 -4.49964E+03  1.65812E+04 -8.40138E+03  9.79464E+03 -1.54669E+04 -4.40605E+03
 -2.30840E+03 -9.15956E+03  7.33739E+03 -1.47357E+04  1.38920E+04 -1.57668E+04  2.07978E+04  6.18441E+03
  2.47633E+03  2.02931E+04 -2.64337E+02  1.22014E+04 -1.59743E+04  9.87083E+03 -1.51443E+04  8.98697E+02
 -1.25482E+04 -9.65529E+03 -8.52444E+03 -1.78093E+04  5.05452E+03 -1.34955E+04  8.01264E+03 -5.89855E+03
  2.32715E+02  2.11097E+03 -7.10891E+02  1.17368E+03 -1.17165E+03 -6.69345E+03  4.94748E+03 -4.22327E+03
  1.35566E+04 -8.38047E+03  2.01080E+04  9.47544E+02  1.61629E+04  1.35707E+04  1.02727E+04  2.27293E+04
 -8.42744E+03  2.79818E+04 -2.45012E+04  2.31284E+04 -3.48057E+04  3.51848E+03 -1.35543E+04 -9.87077E+03
 -9.85642E+03 -1.75719E+04 -3.90286E+03 -2.18842E+04  6.57495E+03 -8.09712E+03  4.02807E+03  4.36114E+03
  1.26824E+03 -1.98121E+03  3.81760E+03 -3.98438E+03  5.02824E+03 -6.23937E+03  1.16170E+04 -5.14418E+03
  1.87027E+04 -5.14934E+03  7.87412E+03  3.62466E+03 -2.83282E+03  1.24872E+04 -1.35303E+04  1.00170E+04
 -1.42094E+04 -7.47287E+03 -1.11073E+04 -1.42163E+04  1.83379E+03 -1.55885E+04  8.97064E+03 -1.37140E+04
  1.90631E+04 -1.15986E+04  2.57424E+04  5.11928E+03  1.03296E+04  1.60333E+04 -2.08074E+03  1.67111E+04
 -5.49185E+03  1.34277E+04 -1.24518E+04  7.58992E+03 -8.13355E+03 -4.40248E+03 -4.35974E+03 -4.68379E+03
 -1.85732E+03  4.79244E+03 -1.38327E+02  1.09241E+04  1.39422E+03 -6.08793E+02 -1.24503E+04 -8.29019E+03
 -1.01869E+04 -9.58446E+03 -3.86763E+02 -1.63558E+04  1.22002E+04 -2.00778E+04  9.33591E+03 -4.48585E+03
  2.78215E+04  1.03661E+04  3.83900E+03  1.38186E+04 -5.72972E+03  1.45433E+04 -1.63004E+04  9.93998E+03
 -1.98425E+04 -6.06078E+03 -1.25645E+04 -1.31977E+04  8.31854E+03 -1.43387E+04  1.01371E+04 -7.21895E+03
  1.59192E+04 -3.25539E+03  9.03918E+03  6.97679E+03  1.93118E+03  2.70867E+03 -4.86061E+02 -2.21695E+03
  7.81963E+02  5.46649E+03 -2.09171E+03  5.70739E+03  8.26479E+03  6.32140E+03  4.93143E+03  1.29416E+04
 -1.23726E+04  1.84334E+04 -1.06661E+04  2.11216E+04 -2.34254E+04 -3.22443E+03 -1.53879E+04 -1.38177E+04
 -5.60467E+03 -1.12533E+04  6.31798E+03 -1.63176E+04  1.10467E+04 -1.39546E+04  1.15560E+04 -1.00109E+04
  9.74803E+03  1.03639E+04 -2.32969E+03  5.84565E+03 -4.88835E+03  8.01046E+03 -8.45781E+03 -3.83485E+03
 -3.81166E+03 -4.61239E+03  4.10031E+03 -8.05520E+03  1.08308E+04 -5.35108E+03  9.61652E+03 -1.37007E+03
  4.57330E+03  6.45770E+03  7.68197E+02  5.70581E+03  1.82900E+03  7.38872E+02  2.39310E+03 -2.56018E+03
  3.34344E+03  4.81410E+03  6.04536E+02  5.18088E+03  4.96952E+03  9.13308E+03 -1.82568E+03  1.23275E+04
 -1.05434E+04  6.28175E+03 -7.49771E+03  7.35577E+03 -4.76122E+03 -3.49936E+03 -5.10219E+03 -1.30788E+04
  1.42080E+03 -3.05563E+03  3.95036E+03  1.07485E+03  8.12798E+03  4.70261E+02  5.73380E+03 -3.36354E+03
  8.86128E+02 -4.39831E+03 -1.18398E+04 -8.28025E+03 -7.12036E+03 -1.41779E+04 -7.51783E+03 -1.37385E+04
  4.98248E+03 -9.14412E+03  7.96679E+03 -1.78067E+03  4.95021E+03 -2.84694E+02  6.58175E+03  9.68594E+03
 -1.16628E+04  2.69334E+03 -6.43221E+02 -8.17490E+02  5.40189E+03 -8.15129E+02  1.05148E+04 -7.99878E+03
  8.06847E+03 -9.10490E+02  7.61727E+03  1.24599E+04  1.18154E+04  1.64248E+04 -1.32832E+03  1.10537E+04
 -1.43445E+04 -2.06001E+01 -5.09381E+03 -6.00959E+03 -7.77598E+02 -9.76933E+03  4.55132E+02 -8.86399E+03
  4.13874E+03 -3.82989E+03  1.43371E+04  1.87077E+03  6.58807E+03  8.09674E+03 -3.19269E+03  9.39697E+03
  1.47084E+03  1.49461E+03 -3.56006E+03 -1.00725E+03 -1.16749E+03 -2.52799E+03 -1.21252E+02  2.21428E+03
 -3.17849E+03  4.72609E+03 -6.80804E+03 -6.49434E+02 -1.22324E+04  5.05922E+03 -1.47469E+04 -5.48390E+03
 -9.19400E+03 -2.46589E+04  1.29844E+03 -1.66052E+04  4.15428E+03 -1.61874E+04  2.04033E+04 -3.08097E+03
  1.40473E+04  3.88617E+03  1.48871E+04  1.47445E+04  8.16761E+03  1.17834E+04 -8.03718E+03  8.41508E+03
 -8.88708E+03 -3.01654E+03 -3.54565E+03 -5.69454E+03 -3.72588E+03 -2.20909E+03 -7.83394E+03  3.73119E+03
 -1.92902E+03  1.09557E+03 -2.72405E+03  4.79312E+03 -4.35401E+03 -5.24319E+03  8.01629E+02 -1.81133E+03
  8.74130E+03 -6.33480E+02  6.13764E+03  6.58051E+03  3.86095E+03  3.83330E+03 -1.51958E+03  1.37323E+04
 -2.83927E+03  1.00927E+04 -9.40490E+03  1.06192E+04 -1.35861E+04  3.89998E+02 -8.64739E+03 -9.15557E+03
 -1.10562E+03 -9.37165E+03  3.30024E+02 -6.62727E+03  4.91833E+03 -6.43635E+03  1.16953E+04 -4.63257E+03
  5.74392E+03 -1.70803E+02 -8.88614E+03  4.82657E+03 -6.98957E+02  4.33014E+02 -4.08817E+03 -1.21688E+03
  1.41537E+03  1.44389E+02 -4.80502E+01  3.96055E+03  1.72772E+03  2.40475E+03 -3.71384E+02  6.50099E+03
 -7.51742E+03  3.03822E+03 -1.53814E+04 -8.00698E+02 -1.34049E+04 -8.41863E+03  4.42302E+03 -1.01917E+04
 -5.28128E+02 -1.42305E+04  8.55936E+03  1.67322E+03  1.54620E+04  2.50067E+03  1.12799E+04  6.60347E+03
  1.12219E+03  1.54212E+04 -1.08021E+03 -8.19802E+02 -1.35821E+04 -4.46082E+03 -4.41889E+03  5.95512E+03
 -7.30354E+03  1.76242E+03 -1.32860E+03 -5.11236E+03 -3.18450E+03  6.12992E+03 -7.86501E+03  8.09684E+02
 -4.76438E+02  4.10001E+03 -6.94828E+03 -1.35577E+04  5.35536E+03 -1.00701E+04  1.39705E+04 -4.98156E+02
  5.62033E+03  5.08531E+03  5.52589E+03  9.86366E+03  2.62853E+03  7.18325E+03 -6.72935E+03  1.67996E+03
