 $NMID ID='MM_0lb_SNR50_14hz_g40_5.RAW', FMTDAT='(8E13.5)'
 TRAMP=1., VOLUME=1. $END
  3.04894E+05 -3.09884E+03  3.38164E+05  2.49348E+05  8.32828E+04  3.34932E+05 -1.36481E+05  2.54536E+05
 -1.85682E+05  8.57236E+04 -1.13054E+05 -2.70417E+04  2.88334E+03 -5.09505E+04  5.17756E+04  2.14153E+03
  3.52843E+04  5.41981E+04 -1.82256E+04  7.02232E+04 -5.93638E+04  5.86446E+04 -8.11443E+04  3.15333E+04
 -8.29684E+04 -1.17748E+04 -5.50575E+04 -5.34646E+04 -1.46196E+04 -6.98732E+04  2.83049E+04 -4.93624E+04
  3.77698E+04  2.54489E+03  1.20491E+04  4.37620E+04 -3.36548E+04  4.66787E+04 -6.49521E+04 -4.89693E+03
 -5.50440E+04 -5.64872E+04 -3.98303E+03 -8.08181E+04  3.78073E+04 -5.73041E+04  4.52932E+04 -1.37930E+04
  3.95302E+04  8.35597E+03  3.32550E+04  2.67684E+04  1.13363E+04  2.46530E+04 -1.01539E+04  2.43549E+04
 -2.28758E+04  1.13080E+04 -1.32318E+04 -2.79789E+03  1.65078E+03 -5.01132E+03  2.12994E+04  1.17645E+04
  5.86761E+03  3.22846E+04 -3.11357E+04  3.79323E+04 -6.40025E+04  9.48649E+02 -5.82454E+04 -4.86555E+04
 -9.41023E+03 -6.31367E+04  4.32978E+04 -4.16187E+04  5.69481E+04 -4.26872E+03  3.57758E+04  3.24717E+04
 -9.62218E+03  3.67142E+04 -3.06423E+04  1.63170E+04 -3.00498E+04 -5.04155E+02 -1.35926E+04 -1.09627E+04
 -7.25401E+03 -1.10246E+04 -1.55140E+03 -2.00441E+04  3.79200E+03 -2.44582E+04  1.47119E+04 -1.27870E+04
  6.10444E+03  4.27903E+03 -7.23548E+03  1.38455E+04 -2.12574E+04 -2.17170E+03 -6.12490E+03 -3.35336E+04
  1.81948E+04 -4.44216E+04  4.80921E+04 -2.26534E+04  5.01865E+04  2.08426E+04  1.54335E+04  3.93647E+04
 -1.42225E+04  3.59517E+04 -2.37563E+04  5.01581E+03 -1.24786E+04 -2.98044E+04  1.79346E+04 -3.58265E+04
  4.07585E+04 -1.14394E+04  3.11133E+04  2.00047E+04  1.62747E+04  4.52093E+04 -1.05079E+04  5.29039E+04
 -2.88900E+04  3.05813E+04 -4.25461E+04  1.20908E+04 -4.58052E+04 -1.82731E+04 -2.38424E+04 -3.50961E+04
  8.27133E+03 -3.56159E+04  2.81071E+04 -1.03395E+04  2.85909E+04  1.31238E+04  3.07016E+03  2.11959E+04
 -1.62503E+04  1.27173E+04 -9.11347E+03 -1.03906E+04  4.83789E+03 -1.02840E+04  1.05271E+04  4.53763E+03
  1.30074E+04  1.84567E+04 -4.87455E+03  2.60194E+04 -2.61671E+04  1.88711E+04 -2.51914E+04 -5.38758E+03
 -1.98062E+04 -2.21755E+04 -3.76381E+03 -2.11523E+04  1.10745E+03 -2.15107E+04  1.55276E+04 -1.79976E+04
  2.46624E+04 -1.07586E+04  3.13797E+04  2.22600E+03  2.22039E+04  1.75138E+04  4.86867E+03  3.66477E+04
 -2.18310E+04  2.99145E+04 -2.46812E+04  8.35912E+03 -1.97779E+04 -9.89518E+03 -4.11637E+03 -1.76133E+04
  1.60369E+03 -1.82803E+03  1.16410E+03  3.84324E+03 -2.14959E+04  1.78085E+03 -1.00858E+04 -4.68605E+03
 -1.01607E+04 -1.66096E+04  4.52697E+03 -1.42146E+04  1.13143E+04 -1.54265E+04  1.66075E+04 -4.08372E+03
  7.37231E+03  8.99297E+03 -4.59144E+03  1.68101E+04 -9.29985E+03  9.08860E+03 -2.25560E+04  2.35863E+02
 -1.34610E+04 -1.23324E+04 -5.01202E+03 -2.03307E+04  1.09968E+04 -1.66169E+04  1.67240E+04 -9.22990E+03
  1.67623E+04 -2.90730E+03  1.45894E+04  6.35561E+03  5.30247E+03  9.16980E+02  1.22578E+04  3.35863E+01
  1.82635E+04 -2.76901E+02  2.03251E+04  1.59312E+04  1.12179E+04  3.41398E+04 -4.30667E+03  3.31725E+04
 -2.07169E+04  2.58021E+04 -3.02905E+04  1.36988E+04 -3.17642E+04 -3.84665E+03 -2.66447E+04 -1.72197E+04
 -1.34542E+04 -2.29750E+04  8.87754E+03 -1.80475E+04  1.94651E+04 -1.10798E+04  2.10280E+04  9.75170E+03
  8.30919E+03  1.71389E+04 -7.30243E+03  9.21987E+03 -1.81678E+04  3.05066E+03 -1.18373E+04 -6.73191E+03
  3.74265E+03 -1.77972E+04  5.80321E+03 -9.58808E+03  8.82499E+03 -1.54865E+03  3.39342E+03  8.72913E+03
 -9.96687E+03  3.99606E+03 -9.44837E+03 -2.10037E+03  2.68320E+03 -1.02305E+04  3.87815E+03 -1.41530E+04
  1.59488E+04 -3.72616E+03  1.49539E+04  4.16345E+03  1.43055E+04  1.36959E+04  6.48957E+03  1.85540E+04
 -4.49353E+03  1.97859E+04 -1.19990E+04  1.73822E+04 -1.53093E+04  4.35752E+03 -1.00432E+04 -7.23093E+02
 -6.09789E+03 -8.76770E+03 -1.28392E+03  2.52872E+03 -3.63629E+03  3.03490E+03 -6.61719E+03  5.61873E+03
 -1.22007E+04 -2.00444E+03 -1.35952E+04 -7.62744E+03 -5.44507E+03 -1.80719E+04  4.84604E+03 -9.87025E+03
  8.08815E+03 -2.48952E+03  7.68750E+03  2.69831E+03 -3.55433E+03  4.96744E+03 -7.38192E+03  7.91784E+02
 -8.77383E+03 -8.43394E+03 -4.10646E+03 -5.04465E+03  2.84712E+03 -1.50249E+04  9.74559E+03 -6.74685E+03
  1.26704E+04  1.31472E+03  5.26498E+03  1.21919E+04  1.27016E+03  1.16716E+04 -1.78531E+03  6.92750E+03
 -8.58398E+03  6.40665E+03 -2.70509E+03 -2.41057E+03  4.32947E+03 -4.35177E+03  3.35945E+03 -4.28957E+03
  3.97204E+03  8.92254E+03  5.01841E+03  1.05298E+04 -4.38841E+03  8.72537E+03 -6.62910E+03 -6.56116E+02
 -9.45834E+03 -1.02936E+04  7.77667E+02 -5.72308E+03  6.57722E+03 -2.10621E+03  9.01407E+03 -2.08226E+03
 -1.31068E+03  3.57927E+03 -7.20329E+03  4.57225E+03 -1.28409E+04  5.17705E+03 -1.00161E+04  9.33745E+01
 -3.83968E+03 -6.24359E+03  2.83870E+03 -8.88885E+03  8.32984E+03 -5.75731E+03  9.02665E+03  2.66194E+03
  8.72081E+03  6.78921E+03 -6.24632E+02  1.38341E+04 -6.87348E+03  4.49742E+03 -9.57605E+03 -5.89735E+03
 -1.21354E+04 -7.40931E+03 -9.56217E+01 -7.41225E+03  2.06759E+03 -4.38520E+03  5.21844E+03 -1.15705E+03
  3.61323E+03 -3.69093E+03  1.12987E+03  1.48920E+03 -1.78121E+03 -1.68636E+03  1.28509E+02 -7.13583E+03
  6.07154E+03  2.91168E+03  4.94784E+03 -2.04691E+03  8.90286E+03  6.01845E+03  9.79156E+02  1.31054E+04
 -5.19949E+03  8.04010E+03 -1.15060E+04  1.29121E+04 -2.09438E+04 -1.02187E+01 -1.09035E+04 -2.73376E+03
 -5.40091E+03 -1.22366E+04  1.27475E+03 -7.04441E+03  6.49435E+03 -1.47787E+03  1.43485E+03 -7.24009E+02
 -3.31363E+03 -3.13033E+03  1.58618E+03 -3.00868E+03  4.64928E+03  3.91915E+02  5.58125E+03 -1.39762E+03
  7.74279E+03  1.05323E+03 -1.63548E+03  7.56592E+03 -1.56058E+03  4.71653E+03 -1.21778E+04  4.54298E+03
 -7.81076E+03 -1.44280E+03  7.33500E+01 -6.89830E+03  1.00459E+03 -4.03419E+03  8.41915E+03 -1.22779E+04
  1.08635E+04 -4.60907E+03  1.27978E+04 -3.01856E+03  1.20500E+04  3.62231E+03  1.39018E+03  1.32374E+04
 -4.76600E+03  1.21116E+04 -2.04224E+03  2.95989E+03 -2.31248E+02 -6.29069E+02 -5.70522E+02 -2.33189E+03
  3.48423E+03  1.64551E+03 -3.25628E+03  5.00352E+03 -5.23052E+03  5.54041E+03 -6.46190E+03 -3.91725E+03
  1.69087E+03 -2.22465E+03  2.22859E+03 -1.27160E+04  5.89327E+03 -6.37514E+03  5.32129E+03 -4.37405E+03
  4.28145E+03  4.94202E+03  1.52949E+03  8.22058E+03 -2.25843E+02  9.80857E+03 -7.78255E+03  5.99454E+03
 -6.96966E+03 -1.26089E+03 -6.62643E+03  1.39736E+03 -7.26577E+02 -5.31345E+03  5.05081E+03 -5.95598E+03
  6.18826E+03 -5.27816E+03  6.32813E+03  1.91569E+03  1.82422E+03 -5.24172E+02  2.33858E+03  1.82799E+03
  2.24769E+03 -3.13120E+02  1.56869E+03  4.70674E+03  2.78130E+03 -2.04497E+03  4.23413E+03  3.06348E+03
 -1.83482E+03  6.85898E+03 -9.20322E+03  7.84767E+03 -4.91748E+03  2.72466E+03 -6.71660E+03 -2.19369E+03
 -5.32130E+03 -1.17064E+04 -1.10607E+03 -3.60195E+03  8.91763E+00 -2.37112E+03  2.88328E+03  2.00173E+03
  1.10190E+04  8.33112E+03  1.11981E+03  4.91992E+03 -5.48130E+03 -6.21013E+02 -3.31669E+03  4.62227E+02
  4.53564E+03 -6.11756E+03  2.32089E+03 -2.14080E+03 -5.74959E+02  2.29811E+03  3.75961E+03 -3.76032E+03
  3.25570E+03  2.92953E+03 -2.96344E+02  1.68636E+03  1.52016E+03 -1.03643E+03  1.46783E+03  3.99864E+03
 -1.35412E+02 -1.20152E+03 -7.07349E+02  4.88996E+03  4.91166E+02 -2.01097E+03 -2.15693E+03  4.40295E+03
 -3.16406E+03 -9.88690E+02 -7.93416E+03  2.35228E+03 -7.25898E+03 -1.67207E+03 -3.51150E+03 -4.49466E+03
  4.12487E+03  1.35758E+02 -2.58732E+03  2.89703E+03  2.61554E+03 -4.10364E+03  2.96460E+03  4.12339E+03
  8.36622E+02 -2.08797E+03 -3.55461E+03 -4.61155E+03  1.68128E+03 -1.08608E+03  2.16770E+03 -6.49208E+03
  5.48379E+03 -8.94367E+02  2.85234E+03  1.72660E+03 -1.09852E+03 -2.12601E+03 -3.19882E+03  4.93054E+03
  2.11594E+03  2.20441E+03 -1.33579E+02 -4.20650E+03  7.35481E+03  1.15549E+03  2.39715E+03 -1.44465E+03
  2.75107E+03  4.74818E+02  2.46663E+03  6.22336E+03 -4.36032E+03  7.96084E+03  1.99441E+03  9.49301E+01
 -4.36994E+03  1.63699E+03 -1.60860E+03 -3.03657E+03 -1.33363E+03 -1.89261E+03 -4.80251E+02 -2.32466E+03
  1.77450E+03 -7.74567E+02  4.74770E+03  3.07710E+03  4.66973E+03 -2.86630E+03  1.04399E+03 -6.44719E+03
  9.06171E+02  1.55255E+02 -2.09734E+03  4.10279E+03  2.69105E+03 -2.90642E+03 -1.68979E+02  1.81793E+02
  6.64055E+02  4.02309E+03 -2.71270E+03  2.00059E+03 -4.20938E+03  6.07906E+02  1.37466E+03  5.06375E+02
 -6.85768E+03 -4.88170E+03  6.03805E+02 -6.76108E+03  1.41944E+03 -2.98351E+03  9.68774E+03  9.18697E+02
  3.87385E+03  1.06710E+03  1.19272E+03  3.56271E+03 -3.31023E+03  1.52918E+03 -2.65449E+03  7.52543E+03
 -1.07092E+03  1.97270E+03  2.61108E+03  3.33384E+02  1.86766E+03  2.40927E+02 -2.76763E+03  1.01394E+03
 -2.03537E+03 -3.73332E+03 -1.42509E+03 -2.14414E+03  1.42623E+03 -1.29648E+03  3.53501E+03 -3.88978E+03
  3.83357E+03  3.05730E+02  4.26687E+03  7.67295E+02  5.39018E+03 -8.55385E+02  1.31378E+03  5.18115E+03
 -5.40695E+03  7.58577E+03 -6.10145E+03  8.10243E+03 -7.20807E+03  4.60683E+03 -8.19063E+03 -3.33196E+03
  1.71657E+03 -5.23939E+03 -2.74658E+03 -1.81562E+03  2.89118E+03 -2.93690E+03  4.71698E+02  2.82287E+03
  3.17644E+02  8.58725E+02  1.42152E+03 -4.51787E+02 -1.78458E+03  1.25675E+03  1.91293E+03  5.57077E+03
  1.28706E+03 -5.25728E+02  1.65617E+03  6.49326E+03  5.62961E+03  1.46776E+03  2.28832E+03  2.71653E+03
 -4.02908E+02  5.64376E+02  4.64911E+03 -2.02764E+03 -2.38581E+02 -3.90095E+03  2.09044E+03 -3.06690E+03
  7.75178E+03 -1.99470E+03 -5.56009E+02 -1.25473E+03  4.90700E+03  2.73130E+03  2.14332E+03  4.54703E+03
 -3.31817E+03 -1.97030E+02 -4.53024E+02  3.80574E+03 -4.09616E+03  6.17624E+03  2.77193E+03  1.56979E+03
 -2.12703E+03 -2.49175E+03 -2.46017E+03  2.90160E+02 -4.40449E+03  3.42219E+03 -1.31439E+03  3.45180E+03
  3.45421E+02 -6.34380E+03  5.58815E+02 -2.70401E+03 -8.94804E+02 -1.63315E+03  4.93425E+03 -8.81786E+02
  4.66208E+03 -2.80318E+02 -2.58253E+03 -1.52138E+03  1.81760E+03 -4.57765E+03 -8.12894E+02 -7.41707E+01
