 $NMID ID='MM_0lb_SNR50_8hz_g45_12.RAW', FMTDAT='(8E13.5)'
 TRAMP=1., VOLUME=1. $END
  3.17054E+05  1.57792E+03  3.39433E+05  2.49792E+05  8.08514E+04  3.46187E+05 -1.31358E+05  2.45750E+05
 -1.90144E+05  8.30160E+04 -1.11387E+05 -3.99840E+04  2.77873E+03 -5.40184E+04  5.66116E+04 -3.30302E+02
  4.59855E+04  4.86478E+04 -1.77593E+04  7.62388E+04 -6.75020E+04  6.51978E+04 -9.04054E+04  3.12907E+04
 -8.24385E+04 -1.50420E+04 -5.42785E+04 -4.88549E+04 -1.53281E+04 -6.41473E+04  2.97283E+04 -4.65364E+04
  3.80241E+04  4.19194E+03  1.12800E+04  4.89480E+04 -3.01321E+04  4.66657E+04 -7.14420E+04 -1.05540E+03
 -4.85015E+04 -6.20695E+04 -6.49396E+03 -8.25487E+04  3.87038E+04 -6.01405E+04  5.16219E+04 -2.01265E+04
  4.48609E+04  1.23760E+04  3.20678E+04  2.22769E+04  1.03988E+04  2.95350E+04 -4.62743E+03  3.08159E+04
 -2.55416E+04  1.43643E+04 -1.62064E+04  8.75081E+00  1.30945E+04 -3.80604E+03  2.98389E+04  2.04282E+04
  8.19446E+03  3.77045E+04 -3.01947E+04  3.60362E+04 -6.09447E+04  1.06942E+04 -5.71619E+04 -4.14157E+04
 -1.26867E+04 -6.28666E+04  4.42893E+04 -4.95803E+04  6.66983E+04 -4.39040E+03  3.34532E+04  3.38559E+04
 -6.72023E+03  4.52379E+04 -3.60468E+04  1.39702E+04 -3.29282E+04 -1.06727E+03 -1.88857E+04 -1.55292E+04
 -2.00110E+03 -1.07038E+04  2.34302E+03 -1.63258E+04  9.11413E+03 -2.74448E+04  1.03475E+04 -9.85737E+03
  1.20312E+04  7.85968E+03 -1.00134E+04  1.71388E+04 -2.62489E+04 -1.02308E+04 -6.62033E+03 -3.73633E+04
  2.58002E+04 -5.50125E+04  5.19697E+04 -2.15695E+04  4.81795E+04  1.84442E+04  2.09023E+04  4.72568E+04
 -2.07668E+04  4.06612E+04 -2.77811E+04  6.66584E+03  3.21132E+02 -2.69172E+04  1.52388E+04 -3.57851E+04
  4.80869E+04 -6.19413E+03  3.93689E+04  2.12739E+04  1.90509E+04  5.35499E+04 -9.78381E+03  5.84919E+04
 -3.90929E+04  3.70386E+04 -4.67825E+04  1.33313E+04 -5.32436E+04 -2.39687E+04 -2.60095E+04 -4.35869E+04
  7.75045E+03 -4.00832E+04  3.43550E+04 -1.98917E+04  3.14212E+04  1.78086E+04  8.99197E+03  2.67644E+04
 -1.42650E+04  1.24990E+04 -8.43718E+03 -1.17833E+03  7.15373E+03 -1.80073E+04  1.06985E+04  6.20780E+03
  1.59919E+04  2.10687E+04  5.31697E+01  2.86112E+04 -2.00235E+04  1.16618E+04 -3.04013E+04 -1.55126E+03
 -2.21876E+04 -2.61181E+04 -5.58172E+03 -2.65670E+04  5.07624E+03 -2.29306E+04  2.13423E+04 -2.22043E+04
  3.33185E+04 -9.20810E+03  4.10037E+04  5.34882E+03  3.58062E+04  2.84461E+04  5.50491E+03  4.63243E+04
 -1.92052E+04  3.60000E+04 -3.58275E+04  1.46452E+04 -2.51708E+04 -7.31658E+02 -3.16119E+03 -1.32257E+04
 -9.11720E+02 -1.12911E+03 -3.56503E+03  6.25140E+03 -1.36889E+04  9.21854E+03 -1.70297E+04 -1.39363E+04
 -1.31331E+04 -2.71463E+04  7.97396E+03 -3.47663E+04  1.84260E+04 -2.30139E+04  2.56561E+04  2.26779E+03
  1.75070E+04  1.74295E+04 -1.95167E+03  2.93373E+04 -2.06511E+04  2.18142E+04 -2.06576E+04 -8.94655E+02
 -1.58356E+04 -1.97486E+04 -9.17047E+03 -3.28037E+04  7.43759E+03 -1.96043E+04  3.01044E+04 -9.02967E+03
  1.58359E+04 -4.32988E+03  1.43002E+04  7.33380E+03  4.16138E+03 -3.63400E+02  9.80779E+03 -7.76578E+03
  2.01838E+04  8.00455E+03  2.89181E+04  3.06492E+04  1.81195E+04  4.69125E+04 -6.15420E+02  4.17231E+04
 -2.70456E+04  4.21907E+04 -4.18509E+04  2.69065E+04 -4.84157E+04 -8.88759E+03 -3.46357E+04 -3.98812E+04
 -1.44611E+04 -3.25567E+04  1.32109E+04 -2.47851E+04  2.96961E+04 -1.67299E+04  2.71517E+04  8.66206E+03
  6.58051E+03  1.59571E+04 -1.34437E+04  2.31338E+04 -2.08839E+04  6.48854E+03 -1.97788E+04 -1.58203E+04
  1.83223E+03 -2.14552E+04  9.15953E+03 -7.74462E+03  9.91059E+03 -1.71222E+03  1.73729E+03  1.05341E+04
 -7.33478E+03  6.67421E+03 -9.83736E+03 -6.34930E+03 -2.73289E+03 -1.18249E+04  1.26894E+04 -2.60502E+04
  2.19057E+04 -9.18054E+03  2.24811E+04  2.14671E+03  1.68533E+04  1.41714E+04  1.22481E+04  2.81119E+04
 -8.99026E+03  3.63209E+04 -1.08810E+04  1.68971E+04 -2.83489E+04  2.22920E+03 -1.72246E+04 -4.24002E+03
 -7.83234E+03 -5.06718E+03  6.25848E+03 -4.60779E+03 -6.70552E+03 -2.05855E+03 -3.28509E+03  9.37435E+03
 -1.44315E+04 -5.34473E+03 -2.21286E+04 -1.04827E+04 -7.70468E+03 -1.66942E+04  7.18725E+03 -1.87148E+04
  1.68246E+04  2.05104E+02  1.08274E+04 -1.32603E+03  1.67179E+03  7.32535E+03 -4.22307E+03  4.26682E+02
 -1.33444E+04 -7.59506E+03 -7.07666E+03 -1.93832E+04  1.20168E+04 -1.12986E+04  2.32643E+04 -6.62877E+03
  2.62562E+04 -1.15468E+03  1.42475E+04  2.30671E+04 -4.12462E+02  2.53322E+04 -8.29474E+03  1.82759E+04
 -1.13858E+04  2.53319E+03 -8.38213E+03 -1.16158E+03  9.98857E+02 -3.24349E+03  1.09935E+04 -1.26196E+02
  6.84283E+03 -8.19505E+02 -3.31548E+02  9.54081E+03 -1.03183E+04  1.34696E+04 -1.69246E+04  6.34693E+03
 -1.71021E+04 -3.67893E+03 -9.03007E+02 -1.56233E+04  7.59446E+03 -5.12820E+03  9.46075E+03  3.82529E+03
  1.55478E+03  1.40617E+04 -4.56540E+03  1.57609E+04 -1.23817E+04  3.38263E+03 -1.29330E+04 -5.96979E+03
 -1.04079E+04 -1.50938E+04  8.58242E+03 -2.05153E+04  1.77802E+04 -1.45312E+04  2.29845E+04  7.13049E+03
  1.02742E+04  9.92831E+03  3.13922E+03  1.63344E+04 -9.15613E+03  1.54598E+04 -1.32556E+04  2.31646E+03
 -9.00774E+03 -1.60545E+04  1.89328E+03 -3.64935E+03  4.31047E+03 -8.79641E+03  1.00575E+04  1.55029E+03
 -5.46444E+03  2.04490E+03  8.63296E+03  9.44614E+03 -1.96574E+03 -2.06967E+03  1.72471E+03 -8.88896E+03
  1.03588E+04 -1.21428E+04  1.89243E+04  4.34063E+03  2.67104E+04  8.37981E+03  8.15602E+03  2.53345E+04
 -1.01653E+04  2.20510E+04 -2.66023E+04  1.92619E+04 -2.79437E+04 -3.10701E+03 -1.68811E+04 -9.14986E+03
 -9.93052E+03 -1.78031E+04 -4.07413E+03 -1.46166E+04  5.45163E+03 -1.66069E+03  5.26063E+03 -6.67401E+03
 -2.42392E+03 -4.27727E+03  2.65560E+03 -4.91198E+03  9.06159E+03 -3.77397E+02  8.54993E+03 -1.78373E+03
  1.28657E+04  1.87113E+03  4.99200E+03  1.27273E+04 -8.25354E+03  1.64681E+04 -6.72083E+03  1.17472E+04
 -1.96309E+04 -1.03843E+03 -1.20498E+04 -9.94967E+03 -2.37478E+03 -2.47009E+04  2.99627E+03 -1.83911E+04
  2.47515E+04 -1.27575E+04  2.31390E+04  8.09903E+02  1.24903E+04  1.67024E+04  7.15730E+02  1.94586E+04
 -1.09909E+04  2.37215E+04 -2.05097E+03  3.37491E+03 -2.55869E+03 -1.08213E+04  7.77553E+03 -8.52616E+03
  6.91112E+02 -8.88647E+03 -1.91324E+03  4.21972E+03 -5.10308E+03 -2.36418E+03 -1.21568E+04 -5.21727E+03
 -5.86904E+03 -1.54450E+04  5.62071E+03 -2.20295E+04  9.33212E+03 -1.05394E+04  1.78261E+04 -4.62063E+03
  1.91278E+04  7.39798E+03  1.17334E+04  1.89710E+04  2.52032E+03  7.64475E+03 -7.33164E+03  4.49104E+03
 -1.82483E+04 -5.05778E+03 -5.12525E+03 -1.40799E+04 -2.17017E+03 -1.64437E+04  4.52039E+03 -7.02387E+03
  6.14234E+03 -4.38546E+03  9.81923E+03 -3.33707E+02  7.03546E+03  9.81859E+03  1.82977E+03  1.31579E+04
  5.76130E+03  6.23053E+03  6.93876E+03  4.69412E+03  2.89826E+03  8.14261E+03  5.17082E+03  1.11283E+04
 -5.28326E+03  1.45965E+04 -1.61968E+04  8.09171E+03 -1.18008E+04  3.30645E+03 -1.78738E+04 -6.14207E+03
 -7.04610E+03 -2.07335E+04  1.04998E+04 -1.24121E+04  1.18451E+04 -4.87250E+03  1.81131E+04 -5.31445E+03
  9.52683E+03  6.58589E+03  1.08577E+03  7.27286E+03 -7.69457E+03  3.93240E+03 -6.78757E+03  4.82945E+02
 -2.10558E+03 -7.51919E+03  4.52724E+03 -1.01329E+04  3.31057E+03 -5.88957E+03  3.99391E+03 -1.59102E+03
  8.45982E+03  4.46910E+03  1.28647E+03  2.91316E+02 -4.47874E+03 -4.30756E+03 -3.35606E+03 -2.65398E+03
 -7.65574E+02 -2.64118E+03  8.42729E+03  1.97419E+03  5.86432E+02  7.64049E+03 -9.30190E+02  1.09096E+04
 -2.94490E+02  9.21028E+03 -1.25757E+04 -2.52593E+02 -6.35325E+03  5.26370E+02 -6.78615E+03 -6.35207E+03
 -1.16021E+03 -1.71391E+03  5.55440E+03 -6.12150E+02  1.18716E+03  5.53171E+03 -5.11854E+03  3.89079E+03
 -8.50692E+03 -2.79532E+03 -5.75436E+03 -3.88561E+03 -5.59143E+03 -1.13594E+03  5.43465E+03 -8.71304E+03
  8.46073E+03 -3.32197E+03  1.10065E+04  3.66420E+03  6.13649E+03  1.72346E+03  3.32462E+02  4.60750E+03
 -1.38164E+03  3.06677E+03 -8.44645E+03 -7.07876E+03 -2.72858E+03 -4.79581E+03  1.13049E+04 -3.87619E+03
  5.70595E+03  5.92795E+03  1.22566E+04  8.06743E+03  6.16122E+02  1.02224E+04 -7.74700E+02  1.60635E+04
 -8.96884E+03  1.24575E+04 -2.67691E+03  3.45179E+03 -4.13659E+03 -5.47363E+03  4.35644E+03 -1.51834E+04
 -8.33669E+02 -2.62640E+03  6.43865E+03  7.00475E+03  4.40355E+03  9.10533E+03 -3.02501E+03  6.41843E+03
 -2.57988E+03  8.55038E+03  2.25976E+02  8.35910E+03 -6.91031E+02  2.37861E+03  4.04363E+02  4.50132E+02
 -9.98453E+02  3.25267E+03 -3.36888E+03  5.39880E+03 -1.33620E+04 -3.33251E+03 -1.29438E+04 -5.51954E+03
 -4.68270E+03 -1.65656E+04  2.36579E+03 -1.54353E+04  9.77082E+03 -9.08424E+03  1.06742E+04 -1.10462E+04
  1.76364E+04  1.41502E+03  5.72353E+03  1.30559E+04 -5.37335E+03  1.28568E+04 -2.39933E+03  1.34912E+04
 -4.96629E+03  2.22835E+03 -8.31694E+03  2.70345E+03 -7.09848E+03  5.98300E+02 -7.23575E+01 -2.44628E+03
 -1.01423E+03 -4.45749E+02 -8.67488E+03  2.87855E+03  1.81137E+03  8.70250E+02  4.66069E+03 -3.35257E+03
  4.73770E+03 -4.59494E+03  1.19149E+03  7.76912E+03  9.68136E+03  4.22523E+03  4.14002E+03  1.55709E+04
 -4.50406E+03  8.43025E+03 -2.09031E+04  3.71834E+03 -1.56175E+04 -9.71705E+03 -1.02208E+04 -4.78619E+03
 -4.50766E+03 -1.26969E+04  3.00540E+03 -1.24318E+04  1.43239E+04 -4.79621E+03  9.16639E+03 -5.39096E+02
  3.89096E+03  1.50337E+03 -8.14983E+03  5.75484E+02 -1.64818E+03 -6.94991E+03 -4.01165E+03 -4.61570E+02
  1.34117E+03 -1.13778E+03  4.18528E+03 -5.79670E+03  6.72242E+01  3.78791E+03  5.10473E+03  3.32899E+03
 -5.06156E+03  5.54777E+03 -1.40461E+04  2.17367E+03  2.08421E+03  3.11131E+02  9.78205E+00 -5.72929E+03
  5.38928E+03 -3.07286E+03  1.15575E+04 -3.79388E+03  1.06531E+04 -5.42471E+02  8.86443E+03  5.09791E+03
  5.55227E+03  2.84552E+03 -7.83260E+02  5.65068E+03 -6.02812E+03  4.88666E+03 -4.96208E+03  2.79588E+03
 -9.24024E+02  2.27318E+03 -1.79220E+03 -2.28118E+03 -1.02376E+04  2.75014E+03 -2.07322E+03 -2.33302E+03
 -3.19311E+03 -1.08495E+03 -8.97866E+03 -1.07059E+04  3.50151E+03 -7.50964E+03  9.38067E+03  2.72119E+03
  8.75893E+03  2.11648E+03  8.42517E+03  3.15282E+03 -3.97637E+03  1.03050E+04 -1.01417E+03  5.03065E+03
