 $NMID ID='MM_0lb_SNR50_9hz_g60_88.RAW', FMTDAT='(8E13.5)'
 TRAMP=1., VOLUME=1. $END
  3.04458E+05 -1.58535E+03  3.31434E+05  2.50863E+05  8.38898E+04  3.40231E+05 -1.35284E+05  2.47538E+05
 -1.92200E+05  8.66878E+04 -1.15304E+05 -3.27623E+04 -2.15524E+03 -5.22222E+04  5.50400E+04 -1.58358E+03
  4.20629E+04  5.22366E+04 -1.36104E+04  8.03629E+04 -6.02771E+04  6.59133E+04 -8.29845E+04  2.83898E+04
 -7.69643E+04 -1.15189E+04 -5.96519E+04 -5.21847E+04 -1.70294E+04 -7.78518E+04  2.65582E+04 -5.25423E+04
  4.03213E+04  3.56208E+03  1.88545E+04  4.33829E+04 -3.37529E+04  4.96869E+04 -6.19303E+04  2.63907E+03
 -5.59005E+04 -5.63857E+04 -4.25643E+03 -7.74752E+04  3.19960E+04 -5.35887E+04  5.38484E+04 -1.84856E+04
  4.45075E+04  9.33873E+03  3.29656E+04  2.43074E+04  1.37744E+04  3.37554E+04 -3.21632E+03  2.89650E+04
 -2.34427E+04  9.82274E+03 -2.17839E+04 -2.81880E+03  3.13567E+02 -1.10346E+04  2.51935E+04  6.32324E+03
  1.28019E+04  4.55024E+04 -3.42178E+04  3.75310E+04 -7.19282E+04 -1.36505E+03 -6.00371E+04 -4.40894E+04
 -1.37070E+04 -6.68275E+04  3.42900E+04 -4.17653E+04  6.28835E+04  3.23180E+03  4.65078E+04  3.08450E+04
 -5.86880E+03  4.08633E+04 -3.82232E+04  1.98825E+04 -3.15807E+04 -2.42152E+03 -1.84373E+04 -1.28600E+04
 -1.10865E+04 -1.17980E+04 -7.87746E+01 -1.32879E+04  5.48858E+03 -2.92977E+04  1.22708E+04 -7.51704E+03
  8.50487E+03  2.07728E+00 -7.07591E+03  1.98314E+04 -2.07352E+04 -7.39328E+03 -1.01385E+04 -3.69984E+04
  2.62176E+04 -4.84411E+04  4.68770E+04 -2.15552E+04  5.28397E+04  2.12326E+04  1.70421E+04  4.68590E+04
 -2.09747E+04  4.09726E+04 -3.14666E+04 -2.83001E+03 -1.78988E+04 -2.56748E+04  1.77495E+04 -4.25432E+04
  4.29582E+04 -8.15248E+03  4.68447E+04  3.09043E+04  3.03786E+04  5.14747E+04 -7.85297E+03  6.01526E+04
 -3.43721E+04  4.25379E+04 -4.48299E+04  7.60436E+03 -4.89287E+04 -1.25961E+04 -3.00817E+04 -4.16508E+04
  9.71124E+03 -4.70850E+04  3.55069E+04 -1.47665E+04  3.65029E+04  1.12631E+04  1.09505E+04  2.37249E+04
 -1.55347E+04  1.21233E+04 -1.24341E+04 -1.24757E+04  8.26937E+03 -5.18972E+03  2.04683E+04  8.23683E+03
  1.70855E+04  2.09947E+04  1.01821E+03  2.41844E+04 -2.12973E+04  1.35394E+04 -3.60967E+04 -9.00411E+02
 -2.37451E+04 -1.65587E+04 -1.30583E+04 -1.91137E+04  1.46978E+03 -2.40717E+04  1.88622E+04 -1.48321E+04
  4.01010E+04 -1.51243E+04  3.99958E+04  3.36660E+03  2.23471E+04  2.75128E+04  6.09429E+03  4.25113E+04
 -2.61652E+04  3.56046E+04 -3.34475E+04  1.56857E+04 -2.22054E+04 -5.90554E+03  7.90316E+02 -9.84416E+03
  1.24196E+03 -2.15405E+03 -1.04660E+04  1.27877E+04 -2.63947E+04  8.85372E+03 -2.16353E+04 -8.95284E+03
 -1.36802E+04 -2.82835E+04  1.18072E+03 -3.22044E+04  2.29424E+04 -1.69286E+04  2.13983E+04 -2.64275E+02
  6.89684E+03  2.28031E+04  8.07444E+02  2.19872E+04 -1.76681E+04  1.38831E+04 -2.55775E+04 -5.96945E+03
 -1.47279E+04 -1.93154E+04 -5.77051E+03 -2.81254E+04  1.58784E+04 -1.84721E+04  2.64804E+04 -1.24168E+04
  2.00813E+04  1.38599E+03  2.26686E+04  5.94494E+03  5.14929E+03  6.36366E+03  1.45651E+04 -1.54900E+03
  2.63661E+04  2.58202E+03  2.53333E+04  1.67038E+04  1.86883E+04  4.18570E+04  2.79826E+03  4.25522E+04
 -2.81228E+04  3.99274E+04 -4.72542E+04  1.98319E+04 -5.03817E+04 -3.15414E+03 -3.60931E+04 -2.91787E+04
 -1.49102E+04 -3.63600E+04  1.29169E+04 -3.83690E+04  3.10075E+04 -5.79240E+03  2.31737E+04  7.80226E+03
  1.37279E+03  1.79245E+04 -1.47824E+04  1.28199E+04 -2.27805E+04  9.04134E+02 -1.49494E+04 -9.48851E+03
 -4.94696E+03 -2.47907E+04  1.22344E+04 -1.72252E+04  1.46636E+04 -1.43715E+03  4.25305E+03  4.70371E+03
 -7.15418E+03  9.55581E+03 -8.93310E+03 -1.01772E+04 -3.65786E+03 -2.21447E+04  1.18121E+04 -1.28272E+04
  2.78185E+04 -6.62644E+03  3.13457E+04  3.69186E+03  2.44327E+04  1.88702E+04  1.28139E+04  3.30803E+04
 -4.16695E+03  3.21891E+04 -1.41619E+04  1.94911E+04 -2.26623E+04  5.43686E+03 -1.71863E+04 -6.49556E+03
 -9.75846E+03 -2.28775E+03  8.68632E+02 -9.91136E+02 -3.06355E+03  1.19329E+03 -5.96889E+03  6.09891E+03
 -1.17670E+04 -5.35575E+02 -1.57523E+04 -1.89894E+04 -6.93482E+02 -2.36679E+04  5.07967E+03 -1.91428E+04
  1.55027E+04 -1.16984E+04  1.26427E+04  1.17774E+04 -2.19474E+03  5.45395E+03 -6.66961E+03 -2.32262E+03
 -1.09950E+04 -1.09132E+04 -9.39244E+03 -1.90743E+04  8.16379E+03 -1.62528E+04  2.40302E+04 -8.66741E+03
  2.64481E+04  1.43428E+03  1.92886E+04  1.36630E+04 -9.63202E+02  1.90705E+04 -9.52592E+03  1.28880E+04
 -2.12113E+04 -2.84460E+03 -8.87599E+03 -3.97771E+02  6.71442E+03 -6.77759E+03  5.28568E+03 -6.67436E+03
  1.12956E+04  1.37280E+04  6.47624E+02  8.04742E+03 -1.15304E+04  1.43801E+04 -2.51541E+04 -1.58094E+00
 -1.57465E+04 -1.06187E+04 -5.59749E+03 -1.26343E+04  6.51276E+03 -1.08777E+04  1.36838E+04  7.23341E+03
  9.31285E+02  8.76173E+03 -7.16584E+03  1.34471E+04 -1.72175E+04  9.62648E+03 -1.92223E+04 -7.99172E+03
 -5.84217E+03 -2.42506E+04  1.03307E+03 -2.57335E+04  1.60444E+04 -1.21724E+04  1.49659E+04  7.81254E+03
  1.10590E+04  1.65771E+04  5.87189E+02  1.53328E+04 -5.05299E+03  7.31223E+03 -1.22003E+04 -2.74539E+03
 -1.70010E+04 -5.78890E+03 -8.74302E+02 -1.15383E+04  1.37967E+04 -4.07615E+03  7.68374E+03  2.97818E+02
  5.61738E+03  2.23715E+03 -4.12197E+02 -3.97177E+03 -3.39532E+03  1.71105E+03  8.64139E+02 -8.94450E+03
  1.62492E+04 -8.55555E+03  1.36905E+04  4.31806E+03  1.44152E+04  1.78745E+04  1.43652E+04  2.23114E+04
 -8.82084E+02  2.18943E+04 -1.65813E+04  2.39606E+04 -2.93867E+04  7.10426E+03 -1.79081E+04 -1.51532E+04
 -1.26358E+04 -1.57878E+04  2.16837E+02 -1.04932E+04  2.84294E+03 -1.51701E+04  4.58186E+03 -5.97208E+03
 -1.07329E+03 -4.31407E+03  7.97817E+03 -2.81472E+03  6.11819E+03 -6.96661E+03  6.80894E+03 -9.17856E+02
  6.22427E+03  6.35630E+03  5.42184E+03  1.39247E+04  2.03265E+03  1.10313E+04 -1.68593E+04  1.38346E+04
 -1.91585E+04  2.78389E+03 -6.11426E+03 -8.76632E+03 -8.37609E+01 -1.77060E+04  1.44784E+04 -1.53874E+04
  1.94975E+04 -9.47310E+03  2.47699E+04  1.73402E+03  9.54266E+03  1.88555E+04  6.22863E+03  2.41547E+04
 -9.41099E+03  1.48884E+04 -1.31466E+04  4.93681E+03 -6.93128E+03 -4.12618E+03 -7.20803E+03 -3.29304E+03
 -8.77037E+03 -9.45389E+02 -4.74541E+02  2.02825E+03 -1.72887E+03  5.93567E+03 -1.37524E+04  3.04548E+02
 -1.13876E+04 -7.23229E+03  3.01053E+03 -1.56521E+04  1.05177E+04 -1.82773E+04  1.63541E+04 -1.11887E+03
  1.36670E+04  4.43326E+03  8.95931E+03  1.07229E+04 -6.94230E+03  2.41024E+04 -8.91168E+03  3.23627E+03
 -1.66327E+04 -2.11790E+03 -2.03795E+04 -4.88621E+03 -5.47505E+03 -1.48079E+04  1.87437E+03 -8.14290E+03
  1.06169E+04 -7.22550E+03  3.84528E+03  6.44428E+03  7.46604E+02  2.23939E+03 -4.60103E+02 -3.14331E+01
  5.27680E+03 -1.09199E+03  4.11858E+03 -4.08582E+02  4.82899E+03  2.77918E+02  1.57014E+03  1.09558E+04
  2.67423E+02  1.37481E+04 -9.03123E+03  9.87336E+03 -1.63591E+04  8.27509E+03 -2.27780E+04 -4.21567E+03
 -6.04319E+03 -1.90292E+04  6.51955E+03 -2.27813E+04  1.65662E+04 -1.82043E+04  1.41712E+04 -5.42176E+03
  1.73315E+04  7.60934E+03  3.19356E+03  7.43164E+03 -7.82732E+03 -7.36784E+02 -9.41188E+03  2.82088E+03
 -6.94201E+03 -8.02495E+03  1.37451E+03 -2.86308E+03  2.98329E+03 -1.59700E+03  5.09443E+03  8.92699E+02
 -1.92566E+02  6.03075E+02  3.69783E+03  6.92983E+02  1.38412E+03  5.77393E+03  2.57848E+03  3.99176E+03
  7.13044E+03 -2.98595E+02  7.46164E+03  6.92698E+03  7.88230E+03  3.55310E+03  1.19372E+03  6.64808E+03
 -1.00258E+04  7.38770E+03 -1.14197E+04 -5.81054E+03 -6.93117E+03  3.36708E+02 -3.01499E+03 -6.93968E+03
  9.01258E+03 -5.21458E+03  5.15681E+03  4.08649E+01  1.33862E+03  3.98043E+03 -7.20403E+02  3.89759E+03
  1.29068E+03  3.84425E+03 -8.56047E+03  2.50546E+03  2.03961E+03 -1.36022E+04  9.22903E+02 -3.82467E+03
  1.62182E+03 -1.40308E+03  8.00225E+03 -1.50633E+03 -2.17976E+03  3.02288E+03 -2.48901E+03  6.86427E+03
 -2.76679E+03  5.26818E+03 -8.23047E+03 -3.70310E+03  2.98721E+03 -2.98062E+03  1.32101E+04 -4.25942E+03
  1.86275E+04  2.20448E+03  9.73183E+03  1.28779E+04 -3.17211E+02  8.11509E+03 -6.03995E+03  7.55495E+03
 -1.51016E+04  5.80898E+03 -5.76752E+03  2.03959E+03 -6.97914E+03 -8.99757E+03  4.77592E+03 -8.55587E+03
  2.41575E+03  1.57444E+03  5.19230E+03  5.38254E+03 -1.34208E+03  8.34635E+03 -4.53746E+03  2.81958E+03
 -7.94742E+03  2.38080E+03 -5.37412E+03  3.99744E+03  7.90482E+03 -4.77348E+00 -8.14767E+02 -5.80583E+02
 -3.36922E+03  3.99297E+03 -7.55390E+03  8.56722E+03 -1.69720E+04 -2.18057E+03 -1.03130E+04 -8.10689E+03
 -6.64395E+03 -9.55826E+03  9.30819E+03 -2.23251E+04  1.31750E+04 -1.55634E+04  1.12939E+04 -5.35642E+03
  1.28889E+04  3.25495E+03  9.86850E+03  7.44442E+03 -7.76154E+01  1.56140E+04 -9.39668E+03  5.18700E+03
 -5.71475E+03  3.22590E+03 -6.87863E+03  1.46840E+03 -7.01599E+03  4.58998E+03 -1.73787E+03 -6.84566E+02
  2.31230E+03  2.24598E+03 -4.62188E+03 -6.37365E+03  3.05782E+03 -7.55162E+03  5.15208E+03 -6.57991E+02
  7.00217E+03 -9.47778E+03  1.09597E+04 -5.95567E+03  1.32510E+04  3.54615E+03  4.32557E+03  1.06672E+04
 -1.83515E+03  8.29258E+03 -1.08571E+04  8.31898E+03 -1.51062E+04 -3.41508E+03 -1.62416E+04 -7.32049E+03
 -4.21666E+03 -1.34541E+04  2.84934E+03 -1.50293E+04  7.24712E+03 -5.62953E+03  8.22533E+03  7.05724E+03
  8.12317E+03  2.18490E+02 -5.60156E+02  3.81573E+03 -5.41714E+03  4.01821E+03  6.99280E+03 -5.07176E+03
  3.08966E+03  1.21431E+03  6.22368E+03  2.58197E+03  6.33848E+03  6.96553E+02  4.03588E+03  9.80549E+03
 -6.29770E+03 -6.77621E+02 -6.91495E+03 -6.91576E+01 -8.71773E+03 -3.35042E+03  2.39653E+03 -7.55966E+03
  1.10947E+03  4.18882E+02  9.20267E+03 -5.23200E+03  7.95729E+03  1.16094E+03  3.30062E+03  2.04234E+04
  1.93262E+03  4.72212E+03  1.68918E+03  1.05753E+04 -1.04349E+04 -3.34415E+03  4.46863E+02  5.99108E+03
 -5.15893E+03 -1.38230E+03 -3.84241E+03 -5.24750E+03  1.22019E+03  1.04047E+01 -4.89786E+03 -5.05202E+02
 -5.11620E+03 -1.12676E+03  2.37605E+03 -5.38583E+03  4.91462E+03 -9.16034E+03  1.07395E+04 -4.83704E+03
  4.88534E+03 -4.80258E+03  1.19072E+04  7.48505E+03  2.23256E+03  8.97029E+03 -7.22814E+03  7.26703E+03
