 $NMID ID='MM_0lb_SNR50_18hz_g50_74.RAW', FMTDAT='(8E13.5)'
 TRAMP=1., VOLUME=1. $END
  3.08955E+05  2.91156E+03  3.34304E+05  2.48208E+05  8.24515E+04  3.38802E+05 -1.32523E+05  2.47487E+05
 -1.87893E+05  8.18180E+04 -1.11146E+05 -2.96749E+04  9.16591E+02 -5.09053E+04  5.47410E+04  1.69367E+03
  3.56160E+04  5.53871E+04 -1.98066E+04  7.48059E+04 -6.58992E+04  6.05660E+04 -8.17546E+04  3.13500E+04
 -8.06465E+04 -1.22495E+04 -5.83747E+04 -4.92584E+04 -1.55119E+04 -7.12086E+04  2.80447E+04 -4.47746E+04
  3.82836E+04  7.19860E+03  1.41612E+04  5.00996E+04 -3.48786E+04  4.48137E+04 -6.34543E+04  1.45479E+03
 -5.35003E+04 -5.38366E+04 -1.06858E+04 -7.50669E+04  3.00892E+04 -5.16931E+04  4.38354E+04 -1.66580E+04
  3.28733E+04  8.88733E+03  3.29891E+04  2.83773E+04  1.56311E+04  2.80629E+04 -4.34483E+03  2.69432E+04
 -2.20286E+04  9.81658E+03 -2.19208E+04 -3.60872E+03  5.18909E+03 -6.05071E+03  2.17869E+04  1.26514E+04
  1.08439E+04  3.42761E+04 -3.40038E+04  3.42019E+04 -5.86180E+04  8.20237E+02 -5.55257E+04 -4.05187E+04
 -8.74256E+03 -5.94667E+04  3.94132E+04 -4.60350E+04  5.60734E+04 -5.81730E+03  3.00777E+04  3.37669E+04
 -3.35307E+03  3.04929E+04 -2.71535E+04  1.54493E+04 -2.99015E+04 -4.17562E+03 -1.46434E+04 -9.70374E+03
 -6.49179E+03 -1.22068E+04  1.58657E+03 -1.64925E+04  1.02309E+04 -2.28817E+04  1.31204E+04 -1.45140E+04
  9.66934E+03  3.45856E+03 -8.50801E+03  1.64159E+04 -2.54110E+04 -3.61538E+03 -9.25230E+03 -3.05705E+04
  1.79605E+04 -4.08947E+04  4.61744E+04 -1.87110E+04  4.38353E+04  1.85818E+04  1.69171E+04  4.11842E+04
 -1.58656E+04  3.46364E+04 -2.14791E+04 -9.92614E+02 -1.39777E+04 -2.19001E+04  1.74831E+04 -3.39645E+04
  3.89916E+04 -9.51269E+03  3.03222E+04  2.56164E+04  1.97377E+04  4.28967E+04 -9.50530E+03  4.62176E+04
 -2.68612E+04  2.86210E+04 -3.75395E+04  4.50082E+03 -4.20299E+04 -1.42636E+04 -2.12801E+04 -3.31831E+04
  6.95244E+03 -3.29189E+04  2.71182E+04 -1.19904E+04  2.50615E+04  1.14565E+04  2.32607E+03  1.67792E+04
 -1.09786E+04  8.42787E+03 -5.88568E+03 -1.16443E+04  4.25428E+03 -5.83683E+03  1.45868E+04  5.46713E+03
  1.03063E+04  2.11836E+04 -5.21544E+03  2.80704E+04 -2.10213E+04  7.27368E+03 -2.78482E+04 -5.30771E+03
 -1.79867E+04 -1.73522E+04 -8.08435E+03 -1.63747E+04  3.68970E+03 -1.68102E+04  1.31195E+04 -1.46214E+04
  1.86012E+04 -1.44919E+04  3.27303E+04  3.18645E+03  2.02132E+04  1.58740E+04  2.73947E+03  3.28523E+04
 -1.41944E+04  2.57979E+04 -2.73720E+04  9.98044E+03 -2.01654E+04 -5.84939E+03 -3.44465E+03 -1.05929E+04
 -5.45231E+02 -2.57834E+03 -3.15713E+03  4.23913E+03 -1.55326E+04  7.68619E+03 -1.60295E+04 -1.34182E+03
 -8.15876E+03 -1.63351E+04  4.32363E+03 -2.43723E+04  1.42887E+04 -1.35531E+04  1.52420E+04  9.07275E+02
  8.00535E+03  1.32350E+04  5.99299E+02  1.95850E+04 -1.33169E+04  5.49088E+03 -1.67830E+04 -2.55766E+02
 -1.28013E+04 -1.88522E+04 -3.65690E+03 -2.20227E+04  1.40580E+04 -1.49609E+04  1.77970E+04 -5.92073E+03
  1.26024E+04  4.80588E+02  1.20849E+04  6.78039E+03  3.45773E+03  4.11172E+03  4.73302E+03 -3.03345E+03
  1.32316E+04  4.98770E+03  1.59931E+04  6.92019E+03  1.14447E+04  3.04154E+04  2.28259E+03  3.02342E+04
 -1.51637E+04  2.27871E+04 -2.16366E+04  1.06014E+04 -2.58643E+04 -6.64091E+03 -2.13932E+04 -9.26475E+03
 -1.25315E+04 -1.91314E+04  6.02479E+03 -2.33813E+04  1.98533E+04 -1.15073E+04  2.07862E+04  2.85733E+03
  1.30570E+04  1.40532E+04 -7.48173E+03  1.13476E+04 -1.54460E+04  4.18457E+03 -5.45659E+03 -7.81019E+03
  2.39782E+03 -1.55938E+04  6.06118E+03 -9.97591E+03  1.08258E+04 -8.44120E+02  9.42285E+02  3.20689E+03
 -2.85094E+03  3.57001E+03 -2.56595E+03 -3.80295E+03  7.49676E+02 -8.04752E+03  5.83888E+03 -9.74676E+03
  1.26401E+04 -2.20105E+03  1.15341E+04  3.64334E+03  1.47880E+04  6.35175E+03  6.15583E+03  1.45218E+04
 -1.03806E+03  1.67869E+04 -1.35526E+04  1.35700E+04 -1.39836E+04  3.64726E+03 -8.44721E+03 -1.28497E+03
 -3.70633E+03 -4.43526E+03  1.56922E+03  1.57418E+03 -3.62950E+03  5.25017E+03 -1.85916E+03  4.57185E+03
 -7.52323E+03  1.84098E+03 -9.01816E+03 -7.20107E+03 -6.92398E+03 -1.22367E+04  1.21377E+03 -1.03053E+04
  7.96084E+03 -1.38345E+03  7.79372E+03  1.07257E+03  1.64010E+03  4.88297E+03 -3.59286E+03 -2.51974E+03
 -2.00044E+03 -1.03146E+04  2.73151E+03 -7.29367E+03  2.90565E+03 -1.31148E+04  1.07818E+04 -7.01101E+03
  1.16156E+04  3.40638E+03  1.16376E+04  4.44906E+03  2.84695E+03  1.07633E+04 -6.34358E+03  1.28842E+04
 -9.95034E+03  7.92045E+02 -2.22307E+03 -1.42548E+03  2.75642E+03 -3.14234E+03  9.47507E+03  1.74434E+03
  3.67825E+03  5.73240E+02  8.63472E+02  3.19340E+03 -7.66172E+03  8.55819E+03 -6.36024E+03  5.60362E+03
 -2.11296E+03 -4.93570E+03 -1.07876E+02 -2.10383E+03  5.97529E+03 -2.40079E+03  4.12912E+03 -3.36332E+03
  4.33784E+03  4.47766E+03 -4.82919E+03  7.90265E+03 -7.67090E+03  1.61639E+03 -8.57340E+03 -3.27688E+03
 -6.33000E+03 -1.24556E+04  2.96315E+03 -5.47753E+03  4.96116E+03 -4.99968E+03  5.76404E+03  2.03281E+03
  5.58553E+03  5.06226E+03  1.39340E+03  8.71226E+03 -3.65417E+03  3.38721E+03 -7.01140E+03 -1.25021E+03
 -9.49325E+03 -7.15178E+03 -6.05064E+03 -3.51449E+03  2.08709E+03 -7.00235E+03 -4.13307E+02 -2.32081E+03
  5.65760E+03 -7.27210E+02 -2.49358E+02  3.05849E+03  3.03031E+03 -7.35690E+02  8.29322E+03  2.53189E+03
  3.98801E+03  1.71632E+03  5.87634E+03  3.09602E+03  5.47115E+03  7.62220E+03  6.05385E+03  1.12766E+04
 -1.24056E+03  8.92192E+03 -8.87012E+03  6.16354E+03 -1.01512E+04 -6.06616E+01 -1.08963E+04 -5.13371E+03
 -3.06425E+03 -4.35375E+03 -1.60897E+03 -4.75996E+03  2.20895E+03 -5.96684E+03 -7.19610E+02 -4.25764E+03
  5.69474E+03 -3.56727E+02  1.54657E+03 -4.20981E+03  4.74662E+03 -1.19502E+03  6.65792E+03  4.53841E+03
  4.39015E+03 -4.47137E+03  5.80299E+02  1.59897E+03 -1.12892E+03  4.60454E+03 -4.20570E+03  4.11856E+03
 -3.51043E+03 -2.11186E+03 -2.11666E+03 -6.20135E+03 -2.10656E+03 -7.55370E+03  5.58794E+03 -4.36465E+03
  6.88054E+03 -2.00646E+03  9.22944E+03  5.02176E+03  6.48473E+03  6.36824E+03 -1.45522E+03  6.92854E+03
 -9.53085E+02  7.85456E+03 -2.60832E+03  4.07074E+03 -2.14425E+03 -1.03536E+03  3.35968E+03  1.02404E+03
  1.45668E+03 -1.50170E+02 -2.36609E+03 -7.35984E+02 -1.55734E+03 -4.90583E+02 -2.33723E+03 -2.57831E+03
  1.53598E+03 -8.32081E+03  5.06735E+02 -5.05850E+03  5.28833E+03 -6.69722E+03  2.78118E+03 -2.64883E+03
  6.22347E+03  7.23494E+03  4.33821E+03  3.75034E+03  1.84391E+03  2.93068E+03 -5.33542E+03 -5.83006E+02
 -5.29363E+03 -3.11497E+02 -5.96509E+03 -2.41930E+03 -1.48764E+03 -5.76145E+03  2.66114E+03 -7.38977E+03
  5.55213E+02 -7.22819E+02  6.77695E+03  1.86845E+03  1.38639E+03  1.74343E+03  5.23601E+03  3.98979E+03
 -7.98874E+02  1.49681E+03  3.24024E+03  2.92792E+03  1.71123E+03  1.38422E+03 -1.48682E+02  5.53979E+03
 -2.48808E+03 -2.15763E+02 -2.72135E+03  2.57509E+03 -7.26760E+03 -1.84495E+03 -7.33680E+03 -5.60205E+02
 -9.58114E+02 -6.53573E+03 -1.90647E+03 -7.16465E+03  1.08299E+02 -1.27095E+03  2.72328E+03 -8.91594E+02
  1.01562E+03  5.52981E+03  6.73616E+02  1.25552E+03  8.94269E+02  3.36428E+03 -4.11047E+03 -2.19645E+03
 -3.32787E+03 -1.67655E+03  3.52660E+03 -3.42875E+03  4.83632E+02 -1.07497E+03  4.70602E+03  3.43575E+03
 -1.38948E+03  5.92293E+03  1.65172E+03  1.60185E+03  3.51732E+03 -4.77445E+02 -4.39064E+02 -1.67869E+03
 -4.29145E+03  1.59007E+03 -1.18300E+03 -5.73019E+03 -1.80605E+02  4.08363E+03  1.56395E+03  1.85869E+03
 -7.43026E+03  2.10163E+03 -2.11752E+03  2.41465E+03 -1.16567E+03 -1.07280E+03 -9.08937E+01 -1.61704E+03
 -5.75859E+03 -6.14115E+03  1.41394E+02  2.07018E+03  2.43809E+02 -1.31053E+03 -2.39164E+03  5.26700E+03
  1.07583E+03  1.36605E+03  2.39163E+02  1.60104E+03 -8.32509E+02 -1.16272E+03  1.00026E+03 -2.89064E+03
  4.16932E+03 -9.13979E+02 -7.57489E+02 -1.63637E+03  3.27437E+03 -4.41458E+03  1.81687E+03  7.57854E+02
  2.69116E+03  2.55681E+03  3.96419E+02  2.07396E+03  3.40735E+03 -5.31993E+02  3.99557E+02  2.54231E+03
  2.32516E+02  4.23988E+03  3.20252E+03  7.97427E+02  2.94356E+03  1.39943E+03  2.06559E+03  2.02803E+03
 -3.11968E+03  7.34487E+02 -3.64127E+03  5.75025E+02  9.88435E+02 -1.41964E+03  9.96087E+02  2.40318E+03
  4.04912E+03 -2.55761E+03  9.60353E+02 -5.80725E+03 -3.90493E+02  1.92775E+03  2.12397E+02  3.42627E+03
 -1.81319E+03 -5.47549E+02  2.04734E+03  2.62713E+03  2.13215E+03  3.64275E+03 -1.09512E+03  1.40502E+03
 -4.36411E+02  6.96760E+00 -2.44952E+03  2.02995E+03  1.61003E+03  1.43121E+03 -3.64044E+03 -1.61388E+03
 -5.00490E+03 -4.97646E+03  9.07681E+02  6.31052E+02  1.75933E+03 -1.18475E+01  8.89868E+02 -9.93099E+02
  1.01846E+03 -2.25339E+03 -1.88173E+02  1.11884E+03 -3.69195E+03  3.42798E+03  2.47729E+02  4.00024E+02
  1.79222E+03  1.09653E+03 -2.47239E+03  1.46977E+03 -6.18430E+02  8.15381E+02 -3.77578E+03  4.12325E+01
  1.53952E+03  1.52713E+03 -1.95405E+03 -2.51574E+03 -2.86400E+03  1.53431E+03 -1.46007E+03  2.21427E+03
  2.35355E+03 -1.75255E+03  1.47947E+03  1.71512E+03  8.81790E+02  1.25616E+03 -3.66236E+03  7.44587E+03
  1.24937E+00 -2.79854E+03 -2.95493E+03 -1.90294E+03  2.39620E+02  6.30680E+02 -1.06802E+03 -2.81206E+03
  1.98175E+03 -1.88752E+03 -2.30022E+01 -5.16567E+03 -1.54284E+03 -2.49668E+03  9.34688E+02 -2.55861E+03
 -1.75120E+03  1.46812E+03 -2.97125E+03 -1.57951E+03 -1.59368E+03 -1.87521E+03 -2.97496E+03 -7.53949E+02
  8.97637E+02 -2.34575E+03  6.29499E+02 -8.20568E+02  1.73804E+03 -2.42789E+03  1.33062E+03  2.30265E+02
 -1.09109E+03  4.62532E+03 -1.54227E+03 -4.48017E+03 -6.85192E+02  1.62016E+03  2.84706E+03 -4.23974E+03
 -7.54676E+02  2.13232E+02  1.07027E+03  2.82911E+03  1.74938E+03  4.31549E+01  1.30293E+03  5.44424E+03
  8.64357E+02  2.24323E+03 -3.94242E+03 -2.22308E+03 -2.33721E+03  4.55881E+02  3.97751E+02 -1.18496E+03
 -8.08179E+02  1.91904E+03  2.27080E+03 -1.13427E+03  1.21527E+03 -4.96053E+03  1.16270E+03  5.85886E+02
 -2.26287E+03  2.38776E+03  2.69974E+03 -3.01495E+01  3.67149E+02 -6.32085E+02  4.15281E+03 -3.51559E+03
  4.19652E+02  3.11616E+03  1.77630E+02  2.82168E+03  6.31250E+03 -1.61571E+03 -1.15158E+03  3.06359E+03
