 $NMID ID='MM_0lb_SNR50_16hz_g40_72.RAW', FMTDAT='(8E13.5)'
 TRAMP=1., VOLUME=1. $END
  3.08972E+05  1.33680E+03  3.38872E+05  2.48794E+05  8.39759E+04  3.36931E+05 -1.38129E+05  2.58937E+05
 -1.84884E+05  8.55775E+04 -1.10947E+05 -3.54556E+04  4.46288E+03 -5.10334E+04  5.27535E+04  5.27937E+02
  3.65556E+04  5.26057E+04 -1.94452E+04  7.48737E+04 -6.15171E+04  6.36443E+04 -8.38130E+04  2.95871E+04
 -7.84085E+04 -1.01072E+04 -5.90480E+04 -5.39436E+04 -1.56165E+04 -6.58692E+04  3.34876E+04 -5.05602E+04
  3.72378E+04  7.27044E+03  1.81598E+04  4.71033E+04 -3.58554E+04  4.53173E+04 -6.52057E+04 -2.67128E+03
 -5.42066E+04 -5.76735E+04 -6.60148E+03 -7.77674E+04  3.25863E+04 -5.37425E+04  4.38212E+04 -1.47159E+04
  4.18249E+04  1.08774E+04  3.14368E+04  2.52600E+04  1.56458E+04  2.58974E+04 -5.54936E+03  3.11304E+04
 -2.41668E+04  1.11264E+04 -2.02519E+04 -2.60671E+03  2.19428E+03 -7.63979E+03  2.21643E+04  7.59334E+03
  8.05628E+03  3.38288E+04 -3.18287E+04  3.63581E+04 -6.20336E+04  1.29482E+03 -5.93107E+04 -3.99126E+04
 -1.14143E+04 -6.02459E+04  4.34730E+04 -4.12523E+04  5.59227E+04 -2.54401E+03  3.22864E+04  3.39206E+04
 -2.63539E+03  3.24136E+04 -2.51783E+04  1.66495E+04 -2.42190E+04 -4.98675E+03 -1.58609E+04 -8.68621E+03
 -4.96609E+03 -1.41518E+04 -5.26904E+03 -1.12242E+04  4.36901E+03 -2.29946E+04  1.32783E+04 -1.27628E+04
  8.92708E+03  3.24803E+03 -4.52202E+03  1.08471E+04 -2.29107E+04 -4.71136E+03 -9.23291E+03 -2.65452E+04
  2.08847E+04 -3.97092E+04  4.74974E+04 -1.65091E+04  4.03408E+04  1.55540E+04  1.15994E+04  4.06403E+04
 -1.75215E+04  3.02802E+04 -2.47015E+04 -2.39413E+03 -4.13674E+03 -3.09068E+04  2.11859E+04 -3.27505E+04
  4.01004E+04 -9.23054E+03  3.50492E+04  2.49687E+04  1.35851E+04  4.65630E+04 -9.02747E+03  4.50626E+04
 -2.78217E+04  3.51587E+04 -3.76319E+04  1.03689E+04 -4.25830E+04 -1.33794E+04 -2.26962E+04 -3.76166E+04
  3.31833E+03 -2.91307E+04  2.85965E+04 -1.24361E+04  2.72322E+04  1.08035E+04 -2.99107E+02  1.66045E+04
 -1.09419E+04  6.85198E+03 -1.14504E+04 -4.18637E+03  7.14487E+03 -8.91991E+03  1.48641E+04  2.50832E+03
  1.69088E+04  2.13282E+04 -1.10453E+04  2.12220E+04 -1.94277E+04  7.09526E+03 -2.82326E+04 -6.80883E+03
 -2.24853E+04 -1.93959E+04 -4.60556E+03 -1.89818E+04  2.51986E+03 -1.64608E+04  1.58405E+04 -1.19926E+04
  2.04725E+04 -1.15113E+04  2.52353E+04  2.22618E+03  2.07838E+04  1.44510E+04  3.16757E+03  3.49322E+04
 -1.31809E+04  3.17941E+04 -2.50436E+04  1.11658E+04 -2.23423E+04 -1.40481E+04 -2.10444E+03 -1.55693E+04
  2.25569E+03 -6.02836E+03 -1.86825E+02  4.05268E+03 -1.81885E+04  3.15142E+03 -1.57007E+04 -4.21735E+03
 -3.83062E+03 -1.68836E+04  8.09925E+03 -2.30622E+04  1.51796E+04 -1.57623E+04  1.48728E+04 -2.61302E+03
  1.25884E+04  8.95736E+03 -1.42446E+03  1.63765E+04 -8.25807E+03  8.44247E+03 -1.55796E+04 -4.24753E+03
 -1.39844E+04 -1.24708E+04 -1.42193E+03 -1.91964E+04  1.53756E+04 -1.57277E+04  1.82184E+04 -9.14808E+03
  1.95237E+04 -6.51938E+01  1.14295E+04  7.69597E+02  2.32176E+03 -1.47379E+03  1.03797E+04 -1.33541E+02
  1.62834E+04  3.10606E+03  1.65758E+04  1.40088E+04  8.23106E+03  2.46016E+04 -2.08053E+02  2.95838E+04
 -1.93725E+04  2.19554E+04 -2.53471E+04  1.27784E+04 -2.34016E+04 -1.40998E+03 -2.33991E+04 -1.82845E+04
 -9.73892E+03 -2.16909E+04  8.57648E+03 -2.07424E+04  1.21632E+04 -7.00734E+03  1.30780E+04  8.09045E+02
  3.89810E+03  1.03974E+04 -4.45484E+03  1.28604E+04 -1.47714E+04  2.38664E+03 -1.38884E+04 -9.64685E+03
 -6.37396E+02 -1.36185E+04  8.47879E+03 -1.71976E+04  7.32231E+03 -1.52055E+03  4.47990E+03  4.70638E+03
 -8.04686E+03 -5.96241E+02 -7.54370E+03 -5.05757E+03 -3.89187E+02 -1.18397E+04  9.04483E+03 -1.15832E+04
  1.08323E+04 -2.93676E+03  1.34886E+04  1.67341E+03  1.06336E+04  1.22391E+04  7.60286E+03  1.96497E+04
 -2.53310E+03  1.93706E+04 -1.09870E+04  1.44833E+04 -1.25076E+04  3.28626E+03 -1.10959E+04 -1.51619E+03
 -5.68578E+03 -2.05115E+03  6.17894E+02  1.21881E+03 -2.40906E+03  1.78278E+03 -6.24383E+03  9.81659E+03
 -6.12633E+03 -1.01491E+03 -1.14065E+04 -4.67987E+03 -5.59754E+03 -1.64863E+04  4.78474E+03 -7.81963E+03
  9.19590E+03 -4.59506E+03  5.08043E+03  9.76563E+02 -9.89102E+02  2.88192E+03 -4.22573E+03  5.29103E+03
 -3.67802E+03 -6.06867E+03 -1.85111E+03 -1.26297E+04  1.01369E+04 -4.38554E+03  8.65822E+03 -7.15009E+03
  1.52547E+04  2.01781E+03  1.14441E+04  7.77169E+03  2.57748E+03  1.09257E+04 -6.09749E+03  6.97903E+03
 -4.22663E+03  7.76700E+03 -9.32598E+02  1.02881E+03 -2.19884E+03  3.92807E+02  2.54595E+03 -2.53091E+03
  4.56978E+03  6.16322E+03  2.43790E+03  6.60650E+03 -7.69570E+03  9.45614E+03 -1.59098E+04 -1.38348E+03
 -8.56512E+03 -7.12949E+03  2.51564E+03 -1.26815E+04  7.94832E+03 -3.70273E+03  4.54509E+03 -5.37335E+02
 -3.78901E+03  4.21484E+03 -2.14243E+03  1.27987E+04 -9.86672E+03 -2.93600E+02 -6.38094E+03  1.37658E+03
 -4.60104E+03 -7.24166E+03  2.87941E+03 -1.08595E+04  6.84246E+03 -7.33958E+03  8.15207E+03 -8.45277E+02
  2.77213E+03  6.66233E+03 -2.21136E+03  2.62376E+03 -2.70486E+03  4.92435E+03 -3.64105E+03 -7.02738E+02
 -8.09052E+03 -6.22688E+03 -5.10808E+03  7.13468E+02  4.81051E+03 -8.37326E+03  8.31683E+03 -1.79025E+03
  4.36913E+03 -1.53920E+03  1.88047E+03  3.51717E+03 -4.21070E+02 -3.12349E+03 -8.53334E+02  2.20285E+02
  2.55524E+03 -4.45559E+03  4.97899E+03 -2.13603E+03  6.97673E+03  4.83263E+03  5.44239E+03  8.57803E+03
 -2.42712E+03  1.30039E+04 -7.00199E+03  8.93639E+03 -1.30805E+04 -1.99046E+03 -1.02858E+04 -1.73342E+02
 -4.38589E+03 -5.21109E+03  2.09474E+03 -8.95890E+03  1.28643E+03 -3.32139E+03  8.15448E+02 -3.69539E+03
  2.82021E+03  1.13361E+03  4.56692E+03 -6.41157E+03  2.49440E+03 -5.65097E+03  3.87354E+03 -2.35023E+03
  6.31299E+03  8.79427E+02 -4.22051E+02  5.66279E+03 -1.53963E+03  7.34946E+03 -6.61518E+03 -2.07016E+02
 -3.00262E+03 -1.93842E+03 -5.15320E+03 -3.82957E+03  3.30392E+03 -4.78341E+03  5.25509E+03 -9.10501E+03
  1.28633E+04 -2.25227E+03  7.22775E+03 -1.82342E+03  6.07989E+03  9.80379E+03  1.04568E+03  6.32063E+03
 -6.62368E+02  8.63961E+03 -2.32763E+03  6.60501E+02 -1.68381E+03 -4.08034E+03 -4.30918E+02  6.07493E+02
  5.97276E+03  2.47304E+01 -2.20705E+03  4.07613E+03  8.94391E+01  9.20865E+02 -2.23536E+03 -1.29986E+03
 -1.17200E+03 -1.02711E+04 -4.43008E+03 -8.14643E+03  1.04804E+03 -6.09334E+03  7.90751E+03  5.47833E+02
  5.97552E+03  5.74078E+03  4.38058E+03  7.20567E+03  1.95383E+02  3.08519E+03 -1.86915E+03  5.40130E+03
 -1.77396E+03  3.19926E+03 -4.94070E+03 -4.68949E+03 -9.11637E+02 -1.18939E+03 -7.58485E+02 -3.51353E+03
  6.84651E+03 -2.99814E+03  6.17190E+03  8.58103E+02  2.11089E+03 -4.70690E+02  3.12188E+03  8.49325E+02
  2.49624E+03  3.31461E+03  3.26430E+03  3.72126E+03  8.01641E+03  3.08066E+03 -1.05956E+02  2.78723E+03
 -1.04462E+02  8.45602E+03 -8.72168E+03  6.22955E+03 -1.49789E+03  4.70578E+02 -4.01862E+03 -3.62669E+03
 -3.25298E+03 -4.87310E+03  6.49664E+03 -3.62584E+03  6.42769E+03 -2.10716E+03  3.27587E+03 -3.67196E+03
  6.84841E+03  3.97606E+03  8.92009E+02  1.70186E+03  4.93881E+03 -7.72356E+01 -2.88285E+03 -1.92913E+03
 -1.41452E+03 -7.78245E+01  3.62742E+03 -2.54679E+03  7.32226E+03 -1.40362E+03  2.23343E+02  2.45167E+02
  5.63838E+02 -2.80205E+03  3.07061E+03 -2.55818E+02 -7.57892E+02  1.73949E+03  9.02592E+02  8.42389E+02
  7.90585E+02 -2.90825E+03  3.25242E+03  1.42635E+03  1.49849E+03  2.92846E+03  1.29513E+02  7.56017E+03
 -7.20719E+03  2.27573E+03 -1.51899E+03 -3.13911E+03 -2.31925E+03 -4.56071E+02 -6.74731E+03 -7.40597E+02
  2.25897E+03 -3.87260E+02  2.24192E+03 -2.15159E+03  3.45114E+03 -4.99795E+02  1.71859E+03  6.17509E+03
 -1.37322E+03  2.27101E+03 -1.11224E+01 -3.52090E+03 -1.20097E+03 -2.48732E+03  9.36303E+02 -2.52170E+03
 -4.66261E+02 -8.28867E+02 -2.59807E+03  1.14731E+03 -2.11937E+03  6.34702E+03  6.03250E+02 -1.46586E+03
  3.99242E+02  3.36251E+01  8.61617E+02 -4.23821E+02 -3.33837E+03 -2.50024E+02  1.72935E+03 -1.35044E+02
  1.17034E+03  3.27303E+02 -9.68800E+02 -1.89547E+03 -7.40223E+02  3.74603E+03  1.77003E+03 -2.37785E+03
  1.06779E+03 -1.66418E+03 -2.13254E+03 -1.09202E+01  2.15638E+03 -2.37470E+03  7.61541E+02 -3.40840E+03
  2.31146E+03 -2.84756E+03  3.72498E+03 -1.74412E+03 -4.16756E+03 -3.05462E+01 -1.32285E+03  4.95092E+03
 -1.60237E+02  2.91285E+03 -2.81184E+03  1.24167E+03 -3.80412E+02  1.52753E+03 -5.34749E+03  5.40227E+03
  1.02429E+03 -1.55009E+03 -4.79263E+03 -4.82005E+02 -3.40988E+03 -1.06000E+03 -5.84315E+03 -1.22076E+03
 -2.88865E+02 -2.02274E+03  2.51633E+03 -7.05445E+03  1.92892E+03 -1.23974E+03  7.58315E+03 -4.02096E+03
  2.50779E+03 -3.15388E+03 -1.15140E+03  1.50271E+03  7.10012E+02  1.28436E+03  2.09464E+03  2.88999E+03
 -2.20207E+03 -7.82207E+02 -3.66375E+03  2.94422E+03 -4.36866E+02  8.45349E+02 -2.52746E+01  3.45878E+02
 -3.17678E+02 -1.54788E+03  3.00450E+03  1.25772E+03  1.83976E+03 -1.31697E+03  1.08875E+03 -4.12087E+03
  3.60565E+03 -8.18883E+02  7.78279E+02  3.18889E+02 -9.76869E+02 -7.81359E+01 -2.65673E+03 -8.37589E+02
 -1.37397E+03  3.48572E+03 -4.24978E+03 -5.95951E+02 -3.45937E+03 -4.55262E+03 -4.27032E+03  2.11612E+03
 -6.57975E+03 -2.58756E+03  2.88575E+03  1.47344E+03 -3.79092E+02  1.22775E+02 -4.27459E+03 -3.57366E+03
  2.43307E+03 -1.08639E+03 -2.50975E+03  2.11821E+03 -7.80753E+02  2.11505E+03 -1.12383E+03  2.30475E+03
 -1.53217E+03  2.55047E+03 -4.05531E+02  3.15909E+03  2.04990E+03  4.10015E+03  2.64252E+03  2.27517E+03
 -5.32368E+02 -1.99384E+03 -4.26375E+03  2.01804E+03 -9.70233E+02  2.20152E+02  2.91890E+03 -6.22984E+03
  1.67001E+03  4.15659E+02 -1.23926E+03 -4.08499E+03  5.91376E+02 -4.08831E+03  8.42268E+01 -1.99854E+03
 -1.58067E+03  2.36171E+03 -5.68858E+03 -1.97923E+03 -1.66493E+03  3.12794E+03 -7.50691E+02  4.53233E+03
  4.45002E+02 -9.01344E+02 -2.68905E+03  3.20230E+03 -4.10229E+03 -4.83699E+02 -2.97132E+03 -1.28729E+03
 -1.58931E+03  1.48361E+03  5.73209E+02 -4.40729E+03  3.67837E+03 -4.66396E+03  6.60980E+02 -8.21026E+02
  4.35533E+03  1.32227E+03  1.95038E+03  3.44568E+03  1.03114E+03  3.02619E+03 -5.96713E+03  1.13042E+03
