 $NMID ID='MM_0lb_SNR50_15hz_g50_20.RAW', FMTDAT='(8E13.5)'
 TRAMP=1., VOLUME=1. $END
  3.12228E+05  7.43661E+02  3.36598E+05  2.52106E+05  8.53189E+04  3.43015E+05 -1.33603E+05  2.49881E+05
 -1.88524E+05  8.85003E+04 -1.11251E+05 -3.22257E+04  9.52664E+02 -5.10857E+04  5.69093E+04 -3.69292E+03
  3.77446E+04  5.28653E+04 -1.06661E+04  7.35529E+04 -6.18743E+04  5.98096E+04 -8.28229E+04  3.03784E+04
 -8.31590E+04 -1.08652E+04 -5.77554E+04 -4.59095E+04 -8.70407E+03 -6.93262E+04  2.96465E+04 -4.63509E+04
  4.51344E+04  1.11767E+03  1.81647E+04  5.36597E+04 -3.56151E+04  5.10796E+04 -6.80442E+04 -4.99316E+02
 -5.35007E+04 -5.82561E+04 -5.83857E+03 -7.77081E+04  3.20147E+04 -5.70466E+04  5.06376E+04 -1.45400E+04
  4.13737E+04  9.28687E+03  3.18507E+04  2.46857E+04  1.59340E+04  3.14175E+04 -4.64606E+03  3.04042E+04
 -2.07335E+04  1.17307E+04 -1.73364E+04 -6.58778E+03  5.13141E+03 -8.81228E+03  2.49640E+04  9.61604E+03
  4.03676E+03  3.47554E+04 -3.13451E+04  3.76952E+04 -6.05747E+04 -2.01102E+03 -5.70394E+04 -3.66076E+04
 -1.53510E+04 -5.95604E+04  3.81421E+04 -4.54851E+04  5.81870E+04 -6.42493E+02  3.45384E+04  3.03853E+04
 -6.23654E+03  3.88364E+04 -3.09056E+04  1.60736E+04 -2.99623E+04 -4.35737E+03 -1.50107E+04 -2.08841E+04
 -7.53344E+03 -1.14202E+04  3.66094E+03 -1.91449E+04  8.16608E+03 -1.84001E+04  1.72891E+04 -1.39441E+04
  8.91672E+03  5.59359E+03 -1.15750E+04  1.44501E+04 -2.42318E+04 -5.17749E+03 -9.56139E+03 -3.08653E+04
  2.47575E+04 -4.03364E+04  4.49057E+04 -2.02378E+04  4.73720E+04  1.90120E+04  1.41230E+04  4.05379E+04
 -1.58931E+04  3.40721E+04 -2.79844E+04  5.29364E+03 -7.44082E+03 -2.87964E+04  2.07494E+04 -3.46422E+04
  4.19091E+04 -7.34715E+03  3.54084E+04  2.28770E+04  1.62572E+04  4.60310E+04 -5.90661E+03  4.93437E+04
 -3.34924E+04  3.09893E+04 -4.13109E+04  8.77926E+03 -4.30860E+04 -1.24188E+04 -2.13395E+04 -4.10424E+04
  1.23064E+04 -3.96435E+04  3.09932E+04 -1.36694E+04  3.22090E+04  1.07836E+04  4.46147E+03  1.70346E+04
 -1.18607E+04  5.05135E+03 -9.18698E+03 -6.12298E+03  2.39979E+03 -1.01739E+04  1.72701E+04  7.74852E+03
  1.01607E+04  1.71860E+04 -4.11038E+03  2.26255E+04 -1.78233E+04  1.06559E+04 -2.71153E+04 -8.03510E+03
 -1.87806E+04 -1.84410E+04 -1.11773E+04 -1.93079E+04  3.76983E+03 -2.19288E+04  1.56929E+04 -1.70868E+04
  2.81302E+04 -1.55011E+04  3.39987E+04  2.58644E+03  1.74638E+04  1.51766E+04  3.67135E+02  3.98697E+04
 -1.70091E+04  2.96736E+04 -2.95438E+04  1.22316E+04 -1.97218E+04 -6.59180E+03 -3.71377E+03 -1.32460E+04
  3.46360E+03 -2.52585E+03 -3.00530E+03  6.48291E+03 -1.46709E+04  5.36958E+03 -1.11728E+04 -5.70958E+03
 -7.85581E+03 -1.87901E+04  1.91277E+03 -2.34012E+04  1.70824E+04 -1.82416E+04  1.68340E+04  1.57896E+03
  8.66250E+03  1.65321E+04  3.34822E+02  1.42527E+04 -9.74323E+03  5.93113E+03 -1.69088E+04 -5.11181E+03
 -1.41334E+04 -1.32888E+04 -9.70970E+02 -1.76051E+04  4.86737E+03 -1.74141E+04  2.21836E+04 -8.86850E+03
  1.67476E+04 -1.48863E+03  1.38911E+04  1.42010E+03  1.63745E+03 -2.24171E+03  1.04205E+04  5.27494E+02
  1.58729E+04  3.36299E+03  2.00851E+04  1.56173E+04  1.38848E+04  3.05445E+04 -2.65808E+03  2.83114E+04
 -1.88965E+04  3.02605E+04 -2.87971E+04  1.60179E+04 -3.35387E+04 -4.03101E+03 -2.53538E+04 -1.86648E+04
 -1.18606E+04 -2.28724E+04  1.11871E+04 -2.31605E+04  1.82203E+04 -1.20727E+04  2.18228E+04  2.88251E+03
  9.36046E+03  1.56268E+04 -1.00096E+04  1.01114E+04 -1.76675E+04  2.86497E+03 -1.22505E+04 -7.71399E+03
 -3.32122E+03 -1.75631E+04  3.89151E+03 -1.20960E+04  1.13362E+04 -3.37171E+03  5.80587E+03  1.82940E+03
 -2.65389E+03 -1.03467E+03 -4.21781E+03 -8.42882E+03 -1.53467E+03 -1.04073E+04  6.36558E+03 -1.46054E+04
  1.05176E+04 -8.11482E+03  1.45409E+04 -4.29213E+03  1.15288E+04  1.46583E+04  1.41934E+03  1.62193E+04
 -4.08705E+03  2.00270E+04 -1.15370E+04  1.42888E+04 -1.38209E+04  6.20182E+03 -9.88436E+03 -3.17685E+03
  1.99753E+03 -5.44717E+03 -1.55568E+01  2.16957E+03  1.30428E+02  3.98199E+03 -7.05522E+03  3.38745E+03
 -1.30154E+04  2.66095E+03 -1.37756E+04 -6.58889E+03 -6.02913E+03 -1.13898E+04  2.10703E+03 -1.56275E+04
  7.01968E+03 -3.86511E+03  6.59580E+03  3.91678E+03  1.90744E+03  6.58748E+03 -4.18246E+03  1.75427E+03
 -6.11759E+03 -1.38739E+04 -7.76927E+02 -6.04980E+03  8.40874E+03 -8.57719E+03  1.55179E+04 -5.60709E+03
  1.31549E+04  1.01508E+03  1.28108E+04  6.60254E+03 -1.33563E+03  1.64124E+04 -8.33214E+03  1.12089E+04
 -9.56965E+03  2.38723E+03 -4.43668E+03 -3.09847E+03  4.30647E+03 -3.85608E+03  1.01199E+04  1.36776E+03
  5.63277E+03  3.97430E+03  1.60195E+03  7.81523E+03 -4.45791E+03  5.47842E+03 -1.16993E+04  1.64249E+03
 -3.01301E+03 -2.26271E+03  1.41231E+03 -1.10031E+04 -1.24255E+03 -4.77608E+03  3.68523E+03  3.92543E+02
  6.27322E+02  6.42826E+03 -2.60629E+03  6.86266E+03 -1.08611E+03  8.54692E+02 -6.59320E+03 -1.64211E+03
 -8.44675E+03 -8.81626E+03  1.56536E+03 -9.23084E+03  8.17356E+03 -1.20520E+04  8.69800E+03  4.98841E+03
  5.67348E+03  9.19419E+03 -9.74433E+02  8.12974E+03 -3.32939E+03  4.66176E+03 -1.31226E+04 -1.22078E+03
 -1.00453E+03 -8.18201E+03 -2.59634E+03 -9.48226E+03  6.78577E+03 -5.13735E+03  1.23169E+04 -3.84262E+03
  5.65638E+03 -2.81894E+02 -4.52476E+03  1.80916E+03 -6.32353E+03 -1.18276E+03 -1.83457E+03 -5.93624E+03
  5.37178E+03 -4.12634E+03  3.40917E+03  2.77140E+03  7.43171E+03  1.27555E+04  7.77690E+03  9.02765E+03
 -2.02300E+03  1.94842E+04 -9.23239E+03  9.36645E+03 -1.46276E+04  1.56978E+03 -1.21693E+04 -2.13306E+03
 -5.22122E+03 -9.16381E+03  6.70998E+02 -5.90851E+03  4.99590E+03 -3.66718E+03  7.85973E+03 -1.69062E+03
  9.95602E+02  7.37072E+02  2.25320E+03 -2.17097E+03  6.07166E+03 -2.96077E+03  3.62974E+03  2.91429E+02
  4.48996E+03  6.19685E+02 -2.31991E+03  4.31825E+03 -9.10378E+02  3.50537E+03 -3.81069E+03  3.64778E+03
 -2.41741E+03  1.30467E+03 -3.38038E+03 -5.71232E+03 -1.63199E+02 -8.34443E+03  7.83021E+02 -3.67064E+03
  7.18682E+03 -5.21026E+03  6.90983E+03  2.50022E+02  4.02387E+03  8.33924E+03 -4.50215E+02  5.62477E+03
 -2.13281E+03  1.03022E+04 -7.13091E+03 -5.57129E+01 -4.20308E+03 -3.45270E+03 -4.69272E+03  5.06468E+02
 -8.05383E+02 -6.86351E+02 -2.61682E+03  4.02855E+03 -3.57767E+02 -1.63210E+03 -6.28487E+03  6.04198E+03
 -1.38659E+03 -4.39928E+03 -1.74783E+03 -6.88385E+03  6.03807E+03 -3.13463E+03  1.06637E+04 -2.13593E+03
  4.12956E+03  3.59152E+03  1.92354E+03  7.91227E+03 -5.85543E+03  8.52542E+03 -6.73303E+03  6.81356E+03
 -9.01760E+03  3.50911E+02 -3.89940E+03 -1.96813E+03 -1.21248E+03 -2.16294E+03  2.52603E+03 -3.35155E+02
  7.80842E+03  2.27533E+03  2.72331E+03  9.58447E+02  9.51665E+02  4.17703E+03  4.36095E+03  2.70882E+03
 -2.34886E+03 -3.02019E+03 -3.17997E+03  4.63087E+03  1.78847E+03  1.52347E+03  3.18962E+03  4.83650E+03
 -6.02121E+02  5.39824E+03 -7.32161E+03  7.66856E+03 -8.45002E+03  3.72302E+03 -8.38033E+03  2.02213E+03
 -4.80590E+03 -6.72851E+03  4.09268E+02 -7.25278E+03  3.23499E+03 -3.11409E+03  5.49815E+03 -3.17365E+02
  1.45427E+02  9.74248E+03  2.05205E+03  6.20538E+03 -2.86687E+03  3.88905E+03 -2.78516E+03 -4.09191E+03
 -4.64644E+02 -2.47543E+03 -2.53589E+03 -1.40558E+03  5.56397E+03 -8.98702E+02  2.08418E+02 -8.23044E+02
  1.96346E+03  1.12949E+03  3.48100E+03  1.08132E+03 -2.42113E+03  2.77998E+02 -2.66930E+03  2.10801E+03
 -1.54348E+03 -1.57077E+02  1.63350E+03  3.48525E+03 -2.32362E+02  6.95899E+03  2.86072E+02  6.47190E+03
 -4.49203E+03  1.67698E+03  7.01633E+02  4.68324E+02 -6.74887E+03  2.97378E+02  8.35876E+02 -1.11007E+03
  6.95499E+02 -5.66419E+02  1.68858E+03 -8.50030E+03 -3.39469E+02  1.39999E+03 -1.74503E+03  1.29659E+03
 -7.46466E+03  3.04155E+03 -4.57803E+03 -2.23563E+03 -7.28826E+03 -2.25016E+03  2.86208E+02 -2.47099E+03
  5.10404E+01  4.44462E+02 -4.82077E+03  2.33007E+03  4.18235E+03  7.52785E+02  3.63233E+03  4.74768E+03
 -7.16554E+02 -1.08016E+03  2.40501E+03 -6.33553E+03 -4.47922E+02 -5.55262E+03  1.37978E+03 -3.26067E+03
  3.00043E+02 -3.85963E+03  3.26645E+03  3.24967E+03 -2.56467E+03  3.51272E+03  4.07652E+03 -6.50349E+02
 -4.70607E+03  7.36500E+02 -3.99305E+03 -2.29322E+03 -2.71211E+03 -1.93565E+02 -6.59359E+02 -4.72190E+03
 -3.89734E+02 -5.09682E+03  1.64406E+03 -1.64060E+03  2.05737E+03 -6.02804E+02  1.32838E+03  1.49769E+03
  8.28605E+02 -1.44260E+03 -2.99902E+03 -6.37206E+03 -3.68821E+02  1.90356E+03 -3.60128E+03  1.43165E+03
 -3.29173E+03  8.97347E+02 -6.98996E+03  2.69403E+03 -3.21729E+03  3.29348E+03 -1.03429E+03 -6.58932E+03
 -1.43840E+03 -3.01800E+03  3.62314E+03 -7.13010E+03  4.42068E+03 -6.94908E+03  5.28176E+03 -7.22023E+03
  4.05505E+03 -3.41579E+02  1.93980E+03  4.67405E+03 -7.64216E+02  6.94609E+03 -4.00579E+03 -1.36713E+03
 -5.09291E+03  3.09502E+03  2.29051E+03  4.65323E+03 -4.53829E+02  2.31213E+03 -5.06116E+03 -1.33270E+03
 -3.25986E+03 -3.81847E+03  2.91391E+03 -5.77752E+02  4.56620E+03 -4.50622E+03  2.49330E+02  1.83341E+03
 -1.79511E+02 -6.54729E+03  3.29284E+03  4.14389E+02  2.27453E+03  1.70069E+03 -7.10012E+01  2.92470E+03
 -4.14049E+03  7.21579E+03 -7.16698E+03  5.57080E+03 -5.61565E+03  3.61847E+03 -6.69372E+03 -9.62677E+02
  1.52247E+03  2.81426E+02  8.84568E+02 -2.53483E+02 -2.74005E+03 -5.44689E+03  4.35847E+03 -1.65373E+03
  1.07573E+03 -5.47650E+03  6.18313E+02 -1.19793E+03 -9.98796E+01 -3.89331E+03  1.28193E+03 -6.65205E+02
 -4.31404E+02  2.57325E+03 -7.71943E+02  2.29086E+03 -2.06242E+03  2.59983E+03  3.25417E+03  3.38534E+03
 -1.45733E+02  2.27279E+03 -2.28959E+03  5.13632E+03 -4.25439E+03  3.09690E+03  1.74805E+03 -7.46367E+03
  1.29683E+03  2.84314E+02  6.50150E+03 -6.92072E+03  2.45159E+03  9.24065E+02 -4.35476E+03  2.06036E+03
  7.53854E+03  1.14883E+03 -4.80789E+03  5.52770E+03  2.29644E+03 -2.89458E+03 -9.42927E+02 -2.85380E+03
  1.06005E+03  3.65048E+03  4.50700E+02  5.95705E+03 -1.49349E+03  6.85054E+02 -1.65943E+03 -1.03083E+03
  1.07397E+03  1.78465E+03 -9.87396E+02 -2.26515E+03 -3.61542E+03 -6.39842E+03  1.58021E+03 -2.67040E+03
 -3.94712E+03  9.11650E+02  1.92541E+03  2.86053E+03  8.21654E+02  4.12293E+03  7.68220E+02  3.98590E+03
