 $NMID ID='MM_0lb_SNR50_12hz_g50_71.RAW', FMTDAT='(8E13.5)'
 TRAMP=1., VOLUME=1. $END
  3.12321E+05 -4.47313E+02  3.43663E+05  2.49525E+05  9.08417E+04  3.34498E+05 -1.31469E+05  2.51059E+05
 -1.87903E+05  8.04024E+04 -1.17419E+05 -3.24389E+04 -3.80342E+03 -5.21431E+04  4.86545E+04 -4.53968E+03
  3.86226E+04  5.42556E+04 -2.00155E+04  7.64252E+04 -6.48999E+04  6.16924E+04 -8.96741E+04  3.93880E+04
 -7.91719E+04 -1.29388E+04 -5.70799E+04 -5.30618E+04 -1.77862E+04 -6.76687E+04  2.59809E+04 -3.97773E+04
  4.30858E+04  1.59911E+03  1.38656E+04  4.86788E+04 -3.74104E+04  4.69323E+04 -7.03474E+04  4.49612E+02
 -5.06162E+04 -5.70941E+04 -5.51437E+03 -7.61487E+04  3.38922E+04 -5.16283E+04  4.90523E+04 -2.01384E+04
  4.98816E+04  7.02128E+03  3.25306E+04  2.43243E+04  1.39031E+04  3.23296E+04  1.41641E+03  2.89837E+04
 -2.06605E+04  1.33884E+04 -2.26851E+04 -7.43899E+03  1.10971E+04 -4.71474E+03  1.61428E+04  1.45975E+04
  9.93940E+02  4.08076E+04 -2.84556E+04  3.48434E+04 -6.28106E+04  1.23837E+03 -5.66349E+04 -4.38213E+04
 -1.49343E+04 -6.18079E+04  3.65306E+04 -4.24872E+04  5.96181E+04 -5.92520E+03  3.65702E+04  3.04796E+04
 -7.35495E+03  3.84027E+04 -3.16531E+04  2.30514E+04 -3.04975E+04 -2.32429E+03 -2.48664E+04 -1.11999E+04
 -8.99099E+03 -5.36854E+03 -9.25400E+01 -1.91769E+04  8.05710E+03 -2.72252E+04  1.15396E+04 -1.33254E+04
  1.19511E+04  7.55898E+03 -1.00264E+04  8.24744E+03 -1.81839E+04 -1.48990E+03 -1.04564E+04 -3.30408E+04
  2.26725E+04 -4.92379E+04  5.63650E+04 -1.88946E+04  5.02029E+04  2.18208E+04  1.59607E+04  4.23989E+04
 -1.68892E+04  3.11627E+04 -2.31832E+04  4.82934E+03 -1.18562E+04 -2.78829E+04  2.28297E+04 -3.24200E+04
  4.92500E+04 -1.30563E+04  3.88246E+04  2.23819E+04  1.99825E+04  5.37867E+04 -8.24403E+03  5.02271E+04
 -3.07504E+04  3.42392E+04 -4.74575E+04  1.12847E+04 -4.82521E+04 -1.57099E+04 -2.31826E+04 -3.94390E+04
  7.94082E+03 -3.86415E+04  3.76271E+04 -2.18851E+04  3.24816E+04  1.11092E+04  5.13976E+03  2.25896E+04
 -1.32615E+04  6.36774E+03 -1.24885E+04 -6.09857E+03  8.79696E+03 -6.62263E+03  1.39050E+04  5.07996E+03
  1.61321E+04  1.94353E+04 -2.36837E+03  2.33956E+04 -2.58048E+04  5.97453E+03 -2.80899E+04 -3.76360E+03
 -2.21020E+04 -1.94081E+04 -1.36663E+04 -2.32107E+04  8.57628E+03 -2.13584E+04  2.03096E+04 -1.82352E+04
  2.86833E+04 -1.55389E+04  3.34390E+04  8.03621E+03  2.95377E+04  1.73194E+04  4.80322E+03  3.98896E+04
 -2.01422E+04  2.99793E+04 -3.15701E+04  9.48528E+03 -1.47522E+04 -1.05946E+04 -5.44119E+03 -1.43514E+04
  1.35442E+03 -4.03473E+03 -4.65533E+03  4.46273E+03 -1.67856E+04  7.99918E+03 -2.03583E+04 -7.69510E+03
 -1.00880E+04 -2.17558E+04  6.24430E+03 -2.34396E+04  1.49127E+04 -1.44088E+04  2.17704E+04 -2.52278E+03
  1.27075E+04  9.56982E+03 -6.50598E+03  2.17686E+04 -1.17423E+04  1.28181E+04 -1.68794E+04 -2.62530E+03
 -1.20727E+04 -2.26789E+04  2.84821E+03 -3.04499E+04  1.22433E+04 -1.90157E+04  2.18429E+04 -9.12626E+03
  1.60300E+04 -1.04680E+03  1.50407E+04  2.10570E+03  7.27877E+03  1.15190E+03  1.16207E+04 -2.66337E+03
  2.14557E+04 -6.46443E+02  1.58702E+04  1.75056E+04  1.12776E+04  3.20332E+04 -4.56736E+03  4.08648E+04
 -2.03824E+04  2.88102E+04 -4.06046E+04  1.66150E+04 -3.99179E+04  1.19283E+03 -2.77498E+04 -2.40386E+04
 -1.46320E+04 -2.98531E+04  1.70161E+03 -3.20613E+04  2.23372E+04 -1.46543E+04  2.03368E+04  7.24781E+03
  5.65381E+03  1.57752E+04 -1.41653E+04  1.35962E+04 -1.53064E+04  1.80434E+03 -1.65310E+04 -1.48179E+04
  2.63213E+03 -1.45183E+04  8.95153E+03 -1.55682E+04  1.32615E+04 -6.36243E+02  2.31530E+01  7.94011E+03
 -6.76809E+03  3.03946E+03 -7.90396E+03 -5.72095E+03 -2.50163E+03 -1.20176E+04  1.11045E+04 -1.50002E+04
  1.88448E+04 -1.09478E+04  2.36814E+04  7.13816E+03  2.09176E+04  1.15365E+04  9.23512E+03  2.46265E+04
 -3.48619E+02  2.47654E+04 -1.73176E+04  9.97427E+03 -1.89368E+04  5.58507E+03 -1.07430E+04 -8.21759E+03
 -2.59627E+03 -9.07187E+02  2.74834E+02 -2.90803E+03 -3.42255E+03  2.43264E+03 -5.92522E+03  4.42557E+03
 -1.11373E+04  3.92423E+03 -1.04046E+04 -1.33465E+04 -3.60205E+03 -1.57550E+04  3.43572E+03 -1.11793E+04
  1.28627E+04 -6.02287E+03  8.25912E+03 -1.54387E+03 -2.16576E+03  9.37142E+03 -8.46819E+03 -8.51129E+03
 -1.09891E+04 -7.31347E+03 -4.83636E+03 -9.40170E+03  5.90428E+03 -1.54780E+04  1.64642E+04 -7.04228E+03
  1.56937E+04  2.03325E+03  1.32702E+04  1.37078E+04  5.84746E+03  1.40491E+04 -2.49244E+03  1.48954E+04
 -6.77586E+03  7.79410E+03 -4.54537E+03 -1.34532E+03  8.65633E+01 -3.98710E+03  4.86566E+03 -4.73743E+03
  6.15769E+03  7.38294E+03 -2.38726E+03  1.30125E+04 -6.00052E+03  6.29903E+03 -7.13808E+03  1.81075E+01
 -7.70878E+03 -1.33016E+04 -1.36848E+03 -1.20412E+04  1.21900E+04 -2.99134E+03  3.88787E+03  7.72172E+03
  8.69402E+03  4.61282E+03 -8.05652E+03  1.22468E+04 -1.15658E+04  5.19684E+03 -1.05625E+04 -3.55014E+03
 -1.00152E+04 -9.17878E+03 -7.49137E+02 -1.25197E+04  1.13474E+04 -4.90168E+03  8.23675E+03 -2.66423E+03
  6.50043E+03  9.79841E+03  3.92014E+02  1.19415E+04 -7.14176E+03  1.35744E+03 -8.41732E+03  1.91278E+03
 -1.07367E+04 -6.69958E+03 -3.94137E+03 -1.07411E+04  5.53254E+03 -1.27545E+03  8.74683E+03 -5.93846E+03
  7.51513E+03  7.12651E+02  3.84570E+03 -1.25172E+03  1.25515E+03 -4.40756E+03  2.29901E+03 -5.96725E+03
  1.22092E+04 -6.66401E+03  1.46198E+04  2.12836E+03  8.57671E+03  7.24306E+03  9.26200E+03  1.31831E+04
 -4.60761E+03  1.89448E+04 -2.07807E+04  1.29946E+04 -2.04097E+04 -1.86378E+03 -1.93826E+04 -4.82184E+03
 -1.34739E+04 -1.37514E+04  1.56354E+03 -1.35560E+04  4.52973E+03 -2.71243E+03  5.29892E+03 -4.62227E+03
  2.99051E+03 -6.02559E+03  6.87218E+03 -3.40115E+02  7.65793E+03 -1.31698E+03  6.05455E+03 -5.78889E+03
  9.58858E+03  7.70590E+03  6.18903E+03  7.33502E+03 -1.88817E+03  5.17447E+03 -1.00932E+04  7.57366E+03
 -8.24458E+03 -1.36653E+03 -2.58233E+03 -1.04588E+04 -1.51219E+03 -9.65238E+03  9.54156E+03 -1.43320E+04
  1.21845E+04 -2.21218E+03  9.13897E+03 -1.59340E+03  8.22917E+03  1.17470E+04  2.01197E+03  1.01457E+04
 -1.62533E+03  1.14744E+04 -6.87739E+03 -1.69701E+03 -2.62907E+02 -5.49411E+02  1.98470E+03  1.41295E+03
 -2.89253E+03  1.03299E+03 -2.11647E+03  2.32439E+03 -4.05603E+02  2.36469E+03 -3.87526E+03  3.42771E+03
 -9.06590E+03 -1.02365E+04  2.64101E+03 -8.39475E+03  7.44989E+03 -7.90826E+03  9.18510E+03 -5.31093E+03
  1.32022E+04  5.00904E+03  9.54795E+03  9.37439E+03  1.88585E+03  1.27247E+04 -7.62616E+03  9.44864E+03
 -7.31124E+03  1.88347E+03 -4.96102E+03 -3.88541E+03  1.29901E+03 -6.06511E+03  4.74638E+03 -3.91818E+03
  9.08468E+03 -3.66955E+03  4.31700E+03  4.28213E+03 -2.67271E+03 -2.47849E+02 -7.29714E+02  7.98447E+03
  4.60886E+03  1.26062E+03 -4.12774E+03  1.99240E+03  4.36722E+03  4.81177E+03 -4.11898E+02  7.83633E+03
 -1.73615E+03  6.95517E+03 -1.03181E+04  1.19603E+04 -1.35841E+04  1.94234E+03 -1.44489E+04 -5.80570E+03
  1.48972E+03 -8.75805E+03  1.61695E+03 -1.09792E+04  7.81669E+03 -4.65408E+03  7.82933E+03 -1.24140E+03
  8.35884E+03  8.11497E+03  1.99690E+03  9.13606E+03 -3.61473E+03  4.37945E+03 -6.02556E+03 -2.92160E+03
 -2.66388E+03 -4.35315E+03  2.01132E+03 -4.96561E+03  5.61759E+03  5.24016E+02  4.46115E+03 -2.39694E+03
  1.80193E+03 -1.68412E+02  7.29660E+02  1.22836E+03 -3.56393E+03 -1.73468E+03  5.60646E+03 -2.63613E+03
  4.84780E+03 -2.07683E+03  1.62082E+03  4.10958E+02  3.28989E+03  6.56514E+03  1.87222E+03  5.09098E+03
 -2.94529E+03  2.88398E+03 -6.58334E+03  1.41083E+03 -9.20862E+03 -4.48362E+03 -4.32834E+03 -1.87750E+03
  2.60094E+03 -4.11496E+03  5.77752E+02 -4.74728E+03  4.49380E+03 -3.14458E+03 -3.39742E+03  4.65007E+03
 -1.31315E+03 -1.17786E+03 -5.58831E+03 -3.62744E+03 -2.23365E+02 -1.35588E+04  5.62815E+03 -5.34760E+03
  3.58963E+03 -8.01560E+03  3.43708E+03  1.67493E+03  1.28425E+03  3.25641E+03 -6.18661E+03  4.07830E+03
 -2.77770E+03  3.54812E+03 -2.71050E+03 -5.09492E+03  3.17469E+03 -7.23197E+03  3.27278E+02 -6.22605E+03
  1.01410E+04  4.28629E+01  4.78603E+03  7.50685E+03  1.60682E+03  4.81065E+03 -3.37613E+03  7.80760E+03
  1.24731E+03 -2.24796E+03 -2.69139E+03 -4.66957E+03 -9.80232E+03 -5.44306E+03  5.83385E+03 -1.13859E+03
  6.56544E+03 -4.04396E+03 -1.85123E+02 -1.31453E+03  4.86858E+03  4.54169E+03  7.45302E+02  4.26818E+03
  2.05792E+03  3.04699E+03  1.47922E+03  2.43116E+03 -2.19870E+03 -2.23361E+03 -1.16904E+03  3.87042E+03
 -3.19946E+03  6.63007E+03 -2.38122E+03  3.69659E+03 -8.77430E+03 -1.26640E+03 -9.75997E+03 -8.97888E+02
  1.41641E+03 -1.18531E+04 -1.84892E+03 -1.01598E+04  4.80288E+03 -2.80662E+03  9.40869E+03 -4.60958E+03
  1.15968E+04  7.93075E+02 -6.87221E+02  1.09650E+04  2.03961E+03  3.52933E+03 -1.96632E+02  6.58053E+03
 -2.86244E+02 -1.36651E+03  5.36668E+03 -3.66353E+03 -7.45477E+02 -1.03797E+03  3.68851E+02  1.47153E+03
 -1.37552E+02  5.03695E+02 -6.50809E+03  1.27314E+03 -6.00039E+03  1.20459E+03  2.17215E+03  2.73056E+03
  7.97576E+03  2.26510E+02  6.12872E+03 -1.24902E+01  4.15571E+03  7.64926E+03  2.79131E+02  6.27215E+03
 -2.78195E+03  4.71878E+03 -7.19764E+03  6.13265E+03 -5.78432E+03  3.96276E+03 -5.06475E+03 -8.58038E+03
 -6.21251E+03 -4.24647E+03  1.19108E+02 -2.08167E+03  3.44500E+03  2.91766E+02  2.57618E+03  1.54683E+03
  7.74049E+02  1.36180E+03 -3.01969E+02  1.64127E+02  4.41006E+03 -9.17698E+02 -4.59435E+03 -4.49277E+03
 -9.47548E+02  2.84886E+03  3.92286E+03  2.46412E+03  3.92985E+03 -7.63766E+02  5.63501E+03  6.54102E+03
 -1.76917E+03  5.80260E+03 -5.01296E+02 -3.45584E+03 -7.53681E+03 -2.83248E+03 -2.61173E+03 -7.03493E+03
  6.29794E+03 -6.23800E+03  9.28030E+03 -1.28108E+03 -1.74217E+03  2.76542E+03  6.11813E+03  3.33760E+03
  1.25581E+03  5.42059E+03 -4.39620E+03  3.37961E+03 -9.86553E+02 -4.13743E+02 -7.26727E+03  3.25281E+03
  1.29826E+02  3.61410E+03 -5.55430E+02  5.36312E+03 -3.32993E+03 -2.92110E+03 -8.22474E+03 -3.33909E+03
 -3.16189E+03 -3.21553E+03 -6.28819E+03 -1.01734E+04 -2.35004E+03 -3.83230E+03  3.54007E+03 -1.14805E+03
  5.71812E+03  3.51859E+03  3.11978E+03 -2.11438E+02 -7.79825E+02  5.12252E+03  1.84052E+03  7.27051E+03
