 $NMID ID='MM_0lb_SNR50_8hz_g40_31.RAW', FMTDAT='(8E13.5)'
 TRAMP=1., VOLUME=1. $END
  3.11195E+05  2.40272E+02  3.34150E+05  2.56263E+05  9.11692E+04  3.41776E+05 -1.36503E+05  2.48623E+05
 -1.93810E+05  8.54327E+04 -1.07770E+05 -3.06267E+04 -6.17621E+02 -5.33278E+04  5.28180E+04 -3.04879E+03
  3.32357E+04  5.46198E+04 -1.74287E+04  7.98719E+04 -5.78377E+04  6.48996E+04 -8.17878E+04  3.52019E+04
 -7.80170E+04 -6.89940E+03 -6.24702E+04 -5.05199E+04 -2.05125E+04 -7.32596E+04  2.77874E+04 -4.85882E+04
  3.69626E+04  4.57871E+03  1.47088E+04  4.36543E+04 -3.63136E+04  4.77297E+04 -7.04117E+04 -7.52608E+02
 -5.47610E+04 -5.25210E+04 -6.87574E+03 -8.10781E+04  3.50627E+04 -6.26900E+04  4.45952E+04 -1.94286E+04
  4.19912E+04  4.44863E+03  2.96115E+04  2.07276E+04  2.28078E+04  3.11452E+04 -4.61975E+03  2.56889E+04
 -2.32939E+04  8.90585E+03 -2.06746E+04 -9.68872E+03  1.00712E+04 -1.64480E+03  2.29660E+04  1.56377E+04
 -2.65464E+02  3.46936E+04 -3.72677E+04  3.80744E+04 -7.24653E+04 -4.14483E+03 -6.11452E+04 -4.10990E+04
 -1.38595E+04 -6.04745E+04  3.97929E+04 -5.92221E+04  5.94314E+04 -5.55019E+03  4.11888E+04  3.32648E+04
 -4.37883E+03  4.48550E+04 -2.91924E+04  1.82950E+04 -3.25029E+04 -4.34159E+03 -2.01293E+04 -1.02591E+04
 -7.84891E+03 -1.49659E+04  4.83990E+03 -1.40232E+04  5.76118E+03 -2.41930E+04  1.94783E+04 -1.40599E+04
  1.31355E+04  1.08732E+04 -1.10970E+04  1.76225E+04 -2.92590E+04 -4.49295E+03 -1.41160E+04 -3.63574E+04
  2.80254E+04 -4.85472E+04  5.47578E+04 -1.87605E+04  5.21084E+04  2.20350E+04  1.36763E+04  4.61824E+04
 -2.20638E+04  2.89387E+04 -2.26946E+04  3.07077E+03 -5.52913E+03 -3.22620E+04  1.78709E+04 -4.17857E+04
  4.13716E+04 -1.27703E+04  3.59905E+04  2.70441E+04  2.10202E+04  4.87317E+04 -1.09464E+04  6.03136E+04
 -3.72731E+04  3.93017E+04 -4.37070E+04  1.28177E+04 -4.99564E+04 -1.30224E+04 -2.75533E+04 -5.02294E+04
  6.83615E+03 -3.92222E+04  3.13628E+04 -2.19668E+04  3.45725E+04  1.03973E+04  4.58673E+03  2.04406E+04
 -1.13051E+04  1.18073E+04 -1.32510E+04 -9.67168E+03  1.05358E+04 -5.72502E+03  1.56744E+04  6.46619E+03
  1.96099E+04  2.38471E+04 -3.22429E+03  3.08481E+04 -2.08332E+04  2.01885E+04 -3.02306E+04 -2.12091E+03
 -1.79845E+04 -1.36597E+04 -9.11891E+03 -2.73011E+04 -1.87207E+03 -2.21807E+04  1.33994E+04 -2.42528E+04
  2.76703E+04 -8.60461E+03  4.01630E+04 -9.78619E+02  2.60462E+04  1.86223E+04  4.99840E+03  4.10669E+04
 -2.25298E+04  3.34001E+04 -3.46286E+04  1.61516E+04 -3.08984E+04 -1.13231E+04 -6.83507E+03 -9.05185E+03
 -4.75304E+02 -8.75039E+02 -4.65639E+03  8.08792E+03 -1.87460E+04 -1.23932E+03 -2.01699E+04 -9.72930E+03
 -1.28082E+04 -2.42861E+04  4.22325E+03 -2.68097E+04  2.23667E+04 -2.45563E+04  2.13610E+04  7.28043E+02
  1.20932E+04  1.89632E+04 -2.01597E+02  1.97796E+04 -2.25996E+04  1.35726E+04 -2.55063E+04 -1.64994E+03
 -1.37156E+04 -1.60998E+04 -2.43867E+03 -3.35782E+04  1.15774E+04 -2.27621E+04  2.59966E+04 -1.20880E+04
  1.62517E+04  3.39574E+03  1.21700E+04  4.56803E+03  1.11575E+04 -3.68146E+02  2.01493E+04  4.82878E+03
  2.14466E+04 -1.13990E+03  2.64612E+04  1.34244E+04  1.44798E+04  3.44871E+04 -3.39337E+03  5.26160E+04
 -2.35987E+04  3.02409E+04 -3.81069E+04  1.67890E+04 -4.93446E+04  5.54874E+03 -3.59513E+04 -3.57373E+04
 -1.13037E+04 -3.28687E+04  1.62990E+04 -3.64070E+04  2.37909E+04 -2.15428E+04  2.54636E+04  1.32890E+04
  1.03359E+04  2.02842E+04 -1.50642E+04  1.48617E+04 -2.02721E+04  2.60118E+03 -1.87177E+04 -1.03647E+04
  1.52276E+03 -2.05387E+04  1.02941E+04 -1.68009E+04  1.65424E+04 -7.19479E+03  6.36106E+03  4.78264E+03
 -9.76837E+03 -4.38256E+03 -9.95597E+03 -4.33671E+03  1.79126E+02 -1.44158E+04  1.41513E+04 -2.81645E+04
  1.98667E+04 -7.44013E+03  2.86953E+04  5.30256E+03  1.80086E+04  1.99673E+04  1.17954E+04  2.66545E+04
 -2.79573E+03  3.54374E+04 -1.77265E+04  3.02286E+04 -3.15158E+04  5.66165E+03 -1.27576E+04 -5.49982E+03
 -7.42751E+03 -8.69606E+03 -1.97016E+03  7.00135E+01 -3.82891E+03  2.52979E+03 -8.32839E+03  9.85790E+03
 -1.48977E+04 -8.08130E+03 -1.33946E+04 -2.16849E+04 -4.25491E+03 -2.19923E+04  9.89595E+03 -9.34701E+03
  1.37743E+04 -8.94709E+03  8.75281E+03  1.27067E+04 -3.08250E+03  6.21923E+03 -6.05887E+03  2.62203E+03
 -1.30432E+04 -1.37515E+04 -7.46369E+03 -1.92597E+04  6.53321E+03 -1.62922E+04  1.53760E+04 -1.12409E+04
  2.15141E+04  4.72017E+03  1.29804E+04  1.21528E+04  1.11071E+03  1.66100E+04 -1.18222E+04  2.06845E+04
 -9.02029E+03  7.26396E+03 -1.02863E+04 -7.49662E+03  2.58130E+03 -1.00613E+04  7.87300E+03  3.19133E+02
  5.33412E+03  5.35150E+03  1.94660E+03  1.63193E+04 -8.36396E+03  1.16082E+04 -2.33697E+04  8.39819E+03
 -1.00754E+04 -1.47515E+04  2.24138E+02 -6.52572E+03  1.64865E+03 -6.48065E+03  9.74121E+03  5.76041E+03
 -2.02677E+03  5.85574E+03 -4.92993E+03  1.08286E+04 -2.08408E+04  4.89811E+03 -1.13751E+04 -6.21429E+03
 -7.75557E+03 -1.76374E+04  3.46307E+03 -1.65690E+04  7.49793E+03 -1.59817E+04  1.72119E+04  8.30756E+03
  1.39725E+04  1.55898E+04  1.47125E+01  1.68243E+04 -9.39581E+03  8.97209E+03 -1.47380E+04 -5.76839E+03
 -5.86572E+03 -8.07825E+03  5.00873E+03 -1.04789E+04  4.79067E+03 -1.01104E+04  1.26932E+04 -1.52876E+03
  2.92908E+03 -1.41623E+03 -5.23234E+03  5.54572E+03  1.22718E+03 -3.84352E+03  1.49699E+03 -1.22208E+04
  1.30676E+04 -8.23696E+03  2.37604E+04  5.86005E+03  8.61596E+03  1.40307E+04  5.50349E+03  1.69456E+04
 -4.44846E+03  1.89832E+04 -1.99945E+04  2.06831E+04 -2.84338E+04  4.88620E+03 -2.60137E+04 -8.15279E+03
 -1.25670E+04 -1.61299E+04 -1.19718E+03 -2.03072E+04  1.21142E+04 -5.60446E+03  6.18380E+03 -7.25216E+03
  8.39988E+03  9.06220E+02  2.90813E+03 -1.89660E+03  6.44789E+03 -4.03854E+03  9.28910E+03 -8.83906E+03
  1.19890E+04  2.40186E+03  8.52090E+02  8.24239E+03 -8.05129E+03  1.51052E+04 -1.37509E+04  5.89773E+03
 -6.37935E+03 -5.83165E+03 -5.89413E+03 -1.42989E+04 -8.72803E+02 -1.36284E+04  9.95366E+03 -1.77135E+04
  1.97271E+04 -1.18504E+04  2.38912E+04  3.29609E+02  1.53770E+04  1.20361E+04  1.41107E+03  2.45301E+04
 -1.02705E+04  1.32797E+04 -1.51738E+04  8.61130E+03 -6.80439E+03 -2.51148E+03 -6.98619E+03 -4.38928E+03
  1.78882E+02  2.00753E+03 -9.63651E+01  4.10182E+03 -1.26635E+03 -3.72451E+03 -9.14629E+03 -6.26252E+03
  6.46696E+02 -1.03337E+04  3.97856E+03 -1.19738E+04  7.60218E+03 -1.45576E+04  1.30435E+04 -5.64689E+03
  2.44066E+04  1.55537E+04  6.64752E+03  1.74330E+04 -4.10634E+03  1.05073E+04 -1.39763E+04  7.69106E+03
 -1.71869E+04 -3.94611E+02 -1.52863E+04 -8.10971E+03 -4.50554E+03 -1.28068E+04  7.95166E+03 -1.16287E+04
  1.47582E+04 -6.03468E+03  7.42318E+03  3.05908E+03  6.73984E+03 -3.92264E+02 -5.09030E+03  7.75107E+02
  4.02388E+03  1.17620E+03  1.69934E+03  9.54503E+01  7.77439E+03  1.26512E+04 -1.39600E+03  5.45482E+03
 -6.54834E+02  8.78134E+03 -4.94252E+03  1.46457E+04 -1.79738E+04  3.95644E+03 -1.21529E+04 -8.79251E+03
 -6.91661E+03 -1.44161E+04 -5.60431E+03 -1.60996E+04  7.04479E+03 -1.32016E+04  1.50912E+04 -6.23636E+03
  6.82464E+03  1.44311E+03 -2.15341E+03  7.35751E+03 -2.93101E+03  9.98253E+02 -5.16343E+03 -7.28347E+02
 -4.87202E+03 -7.88356E+03  6.39789E+03 -2.91494E+03  6.37369E+03 -6.46004E+03  1.30919E+04  7.69985E+02
  8.24922E+03  6.29000E+03 -3.28206E+03  3.45168E+03 -3.41290E+03  1.17033E+03 -1.37873E+03 -7.68969E+03
  4.97709E+03 -3.43794E+03  1.29707E+04 -1.02550E+03  1.02261E+03  1.05357E+04  7.04523E+03  6.20021E+03
 -8.74245E+03  1.83229E+03 -1.15271E+04  8.31029E+02 -1.24355E+04 -2.98762E+03 -1.08661E+04 -1.89204E+03
  1.12725E+03 -1.30877E+03  2.88085E+03 -1.10182E+03  8.72990E+03  9.92205E+03 -4.87168E+03  3.16306E+03
 -6.33681E+03  3.58041E+03 -6.25521E+03 -3.58018E+03 -4.83781E+03 -5.56836E+03 -3.01031E+03 -5.18532E+03
  6.53588E+03 -3.30785E+03  3.30410E+03 -8.83201E+03  8.75418E+03  2.22322E+03  5.08921E+03  7.92158E+03
 -5.29454E+03  4.78937E+03 -6.32862E+03 -5.56799E+03 -1.48539E+03 -6.28612E+03  1.05926E+04 -3.27323E+03
  1.13339E+04  1.52333E+03  1.15247E+04  8.66161E+03  3.33901E+03  1.70617E+04 -7.60395E+03  1.07795E+04
 -9.81999E+03  7.60953E+03 -9.78281E+03 -2.39933E+03 -1.23073E+04 -1.00194E+04  6.80707E+03 -5.39571E+03
  1.00257E+04 -8.10441E+03  8.14176E+03  5.01617E+03  4.54519E+03  1.42168E+03  2.58983E+03  7.34369E+03
 -5.16279E+03  9.67476E+03 -2.73222E+03  7.39670E+03 -1.36006E+03  5.71257E+03  1.26746E+03  1.67202E+03
  8.98450E+02  4.04788E+03 -7.61400E+03  1.03275E+03 -1.15880E+04  8.49147E+03 -1.61297E+04 -5.76881E+03
 -5.80001E+03 -1.13745E+04  1.11578E+04 -1.57532E+04  1.08178E+04 -2.02676E+04  1.60894E+04 -1.83075E+03
  1.56100E+04 -7.98567E+02  8.15264E+03  1.12094E+04 -3.28767E+03  5.97394E+03 -6.37941E+03  3.66903E+03
 -5.79847E+03  3.40427E+03 -7.02199E+03 -3.48842E+03 -3.94718E+03 -7.10898E+03 -3.51656E+03 -1.05714E+03
  3.93006E+03  5.63418E+02  7.15331E+02  5.00581E+03  6.36837E+03 -2.42070E+03  4.79108E+03 -6.73085E+03
  8.52721E+03 -5.49427E+03  1.42008E+04  1.07162E+03  9.02094E+03  4.98279E+03  1.66677E+03  1.01210E+04
 -5.37782E+03  1.33083E+04 -8.91775E+03  1.12200E+04 -1.25465E+04 -5.90229E+03 -1.45784E+04 -9.96071E+03
  1.75320E+03 -8.13430E+03 -2.90945E+03 -1.32623E+04  6.64215E+03 -7.03851E+03  4.79243E+03 -7.40006E+03
  1.30106E+03  4.55228E+03  3.57008E+03  4.04066E+03 -5.34283E+03  8.56472E+02  3.41160E+03  2.74440E+03
  2.16793E+03  1.58672E+03  5.00226E+03  1.97431E+03  6.27260E+03  5.20018E+03  1.48272E+03  4.88492E+03
 -1.91214E+03  5.10439E+03 -4.19113E+03 -4.68835E+03 -6.75367E+03 -5.14927E+03 -3.33016E+03 -1.34879E+04
  8.90908E+03 -1.59790E+04  1.20349E+04 -9.60421E+02  4.90273E+03  3.41370E+03  4.12432E+03  6.51726E+03
  7.80770E+03  7.05783E+03 -4.69959E+03  7.71214E+03 -3.84103E+02  4.76088E+03 -1.86761E+03  3.06206E+02
 -6.12019E+03  1.14528E+03 -1.47379E+03  4.38060E+03  3.66178E+02  4.05242E+03 -4.52527E+03  1.18726E+02
 -4.15346E+03 -1.15116E+03 -7.63096E+02 -3.72510E+03  5.21766E+03 -1.08379E+04  7.18393E+03 -2.16812E+03
  1.05294E+04 -2.66051E+03  2.75152E+03  4.94373E+03  3.78968E+02  9.13037E+03 -7.83580E+03  4.10134E+03
