 $NMID ID='MM_0lb_SNR50_16hz_g60_11.RAW', FMTDAT='(8E13.5)'
 TRAMP=1., VOLUME=1. $END
  3.08999E+05 -1.46215E+03  3.34599E+05  2.50965E+05  8.21000E+04  3.38459E+05 -1.28961E+05  2.55078E+05
 -1.92038E+05  7.82592E+04 -1.07353E+05 -3.16657E+04  8.41100E+02 -5.17926E+04  5.73608E+04  2.75570E+03
  3.15008E+04  5.37311E+04 -1.75526E+04  7.42658E+04 -6.17527E+04  6.40514E+04 -8.07920E+04  3.37172E+04
 -8.16165E+04 -1.32505E+04 -5.34257E+04 -4.90236E+04 -1.66452E+04 -7.14811E+04  3.09030E+04 -4.30969E+04
  4.11576E+04  3.87483E+03  1.90948E+04  4.79350E+04 -3.15780E+04  4.86139E+04 -6.66878E+04 -1.62329E+03
 -4.85206E+04 -5.38227E+04 -8.46919E+03 -8.26085E+04  3.53074E+04 -5.51883E+04  5.03891E+04 -2.08999E+04
  4.55716E+04  9.41680E+03  3.21275E+04  2.50573E+04  1.47863E+04  2.59291E+04 -5.59061E+03  2.74407E+04
 -2.09968E+04  7.51856E+03 -1.64859E+04 -6.32275E+03  8.84993E+03 -1.00214E+04  1.95415E+04  1.78829E+04
  7.29956E+03  3.72485E+04 -3.46682E+04  3.99182E+04 -6.33502E+04  3.17198E+03 -5.95919E+04 -4.56083E+04
 -7.48142E+03 -6.82435E+04  3.70106E+04 -4.73070E+04  5.89081E+04 -3.10778E+03  3.31177E+04  3.29374E+04
 -5.51834E+03  3.12570E+04 -3.00553E+04  1.27604E+04 -3.08778E+04 -1.83229E+03 -1.61218E+04 -1.44422E+04
 -1.18567E+04 -1.16294E+04 -1.18217E+03 -1.79539E+04  5.02982E+03 -2.25029E+04  1.70001E+04 -1.40853E+04
  5.89259E+03  2.01470E+03 -1.14470E+04  8.98210E+03 -2.40996E+04  8.52165E+02 -1.28876E+04 -3.39486E+04
  2.17500E+04 -4.40291E+04  4.88008E+04 -2.04054E+04  4.50061E+04  2.30985E+04  1.92695E+04  4.28217E+04
 -1.69299E+04  3.42084E+04 -2.69754E+04  2.62649E+03 -1.16264E+04 -3.00851E+04  2.27356E+04 -3.58259E+04
  3.56514E+04 -4.58359E+03  3.83049E+04  2.18241E+04  2.05646E+04  4.46623E+04 -9.11085E+03  4.83661E+04
 -3.22705E+04  3.80381E+04 -4.29729E+04  1.28127E+04 -4.26666E+04 -1.87996E+04 -1.95999E+04 -3.71468E+04
  1.20792E+04 -3.68284E+04  3.12620E+04 -1.45832E+04  2.93040E+04  1.26714E+04  3.83079E+03  1.99917E+04
 -1.30454E+04  7.37976E+03 -8.84721E+03 -6.15637E+03  2.32109E+03 -8.45715E+03  1.77906E+04  3.93917E+03
  1.00050E+04  1.81156E+04 -6.46336E+03  2.82875E+04 -2.16348E+04  9.87039E+03 -2.69224E+04 -7.72531E+03
 -1.87442E+04 -1.77444E+04 -1.00866E+04 -2.01704E+04  8.94449E+03 -1.98659E+04  1.51426E+04 -2.03960E+04
  2.64821E+04 -1.00102E+04  3.41826E+04 -1.18611E+03  2.01067E+04  2.03284E+04  2.72218E+03  3.83903E+04
 -1.63147E+04  2.82708E+04 -2.88855E+04  1.35525E+04 -1.90854E+04 -1.59147E+04 -5.75962E+03 -1.30154E+04
  2.42001E+02 -5.70708E+03 -2.21718E+03  5.37460E+03 -1.66487E+04  4.81146E+03 -1.67205E+04 -8.49593E+03
 -8.06952E+03 -1.76358E+04  3.89046E+03 -2.25878E+04  1.03467E+04 -1.58388E+04  1.87592E+04 -1.01844E+03
  4.88939E+03  1.24572E+04  3.49891E+03  2.11382E+04 -1.66309E+04  6.64751E+03 -1.96814E+04 -7.40992E+03
 -1.66173E+04 -1.55390E+04 -2.83823E+03 -2.36724E+04  7.40123E+03 -1.86646E+04  1.65477E+04 -1.30330E+04
  1.73105E+04  6.96934E+02  6.40976E+03  5.05257E+03  5.98005E+03 -2.97599E+02  7.24535E+03 -1.31493E+03
  1.34196E+04  3.94629E+03  1.68914E+04  1.60119E+04  1.41567E+04  2.97848E+04 -2.15043E+03  2.73603E+04
 -2.18304E+04  2.53854E+04 -3.10012E+04  9.83278E+03 -2.94910E+04 -1.98241E+03 -2.52804E+04 -2.09983E+04
 -1.04555E+04 -2.73948E+04  1.15313E+04 -2.40232E+04  2.23655E+04 -1.16838E+04  1.71253E+04  7.14059E+03
  9.37192E+03  1.60021E+04 -1.14508E+04  1.66166E+04 -1.61560E+04  2.94620E+03 -1.37034E+04 -7.94643E+03
 -5.02156E+02 -1.36611E+04  6.81774E+03 -1.27854E+04  8.59206E+03 -2.94667E+02  2.29595E+03  5.06677E+03
 -1.00359E+04  2.75794E+03 -5.00196E+03 -8.26771E+03 -6.81238E+01 -1.22685E+04  1.14389E+04 -2.01960E+04
  1.78313E+04 -3.12018E+03  1.41246E+04  4.10649E+03  1.67881E+04  1.71956E+04  9.24639E+03  1.63549E+04
 -1.67984E+03  2.54401E+04 -1.29773E+04  1.64285E+04 -1.70238E+04 -1.33393E+03 -1.04631E+04  1.83912E+03
 -3.61432E+03 -7.28252E+03  1.67956E+03  4.93002E+03 -4.23800E+03  5.00452E+02 -5.65561E+03  7.31271E+03
 -9.36990E+03 -5.04010E+01 -7.02505E+03 -1.15426E+04 -7.02334E+03 -1.89557E+04  2.47899E+03 -8.78333E+03
  1.13250E+04 -7.59580E+03  7.56426E+03  2.44354E+03 -1.50498E+03  7.45392E+03 -2.77250E+03  1.69330E+03
 -1.66928E+03 -6.04337E+03 -9.45101E+02 -7.21921E+03  6.99698E+03 -2.89176E+03  1.29180E+04 -9.83790E+03
  1.74890E+04  2.50143E+03  8.82098E+03  5.62063E+03  1.90802E+03  9.39401E+03 -5.40247E+03  9.55849E+03
 -7.44119E+03  5.53031E+03 -2.73679E+03 -2.45179E+03  1.82569E+03 -3.84968E+03  1.10086E+04 -4.62568E+03
  4.04293E+03  4.19798E+03 -3.10460E+03  4.08661E+03 -4.40808E+03  7.49926E+03 -5.88712E+03  3.15870E+03
 -6.91085E+03 -2.90399E+03  3.86349E+03 -5.78468E+03  3.27101E+03 -3.76420E+03  5.87051E+03  2.72575E+03
 -3.47650E+02  6.46407E+03 -8.96456E+03  5.16314E+03 -6.37054E+03  2.68892E+03  8.18063E+02 -2.85240E+03
 -1.65853E+03 -1.00338E+04  2.90655E+03 -8.37499E+03  7.26899E+03 -3.78896E+03  8.50447E+03  3.91967E+03
  5.49086E+03  5.67310E+03  1.75061E+03  7.11215E+03 -3.23576E+03  6.28423E+03 -5.47384E+03 -3.13441E+03
 -9.83130E+03 -4.61260E+03  9.00476E+02 -1.06074E+04  7.27461E+03 -7.89468E+03  3.35393E+03 -2.77330E+03
  4.03686E+03 -1.30038E+02 -3.40081E+02 -7.14623E+02  1.88887E+01  9.38423E+02  4.96081E+02 -2.83764E+03
  5.11430E+03 -2.17549E+03  6.67033E+03 -2.59093E+03  1.13150E+04  2.28136E+03  1.19090E+04  7.83237E+03
 -3.66525E+03  1.08115E+04 -1.24642E+04  1.01960E+04 -1.29000E+04 -2.23521E+03 -8.78686E+03 -9.27989E+03
 -4.11234E+03 -9.38960E+03 -2.20356E+03 -1.15247E+04 -1.50285E+03 -6.01445E+03  2.61990E+03 -9.68936E+02
 -2.37052E+03  8.67040E+02  2.16588E+03 -5.23948E+03  3.45511E+03 -4.49565E+03  5.55707E+03 -4.04931E+03
  8.67366E+03  5.62185E+03  1.28913E+03  8.63051E+03 -2.35895E+03  5.73720E+03 -3.17972E+03  2.35722E+03
 -7.66100E+03 -1.52419E+03 -7.57488E+02 -1.64721E+03  1.71946E+03 -9.73487E+03  6.63200E+03 -9.46020E+03
  6.43921E+03 -5.89591E+03  9.16661E+03  2.86239E+02  1.05514E+04  7.09379E+03  3.68217E+03  4.15688E+03
 -5.11005E+02  6.99379E+03  2.03502E+02  2.38171E+03 -4.41313E+03 -1.05937E+03 -3.66031E+03 -4.83350E+03
  1.09442E+03 -1.32803E+02 -1.56619E+03 -3.73478E+02 -2.76867E+02  1.55339E+03 -5.19545E+03 -1.85855E+03
  2.11691E+02 -3.58602E+03 -1.25650E+03 -7.38279E+03  3.05642E+03 -9.98053E+03  5.06490E+03 -2.20454E+02
  9.49492E+03 -1.72117E+03  5.75775E+03  4.42861E+03 -7.02955E+01  4.92618E+03  1.05586E+03  4.99347E+03
 -7.30115E+03 -2.73677E+03 -1.80382E+03 -7.37514E+03 -2.00686E+03 -8.16653E+03  1.33596E+02 -6.48634E+03
  2.50252E+03  1.47449E+03  2.76751E+03 -1.14468E+03  3.53655E+03  2.86044E+03 -1.09833E+03  2.29156E+03
 -2.04040E+03  4.34898E+03  2.51859E+03  2.82595E+03 -6.30159E+02  5.67366E+03  3.18967E+03  2.51850E+03
 -1.75211E+03  9.85213E+03 -1.72236E+03  7.93874E+03 -7.90808E+03  2.06580E+03 -3.19608E+03  2.35055E+03
 -6.67342E+03 -4.19446E+03  1.52547E+02 -7.46259E+03  5.92827E+03 -2.60786E+03  4.11013E+03 -7.43039E+03
  5.61374E+02  5.99825E+03 -3.12582E+03  2.26834E+03 -1.41557E+02 -2.25876E+02 -2.59970E+03  2.67545E+03
 -3.76190E+03 -3.80737E+03 -1.81672E+02 -6.22668E+02  5.66021E+03 -3.46636E+03  1.59590E+03 -3.99596E+03
  1.63055E+03 -2.28746E+03 -1.58686E+03  2.09902E+03 -4.07485E+03  2.18994E+03  2.01118E+03  3.90106E+03
 -1.94809E+02 -4.07814E+03  6.84540E+03 -2.01618E+03  3.35307E+03  2.36649E+03  1.96086E+03  4.19932E+03
 -3.79307E+03 -9.45310E+01 -6.55372E+03 -5.10750E+02  1.28342E+03 -8.49244E+02  2.64741E+03 -1.93768E+03
  4.01398E+03 -4.67433E+03  2.77921E+03 -2.17951E+03 -8.36900E+02 -1.53390E+03  2.05047E+02  5.27450E+03
 -6.95933E+02  2.63048E+03  2.47057E+03 -9.44996E+01  2.10083E+03 -7.38490E+03  6.38909E+03 -1.74287E+03
  3.17989E+03 -2.57282E+03  2.58974E+03  4.29995E+02  3.42820E+03  1.56967E+03  2.78184E+03  1.42731E+03
  3.99215E+02 -2.34384E+03 -1.93804E+03  1.61944E+03  2.52152E+03 -1.66028E+03 -1.18076E+03 -1.73168E+03
  2.79757E+03 -2.16874E+02  2.71211E+03  4.67666E+03  3.54659E+03  9.93614E+03  4.43689E+02  5.71563E+03
 -3.04020E+03  1.99014E+03 -1.94046E+02  2.24347E+02  1.89798E+02 -4.86256E+03 -3.33051E+03 -3.33857E+03
 -4.11575E+03 -7.94334E+03  1.42703E+03 -4.43580E+00  2.01198E+03  4.19156E+03  1.73305E+03 -2.13164E+02
 -1.65488E+03 -9.78239E+02  9.13629E+02  3.45317E+03  1.56531E+03 -5.11461E+03 -4.49478E+02  1.65150E+03
 -1.90752E+03  5.27510E+03 -3.14883E+03  6.76275E+03 -3.74751E+03  1.50062E+03 -5.24454E+03  1.97530E+03
 -3.08919E+03 -5.82691E+03 -2.58786E+03  3.37259E+03  5.46822E+03 -3.42506E+03  8.12189E+03 -1.73507E+03
  5.71262E+02 -8.28165E+00  4.37514E+03  2.53555E+02 -3.46730E+03  4.54320E+03 -2.34028E+03  5.25454E+03
  1.11718E+03 -4.27164E+02 -3.67512E+03  3.60069E+02 -5.50460E+03 -4.57031E+03 -3.98038E+03  3.48519E+03
  1.29134E+03 -3.53981E+03 -2.19026E+03 -2.39959E+03  3.58637E+03  1.85306E+03  2.05401E+03 -2.74761E+02
  3.32484E+03 -1.62928E+02  4.11017E+03 -3.91428E+03  2.04662E+03  3.70937E+03 -5.06814E+02  5.67561E+03
 -2.36533E+01  1.22325E+03 -4.16047E+03  2.75871E+03 -5.14782E+02  1.20995E+00 -7.64980E+03 -2.83255E+02
  3.41082E+02 -1.71973E+03  3.03466E+03 -4.33472E+03  3.02148E+03  1.76780E+03  2.32071E+03  2.81595E+03
  2.40448E+03  4.64149E+03  2.02092E+03  1.54740E+03  9.13297E+02 -4.33438E+03  1.86120E+03  2.09706E+02
 -2.88779E+02  1.80318E+03  3.04566E+03  9.08003E+02  2.12863E+03  1.82246E+03  8.79498E+01 -6.40563E+02
  3.10397E+03  3.35122E+03 -5.02319E+03 -4.07966E+02  8.79598E+01 -3.21854E+03 -1.89181E+03  2.51679E+03
  5.57735E+03 -9.98359E+02  1.81118E+03 -1.88755E+03  1.71020E+03 -2.27202E+03  3.61886E+03  1.37226E+03
  1.04378E+03  1.52398E+03 -1.71537E+02 -1.11978E+03 -2.87191E+02 -1.88056E+03  4.08992E+03 -5.46287E+03
 -9.68776E+02 -3.65678E+03  4.64131E+03 -1.67634E+03  1.57323E+03 -3.96642E+03  4.85468E+03  1.93403E+03
 -1.20382E+02 -3.90810E+03 -1.41718E+02 -2.57238E+03  1.86385E+03 -3.85698E+03 -3.70263E+03  5.48598E+02
 -2.34006E+03  2.24263E+03  7.82829E+02  1.56416E+03 -2.81021E+02  2.35723E+03 -1.32639E+03  3.43783E+03
