 $NMID ID='MM_0lb_SNR50_19hz_g40_7.RAW', FMTDAT='(8E13.5)'
 TRAMP=1., VOLUME=1. $END
  3.12349E+05  3.00579E+02  3.38898E+05  2.51004E+05  8.55900E+04  3.36716E+05 -1.31206E+05  2.47014E+05
 -1.89108E+05  8.06829E+04 -1.08362E+05 -3.31498E+04  1.86750E+03 -5.15243E+04  5.28984E+04  3.89320E+02
  3.56979E+04  4.98863E+04 -1.92500E+04  7.88504E+04 -5.82337E+04  6.22447E+04 -8.14649E+04  3.48650E+04
 -7.52551E+04 -1.25905E+04 -5.61457E+04 -4.79411E+04 -1.90987E+04 -6.69386E+04  2.64733E+04 -4.37129E+04
  3.83965E+04  4.59154E+03  1.75259E+04  4.41964E+04 -3.50233E+04  4.60562E+04 -6.17503E+04 -1.12512E+03
 -5.39956E+04 -5.44655E+04 -4.98803E+03 -7.59593E+04  3.55373E+04 -5.59049E+04  4.53440E+04 -1.91903E+04
  4.35938E+04  1.03557E+04  3.08464E+04  2.17986E+04  1.49214E+04  2.66243E+04 -3.57010E+03  2.49742E+04
 -2.26763E+04  9.68107E+03 -1.84806E+04 -2.28677E+03  4.71106E+03 -5.11334E+03  1.93074E+04  1.26401E+04
  1.11429E+04  3.32934E+04 -2.84461E+04  3.06537E+04 -5.93046E+04  4.22020E+02 -5.62580E+04 -4.04356E+04
 -1.59084E+04 -6.16952E+04  3.79969E+04 -4.12134E+04  5.42612E+04 -4.90319E+03  3.48151E+04  3.19477E+04
 -7.71468E+03  3.11338E+04 -2.86151E+04  1.62589E+04 -2.64112E+04 -4.34516E+03 -1.23860E+04 -7.14164E+03
 -1.10352E+04 -1.28291E+04 -8.20070E+02 -1.41531E+04  5.91113E+03 -1.99117E+04  1.35323E+04 -1.68844E+04
  1.80932E+04  1.82145E+03 -5.12506E+03  1.62676E+04 -1.36124E+04 -2.00872E+03 -1.07582E+04 -2.64617E+04
  1.95812E+04 -4.02958E+04  4.49486E+04 -1.83405E+04  4.16550E+04  1.95171E+04  1.06396E+04  4.25132E+04
 -1.45270E+04  2.97255E+04 -2.30265E+04 -1.23653E+03 -6.77098E+03 -2.63390E+04  1.73717E+04 -3.31984E+04
  3.96350E+04 -9.41127E+03  3.10263E+04  2.45496E+04  1.46085E+04  3.99992E+04 -7.92766E+03  4.44081E+04
 -2.57149E+04  2.85890E+04 -3.87814E+04  3.53522E+03 -3.72775E+04 -1.22471E+04 -1.90054E+04 -2.89717E+04
  4.33304E+03 -3.64815E+04  2.90581E+04 -1.25328E+04  2.65432E+04  6.62896E+03  1.41276E+03  1.76748E+04
 -1.57607E+04  6.81637E+03 -1.15415E+04 -7.90169E+03  5.87355E+03 -8.59274E+03  2.09090E+04  7.10422E+03
  1.19668E+04  2.62105E+04 -6.60980E+03  2.15327E+04 -1.82797E+04  5.97606E+03 -2.64540E+04 -1.07738E+04
 -1.37953E+04 -1.13303E+04 -8.78524E+03 -1.82752E+04  6.09920E+03 -1.30341E+04  1.25898E+04 -1.51399E+04
  2.17360E+04 -8.74626E+03  2.65986E+04  1.73460E+03  1.62863E+04  1.28040E+04 -1.98155E+03  2.86504E+04
 -1.35625E+04  3.12810E+04 -2.30228E+04  9.63694E+03 -2.12505E+04 -9.62514E+03 -1.72677E+03 -1.45351E+04
  4.09783E+03 -3.60631E+03 -2.96718E+03  3.25742E+03 -1.56554E+04  5.01044E+03 -1.17874E+04 -4.47666E+03
 -8.03782E+03 -1.47165E+04  4.63501E+03 -1.75037E+04  9.66483E+03 -1.79196E+04  1.61214E+04 -2.17108E+02
  5.56258E+03  7.86011E+03 -1.43879E+02  1.75719E+04 -8.92326E+03  8.04424E+03 -1.82529E+04 -1.31185E+03
 -1.13311E+04 -1.07784E+04  2.01059E+03 -1.64339E+04  8.61213E+03 -1.36510E+04  1.67485E+04 -5.84749E+03
  1.15808E+04  3.87011E+03  1.31039E+04  3.82603E+03  3.89834E+03  3.91774E+03  1.03616E+04 -2.64482E+03
  1.02881E+04  5.11428E+03  1.39359E+04  1.60620E+04  1.08292E+04  2.44020E+04 -8.23276E+02  2.79195E+04
 -1.71263E+04  1.47741E+04 -2.40076E+04  6.84832E+03 -2.15614E+04 -2.55876E+03 -1.86530E+04 -1.47549E+04
 -6.10139E+03 -1.60398E+04  9.59523E+03 -1.70107E+04  1.44862E+04 -6.80423E+03  1.38047E+04  9.89055E+03
  6.42267E+03  9.47461E+03 -2.77789E+03  7.78787E+03 -1.61330E+04  1.32812E+03 -5.62225E+03 -6.85957E+03
 -1.93023E+03 -1.70126E+04  5.10439E+03 -9.59157E+03  4.58962E+03 -1.78844E+03  1.68217E+02  3.10140E+03
 -4.27775E+03  1.93930E+03 -1.81876E+03 -6.91008E+03 -2.64533E+03 -1.05668E+04  9.46949E+03 -8.90901E+03
  1.01503E+04 -2.65628E+03  6.79652E+03  2.36175E+03  1.04759E+04  7.75584E+03  6.57304E+03  1.17114E+04
 -2.06016E+03  1.54618E+04 -9.21595E+03  1.02952E+04 -1.46865E+04 -2.46332E+03 -9.04675E+03 -3.14391E+03
 -4.66393E+03 -4.21024E+03 -1.94866E+03  1.51431E+03 -1.18187E+03 -1.54343E+02 -7.86190E+03  3.01105E+03
 -7.66955E+03 -5.61608E+03 -9.79454E+03 -6.08198E+03 -5.12807E+02 -1.04477E+04  8.59168E+03 -5.15702E+03
  1.18956E+04 -9.56611E+03  1.17625E+04 -8.04825E+02 -1.01927E+03  3.54830E+02 -2.10415E+03  3.93325E+02
 -9.44297E+02 -5.04501E+03 -3.93510E+03 -1.12454E+04  1.65644E+03 -7.39130E+03  6.03995E+03 -1.69150E+03
  1.00044E+04  8.49351E+01  9.55346E+03  6.12606E+03  6.01946E+02  7.87595E+03 -6.73290E+03  8.37829E+03
 -7.76157E+03  2.75597E+03 -6.02559E+03  1.75471E+03  2.35644E+03 -1.89783E+03  3.40536E+03 -2.12385E+03
  2.36322E+03  3.11698E+03  2.54730E+03  8.10331E+03 -5.56715E+03  4.95651E+03 -4.41995E+03  4.80015E+03
 -8.55657E+03 -1.69387E+03 -1.81589E+03 -1.07932E+04  3.50321E+03 -2.08178E+03  2.52469E+03 -1.28340E+01
 -2.77274E+03  6.41449E+03 -8.80791E+02  1.84028E+03 -3.44244E+03  2.98239E+03 -7.22006E+03 -5.45685E+02
  1.97736E+01 -6.40185E+03 -4.11696E+02 -1.03581E+04  7.41462E+02  4.80193E+03  6.01306E+03  2.02981E+03
  5.05806E+03  3.61226E+03 -7.17808E+02  7.19513E+03 -7.21320E+03  6.97260E+03 -5.97348E+03  9.55888E+02
 -3.63776E+03 -4.88453E+03 -2.85196E+03 -1.07915E+04  6.52798E+03 -4.11180E+03  7.44853E+03 -1.64202E+03
  9.73178E+02 -2.96793E+03 -2.74701E+03 -1.05658E+03 -9.31058E+02 -2.20155E+03  3.15083E+03 -9.47484E+02
  5.09445E+03 -2.98942E+03  5.43690E+03 -2.30757E+03  6.62944E+03  5.29485E+03  4.90413E+03  4.99235E+03
  2.07242E+03  1.14091E+04 -7.85064E+03  5.70207E+03 -5.57244E+03  3.05022E+03 -7.85283E+03  9.88022E+02
 -5.25136E+03 -5.84180E+03 -4.34258E+03 -1.49385E+03 -4.86886E+02 -4.68240E+03 -4.02440E+02 -7.62667E+02
  3.06495E+03 -2.37631E+03  2.09735E+03 -6.98512E+02  5.56735E+03 -9.51632E+02  4.81196E+03  6.83228E+02
 -8.27274E+01  3.41048E+03 -3.05529E+03  4.80702E+03 -3.80440E+03  3.19741E+03  3.05551E+03  3.90399E+03
 -5.38109E+03  1.93339E+03 -6.34485E+02 -3.01053E+03 -1.87247E+03 -4.08390E+03  5.47358E+03 -5.12605E+03
  3.36557E+03 -3.47771E+03  1.47014E+03 -2.59222E+03  3.27772E+03  5.66673E+03  1.81673E+02  7.78191E+03
 -2.87482E+03  1.96539E+03 -2.12236E+03  1.80127E+03  3.03311E+02  4.10544E+03 -4.32901E+03 -1.16369E+03
 -1.26218E+03  2.28934E+02 -3.22806E+03  2.39769E+03 -1.23459E+03  1.31462E+03 -1.28458E+03 -2.60803E+03
 -4.63932E+03 -3.08199E+03  2.49913E+03 -2.48501E+03  4.69012E+03 -5.78073E+03  8.96567E+02  3.96596E+02
  9.64084E+02  3.38634E+03  1.30540E+03  4.12641E+03  2.14088E+03 -6.29610E+02 -2.03055E+03  5.01499E+03
 -3.11673E+03  5.68604E+03 -4.09616E+03  1.31286E+03 -3.28803E+03 -8.17732E+03  4.35593E+03 -4.62055E+03
  1.91314E+03  5.39707E+02  3.10828E+02  2.02669E+02 -1.16260E+03  1.85579E+03 -1.41949E+03  2.26470E+03
  1.73209E+03 -3.69136E+03  2.45370E+03  1.35649E+03  2.34699E+03  2.28785E+03  2.35519E+03 -2.32427E+03
  2.16251E+03  2.96547E+03 -4.20268E+03  6.25033E+02 -4.96763E+03  2.33436E+03 -3.28124E+03 -1.50653E+03
 -2.53038E+03 -6.83768E+03 -7.77504E+02 -1.96083E+03  1.91867E+03 -2.08917E+03  1.54975E+03 -1.09761E+03
  6.26094E+03  3.88467E+03  9.83686E+02  1.52042E+03 -1.29805E+02  3.49077E+03  1.23349E+03 -3.97813E+03
 -5.25435E+02 -9.05711E+02 -1.90993E+03  4.99335E+02 -3.89652E+02 -3.93339E+03  1.57927E+03  1.33813E+03
  3.24359E+03  1.75066E+03 -2.20507E+02  2.16800E+03 -4.69779E+02 -2.90638E+03  4.44526E+03  2.43206E+03
 -7.04834E+03  5.29034E+02 -1.13107E+03  7.29394E+03  3.14001E+03  4.58421E+03  3.95906E+03  2.63254E+03
  1.12370E+03  3.71583E+02 -1.75699E+03  3.07772E+03 -4.20135E+02  6.37170E+03 -3.67634E+03 -9.04009E+01
 -2.71340E+02 -1.49039E+03  1.18466E+03 -1.33227E+03 -4.03775E+03 -2.61260E+02 -2.29569E+03 -3.88299E+03
 -1.75749E+03  1.95469E+02 -4.64075E+03  2.23212E+03 -1.41148E+03 -8.93532E+02  1.14608E+03  1.38036E+03
  2.83326E+02  6.31986E+03  1.86180E+03  1.96970E+03  3.02366E+03  2.28423E+03  2.38239E+03  1.97638E+03
 -8.98171E+02 -5.61861E+03 -5.86038E+02  1.52639E+03  4.48505E+02 -2.29248E+03 -2.75723E+02 -2.52202E+03
  3.66895E+03  1.83014E+03 -1.31451E+03  1.07517E+03  5.31997E+02 -1.03433E+03  3.19881E+03  6.21556E+02
 -1.91002E+03  6.94198E+01 -2.81404E+03  2.29790E+03 -4.65308E+02 -1.46055E+03 -2.81128E+03 -5.71365E+02
  1.87689E+03 -1.86476E+03 -3.15970E+03 -2.37017E+03 -1.03490E+03  4.39671E+03  9.62541E+02  1.47517E+03
  3.87406E+03  1.80937E+03  2.85547E+02 -1.68917E+03 -2.21575E+03 -3.31983E+03  1.00241E+03 -3.08661E+02
  4.19952E+02 -1.43095E+00 -2.04152E+03  2.21277E+03 -4.11198E+03 -3.06049E+02 -1.55628E+03  1.59586E+03
 -1.54735E+03 -5.35174E+02  1.39564E+03 -7.89195E+03 -1.22047E+03 -3.48825E+03  4.94769E+02 -6.08254E+03
  1.73684E+03 -5.49519E+02 -1.98035E+03  1.85796E+03  8.28419E+02  5.29066E+02 -1.65503E+02 -2.32680E+02
  2.64730E+03  1.94906E+03 -1.24022E+02 -1.66472E+03 -7.84799E+02 -1.72092E+03 -1.77859E+03 -1.74579E+03
  1.90471E+02  2.58654E+03 -2.46532E+03  1.16708E+03 -3.61319E+03  2.14160E+03  5.51439E+03 -1.43485E+03
  2.31177E+03 -7.74603E+02  2.26100E+03  4.82086E+03 -1.58835E+02  1.59112E+03 -2.79133E+03 -2.02247E+03
  3.22483E+03  1.06759E+02 -1.72643E+03 -2.67073E+03 -4.60316E+03 -4.31287E+03 -2.06765E+03  3.84231E+02
 -5.55408E+03  7.93763E+01  2.16762E+03  3.10603E+03 -4.80640E+03 -4.27344E+02 -2.04978E+03  3.77824E+02
  1.98047E+03 -4.13059E+03  1.34711E+03 -1.53641E+03  6.09148E+03  6.45595E+03  5.95294E+03  3.93322E+03
 -3.10654E+03 -8.60455E+02  2.04682E+03  5.87953E+02 -6.79028E+02  2.94087E+03 -1.30583E+03 -1.34733E+03
 -2.00460E+03 -4.70452E+02 -1.48511E+03  7.99040E+02  2.44455E+03  2.69210E+03  1.25253E+03 -1.33070E+03
  3.88621E+03 -1.69930E+03 -1.39741E+03 -7.44662E+02 -1.39192E+03 -1.41916E+03 -2.61037E+03 -4.71186E+02
 -2.42947E+03  3.74020E+02 -3.04231E+02  1.87522E+02 -6.31757E+02  3.53767E+03 -3.05767E+02 -1.01885E+03
  2.93342E+03 -2.05664E+03  4.51959E+03  5.28540E+02  2.05096E+03 -7.82438E+02 -2.47490E+03  1.99768E+03
 -1.57874E+03  5.93227E+03 -2.28785E+03  2.19758E+03 -1.30488E+03  3.62671E+02  3.39960E+03 -7.87484E+02
  3.10322E+03 -2.26170E+03 -1.95208E+03  2.04602E+02 -1.11627E+03 -4.91000E+02  3.31078E+03 -5.17731E+02
