 $NMID ID='MM_0lb_SNR50_17hz_g40_41.RAW', FMTDAT='(8E13.5)'
 TRAMP=1., VOLUME=1. $END
  3.10083E+05  1.86022E+03  3.38706E+05  2.48533E+05  8.72600E+04  3.36642E+05 -1.31275E+05  2.47297E+05
 -1.93159E+05  8.11579E+04 -1.10308E+05 -3.21089E+04  1.87205E+03 -5.01144E+04  5.25243E+04  1.39833E+03
  3.48679E+04  4.93194E+04 -1.61009E+04  7.31304E+04 -5.75533E+04  5.90677E+04 -8.11645E+04  3.21096E+04
 -7.56460E+04 -1.24622E+04 -5.75289E+04 -5.32247E+04 -1.32332E+04 -6.64707E+04  2.99670E+04 -4.77025E+04
  4.63941E+04 -2.59519E+02  1.36272E+04  5.30217E+04 -3.58542E+04  4.75626E+04 -6.68376E+04 -1.09122E+03
 -5.28813E+04 -5.52197E+04 -8.13235E+03 -7.60459E+04  3.33246E+04 -5.39869E+04  4.53808E+04 -1.31448E+04
  4.54398E+04  8.68846E+03  3.19609E+04  2.42353E+04  1.72716E+04  2.43102E+04 -1.24396E+03  2.77683E+04
 -2.24480E+04  1.51199E+04 -1.99101E+04 -1.76723E+03  3.32649E+03 -1.02008E+04  2.46790E+04  9.61925E+03
  5.69626E+03  3.24398E+04 -3.01495E+04  3.60410E+04 -6.10739E+04  3.35374E+03 -5.93277E+04 -4.24501E+04
 -8.74113E+03 -6.09859E+04  4.15339E+04 -4.51462E+04  5.76449E+04 -7.59979E+02  2.87195E+04  3.06289E+04
 -7.86913E+03  3.55000E+04 -2.64009E+04  1.28643E+04 -2.49523E+04 -2.68005E+03 -1.42677E+04 -1.07067E+04
 -4.02643E+03 -1.28843E+04 -3.44985E+03 -1.60880E+04  8.57985E+03 -2.29467E+04  1.69950E+04 -1.35350E+04
  1.39232E+04  3.06315E+03 -6.57265E+03  1.18530E+04 -2.13361E+04 -1.80815E+03 -6.39817E+03 -2.75994E+04
  2.22819E+04 -3.98084E+04  4.61938E+04 -1.73445E+04  4.46076E+04  1.68993E+04  1.56551E+04  3.81306E+04
 -1.41211E+04  3.02194E+04 -2.02425E+04 -7.08435E+02 -8.75830E+03 -2.90273E+04  2.18639E+04 -2.89769E+04
  3.72589E+04 -9.96037E+03  2.93723E+04  2.62715E+04  1.53296E+04  4.37144E+04 -4.49048E+03  4.61343E+04
 -2.66902E+04  3.00666E+04 -4.05843E+04  7.32775E+03 -3.93235E+04 -1.62257E+04 -2.07615E+04 -3.13560E+04
  8.90606E+03 -3.76799E+04  3.24356E+04 -1.13713E+04  2.31510E+04  9.42991E+03  7.24483E+03  1.97869E+04
 -1.51689E+04  6.67781E+03 -1.18251E+04 -8.09485E+03  3.57656E+03 -8.47957E+03  1.78863E+04  1.04791E+04
  1.12986E+04  2.21043E+04 -9.90841E+03  2.35590E+04 -2.06878E+04  7.78840E+03 -2.56097E+04 -7.78116E+03
 -1.52873E+04 -1.72894E+04 -9.91837E+03 -1.93042E+04  3.33192E+03 -1.52854E+04  1.15446E+04 -1.96609E+04
  2.21504E+04 -1.56685E+04  2.36679E+04 -3.59582E+02  2.16662E+04  1.81353E+04  4.23942E+03  3.58473E+04
 -1.08638E+04  2.97397E+04 -2.14815E+04  1.10381E+04 -1.91461E+04 -7.06750E+03 -5.99773E+03 -1.13365E+04
 -1.36795E+03 -5.00474E+03 -2.36837E+03  3.85452E+03 -1.49087E+04  8.12769E+03 -1.08585E+04 -4.65655E+03
 -1.09141E+04 -1.76508E+04  1.49335E+02 -2.14263E+04  1.18331E+04 -1.56418E+04  1.43141E+04 -1.17524E+03
  1.57367E+04  1.11519E+04 -9.52909E+02  1.63467E+04 -9.50487E+03  7.85679E+03 -1.64679E+04  2.06679E+03
 -1.02123E+04 -1.57218E+04 -2.95637E+03 -2.08528E+04  6.16684E+03 -1.45788E+04  1.73795E+04 -3.47727E+03
  1.64836E+04 -3.43885E+03  1.05247E+04  3.29425E+01  3.87887E+03  2.37568E+02  1.34547E+04 -1.16925E+03
  1.08654E+04  2.78483E+03  1.24644E+04  1.26734E+04  8.04547E+03  2.45934E+04 -5.45486E+03  2.87868E+04
 -1.55996E+04  2.43035E+04 -2.43959E+04  1.39424E+04 -2.29975E+04 -2.10112E+03 -2.14216E+04 -1.61220E+04
 -1.23280E+04 -1.86342E+04  1.15708E+04 -1.99317E+04  2.05244E+04 -1.25841E+04  1.51945E+04  3.26391E+03
  3.12284E+03  9.98687E+03 -3.55022E+03  1.44189E+04 -1.16793E+04  5.42274E+03 -6.66181E+03 -8.63407E+03
 -3.39031E+03 -1.14269E+04  7.27486E+03 -1.08484E+04  4.10929E+03 -6.63384E+02  4.35127E+02  9.49585E+03
 -3.26138E+03 -3.63536E+03 -6.35465E+03 -6.18684E+03 -1.95621E+03 -1.10406E+04  8.77404E+03 -7.83189E+03
  1.32474E+04 -6.25095E+03  1.29272E+04  4.63014E+03  7.27876E+03  1.23099E+04  3.26259E+03  1.75545E+04
 -4.44881E+03  1.44800E+04 -9.54690E+03  1.30438E+04 -1.47660E+04  5.16212E+03 -1.36547E+04 -4.58799E+03
 -7.75395E+03 -5.10029E+03 -1.57731E+03  3.00777E+03 -2.11539E+03  2.96668E+03  7.34632E+02  2.87044E+03
 -5.34502E+03 -9.98195E+02 -7.07883E+03 -6.08246E+03 -8.05136E+03 -1.62140E+04  3.14108E+03 -9.91396E+03
  8.80001E+03 -2.63683E+03  6.11756E+03  4.71871E+03  2.70825E+03  4.54062E+03 -2.68682E+03  4.59259E+03
  3.11723E+03 -8.00562E+03  1.06741E+03 -1.04043E+04  2.33627E+03 -8.10402E+03  8.20706E+03 -5.03401E+03
  1.37209E+04  1.53177E+03  8.92155E+03  6.27712E+03 -1.62017E+02  1.17648E+04 -3.20803E+03  1.15459E+04
 -8.22308E+03  3.13772E+03 -1.89330E+03 -1.08581E+03 -1.56965E+03 -1.16128E+03  5.26528E+03 -4.29546E+03
  2.01467E+03  7.72119E+03 -9.78881E+02  8.88386E+03 -2.26898E+03  7.26791E+03 -8.44600E+03  4.52068E+02
 -9.44082E+03 -4.80993E+03 -4.09930E+03 -7.50945E+03  2.47829E+03 -1.59428E+03  7.69914E+03 -6.08465E+01
  2.82947E+03  2.09892E+03 -5.15859E+03  7.30686E+03 -7.35310E+03  1.05992E+03 -5.90945E+03 -5.05676E+03
 -2.78930E+03 -4.53073E+03  3.36982E+03 -9.03852E+03  8.17346E+03 -5.29712E+03  1.01476E+04 -1.65702E+03
  3.03019E+03  4.89657E+03  2.96752E+03  7.56982E+03 -9.54542E+03  4.21801E+03 -7.08528E+03  1.98707E+03
 -1.00567E+04 -2.61348E+03 -2.66044E+03 -4.38858E+03  6.37638E+02 -6.19504E+03  3.39770E+03  2.32319E+02
  1.83157E+03 -2.12285E+03 -1.48952E+03  1.31962E+03 -7.35603E+02  1.43619E+03 -9.09332E+02 -1.73607E+03
  6.13865E+03 -2.35499E+03  9.31810E+03  2.34015E+03  1.67260E+03  3.84957E+03  9.29290E+03  9.44132E+03
  3.53912E+02  8.69228E+03 -8.69504E+03  6.11788E+03 -1.19620E+04  3.85742E+03 -8.21624E+03 -2.52126E+03
 -6.28527E+03 -6.67218E+03 -5.44133E+01 -9.59616E+03 -4.15729E+02 -2.10848E+03 -6.43964E+02 -5.88382E+03
 -3.30587E+03 -7.63409E+03  3.46215E+02 -3.12975E+03  4.38904E+03  3.93367E+03  9.16631E+03 -5.11884E+03
  7.77681E+03 -6.32933E+02  8.17163E+02  5.78181E+03 -5.48143E+03  2.84852E+03 -1.76293E+03  1.45309E+03
 -2.91749E+03  1.25888E+03 -5.12652E+03 -4.23038E+03  3.03442E+03 -3.41424E+03  6.68731E+03 -7.40788E+03
  4.74158E+03 -5.15949E+03  8.37780E+03  1.57340E+03  5.08293E+02  6.39546E+03 -2.33120E+03  3.15517E+03
 -4.49838E+03  7.75959E+03 -5.52825E+03 -2.92681E+01 -3.17505E+03 -3.44462E+03 -1.22256E+03 -5.33104E+02
 -3.40384E+02  1.00713E+03 -1.64149E+03  2.92453E+03 -4.33023E+03 -4.72179E+03 -8.15153E+03 -3.45426E+03
 -3.53469E+03 -9.06463E+02  1.77485E+03 -4.83755E+03  3.19831E+03 -3.58969E+03  7.52852E+03 -1.72292E+03
  8.47875E+03  2.20052E+03  4.93602E+03  8.56403E+03 -2.06892E+03  4.74242E+03 -4.08072E+03  2.61976E+03
 -9.79535E+03 -2.16422E+03 -6.33122E+02 -1.89274E+03  1.92841E+03 -6.79095E+03  9.58023E+02 -1.13170E+03
  2.35778E+03 -1.78792E+03  3.06325E+02 -7.13564E+02  2.08360E+03  6.03025E+02 -2.54945E+02 -8.28206E+02
 -1.97641E+03 -1.49545E+03  2.20615E+03  3.64832E+03 -7.07863E+02  5.11689E+03 -1.17842E+03  4.52330E+03
 -1.03821E+03  4.00567E+03 -4.26800E+03  5.52439E+03 -4.66343E+03  1.48811E+03 -4.47953E+03  5.14470E+02
 -5.11333E+03 -2.67722E+03 -1.06619E+03 -9.69688E+03  2.23077E+03 -5.96939E+03  7.74535E+03 -1.35310E+03
  1.30883E+03  5.26355E+03  2.10919E+03  1.44440E+03  1.95008E+03  5.21374E+03  8.76461E+02 -1.23348E+03
 -1.50639E+03 -5.34357E+03  8.92758E+01 -3.30571E+03 -8.61468E+02 -3.56951E+03  2.19011E+03  5.92765E+02
  2.27063E+02 -2.10871E+03  8.24614E+02 -2.13732E+03  3.05263E+03 -5.15392E+02  9.49210E+02 -2.93842E+03
 -1.83999E+03  1.40469E+03  3.36539E+03  7.86938E+02 -2.77724E+03  4.16189E+03  1.37142E+03  3.40915E+03
 -1.62709E+03  3.66210E+03 -1.36447E+03  1.19519E+03 -1.45076E+03 -1.74811E+03 -4.89068E+03 -4.68768E+03
  6.07501E+03 -2.41457E+03  5.51586E+03 -1.77424E+03  1.45082E+03  1.24261E+03 -2.71110E+03  1.09093E+03
 -6.73166E+03  1.20793E+03 -3.12680E+03 -4.02899E+02 -2.30796E+03 -1.50766E+03  2.42846E+03 -3.07656E+03
 -3.65390E+03 -2.44749E+03 -1.17695E+02 -4.78729E+03  5.21896E+03 -3.62436E+01  3.08911E+02  2.28829E+03
  8.93465E+02 -3.81872E+03 -1.07840E+03  9.72997E+02 -6.78858E+02  6.87997E+02  2.73968E+02  6.86277E+02
  1.11350E+03 -1.30932E+03  1.09788E+03 -3.65218E+02 -3.18610E+03  5.56203E+03  2.78552E+03 -2.74880E+03
 -5.67249E+03  1.04288E+03 -1.81095E+03  3.44787E+03 -3.91410E+02 -1.45963E+03  1.98340E+03 -1.11945E+03
  5.37286E+02 -2.95503E+03 -3.89194E+02  3.23359E+03 -1.64128E+03  1.27163E+01 -3.58739E+03  3.57952E+03
 -1.59014E+03  2.04759E+03 -1.06099E+03 -9.89850E+02 -2.57415E+03  2.29663E+02 -3.26185E+02  2.17428E+03
  1.51921E+03  5.83446E+03 -8.34218E+02 -5.59680E+02  2.63882E+02 -2.32727E+03 -3.52433E+03  3.42200E+02
 -1.26053E+03  3.38272E+03  2.75321E+03 -1.49705E+03 -1.09892E+03 -6.23610E+03  2.90701E+03  1.80976E+02
 -1.66494E+02 -1.93094E+03  5.92024E+03  5.28434E+03 -2.88493E+03 -1.54763E+02 -2.94173E+03  7.59356E+02
 -4.99707E+02 -2.63354E+03 -3.92327E+03  2.07761E+03 -2.89328E+03  1.14978E+03 -5.91186E+02 -9.06156E+02
 -2.11305E+02  8.96764E+02  1.53140E+03 -2.40020E+03  4.97117E+02 -1.65716E+03  3.24900E+03 -7.65643E+02
  2.66767E+03  1.75852E+03  3.58045E+03 -9.01484E+02  3.26571E+03 -1.53500E+02 -3.58114E+03  2.23584E+03
 -5.71463E+03  7.30121E+03 -2.27084E+03  1.19890E+02 -4.07561E+03  1.80088E+03 -5.08469E+03  1.47622E+03
  2.61336E+02 -5.97565E+02  2.52159E+03  1.35139E+03 -2.45960E+03 -4.44441E+03  7.66897E+02  1.75656E+03
  2.65520E+02  1.15392E+03 -2.87384E+02 -2.61236E+03 -2.26968E+03 -4.57319E+02  1.18756E+03 -5.40684E+03
  5.85278E+03 -1.37710E+03  2.14355E+03  6.32005E+02  2.61431E+03  1.21370E+03 -5.10983E+02  2.52814E+03
  1.09721E+03 -6.09656E+02 -8.74803E+02 -1.71059E+03 -3.62046E+03  3.48966E+03  4.41418E+02  3.75988E+03
  2.18626E+03  3.51570E+03  5.26004E+03  3.28057E+03  1.63900E+03  4.49614E+02  2.28386E+03 -2.60072E+03
  8.06917E+02 -1.91257E+03 -4.75086E+02 -1.75682E+03 -2.98658E+03  3.28826E+02  1.19166E+02 -1.82967E+03
  1.20952E+03  5.44571E+02 -3.96110E+03 -4.31279E+02 -1.25459E+03  2.00774E+02 -2.80875E+03  2.38957E+03
  2.75584E+03  2.82143E+03 -2.31010E+00  6.59975E+02  5.49475E+02 -2.17599E+03  3.36887E+03  3.56249E+03
  1.16391E+03 -1.93499E+03  1.97152E+03 -2.60829E+03  1.70541E+03  7.89866E+02 -1.21639E+03  2.29089E+03
