 $NMID ID='MM_0lb_SNR50_15hz_g45_59.RAW', FMTDAT='(8E13.5)'
 TRAMP=1., VOLUME=1. $END
  3.12209E+05  9.54786E+02  3.38795E+05  2.53059E+05  8.54708E+04  3.40389E+05 -1.25861E+05  2.49743E+05
 -1.87780E+05  8.19484E+04 -1.13893E+05 -2.92124E+04 -3.83394E+02 -4.90271E+04  5.45168E+04  1.25560E+03
  3.66108E+04  5.12191E+04 -1.91755E+04  7.02288E+04 -6.19159E+04  6.27397E+04 -8.43572E+04  2.91889E+04
 -8.22269E+04 -1.21163E+04 -5.78988E+04 -5.52779E+04 -1.14411E+04 -6.85914E+04  2.64243E+04 -4.57505E+04
  4.41998E+04  1.40480E+03  1.63055E+04  4.54261E+04 -3.34938E+04  4.82813E+04 -6.63218E+04 -2.46020E+03
 -5.70439E+04 -5.93932E+04 -7.49528E+03 -7.76035E+04  2.97467E+04 -5.52979E+04  4.30594E+04 -1.91373E+04
  4.07333E+04  9.44797E+03  2.80563E+04  2.51531E+04  1.60369E+04  2.61153E+04 -8.10178E+03  2.73230E+04
 -2.08506E+04  1.43526E+04 -1.93581E+04 -7.25089E+03  6.18668E+02 -9.00649E+03  2.33718E+04  1.58930E+04
  4.13165E+03  3.59661E+04 -3.01875E+04  3.56927E+04 -6.08552E+04 -9.13598E+02 -5.77552E+04 -4.17849E+04
 -1.48213E+04 -6.34298E+04  3.93836E+04 -4.91286E+04  5.35072E+04 -5.67345E+03  3.18560E+04  3.30114E+04
 -5.93160E+03  4.06998E+04 -2.88031E+04  1.37404E+04 -3.71916E+04 -4.84564E+03 -1.85418E+04 -8.92305E+03
 -8.52735E+03 -1.77415E+04 -2.51117E+03 -1.73576E+04  5.98299E+03 -2.45514E+04  1.23604E+04 -1.82527E+04
  1.24729E+04  4.63905E+03 -6.07868E+03  7.47164E+03 -2.52366E+04 -2.65928E+03 -8.16905E+03 -3.12141E+04
  1.78405E+04 -4.11128E+04  4.89826E+04 -2.01151E+04  4.20823E+04  2.31654E+04  1.76397E+04  4.11820E+04
 -1.46736E+04  3.25657E+04 -2.49053E+04  3.49223E+03 -7.03963E+03 -3.20499E+04  1.97423E+04 -3.75307E+04
  4.22936E+04 -8.35868E+03  3.44012E+04  2.57748E+04  1.73448E+04  4.40433E+04 -7.12586E+03  4.50338E+04
 -3.01019E+04  3.12172E+04 -3.79928E+04  7.46008E+03 -4.37581E+04 -1.79253E+04 -2.10435E+04 -3.88437E+04
  1.17580E+04 -3.83403E+04  3.07563E+04 -1.21472E+04  2.91415E+04  8.82916E+03  3.84820E+03  1.83306E+04
 -8.37829E+03  3.22915E+03 -1.22214E+04 -8.25392E+03  5.49229E+03 -1.16590E+04  1.51559E+04  5.27992E+03
  1.12453E+04  2.30660E+04 -5.58704E+03  2.11412E+04 -2.43861E+04  1.27928E+04 -2.17341E+04 -6.37173E+03
 -2.20508E+04 -1.86799E+04 -1.16672E+04 -2.04900E+04  7.94998E+03 -1.48815E+04  1.43629E+04 -1.86643E+04
  2.45273E+04 -5.89785E+03  3.40944E+04  3.63973E+03  2.39568E+04  1.85954E+04  6.52837E+03  3.43716E+04
 -1.57782E+04  2.91696E+04 -2.89593E+04  5.22883E+03 -2.03513E+04 -8.34830E+03 -5.56080E+03 -1.54774E+04
 -8.20181E+02 -3.54601E+03 -3.75990E+03  5.10681E+03 -1.54258E+04  5.84876E+03 -1.94900E+04 -1.57401E+03
 -7.51775E+03 -1.51976E+04  3.89108E+03 -2.10485E+04  1.24747E+04 -1.62914E+04  1.68051E+04 -8.60632E+02
  1.42404E+04  1.60370E+04 -4.29879E+03  2.01692E+04 -1.59068E+04  1.57949E+04 -1.77771E+04 -4.17871E+03
 -1.09536E+04 -1.06655E+04  3.33243E+03 -1.91212E+04  7.22239E+03 -1.70967E+04  1.47433E+04 -3.66467E+03
  1.78091E+04  5.11026E+02  1.40633E+04  6.81909E+03  5.57087E+03  9.38037E+02  5.55958E+03 -3.05709E+03
  2.01725E+04  5.19462E+03  1.75578E+04  1.55042E+04  7.83164E+03  2.89924E+04 -2.46109E+03  3.28106E+04
 -2.21003E+04  2.71163E+04 -3.05766E+04  1.09432E+04 -3.06026E+04 -6.20207E+03 -2.52127E+04 -1.44990E+04
 -5.83632E+03 -2.25558E+04  5.69314E+03 -1.77037E+04  2.13215E+04 -1.47508E+04  1.99222E+04  7.22962E+03
  8.16635E+03  7.94585E+03 -6.52660E+03  1.35786E+04 -2.09492E+04 -4.56820E+02 -9.92122E+03 -1.07413E+04
 -2.96646E+03 -1.41743E+04  7.72563E+03 -1.18921E+04  1.11303E+04 -7.28697E+02  4.25442E+03  7.40906E+03
 -6.90397E+03  3.76984E+03 -4.56415E+03 -8.86254E+03  9.33362E+02 -1.18320E+04  9.11116E+03 -1.05550E+04
  1.58399E+04 -5.75707E+03  1.59459E+04  1.80681E+03  1.74317E+04  1.16609E+04  5.37942E+03  1.74330E+04
 -1.83489E+03  2.00813E+04 -1.32457E+04  1.27424E+04 -1.30951E+04 -9.34636E+02 -1.27198E+04 -2.28972E+03
 -5.95827E+03 -2.74953E+02 -1.14356E+03  1.98561E+03 -7.88721E+03  2.18924E+03 -2.23733E+03  4.40874E+02
 -8.39950E+03  1.23984E+03 -1.17295E+04 -5.26317E+03 -3.55734E+03 -1.08664E+04  3.77782E+02 -1.09127E+04
  9.39986E+03 -1.85205E+03  2.41530E+03  3.75358E+03  3.77712E+03  3.14483E+03 -3.31040E+01  3.57944E+03
 -4.41241E+03 -6.86651E+02  3.26907E+02 -1.14896E+04  8.85759E+03 -8.12436E+03  1.06086E+04 -1.81524E+03
  1.90517E+04  6.01277E+02  1.11999E+04  1.11207E+04  9.97928E+02  1.24219E+04 -4.76387E+03  9.65499E+03
 -6.85099E+03  1.63576E+03 -6.45304E+03 -3.35549E+03 -1.38747E+03  3.25543E+02  6.10754E+03  3.03198E+03
  1.55780E+03  6.46464E+03  6.77789E+02  1.05132E+04 -6.39770E+02  6.82028E+03 -6.37192E+03  2.59703E+03
 -6.48449E+03 -4.88861E+03  3.40449E+03 -8.10920E+03  4.38543E+03 -2.03979E+03  3.42048E+02  1.04884E+03
 -2.13024E+03  5.46629E+03 -7.14252E+03  4.69332E+03 -8.68541E+03  7.01524E+03 -9.22002E+03 -5.69659E+02
 -5.46905E+03 -6.68512E+03  4.77165E+03 -1.31005E+04  2.72449E+03 -4.44155E+03  9.59096E+03  4.39589E+02
  4.75039E+03  9.64317E+03  2.09474E+03  9.53543E+03 -7.19251E+03  4.08242E+03 -5.86493E+03  2.21818E+03
 -8.97602E+03 -1.00988E+04 -1.92414E+03 -3.48856E+03  6.40699E+03 -8.32804E+03  2.88158E+02 -1.33115E+03
  1.46197E+03  1.09091E+03 -2.33526E+03  3.74164E+01 -2.18136E+03 -3.60498E+03 -2.10504E+02 -3.83462E+03
  4.27617E+03  3.73118E+03  1.05744E+04  3.28806E+03  7.89579E+03  7.35819E+03  4.95981E+03  1.18991E+04
 -8.23159E+01  1.31477E+04 -1.11476E+04  8.45287E+03 -1.14714E+04  3.31020E+03 -1.13908E+04 -2.93271E+03
 -1.04910E+04 -3.93391E+02  5.04516E+03 -4.12570E+03  3.49232E+03 -5.63498E+03  6.13637E+03 -1.42279E+03
 -1.39398E+03 -1.71211E+03  3.55675E+03 -5.11431E+03  1.35069E+03 -4.28671E+03  2.71533E+03 -3.69933E+02
  7.26103E+03  5.66809E+03  4.40066E+03  4.99016E+03  1.28449E+03  1.56695E+03 -6.67599E+03  3.07027E+03
 -7.11643E+03 -1.42839E+03  7.57309E+02 -3.99178E+03  2.02686E+03 -9.19253E+03  4.99381E+03 -9.97468E+03
  1.19054E+04 -3.54696E+03  2.37193E+03  1.40904E+03  9.33815E+03  1.06733E+03  1.67778E+02  8.18944E+03
 -4.37091E+03  1.00588E+04 -7.86190E+03  4.31795E+03  1.08332E+03  5.47738E+02 -1.89695E+03 -1.91538E+03
 -2.39682E+03  6.02574E+03 -1.48987E+03  6.38033E+03 -6.04813E+03  7.05228E+03 -4.48532E+03  4.10922E+02
 -2.35614E+03 -2.36027E+03  1.02760E+03 -1.08041E+04  3.60857E+03 -2.09149E+03  7.73130E+03 -1.11195E+03
 -9.81844E+02  7.59337E+03 -3.19365E+02  1.07232E+04 -3.44814E+03  6.83387E+03 -3.87454E+03  2.12645E+03
 -5.19850E+03  8.55896E+03 -7.85284E+03 -7.26175E+03 -3.61464E+03 -1.01091E+04  6.03976E+03 -2.95591E+03
  2.65739E+03  2.09625E+03 -9.79797E+02  8.24702E+01  6.69148E+03 -3.65431E+03  5.10207E+03  9.68944E+02
  2.44925E+03 -5.42336E+02  6.02656E+02  2.98964E+03 -4.85129E+01 -7.74581E+02 -1.86036E+03  2.51260E+03
 -3.29600E+02  6.84545E+03 -4.92213E+03  5.23313E+03 -4.19107E+03  1.71302E+03 -5.71115E+03 -1.38271E+03
 -4.74515E+03 -4.56445E+03  6.54237E+03 -9.84373E+03  5.40446E+03 -2.20797E+03  3.11537E+03 -3.53682E+03
  6.33604E+03  2.61350E+02 -1.30793E+03  6.29726E+03 -2.11781E+03  3.54881E+03  6.30602E+02 -1.65414E+03
  4.52481E+03 -6.35078E+03  3.75077E+03 -3.40771E+03  2.35792E+03 -5.80404E+03  6.60452E+03 -3.08542E+03
 -8.30985E+02  2.90288E+03  2.75175E+03 -1.02516E+03 -6.00972E+03  3.28003E+03  6.35899E+03  7.59794E+01
  2.99385E+03  2.96095E+02  7.44486E+03  1.20155E+03  7.10108E+03  4.65428E+03 -3.31964E+02  3.93011E+03
 -2.85500E+03  5.78726E+03 -8.64795E+03  2.12722E+03 -6.56695E+03 -2.70826E+03 -3.49602E+03 -3.61665E+03
  5.92799E+03 -1.33984E+03  3.84953E+03 -2.55894E+03  2.49739E+03  1.14731E+03 -6.63223E+03  4.65116E+03
 -3.75945E+03  2.82660E+03 -3.52091E+02  3.10003E+03 -1.32294E+02 -2.47500E+03  6.30250E+03 -2.65024E+03
 -4.61831E+01 -1.12472E+03 -9.10780E+02  3.71337E+02  1.20048E+03 -5.33943E+02  1.27787E+03  2.89006E+03
 -7.46376E+02 -3.48770E+03 -1.62663E+03  3.63527E+03  1.16551E+03  3.93643E+02  7.92226E+03 -2.11586E+03
  4.63835E+03  5.92672E+02  1.52648E+03 -6.39809E+02 -1.91824E+03  5.62116E+03 -5.99660E+03  3.23724E+02
 -1.74663E+03  8.65270E+02 -1.73560E+03 -3.75019E+03 -4.32488E+03 -2.64892E+03  5.13480E+03 -1.50474E+03
  3.77365E+02 -7.73962E+03  9.38086E+02  1.54201E+03 -3.34189E+03  5.44432E+03  3.79394E+03  3.91048E+03
 -5.90043E+02 -8.36117E+01  3.64847E+03  2.14263E+03 -3.42709E+02  4.51766E+02 -1.20545E+03  1.19916E+03
  2.09280E+03  8.96057E+02 -1.67408E+03  4.57623E+03 -5.69296E+03  2.19986E+03 -6.33953E+03 -3.36545E+03
 -3.52505E+03 -4.06448E+03  8.59687E+02 -4.04796E+03 -8.15395E+02 -9.86613E+02  6.59227E+03 -3.85840E+03
  5.47198E+03  2.18953E+03  6.79269E+02  1.47496E+03  1.71731E+03  6.31400E+03 -1.19799E+03  1.65861E+03
 -4.19288E+03 -1.16989E+03 -9.48610E+02  1.27554E+03 -2.90038E+03  2.39126E+02 -1.79916E+03 -8.56667E+02
  3.14760E+03 -2.71037E+03  4.39352E+03  4.31557E+03 -1.60295E+03 -2.46462E+02 -3.83865E+03  9.88900E+02
 -5.11632E+02  8.52875E+02  1.02471E+04  3.43080E+03  2.94539E+03  3.72913E+03 -2.65100E+03  2.35748E+03
 -4.00383E+03  2.10570E+03  3.33891E+03  3.09300E+03 -1.64256E+03 -3.36979E+03 -5.70875E+03 -3.38540E+03
  2.13690E+03 -3.33747E+03 -1.26633E+03 -3.70260E+03  3.99485E+03  1.04034E+03  1.00467E+03  3.61619E+03
  1.48365E+03 -2.51214E+02  9.90559E+02  1.24817E+03  1.89831E+03  9.54203E+02  1.86821E+02  3.60093E+02
  1.13784E+03 -1.93838E+03 -1.82828E+02 -1.60620E+03  1.28379E+03  1.12931E+03 -5.34331E+03  1.08494E+02
  2.56417E+03  4.21868E+03 -4.64547E+03 -3.08956E+02  5.24478E+01 -1.15944E+03  3.30711E+02 -1.66720E+02
  3.50235E+03 -9.61311E+02  1.19762E+03 -2.84392E+03  4.36532E+03  1.21131E+03  5.05676E+02  4.37175E+02
 -6.56094E+02 -4.46800E+02  1.72602E+03  5.95278E+02 -4.00158E+02  3.56547E+03 -1.15106E+03  5.12836E+03
  1.76022E+03  1.42340E+03  1.81353E+03  9.02728E+02 -4.83783E+03  7.63948E+03 -2.96967E+03  9.57366E+02
 -6.34556E+03 -3.59355E+03 -2.63928E+03  2.23815E+03  7.57890E+01  2.73665E+03 -1.94614E+02  5.34871E+03
 -1.11735E+03  1.35730E+03  2.79082E+03 -4.27095E+03 -4.70484E+02  3.87574E+03 -2.49658E+03  1.62639E+03
