 $NMID ID='MM_0lb_SNR50_12hz_g55_8.RAW', FMTDAT='(8E13.5)'
 TRAMP=1., VOLUME=1. $END
  3.08280E+05  4.56744E+03  3.38907E+05  2.52240E+05  8.21804E+04  3.37970E+05 -1.32617E+05  2.45292E+05
 -1.91654E+05  8.73925E+04 -1.09966E+05 -3.57266E+04 -1.62022E+02 -4.35914E+04  5.25419E+04 -2.39824E+03
  3.31377E+04  5.43076E+04 -1.45279E+04  7.63979E+04 -6.10089E+04  6.24211E+04 -8.21563E+04  3.27652E+04
 -7.85496E+04 -9.92202E+03 -6.37631E+04 -5.66771E+04 -1.07299E+04 -6.85327E+04  3.00363E+04 -4.84887E+04
  4.05555E+04  5.38531E+03  1.44422E+04  4.82363E+04 -3.15987E+04  4.85268E+04 -6.68424E+04 -4.55371E+03
 -5.65354E+04 -5.79122E+04 -4.34350E+03 -7.99237E+04  3.46001E+04 -5.71312E+04  5.43481E+04 -1.50849E+04
  4.60260E+04  3.80590E+03  3.02416E+04  2.39953E+04  1.52975E+04  2.77903E+04 -9.11589E+03  2.82215E+04
 -2.70241E+04  1.59646E+04 -2.20084E+04 -7.82307E+03  4.50612E+03 -6.83786E+03  1.99494E+04  1.75962E+04
  1.13407E+04  3.96966E+04 -3.88701E+04  3.80610E+04 -6.79910E+04  3.65627E+03 -5.96276E+04 -4.67296E+04
 -9.59687E+03 -6.26922E+04  4.39332E+04 -4.61570E+04  5.77835E+04 -6.60922E+03  3.26135E+04  3.63623E+04
 -3.79344E+03  3.85505E+04 -3.18655E+04  1.67101E+04 -3.27546E+04 -3.98147E+03 -2.13630E+04 -1.47262E+04
 -1.25325E+04 -1.49018E+04 -7.93430E+03 -1.93968E+04  1.16323E+04 -2.47192E+04  9.90614E+03 -1.53843E+04
  7.47897E+03  5.07017E+03 -8.83323E+03  1.14487E+04 -2.29277E+04 -2.67096E+03 -8.88612E+03 -2.73431E+04
  2.73465E+04 -4.41544E+04  5.03873E+04 -2.02410E+04  5.09645E+04  2.24979E+04  1.21487E+04  3.96858E+04
 -1.67156E+04  3.57189E+04 -2.51859E+04  5.07757E+03 -1.28228E+04 -2.96249E+04  2.13103E+04 -3.24913E+04
  4.15685E+04 -1.13698E+04  3.46209E+04  2.09712E+04  1.59398E+04  4.76343E+04 -9.02087E+03  5.20966E+04
 -3.48058E+04  3.59697E+04 -3.66693E+04  9.97848E+03 -4.46861E+04 -2.27204E+04 -2.47799E+04 -3.49671E+04
  7.70427E+03 -4.03916E+04  3.16345E+04 -1.72151E+04  2.69866E+04  1.18208E+04  8.26123E+03  2.01864E+04
 -1.43581E+04  1.15224E+04 -8.74375E+03 -7.11533E+03  7.20006E+03 -7.75330E+03  1.19529E+04  8.42516E+03
  1.48086E+04  2.52888E+04 -5.52124E+03  3.21817E+04 -2.68689E+04  9.08903E+03 -3.23777E+04 -8.13323E+03
 -2.00112E+04 -1.89789E+04 -1.36930E+04 -2.20920E+04  4.27443E+03 -2.38090E+04  1.70565E+04 -1.83746E+04
  3.25419E+04 -1.46249E+04  3.57235E+04  6.75228E+03  2.10180E+04  1.81665E+04  9.60123E+03  4.07173E+04
 -1.90540E+04  3.00686E+04 -3.04611E+04  9.89024E+03 -2.60152E+04 -9.83679E+03 -5.24874E+03 -1.09406E+04
  4.52316E+02  3.63075E+03 -2.87977E+03  8.35667E+03 -2.00477E+04  5.43240E+03 -2.38997E+04 -7.53960E+03
 -6.72700E+03 -1.99896E+04  7.13708E+03 -2.66757E+04  1.94214E+04 -1.50836E+04  1.86510E+04 -1.64834E+03
  7.82351E+03  1.54664E+04  6.13940E+03  2.14221E+04 -1.27835E+04  8.73544E+03 -1.92550E+04 -3.10839E+03
 -1.93618E+04 -1.89975E+04 -1.47853E+03 -2.55308E+04  1.16468E+04 -2.17594E+04  2.64094E+04 -1.14246E+04
  1.96859E+04 -2.38232E+03  1.82529E+04 -3.59236E+02  2.96480E+03  3.78045E+03  6.69674E+03 -2.86506E+03
  1.93010E+04  4.43669E+03  2.56917E+04  1.18919E+04  1.40033E+04  3.57337E+04  9.34232E+02  4.40092E+04
 -1.92683E+04  3.01303E+04 -2.94493E+04  1.97279E+04 -4.38306E+04 -4.82887E+03 -3.49028E+04 -2.20003E+04
 -1.49112E+04 -2.66801E+04  1.13105E+04 -2.92784E+04  2.58945E+04 -1.48574E+04  1.96287E+04  4.14512E+03
  8.17634E+03  1.56412E+04 -1.08803E+04  1.28488E+04 -1.36034E+04  8.17969E+02 -1.53179E+04 -1.06702E+04
 -4.23186E+03 -1.80883E+04  3.50293E+03 -1.43159E+04  9.89734E+03 -1.49508E+03  2.98528E+03  2.50885E+03
 -1.06136E+04  5.27091E+03 -6.74200E+03 -1.02831E+04 -5.08124E+03 -1.34103E+04  6.44046E+03 -1.08710E+04
  1.40060E+04 -1.65750E+04  1.72950E+04  1.39629E+03  2.00286E+04  1.50063E+04  1.09404E+04  2.11495E+04
 -4.92559E+03  2.75707E+04 -1.83529E+04  1.59680E+04 -1.69385E+04  2.24480E+03 -1.63934E+04 -2.96690E+03
 -7.26058E+03 -7.14055E+03 -1.90008E+03  4.33637E+03  5.18907E+02  6.23856E+03 -7.31787E+03  1.06267E+04
 -1.12101E+04  2.43538E+02 -1.81158E+04 -1.27322E+04 -6.24835E+03 -1.86734E+04  4.61185E+03 -1.28000E+04
  6.85863E+03 -7.70768E+03  5.33566E+03  1.48764E+03  1.66530E+03  3.82887E+03 -6.12119E+03 -1.00325E+03
 -2.71837E+03 -1.19953E+04 -4.47971E+02 -1.64904E+04  8.58111E+03 -1.57099E+04  1.88474E+04 -9.13797E+03
  1.86461E+04  1.22262E+03  1.50370E+04  9.04711E+03  7.26630E+03  1.51188E+04 -9.02964E+03  1.18932E+04
 -1.12912E+04  3.25492E+03 -8.92110E+03  6.23319E+02  7.70574E+02  1.33150E+03  8.69549E+03  1.35219E+03
  4.92580E+03  2.79644E+03  1.63565E+03  1.32735E+04 -3.04126E+03  1.46249E+04 -1.45934E+04 -1.60614E+03
 -1.38822E+04 -9.75118E+03  1.37021E+03 -1.87484E+04  1.19115E+04 -6.41171E+03  9.13707E+03  1.97023E+03
  1.84893E+03  8.35396E+03 -4.61809E+03  6.93687E+03 -1.30508E+04  6.32631E+03 -1.08231E+04 -2.32041E+03
 -6.42193E+03 -1.40998E+04  2.54795E+03 -1.38582E+04  1.38144E+04 -8.39153E+03  1.57095E+04  1.57382E+03
  6.67425E+03  1.47775E+04  3.71487E+03  1.54144E+04 -1.68855E+04  2.73516E+03 -8.23477E+03  3.30475E+00
 -1.00597E+04 -2.24954E+03  1.18492E+03 -8.57759E+03  9.24331E+03 -1.48096E+04  1.18902E+03  1.78543E+03
  8.51689E+03  1.74862E+03 -5.01058E+03 -8.29462E+02 -4.33808E+03 -4.93819E+03  4.59002E+03 -6.79630E+03
  9.25186E+03 -1.94916E+03  1.13374E+04  1.30935E+03  1.06528E+04  8.06785E+03  9.57699E+03  2.18951E+04
 -6.69469E+03  2.34412E+04 -9.29501E+03  1.51857E+04 -2.25672E+04  2.20013E+03 -1.28131E+04 -1.01940E+04
 -9.65692E+03 -1.73542E+04 -2.43036E+03 -1.10522E+04  3.28808E+03 -4.83382E+03  6.08852E+03 -7.03295E+03
  8.88976E+02  7.49732E+02 -4.07416E+03 -1.16083E+03  5.62373E+03  8.68433E+01  1.02185E+04 -1.66467E+03
  8.68197E+03  1.13647E+03 -1.93751E+02  5.81114E+03 -2.90845E+03  9.33322E+03 -1.38706E+04  4.70312E+03
 -8.70494E+03  2.02391E+03 -3.47182E+03 -1.47473E+04 -3.22193E+02 -1.33232E+04  5.99306E+03 -1.27269E+04
  1.95018E+04 -4.38711E+03  1.56410E+04  6.50075E+03  1.07448E+04  4.49558E+03  1.93686E+03  2.05857E+04
 -1.02318E+04  7.81123E+03 -9.63607E+03  9.45624E+03 -1.16641E+04 -5.92790E+03 -1.81345E+01 -2.98619E+03
  7.72110E+02 -2.21108E+03  2.66944E+03 -5.42222E+02 -3.12737E+03  5.49077E+03 -9.77284E+03  2.41695E+02
 -4.43786E+03 -1.08570E+04  2.05760E+03 -8.51626E+03  3.27892E+03 -9.48176E+03  1.01830E+04 -2.80853E+03
  9.95919E+03  7.22825E+03  7.00407E+03  1.15171E+04 -3.62168E+03  5.43844E+03 -5.95456E+03  1.35411E+04
 -1.06668E+04 -3.52222E+02 -1.12188E+04 -1.76250E+03 -4.04621E+03 -6.54019E+03  4.20112E+03 -7.67071E+03
  5.34501E+03  3.33655E+03  6.10230E+03  3.96280E+03 -3.01319E+03 -1.65585E+03 -2.83479E+03  2.20087E+03
  1.42508E+03  3.94892E+02  6.28365E+03 -3.25214E+03  6.26802E+03  7.87540E+02  2.32145E+03  2.55711E+03
 -5.29411E+03  1.04342E+04 -1.19118E+04  8.77521E+03 -4.85998E+03 -3.90376E+03 -1.29702E+04 -3.66825E+03
 -6.01672E+03 -1.08791E+04  4.48052E+03 -1.64617E+04  2.26352E+03 -9.57556E+03  1.36856E+04 -9.02430E+02
  2.67340E+03  5.70560E+03  4.29479E+03  3.91522E+03 -1.81235E+03  7.58559E+02 -6.80467E+03 -1.03833E+03
 -4.80561E+03 -3.25862E+03  5.18863E+03 -5.27641E+03  5.65900E+03 -1.55384E+03  2.63357E+01 -1.49657E+03
  6.82439E+02 -1.27316E+03 -1.78598E+03  3.01771E+02 -2.10676E+03  2.50159E+03  2.45592E+03 -2.73394E+03
 -4.28610E+02 -4.04310E+03  5.43607E+03  1.55530E+03  8.56391E+03  3.40388E+03  3.85608E+03  6.27808E+03
 -2.93395E+03  8.14034E+03 -6.51303E+03  1.43055E+03 -3.71986E+03 -3.36206E+03 -8.77159E+02 -2.87244E+03
  5.24828E+02 -2.07883E+03  2.55223E+03 -4.25840E+03  4.56171E+03  7.23969E+03 -1.49678E+02  6.50832E+03
 -1.51836E+03  3.04999E+03 -5.73916E+03 -1.15155E+04  1.74604E+03 -1.13192E+04  5.10929E+03 -5.47823E+03
  4.08175E+03 -3.19497E+03  1.12931E+03  2.05807E+02  3.55843E+03  4.12932E+03 -2.18728E+03  4.63186E+03
 -4.85082E+03  5.09996E+02  4.29220E+02  3.04962E+03  3.37441E+02 -7.62932E+03  3.42985E+03 -5.30459E+03
  7.25985E+03  2.48477E+03  4.02044E+03  3.58261E+03  4.59308E+03  1.35406E+03 -1.34462E+03  8.02114E+03
 -5.17956E+03  3.49920E+03 -5.84077E+03  4.01184E+03 -1.55541E+03 -4.94093E+03  1.99383E+03 -1.70021E+03
  4.32130E+03  1.38006E+03  1.75690E+03  9.18690E+03 -3.37452E+02 -7.52726E+02 -2.02924E+03 -5.17534E+02
 -1.99251E+03 -1.56456E+03 -4.13620E+03  9.90028E+02  1.39906E+03  5.41988E+03 -3.09673E+03  4.08779E+03
 -2.42422E+03 -7.26752E+02 -7.70469E+03  5.93295E+03 -5.97725E+03  5.75015E+03 -1.20426E+04 -5.83926E+03
 -3.30321E+01 -1.35716E+04  2.90581E+03 -1.23683E+04  2.92133E+03 -3.77394E+03  1.21807E+04 -2.33345E+03
  5.16621E+03 -2.92425E+03  8.78283E+03  9.80261E+03 -2.35326E+02  6.67929E+03  2.22023E+03  6.91231E+03
 -2.29621E+03  2.82334E+03 -8.52544E+03 -2.65345E+03 -2.81416E+02  6.08718E+01 -1.22344E+03 -1.01829E+03
  3.43421E+03  1.97739E+03 -2.71383E+03 -2.33344E+03 -6.43655E+02  9.42786E+02  1.09910E+03  1.69245E+03
  6.00792E+03 -2.09037E+03  2.07200E+02  4.19996E+03  8.83066E+03  1.98226E+03  9.37374E+02  5.16923E+03
  2.07390E+02 -7.77942E+02 -6.55079E+03  2.06569E+03 -1.65453E+04 -1.77579E+03 -7.17324E+03 -7.37966E+03
 -4.87488E+03 -7.44436E+03  6.66714E+02 -1.33466E+03  2.82803E+03 -1.21270E+03  1.03211E+02  2.38488E+03
  4.58552E+03  2.88772E+03  8.97009E+02  4.50272E+01  3.40872E+03  3.25477E+03 -5.43530E+03 -4.12574E+03
  4.52619E+02 -3.38119E+03  6.84645E+02 -4.50235E+02 -3.95977E+03 -1.06539E+03  5.80585E+03 -9.21475E+02
  8.94940E+02  6.81728E+03 -5.51992E+03  1.88550E+03 -9.92852E+02  3.65390E+03  1.64292E+03 -7.19079E+03
  4.02002E+02 -3.70927E+03  6.82272E+03 -2.74225E+02  1.06649E+03  8.06749E+02  3.68128E+03  5.73815E+03
  3.52296E+03  4.01193E+03 -2.92917E+03  4.08344E+03 -3.03026E+03  1.04163E+04 -2.65383E+03  2.38133E+03
  1.12128E+03  4.62869E+03  1.51365E+02 -6.32130E+03 -7.15101E+03 -3.75810E+03 -2.06831E+03 -2.35073E+03
 -7.12645E+03 -3.21322E+02 -4.71258E+02 -1.04431E+04  1.25734E+03  6.25085E+03  3.09926E+03 -6.83847E+03
  2.47106E+01  1.53121E+03 -1.80490E+03  6.92045E+03 -1.21979E+03  5.48977E+03 -7.57243E+02  5.25895E+03
