 $NMID ID='MM_0lb_SNR50_12hz_g45_38.RAW', FMTDAT='(8E13.5)'
 TRAMP=1., VOLUME=1. $END
  3.13433E+05  1.93255E+03  3.37278E+05  2.52864E+05  8.27673E+04  3.36812E+05 -1.35966E+05  2.51715E+05
 -1.88374E+05  8.69855E+04 -1.15863E+05 -3.09938E+04  7.00224E+03 -4.98607E+04  5.51677E+04 -9.92152E+02
  3.57064E+04  5.29139E+04 -1.72611E+04  7.85601E+04 -5.65209E+04  6.64674E+04 -8.39666E+04  3.10529E+04
 -8.56261E+04 -1.46965E+04 -5.22383E+04 -4.19985E+04 -8.38375E+03 -6.50417E+04  2.47525E+04 -4.66877E+04
  3.89135E+04 -1.90573E+02  1.50280E+04  5.03593E+04 -3.55908E+04  4.85825E+04 -6.93648E+04 -1.23013E+03
 -5.36832E+04 -5.85558E+04 -3.01016E+03 -7.97462E+04  3.00971E+04 -6.04211E+04  4.98338E+04 -1.93176E+04
  5.06558E+04  1.35809E+04  2.79707E+04  2.82882E+04  1.52337E+04  3.13408E+04 -1.12939E+04  2.70232E+04
 -2.56953E+04  9.60497E+03 -1.70642E+04 -8.75291E+03  8.49462E+03 -4.20280E+03  2.39102E+04  1.02600E+04
  4.85010E+03  3.40245E+04 -3.35608E+04  3.82321E+04 -6.62394E+04  5.26673E+03 -5.70724E+04 -4.28093E+04
 -1.82966E+04 -6.19030E+04  3.62100E+04 -4.33069E+04  5.86221E+04 -4.22229E+03  3.33398E+04  3.08372E+04
 -3.73137E+03  4.34176E+04 -3.16600E+04  1.68445E+04 -3.17737E+04 -7.07407E+03 -1.83436E+04 -1.25722E+04
 -5.80490E+03 -1.39327E+04 -6.56776E+03 -2.08732E+04  7.73237E+03 -2.27433E+04  1.66177E+04 -6.61721E+03
  8.87887E+03  8.36792E+03 -9.04568E+03  1.19552E+04 -1.72744E+04 -6.03858E+03 -1.21753E+04 -3.88611E+04
  2.13531E+04 -4.37569E+04  5.40127E+04 -2.37047E+04  4.37259E+04  2.04025E+04  1.91101E+04  4.82629E+04
 -1.29427E+04  3.19358E+04 -2.82959E+04  3.06758E+03 -9.74613E+03 -2.73887E+04  1.77868E+04 -3.53096E+04
  3.69827E+04 -7.66629E+03  3.49202E+04  2.11422E+04  2.24818E+04  4.75985E+04 -8.40590E+03  4.86653E+04
 -3.11136E+04  3.51164E+04 -3.92665E+04  1.17096E+04 -4.16829E+04 -1.37540E+04 -2.58828E+04 -3.52507E+04
  4.61749E+03 -3.87804E+04  3.86598E+04 -1.39610E+04  2.80268E+04  6.81706E+03  7.17637E+03  2.05283E+04
 -8.62823E+03  1.39170E+04 -9.98281E+03 -4.59638E+03  1.57968E+03 -1.11539E+04  2.10060E+04  5.63984E+03
  1.07514E+04  2.04274E+04 -5.99510E+03  2.77028E+04 -2.04192E+04  1.13709E+04 -2.61008E+04  2.20796E+02
 -2.62876E+04 -1.82126E+04 -1.36772E+04 -1.76550E+04  1.73979E+03 -2.36576E+04  1.85558E+04 -2.04844E+04
  2.85168E+04 -1.27560E+04  3.84690E+04  3.72244E+03  2.77333E+04  2.21843E+04  7.08821E+03  4.01189E+04
 -1.63716E+04  2.69498E+04 -3.01428E+04  1.06589E+04 -1.95590E+04 -9.93998E+03 -2.13617E+03 -1.88090E+04
 -4.45456E+02 -2.20400E+03 -5.45550E+03  7.65370E+03 -2.42166E+04  2.87261E+03 -2.04145E+04 -7.66597E+03
 -1.26740E+04 -2.36588E+04  3.07667E+03 -2.17199E+04  2.06388E+04 -1.51498E+04  1.74374E+04 -1.80639E+03
  9.09796E+03  9.76214E+03 -3.48841E+03  1.79268E+04 -1.37441E+04  1.42966E+04 -1.68727E+04 -6.02927E+03
 -1.09530E+04 -1.98730E+04  6.35382E+01 -2.60825E+04  1.34866E+04 -1.91737E+04  1.63561E+04 -1.28621E+04
  2.19388E+04  8.45849E+02  1.25549E+04  6.66326E+03  8.45674E+03 -2.61855E+03  9.87969E+03  1.29658E+03
  1.81516E+04 -2.68219E+03  2.16214E+04  1.28749E+04  1.66360E+04  2.94063E+04 -2.36312E+03  3.83596E+04
 -1.93893E+04  2.86005E+04 -3.23773E+04  1.49348E+04 -3.48129E+04 -8.80651E+03 -3.12936E+04 -1.81406E+04
 -1.02041E+04 -3.26408E+04  1.06080E+04 -2.97247E+04  2.39951E+04 -1.18442E+04  1.99363E+04  4.90966E+03
  8.38571E+03  1.83973E+04 -1.03619E+04  1.30639E+04 -2.00571E+04  1.00004E+03 -1.21616E+04 -1.42482E+04
  2.35799E+03 -1.85618E+04  7.51374E+03 -2.02451E+04  1.65076E+04  3.13445E+03 -1.86970E+03  6.16897E+03
 -9.81085E+03  3.14760E+03 -8.17516E+03 -3.65374E+03  3.40465E+03 -1.23682E+04  9.29943E+03 -1.16787E+04
  2.08326E+04 -1.02653E+04  1.95248E+04  1.89099E+02  1.72704E+04  1.81553E+04  9.82314E+03  1.96464E+04
 -4.30453E+03  2.26164E+04 -1.79677E+04  2.05094E+04 -1.53777E+04  6.30888E+03 -1.49814E+04 -2.98602E+03
 -4.15499E+03 -1.04583E+03 -3.92819E+03 -2.85750E+03 -3.34021E+03  6.12570E+03 -1.10852E+04  9.03307E+03
 -1.13375E+04  3.47678E+02 -1.21507E+04 -9.40572E+03 -3.80187E+03 -1.76523E+04  6.34389E+03 -1.55836E+04
  1.25602E+04 -6.00250E+03  7.92326E+03  3.78694E+03  6.40421E+02  4.85491E+03 -5.69976E+03 -1.98203E+03
  5.45250E+01 -5.31765E+03 -4.90484E+03 -1.44124E+04  1.04516E+04 -1.41747E+04  1.88991E+04 -8.89686E+03
  2.22615E+04  2.34078E+03  1.34635E+04  1.13237E+04  5.90355E+03  1.06657E+04 -5.99219E+03  1.75903E+04
 -6.70163E+03  4.00472E+03 -1.39119E+03  4.22687E+03 -2.28378E+03 -1.12501E+03  8.63287E+03 -6.18294E+02
  5.98547E+03  1.10237E+04  1.63812E+03  4.66084E+03 -5.83883E+03  1.42676E+04 -1.47909E+04  2.08222E+03
 -7.23678E+03 -1.20535E+04  3.47527E+03 -1.19016E+04  9.52481E+03 -2.69878E+03  1.09343E+04  5.36493E+03
 -4.00000E+03  7.61274E+03 -1.27558E+04  1.17850E+04 -1.17425E+04  3.18430E+03 -1.13985E+04 -2.28059E+03
 -6.00460E+03 -1.36713E+04  1.15960E+03 -1.77175E+04  1.36976E+04 -5.25335E+03  9.32071E+03  4.88629E+03
  6.66621E+03  1.19536E+04  2.57352E+03  1.07802E+04 -1.30920E+04  5.65356E+03 -8.43289E+03 -6.03450E+03
 -4.67375E+03 -9.63376E+02  1.61991E+03 -8.63990E+03  1.19667E+03 -1.06653E+04  2.70804E+03 -5.29036E+03
  4.83837E+03  2.54452E+03  1.32739E+03  1.13062E+03 -8.38353E+02 -5.30207E+02 -2.48311E+03 -6.39268E+03
  6.33469E+03 -9.05893E+03  1.22814E+04  4.28773E+03  1.33468E+04  1.04485E+04  1.17176E+04  2.14833E+04
 -3.30579E+03  2.43799E+04 -1.22148E+04  2.07090E+04 -1.53314E+04  4.25968E+03 -1.60946E+04 -3.60534E+03
 -1.05356E+04 -1.59563E+04  1.65317E+03 -9.74256E+03  3.37899E+03 -5.07002E+03  2.67777E+02 -4.65064E+03
  2.57252E+03 -1.26949E+03 -6.02942E+02 -3.98950E+03  1.80224E+03 -2.50706E+03  5.56694E+03 -3.69450E+03
  9.98311E+03 -7.56850E+02  4.45096E+02  8.20239E+03 -1.34530E+03  4.66500E+03 -1.01922E+04  1.04064E+04
 -1.43532E+04 -2.50432E+03 -5.06197E+03 -1.15625E+04 -3.34328E+03 -1.53015E+04  7.91271E+03 -6.53052E+03
  8.97606E+03 -2.36555E+03  1.33140E+04  1.77312E+03  1.49648E+04  1.03649E+04  3.49973E+03  1.45585E+04
 -2.66443E+03  1.27731E+04 -5.31013E+03  4.07604E+03 -9.29717E+03 -4.38790E+03 -4.99394E+03 -2.48170E+03
  1.88865E+03 -1.64370E+03 -1.84125E+03  2.66155E+03 -3.91716E+03  1.68357E+03 -9.20063E+03  2.92970E+03
 -7.35513E+03 -7.35007E+03 -2.62287E+03 -3.58722E+03  2.70399E+03 -9.42921E+03  1.39111E+04 -6.02352E+03
  8.16266E+03  5.64886E+03  4.61911E+03  1.28411E+04 -2.17846E+03  1.21619E+04 -9.10872E+03  2.31545E+03
 -1.32276E+04  6.01170E+01 -5.43360E+03 -1.41097E+03 -3.08190E+03 -4.17716E+03  5.38377E+03 -8.83717E+03
  5.57945E+03 -3.66075E+02  5.48581E+03  2.47279E+03  5.36194E+03  4.27065E+01  4.96311E+03  1.29465E+03
  4.31030E+03  4.89094E+03 -1.00312E+03  1.59646E+03  6.08800E+03  2.21506E+03  3.98851E+03  5.71577E+03
 -2.88415E+02  7.27871E+03 -7.41572E+03  4.50513E+03 -9.02516E+03  4.70466E+02 -1.45034E+04 -4.48769E+01
 -2.45305E+03 -1.05640E+04  4.81099E+03 -1.63416E+04  7.08521E+02 -5.98891E+03  1.13845E+04 -5.07897E+03
  3.73097E+03  3.16801E+02  3.39670E+03  3.91893E+03 -5.30429E+01  6.33036E+03 -7.96224E+03  1.83510E+03
  2.39419E+02 -4.98869E+03  3.37207E+03 -1.52961E+02  1.01296E+04 -1.09956E+03  1.00628E+04  3.49296E+02
  3.06518E+03  5.46536E+03 -7.83566E+02 -1.32869E+03 -9.53650E+01  5.21373E+03 -9.33474E+02 -4.48924E+03
 -1.48092E+03 -3.57143E+03  9.54490E+02 -6.35357E+02  1.66484E+03  1.07229E+04 -4.41385E+03  1.06796E+04
 -4.61170E+03  1.76817E+02 -4.65219E+03  1.90510E+03 -7.37610E+03 -6.25704E+03 -1.20896E+03 -4.78821E+03
  5.08945E+03 -2.48252E+03  3.89599E+02 -6.74504E+02  1.05526E+01  2.52263E+03 -2.05807E+03  6.18511E+03
 -7.09204E+03  5.81413E+03 -3.65226E+03 -1.45272E+03 -4.91809E+03 -6.60296E+03  1.69637E+03 -2.07574E+03
  2.13082E+03 -7.61696E+03  1.48317E+04  1.02330E+03  8.16503E+02  2.91730E+03  2.34257E+02  4.00976E+03
 -2.31091E+03  2.82451E+03  1.33116E+03 -1.74833E+03  1.60265E+03 -2.89087E+03  7.73830E+03 -4.36394E+03
  3.11896E+03 -3.56076E+02  4.31890E+03  1.73577E+03 -7.63861E+02  6.18004E+03 -2.20548E+03  6.22086E+03
 -7.10979E+03  1.10803E+03 -9.17704E+03  3.95311E+02 -5.83148E+03 -3.89092E+03  3.20406E+03 -4.84118E+03
  6.08338E+02  1.16862E+03  4.13219E+03 -6.18697E+02 -5.96890E+01  5.00192E+03 -1.77480E+03  1.58132E+03
 -2.79739E+03 -2.68023E+02  1.20674E+02  4.46374E+03  1.22961E+03  6.52327E+03 -4.51692E+03 -2.86489E+03
 -7.45546E+03  5.07160E+03 -7.68457E+03  3.30663E+03 -2.34540E+03 -5.54754E+03 -1.13285E+04 -5.70647E+03
 -2.77747E+03 -1.07134E+04  7.92023E+03 -1.11944E+04  7.87273E+03 -4.99345E+03  6.19034E+03 -6.35736E+03
  3.59222E+03  3.86498E+03  7.13162E+03  4.86154E+03  1.91875E+03  3.65784E+03 -1.13810E+03 -2.90503E+03
 -3.65605E+03  8.68465E+02 -1.59339E+03 -2.77057E+03  1.64483E+03 -5.91435E+02 -2.48182E+02 -1.88869E+02
 -4.76511E+03  3.43028E+03 -2.02851E+03  3.30249E+03 -5.00053E+03 -6.62665E+03  7.37819E+02  4.16099E+02
 -1.41518E+03 -2.45404E+03  2.23616E+03 -1.59236E+03  8.44829E+03 -3.24732E+03 -6.11449E+02  1.14015E+04
 -7.47087E+03  6.04733E+03 -8.27880E+03  3.61248E+03 -4.37132E+03  2.49861E+03 -4.64930E+03 -1.24237E+02
 -8.18008E+02 -7.06906E+03  3.10830E+02 -7.22807E+03  2.55560E+03 -6.39958E+03  2.92918E+03 -2.84713E+03
 -8.20517E+02  5.75253E+03 -1.87047E+03 -1.14940E+03 -1.27107E+02 -5.17333E+03 -3.26747E+03 -2.17679E+03
 -5.95476E+02 -2.14070E+03 -6.46043E+02  1.93586E+03 -1.57556E+03  6.78600E+03  1.93955E+03  4.28923E+03
 -6.83313E+02  1.82178E+03 -3.34074E+03 -3.31786E+03 -5.62612E+03  2.57592E+03  3.64916E+03 -6.87316E+03
  2.89838E+03  1.41135E+02  4.53456E+03 -9.89395E+02  3.13022E+03 -1.66918E+03  4.05626E+03  6.57825E+03
 -3.60884E+03  6.32437E+03  1.01996E+03  4.75921E+03 -6.10589E+03 -6.07132E+03  4.21878E+02 -4.51979E+03
 -2.65742E+03  1.06879E+03  6.21124E+03 -1.71810E+03 -2.62590E+03 -1.59289E+03 -2.41420E+03 -5.10804E+03
 -2.95111E+03 -4.24068E+03 -4.01526E+03 -4.36126E+02  2.88566E+03 -3.19234E+03  1.87435E+03  2.29081E+03
 -9.16019E+02  5.35555E+03 -1.04058E+03  1.02689E+03  3.20107E+03  5.77922E+03  4.12430E+03  1.95361E+03
