 $NMID ID='MM_0lb_SNR50_9hz_g45_65.RAW', FMTDAT='(8E13.5)'
 TRAMP=1., VOLUME=1. $END
  3.06962E+05  2.71504E+03  3.34030E+05  2.49986E+05  8.45904E+04  3.39889E+05 -1.29078E+05  2.55823E+05
 -1.94812E+05  8.16330E+04 -1.12933E+05 -3.29999E+04  4.58628E+03 -5.17775E+04  5.73051E+04  1.25027E+03
  3.54068E+04  5.22892E+04 -1.21965E+04  7.65798E+04 -5.88961E+04  7.19125E+04 -8.95595E+04  3.36190E+04
 -8.25380E+04 -6.26962E+03 -5.69338E+04 -5.07863E+04 -1.92857E+04 -7.26512E+04  2.90522E+04 -3.88539E+04
  4.32521E+04 -1.09393E+02  2.07721E+04  4.91109E+04 -2.75573E+04  4.73569E+04 -6.78756E+04 -9.96196E+02
 -5.59024E+04 -6.01160E+04 -7.92028E+03 -8.14522E+04  2.90544E+04 -5.53264E+04  4.99279E+04 -1.58935E+04
  4.46094E+04  1.60161E+04  3.74447E+04  2.54543E+04  1.72516E+04  2.84127E+04 -8.37506E+03  2.65108E+04
 -2.19542E+04  4.89243E+03 -1.92031E+04 -5.72834E+03  9.30077E+03 -8.95839E+03  2.46821E+04  1.50576E+04
  5.42391E+03  4.42320E+04 -3.30619E+04  3.84672E+04 -6.78616E+04  7.43428E+02 -5.78678E+04 -4.76507E+04
 -1.11617E+04 -6.50064E+04  3.74916E+04 -4.99076E+04  6.13832E+04 -6.40521E+03  3.58458E+04  2.73276E+04
 -2.42001E+03  3.90468E+04 -3.64226E+04  1.94602E+04 -3.45388E+04 -9.72017E+02 -2.19167E+04 -1.27240E+04
 -1.10112E+04 -1.99314E+04  2.00837E+03 -2.12568E+04  9.96144E+03 -1.85807E+04  1.27887E+04 -1.50532E+04
  6.36259E+03  1.34129E+03 -1.46963E+04  1.93896E+04 -2.90617E+04  5.68993E+02 -8.99550E+03 -3.54604E+04
  2.61921E+04 -4.46943E+04  4.75969E+04 -1.86540E+04  4.88529E+04  2.35298E+04  1.95320E+04  4.48695E+04
 -6.40910E+03  3.14588E+04 -3.18663E+04  6.89708E+03 -1.13612E+04 -2.65883E+04  2.55759E+04 -4.07035E+04
  4.95738E+04 -8.74702E+03  3.63693E+04  2.60860E+04  1.23351E+04  4.99295E+04 -8.59974E+03  5.44636E+04
 -3.15505E+04  3.71120E+04 -4.28968E+04  8.36436E+03 -4.88933E+04 -1.81687E+04 -2.56245E+04 -4.24244E+04
  7.15029E+03 -4.10812E+04  3.34089E+04 -2.37947E+04  2.83428E+04  1.01843E+04  4.25640E+03  1.38144E+04
 -1.78550E+04  1.27314E+04 -4.61643E+03 -3.39849E+03  9.36449E+03 -1.13233E+04  1.67959E+04 -1.30814E+03
  1.56404E+04  2.35741E+04  9.65105E+02  2.52863E+04 -2.33373E+04  1.25600E+04 -2.85850E+04 -8.66440E+03
 -2.65942E+04 -1.18472E+04 -9.55015E+03 -2.07179E+04 -1.52611E+02 -2.77834E+04  1.88972E+04 -2.06382E+04
  3.37756E+04 -1.58393E+04  3.58977E+04  8.01631E+03  3.17270E+04  2.55530E+04  6.40317E+03  4.42205E+04
 -1.49966E+04  3.50358E+04 -3.10668E+04  1.15289E+04 -2.06615E+04 -5.90933E+03 -5.02350E+03 -1.26222E+04
  2.64438E+03 -1.95791E+03 -1.17853E+04  1.50493E+04 -1.73676E+04  9.12426E+03 -2.19802E+04 -1.07562E+04
 -1.34923E+04 -2.25426E+04  5.89711E+03 -2.94026E+04  1.97557E+04 -1.70491E+04  2.09219E+04 -4.57815E+03
  1.90288E+04  1.63901E+04  2.04308E+03  2.24745E+04 -1.77450E+04  1.38502E+04 -2.64887E+04 -8.30685E+03
 -1.87465E+04 -2.22664E+04 -1.00930E+03 -2.70288E+04  1.54133E+04 -1.85060E+04  2.47949E+04 -3.75011E+03
  2.10933E+04 -8.85329E+02  2.50134E+04  7.13742E+03  8.75520E+03 -1.46374E+03  9.03113E+03 -3.07356E+03
  1.61765E+04  2.22557E+03  2.02805E+04  1.67699E+04  1.57232E+04  3.94955E+04 -3.07351E+03  4.09255E+04
 -2.28175E+04  3.49165E+04 -4.50403E+04  1.50149E+04 -4.32353E+04 -1.86070E+03 -2.90196E+04 -2.76380E+04
 -1.01745E+04 -3.77987E+04  1.41714E+04 -3.17404E+04  3.10181E+04 -1.57014E+04  2.74501E+04  7.85954E+02
  4.65640E+03  1.39853E+04 -1.45944E+04  1.33872E+04 -1.64986E+04  4.90576E+03 -1.14320E+04 -1.39968E+04
 -1.18259E+03 -2.04987E+04  1.60806E+04 -1.00533E+04  1.38564E+04  5.14067E+03  1.34582E+04  1.07226E+04
 -5.03089E+03 -4.20826E+01 -1.51470E+04 -4.63324E+02 -4.37321E+02 -1.79772E+04  1.15300E+04 -1.51540E+04
  2.49519E+04 -8.73431E+03  1.87554E+04  7.51794E+03  2.00260E+04  2.04312E+04  1.05190E+04  2.27993E+04
 -5.57623E+03  3.53447E+04 -2.44406E+04  1.86323E+04 -2.84625E+04  6.87829E+03 -1.73320E+04 -1.15674E+04
 -3.02107E+03 -3.93212E+03 -5.04702E+02 -4.29037E+02 -4.70564E+03  2.30526E+03 -3.80303E+03  7.22327E+03
 -1.28164E+04  3.74140E+03 -9.29778E+03 -1.21771E+04 -3.07972E+03 -2.12031E+04  1.59704E+04 -1.13065E+04
  1.30117E+04 -8.86280E+03  1.03427E+04  3.83999E+03 -9.95720E+02  6.37066E+03 -1.06759E+04 -5.85229E+03
 -1.30514E+04 -1.29268E+04  8.01161E+02 -1.62018E+04  8.75254E+03 -1.66693E+04  2.53477E+04 -5.06002E+03
  2.12918E+04  1.03373E+04  1.76905E+04  1.52802E+04  3.44834E+03  2.38762E+04 -2.70812E+03  1.71932E+04
 -1.08650E+04  8.91442E+03 -1.01079E+04  1.54575E+03 -4.60661E+03 -5.73944E+03  9.92419E+03 -6.92207E+03
  6.12944E+03  1.13536E+04  1.85643E+03  8.00103E+03 -7.75897E+03  1.20172E+04 -1.90295E+04  3.57460E+03
 -1.18337E+04  1.09989E+03 -2.15429E+03 -9.32963E+03  1.08659E+04 -1.62742E+03  1.35427E+04  2.83466E+03
  4.87315E+03  8.63785E+03 -7.66495E+03  1.30580E+04 -5.67206E+03  5.95686E+03 -1.60728E+04 -5.05646E+03
 -5.01051E+03 -1.54192E+04 -8.43047E+02 -1.91558E+04  9.85604E+03 -1.34552E+04  1.89903E+04  2.64804E+03
  1.11302E+04  8.10293E+03 -4.65091E+03  1.84155E+04 -6.99191E+03  1.58356E+03 -1.40821E+04  8.99044E+02
 -1.34150E+04 -5.52362E+03  2.04189E+03 -1.32623E+04  5.27196E+03 -1.26826E+04  7.20571E+03 -3.49955E+03
 -7.12939E+01  1.59621E+03 -4.31019E+03  2.00221E+03  7.64537E+03 -9.27203E+03  2.96168E+03 -8.41186E+03
  1.36615E+04 -9.24270E+03  1.17336E+04 -1.33758E+03  9.54405E+03  8.73813E+03  5.91013E+03  1.97056E+04
 -5.61084E+03  2.34868E+04 -1.65551E+04  2.09714E+04 -2.92933E+04  1.82182E+03 -1.83283E+04 -3.96516E+03
 -1.47498E+04 -1.20471E+04 -2.59877E+03 -1.42993E+04  3.09213E+03 -7.45525E+03  8.97812E+03 -6.97032E+03
  2.89393E+03 -4.68950E+03 -2.37731E+03 -4.30951E+03  2.83185E+03 -5.55556E+03 -1.54330E+01 -3.11405E+03
  8.32811E+03  2.96538E+03  8.37179E+03  8.18694E+03 -1.06431E+03  9.40022E+03 -9.25885E+03  6.81057E+02
 -1.14055E+04 -8.56614E+03 -2.43342E+03 -1.46711E+04  1.64247E+02 -1.82276E+04  8.86478E+03 -1.48053E+04
  1.70299E+04 -7.44516E+03  1.74414E+04  1.13751E+04  1.13748E+04  1.44833E+04 -3.50349E+03  1.42898E+04
 -9.28700E+03  1.96336E+04 -1.44096E+04  2.79524E+02 -1.40142E+04 -2.39803E+03 -1.44531E+03 -2.81998E+03
  7.08429E+03 -4.37598E+03  1.77003E+03  6.14429E+03 -7.25622E+03 -7.06148E+02 -1.30844E+04 -5.76497E+03
 -1.37149E+04 -9.41783E+03 -1.03358E+03 -1.44774E+04  4.86775E+03 -1.03815E+04  1.13550E+04 -5.25916E+03
  8.54845E+03  4.14750E+03  8.69238E+03  1.13971E+04 -2.60515E+03  1.37699E+04 -7.02859E+03  5.71248E+03
 -1.67438E+04 -3.02314E+03 -1.29308E+04 -1.11815E+04  7.14062E+03 -1.38279E+04  1.47175E+04 -1.45023E+04
  7.89853E+03 -5.94315E+03  4.98931E+03  2.41542E+03  4.69730E+03  2.80762E+03 -6.79993E+03 -4.85808E+03
  6.13255E+03  2.19616E+03  2.71963E+03  1.43375E+03  4.12973E+03  9.14988E+03  3.84010E+03  1.00783E+04
 -3.16995E+03  1.21668E+04 -5.70043E+03  1.47385E+04 -1.75444E+04  8.66660E+03 -1.27371E+04 -8.45980E+03
 -6.38875E+03 -1.25712E+04 -1.77284E+03 -1.72125E+04  1.11034E+04 -1.11208E+04  6.11685E+03  1.92428E+03
  1.00555E+04  5.01423E+03  9.70494E+01  7.34055E+03 -1.80273E+03  2.61022E+03 -4.85908E+03  6.06824E+03
 -3.77907E+03 -9.51817E+03  3.10661E+03 -9.89802E+03  8.43346E+03 -1.13497E+03  1.02045E+03 -5.76073E+03
  2.43210E+03  3.26927E+03  9.23601E+03  7.20047E+02 -7.64400E+02 -2.91229E+03 -6.57345E+02  6.42544E+02
  5.25879E+03  1.55966E+03  8.70051E+03  2.05838E+03  2.44774E+03  6.30995E+03  3.22940E+03  1.35689E+04
 -7.54110E+03  6.31483E+03 -1.15811E+04  1.08833E+04 -4.42300E+03 -7.32082E+03 -3.55234E+03 -5.54754E+03
 -5.36848E+02 -8.10892E+03 -1.62931E+03 -7.83962E+03  4.68564E+03  7.48040E+03 -5.33581E+03  5.75219E+03
 -7.95074E+03  5.25344E+03 -6.11053E+03 -4.09418E+03  5.06921E+03 -6.01263E+03  5.22805E+03 -1.34408E+04
  2.79336E+03 -8.10167E+03  6.91715E+03  7.40647E+02  3.44084E+03  2.08021E+02  7.67553E+03 -5.99819E+02
 -5.47722E+03  4.60040E+03 -1.23293E+04 -3.34468E+03  4.15532E+03 -9.56873E+03  9.46405E+03 -2.18718E+03
  1.24329E+04  1.13317E+03  8.42899E+03  3.00733E+03  4.56096E+03  1.17925E+04 -2.58806E+03  1.41232E+04
 -1.06807E+04  7.23326E+03 -1.06909E+04  5.85960E+03 -4.43498E+03 -3.03598E+03  3.85112E+03 -3.94736E+03
  4.38327E+03 -1.54393E+03  6.70163E+03  9.15917E+03  4.51940E+03  2.20436E+03 -1.18469E+03  5.49511E+03
 -9.94440E+03  2.37625E+03 -9.30818E+03  9.03113E+03 -1.05160E+03  4.59633E+03  4.17742E+03  7.37011E+02
 -6.43232E+03  6.92939E+03 -5.90999E+03  4.46157E+03 -1.08298E+04 -4.07195E+03 -1.54496E+04 -1.01395E+04
 -1.04117E+04 -1.15736E+04  5.37419E+03 -1.02474E+04  1.17952E+04 -9.41500E+03  1.57173E+04 -1.45952E+04
  1.41524E+04  3.17387E+03  6.50824E+03  2.06143E+03  9.89008E+01  4.38085E+03 -5.69816E+03  5.16248E+03
 -9.68881E+03  2.00618E+03 -5.11496E+03 -4.63737E+03  5.88805E+03  4.09437E+01 -1.78695E+03 -1.21293E+03
  4.00377E+03  2.02499E+03  4.85041E+03 -9.93516E+02  2.26512E+03 -6.72951E+03 -2.44551E+03  1.73308E+03
  5.32738E+01 -6.37358E+02  1.41273E+04 -3.31091E+03  3.31935E+03  4.74250E+03 -1.92339E+03  1.31066E+04
 -5.55055E+03  1.33441E+04 -1.03181E+04  9.59022E+03 -1.84674E+04  1.70807E+03 -8.31951E+03 -9.33239E+03
 -4.17506E+03 -1.99238E+04  4.99530E+03 -8.99108E+03  7.18919E+03  3.04331E+02  1.42535E+03  4.52343E+03
  9.63006E+03  6.64762E+03 -1.99325E+03 -3.92952E+03 -4.19561E+02  1.41441E+02 -3.51110E+02 -5.55371E+03
  4.05176E+03 -1.31823E+03 -1.12255E+03  1.27504E+03 -2.61996E+02  2.65462E+03  9.16884E+03  2.02100E+03
 -4.95864E+02  2.79830E+03 -5.36105E+03  1.64149E+03 -3.26351E+03 -1.18311E+04 -2.24807E+03 -7.78794E+03
  1.10558E+04 -7.13057E+03  1.11580E+04 -8.96547E+02  2.87824E+03  2.15471E+03  4.17142E+03  1.07156E+04
  4.04410E+03  7.30548E+03 -4.61434E+03  6.59304E+03 -5.50421E+03  1.51310E+03 -3.42257E+03  2.09391E+02
 -3.76003E+03 -4.79926E+03 -2.77846E+03 -3.08511E+03 -8.36850E+02 -1.33091E+02 -8.32510E+03  3.81481E+03
 -3.71839E+03 -5.49326E+03 -2.90736E+03 -1.02216E+04  4.25427E+03 -1.38082E+04  9.64952E+03 -1.01535E+04
  7.89629E+03  2.02536E+03  4.01087E+03  4.82080E+03 -1.08988E+03 -5.10924E+02 -4.03150E+03 -3.55623E+03
