 $NMID ID='MM_0lb_SNR50_10hz_g50_13.RAW', FMTDAT='(8E13.5)'
 TRAMP=1., VOLUME=1. $END
  3.04685E+05  1.41826E+03  3.36583E+05  2.51896E+05  8.29317E+04  3.35326E+05 -1.39398E+05  2.53914E+05
 -1.91741E+05  8.27328E+04 -1.13215E+05 -2.82163E+04  8.67812E+02 -4.86519E+04  5.38777E+04  1.76495E+03
  3.13993E+04  4.92792E+04 -1.74756E+04  7.96806E+04 -6.57945E+04  6.33812E+04 -8.68514E+04  2.86482E+04
 -8.32892E+04 -1.41995E+04 -5.91808E+04 -5.39761E+04 -6.86368E+03 -7.19931E+04  2.84459E+04 -4.17922E+04
  3.62760E+04  3.55488E+02  1.28973E+04  4.75610E+04 -3.40960E+04  5.01590E+04 -6.37530E+04 -9.96622E+02
 -5.78679E+04 -5.76721E+04 -7.72464E+03 -7.67469E+04  4.00458E+04 -5.85373E+04  5.06499E+04 -1.73161E+04
  4.59566E+04  1.01911E+04  3.00944E+04  2.86000E+04  1.45579E+04  3.45792E+04 -5.32463E+03  2.71146E+04
 -2.11526E+04  1.63190E+04 -2.13638E+04 -6.15522E+03  6.70606E+03 -8.04081E+03  2.26809E+04  1.27121E+04
  4.75838E+03  3.66609E+04 -3.52344E+04  3.54140E+04 -6.52303E+04 -7.10547E+02 -5.10324E+04 -4.26283E+04
 -4.40055E+03 -6.73901E+04  4.45929E+04 -4.53183E+04  6.21367E+04 -5.14930E+03  3.67341E+04  3.37897E+04
 -3.40346E+03  3.66861E+04 -3.61894E+04  1.81671E+04 -2.46315E+04 -6.20780E+03 -1.94770E+04 -1.54801E+04
 -8.58197E+03 -1.57673E+04  2.29917E+03 -2.21373E+04  6.38992E+03 -2.35642E+04  2.33289E+04 -1.55323E+04
  1.64767E+04  3.86699E+03 -1.07152E+04  1.87667E+04 -1.92250E+04  4.54058E+02 -8.50157E+03 -3.87314E+04
  2.60440E+04 -4.36105E+04  5.00685E+04 -1.97109E+04  4.74806E+04  2.31432E+04  1.49128E+04  4.36338E+04
 -1.95932E+04  3.33877E+04 -2.47086E+04  3.66296E+03 -7.51537E+03 -3.23563E+04  2.50421E+04 -3.13707E+04
  4.33503E+04 -1.56873E+04  4.04246E+04  2.84429E+04  2.23999E+04  5.49304E+04 -7.74503E+03  5.00182E+04
 -3.09918E+04  3.87555E+04 -5.27030E+04  1.51974E+04 -4.28592E+04 -1.64561E+04 -2.74149E+04 -4.00921E+04
  3.95161E+03 -3.58043E+04  3.05067E+04 -1.44253E+04  2.99647E+04  1.32423E+04  7.10844E+03  2.12283E+04
 -1.67813E+04  5.11803E+03 -1.00521E+04 -9.05077E+03  5.01403E+03 -1.01654E+04  1.76984E+04  1.03756E+04
  8.38909E+03  2.31673E+04 -5.12662E+03  2.11792E+04 -2.27972E+04  1.30449E+04 -3.34167E+04 -3.96173E+03
 -2.28101E+04 -1.25158E+04 -6.33382E+03 -2.35442E+04  1.12386E+03 -2.20488E+04  1.63502E+04 -2.60157E+04
  3.15551E+04 -1.59596E+04  3.43968E+04  2.93931E+03  2.43032E+04  2.69081E+04  5.26646E+03  3.45577E+04
 -2.34797E+04  3.74596E+04 -3.48304E+04  1.10437E+04 -2.80623E+04 -7.86230E+03 -4.28374E+03 -1.39018E+04
 -3.79012E+03 -8.79304E+02 -5.08156E+03  4.93669E+03 -1.49607E+04  6.81009E+03 -1.99560E+04 -5.54272E+03
 -1.24479E+04 -2.55359E+04  6.16178E+03 -2.15637E+04  1.90449E+04 -2.35606E+04  2.43547E+04 -2.81942E+03
  1.48151E+04  1.32982E+04  1.64944E+03  2.05135E+04 -1.93326E+04  1.52894E+04 -2.27669E+04 -2.63376E+03
 -1.23371E+04 -2.02042E+04 -3.64942E+03 -2.15351E+04  1.06033E+04 -1.95443E+04  2.44729E+04 -1.30394E+04
  1.72062E+04  1.64059E+03  1.29425E+04  4.96837E+03  1.26409E+04 -2.32059E+03  1.83576E+04 -3.93410E+03
  1.79972E+04  5.68995E+03  2.11505E+04  2.08353E+04  2.00015E+04  3.66097E+04 -4.33539E+03  4.61557E+04
 -2.86043E+04  2.99786E+04 -4.25063E+04  1.85450E+04 -3.99874E+04 -1.08268E+03 -3.09188E+04 -1.99048E+04
 -1.76658E+04 -3.57325E+04  1.38150E+04 -3.07862E+04  2.62953E+04 -1.21614E+04  2.09313E+04  5.15814E+03
  4.00950E+03  2.60627E+04 -1.51350E+04  1.62663E+04 -1.22441E+04 -9.67959E+02 -9.53933E+03 -1.16434E+04
 -4.35694E+03 -1.69186E+04  1.21779E+04 -1.48887E+04  6.11517E+03 -5.17493E+02  5.19166E+02  6.07620E+03
 -1.11047E+04 -2.94000E+03 -8.17881E+03 -6.18490E+03 -9.64444E+02 -1.99093E+04  1.32144E+04 -2.15310E+04
  2.60245E+04 -1.22936E+04  2.23053E+04  2.63406E+03  2.40112E+04  1.80157E+04  1.38893E+04  2.20859E+04
 -8.53030E+03  2.47436E+04 -1.74839E+04  1.55252E+04 -2.34693E+04  4.52610E+03 -1.44006E+04  1.65989E+03
 -5.52267E+03 -1.88759E+03 -1.46441E+03 -2.87540E+03  1.10386E+03  2.09660E+03 -3.79883E+03  8.84833E+03
 -1.10927E+04 -8.27330E+02 -8.28750E+03 -6.34916E+03 -4.81479E+03 -1.97446E+04  9.12766E+03 -1.52203E+04
  1.90454E+04 -7.01819E+03  8.75481E+03  4.18655E+03  2.03281E+02  8.63865E+03 -9.42056E+03 -2.93890E+03
 -1.03353E+04 -1.32879E+04  6.12866E+02 -1.77767E+04  3.48609E+03 -1.32673E+04  1.75428E+04 -1.36036E+04
  2.31356E+04  3.11699E+03  1.82877E+04  9.25224E+03  5.52829E+03  2.25696E+04 -9.00428E+03  1.34641E+04
 -8.88682E+03  4.64906E+03 -4.70326E+03  2.77133E+03  8.44323E+01 -1.57268E+03  1.10519E+04  1.43962E+03
  4.42711E+03  7.25528E+03  1.04965E+03  1.85446E+04 -2.83233E+03  1.34738E+04 -1.48281E+04  6.36098E+03
 -5.21541E+03 -1.45066E+04 -6.46167E+03 -1.13131E+04  1.32877E+04 -8.88293E+03  6.63308E+03  4.68877E+03
  2.78366E+03  6.19201E+03 -8.44552E+03  1.08845E+04 -1.35334E+04  8.88939E+03 -8.04270E+03 -4.69480E+02
 -5.91412E+03 -1.62055E+04  3.75501E+03 -1.36252E+04  1.42146E+04 -1.20694E+04  1.04677E+04  2.57326E+03
  1.03331E+04  7.89711E+03 -3.93361E+03  1.12844E+04 -1.12874E+04  1.16111E+04 -1.13374E+04 -2.42708E+03
 -9.76595E+03 -7.97253E+03  6.71190E+02 -8.24298E+03  3.37593E+03 -5.79380E+03  6.92232E+03 -4.72230E+03
  9.13789E+03  3.03557E+03 -6.29051E+02  4.61526E+03 -3.08101E+03 -5.06777E+03  3.29668E+03 -8.59573E+03
  1.17876E+04 -3.51432E+03  1.75053E+04  3.86088E+03  1.08559E+04  1.26337E+04  8.27158E+03  1.97462E+04
 -2.27196E+03  2.03377E+04 -1.25450E+04  1.52355E+04 -2.15598E+04 -3.43519E+02 -1.75323E+04 -9.15958E+03
 -9.66447E+03 -1.36264E+04  7.51489E+02 -1.28723E+04  3.11006E+03 -9.39893E+03  5.61639E+03 -2.28189E+03
 -8.72143E+02  4.68269E+03 -4.33678E+02 -6.48011E+03  3.04462E+03 -2.50570E+03  4.71505E+03 -3.38914E+03
  5.62268E+03  3.56101E+03  5.83004E+03  1.39183E+04  7.70808E+01  1.14621E+04 -7.82103E+03  9.19339E+03
 -9.69953E+03 -1.15813E+03 -1.03002E+04 -9.54482E+03 -6.27992E+03 -8.08765E+03  7.84368E+03 -1.11196E+04
  1.55302E+04 -5.49415E+03  1.86452E+04  2.31377E+03  1.10800E+04  1.79950E+04  1.63120E+03  1.69878E+04
 -7.25327E+03  1.83217E+04 -1.04958E+04  7.13015E+03 -5.13056E+03  1.34450E+03 -2.10044E+02 -5.99818E+02
 -2.30888E+02 -1.05133E+03  1.12262E+02  2.60145E+03  3.67307E+02  4.56378E+03 -1.10938E+04 -3.34734E+03
 -8.74515E+03 -1.22641E+04 -2.00912E+03 -1.26107E+04  7.51070E+03 -1.91869E+04  6.39857E+03 -2.38628E+00
  1.10880E+04  2.85862E+03  1.02184E+04  1.74719E+04 -6.15871E+03  1.31224E+04 -4.04280E+03  7.84068E+03
 -1.45542E+04 -2.17534E+03 -6.66159E+03 -1.15657E+04  1.47017E+02 -4.46647E+03  4.11225E+01 -3.65130E+03
  9.03157E+03 -3.25122E+02  5.83732E+03  3.99761E+03  4.46133E+03  3.30289E+03 -1.80049E+03  7.07758E+03
  5.67006E+03  6.56783E+03 -7.85776E+02  3.56357E+03  5.58487E+03  5.18614E+03 -1.99070E+02  5.31622E+03
  2.77706E+02  1.11374E+04 -1.30725E+04  1.42510E+04 -1.67993E+04  9.66817E+03 -1.69258E+04 -1.83511E+03
 -4.47311E+03 -1.75412E+04  3.49583E+03 -1.52930E+04  6.75721E+03 -1.38733E+04  9.61675E+03 -8.50402E+03
  8.37429E+03  8.52400E+03  6.30178E+03  3.68470E+03 -3.68386E+03  1.19978E+04 -1.22595E+04 -6.24119E+03
  4.37095E+02 -1.27682E+04  3.08376E+03 -5.53080E+03  9.98450E+03 -4.46098E+00  1.29181E+03  1.74376E+03
 -4.09676E+03  1.77368E+03 -5.46374E+03 -4.08616E+02  2.12257E+03 -5.76391E+02  3.44643E+03 -4.29269E+03
  3.48330E+03 -1.27870E+03  2.09950E+03  3.08173E+03  6.12354E+03  1.01026E+04  5.38971E+03  8.52422E+03
 -9.41585E+03  6.42533E+03 -7.90205E+03  2.51298E+03 -9.50484E+03 -2.14467E+03 -2.47585E+03 -6.08155E+03
  3.78222E+03 -3.42023E+03  5.71578E+03  1.19804E+03  7.74989E+03  3.37302E+03  1.52586E+03  9.76235E+03
 -6.22335E+03  2.39717E+03 -5.66858E+03 -5.84892E+02 -4.31499E+03 -1.11520E+04  9.63097E+01 -6.50148E+03
  5.80587E+03 -5.23481E+03  2.74196E+03 -9.97132E+02  5.33273E+03  3.48827E+03  5.34749E+03  5.12359E+03
 -4.48068E+03 -1.20608E+02 -2.18874E+03 -1.25622E+03  2.32428E+03 -7.22410E+03  5.52362E+03 -5.35904E+03
  1.05330E+04  6.38461E+02  9.32152E+03  4.79506E+03  3.48815E+03  3.11957E+03 -6.09691E+03  8.58331E+03
 -6.41718E+03  5.41981E+03 -1.03713E+04 -9.44812E+02 -4.02637E+03 -5.23065E+03  8.40607E+02 -1.29344E+03
  8.04881E+03 -5.80561E+03  3.05743E+03  4.27044E+03  2.96032E+03  2.89756E+03 -6.05448E+03  5.79106E+02
 -8.76290E+02  6.38827E+03 -3.71449E+03  4.97939E+03  4.16154E+03  5.44318E+03 -1.08274E+03  1.60211E+03
  5.49570E+03  3.34922E+03 -4.61829E+03  2.70687E+03 -6.11220E+03 -4.92701E+03 -6.27802E+03 -3.24639E+03
 -3.85283E+03 -1.19967E+04  5.24330E+03 -1.26044E+04  1.53552E+04 -1.19309E+04  1.52811E+04 -4.40355E+03
  1.22046E+04  5.08784E+03 -9.70996E+02  5.25554E+03  2.06947E+03  1.06208E+04 -3.90884E+03  1.00421E+04
 -4.81880E+03  5.82067E+03  2.11118E+03 -1.76765E+03  2.14107E+03 -1.20050E+03  3.97384E+03 -1.97772E+03
 -1.59160E+03 -7.32270E+03  1.35965E+02 -2.56358E+03  6.84755E+03 -2.50130E+03 -1.85154E+02 -8.76532E+03
  5.99551E+03 -4.48871E+03  7.26046E+03 -3.23635E+03  7.23667E+03  4.14774E+03  1.77967E+03  9.68937E+03
 -3.73458E+03  6.71906E+03 -1.37840E+04  6.39560E+03 -1.35591E+04 -3.50903E+03 -6.52988E+03 -2.39582E+03
 -5.28782E+03 -4.50192E+03  9.99748E+02 -5.74864E+03  3.15366E+03 -7.52839E+03  1.08550E+04 -1.98426E+03
  2.76572E+03 -1.04877E+03 -7.83245E+02  6.96739E+03  5.66744E+03 -3.49639E+03 -8.58517E+01  5.33793E+02
  1.10841E+03 -4.85930E+03 -4.15125E+03 -3.61247E+03  2.18454E+03  3.11923E+03 -5.25351E+02  5.31521E+03
 -8.11904E+02  4.38782E+03 -3.82435E+03  4.31641E+03 -8.41189E+03 -1.04677E+03 -4.57717E+03  1.45963E+03
  7.92691E+03 -2.91683E+03  7.30547E+03 -7.46354E+02  3.82004E+03  7.32567E+03 -6.40574E+02  7.78778E+03
  3.33951E+03  4.00392E+03 -3.35814E+03  7.71364E+03 -1.32161E+03  2.86314E+03  2.20841E+03 -8.86856E+02
 -1.09990E+03 -6.06790E+03 -5.84665E+03  8.14960E+03 -6.32799E+03  2.82455E+03 -6.56419E+03  1.70972E+03
 -4.03199E+03  1.38847E+03 -1.23788E+03 -3.23946E+02 -6.92089E+02 -4.78169E+03  1.19223E+04 -1.15889E+04
  6.69626E+03  4.18760E+03  2.52415E+03  3.04384E+03 -2.18269E+03  7.53922E+03 -2.83484E+03  2.23752E+03
