 $NMID ID='MM_0lb_SNR50_20hz_g55_64.RAW', FMTDAT='(8E13.5)'
 TRAMP=1., VOLUME=1. $END
  3.08477E+05 -2.24299E+02  3.36359E+05  2.50849E+05  8.10318E+04  3.39600E+05 -1.32102E+05  2.53605E+05
 -1.89289E+05  8.02501E+04 -1.11347E+05 -3.41012E+04 -8.20172E+02 -5.18421E+04  4.98719E+04 -1.56108E+03
  3.58408E+04  5.76944E+04 -1.79666E+04  7.59711E+04 -6.38432E+04  6.27281E+04 -8.57001E+04  3.11071E+04
 -7.82961E+04 -1.25808E+04 -5.66055E+04 -4.93591E+04 -1.36913E+04 -7.12745E+04  2.19977E+04 -4.46217E+04
  3.88926E+04  4.59682E+03  1.46097E+04  4.88827E+04 -3.36411E+04  4.76769E+04 -6.22157E+04  4.74762E+03
 -4.97160E+04 -5.60753E+04 -2.22909E+01 -7.80994E+04  3.09379E+04 -5.84462E+04  4.48074E+04 -1.54108E+04
  4.05372E+04  1.21038E+04  3.08919E+04  2.42830E+04  1.54809E+04  2.68433E+04 -4.59849E+03  2.74844E+04
 -1.94346E+04  1.43848E+04 -2.09240E+04 -6.83732E+03  2.58623E+03 -1.18826E+04  2.49778E+04  6.50421E+03
  9.15364E+03  3.27352E+04 -2.84808E+04  3.48584E+04 -6.31778E+04  5.25439E+02 -5.67248E+04 -4.33390E+04
 -1.31985E+04 -6.41149E+04  3.82001E+04 -4.26130E+04  5.49977E+04 -9.73693E+02  3.47313E+04  3.19222E+04
 -1.02724E+04  2.84265E+04 -2.85301E+04  1.36945E+04 -2.77760E+04 -3.65137E+03 -1.61384E+04 -7.48531E+03
 -8.79312E+03 -1.58080E+04 -3.02912E+03 -1.76249E+04  5.03775E+03 -2.22183E+04  1.39906E+04 -1.65048E+04
  1.63278E+04  7.01138E+03 -5.68457E+03  1.31719E+04 -1.69201E+04 -5.22855E+03 -9.57865E+03 -3.23269E+04
  2.36949E+04 -3.97909E+04  4.27719E+04 -1.99820E+04  4.05609E+04  1.63923E+04  1.49705E+04  4.47984E+04
 -1.41561E+04  2.97350E+04 -2.17901E+04  1.11259E+02 -1.11789E+04 -2.92502E+04  2.21585E+04 -3.33520E+04
  3.52551E+04 -8.83387E+03  3.18623E+04  2.12033E+04  1.27273E+04  4.04406E+04 -6.11091E+03  4.19135E+04
 -2.69337E+04  2.68212E+04 -3.84399E+04  8.71852E+03 -4.14841E+04 -1.43303E+04 -2.15193E+04 -3.30422E+04
  5.71262E+03 -3.61878E+04  2.70133E+04 -1.19017E+04  2.57144E+04  1.11000E+04  3.15003E+03  1.74811E+04
 -1.15063E+04  6.95871E+03 -1.16892E+04 -1.13167E+04  6.41497E+03 -1.10377E+04  1.77984E+04  6.06938E+03
  1.40220E+04  1.93451E+04 -3.48797E+03  2.14570E+04 -2.03424E+04  9.59092E+03 -2.54993E+04 -7.50170E+03
 -1.32870E+04 -1.31859E+04 -5.48119E+03 -1.76785E+04  4.68153E+03 -1.12235E+04  9.56179E+03 -1.49777E+04
  2.26114E+04 -1.32544E+04  2.57936E+04 -1.01261E+03  1.47060E+04  1.22603E+04  7.65226E+03  3.08324E+04
 -1.52247E+04  2.90160E+04 -3.27227E+04  1.18114E+04 -2.28584E+04 -1.25021E+04 -3.43415E+03 -1.40817E+04
  3.40242E+03 -3.04995E+03 -3.08721E+03  5.00789E+03 -1.15662E+04  5.33007E+03 -1.40228E+04 -4.29044E+03
 -5.63503E+03 -1.43743E+04  1.21461E+04 -2.00742E+04  1.13672E+04 -8.99300E+03  1.18073E+04 -5.03221E+03
  5.40510E+03  9.70462E+03 -3.44114E+03  1.46781E+04 -1.17266E+04  8.71444E+03 -1.58880E+04  2.90894E+02
 -1.35620E+04 -9.93799E+03 -2.09553E+03 -2.16268E+04  1.04337E+04 -1.22908E+04  1.47769E+04 -7.58192E+03
  1.74950E+04  3.94946E+03  1.37904E+04  7.48840E+03  4.76709E+03 -3.62074E+02  6.57319E+03 -1.01785E+03
  1.55753E+04  2.94560E+03  1.42272E+04  1.45295E+04  9.28327E+03  2.58958E+04 -1.22166E+03  2.77977E+04
 -1.20726E+04  1.52107E+04 -2.27877E+04  5.05529E+03 -2.38543E+04 -1.51887E+03 -2.56500E+04 -1.24230E+04
 -9.30026E+03 -2.26799E+04  8.13033E+03 -1.68715E+04  1.32953E+04 -1.05132E+04  1.27238E+04  1.47299E+03
  6.38494E+03  1.07383E+04 -6.84970E+03  9.58445E+03 -1.24797E+04  9.35106E+02 -1.30594E+04 -1.15208E+04
  1.29578E+03 -8.62479E+03  5.29594E+03 -7.58478E+03  8.76141E+03 -9.61001E+02  1.17920E+03  8.70576E+03
 -5.53836E+03  1.14023E+03 -3.58005E+03 -3.46857E+03  2.30616E+03 -9.81236E+03  1.03055E+04 -1.04145E+04
  1.21611E+04 -5.30972E+03  1.34850E+04  1.02916E+03  1.27458E+04  1.03921E+04  5.34388E+03  1.28929E+04
 -1.93623E+03  1.53844E+04 -1.18502E+04  9.56243E+03 -1.45380E+04  3.56148E+03 -8.91104E+03 -4.90514E+03
 -3.50756E+03 -7.09039E+03 -9.34445E+02  1.55686E+03 -2.79816E+03  3.85908E+03 -4.61931E+03 -1.80292E+03
 -6.63189E+03 -2.56406E+03 -7.95673E+03 -6.49838E+03 -4.23070E+03 -1.19568E+04  5.31126E+03 -6.38203E+03
  3.11242E+03 -3.52051E+03  6.62685E+03  2.11955E+03  3.90088E+03  7.14294E+03  1.45926E+02 -3.97455E+03
 -2.28543E+03 -5.28881E+03  1.18740E+02 -7.68518E+03  2.58874E+03 -7.28166E+03  1.07740E+04 -3.78860E+03
  1.28062E+04  2.95840E+03  9.08599E+03  5.19571E+03  5.28888E+03  1.09614E+04 -8.67298E+03  8.88391E+03
 -5.61696E+03  2.77428E+03 -4.52058E+03  4.53510E+02  8.69226E+02  6.22846E+02  9.34253E+03  1.56763E+02
  3.48908E+03  3.94863E+03 -3.76057E+02  8.56589E+03 -3.28250E+03  9.82210E+03 -5.91976E+03  9.69187E+02
 -4.34810E+03  1.11643E+03 -1.66869E+03 -4.07953E+03  2.48226E+03 -2.52281E+03  4.49879E+03  6.27090E+02
 -2.42926E+03  4.52418E+03 -2.02509E+03  1.67012E+03 -2.34467E+03  4.24511E+03 -4.15414E+03 -1.74706E+03
 -1.03063E+03 -7.21720E+03  2.83359E+03 -6.81121E+03  1.02679E+04 -9.60470E+02  4.60243E+03 -5.54211E+01
  2.00739E+03  6.83979E+03  2.11325E+03  1.13047E+04 -9.43286E+03  6.72902E+03 -4.34154E+03 -1.98114E+03
 -9.83930E+03 -5.87679E+03 -7.23540E+02 -4.97885E+03  3.95740E+03 -4.38177E+03  6.73493E+01 -3.94231E+03
  4.94100E+03  1.60968E+03 -1.70590E+03  2.50749E+03  4.76024E+03  3.28462E+03  2.80043E+03 -2.74392E+03
  2.23730E+03  3.19643E+03  3.96556E+03 -2.49233E+01  4.13357E+03  1.38466E+03  4.60105E+03  9.92356E+03
  1.51089E+03  5.14663E+03 -7.45600E+03  3.88516E+03 -6.08747E+03  1.29060E+03 -5.32018E+03 -2.95783E+03
 -2.06538E+03 -1.67003E+03  1.45855E+03 -7.12010E+03  4.56858E+03 -1.47668E+03  1.75397E+03 -2.63661E+03
  3.92805E+03 -3.56129E+03  5.81482E+02 -6.63219E+03  1.63321E+03  1.79189E+02 -3.18667E+02  1.01608E+03
  3.78340E+03  3.00420E+03  2.53177E+03  6.59999E+03  2.35409E+02  2.38077E+03 -7.02835E+03  6.75094E+02
 -5.86871E+03 -5.17544E+02 -3.00265E+03 -2.24366E+03 -3.47184E+03 -2.69632E+02  1.64724E+03 -3.18584E+03
  6.40023E+03 -5.57647E+03  5.27704E+03 -2.93142E+03  4.92343E+03  4.43435E+03  1.16626E+03  1.64685E+03
 -3.65512E+03  4.61428E+03  7.37191E+01  3.62630E+03  1.56728E+01 -8.40749E+02  1.98552E+02  1.27581E+02
 -2.03111E+03 -4.00583E+03 -4.64090E+01  5.28567E+03 -3.83287E+03  4.14436E+03 -1.76994E+03  2.64039E+03
 -4.43233E+03 -4.15801E+03  5.97475E+01 -3.04283E+03  3.29186E+03 -4.89106E+03  3.21630E+03 -1.66771E+03
  4.08258E+03  3.39413E+03  1.06807E+03  2.98769E+03  1.08831E+03  2.93286E+03  2.51525E+02  9.33894E+02
 -6.47736E+03  3.81297E+02 -3.36693E+03 -8.21031E+02  1.09606E+03 -9.88728E+02 -1.23730E+03 -2.02238E+03
  5.73560E+03 -6.25956E+03 -1.68466E+03 -1.63990E+03 -5.16329E+02  3.94684E+03  4.90422E+03  3.30940E+03
  1.55134E+02 -2.14549E+03  8.71808E+02  7.63956E+02 -3.04617E+03  3.29326E+03  1.45139E+03 -9.30274E+02
  2.85026E+02  1.06597E+04 -2.10764E+02  6.51150E+02  3.50840E+03  5.21310E+03 -1.11942E+03 -1.29222E+03
 -5.06674E+03 -7.20899E+03 -4.72853E+03 -3.14380E+03  1.72492E+03 -2.45882E+02  1.04743E+03 -1.24984E+03
 -1.79764E+03  2.44487E+03  1.78293E+03 -1.03273E+03  2.80745E+03 -3.68500E+02 -7.74499E+02  4.69110E+02
  2.18489E+03  3.44105E+02 -4.20129E+03  5.43706E+02  6.39020E+02 -1.63531E+03 -1.82270E+02 -7.06282E+02
 -4.28386E+03 -8.43648E+02  8.59190E+02 -1.75630E+03  1.41892E+03  2.81445E+03 -6.85299E+02  1.55335E+03
 -1.95604E+03 -1.32141E+03  4.48536E+03  7.78179E+02  1.01540E+03  4.86055E+03 -2.03676E+03  5.72086E+03
 -1.57738E+03  2.55096E+03  9.05185E+02 -3.86021E+02 -4.84058E+03 -1.47928E+00 -2.91493E+02  1.40799E+02
 -4.23300E+01 -2.26645E+03  3.52814E+03  7.75793E+02 -1.16308E+03  4.48084E+02  7.02984E+02  5.04525E+03
  1.69695E+03  8.72670E+02  3.93063E+02 -1.33303E+03 -2.74598E+03 -3.09924E+03 -3.04022E+02 -5.83246E+03
  9.33178E+02  2.04453E+03  3.21895E+03  1.69600E+03  1.84945E+03 -9.91652E+02  3.91702E+03 -3.03184E+02
  1.90131E+03 -2.38394E+03  4.56265E+03  9.71613E+02  1.30759E+03 -4.81235E+02  2.27123E+03 -2.88242E+03
  1.54475E+03 -1.89313E+03  6.81414E+03  1.64780E+03  3.09306E+03 -8.53603E+02 -5.95326E+02 -3.89189E+02
  1.59672E+03 -2.74338E+03  1.02740E+02  4.88396E+03 -5.04422E+02 -2.50745E+03 -1.65919E+03 -3.25181E+03
  2.29154E+03 -5.11884E+02  1.01423E+03  6.68520E+02  2.48042E+03  9.46790E+02 -1.43394E+03  3.80046E+03
 -5.45609E+02  1.06364E+03 -3.35382E+03  4.12911E+03 -1.13134E+03  2.57624E+02  1.31053E+03 -2.73594E+03
  3.63389E+03 -1.04456E+03  1.23078E+03  2.28022E+03 -1.73655E+03 -1.70345E+03 -1.89840E+03 -3.45595E+03
 -4.00619E+03  1.19343E+03  1.05341E+03 -2.50793E+03  1.77010E+03 -5.23148E+02  3.99081E+03 -5.15942E+02
  3.65053E+03  3.92263E+03 -7.27652E+02  2.79980E+03  1.45064E+03 -2.80853E+03  1.89749E+03  1.47912E+03
  1.85832E+03 -1.08848E+03  6.45365E+02  1.27277E+03 -2.65638E+02  5.02971E+02 -4.67619E+02 -1.57731E+03
 -3.70868E+03 -3.41979E+03  3.45111E+01  1.73599E+03 -4.20218E+03  7.87275E+02  3.83561E+03 -2.08605E+02
  3.13085E+03  1.46393E+02 -3.08013E+02 -2.04413E+03  1.78825E+03  4.24077E+03  1.87441E+03  2.50240E+03
  2.67469E+03  6.78102E+03  3.38156E+03  1.25693E+02  8.24721E+02 -1.97195E+03  1.54365E+03  3.83011E+03
 -4.15496E+03  4.67657E+02  2.35289E+03 -3.91085E+02 -1.04994E+03 -1.03771E+03  4.22956E+03 -2.79369E+03
 -1.85968E+02 -7.96334E+01 -3.17116E+03 -5.92050E+02 -1.17539E+03  1.67160E+03  1.74706E+03 -2.21234E+03
  3.29669E+02  8.54588E+02  3.39635E+03 -1.33493E+03 -4.92939E+03 -2.05583E+03  3.86625E+03  3.47535E+03
 -2.45890E+03  9.07229E+02  2.47460E+03  4.43853E+03 -8.30531E+02 -6.51612E+02  2.80314E+03 -6.88392E+01
  1.31064E+03 -3.66501E+03 -3.68369E+02 -6.49913E+01 -1.88945E+03 -5.05229E+03 -2.40450E+03 -1.68924E+03
  1.93278E+03 -2.38269E+02  7.81866E+01  8.73755E+02 -2.28968E+03  1.63193E+02  2.32269E+03  1.89215E+03
  1.81497E+03 -1.84516E+03  1.51525E+03 -3.56878E+03 -7.43510E+02 -7.03905E+02 -1.93442E+02 -4.22440E+03
  3.33573E+03 -2.38669E+03 -1.19946E+03 -3.66874E+03 -1.13573E+03 -3.37570E+03 -1.00710E+02  1.23964E+02
 -1.55299E+03  1.10699E+03 -2.29674E+03  2.47737E+03 -4.26838E+03 -9.62629E+02 -2.19608E+03  2.63921E+03
