 $NMID ID='MM_0lb_SNR50_14hz_g55_45.RAW', FMTDAT='(8E13.5)'
 TRAMP=1., VOLUME=1. $END
  3.07007E+05 -2.78327E+03  3.36512E+05  2.54389E+05  8.48554E+04  3.37775E+05 -1.26206E+05  2.53784E+05
 -1.86787E+05  8.76921E+04 -1.12933E+05 -3.20413E+04  5.21980E+02 -4.99437E+04  4.73372E+04  9.92204E+02
  3.32990E+04  5.55067E+04 -1.35044E+04  7.62229E+04 -5.81760E+04  6.84967E+04 -8.46609E+04  2.90270E+04
 -8.31310E+04 -1.61374E+04 -5.73599E+04 -5.69443E+04 -1.69340E+04 -6.77313E+04  2.70691E+04 -4.05881E+04
  3.74607E+04  5.23834E+03  1.53704E+04  4.67255E+04 -3.36727E+04  4.97728E+04 -6.82804E+04  3.28175E+02
 -5.01224E+04 -5.66932E+04 -5.47576E+03 -7.87418E+04  2.89101E+04 -5.66050E+04  4.58248E+04 -2.00434E+04
  4.17455E+04  1.13246E+04  3.37378E+04  2.60431E+04  1.59053E+04  2.42279E+04 -7.05635E+03  2.82111E+04
 -2.60640E+04  1.37535E+04 -1.93997E+04 -7.70211E+03  6.26508E+03 -6.97695E+03  1.95428E+04  1.15258E+04
  1.75159E+03  3.97594E+04 -2.90107E+04  3.57948E+04 -6.38192E+04 -2.43307E+02 -5.73498E+04 -4.23271E+04
 -1.20432E+04 -6.83226E+04  4.67446E+04 -4.51339E+04  5.63468E+04  5.36674E+02  3.36208E+04  3.23678E+04
 -3.98967E+03  3.74253E+04 -2.94211E+04  1.39481E+04 -3.41162E+04 -4.08642E+03 -1.63098E+04 -1.36060E+04
 -1.01622E+04 -1.52430E+04 -4.02310E+03 -2.15778E+04  7.12670E+03 -2.22195E+04  1.81864E+04 -1.80284E+04
  1.56419E+04  6.73598E+03 -4.72454E+03  1.04859E+04 -2.51121E+04 -8.66151E+03 -1.19737E+04 -3.06457E+04
  2.31457E+04 -4.35460E+04  4.63838E+04 -1.62140E+04  4.62673E+04  2.53274E+04  1.69831E+04  4.21624E+04
 -1.56063E+04  3.20516E+04 -2.12607E+04  1.04884E+03 -8.08994E+03 -2.89817E+04  1.93204E+04 -3.76475E+04
  4.49618E+04 -5.42218E+03  3.21045E+04  2.59895E+04  1.61687E+04  4.73145E+04 -4.56510E+03  4.73782E+04
 -3.17751E+04  3.70431E+04 -4.85365E+04  1.26458E+04 -4.31773E+04 -1.69518E+04 -2.46384E+04 -3.71735E+04
  8.20405E+03 -4.16497E+04  3.22420E+04 -1.78144E+04  3.02425E+04  1.33978E+04  3.46744E+03  2.15857E+04
 -9.89246E+03  4.37674E+03 -1.30590E+04 -5.32656E+03  8.86338E+03 -1.34742E+04  2.12088E+04  4.37907E+03
  1.59611E+04  2.37924E+04 -8.90676E+03  2.15186E+04 -1.73187E+04  1.34013E+04 -2.73005E+04 -8.33762E+02
 -1.95639E+04 -1.55300E+04 -6.63988E+03 -2.12606E+04  4.22058E+03 -2.06990E+04  1.68886E+04 -1.72742E+04
  3.35969E+04 -1.73828E+04  4.16660E+04  5.15029E+03  2.31551E+04  2.14253E+04  9.72797E+03  3.30804E+04
 -1.88464E+04  3.32412E+04 -2.73343E+04  1.12914E+04 -2.24770E+04 -7.25003E+03 -2.92525E+03 -1.10960E+04
 -3.38778E+02 -3.05334E+03 -7.26222E+03  8.83434E+03 -1.24503E+04  3.60700E+03 -2.00919E+04 -7.72086E+03
 -8.20327E+03 -2.00367E+04  3.34560E+03 -2.66365E+04  1.13131E+04 -1.99758E+04  1.25137E+04 -5.36822E+03
  1.72597E+04  1.23263E+04  3.36020E+03  1.02699E+04 -1.00371E+04  1.25661E+04 -1.92880E+04 -4.04301E+03
 -1.87007E+04 -2.03160E+04 -6.86207E+03 -2.62778E+04  1.49050E+04 -1.97610E+04  2.18092E+04 -7.38757E+03
  1.84480E+04  3.62061E+03  1.10381E+04  6.75310E+03  6.39933E+03  1.06757E+03  1.16940E+04  2.14715E+03
  1.82311E+04  1.51057E+03  2.25628E+04  1.89060E+04  1.40206E+04  3.59259E+04 -1.36426E+03  3.01407E+04
 -2.30240E+04  3.03206E+04 -3.26658E+04  1.92417E+04 -3.37031E+04  1.22527E+03 -3.55733E+04 -2.15761E+04
 -6.97741E+03 -2.47382E+04  1.09070E+04 -2.90348E+04  1.98469E+04 -1.28309E+04  2.06403E+04  7.62234E+03
  6.85142E+03  1.22609E+04 -9.03335E+03  1.38983E+04 -1.77740E+04  6.15100E+03 -1.35140E+04 -1.17736E+04
  3.47009E+03 -1.60635E+04  8.31942E+03 -1.49992E+04  1.36880E+04 -2.97012E+03  9.52578E+02  2.43676E+03
 -8.22043E+03  6.53537E+03 -2.92127E+02 -5.05314E+03 -4.49151E+03 -1.50933E+04  8.99576E+03 -1.77452E+04
  1.79020E+04 -4.58219E+03  1.37556E+04  3.33207E+03  1.48475E+04  1.38413E+04  6.28158E+03  1.89372E+04
 -6.98277E+03  2.44604E+04 -1.14882E+04  1.82948E+04 -2.20218E+04  2.44306E+03 -1.07868E+04 -9.36759E+03
 -5.09904E+03 -7.66340E+03 -5.40517E+02  7.03168E+03  6.28285E+02  3.61282E+03 -6.24296E+03  4.76774E+03
 -9.21433E+03 -4.21636E+03 -1.26168E+04 -5.69923E+03 -5.16487E+03 -1.48212E+04  6.87803E+03 -1.13257E+04
  1.49001E+04 -3.72169E+03  9.16177E+03  4.51949E+03  2.46229E+03  2.12670E+03 -4.69054E+03 -4.03503E+03
 -1.48849E+02 -3.20194E+03 -1.77623E+03 -1.45314E+04  5.68387E+03 -1.40154E+04  1.50863E+04 -6.77829E+03
  2.32602E+04  1.17355E+03  9.43626E+03  7.93955E+03  6.68254E+03  1.13672E+04 -9.69303E+03  1.31882E+04
 -4.97585E+03  5.22503E+03 -4.45303E+03 -4.47640E+03  4.61503E+02 -3.35231E+03  7.58515E+03 -1.43289E-01
  4.61372E+03  7.90561E+03 -2.17184E+01  9.88758E+03 -7.20200E+03  9.77801E+03 -8.63834E+03  3.38905E+03
 -7.54026E+03 -7.05549E+03 -1.85275E+03 -1.11199E+04  8.55596E+03 -6.13539E+03  1.00287E+04  2.67981E+03
  4.60198E+03 -2.09585E+03 -3.66475E+03  9.33997E+03 -1.11706E+04  4.12971E+03 -1.06361E+04 -2.42132E+03
 -1.02230E+03 -9.51048E+03  9.66503E+02 -1.15269E+04  8.54132E+03 -7.70249E+02  7.16485E+03  2.31798E+03
  1.19598E+04  1.10620E+04 -2.64858E+03  1.16257E+04 -7.15151E+03  4.94630E+03 -1.12542E+04 -3.65585E+03
 -9.12000E+03 -3.64916E+03 -6.66408E+02 -4.60506E+03  5.60146E+03 -3.39503E+03  6.80437E+03 -6.84198E+03
  5.55264E+03 -2.27612E+03  1.08565E+03  3.12681E+03 -2.63480E+03  3.52679E+03 -1.42672E+03 -3.42402E+03
  3.55744E+03 -3.86851E+03  9.58025E+03 -2.33678E+03  7.79429E+03  6.21288E+03  5.14599E+03  9.59830E+03
 -7.19924E+03  1.52498E+04 -9.90029E+03  9.18996E+03 -1.80206E+04  7.26478E+03 -8.17298E+03 -7.97579E+03
 -1.19476E+04 -7.08716E+03 -1.84793E+03 -7.90716E+03  1.76774E+03 -7.75193E+03  2.85423E+01 -2.78929E+03
  1.93954E+03  8.56383E+02  6.81255E+03  2.01726E+03  4.09870E+03 -3.07023E+03  5.69764E+03  5.86903E+03
  6.03193E+03  4.48974E+03 -7.59696E+02  8.25017E+03  7.56081E+02  3.97307E+03 -7.32658E+03  6.73200E+03
 -9.14218E+03 -4.20162E+03 -9.05834E+03 -7.76268E+03  5.51879E+01 -8.41716E+03  1.99788E+03 -8.91482E+03
  1.14177E+04 -6.54644E+03  1.15914E+04 -1.52681E+02  8.56440E+03  7.46518E+03  5.15111E+02  1.53528E+04
 -2.49812E+03  9.07341E+03 -1.16473E+04 -9.73578E+02 -1.45506E+02 -2.14057E+03  3.13775E+02 -1.15970E+03
 -3.04967E+03 -9.64851E+01 -4.68304E+02 -5.96063E+03 -1.58171E+03  1.95933E+03 -7.41096E+03 -3.79212E+03
 -1.10876E+03 -3.25877E+03  5.64284E+02 -1.12280E+04  3.65387E+03 -5.89017E+03  1.33948E+04 -3.97845E+03
  9.79600E+03  4.82980E+03  3.44693E+03  7.01719E+03 -9.08787E+02  1.00747E+04 -1.44489E+03  1.10743E+03
 -4.10539E+03 -7.18562E+03 -3.61026E+03 -1.26161E+02 -3.74910E+03 -1.04469E+04 -3.31851E+02 -5.43517E+03
  7.96071E+02 -1.56149E+03  6.64088E+03  7.60769E+02  8.90426E+02  5.70804E+03  6.15492E+03 -2.63036E+03
  2.30654E+03  1.47679E+03  4.47378E+03 -2.60083E+02  4.24991E+03  5.85158E+03  2.08374E+03  6.10118E+03
  3.42346E+02  7.58118E+03 -6.04825E+03  3.21970E+03 -6.68598E+03  9.88123E+02 -8.14243E+03 -2.82680E+03
 -8.10568E+03 -1.12371E+04  3.02412E+03 -4.98093E+03  3.49569E+03 -9.22873E+03  5.99691E+03 -2.79652E+03
  5.70356E+03  9.97643E+02  5.79092E+03  4.77875E+03 -2.39596E+03  3.29471E+03 -4.84802E+03  1.82566E+02
  9.91150E+02 -4.43593E+03  2.42650E+03 -6.70553E+03  1.85867E+03 -4.14164E+03  8.08648E+02  8.63220E+02
 -5.30871E+02 -1.09242E+03  2.81849E+03 -2.44673E+03  3.05361E+03 -9.12286E+02  2.35336E+03 -3.42169E+03
  8.56002E+02 -3.95140E+03 -3.30947E+02  2.02160E+03  2.50790E+03  4.77219E+03  1.95205E+03  8.21357E+03
 -2.49578E+03  4.02948E+03 -8.80668E+02  1.08182E+03 -6.54070E+03 -4.42300E+03 -3.38555E+02  9.49528E+02
 -1.17095E+03 -2.27264E+02  2.42070E+03 -3.40144E+03 -2.35265E+03 -6.78672E+02  4.21549E+02  4.58666E+03
 -3.81030E+03  3.82601E+03 -3.79290E+03 -2.16342E+03  4.52339E+02 -3.21845E+03  4.77658E+03 -7.23139E+02
  1.86328E+03  7.44578E+01  1.70735E+03  1.23288E+03 -7.07828E+02  3.81809E+03 -4.91765E+01 -2.37740E+01
  4.93967E+03 -1.78712E+03  1.02941E+02 -7.13135E+02 -8.57674E+02 -7.75458E+03  2.75205E+03 -1.88201E+03
  3.60651E+03  2.29442E+03  8.67924E+03  1.83479E+03  3.54386E+03  3.77176E+03 -1.41052E+03  4.54205E+03
 -3.20283E+03  2.59732E+03  2.52429E+03 -2.66525E+03 -1.74819E+03 -1.35648E+03 -1.89864E+03 -3.03286E+03
  1.16965E+03 -1.43134E+03 -3.82465E+03  6.78163E+03 -2.09588E+02  4.61875E+03 -2.54555E+03 -1.78321E+02
 -1.66853E+03  1.61496E+03 -8.10300E+03 -1.24253E+03  4.60233E+01  1.69303E+03  1.43682E+03 -4.49032E+03
 -4.51119E+03  4.00535E+03 -4.31876E+03 -1.29543E+03 -1.72795E+03  5.16608E+03 -3.68536E+03 -3.31519E+03
 -2.69285E+03 -7.25660E+03  2.45274E+03 -2.19493E+03  3.83763E+03  9.68071E+01  7.84559E+03 -2.53670E+03
  5.42913E+03 -3.40071E+03  4.83461E+03  4.87439E+03 -9.11454E+02  5.10378E+03 -3.82298E+03  1.45894E+03
 -9.65133E+03  4.40444E+03 -1.21223E+03 -1.75244E+03 -2.21476E+03  1.43839E+03  5.36257E+01  1.10478E+03
 -5.97722E+03 -3.04721E+03 -1.30665E+03  3.77495E+03 -2.83769E+03  3.78557E+03 -1.35108E+03  1.14403E+03
 -1.12065E+03  3.23554E+03 -1.74264E+03  6.32964E+02  4.30230E+03  6.95633E+03  6.74730E+03  2.95039E+03
 -1.15213E+04 -8.74856E+02 -7.38255E+03  6.89477E+02 -5.07593E+03 -2.41603E+03 -4.72633E+03 -1.83608E+03
  1.61162E+03 -1.91861E+03 -2.75905E+03 -3.22389E+03 -5.16586E+02 -2.46538E+03  1.03781E+03  1.61945E+03
 -3.98397E+03  3.10216E+03  1.42176E+03 -2.87306E+03  9.17461E+02 -1.35834E+03  8.44418E+02 -3.38154E+03
  4.22022E+03  3.61629E+03  2.32103E+03  2.09907E+03  5.97468E+02  1.29650E+03 -2.24766E+03  1.69123E+03
 -1.40130E+03  2.35077E+03 -4.34498E+03  6.96408E+02  2.13230E+02 -7.98327E+03  4.46306E+03 -2.20362E+03
 -5.27835E+02  5.29821E+02  3.45736E+03  1.75917E+02  5.85139E+03 -1.45458E+03 -1.61345E+02  3.47580E+03
  3.44223E+03 -3.17925E+01  4.54944E+03  1.60142E+03 -2.82489E+03  3.10105E+03 -1.46449E+03  5.68506E+02
  3.65609E+03  2.06516E+03  5.64191E+02 -3.64021E+02 -3.54874E+03  1.35887E+03 -2.51945E+03 -2.20976E+03
 -6.93853E+02  7.14599E+02  5.60263E+02 -2.76823E+03 -4.34937E+03 -4.52965E+03  3.34576E+03 -5.69724E+02
  1.64501E+03 -8.27537E+02 -1.19418E+03  4.32901E+03 -3.90667E+03  1.04992E+04 -1.88872E+03  4.01563E+03
