 $NMID ID='MM_0lb_SNR50_12hz_g40_8.RAW', FMTDAT='(8E13.5)'
 TRAMP=1., VOLUME=1. $END
  3.10362E+05  8.30538E+02  3.36603E+05  2.52037E+05  8.75904E+04  3.35959E+05 -1.32724E+05  2.54093E+05
 -1.94069E+05  8.73951E+04 -1.16024E+05 -3.30623E+04 -3.02217E+03 -4.88729E+04  5.26420E+04 -1.97062E+03
  4.53128E+04  5.45803E+04 -1.70010E+04  7.27686E+04 -5.93270E+04  6.83431E+04 -8.18452E+04  3.38786E+04
 -8.27958E+04 -1.46432E+04 -5.41856E+04 -5.18578E+04 -1.49448E+04 -7.24359E+04  2.66282E+04 -4.75758E+04
  3.73650E+04  5.91411E+02  1.77301E+04  4.59708E+04 -3.44620E+04  4.52895E+04 -6.90464E+04  1.32654E+03
 -5.51364E+04 -5.01624E+04 -3.50079E+03 -7.47350E+04  3.50475E+04 -5.64594E+04  4.36850E+04 -1.46844E+04
  4.06000E+04  1.44215E+04  3.36309E+04  2.24878E+04  9.58021E+03  2.70668E+04 -1.61795E+03  2.13896E+04
 -2.85653E+04  1.52988E+04 -1.54649E+04 -1.85696E+02  2.39782E+03 -8.29742E+03  2.01973E+04  1.18714E+04
  6.18608E+03  3.84099E+04 -3.00160E+04  3.34002E+04 -5.96807E+04 -4.39012E+02 -5.30397E+04 -4.47019E+04
 -8.89445E+03 -6.44503E+04  3.77967E+04 -4.34433E+04  5.67729E+04 -4.65770E+03  3.85605E+04  3.13292E+04
 -7.61707E+03  3.77537E+04 -2.71113E+04  1.77160E+04 -2.87718E+04  6.08995E+02 -1.94909E+04 -1.08097E+04
 -7.29427E+03 -1.09872E+04  4.57477E+03 -2.37379E+04  6.50287E+03 -2.85199E+04  1.56083E+04 -1.05650E+04
  1.25235E+04  6.51161E+03 -6.75743E+03  1.27615E+04 -1.84140E+04 -2.35997E+03 -8.55697E+03 -3.58775E+04
  2.33131E+04 -4.64016E+04  4.96792E+04 -1.85919E+04  3.94495E+04  2.11881E+04  1.89213E+04  4.38907E+04
 -1.49570E+04  2.62745E+04 -2.28917E+04  3.42986E+03 -1.12487E+04 -2.19623E+04  2.51444E+04 -3.23426E+04
  3.78313E+04 -1.07642E+04  4.17586E+04  2.22587E+04  1.98992E+04  4.82016E+04 -3.33466E+03  5.06970E+04
 -3.55505E+04  3.59636E+04 -3.88335E+04  1.35153E+04 -4.33268E+04 -1.29011E+04 -2.65354E+04 -3.88983E+04
  1.29417E+04 -3.34427E+04  3.23999E+04 -1.60893E+04  3.03704E+04  9.07808E+03  6.19871E+03  1.88075E+04
 -1.76204E+04  1.05616E+04 -9.52895E+03 -7.35393E+03  8.27104E+03 -1.22946E+04  1.76969E+04  4.88308E+03
  1.31942E+04  2.23235E+04 -4.42579E+03  2.40638E+04 -2.18401E+04  1.11008E+04 -2.69966E+04 -6.09432E+03
 -1.94399E+04 -1.48249E+04 -5.42594E+03 -2.00536E+04  8.85932E+03 -2.10281E+04  1.96114E+04 -2.22382E+04
  2.41081E+04 -1.06930E+04  3.13317E+04  2.10463E+02  2.73518E+04  2.10075E+04  3.35470E+03  3.71898E+04
 -1.63638E+04  3.72147E+04 -2.91239E+04  1.40740E+04 -1.60327E+04 -8.41991E+03 -7.80567E+03 -1.43669E+04
  1.81273E+03 -3.53353E+03 -7.40397E+03  1.10644E+04 -2.21238E+04  1.07185E+03 -1.52893E+04 -7.75873E+03
 -5.37447E+03 -2.28606E+04  7.85199E+02 -2.55302E+04  2.09173E+04 -2.04764E+04  2.57850E+04 -2.00441E+03
  1.25744E+04  1.15678E+04  8.96174E+02  1.65668E+04 -1.42049E+04  1.09480E+04 -1.69797E+04 -4.36906E+03
 -1.22803E+04 -2.11936E+04  2.69130E+02 -2.63992E+04  1.17730E+04 -2.05364E+04  1.72324E+04 -8.76762E+03
  1.82065E+04  6.16674E+03  9.84076E+03  7.16231E+03  1.01483E+04  1.16688E+03  7.32937E+03 -2.75547E+03
  2.06467E+04  9.91187E+02  2.01346E+04  1.71392E+04  1.61157E+04  3.13735E+04 -6.34511E+03  3.86717E+04
 -1.98860E+04  3.41280E+04 -3.62517E+04  9.24311E+03 -4.19852E+04 -4.24705E+03 -2.41947E+04 -1.98925E+04
 -1.39597E+04 -2.94824E+04  6.82967E+03 -2.88184E+04  2.62433E+04 -1.37631E+04  1.72667E+04  3.53706E+03
  5.23473E+03  1.59868E+04 -1.19289E+04  1.42369E+04 -1.60271E+04  7.53387E+03 -1.02786E+04 -1.19157E+04
 -2.54961E+02 -1.97274E+04  4.35498E+03 -1.24091E+04  1.40338E+04 -1.43265E+03  3.54464E+03  7.39982E+03
 -8.64137E+03 -4.29772E+03 -5.79906E+03  1.00005E+03  1.08645E+03 -1.29323E+04  1.19834E+04 -1.49373E+04
  2.22162E+04 -6.94937E+03  1.80058E+04  4.91728E+03  2.23483E+04  1.61868E+04  1.17515E+04  2.11142E+04
 -5.38110E+03  2.46263E+04 -1.43310E+04  1.66163E+04 -1.64952E+04  1.42349E+03 -6.90931E+03 -3.10516E+03
 -1.50213E+03 -4.27277E+03 -3.83450E+03 -4.08525E+03 -6.08657E+03  3.81838E+03 -5.51475E+03  5.98497E+03
 -9.23215E+03  3.09319E+02 -1.12550E+04 -7.96870E+03 -3.52627E+03 -1.40584E+04  1.75527E+03 -1.15594E+04
  1.31321E+04 -2.72409E+03  9.43197E+03  3.13166E+03  1.23303E+03  3.06101E+03 -2.51133E+03  4.59365E+03
 -4.71092E+03 -9.17535E+03  6.74267E+03 -1.06651E+04  7.47007E+03 -1.36220E+04  9.29973E+03 -7.48054E+03
  1.83184E+04  4.30359E+03  1.43723E+04  9.71099E+03  4.96218E+03  1.05484E+04 -9.26429E+03  1.49346E+04
 -1.24917E+04 -1.82888E+03 -5.32176E+03  7.72410E+02  3.89861E+03 -4.34580E+03  7.08617E+03  2.73294E+03
  3.98991E+03  6.35170E+02  2.21520E+01  7.82113E+03 -9.91293E+03  8.20174E+03 -1.72988E+04 -3.18657E+02
 -9.26370E+03 -5.45858E+03 -1.23239E+02 -7.76453E+03  4.16819E+03 -7.37673E+03  9.44550E+03  3.75559E+03
 -2.74114E+03  8.21020E+03 -1.00282E+04  1.27484E+04 -1.05434E+04  5.19191E+03 -1.77085E+04  1.10469E+02
 -8.99372E+03 -7.80385E+03  3.71223E+03 -1.08307E+04  1.11826E+04 -1.48146E+04  8.57410E+03 -1.17779E+02
  4.12680E+03  6.69852E+03  2.93699E+02  8.16689E+03 -1.12111E+04  7.49541E+03 -9.79624E+03 -5.88384E+03
 -7.83053E+03 -1.38426E+04 -3.09152E+03 -5.77003E+03  4.00197E+03 -9.13658E+03  3.09691E+03  4.03586E+03
  4.59649E+03  1.40320E+03  3.10402E+02  1.92142E+03  2.13387E+03 -7.22998E+03  4.66760E+03 -2.25222E+03
  6.70725E+03 -3.63696E+03  8.11792E+03  2.26289E+03  1.23564E+04  5.89505E+03  7.15011E+03  1.60851E+04
  5.63007E+02  2.00392E+04 -1.82998E+04  1.43591E+04 -1.57044E+04  3.07003E+02 -1.45859E+04 -4.30738E+03
 -1.01819E+04 -1.73471E+04 -3.38930E+03 -8.72277E+03  1.90059E+03 -3.77763E+03  4.15245E+03 -5.57637E+03
  1.72864E+03 -4.75026E+03  4.73516E+03 -1.19927E+03 -1.32568E+03  4.52243E+03  2.81833E+03 -1.86631E+03
  1.21386E+04 -4.18374E+03  6.13054E+03  4.84877E+03 -6.24111E+03  4.72166E+03 -2.75861E+03  6.44002E+03
 -2.55940E+03 -3.66366E+03 -3.88610E+03 -8.22618E+03 -8.77061E+02 -1.43574E+04  2.16877E+03 -7.13900E+03
  9.80886E+03 -6.56729E+03  1.63596E+04  5.45359E+02  1.26554E+04  1.08346E+04  4.13348E+03  1.14397E+04
 -7.16781E+03  7.39825E+03 -1.03130E+04  3.32373E+03 -7.41130E+03 -1.27334E+03  1.03541E+03 -1.07552E+03
 -4.02787E+02 -2.34596E+02 -5.57706E+03 -2.14032E+03 -9.38767E+03  1.65734E+03 -2.23064E+03 -2.58983E+03
 -3.38301E+03 -6.10615E+03  2.14156E+03 -8.76622E+03  9.79479E+01 -7.62987E+03  1.20997E+04 -8.76839E+02
  8.37240E+03  4.26488E+03  7.26939E+03  1.12247E+04 -1.36548E+03  9.41277E+03 -3.32839E+03  6.36217E+03
 -1.01477E+04  8.59343E+02 -7.92122E+03 -9.94813E+03 -3.93316E+03 -6.64129E+03  3.61300E+03 -5.55793E+03
  2.81071E+03  1.33559E+03  5.87234E+03 -5.12852E+02  4.27787E+03  5.67467E+03 -2.24978E+03  1.58246E+03
  4.49757E+03 -2.16062E+03  4.35525E+03 -3.28378E+03 -4.87439E+03 -6.16132E+02  1.28147E+03  4.91341E+03
 -1.39609E+03  9.31839E+03 -7.23689E+03  8.44134E+03 -1.04064E+04  9.42864E+03 -6.95370E+03 -2.03453E+03
 -1.10115E+03 -8.97118E+03 -1.36510E+03 -9.29994E+03  1.26369E+03 -7.16965E+03  7.35300E+03 -9.84746E+02
  9.70670E+03  4.93516E+03 -1.49895E+03  3.58611E+03 -2.23440E+03  1.14276E+03 -3.61574E+03 -1.28935E+03
 -3.99770E+03 -7.09326E+03  4.42068E+03 -3.09824E+03 -1.25211E+03 -2.21336E+03  3.45040E+03 -2.30760E+02
  2.57761E+03  4.16493E+02 -3.58434E+03  3.83967E+03 -2.04122E+02  5.10210E+03 -4.79065E+02  9.91475E+02
  4.06531E+03 -3.00098E+03  6.64163E+03  1.20811E+03  6.43954E+03  3.39068E+03 -3.75473E+03  8.50426E+03
 -1.48616E+03  3.75871E+03 -2.27288E+03  1.82478E+03 -6.72803E+03 -5.49005E+03 -2.00411E+03 -4.37553E+03
  3.13167E+03 -3.96265E+03  6.73036E+03 -3.16646E+03  4.63569E+03  1.68512E+03 -3.92059E+03  7.97924E+02
 -3.96973E+02 -6.70990E+02 -5.48622E+03 -7.38721E+02 -2.09178E+03 -3.41680E+03  3.25481E+03 -4.19404E+02
  4.49213E+03  1.08628E+01  9.73986E+03  2.75979E+03  3.96246E+03  1.74048E+03 -1.79298E+02  7.92943E+03
  6.23276E+02  5.99433E+03 -4.32052E+03  1.94223E+03  4.23124E+03 -4.52267E+03  3.23893E+03 -6.39518E+03
  6.14725E+03  3.86731E+03  7.17520E+03 -2.13939E+03  1.13211E+03  5.49119E+03  1.95577E+03  7.85340E+03
 -1.35848E+03  7.18878E+03 -7.08607E+03 -5.65195E+03  2.36324E+03 -5.58506E+03 -4.54354E+02  4.91557E+03
  4.88989E+03  2.13211E+03  5.15855E+03  9.19993E+02 -1.42929E+02  3.04971E+03 -3.65181E+03  6.89582E+03
 -3.15566E+03  5.05422E+02 -6.29635E+03 -6.14546E+02 -1.84343E+03  9.88529E+02 -4.93004E+03 -2.17275E+03
 -8.80183E+02  2.32950E+03 -4.46577E+03  4.38101E+03 -1.05891E+04  1.41121E+03 -6.52536E+03  1.30299E+03
 -4.78002E+03 -1.10269E+04 -3.82345E+02 -6.67661E+03  9.04299E+03 -5.62010E+03  1.20225E+04 -6.22202E+03
  7.59280E+03  1.92323E+03  1.11718E+04  8.83577E+03 -2.31767E+03  5.86441E+03  1.01757E+03  7.04931E+03
 -2.42485E+03  8.70370E+02 -3.17855E+02 -9.15910E+01 -1.87096E+03  2.20679E+03  1.53875E+03  3.40894E+03
 -2.14599E+03  9.18514E+03 -2.03320E+03 -2.42092E+02 -1.87961E+00 -5.59503E+03 -2.97893E+03 -8.67248E+01
  2.03351E+03 -7.36926E+03 -8.40551E+02 -2.36921E+03  5.12911E+03  1.69495E+03 -2.25269E+03  8.27098E+03
 -4.76493E+03  1.00144E+04 -4.97941E+03 -2.88283E+03 -8.19866E+03  1.85775E+03 -5.36847E+03 -5.87068E+03
 -1.41735E+03 -5.63976E+03  4.60971E+03 -1.30858E+03  3.39109E+03 -8.76826E+03 -8.50447E+02  4.09266E+02
 -1.05958E+04  5.69994E+03 -2.80593E+03 -6.72296E+02 -4.76208E+02 -5.20763E+02 -1.60264E+03 -1.88222E+03
  2.28962E+03 -2.63068E+03  5.56947E+03  1.59279E+03 -1.15723E+03  4.31409E+03  1.23426E+03  3.97237E+03
 -3.03691E+03  3.87608E+03 -3.71377E+02 -3.33478E+02 -1.04825E+04  2.98544E+03 -1.21555E+03 -5.45459E+03
  4.49647E+03 -9.96296E+03  6.23843E+03 -1.34708E+03  3.99490E+03  3.00277E+03 -2.39596E+03  3.15885E+03
  2.13083E+03  9.67320E+01 -6.01561E+03  2.79220E+03 -2.27659E+02  4.02346E+03  1.34117E+03  1.58785E+02
  4.71476E+03  1.51188E+03  4.84504E+03  2.88562E+03  1.86297E+03  1.31777E+02 -5.05505E+02 -2.57262E+02
 -3.61434E+03 -1.57276E+03  4.15054E+03 -7.63149E+03  1.22864E+03 -5.02769E+03  5.54026E+03  1.18492E+03
 -1.63125E+02  8.87784E+02  9.69834E+02  1.22636E+03 -4.61158E+03  5.30832E+03  2.73597E+02  5.92182E+03
