 $NMID ID='MM_0lb_SNR50_20hz_g55_59.RAW', FMTDAT='(8E13.5)'
 TRAMP=1., VOLUME=1. $END
  3.11762E+05  1.61012E+03  3.41417E+05  2.46631E+05  8.21027E+04  3.36819E+05 -1.34717E+05  2.49317E+05
 -1.88490E+05  8.46332E+04 -1.12807E+05 -3.07864E+04  4.41791E+01 -4.63085E+04  5.71861E+04 -2.00435E+03
  3.39428E+04  5.20020E+04 -1.71557E+04  7.40679E+04 -6.03291E+04  6.15591E+04 -7.77183E+04  3.23303E+04
 -7.79087E+04 -1.32764E+04 -5.56388E+04 -4.86556E+04 -1.67763E+04 -6.75537E+04  2.72588E+04 -4.36045E+04
  4.06088E+04  3.37494E+03  1.16780E+04  4.94243E+04 -3.48456E+04  4.74162E+04 -6.84107E+04  3.74821E+02
 -5.28945E+04 -5.40959E+04 -5.51514E+03 -7.54980E+04  3.33688E+04 -4.99702E+04  4.74046E+04 -1.65514E+04
  4.30632E+04  8.68561E+03  2.95273E+04  2.04996E+04  1.54811E+04  3.15272E+04 -4.28508E+03  2.60260E+04
 -1.79628E+04  1.35989E+04 -1.74460E+04 -4.50112E+03  5.55422E+03 -3.13347E+03  2.31017E+04  1.24088E+04
  4.86153E+03  3.34143E+04 -3.29204E+04  3.21309E+04 -6.23218E+04  2.22203E+03 -5.76799E+04 -4.14515E+04
 -6.89444E+03 -5.83374E+04  3.81625E+04 -4.22426E+04  5.71826E+04 -7.17434E+02  2.99048E+04  3.08523E+04
 -1.16801E+04  2.62367E+04 -2.80867E+04  1.46084E+04 -3.18747E+04 -9.13528E+03 -1.45490E+04 -1.15074E+04
 -3.70332E+03 -1.12337E+04 -1.48779E+03 -1.46101E+04  3.75694E+03 -2.55256E+04  1.36617E+04 -1.66563E+04
  1.47205E+04  4.23213E+03 -6.36161E+03  1.29436E+04 -1.95353E+04 -3.30708E+03 -9.91238E+03 -3.25861E+04
  2.00840E+04 -3.87353E+04  4.34916E+04 -1.97431E+04  4.07860E+04  1.73728E+04  1.66688E+04  4.70035E+04
 -1.50661E+04  2.84096E+04 -2.15383E+04 -3.22268E+03 -1.09884E+04 -2.74102E+04  1.87027E+04 -3.23032E+04
  3.45786E+04 -8.46910E+03  2.90942E+04  2.23995E+04  1.38330E+04  3.50249E+04 -1.03375E+04  4.61584E+04
 -3.07434E+04  2.85117E+04 -3.54138E+04  6.59902E+03 -3.68827E+04 -1.41036E+04 -2.08180E+04 -3.30295E+04
  6.53970E+03 -3.31998E+04  3.07814E+04 -1.25537E+04  2.56830E+04  8.03792E+03  2.80114E+03  1.67772E+04
 -1.28491E+04  3.62519E+03 -1.10112E+04 -2.93931E+03  4.96425E+03 -1.33817E+04  1.40954E+04  7.42495E+03
  1.58095E+04  2.15330E+04 -1.06918E+04  2.30874E+04 -2.59719E+04  1.05719E+04 -2.95099E+04 -1.29065E+04
 -1.64325E+04 -1.51707E+04 -7.78432E+03 -1.33763E+04  7.11709E+03 -1.45058E+04  1.18133E+04 -9.74972E+03
  2.17361E+04 -1.27578E+04  2.85740E+04  6.51027E+03  1.74114E+04  1.46624E+04  2.91080E+03  3.29249E+04
 -2.04338E+04  2.86352E+04 -2.61371E+04  9.49524E+03 -1.99371E+04 -1.15401E+04 -3.06578E+03 -1.17393E+04
  4.06454E+03 -3.03074E+03  7.48192E+02  7.21845E+03 -1.50871E+04  8.13624E+03 -1.13650E+04 -8.16810E+03
 -6.34017E+03 -1.31017E+04  1.20270E+03 -2.43105E+04  1.29314E+04 -1.58844E+04  1.22328E+04 -1.97428E+03
  7.53411E+03  1.26158E+04  1.84539E+03  1.80408E+04 -1.25711E+04  1.06422E+04 -1.39950E+04 -6.14642E+03
 -1.19978E+04 -1.35961E+04 -4.18516E+03 -1.45537E+04  1.13042E+04 -1.37997E+04  1.28840E+04 -8.59419E+03
  1.58109E+04  2.03192E+03  6.73067E+03  1.73995E+03  6.14941E+03 -5.68583E+02  5.03452E+03  2.13840E+03
  1.50551E+04  1.55729E+03  1.21064E+04  1.34814E+04  9.78674E+03  2.79575E+04 -2.47203E+03  2.78875E+04
 -1.43930E+04  1.86750E+04 -2.27418E+04  7.74028E+03 -2.77962E+04 -1.74360E+03 -2.22447E+04 -1.21588E+04
 -1.07428E+04 -2.48905E+04  4.46074E+03 -1.76502E+04  1.30683E+04 -1.33388E+04  1.77558E+04  3.97352E+03
  3.21491E+03  1.44129E+04 -1.08800E+04  9.68820E+03 -1.22680E+04  2.72579E+03 -1.11462E+04 -9.71710E+03
  9.56416E+02 -1.38723E+04  8.35228E+03 -1.19028E+04  7.11780E+03 -2.82092E+02 -1.69850E+03  7.24641E+03
 -7.71739E+03  3.10878E+03 -7.53491E+02 -4.17128E+03 -1.20292E+03 -1.20497E+04  1.10802E+04 -1.27708E+04
  1.02729E+04 -6.71570E+03  1.26497E+04  3.19034E+03  8.60545E+03  8.78166E+03  4.52206E+03  1.67710E+04
 -5.13817E+02  1.82256E+04 -1.13669E+04  1.43672E+04 -1.32244E+04  2.96131E+03 -1.01671E+04  2.10127E+03
 -6.09578E+03 -2.40771E+03  2.48776E+02  2.59132E+03 -4.09486E+03  1.32810E+03 -4.14153E+03  4.57217E+03
 -4.89180E+03  4.53301E+01 -9.89037E+03 -8.69676E+03 -3.67108E+03 -1.27766E+04  4.67912E+03 -8.67881E+03
  7.42831E+03 -7.40501E+03  1.58837E+03  3.18586E+03 -6.48399E+02 -4.78107E+02 -1.78275E+03  2.66391E+03
 -6.43518E+02 -4.83160E+03 -1.03626E+03 -4.60644E+03 -4.85217E+02 -7.81943E+03  1.02831E+04 -5.30527E+03
  1.00841E+04  2.96286E+03  3.07115E+03  2.49947E+03  4.09438E+03  4.12936E+03 -4.73308E+03  1.07256E+04
 -5.90199E+03  4.68986E+03 -4.18990E+03 -1.10121E+03  2.87402E+02 -3.22577E+03  5.17470E+03 -1.51521E+03
  4.53999E+03  3.28886E+03  2.01371E+01  5.33578E+03 -2.26751E+03  4.65034E+03 -8.94181E+03  3.44091E+03
 -5.87811E+03 -1.88966E+03  1.07490E+03 -6.50922E+03  5.32549E+03  1.49348E+03  5.27349E+03  6.68454E+02
  2.90604E+03  4.28509E+03  9.13589E+02  7.61100E+03 -3.78581E+03  7.08921E+03 -7.53243E+03  1.72424E+03
 -1.68140E+03 -4.27110E+03  3.73749E+03 -4.57596E+03  6.19138E+03 -2.58417E+03  4.86610E+03  2.83215E+03
  4.24853E+03  5.85652E+03  1.87492E+03  3.82072E+03 -2.68271E+03  3.78550E+03 -4.03318E+03  1.12595E+03
 -2.09252E+03 -5.45151E+03  4.50070E+03 -3.84819E+03  2.36717E+03 -2.56712E+03  1.30027E+03 -2.14645E+03
  8.01991E+03 -3.15043E+03  1.35999E+03  4.49402E+02  5.44656E+02  2.02377E+03 -3.07330E+03  3.45184E+03
  5.45122E+03 -9.54942E+02  6.89009E+03  1.48053E+03  2.67926E+03  2.07171E+03  8.15372E+03  5.77470E+03
  9.47944E+01  1.08813E+04 -7.39665E+03  6.65576E+03 -7.96608E+03 -3.56199E+03 -4.28396E+03 -3.26052E+03
 -4.35891E+03 -3.82099E+03 -8.66791E+02 -1.59068E+03  3.92584E+02 -3.17624E+03 -1.35263E+02 -2.39811E+03
 -3.76570E+02 -1.20661E+03  5.31098E+03 -2.39889E+03  2.79664E+03  2.49556E+02  3.13537E+03 -1.67327E+03
  5.73487E+03  2.36412E+03  7.25335E+02  2.20149E+03 -2.28997E+03  4.12425E+03 -2.55063E+03  2.04695E+03
 -2.15429E+03 -3.35251E+03 -1.66167E+03 -4.72844E+03  1.83292E+02 -7.08697E+03  4.46421E+03 -5.75865E+03
  3.93882E+03 -3.37921E+03  6.93839E+03 -3.30849E+03  6.20704E+03 -1.90244E+03 -3.53427E+02 -1.65939E+02
  2.31943E+03  2.66873E+03 -3.71020E+03  3.44253E+03 -4.38035E+02  1.08018E+03 -4.41825E+03  9.62836E+02
  2.65094E+03 -1.48811E+03 -6.21569E+02  1.49461E+03 -4.27512E+02 -1.32442E+03 -3.56027E+03 -4.51235E+02
 -3.99426E+03 -2.93853E+03  3.34393E+03 -6.07537E+03  3.42349E+03 -4.86450E+03 -3.71331E+02 -5.38854E+03
  4.11664E+03  1.34385E+03  5.91822E+03  1.61931E+02  3.02089E+03  1.31099E+03 -6.96728E+02  1.75542E+03
 -3.28790E+03  3.25242E+03 -9.06725E+02 -3.12060E+03 -2.88607E+03 -4.75913E+02  6.12453E+03 -9.96956E+02
  5.91137E+02 -2.67141E+03  1.03296E+03 -1.66996E+03 -1.09796E+03 -3.41832E+03  2.00272E+03  3.22925E+03
 -2.65068E+03  3.44185E+03  1.78352E+03  3.97350E+03 -2.21423E+02  7.09295E+02  7.82618E+02  4.75935E+03
 -1.94104E+03  3.09744E+03 -1.67250E+03  3.77281E+03 -3.13985E+03  5.48833E+03 -3.97414E+03 -1.39673E+03
 -9.99216E+02 -2.19757E+03 -2.33227E+03 -2.29232E+03  1.93934E+03 -9.24286E+01 -2.03830E+03 -3.70169E+03
  3.95760E+02  2.67999E+03  8.32723E+02  8.00139E+02  4.26641E+03 -1.09739E+02 -2.47973E+03  1.36179E+03
 -2.97643E+03 -4.64837E+03 -1.93324E+02 -1.96704E+02 -2.29794E+03 -8.74062E+02  1.73878E+03  6.12385E+02
  3.23178E+03  1.15431E+03  2.49420E+03 -1.61144E+03  8.11388E+02  2.72511E+03 -5.86165E+02  1.92573E+03
 -2.16475E+03 -4.48632E+03 -2.90241E+03  8.05563E+02  2.23942E+03 -1.04448E+02  9.18830E+02  4.82955E+03
 -1.10230E+03  2.16259E+03 -5.37546E+03  1.93197E+03 -9.45496E+02 -1.24515E+03 -4.09023E+03 -7.73451E+02
  5.42865E+02 -3.28204E+02  5.29959E+03 -2.21437E+03 -1.56587E+03  1.36596E+03 -1.68660E+03  2.49680E+03
  7.81962E+02 -1.20058E+02 -9.14561E+02 -4.90887E+03  1.06305E+01 -5.15833E+02 -1.47321E+03 -4.98845E+03
 -1.39630E+03 -1.06486E+03 -5.42936E+03 -2.47397E+02 -1.26404E+03 -3.90285E+03 -4.28020E+02 -3.16806E+03
 -1.77819E+03  2.47085E+03 -1.61846E+03 -1.41112E+03  5.52694E+02 -2.39573E+03  5.21176E+03  2.96220E+03
  2.91391E+03 -2.68076E+03 -1.92949E+03  2.19995E+03  5.93858E+03  2.11241E+03  3.47752E+03  1.63040E+03
  6.82460E+02 -1.16953E+03  2.57348E+02  1.28797E+03 -2.38993E+02 -2.61728E+03 -3.62210E+02 -8.80339E+02
 -3.69620E+03  1.38529E+02 -4.11566E+03  2.64135E+03 -2.04339E+03  4.92469E+03 -3.09942E+02  6.43393E+03
  3.45871E+03  1.48750E+03 -1.52760E+03 -9.73134E+02 -8.40138E+02  1.85580E+03  5.24054E+02  1.07726E+03
  7.75810E+02  1.60441E+03 -5.14986E+02  1.13190E+03 -3.65564E+03 -6.39649E+03 -1.04691E+03 -1.90111E+03
 -5.11424E+01  4.11487E+02 -1.45747E+03 -1.26844E+03  9.05420E+02 -2.47045E+03 -1.52924E+02  4.09914E+02
  7.66616E+00  4.03003E+03  9.73567E+02  1.69581E+03  5.07537E+02 -1.71598E+02  3.07864E+03 -4.38586E+01
 -6.08128E+02  1.87472E+03 -4.87441E+03 -6.55823E+02  1.49816E+03 -2.86505E+01 -1.28283E+03 -1.22580E+02
 -5.06382E+02  3.00867E+03  4.32873E+02  4.04528E+03 -4.16554E+03  4.42478E+02 -1.16399E+03 -3.38375E+03
 -6.98209E+00 -2.22873E+03  3.88382E+03 -7.78291E+02  2.63978E+03 -1.54790E+03 -2.97192E+03  2.06868E+03
  1.51224E+03  2.61164E+02 -1.69307E+03 -7.83689E+02  1.26589E+03 -3.45412E+02 -1.26744E+03 -2.06650E+03
  1.79992E+03 -2.48572E+03 -1.50906E+03 -1.72632E+03  2.86869E+02 -5.73608E+03 -4.46549E+03  2.05122E+03
  5.62521E+02  3.04472E+00  3.74514E+02 -2.26875E+03 -5.71424E+02 -8.55047E+02  2.06723E+03 -2.58089E+02
  5.40322E+03  2.08215E+03  1.44367E+03  2.05796E+03 -2.00634E+02 -3.77629E+03 -1.39083E+02 -1.97863E+03
  1.31933E+03 -1.69944E+03 -7.47702E+00 -1.04404E+03 -1.50983E+03 -7.07857E+02 -9.52450E+02 -1.39259E+03
  3.00004E+03  6.00221E+02 -1.33047E+02 -1.36263E+03 -1.20762E+03 -1.03986E+03  2.31175E+03 -2.91272E+03
  8.95455E+02 -2.26695E+02 -2.30824E+03  3.24604E+03  4.74342E+02 -3.23887E+02  5.03964E+03  1.57111E+03
 -1.32474E+03  1.60441E+03 -9.05671E+02  6.64402E+03 -1.99179E+03 -1.39146E+02 -2.93297E+02 -6.78810E+02
  1.64166E+03 -2.33758E+03  1.91895E+03  3.77156E+03  1.93684E+03 -5.13909E+03  2.23548E+03  4.79680E+01
  3.21531E+03  6.67538E+03 -1.90536E+03  5.09334E+02 -2.13992E+03 -1.28798E+03  1.66491E+03  1.79997E+03
