 $NMID ID='MM_0lb_SNR50_10hz_g45_67.RAW', FMTDAT='(8E13.5)'
 TRAMP=1., VOLUME=1. $END
  3.10217E+05 -1.19080E+02  3.34686E+05  2.48712E+05  8.03515E+04  3.40591E+05 -1.25972E+05  2.50724E+05
 -1.85609E+05  8.64281E+04 -1.17822E+05 -2.81573E+04 -2.57095E+03 -5.67306E+04  4.93873E+04  9.51458E+02
  2.98353E+04  5.61491E+04 -1.22653E+04  7.66345E+04 -6.49992E+04  6.47138E+04 -8.01741E+04  2.94194E+04
 -8.44497E+04 -6.04427E+03 -5.57153E+04 -5.57317E+04 -1.68030E+04 -6.97751E+04  3.37890E+04 -4.60652E+04
  3.66741E+04  5.06841E+03  9.96879E+03  5.61669E+04 -3.58043E+04  5.28133E+04 -7.02103E+04 -2.54479E+03
 -5.36273E+04 -5.03900E+04 -7.22106E+03 -7.43210E+04  3.46258E+04 -6.00444E+04  4.87285E+04 -1.76813E+04
  4.46132E+04  9.54857E+03  3.16644E+04  2.20216E+04  1.02888E+04  2.47790E+04 -2.84437E+03  3.17380E+04
 -2.19892E+04  1.14472E+04 -1.89625E+04 -5.20056E+03  9.57158E+03 -6.64550E+03  2.38075E+04  2.29108E+04
  5.30724E+03  3.23117E+04 -3.11520E+04  3.24396E+04 -6.38343E+04  6.02905E+03 -6.25033E+04 -4.45802E+04
 -1.02606E+04 -6.31428E+04  4.13606E+04 -4.86976E+04  6.39146E+04 -4.46381E+03  3.95783E+04  3.41227E+04
 -1.94601E+02  4.60984E+04 -3.40445E+04  2.40310E+04 -3.11740E+04 -3.95364E+03 -1.56539E+04 -1.47354E+04
 -1.08091E+04 -1.30911E+04 -4.13813E+03 -1.63054E+04  1.19186E+04 -1.62692E+04  1.52511E+04 -1.29032E+04
  1.23181E+04  5.59787E+03 -8.24474E+03  1.10726E+04 -2.93124E+04 -7.25921E+03 -8.90342E+03 -3.34573E+04
  2.50457E+04 -3.97059E+04  5.13082E+04 -1.75279E+04  5.06839E+04  1.61358E+04  1.22042E+04  4.36843E+04
 -1.42001E+04  3.61621E+04 -2.83821E+04 -6.77058E+03 -7.38403E+03 -3.28222E+04  1.21354E+04 -4.43606E+04
  3.87455E+04 -1.51508E+04  4.40470E+04  2.30607E+04  1.66578E+04  5.08974E+04 -1.17304E+04  5.68938E+04
 -3.31421E+04  3.11644E+04 -4.59120E+04  1.08235E+04 -4.24676E+04 -2.06760E+04 -2.59894E+04 -4.27929E+04
  1.22219E+04 -3.97456E+04  3.39720E+04 -1.87446E+04  3.34587E+04  7.80741E+03  9.83055E+03  2.24926E+04
 -1.34272E+04  1.37598E+04 -4.09573E+03 -3.21865E+03  8.76358E+03 -8.21141E+03  2.21966E+04  1.56420E+04
  1.51694E+04  1.96317E+04 -4.84582E+03  2.86118E+04 -1.98321E+04  1.29248E+04 -3.65145E+04 -4.86411E+03
 -2.22392E+04 -1.81929E+04 -8.32270E+03 -2.29683E+04  2.22962E+03 -3.22010E+04  1.93316E+04 -2.46190E+04
  2.55817E+04 -2.01821E+04  3.40977E+04 -2.81296E+03  3.48332E+04  1.76770E+04  8.22919E+03  4.60984E+04
 -1.83168E+04  3.40716E+04 -2.69263E+04  1.55628E+04 -2.18527E+04 -2.77363E+03 -5.89537E+03 -1.45427E+04
  7.40835E+03 -9.03741E+02 -5.80957E+03  4.71545E+03 -1.92047E+04  8.16879E+03 -2.03309E+04 -9.06029E+03
 -1.21730E+04 -2.56991E+04  1.37754E+03 -2.45514E+04  1.31255E+04 -2.49807E+04  2.26628E+04 -1.73147E+03
  1.43516E+04  1.12523E+04 -8.40816E+02  2.58499E+04 -2.14739E+04  1.31265E+04 -2.76242E+04 -6.53827E+03
 -1.69585E+04 -1.66277E+04 -1.83528E+03 -3.12657E+04  1.55895E+04 -2.24943E+04  1.61727E+04 -1.53862E+04
  2.51074E+04 -2.10670E+03  1.35434E+04  4.26904E+03  9.35164E+03 -1.31293E+03  9.88066E+03 -1.60218E+03
  1.95985E+04  3.89457E+03  2.11662E+04  1.65689E+04  1.47099E+04  3.93866E+04 -5.33519E+03  4.15717E+04
 -2.61913E+04  3.24640E+04 -4.36009E+04  1.58135E+04 -4.09180E+04 -8.45520E+03 -3.04447E+04 -2.22069E+04
 -1.33343E+04 -3.43272E+04  1.56298E+04 -3.01891E+04  3.05225E+04 -1.32467E+04  2.47494E+04  7.57937E+03
  8.45972E+03  1.60502E+04 -9.66696E+03  1.45446E+04 -1.76304E+04 -8.37663E+01 -1.43599E+04 -1.55156E+04
  1.86249E+03 -1.87426E+04  7.01877E+03 -1.31522E+04  8.22492E+03 -3.47245E+03  4.43042E+03  1.23794E+04
 -7.87369E+03  8.84869E+03 -6.89916E+03 -8.56031E+03  1.14044E+03 -2.14408E+04 -4.93554E+02 -2.01361E+04
  1.61663E+04 -1.49573E+04  2.09164E+04  2.32351E+03  2.09026E+04  1.24350E+04  1.01987E+04  2.56894E+04
 -7.80157E+03  2.56840E+04 -2.50352E+04  2.12925E+04 -2.13801E+04  1.25894E+04 -9.31088E+03 -5.14363E+03
 -7.67600E+03 -5.16600E+03 -3.82005E+03  2.60007E+03 -7.89325E+03  5.38928E+02 -5.96975E+03 -6.39868E+02
 -9.23877E+03 -4.78262E+03 -1.36324E+04 -1.16297E+04 -1.02474E+04 -1.18851E+04  8.22990E+03 -1.35867E+04
  1.21953E+04 -7.48924E+03  9.94775E+03  8.46712E+03 -2.60885E+02  9.61679E+03 -4.69356E+03  1.02025E+03
 -9.76803E+03 -7.59021E+03 -5.32881E+03 -1.89898E+04  1.14187E+04 -6.06327E+03  2.43340E+04 -1.08298E+04
  2.02229E+04  1.34049E+03  9.65738E+03  1.34622E+04  3.88391E+03  1.70659E+04 -1.56561E+04  2.22287E+04
 -1.48601E+04  8.20958E+03 -4.58494E+03  2.12657E+03  1.39576E+03 -1.46030E+03  8.57800E+03 -2.11157E+01
  7.06710E+03  4.25295E+03  1.65257E+03  1.34420E+04 -6.77056E+03  1.05450E+04 -9.30944E+03  5.07834E+03
 -1.32257E+04 -6.50178E+03 -4.46303E+03 -1.41368E+04  7.88084E+03 -1.33758E+03  8.88345E+03  8.74067E+03
  4.10449E+03  1.62489E+04 -8.18300E+03  1.33707E+04 -1.30746E+04 -1.28884E+03 -1.17380E+04 -5.32465E+03
 -8.87693E+03 -1.55258E+04  5.52342E+03 -2.18051E+04  1.21825E+04 -1.42894E+04  1.35313E+04  3.17592E+03
  8.95207E+03  1.22498E+04  1.28078E+03  1.36466E+04 -9.69251E+03  6.58606E+03 -9.02434E+03  4.19103E+03
 -1.38747E+04 -1.03841E+04 -7.18385E+03 -1.17975E+04  8.83403E+03 -1.06958E+04  7.34756E+03 -3.49769E+03
  6.94171E+03  5.62280E+03  3.60772E+03  4.08859E+03  9.87423E+02 -1.90617E+02  1.66314E+03 -7.23041E+03
  4.64880E+03 -4.55859E+03  1.64157E+04  4.66926E+03  9.93903E+03  1.13056E+04  1.48992E+04  1.93686E+04
 -3.09844E+03  2.61387E+04 -1.49658E+04  1.14771E+04 -2.35855E+04  5.88683E+03 -2.66596E+04 -6.45717E+03
 -7.59866E+03 -1.24478E+04 -9.76874E+03 -1.81289E+04  6.22404E+03 -3.86349E+03 -3.53984E+02 -1.51100E+03
  9.43319E+03 -4.48455E+02  3.25393E+03 -9.34342E+02  1.04544E+04  1.15660E+03  5.28499E+03  1.84252E+03
  1.14256E+04 -5.74339E+02  6.93499E+03  7.79010E+03 -3.37428E+02  1.26723E+04 -1.49072E+04  7.29708E+03
 -9.24844E+03 -5.16425E+03 -5.83395E+03 -1.16072E+04 -4.12279E+03 -1.71748E+04  1.45903E+04 -1.35913E+04
  1.19550E+04 -9.24627E+03  1.89980E+04  3.26864E+02  9.50214E+03  9.41627E+03  3.90500E+03  1.61847E+04
 -6.61193E+03  1.39803E+04 -5.38071E+03  1.05057E+03 -7.23260E+03 -8.32042E+03  4.89367E+02  9.23435E+02
 -7.45176E+03  1.42449E+03  5.48847E+03 -1.49829E+03 -9.12802E+03 -3.44840E+03 -1.13314E+04 -1.08929E+03
 -8.34045E+03 -1.04406E+04 -4.44376E+03 -2.07535E+04  2.83801E+03 -1.34947E+04  1.10640E+04 -2.47251E+03
  1.23330E+04  3.84066E+03  4.77671E+03  7.32937E+03 -1.98801E+03  1.41611E+04 -3.77573E+03  7.36000E+03
 -1.65545E+04  2.38045E+00 -1.07758E+04 -9.44040E+03 -6.39607E+02 -1.11853E+04  6.95199E+03 -1.03419E+04
  4.55736E+03  1.43630E+03  7.72987E+03  6.09430E+02  7.09616E+02  4.27715E+03  1.25009E+03  2.44667E+03
 -3.29851E+03  3.86141E+03  1.58849E+02  2.54666E+03  2.37978E+03  8.50366E+03 -6.06842E+02  5.74760E+03
  1.60320E+03  1.50574E+04 -8.04120E+03  1.34939E+04 -1.26101E+04  1.43011E+03 -1.72491E+04 -4.77138E+03
 -7.30151E+03 -1.17518E+04  3.62898E+03 -1.60390E+04  9.59248E+03 -9.27250E+03  4.24104E+03  1.78089E+03
  1.04857E+04  9.18033E+03  6.06903E+03  1.12741E+04 -2.71312E+03  7.29411E+03 -5.91090E+03 -1.50067E+03
 -5.80806E+03  1.85269E+02  9.45773E+02 -6.41052E+03  5.67261E+03 -1.83083E+03  5.40211E+03 -2.88619E+02
  5.72962E+03  1.40955E+03 -5.40963E+03  3.37237E+03 -2.27088E+03  1.72722E+03  3.42618E+03 -4.79754E+03
 -1.03147E+03  5.23160E+03  2.60971E+03  3.71234E+03  3.41315E+03  7.55429E+03 -8.20591E+02  1.57444E+04
 -1.60910E+03  8.62940E+03 -9.11903E+03  4.30441E+02 -4.64717E+03 -3.10907E+03 -4.27477E+03 -3.77951E+03
 -1.35293E+03 -9.82618E+03  1.79537E+03 -3.57728E+03  1.82883E+03 -8.32785E+02 -1.34318E+03  4.21937E+03
 -5.01026E+03  1.07618E+04 -5.37576E+03  1.90437E+03 -3.90811E+03 -1.24955E+03  2.54904E+02 -9.79214E+03
  2.37089E+03 -5.40351E+03  8.43507E+03 -1.52517E+03  7.26333E+03  5.91234E+02  2.24652E+03 -1.17669E+03
 -2.65203E+03 -1.48925E+03 -6.31351E+03 -4.95560E+03 -6.07060E+03 -7.13985E+03  5.14028E+03 -2.05024E+03
  1.19608E+04 -1.34836E+01  7.62969E+03  5.95146E+03 -1.88472E+03  6.12826E+03 -5.60086E+02  4.37208E+03
 -6.53727E+03  7.92280E+03 -6.67116E+03 -2.74653E+03 -8.19640E+02 -8.65439E+03  1.85987E+03 -8.34545E+03
  3.10277E+03  3.74816E+03  2.14837E+03  2.44716E+03  1.74101E+03  6.32348E+03  3.45253E+03  6.26564E+03
  5.38255E+01 -1.76804E+03  1.66401E+03 -1.82376E+02 -3.09186E+03  2.69463E+03  3.70788E+03 -9.57954E+02
 -8.33366E+03 -7.16231E+02 -8.05513E+03  2.92018E+03 -5.58928E+03 -2.62124E+03 -1.33227E+04 -8.73292E+03
 -4.09219E+03 -8.86211E+03  9.07749E+02 -1.29942E+04  5.02439E+03 -1.11750E+04  1.38706E+04 -6.86415E+03
  6.57431E+03  1.67150E+03  9.36043E+03  9.14674E+03 -1.85958E+03  9.58212E+03 -4.21214E+03  7.76054E+03
 -1.11298E+04 -3.81132E+03 -6.62526E+02 -4.69612E+03 -6.27875E+03 -2.96177E+02 -3.93669E+03  5.52556E+03
 -2.99210E+03 -2.41880E+03  2.56490E+03 -1.05756E+03 -2.98419E+03  1.02175E+02  1.87423E+03 -6.32704E+03
  3.69052E+03 -8.27189E+03  6.93982E+03 -2.96005E+03  1.00356E+04  8.63907E+03 -4.01945E+03  6.73104E+03
 -4.77525E+03  6.44209E+03 -1.04580E+04  1.08708E+04 -1.00192E+04 -1.12490E+02 -5.56438E+03 -7.18691E+03
 -4.46383E+03 -1.05258E+04 -1.39638E+03 -1.17951E+04  1.28838E+04 -4.96645E+03  4.06437E+03  1.80263E+02
  9.68276E+03  1.60689E+03  1.40517E+03  1.00392E+04 -5.24734E+03 -1.44895E+03 -4.59783E+02  1.96220E+03
  3.64305E+03 -3.84398E+03  8.66836E+02 -1.86766E+02  5.34479E+03  4.83153E+03  1.40274E+03  4.57148E+03
 -9.16916E+03  7.53396E+03 -7.08809E+03 -5.04336E+02 -4.25626E+03  7.29289E+01 -1.48467E+03 -9.86343E+03
  1.14687E+03 -6.98190E+03  9.89724E+03 -7.26776E+03  7.87594E+03 -2.93650E+02  6.20824E+03  3.57696E+03
  4.48712E+03  7.69539E+03 -1.16895E+03  3.53792E+03 -4.09656E+03  6.65714E+03 -4.67096E+03  1.01161E+03
  2.84092E+03  1.41463E+03 -1.21953E+03  1.15469E+03 -1.92353E+03  3.05680E+03 -2.90926E+03 -3.45362E+02
 -4.24224E+03 -4.83663E+03 -1.26087E+03 -8.19766E+03  1.43731E+03 -3.29996E+03  7.73887E+03  5.44903E+03
  9.94167E+03 -2.79233E+03  1.65352E+03  7.50124E+03 -2.17672E+03  2.65067E+03 -3.63046E+03  1.91894E+03
