 $NMID ID='MM_0lb_SNR50_17hz_g50_34.RAW', FMTDAT='(8E13.5)'
 TRAMP=1., VOLUME=1. $END
  3.06613E+05  2.19681E+03  3.36759E+05  2.50784E+05  8.80934E+04  3.40388E+05 -1.29688E+05  2.46405E+05
 -1.90414E+05  8.40272E+04 -1.10836E+05 -3.47414E+04  2.57367E+03 -5.00568E+04  5.18681E+04 -3.01804E+03
  3.91981E+04  5.05577E+04 -1.51441E+04  7.22482E+04 -6.44119E+04  6.23265E+04 -8.79026E+04  2.96298E+04
 -8.21693E+04 -1.47854E+04 -5.83338E+04 -4.68680E+04 -1.76907E+04 -6.91522E+04  2.83925E+04 -4.20979E+04
  4.02994E+04  7.02470E+03  1.23668E+04  4.79449E+04 -3.72374E+04  4.52417E+04 -6.58327E+04 -5.32406E+03
 -4.87202E+04 -5.60497E+04 -5.28022E+03 -7.40738E+04  3.45518E+04 -5.34286E+04  4.52668E+04 -1.36946E+04
  4.43177E+04  1.43030E+04  2.65867E+04  2.25363E+04  1.40790E+04  2.76830E+04 -4.86028E+03  2.67933E+04
 -2.38515E+04  1.50717E+04 -1.50709E+04 -2.41185E+03  4.83464E+03 -1.02688E+04  2.43385E+04  9.83256E+03
  6.62791E+03  3.34215E+04 -3.12186E+04  3.14522E+04 -6.10610E+04 -9.28434E+02 -5.47452E+04 -3.96904E+04
 -1.03857E+04 -6.18383E+04  3.52298E+04 -4.50837E+04  5.44333E+04 -3.09060E+03  3.38561E+04  3.17544E+04
 -3.67234E+03  3.39806E+04 -3.30465E+04  1.73016E+04 -3.41009E+04 -7.96952E+03 -1.42685E+04 -9.85461E+03
 -9.05563E+03 -1.16846E+04 -3.32480E+03 -1.63358E+04  8.17827E+03 -2.51259E+04  1.01338E+04 -1.33495E+04
  1.16050E+04  7.65217E+03 -7.03633E+03  1.61466E+04 -1.94429E+04 -4.97907E+03 -1.14091E+04 -2.86956E+04
  1.69356E+04 -4.28748E+04  4.81369E+04 -1.86550E+04  4.02599E+04  1.71570E+04  1.45349E+04  4.39458E+04
 -1.09925E+04  3.08157E+04 -2.30170E+04  3.37342E+03 -8.63815E+03 -2.90608E+04  2.41082E+04 -3.08049E+04
  4.20231E+04 -6.42582E+03  3.44487E+04  2.25436E+04  1.80078E+04  4.25222E+04 -5.51600E+03  4.76007E+04
 -2.74312E+04  3.20628E+04 -3.87539E+04  8.86862E+03 -3.87637E+04 -1.68462E+04 -2.10518E+04 -3.57576E+04
  6.84355E+03 -3.81339E+04  2.52930E+04 -1.36093E+04  2.82838E+04  1.16612E+04  4.86958E+03  1.77114E+04
 -1.08227E+04  4.73858E+03 -1.37997E+04 -7.80646E+03  1.76257E+03 -1.11178E+04  1.99622E+04  4.88937E+03
  1.65499E+04  2.59727E+04 -5.56997E+03  2.31256E+04 -1.81964E+04  1.00891E+04 -2.33124E+04 -2.32826E+03
 -2.33288E+04 -1.78834E+04 -5.68334E+03 -1.79416E+04  1.03707E+03 -1.23667E+04  1.24293E+04 -1.34223E+04
  2.22433E+04 -9.13517E+03  2.97987E+04  1.54707E+03  1.44222E+04  1.62971E+04  4.76505E+03  3.63563E+04
 -1.49253E+04  2.61060E+04 -2.57790E+04  8.07727E+03 -1.95359E+04 -1.21679E+04  1.30081E+03 -1.28272E+04
  7.22243E+02 -2.26439E+03 -6.03889E+02  3.92353E+03 -1.26396E+04  2.51878E+03 -1.58794E+04 -6.61859E+03
 -4.60836E+03 -1.39664E+04  3.97197E+03 -2.34464E+04  1.28258E+04 -1.66896E+04  1.73039E+04 -5.17745E+03
  1.33379E+04  8.88653E+03  1.06465E+03  2.26706E+04 -8.83059E+03  1.08661E+04 -1.71101E+04 -1.73116E+03
 -1.10974E+04 -1.48350E+04 -1.38538E+03 -1.98458E+04  8.95541E+03 -2.10540E+04  1.67836E+04 -6.50094E+03
  1.34322E+04 -1.38184E+03  1.35995E+04  2.33998E+03  9.88585E+03  2.26845E+03  9.20163E+03 -2.91290E+02
  1.72240E+04  2.50935E+03  1.50941E+04  1.50756E+04  7.75536E+03  3.07247E+04 -1.71760E+03  2.67724E+04
 -1.39317E+04  2.23871E+04 -2.86478E+04  1.38382E+04 -2.34632E+04 -2.47774E+03 -2.52312E+04 -1.10730E+04
 -7.23414E+03 -2.11234E+04  8.79626E+03 -2.07876E+04  1.96807E+04 -1.25301E+04  2.01751E+04  1.01228E+03
  7.80814E+03  7.90568E+03 -4.89699E+03  1.58538E+04 -1.69077E+04  1.23250E+03 -9.89702E+03 -7.29719E+03
 -7.65170E+02 -9.44500E+03  8.25945E+03 -4.89050E+03  9.53295E+03  2.36149E+02  8.60088E+02  4.97006E+03
 -8.25331E+03  1.11722E+03 -1.71221E+03 -4.67936E+03 -2.83847E+03 -5.65066E+03  1.02008E+04 -1.33477E+04
  1.79699E+04 -3.45431E+03  1.50207E+04  7.17376E+03  1.40783E+04  1.23105E+04  1.04146E+04  1.91224E+04
 -1.70136E+03  1.79679E+04 -1.25306E+04  1.11752E+04 -1.21335E+04 -1.16812E+02 -9.41413E+03 -2.74990E+03
 -3.68390E+03 -4.52922E+03  1.16127E+03  8.63534E+02 -1.06046E+03  6.41042E+02  1.42379E+03  1.91539E+03
 -1.30706E+04 -1.06920E+03 -6.48447E+03 -7.90053E+03 -7.47820E+03 -9.57430E+03 -3.01622E+02 -1.32957E+04
  1.12571E+04 -2.27230E+03  2.48824E+03  4.70475E+03  1.22686E+02  4.17248E+02  2.23209E+02 -6.09093E+02
 -1.18096E+03 -6.61839E+03 -4.06216E+03 -7.90931E+03  5.45256E+03 -9.00907E+03  1.33039E+04 -7.43441E+03
  1.34829E+04  6.29478E+02  8.17340E+03  7.27643E+03  4.10608E+03  9.11267E+03 -8.86678E+03  1.00566E+04
 -1.21134E+04  2.51515E+03 -7.75928E+03 -7.97403E+03 -2.44345E+03 -1.59017E+03  5.52797E+03 -2.98657E+03
  3.53208E+03  3.62836E+03  4.37774E+03  7.70471E+03 -2.49965E+03  5.80796E+03 -9.45850E+03  2.44863E+02
 -3.05463E+03 -7.70434E+03 -2.58620E+03 -3.00227E+03 -8.55777E+01 -3.48164E+03  3.56028E+03  6.31082E+02
  1.06202E+02  5.45232E+03 -8.43533E+03  6.73913E+03 -5.99394E+03  6.25036E+03 -4.35328E+03 -1.81383E+03
 -2.59470E+02 -8.84527E+03  4.50471E+03 -9.21767E+03  9.63394E+03 -9.21791E+03  5.79127E+03 -2.07409E+02
  1.52076E+03  8.45703E+03  4.42690E+02  9.66875E+03 -4.62224E+03  9.72540E+03 -6.80754E+03 -4.96689E+03
 -4.45915E+03 -4.38358E+03  1.08202E+03 -2.54875E+03  4.81674E+03 -4.37784E+03  1.19999E+02 -5.21662E+03
  6.53439E+03 -1.13544E+03 -3.80404E+03  2.89910E+03  3.31294E+03 -2.56089E+03 -8.58865E+02 -3.19742E+03
  4.78790E+03 -1.12113E+03  7.07643E+03  1.14311E+03  1.08979E+04  5.45753E+03  2.79400E+03  1.12949E+04
  1.36196E+03  1.35327E+04 -1.00755E+04  1.48513E+03 -1.30804E+04  2.82314E+03 -7.74480E+03 -5.21212E+02
 -1.02443E+04 -3.78911E+03 -3.59495E+02 -3.69628E+03  2.99613E+03 -4.51109E+03 -2.39114E+03 -3.39703E+03
  3.00530E+03  1.34241E+02  3.10692E+03  9.05704E+02  4.63884E+03  2.36032E+03  2.14073E+02 -2.03620E+02
  3.13218E+03 -1.25804E+03  3.36059E+03  1.61648E+03 -9.74924E+02  2.30316E+03 -2.41100E+03  8.97831E+02
 -5.93672E+03  8.77218E+02 -7.67223E+03 -6.59416E+03 -1.09898E+02 -8.62898E+03  3.94951E+03 -8.95655E+03
  5.31668E+03 -4.86601E+03  6.11072E+03  1.72847E+03  4.24405E+03  6.51487E+03  1.20903E+03  2.39630E+03
 -1.21690E+03  1.21915E+04 -6.39864E+03  2.51522E+03 -4.74432E+03 -2.76309E+03 -2.33208E+03  1.36230E+03
 -2.36124E+02  3.64112E+03 -2.98135E+03  5.30590E+01 -5.29921E+03  1.42603E+03 -4.47479E+03 -2.50411E+03
 -2.18592E+03 -1.84585E+03  8.56720E+02 -6.48649E+02  4.18078E+03 -6.70156E+03  3.20714E+03 -1.36210E+03
  6.88709E+03  1.49985E+03  4.65606E+03  1.79022E+03 -2.43584E+03  4.04728E+03 -3.90124E+03  3.04848E+03
 -4.25842E+03 -8.29862E+02 -9.26149E+03 -3.83168E+03  4.06749E+03 -5.90507E+03 -3.33784E+03 -2.85772E+03
  1.56920E+03 -3.41873E+03  6.32529E+03 -6.48558E+02  1.09776E+03  1.91618E+03  2.99493E+02 -2.26040E+03
  2.99256E+03  5.39573E+03 -9.28656E+02  1.68081E+03 -3.09253E+03  2.48477E+03 -2.36902E+03  5.93678E+02
 -2.89549E+03  2.30522E+03 -7.64523E+03  4.03741E+03 -3.94854E+03 -3.67768E+00 -9.58745E+03 -1.12996E+03
  8.90908E+02 -7.44154E+03  3.43160E+02 -8.50333E+03 -1.43305E+03 -9.92922E+02  2.65983E+03  4.48397E+02
  1.45316E+02  3.67394E+03  4.18947E+03  2.65454E+03  7.49800E+01  4.53131E+03 -3.15048E+03 -1.89231E+03
  1.47092E+02  1.81294E+03  1.50053E+03  3.76305E+03  2.73036E+03 -1.45235E+03  1.57394E+03  2.14865E+03
 -2.20870E+03  1.05328E+03  3.62797E+02  5.55178E+03 -1.34604E+03  1.73122E+03  5.47936E+03 -2.58888E+03
  3.56724E+03 -1.84565E+02  4.42315E+03  2.78120E+03  1.14688E+03  4.25948E+03  1.05418E+02  1.83703E+03
 -1.27363E+03  3.78962E+03  4.47862E+02 -1.17349E+02 -2.55034E+03  1.14445E+03  2.08204E+03 -5.28120E+03
 -3.81299E+03  1.12623E+03  4.74170E+03 -1.42041E+03  1.18709E+03 -6.26991E+02 -4.47379E+02  1.57264E+03
 -3.39561E+03  1.72832E+03 -4.00356E+03  1.02104E+03  1.23197E+03 -8.15582E+02 -1.54879E+03 -2.74049E+03
  4.69805E+03  2.72167E+02 -5.56278E+03 -1.48007E+03 -3.95688E+02  2.37382E+03  3.58965E+02 -1.34873E+03
 -4.12698E+03  2.79233E+03  1.37333E+03 -8.05359E+02  6.39424E+02  1.87357E+03  6.82176E+02 -2.70250E+03
  2.29346E+03  3.27376E+03  4.27225E+03 -4.24244E+01 -1.05050E+03  2.21114E+03  1.04425E+03  3.86079E+03
 -1.67691E+03  2.00333E+03 -1.15337E+03  4.88047E+03 -4.30757E+03  1.60983E+03  4.72620E+03 -1.78357E+01
  1.89246E+03  2.92733E+03  8.33418E+02  1.16286E+03  3.03179E+02  2.87676E+03 -2.30331E+03  1.34402E+02
  3.43419E+03 -3.89463E+02 -3.45139E+03 -1.56096E+03 -2.77296E+01 -1.10888E+03  2.27190E+03  1.13072E+03
 -2.55604E+03 -1.14605E+03 -4.41833E+03  1.28588E+03  4.70504E+02 -3.28293E+03 -8.09544E+03 -5.41110E+03
 -8.27325E+03 -1.08835E+03 -1.88203E+03 -1.15323E+03  3.11169E+03 -2.33722E+03  5.42793E+03 -2.58514E+03
  6.17656E+03 -1.06603E+02  3.74072E+03 -4.23477E+02  1.13351E+03  3.93031E+03 -2.17423E+02  3.27046E+03
 -3.52044E+02  2.47208E+03  3.41961E+01  2.79983E+03  1.60864E+03  1.02202E+03 -5.15572E+03 -5.04348E+03
 -7.29433E+01 -3.32240E+03 -6.63383E+02  3.84092E+02 -5.11129E+02 -1.67913E+02 -1.34794E+03  1.70055E+03
 -1.57189E+03 -4.45768E+02 -2.07824E+03  3.15851E+03  3.38754E+03  5.90790E+03  3.02861E+03 -2.38632E+02
  3.49656E+03  4.85219E+03 -3.04732E+03  2.37073E+03 -4.83848E+03  1.28475E+03  4.66969E+02  1.20886E+03
 -3.57768E+03  2.26911E+02  2.80122E+03  8.40522E+02  3.84910E+03 -1.81209E+03  5.86332E+01 -1.24646E+03
  2.20009E+03  1.72248E+03 -6.16728E+03 -1.33948E+03 -3.18792E+03  4.23449E+02 -8.00582E+02  1.28874E+03
 -1.98421E+03 -8.28389E+01  2.56174E+03  2.48969E+03 -2.65299E+03 -3.43369E+03  1.71283E+02 -6.94608E+02
 -4.07994E+03  3.67731E+03 -4.25650E+03  3.51416E+03  7.33665E+02 -2.38521E+02 -4.44764E+02  2.72443E+03
  2.86813E+03 -1.81454E+03  1.17262E+03  4.25279E+03  2.13569E+03 -1.20839E+03 -9.87518E+02  3.82544E+03
  5.56855E+03  2.30884E+03 -4.91686E+03  2.74153E+03 -8.73963E+02  3.88895E+03 -1.94165E+03 -2.60973E+03
 -6.99257E+02 -4.12700E+03  2.28221E+02  2.53784E+02  3.57137E+03  2.98649E+03 -3.04920E+03  1.16765E+03
 -5.20814E+03 -4.13016E+03  3.65862E+02 -3.98019E+03  2.28103E+03 -1.16522E+03  1.36455E+03  8.77897E+02
  5.06518E+03  2.69123E+03 -3.69661E+03 -3.42050E+03  3.92254E+03  3.70566E+03 -8.00201E+02 -1.43005E+03
