 $NMID ID='MM_0lb_SNR50_7hz_g45_39.RAW', FMTDAT='(8E13.5)'
 TRAMP=1., VOLUME=1. $END
  3.08382E+05 -6.16433E+03  3.40723E+05  2.51198E+05  8.50794E+04  3.39321E+05 -1.33386E+05  2.45949E+05
 -1.90890E+05  8.05068E+04 -1.16237E+05 -3.01571E+04  5.74253E+01 -5.63826E+04  5.06009E+04  1.64451E+03
  2.90597E+04  4.62051E+04 -1.69700E+04  8.14327E+04 -5.74626E+04  6.33555E+04 -8.13156E+04  3.09280E+04
 -8.58749E+04 -1.95093E+04 -6.42342E+04 -5.80130E+04 -1.55979E+04 -6.46500E+04  2.73356E+04 -4.79384E+04
  3.93599E+04  6.25154E+03  1.74349E+04  4.74033E+04 -3.56800E+04  4.99527E+04 -7.30798E+04 -5.28782E+03
 -5.24844E+04 -6.17206E+04 -1.01251E+04 -7.72785E+04  3.61891E+04 -5.46905E+04  5.33141E+04 -1.53932E+04
  5.17026E+04  1.73465E+04  3.73236E+04  2.98699E+04  2.12071E+04  3.28765E+04 -6.91941E+03  2.71478E+04
 -2.15653E+04  1.30075E+04 -2.75064E+04 -5.49564E+02  1.70523E+03 -6.59163E+03  2.67397E+04  1.16900E+04
  5.95755E+03  3.95245E+04 -3.09690E+04  4.10950E+04 -6.43968E+04  6.42491E+03 -5.81314E+04 -4.53186E+04
 -1.75224E+04 -6.42160E+04  4.30687E+04 -4.83747E+04  6.63224E+04 -1.01870E+04  3.74426E+04  3.59315E+04
 -5.59519E+03  3.91269E+04 -3.17324E+04  2.21176E+04 -3.43771E+04  8.06672E+03 -2.04165E+04 -1.11009E+04
 -4.64532E+03 -1.76476E+04 -4.19005E+03 -2.19962E+04  1.86318E+04 -2.37256E+04  1.17805E+04 -1.53179E+04
  2.56242E+03  5.12797E+03 -6.59671E+03  1.69187E+04 -2.90501E+04 -5.83551E+03 -9.51331E+03 -3.65161E+04
  2.51697E+04 -5.08884E+04  5.68195E+04 -2.20957E+04  4.73500E+04  2.30995E+04  1.30144E+04  4.94846E+04
 -1.51282E+04  3.50481E+04 -2.70786E+04  2.92151E+03 -9.11322E+03 -2.24181E+04  1.91296E+04 -3.34261E+04
  5.34293E+04 -1.17824E+04  4.84797E+04  1.88194E+04  2.88889E+04  5.40084E+04 -9.33265E+03  5.60417E+04
 -3.51526E+04  4.40652E+04 -5.24791E+04  1.05737E+04 -4.48308E+04 -1.57273E+04 -2.76333E+04 -3.89815E+04
  3.40166E+03 -4.32868E+04  3.24649E+04 -1.79383E+04  3.58189E+04  7.58892E+03  7.96427E+03  1.42775E+04
 -1.55721E+04  9.10581E+03 -2.23263E+04 -4.85462E+03  4.01302E+02 -1.25562E+03  2.30262E+04  9.04595E+03
  1.87339E+04  1.99507E+04 -5.43319E+03  2.78081E+04 -2.37138E+04  1.63019E+04 -3.14467E+04 -5.42028E+03
 -2.94202E+04 -2.14585E+04 -1.28385E+04 -4.01509E+04  2.83302E+03 -2.66957E+04  2.92206E+04 -3.16645E+04
  2.59131E+04 -1.40277E+04  3.82553E+04  1.14155E+04  2.98704E+04  2.18768E+04  3.91521E+03  3.84060E+04
 -2.86951E+04  3.23426E+04 -2.43943E+04  8.21454E+03 -2.34539E+04 -1.04085E+04  4.25262E+02 -3.10092E+03
 -4.36302E+03 -2.07664E+03 -1.04718E+04  1.32577E+04 -1.79065E+04  1.03211E+04 -2.35416E+04 -6.34617E+03
 -1.27621E+04 -2.76029E+04  5.26364E+03 -2.75704E+04  1.55025E+04 -2.12873E+04  2.61697E+04  8.43111E+02
  1.70232E+04  1.46101E+04 -1.76721E+03  2.91626E+04 -1.99127E+04  1.20346E+04 -3.22960E+04 -5.56757E+03
 -1.95320E+04 -2.45787E+04 -1.93703E+02 -2.85725E+04  1.99482E+04 -2.85059E+04  2.35999E+04 -1.59573E+04
  2.11204E+04  1.22386E+03  2.19871E+04  7.06970E+03  1.26725E+04 -1.08224E+03  1.29695E+04  1.92531E+03
  3.01092E+04  5.93967E+03  2.54726E+04  1.90526E+04  2.13627E+04  4.64331E+04 -9.11199E+03  4.90833E+04
 -2.21435E+04  3.97295E+04 -4.73264E+04  1.91249E+04 -5.39230E+04 -8.05764E+03 -4.07673E+04 -2.49597E+04
 -1.50834E+04 -3.69981E+04  1.48544E+04 -3.93955E+04  2.96590E+04 -1.62393E+04  2.30240E+04  7.20974E+03
  8.91395E+03  2.01113E+04 -8.70166E+03  1.45720E+04 -2.69879E+04 -4.15530E+03 -2.32945E+04 -1.41246E+04
  3.30825E+03 -2.53986E+04  6.52967E+03 -1.12478E+04  1.02909E+04 -1.47645E+03  1.57780E+03  1.12340E+04
 -1.23098E+04  7.11566E+03 -2.60608E+03 -7.23620E+03  1.69325E+03 -1.80832E+04  1.75199E+04 -1.87979E+04
  3.07727E+04 -1.41722E+04  2.96987E+04 -3.59304E+03  2.28156E+04  2.76332E+04  9.34471E+03  3.69675E+04
 -3.31745E+03  3.08105E+04 -2.25945E+04  2.19472E+04 -2.27318E+04 -1.00465E+03 -1.94330E+04 -8.41953E+03
 -2.73452E+03 -2.17866E+03  6.46662E+03 -7.85699E+03 -1.80911E+03  2.85992E+03 -1.45812E+04  1.06397E+04
 -1.65445E+04  3.62146E+03 -1.58248E+04 -1.59885E+04 -3.56289E+03 -2.98767E+04  6.79267E+03 -1.53312E+04
  1.25893E+04 -7.97520E+03  6.59140E+03  4.73064E+03  2.53096E+03  6.25232E+03 -6.58296E+03 -4.86660E+03
 -7.81095E+03 -1.30237E+04 -3.35575E+03 -1.81901E+04  1.44184E+04 -1.30294E+04  1.95939E+04 -1.23760E+04
  2.06812E+04 -3.22564E+03  1.71808E+04  1.62599E+04  4.70606E+03  1.97261E+04 -1.49104E+04  1.95508E+04
 -1.29024E+04  5.37575E+03 -2.74444E+03 -5.06500E+03  3.26157E+03 -9.75845E+02  5.05006E+03 -1.39091E+03
  1.69095E+04  3.13220E+03  2.41557E+02  1.37121E+04 -9.24221E+03  1.27231E+04 -1.75071E+04  1.34946E+03
 -1.17110E+04 -1.51626E+04  9.36369E+03 -1.55522E+04  1.64206E+04 -7.23149E+03  8.80803E+03  4.16839E+03
  7.58942E+02  1.46220E+04 -1.02651E+04  1.25959E+04 -1.75107E+04  1.08347E+04 -1.63341E+04 -1.27053E+04
 -6.46015E+03 -2.58232E+04  3.68405E+03 -1.72513E+04  1.70331E+04 -1.34156E+04  2.17456E+04  7.88067E+03
  8.81739E+03  9.95941E+03 -1.10791E+03  9.02098E+03 -2.23537E+04 -7.56542E+03 -1.47576E+04 -3.06636E+03
 -1.51852E+04 -9.07821E+03 -7.97432E+03 -1.37314E+04  6.51221E+03 -1.58635E+04  1.43273E+04 -4.50465E+03
  5.14079E+03  2.40294E+03  2.15927E+03  7.90774E+03 -7.38076E+02 -5.04452E+03  4.18220E+03 -6.39709E+03
  1.41342E+04 -7.66746E+03  1.70481E+04  5.48401E+03  1.69241E+04  2.11313E+04  1.78366E+04  2.39671E+04
 -5.54106E+03  2.53360E+04 -1.67455E+04  1.60844E+04 -3.40005E+04  4.15293E+03 -2.38745E+04 -7.82697E+03
 -1.29313E+04 -2.02336E+04 -2.21783E+03 -1.59719E+04  1.17432E+04 -6.74994E+03  3.29336E+03 -9.90227E+03
  6.89297E+03 -1.27653E+03  6.49873E+03 -1.90304E+03  7.40525E+02 -8.91267E+03  8.33525E+03 -4.25207E+03
  5.30473E+03  1.49546E+03  4.07556E+03  9.30561E+03 -3.20352E+03  9.12520E+03 -9.75321E+03  4.58836E+03
 -1.31457E+04 -2.54497E+03 -1.24871E+04 -1.73344E+04 -3.59017E+03 -2.06025E+04  1.56013E+04 -1.24463E+04
  2.23977E+04 -1.19413E+04  2.96737E+04  2.06316E+03  2.02238E+04  1.17623E+04  8.25907E+03  2.49032E+04
 -3.10501E+03  1.68453E+04 -1.09223E+04  2.88615E+03 -4.65339E+03 -4.88379E+03 -5.73260E+03 -9.30751E+03
  4.76951E+02  4.24256E+01  6.17881E+02  1.08661E+04 -7.38065E+03 -7.84874E+02 -9.10867E+03  2.03149E+03
 -7.46880E+03 -1.31824E+04  3.99998E+03 -1.05139E+04  1.07490E+04 -1.48011E+04  2.55190E+04 -5.91656E+03
  2.11509E+04  8.63665E+03  4.22244E+03  1.33863E+04 -6.87602E+03  1.35030E+04 -1.74298E+04  8.02583E+03
 -1.08385E+04 -3.15087E+02 -1.13549E+04 -1.34789E+04 -3.19817E+03 -1.36154E+04  5.67324E+03 -7.08601E+03
  1.03950E+04 -4.74043E+03  1.41797E+03  1.07784E+04 -2.83636E+03  7.49684E+03  6.02522E+03  5.53770E+03
  1.15309E+04 -1.99728E+03  6.99049E+03 -2.95954E+03  4.69857E+03  8.41818E+03  6.99153E+03  8.77138E+03
 -2.11320E+03  1.80997E+04 -1.53807E+04  1.01540E+04 -1.95544E+04  7.13232E+03 -1.79553E+04 -4.39283E+03
  3.14870E+03 -1.29898E+04  1.89343E+03 -1.65510E+04  1.62970E+04 -1.68215E+04  1.49362E+04 -1.07954E+03
  8.92543E+03  3.00718E+03  2.74014E+02  1.14213E+04 -5.37425E+03  1.05303E+04 -1.73820E+01 -1.06973E+03
 -7.88340E+02 -4.59250E+03  1.04216E+04 -6.54863E+03 -1.62510E+03  2.36347E+03  3.36088E+03  2.52783E+03
  9.41732E+03  5.90400E+03  1.36766E+03  4.90175E+03 -5.31110E+03 -2.25313E+03 -7.22871E+02 -7.93916E+03
  3.40040E+03 -4.00072E+03  1.59015E+04  5.93734E+03  6.10702E+03  9.35989E+03  6.54953E+02  1.56519E+04
 -1.44870E+04  9.79534E+03 -1.48560E+04  4.54745E+03 -1.36011E+04 -9.30355E+01 -5.04502E+03 -2.22196E+03
 -3.39043E+03 -6.43517E+03  3.07105E+03  1.50824E+03  1.48687E+03 -2.36536E+03 -8.55050E+02  6.41478E+03
 -8.88962E+03  7.43873E+03 -5.42005E+03 -3.28700E+03 -5.80285E+03 -6.46983E+03  4.94984E+03 -9.43769E+03
 -3.03331E+03 -5.35924E+03  8.65749E+03  3.43950E+03  3.36409E+03  1.74012E+03  1.59234E+03  3.71526E+03
  2.83552E+02 -8.22987E+02 -1.63415E+03  1.17772E+03 -1.00228E+03 -1.24916E+04  1.25087E+04 -1.38953E+03
  1.75707E+04 -3.02175E+03  9.83594E+03  1.20943E+04 -1.50245E+03  8.44698E+03 -1.14405E+04  1.12151E+04
 -1.30447E+04  5.07608E+03 -1.20621E+04 -2.07680E+03 -7.79812E+03 -4.49989E+03 -2.06332E+03 -1.46533E+04
  4.82369E+03  2.94592E+02  1.08642E+04  1.16915E+04  8.94259E+03  8.11632E+03 -2.22931E+03  7.23261E+03
 -3.75430E+02  2.44233E+03 -9.37538E+03  2.91320E+03 -9.24676E+03  1.38814E+03 -3.43589E+03  6.10017E+03
 -3.67724E+03  1.16353E+04 -1.11929E+04  4.00138E+01 -6.69836E+03  5.65759E+03 -1.14829E+04 -1.40005E+04
 -1.42175E+04 -1.04199E+04  1.65350E+03 -1.60102E+04  1.25821E+04 -2.43072E+04  1.95783E+04 -7.96152E+03
  2.29096E+04  3.57125E+03  9.90694E+03  1.31034E+04 -1.56066E+03  1.34893E+04 -1.48263E+02  1.27631E+04
 -6.78134E+03  3.91863E+03 -6.65917E+03 -7.11620E+02 -8.33290E+03 -6.68070E+02 -6.52970E+03 -1.53949E+03
 -3.04272E+03  4.53665E+03 -1.65205E+03 -1.15463E+04 -5.74953E+03 -5.29487E+03 -4.73705E+03 -1.17791E+04
  3.05534E+03  6.85224E+02  1.29329E+04  3.71266E+03  9.52140E+03  1.47123E+03  2.89410E+02  2.47611E+04
 -5.62171E+03  1.81286E+04 -1.08672E+04 -8.86632E+01 -1.62135E+04  2.67955E+03 -1.63150E+04 -7.65567E+03
 -1.03641E+04 -1.05660E+04  9.03314E+03 -2.03171E+04  4.97184E+03 -5.21818E+03  3.31705E+03  2.78460E+02
  1.35920E+04  7.15798E+03 -2.20785E+03 -2.96369E+03  9.26872E+02  8.34045E+02  4.38758E+03 -4.67983E+03
 -3.80647E+03 -1.31586E+03  1.72354E+03 -2.12485E+02  9.39089E+01  4.47311E+03 -2.21216E+03  4.74469E+03
 -4.50776E+03  8.37057E+03 -1.13832E+04  3.10646E+03 -1.23619E+04  1.21623E+03  2.05773E+03 -1.90219E+04
  7.51529E+03 -1.15931E+04  1.65172E+04 -2.73158E+03  8.99946E+03  7.50000E+02  4.58828E+03  9.26670E+03
  8.44616E+03  1.04787E+04 -2.38897E+03  1.15327E+04 -5.42512E+03  5.01839E+03 -4.75690E+02  8.69151E+03
 -1.12968E+04 -8.59636E+02 -8.23169E+03 -1.17453E+03 -4.84238E+03  2.39497E+03 -1.63203E+03  1.90629E+03
 -6.12722E+03 -1.09072E+03 -8.44009E+03 -3.22132E+03  8.04299E+02 -8.91119E+03  2.00059E+02 -6.97926E+03
  1.50008E+04  1.43352E+03  1.21995E+04  9.80367E+03 -5.36616E+01  8.28443E+03 -2.57297E+03  8.75784E+03
