 $NMID ID='MM_0lb_SNR50_10hz_g60_19.RAW', FMTDAT='(8E13.5)'
 TRAMP=1., VOLUME=1. $END
  3.07604E+05  4.16976E+03  3.34651E+05  2.50783E+05  8.82712E+04  3.38418E+05 -1.33838E+05  2.48948E+05
 -1.90081E+05  8.33457E+04 -1.13214E+05 -2.99955E+04 -1.52918E+03 -4.54434E+04  5.29670E+04 -1.32161E+02
  3.77046E+04  4.53010E+04 -2.10060E+04  7.30391E+04 -6.10085E+04  6.88867E+04 -8.79832E+04  3.22776E+04
 -7.98133E+04 -1.39753E+04 -5.50284E+04 -5.17778E+04 -1.58717E+04 -6.73069E+04  3.10752E+04 -4.32522E+04
  4.14729E+04  1.00344E+04  1.77886E+04  4.73965E+04 -3.44849E+04  4.20686E+04 -7.33581E+04  2.43594E+03
 -5.38399E+04 -5.81564E+04 -5.56691E+03 -8.42628E+04  3.49664E+04 -5.52902E+04  4.82361E+04 -1.71074E+04
  4.07641E+04  7.91481E+03  3.37583E+04  2.63249E+04  1.57052E+04  3.20502E+04 -1.92752E+03  2.82440E+04
 -2.27032E+04  1.22118E+04 -2.23340E+04 -3.53657E+03  2.45313E+03 -5.40146E+03  1.97529E+04  1.26954E+04
  1.39559E+04  3.58643E+04 -3.48392E+04  2.83486E+04 -6.03117E+04 -5.82852E+03 -6.31820E+04 -4.56505E+04
 -1.83085E+04 -6.69318E+04  4.38809E+04 -4.96223E+04  6.27075E+04 -2.88047E+03  3.67860E+04  3.61407E+04
  1.18301E+03  4.29807E+04 -3.69403E+04  1.46818E+04 -2.90244E+04 -4.33507E+02 -1.96888E+04 -1.05303E+04
 -7.87222E+03 -1.62909E+04  5.72696E+03 -1.46502E+04  1.32649E+04 -2.50259E+04  1.58888E+04 -1.22898E+04
  8.75866E+03  5.47376E+03 -1.34744E+04  1.24393E+04 -2.86080E+04 -1.06243E+04 -8.02377E+03 -3.51911E+04
  2.53989E+04 -5.12176E+04  5.25715E+04 -2.26265E+04  5.30216E+04  1.54284E+04  1.20675E+04  5.15150E+04
 -1.52202E+04  3.16605E+04 -2.71644E+04  5.67182E+03 -1.74247E+04 -2.99554E+04  2.46697E+04 -4.12772E+04
  4.12701E+04 -1.71823E+04  3.73019E+04  2.49461E+04  1.35747E+04  5.50379E+04 -6.77488E+03  6.03070E+04
 -3.69286E+04  4.09045E+04 -4.64241E+04  8.40024E+03 -4.75158E+04 -1.99087E+04 -2.29855E+04 -3.92223E+04
  2.68151E+03 -4.38610E+04  2.88852E+04 -1.37351E+04  3.66496E+04  1.39777E+04  9.75988E+03  2.23997E+04
 -1.40304E+04  5.60741E+03 -1.71887E+04 -1.01820E+04  4.11692E+03 -1.19742E+04  1.42612E+04  5.09373E+03
  9.78495E+03  2.03391E+04 -5.41520E+03  3.34670E+04 -2.57683E+04  1.35546E+04 -3.30022E+04 -3.20525E+03
 -2.72175E+04 -2.26334E+04 -4.02351E+03 -2.89774E+04  4.23536E+03 -3.03278E+04  2.24940E+04 -2.39719E+04
  3.55414E+04 -1.34971E+04  4.18615E+04  4.38437E+03  2.89387E+04  2.86873E+04  2.34235E+03  3.96367E+04
 -2.37008E+04  3.48773E+04 -3.33216E+04  1.50308E+04 -1.08693E+04 -6.69698E+03 -4.77194E+03 -9.48729E+03
  2.79712E+03 -2.17362E+03 -8.33211E+03  8.45817E+03 -2.49367E+04  2.54384E+03 -2.27761E+04 -1.22930E+04
 -6.20568E+03 -2.06996E+04  6.34524E+03 -3.42805E+04  1.84063E+04 -2.58103E+04  2.05313E+04 -3.09131E+03
  1.33670E+04  1.60262E+04 -1.63987E+03  2.72958E+04 -1.26040E+04  1.39306E+04 -1.98858E+04  8.91806E+02
 -2.53770E+04 -2.32625E+04 -2.44645E+03 -2.80906E+04  1.33715E+04 -2.38918E+04  2.17320E+04 -9.04953E+03
  2.26231E+04 -4.80410E+03  1.93054E+04  8.23259E+03  6.19141E+03 -2.24064E+03  1.35003E+04 -2.64491E+03
  1.78456E+04  2.82942E+03  2.89109E+04  1.83192E+04  2.02628E+04  3.58168E+04 -6.04458E+03  3.96905E+04
 -2.17723E+04  3.53496E+04 -4.21321E+04  1.69817E+04 -4.78354E+04 -9.52686E+02 -3.20954E+04 -2.39842E+04
 -1.11290E+04 -3.99215E+04  1.94861E+04 -3.29740E+04  3.02262E+04 -1.28449E+04  2.21690E+04  5.62216E+03
  9.92587E+03  2.04298E+04 -1.29743E+04  1.81327E+04 -2.17112E+04  3.50471E+03 -9.41083E+03 -1.38364E+04
 -3.74578E+03 -2.82272E+04  7.83259E+03 -7.94821E+03  8.30303E+03 -4.99753E+02  1.78826E+03  7.36277E+03
 -7.14488E+03  1.91181E+03 -9.04293E+03 -7.22446E+03 -3.29026E+03 -1.44238E+04  7.28953E+03 -2.05094E+04
  2.40887E+04 -1.02832E+04  2.43681E+04 -1.86556E+03  2.43666E+04  1.95536E+04  4.29515E+03  3.02316E+04
 -8.41458E+03  2.87194E+04 -2.22315E+04  2.16802E+04 -1.92984E+04  4.34246E+03 -2.07555E+04 -3.99478E+03
 -5.70850E+03 -2.17742E+03 -5.85673E+03 -1.43355E+03 -4.21673E+03  3.27362E+03 -5.29026E+03  3.32227E+03
 -1.52850E+04 -2.98938E+03 -1.47397E+04 -9.40268E+03 -3.20991E+03 -2.10393E+04  7.49726E+03 -1.42443E+04
  1.49075E+04 -5.89076E+03  4.77010E+03  1.22175E+03 -5.91133E+03  2.19261E+03 -1.51207E+04  3.99301E+03
 -8.99544E+03 -9.82612E+03  5.12437E+03 -1.12332E+04  8.79007E+03 -2.35294E+04  1.43842E+04 -8.58357E+03
  2.71113E+04  2.16817E+03  1.80788E+04  1.85712E+04  2.91083E+03  1.93681E+04 -8.91571E+03  1.71011E+04
 -5.97748E+03  8.98680E+02 -1.11838E+04 -3.32206E+03  2.00104E+03 -8.73980E+03  1.36303E+04 -3.31505E+03
  9.65324E+03  2.97576E+03 -3.81053E+03  1.63804E+04 -1.17059E+04  8.47885E+03 -1.25070E+04 -6.52363E+01
 -1.04857E+04 -6.87440E+03 -3.64391E+03 -8.82653E+03  8.06360E+03 -3.37131E+03  1.46268E+04  4.95348E+02
  5.95184E+03  2.11584E+03 -7.19316E+03  1.22500E+04 -1.89250E+04  8.52295E+03 -5.40421E+03 -7.95980E+03
 -1.04402E+04 -1.77878E+04  7.91914E+03 -1.45442E+04  1.03037E+04 -1.19182E+04  6.26368E+03  6.50074E+03
  7.44547E+03  8.64995E+03 -6.11079E+03  2.03901E+04 -7.14911E+03  9.67492E+03 -1.69216E+04  6.57040E+03
 -9.66716E+03 -2.10960E+04 -6.64012E+03 -1.10174E+04  1.07200E+04 -9.72992E+03  7.24843E+03 -7.36685E+03
  2.05934E+03  6.08394E+03  2.98041E+03 -2.28394E+03 -2.46081E+03 -7.72486E+03  1.76860E+03 -1.31451E+04
  1.64767E+04 -2.72843E+03  1.25051E+04  5.66885E+03  1.31181E+04  9.03934E+03  1.67223E+04  1.68817E+04
  6.98977E+02  2.26089E+04 -2.36476E+04  9.67915E+03 -3.04365E+04  4.88095E+03 -1.78607E+04 -1.07606E+04
 -1.03450E+04 -2.48970E+04  3.62304E+03 -1.10935E+04  1.31456E+03 -3.84712E+03  1.74549E+03 -3.22837E+03
  5.70962E+03 -3.02500E+03  1.29860E+04 -4.46066E+02  5.13922E+03 -4.46380E+03  5.45274E+03 -2.50008E+03
  8.55986E+03  5.87999E+03  4.73230E+03  7.80387E+03  3.39066E+03  1.43524E+04 -1.76322E+04  2.16486E+03
 -1.98914E+04 -5.32591E+03 -9.74275E+03 -1.29444E+04 -5.69227E+03 -1.70535E+04  1.68154E+04 -1.41911E+04
  2.05470E+04 -7.03897E+03  1.92506E+04  9.40252E+03  8.17518E+03  1.36203E+04  7.50532E+03  2.18508E+04
 -5.56294E+03  1.76230E+04 -9.92778E+03  8.66125E+02 -9.40011E+03  1.97559E+01 -8.57766E+03 -1.56877E+03
 -4.26564E+02 -5.51363E+03 -5.12619E+03  4.08503E+03 -3.90032E+03  3.05543E+03 -8.76902E+03  2.66745E+03
 -8.31996E+03 -7.15173E+03 -6.45306E+02 -1.45042E+04  9.82873E+03 -1.66016E+04  1.55484E+04 -7.91817E+03
  1.42377E+04  6.64290E+03  6.10487E+03  9.18577E+03 -2.60109E+03  1.29838E+04 -4.82218E+03  9.75502E+03
 -1.47905E+04  1.94358E+03 -4.54189E+03 -1.19501E+04  1.93744E+03 -1.34441E+04  7.52772E+03 -1.01937E+04
  1.40909E+04  1.24286E+02  2.10909E+03  5.05397E+03 -3.63345E+02 -2.31204E+03  2.96937E+03  7.09374E+02
  5.46031E+02 -2.33000E+03  3.79158E+03  3.84957E+03  7.38281E+03  1.03758E+04  4.21696E+03  5.83528E+03
 -1.75537E+03  1.19632E+04 -1.10109E+04  1.36794E+04 -1.37989E+04  5.13989E+03 -1.25086E+04 -1.76420E+04
 -9.89413E+03 -1.53811E+04  8.14624E+02 -1.72639E+04  1.66819E+04 -1.07697E+04  1.07393E+04 -4.60704E+03
  1.01712E+04  3.28820E+03  5.38813E+03  1.16466E+04 -6.94152E+03  9.68274E+03 -7.96421E+03 -4.46205E+03
  8.04495E+02 -5.67452E+03  7.48520E+03 -7.59910E+03  8.34887E+03 -1.77854E+03  1.17449E+04 -1.81117E+03
  6.89930E+03 -9.65093E+02 -1.67395E+03  2.86041E+03 -4.74926E+02  5.89205E+02  3.72110E+03  1.68228E+03
  1.85940E+03  1.39397E+03  2.44491E+03  6.67230E+02  8.94802E+02  7.14016E+03  4.54355E+03  7.96949E+03
 -3.07428E+03  4.86889E+03 -1.43292E+04 -1.14858E+03 -1.30491E+04 -2.35588E+03 -3.74320E+03 -3.59871E+03
 -2.64340E+03 -5.30739E+03 -3.64251E+02 -1.15663E+04  1.83580E+03  2.67844E+03  3.52469E+03 -2.36033E+02
 -8.16923E+03  3.37258E+03 -9.69994E+03 -9.48121E+03 -4.82087E+03 -6.72353E+03  8.37962E+02 -6.29739E+03
  1.10493E+03 -7.14309E+03  2.16627E+02 -2.46319E+03  2.35752E+03  3.81792E+02  6.88706E+03  7.05364E+03
  3.10828E+02 -6.41812E+03  6.24329E+02 -6.00033E+03 -4.14614E+03 -1.15051E+04  6.56762E+03 -1.19721E+04
  8.01542E+03 -2.96455E+03  5.08494E+03  5.06474E+03 -1.19772E+03  8.17432E+03 -8.85353E+03  7.11669E+03
 -6.70807E+03 -1.05204E+03 -1.03698E+04 -1.29756E+03 -2.49027E+03 -3.70878E+03 -2.16050E+03 -1.47346E+03
  8.50143E+03 -6.64708E+03  2.58989E+03 -1.38012E+03  7.79092E+03  1.02507E+04  1.91754E+02  3.50170E+03
 -1.25191E+03  5.64961E+03 -2.35140E+03 -1.18760E+03 -1.79881E+03  2.56646E+02  1.78979E+02  5.08462E+03
  7.05145E+02  1.59073E+03 -7.06155E+03  2.81728E+03 -5.80280E+02  3.46757E+03 -1.23370E+04 -6.88794E+03
 -2.00141E+03 -1.73911E+04  4.83273E+03 -1.77368E+04  7.16335E+03 -9.75332E+03  1.15184E+04 -5.40469E+03
  8.84809E+03  1.35599E+03  1.51162E+04  1.21814E+04  4.85649E+02  1.11757E+04  3.26123E+03  8.50960E+03
 -1.01232E+04  2.54912E+03  2.07302E+03 -6.09582E+01 -5.91063E+03 -1.99693E+03 -1.09233E+03  9.55893E+02
 -1.18818E+03 -3.35695E+02 -4.72005E+03 -9.05985E+02 -1.40872E+03 -1.16476E+03  6.67369E+02 -4.69456E+03
  5.19080E+02  9.56389E+02  3.03901E+03  4.00397E+03  6.15803E+03  1.10819E+03  3.57088E+01  1.82594E+03
 -9.58567E+03  9.22873E+03 -1.31263E+04  1.06651E+04 -1.90028E+04 -2.54779E+02 -5.32336E+03 -9.93492E+03
 -8.50844E+03 -9.87859E+03  9.38309E+01 -1.30381E+04  5.12342E+03 -5.02621E+02  4.80027E+03  3.43808E+03
  2.14638E+03 -1.52816E+03 -1.55383E+03  7.02316E+03  3.19145E+03 -1.69155E+03 -9.03283E+02 -2.47301E+03
  2.22078E+03 -5.27759E+03  4.04523E+03  7.21326E+03  3.79703E+03 -2.59416E+03 -2.76595E+03  4.73786E+03
 -8.62713E+03 -6.77111E+02 -9.89546E+03  4.26276E+02 -8.89100E+03 -9.14888E+03  7.57674E+02 -1.30286E+04
  1.69634E+03 -1.33292E+04  9.37912E+03 -5.44168E+03  9.50805E+03 -2.30250E+03  6.19097E+03  4.58432E+03
  9.13501E+03  4.04557E+03 -5.20256E+02  2.02020E+03  1.19156E+03  2.86747E+03 -5.13374E+03  5.75486E+03
 -1.41738E+03 -2.90601E+03 -5.08164E+02  3.39113E+03  4.25709E+02  2.37714E+03 -5.37820E+03 -5.15765E+03
 -4.56004E+03 -2.71779E+03  1.94556E+03 -1.28456E+04  5.72018E+03 -7.72628E+03  9.21568E+03 -6.37374E+03
  7.35960E+03  6.83026E+03  7.71723E+03  5.62322E+03  1.44074E+03  8.28798E+03 -3.08571E+03  1.36411E+04
