 $NMID ID='MM_0lb_SNR50_7hz_g55_42.RAW', FMTDAT='(8E13.5)'
 TRAMP=1., VOLUME=1. $END
  3.00322E+05 -4.67459E+03  3.35671E+05  2.49990E+05  8.13270E+04  3.42734E+05 -1.33082E+05  2.47485E+05
 -1.94544E+05  8.67319E+04 -1.14173E+05 -3.67541E+04  2.37598E+03 -5.20886E+04  5.53251E+04 -2.46674E+02
  4.00273E+04  6.36514E+04 -1.40763E+04  7.22619E+04 -5.46470E+04  6.83930E+04 -8.31272E+04  3.37483E+04
 -8.75383E+04 -1.24453E+04 -5.02329E+04 -4.84163E+04 -1.59979E+04 -6.74115E+04  2.45374E+04 -5.31031E+04
  3.67460E+04 -3.94360E+03  1.63829E+04  5.52747E+04 -3.70086E+04  4.75216E+04 -6.46646E+04 -1.87980E+03
 -6.11058E+04 -5.21080E+04 -9.86559E+03 -8.19818E+04  3.60292E+04 -5.97885E+04  5.63335E+04 -1.79661E+04
  4.18051E+04  6.11159E+03  3.43930E+04  2.37547E+04  1.46528E+04  2.42274E+04 -6.36492E+02  3.33652E+04
 -2.71716E+04  1.25685E+04 -1.53750E+04 -5.55918E+03  1.20770E+04 -4.82234E+03  2.11403E+04  1.38820E+04
 -5.10893E+03  4.12951E+04 -3.63213E+04  4.07498E+04 -6.21864E+04  5.02411E+03 -6.34288E+04 -3.73691E+04
 -1.47911E+04 -7.49014E+04  3.94609E+04 -5.08014E+04  5.67294E+04 -6.00395E+03  3.79283E+04  3.11705E+04
 -4.35424E+03  3.84494E+04 -3.71531E+04  1.77213E+04 -3.86747E+04  8.49550E+02 -1.82711E+04 -1.01493E+04
 -1.52173E+04 -1.07582E+04 -7.04074E+02 -3.12401E+04  6.75817E+03 -2.15648E+04  1.99660E+04 -1.83098E+04
  1.22486E+04  1.04179E+04 -8.65713E+03  9.19688E+03 -2.65547E+04 -7.81529E+03 -1.51094E+04 -4.01507E+04
  2.90574E+04 -5.07460E+04  5.95445E+04 -2.39696E+04  4.73769E+04  2.53282E+04  1.79524E+04  6.04136E+04
 -1.59347E+04  2.90477E+04 -2.99402E+04  4.83420E+03 -8.63931E+03 -3.12718E+04  1.68032E+04 -3.59395E+04
  4.97817E+04 -1.10398E+04  3.85001E+04  2.76088E+04  1.91839E+04  5.55863E+04 -1.42784E+04  5.57939E+04
 -2.97644E+04  4.23329E+04 -4.36092E+04  1.49458E+04 -4.54577E+04 -1.66446E+04 -2.76948E+04 -4.97045E+04
  2.37655E+03 -4.14482E+04  3.75386E+04 -2.36331E+04  2.89458E+04  1.17480E+04  4.70947E+03  1.90784E+04
 -1.73956E+04  1.70468E+04 -1.21516E+04 -5.42173E+03  3.63102E+03 -2.33577E+04  2.45964E+04 -9.96366E+02
  2.16899E+04  2.32578E+04 -6.75432E+03  3.51406E+04 -2.37802E+04  1.37948E+04 -4.01636E+04 -2.93491E+03
 -2.77060E+04 -2.09492E+04 -9.88566E+03 -2.66360E+04  2.74755E+03 -2.71970E+04  1.73044E+04 -2.76240E+04
  3.91811E+04 -1.38359E+04  3.47813E+04 -5.02226E+03  3.44864E+04  3.38800E+04  3.91676E+03  4.70658E+04
 -1.75865E+04  3.95752E+04 -3.38869E+04  1.33846E+04 -2.10731E+04 -9.84056E+03 -3.72308E+03 -1.56969E+04
 -8.13697E+03 -3.68343E+03 -1.23237E+04  1.47595E+04 -1.94782E+04  3.94910E+03 -2.11318E+04 -1.23693E+04
 -3.87644E+03 -3.20445E+04  3.33184E+03 -2.56043E+04  1.66912E+04 -2.79989E+04  2.68656E+04  1.29027E+03
  1.51105E+04  2.04456E+04 -1.87563E+03  2.62335E+04 -2.20999E+04  8.06935E+02 -2.64429E+04 -6.70629E+03
 -1.31606E+04 -2.58475E+04 -3.35971E+03 -3.42365E+04  1.22004E+04 -2.37518E+04  1.80954E+04 -8.44814E+03
  2.60873E+04  2.45606E+03  2.11766E+04  8.04201E+03  4.85303E+03  1.06138E+02  1.95872E+04 -9.34942E+03
  3.08457E+04  7.52008E+03  2.38996E+04  2.05127E+04  1.72316E+04  4.13390E+04  8.42828E+02  4.79128E+04
 -2.69111E+04  4.79004E+04 -4.27518E+04  2.53332E+04 -4.66117E+04 -3.23840E+03 -4.10884E+04 -2.69170E+04
 -8.12849E+03 -4.12928E+04  1.38458E+04 -3.69090E+04  3.42891E+04 -1.03016E+04  3.29876E+04  5.61256E+03
  1.56647E+04  2.38558E+04 -1.02887E+04  1.19757E+04 -3.15402E+04  3.14816E+03 -1.94472E+04 -9.87713E+03
  1.17568E+03 -2.72948E+04  1.03713E+04 -1.26667E+04  1.52829E+04 -2.97774E+03  3.77626E+03  4.07939E+03
 -6.08180E+03  1.15570E+04 -7.78826E+03 -1.09438E+04 -4.60191E+03 -1.94359E+04  1.83628E+04 -2.43471E+04
  1.77053E+04 -1.53437E+04  3.16492E+04  2.45223E+03  2.76435E+04  1.65926E+04  7.03765E+03  3.30928E+04
 -4.64745E+03  3.87757E+04 -2.17339E+04  1.92134E+04 -2.91109E+04 -3.24773E+03 -2.33851E+04 -6.41292E+03
  2.01666E+03 -7.05793E+02 -1.15112E+03  4.16727E+03 -6.22709E+03  8.58723E+03 -1.69106E+04  4.11009E+03
 -1.54322E+04 -2.57080E+03 -1.06447E+04 -1.83746E+04 -1.20484E+04 -2.06821E+04  1.34490E+04 -1.81849E+04
  1.36535E+04 -1.80482E+01  1.52475E+04  1.01299E+04 -5.21182E+03  8.61830E+03 -1.13249E+04 -3.81785E+02
 -1.57700E+04 -1.09792E+04 -4.41410E+03 -1.83608E+04  1.13783E+04 -1.57679E+04  2.46100E+04 -8.91856E+03
  2.75549E+04  1.44413E+03  2.45729E+04  1.94035E+04  6.00187E+03  2.27498E+04 -1.13560E+04  1.67993E+04
 -2.06311E+04 -2.96138E+03 -5.28993E+03 -9.24625E+03  5.54522E+03 -9.14956E+03  6.72070E+03 -4.69899E+03
  3.16378E+03  1.37285E+04  1.00480E+04  1.42951E+04 -1.77139E+04  1.53749E+04 -2.07775E+04  3.54843E+03
 -1.63023E+04 -4.10414E+03 -4.28742E+03 -1.87781E+04  1.00563E+04 -4.35608E+03  7.93921E+03 -4.29329E+02
 -6.40730E+02  1.45129E+04 -5.94335E+03  1.64544E+04 -1.49222E+04  1.13348E+04 -1.82503E+04 -1.06924E+04
 -1.25625E+04 -1.90597E+04  1.03108E+04 -2.27763E+04  1.62465E+04 -1.42974E+04  2.64339E+04 -1.18890E+02
  2.08364E+04  1.60848E+04 -6.93213E+03  2.32698E+04 -1.33266E+04  1.70251E+04 -2.34884E+04 -5.28602E+03
 -1.48008E+04 -3.29348E+03 -5.91354E+02 -1.59984E+04  8.86535E+03 -7.73509E+03  6.39259E+03  2.03874E+03
  4.51197E+03  3.64474E+03 -8.51446E+03  9.64709E+03  4.51072E+03 -9.84867E+03  4.43301E+03 -9.32831E+03
  1.11562E+04 -9.02630E+03  1.94027E+04  1.05396E+04  1.51142E+04  1.02333E+04  1.11547E+04  2.72507E+04
 -1.17780E+04  2.99520E+04 -2.47855E+04  2.41796E+04 -2.96903E+04  1.00742E+04 -1.79565E+04 -1.02456E+04
 -1.18832E+04 -1.89195E+04 -6.10756E+03 -1.86073E+04  8.82124E+03 -1.25612E+04 -1.69305E+03 -8.10184E+03
  2.59761E+03 -7.93585E+03  1.24047E+04 -6.07411E+03  9.28034E+03 -4.79995E+02  7.85772E+03 -5.24054E+03
  2.79115E+03  2.49135E+03  8.55667E+03  9.32106E+03 -4.01935E+03  1.82670E+04 -1.48674E+04  1.50003E+04
 -2.60135E+04 -5.45622E+03 -1.18286E+04 -1.69680E+04 -4.85745E+03 -2.33931E+04  1.33828E+04 -1.97739E+04
  1.99099E+04 -1.65662E+04  1.85279E+04  5.73561E+03  1.61823E+04  2.01157E+04  2.32910E+03  2.25449E+04
 -1.85510E+04  2.15816E+04 -1.32720E+04  7.64289E+02 -1.15009E+04 -8.19921E+03 -2.36013E+03 -7.69322E+03
  4.07831E+02 -7.26714E+03 -7.59397E+03  7.45886E+02 -1.05544E+04  3.02516E+03 -1.73818E+04 -9.80440E+03
 -8.86655E+03 -6.75439E+03 -5.16559E+03 -1.60614E+04  8.89373E+03 -1.45215E+04  2.39267E+04 -6.70226E+03
  1.98596E+04  1.08373E+04  8.57914E+03  1.50894E+04 -9.22749E+03  1.79369E+04 -1.72156E+04  2.16294E+04
 -1.64240E+04 -1.39519E+03 -7.09757E+03 -2.37176E+03 -4.32125E+03 -1.66457E+04  8.77128E+03 -1.35820E+04
  1.14291E+04  3.14761E+03  7.09812E+03  7.12275E+03  7.76729E+02  1.17938E+04  5.06382E+03  8.09747E+02
 -4.26523E+02  6.55115E+03  5.93190E+03  2.45317E+03  1.14087E+04  1.02511E+04  5.35346E+03  9.24553E+03
 -9.22927E+03  1.73987E+04 -1.73386E+04  1.04794E+04 -2.38712E+04  7.29447E+03 -1.97714E+04 -1.97193E+03
 -1.08896E+04 -2.25675E+04  5.08713E+03 -1.90890E+04  1.26904E+04 -1.15561E+04  1.94901E+04 -1.11288E+04
  8.45908E+03  1.17070E+04 -1.77742E+03  1.06945E+04 -8.08483E+03  4.99522E+03 -7.40090E+03 -5.37139E+03
 -6.93919E+02 -2.18566E+03  7.47483E+03 -4.80556E+03  1.05054E+04 -2.19560E+03  1.28670E+04 -4.01943E+02
  7.07298E+03  7.84237E+03  1.45799E+03  1.03403E+04 -2.81905E+03  1.84007E+03  6.80439E+03 -1.68270E+03
  2.57049E+03 -6.70931E+03  2.09046E+03  1.87871E+03  5.13002E+03  8.79177E+03 -1.50587E+03  1.13251E+04
 -1.31510E+04  1.43644E+04 -9.11684E+03  2.71248E+03 -9.78669E+03  2.90220E+03 -1.20449E+04 -9.31699E+03
  5.74775E+02 -8.64072E+03  1.15857E+04  1.27464E+03  7.33418E+03  2.39034E+03 -6.65414E+03  8.57127E+03
 -8.87178E+03  3.58344E+03 -1.18086E+04 -6.55985E+03 -8.49077E+03 -1.03566E+04  5.40713E+03 -9.36208E+03
  6.81566E+03 -3.80084E+03  1.82116E+03  4.81842E+03  1.07265E+04 -1.56228E+03 -1.74096E+03  9.74721E+03
 -2.80468E+03  1.89333E+03 -5.68094E+03 -5.92801E+03 -4.77794E+03 -9.13156E+03  1.35893E+04 -5.33065E+03
  1.18504E+04  2.68112E+03  1.11524E+04  1.23983E+04 -2.35421E+03  7.15908E+03 -5.37576E+03  1.50011E+04
 -1.32831E+04  6.61750E+02 -9.74930E+03 -9.03313E+02 -9.09680E+03 -6.64354E+03  1.55501E+03 -7.71555E+03
  5.14240E+03 -2.42740E+03  1.06746E+04 -7.89260E+02 -1.63166E+03  1.15526E+04 -1.03119E+04  5.09801E+03
 -6.41421E+03 -3.31998E+03 -7.32259E+03 -4.23038E+03 -5.43246E+03 -5.14608E+03 -7.67868E+03  2.88110E+03
  4.26134E+03 -4.00667E+03 -1.13181E+04  9.71152E+03 -1.53834E+04 -5.04189E+03 -1.60740E+04 -2.05926E+04
 -9.57906E+03 -1.53460E+04  6.59179E+03 -1.33466E+04  1.22198E+04 -2.11167E+04  1.91170E+04 -5.49575E+03
  1.57058E+04 -3.86131E+03  1.16909E+04  1.94456E+04  8.92349E+03  1.70853E+04 -4.18943E+03  1.30404E+04
 -9.30885E+03  2.98813E+03 -4.92345E+03 -2.83620E+03 -1.05014E+03 -4.45409E+03 -6.27571E+02  1.74140E+03
 -3.72131E+03 -3.97166E+03 -6.05156E+02 -3.49821E+03 -1.96499E+03 -6.23907E+03 -6.82110E+03 -3.72382E+03
  3.93452E+03 -5.00361E+03  9.63757E+03 -8.87932E+02  1.18895E+04  9.85067E+03  6.93355E+03  1.91805E+04
 -3.21245E+03  1.43216E+04 -1.42919E+04  1.01644E+04 -1.63839E+04 -1.24697E+03 -1.11851E+04 -1.47531E+04
 -6.31996E+03 -1.89158E+04  2.85681E+03 -2.32809E+04  9.26366E+03 -1.25659E+04  1.14352E+04 -6.68968E+03
  8.91350E+03  5.74905E+03 -1.05585E+04  9.03277E+03  3.86174E+01 -2.16805E+03  1.84299E+03  4.71563E+03
 -3.99922E+02  4.32365E+02  1.05372E+04  9.00240E+02  5.46092E+03  1.10712E+04 -2.45535E+03  9.57854E+03
 -6.69035E+03  1.32829E+03 -2.08660E+04  3.89748E+03 -1.17396E+04 -7.84929E+03  4.75301E+03 -2.49469E+04
  4.71643E+03 -7.79711E+03  1.60080E+04 -1.94973E+03  1.49809E+04  3.42057E+03  1.04973E+04  9.69501E+03
  6.31736E+03  1.76564E+04 -3.94850E+03  8.61059E+03 -1.06087E+04  6.20627E+03 -5.32608E+03  1.72513E+03
 -2.89781E+03 -4.26985E+02 -4.83344E+03 -6.21941E+01 -6.95567E+03 -9.49608E+00 -7.46991E+03 -4.28597E+03
  2.94043E+02 -4.73009E+02  3.11550E+03 -9.85999E+03  7.78040E+03 -1.82591E+03  6.91414E+03 -5.65717E+03
  1.90770E+04 -3.79807E+03  5.61902E+03  3.32535E+03 -3.39573E+03  1.43460E+04 -7.54999E+03  6.42628E+03
