 $NMID ID='MM_0lb_SNR50_12hz_g40_62.RAW', FMTDAT='(8E13.5)'
 TRAMP=1., VOLUME=1. $END
  3.12824E+05  4.08058E+03  3.41121E+05  2.48650E+05  8.41082E+04  3.40315E+05 -1.31384E+05  2.54215E+05
 -1.88891E+05  8.40413E+04 -1.18314E+05 -2.86406E+04 -2.85082E+01 -5.01168E+04  5.53320E+04 -5.25123E+03
  2.99427E+04  5.67732E+04 -1.59945E+04  7.49572E+04 -5.76004E+04  6.19022E+04 -7.96434E+04  3.03145E+04
 -8.04381E+04 -1.15185E+04 -6.25233E+04 -5.23689E+04 -1.92448E+04 -6.80343E+04  2.74978E+04 -4.31741E+04
  4.02650E+04  4.19940E+03  1.85147E+04  5.07702E+04 -3.30454E+04  4.99753E+04 -7.40919E+04 -1.86274E+03
 -4.53360E+04 -5.77494E+04 -5.92419E+03 -8.08599E+04  3.52607E+04 -5.44775E+04  4.78480E+04 -1.89958E+04
  4.51048E+04  9.71038E+03  3.12721E+04  2.69381E+04  1.68252E+04  3.11961E+04 -5.94882E+03  2.89022E+04
 -2.55255E+04  1.62030E+04 -1.63742E+04 -5.51495E+02  4.97087E+03 -2.80284E+03  2.13339E+04  1.00336E+04
  1.25834E+04  3.17557E+04 -3.07042E+04  3.63825E+04 -6.43669E+04  4.19075E+03 -5.55156E+04 -4.60732E+04
 -7.55052E+03 -6.06040E+04  4.26483E+04 -5.17235E+04  5.55893E+04  3.71453E+03  3.16178E+04  3.22969E+04
 -5.85588E+03  3.31204E+04 -3.17306E+04  1.59845E+04 -3.48946E+04 -1.87751E+03 -1.76407E+04 -1.45158E+04
 -8.21147E+02 -1.37277E+04 -3.09631E+03 -2.08125E+04  7.55036E+03 -2.23736E+04  1.23596E+04 -1.45150E+04
  1.05644E+04  2.95574E+03 -6.03511E+03  1.37293E+04 -2.13010E+04 -7.65200E+03 -7.70148E+03 -3.46587E+04
  2.61324E+04 -4.13227E+04  4.95118E+04 -1.90266E+04  4.52968E+04  1.82998E+04  1.96444E+04  4.69060E+04
 -1.36981E+04  3.35582E+04 -2.13001E+04  1.12729E+02 -5.99206E+03 -2.78009E+04  2.03971E+04 -3.59274E+04
  3.57301E+04 -1.04864E+04  3.69987E+04  2.42977E+04  2.20136E+04  4.63596E+04 -4.54598E+03  5.05487E+04
 -4.02282E+04  3.76473E+04 -3.88790E+04  8.22395E+03 -4.24254E+04 -1.64986E+04 -2.03622E+04 -4.03299E+04
  1.35244E+04 -3.98901E+04  3.20272E+04 -1.67329E+04  3.38945E+04  1.20877E+04  4.24338E+03  1.93036E+04
 -1.57781E+04  1.22960E+04 -9.41852E+03 -1.10869E+04  5.51700E+03 -1.05066E+04  2.15807E+04  5.58652E+03
  1.27951E+04  2.71568E+04 -3.36048E+03  3.10128E+04 -2.15970E+04  1.03944E+04 -2.85660E+04 -1.14231E+03
 -2.59836E+04 -1.34460E+04 -8.62793E+03 -2.09910E+04  6.15705E+03 -1.64587E+04  1.75577E+04 -1.71921E+04
  2.78683E+04 -1.55447E+04  3.53774E+04  3.25877E+03  2.38704E+04  2.29575E+04  5.40342E+03  3.11678E+04
 -1.71748E+04  3.02492E+04 -2.93990E+04  3.47624E+03 -2.01696E+04 -8.16467E+03  1.48246E+03 -1.02877E+04
  1.07660E+03 -4.68072E+03 -1.95745E+03  1.15675E+04 -1.69895E+04  1.76156E+02 -1.79046E+04 -1.23219E+04
 -1.44245E+04 -1.94319E+04  1.12020E+04 -2.47296E+04  1.52469E+04 -1.54164E+04  2.23807E+04  1.70375E+03
  3.09688E+03  1.34584E+04  1.85559E+03  1.78160E+04 -1.53291E+04  1.07071E+04 -2.09145E+04 -5.87753E+03
 -1.40909E+04 -2.08791E+04 -2.18977E+03 -2.77259E+04  1.00131E+04 -1.45780E+04  2.23973E+04 -4.78033E+03
  1.96248E+04 -4.49209E+02  7.36267E+03  9.24239E+03  1.26048E+04  2.29871E+03  4.95601E+03 -1.35385E+02
  2.02779E+04 -1.00538E+03  2.36680E+04  1.91669E+04  1.15232E+04  3.10853E+04 -6.17877E+03  3.53274E+04
 -2.17735E+04  2.73528E+04 -3.62240E+04  1.52477E+04 -3.67603E+04  2.43731E+03 -2.80793E+04 -2.25938E+04
 -1.35998E+04 -2.28605E+04  1.22435E+04 -2.15247E+04  2.11870E+04 -1.37220E+04  2.48124E+04  7.77061E+03
  2.68928E+03  1.52142E+04 -1.01907E+04  1.47751E+04 -1.73040E+04  5.67859E+03 -1.63094E+04 -1.31816E+04
 -4.97171E+03 -1.45647E+04  5.16702E+03 -1.36924E+04  1.31944E+04 -4.25497E+02  3.87291E+03  5.45555E+03
 -6.81346E+03 -2.27646E+03 -8.52011E+03 -1.06133E+04  3.15783E+03 -1.96844E+04  1.32560E+04 -1.24022E+04
  1.85516E+04 -3.56403E+03  1.63099E+04  8.31731E+02  1.93027E+04  1.36090E+04  9.04686E+03  2.45723E+04
 -4.23966E+03  2.53742E+04 -1.70890E+04  1.11201E+04 -1.96328E+04  1.45805E+03 -1.05881E+04 -5.35348E+03
 -5.09333E+03 -4.56947E+03  2.71451E+03  1.10412E+03  5.74337E+02  1.21442E+03 -7.58780E+03  8.40006E+03
 -1.23162E+04 -6.75992E+03 -1.74344E+04 -1.68201E+04 -6.94973E+03 -1.70095E+04  3.90791E+03 -1.12559E+04
  1.20373E+04 -6.71017E+03  8.60438E+03  5.60910E+03 -1.62450E+03  7.81245E+03 -6.30512E+03 -2.59875E+02
 -6.27413E+03 -6.53658E+03 -5.86454E+01 -8.28273E+03  4.75620E+03 -1.39166E+04  1.42822E+04 -6.44468E+03
  1.97412E+04  9.15394E+02  1.33324E+04  9.68265E+03  4.23114E+03  1.34389E+04 -3.13413E+03  1.12287E+04
 -1.40088E+04  6.63447E+03  9.12506E+02 -2.86310E+03  6.01863E+03  1.28724E+03  1.33135E+03 -2.53885E+03
  2.39717E+03  8.40288E+03 -4.66431E+03  1.12567E+04 -9.27896E+03  1.18535E+04 -1.30853E+04  2.03796E+03
 -1.21164E+04 -2.76457E+03 -7.51465E+03 -7.95737E+03  3.52336E+03 -2.52960E+03  4.55211E+03  3.91719E+03
 -8.66543E+02  9.48913E+03 -6.23117E+03  5.96487E+03 -9.86913E+03  1.41235E+03 -5.90824E+03 -6.31256E+03
 -1.83149E+03 -1.13089E+04  3.12742E+03 -8.21364E+03  6.16134E+03 -7.33520E+03  1.30808E+04  1.81909E+03
  3.13565E+03  7.32501E+03 -5.57217E+02  8.18147E+03 -7.02142E+03  9.71212E+03 -1.14678E+04 -9.11051E+01
 -1.02755E+04 -3.07385E+03 -2.35331E+03 -6.92151E+03  3.58736E+03 -6.80237E+02  1.14818E+04 -3.46277E+03
  5.18904E+03  6.34938E+02  2.12480E+03  4.04005E+03  3.66309E+03 -1.08308E+03  2.37215E+03 -8.69333E+03
  9.99493E+03 -8.68406E+02  7.61834E+03  3.35586E+03  9.92695E+03  4.00382E+03  9.49585E+03  1.99640E+04
  1.76242E+03  1.90206E+04 -1.78320E+04  1.40492E+04 -1.86749E+04 -3.50386E+02 -1.42049E+04 -3.73632E+03
 -1.17428E+04 -1.13811E+04 -1.13975E+03 -1.55014E+04  1.74385E+03 -3.91279E+03  2.12713E+03 -4.42016E+03
  2.76917E+03 -5.61781E+03  1.15404E+04 -7.04373E+03  5.98823E+03 -8.88423E+02  5.91320E+03  2.79647E+03
  3.86245E+03  1.08989E+03  3.11131E+03  1.22843E+04  1.87878E+03  2.98269E+03 -1.00531E+04  5.69615E+03
 -1.07632E+04  1.71189E+03 -5.07120E+03 -4.63038E+03 -5.22592E+03 -1.13055E+04  1.04662E+04 -1.29329E+04
  1.19791E+04 -5.57672E+03  1.23243E+04 -3.98374E+03  1.03257E+04  5.26262E+03  3.16457E+03  1.70736E+04
 -6.47477E+03  1.35594E+04 -8.24237E+03  5.31493E+03 -7.54321E+03 -8.52200E+02 -2.26053E+03 -2.90615E+03
  2.89022E+03 -6.48327E+02 -2.75182E+03  2.68989E+03 -2.58299E+03  1.61277E+02  1.37787E+02 -4.53747E+03
 -3.51927E+03 -1.00845E+04  3.11409E+03 -6.82391E+03  7.78493E+03 -8.63256E+03  9.17591E+03  4.58234E+02
  1.12615E+04  1.74277E+03  1.15656E+04  1.22763E+04 -7.01215E+03  1.45155E+04 -4.68664E+03  6.97083E+03
 -5.44086E+03 -7.79465E+02 -8.11910E+03 -5.01370E+03  1.77386E+03 -1.35371E+04  2.39717E+03 -7.92919E+03
  7.89811E+03 -5.96153E+03  6.06822E+03  9.51301E+02  3.30761E+03  7.11419E+02 -1.48316E+01  8.50233E+02
  2.50798E+03 -7.30614E+03  2.91991E+03 -6.22430E+02  6.06741E+03  7.15621E+03 -2.57392E+03  1.04857E+04
  1.85738E+03  1.25422E+03 -5.79836E+03  5.95582E+03 -4.98553E+03  4.45062E+03 -9.29566E+03 -3.13974E+03
 -4.01296E+03 -6.14248E+03 -1.00282E+03 -1.10453E+04  7.47239E+03 -8.32968E+03  1.17475E+04 -2.06963E+03
  5.26663E+03  3.04218E+03  4.05578E+03  1.34485E+04 -7.57849E+03  1.21322E+03 -4.20164E+03 -9.12099E+02
 -5.12714E+03 -6.75448E+03  1.13658E+03 -3.63374E+03  3.90092E+02 -1.36058E+03  4.98235E+03  7.01691E+02
  8.75771E+02  4.88500E+02  5.67879E+03  4.18092E+02 -5.27007E+03  2.96139E+03 -2.01489E+03 -6.97249E+03
 -9.30681E+02 -4.53681E+03  1.52762E+03  4.63150E+03  4.16839E+03  5.65458E+03  2.61369E+03  6.58869E+03
 -5.79776E+01 -1.45332E+03 -4.32607E+03  7.12668E+03 -6.42226E+03 -5.83258E+02  1.12209E+03 -5.12626E+03
 -5.64905E+03 -2.96421E+03 -5.10669E+03  5.54226E+02  3.72185E+03 -7.33265E+03 -2.95477E+03  3.39499E+03
 -4.74868E+03 -4.22558E+03 -2.88819E+02 -2.27535E+03 -6.09632E+03 -6.98429E+03 -4.50809E+03 -6.63384E+03
  5.06561E+03 -8.38588E+03  2.15859E+03  2.28480E+03  3.29369E+03 -2.85482E+03 -3.36231E+03  4.97963E+03
  3.22105E+02 -2.28685E+03 -3.16270E+03 -2.53853E+03  2.79193E+03 -1.18542E+03  4.49383E+02 -5.33547E+03
  5.06313E+03  1.38263E+03  1.02227E+04  4.63861E+03  7.61542E+03  3.95173E+03  2.97404E+03  7.86740E+03
 -4.70418E+03 -6.88292E+02 -4.40444E+03  3.43000E+03 -1.01763E+02 -4.59197E+03 -3.66950E+03 -6.56524E+03
  9.21138E+03  1.06837E+03  6.18990E+03  1.25569E+03 -6.18781E+03  3.93445E+03  2.02726E+03  1.17435E+03
 -3.53802E+03  1.28508E+03 -7.18048E+03  2.52729E+03 -3.02131E+03  1.33429E+03 -3.81446E+03  6.69617E+03
 -4.10982E+03 -3.08855E+03 -5.22294E+03  2.41587E+03 -6.24407E+03 -6.43909E+02 -1.02622E+04  2.03937E+03
 -9.06376E+03 -9.66943E+03 -1.23849E+03 -8.97348E+03  1.39030E+03 -5.14774E+02  7.75831E+03  2.53623E+03
  8.06183E+03  2.31098E+03  1.71814E+03  7.06281E+03 -2.13369E+03  7.21110E+03 -5.66008E+02  1.07086E+03
 -3.43987E+03  2.43631E+03 -4.81193E+03 -1.78685E+03  4.89896E+02  4.82406E+03 -8.42455E+02 -1.01280E+03
 -1.10341E+03  3.21896E+03 -2.13983E+03 -2.57776E+03 -1.27716E+03  2.62857E+03  1.47628E+03 -1.66371E+03
  2.05948E+03 -9.58763E+02  5.20585E+03  1.01734E+03  2.17240E+03  8.36695E+03 -1.46042E+03  4.18604E+03
 -6.54365E+03  4.70023E+03 -3.01727E+03  1.82397E+03 -4.16148E+03  2.56933E+02 -5.15129E+03 -8.26588E+03
 -6.39899E+03  2.58300E+03 -6.35213E+02 -8.95905E+03  1.65487E+03 -8.65979E+03  8.04130E+02  1.08611E+03
  1.86580E+03 -1.71908E+03  8.48636E+02  3.45859E+03 -2.41289E+03 -7.22048E+03  8.33432E+02 -2.01658E+00
  8.63551E+03  5.21107E+02  1.52044E+03 -3.67917E+03  4.35963E+03  4.29671E+03  4.10418E+02  5.06155E+03
 -5.40603E+02  2.49606E+03 -1.25951E+03 -1.15254E+03  1.34379E+03 -1.27547E+03 -4.46803E+02 -2.52714E+03
  1.93174E+03 -5.05953E+03  2.96704E+02 -7.54308E+03  3.49673E+03  3.61177E+03  6.61036E+03  5.32792E+03
 -1.97609E+03 -1.53805E+03 -1.35882E+03  4.53034E+03 -1.16864E+03 -2.73621E+03 -2.05514E+03  9.96218E+02
  7.32265E+02  6.25482E+02 -6.45441E+02  2.05834E+03 -8.14668E+02  4.68048E+03 -2.69446E+03  4.66661E+03
 -5.79829E+03 -1.17127E+04  9.26491E+01 -7.87863E+03  2.66317E+03  3.13858E+03  1.08469E+03  1.00140E+03
  5.26965E+03 -2.77329E+03  6.38341E+02 -4.75030E+03  4.33035E+03  6.49385E+02 -2.97446E+03  2.59833E+03
