 $NMID ID='MM_0lb_SNR50_8hz_g50_60.RAW', FMTDAT='(8E13.5)'
 TRAMP=1., VOLUME=1. $END
  3.10047E+05 -1.85940E+02  3.41355E+05  2.52767E+05  8.39478E+04  3.33626E+05 -1.31867E+05  2.58094E+05
 -1.93131E+05  7.52202E+04 -1.12589E+05 -3.58522E+04 -1.60785E+03 -4.63195E+04  5.41806E+04 -4.54858E+02
  3.35304E+04  5.24982E+04 -1.15876E+04  7.36153E+04 -5.95395E+04  6.43491E+04 -9.12210E+04  2.84863E+04
 -8.06349E+04 -1.21190E+04 -5.73494E+04 -4.82523E+04 -1.23757E+04 -6.92375E+04  3.67681E+04 -4.86372E+04
  4.07081E+04 -1.79384E+03  1.36971E+04  5.32789E+04 -3.53578E+04  4.91300E+04 -6.38940E+04  1.30723E+03
 -5.38992E+04 -5.20248E+04 -1.30297E+04 -8.22556E+04  3.24082E+04 -5.69940E+04  5.15146E+04 -1.30937E+04
  5.04322E+04  5.57978E+03  3.21616E+04  3.11587E+04  2.07993E+04  3.02231E+04 -8.86189E+03  2.26604E+04
 -2.78258E+04  9.81215E+03 -1.87296E+04 -7.41719E+03  8.39644E+03 -1.25394E+04  2.07526E+04  1.90175E+04
  1.53160E+04  3.25602E+04 -3.58355E+04  3.13433E+04 -6.99278E+04  1.44694E+03 -5.68617E+04 -4.57256E+04
 -1.79776E+04 -6.91781E+04  3.74236E+04 -5.20514E+04  6.28642E+04 -2.92573E+03  2.95016E+04  3.51672E+04
 -1.91444E+03  4.19296E+04 -3.65624E+04  1.69085E+04 -3.10479E+04 -1.08769E+03 -2.83005E+04 -1.04791E+04
 -1.33432E+03 -9.20754E+03 -3.11631E+03 -1.58909E+04  9.23194E+03 -2.31694E+04  2.13911E+04 -9.02847E+03
  9.92155E+03  9.56271E+03 -1.45111E+04  9.80822E+03 -2.30801E+04 -7.67682E+03 -7.85502E+03 -4.41498E+04
  2.68365E+04 -4.71763E+04  5.10987E+04 -2.35850E+04  5.18251E+04  1.94155E+04  1.64035E+04  5.06072E+04
 -1.90613E+04  3.23926E+04 -2.76444E+04  8.50427E+03 -1.23481E+04 -2.95339E+04  1.91339E+04 -4.11045E+04
  4.20238E+04 -1.45660E+04  4.14998E+04  2.01814E+04  2.89972E+04  5.33966E+04 -6.67065E+03  5.65201E+04
 -3.93031E+04  3.23842E+04 -4.50646E+04  9.95050E+03 -5.05041E+04 -1.86692E+04 -2.21854E+04 -4.40255E+04
  7.66035E+03 -4.33829E+04  4.28263E+04 -1.04698E+04  2.64178E+04  1.06697E+04  1.32038E+03  2.16234E+04
 -1.52446E+04  1.87668E+03 -6.30902E+03 -1.21586E+04  8.19138E+03 -5.99197E+03  1.09177E+04  5.11324E+03
  2.09762E+04  2.50336E+04  1.40338E+03  3.05788E+04 -1.82379E+04  1.37791E+04 -2.80692E+04 -5.60717E+03
 -2.37293E+04 -1.64056E+04 -1.47170E+04 -3.31763E+04  6.09264E+03 -2.76214E+04  2.64000E+04 -2.80601E+04
  2.79809E+04 -2.19876E+04  4.00393E+04  1.62918E+03  3.46333E+04  2.84376E+04 -1.20467E+03  4.16617E+04
 -2.95402E+04  2.88336E+04 -2.61258E+04  9.28636E+03 -1.39314E+04 -1.02896E+04 -8.64493E+03 -1.07510E+04
 -6.58542E+02  5.80673E+03 -1.03500E+04  1.30031E+04 -1.78971E+04  9.68846E+03 -1.93175E+04 -9.91395E+03
 -6.97261E+03 -2.42909E+04  8.80603E+03 -2.81426E+04  2.09951E+04 -2.03742E+04  2.25063E+04  3.04677E+03
  1.32609E+04  1.58920E+04 -6.66378E+03  3.23399E+04 -1.50585E+04  1.49720E+04 -2.01549E+04 -8.00594E+02
 -2.24016E+04 -2.49716E+04  1.67255E+02 -2.93118E+04  8.90785E+03 -2.14492E+04  2.22767E+04 -9.84193E+03
  2.72079E+04  1.59203E+03  1.63504E+04  1.06868E+04  9.07728E+03 -6.39308E+03  1.06634E+04  2.66269E+03
  2.05880E+04  5.44346E+03  2.11822E+04  1.87761E+04  1.90011E+04  3.40308E+04 -8.84482E+03  4.95476E+04
 -2.34366E+04  4.40586E+04 -5.03415E+04  1.94440E+04 -4.42516E+04 -4.20434E+02 -3.95410E+04 -2.67969E+04
 -1.24167E+04 -3.91465E+04  1.33730E+04 -2.78636E+04  2.72508E+04 -1.88284E+04  2.58298E+04  1.57456E+04
  8.89798E+03  1.90520E+04 -1.37716E+04  1.69925E+04 -2.13705E+04  1.58183E+02 -1.29028E+04 -1.39249E+04
 -5.37531E+03 -1.70474E+04  1.21006E+04 -1.37833E+04  9.70992E+03 -4.95050E+03  7.82449E+01  4.52443E+03
 -1.57326E+04  5.25851E+03 -1.16000E+04 -1.00953E+04  4.94125E+02 -2.01489E+04  7.61312E+03 -1.85188E+04
  2.37942E+04 -5.97122E+03  2.45802E+04 -1.69056E+03  2.58799E+04  2.36821E+04  4.88768E+03  3.56611E+04
 -5.29079E+03  3.59531E+04 -2.23234E+04  1.83924E+04 -2.83827E+04 -3.13832E+02 -2.34907E+04 -4.81532E+02
 -1.27788E+04 -1.09971E+04 -4.92557E+02  4.94001E+03 -3.63993E+03 -2.10607E+01 -8.70669E+03  7.47831E+03
 -1.55593E+04  4.11660E+03 -1.29933E+04 -7.20583E+03 -2.53899E+03 -2.49092E+04  7.55025E+03 -1.41639E+04
  1.86407E+04 -6.74850E+03  9.17251E+03  6.71292E+03 -2.15294E+03  2.56279E+02 -4.48005E+03 -4.57457E+02
 -4.97390E+03 -1.43379E+04 -2.86702E+03 -2.13114E+04  9.06024E+03 -1.85236E+04  1.53374E+04 -1.69882E+04
  2.92403E+04  1.79222E+03  1.36466E+04  1.55522E+04  3.42044E+03  2.66574E+04 -1.17408E+04  1.84795E+04
 -1.59470E+04  9.33325E+03 -9.99383E+03 -6.39236E+03  4.70846E+03 -4.86377E+03  5.91375E+03  1.74797E+03
  7.69591E+03  6.87376E+03  6.73519E+03  1.04451E+04 -1.16291E+04  1.29585E+04 -1.56074E+04  8.02786E+03
 -1.87382E+04 -3.71256E+03  1.24815E+03 -2.32777E+04  1.37529E+04 -9.09023E+03  8.81706E+03  7.09392E+03
 -2.97542E+03  4.71667E+03 -1.59010E+04  1.19373E+04 -1.69444E+04  8.74232E+03 -1.42896E+04 -4.21265E+03
 -1.04170E+04 -1.22080E+04  8.27670E+03 -1.72965E+04  2.09355E+04 -9.47610E+03  1.90059E+04  6.79043E+03
  1.49735E+04  1.30406E+04 -4.37190E+03  1.76565E+04 -1.35643E+04  1.18213E+04 -1.82327E+04  3.24226E+03
 -1.31243E+04 -9.88279E+03 -6.96751E+03 -1.47488E+04  2.86419E+03 -1.27504E+04  3.10600E+03 -5.26553E+03
  5.00736E+03  6.07663E+03 -3.89562E+02  7.00536E+03 -3.99718E+03 -5.26620E+03  6.12289E+03 -3.54050E+03
  1.18650E+04 -7.15393E+03  1.02020E+04 -5.07933E+02  1.95218E+04  1.25232E+04  1.14640E+04  1.92693E+04
 -4.22220E+03  2.51662E+04 -2.29691E+04  2.19603E+04 -2.31193E+04  5.18065E+03 -1.66525E+04 -1.07919E+04
 -1.24180E+04 -2.21715E+04  4.68796E+02 -1.33230E+04  2.10212E+03 -7.12650E+03  2.04818E+03 -1.20547E+04
  5.00187E+03 -5.07440E+03  5.90714E+03 -1.92773E+03  2.91150E+03 -4.79777E+03  7.63698E+03 -6.19556E+03
  8.85370E+03  3.09764E+03  2.17343E+03  1.08761E+04  1.99106E+03  1.20038E+04 -8.24020E+03  1.55010E+04
 -1.81405E+04 -8.00074E+02 -1.09782E+04 -8.27150E+03 -2.84852E+03 -1.25807E+04  1.20892E+04 -2.56306E+04
  1.83581E+04 -1.13997E+04  2.51920E+04  2.71828E+03  1.44322E+04  1.68805E+04  7.55404E+03  2.52316E+04
 -6.51049E+03  2.10266E+04 -9.63595E+03  8.61954E+03 -7.24268E+03 -2.36860E+03 -3.43163E+03 -5.58644E+03
  2.33091E+03 -4.19799E+02 -2.73648E+03  5.71039E+03 -5.32647E+03 -5.13888E+03 -3.85632E+03  1.03226E+03
 -5.23957E+03 -8.42545E+03 -1.19648E+03 -2.16475E+04  6.88686E+03 -1.70992E+04  1.68641E+04 -7.10543E+03
  1.46053E+04  1.13198E+04  4.57560E+03  1.37871E+04 -4.14013E+03  1.78442E+04 -1.14031E+04  1.08596E+04
 -1.64901E+04  2.30645E+03 -1.61333E+04 -1.13756E+04  4.82496E+03 -1.86895E+04  7.93841E+03 -6.65162E+03
  1.12378E+04  1.15878E+03  1.19489E+04  1.14398E+04  3.39699E+03  5.63380E+03  7.20087E+03  2.80269E+03
  4.33318E+03  4.51063E+03  9.80099E+03  3.66467E+03  5.12050E+03  9.40811E+03  9.50944E+03  4.91608E+03
 -6.88125E+03  1.49480E+04 -1.85281E+04  8.61674E+03 -1.84549E+04  1.80238E+03 -1.49719E+04 -4.09924E+03
 -1.31697E+04 -1.80618E+04  1.98646E+03 -1.64239E+04  2.91041E+03 -1.39466E+04  2.31597E+04  9.35913E+02
  7.22707E+03  7.53773E+03  2.03261E+03  7.40222E+03 -3.61649E+03  1.18386E+04 -6.14612E+03  1.48741E+03
 -7.01998E+03 -1.63611E+04 -3.02214E+03 -1.78389E+04  1.32288E+04 -4.05037E+03  7.35541E+03  3.31796E+03
  2.85278E+03  7.36894E+03  2.51001E+03 -2.96010E+02 -2.61074E+03 -1.60525E+03 -1.62457E+03 -1.86138E+03
  4.76933E+03  1.34605E+03 -9.18020E+02  7.11662E+03  5.49155E+03  8.31664E+03 -1.16489E+03  1.67432E+04
 -8.09400E+03  1.94266E+03 -1.41737E+04  3.99413E+03 -1.40401E+04 -8.95084E+03  1.33653E+03 -1.11692E+04
 -3.28931E+03 -7.61135E+03  5.57273E+03  2.82502E+03  9.32094E+03  7.10802E+03  5.15390E+03  3.19774E+03
 -8.33865E+03  5.01792E+03 -8.47803E+03 -6.24069E+03 -9.16349E+03 -1.30690E+04 -2.37372E+03 -9.59189E+03
  9.28384E+03 -4.78373E+03  1.12981E+04 -7.16348E+03  5.60976E+03 -9.76350E+02 -1.19672E+03  1.00122E+04
 -5.27625E+03 -2.17559E+03 -9.66885E+03 -5.49187E+03 -7.60049E+02 -1.84935E+04  1.33016E+04 -1.55554E+03
  9.15391E+03  9.03490E+02  1.31136E+04  8.07019E+03  4.68752E+03  6.21361E+03 -4.08107E+03  1.08045E+04
 -8.78355E+03  1.89584E+03 -3.80758E+03  5.44299E+03 -2.54686E+03 -5.44373E+03  2.55451E+03 -8.61715E+03
  3.76282E+02 -4.44211E+03  1.28439E+04 -3.24140E+03  1.10788E+03  7.40682E+03 -7.29031E+03  9.14584E+03
 -6.59546E+03  6.00960E+03  2.01147E+02  2.74447E+03 -3.25325E+03  3.51217E+03  2.00870E+03  5.34030E+03
 -1.13099E+04 -1.01892E+03 -8.97646E+03  9.35006E+03 -6.56829E+03  3.43650E+03 -2.02000E+04 -9.06211E+02
 -5.39593E+03 -1.58418E+04  2.91766E+03 -2.49022E+04  1.23743E+04 -1.15256E+04  1.42409E+04 -3.40235E+03
  1.58081E+04  6.69186E+03  7.81237E+03  1.37904E+04 -2.15686E+03  1.86057E+04 -3.96510E+03  3.95707E+03
 -5.61623E+03  4.90347E+03 -8.50585E+03 -3.26322E+03 -3.08442E+03 -7.59535E+02 -3.43080E+03  1.72791E+03
  7.00596E+03 -1.14942E+03 -5.12838E+02 -1.97773E+03 -4.84013E+03 -5.25772E+03  3.73278E+03 -5.03657E+03
  3.95151E+03 -2.03825E+03  1.27620E+04 -8.63813E+02  7.78441E+03  7.12909E+03 -4.11425E+03  1.90019E+04
 -5.29222E+03  2.11195E+04 -1.13362E+04  4.35860E+03 -1.54958E+04 -3.66780E+03 -1.43683E+04 -8.39316E+03
 -3.31620E+02 -1.26004E+04  6.64364E+02 -1.14107E+04  7.88450E+03 -8.13046E+03  1.20779E+04 -5.30006E+03
  1.08631E+04  6.70649E+03  2.59914E+03 -5.09163E+03 -1.86973E+03 -2.45917E+03 -1.10262E+03  2.31186E+03
  2.85202E+03  5.34723E+03  8.80813E+03 -4.19303E+02  3.61630E+03  3.22531E+03 -1.08684E+02  8.51229E+03
 -6.66747E+03  8.70371E+03 -6.73214E+03  5.82242E+03 -1.08728E+04 -1.42099E+04  5.18573E+01 -1.32294E+04
 -1.74016E+03 -8.05358E+03  1.30690E+04 -2.87583E+03  5.34296E+03  2.39187E+03  3.71974E+03  8.18879E+03
  1.21955E+03  1.07610E+04 -2.77915E+03  5.21962E+03 -6.27054E+03  5.46035E+03 -4.49231E+03 -8.49579E+03
  1.31576E+03  1.86159E+02 -1.18502E+02 -2.03378E+03  3.88012E+03  6.82605E+03 -6.07419E+03 -1.86893E+03
 -8.57926E+03 -7.65110E+03 -1.37567E+03 -1.09772E+04  7.12376E+03 -6.10720E+03  9.28197E+03 -1.33635E+03
  3.08221E+03 -1.53761E+03  1.06669E+04  1.25212E+04  3.41506E+03  4.48503E+03 -1.66200E+04  6.91754E+03
