 $NMID ID='MM_0lb_SNR50_16hz_g50_79.RAW', FMTDAT='(8E13.5)'
 TRAMP=1., VOLUME=1. $END
  3.08840E+05  1.61414E+03  3.36058E+05  2.52438E+05  7.89870E+04  3.34806E+05 -1.28459E+05  2.52687E+05
 -1.90927E+05  7.88477E+04 -1.10621E+05 -3.46799E+04 -8.75798E+02 -4.95605E+04  5.44440E+04 -4.33012E+03
  3.87840E+04  5.44466E+04 -1.95961E+04  7.32497E+04 -5.61792E+04  6.17326E+04 -8.14824E+04  3.01252E+04
 -8.07594E+04 -1.47728E+04 -5.67763E+04 -4.86450E+04 -1.53770E+04 -6.89753E+04  2.53841E+04 -4.66962E+04
  4.18215E+04  1.76410E+03  1.83938E+04  5.07191E+04 -3.62120E+04  4.99101E+04 -6.13042E+04  3.15725E+03
 -5.46125E+04 -5.53879E+04 -4.51288E+03 -7.62138E+04  3.35586E+04 -5.67115E+04  4.88792E+04 -1.44690E+04
  3.96144E+04  8.63507E+03  3.22912E+04  2.63429E+04  1.50018E+04  3.01196E+04 -9.00836E+03  2.85221E+04
 -2.35584E+04  1.28343E+04 -1.75733E+04 -4.64003E+03  5.24316E+03 -6.14558E+03  2.26493E+04  1.09257E+04
  6.27446E+03  3.64411E+04 -2.99850E+04  3.13893E+04 -6.30981E+04  6.34061E+03 -5.78905E+04 -4.42611E+04
 -9.16178E+03 -5.73216E+04  3.59189E+04 -4.29676E+04  5.73451E+04 -1.10180E+03  3.60018E+04  3.22532E+04
 -4.86202E+03  3.30293E+04 -2.68656E+04  9.34211E+03 -2.88069E+04  1.15136E+03 -1.89485E+04 -6.22835E+03
 -7.16753E+03 -7.63261E+03  1.03894E+03 -1.68441E+04  5.60357E+03 -2.17991E+04  1.99356E+04 -1.26327E+04
  1.17574E+04  4.74923E+03 -8.91728E+03  1.50941E+04 -1.78173E+04 -1.61841E+03 -1.10947E+04 -2.90374E+04
  2.20252E+04 -3.75302E+04  4.81832E+04 -1.90957E+04  4.35762E+04  2.19843E+04  1.83077E+04  4.38715E+04
 -1.63460E+04  3.21514E+04 -2.38934E+04  6.25264E+01 -8.77276E+03 -2.61540E+04  2.06920E+04 -3.68608E+04
  3.70721E+04 -5.95042E+03  3.41025E+04  2.45782E+04  1.65425E+04  4.86974E+04 -7.88820E+03  4.61284E+04
 -2.75929E+04  3.30374E+04 -4.09880E+04  1.34823E+04 -4.41166E+04 -1.57102E+04 -2.40709E+04 -3.51003E+04
  4.47892E+03 -3.44693E+04  2.92544E+04 -1.30243E+04  2.89488E+04  1.47503E+04  1.54328E+03  1.81591E+04
 -1.29698E+04  8.50978E+03 -8.62518E+03 -4.94965E+03  1.40442E+03 -1.15786E+04  1.78978E+04  3.43502E+03
  1.37292E+04  2.45432E+04 -7.38499E+03  2.27057E+04 -2.18184E+04  1.27723E+04 -2.98750E+04 -7.09032E+03
 -1.78960E+04 -2.03528E+04 -3.55491E+03 -1.98348E+04  5.76360E+03 -1.39929E+04  1.29844E+04 -1.78424E+04
  2.59696E+04 -1.39086E+04  3.24528E+04  1.72351E+03  2.51154E+04  2.00566E+04  3.55121E+03  3.26027E+04
 -1.44087E+04  2.81872E+04 -2.87085E+04  1.37831E+04 -2.44908E+04 -7.06593E+03 -4.11507E+03 -1.55277E+04
  2.77414E+03 -3.14316E+02 -1.29943E+03  7.07863E+03 -9.25971E+03  6.52771E+03 -1.41263E+04 -3.11360E+03
 -8.84653E+03 -1.68376E+04  3.63410E+03 -2.14399E+04  1.56783E+04 -1.66010E+04  1.39960E+04 -1.56869E+03
  1.33679E+04  1.61773E+04 -4.66688E+03  1.64324E+04 -1.25675E+04  1.09851E+04 -2.17641E+04 -6.90894E+03
 -1.17007E+04 -1.49443E+04 -2.80137E+02 -2.13777E+04  1.18635E+04 -1.25714E+04  1.56319E+04 -9.12322E+03
  1.58468E+04 -2.06145E+03  1.08762E+04  1.02813E+03  8.61364E+03 -2.77902E+03  6.22112E+03 -5.54523E+02
  1.98656E+04 -4.44619E+02  1.92825E+04  1.75244E+04  1.20951E+04  2.67008E+04 -7.76489E+02  2.76019E+04
 -2.06741E+04  2.27513E+04 -2.67070E+04  1.60199E+04 -3.17091E+04 -7.72314E+03 -2.58999E+04 -1.47622E+04
 -9.50548E+03 -2.59357E+04  8.93724E+03 -2.31971E+04  1.88877E+04 -1.38464E+04  1.77798E+04  5.16577E+03
  7.82179E+03  1.02540E+04 -6.76364E+03  5.29468E+03 -1.62258E+04  1.65218E+03 -8.44208E+03 -9.54932E+03
 -4.63279E+03 -1.19656E+04  9.06096E+03 -1.35678E+04  1.10513E+04  8.89270E+02  3.13728E+03  5.18387E+03
 -9.51963E+03 -2.24101E+02 -5.43495E+03 -4.92974E+03 -1.37307E+02 -1.23955E+04  1.11688E+04 -1.20395E+04
  1.01574E+04 -5.76575E+03  1.70856E+04  3.29104E+03  1.06998E+04  1.17671E+04  7.09891E+03  1.80607E+04
 -3.12935E+02  2.38989E+04 -1.33367E+04  1.45606E+04 -1.26387E+04  4.72174E+03 -1.35845E+04 -3.01338E+03
 -2.87580E+03 -2.55959E+03  1.08039E+03  1.21625E+02  2.55540E+03  4.47364E+03 -3.92423E+03  2.77627E+03
 -5.44437E+03  2.34206E+03 -8.88543E+03 -9.06322E+03 -3.79552E+03 -1.35681E+04  3.43420E+03 -9.27396E+03
  9.76982E+03 -2.73972E+03  6.86866E+03 -1.34266E+03 -2.19721E+03  6.46462E+03 -4.27872E+03 -7.98572E+02
 -6.59286E+03 -2.47481E+03  5.20246E+02 -5.76454E+03  7.38753E+03 -1.04017E+04  8.90064E+03 -2.67552E+03
  1.44575E+04 -3.10385E+03  1.30057E+04  8.83643E+03  5.85995E+03  1.26695E+04 -6.77848E+03  1.12512E+04
 -9.34841E+03  8.58529E+03 -1.74994E+03 -1.08110E+03  1.52157E+03 -1.33861E+03  7.24899E+03 -3.02986E+03
  9.18270E+03  6.53815E+03 -6.94307E+02  6.31648E+03 -6.03723E+03  6.82494E+03 -7.56142E+03 -2.80521E+03
 -3.70265E+03 -7.49863E+03 -5.85908E+03  2.58210E+02  1.10260E+04 -3.90750E+03  7.37008E+03  5.61956E+03
  3.71114E+03  4.59072E+03 -4.68461E+03  9.11822E+03 -4.76702E+03 -3.04435E+02 -6.59734E+03  2.05853E+03
 -7.76333E+03 -3.48829E+03  9.51612E+02 -6.27389E+03  9.85468E+03 -4.39518E+03  1.14789E+04  2.49059E+03
  5.58101E+03  1.23776E+04  5.01741E+03  1.25907E+04 -5.94654E+03  1.32314E+04 -1.06138E+04  1.81680E+03
 -7.88373E+03 -6.16986E+03 -1.52844E+03 -5.41882E+03  6.61235E+03 -3.93324E+03  2.33959E+03 -6.40125E+03
  3.80438E+03 -3.59642E+03 -2.37299E+03 -9.89664E+02  9.20982E+02 -3.12754E+03  4.03012E+03  1.34602E+03
  1.06602E+04 -2.61831E+03  9.46975E+03  6.01218E+03  8.92262E+03  9.56714E+02  9.31436E+03  7.74547E+03
  2.47558E+03  1.42111E+04 -7.84326E+03  8.87981E+03 -1.43642E+04 -2.14120E+03 -1.14459E+04 -2.19827E+03
 -1.81020E+03 -8.52771E+03 -3.50967E+03 -9.78204E+03  8.48107E+02  9.26034E+02  4.85158E+02 -4.51784E+03
  5.32102E+02 -4.59629E+02  4.03894E+03 -4.96852E+03  1.16983E+02 -7.11388E+02  1.56276E+03 -4.47669E+03
  6.58967E+03  4.48055E+02  2.59571E+03 -1.90731E+03 -1.20931E+03  7.30601E+03 -7.10613E+02  1.53616E+03
 -6.74467E+03 -3.86552E+03 -6.96003E+03 -6.03927E+03 -2.81884E+02 -1.18500E+04  3.87650E+03 -7.74222E+03
  5.16711E+03 -5.14362E+03  1.07400E+04  2.94456E+03  8.16195E+03  5.32774E+03  2.14011E+03  5.90369E+03
 -2.16963E+03  2.34922E+03 -4.60478E+03  4.86151E+03 -2.47707E+03 -3.08252E+03 -1.15424E+03 -4.85962E+03
 -4.09615E+03  1.59217E+02 -4.96891E+03 -1.55131E+03 -6.39057E+03  4.27632E+03 -6.44011E+03 -1.34332E+03
 -3.73722E+03 -2.21766E+03  9.64387E+02 -6.53879E+03  1.01531E+04 -7.76464E+03  5.93247E+03  1.71665E+03
  8.86102E+03  2.95718E+03  2.59905E+03  8.72106E+03 -1.46194E+03  5.73717E+03 -1.18378E+03  4.45271E+03
 -5.92391E+03 -9.14982E+02 -3.76000E+03 -1.37471E+03  1.45036E+03 -8.30264E+02  2.51185E+03 -1.59091E+03
 -9.67626E+02 -2.87822E+03  2.99710E+03 -3.60848E+03  3.75896E+03 -2.26575E+01  6.88049E+03 -1.81382E+03
  5.21096E+03 -7.93105E+02  3.16825E+03 -2.12360E+02  3.36439E+02  3.59293E+02  3.17128E+03  1.23019E+03
 -5.65414E+03  1.85834E+03 -8.89243E+03  6.19277E+03 -5.06900E+03 -1.62771E+03 -1.72326E+03  6.37902E+02
  3.19869E+02 -4.53055E+03  2.75320E+03 -1.09207E+04  1.86448E+03 -5.12387E+03  6.31026E+03 -7.29908E+02
  9.54994E+03 -8.18232E+02 -1.38261E+03 -4.93406E+02 -1.54824E+03  2.54083E+03  8.04359E+02  1.78221E+03
 -3.15374E+03 -1.01359E+03  3.93751E+03 -4.87622E+03  4.98659E+03 -4.35434E+03 -1.02158E+03  8.54351E+02
  8.00078E+02  1.68949E+03  2.80097E+03 -3.31719E+02 -3.67277E+03  2.84770E+03  7.62408E+02  3.71298E+02
 -5.84392E+03  2.68631E+03  5.16414E+03 -1.65260E+02  3.12921E+03  6.20251E+03  7.85878E+02  5.43569E+02
 -3.26454E+03 -2.19842E+03 -4.80625E+03  3.09818E+03 -6.70137E+03  4.60535E+02 -6.06340E+02  3.17081E+02
 -1.02863E+03 -5.51462E+03  3.61032E+01 -4.58551E+02 -3.80502E+03  4.52071E+03  5.20125E+02 -1.00664E+02
 -3.18126E+03 -2.01736E+03 -3.03174E+03 -2.17450E+03 -1.37322E+03 -3.95597E+03  1.09756E+03 -9.76032E+02
  8.59836E+03 -2.34970E+03  4.53761E+03  6.43168E+02  2.52240E+03  1.31180E+03  1.49102E+02  3.59539E+03
 -6.58193E+03 -2.32326E+03 -3.11444E+03  1.75917E+03  6.00290E+02 -2.68133E+03 -1.59370E+02 -2.64116E+03
 -1.73350E+03  5.21078E+03  1.51410E+03  7.94243E+02  2.59908E+03  1.49513E+03 -6.95388E+02  3.42691E+03
 -5.23811E+03  3.41517E+03 -5.34151E+03 -8.00396E+02 -1.12031E+02  2.88498E+02 -3.99497E+03 -4.11356E+03
  2.46999E+03 -4.65171E+02  1.07553E+03  6.22116E+03 -1.17041E+03  2.82052E+03 -2.11060E+02  3.96922E+03
 -1.58432E+03  2.52653E+03 -8.97433E+02  3.87031E+03 -1.37588E+03  3.99982E+03  2.67587E+03  1.43518E+03
  7.51917E+02  2.23360E+03 -5.81679E+03 -3.61758E+02 -2.89455E+03  5.75383E+03 -7.69349E+02 -3.88908E+03
 -2.42677E+03 -3.46095E+03 -3.41002E+02 -5.68317E+03  6.81315E+03  7.50414E+02  3.85240E+02  5.14977E+02
  5.70149E+03  5.18335E+02  1.76009E+03  4.20929E+03 -1.22734E+03 -6.93271E+02 -4.42938E+03  1.04496E+03
 -2.06544E+03 -2.78465E+03 -3.56741E+03 -2.49835E+03  3.15577E+02 -1.65338E+03  7.24683E+02  4.94370E+02
 -6.39861E+03  3.43848E+03 -1.74811E+03 -2.82148E+03 -1.42917E+02  9.77215E+02  1.67313E+03 -4.12064E+03
 -2.00321E+02 -2.93750E+03  1.29285E+03  4.57916E+03  5.24130E+03  2.45277E+03  3.04270E+03  8.54494E+03
 -4.98599E+03  6.72818E+03  5.18767E+02  2.17564E+03 -1.48104E+03 -1.57313E+03 -6.10478E+03  9.92861E+02
 -2.96411E+03 -1.12858E+03 -9.62612E+02  1.19846E+03  3.60863E+03 -3.27225E+03 -2.61854E+03  3.48886E+02
  1.47687E+03  5.97394E+02 -2.70128E+02 -8.04144E+02  8.56941E+02 -3.71738E+03 -2.11911E+03 -2.26012E+02
  6.73335E+03  3.04689E+03  2.00920E+02 -9.71376E+02 -1.95954E+03 -1.07757E+01  2.27015E+03 -1.91772E+03
  2.00978E+03 -1.33130E+03 -1.78043E+03  1.21387E+03 -7.65494E+02 -3.84425E+02  8.34510E+02 -1.35336E+03
  2.63613E+03 -3.95263E+03  5.58999E+01 -3.48023E+03 -1.77684E+02 -1.06334E+03  5.37841E+01  3.25395E+03
 -1.76981E+03  5.86909E+03 -4.02280E+03  3.69489E+03 -2.21825E+03  9.30052E+01  3.10511E+03  8.00418E+02
  3.77031E+02  3.14435E+03 -1.20562E+03  1.96135E+03 -1.13811E+03  9.99609E+02 -1.30977E+03 -3.09657E+02
 -1.54386E+03  2.72261E+03 -6.92313E+02 -3.53883E+03  4.98170E+03 -4.77557E+03  2.33704E+03 -8.14516E+02
  1.74904E+02  3.45791E+03  2.29772E+02 -8.73090E+02  2.12378E+03  8.31233E+02 -5.13593E+03 -1.10764E+03
