 $NMID ID='MM_0lb_SNR50_12hz_g40_86.RAW', FMTDAT='(8E13.5)'
 TRAMP=1., VOLUME=1. $END
  3.09681E+05  1.12644E+03  3.33810E+05  2.47603E+05  8.09486E+04  3.38967E+05 -1.33020E+05  2.50072E+05
 -1.89401E+05  8.03252E+04 -1.17549E+05 -2.54852E+04 -1.48608E+03 -5.02776E+04  5.47938E+04  4.01298E+03
  3.87244E+04  5.27754E+04 -1.93146E+04  7.98183E+04 -6.08597E+04  6.13388E+04 -9.08330E+04  2.97844E+04
 -8.17192E+04 -7.37471E+03 -5.53788E+04 -4.37315E+04 -1.29597E+04 -6.51933E+04  2.66298E+04 -4.54982E+04
  3.85322E+04  1.52926E+03  1.64623E+04  4.51049E+04 -3.18794E+04  4.81291E+04 -6.35080E+04  5.24506E+03
 -5.52373E+04 -5.78085E+04 -5.48865E+03 -7.95721E+04  3.17175E+04 -5.58974E+04  4.62061E+04 -1.38728E+04
  3.84279E+04  1.09277E+04  3.46661E+04  2.19054E+04  1.62227E+04  3.29141E+04 -3.63764E+03  2.50357E+04
 -2.22532E+04  1.33606E+04 -2.16991E+04 -4.49991E+03  1.61425E+03 -1.32964E+04  2.00602E+04  1.31976E+04
  6.09624E+03  3.24377E+04 -3.25755E+04  3.27422E+04 -6.42657E+04  3.32263E+03 -5.80002E+04 -4.33714E+04
 -1.63220E+04 -6.92485E+04  3.87253E+04 -4.97076E+04  5.85395E+04 -5.26032E+03  3.22155E+04  3.18637E+04
 -6.68643E+03  3.25936E+04 -2.78984E+04  1.11808E+04 -2.83553E+04 -2.07863E+03 -1.57624E+04 -1.40127E+04
 -6.83917E+03 -1.76159E+04 -2.39608E+03 -1.28672E+04  7.20758E+03 -2.69257E+04  1.60807E+04 -8.25715E+03
  1.34691E+04  3.13202E+03 -1.46146E+04  1.18987E+04 -2.58706E+04 -4.60178E+03 -6.01148E+03 -3.48228E+04
  2.20446E+04 -4.50567E+04  4.86339E+04 -1.71859E+04  4.63409E+04  1.98935E+04  1.73290E+04  4.31203E+04
 -1.36007E+04  3.03086E+04 -2.67571E+04  4.56521E+02 -9.89861E+03 -2.43256E+04  1.82725E+04 -3.69267E+04
  4.50313E+04 -8.74533E+03  4.07227E+04  2.02803E+04  2.03999E+04  5.26207E+04 -9.01102E+03  4.90868E+04
 -3.40760E+04  3.54531E+04 -4.02059E+04  8.49665E+03 -4.63589E+04 -1.61951E+04 -2.71124E+04 -3.81588E+04
  4.96206E+03 -3.93725E+04  3.14046E+04 -1.68098E+04  2.39380E+04  8.85076E+03  4.87119E+03  1.83275E+04
 -8.60380E+03  1.00030E+04 -1.30666E+04 -4.42133E+03  4.38201E+03 -1.40082E+04  1.88947E+04  3.98216E+03
  1.23332E+04  2.45308E+04 -3.46797E+03  2.29914E+04 -1.86544E+04  9.44618E+03 -2.86535E+04 -2.14693E+03
 -2.07285E+04 -1.71694E+04 -1.44277E+04 -1.59397E+04  7.96995E+03 -2.19476E+04  1.57512E+04 -2.04478E+04
  1.81722E+04 -1.60065E+04  3.27231E+04  3.22266E+03  2.08134E+04  2.53833E+04  8.86398E+03  3.59119E+04
 -2.08549E+04  2.88678E+04 -3.43463E+04  1.18436E+04 -2.08196E+04 -9.59121E+03 -4.67642E+03 -1.43391E+04
 -8.41490E+02 -3.03233E+03 -8.05077E+02  8.33121E+03 -2.23872E+04  3.20132E+03 -1.31246E+04 -9.08141E+03
 -1.01801E+04 -2.35166E+04 -1.24895E+03 -2.45973E+04  1.63494E+04 -1.80147E+04  1.90543E+04 -4.78781E+03
  9.52072E+03  1.44225E+04 -1.69656E+03  1.67056E+04 -1.60143E+04  1.04910E+04 -1.89580E+04 -3.60716E+03
 -1.31324E+04 -2.04166E+04 -5.45047E+03 -2.21667E+04  1.34973E+04 -2.00338E+04  2.02219E+04 -1.08687E+04
  2.13107E+04 -4.55899E+03  1.52473E+04  5.63583E+03  7.98860E+03 -2.00221E+03  1.05713E+04 -1.58994E+03
  1.45098E+04  2.15359E+03  1.70150E+04  1.94006E+04  1.25067E+04  3.26907E+04 -2.89711E+03  3.08338E+04
 -1.81739E+04  2.80304E+04 -3.06662E+04  1.57881E+04 -3.62835E+04 -3.68233E+03 -2.59022E+04 -1.59425E+04
 -1.12706E+04 -2.95068E+04  1.05322E+04 -2.56723E+04  2.67172E+04 -8.31522E+03  2.37567E+04  1.20508E+03
  8.15453E+03  1.42533E+04 -8.25613E+03  1.36242E+04 -2.09953E+04  2.28471E+03 -1.20584E+04 -7.10194E+03
 -3.63343E+02 -1.37172E+04  5.54625E+03 -1.11859E+04  9.53882E+03 -3.74555E+03  3.63101E+03  4.08604E+03
 -4.18224E+03 -6.73806E+01 -8.63833E+03 -4.59207E+03  1.05783E+03 -2.05700E+04  1.46224E+04 -1.39818E+04
  2.19338E+04 -9.56712E+03  1.85896E+04  4.75806E+03  1.48945E+04  1.84032E+04  6.36251E+03  2.39163E+04
 -1.02347E+03  2.68915E+04 -1.81083E+04  1.02209E+04 -1.82901E+04  6.53755E+03 -1.01737E+04 -1.26059E+03
 -5.56175E+03 -3.32850E+03 -4.47391E+03  1.00378E+03 -2.53908E+03  3.32736E+03 -4.06501E+03  2.89187E+02
 -1.10056E+04 -3.24760E+02 -1.05040E+04 -8.07676E+03 -9.55587E+03 -1.62877E+04  1.03230E+04 -1.60762E+04
  8.86249E+03 -4.72470E+03  8.53891E+03  7.39855E+03 -6.88458E+02 -9.62263E+02 -1.10631E+04 -2.86034E+03
 -5.70446E+03 -1.25034E+04 -2.38093E+03 -1.13580E+04  7.83048E+03 -1.61456E+04  1.82444E+04 -5.18945E+03
  1.62799E+04  5.41938E+03  1.33528E+04  5.99741E+03  3.99451E+03  1.38902E+04 -8.14098E+03  1.33465E+04
 -1.09443E+04  4.65006E+03 -3.15957E+03  1.82655E+03  5.03189E+03 -6.96620E+03  1.07808E+04 -3.38427E+03
  9.46674E+03  4.34288E+03 -5.43731E+03  4.04792E+03 -1.14200E+04  8.08716E+03 -1.02196E+04  8.58264E+02
 -5.95222E+02 -1.17738E+04  1.70142E+03 -8.10632E+03  1.17731E+04 -3.65943E+03  1.22192E+04  4.08761E+03
 -2.49919E+02  7.94615E+03 -4.73734E+03  1.14112E+04 -1.39963E+04  9.14354E+03 -8.92538E+03 -6.66979E+03
 -8.50020E+03 -9.01472E+03  4.13468E+03 -1.17500E+04  1.37674E+04 -1.74023E+03  4.89572E+03  4.92837E+03
  3.25447E+03  5.80051E+03 -1.24151E+03  8.49947E+03 -5.05310E+03  4.71716E+02 -8.91770E+03 -4.68644E+03
 -5.98442E+03 -1.30844E+04 -4.46913E+02 -7.55089E+03  4.12097E+03 -5.75611E+03  5.68072E+03 -1.95961E+03
  1.13297E+04  5.23965E+03 -1.34579E+03 -1.36962E+03 -5.46432E+03 -2.89105E+03 -2.38971E+03 -6.36620E+03
  5.39664E+03 -2.66296E+03  1.21722E+04 -1.53549E+03  7.55278E+03  1.11217E+04  6.08841E+03  1.44470E+04
 -3.65902E+03  1.89848E+04 -1.38641E+04  4.71388E+03 -1.99590E+04  7.77439E+02 -1.66908E+04 -7.56429E+03
 -5.91639E+03 -1.29138E+04 -2.57588E+03 -1.45161E+04  1.89178E+02 -2.31661E+03  1.00028E+03 -2.76766E+03
  4.58525E+02 -4.36145E+03  6.36407E+03  2.08927E+02  3.40950E+03 -4.46853E+03  7.89089E+03  1.21751E+03
  4.03835E+03  1.53051E+03 -2.31251E+03  5.93285E+03  1.14180E+02  2.95713E+03 -3.38976E+03  5.47291E+03
 -1.37217E+04 -1.57769E+03 -6.01534E+03 -1.18650E+04  3.17268E+03 -1.29174E+04  1.87825E+03 -1.11946E+04
  1.44586E+04 -8.23188E+03  1.43176E+04  2.24646E+03  1.14984E+04  1.23385E+04  5.60411E+03  1.37941E+04
 -4.45427E+03  1.30089E+04 -7.60465E+03 -1.94345E+03 -4.69471E+03 -5.38775E+02  1.29198E+03  1.29285E+03
 -2.55603E+03 -2.88288E+03 -5.72795E+03  1.28055E+03 -1.05635E+04  2.59027E+03 -9.27052E+03  1.51123E+03
 -5.23384E+03 -9.16983E+03  1.81154E+03 -1.30822E+04  5.06337E+03 -1.46378E+04  1.02924E+04 -7.17818E+03
  8.54075E+03  7.80643E+03  1.93449E+02  9.34901E+03 -1.77568E+03  1.06069E+04 -9.43347E+03  1.08027E+04
 -1.12982E+04 -3.65922E+03 -5.27392E+03 -6.74644E+03 -4.95479E+02 -4.31486E+03  3.66225E+03 -9.02563E+03
  5.31727E+03 -3.03395E+03  5.87314E+03  9.82920E+02 -1.02229E+03  1.63475E+03 -2.77322E+03 -6.36599E+02
  3.92135E+03  9.60961E+02  2.57055E+03  2.33824E+03  4.42611E+03 -6.67869E+02  9.25695E+03 -1.00924E+03
 -1.21541E+03  8.50225E+03 -1.49034E+04  8.01833E+03 -9.54822E+03  1.72299E+03 -4.23646E+03 -2.29270E+03
 -3.20538E+03 -3.19039E+03 -1.12081E+03 -1.02401E+04  2.92427E+03 -3.84020E+03  9.24986E+03  1.06008E+03
  4.23786E+03  6.69909E+03 -5.70692E+02  9.03483E+03 -1.98156E+03  6.10922E+03 -7.38104E+02 -1.06736E+03
 -6.12962E+03 -6.34131E+03 -4.01177E+02 -3.35821E+03  2.42992E+03 -3.51261E+03  8.79619E+03  3.56340E+03
  3.65897E+02  4.36855E+03  2.66910E+03 -3.81938E+03  2.83963E+02  4.45175E+03 -2.36729E+03 -8.81044E+03
  2.07989E+03 -1.42990E+03  9.12433E+02 -2.08663E+03  2.27550E+03  3.84572E+02 -2.49277E+03  3.58827E+03
 -4.79948E+03  4.06159E+03 -5.77789E+03  5.85659E+03 -3.22306E+03 -1.95593E+03 -5.74002E+03 -7.14673E+03
  4.65452E+00 -6.52661E+03  1.45013E+03 -3.39487E+03 -3.06864E+03  4.36659E+03  4.14039E+03  4.85282E+03
 -9.43431E+03  4.27604E+03 -1.04299E+03 -5.78842E+03 -3.58515E+03 -5.10089E+03  2.65498E+03 -1.38644E+03
  6.06586E+03  7.67077E+02  4.50029E+03  2.75636E+03  3.43052E+03 -1.60924E+03 -3.05379E+03  4.09388E+03
 -1.72802E+03  1.20988E+03 -3.65331E+03  1.49649E+03  3.76408E+03 -6.85444E+03  8.47845E+03  2.25551E+03
  1.53597E+03  2.07350E+02  3.53065E+03  6.13614E+03  3.45492E+03  5.10877E+03 -1.92474E+03  5.13682E+03
  7.03465E+02  4.13500E+03 -3.19052E+02 -6.63918E+02 -6.51559E+03 -2.43027E+03 -6.87748E+02 -7.02007E+03
 -1.53896E+03 -4.02507E+03  3.40105E+03  1.42294E+02  3.15475E+03  3.70881E+03  3.05357E+03  4.25220E+03
 -2.09907E+03 -1.27667E+03 -9.58778E+02  3.54934E+03 -3.31541E+03  1.41216E+03 -2.74559E+03  5.22778E+03
  4.76325E+02  4.52118E+03 -4.70157E+03  2.61566E+03 -2.45181E+03  1.62709E+02 -5.75247E+03 -4.43432E+03
 -7.58856E+03 -2.18258E+03  5.88526E+03 -2.70699E+03  7.71798E+03 -7.51088E+03  7.36068E+03 -4.80101E+03
  3.79857E+03  2.63563E+03  6.20755E+03  1.76514E+03 -3.79450E+03  4.46782E+03 -6.05031E+03  4.17284E+03
 -4.10428E+03  2.60541E+03 -3.64146E+03  2.71803E+03 -1.42945E+03  6.10819E+02  4.29186E+02  2.18507E+03
 -5.37702E+03  3.00959E+03 -4.75091E+02  4.49002E+03  1.85092E+03  3.05388E+03 -2.70894E+03  8.84215E+02
  6.73320E+03  3.92899E+02  4.55499E+03  2.16344E+03  4.06492E+03  2.17597E+03  1.19315E+03  7.88003E+03
 -5.25825E+03  8.15251E+03 -3.57176E+03  3.71591E+03 -6.64776E+03 -2.13880E+03 -3.42322E+03 -4.88825E+03
 -1.08047E+03 -7.26096E+03  2.31247E+03 -4.90106E+03 -2.10145E+03 -3.21346E+03  5.20379E+02 -6.48025E+02
  5.69772E+03  7.40869E+02  3.37535E+03  3.15288E+03  5.64996E+02  1.48466E+03 -5.14865E+02 -5.87214E+03
 -3.50823E+03  3.59567E+03  3.41161E+03  3.01540E+03  3.45042E+03  3.33101E+03  2.20631E+03  2.53666E+03
 -6.45904E+03  3.83059E+03  1.36941E+03  1.19556E+03  1.97161E+01 -3.96263E+03 -1.04243E+03 -9.68198E+02
  8.68573E+02 -4.99558E+03  7.67095E+03 -3.73899E+03  6.24528E+03  4.03517E+03 -5.14744E+03  2.43930E+03
  1.59391E+03  3.42478E+03 -1.10297E+03  1.37857E+03 -3.04569E+03  3.18615E+03 -1.32988E+03 -1.15945E+03
 -1.55386E+03  2.37318E+03  1.39563E+03 -1.74256E+03 -2.33322E+03  9.66067E+02 -7.49113E+02  1.00138E+03
 -5.94177E+03  2.95136E+03 -3.33474E+03 -3.60928E+03  3.15773E+03 -5.85375E+02  5.05634E+03 -5.21942E+03
  2.45347E+03  4.54069E+03  3.71767E+03  4.89538E+03  1.69184E+03  3.89281E+03 -4.95781E+03 -9.78932E+02
