 $NMID ID='MM_0lb_SNR50_16hz_g60_4.RAW', FMTDAT='(8E13.5)'
 TRAMP=1., VOLUME=1. $END
  3.12305E+05  5.39693E+02  3.36954E+05  2.46185E+05  8.39798E+04  3.41891E+05 -1.37135E+05  2.50631E+05
 -1.86875E+05  8.27420E+04 -1.13955E+05 -3.25846E+04 -2.98668E+03 -4.81890E+04  5.18822E+04  3.10701E+03
  3.49253E+04  4.56539E+04 -1.61014E+04  7.19001E+04 -5.93238E+04  6.49889E+04 -8.42783E+04  3.63922E+04
 -8.55975E+04 -5.52288E+03 -6.23651E+04 -5.52200E+04 -1.79324E+04 -6.62960E+04  2.51982E+04 -4.58645E+04
  4.25154E+04  6.26553E+02  1.19430E+04  4.50565E+04 -3.36316E+04  4.67815E+04 -6.85738E+04  2.36245E+03
 -5.44835E+04 -5.81155E+04 -8.28809E+03 -7.48490E+04  3.32711E+04 -5.24862E+04  4.71617E+04 -1.95535E+04
  4.74511E+04  9.56303E+03  3.31497E+04  2.83636E+04  1.67433E+04  3.24715E+04 -7.94300E+03  2.62188E+04
 -1.84682E+04  9.66948E+03 -1.87756E+04 -6.70173E+03  8.11721E+03 -8.79676E+03  2.68387E+04  1.50083E+04
  6.81646E+03  3.71655E+04 -3.14107E+04  3.56465E+04 -6.28729E+04  2.17220E+03 -5.94874E+04 -4.35422E+04
 -8.24144E+03 -6.10146E+04  3.98355E+04 -4.39006E+04  5.83045E+04 -3.73059E+03  3.92865E+04  2.90991E+04
 -7.04503E+03  3.69327E+04 -3.26308E+04  1.54760E+04 -3.49214E+04 -2.32499E+03 -1.33844E+04 -7.87851E+03
 -9.29203E+03 -1.58389E+04 -6.51195E+02 -1.59603E+04  1.41170E+04 -2.53233E+04  1.87745E+04 -1.51981E+04
  9.90992E+03  7.12144E+03 -7.69835E+03  8.83926E+03 -1.90373E+04 -5.53133E+03 -8.89640E+03 -3.27841E+04
  2.75072E+04 -4.08979E+04  4.71631E+04 -2.19877E+04  4.42988E+04  2.01570E+04  1.59693E+04  4.82785E+04
 -1.53980E+04  3.37940E+04 -2.34302E+04  1.30763E+03 -1.18788E+04 -2.93975E+04  1.77896E+04 -3.60800E+04
  4.14498E+04 -1.21307E+04  3.65097E+04  2.52560E+04  1.92993E+04  5.16654E+04 -1.00979E+04  5.01899E+04
 -3.11887E+04  3.66183E+04 -3.71010E+04  9.70570E+03 -4.29708E+04 -1.42155E+04 -2.16909E+04 -3.75791E+04
  6.59801E+03 -3.73088E+04  3.44369E+04 -1.29489E+04  2.84166E+04  1.09881E+04  5.42882E+03  2.21062E+04
 -1.09090E+04  1.19127E+04 -1.04236E+04 -2.98974E+03  8.04705E+03 -1.31252E+04  1.71037E+04  1.99958E+03
  1.04082E+04  2.42632E+04 -6.37278E+03  2.66997E+04 -2.60600E+04  1.11339E+04 -2.37458E+04 -7.92793E+03
 -2.01601E+04 -1.67268E+04 -6.46723E+03 -1.94098E+04  5.06474E+03 -1.21438E+04  1.83443E+04 -1.94839E+04
  2.95813E+04 -1.12221E+04  3.15353E+04  7.47112E+02  2.33061E+04  1.59535E+04  1.30049E+03  4.11359E+04
 -1.56827E+04  3.05519E+04 -2.66536E+04  9.18800E+03 -1.89781E+04 -8.27136E+03 -5.28022E+03 -1.42509E+04
 -1.24179E+03 -3.30658E+03 -7.55381E+03  1.65263E+03 -1.62624E+04  6.46586E+03 -1.27843E+04 -8.19490E+03
 -1.21536E+04 -1.45056E+04  2.69495E+03 -2.49129E+04  1.89508E+04 -1.94452E+04  1.84136E+04 -3.40550E+03
  1.11401E+04  1.41346E+04  3.56509E+01  2.21929E+04 -1.56823E+04  1.26309E+04 -1.78219E+04 -6.14572E+03
 -1.41654E+04 -1.72258E+04 -3.68789E+03 -2.00579E+04  7.69178E+03 -1.86477E+04  1.95590E+04 -1.06092E+04
  2.20288E+04 -2.58369E+03  1.30480E+04  5.08030E+03  8.09673E+03 -1.86329E+03  6.79427E+03  2.61436E+02
  1.56738E+04  3.98072E+03  2.27063E+04  1.34590E+04  9.38132E+03  3.11326E+04 -3.83987E+02  3.17728E+04
 -1.72950E+04  2.77259E+04 -2.84338E+04  1.22122E+04 -3.43875E+04 -3.77873E+03 -3.02140E+04 -1.99824E+04
 -1.47608E+04 -2.59431E+04  1.43602E+04 -2.31812E+04  1.51869E+04 -1.15685E+04  1.83433E+04  4.22298E+03
  3.04078E+03  7.53723E+03 -1.28176E+04  8.14230E+03 -1.64166E+04  6.77204E+03 -8.99391E+03 -9.64435E+03
 -7.12601E+02 -1.81919E+04  5.45933E+03 -8.56908E+03  6.79060E+03 -7.36294E+03  4.91550E+03  7.87670E+03
 -9.76412E+03  5.61696E+03 -8.46226E+03 -5.22356E+03  6.00515E+02 -1.43001E+04  7.94555E+03 -1.43389E+04
  1.40855E+04 -6.04294E+03  1.50948E+04  4.42730E+03  1.35311E+04  9.61461E+03  4.28753E+03  1.64839E+04
 -8.67216E+02  1.93508E+04 -1.30110E+04  1.28937E+04 -1.19417E+04  5.65323E+03 -1.37989E+04 -4.51442E+03
 -1.66159E+03 -2.44392E+03 -1.39852E+03  2.65503E+03  4.43711E+02  2.35254E+03 -6.78073E+03  7.54114E+03
 -6.73983E+03 -1.25701E+02 -1.22855E+04 -5.79262E+03 -7.42761E+03 -1.25704E+04  1.28247E+03 -1.35802E+04
  1.29295E+04 -5.93128E+03  4.72546E+03  3.23302E+03 -1.35076E+03 -1.15015E+03 -4.98804E+03  1.73398E+03
 -4.55744E+03 -4.29845E+03  4.90623E+03 -7.30985E+03  8.08816E+03 -6.25802E+03  1.45126E+04 -3.03526E+03
  1.57079E+04 -1.19792E+03  1.06849E+04  6.49528E+03  2.84043E+03  1.25546E+04 -6.55500E+03  1.17959E+04
 -9.09287E+03  1.31346E+03 -4.11545E+03  2.05224E+03 -1.78115E+03 -9.78523E+01  8.22375E+03 -5.75405E+03
  3.48232E+03  1.11566E+04 -1.86603E+03  1.03594E+04 -4.43406E+03  8.20066E+03 -7.90759E+03  1.85030E+03
 -1.01280E+04 -6.59756E+03  3.94720E+03 -8.63211E+03  3.77629E+03 -5.05507E+03  3.97541E+03  1.06704E+03
  1.54869E+03  7.55944E+03 -5.78865E+03  8.87542E+03 -2.92501E+03  2.36766E+03 -6.70712E+03 -5.24566E+03
 -9.61209E+02 -9.48905E+03  5.55944E+03 -1.18267E+04  8.55293E+03 -8.52599E+03  8.88068E+03 -2.09790E+02
  9.17173E+03  6.09057E+03 -8.66931E+02  8.37264E+03 -9.90192E+03  2.69919E+03 -6.81251E+03 -5.34346E+03
 -7.83765E+03 -8.08068E+03  4.19130E+02 -9.07660E+03  1.29057E+03 -3.87632E+03  7.38894E+03 -3.36995E+03
  3.79584E+03 -3.73156E+03 -1.41067E+03  4.19557E+03  1.64145E+03 -3.88313E+03  1.20718E+03 -2.37588E+03
  6.04059E+03 -3.40653E+03  3.95679E+03 -2.30780E+03  5.07261E+03  4.51579E+03  5.70699E+03  1.17210E+04
  6.06658E+03  1.42703E+04 -8.38811E+03  6.49363E+03 -1.38801E+04 -2.17922E+02 -1.26656E+04  1.11198E+03
 -1.26259E+04 -1.18113E+04 -2.20085E+03 -1.24175E+04 -1.52651E+03 -2.70630E+03  3.69830E+03 -7.50343E+02
  2.13880E+03 -3.36692E+03  2.11311E+03 -3.68516E+03 -2.59782E+03 -6.75479E+03  6.63536E+03 -8.69398E+02
  5.37149E+03  6.76345E+03  6.14286E+03  6.23060E+03 -1.59472E+03  7.35531E+03 -8.34946E+03  4.54352E+03
 -4.01020E+03  3.74203E+03 -4.69956E+03 -6.39656E+03 -3.13520E+02 -6.79096E+03  2.97385E+03 -8.34125E+03
  1.44489E+04 -5.64362E+03  1.02476E+04  5.72586E+03  1.57350E+04  5.73009E+03 -5.15203E+02  7.09639E+03
 -6.44612E+03  1.15638E+04 -2.07487E+03  4.01729E+03  2.58599E+02 -2.69876E+03 -3.13589E+03  3.05442E+03
 -2.99586E+03  3.39803E+03 -2.22335E+03  7.30240E+01 -3.43504E+02  3.66237E+03 -6.48534E+03 -3.06891E+02
 -8.39170E+02 -6.61411E+03 -7.52117E+02 -8.63809E+03  5.55771E+03 -7.45257E+03  8.22154E+03 -3.43084E+03
  1.13769E+04  7.11289E+03  1.84984E+03  9.70514E+03 -5.39527E+03  7.63319E+03 -5.45640E+03  4.55233E+03
 -7.34163E+03 -3.32977E+03 -4.20180E+03 -6.97820E+03 -5.91260E+03 -3.30928E+03  5.98770E+02 -7.76486E+03
 -2.20593E+02 -9.78955E+03  3.38783E+03  1.60187E+03  2.28512E+03  9.16158E+02  1.14540E+03  5.83799E+02
  4.28999E+03  1.77951E+03 -9.71244E+01  2.75291E+03 -5.87288E+02  2.41784E+03  1.40022E+03  4.64427E+03
 -4.16145E+02  1.73681E+03 -2.89052E+03  2.80567E+03 -3.75989E+03 -4.58698E+02 -1.01685E+04  1.09010E+03
 -2.03269E+03 -8.24447E+03  4.52561E+03 -1.16225E+04  4.62970E+03 -7.69111E+03  2.86394E+03 -4.02813E+03
  4.43655E+03  5.62778E+03  1.75504E+03  6.25681E+03 -5.74464E+03 -7.19510E+02 -2.81716E+03  1.33240E+03
 -2.95931E+03 -1.23283E+03  1.21877E+03  2.34228E+03  2.42661E+03 -1.07460E+01 -1.77403E+03  5.75415E+03
 -2.31403E+03 -3.64869E+02  3.61424E+03 -1.78205E+03  6.00367E+02  2.01598E+03  3.05375E+03  4.43192E+03
 -2.51000E+03  1.68149E+03  2.14285E+03 -4.12834E+03  4.68974E+02  5.13384E+03  3.18014E+03  4.89171E+03
 -3.55808E+03  2.11391E+03 -6.91787E+03 -4.05765E+03 -2.95296E+03 -6.16821E+03 -6.83403E+03  3.73452E+03
  3.95882E+02 -5.13962E+03  4.50959E+03  1.06506E+03  2.31928E+03 -1.95907E+03 -2.29913E+03  2.53488E+03
 -8.78281E+03  2.05877E+03 -4.13362E+03 -6.42472E+03 -2.34683E+03 -1.27939E+03  2.10960E+03 -1.26631E+02
  3.54150E+03 -2.36357E+03  2.62080E+03  1.70600E+03  4.51938E+03  9.86284E+02 -9.31559E+02 -4.06249E+02
  5.38846E+03  9.59667E+02 -5.69255E+03 -1.80747E+03  1.92531E+03  1.59764E+03  3.64289E+03 -2.76264E+03
  3.39881E+02  4.55051E+02  3.23830E+03  6.69363E+02 -1.36756E+03  6.62981E+03 -1.43466E+03  5.86051E+03
  1.96875E+03  4.38750E+03 -6.90513E+03  4.82977E+02 -8.21443E+02 -1.05833E+03 -1.57653E+03 -4.38435E+03
  2.83460E+03  6.03533E+02  3.89184E+03 -7.06034E+02  3.50981E+03  4.46583E+02  1.73372E+03  5.91576E+03
  2.35092E+03  3.74229E+02  1.14559E+03 -7.72312E+02  1.14083E+03 -7.05094E+02 -1.53120E+03  1.76679E+03
 -3.80394E+03  3.71118E+03 -8.96941E+03  4.04958E+03 -3.43210E+02 -3.45700E+03 -3.48109E+03 -2.82404E+03
 -2.24651E+03 -2.85593E+03  1.91412E+03 -5.70573E+03  3.97365E+03 -3.70868E+03  5.13756E+03  1.43711E+03
  8.02040E+03 -2.66512E+03  6.06631E+03 -3.65519E+03  6.31108E+02  5.78627E+03 -3.96083E+03 -2.40024E+02
 -2.61762E+03 -6.61704E+02 -2.77661E+03  2.76217E+03 -2.47058E+03  2.11776E+03 -9.65029E+01  2.56466E+03
 -2.11899E+02 -1.26518E+03  2.03015E+03  6.18834E+03  9.52320E+02  7.92027E+02 -4.69374E+03  2.58030E+03
  4.35734E+01 -8.27434E+01  5.40685E+03  5.85307E+02  6.96395E+03 -1.70384E+02  3.84854E+03  5.07477E+02
 -6.91925E+03  3.70641E+03 -6.51307E+02 -1.45265E+03 -7.76667E+03 -1.96702E+03  3.81807E+03 -2.89016E+03
  2.70304E+03 -8.81947E+02 -2.90115E+03 -1.07405E+03  3.29259E+03 -1.10380E+03  1.26106E+03  7.82739E+03
  2.76211E+03  2.54858E+03  1.99654E+03  5.19503E+03 -1.59016E+03  3.79559E+03 -5.80288E+03  3.82016E+02
 -4.93756E+01  6.26865E+02  1.89666E+03  2.56497E+03 -2.75007E+03  1.31803E+03 -5.16537E+03 -6.23025E+02
 -2.39220E+02  4.69810E+03 -2.68430E+03  1.83442E+03 -4.76840E+03  2.38705E+03 -4.80666E+02 -6.14979E+02
  2.78878E+03  1.86631E+03  2.23637E+03 -1.73751E+03  3.65391E+03  3.99969E+03 -3.81126E+01 -3.15241E+03
 -3.37664E+02 -2.50412E+03  3.22368E+03 -1.52261E+03 -1.51928E+03  5.19830E+03  1.10593E+03  2.63651E+03
 -9.76007E+02 -5.19535E+01  3.04814E+03 -1.61941E+03  8.20265E+02 -4.16814E+03 -4.67792E+02 -4.92124E+03
  5.05138E+03 -2.38162E+03  1.69354E+03 -1.81683E+03  4.24626E+03 -3.51713E+03 -1.83860E+03 -1.65399E+02
  1.19686E+03  3.83464E+03 -2.17477E+02 -1.15532E+00  1.30795E+03  3.59024E+02  6.78517E+02  4.79100E+03
