 $NMID ID='MM_0lb_SNR50_12hz_g55_57.RAW', FMTDAT='(8E13.5)'
 TRAMP=1., VOLUME=1. $END
  3.11481E+05 -3.98024E+03  3.36609E+05  2.45381E+05  8.25818E+04  3.33899E+05 -1.33612E+05  2.53234E+05
 -1.86677E+05  8.39763E+04 -1.13159E+05 -3.27764E+04  1.32633E+03 -4.83220E+04  5.17339E+04 -2.23489E+03
  4.18400E+04  4.93028E+04 -1.90504E+04  7.71274E+04 -6.09123E+04  6.66017E+04 -8.47282E+04  3.18518E+04
 -8.23792E+04 -9.14984E+03 -6.09327E+04 -5.04149E+04 -1.60651E+04 -7.39288E+04  2.69783E+04 -4.38852E+04
  4.22256E+04  6.16135E+03  1.24696E+04  5.08914E+04 -3.64711E+04  4.49629E+04 -7.04188E+04  1.25227E+03
 -5.49616E+04 -5.58336E+04 -3.36318E+03 -7.48084E+04  3.24429E+04 -5.62655E+04  4.64699E+04 -1.87151E+04
  4.28662E+04  1.38587E+04  2.92072E+04  2.50371E+04  1.56300E+04  2.92535E+04 -6.22503E+03  2.04960E+04
 -2.12583E+04  9.35810E+03 -1.93584E+04  1.03589E+03  7.70404E+03 -1.13622E+04  2.93250E+04  1.69245E+04
  6.60513E+03  3.75330E+04 -3.33088E+04  3.86895E+04 -5.73564E+04 -4.15055E+02 -6.18304E+04 -4.14417E+04
 -1.22357E+04 -6.59918E+04  4.34353E+04 -5.26852E+04  6.13160E+04  6.07794E+03  3.73164E+04  3.49828E+04
 -8.52988E+03  3.50234E+04 -3.49405E+04  1.45335E+04 -2.94137E+04 -5.77241E+03 -2.07149E+04 -1.53034E+04
 -2.97010E+03 -1.28392E+04 -9.89946E+02 -1.79836E+04  4.57170E+03 -1.93730E+04  1.27449E+04 -1.81119E+04
  1.39635E+04  5.13232E+03 -6.52812E+03  1.50474E+04 -2.14068E+04 -8.18132E+03 -1.13057E+04 -3.40064E+04
  1.82309E+04 -4.26158E+04  5.35503E+04 -1.45028E+04  4.88106E+04  2.06688E+04  1.70866E+04  4.28630E+04
 -2.00594E+04  2.92608E+04 -2.52745E+04 -3.11399E+03 -1.04661E+04 -2.80807E+04  2.19193E+04 -3.64452E+04
  4.09438E+04 -6.86465E+03  4.00081E+04  2.83094E+04  1.89106E+04  5.28204E+04 -1.56209E+03  4.97925E+04
 -3.33811E+04  3.80567E+04 -4.83708E+04  1.35016E+04 -4.68408E+04 -2.01816E+04 -2.68328E+04 -3.89855E+04
  6.33200E+03 -3.83326E+04  3.07650E+04 -1.11538E+04  2.96896E+04  1.45936E+04  5.11744E+03  1.81222E+04
 -1.10803E+04  9.59739E+03 -8.77202E+03 -9.97231E+03  6.03191E+03 -8.27411E+03  1.25155E+04  7.37229E+03
  1.69831E+04  2.45869E+04 -5.03891E+03  2.74070E+04 -2.60006E+04  1.62186E+04 -3.55633E+04 -5.78776E+03
 -2.33500E+04 -1.46829E+04 -1.04549E+04 -2.49472E+04  1.94637E+03 -2.19643E+04  1.90022E+04 -2.26409E+04
  2.72922E+04 -1.52972E+04  3.49114E+04  2.89698E+03  2.54401E+04  2.55440E+04  8.63732E+03  4.02312E+04
 -2.08992E+04  3.54563E+04 -3.06728E+04  9.30162E+03 -2.27006E+04 -9.10959E+03 -6.49125E+03 -1.42014E+04
  7.68737E+02 -5.28946E+03 -9.69146E+03  8.55729E+03 -1.56012E+04  9.76122E+03 -2.22927E+04 -9.18686E+03
 -1.38439E+04 -1.73492E+04 -2.78175E+02 -2.68462E+04  1.37054E+04 -1.78417E+04  1.83680E+04 -3.32667E+03
  1.18150E+04  1.50297E+04  4.79874E+02  2.41819E+04 -1.91976E+04  1.41479E+04 -1.91207E+04 -5.66840E+03
 -1.67883E+04 -2.42322E+04 -2.69685E+03 -2.45844E+04  8.02465E+03 -1.40109E+04  2.11204E+04 -6.83412E+03
  2.26931E+04 -1.96145E+02  1.61753E+04 -6.97630E+02  5.49639E+03  2.16610E+03  1.31349E+04 -1.80815E+03
  1.71212E+04  3.76704E+03  2.18467E+04  1.73623E+04  1.58777E+04  4.07887E+04  1.51770E+02  4.03315E+04
 -2.08890E+04  3.09687E+04 -3.51725E+04  1.26428E+04 -3.51719E+04 -4.71195E+03 -2.93584E+04 -2.68704E+04
 -1.06753E+04 -3.14938E+04  1.15184E+04 -3.35321E+04  2.24785E+04 -1.21519E+04  2.06833E+04  5.68240E+03
  6.49416E+03  1.55343E+04 -5.44641E+03  1.58914E+04 -2.14141E+04  4.49112E+03 -1.76129E+04 -6.08783E+03
  2.21159E+03 -1.61129E+04  1.14547E+04 -1.22393E+04  1.04452E+04 -2.73075E+03  4.95319E+03  6.51010E+03
 -4.16659E+03  8.35768E+02 -4.40294E+03 -7.85442E+03  5.63125E+02 -1.71960E+04  1.00090E+04 -1.78693E+04
  1.61524E+04 -7.42119E+03  1.80030E+04  5.67220E+03  2.13627E+04  1.23987E+04  1.44175E+04  2.72273E+04
 -1.31859E+03  2.25582E+04 -1.87379E+04  1.37599E+04 -1.75759E+04 -9.05386E+02 -9.34735E+03 -2.86768E+03
 -4.19744E+03 -8.39169E+03 -1.59177E+03  2.85320E+03 -4.98505E+03  6.03405E+03 -7.28179E+03 -5.70524E+01
 -1.55036E+04 -8.00812E+02 -1.19485E+04 -8.93114E+03 -4.98656E+03 -1.67927E+04  7.97983E+03 -1.38448E+04
  1.28515E+04 -1.04666E+04  8.65050E+03  4.65010E+03 -1.86600E+03  4.75516E+03 -6.41783E+03 -3.72890E+03
 -8.03261E+03 -9.33932E+03  7.37944E+02 -1.15103E+04  8.76883E+03 -1.06238E+04  1.96855E+04 -6.98854E+03
  1.97923E+04  7.75446E+03  1.71340E+04  1.33543E+04 -2.89901E+03  1.66085E+04 -8.08384E+03  1.08854E+04
 -7.31243E+03  4.77080E+03 -4.55326E+03 -3.96449E+03 -9.58191E+02 -2.79129E+03  4.61554E+03 -1.93320E+03
  9.48104E+03  4.25020E+03  5.35879E+02  1.04966E+04 -3.41536E+03  1.04322E+04 -7.87772E+03 -2.31056E+02
 -6.35308E+03 -1.77476E+03 -7.28231E+02 -8.23208E+03  6.79735E+03 -5.99904E+03  8.33268E+03  7.68955E+02
  3.14805E+03  6.38000E+03 -1.15299E+04  1.36918E+04 -5.64931E+03  3.50117E+03 -1.20121E+04 -5.35900E+03
 -7.17692E+03 -9.27203E+03  4.64930E+03 -1.41315E+04  1.63431E+04 -8.33558E+03  1.18938E+04  6.63637E+03
  1.21239E+04  1.06271E+04 -2.36522E+03  1.05938E+04 -8.47655E+03  1.07055E+04 -7.92052E+03  1.19272E+03
 -1.12049E+04 -1.11923E+04 -4.65767E+03 -2.00508E+03  4.63191E+03 -6.39751E+03  4.16386E+03 -4.10110E+03
  5.04958E+03  4.64492E+03 -6.09862E+03  2.25088E+03  2.44070E+03 -2.28957E+02  3.83509E+03 -6.65775E+03
  1.14108E+04 -3.47190E+03  1.10542E+04  2.26192E+03  1.42238E+04  8.93020E+03  1.13178E+04  1.43355E+04
  3.37712E+03  1.85154E+04 -1.76617E+04  1.68783E+04 -1.93512E+04  5.24950E+03 -1.02035E+04 -1.17182E+04
 -6.65337E+03 -1.55064E+04  2.21641E+02 -1.41526E+04  6.27107E+03 -1.22485E+04  2.51613E+03 -8.07267E+03
  4.25641E+03 -3.13817E+03  3.14448E+03 -2.75137E+03  7.41258E+03 -3.97789E+03  1.08069E+04 -3.46372E+02
  8.23645E+03  3.89144E+03  7.95379E+03  5.63500E+03 -1.25209E+03  4.99817E+03 -9.46752E+03  1.09353E+04
 -1.18521E+04 -1.02728E+03 -8.37744E+03 -4.08647E+03 -6.98497E+03 -1.34269E+04  6.23216E+03 -1.15725E+04
  8.85066E+03 -3.88797E+03  1.23646E+04  2.43382E+03  4.32659E+03  1.17313E+04 -8.54371E+02  1.47410E+04
 -6.15398E+03  1.31590E+04 -1.39662E+04  1.99006E+03 -1.57476E+03 -2.42678E+02  6.31219E+02 -6.08954E+03
 -4.93694E+03 -2.53423E+03 -1.43285E+03  3.19264E+03 -2.92125E+03  1.46739E+03 -7.44158E+03 -1.32249E+03
 -2.73885E+03 -7.60457E+03  2.74025E+03 -1.81599E+04  4.25313E+03 -9.90360E+03  8.46132E+03 -3.43289E+03
  1.31712E+04  5.27587E+03  6.28989E+03  9.96289E+03 -4.30496E+03  1.40673E+04 -7.83936E+03  7.53207E+03
 -9.61768E+03 -2.74248E+02 -9.73844E+03 -1.63059E+03 -1.23340E+02 -4.90400E+03  3.90548E+03 -1.03682E+04
  6.95683E+03 -7.83223E+02  6.55417E+02  1.20828E+03 -2.29176E+03  7.66870E+03 -2.38132E+03  2.47055E+03
  1.62590E+03 -1.03350E+02  4.05987E+03 -1.47068E+03 -3.33012E+02  1.64674E+03  1.82466E+03  3.51486E+03
 -6.29469E+02  8.73750E+03 -6.12751E+03  9.55313E+03 -1.07869E+04  7.20239E+03 -1.35494E+04 -1.30600E+03
 -2.00286E+03 -1.09429E+04  6.38144E+03 -1.46130E+04  1.12278E+04 -8.23050E+03  6.13103E+03 -3.48738E+03
  2.27365E+03  1.03931E+04  2.14265E+02  1.10908E+04 -5.54828E+03  2.24430E+03 -4.66947E+03 -2.92494E+02
 -3.83606E+03 -8.00066E+03  1.81691E+03 -6.05589E+03  2.07176E+03 -6.55510E+03  4.10180E+03  3.05207E+01
  4.06073E+03  3.38248E+03  4.92263E+02 -3.98792E+02 -8.64842E+02  3.82739E+03  4.00139E+02 -1.93627E+03
  1.50074E+03  5.23213E+03  1.70224E+03  2.11530E+03  1.32139E+03  7.79345E+03  3.46691E+03  5.50737E+03
 -7.04955E+03  3.06656E+03 -8.92876E+03  2.58128E+02 -6.54849E+03 -4.76789E+03 -3.52975E+03 -8.09374E+03
 -6.53571E+03 -4.46372E+03  6.45998E+03 -2.48789E+03  5.12417E+03  4.06838E+03  8.75128E+02  2.24200E+03
 -6.86423E+03  5.27393E+03 -3.73280E+03 -5.46879E+03 -2.89386E+03 -3.62403E+03  4.50467E+03 -3.88428E+03
 -8.88608E+02 -6.68078E+03 -2.57158E+03 -1.48018E+02  1.74872E+03 -6.48600E+02  4.09978E+02  3.99647E+03
 -5.56057E+03  9.18141E+02 -4.73745E+03 -2.39647E+03  1.09348E+03 -4.33198E+03  4.89762E+03  1.34867E+02
  8.58414E+03  2.44289E+03  7.02272E+03  5.14589E+03  1.26693E+03 -3.05489E+02 -5.22663E+03  7.90253E+03
 -7.36763E+03 -4.69562E+02 -2.39399E+03 -1.86320E+03 -7.45781E+03 -2.99917E+03 -1.27720E+03 -2.74556E+03
  4.53224E+03  2.62981E+03 -3.32612E+02 -2.10815E+03 -1.08028E+03  5.38015E+03  2.65518E+03  2.40108E+03
  1.00647E+03  1.59494E+03 -3.08127E+02  6.49493E+03 -9.31515E+01  4.69889E+03  3.14535E+03  2.76505E+03
 -7.38724E+02  8.83068E+02 -6.62542E+03 -4.41555E+02 -7.16408E+03  2.58319E+02 -8.04005E+03 -3.61267E+03
 -4.91304E+03 -6.45858E+03  2.87241E+03 -4.99926E+03  8.50196E+03 -5.63523E+03  1.02933E+04 -3.63794E+03
  9.29868E+03  7.70934E+03  3.17685E+03  8.84167E+03  5.71795E+02  8.73372E+03 -5.48853E+03  1.96697E+03
 -1.58217E+02  2.37718E+03 -7.76891E+03  3.07250E+03  7.27442E+02  1.79533E+03  3.09161E+03  9.58579E+02
  1.98307E+03 -4.68486E+03  1.36740E+03  1.47127E+03  9.17814E+00 -9.74500E+02  4.15152E+01 -3.32057E+03
 -1.95149E+03 -4.69828E+03  4.53677E+03  2.31138E+03  7.31980E+03  6.40505E+03 -2.34035E+03  6.03048E+03
 -5.36493E+03  8.62450E+03 -8.98433E+03 -1.32827E+03 -1.16855E+04 -2.19046E+03 -4.27511E+03 -8.98669E+03
  2.94367E+02 -8.59490E+03  1.26910E+03 -2.25623E+03  8.81370E+03 -9.80219E+02  7.47647E+03  9.75830E+02
  2.89062E+01  2.21745E+03  4.61286E+03  3.74872E+03  3.93021E+03 -2.71263E+02  7.99393E+02 -2.97487E+03
  4.20004E+03  1.36072E+03  3.49221E+03 -6.64939E+03  2.32152E+03  1.82466E+03  2.34287E+02  2.92038E+03
 -7.08771E+03  6.28125E+02 -3.88951E+03  3.97997E+03 -5.96112E+03 -8.96512E+03  5.77083E+03 -2.58964E+03
  4.21889E+03 -6.89337E+03  7.88292E+03 -1.17471E+03  6.58775E+03  4.05571E+03 -3.62916E+01  4.55775E+03
  1.62202E+03  8.56629E+03 -2.31046E+02  4.49708E+03  3.23071E+03 -1.71484E+03 -4.22272E+03  1.49388E+03
 -4.65521E+02 -3.34906E+02 -2.24361E+03 -1.71633E+02  4.72745E+03  6.13200E+03 -1.87488E+02  1.78472E+03
 -7.32386E+03 -3.55388E+03 -5.08042E+03 -5.52770E+03  4.35957E+03 -7.29579E+03  6.95062E+03 -1.92525E+03
  4.62383E+03  9.85272E+02 -2.69220E+03  7.65037E+02  1.91234E+03  7.99708E+03 -4.98292E+03  3.73420E+03
