 $NMID ID='MM_0lb_SNR50_11hz_g45_24.RAW', FMTDAT='(8E13.5)'
 TRAMP=1., VOLUME=1. $END
  3.05628E+05  3.10705E+03  3.39820E+05  2.50577E+05  8.52236E+04  3.40727E+05 -1.35917E+05  2.47186E+05
 -1.92749E+05  7.66158E+04 -1.08306E+05 -3.16779E+04  2.46827E+03 -5.53556E+04  5.77850E+04  5.77210E+03
  3.74198E+04  5.52564E+04 -1.65102E+04  7.70807E+04 -6.05861E+04  6.11512E+04 -8.64596E+04  2.92816E+04
 -7.76078E+04 -9.07700E+03 -5.48428E+04 -5.00286E+04 -1.63912E+04 -7.21264E+04  2.40876E+04 -4.74848E+04
  4.08904E+04  5.75107E+03  1.76800E+04  5.48537E+04 -3.39187E+04  4.91090E+04 -6.82075E+04 -1.84351E+03
 -5.81523E+04 -5.92533E+04 -8.74176E+03 -7.84458E+04  3.34814E+04 -6.45183E+04  4.92482E+04 -1.94002E+04
  4.36310E+04  1.24050E+04  3.76603E+04  2.53312E+04  1.41323E+04  3.09516E+04 -6.57162E+02  2.25871E+04
 -1.73363E+04  1.17290E+04 -1.28894E+04 -1.30127E+03  6.29410E+03 -1.00367E+04  1.94449E+04  1.44040E+04
  7.52706E+03  3.66039E+04 -3.48659E+04  3.75218E+04 -6.97575E+04 -2.27473E+03 -5.26014E+04 -4.20489E+04
 -1.31992E+04 -7.41447E+04  4.29730E+04 -4.42097E+04  5.40771E+04  3.75890E+03  3.61816E+04  3.56110E+04
 -4.01078E+03  4.09241E+04 -3.12787E+04  1.96128E+04 -3.01666E+04 -4.79765E+03 -1.68535E+04 -1.22356E+04
 -8.14854E+03 -1.17115E+04 -2.09588E+03 -1.69749E+04  7.09131E+03 -1.67146E+04  1.77959E+04 -1.65107E+04
  1.05849E+04  8.46666E+03 -1.61609E+04  1.49573E+04 -2.69631E+04 -8.02920E+03 -6.33572E+03 -3.82560E+04
  2.60923E+04 -4.78247E+04  5.40288E+04 -2.04257E+04  4.98632E+04  1.72675E+04  1.41025E+04  5.35249E+04
 -1.51166E+04  2.98836E+04 -2.44899E+04  3.30211E+03 -1.13641E+04 -3.32875E+04  2.01250E+04 -3.23597E+04
  3.70803E+04 -1.09691E+04  3.85612E+04  2.67927E+04  2.13515E+04  5.46060E+04 -9.65881E+03  5.14732E+04
 -3.54906E+04  3.70292E+04 -4.78251E+04  1.34055E+04 -4.31429E+04 -1.74851E+04 -2.28773E+04 -3.70374E+04
  7.41361E+03 -3.55693E+04  3.13319E+04 -1.64260E+04  2.63462E+04  1.13746E+04  2.42157E+03  1.71516E+04
 -1.59886E+04  6.27562E+03 -1.01277E+04 -1.11304E+04  5.09828E+03 -1.19051E+04  2.03442E+04  6.98333E+03
  1.54665E+04  2.09635E+04 -8.25532E+03  2.48953E+04 -2.34644E+04  1.38963E+04 -2.76525E+04 -8.29039E+03
 -2.20553E+04 -1.81828E+04 -9.11288E+03 -2.43978E+04  5.77327E+03 -2.22265E+04  1.70393E+04 -1.76849E+04
  3.33282E+04 -9.85185E+03  3.80161E+04  8.71842E+03  2.73577E+04  2.32072E+04  3.86568E+03  4.15169E+04
 -2.44069E+04  3.26621E+04 -2.88953E+04  1.33219E+04 -2.96995E+04 -5.54510E+03 -2.67235E+03 -1.17804E+04
  9.58502E+02 -2.82728E+03 -4.18884E+03  1.26073E+04 -1.70698E+04  7.01359E+03 -2.28911E+04 -9.31312E+03
 -1.20832E+04 -2.32412E+04  4.46585E+03 -2.31983E+04  1.61249E+04 -1.80017E+04  1.99677E+04  1.33597E+03
  1.35411E+04  1.17556E+04 -1.66433E+03  2.59101E+04 -1.40928E+04  1.41778E+04 -1.83218E+04 -3.67029E+03
 -1.36495E+04 -1.81994E+04  9.01433E+00 -2.32153E+04  1.18013E+04 -2.01749E+04  2.80944E+04 -1.31549E+04
  2.27596E+04  2.63631E+03  1.93380E+04  1.10655E+04  9.68197E+03  1.15880E+03  1.12067E+04 -4.65912E+03
  2.01134E+04  1.63481E+03  2.54955E+04  1.26030E+04  1.43401E+04  3.28533E+04 -5.45601E+03  4.11118E+04
 -1.98169E+04  2.61664E+04 -3.82752E+04  1.93115E+04 -3.83881E+04  1.44007E+03 -3.40264E+04 -2.54055E+04
 -1.33433E+04 -2.67486E+04  8.47830E+03 -2.59273E+04  2.57056E+04 -1.09379E+04  2.22792E+04  4.51663E+03
  8.12483E+03  2.40739E+04 -8.86086E+03  1.85776E+04 -2.15796E+04 -1.95336E+02 -1.38727E+04 -1.15780E+04
  5.47716E+02 -2.16263E+04  1.15969E+04 -1.42454E+04  1.30879E+04 -4.22674E+03  6.70939E+03  1.27646E+04
 -6.96875E+03  6.72560E+03 -6.96211E+03 -9.05640E+03 -2.55901E+03 -1.05442E+04  1.46257E+04 -2.07618E+04
  2.04745E+04 -1.06045E+04  1.98172E+04  2.34123E+03  2.14344E+04  1.33760E+04  5.18726E+03  2.72022E+04
 -1.32982E+03  2.74383E+04 -1.34616E+04  1.45476E+04 -1.83349E+04  3.76684E+03 -1.20709E+04 -2.81951E+03
 -1.66525E+03 -2.61360E+03 -4.98543E+03  1.03163E+03 -9.31596E+03 -3.44119E+03 -6.81491E+03  1.52672E+03
 -1.33704E+04  4.86906E+01 -1.68518E+04 -7.64771E+03 -2.81671E+03 -1.30824E+04  5.97316E+03 -1.64698E+04
  1.06077E+04 -6.77700E+03  7.69612E+03  4.56386E+03 -3.93413E+03  7.61931E+03 -3.06363E+03 -2.69547E+03
 -8.75157E+03 -4.80265E+03  4.18552E+03 -9.59950E+03  7.27468E+03 -1.56266E+04  1.47218E+04 -8.28619E+03
  2.08171E+04  3.40110E+03  1.32493E+04  1.34377E+04  2.91101E+03  1.55088E+04 -9.64429E+03  1.40873E+04
 -6.97852E+03  4.26219E+03 -4.22076E+03 -5.07865E+02  4.59238E+03  3.62111E+02  1.07198E+04 -3.45573E+03
  3.02368E+02  8.50236E+03  6.28624E+03  9.81430E+03 -3.20802E+03  2.94186E+03 -1.17946E+04  7.10004E+02
 -1.30779E+04 -6.09147E+03  2.16333E+03 -1.42830E+04  9.22831E+03 -5.87113E+03  5.21910E+03 -1.83187E+03
  1.07431E+03  6.77483E+03 -6.81211E+03  9.65000E+03 -5.85130E+03  1.53610E+03 -1.33818E+04  3.15632E+03
 -6.56833E+03 -1.82498E+04 -2.67219E+03 -1.51883E+04  8.75704E+03 -1.09396E+04  1.41850E+04  1.16656E+02
  6.17888E+03  5.73019E+03 -2.46667E+02  1.45104E+04 -7.94399E+03  4.56277E+03 -1.41091E+04 -1.43303E+03
 -1.10152E+04 -5.13117E+03 -1.76788E+03 -5.13825E+03  2.43490E+03 -9.23558E+03  5.02393E+03  1.64692E+01
  3.47255E+03  8.19100E+03 -3.28356E+03  2.59083E+01  3.30337E+03 -3.65932E+03 -2.68020E+03 -4.65951E+03
  7.34113E+03 -7.28517E+03  1.46516E+04 -8.80084E+02  1.26418E+04  2.28206E+03  7.71456E+03  1.39011E+04
 -2.76971E+03  1.87682E+04 -1.90740E+04  1.71532E+04 -2.19203E+04  1.30613E+03 -1.61700E+04 -6.20094E+03
 -8.38813E+03 -1.36192E+04 -3.47555E+03 -9.66750E+03  9.37197E+02 -2.04016E+03  2.06450E+03 -2.16286E+03
 -1.87160E+03 -2.07582E+03  2.60575E+03 -2.57258E+03  6.72807E+03  2.13645E+03  8.99017E+02  2.04263E+03
  6.79446E+03  4.99148E+02  3.14548E+03  1.04400E+04 -4.69495E+03  6.20546E+03 -1.16415E+04  9.68982E+03
 -7.27788E+03 -3.37293E+03 -3.25801E+03 -1.06102E+04  1.27362E+03 -1.33665E+04  4.50241E+03 -1.54599E+04
  1.12470E+04 -3.08251E+03  1.26674E+04  2.04715E+03  1.15253E+04  9.83835E+03  9.58840E+02  1.04401E+04
 -4.44241E+03  4.13790E+03 -9.30973E+03  2.77674E+03 -2.18806E+03 -2.54998E+03 -4.30772E+03 -4.83665E+03
 -1.02755E+03 -2.38310E+03 -6.15672E+02  1.10050E+03 -9.21509E+03  8.08110E+03 -1.85820E+04  2.77468E+02
 -6.92720E+03 -7.89700E+03 -8.30531E+02 -9.04357E+03  3.83156E+03 -1.02195E+04  1.80126E+04 -5.97897E+03
  1.24375E+04  7.70633E+03  1.05491E+04  9.94393E+03 -2.38832E+03  1.20291E+04 -5.58522E+03  5.59278E+03
 -8.11051E+03 -5.78088E+02 -5.16679E+03 -7.14251E+03 -1.74345E+03 -7.59531E+03  5.20778E+03 -1.00865E+04
  6.43948E+03 -3.30441E+03  3.98255E+03 -5.40428E+03 -1.06968E+03  1.01723E+04  3.59850E+03 -1.03104E+03
  1.01622E+03 -3.27486E+03 -8.71028E+02 -3.39540E+02  1.86848E+02  1.01329E+04  4.49522E+03  9.26600E+03
 -2.99602E+03  9.67337E+03 -4.93014E+03  8.35683E+03 -1.15281E+04  5.77479E+03 -9.33623E+03 -7.63036E+03
 -5.10044E+03 -1.06311E+04  7.62145E+03 -1.21315E+04  6.88367E+03 -9.50366E+03  6.87748E+03 -1.42831E+03
  3.05444E+03  4.41517E+03  3.82581E+03  9.59953E+03 -3.48606E+03  4.11612E+03 -7.26949E+03 -7.02403E+03
 -2.28185E+03  1.50782E+03  9.18457E+02 -1.02146E+04  1.37248E+03  2.86821E+03  2.46668E+03 -3.11410E+03
 -1.63705E+03 -1.44942E+03  2.99994E+03  3.21328E+03  1.54898E+03  4.49118E+03 -5.09426E+03  2.10441E+03
 -3.28649E+02 -1.99788E+03  8.04177E+03  3.21058E+02  3.04356E+03  6.81596E+03 -2.03118E+03  6.83597E+03
 -6.35326E+03  5.76284E+03 -3.61677E+03  1.97344E+03 -3.73712E+03 -4.92386E+03 -1.74979E+02 -6.21510E+03
  2.00645E+03 -5.42977E+03  3.56946E+03 -2.38676E+03  5.33601E+03  1.40270E+03 -8.47619E+02  7.37051E+03
 -5.47242E+03 -9.55886E+01 -6.59845E+03  3.78141E+03 -3.68837E+03 -5.29965E+03 -1.41465E+03 -6.96999E+03
  6.77100E+03 -3.47897E+03  4.22670E+03  3.33668E+03  1.50115E+03  2.11707E+03 -1.96391E+03  5.69202E+03
  4.01509E+03 -1.38657E+03 -1.65578E+03  5.23128E+02  2.58466E+03  3.21370E+02  2.17449E+03 -3.76585E+03
  6.17379E+03  1.80019E+03  5.36947E+03  4.42498E+03  2.10690E+03  9.37568E+03  4.46062E+03  6.90030E+02
 -6.46178E+03  3.45704E+03 -1.57167E+04 -6.66006E+03 -7.18154E+03 -1.20835E+03  5.92329E+03 -7.59214E+03
  7.32815E+03  1.44841E+03  4.98936E+03  3.83665E+03  4.06016E+02  1.15592E+04  2.15189E+02  2.07029E+03
 -3.04259E+03  1.13092E+03 -4.96498E+03  5.67350E+02  2.77465E+02  1.68441E+03 -3.46798E+03  4.91844E+03
 -3.66669E+03 -3.84437E+02 -6.57122E+03  5.08372E+03 -2.12840E+03 -2.29900E+03 -7.36173E+03 -5.24760E+03
 -5.57911E+03 -8.87807E+03  4.43630E+03 -5.04515E+03  2.02690E+03 -4.23709E+03  1.10447E+04 -9.48499E+02
  1.27748E+04  7.83175E+03  6.83037E+03  3.42322E+03 -1.32188E+03  4.62973E+03  1.57990E+03  7.08842E+03
 -3.42324E+03  2.08477E+03 -2.68434E+03  1.36019E+03  5.65210E+03  3.53246E+03 -3.26601E+02 -3.40884E+03
 -1.83782E+03 -4.71007E+03  5.24560E+03  1.68294E+03  2.60018E+03 -8.45746E+03  6.59597E+03  1.60364E+03
  6.32303E+03 -3.33321E+03  5.76531E+03  4.55102E+03  5.06217E+03 -1.36870E+03 -5.48372E+02  9.49784E+03
 -2.74854E+03  9.63269E+03 -1.13029E+04  2.48728E+02 -9.37331E+03 -2.56586E+03 -2.31166E+03  2.15682E+02
 -3.81162E+03 -7.72570E+03  4.38295E+03 -4.97706E+03  4.51787E+03 -2.30827E+03  5.41066E+03  3.43688E+03
  5.17447E+03  8.84673E+02 -1.80138E+03 -1.60752E+02  2.60585E+03  7.65623E+02  1.95873E+02  1.96772E+03
 -1.21314E+03  2.59469E+03 -1.99572E+03 -2.81865E+03  4.62832E+03  4.12377E+03  1.94664E+03  4.52252E+03
 -4.60752E+03  8.48014E+03 -8.75812E+03 -2.45343E+03 -4.72389E+03 -4.04453E+03  1.60482E+03 -5.04981E+03
  1.16306E+03 -4.94534E+03  5.01291E+03 -4.33929E+03  7.51375E+03  1.99269E+03  3.40030E+03  4.38553E+03
 -8.23610E+02  1.04717E+03 -2.96634E+03  6.10266E+03 -5.42945E+03 -1.88158E+03 -5.35435E+03 -1.11757E+03
 -2.26097E+03  1.66486E+03 -3.34374E+03  7.45338E+02  1.39383E+02  2.72468E+03 -1.68405E+03 -3.28846E+03
  1.89682E+03 -3.89590E+03  9.86110E+02 -8.49591E+03  6.49311E+03 -2.82887E+03 -2.34664E+03  2.86784E+03
  8.67382E+03 -9.28545E+03  9.34645E+02  6.40312E+03 -4.32695E+03  1.24495E+03  1.22477E+03  2.65221E+03
