 $NMID ID='MM_0lb_SNR50_15hz_g50_42.RAW', FMTDAT='(8E13.5)'
 TRAMP=1., VOLUME=1. $END
  3.07305E+05 -4.46719E+02  3.35866E+05  2.47630E+05  8.30340E+04  3.38308E+05 -1.36697E+05  2.51018E+05
 -1.85543E+05  8.18161E+04 -1.12506E+05 -3.38064E+04  4.36496E+03 -5.57291E+04  5.00927E+04  6.38609E+02
  3.45161E+04  5.22321E+04 -1.84995E+04  7.46769E+04 -6.44281E+04  6.39897E+04 -8.61655E+04  3.42458E+04
 -8.03110E+04 -1.04356E+04 -5.67193E+04 -5.44112E+04 -1.14322E+04 -6.45698E+04  2.30758E+04 -4.42518E+04
  4.61200E+04  5.55531E+03  1.34872E+04  4.38539E+04 -3.49681E+04  5.07055E+04 -6.82626E+04  9.37126E+02
 -5.00619E+04 -5.88774E+04 -3.25188E+03 -7.66795E+04  3.30526E+04 -5.79407E+04  4.66545E+04 -1.43044E+04
  3.95350E+04  1.04347E+04  3.67231E+04  2.39991E+04  1.74286E+04  2.84112E+04 -6.74465E+03  2.70371E+04
 -2.55776E+04  1.14970E+04 -2.16216E+04 -6.23337E+03  2.72273E+03 -9.55423E+03  2.08251E+04  1.42140E+04
  8.99605E+03  3.59633E+04 -3.14278E+04  3.57449E+04 -6.65455E+04  5.41242E+03 -5.35035E+04 -3.84798E+04
 -1.24021E+04 -6.28715E+04  3.73786E+04 -4.72279E+04  5.85847E+04  2.85960E+03  3.82309E+04  3.16148E+04
 -7.16102E+03  3.19215E+04 -3.23657E+04  1.19942E+04 -2.67363E+04 -7.36837E+03 -1.68180E+04 -1.05952E+04
 -9.19045E+03 -1.40958E+04 -3.37184E+03 -1.96883E+04  7.65064E+03 -2.42344E+04  1.48408E+04 -2.02720E+04
  1.10261E+04  8.39733E+03 -8.12557E+03  1.65099E+04 -2.10570E+04  6.58414E+02 -8.60357E+03 -3.64617E+04
  2.24066E+04 -3.84109E+04  4.58744E+04 -1.44007E+04  4.77892E+04  2.07056E+04  1.41101E+04  4.47928E+04
 -1.71841E+04  3.37302E+04 -2.55543E+04 -2.48984E+03 -1.15212E+04 -2.81782E+04  2.16450E+04 -3.03163E+04
  4.28218E+04 -1.24692E+04  3.36533E+04  2.50509E+04  1.75908E+04  4.49247E+04 -9.20647E+03  4.73269E+04
 -3.20041E+04  3.19338E+04 -4.64116E+04  1.15816E+04 -4.40736E+04 -1.11822E+04 -2.30343E+04 -3.49061E+04
  4.37182E+03 -3.68103E+04  3.19684E+04 -1.61919E+04  2.70235E+04  1.15590E+04  4.29115E+03  2.20795E+04
 -1.24772E+04  1.00935E+04 -9.49629E+03 -8.76319E+03  5.30341E+03 -6.36881E+03  1.95053E+04  7.72325E+03
  1.23402E+04  1.87803E+04  3.45003E+02  2.56970E+04 -2.29775E+04  1.17377E+04 -2.90905E+04 -4.93447E+03
 -1.63809E+04 -1.65905E+04 -9.59116E+03 -2.45968E+04 -1.50492E+03 -1.66344E+04  1.34302E+04 -2.12079E+04
  2.07810E+04 -1.77742E+04  3.18980E+04 -3.39796E+02  2.07258E+04  1.96997E+04  2.50479E+03  3.70731E+04
 -2.09142E+04  3.12857E+04 -2.25913E+04  1.16590E+04 -2.18248E+04 -8.60812E+03 -3.82236E+03 -1.43133E+04
  5.47416E+02 -2.65908E+03 -3.78633E+03  8.34718E+03 -1.61634E+04  6.09207E+03 -1.87085E+04 -3.90840E+03
 -1.23407E+04 -1.81107E+04  5.61467E+03 -2.51805E+04  1.19211E+04 -1.63245E+04  1.68301E+04 -2.38948E+03
  1.08638E+04  1.42503E+04  2.47299E+03  1.80829E+04 -8.41201E+03  1.27073E+04 -2.49724E+04 -1.40707E+03
 -1.25361E+04 -1.59386E+04 -2.66667E+02 -1.96462E+04  8.75452E+03 -1.57410E+04  1.23086E+04 -8.98806E+03
  1.91862E+04 -2.04502E+01  1.32621E+04  6.17836E+03  3.37842E+03  1.61801E+03  7.94119E+03 -8.68558E+03
  1.75156E+04  1.01066E+03  2.11868E+04  1.63696E+04  9.71858E+03  3.07184E+04 -4.39603E+03  3.21315E+04
 -2.18658E+04  2.78479E+04 -3.16622E+04  1.06843E+04 -3.17338E+04 -3.36614E+03 -2.73316E+04 -2.39106E+04
 -1.39075E+04 -2.46606E+04  5.59955E+03 -2.19710E+04  2.02789E+04 -1.22510E+04  1.80320E+04  7.14318E+03
  8.09186E+03  1.89420E+04 -7.34103E+03  1.09984E+04 -1.30567E+04  1.29363E+03 -1.44978E+04 -1.02631E+04
 -6.12398E+02 -1.56035E+04  1.20184E+04 -5.60469E+03  8.07214E+03 -5.09934E+03 -1.72930E+03  6.16179E+03
 -1.00579E+04  3.24280E+03  1.15666E+03 -1.43059E+04  2.29260E+02 -1.43906E+04  6.61447E+03 -1.19419E+04
  1.07607E+04 -7.27523E+03  1.18312E+04  4.55954E+02  1.32358E+04  9.29675E+03  8.17630E+03  1.40172E+04
 -3.33994E+03  2.38487E+04 -1.41501E+04  8.05126E+03 -1.71836E+04  4.91917E+03 -9.72927E+03 -2.34140E+03
 -5.88846E+03 -4.99246E+03 -1.31484E+03  3.67408E+03 -9.92246E+02  1.50404E+03 -4.23349E+03  7.72148E+03
 -8.20295E+03 -1.12504E+03 -1.19190E+04 -7.56636E+03 -7.13809E+03 -1.59810E+04  1.38979E+03 -1.17700E+04
  8.18399E+03 -8.51625E+03  6.96966E+03  4.87940E+03  5.91526E+03  2.35877E+03 -4.79907E+03 -6.24909E+02
  6.25293E+01 -4.02076E+03  4.88840E+03 -6.96410E+03  4.60647E+03 -1.57112E+04  1.44432E+04 -8.39861E+03
  1.42273E+04  2.53406E+03  1.03944E+04  5.49404E+03  4.34950E+03  1.30825E+04 -7.67773E+03  1.10182E+04
 -4.75179E+03  3.01748E+03 -4.36104E+03 -3.32264E+03 -2.22035E+03 -5.28172E+03  2.39751E+03 -9.28855E+02
  9.11832E+03 -1.23190E+03 -7.16421E+02  6.24925E+03 -9.52935E+03  8.80734E+03 -1.67916E+04  1.22413E+03
 -5.17301E+03 -8.63998E+03 -2.27648E+03 -1.09571E+04  7.26187E+03 -1.77459E+03  1.32498E+03  4.03254E+02
  1.49664E+02  3.54778E+03 -1.78068E+03  6.47312E+03 -4.15439E+03  6.32547E+03 -4.67614E+03 -1.82827E+03
 -8.88193E+03 -1.25132E+04  3.93984E+03 -7.47005E+03  7.80559E+03 -4.27400E+03  1.32215E+04 -3.40239E+02
  1.01181E+04  1.23222E+04 -2.58281E+03  1.43127E+04 -5.18312E+03  6.32437E+03 -1.16339E+04  1.44299E+03
 -7.49830E+03 -1.06572E+04 -4.15682E+03 -7.28030E+03  6.22483E+03 -3.31353E+03  1.13621E+04 -1.01813E+03
  3.58328E+03 -7.37863E+02  2.12998E+03  1.69960E+03  4.19662E+03 -2.39868E+03 -1.69748E+03 -5.47245E+03
  3.00170E+03  5.31721E+02  3.91840E+03  1.66090E+03  5.70726E+03  5.21042E+03  6.80912E+03  1.44378E+04
 -1.97764E+02  1.40339E+04 -1.00176E+04  1.06693E+04 -1.86498E+04  6.79245E+03 -1.50382E+04 -2.53473E+03
 -2.64024E+03 -1.35888E+04  1.48083E+02 -1.26879E+04  5.23335E+03 -4.17465E+03  3.17532E+03 -2.68698E+03
 -6.60273E+02 -3.28997E+03  3.74856E+03  2.14023E+03  1.38420E+03 -4.01345E+03  3.01272E+03  9.30769E+02
  6.08854E+03  4.69816E+03  7.33133E+03  1.97603E+03 -2.56907E+02  2.79521E+03 -6.70460E+03  6.19297E+03
 -6.53987E+03 -4.52474E+03  5.33905E+02 -1.00275E+04  3.55430E+03 -5.62150E+03  3.95492E+03 -2.47289E+02
  1.14740E+04 -2.70235E+03  1.35947E+04 -2.53664E+03  6.19060E+03  1.04980E+04  4.80961E+03  9.56219E+03
 -1.26846E+03  1.08740E+04 -5.23628E+03  2.13762E+03 -4.03385E+03  5.46017E+02  1.51523E+02  3.39046E+03
  4.30824E+03 -2.80639E+03 -2.96924E+02  3.91717E+03 -3.84656E+03  2.58322E+03 -5.59937E+03 -3.91318E+03
 -7.51493E+02 -4.88268E+03 -2.93309E+03 -2.91177E+03  2.03123E+03 -7.89368E+03  5.18999E+03 -7.30752E+02
  4.26811E+03  7.70165E+03  4.97641E+03  9.68166E+03 -1.37693E+03  7.59649E+03 -1.00873E+04  8.87964E+03
 -7.61613E+03  1.32112E+02 -1.18949E+04 -8.22095E+03  1.81070E+03 -4.95094E+03  4.38790E+03 -2.04637E+03
  4.46345E+03  2.16355E+02  5.13902E+03  2.90258E+03  2.34210E+03  1.39907E+03 -1.38940E+03  1.86230E+03
  1.81958E+03 -2.92824E+01  6.54770E+03  4.71827E+03 -4.22909E+03  7.95403E+03 -2.70789E+03  4.92199E+03
 -3.26961E+03  3.94392E+03 -1.31936E+03  8.13982E+03 -3.11233E+03 -3.04018E+03 -6.09582E+03  4.99319E+03
 -2.84882E+03 -3.42134E+03 -3.01185E+03 -7.07060E+03  6.08370E+03 -7.51111E+03  1.06822E+04  1.91554E+03
  3.70150E+03 -3.04341E+02  3.96817E+03  2.93031E+03  3.59457E+03 -9.18106E+02  7.49606E+02  8.35625E+02
 -4.27225E+02 -3.45192E+03 -9.72510E+02 -5.67447E+03  3.39905E+03  1.72679E+03  6.40687E+03  6.01581E+03
  3.52888E+03  6.41504E+03 -3.33311E+02 -2.10258E+03  1.35678E+03  2.18532E+03 -8.12755E+02  2.93200E+03
  3.28765E+03 -2.03340E+03  4.03531E+03  6.11927E+02  2.35026E+03  7.16616E+03 -4.36343E+03  4.01787E+03
 -4.16113E+03 -1.45596E+03 -4.26608E+03  1.93159E+03 -4.80119E+03 -6.13256E+03  4.36832E+02 -2.08943E+03
 -3.55177E+03 -3.01304E+03 -6.39214E+02 -2.72096E+02  3.33443E+03 -1.95030E+03 -4.28594E+02  2.19263E+03
 -5.68808E+03  9.85169E+02 -1.79844E+03 -3.96921E+03 -1.20443E+03 -4.22991E+03 -3.96698E+03 -5.78323E+03
  2.68721E+03 -7.39950E+02 -2.81120E+03  3.97735E+03  5.01833E+03 -1.01044E+03  7.96592E+02  9.45787E+02
  1.02986E+03  5.23867E+03 -4.10236E+03  3.22338E+03 -4.01861E+03  1.18116E+01  4.18426E+03 -6.56428E+03
 -6.74870E+02 -6.15141E+02  5.71604E+03  3.81429E+03  4.38897E+03  2.66498E+03  9.83446E+02  3.61876E+03
 -1.08620E+04  4.79156E+03 -4.87569E+03 -1.78335E+03 -4.37460E+03 -3.46996E+03 -1.02385E+03 -4.47054E+03
  4.38067E+03 -2.00818E+03  2.93080E+02  4.06344E+02  1.28050E+03  9.60014E+02  7.92010E+01  2.97296E+03
  7.92836E+02 -1.21390E+03 -1.19090E+03 -6.91600E+02 -1.04924E+02  5.21161E+02 -7.87566E+02  1.30634E+03
 -1.65131E+03 -3.04935E+02 -2.28678E+03  2.32292E+02 -6.79273E+03  3.78547E+03 -7.08787E+03 -9.38751E+02
 -4.06107E+03 -8.48665E+03 -6.61530E+02 -6.67563E+03  4.17695E+03 -6.08689E+02  4.04630E+03  1.28739E+02
  3.23757E+03 -1.79348E+02  4.75685E+03  9.23449E+03 -1.74612E+02  3.85812E+03 -2.73060E+03  2.12772E+03
  1.82566E+03  1.80665E+03 -8.33799E+02 -1.44210E+03 -1.14603E+03  5.59818E+01 -7.10355E+02  4.80844E+03
 -5.12156E+03 -2.60950E+03 -4.09911E+03 -1.71933E+02  1.41569E+03 -3.10599E+02  2.05435E+03 -2.91009E+03
  5.40854E+03 -4.39712E+03 -1.16302E+03  1.91599E+03  3.01235E+03  5.74766E+02 -3.56919E+03  4.25878E+03
 -3.30700E+03  4.37714E+02 -3.54330E+03  6.16098E+03 -2.01005E+03  4.43782E+03 -2.69281E+03 -2.11940E+03
 -7.09960E+03  2.37875E+03  1.03891E+03 -1.17561E+03  2.42527E+03 -3.24976E+03  3.75980E+03 -3.53290E+03
  5.73848E+03 -2.91483E+03 -1.28344E+03  5.43461E+03 -5.73944E+02  1.97814E+03 -2.61023E+01  7.55216E+02
  1.91839E+03 -1.72918E+03 -3.70720E+03 -1.92090E+03 -1.21512E+02 -4.31250E+02  4.43554E+01  4.10150E+03
 -7.88809E+02  5.70997E+03  3.68520E+02 -6.06022E+02 -6.51731E+03 -1.36811E+03 -3.49708E+03 -1.25446E+02
  2.50598E+03 -2.69537E+03  4.50965E+03  9.54129E+02  1.84500E+03  4.27253E+03  1.22467E+03 -2.37189E+03
 -3.16132E+03  1.82082E+03  4.22179E+03  2.35788E+02 -5.60243E+02  4.42894E+03  2.60599E+03  2.49277E+03
  2.13705E+03  1.38278E+03  3.88621E+03  2.80428E+03  2.85459E+03 -6.34831E+02 -2.11697E+03  4.19269E+03
  1.62668E+03  5.86107E+02 -5.73636E+02 -8.95350E+02  9.77117E+02 -2.05272E+03 -5.20048E+02 -9.06609E+02
  4.45492E+03  7.54124E+03  5.08802E+03  2.11863E+03 -3.00247E+03 -1.03967E+03  9.30316E+02  4.33149E+03
