 $NMID ID='MM_0lb_SNR50_15hz_g60_17.RAW', FMTDAT='(8E13.5)'
 TRAMP=1., VOLUME=1. $END
  3.11190E+05  1.74923E+03  3.38205E+05  2.47971E+05  8.18054E+04  3.36349E+05 -1.27468E+05  2.48681E+05
 -1.90951E+05  8.14204E+04 -1.12646E+05 -3.55078E+04  4.81114E+03 -5.12932E+04  4.95191E+04  4.26881E+03
  3.71476E+04  5.33661E+04 -1.85607E+04  8.30847E+04 -6.15585E+04  6.48937E+04 -8.12642E+04  3.81804E+04
 -8.22392E+04 -1.24491E+04 -6.21060E+04 -5.03002E+04 -1.05538E+04 -7.37756E+04  2.78335E+04 -4.62963E+04
  4.02336E+04  4.22800E+03  1.40798E+04  5.17472E+04 -3.12640E+04  4.87057E+04 -6.57682E+04 -9.57911E+02
 -5.44429E+04 -5.55427E+04 -8.91435E+03 -7.89271E+04  3.10402E+04 -6.13380E+04  4.78956E+04 -1.74820E+04
  4.12694E+04  7.99667E+03  3.11342E+04  2.48336E+04  1.81611E+04  3.17718E+04 -6.63224E+03  3.18812E+04
 -2.49356E+04  8.71223E+03 -1.70851E+04 -4.13894E+03  1.50414E+03 -6.06138E+03  2.57206E+04  1.40037E+04
  5.80556E+03  3.47135E+04 -3.98816E+04  3.49055E+04 -6.70231E+04  5.06530E+03 -5.58955E+04 -4.44952E+04
 -1.25051E+04 -6.71254E+04  4.51723E+04 -4.82148E+04  5.75845E+04 -5.55697E+03  3.64103E+04  3.24667E+04
 -7.25327E+03  3.60532E+04 -2.92357E+04  1.43322E+04 -3.42338E+04 -1.69385E+02 -1.67995E+04 -9.06473E+03
 -1.18410E+04 -1.35929E+04 -2.73071E+03 -2.16134E+04  9.49849E+03 -1.84734E+04  1.55889E+04 -1.69902E+04
  1.43375E+04  6.19942E+03 -1.08702E+04  1.11146E+04 -2.31804E+04 -4.63467E+03 -7.60646E+03 -3.07049E+04
  2.16740E+04 -3.87092E+04  5.19861E+04 -1.99053E+04  4.78906E+04  1.87738E+04  1.78050E+04  4.19540E+04
 -1.35402E+04  3.54447E+04 -2.56553E+04  1.42480E+03 -6.11386E+03 -2.95711E+04  2.29166E+04 -3.52457E+04
  4.23995E+04 -3.00021E+03  3.62895E+04  1.95276E+04  1.98264E+04  4.69392E+04 -1.33146E+04  5.34227E+04
 -3.25231E+04  3.43644E+04 -4.41310E+04  1.23057E+04 -3.96752E+04 -1.81512E+04 -2.26176E+04 -4.15694E+04
  7.32913E+03 -3.62383E+04  2.90939E+04 -1.04958E+04  2.83979E+04  1.09365E+04  7.47816E+03  2.50150E+04
 -1.87329E+04  4.83832E+03 -6.59049E+03 -8.94146E+03  6.67142E+03 -9.50714E+03  2.15540E+04  6.69599E+03
  1.48114E+04  1.96384E+04 -7.04512E+03  2.46775E+04 -2.03958E+04  1.39486E+04 -2.66756E+04 -1.62393E+03
 -1.84202E+04 -1.72884E+04 -7.84638E+03 -1.78827E+04  5.80917E+02 -2.35443E+04  1.73614E+04 -1.67968E+04
  2.84797E+04 -1.49518E+04  3.26002E+04  6.93876E+03  2.47303E+04  1.85738E+04  4.09500E+03  3.57507E+04
 -1.83751E+04  2.87883E+04 -3.10776E+04  1.25602E+04 -1.78341E+04 -1.71006E+04 -5.31986E+03 -1.45853E+04
  3.83247E+03 -1.67166E+03 -4.93945E+03  6.94512E+03 -1.69449E+04  6.61285E+03 -1.38617E+04 -1.25230E+04
 -7.97370E+03 -1.72361E+04  7.32876E+03 -2.71552E+04  1.09303E+04 -1.83741E+04  1.98966E+04 -1.53443E+02
  1.38407E+04  8.22903E+03 -1.79666E+03  1.71096E+04 -1.27114E+04  1.39077E+04 -2.42381E+04 -3.74563E+02
 -9.21567E+03 -1.69717E+04  2.99194E+03 -2.67669E+04  6.51648E+03 -1.80538E+04  2.40068E+04 -6.14000E+03
  1.33637E+04 -2.46887E+02  8.60069E+03  4.65848E+03  3.66456E+03 -1.35874E+03  1.11322E+04 -9.49149E+02
  2.19761E+04  5.12086E+02  1.96273E+04  1.23046E+04  1.32047E+04  3.04503E+04  1.09089E+03  3.35476E+04
 -1.90842E+04  2.23319E+04 -3.55588E+04  1.38072E+04 -3.36807E+04 -2.54197E+03 -2.70824E+04 -2.07748E+04
 -1.30620E+04 -2.64683E+04  1.00344E+04 -2.61443E+04  2.27494E+04 -1.69830E+04  2.02350E+04  6.60088E+03
  9.25576E+03  1.44795E+04 -1.37167E+04  1.27423E+04 -1.83111E+04  1.40458E+03 -9.66173E+03 -1.06245E+04
  1.09562E+03 -2.16708E+04  8.63550E+03 -1.09360E+04  1.16012E+04 -2.84767E+03  5.62318E+02  5.89600E+03
 -7.28485E+03  5.24214E+03 -5.35087E+03 -2.52542E+03  1.95905E+03 -1.50515E+04  1.18709E+04 -1.47049E+04
  2.09091E+04 -6.96333E+03  1.59905E+04  8.63342E+03  1.59467E+04  1.09376E+04  3.49207E+03  1.56103E+04
 -2.52957E+03  1.68138E+04 -1.10223E+04  1.07062E+04 -1.91882E+04  1.09804E+04 -1.26388E+04 -3.04710E+03
 -6.03098E+03 -9.25910E+03 -1.68597E+03  1.04042E+03 -2.90039E+02  4.71139E+03 -1.09688E+04  2.11595E+03
 -1.58859E+04 -2.27499E+03 -1.02317E+04 -9.02162E+03 -3.39177E+03 -1.61433E+04  7.34598E+03 -6.27069E+03
  5.96374E+03 -5.58879E+03  1.04470E+04  9.20190E+03  5.23960E+02  3.24983E+03 -6.83768E+02 -4.77692E+03
 -8.40934E+03 -4.21550E+03  1.05345E+03 -1.24375E+04  3.25416E+03 -9.91593E+03  1.63414E+04 -5.47042E+03
  1.77530E+04 -6.19981E+02  1.19380E+04  1.27340E+04  2.82844E+03  1.18927E+04 -1.21167E+04  1.59857E+04
 -6.66790E+03 -1.44383E+03 -5.96498E+03 -3.04037E+03  1.39970E+03 -4.56806E+03  6.59616E+03 -3.03864E+03
  8.59134E+03  6.53338E+03 -1.33251E+03  1.01235E+04 -6.08746E+03  5.85449E+03 -1.12724E+04  6.29272E+03
 -8.06125E+03 -4.77017E+03 -3.23909E+03 -8.84685E+03  3.39517E+03 -7.18188E+03  3.67997E+03  2.07786E+03
 -1.18465E+03  5.70273E+03 -8.68979E+03  4.34452E+03 -8.81702E+03  9.73431E+02 -6.51334E+03 -5.32785E+03
 -9.80113E+02 -9.73665E+03  1.84136E+03 -1.17392E+04  1.19067E+04 -3.26621E+03  9.36490E+03  6.68323E+03
  3.96209E+03  8.18327E+03 -2.84926E+03  1.14307E+04 -9.31233E+03  5.47168E+03 -1.46059E+04 -6.82943E+03
 -7.63156E+03 -1.18558E+04  8.09218E+02 -1.26100E+04  1.42368E+03 -6.51380E+03  4.21052E+03 -1.10669E+03
  5.49234E+03  1.52478E+02 -3.98875E+02  1.55508E+02  5.33124E+03  1.04559E+03 -1.73129E+03 -7.47740E+02
  8.05794E+03 -1.97299E+03  1.02248E+04 -3.47755E+03  9.23377E+03  6.59135E+03  5.09102E+03  9.04915E+03
 -7.94377E+03  1.03851E+04 -6.81914E+03  1.12110E+04 -1.67894E+04  5.67837E+03 -9.31176E+03 -8.07278E+03
 -5.34059E+03 -1.36803E+04 -1.31382E+03 -1.08637E+04  7.53492E+03 -6.84713E+03 -7.15037E+02 -2.53803E+03
  2.90424E+03 -7.11123E+01 -5.36939E+02 -3.18003E+03  3.19059E+03 -4.35250E+03  4.34310E+03 -4.00461E+03
  7.84254E+03  5.45951E+03  2.88842E+03  3.25511E+03 -4.56359E+03  3.00974E+03 -8.07914E+03  5.72120E+03
 -1.08689E+04 -1.85883E+02 -6.30950E+03 -7.15888E+03 -2.90909E+02 -5.69406E+03  5.88626E+03 -8.46397E+03
  5.78619E+03 -7.72560E+03  1.44532E+04  1.41262E+03  8.32499E+03  9.50279E+03  3.21689E+03  1.19568E+04
 -3.97675E+03  8.83662E+03 -3.10557E+03  3.93489E+03 -6.12245E+03 -1.92916E+03 -6.64547E+02 -2.93590E+03
 -2.37482E+02 -2.89658E+03  8.50540E+02  2.62915E+03 -5.33183E+03 -1.35287E+03 -2.27436E+03  8.34958E+02
 -8.27501E+02 -1.09632E+04 -5.76208E+03 -6.69153E+03  5.21066E+03 -7.13224E+03  9.06341E+03  1.19930E+03
  8.07781E+03  1.74035E+03  1.65105E+03  7.94989E+03  8.53992E+02  1.17193E+04 -3.38623E+03  4.39516E+03
 -4.87602E+03 -1.09573E+02 -4.53749E+03 -3.32734E+03 -1.35885E+03 -4.81153E+03  1.16086E+03 -5.13623E+03
  3.96112E+03 -3.30423E+03  9.74339E+02 -5.91992E+02  1.48246E+03  1.89920E+03  3.81265E+03  1.22485E+03
  1.20353E+03  5.98095E+03  1.87139E+03  1.29877E+03  6.36386E+03  8.59757E+03  4.27925E+03  4.80935E+03
  1.93038E+03  7.83003E+03 -4.92138E+03  8.68278E+03 -3.22390E+03 -1.80613E+03 -6.73450E+03 -5.18313E+03
 -4.38933E+03 -4.69519E+03 -1.89500E+02 -7.99584E+03  4.77893E+03 -3.82325E+03  3.29437E+03 -2.53534E+03
  4.11636E+03  5.52746E+03 -2.63735E+03  7.99906E+03 -3.79320E+03  1.95494E+03 -3.79833E+03 -2.48906E+03
 -2.56335E+03 -3.22632E+03 -1.22649E+03 -3.14708E+03  8.84099E+02  2.11399E+03 -2.55750E+03 -2.74212E+03
  5.47778E+03  2.53795E+03  1.71806E+03 -9.30220E+02  1.05975E+03  4.34620E+03  2.87373E+03 -6.57457E+03
  2.00113E+03  2.02658E+03  4.42862E+03  3.11251E+03  4.70341E+03  8.28983E+03  2.22500E+03  5.56912E+03
 -3.51507E+03 -1.84630E+01 -6.41760E+03 -1.22793E+03 -5.21020E+03 -3.12743E+03 -1.81564E+03 -2.18535E+03
 -4.41703E+02 -3.27917E+03  2.62700E+03  2.28985E+03 -1.65080E+02  4.79142E+03 -1.00257E+03  4.82388E+03
 -5.50767E+03  4.44140E+03 -5.47440E+03 -1.60521E+03 -9.40844E+03 -1.56841E+03  8.83037E+02 -1.24778E+02
  3.23903E+03 -2.02024E+02  1.02487E+03 -1.36601E+03  5.81492E+03 -3.45974E+03  9.06718E+01 -8.10220E+02
 -2.89512E+02  4.86650E+02 -2.35558E+03  5.06970E+02  4.50575E+03 -4.69255E+03  4.61948E+03 -2.41842E+03
  5.01203E+03 -1.73936E+03  4.88008E+03  1.08686E+03  3.85796E+03  2.41261E+03 -2.08310E+03  7.13059E+03
  4.32647E+02 -1.18839E+02 -5.61186E+03 -2.18970E+03  2.38270E+03 -1.43330E+03  4.64241E+03 -1.65401E+03
  6.22752E+03  1.67366E+03  6.82791E+02  1.06223E+03 -2.99872E+03  4.91252E+03  1.31155E+03 -1.17386E+03
 -1.46232E+03  5.08644E+03 -3.57573E+03  2.50593E+02  9.69129E+02 -1.21309E+03 -4.30455E+03 -1.88784E+03
 -4.73364E+03  3.66433E+02 -4.90391E+03  1.51474E+03 -5.61573E+02 -6.20597E+02 -1.98060E+03 -3.56315E+03
 -3.97242E+03  1.55256E+02  2.01076E+03 -6.70608E+03  1.60079E+03 -6.30353E+03  7.27388E+03  5.69951E+02
  1.05025E+03  1.29185E+03  1.19508E+03  4.04214E+03 -5.54944E+03  4.97612E+03 -1.40079E+03  3.43162E+03
  1.75700E+03 -7.96770E+02  1.61089E+02 -4.46428E+03 -2.09671E+03  5.06765E+02  1.39704E+03 -2.12288E+03
 -1.37238E+03 -3.11892E+02 -3.43208E+03  4.69499E+02 -9.61588E+02 -2.49973E+03 -3.83129E+03 -2.40890E+03
  5.91216E+03 -7.89852E+03 -3.11424E+03 -2.61316E+03 -2.32432E+03  2.92994E+03 -1.75669E+03  9.18715E+02
  1.11235E+03 -8.55707E+01 -3.20417E+03  3.12026E+03 -4.20578E+03 -9.08519E+02  2.09346E+03 -1.63696E+03
 -3.99900E+03 -2.69722E+03 -1.10796E+03 -7.84514E+03  7.58069E+03 -2.08662E+03  7.19443E+03  4.32112E+02
  2.22142E+03 -1.89233E+03 -2.24879E+03  1.32640E+03 -6.13144E+02  1.46466E+03 -8.56620E+02  1.25142E+03
  3.49654E+03 -9.10287E+02  8.04923E+02 -2.25778E+03  9.40409E+02  5.48292E+03  2.41453E+03  4.34662E+03
  2.44904E+03  2.94171E+03 -4.15231E+03  2.21539E+03  4.37879E+03  1.85522E+03  2.50102E+03  3.58872E+02
  7.89382E+02 -4.87039E+03 -5.05477E+02 -2.44115E+03  2.32070E+02 -4.37642E+03 -1.32771E+03  2.05155E+03
 -5.18747E+03  1.19114E+03  5.51841E+02 -1.24995E+03 -5.52595E+02 -3.08617E+02 -9.35239E+02  2.88956E+03
 -1.12612E+03  2.79388E+03  8.57356E+02  9.38005E+03 -3.39455E+03 -4.91826E+02 -9.76599E+01 -3.27457E+03
 -6.05150E+02 -2.74914E+03  1.28254E+02 -5.13671E+02  3.27768E+03  4.50771E+02  8.72918E+03 -1.59231E+03
  2.47471E+03 -4.85145E+03  1.99590E+03  2.67129E+03 -4.14721E+03  5.09114E+03 -6.52695E+03  4.44054E+03
