 $NMID ID='MM_0lb_SNR50_16hz_g40_33.RAW', FMTDAT='(8E13.5)'
 TRAMP=1., VOLUME=1. $END
  3.10408E+05  3.14822E+03  3.34546E+05  2.53066E+05  8.23166E+04  3.39124E+05 -1.31604E+05  2.49853E+05
 -1.90599E+05  8.50030E+04 -1.10577E+05 -3.55057E+04 -1.72125E+03 -4.66802E+04  5.28995E+04  1.21066E+03
  3.39908E+04  4.78738E+04 -1.37123E+04  7.31694E+04 -5.75193E+04  5.95608E+04 -7.69371E+04  2.62038E+04
 -8.22027E+04 -1.40262E+04 -5.37823E+04 -5.13737E+04 -1.51761E+04 -6.76274E+04  2.79873E+04 -4.49486E+04
  3.84670E+04  6.52202E+03  1.40057E+04  4.46481E+04 -3.36814E+04  4.74162E+04 -5.85188E+04  5.85304E+02
 -5.27458E+04 -5.85100E+04 -9.83354E+03 -7.51914E+04  3.46203E+04 -5.14823E+04  4.65021E+04 -1.78331E+04
  4.29795E+04  1.47962E+04  2.46009E+04  2.65335E+04  1.60254E+04  3.05033E+04 -2.00462E+03  2.88579E+04
 -2.50454E+04  1.22109E+04 -2.12961E+04 -3.95276E+03  2.31631E+03 -6.06818E+03  1.97364E+04  1.58224E+04
  5.11045E+03  3.07930E+04 -3.01752E+04  3.39407E+04 -6.37289E+04  4.54304E+03 -5.53400E+04 -4.78245E+04
 -1.90012E+04 -6.01012E+04  3.38252E+04 -4.42170E+04  5.34659E+04 -3.52046E+03  3.51466E+04  2.84640E+04
 -6.78609E+03  3.74224E+04 -3.43778E+04  1.53028E+04 -3.11657E+04 -7.41190E+03 -1.83559E+04 -1.12715E+04
 -8.12827E+03 -9.21763E+03 -1.96797E+02 -2.36677E+04  7.85623E+03 -1.72354E+04  1.95643E+04 -1.28359E+04
  1.38907E+04  5.26117E+03 -6.54006E+03  1.04227E+04 -2.11449E+04 -8.16040E+02 -6.23957E+03 -3.13576E+04
  2.36109E+04 -3.96030E+04  4.71645E+04 -1.60821E+04  4.53314E+04  2.35016E+04  1.34325E+04  4.33239E+04
 -1.46151E+04  3.41782E+04 -3.24211E+04  5.44199E+03 -7.91153E+03 -2.64635E+04  2.35739E+04 -3.03795E+04
  3.92161E+04 -9.67058E+03  3.14978E+04  1.81564E+04  1.43819E+04  4.14128E+04 -7.92066E+03  4.49491E+04
 -3.10703E+04  2.77741E+04 -4.27167E+04  7.74176E+03 -4.18065E+04 -1.37137E+04 -1.87053E+04 -3.30491E+04
  7.85423E+03 -3.51671E+04  2.94759E+04 -1.06904E+04  2.47231E+04  9.98079E+03 -1.81939E+03  2.09278E+04
 -1.15511E+04  7.81944E+03 -8.75585E+03 -8.17895E+03  8.30448E+03 -9.12043E+03  1.67278E+04  9.86138E+03
  1.35821E+04  2.39838E+04 -1.02510E+04  2.21670E+04 -2.18001E+04  1.18536E+04 -2.45755E+04 -1.58005E+02
 -1.59949E+04 -1.50193E+04 -7.33884E+03 -1.25597E+04  4.02406E+03 -2.09777E+04  1.31670E+04 -1.71084E+04
  2.20100E+04 -1.24027E+04  2.70608E+04 -4.35521E+02  2.08922E+04  2.04054E+04  3.72221E+03  3.39379E+04
 -1.08270E+04  2.65691E+04 -2.69870E+04  1.07695E+04 -2.47382E+04 -8.91196E+03 -1.44340E+03 -1.42001E+04
  4.83187E+02  1.02567E+03 -2.00600E+03  1.07080E+04 -1.30214E+04  5.01462E+03 -1.34237E+04 -8.14606E+03
 -1.14298E+04 -1.79286E+04  2.16497E+03 -1.78298E+04  1.65797E+04 -1.75319E+04  1.55481E+04 -1.12328E+03
  1.14299E+04  1.15761E+04  1.83779E+03  1.86826E+04 -1.07837E+04  1.05185E+04 -1.95558E+04 -4.16493E+03
 -9.56112E+03 -1.61321E+04  1.23985E+02 -2.14989E+04  7.21872E+03 -1.44538E+04  1.38030E+04 -1.01663E+04
  1.74453E+04  4.24238E+03  1.34833E+04  4.17825E+02  9.28188E+03  1.61405E+01  7.53266E+03 -1.80500E+03
  1.33800E+04  7.96880E+03  1.38474E+04  1.08891E+04  1.38678E+04  2.54392E+04 -9.58505E+02  3.26950E+04
 -2.03301E+04  2.26352E+04 -2.92213E+04  9.81397E+03 -3.11627E+04 -2.34139E+03 -2.13354E+04 -1.31529E+04
 -1.44770E+04 -2.45370E+04  1.00982E+04 -2.17223E+04  1.78793E+04 -5.76909E+03  2.23112E+04  7.87157E+03
  2.31884E+03  8.48430E+03 -8.35143E+03  1.13540E+04 -1.53086E+04  2.81568E+03 -1.19379E+04 -5.54967E+03
  3.07468E+02 -1.18237E+04  5.63782E+03 -1.06147E+04  1.08114E+04  1.50981E+03  4.67719E+03  3.52961E+03
 -4.53693E+03  1.08731E+03 -3.43121E+03 -1.06921E+04  4.47778E+03 -1.11661E+04  4.93296E+03 -1.09531E+04
  1.20533E+04 -1.01019E+04  1.58946E+04  3.15354E+03  1.48410E+04  1.33511E+04  1.64377E+03  1.90921E+04
  1.15698E+03  2.33170E+04 -1.28431E+04  1.58728E+04 -1.57838E+04  2.92883E+03 -1.07892E+04 -1.96136E+03
 -7.52973E+03 -3.82033E+03 -6.79552E+02  1.45023E+03 -1.47841E+03  2.83216E+03 -4.49081E+03  8.95655E+03
 -6.73293E+03  2.13155E+02 -8.58817E+03 -1.18913E+04 -3.11285E+03 -1.40185E+04  5.35247E+03 -1.17683E+04
  3.78460E+03 -3.02441E+03  6.15527E+03  5.07028E+03  5.08932E+03  4.62614E+03 -5.27302E+02  2.54983E+02
 -3.14604E+03 -7.04289E+03 -1.12289E+03 -6.33366E+03  5.45908E+03 -6.12173E+03  1.16624E+04 -1.86225E+03
  1.45676E+04 -1.07061E+03  8.07638E+03  9.61149E+03  8.46860E+03  1.13818E+04 -5.00846E+03  1.11534E+04
 -5.44754E+03 -2.60250E+03 -5.85602E+03 -1.32868E+03  1.52490E+02 -4.25005E+03  4.61495E+03 -1.57795E+03
  6.58253E+03  1.78865E+03  3.19620E+03  9.06450E+03 -1.64362E+03  7.44615E+03 -7.09585E+03  3.17315E+00
 -2.36335E+03 -1.49024E+03  2.64270E+03 -1.04434E+04  6.91680E+03 -6.23109E+03  7.79686E+03 -4.43119E+02
  3.07990E+03  8.09317E+03 -5.72073E+03  4.86145E+03 -8.70973E+03  4.63121E+03 -6.80135E+03 -4.02664E+03
 -5.98606E+02 -7.85988E+03  6.70001E+02 -5.60204E+03  1.18347E+04 -7.42153E+03  7.45943E+03  1.09785E+03
  5.98476E+03  9.14278E+03 -2.58303E+03  6.46562E+03 -7.52744E+03  8.94115E+03 -7.43602E+03  4.41646E+02
 -8.46505E+03 -5.16534E+03 -3.71939E+03 -4.37156E+03  4.87928E+03 -6.51682E+03  2.48474E+03 -4.37732E+03
  1.58063E+03 -1.13813E+03  4.29794E+01  3.79806E+02  3.28489E+03 -6.39117E+03  3.30555E+03 -1.78813E+03
  1.59891E+03 -1.39370E+03  8.40682E+03  1.57348E+02  5.09143E+03  3.86718E+03  8.68052E+03  8.77887E+03
 -3.48083E+03  1.02692E+04 -4.30561E+03  8.66349E+03 -1.05265E+04  4.64599E+03 -1.19076E+04 -4.56471E+03
 -5.82984E+03 -5.71895E+03  7.59979E+02 -6.62349E+03 -2.69173E+02 -4.07610E+03  9.01333E+03 -5.19616E+03
  1.15812E+03  1.53975E+01  4.40822E+03 -1.95445E+03 -1.40764E+02 -1.59761E+03  5.05440E+03 -1.75545E+02
  4.18942E+03  1.19677E+03 -1.70713E+03  2.46773E+03 -1.22648E+03  5.20049E+03 -9.84526E+03  3.59771E+03
 -7.95252E+03 -1.27112E+03  2.17680E+02 -2.29819E+03  4.51713E-01 -5.51800E+03  4.64542E+03 -5.96218E+03
  6.50089E+03  1.62043E+03  1.06703E+04 -1.85848E+03  3.20660E+03  1.00722E+04  3.28131E+03  1.21275E+04
 -2.25224E+03  1.75484E+03 -1.69285E+03  5.86478E+03 -2.11766E+03  2.19677E+03  5.81877E+02  8.61838E+02
 -4.31178E+03 -4.46389E+02  9.03485E+02 -5.35165E+02  1.77531E+03 -1.00555E+03 -8.76997E+03 -2.07794E+03
 -4.69113E+03 -7.58515E+03  3.50886E+02 -5.78646E+03  7.15782E+03 -4.04796E+03  4.90292E+03 -6.93132E+02
  5.59828E+02  4.31019E+03  3.12414E+03  5.50972E+03  2.90267E+03  5.63609E+03 -3.24128E+03  5.55119E+03
 -2.15234E+03  9.43278E+02 -3.54661E+03 -4.78205E+03  3.39683E+02 -4.46384E+03  2.88660E+03 -6.05704E+03
  3.30450E+03  6.87904E+02  2.80124E+03  1.40240E+03  2.06770E+03  1.70794E+03  1.42049E+03  3.06585E+03
  3.29769E+03 -1.48468E+03  1.81755E+03  1.15334E+02 -9.61791E+02  1.88525E+02  1.96605E+03  1.40286E+03
 -1.88510E+03  3.55165E+03 -5.06792E+03  2.66485E+03 -8.47468E+03  3.09135E+03 -9.01072E+03 -1.56154E+03
 -7.14298E+02 -7.70801E+03  1.51277E+03 -2.82953E+03  3.54715E+03 -8.14056E+03  3.16200E+03 -1.54077E+03
  7.33899E+02 -4.06795E+01  3.07592E+02  2.35078E+03 -1.50210E+03  5.81107E+03 -2.96235E+03 -2.84078E+03
 -3.43816E+03  3.44679E+03  2.96978E+03 -3.40854E+03  6.29524E+02  1.12157E+03 -1.38520E+03  2.08858E+03
  1.36191E+03  1.51296E+03  1.11293E+00  1.27656E+03 -1.33648E+03  2.48658E+03 -9.59693E+02  2.02852E+01
 -2.55866E+03  3.64931E+03  2.89015E+03  5.85338E+02 -7.58987E+02  3.60184E+03  5.10362E+02  5.23761E+03
 -5.01432E+03 -7.88510E+02 -1.05665E+04 -9.07438E+02 -9.03917E+02 -3.53149E+03 -1.16734E+03 -4.24016E+03
  5.57333E+03 -4.90712E+03 -2.62731E+03  1.34289E+03  1.72674E+03 -1.10871E+03  8.17750E+02  3.80725E+03
 -1.46693E+02  1.89692E+03 -4.16461E+03 -3.45840E+03 -9.66960E+02 -2.74175E+03 -1.78175E+03 -1.54720E+03
  1.65979E+03 -6.61558E+01  1.35527E+03 -2.01216E+03  3.63518E+03  2.52986E+02 -3.75074E+03 -1.03839E+03
 -6.42543E+02  3.83018E+03 -1.25147E+03 -3.84189E+03  1.98602E+03 -4.41824E+03  1.51566E+03  5.00259E+03
  4.44592E+03  4.72615E+03  2.28373E+03  3.94614E+03 -5.73738E+02  3.74565E+03  5.16742E+02  1.08374E+03
 -5.02937E+03  1.63366E+03 -7.66803E+03 -4.63545E+03  2.03145E+03 -2.41445E+03  3.02708E+03 -5.33425E+02
  5.90812E+03 -2.77394E+03  3.91801E+03 -3.27805E+02 -1.89256E+03 -2.60517E+03 -4.91051E+03 -2.12363E+03
  3.99279E+02  7.32873E+03  2.61373E+02 -8.37939E+02  3.94065E+03  2.12540E+03  1.50285E+03  1.35295E+03
 -1.88882E+03  1.60075E+03 -1.02612E+03 -2.27723E+03  7.50703E+02  3.08032E+03 -3.00315E+03  2.71673E+02
 -2.25111E+03 -3.87166E+03  5.48128E+03  2.50684E+03  4.74103E+03  1.24560E+03  5.15052E+03 -8.61481E+02
  3.91631E+03 -2.72949E+03  2.38599E+03  2.12389E+03 -5.60819E+02  2.63358E+03 -1.48185E+02 -3.14534E+02
 -1.17192E+03  5.44140E+03 -4.72529E+03 -7.74683E+02  3.26009E+03  9.01965E+02 -2.36526E+03  3.61664E+03
 -2.57228E+03 -9.59342E+02 -2.68080E+03 -1.69158E+03  1.40012E+03 -2.73537E+03  2.03574E+02 -1.59456E+03
 -4.12966E+03  9.94593E+02  1.32989E+03  2.16065E+03  4.19278E+03  4.61642E+03 -1.44674E+03  2.13950E+03
 -3.41272E+03  1.11748E+03 -4.25725E+03 -2.27848E+03 -1.03174E+03 -9.91766E+02 -2.68403E+02 -1.77574E+01
  5.18626E+02 -2.89200E+03 -1.39851E+03 -4.33013E+03 -6.80834E+02 -5.04095E+03  6.10779E+02 -1.79806E+03
 -3.51111E+03  1.23877E+03  1.28993E+03 -2.17478E+03  3.49863E+03 -2.77677E+03  2.94965E+03 -5.65172E+03
  8.95589E+02  7.08336E+03  2.19196E+03  1.93333E+03  1.13593E+03 -2.79136E+03  2.45522E+03 -2.44829E+02
 -1.50600E+03  3.23917E+03  1.75182E+03  4.87587E+03 -2.08948E+03 -2.33904E+03  8.10697E+02 -3.18917E+03
  2.78656E+02  1.16280E+03 -3.87645E+03 -6.44079E+03  7.87395E+03  3.74091E+03  4.42116E+02  1.28598E+03
  2.00657E+03  6.47902E+03  3.32413E+03  4.46724E+03 -3.58146E+03  5.95806E+03  6.07906E+02 -2.68058E+03
  4.53948E+02 -3.18672E+03 -2.78713E+03  1.30843E+03 -3.75532E+03  5.40420E+01 -2.71013E+03  6.07725E+02
 -2.39656E+03  2.02396E+03  7.88964E+02 -3.32894E+03 -4.16288E+03 -7.47036E+03  1.89385E+03  3.39663E+03
 -4.12506E+03 -9.55326E+02 -4.08998E+03  9.63082E+02 -1.50884E+03  3.02390E+03 -2.28334E+02 -4.31847E+03
