 $NMID ID='MM_0lb_SNR50_8hz_g50_52.RAW', FMTDAT='(8E13.5)'
 TRAMP=1., VOLUME=1. $END
  3.09715E+05 -8.21189E+03  3.44390E+05  2.43376E+05  8.17991E+04  3.38061E+05 -1.24458E+05  2.47541E+05
 -1.92932E+05  8.55575E+04 -1.09242E+05 -2.82845E+04 -1.65502E+03 -5.05838E+04  5.70399E+04  2.18564E+03
  3.19986E+04  4.58861E+04 -1.19963E+04  6.98338E+04 -5.71818E+04  5.81727E+04 -8.47039E+04  3.67842E+04
 -8.52115E+04 -1.34593E+04 -6.31071E+04 -4.96773E+04 -1.30969E+04 -7.55468E+04  2.68707E+04 -4.35076E+04
  4.26426E+04  1.57037E+03  1.80559E+04  4.14866E+04 -3.93990E+04  4.47553E+04 -6.71993E+04 -4.36666E+02
 -5.35253E+04 -5.61710E+04 -6.16429E+03 -8.02680E+04  3.66653E+04 -5.57728E+04  5.20209E+04 -2.08600E+04
  4.94530E+04  6.35118E+03  3.24338E+04  2.44540E+04  8.83328E+03  2.67256E+04 -1.73761E+03  2.45535E+04
 -2.97832E+04  1.10099E+04 -1.31738E+04 -1.07166E+03  9.67793E+03 -9.44517E+03  1.88089E+04  6.19203E+03
  4.55672E+03  3.64716E+04 -3.61861E+04  3.16924E+04 -6.33189E+04  4.25039E+03 -5.98658E+04 -4.97584E+04
 -1.19759E+04 -6.06323E+04  4.61562E+04 -5.32071E+04  5.87016E+04 -6.43341E+03  3.49924E+04  3.35893E+04
 -2.02221E+03  3.88160E+04 -2.75049E+04  2.15261E+04 -3.85846E+04 -4.70584E+03 -2.10500E+04 -1.60932E+04
 -5.07089E+03 -1.24844E+04  1.84075E+03 -1.84399E+04  9.28273E+03 -2.14481E+04  2.04237E+04 -1.08680E+04
  8.20551E+03  1.81405E+03 -1.72018E+04  1.81899E+04 -2.23266E+04 -4.01189E+03 -7.43376E+03 -3.41105E+04
  2.24562E+04 -4.49251E+04  4.99866E+04 -2.17593E+04  4.95471E+04  2.38245E+04  1.63936E+04  4.60224E+04
 -1.62348E+04  3.24098E+04 -2.61278E+04  4.24098E+03 -1.12222E+04 -3.29035E+04  1.95857E+04 -4.00533E+04
  5.20647E+04 -1.34456E+04  3.71588E+04  2.30670E+04  2.13349E+04  4.83218E+04 -8.70285E+03  5.58667E+04
 -3.78844E+04  4.15596E+04 -4.97916E+04  1.19491E+04 -4.96757E+04 -1.73580E+04 -2.02438E+04 -4.09298E+04
  1.39822E+04 -4.98951E+04  3.33981E+04 -1.13913E+04  3.01444E+04  1.50575E+04  4.14583E+03  2.19434E+04
 -4.76572E+03  1.01323E+04 -1.69157E+04 -1.40244E+04  5.62751E+03 -9.70871E+03  2.52681E+04  1.14878E+03
  1.52901E+04  2.75453E+04 -1.41696E+04  2.53960E+04 -3.05527E+04  1.84639E+04 -2.40881E+04 -3.15712E+03
 -2.84609E+04 -1.93833E+04 -1.41624E+04 -2.79965E+04  3.40537E+03 -2.43783E+04  2.48386E+04 -2.42866E+04
  3.66803E+04 -1.69760E+04  4.35199E+04  7.18481E+03  2.58385E+04  3.06701E+04  5.80477E+03  4.35828E+04
 -1.77387E+04  4.14872E+04 -3.54084E+04  1.17117E+04 -2.61622E+04 -1.31553E+04 -1.02983E+03 -1.92528E+04
  1.90121E+03  5.66727E+03 -5.86218E+03  1.03681E+04 -1.87029E+04 -1.74456E+02 -2.14202E+04  9.65678E+02
 -1.45250E+04 -2.55052E+04  5.50577E+03 -3.14998E+04  2.45980E+04 -2.23964E+04  2.51834E+04  3.99992E+03
  1.37892E+04  1.44859E+04 -6.72513E+03  2.28115E+04 -1.41462E+04  4.92941E+03 -2.45780E+04  1.00025E+02
 -1.62219E+04 -2.13501E+04 -6.53290E+03 -3.33900E+04  1.50883E+04 -2.54255E+04  2.08566E+04 -1.17888E+04
  1.99840E+04 -1.16275E+03  1.20016E+04  3.63753E+02  1.08293E+04  2.58265E+02  1.48940E+04 -6.69621E+03
  2.16502E+04  4.18062E+03  2.30243E+04  1.73412E+04  2.12370E+04  3.60970E+04 -7.28542E+03  4.48359E+04
 -3.34158E+04  3.83443E+04 -4.04217E+04  2.10927E+04 -5.28909E+04 -9.35057E+03 -3.49834E+04 -2.48164E+04
 -1.50756E+04 -3.75938E+04  1.43272E+04 -3.42322E+04  2.41128E+04 -7.24621E+03  2.67811E+04  1.39867E+04
  9.62831E+03  1.87342E+04 -1.22684E+04  2.19365E+04 -2.12092E+04  1.88376E+03 -1.66008E+04 -1.33650E+04
  1.33499E+03 -1.75171E+04  1.20809E+04 -1.52309E+04  1.11240E+04 -1.31617E+03  2.14783E+03  1.06416E+04
 -1.89996E+04  7.24898E+03 -1.36643E+04 -5.79702E+03 -2.36986E+03 -2.06779E+04  1.43055E+04 -2.12559E+04
  3.43858E+04 -1.66161E+04  2.04781E+04 -2.35720E+03  2.36111E+04  1.86704E+04  1.84903E+04  3.42329E+04
 -8.19103E+03  3.59052E+04 -1.89781E+04  2.01139E+04 -2.45021E+04  5.81401E+03 -1.20749E+04 -4.32123E+03
 -4.51320E+03 -5.94819E+03 -5.01666E+03  2.92888E+01  1.05589E+03  1.12758E+03 -9.93730E+03  4.28978E+03
 -2.24898E+04  3.14597E+02 -1.88467E+04 -9.34518E+03 -9.04723E+03 -2.22507E+04  7.07764E+03 -1.69686E+04
  2.12487E+04 -6.92359E+03  6.78481E+02 -9.63510E+02 -5.17183E+03  6.89430E+03 -5.35258E+03  1.97254E+03
 -7.76417E+03 -1.87384E+04  7.02386E+02 -2.31945E+04  8.89350E+03 -1.92819E+04  2.00371E+04 -9.09422E+03
  2.68241E+04 -3.26248E+01  1.17343E+04  1.04800E+04  8.61484E+03  2.56455E+04 -1.05150E+04  1.04283E+04
 -1.39589E+04  6.29919E+03 -3.70999E+03 -4.77510E+03  1.26244E+03 -1.12345E+03  1.23815E+04 -8.33903E+03
  9.31738E+03  5.52952E+03  3.08180E+03  2.19334E+04 -1.02480E+04  1.25525E+04 -1.82122E+04 -6.13682E+03
 -7.90855E+03 -1.21398E+04 -2.17817E+03 -9.75251E+03  4.50421E+03 -6.60897E+03  9.02184E+03  1.36511E+04
 -2.32400E+03  1.16821E+04 -9.59747E+03  1.00970E+04 -1.70792E+04  1.56401E+04 -1.47459E+04 -1.54304E+02
 -1.35154E+04 -1.43527E+04  4.30573E+03 -2.08035E+04  1.71244E+04 -1.51616E+04  2.05427E+04  4.65206E+03
  1.21163E+04  2.04822E+04  1.73408E+03  1.43603E+04 -1.44560E+04  4.80885E+03 -1.56545E+04 -5.10223E+03
 -1.04145E+04 -7.97086E+03 -4.74902E+03 -1.67334E+04  1.35944E+04 -1.24876E+04  9.33189E+03 -2.39540E+03
  9.71814E+03  6.15148E+03 -3.85127E+03  3.84474E+03 -5.71962E+02 -5.36277E+03  5.59527E+03 -7.24695E+03
  1.40287E+04 -7.07372E+03  1.63315E+04  6.04078E+03  1.85762E+04  8.85653E+03  6.64342E+03  2.25598E+04
 -8.58755E+03  3.32989E+04 -2.37886E+04  1.81855E+04 -3.21817E+04 -2.84373E+03 -2.53183E+04 -6.41069E+03
 -9.32235E+03 -1.84229E+04 -2.69017E+01 -1.68829E+04  3.58702E+03 -1.18558E+04  6.28832E+03 -1.07122E+04
  1.00599E+04 -6.62309E+02  6.03049E+03  3.48536E+01  3.18853E+03 -4.97413E+03  8.83330E+03 -3.93810E+03
  1.68547E+04  7.62637E+03  7.97412E+03  1.01732E+04  2.48593E+03  1.37893E+04 -1.80249E+04  1.10810E+04
 -1.68601E+04  1.01253E+03 -1.47957E+04 -1.95739E+04  4.84311E+03 -1.71018E+04  5.97166E+03 -1.95084E+04
  9.24796E+03 -1.42364E+04  2.34689E+04  2.28317E+03  1.19315E+04  2.12704E+04  3.93558E+03  1.59279E+04
 -8.76276E+03  1.85841E+04 -7.90835E+03  6.43538E+02 -4.57719E+03  6.73443E+02 -4.64796E+03 -5.83854E+03
 -7.34998E+02  5.11126E+03 -2.17378E+03  4.87937E+02 -5.65875E+03  2.83345E+03 -1.04786E+04 -2.23905E+03
 -1.04471E+04 -7.94819E+03  9.71931E+01 -1.42993E+04  1.23196E+04 -1.72490E+04  2.51448E+04 -4.39973E+03
  1.58943E+04  1.42069E+03  9.06775E+03  1.77507E+04 -2.54853E+03  1.58948E+04 -9.96143E+03  1.36711E+04
 -1.24970E+04  2.84922E+03 -1.04308E+04 -9.99763E+03 -5.20317E+03 -2.33911E+04  8.25756E+03 -1.38736E+04
  1.22677E+04 -4.37957E+03  9.57618E+03 -2.29070E+03  2.26379E+03  8.32223E+03  2.09840E+02 -3.44208E+03
  4.16740E+03  3.85383E+03  6.63856E+03  4.14147E+03  5.73709E+03  7.46027E+03  1.86529E+03  1.46208E+04
 -1.64294E+02  1.36216E+04 -1.18703E+04  1.13989E+04 -4.47775E+03 -3.46086E+02 -1.58466E+04 -8.37003E+03
 -1.14606E+04 -1.91305E+04  6.23362E+03 -1.90331E+04  9.16381E+03 -1.66369E+04  1.36018E+04 -8.03159E+03
  1.36942E+04  2.85731E+03 -1.62851E+03  8.44525E+03 -3.52939E+03  6.08345E+03 -8.72411E+03  6.22894E+01
 -6.40293E+03 -1.67303E+04  5.73854E+03 -9.86622E+03 -6.15357E+02 -6.13505E+03 -1.46508E+03 -5.63634E+03
  5.82949E+03  7.54237E+03  2.12835E+03  8.09810E+03  2.08834E+03  5.54237E+03  7.35519E+03  1.56411E+02
  1.08358E+03  3.76564E+03  4.10922E+03  8.45703E+03  6.38614E+03  1.30209E+04  4.36562E+03  6.54375E+03
 -7.21311E+03  1.16516E+04 -1.60876E+04  5.33499E+03 -1.39216E+04 -2.22347E+03 -7.36447E+02 -2.02323E+03
  7.76074E+02 -4.69299E+03  2.58280E+03 -8.24956E+03  5.28972E+03  6.14063E+03 -4.69278E+03  4.27487E+03
 -1.02916E+04 -2.64465E+01 -6.57385E+03  3.33338E+03 -6.08151E+03 -8.22000E+03  6.33472E+03 -5.47701E+03
  9.30203E+03 -1.16553E+04 -2.46683E+03  5.82452E+03  1.27619E+02  1.28637E+04  2.13185E+03  2.54976E+03
  5.10402E+03  5.01371E+03 -4.97848E+03  2.82906E+03 -6.98968E+02 -1.18260E+04  1.07996E+04 -9.18600E+03
  1.51327E+04  8.40720E+02  3.47480E+03  3.68987E+03  7.16568E+03  1.46972E+04 -6.83024E+03  1.63389E+04
 -1.61705E+04  1.35244E+04 -7.86922E+03 -6.11911E+02 -2.26431E+03 -1.22094E+04  4.96615E+03 -8.88107E+03
  3.87063E+03 -4.54003E+03  4.32793E+03  3.78814E+02  4.89883E+03  1.70527E+03  9.86618E+02  7.39457E+03
  1.49718E+03  1.02578E+04 -1.77454E+03  9.38142E+02 -4.33866E+03 -5.62141E+03 -4.11981E+03  6.82555E+03
 -1.19542E+04 -4.79363E+02 -7.12955E+03  8.50775E+03 -1.31833E+04 -7.23569E+02 -1.37701E+04  1.35630E+02
 -5.57555E+03 -1.40910E+04  3.65392E+03 -1.94496E+04  1.57561E+04 -1.61110E+04  1.69295E+04 -1.27182E+04
  2.01039E+04  2.43258E+03  8.27696E+03  1.21531E+04  1.49597E+03  1.62911E+04 -9.44382E+02  7.57615E+03
 -5.22779E+03  5.19760E+03 -3.39491E+03 -6.66857E+03 -5.40638E+03 -3.90710E+02 -7.47353E+03 -1.61149E+03
 -2.25378E+03  5.40233E+03 -4.43942E+03 -7.23017E+01 -5.03266E+02 -7.20920E+03  1.52998E+02 -8.22922E+03
  6.85738E+03 -2.70762E+03  1.10214E+04 -2.28272E+03  4.70673E+03  2.74671E+03  1.71779E+03  1.34504E+04
 -3.36311E+03  9.07171E+03 -1.00950E+04  8.46481E+03 -6.69369E+03 -7.74349E+02 -1.62060E+04 -1.23170E+04
 -2.62355E+03 -1.39836E+04  5.31148E+03 -1.17387E+04  8.87616E+03 -5.12017E+03  1.09001E+04 -4.05689E+03
 -2.85467E+02  6.22211E+03 -3.34930E+03  2.37871E+03 -5.19583E+03  3.65043E+03 -9.09746E+02 -3.88433E+03
  4.75392E+03 -6.95231E+03  2.14272E+03 -6.12986E+03  4.76637E+03  2.30185E+03  1.48168E+01  2.10078E+03
 -1.90514E+03  1.18793E+04 -5.93881E+03 -4.28992E+03 -1.31929E+04 -2.08926E+03  5.00499E+03 -9.90937E+03
  3.59270E+03 -5.35420E+03  1.66706E+04 -7.79361E+03  8.28143E+03  8.73248E+03  7.27929E+03  3.48253E+03
  5.90178E+03  1.27970E+04 -2.94287E+03  1.46407E+04 -2.99865E+03  3.22122E+03 -6.14583E+03 -4.50134E+02
 -2.22464E+03 -1.20659E+03 -7.66254E+03  3.58068E+03 -7.78264E+03  4.73186E+03 -6.85323E+03  5.53937E+03
 -2.01813E+03 -1.02798E+04  1.57996E+03 -8.75706E+03 -7.44909E+02 -7.42066E+03  1.32916E+04  1.10642E+03
  3.20172E+03  3.10443E+03  4.49301E+03  8.75968E+03  2.18401E+03  4.95711E+03 -1.19186E+04  5.31295E+03
