 $NMID ID='MM_0lb_SNR50_15hz_g40_2.RAW', FMTDAT='(8E13.5)'
 TRAMP=1., VOLUME=1. $END
  3.07557E+05 -2.37520E+03  3.35897E+05  2.47965E+05  8.29538E+04  3.37941E+05 -1.33411E+05  2.47250E+05
 -1.86178E+05  8.02301E+04 -1.09865E+05 -3.76197E+04  1.56401E+03 -4.92406E+04  5.76875E+04 -1.38755E+03
  2.71588E+04  5.39260E+04 -1.77218E+04  7.41909E+04 -6.06101E+04  6.23558E+04 -8.30570E+04  2.66907E+04
 -8.45373E+04 -1.11723E+04 -5.80950E+04 -5.07187E+04 -1.44996E+04 -7.10625E+04  2.11406E+04 -4.85795E+04
  4.03082E+04  2.16938E+03  1.63905E+04  4.92117E+04 -3.38217E+04  4.39162E+04 -6.54842E+04  9.87396E+02
 -5.65546E+04 -5.61456E+04 -6.11350E+03 -7.28090E+04  3.51220E+04 -5.35037E+04  5.07128E+04 -1.95738E+04
  4.13760E+04  7.53063E+03  2.97307E+04  2.60151E+04  1.55277E+04  3.14523E+04 -8.06616E+03  2.24151E+04
 -2.20987E+04  1.30178E+04 -1.74952E+04 -4.85383E+03  4.46866E+03 -3.93075E+03  2.59121E+04  1.02032E+04
  7.94528E+03  2.86721E+04 -3.44979E+04  3.54522E+04 -6.21854E+04  1.54310E+03 -5.67674E+04 -4.28556E+04
 -1.64748E+04 -6.89010E+04  3.71153E+04 -4.09235E+04  5.47993E+04 -5.89282E+02  3.64473E+04  3.05448E+04
 -2.98842E+03  3.25344E+04 -2.87313E+04  1.16280E+04 -2.73507E+04 -1.93700E+02 -1.23124E+04 -9.11659E+03
 -9.17398E+03 -9.20168E+03 -2.96404E+03 -1.36350E+04  5.64554E+03 -2.39813E+04  1.41543E+04 -1.33084E+04
  1.06397E+04  7.42881E+03 -9.87272E+03  1.54330E+04 -2.20727E+04 -9.64727E+02 -9.33328E+03 -3.08028E+04
  2.17243E+04 -4.05931E+04  4.75904E+04 -1.97898E+04  4.20290E+04  1.51792E+04  1.51058E+04  4.27091E+04
 -1.77129E+04  3.05983E+04 -2.42518E+04  1.16470E+03 -7.15917E+03 -2.85429E+04  1.74367E+04 -3.70301E+04
  3.96346E+04 -4.49661E+03  2.70502E+04  2.55140E+04  1.75654E+04  4.39931E+04 -6.60646E+03  4.45699E+04
 -2.77386E+04  2.69286E+04 -3.74926E+04  6.96615E+03 -4.06756E+04 -1.57175E+04 -2.47968E+04 -3.29730E+04
  1.86656E+03 -3.27640E+04  3.24784E+04 -1.03673E+04  3.14099E+04  1.24064E+04 -5.70605E+02  1.87925E+04
 -1.40688E+04  7.96768E+03 -5.66716E+03 -7.75895E+03 -6.21330E+02 -9.93241E+03  1.60570E+04  3.71853E+03
  1.08707E+04  2.01022E+04 -2.57966E+03  2.48528E+04 -2.40586E+04  1.13766E+04 -2.34536E+04 -4.44234E+03
 -1.97333E+04 -1.78297E+04 -9.46038E+03 -2.08853E+04  5.29086E+03 -1.66875E+04  1.41269E+04 -1.50053E+04
  2.18640E+04 -1.14791E+04  3.44574E+04 -1.35795E+03  2.70604E+04  1.44510E+04  2.09551E+03  3.27489E+04
 -1.45799E+04  2.98179E+04 -2.84011E+04  4.91834E+03 -1.70831E+04 -1.23231E+04 -4.33534E+03 -1.40122E+04
  5.04168E+03 -7.76187E+03 -1.01349E+03  5.22625E+03 -1.01283E+04  3.85697E+03 -1.52071E+04 -6.58541E+03
 -8.10503E+03 -1.37454E+04  3.27442E+03 -2.11441E+04  1.30631E+04 -1.53985E+04  1.80124E+04 -1.00415E+03
  9.88777E+03  1.39761E+04 -6.87972E+03  1.66662E+04 -1.39310E+04  1.33512E+04 -1.63073E+04 -4.58035E+03
 -9.85994E+03 -1.86114E+04 -1.74082E+03 -2.03282E+04  7.81271E+03 -1.22828E+04  1.85377E+04 -8.42344E+03
  1.73238E+04 -4.69655E+02  8.79163E+03  1.87612E+03  3.31118E+03 -3.59415E+03  6.36737E+03 -2.93740E+03
  1.64480E+04 -4.83440E+01  2.21490E+04  1.23229E+04  1.05912E+04  3.06732E+04 -7.48681E+03  2.62182E+04
 -1.30929E+04  2.54267E+04 -2.82140E+04  8.80845E+03 -2.69988E+04 -4.21849E+03 -2.79246E+04 -1.62537E+04
 -9.90504E+03 -2.57605E+04  3.85856E+03 -1.82744E+04  1.53646E+04 -1.19491E+04  1.31817E+04  1.43532E+03
  7.00030E+03  1.64448E+04 -7.68792E+03  1.05600E+04 -1.47944E+04  4.45099E+03 -1.54012E+04 -1.03237E+04
 -4.22422E+01 -1.32266E+04  1.07529E+04 -9.41300E+03  4.19164E+03  3.19778E+03 -7.55767E+02  7.49052E+03
 -8.44877E+03 -6.88903E+02 -4.25179E+03 -7.91756E+03 -2.42479E+03 -1.20382E+04  4.04226E+03 -1.52540E+04
  1.51925E+04 -2.70422E+03  1.80614E+04  1.98292E+03  1.58760E+04  8.28136E+03  3.44844E+03  1.46420E+04
 -1.23108E+03  2.11376E+04 -1.15893E+04  1.45035E+04 -9.69417E+03  8.79548E+03 -9.91114E+03 -3.89087E+03
 -4.26046E+03 -4.56791E+03  2.75809E+03  3.37009E+03  4.81814E+03  1.43675E+03  2.66655E+02  5.30177E+03
 -4.78158E+03  1.18556E+03 -1.26075E+04 -5.89174E+03 -5.46730E+03 -1.45193E+04  4.67892E+03 -1.04504E+04
  9.08823E+03 -6.72835E+03  1.29372E+04  7.49992E+03  2.04785E+02  4.37389E+03 -3.13938E+03  1.49210E+03
 -3.91413E+03 -7.00048E+03  1.30979E+02 -1.18691E+04  4.01444E+03 -8.20425E+03  1.22431E+04 -1.07528E+04
  1.37774E+04  5.79277E+03  1.05181E+04  5.58186E+03  3.10971E+03  1.42665E+04 -1.19972E+04  7.41837E+03
 -7.41096E+03  5.98294E+03 -3.46310E+03 -5.28485E+03  5.77873E+03 -3.82101E+03  2.46881E+03 -4.06809E+02
  3.89002E+03  3.11072E+03 -1.33501E+03  6.85936E+03 -4.09486E+03  6.45073E+03 -7.29798E+03  5.51902E+03
 -3.97015E+03 -5.51762E+03 -5.51478E+02 -7.08816E+03  5.49402E+03  2.98599E+02  4.37316E+03  3.74567E+03
  3.24739E+03  7.86520E+03 -5.18689E+03  3.92555E+03 -2.65532E+03  4.02799E+03 -5.88647E+03 -4.23663E+03
 -2.15820E+03 -7.93492E+03 -1.84010E+03 -1.11483E+04  1.07578E+04 -5.72307E+03  9.08243E+03  3.89559E+03
  1.01951E+03  1.05187E+04  2.63046E+03  5.69619E+03 -6.49088E+03  3.12632E+03 -7.95358E+03  1.22881E+03
 -1.10665E+04 -7.64470E+03  1.40407E+03 -6.70947E+03  3.01156E+03 -4.06309E+03  4.59598E+03 -5.65282E+03
  1.44132E+03  1.45759E+03 -5.63624E+02  5.42173E+03 -2.20068E+03  1.69169E+03  1.14463E+03 -5.31417E+03
  6.47756E+03 -3.65701E+02  4.97766E+03  8.27446E+02  7.79653E+03  8.03467E+03  7.74216E+03  1.22587E+04
 -4.00522E+03  1.34977E+04 -1.02496E+04  9.21288E+03 -1.39218E+04  3.06175E+03 -1.57253E+04 -3.04945E+03
 -6.64472E+03 -1.22228E+04  8.34022E+01 -7.93966E+03  3.22466E+03 -4.56016E+03  9.41111E+02 -1.77980E+03
  3.08327E+03 -2.86377E+03  3.85363E+02  3.81138E+03  9.17084E+03 -6.20393E+03  3.80220E+03 -2.20926E+02
  5.70059E+03  7.23861E+03 -2.77222E+03  6.32776E+03  1.18750E+03  5.57536E+03 -6.49136E+03  2.70090E+03
 -3.68371E+03 -3.21563E+03 -2.98794E+03 -8.81341E+03 -5.42629E+02 -7.74090E+03  3.16473E+03 -1.29029E+04
  5.72806E+03 -7.26545E+03  8.49550E+03  2.07736E+03  5.25559E+03  6.27575E+03 -6.05802E+01  6.47833E+03
 -3.04157E+03  2.99788E+03 -3.42995E+03  3.42817E+03 -2.09510E+03  2.01175E+03 -4.07015E+03  9.17470E+02
 -2.21003E+03 -1.29734E+03 -1.40029E+03  1.33910E+03 -3.40224E+03  1.88330E+03 -6.42628E+03 -2.10222E+03
 -2.84776E+03 -5.09696E+03  3.85087E+03 -1.38937E+04  3.18040E+03 -4.27517E+03  3.14936E+03 -1.97047E+02
  6.27116E+03  7.84884E+03  4.80507E+03  6.91978E+03 -2.80790E+03  4.77853E+03 -5.17340E+03  1.64259E+03
 -5.04483E+03  5.31217E+02 -1.13309E+04 -2.09673E+03 -1.01282E+03 -3.71184E+03  5.36210E+03 -3.40234E+03
  6.27250E+03  5.54724E+02  3.15184E+03  8.49683E+02  2.44355E+03  5.05257E+03  1.20303E+03  1.11346E+03
  3.68614E+03  6.22015E+03  1.57970E+03  2.30621E+03  2.28042E+03 -2.11035E+02  2.76615E+02  6.71862E+03
 -5.17548E+03  3.23258E+03 -1.10934E+02  5.18779E+03 -5.46371E+03 -2.32330E+02 -5.14117E+03 -3.95961E+03
 -3.25699E+03 -7.06334E+03  7.82039E+03 -5.33800E+03  2.71338E+03 -7.37941E+03  8.88583E+03 -4.63847E+03
  1.74592E+03  5.87694E+03  3.47820E+03  3.33687E+03  1.69841E+03  4.30902E+03  2.56095E+03 -1.19497E+02
  2.67399E+03 -5.59605E+03 -1.28805E+03 -6.80230E+03  1.98543E+03  1.96416E+03  7.99644E+03 -5.12167E+03
  6.06176E+03  1.69924E+03  3.36679E+03  1.19376E+03 -1.61886E+03 -7.91023E+02 -4.64956E+02 -3.35849E+03
 -1.81578E+02  7.31491E+02  1.11297E+03 -1.10559E+03  1.48971E+03  8.79515E+03  5.99524E+02  4.30685E+03
 -2.36380E+03  4.63210E+03 -1.30433E+03  3.59907E+03 -3.26843E+03 -4.37373E+03 -3.34193E+03 -2.10626E+03
 -4.24412E+01  1.71391E+03 -2.26380E+03 -2.38393E+03  9.76624E+02  2.83456E+03 -3.23696E+03  4.00275E+03
  3.78139E+02  1.25040E+03  1.79836E+03 -3.01292E+03  1.17744E+02 -6.47702E+03  4.56402E+03 -4.69772E+03
  3.39534E+03 -1.93973E+03  3.19270E+03 -1.52465E+03  2.53014E+03 -5.42344E+01  4.93290E+03  1.82110E+03
  2.04863E+03 -2.00358E+03  3.89141E+02 -5.23494E+02 -3.08286E+03 -6.31919E+03  5.03020E+03 -2.65203E+03
  8.02006E+03  4.95642E+02  1.03251E+03  4.51090E+02 -1.37404E+03  7.37420E+03  5.83193E+02  5.26804E+03
 -4.94037E+03  3.47680E+02 -2.34852E+03  7.64451E+02  4.16583E+02 -4.90219E+02  3.17380E+03 -1.29833E+03
 -2.45344E+03 -6.32143E+02  1.21398E+03  1.01551E+03 -3.01546E+03  2.38338E+02 -1.02039E+03  7.49881E+03
  6.23782E+02  2.24971E+03 -1.05910E+02 -4.12856E+03  7.86670E+02 -1.08502E+03  3.27119E+03  8.88412E+02
  3.17906E+03 -1.99962E+03 -1.49133E+03  1.97735E+03 -3.62368E+03  1.29027E+03 -3.66683E+03 -4.44762E+03
 -2.92663E+03 -6.22911E+03 -5.07687E+02 -4.22581E+02  7.49104E+03 -8.13839E+02  3.83187E+03  1.56029E+03
  6.71923E+03 -2.27802E+03  7.70633E+03  3.55757E+03 -1.18618E+03  3.07757E+03  1.23636E+03  5.25436E+03
  1.59011E+03  1.27860E+03 -3.65416E+03  1.06575E+03  4.83148E+02  3.15341E+03  2.10030E+01  1.82502E+03
 -5.63591E+02 -2.50621E+03 -3.60711E+02  3.23119E+03 -1.19000E+02 -2.83332E+03 -2.86242E+03 -3.31468E+03
  3.06867E+03  8.04028E+02 -3.91925E+03  1.95621E+03  2.28090E+03  1.99788E+03 -9.40137E+02  3.20045E+03
  1.44437E+03  2.33250E+03 -1.41398E+03  5.41352E+03 -5.26627E+03 -1.29967E+02 -3.53681E+03 -3.94427E+03
 -1.13336E+03  6.71329E+02  2.28522E+03 -2.28948E+03  5.99233E+03  1.00141E+03  7.13947E+02  1.44344E+02
  3.76411E+02  2.15054E+03  5.55720E+02  9.88418E+02  3.56199E+03  5.59264E+03  3.15365E+03 -8.14665E+02
 -1.34935E+03  2.24040E+02  9.17302E+02  4.16638E+03  6.27092E+03  4.85052E+03  1.13072E+03  3.56403E+03
 -7.33657E+02 -7.03525E+02 -3.07817E+03 -4.73516E+03  4.28423E+02 -2.77224E+03 -3.24716E+02 -2.07158E+03
  3.46343E+02  9.33829E+01  9.45761E+02  6.48988E+03  1.13178E+03 -8.38474E+02  1.44504E+03  1.22253E+03
 -2.87440E+03 -1.17974E+03 -9.57546E+02  2.19092E+03  6.10168E+01 -1.83733E+03 -1.24766E+03 -2.87457E+03
  9.72030E+02 -1.17037E+03 -5.17924E+03  1.20816E+02  5.06432E+02 -2.81369E+03 -3.65995E+03 -1.37635E+03
 -3.91054E+03 -2.43419E+03  1.64036E+03 -4.70301E+03  5.52461E+03 -2.25478E+03  1.56229E+03 -5.74630E+02
  3.13249E+03  4.36778E+03  1.82331E+03 -1.39342E+03  2.61466E+03  1.54230E+03  2.30060E+03  4.39712E+03
