 $NMID ID='MM_0lb_SNR50_18hz_g40_82.RAW', FMTDAT='(8E13.5)'
 TRAMP=1., VOLUME=1. $END
  3.11840E+05 -7.90532E+02  3.34854E+05  2.51434E+05  8.36392E+04  3.38332E+05 -1.30032E+05  2.48759E+05
 -1.87170E+05  7.88558E+04 -1.13352E+05 -3.43012E+04 -1.94715E+03 -4.94689E+04  5.33092E+04  4.15280E+03
  3.17119E+04  5.27985E+04 -1.69655E+04  7.66966E+04 -6.01858E+04  6.15095E+04 -8.38833E+04  2.90317E+04
 -7.95566E+04 -8.66370E+03 -5.80901E+04 -4.92029E+04 -1.55230E+04 -6.76769E+04  2.65112E+04 -4.31010E+04
  3.83508E+04  1.81228E+03  1.46824E+04  4.86411E+04 -3.66895E+04  4.80553E+04 -6.76004E+04 -2.45911E+03
 -5.12052E+04 -5.87158E+04 -8.89819E+03 -7.61435E+04  3.29810E+04 -5.20654E+04  4.49556E+04 -1.76661E+04
  4.19581E+04  1.20223E+04  2.75727E+04  2.85169E+04  1.65004E+04  2.78257E+04 -3.49076E+03  3.07112E+04
 -2.12057E+04  1.16580E+04 -2.35291E+04 -4.20355E+03  1.97605E+03 -7.60990E+03  2.16506E+04  1.62405E+04
  2.54084E+03  3.25392E+04 -3.05408E+04  3.41895E+04 -6.40279E+04  3.22872E+03 -5.19599E+04 -4.23218E+04
 -1.40254E+04 -6.00658E+04  3.84927E+04 -4.54071E+04  5.70573E+04  1.49545E+03  3.00484E+04  3.23792E+04
 -6.89908E+03  2.85510E+04 -2.49448E+04  1.37863E+04 -2.70875E+04 -5.34785E+03 -2.01491E+04 -9.83263E+03
 -5.45346E+03 -1.47025E+04 -3.26824E+03 -1.99161E+04  5.61507E+03 -2.14488E+04  1.33616E+04 -9.29021E+03
  1.02263E+04  4.77379E+03 -4.12168E+03  1.35491E+04 -1.62375E+04  1.99941E+02 -8.52635E+03 -2.82337E+04
  2.04175E+04 -4.09278E+04  4.72488E+04 -2.17873E+04  4.26986E+04  1.90313E+04  1.02801E+04  4.15386E+04
 -1.10452E+04  3.18843E+04 -2.20139E+04 -3.47532E+03 -7.76335E+03 -2.84914E+04  2.28288E+04 -3.09941E+04
  3.98398E+04 -9.99673E+03  2.90945E+04  2.41434E+04  1.50991E+04  4.08579E+04 -1.07963E+04  4.45521E+04
 -2.58662E+04  2.87853E+04 -4.18579E+04  8.02838E+03 -4.13002E+04 -1.72170E+04 -2.08454E+04 -3.06687E+04
  5.66660E+03 -3.27565E+04  2.99712E+04 -1.06019E+04  2.94171E+04  7.22791E+03  1.57053E+03  1.74875E+04
 -1.31960E+04  1.19525E+04 -9.61628E+03 -7.35489E+03  5.61017E+03 -1.02645E+04  1.80795E+04  6.50732E+03
  7.60132E+03  1.94733E+04 -3.80079E+03  2.19594E+04 -1.96117E+04  5.62024E+03 -2.64697E+04 -6.36130E+03
 -1.30930E+04 -1.55794E+04 -5.31976E+03 -1.94718E+04  4.68973E+03 -1.04787E+04  8.94235E+03 -9.96611E+03
  2.18490E+04 -1.21355E+04  2.93532E+04  1.92852E+03  2.40331E+04  1.56125E+04  6.51654E+03  3.71239E+04
 -1.85280E+04  2.69842E+04 -2.84160E+04  9.40742E+03 -1.79139E+04 -1.33354E+04 -6.14796E+03 -1.39347E+04
  9.74304E+02 -1.70992E+03 -5.27084E+03  4.55762E+03 -1.00231E+04  4.66124E+03 -8.91799E+03 -6.01785E+03
 -6.18267E+03 -1.60682E+04  7.02296E+03 -1.91003E+04  9.79116E+03 -1.79691E+04  1.60455E+04 -2.99108E+03
  6.20839E+03  1.36055E+04  3.47622E+02  1.38299E+04 -8.92963E+03  1.13534E+04 -1.45011E+04 -3.21479E+03
 -1.58046E+04 -1.71143E+04 -6.41197E+02 -1.99068E+04  9.51100E+03 -1.29186E+04  1.37931E+04 -8.15826E+03
  1.70317E+04  3.60373E+03  8.20797E+03  7.35411E+03  5.94406E+03  2.16957E+03  8.79770E+03  4.78555E+02
  1.85372E+04  4.50879E+03  1.37958E+04  1.38310E+04  8.64032E+03  2.11130E+04 -3.66776E+03  2.41912E+04
 -1.66159E+04  1.88090E+04 -2.73706E+04  5.90447E+03 -2.79796E+04 -6.73375E+02 -2.13874E+04 -1.55540E+04
 -1.18529E+04 -1.78594E+04  9.30182E+03 -1.84928E+04  1.47760E+04 -9.26638E+03  1.38135E+04  3.85360E+02
  1.05508E+04  8.28799E+03 -9.52660E+03  1.05703E+04 -1.44677E+04 -1.81766E+03 -1.01020E+04 -6.46938E+03
 -4.29520E+02 -8.31596E+03  2.72667E+03 -1.17566E+04  7.14949E+03  2.51281E+03  3.05800E+03  4.26095E+03
 -6.27888E+03  4.43317E+02 -4.80993E+03 -2.68827E+03 -1.86150E+03 -3.99206E+03  6.89537E+03 -7.99068E+03
  1.17541E+04 -2.16540E+03  1.16162E+04  5.19346E+03  9.73894E+03  7.12072E+03  2.83745E+03  1.32392E+04
 -4.10329E+03  2.19963E+04 -8.47542E+03  8.63923E+03 -1.15719E+04 -4.13747E+02 -7.87397E+03  3.89133E+02
 -6.94333E+03 -4.50497E+03 -2.30440E+03  3.75900E+03 -3.40188E+03 -2.77461E+02 -6.14405E+03  1.29730E+03
 -7.79511E+03  3.42379E+03 -8.43945E+03 -1.07230E+04 -7.03243E+03 -9.16619E+03  5.80350E+03 -9.76409E+03
  8.32959E+03 -1.29823E+03  2.24260E+03  1.62330E+03  2.26491E+03  4.44430E+03 -2.10596E+03 -1.47800E+03
 -3.99334E+03 -5.38631E+03  3.81698E+03 -7.58681E+03  5.60881E+03 -7.41491E+03  1.01331E+04 -2.70298E+03
  9.24564E+03  1.76751E+03  9.32837E+03  6.20335E+03  1.81307E+03  7.12274E+03 -3.09805E+03  9.11752E+03
 -6.05845E+03  3.57050E+03 -5.56467E+03 -5.52579E+03  1.23203E+03 -3.88742E+02  6.35884E+03  6.05101E+03
  3.66547E+03  7.19513E+03 -7.41947E+02  6.48315E+03 -1.53311E+03  8.75587E+03 -8.46372E+03  4.34191E+03
 -6.97250E+03 -6.52264E+03  2.93155E+03 -3.57205E+03  6.73677E+03 -2.15499E+03  5.95038E+03  2.04524E+03
  7.91981E+02  3.42555E+03 -5.64164E+03  2.67505E+03 -6.56007E+03  3.62693E+03 -6.47531E+03  4.14737E+02
 -4.59401E+03 -7.13119E+03 -2.98333E+02 -7.15186E+03  8.02364E+03 -7.12287E+03  7.46395E+03 -1.25611E+03
  3.91451E+03  6.89655E+03  2.09925E+03  5.80062E+03 -7.06846E+03  1.89373E+03 -2.62260E+03 -2.23456E+03
 -3.06829E+03 -3.58569E+03 -4.71093E+02 -5.82270E+03  8.67199E+02 -7.34807E+02 -5.38489E+02 -2.10101E+03
 -3.07548E+02  1.60936E+03  2.34737E+03  6.42100E+02 -1.72396E+02  2.08028E+03 -2.97245E+03 -1.91366E+03
  1.04440E+03 -5.69331E+02  3.89077E+03  6.15647E+03  6.25249E+03  2.71907E+03  2.18008E+03  1.90088E+03
  4.94505E+02  7.85686E+03 -8.50397E+03  7.36550E+03 -8.25561E+03 -1.88522E+03 -4.75104E+03 -5.56342E+03
 -4.77847E+03 -4.38551E+03 -1.61932E+03 -3.98750E+03  2.58151E+03 -1.59921E+03  1.33271E+03 -1.26814E+03
  3.87624E+02 -2.36067E+03  2.71207E+03 -2.84313E+03  6.54980E+03 -1.56256E+03  3.77050E+03  3.40234E+03
  5.75788E+03  5.97221E+03  4.55325E+03  3.06639E+03 -1.51825E+03  2.58634E+03 -3.57642E+03 -1.52628E+03
 -1.70763E+03  4.20118E+02 -1.81752E+03 -5.03583E+03  2.27326E+03 -3.27548E+03  5.17570E+03 -9.51528E+03
  7.89796E+03 -5.13114E+03  4.68776E+03 -2.66090E+02  5.97115E+03  2.44356E+03  1.34003E+03  1.04294E+04
 -5.83223E+02  5.42849E+03  7.70367E+01  3.74376E+03  1.18267E+02 -8.39934E+02 -5.36804E+03  2.33447E+01
 -2.72659E+03  2.11227E+03 -1.53105E+03 -1.52200E+03 -2.70636E+02  1.61402E+03 -1.05010E+04  1.14719E+02
  2.14808E+03 -6.50555E+03  1.46894E+03 -5.13113E+03  3.25434E+03 -3.69573E+03  1.85567E+03 -1.52206E+03
  9.17054E+02 -7.78125E+02 -1.38161E+03  4.10126E+03 -1.21968E+03  3.80741E+03 -2.48730E+03  4.72328E+03
 -2.56094E+03  2.57327E+03 -6.25498E+03 -2.84759E+03 -3.35584E+03 -1.28557E+03 -5.34418E+02 -8.23501E+03
  4.48838E+03  5.25091E+02  4.47564E+03  1.41711E+03 -7.94811E+02  3.80442E+03  7.15536E+01  5.26178E+02
 -4.19289E+03  2.41962E+02  8.59866E+02  2.13198E+03  2.59581E+03 -2.11014E+03 -7.34426E+02  2.66371E+03
 -1.25420E+03  1.52570E+03 -1.84000E+03  6.48620E+03 -3.69998E+03 -8.19931E+02 -4.10813E+03  2.42040E+03
  4.53969E+02 -1.27380E+03 -1.81501E+03 -2.91209E+03  2.46930E+03 -2.77762E+02  3.96994E+03  3.47766E+03
  2.67971E+03 -3.69233E+03  6.14430E+02  1.40235E+02  4.03714E+03  4.29465E+02  5.38772E+01 -2.17371E+03
  2.20085E+02 -1.37974E+03  2.94883E+03 -2.22425E+03  1.49301E+03 -4.75498E+03 -1.06070E+03  1.37644E+03
  6.93448E+02 -1.15005E+03  2.49471E+03  4.48126E+02  4.59407E+02  4.49458E+03 -4.56176E+02 -4.17053E+02
 -2.06206E+03 -2.56956E+03  2.43797E+03 -1.41426E+03  1.27974E+03  2.55917E+03  6.57498E+02  2.28898E+03
 -8.06363E+02  3.81665E+02  1.30090E+03  2.15649E+03 -4.44409E+03  4.21731E+03 -6.98574E+02 -6.42203E+03
 -1.38937E+03  1.20376E+03  2.39393E+02  1.74659E+03  2.42929E+03 -2.33620E+03  2.14618E+03  2.49799E+03
 -1.68834E+03  2.44313E+03 -3.11530E+03 -9.91228E+02  6.48191E+02 -3.97114E+03 -2.47672E+03 -1.54569E+03
 -8.13024E+02 -2.64901E+03  1.56529E+02  6.22799E+02  3.90723E+03 -4.73485E+03  9.21604E+02  2.87551E+03
  2.02059E+03  3.02456E+03 -1.12790E+03 -2.14831E+03 -2.83006E+03 -1.53915E+03  3.94377E+03 -9.91732E+02
  2.77031E+03  1.11591E+03  8.65823E+02  4.11008E+03  2.33457E+03  5.89818E+03 -4.03329E+03  2.02454E+02
 -1.34713E+03 -2.43682E+03 -4.76215E+03  2.94274E+03  1.14743E+03 -3.91759E+03  3.26017E+03 -8.20934E+02
  1.36887E+03  4.48153E+03 -6.71285E+02  3.86818E+03  9.80918E+02  6.57746E+03 -1.31603E+03 -2.06473E+03
  2.66742E+03  2.19893E+03 -2.99517E+03 -1.89932E+02  9.68866E+02 -1.69389E+02  3.02726E+03  2.39563E+03
 -2.01684E+03  1.23290E+03 -1.80577E+02 -1.17092E+03 -2.57218E+03  3.41219E+02 -2.69714E+03  4.35053E+03
 -3.85094E+03 -1.24173E+03 -1.85425E+03 -2.68919E+02  2.12265E+03 -7.81331E+03  6.14125E+03 -7.61385E+02
 -3.90273E+02 -5.01159E+02  4.27621E+03  3.99017E+02 -1.92222E+03 -4.30682E+03 -9.33889E+02  4.16598E+02
 -5.37860E+02  5.64472E+02  3.52458E+03 -1.34940E+03 -3.19849E+02 -9.74423E+02  2.97848E+02 -4.11747E+03
 -2.64187E+03  2.00693E+03  1.20791E+03  1.14897E+03  2.40200E+03 -7.33493E+02 -8.86202E+02 -9.74790E+01
  1.23408E+03 -2.62244E+03 -4.36314E+03  4.51729E+02 -1.59362E+03  3.23856E+03 -7.30988E+02 -8.57050E+02
 -2.55599E+03  1.54749E+02 -1.72849E+03  6.28175E+02  1.05281E+03 -3.90304E+03 -3.78000E+03  2.94748E+02
 -2.91009E+03 -1.40177E+03 -3.93549E+02 -3.00829E+02  2.20293E+03 -8.01118E+02  3.24852E+02 -1.09997E+03
  3.21353E+03 -1.31227E+03 -4.21297E+03 -3.34146E+03  2.58287E+02 -1.00181E+03 -4.05704E+02 -3.84695E+02
  9.79844E+02 -6.13279E+03  2.49276E+03 -5.78863E+02 -1.37189E+03 -1.92384E+03  3.75555E+02 -1.78978E+03
 -1.91786E+02  9.87320E+02 -2.73429E+03 -3.18306E+02  1.92058E+02 -3.02309E+02 -1.20659E+03 -8.69242E+03
  4.12685E+02 -3.34231E+00 -4.02180E+03 -1.06383E+03 -1.18503E+03  8.00634E+02 -2.55195E+03  1.16680E+03
  2.36344E+02  1.24747E+03  6.18486E+02  2.72162E+03 -4.75785E+03  2.79980E+03 -7.31171E+02 -2.52703E+03
 -1.88481E+03 -3.11047E+02 -2.53074E+02  2.14385E+03  4.02517E+03 -1.81371E+02 -7.47628E+03  4.16312E+03
  1.26938E+03 -8.97496E+01  3.43905E+02 -3.39823E+02  2.16914E+03 -2.91479E+03  2.62256E+03 -3.46350E+03
 -1.77918E+03  7.62533E+02  2.19706E+02  5.72134E+02  3.42620E+03  1.53919E+03 -1.80390E+03 -2.54223E+03
