 $NMID ID='MM_0lb_SNR50_17hz_g60_66.RAW', FMTDAT='(8E13.5)'
 TRAMP=1., VOLUME=1. $END
  3.12308E+05  5.30689E+03  3.37838E+05  2.48285E+05  8.61599E+04  3.38611E+05 -1.30848E+05  2.51254E+05
 -1.92241E+05  8.43843E+04 -1.09066E+05 -3.16719E+04  4.22480E+03 -4.98431E+04  5.17044E+04  1.68343E+03
  3.79057E+04  5.19407E+04 -1.97826E+04  7.56713E+04 -5.97312E+04  6.29044E+04 -8.29281E+04  3.27351E+04
 -8.10154E+04 -1.23993E+04 -6.12075E+04 -5.55969E+04 -1.61786E+04 -7.09848E+04  2.77834E+04 -4.30072E+04
  3.81162E+04  7.34798E+02  1.18061E+04  4.50210E+04 -3.24853E+04  5.28168E+04 -6.66373E+04  7.70814E+02
 -5.43944E+04 -5.77581E+04 -8.14343E+03 -7.81414E+04  3.28218E+04 -5.83320E+04  4.92628E+04 -2.03991E+04
  5.02586E+04  7.86332E+03  3.11136E+04  2.03668E+04  1.20268E+04  2.88403E+04 -2.79211E+02  3.10709E+04
 -1.99921E+04  1.04909E+04 -1.72028E+04 -1.82734E+03  8.00974E+03 -9.68092E+03  2.06017E+04  7.54553E+03
  8.15409E+03  2.65144E+04 -3.44848E+04  3.38033E+04 -6.24089E+04  4.91306E+03 -5.46784E+04 -3.79960E+04
 -1.38525E+04 -6.17248E+04  3.92747E+04 -4.59939E+04  5.73046E+04 -6.65445E+03  3.12614E+04  2.77612E+04
 -3.40958E+03  3.81313E+04 -2.89429E+04  1.93297E+04 -2.77922E+04 -2.96261E+03 -1.88562E+04 -1.21074E+04
 -1.00847E+04 -1.38816E+04  3.53901E+03 -1.78767E+04  1.01699E+04 -2.09766E+04  1.73382E+04 -1.02716E+04
  9.58965E+03  5.63692E+03 -5.27278E+03  1.18687E+04 -1.46868E+04 -1.02467E+04 -3.55145E+03 -3.17039E+04
  1.92472E+04 -3.99003E+04  4.56125E+04 -1.93614E+04  4.45678E+04  1.77873E+04  1.55135E+04  4.38623E+04
 -1.70231E+04  2.93581E+04 -2.48012E+04 -9.41553E+02 -1.13109E+04 -3.00266E+04  2.29431E+04 -3.38917E+04
  3.94984E+04 -7.91906E+03  3.61095E+04  2.31311E+04  1.43769E+04  4.44357E+04 -9.25260E+03  4.64355E+04
 -3.46700E+04  2.72078E+04 -4.23123E+04  8.26478E+03 -4.14830E+04 -1.01502E+04 -2.45607E+04 -3.71380E+04
  7.55739E+03 -3.58701E+04  3.02430E+04 -1.66761E+04  2.98626E+04  1.14999E+04  4.48664E+03  1.81701E+04
 -9.30488E+03  9.19504E+03 -9.84115E+03 -7.93956E+03  9.94630E+03 -9.00427E+03  1.65409E+04  5.35005E+03
  1.37494E+04  2.42975E+04 -3.72396E+03  2.54685E+04 -2.23875E+04  1.23573E+04 -3.04018E+04 -1.71161E+03
 -2.20188E+04 -1.56929E+04 -9.02166E+03 -1.88307E+04  2.30287E+03 -1.77108E+04  1.35099E+04 -1.82469E+04
  2.13334E+04 -1.38603E+04  2.87653E+04  3.07923E+03  2.57925E+04  2.13000E+04  1.92206E+03  3.08005E+04
 -1.77619E+04  3.41366E+04 -2.61047E+04  1.37426E+04 -1.92539E+04 -1.32637E+04 -5.50297E+03 -1.41542E+04
  1.17813E+03 -8.24592E+03 -2.59968E+03  9.50664E+03 -1.50206E+04  5.95498E+03 -1.48292E+04 -6.34142E+03
 -1.40479E+04 -1.85610E+04  8.25066E+03 -2.26921E+04  1.28785E+04 -1.44124E+04  2.23776E+04 -1.74137E+02
  9.49818E+03  1.03569E+04 -2.67708E+03  1.56226E+04 -1.37548E+04  1.37066E+04 -1.84713E+04 -5.25485E+03
 -1.12656E+04 -1.82016E+04 -7.66128E+03 -1.95708E+04  9.24327E+03 -1.86990E+04  2.13858E+04 -1.03210E+04
  1.40999E+04  4.18224E+02  1.23940E+04  3.55627E+03  8.14155E+03 -1.35939E+03  5.11770E+03  1.32925E+02
  1.31591E+04  7.31429E+03  1.83926E+04  1.15859E+04  1.23869E+04  2.78238E+04 -6.16921E+02  3.10586E+04
 -1.79200E+04  2.62955E+04 -2.94110E+04  1.61258E+04 -2.49497E+04 -2.26267E+03 -2.98305E+04 -1.88536E+04
 -1.21893E+04 -2.71667E+04  8.46384E+03 -2.22345E+04  1.65186E+04 -1.30566E+04  2.09824E+04  1.12690E+03
  4.14192E+03  1.29775E+04 -8.28880E+03  1.02098E+04 -1.49186E+04  1.77912E+03 -1.06069E+04 -1.08707E+04
 -1.48729E+03 -1.60800E+04  6.66057E+03 -9.95389E+03  1.18207E+04  1.38630E+03  3.10966E+03  6.72940E+03
  1.12063E+03 -8.20746E+01 -5.22800E+03 -2.86755E+03 -1.62414E+03 -8.18705E+03  4.13233E+03 -1.38036E+04
  1.38388E+04 -4.61615E+03  1.71772E+04 -1.64398E+02  1.01389E+04  9.47437E+03  5.30498E+03  2.10138E+04
  1.97812E+02  2.23989E+04 -1.25393E+04  1.24710E+04 -1.38684E+04  3.38789E+03 -1.08782E+04 -5.04070E+03
 -7.56853E+03 -4.40658E+03 -3.19970E+03  2.05310E+03 -6.03333E+03  1.30814E+03 -3.71550E+03  1.45707E+03
 -9.22668E+03 -1.08484E+03 -1.28807E+04 -9.87190E+03 -3.78386E+03 -8.38686E+03  8.03119E+03 -9.39462E+03
  7.59005E+03 -1.68824E+03  7.51442E+03  4.31601E+03 -3.54159E+03  6.36611E+03 -4.88424E+03 -1.49989E+03
 -4.81521E+03 -5.06825E+03  5.58569E+02 -1.06946E+04  2.97682E+03 -1.09772E+04  1.24960E+04 -1.48238E+04
  1.33281E+04  3.00078E+03  1.01196E+04  8.80479E+03 -2.85448E+03  6.18355E+03 -7.82697E+03  1.10153E+04
 -5.34497E+03  2.11634E+03  9.64182E+02 -3.32022E+03  2.40425E+03  1.21316E+02  4.82482E+03 -1.59701E+03
  3.85401E+03  3.17385E+03 -1.98102E+03  1.13746E+04 -7.51622E+03  4.98541E+03 -9.22597E+03 -3.27682E+03
 -3.80275E+03 -2.66208E+03  7.84010E+01 -8.28491E+03  1.82661E+03 -6.75206E+03  3.19043E+03 -7.90545E+02
  6.71907E+02  2.79470E+03 -5.10786E+03  6.39676E+03 -6.35320E+03  5.14691E+03 -6.51695E+03 -1.63219E+03
 -1.78508E+03 -9.12267E+03 -2.08350E+03 -1.35193E+04  5.65505E+03 -8.07376E+03  1.09425E+04  9.03672E+02
  1.92032E+03  9.89078E+03 -1.37767E+03  5.38050E+03 -6.65515E+03  3.68003E+03 -8.11794E+03  7.29275E+02
 -6.16026E+03 -1.69586E+03 -3.22608E+02 -8.59530E+03  2.56536E+03 -6.57433E+03  6.43307E+02 -8.33943E+02
  5.60783E+03  3.55557E+03 -2.22120E+03  2.83349E+03  2.66827E+03  1.44293E+03 -3.33696E+03 -2.35057E+03
  7.43968E+03 -1.30937E+03  8.50742E+03  1.27353E+02  6.88135E+03  1.90794E+03  5.01992E+03  1.11197E+04
 -4.26793E+03  1.46587E+04 -6.92311E+03  1.07883E+04 -1.27752E+04 -7.68281E+02 -1.23255E+04 -5.55825E+03
 -3.25083E+03 -9.12024E+03  4.89628E+02 -7.57822E+03  1.04391E+03  1.18315E+03  1.23639E+03 -2.74613E+03
 -1.83471E+01 -3.42616E+03  5.08870E+03 -5.92040E+03  7.83317E+03  6.02216E+02  3.95255E+03 -2.57263E+03
  7.72043E+03 -7.74997E+02  1.09152E+03  4.11605E+03 -1.50701E+03  8.08682E+03 -4.83430E+03  6.85379E+03
 -4.81075E+03 -1.43283E+03 -4.78618E+03 -6.22395E+03  3.74993E+03 -1.02520E+03  2.85890E+03 -9.95628E+03
  6.46786E+03 -6.07305E+03  1.31132E+04 -3.74640E+03  4.47039E+03  4.42258E+03  6.60617E+02  3.27496E+03
 -2.99072E+03  5.43384E+03 -6.66991E+03  2.78583E+03 -2.21805E+03 -3.20141E+03  5.89438E+01  2.55908E+03
 -2.48808E+03  7.19862E+02  1.12890E+03  4.41783E+03 -3.93629E+03  2.39665E+03 -2.57429E+03 -2.54456E+03
 -3.47688E+03 -6.51516E+03 -1.19325E+02 -8.74178E+03  2.14051E+03 -6.97066E+03  6.35558E+03 -8.89298E+02
  7.83885E+03  1.90464E+03 -1.70051E+03  5.42852E+03 -5.99820E+03  5.37717E+03 -5.27400E+03  3.00157E+02
 -3.66078E+03  2.27476E+03 -3.78873E+03 -4.14014E+03  3.18214E+03 -4.47216E+03  3.88481E+03 -4.37389E+03
  1.67495E+03 -2.36268E+03  4.38625E+02 -1.91176E+03  1.73338E+03  5.35286E+03  1.02919E+03  9.36421E+02
 -1.38151E+02  9.62377E+02  2.04648E+02  4.69601E+03 -3.20135E+02  1.38028E+03 -1.74112E+03  9.30059E+02
 -3.38490E+02  6.66570E+03 -3.61076E+03  4.15880E+03  4.41340E+01 -1.81436E+03 -4.79156E+03 -1.31022E+03
 -6.07856E+02 -2.58788E+03 -3.94947E+03 -2.73061E+03 -6.16443E+02 -9.81833E+03  4.04097E+03 -1.35577E+03
  1.84893E+03  2.28140E+03 -3.96479E+03  3.52266E+03 -1.68089E+03  7.28619E+03 -3.17128E+03 -3.14883E+03
 -3.32911E+03 -2.83796E+03  4.60747E+03 -7.18434E+02 -6.71444E+02 -8.51262E+02  7.60208E+02  2.45991E+03
  5.35290E+02 -3.64189E+03  4.05603E+03 -2.95427E+03 -8.26823E+02  1.93425E+03  2.74468E+03  7.59797E+02
 -3.77737E+03  6.08009E+03  2.79378E+03 -2.52443E+03  3.01714E+01 -3.20406E+03 -2.05963E+03  5.76971E+03
 -2.55174E+03  1.67208E+03 -5.85088E+02 -6.70583E+02 -2.42590E+03 -2.10653E+03 -1.46742E+03 -1.17178E+03
 -9.21797E+02 -2.26758E+03  1.78925E+03 -2.11185E+03  3.39870E+03  1.40308E+02 -4.63810E+03 -2.76426E+02
 -2.74498E+03  2.70996E+03 -2.29341E+03 -1.49354E+03 -1.61752E+03 -7.01279E+03  2.57110E+03 -2.70652E+03
  3.06321E+03  1.19454E+03  1.84324E+03  6.85516E+01  2.24486E+03 -2.48135E+03  6.45322E+03  4.77244E+03
 -2.85425E+03 -1.08110E+03 -2.32464E+03 -2.32304E+03  1.71328E+03 -3.12477E+03  2.32067E+03 -1.11029E+03
  1.84538E+03 -1.29467E+03  4.11857E+03  2.15427E+03 -8.45564E+02  4.54850E+03 -6.38937E+02  2.35271E+03
 -1.74257E+03  1.39614E+03 -3.31117E+03 -2.44956E+03 -1.37004E+03 -2.91965E+03 -1.76168E+03 -1.03841E+03
  2.43530E+03  3.09832E+03 -1.55423E+03 -3.06901E+03  2.63978E+03  3.61353E+03 -1.13066E+03  1.66129E+03
 -3.39534E+03  7.63358E+02 -9.61352E+02 -4.24558E+03 -2.68433E+03 -1.69735E+03 -2.99676E+03  3.59240E+03
  6.02706E+02  4.30617E+03  2.25153E+03  1.59570E+03 -3.11184E+03  1.76756E+03 -3.96763E+03  4.76771E+03
 -6.97108E+02 -3.76744E+03  1.96487E+03 -3.15316E+03 -1.14894E+03  1.80267E+03 -7.88552E+02 -2.88184E+02
  4.46394E+03  5.78986E+02 -2.39055E+02  2.49533E+03 -5.20415E+01  5.10394E+03 -2.24170E+03  1.65878E+03
 -4.88918E+02  2.68131E+03  2.73920E+03 -4.33054E+02 -1.18935E+03 -2.40908E+03 -2.96178E+03  1.70589E+03
 -1.67121E+03  3.35510E+03  3.77608E+02  2.30020E+02 -2.68464E+03  1.77782E+03 -4.98858E+03 -4.01682E+03
  7.18752E+03 -4.63151E+03  1.32519E+02  2.04896E+03  3.18279E+03  2.16293E+02 -2.03708E+03  1.21370E+03
 -2.08882E+03 -8.42526E+02 -2.76398E+03  5.40400E+02 -3.47880E+02  3.43873E+03 -1.34096E+03  4.19296E+03
 -4.96692E+03  1.34200E+03  6.13824E+03 -4.46294E+03  7.10848E+03  2.09687E+03 -5.52321E+02 -1.58698E+02
  1.76962E+03 -9.48758E+02  4.28061E+03 -1.65609E+03 -9.87319E+02  2.05199E+03 -2.33216E+03 -5.57320E+03
 -3.19576E+02 -1.58241E+03 -7.65940E+01  5.54060E+02 -2.34290E+03 -1.59686E+03  2.53190E+03  6.31363E+02
 -1.67564E+03 -1.65850E+03 -2.52013E+03  2.32155E+03  2.60554E+03 -1.63497E+03  5.76727E+02  1.11697E+03
 -2.50471E+03  1.14450E+03  9.40942E+02 -1.16669E+03 -9.53029E+02  5.86125E+03  1.71718E+03 -5.89311E+03
  1.13516E+03 -1.50966E+03  6.52285E+01  3.39915E+03 -1.29356E+03  4.43352E+03  2.71547E+02 -2.37673E+03
 -2.05986E+03 -2.14182E+03  3.66466E+03  5.36111E+03  1.25684E+03 -1.70457E+03 -1.38160E+03  6.86287E+02
 -1.78245E+03  1.75263E+03  3.28863E+03 -1.81143E+03 -1.31364E+03 -1.98203E+03 -4.04639E+03 -2.92661E+02
  6.72807E+02 -8.48252E+01 -1.46116E+02  1.44204E+03  5.23845E+02  2.30681E+03  4.00848E+03  3.60839E+03
