 $NMID ID='MM_0lb_SNR50_12hz_g40_73.RAW', FMTDAT='(8E13.5)'
 TRAMP=1., VOLUME=1. $END
  3.11917E+05  2.62226E+03  3.33489E+05  2.53586E+05  8.48079E+04  3.34812E+05 -1.31379E+05  2.51444E+05
 -1.90912E+05  8.42505E+04 -1.16709E+05 -3.03211E+04  2.07941E+03 -4.79015E+04  5.59604E+04 -2.77862E+03
  3.87750E+04  5.47364E+04 -1.51918E+04  7.12874E+04 -6.58358E+04  6.32123E+04 -8.39600E+04  3.93465E+04
 -8.06445E+04 -8.06653E+03 -5.69719E+04 -4.59399E+04 -1.99425E+04 -6.71726E+04  2.52789E+04 -4.86861E+04
  3.95044E+04  2.51687E+03  1.52534E+04  4.42166E+04 -2.88793E+04  4.88395E+04 -6.93956E+04 -5.10564E+03
 -5.54857E+04 -5.97601E+04 -5.52505E+03 -7.44258E+04  3.38861E+04 -5.97519E+04  4.06070E+04 -1.85359E+04
  4.11248E+04  8.40836E+03  3.47193E+04  2.72550E+04  8.76458E+03  2.66776E+04 -2.59086E+03  2.50459E+04
 -2.39057E+04  1.23047E+04 -2.47608E+04 -4.41564E+03  1.18910E+04 -5.64763E+03  2.26215E+04  1.20858E+04
  9.68882E+03  3.67351E+04 -3.25297E+04  4.07837E+04 -6.20850E+04  4.23265E+02 -5.79195E+04 -4.10341E+04
 -1.60823E+04 -6.70392E+04  3.46682E+04 -3.95880E+04  6.02339E+04 -7.85101E+02  3.67264E+04  2.77226E+04
 -7.23953E+03  3.01014E+04 -2.77390E+04  1.52090E+04 -3.57164E+04 -6.95064E+03 -1.87451E+04 -7.71419E+03
 -8.09681E+03 -8.59065E+03 -2.93085E+03 -1.38014E+04  5.05269E+03 -2.14470E+04  1.81543E+04 -1.36890E+04
  1.15951E+04  7.01153E+03 -9.38141E+03  1.51502E+04 -2.49993E+04 -8.32190E+03 -8.42282E+03 -3.71664E+04
  2.24879E+04 -4.68191E+04  4.92731E+04 -1.92264E+04  4.77680E+04  2.29217E+04  1.46579E+04  4.63809E+04
 -1.93083E+04  3.24403E+04 -2.62469E+04  1.78942E+03 -8.79571E+03 -2.87669E+04  2.58820E+04 -3.37063E+04
  4.61959E+04 -1.32641E+04  3.72741E+04  2.18921E+04  1.98523E+04  3.86789E+04 -7.59889E+03  5.31164E+04
 -2.81480E+04  3.45155E+04 -4.32544E+04  1.23761E+04 -4.27970E+04 -1.77901E+04 -1.70606E+04 -4.03234E+04
  8.63875E+03 -3.57614E+04  3.27527E+04 -1.28073E+04  2.74848E+04  1.38652E+04  6.15859E+02  1.96028E+04
 -1.12102E+04  1.03355E+04 -1.21014E+04 -8.49692E+03  2.05888E+03 -1.47408E+04  1.72078E+04  7.34571E+03
  1.19879E+04  2.16822E+04 -2.70004E+03  2.91289E+04 -2.23835E+04  1.63369E+04 -3.14577E+04 -1.76421E+03
 -2.03878E+04 -1.75032E+04 -9.70576E+03 -1.67170E+04  7.20851E+02 -1.99820E+04  1.47829E+04 -1.69641E+04
  3.14404E+04 -8.24403E+03  3.46327E+04 -1.30143E+03  3.09736E+04  2.15275E+04  1.60657E+03  4.03683E+04
 -2.13419E+04  2.85352E+04 -2.10943E+04  3.35431E+03 -2.20711E+04 -1.32409E+04 -4.43292E+03 -1.40964E+04
 -4.45307E+03 -6.80282E+03 -7.35122E+03  5.40184E+03 -1.40570E+04  4.18951E+03 -1.28566E+04 -1.04988E+04
 -1.21828E+04 -1.71580E+04  2.82394E+03 -2.00802E+04  1.62790E+04 -1.24089E+04  1.86613E+04  8.97506E+02
  1.16822E+04  1.20783E+04 -4.08354E+03  1.86565E+04 -1.36221E+04  8.89206E+03 -2.32190E+04 -2.98173E+03
 -1.95206E+04 -1.96052E+04  2.02157E+03 -2.50810E+04  9.18589E+03 -1.70749E+04  1.88430E+04 -7.10246E+03
  1.98058E+04  3.40186E+03  1.28430E+04 -5.55119E+02  6.37245E+03  5.41017E+02  1.15665E+04 -4.48386E+03
  1.46457E+04  2.24521E+03  2.04710E+04  1.93680E+04  1.23761E+04  3.36118E+04  8.01556E+02  3.44769E+04
 -2.41995E+04  2.70630E+04 -2.57239E+04  1.20296E+04 -3.66152E+04 -5.44642E+03 -2.94279E+04 -2.34531E+04
 -1.23465E+04 -3.40516E+04  1.46739E+04 -2.49397E+04  2.56921E+04 -1.49166E+04  1.75484E+04  3.77488E+03
  4.23377E+03  1.39514E+04 -1.37828E+04  1.42180E+04 -1.42244E+04 -3.29781E+03 -1.04022E+04 -1.09268E+04
  2.89858E+03 -1.47132E+04  5.93369E+03 -9.34053E+03  5.51581E+03 -2.37765E+02  1.22212E+03  1.00405E+04
 -4.52080E+03 -6.07805E+03 -5.59032E+03 -1.00209E+04 -2.55286E+03 -1.17075E+04  8.74402E+03 -1.52564E+04
  2.01305E+04 -1.34366E+04  2.04953E+04  4.49801E+03  1.25929E+04  1.69337E+04  6.32646E+03  1.83771E+04
 -4.05997E+03  2.56131E+04 -1.46671E+04  1.33887E+04 -1.80459E+04  4.64549E+03 -1.29912E+04 -5.39914E+03
 -7.23930E+03  7.95892E+02 -2.15900E+03  7.59261E+03 -6.60633E+03  4.08570E+03 -7.66166E+03 -4.52729E+02
 -1.10191E+04 -4.71659E+02 -1.51777E+04 -1.33661E+04 -3.65873E+03 -1.64370E+04  2.06658E+03 -1.26057E+04
  6.44982E+03 -5.26252E+03  1.14716E+04  5.27755E+03 -2.18355E+03  8.76745E+03  1.24169E+03 -1.26887E+02
 -9.74459E+03 -9.03212E+03 -3.98269E+02 -1.45759E+04  1.21751E+04 -1.10161E+04  9.56574E+03 -7.43322E+03
  2.13168E+04  4.28774E+03  1.70281E+04  1.16803E+04  2.56759E+03  1.61905E+04 -1.02601E+04  1.60751E+04
 -1.18635E+04  1.80203E+03 -8.45468E+03 -1.79744E+03  7.09209E+03 -4.97386E+03  4.81759E+03 -1.22814E+03
  6.10577E+03  7.81136E+03  8.32330E+03  8.92541E+03 -9.64135E+03  1.06671E+04 -1.27896E+04  6.01694E+03
 -1.43386E+04 -3.41649E+03 -1.36835E+03 -1.15896E+04  8.51327E+03 -5.95577E+03  3.53886E+03  8.84367E+03
  1.92682E+02  8.52397E+03 -7.06090E+03  8.09129E+03 -8.05340E+03  4.94926E+03 -8.51561E+03 -1.14601E+03
 -9.73130E+03 -1.27664E+04  2.15891E+03 -1.39463E+04  9.57761E+03 -5.13359E+03  9.39193E+03  1.63838E+03
  1.13446E+04  5.63930E+03 -2.15861E+03  1.26279E+04 -1.12302E+04  6.29348E+03 -1.60048E+04 -6.54629E+03
 -7.15719E+03 -3.48517E+03  1.84982E+03 -1.01195E+04  6.07084E+03 -1.01403E+04  4.38804E+03 -6.79053E+03
  1.62483E+03 -3.37962E+03  1.39312E+03 -1.32369E+03 -1.79848E+01  2.44828E+03  2.88973E+03 -3.06837E+03
  8.97798E+03 -5.52469E+03  1.05069E+04  2.33639E+03  1.10247E+04  3.78437E+03  1.94629E+03  1.06758E+04
 -9.37209E+02  1.57481E+04 -1.26472E+04  8.10479E+03 -1.76532E+04  9.86850E+02 -1.24570E+04 -7.81082E+03
 -9.39201E+03 -1.48808E+04  2.58804E+03 -6.36268E+03  9.19892E+02 -6.05268E+03  5.35209E+03 -7.06852E+03
 -1.25439E+03 -4.19813E+03  6.24452E+03 -5.19232E+03  5.56341E+03 -7.18575E+03  8.34052E+02 -6.70805E+03
  6.04715E+03  1.72661E+03  3.95362E+03  1.20687E+04  1.53150E+03  4.25177E+03 -1.06618E+04  4.57612E+03
 -1.09497E+04 -4.98240E+03 -7.29038E+03 -5.25244E+03 -1.72324E+02 -1.22667E+04  2.93961E+03 -1.17491E+04
  1.31066E+04 -9.10228E+03  1.24271E+04 -3.61255E+03  1.38634E+04  1.00588E+04  6.11644E+03  8.69859E+03
 -3.55669E+03  1.26594E+04 -9.91444E+03  4.14676E+03 -5.93196E+03  1.83126E+02 -1.75715E+03  2.35007E+02
 -4.36708E+03 -2.44330E+03 -3.32197E+03  2.98625E+03 -5.01589E+03  5.71827E+03 -3.05717E+03  5.51571E+03
 -5.57474E+03 -4.67219E+03  1.24517E+03 -1.33808E+04  3.60436E+02 -1.14218E+04  1.03357E+04 -5.19910E+03
  1.32662E+04  2.37446E+03  4.73135E+03  8.31372E+03  2.77868E+03  1.08141E+04 -3.57555E+03  6.55441E+03
 -1.02634E+04  2.51066E+03 -8.37627E+03 -6.62577E+03 -7.44838E+01 -5.11039E+03  3.53352E+03 -8.79266E+03
  5.80122E+02 -3.53509E+02  4.00379E+01  4.80569E+03  1.30960E+03  4.34449E+03  3.32264E+03  4.86167E+02
  2.01714E+03  5.51639E+03  1.35898E+03  3.94687E+03  2.74099E+03 -2.83574E+03  5.22715E+02  4.61496E+03
  7.98092E+02  5.54915E+03 -1.21525E+04  8.44982E+03 -8.93232E+03  4.39652E+03 -1.05821E+04 -2.78205E+03
 -7.71542E+03 -6.49257E+03  4.39400E+03 -9.08971E+03  3.89443E+03 -5.40257E+03  7.29681E+03  2.96304E+02
  4.97980E+03  2.51412E+03  2.96006E+03  1.34633E+04 -3.10782E+03 -2.63177E+02 -1.89775E+03  5.94521E+03
 -1.59226E+03 -8.50785E+02  4.01893E+03 -7.84147E+03  6.76296E+03 -1.77449E+03  8.15668E+03  4.06212E+03
 -9.88196E+02 -2.89404E+02 -2.40600E+03 -1.67646E+02 -6.21561E+01  4.94013E+03  8.60006E+02 -1.27137E+03
  4.82371E+03  2.98324E+03  4.38613E+03  3.18280E+03  2.05601E+03  2.05452E+03  3.40815E+03  4.76836E+03
 -6.35781E+03  4.62963E+03 -4.83225E+03 -5.27347E+02 -6.93130E+03  1.36836E+03 -2.57942E+03 -7.37837E+03
  5.22176E+01 -7.04272E+03  2.11770E+02  1.25710E+03 -5.85215E+02  2.34704E+02  1.10518E+03  4.50925E+03
 -3.18593E+03 -9.56532E+02 -1.61812E+03 -3.57690E+03 -3.86759E+03 -1.95307E+02 -1.75158E+03 -7.43867E+03
  3.55787E+02 -6.07285E+03  2.58652E+03  4.73391E+02  5.89539E+03  1.47460E+03 -1.12386E+01  1.59757E+03
 -8.88328E+02  2.00990E+03 -4.44120E+03 -4.43195E+03 -3.71204E+03 -8.92053E+01  4.34200E+03  1.64992E+03
  7.67272E+03 -2.22251E+03  5.49430E+03  6.36947E+03  2.62147E+03  6.19073E+03 -4.61558E+03 -1.36141E+03
 -4.39566E+03  1.43187E+03 -1.37782E+03 -3.88207E+03 -5.99299E+03 -9.08045E+03  1.73270E+03 -6.71432E+02
 -1.33322E+03  2.54665E+03  2.98088E+03 -2.49703E+03 -4.21355E+03  1.81483E+03 -1.03207E+03  2.17117E+03
 -2.45034E+03  3.23508E+03 -2.58749E+03  4.44864E+03 -4.26972E+03 -3.80415E+03 -2.18570E+03  2.52612E+03
 -4.07466E+03  5.15764E+03 -1.53090E+03  1.72779E+03 -5.29476E+03 -2.25251E+03 -2.77704E+02 -4.44076E+03
 -4.40488E+03 -5.90334E+03 -1.42525E+03 -1.25354E+04  3.93835E+03 -7.38112E+03  7.31015E+03 -5.95728E+03
  9.60369E+03  3.97710E+03  5.15260E+03  1.13851E+03  2.53604E+01  5.02940E+03 -6.45046E+03  3.91339E+03
 -1.81197E+03 -9.46903E+02 -1.20566E+03 -1.33174E+03 -2.45749E+02 -3.99271E+02 -9.26961E+03  2.52970E+03
  1.53500E+03  8.11910E+02 -5.03512E+03 -1.19376E+03  3.88708E+03 -9.57449E+02 -3.09361E+03 -4.84449E+03
 -6.14847E+02 -1.45888E+03  1.91928E+03 -2.68434E+03  4.21196E+03  4.79796E+03  2.36619E+03  1.38533E+04
 -5.98196E+03  5.36887E+03 -4.44669E+03  7.96672E+03 -1.04736E+04  1.64758E+02 -4.21898E+03 -4.04485E+03
 -1.49204E+03 -9.91573E+03  2.55890E+03  7.50896E+02 -1.04373E+03  1.55008E+02  4.98729E+03  1.38866E+03
  2.03193E+03  3.06614E+03 -8.69620E+02  6.94917E+03 -1.14468E+03 -4.44535E+03 -1.30693E+03 -1.30145E+02
  1.65588E+02  5.30883E+03 -2.00421E+02 -6.99325E+02  5.20006E+02  5.79556E+03  4.47056E+02  5.88157E+03
  7.66735E+02  4.99715E+03 -9.93191E+03  2.44980E+03 -3.06181E+03 -4.27406E+03 -2.57858E+03 -6.29486E+03
  2.45315E+03  3.41577E+02  4.29682E+02 -1.64884E+03  2.49421E+03 -3.14328E+03  4.43171E+03  6.19526E+03
  5.74552E+02  5.16415E+03  8.94419E+02  2.95008E+03 -1.69635E+03  2.48875E+03 -2.15263E+03  1.48810E+03
  8.53543E+02 -1.55119E+03  2.98276E+03 -5.03249E+02  1.04378E+03 -1.53535E+03  2.03960E+03  1.96219E+03
 -2.49246E+03  2.81903E+03 -4.12892E+03 -9.11282E+03  4.15526E+03 -1.27847E+03  7.20258E+03 -5.35041E+03
  3.65761E+03  1.11197E+03  3.12045E+03  3.42580E+03  5.09901E+03  6.77662E+03 -4.07475E+03 -3.54739E+03
