 $NMID ID='MM_0lb_SNR50_10hz_g45_3.RAW', FMTDAT='(8E13.5)'
 TRAMP=1., VOLUME=1. $END
  3.13337E+05  1.97955E+02  3.32862E+05  2.54858E+05  8.85115E+04  3.38544E+05 -1.30812E+05  2.54195E+05
 -1.92355E+05  8.31873E+04 -1.09272E+05 -3.41760E+04 -1.20972E+03 -4.84366E+04  5.24836E+04  1.24286E+03
  3.77466E+04  5.51173E+04 -1.85453E+04  7.95681E+04 -6.54417E+04  6.36120E+04 -9.08073E+04  3.72316E+04
 -7.95382E+04 -7.24521E+03 -5.87826E+04 -4.92199E+04 -1.01276E+04 -6.95224E+04  2.50506E+04 -4.60940E+04
  4.48388E+04  2.42258E+03  2.15871E+04  5.19309E+04 -3.30854E+04  4.41851E+04 -6.77035E+04 -5.10771E+02
 -5.21173E+04 -6.23211E+04 -5.55115E+03 -7.70574E+04  3.82989E+04 -5.46606E+04  4.88995E+04 -1.90650E+04
  4.22439E+04  8.64492E+03  3.17446E+04  2.67428E+04  1.44565E+04  3.33467E+04 -6.57389E+03  1.94838E+04
 -2.50860E+04  1.78609E+04 -1.82899E+04 -2.41641E+03  3.19466E+03 -7.88675E+03  2.53120E+04  1.08324E+04
  8.22260E+03  3.68546E+04 -3.61959E+04  3.46655E+04 -6.71932E+04 -2.61608E+03 -5.54180E+04 -4.51113E+04
 -1.12186E+04 -6.68711E+04  4.31120E+04 -4.46082E+04  5.91074E+04 -5.59477E+03  3.26241E+04  3.55722E+04
 -7.41162E+03  3.34631E+04 -2.84174E+04  9.63282E+03 -3.24247E+04 -1.73589E+03 -1.63266E+04 -1.45083E+04
 -1.37723E+03 -7.34861E+03  2.56053E+03 -2.04887E+04  7.17572E+03 -2.21522E+04  1.65515E+04 -1.49662E+04
  8.49999E+03  8.51665E+03 -7.03469E+03  1.08401E+04 -1.96614E+04 -3.10912E+03 -1.24948E+04 -3.63942E+04
  2.17661E+04 -4.36883E+04  4.79316E+04 -1.94882E+04  5.22206E+04  1.57584E+04  2.00249E+04  4.94798E+04
 -1.19163E+04  3.64221E+04 -2.61720E+04 -7.10227E+02 -1.07598E+04 -2.12580E+04  2.27326E+04 -3.59270E+04
  4.61828E+04 -3.83277E+03  3.98773E+04  2.73819E+04  1.69891E+04  5.65938E+04 -6.64045E+03  5.42984E+04
 -3.38451E+04  3.86047E+04 -4.63524E+04  1.67457E+04 -4.62691E+04 -1.83005E+04 -2.48358E+04 -3.82384E+04
  8.66305E+03 -4.00119E+04  3.41929E+04 -1.87030E+04  3.61858E+04  7.84978E+03  5.36475E+03  2.17183E+04
 -1.40089E+04  3.91750E+03 -4.03190E+03 -3.81415E+03  1.06901E+04 -1.82667E+04  2.13441E+04  1.13855E+04
  1.87291E+04  2.03463E+04 -7.93096E+03  2.18106E+04 -2.24867E+04  3.92985E+03 -3.05703E+04 -7.51740E+03
 -2.17208E+04 -1.20615E+04 -1.41174E+04 -2.53474E+04 -3.39822E+02 -2.27381E+04  2.01096E+04 -2.26152E+04
  3.39553E+04 -1.05424E+04  3.54406E+04 -2.30744E+03  2.91200E+04  1.89457E+04  6.91134E+03  3.40209E+04
 -1.87783E+04  2.89722E+04 -3.31822E+04  1.44214E+04 -2.23435E+04 -1.58303E+04 -5.53936E+03 -7.83838E+03
  1.80679E+03  6.74568E+02 -1.17743E+04  9.30841E+03 -1.95098E+04  6.77012E+03 -1.97928E+04 -2.49509E+03
 -1.14801E+04 -2.43401E+04  8.92421E+03 -2.67839E+04  2.05997E+04 -1.92539E+04  1.96766E+04 -4.03160E+03
  1.70890E+04  1.94738E+04 -2.47342E+03  1.97572E+04 -1.63950E+04  1.44742E+04 -2.43979E+04 -4.44717E+03
 -1.43625E+04 -1.62440E+04 -5.00093E+03 -2.59644E+04  1.55923E+04 -1.87584E+04  2.55701E+04 -1.78231E+04
  1.50220E+04 -4.20857E+03  1.05413E+04  2.56898E+03  2.40725E+03 -2.66371E+02  1.54142E+04 -6.14802E+03
  2.25751E+04  3.17249E+03  1.96277E+04  1.90782E+04  1.69069E+04  3.67228E+04  3.17221E+03  3.67496E+04
 -1.73046E+04  3.32478E+04 -4.16595E+04  2.27583E+04 -4.37642E+04 -4.27026E+03 -3.18067E+04 -2.38617E+04
 -1.11584E+04 -3.70182E+04  1.35706E+04 -2.90052E+04  2.64523E+04 -1.63717E+04  2.48451E+04  1.43330E+04
  9.15503E+03  1.91374E+04 -1.22793E+04  1.12857E+04 -1.72867E+04  1.85755E+03 -1.53111E+04 -1.29811E+04
  2.84104E+01 -2.18395E+04  9.39202E+03 -1.97964E+04  1.33272E+04 -6.49211E+03 -1.13672E+03  7.36670E+03
 -4.38315E+03 -2.17675E+03 -7.10345E+03 -2.55714E+03  1.01911E+03 -1.73867E+04  1.27701E+04 -1.82128E+04
  2.12099E+04 -1.22100E+04  2.52137E+04  3.94569E+03  1.70322E+04  1.82379E+04  6.57865E+03  2.90984E+04
 -7.21628E+03  2.76763E+04 -1.73209E+04  2.13527E+04 -2.61658E+04 -3.09886E+02 -1.30152E+04 -9.85849E+03
 -1.02735E+04 -7.95903E+03 -3.31022E+02  4.96888E+02 -1.87549E+03  7.77638E+03 -9.66234E+03  9.46699E+03
 -1.89152E+04  6.83959E+03 -1.32876E+04 -1.22206E+04 -5.34104E+03 -1.44477E+04  5.33819E+03 -1.96522E+04
  1.11565E+04 -1.85811E+03 -2.72950E+02  4.09319E+03 -1.87595E+03  2.81577E+03 -7.98817E+03  1.35908E+03
 -4.87462E+03 -1.00048E+04 -5.34083E+03 -8.53974E+03  2.15300E+03 -1.96173E+04  1.59006E+04 -7.32478E+03
  2.14348E+04 -1.89957E+03  1.37108E+04  1.12230E+04 -2.68532E+03  1.62110E+04 -9.11704E+03  9.64936E+03
 -9.82558E+03 -2.52368E+03 -6.31627E+03 -3.80303E+03  4.66269E+03 -3.65532E+03  4.17638E+03  7.12095E+02
  1.29065E+04  7.83861E+03  4.72691E+03  8.28639E+03 -1.32491E+04  1.38375E+04 -1.28174E+04  9.76850E+03
 -1.43159E+04 -3.22782E+03 -4.68621E+03 -1.55571E+04  6.54939E+03 -5.14222E+03  3.17121E+03  4.01426E+03
 -1.67188E+03  5.69661E+03 -1.03909E+04  1.24796E+04 -1.39344E+04  6.35726E+03 -1.11000E+04  2.25869E+02
 -6.69778E+03 -1.72404E+04  3.25503E+03 -1.33930E+04  8.83964E+03 -9.57023E+03  2.01758E+04  1.90464E+03
  5.95427E+03  1.26558E+04 -5.61979E+02  1.05854E+04 -1.06562E+04  8.15647E+03 -1.24711E+04  2.64420E+03
 -1.04347E+04 -1.04641E+04  2.62058E+02 -1.10818E+04  2.08661E+03 -1.32314E+04  1.91594E+03 -4.96044E+03
  4.42705E+03  7.35282E+02 -1.86923E+02  2.06475E+03  1.77551E+03 -3.53941E+03 -6.74586E+02 -5.18088E+03
  6.09645E+03 -1.15606E+03  7.94340E+03  2.69272E+03  1.58290E+04  1.16830E+04  1.33509E+04  1.73597E+04
 -8.86926E+03  2.16612E+04 -2.51924E+04  1.61341E+04 -2.47920E+04  5.87114E+03 -2.10967E+04 -7.45632E+03
 -3.24816E+03 -1.71767E+04 -5.97198E+03 -1.31761E+04  5.73641E+03 -5.53917E+03  8.03170E+03 -6.02982E+03
 -2.29122E+03 -4.78198E+03  2.93287E+03 -2.34583E+03  9.31541E+03 -7.31593E+03  1.61621E+03 -1.16313E+03
  6.11408E+03  5.12576E+03  2.88769E+03  8.56047E+03 -3.96476E+03  1.37076E+04 -2.57242E+03  7.01817E+03
 -1.24326E+04  7.15989E+02 -1.15935E+04 -1.15330E+04  1.29921E+03 -1.88131E+04  7.32190E+03 -1.65505E+04
  7.40052E+03 -7.85330E+03  1.89818E+04 -3.43066E+03  1.30057E+04  1.09653E+04 -1.79820E+03  1.64845E+04
 -6.49752E+03  1.41359E+04 -2.35624E+03  1.16286E+04 -4.42962E+03 -1.97596E+03  4.91307E+03  7.55056E+02
 -8.05338E+02  2.16385E+02  6.91402E+02  1.03793E+04 -5.86580E+03 -2.35060E+03 -8.33742E+03  2.07707E+03
 -4.38795E+03 -6.47148E+03  4.07452E+03 -1.76031E+04  5.23566E+03 -1.06193E+04  1.16474E+04 -1.65652E+03
  9.97612E+03  7.75017E+03  8.29872E+03  1.29102E+04 -7.25387E+02  1.72722E+04 -1.10201E+04  9.27379E+03
 -1.04471E+04  2.79522E+03 -1.51036E+04 -7.24899E+03 -3.87600E+03 -8.69854E+03  2.16596E+03 -5.02923E+03
  6.23697E+03 -1.97845E+03  4.18720E+03  2.44127E+03 -4.13278E+02  3.77109E+03  1.20442E+03  4.87027E+03
  3.86187E+03 -1.62655E+03  5.82499E+03 -3.36940E+03  2.46912E+03  6.60855E+03 -2.60309E+03  9.34667E+03
 -4.93289E+03  1.08440E+04 -6.99942E+03  6.42259E+03 -9.36973E+03  5.95101E+03 -8.73480E+03 -5.94765E+03
 -3.55795E+03 -9.91034E+03  3.69054E+03 -4.62427E+03  4.90694E+03 -8.48196E+03  9.72627E+03 -4.46285E+03
  1.39756E+04  1.23465E+02  2.81928E+03  9.87173E+03 -1.09636E+03  4.98379E+03 -2.76721E+03  5.14570E+02
 -2.02123E+03 -3.77818E+03  5.36481E+03 -1.49185E+03  1.34037E+03 -3.58581E+03  8.83550E+03  3.16325E+03
  4.65683E+03  6.41051E+03  1.90070E+03  6.36018E+03 -3.52357E+03  2.36557E+03  2.09957E+03  2.32025E+03
  4.84274E+01  4.02829E+03  6.98119E+02  9.18034E+02  4.22089E+03  7.12163E+03  6.08021E+02  1.25580E+04
 -7.16667E+03  1.97628E+03 -4.13590E+03 -6.57736E+03 -8.33129E+03  3.23459E+03 -5.94233E+03 -4.52309E+03
  2.22001E+03 -3.07131E+03  1.12428E+04 -1.36439E+03  4.12051E+03  7.54269E+03  1.45885E+02  7.65613E+03
 -2.35733E+03  2.09290E+03 -5.96210E+03  5.45900E+02 -7.05981E+03 -8.17571E+03 -1.62966E+03 -8.75225E+03
  1.33636E+03 -1.81911E+03  7.18218E+03  1.57837E+03  6.26076E+03 -3.96276E+02  1.59985E+03  3.76624E+03
  3.73930E+03  1.06305E+03 -3.09434E+02 -1.59557E+03  3.89057E+03 -9.39819E+02  9.75860E+03  6.74719E+01
  8.83259E+03 -4.68951E+03  4.74957E+03  7.56302E+03  4.49717E+03  3.49562E+03 -5.70636E+03  1.31570E+04
 -3.68041E+03  6.91359E+03 -8.26181E+03 -6.37532E+03 -9.40773E+03 -7.29143E+03  1.36625E+03 -7.10187E+03
  9.03989E+03 -8.12506E+03  2.27238E+03  5.27253E+03  2.69149E+03  4.14745E+03 -2.81127E+03  7.82072E+03
  2.61951E+03  9.39260E+03 -2.41290E+03  7.31273E+03  4.91123E+03  4.88400E+03  1.60591E+03  7.34926E+03
 -5.70956E+03  5.70292E+03 -7.23309E+03  5.62353E+03 -6.18606E+03 -1.15364E+03 -7.02657E+03 -9.30614E+03
 -3.08482E+03 -1.56119E+04  2.06541E+03 -1.58882E+04  1.05132E+04 -1.06492E+04  1.74828E+04 -1.89238E+03
  1.26283E+04  2.33418E+03  6.07038E+03  9.15308E+03  9.94714E+02  1.24236E+04 -9.92613E+03  8.74537E+03
 -4.27561E+03  6.59399E+02 -8.21666E+03  6.23589E+03 -4.04918E+03  4.50404E+03 -2.28981E+03  3.21976E+03
 -1.99828E+03 -1.00288E+03 -5.84923E+03 -2.60875E+02  1.09098E+02  1.67173E+03  1.62797E+03  6.37272E+03
  5.68692E+03 -3.75618E+03  1.02967E+04 -7.72411E+02  9.38784E+03  7.87646E+03  2.68672E+03  8.91495E+03
 -9.59431E+03  1.33274E+04 -7.36259E+03  7.87765E+03 -7.34863E+03  1.53637E+03 -6.99099E+03 -4.37459E+02
 -3.58599E+03 -1.11285E+04  9.26060E+02 -5.93878E+03  1.55271E+03 -4.62155E+03  7.93786E+03  1.56510E+03
  1.46862E+03  1.14258E+03 -6.36402E+02  6.37801E+03 -1.11467E+03 -4.20914E+03 -1.17206E+03 -5.00937E+03
  3.44713E+03 -7.61691E+03  1.13100E+04  4.92167E+03 -2.09238E+03  2.03892E+03  3.60300E+03  2.57949E+03
 -3.12962E+02 -2.60069E+03 -4.32224E+02  2.20640E+03 -4.93434E+03 -5.08826E+03  2.34708E+03 -1.09939E+04
  4.02821E+03 -8.21042E+03  1.07854E+04 -3.26973E+03  1.43242E+03 -1.50670E+02  2.46960E+03 -5.71784E+02
 -3.05396E+03  3.81719E+03  2.51612E+03  8.32211E+03 -9.99373E+03  2.94161E+02 -5.73858E+03 -3.73868E+03
 -8.45466E+03 -3.17452E+03  4.09102E+03  2.95167E+03 -8.46651E+03 -1.84494E+03 -1.57049E+01  8.34512E+02
 -5.91661E+03 -7.49769E+03 -4.13075E+03 -2.34560E+03  3.41490E+03 -5.55531E+03 -1.27123E+03 -4.18740E+03
  8.27042E+03 -1.27770E+03 -2.31057E+03  1.42250E+03 -6.75975E+03  1.07838E+03 -1.55737E+03  3.22970E+03
