 $NMID ID='MM_0lb_SNR50_16hz_g40_42.RAW', FMTDAT='(8E13.5)'
 TRAMP=1., VOLUME=1. $END
  3.10736E+05  1.66198E+03  3.39631E+05  2.51657E+05  8.21842E+04  3.36607E+05 -1.33163E+05  2.51248E+05
 -1.92486E+05  8.54341E+04 -1.12104E+05 -3.46529E+04  4.40149E+03 -4.64340E+04  5.18308E+04  3.85498E+03
  3.50499E+04  5.14706E+04 -1.62147E+04  7.34169E+04 -6.37486E+04  6.09295E+04 -8.17781E+04  3.18377E+04
 -8.08928E+04 -1.10597E+04 -5.61538E+04 -5.25195E+04 -1.44458E+04 -6.71581E+04  2.69714E+04 -4.79204E+04
  3.77896E+04  2.97808E+03  1.42366E+04  4.84225E+04 -3.37623E+04  4.57811E+04 -6.70657E+04  7.16350E+02
 -5.50661E+04 -5.74469E+04 -3.20373E+03 -7.25818E+04  3.29611E+04 -5.24091E+04  4.95982E+04 -1.59853E+04
  4.14179E+04  1.34216E+04  3.40007E+04  2.78816E+04  1.53576E+04  2.99337E+04 -2.47357E+03  3.30063E+04
 -2.26681E+04  1.57886E+04 -2.31827E+04 -9.63247E+02  2.53505E+03 -1.14039E+04  2.23065E+04  1.26743E+04
  6.60389E+03  3.27624E+04 -3.09604E+04  3.58742E+04 -6.14728E+04  4.69679E+03 -5.09035E+04 -4.11263E+04
 -1.17321E+04 -6.24830E+04  4.11717E+04 -4.16204E+04  5.61958E+04 -3.87488E+03  3.34009E+04  3.02814E+04
 -7.05274E+03  3.48868E+04 -3.13335E+04  9.78200E+03 -3.24947E+04 -6.72666E+03 -1.65679E+04 -1.31728E+04
 -4.12577E+03 -7.59048E+03 -2.33015E+03 -1.52236E+04  1.08349E+04 -2.45449E+04  1.51727E+04 -1.59399E+04
  9.01670E+03  5.55759E+03 -8.11357E+03  9.52801E+03 -1.91994E+04 -3.76417E+03 -1.12982E+04 -3.33915E+04
  2.76915E+04 -4.09027E+04  4.62853E+04 -1.99017E+04  3.92491E+04  2.19815E+04  1.27397E+04  4.39330E+04
 -1.49641E+04  2.89526E+04 -2.32822E+04 -1.14458E+03 -1.15345E+04 -2.40166E+04  1.96175E+04 -3.01545E+04
  3.77128E+04 -7.15663E+03  3.40488E+04  2.31989E+04  1.84980E+04  4.74033E+04 -9.14578E+03  4.62843E+04
 -3.16943E+04  3.21651E+04 -3.61001E+04  9.37341E+03 -4.17571E+04 -1.10479E+04 -2.12998E+04 -4.18267E+04
  5.24979E+03 -3.71109E+04  2.71221E+04 -1.27066E+04  2.76393E+04  1.19560E+04  2.57154E+03  2.06711E+04
 -1.25627E+04  8.36806E+03 -1.11456E+04 -8.47966E+03  3.10444E+03 -1.29993E+04  1.79379E+04  5.50370E+03
  1.76021E+04  1.90124E+04 -1.33008E+04  2.80079E+04 -2.11895E+04  1.06731E+04 -2.43171E+04 -8.42248E+03
 -1.83429E+04 -1.93604E+04 -8.90855E+03 -2.29028E+04  3.76062E+03 -1.68328E+04  1.57307E+04 -1.62669E+04
  2.44595E+04 -1.43304E+04  3.24291E+04  7.09357E+02  2.39025E+04  1.90208E+04  3.29375E+03  3.51054E+04
 -2.06493E+04  3.28262E+04 -3.02507E+04  8.72650E+03 -1.57092E+04 -9.27093E+03 -6.50179E+03 -1.47661E+04
  1.97127E+03 -6.70127E+02 -2.83051E+03  6.13479E+03 -1.42651E+04  2.57459E+03 -1.30596E+04 -6.35983E+03
 -1.11732E+04 -1.48025E+04 -2.03231E+02 -2.18124E+04  1.66380E+04 -1.18705E+04  1.83322E+04 -5.03079E+03
  5.97677E+03  1.22435E+04 -4.78021E+03  1.49726E+04 -6.92782E+03  1.03163E+04 -2.14166E+04 -8.36666E+03
 -1.18034E+04 -1.17874E+04 -2.65060E+03 -2.10647E+04  6.64356E+03 -1.62492E+04  1.87696E+04 -1.07085E+04
  1.64766E+04 -2.36823E+03  1.25200E+04  7.54064E+03  5.00449E+03  4.78717E+03  8.73407E+03 -3.66614E+03
  1.22387E+04  6.42526E+03  1.75493E+04  1.09435E+04  9.64474E+03  2.69451E+04 -5.84191E+03  2.69819E+04
 -2.01086E+04  2.32072E+04 -3.09245E+04  1.70948E+04 -3.14623E+04 -1.04891E+03 -2.62339E+04 -1.46169E+04
 -1.07530E+04 -2.16390E+04  9.18950E+03 -1.61871E+04  2.31843E+04 -1.15195E+04  1.68966E+04  4.01393E+03
  1.15218E+04  9.56172E+03 -2.94856E+03  1.07696E+04 -1.35149E+04 -4.31827E+03 -6.84111E+03 -9.68046E+03
 -4.61920E+03 -1.13499E+04  1.26162E+04 -1.01047E+04  1.01725E+04 -2.46719E+03  1.22364E+03  3.04451E+03
 -5.78199E+03 -3.34461E+02 -1.02681E+04 -4.99473E+03  6.36696E+03 -8.41717E+03  8.37522E+03 -1.31313E+04
  1.57444E+04 -6.57179E+03  1.51342E+04  4.45651E+03  1.57304E+04  1.13935E+04  7.01690E+03  1.88586E+04
 -6.31690E+02  2.29922E+04 -1.15105E+04  7.84494E+03 -1.31726E+04  5.25519E+02 -1.35369E+04 -4.47799E+03
 -2.96822E+03 -1.81667E+03 -2.95575E+03 -2.03397E+03  2.49390E+02  7.36048E+03 -5.22142E+03  6.87017E+03
 -6.62539E+03  6.53934E+02 -9.67779E+03 -8.46518E+03 -5.78826E+03 -1.15154E+04  5.28554E+03 -7.59794E+03
  5.14569E+02 -3.60235E+03  6.83670E+03  6.82086E+03  3.96896E+03  4.06624E+03 -3.90827E+03  3.37459E+03
 -2.17005E+03 -9.22570E+03  2.13329E+03 -9.05275E+03  2.94657E+03 -1.06785E+04  1.22979E+04 -2.96300E+03
  1.31188E+04 -4.93026E+03  8.81218E+03  6.00860E+03  1.94587E+03  1.09409E+04 -3.25255E+03  1.06241E+04
 -1.05953E+04  2.15684E+03 -2.13544E+03  2.39037E+02  1.84139E+02 -4.30557E+03  4.69158E+03 -4.39985E+02
  5.57228E+03  5.67448E+03  9.50292E+02  1.16179E+04 -6.29449E+03  6.09962E+03 -6.66267E+03  2.14686E+03
 -9.46473E+03 -9.05330E+03  2.27957E+03 -8.56541E+03  5.57803E+03 -4.80716E+02  2.68861E+03  2.63874E+03
  6.34670E+01  5.24824E+03 -3.60065E+03  6.55852E+03 -2.92784E+03  1.17746E+03 -3.56739E+03 -1.06783E+03
 -2.48161E+03 -6.82126E+03  1.97326E+03 -6.50078E+03  6.37138E+03 -5.69526E+03  5.41547E+03  1.14403E+03
  9.79318E+03  7.81883E+03  2.03419E+03  1.07265E+04 -1.44689E+03  2.52791E+03 -7.92098E+03 -7.47585E+02
 -9.60944E+03 -8.44142E+03  1.74950E+03 -5.50593E+03  1.96777E+03 -7.33172E+03  5.72409E+03 -4.57749E+03
  1.18539E+03 -2.58827E+03 -1.06501E+03  3.41264E+03  2.74548E+03 -4.04218E+02  5.05604E+03 -2.60804E+03
  3.62624E+03 -1.78362E+02  1.00418E+04 -9.17904E+02  7.40177E+03  1.59813E+03  7.44736E+03  1.61840E+04
  3.40136E+03  1.33281E+04 -1.04033E+04  1.58541E+04 -9.80439E+03  2.04401E+03 -1.00724E+04 -3.48726E+03
 -3.04527E+03 -8.28275E+03 -2.92877E+02 -2.76586E+03  3.47468E+03 -2.07027E+03  2.76635E+03 -8.03682E+03
  4.75631E+03 -4.19411E+03 -4.59454E+02 -7.60736E+03  3.51130E+03 -1.17231E+03  3.21652E+03 -2.85789E+03
  7.05127E+03  2.12780E+03  1.51392E+03  1.15384E+04  3.54273E+03  2.01605E+03 -2.90212E+03  6.76503E+03
 -8.41210E+03  8.83901E+02 -5.72387E+03  8.39906E+02 -1.03171E+02 -2.19087E+03  7.23899E+03 -4.53502E+03
  6.45030E+03 -1.14656E+03  1.18364E+04 -4.61005E+01  5.46099E+03  5.20010E+03  1.78849E+03  7.96812E+03
 -8.04998E+02  8.23200E+03 -2.73851E+03  2.11015E+03 -3.23318E+03  1.28128E+03  1.37587E+02 -4.42944E+02
  3.54996E+03 -2.07549E+03 -3.15217E+03  5.46463E+02 -5.40162E+02  3.14387E+03 -7.42494E+03 -3.42649E+03
 -3.10954E+03 -4.28111E+03  3.62324E+03 -9.90575E+03 -5.22673E+02 -3.71855E+03  7.79053E+03 -3.34950E+03
  7.96984E+03  1.74255E+03  5.54732E+02  1.41191E+03  3.83019E+02  3.33605E+03 -1.06842E+03  2.62146E+03
 -1.09569E+04  2.55348E+03 -3.69679E+03 -4.78684E+02  5.03098E+02 -3.44745E+03 -8.50965E+02 -4.64141E+03
  9.98337E+03 -3.89513E+01  2.60948E+03 -3.87987E+02  1.73679E+03  6.37926E+02  6.57623E+03 -3.12107E+02
  9.51219E+02 -9.40853E+02  9.78542E+02  7.33228E+02  4.79110E+03  1.80252E+03  2.74792E+03 -1.31315E+02
 -6.29876E+02  3.64105E+03 -1.01186E+03  4.90960E+03 -5.53775E+03  5.48342E+02 -5.46624E+03 -4.62813E+01
 -9.03959E+02 -6.59745E+03  4.02987E+03 -6.66142E+03  3.57071E+03 -7.98301E+03  5.75797E+03 -8.44927E+02
  5.14184E+03  4.49525E+03 -1.44141E+03  3.05378E+03 -3.96564E+03  4.12056E+03 -3.03399E+03  4.06648E+03
  5.09156E+02 -6.29063E+03  8.54893E+02  1.40066E+03  4.89256E+03 -3.81213E+03  3.84890E+03  4.00556E+01
 -8.57934E+02 -1.13733E+03  2.44314E+03 -8.39758E+02 -2.86726E+03  3.28470E+03  7.53850E+03  6.82067E+01
 -6.54862E+02 -1.34190E+03  3.13954E+03  2.60082E+03  4.86153E+03  1.74713E+03  2.63171E+03  3.13405E+03
 -6.95181E+03  1.85228E+03  1.86008E+03 -6.44467E+02 -5.66195E+03 -4.67381E+03  1.14177E+03 -1.70929E+03
  1.19785E+02 -6.22886E+03  3.78043E+03 -1.19710E+03 -1.16276E+03  2.08603E+03 -6.27993E+02  1.17569E+03
 -2.02011E+03  1.43816E+03 -4.13933E+03 -2.41723E+03 -2.25404E+03 -3.77686E+03 -6.33276E+02  1.15189E+03
  4.83356E+02 -1.76607E+03  7.29448E+03  1.28877E+03 -3.92806E+02  3.67739E+03  2.91942E+03  8.75501E+01
  9.41099E+02  1.36966E+03  9.76977E+02  3.76308E+02  4.20618E+03 -2.27166E+03  4.15163E+03  3.46688E+03
  3.90644E+03  2.28325E+03  5.78323E+02  3.60566E+02  2.34018E+03 -1.35727E+03 -2.13925E+03  6.56044E+03
 -3.94955E+03 -1.67660E+03 -4.57543E+03 -8.79018E+02 -1.64103E+03 -1.02288E+03 -3.99940E+03  4.82976E+03
 -2.63195E+02 -7.26390E+02  7.05001E+03 -2.06784E+03  1.02994E+03  3.59688E+03  4.63794E+03  2.16906E+03
 -2.24378E+03 -1.79062E+03  3.38758E+03 -2.32019E+03  6.31771E+02  2.37190E+03 -7.51712E+03  3.64472E+03
 -2.38259E+02 -3.92912E+02 -3.21366E+03  2.19635E+02 -1.73857E+03  4.21529E+03 -2.13740E+03  1.28088E+01
  6.23639E+02 -2.89355E+03 -5.97617E+01 -1.19744E+03  2.58749E+03 -7.25286E+02  3.05518E+03 -2.45668E+03
  5.61821E+03 -9.51882E+03  4.74615E+03  4.65247E+03 -1.43980E+03  2.93090E+03  2.43940E+02  4.65632E+00
  1.84438E+02 -3.44359E+02  2.35135E+03 -1.71249E+03 -1.39729E+03 -2.07503E+03 -2.45050E+03  1.75186E+03
  3.19518E+03 -1.41775E+03 -7.50999E+03  2.64505E+03  3.63498E+03 -5.41976E+02  3.61256E+03  3.95099E+02
  3.63141E+03 -1.05408E+03 -5.25596E+03 -4.79305E+03  1.80883E+03  3.43001E+03  3.46564E+03  3.26875E+03
  7.85773E+02 -2.46694E+03 -4.45809E+02  2.68057E+03 -6.58980E+03  2.61047E+01 -5.63771E+03  2.42483E+03
 -2.27788E+03  1.04042E+02  2.45477E+03 -2.39468E+02 -7.86617E+02 -7.07406E+02 -1.09135E+03 -1.29076E+03
 -2.76708E+03  1.82891E+03  5.49984E+03 -1.30249E+03  7.02486E+02 -4.33497E+03 -1.99364E+03 -2.03055E+03
  3.84593E+03  1.98464E+03 -1.27482E+01  4.01564E+02 -1.39558E+03 -1.79547E+03 -1.06097E+02 -4.58361E+01
 -1.21365E+03  3.51246E+03 -4.06915E+03  6.00102E+02 -7.44817E+03 -2.73788E+02 -7.19307E+02 -2.33270E+03
 -1.28674E+03 -3.15052E+03 -1.78315E+03 -6.61960E+03  3.13648E+03 -1.68679E+03  3.23725E+03 -1.07038E+01
 -2.43774E+03  1.57237E+03 -4.26796E+02 -3.01829E+03 -5.01383E+03 -1.83838E+03 -1.92883E+03  2.41284E+03
 -4.36589E+03  1.34606E+02 -2.25486E+03 -1.59505E+03  2.70213E+03  5.63779E+02 -6.74671E+03  2.51878E+02
 -7.35734E+02 -5.12932E+02 -2.84344E+03  3.12307E+03  2.78697E+03  2.92911E+03  1.10232E+03 -1.17075E+02
  5.22928E+03 -9.33274E+02 -5.27757E+02  4.10059E+03 -1.85871E+03  1.60524E+02 -1.07695E+03  7.19773E+03
