 $NMID ID='MM_0lb_SNR50_18hz_g55_23.RAW', FMTDAT='(8E13.5)'
 TRAMP=1., VOLUME=1. $END
  3.09498E+05 -4.01380E+03  3.36190E+05  2.49900E+05  8.60203E+04  3.36833E+05 -1.31417E+05  2.51513E+05
 -1.89801E+05  8.00423E+04 -1.14106E+05 -3.03580E+04  2.85120E+03 -5.12154E+04  5.45017E+04  2.43570E+03
  3.15491E+04  5.55656E+04 -1.99955E+04  7.65145E+04 -6.55684E+04  6.54239E+04 -8.25356E+04  3.03931E+04
 -8.24507E+04 -1.05258E+04 -5.48422E+04 -5.21346E+04 -1.56327E+04 -6.81970E+04  2.80905E+04 -4.57135E+04
  3.89975E+04  1.42076E+03  1.94603E+04  4.92239E+04 -3.46907E+04  5.00582E+04 -6.61630E+04 -2.45834E+03
 -5.45406E+04 -5.99245E+04 -4.40893E+03 -7.49893E+04  3.81701E+04 -5.49666E+04  4.92696E+04 -1.80828E+04
  4.28599E+04  1.24987E+04  3.35808E+04  2.84984E+04  1.44850E+04  3.28877E+04 -1.07987E+03  2.91595E+04
 -2.30899E+04  8.81217E+03 -2.05169E+04 -4.00857E+03  6.34177E+03 -4.72290E+03  2.10768E+04  1.40131E+04
  3.18561E+03  3.01610E+04 -2.87963E+04  3.82533E+04 -6.17942E+04  7.55959E+03 -5.38538E+04 -4.25863E+04
 -9.60735E+03 -6.38014E+04  4.14396E+04 -4.58532E+04  5.86676E+04 -3.83928E+03  3.11069E+04  3.33737E+04
 -8.78277E+03  4.01114E+04 -3.18625E+04  1.77384E+04 -3.51672E+04 -4.73376E+03 -1.26776E+04 -6.71922E+03
 -1.03901E+04 -1.36065E+04  7.05512E+02 -1.65678E+04  1.18464E+04 -2.20972E+04  1.59203E+04 -1.13002E+04
  1.25637E+04  3.37069E+03 -6.77171E+03  1.16753E+04 -1.95540E+04 -4.72633E+02 -8.49158E+03 -3.13042E+04
  2.07595E+04 -4.01939E+04  4.61458E+04 -1.94475E+04  4.26802E+04  1.85276E+04  1.25898E+04  4.13549E+04
 -2.07759E+04  3.11774E+04 -2.91402E+04 -1.77665E+03 -1.03182E+04 -2.97227E+04  2.02780E+04 -3.54134E+04
  3.49104E+04 -6.76967E+03  3.76976E+04  2.51054E+04  1.12949E+04  4.52014E+04 -7.99351E+03  4.61628E+04
 -2.80024E+04  3.33404E+04 -3.91350E+04  5.93215E+03 -3.82558E+04 -1.54164E+04 -2.45094E+04 -3.38794E+04
  4.43536E+03 -3.47914E+04  2.91784E+04 -1.48212E+04  2.99485E+04  9.53138E+03  7.32217E+03  1.67402E+04
 -1.52885E+04  5.72136E+03 -7.53936E+03 -5.97677E+03  3.60329E+03 -1.29631E+04  1.80255E+04  4.16421E+03
  8.41098E+03  2.04789E+04 -8.75829E+03  2.55887E+04 -2.13153E+04  9.98185E+03 -2.73809E+04 -7.04936E+03
 -1.73927E+04 -1.78916E+04 -3.79363E+03 -2.13772E+04  9.89826E+02 -1.48906E+04  1.46018E+04 -1.96105E+04
  2.58447E+04 -1.15958E+04  2.98901E+04 -2.61576E+03  2.16445E+04  1.69466E+04  1.50361E+03  3.35671E+04
 -1.80341E+04  3.10028E+04 -2.81492E+04  8.31979E+03 -1.73718E+04 -1.10983E+04 -6.21677E+03 -1.22272E+04
  3.56229E+03 -5.40409E+03 -4.41054E+03  1.65390E+03 -1.54516E+04  5.72969E+03 -1.75383E+04 -5.06977E+03
 -1.05597E+04 -1.92773E+04  6.97607E+03 -2.08073E+04  1.44757E+04 -1.52387E+04  1.44648E+04 -2.39778E+03
  1.07475E+04  7.65630E+03 -2.29518E+03  1.83098E+04 -1.10767E+04  1.13446E+04 -1.13104E+04 -3.50634E+03
 -1.25820E+04 -1.70535E+04  1.13858E+02 -2.50137E+04  7.74351E+03 -1.44616E+04  1.85434E+04 -7.50574E+03
  1.83206E+04  1.34659E+03  1.23346E+04  5.56004E+03  4.64576E+03 -1.52184E+03  1.28042E+04 -1.14908E+03
  1.38433E+04  4.02669E+03  1.69480E+04  1.30582E+04  5.24936E+03  2.32607E+04 -6.79888E+03  3.15130E+04
 -1.77903E+04  2.36564E+04 -2.83033E+04  3.96876E+03 -3.20359E+04 -4.91398E+03 -2.53425E+04 -1.33021E+04
 -1.18464E+04 -2.53832E+04  6.58285E+03 -1.87084E+04  1.48426E+04 -1.09311E+04  1.48427E+04  7.39019E+03
  7.84287E+03  1.17260E+04 -1.08519E+04  1.46821E+04 -1.29744E+04  1.52037E+03 -1.13716E+04 -1.37446E+04
  1.95650E+02 -9.78518E+03  6.97768E+03 -5.26588E+03  9.53184E+03  1.34022E+03 -8.57637E+01 -2.16298E+02
 -7.50174E+02  2.83021E+03 -3.61835E+03 -1.53303E+03  1.71049E+03 -7.37155E+03  7.79624E+03 -7.83454E+03
  2.20310E+04 -1.79975E+03  1.30475E+04  1.98767E+03  1.26564E+04  1.21701E+04  4.04053E+03  1.79704E+04
 -2.62467E+03  1.78550E+04 -7.69921E+03  1.03119E+04 -1.55219E+04  1.57804E+03 -8.91058E+03 -2.37509E+03
 -5.68247E+03 -7.72617E+03 -1.10944E+03  3.33699E+03 -3.48891E+03  7.80795E+03 -4.47436E+03  5.68582E+03
 -1.01302E+04 -3.41494E+03 -7.11983E+03 -5.93266E+03 -2.32901E+03 -1.23686E+04  7.59484E+03 -7.98738E+03
  7.13763E+03 -7.56816E+03  7.35769E+03  1.19600E+03  3.65124E+03  8.00666E+03 -6.10397E+03 -1.30058E+03
 -5.45622E+03 -3.48003E+03 -7.06624E+03 -1.27600E+04  7.40838E+02 -1.09392E+04  1.29589E+04 -4.00813E+03
  9.52365E+03 -1.69456E+02  7.75775E+03  3.62847E+03 -8.14033E+02  1.17822E+04 -6.82943E+03  7.21813E+03
 -6.21516E+03  3.93486E+03 -6.82179E+03  1.76951E+03  2.78400E+02 -2.41041E+02  6.73521E+03  2.12647E+03
  3.95531E+03 -1.51039E+03  3.61382E+02  1.03371E+04 -6.58832E+03  1.14880E+04 -4.96798E+03 -4.03667E+03
 -6.83129E+03 -7.57917E+03  1.99125E+03 -6.21837E+03  2.42190E+03 -3.22612E+03  4.75092E+03 -3.07230E+02
  1.88650E+03  6.15341E+03 -6.01160E+03  5.15823E+03 -6.39239E+03  1.81176E+03 -5.64650E+03 -1.90882E+03
 -1.39780E+03 -8.95211E+03  8.27322E+01 -1.16905E+04  7.67895E+03 -8.46662E+03  8.07995E+03  1.51135E+03
  4.19684E+03  5.09458E+03  3.45895E+02  8.73395E+03 -4.89265E+03  5.27801E+03 -1.05319E+04  6.13222E+03
 -1.09997E+04 -1.02155E+04 -2.46930E+03 -1.13326E+04  2.28475E+03 -2.21785E+03  4.85517E+03 -3.46295E+03
 -7.91291E+02 -1.51208E+02 -3.17849E+03  2.24073E+02 -1.69187E+03 -2.53568E+03  7.39278E+01 -1.43064E+03
  3.30120E+03  1.29131E+01  3.06414E+03  1.39388E+03  1.60463E+03  6.54126E+03  9.16103E+03  2.94715E+03
 -5.62241E+02  1.33301E+04 -5.67908E+03  9.66546E+03 -1.38439E+04  1.77229E+03 -8.27949E+03 -3.53649E+03
 -4.36617E+03 -5.74307E+03 -5.21106E+02 -1.48399E+03  2.76731E+03 -5.02012E+03  4.16549E+03 -2.68591E+03
  1.65151E+03 -3.35146E+03  2.05864E+03 -1.01341E+03  6.30800E+03  2.75555E+03 -2.35027E+03 -3.81759E+03
  4.70279E+03  3.96596E+03  2.83549E+03  7.41806E+03 -3.95027E+03  1.30088E+03 -4.56064E+03  9.18733E+02
 -7.44244E+03 -1.16099E+03 -2.31339E+03 -7.18505E+03 -2.67785E+03 -5.50863E+03  3.50994E+03 -6.39409E+03
  1.22848E+04 -4.77190E+03  8.42842E+03  2.17640E+03  1.31042E+03  4.32953E+03  5.56276E+03  5.07342E+03
  8.83386E+02  7.79979E+03 -9.38983E+03  1.07539E+03 -3.46812E+03  2.16443E+03 -3.64877E+03  6.04781E+02
  2.99535E+03  1.57084E+03  3.30867E+03  5.22292E+03 -1.43853E+03  4.41209E+03 -6.25978E+03  2.59278E+03
  3.42513E+02 -2.39068E+03  2.69927E+03 -3.81016E+03  6.99736E+03 -3.76737E+03  9.81422E+02 -2.99556E+03
  6.46281E+03  7.36496E+03  4.43373E+03  7.38228E+03 -1.57506E+03  1.94372E+03 -1.99238E+03  7.15868E+03
 -9.58120E+03 -1.76162E+01 -3.56146E+03 -9.67007E+02  5.76777E+03 -6.95889E+03 -9.01105E+02 -5.76158E+03
  6.49277E+03 -1.74633E+03  4.12518E+03 -2.05936E+03 -7.73037E+02  3.57906E+03 -4.49552E+02  1.68653E+03
  6.88060E+03  2.26852E+03 -1.15031E+02 -8.13731E+02  3.31306E+03  4.27958E+03  1.51372E+02  4.94125E+02
  2.08665E+03  3.73838E+03 -6.52504E+02  8.54114E+03 -4.27519E+03 -1.79574E+03 -8.18083E+03  1.40528E+03
 -5.13258E+03 -2.79316E+03  9.48635E+02 -4.63553E+03  3.25288E+02 -4.84618E+03  5.42268E+02 -1.26390E+03
  1.18634E+03  2.52918E+03 -3.13631E+02  2.41906E+03 -2.18340E+02 -4.64137E+02 -2.00349E+03 -2.39591E+01
  2.18517E+03 -3.39445E+03  1.49167E+03 -2.40676E+03 -9.65502E+02 -1.15868E+03 -8.35802E+02  9.20818E+02
 -4.97887E+03 -5.10602E+02 -5.82736E+02 -2.46222E+03 -1.04351E+03  2.48573E+03  3.88901E+02  3.65275E+02
 -3.62478E+03  3.87902E+03  3.87595E+03  2.32835E+03 -5.69429E+02  1.24046E+03  4.12677E+00  8.07115E+02
  7.24254E+02 -1.26342E+03 -2.26862E+03 -2.65781E+03  1.38470E+03 -2.35415E+03 -2.32862E+03 -1.21358E+03
 -2.96915E+03 -1.15975E+03  3.70587E+02 -3.38668E+03 -1.06281E+03  1.96091E+03 -3.71356E+03 -4.46564E+02
  4.49157E+03 -2.33146E+03  2.57064E+03 -4.81578E+03 -4.37134E+03  1.10528E+03  2.36055E+03 -7.25879E+02
  1.83383E+03 -4.85584E+03 -1.88600E+03 -2.23577E+03  7.23853E+03 -1.79652E+03  1.94284E+02 -8.07296E+02
  2.58864E+03  2.59386E+03 -3.88811E+03 -8.73801E+01  6.35764E+03 -1.24099E+02  7.55705E+01  3.48815E+03
 -3.17085E+02  2.46274E+03  3.43111E+03  2.15695E+03  6.91450E+02  2.92084E+03  5.04221E+02 -9.84738E+02
 -1.96426E+03 -1.03356E+02 -2.21762E+03 -2.10856E+03  1.32358E+02 -2.59582E+03  8.22697E+02 -1.53102E+03
  1.06131E+02  4.16670E+03  1.73614E+03  2.67362E+03 -2.49739E+03 -2.02015E+03  4.59375E+03  1.00132E+03
 -1.27495E+03 -5.70259E+01  1.10465E+03 -1.22995E+03  2.76669E+02  3.12062E+03 -8.80317E+02  1.43778E+03
 -1.05105E+02 -6.65922E+02  1.89506E+03  1.61504E+03 -2.94938E+03  2.42525E+03 -1.43678E+03  3.58552E+03
 -4.50204E+03 -3.41987E+03  5.50601E+01 -1.14260E+03  4.42837E+03  5.01585E+02  2.15061E+03  2.45953E+03
  2.92339E+03 -2.16422E+03  2.56384E+01 -1.95541E+03  1.46625E+03 -2.64008E+02 -5.78471E+03 -2.49729E+03
 -1.41070E+03 -3.90741E+02  2.68874E+03 -2.98070E+03 -2.62541E+02 -2.97315E+03  1.08629E+03 -2.95532E+03
  1.61743E+03  1.38122E+03  9.35798E+02 -2.38400E+02  1.23888E+03  1.59324E+03  3.05249E+03 -3.55874E+02
  2.35693E+03 -2.05522E+03 -1.59660E+03 -4.82974E+03 -1.52037E+03 -3.07828E+03 -5.98926E+02  6.34505E+01
 -2.14333E+03  1.15790E+03 -3.07124E+03  3.90223E+03  1.31478E+03  7.63251E+02 -1.07255E+03  1.42955E+03
  3.70001E+02  4.99948E+02  2.98584E+02 -1.85043E+03  1.53853E+03  2.44208E+03 -1.82374E+03 -8.86650E+02
  5.27961E+02  1.64119E+03  2.50820E+03  8.04234E+02  6.64747E+02 -3.59415E+03 -2.08288E+03  1.87051E+00
 -7.14863E+02  2.48592E+03  4.09646E+02  7.34782E+02 -2.06472E+03  4.84543E+03  5.16475E+02 -1.48750E+03
  1.65299E+03 -9.50538E+02 -8.28420E+02 -3.15958E+03 -2.27166E+02  8.92103E+02 -1.56607E+03 -1.77183E+03
  3.41079E+03 -4.39894E+03  4.07403E+03  2.36899E+03  4.65513E+03 -1.73141E+02 -1.33244E+03 -4.12169E+03
  1.62880E+03  5.22911E+03 -1.26671E+03  3.18837E+03 -1.67294E+03  1.11145E+03 -5.09974E+03  2.52326E+03
 -7.87761E+02 -2.00893E+03 -6.35834E+02  5.38225E+03 -3.21507E+03 -4.51921E+02 -1.21094E+03  1.82519E+03
 -4.74973E+03 -7.48523E+01 -1.24694E+03 -9.35892E+02 -9.60261E+02 -1.01067E+03  1.19237E+03 -3.68849E+03
  3.93614E+03  1.75029E+03  4.43194E+03 -5.67309E+02 -3.30821E+03  2.93462E+03  2.61693E+03  6.42955E+02
