 $NMID ID='MM_0lb_SNR50_16hz_g55_83.RAW', FMTDAT='(8E13.5)'
 TRAMP=1., VOLUME=1. $END
  3.03909E+05  3.22881E+03  3.37989E+05  2.48427E+05  8.94427E+04  3.38194E+05 -1.34714E+05  2.47310E+05
 -1.93406E+05  8.06448E+04 -1.10321E+05 -3.59545E+04  6.68269E+02 -4.82217E+04  5.24315E+04 -3.38231E+03
  3.97180E+04  5.42090E+04 -1.55114E+04  7.84410E+04 -5.71842E+04  6.27921E+04 -8.39630E+04  3.29189E+04
 -8.34288E+04 -9.73901E+03 -5.61331E+04 -5.06126E+04 -1.43939E+04 -6.92133E+04  2.58202E+04 -4.97505E+04
  3.87826E+04  6.17187E+03  1.32579E+04  4.65206E+04 -3.39995E+04  4.80892E+04 -6.50792E+04 -6.23452E+02
 -5.10581E+04 -5.44908E+04 -8.12382E+03 -7.44504E+04  3.71774E+04 -5.34416E+04  4.87377E+04 -2.08591E+04
  4.49260E+04  1.19014E+04  3.18067E+04  2.08154E+04  1.91599E+04  3.00524E+04 -6.92537E+03  2.78235E+04
 -2.32652E+04  8.97015E+03 -1.74692E+04 -7.86605E+03  3.00759E+03 -1.02960E+04  2.69805E+04  5.73538E+03
  2.14377E+03  3.39438E+04 -3.24241E+04  3.47263E+04 -6.32898E+04  1.03484E+03 -5.90486E+04 -4.34134E+04
 -1.35551E+04 -6.33826E+04  4.02453E+04 -5.02207E+04  5.76749E+04 -2.51385E+03  3.11265E+04  3.03325E+04
 -4.83231E+03  3.37674E+04 -2.89606E+04  1.37660E+04 -3.21513E+04 -5.08721E+03 -1.60233E+04 -1.36064E+04
 -1.10487E+04 -1.17597E+04  2.81822E+03 -1.74185E+04  1.00036E+04 -1.56155E+04  1.68031E+04 -1.27320E+04
  6.55150E+03  5.74014E+03 -8.26070E+03  7.73784E+03 -1.98257E+04 -1.08975E+03 -1.20569E+04 -3.36972E+04
  1.72566E+04 -3.76462E+04  4.91369E+04 -2.21671E+04  4.28537E+04  1.98908E+04  1.38114E+04  4.36374E+04
 -1.66985E+04  3.28546E+04 -2.44413E+04  2.45189E+03 -8.53813E+03 -2.74709E+04  2.29682E+04 -3.76434E+04
  4.20164E+04 -1.37170E+04  3.46556E+04  2.56521E+04  1.73647E+04  4.93115E+04 -1.01403E+04  4.59064E+04
 -3.42718E+04  3.16616E+04 -4.42630E+04  8.90201E+03 -3.98312E+04 -2.01634E+04 -2.61317E+04 -3.54187E+04
  9.63877E+03 -3.66213E+04  3.28791E+04 -1.46574E+04  2.95180E+04  1.37472E+04  1.97690E+03  2.19198E+04
 -1.12540E+04  6.77173E+03 -1.06260E+04 -7.22718E+03  6.38830E+02 -1.16377E+04  1.23611E+04  7.54805E+03
  1.01035E+04  1.89280E+04 -6.54337E+03  2.97440E+04 -2.95376E+04  1.07770E+04 -2.96034E+04 -5.35558E+03
 -1.91545E+04 -1.72334E+04 -1.32249E+04 -1.88343E+04  4.46384E+03 -1.63042E+04  1.35103E+04 -1.45374E+04
  2.42298E+04 -1.51577E+04  3.15573E+04  1.06630E+03  1.94480E+04  2.29255E+04  3.90742E+03  3.77017E+04
 -1.99978E+04  3.06480E+04 -2.42295E+04  1.08221E+04 -1.99290E+04 -1.16819E+04 -4.68841E+03 -1.20664E+04
  7.38978E+02 -1.75980E+03 -2.34509E+03  6.29253E+03 -1.51619E+04  2.22932E+03 -1.40749E+04 -9.87350E+03
 -1.17067E+04 -1.87281E+04 -2.18431E+03 -2.37296E+04  1.39066E+04 -1.48703E+04  1.47006E+04  7.75313E+02
  1.11754E+04  1.24193E+04 -1.71474E+03  2.16489E+04 -1.30755E+04  1.14628E+04 -1.42953E+04 -2.75789E+03
 -1.32951E+04 -1.58512E+04 -2.03365E+03 -1.57502E+04  9.50293E+03 -1.66904E+04  2.19094E+04 -8.25639E+03
  1.26719E+04 -4.38384E+03  1.28553E+04  2.04536E+03  5.36228E+03  1.23552E+03  9.32372E+03 -1.97266E+03
  1.11003E+04  5.56870E+03  1.75857E+04  1.57492E+04  1.02938E+04  2.53162E+04 -4.42269E+02  2.86428E+04
 -2.08900E+04  2.40226E+04 -2.79873E+04  1.83311E+04 -3.08679E+04 -2.14267E+03 -2.35305E+04 -1.85467E+04
 -1.26124E+04 -2.26584E+04  9.25367E+03 -2.25186E+04  1.72382E+04 -1.12612E+04  1.58016E+04  9.89944E+03
  4.30826E+03  1.00297E+04 -1.33138E+04  1.37947E+04 -1.80687E+04  2.87027E+03 -9.11260E+03 -9.07332E+03
 -3.84616E+03 -1.87172E+04  1.05068E+04 -1.57134E+04  9.63889E+03 -5.43538E+02  1.57339E+03  5.72588E+03
 -6.68116E+03  3.50344E+03 -9.47472E+03 -1.33758E+03  1.13067E+03 -1.12245E+04  7.75588E+03 -1.41942E+04
  1.62947E+04 -1.96196E+03  8.48105E+03  3.40142E+03  1.47892E+04  1.46605E+04  1.48019E+03  1.43937E+04
  3.81134E+02  1.86542E+04 -1.46446E+04  1.38779E+04 -1.29605E+04  3.58578E+03 -8.77289E+03 -1.71306E+03
 -4.67532E+03 -4.18710E+03 -2.10490E+03  1.30848E+03 -9.77431E+02  4.20705E+03 -5.44906E+03  3.50280E+03
 -7.84241E+03  1.62273E+03 -1.17027E+04 -5.41205E+03 -3.24883E+03 -1.13710E+04  2.69674E+03 -1.36389E+04
  8.28034E+03 -4.59753E+03  7.63411E+03  4.61042E+03  1.88641E+02  8.25708E+03 -7.39065E+03 -2.91890E+03
 -3.14262E+03 -2.31824E+03 -5.09955E+03 -1.12167E+04  5.50255E+03 -1.23512E+04  9.01015E+03 -4.61211E+03
  1.40606E+04  2.81639E+03  6.16973E+03  8.43272E+03  3.28460E+03  9.57180E+03 -6.61298E+03  1.27014E+04
 -5.29597E+03 -2.16794E+03 -6.53540E+03 -1.25847E+03  2.52003E+03 -3.07751E+03  3.39286E+03 -5.73244E+03
  3.94475E+03  2.72285E+03  4.16033E+03  1.15281E+04 -9.49030E+03  7.10792E+03 -1.47896E+04  3.40967E+03
 -4.27513E+03 -1.27208E+03  4.33085E+03 -8.67534E+03  2.06552E+03 -4.79910E+03  3.65851E+03  1.05201E+03
  5.39296E+03  7.61993E+03 -7.38939E+02  7.40685E+03 -8.13780E+03  5.18433E+03 -3.11793E+03 -4.15811E+03
 -5.35036E+03 -8.11497E+03  2.68283E+03 -1.24563E+04  1.42094E+04 -6.61273E+03  9.81455E+03  2.70331E+03
  4.36465E+03  9.16766E+03  1.95881E+02  1.02330E+04 -2.62169E+03  3.47934E+03 -1.32359E+04  3.77324E+03
 -7.77391E+03 -3.87782E+03  2.43945E+03 -9.18977E+03 -2.22775E+03 -4.15732E+03  5.42691E+03 -4.21739E+03
  1.36161E+03 -5.04438E+02 -2.77055E+03 -4.13770E+02  2.70753E+03 -1.91261E+02 -4.03657E+03 -3.06406E+03
  2.51058E+03 -2.01703E+03  5.47095E+03 -9.85760E+02  7.15493E+03  6.58693E+03  6.74959E+03  1.29237E+04
 -2.41886E+03  1.10534E+04 -1.17126E+04  1.01861E+04 -1.80801E+04  6.37025E+02 -1.10329E+04 -5.95621E+03
 -7.45481E+03 -9.28649E+03 -7.17516E+02 -9.74283E+03  5.81241E+03 -4.17837E+03  2.77849E+03 -4.97069E+03
  1.93281E+03  4.17710E+02  8.95665E+02 -6.08958E+03  1.15396E+04 -4.52603E+02  5.96403E+03 -3.16294E+02
  7.81919E+03  2.77506E+03  4.88051E+03  5.28494E+03 -2.02075E+03  3.38057E+03 -5.15492E+03  9.71596E+02
 -5.96443E+03 -4.01994E+03  3.61811E+03 -4.07183E+03  5.82799E+02 -7.92826E+03  6.65394E+03 -9.03276E+03
  5.59112E+03 -6.88505E+03  1.40116E+04 -3.09831E+03  1.04197E+04  1.69432E+03 -8.72102E+02  9.00856E+03
 -6.95572E+03  1.01022E+04 -4.34043E+03  4.85342E+02 -1.12546E+03  7.42813E+02 -3.93995E+03 -3.24796E+03
  1.30730E+03 -1.55240E+02 -2.08650E+03  1.33011E+03 -1.40681E+03  1.43002E+03 -7.74350E+03 -1.38079E+03
 -7.71536E+03 -4.29728E+03  4.87180E+03 -8.09802E+03 -1.96405E+03 -8.11746E+03  5.36757E+03  6.16697E+02
  7.27238E+03  2.49263E+03  9.98857E+01  4.73614E+03 -3.09265E+02  2.94675E+03  1.22657E+03  7.08380E+03
 -6.54525E+03  1.28491E+02 -4.31726E+03 -1.39727E+02  3.66565E+03 -4.37559E+03  3.01722E+03 -5.42918E+03
  3.26540E+02  1.35673E+03  4.62208E+03 -2.54246E+03 -8.06742E+02  5.12658E+03  1.57716E+03  3.21481E+03
 -7.10479E+00 -3.30615E+02  4.82155E+03  2.04015E+03  1.38850E+03  7.51409E+03  3.18645E+03  1.90179E+03
  9.82160E+02  4.01708E+03 -6.40360E+03  8.38517E+03 -3.75321E+03  1.07937E+04 -7.03987E+03 -6.26904E+03
 -3.63778E+03 -5.96938E+03  1.92222E+03 -1.04427E+04  3.84189E+03  1.29106E+03  6.28749E+03 -7.82777E+01
  3.07109E+03 -1.51125E+03  3.69533E+03  1.03508E+04 -4.47737E+03  6.30303E+03 -4.60601E+03 -1.42161E+03
 -2.77470E+03 -1.25386E+03 -6.28415E+02 -1.71088E+03  1.01596E+02 -6.15314E+03  4.15719E+02 -8.24788E+02
  5.30859E+03 -2.74254E+03  1.93895E+03  2.02634E+03  4.19764E+02  4.44744E+03  1.19146E+03  5.61192E+01
  4.64761E+03  1.68293E+03  6.64108E+03  3.62234E+03  7.58920E+02  6.23488E+03 -1.94780E+03  6.16453E+03
 -5.15727E+03  9.51745E+01 -5.30237E+03 -3.51611E+02 -3.55509E+03 -8.02260E+02 -3.14403E+03 -2.57055E+03
 -2.81346E+03 -2.54026E+03 -1.92377E+03 -2.31862E+02  3.10769E+03  8.88980E+02 -1.96256E+03  3.32085E+03
 -6.66055E+03 -9.84927E+02 -1.19810E+03 -2.05527E+03 -1.55201E+03 -2.93677E+03  3.48840E+03 -3.87860E+03
  5.66762E+03 -2.92145E+03  7.23683E+02  3.87055E+03  2.32241E+03 -4.16263E+02  2.01667E+03  3.98032E+03
 -1.61374E+03  1.26136E+03 -4.59178E+03  3.37109E+03 -1.32121E+03 -1.19810E+02  3.11950E+03  7.49883E+02
  5.91946E+03  2.73713E+03  6.26975E+03  3.48929E+03 -1.43404E+03  3.69447E+03  1.09727E+03  4.71681E+03
  2.12511E+02 -1.86242E+03 -5.54742E+03 -2.47420E+03 -5.24285E+03 -3.24025E+03  7.35874E+03 -9.46241E+02
  2.85314E+03  6.76958E+02  3.06552E+03 -4.20519E+01 -3.10426E+01  1.63533E+03  3.82505E+03  1.09149E+03
  1.63644E+03  1.60633E+03  1.13061E+03  1.01880E+03 -1.40496E+03 -3.47618E+03 -1.39221E+03  1.52627E+03
  3.28496E+03  1.25545E+03 -1.66114E+03  6.98849E+01  2.07117E+03 -4.07521E+03 -6.70434E+03 -4.71603E+03
 -5.20596E+03 -6.67320E+03  1.36970E+03 -2.46995E+03  2.64769E+03  1.59946E+03  6.38940E+03 -3.89483E+03
  4.48139E+03  5.53313E+03 -1.26279E+03  7.34312E+02 -1.74635E+03  5.53690E+02  3.61259E+03  5.52089E+03
 -4.09623E+03 -3.14186E+02  3.49978E+02  5.75766E+02 -2.86443E+03  2.93286E+03  2.98033E+03  3.16826E+03
  2.88263E+02  3.50837E+03  3.73089E+03  8.61613E+02 -1.20170E+03  1.34107E+03  1.90582E+03 -3.44929E+03
  1.43146E+02 -3.57903E+03  1.92053E+03 -8.80227E+02  6.06450E+03 -3.25192E+02 -3.11105E+03  3.95166E+03
 -1.13007E+03  4.78974E+03 -1.11121E+03  2.42483E+03 -3.43411E+03 -1.03660E+03 -1.64815E+03 -4.66691E+03
 -3.02349E+02 -3.08054E+03  1.53304E+02  1.30075E+02 -7.77521E+02 -2.92104E+02 -1.66891E+03  1.76548E+03
  7.51003E+01  3.39809E+02 -8.81767E+02  9.55659E+02  1.55041E+03  7.82706E+02 -1.26573E+03  1.43030E+03
 -1.09883E+02  5.71448E+02  3.57012E+03 -1.01128E+03  1.77576E+03 -1.19544E+03  8.25504E+02  3.03671E+03
 -2.88192E+03  4.68777E+02 -2.19985E+03  9.97607E+02  1.30737E+03 -8.66427E+02  4.39841E+03 -1.76610E+03
  3.60807E+03 -4.91644E+02  1.18790E+03  5.02460E+02 -1.27377E+03  4.98172E+03  7.59852E+02  1.03771E+03
  1.49621E+03  1.12008E+03 -2.44386E+03 -2.06229E+03 -4.73743E+02 -2.98995E+03 -3.58317E+03  1.30692E+03
 -3.04550E+03 -1.01778E+03 -2.19806E+03 -2.33893E+03 -2.50929E+03 -1.00834E+02  1.70372E+03  2.33779E+03
 -1.00828E+03  3.86913E+03  1.27845E+02 -5.13060E+03 -3.57279E+03 -2.26965E+03  1.17677E+03 -1.42162E+03
  5.79177E+03  6.87347E+03  4.18804E+02 -5.11574E+02  2.99964E+03 -1.82481E+03 -1.74685E+03 -2.52181E+03
