 $NMID ID='MM_0lb_SNR50_14hz_g60_58.RAW', FMTDAT='(8E13.5)'
 TRAMP=1., VOLUME=1. $END
  3.08337E+05  1.52363E+03  3.39412E+05  2.48721E+05  8.05057E+04  3.39551E+05 -1.31627E+05  2.50067E+05
 -1.89676E+05  8.38630E+04 -1.13792E+05 -3.60585E+04  2.98423E+03 -4.57199E+04  5.40781E+04 -2.27367E+03
  4.05134E+04  5.51799E+04 -1.67809E+04  7.92128E+04 -6.60507E+04  6.02965E+04 -8.66800E+04  3.24639E+04
 -8.18967E+04 -1.15319E+04 -5.88431E+04 -4.66741E+04 -1.59933E+04 -7.06344E+04  2.61703E+04 -4.89332E+04
  3.75048E+04  3.14724E+03  1.52471E+04  5.08357E+04 -3.83751E+04  4.61919E+04 -6.80221E+04  3.33602E+02
 -5.56601E+04 -5.85108E+04 -1.16382E+04 -7.94781E+04  3.26455E+04 -5.62881E+04  4.52487E+04 -2.17908E+04
  4.07858E+04  1.23194E+04  3.21682E+04  2.07109E+04  1.50549E+04  2.72988E+04 -9.03421E+03  2.39833E+04
 -2.17163E+04  1.33017E+04 -1.83673E+04 -6.14773E+03  4.16421E+03 -4.17308E+03  2.52646E+04  1.11164E+04
  7.33291E+03  3.18105E+04 -3.60954E+04  4.03001E+04 -7.13327E+04  7.31259E+02 -5.63976E+04 -3.66355E+04
 -8.05843E+03 -6.32076E+04  3.48727E+04 -4.41054E+04  5.97650E+04 -4.49111E+03  3.31924E+04  3.34109E+04
 -4.86543E+03  3.68092E+04 -3.02702E+04  1.61078E+04 -3.47515E+04 -7.26047E+03 -1.86662E+04 -1.53592E+04
 -8.48898E+03 -1.10011E+04  5.90307E+02 -1.98105E+04  5.72044E+03 -2.30876E+04  1.64564E+04 -1.57676E+04
  1.09619E+04  3.56440E+03 -1.19445E+04  9.91915E+03 -2.36185E+04 -6.78436E+03 -9.63165E+03 -3.48211E+04
  2.57972E+04 -4.75921E+04  4.70338E+04 -2.37487E+04  4.55855E+04  1.73198E+04  1.77160E+04  4.34591E+04
 -1.69060E+04  3.91494E+04 -3.25215E+04  2.48969E+03 -1.25782E+04 -3.01736E+04  2.30953E+04 -3.61442E+04
  4.04211E+04 -1.09291E+04  3.60979E+04  2.13824E+04  1.79325E+04  4.61565E+04 -3.38816E+03  4.99422E+04
 -3.41218E+04  3.59704E+04 -4.05072E+04  9.97316E+03 -4.25956E+04 -1.66166E+04 -2.12694E+04 -3.90835E+04
  3.71098E+03 -3.79056E+04  3.13010E+04 -1.89641E+04  2.96219E+04  1.06405E+04  7.98607E+03  1.99678E+04
 -1.68727E+04  7.19662E+03 -7.72552E+03 -7.90537E+03  4.93256E+03 -1.03486E+04  1.57274E+04  7.20255E+03
  1.16385E+04  1.60768E+04 -8.37661E+03  2.93151E+04 -2.64039E+04  1.25569E+04 -3.11974E+04 -2.75680E+03
 -2.15575E+04 -1.47131E+04 -6.75916E+03 -1.74174E+04  6.13618E+03 -2.08300E+04  1.51566E+04 -2.35085E+04
  2.55404E+04 -1.65803E+04  3.32334E+04  7.39643E+03  2.14682E+04  2.19820E+04 -1.02246E+03  2.91732E+04
 -1.40527E+04  2.95671E+04 -2.40044E+04  1.51722E+04 -2.07188E+04 -1.47328E+04 -7.87303E+02 -2.08745E+04
 -3.89643E+03 -3.99505E+03 -3.70715E+03  8.78432E+03 -1.60097E+04  3.40338E+02 -1.88175E+04 -8.17359E+03
 -1.00106E+04 -1.80227E+04  8.25604E+03 -2.57060E+04  1.92924E+04 -2.04367E+04  2.03151E+04 -2.77450E+03
  1.12528E+04  1.46511E+04  2.51243E+03  1.65104E+04 -1.76051E+04  1.26602E+04 -1.74475E+04 -6.14581E+03
 -1.72532E+04 -2.09826E+04 -2.88320E+03 -2.55666E+04  1.11663E+04 -1.94223E+04  1.94586E+04 -1.48105E+04
  1.73725E+04  9.87133E+02  1.27532E+04  3.02072E+03  5.62144E+03  4.31010E+01  5.17597E+03 -8.00778E+02
  1.07351E+04  8.05337E+02  2.07684E+04  1.22730E+04  1.36811E+04  3.42995E+04 -2.67383E+03  3.53913E+04
 -1.71732E+04  2.95105E+04 -3.27470E+04  1.49055E+04 -3.18068E+04 -2.02305E+03 -3.31458E+04 -2.04322E+04
 -1.07048E+04 -3.34991E+04  4.36861E+03 -2.62463E+04  2.03322E+04 -1.35170E+04  2.58826E+04  9.52550E+03
  5.40062E+03  1.57755E+04 -4.78360E+03  1.40401E+04 -1.99194E+04  3.50971E+03 -9.56741E+03 -1.35245E+04
 -3.99172E+03 -1.54209E+04  1.13742E+04 -8.29022E+03  1.12443E+04  3.13704E+03  3.88735E+03  1.03147E+04
 -5.90448E+03  8.46310E+02 -4.94324E+03 -8.65893E+03  2.54067E+03 -1.12389E+04  1.10876E+04 -1.49163E+04
  1.18942E+04 -9.03350E+03  2.17380E+04  4.46285E+02  2.01624E+04  1.78818E+04  9.46402E+03  1.79560E+04
 -5.62522E+03  2.73147E+04 -1.10956E+04  1.27452E+04 -1.58097E+04  1.89245E+03 -8.58048E+03 -9.04070E+02
 -4.39308E+03 -1.16217E+04 -3.32664E+03 -1.78846E+03  2.15100E+02  6.25324E+02 -4.22275E+03  4.34327E+03
 -9.50938E+03  8.75363E+02 -1.49825E+04 -8.52726E+03 -3.29876E+03 -1.44751E+04  6.28340E+03 -1.16647E+04
  1.05565E+04 -9.73461E+03 -5.26224E+02 -1.58904E+03  6.43335E+03  4.34257E+03 -2.33111E+03  2.03598E+03
 -7.25126E+03 -7.26714E+03 -5.45524E+02 -1.07907E+04  6.45832E+03 -9.54650E+03  1.46868E+04  1.55962E+02
  1.24742E+04 -4.87173E+01  1.68655E+04  1.54868E+04  4.90974E+03  1.43590E+04 -2.35891E+03  1.39581E+04
 -1.23825E+04  4.92090E+03 -6.67580E+02 -2.47330E+03 -1.29972E+03 -4.75416E+03  4.99353E+03 -3.21109E+03
  5.11461E+03  5.60540E+03  4.00315E+02  6.26968E+03 -3.33512E+03  1.34329E+04 -1.06784E+04  1.70042E+03
 -9.74000E+03 -3.18773E+03  4.20824E+03 -8.32625E+03  4.32763E+03  1.47965E+02  6.62110E+03  4.42312E+03
  6.40927E+03  6.69991E+03 -1.22358E+04  5.80250E+03 -1.27995E+04  6.68199E+03 -1.33339E+04 -8.54897E+03
 -9.24608E+03 -8.88734E+03  2.44910E+03 -1.22971E+04  1.10521E+04 -6.43544E+03  1.79812E+04  9.08363E+03
  4.98413E+03  1.01655E+04 -4.61806E+03  1.28890E+04 -5.90825E+03  7.97944E+03 -1.36052E+04 -5.07944E+03
 -8.72830E+03 -1.26640E+04 -3.55478E+01 -7.26200E+03 -1.94704E+03 -8.90862E+03  4.19250E+03 -6.92389E+03
  8.09891E+03  3.82054E+03  1.78688E+03 -2.88142E+03 -1.52371E+03 -4.40433E+03  1.52745E+03 -3.11243E+03
  9.90959E+03 -1.14870E+03  7.48508E+03  1.14213E+03  1.31417E+04  1.08332E+04  8.16109E+03  1.48405E+04
 -2.97976E+03  1.61020E+04 -1.68964E+04  9.07206E+03 -1.93259E+04  4.52420E+03 -1.79366E+04 -5.97056E+03
 -4.74759E+03 -7.79375E+03  3.65724E+02 -4.02806E+03 -1.54576E+03 -6.28159E+03 -3.80708E+03 -4.33234E+03
  2.26772E+03 -8.60450E+03  2.28172E+03 -4.53464E+03  3.06819E+03 -4.90149E+03  8.11040E+03 -4.39041E+03
  7.73103E+03  2.82999E+03  3.10911E+02  6.79528E+03 -1.11907E+03  8.31122E+03 -7.59844E+03  1.54002E+03
 -1.10272E+04  1.83262E+03 -5.79295E+03 -9.96751E+03  1.74516E+03 -1.12630E+04  5.11082E+03 -8.54769E+03
  9.57011E+03 -7.25363E+03  8.70862E+03  1.04288E+04  3.42713E+03  1.15165E+04  1.39738E+03  9.60681E+03
 -5.35337E+03  6.26864E+03 -5.80105E+03 -2.74564E+03 -3.84094E+03  1.42715E+03  2.27216E+02 -4.81794E+03
 -3.00075E+03 -5.24559E+01 -4.51793E+03  3.04055E+03 -4.52722E+03  3.09540E+03 -3.58901E+03 -8.53418E+02
 -3.58255E+01 -8.46496E+03  8.07560E+02 -1.24347E+04  4.39706E+03 -3.71619E+03  5.73915E+03 -1.23684E+03
 -3.55556E+02  6.72534E+03  5.08607E+03  8.54582E+03 -7.56513E+03  1.00185E+04 -3.14103E+03  3.56668E+03
 -4.45851E+03  5.96734E+02 -5.10743E+03 -6.44861E+03 -3.21614E+03 -5.23414E+03  4.02459E+03 -9.03704E+01
  6.31288E+03 -3.59872E+03  3.56674E+03  1.97483E+03 -2.29945E+01  2.22521E+03  3.76745E+03  1.73126E+03
  7.59878E+03  2.65594E+03 -1.26729E+02 -2.25402E+03  8.08627E+03  5.40455E+03  5.21610E+03  3.37049E+03
 -4.55820E+03  8.05363E+03 -5.70980E+03  1.49440E+03 -1.21085E+04  7.85135E+02 -9.31408E+03 -4.69366E+03
 -9.19778E+03 -7.53941E+03  1.51861E+03 -4.49733E+03  3.91456E+03 -6.33778E+02  8.09132E+03 -3.53401E+03
  8.20743E+03  5.84482E+03  1.23045E+03  6.49966E+03 -4.58493E+03  1.63764E+03 -3.10678E+03 -7.10627E+03
 -1.47731E+03 -1.96627E+03  2.93439E+03 -4.01124E+03 -3.36551E+02 -1.90899E+03  2.23173E+03  3.73296E+03
  4.66174E+03  1.36106E+03 -6.04731E+02 -7.25041E+03 -1.12349E+03 -1.41049E+03  3.97084E+03  1.25233E+03
  3.07432E+03 -2.60406E+03 -5.67050E+00 -6.92288E+02 -1.95153E+03  6.24233E+03  6.61840E+03  5.33551E+03
 -5.23580E+03  8.52427E+02 -2.93912E+03  2.08440E+03 -4.31100E+03  1.22665E+02 -1.39635E+03  2.12162E+03
 -1.10754E+03 -5.89164E+03  2.37642E+03 -3.18556E+03 -3.89733E+03  1.04556E+03  2.34212E+03  1.25477E+03
 -2.77875E+03  1.77518E+03 -5.53315E+03 -5.48687E+02  1.14564E+03 -2.71783E+03  2.74796E+03 -4.39129E+03
  2.38134E+03 -2.78371E+03  4.85167E+03 -1.70109E+03 -3.19296E+03  3.44810E+03  1.89633E+03 -3.14885E+03
 -7.01206E+02 -4.98152E+03 -3.15397E+03 -5.49938E+02  1.19451E+03  4.22264E+02  8.10333E+03 -1.45597E+03
  5.00005E+02 -1.38508E+03  5.60529E+03 -9.82037E+02 -8.49013E+02  4.20238E+03  7.49269E+02  1.88722E+02
 -8.12971E+03  1.34906E+03 -8.63667E+02 -2.64625E+03 -4.20548E+03 -4.24860E+03  1.75351E+03 -2.87608E+03
  4.86343E+03 -8.89099E+03 -8.89469E+02  2.78056E+03 -1.95933E+02 -1.00874E+03  8.89661E+01  4.22027E+03
 -3.08759E+03  4.29533E+03 -2.36426E+03  1.36832E+03  1.52360E+03  6.06942E+03  8.10511E+02  3.78380E+03
 -3.00088E+03  2.64751E+03 -4.46355E+03 -3.89437E+02 -5.94183E+03  2.99040E+03 -3.43267E+03 -3.44563E+03
  4.91077E+02 -3.60098E+03  1.67039E+03 -3.29903E+03  4.30194E+01 -7.41493E+03  2.91143E+03  8.25557E+02
  6.47857E+02  7.81913E+02  2.66460E+03  5.50410E+03 -3.35928E+03  8.41826E+03 -9.45574E+03  5.38824E+03
  1.53510E+03 -4.42488E+03 -2.64039E+03  6.76249E+02 -1.11474E+03  4.66907E+03 -3.36847E+03 -2.89906E+03
 -8.49093E+03  2.92338E+03  1.88948E+03 -5.59558E+03  4.62320E+03 -6.47891E+03  1.88714E+03 -4.62560E+03
  3.50514E+03 -4.14042E+01  7.05769E+03 -2.56859E+03  5.69952E+03  1.08917E+03 -3.42268E+03  6.91301E+03
 -3.20015E+03  3.11804E+03  2.37503E+02  4.93673E+03 -7.87535E+03  1.39053E+03 -6.81826E+03 -2.95029E+03
  6.21930E+02 -1.13055E+03 -2.15653E+03 -1.96371E+03  2.14171E+03 -6.68249E+03 -3.26086E+03 -1.18759E+03
 -2.62933E+03  2.89033E+03 -2.31063E+03  1.16251E+03 -7.67644E+03 -5.01978E+03 -7.22846E+02  2.79299E+02
 -6.43329E+02 -5.19346E+03  2.77133E+03  4.67799E+03  1.00391E+03  5.62332E+03 -7.45836E+02 -6.20524E+02
  1.65213E+03  5.42019E+03 -3.02481E+03  2.27533E+03  8.01511E+02  4.18605E+02  3.10490E+03 -4.69175E+03
  5.69226E+02 -3.68303E+03 -1.22259E+03  6.06576E+03  2.52836E+03 -5.92267E+03  1.96016E+02  5.12045E+03
 -2.92624E+03  1.97107E+03 -3.99571E+03  3.03805E+03 -1.89686E+03 -1.94713E+03 -6.38444E+03 -2.08960E+03
 -3.60512E+03  9.69620E+02 -1.51567E+03  1.84889E+02 -1.01908E+03 -1.42205E+03  7.39282E+02 -3.34844E+03
  3.22960E+02  1.20262E+03 -5.61252E+02 -5.81401E+03  7.60874E+03 -1.95784E+03  3.26138E+02 -5.58968E+03
  3.77351E+03  2.01079E+03 -3.83765E+01 -3.97589E+03  1.93375E+03  1.61675E+03 -3.73655E+02  8.93794E+02
