 $NMID ID='MM_0lb_SNR50_7hz_g50_91.RAW', FMTDAT='(8E13.5)'
 TRAMP=1., VOLUME=1. $END
  3.12006E+05  1.13555E+04  3.40036E+05  2.50256E+05  8.75991E+04  3.32969E+05 -1.37309E+05  2.53900E+05
 -1.88228E+05  7.61411E+04 -1.14540E+05 -2.88230E+04  1.33683E+03 -5.71825E+04  4.94557E+04  7.09714E+03
  3.10651E+04  5.29601E+04 -1.51713E+04  7.45526E+04 -5.79083E+04  6.57291E+04 -8.49939E+04  2.89424E+04
 -7.93633E+04 -1.27902E+04 -4.93627E+04 -5.90995E+04 -1.33944E+04 -7.58171E+04  3.69305E+04 -4.42871E+04
  3.89609E+04  2.04268E+03  1.17160E+04  4.37617E+04 -3.69075E+04  4.62389E+04 -6.77999E+04 -8.53087E+02
 -5.50323E+04 -6.09533E+04 -8.06617E+03 -8.39313E+04  3.91892E+04 -5.84576E+04  4.88044E+04 -1.69950E+04
  4.30344E+04  4.01852E+03  3.59517E+04  2.83382E+04  1.54960E+04  3.06143E+04 -1.00123E+04  3.00170E+04
 -2.51250E+04  1.33119E+04 -1.85756E+04 -7.34832E+03  4.77957E+03 -1.24225E+04  2.59588E+04  1.01704E+04
  1.24761E+04  3.01167E+04 -2.64796E+04  4.22787E+04 -7.01180E+04 -6.64307E+02 -5.67539E+04 -4.67166E+04
 -1.29268E+04 -6.43802E+04  3.66000E+04 -5.34742E+04  5.25159E+04 -2.04159E+03  2.62837E+04  3.62529E+04
 -5.57286E+03  3.34873E+04 -3.48246E+04  2.45523E+04 -3.45756E+04  1.68931E+03 -1.57577E+04 -5.69896E+03
 -9.91571E+03 -1.49562E+04  4.56479E+03 -1.62134E+04  6.70909E+03 -1.88267E+04  2.23279E+04 -9.14687E+03
  6.36555E+03  6.76928E+03 -8.25498E+03  1.32092E+04 -1.91945E+04 -7.08794E+03 -9.92863E+03 -3.88587E+04
  2.80291E+04 -5.06665E+04  5.47604E+04 -2.74402E+04  5.40328E+04  2.02153E+04  2.02459E+04  3.96766E+04
 -1.92508E+04  3.42053E+04 -2.85774E+04 -7.40800E+02 -1.91825E+04 -2.76608E+04  1.56350E+04 -3.76586E+04
  4.95064E+04 -1.40778E+04  4.08713E+04  2.73602E+04  2.28902E+04  5.67000E+04 -3.44018E+03  6.79970E+04
 -4.31153E+04  5.31957E+04 -4.50585E+04  1.62585E+04 -5.39262E+04 -1.81392E+04 -2.21232E+04 -4.17197E+04
  6.54264E+03 -4.41415E+04  3.56432E+04 -1.72533E+04  2.84386E+04  1.44966E+04  2.80479E+03  2.72091E+04
 -1.61052E+04  1.47438E+04 -7.73336E+03 -7.73308E+03  4.10127E+03 -9.48021E+03  2.22202E+04  2.74531E+03
  2.30544E+04  1.83894E+04 -2.53306E+03  3.00159E+04 -3.07054E+04  1.69914E+04 -3.03379E+04 -8.53603E+03
 -2.59178E+04 -1.70114E+04 -9.11573E+03 -2.98945E+04  6.12428E+03 -3.08458E+04  2.19450E+04 -2.34338E+04
  3.62254E+04 -1.57249E+04  4.25441E+04  1.39843E+04  3.87192E+04  3.44023E+04  6.48420E+03  4.08398E+04
 -2.32428E+04  4.13191E+04 -3.53216E+04  1.90779E+04 -2.40349E+04 -1.18393E+04 -4.79848E+03 -1.06668E+04
  8.71718E+02  4.42731E+03 -3.71709E+03  8.28882E+03 -2.09279E+04  1.20813E+04 -2.18818E+04 -1.01424E+04
 -9.83947E+03 -2.67495E+04  5.07887E+03 -2.63890E+04  1.90970E+04 -2.14692E+04  2.63292E+04 -1.76397E+03
  1.90555E+04  1.67713E+04 -2.83725E+03  2.93634E+04 -2.15669E+04  1.76422E+04 -2.50167E+04 -7.43665E+03
 -1.46261E+04 -2.53073E+04 -5.91154E+03 -3.13041E+04  1.21218E+04 -2.45107E+04  2.36297E+04 -1.94068E+04
  2.34630E+04  1.04855E+03  1.93841E+04  8.31822E+03  6.86749E+03  2.46547E+03  4.14565E+03  3.10178E+03
  1.81530E+04 -9.50536E+02  3.25485E+04  2.00131E+04  2.11344E+04  4.34810E+04 -1.30645E+03  4.53525E+04
 -3.49637E+04  4.04176E+04 -4.47983E+04  2.02856E+04 -4.52131E+04  4.25882E+03 -4.04625E+04 -2.73303E+04
 -1.24855E+04 -4.74630E+04  1.42291E+04 -3.76943E+04  3.13252E+04 -8.20504E+03  2.76434E+04  8.95914E+03
  1.01297E+04  1.84743E+04 -1.80924E+04  2.03295E+04 -1.94000E+04  1.29659E+03 -2.11995E+04 -1.57137E+04
 -1.03809E+03 -1.62430E+04  5.22003E+03 -1.27899E+04  1.80872E+04 -4.15304E+03  2.60333E+03  1.26134E+04
 -6.55862E+03  3.95404E+03 -9.19766E+03 -5.22407E+03 -8.13870E+03 -2.57263E+04  1.48765E+04 -1.64197E+04
  3.71441E+04 -8.03684E+03  2.74134E+04  4.77370E+03  2.20561E+04  2.57582E+04  4.42871E+03  2.80329E+04
 -9.41510E+03  3.32638E+04 -1.84194E+04  2.73511E+04 -2.46355E+04  6.78975E+03 -1.29463E+04 -5.33635E+03
  1.72063E+02 -4.41118E+03 -6.59693E+03  3.86714E+03 -4.72763E+03  4.47796E+03 -3.74744E+03  9.75881E+03
 -2.26153E+04  9.04881E+02 -1.79410E+04 -1.01818E+04 -8.90313E+03 -2.14214E+04  5.27536E+03 -1.45967E+04
  1.16113E+04 -3.63127E+03  1.03322E+04  1.12156E+03  3.32335E+03  7.55775E+03 -9.90085E+03 -5.31731E+03
 -4.44151E+03 -7.96713E+03  5.87576E+03 -1.42834E+04  8.55897E+03 -2.15351E+04  2.70689E+04 -1.39133E+04
  2.90658E+04  1.58268E+03  2.27830E+04  1.67422E+04  4.78866E+01  2.01732E+04 -1.11699E+04  2.30767E+04
 -1.15250E+04  6.28160E+03 -1.02102E+04 -1.76380E+03  2.98953E+03 -9.22541E+03  4.64197E+03  9.58204E+02
  8.92420E+03  1.11585E+04  3.25207E+03  1.59992E+04 -8.76981E+03  1.72727E+04 -2.48780E+04  4.18856E+03
 -1.78179E+04 -1.15480E+04  6.39814E+03 -1.46460E+04  1.35865E+04 -5.15668E+03  1.63539E+04  1.52581E+04
  2.53775E+03  6.95405E+03 -1.08191E+04  1.39098E+04 -9.46949E+03  8.77518E+03 -2.29855E+04 -3.37359E+03
 -1.03141E+04 -1.87750E+04  2.53594E+03 -1.56777E+04  1.58168E+04 -1.04971E+04  1.26011E+04  4.26088E+03
  3.62102E+03  1.40045E+04 -6.65014E+02  2.47820E+04 -7.14398E+03  9.36561E+03 -1.51471E+04  4.19826E+03
 -1.06756E+04 -6.27606E+03  6.55942E+03 -5.45098E+03  1.06003E+04 -1.90695E+04  1.23453E+04 -8.13867E+03
  7.07125E+03 -1.91487E+03 -7.64877E+03  2.02021E+02 -5.21352E+03 -5.29674E+03  6.93760E+03 -9.01340E+03
  2.31692E+04 -6.38102E+03  2.77240E+04  3.85912E+03  1.91702E+04  1.61815E+04  1.35345E+04  2.20838E+04
 -1.17090E+04  2.87374E+04 -1.90499E+04  1.68875E+04 -3.04150E+04 -3.38684E+01 -2.13602E+04 -7.13570E+03
 -1.48793E+04 -2.06365E+04 -3.22203E+02 -1.41398E+04  5.75044E+02 -1.36294E+04  1.12073E+03 -3.20143E+03
  5.08946E+03 -6.14816E+03  1.11848E+03 -5.89952E+02  2.29973E+03 -3.89369E+03  7.37014E+03  1.19427E+03
  1.32097E+04 -1.22815E+03 -2.15445E+03  1.22186E+04 -2.94184E+03  8.36527E+03 -1.76210E+04  7.33770E+03
 -1.42794E+04 -1.08155E+03 -8.72189E+03 -1.09811E+04 -3.58998E+03 -1.43904E+04  7.89942E+03 -1.40605E+04
  1.65941E+04 -1.84691E+04  1.77105E+04  2.11604E+03  1.71269E+04  1.93175E+04  1.44036E+03  2.05394E+04
 -1.69335E+04  1.78725E+04 -8.52437E+03  4.33343E+03 -6.57535E+03  2.12907E+03 -1.67807E+03  7.40662E+02
  3.83899E+03  6.11975E+02 -7.74591E+02 -3.63210E+02 -5.86735E+03  9.74354E+03 -1.38395E+04 -1.48330E+03
 -8.88364E+03 -2.25960E+04 -2.24443E+03 -2.73444E+04  1.14928E+04 -1.24754E+04  1.95577E+04 -7.19800E+03
  1.85170E+04  6.40544E+03  6.14914E+03  1.65673E+04 -5.25621E+03  1.54382E+04 -1.78305E+04  7.40460E+03
 -1.61556E+04  2.30451E+03 -1.81584E+04 -1.15776E+04  1.02580E+03 -1.32804E+04  1.26030E+04 -9.07203E+03
  1.22000E+04 -6.47502E+03  1.40611E+04  1.11521E+03  4.88597E+03  1.57385E+03  1.17559E+03  9.82602E+03
  6.90539E+03 -7.10348E+03  6.46711E+03 -8.35853E+02  6.88416E+03  3.79009E+03  1.15782E+03  1.05721E+04
 -2.32066E+03  1.49386E+04 -1.14335E+04  1.38084E+04 -2.12475E+04  9.28991E+03 -1.72861E+04 -2.66638E+03
 -1.04770E+04 -2.37341E+04  3.17326E+03 -2.13220E+04  1.50922E+04 -1.27517E+04  2.03498E+04  8.50702E+00
  1.55173E+04 -1.26929E+02  4.49840E+03  1.54502E+04 -8.12918E+03  5.86756E+03 -7.35921E+03  1.99239E+03
 -6.09527E+03 -6.41296E+03 -4.08423E+02 -1.12268E+04  8.98776E+03 -7.72707E+03  6.63461E+03  2.85364E+03
  7.41204E+02  7.96765E+03 -2.88081E+03  9.60185E+03 -3.89738E+03  4.16274E+03  6.00163E+03 -2.47537E+03
  7.18474E+03 -8.35466E+03  8.17025E+03  3.70044E+03  5.31339E+03  9.54198E+03  6.69166E+02  1.46626E+04
 -8.38825E+03  4.82911E+03 -1.22495E+04  5.07454E+03 -1.08444E+04 -9.42985E+03 -3.48067E+03 -4.48678E+03
  5.25065E+02 -1.67385E+04  2.78188E+03 -1.19838E+04  3.74118E+03  4.37581E+03 -5.70038E+03  1.02279E+04
 -2.79468E+03  6.32177E+03 -1.09458E+04  7.50094E+01 -1.35343E+04 -1.22960E+04 -8.98151E+02 -1.35841E+04
  1.14140E+04 -1.49414E+04  1.33474E+04 -2.25264E+03  8.77270E+03 -1.91422E+03 -1.70659E+03  8.53269E+03
 -4.80165E+03  5.22688E+03 -5.20998E+03 -6.96807E+03 -8.21299E+03 -1.10443E+04  1.25936E+04 -5.99857E+03
  1.32924E+04 -1.27705E+04  1.06804E+04  3.27787E+03  3.71921E+03  1.60393E+04 -8.51777E+03  9.47018E+03
 -1.61603E+04  7.51108E+03 -1.20608E+04  4.19223E+02 -9.15012E+03 -3.86015E+03  2.16647E+03 -3.47422E+03
  7.52829E+03 -7.10379E+03 -1.15464E+03  2.09811E+03  2.16628E+03  8.70696E+03 -4.99154E+03  1.02194E+04
 -6.38087E+03 -2.45501E+03  5.12696E+02 -1.48594E+03 -3.49998E+02 -3.27975E+03  6.45739E+02 -4.55636E+03
 -4.98315E+02  9.50300E+03 -1.17524E+04  4.22023E+03 -1.61677E+04  5.71076E+03 -1.81512E+04 -6.38622E+03
 -9.28631E+03 -1.67906E+04  2.59282E+03 -2.49116E+04  1.22634E+04 -1.80619E+04  1.70218E+04 -8.17062E+03
  1.34177E+04 -9.01997E+03  1.03521E+04  1.13227E+04 -1.77714E+03  2.26280E+04 -4.59137E+03  8.24365E+03
 -9.31330E+03  1.70523E+03 -6.84234E+03 -5.39732E+03 -6.16016E+03 -6.43987E+03 -7.07873E+03 -5.31347E+03
 -1.47716E+03  4.34198E+02 -1.56866E+03 -6.75016E+03 -2.31328E+03  1.90219E+02 -7.99224E+03 -1.00211E+04
  1.31719E+04 -4.63840E+03  9.54507E+03 -3.02220E+03  7.43051E+03  4.22902E+03 -1.94950E+03  9.83256E+03
 -1.92584E+03  2.00670E+04 -1.32007E+04  1.44807E+04 -2.21613E+04 -4.82261E+02 -1.25057E+04 -6.44799E+03
 -8.16415E+03 -1.45657E+04  3.60770E+03 -7.51324E+03  6.40495E+03 -5.87818E+03 -2.52749E+03  6.29534E+03
 -3.77681E+03  5.78036E+03  6.93915E+02  5.64308E+03 -2.95921E+03  9.34782E+03 -4.62058E+03 -8.07798E+03
  7.91506E+03  4.51626E+03  6.22459E+03 -8.91630E+03  3.06232E+03  7.88544E+03  5.28565E+02  9.81409E+03
 -1.57972E+03  6.50942E+03 -6.65047E+03  4.21515E+03 -2.99097E+03 -1.06033E+04  4.98309E+03 -1.30401E+04
  5.45988E+03 -1.79251E+04  8.70425E+03 -3.18082E+03  1.21015E+04 -3.50896E+03  1.19392E+04  1.43095E+04
 -2.53755E+03  5.95613E+03 -3.48493E+03  7.28006E+03 -1.03160E+04  2.90516E+03 -7.39642E+03  5.61922E+03
  1.49034E+03  1.03694E+03 -5.01896E+03  9.34601E+03 -1.08485E+04 -1.97466E+02 -6.05213E+03 -4.71531E+03
 -1.09079E+03 -1.07949E+04 -4.54992E+03 -7.71674E+03  1.41083E+04 -1.19596E+04  1.04904E+04 -1.08125E+04
  8.09239E+03  4.32015E+03  5.47236E+03  1.18018E+04 -2.00641E+02  4.74445E+03  5.46035E+02  1.19581E+04
