 $NMID ID='MM_0lb_SNR50_20hz_g60_34.RAW', FMTDAT='(8E13.5)'
 TRAMP=1., VOLUME=1. $END
  3.09871E+05  2.03423E+03  3.38042E+05  2.52179E+05  8.59337E+04  3.38937E+05 -1.31786E+05  2.45996E+05
 -1.92337E+05  8.23049E+04 -1.09081E+05 -3.20364E+04  1.30989E+03 -5.00950E+04  5.24337E+04  9.96623E+02
  3.99266E+04  5.21853E+04 -1.20894E+04  7.73521E+04 -6.19104E+04  6.21179E+04 -8.28608E+04  3.47835E+04
 -8.47110E+04 -1.09257E+04 -5.82164E+04 -4.20603E+04 -1.36000E+04 -6.83228E+04  2.85576E+04 -4.62437E+04
  3.65585E+04  2.25655E+03  1.12069E+04  4.75757E+04 -3.24547E+04  4.60694E+04 -6.63765E+04  7.27791E+02
 -5.34892E+04 -5.10106E+04 -6.84235E+03 -7.69158E+04  3.21333E+04 -5.26353E+04  4.77372E+04 -1.52869E+04
  3.69804E+04  1.04564E+04  2.96409E+04  2.44423E+04  1.54354E+04  3.20155E+04 -2.69406E+03  2.49593E+04
 -2.64294E+04  1.12418E+04 -2.17036E+04 -6.53746E+02  2.90888E+03 -9.53330E+03  2.04809E+04  9.90633E+03
  7.27588E+03  3.37490E+04 -2.97964E+04  3.23780E+04 -5.77808E+04 -3.64484E+02 -5.54010E+04 -4.21939E+04
 -1.29948E+04 -6.57817E+04  3.83388E+04 -4.40535E+04  5.83903E+04  4.07393E+03  3.14879E+04  3.18725E+04
 -7.41008E+03  3.09220E+04 -2.98212E+04  1.39564E+04 -2.76408E+04 -5.84313E+03 -1.52566E+04 -8.08798E+03
 -9.43341E+03 -8.65038E+03  2.95073E+03 -1.63388E+04  5.17445E+03 -1.87866E+04  1.13078E+04 -1.67937E+04
  1.46235E+04  5.90161E+03 -7.20524E+03  1.34530E+04 -2.10695E+04 -8.56048E+02 -9.82655E+03 -3.16355E+04
  2.02453E+04 -4.18498E+04  4.36009E+04 -1.76188E+04  4.53540E+04  1.68505E+04  1.45843E+04  4.18025E+04
 -1.15580E+04  2.77855E+04 -2.64172E+04  2.91708E+03 -1.21823E+04 -2.65801E+04  2.20424E+04 -3.01440E+04
  3.82067E+04 -4.92432E+03  3.18041E+04  2.04760E+04  1.27242E+04  4.17056E+04 -4.78214E+03  4.40901E+04
 -2.83492E+04  3.07954E+04 -3.77272E+04  7.92990E+03 -3.92411E+04 -1.40504E+04 -1.72858E+04 -3.56497E+04
  1.12074E+04 -3.48582E+04  3.19906E+04 -1.73619E+04  2.70710E+04  8.60433E+03  2.74133E+03  1.64570E+04
 -1.29736E+04  4.16393E+03 -9.83613E+03 -8.57494E+03  8.57797E+03 -1.09752E+04  1.88146E+04  1.12077E+04
  8.72737E+03  2.54970E+04 -7.34686E+03  2.47836E+04 -1.78076E+04  1.38952E+04 -2.52065E+04 -6.08769E+03
 -1.37395E+04 -1.68638E+04 -4.97538E+03 -2.04987E+04  7.09156E+02 -1.53236E+04  1.13301E+04 -1.56122E+04
  2.18085E+04 -1.15117E+04  3.12747E+04  1.78160E+03  2.46238E+04  1.32775E+04  4.01838E+03  3.52286E+04
 -1.44693E+04  2.83431E+04 -2.39188E+04  1.35474E+04 -1.96379E+04 -1.04019E+04 -5.06033E+03 -1.12327E+04
  2.49490E+03 -5.50371E+03 -3.94792E+03  7.57367E+03 -1.41080E+04  4.34203E+03 -1.53145E+04 -8.73382E+03
 -7.23264E+03 -1.54380E+04  3.02390E+03 -2.18372E+04  1.11294E+04 -1.47949E+04  1.67023E+04 -6.35845E+02
  7.40641E+03  8.58141E+03 -2.28679E+03  1.22059E+04 -1.00919E+04  9.46096E+03 -1.59599E+04 -3.32174E+03
 -9.81568E+03 -1.36282E+04 -4.23611E+03 -1.78250E+04  6.51839E+03 -1.62117E+04  1.60285E+04 -3.29810E+03
  1.22277E+04  6.81166E+02  9.29898E+03  1.55623E+03  1.22947E+04 -4.31985E+03  9.80305E+03 -1.01566E+03
  1.67230E+04 -1.10231E+01  1.51259E+04  1.74676E+04  8.69388E+03  2.06458E+04 -6.06146E+03  2.27804E+04
 -1.73815E+04  2.31978E+04 -2.36751E+04  6.59417E+03 -2.93545E+04 -2.75426E+03 -2.06182E+04 -2.08128E+04
 -8.67338E+03 -2.12158E+04  9.73411E+03 -1.56978E+04  1.48246E+04 -7.09708E+03  1.69650E+04  7.04289E+03
  8.76345E+03  1.01432E+04 -7.48806E+03  1.12276E+04 -9.56664E+03 -9.34608E+02 -1.55370E+04 -9.43688E+03
 -5.91722E+03 -1.04245E+04  5.04658E+03 -1.09866E+04  8.43486E+03 -4.10599E+03  2.13701E+03  8.58903E+03
 -7.22275E+03  5.22733E+03 -2.40736E+03 -5.37248E+03  3.56204E+03 -7.91983E+03  1.94355E+03 -1.21535E+04
  1.64729E+04 -6.84031E+03  1.14502E+04  4.85690E+03  9.80764E+03  3.96555E+03  7.36076E+03  1.60587E+04
 -5.07184E+03  1.65156E+04 -8.94039E+03  1.01215E+04 -1.19518E+04  5.46208E+03 -5.37599E+03 -2.25676E+03
 -5.74979E+03 -1.97883E+03  6.76243E+02  1.18904E+03  6.78492E+02 -1.11557E+03 -3.92222E+03  5.38968E+03
 -1.03155E+04 -1.09901E+03 -6.51396E+03 -5.04817E+03 -5.18742E+03 -9.80861E+03  1.93119E+03 -8.28008E+03
  9.81325E+03 -3.08959E+03  8.90816E+03  6.47645E+03 -1.30439E+03  3.37406E+03 -2.94667E+02  1.54563E+03
 -7.53827E+03 -6.96579E+03  4.17922E+03 -3.53961E+03  2.49462E+03 -7.41618E+03  1.17409E+04 -4.51613E+03
  1.52513E+04  2.32977E+03  8.84426E+03  3.77554E+03  1.89073E+01  3.34951E+03 -7.05422E+03  6.45242E+03
 -5.74817E+03  9.50953E+02 -4.63245E+03  4.29022E+03 -4.14997E+03 -3.13687E+03 -2.44536E+02  8.33074E+02
  5.48085E+03  4.02663E+03  4.12398E+03  3.67836E+03 -7.93634E+03  4.69191E+03 -4.39696E+03  5.28692E+02
 -2.42377E+03 -1.99267E+03  8.65833E+02 -4.93942E+03  7.99079E+03 -2.91996E+03  2.24715E+03  3.04965E+03
 -1.03201E+03 -2.14027E+02 -6.47288E+03  3.32387E+03 -4.07588E+03 -2.48690E+03 -1.04363E+04 -6.69252E+02
 -2.78956E+03 -3.52384E+03  2.61597E+03 -7.65114E+03  7.84065E+03 -4.61157E+03  5.41852E+03  6.12161E+01
  3.33937E+03  9.98889E+03  1.34652E+03  1.21674E+04 -7.54344E+03  6.15296E+03 -5.60965E+03  4.26751E+02
 -4.74788E+03 -1.19280E+03  1.78288E+03 -6.59248E+03  3.19337E+03 -7.38860E+03  2.27657E+03 -4.63352E+03
 -1.34449E+03  2.75097E+03 -2.74097E+02 -7.94498E+02  4.67276E+03 -2.61771E+03  6.09918E+03  1.50379E+03
  5.36067E+03 -1.85404E+03  3.78308E+03  1.57902E+03  4.80960E+03  4.59810E+01  4.94602E+03  6.50357E+03
 -5.80838E+03  6.51138E+03 -2.55185E+03  4.61813E+03 -6.37610E+03  1.46008E+03 -6.51669E+03 -4.92517E+03
 -5.93505E+03 -3.81549E+03 -5.42409E+03 -6.60014E+03  2.24807E+03 -2.05790E+03 -2.65540E+03 -6.89322E+03
  3.51917E+03 -3.13031E+03  3.37565E+03 -1.93780E+03  2.58254E+03 -2.64496E+03  4.22495E+03  3.64897E+03
  4.79738E+03  2.16201E+01 -1.81268E+03  3.07039E+03 -4.47195E+03  1.71645E+03 -2.78435E+03 -1.67902E+03
 -6.78158E+03  2.35833E+02 -4.03948E+03 -2.05614E+03 -2.34118E+03 -3.10383E+03 -2.25952E+03 -3.56392E+03
  2.76964E+03 -4.84982E+03  5.31795E+03 -1.90208E+02 -1.32392E+03  4.11292E+03 -3.30441E+03  1.50136E+03
  2.29516E+03  8.79691E+03 -4.12256E+03  3.74792E+03 -3.37451E+03 -1.55801E+03 -2.55525E+03 -7.78087E+02
 -1.36812E+03  1.21237E+03  1.14410E+03  2.64541E+03 -6.35615E+03 -3.75524E+02 -1.92203E+03  1.05242E+03
  9.92852E+02 -5.17698E+03 -2.45136E+03 -3.51859E+03 -1.15626E+03 -5.71595E+03  3.78011E+03 -5.04054E+03
  5.35898E+03  2.37029E+03 -6.09351E+02  3.20775E+03  4.88518E+02  3.16723E+02 -2.13059E+03  5.25704E+03
 -2.14052E+03  3.95189E+02 -1.86373E+03 -3.62189E+03 -1.64097E+03 -1.05730E+03  9.08196E+02  6.74964E+02
 -2.44718E+03 -2.56988E+03 -8.24667E+02  1.96315E+03  3.59684E+03  1.93139E+03  2.45688E+03 -3.80996E+02
  2.46947E+03  1.16799E+03 -3.29048E+03  1.30540E+03  3.56779E+01  8.16531E+02  4.68851E+02  4.14692E+03
 -1.86831E+02  2.68194E+03 -2.85564E+03  3.43720E+03 -1.44715E+03  1.99111E+03 -2.23851E+03  1.26715E+03
 -3.51691E+03 -2.42732E+02 -8.20501E+02 -4.76256E+03  3.20749E+03 -3.46087E+03  5.35351E+03  2.24408E+03
  3.61957E+03  3.87209E+03 -1.51633E+02  4.12811E+03  3.92145E+03  3.22306E+03  1.86180E+03  1.97835E+03
 -1.16968E+03  3.16260E+03  1.30483E+01 -2.38011E+03 -5.29165E+02 -1.91775E+03 -2.28377E+03 -1.96444E+03
 -7.45995E+02 -2.99228E+03  1.43993E+03  3.58508E+03  3.27463E+03  1.97231E+01  1.18390E+03  3.33882E+02
 -3.25324E+03 -1.25072E+03  2.48767E+03 -2.55484E+03 -1.74132E+03  1.37872E+03  5.17429E+03  2.12761E+03
 -9.53045E+02 -1.12263E+03 -3.34872E+03  2.56246E+03 -7.37098E+03 -3.12822E+03 -1.80657E+03 -1.38055E+03
  2.72337E+03  3.88577E+03 -1.73985E+03 -9.73308E+02  1.35960E+03  1.58552E+03  2.93173E+03  2.11561E+03
  3.23782E+03  1.44193E+03 -1.49946E+02 -3.83093E+03  1.74558E+03 -7.13247E+02  1.45339E+02  1.80170E+02
  1.49645E+03 -5.24092E+02 -3.27252E+03  5.02713E+02  1.58462E+03 -9.12535E+02  1.07808E+03  2.80565E+03
 -2.08415E+03 -3.80336E+03  6.97787E+01  1.22943E+03  2.12524E+03 -2.54992E+03 -6.02689E+02 -5.80873E+02
  2.78825E+03  2.29042E+03  5.05169E+02  3.16588E+02  4.32542E+03 -1.60160E+03  1.21228E+02  2.66620E+03
 -2.01777E+03  4.19354E+01 -6.66430E+03  2.63982E+03  2.98827E+03  7.20103E+02  2.61789E+03  1.72795E+03
  1.07826E+03 -2.56971E+03  5.22532E+02  1.97970E+03 -1.55662E+03  7.17855E+01 -3.70312E+03  7.24948E+02
 -1.11320E+03 -2.48743E+02  5.15447E+02 -3.30382E+03 -2.79672E+03 -5.91741E+02 -3.90008E+03 -3.36811E+03
  4.14291E+03 -9.31117E+02  2.26820E+03 -8.69134E+02  1.29801E+03  4.19749E+03 -2.57372E+03 -1.78203E+03
  1.64257E+02 -2.38179E+03 -3.03652E+03 -7.52614E+02 -9.60622E+02 -2.33038E+02  3.98358E+03 -1.55666E+03
 -4.39247E+03  2.03283E+03  7.44928E+02 -1.36995E+03 -3.77319E+02  3.78493E+03 -4.29768E+01 -9.83408E+01
 -1.68883E+03  2.42917E+03  2.61852E+03  1.01662E+03  3.41010E+03  6.25730E+02 -2.62103E+03  1.69965E+03
  5.45246E+01 -1.13747E+03  3.30814E+02 -3.45179E+03 -6.99363E+02 -9.50570E+01  2.10801E+01 -4.16356E+02
  1.74502E+03  2.40260E+03  1.05164E+03 -4.61204E+03  9.13729E+02 -7.61424E+02 -2.84932E+03  3.91575E+03
 -1.33263E+03  3.36927E+03 -1.65956E+03 -8.22247E+02 -5.59294E+02  6.53481E+00  6.26603E+02  2.88806E+03
  3.25496E+03 -4.35767E+03 -2.09460E+02 -1.36417E+03  1.16119E+03 -5.74550E+01 -1.06211E+03 -3.20739E+02
 -4.63585E+03  1.04425E+02 -4.87549E+02  1.55176E+03 -3.09233E+01  1.49668E+03  3.83226E+03 -2.65060E+03
  8.77852E+02  5.52490E+03 -6.92490E+01  2.37140E+03  2.61530E+02  3.85757E+02  1.85900E+03  2.14674E+03
 -9.70737E+02 -2.35977E+03  1.10283E+03 -3.25619E+03  1.78814E+03  1.04662E+03 -1.12252E+02  2.73435E+03
  1.31161E+02 -1.62809E+03  1.36057E+03 -5.77983E+02  4.14639E+03 -3.07759E+03 -1.81731E+02  1.84599E+03
 -1.86751E+03  8.72330E+02  3.48593E+03 -6.47899E+02  3.04456E+01  2.99379E+02 -1.75143E+03 -3.77213E+03
  4.09662E+02 -3.43893E+03  1.50810E+03  1.97431E+03 -2.48116E+02  8.79978E+02 -1.22641E+03 -4.54456E+02
 -2.88485E+03 -9.46400E+00  2.16827E+03  5.93493E+02  1.05368E+03 -3.83807E+03  1.26543E+03  1.68675E+03
 -7.54317E+02  1.12150E+03  7.65040E+02  2.57476E+03  2.00417E+02  2.54810E+03  3.17280E+03  2.86147E+03
