 $NMID ID='MM_0lb_SNR50_14hz_g60_85.RAW', FMTDAT='(8E13.5)'
 TRAMP=1., VOLUME=1. $END
  3.10789E+05  8.68886E+02  3.34885E+05  2.54432E+05  8.56310E+04  3.41357E+05 -1.30911E+05  2.49384E+05
 -1.92295E+05  8.82228E+04 -1.14043E+05 -3.02014E+04 -3.80504E+03 -5.10544E+04  5.36633E+04 -6.26560E+03
  3.80702E+04  5.23438E+04 -1.36918E+04  7.35508E+04 -5.89661E+04  6.81113E+04 -8.06220E+04  3.10634E+04
 -8.81665E+04 -8.15851E+03 -5.63142E+04 -5.58893E+04 -1.33364E+04 -6.95374E+04  2.99319E+04 -4.58366E+04
  4.21557E+04  2.02840E+03  1.35603E+04  4.47261E+04 -3.91645E+04  4.48452E+04 -7.38340E+04 -5.50001E+02
 -5.63107E+04 -5.20634E+04 -7.55779E+03 -7.65635E+04  3.39962E+04 -5.71410E+04  4.85296E+04 -2.12005E+04
  4.57307E+04  1.16443E+04  3.19288E+04  2.56254E+04  1.31945E+04  3.45672E+04 -9.62932E+03  2.26956E+04
 -2.23057E+04  7.55217E+03 -1.66625E+04 -2.88358E+03  2.44723E+03 -1.08166E+04  2.95079E+04  1.49534E+04
  6.39360E+03  3.62452E+04 -3.57039E+04  3.20683E+04 -6.81977E+04  2.24366E+03 -6.15043E+04 -4.22005E+04
 -1.21988E+04 -6.97189E+04  3.76330E+04 -5.05530E+04  6.06733E+04 -1.03083E+03  3.60690E+04  3.51335E+04
 -7.10917E+03  3.49843E+04 -3.52221E+04  1.79376E+04 -2.56678E+04  1.55897E+02 -1.43511E+04 -1.24413E+04
 -1.02254E+04 -1.10547E+04 -2.36541E+03 -2.13031E+04  5.87955E+03 -2.54078E+04  1.02602E+04 -1.27546E+04
  1.39243E+04  7.53612E+03 -8.07382E+03  9.67458E+03 -2.02247E+04 -6.24862E+03 -1.03843E+04 -4.08857E+04
  1.95682E+04 -4.17809E+04  4.63712E+04 -1.94482E+04  4.71048E+04  1.94298E+04  1.49465E+04  4.57407E+04
 -1.73118E+04  3.07410E+04 -2.30651E+04 -9.02181E+01 -1.24233E+04 -2.51733E+04  2.20272E+04 -3.85741E+04
  4.23823E+04 -9.67185E+03  3.51555E+04  2.05338E+04  2.01573E+04  4.92535E+04 -4.70949E+03  5.46611E+04
 -3.09327E+04  3.90427E+04 -4.64938E+04  8.20006E+03 -4.55747E+04 -1.80754E+04 -2.65857E+04 -4.51985E+04
  4.80540E+03 -3.73562E+04  3.08412E+04 -1.40179E+04  2.88426E+04  1.05316E+04  3.53961E+03  1.77275E+04
 -1.43819E+04  6.73126E+03 -1.21424E+04 -7.20892E+03  1.24590E+04 -9.48429E+03  2.32440E+04  8.13812E+03
  1.22557E+04  1.73542E+04 -1.53681E+03  3.12137E+04 -1.92410E+04  1.50056E+04 -2.93178E+04 -3.26574E+02
 -1.82895E+04 -1.55593E+04 -1.02554E+04 -2.25790E+04  3.49752E+03 -1.97509E+04  1.68079E+04 -1.88415E+04
  3.40481E+04 -1.58081E+04  3.23028E+04  7.56167E+03  2.34812E+04  2.17045E+04  9.65567E+03  3.71149E+04
 -1.29888E+04  3.28842E+04 -2.59847E+04  1.10652E+04 -2.23901E+04 -5.81145E+03 -8.71212E+03 -1.14562E+04
  4.72284E+03  2.96215E+03 -8.17926E+03  6.20476E+03 -2.09527E+04  5.33803E+03 -2.05115E+04 -6.60974E+03
 -1.04917E+04 -1.81228E+04  1.52658E+03 -1.94042E+04  1.54498E+04 -1.50257E+04  1.86829E+04 -1.46880E+03
  8.49928E+03  1.55495E+04  2.78172E+03  1.79707E+04 -1.17659E+04  1.22996E+04 -2.18394E+04 -6.73402E+03
 -1.41707E+04 -1.35052E+04  1.45779E+03 -2.70497E+04  1.20687E+04 -2.20221E+04  1.67439E+04 -7.50373E+03
  1.66215E+04 -1.42964E+03  1.39813E+04  1.16106E+04  5.99288E+03 -4.09966E+02  9.27466E+03 -1.28159E+03
  1.70293E+04 -7.33656E+02  2.18094E+04  1.32539E+04  1.27928E+04  3.18953E+04 -3.93899E+03  3.96878E+04
 -1.62036E+04  3.84391E+04 -3.64915E+04  1.89805E+04 -3.59205E+04 -3.26737E+03 -3.06278E+04 -2.01328E+04
 -1.73500E+04 -3.04769E+04  1.22903E+04 -2.24354E+04  2.87337E+04 -1.65726E+04  2.04277E+04  8.41388E+03
  4.72249E+03  1.64536E+04 -1.12804E+04  1.25697E+04 -1.97114E+04  1.50751E+03 -9.76656E+03 -1.05970E+04
  3.69038E+03 -1.02946E+04  6.53894E+03 -1.15462E+04  1.00108E+04 -3.37261E+03  3.18515E+03  4.02933E+03
 -1.81616E+03  1.29259E+03 -8.43837E+03 -8.40556E+03  1.77699E+03 -1.60303E+04  1.04017E+04 -1.63878E+04
  1.73909E+04 -8.32058E+03  1.80803E+04  9.42501E+03  2.01502E+04  1.04479E+04  1.38974E+04  2.18606E+04
 -7.59145E+03  2.30273E+04 -1.59208E+04  1.35814E+04 -2.05830E+04  6.03866E+03 -1.04982E+04 -7.15472E+03
 -7.39714E+03 -9.47981E+03 -4.44550E+03  1.37003E+03 -1.14617E+03  6.98901E+03 -3.74032E+03  1.40516E+02
 -1.36808E+04 -3.49645E+03 -1.37361E+04 -1.22289E+04 -3.49513E+03 -1.93243E+04  6.51370E+03 -8.98797E+03
  8.42874E+03 -1.29784E+04  8.56398E+03  5.41026E+03  7.32112E+02  6.07237E+03 -7.06017E+03  4.75730E+02
 -2.89317E+00 -6.33443E+03  3.73437E+02 -9.83567E+03  9.30717E+03 -1.55315E+04  1.58273E+04 -6.33304E+03
  2.05635E+04  5.60015E+02  1.03324E+04  1.14522E+04  3.36898E+03  1.41600E+04 -7.20190E+03  1.33523E+04
 -9.80375E+03 -4.19734E+02 -6.14639E+03  2.82166E+03  4.60070E+03 -4.51408E+02  1.01582E+04 -5.80994E+03
  5.74237E+03  6.34881E+03  6.24335E+02  5.21989E+03 -9.85607E+03  1.04577E+04 -1.17422E+04  3.25407E+02
 -6.51639E+03 -3.62255E+03 -2.27582E+03 -8.36848E+03  1.05823E+04 -8.17560E+03  9.01346E+03  8.43946E+02
  3.14773E+03  9.40645E+03 -5.72378E+03  2.94738E+03 -1.28936E+04  8.19108E+03 -8.68866E+03 -3.23360E+03
 -5.98835E+03 -8.85416E+03  3.76622E+03 -1.25382E+04  9.95244E+03 -5.07049E+03  8.42508E+03  8.40877E+02
  1.00975E+04  8.52989E+03  2.59492E+03  6.43736E+03 -3.59657E+03  1.02859E+04 -5.20917E+03 -3.07664E+03
 -5.78729E+03 -6.73509E+03  7.56101E+02 -8.57003E+03  5.68331E+03 -8.55006E+03  3.13987E+03 -1.03157E+03
  1.71127E+03  1.38531E+03 -4.13045E+03  1.01233E+03 -1.28612E+03  8.74221E+02  8.88805E+03 -4.26367E+03
  9.40041E+03  3.84824E+02  6.58899E+03 -1.04243E+03  1.02752E+04  9.39565E+03  8.20523E+03  1.96098E+04
 -4.26972E+03  1.85877E+04 -1.10535E+04  1.30089E+04 -1.44933E+04  2.31406E+03 -7.75501E+03 -9.38399E+03
 -6.77105E+03 -1.18229E+04  1.40165E+03 -8.82748E+03  4.00075E+03 -2.48249E+03  8.07310E+03 -1.69549E+03
 -1.87301E+03 -3.16250E+03  2.29084E+03 -5.97406E+03  8.07201E+03 -4.86379E+03  4.42487E+03  3.41877E+03
  5.52077E+03  4.85574E+03  6.58967E+03  5.70307E+03  1.28178E+03  8.48460E+03 -3.15130E+03  5.12784E+03
 -8.44011E+03 -3.28094E+02 -5.12093E+03 -8.05185E+03 -1.29049E+03 -1.12021E+04  8.27309E+03 -1.17556E+04
  8.04711E+03 -6.12849E+03  1.24139E+04  2.93372E+03  1.08981E+04  1.04092E+04 -3.35158E+03  1.33886E+04
 -5.10500E+03  8.44373E+03 -4.96146E+03  1.97478E+03 -4.50808E+03 -2.16105E+03  9.94574E+02 -3.15391E+03
  1.11256E+03  3.46384E+02 -2.76952E+02  6.99221E+03 -6.36507E+03  7.77875E+02 -6.06689E+03 -5.08204E+03
 -4.24443E+03 -2.16735E+03 -3.54090E+02 -8.43834E+03  3.20736E+03 -7.64090E+03  1.15668E+04 -5.27329E+03
  5.13393E+03  3.34126E+03  5.21598E+03  1.01816E+04 -2.76925E+03  9.52030E+03 -7.37482E+03  4.18852E+03
 -1.08283E+04  2.42540E+03 -4.69111E+03 -7.48414E+03  4.56139E+02 -1.16246E+04  3.57146E+03 -4.22252E+03
  7.19157E+03  2.07634E+03  5.25037E+03  7.98965E+02  3.02939E+03  4.99169E+03  1.38556E+03  5.46441E+03
  4.09677E+03  3.79837E+03  6.64608E+03  5.11937E+03  4.27820E+03  2.83986E+03  3.49514E+02  5.10075E+03
 -3.02448E+03  7.02394E+03 -7.22624E+03  9.84424E+03 -8.54148E+03  2.45540E+03 -6.89458E+03 -1.69033E+03
  4.02022E+03 -8.93927E+03  3.30331E+03 -3.73290E+03  8.27415E+03 -1.03831E+04  7.01263E+03 -4.20661E+03
  6.79282E+03  6.73466E+03  3.83525E+03  2.64442E+03 -3.04002E+03  2.15286E+03 -2.64225E+03 -1.17972E+03
 -3.56076E+03 -8.82864E+03  3.47075E+03  2.39916E+03  3.57046E+02 -4.61647E+03 -3.73490E+03  8.62927E+02
  3.26861E+03  2.12739E+03  6.76588E+02 -7.40808E+02  3.15569E+03 -4.77838E+02  2.82708E+03 -3.36269E+03
 -2.54323E+03  1.07907E+03  6.62276E+03  3.81322E+03 -8.65586E+02 -2.76905E+01  1.86458E+03  6.00541E+03
 -6.89468E+03  6.59828E+02 -7.90275E+03 -1.38949E+03  2.58390E+03  3.14206E+03 -4.63667E+03 -2.42672E+03
  2.97593E+03 -5.74345E+02  9.00175E+02  8.79637E+02  2.45800E+03  1.83533E+03 -2.80766E+03  5.08886E+03
 -2.39267E+03  4.74195E+03 -3.18505E+03 -3.18508E+03 -1.02047E+03 -6.43367E+02  2.66398E+03 -2.86471E+03
  9.81823E+02 -3.26825E+03  4.40851E+03 -2.16604E+03  1.02611E+03 -1.75958E+03 -3.96584E+03  4.22946E+03
  2.74747E+03  5.16965E+03 -4.07795E+03 -1.11553E+03 -1.95716E+03 -6.09928E+03  5.32793E+03 -3.90036E+03
 -4.67519E+02 -7.11613E+02  5.12082E+03  2.45857E+03  1.55281E+03  4.75572E+03  3.73047E+02  3.59991E+03
 -1.57631E+03 -1.46112E+03 -2.94591E+03 -6.41652E+02  1.96453E+03 -4.18399E+03  5.95469E+03 -5.78426E+03
  1.64955E+03  1.80212E+02  5.60855E+02  2.24552E+03 -3.14677E+03  1.60327E+02 -7.07305E+02 -1.17664E+02
  4.73014E+03 -3.09290E+03  3.57760E+03 -3.28436E+03  1.44937E+03 -3.75161E+03  1.61817E+03  5.90034E+03
 -2.88230E+03  8.60214E+03  4.40131E+01  5.75130E+03 -2.89046E+03 -1.41342E+03 -5.58647E+03 -6.70106E+03
  2.86518E+03 -7.22570E+03  4.02377E+03 -1.17342E+04 -3.86459E+03 -8.51749E+03  1.64740E+03 -2.83583E+03
  3.98056E+03  3.67664E+03  2.49947E+03  3.42354E+03 -2.77973E+03  3.30223E+03 -8.58466E+03  5.90557E+03
 -1.98245E+03 -2.83022E+03  7.76146E+02  4.38466E+02  7.08045E+02 -4.61619E+03 -3.11638E+03 -2.36946E+03
 -1.53696E+03 -3.92290E+03 -3.52120E+03  6.39820E+02  1.90726E+03 -3.25789E+03 -3.61695E+02 -6.45003E+03
  6.97612E+03 -3.97476E+03  4.07657E+03  1.36568E+03  1.44228E+03 -3.32345E+02 -6.11308E+03  5.64271E+03
  7.99235E+01  4.09335E+03 -5.39908E+03  4.29373E+03 -5.61651E+03 -1.01018E+03 -4.06288E+03 -4.83645E+03
 -3.55500E+03 -4.20397E+03 -3.89478E+01 -8.07270E+02  3.47269E+03 -1.75749E+03  6.73949E+02 -1.77583E+02
  6.26280E+01  3.79934E+03 -8.58203E+02  3.54052E+03 -4.19998E+03  3.07951E+03 -3.63677E+03 -1.82783E+03
 -6.99919E+02  2.51873E+03  4.65621E+02  2.43294E+03 -5.59068E+02  1.07777E+03  1.70722E+03  1.64382E+03
 -7.95236E+02  3.92833E+03 -1.35350E+03 -4.18273E+03 -3.20766E+03  6.37315E+01 -1.20819E+03  1.58846E+03
  5.47602E+03 -3.78683E+03  7.17797E+02 -5.36290E+03  1.27502E+03 -3.26153E+03 -2.05755E+03  7.84869E+02
  4.48706E+03  4.63729E+03 -2.18862E+02  3.78048E+03  1.21376E+03  6.07379E+03 -2.13064E+03  2.89184E+03
 -3.55955E+03 -4.85186E+02  3.24832E+02 -1.74579E+03 -1.81123E+03 -1.86902E+03 -6.18614E+02  1.60773E+02
 -3.73840E+03  5.46624E+01  9.72552E+01  3.91612E+03  1.05691E+03  3.41871E+02  8.51299E+02  4.86891E+02
 -2.31032E+03  6.15116E+02  4.41243E+02  2.87172E+03  3.12086E+03  5.38852E+03 -1.39562E+03  3.47668E+03
