 $NMID ID='MM_0lb_SNR50_13hz_g50_70.RAW', FMTDAT='(8E13.5)'
 TRAMP=1., VOLUME=1. $END
  3.12041E+05  1.34484E+03  3.36801E+05  2.49839E+05  8.40530E+04  3.36173E+05 -1.32007E+05  2.53298E+05
 -1.92413E+05  8.26394E+04 -1.14454E+05 -3.15160E+04 -9.06762E+01 -5.12783E+04  5.32933E+04  8.24219E+02
  3.47378E+04  5.25117E+04 -1.75687E+04  7.38171E+04 -5.60142E+04  6.42936E+04 -8.70720E+04  3.22496E+04
 -8.18500E+04 -8.19034E+03 -5.85276E+04 -5.39415E+04 -1.70256E+04 -7.24547E+04  2.97799E+04 -4.57254E+04
  4.07567E+04  1.61819E+03  1.38570E+04  5.00138E+04 -3.20494E+04  4.28400E+04 -7.25068E+04  1.93194E+03
 -4.75314E+04 -6.01893E+04 -8.21039E+03 -7.67913E+04  3.37554E+04 -6.13729E+04  4.44794E+04 -1.55636E+04
  4.68860E+04  1.56143E+04  2.96170E+04  2.58110E+04  1.62638E+04  3.13680E+04 -7.74516E+03  2.51847E+04
 -1.57087E+04  1.66736E+04 -2.07251E+04 -8.47309E+03  5.32523E+03 -5.80021E+03  2.14237E+04  1.31856E+04
  5.43319E+03  3.62524E+04 -3.33273E+04  3.89976E+04 -6.49438E+04  5.52364E+03 -5.86765E+04 -4.20837E+04
 -3.47660E+03 -6.44018E+04  4.36894E+04 -4.74659E+04  6.33729E+04 -4.33602E+03  3.88065E+04  3.25025E+04
 -4.12604E+03  3.75172E+04 -3.35090E+04  2.07678E+04 -2.88307E+04 -2.14366E+03 -2.36681E+04 -1.25365E+04
 -1.07612E+04 -1.95084E+04 -6.08456E+02 -2.33296E+04  9.58261E+03 -1.93071E+04  1.72221E+04 -1.88327E+04
  1.09782E+04  8.11942E+03 -1.10099E+03  9.89870E+03 -2.05440E+04 -1.13859E+04 -9.98208E+03 -3.34498E+04
  2.66440E+04 -4.30303E+04  4.87861E+04 -2.32880E+04  4.02839E+04  1.79794E+04  1.13845E+04  4.17287E+04
 -1.33604E+04  2.93614E+04 -2.89585E+04  2.39790E+03 -8.55443E+03 -2.69066E+04  2.64952E+04 -3.22368E+04
  4.03220E+04 -6.44174E+03  3.77427E+04  1.97073E+04  1.67386E+04  4.94656E+04 -5.85657E+03  4.90754E+04
 -3.05446E+04  4.05250E+04 -4.60019E+04  9.53788E+03 -4.50256E+04 -1.73626E+04 -2.56961E+04 -3.46349E+04
  7.59152E+03 -4.36750E+04  3.55035E+04 -1.71048E+04  3.49813E+04  1.31166E+04  1.18378E+03  2.34397E+04
 -1.72312E+04  1.66443E+04 -1.43468E+04 -7.77303E+03  4.53418E+03 -9.92004E+03  1.51202E+04  8.22161E+03
  1.15572E+04  2.16269E+04 -2.52183E+03  2.31174E+04 -2.02441E+04  1.06151E+04 -3.20715E+04  1.76191E+03
 -2.26894E+04 -1.55087E+04 -7.79274E+03 -1.74340E+04  6.28714E+03 -2.02867E+04  1.54200E+04 -2.26755E+04
  2.69770E+04 -1.66646E+04  3.50002E+04  3.12194E+03  2.54507E+04  1.63424E+04  7.91677E+03  4.54299E+04
 -1.71734E+04  3.15714E+04 -2.63835E+04  1.36880E+04 -1.99855E+04 -1.31683E+04 -3.29428E+03 -1.58081E+04
  1.24893E+03 -1.55057E+03 -7.52000E+03  6.39586E+03 -1.76803E+04  9.43814E+03 -1.62566E+04 -8.80406E+03
 -7.80836E+03 -1.88473E+04  4.68405E+03 -1.93679E+04  1.99917E+04 -1.39075E+04  1.12738E+04 -4.58428E+03
  1.42732E+04  1.31086E+04 -1.84272E+03  2.32559E+04 -1.86644E+04  1.27611E+04 -1.91108E+04 -1.77170E+03
 -1.25581E+04 -1.67636E+04 -2.01433E+03 -2.30149E+04  1.00300E+04 -1.95205E+04  2.32346E+04 -8.67804E+03
  1.73652E+04 -1.73838E+03  1.09141E+04  5.66306E+03  6.93936E+03  5.47968E+03  1.10151E+04  2.85924E+03
  1.63357E+04  2.94047E+02  2.00891E+04  1.33587E+04  1.27808E+04  3.10125E+04  1.14119E+03  3.35425E+04
 -1.91895E+04  2.93932E+04 -3.61357E+04  1.80851E+04 -3.90376E+04  2.14680E+02 -3.09446E+04 -2.03653E+04
 -1.71448E+04 -2.68992E+04  1.00889E+04 -2.37951E+04  2.04397E+04 -1.21939E+04  2.20125E+04  4.48633E+03
  9.49850E+03  1.23885E+04 -8.62150E+03  1.51069E+04 -1.82528E+04  4.41768E+03 -1.47259E+04 -1.10131E+04
 -4.50885E+03 -1.91008E+04  1.10612E+04 -1.26879E+04  5.35334E+03 -2.62457E+03  6.95599E+03  8.31517E+03
 -6.56585E+03  2.83667E+03 -4.98814E+03 -6.17117E+03 -1.75971E+03 -1.37674E+04  1.42321E+04 -2.06565E+04
  1.82257E+04 -9.46815E+03  2.06330E+04  2.19930E+03  1.18740E+04  1.90194E+04  1.13071E+04  2.36868E+04
 -5.23225E+03  1.98648E+04 -1.68013E+04  1.55148E+04 -1.72778E+04  2.68919E+03 -1.70947E+04 -3.69134E+03
 -5.70642E+03 -4.70381E+03 -2.52294E+03 -4.25990E+02 -7.17003E+03  7.21312E+03 -8.20487E+03  6.59171E+03
 -7.58135E+03  1.25752E+02 -9.26219E+03 -1.21416E+04 -5.55414E+03 -1.63226E+04  8.24632E+03 -1.11211E+04
  1.07210E+04 -7.34273E+03  5.49799E+03 -3.21740E+02 -1.32628E+03  4.11686E+02 -6.95154E+03 -1.71299E+03
 -4.22791E+03 -8.44776E+03 -1.44087E+03 -1.45917E+04  2.73902E+02 -1.26010E+04  1.41654E+04 -6.11105E+03
  2.07936E+04 -5.60888E+02  1.66846E+04  5.43459E+03  5.79714E+03  9.32952E+03 -6.13092E+03  1.28340E+04
 -8.04868E+03  2.82875E+03 -4.05493E+03 -3.03929E+03  9.41566E+02 -7.97322E+03  9.22787E+03  1.34835E+03
  4.68331E+03  1.21072E+04 -1.99229E+03  6.17836E+03 -5.68032E+03  6.24598E+03 -1.73564E+04  6.63224E+02
 -1.10382E+04 -7.82381E+03  1.04250E+03 -8.35222E+03  5.40122E+03 -8.85096E+03  6.08477E+03  2.28693E+03
  8.04464E+02  1.05182E+04 -1.10166E+04  6.79423E+03 -1.04266E+04  2.41654E+03 -9.25958E+03 -5.01516E+03
 -5.06081E+03 -1.48208E+04  2.95225E+03 -1.03918E+04  6.99015E+03 -7.65353E+03  8.64752E+03  5.05893E+03
  6.96009E+03  9.49769E+03 -3.72119E+02  1.49947E+04 -1.37586E+04  2.72010E+03 -1.02106E+04  7.21310E+02
 -9.30772E+03 -6.92713E+03 -7.91156E+03 -9.16289E+03  4.43700E+03 -1.60538E+03  6.64259E+01 -4.74538E+03
  3.07542E+03  2.54797E+03 -2.33637E+03 -1.80390E+03 -2.66238E+03 -4.97664E+02 -1.18839E+00 -8.29125E+03
  1.14297E+04 -4.14172E+03  4.62183E+03 -1.08677E+02  1.01862E+04  1.24073E+04  6.51184E+03  9.43100E+03
 -1.55090E+03  1.57778E+04 -2.05168E+04  1.84046E+04 -2.23855E+04  3.59475E+03 -1.53827E+04 -1.75611E+03
 -5.95987E+03 -1.03996E+04  2.63707E+03 -1.42136E+04 -1.55692E+03 -4.33808E+03  7.93183E+03 -4.68481E+03
  5.60471E+03 -1.82804E+03  5.21152E+03  8.86322E+02  4.93475E+03 -4.70039E+03  8.36932E+03  2.81955E+03
  2.81802E+03 -3.91901E+02  4.68342E+03  5.54847E+03  1.06461E+03  1.07809E+04 -4.92688E+03  4.54150E+03
 -1.19327E+04  4.41203E+02 -4.65612E+03 -1.07620E+04  1.58958E+03 -1.11772E+04  8.19897E+03 -8.55143E+03
  9.98724E+03 -6.92293E+03  1.26905E+04 -3.55466E+03  7.90042E+03  1.14621E+04  1.78619E+03  1.33179E+04
 -2.80569E+03  1.14835E+04 -9.35083E+03  6.54034E+03 -6.61317E+03 -3.61576E+03  1.00262E+03 -5.57930E+01
 -1.29388E+03  3.63488E+03 -3.82888E+03  5.84172E+03 -1.22847E+03  4.89722E+03 -8.40947E+03  6.38860E+02
 -7.77687E+03 -8.15875E+03  9.22945E+02 -5.65960E+03  3.26916E+03 -4.51184E+03  7.61858E+03 -3.41095E+03
  5.71007E+03  8.51584E+02  4.80271E+03  4.99693E+03  5.05161E+03  9.89666E+03 -6.47266E+03  3.21017E+03
 -1.29027E+04  3.02480E+03 -5.74977E+03 -5.37412E+03  4.82371E+02 -7.59768E+03  9.02258E+03 -3.94193E+03
  7.23520E+03 -3.02367E+03 -3.29694E+02 -1.22591E+03 -1.45827E+03  3.83495E+03 -2.57163E+02  2.19883E+03
  6.79086E+03  6.20371E+02  9.29446E+03 -2.23983E+02  1.74166E+03  1.12229E+03  1.97784E+03  7.07426E+03
 -5.35998E+03  8.43895E+03 -6.27463E+03  2.02650E+03 -1.26221E+04  4.27557E+03 -1.04266E+04 -5.89322E+03
 -3.67190E+03 -6.41880E+03 -4.17461E+02 -1.13523E+04 -1.23278E+03 -1.02738E+04  8.49465E+03 -3.83228E+03
  2.81200E+03  5.26865E+03 -3.45299E+02  8.12726E+03 -5.20245E+03  5.19180E+03 -1.65913E+03 -6.03234E+03
  4.23752E+01 -5.78504E+03  6.08782E+02 -3.88762E+03  2.64652E+03  1.98659E+03  2.80587E+03 -5.13469E+03
  8.39524E+02  3.49785E+03  4.75860E+03  5.23539E+01 -5.63165E+02  3.15617E+03  5.21721E+03  1.10811E+03
 -2.14528E+03 -1.20876E+03  8.13452E+03  2.14872E+02  7.46228E+03  3.31356E+03  3.77426E+03  6.29432E+03
 -4.43783E+03  1.96560E+03 -5.53975E+03  4.30158E+02 -5.74039E+03  4.38843E+03  3.95240E+03 -2.18186E+03
 -2.75461E+03 -2.91653E+03  9.17376E+03 -6.83324E+01 -1.66371E+01  4.24111E+03 -5.04058E+02  5.02892E+03
 -1.21664E+03 -3.44424E+03 -6.10848E+03 -4.12351E+02 -2.08000E+03 -4.68592E+03 -4.74469E+03 -5.61261E+03
  6.44608E+03 -5.13442E+03  6.14029E+03  1.85745E+03  6.10284E+03 -1.67670E+03 -2.87829E+03  6.78642E+03
 -3.96694E+03  1.63025E+03  6.81423E+02 -4.51524E+03  3.86086E+03 -3.20518E+03  5.47062E+03 -1.18438E+04
  3.10115E+02  1.12249E+03  6.23087E+02  5.02444E+03 -5.44374E+02  6.12173E+03  1.96395E+03  5.46911E+03
 -2.27993E+03  6.05763E+03 -1.85472E+03  5.05384E+03 -4.72920E+03 -6.05923E+03  2.78106E+03 -3.84496E+03
  8.29712E+03  9.05773E+02  2.99539E+03  1.50458E+03 -3.11634E+03  5.44060E+03 -3.87562E+03  3.54933E+03
 -9.37769E+02  1.48043E+03 -6.65711E+03 -3.57906E+03  5.53789E+03 -2.17064E+02  1.23988E+03  1.12222E+03
  4.36296E+02  2.69622E+03 -6.51180E+03 -4.05522E+03 -6.04481E+03 -2.49587E+03 -1.04091E+04 -7.15127E+03
 -8.39416E+02 -7.96506E+03 -4.30311E+02 -9.57018E+03  2.72503E+03 -7.18366E+03  7.10332E+03 -9.50762E+02
  4.32965E+03  1.76053E+02 -5.85393E+02  8.36905E+03  2.71062E+03  4.46850E+03  6.79780E+01  5.74962E+03
  8.13639E+02  1.56373E+03 -5.30533E+02 -4.24873E+03  3.63040E+03 -1.51613E+02 -4.65590E+03  1.32660E+03
  1.75395E+03 -1.82826E+03 -4.19586E+03 -2.80373E+02 -2.60543E+03 -5.35172E+03  1.23084E+03  1.33531E+03
  3.69407E+03 -3.67887E+03  1.29987E+03  1.22700E+03  2.49884E+03 -2.89370E+02  6.46052E+03  1.55507E+03
 -1.21820E+03  5.01550E+03 -2.52061E+03  1.47336E+03 -3.93688E+03  1.22429E+02 -5.55101E+03 -7.30218E+03
 -5.14497E+03 -5.86417E+03  2.15381E+03 -5.99915E+03  7.40766E+03 -2.58484E+03  1.08228E+03 -4.38992E+00
  9.78976E+02  5.96576E+03  1.53101E+03  4.76371E+03 -1.34002E+03 -1.08854E+02  4.03513E+03 -1.22752E+03
 -5.09766E+03 -3.34149E+03  1.54660E+03  1.73538E+03  4.88312E+03  3.25213E+03 -1.15759E+03  8.91707E+02
  1.11545E+03  1.05930E+03  1.63897E+03 -2.55031E+03  2.05070E+03 -1.99689E+02 -2.83789E+02 -2.62171E+03
  1.82194E+02 -4.37865E+03  1.46331E+03  4.48103E+03  5.70229E+03  1.61037E+03  3.64718E+03  3.03453E+03
 -1.01361E+03 -2.40300E+03 -7.22507E+03  2.92232E+03 -5.23855E+02  1.63862E+03  2.26995E+03  4.09503E+02
 -4.48028E+03 -1.46205E+02 -3.56360E+03  3.90358E+02  2.14345E+01 -8.61597E+02 -6.22377E+03 -2.04998E+03
 -4.46216E+03 -1.16546E+03 -2.96890E+03  4.60125E+02 -1.03721E+03 -2.53412E+03  8.86233E+02  4.45653E+02
  3.06774E+03  5.91517E+01  1.39958E+02  1.09803E+03 -4.67890E+03  1.53434E+03  4.91249E+02  4.07965E+03
