 $NMID ID='MM_0lb_SNR50_17hz_g40_20.RAW', FMTDAT='(8E13.5)'
 TRAMP=1., VOLUME=1. $END
  3.09467E+05  1.97667E+03  3.38957E+05  2.52938E+05  8.17364E+04  3.37490E+05 -1.33570E+05  2.51723E+05
 -1.90149E+05  8.26361E+04 -1.10928E+05 -2.99076E+04  3.81835E+03 -5.20157E+04  5.31412E+04  9.64501E+02
  3.31439E+04  5.33653E+04 -1.48616E+04  7.13915E+04 -5.66036E+04  5.82741E+04 -8.32923E+04  3.10528E+04
 -7.70307E+04 -1.23347E+04 -5.81508E+04 -4.86177E+04 -1.51205E+04 -6.76205E+04  2.71470E+04 -4.18997E+04
  3.81095E+04  8.35587E+03  1.37048E+04  4.52096E+04 -3.15150E+04  5.21586E+04 -6.24917E+04  2.71714E+03
 -5.70358E+04 -5.82208E+04 -9.38592E+03 -7.63066E+04  3.80622E+04 -5.20528E+04  4.84922E+04 -1.61596E+04
  4.22379E+04  1.04547E+04  2.80275E+04  2.67731E+04  1.67133E+04  2.53055E+04 -2.03890E+03  2.91726E+04
 -2.31903E+04  1.33743E+04 -1.38469E+04 -6.75523E+03  4.81592E+03 -5.56904E+03  1.70351E+04  1.40192E+04
  1.03734E+04  3.85962E+04 -3.19583E+04  3.22068E+04 -6.04739E+04  6.53334E+03 -4.93408E+04 -3.87215E+04
 -1.27957E+04 -6.07106E+04  3.39017E+04 -4.58943E+04  5.55648E+04  2.59793E+02  3.31177E+04  2.81106E+04
 -5.05842E+03  3.38556E+04 -3.24950E+04  1.31641E+04 -3.05614E+04 -1.43429E+03 -9.87628E+03 -8.32110E+03
 -7.06865E+03 -1.35954E+04 -2.73103E+03 -1.66753E+04  6.01579E+03 -2.17697E+04  1.41755E+04 -1.38659E+04
  1.33349E+04  4.69402E+03 -8.03230E+03  1.18080E+04 -1.86688E+04 -5.73257E+03 -8.16403E+03 -2.97120E+04
  2.34272E+04 -3.91338E+04  4.51435E+04 -2.25346E+04  4.40332E+04  1.76756E+04  8.73428E+03  4.15321E+04
 -1.64152E+04  2.91516E+04 -2.59945E+04  5.53269E+03 -1.21795E+04 -2.72041E+04  1.34393E+04 -3.13960E+04
  3.56304E+04 -4.78934E+03  3.24754E+04  2.00690E+04  1.40646E+04  4.56219E+04 -6.92013E+03  4.68001E+04
 -2.53763E+04  3.11555E+04 -3.74747E+04  1.15248E+04 -3.69526E+04 -1.57851E+04 -1.99451E+04 -3.82739E+04
  4.90392E+03 -3.06771E+04  2.76464E+04 -1.35985E+04  2.85002E+04  1.12235E+04  3.85451E+03  2.23074E+04
 -1.40059E+04  7.77729E+03 -1.14350E+04 -6.59893E+03  6.65065E+03 -1.09851E+04  1.77502E+04  4.89289E+03
  1.28263E+04  2.05598E+04 -6.29095E+03  2.52104E+04 -2.40969E+04  4.96848E+03 -2.69657E+04 -2.83829E+03
 -1.80531E+04 -1.73334E+04 -1.61999E+03 -1.78438E+04 -3.43345E+02 -2.16882E+04  6.96287E+03 -1.17164E+04
  2.59157E+04 -1.35442E+04  3.23465E+04  8.65872E+02  2.02698E+04  1.98988E+04  3.28469E+03  3.34477E+04
 -1.54504E+04  2.85853E+04 -2.55452E+04  9.24866E+03 -2.10612E+04 -1.51202E+04 -4.96331E+03 -1.56965E+04
  3.61413E+03 -4.35346E+03 -4.92735E+03  6.42795E+03 -9.80576E+03  5.26872E+03 -1.29751E+04 -7.05872E+03
 -6.81307E+03 -1.47497E+04  3.91442E+03 -1.67591E+04  1.54245E+04 -1.20912E+04  1.47708E+04  2.24844E+03
  6.57482E+03  4.63754E+03  1.82666E+02  1.47944E+04 -1.05457E+04  7.62013E+03 -1.57337E+04 -2.78581E+03
 -1.06733E+04 -1.41062E+04 -6.13770E+02 -1.98339E+04  9.36841E+03 -1.48552E+04  2.02519E+04 -7.29061E+03
  1.04994E+04  1.50402E+03  1.06464E+04  4.67363E+03  2.68370E+03  1.45402E+03  8.67689E+03 -3.81692E+03
  1.27488E+04  1.95809E+03  1.52470E+04  1.47434E+04  6.13990E+03  2.50627E+04 -1.42291E+02  2.41337E+04
 -1.47595E+04  2.27995E+04 -2.21708E+04  1.01115E+04 -2.67852E+04 -2.49974E+03 -2.33463E+04 -1.12776E+04
 -9.94413E+03 -2.95800E+04  7.96070E+03 -2.12357E+04  2.19045E+04 -8.47284E+03  1.51705E+04 -2.26124E+02
  4.83405E+03  1.17224E+04 -1.10422E+04  1.40922E+04 -1.38021E+04  3.40145E+03 -1.49227E+04 -6.22336E+03
 -1.75008E+03 -1.11678E+04  2.46486E+03 -8.16287E+03  1.13577E+04 -1.14455E+03  4.28334E+03  3.10381E+03
 -6.60760E+03  2.86464E+03 -2.31645E+03 -7.44359E+03  1.84484E+02 -8.86851E+03  1.28282E+04 -1.01075E+04
  1.31425E+04 -2.16502E+03  1.52546E+04  1.91917E+03  1.38877E+04  1.22474E+04  5.96770E+03  1.65419E+04
  2.68942E+03  1.70571E+04 -1.15477E+04  1.42435E+04 -1.46949E+04  5.02797E+03 -8.92897E+03 -2.72782E+03
 -6.32125E+03 -7.12566E+02 -5.83449E+03  8.59274E+02 -1.50707E+03 -2.53021E+03 -3.48742E+03  4.46234E+03
 -1.09576E+04 -1.88490E+03 -8.69483E+03 -8.28433E+03 -6.20968E+03 -1.22846E+04  5.78878E+03 -6.81655E+03
  4.61219E+03 -5.55688E+03  5.06636E+03  1.48480E+03 -1.31900E+03  9.88071E+03 -2.59688E+03 -2.38688E+03
 -9.21702E+03 -5.32040E+03  9.82811E+02 -1.36060E+04 -2.50791E+03 -8.61978E+03  5.76622E+03 -4.02292E+03
  1.29479E+04  1.41681E+03  1.00288E+04  4.36497E+03  3.38958E+03  1.01624E+04 -7.24411E+03  1.02495E+04
 -3.44648E+03  9.78892E+02 -5.00712E+03 -1.84902E+02  2.69958E+03 -5.52930E+03  1.05244E+03 -4.80759E+03
  5.57586E+03  6.37575E+03  8.85062E+02  8.21546E+03 -5.57137E+03  5.92544E+03 -8.79322E+03  5.49685E+03
 -3.44077E+03 -3.25803E+03  7.06557E+03 -6.09623E+03  6.90607E+03 -4.26367E+03 -1.62297E+03  1.96908E+03
  2.04723E+03  7.39078E+03 -4.31682E+03  2.74126E+03 -2.68048E+03  2.49278E+03 -6.37978E+03 -2.52677E+03
 -6.02174E+03 -7.36255E+03  2.87023E+03 -8.33181E+03  8.80128E+03 -5.41566E+03  1.10085E+04  2.82859E+03
  9.68258E+03  6.87816E+03  8.83435E+02  1.10150E+04 -1.10542E+04  7.39575E+03 -8.69364E+03  1.94402E+03
 -1.04459E+04 -9.13404E+03  2.13194E+02 -3.60263E+03  5.56146E+02 -5.51164E+03  5.62723E+03 -6.51655E+03
  1.38222E+03 -2.12935E+03  2.85283E+03  2.43638E+01 -2.11738E+02 -3.25683E+03  1.41347E+03 -1.68927E+03
  5.39080E+03 -1.84405E+03  4.03711E+03  3.90986E+03  5.28395E+03  3.47358E+03  6.42309E+03  8.56881E+03
  2.94019E+02  9.09817E+03 -8.45364E+03  4.04350E+03 -1.10684E+04  1.23257E+03 -8.92465E+03 -1.67928E+03
 -3.89391E+03 -3.54088E+03  1.77643E+03 -2.14682E+03  2.95810E+03 -2.01250E+03 -7.70485E+02 -2.64453E+03
  1.64967E+03 -1.34539E+03 -1.08785E+02 -1.00281E+03  6.04556E+03 -2.26664E+03  4.46687E+03 -8.08109E+01
  8.05882E+02 -2.37183E+03 -1.62473E+03  2.60211E+03 -1.66455E+03  4.55698E+02 -6.48201E+03  5.95363E+03
 -2.46344E+03 -4.49915E+03 -5.65162E+03 -2.78700E+03  4.81091E+02 -7.98222E+03  4.81409E+03 -4.02386E+03
  7.05141E+03 -4.52465E+03  6.70514E+03  1.58554E+03  7.02524E+03  4.26423E+03 -9.38189E+02  5.27954E+03
 -5.50396E+03  4.30180E+03 -3.27119E+03  2.48724E+03 -1.23888E+03 -2.99401E+03 -4.05861E+02  8.47038E+02
  1.61294E+03 -1.49028E+03  2.85148E+03  7.86964E+03 -2.35326E+03  2.42202E+03 -1.57991E+03  1.65880E+03
 -6.02563E+03 -3.27097E+03  1.99054E+03 -6.68822E+02  2.29100E+03 -3.50753E+03  3.30447E+03 -2.43181E+03
  5.72872E+02  5.87251E+03 -1.30437E+03 -1.53354E+03 -3.43742E+03  6.12067E+03 -4.28601E+02  2.52809E+03
 -7.51074E+03 -4.17358E+03 -5.08832E+03 -4.01024E+03 -8.12105E+02 -4.46343E+03  6.27693E+03 -1.35230E+03
  2.96512E+03 -9.96445E+02 -6.88526E+02 -2.14900E+03 -7.21707E+02  3.50016E+03  4.77866E+02  3.05849E+03
  7.03303E+02  1.62229E+03  2.46088E+03  4.20578E+02  5.41578E+02  1.86419E+03  1.45415E+03 -1.52807E+03
 -4.08835E+02  2.15398E+03 -7.29680E+02  4.77447E+03 -2.69065E+03  1.26269E+03 -8.74102E+03 -1.13074E+03
 -4.99570E+03  3.18481E+03 -1.12785E+03 -6.81838E+03  3.37547E+03 -3.27381E+03  5.37328E+03 -4.24214E+03
  4.24212E+03  4.59863E+02 -1.24487E+03 -4.56610E+02 -8.36846E+02  2.52698E+03 -3.94383E+03 -9.50110E+02
  1.14443E+03 -1.91055E+03  1.04302E+03 -4.60520E+03  2.45573E+03 -1.90794E+03  1.83645E+03 -1.83414E+03
  1.81597E+03  5.22158E+03 -1.74483E+03  4.40969E+02  3.60079E+02  4.35797E+02 -8.90195E+02 -4.71738E+02
  2.13295E+03  1.78282E+03  5.14965E+03  3.54200E+03  2.05431E+03 -3.16220E+03 -2.30504E+02  1.29887E+03
 -2.91823E+03 -2.39573E+03  1.59677E+03 -2.48063E+03 -3.55838E+03 -2.03422E+03  1.18010E+03 -3.77510E+03
  6.09078E+02 -4.98550E+02  1.79301E+03 -3.41257E+03  3.62005E+03 -1.27639E+03  3.69367E+03 -1.54564E+03
 -6.57144E+02  3.48071E+03 -5.58010E+03  2.64061E+02  1.81712E+03 -3.31046E+03  7.31745E+02  2.35656E+03
  1.89068E+03 -6.19776E+01  6.19764E+02  9.57518E+02 -7.20113E+02  7.04656E+02 -6.13255E+03  1.09151E+03
  9.82946E+02 -4.69479E+03 -2.56137E+03 -2.25829E+03 -1.78769E+03 -6.42159E+02  1.58771E+03 -7.93916E+03
  1.73128E+03  1.42414E+03  1.86534E+03  2.94517E+03 -6.83406E+02  6.29560E+03 -2.54703E+03  3.54819E+03
 -2.46478E+03 -1.86286E+03  1.56007E+03  2.15318E+03 -8.49552E+02 -8.97378E+02 -3.84186E+03 -2.86518E+03
 -2.31179E+03 -1.60052E+03  9.37540E+01  3.67348E+03  2.10093E+03  3.90665E+03 -6.25450E+02  6.55818E+03
 -5.23660E+03  9.20265E+02  3.44737E+01 -1.67905E+03  9.55923E+02  2.76596E+03 -1.80534E+03 -7.88125E+02
 -2.97465E+03  3.70877E+03 -2.32324E+03  5.05802E+03  2.18463E+03  4.07360E+02 -3.03812E+03 -3.19207E+03
 -1.03503E+03 -1.13116E+03  1.45685E+03 -6.25125E+03 -2.32003E+02 -6.64194E+03  4.01521E+03 -2.97258E+03
  3.69279E+03 -4.45805E+02  2.56073E+03  5.84078E+02  1.67014E+03  7.98400E+01 -2.50480E+03  2.59800E+03
 -1.31845E+03  3.36260E+03 -1.17697E+03  3.24102E+03 -1.36758E+03  2.17979E+03 -2.32115E+03  5.11684E+02
 -3.80998E+03 -8.89891E+01  8.01584E+02 -9.47569E+02  2.40037E+03  1.94628E+02 -3.16959E+02 -2.19566E+03
 -1.44487E+02  1.28231E+03  3.11072E+03  2.26318E+03  1.04034E+03 -5.03490E+02  3.53629E+03 -2.30325E+03
 -1.18722E+03 -1.69963E+01 -3.74144E+03  1.02218E+03 -4.39904E+03 -1.30728E+02  1.02462E+03 -1.60351E+03
 -4.46166E+03  2.01434E+03 -1.99113E+03 -2.62042E+03 -2.33007E+03 -3.31308E+03 -2.32711E+03  1.69704E+03
  5.06776E+02 -1.18662E+03  2.46076E+03 -1.86058E+03  1.76211E+03  3.79437E+03  2.65017E+03 -5.36831E+03
 -4.62308E+03 -8.68622E+02  5.17461E+03  1.71213E+03 -7.73657E+01 -1.31902E+03 -1.11071E+03  3.84937E+03
  4.87614E+03  2.62157E+03 -7.03151E+01 -9.71689E+01  2.63553E+03 -5.78203E+02  4.26030E+02 -1.43129E+03
  4.28539E+03  1.20962E+03 -1.08340E+03 -2.97405E+03 -2.90980E+03  3.53440E+02 -1.28077E+03  3.99002E+03
  2.70762E+03  1.00515E+03  2.60010E+02  2.21578E+03 -1.28437E+02  6.04353E+03  2.43391E+03 -2.93820E+03
 -2.64214E+03 -8.65334E+02 -1.49852E+03  2.90862E+03 -1.98007E+03 -2.11730E+03 -2.29260E+03 -1.45079E+03
  1.79665E+03 -2.82603E+03 -1.01718E+03  1.04414E+03 -2.25480E+02  7.43261E+02 -2.78654E+03  2.19781E+03
  2.50584E+03  1.19762E+03  2.32817E+02 -1.25839E+03 -4.63250E+03 -5.95363E+02 -7.32281E+02  7.89733E+02
