 $NMID ID='MM_0lb_SNR50_17hz_g40_59.RAW', FMTDAT='(8E13.5)'
 TRAMP=1., VOLUME=1. $END
  3.08150E+05  4.72637E+03  3.38622E+05  2.50882E+05  8.55710E+04  3.36134E+05 -1.30513E+05  2.46467E+05
 -1.90685E+05  8.05879E+04 -1.10353E+05 -3.57318E+04  1.65170E+03 -5.11047E+04  5.55107E+04  1.80265E+03
  3.98485E+04  5.73552E+04 -1.67391E+04  7.15755E+04 -5.74716E+04  6.67251E+04 -8.35486E+04  3.47526E+04
 -7.77659E+04 -1.39267E+04 -5.86325E+04 -5.06304E+04 -1.40266E+04 -6.45413E+04  2.48226E+04 -4.49988E+04
  4.16427E+04  1.05063E+03  1.40610E+04  4.15677E+04 -3.16573E+04  4.86066E+04 -6.50389E+04 -8.92663E+02
 -5.07969E+04 -5.74247E+04 -6.47854E+03 -7.43406E+04  3.20799E+04 -5.72182E+04  4.93561E+04 -1.39641E+04
  3.83423E+04  1.01769E+04  2.79126E+04  2.26614E+04  1.31926E+04  3.40880E+04 -2.01796E+03  2.65084E+04
 -1.87138E+04  1.11620E+04 -2.10156E+04 -2.68640E+03  4.28173E+03 -7.68133E+03  2.30663E+04  1.08410E+04
  8.39390E+03  3.06071E+04 -3.18044E+04  3.54912E+04 -6.11097E+04  1.05203E+03 -5.51879E+04 -3.96939E+04
 -1.00515E+04 -5.84455E+04  3.49964E+04 -4.27582E+04  5.46557E+04  1.27948E+03  2.95330E+04  3.12230E+04
 -4.92539E+03  3.14142E+04 -2.84212E+04  1.47397E+04 -2.87161E+04 -1.57515E+03 -1.56931E+04 -1.31871E+04
 -8.72825E+03 -1.12251E+04 -3.11096E+03 -1.61751E+04  5.92363E+03 -2.00701E+04  1.32259E+04 -1.44954E+04
  1.28212E+04  2.63147E+03 -7.56514E+03  1.09701E+04 -2.02936E+04 -2.75940E+03 -6.06913E+03 -2.95355E+04
  2.01058E+04 -4.19710E+04  4.26094E+04 -2.04192E+04  4.09173E+04  1.91876E+04  1.77468E+04  4.31822E+04
 -1.77577E+04  3.08676E+04 -2.49269E+04 -1.53618E+03 -1.06537E+04 -2.59142E+04  2.04555E+04 -3.14984E+04
  3.43465E+04 -6.45686E+03  3.13726E+04  2.26998E+04  2.10696E+04  4.31780E+04 -1.01983E+04  4.71509E+04
 -2.91509E+04  2.90046E+04 -3.77656E+04  6.29197E+03 -4.23872E+04 -1.62559E+04 -1.94330E+04 -3.32559E+04
  7.03181E+03 -3.38379E+04  2.84529E+04 -1.40706E+04  3.19808E+04  1.38606E+04  7.84700E+03  2.10870E+04
 -1.02813E+04  3.92991E+03 -1.21883E+04 -6.24060E+03  3.43573E+03 -7.40049E+03  1.94767E+04  8.09814E+03
  1.09564E+04  2.39385E+04 -5.84177E+03  1.94602E+04 -1.99530E+04  6.48342E+03 -2.36047E+04 -7.07008E+03
 -1.39335E+04 -2.08082E+04 -2.20322E+03 -1.52641E+04  4.58238E+03 -1.13167E+04  1.45957E+04 -1.44942E+04
  2.12013E+04 -1.37153E+04  2.88839E+04  4.09800E+03  2.22293E+04  2.04238E+04  4.27782E+03  3.29848E+04
 -1.30554E+04  2.71050E+04 -2.62715E+04  1.07534E+04 -1.71144E+04 -1.33295E+04 -7.28868E+03 -1.14112E+04
  9.83724E+03 -5.89280E+03 -1.72923E+03  5.68431E+03 -1.36995E+04  5.34776E+03 -1.20169E+04 -4.45375E+03
 -1.26697E+04 -1.55836E+04  2.51750E+03 -2.34186E+04  7.73654E+03 -1.35584E+04  1.35797E+04 -1.48728E+03
  5.28966E+03  1.22294E+04  4.88244E+02  1.87453E+04 -7.55514E+03  9.11850E+03 -1.92132E+04 -2.57360E+03
 -9.44111E+03 -1.46446E+04 -1.03543E+03 -2.20333E+04  7.84009E+03 -1.65949E+04  1.37580E+04 -6.82155E+03
  1.46139E+04 -2.84650E+03  1.19463E+04  5.64943E+03  3.62507E+03  9.67166E+02  6.55064E+03 -1.77689E+02
  1.63729E+04  3.47501E+03  2.11613E+04  1.48652E+04  1.13808E+04  2.77809E+04 -2.03748E+03  3.02456E+04
 -1.80098E+04  2.87313E+04 -2.35375E+04  7.12289E+03 -2.69127E+04 -3.58035E+03 -2.04709E+04 -1.95201E+04
 -1.11136E+04 -2.19932E+04  2.00136E+03 -2.04543E+04  2.00827E+04 -1.11692E+04  1.62469E+04  2.67950E+03
  6.22320E+03  1.32969E+04 -8.11112E+03  9.20046E+03 -1.61047E+04  8.21285E+03 -1.20115E+04 -7.94259E+03
 -1.01779E+03 -1.58235E+04  6.14450E+03 -1.12343E+04  1.24294E+04  2.00700E+03 -6.17555E+02  9.62286E+03
 -5.16647E+03  4.84477E+03 -2.64058E+03  3.16968E+02 -3.28933E+03 -1.01023E+04  6.35938E+03 -8.59765E+03
  1.06741E+04 -1.01934E+04  1.18739E+04  9.59582E+01  1.13499E+04  8.82676E+03  6.93209E+03  1.56809E+04
 -1.01070E+04  1.84768E+04 -1.26396E+04  6.51674E+03 -7.98604E+03  5.45250E+03 -9.69190E+03 -1.80916E+03
 -8.72506E+03 -1.73775E+03 -1.78752E+03 -3.04001E+03 -2.93353E+02  3.00836E+03 -6.12039E+03  6.31111E+03
 -6.01269E+03 -1.56436E+03 -1.14642E+04 -7.22263E+03  2.31997E+03 -1.28106E+04  4.91197E+03 -1.08628E+04
  4.27760E+03 -3.34475E+03  7.64678E+03  7.13544E+02  1.33677E+03  2.16430E+03 -1.80784E+03  4.47585E+03
 -5.42865E+03 -5.52332E+03 -2.28891E+03 -6.49094E+03  7.19995E+03 -8.45729E+03  7.56601E+03 -8.25282E+02
  1.12852E+04  1.92571E+03  5.73561E+03  1.13072E+04  1.07957E+02  1.44964E+04 -5.15004E+03  7.76560E+03
 -8.60686E+03  1.24605E+01 -1.49961E+03  3.57393E+02  2.53999E+03 -6.96515E+03  5.07002E+03 -1.70149E+03
  6.31649E+03 -1.39260E+03 -1.32664E+03  5.81388E+03 -7.92870E+03  7.53210E+03 -9.51025E+03  3.84523E+03
 -3.40672E+03 -6.75337E+03  2.03555E+03 -5.40530E+03  5.89126E+03 -4.42397E+03  4.74847E+02 -2.59255E+03
  3.96073E+03  8.82960E+03 -5.47362E+02  9.18929E+03 -3.63682E+03 -1.69934E+02 -6.88878E+03 -2.32639E+03
 -4.78809E+03 -6.12985E+03  1.85609E+03 -1.09203E+04  7.21506E+03 -6.66593E+03  1.53124E+04  1.54730E+03
 -9.66364E+02  4.53065E+03  2.03864E+03  6.75298E+03 -2.63446E+03  1.86517E+03 -3.76116E+03 -6.00761E+02
 -6.41637E+03 -6.97857E+03  3.83338E+02 -4.63177E+03  6.50330E+03 -4.97429E+03  2.58975E+03 -1.64048E+03
  5.38927E+03  2.29644E+01 -1.53308E+03  9.60337E+02  3.89795E+02  3.24784E+02 -9.23168E+02 -3.41213E+02
  5.35864E+03 -2.50699E+03  6.58601E+03 -1.79626E+01  3.73348E+03 -1.77615E+02  6.74315E+03  5.33605E+03
 -3.63311E+03  9.12401E+03 -6.10344E+03  9.25162E+03 -1.07155E+04 -8.41259E+01 -9.63949E+03 -3.02322E+03
 -8.38422E+03 -6.89509E+03 -1.90032E+03 -8.30070E+03  3.57351E+03 -3.19224E+03  3.35074E+02 -1.78153E+03
  3.77928E+02 -5.10284E+03  7.77259E+03 -4.49241E+03  7.01549E+03  8.35277E+02  4.47484E+03  5.02432E+01
  5.05386E+03  6.77222E+02  3.91841E+03  4.01646E+03 -1.25296E+03  7.48753E+03 -9.89961E+03  2.12024E+03
 -7.51025E+03 -3.66439E+03 -3.19305E+03 -4.21500E+03  2.49937E+03 -4.52820E+03  3.71964E+03 -5.96969E+03
  5.39999E+03 -5.54337E+03  4.50835E+03  1.74249E+03  3.93730E+03  4.88037E+03  1.53609E+03  6.31027E+03
 -4.83843E+01  6.05094E+03 -2.06431E+03  5.66587E+03 -5.10503E+03  9.42167E+02 -5.39014E+02  5.75786E+02
 -4.77047E+03  8.06902E+01 -5.41126E+03  2.73785E+03 -5.30991E+03 -9.85689E+02 -3.57680E+03 -2.07740E+03
 -4.67311E+03 -3.08095E+03  3.11739E+02 -6.06489E+03 -5.43349E+02 -3.37038E+03  9.21564E+03 -6.21045E+02
  2.91777E+03  4.64069E+03  1.17388E+02 -2.76472E+02 -2.78362E+03  5.01666E+03 -1.38831E+03  9.13975E+02
 -1.73253E+03 -1.37764E+02 -3.58688E+03 -3.74876E+03 -1.53101E+03 -4.94243E+03  5.78449E+03 -3.90042E+03
  1.10648E+03 -1.68081E+03  4.83180E+03 -8.51559E+02 -2.82652E+03 -2.78101E+03 -4.03166E+03 -3.47897E+03
 -1.65547E+03  1.62455E+03  2.81744E+03  1.19390E+03  3.51431E+03 -7.47868E+02 -6.16276E+02 -6.30348E+02
  1.23805E+03  5.47609E+03 -2.20998E+03  9.70514E+03 -1.15456E+03 -1.54478E+03 -6.79715E+02 -6.28610E+03
 -5.84706E+03 -3.84227E+03  1.75833E+03 -4.47059E+03  1.95625E+03 -5.50394E+03  5.75348E+03 -5.83459E+03
 -1.06114E+02  3.98189E+03 -1.94799E+03  5.07047E+03  3.11864E+03  2.66306E+03 -4.34950E+03 -2.88505E+03
 -2.11150E+03 -2.69172E+03  2.42033E+03 -6.54610E+03  5.25716E+02 -1.46815E+03  2.30748E+02 -1.45423E+03
  1.90491E+03  9.90124E+02 -8.45036E+02 -1.14740E+03  2.39780E+03  4.32016E+03  2.80297E+03  9.66520E+02
  5.48397E+02  1.47191E+03  3.20470E+03 -2.41681E+03  2.66823E+03  3.17458E+03 -4.09447E+03  3.85439E+03
 -4.23281E+03 -1.86430E+03 -1.68431E+03  1.34003E+03  8.98437E+02  1.22878E+03  1.08577E+03  4.29838E+02
  9.48200E+02 -8.91543E+02 -2.86531E+02 -3.57347E+03  7.12096E+01  7.52028E+02 -3.68865E+03  4.27135E+03
  3.82914E+03  1.20450E+03 -4.86076E+03 -2.45217E+03 -4.27052E+03  1.12090E+03 -3.92379E+03 -2.09167E+03
 -1.57234E+03 -1.29990E+03  1.61308E+03  4.74406E+02  3.08871E+02 -1.60399E+03  2.16879E+03 -7.32966E+02
  1.85519E+03 -1.17387E+03 -1.19701E+02 -1.07021E+03  9.69332E+02 -9.71256E+02  2.37909E+03  2.23288E+03
  2.42776E+03 -2.22218E+03  6.97482E+03  2.21650E+03  1.28160E+03 -1.86613E+03  6.14808E+02  1.01900E+04
  1.22460E+02  2.49986E+03 -3.86450E+03 -1.41764E+03  2.74805E+03 -8.74291E+02  1.26614E+02 -2.67991E+03
  2.68115E+03 -2.27538E+03  1.09601E+03 -3.85114E+03  4.56714E+03  2.25333E+03  1.82513E+03  3.29745E+03
  5.49535E+02  2.77280E+03  5.70102E+02 -1.25099E+03  6.04721E+02  2.83115E+03  1.09707E+03 -3.17510E+03
 -1.72895E+03  3.49056E+03  8.11562E+01  2.24740E+03 -4.29708E+03  1.57817E+03 -2.37632E+03 -2.71327E+03
 -1.70572E+03 -2.27509E+03  3.13679E+03 -4.10460E+03  1.64393E+03 -1.60929E+03  3.65743E+03  2.82800E+02
  3.24016E+03 -5.80210E+02 -6.99420E+02  6.82950E+02 -2.35214E+03  1.90145E+03 -2.49510E+02 -1.13156E+03
 -3.72030E+03  1.26278E+03 -2.40167E+03 -1.37571E+03 -3.95128E+03  1.91171E+03 -2.96427E+03  2.09697E+03
  1.12092E+03 -2.97522E+03  1.60492E+03 -2.01021E+02  1.70929E+03 -5.03267E+03 -8.20429E+02  2.77838E+03
  1.50010E+03 -2.91928E+03 -5.20295E+02  5.00416E+02  2.82098E+03  7.48190E+03  3.29128E+02 -1.22991E+02
 -8.49510E+02  3.07602E+03 -6.94842E+02  6.12288E+03  3.50405E+02 -5.12934E+01 -7.69136E+03  1.44499E+03
 -4.11308E+03 -1.98478E+03 -1.04172E+03  2.06705E+02  4.84514E+02 -4.60529E+03  2.42128E+03  2.23993E+02
  3.82828E+00  1.40479E+03 -3.30887E+03 -2.60478E+03 -2.81204E+02 -3.51427E+03  1.60653E+03 -2.23318E+03
 -2.03838E+03 -5.51460E+02 -2.74111E+03  2.11392E+03  2.71965E+03 -1.10992E+03 -1.77996E+02  3.51859E+03
 -1.62577E+03 -2.39245E+03 -2.80520E+03  2.62045E+03  1.48640E+03  1.83426E+03 -1.09479E+03 -2.35132E+03
  2.67598E+03  1.81648E+02  1.64076E+03 -1.70049E+03  1.19283E+03 -1.60935E+03  4.48428E+03 -2.36283E+03
 -5.20390E+02  1.63927E+03 -3.97734E+02 -3.11178E+03 -1.65181E+03  2.92559E+03  1.97084E+03 -7.75344E+02
 -4.55007E+03  1.73616E+03 -3.41659E+02  2.17277E+03 -7.75636E+02 -3.54048E+03 -1.17759E+03  1.56126E+03
 -3.61119E+03  4.84767E+01  7.00206E+03  6.70582E+02  6.73053E+03 -6.54040E+03 -2.01559E+03 -2.21291E+03
 -2.19066E+02 -1.48596E+03 -1.05809E+02  1.24592E+03 -7.61452E+02  3.15296E+03 -5.67816E+02  5.56771E+03
