 $NMID ID='MM_0lb_SNR50_9hz_g60_82.RAW', FMTDAT='(8E13.5)'
 TRAMP=1., VOLUME=1. $END
  3.11495E+05 -1.70677E+03  3.36484E+05  2.57243E+05  8.44825E+04  3.36433E+05 -1.35232E+05  2.50455E+05
 -1.87351E+05  8.38876E+04 -1.12445E+05 -2.87594E+04 -8.66688E+02 -5.37849E+04  5.12179E+04 -1.36802E+03
  2.89732E+04  5.54080E+04 -2.04240E+04  7.39645E+04 -6.53317E+04  6.97852E+04 -8.54065E+04  3.52305E+04
 -7.81259E+04 -1.20622E+04 -5.16465E+04 -5.43716E+04 -1.84136E+04 -6.73122E+04  2.67264E+04 -4.50322E+04
  4.21536E+04  3.05194E+03  2.35720E+04  4.75375E+04 -3.63968E+04  4.97075E+04 -7.04220E+04  2.23494E+03
 -5.43206E+04 -6.35113E+04 -7.39685E+03 -8.25169E+04  3.79459E+04 -5.88562E+04  5.32106E+04 -1.39774E+04
  4.27120E+04  2.00501E+04  3.12885E+04  2.55438E+04  1.33719E+04  3.37435E+04 -9.83311E+03  2.56543E+04
 -2.70692E+04  8.81299E+03 -1.71831E+04 -9.60738E+03  1.14580E+04  7.78848E+02  2.50104E+04  1.01781E+04
  3.75977E+03  3.81372E+04 -3.48257E+04  4.20670E+04 -7.21767E+04  4.91636E+03 -5.58922E+04 -4.84925E+04
 -5.19250E+03 -6.57528E+04  3.82915E+04 -5.19672E+04  6.57671E+04  1.88335E+03  3.84184E+04  3.53472E+04
 -8.74729E+03  4.41364E+04 -3.38101E+04  2.83272E+04 -3.09952E+04  3.05481E+03 -1.58993E+04 -1.10100E+04
 -1.18786E+04 -1.86015E+04 -2.51298E+02 -1.54859E+04  1.16143E+04 -2.98356E+04  1.62892E+04 -1.02295E+04
  7.09717E+03  3.48306E+03 -5.30003E+03  1.04695E+04 -2.74923E+04 -8.58896E+03 -8.78378E+03 -3.96368E+04
  2.48509E+04 -4.88686E+04  5.84754E+04 -2.34594E+04  4.66929E+04  2.32094E+04  1.72669E+04  4.65128E+04
 -2.10796E+04  3.22698E+04 -3.13329E+04  5.42318E+03 -1.36716E+04 -3.39680E+04  2.12563E+04 -4.47334E+04
  4.18407E+04 -7.78496E+03  3.94895E+04  2.53161E+04  2.32745E+04  4.62956E+04 -7.22428E+03  5.42224E+04
 -3.78256E+04  3.19284E+04 -4.43671E+04  7.59301E+03 -5.22456E+04 -1.78764E+04 -2.65964E+04 -3.92675E+04
  5.77365E+03 -4.34165E+04  3.63829E+04 -1.62767E+04  3.52088E+04  1.10226E+04  9.56812E+01  2.97687E+04
 -1.22406E+04  7.75010E+03 -1.79145E+04 -6.12525E+03  7.86776E+03 -1.29766E+04  1.81860E+04  1.76335E+03
  1.59871E+04  2.10831E+04  2.23439E+03  2.08591E+04 -1.96100E+04  1.33691E+04 -3.32390E+04 -9.59430E+02
 -1.55932E+04 -1.70488E+04 -1.95808E+04 -2.44022E+04  4.82176E+03 -2.69414E+04  1.48822E+04 -2.19829E+04
  3.59536E+04 -1.91164E+04  3.91007E+04  1.12697E+04  2.53263E+04  2.57000E+04  3.34733E+03  4.20851E+04
 -1.85229E+04  3.76690E+04 -3.37090E+04  1.73720E+04 -2.55251E+04 -1.16849E+04 -1.38886E+03 -1.17074E+04
  3.84321E+03 -4.25202E+03 -6.87118E+03  8.15395E+03 -2.51116E+04  7.45900E+03 -2.20739E+04 -1.30677E+04
 -1.26262E+04 -2.31016E+04  7.73268E+03 -2.99622E+04  2.10191E+04 -2.37741E+04  2.23687E+04 -8.74180E+02
  2.22430E+04  1.51873E+04 -1.34031E+03  2.24406E+04 -1.51918E+04  1.39905E+04 -2.47276E+04  1.42391E+02
 -2.09099E+04 -2.75295E+04  3.20436E+03 -2.94527E+04  1.59323E+04 -2.14051E+04  2.05449E+04 -1.08357E+04
  2.51540E+04 -2.37592E+03  1.23950E+04  5.33961E+02  6.05091E+03 -6.50126E+02  1.54117E+04 -2.22141E+03
  2.65038E+04 -6.65265E+03  2.21918E+04  1.89755E+04  2.33560E+04  3.94213E+04 -5.37771E+03  4.63991E+04
 -2.59254E+04  3.85025E+04 -4.35180E+04  2.53550E+04 -4.46616E+04 -9.75057E+03 -3.52212E+04 -3.07769E+04
 -1.77632E+04 -4.10954E+04  1.21292E+04 -3.53879E+04  3.19704E+04 -1.71839E+04  2.71350E+04  1.36104E+04
  1.39544E+04  1.65564E+04 -1.26843E+04  2.00561E+04 -1.76664E+04 -2.71021E+03 -1.91262E+04 -1.26689E+04
  2.35099E+03 -2.15058E+04  7.84269E+03 -8.86070E+03  1.37989E+04 -6.67371E+03  3.29267E+03  4.38098E+03
 -1.02722E+04  5.69182E+03 -1.17047E+04 -9.38790E+03 -3.08676E+03 -2.05889E+04  6.96854E+03 -2.84731E+04
  2.65990E+04 -1.33529E+04  2.38841E+04  6.11563E+03  3.19077E+04  2.28336E+04  1.30007E+04  3.26327E+04
 -1.36222E+04  3.61310E+04 -2.55131E+04  1.87854E+04 -2.36502E+04  3.57357E+03 -8.73390E+03 -6.08751E+03
 -4.59633E+03 -6.14637E+03 -1.76423E+03 -3.45166E+02 -1.02003E+03 -5.43331E+02 -3.42861E+03  6.23300E+03
 -1.54495E+04 -4.13676E+03 -2.09679E+04 -1.20858E+04  1.05260E+03 -2.24797E+04  7.17995E+03 -1.49314E+04
  1.30571E+04 -4.91229E+03  8.76883E+03  1.57014E+03 -4.26727E+03  1.00196E+04 -1.01383E+04  6.99082E+03
 -1.10283E+04 -1.00613E+04 -8.00523E+02 -1.94022E+04  1.17442E+04 -1.70254E+04  2.31131E+04 -5.02734E+03
  2.05707E+04  8.66324E+03  1.41084E+04  1.30327E+04 -8.43748E+02  2.15050E+04 -3.43836E+03  2.22908E+04
 -1.69897E+04  3.03479E+03 -9.22503E+03 -6.00793E+03 -2.91827E+03 -6.25332E+03  8.31299E+03 -2.87943E+03
  7.42538E+03  3.49280E+03  2.65418E+03  8.93927E+03 -9.42603E+03  1.72330E+04 -2.11018E+04  8.07438E+03
 -1.14328E+04 -9.29445E+03 -8.71691E+02 -1.64926E+04  1.37020E+04 -3.98175E+03  6.05952E+03  4.01893E+03
  4.00607E+03  1.66927E+04 -1.13959E+04  9.12041E+03 -1.33322E+04  6.60534E+03 -1.31636E+04 -1.16405E+04
 -1.03755E+04 -1.49214E+04  4.31906E+03 -2.40211E+04  1.22180E+04 -3.31961E+03  2.24336E+04 -4.51015E+02
  1.45345E+04  1.03163E+04 -1.55873E+03  1.28677E+04 -8.04176E+03  1.07932E+04 -1.50976E+04  7.80986E+02
 -1.02904E+04 -1.26236E+04 -1.87268E+03 -1.58129E+04  4.13654E+03 -1.44457E+04  7.92756E+03 -6.24095E+03
  9.51280E+03 -2.53272E+03 -2.74617E+03 -4.68738E+03  1.06202E+03 -5.86162E+03  4.94221E+03 -7.91471E+03
  1.84759E+04 -4.87137E+03  1.02191E+04  5.34829E+03  1.43719E+04  5.23980E+03  3.99803E+03  2.27211E+04
 -4.24996E+03  2.17573E+04 -1.85240E+04  2.77996E+04 -2.63091E+04  5.17595E+03 -2.16839E+04 -1.20324E+04
 -1.24674E+04 -1.99490E+04 -4.96336E+03 -1.38329E+04  3.73431E+03 -1.06141E+04  7.47445E+03 -6.49134E+03
  3.05626E+03 -3.00571E+03  5.44159E+03 -7.25077E+03  3.21555E+03 -8.95944E+03  1.19585E+04  1.39505E+03
  9.03131E+03  3.02123E+03  8.47893E+03  8.03669E+03 -3.70459E+03  1.31859E+04 -9.41411E+03  1.24855E+04
 -1.77710E+04  3.67431E+03 -7.34218E+03 -1.23796E+04 -4.05594E+03 -1.59725E+04  8.62653E+03 -1.71499E+04
  1.40627E+04 -1.50160E+04  2.27031E+04 -2.76057E+03  1.60994E+04  9.78656E+03  5.02502E+02  2.08028E+04
 -1.28818E+04  1.85353E+04 -6.92229E+03  3.50317E+03 -1.05389E+04 -3.22219E+03 -2.75251E+03 -1.79141E+03
 -3.49801E+03 -6.77630E+02 -1.03657E+04  3.24755E+03 -4.61026E+03 -4.97811E+02 -8.47075E+03 -6.83882E+03
 -4.74109E+03 -5.57442E+03 -1.22084E+03 -1.42341E+04  6.08008E+03 -2.02469E+04  2.26723E+04 -3.04571E+03
  2.20652E+04  8.77136E+03 -9.91191E+02  1.85922E+04 -3.96950E+03  1.58834E+04 -1.48004E+04  1.44434E+04
 -2.11475E+04 -3.02817E+03 -9.31166E+03 -6.41643E+03  3.30991E+02 -1.35390E+04  1.34400E+04 -1.14861E+04
  6.39789E+03 -5.88848E+03  5.40289E+03  6.55876E+03  9.03033E+03  6.75402E+03  4.08870E+03 -1.34570E+03
  4.73402E+03  4.91050E+03  1.12946E+04 -2.57787E+00  3.22061E+03  1.70943E+03 -5.34291E+03  2.20961E+03
 -2.89660E+03  1.40123E+04 -1.08745E+04  1.04513E+04 -1.93678E+04  2.83664E+03 -1.82150E+04 -5.08759E+03
 -2.39575E+03 -1.43930E+04  2.74986E+03 -1.63500E+04  1.02728E+04 -1.24377E+04  1.04295E+04 -3.96504E+03
  1.35771E+04  9.48901E+03  6.74468E+03  1.07517E+04 -3.61687E+03  5.64783E+03 -6.98188E+03  2.14789E+03
 -5.61933E+03 -1.32632E+04  5.18698E+03 -5.40289E+03  5.89564E+03 -4.24182E+02  1.46366E+03  1.80764E+03
 -3.70458E+03  1.77598E+03 -2.52978E+03 -3.85143E+03  1.30504E+03  3.94600E+03  4.64849E+03  4.58760E+02
 -5.96327E+02  1.22839E+03  8.90316E+03  5.99288E+03  7.99200E+03  9.06864E+03 -2.38600E+03  1.05057E+04
 -4.28408E+03  5.75444E+03 -7.25726E+03  6.98931E+03 -1.10718E+04 -1.07202E+04  3.38014E+03 -1.07790E+04
  3.38271E+03 -4.81835E+03  1.49505E+03 -4.43310E+03  9.68433E+03  1.91903E+03 -3.93260E+03  3.97612E+03
 -5.59347E+03 -3.35588E+03 -1.58864E+03 -2.07179E+03 -2.69160E+03 -7.55293E+03  1.24547E+02 -6.37607E+03
  4.06580E+03 -7.66696E+03  5.54525E+03  1.82152E+02  6.80931E+03  6.24188E+02 -8.32782E+02 -2.15791E+03
 -1.45556E+03 -3.19486E+03 -6.04913E+03 -4.24874E+03  5.15232E+03 -7.58698E+03  1.00236E+04 -1.01742E+04
  7.49126E+03 -1.46774E+03  1.11189E+04  6.80178E+03 -6.90229E+03  1.06367E+04 -6.36228E+03  1.28846E+04
 -2.07272E+03  6.51450E+02 -1.57875E+04  4.95118E+03 -2.55405E+03 -8.35856E+03  1.57326E+03 -1.23554E+04
  7.67080E+03 -7.82670E+03  4.46339E+03 -1.13402E+03  4.47540E+03  5.55826E+03  1.67251E+03 -1.01986E+03
 -7.94964E+03  1.07311E+03 -7.39019E+02 -4.76015E+02  4.87744E+03 -6.35150E+03 -4.14050E+03  1.26732E+04
 -6.19715E+02  9.33660E+03 -2.87038E+03  3.49366E+03 -7.10605E+03 -2.15013E+03 -9.48050E+03  2.50808E+02
 -8.71981E+03 -1.16340E+04  4.97185E+02 -2.11173E+04  8.56238E+03 -1.28059E+04  1.71594E+04 -6.63518E+03
  1.25980E+04 -5.15818E+03  1.30510E+04  1.20697E+04  1.08052E+04  6.10402E+02 -5.19034E+03  6.86305E+03
 -2.94153E+03  6.08962E+03  1.92770E+03  2.54503E+02 -2.11694E+02 -4.09917E+02  1.88157E+03 -5.81919E+03
 -7.15246E+03 -3.94614E+02 -1.13012E+03  7.53050E+03 -2.90130E+03 -8.20093E+02  1.58121E+03 -2.66642E+03
  6.60036E+03 -8.66519E+03  8.91016E+03 -4.26323E+03  3.78463E+03  4.46926E+03  1.20930E+03  1.68147E+04
  2.24148E+02  1.18195E+04 -1.81256E+04  5.80146E+03 -1.10248E+04 -4.45234E+03 -7.86984E+03 -1.30282E+04
 -6.71708E+03 -1.32399E+04  8.91112E+03 -6.76923E+03  3.90487E+03 -6.25898E+03  9.22773E+03  1.73087E+03
  2.52883E+02  5.52754E+03  2.59914E+03  6.75818E+03  3.58839E+02  1.37551E+03  3.79815E+03 -8.94963E+03
 -1.12526E+03 -9.81267E+02  9.28840E+03  3.84085E+03  2.10129E+03  6.21702E+03 -1.93291E+02  1.00165E+04
 -3.33215E+03  6.31265E+02 -6.02532E+03 -1.20362E+03 -2.56640E+03 -4.88566E+03  2.40181E+03 -6.85676E+03
  5.68783E+03 -7.93576E+03  5.41953E+03  2.32211E+03  4.86407E+03  4.58065E+03  5.14728E+03  1.10087E+04
  6.18456E+02  5.17486E+03 -7.97076E+02  9.10059E+03 -4.48700E+02 -3.04159E+03 -6.95729E+03 -9.48599E+02
 -2.66196E+03 -5.85833E+02  6.47548E+03  2.19657E+03 -2.56377E+03  1.38673E+03 -8.15206E+03 -2.86793E+03
 -4.59015E+03 -8.18768E+03 -2.35926E+03 -9.04286E+03  3.65796E+03 -1.16335E+04  4.59063E+03 -3.40851E+03
  7.20174E+03 -3.46708E+03  4.51673E+03  8.74113E+02 -4.46257E+03  8.37143E+03 -7.97900E+03  7.98830E+03
