 $NMID ID='MM_0lb_SNR50_18hz_g45_91.RAW', FMTDAT='(8E13.5)'
 TRAMP=1., VOLUME=1. $END
  3.10141E+05  1.80012E+03  3.36484E+05  2.51177E+05  8.25285E+04  3.43555E+05 -1.29436E+05  2.47535E+05
 -1.87537E+05  8.28822E+04 -1.12966E+05 -3.02524E+04  1.80655E+03 -4.49736E+04  5.30970E+04  1.57308E+03
  3.70138E+04  5.32251E+04 -1.79371E+04  7.56017E+04 -5.87307E+04  6.38382E+04 -8.65405E+04  3.49024E+04
 -8.17429E+04 -8.96469E+03 -5.90369E+04 -5.18535E+04 -1.23345E+04 -6.84698E+04  1.98470E+04 -4.82820E+04
  3.77818E+04  5.12681E+03  1.65165E+04  4.91542E+04 -3.94252E+04  4.60383E+04 -6.48311E+04 -3.59115E+03
 -5.19590E+04 -5.32351E+04 -4.48947E+03 -7.93276E+04  3.66500E+04 -5.30424E+04  4.17278E+04 -1.51161E+04
  4.18108E+04  1.16462E+04  2.94118E+04  2.37780E+04  1.39693E+04  2.48261E+04 -5.00059E+03  2.88713E+04
 -1.94877E+04  1.63692E+04 -1.99846E+04 -4.42302E+03  5.28267E+03 -7.09927E+03  1.90104E+04  7.98526E+03
  6.32418E+03  3.19893E+04 -3.18028E+04  3.43378E+04 -6.20686E+04  2.40634E+03 -5.62357E+04 -3.80793E+04
 -1.27348E+04 -6.19693E+04  3.76290E+04 -4.40069E+04  5.56416E+04  2.93215E+03  3.33685E+04  3.41819E+04
 -6.51667E+03  3.29514E+04 -2.94258E+04  1.20773E+04 -3.25436E+04 -1.43374E+03 -1.38627E+04 -9.27987E+03
 -1.24790E+04 -1.02949E+04 -1.78546E+03 -1.88381E+04  6.01838E+03 -2.22812E+04  1.41449E+04 -1.76640E+04
  1.73463E+04  5.91960E+03 -7.07318E+03  1.32560E+04 -1.99874E+04  1.41671E+03 -1.16799E+04 -3.23873E+04
  2.05269E+04 -3.77535E+04  4.69385E+04 -1.74346E+04  4.51832E+04  1.78834E+04  1.40649E+04  4.05122E+04
 -1.63980E+04  2.76274E+04 -2.49745E+04 -1.45228E+03 -9.88535E+03 -2.38538E+04  1.97792E+04 -3.26012E+04
  3.45224E+04 -9.28942E+03  3.44665E+04  2.19946E+04  1.59789E+04  4.38590E+04 -5.41895E+03  4.33678E+04
 -2.86895E+04  2.92995E+04 -3.95061E+04  1.08916E+04 -3.90776E+04 -1.24448E+04 -2.13145E+04 -3.40968E+04
  1.07077E+04 -3.47629E+04  3.29060E+04 -7.82969E+03  2.98129E+04  9.71047E+03  3.71796E+02  1.30183E+04
 -1.51426E+04  3.19840E+02 -9.77483E+03 -8.39704E+03  1.59742E+03 -1.10255E+04  1.43739E+04  5.79548E+03
  1.78705E+04  2.59759E+04 -6.80300E+03  2.38942E+04 -2.32123E+04  7.07973E+03 -2.65272E+04 -6.21919E+03
 -1.60585E+04 -1.57969E+04 -3.46468E+03 -1.93324E+04  2.98021E+03 -1.60254E+04  8.99077E+03 -1.18045E+04
  1.98445E+04 -9.78171E+03  2.75810E+04  2.49347E+03  2.28151E+04  1.83102E+04  2.39598E+03  3.39727E+04
 -1.56218E+04  3.15472E+04 -2.93082E+04  9.36066E+03 -1.88280E+04 -1.38385E+04 -7.96344E+03 -1.13254E+04
  2.95147E+03 -8.65150E+03 -6.48592E+03  3.42437E+03 -1.41338E+04  4.64513E+03 -1.13016E+04 -2.87651E+03
 -9.40923E+03 -1.69770E+04  6.47432E+03 -1.94563E+04  1.30067E+04 -1.41612E+04  1.66257E+04  2.71905E+02
  1.09638E+04  9.08485E+03  5.49318E+02  1.52428E+04 -1.20340E+04  7.65824E+03 -1.50030E+04 -1.93401E+03
 -7.92300E+03 -1.55036E+04 -1.77228E+03 -1.67350E+04  1.10330E+04 -1.60693E+04  1.46078E+04 -7.55292E+03
  2.05087E+04  3.95758E+03  6.29337E+03  6.78230E+03  4.78827E+03 -1.92216E+03  8.08460E+03 -2.37972E+03
  1.29512E+04  8.21889E+02  1.57723E+04  8.23434E+03  1.14734E+04  2.26699E+04 -7.66942E+03  2.81597E+04
 -1.86433E+04  2.01574E+04 -2.41020E+04  6.66483E+03 -2.50091E+04 -2.73013E+03 -2.38878E+04 -1.57719E+04
 -1.07209E+04 -2.16765E+04  5.33314E+03 -1.39435E+04  1.55197E+04 -1.14358E+04  1.82423E+04  2.41832E+03
  7.51687E+03  1.27442E+04 -7.75507E+03  1.11537E+04 -1.11570E+04  2.77422E+03 -1.11644E+04 -6.32978E+03
  3.41455E+03 -1.58349E+04  5.33968E+03 -8.41362E+03  5.32365E+03 -3.99304E+02  4.64840E+03  5.83633E+03
 -4.56607E+03 -9.31246E+02 -3.82492E+03 -3.87038E+03  1.19788E+03 -9.32699E+03  7.78014E+03 -1.32039E+04
  1.04773E+04 -5.12859E+02  1.13333E+04  1.59137E+03  8.69718E+03  8.65986E+03  8.09037E+03  1.48135E+04
 -5.18180E+03  1.91837E+04 -1.23817E+04  1.14861E+04 -1.25225E+04  6.05093E+03 -6.49081E+03  1.23734E+03
 -8.42006E+03 -4.51949E+03  8.40793E+02 -2.57253E+03 -1.13662E+03  3.07984E+03 -4.88432E+03  3.34140E+03
 -6.62274E+03 -1.32978E+03 -9.16975E+03 -9.52940E+03 -4.03336E+03 -6.26459E+03  3.77316E+03 -1.06859E+04
  9.90760E+03 -3.86312E+03  4.63203E+03  3.47681E+03 -8.66426E+02  3.17280E+03  1.30928E+03  1.68674E+01
 -1.58299E+03 -5.14467E+03 -2.89080E+02 -1.06773E+04  9.23630E+03 -7.37291E+03  9.97382E+03 -7.76397E+03
  9.03982E+03  3.48145E+03  8.58066E+03  8.85816E+03  2.80431E+03  8.25952E+03 -3.80979E+03  7.52340E+03
 -7.18816E+03  4.67737E+02 -2.42758E+03  2.47930E+02  2.96892E+03 -4.64846E+03  3.05443E+03 -1.27658E+03
  3.69733E+03  7.16142E+03  4.54510E+03  9.04657E+03 -3.35682E+03  6.01724E+03 -5.48413E+03  6.81852E+02
 -6.78626E+03 -2.88451E+03 -3.64522E+02 -9.52936E+03 -5.68951E+02 -8.22723E+03  5.22370E+03  1.67046E+03
  2.88497E+03  4.02552E+03 -3.19888E+03  5.68440E+03 -7.65884E+03 -2.60719E+03 -6.72942E+03 -5.48756E+03
 -3.04387E+03 -5.47072E+03  1.98546E+03 -1.45210E+03  4.17895E+03 -5.49582E+03  8.54442E+03  4.70035E+03
  2.07524E+03  7.80858E+03  2.23801E+03  7.41136E+03 -4.73133E+03  7.50332E+03 -5.21606E+03 -8.14029E+01
 -8.78070E+03 -7.21696E+03 -1.05789E+03 -7.43528E+03  5.26010E+03 -5.48749E+03  1.08783E+03 -3.38204E+03
  4.58832E+01  4.17106E+03  6.20785E+02 -3.80038E+03  3.95554E+03  2.01986E+03  2.13396E+03 -2.78962E+03
  5.39360E+03 -6.24553E+02  3.97732E+03 -4.99167E+00  6.89077E+03  3.94747E+03  7.72543E+03  1.01552E+04
 -6.39449E+02  9.77038E+03 -9.93042E+03  5.04942E+03 -5.20318E+03  2.71666E+03 -9.48916E+03 -1.62808E+03
 -5.75432E+03 -5.89602E+03 -3.90830E+03 -9.15429E+03  2.73229E+03  1.85814E+03 -1.04090E+02 -1.73201E+03
 -2.46584E+02 -2.22293E+03 -3.50667E+03 -5.41836E+03  2.38891E+03  2.36218E+03  4.15056E+03  1.49809E+03
  5.93060E+03  3.02286E+03 -2.71158E+03  6.30970E+03 -9.86201E+02  4.50721E+03 -4.89515E+03  6.75827E+03
 -6.55382E+03 -3.55233E+03 -1.04033E+03 -4.31186E+03  3.00760E+03 -6.88613E+03  2.17706E+03 -8.83994E+03
  6.26414E+03 -2.57118E+03  8.22893E+03 -2.10276E+03  1.04324E+04  2.50721E+03 -6.45128E+03  3.96511E+03
 -3.59539E+03  3.08712E+03 -2.75626E+03  3.85263E+03 -1.81207E+03 -2.57123E+03 -2.15739E+03  2.16618E+03
 -2.68510E+02  1.52157E+03 -3.33065E+03  5.58914E+03 -3.37842E+02 -4.08290E+03 -1.03598E+04  2.17585E+03
 -4.89214E+03 -6.36433E+03  5.42031E+03 -7.72992E+03  2.05374E+03 -2.78817E+03  6.58887E+03 -2.45616E+03
  3.86214E+03  2.28719E+03  1.63134E+03  1.34588E+03 -3.07086E+02  4.45543E+03  4.04629E+03  4.93782E+03
 -6.67975E+03 -3.03023E+03 -4.04458E+03 -5.42488E+02  1.30258E+03 -2.78605E+03  1.55986E+03 -3.61858E+03
  2.70287E+03 -1.79541E+03  2.34143E+03 -1.32781E+02  2.50082E+03  2.26253E+03  9.57390E+02 -8.08794E+02
  4.20038E+03 -2.13922E+03  1.67922E+03 -2.06551E+02  2.02290E+03  7.89682E+02  4.88943E+02  4.80150E+03
  3.09775E+03  1.78078E+03 -4.27812E+03  1.41478E+03 -3.00721E+02  4.29807E+03 -1.84681E+03 -1.63248E+03
 -2.94539E+03 -1.35812E+03  5.78540E+03 -1.88443E+03  5.06535E+03 -1.83815E+02  5.90840E+01 -2.09402E+03
  5.05179E+03 -2.23689E+03 -1.74991E+03  7.96432E+02  1.32755E+03  2.96634E+03 -1.50389E+03  3.87902E+03
 -2.11305E+03 -5.60899E+03 -1.57354E+03 -1.32303E+03  2.10397E+03 -1.90200E+00  2.10066E+03  1.19706E+03
  3.41319E+03  1.61627E+03  2.15842E+03  4.15448E+02 -8.64352E+01  4.44688E+03 -3.53678E+03  6.17028E+03
  3.11995E+03  3.44338E+03  3.12980E+03  2.02150E+03  2.01869E+03 -1.01256E+03  2.90389E+03 -2.19173E+03
  9.16611E+02 -1.58192E+03  9.65277E+02 -2.20890E+03 -2.89676E+03  4.99604E+03  7.58233E+02 -4.70487E+02
  5.88397E+02 -7.17513E+02  6.33332E+02 -3.98096E+03 -1.14310E+03 -8.62202E+02  3.18591E+01 -5.80058E+02
 -1.99183E+03 -1.55600E+03 -5.34435E+03 -4.10077E+03 -1.30848E+03 -8.05077E+03 -1.59450E+03 -3.11917E+03
 -1.94557E+03 -1.07977E+03  2.13994E+03 -1.50831E+03  5.41234E+03 -1.07853E+03  1.35209E+03  2.42353E+03
 -5.47652E+02 -2.16200E+03 -4.76219E+03  3.51599E+03 -1.06159E+03  9.41948E+02  4.23698E+03 -3.11467E+03
 -1.73087E+03 -1.81712E+03  3.59460E+03 -2.62242E+03  5.04979E+03  4.82252E+03  8.37374E+02  3.55150E+03
 -1.09739E+03  5.92823E+03 -2.36618E+03  2.40274E+03  2.00467E+03 -4.35865E+03 -2.79479E+03 -2.16107E+03
  3.97199E+03  2.98617E+02  2.97827E+03  4.73840E+02  9.44882E+02  3.06511E+03  1.67017E+03  8.85047E+02
 -2.51749E+01  4.43875E+03 -1.64899E+03  4.41656E+03 -1.70945E+03  1.04406E+03 -7.05547E+02 -6.44030E+02
 -6.55654E+02  1.92494E+03 -1.84032E+03 -7.89470E+01 -2.11027E+03  9.26407E+02 -4.70069E+03  4.23417E+02
  3.24392E+02 -2.06330E+03  9.74142E+02 -1.12014E+03  1.64085E+03 -1.01338E+03  2.19479E+03 -5.41587E+03
  2.60559E+03 -2.42984E+03  1.06938E+03  4.99698E+02 -1.13626E+02  6.40843E+02 -1.86743E+02 -3.42899E+03
 -1.21996E+03 -1.78795E+03 -8.67068E+02 -3.88416E+02 -2.16773E+03 -3.09259E+03 -3.65388E+03  5.01697E+01
 -1.65105E+03  1.68449E+03  1.37681E+02 -2.64277E+03 -2.79640E+03 -3.02612E+03 -9.03143E+02 -1.00561E+03
  2.01607E+03  1.74945E+03 -9.49886E+02 -2.71421E+03  1.26354E+02  1.24269E+03 -8.92121E+02  9.59090E+03
  1.35779E+03  3.39006E+01  3.87985E+03  2.38268E+03 -1.09619E+03  3.02532E+03  5.02385E+02 -1.67243E+03
  7.68180E+02  1.41990E+02  3.59916E+03 -1.94490E+03 -3.72256E+02  2.25510E+02 -6.19226E+02  2.07618E+02
  1.77572E+03  2.43760E+03 -2.72235E+03 -6.15839E+01  4.11038E+03 -4.45161E+02 -1.50694E+03  7.21983E+02
  2.53379E+03  6.31580E+02  2.22669E+03  1.86829E+03  5.24994E+03  3.41268E+03  4.09901E+02 -5.06035E+03
  1.15585E+03  1.13684E+03 -1.30115E+03  5.53761E+03  6.11343E+02  4.03676E+03 -5.12947E+01 -2.78574E+02
  2.82184E+03 -1.97236E+03  2.46366E+03 -2.05911E+03 -2.66883E+03 -3.49173E+03  2.80243E+03  4.33735E+03
 -3.03439E+03 -2.52089E+03  5.08569E+03 -8.81136E+02 -5.91316E+02 -3.00525E+03  6.05619E+02 -2.84303E+03
 -4.08500E+01  6.10775E+02 -1.53889E+03  4.38776E+03 -1.41119E+03 -1.49101E+03  7.95988E+01  3.42148E+02
  3.30335E+02  1.91071E+03 -5.65295E+02  2.30445E+01  1.41648E+03 -5.11164E+02 -2.87224E+01 -1.31884E+03
  8.70577E+02  6.55646E+02  1.81914E+03  1.64584E+03  1.12746E+03  1.71978E+03 -2.41314E+02 -4.87932E+03
