 $NMID ID='MM_0lb_SNR50_18hz_g60_15.RAW', FMTDAT='(8E13.5)'
 TRAMP=1., VOLUME=1. $END
  3.07227E+05  3.17831E+03  3.38065E+05  2.51539E+05  8.33963E+04  3.41180E+05 -1.33043E+05  2.52292E+05
 -1.89607E+05  8.59205E+04 -1.12621E+05 -3.38363E+04  5.84657E+02 -4.94478E+04  5.10906E+04  1.57130E+03
  3.83358E+04  5.20256E+04 -1.96106E+04  7.46720E+04 -6.17523E+04  6.63313E+04 -8.34472E+04  3.01638E+04
 -8.23837E+04 -1.01859E+04 -5.72869E+04 -4.46728E+04 -1.85461E+04 -6.69992E+04  2.98219E+04 -4.28341E+04
  3.96231E+04  3.41063E+03  1.58711E+04  5.08823E+04 -3.44563E+04  4.95835E+04 -6.49137E+04 -2.84654E+03
 -5.38032E+04 -5.61269E+04 -5.91821E+03 -7.94964E+04  2.80052E+04 -5.13331E+04  4.72291E+04 -1.84573E+04
  4.34565E+04  8.01443E+03  3.24596E+04  2.18421E+04  1.35133E+04  3.05398E+04 -5.16163E+03  2.57528E+04
 -2.10674E+04  1.40333E+04 -1.78150E+04 -6.30341E+03  1.27293E+03 -3.95200E+03  2.08574E+04  1.28250E+04
  6.19199E+03  3.52177E+04 -2.96852E+04  3.34155E+04 -6.15155E+04  5.86378E+03 -5.71107E+04 -4.07396E+04
 -1.16391E+04 -5.98571E+04  3.95250E+04 -4.41783E+04  5.71942E+04 -4.99195E+02  3.71721E+04  3.48725E+04
 -2.80610E+03  3.67606E+04 -2.60928E+04  1.56211E+04 -2.66491E+04 -1.25821E+03 -1.57097E+04 -8.15792E+03
 -8.20721E+03 -1.13975E+04 -4.29918E+02 -1.68317E+04  1.25782E+04 -2.61919E+04  1.26289E+04 -1.29267E+04
  1.04929E+04  2.98295E+03 -5.58877E+03  1.15315E+04 -1.90149E+04 -7.51596E+03 -7.73616E+03 -3.59882E+04
  1.93141E+04 -4.32128E+04  4.13358E+04 -1.96223E+04  4.06834E+04  1.75774E+04  1.43326E+04  4.33437E+04
 -1.56418E+04  3.41757E+04 -2.66434E+04  3.77437E+03 -9.88797E+03 -2.94839E+04  2.45660E+04 -3.36346E+04
  4.05627E+04 -1.08507E+04  3.28560E+04  2.70949E+04  1.68654E+04  4.91616E+04 -8.16733E+03  4.30632E+04
 -2.93862E+04  2.95785E+04 -4.08328E+04  5.85958E+03 -4.25018E+04 -1.73127E+04 -1.99350E+04 -3.59560E+04
  9.08439E+03 -3.76769E+04  2.61262E+04 -1.38971E+04  3.24428E+04  1.47478E+04  2.22246E+03  1.78085E+04
 -1.40062E+04  7.64313E+03 -7.44866E+03 -2.41444E+03  6.25960E+03 -1.18366E+04  1.60436E+04  1.23664E+04
  9.64118E+03  2.11835E+04 -4.58856E+03  2.42252E+04 -2.20520E+04  1.32613E+04 -2.36310E+04 -6.99590E+03
 -1.91071E+04 -1.50535E+04 -7.75088E+03 -1.81148E+04  3.78544E+03 -1.87341E+04  1.47055E+04 -1.37835E+04
  2.11698E+04 -6.80765E+03  2.70097E+04  5.83150E+02  1.70078E+04  2.11213E+04  4.34911E+03  3.88304E+04
 -1.83845E+04  2.84890E+04 -2.47458E+04  6.64435E+03 -1.78160E+04 -1.18456E+04 -6.15759E+03 -1.28055E+04
  6.71158E+03 -6.90947E+03 -7.98904E+02  1.07654E+04 -1.23710E+04  6.95570E+03 -1.77344E+04 -5.90347E+03
 -1.35991E+04 -1.97358E+04  5.66611E+03 -1.70559E+04  1.85597E+04 -1.44868E+04  1.53566E+04 -8.40369E+02
  1.04589E+04  1.50282E+04  4.42578E+02  1.73259E+04 -1.16352E+04  1.44972E+04 -1.80070E+04 -3.23003E+03
 -1.36892E+04 -1.33477E+04  2.37566E+03 -2.38854E+04  8.11740E+03 -1.70876E+04  1.87973E+04 -7.64126E+03
  1.65582E+04 -1.73857E+03  9.99679E+03  1.74316E+03  8.18400E+03  1.25409E+03  8.31878E+03 -4.39099E+03
  1.10723E+04  7.64108E+03  2.03307E+04  1.27062E+04  1.50095E+04  2.47095E+04 -5.16493E+03  2.71477E+04
 -2.18478E+04  2.29552E+04 -2.90851E+04  1.43459E+04 -2.87105E+04 -4.26698E+03 -2.16873E+04 -1.72105E+04
 -1.06718E+04 -2.56370E+04  8.17645E+03 -1.89790E+04  1.61816E+04 -1.08842E+04  2.04326E+04  6.62257E+03
  6.43295E+03  1.14786E+04 -9.13509E+03  1.05548E+04 -1.34778E+04  4.49128E+02 -7.22174E+03 -1.00133E+04
  5.25663E+02 -1.23865E+04  8.02176E+03 -5.29607E+03  1.07710E+04 -1.64478E+03 -2.55069E+02  3.95558E+03
 -1.43693E+03  4.35769E+03 -4.97231E+03 -4.29746E+03 -9.81840E+03 -1.34997E+04  8.66839E+03 -1.27906E+04
  1.50477E+04 -3.95223E+03  1.11808E+04  2.05511E+03  1.48183E+04  1.29054E+04  4.20050E+03  1.72417E+04
  1.59334E+03  1.93373E+04 -1.14936E+04  9.46473E+03 -7.34041E+03 -1.08096E+03 -1.07429E+04 -1.94782E+03
 -3.87568E+03 -4.83840E+03 -3.41316E+02  2.01658E+03 -2.46799E+03 -1.40891E+02 -3.00291E+03  1.89294E+03
 -6.45910E+03 -3.03640E+03 -7.94757E+03 -8.08872E+03 -7.94109E+03 -1.13430E+04 -6.81829E+02 -1.08518E+04
  8.44013E+03 -3.88808E+03  1.09367E+04  2.76116E+02  3.60015E+03  3.79474E+03  4.42183E+02 -3.08115E+03
 -4.79821E+03 -5.44950E+03 -3.13441E+03 -4.32420E+03  4.84368E+03 -1.19078E+04  1.32185E+04 -5.83224E+03
  1.29595E+04  1.67248E+03  6.41906E+03  9.54475E+03  2.12117E+03  1.14703E+04 -8.38638E+03  1.15033E+04
 -1.29312E+04  5.28221E+02 -4.14433E+03 -4.80431E+03  4.16219E+03 -1.59203E+03  1.52592E+03 -3.12454E+03
  1.23010E+03  6.55173E+03  6.26448E+03  8.09768E+03 -4.37572E+03  1.07713E+04 -7.44777E+03  1.19023E+03
 -6.19044E+03 -3.19530E+03 -3.66039E+03 -6.92196E+03  6.64880E+03 -7.71993E+02  9.53600E+03 -8.09824E+02
  2.23171E+03 -1.24151E+03 -3.81958E+03  5.96916E+03 -4.28848E+03  3.24111E+03 -7.80743E+03 -1.03167E+03
 -6.97028E+03 -7.56422E+03  2.98357E+03 -6.39023E+03  7.72423E+03 -6.68666E+03  6.64937E+03  6.79750E+03
  5.30024E+03  9.06948E+03 -6.85608E+03  8.20380E+03 -6.91051E+03  9.29180E+03 -4.41520E+03 -2.73262E+02
 -5.80344E+03 -1.27015E+03 -1.26104E+03 -6.13204E+03  7.53505E+03 -8.65887E+03  2.17649E+03 -2.87575E+03
  4.00035E+02 -2.16089E+03 -2.80194E+03  8.39141E+03 -6.69803E+01 -9.35538E+01  5.25649E+03 -2.74849E+03
  3.32674E+03 -6.45199E+02  5.29205E+03  2.00831E+03  2.14687E+03  5.45995E+02  2.73683E+03  7.57108E+03
  2.38344E+03  1.02234E+04 -8.52392E+03  8.02112E+03 -8.63440E+03  2.03491E+03 -9.24520E+03 -5.06940E+02
 -2.30530E+03 -3.76029E+03 -9.50591E+02 -5.43649E+03  3.88965E+03 -5.07255E+03  5.15373E+03 -5.36755E+03
 -3.12154E+03 -2.73337E+03  6.04078E+03 -1.07386E+03  2.68522E+03 -1.53215E+03  6.21801E+03 -3.77108E+03
  6.72122E+03  2.83466E+03  3.60154E+03  3.87506E+03 -3.32960E+03  2.64098E+03 -4.98743E+03  1.97762E+03
 -4.62033E+03 -1.68578E+02 -5.47423E+03 -1.29337E+03 -4.13585E+02 -7.81022E+03  3.47279E+03 -9.08614E+03
  8.75260E+03 -1.08316E+03  5.84604E+03 -1.26387E+03  2.82050E+03  6.50531E+03 -1.55374E+03  5.66328E+03
 -3.93939E+03  7.14932E+03 -8.94621E+03  3.78097E+02 -7.24556E+02 -3.18021E+03  2.32874E+03 -4.36537E+03
 -4.32267E+03  2.74568E+03 -2.09009E+02 -2.28871E+03  2.35475E+03  5.52038E+03 -5.88754E+03  2.11540E+02
  5.83016E+02 -5.74507E+03  9.82186E+02 -4.97426E+03  7.01993E+03 -4.35657E+03  1.35638E+03 -3.71112E+03
  6.88071E+03  8.99526E+02  1.55246E+03  5.47286E+03  6.30625E+02  6.39992E+03 -5.04257E+03  2.85996E+03
 -4.01939E+03 -1.02897E+03 -3.37467E+03 -3.62026E+03 -7.10521E+02 -2.45402E+03  1.84787E+03 -3.19670E+03
  2.19049E+03 -3.31414E+03 -7.98167E+02  2.59791E+03  7.58544E+02  1.16947E+02  7.16047E+02 -2.33073E+03
  1.52021E+03 -1.72428E+02  2.97359E+02 -2.34725E+03  5.61165E+03  3.15715E+03  1.38033E+03  4.13617E+03
 -2.93599E+03  2.11990E+03 -2.89100E+03  2.70570E+03 -2.49317E+03  1.00487E+03 -5.70413E+03 -2.86346E+03
 -8.53366E+02 -6.83806E+03 -2.04279E+03 -8.64167E+03  7.53376E+02 -1.37338E+03  5.83337E+02  1.38472E+03
  4.57291E+03  2.96328E+02  4.05841E+03  1.24174E+03 -3.29155E+03  8.23238E+02  4.58890E+02 -2.89480E+03
  1.80973E+03  1.70137E+03 -3.44792E+02 -4.12879E+03  1.04160E+03  3.54864E+03  7.36851E+01  1.37993E+02
 -9.70951E+02 -1.20028E+03  9.62499E+02  1.18900E+03 -1.86250E+03  4.61003E+03  3.53976E+03 -2.98099E+03
  6.45946E+02  1.99546E+03  6.67370E+03 -2.10750E+03  5.50519E+02 -7.14605E+02 -1.97844E+03  4.25652E+03
 -2.50512E+03  2.14193E+02 -5.13177E+02  4.00508E+03 -6.00460E+02 -2.93910E+03  1.87615E+03 -2.18674E+03
  1.41856E+03 -4.48362E+03  2.24245E+03  1.30011E+03  5.84457E+03 -1.60233E+02  2.94541E+03  2.73796E+03
 -1.24500E+03 -5.83408E+02 -5.14144E+03 -1.38007E+03 -3.07355E+03 -5.65109E+03 -2.39510E+03  1.22406E+03
  2.69895E+03 -3.91738E+03  3.47620E+03 -5.39618E+02  2.98425E+03  3.13760E+03 -7.50138E+01  4.28934E+03
 -1.26749E+03  1.36444E+03 -5.49264E+02 -3.27399E+02 -1.07464E+03 -2.38941E+03  1.39323E+03  7.08955E+02
  1.78944E+03 -7.18507E+02  1.74410E+03 -2.01980E+03  1.43620E+03  1.37566E+03  3.40425E+03  1.79938E+03
 -5.96054E+03  5.07936E+03 -1.70928E+03 -8.96701E+02  5.57071E+03  2.90091E+02 -2.11466E+02  3.14398E+02
  4.59034E+03 -3.50452E+03 -3.52192E+03  1.31928E+03 -6.10524E+01  3.02895E+03 -7.14783E+01  1.97034E+03
  8.77437E+02  7.70281E+02 -1.10297E+03  3.85765E+03 -3.89410E+03  3.53549E+03 -4.18617E+03  6.58427E+02
 -4.16125E+03  1.74660E+03 -1.85260E+03  2.31871E+02 -4.05954E+03 -5.30341E+03  2.40961E+03 -1.50870E+03
 -2.20146E+03 -5.85486E+03  3.42969E+02 -2.82349E+03 -2.01753E+03 -3.73249E+03  4.45374E+03 -1.27287E+03
 -1.12122E+02 -1.66650E+03  5.04719E+03 -1.91518E+03 -5.95432E+03 -2.66254E+03  6.69396E+02  6.24063E+02
 -1.20340E+03 -1.47291E+02  1.49515E+02  9.83807E+02 -1.42142E+03  2.24012E+03 -4.61587E+03 -1.52983E+03
 -1.51812E+03 -1.61328E+03 -2.75859E+03  4.31878E+02  3.28580E+03 -6.87296E+03 -2.15124E+03  2.32439E+03
  1.44251E+03  1.49902E+01 -2.58952E+03  2.24263E+03  4.29874E+03  2.79802E+03  2.08646E+03  2.98314E+03
  1.77233E+03  1.55110E+03  3.80497E+02  2.46739E+03 -3.81230E+03 -6.59584E+02 -3.19243E+03 -1.24809E+03
  4.58200E+01  6.00973E+02  5.44373E+03 -1.40297E+03 -1.74121E+02  2.82054E+03  3.64632E+03 -1.02722E+03
 -4.77000E+02 -8.29760E+02  1.25211E+03  2.67626E+03 -2.30569E+03  8.86450E+02 -2.77057E+03 -3.80650E+02
 -3.82338E+03  1.08968E+03 -3.76213E+03  1.07067E+03 -9.92334E+02 -2.06603E+02  1.06123E+03  9.12019E+02
  1.60004E+03 -2.37245E+03 -2.55067E+02 -8.66998E+02  3.95286E+03 -5.17042E+03 -3.03242E+03 -1.71725E+03
 -3.59768E+02 -4.14846E+03  5.15220E+02 -7.60762E+02 -1.18866E+03 -3.48802E+03  1.35765E+03  1.45321E+03
 -5.45269E+02 -1.54625E+03 -2.07140E+03  1.03418E+02 -3.47127E+03  1.65355E+03  2.49886E+02 -2.43121E+03
 -1.88261E+03  9.53529E+02  1.39888E+03 -1.33489E+03  2.40532E+03  4.67304E+03 -5.45693E+03  3.43923E+03
 -1.16466E+03 -6.83955E+02  3.00831E+03  2.79091E+03  1.11637E+03  1.54972E+03  2.82125E+03  2.99727E+03
  2.78072E+03 -3.23791E+03 -3.07767E+03  2.68885E+03  1.91297E+03 -3.85267E+03 -2.84619E+03  2.29691E+03
