 $NMID ID='MM_0lb_SNR50_10hz_g55_89.RAW', FMTDAT='(8E13.5)'
 TRAMP=1., VOLUME=1. $END
  3.12236E+05 -2.90513E+03  3.44678E+05  2.46171E+05  8.81118E+04  3.41765E+05 -1.31706E+05  2.52699E+05
 -1.86704E+05  7.98510E+04 -1.08611E+05 -4.03157E+04  3.19532E+03 -5.11952E+04  5.64340E+04 -6.31397E+02
  3.74220E+04  4.98837E+04 -2.12214E+04  7.32940E+04 -5.92737E+04  6.21202E+04 -7.97871E+04  3.45681E+04
 -8.61345E+04 -1.31996E+04 -5.72437E+04 -5.26292E+04 -1.37186E+04 -7.01996E+04  2.38063E+04 -4.46323E+04
  4.02626E+04  2.52142E+03  1.70723E+04  4.46389E+04 -3.69709E+04  5.64464E+04 -7.21479E+04 -1.40624E+03
 -5.78782E+04 -6.41079E+04 -1.14136E+04 -8.12411E+04  3.41083E+04 -5.62488E+04  5.04228E+04 -2.59013E+04
  4.85520E+04  1.68788E+04  3.45034E+04  3.18178E+04  1.63186E+04  3.33338E+04  2.75847E+03  2.72567E+04
 -2.64299E+04  9.68592E+03 -1.43447E+04 -6.98306E+03  7.02607E+03 -1.25189E+04  2.18201E+04  1.16848E+04
  7.70135E+03  3.36766E+04 -3.46212E+04  3.39690E+04 -6.57557E+04  6.39059E+03 -5.59713E+04 -4.12731E+04
 -8.21067E+03 -6.52676E+04  3.89485E+04 -4.53550E+04  6.45435E+04  1.46948E+03  3.85462E+04  3.13766E+04
 -2.91321E+03  3.50769E+04 -3.32778E+04  1.67327E+04 -3.68432E+04 -5.20519E+03 -1.92823E+04 -1.16672E+04
 -1.27359E+04 -8.22218E+03 -7.73397E+03 -1.20397E+04  3.60971E+03 -2.03970E+04  1.87684E+04 -1.39959E+04
  1.78436E+04  1.85637E+03 -1.38768E+04  1.64701E+04 -2.64830E+04 -5.98077E+03 -3.12873E+03 -3.59914E+04
  2.14819E+04 -4.57484E+04  5.44703E+04 -1.61197E+04  4.95821E+04  2.30247E+04  1.77203E+04  5.72637E+04
 -1.36956E+04  3.30256E+04 -2.75284E+04 -2.49931E+03 -1.44207E+04 -2.64424E+04  2.58845E+04 -3.25018E+04
  3.83162E+04 -1.44579E+04  3.82568E+04  1.79056E+04  2.65965E+04  5.66026E+04 -1.57911E+04  5.89589E+04
 -3.66069E+04  3.52721E+04 -4.93571E+04  9.45349E+03 -4.83844E+04 -1.44811E+04 -2.56365E+04 -4.39263E+04
  7.41437E+03 -4.77943E+04  3.24102E+04 -1.67449E+04  3.43121E+04  1.04206E+04  2.52901E+03  2.38416E+04
 -1.39155E+04  8.51799E+03 -1.20319E+04 -1.36021E+03  2.31761E+03 -9.70534E+03  1.75946E+04  4.57364E+03
  1.99841E+04  2.38972E+04 -8.29150E+03  2.59042E+04 -2.08735E+04  8.52002E+03 -2.78348E+04 -6.05800E+03
 -2.11274E+04 -1.65974E+04 -1.26426E+04 -2.27658E+04  3.15910E+03 -2.72318E+04  1.94823E+04 -1.65894E+04
  3.25776E+04 -1.81227E+04  3.55209E+04  1.08482E+04  2.62733E+04  2.86010E+04  7.35739E+03  4.67046E+04
 -1.68863E+04  3.84667E+04 -2.51420E+04  1.39265E+04 -2.12457E+04 -1.01542E+04 -1.21572E+04 -9.42028E+03
 -1.60807E+03  1.36688E+03 -7.76272E+03  2.97618E+03 -1.72604E+04  5.71174E+03 -1.60700E+04 -8.94400E+03
 -1.69428E+04 -2.55706E+04  1.05227E+04 -2.39614E+04  2.39528E+04 -1.82344E+04  2.36909E+04 -6.97752E+03
  1.87982E+04  1.60680E+04  1.10656E+03  2.44805E+04 -1.57096E+04  1.79003E+04 -2.00541E+04 -5.55590E+03
 -1.28739E+04 -1.79141E+04 -6.74126E+02 -3.15578E+04  1.41875E+04 -1.79400E+04  2.72891E+04 -1.33149E+04
  2.56402E+04 -8.01338E+01  1.20232E+04  1.46357E+04  1.02513E+04  6.38974E+02  1.15448E+04 -5.26118E+03
  2.33259E+04  2.03302E+03  2.61248E+04  1.28224E+04  1.79728E+04  4.02634E+04 -2.35659E+03  4.39890E+04
 -2.51220E+04  4.00289E+04 -3.46706E+04  1.72951E+04 -4.06080E+04 -3.04259E+03 -3.65344E+04 -3.08153E+04
 -1.48820E+04 -3.97917E+04  1.50578E+04 -2.98385E+04  2.98788E+04 -1.61028E+04  2.12090E+04  1.23145E+04
  8.15533E+03  2.01719E+04 -9.71769E+03  1.44285E+04 -2.04100E+04  3.47757E+03 -1.41440E+04 -1.82983E+04
 -3.44195E+03 -1.59459E+04  7.02995E+03 -1.55356E+04  8.08457E+03  1.66104E+03  5.69478E+03  7.12578E+03
 -6.60309E+03  1.26312E+03 -5.08988E+03 -9.67902E+03 -2.49951E+03 -1.43709E+04  1.35739E+04 -1.91549E+04
  2.32912E+04 -1.41543E+04  2.83001E+04 -4.30244E+03  1.46506E+04  1.66192E+04  1.12684E+04  2.77615E+04
 -6.68686E+03  2.81151E+04 -1.70426E+04  2.05404E+04 -1.96268E+04 -8.62173E+02 -1.36966E+04 -9.82293E+03
 -7.68123E+03 -1.13256E+04  3.44687E+03  3.78747E+03 -9.21097E+03  1.38514E+03 -1.08799E+04  2.69040E+03
 -1.04745E+04  3.65930E+03 -1.23561E+04 -6.60215E+03 -1.61975E+04 -1.53817E+04  3.24824E+03 -1.34740E+04
  1.27784E+04 -3.54781E+03  1.35900E+04  2.47214E+03 -8.47735E+03  7.56509E+03 -7.80193E+03 -4.81140E+03
 -6.26195E+03 -1.03886E+04 -1.27898E+03 -1.55232E+04  8.21582E+03 -1.74705E+04  1.61828E+04 -7.82738E+03
  2.28876E+04  7.25226E+02  1.69991E+04  1.56561E+04  7.32877E+02  2.26743E+04 -1.21452E+04  1.77929E+04
 -1.18731E+04  2.04978E+03 -3.46512E+02 -2.08259E+03  4.34539E+03 -1.79060E+03  9.08996E+03  2.26337E+03
  4.92897E+03  4.53383E+03  3.59565E+03  9.72068E+03 -8.46926E+03  8.53964E+03 -1.54445E+04  1.43878E+03
 -3.47241E+03 -8.70192E+03  3.24720E+03 -1.33780E+04  1.35383E+04 -4.91951E+03  9.99054E+03 -5.75489E+02
 -2.33328E+03  1.20996E+04 -1.07078E+04  1.36403E+04 -9.59195E+03  6.34775E+03 -1.17076E+04 -6.52226E+03
 -6.58938E+03 -1.27193E+04  4.87109E+03 -1.88980E+04  1.90028E+04 -1.43711E+04  1.62336E+04  4.71640E+03
  1.26876E+04  1.48455E+04 -2.82284E+03  1.92219E+04 -5.51097E+03  5.36900E+03 -7.64446E+03 -1.87405E+03
 -1.95119E+04 -8.71124E+03 -5.89948E+03 -1.24128E+04  1.66942E+03 -9.19413E+03  1.36551E+03 -7.58232E+03
  1.02721E+04  2.68285E+03  3.95447E+03 -5.88602E+02 -3.31279E+03 -2.74826E+03  3.96142E+02 -4.91080E+02
  8.26729E+03 -1.52615E+03  1.81115E+04 -3.64377E+02  1.40670E+04  1.18339E+04  1.04938E+04  2.35439E+04
 -1.26269E+04  2.32512E+04 -2.05297E+04  1.08433E+04 -2.49993E+04  3.22325E+03 -1.68616E+04 -1.29698E+04
 -9.49387E+03 -1.97071E+04 -1.94415E+02 -1.56007E+04 -8.31663E+02 -7.79390E+03  1.11872E+04 -7.88706E+03
  3.72908E+03  6.01121E+03  4.21466E+03 -3.33955E+03  5.38904E+03 -2.93605E+03  8.14324E+03  5.02732E+03
  1.61463E+04  9.83431E+02  7.33084E+03  8.04805E+03 -8.03583E+03  4.27620E+03 -9.08759E+03  6.07949E+03
 -2.99727E+03 -6.62107E+03 -1.20345E+04 -9.51374E+03 -1.64438E+03 -1.15376E+04  1.29917E+04 -1.29187E+04
  1.74002E+04 -1.25172E+04  2.32362E+04  1.05622E+03  1.59707E+04  1.07977E+04 -3.06219E+02  1.99942E+04
 -6.82378E+03  1.45063E+04 -1.52859E+04 -1.69949E+03 -1.02959E+04 -1.59495E+03 -3.17719E+03 -2.67551E+02
 -1.12255E+03  3.04994E+02 -4.21862E+03  6.95972E+03 -1.74586E+03 -3.09568E+03 -7.79451E+03 -5.93353E+03
 -4.50760E+03 -5.06512E+03 -5.27032E+03 -1.94302E+04  6.04910E+03 -1.50148E+04  1.19180E+04 -2.25318E+03
  1.03021E+04  4.95968E+03  9.83346E+03  4.43963E+03  3.21928E+02  1.29184E+04 -1.12986E+04  5.44528E+03
 -1.33148E+04 -2.60441E+03 -1.24515E+04 -8.61449E+03  8.20196E+03 -8.64833E+03  6.53499E+03 -1.21740E+04
  1.36876E+04  4.24430E+03  3.63497E+03  7.68064E+02  4.78425E+03  5.10165E+03 -2.50498E+03  4.04778E+03
  3.06893E+03 -4.27870E+02 -8.03910E+02  2.61329E+03 -1.61764E+03  7.39702E+02  3.52395E+03  9.34279E+03
  1.53292E+03  1.05754E+04 -7.05456E+03  6.21119E+03 -1.93773E+04 -1.45650E+03 -1.26634E+04 -8.86001E+03
 -4.39026E+03 -9.74303E+03  5.31152E+03 -1.45499E+04  8.67754E+03 -9.25736E+03  1.13808E+04 -2.35061E+03
  1.29391E+04  6.72375E+03  7.20684E+03  7.43694E+03 -8.42504E+03  8.24279E+03 -4.69207E+03  1.04071E+03
 -1.06407E+04 -5.11086E+03  7.37964E+03 -4.61753E+03  1.98749E+03 -1.37388E+03  7.68048E+03 -3.00966E+03
  5.47402E+03 -3.85858E+02 -6.09180E+02  2.54987E+03  4.03786E+03  7.52942E+03  3.33080E+03  3.84027E+03
  1.41154E+03 -3.06793E+03  5.35736E+03  1.98679E+03  5.43601E+03  6.99973E+03 -3.30439E+03  1.29653E+04
 -1.31728E+04  2.88806E+03 -8.13168E+03  1.08222E+03 -9.84132E+03 -4.91384E+03 -2.04431E+03 -5.05660E+03
 -3.89982E+03 -5.64899E+03  1.37206E+03 -2.39278E+02 -4.92773E+03  1.78475E+03 -1.60498E+03  6.41816E+03
 -9.49327E+03 -6.62962E+02 -1.16735E+04 -4.42489E+01 -6.07885E+03 -1.90339E+03 -2.03099E+03 -9.67101E+03
  2.89902E+03 -3.63550E+03  1.78699E+03 -1.11912E+03  3.92046E+03 -1.16918E+03  5.08401E+03  2.98665E+03
 -3.42056E+03  1.76081E+03 -1.38803E+03 -5.73444E+02  4.67190E+03 -5.45813E+03  3.80404E+03 -5.24343E+03
  5.08219E+03  2.50147E+03  1.27731E+04  4.43295E+02  6.50203E+03  7.66891E+03 -7.24114E+03  1.86398E+04
 -4.82649E+03  6.56978E+03 -9.49409E+03  4.79225E+02 -8.60869E+03 -5.47881E+03  6.92253E+02 -2.48904E+03
  9.45408E+03 -2.11892E+03 -7.61417E+02 -1.17287E+03  3.54702E+03  1.06767E+04 -2.83632E+03  3.48074E+03
 -2.11959E+03 -3.15770E+02  7.47835E+01  3.76057E+03  1.05552E+03 -1.02357E+03 -5.52846E+03  5.22402E+03
 -3.05406E+03  5.31332E+03 -3.35677E+03  6.64087E+03 -1.04441E+04  1.36145E+02 -1.14262E+04 -1.97239E+03
 -1.16733E+04 -1.59768E+04  4.26920E+03 -1.43384E+04  5.00669E+03 -9.25443E+03  1.79977E+04 -3.78550E+03
  1.20541E+04 -2.25356E+03  4.21975E+03  1.21308E+04  3.00579E+03  9.61663E+03 -5.41842E+03  9.43180E+03
 -8.97192E+03 -5.83138E+03 -1.25302E+03  3.49206E+03 -6.61814E+01  1.89568E+03 -5.85585E+03  5.27146E+03
  2.67555E+03  8.12954E+02 -2.17272E+03 -4.18620E+03  4.78426E+03 -5.20271E+03 -5.16524E+03 -7.82209E+03
  2.38553E+03  1.82165E+02  6.36812E+03 -4.94190E+03  3.90033E+03  4.13119E+03  9.74710E+02  1.40091E+04
 -1.47352E+03  6.46900E+03 -1.28848E+04  4.23585E+03 -1.08950E+04  7.22762E+01 -3.04609E+03 -6.04098E+03
  1.80899E+03 -1.21911E+04  3.12182E+03 -9.39284E+03  7.41144E+03 -7.56090E+03  7.28111E+03 -6.66161E+03
 -1.39068E+02  2.90107E+03  1.84284E+02 -8.50062E+02  3.93659E+03 -5.79706E+03  7.70196E+03 -2.56805E+03
 -2.93055E+03  2.01288E+02  5.26596E+03  3.16234E+03 -3.55264E+03  6.41329E+03  5.38372E+03  2.96904E+03
 -4.37015E+03  5.89612E+03 -8.12021E+03  2.22697E+03 -4.81585E+03 -7.35688E+03 -9.41720E+02 -2.08186E+03
  4.04149E+03 -8.31581E+03  9.21036E+03 -2.18452E+03  6.99606E+03 -1.18375E+03  6.01962E+03  1.05793E+03
  4.59908E+03  7.34260E+03 -9.42481E+03  6.85592E+03 -3.72371E+01  5.76845E+03 -7.20870E+01  3.91325E+02
 -2.79308E+03  2.57548E+03  5.58696E+03 -9.64151E+02 -5.48765E+03  1.41989E+03 -5.18467E+02 -2.51671E+03
 -5.72031E+03 -6.88912E+03  2.76525E+03 -3.64628E+03  1.06262E+03 -3.67950E+03  4.67095E+03  1.40282E+03
  3.91295E+03 -6.89308E+02 -2.15831E+03 -1.35853E+03  3.11161E+03  2.06177E+03 -1.08498E+04  3.22002E+03
