 $NMID ID='MM_0lb_SNR50_19hz_g50_87.RAW', FMTDAT='(8E13.5)'
 TRAMP=1., VOLUME=1. $END
  3.12146E+05  1.46378E+03  3.39712E+05  2.55193E+05  8.84562E+04  3.35668E+05 -1.29373E+05  2.51827E+05
 -1.90303E+05  8.65352E+04 -1.11309E+05 -3.15702E+04  2.63975E+03 -4.92620E+04  5.02712E+04  1.13426E+03
  3.66627E+04  5.18404E+04 -1.48159E+04  7.52129E+04 -6.27758E+04  5.81551E+04 -8.41808E+04  3.40385E+04
 -7.86118E+04 -1.29088E+04 -5.74547E+04 -5.24170E+04 -1.05883E+04 -6.31556E+04  2.10052E+04 -4.51309E+04
  4.15564E+04  3.22940E+03  1.33736E+04  4.30258E+04 -3.05258E+04  4.59971E+04 -6.62753E+04 -2.78659E+03
 -5.61868E+04 -5.80421E+04 -5.51831E+03 -7.76685E+04  3.51681E+04 -5.44085E+04  4.76110E+04 -1.86089E+04
  4.00080E+04  1.38212E+04  3.27944E+04  2.35854E+04  1.39916E+04  2.74277E+04  3.22605E+03  2.84486E+04
 -2.33547E+04  1.14033E+04 -1.96594E+04 -2.42332E+03  9.47060E+03 -7.95279E+03  2.30807E+04  9.61186E+03
  4.26976E+03  3.51258E+04 -2.93912E+04  3.18367E+04 -6.44969E+04  3.85882E+03 -5.29809E+04 -4.43989E+04
 -1.25447E+04 -6.21051E+04  4.30719E+04 -4.10317E+04  5.70918E+04 -2.76928E+02  3.61106E+04  3.31239E+04
 -8.55810E+03  3.23077E+04 -2.91410E+04  1.22538E+04 -2.95781E+04 -4.02786E+03 -1.13166E+04 -1.03482E+04
 -4.52623E+03 -1.05072E+04 -4.06103E+02 -1.94386E+04  9.44980E+03 -2.01503E+04  1.75456E+04 -1.19290E+04
  1.36652E+04  4.13219E+03 -4.42907E+03  1.36411E+04 -1.82495E+04 -1.80563E+03 -6.98309E+03 -3.19760E+04
  1.48755E+04 -3.95911E+04  4.39176E+04 -1.91977E+04  3.69069E+04  1.96024E+04  1.51239E+04  4.07423E+04
 -1.55197E+04  3.09772E+04 -2.75622E+04 -3.30550E+03 -6.67185E+03 -2.40401E+04  2.04272E+04 -3.31531E+04
  3.95822E+04 -8.35350E+03  3.49491E+04  2.19565E+04  1.18704E+04  4.30577E+04 -5.91775E+03  4.80460E+04
 -2.95643E+04  3.06046E+04 -3.82973E+04  7.05257E+03 -4.09619E+04 -1.32938E+04 -2.47429E+04 -3.30349E+04
  9.55077E+03 -3.28969E+04  2.93335E+04 -1.50018E+04  2.94119E+04  8.36534E+03  1.14204E+03  2.11540E+04
 -1.40002E+04  8.16920E+03 -9.18769E+03 -4.61372E+03  7.44748E+03 -1.33339E+04  1.75111E+04  6.61323E+03
  1.06531E+04  2.28533E+04 -2.78180E+03  2.64355E+04 -2.10075E+04  1.01313E+04 -2.83696E+04 -6.97841E+03
 -1.65127E+04 -1.55655E+04 -6.33851E+03 -1.45018E+04  2.25093E+03 -1.94266E+04  1.44715E+04 -1.57303E+04
  1.51962E+04 -1.36734E+04  2.97591E+04  4.36563E+03  2.13006E+04  2.24166E+04  1.49329E+03  3.04576E+04
 -1.23927E+04  2.83595E+04 -2.25186E+04  9.03834E+03 -1.74914E+04 -8.31181E+03 -7.26772E+03 -1.38554E+04
 -1.48985E+03 -2.85552E+03 -3.74777E+03  7.94976E+03 -1.79765E+04  3.79026E+03 -1.58130E+04 -6.22894E+03
 -2.60607E+03 -1.38461E+04  4.52613E+03 -2.01753E+04  1.35550E+04 -1.30871E+04  1.76158E+04  4.44007E+03
  6.38340E+03  7.49791E+03 -7.80738E+03  1.39967E+04 -7.33208E+03  7.29337E+03 -1.28312E+04 -8.70049E+02
 -1.37729E+04 -8.79814E+03 -3.28751E+03 -2.10311E+04  1.30541E+04 -1.62034E+04  1.41898E+04 -7.03076E+03
  1.63293E+04  7.11175E+03  9.15450E+03  4.70781E+03  5.90715E+03 -5.20287E+02  1.01179E+04 -3.49308E+03
  1.75989E+04  1.89099E+03  1.57343E+04  1.67575E+04  5.80480E+03  2.40795E+04 -5.20090E+03  2.74318E+04
 -1.91916E+04  1.71784E+04 -2.42722E+04  1.17021E+04 -2.37553E+04 -1.62015E+03 -2.25737E+04 -7.92725E+03
 -7.58760E+03 -2.06161E+04  3.88762E+03 -1.68865E+04  1.39959E+04 -1.27701E+04  1.60067E+04 -9.62040E+02
  6.27169E+03  1.18765E+04 -4.67200E+03  1.03872E+04 -1.31844E+04  1.84226E+03 -1.11685E+04 -7.60055E+03
 -1.29926E+03 -1.06767E+04  9.54806E+03 -1.25185E+04  8.21126E+03 -1.81903E+03  9.54268E+02  7.72187E+03
 -3.12479E+03  1.74672E+03 -3.88891E+03 -6.75769E+03 -8.37045E+01 -1.12670E+04  8.14199E+03 -1.06976E+04
  1.15106E+04 -4.04262E+03  1.17537E+04  1.06831E+03  1.21614E+04  4.86440E+03  7.07948E+03  1.49118E+04
 -4.22814E+03  1.51646E+04 -1.10742E+04  1.29986E+04 -1.26992E+04  5.53437E+03 -1.03867E+04  8.84703E+01
 -7.31341E+03 -2.43138E+03 -2.73134E+03  3.01175E+02 -2.38893E+03  4.15002E+03 -2.66192E+03  2.98376E+03
 -1.02429E+04  1.73620E+03 -7.80099E+03 -5.46702E+03 -6.69717E+03 -8.40828E+03  1.21916E+03 -8.18222E+03
  6.06669E+03 -6.99181E+03  4.15051E+03  5.44560E+02 -1.13245E+03 -9.24066E+02 -5.07628E+03 -3.65417E+03
  1.15235E+03 -4.83853E+03 -2.30330E+01 -5.34564E+03  1.38127E+03 -1.07552E+04  7.09618E+03 -2.25045E+03
  7.03408E+03 -7.28802E+02  9.48526E+03  2.61076E+03  1.61241E+03  7.17777E+03 -1.55123E+03  8.25350E+03
 -3.81596E+03  6.63713E+02 -3.47872E+03  2.78679E+02  1.81179E+03  1.80583E+03  5.06435E+03 -2.48801E+03
 -7.52099E+02  3.33822E+03  3.79528E+03  6.14651E+03 -1.09592E+03  4.53683E+03 -6.09564E+03  9.11766E+03
 -3.31728E+03 -2.51398E+03  6.13732E+02 -3.25182E+03  6.10388E+03 -2.43813E+03  2.48780E+03 -2.93057E+02
 -3.90708E+03  5.08060E+03 -5.23275E+03  4.63200E+03 -1.23330E+03  2.50586E+03 -7.37052E+03 -1.53729E+03
 -6.41363E+03 -8.89450E+03 -3.55889E+00 -8.46846E+03  1.25240E+03  8.73688E+02  5.04992E+03  4.06209E+03
  6.36387E+03  2.98307E+03 -4.97111E+03  9.84161E+03 -5.13306E+03  3.41885E+03 -2.80913E+03 -1.69642E+03
 -5.91722E+03 -4.96969E+03  1.64546E+03 -2.88908E+03  6.19780E+02 -5.81386E+03  3.44577E+03 -4.82825E+03
  1.24000E+03 -2.39374E+03 -2.80384E+03  1.35589E+03  3.41381E+03  1.45934E+03 -1.17957E+02  2.28246E+03
  4.13119E+03 -1.16572E+03  9.95833E+03  3.85520E+02  4.67601E+03  1.66160E+03  5.40952E+03  5.16583E+03
 -4.18364E+03  7.62355E+03 -7.35965E+03  5.21025E+03 -1.23715E+04 -2.48730E+03 -9.68556E+03 -5.25781E+03
 -4.83353E+03 -5.27785E+03 -8.73066E+02 -3.65455E+03  4.04038E+03 -3.42961E+03  6.33187E+03  2.35039E+03
  2.69331E+03 -1.40833E+03  2.22496E+03 -5.21513E+03  1.05209E+03 -5.66622E+03  4.50017E+03  2.16471E+03
  3.34270E+03  1.54461E+03 -1.15826E+03  8.18488E+03 -1.56060E+03  3.16915E+03 -2.45880E+03  3.54138E+03
 -9.37816E+03 -6.52865E+02  1.02129E+03 -2.90856E+03 -1.16651E+03 -5.90211E+03  6.88225E+03 -6.10525E+03
  2.71840E+03 -2.48749E+03  2.39361E+03 -2.93520E+03  4.38928E+03  5.46077E+03  6.00535E+01  7.69163E+03
 -3.82730E+03  7.62175E+03 -5.43289E+03  4.00894E+03  1.39239E+03 -4.41475E+03 -8.90310E+02  6.55840E+03
  1.03547E+03  1.94725E+03 -1.92712E+03 -4.77973E+02 -1.95385E+03  1.19104E+03 -7.06129E+03 -5.24081E+03
 -1.33168E+01 -5.59168E+03  6.13750E+02 -2.91183E+03  3.23309E+03 -4.41372E+03  6.34579E+03  1.47942E+03
  2.07890E+03  5.65972E+03 -4.52123E+03 -9.81701E+02 -2.79393E+03 -3.87785E+02 -8.58765E+02 -3.51327E+01
  2.90073E+02 -1.51434E+03 -2.03212E+03 -6.60976E+03  7.34118E+02 -2.82045E+03  7.40911E+02  1.34965E+03
  1.99173E+03  1.13294E+03  7.19589E+02  2.34265E+02 -2.80498E+03  6.51425E+03 -7.63259E+02  1.96119E+03
  9.21947E+02  1.53536E+02  5.86691E+02 -1.77204E+03  3.62037E+03  4.01706E+03 -1.71952E+02  5.90860E+02
 -8.04939E+02 -1.79418E+02 -2.66898E+03  3.67385E+03 -2.61990E+03  5.23699E+02 -3.31575E+03  2.32650E+03
 -2.65027E+03 -3.33841E+03  2.12564E+03 -6.74740E+03  9.99487E+02 -4.33110E+03  5.72173E+03 -7.77800E+03
  7.20224E+02 -2.19822E+02 -1.16124E+03 -8.19129E+02  2.44261E+02  1.50714E+03  7.68347E+02  1.21576E+03
 -1.09528E+03 -1.37741E+03  3.47440E+03  2.40981E+03 -5.34944E+02 -5.94910E+02  1.16562E+03  7.07408E+02
 -7.20872E+02 -3.51672E+03 -3.83069E+03 -1.74665E+03  7.85573E+02 -7.45585E+02  3.81949E+03 -2.51379E+03
  1.13875E+03 -1.28568E+03  4.59185E+03  1.82482E+03  2.81485E+02  4.07134E+03 -4.65050E+01  6.43264E+02
  7.94486E+02  3.31385E+03  4.03532E+02  2.49796E+03  9.05479E+02 -1.02479E+02 -5.55487E+03 -7.27091E+02
  3.35440E+03  3.25514E+03  3.04236E+03 -1.68178E+02 -1.92676E+03 -7.72840E+02  2.12259E+02  3.66565E+03
 -2.23963E+03  2.92365E+02 -2.45361E+03 -2.60696E+01 -4.22486E+02 -5.39900E+03 -4.03391E+03  2.75046E+02
 -3.34633E+03 -1.73053E+03  3.21851E+03 -6.58357E+03 -1.13227E+03  3.34354E+03  3.01754E+03 -7.68435E+02
 -2.70326E+02 -3.23745E+03  9.45271E+02 -2.35083E+03  3.41084E+03 -6.66229E+02  5.01602E+02 -2.46958E+02
 -2.49559E+02  1.11345E+03  1.63960E+03 -9.53465E+02  2.06858E+03 -9.96822E+02  4.33118E+02 -3.72087E+03
  1.48291E+03 -4.16183E+01 -7.35888E+03 -2.44002E+03 -4.07348E+03 -6.15222E+03  9.66653E+02 -1.10617E+03
  3.59711E+03 -4.15103E+03  1.99445E+03  1.81808E+03 -9.35908E+02  1.09255E+01 -1.73394E+03  7.46309E+02
 -2.47961E+03  2.52912E+03  1.09144E+03 -2.20077E+03  2.22065E+03 -1.35385E+03 -2.22295E+03 -3.47364E+03
 -1.02608E+03  1.73219E+03  2.34745E+03 -1.66215E+02 -2.35572E+03  1.34233E+03  3.40118E+03  1.80787E+03
 -3.79104E+03 -2.58053E+02 -2.28274E+02 -4.34682E+03  1.00439E+03  2.40056E+03  6.88783E+03 -2.09732E+03
  4.02186E+03 -1.71498E+03  3.24583E+03  1.86909E+03 -8.71237E+01 -2.95012E+03  1.25122E+03  2.64713E+03
 -1.13931E+03  1.46945E+03 -7.94177E+02 -6.02765E+02 -3.95211E+03  3.14124E+02  3.14796E+03 -4.00020E+03
  1.61927E+03  1.98913E+03 -8.78445E+02 -1.53572E+03 -1.98572E+03  3.42627E+02  1.79347E+03 -3.50347E+02
  4.12242E+02 -1.22572E+03  7.35073E+02 -1.68522E+03  4.01340E+03 -2.39716E+03  5.41817E+02  2.81057E+03
  3.99581E+03  1.71274E+03 -1.73997E+02 -6.74178E+01 -9.74768E+02 -1.33549E+03 -2.08698E+03  7.14075E+02
 -5.29899E+01 -4.66645E+03  2.40326E+03 -2.17461E+03 -8.00053E+02  1.09075E+02  2.08849E+03 -6.45085E+02
  2.40934E+02  1.71109E+03  3.56294E+03  4.25848E+03 -1.78421E+03 -1.40405E+03  2.72648E+03 -8.45906E+01
  3.49540E+03  2.33488E+02  1.65577E+03 -1.31114E+03 -2.26342E+03 -1.77342E+03  2.36328E+03  3.29914E+02
 -2.01996E+03  8.16997E+02 -5.59961E+02  5.95900E+02  1.72667E+03  7.97354E+02 -7.43155E+02 -9.69550E+02
  1.25183E+03 -1.45102E+03 -1.87733E+02 -8.65367E+01  2.30999E+03  9.60083E+02 -2.68650E+03 -4.29657E+02
 -1.52219E+03 -2.86521E+03  4.35302E+03  2.33953E+03 -1.86272E+02  2.85216E+03  4.73139E+03  7.02072E+02
 -8.70951E+02  3.05699E+03  8.97339E-01  2.61357E+03 -1.13402E+03 -4.73226E+03 -5.18901E+02  3.19967E+03
 -2.21284E+03 -1.10118E+03 -2.80046E+03 -3.05488E+03  1.40656E+03  1.21487E+03  3.54800E+03 -1.37878E+03
  5.31332E+02  2.73148E+03  5.29595E+01  5.66792E+02 -5.95459E+02 -6.19372E+03 -9.11894E+02  2.39480E+03
