 $NMID ID='MM_0lb_SNR50_19hz_g40_91.RAW', FMTDAT='(8E13.5)'
 TRAMP=1., VOLUME=1. $END
  3.08705E+05  1.10821E+03  3.34350E+05  2.50899E+05  8.19953E+04  3.33886E+05 -1.35328E+05  2.52639E+05
 -1.93356E+05  7.84696E+04 -1.11968E+05 -3.11694E+04  4.85970E+03 -4.80138E+04  5.46735E+04  1.95364E+03
  3.58988E+04  5.24981E+04 -1.74786E+04  7.54912E+04 -6.13519E+04  6.18660E+04 -8.65336E+04  3.17126E+04
 -7.37041E+04 -1.21586E+04 -5.78720E+04 -4.97275E+04 -1.69724E+04 -6.87964E+04  2.56711E+04 -4.37490E+04
  4.06669E+04  3.45127E+03  1.67063E+04  4.71796E+04 -3.37273E+04  4.49604E+04 -6.36006E+04  5.92985E+02
 -4.97327E+04 -5.39026E+04 -5.62554E+03 -7.08358E+04  3.14242E+04 -5.04758E+04  4.10630E+04 -1.63885E+04
  3.73280E+04  1.07197E+04  3.09183E+04  2.49067E+04  1.56158E+04  3.08967E+04 -5.39803E+03  3.12757E+04
 -2.15969E+04  1.21770E+04 -2.27365E+04 -7.04733E+03  3.56194E+03 -7.01197E+03  2.21437E+04  1.05516E+04
  1.24307E+04  3.20947E+04 -2.94780E+04  3.26864E+04 -5.84898E+04 -4.88624E+02 -5.63506E+04 -4.23606E+04
 -1.41350E+04 -6.19310E+04  3.15463E+04 -3.97947E+04  5.55750E+04 -3.40188E+03  3.18573E+04  2.91051E+04
 -3.85631E+03  3.19642E+04 -2.60461E+04  1.23250E+04 -2.87857E+04 -4.61667E+03 -1.51484E+04 -9.14316E+03
 -3.85317E+03 -1.25642E+04 -5.63823E+03 -1.57254E+04  4.61793E+03 -2.28055E+04  1.57160E+04 -1.35166E+04
  8.76865E+03  5.37692E+03 -8.01505E+03  1.18665E+04 -2.05313E+04 -1.34720E+03 -4.52225E+03 -3.11813E+04
  2.05373E+04 -4.23750E+04  4.75693E+04 -1.94119E+04  4.33876E+04  1.43431E+04  1.38839E+04  3.93926E+04
 -1.34109E+04  3.12700E+04 -2.08081E+04  1.34699E+03 -7.41228E+03 -2.21199E+04  2.37553E+04 -2.68055E+04
  3.60852E+04 -4.74970E+03  2.92935E+04  2.35866E+04  1.80928E+04  4.07435E+04 -8.14632E+03  4.23518E+04
 -2.79108E+04  3.23219E+04 -3.40100E+04  7.65062E+03 -3.97288E+04 -1.10661E+04 -1.66894E+04 -3.41312E+04
  9.05743E+03 -3.21891E+04  2.76322E+04 -1.15387E+04  2.23525E+04  7.05410E+03  4.12631E+03  1.62762E+04
 -1.38252E+04  6.77146E+03 -8.97113E+03 -8.98031E+03  5.86229E+03 -1.03280E+04  1.79700E+04  8.50391E+03
  1.43823E+04  2.14336E+04 -1.16282E+04  2.24487E+04 -2.09984E+04  8.49443E+03 -2.17221E+04 -8.07253E+03
 -1.74044E+04 -1.39520E+04 -5.87001E+03 -1.03118E+04  3.33733E+03 -1.31959E+04  1.17224E+04 -1.68102E+04
  1.85042E+04 -8.30988E+03  3.08533E+04  2.80721E+03  2.31454E+04  1.33453E+04  5.52502E+02  3.02040E+04
 -1.91058E+04  2.62303E+04 -2.55495E+04  9.91369E+03 -1.59977E+04 -1.11783E+04 -4.70371E+03 -1.40100E+04
  3.96047E+03 -4.98049E+03 -7.60765E+02  4.35001E+03 -1.14689E+04  2.43211E+03 -1.27713E+04 -2.44814E+03
 -4.06933E+03 -1.48846E+04  7.61985E+03 -1.88982E+04  8.69703E+03 -1.30968E+04  1.33652E+04 -2.91994E+03
  7.13675E+03  9.67851E+03 -3.62373E+02  1.43468E+04 -5.71089E+03  9.71731E+03 -1.25255E+04 -7.82350E+03
 -1.15693E+04 -1.46094E+04  1.15628E+03 -1.70547E+04  9.07099E+03 -1.35800E+04  1.14469E+04 -6.88724E+03
  1.03719E+04 -1.19925E+03  8.19085E+03  6.27457E+03  2.12994E+03 -3.03937E+03  7.36684E+03  1.74526E+03
  1.50365E+04  3.75974E+03  1.56054E+04  8.24485E+03  9.02678E+03  2.26246E+04 -6.19434E+03  2.58928E+04
 -1.83737E+04  2.31469E+04 -2.18634E+04  1.22073E+04 -2.17964E+04  1.33144E+03 -1.80832E+04 -1.55970E+04
 -4.97711E+03 -1.90811E+04  5.13261E+03 -1.65434E+04  1.47374E+04 -1.25676E+04  1.23659E+04  5.05032E+03
  5.30331E+03  7.90431E+03 -9.62625E+03  6.50937E+03 -1.74239E+04  2.65064E+03 -9.08300E+03 -7.92334E+03
  1.59983E+03 -9.51467E+03  3.88268E+03 -7.01080E+03  6.75284E+03 -3.23975E+00 -1.81858E+03  9.06687E+03
 -6.31667E+03 -1.18303E+03  1.29388E+03 -6.00995E+03  6.22744E+02 -1.00408E+04  9.80729E+03 -8.59223E+03
  1.04055E+04 -3.35343E+03  9.72664E+03  4.03516E+03  9.40960E+03  1.00673E+04  6.19941E+03  1.85498E+04
 -1.36633E+03  1.64708E+04 -8.94500E+03  1.00816E+04 -9.09828E+03  3.16596E+03 -8.37744E+03 -2.68941E+03
 -4.51911E+02 -1.72113E+03 -2.13690E+03 -9.23501E+02 -1.30445E+03  2.27031E+03 -1.85436E+03  3.56835E+03
 -1.29851E+04  4.11447E+01 -7.71912E+03 -7.15340E+03 -8.98461E+03 -1.24126E+04  3.72735E+03 -6.47796E+03
  8.09022E+03 -2.73973E+03  2.74640E+03  8.84489E+02  1.35378E+03  8.69741E+03 -3.87645E+03  2.38049E+03
 -4.88581E+02 -4.84877E+03 -8.12592E+02 -7.83772E+03  3.66447E+03 -7.82153E+03  1.08157E+04 -6.27960E+03
  1.16700E+04 -1.51050E+03  1.23657E+04  2.84545E+03  3.45970E+03  1.38698E+04 -9.07012E+03  1.09040E+04
 -7.38617E+03  1.10918E+03 -2.70632E+03 -3.16492E+03 -1.56279E+03 -7.78226E+02  1.54989E+03 -1.71340E+03
  4.04617E+03  8.05332E+03  4.35140E+03  1.31141E+03 -3.27598E+03  7.87332E+03 -9.58989E+03  6.35269E+02
 -4.21810E+03 -4.93920E+03  2.13338E+02 -5.57841E+03  1.33432E+03 -4.11569E+03  3.29019E+03 -2.39370E+03
  1.19203E+03  5.77588E+03 -3.77927E+03  7.07983E+03 -7.70334E+02  6.59768E+03 -3.58738E+03 -2.30115E+02
 -4.54920E+03 -5.65030E+03 -1.20007E+03 -5.71348E+03  1.77636E+03 -2.81192E+03  5.76339E+03 -3.02175E+02
  5.35888E+03  5.27548E+03 -3.67699E+03  6.45434E+03 -6.47099E+03  6.18622E+03 -8.95162E+03  9.75352E+02
 -6.73413E+03 -4.17694E+03  1.42410E+03 -5.83255E+03  4.46540E+03 -5.51337E+03 -6.97046E+02 -5.08027E+03
  4.95828E+03  2.12857E+03 -2.03285E+03  7.97933E+02  2.11154E+03 -1.92969E+03  1.28129E+03  1.80861E+03
  4.11145E+03 -2.35977E+02  5.38250E+02 -6.82111E+02  2.11696E+03  3.69487E+03  7.01176E+03  6.91270E+03
 -8.68718E+02  4.54838E+03 -6.90162E+03  5.57100E+03 -9.39251E+03 -2.04548E+02 -7.29464E+03 -8.48041E+03
 -4.88975E+03 -5.30340E+03 -3.89824E+03 -4.67422E+03  1.47721E+03 -5.47053E+03 -7.20059E+02 -2.62084E+03
  4.81919E+03 -6.50270E+02  5.66947E+03 -1.80682E+03  5.09810E+02 -5.18193E+01  7.76786E+02  5.31900E+03
  3.95319E+03  5.71082E+03 -1.90195E+03  3.59831E+03 -2.34054E+03  2.84237E+03 -8.97442E+02  3.71964E+03
 -5.23392E+03 -2.01549E+03  3.33086E+02 -3.82628E+03  2.47066E+03 -3.13727E+03  4.10683E+03 -5.56627E+03
  3.23037E+03 -2.58566E+03  5.75587E+03 -1.37525E+03  6.19926E+03  2.06951E+03 -3.99898E+03  4.23437E+03
 -4.70055E+03  7.15368E+03 -6.83554E+03  4.03561E+03 -2.93054E+03 -4.73366E+03  7.69524E+02 -6.29268E+02
 -2.27622E+03 -1.97971E+03 -2.43815E+02  5.16655E+03 -1.68671E+03  2.45293E+03 -4.65806E+03 -2.42801E+03
  1.49146E+02 -3.65681E+03  3.23625E+03 -3.96067E+03  4.93167E+03 -4.52935E+03  2.85207E+03  1.18102E+03
  8.09153E+03  1.77208E+03  2.30224E+03  4.99006E+03 -1.88515E+02  6.29001E+03 -4.05495E+03  3.43453E+03
  5.23582E+01 -1.08310E+03 -1.55441E+03 -1.15904E+02  1.41261E+03 -3.72244E+03  1.94618E+03 -3.34084E+03
  6.08967E+01  4.84987E+03  4.43512E+03  3.27083E+03  2.87006E+03 -3.08476E+01 -2.47009E+03  2.75681E+03
  2.37132E+03  2.40562E+03  2.34948E+03  1.80398E+03  8.12536E+02  3.73204E+03  5.92968E+02 -1.41001E+03
 -5.15953E+02  5.78809E+03 -5.07655E+02  5.00407E+03 -2.08733E+03 -1.00555E+03 -4.84282E+03 -1.54263E+03
 -1.47312E+03 -3.79791E+03  1.80654E+02 -4.49456E+03 -1.85198E+03 -5.12163E+03  1.18463E+03  1.46047E+03
 -3.46448E+03  3.07893E+03  2.47418E+03  4.03059E+03 -1.59445E+03 -9.75309E+02 -1.66778E+03  2.04709E+03
  1.84648E+02 -1.74565E+03 -1.89048E+02 -3.15743E+03  2.19262E+02  1.63977E+03  3.15666E+03  7.67020E+02
 -1.42548E+03  1.61934E+03  2.65142E+03  1.48502E+03  1.20551E+03  3.60200E+03  2.05017E+03 -3.73239E+01
 -1.58356E+03 -9.94784E+02  5.96648E+03  5.04241E+02  1.65346E+03  2.05087E+03 -5.50617E+02  9.58459E+02
 -2.59858E+03  5.30317E+03 -2.42126E+03 -2.69848E+03 -8.25486E+02  1.52370E+03 -2.03862E+03 -6.37401E+02
 -3.12530E+02 -1.78674E+03  2.67669E+03 -3.67788E+03  2.57878E+03 -5.30454E+02 -1.79097E+02 -4.28253E+02
 -2.69538E+03 -4.46728E+02 -5.47670E+03 -3.55189E+03 -1.10654E+03  8.22593E+02 -9.26940E+02 -1.78659E+03
  1.26077E+03  1.13952E+03  8.76104E+03  2.93824E+02  5.00942E+03  4.59889E+02 -2.39957E+03  2.15090E+03
  1.46658E+03 -3.05955E+03  4.02325E+01 -2.56543E+03 -1.42578E+03  2.51769E+03  4.32133E+02 -7.53788E+02
 -1.67961E+03  1.51599E+02  1.55927E+03 -6.04862E+02 -3.60858E+03  1.51388E+01  3.51544E+02  7.78870E+02
 -1.88371E+03 -4.54435E+02 -1.61135E+03 -2.66082E+03 -1.60025E+03 -4.15930E+03  3.83274E+03  1.27248E+03
  3.17107E+03  1.84975E+03 -2.92947E+02 -1.41743E+03 -1.07094E+03  2.54647E+03  1.02843E+03 -2.51705E+03
  9.10683E+02  1.96019E+03  3.02724E+03  9.63999E+02 -3.86953E+01 -4.52308E+03 -6.01607E+02 -3.65576E+02
  2.17782E+03 -3.55430E+02 -2.76589E+03  3.78121E+03  1.19476E+03 -2.80858E+03 -4.52777E+03 -3.34155E+03
 -3.12703E+03  2.48030E+03  3.03484E+03 -2.95569E+03  3.90243E+03 -2.00426E+03  6.40559E+03  3.73005E+03
  1.68035E+03 -2.39578E+03 -2.81556E+03  2.77626E+03 -4.56740E+02  2.61409E+03 -8.45431E+02 -1.16543E+03
  2.76502E+03  1.28690E+03 -1.47949E+03 -4.16025E+03 -2.12572E+03  1.11146E+03  9.44030E+02  4.53233E+03
  1.74266E+02  2.39381E+03 -2.50824E+03 -5.91718E+03  1.72008E+03  2.30869E+02  1.76786E+03 -2.18397E+02
  4.94211E+03  8.92867E+02 -2.53406E+03 -3.90956E+02  6.08047E+02 -1.48062E+03  1.32979E+03  1.55307E+03
 -1.82396E+03  5.30999E+03 -1.25427E+03 -1.46884E+02  1.83373E+03 -1.40791E+03  1.24276E+03 -4.26764E+03
 -4.76086E+02 -2.33204E+02  9.16456E+02  4.86184E+03 -1.84199E+03 -7.91081E+02  1.94421E+02  3.96288E+03
  2.27774E+03  1.02718E+03 -6.64097E+02 -2.63047E+03 -3.91167E+03  1.23253E+03  5.73859E+03  5.13383E+03
 -3.60426E+02  1.94422E+03  3.53107E+02 -8.49977E+02 -1.60792E+03  9.60431E+02 -1.05355E+03  6.29775E+02
 -1.33745E+03  3.27405E+03  1.22479E+02 -4.01907E+03  2.48425E+02 -2.61322E+03 -7.20006E+02 -2.45498E+02
  9.68484E+02 -1.37698E+03  3.37045E+03  1.82003E+03 -2.15171E+03  1.57678E+03  6.41156E+02 -1.97913E+03
  1.66680E+03 -3.71189E+02  2.35387E+03  1.38307E+02 -2.74198E+03  2.71735E+03 -1.71545E+02  1.03992E+02
  3.47306E+03 -1.31748E+03 -4.10451E+03 -1.14856E+03 -1.68654E+03  6.40770E+02 -3.21213E+03 -2.10351E+03
 -2.93321E+03  2.85694E+02  1.54491E+03  1.40078E+03  2.74738E+02 -1.32677E+03 -3.28444E+03  3.71474E+03
  1.01890E+02  2.67745E+03 -1.07450E+03  1.84553E+02 -3.61520E+02  1.81126E+03  5.21707E+01 -2.54600E+03
