 $NMID ID='MM_0lb_SNR50_10hz_g55_55.RAW', FMTDAT='(8E13.5)'
 TRAMP=1., VOLUME=1. $END
  3.13888E+05 -2.03517E+03  3.39613E+05  2.53640E+05  8.07220E+04  3.43075E+05 -1.38205E+05  2.50823E+05
 -1.87700E+05  8.03882E+04 -1.13336E+05 -2.66187E+04  2.45280E+03 -5.26302E+04  5.36558E+04 -7.67409E+02
  3.29889E+04  5.38193E+04 -1.70614E+04  7.59095E+04 -6.28687E+04  5.99687E+04 -9.11925E+04  3.37106E+04
 -7.68945E+04 -1.62866E+04 -6.38403E+04 -4.48707E+04 -1.66742E+04 -7.47272E+04  2.36902E+04 -4.86601E+04
  3.42603E+04  2.04294E+03  1.74150E+04  4.64405E+04 -3.49597E+04  5.01596E+04 -6.86835E+04  2.55101E+03
 -4.99761E+04 -6.09884E+04 -6.59280E+03 -8.14517E+04  3.65315E+04 -5.65052E+04  5.08365E+04 -1.61980E+04
  4.14441E+04  1.75267E+04  3.59533E+04  2.36407E+04  1.76621E+04  2.77943E+04 -6.58531E+03  2.80445E+04
 -2.55188E+04  1.29476E+04 -1.76140E+04 -6.92964E+03  6.99808E+03 -8.15247E+03  2.96782E+04  1.58320E+04
  1.13377E+04  3.52558E+04 -3.11940E+04  3.08619E+04 -6.65048E+04  3.87495E+03 -5.53888E+04 -4.31177E+04
 -1.43533E+04 -5.96935E+04  3.74380E+04 -4.71085E+04  6.25954E+04 -2.04779E+03  3.46443E+04  3.18670E+04
 -5.84586E+03  3.52727E+04 -3.48708E+04  1.56126E+04 -3.45295E+04 -5.40869E+03 -1.43957E+04 -1.19710E+04
 -3.94475E+03 -1.52814E+04  3.38552E+03 -2.39142E+04  7.03534E+02 -2.70814E+04  1.78042E+04 -1.62627E+04
  1.20953E+04  1.27073E+04 -9.99181E+03  1.62509E+04 -2.36991E+04 -5.51073E+03 -2.17147E+04 -3.45234E+04
  1.97603E+04 -5.14684E+04  4.56297E+04 -1.97342E+04  4.85397E+04  2.32696E+04  2.01843E+04  4.58930E+04
 -1.31985E+04  3.59565E+04 -3.04487E+04  3.65736E+03 -1.41498E+04 -3.69116E+04  2.42538E+04 -4.07652E+04
  4.51502E+04 -9.29235E+03  3.90896E+04  2.77499E+04  2.57866E+04  5.27403E+04 -7.96818E+03  5.46334E+04
 -3.63070E+04  3.53515E+04 -4.91835E+04  1.65575E+04 -4.14478E+04 -1.71684E+04 -2.48692E+04 -4.51467E+04
  1.01569E+04 -3.23971E+04  2.92803E+04 -1.47861E+04  2.98356E+04  1.75196E+04 -1.21314E+03  2.50331E+04
 -1.82322E+04  7.46415E+03 -6.44642E+03 -1.02575E+04  9.79546E+03 -1.13967E+04  1.69062E+04  7.22309E+03
  1.13869E+04  2.20643E+04 -4.23584E+03  2.78310E+04 -1.99899E+04  1.26695E+04 -3.13518E+04 -2.74862E+03
 -2.29334E+04 -1.89731E+04 -1.30007E+04 -2.69057E+04  5.90294E+03 -2.26607E+04  2.01868E+04 -3.03571E+04
  3.22920E+04 -1.31622E+04  3.30850E+04  1.30574E+03  2.91608E+04  2.44203E+04  3.34905E+02  4.37631E+04
 -1.68304E+04  3.10320E+04 -3.10224E+04  1.63188E+04 -2.07201E+04 -7.37651E+03 -1.24545E+04 -1.52503E+04
  2.55073E+03 -1.61202E+03 -5.61754E+03  7.67667E+03 -1.88174E+04  4.75691E+03 -1.74556E+04 -6.16601E+03
 -1.68453E+04 -2.29563E+04  5.89240E+03 -2.12434E+04  1.69333E+04 -2.22835E+04  1.91835E+04  6.38269E+02
  1.38756E+04  1.51302E+04  9.37329E+02  2.89240E+04 -1.06350E+04  1.04708E+04 -2.13144E+04 -1.01335E+04
 -1.75530E+04 -1.71928E+04 -2.60033E+03 -3.07710E+04  6.49241E+03 -2.42034E+04  2.17932E+04 -1.58098E+04
  1.85612E+04  4.27018E+03  1.35455E+04  6.34150E+03  9.43724E+03  4.16572E+03  9.46780E+03  8.64232E+02
  1.73652E+04  3.01408E+03  2.01517E+04  1.70028E+04  1.81042E+04  4.05287E+04  1.08450E+03  4.13599E+04
 -2.72280E+04  3.21573E+04 -4.56613E+04  2.24295E+04 -4.45295E+04 -4.49916E+03 -3.66371E+04 -2.22007E+04
 -1.34192E+04 -4.19147E+04  1.36869E+04 -3.49382E+04  2.94523E+04 -1.48642E+04  2.63923E+04  9.39414E+03
  9.67418E+03  2.33279E+04 -1.59630E+04  1.99470E+04 -1.78501E+04  7.06804E+03 -1.31099E+04 -7.17506E+03
  8.40516E+01 -1.57763E+04  1.75119E+04 -1.49632E+04  1.08008E+04  3.57665E+03  6.40434E+03  1.04499E+04
 -6.08680E+03  2.83237E+03 -9.63477E+03 -8.41452E+03 -2.71974E+03 -1.70610E+04  1.49631E+04 -1.66308E+04
  2.07166E+04 -8.28229E+03  2.60546E+04  4.08070E+03  2.21019E+04  2.17214E+04  6.42214E+03  2.33308E+04
 -7.26621E+03  3.61037E+04 -2.27195E+04  1.74438E+04 -2.36921E+04  5.69116E+03 -1.46425E+04 -3.13033E+03
 -7.56334E+03  1.35444E+03 -1.50287E+03  3.54019E+03  2.20290E+03 -3.67947E+02 -1.74948E+03  5.96494E+03
 -1.46621E+04 -2.40127E+03 -1.96364E+04 -1.11006E+04 -4.45397E+03 -1.41723E+04  4.06398E+03 -2.03492E+04
  1.17453E+04 -7.33006E+03  1.15967E+04  5.73103E+03  1.32216E+03  5.08718E+03 -7.72033E+03  3.66968E+02
 -8.54212E+03 -1.25592E+04  1.51126E+03 -1.33171E+04  1.03044E+04 -1.24763E+04  1.92052E+04 -1.23026E+04
  2.31024E+04 -1.98768E+01  1.50270E+04  1.35905E+04  6.47069E+03  1.34775E+04 -8.34354E+03  1.35450E+04
 -1.29247E+04  5.09896E+03 -8.56818E+03 -1.20965E+03  1.96125E+03 -7.44206E+03  9.44506E+03  1.08759E+03
  1.06938E+04  3.05329E+03 -1.00253E+02  7.42492E+03 -4.44499E+03  1.18353E+04 -1.86036E+04 -2.93505E+03
 -9.00291E+03 -4.19648E+03 -3.20420E+03 -8.46446E+03  7.44167E+03 -7.23182E+03  8.90428E+03  8.71339E+03
 -7.94301E+01  1.13147E+04 -6.27213E+03  1.05385E+04 -7.96843E+03  4.38588E+03 -9.33133E+03 -1.23381E+04
 -9.53171E+03 -1.42936E+04  3.99135E+03 -1.58779E+04  1.51234E+04 -1.55010E+04  1.44170E+04  8.99505E+03
  8.59664E+03  1.52898E+04  4.77760E+03  1.33108E+04 -7.00659E+03  9.98858E+03 -8.23657E+03 -2.01280E+03
 -1.03182E+04 -9.17341E+03 -4.14532E+03 -1.28093E+04  3.31807E+03 -5.47624E+03  1.12429E+04 -4.21370E+03
  1.03486E+04  1.20596E+03 -5.44024E+02  4.22696E+03 -3.18890E+03 -5.37399E+03  4.89272E+02 -5.21439E+03
  1.21557E+04 -6.94354E+03  1.82133E+04  1.70280E+03  1.90281E+04  9.03922E+03  1.05389E+04  1.09918E+04
 -4.07163E+03  2.34563E+04 -1.86511E+04  1.42634E+04 -2.44389E+04  4.66860E+03 -2.34142E+04 -9.33067E+03
 -9.69412E+03 -1.67831E+04 -3.96815E+03 -1.01144E+04  5.85035E+03 -4.30318E+03  2.85911E+03 -5.06943E+03
 -3.42437E+03 -2.86857E+03  6.42935E+03 -8.76204E+03  6.10499E+03  1.32458E+03  1.29102E+04 -3.30893E+02
  1.09845E+04 -2.45017E+03  1.15231E+04  3.31897E+03 -1.29810E+03  5.50237E+03 -9.77789E+03  5.43601E+03
 -2.04826E+04 -3.46683E+03 -1.02424E+04 -9.27685E+03 -2.00456E+03 -1.36446E+04  2.85528E+03 -1.06644E+04
  1.86980E+04 -8.54585E+03  2.26701E+04  1.42926E+03  4.90758E+03  1.85591E+04  6.68623E+03  1.41905E+04
 -6.31814E+03  1.44277E+04 -1.54176E+04  8.88805E+03 -1.02230E+04 -1.96572E+03 -4.08480E+03 -1.20675E+03
 -2.08988E+02 -3.44270E+01 -6.71537E+03  3.81278E+03 -8.41267E+03  1.58486E+03 -8.66768E+03  5.25011E+03
 -2.47997E+03 -1.26508E+04 -1.36009E+03 -1.14966E+04  1.20521E+04 -1.90955E+04  8.88107E+03 -2.19933E+03
  1.14299E+04  3.94647E+03  7.73664E+03  1.37968E+04 -6.38920E+03  1.48919E+04 -7.00166E+03  1.08900E+04
 -1.76160E+04 -1.19246E+03 -1.30721E+04 -9.75887E+03 -2.28807E+03 -3.25458E+03  1.09795E+04 -4.64698E+03
  1.10175E+04 -1.20984E+03  3.49946E+03  1.03361E+03 -1.40970E+03  4.82755E+03  5.30784E+03  8.05809E+03
  9.80378E+03  1.06826E+04  4.67417E+03  2.39180E+03  3.08532E+03  6.56591E+03  3.21650E+03  6.16068E+03
 -7.44410E+03  9.17880E+03 -1.04964E+04  8.48624E+03 -1.76767E+04  5.37992E+03 -1.14358E+04 -5.21449E+03
 -3.98692E+03 -1.21019E+04  3.15745E+03 -1.32643E+04  8.06413E+03 -1.01198E+04  6.23245E+03 -9.62448E+02
  5.67269E+03  2.46032E+03 -2.94023E+03  5.13595E+03 -7.00953E+03  5.77716E+03 -4.07889E+03  4.31631E+03
 -4.01550E+03 -7.04773E+03  7.48095E+03 -5.80968E+03  1.00190E+04  1.47621E+03  5.53459E+03  3.23468E+03
  8.47013E+02 -2.63913E+03  4.79481E+02  4.35992E+03  2.80667E+02  3.49611E+03  6.27546E+02 -2.35299E+02
  5.99440E+03 -5.80668E+03  8.84490E+03  1.38452E+03  2.44983E+03  1.01063E+04 -2.19885E+03  1.00031E+04
 -3.27061E+03  4.59452E+03 -9.06216E+03  3.03521E+03 -3.44039E+03  4.54663E+02 -2.27020E+03  2.17111E+03
 -8.41923E+03 -1.02307E+04  5.76115E+02 -5.97374E+03  9.73961E+03  2.94033E+03 -1.01321E+03  7.98986E+03
 -8.24868E+03  2.29543E+03 -5.40852E+03 -1.95338E+03 -6.02036E+03 -7.20246E+03  2.45667E+03 -5.96402E+03
  7.20957E+03 -5.35451E+03  3.09863E+03 -4.08057E+03  5.04396E+03  2.88379E+03  7.25095E+03  1.52018E+03
 -1.50394E+03  1.19495E+01 -2.65211E+01 -9.26941E+03  1.78658E+03 -8.08671E+03  4.79103E+03 -1.07464E+04
  1.01500E+04 -6.88707E+03  4.51218E+03  4.37037E+03  6.07377E+03  7.03095E+03  1.22864E+03  9.14297E+03
 -3.16108E+03 -3.52237E+03 -6.70290E+03 -3.18828E+03 -4.91738E+03 -1.89583E+03 -2.37402E+03 -2.50994E+01
  2.68924E+03 -1.91202E+03  3.75197E+03 -7.84365E+03 -7.03257E+03  5.14502E+03  8.24055E+02  3.27650E+03
  1.66156E+02  1.49983E+03  1.55633E+02  2.21132E+03 -1.15615E+03  5.46105E+03 -5.24941E+03  5.84674E+01
 -2.37021E+03  1.33630E+03 -1.10747E+04  4.80878E+03 -1.02102E+04  3.00106E+03 -6.70510E+03 -8.50850E+03
 -6.74288E+03 -1.11936E+04  4.99712E+03 -1.53402E+04  2.08306E+03 -8.51565E+03  9.55779E+03 -5.79331E+03
  1.38249E+04  4.00697E+03  5.69228E+03  5.13672E+03  4.68609E+03  8.51057E+03  7.27774E+02  4.46205E+03
 -4.30436E+03  2.08940E+03 -8.65420E+03  4.03723E+02 -1.38022E+03 -4.89280E+03  3.70155E+02 -1.09357E+03
 -4.51375E+03  2.94868E+03 -2.85572E+03 -2.53231E+03  1.38624E+03  4.12431E+03 -6.83101E+03 -3.25422E+03
 -3.21853E+03 -2.61179E+02 -1.40451E+03  1.07365E+03  1.22599E+04  3.45164E+03  1.69294E+03  7.51495E+03
 -1.35543E+03  2.11919E+03 -9.80478E+03  5.85171E+03 -1.08547E+04  2.22195E+03 -7.18449E+03 -5.57149E+03
 -3.95522E+03 -9.71275E+03  5.74189E+03 -8.20408E+03  1.33239E+03 -5.88099E+03  5.22903E+03 -3.22610E+03
  3.00000E+03  2.39370E+03  4.23492E+03  2.43507E+03 -3.73152E+03  3.36233E+02 -3.02604E+03 -1.29473E+03
  9.26092E+03 -3.06053E+03 -9.05755E+02 -8.78349E+02  3.75324E+03  5.69626E+03  4.88712E+03  1.38318E+04
 -4.06577E+03  7.31365E+03 -1.15972E+04 -1.72590E+03 -2.86726E+03 -7.93256E+03 -3.58802E+03 -8.16116E+03
  6.49004E+03 -6.10675E+03  1.19581E+04 -9.36687E+02  9.69470E+03 -2.17019E+03  3.99437E+03 -2.34357E+03
  3.09364E+03  9.87258E+03 -5.23657E+03  4.38733E+03 -5.29032E+03 -6.75811E+02 -6.73042E+03 -1.96192E+03
 -2.18488E+03  1.75393E+03 -1.25551E+03 -2.19788E+03  4.52894E+01  2.65209E+03 -2.85004E+02 -2.14393E+03
 -1.75608E+03 -7.53248E+03  1.55465E+03 -9.26072E+03  3.78254E+03 -6.05589E+03  9.50708E+03 -3.39962E+03
 -1.36028E+03  5.60330E+01  2.35715E+02  6.00684E+03  8.14305E+01  1.08144E+04 -8.88302E+03  6.88289E+03
