 $NMID ID='MM_0lb_SNR50_14hz_g50_76.RAW', FMTDAT='(8E13.5)'
 TRAMP=1., VOLUME=1. $END
  3.08099E+05 -1.51944E+03  3.37933E+05  2.54200E+05  8.62024E+04  3.43854E+05 -1.32761E+05  2.51825E+05
 -1.88074E+05  8.47680E+04 -1.10103E+05 -3.41283E+04  6.54230E+02 -4.93337E+04  4.64137E+04 -2.15752E+03
  3.29326E+04  5.50410E+04 -1.66164E+04  7.72102E+04 -6.16463E+04  7.09181E+04 -8.58549E+04  3.10818E+04
 -8.01810E+04 -1.16426E+04 -5.76719E+04 -5.63537E+04 -1.05313E+04 -6.93874E+04  2.60059E+04 -4.78148E+04
  4.01219E+04  5.02646E+03  1.39425E+04  5.16261E+04 -3.55203E+04  4.50819E+04 -6.65945E+04  3.84698E+01
 -5.40855E+04 -5.14426E+04 -1.06898E+04 -7.99379E+04  4.00106E+04 -5.55057E+04  4.44860E+04 -1.50932E+04
  4.42646E+04  1.02511E+04  3.13051E+04  2.54632E+04  2.00274E+04  2.75640E+04 -5.77397E+03  3.15302E+04
 -2.68862E+04  1.09798E+04 -2.12172E+04 -5.26064E+03  6.48459E+03 -1.06932E+04  2.45983E+04  1.66973E+04
  4.55836E+03  3.32905E+04 -3.83242E+04  3.40523E+04 -6.63341E+04 -6.84675E+02 -5.28050E+04 -4.38182E+04
 -1.25613E+04 -6.32103E+04  4.08148E+04 -4.38981E+04  6.00292E+04 -3.97505E+03  3.37159E+04  3.19157E+04
 -6.78521E+03  3.29760E+04 -2.12588E+04  1.32977E+04 -3.44755E+04 -9.62740E+03 -1.82584E+04 -1.08436E+04
 -3.28485E+03 -1.43732E+04 -1.85299E+03 -1.64609E+04  5.64389E+03 -2.37767E+04  1.55496E+04 -1.13175E+04
  7.46959E+03  4.68341E+03 -1.09259E+04  1.10811E+04 -2.14096E+04 -7.91435E+03 -1.08605E+04 -3.54150E+04
  2.18468E+04 -4.81692E+04  4.91800E+04 -2.31967E+04  4.09277E+04  1.70839E+04  1.60067E+04  4.13183E+04
 -2.01876E+04  3.06614E+04 -2.84247E+04 -1.03299E+03 -1.27656E+04 -2.51155E+04  2.37243E+04 -3.44027E+04
  4.72243E+04 -1.01152E+04  3.87820E+04  2.09700E+04  1.94787E+04  4.67457E+04 -1.17385E+04  5.22918E+04
 -2.75179E+04  2.89533E+04 -4.01456E+04  4.77255E+03 -4.45269E+04 -1.52631E+04 -2.37858E+04 -3.65319E+04
  5.59462E+03 -3.34515E+04  3.12374E+04 -1.23088E+04  3.41374E+04  1.16333E+04  8.23136E+03  2.22411E+04
 -1.10599E+04  1.47447E+04 -9.92801E+03 -2.47298E+03  2.76377E+03 -1.39036E+04  1.84663E+04  4.97998E+03
  1.08628E+04  1.96459E+04 -3.12729E+03  2.16303E+04 -2.42109E+04  1.32974E+04 -2.54328E+04 -4.95491E+03
 -1.77709E+04 -1.80900E+04 -7.94642E+03 -1.93773E+04  5.71182E+03 -1.93074E+04  1.98308E+04 -1.50998E+04
  2.74106E+04 -1.38863E+04  3.13963E+04 -6.12034E+02  2.27070E+04  2.45344E+04  3.66982E+03  4.05099E+04
 -2.04167E+04  2.97169E+04 -2.89687E+04  8.57635E+03 -1.38124E+04 -7.69644E+03 -8.67072E+03 -1.42639E+04
  2.77013E+03 -7.60504E+03 -1.04521E+04  9.42671E+03 -1.74941E+04  4.30146E+03 -2.15620E+04 -1.03406E+04
 -5.55381E+03 -1.77139E+04  3.18932E+03 -3.01830E+04  1.91080E+04 -1.88920E+04  2.27494E+04  9.36004E+02
  6.40396E+03  1.56240E+04 -3.81848E+03  1.89471E+04 -1.41598E+04  8.69163E+03 -2.13042E+04 -2.20312E+03
 -1.49167E+04 -1.75538E+04  2.77138E+03 -2.12254E+04  9.14303E+03 -2.28289E+04  2.32400E+04 -6.99174E+03
  1.52848E+04 -1.71702E+03  1.58877E+04  6.10083E+03  3.52008E+03 -8.41002E+01  7.04631E+03 -5.09216E+03
  1.79219E+04  2.26140E+03  1.74770E+04  1.49486E+04  1.99412E+04  3.11406E+04 -2.60345E+03  3.75469E+04
 -1.76392E+04  2.66311E+04 -3.22557E+04  1.49001E+04 -3.44037E+04 -3.34464E+03 -2.28513E+04 -1.93947E+04
 -1.24937E+04 -2.83221E+04  1.03921E+04 -2.52293E+04  2.38528E+04 -9.31238E+03  1.47686E+04  8.30159E+03
  4.43067E+03  1.74404E+04 -5.72968E+03  8.40327E+03 -1.50764E+04  1.14305E+04 -6.76324E+03 -6.86085E+03
  3.33693E+03 -1.21358E+04  5.92337E+03 -1.08236E+04  8.93620E+03 -5.34417E+03 -1.24215E+03  7.91947E+03
 -7.99684E+03  2.36233E+03 -9.34863E+03 -2.35032E+03  3.79600E+03 -1.34925E+04  1.28335E+04 -1.69241E+04
  1.48852E+04 -2.86546E+03  2.02600E+04  4.29192E+03  2.07671E+04  1.41102E+04  7.91281E+03  2.74533E+04
 -4.71264E+02  2.23782E+04 -1.56825E+04  1.32058E+04 -1.67024E+04  6.75668E+03 -1.28922E+04 -5.84332E+03
 -7.14694E+03 -5.06445E+03 -1.16027E+03  7.67988E+02 -1.69045E+03 -1.80742E+03 -2.42543E+03  6.24700E+03
 -1.02926E+04  1.29847E+02 -1.29557E+04 -7.45328E+03 -7.71488E+03 -1.31151E+04  1.95361E+03 -1.53707E+04
  6.36688E+03 -1.10639E+04  1.18702E+04  5.95194E+02 -1.13435E+03  5.01606E+03 -8.63468E+03  3.14814E+03
 -2.74625E+03 -8.52465E+03 -2.22436E+03 -9.09754E+03  7.99164E+03 -9.89339E+03  1.39477E+04 -6.44321E+03
  2.45514E+04 -2.93533E+03  1.32441E+04  9.83900E+03  2.90455E+02  1.40630E+04 -6.62248E+03  1.37475E+04
 -1.04303E+04  2.06368E+03 -8.13779E+03  2.15980E+03  1.44252E+03 -3.23982E+03  8.84457E+03 -3.21093E+03
  2.09664E+03  9.13371E+03 -8.60608E+02  6.43782E+03 -8.40125E+03  1.68539E+04 -1.09558E+04  2.45494E+03
 -8.33190E+03 -8.95979E+03 -2.84021E+03 -9.10781E+03  1.13849E+04 -7.02025E+03  4.90411E+03 -2.59830E+03
  4.45292E+03  6.07992E+03 -9.87084E+03  1.26572E+04 -9.03390E+03  3.77590E+03 -9.83010E+03 -7.73430E+03
 -5.78922E+03 -1.05822E+04 -1.52213E+03 -1.16329E+04  1.07232E+04 -1.23339E+04  1.40783E+04 -1.36795E+03
  9.90226E+03  1.03184E+04  1.82274E+03  9.47027E+03 -9.36644E+03  8.57187E+03 -8.10022E+03  1.07859E+02
 -5.13552E+03 -8.43278E+03 -2.33244E+03 -3.01107E+03 -6.72759E+02 -7.88442E+03  6.75002E+03 -5.11159E+03
 -2.71425E+02  1.48336E+03 -2.44558E+03  5.77287E+03 -1.40536E+02 -9.77468E+02 -2.13013E+03 -6.07170E+03
  1.00218E+04 -1.73130E+03  5.39292E+03  1.37874E+03  1.14438E+04  7.57059E+03  1.22600E+04  1.09140E+04
 -1.86866E+03  1.54962E+04 -1.08183E+04  1.16045E+04 -1.56649E+04 -4.25502E+03 -1.00879E+04 -5.71702E+03
 -5.14085E+03 -9.17100E+03 -5.19794E+03 -7.46539E+03  2.90021E+03 -4.95976E+03  5.75696E+03 -4.24375E+03
  3.50078E+03  3.35701E+03  6.15407E+02 -4.80822E+03  8.46756E+03 -4.78584E+03  1.02570E+04  2.83212E+03
  1.07208E+04  2.57280E+03  4.57569E+03  4.62500E+03 -1.01625E+04  4.63635E+03 -1.10319E+04  8.77374E+02
 -1.31955E+04 -6.02109E+03 -1.24440E+03 -3.75685E+03 -6.27926E+02 -1.10951E+04  8.93551E+03 -4.51451E+03
  1.02452E+04 -7.66564E+03  9.58953E+03  7.78381E+02  1.12449E+04  6.14823E+03  1.85527E+02  7.40013E+03
 -4.69011E+03  2.72493E+03 -9.59194E+03  4.60391E+03  7.70863E+02 -2.22681E+03  1.98588E+03  1.57637E+03
 -2.05168E+03  2.58073E+03 -3.14299E+03 -4.00183E+03 -8.15396E+03 -2.90527E+03 -1.07537E+04  2.61390E+03
 -4.15423E+03 -3.70284E+03 -6.99938E+02 -7.48030E+03  2.56283E+03 -5.53681E+03  1.09077E+04 -3.96713E+03
  1.05424E+04  1.87309E+03  4.19284E+02  1.07179E+04 -5.17992E+03  1.06612E+04 -6.68074E+03  6.43809E+03
 -1.02131E+04 -3.01741E+02 -8.63281E+03 -5.34030E+03  1.42684E+03 -7.90739E+03  4.26746E+03 -3.00633E+03
  1.01164E+04 -2.90571E+03 -6.84198E+02  2.21917E+03  8.21620E+02  1.59693E+03  1.17533E+03 -4.03754E+03
 -2.37729E+03  1.71957E+03 -3.12257E+02 -2.95206E+03  8.89816E+02  6.97638E+03  8.61999E+02  3.64719E+03
 -3.84472E+03  7.19672E+03 -6.72496E+03  3.56763E+03 -1.24949E+04  3.05145E+03 -6.04472E+03 -2.14496E+03
 -1.30956E+03 -6.09598E+03  3.74946E+02 -7.92971E+03  5.52080E+03 -1.13380E+04  1.11935E+04 -4.45269E+03
  1.88468E+03  6.28735E+02 -3.41285E+03  4.47323E+02 -3.52487E+03 -1.90783E+02 -1.70889E+03 -2.33213E+03
 -6.74262E+03 -6.23517E+02 -1.39077E+03 -3.85503E+03  1.73033E+03 -1.44004E+03  4.19983E+03  1.13223E+03
 -3.00827E+03  3.48781E+03  1.81081E+03  6.74412E+02  3.45324E+02  2.65045E+03 -1.74258E+03 -2.28627E+02
 -2.44359E+03  4.94223E+03  6.41362E+03 -2.68165E+03  5.77371E+03  2.09735E+03  2.47395E+03  7.28912E+03
 -2.57479E+01  2.29409E+03 -4.99206E+02 -8.92198E+01 -3.65524E+03 -1.13977E+03 -5.42303E+03 -2.51456E+03
  7.33922E+03 -8.67234E+02  8.83836E+02 -4.71582E+03  1.82069E+03  1.49104E+03 -3.60584E+03  9.59803E+02
 -3.76090E+03  9.37795E+02 -5.66668E+03  4.68812E+03 -1.13944E+03  3.13486E+03  1.22831E+02 -7.58644E+02
  1.16996E+03 -1.13166E+03 -1.19116E+03 -2.56008E+02  1.07613E+03  5.90144E+03 -1.37729E+03  5.29667E+03
 -5.61646E+03 -4.31951E+03 -4.72086E+03  2.32795E+02  1.68344E+03 -4.81584E+02  8.40619E+03  9.77433E+02
  4.84806E+03 -3.47933E+02  2.54307E+03 -2.32792E+02  3.59981E+03  3.48367E+03 -1.63868E+03 -1.13995E+03
 -2.00334E+03  4.11650E+01 -4.79903E+03  3.10892E+02 -1.59787E+03 -9.01979E+02  2.28061E+03  5.03456E+02
  3.20488E+03 -2.94409E+03  2.20395E+03  5.71465E+02  3.90100E+03  6.12114E+03  3.04855E+03  1.45335E+03
 -2.54790E+03 -1.36765E+03  5.31003E+02  3.59295E+02 -2.64473E+03 -3.36103E+03  8.65225E+02  5.14014E+03
 -3.42160E+03 -2.50899E+03 -4.13731E+03 -2.29851E+03 -3.90458E+03 -9.88338E+02 -3.94016E+03 -6.38033E+03
 -1.89354E+02 -1.05747E+00 -1.41579E+02 -9.40071E+03 -3.18097E+03 -5.86617E+03  3.88762E+03 -6.78273E+03
  5.58535E+03 -1.18102E+03  2.33099E+03  7.07685E+03 -1.96315E+02  1.86392E+02 -5.45776E+03  3.52657E+03
  4.97165E+02  4.64946E+03 -4.85317E+03  7.78163E+02 -3.08611E+03  5.84546E+02 -2.17644E+03 -8.66142E+02
  4.85069E+02 -9.77966E+01 -2.35111E+03  6.07753E+02 -2.03975E+03 -2.20511E+03 -2.81161E+03 -4.46833E+03
 -1.73141E+02 -1.73347E+03  2.88667E+02  1.22417E+03  1.53507E+03  3.99080E+03 -6.04658E+02  1.82745E+03
 -6.22924E+02  6.99210E+03  1.78537E+02  3.11915E+02 -6.97901E+03  4.07780E+03 -4.27390E+03  1.50248E+01
  2.30657E+02  8.86030E+02  4.38702E+02 -4.46805E+03 -5.19782E+02 -8.40197E+02  4.24175E+03  2.84722E+03
  1.31761E+03  2.81747E+03  1.12413E+03 -9.16487E+02  3.98013E+02  3.86338E+03 -1.97881E+03 -3.25638E+03
 -6.90846E+02 -1.91797E+03  5.54325E+03  3.43579E+03 -4.48119E+02  1.66760E+03  4.34059E+03  2.95212E+02
 -4.66634E+03  7.95724E+02  2.46189E+02 -1.31723E+03 -2.54136E+03 -1.08928E+03 -4.14088E+01 -3.73625E+03
  1.70387E+03 -4.05780E+03  4.45855E+02  1.50657E+03  6.09478E+03  1.26275E+03  4.53372E+03  1.11986E+03
 -2.19146E+02  1.26876E+03 -2.48950E+03  6.74532E+03 -3.92160E+03  5.39586E+03 -1.40266E+03 -2.64957E+03
 -1.88444E+03  1.74345E+03 -9.65348E+02 -1.30664E+03 -2.59970E+03  1.88628E+03  3.93377E+03 -3.04959E+03
 -2.87770E+02 -1.57165E+03 -2.73557E+03 -1.35593E+03  2.62815E+03 -5.61881E+03  3.60525E+03 -1.29779E+03
  4.04986E+03 -1.03001E+03  5.35313E+03 -8.14562E+02 -4.27196E+03  1.67682E+03 -4.12532E+03  4.89825E+03
