 $NMID ID='MM_0lb_SNR50_18hz_g40_15.RAW', FMTDAT='(8E13.5)'
 TRAMP=1., VOLUME=1. $END
  3.10326E+05 -4.57545E+01  3.40978E+05  2.51493E+05  8.11323E+04  3.38155E+05 -1.32302E+05  2.47948E+05
 -1.91261E+05  8.37285E+04 -1.09107E+05 -3.46242E+04 -9.01061E+02 -5.52218E+04  5.45593E+04 -2.26539E+03
  3.44056E+04  5.45017E+04 -1.65469E+04  7.86618E+04 -6.18860E+04  6.23788E+04 -8.33914E+04  3.59423E+04
 -7.76855E+04 -1.35512E+04 -5.67760E+04 -5.04695E+04 -1.42528E+04 -6.82832E+04  3.08132E+04 -4.24123E+04
  4.37200E+04  3.94008E+03  1.85655E+04  4.21335E+04 -3.47673E+04  4.44321E+04 -6.08240E+04  7.12071E+02
 -5.24896E+04 -5.44443E+04 -7.51867E+03 -7.59937E+04  3.09103E+04 -5.29161E+04  4.63017E+04 -1.80473E+04
  4.07385E+04  1.23458E+04  3.15966E+04  2.55023E+04  1.69524E+04  2.47756E+04 -6.38178E+02  2.78047E+04
 -2.48789E+04  1.43619E+04 -1.91969E+04 -2.36071E+03  6.99542E+03 -1.05728E+04  2.29164E+04  1.22802E+04
  6.70148E+03  2.81546E+04 -2.47093E+04  3.47597E+04 -6.03065E+04 -2.58656E+02 -5.49602E+04 -4.18882E+04
 -8.86854E+03 -5.92100E+04  4.21349E+04 -4.31046E+04  5.38824E+04 -2.45894E+03  2.97153E+04  3.27548E+04
 -5.42039E+03  3.60793E+04 -3.01785E+04  9.91875E+03 -2.97278E+04 -7.30261E+03 -1.51760E+04 -8.22634E+03
 -9.57450E+03 -1.47943E+04  9.11840E+02 -1.65701E+04  2.49052E+03 -2.35257E+04  1.63638E+04 -1.21152E+04
  1.16183E+04  3.45141E+03 -7.27082E+03  1.59840E+04 -1.81952E+04 -4.04280E+03 -4.51269E+03 -3.18481E+04
  1.90732E+04 -3.87426E+04  4.77290E+04 -1.88185E+04  4.21864E+04  1.76184E+04  9.99873E+03  4.61292E+04
 -9.11966E+03  3.47644E+04 -2.22994E+04  4.32397E+02 -8.75097E+03 -3.08456E+04  1.92000E+04 -3.14456E+04
  3.87694E+04 -7.11270E+03  3.50470E+04  1.74279E+04  1.54941E+04  3.96809E+04 -7.03277E+03  4.47512E+04
 -2.87125E+04  2.72956E+04 -3.75225E+04  8.57469E+03 -3.96315E+04 -1.88719E+04 -2.20338E+04 -3.38422E+04
  3.08874E+02 -3.48738E+04  3.30568E+04 -1.20697E+04  2.59074E+04  9.80525E+03  3.11184E+03  1.82918E+04
 -1.08764E+04  8.64109E+03 -9.15135E+03 -1.03898E+04  6.61185E+03 -9.00449E+03  1.90076E+04  3.91823E+03
  9.06016E+03  1.91416E+04 -8.41670E+03  2.10034E+04 -1.90245E+04  1.14335E+04 -2.65241E+04 -6.79685E+03
 -1.81851E+04 -1.50483E+04 -4.21792E+03 -1.46942E+04  5.14212E+03 -1.18445E+04  1.31492E+04 -1.58239E+04
  2.41587E+04 -1.02246E+04  2.87796E+04  4.72920E+03  2.36029E+04  1.12589E+04  4.27879E+03  2.95484E+04
 -1.61927E+04  2.89370E+04 -2.63064E+04  7.37977E+03 -2.06334E+04 -9.54152E+03 -5.84050E+03 -1.55608E+04
 -1.76895E+02 -5.58279E+03 -3.12310E+03  6.12120E+03 -1.33455E+04  4.55300E+03 -1.52689E+04 -3.26018E+03
 -9.47206E+03 -2.12440E+04  7.36210E+03 -1.57750E+04  1.61075E+04 -1.37121E+04  1.47662E+04 -4.49965E+03
  1.26618E+04  1.19522E+04 -3.32585E+02  1.52601E+04 -1.25728E+04  1.01404E+04 -1.64112E+04 -1.45510E+03
 -1.01718E+04 -1.35699E+04 -2.03719E+03 -2.30502E+04  6.48478E+03 -1.60410E+04  1.73367E+04 -8.19474E+03
  1.36397E+04 -3.82813E+03  1.04097E+04  5.19378E+03  4.63357E+03  6.03322E+02  6.55889E+03 -1.03709E+02
  1.10685E+04  3.47745E+03  1.40341E+04  2.04974E+04  9.31837E+03  2.81190E+04 -8.32802E+03  2.57571E+04
 -1.56476E+04  2.27269E+04 -2.26897E+04  1.27866E+04 -2.63688E+04 -2.72063E+03 -1.99700E+04 -1.04148E+04
 -1.36605E+04 -2.07689E+04  9.99761E+03 -1.81160E+04  1.67548E+04 -1.12689E+04  1.68113E+04  3.38733E+03
  8.99435E+03  1.15512E+04 -9.58725E+03  8.79713E+03 -1.40869E+04  4.15206E+02 -8.02592E+03 -8.57605E+03
 -4.20447E+02 -1.60126E+04  4.77357E+03 -1.26740E+04  8.34344E+03 -2.26642E+03 -1.79381E+03  3.30603E+01
 -8.61953E+03  4.19787E+03 -5.60380E+03 -9.12442E+03 -3.57661E+03 -8.08921E+03  9.58561E+03 -8.63730E+03
  1.25745E+04 -4.64342E+03  9.75446E+03  5.02264E+03  8.52903E+03  9.18922E+03  4.68671E+03  1.46529E+04
 -3.22108E+03  1.18804E+04 -8.81935E+03  9.08724E+03 -1.29411E+04  6.74333E+03 -9.83460E+03 -2.96117E+03
 -2.03535E+03 -5.61757E+03 -3.79124E+03  3.21507E+03 -3.59911E+03  5.57065E+03 -5.40641E+03  4.02928E+03
 -6.68178E+03  1.08590E+03 -8.32040E+03 -4.60416E+03 -6.47960E+03 -1.10795E+04  6.36635E+03 -7.33162E+03
  8.33128E+03 -1.14592E+03  6.47330E+03  7.96979E+03 -2.91081E+03  5.60302E+03  2.41576E+03 -3.61071E+03
 -2.17873E+03 -7.22259E+03 -2.75143E+03 -8.81157E+03  7.67948E+03 -5.67582E+03  8.25194E+03 -7.76828E+03
  1.33879E+04  2.89445E+03  7.33146E+03  7.32365E+03  4.69515E+03  1.05371E+04 -5.57782E+03  9.25675E+03
 -6.27814E+03  4.69061E+03 -1.93613E+03 -7.26769E+02  4.92545E+03 -5.04086E+03  2.48774E+03 -2.52577E+03
  8.92322E+03  8.26719E+02 -8.00705E+02  5.70834E+03 -5.86227E+03  8.11341E+03 -5.86441E+03  1.54979E+03
 -5.53941E+03 -6.83698E+03 -8.89781E+02 -3.89483E+03  2.89204E+03 -6.23921E+02  4.07462E+03 -1.32809E+02
  2.53509E+03  2.32803E+03 -3.03498E+03  5.01139E+03 -3.12734E+03  4.49783E+03 -3.22720E+03 -1.74727E+03
 -3.71443E+03 -5.77725E+03  2.45670E+03 -8.63505E+03  6.77837E+03 -3.73205E+03  7.09568E+03 -5.30267E+01
 -1.76639E+02  7.50351E+03 -3.06606E+03  2.68067E+03 -5.85637E+03  3.96183E+03 -6.30130E+03 -8.63504E+02
 -1.83843E+03 -5.93480E+03  2.29540E+03 -9.39835E+03  3.08265E+03 -5.11392E+03  7.70523E+03 -4.28959E+03
  4.22807E+03 -1.99833E+03  1.84118E+03 -2.55982E+03  1.71051E+03 -9.50527E+02  3.51455E+03 -1.50673E+03
  1.64441E+03 -4.02272E+03  5.63170E+03  3.08505E+03  2.56350E+03  3.12503E+03  2.98585E+03  8.86334E+03
 -1.73603E+03  7.79441E+03 -3.63213E+03  1.62827E+03 -1.25419E+04  7.43636E+03 -6.86793E+03 -2.39640E+03
 -3.77821E+03 -6.67473E+03  1.73886E+03 -2.90789E+03  4.62379E+03  1.75243E+03  2.94759E+03 -1.09842E+03
 -1.37994E+03 -1.48286E+03  2.12628E+03 -4.06738E+03  3.73697E+03 -1.74189E+03  1.33196E+02  3.55611E+03
  7.11144E+03  2.57166E+01  3.43791E+03  4.07667E+03 -2.98080E+03  3.90342E+03 -4.40124E+03  3.02307E+03
 -7.51312E+03 -1.99946E+03 -3.04318E+03 -6.41428E+03  1.55435E+03 -4.81312E+03  4.22843E+03 -7.30493E+03
  3.67399E+03 -4.17653E+03  6.11540E+03 -5.73220E+02  7.87455E+03  2.42038E+03 -1.18571E+03  3.20669E+03
 -1.17334E+03  4.14610E+03 -2.78057E+03 -3.08087E+02 -4.26521E+03 -3.54585E+03  1.92273E+03  1.36595E+03
 -2.07885E+03 -1.49858E+03 -1.86637E+03  3.18443E+03 -3.79792E+03  2.07851E+03 -5.58834E+03 -2.68570E+03
 -4.62733E+02 -4.26268E+03 -4.37028E+03 -5.70109E+02  4.02975E+03 -1.95245E+03  1.84427E+03 -2.11616E+03
  2.12772E+03  4.18703E+02 -1.84680E+03  8.72807E+03 -3.94767E+02  4.37296E+03 -3.12587E+03  3.17480E+03
 -4.41441E+03  2.89000E+02 -2.48223E+03 -1.78603E+03  1.45430E+01 -6.06726E+03  2.65773E+03 -7.00014E+02
  1.03945E+03  1.13933E+03  2.59711E+03 -3.59965E+03 -1.07442E+03  2.91747E+03  2.50313E+03 -3.47212E+03
  1.54565E+02  2.91802E+03  4.38934E+03 -9.59874E+02  4.21619E+03  5.63214E+01  2.15126E+02 -3.74073E+02
 -3.84958E+03  6.88408E+03 -3.65099E+03  4.40476E+03 -1.42896E+03 -1.11816E+03 -2.76921E+03 -1.11137E+03
 -2.77927E+03 -2.14495E+03 -4.18464E+02 -2.96855E+03  3.89116E+02 -1.17137E+03  4.02281E+03 -7.32261E+02
  3.03052E+03  1.18624E+03 -3.85639E+03  1.74381E+03  3.56617E+03  1.87497E+02 -5.92682E+02 -2.20020E+03
 -2.20734E+03 -3.30365E+03 -3.19005E+02 -4.96383E+03  2.10654E+03 -2.73204E+03  3.83595E+03 -3.89898E+03
  1.23093E+03  4.53277E+03  3.73411E+03 -4.58158E+03  3.86993E+02  2.47099E+03  4.32850E+03 -4.97599E+02
  7.66852E+02 -3.09450E+03  1.06585E+03 -3.03164E+02  2.50260E+03  2.83888E+03 -1.52524E+03  2.69103E+03
 -1.55598E+03  6.32359E+02 -8.22576E+03  4.12178E+03 -1.44217E+03 -2.48164E+03  2.38106E+03 -4.71650E+03
  6.84079E+02 -6.29387E+02 -1.98281E+03  1.48601E+01  1.23817E+02  2.08154E+01 -2.15631E+02  3.95021E+03
  2.90400E+03  4.94467E+02  1.28850E+03 -2.10539E+03  3.94821E+02 -1.05432E+02 -6.41382E+02  6.40394E+02
  3.66332E+03 -5.36211E+02  5.65253E+03  4.96422E+02  7.51524E+02  9.06536E+02  2.47099E+01  1.43395E+03
 -1.89397E+03 -3.33039E+03 -7.20990E+02 -1.65493E+03  1.06461E+03 -1.39515E+03 -2.10649E+03 -4.61636E+03
  5.24086E+02 -1.85828E+02  1.24590E+03 -3.32144E+03  1.68911E+03  2.26771E+03  4.04422E+01  2.64391E+03
 -4.56740E+03  1.12334E+03 -9.28458E+02 -1.39008E+03 -3.82908E+03 -4.31667E+03  9.60486E+01 -1.67503E+03
  5.71588E+03  4.58547E+02  1.46221E+03  2.35021E+03  3.74446E+03  2.35399E+02  5.58560E+01  1.02666E+03
  6.09749E+02 -3.37624E+02  9.17432E+02 -1.39814E+03 -7.98092E+01 -2.41859E+03  1.41126E+03  2.96774E+03
 -6.95425E+02  1.95016E+03 -3.74708E+03 -2.51796E+03 -1.29864E+03  1.98076E+03 -5.13704E+03  5.84629E+01
 -8.95144E+02 -6.09466E+03  3.50801E+03 -2.03305E+03 -1.15689E+02 -7.65117E+02  3.13702E+03 -1.47634E+02
  1.53794E+03  2.50551E+03 -1.65091E+03  3.24718E+03  8.87503E+02 -1.26539E+03  2.49557E+03 -4.53500E+02
 -1.55639E+03  1.05154E+03  5.93183E+03  6.18320E+02 -2.54117E+03 -7.94022E+02 -3.26663E+03 -1.73102E+03
 -8.81441E+02 -2.28853E+03 -3.63415E+03  1.11988E+03  3.43595E+03  9.46744E+02 -1.33315E+03  2.79851E+03
 -2.48218E+03  6.71887E+02 -4.68351E+02 -5.84365E+02  1.03621E+03  2.10009E+03 -3.08953E+03 -2.83103E+02
 -2.27349E+02  6.60091E+03 -1.74270E+03  1.93394E+03 -2.75282E+03  5.59196E+02  2.51068E+02 -2.44590E+03
  2.12846E+03 -3.03268E+01 -2.95044E+02 -6.85143E+03  8.81357E+01 -1.68187E+03  3.20202E+03  1.81115E+03
  1.51436E+03 -2.16560E+03  4.07407E+02  6.41175E+02 -4.89541E+03 -1.38642E+03  3.28981E+02  4.70096E+03
  2.85950E+02 -2.46500E+03  2.26576E+03 -2.39101E+03  1.33094E+03  3.14340E+03  1.30688E+03  4.38345E+03
  1.65952E+03  1.48396E+03 -3.58158E+03 -4.44494E+03 -4.14705E+03 -3.41879E+02 -2.04526E+03 -2.04429E+03
  4.09894E+03 -2.18966E+02  5.74060E+02  9.77308E+02  4.65085E+02 -1.01894E+02  3.94046E+03  3.87085E+02
 -1.15684E+03  7.52988E+03  2.69583E+03 -1.06739E+03 -4.42094E+03 -5.34289E+02  1.21027E+03  3.41301E+02
 -3.83983E+02  3.08743E+03  2.75658E+03  9.92231E+02 -2.03436E+03  1.12228E+03 -4.69877E+02  1.87224E+03
 -5.44732E+02 -9.04751E+02 -4.46929E+03  3.02874E+02  3.86062E+02 -1.18220E+03 -1.71043E+03  8.97984E+02
  6.81749E+02  1.35129E+03 -3.50206E+03 -1.67267E+03  1.32480E+03  2.88589E+00 -1.71079E+03  9.92632E+01
