 $NMID ID='MM_0lb_SNR50_10hz_g50_86.RAW', FMTDAT='(8E13.5)'
 TRAMP=1., VOLUME=1. $END
  3.13630E+05 -3.86541E+03  3.39338E+05  2.49596E+05  8.04320E+04  3.41409E+05 -1.37570E+05  2.49236E+05
 -1.88025E+05  8.45678E+04 -1.08426E+05 -2.86012E+04  9.09415E+02 -5.23131E+04  6.11123E+04 -2.10261E+03
  3.18380E+04  4.22779E+04 -1.82841E+04  7.47340E+04 -5.93783E+04  6.36021E+04 -8.33603E+04  3.43378E+04
 -8.15243E+04 -1.39686E+04 -6.11950E+04 -5.40230E+04 -1.42673E+04 -6.95317E+04  2.92210E+04 -4.28162E+04
  4.54280E+04  4.46835E+03  1.95949E+04  4.53997E+04 -2.94268E+04  4.52251E+04 -6.79722E+04 -2.56997E+03
 -5.23226E+04 -5.51360E+04 -4.25548E+03 -8.14574E+04  3.89464E+04 -6.03052E+04  5.22917E+04 -1.51982E+04
  4.46486E+04  1.08216E+04  2.95614E+04  2.44036E+04  1.62656E+04  2.46992E+04 -7.20188E+03  2.54637E+04
 -2.26545E+04  1.10023E+04 -1.11508E+04 -5.79212E+03  7.72044E+03 -8.11343E+03  2.14181E+04  1.44103E+04
  7.15760E+03  3.56965E+04 -3.54082E+04  3.59253E+04 -6.21306E+04  3.52130E+03 -6.00072E+04 -4.60901E+04
 -1.93154E+04 -6.51194E+04  4.20091E+04 -4.56756E+04  5.55746E+04 -7.19020E+03  3.18849E+04  3.52775E+04
 -7.10257E+03  3.91554E+04 -3.03580E+04  1.80192E+04 -3.56535E+04 -5.45577E+03 -1.43141E+04 -5.66420E+03
 -6.99248E+03 -1.59248E+04 -2.23143E+03 -1.97341E+04  1.24179E+04 -2.21684E+04  1.12911E+04 -1.38600E+04
  6.33770E+03  8.10977E+03 -7.97626E+03  1.40972E+04 -2.32040E+04  3.54454E+03 -7.57101E+03 -3.72235E+04
  2.60680E+04 -4.80270E+04  5.13453E+04 -1.87202E+04  4.80706E+04  1.52758E+04  1.77037E+04  4.19643E+04
 -2.28942E+04  3.77921E+04 -2.90432E+04  5.19898E+03 -3.25820E+03 -2.43719E+04  2.86096E+04 -4.25928E+04
  4.63619E+04 -8.31331E+03  3.68347E+04  2.54996E+04  1.79478E+04  5.14840E+04 -6.51188E+03  5.48010E+04
 -3.37047E+04  3.72929E+04 -4.77473E+04  1.22129E+04 -4.50421E+04 -1.60219E+04 -2.45010E+04 -4.00576E+04
  1.04587E+04 -3.87058E+04  3.43401E+04 -1.73934E+04  3.55834E+04  1.32544E+04  4.03150E+03  1.88221E+04
 -5.85849E+03  1.15117E+04 -4.01177E+03 -5.14213E+03  5.52588E+03 -1.10806E+04  1.57571E+04  3.96042E+03
  1.79790E+04  2.56881E+04 -1.19483E+04  2.88062E+04 -2.03156E+04  1.40697E+04 -3.00038E+04 -6.84463E+03
 -2.61238E+04 -2.33094E+04 -2.06469E+04 -2.59158E+04  1.19107E+04 -2.94535E+04  1.85833E+04 -2.05229E+04
  3.03776E+04 -1.57466E+04  3.25896E+04  4.68551E+03  2.56155E+04  2.60240E+04  1.05005E+04  3.59636E+04
 -1.70129E+04  3.06800E+04 -2.38044E+04  1.26485E+04 -2.63532E+04 -1.15805E+04 -3.38219E+03 -1.29378E+04
  2.80772E+03  1.02329E+03 -4.53103E+03  8.25952E+03 -2.13841E+04  2.50443E+03 -1.56630E+04 -9.89172E+03
 -1.17622E+04 -2.15879E+04  7.61069E+03 -2.52683E+04  1.96958E+04 -1.99975E+04  2.29299E+04 -6.28371E+03
  1.58678E+04  1.76340E+04 -2.81007E+03  1.91514E+04 -1.64802E+04  2.04840E+04 -2.17766E+04 -2.12600E+03
 -2.09135E+04 -1.93835E+04 -3.22506E+03 -2.22877E+04  1.08263E+04 -1.79270E+04  2.18440E+04 -6.81047E+03
  1.64916E+04 -1.56779E+03  2.03103E+04  2.65770E+03  9.06975E+03 -1.87958E+03  1.10721E+04 -1.55838E+03
  1.89465E+04  5.82995E+03  2.91054E+04  1.47259E+04  1.71747E+04  3.24495E+04 -1.78517E+03  4.61498E+04
 -1.88368E+04  3.27027E+04 -4.11272E+04  1.17591E+04 -4.00415E+04 -2.80581E+03 -4.41983E+04 -2.20040E+04
 -1.29192E+04 -3.09478E+04  1.29475E+04 -2.40834E+04  2.37312E+04 -1.30616E+04  2.61939E+04  1.52699E+03
  7.70585E+03  1.42333E+04 -1.30921E+04  8.98773E+03 -2.09061E+04  6.49535E+03 -1.13589E+04 -1.36279E+04
  1.85082E+03 -1.95279E+04  7.14305E+03 -1.01416E+04  1.42738E+04  4.93993E+03  3.76745E+03  8.31340E+03
 -9.94319E+03  3.36394E+03 -1.01053E+04 -4.95999E+03  3.31364E+02 -1.73662E+04  1.38317E+04 -1.41737E+04
  1.78589E+04 -8.66220E+03  2.71094E+04  1.63544E+03  2.40648E+04  1.14450E+04  1.02525E+04  2.49656E+04
 -1.54333E+03  3.64111E+04 -1.82294E+04  1.87266E+04 -2.36742E+04  5.01519E+03 -1.50332E+04  2.29900E+03
 -1.68583E+03  5.64385E+02  3.07716E+03  2.80249E+02 -6.41924E+03  8.70750E+02 -2.43500E+03  1.74877E+03
 -1.26408E+04 -3.50151E+02 -1.70791E+04 -1.67325E+04 -1.20191E+04 -1.72565E+04  7.52386E+03 -1.44615E+04
  1.27280E+04 -5.96254E+03  4.57204E+03  6.12114E+03  1.32368E+03  3.33335E+03 -8.46467E+03  1.28537E+04
 -5.56559E+03 -7.41486E+03 -4.11542E+02 -1.61522E+04  9.59660E+03 -1.81771E+04  1.71568E+04 -5.16645E+03
  2.21229E+04  4.68135E+03  1.43590E+04  1.53150E+04  1.65228E+03  1.60667E+04 -9.22152E+03  1.07795E+04
 -9.80112E+03  1.62136E+03 -8.69751E+03 -5.02155E+03  8.12354E+03 -3.33021E+03  8.66842E+03 -7.58276E+02
  7.58862E+03  2.94980E+03  3.64044E+03  1.46914E+04 -6.85248E+03  1.72406E+04 -1.32708E+04 -1.13277E+03
 -1.56773E+04 -5.31645E+03  2.60500E+03 -1.45349E+04  5.84864E+03 -6.37139E+03  1.26912E+04  4.22047E+03
  5.86164E+03  9.23677E+03 -9.01671E+03  1.20104E+04 -9.87495E+03  3.19826E+03 -5.69493E+03 -4.79116E+03
 -6.19500E+03 -1.27849E+04  3.08025E+03 -2.62904E+04  1.38147E+04 -5.90678E+03  4.25001E+03  3.41820E+03
  6.39638E+03  1.17622E+04 -4.02132E+03  1.56469E+04 -6.61700E+03  1.02236E+04 -9.52563E+03  1.69430E+03
 -9.35125E+03 -1.33843E+04 -8.53547E+02 -7.24181E+03  2.53535E+03 -1.06485E+04  9.66065E+03 -2.30893E+03
  4.27845E+03 -4.14712E+02  2.92450E+03  2.03202E+03  4.20983E+03 -1.45172E+03  1.39717E+03 -6.31142E+03
  4.74795E+03 -6.41842E+02  1.20671E+04  4.77350E+03  1.68157E+04  1.72613E+04  6.48250E+03  1.16119E+04
 -2.22790E+03  2.01910E+04 -2.37170E+04  1.53261E+04 -2.19724E+04 -3.06030E+02 -2.14443E+04 -8.07607E+03
 -6.91488E+03 -1.17917E+04 -5.62477E+03 -9.26444E+03  3.91100E+03 -2.80879E+03  6.77886E+03 -1.40227E+03
 -3.07562E+03 -2.68247E+03  5.36211E+03 -1.06340E+03  5.68872E+03  1.71148E+02  8.96783E+03 -8.60456E+02
  1.38888E+04  4.27156E+03  5.03057E+03  9.33733E+03 -8.21687E+03  1.15498E+04 -9.75623E+03  1.12250E+04
 -1.07826E+04 -1.76739E+03 -1.61566E+03 -1.09901E+04 -2.04673E+03 -1.29363E+04  7.21523E+03 -1.55909E+04
  1.82363E+04 -1.13382E+04  2.26415E+04  4.84108E+03  1.26652E+04  1.56991E+04  1.03327E+03  1.11577E+04
 -1.21131E+03  7.81846E+03 -1.12549E+04  5.17902E+03 -7.83046E+03  5.57099E+02  2.72025E+03 -1.92184E+02
 -2.33038E+03  1.63448E+02 -2.65810E+03 -4.65622E+03 -1.03502E+04 -1.75258E+02 -8.99408E+03  2.77209E+03
 -7.28252E+03 -1.04151E+04 -2.59115E+03 -1.40870E+04  7.63291E+03 -1.01301E+04  8.41552E+03 -1.56952E+03
  1.61096E+04  1.01640E+04  4.94107E+02  1.60313E+04 -3.79984E+03  1.82535E+04 -3.47173E+03  6.90207E+03
 -7.12187E+03  5.61896E+03 -8.31437E+03 -1.24767E+04 -4.07359E+03 -1.21929E+04  1.23592E+04 -5.16412E+03
  1.24369E+04 -5.64848E+03  1.01752E+04  5.03705E+03  1.70871E+03  7.90576E+03 -5.12704E+03  1.26528E+03
 -2.44653E+03  3.04928E+03  3.33974E+03  1.16051E+03  6.55242E+03  1.15483E+04  7.17938E+03  9.30552E+03
  4.96734E+02  1.25069E+04 -5.96609E+03  1.62822E+04 -1.66394E+04 -2.22549E+03 -1.65910E+04 -8.06362E+03
 -1.54742E+03 -1.45355E+04 -1.20763E+03 -1.29533E+04  7.11708E+03 -4.66277E+03  8.19571E+03 -5.33053E+03
  1.04433E+04  7.73398E+03 -1.27509E+02  7.52579E+03 -1.01672E+04  5.91567E+03 -7.49848E+03 -9.76073E+02
 -6.53437E+03 -4.54876E+03  2.66117E+03 -8.84909E+03  5.93800E+03 -1.30389E+03  1.01082E+04  6.19469E+03
 -4.67730E+02  5.40726E+03  2.70464E+03  4.03482E+03 -1.87736E+03 -2.03612E+02 -4.04686E+02  7.69368E+03
 -2.72768E+03  2.02044E+03  4.73466E+03  3.00112E+03  2.37573E+03  1.15804E+04 -1.94983E+03  5.18789E+03
 -7.05334E+03  2.10145E+03 -9.31255E+03 -1.56171E+03 -7.66823E+03 -8.81612E+03 -1.96874E+03 -5.85061E+03
  3.96448E+03 -4.41460E+03  5.32144E+03 -2.15655E+03  1.87268E+02 -2.43255E+03  1.99165E+03  2.14805E+03
 -9.87728E+03  3.18557E+03 -5.50646E+03 -8.37926E+03 -1.58990E+03 -4.28592E+03 -5.24010E+03 -3.63759E+03
  2.20509E+03 -5.40801E+03  6.58637E+02  5.28973E+03  1.51269E+04  4.03004E+03  1.23631E+03  5.55984E+03
 -5.24457E+03  3.95149E+02  2.49082E+03 -2.85294E+03  2.61158E+00 -6.61706E+03  9.92731E+03 -3.28983E+03
  7.38344E+03 -5.95218E+02  6.00538E+03  4.67213E+03  7.90319E+03  2.11256E+03 -1.15398E+04  1.03846E+04
 -4.43023E+03  4.78827E+03 -7.74187E+03  4.25082E+03 -5.06039E+03 -6.18493E+03  1.34960E+01 -5.88426E+03
  2.17966E+03 -6.04646E+03  4.72024E+03  4.59738E+03  6.41629E+03  6.81624E+03 -1.92192E+03  8.56750E+03
 -2.40247E+02  3.45219E+03 -6.76834E+03  3.22263E+03 -2.80214E+03  5.42610E+03 -2.25250E+03  4.00984E+03
 -2.87535E+03  4.96716E+01 -1.35287E+03  1.35770E+03  1.20762E+03 -2.90677E+03 -1.58750E+04 -3.47385E+03
 -5.36211E+03 -1.20257E+04  1.52653E+03 -1.95549E+04  8.52680E+03 -1.23702E+04  1.15801E+04 -2.72647E+03
  1.61735E+04 -3.10897E+02  3.76755E+03  7.08136E+03  9.58772E+03  1.55979E+04 -6.35361E+03 -3.48223E+03
 -2.82760E+03  3.65678E+03  3.21201E+03  6.51766E+03 -4.38218E+03 -2.19467E+03 -4.71449E+03  2.65600E+03
  2.31739E+03  1.79260E+03 -6.88961E+03 -5.86807E+03 -4.38854E+03 -1.15549E+03  2.20746E+03 -5.52908E+03
  6.67116E+02 -5.68087E+02  1.03291E+04  7.19008E+03  4.96633E+03  4.59307E+03  9.87337E+03  6.23735E+03
 -7.05447E+03  1.79036E+04 -7.59616E+03  1.20765E+04 -1.42667E+04 -1.81305E+03 -6.73603E+03 -1.03306E+04
 -5.93434E+03 -9.17605E+03  1.84724E+03 -7.13654E+03  1.07040E+03 -5.68476E+03  5.08986E+03 -1.34323E+03
 -8.57948E+02  4.96075E+03  3.18987E+03  6.28471E+03 -9.04855E+03  1.19710E+03  3.54764E+03 -1.37504E+03
 -7.40972E+02 -9.32639E+03  9.52151E+02 -3.74341E+03  1.95883E+03  3.37723E+03 -5.79472E+03  5.23146E+03
 -6.70048E+03  7.02604E+03 -1.25539E+04 -2.03539E+02 -7.19844E+03 -6.86196E+03  5.29681E+03 -4.54877E+03
  7.35855E+03 -1.22924E+04  6.72270E+03  1.19837E+03  1.08307E+04  5.74740E+03  2.35405E+03  5.28608E+03
 -4.11732E+03  8.42449E+03  4.68797E+03  5.28797E+03 -4.48720E+02  9.06058E+03 -7.11674E+03  1.41431E+03
  5.77631E+02 -5.01253E+03 -6.34987E+03  2.14216E+03 -4.76890E+03 -5.04134E+03 -6.09677E+03  5.94644E+03
 -2.81795E+03 -4.46952E+03 -1.11117E+03 -6.67612E+03 -3.88851E+03 -7.62155E+03  2.64571E+02 -5.04602E+03
  1.24127E+03 -1.85749E+03  1.05733E+03  9.88543E+02 -1.39149E+03  4.74555E+03  5.59067E+01  9.56991E+03
