 $NMID ID='MM_0lb_SNR50_13hz_g40_66.RAW', FMTDAT='(8E13.5)'
 TRAMP=1., VOLUME=1. $END
  3.11974E+05 -4.04920E+02  3.34762E+05  2.52064E+05  8.43741E+04  3.32889E+05 -1.28361E+05  2.52634E+05
 -1.88358E+05  8.50336E+04 -1.11094E+05 -3.43491E+04 -3.88740E+03 -4.77883E+04  5.44094E+04  3.65112E+03
  3.40413E+04  5.39586E+04 -1.41183E+04  7.19365E+04 -6.47222E+04  6.54145E+04 -7.80768E+04  2.83805E+04
 -7.84704E+04 -1.09274E+04 -5.84247E+04 -5.15527E+04 -1.33374E+04 -6.95364E+04  2.83118E+04 -4.15837E+04
  4.18002E+04  2.64488E+03  1.79578E+04  5.36927E+04 -2.66419E+04  4.35713E+04 -6.47826E+04  8.41715E+02
 -5.62475E+04 -5.62200E+04 -5.91249E+03 -7.93097E+04  3.62407E+04 -5.67347E+04  4.14586E+04 -1.27332E+04
  4.26510E+04  1.42282E+04  3.30895E+04  2.52604E+04  1.78872E+04  3.15087E+04 -4.97251E+03  2.65465E+04
 -1.97470E+04  7.29398E+03 -1.86027E+04 -5.01092E+03  3.08435E+03 -9.89277E+03  2.02504E+04  1.04200E+04
  1.00741E+04  3.24455E+04 -3.10267E+04  3.71163E+04 -5.61493E+04  5.08407E+03 -5.63586E+04 -3.71774E+04
 -8.58039E+03 -6.27028E+04  4.28063E+04 -4.41353E+04  5.62803E+04 -2.98657E+03  3.30017E+04  3.46659E+04
 -6.31449E+03  3.64698E+04 -2.87123E+04  1.81981E+04 -2.78807E+04 -6.83121E+03 -1.23838E+04 -1.37202E+04
 -1.14519E+04 -1.36051E+04 -3.01212E+03 -2.07441E+04  1.16450E+04 -2.73690E+04  1.37207E+04 -1.25406E+04
  1.59536E+04  4.81622E+03 -6.53445E+03  9.29605E+03 -2.11794E+04 -4.17498E+03 -8.55740E+03 -3.19061E+04
  1.55685E+04 -4.14955E+04  5.25585E+04 -1.86911E+04  4.60184E+04  2.19556E+04  1.24836E+04  4.47930E+04
 -1.16128E+04  3.52529E+04 -2.63257E+04  6.46701E+03 -8.84797E+03 -2.77768E+04  2.20944E+04 -3.23634E+04
  4.55665E+04 -1.11917E+04  3.82698E+04  2.46855E+04  1.92703E+04  4.26895E+04 -5.86706E+03  4.76321E+04
 -2.79452E+04  3.31708E+04 -4.54879E+04  9.16559E+03 -4.41882E+04 -1.67276E+04 -1.69919E+04 -3.75904E+04
  6.19139E+03 -3.55659E+04  3.31531E+04 -1.60951E+04  3.04975E+04  7.14423E+03  1.82647E+03  1.60385E+04
 -1.57336E+04  6.31839E+03 -1.33072E+04 -6.48301E+03  6.65213E+03 -1.20415E+04  2.03952E+04  6.17599E+03
  1.47602E+04  2.28922E+04 -5.77626E+03  2.59899E+04 -1.79276E+04  1.09824E+04 -2.84352E+04 -2.47587E+02
 -1.15636E+04 -1.69256E+04 -9.03060E+03 -1.70479E+04  7.80273E+03 -1.68972E+04  1.29244E+04 -1.79568E+04
  2.72432E+04 -1.17369E+04  2.93719E+04  1.69164E+03  2.37429E+04  2.13363E+04 -2.98370E+03  3.46711E+04
 -1.64429E+04  3.71073E+04 -2.76901E+04  1.17341E+04 -2.29407E+04 -1.00388E+04 -4.65008E+03 -1.16631E+04
  2.55143E-02 -1.19119E+03 -2.74440E+03  5.17586E+03 -1.22328E+04  1.73454E+03 -1.32889E+04 -7.42387E+03
 -1.25830E+04 -1.81121E+04  6.47138E+03 -2.19460E+04  1.44627E+04 -1.69295E+04  2.18250E+04 -1.45333E+03
  1.10007E+04  1.25337E+04  1.71596E+03  2.31370E+04 -1.40942E+04  1.13835E+04 -1.78609E+04 -1.76116E+03
 -1.37931E+04 -1.21966E+04 -4.74363E+03 -2.41455E+04  9.31634E+03 -1.72287E+04  1.78999E+04 -8.53556E+03
  1.88890E+04  1.33909E+03  1.00590E+04  5.93520E+03  4.75445E+03  4.36684E+03  7.73177E+03 -6.99865E+03
  1.77281E+04 -1.21966E+03  1.84511E+04  2.00004E+04  1.11870E+04  3.07861E+04 -3.37014E+03  3.26256E+04
 -2.24743E+04  2.67459E+04 -2.40843E+04  1.52224E+04 -3.43206E+04 -2.09338E+03 -2.52264E+04 -1.83742E+04
 -9.23496E+03 -2.87649E+04  8.13621E+03 -2.30633E+04  2.24251E+04 -1.19675E+04  2.09816E+04  9.34446E+03
  1.02607E+04  1.83215E+04 -6.11238E+03  1.32955E+04 -1.69446E+04  2.54815E+03 -1.48947E+04 -1.10442E+04
 -9.15796E+02 -1.69602E+04  1.09220E+04 -1.15595E+04  8.66074E+03  1.14568E+03 -1.54571E+03  7.58522E+03
 -7.89945E+03  6.69136E+03 -3.98314E+03 -5.54739E+03 -2.86677E+03 -1.40367E+04  6.23101E+03 -1.43781E+04
  1.73993E+04 -1.07520E+04  1.76013E+04  3.26960E+03  1.86249E+04  1.21730E+04  9.16716E+03  2.28386E+04
 -4.45994E+03  2.31971E+04 -1.58579E+04  1.41266E+04 -1.75045E+04  3.24688E+02 -1.17871E+04 -1.64273E+03
 -7.93361E+03 -4.58907E+03  6.14342E+03 -1.16116E+01  6.14894E+02  7.26473E+03 -8.41070E+03 -1.76624E+03
 -1.45135E+04 -6.91282E+02 -9.26699E+03 -5.53044E+03 -2.61271E+03 -1.48665E+04  5.14766E+03 -1.72995E+04
  7.76773E+03 -3.40936E+00  9.44843E+03  7.98759E+03 -2.51058E+03  2.28141E+03 -2.90622E+03  2.19837E+03
 -9.97083E+03 -1.06407E+04 -1.02075E+01 -1.03603E+04 -1.84569E+03 -1.34958E+04  1.24524E+04 -2.73046E+03
  1.32431E+04  1.70774E+03  1.29862E+04  1.06752E+04  3.43228E+03  1.35317E+04 -8.22448E+03  9.17539E+03
 -1.19977E+04  4.43268E+03 -8.05183E+02 -3.57318E+03  3.15093E+02  2.19020E+03  5.97342E+03 -2.16181E+03
  3.15854E+03  8.85340E+02 -1.27406E+03  9.93303E+03 -5.86797E+03  7.73820E+03 -1.07843E+04  1.47892E+02
 -9.87391E+03 -9.07889E+03  1.87003E+03 -6.56252E+03  5.35419E+03 -5.04528E+03  7.63972E+03 -3.07694E+03
  3.76944E+03  7.71972E+03 -4.12848E+03  6.43625E+03 -5.67543E+03  4.61433E+03 -8.67053E+03 -8.09717E+03
 -9.97879E+03 -1.40530E+04  7.53682E+01 -1.21450E+04  8.78365E+03 -9.74828E+03  1.40399E+04  7.16082E+03
  8.84489E+03  5.02098E+03 -3.06263E+03  7.34858E+03 -1.26377E+04  6.63342E+03 -9.94390E+03  2.16513E+03
 -4.91322E+03 -6.69839E+03 -2.92339E+02 -1.06312E+04  1.41279E+03 -7.60841E+02  1.18546E+04 -6.04669E+03
 -2.47571E+02  2.16217E+03  3.41055E+03  3.56086E+03 -1.33071E+03  1.47981E+02  1.48589E+03 -4.66226E+03
  6.57077E+03 -6.66803E+03  1.44018E+04  2.18086E+02  1.63546E+04  6.35508E+03  5.82369E+03  1.48761E+04
  4.42672E+03  1.52596E+04 -1.25338E+04  1.65287E+04 -1.76829E+04  2.20977E+03 -8.46356E+03 -7.04649E+02
 -6.92721E+03 -8.53884E+03 -1.32958E+03 -9.01852E+03  1.18627E+03 -6.12984E+03  5.34950E+03 -1.37659E+03
  9.02107E+03 -8.28849E+03  3.99609E+03 -3.50485E+03  2.89474E+01 -4.57646E+03  8.62067E+03 -3.44345E+03
  5.68543E+03 -1.15925E+03  8.14763E+03  5.46990E+03 -1.51394E+03  2.06577E+03 -2.99241E+03  6.87103E+03
 -1.30194E+03 -2.09591E+02 -1.91374E+03 -8.45791E+03 -2.60138E+03 -1.31660E+04  8.21424E+03 -1.29653E+04
  1.18585E+04 -7.08313E+03  1.13229E+04 -2.06119E+03  6.00882E+03  1.23006E+04  1.46374E+03  7.03583E+03
 -4.58954E+03  1.10635E+04 -6.05027E+03 -3.96622E+03 -2.09397E+03 -1.22303E+03 -5.62845E+03 -2.61629E+03
 -1.99945E+03  2.57335E+03 -2.23439E+03  2.01469E+03 -3.11577E+03 -3.13762E+02 -9.49377E+03 -1.90371E+03
 -4.07004E+03 -8.14450E+03 -3.08848E+01 -4.40530E+03  8.64417E+02 -7.70106E+03  9.44268E+03 -4.44813E+03
  9.51652E+03  4.92506E+03  6.50903E+03  1.26357E+04  1.00056E+03  6.84276E+03 -2.26980E+03  4.97758E+03
 -6.29480E+03  1.36245E+03 -6.77873E+03 -1.33552E+03  2.74178E+03 -2.61963E+03  3.17184E+03 -2.47338E+03
  4.39708E+03  3.19316E+03  1.61089E+03  1.21389E+03 -3.09396E+03  2.31000E+03  3.42156E+02  2.82172E+03
  5.34124E+02 -3.59281E+03 -9.19949E+02  4.97561E+03  5.70459E+03  4.11785E+02  3.39089E+03  3.96612E+03
 -7.05723E+03  3.27096E+03 -7.46676E+03  5.56822E+03 -6.61341E+03  1.31796E+03 -7.01603E+03 -2.50485E+03
 -4.66370E+03 -7.06264E+03  4.34890E+03 -1.13154E+04  5.35494E+03 -3.82078E+03  1.21473E+03 -1.24815E+03
  5.92726E+03  2.23883E+03  5.31966E+03  2.33308E+03 -1.97969E+03  3.15670E+01 -3.06791E+03 -4.11872E+03
 -3.09715E+03 -7.66809E+02 -1.33651E+03 -7.81119E+03  4.24217E+03  2.19664E+01  4.85120E+03 -1.64167E+03
  3.11073E+03  1.71431E+01  3.31329E+03 -6.06397E+02 -2.12535E+03 -7.16691E+02 -1.43484E+03 -2.73635E+03
  2.62262E+03  4.61190E+02  4.43743E+03 -3.96549E+01  7.24471E+02  7.39975E+03 -8.63276E+02  7.21045E+03
 -6.49343E+03  5.25028E+03 -8.43720E+03  3.43872E+03 -1.14964E+04  1.26532E+03  1.47469E+03 -3.86392E+03
 -2.79075E+03  1.26879E+03 -1.63259E+03  2.16890E+02  5.23507E+03  2.55735E+03 -8.86309E+02  4.73850E+03
 -6.14277E+03 -1.41069E+03 -1.67612E+03 -2.11684E+03 -3.51441E+03 -1.20749E+04  1.85035E+03 -7.21527E+03
  5.14618E+03 -3.29732E+03  2.34129E+03  2.87558E+02 -3.53794E+02  8.07908E+03  1.54279E+03  2.73846E+03
  5.18483E+03  1.36175E+02 -2.94391E+02 -3.69031E+03  3.37106E+03 -4.32557E+03  6.10574E+03  2.30774E+03
  5.97046E+03  5.44193E+03  5.80352E+03  3.74635E+03  4.15526E+03 -7.46105E+02 -3.15651E+03  4.51919E+03
 -6.06487E+03 -1.48209E+03  2.80964E+03 -1.23276E+03 -2.03329E+03 -2.94105E+03  4.82245E+03 -4.49036E+03
  7.07098E+03  8.45608E+02 -4.71520E+03 -1.12864E+03  4.85808E+02  5.15902E+03 -3.21417E+03  4.35087E+03
  9.31300E+02  2.84117E+03 -1.10898E+03 -2.47751E+03 -4.32960E+03  7.56071E+02 -3.63055E+03  4.66748E+03
 -7.46655E+02  2.64687E+03 -5.02377E+03  4.35059E+03 -6.28108E+03  1.99319E+03 -5.23732E+03 -2.91991E+03
 -7.26889E+02 -6.29550E+03  1.14455E+03 -3.58407E+03  1.49220E+03 -6.90319E+03  7.16369E+03 -2.64768E+03
  5.45468E+03 -2.56473E+03  3.25618E+03  5.22396E+03  2.81436E+02  2.63929E+03 -2.69656E+03  8.73196E+02
 -2.46820E+03  1.67368E+02 -2.90964E+03 -2.08119E+02 -7.15084E+02  2.27524E+03  1.75943E+03  6.18247E+03
 -7.17936E+02  6.45821E+01 -6.10120E+03  3.13337E+03  1.27635E+03 -1.14827E+03 -4.91681E+03 -1.38935E+03
 -2.85571E+03 -4.08291E+03  2.77484E+03  2.36805E+03  3.14328E+03  5.81948E+03  4.49359E+03  7.88904E+03
 -1.50763E+03  2.94214E+03 -3.21177E+03  3.86681E+03 -3.13775E+03 -5.41716E+02 -4.20054E+03 -4.59250E+03
 -6.70552E+03 -9.58249E+03  2.86445E+02 -3.36058E+03  6.34800E+03 -3.22217E+03 -5.49910E+02 -2.10711E+03
  3.68248E+03  5.21664E+02 -7.20204E+02  8.72570E+02  6.58201E+02 -1.94029E+03  2.67526E+03 -3.97588E+03
  1.67639E+03 -1.42420E+03  5.79598E+02  2.63606E+02  1.89597E+03  1.55052E+03 -1.87597E+03 -3.18005E+03
 -4.20999E+03  2.48565E+03 -3.72110E+03 -1.01258E+03 -1.87702E+03 -6.08439E+02  3.02834E+03 -1.11478E+04
  2.24168E+03 -5.15763E+03  5.54496E+02 -1.18987E+02  1.91911E+03  4.09897E+03  3.99264E+03  3.77095E+03
  4.43245E+03  6.96551E+03  4.50445E+03  6.82781E+03  2.30817E+03 -6.92003E+03 -2.94229E+03 -4.77937E+02
 -5.07728E+03  2.25369E+03 -4.80763E+03 -3.68335E+03 -2.35745E+03 -4.94090E+02 -7.48496E+03  1.46368E+03
 -2.39093E+03  1.53522E+03  1.42455E+03 -3.62620E+03  5.15189E+03 -4.30072E+03  5.65629E+03 -3.03766E+03
  4.28665E+03  1.01551E+03  3.80854E+03  7.93813E+03  3.76077E+03  2.10296E+03 -2.14804E+03  2.32140E+03
