 $NMID ID='MM_0lb_SNR50_17hz_g45_54.RAW', FMTDAT='(8E13.5)'
 TRAMP=1., VOLUME=1. $END
  3.06177E+05  2.16723E+03  3.34970E+05  2.48209E+05  8.12637E+04  3.40421E+05 -1.30968E+05  2.50884E+05
 -1.89467E+05  8.35102E+04 -1.12051E+05 -3.32473E+04  4.81087E+03 -4.53333E+04  5.46083E+04  3.42727E+02
  3.75434E+04  5.21958E+04 -1.82639E+04  7.63696E+04 -6.05424E+04  6.43988E+04 -8.34907E+04  3.18292E+04
 -7.71247E+04 -9.50520E+03 -6.18837E+04 -5.29222E+04 -1.23899E+04 -7.03851E+04  3.10248E+04 -4.55516E+04
  4.17792E+04  7.57628E+03  1.37537E+04  5.12339E+04 -2.95284E+04  4.53010E+04 -6.60302E+04 -5.04975E+03
 -4.81768E+04 -5.83506E+04 -3.42129E+03 -7.70484E+04  3.56379E+04 -5.18118E+04  4.58522E+04 -1.39817E+04
  3.83310E+04  9.39398E+03  2.88219E+04  2.59921E+04  1.13256E+04  2.69708E+04  2.21885E+02  3.08149E+04
 -1.97026E+04  7.63218E+03 -1.83300E+04 -8.32154E+03  4.95536E+03 -4.72228E+03  2.28354E+04  1.57394E+04
  1.10722E+04  3.51747E+04 -3.15188E+04  3.81552E+04 -6.51590E+04 -2.60329E+02 -5.63047E+04 -3.79009E+04
 -1.38343E+04 -5.91837E+04  4.04417E+04 -3.93952E+04  5.52594E+04 -1.18311E+03  3.11197E+04  3.38681E+04
 -5.52572E+03  3.14563E+04 -2.54188E+04  1.11812E+04 -2.90231E+04 -7.49210E+03 -1.99838E+04 -9.09985E+03
 -6.89588E+03 -1.02031E+04 -6.06587E+02 -1.54473E+04  3.07371E+03 -2.29874E+04  1.69531E+04 -1.49158E+04
  1.06346E+04  7.38210E+03 -8.73915E+03  1.28612E+04 -1.94368E+04 -3.16460E+03 -1.08297E+04 -2.82372E+04
  2.11961E+04 -3.56678E+04  4.76102E+04 -2.05985E+04  4.25885E+04  2.17631E+04  1.15590E+04  4.58112E+04
 -1.58130E+04  3.41943E+04 -2.46207E+04  8.84886E+02 -9.62136E+03 -2.72391E+04  2.25019E+04 -2.88918E+04
  4.00132E+04 -1.06802E+04  3.38558E+04  1.76236E+04  1.66113E+04  4.28188E+04 -7.39266E+03  5.07211E+04
 -2.69394E+04  2.67907E+04 -3.61760E+04  1.06269E+04 -3.78511E+04 -1.66485E+04 -1.99670E+04 -3.57724E+04
  3.79636E+03 -3.23146E+04  2.95114E+04 -9.43996E+03  2.76064E+04  8.66958E+03  3.63475E+03  1.19467E+04
 -1.16708E+04  7.44424E+03 -1.86294E+04 -6.80891E+03  3.94178E+03 -1.07317E+04  1.75364E+04  5.58613E+03
  1.38353E+04  2.54014E+04 -9.46699E+03  2.44501E+04 -2.44386E+04  1.18390E+04 -2.67071E+04 -8.89222E+03
 -1.29811E+04 -1.89097E+04 -4.26149E+03 -1.71284E+04  2.35793E+03 -1.53690E+04  1.42604E+04 -1.77315E+04
  2.60151E+04 -9.95773E+03  2.42352E+04 -4.31078E+02  2.13468E+04  1.77097E+04  4.26220E+03  3.54442E+04
 -1.86282E+04  2.69798E+04 -2.79855E+04  9.62652E+03 -1.91621E+04 -8.09504E+03 -5.13127E+03 -1.43556E+04
  2.37220E+03 -3.74358E+03 -5.59967E+03  6.83721E+03 -1.05468E+04  4.96160E+02 -1.48462E+04 -4.98039E+03
 -7.94960E+03 -1.96050E+04  9.87033E+01 -2.08986E+04  1.00921E+04 -1.60961E+04  1.98242E+04 -6.91531E+03
  8.38945E+03  1.00921E+04  9.55701E+02  1.45880E+04 -1.34043E+04  1.00449E+04 -1.27055E+04 -3.15538E+03
 -9.43428E+03 -1.02283E+04 -9.42709E+02 -2.70262E+04  8.86323E+03 -1.90538E+04  1.32849E+04 -1.52417E+04
  1.40933E+04  3.27664E+02  1.42967E+04  5.52468E+02  2.56565E+03 -5.47724E+02  5.12710E+03 -9.08048E+02
  1.33546E+04 -2.14286E+03  1.31630E+04  1.23365E+04  8.92633E+03  2.34345E+04 -5.74276E+03  2.51552E+04
 -1.23900E+04  2.00067E+04 -2.59517E+04  1.29339E+04 -2.55591E+04 -2.50703E+03 -2.55876E+04 -1.90085E+04
 -1.06212E+04 -2.07030E+04  8.27142E+03 -2.15963E+04  1.68878E+04 -1.20107E+04  1.31625E+04  4.20669E+03
  6.90220E+03  1.03786E+04 -5.69523E+03  1.17252E+04 -1.77094E+04  2.91377E+03 -1.07014E+04 -9.88474E+03
 -8.51394E+02 -1.50590E+04  6.43445E+03 -7.85177E+03  9.12330E+03 -1.22674E+03  5.35373E+02  4.32869E+03
 -3.10607E+03  2.09670E+03 -5.65417E+03 -3.07024E+03  2.52168E+03 -1.48029E+04  6.71320E+03 -9.86186E+03
  1.28620E+04 -5.41544E+03  7.15082E+03  3.24516E+03  1.44532E+04  6.16526E+03  1.03887E+04  1.92203E+04
 -1.33330E+03  1.99427E+04 -9.69494E+03  9.27805E+03 -1.31724E+04  1.51353E+03 -6.68381E+03  1.37507E+03
 -1.49511E+03 -3.40394E+03  1.00766E+03 -1.31776E+03 -4.79677E+03  1.39490E+03 -6.91587E+03  1.79463E+03
 -8.82011E+03 -2.16086E+03 -7.40213E+03 -5.21422E+03 -3.30027E+03 -8.14690E+03  1.87905E+03 -1.16003E+04
  5.99915E+03 -5.30568E+03  5.06804E+03  2.23317E+03  3.34569E+00  4.53052E+03 -3.01794E+02  4.47376E+03
 -4.99235E+03 -1.04832E+04  2.80474E+03 -5.52120E+03  4.17219E+03 -5.17537E+03  1.20437E+04 -5.98567E+03
  8.73085E+03 -4.05089E+03  9.90838E+03  8.48482E+03  3.67818E+03  7.17356E+03 -4.99106E+03  1.08336E+04
 -3.91299E+03  4.09353E+03 -6.41261E+03 -4.02174E+03  1.38714E+03 -4.68708E+03  3.66170E+03 -3.95206E+03
  5.41910E+03  5.61431E+03 -8.00340E+02  8.96265E+03 -6.48457E+03  8.51337E+03 -6.62474E+03  5.83822E+03
 -7.60234E+03 -4.26142E+03  2.00125E+03 -1.06267E+04  6.38359E+02 -6.61803E+02  4.17229E+03 -7.51093E+02
  1.99134E+03  4.67616E+01 -7.05671E+03  5.24499E+03 -5.26943E+03  2.31313E+00 -5.13099E+03 -1.73952E+03
 -5.23038E+03 -6.89284E+03  2.41286E+03 -9.86559E+03  2.63638E+03 -6.51788E+03  6.26728E+03  4.44622E+03
  6.16347E+03  7.28682E+03 -7.17856E+02  7.31690E+03 -6.01809E+03  3.38863E+03 -8.17826E+03  2.19028E+03
 -5.70845E+03 -1.26669E+03  1.74029E+03 -7.71831E+03  3.09116E+03 -4.70826E+02  2.76288E+03  3.87380E+01
  4.06946E+03  2.06086E+03 -3.17790E+03  2.69894E+03 -6.48833E+01  9.93942E+02  5.39891E+03 -1.98502E+03
  8.91597E+03  6.78017E+02  7.00085E+03  3.18833E+03  7.85748E+03  4.79398E+03  8.21212E+03  5.83519E+03
 -4.02257E+03  1.05054E+04 -7.70320E+03  6.14213E+03 -8.27453E+03  4.50705E+02 -1.09953E+04  2.26801E+03
 -6.63042E+03 -3.75278E+03 -4.83267E+03 -5.12683E+03  2.19061E+03 -3.83008E+03 -3.07394E+03  3.86571E+03
  2.48004E+02 -2.11589E+03 -1.50063E+03 -3.18791E+03  3.95721E+03 -3.77766E+03  4.65749E+03  2.65546E+03
  2.52830E+03 -1.50566E+03  5.25096E+03  3.16724E+03 -3.52867E+02  4.10077E+03  1.18280E+01  1.07502E+03
 -4.76694E+03 -2.37186E+02 -5.43874E+03 -4.28679E+03  1.66501E+03 -9.21187E+03 -8.62439E+02 -8.13916E+03
  8.93021E+03 -4.25387E+03  9.94321E+03  8.89139E+02  6.75534E+03  3.23230E+03  1.97880E+03  4.26589E+03
 -1.94374E+03  5.84458E+03 -1.76529E+03  2.91921E+02 -7.87356E+03 -6.05385E+02 -1.66129E+03 -5.04120E+03
  3.99695E+03  1.34009E+03 -5.54861E+03 -2.28264E+03  4.63666E+02  3.89858E+03 -3.38433E+03 -3.38127E+03
 -2.46127E+03 -3.00710E+03  1.52399E+03 -2.22862E+03  4.96499E+02 -5.09019E+03  3.47608E+02  3.32992E+03
  2.81091E+03  1.55197E+03  3.96417E+03  2.84257E+02  1.42586E+02  8.32567E+03 -6.50116E+03  2.37247E+03
 -4.00334E+03  4.08755E+02 -7.67537E+03 -2.46404E+03 -8.22025E+02 -1.98884E+03 -7.65871E+02 -1.36595E+03
  4.10920E+03  1.79291E+03  5.32142E+03  4.95588E+02  1.23916E+03  2.42977E+03  1.83840E+03 -1.30857E+02
 -3.78378E+02  1.30003E+03  5.90698E+02  2.59335E+03  8.87387E+02  1.33819E+03 -2.24306E+02  7.72107E+02
 -4.76453E+03  5.55297E+03 -2.54807E+03  6.97464E+03 -2.28512E+03  7.23921E+03 -8.11010E+03  1.59263E+03
 -3.34622E+03 -5.50302E+02  2.03145E+03 -8.93924E+03  1.90269E+03 -1.95703E+03  1.23340E+03 -4.74058E+02
  2.89441E+03  1.76440E+03  4.00963E+03  5.07414E+03 -2.58921E+03  1.43808E+03  7.07661E+02 -4.24433E+02
  2.55202E+03 -7.10478E+03  4.53906E+03  1.68916E+03  5.59208E+02 -2.58144E+03  6.46209E+03  2.37336E+03
  2.67699E+02  1.33387E+03  3.01761E+03  2.36718E+03 -3.51482E+03  4.71719E+03  2.65640E+03 -2.75321E+03
  3.29288E+03 -4.84356E+02 -1.73696E+03 -5.48978E+02  6.88511E+02  3.07108E+03 -1.24426E+03 -1.45251E+02
  2.91561E+03  1.33395E+02  8.66794E+02  2.59809E+03 -1.15080E+03  9.57981E+02  2.07625E+02  2.03910E+03
  1.72580E+03  5.91418E+03 -3.69526E+03  1.15540E+03  2.83595E+03  6.73298E+02 -1.86549E+03  9.48093E+02
 -4.48045E+02 -1.25045E+03  1.39132E+03 -2.74996E+03  2.33153E+03 -3.85590E+03  2.80502E+03 -6.10726E+03
 -2.68360E+03 -3.31666E+03 -1.98640E+03  2.05251E+01 -2.35216E+03  4.20888E+02 -6.84151E+02  4.21213E+03
  9.64283E+02 -3.36698E+03  2.65700E+03  5.79893E+03  1.90965E+03 -1.92599E+03  5.86653E+03 -4.73880E+02
  6.11707E+03 -1.47705E+03  3.42093E+03  5.21987E+03 -5.73132E+01  2.89430E+02 -2.48484E+03  4.09283E+03
 -5.35643E+03  1.57693E+02 -1.96874E+03 -2.58521E+03 -5.47223E+01  2.96840E+02 -3.29199E+03 -4.74355E+02
  1.47171E+03 -4.48713E+03 -2.19885E+03 -1.39777E+03  9.93404E+02  2.31554E+03  2.15351E+03  3.98677E+03
  1.34926E+03 -2.86783E+03  5.29579E+02  3.62183E+03  1.94593E+03 -1.23849E+01 -2.80717E+02  5.48832E+02
  2.63703E+03 -2.58350E+02 -4.50923E+03  1.53537E+02 -5.13938E+03  2.35620E+03 -2.64952E+03 -8.10836E+02
  7.47226E+02 -3.18317E+03  1.13550E+03 -5.52822E+03 -2.23054E+03 -2.08651E+02  1.51623E+03  2.34600E+02
  1.65767E+03  9.17987E+02 -9.70144E+02  1.97435E+03 -3.30664E+03 -1.03908E+03 -3.37884E+03  4.29793E+03
 -4.20634E+03  1.11842E+02  1.25106E+03  3.47699E+02 -5.22332E+03  1.83444E+03 -4.85383E+03 -1.08442E+03
  2.13505E+03  4.11466E+03 -3.49575E+03  9.32862E+02  1.37104E+03  3.89084E+02  2.02167E+03 -4.28505E+03
 -1.80008E+02  2.89002E+03  6.03847E+03  4.96661E+03  3.84590E+03 -3.93902E+03 -1.68994E+03  3.50010E+03
  2.82831E+03  4.22382E+03 -4.21275E+03  4.12460E+03 -8.69134E+02  3.37799E+03 -5.61854E+03 -1.67547E+03
 -2.48927E+03 -3.18121E+03  2.13113E+03 -4.87311E+03  1.71216E+03  2.16984E+03  1.64943E+03 -1.23030E+03
  4.11134E+03  2.45875E+03 -1.71426E+02  5.43442E+03 -1.93369E+03 -3.33211E+03  1.03028E+02  5.58046E+03
 -4.49487E+02 -2.80076E+03  2.90871E+02  8.21498E+03 -5.46006E+03  1.54027E+03 -3.69207E+02  2.45225E+03
  6.20342E+03 -1.18888E+03 -1.36706E+03 -2.07650E+03 -1.29215E+03 -4.64076E+03 -1.34390E+03 -1.90053E+03
  2.92481E+03 -4.07323E+03  2.29840E+03  1.24386E+03  1.23642E+02 -6.72024E+02 -1.20677E+03  1.05981E+03
  3.59674E+03 -1.03150E+02 -4.73514E+03  3.21577E+03  4.31718E+02 -8.79776E+00 -5.11892E+03  3.89843E+01
  4.11667E+02 -4.33598E+03 -9.33787E+03  4.46365E+03 -9.01790E+02 -2.36616E+03  9.66899E+01  3.10645E+03
 -2.74916E+03 -2.52104E+03 -6.69568E+03 -9.41059E+02  2.94254E+03 -3.88532E+03  4.20243E+03  3.67878E+03
  1.63040E+03 -9.21439E+02  1.73781E+03  4.29072E+03 -2.19437E+03  2.24128E+03  6.99597E+02 -1.78537E+03
