 $NMID ID='MM_0lb_SNR50_14hz_g40_7.RAW', FMTDAT='(8E13.5)'
 TRAMP=1., VOLUME=1. $END
  3.06094E+05 -1.39176E+03  3.37200E+05  2.49580E+05  8.56729E+04  3.38913E+05 -1.34375E+05  2.49289E+05
 -1.88911E+05  8.33914E+04 -1.12453E+05 -3.03372E+04 -5.90388E+02 -5.00622E+04  5.21466E+04 -1.26223E+03
  3.64792E+04  4.94083E+04 -2.09721E+04  7.88275E+04 -6.33299E+04  6.60370E+04 -8.19484E+04  3.36498E+04
 -8.30072E+04 -1.24089E+04 -5.70697E+04 -5.16118E+04 -1.64312E+04 -6.51467E+04  2.77027E+04 -4.90384E+04
  3.64908E+04  2.53668E+03  1.75410E+04  4.75184E+04 -3.65826E+04  4.56926E+04 -6.56491E+04  4.59680E+03
 -5.56223E+04 -6.02229E+04 -5.93028E+03 -7.78204E+04  3.62240E+04 -5.65607E+04  4.37617E+04 -1.92949E+04
  4.31096E+04  1.06448E+04  3.10341E+04  2.15658E+04  1.82793E+04  3.28454E+04 -5.96674E+03  2.94802E+04
 -1.83914E+04  1.67698E+04 -1.77247E+04 -1.97749E+03  7.00365E+03 -7.91172E+03  2.40919E+04  1.00965E+04
  7.76587E+03  3.23018E+04 -2.96899E+04  3.67534E+04 -6.08587E+04  4.55950E+03 -5.19858E+04 -4.07205E+04
 -9.19718E+03 -5.91274E+04  3.71928E+04 -4.49303E+04  5.51678E+04 -2.90378E+03  3.21611E+04  3.32421E+04
 -6.29648E+03  3.34123E+04 -2.75684E+04  1.37730E+04 -2.76135E+04 -1.97229E+03 -1.76023E+04 -1.48053E+04
 -1.07695E+04 -1.06708E+04  7.42445E+01 -1.45207E+04  1.00990E+04 -2.36918E+04  1.53946E+04 -1.05628E+04
  1.00538E+04  3.36831E+03 -8.55662E+03  9.02873E+03 -1.88000E+04 -2.86200E+03 -1.03591E+04 -3.50286E+04
  2.38071E+04 -4.39116E+04  4.70515E+04 -1.94118E+04  4.26353E+04  2.05213E+04  1.26118E+04  4.22606E+04
 -1.38187E+04  2.89659E+04 -2.37979E+04 -1.55287E+02 -1.12641E+04 -2.91968E+04  2.19648E+04 -3.03884E+04
  4.30321E+04 -1.17644E+04  2.86360E+04  2.39525E+04  1.85710E+04  4.55819E+04 -8.31397E+03  5.01134E+04
 -3.10556E+04  3.50198E+04 -3.40737E+04  7.33347E+03 -4.01803E+04 -1.83149E+04 -2.20403E+04 -4.07433E+04
  6.87797E+03 -3.72852E+04  3.24127E+04 -1.53313E+04  2.71381E+04  1.26122E+04  2.67152E+03  1.73758E+04
 -1.16378E+04  6.29717E+03 -1.40180E+04 -6.21965E+03  8.62023E+03 -1.28356E+04  1.69105E+04  3.15800E+03
  1.47265E+04  1.74219E+04 -5.04269E+03  2.75943E+04 -2.22384E+04  9.60218E+03 -2.97694E+04 -4.83087E+03
 -1.77867E+04 -1.82860E+04 -1.06749E+04 -1.98048E+04  1.50122E+03 -1.38010E+04  1.31916E+04 -1.55280E+04
  2.52292E+04 -1.15074E+04  3.70331E+04  4.87374E+03  2.53442E+04  2.19116E+04  6.90936E+03  3.54624E+04
 -1.51058E+04  2.66280E+04 -2.85752E+04  1.67064E+04 -2.06656E+04 -8.39526E+03 -2.14282E+03 -1.42148E+04
  1.97583E+02 -6.60738E+03 -3.97316E+03  6.26246E+03 -2.01136E+04  6.13307E+03 -1.49929E+04 -5.41845E+03
 -8.73770E+03 -1.98850E+04  5.04167E+03 -1.99065E+04  9.21157E+03 -1.79383E+04  1.67843E+04 -8.41445E+02
  1.13487E+04  5.50255E+03 -5.18315E+02  1.58145E+04 -9.47448E+03  8.25303E+03 -2.06319E+04 -7.21254E+03
 -7.56983E+03 -1.90967E+04 -3.75334E+03 -1.74642E+04  1.06183E+04 -2.16556E+04  1.89825E+04 -7.23047E+03
  1.09459E+04  1.11634E+03  1.12287E+04  1.06515E+04  1.00061E+04  1.35700E+03  8.81295E+03 -1.90515E+03
  1.67072E+04  4.48078E+02  1.70677E+04  1.93663E+04  1.15607E+04  3.81651E+04 -7.16711E+02  3.12759E+04
 -1.88610E+04  2.95438E+04 -2.88926E+04  1.30697E+04 -3.03117E+04 -1.84847E+03 -2.95092E+04 -1.37750E+04
 -1.25157E+04 -3.19401E+04  1.01130E+04 -2.87605E+04  1.76588E+04 -1.55310E+04  1.94151E+04  1.16615E+04
  1.01871E+04  7.85842E+03 -1.23909E+04  1.42241E+04 -1.91243E+04  3.65961E+03 -1.21160E+04 -1.33007E+04
 -1.08213E+03 -1.50577E+04  1.21428E+04 -7.83918E+03  1.09142E+04  5.89464E+02  3.84985E+02  5.71651E+03
 -7.26128E+03  5.43338E+03 -2.54199E+03 -5.78571E+03 -2.57564E+03 -1.87588E+04  1.04266E+04 -1.39433E+04
  1.98323E+04 -8.73483E+03  2.24065E+04  4.18437E+02  1.42076E+04  1.78352E+04  7.85420E+03  1.62262E+04
 -4.21585E+03  2.09499E+04 -8.53730E+03  1.02188E+04 -1.94302E+04  3.21251E+03 -1.23170E+04 -4.95054E+03
 -3.31956E+03  4.77758E+02  2.67075E+03 -1.05300E+03 -4.03693E+03  5.13632E+03 -9.07664E+03  4.98251E+03
 -1.19194E+04 -1.56418E+03 -6.85711E+03 -9.70971E+03 -2.91955E+03 -1.36954E+04  3.31045E+03 -9.03904E+03
  1.25909E+04 -4.65252E+03  5.75077E+03  2.80852E+02  1.48044E+03  4.86755E+03 -8.34745E+03  6.61975E+02
 -3.93476E+03 -2.68164E+03 -3.12690E+03 -1.13605E+04  1.14252E+04 -1.09169E+04  1.51531E+04 -2.95255E+03
  1.26671E+04 -2.18276E+03  8.71087E+03  9.51085E+03  1.83415E+03  1.12542E+04 -7.55004E+03  5.74214E+03
 -6.27772E+03  1.45043E+03 -8.66302E+03 -2.62920E+03 -1.77801E+03 -3.62801E+03  6.29779E+03  2.86633E+03
  7.19474E+03  6.76944E+03  3.07710E+03  4.76678E+03 -4.97437E+03  1.26844E+04 -1.11539E+04 -3.25565E+03
 -6.88545E+03 -1.95996E+03 -3.25823E+03 -1.08360E+04  6.22182E+03 -5.76420E+03  7.79531E+03  3.37052E+03
 -7.77707E+02  5.24083E+03 -3.07238E+03  6.14456E+03 -1.06108E+04  2.60300E+03 -5.43845E+03  4.80433E+02
 -6.53126E+03 -8.48483E+03 -1.11406E+03 -9.70411E+03  9.33210E+03 -9.77260E+03  1.67488E+04  3.59451E+03
  8.42268E+03  9.81312E+03 -1.23329E+03  9.40089E+03 -7.35727E+03  5.96890E+03 -8.06473E+03 -7.18516E+02
 -2.79828E+03 -7.01969E+03 -3.52406E+03 -6.94289E+03  5.14778E+03 -9.28367E+03  3.61653E+03 -6.87713E+03
  2.40749E+03  8.95360E+02  8.34211E+02 -2.25147E+01 -3.58519E+03  6.68556E+02  4.28299E+03  6.67787E+02
  6.44532E+03 -5.07584E+03  9.40946E+03 -2.47244E+03  2.91301E+03  3.82120E+03  1.13364E+04  1.03493E+04
  3.12937E+03  8.35356E+03 -7.36787E+03  1.05980E+04 -1.84908E+04 -2.78858E+02 -1.53146E+04  1.95380E+03
 -3.30095E+03 -9.26782E+03  3.82088E+03 -8.63433E+03  6.14337E+03 -2.54990E+03  1.04444E+03 -2.18533E+02
  2.70901E+01 -1.01454E+03  4.09994E+03 -5.17154E+03  1.71225E+03  3.97733E+03  1.41301E+03 -2.15649E+03
  5.97393E+03  2.24216E+03  4.29568E+03  5.41270E+03  1.12153E+02  7.19098E+03 -9.22957E+03  5.31150E+03
 -1.06535E+04 -4.79941E+01 -6.00938E+03 -2.12785E+03  1.37570E+03 -6.44969E+03  7.60835E+03 -1.06557E+04
  8.15816E+03 -1.03255E+04  1.32869E+04  2.99389E+03  5.91689E+03  6.11013E+03  5.25195E+02  1.05760E+04
 -1.45682E+03  1.01532E+04 -3.83931E+03  5.20783E+03 -7.07591E+03  4.74716E+02 -3.66276E+03 -3.45755E+02
  3.24901E+03  6.62142E+03 -1.48393E+02  6.02643E+03 -5.77551E+03  1.11775E+03 -5.15998E+03  1.49957E+03
 -3.99959E+03 -8.18470E+03  1.94631E+01 -4.17227E+03  7.83324E+03 -1.06355E+04  5.04367E+02 -5.79814E+03
  9.14802E+03  2.32870E+03  3.36361E+03  8.20336E+03  2.40819E+01  3.46226E+03 -7.27186E+02  2.87701E+03
 -2.23105E+03 -2.17373E+03 -2.64247E+03 -5.90510E+02 -2.83801E+03 -3.13694E+03  4.01600E+03 -5.71308E+03
  7.94209E+03  3.27608E+03 -5.28799E+02  1.65445E+03  5.17694E+03  1.75829E+03 -2.72084E+03  5.36809E+01
  7.14199E+03 -1.37425E+03  4.67036E+03  3.14272E+03  2.31061E+03  1.93675E+03 -1.96676E+03  4.04546E+03
  3.64316E+02  6.58128E+03 -7.36386E+03  7.55875E+03 -4.31120E+03  2.97306E+02 -8.41197E+03 -1.00832E+03
 -1.08386E+03 -9.29795E+03  4.36226E+03 -9.38930E+03  2.15752E+02 -8.50505E+03  7.77011E+03 -5.32697E+03
  5.15292E+03  2.41311E+03  3.96629E+03  2.02104E+03 -1.68076E+03 -7.40257E+02 -7.96862E+03 -3.15381E+03
 -5.33191E+03 -3.90862E+03 -1.96031E+02  2.44396E+02  2.13815E+03 -9.70847E+02  1.60755E+02  3.63276E+03
 -3.81254E+02  4.83529E+03 -1.88662E+02 -1.52870E+03 -1.03253E+03  4.35111E+03  2.83290E+03 -1.87563E+03
 -2.10259E+03  2.32665E+03  3.15307E+03  1.29640E+03  2.47901E+03  4.06890E+02  2.16026E+03  1.20594E+03
 -5.93062E+03  1.08062E+04 -3.56192E+02 -1.34107E+02 -5.64686E+03 -1.71062E+03 -2.01748E+03 -1.24839E+03
 -4.75861E+01 -2.35619E+03 -7.57093E+02 -5.97995E+03  3.83209E+03  4.25625E+02 -6.40539E+03  1.01389E+03
 -4.13140E+03  9.52796E+03 -8.56763E+03 -2.23352E+03 -1.52480E+03 -5.40381E+03  1.25790E+03 -3.39246E+03
 -1.69807E+03 -1.83905E+03  8.57458E+03 -2.81353E+03  5.78727E+03 -1.83688E+02  2.24121E+03  5.02590E+03
  2.53114E+03  9.86312E+02  1.35184E+03 -2.08765E+03  1.51726E+03 -2.00585E+03  4.80659E+03 -6.07084E+03
 -1.64891E+03  2.37182E+03  5.77545E+03  6.82853E+03  5.93065E+03  4.55046E+03 -6.08817E+03  6.03759E+03
 -2.26798E+03  2.86572E+03 -2.01628E+03 -1.45031E+03 -1.99752E+03 -3.43946E+03 -9.44764E+02 -7.73597E+02
  6.24337E+03 -1.98714E+03  6.47947E+02  2.95839E+03  2.14692E+03  2.20803E+03  7.08190E+02  3.97583E+03
 -2.29447E+03  3.31701E+03  2.20422E+03  2.15686E+03  3.19162E+03  1.22349E+03 -1.31336E+03 -4.43363E+03
 -1.79804E+03  4.08701E+03 -9.60784E+03  2.17797E+03 -1.46483E+03  4.63297E+02 -6.84878E+03 -4.85899E+03
 -1.49329E+03 -8.09277E+03  6.69894E+03 -9.67917E+03  4.07417E+03 -5.14655E+03  3.91764E+03 -1.86527E+03
  7.15726E+03 -3.15572E+03  2.28438E+03  3.91245E+03  1.29249E+03  6.03941E+03 -2.23088E+03  4.31244E+03
 -5.64280E+03  6.22572E+03 -3.97024E+03 -8.01920E+02 -3.32796E+03  5.01623E+03  1.05942E+03  1.43384E+03
 -2.00638E+03  2.62400E+03 -3.22399E+03  2.36239E+03 -2.09301E+03 -9.08464E+02 -8.52661E+02  1.14718E+02
  1.11062E+02  2.73595E+03  5.87423E+01  8.76233E+02  3.07437E+03 -1.34200E+03 -2.72449E+03  7.65807E+03
 -3.22902E+03  5.20331E+03 -3.65976E+03  1.66215E+03 -1.21761E+03 -2.56949E+03  1.19968E+03 -7.94969E+03
 -2.43535E+02 -8.48355E+03 -3.42068E+03 -4.93685E+03  4.84387E+03 -1.52404E+03  5.98963E+03  8.47615E+02
  4.10067E+03  3.97166E+03 -2.20982E+02  1.66949E+03  1.21383E+03  1.74727E+03  5.24288E+03 -4.46440E+03
 -1.51120E+03 -3.42887E+02  1.36291E+03  4.17956E+02  1.35336E+02 -1.55100E+03 -8.99371E+02  5.94353E+02
  4.08788E+03  2.29836E+03 -1.87797E+03 -4.99162E+02 -4.48113E+03 -3.14792E+03 -1.13654E+03 -2.53469E+03
 -4.52023E+02 -4.01724E+02 -1.27982E+03 -1.84632E+03  3.34055E+03 -5.59405E+03  4.23563E+02  1.38006E+03
 -4.47554E+03  3.63884E+03  8.14122E+02  3.22265E+03 -1.76868E+03  3.43300E+03 -3.50870E+03  1.29026E+03
 -4.09071E+03 -1.54819E+03 -5.53011E+03 -4.28629E+03 -1.87492E+03 -1.87888E+03 -3.14607E+03 -4.18869E+03
  4.10865E+02 -3.17201E+03 -6.93375E+02  1.74873E+03  6.76920E+02 -3.05046E+03  2.31288E+03 -1.05180E+03
 -1.06897E+03 -4.38960E+02 -5.24221E+02  1.02534E+03 -1.34672E+02 -1.27232E+03  1.01708E+03  4.10946E+02
