 $NMID ID='MM_0lb_SNR50_11hz_g40_14.RAW', FMTDAT='(8E13.5)'
 TRAMP=1., VOLUME=1. $END
  3.11471E+05 -4.45484E+02  3.36913E+05  2.47526E+05  8.73335E+04  3.34780E+05 -1.36165E+05  2.52103E+05
 -1.89856E+05  8.60340E+04 -1.06212E+05 -3.00170E+04  1.06562E+04 -5.18485E+04  5.58802E+04  3.22608E+02
  3.88739E+04  5.08585E+04 -1.63174E+04  7.61538E+04 -6.18616E+04  5.79055E+04 -8.20391E+04  3.62112E+04
 -7.96135E+04 -9.03215E+03 -5.60515E+04 -5.71869E+04 -1.69254E+04 -7.27336E+04  2.53124E+04 -4.84672E+04
  3.32810E+04  3.99515E+03  1.59839E+04  4.91520E+04 -3.46965E+04  5.10755E+04 -6.28700E+04  2.63361E+03
 -5.66234E+04 -5.82496E+04 -5.06425E+03 -7.68753E+04  3.41777E+04 -5.69391E+04  4.51420E+04 -1.64769E+04
  4.21395E+04  1.73833E+04  2.48041E+04  2.55532E+04  1.47953E+04  2.65417E+04 -8.44265E+03  2.71392E+04
 -2.61603E+04  8.58992E+03 -1.37801E+04 -1.85843E+03  1.83967E+03 -6.72513E+03  1.88755E+04  1.22035E+04
  1.05284E+04  3.22868E+04 -3.52027E+04  3.39656E+04 -5.83524E+04  1.36129E+03 -6.01372E+04 -4.44589E+04
 -1.04517E+04 -6.72235E+04  3.39736E+04 -4.37359E+04  5.94797E+04  7.68755E+02  4.01562E+04  3.47935E+04
 -1.81194E+03  3.47769E+04 -2.97865E+04  1.76856E+04 -3.21076E+04 -8.16705E+03 -2.53580E+04 -1.68046E+04
 -4.81403E+03 -1.31875E+04  8.40145E+02 -1.60397E+04  6.53279E+03 -2.22286E+04  2.11812E+04 -1.14352E+04
  1.04906E+04  4.80927E+03 -4.30772E+03  1.33531E+04 -2.00463E+04 -3.81995E+03 -7.24254E+03 -2.66920E+04
  2.61837E+04 -4.57443E+04  4.71134E+04 -1.69435E+04  4.86002E+04  2.24230E+04  1.48593E+04  4.41839E+04
 -1.61523E+04  3.67264E+04 -2.69525E+04  4.21394E+03 -5.13817E+03 -2.89400E+04  1.81101E+04 -3.32659E+04
  4.54408E+04 -9.94796E+03  3.20220E+04  2.00885E+04  1.98374E+04  4.78309E+04 -5.02151E+03  4.84778E+04
 -3.58987E+04  3.75997E+04 -3.68204E+04  1.50299E+04 -4.24300E+04 -1.82952E+04 -2.34889E+04 -3.60693E+04
  9.08430E+03 -4.11842E+04  2.47771E+04 -1.21570E+04  3.27752E+04  1.55569E+04  5.74445E+03  1.54980E+04
 -1.15156E+04  4.80912E+03 -1.55446E+04 -2.03622E+03  1.23810E+03 -1.20478E+04  2.22749E+04  4.56779E+03
  1.39845E+04  2.08285E+04 -7.53772E+03  2.90134E+04 -2.41040E+04  1.82865E+04 -2.95821E+04 -6.97735E+02
 -2.41112E+04 -1.83647E+04 -1.54749E+04 -2.13435E+04  1.25103E+04 -2.20379E+04  1.43181E+04 -2.41219E+04
  2.73263E+04 -1.37302E+04  3.53273E+04  6.68647E+03  2.86763E+04  2.25406E+04  4.96654E+03  3.69227E+04
 -1.72581E+04  3.06558E+04 -2.52800E+04  1.40018E+04 -1.80922E+04 -1.25111E+04 -4.64904E+03 -1.38495E+04
 -2.46800E+03  5.43948E+03 -8.88136E+03  9.29219E+03 -2.03702E+04  8.19014E+03 -1.72763E+04 -1.02837E+04
 -1.43416E+04 -2.13352E+04  3.99769E+03 -2.66685E+04  1.65544E+04 -1.50692E+04  1.81078E+04 -2.97589E+03
  8.92894E+03  1.63021E+04  1.53775E+03  1.56117E+04 -1.54850E+04  9.80558E+03 -2.18038E+04 -6.44557E+03
 -1.76767E+04 -1.73596E+04 -1.51632E+03 -2.38810E+04  1.14186E+04 -2.00611E+04  2.08598E+04 -9.18805E+03
  2.52565E+04 -1.14575E+03  1.17475E+04  4.08425E+03  1.80237E+03 -1.43877E+03  1.37208E+04 -7.86278E+03
  1.53667E+04  4.22502E+02  1.92561E+04  1.54258E+04  1.35845E+04  3.29827E+04 -4.17404E+02  3.57694E+04
 -2.33485E+04  2.78852E+04 -3.40690E+04  1.31761E+04 -4.46231E+04 -4.64903E+03 -2.59170E+04 -2.89328E+04
 -8.76724E+03 -3.11801E+04  1.08941E+04 -2.58413E+04  2.33167E+04 -9.39205E+03  2.21317E+04  9.03677E+03
  7.07893E+03  1.91232E+04 -1.29432E+04  1.07552E+04 -1.64011E+04  2.49116E+03 -1.27313E+04 -9.12597E+03
  4.37535E+02 -1.33281E+04  1.10934E+04 -9.41720E+03  1.23208E+04 -5.87101E+03  2.18165E+03  6.97674E+03
 -1.37869E+04  3.50540E+03 -5.36679E+03 -3.10473E+03  6.50819E+02 -1.46315E+04  9.91583E+03 -1.83584E+04
  1.45558E+04 -7.33201E+03  2.60793E+04  3.71046E+03  1.42303E+04  1.27526E+04  1.50559E+04  2.57983E+04
 -4.38554E+03  2.35312E+04 -1.58147E+04  1.27361E+04 -1.73491E+04  3.75885E+03 -1.22609E+04  1.41808E+03
 -8.97041E+03 -7.80120E+03 -1.17228E+03 -2.39107E+03 -7.39088E+02 -1.29329E+03 -1.38329E+04  2.20738E+03
 -9.42237E+03 -2.72948E+03 -1.28867E+04 -8.38571E+03 -6.19347E+03 -1.46087E+04  9.42912E+03 -1.27221E+04
  7.72360E+03 -6.59781E+03  7.74891E+03  7.01140E+03 -2.86014E+03  1.03833E+04 -3.52052E+02 -2.38248E+03
 -6.06976E+03 -1.04755E+04 -4.47959E+02 -1.19368E+04  1.00897E+04 -9.76778E+03  1.39676E+04 -4.14648E+03
  1.85184E+04 -2.19974E+03  1.26193E+04  9.10796E+03  5.59953E+03  1.60062E+04 -1.14325E+04  1.23319E+04
 -9.49948E+03  2.49377E+03 -1.07090E+01  4.40569E+03 -4.25194E+03 -5.92468E+03  3.76308E+03  4.45446E+03
  1.12200E+04  4.25112E+03  6.46186E+03  8.55412E+03 -8.32107E+03  1.39137E+04 -1.57294E+04  3.41510E+03
 -1.60267E+04 -2.72322E+03 -2.47003E+03 -1.33271E+04  4.96773E+03 -6.70760E+03  5.24439E+03 -2.74488E+03
 -1.49500E+03  6.64699E+03 -6.11746E+03  7.20628E+03 -9.86713E+03  3.91536E+03 -1.25644E+04 -5.83569E+03
 -6.75631E+03 -5.45619E+03  5.64105E+03 -1.11211E+04  1.23464E+04 -9.27932E+03  1.07389E+04  1.27213E+03
  6.12640E+03  8.17250E+03 -9.78600E+01  1.65876E+04 -1.01518E+04  8.76948E+03 -9.66985E+03 -5.61403E+02
 -1.11947E+04 -1.48814E+04 -2.62063E+03 -9.11243E+03  5.66833E+03 -1.26470E+04  4.30364E+03 -3.79579E+03
 -2.88775E+02  7.51457E+03  1.37141E+03  1.98697E+03  3.38534E+03  2.30513E+03  4.85795E+03 -7.03015E+03
  8.82803E+03 -4.79959E+03  1.14884E+04  3.69606E+03  1.43028E+04  1.08224E+04  6.64115E+03  1.51348E+04
  5.64598E+01  1.92967E+04 -1.55580E+04  1.50776E+04 -2.00649E+04  4.60431E+03 -1.36120E+04 -3.77994E+03
 -9.78389E+03 -1.83861E+04  2.55246E+03 -1.38627E+04  4.94896E+03  2.09666E+03  3.40315E+02  6.45047E+02
 -7.82473E+02 -6.13152E+03 -1.31644E+03 -2.80169E+03  6.99810E+03 -1.80318E+03  4.91956E+03  1.42722E+03
  9.57625E+03  6.25392E+03  2.34633E+03  6.83407E+03 -7.82641E+02  7.64626E+03 -5.50177E+03  1.06676E+04
 -1.13498E+04 -2.05275E+03 -6.36784E+03 -1.01057E+04 -5.22949E+02 -1.30611E+04  7.52574E+03 -6.91374E+03
  9.72157E+03 -6.61200E+03  1.30028E+04  2.76326E+03  1.31956E+04  4.87652E+03  6.64772E+02  1.34463E+04
 -2.33359E+03  9.70232E+03 -7.30578E+03  3.92720E+03 -2.37538E+03 -9.53492E+03 -1.50083E+03  6.87460E+03
 -1.33661E+03  2.34676E+03 -8.42742E+01  8.23531E+03 -8.02350E+03  2.50226E+03 -5.86465E+03 -4.49246E+02
 -1.14105E+04 -7.03673E+03  1.53868E+03 -1.04956E+04  1.25991E+04 -1.43326E+04  1.38875E+04 -3.88155E+03
  1.01315E+04  7.03474E+03  7.62072E+03  5.81279E+03 -2.52215E+03  1.07395E+04 -1.14901E+03  1.23965E+04
 -9.23854E+03  3.17907E+03 -1.16469E+04 -1.06784E+04  1.66311E+03 -1.12969E+04  2.72535E+03 -6.48249E+03
  2.99753E+03 -6.44049E+03  9.01237E+03  2.29897E+03  3.83060E+03  3.14819E+03 -3.43969E+03  3.75533E+03
  2.94801E+03  4.16896E+03  4.44562E+03 -1.71556E+03 -5.23494E+02  4.37787E+03 -4.07252E+03  3.66421E+03
 -7.59755E+02  4.36379E+03 -8.79693E+03  9.22313E+03 -1.07530E+04  5.38072E+03 -8.05097E+03 -5.69052E+03
 -1.10173E+04 -1.72043E+04  4.60689E+03 -1.02778E+04  9.42635E+03 -1.09879E+04  1.06388E+04  5.39078E+03
  7.79931E+03  2.74905E+03  6.79997E+02  6.98332E+03 -8.13693E+03  5.94411E+03 -6.06472E+03  2.43413E+03
  9.17155E+02 -3.39083E+03  1.12164E+02 -6.49818E+03  4.36170E+02  3.43444E+02  1.00843E+03  5.27484E+01
  5.58633E+03  6.99305E+02 -1.25988E+03 -2.04861E+03 -4.89560E+02  2.90531E+03 -1.38329E+02 -4.68279E+03
 -4.86066E+03 -2.83819E+03  4.86499E+03  5.90220E+03  6.28968E+03  9.93141E+03 -5.34682E+02  5.93884E+03
 -9.00643E+03  8.52446E+03 -5.79642E+03 -1.27938E+03 -4.46563E+03 -4.38286E+03 -3.01991E+03 -6.34725E+03
 -1.56951E+03 -2.52285E+03  2.79208E+03 -3.22285E+03  1.14793E+03  7.07558E+02 -1.65072E+03 -4.70351E+02
 -5.43391E+03  4.33744E+03 -1.12854E+03 -2.93305E+03 -4.49736E+03 -5.57450E+03 -6.51675E+02 -9.62213E+03
  3.08572E+03 -4.10419E+03 -9.57701E+02 -3.65492E+03  2.18678E+03 -1.86903E+02 -9.57695E+02  6.28967E+03
 -1.46014E+03  6.86538E+01  2.16545E+03  1.31776E+02  5.44885E+03  5.60654E+02  3.23195E+03 -4.46896E+03
  7.08159E+03  1.42886E+03  7.84925E+03  4.70794E+03  5.23849E+03  1.18717E+04  3.11997E+02  8.80275E+03
 -6.92851E+03 -8.72849E+01 -8.15261E+03 -3.06095E+03 -8.81220E+03 -7.91105E+03  1.31085E+03 -3.37166E+03
  4.16674E+03 -2.68799E+03  6.01662E+03  7.28616E+03  1.35127E+03  3.96975E+03 -9.02260E+01  1.93971E+03
 -7.99424E+03 -1.31757E+03  1.14266E+03 -3.81904E+03 -1.34339E+03  1.25201E+03  1.74592E+03 -3.42356E+03
 -5.13564E+03  7.92433E+03 -9.28663E+03  3.21474E+03 -6.16065E+03  2.75765E+03 -4.89953E+03 -8.38487E+02
 -1.00444E+04 -8.91503E+03  3.51025E+03 -8.64348E+03  4.19808E+03 -4.80513E+03  8.48314E+03 -1.96125E+03
  1.19564E+04  3.46197E+03  7.90051E+03  9.91947E+03 -2.60118E+03  6.07211E+03 -4.58765E+03  7.67012E+03
 -5.44932E+03  5.24970E+03 -3.21455E+03 -1.80795E+03  2.25158E+03 -1.67387E+03  6.00180E+02 -4.68055E+03
 -6.36506E+03  3.33606E+03 -2.46777E+03  1.04901E+03  4.33612E+03 -8.54869E+03 -1.80376E+02 -1.73224E+03
  3.94294E+03  5.49078E+03 -1.42913E+03 -3.14297E+03  8.31435E+03  6.49596E+03  2.32032E+03  1.21966E+04
 -1.44067E+03  1.24634E+04 -7.99933E+03  4.58607E+03 -5.05238E+03 -3.33209E+01 -6.72168E+03 -3.29941E+03
 -2.24505E+03 -5.92666E+03  3.20903E+02 -9.22244E+03  3.84231E+03 -4.03352E+03  4.25648E+03  3.10262E+03
  4.21389E+03  1.82317E+03 -1.00974E+02 -6.60188E+03  5.00281E+03  3.10246E+03  2.37255E+03 -2.53237E+02
 -1.44777E+03 -4.85915E+03 -2.38072E+03  1.28931E+03  3.85658E+03 -3.93533E+03 -2.89429E+02  2.33566E+02
  5.51545E+03  2.35329E+03 -5.91005E+03 -9.88000E+02 -6.04797E+03 -4.63203E+03 -6.49025E+03 -8.06919E+03
  2.48326E+03 -1.57535E+03  5.33583E+03  3.25100E+02  2.58121E+03 -5.35661E+03  2.72846E+03  9.66643E+03
  9.26349E+02  5.20957E+03 -5.42971E+03  3.43315E+03 -3.04832E+03  2.66723E+02 -2.31527E+02  2.81475E+03
  1.25758E+02  3.05345E+03  2.53540E+03 -1.58940E+03 -2.98978E+03 -1.29003E+03 -6.58338E+03 -9.31903E+02
 -3.85897E+03 -4.12045E+03  1.76970E+03 -4.34562E+03 -2.30049E+03 -9.40089E+03  5.67498E+03  4.46701E+03
  2.60381E+03  1.49240E+03  3.20644E+03  6.91784E+03 -2.67801E+03  3.08401E+03 -5.22842E+03  3.80623E+03
