 $NMID ID='MM_0lb_SNR50_9hz_g50_53.RAW', FMTDAT='(8E13.5)'
 TRAMP=1., VOLUME=1. $END
  3.06659E+05  1.34373E+03  3.39675E+05  2.46346E+05  8.72810E+04  3.35324E+05 -1.33941E+05  2.55910E+05
 -1.93066E+05  8.20390E+04 -1.10837E+05 -2.90948E+04  5.31542E+03 -4.67484E+04  5.51509E+04  1.30329E+03
  4.73721E+04  5.18023E+04 -1.67386E+04  7.41209E+04 -6.47962E+04  6.46970E+04 -9.36106E+04  3.40093E+04
 -8.68193E+04 -6.49449E+03 -5.90302E+04 -5.30742E+04 -1.53815E+04 -6.80282E+04  2.65515E+04 -4.60927E+04
  3.63148E+04  4.76375E+03  1.60881E+04  5.18639E+04 -3.47834E+04  4.65080E+04 -7.47788E+04  1.44846E+02
 -5.46884E+04 -5.93976E+04 -1.07319E+04 -8.25782E+04  3.25559E+04 -5.16375E+04  5.01611E+04 -1.20974E+04
  4.70870E+04  8.44788E+03  3.20142E+04  2.78930E+04  9.86485E+03  2.69008E+04 -5.34034E+03  2.12799E+04
 -2.39191E+04  1.64188E+04 -1.42778E+04 -4.05588E+03  8.21372E+03 -1.98007E+03  2.08033E+04  8.73296E+03
  7.54380E+03  3.84845E+04 -3.36490E+04  3.33277E+04 -6.51551E+04 -8.43388E+02 -5.77822E+04 -4.05466E+04
 -1.37731E+04 -6.32292E+04  4.22239E+04 -4.24940E+04  6.50374E+04 -3.06534E+03  4.14665E+04  3.22946E+04
 -4.88606E+03  3.74277E+04 -2.78415E+04  1.40136E+04 -2.96004E+04 -3.34746E+03 -1.79428E+04 -1.04298E+04
 -1.76900E+04 -1.28067E+04  5.32012E+03 -1.76629E+04  1.01144E+04 -1.73074E+04  1.74790E+04 -9.72457E+03
  1.19202E+04  1.10061E+04 -9.22718E+03  9.33424E+03 -2.27266E+04 -6.68615E+03 -1.02240E+04 -4.05580E+04
  1.96759E+04 -4.94249E+04  5.17174E+04 -2.45893E+04  5.02984E+04  1.89407E+04  1.52935E+04  4.78566E+04
 -1.57578E+04  3.55708E+04 -2.65259E+04  1.64738E+03 -1.19164E+04 -3.14438E+04  2.07920E+04 -3.65136E+04
  4.69748E+04 -5.74261E+03  4.42975E+04  2.60154E+04  2.20511E+04  5.02200E+04 -3.93529E+03  6.03934E+04
 -2.95800E+04  3.71380E+04 -5.27438E+04  1.09110E+04 -5.01126E+04 -1.92067E+04 -2.44025E+04 -4.69856E+04
  4.76954E+03 -4.33128E+04  3.25331E+04 -1.49153E+04  3.19453E+04  1.19040E+04 -7.11376E+02  2.12752E+04
 -1.58707E+04  1.27616E+04 -8.30141E+03 -1.13001E+04  8.84893E+03 -9.76865E+03  1.97657E+04  3.45226E+03
  1.24071E+04  2.16732E+04 -1.62961E+03  2.43675E+04 -2.48268E+04  1.78004E+04 -2.79460E+04  2.72224E+03
 -2.36301E+04 -1.21042E+04 -1.48126E+04 -2.40501E+04  1.46846E+03 -2.82383E+04  2.12485E+04 -1.97348E+04
  3.11406E+04 -1.29110E+04  4.04702E+04  9.62860E+03  2.79749E+04  2.83049E+04  4.62725E+03  3.96346E+04
 -1.85159E+04  3.39189E+04 -3.07651E+04  1.04947E+04 -1.82153E+04 -1.03568E+04 -7.04805E+03 -9.15802E+03
 -3.90528E+03 -6.42825E+02 -1.14217E+04  1.02466E+04 -2.34303E+04  1.08340E+04 -2.20255E+04  2.70457E+03
 -5.60048E+03 -2.38268E+04  1.15322E+04 -2.84039E+04  9.74348E+03 -2.03472E+04  2.24042E+04  6.90453E+03
  2.22385E+04  1.75924E+04 -4.08337E+03  2.06186E+04 -2.18012E+04  8.55362E+03 -2.52496E+04 -5.40517E+03
 -2.17517E+04 -2.15549E+04  8.07397E+02 -2.63054E+04  8.13056E+03 -2.49905E+04  2.02273E+04 -1.10708E+04
  2.47429E+04  3.12110E+03  1.76907E+04  1.43353E+04  6.04411E+03 -2.73985E+03  2.09280E+04 -2.50953E+03
  2.19956E+04 -1.40998E+03  2.29523E+04  1.52442E+04  2.22473E+04  3.81786E+04 -3.61234E+03  3.98840E+04
 -2.21166E+04  4.18003E+04 -4.77789E+04  1.52741E+04 -3.94694E+04 -7.20285E+03 -3.68328E+04 -2.47150E+04
 -1.80704E+04 -3.76160E+04  1.33052E+04 -3.65140E+04  3.03819E+04 -1.26825E+04  2.81266E+04  6.75562E+03
  8.13815E+03  1.57745E+04 -6.21228E+03  1.16270E+04 -2.47813E+04  5.48419E+03 -1.54968E+04 -1.37532E+04
 -9.32335E+03 -1.77763E+04  1.32315E+04 -1.06688E+04  1.15986E+04 -5.72930E+03  2.81942E+03  5.24004E+03
  6.88166E+02 -2.38226E+03 -1.18064E+04 -8.45382E+03  2.85211E+02 -2.07263E+04  1.02984E+04 -2.54159E+04
  2.16855E+04 -1.17590E+04  2.78151E+04  7.83114E+03  2.25154E+04  2.09698E+04  1.09899E+04  3.33120E+04
 -6.23378E+03  2.59532E+04 -2.09293E+04  2.22108E+04 -2.61541E+04  1.14200E+03 -1.50563E+04 -9.75546E+03
 -3.18149E+03 -1.09785E+04  9.78729E+03  2.35369E+02 -4.76251E+03  6.33252E+03 -9.75793E+03  1.07214E+03
 -1.31938E+04 -2.32506E+03 -2.08159E+04 -1.62806E+04 -2.04382E+03 -1.65430E+04  4.44210E+03 -2.23502E+04
  1.11561E+04 -7.32049E+03  1.09972E+03  8.47297E+03 -9.21136E+02  1.03254E+03 -8.85936E+03 -3.45673E+03
 -1.35271E+03 -3.87498E+03  1.69604E+03 -1.01268E+04  4.59057E+03 -1.85595E+04  2.00103E+04 -1.62339E+04
  1.80323E+04  4.07085E+02  2.01596E+04  1.95656E+04  5.15573E+03  1.71812E+04 -6.96808E+03  2.22765E+04
 -1.14963E+04  6.81943E+03 -6.39733E+03 -7.35753E+03 -1.05837E+03 -8.69986E+03  1.04908E+04  1.61710E+03
  8.36879E+03  5.22208E+03  5.92846E+02  1.16426E+04 -6.99088E+03  1.40755E+04 -1.50292E+04  2.31948E+03
 -1.13001E+04 -2.84305E+03  1.37611E+03 -1.22748E+04  5.80183E+03 -4.52785E+03  7.90840E+03  8.59445E+02
  1.98155E+03  6.33776E+03 -9.01266E+03  1.37873E+04 -1.31729E+04  4.43585E+03 -8.41010E+03 -1.09503E+04
 -9.34240E+03 -1.39959E+04 -7.63032E+02 -2.00562E+04  1.31794E+04 -9.22387E+03  1.92811E+04  2.19842E+03
  7.22409E+03  1.33939E+04  4.86656E+03  2.18424E+04 -1.19091E+04  1.05416E+04 -1.51865E+04 -4.46716E+03
 -1.58983E+04 -6.93055E+03 -5.74303E+03 -1.11624E+04  4.63819E+03 -1.45550E+04  1.11749E+04 -6.64020E+03
  5.87599E+03  1.38119E+03  7.36652E+02  4.25737E+03 -5.64603E+03 -6.04323E+03 -3.83224E+03 -8.11515E+03
  1.06889E+04 -9.34085E+03  1.41303E+04  3.19025E+03  2.13334E+04  9.03178E+03  1.40797E+04  2.27507E+04
 -7.66514E+03  2.31486E+04 -2.06880E+04  1.69151E+04 -2.12133E+04  1.91153E+03 -2.02236E+04 -1.09936E+04
 -1.13333E+04 -1.73859E+04 -7.97242E+03 -1.51410E+04  1.78151E+03 -8.94607E+03  1.34249E+04 -8.99756E+03
  3.21053E+03 -7.29170E+02  4.56155E+03 -6.49587E+03  2.59144E+03  1.41109E+03  5.53939E+03 -4.79811E+03
  7.40652E+03  8.00738E+03  6.11994E+03  4.34824E+03 -1.64029E+03  1.30340E+04 -1.32252E+04  8.68411E+03
 -1.42610E+04  3.55851E+03 -8.46604E+03 -7.81242E+03 -5.02865E+03 -1.63267E+04  9.99786E+03 -1.48637E+04
  2.32155E+04 -6.95367E+03  1.61871E+04 -5.13444E+03  1.66217E+04  1.86124E+04  4.85778E+03  1.72716E+04
 -4.75664E+03  1.91225E+04 -1.19326E+04  1.13135E+03 -1.10747E+04 -1.16045E+03 -8.61812E+02 -1.08025E+04
  9.90764E+02 -4.63845E+03 -6.35046E+03  5.26737E+03 -2.15357E+03  2.55631E+02 -8.65545E+03  9.27181E+02
 -7.99296E+03 -1.08668E+04 -3.97852E+03 -1.12221E+04  1.31824E+04 -1.27521E+04  1.38323E+04  1.31466E+02
  8.61402E+03  9.90394E+03  5.29158E+03  1.83472E+04 -6.21502E+03  1.13141E+04 -1.26599E+04  1.06253E+04
 -1.56185E+04 -1.58574E+02 -1.84639E+04 -9.73768E+03  3.42736E+03 -2.02148E+04  4.36246E+03 -8.45518E+03
  9.74817E+03 -5.04194E+03  7.81310E+03  4.08144E+02  2.73739E+03  3.68020E+03  1.62441E+03  6.47828E+03
 -4.79420E+02  3.51191E+03  7.47235E+03 -1.04202E+03  7.49875E+02 -2.66977E+02  6.44493E+03  7.67591E+03
 -2.98321E+03  1.62321E+04 -1.52449E+04  1.33215E+04 -1.43214E+04  8.52185E+02 -1.86094E+04 -6.73622E+03
 -9.00065E+03 -1.35164E+04  3.42304E+03 -1.98493E+04  1.38079E+04 -1.32503E+04  1.17606E+04 -6.30183E+03
  5.63370E+03  1.28958E+03 -2.73773E+03  1.00885E+04 -8.06931E+03  8.00300E+03 -1.10470E+04 -3.07111E+03
 -8.55438E+03 -1.17832E+04  6.85898E+03 -7.39344E+03  5.21446E+03  2.26634E+03  7.19112E+03  4.16293E+03
  4.50771E+03  2.12420E+02  1.38140E+04  2.75222E+03  9.92173E+01  4.69492E+03  5.53206E+02 -6.29265E+03
  1.39951E+03  5.77108E+02  9.45018E+03 -2.02465E+03  7.94585E+03  1.26045E+04  2.04670E+03  7.72290E+03
 -9.09467E+03  4.24920E+03 -3.83908E+03  1.60342E+03 -1.15869E+04 -3.33917E+03 -4.02758E+02 -1.01443E+04
 -3.40369E+03 -6.31316E+03  6.67457E+03 -7.00018E+03  3.71621E+03  4.60343E+03  8.53716E+02  3.04639E+03
  2.53558E+03  4.26372E+03 -2.94926E+03 -5.67440E+03 -2.23727E+03  1.12555E+03  7.95201E+02 -1.04941E+04
  1.69645E+03 -6.10768E+03  4.35820E+03 -6.04926E+03  1.06161E+04 -2.56312E+02 -3.51987E+03  4.67706E+03
 -4.71607E+03 -3.68350E+02 -4.47072E+03 -5.03818E+03  6.49956E+03 -6.64020E+03  9.29585E+03 -6.07530E+03
  3.30144E+03 -1.61367E+03  1.17769E+04 -2.55836E+03 -1.44170E+03  9.67428E+03 -1.59422E+03  1.47541E+04
 -1.81727E+03  7.38239E+03 -8.95972E+03  6.00666E+03  2.89472E+03 -7.50630E+03 -4.96831E+03  2.17370E+03
  8.59709E+03  3.79071E+03 -1.16415E+02 -1.05481E+03 -9.68290E+02  1.04709E+04  3.24265E+03  1.92825E+03
 -4.82949E+03 -9.79413E+02 -1.18021E+04 -2.50125E+03  4.19777E+03  4.38510E+03 -3.96643E+03 -2.88706E+03
  3.86062E+03  1.62967E+03 -1.01513E+04  2.11697E+03 -1.08631E+04  1.21529E+02 -1.09851E+04 -1.23014E+04
 -1.36760E+04 -1.94630E+04  3.88511E+03 -1.02380E+04  9.56014E+03 -1.14378E+04  1.50149E+04 -1.19185E+04
  1.29965E+04  7.37196E+03  1.44294E+04  9.69891E+03 -5.11877E+03  1.09204E+04 -3.28476E+03  9.05094E+03
 -2.05269E+03  4.88601E+03 -2.05621E+03 -4.86432E+02 -3.98388E+03 -4.45039E+02  4.14038E+02 -2.81357E+03
 -1.62854E+03 -1.65191E+03  2.52333E+02  5.82002E+03 -1.60577E+03 -4.99619E+02 -5.05237E+03 -9.92723E+03
  8.31096E+03 -1.46357E+03  7.15306E+03 -2.83180E+02  1.27577E+04  5.37135E+03  2.23244E+03  1.09321E+04
 -6.31563E+03  1.09678E+04 -1.25927E+04  7.71918E+03 -7.73652E+03 -7.72854E+02 -6.61666E+03 -7.07641E+03
 -6.17570E+03 -1.56271E+04  4.51969E+03 -1.38619E+04  7.48905E+03 -1.77895E+03 -5.78559E+02  1.68203E+03
  3.47257E+03  6.98439E+03 -2.17038E+03  2.72127E+03 -2.17137E+03 -3.05447E+02 -6.10945E+03 -7.00498E+03
  5.65616E+03  1.33436E+03  2.94686E+03 -2.80288E+03 -5.43182E+02  7.13850E+03  7.05930E+02  5.17383E+03
 -3.84376E+03  6.43462E+03 -7.28037E+03  6.09835E+02 -7.49861E+03 -5.59198E+03 -4.25077E+03 -1.14648E+04
  8.64359E+03 -5.20816E+03  8.53267E+03 -1.67249E+03  4.63840E+03 -1.50364E+03  2.56435E+03  8.84412E+03
  4.33806E+03  6.43535E+03 -3.86111E+03  7.36757E+03 -5.26157E+03  2.68330E+03 -8.66344E+02  8.36634E+02
 -1.29123E+03 -7.06910E+03  3.44029E+03  8.36071E+03 -5.53741E+03  4.44322E+02 -8.56379E+03 -5.18237E+03
 -6.37414E+03 -2.34552E+03 -2.46083E+03 -3.43691E+03  3.95812E+03 -3.48200E+03  7.81001E+03 -5.93103E+02
  1.33417E+04  6.32205E+03  1.83926E+03  3.94632E+03  3.14279E+03 -2.72308E+03 -6.69555E+03  2.67806E+03
