 $NMID ID='MM_0lb_SNR50_10hz_g60_61.RAW', FMTDAT='(8E13.5)'
 TRAMP=1., VOLUME=1. $END
  3.10365E+05  1.92676E+03  3.36001E+05  2.52152E+05  8.38800E+04  3.40441E+05 -1.39509E+05  2.42248E+05
 -1.95842E+05  9.07920E+04 -1.08224E+05 -3.05848E+04 -8.66686E+02 -5.40134E+04  5.41575E+04 -8.06620E+03
  3.86422E+04  5.31125E+04 -1.60986E+04  7.62454E+04 -5.75328E+04  6.43629E+04 -8.19256E+04  3.71149E+04
 -7.79513E+04 -6.41869E+03 -5.04568E+04 -5.42184E+04 -1.23909E+04 -7.24019E+04  3.25836E+04 -4.54543E+04
  3.43907E+04  7.33969E+03  1.47411E+04  4.78741E+04 -3.56887E+04  4.45694E+04 -6.11322E+04  3.85171E+03
 -5.53031E+04 -5.81125E+04 -1.36620E+04 -8.28012E+04  3.17431E+04 -5.84693E+04  4.10403E+04 -1.81952E+04
  4.76952E+04  1.18996E+04  3.49145E+04  3.17999E+04  1.58376E+04  2.89324E+04 -4.51499E+03  3.23712E+04
 -2.38016E+04  1.27386E+04 -1.77898E+04 -3.89184E+02  8.08157E+03 -1.14759E+04  2.65584E+04  9.17038E+03
  1.05052E+04  3.59163E+04 -2.66002E+04  2.90507E+04 -6.60628E+04  1.14669E+03 -5.20653E+04 -4.52569E+04
 -1.01897E+04 -6.36503E+04  4.11798E+04 -5.09399E+04  6.19773E+04 -4.17036E+03  3.98820E+04  3.65382E+04
 -7.55067E+03  4.32620E+04 -3.36254E+04  1.70294E+04 -3.63665E+04  2.69096E+03 -1.64160E+04 -8.67219E+03
 -1.23688E+04 -1.41654E+04  5.73268E+02 -1.42088E+04  1.72593E+03 -2.47760E+04  1.71684E+04 -1.23527E+04
  1.22627E+04  1.11876E+04 -1.25867E+04  1.56712E+04 -2.36722E+04 -5.96446E+02 -7.46468E+03 -3.75658E+04
  2.96030E+04 -5.38066E+04  5.55784E+04 -2.19147E+04  4.37106E+04  1.77652E+04  1.79449E+04  4.38826E+04
 -1.62653E+04  4.07156E+04 -2.91486E+04  9.82715E+02 -1.73953E+04 -2.70354E+04  2.06273E+04 -3.44165E+04
  4.33215E+04 -1.65997E+04  4.13508E+04  2.59850E+04  2.36064E+04  4.45918E+04 -6.95791E+03  5.66222E+04
 -3.40863E+04  3.68025E+04 -5.26175E+04  1.00589E+04 -5.35850E+04 -1.88360E+04 -2.50753E+04 -4.91149E+04
  1.25171E+04 -4.37570E+04  4.41915E+04 -1.94326E+04  3.50734E+04  9.56688E+03  3.15429E+03  2.46115E+04
 -1.38633E+04  9.04171E+03 -9.61008E+03 -8.26784E+03  3.04478E+03 -1.31379E+04  2.20764E+04  1.05169E+04
  1.12238E+04  2.20955E+04 -7.99904E+03  3.08879E+04 -2.69754E+04  9.15831E+03 -2.94486E+04 -2.79333E+03
 -2.31269E+04 -1.80308E+04 -9.65473E+03 -2.58242E+04  1.09184E+03 -2.84570E+04  1.55631E+04 -1.99538E+04
  3.07636E+04 -1.55084E+04  3.84554E+04  8.05241E+03  2.46493E+04  2.49028E+04  7.09331E+03  4.52074E+04
 -2.09825E+04  3.44776E+04 -3.23717E+04  1.46529E+04 -2.41928E+04 -1.43298E+04 -2.80533E+03 -6.50159E+03
  2.83777E+03 -6.29950E+03 -4.42193E+03  5.50746E+03 -1.78494E+04  4.86215E+03 -1.81744E+04 -1.00483E+04
 -1.00305E+04 -1.92623E+04  7.32660E+03 -2.80077E+04  1.87021E+04 -2.12845E+04  3.06368E+04 -2.86829E+03
  8.83018E+03  1.76784E+04 -7.26278E+03  1.92312E+04 -1.50706E+04  9.37649E+03 -2.06467E+04 -3.16529E+03
 -1.93675E+04 -1.81380E+04  4.52356E+03 -2.18634E+04  9.73303E+03 -1.88517E+04  2.49660E+04 -1.07198E+04
  2.03607E+04 -1.15853E+03  1.86625E+04  5.03036E+03  6.61768E+03  8.02275E+02  1.09855E+04 -8.15293E+02
  2.33324E+04 -1.90739E+03  2.59800E+04  2.03026E+04  1.61376E+04  3.79664E+04 -7.45607E+02  3.68920E+04
 -2.44081E+04  4.00612E+04 -4.06452E+04  2.09027E+04 -3.81169E+04 -3.48434E+02 -3.93455E+04 -3.19781E+04
 -1.80385E+04 -3.29648E+04  1.21640E+04 -3.24435E+04  3.03924E+04 -8.03787E+03  1.91115E+04  3.19320E+03
  1.17518E+04  2.15593E+04 -1.37186E+04  1.77073E+04 -2.17361E+04  4.58245E+03 -8.39943E+03 -8.11588E+03
  2.30142E+03 -2.06064E+04  1.45752E+04 -1.27497E+04  1.83385E+04 -1.86757E+03 -2.49796E+03  8.35079E+03
 -3.71977E+03  6.71793E+03 -1.34232E+04 -6.19485E+03  3.09219E+03 -1.75573E+04  8.15267E+03 -2.05624E+04
  1.40512E+04 -1.08944E+04  2.54050E+04 -3.67185E+03  2.01838E+04  1.54895E+04  1.13750E+04  2.68060E+04
 -6.14253E+03  3.33486E+04 -2.35631E+04  2.10027E+04 -3.15849E+04  1.30353E+03 -2.00896E+04 -1.35910E+04
 -7.78462E+03 -1.26966E+04 -1.64983E+03  1.16290E+03 -8.66919E+02  2.22266E+03 -9.46512E+03  3.47273E+03
 -1.67045E+04  3.03628E+03 -1.65695E+04 -8.27319E+03 -7.12203E+03 -1.33059E+04  2.17697E+03 -1.86794E+04
  1.35177E+04 -1.19690E+04  9.05863E+03  2.79826E+03  4.27254E+02  1.03884E+04 -1.00126E+04  8.85887E+02
 -8.43006E+03 -1.24910E+04 -3.72576E+03 -1.33654E+04  1.24557E+04 -1.32201E+04  2.40398E+04 -9.24383E+03
  2.45020E+04  1.23523E+03  1.70522E+04  1.45373E+04  3.78695E+01  1.64854E+04 -1.40249E+04  1.86937E+04
 -1.28504E+04  6.02132E+03 -7.19867E+03 -2.10529E+01  3.35473E+03 -6.72260E+03  6.60118E+03 -4.10311E+03
  4.37568E+03  1.01229E+04  7.30117E+03  7.06239E+03 -1.05682E+04  1.04040E+04 -7.23159E+03  1.97831E+03
 -1.38132E+04 -1.79368E+03  4.17029E+03 -9.04528E+03  8.01333E+03 -7.73863E+03  1.05416E+04  3.59492E+03
 -1.16899E+03  9.65435E+03 -4.62424E+03  1.25216E+04 -1.31185E+04  3.42826E+03 -1.66933E+04 -2.91828E+03
 -6.87006E+03 -1.54061E+04  1.96735E+03 -1.79031E+04  8.82454E+03 -9.00963E+03  1.62846E+04  4.93005E+03
  1.17564E+04  1.31720E+04 -1.64421E+03  1.47479E+04 -8.28634E+03  5.60664E+03 -1.70618E+04 -1.89533E+03
 -1.04586E+04 -9.66192E+03  3.29719E+03 -8.14735E+03  1.15568E+04 -1.26420E+04  9.17029E+03 -5.17653E+03
  3.43044E+03 -5.23488E+01  1.47779E+02  6.04065E+03 -2.07971E+03 -3.10182E+03  8.84848E+03 -1.14761E+04
  1.28236E+04 -7.68155E+03  1.87861E+04  3.54926E+03  1.27705E+04  6.11374E+03  8.38903E+03  2.48645E+04
 -8.26713E+03  2.49270E+04 -2.18932E+04  1.84484E+04 -2.40566E+04  6.42249E+03 -2.25273E+04 -7.95243E+03
 -1.15649E+04 -1.54418E+04 -3.77057E+03 -8.64658E+03  8.39739E+03 -1.39626E+04 -4.19594E+02 -4.31272E+03
 -4.33783E+03 -5.21104E+03  5.94468E+03 -9.52787E+03  6.21843E+03 -4.75312E+03  4.65788E+03 -7.44100E+01
  1.11211E+04  6.37962E+03  5.57340E+03  8.33836E+03  7.13377E+02  8.50792E+03 -1.22711E+04  3.32697E+03
 -1.13307E+04 -5.46497E+03 -8.48971E+03 -7.08918E+03  2.88439E+03 -1.75458E+04  2.23055E+03 -2.25375E+04
  1.73324E+04 -1.10676E+03  1.71239E+04  3.68862E+02  1.97956E+04  1.00023E+04 -2.92001E+03  1.86196E+04
 -3.88799E+03  1.30424E+04 -1.75234E+04  1.26761E+03 -2.87630E+03 -1.95336E+02 -8.13113E+03 -2.78922E+03
 -5.76795E+02 -1.10339E+03 -2.28683E+03  2.37315E+03 -5.77134E+03  6.16118E+03 -1.36325E+04 -1.16144E+03
 -7.80743E+03 -1.32346E+04  5.08168E+03 -1.11624E+04  4.30931E+03 -9.98929E+03  1.16862E+04 -4.34444E+03
  1.18217E+04  1.01944E+04  1.56748E+04  1.53416E+04 -5.65185E+03  1.20682E+04 -1.34312E+04  6.97988E+03
 -1.96370E+04 -4.13563E+03 -1.02850E+04 -6.30169E+03  2.32545E+03 -1.26831E+04  8.02880E+03 -1.04297E+04
  7.09039E+02 -6.32705E+03  1.34123E+04 -6.43434E+02 -2.69962E+02 -7.11818E+02  6.72008E+03 -1.41721E+03
 -4.82394E+03 -1.21172E+03  6.02991E+02 -5.11070E+03  1.49110E+03  4.62144E+03  1.72050E+03  7.18278E+03
 -3.62452E+03  6.28429E+03 -5.04071E+03  8.64185E+03 -8.84568E+03  2.92909E+03 -1.76520E+04 -3.99339E+03
  2.31122E+03 -1.22405E+04  3.70009E+03 -1.39797E+04  1.18108E+04 -1.24399E+04  9.29218E+03 -7.21004E+03
  4.90286E+03  4.73840E+03  4.26158E+03  1.17957E+04 -6.44832E+03  3.29631E+03 -5.63532E+03  8.36969E+03
 -2.89756E+03 -6.14961E+03  2.04014E+03 -2.68913E+03  1.13930E+04 -2.81757E+03  9.29373E+03  1.19191E+03
  1.43359E+03  2.12901E+03 -4.16714E+03 -6.67768E+03  3.90291E+03  1.89285E+03  3.75019E+03 -1.00012E+03
  4.61286E+03 -1.54042E+03  8.17840E+03 -3.39362E+03  5.61110E+03  9.54684E+03  7.92542E+03  8.53555E+03
 -5.82383E+03  8.28168E+03 -7.17294E+03 -6.87852E+01 -1.30027E+04 -7.69781E+03 -2.74021E+03 -1.34634E+04
  6.00895E+03 -3.13314E+03  4.05161E+03 -9.63932E+03 -9.43461E+02  4.01703E+03 -2.86097E+03  2.01964E+03
 -3.90411E+03 -1.77033E+03 -8.66194E+03 -2.82940E+03 -1.53803E+03 -1.00141E+04  3.94842E+03 -5.48151E+03
  3.97552E+02 -9.28224E+03 -4.30169E+02  5.03390E+03 -1.17487E+03 -7.20391E+02 -1.19647E+03  5.38787E+03
 -2.25828E+03 -2.70771E+02 -8.30624E+03 -5.97452E+02  2.12336E+03 -6.68184E+03  2.26090E+03 -1.67375E+03
  6.62725E+03 -4.38770E+02  1.54505E+04  4.94418E+03 -1.06914E+03  7.79821E+03 -2.45328E+03  1.11735E+04
 -9.06150E+03 -7.72231E+02 -7.43428E+03 -3.97491E+03 -1.00145E+03 -1.05529E+04  9.37741E+03 -7.08700E+03
  1.38131E+04 -6.28749E+03  7.84606E+03 -1.45092E+03  1.79588E+03  4.02016E+03  2.67677E+03  4.32632E+03
  1.27252E+03  2.71487E+03  3.02899E+03  7.30419E+02  3.36361E+03  2.94738E+03 -7.29728E+03  2.35337E+03
 -3.01395E+03  4.00278E+03 -7.49634E+03  6.55094E+02 -6.63944E+03 -2.13271E+02 -1.11868E+04 -3.92621E+03
  1.32624E+03 -9.93571E+03  1.19050E+03 -1.65665E+04  3.53521E+03 -8.19378E+03  1.80814E+04 -4.18318E+03
  1.43144E+04  1.46881E+03  9.36912E+03  1.01540E+04  6.25067E+03  1.11148E+04 -9.23765E+03  2.17167E+03
 -2.29492E+03 -9.75265E+02 -1.07429E+04 -6.19601E+03  2.13620E+03 -2.69700E+03 -2.67046E+03  2.54391E+03
  2.27587E+03  2.12700E+03 -9.36928E+03 -1.33565E+03  4.45153E+03  3.29138E+03 -7.93995E+03 -6.71367E+03
  8.89064E+02 -3.96321E+03  4.23069E+03 -5.60623E+03  3.98319E+03  7.77464E+03 -2.76929E+02  1.37964E+04
 -1.41841E+03  1.34562E+04 -8.51724E+03  8.88905E+03 -9.57979E+03  3.50457E+03 -3.73321E+03 -1.28344E+04
 -2.16604E+03 -1.11982E+04  2.36116E+03 -4.76810E+03  1.19800E+04 -8.01053E+03  2.09059E+03 -3.47985E+03
  1.27138E+03  2.27792E+02  3.77766E+03  5.87908E+03  6.47930E+02  3.04627E+03 -2.48334E+03 -8.12218E+02
  7.40706E+03 -2.62120E+03  8.97100E+03  3.19846E+03  8.72851E+03  3.69032E+02  6.85262E+02  5.48481E+03
 -6.86656E+03  1.11130E+04 -6.11046E+03 -1.95204E+03 -2.55174E+03 -3.21198E+03  1.57393E+03 -6.76530E+03
  3.52332E+03 -7.89174E+03  5.37025E+03 -2.11354E+03  1.06592E+04  5.78667E+02  3.06967E+03  2.04919E+03
  1.10265E+03  1.86840E+03 -4.26440E+03  3.28421E+03 -3.06362E+02 -6.68677E+02 -3.69089E+03 -4.30646E+03
  1.86259E+02  1.51878E+03 -8.27254E+03  1.21349E+03 -7.37684E+03  7.05425E+03  5.50451E+03 -4.41797E+03
 -2.89616E+03 -6.86940E+03 -5.47531E+03 -1.60648E+02  5.40264E+03 -9.14798E+03  8.00598E+03 -1.63291E+03
  8.23685E+03 -8.73371E+02 -7.01105E+02  7.61526E+03  2.27272E+03  8.11176E+03 -5.67068E+03  2.10366E+03
