 $NMID ID='MM_0lb_SNR50_15hz_g60_48.RAW', FMTDAT='(8E13.5)'
 TRAMP=1., VOLUME=1. $END
  3.05257E+05  3.67193E+03  3.38770E+05  2.54058E+05  8.64191E+04  3.41564E+05 -1.29680E+05  2.51833E+05
 -1.93753E+05  8.04237E+04 -1.11207E+05 -3.26060E+04  1.22582E+03 -4.66127E+04  5.50103E+04 -1.03997E+03
  3.30873E+04  5.13060E+04 -1.79913E+04  7.09232E+04 -6.13721E+04  6.17144E+04 -8.44522E+04  3.60602E+04
 -8.79373E+04 -9.06918E+03 -5.44833E+04 -5.54460E+04 -1.09128E+04 -7.07198E+04  2.82724E+04 -4.48778E+04
  4.00166E+04  7.33383E+03  1.61390E+04  4.77353E+04 -3.69172E+04  4.45783E+04 -6.88102E+04  2.25856E+03
 -5.33101E+04 -5.97660E+04 -4.73868E+03 -8.18596E+04  3.45084E+04 -5.16468E+04  4.92666E+04 -2.00976E+04
  4.04495E+04  9.92188E+03  3.27074E+04  3.01279E+04  1.62466E+04  3.03580E+04 -2.23087E+03  3.33847E+04
 -2.16497E+04  1.26224E+04 -1.72659E+04 -3.82441E+03  2.54040E+03 -5.01377E+03  2.10760E+04  1.65169E+04
  9.52682E+03  3.27959E+04 -3.49337E+04  3.31817E+04 -6.31397E+04  4.66499E+03 -5.64626E+04 -3.85495E+04
 -1.13265E+04 -6.15591E+04  3.86988E+04 -4.77973E+04  5.84285E+04  7.04083E+01  3.76553E+04  3.69984E+04
 -3.39899E+03  3.86250E+04 -3.36311E+04  1.97677E+04 -2.77427E+04 -6.50674E+03 -2.12689E+04 -1.07332E+04
 -5.80484E+03 -1.13402E+04 -2.92478E+03 -1.72658E+04  1.16933E+04 -2.50194E+04  1.91629E+04 -1.36323E+04
  1.24314E+04  6.72363E+03 -8.19220E+03  1.82443E+04 -2.10279E+04 -4.55698E+03 -1.01843E+04 -3.72297E+04
  1.89936E+04 -4.59129E+04  5.01772E+04 -2.15203E+04  3.95569E+04  2.19423E+04  1.81975E+04  4.69683E+04
 -1.36248E+04  3.05977E+04 -2.34456E+04  1.08198E+03 -1.49060E+04 -2.62466E+04  2.25622E+04 -3.74530E+04
  4.27963E+04 -1.04168E+04  3.87870E+04  2.59255E+04  1.60830E+04  4.81254E+04 -5.90688E+03  4.91025E+04
 -3.17365E+04  3.20496E+04 -4.42475E+04  1.45626E+04 -4.23014E+04 -1.76920E+04 -2.18555E+04 -4.18370E+04
  7.15861E+03 -4.20967E+04  2.96321E+04 -7.75827E+03  2.81325E+04  1.07618E+04  1.05439E+04  1.77818E+04
 -8.15266E+03  7.12850E+03 -1.40508E+04 -6.66232E+03  9.51811E+03 -1.14460E+04  1.64687E+04  6.19063E+03
  1.10712E+04  2.45293E+04 -8.93187E+03  2.19849E+04 -2.28286E+04  1.27377E+04 -2.13915E+04 -1.41480E+03
 -2.30698E+04 -1.46479E+04 -3.69507E+03 -2.15691E+04  5.78788E+03 -2.04365E+04  1.54662E+04 -1.73986E+04
  2.79897E+04 -1.80734E+04  3.49177E+04 -5.85544E+02  3.05088E+04  2.24878E+04  5.81662E+03  3.25519E+04
 -1.54133E+04  2.37149E+04 -2.95940E+04  1.19167E+04 -2.11438E+04 -8.31566E+03 -4.88069E+03 -9.30794E+03
  3.16269E+03  7.48006E+02 -7.18063E+03  2.53930E+03 -1.55998E+04  2.99939E+03 -1.65408E+04 -7.21972E+03
 -1.47327E+04 -1.85072E+04  4.86629E+03 -2.30629E+04  1.56426E+04 -1.71960E+04  2.32052E+04  2.79147E+02
  1.41018E+04  9.25875E+03  1.92159E+03  1.74662E+04 -1.56567E+04  1.57776E+04 -1.92751E+04 -5.15508E+03
 -1.48554E+04 -1.97977E+04 -3.58119E+03 -2.42726E+04  1.18518E+04 -2.03902E+04  2.37790E+04 -1.31784E+04
  2.31330E+04 -1.95564E+03  1.13638E+04  4.50551E+03  9.09171E+03 -4.02047E+03  1.20975E+04 -6.14791E+03
  1.79848E+04  8.24889E+03  1.81367E+04  1.33303E+04  1.21421E+04  3.07612E+04 -3.77788E+02  3.70550E+04
 -1.98765E+04  2.96824E+04 -3.47788E+04  1.97527E+04 -3.68198E+04 -1.58241E+03 -2.57751E+04 -1.53528E+04
 -1.17447E+04 -2.74399E+04  4.13162E+03 -3.00463E+04  2.19274E+04 -1.69986E+04  1.87435E+04  4.78396E+03
  2.82460E+03  1.44231E+04 -8.96191E+03  1.30766E+04 -1.78320E+04  2.50574E+03 -1.69280E+04 -8.23487E+03
  9.94274E+02 -1.40151E+04  1.11071E+04 -8.57698E+03  1.22983E+04 -6.36202E+02  3.09484E+03  6.54369E+03
 -3.40128E+03  2.40800E+03 -6.92897E+03 -1.22820E+04 -6.22262E+02 -1.54851E+04  1.03015E+04 -1.29237E+04
  1.61043E+04 -9.94442E+03  1.36222E+04  1.92063E+03  2.07758E+04  1.58613E+04  8.11598E+03  2.59458E+04
 -7.11576E+03  2.35378E+04 -1.48563E+04  1.51025E+04 -1.46498E+04  4.44399E+03 -1.66249E+04 -1.77278E+03
 -7.28899E+03 -7.68121E+02 -1.77284E+03  1.45903E+03 -2.11957E+03  5.49178E+02 -5.98715E+03  4.30105E+03
 -8.59864E+03  3.81356E+02 -7.68736E+03 -8.32000E+03 -7.25385E+03 -1.45081E+04  7.95997E+03 -1.07641E+04
  9.42144E+03 -1.02020E+04  1.12690E+04  2.50669E+03  9.84603E+02  1.89457E+03 -1.02882E+04  8.14476E+01
 -2.78653E+03 -9.23200E+03  2.77486E+02 -1.13459E+04  1.01387E+04 -5.21826E+03  1.27470E+04 -8.11773E+02
  1.44217E+04  3.67182E+03  1.47143E+04  8.65271E+03  7.93339E+02  1.39512E+04 -4.22534E+03  8.13704E+03
 -1.02558E+04  3.21181E+03 -5.08119E+03 -1.27521E+03  1.60042E+03 -3.56827E+03  2.48374E+03  3.94985E+02
  1.07105E+03  1.32522E+04 -2.64600E+03  5.82211E+03 -7.83505E+03  9.36356E+03 -1.17059E+04  8.17923E+03
 -6.84238E+03 -4.09917E+03  3.13276E+03 -9.15582E+03  6.54621E+03 -1.71486E+03  5.38806E+03  8.25399E+03
  6.38485E+03  6.61783E+03 -1.02661E+04  4.55953E+03 -1.03461E+04  3.69198E+03 -9.27570E+03 -6.34614E+03
 -4.58011E+03 -9.26111E+03  5.57908E+03 -1.23661E+04  1.13380E+04 -9.52826E+03  1.04534E+04  4.94585E+03
  4.17063E+03  7.98077E+03 -9.38850E+01  1.07132E+04 -3.91294E+03  7.40887E+03 -8.10232E+03 -4.13915E+03
 -9.31120E+03 -6.40759E+03 -4.34217E+03 -1.14958E+04 -7.25402E+02 -6.10128E+03  2.59103E+03 -3.98087E+03
  3.85138E+03 -3.53031E+02 -5.39257E+03  3.44086E+03 -2.55583E+03 -2.86743E+03 -1.41891E+03 -2.51496E+02
  4.92952E+03  4.42638E+03  1.25770E+04  1.06527E+03  8.62065E+03  3.10737E+03  7.61882E+03  9.33003E+03
 -8.27972E+02  1.34550E+04 -1.36217E+04  1.27948E+04 -1.36301E+04  3.30825E+03 -1.03350E+04 -9.96178E+02
 -9.03407E+03 -9.78488E+03  1.21805E+03 -5.29092E+03  5.30092E+03 -4.73564E+03  2.06422E+03 -8.36510E+02
 -3.43739E+03 -7.11007E+03  4.28879E+03 -7.64184E+03  2.98103E+03 -5.70239E+03  2.90907E+03 -1.73995E+03
  6.49922E+03  1.92871E+03 -4.48836E+01  3.93716E+03 -4.89373E+03  9.71452E+03 -4.82190E+03  5.55214E+02
 -5.30250E+03 -4.88599E+03 -2.20687E+03 -8.75638E+03 -1.74662E+03 -6.83184E+03  2.48271E+03 -1.07042E+04
  8.30074E+03 -5.09519E+03  1.03025E+04  5.04433E+03  5.90558E+03  8.45677E+03 -2.95373E+03  9.92282E+03
 -8.21924E+03  3.86011E+03 -9.62514E+03  6.61687E+03 -5.28679E+03 -6.29798E+03  1.46491E+03 -4.10885E+03
 -1.94597E+03 -2.14825E+03 -7.04078E+03  2.32091E+03 -3.75295E+03 -3.10556E+03 -7.64248E+03 -2.96353E+03
 -6.54446E+02 -8.97731E+03 -3.35915E+02 -6.63378E+03  4.87257E+03 -7.38587E+03  1.27166E+04 -4.50152E+03
  1.04232E+04  2.70615E+03  1.61811E+03  2.64199E+03 -6.29582E+02  8.41979E+03 -8.11407E+02  1.20198E+03
 -8.70603E+03 -5.08735E+02 -4.18943E+03 -7.82775E+03  6.99095E+02 -2.51029E+03  4.81876E+03 -2.06773E+03
  5.24922E+03 -6.60862E+03  3.56710E+03 -3.89477E+03  4.34362E+03  3.35273E+02  2.09523E+03  1.72336E+03
  4.45822E+03 -1.17649E+03  3.94854E+02  3.66918E+03  5.28687E+02 -3.29704E+02  2.83457E+03  2.66072E+03
 -1.88863E+03  6.12900E+03 -4.34928E+03  8.63712E+03 -5.41774E+03  4.94639E+03 -1.01807E+04 -2.03436E+03
 -4.80337E+03 -5.78592E+03 -1.14916E+03 -9.16420E+03 -9.42879E+02 -1.42003E+03  3.14578E+03 -4.50689E+02
  2.68303E+03  4.45676E+03  1.53699E+03  3.18817E+03 -4.09082E+03  6.32509E+03 -1.79830E+03  3.15465E+03
 -3.13519E+03 -1.50741E+03  4.01693E+03 -2.14762E+03  7.01262E+03 -1.00035E+04  5.20576E+03  3.73052E+03
  3.74469E+03 -2.17561E+03  1.50135E+03 -2.14948E+03  4.92105E+03  8.57268E+02  8.99262E+03 -4.41941E+03
  4.03712E+03 -1.80729E+03  4.15554E+03 -1.12344E+03  9.50359E+02  2.75400E+03 -5.44334E+03  3.01561E+02
 -4.18255E+03  4.23877E+03  3.67741E+03  6.75059E+03 -6.65754E+03  2.26800E+03 -4.04336E+03 -8.66866E+02
 -8.61958E+02 -2.28831E+03  1.86067E+03 -6.20654E+02 -2.08358E+03  1.50332E+03 -7.64689E+02 -1.26220E+03
 -3.91332E+03  7.09012E+03 -2.97521E+03 -3.12906E+03 -6.24880E+02 -6.96940E+03  3.33749E+03 -6.95399E+03
  7.00892E+03 -3.90843E+03  2.44165E+03 -1.90346E+02  3.23861E+03  3.39539E+02  2.18194E+03  6.86175E+03
 -2.18335E+03  3.10500E+03 -1.57241E+03 -2.13543E+03 -1.65925E+03 -9.55282E+03  2.19167E+03 -3.14005E+03
  1.01041E+04  1.19854E+03  5.75387E+03  2.02895E+03  8.91769E+03  5.18689E+03 -9.94778E+02  2.89420E+02
  7.63647E+02  5.74703E+02 -1.63954E+03 -1.68156E+03 -3.46733E+03  1.25515E+03  1.66381E+03 -6.05354E+02
 -1.08328E+03 -2.15853E+03  2.35997E+03  9.76231E+02  1.12225E+02  4.67644E+02 -2.26674E+03  2.13651E+03
  1.35571E+03  4.10375E+03  5.07613E+02 -1.46336E+03 -7.52508E+02 -4.73544E+02 -1.51154E+03 -1.29693E+03
  2.30686E+02  2.07688E+03 -5.73441E+03 -1.73202E+03 -4.12146E+03 -4.41462E+03 -1.82300E+03  9.74663E+02
 -3.45790E+03 -1.53296E+03  2.13586E+03 -3.81134E+03 -3.16531E+02 -2.75973E+03  1.04755E+04  1.43020E+03
  2.03336E+03  4.29190E+03  2.66940E+03  1.05316E+04 -2.96465E+03  3.25321E+03 -4.36818E+03  5.53555E+03
  1.66788E+02  2.05846E+03 -2.11572E+03  4.94600E+02 -5.03507E+03 -9.59905E+02  4.81066E+03 -4.24954E+03
 -2.73289E+03 -2.54061E+03 -4.76095E+03 -1.27447E+03  4.85337E+03  3.01248E+02  1.93373E+03  4.16080E+02
  7.54757E+03  1.00407E+03  2.10864E+03  3.01595E+03  4.55675E+03 -1.03111E+03 -4.55620E+03  4.98263E+02
 -3.72168E+03  9.54214E+03 -3.22691E+03 -7.03101E+02 -4.96272E+03 -5.16682E+02 -1.54150E+03 -9.16200E+02
  1.09442E+02 -3.20687E+03  2.42658E+03 -3.94401E+03  2.27382E+03 -2.93370E+03  2.75195E+03 -4.31088E+03
  9.60642E+02 -6.71491E+02  1.10357E+03 -1.82075E+03 -1.24772E+03  5.22660E+02 -3.22483E+03 -1.85097E+03
  4.48124E+02 -9.33841E+02 -1.05989E+03 -2.16841E+03  2.46326E+03 -5.24038E+01 -3.99344E+03 -1.31873E+03
 -4.00917E+03  1.66671E+02 -1.30192E+03  5.79371E+02 -1.68634E+02  1.99028E+03  1.45504E+03 -4.87398E+03
  5.26417E+02 -6.34059E+03  2.62759E+03 -2.52642E+03  1.38164E+03  4.01401E+02  6.37342E+03  1.26149E+03
  3.86737E+03  4.70525E+03 -1.93193E+03  4.26807E+01 -2.59892E+03  1.80024E+03 -6.87860E+02 -4.58798E+03
  1.13570E+03  4.13697E+03 -4.06357E+02  2.56983E+03 -2.02254E+03 -9.24126E+02 -3.29351E+03 -2.78790E+03
  1.31556E+03 -9.79650E+02 -1.37273E+03 -6.15254E+03  2.06195E+03 -4.65935E+03  2.59222E+03 -2.64611E+02
 -4.20745E+03 -1.76053E+03  4.18688E+03  6.44991E+01 -3.36525E+03  1.62522E+03  3.54466E+02  6.79293E+02
