 $NMID ID='MM_0lb_SNR50_16hz_g60_18.RAW', FMTDAT='(8E13.5)'
 TRAMP=1., VOLUME=1. $END
  3.10152E+05  6.56812E+03  3.34604E+05  2.52075E+05  9.07993E+04  3.39631E+05 -1.30526E+05  2.49474E+05
 -1.90454E+05  8.57959E+04 -1.12695E+05 -3.18452E+04  3.46354E+03 -5.31746E+04  5.67088E+04  6.19749E+03
  3.02711E+04  5.41326E+04 -1.49501E+04  7.79361E+04 -5.68328E+04  6.92068E+04 -8.95113E+04  3.52782E+04
 -7.93864E+04 -1.04416E+04 -5.90553E+04 -5.89621E+04 -1.49206E+04 -7.29050E+04  2.70903E+04 -4.95588E+04
  4.43853E+04  7.66556E+03  1.92617E+04  5.34759E+04 -3.48155E+04  4.46812E+04 -6.96662E+04  1.28591E+03
 -5.64247E+04 -5.44451E+04 -1.08846E+04 -7.72348E+04  3.67728E+04 -5.82573E+04  4.18605E+04 -1.75108E+04
  4.89634E+04  1.19568E+04  3.12883E+04  2.35411E+04  1.34960E+04  2.62623E+04 -4.03144E+03  2.69988E+04
 -2.32910E+04  1.37250E+04 -1.86550E+04 -4.01821E+03  4.15957E+03 -8.08619E+03  1.55708E+04  1.47203E+04
  9.68487E+03  3.33935E+04 -3.50948E+04  3.91415E+04 -6.29440E+04  1.47048E+03 -5.63077E+04 -4.13980E+04
 -1.46001E+04 -6.90131E+04  3.94824E+04 -4.53106E+04  5.36661E+04 -2.84405E+02  3.38356E+04  3.26354E+04
 -5.03824E+03  3.63415E+04 -3.51061E+04  1.57323E+04 -2.77906E+04 -2.53377E+03 -1.80117E+04 -8.16084E+03
 -4.87705E+03 -1.81238E+04 -5.62892E+03 -1.75837E+04  9.58290E+03 -2.49150E+04  1.90309E+04 -9.74889E+03
  1.13881E+04  3.82617E+03 -1.22451E+04  1.20338E+04 -2.30044E+04 -3.76007E+03 -4.88996E+03 -2.57518E+04
  2.37812E+04 -4.40561E+04  4.86370E+04 -2.15112E+04  4.32732E+04  2.43677E+04  1.60166E+04  4.51113E+04
 -1.78683E+04  3.10573E+04 -2.99629E+04 -2.85942E+01 -1.16764E+04 -2.61577E+04  2.08642E+04 -3.53683E+04
  4.01652E+04 -7.09066E+03  3.52841E+04  2.00639E+04  2.39114E+04  4.57867E+04 -5.19992E+03  5.29295E+04
 -2.91529E+04  2.84650E+04 -4.31108E+04  8.50258E+03 -4.15788E+04 -1.76907E+04 -2.56341E+04 -3.72544E+04
  6.10585E+03 -3.52634E+04  3.18964E+04 -1.37127E+04  3.18622E+04  9.89184E+03  4.21488E+03  2.28567E+04
 -1.47740E+04  9.43874E+03 -1.08590E+04 -4.56865E+03  4.96239E+03 -7.52905E+03  1.42910E+04  9.85478E+03
  1.48031E+04  1.96913E+04 -5.15267E+03  2.57599E+04 -2.45154E+04  1.69442E+04 -2.91757E+04 -7.53113E+03
 -2.07611E+04 -1.60957E+04 -5.83829E+03 -2.34584E+04  1.64642E+03 -1.89409E+04  1.21426E+04 -1.83063E+04
  2.86668E+04 -8.29481E+03  3.14078E+04  1.99264E+03  2.43477E+04  1.41562E+04  7.71043E+03  3.61199E+04
 -1.74836E+04  2.73928E+04 -2.48109E+04  1.21845E+04 -2.20301E+04 -1.75913E+04 -7.17198E+03 -1.37018E+04
  1.37175E+03 -5.45183E+03 -4.00943E+03  1.05590E+04 -1.12533E+04  9.02109E+03 -1.75048E+04 -5.72653E+03
 -7.16393E+03 -1.85530E+04  7.29925E+03 -1.93942E+04  1.49842E+04 -1.51559E+04  1.62922E+04 -1.96530E+03
  1.17046E+04  1.61356E+04 -3.70113E+03  2.22430E+04 -1.25389E+04  7.80731E+03 -1.95796E+04 -2.63061E+03
 -1.17570E+04 -2.27395E+04 -3.94580E+03 -2.35488E+04  7.25225E+03 -2.06848E+04  1.75204E+04 -1.15454E+04
  1.80423E+04  3.13089E+03  1.41931E+04  4.50409E+03  9.20891E+03  1.62304E+03  1.09553E+04  1.53734E+03
  2.16479E+04  2.03219E+03  1.55724E+04  1.62951E+04  9.42472E+03  3.06165E+04 -3.05989E+03  3.20881E+04
 -1.72226E+04  2.57380E+04 -3.33465E+04  1.48186E+04 -3.30751E+04 -4.70878E+02 -2.80811E+04 -1.70862E+04
 -1.03210E+04 -2.46470E+04  6.29985E+03 -2.28702E+04  2.03822E+04 -1.39571E+04  2.49644E+04  6.71901E+03
  9.25678E+03  1.36910E+04 -8.96804E+03  9.83922E+03 -1.27206E+04  1.71126E+02 -1.17115E+04 -1.17189E+04
 -2.84350E+03 -1.27896E+04  4.08486E+03 -8.47838E+03  6.62052E+03 -1.72422E+03  2.68382E+03  6.28273E+03
 -8.42622E+03  2.40450E+03 -4.74122E+03 -8.37420E+03 -1.17001E+03 -1.53559E+04  2.62466E+03 -1.47660E+04
  1.18558E+04 -7.97744E+03  1.88537E+04  2.46623E+03  1.66586E+04  1.71444E+04  2.36842E+03  1.69232E+04
 -1.17287E+03  2.24327E+04 -1.42824E+04  1.20140E+04 -1.36179E+04  1.04316E+03 -1.23635E+04 -3.37455E+03
 -4.74907E+03 -8.00603E+03 -1.37206E+03  6.05167E+03 -2.19446E+03  4.85788E+03 -6.30421E+03  3.38767E+03
 -1.06585E+04  7.56931E+02 -1.05822E+04 -6.36567E+03  1.30008E+03 -1.32724E+04  1.48449E+03 -1.10442E+04
  4.38497E+03 -3.42475E+03  8.01445E+03  7.00748E+02  4.66649E+03  6.21484E+02 -1.22424E+04  6.71726E+02
 -1.00066E+03 -6.60622E+03 -2.22530E+02 -9.98449E+03  6.54484E+03 -1.12810E+04  1.08002E+04 -4.45892E+03
  1.70807E+04 -2.41834E+03  1.58963E+04  7.80206E+03  1.51114E+02  7.83707E+03 -2.22618E+03  1.49458E+04
 -1.06066E+04  4.55419E+03 -3.42698E+03 -1.38221E+03 -1.73027E+03 -8.30666E+02  4.10625E+03  2.35918E+03
  5.02900E+03  3.06788E+03 -6.59219E+02  4.46325E+03 -3.85206E+03  7.30304E+03 -1.02978E+04 -2.27879E+03
 -8.31225E+03 -6.34075E+03  3.61635E+03 -9.87724E+03  5.92168E+03 -6.18621E+03 -4.71104E+03  5.83600E+03
 -8.01561E+00  4.00592E+03 -7.27706E+03  4.94829E+03 -9.14846E+03  1.45218E+03 -4.17929E+03 -1.17928E+03
 -6.09451E+03 -4.13312E+03  6.46745E+03 -7.78796E+03  7.28935E+03 -6.60368E+03  1.19992E+04  5.83775E+03
  7.11734E+03  1.26152E+04  4.85677E+02  8.92467E+03 -3.20774E+03  6.62525E+03 -7.30813E+03  2.99846E+03
 -4.70257E+03 -7.06918E+03  9.83692E+01 -8.53132E+03  5.03010E+03 -5.52500E+03 -1.07791E+03 -3.80092E+03
  3.17228E+03  1.20569E+02  4.34820E+03  3.53802E+03 -1.85243E+03  2.36506E+03  3.22587E+03 -3.63421E+03
  1.20599E+04  3.25229E+03  6.38244E+03  5.63627E+02  9.18118E+03  7.26557E+03  1.03830E+04  1.23368E+04
 -2.91448E+03  1.56087E+04 -1.21877E+04  1.30684E+04 -1.61796E+04  5.19302E+03 -1.15351E+04 -2.19941E+03
 -4.36448E+01 -1.13380E+04 -2.66572E+03 -1.32303E+04  2.04226E+03 -4.77164E+03  8.01254E+03 -3.36107E+03
  1.34183E+03 -2.63572E+02  3.23927E+03 -8.89614E+02  4.29293E+03 -3.05719E+03  8.58524E+02 -1.61162E+03
  7.79039E+03  2.69001E+03  6.77542E+03  5.59270E+03 -3.60344E+03  4.20218E+03 -6.75016E+03  5.54065E+03
 -4.40012E+03 -1.39532E+03 -6.95890E+03 -3.70076E+03  2.08387E+03 -8.07995E+03  6.64957E+03 -6.11669E+03
  1.00606E+04 -3.64435E+03  1.16941E+04  4.08484E+03  5.66632E+03  8.38423E+03  2.38931E+03  7.88542E+03
 -2.80038E+03  1.26355E+04 -5.73799E+03 -3.89279E+02 -7.61807E+03 -2.51049E+03 -2.00683E+01  2.30905E+03
 -7.66791E+02  6.87408E+02 -6.08421E+03  2.86510E+03 -7.32846E+03  3.53697E+03 -8.45371E+03 -7.95051E+02
 -1.07112E+03 -6.87129E+03 -3.99894E+02 -7.29014E+03  6.06656E+03 -7.42840E+03  4.83192E+03  2.92584E+03
  4.20712E+03  7.68370E+03  3.52338E+03  5.94543E+03  1.27619E+03  4.74893E+03 -5.63649E+03  4.57199E+03
 -5.15401E+03 -3.31091E+03 -7.02057E+03 -7.47641E+03 -9.17096E+02 -1.83135E+03  7.94120E+02 -7.38411E+03
 -5.87527E+02 -1.22063E+03  1.87467E+03  2.18619E+03 -2.02909E+03  2.83227E+03  8.42876E+01  2.55098E+01
  3.05960E+03 -1.72184E+03 -3.68044E+03 -5.76445E+03 -5.45891E+02  5.16262E+03  1.49186E+02  2.77738E+03
 -1.63619E+02  4.75373E+03 -9.78722E+03  4.17364E+03 -6.47158E+03  9.71037E+02 -6.09063E+03  2.92605E+03
 -7.14754E+03 -6.55409E+03  1.55569E+03 -7.44105E+03  1.98140E+03 -4.90145E+02  6.18743E+03 -2.02302E+03
  1.79211E+03 -6.50153E+02 -1.25429E+03 -9.75359E+02 -2.22781E+03  5.13918E+03 -2.73698E+03  3.51065E+03
 -5.27922E+03 -2.10340E+03  1.93543E+03 -2.10974E+03 -2.23432E+03 -4.03439E+03  2.13460E+03  3.12345E+03
  2.91427E+03  3.86709E+03  2.27509E+03  1.22119E+01 -2.00583E+03  6.42961E+02 -1.37118E+03  2.09389E+03
  1.78314E+03  2.34447E+03 -2.31142E+03  4.66354E+02  2.84791E+03  3.76235E+03 -1.05890E+03  1.09691E+04
 -3.95790E+03  1.33199E+03 -3.08588E+03  1.69198E+03 -2.36972E+03 -3.98004E+03  2.73982E+02 -5.86833E+03
  4.38285E+03 -2.98258E+03  3.21930E+03  2.36716E+03  1.08964E+01 -3.43029E+03 -5.23371E+03  1.70451E+03
 -4.31921E+02 -5.47286E+02 -5.96414E+03 -3.39028E+03 -6.90413E+03 -5.49072E+03  6.22421E+02 -8.56164E+03
  8.60841E+02  1.48926E+03 -3.58746E+03  4.02779E+01 -8.65477E+02 -2.65241E+03  3.38746E+03  5.19356E+03
 -4.28981E+02  1.48788E+03 -1.06778E+03 -2.03012E+03  4.51572E+03 -3.02320E+03  3.15389E+03 -3.95726E+03
  7.92534E+03  5.55092E+02  4.06562E+03 -2.66246E+03 -4.36865E+03  3.91105E+03 -2.19013E+03  2.32841E+03
 -2.91279E+03  7.84770E+02 -7.09257E+03  5.35182E+02  3.89981E+03 -3.30420E+03 -9.14654E+02  1.31159E+03
  8.55670E+02 -7.15261E+02 -1.90999E+02 -1.03790E+03  2.40965E+03 -7.31409E+02 -1.27799E+03 -3.60366E+03
  1.31822E+02 -8.74654E+02 -1.24056E+03 -5.07459E+03 -5.41112E+02 -3.80302E+03  1.02840E+03  3.82227E+03
 -1.49812E+03 -1.24544E+03 -1.19626E+03  1.16271E+03 -4.42551E+03  2.31924E+03 -3.29218E+02  2.02217E+03
 -1.68540E+03  2.00330E+02  4.34776E+03 -5.67005E+03  1.79636E+03 -3.90695E+03  2.02822E+03 -2.58513E+03
 -2.25170E+02  6.49894E+03 -1.30957E+03  7.77054E+02 -2.73602E+03  9.57119E+02 -1.25396E+03  2.86985E+03
 -4.50857E+03 -5.60394E+02 -1.19897E+03  4.27674E+03 -4.74522E+03 -6.57155E+02 -1.11313E+03  4.26882E+03
  1.44249E+03 -1.96662E+03  1.36569E+03  3.54684E+03 -1.36394E+03 -1.47921E+02  8.42980E+02 -2.68131E+03
  2.98729E+03 -2.87486E+03  2.98513E+03 -5.45429E+02  9.83348E+02  3.96568E+03 -1.64624E+03 -1.54506E+03
 -2.87349E+03  9.20699E+03  2.75771E+03  3.59166E+03 -3.26006E+03 -7.12227E+03 -1.50670E+03  7.02336E+02
 -2.16664E+03 -2.48249E+03  4.80478E+03 -9.37956E+02  1.49794E+03 -3.80833E+03  1.82386E+02 -6.51777E+02
  2.27753E+03 -3.11268E+01  1.80878E+02 -2.60330E+03  1.40357E+03  5.43768E+02 -3.18532E+02  3.54498E+03
 -2.00205E+03 -1.61995E+03  3.93239E+03 -2.48491E+03  2.39779E+02  4.96660E+02  2.33784E+03  7.97633E+02
  2.86431E+03  1.79253E+03  3.83648E+03 -2.64026E+02 -1.46029E+03  4.60650E+02  2.79477E+02 -1.82839E+03
  3.20143E+03 -5.00902E+03 -1.28404E+03 -2.75770E+03  2.69260E+03  6.63345E+01  4.65280E+03  3.86222E+03
 -9.48139E+02 -1.23266E+03  6.47217E+03 -7.56829E+02 -3.95813E+03 -5.69408E+03 -2.53907E+03  1.78539E+03
 -3.40423E+03 -4.89239E+02  1.20207E+03  2.95305E+02 -5.18291E+03  3.55333E+03 -1.55580E+03 -1.95240E+03
  1.21097E+02 -1.93729E+03 -3.44102E+03  6.63357E+02 -1.17944E+03 -3.20780E+03 -3.18852E+03 -1.20225E+03
  2.20213E+03  1.29503E+03  3.41030E+02 -1.23720E+02 -2.55373E+03  4.67921E+03 -3.07951E+03 -2.76000E+03
