 $NMID ID='MM_0lb_SNR50_12hz_g40_50.RAW', FMTDAT='(8E13.5)'
 TRAMP=1., VOLUME=1. $END
  3.08714E+05  2.10172E+03  3.35566E+05  2.49642E+05  8.22037E+04  3.43509E+05 -1.31440E+05  2.51007E+05
 -1.96033E+05  7.45639E+04 -1.11736E+05 -3.15219E+04 -1.23272E+03 -5.11525E+04  4.89725E+04  1.07175E+03
  3.57877E+04  5.29798E+04 -1.44959E+04  7.70725E+04 -6.15930E+04  6.08760E+04 -8.30903E+04  3.40601E+04
 -7.61031E+04 -7.90734E+03 -5.49265E+04 -4.93104E+04 -1.10354E+04 -6.61239E+04  3.26549E+04 -4.42982E+04
  4.01090E+04  5.02953E+03  1.61184E+04  4.94024E+04 -3.44496E+04  4.60745E+04 -6.86807E+04 -5.14811E+03
 -5.87441E+04 -5.45517E+04 -7.58157E+03 -7.57710E+04  3.23801E+04 -5.81990E+04  4.48533E+04 -1.74361E+04
  4.53402E+04  1.10062E+04  2.62126E+04  2.93436E+04  1.03280E+04  3.06146E+04 -4.65581E+03  3.04296E+04
 -2.06564E+04  1.19144E+04 -1.93009E+04 -2.97515E+03  4.60302E+03 -5.96806E+03  1.79239E+04  1.54086E+04
  6.48074E+03  3.67948E+04 -3.36119E+04  3.61057E+04 -6.37026E+04  1.66086E+01 -5.94535E+04 -4.05225E+04
 -1.13033E+04 -6.34078E+04  4.58351E+04 -4.48510E+04  5.54631E+04 -5.49725E+03  3.19955E+04  2.88312E+04
 -2.48556E+03  3.69577E+04 -3.25294E+04  1.10353E+04 -3.16089E+04  8.13787E+01 -1.48033E+04 -1.30182E+04
 -1.02650E+04 -1.84202E+04 -1.37853E+03 -1.37621E+04  7.96979E+03 -2.35128E+04  2.23496E+04 -1.40607E+04
  9.33185E+03 -8.37259E+02 -1.58286E+04  8.62648E+03 -3.32043E+04 -9.36158E+03 -4.29147E+03 -3.66290E+04
  1.90101E+04 -4.00301E+04  4.60251E+04 -1.78515E+04  4.44078E+04  1.58158E+04  1.59434E+04  4.49941E+04
 -1.34173E+04  2.75509E+04 -2.22334E+04  7.96272E+02 -1.72957E+04 -2.93540E+04  2.62193E+04 -3.21802E+04
  4.42466E+04 -1.13181E+04  3.70530E+04  2.20443E+04  2.01555E+04  4.76781E+04 -9.24654E+03  4.77139E+04
 -3.68658E+04  3.39683E+04 -3.76029E+04  1.24591E+04 -4.54955E+04 -2.20285E+04 -2.62700E+04 -3.71694E+04
  1.01344E+04 -4.14614E+04  3.10879E+04 -1.58720E+04  3.29643E+04  1.25241E+04  9.07954E+03  2.08293E+04
 -1.10232E+04  6.18566E+03 -1.07731E+04 -4.68910E+03  1.15871E+04 -8.95394E+03  1.88030E+04  3.81635E+03
  9.91061E+03  2.27259E+04 -3.37780E+03  2.49412E+04 -2.42888E+04  1.42105E+04 -2.89892E+04  1.00776E+03
 -2.74651E+04 -1.64241E+04 -5.29181E+03 -2.02196E+04  7.58913E+03 -2.55743E+04  1.42401E+04 -1.63630E+04
  2.70463E+04 -1.06301E+04  3.69843E+04  2.87075E+03  2.40462E+04  2.29129E+04  6.64178E+02  3.69716E+04
 -2.00001E+04  3.50420E+04 -2.92477E+04  1.13335E+04 -1.40619E+04 -1.70370E+04  3.53983E+03 -1.56164E+04
 -4.36321E+02 -1.57818E+03 -1.25168E+03  7.43339E+03 -1.58970E+04  6.59121E+03 -1.72018E+04 -6.37930E+03
 -1.00606E+04 -1.83004E+04 -7.73628E+02 -1.90325E+04  2.15418E+04 -1.79945E+04  1.51598E+04 -3.12327E+03
  1.16464E+04  1.10822E+04 -2.67124E+03  2.31407E+04 -8.01812E+03  1.12262E+04 -1.91059E+04 -9.19037E+03
 -1.43887E+04 -2.01628E+04 -2.63699E+03 -2.37964E+04  1.24692E+04 -1.98408E+04  2.25501E+04 -6.44216E+03
  1.91426E+04 -4.38373E+02  1.24644E+04  4.21542E+03  8.01723E+03 -1.66505E+03  1.04969E+04 -3.26650E+03
  1.76887E+04 -2.42163E+02  2.44954E+04  1.58371E+04  1.40820E+04  3.07208E+04 -2.78571E+02  2.99539E+04
 -2.50968E+04  2.67966E+04 -3.67835E+04  1.50124E+04 -3.48901E+04 -8.66664E+02 -2.74774E+04 -2.71989E+04
 -7.44036E+03 -3.06705E+04  1.40986E+04 -2.50206E+04  2.09534E+04 -6.98042E+03  1.82534E+04  3.09377E+03
  5.31284E+03  1.92444E+04 -1.13460E+04  1.21735E+04 -1.80199E+04  3.63157E+03 -1.16576E+04 -1.01848E+04
  5.61910E+03 -1.40117E+04  1.26468E+04 -1.64435E+04  1.09284E+04 -7.62057E+02  5.70923E+03  3.68012E+03
 -5.92558E+03  2.94323E+03 -8.59099E+03 -1.57761E+03  1.03510E+02 -1.51398E+04  7.64028E+03 -1.40589E+04
  2.08321E+04 -9.47510E+03  2.37231E+04  2.03284E+03  1.58367E+04  1.77886E+04  1.04845E+04  1.58320E+04
 -1.44081E+02  2.46807E+04 -1.87514E+04  1.87250E+04 -1.69079E+04  7.27816E+03 -1.40753E+04 -5.63437E+03
 -8.37725E+03 -2.50065E+03 -5.40899E+03  8.50167E+02 -1.60158E+03  3.42930E+03 -9.22942E+02  7.03288E+03
 -1.17183E+04 -5.45386E+02 -6.89452E+03 -9.98842E+03 -5.45236E+03 -1.63446E+04 -4.78326E+01 -7.90105E+03
  9.64002E+03 -4.80663E+03  1.06616E+04  2.76400E+03  1.75282E+01  1.44542E+02 -2.36119E+03  6.37193E+02
 -6.03437E+03 -6.05375E+03 -4.16598E+02 -1.21588E+04  9.74083E+03 -1.75775E+04  1.29661E+04 -5.67932E+03
  2.20571E+04  9.40594E+02  1.46288E+04  1.33146E+04 -7.22014E+02  1.46020E+04 -1.06400E+04  1.49794E+04
 -9.41860E+03  5.54246E+03 -5.11393E+03  1.77422E+03 -1.47208E+03 -2.47420E+02  6.89877E+03 -2.15257E+03
  6.37247E+03  3.63326E+03  1.97785E+03  1.06103E+04 -8.26575E+03  8.56054E+03 -1.89145E+04  4.16608E+03
 -1.11799E+04 -6.83959E+03  2.08564E+03 -1.14023E+04  9.62824E+03 -6.67278E+03  4.76847E+03  1.53358E+02
  3.94258E+02  3.62047E+03 -3.99134E+03  1.26076E+04 -1.09287E+04 -1.04688E+03 -6.86376E+03 -6.77801E+03
 -5.30850E+03 -1.32464E+04  4.01637E+03 -1.33662E+04  1.00657E+04 -9.06777E+03  1.11809E+04  3.37952E+03
  1.00909E+04  6.70426E+03 -5.71024E+02  1.77417E+04 -7.85362E+03  7.47579E+03 -1.08985E+04  3.11947E+02
 -9.62218E+03 -1.30339E+04 -4.76346E+03 -1.24265E+04  3.77156E+03 -1.16829E+04  1.05456E+04 -2.25792E+03
  5.88132E+03  2.24183E+03  1.83267E+03  4.71056E+02  2.78402E+03 -3.97650E+03  4.04885E+03 -6.97500E+03
  9.56955E+03 -3.25853E+03  1.06092E+04 -5.45512E+02  1.05652E+04  1.00930E+04  2.06880E+03  1.69127E+04
 -7.88941E+02  1.65757E+04 -8.39431E+03  1.38782E+04 -1.76437E+04  6.17789E+03 -2.11999E+04 -1.00218E+04
 -1.27235E+04 -1.22928E+04  7.88684E+02 -1.21643E+04  7.92875E+03 -9.54964E+03  4.18478E+03 -5.93005E+03
  2.31523E+03  1.38778E+03  2.13968E+03 -1.25602E+03  4.53493E+03  3.12062E+02  1.01340E+04  2.17204E+03
  1.10812E+04  1.05868E+03  3.76746E+03 -1.23776E+03 -4.17462E+02  4.19748E+03 -9.83320E+03  2.35977E+03
 -1.08334E+04 -2.82925E+03 -1.39686E+04 -5.97422E+03 -2.51257E+03 -1.28498E+04  3.64635E+03 -3.30487E+03
  1.13224E+04 -7.01091E+03  1.63232E+04  1.50132E+03  6.87068E+03  1.22460E+04  7.93999E+02  8.61955E+03
 -3.25633E+03  1.19454E+04 -8.26859E+03  3.23280E+03 -8.85985E+03 -5.15792E+03 -6.04898E+02  1.33379E+03
  3.63537E+02 -5.21564E+01  3.73228E+03 -3.29153E+01 -4.51547E+03 -2.61154E+02 -2.96269E+03 -3.16668E+03
 -5.99848E+03 -1.20715E+04 -3.79158E+03 -9.70482E+03  5.99699E+03 -8.28333E+03  7.94304E+03 -2.71738E+03
  7.55242E+03  6.28500E+03  1.19307E+03  6.17032E+03 -3.07611E+03  7.66439E+03 -4.74947E+03  5.86168E+02
 -1.14172E+04 -9.88269E+02 -9.02333E+03 -9.65596E+03 -1.45553E+02 -6.03136E+03  3.95491E+03 -5.85114E+03
  6.72068E+03  2.95572E+03  2.51179E+03  7.57180E+03  2.09719E+03  3.35049E+03 -4.07076E+03  5.24149E+03
  4.45404E+03  8.53357E+02  2.25440E+03  3.14110E+03  6.72833E+03  5.38366E+03  4.86509E+03  5.78361E+03
 -7.88217E+03  4.63195E+03 -3.72900E+03  8.16326E+03 -1.07756E+04  4.94121E+03 -1.59852E+04 -1.56982E+02
 -8.05040E+03 -1.20214E+04  2.59356E+03 -1.35484E+04  6.78008E+03 -7.47274E+03  3.57272E+03  2.81339E+02
  5.08036E+03  9.40813E+03  2.00613E+03  2.89783E+03 -1.64906E+03 -8.34848E+02 -1.84629E+02 -4.61355E+03
 -4.25125E+03 -3.67063E+03  2.22223E+03 -4.14170E+03  1.72844E+03 -7.57496E+03  3.27794E+03  7.21361E+02
  1.81272E+03 -7.70797E+02  4.08595E+02  5.48229E+03  9.82712E+02  2.58474E+02 -4.35694E+02 -2.59109E+03
  3.69426E+03 -3.77190E+03  3.16073E+03  2.34028E+03  7.44579E+03  4.27778E+03 -6.63798E+02  4.63982E+03
 -9.51901E+03  1.72837E+03 -6.94430E+03 -2.06919E+03 -8.69563E+03  2.06569E+03 -3.94957E+03 -5.09399E+03
 -1.75588E+03 -3.68336E+03  6.79260E+02  4.33702E+03  6.88307E+02  4.11254E+02 -2.41014E+03  4.65766E+03
 -4.71943E+03  4.70819E+03 -1.86873E+03 -7.93281E+03 -3.82316E+03 -2.55483E+03  3.57107E+03 -9.16176E+03
  2.20214E+03 -3.70080E+03  3.39683E+03 -7.81845E+03  4.69733E+02 -6.32492E+03  3.88696E+02  5.98146E+03
 -2.42032E+03 -2.35043E+03 -5.78057E+03 -1.10811E+03  1.56866E+03 -4.75328E+03  6.43990E+03 -4.69915E+03
  2.66622E+03  2.10493E+02  7.03542E+03  5.60522E+03  1.35180E+03  5.26943E+03 -9.29843E+02  6.08523E+03
 -8.10662E+03  4.51045E+02 -3.36570E+03  5.27560E+02 -4.00900E+03 -9.14905E+02 -4.07694E+03 -1.48123E+03
  4.85448E+03 -5.57430E+03  7.49443E+03  3.79175E+03  4.59623E+03  2.48629E+03  4.17953E+03  3.47636E+03
  2.42078E+03  2.26057E+02  2.09581E+03  8.17128E+02  3.57183E+02  5.81016E+03 -1.99538E+03  4.28939E+03
 -1.21100E+03  4.18468E+03 -2.53646E+03 -9.71340E+02 -4.40534E+03 -1.87093E+02 -4.62707E+03 -2.13556E+03
 -1.22367E+03 -6.30483E+03  3.57687E+03 -7.39425E+03  7.23665E+03 -5.42096E+03  1.19721E+04 -3.24850E+03
  6.66535E+03 -4.22767E+03  2.14817E+02  1.21395E+04  3.88565E+03  7.48524E+03  2.89527E+02  3.89940E+03
 -2.71657E+03 -3.79830E+02 -2.16925E+03 -8.28823E+02  2.22361E+03  2.71347E+03 -3.95048E+03 -5.99602E+03
 -4.77987E+01 -1.91336E+02 -1.47703E+03  2.34820E+03  1.54184E+03  2.77926E+02 -1.68335E+03 -5.20367E+03
  4.67166E+03 -3.72374E+03  1.94184E+03  1.67127E+03  8.94107E+03  9.56211E+01 -1.34489E+03  5.68756E+03
 -2.05492E+03  6.52073E+03 -6.42481E+03  6.03183E+01 -6.89993E+03 -6.00469E+02 -5.83808E+03 -2.40914E+03
 -6.30263E+03 -3.85600E+03 -4.30458E+02 -6.03742E+03  3.36783E+03 -1.96232E+03  1.95441E+03 -2.23845E+03
  2.49451E+03 -3.64181E+03  3.02096E+03 -1.72495E+03 -5.74300E+03  1.63102E+03  1.16452E+03  2.59360E+03
  1.85177E+03  1.41956E+03 -4.74706E+02  3.19359E+02 -5.11036E+02 -2.21372E+03  1.41288E+03  6.42263E+03
 -5.94214E+03  2.49862E+03 -4.10431E+03  4.48050E+03 -2.78381E+01 -4.85344E+03  5.52426E+02 -3.49060E+03
  7.52668E+02 -7.64097E+02  1.55735E+03  1.10849E+03  4.16187E+03  3.20844E+03  1.20803E+03  6.44858E+03
  5.14142E+03  5.46172E+03 -5.58803E+03  4.19661E+02 -8.50521E+02 -1.66070E+03  3.56585E+02  2.75332E+02
  2.49946E+03  8.49563E+02 -2.27635E+03  1.50297E+03 -7.36425E+03 -2.07755E+03 -4.74341E+03 -7.39795E+02
 -3.54454E+03 -2.38466E+03 -5.16768E+03 -3.49739E+02  8.71134E+03  1.41656E+03 -2.02570E+01 -4.62828E+02
  5.50625E+03 -3.54033E+03 -4.52705E+01  6.50648E+03 -2.47773E+03  7.65442E+03 -5.72452E+03  2.50699E+03
