 $NMID ID='MM_0lb_SNR50_12hz_g55_63.RAW', FMTDAT='(8E13.5)'
 TRAMP=1., VOLUME=1. $END
  3.10093E+05 -1.25311E+03  3.40531E+05  2.55176E+05  8.36038E+04  3.38287E+05 -1.32616E+05  2.55790E+05
 -1.91060E+05  8.44927E+04 -1.11809E+05 -3.17650E+04  3.59965E+03 -5.41175E+04  5.26772E+04  1.22181E+03
  3.47744E+04  4.86587E+04 -1.99903E+04  7.68378E+04 -6.36650E+04  6.00786E+04 -8.05227E+04  3.40348E+04
 -7.94603E+04 -1.16317E+04 -5.47559E+04 -5.09572E+04 -1.93232E+04 -7.26586E+04  3.07433E+04 -5.06393E+04
  4.18999E+04  1.00335E+03  8.83455E+03  5.34244E+04 -3.35212E+04  5.28842E+04 -6.98373E+04 -2.40992E+03
 -5.46042E+04 -5.91175E+04 -1.16176E+04 -7.70613E+04  3.33658E+04 -5.77926E+04  5.32180E+04 -1.48926E+04
  5.13873E+04  1.16444E+04  3.23931E+04  2.68678E+04  1.41174E+04  2.97024E+04 -4.75655E+03  2.69541E+04
 -2.20814E+04  1.19791E+04 -1.65316E+04 -4.40829E+03  5.09919E+03 -3.44346E+03  2.50214E+04  1.23012E+04
  9.94169E+03  3.28358E+04 -2.88938E+04  3.44913E+04 -6.45375E+04 -1.57031E+03 -5.88037E+04 -5.13534E+04
 -1.27271E+04 -6.64337E+04  4.13758E+04 -4.21744E+04  6.28170E+04 -2.49286E+03  3.17074E+04  3.25887E+04
 -5.59639E+03  3.76183E+04 -3.12811E+04  1.74163E+04 -3.30770E+04  1.19094E+03 -1.66782E+04 -1.36216E+04
 -7.48974E+03 -1.69158E+04 -7.03214E+03 -2.08052E+04  1.04288E+04 -2.36281E+04  1.69330E+04 -9.03809E+03
  1.10713E+04  6.31265E+03 -1.25825E+04  1.88079E+04 -2.40983E+04 -6.09723E+03 -6.89910E+03 -3.55700E+04
  2.61310E+04 -4.50671E+04  5.48687E+04 -1.80327E+04  4.89455E+04  1.82168E+04  1.03992E+04  4.11667E+04
 -1.76684E+04  3.58996E+04 -3.10337E+04 -1.07798E+02 -1.34700E+04 -3.11715E+04  2.33666E+04 -3.41862E+04
  4.73553E+04 -1.24945E+04  3.50997E+04  2.25089E+04  1.67597E+04  5.33882E+04 -7.75529E+03  5.36375E+04
 -2.89500E+04  3.23759E+04 -3.96417E+04  1.00951E+04 -4.29216E+04 -1.70260E+04 -2.48336E+04 -4.34595E+04
  1.05138E+04 -4.02203E+04  3.74660E+04 -1.50539E+04  2.99637E+04  9.64866E+03  4.42914E+03  2.55022E+04
 -1.55701E+04  8.29322E+03 -7.55614E+03 -1.18271E+04  5.95971E+03 -1.20987E+04  1.97330E+04  4.82920E+03
  1.02039E+04  2.25065E+04 -4.77241E+03  3.03544E+04 -2.31625E+04  1.09587E+04 -2.60932E+04 -2.22933E+03
 -2.01036E+04 -1.58719E+04 -1.04338E+04 -2.20963E+04  6.97888E+03 -2.45393E+04  1.79526E+04 -2.36926E+04
  2.59050E+04 -1.25690E+04  3.79983E+04  2.43486E+03  2.38724E+04  2.40633E+04  3.19638E+02  4.28836E+04
 -1.53003E+04  3.03781E+04 -3.56265E+04  1.48112E+04 -2.42744E+04 -8.19375E+03 -3.20107E+03 -1.17940E+04
  9.36173E+02 -1.41460E+03 -6.07785E+03  7.04938E+03 -1.57216E+04 -1.47339E+03 -1.95005E+04 -8.54939E+03
 -9.36849E+03 -2.30621E+04  7.52743E+03 -2.60431E+04  1.86553E+04 -2.41529E+04  1.32713E+04 -1.26774E+03
  7.82804E+03  1.17659E+04 -8.00313E+02  2.38837E+04 -1.61576E+04  6.09587E+03 -1.79166E+04 -1.94616E+03
 -1.65378E+04 -1.78800E+04  1.25056E+03 -2.40979E+04  1.47065E+04 -2.32725E+04  1.62272E+04 -1.08897E+04
  1.74013E+04  5.28618E+03  1.34100E+04  7.69708E+03  6.85526E+03  2.66801E+03  8.25409E+03  2.86841E+02
  2.30404E+04  4.50515E+03  2.36459E+04  1.87467E+04  1.06213E+04  3.48804E+04 -9.04817E+02  3.87908E+04
 -2.38626E+04  2.79201E+04 -4.15109E+04  1.69660E+04 -4.38590E+04 -8.59207E+03 -3.63963E+04 -2.28719E+04
 -1.84545E+04 -2.62983E+04  1.10147E+04 -3.05032E+04  1.99530E+04 -1.44205E+04  2.10884E+04  1.13593E+03
  1.21144E+04  1.45017E+04 -1.38821E+04  1.13672E+04 -1.71246E+04 -3.64730E+03 -1.26731E+04 -1.18120E+04
  2.57210E+03 -1.53173E+04  7.23457E+03 -1.06176E+04  1.57685E+04 -6.72255E+03  2.72014E+03  3.68825E+03
 -9.46177E+03  7.97570E+03 -1.07538E+04 -6.55130E+03 -2.40323E+03 -2.20529E+04  9.56849E+03 -1.67984E+04
  2.11292E+04 -1.25103E+04  2.44160E+04  2.74328E+02  1.84602E+04  2.14946E+04  8.35564E+03  2.37722E+04
 -5.16362E+03  2.94364E+04 -1.82762E+04  1.64115E+04 -2.07301E+04 -1.14164E+03 -1.02773E+04 -7.35519E+03
 -4.09374E+03 -7.84549E+03  3.30447E+03  4.81918E+02  1.25772E+03 -1.91421E+03 -6.89290E+03  2.16427E+03
 -1.18031E+04 -2.47683E+03 -1.42838E+04 -1.11505E+04 -9.02555E+03 -1.86585E+04  1.04314E+04 -1.85342E+04
  1.05532E+04 -4.55464E+03  1.18202E+04  4.17514E+03  1.80902E+03  6.92491E+03 -6.32228E+03  9.02945E+02
 -2.01557E+03 -4.27517E+03  4.68741E+02 -1.27661E+04  1.18036E+04 -1.65005E+04  1.83473E+04 -3.91735E+03
  1.85672E+04  6.46620E+03  1.15354E+04  1.39137E+04  1.31948E+02  1.59414E+04 -1.35013E+04  1.38502E+04
 -7.00677E+03 -2.85221E+02 -5.31433E+03 -5.09218E+03  3.27576E+03 -3.53210E+03  3.22248E+03 -7.15888E+03
  5.96280E+03  3.25587E+03 -8.54487E+02  1.47056E+04 -1.09856E+04  6.02082E+03 -9.31842E+03  4.99981E+03
 -1.04090E+04 -9.57677E+03 -6.40345E+03 -1.28513E+04  6.36533E+03 -4.60543E+03  3.46307E+03  1.44331E+03
 -4.18627E+02  4.07779E+03 -8.88141E+03  7.99744E+03 -1.07865E+04  6.88411E+03 -1.19847E+04 -2.90017E+03
 -5.16505E+03 -1.64633E+04  6.66297E+03 -1.58388E+04  1.02889E+04 -1.31555E+04  1.31044E+04  6.75586E+03
  1.14782E+04  9.45163E+03 -8.61681E+02  1.87531E+04 -7.68601E+03  6.64449E+03 -1.04451E+04  7.71267E+02
 -9.67672E+03 -6.38504E+03 -2.54767E+03 -1.17296E+04  6.36111E+03 -8.89170E+03  3.36319E+03 -5.58881E+03
  2.62065E+02  6.48170E+03 -1.11494E+03  3.24890E+03 -1.06897E+03 -3.28294E+03  6.05806E+03 -5.67348E+03
  7.86507E+03 -1.35760E+03  1.88189E+04 -1.96145E+03  1.37110E+04  4.28863E+03  6.51641E+03  1.17830E+04
 -3.75681E+02  1.76640E+04 -1.72815E+04  1.39250E+04 -2.12742E+04  3.65576E+02 -1.83034E+04 -1.38441E+03
 -9.13412E+03 -7.43604E+03  5.88580E+02 -1.18528E+04  2.17146E+03 -8.65939E+03  2.91741E+03 -3.44726E+03
 -7.20644E+02 -2.13190E+03  4.98814E+03 -4.91707E+03  7.48364E+03 -2.16372E+03  4.47533E+03 -1.45476E+03
  1.01685E+04 -4.11239E+03  1.80694E+03  1.24713E+03 -1.87023E+03  7.56867E+03 -5.11579E+03  1.16298E+04
 -8.87819E+03 -5.91883E+03 -1.35968E+04 -1.23089E+04 -4.38712E+03 -1.29323E+04  7.90413E+03 -1.46736E+04
  1.06371E+04 -4.79699E+03  1.43848E+04 -7.07590E+02  7.88095E+03  8.68623E+03 -1.46165E+03  7.61669E+03
 -4.22919E+03  1.12428E+04 -4.90251E+03  4.07540E+03 -2.54126E+03 -2.17698E+03 -4.08642E+03 -5.74905E+03
  3.11689E+03  1.04512E+03  1.30492E+03  1.90433E+03  5.39689E+02  5.07526E+03 -9.71108E+03 -2.12100E+03
 -3.28800E+03 -6.40842E+03  3.34264E+03 -1.00407E+04  5.17451E+03 -5.77036E+03  1.34749E+04 -1.85594E+03
  1.71045E+04  3.28382E+03  5.39589E+03  7.15331E+03  1.93892E+03  7.57537E+03 -9.81337E+03  5.99291E+03
 -1.19807E+04 -1.61570E+03 -9.33229E+03 -1.27538E+04 -1.45951E+03 -1.31652E+04  7.78826E+03 -1.26433E+04
  3.47628E+03 -3.45494E+03  4.71696E+03  7.94199E+03  2.56045E+03  6.44169E+03  1.01870E+03  2.53319E+03
  2.94481E+03  1.36748E+03  4.29480E+03  2.35074E+03 -1.92570E+02  3.98616E+02  1.42605E+03  5.04838E+03
 -3.29049E+02  8.12312E+03 -4.21303E+03  9.17951E+03 -1.17080E+04  1.82622E+03 -1.18492E+04 -7.79243E+03
 -2.79256E+03 -1.14625E+04 -3.57925E+02 -1.46683E+04  7.85117E+03 -8.73203E+03  9.24694E+03 -5.70859E+03
  3.89118E+03  4.57833E+03  1.55467E+02  4.04168E+03  4.28964E+02 -4.49623E+03  2.06939E+02  3.02265E+02
 -2.91852E+03 -1.89419E+03  3.92097E+03 -8.44867E+03  3.39052E+03 -2.86250E+03  6.59360E+03  7.24855E+02
  3.37823E+03  6.27246E+03 -8.61084E+02 -2.69842E+03  4.09063E+03  1.56338E+03  3.89318E+02 -7.42565E+02
 -2.24492E+03  1.55720E+03  4.05900E+03 -1.15229E+03  8.20984E+02  1.38935E+04 -3.24777E+03  4.70291E+03
 -8.02969E+02  6.08339E+03 -5.86475E+03  4.56768E+03 -2.69039E+03 -1.44496E+03 -3.84752E+03 -2.23512E+03
 -3.06773E+03 -1.54495E+03 -5.83450E+02 -4.53800E+03 -7.54838E+02  4.54255E+03 -4.31769E+03  3.33363E+03
 -4.61649E+03 -2.01425E+02 -1.03200E+03 -5.84599E+03 -3.86677E+03 -5.67339E+03 -3.85131E+03 -5.69605E+03
  1.58450E+03 -2.77518E+03  7.03825E+03  1.99726E+03  3.29760E+03  2.97831E+03  8.89218E+02  3.71776E+03
 -3.03547E+03  2.63105E+03 -3.23388E+03 -8.72415E+03  3.78831E+03 -4.90665E+03  9.61754E+02 -3.41136E+02
  1.11256E+04  4.51873E+03  6.12952E+03  7.35311E+03  2.15074E+03  4.89984E+03 -4.94460E+03  5.01462E+03
 -9.59582E+02  4.42623E+03 -6.32492E+03 -6.13178E+03  6.45758E+02 -8.64857E+02 -2.52372E+03 -7.31658E+02
  6.33375E+03 -1.40624E+03  1.68949E+03  8.02281E+02 -1.49002E+03  2.34650E+03  3.10543E+03  7.06329E+02
 -1.62050E+03 -3.75432E+03  5.14139E+02  1.51670E+03  2.91625E+03 -9.27201E+02  1.58645E+03  2.38734E+03
 -4.60828E+03  7.41740E+02 -3.65553E+03 -2.32457E+03 -9.70944E+03  2.38164E+03 -7.00954E+03 -1.16243E+04
 -5.13357E+03 -5.35685E+03  2.63524E+03 -9.92021E+03  6.90163E+02 -8.84474E+03  1.01619E+04  7.38359E+02
  8.80988E+03 -8.85350E+02  5.00116E+03  3.86498E+03 -2.74819E+03  5.81943E+03  2.15895E+03  4.20938E+03
 -2.02962E+03  4.21457E+03  4.99665E+02  7.95647E+02 -1.48467E+03 -1.44025E+03 -8.25760E+01 -2.13339E+03
 -7.54242E+03 -6.52950E+02  2.21942E+03 -2.55415E+03 -1.24786E+03  3.12881E+03 -1.09125E+03 -3.90628E+03
 -3.71202E+03 -4.25479E+03  1.12417E+04  8.18630E+03  1.00872E+04  5.04726E+03  3.82728E+03  1.05759E+04
 -5.70887E+03  1.01296E+04 -4.51907E+03  4.17330E+03 -6.35704E+03 -4.75606E+03 -2.19230E+03 -1.20889E+04
  2.86711E+03 -3.78142E+03  3.27037E+03 -4.41656E+03 -6.72801E+02  1.71546E+03  3.97589E+03  7.92558E+02
  3.47746E+03  4.44140E+03 -1.49231E+03  5.37342E+03  3.19784E+03  9.57317E+02 -6.77751E+02 -2.02782E+03
  2.71021E+03  1.12686E+03  3.91638E+03  1.00704E+03  2.16740E+03 -9.27132E+02  3.32015E+03  3.60650E+03
 -1.17361E+03  6.82997E+03 -5.38848E+03 -1.15581E+03 -4.75755E+03 -7.37995E+03  2.33642E+03 -5.51249E+03
 -2.78795E+03 -3.67450E+03  2.08663E+03 -3.94736E+03  6.65759E+03  6.21249E+03  2.68358E+03  4.06299E+03
 -4.36306E+03  2.63720E+03  2.46910E+02  3.27703E+03 -1.73133E+03  1.80265E+03 -2.26940E+02 -3.02110E+03
 -2.85494E+02 -5.14664E+02 -4.21416E+03  4.19946E+03 -2.71216E+03  4.47414E+03 -5.44476E+03  2.34940E+03
 -6.94069E+03 -2.00327E+03 -1.15811E+03 -5.84551E+03 -1.56361E+03 -2.17965E+02 -2.39656E+03  3.70514E+02
  7.48949E+03 -2.36631E+03 -1.74904E+02  6.26709E+03 -1.24446E+02  5.28041E+03 -1.12319E+03  3.52763E+03
