 $NMID ID='MM_0lb_SNR50_14hz_g45_72.RAW', FMTDAT='(8E13.5)'
 TRAMP=1., VOLUME=1. $END
  3.06495E+05  3.69673E+03  3.41102E+05  2.50106E+05  8.21251E+04  3.40258E+05 -1.31235E+05  2.49168E+05
 -1.88925E+05  8.19548E+04 -1.12801E+05 -3.15741E+04 -3.36434E+02 -4.40478E+04  5.16102E+04  2.14467E+03
  4.19137E+04  5.19521E+04 -1.60444E+04  7.39205E+04 -6.08057E+04  6.73805E+04 -8.35294E+04  3.19009E+04
 -8.48597E+04 -9.96513E+03 -5.34602E+04 -5.30705E+04 -1.20226E+04 -6.81662E+04  2.49545E+04 -4.77946E+04
  3.75397E+04  7.49161E+03  1.89929E+04  5.08023E+04 -3.44565E+04  4.88664E+04 -6.87688E+04 -1.64416E+03
 -5.22536E+04 -5.74321E+04 -5.80155E+03 -7.55915E+04  3.55292E+04 -5.99141E+04  4.60579E+04 -1.78436E+04
  4.06622E+04  6.65715E+03  3.41452E+04  2.33945E+04  1.92696E+04  2.89560E+04 -9.88940E+03  2.57294E+04
 -2.49635E+04  1.51729E+04 -2.13940E+04 -8.82382E+03  7.91045E+03 -5.67568E+03  2.35569E+04  1.02025E+04
  8.46369E+03  3.32843E+04 -3.00198E+04  3.67497E+04 -6.41279E+04  8.12221E+02 -5.77409E+04 -4.22313E+04
 -7.63087E+03 -6.47337E+04  3.85159E+04 -4.18102E+04  5.50850E+04 -5.22793E+02  3.46956E+04  3.52407E+04
 -2.08359E+03  3.44435E+04 -2.80499E+04  1.96464E+04 -2.83775E+04 -5.29916E+03 -1.72863E+04 -6.21953E+03
 -1.32068E+04 -1.15016E+04  7.24023E+02 -1.84212E+04  7.65222E+03 -2.42596E+04  1.97162E+04 -1.39711E+04
  1.03402E+04  1.00287E+04 -7.30332E+03  1.12751E+04 -2.36942E+04 -6.28534E+03 -1.04881E+04 -3.64825E+04
  2.38400E+04 -3.92306E+04  5.06947E+04 -2.06516E+04  4.29846E+04  2.00806E+04  1.59148E+04  4.33678E+04
 -1.43721E+04  2.59768E+04 -2.44260E+04  2.61477E+02 -7.36839E+03 -2.33692E+04  2.08160E+04 -3.24451E+04
  4.08076E+04 -5.43347E+03  3.51046E+04  2.25718E+04  1.99265E+04  5.48419E+04 -1.27582E+04  4.85286E+04
 -3.18825E+04  3.30524E+04 -3.97758E+04  8.41343E+03 -4.43405E+04 -2.41393E+04 -2.45117E+04 -3.84563E+04
  9.05946E+03 -3.25976E+04  3.33538E+04 -1.21811E+04  2.95929E+04  1.26059E+04  3.20340E+03  2.02844E+04
 -1.27039E+04  7.50344E+03 -7.81957E+03 -7.94499E+03  2.82845E+03 -8.45273E+03  1.67202E+04  8.78828E+03
  1.45950E+04  2.56236E+04 -5.90140E+03  2.92712E+04 -1.92291E+04  1.35016E+04 -2.96617E+04 -8.34203E+03
 -1.79982E+04 -1.93057E+04 -1.27468E+04 -2.03473E+04 -1.20751E+03 -2.10561E+04  1.33214E+04 -2.33333E+04
  2.61504E+04 -9.47205E+03  2.47449E+04  5.47637E+02  2.22479E+04  1.97689E+04  4.38194E+03  3.63538E+04
 -1.43592E+04  3.17393E+04 -2.47026E+04  1.29177E+04 -2.79090E+04 -7.23842E+03 -5.98317E+03 -1.32430E+04
  2.64598E+03 -7.04737E+03 -2.40359E+03  5.05164E+03 -1.92873E+04  1.06939E+04 -1.24081E+04 -6.94083E+03
 -1.14113E+04 -1.85973E+04  4.53759E+03 -1.71046E+04  1.27455E+04 -1.20212E+04  2.04496E+04 -4.89613E+03
  8.93634E+03  1.62224E+04 -3.11412E+03  1.73296E+04 -1.50952E+04  7.39866E+03 -1.87756E+04 -2.15255E+03
 -1.60696E+04 -1.34026E+04 -1.93165E+03 -1.91943E+04  1.09997E+04 -1.67930E+04  2.05068E+04 -5.46644E+03
  1.78163E+04 -3.33027E+02  1.47170E+04  8.49593E+03  6.47788E+03  3.38217E+03  1.18898E+04 -5.64674E+03
  1.61549E+04  3.12070E+03  2.12738E+04  1.34406E+04  1.09797E+04  2.87832E+04 -7.11154E+03  3.54595E+04
 -2.44741E+04  2.72988E+04 -2.61624E+04  9.70886E+03 -3.32356E+04  6.13908E+02 -2.16546E+04 -1.70436E+04
 -1.43925E+04 -2.64802E+04  1.00974E+04 -2.28699E+04  1.99325E+04 -1.47028E+04  2.04156E+04  5.25653E+03
  5.10859E+03  9.35437E+03 -8.48471E+03  1.11757E+04 -1.67424E+04  3.30210E+03 -1.73460E+04 -1.06964E+04
 -3.08892E+01 -2.31476E+04  1.14615E+04 -1.24138E+04  9.80138E+03  3.11003E+03  7.08443E+03  4.93717E+03
 -1.45957E+04 -1.97624E+03 -5.23093E+03 -2.20662E+03 -3.33031E+03 -1.23149E+04  1.05067E+04 -1.40482E+04
  1.55497E+04 -5.88187E+03  1.74113E+04  2.67337E+03  1.54704E+04  1.08999E+04  8.95387E+03  1.78242E+04
 -1.03627E+03  2.43204E+04 -1.50889E+04  1.80801E+04 -1.44151E+04  2.04589E+03 -5.80943E+03 -4.48235E+03
 -3.44539E+03 -9.12709E+03 -2.30396E+03 -3.39656E+03 -4.24027E+03  2.60597E+03 -6.75475E+03  4.71623E+03
 -1.13259E+04  4.86827E+03 -1.29579E+04 -1.21296E+04 -3.23017E+03 -1.97389E+04  4.17011E+03 -1.84723E+04
  4.62506E+03 -4.08847E+03  8.69834E+03  3.16325E+03  5.87570E+01  3.90953E+03 -5.23552E+03 -2.37969E+03
 -4.44131E+03 -2.28002E+03  9.04854E+02 -1.29945E+04  6.15547E+03 -9.73803E+03  1.50220E+04 -1.45510E+03
  1.59199E+04  4.95894E+03  1.04983E+04  6.95484E+03 -1.26216E+03  1.09844E+04 -9.61312E+03  9.87641E+03
 -7.80888E+03  7.72049E+03 -2.44480E+03 -3.18118E+03  3.17679E+03 -7.10499E+03  6.84633E+03  4.77647E+02
  3.53090E+03  3.80002E+03  6.68279E+03  9.95663E+03  3.09894E+02  1.20302E+04 -9.58787E+03  5.28861E+03
 -3.64652E+03 -2.18099E+03 -7.30809E+02 -7.61733E+03  1.15918E+04 -3.63831E+03  1.17441E+03  7.31815E+03
 -1.46319E+03  4.36051E+03 -2.37434E+03  6.13697E+03 -4.21898E+03  2.84540E+03 -9.38016E+03 -3.92800E+03
 -5.16315E+03 -1.20019E+04  2.45030E+03 -1.29329E+04  1.05941E+04 -4.07754E+03  7.45330E+03  4.89461E+02
  2.14124E+03  6.73701E+03  2.78508E+02  1.14328E+04 -5.30756E+03  4.68480E+03 -8.64177E+03 -2.66877E+03
 -1.11952E+04 -9.28767E+03  5.57835E+02 -1.09378E+04  3.01082E+03 -7.62529E+03  1.71313E+03 -6.85398E+02
  4.50975E+03 -8.90261E+02 -2.60737E+01  1.19743E+02 -2.59168E+03 -3.13768E+02  2.80810E+03 -4.74758E+03
  5.73246E+03 -1.35886E+03  1.43669E+04  6.09048E+03  4.23533E+03  4.66161E+03  6.79566E+03  9.26438E+03
 -2.08602E+03  1.32424E+04 -7.26408E+03  1.05138E+04 -1.31785E+04  4.37396E+03 -1.04284E+04 -7.17598E+03
 -7.11182E+03 -7.54714E+03  4.02712E+03 -7.28890E+03  1.19215E+03 -2.00348E+03  1.13049E+03  1.76354E+03
  2.82782E+01  3.46024E+02  5.32487E+03 -4.87442E+03  6.85978E+02 -2.28114E+02  4.74986E+03 -2.41960E+02
  4.69625E+03 -1.66979E+03  3.02510E+03  7.30092E+03  6.68617E+02  9.16928E+03 -7.84797E+03  2.05495E+03
 -7.82060E+03  4.44906E+03 -6.05016E+03 -7.59697E+03 -2.62450E+03 -8.16655E+03  5.06763E+03 -9.52860E+03
  1.34386E+04 -6.95792E+03  1.05286E+04  4.69936E+03  6.25973E+03  6.78632E+03 -8.28807E+02  1.04124E+04
 -1.42059E+03  8.50071E+03 -6.47638E+03  2.50177E+03 -4.81612E+03 -7.82072E+02  1.89362E+03 -1.45346E+02
 -1.71617E+03  2.66522E+03 -3.71676E+03 -2.21749E+03 -3.91212E+03 -4.04250E+03 -5.80513E+03  3.77245E+03
 -3.51385E+03 -7.62128E+03  8.85710E+02 -5.94606E+03  3.33216E+03 -6.52461E+03  1.09657E+04 -6.65532E+02
  1.29295E+04  5.76143E+03  2.31503E+02  1.94930E+03  4.91492E+03  5.93102E+03 -8.07762E+03  7.27286E+03
 -1.15111E+04  6.63983E+02 -5.76923E+01 -3.41115E+03 -9.64627E+02 -8.64015E+03  2.09049E+03 -3.47536E+03
  5.74270E+03 -1.23959E+03  3.75156E+03 -6.60224E+02 -4.05679E+03  3.98780E+03 -5.03726E+02  4.37134E+03
 -2.47122E+02 -3.85986E+03  2.80934E+03  9.67114E+02  2.60224E+03  3.36776E+03  1.98519E+03  3.59075E+03
  6.40613E+02  4.87954E+03 -1.30882E+03  8.89213E+03 -6.13572E+03  1.64934E+03 -3.87002E+03 -2.16961E+03
 -1.78228E+03 -1.02800E+04  2.89882E+03 -1.07982E+04  4.31151E+03 -6.94776E+03  3.92111E+03 -3.70472E+03
  7.39551E+03  3.39595E+03  8.04534E+02  8.17062E+03  5.05471E+03  3.17077E+03 -1.29808E+03 -2.16944E+03
 -7.63085E+02 -3.37835E+03 -2.18073E+01 -4.96142E+03  2.28586E+03 -1.76820E+03  4.92208E+03 -3.41230E+03
  9.35231E+02  3.98151E+03  5.05643E+02 -2.32856E+03 -1.24031E+03  2.68730E+03  3.69585E+03 -8.72685E+02
  3.80690E+03 -6.78990E+01  3.80096E+03  7.71180E+01 -1.90109E+03  7.25492E+03  8.61053E+01  5.43665E+03
  2.83037E+02  2.08465E+03 -1.83951E+03 -1.50299E+03  7.72439E+02 -2.13878E+03 -9.55726E+02 -6.24220E+03
  1.56448E+03 -5.32282E+03  3.84740E+03  8.35359E+02  8.43680E+02  2.51619E+03 -1.50477E+03  1.07799E+03
 -2.33992E+03  4.64557E+03  1.63126E+03 -5.38415E+03 -9.53594E+02 -6.18797E+03 -2.77482E+03 -5.58613E+02
  2.56193E+03 -6.36495E+03  1.30286E+03 -4.20125E+03 -3.78877E+02 -1.45405E+02  1.04715E+03  4.88154E+02
 -3.58980E+02  5.39379E+02  1.90304E+03  3.67016E+03 -6.08195E+02  2.82865E+03 -7.83277E+02 -3.78795E+03
  4.07340E+03 -4.45738E+03  3.74146E+03  7.36342E+03  5.76441E+03  1.30619E+03 -2.36908E+03  4.93620E+03
 -4.04001E+03 -1.63003E+03  2.20507E+02 -2.59242E+03 -6.67564E+03 -2.52375E+03  5.86932E+02 -1.03686E+03
  3.09261E+03 -2.00567E+03  3.58888E+02 -2.52000E+03 -2.13941E+03  6.01350E+03 -5.43679E+02  2.02055E+03
 -5.11693E+03  4.71763E+03 -3.89987E+03 -8.99951E+02  9.99416E+02 -3.76259E+03  4.06544E+03  3.20084E+03
  8.22013E+02  3.17801E+02 -6.05855E+03  1.35736E+03 -1.72966E+03  2.97382E+03 -3.89378E+02 -3.80862E+03
 -5.49897E+03 -7.35385E+03 -3.98089E+03 -4.20864E+03  1.09597E+04 -5.91845E+03  4.43341E+03  1.60607E+03
  7.12789E+03  1.00420E+03  3.68554E+03  2.42901E+03 -1.05927E+03  2.78131E+03 -4.32523E+02  3.53001E+03
 -7.59652E+03  3.18887E+02 -2.20523E+03 -7.01194E+02  1.11460E+03 -3.05437E+03 -4.02508E+02  3.23003E+03
 -4.47689E+03 -5.75939E+02 -1.48313E+02  1.45105E+03  8.64932E+01 -1.18176E+03  2.13119E+02 -2.09761E+03
  3.28318E+03 -3.42653E+01  3.69969E+03  4.27872E+03 -1.96498E+03 -5.42961E+02 -1.37290E+03  4.84142E+03
 -5.88390E+03  2.80607E+03 -3.48015E+03  1.88153E+03 -5.15590E+03 -3.97697E+03 -1.90105E+03 -6.91775E+02
 -2.85422E+01 -6.82486E+03  5.26643E+02 -3.67447E+03  6.24424E+03 -6.54575E+02  9.77492E+03 -1.31571E+03
 -1.73692E+03 -3.57438E+02  1.42151E+03  1.77914E+03  1.10849E+03  1.70350E+03 -2.11766E+03  2.78939E+03
  2.84643E+03  5.47894E+03  7.54826E+03  2.06565E+03 -2.29722E+02  2.36615E+03 -2.45687E+03  2.81221E+03
 -1.98743E+03  7.06900E+03 -1.69582E+03 -2.48822E+03 -3.43147E+03  9.58180E+01 -8.04029E+02 -3.57531E+03
  2.92035E+03  2.29130E+03  2.36965E+03 -8.56441E+02  3.46774E+02 -3.85970E+02 -4.24701E+02  2.23256E+03
  1.98889E+03 -1.04423E+03  3.44008E+03  1.56607E+03 -3.19062E+03 -2.88113E+03  2.60190E+02  1.08125E+03
 -7.25991E+02  2.80930E+03 -2.45815E+03  4.08281E+03  3.12432E+01 -2.95108E+03 -5.05656E+03  3.79809E+03
  2.02192E+03  1.55278E+03  2.52065E+03 -1.64726E+03  3.29837E+03 -1.04191E+04  5.91093E+03  1.01487E+03
  3.01393E+02 -3.41394E+03 -1.81741E+03  1.06513E+03  6.25637E+02  3.63069E+03 -4.39783E+03  3.96147E+03
