 $NMID ID='MM_0lb_SNR50_11hz_g50_71.RAW', FMTDAT='(8E13.5)'
 TRAMP=1., VOLUME=1. $END
  3.07339E+05  3.72030E+03  3.35292E+05  2.48752E+05  8.31319E+04  3.43242E+05 -1.27852E+05  2.56728E+05
 -1.90467E+05  8.41835E+04 -1.09042E+05 -3.20811E+04 -7.40455E+02 -4.70600E+04  5.23927E+04 -2.31648E+03
  3.48825E+04  5.08738E+04 -1.67758E+04  7.56872E+04 -6.26685E+04  5.76520E+04 -8.38463E+04  3.31345E+04
 -7.98450E+04 -1.34599E+04 -5.58862E+04 -5.45881E+04 -1.26207E+04 -7.36183E+04  2.37902E+04 -4.83650E+04
  4.46112E+04  4.13447E+03  1.79577E+04  4.89115E+04 -3.41698E+04  4.81621E+04 -6.93044E+04  7.69215E+03
 -5.31005E+04 -6.17588E+04 -9.52669E+03 -7.77182E+04  3.42160E+04 -5.42929E+04  5.16225E+04 -2.08539E+04
  4.40686E+04  1.13432E+04  3.01320E+04  2.27641E+04  1.95276E+04  2.58410E+04 -3.88477E+03  2.49853E+04
 -2.15782E+04  1.50624E+04 -1.87541E+04 -8.43090E+03  1.24576E+04 -8.86355E+03  2.05636E+04  1.73672E+04
  8.98410E+03  3.73273E+04 -3.66370E+04  4.27535E+04 -6.36826E+04 -2.57895E+03 -5.68306E+04 -4.86081E+04
 -1.32556E+04 -6.29000E+04  3.68715E+04 -4.86283E+04  5.96600E+04 -2.59641E+03  3.72133E+04  3.45194E+04
 -6.25778E+03  3.42023E+04 -2.93368E+04  1.57275E+04 -3.30722E+04 -3.89755E+03 -2.16471E+04 -1.32165E+04
 -5.40566E+03 -1.46404E+04 -3.88457E+03 -1.84762E+04  8.14834E+03 -2.53038E+04  1.56179E+04 -1.34812E+04
  1.02009E+04  1.06875E+04 -5.22127E+03  1.47887E+04 -2.20776E+04 -7.44192E+03 -1.00206E+04 -3.61883E+04
  2.14957E+04 -4.40736E+04  5.57906E+04 -2.09588E+04  4.97484E+04  2.20181E+04  1.87363E+04  5.09211E+04
 -1.16782E+04  3.50185E+04 -2.81427E+04  6.06058E+02 -8.04830E+03 -2.90934E+04  1.83355E+04 -3.76583E+04
  4.22387E+04 -9.40155E+03  4.10699E+04  2.10820E+04  2.28123E+04  4.76154E+04 -1.01039E+04  5.50529E+04
 -3.95920E+04  3.51328E+04 -4.55723E+04  1.30850E+04 -4.33461E+04 -1.45365E+04 -1.62875E+04 -3.98025E+04
  9.49340E+03 -3.66973E+04  3.73691E+04 -2.01675E+04  3.15298E+04  1.75193E+04  7.22333E+03  2.25603E+04
 -1.25883E+04  2.90377E+03 -1.03269E+04 -8.41823E+03  7.36165E+03 -1.23536E+04  1.56664E+04  3.89282E+03
  1.50952E+04  2.63359E+04 -1.11132E+04  2.42744E+04 -2.62740E+04  1.16788E+04 -2.99627E+04  5.71281E+02
 -2.34600E+04 -1.93918E+04 -1.20720E+04 -1.97649E+04  7.52198E+03 -1.99482E+04  1.45450E+04 -1.88591E+04
  2.94919E+04 -6.83214E+03  3.63175E+04  3.78921E+03  2.65497E+04  2.91272E+04 -5.71455E+02  4.30679E+04
 -1.49633E+04  3.24315E+04 -2.19071E+04  1.73302E+04 -2.75565E+04 -1.15606E+04 -9.48677E+03 -1.51234E+04
  4.40145E+03  1.33015E+03 -5.32044E+03  4.58077E+03 -2.36212E+04  8.13901E+03 -1.63600E+04 -7.33763E+03
 -1.10043E+04 -2.30474E+04  4.44539E+03 -2.78232E+04  1.80340E+04 -2.17980E+04  1.85860E+04 -5.00882E+03
  1.05036E+04  1.91000E+04  4.86420E+03  2.55794E+04 -1.77445E+04  1.48785E+04 -2.72750E+04 -5.75502E+03
 -1.88790E+04 -1.75080E+04  4.36018E+03 -2.68522E+04  1.05356E+04 -2.45842E+04  1.80046E+04 -1.91176E+04
  1.59629E+04  1.75004E+03  2.13293E+04  6.25485E+03  3.59007E+03 -3.54485E+03  8.33010E+03 -1.49839E+03
  2.02477E+04 -1.66538E+03  1.72627E+04  1.47388E+04  1.44811E+04  3.38658E+04 -6.77025E+03  3.77206E+04
 -1.77177E+04  4.01923E+04 -3.80908E+04  1.25450E+04 -3.66428E+04  5.70788E+01 -3.10748E+04 -2.47937E+04
 -1.18174E+04 -3.68970E+04  6.96461E+03 -3.32390E+04  2.57608E+04 -1.44290E+04  1.84604E+04  9.44464E+03
  1.07174E+04  2.28392E+04 -8.57086E+03  1.24833E+04 -2.12955E+04  1.38744E+03 -1.57220E+04 -8.29899E+03
 -1.67439E+03 -1.47091E+04  9.37127E+03 -1.39106E+04  9.62861E+03 -1.98050E+03  1.81686E+03  1.07346E+04
 -7.92495E+03  3.75957E+03 -3.75325E+03 -9.00163E+03 -3.23822E+03 -1.49512E+04  1.01640E+04 -2.12313E+04
  2.03611E+04 -7.73861E+03  2.01537E+04 -3.00600E+03  1.64432E+04  1.82625E+04  1.65895E+04  2.63047E+04
 -1.82433E+03  3.26444E+04 -1.72569E+04  2.03840E+04 -2.04048E+04  2.59011E+03 -1.26278E+04 -4.89146E+03
 -1.12734E+04 -3.72272E+03 -1.69746E+03 -1.88858E+03 -6.65285E+03  6.17320E+03 -2.63216E+03  2.41164E+03
 -1.20955E+04 -1.95510E+03 -1.76365E+04 -1.05706E+04 -7.46862E+03 -1.53892E+04  3.88661E+03 -1.06697E+04
  1.19891E+04 -3.77994E+03  1.05535E+04  3.38236E+03 -1.36125E+03  6.56446E+03 -6.47250E+03  9.21061E+02
 -8.26348E+03 -3.64647E+03 -1.91709E+03 -1.50171E+04  5.72938E+03 -1.48897E+04  1.63874E+04 -4.97049E+03
  2.11285E+04  7.28471E+03  1.84112E+04  1.17963E+04  4.18258E+03  1.89256E+04 -3.52128E+03  1.24098E+04
 -1.29239E+04  4.27328E+03 -9.27221E+03 -1.08195E+03  5.60448E+01 -5.27326E+03  8.76789E+03  1.58043E+03
  7.36594E+03  8.53733E+03  3.26611E+01  8.52251E+03 -4.92544E+03  1.05215E+04 -1.44135E+04  2.28502E+03
 -6.56731E+03 -2.79153E+03 -5.16132E+02 -1.18359E+04  8.72656E+03 -1.08476E+04  6.83507E+03 -1.55769E+03
  1.73295E+03  5.80704E+03 -3.89713E+03  1.65861E+04 -8.89114E+03  8.75872E+03 -1.35335E+04  2.18709E+03
 -1.02179E+04 -6.14574E+03 -6.05929E+02 -1.43701E+04  5.62735E+03 -8.83477E+03  1.60815E+04  1.39787E+03
  1.51445E+02  1.32023E+04 -5.58613E+03  1.66773E+04 -6.50269E+03  5.14425E+03 -9.21040E+03 -6.75656E+03
 -8.67645E+03 -8.90178E+03  3.24020E+03 -6.32989E+03  4.63153E+03 -6.23357E+03  6.76469E+03 -6.14103E+03
  9.84912E+03  3.68071E+03 -4.14139E+03  5.21914E+03 -6.24477E+03 -2.45687E+03 -4.29320E+03 -1.28953E+04
  1.07896E+04 -2.96690E+03  1.70136E+04 -8.43508E+02  1.79480E+04  1.35268E+04  8.50528E+03  1.66964E+04
 -3.47200E+03  2.42730E+04 -1.33986E+04  1.74321E+04 -2.44461E+04 -3.20370E+03 -1.56531E+04 -7.97917E+03
 -8.61551E+03 -1.66048E+04 -1.84578E+03 -1.08421E+04  8.43897E+03 -6.57870E+03  4.11913E+03 -7.21934E+03
  5.62292E+03  1.05454E+02  1.70864E+03  3.35704E+03  3.76760E+03 -1.02936E+03  1.08421E+04 -1.82068E+03
  8.31242E+03 -7.37603E+02  1.77655E+03  1.35007E+04 -2.01438E+03  7.32221E+03 -1.09856E+04  1.10734E+04
 -8.27073E+03  1.81412E+03 -8.05092E+03 -7.50963E+03  1.46001E+03 -1.19143E+04  5.83998E+03 -1.18374E+04
  1.50383E+04 -9.54152E+03  1.42611E+04  6.25035E+03  8.31453E+03  8.18628E+03 -1.69549E+03  1.27290E+04
 -5.28746E+03  9.98932E+03 -4.54484E+03  1.97647E+03 -3.14153E+03 -2.89880E+03 -3.89105E+03  7.24184E+02
  2.88439E+03 -3.74744E+03 -3.82331E+03  2.87043E+03 -9.55035E+03  2.56290E+03 -1.16835E+04 -1.53220E+03
 -2.44693E+03 -9.05426E+03 -6.24654E+03 -1.09823E+04  7.83308E+03 -1.24388E+04  9.07261E+03  3.32808E+02
  1.08704E+04  7.49458E+03 -1.11178E+03  1.48919E+04  1.02259E+03  1.38567E+04 -9.75817E+03  6.33133E+03
 -1.02825E+04  9.49458E+02 -1.03680E+04 -1.07804E+04 -4.03167E+03 -1.17939E+04  6.28501E+03 -9.06184E+03
  7.24738E+03 -3.54788E+03  1.17389E+03  2.55963E+03 -2.34139E+03  9.20622E+03 -5.00026E+02  2.49225E+03
  1.26112E+03  3.44855E+03  4.21534E+03  2.90973E+03  8.89604E+03  3.71028E+03  1.09574E+03  2.00286E+03
 -2.09719E+03  1.14163E+04 -6.74567E+03  1.25162E+04 -1.55092E+04 -2.48300E+03 -1.19034E+04 -5.44195E+03
 -7.37843E+03 -1.19890E+04 -3.09823E+03 -1.57071E+04  3.09394E+03 -6.79190E+03  8.12287E+03  8.02255E+03
  7.33074E+03  5.07419E+03  9.88817E+01  1.33373E+03 -2.63838E+01  9.04530E+03 -4.26995E+03  5.03714E+03
 -3.89726E+03 -4.87274E+03  1.12916E+04 -5.13269E+03  1.66098E+03 -5.79882E+03  5.50429E+03 -3.87918E+02
  8.19332E+03  3.96179E+03  2.21870E+03  2.20766E+03 -5.30383E+03  3.46921E+03  4.90325E+02 -8.99648E+02
  2.74055E+02 -3.41627E+03  5.09125E+03  1.95058E+03 -2.76315E+03  5.12320E+03 -2.33527E+03  5.58115E+03
 -1.87558E+03  5.21149E+03 -8.22639E+03  5.00438E+03 -4.39715E+03 -4.18252E+03  1.67851E+03  6.99115E+01
  8.54476E+03 -8.68797E+03  2.35853E+03 -3.05376E+03  6.46988E+03  4.30101E+03 -3.39271E+03  5.41586E+03
 -1.16058E+03 -6.15128E+02 -7.75742E+03 -3.09483E+02 -3.65461E+03 -5.99056E+02 -1.30930E+02 -4.96748E+03
  3.70232E+03 -7.36686E+03  7.30983E+03 -6.34566E+03  1.00660E+02  1.35245E+03 -1.22833E+03 -1.08881E+03
 -4.52498E+03  1.55817E+03 -7.23486E+03 -5.10078E+03 -1.74134E+02 -2.06001E+03  1.07078E+04 -4.27052E+03
  9.18459E+03  7.15966E+03  3.12989E+03  5.99368E+03  2.84791E+03  8.01760E+03 -3.60086E+03  1.23504E+04
 -1.05636E+04  1.79020E+03 -6.20812E+03  1.18287E+03  7.51622E+01 -5.32541E+03  1.52221E+03 -3.76194E+02
  2.29940E+03  9.66857E+02  5.48839E+03  2.97690E+02  3.27163E+03  1.75689E+03 -5.53981E+02  1.80248E+03
 -6.14105E+03  1.97077E+03 -3.24284E+03  3.48736E+03  1.88650E+03 -4.13771E+02 -2.56738E+03  9.59649E+02
 -3.73069E+03  3.82950E+03 -5.55965E+03  3.71526E+03 -1.19530E+04 -4.14671E+02 -2.49233E+03 -5.43070E+03
 -9.92878E+03 -8.44096E+03  1.65092E+03 -1.31916E+04  3.89780E+03 -7.06499E+03  6.78046E+03 -8.64658E+03
  5.29800E+03 -2.73364E+03  8.01761E+03  1.23333E+04  1.12433E+03  8.70303E+03 -3.60636E+03  8.41501E+02
 -1.35995E+03  4.35382E+03 -1.07282E+03  7.37294E+02 -6.18919E+02  3.12711E+03 -2.84400E+03  1.35744E+03
 -6.56681E+02  2.75387E+03  2.12558E+03 -1.46657E+02 -3.69737E+03 -4.98410E+03  5.60704E+03 -4.70716E+03
  5.14980E+03 -2.74550E+03  6.03163E+03 -4.81153E+03  7.65810E+03  4.44895E+03  4.61095E+03  1.14423E+04
  3.40774E+03  1.02400E+04 -9.92380E+03  4.55200E+03 -1.05318E+04  3.06388E+02 -4.85893E+03 -4.67294E+03
  3.16482E+03 -1.36166E+04  7.87579E+03 -5.40928E+03  1.91420E+03 -4.95245E+03  4.87263E+03 -1.42886E+03
  6.80477E+03  1.29945E+03  4.40692E+03  8.62195E+03 -5.70375E+03  9.13648E+01 -1.75209E+03 -1.45568E+03
  6.20959E+03  4.17680E+03  1.71840E+03  2.39440E+03  7.06651E+03  2.39605E+03 -2.27183E+01 -1.80725E+02
 -5.21347E+03  3.09291E+03 -7.36071E+03 -3.93915E+03 -9.35079E+03 -8.64758E+03  1.18505E+03 -5.77746E+03
  5.67787E+03 -3.62991E+03  6.38322E+03  1.01289E+02  2.22068E+03  7.37039E+02  1.87011E+03 -2.93649E+03
  2.34782E+02  7.99336E+03  2.08211E+03  4.80062E+02 -8.23819E+03  2.41854E+03 -3.85182E+03  3.02851E+00
 -5.10557E+02 -8.10788E+02 -7.11193E+03 -2.56116E+03 -3.05326E+02  5.73354E+03 -9.68905E+02 -1.66016E+01
 -9.38905E+02  8.42054E+02 -6.76279E+03 -4.06017E+03  1.50122E+03 -3.90935E+03  6.56834E+03 -3.40013E+03
  3.33087E+03 -7.40602E+03 -3.55463E+03  4.79064E+03  1.93380E+03  4.69290E+03 -5.71232E+03  4.46170E+03
