 $NMID ID='MM_0lb_SNR50_8hz_g55_34.RAW', FMTDAT='(8E13.5)'
 TRAMP=1., VOLUME=1. $END
  3.09698E+05  2.77090E+03  3.34861E+05  2.50304E+05  8.74867E+04  3.39955E+05 -1.28219E+05  2.53843E+05
 -1.87488E+05  8.87261E+04 -1.07059E+05 -2.94619E+04 -2.13725E+03 -5.20499E+04  5.54153E+04 -4.94169E+03
  3.78018E+04  5.74624E+04 -1.18713E+04  7.96125E+04 -5.77603E+04  6.56728E+04 -8.49839E+04  3.26654E+04
 -8.61574E+04 -4.66329E+03 -4.84930E+04 -6.21774E+04 -1.09376E+04 -7.57811E+04  2.89874E+04 -4.78910E+04
  4.62001E+04  2.41026E+03  2.19702E+04  5.17269E+04 -3.39398E+04  4.85393E+04 -7.25723E+04  2.61755E+01
 -5.45895E+04 -5.71643E+04 -3.89814E+03 -8.07952E+04  3.57559E+04 -5.35088E+04  5.40662E+04 -1.96694E+04
  4.09660E+04  9.45189E+03  3.79943E+04  2.45541E+04  2.31015E+04  2.41682E+04 -7.67533E+03  2.33346E+04
 -2.58780E+04  1.13882E+04 -2.49634E+04 -9.28720E+03  9.47607E+03 -6.20032E+03  2.13164E+04  1.60700E+04
  9.17471E+03  4.76766E+04 -2.90509E+04  3.79627E+04 -6.53894E+04 -1.38932E+03 -5.99784E+04 -4.72838E+04
 -7.00718E+03 -6.04482E+04  4.27496E+04 -4.82572E+04  5.79778E+04  1.13932E+03  3.46794E+04  3.74315E+04
 -5.28108E+03  3.88602E+04 -2.77179E+04  1.85414E+04 -3.61664E+04 -6.94073E+03 -2.17997E+04 -2.01609E+04
 -2.05647E+04 -1.28229E+04  8.42778E+02 -1.88951E+04  8.62086E+03 -2.07001E+04  1.34578E+04 -5.15632E+03
  2.07241E+04  7.73711E+03 -9.31763E+03  1.06511E+04 -2.28378E+04 -1.11085E+04 -1.30510E+04 -4.12864E+04
  2.52041E+04 -4.78100E+04  5.04556E+04 -1.73150E+04  6.01701E+04  2.22121E+04  1.38626E+04  4.98674E+04
 -1.54810E+04  3.65856E+04 -3.44618E+04  5.26246E+02 -7.44269E+03 -3.71336E+04  1.86501E+04 -4.39136E+04
  4.27071E+04 -5.12646E+03  3.90649E+04  2.52358E+04  2.52228E+04  5.36820E+04 -7.36698E+03  6.22529E+04
 -3.89868E+04  3.54504E+04 -5.32277E+04  1.32132E+04 -5.07719E+04 -2.19278E+04 -2.77227E+04 -4.94090E+04
  9.46937E+03 -4.64987E+04  3.32524E+04 -1.81297E+04  2.89776E+04  1.04220E+04  3.06317E+03  2.06682E+04
 -1.61503E+04  9.52408E+03 -1.11854E+04 -5.84343E+03  4.00968E+03 -9.59631E+03  1.55455E+04  6.58094E+02
  1.82629E+04  2.59766E+04 -4.49523E+03  2.43142E+04 -2.40651E+04  1.42711E+04 -2.87669E+04 -4.39087E+03
 -2.49352E+04 -2.31247E+04 -1.23755E+04 -3.02954E+04  4.27283E+03 -2.67180E+04  1.84273E+04 -2.09370E+04
  2.73893E+04 -1.72841E+04  3.81238E+04  9.27031E+03  2.91212E+04  2.14216E+04  1.11378E+04  4.38377E+04
 -2.36703E+04  3.35037E+04 -2.40076E+04  9.54469E+03 -2.54914E+04 -2.29775E+03 -2.42426E+03 -1.64650E+04
 -4.47604E+02 -1.50125E+03 -1.11968E+04  2.01764E+04 -2.64384E+04  5.86113E+03 -2.24196E+04 -5.17745E+03
 -1.34336E+04 -2.65480E+04  5.21140E+03 -3.13146E+04  2.30584E+04 -1.67818E+04  1.96606E+04 -2.70825E+03
  1.14066E+04  1.48151E+04  5.30224E+02  2.48791E+04 -1.39146E+04  2.05188E+04 -2.75191E+04 -1.22427E+04
 -1.88394E+04 -1.49438E+04  4.74383E+03 -3.00259E+04  1.01012E+04 -1.96211E+04  3.03377E+04 -1.42283E+04
  2.01171E+04  1.68058E+02  1.50275E+04  1.08271E+04  7.43710E+03  5.61492E+03  9.27959E+03 -9.88685E+03
  2.94493E+04  2.84495E+03  2.67705E+04  2.27781E+04  2.49576E+04  3.76028E+04 -8.75497E+03  4.18621E+04
 -2.74111E+04  3.80017E+04 -4.48517E+04  1.62542E+04 -5.57732E+04 -2.32906E+03 -3.73825E+04 -2.54084E+04
 -1.42681E+04 -3.37323E+04  1.61005E+04 -3.76240E+04  2.97275E+04 -2.04825E+04  2.39515E+04  3.66141E+03
  1.45000E+04  2.32477E+04 -8.80295E+03  1.18830E+04 -2.31288E+04 -5.95647E+02 -2.31416E+04 -1.06330E+04
 -1.62274E+03 -2.19502E+04  1.47413E+04 -2.09341E+04  1.43163E+04  3.34038E+02  4.18322E+03  1.11554E+04
 -1.44457E+04  3.72860E+03 -7.88611E+03 -1.10106E+04 -2.14150E+03 -1.55798E+04  1.58370E+04 -2.84109E+04
  2.20680E+04 -1.19639E+04  2.71623E+04  1.55949E+03  1.89167E+04  2.16992E+04  1.01940E+04  3.00957E+04
 -2.60157E+03  3.02829E+04 -1.99425E+04  2.08173E+04 -2.50844E+04  7.34282E+03 -2.20485E+04 -1.75169E+04
 -6.68037E+03 -4.91655E+03 -4.15879E+03 -1.83967E+02 -6.85074E+03  4.43508E+03 -4.28153E+03  5.90145E+03
 -9.41942E+03 -2.32774E+03 -9.88949E+03 -1.15916E+04 -3.79382E+02 -2.23438E+04  1.51159E+04 -1.38250E+04
  1.57891E+04 -5.99449E+03  8.18658E+03  1.36222E+03  5.42066E+03  1.93338E+03 -1.80957E+04  1.16387E+03
 -1.08206E+04 -1.23493E+04 -1.15603E+03 -1.59306E+04  1.50372E+04 -2.14030E+04  1.99542E+04 -6.15145E+03
  3.42507E+04  5.59113E+03  1.83660E+04  1.85410E+04 -5.11956E+03  1.29113E+04 -1.33062E+04  1.79063E+04
 -8.16209E+03  7.72027E+03 -9.29015E+03 -3.84569E+03  8.55225E+03 -3.54998E+03  5.97597E+03 -4.21607E+03
  1.11408E+04  7.78413E+03  4.67217E+03  1.05007E+04 -9.63895E+03  9.28620E+03 -1.99854E+04 -5.21797E+03
 -7.07217E+03 -6.69724E+03  1.06757E+03 -2.35790E+04  1.09591E+04 -1.48799E+04  8.37660E+03  4.21534E+03
  4.36033E+03  1.85475E+04 -1.02783E+04  9.68300E+03 -2.02801E+04  4.09157E+02 -2.25971E+04 -4.98240E+03
 -5.05801E+03 -1.34017E+04  5.37264E+03 -2.05713E+04  1.47114E+04 -1.34227E+04  1.87749E+04  7.20158E+03
  9.02860E+03  1.81933E+04  4.11517E+02  1.78105E+04 -1.23851E+04  1.65158E+04 -1.22519E+04 -4.42928E+03
 -1.00306E+04 -1.32862E+04 -5.16045E+03 -6.70089E+03  5.63620E+03 -1.42765E+04  1.01680E+04  3.72729E+03
 -3.47135E+03 -1.03172E+03 -9.59661E+02  5.94914E+02 -2.58991E+03 -1.10776E+04  6.32855E+03 -6.12890E+03
  1.85541E+04 -3.39821E+03  8.32029E+03  7.75564E+03  1.76480E+04  1.44520E+04  8.74256E+03  2.92002E+04
 -8.63194E+03  2.80591E+04 -2.24764E+04  2.23317E+04 -2.69474E+04 -9.43869E+02 -2.07580E+04 -1.26019E+04
 -9.24971E+03 -2.04579E+04 -5.15744E+03 -1.71865E+04  9.34191E+03 -1.34900E+04 -9.99346E+02 -6.67744E+03
  4.17778E+01 -1.93462E+02  8.80248E+03 -6.06001E+03  1.49964E+04 -7.82700E+02  6.16743E+03 -8.68477E+03
  1.34290E+04 -1.88177E+02  2.39291E+03  1.28107E+04  7.32336E+03  1.24835E+04 -1.19840E+04  1.57461E+04
 -1.51273E+04  2.00303E+03 -1.33033E+04 -1.46040E+04  2.54954E+02 -1.66709E+04  1.18706E+04 -2.09609E+04
  1.54693E+04 -5.61529E+03  2.30211E+04  4.59701E+02  1.90020E+04  1.38995E+04 -1.33019E+03  1.86762E+04
 -1.48032E+04  1.36262E+04 -2.30286E+04  7.06731E+03 -7.20249E+03  3.51964E+03 -1.94348E+03 -6.38977E+03
 -2.10227E+03  5.62125E+03 -3.83949E+03 -3.83816E+03 -7.96267E+03  3.91734E+03 -1.00863E+04 -5.34122E+03
 -1.15282E+04 -1.98640E+04  4.14031E+03 -1.38592E+04  1.73006E+04 -1.66424E+04  1.15285E+04 -3.74051E+03
  1.69392E+04  1.34890E+04  1.29213E+04  2.03645E+04 -5.87406E+03  1.37219E+04 -1.17306E+04  1.64483E+04
 -1.04071E+04 -1.15872E+03 -1.12072E+04 -8.33455E+03  1.00523E+03 -1.56997E+04  1.22799E+04 -7.26470E+03
 -1.28347E+03 -4.64038E+03  9.53333E+03  8.21110E+02  3.01228E+02  1.32324E+04  6.27708E+03  3.30299E+03
  4.40401E+03 -9.17190E+00  4.21802E+03  1.93424E+03  4.85945E+03  1.05514E+04  7.83534E+03  2.53306E+03
 -6.59564E+03  1.61980E+04 -1.53168E+04  1.11188E+04 -1.87073E+04  2.29638E+03 -1.37000E+04 -1.39507E+03
 -6.28480E+03 -1.77395E+04  3.39981E+03 -2.49853E+04  1.13006E+04 -1.44972E+04  1.27335E+04  3.29193E+03
  4.22114E+03  7.73748E+03  1.56163E+03  5.56838E+03 -7.79796E+03  3.63375E+03 -9.56347E+03 -7.25215E+03
  6.47424E+02 -9.59378E+03  5.51758E+03 -3.74198E+03  5.50937E+03  2.15285E+02  4.03438E+03  4.31767E+03
  5.46011E+03  7.99627E+03  9.91862E+03  8.21738E+03 -7.16810E+03  3.63533E+03  4.37272E+03 -2.02125E+03
  6.68517E+03 -1.99953E+02  8.66822E+03  1.11547E+02  7.00779E+03  9.58526E+03 -2.12375E+03  1.71165E+04
 -1.02889E+04  4.83892E+03 -8.25809E+03  1.60979E+03 -1.00183E+04 -6.50738E+03 -8.93849E+03 -1.31923E+04
  5.47054E+03 -8.08507E+03  2.62784E+03  9.52065E+02  2.27473E+02  6.07742E+03 -3.45464E+03  3.03030E+03
 -1.11440E+03  6.02956E+03 -1.26000E+04 -4.92006E+03 -1.04148E+04 -6.70015E+03  6.25277E+03 -1.23436E+04
  7.88905E+03 -8.51877E+03  1.00001E+04 -7.50918E+03  8.32683E+03  1.53520E+03  1.64791E+03  8.03186E+03
 -5.86669E+03 -2.37085E+03 -7.89424E+02 -1.03858E+04  1.54317E+03 -2.92441E+03  5.65105E+03 -7.41130E+03
  1.19084E+04  9.39056E+02  7.13990E+03  1.15426E+04  8.74075E+03  1.43124E+04 -5.43935E+03  1.03788E+04
 -1.26208E+04  2.71672E+03 -9.65543E+03  2.02807E+03 -7.24563E+03 -5.79794E+03  5.53236E+03 -1.24988E+04
  6.11542E+03 -9.01607E+02  6.33683E+03  1.61716E+03  2.61743E+03  5.41934E+03 -2.59471E+03  6.90082E+03
 -1.08166E+03  1.82966E+03 -1.10357E+03  3.29788E+03  4.25089E+03  3.38516E+03 -4.40627E+02  1.70363E+03
 -2.80083E+03  4.53142E+03 -4.67853E+03 -6.11197E+01 -1.81708E+04 -9.12981E+02 -1.43277E+04 -2.02125E+03
 -4.44347E+03 -1.79983E+04  8.53007E+02 -2.04126E+04  7.37698E+03 -1.39156E+04  1.20289E+04 -6.51266E+03
  9.76935E+03  3.53009E+03  1.43178E+04  1.22155E+04  6.45660E+03  6.27123E+03 -4.35595E+03  1.39645E+04
 -6.60201E+03  2.82720E+03 -5.36143E+03 -5.00461E+03 -1.95691E+03 -1.05579E+03 -3.13193E+03 -3.67936E+03
  3.93365E+03 -7.12877E+02 -7.38000E+03 -2.73010E+03 -2.61646E+03 -7.74781E+03 -3.16896E+03 -2.95630E+03
  7.76978E+03  5.78860E+02  6.53446E+03 -2.26502E+03  1.31843E+04  7.89086E+03  6.82128E+03  1.00427E+04
 -4.08627E+03  1.45816E+04 -1.43250E+04  4.99969E+03 -1.27405E+04 -3.85924E+03 -9.31963E+03 -1.74420E+04
 -2.45748E+03 -1.52838E+04  8.54768E+03 -1.03743E+04  9.39775E+03 -5.92810E+03  1.01870E+04  1.71238E+03
 -1.77328E+03  6.87904E+03 -1.00007E+03  4.74968E+03 -5.05052E+03 -6.41884E+03 -1.22891E+03  5.19083E+02
  8.19222E+03  5.79089E+02  3.97391E+03  3.29813E+03  1.01190E+03  3.80644E+03  4.72462E+02  4.02123E+03
 -1.06415E+04  9.66478E+03 -1.35927E+04  4.33022E+03 -1.09500E+04 -8.77292E+03  8.02226E+02 -1.46996E+04
  1.97570E+03 -9.60631E+03  8.00717E+03 -3.18610E+03  1.07305E+04  7.42200E+02  1.35561E+04  7.61540E+03
  6.00875E+02  8.21101E+03 -4.77643E+02  4.03717E+03 -8.68340E+03 -9.63635E+02 -1.64878E+03 -3.64804E+02
 -3.42752E+03  8.14069E+02  1.48289E+03 -3.64197E+03 -3.90444E+02  9.64970E+02 -5.72768E+03  2.55230E+03
 -5.45622E+03 -1.08645E+04 -5.75494E+03 -1.21707E+04  5.15653E+03 -8.03048E+03  1.02226E+04 -1.86513E+03
  8.82958E+03 -8.34774E+02  5.26202E+03  6.85278E+03  2.10448E+03  5.55235E+03 -8.00828E+03  8.47443E+03
