 $NMID ID='MM_0lb_SNR50_7hz_g55_30.RAW', FMTDAT='(8E13.5)'
 TRAMP=1., VOLUME=1. $END
  3.09634E+05 -1.00764E+03  3.41303E+05  2.46201E+05  8.16187E+04  3.36862E+05 -1.31349E+05  2.51129E+05
 -1.86245E+05  8.09609E+04 -1.17630E+05 -2.75851E+04  4.14319E+03 -3.78145E+04  4.60350E+04 -6.44761E+03
  3.43445E+04  5.48567E+04 -1.45727E+04  7.84986E+04 -5.17330E+04  5.74144E+04 -8.55156E+04  3.08630E+04
 -8.27816E+04 -1.09054E+04 -5.90118E+04 -6.13992E+04 -1.55369E+04 -7.03365E+04  2.47236E+04 -4.84782E+04
  4.44329E+04  4.13115E+03  1.85317E+04  4.58014E+04 -3.41154E+04  5.72656E+04 -6.71416E+04  3.78033E+03
 -5.39483E+04 -5.93196E+04 -7.99229E+03 -7.99316E+04  3.42720E+04 -6.04494E+04  4.40679E+04 -2.12137E+04
  4.56395E+04  1.20613E+04  3.23601E+04  2.99028E+04  1.66330E+04  2.55364E+04 -9.09577E+03  2.86985E+04
 -3.19803E+04  1.52442E+04 -1.63838E+04 -2.44734E+03  7.44111E+03 -8.70685E+03  2.51275E+04  1.48336E+04
  2.28087E+03  4.08853E+04 -3.60982E+04  3.75476E+04 -6.72861E+04  2.80266E+03 -6.36807E+04 -5.02341E+04
 -1.12342E+04 -6.83625E+04  4.24119E+04 -4.18073E+04  6.19011E+04 -1.88399E+03  3.52594E+04  3.92476E+04
 -4.71061E+03  3.89391E+04 -3.11139E+04  2.29354E+04 -3.29646E+04 -3.24461E+02 -1.53844E+04 -1.29617E+04
 -1.22672E+04 -2.32572E+04  7.41184E+03 -2.04769E+04  9.56356E+03 -2.30995E+04  1.61473E+04 -1.35352E+04
  1.22035E+04  1.20876E+04 -3.53810E+03  1.81514E+04 -2.35810E+04 -1.23975E+04 -8.40637E+03 -4.02055E+04
  1.87177E+04 -5.37500E+04  6.00918E+04 -2.46925E+04  5.62710E+04  1.50765E+04  1.73149E+04  4.91547E+04
 -1.91645E+04  4.25385E+04 -2.03292E+04 -1.55306E+03 -1.04122E+04 -2.99014E+04  2.12652E+04 -3.54297E+04
  4.58482E+04 -1.24130E+04  4.23174E+04  3.25894E+04  2.24153E+04  5.25152E+04 -5.60943E+03  5.19594E+04
 -3.46841E+04  4.01509E+04 -5.08119E+04  8.31162E+03 -5.22943E+04 -2.36728E+04 -2.81226E+04 -4.50223E+04
  6.19374E+03 -4.41522E+04  4.36468E+04 -1.53086E+04  3.55025E+04  4.79480E+03  6.21809E+03  1.53781E+04
 -1.12655E+04  1.57970E+04 -9.87961E+03 -3.66471E+02  1.02536E+03 -1.22285E+04  1.83147E+04  8.89494E+03
  1.54019E+04  2.88754E+04 -4.18958E+03  2.24237E+04 -2.26897E+04  1.37068E+04 -2.95091E+04 -2.83362E+03
 -2.70619E+04 -2.11694E+04 -1.41119E+04 -2.22494E+04  6.11758E+03 -2.55018E+04  1.87590E+04 -2.44802E+04
  4.38475E+04 -1.27556E+04  4.09449E+04  7.26756E+03  2.81978E+04  2.33073E+04  4.98635E+03  4.66964E+04
 -2.26225E+04  3.31431E+04 -2.69545E+04  1.64868E+04 -2.38503E+04 -8.81824E+03 -7.95945E+03 -1.15702E+04
 -2.75989E+03  2.79002E+03 -5.80823E+03  5.98308E+03 -1.80186E+04  6.07674E+03 -1.91255E+04 -5.24867E+03
 -1.74011E+04 -2.70479E+04  6.13090E+03 -3.25381E+04  3.04377E+04 -1.76814E+04  2.02900E+04 -1.34588E+03
  1.67431E+04  1.67363E+04  2.97441E+03  2.35581E+04 -1.80197E+04  1.41474E+04 -3.30081E+04 -1.13751E+04
 -2.09775E+04 -2.10428E+04 -7.34407E+03 -2.72210E+04  2.09003E+04 -2.61305E+04  2.44706E+04 -2.12208E+04
  2.89820E+04 -3.12846E+03  2.14421E+04  1.06643E+03  1.08504E+04  5.52966E+03  8.80806E+03 -2.67860E+03
  2.70482E+04  4.00519E+03  1.92721E+04  2.12119E+04  2.36451E+04  4.47541E+04 -4.82658E+03  5.17563E+04
 -3.02171E+04  4.15588E+04 -4.37585E+04  2.71157E+04 -5.53221E+04 -6.04845E+03 -4.21746E+04 -2.49552E+04
 -2.04301E+04 -4.69481E+04  1.72936E+04 -4.77374E+04  3.02667E+04 -1.85810E+04  2.32038E+04  4.87600E+03
  7.97979E+03  2.59316E+04 -1.60913E+04  1.42354E+04 -2.16615E+04  7.19740E+03 -2.30840E+04 -1.13488E+04
  6.47019E+03 -2.09354E+04  7.33407E+03 -1.68568E+04  1.49017E+04  2.48966E+03  2.89087E+03  1.00831E+04
 -1.28836E+04  4.79854E+02 -1.25424E+04 -8.14954E+03  9.66983E+02 -2.31195E+04  1.60613E+04 -2.39529E+04
  2.46628E+04 -1.53013E+04  3.77512E+04 -4.07478E+03  3.62523E+04  2.19256E+04  1.20803E+04  3.52362E+04
 -2.73930E+03  3.23214E+04 -1.83354E+04  2.55539E+04 -2.86098E+04 -2.83335E+02 -1.46340E+04 -4.86498E+03
 -6.93164E+03 -5.70101E+03 -1.18331E+03 -2.58348E+03 -4.49993E+03  5.31822E+03 -9.90522E+03  6.04290E+03
 -1.39184E+04  2.87920E+03 -1.45337E+04 -1.33672E+04 -9.57337E+03 -2.60939E+04  1.10301E+04 -1.83368E+04
  1.43529E+04 -5.59023E+03  1.23427E+04  7.15279E+03  4.34509E+03  5.56460E+03 -1.45238E+04 -5.58761E+02
 -6.02428E+03 -1.28223E+04  1.90257E+03 -1.97922E+04  7.69386E+03 -2.21309E+04  2.51816E+04 -1.26179E+04
  2.83820E+04 -2.88027E+03  2.10076E+04  1.49170E+04  6.11971E+03  2.72766E+04 -9.79886E+03  2.22716E+04
 -1.02847E+04  2.83168E+03 -7.32560E+03 -9.69469E+03 -1.79695E+02 -5.78907E+03  1.00196E+04 -3.39777E+03
  1.30977E+04  3.23851E+03 -2.97118E+02  1.38511E+04 -8.02869E+03  1.08535E+04 -1.90347E+04  3.23732E+03
 -9.42562E+03 -1.67254E+04 -2.70879E+03 -9.74164E+03  1.41802E+04 -6.35640E+02  1.22635E+04  7.96680E+03
  8.88035E+03  7.16840E+03 -1.24879E+04  1.09169E+04 -1.88414E+04  8.13269E+03 -2.08930E+04 -1.15356E+04
 -1.44748E+04 -2.25287E+04  4.27657E+02 -2.04632E+04  2.28259E+04 -1.27527E+04  2.40757E+04  6.56060E+02
  2.03717E+04  1.70615E+04 -7.29547E+03  2.42632E+04 -1.50660E+04  1.51547E+04 -1.58070E+04  3.24229E+03
 -9.73478E+03 -1.26106E+04 -7.33747E+03 -1.28679E+04  1.39376E+02 -9.53385E+03  2.91982E+03 -5.09393E+03
  8.68653E+03  8.60134E+03  3.82579E+01  7.20123E+03 -2.90216E+02  4.39503E+03  6.93152E+03 -1.07207E+04
  1.13101E+04 -7.56755E+03  2.10445E+04  1.06384E+04  2.31830E+04  1.32550E+04  1.26701E+04  2.73592E+04
 -2.99016E+03  2.59856E+04 -2.14190E+04  2.01791E+04 -3.03210E+04  7.30914E+02 -1.93967E+04 -9.26985E+03
 -2.14718E+04 -1.60472E+04  6.43355E+03 -1.71306E+04  7.40748E+03 -6.23982E+03  4.99236E+03 -1.23360E+04
  2.36290E+03 -1.28460E+03  1.45525E+03 -2.77591E+03  5.11126E+03  5.25559E+02  1.59980E+04 -1.75797E+03
  8.65315E+03 -3.50897E+03  5.63295E+03  1.51929E+04 -7.83837E+03  1.34407E+04 -1.78999E+04  1.10653E+04
 -1.52200E+04  3.57462E+03 -6.35574E+03 -1.56360E+04 -1.30427E+03 -2.34025E+04  9.50147E+03 -2.73199E+04
  2.22373E+04 -1.41428E+04  2.37384E+04  9.00558E+03  1.72956E+04  2.50444E+04  7.54038E+03  2.36193E+04
 -1.39714E+04  1.46704E+04 -2.06702E+04  2.65304E+03 -6.31416E+03  5.57007E+02 -6.06429E+03 -6.55236E+03
  1.72219E+03 -2.83560E+03 -3.35905E+03  7.31258E+03 -1.49669E+04  9.76656E+03 -1.55030E+04 -5.47430E+03
 -1.26759E+04 -1.59042E+04 -7.40955E+03 -1.59820E+04  1.65136E+04 -1.56114E+04  1.95895E+04 -4.91029E+03
  1.89241E+04  1.14474E+04  4.21049E+03  1.39709E+04 -7.48819E+03  2.09556E+04 -2.05058E+04  9.17581E+02
 -1.78282E+04 -2.45245E+03 -1.27125E+04 -1.58520E+04 -2.56516E+03 -1.23348E+04  9.97943E+03 -1.24937E+04
  5.64653E+03 -3.77914E+03  1.98911E+04 -3.16756E+02  2.32692E+03  2.93166E+03 -1.79300E+03  6.98728E+03
  5.14952E+03  8.82522E+03  1.52573E+03 -2.35421E+03  6.97602E+03  8.97156E+03  1.42931E+03  9.62258E+03
 -1.14602E+03  1.34435E+04 -1.40075E+04  2.13285E+04 -2.51855E+04  2.57077E+03 -1.89743E+04 -3.67416E+03
 -1.57323E+04 -1.91182E+04  3.89171E+02 -2.65665E+04  1.67288E+04 -1.63296E+04  2.16797E+04 -5.29756E+03
  1.57084E+04  1.25745E+04  6.25530E+03  1.71849E+04 -6.74387E+03  8.71041E+03 -1.59442E+04 -7.75281E+03
 -7.77949E+03 -7.76292E+03  7.67308E+03 -1.58869E+04  3.79639E+03 -3.79225E+03  2.80215E+03 -3.95222E+03
  5.56103E+03  1.32855E+03  2.54311E+03 -3.76890E+02 -3.37917E+03  1.35686E+04  3.00629E+03 -6.00341E+03
  2.70427E+03 -2.00871E+03  1.14858E+04 -2.24471E+03  9.74532E+02  1.44020E+04 -7.77379E+03  1.76833E+04
 -8.87482E+03  1.39109E+04 -1.45437E+04  6.89154E+03 -2.03701E+04  1.19894E+03 -1.63693E+03 -4.65468E+03
 -7.00172E+03 -5.03816E+03  1.09237E+04 -4.71990E+03  8.96357E+03  3.39781E+03  9.76979E+02  1.50872E+04
 -1.20435E+04  5.19894E+03 -1.36047E+04 -7.14113E+02 -7.84850E+03 -1.00350E+04 -3.25265E+03 -1.30842E+04
  1.12388E+04 -7.08453E+03  3.76932E+01 -7.00472E+03  8.19944E+03  6.46469E+03 -1.07092E+03 -1.40747E+03
 -3.76426E+03  6.52179E+03 -1.04580E+04  6.87502E+02  9.00085E+03 -5.87416E+03  3.82634E+03 -1.20657E+04
  1.72126E+04 -3.62035E+02  1.61209E+04  8.65431E+03  6.96203E+03  1.62528E+04 -5.55654E+03  1.95836E+04
 -1.00612E+04  1.10152E+04 -7.93219E+03  6.18296E+03 -2.99608E+03 -1.11254E+04  7.56224E+02 -3.98723E+03
  3.38741E+03 -1.31186E+03  7.84548E+03  1.89842E+03  3.45574E+03  1.04531E+04 -2.35651E+03 -4.09489E+02
 -5.90430E+03  6.53959E+03  9.47949E+02  8.43574E+03 -2.22673E+03  9.91011E+02  1.55328E+03  6.80495E+03
  2.58134E+03  4.86895E+03 -9.47793E+03  7.71427E+03 -2.83677E+04  1.76108E+03 -1.87133E+04 -5.68662E+03
 -1.34306E+04 -2.13975E+04  8.49828E+03 -2.80803E+04  6.12322E+03 -1.95285E+04  2.06149E+04 -7.44230E+03
  2.18202E+04  4.62759E+03  1.54821E+04  1.09294E+04  7.38842E+03  1.58157E+04 -5.65998E+03  1.18490E+04
 -6.34728E+03 -3.93082E+03 -6.21702E+03 -5.78629E+03  4.22352E+03 -3.77674E+03 -9.80621E+03  6.97482E+02
 -5.03133E+03 -3.17965E+03 -8.66209E+03 -1.58526E+02 -2.98651E+03 -7.83999E+03  4.30837E+03 -7.83238E+03
  8.96436E+03 -5.25234E+03  1.56841E+04  1.25249E+03  1.66938E+04  1.26086E+04 -1.87370E+03  1.92415E+04
 -4.83243E+03  2.04547E+04 -1.79422E+04  1.57886E+04 -2.34195E+04  2.51555E+03 -1.10288E+04 -2.62095E+03
 -5.02991E+03 -1.74567E+04  9.30316E+03 -1.64336E+04  7.68338E+03 -1.43390E+03  1.41162E+04  5.82215E+02
  3.67250E+03  4.69817E+03 -1.06418E+03  2.41001E+03 -1.90899E+03  1.66374E+03  2.82560E+03 -3.35017E+03
  9.48278E+03 -1.19942E+03  8.99032E+03  4.48148E+03  6.70094E+03  1.92834E+03  6.96053E+03  9.53618E+03
 -5.80324E+03  1.00079E+04 -5.80227E+03  1.85138E+03 -1.24305E+04 -5.00470E+03  2.87238E+02 -1.83583E+04
  7.24973E+03 -1.27252E+04  2.00980E+04 -4.15905E+03  3.17203E+03  2.08747E+03  1.31630E+04  1.48150E+04
 -4.84976E+03  1.06768E+04 -9.23280E+03  1.04650E+04 -6.38967E+02  7.46916E+03 -6.70370E+03 -5.45267E+03
 -5.65556E+03  9.77413E+01 -3.43233E+03 -6.60159E+02 -2.88478E+02 -4.56980E+03 -8.88703E+03 -4.28672E+02
 -4.94465E+03 -2.28926E+03 -2.79518E+03 -1.57203E+04  3.83186E+02 -1.11957E+04  1.16684E+04 -2.86823E+03
  1.32979E+04 -3.86604E+03  5.74597E+03  1.12843E+04  1.81104E+03  8.26123E+03 -1.36849E+04  1.30245E+04
