 $NMID ID='MM_0lb_SNR50_20hz_g45_9.RAW', FMTDAT='(8E13.5)'
 TRAMP=1., VOLUME=1. $END
  3.14776E+05  3.24092E+03  3.37955E+05  2.50540E+05  8.37554E+04  3.38805E+05 -1.31751E+05  2.49372E+05
 -1.85299E+05  8.25004E+04 -1.07539E+05 -3.61683E+04  3.80380E+03 -5.04352E+04  5.54210E+04 -2.75068E+03
  3.21505E+04  5.32096E+04 -1.53576E+04  7.49367E+04 -5.96483E+04  6.59918E+04 -7.98556E+04  2.95597E+04
 -7.98078E+04 -1.11615E+04 -5.88470E+04 -4.49915E+04 -1.66401E+04 -6.61875E+04  3.23741E+04 -4.76958E+04
  3.88295E+04  5.73333E+03  1.76516E+04  5.19510E+04 -3.09192E+04  4.64108E+04 -6.88449E+04 -6.90144E+03
 -5.35089E+04 -5.38506E+04 -8.24771E+03 -7.34232E+04  3.19458E+04 -5.55670E+04  4.49175E+04 -1.81257E+04
  3.69981E+04  1.07104E+04  3.22387E+04  2.10307E+04  1.99738E+04  2.95626E+04 -4.88064E+03  2.83609E+04
 -1.95708E+04  1.01007E+04 -2.09608E+04 -7.62721E+03  3.70390E+03 -4.62709E+03  2.24480E+04  9.66459E+03
  8.38623E+03  3.04728E+04 -3.25053E+04  2.97894E+04 -5.99772E+04 -5.45355E+02 -5.74908E+04 -4.05703E+04
 -1.46157E+04 -5.88267E+04  3.73526E+04 -4.54661E+04  5.44095E+04 -2.84539E+03  2.63922E+04  2.80699E+04
 -1.07464E+04  3.32226E+04 -3.21967E+04  1.80434E+04 -2.83992E+04 -7.28695E+03 -1.11816E+04 -1.09027E+04
 -4.94519E+03 -1.29817E+04 -4.41303E+03 -1.96440E+04  1.01809E+04 -2.36907E+04  1.12164E+04 -1.67432E+04
  1.10953E+04  9.94488E+03 -2.07543E+03  8.93513E+03 -1.77772E+04 -4.44385E+02 -8.70316E+03 -2.83514E+04
  1.71645E+04 -4.19368E+04  4.01120E+04 -1.82675E+04  4.23356E+04  2.09357E+04  1.79157E+04  4.02750E+04
 -1.66878E+04  3.25858E+04 -1.84221E+04  8.72129E+02 -9.07601E+03 -2.68188E+04  1.71114E+04 -2.87190E+04
  3.73837E+04 -8.09363E+03  2.61860E+04  2.33031E+04  1.43125E+04  3.78542E+04 -3.27971E+03  4.34154E+04
 -2.92671E+04  2.57611E+04 -3.29304E+04  8.02033E+03 -3.96939E+04 -1.80163E+04 -2.48246E+04 -3.57402E+04
  7.19884E+03 -2.99860E+04  2.99982E+04 -1.08570E+04  2.64917E+04  1.40715E+04  6.19792E+03  1.63070E+04
 -1.17665E+04  5.75840E+03 -7.37351E+03 -7.39250E+03  5.82816E+03 -8.61207E+03  1.46829E+04  6.36091E+03
  1.14030E+04  2.10555E+04 -8.98578E+03  2.23836E+04 -1.42519E+04  1.01179E+04 -2.08487E+04 -6.26930E+03
 -1.61045E+04 -1.63309E+04 -2.76879E+03 -1.39658E+04  3.10895E+03 -1.14916E+04  1.47635E+04 -1.04010E+04
  2.20438E+04 -1.06317E+04  2.56356E+04 -3.36979E+03  1.79447E+04  1.31886E+04  7.19917E+03  3.21817E+04
 -1.29814E+04  2.72388E+04 -2.81653E+04  7.80656E+03 -1.94392E+04 -1.34136E+04 -3.18023E+03 -1.37334E+04
  3.12442E+03 -5.39905E+03 -4.84467E+03  3.46012E+03 -1.33068E+04  1.03286E+03 -1.47364E+04 -5.94933E+03
 -7.64596E+03 -9.15300E+03  1.87502E+03 -1.65769E+04  1.00505E+04 -1.30621E+04  1.14803E+04 -3.05341E+03
  9.68899E+03  9.55769E+03 -3.75123E+03  1.58704E+04 -5.20611E+03  1.02038E+04 -1.25745E+04 -6.18785E+03
 -1.14309E+04 -1.15011E+04 -8.95122E+01 -1.70858E+04  6.80255E+03 -1.93215E+04  1.42800E+04 -4.18763E+03
  1.14177E+04  5.87713E+02  5.08284E+03 -6.75486E+02  5.32173E+03  4.80096E+03  8.55444E+03 -5.55148E+03
  1.60473E+04  9.02021E+02  1.38573E+04  9.59276E+03  6.46679E+03  2.05556E+04 -2.16351E+03  2.41001E+04
 -1.55902E+04  1.41040E+04 -2.23454E+04  5.10526E+03 -1.99261E+04 -4.04186E+02 -2.19437E+04 -1.34799E+04
 -9.99348E+03 -2.17906E+04  6.99124E+03 -1.67630E+04  1.66002E+04 -1.08188E+04  1.43124E+04  1.85295E+03
  4.57260E+03  6.79680E+03 -4.78286E+03  1.36827E+04 -1.45840E+04  1.27621E+03 -6.83173E+03 -1.00062E+04
 -2.31922E+03 -1.17605E+04  9.03832E+03 -9.33062E+03  7.02208E+03 -4.56112E+03  1.96358E+03  7.65058E+03
 -6.72779E+03 -2.08759E+02 -3.96628E+03 -4.64062E+03  4.41352E+03 -9.83459E+03  7.27048E+03 -7.21656E+03
  1.23850E+04 -3.84187E+03  9.88106E+03  7.32843E+02  1.10841E+04  7.16744E+03  5.04002E+03  8.31597E+03
  7.22699E+01  1.39188E+04 -7.19409E+03  7.42471E+03 -7.48357E+03  2.73091E+03 -7.42588E+03 -2.42594E+03
 -8.36772E+02 -3.35418E+03  1.68713E+03  1.99332E+03 -2.05475E+03  6.24766E+03 -2.56339E+03  3.60113E+03
 -1.13982E+04  1.65766E+03 -8.22988E+03 -5.38106E+03 -1.09448E+03 -8.71312E+03  4.85824E+03 -8.58867E+03
  6.24851E+03 -3.91426E+03  4.59704E+03  1.46376E+03  4.16642E+03  6.00390E+03 -3.19949E+03  1.32074E+01
 -1.22540E+03 -3.93443E+03 -1.38627E+03 -7.54967E+03 -1.90437E+03 -1.14891E+04  9.99286E+03 -2.79467E+03
  1.38974E+04  3.84682E+02  8.36093E+03  7.98746E+03  1.98179E+03  7.40428E+03 -7.62257E+03  1.01640E+04
 -6.49628E+03  1.92865E+03 -2.84393E+03 -2.77098E+03 -5.06373E+02 -6.81132E+02  8.00369E+03 -4.24718E+03
  2.50623E+03 -1.94735E+02  5.03208E+03  7.70402E+03 -4.68252E+02  5.28702E+03 -5.94781E+03  1.18674E+03
 -9.09508E+02  9.38145E+02 -1.11765E+03 -4.45007E+03  2.12039E+03 -3.24426E+03 -8.15031E+02 -1.88986E+03
 -1.18583E+03  2.54721E+03  2.26065E+03  1.77381E+03 -5.12103E+03  3.75073E+03 -1.55445E+03 -2.61424E+03
 -4.27081E+03 -8.42144E+03  3.15846E+03 -6.48476E+03  5.29882E+03 -2.32197E+03  5.22532E+03  2.32424E+03
  5.51432E+03  4.62901E+03  2.13749E+03  8.16415E+03 -3.42095E+03  6.78602E+03 -3.56499E+03  2.38422E+03
 -7.02017E+03 -4.97136E+03  1.08790E+02 -4.87418E+03  4.60056E+03 -2.18963E+03  6.68470E+03 -4.89326E+03
  4.70343E+03  3.48087E+03  9.48450E+02 -2.60824E+03  2.69586E+03  2.98553E+03  3.09041E+03 -4.26053E+02
  1.36737E+03 -2.80939E+03  4.51028E+03  1.96796E+03  1.07440E+03  6.52222E+03  6.62631E+03  2.77807E+03
  2.15427E+03  8.38231E+03 -7.62937E+03  3.67698E+03 -1.39268E+04  1.31049E+03 -3.75781E+03 -3.59686E+03
 -9.05897E+02 -4.86062E+03 -2.74867E+03 -3.72894E+03  1.48245E+03  1.80828E+03  3.09791E+03  1.54134E+03
  1.09793E+02 -4.99339E+03 -1.40468E+03 -1.98699E+03 -1.35656E+03  2.89170E+03  6.63156E+01  5.18377E+03
  2.95232E+03  2.49009E+03  2.45678E+03  1.39370E+03 -3.68038E+03  2.29074E+03 -4.37332E+03  5.32221E+03
 -2.12637E+03 -1.63445E+03 -8.99493E+02 -5.26810E+03  5.73791E+02 -3.84945E+03  4.69232E+03 -3.60278E+03
  6.54048E+03 -3.86997E+03  5.01168E+03  4.06547E+02  2.48527E+03  4.15942E+02  1.05268E+03  4.99809E+03
 -1.12774E+03  4.13798E+03 -3.25101E+03  2.67138E+02 -1.14062E+03 -5.42798E+03 -1.16042E+03  6.91174E+02
  1.20551E+03 -3.62266E+03 -1.10886E+03  4.50187E+03 -1.07220E+03 -1.25127E+02 -5.22001E+02 -1.09151E+03
  3.61448E+02 -1.61142E+02  2.97901E+03 -3.90333E+03  7.41410E+03 -3.45077E+03  3.54494E+03  1.79890E+03
  4.53642E+03  1.31761E+03 -2.38925E+03  2.94114E+03 -2.45128E+03  4.95499E+03 -3.04567E+02  1.81411E+03
 -2.58556E+03 -1.38139E+03 -2.97001E+03  3.54418E+03  7.34473E+02  5.79376E+02 -2.70778E+03 -2.99662E+03
 -7.28904E+02 -3.32017E+03 -1.06402E+03  2.28329E+03  1.82078E+01  3.65310E+03 -3.43725E+03 -1.93238E+03
  5.79639E+03 -1.65942E+03 -4.13354E+03 -2.77378E+03 -1.88117E+03  3.65903E+03  5.98320E+03 -2.41489E+02
 -4.14148E+02  3.03104E+03 -1.87258E+03  5.06546E+03 -4.52487E+02  5.32502E+01 -2.12768E+03  1.46426E+03
 -2.24739E+03 -5.40200E+02  1.70398E+03 -2.76445E+03  2.81945E+03 -1.10516E+03  5.07789E+03 -4.83285E+03
  4.49963E+03  4.36006E+02  1.94181E+03 -2.01903E+03 -2.82972E+02  4.14785E+02 -1.74055E+03  3.50287E+02
  3.24887E+03  5.40038E+02  3.24911E+03 -4.75075E+03  1.44549E+03 -2.89498E+03  1.04374E+03 -2.67607E+03
  1.29603E+03  2.25363E+02  2.90443E+03  1.45594E+03 -1.82714E+03 -1.53401E+03 -6.46353E+02  2.20579E+02
  2.77630E+03  2.90687E+03  2.30415E+03  2.91189E+03  2.37461E+03  2.00175E+03 -3.56582E+03  4.57493E+03
  1.16722E+03  3.50729E+03  1.65258E+03 -4.84990E+03 -1.47184E+03  9.73612E+02 -2.04834E+03  2.45367E+03
  1.71895E+03 -8.49908E+02 -2.44498E+03 -1.21551E+03  2.06465E+03  1.61128E+03 -3.02216E+02 -3.98099E+03
  8.92713E+02 -3.76374E+03  1.30497E+03 -3.81727E+03 -5.52604E+03 -4.07116E+03  4.71824E+03  4.43749E+02
  5.25966E+03  4.48853E+03  1.08823E+03 -6.03076E+01 -4.37243E+02 -1.92516E+03 -5.85200E+02 -7.56611E+02
  4.21438E+02 -1.14300E+03  3.81765E+03 -3.02630E+03  3.22917E+03 -9.32200E+02  4.71018E+03  2.00588E+03
  3.29390E+03  2.93600E+03  3.83765E+03 -6.34597E+02 -1.32549E+02  4.25655E+03  1.14533E+03  3.65208E+03
 -1.76582E+03  1.57440E+02  1.73682E+03 -8.89177E+02 -2.41251E+03 -2.99745E+03 -2.76411E+02  8.34362E+02
  1.16802E+03 -3.64049E+03 -4.58397E+02 -3.49010E+03 -1.58896E+03  1.60354E+03  2.11643E+03 -2.53018E+03
  8.08877E+02 -2.70549E+03 -1.81420E+03 -2.59854E+02  5.18566E+02  8.07831E+01  1.10167E+03  2.10447E+03
 -1.85062E+03  2.28972E+03  2.62903E+03 -1.16989E+03 -4.23962E+03 -1.17030E+03 -7.85960E+02 -1.20276E+02
 -5.13427E+02 -3.53549E+03  3.53019E+03  2.64391E+03 -9.55707E+02  2.50831E+03  4.36371E+03 -5.98458E+02
  1.27909E+03  1.82915E+03  3.43043E+03  3.81996E+03  2.86057E+03  2.68566E+03  2.37120E+03  7.35483E+02
 -1.96151E+03 -3.02598E+03  1.98422E+03  3.05232E+02  3.17020E+03  6.48580E+02  3.95948E+03 -1.23285E+03
  3.47431E+03  1.94448E+03 -2.15513E+03 -1.47413E+03  8.83736E+02 -1.53447E+03 -3.15335E+03  2.86711E+03
 -2.60883E+03 -8.04955E+02  8.15028E+02  1.64688E+03  3.95619E+03  3.63300E+02  6.80363E+02  1.60462E+03
  2.82145E+03  3.30805E+03 -2.49831E+03 -5.72260E+02  1.50504E+03 -3.37285E+03 -1.07833E+03 -1.21617E+03
 -5.78687E+02  2.67026E+03 -9.13603E+02 -1.51369E+02 -5.15617E+02 -2.90353E+03 -1.09955E+03 -2.81125E+03
  2.78002E+03  1.87402E+03 -3.92404E+02  5.66049E+02 -1.26182E+03 -6.99192E+02 -5.23918E+02  3.84566E+02
 -6.72308E+02 -4.69758E+02 -1.50894E+03 -7.56516E+02 -6.26310E+02  3.08753E+03 -8.58896E+02 -2.14628E+03
 -3.57667E+03 -1.18429E+02  3.80164E+03  2.54555E+03 -1.01475E+03 -1.17231E+03  2.13915E+03 -1.93778E+03
 -1.19957E+02  1.10458E+03  5.84067E+03  2.02316E+03 -3.78188E+03 -1.80107E+03  3.37608E+03  2.88319E+02
 -2.30411E+03  2.79759E+03  1.53882E+03  1.98776E+03  4.20921E+02  5.10904E+03  3.56755E+03  3.98317E+03
  6.82354E+02 -8.89104E+02  2.81083E+03  1.30487E+03 -1.93021E+03  3.24525E+02 -2.06422E+03 -3.34500E+03
  1.45411E+03 -1.06507E+01 -1.25406E+03  4.09087E+03 -2.36612E+03 -3.17018E+03  7.62083E+01 -3.59157E+03
  3.48083E+03  3.22546E+03 -3.14956E+02  6.96418E+02 -4.76286E+02 -7.95619E+01  9.29546E+02 -7.04554E+02
