 $NMID ID='MM_0lb_SNR50_12hz_g40_1.RAW', FMTDAT='(8E13.5)'
 TRAMP=1., VOLUME=1. $END
  3.14945E+05  1.20776E+03  3.41152E+05  2.50177E+05  8.64634E+04  3.32105E+05 -1.30430E+05  2.51672E+05
 -1.85790E+05  8.37702E+04 -1.16647E+05 -3.21731E+04 -2.16227E+03 -4.47076E+04  5.52574E+04 -9.38829E+02
  3.49805E+04  5.19984E+04 -1.66951E+04  7.23519E+04 -6.31236E+04  6.54274E+04 -8.74793E+04  2.97662E+04
 -8.39167E+04 -1.12909E+04 -6.08973E+04 -4.78060E+04 -1.77163E+04 -7.04230E+04  3.13277E+04 -4.79649E+04
  4.33632E+04 -1.81655E+02  1.96518E+04  4.41522E+04 -2.91710E+04  4.85701E+04 -6.76494E+04 -3.08460E+03
 -5.61960E+04 -5.79025E+04 -8.08410E+03 -7.39428E+04  3.56417E+04 -5.19893E+04  5.18475E+04 -1.59428E+04
  4.58873E+04  8.49379E+03  3.89954E+04  2.52447E+04  1.87857E+04  2.97427E+04  2.19691E+03  2.77360E+04
 -1.97755E+04  1.44757E+04 -1.32336E+04 -5.93780E+03  4.74412E+03 -2.92269E+03  2.28282E+04  1.36785E+04
  6.74791E+03  3.77821E+04 -3.35531E+04  3.69415E+04 -6.43593E+04  1.32726E+03 -6.10210E+04 -4.84255E+04
 -1.68492E+04 -6.16045E+04  4.19535E+04 -4.19170E+04  5.87357E+04 -5.15496E+03  2.79849E+04  3.86143E+04
 -9.34894E+02  3.89103E+04 -2.84519E+04  1.76527E+04 -2.94311E+04 -1.06662E+04 -1.90231E+04 -1.13408E+04
 -2.16007E+03 -1.42724E+04  2.89191E+02 -2.18371E+04  1.20134E+04 -2.12624E+04  1.29934E+04 -8.82531E+03
  1.05366E+04 -5.08443E+02 -1.43255E+04  2.27006E+04 -1.86526E+04 -2.61134E+03 -7.91386E+03 -3.37398E+04
  2.56832E+04 -4.97194E+04  4.86693E+04 -1.83972E+04  4.61057E+04  1.91628E+04  1.95849E+04  4.41145E+04
 -2.02064E+04  3.53247E+04 -2.86001E+04  2.42762E+02 -6.69087E+03 -2.68525E+04  2.29836E+04 -3.43321E+04
  3.87364E+04 -4.64054E+03  3.59853E+04  2.76479E+04  2.22824E+04  4.60704E+04 -2.76632E+03  5.38332E+04
 -3.17839E+04  4.04845E+04 -3.98645E+04  1.05761E+04 -4.49713E+04 -1.73337E+04 -2.02224E+04 -3.86550E+04
  8.57313E+03 -4.17202E+04  3.26485E+04 -1.18222E+04  2.44192E+04  1.13481E+04  4.42688E+03  2.12162E+04
 -1.28427E+04  5.54158E+03 -9.56630E+03 -7.61316E+03  1.62413E+03 -8.85217E+03  1.81894E+04  1.32614E+03
  1.60614E+04  2.15258E+04 -9.80128E+03  2.23380E+04 -1.71464E+04  1.28772E+04 -3.04041E+04 -2.38968E+03
 -2.39759E+04 -2.27430E+04 -4.98219E+03 -2.57796E+04  4.10194E+03 -1.93015E+04  1.93771E+04 -2.08083E+04
  2.44131E+04 -1.02633E+04  3.54258E+04  4.32560E+03  2.82173E+04  2.37410E+04 -3.81755E+02  3.32591E+04
 -1.76937E+04  2.93172E+04 -2.86212E+04  1.10335E+04 -2.26365E+04 -9.11736E+03  8.47529E+02 -1.16877E+04
 -1.00605E+02 -5.50268E+02 -8.75389E+03  8.59419E+03 -1.22003E+04  1.30182E+03 -1.59415E+04 -4.19458E+03
 -1.65186E+04 -2.23120E+04  6.26651E+03 -2.19718E+04  1.54870E+04 -1.77777E+04  1.44583E+04 -9.62123E+03
  1.37093E+04  1.13971E+04 -2.44670E+03  2.00874E+04 -1.05817E+04  1.48318E+04 -2.00002E+04 -1.82531E+03
 -1.24617E+04 -1.40485E+04 -6.88046E+03 -2.40732E+04  1.12376E+04 -1.95261E+04  2.45856E+04 -1.03563E+04
  2.05741E+04 -6.24446E+03  1.43239E+04  5.17319E+03  6.48204E+03 -2.09250E+03  1.07188E+04 -1.02686E+03
  1.84787E+04 -3.40804E+02  2.01440E+04  1.37143E+04  8.34722E+03  3.02709E+04  9.29376E+02  3.56478E+04
 -2.38322E+04  3.00979E+04 -3.56399E+04  1.06684E+04 -3.08210E+04  1.21149E+03 -3.03752E+04 -2.11551E+04
 -1.27365E+04 -3.34698E+04  7.50064E+03 -3.19595E+04  2.31016E+04 -1.21506E+04  1.96623E+04  5.01890E+03
  8.63826E+03  1.60611E+04 -9.59131E+03  1.23667E+04 -2.02453E+04  1.26580E+03 -1.08492E+04 -8.29587E+03
 -2.53943E+03 -1.58223E+04  1.18781E+04 -8.16903E+03  1.30988E+04 -6.25336E+03  2.97645E+03  5.58115E+03
 -7.18541E+03  2.66366E+03 -9.36992E+03 -3.87930E+03  2.19720E+03 -1.57172E+04  7.64374E+03 -2.04683E+04
  1.63037E+04 -1.00842E+04  1.59788E+04  4.35628E+03  1.90914E+04  1.59627E+04  8.07070E+03  1.81994E+04
 -2.90246E+02  2.14973E+04 -1.40498E+04  1.49490E+04 -1.78693E+04  2.71618E+03 -1.82229E+04 -6.55771E+03
 -5.38425E+03 -5.13630E+03  1.44828E+03  6.60926E+03 -2.67683E+03  2.98275E+03 -4.49827E+03 -9.27341E+02
 -1.22038E+04 -1.05425E+03 -1.26061E+04 -1.30660E+04 -9.96738E+02 -1.45592E+04  1.06436E+04 -1.40846E+04
  9.38885E+03 -4.66773E+03  7.36426E+03  3.59890E+03  4.58804E+02 -2.77750E+03 -1.44566E+03 -7.31357E+01
 -5.85876E+03 -6.73746E+03 -3.41143E+03 -1.12447E+04  8.67154E+00 -1.37952E+04  1.94397E+04 -4.13750E+03
  1.92299E+04  2.02287E+03  1.50645E+04  1.38089E+04  2.15257E+03  1.21370E+04 -4.46087E+03  1.14322E+04
 -1.17304E+04  2.67264E+03 -5.44127E+03 -1.20368E+03  7.44734E+03 -3.62334E+03  9.16508E+03  2.52661E+03
  7.27656E+03  4.14069E+03  3.93101E+03  1.45633E+04 -4.26161E+03  1.24268E+04 -7.88743E+03 -1.60007E+03
 -1.02669E+04  3.52922E+03 -2.71032E+03 -7.44210E+03  6.44926E+03 -9.08680E+02  4.76634E+03  3.74350E+03
  8.24126E+02  6.52371E+03 -4.62456E+03  6.78838E+03 -1.01856E+04  1.24153E+04 -1.02197E+04 -8.28592E+03
 -5.05311E+03 -1.00728E+04 -8.82723E+02 -1.82543E+04  8.78668E+03 -3.69301E+03  1.27809E+04  4.81091E+03
  6.49795E+03  7.09736E+03 -5.41697E+03  1.35706E+04 -6.82551E+03  9.33526E+03 -1.07512E+04  1.34462E+03
 -1.14308E+04 -6.74577E+03  5.09544E+02 -1.44851E+04  5.71525E+03 -1.71698E+04 -1.44413E+03 -7.69860E+03
  6.65199E+02 -1.89913E+03  2.58024E+02  1.14559E+03  3.19784E+03 -3.13128E+03  1.61853E+03 -2.10552E+03
  6.53627E+03 -5.67777E+03  8.64618E+03  4.06559E+03  9.45999E+03  9.37113E+03  7.74921E+03  1.19920E+04
 -6.31527E+03  1.90992E+04 -1.33945E+04  1.21892E+04 -1.85057E+04  5.15083E+03 -1.40435E+04  4.00248E+02
 -1.24885E+04 -8.37662E+03  1.48869E+03 -1.07400E+04  4.53927E+03 -4.98959E+03  1.46446E+03  1.82598E+02
  4.02373E+03 -1.75108E+03  2.45875E+03 -3.51331E+03  5.48180E+03 -4.22803E+03  5.54236E+03 -7.21709E+02
  5.81915E+03 -2.03587E+02  2.51301E+03  4.28413E+03  1.40385E+03  3.48200E+03 -9.91803E+03  7.90695E+03
 -7.98587E+03 -1.40624E+03 -8.78087E+03 -8.79398E+03 -8.57164E+01 -1.26950E+04  6.00586E+03 -1.25902E+04
  1.09540E+04 -4.64366E+03  1.37903E+04  3.30294E+03  8.56002E+03  9.28587E+03 -7.41678E+02  1.13734E+04
 -9.68492E+03  8.82576E+03 -3.47701E+03  1.16692E+03 -9.38492E+03 -2.41825E+03  1.03856E+03 -1.08992E+03
  1.08353E+03  3.88662E+03  4.31364E+02  5.64309E+03 -4.10721E+03 -2.08602E+03 -5.76688E+03 -2.63822E+03
 -2.69371E+03 -6.96468E+03  6.08742E+01 -9.38779E+03  5.13890E+03 -9.20345E+03  1.73795E+03 -8.81902E+03
  9.98919E+03  4.94734E+03  3.59573E+03  6.49961E+03 -9.49441E+02  1.24722E+04 -7.63262E+03  4.51648E+03
 -4.19858E+03  3.44644E+03 -2.35919E+03 -5.15248E+03 -5.76364E+02 -1.28053E+04  4.09877E+03 -5.15130E+03
  1.20564E+04 -4.59342E+03  6.03152E+03 -3.14999E+02  1.86112E+03  2.45742E+03 -2.66503E+02 -3.34855E+02
  4.28294E+03 -3.54835E+03 -1.46054E+03  4.25775E+03  3.32329E+02  2.73991E+03  3.40577E+03  4.09019E+03
 -4.80877E+03  2.64739E+03 -8.15379E+03  6.56250E+03 -5.75780E+03  1.78891E+03 -8.86090E+03 -8.18148E+03
 -7.30616E+03 -7.97532E+03  4.05666E+03 -1.29288E+04  8.48579E+03 -8.09229E+03  1.30206E+04 -1.52885E+03
  3.88259E+03  6.05839E+03  1.80653E+03  5.27136E+03 -4.55758E+03  1.53652E+03 -5.98762E+03 -3.88704E+03
 -5.38707E+03 -3.33925E+03  1.99214E+03 -1.23131E+03  5.94862E+03 -6.19426E+03  1.15640E+03  3.18189E+03
  2.84169E+03  3.65481E+03 -2.39749E+03  1.41012E+01  7.38236E+02  1.12576E+03  7.12050E+02 -7.30387E+02
  4.03394E+02  8.71358E+02  1.06562E+04  2.66703E+03  1.37464E+02  8.27347E+03 -4.62524E+03  1.22194E+04
 -6.43468E+03  7.43236E+03 -1.01732E+04  8.08589E+03 -4.92040E+03  2.25158E+03 -5.94516E+03 -1.50659E+03
  2.97369E+03 -5.90349E+03  4.93551E+03 -3.97169E+03  2.44777E+03  5.23124E+03 -6.60795E+02 -8.48118E+02
 -2.72995E+03  1.59120E+03 -4.49206E+03 -6.06866E+03 -1.34732E+03 -3.72930E+03 -8.33127E+02 -6.70948E+03
 -1.21781E+03 -3.82653E+03  4.97110E+03 -1.72860E+03  6.22961E+02  1.84667E+03  4.14689E+03  6.77977E+03
 -2.99575E+03 -2.43695E+03 -2.36500E+03 -3.35343E+03  1.55180E+03 -3.12689E+03  3.15205E+02 -5.23831E+03
 -2.57151E+02 -2.76150E+03  6.44951E+03  4.53029E+03 -3.56054E+02  7.06256E+03 -5.18988E+03  9.41099E+03
 -2.32404E+03 -1.78067E+03 -4.68651E+03 -2.33891E+03 -5.11238E+03 -5.44659E+03 -8.93547E+02 -3.47714E+03
  5.45355E+03 -3.02818E+03  3.37213E+03  3.48095E+03 -2.04926E+03  8.28255E+03 -6.86775E+03  6.89757E+03
 -2.17421E+03 -4.83807E+03 -6.28412E+03 -2.24903E+03 -2.03201E+03  8.81824E+02 -5.44764E+01  1.00146E+03
  2.03500E+03 -5.72322E+02 -4.45600E+03  2.52279E+03 -9.44316E+03 -3.34408E+03 -2.14222E+03 -2.11123E+03
 -6.08676E+03 -9.56030E+03 -2.71719E+03 -7.04490E+03  2.86048E+03 -8.20311E+03  1.21211E+04  2.17323E+03
  6.46229E+03  1.60445E+03  6.35986E+03  2.64408E+03 -4.26630E+02  6.68533E+03 -2.94756E+03  5.35978E+03
 -3.22198E+03  1.44985E+03 -4.50550E+03 -3.66386E+03  3.19367E+03  1.33631E+03 -7.93227E+03 -1.68166E+03
 -9.88913E+02 -1.24531E+02  1.33909E+03  1.95724E+03 -8.66358E+02 -7.37677E+03  2.20671E+03  5.03391E+02
  4.01554E+03 -1.35770E+03  6.25310E+03 -5.69427E+03  1.43648E+03  4.51935E+03  2.90962E+02  8.00648E+03
 -1.47982E+03  4.82014E+03 -1.01903E+04  4.33982E+03 -5.84645E+03 -4.81185E+03 -2.79797E+03 -7.47907E+03
 -2.56467E+03 -6.35342E+03  2.67788E+03 -6.88748E+03 -1.41170E+03 -2.73083E+03  3.59550E+03 -2.20372E+03
  2.45210E+03  4.53985E+03 -1.78920E+03 -4.04400E+03 -1.16833E+02  8.40812E+02 -5.13146E+03 -3.61687E+03
  1.52296E+03 -1.60859E+03 -8.14889E+02  8.79570E+02  6.19168E+03  2.74702E+03  6.58736E+03  3.36614E+03
 -3.29101E+03  4.36876E+03 -1.07265E+03 -1.06159E+03 -5.02068E+03 -8.07308E+02  8.69988E+02 -2.40054E+03
  7.26013E+03 -6.37810E+03  1.98568E+03 -1.01169E+03  2.68971E+03 -3.02193E+03  2.79678E+03  8.08248E+03
  1.95403E+03  8.12556E+03 -2.93058E+03 -1.55103E+02 -8.70891E+03  4.19568E+03 -3.37622E+03  2.58743E+03
 -4.49767E+02 -1.85892E+02 -3.03850E+02  1.74017E+03 -5.86321E+03 -1.08669E+03 -6.78201E+03  1.72621E+03
 -6.04001E+03  7.03704E+02  8.34902E+02 -6.46755E+03  2.48897E+03 -9.37559E+03 -1.11636E+03 -2.39180E+03
  3.00204E+03 -3.36303E+02  8.12212E+02 -5.19750E+02  1.09254E+03  3.45002E+03 -6.89072E+03  6.19009E+03
