 $NMID ID='MM_0lb_SNR50_18hz_g55_29.RAW', FMTDAT='(8E13.5)'
 TRAMP=1., VOLUME=1. $END
  3.08169E+05 -2.60103E+03  3.37146E+05  2.55739E+05  8.21218E+04  3.38103E+05 -1.35227E+05  2.52215E+05
 -1.90567E+05  8.22947E+04 -1.10911E+05 -3.28852E+04  3.61158E+03 -4.93036E+04  5.24362E+04  4.04807E+02
  3.74130E+04  5.34502E+04 -1.68568E+04  7.33268E+04 -6.46758E+04  6.17724E+04 -8.47338E+04  3.20509E+04
 -7.73804E+04 -1.18776E+04 -5.33875E+04 -5.37534E+04 -1.53707E+04 -6.34519E+04  2.73906E+04 -4.67756E+04
  3.50089E+04  5.82090E+03  1.50943E+04  4.56123E+04 -3.59544E+04  5.27144E+04 -6.87320E+04  4.72526E+03
 -5.31821E+04 -5.42532E+04 -8.40770E+03 -7.73962E+04  2.96924E+04 -5.50545E+04  4.61302E+04 -1.37253E+04
  4.29770E+04  1.49533E+04  3.07537E+04  2.56941E+04  1.16830E+04  2.97677E+04 -3.07049E+03  2.41338E+04
 -2.40131E+04  9.64917E+03 -2.14353E+04 -5.42824E+03  7.78644E+03 -1.10551E+04  2.41984E+04  1.20612E+04
  8.83782E+03  3.67970E+04 -3.55766E+04  3.73294E+04 -6.54157E+04 -1.14049E+03 -5.96508E+04 -4.74805E+04
 -1.38444E+04 -6.27199E+04  3.84366E+04 -4.62599E+04  5.59099E+04  1.41894E+03  3.43568E+04  3.09346E+04
 -6.68571E+03  3.41514E+04 -2.59626E+04  1.45862E+04 -2.40031E+04 -7.13861E+03 -1.42953E+04 -7.21614E+03
 -6.17211E+03 -1.47384E+04  4.04143E+02 -2.11990E+04  6.78156E+03 -2.51550E+04  1.37204E+04 -1.63925E+04
  1.46543E+04 -3.18481E+02 -5.96514E+03  1.08291E+04 -2.18799E+04 -3.84720E+03 -1.14558E+04 -3.04043E+04
  2.06956E+04 -4.41330E+04  3.76905E+04 -1.87620E+04  4.07820E+04  1.33487E+04  2.08732E+04  4.43604E+04
 -1.72063E+04  3.37568E+04 -2.62617E+04 -1.54538E+03 -2.23143E+03 -2.49444E+04  2.14632E+04 -2.98343E+04
  4.04338E+04 -5.67526E+03  2.72535E+04  2.09074E+04  1.61514E+04  4.55032E+04 -9.39410E+03  4.97771E+04
 -3.12502E+04  3.20751E+04 -3.80031E+04  6.68720E+03 -3.72969E+04 -1.49658E+04 -2.20530E+04 -3.28805E+04
  9.02805E+03 -3.44596E+04  2.93166E+04 -9.50816E+03  2.79250E+04  8.58364E+03 -2.18064E+03  1.67755E+04
 -1.35878E+04  6.61775E+03 -1.02351E+04 -7.37799E+03  5.07469E+03 -1.16122E+04  1.70172E+04  4.83557E+03
  9.17618E+03  2.32833E+04 -1.02647E+04  2.37561E+04 -2.33983E+04  1.29045E+04 -2.78280E+04 -4.57074E+03
 -1.62471E+04 -1.96213E+04 -5.36868E+03 -1.69801E+04  1.71938E+03 -1.49169E+04  1.33073E+04 -1.82680E+04
  2.73524E+04 -1.56050E+04  3.24694E+04 -4.16745E+03  2.46214E+04  1.71486E+04  3.53874E+03  3.43600E+04
 -1.58007E+04  2.60090E+04 -3.04243E+04  7.97245E+03 -2.17629E+04 -1.18553E+04 -6.28740E+03 -1.61244E+04
  5.51025E+03 -4.88419E+03 -9.56932E+03  4.49453E+03 -1.59769E+04  8.75583E+03 -1.86219E+04 -1.04497E+04
 -9.53808E+03 -1.44001E+04  3.41611E+03 -2.09857E+04  1.27151E+04 -1.89954E+04  1.63937E+04 -2.76658E+03
  1.53830E+04  1.03234E+04 -3.92708E+03  1.84801E+04 -1.02290E+04  8.94740E+03 -1.30542E+04  1.70227E+03
 -1.26602E+04 -1.62004E+04 -3.73843E+03 -2.16151E+04  7.83040E+03 -1.20135E+04  1.69428E+04 -8.19790E+03
  1.41893E+04 -1.79233E+03  1.32188E+04 -1.43562E+03  5.86083E+03  5.18487E+03  5.90462E+03  2.09315E+03
  1.12012E+04  5.35829E+03  8.28299E+03  1.01902E+04  8.63298E+03  2.94455E+04 -3.03001E+03  2.77529E+04
 -2.06064E+04  2.17548E+04 -2.62634E+04  1.24166E+04 -2.57108E+04 -2.80068E+03 -2.34423E+04 -1.25954E+04
 -1.02450E+04 -2.53017E+04  6.04787E+03 -2.12079E+04  1.87019E+04 -1.08800E+04  1.37654E+04  5.49834E+03
  5.66717E+03  1.09649E+04 -6.70783E+03  1.47077E+04 -1.83798E+04  4.00718E+03 -1.26082E+04 -8.68535E+03
  1.00730E+03 -1.40422E+04  7.44693E+03 -1.34660E+04  9.22392E+03  7.06096E+02  1.35215E+03  5.55747E+03
 -4.04511E+03  3.19721E+03 -5.25983E+03 -3.57403E+03  3.74174E+03 -1.06630E+04  5.64747E+03 -1.08695E+04
  1.46046E+04 -1.45545E+03  1.20346E+04  4.17029E+03  1.30285E+04  4.72385E+03  2.43378E+03  1.75057E+04
 -1.42980E+03  1.40672E+04 -1.23112E+04  1.03941E+04 -8.73898E+03  1.84662E+03 -7.63361E+03 -2.93112E+03
 -6.94364E+03 -5.38718E+03 -2.04802E+03 -5.31007E+02 -3.35390E+03  4.93586E+03 -3.52435E+03  4.89175E+03
 -8.95646E+03 -1.62871E+03 -1.06454E+04 -5.45632E+03 -2.27937E+03 -1.28331E+04  4.45716E+03 -9.39281E+03
  3.75508E+03 -2.55832E+03  5.38018E+03 -4.27193E+01  2.52184E+03  7.09763E+03 -7.78021E+03 -3.25470E+03
 -3.71072E+03 -1.27481E+03  2.86539E+03 -9.37471E+03  8.32268E+03 -4.55523E+03  7.17802E+03 -5.58832E+03
  1.26033E+04  3.29521E+03  9.58807E+03  4.68265E+03  4.67426E+03  1.35309E+04 -4.34702E+03  6.15862E+03
 -6.97221E+03  6.49477E+03 -1.55359E+03 -2.51960E+03  6.10700E+03 -1.38261E+03  2.00585E+03 -3.49581E+03
  3.94960E+03  7.99954E+03  5.08995E+03  4.89672E+03 -2.45942E+03  6.46300E+03 -4.67400E+03  2.27259E+03
 -2.80781E+03 -6.51203E+03  1.47591E+03 -5.69320E+03  2.64073E+03 -1.91378E+03  3.19232E+03 -1.07572E+03
 -3.13792E+03  5.96377E+03 -3.58206E+03  6.51172E+03 -5.87099E+03 -1.07820E+03 -7.40012E+03 -1.18198E+03
 -4.56926E+03 -6.99143E+03  2.16873E+03 -7.81996E+03  6.67242E+03 -5.94842E+03  5.82927E+03  1.06127E+03
  7.10683E+03  6.79001E+03  3.21589E+02  1.08722E+04 -1.16475E+04  3.57695E+03 -6.65191E+03 -1.41046E+03
 -6.35672E+02 -8.68285E+03 -1.84987E+03 -4.50972E+03 -1.46749E+03 -1.81090E+03  5.39584E+03 -2.59258E+03
  1.74025E+03  2.35536E+03  1.27535E+03 -2.50115E+03  3.31973E+03  1.23966E+03  1.48822E+03 -3.27291E+03
  5.39765E+02 -2.29163E+03  6.11163E+03  1.90014E+03  8.15484E+03  7.79721E+02  4.08479E+03  8.09615E+03
  2.78669E+02  7.52246E+03 -8.78645E+03  5.52171E+03 -1.03142E+04  2.89269E+03 -7.67948E+03 -2.52503E+03
 -4.42873E+03 -6.16340E+03 -3.01557E+03 -4.50281E+03  1.32461E+03 -3.73740E+03  5.58865E+03 -3.13269E+03
  8.49634E+02 -6.35802E+03 -9.68242E+02 -2.41738E+03  2.62500E+03 -3.40631E+03  4.98991E+03  2.92879E+03
 -3.76710E+02  4.47157E+03  1.72375E+03  4.20583E+03 -3.00168E+02  7.79900E+03 -7.43527E+02  2.98095E+03
 -8.40651E+03  1.70835E+03 -3.52690E+03 -5.22287E+03 -2.14392E+03 -8.13477E+03  3.32273E+03 -8.95703E+03
  5.40014E+03 -7.54189E+03  3.95425E+03  3.00772E+03  7.51856E+03  4.60289E+03  3.54781E+03  7.07190E+03
  5.95749E+02  8.24457E+03 -3.47683E+03 -1.07479E+03 -7.26165E+02  1.50529E+03  1.65302E+03 -3.83302E+03
  5.26776E+03 -3.78305E+03 -2.09536E+03  1.01412E+03 -1.20398E+03 -1.44835E+03 -4.42271E+03  1.16289E+03
 -5.20637E+03 -1.56760E+03 -1.88286E+03 -4.38784E+03  8.92308E+03 -6.05876E+03  3.65880E+03 -6.43262E+02
  7.73344E+03  8.17695E+02  2.55950E+03  4.66708E+03 -1.13669E+03  6.49987E+03 -3.30093E+03  2.17633E+03
 -3.07244E+03 -4.04513E+02 -6.36996E+03 -4.53260E+02 -2.62399E+02 -3.60615E+03  4.26282E+03 -4.47734E+03
 -7.57879E+02 -1.56474E+03  5.50987E+03 -1.26681E+03 -4.23717E+03  4.97469E+03 -5.60894E+02  2.32398E+03
  1.83947E+03 -9.67140E+02 -4.07477E+02  1.66128E+03  1.16150E+03  4.38119E+03  6.03529E+03  1.91161E+03
 -2.89657E+02  3.59700E+03 -2.09652E+03  5.33400E+03 -2.03480E+03 -1.49196E+03 -7.99950E+03 -1.25726E+03
 -2.76489E+03 -2.41807E+03  5.51746E+02 -7.09104E+03  1.67267E+03  1.82135E+03 -7.25071E+02  7.16253E+02
  9.30369E+02  1.68498E+03  7.77554E+02  5.16991E+03 -3.50160E+03  3.23761E+03 -6.08963E+03  2.38689E+02
 -1.53736E+03 -2.16624E+01 -2.97950E+02  8.39842E+02  1.80842E+03 -5.07876E+03  9.18397E+02 -1.01163E+03
 -1.32971E+02 -2.22003E+03  3.63962E+03 -9.75592E+02 -2.51774E+02 -9.87727E+01  4.23656E+03  9.79345E+02
 -7.37568E+02 -2.08755E+03  4.48159E+02  5.72243E+02  3.07057E+03  1.67767E+03 -6.09387E+02  1.19078E+03
 -4.04225E+02  2.70700E+03 -3.21629E+02  3.21392E+03 -2.48766E+03  1.06571E+03  2.63049E+02 -8.81038E+02
  4.79839E+03 -1.03105E+03  1.61610E+03 -3.07060E+03 -9.81563E+02  4.06886E+03 -3.38293E+03  3.30673E+03
 -3.31256E+03 -1.30017E+03  1.00588E+03  3.31218E+03 -1.94790E+03 -1.32609E+03 -3.35683E+03 -2.36690E+03
 -1.78398E+03  1.18966E+03 -1.14839E+03  1.57291E+03  1.04788E+03  1.70483E+03  3.93677E+02 -2.53938E+01
  2.27189E+03  7.11844E+02  1.19963E+03 -1.11529E+03 -3.78613E+02  3.05219E+03  2.66641E+03 -1.44531E+03
 -2.99812E+03  5.25159E+03  2.82407E+03  1.48967E+03  4.18835E+03  6.31999E+03  1.67467E+03 -4.30096E+02
 -4.41785E+03  2.18866E+03  2.09262E+03 -1.02916E+03 -1.83053E+02  3.48873E+02  3.02126E+02  3.90446E+02
  1.14186E+03  7.45168E+02  3.09596E+03  4.07561E+03  6.24815E+02 -4.64581E+02 -1.81189E+03  3.95469E+03
 -2.65530E+03  7.92008E+03  1.77126E+03  7.31222E+02  3.04157E+03 -2.55043E+03 -6.96441E+02  1.50562E+03
 -3.15609E+03  9.85475E+01 -1.62643E+03  3.41259E+03 -2.92309E+03 -3.83337E+03 -2.14747E+03  4.56311E+03
  2.78885E+03 -5.06688E+03  1.81099E+03  1.89981E+03 -2.51785E+03  8.07484E+02 -1.68354E+03  5.71775E+03
  1.15029E+03 -2.48970E+03  1.66415E+03 -2.61858E+03 -5.48124E+02 -2.54932E+03 -2.58648E+02  6.19861E+02
  3.78469E+03 -1.38787E+03  9.48362E+02 -3.39483E+03 -1.18265E+03  5.45652E+03 -1.25402E+03 -1.89119E+03
  1.96560E+03  1.33321E+03  3.55614E+02 -7.50464E+02 -3.44219E+03 -5.47093E+03 -1.80018E+03 -2.13450E+03
  2.01580E+03 -3.62704E+03  6.30064E+02  3.14970E+03  9.02000E+02  7.85044E+02  1.05345E+03  2.46993E+03
 -4.83516E+03  4.08227E+03 -2.27343E+03  2.09257E+03 -5.36416E+03 -8.15887E+02  5.90255E+03  3.61837E+03
  1.05464E+03  1.62601E+03  1.24285E+03  4.57006E+03  1.90797E+03 -3.91905E+03  3.23131E+03  1.81596E+03
  2.43618E+03 -1.43029E+01 -1.50409E+03 -9.66318E+02 -5.50112E+03  6.11648E+02 -1.09437E+03  3.03471E+03
 -1.19364E+03 -4.00561E+02  2.22079E+03 -1.36784E+03 -6.90788E+02  6.05496E+02 -1.91898E+03 -3.02321E+02
  3.33301E+02  1.72144E+03 -3.75569E+03  2.14262E+03  8.02430E+02 -2.66186E+03 -1.44482E+03  2.14054E+03
 -2.74508E+03 -5.02485E+03  5.18235E+03 -1.03827E+03 -2.62942E+03 -1.42244E+03  1.77280E+03  2.26679E+03
  3.80361E+02  1.41904E+03 -3.32694E+03  7.40884E+02  1.90446E+03 -9.13955E+02 -1.22670E+03 -3.42077E+03
  3.46010E+03 -9.22768E+02  2.87040E+03 -1.76962E+03  2.38025E+03  1.23244E+03 -8.92029E+02  6.34032E+03
 -1.13253E+03  1.17270E+03 -2.20099E+03 -1.38438E+03 -3.48087E+03  1.02938E+03  3.95982E+03 -1.58574E+03
 -3.54441E+03  6.37953E+01 -9.23873E+01 -4.00776E+03  1.86969E+03  4.39276E+03 -1.32712E+03 -6.72366E+02
