 $NMID ID='MM_0lb_SNR50_10hz_g55_69.RAW', FMTDAT='(8E13.5)'
 TRAMP=1., VOLUME=1. $END
  3.09344E+05  9.80017E+02  3.38156E+05  2.47481E+05  7.80044E+04  3.43881E+05 -1.33802E+05  2.49276E+05
 -1.91487E+05  8.50566E+04 -1.10591E+05 -3.30516E+04  7.74075E+03 -5.13140E+04  5.01156E+04 -1.43261E+03
  3.70667E+04  5.79958E+04 -1.48021E+04  7.05411E+04 -5.97471E+04  6.72144E+04 -8.48919E+04  3.06311E+04
 -8.19203E+04 -1.22382E+04 -6.05292E+04 -5.18587E+04 -1.63891E+04 -7.16595E+04  2.70461E+04 -4.51065E+04
  4.09940E+04  3.13977E+03  1.29064E+04  5.17607E+04 -3.34546E+04  4.66846E+04 -6.61284E+04 -1.56444E+03
 -5.14272E+04 -5.75588E+04 -9.26654E+03 -6.96061E+04  2.96095E+04 -5.49317E+04  5.21917E+04 -1.68974E+04
  4.53908E+04  1.35701E+04  3.50133E+04  2.18005E+04  1.50395E+04  3.35486E+04 -4.50629E+03  2.89212E+04
 -2.52006E+04  1.26126E+04 -1.73180E+04 -1.11603E+04  1.96821E+03 -1.28195E+04  2.25429E+04  1.13334E+04
  4.47584E+03  3.30236E+04 -3.75587E+04  3.84400E+04 -6.28562E+04 -3.93230E+02 -5.38617E+04 -4.44716E+04
 -9.30715E+03 -6.89010E+04  4.24135E+04 -4.47234E+04  5.67253E+04  1.97961E+03  4.11042E+04  3.10882E+04
 -3.81797E+03  4.25420E+04 -3.79630E+04  2.54342E+04 -3.37572E+04 -4.11131E+02 -2.04662E+04 -1.43913E+04
 -8.71023E+03 -1.77308E+04  1.24169E+03 -2.24631E+04  1.22312E+04 -2.49457E+04  1.95188E+04 -8.87321E+03
  1.40603E+04  2.19643E+03 -1.17507E+04  1.32049E+04 -2.93247E+04 -4.93715E+03 -1.32156E+04 -3.30260E+04
  2.72979E+04 -4.81250E+04  4.72922E+04 -1.76403E+04  5.21030E+04  2.62772E+04  1.85007E+04  4.43151E+04
 -1.39326E+04  3.63624E+04 -2.61050E+04  3.86952E+03 -1.30860E+04 -2.84864E+04  2.36355E+04 -3.36806E+04
  4.45556E+04 -1.35431E+04  3.95327E+04  2.31572E+04  1.80409E+04  5.40933E+04 -3.64395E+03  5.80954E+04
 -3.70719E+04  3.71509E+04 -5.37541E+04  6.37291E+03 -5.02215E+04 -1.70947E+04 -2.67051E+04 -3.62018E+04
  1.28996E+04 -4.45442E+04  3.23422E+04 -1.22620E+04  2.42892E+04  1.11900E+04  7.06985E+03  1.98395E+04
 -1.61186E+04  9.57246E+03 -1.35813E+04 -3.60424E+03  7.75030E+03 -9.76644E+03  1.64966E+04  4.04647E+03
  1.34603E+04  2.38310E+04 -5.02381E+03  2.98926E+04 -2.30572E+04  1.36073E+04 -2.64415E+04 -3.27442E+03
 -2.45262E+04 -1.86417E+04 -1.05059E+04 -2.78293E+04  8.40880E+03 -2.40318E+04  1.97514E+04 -2.33089E+04
  2.91068E+04 -1.88317E+04  3.34677E+04  2.77113E+03  2.54582E+04  2.30134E+04  3.48214E+03  4.94893E+04
 -1.47032E+04  3.33649E+04 -3.00578E+04  1.39826E+04 -2.47371E+04 -8.31091E+03 -6.95031E+03 -1.04609E+04
 -9.21489E+03 -3.67858E+03 -2.80577E+03  5.28536E+03 -1.74470E+04  3.35093E+03 -1.53759E+04 -3.74221E+03
 -1.38654E+04 -1.81386E+04  1.00892E+04 -2.82472E+04  1.80065E+04 -2.16534E+04  1.84760E+04 -9.36068E+03
  1.01663E+04  8.54396E+03 -4.36412E+02  1.85562E+04 -1.53429E+04  1.86531E+04 -2.39263E+04 -5.53724E+03
 -1.61611E+04 -2.27202E+04 -7.56116E+02 -2.34448E+04  1.42109E+04 -2.66247E+04  2.81182E+04 -9.53391E+03
  2.25705E+04  8.56336E+02  1.57280E+04  5.74425E+03 -1.34040E+02  2.54024E+03  1.06007E+04 -6.57811E+03
  2.13785E+04  8.87417E+03  1.57035E+04  1.95826E+04  1.78633E+04  4.00343E+04 -4.09723E+03  4.27511E+04
 -2.61243E+04  3.43728E+04 -3.48141E+04  1.85378E+04 -4.48919E+04 -5.26408E+01 -3.60888E+04 -2.79672E+04
 -8.24930E+03 -3.11729E+04  8.60597E+03 -2.71839E+04  2.65159E+04 -1.84361E+04  2.78761E+04  1.06760E+04
  5.14446E+03  1.77262E+04 -7.47244E+03  1.65841E+04 -1.66761E+04  1.53731E+03 -1.91285E+04 -1.59922E+04
 -1.55029E+03 -1.87685E+04  4.91270E+03 -1.63226E+04  1.65469E+04 -6.23272E+03 -1.49979E+03  1.05195E+04
 -1.06143E+04  4.20660E+03 -1.53229E+04 -9.89789E+03 -9.55976E+03 -1.29586E+04  7.53485E+03 -1.59421E+04
  2.43439E+04 -4.66411E+03  2.47357E+04  2.15955E+03  1.46109E+04  2.07423E+04  1.25908E+04  2.36605E+04
 -7.68412E+03  2.87112E+04 -1.69611E+04  2.84850E+04 -2.50930E+04  1.53110E+03 -1.56961E+04 -5.89029E+03
 -8.77634E+03 -6.47500E+03  4.49762E+03  1.63568E+03 -5.81235E+02  8.34384E+03 -1.46511E+03  4.20760E+02
 -1.55085E+04 -4.62572E+02 -1.56893E+04 -1.33177E+04 -8.84841E+03 -2.13070E+04  5.95070E+03 -1.72110E+04
  9.54839E+03 -8.49405E+02  1.02657E+03  6.64926E+03  1.42193E+03  1.05694E+04 -5.22336E+03  2.59370E+03
 -1.21510E+04 -9.96794E+03 -3.69088E+03 -1.57444E+04  8.64997E+03 -1.11502E+04  1.95108E+04 -8.53453E+03
  1.87080E+04  6.17902E+03  2.31131E+04  2.05294E+04 -1.37891E+03  2.20366E+04 -7.72450E+03  1.34029E+04
 -1.64513E+04  8.48433E+03 -8.02665E+03 -1.91869E+02 -1.61629E+03 -1.66153E+03  6.25971E+02  2.49939E+02
  5.92802E+03  9.14605E+03 -1.07230E+03  1.40964E+04 -6.26471E+03  1.89650E+04 -1.16743E+04  6.64611E+03
 -6.84019E+03 -8.61930E+03  3.48698E+03 -9.98115E+03  6.91287E+03 -5.55600E+03  8.87812E+03  6.48593E+03
  3.98649E+03  1.41644E+04 -9.45771E+03  1.18652E+04 -1.07300E+04  6.41301E+03 -1.26560E+04 -4.62661E+03
 -7.06683E+03 -1.54843E+04  6.78652E+03 -1.59921E+04  8.17994E+03 -1.00615E+04  1.28866E+04 -1.77050E+03
  9.94769E+03  1.20434E+04  8.27589E+02  1.96084E+04 -1.58456E+04  1.05701E+04 -1.01398E+04  5.75661E+03
 -1.20612E+04 -8.13582E+03 -4.29906E+03 -8.94410E+03  7.25704E+03 -1.03631E+04  7.77219E+03 -7.35110E+03
  7.92340E+03  5.80915E+03 -8.25648E+03 -3.28961E+01 -3.60484E+02 -6.25139E+03  6.09626E+03 -9.79182E+03
  1.19483E+04 -2.51428E+03  1.79126E+04 -2.53642E+03  1.15549E+04  1.01061E+04  1.10768E+04  2.05799E+04
 -6.03654E+03  1.73063E+04 -1.77999E+04  2.33850E+04 -2.89582E+04  4.10261E+02 -1.51154E+04 -9.96058E+03
 -7.38005E+03 -1.47528E+04 -2.26983E+03 -1.27555E+04  3.31227E+03 -7.95135E+03  1.06779E+03  2.22663E+02
  5.35421E+03 -3.86091E+03  6.73710E+03 -7.55792E+03  1.16262E+04 -1.50521E+03  1.12502E+04 -4.46900E+01
  1.10987E+04 -5.63479E+02  6.59640E+03  5.42101E+03 -5.28320E+03  1.00375E+04 -1.25080E+04  7.66960E+03
 -1.11072E+04 -2.30787E+03 -9.94949E+03 -1.44988E+04 -2.03836E+03 -8.24020E+03  9.70489E+03 -1.80311E+04
  2.28651E+04 -9.38474E+03  1.58780E+04  8.42434E+03  1.55134E+04  5.82336E+03 -1.47265E+03  1.83257E+04
 -7.73283E+03  6.59946E+03 -9.66153E+03  6.87279E+03 -1.05875E+04 -3.17652E+03 -4.03803E+03 -1.24148E+03
  3.12227E+03  2.31808E+03 -7.80991E+03  1.48786E+04 -5.84688E+03  1.69961E+03 -4.28008E+03 -1.68273E+02
 -1.12357E+04 -1.21863E+04 -6.56552E+03 -1.01530E+04  3.11932E+03 -1.34268E+04  1.25801E+04 -8.33689E+03
  1.10979E+04  4.30320E+03  7.86604E+03  1.46722E+04  1.76962E+02  1.23013E+04 -1.24226E+04  1.45362E+03
 -1.34930E+04 -2.28857E+03 -3.13104E+03 -1.11028E+04  1.03801E+03 -1.23729E+04  6.62957E+03 -5.27982E+03
  4.11502E+03 -4.42215E+03 -2.92370E+02  7.89675E+03  3.77218E+03  9.56121E+02  1.19383E+03  2.08128E+03
  1.06309E+02  3.13491E+03  4.52144E+03  2.85176E+03  2.80415E+03  5.58210E+03  3.83299E+03  2.15438E+03
 -4.59166E+03  1.62806E+04 -1.55500E+04  9.70823E+03 -1.87240E+04  1.65251E+03 -8.01222E+03 -5.58493E+02
 -4.28409E+03 -1.72313E+04  7.36623E+03 -1.35153E+04  3.38479E+03 -1.07503E+04  1.28440E+04 -3.66914E+03
  7.27216E+03  2.08483E+03  3.26167E+03  5.10104E+03 -4.52539E+03  7.27876E+02 -4.42241E+03  2.05698E+03
 -2.77621E+03 -4.10440E+03 -6.97377E+02 -8.56169E+03  5.08855E+03 -1.81715E+03  1.69497E+03  3.29930E+03
  1.76349E+03 -7.41674E+01  2.46885E+03  4.17576E+03  5.76071E+03  3.75051E+03  3.01111E+02  2.79059E+03
 -4.52597E+03  9.98935E+02  2.39652E+03 -2.72592E+03  6.42509E+02  4.24984E+03  1.82489E+02  9.96610E+03
 -5.77850E+03  1.03325E+04 -1.07225E+04  2.68097E+03 -1.53412E+04 -2.70181E+03 -4.87474E+03 -8.92611E+03
 -1.68755E+03 -1.48200E+03 -5.86728E+02  2.60438E+03  8.40342E+03  5.40646E+02 -8.07136E+02  3.90461E+03
 -1.14610E+04  2.23980E+03 -4.02364E+03 -2.92235E+02 -7.41652E+02 -1.23841E+04 -2.17888E+03 -7.19630E+03
  5.68319E+03  2.47537E+03  6.43096E+03 -4.71977E+03  4.16641E+03 -3.43166E+03 -1.04479E+03  1.50966E+03
 -8.41713E+03  4.54521E+03 -2.21346E+03 -7.10285E+03  4.24643E+03  4.12541E+03  5.86899E+03  2.50994E+02
  1.10732E+04  2.57878E+03  1.18246E+04  1.00677E+03  4.49249E+03  1.27763E+04  1.93702E+03  8.14594E+03
 -6.23558E+03  5.21822E+03 -2.43037E+03 -2.44362E+01 -3.89530E+03 -8.27875E+03  5.34678E+02 -2.71720E+03
  3.65899E+03 -4.34592E+03  5.55832E+03  4.95096E+03  2.86319E+03  2.64103E+03 -3.41763E+03 -5.47647E+02
  6.56471E+02  1.73127E+01  6.46639E+02  2.26970E+03  3.38529E+02 -1.12372E+03  1.74552E+02 -9.02931E+02
 -8.22810E+02  6.20142E+03 -3.14102E+03  1.32210E+03 -8.42110E+03 -1.49239E+03 -8.33030E+03 -6.40813E+03
 -6.48093E+02 -9.86757E+03  4.90711E+03 -1.00140E+04  6.66017E+03 -6.33335E+03  1.32748E+04 -2.63692E+03
  1.58379E+04 -4.86713E+03  1.08468E+04  8.15988E+03 -2.82805E+02  1.17712E+04  1.70714E+03  8.53593E+03
 -7.07732E+03  3.18593E+03 -4.92528E+03 -8.68151E+02  1.07222E+02 -9.41796E+02 -2.75827E+03  5.93957E+02
 -2.85131E+03  1.04474E+03  6.07752E+02  1.14175E+02 -2.90541E+03 -1.11885E+04 -2.52191E+03 -6.38804E+03
  5.07164E+03 -4.15199E+03  8.10089E+03  4.12636E+03  5.16585E+03  2.83296E+02  1.17954E+03  1.19302E+04
 -5.66371E+03  7.27124E+03 -6.47177E+03  6.49284E+03 -1.17843E+04 -3.43475E+03 -9.57035E+03 -1.04460E+04
 -5.43722E+02 -9.06356E+03  1.08300E+02 -4.49624E+03  6.45794E+03 -1.92997E+02  9.77254E+03  2.11911E+03
  7.47104E+03  5.09193E+03 -2.22313E+03  7.46737E+02 -2.73590E+03  2.06057E+03  6.04037E+02 -5.45668E+03
  3.96746E+02 -3.71514E+03 -2.78451E+03 -1.24207E+03  3.82110E+03  6.46401E+03 -2.51925E+02  5.34391E+03
 -4.33348E+03  8.56350E+03 -3.55485E+03  2.83978E+03 -8.30128E+03 -9.69005E+03 -2.16563E+03 -9.09505E+03
  5.55984E+02 -5.08549E+03  1.21063E+04 -7.60143E+01  8.84553E+03  3.08357E+03  4.86023E+03  3.27853E+03
  6.08654E+03  7.99833E+03 -8.93850E+00  4.63501E+03 -9.39522E+03  8.14605E+02  1.54925E+03 -6.94195E+01
 -5.89059E+03  1.83451E+03 -2.89198E+03 -2.49354E+03 -6.41037E+03  4.48637E+03  2.26687E+01  7.19433E+02
 -5.03670E+03  3.95284E+02 -3.66639E+03 -6.53378E+03  2.81903E+03 -5.66482E+03  1.27243E+04  1.12486E+03
  9.39000E+03  7.61618E+03  7.90466E+03  6.62176E+02 -3.85802E+02  2.45948E+03 -4.81253E+03  6.46474E+03
