 $NMID ID='MM_0lb_SNR50_15hz_g50_40.RAW', FMTDAT='(8E13.5)'
 TRAMP=1., VOLUME=1. $END
  3.07735E+05 -3.29088E+03  3.37637E+05  2.54406E+05  8.43045E+04  3.37858E+05 -1.32009E+05  2.49906E+05
 -1.85288E+05  8.64476E+04 -1.14586E+05 -2.72742E+04  2.89032E+03 -4.76909E+04  5.64279E+04 -3.84135E+03
  3.08043E+04  5.33837E+04 -1.27000E+04  7.33387E+04 -6.08492E+04  6.08051E+04 -8.74483E+04  3.14421E+04
 -7.76407E+04 -1.16821E+04 -5.86667E+04 -5.58243E+04 -1.37319E+04 -6.81524E+04  2.90449E+04 -4.97285E+04
  3.39044E+04  4.73868E+03  1.34403E+04  4.82441E+04 -3.50589E+04  4.86187E+04 -6.87269E+04 -5.39877E+03
 -5.38219E+04 -5.67736E+04 -5.60125E+03 -7.36643E+04  3.13993E+04 -5.29217E+04  4.44896E+04 -1.74311E+04
  4.30374E+04  1.32894E+04  3.29117E+04  2.34028E+04  1.64479E+04  3.04696E+04 -3.48890E+03  2.73704E+04
 -2.23475E+04  1.43150E+04 -1.56432E+04 -4.57792E+03  6.90078E+03 -6.51436E+03  2.39716E+04  9.72011E+03
  9.16148E+03  3.35013E+04 -3.56621E+04  3.65716E+04 -6.07610E+04  6.82455E+03 -6.22877E+04 -3.84967E+04
 -1.11686E+04 -6.38372E+04  3.66541E+04 -4.23448E+04  5.68414E+04 -1.09560E+03  3.52434E+04  3.25190E+04
 -6.26706E+03  3.65680E+04 -2.94323E+04  1.71696E+04 -2.80069E+04 -4.08832E+03 -1.61491E+04 -7.63060E+03
 -6.88738E+03 -1.27716E+04 -1.69434E+03 -1.96676E+04  6.89513E+03 -2.89139E+04  1.63324E+04 -1.43793E+04
  1.09821E+04  1.05378E+04 -1.09452E+04  1.43106E+04 -2.40016E+04 -3.76876E+03 -4.37240E+03 -3.36816E+04
  1.95013E+04 -4.71742E+04  5.26251E+04 -2.50164E+04  4.53919E+04  2.02985E+04  1.41804E+04  4.37745E+04
 -1.06636E+04  3.05077E+04 -2.09247E+04  3.79742E+03 -8.52915E+03 -3.05710E+04  2.27890E+04 -2.79408E+04
  3.99572E+04 -1.20672E+04  3.38167E+04  2.01266E+04  1.80020E+04  4.53005E+04 -7.30561E+03  5.10269E+04
 -2.99015E+04  3.52063E+04 -3.88726E+04  7.99758E+03 -4.19178E+04 -1.30243E+04 -2.13760E+04 -3.54388E+04
  7.87905E+03 -4.43855E+04  2.71603E+04 -1.22857E+04  2.95350E+04  1.40900E+04  2.00326E+03  2.03205E+04
 -1.21797E+04  8.82465E+03 -9.40364E+03 -9.07141E+03  8.11182E+03 -1.25064E+04  1.87413E+04  6.99415E+03
  1.13728E+04  2.32837E+04 -2.50636E+03  3.13537E+04 -2.87918E+04  1.02429E+04 -2.53517E+04 -4.21563E+03
 -1.85979E+04 -2.01924E+04 -9.83936E+03 -2.06833E+04  6.10138E+03 -1.87386E+04  1.53807E+04 -1.45151E+04
  1.92926E+04 -1.50169E+04  3.55133E+04  3.18173E+03  2.66172E+04  1.83985E+04  5.67213E+03  3.16201E+04
 -1.64569E+04  2.77298E+04 -2.52942E+04  1.21296E+04 -2.35187E+04 -1.03629E+04 -6.54179E+03 -9.83186E+03
  1.09347E+03 -3.34168E+03 -7.51311E+01  9.15575E+03 -1.82491E+04  5.21354E+03 -1.25323E+04 -1.01491E+04
 -1.17745E+04 -1.78574E+04  5.24994E+03 -2.51775E+04  1.77637E+04 -1.72397E+04  2.15958E+04  3.47242E+03
  1.18387E+04  1.09310E+04  7.52617E+02  1.75016E+04 -1.57152E+04  9.12105E+03 -1.43966E+04 -7.84723E+02
 -1.26297E+04 -1.84383E+04 -5.21291E+03 -2.53834E+04  1.19203E+04 -1.78006E+04  1.80580E+04 -7.82988E+03
  1.86152E+04 -1.32827E+03  1.04700E+04  5.46653E+02  4.47068E+03 -9.11628E+01  1.11132E+04  1.62425E+03
  1.88739E+04  6.05672E+02  1.57078E+04  1.15504E+04  1.12686E+04  2.65001E+04 -1.74756E+03  3.69360E+04
 -2.15112E+04  3.03218E+04 -3.23004E+04  1.49178E+04 -3.52941E+04 -1.57841E+03 -2.39072E+04 -1.65351E+04
 -8.82395E+03 -2.84961E+04  1.39891E+04 -2.28015E+04  2.34335E+04 -1.17884E+04  1.95451E+04  8.83430E+03
  5.03859E+03  1.30748E+04 -1.47631E+04  1.28643E+04 -1.73626E+04  1.79226E+03 -9.85587E+03 -1.26732E+04
  3.30535E+02 -1.24334E+04  6.12459E+03 -1.09647E+04  1.17051E+04 -2.33294E+03  8.53345E+02  8.85736E+03
 -8.00297E+03  2.03114E+03 -6.70240E+03 -3.80689E+03 -8.01370E+02 -1.42081E+04  5.92945E+03 -1.73183E+04
  1.46486E+04 -6.82091E+03  2.01733E+04  1.04855E+03  1.72671E+04  1.25057E+04  7.26927E+03  1.65687E+04
 -4.77709E+03  1.92859E+04 -1.84800E+04  1.58244E+04 -8.77818E+03  6.68452E+02 -6.17899E+03 -7.92526E+01
 -9.42692E+02 -5.00309E+03 -2.95984E+02  2.97865E+03 -1.70623E+03  4.10712E+03 -4.20618E+03  5.33566E+03
 -1.12004E+04  7.21984E+02 -9.05182E+03 -1.02302E+04 -5.87493E+03 -1.19079E+04  5.02584E+03 -1.21965E+04
  1.19294E+04  2.20586E+03  7.88562E+03  6.68112E+02 -1.76808E+03  7.48888E+03 -3.36416E+03 -2.65506E+03
 -7.26638E+03 -9.31381E+03 -1.39189E+03 -9.98398E+03  5.57241E+03 -6.44610E+03  1.48967E+04 -6.57450E+03
  1.27939E+04  1.56869E+03  1.32735E+04  8.13561E+03  4.48284E+03  1.20924E+04 -8.08091E+03  1.19908E+04
 -4.91580E+03  5.19588E+03 -2.00835E+03 -4.69771E+03 -3.02584E+03 -4.49759E+03  3.19751E+03 -6.01244E+03
  8.07493E+03  3.96341E+03 -7.59560E+02  5.43021E+03 -2.74725E+03  8.88900E+03 -6.24472E+03  1.13149E+03
 -4.86389E+03 -5.54485E+03 -2.95026E+03 -1.15104E+04  3.60747E+03  2.65264E+02  4.97999E+03  1.44609E+03
  1.59569E+03  5.05568E+03 -1.70962E+03  9.57774E+03 -7.51317E+03  5.45371E+03 -5.35112E+03  3.20810E+03
 -6.02968E+03 -5.34562E+03  3.24850E+03 -1.48833E+04  4.01568E+03 -8.98978E+03  6.51331E+03 -2.16001E+03
  7.37938E+03  7.31290E+03  6.84251E+02  6.81465E+03 -9.34719E+03  1.05608E+04 -5.77621E+03 -1.67004E+03
 -2.58626E+03 -1.21854E+04  1.83196E+03 -6.00948E+03  7.96762E+03 -4.79375E+03 -2.03285E+03 -2.58806E+03
  1.31189E+03 -1.34984E+03 -4.10809E+03  1.33592E+03  9.23864E+01  1.40757E+03  1.45506E+03 -5.10727E+03
  8.22048E+03 -1.68877E+03  1.28801E+04  4.02723E+01  3.75667E+03  6.04694E+03  4.96211E+03  1.27082E+04
  4.18648E+03  1.01571E+04 -8.60315E+03  8.91372E+03 -1.28799E+04 -6.78571E+02 -1.54923E+04 -2.30717E+03
 -8.07905E+03 -9.89181E+03 -8.63020E+02 -6.49606E+03  2.75970E+03 -2.06477E+03  1.92858E+03  5.57843E+02
  4.35542E+03 -4.65069E+03  3.20701E+03  1.87772E+03  5.83129E+03 -1.35925E+03  6.67270E+03  1.00401E+03
  1.05688E+04  5.29735E+03  3.27013E+03  3.83219E+03  2.42815E+03  6.55642E+03 -7.95383E+03  2.75180E+03
 -5.20994E+03  1.48277E+03 -1.30040E+03 -2.64635E+03 -1.20114E+03 -1.18713E+04 -1.77019E+02 -9.15101E+03
  1.12498E+04  3.33886E+03  1.11509E+04  2.40589E+03  7.09232E+03  9.92501E+03  6.59139E+02  8.99384E+03
 -2.42735E+03  5.72142E+03 -2.32194E+03  1.65330E+02 -5.13910E+03 -3.85048E+02 -5.25061E+03  1.92060E+03
 -1.87454E+03 -3.14151E+03 -4.12478E+03  4.49748E+03 -3.76373E+03  1.25427E+03 -7.83328E+03 -4.94717E+03
 -2.76711E+02 -5.74922E+03 -3.87044E+03 -8.73869E+03  2.97814E+03 -6.12582E+03  7.13442E+03 -4.05211E+03
  8.46337E+03  5.43093E+03 -1.84011E+03  1.07936E+04  1.39773E+02  7.56444E+03 -5.34278E+03  5.14378E+03
 -1.13444E+04  3.89416E+03 -5.52617E+03 -5.06324E+03  2.18103E+03 -7.52964E+03  5.45927E+03 -4.35298E+03
  6.16601E+03  1.14381E+03  3.40955E+03  8.99909E+02  2.75603E+03 -1.63627E+03 -6.07877E+03 -1.86408E+03
  1.34132E+03  6.07827E+02 -2.72547E+03 -4.04213E+02 -1.42564E+03  1.63801E+03  6.34423E+03  7.16444E+03
  3.91193E+02  2.31961E+03 -2.87102E+01  3.14803E+03 -7.04970E+03  1.83421E+03 -7.21987E+03 -5.54246E+03
 -6.58467E+03 -9.98424E+02  2.13118E+03 -5.21275E+03 -6.13480E+02  8.68897E+01  1.01833E+04 -4.19719E+03
  7.33679E+03 -1.05807E+03  6.49471E+02  8.89135E+03  4.89050E+02  1.03754E+03 -6.42064E+02 -3.52986E+03
  3.95377E+03 -5.24659E+03  2.32998E+03 -9.43234E+02  1.68879E+03 -2.17459E+03 -5.42909E+02  4.08519E+02
  1.61066E+03 -1.82877E+03  4.76555E+02 -8.41306E+02  2.23952E+03  2.00734E+03  5.38111E+03  1.83487E+03
  1.13136E+03  3.55089E+03  2.25269E+03  5.06887E+03  4.93286E+03  6.27847E+03 -1.58147E+02  5.79624E+03
 -2.20988E+02  2.32579E+03 -6.66571E+03 -1.07812E+03  7.29205E+00 -6.45271E+01 -6.55177E+02  1.14161E+03
 -7.50819E+02 -3.64206E+03 -1.26331E+03  4.23325E+03  2.61114E+02  3.17255E+03  2.33837E+03  1.55288E+03
  3.92134E+02  1.84615E+03 -2.99153E+03  1.89590E+03  2.85094E+02 -4.54856E+03  1.10635E+03 -4.15743E+02
 -1.62115E+03 -1.52429E+02  1.74550E+03 -3.09796E+02  1.54922E+03  5.00760E+03  1.20158E+03  2.06648E+03
 -4.20642E+03 -6.60153E+02  4.67340E+03 -5.70716E+03  3.09275E+02 -6.82462E+02  3.08967E+03  2.93143E+03
 -1.42360E+03 -9.91838E+02  4.94989E+03  7.00241E+03  4.63490E+03  3.39506E+03 -2.73912E+03  3.53319E+03
 -6.08545E+03 -5.58386E+02 -3.36037E+03  3.95442E+03 -3.03652E+03 -8.03216E+03  3.91809E+02 -1.78458E+03
 -1.21658E+02  1.79468E+03  2.30119E+03 -1.75503E+03  2.00232E+03  1.08386E+03  1.89096E+03  2.90236E+02
 -4.96855E+01  2.71219E+03 -1.18798E+03  3.26989E+03 -2.48779E+03  4.63278E+03 -5.71013E+03  5.18242E+03
 -2.50071E+03  6.55996E+01 -3.75164E+01  1.98619E+03 -9.49218E+03 -2.68143E+03 -2.46805E+03  6.97800E+02
 -2.98626E+03 -2.94401E+03 -1.29172E+03 -4.97736E+03  1.95820E+03 -3.14640E+03  5.87620E+03 -3.99411E+02
  9.30188E+03 -6.32742E+03  6.28854E+03  5.40219E+03 -1.77049E+02  6.00831E+03  2.12675E+03  1.56455E+03
 -1.52379E+02  1.35555E+03 -6.71744E+03  2.51065E+03 -5.05865E+03  4.04223E+03  3.31621E+03  1.28706E+03
 -2.30334E+03 -1.62811E+03  3.14954E+03 -2.23981E+03  1.07553E+02  1.55627E+03  9.51072E+02  1.08267E+03
  3.96675E+03 -1.49844E+03  1.96983E+03  6.30994E+03 -2.74395E+03  7.02321E+03  1.84107E+03  4.43899E+02
 -1.99126E+03  7.97450E+03 -4.64796E+03  4.21918E+03 -1.27297E+03  2.82876E+03 -3.14022E+03  2.23552E+03
 -1.21631E+03 -2.29951E+03  2.56978E+03  1.11832E+02  1.95513E+02 -1.11034E+03  3.26169E+03  1.98327E+03
  3.00444E+03 -6.62858E+03  7.88642E+01  1.07625E+03  5.39762E+02  1.18714E+03  1.30630E+03  3.13697E+03
  3.31119E+03  1.21263E+03  7.25043E+03  1.96902E+03  3.48822E+02  7.76814E+02 -7.52465E+02 -1.42019E+03
 -2.83649E+03  1.75128E+03 -1.37267E+03  5.67902E+02 -2.88247E+03 -5.70406E+03 -2.17556E+02 -3.62324E+03
  3.31084E+03 -1.31082E+03  3.34551E+02  5.10582E+03  4.68505E+02 -1.65144E+03  2.42602E+03  4.20447E+03
  1.09836E+03  1.36001E+03 -2.49260E+03  2.63344E+03 -7.78938E+02  4.14394E+03 -2.84290E+03 -3.28044E+02
  1.19556E+03 -2.69366E+03  7.54189E+02 -2.53860E+02 -7.89506E+03  1.18645E+03  3.61658E+03  1.64888E+03
 -3.12833E+03 -4.96259E+03 -2.38925E+03  1.59525E+03  1.75858E+02 -1.01567E+01  1.41018E+03  4.89349E+02
  1.50303E+03  9.16375E+02  3.38566E+03  3.27463E+03 -6.30136E+03  2.48639E+03 -9.30131E+01  1.56904E+03
