 $NMID ID='MM_0lb_SNR50_19hz_g45_25.RAW', FMTDAT='(8E13.5)'
 TRAMP=1., VOLUME=1. $END
  3.12033E+05  4.88108E+03  3.35221E+05  2.50372E+05  8.47865E+04  3.37331E+05 -1.31830E+05  2.50692E+05
 -1.91229E+05  8.23160E+04 -1.14315E+05 -3.66762E+04  7.92621E+03 -4.77384E+04  5.08433E+04  6.61525E+02
  3.36679E+04  5.23266E+04 -1.70695E+04  6.97821E+04 -6.08855E+04  6.35062E+04 -7.95757E+04  3.10245E+04
 -7.92189E+04 -1.31528E+04 -5.70389E+04 -4.97115E+04 -1.53920E+04 -6.56273E+04  2.31279E+04 -4.40248E+04
  3.90007E+04  3.49571E+03  1.81233E+04  4.77657E+04 -3.45488E+04  4.75556E+04 -6.37902E+04  2.91477E+03
 -5.06226E+04 -5.58270E+04 -1.71933E+03 -7.20271E+04  3.34481E+04 -5.08757E+04  4.24650E+04 -1.65479E+04
  3.86282E+04  1.02311E+04  3.05600E+04  2.15328E+04  1.77880E+04  2.99014E+04 -4.34213E+03  3.06040E+04
 -2.04921E+04  1.32163E+04 -2.01345E+04 -2.95423E+03  3.88644E+03 -5.95692E+03  2.39837E+04  1.04327E+04
  8.43586E+03  2.95729E+04 -3.54907E+04  3.24658E+04 -6.06898E+04  4.35536E+02 -6.04746E+04 -4.18129E+04
 -1.07971E+04 -6.11571E+04  3.74211E+04 -4.29867E+04  5.52007E+04 -3.17626E+03  3.24617E+04  2.79541E+04
 -4.30434E+03  3.25367E+04 -3.01682E+04  1.17116E+04 -2.79323E+04 -2.50021E+03 -1.19521E+04 -7.95944E+03
 -2.06805E+03 -1.31018E+04  3.15164E+03 -1.19849E+04  7.18253E+03 -2.37419E+04  1.39709E+04 -9.07480E+03
  1.27406E+04  1.08211E+04 -9.37713E+03  1.32659E+04 -1.77610E+04 -3.18982E+03 -7.60355E+03 -2.72196E+04
  2.09674E+04 -3.92612E+04  4.34146E+04 -1.84987E+04  4.06598E+04  1.77413E+04  1.40639E+04  3.86647E+04
 -1.58962E+04  3.40108E+04 -2.76413E+04  1.75508E+03 -5.53232E+03 -2.85915E+04  2.42878E+04 -3.09338E+04
  3.99728E+04 -1.07323E+04  2.99358E+04  1.93799E+04  1.06715E+04  3.98407E+04 -1.09382E+04  4.06138E+04
 -2.50566E+04  2.66852E+04 -3.38101E+04  1.37473E+04 -3.80082E+04 -1.55420E+04 -2.13341E+04 -3.44897E+04
  1.03369E+04 -3.41509E+04  3.04635E+04 -8.55169E+03  2.69283E+04  9.30171E+03  4.55235E+03  1.85158E+04
 -1.27169E+04  6.32353E+03 -1.22109E+04 -6.76522E+03  5.16845E+03 -1.08460E+04  2.37752E+04  3.93284E+03
  1.07464E+04  1.61715E+04 -1.16377E+03  2.38759E+04 -1.79926E+04  9.11605E+03 -2.74856E+04 -8.13299E+03
 -1.69411E+04 -1.82127E+04 -4.43676E+03 -1.82134E+04  3.08886E+03 -1.18496E+04  1.67557E+04 -2.08029E+04
  2.15595E+04 -1.19671E+04  2.57920E+04  6.09188E+03  1.62593E+04  1.58949E+04  3.65938E+03  3.22855E+04
 -1.53450E+04  2.48571E+04 -2.57830E+04  8.51546E+03 -2.06153E+04 -8.99638E+03 -1.72104E+03 -1.39733E+04
  7.22020E+03 -3.85209E+03 -1.77735E+03  4.52460E+03 -1.22145E+04  4.54174E+03 -1.20455E+04 -1.58030E+03
 -5.99099E+03 -1.47312E+04  6.63546E+03 -1.97978E+04  1.32877E+04 -1.17239E+04  1.79532E+04 -1.48710E+03
  4.68184E+03  5.66066E+03 -8.57554E+02  1.45080E+04 -8.58758E+03  4.49904E+03 -1.39102E+04 -3.33979E+03
 -1.07839E+04 -9.91264E+03 -1.77612E+03 -2.00001E+04  1.04818E+04 -1.72338E+04  1.49736E+04 -3.67177E+03
  1.42001E+04  3.51286E+03  8.97565E+03  7.29261E+03  8.27896E+03 -3.06428E+03  1.18322E+04 -1.43559E+03
  1.23023E+04 -7.38202E+01  1.67261E+04  1.34368E+04  1.02611E+04  2.25591E+04 -1.38670E+03  2.75423E+04
 -1.78322E+04  2.26709E+04 -2.45714E+04  1.26329E+04 -2.49765E+04 -1.86214E+03 -2.41910E+04 -1.55895E+04
 -7.17152E+03 -2.22237E+04  5.03378E+03 -1.64612E+04  1.63188E+04 -8.20993E+03  1.25218E+04  6.26629E+03
  9.48710E+03  1.13786E+04 -7.44700E+03  1.35182E+04 -1.53974E+04  2.41786E+01 -1.14114E+04 -2.12428E+03
 -3.06405E+03 -1.21688E+04  5.04281E+03 -8.18558E+03  1.52114E+04 -1.25128E+03  4.93320E+03  6.63581E+03
 -8.47232E+03  3.15110E+03 -2.16265E+03 -3.74567E+03 -8.69766E+02 -6.38868E+03  9.09274E+03 -1.05912E+04
  1.00598E+04 -1.06260E+03  9.85423E+03  3.34830E+03  1.07442E+04  4.11860E+03  2.47667E+03  1.38865E+04
  3.34134E+03  1.24584E+04 -8.81138E+03  1.22755E+04 -9.94744E+03  4.34849E+01 -2.67641E+03 -8.70000E+02
 -6.42066E+03 -3.94823E+03 -3.99814E+03  1.53176E+03 -3.28697E+03  2.32474E+03 -3.76539E+02  7.85246E+03
 -8.97387E+03  6.95726E+02 -7.64345E+03 -6.06323E+03 -5.30493E+03 -1.31869E+04  3.91240E+03 -6.79738E+03
  7.80962E+02 -3.50760E+03  6.05152E+03  3.18522E+03 -2.33220E+02  5.13039E+03 -2.95052E+03  9.47605E+02
  8.83053E+01 -6.48566E+03 -1.22466E+03 -3.97289E+03  3.90841E+03 -8.78600E+03  9.06873E+03 -5.68145E+03
  8.81349E+03  3.48923E+03  1.14367E+04  2.20952E+03 -1.03115E+03  1.09865E+04 -4.37487E+03  7.10105E+03
 -8.69267E+03  4.13572E+03 -2.77644E+03  2.28299E+03 -1.69279E+03 -7.26542E+01  1.86823E+03  2.37430E+03
  7.00860E+03  6.01050E+03 -1.20863E+03  6.78696E+03 -4.88323E+03  2.86710E+03 -7.12880E+03  2.53587E+03
  1.02424E+02 -7.21708E+03 -5.34135E+02 -4.73453E+03  7.04749E+03 -4.21980E+03  6.99295E+03 -2.82837E+02
  2.02596E+03  4.16229E+03 -3.01686E+03  5.22374E+02 -3.88971E+03  1.94469E+02 -4.28083E+03 -7.41502E+02
 -2.18540E+03 -2.49444E+03 -1.11904E+03 -4.04198E+03  4.23727E+03 -1.24243E+03  4.18466E+03 -1.30300E+03
  5.50175E+03  4.35879E+03  4.58998E+03  3.83066E+03 -4.90182E+03  8.20707E+03 -6.47690E+03  2.28619E+03
 -1.92641E+03 -3.98653E+03 -3.20988E+03 -1.05940E+04  3.23426E+03 -3.25409E+03  4.06955E+03 -2.58878E+03
  3.63352E+02  2.41868E+03  4.92384E+02 -3.57053E+03  2.36649E+03 -1.79262E+03 -1.29959E+03  2.08204E+03
  1.56183E+03  3.88111E+02  5.66472E+03  2.94855E+03  1.42917E+03  4.51339E+03  2.66691E+03  8.25916E+03
 -2.06147E+03  1.23790E+04 -7.50140E+03  1.74298E+03 -1.09691E+04  2.41814E+03 -6.58803E+03 -1.80055E+03
 -2.65558E+03 -7.26971E+03 -4.71544E+03 -7.85060E+03  4.40642E+02 -1.29421E+02 -1.61696E+03  3.39245E+02
 -3.20257E+03 -2.32119E+03  1.82296E+03 -7.43443E+03  7.05539E+03  2.02773E+03 -1.09286E+03  4.37198E+03
  9.28925E+02  2.27346E+03  3.84412E+03  3.33744E+03 -2.27674E+01  1.18543E+03 -3.40540E+03  3.00583E+03
 -7.90483E+03 -1.14641E+03 -5.53974E+03  2.07867E+02  8.18548E+01 -4.39564E+03  2.97288E+03 -7.09529E+03
  5.50322E+03  9.47461E+02  7.06649E+03 -1.48444E+03  3.98984E+03  8.76585E+03  4.95996E+03  7.67161E+03
 -6.22030E+03  8.79767E+03 -1.20902E+03 -2.68559E+02 -2.98950E+03 -2.02778E+03  5.57818E+02 -3.76745E+03
 -4.50954E+03  7.55058E+02 -2.34308E+03  1.28889E+03 -4.49213E+03  1.02255E+03 -2.29185E+03  6.08546E+02
 -1.11526E+03 -8.49862E+03  8.19430E+02 -3.80425E+03  1.50778E+02 -1.09382E+02  1.77127E+03 -9.59043E+02
  4.51068E+03  7.68301E+03  4.94301E+02  4.08931E+03 -5.66527E+03  6.38058E+03  1.04193E+03  8.56844E+02
 -6.42811E+03  5.24523E+02 -1.79556E+03 -2.14988E+03  3.64438E+03 -2.22777E+03 -2.49149E+02 -7.15584E+03
  3.42018E+03 -1.37340E+03  2.95427E+03  7.33248E+02  3.59812E+03  9.83138E+02  1.07037E+01  2.15538E+03
  2.16388E+03  2.69393E+03  1.19197E+03  3.11408E+03  2.60916E+03  2.92739E+03 -5.33012E+02 -3.41836E+02
 -4.16090E+03  4.74750E+03 -6.12695E+03  4.80312E+03 -4.95775E+03  1.10883E+03 -3.83938E+03 -1.68390E+03
 -1.73531E+03 -2.71973E+03  1.75560E+03 -4.59067E+03  4.36747E+03 -5.46025E+03  2.08592E+03 -5.18140E+03
  4.83135E+03 -5.64541E+02  1.57658E+02  5.34038E+02  5.17430E+02  2.87583E+03 -3.14245E+03 -3.75401E+03
 -1.04436E+03 -2.82755E+03  4.59993E+03 -2.54587E+03  2.22344E+03 -1.31565E+03  6.25104E+03 -2.36556E+02
  2.89805E+03 -1.70384E+03  1.38487E+03  2.07364E+03 -1.43932E+03 -7.30680E+02  2.85231E+03  1.23728E+03
 -2.54970E+03  3.96804E+03  1.90654E+03  5.34058E+02 -4.14290E+03  6.80979E+02  1.88614E+01  2.69617E+03
 -7.40085E+03  2.62587E+03 -1.16149E+03 -1.22053E+03  1.33426E+03 -4.56070E+03 -4.40207E+03 -2.30286E+03
 -6.35327E+01 -6.34191E+03 -5.88701E+02 -2.93165E+03  1.38569E+03 -7.48216E+02  1.17059E+03  9.45366E+01
 -1.61691E+03  4.63282E+02 -3.59487E+03 -4.28961E+03 -8.24712E+02 -2.07637E+03  4.68677E+02 -1.23045E+02
  1.25120E+03 -1.69163E+03  1.49164E+03  4.18724E+03  1.64646E+03 -1.48107E+03  2.58721E+03  3.18432E+03
 -4.51225E+02  4.74402E+02 -2.42841E+03 -1.60318E+03  1.73301E+03  3.61580E+02  6.99293E+03 -2.45132E+03
 -1.12350E+03 -1.72110E+03  2.26261E+03 -1.45989E+03  4.79495E+03 -8.10925E+02  9.21472E+02  2.53045E+02
  2.37774E+03  2.50363E+03 -5.25821E+02  3.20298E+03 -1.84237E+03 -4.93251E+03  2.40950E+02 -2.13038E+03
  1.05236E+02 -4.98495E+03 -1.97685E+02 -1.43302E+03  2.43881E+03  2.35957E+03 -5.60309E+03  1.36764E+03
 -3.29412E+03  2.02001E+03  1.76675E+03 -1.87630E+02 -9.47915E+01  9.86616E+01 -3.32431E+03 -1.65233E+03
 -4.15392E+03 -2.06296E+03 -8.16950E+02  1.36509E+03 -1.83174E+03  3.95482E+03 -1.90477E+03 -2.16520E+03
 -4.70834E+02 -2.59724E+03 -3.58838E+02 -2.65882E+03  2.50201E+03 -1.58354E+03  1.13366E+03  1.69092E+03
  1.83735E+03  5.14585E+02  2.26522E+03  2.59662E+03  2.81469E+03  2.70234E+03  1.45941E+02  3.46848E+03
 -2.56570E+03  3.20472E+03 -2.25816E+02  1.48731E+03  1.12722E+02  4.65187E+03 -4.27954E+03 -1.69848E+03
 -3.63725E+03 -1.77925E+03 -5.01143E+03 -3.61382E+03  9.39132E+02 -1.62632E+03  3.37723E+03  1.24910E+03
 -2.20759E+03 -6.03070E+02  1.37693E+03 -4.92210E+02  1.30355E+03  6.86758E+02  6.58622E+02  1.39851E+03
 -4.02436E+03  4.54369E+03 -1.58665E+03 -1.50683E+03 -2.87256E+03 -3.18229E+03  1.54106E+03  8.81891E+01
 -2.53338E+02 -1.02353E+03 -4.84691E+02 -3.25272E+03  2.80861E+03 -3.20257E+03 -3.91868E+03  3.61488E+03
 -1.37810E+03 -1.89398E+02  2.77277E+03 -3.83212E+03 -4.81612E+03 -5.13879E+02 -3.76840E+03  7.19856E+02
  2.43174E+03 -7.62975E+01 -3.28683E+03 -9.44844E+02  3.88178E+03  4.00635E+03  2.04785E+03  3.80601E+03
 -2.60642E+03 -1.38740E+02 -3.31812E+03  2.44317E+02 -2.63937E+02 -5.32498E+03  1.11481E+03 -3.42948E+03
 -1.35548E+03  1.50638E+02 -2.82084E+02  2.07249E+03  4.66369E+03 -1.19661E+03  1.77082E+03  1.88638E+03
  1.89380E+03 -1.31641E+03  6.65022E+02 -6.68274E+02 -1.11527E+03 -4.34160E+03  1.08387E+03  5.07412E+01
  1.39153E+03 -3.25270E+03  2.61231E+03 -9.00433E+01 -7.66387E+02 -4.57936E+02 -1.57012E+03 -4.08078E+02
 -1.66954E+03 -1.31019E+02  2.41088E+03 -1.58566E+03 -2.14612E+03 -1.43423E+03 -2.06009E+03 -5.37217E+03
  4.53489E+03 -1.85096E+03 -4.08129E+03  7.73966E+02 -1.27194E+03 -1.05763E+03 -2.46504E+03 -1.44746E+03
