 $NMID ID='MM_0lb_SNR50_15hz_g55_99.RAW', FMTDAT='(8E13.5)'
 TRAMP=1., VOLUME=1. $END
  3.09389E+05 -2.14922E+02  3.40062E+05  2.46779E+05  8.30494E+04  3.39880E+05 -1.36445E+05  2.53254E+05
 -1.92177E+05  8.79184E+04 -1.09558E+05 -3.31833E+04 -1.32710E+03 -5.22682E+04  5.32754E+04  4.25173E+03
  3.45574E+04  4.98192E+04 -1.52737E+04  7.45087E+04 -6.21068E+04  6.07174E+04 -8.35545E+04  3.29442E+04
 -8.14643E+04 -1.04140E+04 -5.93207E+04 -5.26701E+04 -9.69071E+03 -7.15161E+04  2.67808E+04 -4.94658E+04
  4.08355E+04  2.41509E+03  1.42313E+04  4.73866E+04 -3.70914E+04  5.06995E+04 -7.06184E+04 -4.12843E+03
 -5.61798E+04 -5.69099E+04 -5.24896E+03 -7.28113E+04  3.64986E+04 -5.21923E+04  4.83516E+04 -1.59757E+04
  5.05813E+04  1.45160E+04  3.18500E+04  2.60007E+04  1.76172E+04  2.86587E+04 -7.75998E+03  2.71252E+04
 -2.29207E+04  1.34756E+04 -2.04768E+04  1.35976E+03  1.15638E+04 -8.32116E+03  2.52916E+04  1.28056E+04
  7.68721E+03  3.21274E+04 -3.30720E+04  3.32678E+04 -5.57735E+04  2.24248E+03 -5.96577E+04 -3.92566E+04
 -1.00045E+04 -6.38576E+04  4.27182E+04 -4.68457E+04  5.78231E+04 -3.39112E+03  3.00833E+04  3.16944E+04
 -3.20355E+03  3.23549E+04 -3.08464E+04  1.47972E+04 -3.00394E+04 -4.06873E+03 -1.45993E+04 -1.03032E+04
 -1.19246E+04 -1.40168E+04 -3.04496E+03 -1.81204E+04  6.47098E+03 -3.24086E+04  2.04872E+04 -1.42015E+04
  1.22949E+04  5.28988E+03 -9.52481E+03  1.82524E+04 -2.33900E+04 -4.11702E+03 -6.96501E+03 -3.61227E+04
  2.13344E+04 -4.34343E+04  4.83030E+04 -2.21903E+04  4.79792E+04  1.95964E+04  1.82499E+04  4.30735E+04
 -1.78637E+04  3.59503E+04 -2.58443E+04  1.84414E+03 -1.35652E+04 -2.66099E+04  2.01488E+04 -3.27468E+04
  4.38925E+04 -7.06965E+03  3.96569E+04  2.30180E+04  1.76783E+04  4.76946E+04 -8.80041E+03  4.92155E+04
 -3.36082E+04  3.25009E+04 -3.97100E+04  9.97061E+03 -4.06949E+04 -1.78451E+04 -1.85225E+04 -3.50270E+04
  3.21636E+03 -3.80129E+04  3.20973E+04 -1.63894E+04  2.85885E+04  1.01493E+04  3.31984E+03  1.57712E+04
 -1.49266E+04  9.34710E+03 -1.12932E+04 -8.52470E+03  5.72819E+03 -1.32514E+04  1.71046E+04  1.13308E+03
  1.12730E+04  2.09162E+04 -6.53686E+03  2.66117E+04 -2.77972E+04  1.38597E+04 -2.98895E+04 -4.66202E+03
 -1.47458E+04 -1.42317E+04 -8.95285E+03 -1.65672E+04  3.08686E+03 -1.68132E+04  1.67892E+04 -1.99292E+04
  2.54385E+04 -1.17661E+04  3.13333E+04 -1.23068E+03  2.53202E+04  1.96629E+04  1.89692E+03  3.84400E+04
 -1.66704E+04  2.77803E+04 -2.46150E+04  1.05156E+04 -1.79991E+04 -5.72956E+03 -5.24591E+03 -1.32104E+04
  4.38045E+03 -3.15461E+03 -9.12091E+03  4.88686E+03 -1.82853E+04  3.74407E+03 -1.40581E+04 -1.00727E+04
 -8.11127E+03 -1.98269E+04  4.29458E+03 -2.07198E+04  1.49938E+04 -1.72936E+04  1.89148E+04 -4.15047E+03
  1.11219E+04  1.33966E+04  3.64278E+03  2.10610E+04 -1.31594E+04  7.82330E+03 -1.95101E+04 -5.11840E+03
 -1.05275E+04 -2.35122E+04 -4.27451E+02 -2.58335E+04  1.07600E+04 -1.53575E+04  1.83091E+04 -8.32211E+03
  1.73257E+04  6.57879E+03  1.40697E+04  3.94846E+03  6.42905E+03 -8.84511E+02  1.54838E+04  4.04368E+02
  1.66365E+04  2.41894E+03  2.36976E+04  1.48686E+04  1.02536E+04  2.19407E+04 -5.94676E+03  3.75072E+04
 -2.08491E+04  2.33783E+04 -3.42211E+04  1.17981E+04 -3.20589E+04 -7.46117E+03 -2.86605E+04 -2.23878E+04
 -1.70615E+04 -2.61432E+04  7.38772E+03 -2.22061E+04  1.67772E+04 -8.10747E+03  1.28522E+04  2.15632E+03
  7.77832E+03  1.35112E+04 -9.39276E+03  1.12987E+04 -1.49947E+04  2.64984E+03 -1.68092E+04 -1.12802E+04
 -3.50261E+00 -1.75445E+04  1.20477E+04 -9.31583E+03  6.75926E+03  9.01749E+02 -4.46323E+03  6.58878E+03
 -2.96230E+03  2.72398E+03 -3.19276E+03 -3.76411E+03  1.39814E+02 -1.48170E+04  8.44393E+03 -1.55091E+04
  1.88641E+04 -6.67585E+03  1.80474E+04  5.60608E+03  1.37110E+04  1.17600E+04  4.30714E+03  2.17527E+04
 -8.38895E+02  2.24425E+04 -1.62774E+04  1.52704E+04 -1.70643E+04  4.59023E+03 -9.22617E+03 -3.27009E+03
 -4.68524E+03 -5.32436E+03 -1.40616E+03  1.09711E+03 -2.25914E+03  3.09027E+03 -4.75687E+03  1.06440E+03
 -4.21765E+03 -9.94320E+02 -6.89814E+03 -1.25179E+04 -7.57273E+03 -1.35311E+04  4.76134E+03 -1.36941E+04
  8.33276E+03 -7.97678E+03  2.18968E+03  4.60413E+03  4.32169E+03  2.48057E+03 -2.93019E+03  3.73924E+03
 -8.46793E+03 -3.60255E+03 -8.50229E+02 -9.69891E+03  6.34615E+03 -1.01925E+04  1.47233E+04 -2.69716E+03
  2.00518E+04  3.08762E+03  1.24585E+04  5.66741E+03  4.97500E+03  9.30920E+03 -6.21719E+03  8.92825E+03
 -8.24392E+03  7.44292E+03 -4.50017E+03 -1.34046E+03  2.77307E+03 -3.37559E+03  1.41910E+03 -3.37592E+03
  4.35020E+03  9.67474E+03  2.28899E+03  8.14951E+03 -5.85095E+03  8.96542E+03 -1.34105E+04  6.55740E+02
 -1.22191E+04 -6.59559E+03  2.34948E+03 -1.12794E+04  8.36542E+02 -9.65067E+03  3.88642E+03  3.56066E+03
 -1.73340E+03  6.69037E+03 -8.99255E+03  7.90860E+03 -5.71389E+03  2.01114E+03 -9.86510E+03 -4.46850E+03
 -9.95218E+03 -9.43546E+03 -2.77152E+03 -6.81252E+03  1.05839E+04 -6.07141E+03  1.18721E+04  1.69589E+03
  3.68702E+03  1.19237E+04 -1.00443E+03  1.41692E+04 -8.48033E+03  2.74304E+03 -9.07326E+03 -1.95417E+03
 -4.79805E+03 -5.86403E+03 -2.63114E+03 -3.69642E+03  5.20033E+03 -3.59816E+03  4.15353E+03 -3.37002E+02
  6.85330E+03  4.02790E+03  2.59701E+03 -5.84325E+03  9.93376E+02  1.03472E+03  2.83435E+03 -5.60360E+03
  8.22312E+03 -1.34273E+03  1.03307E+04  1.82096E+03  1.21785E+04  6.66381E+03  4.00829E+03  1.54892E+04
  8.42230E+01  1.42300E+04 -1.14690E+04  1.24947E+04 -1.66191E+04  5.46118E+03 -1.29460E+04 -2.68844E+03
 -5.52810E+03 -1.10977E+04  1.98900E+03 -1.09493E+04  5.84776E+02 -2.84210E+03  3.89121E+03 -6.68736E+03
  4.97008E+01 -6.86439E+03  3.31652E+03 -8.15763E+01  4.42474E+03 -7.47313E+03  3.10562E+03  2.29780E+03
  7.82215E+03  5.94331E+03  3.80829E+03  6.79018E+03 -2.97727E+03  5.82035E+03 -9.96540E+03  5.44831E+03
 -1.27588E+04 -7.32928E+02 -5.36590E+03 -2.03069E+03 -1.77346E+03 -1.29646E+04  7.00401E+03 -2.47986E+03
  1.15807E+04 -1.69548E+03  1.15502E+04  5.04797E+03  8.77374E+03  3.12794E+03  9.30786E+02  1.19346E+04
  3.70883E+03  9.52231E+03 -3.96213E+03  8.54085E+03  3.39478E+02 -4.86533E+03  1.55898E+02 -3.71187E+03
  5.04638E+01 -1.26729E+03 -6.71504E+01  2.64677E+03 -4.62935E+03 -5.43256E+03 -8.26363E+03 -4.93330E+03
 -5.11767E+03 -1.60738E+03  6.01094E+02 -7.02797E+03  6.00659E+03 -9.80722E+03  9.08242E+03 -5.37059E+03
  8.59712E+03  5.24668E+03  3.28434E+03  8.05554E+03 -2.83175E+02  7.53888E+03 -1.98023E+03  5.59091E+03
 -7.34570E+03  4.38097E+02 -3.36044E+03 -3.67303E+03 -1.64240E+03 -4.77413E+03  7.79721E+03 -1.14779E+04
  5.67137E+03 -5.95290E+03  5.89401E+03 -1.54326E+03 -4.33399E+02  1.09225E+03 -4.54220E+03 -7.07334E+01
  1.81761E+02 -2.21817E+03  2.27357E+03 -2.26823E+03  3.47746E+03  7.56441E+03 -7.45499E+02  2.94986E+03
 -4.24106E+03  6.82668E+03 -4.20612E+03  9.19247E+03 -1.04680E+04  1.72591E+03 -6.16575E+03 -7.84186E+03
 -4.56862E+03 -1.14126E+04  4.60269E+02 -9.19732E+03 -2.12202E+03  2.38598E+03  4.17479E+03 -4.68598E+03
  4.87233E+03  2.30686E+03  4.16945E+03  3.69023E+03 -4.10297E+03 -3.36995E+01 -5.89044E+02 -2.12785E+03
  3.34162E+01 -8.99420E+03  3.90648E+02 -3.77079E+03 -9.80850E+02 -2.25442E+03  2.25095E+03  1.01924E+02
 -1.78342E+03 -2.48030E+03  4.49274E+03  1.96009E+03  2.34377E+03  2.25296E+03 -1.64328E+03 -2.55516E+03
 -8.27633E+02 -7.40920E+03  5.83657E+03 -2.73673E+03  3.45354E+03  9.99342E+03 -1.16868E+03  3.49191E+03
 -7.03974E+03  3.78780E+03 -2.46799E+03  4.86102E+03 -9.84368E+03 -2.17543E+03 -3.52267E+03 -2.22742E+03
  2.18473E+03 -2.14084E+03 -2.27029E+03 -6.71263E+03  2.55398E+02  2.25795E+03  4.97699E+03  3.27055E+03
 -1.00641E+03  1.32933E+02 -1.42999E+03 -1.92496E+03 -4.55069E+03 -5.70046E+03  1.05400E+03 -3.37334E+03
  6.50033E+02  6.23435E+02  4.18763E+02 -2.33611E+03  1.10075E+04 -5.05652E+03  3.36881E+03 -6.22269E+02
  1.53383E+03 -1.11402E+03 -1.91335E+03 -3.34940E+03  1.73797E+03 -2.08592E+03  6.73532E+03 -2.62289E+03
  4.44865E+03 -2.05326E+02  2.68841E+03  1.64611E+03  4.48026E+03  6.21019E+03  3.92813E+02  1.11254E+03
 -3.24684E+03 -6.80095E+02 -6.38517E+03 -1.57552E+03  3.64002E+02 -5.65189E+03  1.21603E+03 -3.10902E+02
  3.41092E+03  4.29726E+02 -2.45278E+02  1.72804E+03  1.09672E+03  2.97691E+03  6.18375E+03  4.45248E+03
 -4.28300E+03  2.30078E+03  1.91402E+03  1.25257E+03 -2.88930E+03 -2.67625E+03  3.33094E+02 -2.50801E+03
  9.33987E+02  1.16231E+03 -4.70294E+03 -6.11884E+03 -6.63103E+03  1.62468E+03  2.82769E+03 -1.39437E+03
 -5.04300E+03 -5.67395E+03  4.96877E+03 -4.31821E+03  3.92061E+03 -2.70583E+03  4.57822E+03 -5.41231E+03
  7.47799E+03  2.63438E+03 -8.00263E+01  1.31132E+03  1.38625E+03  2.99546E+03  5.08643E+02  4.00231E+03
 -3.06862E+03  5.80132E+02 -2.78506E+03 -3.30283E+03  3.53011E+02 -1.74238E+02 -3.37697E+03 -2.71043E+03
 -3.78075E+03  2.89296E+03 -1.46053E+03 -5.00902E+03 -1.75873E+03  1.54000E+03  8.72541E+02 -1.98415E+03
  8.34301E+03 -1.71289E+03 -4.38266E+01 -7.25328E+02 -2.99878E+02  5.26371E+02  5.08244E+02  5.33738E+02
 -2.49157E+03  5.68009E+03 -3.36878E+03  6.96096E+02 -6.19908E+03 -3.01793E+03 -9.06697E+02 -9.25047E+02
  5.63724E+03 -1.56525E+03 -2.26528E+03 -7.03573E+03 -1.18472E+03  2.68950E+02 -1.18357E+03 -3.48554E+03
 -3.43555E+03  1.54577E+03  4.37918E+03 -1.85329E+03 -2.28563E+03 -1.69020E+03  2.08897E+03 -2.58666E+03
  1.64796E+03 -8.40046E+02 -2.41800E+03  4.01270E+03  1.59175E+03  1.15131E+03 -1.32465E+03 -1.30151E+03
  1.69804E+03 -1.72958E+03 -3.61405E+03  9.43907E+02 -2.23113E+03 -2.38707E+03 -5.87030E+02 -3.01819E+03
  3.78711E+02 -2.75323E+03  6.26442E+03  2.29006E+03  1.68832E+03  3.77013E+03 -6.33605E+01  2.45967E+03
  1.42453E+03  1.28049E+03 -4.53674E+03  2.12157E+03 -2.52388E+03  5.20626E+03  1.27839E+03  4.87536E+03
 -1.68320E+03  1.23825E+02 -2.76117E+03 -3.47594E+03 -1.70219E+03  3.60234E+03 -2.44897E+03  1.98159E+03
  1.78981E+03  1.68263E+03 -4.19096E+03 -2.84320E+03  2.22554E+03 -1.99419E+03  1.82750E+03 -5.68103E+03
 -1.39264E+03  1.07246E+03 -2.35560E+02  5.51775E+03 -4.55869E+03  2.51431E+03 -4.02384E+03  6.50896E+02
