 $NMID ID='MM_0lb_SNR50_17hz_g40_38.RAW', FMTDAT='(8E13.5)'
 TRAMP=1., VOLUME=1. $END
  3.10169E+05 -2.52405E+03  3.34717E+05  2.50439E+05  8.43018E+04  3.34166E+05 -1.32476E+05  2.52532E+05
 -1.92562E+05  7.94727E+04 -1.11604E+05 -3.39326E+04  1.60452E+03 -5.11699E+04  5.39596E+04  2.68015E+03
  2.86315E+04  5.37678E+04 -1.77053E+04  7.46788E+04 -5.85875E+04  6.59710E+04 -7.88995E+04  2.89906E+04
 -8.62047E+04 -6.59132E+03 -5.88944E+04 -5.29215E+04 -1.45421E+04 -6.64317E+04  2.58123E+04 -4.68344E+04
  3.85485E+04  1.47645E+03  1.22663E+04  4.66711E+04 -3.15916E+04  4.41621E+04 -7.06508E+04  8.30277E+02
 -5.29540E+04 -5.17998E+04 -1.21102E+03 -7.42079E+04  3.03497E+04 -5.20096E+04  4.68510E+04 -1.65914E+04
  4.22049E+04  8.63274E+03  2.91177E+04  2.13743E+04  1.82863E+04  2.81322E+04 -6.01158E+03  2.71688E+04
 -2.49290E+04  1.21436E+04 -2.27685E+04 -8.56733E+02  7.70300E+03 -5.92821E+03  1.86698E+04  1.29154E+04
  7.39314E+03  3.07561E+04 -3.14464E+04  3.46554E+04 -6.07505E+04  6.09381E+03 -5.41237E+04 -4.21515E+04
 -1.48213E+04 -6.39900E+04  4.08492E+04 -4.14154E+04  5.61323E+04 -2.61510E+03  3.10867E+04  2.78381E+04
 -3.47223E+03  2.95141E+04 -3.22229E+04  1.05226E+04 -2.86462E+04 -5.98993E+03 -1.61968E+04 -9.13073E+03
 -2.49912E+03 -9.25036E+03 -2.15585E+03 -1.38594E+04  4.12690E+03 -2.31358E+04  1.40328E+04 -1.41556E+04
  1.26887E+04  4.36247E+03 -4.23165E+03  9.16670E+03 -1.79628E+04 -2.45641E+03 -3.12966E+03 -3.16111E+04
  1.81434E+04 -4.07329E+04  4.65848E+04 -2.38743E+04  3.91400E+04  2.23072E+04  1.35862E+04  3.87619E+04
 -1.61012E+04  3.09389E+04 -2.49381E+04 -1.54252E+03 -3.44677E+03 -2.61971E+04  2.13207E+04 -3.21557E+04
  3.92943E+04 -5.16663E+03  3.03354E+04  2.51120E+04  1.55477E+04  3.95656E+04 -9.79509E+03  4.54341E+04
 -3.41768E+04  2.87582E+04 -3.89474E+04  8.84667E+03 -3.74744E+04 -1.44474E+04 -2.01179E+04 -3.24819E+04
  3.75994E+03 -4.07928E+04  3.07912E+04 -1.53079E+04  2.85868E+04  1.24003E+04  6.55630E+03  1.91742E+04
 -1.75678E+04  3.32279E+03 -1.34634E+04 -6.17037E+03  5.21748E+03 -1.29557E+04  1.77324E+04  5.55695E+03
  1.11768E+04  2.03724E+04 -6.76516E+03  2.36647E+04 -2.03481E+04  1.23969E+04 -3.11363E+04 -8.96643E+03
 -1.75541E+04 -1.71928E+04 -6.13550E+03 -1.40349E+04  2.27460E+03 -1.58120E+04  1.14625E+04 -1.57115E+04
  2.19411E+04 -7.65185E+03  3.01859E+04  1.39377E+03  2.25332E+04  1.89452E+04  1.29241E+03  3.63848E+04
 -1.31384E+04  2.88518E+04 -2.25047E+04  5.19416E+03 -1.97263E+04 -1.20220E+04 -6.37714E+03 -1.45580E+04
  6.04994E+03 -3.12127E+03 -8.58328E+03  6.12833E+03 -9.28129E+03  5.01822E+03 -1.03713E+04 -4.29226E+03
 -6.80478E+03 -1.09545E+04  3.43160E+03 -2.07149E+04  1.37093E+04 -1.60858E+04  1.34109E+04 -5.58926E+03
  1.02631E+04  9.47600E+03 -2.24060E+03  1.57008E+04 -1.04214E+04  9.72092E+03 -1.64462E+04 -2.87385E+03
 -1.02551E+04 -1.51033E+04 -3.76411E+03 -1.91256E+04  4.19489E+03 -2.13489E+04  1.63598E+04 -9.50875E+03
  1.47147E+04  1.70891E+03  1.43589E+04  1.75773E+03  6.40797E+03  1.46576E+03  4.91892E+03 -5.64198E+03
  1.07270E+04  2.27927E+03  1.61410E+04  1.08387E+04  9.86765E+03  2.68787E+04 -2.18408E+03  2.50120E+04
 -1.54778E+04  2.06632E+04 -2.46364E+04  1.03708E+04 -2.63041E+04 -4.31388E+03 -1.94565E+04 -1.38828E+04
 -1.10753E+04 -2.27306E+04  6.43932E+03 -1.21304E+04  1.56805E+04 -7.90005E+03  1.88268E+04  6.83560E+03
  7.37612E+03  1.34280E+04 -1.08565E+04  6.02864E+03 -1.33953E+04  4.20341E+03 -1.36711E+04 -7.73626E+03
 -1.00126E+03 -1.53517E+04  4.13760E+03 -1.20269E+04  9.05397E+03 -5.82302E+02 -1.88298E+02  3.53938E+03
 -3.42471E+03  4.88547E+03 -2.59247E+03 -6.18233E+03  1.79906E+03 -8.83909E+03  1.19375E+04 -6.35975E+03
  8.40123E+03 -3.61859E+03  1.34724E+04  9.83729E+02  1.19992E+04  1.59838E+04  7.18145E+03  1.66833E+04
 -3.82356E+03  1.31846E+04 -1.31834E+04  6.62123E+03 -1.14508E+04  2.44926E+03 -1.05494E+04 -2.49788E+03
 -7.24950E+03 -2.38260E+03 -2.08461E+02  2.21433E+03 -3.52417E+02  1.12318E+03 -3.54632E+03  3.44334E+03
 -1.04377E+04 -6.39516E+02 -1.01603E+04 -5.91283E+03 -6.58454E+03 -9.96955E+03  3.93377E+03 -1.17436E+04
  8.12313E+03 -3.74940E+03  1.04100E+04 -1.19307E+03  4.69088E+03 -2.74698E+02 -9.85667E+03 -1.06015E+03
 -2.12934E+03 -7.14985E+03 -6.23001E+02 -7.47855E+03  8.92898E+03 -9.18419E+03  8.14054E+03 -7.06896E+03
  1.76665E+04 -3.76581E+02  1.15992E+04  5.25559E+03  1.01297E+03  9.70128E+03 -5.49168E+03  5.51612E+03
 -7.70122E+03  1.75459E+03  4.96869E+02  1.67463E+03 -1.31289E+03  3.91310E+02  5.84004E+03 -2.79522E+03
  8.32246E+03  5.30418E+02 -4.80695E+02  8.47898E+03 -6.40803E+03  5.56907E+03 -7.67954E+03  4.41176E+03
 -5.53626E+03  8.07487E+02 -4.97147E+02 -9.39710E+03  6.03482E+03 -4.59512E+03  4.24318E+03  3.41305E+03
  2.82951E+03  2.14096E+03 -5.14180E+03  4.30561E+03 -2.24212E+03  3.56983E+03 -3.08721E+03  1.13428E+02
 -5.77162E+03 -5.76174E+03  2.96670E+03 -7.92481E+03  7.10127E+03 -6.12657E+03  9.37763E+03 -6.35028E+02
  1.09433E+04  5.73077E+03  1.35992E+03  9.73070E+03 -6.03011E+03  1.92597E+03 -6.61935E+03 -1.04094E+03
 -2.19391E+03 -3.78141E+03  3.43985E+03 -3.64274E+03  5.84069E+02 -6.25536E+03  5.17387E+03  9.55691E+02
  2.85914E+03  1.98571E+03 -1.46381E+03  2.77512E+03  1.11445E+03 -3.71797E+03  1.31777E+03 -1.46692E+03
  3.73837E+03 -3.11913E+03  4.44788E+03  3.38890E+03  1.05479E+04  1.89614E+03  4.40607E+03  7.96988E+03
 -9.37997E+02  9.30662E+03 -1.07826E+04  1.01535E+04 -1.29158E+04  2.95177E+03 -6.42905E+03 -2.53875E+03
 -5.15610E+03 -1.01547E+04 -2.46336E+03 -3.10578E+03  3.00147E+03 -2.68833E+03  3.61956E+03 -2.54392E+03
  3.78045E+03 -1.04234E+03  1.75792E+03 -3.95660E+03  1.47046E+03  3.62305E+03  4.02337E+03  2.39351E+03
  3.21722E+03  3.26753E+03  2.60618E+03  4.02564E+03 -4.21084E+03  7.46864E+02 -2.37679E+03  1.62933E+03
 -4.86855E+03 -3.04616E+02 -6.12850E+02 -1.87602E+03 -1.47435E+03 -6.87501E+03  6.32958E+03 -9.12980E+03
  5.50069E+03 -1.11813E+03  4.50232E+03  4.49233E+03  1.52300E+03  5.75288E+03 -2.45639E+03  1.63591E+03
 -2.19001E+03  8.10549E+03 -4.63612E+03  4.76803E+03 -4.86151E+03 -7.49658E+02 -9.35247E+02 -5.37879E+02
  8.61641E+02 -8.59286E+02  1.51661E+02  5.04102E+03  6.89229E+02  6.71528E+03 -2.86712E+03 -2.62744E+03
 -2.92599E+03 -3.57390E+03 -2.12030E+03 -8.59725E+03  4.78037E+03 -5.20201E+03 -1.27781E+03 -2.57741E+03
  5.51685E+03  4.34239E+03  5.55277E+03  6.60659E+03  2.41208E+03  2.82208E+03 -6.41981E+03  1.98138E+03
 -1.57481E+03 -4.85068E+03 -2.20759E+03 -3.39988E+03  1.09062E+03 -7.28022E+03  1.65567E+03 -4.48966E+03
  2.42958E+03 -3.51019E+03  2.74781E+03  5.98636E+02  3.28825E+03  1.32876E+03  4.95004E+03  4.68564E+02
  2.10612E+03  2.58829E+03  2.34110E+02 -2.04408E+03  1.19104E+03  3.16954E+03  5.27722E+02 -2.65597E+02
 -3.90252E+03  2.47037E+03 -6.30884E+03  7.07022E+03  2.31857E+02 -7.54776E+02 -7.67107E+03  3.06573E+03
 -2.09504E+03 -5.02227E+03  4.26938E+02 -5.98448E+03  4.98536E+01 -7.36519E+03 -3.62981E+02 -1.19594E+03
  1.96548E+03 -2.66136E+02  2.83535E+03  2.48871E+03 -3.17697E+03  9.87118E+02 -2.60790E+02 -2.57358E+03
 -6.88646E+02 -2.31663E+03  8.09787E+03 -9.65165E+01  2.83036E+03 -1.22081E+02 -1.06062E+03  1.20555E+03
  4.44654E+03  2.12414E+03  8.78890E+02  4.39985E+03 -2.33362E+03 -2.76695E+02 -1.88315E+03 -5.08605E+02
  3.22728E+03  1.27348E+03  2.90666E+03  2.17917E+03 -1.59671E+03  4.02806E+03  6.44077E+02  4.71292E+03
 -2.68547E+03  3.07213E+03  1.99893E+03  3.13411E+02 -6.88013E+02 -5.25320E+03 -3.32504E+03  1.22564E+03
 -1.63234E+03 -3.78203E+03  5.60225E+02  1.97129E+03 -1.28042E+02 -7.24208E+02 -1.47626E+02  5.04067E+03
  1.68509E+03 -2.99860E+03 -2.35611E+03 -3.10538E+03 -2.10389E+03 -2.74803E+03  2.04472E+03 -1.47297E+03
  1.96434E+03 -2.80950E+03 -4.42353E+03 -4.68040E+02  7.51633E+02 -3.03740E+03 -9.14558E+02 -2.44009E+03
  1.66702E+03 -8.23178E+02 -2.90125E+03 -4.12777E+03  4.15928E+03  2.04345E+03  1.85034E+03 -2.24460E+03
  2.44315E+03 -1.62773E+03  2.17953E+03 -2.39342E+03  1.59040E+03  3.01723E+03  2.06664E+02  4.15225E+02
 -1.63693E+03 -2.23130E+03 -1.58787E+03 -1.37472E+03  3.30551E+03  7.25777E+02  1.54086E+03 -6.30888E+02
  5.16121E+03  1.61307E+03 -3.45549E+03  3.18980E+03  1.84573E+03  2.39680E+03 -3.56400E+03 -1.36805E+03
 -4.29190E+03  4.91692E+03 -3.24566E+03  3.54532E+03 -6.94995E+02 -1.62351E+03  3.31405E+01  1.61188E+03
 -6.96968E+02  3.24366E+03  8.57923E+01 -2.64618E+02 -4.99869E+03  6.10089E+02  1.51663E+01 -3.85492E+03
 -1.59706E+03 -3.55087E+03 -7.43996E+02 -1.47365E+03 -1.01259E+03 -3.19554E+03  3.28190E+03 -4.07266E+03
  2.38061E+03  1.20156E+03  7.43843E+02  2.25793E+03 -3.00405E+03  1.95048E+03 -3.56908E+03  3.24692E+02
  4.01065E+03 -4.35098E+02 -3.33645E+03 -1.70512E+03  2.52787E+03  2.61304E+02  4.59466E+02  1.06357E+03
 -1.28935E+03  3.35655E+03 -4.91236E+02 -3.62613E+02 -1.46664E+03 -6.66925E+02 -1.39363E+03 -5.88574E+02
  2.79480E+03  2.51722E+02 -7.81428E+02  1.24998E+03  9.73674E+03 -1.88263E+03 -6.92644E+03 -3.64325E+03
 -5.15813E+03  8.68271E+02 -3.27049E+03  2.98197E+03 -3.31656E+03  2.38744E+03 -4.55934E+03  3.43053E+03
  5.59684E+02 -1.38521E+03  7.76233E+03 -1.11369E+03  5.51550E+03  1.46140E+03  8.67651E+03  1.25049E+03
 -7.85055E+02  3.07721E+03  3.00118E+02 -1.34986E+03  1.09351E+03 -1.43082E+03 -1.62143E+03 -1.07750E+02
  2.86572E+03  2.50794E+03 -3.36737E+03 -4.12764E+03 -2.06204E+03  4.68293E+03 -9.71636E+02 -1.59236E+02
  1.55525E+03  1.27327E+03 -2.01650E+02 -2.01241E+02 -1.43537E+03 -1.65488E+03  6.99918E+02 -5.42683E+03
 -6.19016E+02 -5.68536E+03 -2.90309E+03 -2.78026E+03  2.79004E+03  1.90132E+03 -8.27304E+02  2.47127E+03
  5.15688E+03  5.23060E+03 -9.89192E+02  2.75324E+03 -1.73136E+03  1.49896E+03 -2.36676E+03 -1.23189E+03
 -3.20824E+03 -2.71919E+02 -9.93203E+02  2.36098E+03 -2.62602E+03 -4.29392E+02 -4.27141E+03  9.05492E+01
 -4.10219E+03 -7.69039E+03 -1.72171E+03 -6.33319E+03  2.95137E+02 -2.27859E+03 -1.26957E+02  4.58141E+03
 -3.50842E+03 -9.04917E+02  1.21464E+03 -1.46985E+03  1.49919E+03 -8.59851E+02 -1.21545E+03 -3.16376E+02
