 $NMID ID='MM_0lb_SNR50_15hz_g60_39.RAW', FMTDAT='(8E13.5)'
 TRAMP=1., VOLUME=1. $END
  3.09202E+05 -3.56339E+03  3.37642E+05  2.49321E+05  8.59732E+04  3.39896E+05 -1.30411E+05  2.49460E+05
 -1.88455E+05  8.36020E+04 -1.09432E+05 -3.75055E+04 -2.15005E+03 -5.20844E+04  5.37675E+04  6.20777E+02
  3.37279E+04  5.22641E+04 -2.07979E+04  7.46094E+04 -5.72326E+04  6.29625E+04 -8.19175E+04  3.53848E+04
 -7.49190E+04 -1.50205E+04 -5.67927E+04 -5.08038E+04 -1.12393E+04 -7.17795E+04  2.90936E+04 -4.68089E+04
  4.15772E+04  1.33455E+03  1.66803E+04  4.49832E+04 -3.66142E+04  4.36348E+04 -6.43896E+04 -1.94523E+03
 -5.46609E+04 -5.87509E+04 -1.09020E+04 -7.94266E+04  3.30979E+04 -5.55180E+04  4.83875E+04 -1.27513E+04
  4.45797E+04  1.02466E+04  4.05820E+04  2.57659E+04  1.79202E+04  2.88739E+04 -6.41599E+03  2.34471E+04
 -2.15739E+04  1.59280E+04 -1.72497E+04 -7.87255E+03  7.61736E+03 -7.35605E+03  2.29444E+04  1.24775E+04
  5.57279E+03  3.64566E+04 -2.98106E+04  3.35251E+04 -6.24550E+04  1.39684E+03 -6.09208E+04 -4.38261E+04
 -1.19910E+04 -5.89571E+04  4.17550E+04 -4.22949E+04  5.89407E+04 -3.71152E+03  3.93493E+04  3.68164E+04
 -3.76738E+03  4.02519E+04 -2.85041E+04  1.82528E+04 -2.90140E+04 -2.03847E+03 -1.69737E+04 -1.42584E+04
 -8.06434E+03 -1.19249E+04  6.56966E+00 -1.89319E+04  2.88041E+03 -2.50444E+04  1.47296E+04 -9.84783E+03
  9.90318E+03  4.88625E+03 -1.20887E+04  1.39254E+04 -1.99515E+04 -4.22823E+03 -3.25153E+03 -3.52392E+04
  2.21492E+04 -4.76994E+04  5.05992E+04 -2.18400E+04  4.46206E+04  1.64568E+04  1.66706E+04  4.29394E+04
 -1.80055E+04  3.73705E+04 -2.74376E+04  1.39861E+03 -7.69237E+03 -2.36717E+04  2.05501E+04 -2.57214E+04
  4.31347E+04 -9.51731E+03  3.44714E+04  2.36524E+04  1.75594E+04  4.58262E+04 -7.88227E+03  4.92682E+04
 -3.32854E+04  3.39413E+04 -4.26984E+04  9.41234E+03 -4.68051E+04 -1.52751E+04 -2.61757E+04 -4.35973E+04
  2.34145E+03 -3.50101E+04  3.43861E+04 -1.81273E+04  3.31634E+04  1.09090E+04  5.18447E+03  2.16418E+04
 -1.27741E+04  5.75014E+03 -7.61512E+03 -1.04258E+04  9.38751E+03 -1.16439E+04  1.79895E+04  4.56543E+03
  1.36606E+04  2.26142E+04 -1.07427E+04  2.48704E+04 -2.28462E+04  1.68812E+04 -3.43975E+04 -1.51984E+03
 -2.40407E+04 -1.78195E+04 -1.00364E+04 -2.02510E+04  6.86319E+03 -1.94060E+04  1.79910E+04 -1.90512E+04
  2.94694E+04 -9.89783E+03  3.46396E+04  3.77658E+03  2.89587E+04  1.90729E+04  2.73219E+03  3.49937E+04
 -1.43918E+04  3.29586E+04 -2.83852E+04  8.44163E+03 -1.75064E+04 -6.38885E+03 -8.48158E+03 -1.30625E+04
 -4.33626E+02 -4.76984E+03 -4.44334E+03  4.75910E+03 -9.86849E+03  2.38763E+03 -1.49022E+04 -7.55032E+03
 -1.25270E+04 -1.83300E+04  2.96306E+03 -2.81791E+04  1.25105E+04 -1.45127E+04  1.61746E+04 -1.37585E+03
  1.38214E+04  1.15690E+04 -1.06297E+03  1.94777E+04 -8.19547E+03  1.47463E+04 -1.51818E+04 -1.95669E+03
 -1.23847E+04 -1.92179E+04 -4.81883E+03 -1.80393E+04  8.39873E+03 -1.93277E+04  2.34060E+04 -1.19066E+04
  1.86568E+04 -3.79711E+03  1.61671E+04  4.47524E+03  5.56173E+03 -1.89376E+03  4.83365E+03  9.31611E+02
  2.33309E+04 -7.41490E+02  2.08746E+04  1.77958E+04  1.50050E+04  3.50334E+04 -4.60689E+03  3.49716E+04
 -2.26926E+04  2.65018E+04 -3.22449E+04  1.92819E+04 -3.45817E+04 -8.48793E+02 -2.17568E+04 -1.83874E+04
 -9.95564E+03 -3.39487E+04  1.00089E+04 -2.37391E+04  1.68821E+04 -1.67412E+04  1.98177E+04  2.70452E+03
  9.08585E+03  1.25222E+04 -1.39184E+04  1.25173E+04 -1.52062E+04  4.58321E+02 -8.63179E+03 -1.34530E+04
 -9.24877E+02 -1.80003E+04  6.23965E+03 -1.45671E+04  8.30213E+03 -6.44291E+02  3.02771E+03  2.91873E+03
 -1.27558E+03  2.52168E+03 -5.00430E+03 -1.94304E+03 -2.29403E+03 -1.59653E+04  1.06820E+04 -1.22056E+04
  1.69561E+04 -9.99311E+03  1.83526E+04  2.01402E+03  1.59776E+04  9.58802E+03  1.12738E+04  1.57054E+04
 -2.38409E+03  2.07255E+04 -1.07258E+04  1.70624E+04 -1.33746E+04  8.79312E+03 -9.63012E+03 -6.48480E+03
 -6.64369E+03 -7.13204E+02 -1.11750E+02  1.32131E+02  2.69322E+03  4.89095E+03 -8.76562E+03  1.47875E+03
 -6.54149E+03  2.44794E+03 -1.53505E+04 -8.20783E+03 -7.30396E+03 -1.15741E+04  7.26144E+03 -1.48519E+04
  1.25997E+04 -4.47191E+03  7.24756E+03  2.65436E+03  2.35710E+03  3.59607E+03 -1.97405E+03 -3.88493E+03
 -1.05749E+04 -1.05132E+04  1.53243E+03 -9.81771E+03  5.63504E+03 -1.14299E+04  1.13334E+04 -6.61909E+03
  1.98920E+04 -3.56410E+03  1.13289E+04  5.56094E+03 -1.15457E+03  1.23130E+04 -5.89435E+03  1.13915E+04
 -7.63375E+03  2.18686E+03 -3.95267E+02 -2.42194E+03  2.64361E+02 -1.91322E+03  6.56477E+03  2.60909E+03
  3.51866E+03  5.85779E+03  1.48253E+02  1.48966E+04 -3.39229E+03  1.02569E+04 -6.45536E+03  9.74846E+02
 -6.32178E+03 -3.48892E+03  3.57236E+03 -7.69177E+03  5.38842E+03 -5.96337E+03  2.81157E+03  3.07567E+03
 -1.14135E+03  1.24393E+04 -5.77927E+03  6.09696E+03 -9.41087E+03  7.67504E+03 -7.60847E+03 -3.34784E+03
 -4.79527E+03 -1.05951E+04  3.86224E+03 -9.76455E+03  7.82946E+03 -4.03473E+03  1.30494E+04 -1.35442E+03
  6.87854E+03  1.55627E+04  5.30689E+02  8.96941E+03 -8.68560E+03  7.55188E+03 -8.32277E+03  1.76235E+02
 -8.07951E+03 -1.10760E+04 -2.55063E+03 -5.95411E+03  4.52411E+03 -9.22129E+03  2.16878E+03  2.21979E+03
 -6.51125E+01  2.21055E+03  3.84063E+03  6.66189E+02 -4.53367E+03  3.58909E+03  1.01312E+02 -3.20614E+03
  1.12850E+04  2.48961E+03  1.14428E+04 -1.57527E+03  1.13022E+04  5.35442E+03  6.70883E+03  1.14511E+04
  6.57917E+02  1.90407E+04 -9.26064E+03  7.29511E+03 -1.92773E+04  1.83760E+03 -1.10238E+04 -5.71190E+03
 -2.15526E+03 -1.20004E+04 -1.94939E+03 -9.65680E+03  4.05698E+03 -5.45904E+03  5.12772E+03 -4.73496E+03
  3.56004E+02 -1.00659E+03  5.48515E+03 -3.45138E+03  7.66507E+03 -8.71008E+03  4.74558E+03  3.46413E+03
  5.67049E+03 -2.43796E+03  5.70312E+03  1.45329E+03 -6.33995E+03  6.38026E+03 -1.69152E+03  4.13854E+03
 -9.82508E+03 -1.12028E+03 -8.66708E+02 -2.88447E+03  4.27106E+02 -9.37921E+03  7.91939E+03 -6.15792E+03
  8.26390E+03 -5.16252E+03  1.40891E+04 -2.76376E+03  5.39467E+03  1.01608E+04  4.11213E+03  9.07790E+03
  3.67995E+03  8.61118E+03 -4.73616E+03  7.18165E+03  2.83800E+03  5.61941E+03  7.31053E+02  3.36356E+02
 -1.88067E+03 -5.32296E+03 -3.92912E+02  1.98300E+03 -7.24682E+03 -2.52985E+02 -7.17644E+03 -4.40895E+03
 -3.26256E+03 -3.78359E+03  3.49809E+03 -4.18410E+03  4.50143E+03 -7.90182E+03  3.75326E+03 -3.49454E+02
  5.26131E+03  3.21445E+03  5.88245E+03  5.57715E+03 -1.01815E+04  1.01122E+04 -2.29809E+02  3.32313E+03
 -1.44312E+03 -1.04821E+03 -4.76329E+03 -6.97141E+02  3.05679E+03 -7.78022E+03  5.99703E+03 -7.87062E+03
  6.33665E+03 -3.15398E+03 -3.03279E+03 -9.87655E+02 -4.09031E+02  3.35054E+03 -1.16437E+03 -1.69398E+02
 -3.10545E+02  3.04270E+03  4.62561E+03  7.57820E+03  6.81663E+02  4.27174E+03  3.76285E+03  3.47921E+03
 -4.44157E+03  1.26064E+04 -5.86123E+03  6.19685E+03 -1.15488E+03  1.25922E+03 -1.17256E+04 -2.02320E+03
 -2.69909E+03 -1.11089E+04  2.69512E+03 -1.27847E+04  3.22693E+03 -8.02719E+03  1.75541E+03 -1.86227E+03
  1.67160E+03  2.08780E+03 -1.41746E+03  4.94706E+03 -2.48379E+02  3.58818E+03 -9.88230E+03 -2.61052E+03
  4.70412E+03 -1.54832E+03  1.88779E+03 -4.46874E+03  5.06094E+03 -2.95189E+03  4.59814E+03 -3.95049E+03
  8.06251E+02 -9.92893E+02 -8.10085E+02  2.13427E+03 -1.59828E+03  4.03922E+03  5.51261E+03 -2.20652E+03
  5.97624E+03  4.52573E+02  4.27008E+03  5.01025E+03 -4.14309E+03  4.28541E+03  1.18809E+03  2.90851E+03
 -9.88119E+02  4.80291E+02 -4.79748E+03  4.20286E+03 -3.96069E+03  3.22220E+03  1.59430E+03 -5.63858E+03
  5.62576E+03 -2.54189E+03  3.06790E+03  1.23050E+03  2.07589E+01 -2.20819E+03 -3.00390E+03  4.20121E+03
  4.61347E+02  9.68931E+02 -2.80391E+03 -2.51820E+03 -2.53344E+03 -2.39435E+03 -2.89606E+01 -4.63317E+03
  4.46063E+03 -5.88022E+03  4.87140E+03 -3.04119E+03  1.86662E+03  7.54764E+02 -1.38969E+03  3.11290E+03
  3.72061E+03 -5.04806E+02 -2.91132E+03 -1.38868E+03 -1.00563E+03 -5.34434E+02  6.60471E+02 -2.40944E+03
 -6.65753E+02 -1.16255E+03  7.12110E+03  4.15438E+03  1.09220E+03  4.64732E+01 -4.25212E+01  4.74570E+03
 -2.05506E+03 -6.54161E+02  1.14948E+03  4.97367E+02 -3.00992E+03 -1.53184E+03 -1.38864E+03 -1.14869E+03
  3.53524E+03 -2.97373E+03  2.40310E+03 -6.26968E+03  2.50004E+03  9.27609E+02 -3.74443E+02  4.16778E+03
  2.49035E+03  3.80319E+03 -4.93926E+03 -1.84992E+03 -4.77787E+03  1.69504E+03 -5.76213E+03 -2.78699E+03
 -5.86432E+02  4.92570E+03 -5.17325E+02 -3.22836E+02 -3.32337E+03  6.44044E+02 -4.40490E+03 -2.91711E+03
  1.42761E+02 -4.61627E+03  1.47181E+03 -3.94640E+02  3.91666E+03 -7.09589E+03  7.43493E+03 -1.43381E+03
  1.05718E+04  8.80372E+02  3.24591E+03  6.80181E+03 -4.68848E+03  1.63287E+03 -5.41271E+03 -6.08468E+02
  6.70367E+02  3.31139E+03  1.36797E+03  9.13081E+02 -4.72087E+03 -2.47615E+03 -1.12701E+03  2.63852E+03
 -4.36273E+03 -3.19310E+03  1.00749E+03 -3.28319E+03  2.02761E+03  6.86545E+02  3.61921E+03  2.60400E+03
 -3.74656E+02 -7.14052E+02  3.03947E+03 -4.71359E+03  1.18160E+03  7.11484E+01  8.22613E+02  5.10443E+03
  2.02236E+03  1.81318E+03 -7.87289E+03  2.69955E+03 -6.88878E+03 -3.25427E+03 -1.25313E+03 -4.72461E+03
  5.29280E+02 -4.61108E+03 -2.30220E+03  2.68983E+03  4.53227E+03 -2.43819E+03  3.79810E+03  1.53022E+03
 -1.91829E+03 -2.27810E+03 -5.35730E+02 -4.46916E+02  2.10480E+03  2.59701E+03  2.82981E+03 -3.57992E+03
 -1.15342E+03 -5.79472E+02 -7.67165E+02  3.38822E+02  4.06610E+02  2.87628E+03 -1.46542E+03  9.69047E+02
  1.35363E+03 -3.63766E+03  1.74568E+03  5.15169E+03  2.37974E+02 -4.50501E+02  2.52252E+03  7.27013E+02
  1.82057E+03 -2.55943E+03  5.37208E+03 -2.04172E+03  2.43382E+03  9.14717E+01  1.42878E+02 -5.25535E+03
  1.08961E+03 -2.41801E+03  3.14915E+03 -1.48637E+03  3.35566E+03 -1.34007E+03  2.82629E+02  1.38045E+03
  1.57784E+02 -4.44368E+03 -3.13049E+03 -4.76366E+02 -6.37828E+02  2.24953E+03 -2.29670E+03 -1.98205E+03
 -3.54752E+03 -4.24030E+02 -4.75087E+03 -4.94172E+02 -1.13829E+03 -2.98143E+03  5.54371E+03  7.64658E+01
  8.18021E+02  3.78370E+03  4.67796E+03  3.65562E+03 -2.79501E+03 -3.31228E+03  2.67715E+02 -1.06992E+03
