 $NMID ID='MM_0lb_SNR50_18hz_g60_59.RAW', FMTDAT='(8E13.5)'
 TRAMP=1., VOLUME=1. $END
  3.09622E+05  1.61401E+03  3.32528E+05  2.53068E+05  8.08462E+04  3.37794E+05 -1.29456E+05  2.48700E+05
 -1.91156E+05  7.98458E+04 -1.12020E+05 -3.71593E+04  1.37569E+03 -5.10761E+04  5.44334E+04 -2.38527E+03
  3.61491E+04  4.94773E+04 -1.59142E+04  7.65416E+04 -6.66557E+04  6.82029E+04 -8.78070E+04  3.07647E+04
 -8.12927E+04 -1.19594E+04 -5.69630E+04 -5.26461E+04 -1.82877E+04 -7.03799E+04  2.58224E+04 -4.61715E+04
  3.33130E+04  6.44488E+03  1.72817E+04  4.88118E+04 -3.24497E+04  5.10913E+04 -6.51353E+04  4.23023E+02
 -5.31385E+04 -5.78929E+04 -9.61404E+03 -7.69454E+04  3.15352E+04 -5.14743E+04  4.56966E+04 -1.45387E+04
  4.79503E+04  9.20438E+03  3.14743E+04  2.48040E+04  1.83228E+04  3.05388E+04 -1.16800E+03  2.78763E+04
 -2.42902E+04  8.84659E+03 -2.33267E+04 -4.56002E+03  9.82681E+03 -6.80256E+03  2.23121E+04  1.32028E+04
  1.94379E+03  3.49102E+04 -3.22769E+04  3.36143E+04 -5.99543E+04  2.34418E+03 -5.79856E+04 -4.34271E+04
 -1.41185E+04 -6.39895E+04  3.70256E+04 -4.44439E+04  5.60156E+04  1.35547E+03  3.19280E+04  3.15911E+04
 -5.78337E+03  3.20923E+04 -3.01793E+04  1.38833E+04 -3.02550E+04 -5.51549E+03 -1.22326E+04 -1.00158E+04
 -6.56014E+03 -8.57181E+03  1.79033E+03 -1.70622E+04  9.15666E+03 -1.83589E+04  1.57043E+04 -8.48649E+03
  1.22276E+04 -7.19569E+02 -5.82645E+03  1.65358E+04 -1.91952E+04 -1.97392E+03 -8.79270E+03 -3.02794E+04
  2.12067E+04 -3.78053E+04  4.76630E+04 -1.84818E+04  4.64446E+04  2.35078E+04  1.31776E+04  4.30373E+04
 -1.48740E+04  3.39046E+04 -2.15770E+04  1.07874E+02 -8.40008E+03 -2.77322E+04  2.61537E+04 -3.37843E+04
  3.80278E+04 -1.06077E+04  4.04484E+04  1.79764E+04  2.05235E+04  4.74575E+04 -7.39327E+03  5.10417E+04
 -3.60665E+04  3.48127E+04 -3.67727E+04  1.27853E+04 -3.97061E+04 -1.66527E+04 -2.82703E+04 -3.40406E+04
  1.13181E+04 -3.22142E+04  3.13286E+04 -1.49172E+04  2.64591E+04  1.27249E+04  6.83997E+03  1.82933E+04
 -1.61977E+04  8.79680E+03 -7.38270E+03 -3.95037E+03  6.73380E+03 -1.48206E+04  2.17446E+04  5.56727E+03
  1.27776E+04  2.09379E+04 -8.02742E+03  2.31451E+04 -2.34086E+04  1.25857E+04 -2.91117E+04 -8.38258E+03
 -2.13671E+04 -1.77776E+04 -9.95248E+03 -1.77285E+04  4.56342E+03 -2.08642E+04  1.29105E+04 -1.98607E+04
  2.31038E+04 -1.21260E+04  3.05092E+04  1.82055E+03  2.34684E+04  1.75239E+04  6.01524E+01  3.00899E+04
 -1.64945E+04  2.79237E+04 -2.83593E+04  6.71996E+03 -1.90743E+04 -1.44287E+04 -3.83947E+03 -1.25487E+04
  6.27776E+03 -1.59907E+03 -6.91158E+02  5.01552E+03 -1.47188E+04  3.92921E+03 -1.37676E+04 -7.56507E+03
 -6.60768E+03 -1.58399E+04  1.73775E+03 -2.31011E+04  1.77667E+04 -1.79620E+04  1.74915E+04  4.54494E+02
  9.53438E+03  9.82727E+03 -1.55807E+03  1.94350E+04 -1.39298E+04  1.21195E+04 -1.61716E+04 -2.31357E+03
 -1.66063E+04 -1.20748E+04 -4.31479E+03 -2.48553E+04  8.34324E+03 -1.29536E+04  1.70535E+04 -7.38728E+03
  1.85826E+04  3.16764E+03  1.05459E+04  5.23190E+02  2.26999E+03  4.86467E+03  1.30679E+04 -3.23302E+03
  1.57764E+04  4.16494E+03  1.62950E+04  1.35238E+04  8.54926E+03  2.49134E+04 -6.54828E+03  3.11962E+04
 -1.54678E+04  2.35217E+04 -2.96282E+04  1.04039E+04 -2.70188E+04  1.27572E+03 -2.64251E+04 -1.69504E+04
 -9.36726E+03 -2.16318E+04  8.03844E+03 -2.10574E+04  2.10205E+04 -8.56366E+03  1.41339E+04  5.31269E+03
  9.04192E+03  7.78799E+03 -1.85158E+03  9.31572E+03 -1.25055E+04  1.47214E+03 -8.86278E+03 -5.47711E+03
  8.76970E+02 -1.77076E+04  2.39052E+03 -1.00093E+04  1.02663E+04 -1.11579E+03  6.03338E+02  7.06942E+03
 -1.20233E+04 -2.18298E+03 -1.55848E+03 -1.24384E+03 -4.09369E+02 -7.21840E+03  7.12500E+03 -1.23409E+04
  1.83913E+04 -5.70440E+03  1.42745E+04  7.39882E+02  1.07662E+04  1.20927E+04  1.09196E+04  1.61894E+04
 -1.04024E+03  1.81476E+04 -9.38940E+03  1.37682E+04 -1.63577E+04  1.38549E+03 -9.49582E+03  2.68366E+02
 -3.20079E+03 -9.77287E+03 -8.23148E+02  6.15224E+03 -5.31759E+03  2.05228E+03 -4.06344E+03  6.02801E+03
 -1.06714E+04  3.29828E+03 -1.21885E+04 -4.67440E+03 -3.32744E+03 -1.62704E+04  3.89100E+03 -9.97549E+03
  9.23023E+03 -7.11692E+03  3.43340E+03  6.09095E+02 -2.30257E+03  3.50092E+02 -4.75737E+03 -1.69172E+03
 -2.29562E+03 -8.80724E+03 -4.06811E+03 -5.76215E+03  3.72810E+03 -1.01193E+04  1.07038E+04 -2.34153E+03
  1.58104E+04  1.31201E+03  1.27161E+04  9.17315E+03  4.17511E+03  5.30196E+03 -5.23631E+03  7.98299E+03
 -5.80318E+03  4.96335E+03 -2.67706E+03 -8.96573E+02  1.26896E+03 -4.67352E+03  7.30343E+03  8.33862E+02
  7.60629E+03  1.55616E+03  2.95022E+03  5.18027E+03 -6.99865E+03  8.78262E+03 -9.12091E+03 -2.17568E+03
 -4.51073E+03 -3.43757E+03  1.15114E+03 -7.21657E+03  5.08375E+03 -5.07380E+03  2.70818E+03  4.96184E+03
 -2.28898E+02  8.91585E+03 -4.32032E+03  1.03847E+04 -4.33177E+03  2.09804E+03 -7.46227E+03  4.09814E+02
 -4.36334E+03 -8.61758E+03  6.36058E+03 -9.10095E+03  6.86157E+03 -3.66483E+03  2.68049E+03  4.32435E+03
  3.71555E+03  3.57906E+03  3.88222E+03  1.58946E+04 -5.34343E+03  5.76175E+03 -5.72245E+03 -1.67832E+03
 -1.01888E+04 -7.45353E+03 -2.40428E+03 -3.42992E+03  3.49610E+03 -3.12018E+03  2.38661E+03 -4.35232E+03
  5.57503E+03 -5.22420E+02  3.78367E+02  7.75394E+03  3.51310E+03  2.89603E+03  2.79619E+03 -3.45532E+03
  5.45385E+03  5.16441E+02  8.79055E+03 -6.05771E+02  6.22543E+03  6.29754E+03  1.06974E+04  1.17861E+04
  3.07919E+03  1.01966E+04 -1.03928E+04  1.16217E+04 -1.03072E+04  2.94626E+03 -7.45708E+03 -4.05498E+03
 -2.74894E+03 -7.93599E+03 -2.13525E+03 -8.72276E+03  1.56188E+03 -9.04935E+02  3.06452E+03 -9.64146E+02
  3.93128E+03 -6.94564E+03  1.18915E+03 -4.24523E+03  3.80671E+03 -4.60226E+03  3.81888E+03 -1.49920E+03
  7.53201E+03 -9.85424E+02  6.89949E+02  3.28716E+03 -8.24263E+02  4.54831E+03 -3.54423E+03  3.24714E+03
 -1.12326E+03  6.14362E+02 -4.16866E+03 -2.44024E+03 -2.63144E+03 -4.77379E+03  5.39921E+03 -7.27151E+03
  8.51644E+03 -4.14187E+02  4.84791E+03  3.81986E+03  1.96692E+03  4.84451E+03 -1.33490E+03  4.84373E+03
  2.09764E+03  4.71243E+03 -6.74608E+03  4.80405E+01 -3.37092E+03 -1.15484E+03  7.39249E+02 -2.22411E+03
 -1.00228E+03 -2.30361E+02  2.28741E+02 -1.39106E+03 -7.37601E+03  2.68285E+03 -4.39134E+03 -9.38035E+02
 -4.85403E+03 -3.38841E+03  2.81569E+03 -5.37596E+03  4.17843E+03 -2.39392E+03  3.38709E+03 -3.53649E+03
  1.85685E+03  3.72012E+03  5.94325E+03  8.22253E+03 -1.46788E+03  8.32888E+03 -2.74647E+03  5.23756E+02
 -4.73282E+03  1.48157E+02 -8.01961E+03 -4.73956E+03 -2.43904E+03 -3.54475E+03 -7.81312E+02 -2.99721E+03
  6.25572E+03  3.53292E+02  4.17500E+03 -2.23623E+03  3.09374E+03  2.99401E+03  1.36804E+03 -3.64183E+03
  1.86638E+03 -2.11990E+03  3.47235E+03  3.77162E+03 -2.24548E+03  8.27866E+03 -2.36776E+02  2.23446E+03
 -4.15373E+03  6.24987E+03  1.49044E+03  5.23216E+03 -1.32821E+03  4.14704E+03 -8.63902E+03  3.25795E+03
 -1.67542E+03 -1.19463E+03  5.96393E+03 -4.76386E+03 -3.30445E+03 -1.68650E+02  2.71196E+03  7.91744E+02
 -3.86081E+02  2.04062E+03  4.39262E+03  2.57983E+03 -1.54763E+03  2.64487E+03 -4.05404E+03  2.80923E+02
  1.85543E+03 -2.26671E+03 -3.35444E+03  1.67744E+03  9.40359E+02 -3.16262E+02 -7.41499E+02 -1.55533E+03
  2.12417E+03  1.09648E+03  9.44624E+03 -1.92075E+03  1.71532E+02  7.40797E+02  3.18939E+02 -3.25971E+02
  1.31244E+03  9.25015E+02  1.68093E+03  2.95760E+03 -3.74716E+03  1.49908E+03 -2.31356E+03  3.01275E+03
 -3.82237E+03  2.62981E+03 -1.17818E+03  1.65462E+03 -3.42059E+03 -4.47678E+03 -1.66546E+02 -4.23770E+03
  1.06732E+02 -3.97757E+03  4.23020E+03 -1.74471E+03  2.08464E+02 -7.25483E+02 -2.16829E+03 -8.28698E+02
  4.42738E+03  1.46148E+03 -3.71076E+03 -4.55490E+03 -4.56772E+03 -6.11445E+03  9.43122E+02 -1.08055E+03
  2.36587E+03 -1.65962E+03 -1.11593E+03 -3.09742E+03  6.97067E+03 -4.82669E+03 -3.09819E+03  1.45986E+03
 -1.05935E+03  3.41629E+03  5.64310E+02  8.48533E+02 -3.36599E+02  3.03289E+03  2.17228E+03  7.80576E+02
 -1.45470E+03  5.86340E+02  1.01674E+03  4.46049E+02  5.30733E+03  2.31386E+03 -1.79224E+03  1.78887E+03
 -3.72407E+03 -1.92340E+03 -1.25563E+03 -4.56358E+02 -6.97527E+02 -4.37036E+03  1.90525E+03 -1.10228E+03
  6.37389E+02 -7.01719E+02  4.48859E+03  2.83136E+03  5.07153E+02  4.10881E+03 -1.51006E+03 -5.16789E+03
  3.34794E+03 -3.07435E+03 -1.12670E+03 -1.19289E+02 -9.91489E+02  3.88448E+03  2.17632E+03 -2.37969E+02
 -5.83608E+02 -1.29794E+02 -1.51246E+03  2.85106E+03 -2.77261E+03  2.52872E+03 -2.97222E+03  3.84321E+02
  1.78295E+03  2.84766E+02  2.72431E+03  2.41342E+03  2.10893E+03 -1.40615E+03  3.14685E+03 -1.63539E+03
  1.04276E+03 -1.28603E+03  4.11679E+03  3.80902E+03  2.52806E+03  3.25764E+03 -1.54649E+03  1.38500E+02
 -2.18965E+03 -4.22313E+03 -9.77716E+02  1.63982E+03 -5.94525E+02  1.28308E+03  7.78955E+02  1.35965E+03
 -2.27764E+02 -1.30999E+03 -1.03662E+02 -2.68350E+03 -3.02518E+02 -2.86130E+03 -2.42997E+02  1.40449E+03
 -2.11604E+03 -2.20201E+03  5.04687E+03  4.41027E+02 -3.52937E+02  3.60617E+03  3.91385E+02  2.47680E+03
  2.41209E+03  6.97151E+03 -2.34076E+03 -4.13985E+03 -8.47175E+02  2.65678E+02 -2.30635E+03 -1.65725E+03
 -2.67513E+03 -1.00708E+03  2.62359E+03  2.29797E+03  2.66791E+03  3.64180E+03 -1.37517E+03 -6.45778E+02
  1.85334E+02  3.07780E+03 -2.15292E+03 -1.53238E+03  1.79549E+03 -1.59849E+03  8.29604E+02 -4.47801E+02
 -2.99356E+02 -6.59198E+03  2.93074E+03  3.19774E+03 -3.73199E+02 -1.59515E+03 -1.82872E+02  1.37733E+03
 -1.54872E+03 -2.80415E+03 -1.92773E+03 -1.61504E+03 -3.83211E+03 -2.06834E+03  2.18266E+03 -6.18831E+03
  4.01248E+02  1.42898E+03 -1.53768E+03 -7.57234E+02  4.12101E+03  5.29972E+02  3.74748E+03  6.43064E+02
  7.80119E+02  1.21225E+02  3.62629E+03  4.81721E+03  6.84673E+02 -5.90136E+03 -9.66598E+02  4.45663E+03
 -8.39978E+02  1.39606E+02 -4.55715E+02  4.33012E+03  2.14685E+03  1.75961E+02  2.00935E+03  6.69791E+01
 -1.86509E+03 -1.90458E+03  1.10246E+03 -3.73296E+03  3.51684E+02 -2.25308E+03  3.03344E+03 -5.59475E+02
 -3.24170E+03 -2.77331E+03  3.07191E+03 -5.19676E+03 -1.23937E+03  5.37828E+02  2.64122E+03 -5.14136E+02
