 $NMID ID='MM_0lb_SNR50_9hz_g55_39.RAW', FMTDAT='(8E13.5)'
 TRAMP=1., VOLUME=1. $END
  3.15772E+05 -6.13134E+02  3.36733E+05  2.54214E+05  8.22871E+04  3.36283E+05 -1.30800E+05  2.49365E+05
 -1.87184E+05  8.13914E+04 -1.12111E+05 -3.37418E+04  6.25064E+03 -5.74694E+04  5.38962E+04  4.26501E+03
  3.95934E+04  5.70639E+04 -1.86829E+04  6.87865E+04 -6.33007E+04  6.13373E+04 -8.81505E+04  3.92407E+04
 -8.84952E+04 -1.12052E+04 -5.54146E+04 -5.37154E+04 -1.43510E+04 -7.28055E+04  2.69959E+04 -5.20213E+04
  4.82447E+04 -2.90553E+02  1.68383E+04  4.67341E+04 -3.68182E+04  4.47427E+04 -7.21083E+04  1.04354E+03
 -6.04132E+04 -6.12388E+04 -3.43165E+03 -8.12807E+04  3.36552E+04 -5.59284E+04  5.00866E+04 -2.03418E+04
  4.53178E+04  1.09868E+04  3.49536E+04  2.79528E+04  1.78896E+04  2.86874E+04 -5.02269E+03  2.66344E+04
 -2.53161E+04  1.57225E+04 -2.04970E+04 -2.11857E+03  9.13490E+03 -8.65647E+03  2.69205E+04  1.45722E+04
  7.02656E+03  3.42056E+04 -3.12188E+04  3.68698E+04 -6.55381E+04 -1.60606E+03 -5.57643E+04 -3.95305E+04
 -1.30144E+04 -6.79035E+04  4.86285E+04 -5.06771E+04  6.04622E+04 -1.57303E+03  3.65641E+04  3.38580E+04
 -8.48355E+02  3.91079E+04 -3.46078E+04  1.78223E+04 -2.94873E+04  3.17244E+03 -1.79920E+04 -1.24513E+04
 -3.78144E+03 -1.33761E+04  6.35271E+03 -2.05086E+04  1.27150E+04 -2.74363E+04  1.96494E+04 -1.09797E+04
  1.62895E+04  7.44018E+03 -1.29754E+04  1.10544E+04 -2.02593E+04 -8.05713E+03 -1.16383E+04 -3.66243E+04
  3.07504E+04 -5.49479E+04  4.46678E+04 -2.40308E+04  4.75784E+04  1.84134E+04  1.60628E+04  4.32451E+04
 -1.21090E+04  3.12418E+04 -2.93995E+04 -3.99640E+03 -1.24969E+04 -2.71198E+04  2.03786E+04 -4.50661E+04
  3.96584E+04 -1.52575E+04  3.77999E+04  2.31472E+04  1.92501E+04  4.96996E+04 -9.82562E+03  6.05869E+04
 -3.84885E+04  4.03715E+04 -4.87046E+04  2.02701E+04 -4.43900E+04 -2.22097E+04 -2.36366E+04 -4.36319E+04
  2.89770E+03 -3.92596E+04  2.72027E+04 -1.67793E+04  3.66482E+04  1.12240E+04  5.87803E+03  1.97723E+04
 -1.39774E+04  8.89725E+03 -1.36437E+04 -7.81271E+03  1.00501E+04 -1.17622E+04  1.85418E+04  9.06458E+03
  1.37611E+04  1.50093E+04 -8.01240E+03  3.00941E+04 -2.49535E+04  1.59509E+04 -3.18232E+04  3.44350E+03
 -2.60606E+04 -2.34498E+04 -1.78303E+04 -2.51428E+04 -9.59729E+02 -2.06916E+04  1.76628E+04 -2.66377E+04
  3.52037E+04 -1.65374E+04  3.62231E+04  5.73403E+03  2.80481E+04  2.09199E+04  6.17294E+03  4.00878E+04
 -1.51634E+04  3.36420E+04 -2.79760E+04  1.70338E+04 -2.16675E+04 -4.96213E+03 -3.23188E+03 -1.27015E+04
 -1.76837E+03  1.10879E+03 -1.13585E+04  7.44043E+03 -1.84641E+04  1.12720E+03 -1.85797E+04 -1.09062E+04
 -1.37462E+04 -2.25352E+04  7.89055E+03 -2.68335E+04  1.88786E+04 -1.85553E+04  2.74586E+04 -7.35368E+03
  1.89781E+04  1.50475E+04 -2.57241E+03  2.37210E+04 -1.16965E+04  1.19965E+04 -2.81009E+04 -7.75087E+03
 -1.72103E+04 -2.83726E+04 -4.72897E+02 -2.88029E+04  1.32751E+04 -3.11450E+04  2.12487E+04 -7.83593E+03
  2.56019E+04  5.82999E+03  1.41998E+04  1.27794E+04  1.24686E+04  2.24710E+03  1.51479E+04 -2.20983E+03
  2.44146E+04 -4.40413E+03  2.96938E+04  1.54934E+04  1.37924E+04  3.97041E+04 -4.67541E+03  4.36185E+04
 -2.45929E+04  3.69122E+04 -4.49864E+04  3.07020E+04 -4.52699E+04 -6.29085E+02 -4.22061E+04 -3.00641E+04
 -1.05852E+04 -3.52878E+04  1.19490E+04 -3.52252E+04  2.34243E+04 -1.66861E+04  2.15793E+04  5.22685E+03
  9.53116E+03  1.31400E+04 -9.72433E+03  1.71095E+04 -2.75257E+04 -9.18622E+02 -1.98589E+04 -9.12872E+03
 -6.82176E+03 -1.47282E+04  1.11916E+04 -1.16043E+04  1.91617E+04 -2.57490E+03  8.21997E+03  6.26214E+03
 -9.00078E+03 -2.38662E+03 -1.11311E+04 -2.22964E+03  6.65897E+02 -1.96290E+04  1.08317E+04 -2.09736E+04
  2.34409E+04 -1.36472E+04  2.71857E+04  5.13045E+03  2.45514E+04  1.58618E+04  1.40366E+04  2.60921E+04
 -4.04320E+03  2.60237E+04 -1.77260E+04  2.13389E+04 -1.95855E+04 -2.40561E+03 -4.73068E+03 -5.99562E+03
 -8.17669E+03 -7.91961E+03  2.18561E+03  4.70070E+03  2.51648E+02  6.49009E+03 -1.17155E+04  5.72175E+03
 -8.76851E+03  1.86742E+03 -1.86061E+04 -1.12018E+04 -8.60595E+03 -1.56602E+04  5.12879E+02 -9.96296E+03
  1.02799E+04 -7.76907E+03  1.10950E+04  2.97203E+03  7.19004E+02  2.58193E+03 -1.15353E+04 -1.92423E+03
 -7.89415E+03 -8.48888E+03 -4.88723E+03 -1.11300E+04  1.42580E+04 -1.94965E+04  2.22539E+04 -2.43818E+03
  2.83065E+04 -2.35535E+03  1.53757E+04  1.30055E+04 -7.45886E+03  2.25011E+04 -4.00432E+03  1.06182E+04
 -1.04312E+04  4.11241E+03 -7.97340E+03 -6.45315E+03  1.16213E+03 -3.44486E+03  1.17724E+04 -3.32023E+03
  1.48359E+04  7.45291E+03 -6.92108E+03  1.03483E+04 -1.38382E+04  1.56763E+04 -2.11122E+04  3.78239E+03
 -1.59204E+04 -2.77673E+03 -3.09745E+03 -1.11444E+04  9.40321E+03 -2.45566E+03  1.34166E+04  8.09267E+03
  5.87550E+03  1.43173E+04 -6.42754E+03  7.73863E+03 -1.50702E+04  7.11776E+03 -1.40230E+04  8.98418E+02
 -9.03989E+03 -1.25009E+04  1.17705E+04 -1.23137E+04  1.52713E+04 -1.11600E+04  1.47426E+04 -1.56259E+03
  1.40272E+04  1.47246E+04  1.96727E+03  8.71360E+03 -9.53064E+03  1.35175E+04 -1.36146E+04  4.13284E+02
 -6.84000E+02 -1.40239E+04 -6.32579E+03 -9.49840E+03  1.20214E+04 -6.36679E+03  6.44103E+03 -4.65528E+03
  4.21719E+03 -1.41395E+03 -1.01333E+03  2.08711E+03  4.51984E+03 -9.17379E+03 -2.06074E+03 -1.48834E+04
  1.93574E+03 -8.41092E+03  1.94159E+04  6.01547E+03  8.57561E+03  1.01550E+04  1.41439E+04  1.98474E+04
 -3.17345E+03  2.55236E+04 -1.87603E+04  1.64253E+04 -2.63255E+04  1.18243E+03 -2.09739E+04 -9.99355E+03
 -1.19281E+04 -1.84785E+04  2.27348E+03 -1.88111E+04  9.30172E+03 -9.69524E+03  9.84635E+03 -5.22494E+03
  5.71164E+03 -4.54433E+02  1.99814E+03 -5.81460E+03  5.98010E+03 -1.80427E+03  8.51319E+03 -5.15118E+03
  2.80996E+03  2.04422E+03  6.14340E+03  1.01290E+04  2.96442E+03  5.01352E+03 -7.56925E+03  9.84262E+03
 -1.07005E+04 -3.81017E+03 -7.49009E+03 -3.35433E+03 -5.82632E+01 -1.14678E+04  1.44153E+04 -2.38295E+04
  1.88120E+04 -6.16557E+03  1.62757E+04  1.81149E+03  1.30085E+04  1.77127E+04  4.02482E+03  1.94108E+04
 -1.12950E+03  1.65414E+04 -9.75624E+03  1.01353E+04 -8.39979E+03 -3.32914E+03 -4.81776E+03 -6.11790E+03
  1.00438E+03 -3.17983E+03 -3.39175E+03  3.21568E+03 -7.97024E+03 -1.06607E+01 -1.07798E+04 -2.11871E+03
  2.41887E+03 -1.23776E+04 -3.01463E+03 -1.52342E+04  8.84470E+03 -1.16931E+04  1.23607E+04 -7.55742E+02
  1.95447E+04  8.04879E+03  6.56122E+03  1.58168E+04 -6.22225E+03  2.31641E+04 -1.15184E+04  1.59281E+04
 -2.01134E+04 -2.37126E+03 -1.27902E+04 -1.89249E+04 -6.97720E+02 -1.34156E+04  2.89430E+03 -1.18444E+04
  1.53414E+04  2.65759E+02  1.16596E+04 -1.80843E+02 -1.05579E+03  6.01970E+03 -7.82291E+02  3.78468E+03
  7.21631E+03  1.52016E+03  3.41130E+03  2.93924E+03  6.19426E+03  2.49917E+03  4.01532E+03  9.99991E+03
 -9.32559E+02  1.57708E+04 -5.99163E+03  1.06266E+04 -1.59255E+04  6.96034E+03 -1.59352E+04 -4.08485E+03
 -8.02075E+03 -2.28629E+04 -4.45012E+03 -1.82838E+04  7.52708E+03 -6.27945E+03  1.61172E+04 -5.19551E+02
  7.30099E+03  8.97839E+03  1.37041E+03  7.49914E+03 -6.49412E+03  2.87880E+03 -1.30481E+04 -1.88744E+03
 -1.41792E+03 -8.63287E+03  6.99923E+03 -2.19692E+03  4.73632E+03  1.68308E+03  3.73489E+03  2.43244E+03
  1.09681E+04  2.93358E+02  1.29218E+03  1.65428E+03  1.26501E+03  9.39383E+03  6.30040E+03 -8.10159E+02
  7.88098E+03 -6.01603E+03  4.45145E+03  3.37500E+02  6.32179E+03  7.12858E+03 -1.42520E+03  1.36599E+04
 -1.42601E+04  6.24972E+03 -6.07376E+03  6.86891E+03 -1.06931E+04 -3.80856E+02 -5.51699E+03 -7.64534E+03
  2.76203E+03 -7.78640E+03  4.56969E+03 -3.13669E+03  1.05393E+04  3.28307E+03 -7.63113E+03  4.27565E+03
 -4.25342E+03  8.77045E+03 -7.81438E+03 -2.91170E+03 -4.27413E+03 -1.34475E+04 -3.23065E+03 -1.32117E+04
 -1.39051E+02 -3.38304E+03  4.89635E+03  3.47390E+03  5.62126E+03  4.22505E+03  5.13814E+02  7.63434E+03
 -4.85958E+03  6.76801E+03 -1.46892E+03 -2.09870E+03  3.78979E+03 -1.48873E+04  7.23778E+03 -8.20209E+03
  7.48581E+03  6.90699E+03  9.96734E+03  6.56104E+03  9.04691E+01  1.62411E+04 -4.49597E+03  1.39812E+04
 -1.05462E+04  6.33404E+03 -7.60602E+03 -2.01297E+03 -8.41776E+03 -6.44202E+03  7.16314E+03 -5.05372E+03
  2.41663E+03  2.22853E+03  3.96965E+02  9.35679E+02 -9.94591E+02  9.16470E+03  9.03554E+02  4.25800E+03
 -3.30216E+03  7.18052E+03 -6.01923E+03  6.43875E+03  1.30608E+03 -1.95129E+02 -5.05951E+03  3.05476E+03
 -5.90081E+03  6.29739E+03 -4.72706E+02 -7.84335E+02 -1.35983E+04  1.56783E+03 -1.59915E+04 -7.58016E+03
 -1.09025E+04 -1.41333E+04  5.64079E+03 -1.50055E+04  1.17400E+04 -1.38829E+04  1.77188E+04 -1.11364E+04
  1.39032E+04  3.59749E+02  8.00123E+03  1.06682E+04  1.17464E+03  1.04381E+04 -5.86446E+03  1.12381E+04
 -1.13214E+04  3.22363E+03 -4.48144E+03 -2.02493E+03  2.58777E+03  6.37002E+02 -2.17709E+03  8.08402E+03
  2.26040E+02  2.26481E+03 -6.66165E+03 -6.11850E+02 -4.04569E+03  7.48757E+02  1.03451E+03 -2.67473E+03
  2.70495E+03  3.62934E+03  4.25839E+03  3.49215E+03  3.41381E+03  1.05676E+04 -5.49347E+03  1.16667E+04
 -5.69603E+03  1.35308E+04 -1.55522E+04  1.81894E+03 -1.22449E+04 -8.70375E+03 -1.45209E+04 -1.02570E+04
 -3.01135E+03 -1.04943E+04  4.83864E+03 -9.69185E+03  4.31308E+03 -6.54632E+03  6.62159E+02  5.12195E+03
  3.95016E+03  7.59774E+03  1.38981E+03  6.98334E+03 -7.85550E+03  9.21221E+03 -1.87526E+03 -2.68270E+02
  5.81994E+03 -4.79965E+03  4.42307E+03 -2.08770E+03 -7.87860E+02  5.86490E+03 -5.50813E+03  6.92253E+03
  4.75549E+02  7.07192E+03 -9.41581E+03  1.41111E+03 -8.36676E+03 -5.09282E+03 -6.79723E+02 -1.11397E+04
  5.03322E+03 -1.32121E+04  5.64464E+03 -3.15364E+03  8.38820E+03  1.09222E+03  4.28284E+03  7.60866E+03
 -2.19349E+03  6.84693E+03  5.45860E+03  1.02220E+04 -4.49917E+03  8.54001E+03  4.32127E+02  3.54569E+03
  3.32028E+03 -1.44411E+03 -5.45952E+03 -1.61734E+03 -8.37544E+02 -2.17214E+03 -6.90945E+03  6.41261E+03
 -2.85817E+03 -1.35314E+03  1.41748E+03 -8.92861E+03  1.16532E+03 -4.30538E+03  8.78895E+03  4.74941E+02
  8.12824E+03 -8.28986E+02  6.90528E+03  4.19212E+03  8.99867E+02  8.58209E+01 -2.35973E+03  2.20204E+03
