 $NMID ID='MM_0lb_SNR50_19hz_g55_29.RAW', FMTDAT='(8E13.5)'
 TRAMP=1., VOLUME=1. $END
  3.10928E+05  4.58611E+03  3.38778E+05  2.53252E+05  8.37331E+04  3.36362E+05 -1.34261E+05  2.51369E+05
 -1.88435E+05  8.20790E+04 -1.13846E+05 -3.39186E+04  3.20395E+03 -5.02203E+04  5.60150E+04  2.39430E+03
  3.74269E+04  5.38762E+04 -1.80985E+04  7.10286E+04 -6.23638E+04  6.37096E+04 -8.59802E+04  3.05615E+04
 -8.11893E+04 -1.00983E+04 -5.52484E+04 -5.00838E+04 -1.59368E+04 -7.10137E+04  2.54968E+04 -4.57151E+04
  3.98508E+04  5.96869E+03  1.46449E+04  5.21645E+04 -3.05073E+04  4.82124E+04 -6.64808E+04 -2.87220E+03
 -4.88642E+04 -5.18227E+04 -7.04148E+03 -7.42439E+04  3.56294E+04 -5.55708E+04  4.60562E+04 -1.73714E+04
  4.13775E+04  9.15452E+03  2.96342E+04  2.06156E+04  1.39887E+04  2.77937E+04 -5.34734E+03  2.76330E+04
 -2.28329E+04  1.23046E+04 -2.14135E+04 -9.48478E+02  4.78567E+03 -6.87665E+03  2.17340E+04  1.15108E+04
  9.84427E+03  3.46223E+04 -3.38655E+04  3.66745E+04 -6.21755E+04  1.62612E+03 -5.62993E+04 -4.30383E+04
 -1.39129E+04 -6.26555E+04  4.06321E+04 -4.28171E+04  5.44841E+04  2.06131E+02  3.36463E+04  3.30270E+04
 -6.55856E+03  3.54977E+04 -2.91338E+04  1.03988E+04 -3.11504E+04 -1.51837E+03 -1.81403E+04 -1.06268E+04
 -7.81615E+03 -1.07415E+04 -9.46526E+02 -1.86033E+04  6.84239E+03 -1.80871E+04  1.55332E+04 -1.13340E+04
  1.21752E+04  6.90553E+03 -6.38128E+03  1.52071E+04 -2.10087E+04 -3.17788E+03 -7.84113E+03 -2.95521E+04
  2.38734E+04 -4.15331E+04  4.71258E+04 -1.93219E+04  3.97943E+04  1.93816E+04  1.49904E+04  4.29900E+04
 -1.85803E+04  2.96130E+04 -2.25436E+04  4.40723E+03 -3.84788E+03 -2.66591E+04  2.23505E+04 -3.15664E+04
  3.87848E+04 -4.04493E+03  3.35642E+04  2.20513E+04  1.40826E+04  3.99155E+04 -6.48562E+03  4.05095E+04
 -2.67595E+04  3.11575E+04 -3.89624E+04  1.39743E+04 -4.02077E+04 -1.61380E+04 -2.31477E+04 -3.42018E+04
  9.82173E+03 -3.36292E+04  3.21081E+04 -1.02598E+04  2.74548E+04  9.34024E+03  4.70305E+03  1.89112E+04
 -1.30013E+04  4.05699E+03 -1.10471E+04 -5.12857E+03  1.01076E+04 -9.76880E+03  1.74477E+04  5.99406E+03
  1.18434E+04  2.53883E+04 -6.59625E+03  2.26026E+04 -2.36563E+04  5.51781E+03 -3.06511E+04 -4.47488E+03
 -1.99387E+04 -1.60553E+04 -5.28171E+03 -1.71692E+04  3.54753E+03 -1.49197E+04  1.32461E+04 -1.48174E+04
  2.30225E+04 -1.50243E+04  3.04071E+04  1.11714E+03  2.01447E+04  1.80959E+04  3.06821E+03  3.40273E+04
 -2.17059E+04  2.77381E+04 -3.04595E+04  1.12953E+04 -1.76435E+04 -9.12945E+03 -3.98340E+03 -1.76495E+04
  4.36610E+03  2.63067E+01 -9.38063E+02  3.65884E+03 -1.61095E+04  7.40783E+03 -1.55457E+04 -4.22519E+03
 -8.31440E+03 -1.39659E+04  5.57194E+03 -2.05986E+04  1.10042E+04 -1.35343E+04  1.74038E+04  9.64162E+02
  9.01063E+03  1.09175E+04  1.28109E+03  2.05490E+04 -1.09228E+04  7.99047E+03 -1.41397E+04 -5.27185E+03
 -1.13310E+04 -1.12276E+04 -4.24175E+03 -1.85794E+04  8.91430E+03 -1.52720E+04  1.74408E+04 -1.08409E+04
  1.78775E+04  1.83958E+03  8.00587E+03  2.51076E+02  5.24601E+03  1.58629E+03  6.88084E+03  5.74474E+02
  1.35360E+04  3.30606E+03  1.75011E+04  1.40138E+04  1.29944E+04  2.27351E+04 -5.88730E+02  2.72912E+04
 -1.46803E+04  2.09889E+04 -2.48142E+04  8.49059E+03 -2.79405E+04 -3.50807E+03 -2.31946E+04 -1.42867E+04
 -1.15893E+04 -2.22741E+04  7.36078E+03 -2.38723E+04  1.74898E+04 -9.07584E+03  1.49105E+04 -5.28748E+02
  7.95247E+03  1.34269E+04 -3.02508E+03  7.80740E+03 -1.33274E+04  9.38836E+02 -9.09368E+03 -6.93981E+03
 -1.14397E+03 -1.27522E+04  1.03658E+04 -3.09350E+03  7.31485E+03 -3.98165E+03  1.70384E+03  3.67502E+03
 -6.42956E+03 -2.51404E+03 -6.85412E+03 -6.39652E+03  2.72319E+03 -1.39779E+04  7.06057E+03 -7.57537E+03
  1.16841E+04 -1.64801E+03  1.52010E+04  3.75707E+03  1.10875E+04  1.37238E+04  5.53701E+03  1.94983E+04
 -3.27251E+03  1.79677E+04 -7.19337E+03  1.14268E+04 -1.40723E+04 -2.84400E+03 -9.03602E+03  1.98071E+02
 -2.69304E+03 -5.51949E+03 -1.67259E+03  3.35473E+03 -2.95271E+03  6.20486E+03 -2.56894E+03  3.63522E+03
 -7.00733E+03 -1.70180E+03 -8.15952E+03 -4.02193E+03 -3.96579E+03 -1.24199E+04  2.13676E+03 -6.47174E+03
  9.23281E+03 -3.27617E+03  3.66784E+03  4.15442E+03  1.83119E+02  8.92999E+02 -3.74010E+03 -4.94959E+02
 -7.23837E+03 -3.84759E+03  6.54260E+01 -4.75459E+03  2.91745E+02 -7.24268E+03  1.15498E+04 -4.54330E+03
  1.58667E+04  4.39975E+03  7.92269E+03  7.36822E+03  1.21362E+03  6.51488E+03 -4.05842E+03  1.22026E+04
 -4.24767E+03  2.55249E+03 -5.05727E+03 -1.11747E+02  5.94999E+03 -6.01532E+03  5.14882E+03  4.38933E+03
  1.45981E+03  5.28129E+03 -2.33752E+03  6.07373E+03 -4.49617E+03  3.85327E+03 -1.01834E+04  2.30798E+02
 -8.77821E+03 -5.34940E+03  2.75280E+03 -9.87891E+03  8.03022E+03 -6.61710E+03  3.62669E+03 -1.37560E+03
 -1.92958E+03  8.21854E+03 -4.59762E+03  4.52928E+03 -4.25550E+03  3.49166E+03 -6.20468E+03 -1.42954E+03
 -5.91824E+02 -6.50713E+03  6.67663E+02 -7.13246E+03  3.03021E+03 -6.34634E+03  5.92799E+03  1.85494E+03
  3.63508E+03  4.43714E+03 -1.64524E+03  4.49095E+03 -7.14861E+03  3.23609E+03 -5.24077E+03 -2.64929E+03
 -4.72520E+03 -5.24105E+03 -2.90816E+03 -8.12709E+03  4.57423E+03 -5.72762E+03  7.00833E+01 -5.53483E+03
  2.14442E+03  4.46643E+03 -2.26065E+01  6.72030E+03  2.48880E+02  9.96663E+02 -5.77631E+02 -2.55034E+03
  2.20815E+03 -2.12783E+03  2.16348E+03 -2.88650E+03  7.59022E+03  3.17435E+03  4.72590E+03  7.78216E+03
  1.14337E+03  5.14803E+03 -7.27239E+03  1.09952E+03 -8.10309E+03 -2.70839E+03 -7.88995E+03 -4.08827E+03
 -4.98701E+03 -8.55705E+03  3.46304E+02 -6.59635E+03  2.02777E+03 -3.93608E+02 -6.11532E+02 -1.99036E+03
  9.79135E+02 -3.65782E+03 -1.60531E+03 -3.59335E+03  5.61653E+03 -3.24908E+03  5.56840E+03  2.72478E+03
  5.33757E+03  3.27568E+03  2.28028E+03 -8.58454E+02  2.31757E+03  3.54614E+02 -3.95734E+03  1.99110E+03
 -4.53762E+03 -2.22694E+03 -5.97103E+02  2.96085E+01 -3.27687E+02 -3.24789E+03  1.07790E+03 -4.45579E+03
  5.47574E+03 -5.93958E+03  7.04831E+03  9.77520E+02  2.33224E+03 -8.72408E+02  9.01009E+02  6.95056E+03
 -2.09103E+03  7.73518E+03 -6.21198E+03  4.58755E+03 -3.39896E+03 -4.72172E+03  2.11262E+03  5.31596E+02
 -1.23037E+03  1.92569E+03  2.07425E+03  1.42528E+03 -2.97833E+03 -1.20286E+02 -3.21077E+03  8.63473E+02
 -1.78093E+03 -7.30322E+03  2.97356E+02 -8.14025E+03  4.54778E+03 -7.45379E+03  5.42142E+03 -4.73867E+03
 -2.61854E+02  5.81263E+03 -1.02107E+03  2.37776E+03 -3.57136E+03  5.91965E+03 -4.76870E+03  5.17693E+03
 -2.64474E+02  3.11572E+03 -4.77237E+03 -2.78533E+03  2.02146E+03 -2.97225E+03  2.94752E+03 -3.60347E+03
  4.88752E+03  7.74867E+02  3.47588E+03  1.02159E+03 -3.68812E+03  6.49140E+02  2.58456E+03 -1.01855E+03
  3.65759E+03  7.03524E+03  2.46094E+03  1.66669E+03  4.26777E+03  3.76751E+03  3.87526E+03  8.72192E+02
  5.58645E+02  1.95925E+02  1.38978E+03  7.61134E+03 -4.66770E+02  1.86654E+03 -7.63150E+03  1.90460E+03
 -2.59667E+03 -3.48555E+03 -2.77085E+03 -3.10969E+03  2.01339E+03 -1.74176E+03 -1.61594E+03  9.64907E+02
  4.93338E+03  6.43191E+02  5.74049E+02  4.98364E+03 -4.23842E+02  1.72036E+03  6.25310E+02 -5.41731E+03
 -1.78671E+03 -4.66343E+03  3.23189E+03 -3.01396E+03  1.54654E+03  1.26396E+03  3.66701E+03 -2.79669E+03
  4.39519E+02  5.76609E+02  2.59546E+03 -6.18670E+02 -6.11839E+02 -2.81517E+03  8.45506E+02  6.80435E+02
 -6.08178E+02  1.99288E+03  1.52786E+02  1.89658E+03 -3.24480E+02  2.31162E+03 -1.59448E+03 -6.35898E+02
 -4.98243E+03 -3.45430E+03 -3.44582E+03 -7.24958E+02 -3.79603E+03 -1.46906E+02  9.28620E+02 -2.86612E+03
  3.95556E+02 -3.62384E+03  2.22875E+03  9.39537E+02  4.30170E+03  5.33739E+03 -1.21206E+03 -1.17368E+03
 -2.89114E+03  1.62910E+03  1.75724E+03 -2.55983E+03  8.87199E+02 -3.49134E+03  1.67050E+03 -3.40854E+03
  2.54925E+03  2.54242E+02  1.83510E+03  1.79004E+03  9.08143E+02 -1.06963E+03 -2.88917E+03  4.39676E+03
 -2.45687E+03  3.21509E+02 -3.36992E+03 -1.15420E+03 -8.84743E+02 -3.33022E+02  1.45090E+03  5.09202E+03
 -2.23588E+03  3.12402E+03  1.26374E+03  5.62993E+03 -2.78117E+03  2.31621E+03 -1.31211E+03  4.56854E+02
 -2.67975E+03  6.27935E+02 -3.16350E+02  4.71674E+03 -4.63872E+03 -1.99878E+02  2.94650E+01  2.75553E+03
 -1.01613E+03 -1.18946E+03  8.52672E+02 -7.78582E+02 -3.16047E+02 -4.00279E+03 -4.15369E+03  1.45171E+03
  9.94155E+02  1.17026E+03  4.70568E+03 -2.79630E+03  8.62588E+02  5.93274E+03 -9.46859E+02  3.97777E+03
  2.42734E+03  1.64395E+03 -1.34017E+03  6.68706E+02 -1.34147E+03 -2.54105E+03 -4.83903E+03 -2.38580E+03
  6.35388E+02 -3.83929E+03 -8.96960E+01 -4.73324E+03 -5.56190E+03 -1.37973E+03  2.92240E+03 -6.71568E+02
  2.84309E+03  3.53264E+02  1.11050E+02  1.12517E+02 -3.47471E+03  3.86877E+03 -4.81488E+03 -1.87411E+03
 -3.58341E+03  1.42708E+03  2.57490E+02  2.71715E+03 -4.50701E+02 -2.12157E+03  3.13489E+03 -2.76055E+03
 -1.28897E+03  2.12021E+02  2.46629E+03 -1.59874E+03 -5.77490E+02  4.94024E+03 -4.38774E+03 -8.24036E+03
  3.05590E+03  1.60193E+03  3.57599E+03 -4.17666E+03  2.18276E+02 -1.26060E+02  2.96904E+03  3.81920E+03
 -2.89689E+03  5.19872E+03 -4.83086E+03 -3.70077E+03  2.97962E+03 -7.48106E+02  1.40861E+03  1.92977E+03
  1.47221E+03  3.45365E+03 -4.45934E+02 -1.90124E+03  1.06560E+03 -1.73696E+03  8.44673E+02 -2.70952E+03
  1.90755E+03  3.28429E+02  6.89496E+02  1.12382E+03  3.42560E+02  1.22807E+03  7.46893E+02 -1.37111E+03
  7.42098E+02 -5.75041E+02  2.02922E+03  2.60380E+03  1.43308E+03  6.24135E+02  3.15929E+02  2.32096E+01
  2.28931E+03 -9.01148E+02 -1.72413E+03  1.40734E+03 -2.44145E+03 -2.77719E+03  7.06109E+02 -3.27892E+03
 -2.06975E+03 -1.54060E+03 -2.59969E+01 -2.66279E+03 -7.93679E+02  1.10985E+03  2.75178E+03 -1.90912E+03
  7.85289E+02  1.85768E+03  7.24238E+03 -3.11205E+02  3.20789E+03 -4.15642E+02  1.19629E+03 -9.25287E+02
  2.41436E+03  2.45551E+03 -3.17141E+03  1.23555E+03 -9.51372E+02 -2.68714E+03  3.36201E+03  7.71890E+02
 -4.68412E+02  6.73258E+01 -3.83104E+02 -4.15509E+03 -1.53725E+03  1.20610E+03  4.93445E+02 -3.69754E+03
  2.80187E+03  3.83435E+03 -4.24948E+03  2.60372E+02 -3.99380E+01 -5.69133E+02 -1.02275E+03  5.42454E+02
