 $NMID ID='MM_0lb_SNR50_10hz_g45_6.RAW', FMTDAT='(8E13.5)'
 TRAMP=1., VOLUME=1. $END
  3.11642E+05  6.83714E+02  3.40336E+05  2.53984E+05  8.62114E+04  3.42908E+05 -1.28949E+05  2.47668E+05
 -1.89771E+05  8.16519E+04 -1.07193E+05 -3.30739E+04 -4.19946E+03 -5.12610E+04  5.64372E+04 -6.48140E+03
  3.54329E+04  5.56398E+04 -1.61548E+04  7.55103E+04 -6.14437E+04  6.25938E+04 -8.35531E+04  3.03363E+04
 -8.51609E+04 -1.05137E+04 -6.04493E+04 -4.99364E+04 -1.53273E+04 -6.80257E+04  2.31122E+04 -4.16238E+04
  4.08322E+04 -3.20617E+02  1.45679E+04  5.03807E+04 -3.25895E+04  4.85222E+04 -7.37604E+04 -4.08856E+02
 -5.23972E+04 -5.76797E+04  2.54950E+02 -7.80285E+04  3.35041E+04 -5.64776E+04  4.95002E+04 -1.51338E+04
  4.10764E+04  1.55383E+04  3.02154E+04  2.77867E+04  1.85381E+04  2.99959E+04 -7.60503E+03  2.75390E+04
 -2.46621E+04  1.22531E+04 -1.75051E+04 -9.71189E+03  1.27331E+04 -3.46740E+03  2.49044E+04  1.41464E+04
  9.01864E+03  4.00407E+04 -2.82865E+04  4.04487E+04 -6.65933E+04  3.19562E+02 -5.72431E+04 -4.16681E+04
 -1.38207E+04 -6.57970E+04  3.98827E+04 -5.04311E+04  5.71570E+04  1.18152E+03  3.75905E+04  3.90685E+04
 -9.76082E+03  3.90938E+04 -2.62724E+04  1.77729E+04 -3.26233E+04 -1.56136E+03 -1.66185E+04 -1.29133E+04
 -1.71607E+04 -1.57949E+04 -5.34707E+03 -1.99781E+04  3.94451E+03 -2.68807E+04  1.65791E+04 -6.33017E+03
  1.21481E+04  3.06497E+03 -9.86832E+03  1.28632E+04 -2.36276E+04 -1.20626E+04 -7.04452E+03 -3.55984E+04
  2.51772E+04 -4.00180E+04  4.82694E+04 -2.29030E+04  4.61686E+04  2.72014E+04  1.94224E+04  4.34249E+04
 -8.46664E+03  3.54330E+04 -2.71975E+04  1.75696E+03 -1.00856E+04 -3.54435E+04  1.94959E+04 -3.86246E+04
  4.10092E+04 -8.67798E+03  3.74475E+04  2.32674E+04  2.17948E+04  4.83387E+04 -7.75780E+03  5.83167E+04
 -3.20508E+04  4.72246E+04 -4.68963E+04  8.78889E+03 -4.51809E+04 -1.98863E+04 -2.40041E+04 -4.01509E+04
  6.08141E+03 -4.03199E+04  3.86015E+04 -9.83558E+03  3.43622E+04  1.21479E+04  3.63054E+03  1.64446E+04
 -1.29805E+04  6.78299E+03 -7.89034E+03 -1.11107E+04  6.66753E+03 -1.12664E+04  1.65533E+04  5.90457E+03
  1.01969E+04  2.39498E+04 -8.38369E+03  2.77729E+04 -2.99092E+04  1.27812E+04 -3.01383E+04 -4.04042E+03
 -2.50163E+04 -1.23989E+04 -9.68424E+03 -2.74093E+04  8.70780E+03 -2.30390E+04  2.15636E+04 -2.33870E+04
  2.82296E+04 -8.31553E+03  3.86666E+04 -2.20549E+03  2.70653E+04  2.66627E+04  5.82203E+03  3.85795E+04
 -2.15007E+04  3.14795E+04 -2.82015E+04  1.04543E+04 -1.71119E+04 -1.04454E+04 -5.38563E+03 -1.01891E+04
  4.60829E+03 -1.08595E+03 -6.04771E+03  5.74035E+03 -1.64583E+04  6.95650E+03 -1.51469E+04 -1.04005E+04
 -1.48183E+04 -2.37159E+04  7.82928E+03 -2.28697E+04  2.07333E+04 -1.92584E+04  2.00277E+04  9.58468E+02
  1.48415E+04  1.56133E+04  5.56743E+02  2.59608E+04 -1.28900E+04  1.09098E+04 -1.71091E+04 -3.33410E+03
 -1.64076E+04 -1.88342E+04 -4.11417E+03 -2.88781E+04  8.94886E+03 -2.36655E+04  2.13190E+04 -1.38782E+04
  2.17579E+04  2.41472E+03  1.94664E+04  3.35775E+03  6.25313E+03 -8.57561E+02  8.92834E+03  1.03055E+03
  1.76835E+04  3.86396E+03  2.28327E+04  1.48240E+04  1.71096E+04  3.85383E+04 -6.89811E+03  4.53242E+04
 -2.70653E+04  3.64744E+04 -3.92465E+04  1.21379E+04 -4.24360E+04 -1.30938E+03 -4.11558E+04 -2.25449E+04
 -1.57116E+04 -3.56284E+04  1.17478E+04 -3.06267E+04  2.50420E+04 -1.81090E+04  1.94802E+04  6.48467E+03
  7.99245E+03  1.84504E+04 -1.32720E+04  2.06146E+04 -1.89614E+04  1.89975E+02 -1.70246E+04 -1.50689E+04
 -4.59910E+03 -1.24549E+04  8.78358E+03 -1.64236E+04  1.32203E+04 -1.66866E+02  7.89138E+03  6.00176E+03
 -1.54604E+03  8.66141E+03 -3.27168E+03 -7.16890E+03 -2.03292E+03 -1.80579E+04  7.20764E+03 -1.32434E+04
  1.88514E+04 -7.77315E+03  2.03341E+04 -3.01367E+03  2.13557E+04  1.81251E+04  1.46874E+04  1.81876E+04
 -5.50842E+03  2.29431E+04 -1.78584E+04  2.45815E+04 -2.47095E+04 -1.52649E+03 -1.95553E+04  6.69429E+02
 -1.41158E+03 -1.00765E+04 -4.70233E+02 -2.30371E+02 -2.72230E+03 -3.99138E+02 -1.18293E+04  5.16725E+03
 -1.21248E+04  1.28676E+03 -1.30730E+04 -1.22295E+04 -6.55148E+03 -1.76344E+04  1.10891E+04 -1.13952E+04
  1.47459E+04 -6.15986E+03  1.04634E+04  2.24284E+03  1.64563E+03  4.86097E+03 -1.15569E+04 -1.52597E+02
 -6.93538E+03 -1.09388E+04 -8.37092E+01 -1.85195E+04  8.48410E+03 -6.30044E+03  1.57292E+04 -1.32951E+04
  1.54835E+04  2.08141E+03  1.58036E+04  1.12917E+04  4.22940E+03  1.53540E+04 -8.33923E+03  1.68440E+04
 -1.42112E+04  8.95128E+03 -1.04851E+04 -3.69252E+03 -7.63469E+02 -2.02033E+03  5.85732E+03  1.79219E+03
  6.74812E+03  4.00286E+03  1.77378E+03  8.64408E+03 -7.19789E+03  1.25286E+04 -1.17693E+04 -9.44698E+01
 -1.55289E+04 -6.01840E+03  3.78475E+03 -1.25713E+04  1.78685E+04 -3.72709E+03  3.03654E+03 -3.47187E+03
  2.89043E+03  5.43608E+03 -1.12715E+04  7.35709E+03 -1.39030E+04  8.90873E+03 -1.68160E+04 -1.47594E+03
 -1.09400E+04 -1.47999E+04  4.47370E+03 -1.66773E+04  1.33054E+04 -7.81473E+03  1.36103E+04  2.34600E+03
  5.56240E+03  3.12486E+03  1.66049E+03  1.16295E+04 -1.85277E+04  1.05142E+04 -1.22466E+04 -1.00184E+03
 -7.84495E+03 -1.01869E+04 -2.93504E+03 -1.08959E+04  6.51428E+03 -7.21912E+03  7.43934E+03 -5.56650E+03
  3.46371E+03  3.00539E+03  2.58177E+02  5.65890E+03 -5.43398E+03 -2.29129E+02  6.92730E+03 -6.75868E+03
  1.24609E+04 -6.02731E+03  1.56799E+04  8.47169E+02  2.03011E+04  9.84104E+03  9.73274E+03  1.67944E+04
 -9.08690E+03  2.05323E+04 -2.32351E+04  2.12059E+04 -2.34463E+04  1.43468E+03 -2.48654E+04 -1.31489E+04
 -8.08845E+03 -1.25646E+04 -9.68695E+03 -1.50287E+04  3.98903E+03 -8.92438E+03  7.27492E+03 -6.92899E+03
  2.82964E+03 -3.76807E+02  7.09415E+03  2.68622E+03  6.09100E+02 -2.88215E+03  5.22139E+03  2.61529E+03
  1.40380E+04  8.86239E+03  8.67763E+03  1.19208E+04  1.50211E+03  1.72032E+04 -1.15861E+04  2.94182E+03
 -1.31151E+04 -2.98339E+03 -5.66288E+03 -1.12074E+04  1.85662E+03 -7.54397E+03  8.58266E+03 -1.18083E+04
  9.17349E+03 -4.06587E+03  1.77030E+04  4.07922E+03  1.60096E+04  9.69529E+03  4.10851E+03  2.16257E+04
 -3.43219E+03  8.65230E+03 -1.17792E+04  5.81542E+03  7.19763E+02  1.06336E+03 -2.14222E+03 -4.84932E+03
 -1.18329E+03  4.66788E+03 -3.01418E+03  6.08880E+03 -9.52811E+03  4.07539E+03 -1.04745E+04 -8.85718E+02
  6.52612E+02 -8.80638E+03 -4.09280E+03 -1.04673E+04  9.27366E+03 -7.03117E+03  8.66254E+03 -5.41016E+03
  1.21188E+04  6.75219E+03  1.01143E+03  1.08184E+04 -3.30597E+03  1.40775E+04 -9.34873E+03  1.19464E+04
 -8.77315E+03 -1.21269E+03 -1.25309E+04 -1.31044E+04  1.30237E+02 -1.52934E+04  6.60912E+03 -2.15521E+03
  5.33285E+03  2.63394E+03  8.24388E+03 -9.65141E+01  1.54216E+03  2.96319E+03 -2.49220E+03  2.30581E+03
 -1.79617E+02  1.08106E+03  6.68157E+03  1.09217E+03  1.26648E+03  5.39720E+03  2.10489E+03  6.95018E+03
 -2.26440E+03  1.07702E+04 -6.73298E+03  8.57644E+03 -1.43629E+04 -1.89691E+03 -9.33284E+03 -5.85853E+03
 -6.50217E+03 -1.02217E+04  1.60686E+03 -1.32054E+04  8.25985E+03 -1.61902E+04  9.04434E+03  8.02002E+02
  6.15804E+03  9.07738E+03 -3.20711E+03  4.70210E+03 -2.23250E+03  7.06603E+03 -1.05750E+04 -1.25754E+03
  2.37111E+03 -9.65261E+03 -1.51070E+03 -4.87026E+03  1.25752E+04 -5.52748E+03  1.73250E+03  4.96305E+03
  8.11147E+02  1.22737E+03  3.15724E+03  5.51401E+03  1.07158E+03  8.22706E+02  7.89494E+03 -2.31859E+02
  4.78081E+03 -2.71198E+03  1.44244E+03  2.90477E+02 -4.53610E+03  1.16498E+04  4.06342E+03  1.07930E+04
 -3.76755E+03  7.36083E+03 -8.69402E+03 -2.01728E+03 -3.02136E+03 -4.03714E+03 -6.69193E+03 -2.73830E+03
  8.37650E+02 -4.99777E+03  8.54315E+03  2.25704E+03 -3.66965E+03  2.61829E+03 -1.69025E+03 -6.11722E+02
 -7.72354E+03  1.34517E+03 -7.08120E+03 -5.12202E+03 -4.95963E+02 -6.52868E+03  5.23171E+03 -3.50844E+03
  1.23300E+03 -1.00312E+04  1.38620E+03  3.83410E+02  3.68371E+03  2.77827E+03 -7.02928E+02  2.78075E+03
 -4.70824E+03  2.19849E+03 -1.68860E+03 -7.59845E+03 -6.87778E+03 -3.56209E+03  2.30797E+03 -4.60761E+03
  8.34888E+03 -2.46864E+03  3.50478E+03  7.22071E+03  6.07679E+03  1.08398E+04 -1.03902E+03  4.70404E+03
 -8.81386E+03  3.65707E+03 -5.86058E+03 -7.68929E+03 -2.01413E+03 -1.36384E+04  2.04812E+03 -9.90991E+02
  9.19836E+03 -1.14375E+03  4.95371E+03  4.07438E+03  5.27353E+03  6.39938E+03  3.88927E+02  2.09115E+03
  3.05090E+03  3.39686E+03 -3.16119E+03 -1.68684E+03  6.62796E+02  2.41662E+03 -1.03648E+03  1.06606E+03
 -2.12363E+03  6.19228E+03 -4.78224E+03 -9.53736E+02 -7.89845E+03 -1.29397E+02 -8.36475E+03 -5.04629E+03
 -4.16037E+03 -7.56616E+03  4.89897E+02 -9.87315E+03  1.35733E+04 -1.03838E+04  9.11385E+03 -2.62370E+03
  1.29962E+04 -1.43168E+03  9.71478E+03  2.89906E+03 -1.64596E+03  5.23873E+03 -8.01128E+03  4.55519E+03
 -7.87232E+03  2.20888E+03  3.49489E+02 -3.85995E+03 -2.27708E+03 -8.93783E+03  4.57183E+03 -4.82137E+03
 -8.20373E+03 -3.02699E+03  9.55404E+02  2.50793E+03 -7.37277E+03 -3.32872E+03  3.82966E+03 -6.69490E+03
  2.94019E+03 -6.56031E+03  3.56042E+03  3.87845E+03  4.02205E+03  4.27984E+03  3.69122E+03  8.16836E+03
 -4.28839E+03  1.20901E+04 -6.17652E+03  4.69329E+03 -9.03750E+03 -5.08770E+03 -1.27754E+04 -7.90670E+03
 -6.49662E+03 -1.06565E+04  2.25211E+03 -8.04697E+03  3.67252E+03 -3.90792E+03  1.11648E+04  2.03408E+03
  7.88621E+02  3.40555E+03 -1.53375E+03  7.28210E+03 -1.77277E+02 -2.49572E+03 -5.02722E+03 -6.46255E+02
 -6.74818E+02 -4.19725E+03  3.42838E+03  7.47830E+03  1.82891E+03  3.26691E+03  4.20525E+01  4.20796E+03
 -2.64099E+03  2.92934E+03 -1.16424E+03  7.19701E+03 -3.86898E+03 -1.27553E+02 -4.90840E+03 -5.80715E+03
  2.44217E+03 -5.05784E+03  6.23138E+03  5.89784E+02  3.88923E+03 -6.23288E+02  2.81108E+03  3.50912E+02
  1.79033E+03  4.60571E+03 -2.75687E+03 -1.98136E+03 -1.97559E+02  2.27467E+03 -1.14348E+04 -3.23301E+02
 -1.53097E+03 -5.95658E+00 -4.53880E+03 -2.48830E+03 -6.87194E+03 -1.05181E+03 -3.61000E+03 -7.27597E+02
 -1.22536E+03 -3.79046E+03 -4.86821E+03 -8.59293E+03  3.23768E+03 -1.02976E+04  4.92388E+03 -1.54926E+03
  4.60903E+03  5.76920E+03  6.63974E+03  3.50359E+03 -6.76802E+03  7.48242E+03 -4.57391E+03  3.72542E+03
