 $NMID ID='MM_0lb_SNR50_10hz_g45_8.RAW', FMTDAT='(8E13.5)'
 TRAMP=1., VOLUME=1. $END
  3.11605E+05  4.56503E+02  3.37704E+05  2.49861E+05  8.65776E+04  3.40088E+05 -1.31065E+05  2.51198E+05
 -1.86413E+05  7.76490E+04 -1.09144E+05 -2.91074E+04  6.41591E+03 -5.16518E+04  5.70668E+04 -4.77550E+03
  3.88228E+04  5.35612E+04 -1.38692E+04  7.51661E+04 -6.38943E+04  5.93229E+04 -8.64418E+04  3.53664E+04
 -7.46729E+04 -1.27942E+04 -5.94926E+04 -5.07488E+04 -8.59692E+03 -6.97680E+04  2.61431E+04 -4.64717E+04
  3.62478E+04  4.39750E+03  2.08839E+04  4.80485E+04 -3.73400E+04  5.15183E+04 -7.02000E+04 -2.95139E+03
 -5.59114E+04 -5.78391E+04 -5.86496E+03 -7.73512E+04  3.19050E+04 -5.73053E+04  4.52134E+04 -2.06322E+04
  3.74338E+04  8.16610E+03  3.02331E+04  2.78390E+04  1.42788E+04  2.91915E+04 -4.05732E+03  3.26911E+04
 -2.13353E+04  1.24451E+04 -1.37203E+04 -5.20840E+03  5.60842E+03 -4.64867E+03  2.43259E+04  1.48102E+04
  1.34686E+04  3.53494E+04 -3.62592E+04  3.07978E+04 -6.12506E+04 -2.57434E+03 -5.85737E+04 -4.08797E+04
 -9.60992E+03 -6.37478E+04  4.22777E+04 -4.00803E+04  6.43707E+04 -1.58980E+03  4.13940E+04  3.18880E+04
 -3.55266E+03  3.76227E+04 -3.60169E+04  2.14933E+04 -2.86552E+04 -1.15587E+03 -1.57498E+04 -9.77905E+03
 -9.45168E+03 -1.45064E+04  4.56123E+02 -1.83453E+04  9.60016E+03 -2.57489E+04  1.54594E+04 -1.45993E+04
  7.65133E+03  1.98648E+03 -8.31987E+03  2.01867E+04 -2.85623E+04 -2.77474E+03 -5.68743E+03 -4.34545E+04
  2.55994E+04 -4.59291E+04  5.43495E+04 -1.70642E+04  4.67023E+04  2.14643E+04  1.18023E+04  5.11753E+04
 -1.65513E+04  3.43398E+04 -2.93450E+04 -2.39267E+03 -1.27002E+04 -2.96746E+04  2.06110E+04 -2.89439E+04
  4.33862E+04 -1.32799E+04  3.54165E+04  2.59205E+04  2.35825E+04  4.89477E+04 -8.03860E+03  5.74441E+04
 -3.30291E+04  3.22889E+04 -4.63270E+04  1.23980E+04 -4.87721E+04 -1.94174E+04 -2.65896E+04 -3.65940E+04
  1.07770E+04 -3.65123E+04  2.92105E+04 -1.69897E+04  2.78391E+04  6.73289E+03  4.88395E+03  1.72786E+04
 -1.74179E+04  9.60858E+03 -8.04039E+03 -6.54746E+03  3.05177E+03 -1.37933E+04  1.82667E+04  3.22950E+03
  2.19802E+04  2.65877E+04 -1.46287E+04  2.50881E+04 -2.19150E+04  2.06965E+04 -4.13663E+04 -1.30750E+04
 -2.74451E+04 -1.53392E+04 -1.59560E+04 -2.60364E+04  5.52008E+03 -2.04535E+04  2.05520E+04 -2.23288E+04
  3.15156E+04 -1.69352E+04  4.45281E+04  2.75073E+03  2.15193E+04  2.13113E+04  3.04738E+03  4.09899E+04
 -2.11276E+04  3.14510E+04 -3.05652E+04  7.71316E+03 -2.71627E+04 -9.60442E+03 -4.33477E+03 -1.32493E+04
 -4.32688E+02  1.33576E+03 -7.61563E+03  6.54340E+03 -1.67842E+04  5.57647E+03 -2.16496E+04 -8.12984E+03
 -1.10070E+04 -1.97829E+04  5.04670E+03 -2.35122E+04  1.67261E+04 -1.50981E+04  2.19722E+04  5.82262E+03
  1.02805E+04  1.32086E+04 -6.96481E+03  2.66062E+04 -1.60258E+04  3.19791E+03 -2.07457E+04 -3.58674E+03
 -1.50997E+04 -2.16056E+04 -2.81066E+03 -2.42897E+04  3.74384E+03 -2.67546E+04  2.27943E+04 -1.14398E+04
  2.11643E+04  4.04416E+03  1.21421E+04  2.84733E+03  1.36997E+04  4.00482E+02  6.22252E+03 -6.46199E+03
  2.57204E+04  3.02770E+03  2.39503E+04  8.26256E+03  1.37627E+04  3.56330E+04 -2.13399E+03  3.34281E+04
 -2.35915E+04  3.61029E+04 -3.92907E+04  1.58116E+04 -3.82652E+04 -3.76753E+03 -3.12118E+04 -2.73794E+04
 -1.89966E+04 -3.63693E+04  8.51731E+03 -2.15320E+04  2.67251E+04 -1.41821E+04  2.23964E+04  1.29136E+04
  4.74519E+03  1.60634E+04 -9.02153E+03  1.81592E+04 -1.77847E+04 -2.91317E+03 -1.30122E+04 -8.05175E+03
  2.14370E+03 -1.54663E+04  9.38672E+03 -2.05284E+04  1.76140E+04  1.96792E+03  3.12546E+03  4.60888E+03
 -1.12521E+04 -3.27737E+03 -8.25431E+03 -9.45692E+03 -9.70977E+02 -2.23497E+04  1.35190E+04 -1.41355E+04
  2.12480E+04 -9.66555E+03  2.48769E+04  1.30509E+03  1.77003E+04  1.87932E+04  6.34814E+03  2.60328E+04
 -6.27845E+03  2.55754E+04 -1.94874E+04  1.67007E+04 -2.31382E+04  1.72366E+03 -1.63988E+04 -4.25431E+03
 -6.74206E+03 -3.76654E+03 -3.08002E+03  2.53877E+03  1.30191E+03  2.38323E+03 -6.46309E+03  7.05895E+03
 -1.00302E+04 -6.83010E+02 -1.56559E+04 -9.10970E+03 -7.15811E+03 -1.65010E+04  3.52181E+03 -1.32960E+04
  1.25580E+04 -7.78607E+03  1.46918E+04  4.20566E+03 -3.22590E+03  5.93973E+03 -9.84278E+03 -5.78166E+03
 -3.49075E+03 -1.51832E+04  1.36338E+03 -1.69324E+04  4.68851E+03 -1.62619E+04  2.09782E+04 -7.91758E+03
  1.71561E+04  7.20648E+02  1.86785E+04  9.47940E+03  1.06818E+04  1.12259E+04 -9.23783E+03  1.52880E+04
 -1.90574E+04  5.10718E+03 -5.69533E+03 -3.12548E+03 -7.36031E+02 -4.02402E+03  4.76098E+03  1.46759E+03
  5.50318E+03  5.59919E+03  6.14746E+03  8.77940E+03 -8.04648E+03  9.26008E+03 -1.51549E+04  7.26256E+03
 -7.01351E+03 -3.85387E+03 -4.09584E+03 -1.13357E+04  7.24155E+03 -7.27952E+03  8.34400E+03  7.41374E+03
  7.40456E+03  1.32101E+04 -7.46847E+03  1.12525E+04 -9.30250E+03 -2.96046E+02 -1.00912E+04 -5.70066E+03
 -1.03347E+04 -1.62488E+04  7.67519E+03 -1.71001E+04  1.26218E+04 -1.12688E+04  2.00157E+04  5.36693E+03
  1.25890E+04  1.46195E+04  4.64700E+03  1.79401E+04 -1.42035E+04  8.63754E+03 -8.42411E+03 -8.48689E+02
 -1.25981E+04 -2.41129E+03 -9.26734E+03 -9.68311E+03  9.65884E+03 -6.20110E+03  7.88454E+03  3.02185E+03
  7.48309E+03  2.10583E+03 -2.13326E+03 -3.26702E+02 -3.60049E+03 -2.07397E+03 -1.07837E+02 -8.57303E+03
  1.31698E+04 -4.81797E+02  1.39212E+04  5.27528E+03  7.95416E+03  9.78951E+03 -5.51614E+02  1.29183E+04
 -3.67339E+03  2.41796E+04 -1.35402E+04  9.80353E+03 -1.41777E+04  8.38757E+02 -1.62762E+04 -4.67224E+03
 -1.10141E+04 -1.63106E+04 -2.36585E+03 -1.84723E+04  4.56444E+03 -7.72564E+03  5.87827E+03 -6.44281E+03
  4.12692E+03 -1.97852E+03  2.78971E+03 -1.03727E+03  4.35799E+03  7.15802E+02  1.49240E+04 -5.41501E+03
  1.28882E+04  1.57670E+03  5.41022E+03  5.99905E+03 -5.76643E+03  1.32753E+04 -3.35677E+03  9.03085E+03
 -8.18593E+03 -1.68781E+03 -5.29106E+03 -4.67435E+03  2.56357E+03 -1.52770E+04  1.16937E+04 -2.01191E+04
  9.66250E+03 -8.56458E+03  1.69679E+04  1.94390E+03  1.08268E+04  1.41946E+04  3.98054E+03  1.88459E+04
 -1.38498E+03  8.52944E+03 -1.12692E+04  7.17600E+03 -1.46861E+03  2.05402E+03 -3.28618E+03  2.27896E+03
 -3.30777E+03 -5.07103E+03 -1.40580E+03  4.58511E+03 -3.56031E+03  9.42201E+03 -3.43981E+03 -1.34275E+03
 -1.31503E+04 -1.41095E+04 -1.15049E+03 -1.37483E+04  7.34438E+03 -7.06340E+03  1.46638E+04  1.78011E+03
  1.24168E+04  3.39574E+03  8.53032E+03  8.31679E+03 -1.44054E+03  1.06450E+04 -9.56954E+03  9.59898E+03
 -9.69836E+03  1.88371E+03 -9.24168E+03 -7.49113E+03 -3.89818E+03 -7.93487E+03 -1.09391E+02 -1.30434E+04
  1.15595E+04 -8.30075E+03  1.36408E+04  3.22303E+03 -1.44919E+03  1.79847E+03  5.39906E+03  6.43523E+03
  6.06971E+03 -1.21185E+03  1.27036E+03  2.42773E+03  6.59381E+03  6.79101E+03  1.30128E+02  3.06568E+03
 -2.24259E+03  8.67777E+03 -1.04209E+04  1.23249E+04 -1.14690E+04  3.58116E+03 -1.37073E+04 -1.39870E+04
 -6.48790E+03 -1.50463E+04  3.85618E+03 -1.55412E+04  9.43426E+03 -1.38976E+04  1.79830E+04  2.80904E+03
  1.00828E+04  5.27874E+03  2.08154E+03  1.16207E+04 -7.18344E+03  3.75469E+03 -1.52808E+03 -4.29486E+03
 -1.30868E+03 -4.90120E+03  7.18469E+03 -7.32186E+03  4.05871E+03 -1.13383E+04  8.53420E+03 -3.12758E+03
 -2.75531E+02  2.49300E+03  4.68552E+02  3.26065E+03  5.81466E+02 -7.57998E+03  7.62332E+03 -1.17421E+03
  4.74751E+03 -4.76472E+03  7.27804E+03  1.55357E+03  2.70545E+03  1.32736E+04 -1.35309E+03  7.71441E+03
 -2.52522E+03  7.58769E+03 -1.16133E+04  4.18530E+03 -1.42514E+04 -2.34122E+03 -1.00651E+02 -2.69358E+03
  3.04730E+03 -8.33701E+03  1.52216E+03  1.45783E+03 -1.32188E+03  7.38092E+03 -4.65137E+03  2.75084E+03
 -7.57116E+03  2.67813E+03 -6.32216E+03 -4.15282E+03 -2.54111E+03 -9.11860E+03  2.31934E+03 -8.55393E+03
  3.15043E+03 -4.84201E+03  6.93790E+03  5.85200E+03  4.15472E+03  2.40538E+03  4.01869E+03  1.88528E+03
 -5.11355E+02  1.39931E+03 -4.51577E+03  3.62763E+02 -1.72840E+03 -1.14404E+04 -1.32090E+03  7.52705E+01
  1.25296E+04  5.06003E+03  4.90364E+02  4.24553E+03 -1.38650E+03  9.30799E+03 -1.50861E+03  6.85888E+03
 -4.51879E+03  6.54128E+03 -8.79465E+03 -1.99677E+03  2.59078E+03 -1.32333E+03 -1.48121E+02 -3.81694E+03
  3.58420E+03  1.46383E+03  7.21578E+03  4.31773E+02  1.65342E+03  6.22688E+03 -2.96583E+03  3.49661E+03
 -4.78579E+03  5.99071E+03 -7.61032E+03  5.43073E+02 -1.12924E+03  8.30300E+02 -9.03628E+03  2.93636E+03
 -9.35156E+02  4.86442E+03 -2.92777E+03 -1.49089E+03 -1.08999E+04  7.56087E+03 -4.74180E+03 -4.55415E+03
 -9.06082E+03 -8.38941E+03  3.72749E+02 -1.25625E+04  1.45498E+04 -1.61042E+04  1.22865E+04 -2.72970E+03
  7.73580E+03 -1.11510E+03  6.64112E+03  7.51571E+03 -6.18833E+02  1.25963E+04 -7.61326E+03  1.01520E+04
 -9.37826E+03  5.67277E+02 -5.08384E+03 -2.92235E+03  1.51436E+03 -9.67744E+02 -3.29521E+02 -1.63042E+03
 -9.51929E+02  4.57991E+02 -4.03645E+03 -2.95358E+03 -2.19029E+03  3.68722E+03 -2.91267E+03 -3.79270E+03
  5.29116E+03 -6.83927E+03  4.57577E+03 -2.82752E+03  5.53992E+03  7.03220E+03 -3.89274E+03  1.08368E+04
 -5.23245E+03  9.70452E+03 -8.38057E+03  4.63691E+03 -1.75621E+04 -4.68940E+03 -9.57395E+03 -6.88527E+03
 -5.76444E+03 -1.19008E+04  1.13625E+02 -1.21177E+04  6.11497E+03 -1.16236E+04  5.09772E+02 -4.89664E+03
  9.18677E+03  6.56126E+03  4.88353E+03  1.51096E+03 -6.77850E+03  1.36708E+03  7.27059E+02  2.93324E+03
  7.75806E+03  4.87854E+03  3.57506E+02  3.45268E+03  2.25334E+03  5.12924E+03  2.08079E+02  3.48696E+03
 -2.79478E+03  5.48761E+03 -4.33690E+03 -2.84856E+03 -8.78394E+03 -8.51747E+03 -3.49758E+03 -9.28453E+03
  2.05388E+03 -6.71010E+03  2.06390E+03 -1.38687E+03  8.83095E+03  2.01587E+03  2.63626E+03  5.58570E+03
  4.10673E+03  6.71328E+03 -5.17815E+02  6.77472E+03  4.82877E+02 -1.22702E+03  3.33801E+02  3.70742E+03
 -2.47470E+03 -1.34328E+03 -2.46460E+03  3.23481E+02  1.85146E+02  4.94778E+03 -1.48338E+01  8.72593E+02
 -5.47493E+02  1.65812E+02  1.77580E+03 -1.08195E+04  2.12142E+03 -4.43233E+03  8.21418E+03 -1.25421E+03
  6.40221E+03 -6.30893E+03  1.61716E+03  3.13365E+03  2.02141E+03  7.86898E+03 -2.95338E+03  7.78299E+03
