 $NMID ID='MM_0lb_SNR50_9hz_g50_89.RAW', FMTDAT='(8E13.5)'
 TRAMP=1., VOLUME=1. $END
  3.08408E+05 -5.79474E+02  3.38739E+05  2.46347E+05  8.36446E+04  3.38565E+05 -1.37255E+05  2.51959E+05
 -1.94598E+05  8.56890E+04 -1.13081E+05 -3.23382E+04  2.90030E+03 -5.49836E+04  5.17633E+04 -2.84273E+03
  3.27700E+04  4.76992E+04 -1.83757E+04  7.09125E+04 -5.97273E+04  6.73227E+04 -8.08183E+04  2.72595E+04
 -8.42788E+04 -9.96522E+03 -6.10291E+04 -6.37958E+04 -7.99357E+03 -7.43374E+04  2.88505E+04 -5.01620E+04
  4.23642E+04  5.30375E+03  1.21171E+04  4.60053E+04 -4.44090E+04  5.25793E+04 -6.87883E+04  2.41034E+03
 -5.60307E+04 -6.04986E+04 -1.08143E+04 -7.94881E+04  4.26544E+04 -5.88696E+04  5.29633E+04 -1.55968E+04
  4.69590E+04  1.04428E+04  3.67703E+04  3.03898E+04  9.62498E+03  3.15498E+04 -1.00414E+04  2.62864E+04
 -2.41222E+04  1.66464E+04 -1.97511E+04 -2.01810E+03  6.23427E+03 -8.34581E+03  1.77808E+04  1.41979E+04
  9.60799E+03  3.39798E+04 -3.34832E+04  3.71256E+04 -6.58676E+04  2.61004E+03 -5.97585E+04 -4.78216E+04
 -1.46969E+04 -5.80965E+04  3.68937E+04 -4.62169E+04  6.12132E+04 -4.78065E+03  3.37139E+04  3.19137E+04
 -5.61827E+03  4.22821E+04 -3.36467E+04  1.79024E+04 -3.05404E+04 -6.60406E+03 -1.83058E+04 -1.31972E+04
 -1.01839E+04 -1.24216E+04  2.05271E+03 -2.08278E+04  6.32016E+03 -2.59168E+04  1.02058E+04 -4.76429E+03
  1.10400E+04  1.23868E+04 -6.68689E+03  1.64485E+04 -2.31430E+04 -8.46864E+03 -8.57267E+03 -3.95783E+04
  2.51011E+04 -5.43549E+04  5.60206E+04 -2.25061E+04  5.48486E+04  2.31433E+04  1.29340E+04  4.59893E+04
 -1.84900E+04  3.53599E+04 -3.11227E+04  1.76729E+03 -1.42459E+04 -2.60868E+04  2.68002E+04 -3.43640E+04
  4.32946E+04 -1.15416E+04  3.87494E+04  2.69612E+04  2.00294E+04  4.42042E+04 -1.10946E+04  4.82095E+04
 -3.39146E+04  3.60702E+04 -4.80345E+04  3.78854E+03 -4.38788E+04 -1.89510E+04 -2.45030E+04 -3.86711E+04
  1.01202E+04 -4.22879E+04  3.34191E+04 -1.65579E+04  2.75292E+04  1.39285E+04  3.62615E+03  1.74759E+04
 -1.27220E+04  1.07957E+04 -1.74886E+04 -1.13815E+04  4.73475E+03 -1.62808E+04  2.21469E+04  4.47408E+03
  1.46820E+04  2.25235E+04 -3.20325E+03  2.71638E+04 -2.30435E+04  1.60042E+04 -3.24939E+04  3.56897E+03
 -2.79769E+04 -1.33838E+04 -7.29920E+03 -2.31083E+04  3.87348E+03 -2.90644E+04  1.90219E+04 -2.15947E+04
  2.80338E+04 -1.01472E+04  3.78857E+04  1.00813E+04  2.35371E+04  2.66114E+04 -4.55544E+03  4.39794E+04
 -2.32529E+04  3.54974E+04 -2.92553E+04  1.56760E+04 -1.92731E+04 -9.40338E+03 -1.60300E+03 -8.57997E+03
 -1.30442E+03  1.30988E+03 -1.55566E+03  1.61636E+04 -2.15283E+04  1.78906E+03 -2.19367E+04 -1.14936E+04
 -9.64491E+03 -2.80335E+04  7.80870E+03 -2.72832E+04  2.06442E+04 -2.51266E+04  1.57792E+04 -3.16316E+03
  1.33608E+04  1.35420E+04 -3.01007E+03  2.63864E+04 -1.63220E+04  8.90700E+03 -2.12184E+04 -1.19226E+03
 -1.98802E+04 -2.00294E+04  3.63508E+02 -2.66002E+04  1.68446E+04 -2.51132E+04  2.16233E+04 -1.02908E+04
  1.97116E+04  1.72433E+03  1.44140E+04  6.85607E+03  1.10630E+04  3.15183E+03  7.91876E+03 -2.23291E+01
  2.75556E+04  7.73267E+02  2.52789E+04  1.07577E+04  1.95703E+04  4.06399E+04  3.18369E+02  4.36177E+04
 -1.80621E+04  3.35196E+04 -3.04543E+04  2.34342E+04 -4.63839E+04  8.48909E+02 -3.34616E+04 -1.91575E+04
 -1.32931E+04 -3.65441E+04  9.12748E+03 -3.25373E+04  3.26605E+04 -6.73400E+03  2.80385E+04  6.93552E+03
  7.67312E+03  1.87340E+04 -4.76585E+03  1.62621E+04 -1.76376E+04  2.55429E+03 -1.31692E+04 -1.83350E+04
 -2.41050E+03 -1.98325E+04  1.63176E+04 -1.47822E+04  1.17442E+04  2.89853E+03  1.37672E+03  1.16181E+03
 -1.80146E+03  7.23510E+03 -9.53373E+03 -8.05565E+03 -1.00390E+03 -1.52121E+04  1.18356E+04 -1.64988E+04
  2.39970E+04 -5.81271E+03  2.31447E+04  1.13167E+04  2.52473E+04  2.31821E+04  9.35304E+03  3.14446E+04
 -3.85720E+03  3.63327E+04 -2.30745E+04  2.12623E+04 -2.71186E+04 -4.41248E+03 -1.84397E+04 -3.58315E+03
 -2.29283E+03 -7.68299E+03 -4.91133E+03  6.10927E+03 -5.79358E+03  8.32739E+03 -1.36597E+03  1.18008E+03
 -1.05365E+04  8.87962E+02 -1.54925E+04 -1.13827E+04 -6.80255E+03 -1.59447E+04  1.09384E+04 -8.40164E+03
  9.25008E+03 -8.92028E+02  1.08525E+04  6.20583E+03  6.56388E+03  5.70538E+03 -6.46690E+03  1.12503E+03
 -1.06487E+04 -9.12308E+03 -8.44664E+01 -2.41322E+04  6.23929E+03 -1.37608E+04  1.86096E+04 -4.90945E+03
  2.81094E+04  2.77050E+03  1.63973E+04  1.64158E+04 -3.20334E+02  2.07753E+04 -1.65943E+04  1.35587E+04
 -7.12147E+03  4.92522E+03 -6.41122E+03 -1.03623E+04  2.86372E+03 -1.58544E+03  2.19691E+02 -1.38620E+03
  5.13378E+03  7.71347E+03 -2.38695E+03  1.40149E+04 -2.02116E+04  8.82909E+03 -2.07964E+04  8.24587E+03
 -1.24673E+04 -4.92381E+03 -6.51441E+03 -1.76783E+04  1.11136E+04 -1.49356E+04  8.48351E+03 -9.27977E+02
  1.22807E+03  1.25619E+04 -5.36599E+03  3.12161E+02 -9.05789E+03  1.07060E+04 -1.92610E+04 -8.10325E+03
 -6.25660E+03 -1.79836E+04  2.00312E+03 -1.67471E+04  1.53036E+04 -2.27673E+04  1.29711E+04  3.75570E+03
  8.83346E+03  7.94289E+03 -5.97841E+03  1.87864E+04 -1.13280E+04  8.80219E+03 -1.06191E+04 -8.25447E+03
 -1.36587E+04 -7.68378E+03  5.79815E+02 -1.10786E+04  4.68095E+03 -1.27780E+04  1.32997E+04 -7.59573E+03
  2.75250E+03  6.98211E+03 -1.64796E+03  1.89321E+03  4.52642E+03  4.21773E+03 -6.12834E+03 -2.09603E+03
  1.14750E+04 -1.10303E+04  1.03276E+04  3.21426E+03  1.49730E+04  1.77452E+04  7.61253E+03  2.05473E+04
 -7.31975E+03  2.35830E+04 -1.90021E+04  1.04043E+04 -2.90335E+04  3.76227E+03 -1.89317E+04 -2.94105E+03
 -8.48283E+03 -1.57451E+04  7.58249E+02 -1.62267E+04  4.25685E+03 -2.04779E+03  3.53083E+03 -1.01078E+04
  8.77214E+03 -4.95720E+03  1.40856E+03 -6.27206E+03  7.43863E+03 -4.25600E+03  1.67830E+04 -2.74731E+01
  1.85596E+04  3.46402E+03  9.35796E+03  5.83724E+03 -5.65064E+02  6.01503E+03 -1.28837E+04  5.24620E+03
 -1.33175E+04  4.72776E+03 -5.60863E+03 -1.31602E+04 -1.74850E+03 -1.70260E+04  9.69968E+03 -1.49748E+04
  1.51979E+04 -7.17531E+03  2.30395E+04 -3.61742E+02  9.88299E+03  1.36585E+04  6.03435E+03  2.19039E+04
 -1.63132E+04  1.90352E+04 -1.20628E+04  6.29508E+03 -1.26811E+04  4.22707E+03 -7.49682E+02 -5.33579E+03
 -2.04019E+02 -4.74080E+03  1.89913E+03  3.55924E+03 -5.94328E+03 -3.13579E+03 -8.87910E+03  2.97406E+03
 -1.12166E+04 -6.77541E+03 -1.80316E+03 -1.15047E+04  1.76399E+03 -1.32269E+04  1.82976E+04  6.33803E+02
  7.37510E+03  1.22536E+04  8.47468E+03  9.43217E+03  1.25200E+03  1.66386E+04 -1.04038E+04  8.54772E+03
 -1.56858E+04 -1.83240E+03 -1.24708E+04 -5.55389E+03  3.36658E+03 -1.52252E+04  1.08724E+04 -8.29680E+03
  6.24169E+03 -6.74539E+03  4.49556E+02  6.23854E+03  7.27185E+02  2.08687E+03  3.97040E+03 -2.50211E+02
  1.60475E+03 -6.61634E+03 -7.60539E+02 -6.88256E+03  1.13653E+04  4.70195E+03  9.77111E+03  1.43802E+04
 -5.05529E+03  1.37637E+04 -1.20883E+04  1.04691E+04 -1.45086E+04  3.57733E+03 -1.76381E+04  3.26147E+02
 -1.20958E+04 -1.34326E+04  3.63376E+03 -1.92158E+04  9.49549E+03 -5.94432E+03  1.58803E+04 -5.98527E+03
  1.55475E+04  9.04445E+03  7.21253E+03  8.76060E+03 -5.93287E+03  1.71464E+03 -1.27847E+04  9.61119E+02
 -3.84424E+02 -8.11631E+03  3.78948E+03 -6.17351E+03  3.17458E+03 -7.90825E+03  1.67559E+03 -2.84159E+03
  7.05679E+03  6.32918E+03  3.43167E+02  3.48831E+03 -3.32534E+02  7.27838E+03  1.59928E+03  9.17767E+02
 -3.26102E+03  1.80620E+03  6.81731E+03  6.27523E+03 -1.52315E+03  8.64050E+03  7.10789E+03  1.24795E+04
 -1.31007E+04  9.23364E+03 -6.34171E+03  5.54767E+03 -9.35330E+03 -4.62503E+03 -5.48936E+03 -1.04296E+04
  4.98873E+03 -5.55415E+03  5.54950E+03 -1.71634E+03  5.66809E+03  7.16054E+03 -1.65648E+02  5.43874E+03
 -5.58452E+03  3.19183E+03 -7.23146E+03  1.23385E+02  7.15195E+02 -1.34014E+04  8.65864E+03 -1.51789E+04
  8.16746E+03 -2.25941E+03  5.51857E+03  2.44077E+03  3.14315E+03  9.83240E+02 -3.55474E+03  7.23533E+03
 -4.62665E+03 -3.32132E+03 -1.10963E+04 -3.55300E+03  5.14342E+03 -1.07777E+04  4.52181E+03 -9.63662E+03
  5.36193E+03  5.13196E+02  7.50545E+03  1.10335E+04  3.88353E+02  1.10997E+04 -7.62659E+03  1.22239E+04
 -1.11974E+04 -6.80945E+02 -1.93765E+03 -2.67302E+03 -9.78661E+03 -5.43497E+03 -1.12843E+03 -3.56409E+03
  1.11197E+04  2.16869E+03  5.71773E+03  3.27957E+03 -1.89487E+03  8.30726E+03 -6.27976E+03  3.58211E+03
 -2.49284E+03 -3.42241E+03 -4.87110E+03 -8.96763E+02 -4.14795E+03  1.59773E+03  4.95664E+02  1.22042E+04
 -8.74952E+01  2.64400E+03 -5.77756E+03  8.98167E+03 -7.95633E+03  2.88647E+03 -7.21885E+03 -6.55377E+02
 -2.31418E+03 -1.54549E+04  1.07033E+03 -1.01542E+04  1.27463E+04 -1.46691E+04  1.94541E+04 -6.52122E+03
  1.34082E+04  6.31109E+03  1.00280E+04  1.23522E+04  1.78168E+03  5.72340E+03 -4.35898E+03  1.02316E+04
 -5.13547E+03  3.79354E+03 -2.86655E+03  1.86706E+03 -3.83503E+03 -6.85680E+03 -7.33348E+03 -2.45905E+03
 -6.05286E+02  7.03732E+03 -1.05298E+04  1.25929E+03 -1.69673E+03  4.02554E+03 -2.13190E+03 -9.10052E+03
  7.52316E+03 -8.63943E+03  6.38346E+03 -1.43385E+03  2.02214E+03  8.32614E+01 -2.54339E+03  1.68728E+04
 -8.52397E+03  2.05370E+04 -8.76607E+03  8.32297E+03 -1.40356E+04 -5.70323E+01 -1.07187E+04 -8.54676E+03
  2.48322E+03 -9.62059E+03  1.20642E+04 -5.27298E+03  9.82752E+03 -8.44045E+02  6.53774E+03  1.43184E+03
  3.55507E+02  6.34107E+03 -1.58353E+03  5.98447E+03 -4.36396E+03 -5.97175E+03 -8.46218E+02  2.15924E+03
  7.13063E+03 -3.10541E+03  7.85796E+03  4.83372E+03  3.60071E+03  2.28943E+03  9.42018E+02  9.45369E+03
  2.42085E+02  5.11581E+03 -4.92785E+03  2.96755E+03 -3.69071E+03 -4.62697E+03 -1.36329E+02 -1.09850E+04
  1.10262E+04 -1.20814E+04  6.42344E+03 -3.49582E+02  1.13885E+04  3.81252E+03  5.80567E+03  2.72315E+03
  1.11145E+03  9.54913E+02 -9.53653E+03  7.37178E+03 -1.17043E+04  1.29248E+04  3.05097E+03  3.93992E+03
 -7.47939E+03  3.55982E+03 -2.98456E+03 -4.50858E+02 -3.85322E+03 -3.66967E+03 -4.30623E+03  2.82843E+02
 -6.27573E+03 -6.33579E+03 -1.19839E+03 -1.16266E+04  2.37419E+03 -1.04082E+04  6.00428E+03 -4.90555E+03
  7.60085E+03  5.00719E+02  1.53986E+03  7.17791E+03  1.03767E+03  5.93491E+03 -8.18166E+03  5.25120E+03
