 $NMID ID='MM_0lb_SNR50_14hz_g45_70.RAW', FMTDAT='(8E13.5)'
 TRAMP=1., VOLUME=1. $END
  3.15846E+05  2.04086E+03  3.34451E+05  2.52639E+05  8.58599E+04  3.36032E+05 -1.35618E+05  2.47822E+05
 -1.91827E+05  8.21783E+04 -1.07963E+05 -3.23070E+04  7.85043E+02 -4.94497E+04  5.46907E+04  1.16421E+03
  3.48694E+04  5.45892E+04 -1.91741E+04  7.20896E+04 -6.13945E+04  6.56506E+04 -8.43107E+04  3.30783E+04
 -7.53300E+04 -1.25970E+04 -5.91755E+04 -5.15803E+04 -1.33110E+04 -6.46773E+04  2.60926E+04 -4.29291E+04
  3.80841E+04  2.67205E+03  1.59035E+04  5.09152E+04 -3.21296E+04  4.36791E+04 -6.31304E+04  5.19967E+02
 -5.24796E+04 -5.52252E+04 -2.52244E+03 -7.94397E+04  3.54058E+04 -4.82878E+04  5.14759E+04 -1.41375E+04
  4.18551E+04  1.31238E+04  3.16082E+04  2.43347E+04  1.38743E+04  3.13335E+04 -5.90451E+03  2.63746E+04
 -1.81279E+04  1.37229E+04 -1.61169E+04 -6.57567E+03  6.39220E+03 -5.92158E+03  1.91701E+04  7.23463E+03
  1.00096E+04  3.36778E+04 -2.73645E+04  3.42561E+04 -6.77146E+04  1.70855E+03 -5.57372E+04 -4.29720E+04
 -1.52987E+04 -6.61438E+04  3.61682E+04 -4.49448E+04  5.65825E+04 -3.97583E+03  3.46808E+04  3.39414E+04
 -7.57279E+03  3.47919E+04 -2.81962E+04  1.32165E+04 -2.88833E+04 -4.56057E+03 -1.39028E+04 -1.62960E+04
 -9.20367E+03 -1.20035E+04 -2.62929E+03 -2.84091E+04  9.18610E+03 -2.31786E+04  1.50175E+04 -1.34857E+04
  1.09228E+04  8.38867E+03 -7.45670E+03  1.12464E+04 -2.29286E+04 -5.11481E+03 -5.00317E+03 -3.72114E+04
  2.06035E+04 -4.18777E+04  4.65667E+04 -2.00727E+04  4.84289E+04  1.96720E+04  1.69616E+04  4.49692E+04
 -1.81947E+04  3.39786E+04 -2.38163E+04  5.35954E+03 -7.38267E+03 -2.63591E+04  2.09491E+04 -3.39819E+04
  4.36083E+04 -7.97737E+03  3.37679E+04  2.62770E+04  1.84902E+04  4.69231E+04 -6.61375E+03  4.93850E+04
 -3.13792E+04  3.77976E+04 -3.98601E+04  9.86380E+03 -3.92073E+04 -1.39339E+04 -2.16570E+04 -3.82979E+04
  9.86631E+03 -3.49615E+04  3.52044E+04 -1.31767E+04  3.12024E+04  1.00783E+04  6.81916E+03  2.01018E+04
 -1.28519E+04  3.15937E+03 -1.17675E+04 -9.52896E+03  8.82235E+03 -1.31446E+04  1.48892E+04  6.79417E+03
  1.29320E+04  2.20061E+04 -2.69331E+03  2.07503E+04 -1.88949E+04  1.47994E+04 -2.89239E+04 -3.25176E+03
 -1.61591E+04 -1.91098E+04 -6.45468E+03 -1.89216E+04  8.34433E+02 -2.11926E+04  1.14458E+04 -2.11056E+04
  2.75248E+04 -1.62745E+04  3.27298E+04  2.63295E+03  2.39545E+04  2.09231E+04  1.25891E+03  3.95463E+04
 -1.65207E+04  2.93537E+04 -3.30154E+04  9.57127E+03 -1.77258E+04 -9.48111E+03 -8.05045E+03 -1.18885E+04
  2.70709E+03 -1.12105E+03 -5.94402E+03  6.14137E+03 -9.94767E+03  2.65502E+03 -1.99164E+04 -8.71223E+03
 -9.47701E+03 -1.39117E+04  4.80178E+03 -2.12124E+04  1.71727E+04 -2.26043E+04  8.36912E+03 -1.20058E+03
  1.41447E+04  1.19057E+04  3.71869E+03  1.75011E+04 -1.29634E+04  1.36831E+04 -1.89263E+04 -2.82568E+03
 -1.29364E+04 -2.13815E+04 -8.73772E+01 -2.17155E+04  1.23701E+04 -1.90115E+04  1.96578E+04 -7.83135E+03
  1.88574E+04 -1.62584E+03  1.15756E+04  3.62339E+03  5.70449E+03 -6.27113E+01  9.29855E+03 -3.59749E+03
  1.36660E+04 -2.36604E+02  2.03107E+04  1.28861E+04  1.17576E+04  3.26542E+04 -4.62004E+02  3.50532E+04
 -1.79329E+04  2.60427E+04 -3.39098E+04  1.59684E+04 -3.02268E+04 -4.64307E+03 -2.28911E+04 -1.77549E+04
 -1.28275E+04 -2.50712E+04  1.46383E+04 -2.53499E+04  2.68210E+04 -1.01079E+04  1.86219E+04  3.20549E+03
  5.72057E+03  1.41937E+04 -4.00063E+03  1.36733E+04 -1.37167E+04  2.06905E+03 -1.68344E+04 -8.70757E+03
 -5.48401E+03 -1.96582E+04  5.85803E+03 -7.26562E+03  6.39075E+03 -4.15707E+03 -1.97462E+01  6.45478E+03
 -5.13726E+03  2.04898E+03 -5.63998E+03 -1.93291E+03  1.34494E+03 -1.47411E+04  8.38162E+03 -1.00442E+04
  1.41522E+04 -1.00501E+04  2.06030E+04  2.40178E+02  1.46310E+04  1.35691E+04  1.21012E+04  1.97863E+04
 -2.79122E+03  1.84568E+04 -1.54977E+04  1.72568E+04 -1.18737E+04  2.73724E+03 -4.21440E+03  8.93234E+02
 -6.37358E+03 -5.43371E+03 -2.63129E+03 -4.95536E+03  2.93019E+03  2.19753E+03 -5.72081E+03  3.22316E+03
 -1.31265E+04 -3.49550E+02 -1.11600E+04 -1.13936E+04 -5.59827E+03 -1.27588E+04  2.57358E+03 -8.54409E+03
  1.03891E+04 -1.02049E+04  6.92133E+03  2.62448E+02 -7.59549E+02  1.05769E+04 -4.61087E+03 -5.25555E+03
 -6.23398E+03 -8.46073E+03 -4.14915E+03 -1.01652E+04  1.58958E+03 -1.32348E+04  1.53791E+04 -1.00308E+04
  1.22391E+04  7.21340E+01  1.33645E+04  6.02766E+03  1.44132E+03  1.04272E+04 -2.78383E+03  1.38671E+04
 -8.13754E+03  7.12205E+03 -4.76120E+03 -3.66062E+03  5.83397E+03 -3.32291E+03  9.39441E+03 -3.06507E+03
  4.34926E+03  5.48420E+02  2.24770E+03  1.04082E+04 -6.19537E+03  8.59357E+03 -1.10065E+04  1.34390E+03
 -8.09612E+03 -5.77120E+03  4.73585E+03 -9.87963E+03  5.81411E+03 -3.51080E+03  5.44965E+03  1.21016E+03
  1.81680E+03  4.89939E+03 -7.04131E+03  7.88137E+03 -2.42425E+03  2.59338E+03 -7.70775E+03 -1.91523E+02
 -4.08002E+03 -1.35961E+04  3.92039E+03 -1.56253E+04  1.25870E+04 -1.30867E+04  9.23505E+03  5.00329E+03
  7.80316E+03  9.33820E+03  2.09454E+03  1.38370E+04 -3.84748E+03  2.76266E+03 -1.20918E+04  9.29275E+02
 -8.47726E+03 -8.28598E+03 -3.97040E+02 -4.06188E+03  5.75689E+03 -7.56679E+03  9.87276E+03 -7.38542E+02
  2.89405E+03  4.19596E+03 -1.76692E+03 -1.19729E+03  2.05190E+03 -1.64830E+03  6.61022E+03 -2.84502E+03
  5.12198E+03 -5.47240E+03  8.50245E+03 -8.43585E+02  9.60948E+03  8.04950E+03  6.02532E+03  1.41541E+04
 -5.35341E+03  1.80946E+04 -8.49664E+03  1.04131E+04 -1.27786E+04 -6.30614E+02 -9.92140E+03 -3.37285E+03
 -1.12691E+04 -1.13169E+04 -4.38889E+03 -6.95890E+03 -1.73766E+03 -7.04939E+03 -8.02246E+02 -3.71474E+03
 -1.54479E+03 -1.86764E+03  5.75556E+03 -4.27969E+03  3.20917E+03 -3.30235E+03  3.77679E+03 -2.02843E+03
  9.07299E+02  4.69599E+03  4.13627E+02  3.52850E+03 -1.62916E+03  6.57113E+03 -6.62842E+03  4.54074E+03
 -1.03947E+04  2.55897E+03  2.70102E+02 -8.70820E+03  1.70872E+03 -4.85700E+03  6.71243E+03 -8.83654E+03
  7.23996E+03 -1.00557E+04  5.47808E+03  2.19202E+03  1.06230E+04  5.69698E+03  7.86708E+02  1.02437E+04
 -3.96823E+03  8.55331E+03 -2.06783E+03  3.37787E+03 -7.01885E+03 -2.32899E+03 -2.93196E+03 -2.90655E+03
  1.39977E+03 -2.11601E+02  1.76855E+03  2.30433E+03 -6.86051E+03 -7.55384E+02 -7.41046E+03 -1.02833E+03
 -1.33024E+03 -6.02641E+03  1.53987E+03 -9.47741E+03  9.82788E+03 -1.20108E+04  7.96895E+03 -2.39654E+03
  1.00740E+04  3.26438E+03  2.59024E+03  6.77672E+03 -5.09924E+03  5.18150E+03 -4.40876E+02  1.77647E+03
 -6.01366E+03 -1.62286E+03 -2.47738E+03 -5.89741E+03  4.07361E+03 -5.27560E+03  5.39216E+02 -6.84632E+03
  4.11611E+03 -1.43970E+03  2.21045E+03  3.56017E+02 -4.55952E+03  1.89058E+03 -9.27591E+00 -4.74936E+02
  3.58095E+03  1.69446E+03  1.61641E+03  4.73849E+03  3.65054E+03  3.27400E+03  4.30603E+03  3.67879E+03
 -7.43307E+02  5.13621E+03 -4.81329E+03  9.49739E+03 -2.91216E+03 -2.73255E+03 -1.32662E+04 -2.95181E+03
 -4.92815E+03 -8.75123E+03  3.09222E+03 -7.98970E+03  7.05858E+03 -1.44546E+03  5.40763E+03  2.27203E+03
  4.35714E+03  8.73337E+02  3.69826E+03  6.66281E+03  3.99004E+02  4.35178E+03 -5.09785E+03 -1.68225E+03
 -2.47789E+03 -2.86460E+03  4.92039E+03  2.31345E+03  5.79332E+03 -2.03183E+03  1.60889E+03  1.97121E+03
  8.51397E+03  3.45631E+03 -5.54342E+02 -3.61265E+03  2.03793E+03  3.01919E+02 -2.30973E+03  2.08677E+03
 -5.58265E+03  2.79375E+03  2.88458E+03 -2.08281E+03  3.95747E+03 -2.10396E+03 -3.83084E+03  4.85951E+03
 -4.70137E+03  1.86287E+03 -3.23104E+03  5.41346E+03 -1.73800E+03  8.90144E+02  1.52834E+03  2.85933E+03
 -1.13278E+03 -2.76937E+03 -1.26425E+03 -2.21094E+02 -1.78189E+03  1.25387E+03 -2.15052E+03  2.94655E+03
  1.12672E+03  3.97314E+03 -2.73374E+03 -4.97484E+03  1.89441E+03 -2.33632E+03  3.90218E+03 -3.43942E+03
  1.94834E+03 -9.54347E+02  4.65301E+03 -1.23758E+03  6.54520E+03  2.43030E+02  4.45352E+03  3.59721E+03
  4.38275E+02 -4.41132E+03 -5.72481E+03 -1.27606E+03  2.91646E+03 -6.85042E+03  4.64420E+03 -1.71529E+03
  5.10114E+02  1.04524E+03  8.99188E+02  1.67147E+03  3.04997E+03  3.54021E+03  9.92092E+01  7.43276E+03
 -6.24033E+03 -1.85047E+03 -3.65930E+02 -9.40510E+02  1.02987E+03 -4.30426E+03  1.14494E+03 -2.31425E+03
  1.99832E+03 -3.39512E+03  1.47698E+03 -9.60065E+02 -1.44729E+03 -3.15739E+03  1.68824E+03  4.62810E+03
  1.11808E+03  6.28669E+03 -3.30036E+03 -2.00719E+03  3.45167E+03  2.79877E+03 -1.10926E+03 -1.36451E+03
  1.39370E+03  3.63957E+03  2.17309E+02  2.61481E+03 -4.05777E+03 -2.57863E+03 -8.54656E+03 -2.87368E+03
 -2.51295E+03 -8.33332E+03  2.65987E+03 -9.47503E+03  6.08224E+03 -1.05864E+04  4.39902E+03 -7.52457E+02
  5.40088E+03 -1.32134E+03  3.58010E+03  9.16376E+01  3.79422E+02  5.31104E+03 -3.02257E+03  7.48051E+03
 -2.23019E+03  4.52732E+03 -3.20815E+03  2.01675E+03  2.80828E+03  8.98301E+02 -1.32626E+01 -4.35559E+03
  1.84956E+03 -4.72568E+02 -4.27754E+03 -2.38614E+03  1.65435E+03 -3.67759E+03 -3.20482E+03 -4.87698E+03
 -1.33179E+03  8.84616E+02 -2.80757E+03 -3.25061E+03  2.92571E+03  4.87027E+03 -1.41298E+03  8.63085E+03
 -1.67229E+03  5.44753E+03 -4.79230E+03 -1.06442E+02 -6.87123E+03  3.39370E+03 -9.46440E+02 -5.35411E+03
  2.72735E+03 -2.88437E+03 -2.21225E+03  5.25343E+02 -5.56849E+02 -3.12423E+03  2.77168E+03 -3.06628E+03
  3.24785E+03 -9.99724E+02  3.59050E+03 -1.14662E+03 -8.90830E+02  3.15261E+03 -6.25356E+02 -7.51371E+02
  2.95469E+03  2.84965E+03  1.89740E+03 -2.96403E+03  4.84655E+02 -1.20433E+03 -3.28963E+03  2.36443E+03
 -2.14469E+02  1.78050E+03 -5.72752E+03  5.29267E+00 -2.26083E+03 -3.04884E+03  6.92479E+01 -5.58834E+03
  1.27982E+03 -3.71832E+03  2.76355E+03 -3.18444E+02  1.91198E+03  4.78649E+03  6.53150E+03  2.88333E+03
  4.91553E+02 -6.61339E+02 -4.53247E+03 -1.65290E+03 -2.72991E+03 -2.87255E+03  2.20250E+03  8.40793E+02
 -4.09020E+03  3.30835E+02 -2.02193E+03 -4.29977E+02 -2.07658E+03  8.83298E+02 -1.62960E+03 -3.17200E+03
  3.44735E+03  6.32136E+02  7.67357E+01 -2.94518E+02 -9.85131E+02 -1.99928E+03  4.80790E+03 -3.56738E+03
  4.57056E+03 -3.47071E+03 -1.60551E+03 -3.19728E+02 -1.04726E+03  4.55219E+03 -1.83700E+03  2.30315E+03
