 $NMID ID='MM_0lb_SNR50_8hz_g45_26.RAW', FMTDAT='(8E13.5)'
 TRAMP=1., VOLUME=1. $END
  3.04905E+05  1.15006E+04  3.41208E+05  2.48657E+05  8.77650E+04  3.38058E+05 -1.30058E+05  2.54301E+05
 -1.93911E+05  8.47620E+04 -1.13582E+05 -3.41510E+04 -7.01201E+03 -5.32109E+04  4.93074E+04 -4.37006E+02
  3.03055E+04  5.29100E+04 -1.36522E+04  7.02684E+04 -6.38947E+04  6.67221E+04 -8.25561E+04  3.53682E+04
 -7.74375E+04 -1.04561E+04 -5.36704E+04 -4.66051E+04 -1.12633E+04 -7.74716E+04  2.72981E+04 -4.42705E+04
  4.16417E+04  8.07671E+03  1.77248E+04  5.21097E+04 -3.62100E+04  4.85381E+04 -6.71330E+04  2.49354E+03
 -5.44028E+04 -6.37787E+04 -1.03751E+04 -8.50631E+04  2.98751E+04 -5.82738E+04  4.59628E+04 -1.99054E+04
  4.83455E+04  8.51800E+03  3.26490E+04  2.47352E+04  1.95656E+04  2.94650E+04 -5.59138E+03  3.02695E+04
 -2.65588E+04  1.78686E+04 -2.26111E+04 -1.18302E+04  9.15403E+03 -1.03300E+04  1.77337E+04  2.05280E+04
  4.47273E+03  3.93227E+04 -3.39843E+04  3.69865E+04 -6.64734E+04 -1.74307E+03 -6.09876E+04 -4.37477E+04
 -1.18158E+04 -6.77473E+04  4.03499E+04 -4.76321E+04  5.93680E+04 -7.01804E+03  3.39274E+04  3.21207E+04
 -8.51698E+03  3.63051E+04 -3.01053E+04  2.04916E+04 -3.49488E+04 -3.42431E+03 -2.33592E+04 -1.12756E+04
 -1.10912E+04 -1.21654E+04  3.10870E+03 -2.12547E+04  8.93325E+03 -2.32727E+04  2.06820E+04 -8.08789E+03
  4.44966E+03  9.58039E+02 -7.39310E+03  1.98700E+04 -2.20541E+04 -1.31807E+04 -7.07931E+03 -4.42516E+04
  2.20307E+04 -4.80296E+04  5.02465E+04 -2.65841E+04  4.71409E+04  1.89072E+04  2.06824E+04  5.10802E+04
 -1.32904E+04  4.11151E+04 -2.82974E+04  6.95371E+03 -1.16296E+04 -2.48673E+04  1.69597E+04 -3.27830E+04
  4.19263E+04 -9.75480E+03  4.42153E+04  2.66805E+04  1.45712E+04  4.52319E+04 -1.21979E+04  5.91955E+04
 -2.99392E+04  4.28707E+04 -5.29609E+04  1.74891E+04 -4.90634E+04 -1.13041E+04 -2.29367E+04 -4.43018E+04
  8.87234E+03 -4.34233E+04  3.72843E+04 -2.02122E+04  3.49448E+04  7.40408E+03  3.23746E+03  2.03995E+04
 -1.74027E+04  1.28945E+04 -1.15667E+04 -7.03729E+03  1.43019E+03 -1.10882E+04  1.59031E+04  5.91006E+03
  1.71996E+04  2.43564E+04 -3.02352E+03  2.58974E+04 -2.35860E+04  2.11801E+04 -2.86187E+04 -8.04435E+02
 -2.34794E+04 -1.95670E+04 -1.56471E+04 -2.00681E+04  4.24507E+03 -2.57345E+04  1.79930E+04 -2.84477E+04
  3.07960E+04 -1.36388E+04  3.92942E+04  6.95123E+03  2.91085E+04  2.28093E+04  2.06044E+03  3.94773E+04
 -2.04239E+04  2.81033E+04 -3.32048E+04  1.60864E+04 -1.97343E+04 -8.52574E+03 -1.59543E+03 -1.34805E+04
  4.40044E+03  1.31807E+02 -5.76964E+03  8.05335E+03 -1.25790E+04  7.59738E+03 -2.37334E+04 -1.01093E+04
 -1.21522E+04 -2.87449E+04  6.26969E+03 -3.11667E+04  1.73082E+04 -1.26886E+04  2.41399E+04  1.26525E+03
  1.37367E+04  1.62012E+04 -5.20630E+03  2.22872E+04 -1.90985E+04  1.36134E+04 -1.99900E+04 -9.06729E+02
 -1.64635E+04 -2.18651E+04 -2.97893E+01 -3.10032E+04  1.43041E+04 -2.69974E+04  1.90334E+04 -1.49477E+04
  2.01744E+04 -3.19776E+03  1.73739E+04  1.29140E+03  9.42383E+03  7.42802E+02  1.26647E+04  5.58799E+03
  1.97799E+04 -6.77160E+02  2.24547E+04  1.59876E+04  1.46261E+04  3.71966E+04 -9.72893E+03  4.61695E+04
 -2.05920E+04  3.64304E+04 -3.79155E+04  1.47400E+04 -4.33047E+04 -1.05807E+03 -3.99395E+04 -2.58118E+04
 -2.03349E+04 -3.49878E+04  1.08795E+04 -3.68927E+04  3.16153E+04 -1.94898E+04  2.31533E+04  7.90015E+03
  5.55078E+03  1.64691E+04 -1.59043E+04  1.69560E+04 -2.34250E+04 -1.08509E+03 -2.13100E+04 -9.10332E+03
  9.11343E+02 -2.17761E+04  1.23150E+04 -3.27328E+03  1.39351E+04 -2.37098E+03  2.22299E+03  1.00717E+04
 -7.17142E+03  4.34190E+03 -7.45287E+03 -3.56491E+03 -9.51140E+02 -1.68623E+04  8.07400E+03 -2.02765E+04
  2.67142E+04 -1.09521E+04  1.89589E+04 -1.65183E+02  2.17736E+04  1.91556E+04  1.41495E+04  3.45572E+04
 -3.52774E+03  2.91315E+04 -2.26524E+04  1.85472E+04 -2.32739E+04  2.70805E+03 -1.62264E+04 -3.90919E+03
 -5.09758E+03 -1.19485E+04  5.31088E+03 -2.91227E+03 -4.66838E+03  5.23949E+03 -1.62128E+04  3.35038E+03
 -2.23248E+04 -3.46616E+03 -1.76745E+04 -1.23447E+04 -6.75768E+03 -2.18945E+04  1.04647E+04 -1.69345E+04
  1.35494E+04 -7.54694E+03  8.29525E+03 -7.99633E+02 -8.37096E+02  2.96629E+03  4.74056E+02  1.73585E+02
 -1.27811E+03 -1.39301E+04 -1.56560E+03 -1.94761E+04  9.78177E+03 -1.92649E+04  1.79413E+04 -7.26637E+03
  2.85675E+04  4.82033E+03  2.01351E+04  1.15631E+04  5.17936E+03  2.56241E+04 -6.74767E+03  1.92289E+04
 -1.49179E+04  6.43004E+03 -7.71084E+03 -5.43854E+03  1.84309E+03 -2.37041E+03  6.16554E+03 -2.90160E+03
  4.21636E+03  4.62295E+03  3.03686E+03  1.28202E+04 -1.48569E+04  1.93753E+04 -1.50880E+04  7.13414E+03
 -1.32887E+04 -5.87392E+03  2.37854E+02 -1.78518E+04  5.72949E+03 -8.03928E+02  1.11972E+04  3.47751E+03
  5.07286E+03  8.56389E+03 -1.31509E+04  7.78977E+03 -1.64052E+04  4.94988E+03 -1.53959E+04 -1.59411E+03
 -1.32541E+03 -1.65857E+04  3.40904E+03 -1.62832E+04  1.95872E+04 -1.17067E+04  1.65416E+04 -1.31084E+03
  1.05231E+04  1.18647E+04 -1.19986E+03  1.28043E+04 -8.32152E+03  1.22707E+04 -1.39025E+04  1.07474E+04
 -1.09410E+04 -1.21985E+04 -1.29009E+03 -1.18085E+04  1.45354E+04 -4.95237E+03  6.50824E+03 -2.73905E+03
  3.89705E+03  4.96984E+03 -4.94415E+03 -2.12384E+03 -3.82353E+03 -4.56113E+03  1.29249E+04 -1.89980E+03
  6.85191E+03 -4.15716E+03  1.57081E+04  4.51500E+03  1.77893E+04  1.10339E+04  1.10704E+04  2.90038E+04
 -2.81985E+03  2.71526E+04 -1.74194E+04  2.21037E+04 -3.02638E+04  7.52943E+03 -2.40881E+04 -1.29736E+04
 -1.14762E+04 -1.64476E+04 -2.04003E+03 -2.52454E+04  1.12085E+04 -6.55876E+03  1.50940E+03 -4.84288E+03
  3.74948E+03 -2.02220E+03  4.54685E+03  3.28651E+03  4.30262E+03 -4.63908E+03  4.32961E+03  4.26293E+02
  7.96308E+03 -1.69753E+03  5.41879E+03  1.40147E+04 -7.68013E+03  1.16218E+04 -1.43720E+04  1.05998E+04
 -1.61766E+04 -1.45322E+03 -8.25920E+03 -1.17247E+04 -5.93303E+02 -2.46700E+04  1.52819E+04 -1.26483E+04
  1.82764E+04 -5.69379E+03  1.60760E+04  5.78150E+03  1.44842E+04  1.39038E+04  1.99820E+03  1.46108E+04
 -1.01862E+04  1.60226E+04 -1.18159E+04 -3.08226E+02 -3.62453E+03  4.19832E+03  1.65225E+03 -8.75023E+03
 -2.91330E+03  5.55942E+03  2.48867E+03  1.28201E+04 -9.78763E+03 -1.68979E+02 -1.32711E+04  3.42031E+03
 -1.37114E+04 -1.33511E+04  5.29408E+03 -1.69533E+04  6.24270E+03 -1.16126E+04  1.97098E+04 -1.47267E+03
  1.36160E+04  1.09808E+04  1.01795E+04  1.92930E+04  1.05653E+03  1.06130E+04 -1.64256E+04  9.36076E+03
 -2.43827E+04 -2.58442E+03 -1.25112E+04 -8.39771E+03  2.52469E+03 -1.24294E+04  1.26536E+04 -1.20187E+04
  2.96426E+03 -3.31363E+03  1.17392E+04  6.78160E+03  1.02203E+03  2.70316E+03 -2.12628E+03 -3.19506E+03
  3.56417E+03  1.01704E+03  8.01769E+03  6.62341E+03  5.76629E+03  8.22100E+03 -6.66671E+02  1.56168E+04
 -1.14791E+04  1.53821E+04 -1.64115E+04  1.14606E+04 -1.61514E+04  3.58165E+03 -1.60129E+04 -1.02027E+04
 -6.74134E+03 -1.69531E+04  1.29105E+03 -1.26052E+04  1.51548E+04 -1.59120E+04  1.19021E+04  2.21509E+03
  7.29421E+03  1.05933E+04  1.19946E+03  1.22629E+04 -4.64456E+03  8.14875E+03 -9.81287E+03  1.54599E+03
 -6.90457E+03 -3.09134E+03  6.93489E+03 -9.75954E+03  7.80477E+03 -5.66516E+03  1.05968E+04  4.20417E+03
  7.00106E+03  6.57772E+03  5.64116E+03 -4.59158E+03 -3.91508E+02  5.72960E+03 -4.87164E+03 -1.23158E+02
  1.39813E+03 -5.02418E+03  2.98392E+03 -1.71537E+03  5.61495E+03  3.24769E+03  8.78896E+02  1.54998E+04
 -3.79270E+03  3.97247E+03 -1.56037E+04  1.09863E+04 -1.13122E+04  4.10462E+03 -7.87178E+03 -9.28331E+03
  2.61253E+03 -1.09572E+04  5.47233E+03 -4.72308E+03 -1.28246E+02 -8.73411E+02 -7.06613E+03  1.18372E+03
 -2.92036E+03 -4.04445E+02 -3.09822E+03 -5.59397E+03  1.27314E+02 -6.22613E+03 -9.77984E+02 -1.04471E+04
  1.08281E+04 -5.11481E+03  7.04285E+03 -1.31795E+03  9.20677E+02  7.49816E+02 -8.50847E+03  6.66873E+03
 -8.15653E+03 -1.38381E+02  4.48164E+02 -1.10748E+04  3.61944E+03 -6.41651E+03  9.85189E+03 -2.03390E+03
  1.28198E+04  4.18318E+03  1.88138E+04  3.33062E+03  8.27966E+00  7.17504E+03 -6.57633E+03  5.13095E+03
 -6.79016E+03  9.78154E+03 -1.20417E+04  3.79651E+03 -5.47848E+03 -1.26277E+04 -8.99774E+02 -2.09842E+03
 -2.31532E+03 -6.46466E+03  1.07097E+04  4.24366E+03 -4.72785E+03  7.18597E+03  1.00552E+03  1.14249E+04
 -2.84613E+03 -2.60207E+02 -7.95546E+03  1.86080E+03 -1.35732E+03 -6.59460E+03 -5.29478E+03 -3.02704E+03
 -2.16173E+03  3.18690E+03 -1.26687E+04  4.07044E+03 -1.07837E+04  2.49997E+03 -1.49059E+04  2.90986E+03
 -7.56699E+03 -1.30483E+04  4.64162E+03 -1.84616E+04  5.50570E+03 -1.73747E+04  1.62780E+04 -2.92760E+03
  2.33053E+04  4.13768E+03  7.72351E+03  1.05185E+04 -2.59172E+03  8.67227E+03 -4.82274E+03  9.80904E+03
  3.06711E+03  1.54642E+03 -9.15294E+03 -5.98335E+02 -4.44077E+03  6.61279E+02 -7.95942E+02 -5.69676E+03
  7.61886E+02  5.76203E+02  1.56717E+02  8.51899E+03  4.28279E+03 -9.65077E+02  1.83832E+03 -5.09708E+00
  8.36064E+03 -8.20072E+03  1.25328E+04  2.89295E+03  1.34649E+04  3.64629E+03  5.04960E+03  9.43342E+03
 -7.47661E+03  1.99737E+04 -1.38089E+04  9.43228E+03 -1.63815E+04 -3.93972E+03 -1.39605E+04 -9.07491E+03
 -4.91922E+03 -1.91734E+04  9.80824E+03 -1.90349E+04  9.89665E+03 -8.75327E+03  1.21867E+04 -2.78416E+03
  1.86758E+03  6.80837E+02 -4.39358E+03  4.13389E+03 -1.78211E+02  6.10773E+03 -6.72172E+03 -8.50818E+02
  5.95635E+03 -3.25822E+01  2.61106E+03 -1.80556E+03  3.50101E+03  6.90007E+03 -5.77011E+03  5.79315E+03
 -6.79269E+02  3.49305E+03 -9.65464E+03 -2.03457E+03 -1.82890E+04 -6.00354E+03  4.64736E+02 -1.26696E+04
  7.28732E+03 -9.42348E+03  8.85715E+03 -1.57738E+03  1.42970E+04 -3.05766E+03  1.60784E+04  5.65597E+03
 -1.39265E+03  9.26392E+03 -2.96659E+03  4.30991E+03 -2.81481E+03  3.62591E+03  2.02260E+03  1.25886E+01
  1.90323E+03  2.82022E+03  9.02133E+03 -3.08994E+03  1.84744E+03  1.05870E+04 -1.31699E+04 -4.45900E+02
 -6.67316E+03 -4.27880E+03  6.03202E+03 -7.20793E+03 -4.40531E+03 -1.60624E+04  7.16759E+03 -5.91711E+03
  1.19121E+03  4.32770E+02  7.09333E+03  6.15925E+03 -1.71063E+03  6.40084E+03 -1.13657E+03  8.70756E+03
