 $NMID ID='MM_0lb_SNR50_8hz_g55_20.RAW', FMTDAT='(8E13.5)'
 TRAMP=1., VOLUME=1. $END
  3.14614E+05  5.82463E+03  3.35499E+05  2.54247E+05  8.30618E+04  3.36339E+05 -1.32342E+05  2.51502E+05
 -1.85916E+05  8.48322E+04 -1.06433E+05 -4.05454E+04  1.18963E+03 -4.70588E+04  5.10876E+04  5.05959E+02
  3.97503E+04  5.32590E+04 -1.63658E+04  8.00537E+04 -6.16895E+04  6.27932E+04 -8.84427E+04  3.56941E+04
 -7.90264E+04 -1.37993E+04 -6.15430E+04 -5.34698E+04 -1.58950E+04 -6.76114E+04  3.41480E+04 -5.40908E+04
  4.36274E+04  2.48245E+03  2.00441E+04  5.23760E+04 -3.01499E+04  5.09534E+04 -6.86897E+04  3.38450E+03
 -6.01736E+04 -5.08586E+04 -7.37146E+03 -8.37241E+04  4.05972E+04 -5.93396E+04  4.80046E+04 -1.52713E+04
  4.34717E+04  1.11454E+04  3.55905E+04  3.05225E+04  9.81279E+03  3.06532E+04 -4.63203E+02  2.89920E+04
 -2.34304E+04  1.83679E+04 -2.12870E+04 -5.65540E+02  1.09472E+04 -6.02893E+03  2.56471E+04  1.31327E+04
  9.71415E+03  3.46063E+04 -3.26136E+04  3.60665E+04 -6.70894E+04  3.88512E+03 -6.00536E+04 -5.10991E+04
 -1.01453E+04 -7.50150E+04  3.94049E+04 -4.03388E+04  5.94098E+04  2.87142E+01  3.65859E+04  3.21585E+04
 -3.29167E+03  4.05338E+04 -3.49824E+04  1.84344E+04 -3.62737E+04 -1.09369E+04 -2.72293E+04 -1.56601E+04
 -1.42513E+04 -1.52807E+04 -4.98555E+03 -2.15297E+04  1.26392E+04 -2.81630E+04  2.01214E+04 -8.22727E+03
  9.64791E+03  1.02643E+04 -8.87718E+03  1.32771E+04 -2.03706E+04  5.56532E+02 -1.27714E+04 -3.89034E+04
  2.99966E+04 -5.06205E+04  4.63732E+04 -2.98719E+04  4.91235E+04  2.37674E+04  1.58612E+04  4.76933E+04
 -1.33652E+04  3.70044E+04 -2.53922E+04  2.78930E+03 -1.48845E+04 -2.95183E+04  2.28550E+04 -4.12682E+04
  4.65277E+04 -1.02636E+04  4.37635E+04  3.21242E+04  1.71832E+04  5.16979E+04 -1.26391E+04  5.69612E+04
 -3.89980E+04  4.12171E+04 -4.40952E+04  1.04700E+04 -5.05841E+04 -1.80174E+04 -2.12907E+04 -4.34361E+04
  3.01936E+03 -5.00949E+04  3.58647E+04 -1.03429E+04  3.80310E+04  1.36813E+04  3.09632E+03  1.92423E+04
 -1.75508E+04  9.01500E+03 -7.72109E+03 -1.33903E+04  1.47545E+04 -1.39245E+04  1.52891E+04  8.69045E+02
  1.49153E+04  2.25987E+04 -5.85292E+03  2.76839E+04 -2.52548E+04  1.17801E+04 -3.52477E+04  4.50825E+03
 -2.28761E+04 -2.01856E+04 -6.10382E+03 -2.91055E+04  7.24127E+03 -2.76413E+04  2.50441E+04 -2.17870E+04
  3.62170E+04 -8.92446E+03  3.87659E+04  8.55576E+03  2.96844E+04  2.60485E+04 -5.59081E+03  4.21604E+04
 -2.96693E+04  3.45106E+04 -3.10658E+04  1.45407E+04 -2.02904E+04 -1.04132E+04 -4.85955E+02 -1.47634E+03
  4.85924E+03 -4.71810E+03 -1.18400E+04  9.63845E+03 -2.23809E+04 -3.54926E+02 -1.90613E+04 -6.30781E+03
 -1.18405E+04 -2.20501E+04  1.28931E+04 -3.53855E+04  2.53309E+04 -2.37419E+04  2.23091E+04 -8.81993E+03
  1.34796E+04  1.44295E+04 -7.40087E+03  2.68257E+04 -1.61879E+04  1.57760E+04 -1.65600E+04  5.91743E+02
 -1.90177E+04 -1.79555E+04 -5.41295E+02 -2.77434E+04  1.28984E+04 -2.22257E+04  2.37063E+04 -1.21833E+04
  1.67090E+04 -3.67011E+03  1.35812E+04  1.87803E+03  1.34030E+04 -6.14875E+02  1.54442E+04 -2.87351E+03
  2.65470E+04 -9.25522E+03  3.09621E+04  1.32216E+04  1.49122E+04  4.07479E+04 -6.88929E+02  4.72311E+04
 -3.11071E+04  4.18515E+04 -3.85346E+04  1.31660E+04 -4.45465E+04 -9.30060E+03 -4.25619E+04 -2.86492E+04
 -1.43832E+04 -4.34575E+04  1.56893E+04 -3.41491E+04  3.72935E+04 -1.56391E+04  2.39627E+04  6.55358E+03
  9.49835E+03  1.86560E+04 -1.60543E+04  1.55471E+04 -2.11638E+04  6.27578E+03 -2.12784E+04 -9.44442E+03
  8.54366E+02 -2.89651E+04  1.02385E+04 -1.73631E+04  1.08579E+04 -3.30960E+03  7.57312E+03  7.13312E+03
 -1.17796E+04  4.38626E+03 -2.42548E+03 -1.02021E+04 -9.92391E+01 -1.73023E+04  3.99664E+03 -2.17035E+04
  2.51507E+04 -1.34938E+04  3.11287E+04  4.19604E+03  2.69188E+04  2.06193E+04  1.31331E+04  3.08635E+04
  4.98638E+03  3.53671E+04 -2.15904E+04  1.41373E+04 -3.03191E+04 -2.64944E+02 -1.06474E+04 -3.46544E+02
 -5.03466E+03 -8.12951E+03 -3.80577E+03 -6.10129E+03 -4.28497E+03  8.70479E+03 -1.54270E+04  7.11203E+03
 -1.20076E+04  3.26730E+03 -1.09143E+04 -1.28925E+04 -7.79425E+03 -2.09459E+04  8.86834E+03 -2.33488E+04
  1.32929E+04 -4.19918E+03  1.64857E+04  3.47730E+03 -1.89364E+03  6.11888E+03 -6.64523E+03  6.57501E+02
 -8.98880E+03 -1.48634E+04  4.30602E+03 -1.98658E+04  5.56192E+03 -1.87098E+04  1.74407E+04 -6.40734E+03
  2.11847E+04  5.69491E+03  1.53534E+04  2.01103E+04  4.00088E+03  1.49191E+04 -5.34556E+03  1.78384E+04
 -1.51484E+04  3.93906E+03 -8.42900E+03 -7.83710E+03  4.19741E+03 -2.98691E+03  1.10341E+04 -6.71569E+03
  5.03062E+03  1.23797E+04 -1.60917E+03  1.24626E+04 -1.05792E+04  1.32810E+04 -1.68109E+04  5.85791E+03
 -1.29317E+04 -1.16441E+04  7.89286E+03 -7.79167E+03  5.25991E+03 -1.02792E+04  7.77321E+03  4.41362E+03
  2.92086E+03  1.54776E+04 -1.04098E+04  1.07698E+04 -1.67928E+04 -4.75604E+03 -1.94482E+04 -4.47827E+03
 -1.30430E+04 -1.64026E+04  9.61991E+03 -2.82729E+04  1.97690E+04 -1.50391E+04  2.52566E+04  2.02884E+03
  1.57517E+04  2.58944E+04  2.61970E+03  2.60728E+04 -1.33685E+03  1.58082E+04 -1.35216E+04  6.27600E+02
 -1.53947E+04 -6.59820E+03 -7.15930E+03 -1.83842E+04  8.56359E+03 -6.78848E+03  1.27576E+04  1.33141E+03
  1.32055E+03  8.00790E+03 -2.53931E+03 -4.86702E+03 -6.60568E+03 -3.51285E+02  3.08279E+03 -1.08940E+04
  1.03397E+04 -5.62195E+03  1.83712E+04 -4.56081E+03  2.14715E+04  1.40402E+04  8.76128E+03  2.87734E+04
 -5.50597E+03  2.95133E+04 -1.79149E+04  1.97003E+04 -2.83017E+04 -2.30747E+03 -2.59242E+04 -1.01860E+04
 -1.02172E+04 -1.87056E+04  3.10158E+03 -1.16512E+04  7.18938E+03 -1.28594E+04  3.86388E+03 -6.67648E+03
  1.05252E+04 -2.74080E+03 -9.04974E+02 -1.78973E+03  5.98492E+03 -2.79647E+03  6.95556E+03 -7.77600E+03
  7.98568E+03 -9.81080E+01  1.54160E+04  1.11531E+04  4.25890E+03  1.15243E+04 -1.50644E+04  1.07591E+04
 -1.44969E+04 -8.24369E+03 -1.35598E+04 -1.18885E+04 -1.29095E+02 -1.31708E+04  1.25863E+04 -1.94624E+04
  2.42124E+04 -1.58335E+04  2.39840E+04  2.28503E+03  9.41251E+03  2.31562E+04  2.09365E+03  2.35156E+04
 -5.53471E+03  1.38594E+04 -1.55772E+04  8.51328E+03 -8.37322E+03  2.22769E+03 -4.03075E+03 -1.11263E+03
 -6.82771E+03  7.08704E+03  1.20414E+03 -1.71917E+03 -6.58952E+03  4.13732E+03 -1.05856E+04 -5.93031E+03
 -1.02967E+04 -1.06596E+04  2.20911E+02 -1.33911E+04  1.41435E+04 -2.16805E+04  1.81099E+04 -7.57395E+03
  1.83655E+04  1.05885E+04  3.38558E+03  1.95729E+04 -1.40653E+03  1.91115E+04 -2.17721E+04  7.72849E+03
 -1.96792E+04  5.88954E+03 -1.57479E+04 -1.03292E+04  1.07320E+03 -1.21211E+04  2.71769E+03 -1.31267E+04
  1.26186E+04 -3.86880E+03  1.78645E+04  3.70486E+03 -2.74448E+01  9.45824E+03  6.31366E+03 -1.68587E+03
 -1.15094E+03 -7.09728E+02  8.05192E+03  2.35748E+03  8.15798E+03  2.64042E+03  6.06016E+03  6.58292E+03
 -7.69845E+03  8.59489E+03 -1.33623E+04  1.68450E+04 -1.21377E+04 -2.41326E+03 -1.97822E+04 -1.26784E+04
 -4.72351E+03 -2.28797E+04 -1.04614E+03 -1.90638E+04  9.57504E+03 -1.57438E+04  1.47272E+04 -8.74261E+03
  1.30506E+04  4.66162E+03  5.18478E+03  1.26719E+04 -4.73374E+03  7.98367E+03 -2.95568E+03  3.89279E+03
  5.75878E+02 -9.46941E+03  8.16849E+03 -1.02041E+04  8.86546E+03 -8.14161E+03  6.51443E+03  3.09457E+03
 -5.60302E+03  1.56229E+03  7.60846E+03  1.84312E+03  2.77891E+03  4.23247E+03  1.67063E+03  6.38031E+02
  7.66249E+03 -4.83987E+03  1.22856E+02  9.25149E+03  1.04519E+04  7.89857E+03  6.36768E+03  1.63093E+04
 -8.25409E+03  8.87365E+03 -1.05230E+04  2.50389E+03 -1.40455E+04 -4.22608E+03 -4.15059E+03 -5.01227E+03
  1.46480E+03 -6.48661E+03 -5.90134E+02 -5.31154E+03  4.27490E+03  6.65069E+03 -1.97827E+03  5.01854E+03
 -1.45139E+03  4.77778E+03 -9.98288E+03 -8.77891E+03 -2.90478E+03 -1.34189E+04  3.39230E+03 -1.25672E+04
  8.50996E+03 -2.13561E+03  5.32864E+03  7.93412E+01  5.16487E+03  2.21291E+03 -4.54963E+03  2.33197E+03
 -8.22794E+03 -3.41042E+02 -1.36142E+04 -7.61756E+03  4.00183E+03 -8.63715E+03  6.61336E+03 -3.90177E+03
  1.07319E+04 -6.25550E+02  7.80445E+03  7.17881E+03  4.00635E+03  1.34147E+04 -5.35158E+03  1.38727E+04
 -1.54737E+04  6.20882E+03 -1.65822E+04 -9.26508E+03 -4.65887E+03 -1.28287E+03  1.57286E+03 -1.30583E+04
  9.03774E+03 -5.31827E+02  7.07183E+03 -2.12963E+02 -1.35929E+03  2.29704E+03  4.20614E+03  8.85424E+03
 -3.37161E+03  2.31237E+03 -4.86524E+02 -6.11261E+03  1.10016E+03 -5.74060E+03 -1.61410E+02  1.13161E+03
 -8.59125E+03 -1.21661E+03 -1.25542E+04  3.97024E+03 -9.53029E+03 -8.24666E+02 -2.11711E+04 -9.44238E+03
 -6.80826E+03 -1.69812E+04  4.83433E+03 -1.90825E+04  1.26608E+04 -9.09683E+03  1.50149E+04 -5.02950E+03
  1.79975E+04  3.80539E+03  1.25612E+04  1.16077E+04 -3.19735E+03  1.29550E+04 -1.25884E+03  1.24636E+04
 -4.70181E+03  3.22070E+03 -9.03590E+03  1.44198E+03  4.90251E+03 -1.54898E+03 -2.04667E+03  8.48852E+02
  4.68753E+03  2.35356E+02 -5.71708E+03 -7.00758E+03 -3.95722E+03 -2.95672E+03  3.92686E+03 -5.62543E+03
  2.96632E+03 -7.97303E+03  5.67340E+03  2.17427E+03  5.13264E+03  8.44867E+03  2.17455E+03  1.43827E+04
 -1.01591E+04  1.65700E+04 -1.38941E+04  1.06279E+04 -2.02773E+04  4.01412E+03 -1.17009E+04 -1.41710E+04
 -1.25091E+04 -1.38334E+04  7.20239E+03 -1.07742E+04  6.53694E+03 -8.90573E+03  8.35635E+03  4.30325E+03
  2.13811E+03  7.52606E+03 -1.92906E+03  4.78922E+03  3.13855E+03  3.19218E+03 -1.09553E+03 -1.09843E+04
  1.04710E+04 -5.20562E+03  6.35028E+03  3.05821E+03  1.10534E+04  1.71697E+03 -2.85964E+03  1.24278E+04
 -8.34061E+03  1.09172E+04 -1.80948E+04  3.37798E+03 -5.29633E+03 -5.54573E+03 -2.96237E+02 -9.82144E+03
  1.31285E+04 -1.07781E+04  9.81589E+03 -1.43504E+03  5.26305E+03 -3.40523E+03  1.75738E+01  1.07219E+04
  2.10190E+03  9.78738E+03 -2.52143E+03  6.82162E+03 -7.96485E+03  4.45716E+03 -1.43661E+03 -2.10726E+03
 -2.13131E+03 -3.52951E+03  9.44441E+02  3.67039E+03 -1.18815E+04 -1.04914E+03 -7.14188E+03  2.15931E+03
 -1.91388E+03 -2.39080E+03 -1.54473E+02 -1.59908E+04  3.43810E+03 -1.57431E+04  3.34783E+03 -3.43286E+03
  7.54053E+03  8.19337E+02  9.20762E+03  5.24731E+03  1.26411E+03  9.38117E+03 -6.98563E+03  4.23546E+03
