 $NMID ID='MM_0lb_SNR50_14hz_g40_14.RAW', FMTDAT='(8E13.5)'
 TRAMP=1., VOLUME=1. $END
  3.06283E+05 -1.86243E+03  3.39005E+05  2.49943E+05  8.35078E+04  3.41276E+05 -1.35250E+05  2.53239E+05
 -1.95308E+05  8.23926E+04 -1.10028E+05 -3.16567E+04  4.94188E+03 -5.13448E+04  5.26027E+04 -4.40022E+03
  3.52280E+04  4.93989E+04 -1.93533E+04  7.61381E+04 -6.03139E+04  6.72205E+04 -8.47988E+04  2.68551E+04
 -7.80943E+04 -1.42224E+04 -5.90291E+04 -5.21268E+04 -1.63516E+04 -7.18418E+04  2.51226E+04 -4.31674E+04
  4.01236E+04  2.88423E+03  1.44885E+04  4.55909E+04 -3.68802E+04  4.62558E+04 -6.84636E+04 -1.17038E+03
 -4.95255E+04 -5.89782E+04 -2.78858E+03 -8.05686E+04  3.14773E+04 -5.81075E+04  4.68184E+04 -1.45749E+04
  3.80568E+04  5.07633E+03  2.78684E+04  2.54930E+04  1.68094E+04  3.05927E+04 -2.99126E+03  2.57091E+04
 -1.82647E+04  1.25582E+04 -1.58824E+04 -3.27693E+03  7.49422E+03 -1.00862E+04  1.98344E+04  1.06770E+04
  8.76228E+03  3.72281E+04 -2.96783E+04  3.19906E+04 -6.14707E+04  4.55596E+03 -5.26032E+04 -4.77815E+04
 -1.48552E+04 -6.47890E+04  3.62204E+04 -4.38405E+04  5.32178E+04 -3.38757E+03  3.37092E+04  2.92058E+04
 -7.93341E+03  3.79235E+04 -2.89537E+04  1.68561E+04 -3.15203E+04 -9.08734E+03 -1.61483E+04 -9.46722E+03
 -1.05184E+04 -9.71842E+03 -1.38845E+03 -1.98661E+04  9.91214E+03 -2.43398E+04  1.41261E+04 -1.72718E+04
  1.41186E+04  6.35626E+03 -9.21739E+03  1.32571E+04 -1.95639E+04  1.92406E+03 -9.01615E+03 -3.16284E+04
  2.48730E+04 -4.15096E+04  4.92840E+04 -1.66345E+04  4.68522E+04  2.38885E+04  1.02470E+04  4.64716E+04
 -1.14351E+04  3.61063E+04 -2.75867E+04 -2.35839E+03 -6.93085E+03 -3.03797E+04  2.72731E+04 -3.43458E+04
  4.17804E+04 -8.56515E+03  3.37408E+04  2.25805E+04  1.79325E+04  4.73371E+04 -6.35260E+03  4.79340E+04
 -3.25885E+04  3.09353E+04 -3.73699E+04  8.87795E+03 -4.14591E+04 -2.01965E+04 -1.90196E+04 -4.10231E+04
  3.36408E+03 -3.77318E+04  3.03701E+04 -1.38824E+04  2.68152E+04  9.31285E+03 -4.45240E+03  1.89669E+04
 -1.75828E+04  9.82045E+03 -9.06327E+03 -8.46289E+03  9.89744E+03 -9.54379E+03  2.25813E+04  9.23259E+03
  1.26102E+04  1.92081E+04 -3.56898E+03  2.56767E+04 -2.15555E+04  1.30372E+04 -2.99047E+04 -3.35320E+03
 -2.08384E+04 -1.32434E+04 -9.23962E+03 -1.84960E+04  3.01413E+03 -2.00802E+04  1.37552E+04 -2.07692E+04
  2.57656E+04 -1.67493E+04  3.13487E+04  2.44281E+03  2.66002E+04  1.82992E+04  6.53370E+03  3.31312E+04
 -1.79651E+04  3.22595E+04 -2.74637E+04  1.26551E+04 -2.35849E+04 -1.39969E+04 -1.33464E+03 -1.53618E+04
  4.17968E+03 -8.88153E+02 -4.73996E+03  3.04749E+03 -1.07225E+04  8.18257E+03 -1.33963E+04 -1.17435E+04
 -7.13322E+03 -1.81400E+04  6.26570E+03 -1.70964E+04  1.30936E+04 -1.33507E+04  1.54890E+04 -1.18385E+03
  9.74166E+03  1.41144E+04  3.69155E+01  1.99108E+04 -1.18057E+04  6.34087E+03 -8.61070E+03 -6.23688E+03
 -1.41255E+04 -1.84124E+04 -7.37696E+02 -2.34132E+04  8.15184E+03 -1.62876E+04  1.65139E+04 -6.86293E+03
  1.26302E+04  4.39310E+01  1.39420E+04  6.05307E+03  9.77259E+03  4.62874E+03  4.78702E+03  1.18826E+03
  1.81276E+04  4.36809E+03  1.42389E+04  1.29904E+04  9.50902E+03  3.00155E+04 -1.57299E+03  3.65663E+04
 -1.68796E+04  2.41757E+04 -3.27269E+04  1.51787E+04 -3.06621E+04 -6.13033E+01 -2.89208E+04 -2.16949E+04
 -1.53209E+04 -2.35423E+04  1.05285E+04 -2.41637E+04  2.03318E+04 -1.38545E+04  2.10080E+04  1.56815E+03
  9.24585E+03  7.85567E+03 -1.18083E+04  1.71967E+04 -1.60071E+04  7.69356E+03 -1.16578E+04 -5.23225E+03
 -8.89123E+02 -1.23132E+04  4.68580E+03 -1.51678E+04  1.36518E+04 -5.48405E+02 -6.71352E+03  6.13281E+03
 -1.97601E+03  3.83105E+03 -7.94688E+03 -3.40610E+03  2.50995E+03 -1.54727E+04  1.23480E+04 -1.65083E+04
  1.44647E+04 -1.01218E+04  1.84645E+04  4.54140E+02  1.49294E+04  1.30963E+04  9.66979E+03  2.06033E+04
  7.35933E+02  1.97680E+04 -7.80854E+03  1.26960E+04 -1.61473E+04  9.69887E+02 -8.60720E+03 -1.95467E+03
 -7.51796E+03 -3.95071E+03 -4.31815E+03 -1.16368E+03 -2.40540E+03  1.76248E+03 -8.13481E+03  2.56409E+03
 -9.53940E+03  1.23585E+03 -1.09064E+04 -5.86878E+03 -3.50877E+03 -1.18053E+04  4.11996E+03 -8.29409E+03
  7.86570E+03 -4.65365E+03  6.16326E+03  1.87996E+03 -4.59946E+03  5.25492E+03 -3.22262E+03 -1.95519E+02
 -7.71259E+03 -8.13159E+03 -1.13606E+03 -8.93352E+03  5.18420E+03 -1.14186E+04  1.25762E+04 -9.28864E+03
  2.02319E+04  4.64785E+03  6.35069E+03  1.02197E+04 -5.69740E+02  1.65603E+04 -7.84307E+03  5.43369E+03
 -9.52956E+03  4.44060E+03 -5.38061E+03 -4.07868E+03  3.88265E+03 -5.25465E+03  1.34372E+03  4.60925E+02
  5.96116E+03  6.35375E+03  2.78494E+03  1.31214E+04 -6.35358E+03  7.08486E+03 -1.37442E+04  6.63908E+03
 -5.89041E+03 -3.91414E+03 -3.31401E+03 -9.20198E+03  3.04101E+03 -5.85830E+03 -1.28837E+01 -2.79128E+03
  1.51665E+03  3.32839E+03 -4.41867E+03  2.91595E+03 -5.58637E+03 -4.45293E+02 -1.11410E+04  6.06579E+03
 -7.85237E+03 -6.76529E+03  2.71782E+03 -6.40379E+03  9.58359E+03 -4.73599E+03  9.50850E+03  4.95607E+03
  1.13859E+04  1.16994E+04  4.88089E+03  3.38377E+03 -7.05160E+03  7.54733E+03 -5.07702E+03  4.50543E+03
 -6.45091E+03 -9.43004E+03  1.35124E+03 -6.28014E+03  1.22528E+02 -3.99172E+03  5.30817E+03 -7.52609E+03
  2.64358E+03 -1.33742E+03  5.18503E+03 -2.36093E+03  2.66779E+03 -1.73415E+03  1.23901E+03 -9.41937E+02
  9.78458E+03 -3.94064E+03  3.52088E+03 -4.78252E+03  1.20426E+04  3.85659E+03  5.92065E+03  1.01474E+04
  3.37578E+03  1.46656E+04 -1.19568E+04  7.11045E+03 -1.39364E+04  3.00661E+03 -1.10932E+04 -1.00783E+04
 -4.48431E+03 -1.40724E+04 -1.20832E+03 -9.55085E+03  3.12744E+03 -9.45194E+03  6.72967E+03 -2.04343E+03
  7.72265E+03  3.44143E+03 -1.22332E+03 -3.75266E+03  2.81345E+03 -2.94897E+03  9.38335E+03  2.59769E+03
  8.19789E+03  8.95650E+02 -7.33688E+01  7.41847E+03 -4.39398E+03  8.48431E+03 -6.23334E+03  4.34233E+03
 -7.33573E+03 -1.32669E+03 -3.17891E+03 -4.73629E+03 -1.06172E+03 -1.19391E+04  7.60692E+03 -9.78093E+03
  8.79660E+03 -3.40520E+03  1.07382E+04  1.95748E+03  9.93239E+03  8.28032E+03  1.42904E+02  7.65275E+03
 -2.25205E+03  3.81856E+03 -7.90486E+03  2.93902E+03 -1.68700E+03 -2.42490E+03  2.03906E+03  2.91956E+02
 -1.20482E+03  3.30623E+03  1.74953E+03  2.53803E+03 -2.13510E+03  1.26851E+03 -3.42384E+03  4.45649E+03
  3.10657E+03 -7.26945E+03 -2.98346E+03 -4.28697E+03  6.63399E+03 -8.26711E+03  9.43489E+03  2.43184E+03
  8.80133E+03  2.65644E+03  9.26643E+02  7.94027E+03 -1.94323E+03  1.04724E+04 -2.20199E+03  9.01379E+03
 -5.62452E+03 -4.57858E+02 -7.75309E+03 -3.04028E+03  2.44785E+03 -8.51186E+03  1.93775E+03 -5.06828E+03
  1.76083E+03  2.99285E+02  3.42341E+03  8.02418E+02 -1.25238E+03 -1.42207E+03 -4.62848E+01  4.95623E+03
  1.69323E+03  3.37412E+03 -1.37537E+02  1.33821E+03 -3.59938E+01  1.91552E+03  1.29509E+03  2.71623E+03
  2.90100E+03 -1.24614E+03 -3.24874E+03  6.91291E+03 -4.44513E+03 -3.91030E+03 -7.27358E+03 -1.90337E+03
 -4.16145E+03 -7.01155E+03  2.96394E+03 -8.67865E+03  5.89198E+03 -7.54977E+02  8.79616E+03 -6.54788E+03
  6.59699E+03  1.83470E+03  7.58261E+02  6.97164E+03 -3.29321E+03 -2.93512E+03 -3.67790E+03 -3.25968E+02
  3.78371E+02  1.11988E+02  6.77614E+03 -2.64358E+03  1.66304E+03 -3.19939E+03  5.49755E+03  2.31176E+03
 -1.64982E+03 -4.94873E+02 -8.32534E+02  3.67237E+03 -4.49216E+03  3.36447E+03  6.72973E+02  2.30757E+03
  2.43924E+03 -4.63357E+02  2.21429E+03  8.48605E+02 -2.04310E+03  6.11586E+03  6.88620E+02  1.02390E+03
 -3.57066E+03  2.67407E+03 -6.97572E+03  3.18306E+00 -4.33323E+03 -2.92576E+03 -2.12956E+03 -5.48903E+03
 -2.42042E+03  2.59858E+03  9.47701E+02  2.03402E+02  3.25942E+02  4.93714E+03 -1.29475E+03  2.78772E+03
  2.16388E+03  3.12621E+03 -2.07085E+03 -1.96628E+03  1.87392E+03 -6.52274E+03  9.45612E+02 -3.56715E+03
  1.99339E+03  2.02148E+03  5.51051E+03 -1.46969E+03 -3.24189E+03 -8.03138E+02 -1.04722E+02 -2.05594E+03
 -2.75636E+03  1.81419E+03 -2.15004E+03 -5.38774E+03 -1.25024E+03  3.75723E+03  1.82611E+03  2.80468E+03
  1.45984E+03  3.67212E+03  2.08713E+03 -6.23873E+00 -1.69107E+03  4.33363E+03 -3.95426E+02  2.07038E+02
 -7.10568E+03 -9.84848E+02 -5.77591E+03 -9.45598E+02 -3.60982E+03 -6.15893E+03 -1.84383E+03 -1.38989E+03
  8.05694E+03 -5.70586E+03  4.15548E+03  2.03082E+03  4.46849E+03  5.89919E+03  1.94580E+03  4.09962E+03
 -5.87930E+03 -1.96195E+01 -1.85460E+03 -2.23148E+03  8.12334E+02 -5.33099E+02 -2.00989E+03 -8.57169E+02
 -1.53850E+03  5.36287E+03 -7.10509E+03 -2.64237E+03 -3.53509E+02  4.33740E+03 -5.63362E+03 -3.46676E+03
 -3.17576E+03 -5.06087E+03 -1.25903E+03 -7.18200E+03  2.05688E+03 -5.38461E+03  7.40792E+03 -3.42469E+03
  2.20465E+03 -2.41595E+03  4.51091E+03 -4.37701E+03 -1.44125E+03  5.02869E+03 -6.05840E+03  4.50338E+03
  2.32388E+03  2.66631E+03 -5.01067E+03 -2.02993E+03  4.84288E+03 -2.42989E+03  2.27194E+03 -1.22323E+03
 -6.08775E+03  3.82984E+02 -3.78263E+03  8.12722E+02  2.24149E+02 -2.25386E+03 -1.60463E+03 -8.00976E+03
  4.09851E+03  7.23518E+02  6.47633E+02  5.53149E+03  2.96110E+03  2.30673E+03  6.50764E+03  9.23847E+02
  1.75598E+03  4.95775E+03 -3.76293E+03  1.46335E+03 -3.33209E+03 -4.51273E+03 -5.64663E+03 -2.98102E+03
  2.42442E+03 -1.67457E+03  1.20445E+03 -1.49240E+03  4.71146E+01 -2.79896E+03  8.40338E+02  2.72429E+03
 -1.56918E+03  4.40827E+03  2.07060E+03  6.53359E+02  2.97138E+03 -1.54525E+03 -2.65616E+03 -1.79613E+03
 -1.35494E+02 -4.14235E+02  1.83158E+03  3.92816E+03  1.56792E+03  1.02077E+03 -4.16038E+02  4.53988E+03
 -2.67381E+03 -3.37228E+03 -1.53374E+03  2.78548E+03 -4.60865E+03  4.82817E+02  6.53900E+02  5.75640E+02
  1.38133E+03 -5.02058E+03  1.38137E+01  9.43150E+02  2.48142E+03 -8.08124E+02  2.47503E+02  2.52624E+03
 -1.44693E+03  6.16049E+03 -4.49548E+03 -1.06619E+03 -3.54574E+03  5.21972E+03  8.49526E+02  2.19562E+03
  2.87268E+03  2.27883E+03 -6.01317E+03 -7.77826E+00  4.41463E+03 -1.84191E+03 -6.94917E+03  3.53142E+03
 -2.64876E+03  1.50914E+03 -6.38986E+03  2.49047E+03 -2.24723E+03  8.21279E+02  2.64859E+03  1.03320E+03
  5.95640E+03 -2.44451E+03  1.80189E+03 -3.39768E+03 -2.78942E+03  3.56601E+03 -3.17581E+03 -4.43362E+03
