 $NMID ID='MM_0lb_SNR50_11hz_g45_39.RAW', FMTDAT='(8E13.5)'
 TRAMP=1., VOLUME=1. $END
  3.11850E+05 -1.54253E+01  3.36893E+05  2.49184E+05  8.69253E+04  3.37646E+05 -1.33697E+05  2.46625E+05
 -1.86190E+05  8.57674E+04 -1.10060E+05 -3.06252E+04 -4.97241E+01 -5.32788E+04  5.61269E+04  7.31632E+03
  3.82405E+04  5.77171E+04 -2.03564E+04  7.92075E+04 -5.63155E+04  6.89233E+04 -8.66775E+04  3.13573E+04
 -8.44881E+04 -1.18513E+04 -5.61961E+04 -5.16191E+04 -1.36716E+04 -7.21409E+04  2.66408E+04 -4.62408E+04
  4.00734E+04  2.70404E+03  1.06749E+04  4.55081E+04 -3.24523E+04  4.92794E+04 -6.62973E+04 -4.18576E+03
 -5.41658E+04 -5.43109E+04 -4.15802E+03 -8.06019E+04  3.63433E+04 -5.42045E+04  4.75475E+04 -8.67164E+03
  4.02263E+04  4.75811E+03  3.38604E+04  2.64886E+04  1.20128E+04  2.73881E+04 -1.13570E+04  2.70329E+04
 -2.36724E+04  1.11532E+04 -1.58421E+04 -1.12712E+03  5.01313E+03 -1.21862E+04  2.31356E+04  1.24818E+04
  9.21722E+03  3.80810E+04 -3.92619E+04  3.62333E+04 -6.32105E+04  2.67588E+03 -5.53972E+04 -4.25577E+04
 -8.43169E+03 -5.79668E+04  3.98650E+04 -4.56780E+04  5.92438E+04 -4.80329E+03  3.38378E+04  2.81062E+04
 -5.14076E+03  3.84037E+04 -2.94836E+04  1.84084E+04 -2.57118E+04 -4.56015E+03 -2.25852E+04 -1.39602E+04
 -5.43044E+03 -1.67525E+04  4.49920E+03 -2.10185E+04 -1.13682E+03 -2.36179E+04  1.47056E+04 -1.30509E+04
  4.66531E+03  3.26529E+03 -9.37895E+03  1.29322E+04 -2.19637E+04 -1.51440E+03 -4.64329E+03 -3.46047E+04
  2.38805E+04 -4.31425E+04  5.03171E+04 -1.96870E+04  4.29865E+04  1.95722E+04  1.35687E+04  4.53430E+04
 -1.47533E+04  3.56402E+04 -3.05204E+04  2.84021E+03 -9.96601E+03 -2.81280E+04  2.42398E+04 -3.64609E+04
  3.79328E+04 -9.34902E+03  4.03429E+04  2.83754E+04  1.52646E+04  4.98264E+04 -5.59732E+03  5.31989E+04
 -3.52781E+04  3.76462E+04 -4.87213E+04  6.18174E+02 -4.12675E+04 -2.30292E+04 -2.40778E+04 -4.17952E+04
  5.55170E+03 -4.46203E+04  3.15640E+04 -2.18721E+04  3.22979E+04  1.72911E+04  8.99665E+03  1.91209E+04
 -1.68970E+04  1.20400E+04 -5.51942E+03 -1.10334E+04  1.11306E+03 -9.96875E+03  2.02283E+04  1.07047E+04
  1.55681E+04  2.27420E+04 -2.80494E+03  3.14348E+04 -2.12878E+04  1.19988E+04 -2.90851E+04 -2.03882E+03
 -2.24145E+04 -1.56596E+04 -7.73232E+03 -2.16950E+04  7.91829E+03 -2.64455E+04  1.70023E+04 -2.42055E+04
  3.28164E+04 -8.74299E+03  3.74405E+04  9.03486E+03  2.08128E+04  2.45463E+04  2.71813E+02  3.48177E+04
 -2.00447E+04  2.70772E+04 -3.02555E+04  1.56344E+04 -2.27328E+04 -1.06997E+04 -5.80374E+03 -1.07786E+04
  5.12278E+03  3.35631E+03 -1.10629E+04  6.97527E+03 -1.90697E+04  9.84053E+03 -1.66811E+04 -2.94739E+03
 -8.52545E+03 -2.22848E+04  7.40772E+03 -2.51374E+04  2.29253E+04 -1.63926E+04  2.35780E+04 -3.56330E+03
  1.29974E+04  1.57919E+04 -2.68155E+03  1.72606E+04 -1.66166E+04  7.74856E+03 -2.09493E+04 -7.40925E+03
 -1.29755E+04 -2.25830E+04  7.96064E+02 -2.70117E+04  1.59802E+04 -2.07195E+04  1.60241E+04 -1.23393E+04
  1.30433E+04 -2.00625E+03  1.39209E+04  1.43145E+03  9.51370E+03 -2.51998E+03  6.76932E+03 -1.34959E+03
  1.77112E+04 -2.00823E+03  2.60478E+04  1.38052E+04  1.02158E+04  3.07950E+04  6.95736E+02  4.33083E+04
 -2.21385E+04  3.12691E+04 -4.07490E+04  2.25077E+04 -3.66805E+04 -3.10972E+03 -3.41822E+04 -1.94975E+04
 -1.39046E+04 -3.02093E+04  9.19871E+03 -3.10088E+04  2.42324E+04 -9.53863E+03  1.80125E+04  7.27250E+03
  3.92102E+03  1.41816E+04 -5.67413E+03  1.46617E+04 -1.62802E+04  1.68050E+03 -1.41791E+04 -1.05334E+04
 -1.04496E+03 -1.70597E+04  1.12935E+04 -1.17743E+04  1.05547E+04 -2.88007E+03  9.09632E+03  7.83011E+03
 -6.48321E+03  2.11876E+03 -5.61477E+03 -4.19394E+03 -3.05109E+03 -1.76685E+04  1.16457E+04 -1.54086E+04
  2.44502E+04 -6.22887E+03  2.73337E+04  4.79594E+02  1.42200E+04  1.52961E+04  1.32207E+04  2.11705E+04
  1.39392E+03  2.37280E+04 -1.71494E+04  1.96618E+04 -1.84683E+04  1.28360E+03 -1.30497E+04  7.93320E+02
 -4.27245E+03 -6.21912E+03 -4.40314E+02 -2.27529E+03  7.21191E+02 -2.87454E+03 -1.34725E+04  7.84105E+03
 -6.07553E+03 -5.04606E+03 -1.37356E+04 -1.18577E+04 -4.03749E+03 -1.69694E+04  7.91928E+03 -1.35781E+04
  1.21159E+04 -5.72045E+03  8.97392E+03 -1.56260E+03  2.26339E+03  7.30133E+03 -9.20575E+03 -1.59089E+02
 -5.23236E+03 -2.43227E+03 -3.11625E+03 -1.97811E+04  5.13236E+03 -8.89326E+03  1.90289E+04 -6.51292E+03
  1.92351E+04 -1.89582E+03  1.20312E+04  1.14319E+04  2.01162E+03  1.34200E+04 -9.01407E+03  7.64405E+03
 -1.14895E+04 -2.30439E+02 -8.94534E+03 -1.75436E+03  3.33999E+03 -6.17432E+03  6.18524E+03 -2.52084E+03
  9.82278E+03  8.43810E+03 -5.05683E+03  9.28990E+03 -9.83851E+03  7.74527E+03 -1.58128E+04 -2.96441E+02
 -9.06146E+03 -5.71903E+03  2.47691E+03 -1.25869E+04  7.76454E+03 -1.19628E+04  1.46527E+04  5.70011E+03
  9.27731E+02  1.28024E+04 -6.98518E+03  9.91816E+03 -1.10414E+04 -5.88253E+02 -9.78006E+03 -4.01192E+03
 -6.35522E+03 -1.14053E+04  9.11107E+03 -1.25188E+04  1.10904E+04 -2.42667E+03  1.59511E+04  3.42406E+03
  3.61646E+03  1.01308E+04 -6.91805E+02  8.62709E+03 -9.59918E+03  7.83324E+03 -1.57205E+04 -1.69281E+03
 -5.73348E+03 -8.30335E+03 -3.62194E+03 -1.41834E+04  2.72076E+03 -8.48167E+03  3.38129E+03 -2.55361E+03
  4.92502E+03  3.49000E+02  1.09290E+03  1.80579E+03  3.35953E+03 -8.05094E+03  7.66224E+01 -1.11473E+04
  9.80256E+03 -1.84495E+03  2.03347E+04  2.78719E+03  1.18294E+04  7.57361E+03  1.32308E+04  1.91640E+04
  1.44699E+03  1.99237E+04 -1.40611E+04  1.65605E+04 -1.75603E+04  3.60888E+03 -1.61915E+04 -5.17974E+03
 -5.26665E+03 -1.35580E+04 -3.08567E+03 -1.27299E+04 -2.12889E+03 -6.04837E+03  5.77667E+03 -9.18296E+03
  6.70486E+03 -3.77125E+03  5.09606E+03 -4.06804E+03  5.18352E+03 -4.87380E+03  4.57873E+03 -3.88922E+03
  9.66486E+03  5.15631E+03  7.44703E+03  5.82619E+03 -8.99271E+02  1.33967E+04 -8.45659E+03  6.29861E+03
 -8.63872E+03 -4.67158E+03 -1.24787E+04 -7.06106E+03 -5.15553E+03 -1.36677E+04  5.10980E+03 -7.11799E+03
  1.06485E+04 -6.70750E+03  1.70632E+04  4.70676E+03  1.39263E+04  1.00169E+04  1.71516E+03  1.78600E+04
 -4.90702E+03  1.50434E+04 -6.93131E+03  6.08978E+03 -5.33081E+03 -2.88177E+03  8.12320E+02 -4.74970E+03
 -4.90104E+02  6.57786E+03 -5.48958E+03  3.24612E+03 -8.46286E+03  1.88409E+00 -7.67600E+03  1.29492E+03
  8.36742E+02 -1.35514E+04 -2.94639E+03 -1.29811E+04  7.77479E+03 -2.64481E+03  1.51347E+04 -6.58140E+03
  1.18661E+04  5.65555E+03  7.99851E+03  1.12378E+04 -7.84798E+03  1.36595E+04 -1.08286E+04  8.01830E+03
 -5.66313E+03  7.85322E+02 -5.65224E+03 -5.19923E+03 -9.63508E+03 -8.05943E+03  5.94829E+02 -6.00215E+03
  5.93747E+03 -1.53743E+03  2.07372E+03 -2.88796E+03  4.19337E+03  7.62857E+03  7.03932E+02 -2.44693E+03
  7.36553E+03 -2.09327E+03  3.44059E+03 -3.99484E+03  2.35250E+03  8.15182E+03  8.44642E+03 -7.14719E+02
 -3.18170E+03  1.20024E+04 -6.03887E+03  6.72436E+03 -1.40545E+04  3.31293E+03 -9.65221E+03 -1.92134E+03
 -6.29113E+03 -1.18308E+04  3.77212E+03 -1.09508E+04  1.14347E+04 -1.08672E+04  1.27893E+03 -5.62333E+03
  7.22111E+03  7.37456E+03  3.12396E+03  9.23935E+03 -1.03584E+04  6.18341E+03 -7.52477E+03  5.65620E+02
 -6.12904E+03 -2.58365E+03  5.02476E+03 -3.69452E+03  8.48351E+03 -8.39207E+03  3.37646E+03  1.23746E+03
  2.41087E+03  3.30596E+02 -5.98491E+02 -4.07291E+03  3.96256E+03 -3.54720E+03  3.77522E+03 -1.84329E+03
  5.95993E+03  4.56628E+03  6.90054E+03  4.90079E+03  6.65698E+02  2.02248E+03 -4.69127E+03  5.33800E+03
 -8.07531E+03  6.07689E+03 -5.04589E+03  2.15019E+03 -1.64450E+03 -1.56947E+03  1.44529E+03 -7.20007E+03
 -2.21546E+03 -2.92948E+03  4.08646E+03  7.15974E+02  3.54168E+03  7.59998E+03 -3.78555E+03  9.75819E+03
 -3.46300E+03 -5.48545E+01 -3.63143E+03 -8.46251E+03 -5.00998E+03 -7.95176E+03 -9.40304E+02 -6.70160E+03
  6.83722E+03 -6.12972E+03  1.68963E+03  8.54861E+02  3.61543E+03 -8.44241E+02 -2.70740E+03  4.93726E+02
  7.69892E+02  3.81194E+03 -1.92728E+03 -1.06527E+03 -5.96631E+01 -1.07827E+03  1.01737E+04 -4.21880E+03
  4.45974E+03  3.17315E+03  1.95997E+03  5.72425E+03 -6.09180E+02  7.30026E+03 -2.22731E+03  8.30420E+03
 -2.44063E+03  1.00780E+04 -5.21310E+03  2.98784E+03 -1.35662E+03 -5.66424E+03 -1.27944E+03 -2.05097E+03
  3.81076E+03 -2.21447E+02  2.35583E+03  7.82905E+03 -3.07764E+02  3.80419E+03 -1.58672E+03  2.67948E+03
 -1.92194E+03  7.16048E+03  7.47496E+02  1.55398E+03 -6.71332E+03 -1.17807E+03  3.05128E+03 -2.07326E+03
 -1.39823E+03  1.41140E+03 -6.24548E+03  3.10768E+02 -6.90725E+03  2.25711E+03 -7.07452E+03 -6.33101E+02
 -3.14310E+03 -5.72544E+03  4.18340E+03 -9.46938E+03 -1.74285E+03 -6.47454E+03  6.09105E+03 -3.97087E+03
  5.93176E+03  8.15914E+03  7.98522E+03  3.68599E+03  2.43849E+02  8.54231E+03  4.58492E+02  3.79485E+03
 -6.47796E+03  1.98489E+03 -1.73086E+03  1.93421E+03 -2.33018E+03 -1.49796E+03 -3.93329E+03  7.44063E+02
  2.88885E+03  1.51025E+03 -5.37806E+03  4.55838E+03  2.52924E+03 -3.44336E+03  1.29769E+03  5.20052E+03
  7.44249E+03 -2.12594E+02  9.75357E+02 -3.17261E+02  2.63547E+02  4.57334E+02 -3.04085E+03  7.48814E+03
 -4.49344E+02  1.19221E+04 -6.26520E+03  2.79310E+03 -8.56231E+03 -4.53953E+03 -5.36597E+03 -9.41482E+03
 -6.92439E+02 -1.27923E+04  3.43648E+03 -5.69243E+03  5.40532E+03 -4.00654E+03  6.47709E+03  1.33176E+03
 -4.80283E+03  7.79700E+02  2.73270E+03  2.54517E+03 -3.23606E+03  1.88326E+03 -3.25103E+03 -3.26295E+02
  5.82634E+02 -4.34030E+03  7.20104E+02  4.85939E+03  1.93182E+03  5.76314E+03  2.86456E+03  8.50773E+02
 -5.25290E+03  1.92709E+03 -8.81945E+03 -3.20308E+02 -6.31821E+03 -2.51418E+03 -3.62707E+03 -3.85236E+03
 -2.42510E+03 -3.20107E+03  6.18571E+03 -2.40281E+03  2.23729E+03  3.29847E+03  1.14329E+04  1.84209E+03
 -5.20221E+03 -2.99911E+03 -3.18670E+03  2.28097E+03  1.88977E+03  3.24270E+03 -4.02052E+03  2.17667E+03
 -4.77019E+03 -6.04225E+02  9.27941E+02 -3.08502E+02 -4.79934E+03 -1.95786E+03  5.93464E+02 -2.11455E+03
 -2.91995E+03 -4.29099E+03 -4.28833E+03 -6.71919E+03 -1.67275E+03 -9.32610E+03  3.80985E+03 -6.63204E+03
  2.91854E+03  3.49864E+03 -3.01838E+03  1.59877E+03  3.66181E+03  8.47898E+03 -7.57160E+03  7.99435E+01
