 $NMID ID='MM_0lb_SNR50_18hz_g60_94.RAW', FMTDAT='(8E13.5)'
 TRAMP=1., VOLUME=1. $END
  3.12717E+05 -4.74731E+02  3.37241E+05  2.46268E+05  8.43594E+04  3.37436E+05 -1.30691E+05  2.51116E+05
 -1.87056E+05  8.44542E+04 -1.14341E+05 -3.08435E+04 -7.97598E+02 -4.70521E+04  5.46451E+04 -1.83023E+03
  3.71579E+04  4.94352E+04 -1.81894E+04  7.09717E+04 -5.76466E+04  6.51281E+04 -8.25222E+04  3.34631E+04
 -8.01405E+04 -1.27543E+04 -5.85935E+04 -5.19529E+04 -1.67848E+04 -7.27006E+04  3.18105E+04 -4.36940E+04
  4.11934E+04  1.17933E+04  1.37572E+04  5.20135E+04 -3.60381E+04  4.95394E+04 -6.72248E+04 -3.51358E+02
 -5.06534E+04 -5.47567E+04 -9.91085E+03 -7.38915E+04  3.68466E+04 -5.74513E+04  4.88552E+04 -1.78490E+04
  4.07679E+04  1.15226E+04  3.26507E+04  2.35153E+04  1.64063E+04  3.17802E+04 -4.91282E+03  2.58060E+04
 -2.19522E+04  1.57045E+04 -1.66554E+04 -9.83433E+02  1.84232E+03 -8.21503E+03  2.08635E+04  9.72749E+03
  7.06634E+03  3.26715E+04 -3.03298E+04  3.68703E+04 -6.06309E+04  3.66940E+03 -5.52577E+04 -4.30961E+04
 -9.35472E+03 -6.06700E+04  3.64638E+04 -4.51833E+04  5.62384E+04 -3.36930E+03  3.81206E+04  3.18054E+04
 -5.32640E+03  3.52484E+04 -3.09087E+04  1.62183E+04 -2.45534E+04 -2.64380E+03 -1.06325E+04 -9.29352E+03
 -7.45010E+03 -1.17933E+04  3.71555E+02 -1.92527E+04  6.67779E+03 -2.48670E+04  1.46050E+04 -1.40912E+04
  1.46553E+04  4.62349E+03 -9.45610E+03  1.19355E+04 -2.30554E+04 -3.01013E+03 -7.57596E+03 -3.65423E+04
  2.42260E+04 -4.29751E+04  4.35763E+04 -2.14915E+04  4.10944E+04  1.72800E+04  1.44747E+04  4.55302E+04
 -1.33972E+04  3.36177E+04 -2.48588E+04 -4.01733E+02 -1.64435E+04 -2.81338E+04  2.07785E+04 -3.06143E+04
  3.95128E+04 -6.76222E+03  3.19830E+04  2.22418E+04  1.56726E+04  4.59511E+04 -8.02651E+03  4.43046E+04
 -2.83773E+04  2.96191E+04 -3.92766E+04  9.13670E+03 -3.60952E+04 -1.66575E+04 -2.11891E+04 -3.46884E+04
  7.90421E+03 -3.57717E+04  3.12822E+04 -1.44463E+04  2.74209E+04  1.59809E+04  5.61106E+03  1.98554E+04
 -1.57066E+04  7.92250E+03 -1.59101E+04 -4.39186E+03  7.23593E+03 -7.66397E+03  1.82788E+04  6.07225E+03
  1.45145E+04  2.00214E+04 -8.33406E+03  2.23974E+04 -2.16143E+04  1.04088E+04 -2.45576E+04 -5.25969E+03
 -1.70339E+04 -1.47131E+04 -3.46966E+03 -1.23524E+04  4.70717E+03 -1.70777E+04  1.69757E+04 -1.26160E+04
  2.65144E+04 -1.72141E+04  2.83350E+04 -1.94870E+03  1.96316E+04  1.85970E+04  5.47533E+03  3.94247E+04
 -1.63427E+04  3.14665E+04 -2.17823E+04  1.40040E+04 -2.26127E+04 -1.15401E+04 -3.88184E+03 -1.66706E+04
 -2.55221E+03 -2.95722E+02 -4.76294E+03  8.72716E+03 -1.42653E+04  5.06788E+03 -1.05875E+04 -7.50534E+03
 -5.32837E+03 -2.08838E+04  4.91901E+03 -2.36521E+04  1.27921E+04 -1.98243E+04  1.83216E+04  2.25404E+02
  1.11658E+04  1.58128E+04  2.60486E+03  1.84902E+04 -8.37733E+03  1.10512E+04 -1.67158E+04 -6.66043E+03
 -1.36782E+04 -1.58923E+04 -4.67700E+03 -2.11268E+04  6.33999E+03 -1.86079E+04  1.92882E+04 -9.19695E+03
  1.54977E+04  5.36240E+03  1.30664E+04  3.15379E+03  6.28308E+03  8.15913E+02  7.42419E+03 -8.33325E+02
  8.69407E+03  1.92084E+03  1.88742E+04  1.55933E+04  1.26569E+04  2.61250E+04 -3.99489E+03  3.12231E+04
 -1.76116E+04  2.11067E+04 -2.63319E+04  1.21382E+04 -2.95129E+04 -3.41540E+03 -2.52206E+04 -1.95455E+04
 -8.97168E+03 -1.68377E+04  6.11684E+03 -2.11783E+04  1.70662E+04 -1.00305E+04  2.08754E+04 -5.41852E+02
  9.15204E+03  1.33609E+04 -9.17347E+03  1.73793E+04 -1.79296E+04  1.63371E+03 -1.26867E+04 -6.75361E+03
 -6.65507E+01 -1.16577E+04  9.18911E+03 -8.95900E+03  1.37327E+04  2.44564E+03  7.52659E+02  1.13713E+04
 -2.53518E+03  2.53721E+03 -4.30531E+03 -6.22511E+03  3.46722E+03 -1.14170E+04  1.08625E+04 -1.00086E+04
  1.54443E+04 -2.10424E+02  1.45077E+04  5.10200E+03  1.35138E+04  7.26970E+03  7.49805E+03  1.67669E+04
  3.47510E+03  1.95982E+04 -1.23895E+04  1.03117E+04 -1.41372E+04  9.04281E+03 -7.78568E+03 -6.38021E+03
 -2.11398E+03 -5.59215E+03  7.52656E+02 -1.76614E+03 -8.93101E+02 -1.91541E+03 -4.63735E+03  7.69703E+03
 -9.50171E+03 -4.31880E+03 -9.29190E+03 -1.24342E+04 -2.42220E+03 -9.31292E+03  1.98454E+03 -4.86560E+03
  5.90939E+03 -3.89732E+03  8.79057E+03  6.43592E+03 -8.11635E+02  6.23869E+03 -1.15024E+03  3.43845E+03
 -1.05041E+03 -9.07586E+03 -2.84913E+03 -8.12862E+03  1.67235E+03 -9.03334E+03  1.06302E+04 -1.12691E+04
  1.41195E+04 -1.77527E+02  8.98899E+03  1.29625E+04  1.54566E+03  8.62247E+03 -6.93773E+03  9.98979E+03
 -9.59727E+03  1.69084E+03 -6.85465E+03  3.84650E+02  3.43782E+03 -3.84959E+03  2.72427E+03  2.40084E+02
  1.01867E+03  4.51812E+03  7.82361E+02  6.59686E+03 -7.92889E+03  8.05392E+03 -6.87924E+03  4.40887E+03
 -9.94520E+02 -7.64082E+03  1.05583E+03 -5.25839E+03  6.29943E+03 -6.45778E+03  6.40170E+03 -9.67380E+02
  2.21054E+03  2.26825E+03 -6.52393E+03  5.69644E+03 -9.14283E+03  2.53329E+02 -6.56665E+03 -1.18193E+03
 -1.48040E+03 -6.26201E+03  4.08923E+03 -8.52616E+03  4.04958E+03 -2.23116E+03  4.29254E+03  2.32788E+03
  2.22367E+03  2.44885E+03 -3.95049E+02  4.60138E+03 -3.96414E+03  3.86288E+03 -3.91801E+03 -2.33035E+01
 -7.72959E+03 -2.32955E+03 -3.91991E+03 -8.84842E+03  2.80552E+03 -8.54850E+03  5.01824E+03 -7.23294E+03
  2.87890E+03  1.28208E+03  2.00958E+03 -9.51188E+02  1.38525E+03  1.20362E+03 -1.40664E+03 -1.76917E+03
  4.43160E+03  3.43575E+02  6.19062E+03  6.81651E+03  9.31127E+03  4.52659E+03  7.80506E+03  7.50335E+03
 -3.87545E+03  1.15402E+04 -8.60569E+03  6.73829E+03 -1.41741E+04  2.09788E+03 -5.65094E+03 -7.03259E+03
 -2.06508E+03 -1.05328E+04  3.02061E+03 -4.64767E+03 -1.65930E+03  9.68124E+02 -2.57339E+03 -4.64307E+03
  1.20222E+03  2.47041E+03  3.96277E+03 -6.65072E+02 -9.86070E+00 -1.12981E+03  2.69046E+03 -2.61921E+03
  5.58093E+03  4.07221E+03  1.54267E+03  7.19564E+03 -5.20809E+03  4.00396E+03 -5.67361E+03  3.32888E+03
 -4.81002E+03 -6.01396E+03 -5.21400E+02 -1.02921E+03  1.99279E+03 -7.75435E+03  4.10644E+03 -5.13299E+03
  1.03311E+04 -3.60114E+03  2.83999E+03 -9.00097E+02  8.43456E+03  1.20428E+03  1.93455E+03  3.83167E+03
 -2.55094E+03  4.58775E+03 -5.50130E+03  2.95319E+03 -5.13375E+03 -1.62879E+03 -6.39317E+01 -9.87412E+02
  2.30297E+03  3.48513E+03 -2.74208E+03  1.43213E+02 -4.72639E+03  3.95339E+03 -7.78259E+03 -1.31503E+03
 -1.30685E+03 -2.24361E+03 -3.29262E+03 -1.04569E+04  1.58982E+03 -8.12965E+03  6.58370E+03 -4.49474E+03
  6.29620E+03  5.26043E+03  2.59819E+03  4.05861E+03  1.19113E+03  7.64407E+03  2.79613E+01  1.67822E+03
 -9.55067E+02  6.76185E+02 -6.85838E+03 -5.54953E+03  1.41032E+03 -1.74844E+03  1.41195E+03 -3.33805E+02
 -2.60848E+02 -4.20926E+03  5.97590E+03  5.82501E+02  2.83916E+02 -1.67881E+03  6.78358E+02 -1.95404E+03
  6.13214E+03  1.18314E+01  3.21855E+03  2.22797E+03  5.46624E+01  1.07685E+03 -9.74408E+02  4.14901E+03
 -2.41251E+03  2.41835E+03 -2.20286E+03  6.61032E+03 -3.22544E+03 -2.91773E+03 -7.60483E+03  3.74438E+03
 -2.32738E+03 -3.94821E+03 -3.23899E+03 -1.36685E+03  3.40611E+03 -1.33451E+03  1.16190E+03  6.03298E+02
  6.68265E+03  1.53777E+03 -2.41826E+03  1.12441E+03 -2.76620E+03  3.77071E+03  1.92570E+03  3.90910E+03
  3.45121E+03 -1.66945E+03 -1.46289E+03 -4.80188E+03  1.65223E+03 -2.47519E+03  1.22684E+03  1.60056E+03
  1.08396E+03  1.52223E+03  9.34145E+02 -3.09928E+02 -2.13623E+03 -2.03561E+03  2.77549E+03  4.67939E+02
  1.91422E+02 -4.97940E+02 -3.77911E+03  4.80422E+03 -3.86477E+03  3.96749E+03 -4.18967E+03  2.32341E+03
  8.54678E+02  7.13415E+03 -3.34170E+03  5.10989E+03 -3.48885E+03  3.76485E+03  2.62333E+03  5.71093E+02
  2.02284E+03 -3.79550E+01  4.44052E+03 -9.47386E+02  2.51194E+03  4.68899E+03  7.69599E+02  1.01902E+03
 -7.74214E+02 -2.65677E+03 -4.56112E+03  2.65658E+03  3.21491E+03 -1.99271E+03 -3.89515E+03  3.72813E+03
  6.08318E+02 -3.04857E+03  5.80043E+03 -2.46432E+03  2.66236E+03 -1.91933E+03 -1.96499E+03 -3.41313E+03
 -1.21991E+03  6.28465E+02 -2.58794E+03 -2.08099E+03 -3.08497E+03  8.55678E+02  3.76215E+02 -1.83450E+03
 -2.81957E+02 -3.01036E+02  3.58226E+03 -1.87101E+02  2.18078E+03  5.19932E+02 -2.94054E+03  2.95859E+03
 -2.10271E+03 -4.97249E+03  1.59316E+03 -6.22879E+02 -5.03368E+02 -3.44508E+03 -5.12814E+03 -1.49284E+03
  1.04049E+03 -1.97130E+03  7.71598E+02  2.03655E+03  3.04928E+03 -3.24373E+02  2.53255E+03 -5.70242E+03
 -5.42478E+03  3.35939E+03  1.20120E+03 -8.86596E+02  1.71525E+03  8.34988E+02 -1.04302E+02  7.20728E+02
  7.70492E+02  3.71685E+03 -2.54216E+03  3.62026E+03 -2.41032E+03 -1.90931E+03  2.96363E+02 -3.37710E+03
 -6.00177E+03  2.08757E+03  2.16154E+03  1.17692E+03 -1.40738E+03 -7.17278E+03  2.21013E+03 -4.34908E+03
  2.36259E+03 -1.64267E+03  1.61505E+03 -9.42293E+02  2.40801E+02 -2.79849E+03 -6.06527E+02  1.49680E+02
 -3.95991E+03  1.89455E+02 -2.54954E+02 -7.53122E+02  2.51035E+03  5.08475E+03 -4.66458E+03  1.31225E+03
 -1.44193E+03  1.14311E+03  4.71226E+03  3.76918E+01 -1.17058E+02  6.35430E+02 -3.02065E+03 -2.18551E+03
  2.29854E+03 -1.40520E+03 -2.16381E+02 -1.52910E+03 -9.55539E+02  1.68456E+03 -4.19619E+02 -1.64640E+02
 -4.52371E+02  2.32932E+02 -4.15854E+03  2.61832E+03 -2.14693E+03  1.03199E+03 -2.91020E+03 -8.13170E+02
  9.70974E+02 -1.24378E+03 -2.23676E+03 -2.42862E+02 -9.52172E+02  1.49887E+02  1.55069E+03  1.92623E+03
  1.21030E+02  2.45479E+03 -1.16329E+03  3.28129E+02 -3.83492E+02  3.66784E+02  9.22777E+02 -1.05295E+03
 -1.22895E+03 -2.03778E+03  1.29242E+03  2.36334E+03  3.29065E+03  3.27915E+03 -2.37363E+03  6.95100E+03
  1.00719E+03  4.60672E+03 -7.71838E+01 -2.35257E+03 -2.32460E+03 -6.41179E+02 -3.59868E+02 -3.00083E+03
  1.06632E+03 -1.55114E+03  2.25871E+03  5.51406E+03  1.17643E+03 -6.89700E+03 -7.97242E+02 -2.05967E+03
 -2.17107E+03  2.07966E+03  1.84537E+03 -4.67330E+03  9.60861E+02  4.98300E+03  4.52798E+03 -3.04428E+03
 -3.18393E+02  3.38052E+03 -4.92465E+03  5.72141E+03  2.44930E+03  7.04446E+02 -3.48753E+03 -8.78683E+02
  2.45136E+03 -8.66123E+02 -4.73778E+03 -2.10236E+03  4.49185E+03  2.10674E+03  2.63437E+03  5.54918E+02
 -2.15858E+02  4.45674E+03  1.64166E+03 -7.87418E+02 -5.25000E+02  4.27652E+03 -2.57979E+03  1.13937E+03
