 $NMID ID='MM_0lb_SNR50_10hz_g40_76.RAW', FMTDAT='(8E13.5)'
 TRAMP=1., VOLUME=1. $END
  3.14778E+05 -8.51957E+03  3.37376E+05  2.52805E+05  8.64013E+04  3.39562E+05 -1.36999E+05  2.51890E+05
 -1.82126E+05  8.18772E+04 -1.11772E+05 -3.16727E+04 -3.96872E+03 -4.89485E+04  5.24538E+04 -2.55621E+02
  3.95334E+04  6.10962E+04 -2.33040E+04  7.63475E+04 -5.86973E+04  6.17770E+04 -8.40269E+04  2.93601E+04
 -8.73689E+04 -1.04228E+04 -6.05068E+04 -4.92442E+04 -1.23571E+04 -6.49376E+04  2.72953E+04 -4.58321E+04
  4.21754E+04  1.01003E+04  1.83155E+04  5.05408E+04 -3.29225E+04  4.31333E+04 -6.69739E+04 -3.79988E+03
 -5.74152E+04 -5.71943E+04 -8.96779E+03 -7.96398E+04  3.55426E+04 -5.14600E+04  5.13335E+04 -1.63864E+04
  4.86540E+04  1.49998E+04  3.32378E+04  2.24934E+04  1.46344E+04  3.33537E+04 -4.65227E+03  2.92533E+04
 -2.40720E+04  1.35906E+04 -2.04193E+04 -1.13613E+04  7.89061E+03 -7.02980E+03  2.42585E+04  1.25911E+04
  4.33618E+03  4.02738E+04 -3.42594E+04  3.82528E+04 -6.67031E+04  1.05693E+03 -5.93007E+04 -4.68548E+04
 -1.86813E+04 -6.57991E+04  3.77114E+04 -4.75833E+04  5.90850E+04 -4.36518E+03  3.29500E+04  3.55496E+04
 -7.72314E+03  3.44659E+04 -2.87085E+04  2.16994E+04 -3.02359E+04 -3.51790E+03 -1.75504E+04 -1.59174E+04
 -1.46976E+04 -1.59312E+04  2.28003E+03 -2.00619E+04  5.45723E+03 -1.68359E+04  1.52805E+04 -1.36835E+04
  1.32815E+04  6.73680E+03 -1.52235E+04  5.44286E+03 -1.70987E+04 -3.02062E+03 -1.10729E+04 -3.88172E+04
  2.66532E+04 -4.58250E+04  5.30071E+04 -1.59581E+04  4.74174E+04  2.00667E+04  2.03315E+04  4.64021E+04
 -1.59991E+04  3.90123E+04 -3.00796E+04  9.63205E+02 -1.63790E+04 -3.16761E+04  2.14537E+04 -3.49643E+04
  4.15646E+04 -1.06684E+04  3.02668E+04  2.36542E+04  1.91741E+04  4.50402E+04 -4.38387E+03  5.04505E+04
 -3.60743E+04  4.02738E+04 -5.24507E+04  1.28138E+04 -4.25073E+04 -1.96489E+04 -2.19950E+04 -3.56401E+04
  6.25041E+03 -4.20192E+04  3.29547E+04 -1.26708E+04  3.13583E+04  1.26913E+04  2.15945E+03  2.06370E+04
 -1.69506E+04  7.11691E+03 -1.47346E+04 -1.17654E+04  6.92565E+03 -1.18504E+04  2.33357E+04  4.86038E+03
  1.22520E+04  2.82653E+04 -5.18020E+03  2.64946E+04 -2.15714E+04  1.35538E+04 -2.88567E+04 -4.72938E+03
 -2.86148E+04 -1.88769E+04 -1.16270E+04 -1.98214E+04  5.25294E+03 -1.32603E+04  1.80968E+04 -2.29476E+04
  3.18979E+04 -1.02033E+04  3.33784E+04  1.48225E+02  2.47304E+04  2.02062E+04 -2.17445E+03  4.06560E+04
 -1.39067E+04  2.87855E+04 -3.29136E+04  1.05475E+04 -1.74417E+04 -7.94384E+03 -4.28373E+03 -1.41017E+04
  1.56591E+03 -9.16519E+03 -6.67833E+03  7.77169E+03 -2.30780E+04  3.70157E+03 -1.58383E+04 -7.76796E+03
 -1.88865E+04 -1.88394E+04  2.46236E+02 -2.62646E+04  1.90709E+04 -1.94700E+04  2.87712E+04 -4.91094E+03
  1.07875E+04  1.74722E+04 -1.66913E+03  2.01788E+04 -1.75926E+04  1.19082E+04 -2.00036E+04  4.53100E+02
 -1.57115E+04 -1.65579E+04 -1.81581E+03 -2.86996E+04  1.40011E+04 -2.06377E+04  1.58648E+04 -1.43720E+04
  1.90205E+04  2.65425E+02  1.02798E+04  3.87043E+03  6.82256E+03 -2.53755E+03  7.95422E+03 -2.32370E+02
  1.91395E+04 -3.36394E+03  2.04514E+04  2.05263E+04  1.23147E+04  3.30946E+04 -7.49964E+03  3.62007E+04
 -2.12628E+04  3.16537E+04 -3.67078E+04  1.81878E+04 -4.12623E+04 -9.80702E+03 -3.55464E+04 -2.43211E+04
 -1.14781E+04 -3.62887E+04  1.03609E+04 -2.59450E+04  2.59615E+04 -1.91499E+04  2.21780E+04  1.52152E+03
  9.34999E+03  1.34930E+04 -1.48883E+04  1.63075E+04 -2.23778E+04  5.21221E+03 -1.46689E+04 -3.99104E+03
 -1.84384E+02 -1.91070E+04  7.08051E+03 -1.22722E+04  1.03420E+04 -1.47969E+03  2.33083E+03  2.58010E+03
  1.82949E+03 -3.25855E+03 -9.80572E+03 -1.14650E+04  1.49398E+03 -2.01366E+04  9.21524E+03 -1.98349E+04
  1.55432E+04 -9.32192E+03  2.18358E+04  3.63969E+03  1.93445E+04  1.72341E+04  8.02801E+03  2.85748E+04
 -5.94606E+03  3.13551E+04 -1.59724E+04  2.58262E+04 -2.25014E+04 -6.59651E+02 -1.39502E+04 -3.16484E+03
 -4.12327E+03 -2.59349E+02  2.36542E+03  1.19569E+03 -5.11854E+03  3.57373E+03 -9.52102E+03  6.11876E+03
 -1.51853E+04 -3.98847E+03 -1.35617E+04 -1.19148E+04 -7.53684E+03 -1.53158E+04  7.70528E+03 -1.56636E+04
  6.87208E+03 -5.81643E+03  4.34934E+03  1.10998E+02 -4.75222E+03  3.58894E+03 -3.77003E+03  8.50467E+03
 -6.38650E+03 -1.18600E+04 -6.29366E+02 -1.04964E+04  6.99105E+03 -1.23552E+04  2.01531E+04 -1.13134E+04
  1.97322E+04  1.77040E+03  1.27370E+04  1.30704E+04 -3.19452E+03  1.80085E+04 -1.38045E+04  2.46428E+04
 -8.13465E+03  2.93823E+03 -9.13522E+03 -9.65090E+03  2.36506E+03 -6.28109E+03  6.94606E+03 -2.42250E+03
  8.59554E+03  1.15374E+04  6.62771E+03  1.47789E+04 -1.20048E+04  8.12306E+03 -1.89057E+04  5.45391E+03
 -3.18900E+03 -2.49923E+03 -1.07501E+03 -1.12449E+04  2.00012E+03 -6.60680E+03  3.35964E+03  4.14841E+02
 -3.69904E+03  8.73028E+03 -7.13765E+03  9.46852E+03 -1.09219E+04  7.32755E+03 -1.42358E+04 -7.01073E+03
 -9.39284E+03 -2.09061E+04  2.49626E+03 -7.37073E+03  1.38668E+04 -7.65850E+03  1.06184E+04 -3.80224E+03
  4.98795E+03  1.32519E+04 -4.80369E+03  2.08512E+04 -7.77608E+03  4.69502E+03 -1.19076E+04 -2.29282E+03
 -1.32093E+04 -8.36884E+03 -1.76474E+03 -9.58484E+03  6.87366E+03 -5.70499E+03  7.88623E+03 -2.74986E+03
  6.02940E+03 -6.37058E+03 -3.28043E+03 -1.20306E+01  4.14867E+03  7.90773E+02 -2.78895E+02 -9.62390E+03
  1.16923E+04 -3.43743E+03  8.15112E+03  3.90850E+03  1.39205E+04  9.18782E+02  8.41795E+03  1.09858E+04
 -3.75326E+03  1.75829E+04 -2.05424E+04  1.97091E+04 -1.84496E+04  2.18679E+03 -1.71043E+04 -9.93001E+03
 -5.82263E+02 -1.66050E+04 -4.32981E+03 -1.07996E+04  4.59425E+03 -7.86097E+03  1.01302E+04 -4.28438E+03
  6.47663E+03  4.32136E+02  1.62971E+03 -1.83290E+03  5.98019E+03 -8.04303E+02  4.73910E+03 -1.63121E+03
  4.99643E+03 -1.89922E+03  3.31092E+03  6.01249E+03 -6.53808E+03  1.00975E+04 -7.96562E+03  5.47722E+03
 -7.91141E+03 -4.11075E+03 -3.25016E+03 -1.26859E+04  2.38462E+03 -8.50698E+03  5.35802E+03 -1.62557E+04
  2.10213E+04 -4.18659E+03  1.29989E+04 -6.41798E+02  1.42384E+04  1.35793E+04 -1.01039E+03  1.33021E+04
 -1.12113E+03  1.27487E+04 -5.72382E+03  8.35816E+03 -1.31372E+03 -4.77543E+03 -2.84887E+03 -4.00956E+03
  2.20273E+03  7.97841E+01 -3.88348E+03  5.34631E+03 -1.71478E+03  6.94615E+03 -9.51993E+03  4.05162E+03
 -6.00634E+03 -7.17940E+03 -2.10705E+03 -9.78421E+03  9.88245E+03 -1.00359E+04  1.18295E+04 -7.84241E+03
  1.37746E+04  1.25049E+04  4.13773E+03  7.50074E+03 -2.58045E+03  1.14804E+04 -3.30934E+03  9.01533E+03
 -1.30596E+04 -5.36965E+03 -1.43604E+04 -4.89953E+03 -2.23743E+03 -1.86846E+04  3.07990E+03 -5.69058E+00
  6.75243E+03 -3.19166E+01  5.92146E+03 -2.04124E+03  1.68680E+02 -2.96914E+02 -1.17094E+03  4.68634E+02
  3.27516E+03  9.46498E+02  5.98466E+02  1.69766E+03  2.96840E+03  5.36459E+03 -1.85868E+03  6.51197E+03
 -2.44382E+03  1.23629E+04 -4.93219E+03  4.69290E+03 -9.76556E+03  4.36266E+03 -1.40359E+04 -8.52132E+03
 -1.25763E+04 -1.42695E+04 -2.92757E+03 -1.54628E+04  6.34025E+03 -1.12768E+04  1.07430E+04 -5.66416E+03
  6.43056E+03  4.01019E+03  2.36438E+02  6.92213E+03 -7.23123E+03  3.17608E+03 -4.57439E+03  4.11692E+03
 -4.39757E+02 -4.08975E+03  7.30425E+03 -2.91130E+03  6.41266E+03 -1.42605E+03  1.34834E+03  1.43481E+03
  2.52940E+03  2.97614E+03 -1.38618E+03 -3.29520E+03 -1.99665E+03  2.07879E+03  4.10914E+03  2.49995E+03
  3.92893E+03  8.96331E+02  6.44892E+03  9.72000E+02 -3.16408E+03  7.62907E+03 -3.48628E+02  8.03434E+03
 -2.97915E+03  4.91760E+03 -4.91995E+03  3.00749E+03 -5.13832E+03 -3.89011E+03  2.10947E+03 -3.96800E+03
  2.05862E+03 -6.13293E+03  3.52118E+03  1.46098E+03  6.01222E+03 -3.51458E+03 -1.09512E+03  4.52403E+03
 -5.47454E+03  3.22414E+03 -2.06927E+03 -6.94963E+02 -1.18068E+03 -6.99161E+03  1.23294E+03 -9.68842E+03
  1.69853E+03 -7.49362E+02  9.24247E+03 -4.70676E+03  8.71515E+03  4.44393E+03  3.89357E+02  2.10749E+03
  1.22169E+02 -1.68953E+03 -5.42134E+03 -2.89538E+03  3.49026E+03 -5.08979E+02  5.74976E+03 -3.60645E+03
  1.01219E+04  6.46569E+03  1.75739E+03  1.89647E+03 -1.10127E+03  7.33415E+03 -1.16129E+03  8.19630E+03
 -8.78959E+03  1.85020E+03 -1.07513E+04 -5.85162E+03 -6.83631E+03 -4.83876E+03  4.99674E+03 -9.22393E+03
 -7.81410E+02 -2.43807E+03  6.05685E+03  3.39213E+03  4.94890E+03  6.06712E+03 -1.62874E+03  9.18192E+02
 -5.01271E+03 -2.36004E+03 -1.18372E+03  9.18086E+03  1.52613E+03  1.23361E+02 -2.33649E+03 -7.79040E+02
 -4.14783E+03  5.44137E+03 -7.66330E+03  1.65830E+03 -1.05387E+04 -1.01950E+03 -5.57635E+03 -6.46633E+03
 -5.54271E+03 -7.79301E+03 -3.72554E+03 -1.70336E+04  1.03693E+04 -9.45867E+03  1.18928E+04 -1.55308E+03
  7.57414E+03  1.65964E+03  1.56131E+04  1.00275E+04 -1.78874E+03  8.28092E+03  1.75271E+03  9.39528E+03
 -1.36725E+03  3.78328E+03 -2.09930E+03 -3.32350E+01 -3.38563E+03  2.83394E+03 -4.66275E+03 -2.73318E+03
  1.22856E+02 -2.69977E+03 -3.72389E+03  5.28107E+02  2.23906E+03  5.11087E+02 -7.34842E+02 -4.70173E+03
  6.73094E+03 -9.46309E+02  5.07922E+03  1.54283E+03  2.44647E+03  8.10760E+02 -3.81754E+03  1.87457E+03
 -6.27395E+03  6.56838E+03 -1.26141E+04  1.72335E+03 -1.35707E+04 -1.61033E+03 -7.87624E+03 -6.03585E+03
 -3.30596E+03 -4.65828E+03  2.79472E+03 -5.58279E+03  9.39584E+03 -7.14460E+03  6.91522E+03  5.67567E+03
  5.13861E+03  3.06508E+03 -2.89269E+03  7.69007E+03 -3.12403E+03 -2.07594E+03 -3.08900E+03  3.34167E+03
  2.87442E+02  3.43459E+03  4.08312E+03 -6.12139E+02  6.42778E+03  1.47389E+03 -3.43529E+03  8.81415E+02
 -2.33114E+03  4.58511E+03 -6.78856E+03 -3.49989E+03 -1.23717E+03 -7.88892E+03 -5.56127E+03 -6.30818E+03
  1.90502E+03 -6.68326E+03  4.07938E+03  9.90537E+03  9.97219E+03  4.17861E+03  4.36877E+03  7.01193E+03
 -1.32806E+03 -1.54449E+03 -3.28953E+03  2.10526E+03 -5.97030E+03 -5.27115E+02  2.42660E+03 -3.25055E+03
  8.19115E+02  4.05688E+03  2.67883E+03 -2.16548E+03 -1.24073E+03 -6.24877E+02  1.56562E+03 -9.27089E+02
  3.64499E+03  3.88894E+02  4.22350E+03 -5.99462E+03 -7.11359E+02 -8.19669E+03  4.40279E+03 -1.01217E+03
  4.18296E+03  4.64025E+03  2.57497E+03  2.71093E+03 -7.83549E+02  6.31053E+03 -8.08095E+03 -4.05225E+03
