 $NMID ID='MM_0lb_SNR50_14hz_g40_71.RAW', FMTDAT='(8E13.5)'
 TRAMP=1., VOLUME=1. $END
  3.12779E+05  1.90123E+03  3.33921E+05  2.48001E+05  8.52891E+04  3.38082E+05 -1.32941E+05  2.50215E+05
 -1.91947E+05  8.30552E+04 -1.14024E+05 -3.04768E+04  3.48962E+03 -5.31601E+04  5.37001E+04  5.40573E+02
  3.46252E+04  5.14650E+04 -1.49199E+04  7.66199E+04 -5.65420E+04  6.22772E+04 -8.75743E+04  3.23556E+04
 -8.38578E+04 -8.73330E+03 -5.49286E+04 -5.20896E+04 -2.05321E+04 -7.08915E+04  2.73383E+04 -4.67149E+04
  4.14951E+04  1.32329E+03  1.51903E+04  5.00342E+04 -3.50024E+04  4.52224E+04 -6.71858E+04  2.31989E+03
 -5.31130E+04 -6.05173E+04 -7.29137E+03 -7.90486E+04  3.04855E+04 -4.97482E+04  4.70608E+04 -1.89097E+04
  4.03783E+04  1.31086E+04  2.84506E+04  2.75910E+04  1.78770E+04  2.57448E+04 -5.51802E+03  2.27248E+04
 -2.07124E+04  1.16051E+04 -2.06681E+04 -6.81185E+03  3.42992E+03 -7.09502E+03  2.51765E+04  1.10926E+04
  7.10314E+03  3.09531E+04 -2.56621E+04  2.90817E+04 -6.31774E+04  4.13875E+03 -5.93746E+04 -4.48396E+04
 -1.07822E+04 -6.44918E+04  3.81124E+04 -4.84061E+04  6.02937E+04 -3.27969E+03  3.13299E+04  3.06608E+04
 -3.41054E+03  3.01995E+04 -3.03788E+04  8.41637E+03 -2.56711E+04 -6.76500E+03 -1.08007E+04 -1.51769E+04
 -1.14219E+04 -1.19409E+04  6.37160E+02 -2.16517E+04  1.17469E+04 -2.01374E+04  1.49132E+04 -1.53070E+04
  1.52496E+04  3.27889E+03 -8.05041E+03  1.18345E+04 -1.63071E+04 -1.20268E+03 -7.16787E+03 -3.35872E+04
  2.20041E+04 -4.47248E+04  4.80196E+04 -2.13052E+04  4.84631E+04  1.99198E+04  1.74534E+04  4.27387E+04
 -1.84276E+04  3.46540E+04 -2.32726E+04  3.22749E+03 -1.07830E+04 -2.87706E+04  2.24141E+04 -3.04730E+04
  3.90976E+04 -1.21540E+04  3.36484E+04  2.21486E+04  1.70986E+04  4.47070E+04 -7.06667E+03  4.68088E+04
 -3.20807E+04  2.81731E+04 -3.74502E+04  1.31573E+04 -4.23782E+04 -2.00244E+04 -2.00560E+04 -4.02498E+04
  4.81519E+03 -3.95319E+04  3.19582E+04 -1.53941E+04  3.09999E+04  1.52123E+04  5.29186E+03  1.86058E+04
 -1.33536E+04  7.30566E+03 -1.06425E+04 -3.53396E+03  6.86784E+03 -1.04601E+04  1.94915E+04  5.53535E+03
  1.78727E+04  2.27288E+04 -7.16185E+03  2.58126E+04 -2.22535E+04  1.19662E+04 -2.75800E+04 -6.42628E+03
 -1.95350E+04 -1.35440E+04 -1.28536E+04 -2.37571E+04  4.84994E+03 -1.86209E+04  1.56834E+04 -1.83030E+04
  2.58000E+04 -1.43076E+04  3.47660E+04  1.46932E+03  2.39913E+04  2.08543E+04  8.62559E+02  3.79939E+04
 -1.70067E+04  2.87868E+04 -2.90108E+04  1.14406E+04 -2.24093E+04 -9.98020E+03 -3.67643E+03 -1.30592E+04
  1.89617E+03 -7.12236E+03 -5.04396E+03  9.31746E+03 -1.57162E+04  5.51220E+03 -1.90996E+04 -1.09520E+04
 -1.33939E+04 -1.25945E+04  5.26217E+03 -2.66625E+04  1.66498E+04 -1.67181E+04  1.74995E+04 -3.33790E+03
  1.01933E+04  1.12605E+04 -1.25413E+03  1.56731E+04 -1.21587E+04  1.07908E+04 -1.15971E+04 -6.93063E+02
 -1.54905E+04 -1.31988E+04 -3.26464E+03 -2.15199E+04  1.10122E+04 -2.08639E+04  1.28493E+04 -7.87813E+03
  1.89885E+04  2.87121E+03  1.19579E+04  4.48812E+03  4.13836E+03 -3.55895E+03  7.49378E+03 -5.01158E+03
  1.85253E+04  6.15233E+03  1.89438E+04  1.52453E+04  1.62143E+04  3.05919E+04 -4.90584E+03  3.08687E+04
 -1.82165E+04  2.85290E+04 -2.67408E+04  1.25168E+04 -3.20521E+04 -1.33260E+03 -2.68943E+04 -2.16702E+04
 -1.16126E+04 -2.73180E+04  4.25242E+03 -2.78260E+04  2.14545E+04 -9.90952E+03  2.09367E+04  2.22951E+03
  6.63913E+03  1.37217E+04 -9.24648E+03  1.68455E+04 -1.66991E+04  2.20220E+03 -1.26223E+04 -1.13588E+04
 -4.21455E+01 -1.17634E+04  9.58928E+03 -1.00271E+04  1.08266E+04  2.66652E+02 -2.55512E+03  4.70393E+03
 -3.13191E+03  4.70226E+03 -7.14484E+03 -2.34788E+03  2.64923E+03 -1.59396E+04  8.26327E+03 -1.50224E+04
  1.75589E+04 -1.03916E+04  1.90948E+04 -4.30340E+02  1.50298E+04  7.74556E+03  5.62856E+03  2.12089E+04
  1.59758E+03  2.48830E+04 -1.15118E+04  1.13679E+04 -1.79651E+04  4.07829E+03 -7.23326E+03 -5.51691E+03
 -1.77201E+03 -8.96338E+03 -1.05268E+03 -2.07828E+03 -5.13119E+03  6.44605E+03 -5.75810E+03  9.03928E+02
 -7.61493E+03  2.96562E+03 -8.59682E+03 -4.25482E+03 -5.69215E+03 -1.01891E+04  4.73790E+03 -9.19986E+03
  8.21301E+03 -8.22218E+03  5.88580E+03  2.73801E+03 -4.23616E+03  3.55615E+03 -2.69135E+03  2.60080E+02
 -6.64124E+03 -7.46033E+03 -3.88736E+02 -1.21799E+04  5.90260E+03 -1.39291E+04  8.47867E+03 -4.69859E+03
  1.68035E+04 -2.34737E+03  1.07861E+04  9.52144E+03  3.41081E+03  1.09731E+04 -4.47713E+03  9.04148E+03
 -7.77607E+03  2.52690E+03 -4.93180E+03 -5.29673E+03  2.23400E+03 -3.65245E+03  5.39108E+03 -4.28467E+03
  4.02250E+03  5.30463E+03 -3.79836E+03  7.97584E+03 -1.84402E+03  5.34183E+03 -5.32505E+03  3.40308E+03
 -1.10563E+04 -6.77349E+03 -5.51897E+02 -1.31358E+04  7.80681E+03 -9.52359E+03  4.24620E+03  1.27570E+03
 -1.40505E+03  1.54428E+03 -8.60664E+03  7.18901E+03 -9.07990E+03  1.77710E+03 -3.57647E+03 -7.63646E+03
 -5.56548E+03 -7.71009E+03  3.16432E+03 -1.06409E+04  1.03114E+04 -1.06071E+04  8.67643E+03  3.29897E+02
  4.79068E+03  1.20071E+04  4.46650E+02  1.08038E+04 -1.02096E+04  1.08407E+03 -4.56994E+03 -3.58096E+02
 -9.66244E+03 -5.08018E+03 -2.48196E+03 -1.01616E+04  5.11561E+03 -3.37499E+03  5.02062E+03  2.42598E+02
  5.47268E+03 -1.22027E+03  3.27053E+02 -8.38586E+02 -1.05772E+03  1.97712E+03  4.18562E+03 -5.39385E+03
  5.56211E+03 -1.11670E+03  8.19514E+03 -1.44864E+03  6.24757E+03  6.52039E+03  4.66371E+03  1.19490E+04
 -4.86517E+03  1.15398E+04 -1.05594E+04  6.94967E+03 -1.87018E+04  2.93874E+03 -8.87108E+03 -5.31933E+03
 -8.19783E+03 -1.15414E+04  3.47039E+03 -8.79118E+03  6.38334E+03 -1.75722E+03  1.82934E+02 -9.77200E+02
  3.66184E+03 -4.34020E+03 -5.89542E+02 -8.35189E+03  8.33014E+03 -2.36593E+03  5.90364E+03  3.50810E+02
  8.35734E+03  4.49347E+02  2.99388E+03  4.21416E+03  4.50632E+03  8.36329E+03 -2.71028E+03  4.35372E+03
 -3.70512E+03  2.70181E+03 -7.30943E+02 -4.82441E+03  3.12346E+02 -1.01708E+04  1.70854E+03 -2.51871E+03
  6.07922E+03 -9.58746E+02  1.09866E+04  4.89803E+03  6.46422E+03  8.24621E+03  3.61063E+03  6.03049E+03
 -7.60887E+03  9.06918E+03 -5.24156E+02  1.24397E+03 -3.18185E+03 -9.24213E+02  6.84872E+01  1.06729E+03
 -5.32384E+03 -3.54400E+03  1.60242E+03  6.53772E+03 -3.88358E+03  3.13765E+03 -1.31914E+03 -1.19284E+03
 -4.48106E+03 -7.25302E+03 -2.20083E+03 -5.78370E+03  2.28738E+03 -1.02301E+04  6.47689E+03 -3.72427E+03
  8.67579E+01  5.89173E+03 -2.54341E+03  9.21825E+03  7.45096E+02  8.45382E+03 -2.92805E+02  2.22014E+03
 -9.04335E+03  2.21092E+03 -8.69591E+03 -4.17606E+03  2.63191E+03 -5.42914E+03  4.48626E+03  6.64165E+01
  7.66626E+03  6.12660E+02  3.86848E+03  3.67227E+01  1.38980E+03 -1.00824E+03  5.02579E+02  4.56483E+03
  4.78179E+03 -8.17635E+02  3.98208E+03  4.87239E+03 -3.00297E+03  1.54358E+02  1.97836E+03  8.17461E+02
 -3.50686E+03  9.27577E+03 -1.01412E+04  3.65402E+03 -1.28887E+04  3.16495E+03 -6.23275E+03  5.55772E+02
  2.54303E+03 -3.10463E+03 -1.67977E+03 -1.14905E+04  4.80670E+03 -5.93689E+03  6.29524E+03 -3.39979E+03
  2.17300E+03  1.19608E+03  4.21170E+03  7.07858E+03 -6.05364E+02  2.35929E+03 -5.66229E+03  9.75293E+02
  5.65884E+02 -3.49601E+03  1.08489E+03 -2.65118E+03 -1.06103E+03  9.01337E-01  2.88182E+03  3.34996E+02
  4.17604E+02  1.83344E+03  1.92067E+03 -2.10316E+03 -4.98277E+03  2.95594E+03  2.26786E+03 -1.92792E+03
  4.64237E+03  1.68545E+03  9.94672E+02 -1.39225E+03  1.64666E+03  3.86570E+03 -3.21245E+03  7.21388E+03
 -6.36945E+03  2.86663E+03 -1.44075E+03 -4.10040E+03 -3.45670E+03 -4.07325E+03 -1.03610E+02 -1.95689E+03
  4.54011E+03  5.89919E+02 -2.86436E+03 -5.06189E+03  1.99497E+03  1.43185E+03  2.20937E+03 -3.15192E+03
 -3.91980E+03  8.53180E+03 -1.87468E+03  1.95526E+02 -6.01263E+03 -3.03595E+03  6.97459E+02 -1.96256E+03
  5.71507E+03  7.86061E+02 -1.31346E+01 -6.88616E+03  3.92564E+03  2.23010E+03 -1.66210E+02  1.82644E+03
 -1.34329E+03 -1.10304E+03 -2.76020E+03 -4.02302E+02  4.50708E+03 -2.63677E+03  4.05799E+03 -5.73339E+03
  5.43290E+03 -4.23784E+03  7.86468E+03  4.51811E+03  2.56420E+03  1.77274E+02  1.69116E+02  1.68858E+03
 -2.67282E+03  5.02091E+02 -4.12923E+03  8.56366E+02  4.43323E+03 -4.82951E+03  4.76601E+03  4.37505E+03
  5.82962E+03 -6.73428E+03 -6.30738E+02  1.65110E+03  2.09332E+03  1.70232E+02 -7.31558E+02  1.76595E+03
 -2.11781E+03  6.53813E+03  6.78215E+02 -2.22944E+03 -4.11088E+03  1.31624E+03 -2.09329E+03  4.16734E+03
 -1.46859E+03 -2.30531E+03 -1.19883E+03 -2.87465E+02 -2.33388E+03 -1.42121E+03 -6.75567E+03 -5.04321E+02
  6.71416E+02 -4.37277E+03 -1.18660E+03 -3.14569E+03  8.84171E+03 -7.18372E+03  3.40323E+03 -9.89570E+00
  2.69800E+03 -3.73825E+03  1.20936E+03  8.17825E+03  1.19491E+03  1.41459E+03 -6.70361E+02  1.81354E+03
 -1.62494E+03  4.83499E+03  1.02034E+03  8.82498E+02  3.51855E+02 -1.77476E+03 -1.21398E+03  2.35978E+03
  1.56584E+03 -2.26191E+03  1.08278E+03 -3.22697E+02  3.11934E+03 -5.22792E+03  2.71069E+03  1.43789E+03
  6.28536E+02  4.31420E+03  1.15178E+03 -1.11548E+03  2.72126E+03  4.30997E+03  6.36019E+03  4.62357E+03
  2.40092E+03  7.90928E+03 -4.32943E+03  1.34127E+03 -7.75745E+03 -1.26684E+03 -4.02501E+03 -4.70718E+03
 -5.44300E+03 -3.39032E+03  7.27308E+02 -8.81140E+03  6.95144E+02 -2.78671E+03  5.35878E+03  1.79630E+03
 -2.32149E+03 -6.91920E+01 -1.07313E+02  2.77577E+03  1.95893E+03 -2.84609E+03  2.00878E+03 -4.72892E+03
  1.18857E+03 -1.36338E+03  5.05536E+03  2.59531E+03  1.93320E+03  3.68800E+03  2.65413E+03  2.75195E+02
 -5.48603E+03  2.28330E+03 -4.55053E+03  4.56774E+02 -2.51805E+03  2.98691E+03 -1.19620E+03 -4.95366E+02
 -4.57957E+02 -1.70129E+03  7.73503E+03  6.09561E+02  2.75953E+03  4.08148E+02  6.80404E+02  3.67374E+03
 -2.64395E+02  5.99221E+03  1.81839E+02 -1.89296E+03 -7.63497E+03  3.58900E+02 -6.01739E+02  1.08194E+03
  2.45645E+03 -6.49207E+02 -5.97104E+01 -8.30443E+02 -9.67303E+02 -2.76112E+03 -1.24004E+03 -2.54707E+03
 -8.48305E+03 -3.67941E+02  2.66878E+03 -4.27554E+01  2.24575E+03  8.60967E+02  5.73829E+02 -4.27829E+03
  3.84722E+03 -2.35869E+03 -1.71778E+03 -3.17380E+03  1.67790E+03  1.19885E+03  5.94938E+02  3.93509E+02
