 $NMID ID='MM_0lb_SNR50_12hz_g60_18.RAW', FMTDAT='(8E13.5)'
 TRAMP=1., VOLUME=1. $END
  3.07852E+05  6.81646E+03  3.38039E+05  2.49623E+05  7.93253E+04  3.38401E+05 -1.37872E+05  2.57747E+05
 -1.89466E+05  8.45077E+04 -1.12002E+05 -3.70643E+04  2.73919E+02 -4.95055E+04  5.09983E+04 -2.16946E+03
  3.12397E+04  4.98376E+04 -1.38140E+04  7.84070E+04 -6.17239E+04  6.33517E+04 -8.88331E+04  3.11166E+04
 -8.60869E+04 -1.05153E+04 -5.98758E+04 -4.86553E+04 -1.46430E+04 -6.47729E+04  2.86969E+04 -4.48123E+04
  3.99419E+04 -2.50247E+02  1.50876E+04  4.48994E+04 -3.82463E+04  4.76006E+04 -6.63597E+04  2.04799E+03
 -5.40459E+04 -5.63879E+04 -7.43215E+03 -7.91513E+04  3.32173E+04 -5.91931E+04  4.96159E+04 -1.71316E+04
  4.17830E+04  1.14570E+04  3.99994E+04  2.74421E+04  1.89592E+04  3.13108E+04 -7.30202E+03  2.72024E+04
 -1.87106E+04  1.44292E+04 -1.76536E+04 -5.03577E+03  7.13556E+03 -1.10982E+04  2.06536E+04  1.13785E+04
  1.14577E+04  3.97097E+04 -3.17536E+04  4.14214E+04 -6.60742E+04  1.14774E+03 -5.09193E+04 -4.63629E+04
 -1.83740E+04 -6.20402E+04  4.15173E+04 -4.61099E+04  6.33660E+04  1.11410E+03  3.95404E+04  3.59686E+04
 -6.23714E+03  3.95186E+04 -2.98250E+04  2.21859E+04 -3.20920E+04 -2.43718E+03 -1.96401E+04 -1.06192E+04
 -1.17984E+04 -1.28425E+04  2.40562E+03 -1.83023E+04  8.81451E+03 -2.34945E+04  1.44364E+04 -1.25639E+04
  1.53118E+04  6.16507E+02 -1.37310E+04  1.07338E+04 -2.37562E+04 -6.41681E+03 -8.09869E+03 -3.34247E+04
  2.94624E+04 -5.36387E+04  4.39210E+04 -2.16190E+04  4.36047E+04  2.07380E+04  1.75036E+04  4.65642E+04
 -1.46513E+04  3.61005E+04 -3.01540E+04  5.00305E+03 -1.41849E+04 -2.64385E+04  1.88438E+04 -3.79744E+04
  3.87393E+04 -1.12532E+04  4.46566E+04  2.35373E+04  1.96071E+04  4.80346E+04 -1.20539E+04  5.05885E+04
 -3.66734E+04  3.41833E+04 -4.81743E+04  2.86789E+03 -4.19316E+04 -1.96961E+04 -2.69595E+04 -4.38331E+04
  1.01446E+04 -3.57931E+04  3.13892E+04 -1.19479E+04  3.34453E+04  1.50306E+04  6.84399E+03  2.23511E+04
 -1.28841E+04  5.22125E+03 -1.21129E+04 -7.44769E+03  5.92878E+03 -1.41434E+04  1.77770E+04  8.51933E+03
  1.17608E+04  2.37752E+04 -5.27811E+03  2.86748E+04 -2.34484E+04  1.65754E+04 -2.43369E+04 -4.53037E+03
 -2.31124E+04 -2.17993E+04 -9.41237E+03 -2.14675E+04 -1.11736E+03 -2.56012E+04  1.68247E+04 -1.65407E+04
  3.34505E+04 -1.69506E+04  3.57273E+04 -6.36268E+02  1.99804E+04  1.88292E+04  7.47027E+03  3.94924E+04
 -1.21760E+04  3.73905E+04 -2.73255E+04  1.18922E+04 -1.77733E+04 -8.09499E+03 -6.46215E+03 -1.25625E+04
  4.59444E+03  1.38201E+03 -3.99509E+03  6.94055E+03 -2.06609E+04  8.00090E+03 -1.87785E+04 -4.73317E+03
 -1.10535E+04 -2.19678E+04  8.31271E+03 -2.37736E+04  1.45323E+04 -1.63089E+04  2.09304E+04  1.13091E+03
  1.22833E+04  1.65201E+04 -1.47122E+03  2.05899E+04 -1.55430E+04  1.45164E+04 -1.98021E+04 -3.75470E+03
 -1.41658E+04 -2.25440E+04 -2.73633E+03 -2.63349E+04  1.57760E+04 -1.75573E+04  2.14199E+04 -9.43456E+03
  1.84194E+04 -2.92910E+02  1.79638E+04  1.19265E+04  5.92683E+03  8.21773E+03  6.26778E+03 -4.71330E+03
  1.82613E+04  2.61579E+03  2.48942E+04  2.51181E+04  1.77542E+04  4.07520E+04 -3.80945E+03  4.19658E+04
 -1.72859E+04  3.60458E+04 -3.63616E+04  2.34915E+04 -3.92599E+04  1.18845E+03 -3.39959E+04 -2.30757E+04
 -1.39214E+04 -3.61656E+04  8.21196E+03 -3.01327E+04  2.78366E+04 -1.28102E+04  1.94839E+04  5.80947E+03
  1.10026E+04  2.05860E+04 -9.30047E+03  1.67580E+04 -1.89728E+04  2.63393E+03 -2.19611E+04 -1.31845E+04
 -3.60783E+03 -1.65436E+04  1.23471E+04 -1.34615E+04  1.17776E+04 -1.19548E+03  5.60761E+03  8.10091E+03
 -8.12201E+03 -7.38553E+02 -5.28950E+03 -3.87866E+03  4.06548E+03 -8.75762E+03  1.23184E+04 -1.84483E+04
  2.30703E+04 -7.19144E+03  2.57549E+04 -4.62458E+03  1.83035E+04  1.24488E+04  8.91839E+03  2.73254E+04
 -4.92389E+03  3.20533E+04 -1.94859E+04  1.33386E+04 -2.10295E+04  4.32462E+03 -7.94660E+03 -5.51762E+03
 -5.61814E+03 -8.20080E+03  3.56151E+03  2.91354E+03 -2.38258E+03  1.70468E+03 -3.89035E+03  5.52237E+03
 -9.04520E+03  3.55098E+03 -1.06368E+04 -1.21183E+04 -8.12298E+03 -1.78769E+04  3.00078E+03 -1.38497E+04
  9.26719E+03 -8.55075E+03  9.01944E+03 -2.62069E+03 -2.41885E+03  9.02769E+03 -8.14646E+03 -5.29144E+03
 -3.72494E+03 -7.61737E+03 -2.42053E+03 -7.37173E+03  5.38358E+03 -5.92757E+03  2.12440E+04 -7.76192E+03
  2.38306E+04  1.34715E+03  1.50476E+04  9.05176E+03  2.46973E+02  1.97572E+04 -7.32583E+03  1.03910E+04
 -7.93096E+03  9.08056E+03 -5.89533E+03  1.55092E+03  6.29769E+03 -6.58612E+03  6.68331E+03 -1.48185E+03
  5.42293E+03  5.97896E+03 -2.94204E+03  1.43008E+04 -7.17047E+03  1.20285E+04 -1.55109E+04  8.34142E+03
 -6.22062E+03 -5.32003E+03  2.96843E+03 -1.00873E+04  4.13819E+03 -2.01388E+03  7.29176E+03  1.28315E+03
  4.92495E+03  8.88158E+03 -6.66500E+03  4.97689E+03 -1.46072E+04  4.60788E+03 -8.06989E+03 -1.00501E+04
 -7.45921E+03 -1.44123E+04  6.39270E+03 -1.91896E+04  7.32439E+03 -1.08350E+04  1.48570E+04 -6.49235E+01
  7.56298E+03  1.21652E+04  2.39965E+03  1.65670E+04 -8.78748E+03  6.86865E+03 -1.37211E+04  1.86099E+02
 -4.60597E+03 -8.46001E+03 -4.31528E+03 -3.99864E+03  6.71948E+03 -5.93868E+03  3.31271E+03 -1.37687E+04
  5.66627E+03  2.66770E+03 -2.34898E+03  3.79685E+03 -2.34091E+03 -8.10003E+02  4.67347E+03 -2.78604E+03
  1.09579E+04 -8.96231E+02  1.01764E+04  3.42470E+03  1.66803E+04  7.63440E+03  1.08684E+04  2.02910E+04
 -4.64406E+03  2.13610E+04 -1.48294E+04  1.29378E+04 -1.60905E+04  1.16118E+03 -2.00166E+04 -2.65812E+03
 -1.34591E+04 -1.37432E+04 -1.75757E+01 -1.77194E+04  5.55578E+03 -8.21261E+03  4.33261E+03 -5.66536E+03
  5.48171E+03 -1.44304E+03  3.11860E+03 -4.20970E+03  9.38106E+03 -8.11198E+03  5.25101E+03 -7.16396E+03
  8.94650E+03  4.89676E+03  5.12862E+03  9.52116E+03 -6.47035E+03  1.28513E+04 -1.31538E+04  1.21255E+04
 -1.21592E+04  3.36351E+03 -6.94572E+03 -3.40520E+03 -3.57514E+01 -1.26014E+04  2.71818E+03 -1.76131E+04
  1.26156E+04 -1.16237E+04  1.49170E+04  4.00548E+03  1.05532E+04  9.70128E+03  5.84366E+02  1.92881E+04
 -7.55354E+03  7.20844E+03 -8.50704E+03  4.41566E+03 -9.92338E+03 -1.14805E+03 -5.50587E+02 -4.30297E+03
  1.54244E+03 -5.03485E+03 -1.55499E+03 -1.61603E+03 -3.44243E+03 -9.16006E+02 -5.68733E+03 -1.61511E+03
 -4.65217E+03 -1.19708E+04 -1.88416E+03 -4.60963E+03  7.12734E+03 -1.18608E+04  1.29693E+04 -1.39702E+03
  1.31795E+04  2.01659E+03  4.20856E+03  1.19954E+04  1.50255E+03  1.02833E+04 -8.96418E+03  7.94393E+03
 -1.21903E+04  4.67147E+03 -9.86090E+03 -6.52477E+03  4.23575E+02 -7.05067E+03  5.06584E+03 -1.18966E+04
  8.72416E+03 -2.32909E+03  3.05185E+03  3.66762E+02 -1.94147E+03  6.34218E+03  2.58351E+02  5.61340E+01
  3.65426E+03  3.37735E+03  4.85983E+03 -6.14504E+02  3.01692E+03  7.08437E+03  1.16626E+03  8.25330E+03
  4.43073E+03  5.34470E+03 -8.28098E+03  8.12155E+03 -1.22550E+04  2.24574E+03 -1.51738E+04 -7.45633E+03
 -3.37062E+03 -1.16079E+04  2.72391E+03 -1.82640E+04  7.22421E+03 -5.89565E+03  9.08254E+03 -1.97528E+03
  5.20915E+03 -2.54416E+02 -3.49661E+02  1.77765E+03 -4.00817E+03  7.25059E+03 -9.19455E+03  4.75288E+02
  6.96200E+02 -4.65487E+03 -3.72186E+02 -7.29126E+03  5.18451E+03 -2.75542E+03 -2.13286E+03  3.47073E+03
 -2.45637E+02  3.61324E+02  1.71763E+03  1.98690E+03  3.84615E+03  2.74214E+03 -9.91422E+01  1.64682E+03
 -4.60986E+01  1.49132E+03  6.20812E+03  7.61019E+03  6.48004E+03  1.29316E+03 -1.03894E+04  5.27041E+03
 -2.19352E+03  5.82979E+03 -7.80010E+03 -2.94314E+03 -7.96064E+02  1.15456E+03 -1.90028E+03 -5.11927E+03
  3.11680E+03 -2.47256E+03 -7.49451E+02 -7.47666E+03 -9.50676E+01  3.16091E+03  7.00944E+03  4.95677E+03
 -5.41872E+03  1.70963E+03 -7.68377E+03 -5.11191E+03 -5.05771E+03 -7.41737E+03 -1.01636E+02 -6.43776E+03
  5.55022E+03 -1.06181E+03 -1.76696E+03  2.06853E+03  5.93546E+03  3.58510E+03 -2.17688E+03  5.13712E+03
  3.20667E+03  4.82001E+03 -7.70558E+03 -5.51457E+03  2.31387E+03 -3.75598E+03  1.24948E+04 -4.84155E+03
  7.41531E+03 -1.97554E+03  7.24642E+03  3.64729E+03  2.10163E+03  7.50782E+02  7.39819E+02  4.86777E+03
  2.56596E+03  2.96585E+03 -8.24122E+03  2.77699E+03 -4.35570E+03 -7.67787E+03 -1.56964E+02  2.02491E+03
  5.70102E+03 -6.29597E+03  6.53908E+03  6.10224E+01 -4.49376E+03  3.04186E+03  2.54502E+03  2.83575E+03
 -2.86179E+03 -1.21081E+03  5.90193E+02  6.95508E+03  8.29341E+02  6.57935E+03  1.52524E+03  6.12933E+03
 -2.93868E+03  6.36984E+03 -4.60253E+03  3.22530E+03 -8.24179E+03 -4.40876E+03 -1.13918E+04 -1.02686E+04
 -8.19460E+03 -8.99551E+03  6.78099E+03 -6.22271E+03  9.31366E+03 -1.16395E+04  1.10288E+04 -5.80013E+03
  9.09012E+03  7.38025E+02  6.76783E+03  3.38026E+02  2.80273E+02 -9.89748E+02 -3.40208E+03  5.52646E+03
 -1.66876E+03  3.95250E+03  1.16418E+03  2.13329E+02 -3.33452E+01  5.80096E+03 -1.99563E+03 -2.82924E+03
 -2.83036E+03  2.03823E+03  9.73913E+02  2.97840E+03  3.31235E+03  1.80245E+03 -2.63826E+03  3.65879E+02
  9.51149E+03 -7.68062E+03  8.14804E+03  3.79985E+03  9.53298E+03  2.83712E+03  7.34148E+03  9.28509E+03
 -1.86798E+03  9.45963E+03  1.92866E+03  1.85523E+03 -8.88075E+03  4.61232E+03 -5.54858E+03  7.01679E+02
 -5.42819E+03 -1.18788E+04  1.14871E+03 -4.54785E+03  8.76269E+03 -2.02450E+03  1.38996E+04  1.80910E+03
 -2.48488E+03  4.91806E+03  8.18614E+01  4.33468E+03 -6.24054E+03  4.80350E+03  1.89487E+02  1.15386E+03
  2.84533E+03 -8.76842E+02  2.49227E+03 -1.94367E+02  2.71504E+03  1.12692E+04  3.55106E+03 -2.64767E+03
 -5.07691E+03 -5.03792E+02 -9.04088E+03 -3.39250E+03 -5.60534E+03 -4.43281E+03 -2.90005E+02 -6.95478E+03
 -5.63417E+02 -3.42887E+03  7.49822E+03  1.90735E+03  5.14007E+03  2.63041E+03  7.93315E+02  3.14601E+03
 -1.24115E+03  6.51345E+03 -4.87772E+03  4.85084E+03 -1.98947E+02  4.39244E+03  1.02811E+03 -1.88520E+02
 -2.26193E+03  4.25839E+03 -2.74908E+03  2.04300E+03 -1.62077E+03  1.39635E+03 -2.33591E+03  7.06859E+02
 -5.92353E+03 -1.02053E+02 -5.15715E+03 -4.62525E+03  5.40072E+03 -7.78839E+03  5.37042E+03 -6.20623E+02
  4.11415E+03 -2.58220E+03  9.95741E+03  4.22383E+02  3.58853E+03  3.26661E+03 -6.18124E+03 -3.43484E+02
