 $NMID ID='MM_0lb_SNR50_19hz_g50_24.RAW', FMTDAT='(8E13.5)'
 TRAMP=1., VOLUME=1. $END
  3.09310E+05 -3.70182E+00  3.38363E+05  2.50636E+05  8.40520E+04  3.38249E+05 -1.28136E+05  2.53151E+05
 -1.86544E+05  8.94146E+04 -1.13297E+05 -3.00960E+04  4.50133E+03 -5.41487E+04  5.45027E+04 -3.14501E+02
  3.47737E+04  5.16817E+04 -1.16195E+04  7.63901E+04 -5.72362E+04  6.38452E+04 -8.61487E+04  3.79151E+04
 -8.28497E+04 -1.14556E+04 -5.87863E+04 -5.08604E+04 -1.74701E+04 -7.12354E+04  2.24070E+04 -4.08933E+04
  3.86394E+04  4.74393E+03  1.49161E+04  4.92421E+04 -3.15164E+04  4.41824E+04 -6.32543E+04 -2.96108E+03
 -5.52320E+04 -5.76513E+04 -9.94817E+03 -7.05896E+04  3.72620E+04 -5.57256E+04  4.58628E+04 -1.41112E+04
  4.28858E+04  7.21563E+03  2.98919E+04  2.60864E+04  1.55195E+04  2.85020E+04 -5.08350E+03  2.83625E+04
 -2.35148E+04  1.59027E+04 -1.79132E+04  1.26186E+03  6.01541E+03 -9.68339E+03  2.30930E+04  6.89864E+03
  5.44112E+03  3.30181E+04 -3.36221E+04  3.31094E+04 -6.05543E+04  2.67438E+03 -5.32882E+04 -4.17382E+04
 -1.33058E+04 -5.96607E+04  3.48009E+04 -4.52416E+04  5.39520E+04 -3.44269E+02  3.43591E+04  2.69582E+04
 -6.46312E+03  3.35031E+04 -2.82443E+04  1.49933E+04 -2.60236E+04 -1.35084E+03 -1.37909E+04 -1.05819E+04
 -8.00286E+03 -1.31100E+04 -6.91750E+02 -1.23988E+04  3.51445E+03 -2.41303E+04  1.41000E+04 -1.25587E+04
  1.74252E+04  2.13094E+03 -7.31761E+03  1.30373E+04 -2.05764E+04 -5.02377E+03 -6.35034E+03 -2.96551E+04
  2.05145E+04 -3.86000E+04  4.43273E+04 -1.68635E+04  4.04353E+04  1.95553E+04  1.41789E+04  4.00368E+04
 -1.67642E+04  2.63257E+04 -2.61127E+04  2.04658E+02 -1.34928E+04 -2.62060E+04  2.09129E+04 -2.96788E+04
  4.16612E+04 -1.07765E+04  2.94400E+04  2.37379E+04  1.45009E+04  4.41374E+04 -8.09523E+03  4.50684E+04
 -2.58282E+04  2.76859E+04 -3.56707E+04  1.06283E+04 -3.58724E+04 -1.60989E+04 -2.54805E+04 -3.41560E+04
  5.32758E+03 -3.20555E+04  2.93259E+04 -1.24436E+04  2.83737E+04  1.03695E+04  4.26563E+03  1.83355E+04
 -1.12926E+04  1.55578E+02 -1.02461E+04 -7.90870E+03  4.85767E+03 -7.63139E+03  1.62039E+04  7.56224E+03
  1.38135E+04  2.31111E+04 -9.02556E+03  2.75135E+04 -1.84759E+04  8.37703E+03 -2.25339E+04 -3.39889E+03
 -2.01740E+04 -1.87719E+04 -5.63871E+03 -1.77654E+04  3.36417E+03 -1.11016E+04  1.17026E+04 -1.49784E+04
  1.90988E+04 -1.29720E+04  2.90098E+04  3.10805E+03  2.27952E+04  1.57232E+04  4.43251E+03  3.43820E+04
 -1.63311E+04  3.23469E+04 -2.76542E+04  1.30559E+04 -2.19939E+04 -8.72638E+03 -6.35606E+03 -1.58084E+04
  1.78413E+03 -5.03851E+03 -1.03465E+03  1.45130E+03 -1.40057E+04  3.23663E+03 -1.49340E+04 -5.29495E+03
 -1.27364E+04 -1.57615E+04  6.98203E+03 -1.66088E+04  1.19214E+04 -1.20521E+04  1.57115E+04  7.34107E+02
  1.12223E+04  8.24761E+03  9.00881E+02  1.31724E+04 -1.03390E+04  8.75439E+03 -1.74549E+04 -1.87778E+03
 -1.25075E+04 -1.38317E+04 -5.56293E+03 -2.01825E+04  9.16288E+03 -1.70902E+04  1.63234E+04 -7.60695E+03
  1.04364E+04  2.80126E+03  7.46013E+03  5.27263E+03  4.22078E+03 -1.16327E+03  9.69092E+03 -1.03031E+03
  1.05904E+04  3.38530E+03  9.78801E+03  1.71237E+04  8.17308E+03  2.62019E+04 -3.46342E+03  2.94512E+04
 -1.47782E+04  2.48612E+04 -2.60020E+04  1.32364E+04 -2.68902E+04 -3.69767E+03 -1.88405E+04 -1.39358E+04
 -1.20755E+04 -2.14566E+04  1.04190E+04 -2.09453E+04  1.79383E+04 -9.19109E+03  1.66929E+04  4.58706E+03
  5.85158E+03  1.14848E+04 -8.17487E+03  1.03654E+04 -1.53324E+04  7.29066E+01 -1.00898E+04 -8.12650E+03
  3.80811E+03 -1.42204E+04  6.70172E+03 -1.19157E+04  6.00162E+03 -1.48176E+03 -3.73958E+02  5.92096E+03
 -8.32944E+03  9.20759E+02 -2.96596E+03 -7.80737E+03 -2.92391E+03 -6.57005E+03  4.43764E+03 -7.52394E+03
  1.45876E+04  3.97683E+02  9.10074E+03  3.84589E+02  8.64401E+03  7.27372E+03  7.53754E+03  1.56399E+04
 -9.58637E+02  1.87529E+04 -7.89795E+03  8.43667E+03 -1.13120E+04  8.90604E+03 -6.76543E+03 -1.77863E+03
 -5.41545E+03 -4.02590E+03  1.39722E+02  4.97378E+03  1.35925E+03 -3.96879E+01 -7.09197E+03  3.04283E+03
 -4.11835E+03 -6.38054E+02 -5.84264E+03 -5.30071E+03 -3.01275E+03 -9.39103E+03  1.48165E+03 -1.16816E+04
  4.66375E+03 -6.03362E+03  6.38183E+03  3.10073E+03  3.59054E+03  1.76302E+03 -3.40154E+03  1.39731E+02
 -6.60280E+03 -5.77719E+03 -1.02515E+03 -9.41158E+03  6.32866E+03 -8.40923E+03  1.12704E+04 -3.03153E+03
  8.70370E+03  3.71490E+03  7.76995E+03  3.38135E+03  1.59672E+03  8.18785E+03 -3.01482E+03  5.57066E+03
 -9.38360E+03  8.47555E+03 -2.71940E+03  6.71756E+02 -5.34270E+02 -3.46264E+02  5.37790E+03 -1.70380E+03
  2.28854E+03  6.70704E+03  4.48652E+03  4.49076E+03 -3.15818E+03  1.11203E+04 -7.30101E+03  1.70824E+03
 -2.82712E+03 -6.09294E+03  2.56088E+03 -6.43047E+03  5.46504E+03 -6.64242E+03  5.45593E+03  3.57626E+03
 -1.16033E+03  5.59930E+03 -2.74565E+03  7.82510E+03 -2.68051E+03  5.63461E+03 -5.61984E+03 -1.52015E+03
 -4.12182E+03 -7.05272E+03 -2.30763E+02 -5.06338E+03  2.86475E+03 -6.22950E+03  9.52991E+03 -1.68969E+02
  3.29156E+03  8.20290E+03 -2.80828E+03  3.18035E+03 -4.50367E+03  5.94094E+03 -7.12592E+03  2.53968E+03
 -6.20483E+03 -7.33224E+03 -6.79424E+02 -3.09973E+03  4.04077E+03 -4.19960E+03  2.44331E+03 -4.35829E+02
  3.06135E+03 -8.45546E+02  2.24597E+03  3.88288E+02  8.30702E+02 -1.82133E+02 -1.84873E+02 -1.80986E+03
  3.76345E+03  5.83149E+02  2.03057E+03  4.15151E+03  3.98396E+03  5.05865E+03  6.75048E+03  7.93558E+03
 -1.47121E+03  9.15939E+03 -4.06878E+03  4.61489E+03 -1.09876E+04  1.69677E+03 -5.81771E+03  1.53264E+03
 -3.54329E+03 -7.14447E+03  3.75279E+02 -4.67662E+03  3.71117E+03 -2.74867E+03  3.19407E+03 -5.66899E+02
  1.95508E+03 -3.29451E+03  4.14513E+02 -2.73075E+03  2.11364E+03 -2.03734E+03  1.29539E+03 -1.38007E+03
  4.58155E+03 -4.56823E+02  4.69020E+03  5.14337E+03 -5.74976E+02  7.79913E+03 -2.50691E+03  1.54775E+03
 -7.05727E+03 -5.82340E+03 -3.17098E+02 -5.13212E+03 -7.98183E+02 -6.72901E+03  4.04071E+03 -9.25049E+03
  1.05423E+04 -5.57445E+02  3.82193E+03  4.33194E+02  5.58212E+03  4.26282E+03  1.85954E+03  4.99901E+03
 -7.15687E+03  4.97600E+03 -1.79163E+03  3.73194E+03 -2.05621E+03 -5.92624E+02  3.13266E+03 -1.10691E+03
 -1.81708E+02  3.24623E+03 -3.37928E+03 -5.17763E+02 -8.34369E+02  2.15116E+03 -7.00451E+03 -2.71767E+03
 -2.54176E+01 -5.20673E+03 -5.10377E+02 -5.72747E+03  1.75216E+03 -7.15864E+03  2.71972E+03 -2.25508E+03
  2.98211E+03  1.63874E+03  3.66263E+03  3.79408E+03 -5.17066E+03  1.30009E+03 -1.94466E+02  1.29554E+03
 -7.69829E+03  2.27202E+03 -2.75510E+03 -5.33752E+03  2.69086E+03 -2.70936E+03  3.22847E+03 -2.88792E+03
  5.30881E+03  2.32363E+03  2.52299E+03 -2.17500E+03 -3.95142E+02  3.64250E+03  6.80444E+02 -6.05062E+02
  1.96186E+03 -1.51701E+03  5.77241E+02 -3.08879E+03 -3.28554E+03  4.59780E+02  1.24076E+03  2.74036E+03
 -4.60380E+03 -5.89926E+02 -1.07904E+03  4.51807E+03 -1.84536E+03  1.72841E+03 -1.65808E+03  8.39315E+02
 -1.70375E+02 -4.86285E+03 -1.61273E+03 -9.83120E+03  4.25175E+02 -5.13370E+03 -1.06480E+03 -2.72522E+03
  1.97330E+03  2.75201E+03 -4.67317E+03 -4.07730E+03  1.19623E+03  3.21438E+03 -1.35405E+03  6.16258E+01
 -3.22117E+03 -2.56950E+03  6.50402E+03 -2.14558E+03  4.49796E+03  1.43344E+03 -3.39079E+03  1.87837E+03
  2.61780E+03 -3.59398E+03  1.91568E+03  1.86500E+03 -3.31420E+03  4.87777E+02  2.60585E+03  9.77230E+02
 -1.05475E+03 -4.03743E+03  2.54643E+03 -1.68111E+03 -9.67646E+02 -3.48861E+03  1.75406E+02  1.18648E+03
 -3.06919E+02 -6.42629E+02  5.48441E+02 -2.50269E+03 -3.05893E+03  9.92549E+02  1.27358E+02 -4.74379E+03
 -2.27619E+02 -6.34600E+02 -3.85988E+02 -5.69286E+02 -1.83185E+03  1.24729E+03 -2.36487E+03  2.72553E+03
 -4.24686E+02 -1.66224E+03  2.16440E+03 -3.65239E+03  8.88740E+02 -3.43284E+02  5.56217E+02 -4.35399E+03
 -3.21081E+02 -1.81368E+03 -2.12112E+03  3.29122E+02 -2.88862E+03  6.44026E+02  5.01210E+03  9.74352E+01
  2.01518E+03 -3.32573E+03 -3.63633E+02 -1.91159E+03 -1.59867E+03  1.66827E+03  1.37114E+03 -4.70302E+02
  2.26393E+03 -7.47350E+02  3.31664E+03  3.26226E+03  4.50158E+03  4.26339E+02  1.40028E+03  1.29591E+03
  5.25338E+02 -1.45057E+03 -3.06841E+03 -1.86864E+03 -2.34806E+03 -4.39395E+03 -6.08437E+02  2.47949E+03
  3.27439E+03 -2.00031E+03 -1.61964E+03  5.40528E+02 -2.71634E+03  6.91757E+03  2.16544E+03  3.14863E+03
  1.10474E+03 -1.38355E+03 -1.61320E+03  1.82504E+02  1.72967E+03  2.49755E+03  1.48744E+03  3.37963E+03
 -3.14579E+03  2.55552E+03  4.44792E+03 -2.78354E+02 -4.52625E+03  2.47215E+03 -4.38941E+02 -1.40891E+03
 -1.19820E+03 -1.04779E+03  3.49813E+02  1.59801E+03 -1.71508E+03 -2.47369E+03  4.74447E+03 -3.12730E+03
 -1.86893E+03  2.29221E+03  1.02911E+03 -2.24961E+03 -2.16938E+03  1.41229E+03  3.83273E+03 -1.32466E+03
  7.37906E+02 -1.05233E+03 -2.96593E+03 -5.32223E+03 -9.48307E+02 -2.44996E+03  2.58310E+03 -4.09006E+01
 -1.03094E+03  4.88693E+02 -3.28999E+03  3.34924E+03  4.86743E+02 -1.54423E+03 -4.56960E+03  2.43079E+03
  2.46348E+03 -1.75377E+03 -1.88867E+03 -2.38398E+03  6.86898E+02  2.40243E+03 -2.00494E+03  3.42518E+03
 -4.13048E+03  4.44761E+03 -2.11273E+03 -3.25417E+02 -1.52917E+03  1.64790E+03  3.49351E+03 -8.21408E+02
 -1.59534E+03 -2.07576E+03 -1.10926E+03 -5.49267E+03 -4.81363E+02 -2.82157E+02 -2.25165E+03 -9.80431E+02
 -8.27156E+02 -3.87855E+03 -1.92141E+03  1.48363E+03 -5.64795E+03  2.17288E+03 -1.89717E+03 -5.94619E+03
 -2.58779E+03  1.37363E+03 -3.72217E+03 -1.21239E+03  8.28692E+01  2.73231E+03 -1.60138E+03 -1.88792E+03
 -1.06781E+02  3.22492E+03  3.85191E+03  2.87887E+02  1.77101E+02 -2.19734E+03 -5.51428E+03  3.30872E+02
  6.01558E+00  1.19021E+03  1.19690E+03 -4.71334E+03  2.33822E+03 -6.14443E+03 -1.64585E+02  3.11227E+03
  1.77692E+02  2.14579E+03  5.12423E+03  3.45874E+03 -3.12873E+02  2.20795E+03  6.58131E+02  5.26487E+02
  1.46534E+03 -4.52766E+03 -4.90728E+03 -3.05620E+02 -2.46741E+03 -3.15456E+03 -3.74529E+03 -5.66004E+02
  2.42243E+03  2.03697E+03 -2.34336E+03 -8.10551E+03  4.61438E-01  2.84754E+02 -1.24169E+03  8.42946E+02
  1.03915E+03  2.08075E+03 -3.51842E+02  6.20300E+03  6.07445E+01  1.32493E+03  3.32679E+03  3.45853E+03
