 $NMID ID='MM_0lb_SNR50_7hz_g40_80.RAW', FMTDAT='(8E13.5)'
 TRAMP=1., VOLUME=1. $END
  3.14309E+05  5.56787E+03  3.41308E+05  2.51070E+05  8.28046E+04  3.38935E+05 -1.36203E+05  2.52223E+05
 -1.84088E+05  8.70632E+04 -1.10364E+05 -2.89572E+04 -3.20392E+03 -5.82933E+04  5.28339E+04 -4.07898E+03
  3.22397E+04  6.03064E+04 -2.02361E+04  7.51342E+04 -6.68351E+04  6.23352E+04 -8.40568E+04  3.86298E+04
 -8.52624E+04 -9.10428E+03 -5.33375E+04 -6.01609E+04 -1.24752E+04 -7.85597E+04  3.46244E+04 -4.74506E+04
  3.99233E+04  2.34330E+03  2.01857E+04  5.16687E+04 -3.77645E+04  5.03123E+04 -6.72206E+04 -1.63742E+03
 -5.77184E+04 -4.64320E+04 -3.30759E+03 -7.77498E+04  3.95526E+04 -4.71130E+04  4.63586E+04 -1.56766E+04
  3.66023E+04  5.85205E+03  3.04867E+04  2.98350E+04  1.99313E+04  3.90663E+04 -1.78570E+03  3.37926E+04
 -2.81472E+04  1.23095E+04 -1.98962E+04 -2.88662E+03 -2.48887E+03 -6.46689E+03  1.73746E+04  1.97644E+04
  6.26753E+03  3.88077E+04 -3.05870E+04  3.13190E+04 -6.33460E+04  5.50060E+03 -5.33973E+04 -4.00154E+04
 -1.43667E+04 -5.96328E+04  4.39599E+04 -4.39773E+04  6.28920E+04  5.99513E+02  4.15512E+04  3.59043E+04
 -6.74618E+03  4.05446E+04 -2.82844E+04  1.73702E+04 -3.22394E+04 -5.48900E+03 -1.30785E+04 -1.22864E+04
 -7.51889E+03 -1.48025E+04  4.24798E+01 -2.69933E+04  1.18959E+04 -2.08528E+04  1.36548E+04 -1.39019E+04
  1.33660E+04  9.68032E+03 -9.59148E+03  1.01585E+04 -1.57331E+04 -1.06315E+04 -6.31304E+03 -4.71803E+04
  3.12934E+04 -5.52466E+04  6.01143E+04 -2.83740E+04  5.10656E+04  2.59116E+04  1.31453E+04  4.32280E+04
 -1.56595E+04  4.09280E+04 -3.20178E+04  5.61320E+03 -1.21184E+04 -3.40210E+04  2.11861E+04 -3.38612E+04
  4.20017E+04 -1.19194E+04  4.14615E+04  3.02037E+04  2.36774E+04  4.12889E+04 -1.05093E+04  6.42226E+04
 -3.70815E+04  3.93936E+04 -4.85548E+04  1.01017E+04 -4.68651E+04 -2.86253E+04 -3.15321E+04 -3.85677E+04
  6.81539E+03 -4.59794E+04  3.74391E+04 -2.25733E+04  2.33721E+04  1.37309E+04  7.06724E+03  2.51012E+04
 -1.66348E+04  3.27331E+03 -1.28749E+04 -7.90053E+03  9.91204E+02 -9.91164E+03  2.00889E+04  1.20809E+04
  1.33571E+04  2.49761E+04 -1.98645E+03  3.07402E+04 -2.07310E+04  1.62388E+04 -2.78487E+04 -2.21073E+03
 -3.14737E+04 -1.69302E+04 -7.85629E+03 -2.33130E+04 -1.21232E+03 -2.90417E+04  2.55376E+04 -3.04478E+04
  3.86511E+04 -1.78203E+04  5.03208E+04  9.10648E+03  2.95973E+04  2.38696E+04  6.67428E+03  3.88399E+04
 -2.25729E+04  2.86713E+04 -3.32818E+04  1.41471E+04 -2.33095E+04 -1.27268E+04 -3.60171E+03 -1.55841E+04
  1.06063E+04  7.05059E+03 -8.71551E+03  5.19833E+03 -2.16110E+04  1.16592E+04 -2.45105E+04 -1.43492E+04
 -1.69151E+04 -2.44327E+04  6.83830E+03 -2.84126E+04  2.14945E+04 -2.27076E+04  3.10441E+04  5.71643E+02
  1.62850E+04  1.32586E+04  4.94291E+03  2.41358E+04 -1.78113E+04  2.02872E+04 -3.48088E+04 -5.37082E+03
 -2.43602E+04 -2.24705E+04  4.01088E+02 -2.81271E+04  9.84236E+03 -2.60407E+04  3.14047E+04 -1.33405E+04
  2.08837E+04  1.05635E+03  1.53502E+04  3.68714E+03  1.03556E+04  3.27590E+03  5.57547E+03  1.08576E+04
  1.80560E+04 -7.05865E+02  2.83550E+04  9.11796E+03  1.71598E+04  3.91738E+04  3.71380E+02  4.84200E+04
 -2.12040E+04  4.15490E+04 -4.52262E+04  2.07176E+04 -4.29675E+04 -6.94434E+03 -4.04120E+04 -3.21927E+04
 -1.07915E+04 -4.30199E+04  1.45457E+04 -3.50761E+04  3.05806E+04 -1.45489E+04  2.63519E+04  3.02699E+03
  1.24553E+04  2.01994E+04 -1.51564E+04  2.08727E+04 -2.44282E+04 -2.36868E+02 -1.47676E+04 -1.85939E+04
  4.18423E+03 -2.37999E+04  1.46404E+04 -8.83639E+03  1.59305E+04 -6.38586E+02  1.13570E+03  9.96357E+03
 -9.46918E+03  7.38801E+03 -5.50539E+03 -5.78768E+03 -2.65950E+03 -2.14144E+04  1.28892E+04 -2.53013E+04
  2.18456E+04 -8.44175E+03  2.10415E+04 -8.69591E+02  3.02378E+04  1.77172E+04  1.24435E+04  3.92774E+04
 -2.20513E+03  3.03212E+04 -2.57649E+04  1.92074E+04 -1.90987E+04  1.98290E+03 -1.43888E+04 -6.00112E+03
 -1.66262E+03 -1.36968E+04  4.77913E+03 -5.32205E+02  5.24633E+03  2.23257E+03 -5.38530E+03  6.77001E+02
 -1.28648E+04  7.49089E+03 -2.15326E+04 -1.62931E+04 -6.72206E+03 -1.98245E+04  6.77327E+03 -1.60722E+04
  1.62184E+04 -1.28664E+03  1.20263E+03 -5.21015E+02  2.74750E+01  4.78499E+03 -1.62332E+04  2.25394E+03
 -1.76960E+04 -1.02984E+04  6.87367E+03 -1.53065E+04  1.35193E+04 -2.24880E+04  2.50096E+04 -9.54444E+03
  2.31686E+04  5.93396E+03  1.20815E+04  2.63399E+04  6.96184E+03  1.86846E+04 -3.65758E+03  1.27064E+04
 -5.16270E+03  7.13032E+03 -3.97102E+02 -3.64246E+03 -4.83192E+02 -3.16593E+03  1.31499E+04 -5.04717E+03
  8.54597E+03  1.16288E+04  2.48475E+03  1.00883E+04 -1.44356E+04  1.22150E+04 -8.88141E+03 -1.23418E+02
 -1.61582E+04 -2.42971E+03 -1.31927E+02 -2.07625E+04  8.20959E+03 -1.72736E+04  1.31234E+04  5.30683E+03
 -1.55183E+03  8.23093E+03 -7.57687E+03  1.92554E+04 -1.60774E+04 -2.70185E+03 -1.74827E+04 -3.01037E+03
 -6.44101E+03 -1.58402E+04  7.13217E+03 -2.29624E+04  1.15498E+04 -1.22216E+04  1.69417E+04  2.72020E+03
  1.42724E+04  1.26317E+04 -5.10583E+03  2.30799E+04 -7.50050E+03  6.72163E+03 -1.40404E+04 -1.44314E+03
 -1.88064E+04 -1.62711E+04 -1.69292E+03 -1.35388E+04  4.81799E+03 -5.63076E+03  8.28054E+03 -5.63180E+03
  4.22336E+03  1.77760E+03 -5.38646E+03  6.77693E+03 -7.04402E+03 -8.89688E+03  3.05176E+03 -9.69149E+03
  1.42190E+04 -5.45160E+03  2.38131E+04  3.47501E+03  2.06406E+04  1.69143E+04  8.89582E+03  1.78003E+04
 -1.41002E+03  3.07541E+04 -2.50025E+04  1.59496E+04 -2.86653E+04  5.75630E+03 -2.27844E+04 -1.57087E+04
 -1.07599E+04 -1.70280E+04  2.02649E+03 -1.66005E+04  4.90523E+03 -9.66293E+03  7.46015E+03  1.14809E+02
  2.88371E+03  1.26027E+02  8.40321E+02 -6.09242E+03  1.35142E+04 -6.68689E+03  8.12934E+03  3.62662E+03
  1.27285E+04  5.36516E+03  8.62924E+03  1.54832E+04 -3.14965E+01  1.12900E+04 -1.38411E+04  1.07783E+04
 -1.08852E+04 -1.55798E+03 -1.74542E+04 -1.77851E+04 -9.74625E+02 -2.23152E+04  1.00530E+04 -2.25067E+04
  2.30805E+04 -1.24249E+04  2.44849E+04  9.31247E+03  1.24158E+04  1.91961E+04 -7.97006E+03  1.99892E+04
  1.38580E+03  1.14975E+04 -7.06671E+03  1.30807E+03 -1.17971E+04 -3.46475E+03 -6.35940E+03 -3.20496E+03
 -6.42805E+02 -4.20632E+03  5.16309E+03  2.97080E+03 -7.82020E+03  2.50605E+03 -1.44982E+04  1.32839E+03
 -1.02287E+04 -8.49900E+03 -9.46273E+02 -1.68091E+04  1.43628E+04 -2.00213E+04  1.83007E+04 -7.89512E+03
  2.18615E+04  1.09674E+04  6.07762E+03  1.39461E+04 -7.99229E+03  7.88510E+03 -8.48610E+03  1.22241E+04
 -2.14727E+04  3.99781E+03 -2.00657E+04 -1.53226E+04  1.35358E+03 -1.52741E+04  4.14345E+03 -1.59012E+04
  1.06712E+04 -3.47133E+03  3.30851E+03  4.34737E+03 -2.65088E+03  4.21972E+02 -1.99122E+02 -2.24524E+03
  3.37779E+03  2.97799E+03  9.67420E+03  1.92979E+03  8.31279E+03  4.56104E+03  5.05626E+03  9.52860E+03
 -4.57535E+03  1.74019E+04 -1.02557E+04  1.35858E+04 -1.34567E+04  5.91930E+03 -1.46257E+04 -1.25413E+04
 -1.11670E+04 -1.92817E+04 -4.37213E+03 -2.42574E+04  1.25463E+04 -6.90373E+03  1.13868E+04 -6.92914E+02
  1.07581E+04  6.61677E+03  9.47268E+03  1.36892E+04  4.82110E+03  8.03473E+03 -5.95426E+03  8.48038E+03
 -2.18164E+03 -9.12937E+03  7.09393E+03 -8.69758E+03  7.31474E+03  1.23373E+03  4.56831E+03 -1.39084E+03
  6.88630E+03  9.70859E+03  6.16142E+03  2.92398E+03 -1.36195E+02 -6.96902E+02  3.55891E+03  3.17430E+03
 -2.48033E+03 -3.54702E+03  6.39555E+03  5.19396E+03  7.33657E+03  1.27325E+04 -4.44061E+03  1.32477E+04
 -1.07724E+04  3.65272E+03 -1.81350E+04 -4.98742E+03 -1.47068E+04 -4.18318E+02 -3.63618E+03 -3.44797E+03
 -6.26718E+02 -3.99127E+03  9.61176E+03 -1.14114E+04  4.01879E+03  5.37182E+03 -1.45699E+03  3.74966E+03
 -8.33746E+03  2.74500E+03 -1.18835E+04 -1.28332E+04 -4.43919E+03 -8.18747E+03 -4.18277E+03 -1.05656E+04
  1.20377E+04 -8.54895E+03  4.83123E+03 -1.55128E+03  9.65821E+03  5.47741E+03 -7.35602E+03  6.22184E+03
 -8.67807E+03  5.99111E+03 -1.21117E+04 -4.46089E+03  3.87556E+03 -1.23665E+04  1.21765E+04 -6.69755E+03
  1.12194E+04  3.23218E+03  4.44098E+03  1.29571E+04  2.13069E+03  9.70352E+03 -4.01729E+02  1.10759E+04
 -7.59589E+03  1.13573E+03 -1.38781E+04 -2.82046E+03 -5.92806E+03 -1.72568E+04  3.96342E+03 -5.92053E+03
  8.18897E+03  1.42343E+03  7.26948E+03  1.27850E+03 -6.00846E+03  5.58979E+02 -4.78701E+03  1.28894E+04
  2.35931E+03  9.27147E+03 -5.99419E+02  2.32514E+03 -6.89724E+02 -2.86407E+03 -3.45258E+03  7.74081E+02
 -7.89734E+03  6.21086E+03 -7.92670E+03  6.47467E+03 -1.73915E+04  3.29696E+03 -1.07628E+04 -1.11817E+04
 -1.17384E+04 -1.79288E+04  1.35750E+03 -1.96315E+04  8.10955E+03 -2.32150E+04  2.02577E+04 -4.61496E+03
  1.80610E+04  7.81077E+03  7.74988E+03  1.17828E+04 -2.83535E+03  1.48620E+04 -1.67493E+03  1.42671E+04
 -1.07386E+04  3.12426E+03 -3.44984E+03 -3.80555E+01  1.83689E+03  1.70317E+03 -8.07883E+02  2.43426E+03
  2.94802E+03  5.60552E+02 -2.35474E+03 -6.47360E+03 -1.24428E+03 -7.87429E+03 -2.74754E+03 -7.12174E+03
  4.60946E+02 -7.90504E+03  1.06623E+04 -4.89900E+02  1.01290E+04  9.30598E+03  6.57870E+03  1.27794E+04
 -4.92648E+03  1.74818E+04 -1.85629E+04  1.69357E+04 -1.37985E+04  7.42745E+02 -8.36919E+03 -1.26919E+04
 -9.69786E+02 -1.89155E+04  2.29511E+03 -1.83479E+04  1.74266E+04 -5.88834E+03  6.87136E+03 -4.73393E+03
  9.97849E+02  8.23080E+03 -8.97827E+02  6.82743E+03  3.31156E+03  8.21882E+02  5.18590E+03 -4.42005E+03
  3.01244E+03 -5.91239E+03  3.46175E+03  9.16820E+02 -4.39923E+03  7.10640E+03 -6.21366E+02  4.58610E+03
 -7.03678E+03  8.36644E+03 -6.02787E+03  3.86365E+03 -1.18482E+04 -7.68279E+03  2.21353E+03 -1.77797E+04
  3.02348E+03 -1.16347E+04  1.04486E+04 -2.98489E+03  6.41613E+03  5.94320E+03  7.72975E+03  1.26316E+04
  3.24952E+03  1.50231E+04 -6.69487E+03  3.41387E+03 -7.10948E+03  6.79015E+03 -4.82993E+03  6.51282E+03
  1.58717E+03  2.51733E+03 -2.33967E+02  6.06200E+03 -4.64127E+03 -3.86375E+03 -9.07257E+03 -5.75366E+03
 -7.11247E+03 -3.50951E+03 -7.32282E+03 -1.33812E+04  3.18773E+03 -2.45400E+03  1.44973E+04 -5.81603E+03
  7.89455E+03  1.49487E+03  1.60566E+03  5.17331E+03  4.64102E+02  6.44639E+03 -9.39637E+03  5.52302E+01
