 $NMID ID='MM_0lb_SNR50_15hz_g55_71.RAW', FMTDAT='(8E13.5)'
 TRAMP=1., VOLUME=1. $END
  3.05022E+05  3.67076E+02  3.38748E+05  2.53673E+05  8.65889E+04  3.41645E+05 -1.31667E+05  2.47639E+05
 -1.90431E+05  8.45431E+04 -1.13713E+05 -3.23045E+04 -7.09229E+02 -5.19826E+04  5.34989E+04 -9.73268E+02
  3.32240E+04  5.16544E+04 -1.94473E+04  7.29801E+04 -6.11911E+04  6.52407E+04 -8.57192E+04  3.21958E+04
 -8.16451E+04 -9.71628E+03 -5.84820E+04 -4.90046E+04 -1.48395E+04 -6.62122E+04  2.76948E+04 -4.87159E+04
  4.29458E+04  5.24458E+03  1.97238E+04  5.02149E+04 -4.19718E+04  4.90332E+04 -6.37015E+04 -2.07125E+03
 -5.42349E+04 -5.61048E+04 -6.51487E+03 -7.68023E+04  3.40829E+04 -5.65198E+04  4.59222E+04 -1.84382E+04
  4.62875E+04  1.02770E+04  3.16099E+04  2.97473E+04  1.34924E+04  2.50292E+04 -4.81332E+03  2.97283E+04
 -2.63569E+04  8.83276E+03 -1.89042E+04 -9.22349E+03  3.57094E+03 -8.09731E+03  1.78616E+04  1.41570E+04
  8.70448E+03  3.57195E+04 -3.01985E+04  3.40186E+04 -6.40338E+04  2.58940E+03 -5.67517E+04 -4.47053E+04
 -6.57336E+03 -6.82076E+04  3.84552E+04 -4.84062E+04  5.97212E+04 -7.11874E+03  3.19693E+04  3.43978E+04
 -9.18383E+03  3.65962E+04 -3.10518E+04  1.23000E+04 -2.53843E+04 -5.09895E+03 -1.42574E+04 -1.01610E+04
 -1.03234E+04 -1.29734E+04 -8.70455E+03 -1.92048E+04  7.76764E+03 -2.50375E+04  1.62975E+04 -1.62691E+04
  1.42903E+04  4.61409E+03 -1.02896E+04  1.80614E+04 -2.32859E+04 -7.74293E+03 -5.41777E+03 -3.75846E+04
  2.13509E+04 -4.32221E+04  4.79529E+04 -2.13325E+04  4.48465E+04  2.09860E+04  1.04412E+04  4.31162E+04
 -1.73925E+04  3.60942E+04 -2.52421E+04  7.70451E+02 -6.29945E+03 -2.64395E+04  2.00480E+04 -3.44183E+04
  4.18824E+04 -1.23720E+04  3.84922E+04  2.41809E+04  2.07870E+04  4.43089E+04 -9.93185E+03  5.14249E+04
 -3.04711E+04  2.91974E+04 -4.16500E+04  1.53433E+04 -3.69254E+04 -1.58962E+04 -2.36506E+04 -4.30415E+04
  9.89340E+03 -3.91055E+04  3.17397E+04 -1.37366E+04  3.22540E+04  1.00312E+04  7.90302E+03  1.83007E+04
 -2.02913E+04  9.50551E+03 -1.06850E+04 -7.27493E+03  7.41954E+03 -1.10856E+04  1.54040E+04  2.99738E+03
  1.51387E+04  2.25560E+04 -6.45178E+03  2.22340E+04 -2.41896E+04  1.31121E+04 -2.77525E+04 -6.49820E+01
 -2.41575E+04 -1.70988E+04 -1.08568E+04 -1.93690E+04  6.10754E+03 -2.20232E+04  1.33347E+04 -1.71399E+04
  3.10256E+04 -1.31316E+04  3.44302E+04  5.76807E+03  2.45049E+04  2.63963E+04  1.33672E+03  3.55780E+04
 -1.86543E+04  3.27228E+04 -2.93318E+04  9.97578E+03 -1.98494E+04 -1.32160E+04 -4.37722E+03 -1.44550E+04
  2.11966E+03 -6.39718E+02 -5.52496E+03  1.06687E+04 -1.64038E+04  5.94892E+03 -1.01169E+04 -6.31318E+03
 -1.03099E+04 -1.80612E+04  1.75173E+03 -2.57206E+04  1.17753E+04 -1.66205E+04  1.82105E+04 -4.56223E+03
  1.03222E+04  1.76515E+04  2.23687E+03  2.06538E+04 -1.40451E+04  1.04096E+04 -1.80209E+04 -6.05204E+03
 -9.39691E+03 -1.26727E+04 -3.37059E+03 -2.39027E+04  9.22459E+03 -1.91087E+04  1.80447E+04 -1.11155E+04
  1.91848E+04 -3.05899E+03  1.21292E+04  2.16164E+03  3.48367E+03 -1.18300E+03  1.44727E+04 -6.31440E+03
  1.76612E+04  6.19766E+03  2.18802E+04  1.21265E+04  5.97233E+03  2.94848E+04 -5.89667E+02  3.25157E+04
 -1.62845E+04  2.75108E+04 -3.17157E+04  1.52381E+04 -3.29342E+04 -8.14353E+03 -2.97858E+04 -2.24198E+04
 -1.62185E+04 -2.68652E+04  1.11114E+04 -2.28806E+04  2.40982E+04 -1.20313E+04  2.01839E+04  5.83778E+03
  8.17401E+03  1.16275E+04 -1.27731E+04  1.33689E+04 -1.27736E+04  2.87519E+03 -1.01480E+04 -1.30315E+04
 -5.85317E+02 -1.48270E+04  2.16679E+03 -1.00181E+04  1.47193E+04 -3.27732E+03 -2.53217E+02  2.65602E+03
 -8.55176E+03  2.31527E+03 -3.42588E+03 -5.78987E+03  9.43134E+02 -1.07268E+04  1.06303E+04 -1.64584E+04
  1.47123E+04 -8.44161E+03  1.93639E+04  1.04616E+03  1.86158E+04  1.46248E+04  9.14685E+03  1.89411E+04
 -2.01894E+03  1.92865E+04 -1.16917E+04  1.02636E+04 -1.42051E+04  3.57987E+03 -4.72295E+03 -6.63645E+01
 -5.67952E+03 -6.98041E+03 -2.17204E+03  2.18420E+03  1.58740E+03 -4.29807E+03 -8.40047E+03  4.42544E+03
 -8.86602E+03  2.27322E+03 -1.05400E+04 -8.67660E+03 -2.00950E+03 -1.64451E+04  6.50277E+03 -1.28426E+04
  9.78930E+03 -7.80041E+03  6.16571E+03  4.03632E+03  2.56273E+03 -7.84071E+02 -4.38500E+03  4.59514E+03
 -3.00588E+03 -1.65045E+03 -4.00686E+03 -7.09908E+03  7.73146E+03 -1.35147E+04  1.66463E+04 -1.70978E+03
  1.23034E+04 -1.61737E+02  1.23614E+04  4.07843E+03  3.94582E+03  1.57840E+04 -8.90380E+03  1.09606E+04
 -4.05434E+03 -1.04435E+03 -7.45293E+03 -2.68830E+01  4.18905E+03  1.63653E+03  5.26092E+03 -2.31535E+03
  5.56033E+03  6.88256E+03 -7.13147E+01  4.52429E+03 -5.74442E+03  8.67572E+03 -1.05903E+04  4.26761E+03
 -4.06223E+03 -4.39394E+03  3.82197E+03 -6.24702E+03  3.29466E+03 -6.71046E+03  1.30447E+03  4.13290E+03
  2.81134E+03  7.56738E+03 -4.52130E+03  5.60734E+03 -1.06870E+04  3.79367E+03 -6.57440E+03 -3.80656E+03
 -5.95209E+03 -1.04382E+04  3.44880E+03 -6.19338E+03  4.04408E+03 -1.13594E+04  1.50212E+04  1.97539E+03
  4.00192E+03  1.02743E+04  3.77393E+03  8.81990E+03 -5.60467E+03  4.07482E+03 -4.81771E+03  6.12445E-01
 -5.49170E+03 -6.58443E+03  1.55032E+02 -7.18332E+03  9.47735E+03 -5.13670E+03  9.75460E+03 -4.39560E+03
  1.76836E+02  3.06465E+03  3.85140E+03  5.14848E+03  3.68432E+03 -2.22079E+03  3.81835E+03 -7.03112E+03
  7.59783E+03 -4.47352E+03  7.21275E+03  3.87788E+03  1.06708E+04  1.20583E+03  3.92732E+03  1.23239E+04
  2.22068E+03  1.65575E+04 -1.00608E+04  3.41231E+03 -1.55330E+04  1.28202E+03 -9.45818E+03 -7.59076E+03
 -6.54785E+03 -9.97179E+03  1.16481E+03 -5.99132E+03  3.17202E+03 -3.79733E+03  4.81218E+03 -9.36346E+02
  2.12591E+03 -9.05496E+02  3.53047E+03 -2.29365E+03  3.29607E+03 -6.05900E+03  8.80952E+03  3.40204E+02
  2.52210E+03  2.89272E+03  9.58562E+02  6.92698E+03 -3.42909E+03  9.39481E+03 -4.15182E+03  9.71114E+03
 -1.06167E+04 -1.93539E+03 -1.43814E+03 -9.21254E+03 -1.48997E+03 -1.00253E+04  3.40271E+03 -5.03561E+03
  1.14041E+04 -7.41828E+03  1.38087E+04  1.87414E+03  9.26185E+03  2.55017E+03  2.60793E+03  1.37211E+04
 -5.04084E+03  9.31396E+03 -2.82294E+03 -1.98149E+03 -9.24403E+03 -4.58102E+03  1.94250E+03 -5.21395E+03
 -7.11547E+02 -5.30972E+03 -1.69997E+03  7.12031E+03 -5.26315E+03  9.08589E+03 -8.96505E+03 -4.41152E+03
  6.39897E+02 -2.36495E+03  9.56194E+02 -8.84825E+03  4.57950E+03 -6.13065E+03  5.73841E+03 -5.08079E+02
  1.00566E+04  4.25581E+03  5.58940E+03  5.97861E+03 -1.87561E+02  8.82950E+03 -3.10266E+03  5.58129E+03
 -9.72613E+03  2.29866E+03 -5.76848E+03 -3.78558E+03 -3.03652E+03 -3.73182E+03  3.86127E+03 -5.11828E+03
  9.16969E+02 -2.32844E+02  6.16401E+01 -2.37249E+03  2.78629E+03  1.98634E+03 -2.10074E+02 -3.34190E+03
 -3.52797E+02  1.88773E+03  1.29487E+01 -1.85136E+03 -2.16665E+02  1.30646E+03  5.61884E+03  8.36308E+03
 -7.53270E+03  3.93743E+03 -2.58715E+03  8.98091E+03 -1.10974E+04  3.17472E+03 -3.56527E+03 -2.01381E+03
  1.27261E+02 -6.83224E+03  4.17231E+02 -9.22129E+03  3.92744E+03 -1.09831E+04  4.30836E+03 -4.91823E+03
  5.53014E+03  1.19558E+03  3.85675E+03  3.96700E+03 -1.58680E+03  7.91582E+03 -3.94256E+03  1.08993E+03
 -2.66780E+03 -9.84620E+02 -1.92585E+03 -7.35892E+03  1.68699E+03 -2.67936E+03  6.42088E+02  3.57092E+03
  4.08486E+03  6.24670E+02  9.55873E+02 -2.28559E+03 -1.85751E+03  1.39207E+03 -1.24427E+03 -1.12092E+03
 -5.58903E+02  2.64169E+03  2.19589E+03 -9.45766E+02  6.33542E+03 -3.11104E+03 -6.35970E+03  1.98122E+03
 -1.95701E+03 -2.81275E+03 -7.25437E+02  1.15106E+03 -3.92047E+03  2.07828E+03 -5.22982E+03 -1.41118E+03
 -4.97205E+02 -4.83972E+02  2.18088E+03  3.16595E+03  2.85019E+03 -8.47389E+02  2.01328E+03 -5.97854E+03
 -6.13382E+03  3.66750E+03 -4.43849E+03 -2.90993E+03 -1.56931E+03 -2.20790E+03 -1.65162E+02 -1.69984E+03
  3.85460E+03 -3.93623E+03  5.32746E+03 -2.68275E+03 -6.26450E+02 -9.20850E+02 -1.22205E+03  4.05678E+03
 -4.01823E+03  4.13050E+03 -2.61638E+03 -4.88625E+03 -2.44484E+03 -2.42209E+03  1.16513E+02 -2.44669E+03
  2.15803E+03 -2.48367E+03  6.48858E+03  6.91795E+02 -3.49837E+03  5.90836E+02 -7.64886E+02  1.64998E+02
 -2.99130E+02 -2.17323E+03 -1.74096E+03  5.33318E+02  7.13472E+02 -8.22337E+02 -2.63100E+03  2.51393E+03
  5.06789E+01  1.79202E+03 -3.50044E+03  6.21127E+03 -4.95407E+03 -4.18996E+03  3.21421E+03  4.53782E+03
 -5.55110E+02  3.81980E+03 -5.21612E+03 -2.36135E+03 -9.30830E+02  9.58559E+02 -1.17554E+03  1.73846E+02
 -4.87761E+03  4.03740E+03 -8.05087E+03  4.41808E+03 -2.86345E+03 -2.70197E+03 -4.22149E+02 -4.94848E+03
 -1.69434E+03 -7.05568E+03 -9.55352E+01 -5.88765E+03  2.34901E+03 -6.79974E+03  9.86845E+03 -3.68667E+03
  4.65060E+03  4.00665E+03  3.06320E+03  4.46306E+03  2.21085E+03  4.32021E+03 -3.90554E+03 -1.61758E+03
 -2.74648E+03  1.10198E+03 -2.91993E+03 -3.18932E+03 -3.08254E+03  5.29167E+02  2.28332E+03 -6.64699E+02
 -3.40535E+03 -5.16203E+02 -2.45250E+03 -1.68801E+03  2.26902E+03 -2.18406E+03  2.93548E+03 -3.12982E+03
  4.31328E+03  8.85737E+02 -1.70208E+03  3.84114E+03 -1.78260E+03  1.38978E+03 -1.03065E+03  8.99674E+02
 -4.02336E+03  1.16722E+03 -3.10206E+03  3.89270E+03 -5.42934E+03  3.64490E+03 -6.00164E+03 -3.48018E+03
  5.05829E+03 -7.02015E+03 -1.77448E+03 -1.30007E+03 -9.00723E+02  8.16007E+02  4.45456E+03  2.22552E+03
  7.87800E+03 -1.17811E+03  9.10373E+02  3.31171E+03 -2.57081E+03 -4.33160E+03 -1.24072E+03 -3.87915E+03
  2.38982E+03 -2.47199E+03  5.26439E+03  2.28638E+03  2.00060E+03  9.55876E+02  3.38346E+03  1.75789E+03
 -3.53913E+02 -5.23736E+02  1.43845E+03 -1.33297E+03 -4.57709E+03 -4.07162E+03 -3.35717E+03  4.98127E+02
 -1.05162E+03 -2.18086E+03  5.17439E+03  1.98668E+02 -4.81275E+01 -2.66042E+03  2.64885E+03  1.24540E+03
 -9.22515E+02 -2.52763E+03 -2.50192E+03  5.15944E+03 -9.29339E+02  6.24727E+02  6.14689E+03  2.75043E+03
 -4.81474E+03 -5.90670E+02  5.66942E+02  1.86641E+03 -2.45229E+02  1.68668E+03 -2.06000E+03 -6.41218E+01
  1.08806E+03 -3.95745E+03 -5.01788E+03 -1.67937E+03 -3.62634E+02 -5.24090E+02 -1.32583E+03 -6.07886E+03
  3.49459E+03 -2.06775E+03  1.96754E+03  6.30744E+01  2.59208E+03 -2.62567E+03  9.74974E+02  3.49423E+03
