 $NMID ID='MM_0lb_SNR50_7hz_g40_65.RAW', FMTDAT='(8E13.5)'
 TRAMP=1., VOLUME=1. $END
  3.09634E+05  3.60126E+02  3.38837E+05  2.53123E+05  8.99814E+04  3.33524E+05 -1.32035E+05  2.51629E+05
 -1.87745E+05  8.56382E+04 -1.10285E+05 -3.55052E+04 -2.35817E+03 -4.16530E+04  5.55517E+04 -2.02080E+03
  3.60060E+04  5.15403E+04 -8.71400E+03  7.97546E+04 -6.18156E+04  6.43062E+04 -8.31820E+04  3.43458E+04
 -8.59861E+04 -1.85557E+04 -5.99595E+04 -4.97724E+04 -1.94683E+04 -7.08557E+04  2.98500E+04 -4.97607E+04
  4.38657E+04  8.56130E+03  1.05059E+04  4.46472E+04 -4.26822E+04  5.11773E+04 -6.26583E+04  1.89207E+02
 -5.05489E+04 -5.86388E+04 -6.82230E+03 -8.42119E+04  3.46143E+04 -5.63673E+04  5.24098E+04 -1.83600E+04
  4.23128E+04  1.36229E+04  2.75103E+04  2.95544E+04  1.63798E+04  3.76927E+04 -7.94824E+03  2.55484E+04
 -2.16311E+04  1.48299E+04 -1.41958E+04 -5.26395E+03  4.80938E+03 -1.08335E+04  2.29438E+04  1.74799E+04
  7.77275E+03  3.79660E+04 -3.27840E+04  3.55832E+04 -6.30202E+04  2.02268E+03 -5.93311E+04 -4.73322E+04
 -3.95259E+03 -6.52822E+04  4.04640E+04 -4.44118E+04  6.16629E+04 -3.14202E+03  3.74099E+04  2.67337E+04
 -9.51888E+02  3.49503E+04 -3.05087E+04  2.05296E+04 -4.05164E+04 -4.92265E+03 -2.21154E+04 -6.35821E+03
 -3.60472E+03 -1.11406E+04 -5.30814E+03 -1.40510E+04  1.17923E+04 -2.36389E+04  1.55531E+04 -1.25315E+04
  1.45517E+04  4.61277E+03 -9.24265E+03  1.37164E+04 -2.50280E+04 -2.00838E+04 -1.13417E+04 -4.27160E+04
  3.31081E+04 -4.89826E+04  5.23466E+04 -2.42331E+04  4.46231E+04  1.15496E+04  2.54829E+04  4.81421E+04
 -1.88230E+04  3.94731E+04 -2.69796E+04  3.79269E+03 -6.73919E+03 -2.53571E+04  2.74018E+04 -3.15351E+04
  4.41551E+04 -5.81263E+03  3.96302E+04  2.27719E+04  2.89663E+04  5.44995E+04 -5.12599E+03  5.07687E+04
 -3.68488E+04  4.12285E+04 -4.54191E+04  1.26327E+04 -4.87792E+04 -1.30610E+04 -2.18593E+04 -4.26906E+04
  9.34871E+03 -4.49557E+04  3.62281E+04 -2.38844E+04  2.70593E+04  3.75598E+03 -1.26367E+03  1.85607E+04
 -1.35722E+04  1.14717E+04 -9.42213E+03 -1.11267E+04  9.53367E+03 -1.09530E+04  1.70453E+04  7.78696E+03
  1.15731E+04  2.22241E+04 -4.82334E+03  3.82822E+04 -2.21862E+04  1.10798E+04 -3.20790E+04 -1.35064E+03
 -3.32093E+04 -2.01473E+04 -8.04082E+03 -2.30836E+04  1.63086E+03 -2.99370E+04  1.55893E+04 -3.19907E+04
  3.61147E+04 -1.19650E+04  4.04664E+04  7.68807E+03  3.25118E+04  3.05527E+04  4.58761E+03  4.79796E+04
 -2.41333E+04  3.47024E+04 -3.28567E+04  1.29425E+04 -2.36507E+04 -8.87831E+03  2.70700E+02 -8.80523E+03
  3.05339E+03 -7.73295E+03 -9.20525E+03  4.94275E+03 -2.09753E+04  4.72686E+03 -1.91454E+04 -7.95024E+03
 -8.69792E+03 -2.25428E+04  1.28041E+04 -2.76024E+04  1.63545E+04 -1.63423E+04  2.28421E+04 -5.19427E+03
  1.16503E+04  1.68471E+04 -6.48244E+03  1.92548E+04 -1.71411E+04  9.32673E+03 -2.70166E+04 -7.58136E+03
 -1.58633E+04 -1.78832E+04 -3.63303E+03 -3.02946E+04  1.10686E+04 -2.48015E+04  2.68458E+04 -1.10882E+04
  1.90087E+04 -2.29883E+03  1.36670E+04  5.21858E+03  1.12064E+04  4.06013E+03  1.43789E+04 -2.54339E+03
  2.53754E+04  3.57042E+03  3.14197E+04  1.53239E+04  1.94344E+04  4.31733E+04 -1.01748E+03  4.45482E+04
 -3.10472E+04  4.15457E+04 -5.43985E+04  2.52424E+04 -5.20298E+04 -2.97089E+03 -4.20437E+04 -2.85490E+04
 -1.67574E+04 -4.10302E+04  1.39288E+04 -3.88580E+04  2.81331E+04 -1.84524E+04  3.09703E+04  4.40417E+03
 -5.67186E+01  1.50379E+04 -1.42944E+04  1.95293E+04 -2.39283E+04 -1.68881E+03 -1.77124E+04 -1.15739E+04
 -2.25486E+03 -1.87370E+04  1.22111E+04 -1.67374E+04  1.62182E+04 -5.85375E+03  1.94634E+03  1.37749E+04
 -9.43177E+03  8.84374E+02 -4.64821E+03 -8.13266E+03 -3.09617E+03 -2.08214E+04  1.98075E+04 -1.74751E+04
  2.25230E+04 -1.66582E+04  1.99359E+04  9.25206E+03  2.58988E+04  2.41206E+04  6.33236E+03  3.12116E+04
 -6.19111E+03  3.79802E+04 -3.08206E+04  2.56954E+04 -2.32999E+04  5.38771E+03 -1.20351E+04 -6.31876E+03
  1.61752E+02 -1.02305E+04 -2.09259E+03 -7.38278E+02 -2.54765E+03  1.98683E+03 -5.87876E+03  6.43999E+03
 -1.89580E+04 -2.01976E+03 -2.03848E+04 -1.75137E+04 -4.30630E+03 -2.59704E+04  1.15371E+04 -1.33912E+04
  2.23072E+04 -2.53076E+03  1.45077E+04  5.39088E+03 -1.52488E+03  5.18747E+03 -6.65333E+03 -5.54231E+03
 -1.38654E+04 -1.25168E+04  2.40605E+03 -1.43129E+04  1.38840E+04 -1.65914E+04  2.23252E+04 -9.45047E+03
  2.06733E+04  9.21637E+03  1.87674E+04  1.16002E+04  2.60755E+03  2.05893E+04 -6.87290E+03  2.17666E+04
 -1.64010E+04 -1.75611E+03 -5.76130E+03 -7.92724E+03  2.42062E+03  2.98440E+02  1.37030E+04  1.14879E+03
  1.65179E+03  6.90977E+03  2.97579E+02  1.07689E+04 -1.14977E+04  1.28735E+04 -1.91808E+04  1.16747E+04
 -1.50498E+04 -8.43763E+03  6.27363E+02 -1.68476E+04  1.14787E+04 -1.00090E+04  1.04350E+04 -4.18706E+03
 -3.34366E+02  1.32899E+04 -8.31611E+03  1.12918E+04 -1.75721E+04  4.54314E+03 -9.79291E+03 -5.49328E+03
 -5.79988E+03 -1.11342E+04  1.03814E+03 -2.65524E+04  1.64979E+04 -1.42376E+04  1.76388E+04  3.08112E+03
  9.34155E+03  1.20368E+04 -5.53646E+03  1.85016E+04 -7.64641E+03  6.98274E+03 -2.46589E+03 -3.68006E+02
 -4.02545E+03 -1.27054E+04 -2.48271E+03 -1.17888E+04  9.94269E+01 -1.41744E+04  1.19507E+04 -8.50805E+03
  8.78781E+03 -1.30499E+03 -6.00362E+03  2.36051E+03  5.00686E+03 -1.18982E+04 -5.13818E+03 -9.60497E+03
  1.57179E+04 -1.16595E+04  1.55311E+04  7.84916E+03  1.97070E+04  1.68450E+04  9.96101E+03  3.24996E+04
 -1.91787E+04  3.24314E+04 -2.15950E+04  2.33466E+04 -2.45004E+04  8.22531E+03 -2.10392E+04 -4.61014E+03
 -8.28974E+03 -1.94955E+04 -6.25495E+03 -2.05197E+04  2.94445E+03 -1.21254E+04  6.87168E+03 -4.10244E+03
  7.85834E+03 -7.18317E+03  2.73557E+03 -1.72681E+03  1.35299E+04 -7.14819E+03  5.80568E+03  9.79395E+02
  1.65030E+04  7.54498E+02  6.27769E+03  1.04124E+04 -3.11501E+03  1.11252E+04 -1.26405E+04  1.07556E+04
 -1.73040E+04  3.75973E+03 -8.02063E+03 -6.33980E+03 -1.70279E+03 -1.41510E+04  4.26938E+03 -2.56264E+04
  2.53178E+04 -5.93113E+03  1.99992E+04  5.84006E+03  8.12581E+03  1.44201E+04  2.87604E+03  1.37053E+04
 -5.98831E+03  1.41689E+04 -1.60844E+04  8.01496E+03 -7.59550E+03 -3.73940E+03 -1.35284E+02 -1.26003E+04
 -4.21909E+03  3.75624E+02 -1.70533E+03  6.47407E+03 -6.08717E+03  4.33416E+02 -1.64488E+04 -4.41298E+03
 -1.09809E+04 -1.32032E+04  5.46577E+03 -1.29406E+04  1.33886E+04 -1.60404E+04  1.62710E+04 -3.56773E+03
  1.58859E+04  5.79174E+03  1.15430E+04  1.41468E+04  1.01107E+03  1.68237E+04 -6.43293E+03  1.19485E+04
 -7.20925E+03 -9.10247E+03 -6.09155E+03 -1.26402E+04 -1.02945E+03 -1.53748E+04  2.09046E+03 -1.45446E+04
  9.38310E+03  5.13110E+01  5.14213E+03  3.96573E+03  2.61160E+03  1.49066E+04  8.26861E+02  1.41809E+02
 -4.71111E+03 -2.70977E+03  2.18178E+03  3.47313E+03  7.15784E+03 -2.61019E+02  4.53831E+01  2.93565E+03
 -1.62913E+03  1.31235E+04 -1.31761E+04  9.92271E+03 -1.29227E+04 -2.19334E+02 -2.13781E+04 -7.39300E+03
 -1.24964E+04 -1.49361E+04  1.52100E+03 -1.20572E+04  5.81545E+03 -1.46942E+04  1.10817E+04  4.76574E+03
  1.50960E+04  7.46747E+03  1.78069E+03  6.57824E+03 -8.45511E+03  1.28226E+04 -1.32143E+04  1.78055E+03
 -7.43748E+03 -5.36452E+03  8.65203E+03 -1.28377E+04  1.79623E+04 -7.43280E+02  9.20664E+03 -5.68145E+02
  6.67290E+03  7.64463E+03  2.99482E+02 -2.20994E+03  4.12936E+03 -4.56518E+03  9.65636E+02 -9.22433E+03
 -1.70231E+03 -5.48428E+03  5.64790E+03  7.38304E+03  2.97614E+03  7.20158E+03  1.51280E+03  8.91002E+03
 -1.35733E+04  1.97354E+04 -1.13304E+04  1.03971E+03 -1.27223E+04 -3.01540E+03  1.12964E+03 -2.69295E+03
 -1.45075E+03 -6.60568E+03  1.18985E+04 -2.86762E+03  1.74641E+03  1.14224E+04 -2.42237E+03  1.99766E+03
 -4.74058E+03  6.68359E+03 -9.16484E+03 -5.01523E+03 -9.30361E+03 -1.00789E+04  3.38513E+03 -1.35517E+04
  6.51826E+03 -2.00406E+03  4.11287E+03 -9.75370E+02  6.29800E+03 -9.84545E+02 -1.47124E+03  6.50217E+03
 -7.71204E+03 -5.97555E+03  2.79948E+02 -7.43531E+03  4.42413E+03 -1.51725E+04  5.73959E+03 -6.19863E+03
  1.12503E+04 -3.75234E+03  1.09505E+04  8.32068E+03  9.76633E+03  9.74908E+03 -4.80644E+03  5.28887E+03
 -7.64349E+03  5.27111E+03 -1.26810E+04 -5.22566E+03  3.92799E+03 -8.06306E+03 -5.08579E+03 -6.86292E+03
  4.06038E+03 -2.05098E+03  1.19802E+04  4.53263E+03  3.65082E+03  8.13905E+03 -5.87424E+02  5.38708E+03
 -2.58672E+02  1.67211E+03 -3.12989E+03 -4.47694E+03  1.26147E+03  8.05570E+02  2.73311E+03  1.38366E+02
 -6.22302E+02  4.14472E+03 -1.15844E+04  1.00077E+03 -1.20531E+04  2.20862E+03 -1.28881E+04 -1.04023E+04
 -7.92485E+03 -1.85903E+04  3.60022E+03 -2.06865E+04  1.62858E+04 -1.05829E+04  1.87822E+04 -2.98476E+03
  2.28931E+04  1.07104E+04  1.55727E+04  1.55773E+04 -2.66294E+03  1.59734E+04 -6.46887E+03  7.71632E+03
 -5.26493E+03  7.87418E+03 -9.13711E+03 -4.67786E+03  2.00395E+03  6.69971E+02  6.06641E+03  2.40652E+03
  2.02234E+03  4.63074E+02  1.04783E+03 -4.52031E+03 -2.47232E+03 -8.95807E+03  1.13225E+04 -1.28297E+04
  4.43847E+03 -9.10211E+03  9.39393E+03  4.30748E+03  1.06774E+04  4.16271E+03  5.33337E+03  1.22338E+04
 -1.07052E+04  1.85077E+04 -1.61534E+04  1.20557E+04 -2.03403E+04  1.53764E+03 -8.20875E+03 -1.69010E+04
 -6.48350E+03 -1.55057E+04 -1.40312E+03 -1.80173E+04  1.07125E+04 -2.48145E+02  1.02701E+04  1.05428E+04
  7.53869E+03  8.87315E+03 -8.26328E+03  5.19219E+03  2.05402E+03 -4.11565E+03  5.76756E+03 -1.03963E+04
  3.90598E+03  1.18502E+03  4.16883E+03 -4.82264E+03  8.67722E+02  5.94355E+03 -1.08274E+03  3.71733E+03
 -4.20760E+03  6.49965E+03 -5.75009E+03 -3.89496E+03 -7.32048E+03 -1.20204E+04  1.62369E+03 -1.24366E+04
  4.69064E+03 -1.93408E+03  1.06954E+04 -6.00887E+03  5.84969E+03  4.51783E+03  8.10763E+03 -1.49114E+03
 -3.05579E+03 -4.59615E+02 -5.61692E+03  1.83856E+04 -7.72408E+03  1.27228E+03 -9.25284E+03  2.37845E+03
  1.17160E+03  5.58175E+03  5.52362E+03  4.09066E+03 -5.40422E+03  1.24273E+04 -2.43078E+03 -3.97704E+03
 -1.38490E+04 -8.14561E+03  6.23749E+02 -1.42505E+04  4.98485E+03 -6.58107E+03  5.36571E+03 -6.17483E+02
  1.04740E+04 -1.30887E+03  6.68755E+03  1.03937E+04  7.01307E+02  5.74863E+03 -8.59264E+03  6.63283E+03
