 $NMID ID='MM_0lb_SNR50_16hz_g50_3.RAW', FMTDAT='(8E13.5)'
 TRAMP=1., VOLUME=1. $END
  3.10447E+05 -1.95727E+02  3.36823E+05  2.51459E+05  8.31272E+04  3.41611E+05 -1.25971E+05  2.56425E+05
 -1.88408E+05  8.00678E+04 -1.10295E+05 -3.30331E+04 -1.14670E+03 -4.88456E+04  5.03523E+04  2.07744E+02
  3.74828E+04  5.11781E+04 -1.60494E+04  7.77910E+04 -6.15197E+04  6.36101E+04 -8.54200E+04  3.13600E+04
 -7.92242E+04 -1.10396E+04 -6.09537E+04 -5.36040E+04 -1.50190E+04 -7.27676E+04  2.18054E+04 -3.99906E+04
  4.29769E+04  4.92553E+03  1.57667E+04  4.76697E+04 -3.32808E+04  4.70002E+04 -6.71458E+04 -2.92449E+03
 -5.18364E+04 -5.53316E+04 -4.97083E+03 -7.51037E+04  3.35420E+04 -5.87392E+04  4.74549E+04 -1.44080E+04
  4.76229E+04  8.82843E+03  2.94994E+04  2.25611E+04  1.38980E+04  3.18890E+04 -6.42803E+03  2.71536E+04
 -2.00111E+04  1.13843E+04 -1.15293E+04 -7.52869E+03  6.40000E+03 -4.87245E+03  1.67741E+04  1.40675E+04
  5.54588E+03  3.12315E+04 -3.62067E+04  3.42848E+04 -5.99889E+04 -1.35101E+03 -5.82049E+04 -3.71406E+04
 -1.01273E+04 -5.95110E+04  3.79750E+04 -4.72120E+04  5.77473E+04 -3.09699E+03  2.88502E+04  3.14812E+04
 -2.28022E+03  3.14765E+04 -3.43738E+04  1.56019E+04 -3.02072E+04 -8.09981E+03 -1.23989E+04 -3.29155E+03
 -1.12423E+04 -9.57787E+03 -4.10863E+03 -1.85584E+04  6.10215E+03 -2.13081E+04  2.38756E+04 -1.16474E+04
  1.54691E+04  4.89233E+03 -7.33561E+03  8.55422E+03 -2.32257E+04 -3.64328E+03 -6.03755E+03 -3.31576E+04
  2.11414E+04 -3.67024E+04  4.26787E+04 -2.08018E+04  4.00829E+04  1.91407E+04  1.58202E+04  4.44431E+04
 -1.95404E+04  3.21213E+04 -2.34949E+04  3.29872E+03 -6.99662E+03 -2.44764E+04  2.05761E+04 -3.51454E+04
  3.79872E+04 -7.95667E+03  3.63469E+04  2.31716E+04  1.58920E+04  4.64838E+04 -7.08247E+03  5.04817E+04
 -2.36210E+04  3.15851E+04 -3.95115E+04  7.69095E+03 -4.46134E+04 -1.60441E+04 -2.23466E+04 -3.50727E+04
  8.89438E+03 -3.25240E+04  2.98089E+04 -1.42279E+04  3.06833E+04  9.00089E+03  4.84705E+03  2.11381E+04
 -1.70826E+04  7.72810E+03 -1.25427E+04 -9.47672E+03  5.41006E+03 -8.53507E+03  1.92184E+04  4.29600E+03
  1.11614E+04  2.25574E+04 -8.66954E+03  2.48636E+04 -2.20860E+04  8.30343E+03 -2.13887E+04 -5.00054E+03
 -1.77387E+04 -1.73810E+04 -5.86434E+03 -1.77105E+04  2.29543E+03 -1.32250E+04  1.44934E+04 -1.43583E+04
  2.66245E+04 -9.50706E+03  2.99855E+04  9.17861E+03  1.95411E+04  2.21643E+04  1.36926E+03  3.66053E+04
 -1.53955E+04  2.74914E+04 -2.62849E+04  1.42254E+04 -2.03173E+04 -1.20640E+04 -4.08816E+03 -1.16531E+04
 -1.25686E+02  2.03927E+03 -3.07623E+03  5.79495E+03 -1.18660E+04  8.33660E+03 -1.42111E+04 -3.00031E+03
 -8.64976E+03 -1.72986E+04  9.66053E+02 -2.11816E+04  1.09067E+04 -1.14309E+04  1.56934E+04  7.56289E+02
  7.89880E+03  1.11478E+04  3.50000E+03  1.54704E+04 -1.56316E+04  1.32643E+04 -1.68981E+04 -7.11913E+03
 -1.39401E+04 -1.82750E+04 -1.35559E+03 -2.02046E+04  8.18787E+03 -2.16173E+04  1.97091E+04 -7.38323E+03
  1.56098E+04  2.12344E+01  1.06151E+04  3.19948E+03  3.69410E+03 -2.13022E+03  7.82872E+03 -2.14059E+03
  1.38465E+04 -4.72915E+01  1.72309E+04  1.58117E+04  1.38081E+04  2.23994E+04 -1.96397E+03  3.00866E+04
 -1.91891E+04  2.50687E+04 -2.35784E+04  9.55876E+03 -2.90598E+04 -6.94878E+02 -2.22106E+04 -1.57148E+04
 -1.60423E+04 -2.23672E+04  9.67336E+03 -1.88839E+04  1.83772E+04 -1.06606E+04  2.02480E+04  7.44096E+03
  5.03716E+03  1.36163E+04 -1.11751E+04  7.92783E+03 -1.73523E+04  2.78085E+03 -1.10259E+04 -9.79946E+03
 -3.43868E+03 -1.06136E+04  5.62034E+03 -8.93310E+03  1.13171E+04  1.20283E+03  6.66348E+02  5.60437E+03
 -1.09821E+04  2.30983E+03 -8.68327E+03 -3.29076E+03  2.48592E+03 -9.73266E+03  1.27867E+04 -8.73948E+03
  1.57145E+04 -6.16995E+03  1.49667E+04  3.01558E+03  1.05846E+04  7.70735E+03  8.92035E+03  2.20372E+04
 -9.48242E+02  1.99840E+04 -9.98742E+03  1.45524E+04 -1.11491E+04  7.20916E+03 -6.72405E+03 -2.71257E+03
 -5.85426E+03 -8.86905E+02 -2.20311E+03 -1.89735E+02 -4.97221E+03  2.78817E+03 -3.78315E+03  4.10033E+03
 -3.85289E+03 -2.58819E+03 -6.95955E+03 -6.64515E+03 -3.86367E+03 -1.39657E+04  3.91561E+03 -1.37581E+04
  1.44873E+04 -4.99436E+03  5.69502E+03  4.45327E+03 -6.79081E+02  6.43861E+03 -5.06806E+03  2.06827E+03
 -4.39581E+03 -9.15787E+03  2.53171E+03 -1.12767E+04  5.50981E+03 -1.00349E+04  1.11600E+04 -4.71342E+03
  1.41757E+04  8.47007E+02  1.15023E+04  8.93589E+03  3.14162E+03  8.24553E+03 -4.37363E+03  1.14728E+04
 -8.80097E+03  3.40935E+03  2.63060E+03 -3.42883E+03  7.71905E+02 -2.18552E+03  6.26569E+03  1.45592E+03
  1.12492E+03  1.04717E+04  3.52730E+03  9.48142E+03 -3.26620E+03  8.94819E+03 -1.27051E+04  2.12364E+03
 -7.15621E+03 -2.90220E+03  2.27743E+03 -4.79694E+03  7.73473E+03 -1.66122E+03  6.50048E+03 -2.03529E+03
  5.01515E+03  5.76036E+03 -2.46420E+03  1.88770E+03 -7.93773E+03  6.58296E+03 -7.27512E+03 -1.12502E+03
 -3.12119E+03 -6.79035E+03  3.06956E+03 -3.49336E+03  6.38088E+03 -8.34281E+03  1.05783E+04  4.28904E+03
  4.36164E+03  1.01546E+04  2.21707E+03  1.01758E+04 -2.28337E+02  5.31904E+03 -6.69573E+03 -4.98682E+03
 -5.25096E+03 -6.54702E+03 -2.29453E+03 -1.13301E+04  7.96817E+03 -2.66351E+03  2.97808E+03 -2.75192E+03
  5.70228E+03  2.12280E+03 -2.10340E+03  2.18364E+03 -1.90125E+03  4.40154E+03 -5.55198E+02 -1.66239E+03
  1.49788E+03  1.68497E+03  7.12273E+03 -4.41748E+03  1.18461E+04  7.82710E+03  4.60781E+03  1.10737E+04
 -7.40666E+02  1.19571E+04 -9.07572E+03  9.00384E+03 -1.11267E+04  4.05502E+03 -1.40491E+04 -2.91915E+03
 -6.55296E+03 -8.69743E+03 -1.67489E+03 -5.23154E+03  7.40582E+03 -3.61594E+03  7.06842E+02  2.92105E+03
  4.38423E+03  1.85241E+03  5.08631E+02 -1.18570E+03  2.39348E+03 -2.06256E+03  2.16693E+03  1.31180E+03
  1.07737E+04  1.38254E+03  3.78378E+03  5.88618E+03 -6.50059E+03  3.23248E+03 -7.52171E+03  2.54748E+03
 -5.90612E+03  1.50078E+03 -1.57295E+03 -9.53242E+03 -3.86000E+03 -7.92464E+03  5.52496E+03 -3.67509E+03
  5.28766E+03 -4.82962E+03  1.00746E+04 -1.98778E+03  4.22914E+03  7.34510E+03  4.02547E+03  7.60956E+03
 -3.20786E+03  6.02863E+03 -6.83978E+03  5.32038E+03 -6.19071E+03  3.33379E+03  1.36361E+03 -3.92436E+03
 -1.71539E+03  2.44585E+03 -3.30748E+03  2.09543E+03 -5.76625E+03  2.28536E+03 -4.80107E+03 -6.29454E+02
 -2.47631E+03 -2.59854E+03  4.02118E+02 -3.33242E+03  5.95619E+03 -5.87987E+03  5.82355E+03  5.49411E+02
  9.41205E+03  4.43746E+03  1.98993E+03  2.79808E+03  1.13929E+03  7.07450E+03 -3.68474E+03  2.85159E+03
 -6.61274E+02 -1.56539E+03 -1.05993E+03  5.62640E+02 -1.82468E+03 -6.71326E+03 -7.08376E+02  1.78791E+03
  2.23776E+03 -2.80027E+03  2.99961E+03  4.81525E+03  1.89263E+01  5.65579E+03 -1.62834E+03 -4.35964E+03
  3.71479E+02  1.24505E+03  1.31757E+03  3.70220E+03  9.57682E+02  8.92246E+02  5.32297E+03  4.35454E+03
 -3.78789E+03 -1.93085E+03 -3.31079E+02  1.09156E+03 -8.51203E+03  4.13205E+03 -2.40469E+03 -5.66891E+02
 -8.12354E+02 -2.39574E+03  5.72618E+03 -7.98468E+03  4.69608E+03 -1.58389E+03  4.77905E+03 -1.95743E+03
  4.47026E+03  5.70561E+03 -2.41070E+03  3.91435E+03  6.76479E+02  2.36315E+03 -1.43750E+03  3.60843E+03
  1.78875E+03 -3.59142E+03  5.56059E+03 -4.75018E+03  5.13950E+03  2.25004E+03  1.66485E+03 -1.37312E+03
 -4.27232E+03  3.29380E+02  3.25967E+03  6.50097E+03  6.45874E+02 -2.93589E+03  9.95982E+03  1.15693E+03
  2.15905E+03 -5.43546E+03  2.47126E+03 -1.06633E+01  4.44204E+03  4.43858E+03 -6.75143E+02  2.79410E+03
 -1.48494E+03  2.38839E+03 -1.85310E+03  1.52623E+03 -4.67408E+03 -4.37765E+03  2.90384E+03 -2.92335E+03
 -2.27363E+03 -7.88296E+02  5.99013E+03 -3.59035E+03  4.22467E+02  4.56248E+03 -2.78125E+02  3.08862E+03
 -4.50220E+03  3.94964E+03 -2.73810E+03 -1.69578E+03  2.90493E+03 -2.55630E+03  2.40392E+03 -7.48165E+03
 -4.88066E+02 -3.39748E+03 -2.28453E+03 -2.86941E+03 -1.96811E+02  4.40842E+03 -6.88622E+02  6.23701E+03
  1.47265E+03  1.13397E+03  5.02577E+01 -3.37808E+03  3.16899E+03 -5.39161E+03  8.16295E+03  1.93582E+03
  5.15759E+03 -1.67722E+03  5.78672E+02  4.32611E+03  7.76571E+03  5.90525E+03  4.37247E+02  6.56973E+03
 -3.80622E+03 -2.23215E+03 -4.23241E+02  7.31249E+02 -4.41742E+03 -4.07437E+03 -2.46582E+03 -7.92179E+02
  2.55181E+03  1.86747E+03 -4.95738E+02 -1.38903E+03 -6.90662E+03  5.13859E+02  1.39120E+03  4.53876E+03
 -2.33548E+02  4.83364E+03  4.31942E+03  4.36278E+03 -4.09990E+03  2.12731E+03 -1.20758E+03 -3.99207E+01
 -1.16230E+02  4.16440E+03 -7.93235E+03  2.62056E+03 -2.69186E+03  1.45855E+03 -7.48780E+03  1.34411E+03
 -4.38079E+03 -2.31262E+03 -6.26903E+03 -3.32379E+03 -1.75673E+03 -4.27364E+03  7.98435E+03 -9.80157E+01
  4.26588E+03  4.69273E+03  3.44552E+03  2.04884E+03  3.67891E+03  9.62165E+03 -2.53217E+03  3.60120E+03
 -7.97596E+03  4.05512E+02  4.48058E+02  2.48807E+02  2.83944E+03 -3.88170E+02 -3.52740E+03 -4.67879E+03
 -4.28535E+03 -3.45100E+02  2.87163E+03  1.87821E+03 -1.60997E+03 -1.86967E+03  9.12283E+02 -2.26102E+03
  6.54261E+03 -1.06935E+03  1.74028E+03 -6.30421E+02 -7.64685E+02  1.72681E+03  1.53864E+03  1.98301E+03
  4.33920E+02  1.52246E+03 -3.90526E+03  5.53802E+03 -4.02001E+03  2.24478E+02 -2.54212E+03 -2.47030E+03
 -1.55222E+03 -2.12738E+03  1.15579E+03 -2.41117E+03 -2.03663E+03 -1.67815E+03 -4.67161E+02  2.18572E+03
  7.14397E+02 -1.46633E+03 -1.97687E+03  1.25093E+03 -2.97728E+03  7.84714E+02 -4.76533E+03 -1.67526E+03
 -2.14392E+03  6.92654E+03 -2.62961E-01 -3.69001E+03  6.28741E+01  5.17686E+03 -1.05428E+03 -2.10349E+03
 -4.40908E+03  1.89542E+03  2.31129E+03  2.01830E+02 -3.94102E+03  1.09824E+03  2.61514E+03  3.15590E+02
  2.99470E+02  2.09477E+02  6.07665E+03  3.88318E+03  6.90105E+02 -3.66994E+03 -4.13534E+03  1.41764E+03
  1.57683E+03  4.77342E+03 -3.58350E+03 -5.46130E+02 -3.13985E+03  2.88560E+03 -9.22718E+02  3.80862E+03
 -4.87796E+03 -6.09023E+02 -4.28238E+03  2.60727E+03  9.96591E+02  1.32217E+03 -1.92097E+03  2.55090E+03
 -4.96455E+03  1.91452E+03 -8.30570E+02 -4.56990E+02  5.23187E+03 -1.21772E+03 -4.16830E+02  4.10533E+02
  3.82351E+03  1.66686E+03  1.45851E+03 -3.67834E+03 -7.94899E+01  1.43894E+03 -1.54049E+03  1.06917E+03
