 $NMID ID='MM_0lb_SNR50_16hz_g50_16.RAW', FMTDAT='(8E13.5)'
 TRAMP=1., VOLUME=1. $END
  3.11424E+05 -4.81210E+03  3.37578E+05  2.49410E+05  8.78963E+04  3.35667E+05 -1.33330E+05  2.48527E+05
 -1.89586E+05  8.50203E+04 -1.11470E+05 -3.25137E+04  3.13718E+03 -5.12912E+04  5.52386E+04 -5.52375E+02
  3.15633E+04  5.20633E+04 -1.95494E+04  7.45682E+04 -6.36593E+04  6.35221E+04 -8.23490E+04  2.91746E+04
 -7.94935E+04 -1.56937E+04 -5.66376E+04 -5.02986E+04 -1.78416E+04 -6.54995E+04  2.59925E+04 -4.28779E+04
  3.89586E+04  2.94423E+03  1.47904E+04  4.99289E+04 -3.24474E+04  4.86830E+04 -6.62877E+04  1.33607E+03
 -5.26232E+04 -5.99966E+04 -9.14461E+03 -7.68238E+04  3.78229E+04 -5.48386E+04  4.59890E+04 -2.01147E+04
  4.17399E+04  1.20105E+04  3.04334E+04  2.25277E+04  1.85023E+04  3.17455E+04 -2.84348E+03  2.73572E+04
 -2.04902E+04  1.06734E+04 -1.87154E+04 -8.36835E+03  7.08007E+03 -4.79987E+03  2.37713E+04  9.09070E+03
  7.94445E+03  3.54539E+04 -3.11912E+04  3.15157E+04 -5.98546E+04 -5.03345E+02 -6.26468E+04 -4.15076E+04
 -1.44949E+04 -5.97882E+04  4.31818E+04 -4.48800E+04  5.61619E+04 -2.76653E+03  3.35260E+04  3.32298E+04
 -4.89533E+03  3.59370E+04 -3.02987E+04  1.70176E+04 -3.12024E+04 -1.10299E+03 -1.28927E+04 -9.59086E+03
 -6.70028E+03 -1.21708E+04  3.06051E+02 -1.84543E+04  5.15763E+03 -2.56778E+04  1.32526E+04 -1.52468E+04
  1.09792E+04  5.77714E+03 -2.44904E+03  1.29641E+04 -1.76819E+04 -2.18933E+03 -8.44614E+03 -3.36995E+04
  2.67062E+04 -4.41314E+04  4.28121E+04 -1.73223E+04  4.55362E+04  1.95458E+04  1.56249E+04  4.26998E+04
 -1.40883E+04  2.52849E+04 -2.71191E+04  2.96622E+03 -1.12009E+04 -2.93295E+04  2.01294E+04 -2.92923E+04
  3.93131E+04 -1.06767E+04  2.95264E+04  2.03160E+04  1.40663E+04  4.83947E+04 -9.63287E+03  4.65754E+04
 -2.94923E+04  3.27406E+04 -3.83664E+04  8.34449E+03 -4.16727E+04 -1.51832E+04 -1.82280E+04 -3.84434E+04
  5.96521E+03 -3.86902E+04  2.89241E+04 -1.38294E+04  2.91408E+04  1.03323E+04  5.06235E+03  1.50395E+04
 -1.10603E+04  8.38042E+03 -6.55684E+03 -1.00413E+04  5.55218E+03 -1.28507E+04  2.16343E+04  8.51113E+03
  1.15398E+04  2.20964E+04 -7.25660E+03  2.71515E+04 -2.36306E+04  9.43562E+03 -2.34528E+04 -6.84907E+03
 -2.44837E+04 -2.05961E+04 -3.05747E+03 -2.17143E+04  4.49057E+03 -1.69206E+04  1.54715E+04 -1.51605E+04
  2.49381E+04 -1.08043E+04  3.19136E+04  3.51759E+03  2.36703E+04  1.67291E+04  2.18287E+03  3.74219E+04
 -1.25980E+04  2.50221E+04 -2.57024E+04  1.31737E+04 -2.18236E+04 -1.11057E+04 -4.12407E+03 -1.44976E+04
  1.64561E+03 -4.67727E+03 -3.07119E+03  8.65474E+03 -1.50991E+04  4.26099E+03 -1.08813E+04 -6.26693E+03
 -1.07772E+04 -1.76939E+04  2.46191E+03 -2.17007E+04  1.82950E+04 -1.89929E+04  1.78190E+04 -2.34723E+02
  8.25701E+03  1.67192E+04  2.00983E+03  1.58998E+04 -1.87328E+04  8.91040E+03 -1.94965E+04 -1.19985E+03
 -1.04897E+04 -1.89903E+04 -4.90724E+03 -2.67119E+04  1.13753E+04 -2.00902E+04  1.68850E+04 -5.44444E+03
  1.51798E+04  1.10179E+03  1.43817E+04  3.49986E+03  4.91802E+03  3.55955E+03  5.81631E+03 -6.12135E+03
  1.46080E+04  4.99550E+03  1.77264E+04  1.83727E+04  1.02785E+04  2.31956E+04 -4.61643E+03  2.79490E+04
 -1.75537E+04  2.63886E+04 -3.18477E+04  1.16277E+04 -2.86188E+04 -5.55047E+03 -2.51905E+04 -1.54671E+04
 -1.04657E+04 -3.02682E+04  7.76048E+03 -2.03195E+04  1.83223E+04 -9.25706E+03  2.28974E+04  5.43794E+03
  6.42342E+03  1.63606E+04 -8.64829E+03  1.10864E+04 -1.95145E+04  1.91614E+03 -1.39258E+04 -1.07041E+04
  1.11849E+03 -1.54846E+04  1.23675E+04 -1.45895E+04  6.22702E+03 -1.49918E+03  1.13075E+03  8.19529E+03
 -4.62210E+03  3.72388E+03 -8.81753E+03  2.10591E+03 -3.95697E+02 -1.03463E+04  8.23379E+03 -1.14981E+04
  1.58831E+04 -4.24010E+03  1.69188E+04  3.81582E+03  1.41969E+04  1.42448E+04  7.66767E+03  1.74753E+04
 -1.97576E+03  1.96530E+04 -1.25836E+04  1.30249E+04 -1.42487E+04  3.94319E+02 -1.06184E+04 -1.12248E+03
 -6.02248E+03 -4.51190E+03  1.83385E+03  2.05299E+03 -4.44765E+03  4.72620E+02 -2.04525E+03  6.51514E+03
 -9.56455E+03  9.63608E+02 -8.13906E+03 -7.65616E+03 -3.52620E+03 -1.25357E+04  3.67392E+03 -1.03122E+04
  9.43742E+03 -1.16749E+03  1.03280E+04  5.06062E+03 -2.09679E+03  3.90802E+03 -6.74171E+03  8.86149E+01
 -5.29605E+03 -4.95864E+03 -3.91044E+03 -7.78558E+03  7.63455E+03 -7.20992E+03  1.50953E+04 -7.97879E+03
  1.67678E+04 -2.37624E+03  1.36335E+04  7.51514E+03  5.26804E+03  1.31311E+04 -3.26137E+03  6.93586E+03
 -1.04296E+04  4.15355E+03 -6.75532E+03 -2.48201E+03  2.23056E+03 -3.99337E+03  6.74120E+03  1.92321E+03
  3.91859E+03  4.54456E+03 -2.83151E+03  7.93395E+03 -6.40493E+03  7.54427E+03 -1.02439E+04  1.53940E+03
 -2.99329E+03 -3.93942E+03  6.16133E+03 -7.11822E+03  6.14251E+03 -3.93624E+03  5.41779E+03  1.78359E+03
  1.75209E+03  4.64950E+03 -2.06067E+03  3.68949E+03 -8.00032E+03  2.29740E+03 -7.07600E+03 -3.94110E+03
 -3.41723E+03 -1.74976E+04  3.42902E+03 -1.02751E+04  3.25881E+03 -3.86533E+03  7.45794E+03 -3.29589E+02
  9.14005E+03  7.31507E+03  3.09186E+03  9.77938E+03 -7.36956E+03  5.37667E+03 -2.37875E+03  2.01863E+03
 -4.86141E+03 -6.63469E+03  5.79832E+02 -9.41923E+03  2.26901E+03 -1.11115E+04  6.77104E+03 -2.95149E+03
 -2.34486E+03 -2.67767E+03 -1.74001E+03  2.77965E+03  4.52127E+02 -2.51149E+03 -1.49818E+03 -3.20346E+03
  1.48161E+03 -5.07287E+03  1.14409E+04  4.61032E+02  9.35932E+03  5.09734E+03  9.63249E+03  7.98526E+03
  1.28429E+03  1.08587E+04 -9.97099E+03  8.14929E+03 -1.52845E+04 -3.88712E+03 -9.01048E+03 -9.51217E+03
 -1.03797E+04 -9.14781E+03  1.84708E+02 -6.15251E+03  3.01800E+03 -1.23750E+03  3.29227E+03 -5.47196E+03
  2.47996E+03 -6.12306E+03  5.54003E+03 -2.05020E+03  8.40888E+03 -5.39740E+03  5.16331E+03 -3.30038E+01
  8.56488E+03 -7.58619E+01 -4.03966E+02  4.81605E+03 -2.84246E+03  2.10498E+03 -6.59173E+03  4.36866E+03
 -5.96407E+03  3.89863E+02 -2.55315E+03 -6.27770E+03  2.00660E+03 -8.34176E+03  2.73628E+03 -1.19870E+04
  2.54368E+03 -4.04647E+03  1.10829E+04 -6.24149E+02  1.04514E+04  9.55210E+03  2.17136E+03  5.84238E+03
 -1.48832E+03  7.68456E+03 -2.07977E+03  4.94612E+03 -4.82581E+03 -3.91666E+02 -1.72626E+03 -1.94442E+03
 -4.98007E+02  5.85351E+02 -2.51005E+03  2.15838E+03 -7.25165E+03  2.73721E+03 -7.92125E+03 -1.05397E+02
 -4.28331E+03 -3.53809E+03  2.10957E+03 -7.37335E+03  6.36583E+03 -6.77415E+03  5.59529E+03 -6.23418E+02
  6.74054E+03  1.82467E+03  5.57256E+03  5.25025E+03 -7.15388E+02  4.23968E+03 -3.63356E+03 -2.23542E+03
 -3.37953E+03  2.14199E+03 -6.38733E+03 -5.74606E+03  3.43488E+03 -6.07584E+03  1.45115E+03 -2.55574E+03
  1.06135E+03 -2.19875E+03  2.48712E+03 -1.13140E+03  2.15568E+03  2.08795E+03 -2.14473E+03 -1.96914E+03
 -6.33533E+02  3.84432E+03 -6.30418E+02  1.93604E+02 -7.84739E+02  4.84231E+03  3.09338E+03  3.99043E+03
  8.89627E+02  7.28307E+03 -2.25164E+03  2.07506E+03 -2.75724E+03  2.87521E+03 -7.69621E+02 -1.34520E+03
 -3.63748E+03 -6.13258E+03  2.91569E+03 -6.15769E+03  1.59463E+03 -1.26714E+03  6.11756E+03 -2.04136E+03
  7.50489E+03  3.75580E+03  2.86257E+02  1.82362E+03  1.23084E+03  7.00870E+03 -2.46293E+03  2.89907E+03
  2.08194E+02 -4.08715E+02  1.34988E+03 -6.07291E+02  2.63179E+03  2.00209E+03  4.29396E+03  4.56436E+03
  1.18530E+03 -9.38361E+02  6.66780E+02  3.59638E+03  2.68390E+03 -1.45488E+03 -2.24894E+03 -2.72075E+03
 -1.40860E+03 -4.17020E+03 -5.52646E+02  3.82838E+03 -1.18583E+02  3.22658E+03 -1.69784E+03  6.26316E+03
 -6.57640E+02 -8.21301E+02 -2.73408E+03  6.44543E+03 -4.51963E+03 -1.78238E+03 -2.10128E+03  7.82011E+02
  4.90234E+03 -2.53396E+03  3.04968E+03 -8.68588E+02  2.47695E+03  1.07922E+03 -6.56524E+02  3.99584E+03
  4.38662E+02 -6.18972E+02 -2.36582E+03 -1.80022E+03 -4.70276E+03 -6.90864E+03 -6.80818E+02 -2.95143E+03
 -1.80316E+03  2.76559E+03  1.85210E+03 -3.60999E+02  5.63904E+03  2.15253E+03 -5.49240E+02  4.19251E+03
  2.91855E+02  1.60905E+03 -1.48177E+03 -1.37267E+03  4.13001E+02 -4.01400E+03  4.84753E+03 -3.78211E+03
  1.86448E+03  2.66812E+03  5.36458E+03 -5.99413E+03  9.49843E+02  1.65741E+01 -1.05660E+03  1.80512E+03
 -3.88031E+03 -6.61984E+02 -2.16033E+02 -5.52742E+02 -2.21770E+02  1.81249E+02  5.83876E+02  2.80111E+03
  4.75633E+03 -2.30290E+03 -3.02363E+02  5.83373E+03  2.88776E+02 -1.93222E+03 -5.29473E+01  5.93630E+03
  3.60055E+03  4.44466E+03 -3.59300E+03  2.28618E+03 -3.99657E+03  2.74874E+03 -8.12925E+03 -2.68377E+03
  1.20630E+03  1.90809E+03 -2.52825E+03 -3.50394E+03 -2.72878E+02  3.80479E+03 -5.63040E+03 -2.07864E+03
  1.19713E+03 -5.48476E+03  4.75041E+03 -3.93354E+03 -1.51451E+03 -6.65099E+03  4.56852E+03 -2.10352E+03
  6.47652E+03  1.65692E+03  3.27916E+03  3.01393E+03  2.76324E+02  4.07388E+03  1.94306E+03  4.52102E+02
 -3.54580E+03  2.95898E+03 -1.98000E+03 -1.62266E+03 -4.88737E+03 -1.16148E+03 -1.32908E+03 -3.01210E+03
 -5.01626E+03  5.90936E+02 -1.26156E+02 -1.94725E+03 -3.43120E+03 -2.59053E+03 -7.36331E+02  3.99970E+03
 -2.80824E+03 -4.20213E+03 -1.28667E+03 -5.29869E+03  2.14156E+03 -1.37547E+03  8.12520E+02 -1.25696E+03
 -3.31602E+02  2.00873E+03 -4.12665E+03 -5.37768E+02 -2.76128E+03  2.98886E+03 -3.94376E+03 -7.04505E+03
 -1.03902E+03  9.02708E+02 -1.73818E+03 -3.41112E+03  4.35150E+03 -5.96918E+03  1.38375E+03  4.97356E+03
  1.91246E+03  2.89297E+03  4.14255E+03 -3.39764E+03  9.16215E+02 -5.10618E+03  7.25300E+02 -5.34494E+03
  4.72539E+03 -2.53910E+03 -7.65725E+03  1.19239E+03  3.62956E+03  1.59970E+03 -1.39466E+03 -6.39026E+02
  6.13644E+01  2.97292E+03  8.16565E+02  2.16402E+03 -7.09921E+03  8.89905E+02 -5.98063E+02 -1.59647E+03
  3.85548E+03 -3.38054E+03  3.74992E+03 -3.12849E+03 -6.25513E+03  1.55259E+03 -7.97089E+02 -3.51963E+02
 -1.04986E+03 -2.49425E+02 -1.16778E+03  3.19768E+03 -3.45987E+03 -2.88292E+03  1.96751E+03  2.40799E+03
 -1.53754E+03 -9.88016E+02 -2.22537E+03 -1.11385E+03 -4.18584E+03 -1.68775E+03 -2.59215E+03 -9.48268E+02
 -4.43517E+03  1.12028E+03 -1.25483E+03 -6.47387E+02 -7.11913E+02  4.10346E+02 -4.86164E+02  3.77041E+02
  1.99382E+03  2.10662E+02  5.04452E+02  7.44668E+01 -1.71699E+03  4.92967E+03 -3.14761E+02  9.15133E+02
