 $NMID ID='MM_0lb_SNR50_19hz_g50_94.RAW', FMTDAT='(8E13.5)'
 TRAMP=1., VOLUME=1. $END
  3.07321E+05 -6.03216E+02  3.36157E+05  2.50885E+05  8.27448E+04  3.39691E+05 -1.31959E+05  2.50512E+05
 -1.91758E+05  8.39994E+04 -1.14564E+05 -3.33895E+04  1.28537E+03 -5.02636E+04  5.61580E+04  4.77004E+03
  3.57873E+04  5.33073E+04 -1.53774E+04  7.09275E+04 -6.06950E+04  6.42833E+04 -8.17384E+04  2.98139E+04
 -8.27183E+04 -1.46204E+04 -6.01367E+04 -4.54892E+04 -1.30998E+04 -6.55237E+04  2.35746E+04 -4.90499E+04
  3.59670E+04 -3.58520E+03  1.26985E+04  4.59258E+04 -3.46787E+04  4.61837E+04 -6.37479E+04 -1.39235E+03
 -5.01293E+04 -5.82771E+04 -6.44656E+03 -7.82758E+04  3.39174E+04 -5.14929E+04  5.02559E+04 -1.65495E+04
  4.38532E+04  9.58511E+03  3.29431E+04  2.62241E+04  1.87251E+04  3.02086E+04 -2.63515E+03  2.74052E+04
 -1.89445E+04  1.35265E+04 -1.88564E+04 -1.41568E+03  5.50529E+03 -6.57587E+03  2.16869E+04  1.02476E+04
  5.36916E+03  3.37738E+04 -3.20475E+04  3.58612E+04 -6.45802E+04  3.61291E+03 -6.06663E+04 -4.13202E+04
 -1.17527E+04 -5.87985E+04  3.86499E+04 -4.41316E+04  5.72569E+04 -1.32827E+03  2.84693E+04  2.90991E+04
 -6.95349E+03  3.52949E+04 -2.88442E+04  1.37178E+04 -2.59612E+04 -4.86902E+03 -1.98728E+04 -1.33330E+04
 -8.83812E+03 -1.10778E+04 -7.59983E+02 -1.31614E+04  6.50791E+03 -2.24663E+04  1.57073E+04 -7.76801E+03
  1.74190E+04  5.47874E+03 -6.39953E+03  1.26346E+04 -2.24468E+04 -3.70991E+03 -1.30165E+04 -3.16864E+04
  1.82441E+04 -4.21595E+04  4.50011E+04 -1.98448E+04  4.04723E+04  1.89956E+04  1.43632E+04  3.71094E+04
 -1.89198E+04  3.01850E+04 -2.79632E+04  3.60503E+02 -6.81281E+03 -3.27788E+04  2.03988E+04 -3.41594E+04
  3.54718E+04 -5.03563E+03  3.39258E+04  2.39616E+04  1.52316E+04  4.37294E+04 -6.89222E+03  4.69224E+04
 -2.77999E+04  2.44345E+04 -3.80581E+04  6.38461E+03 -3.94772E+04 -1.49169E+04 -2.32272E+04 -3.54328E+04
  6.01889E+03 -3.50828E+04  3.00725E+04 -1.03432E+04  2.68458E+04  1.23093E+04  2.83471E+03  2.19182E+04
 -1.32873E+04  8.38422E+03 -1.16342E+04 -6.82784E+03  4.76493E+03 -9.59489E+03  1.56554E+04  3.65521E+03
  1.00294E+04  2.34392E+04 -6.30049E+03  2.33632E+04 -1.91741E+04  1.06836E+04 -2.41277E+04 -9.12694E+03
 -1.78189E+04 -1.74565E+04 -5.56819E+03 -1.58015E+04  4.35194E+03 -8.13619E+03  1.50837E+04 -1.94542E+04
  2.10615E+04 -7.25882E+03  2.96197E+04 -3.55492E+02  2.07913E+04  1.64256E+04  5.10880E+03  3.62819E+04
 -1.21959E+04  2.52232E+04 -2.47018E+04  6.34117E+03 -2.12533E+04 -1.02847E+04 -3.03211E+03 -1.48033E+04
  2.51091E+03 -7.96866E+03 -2.69243E+03  5.04386E+03 -8.01730E+03  6.51841E+03 -1.23060E+04 -5.16740E+03
 -6.06124E+03 -1.55693E+04  4.67929E+03 -2.03488E+04  1.28857E+04 -1.45460E+04  1.19802E+04 -1.29311E+03
  1.31297E+04  8.12163E+03  5.12303E+02  1.30928E+04 -1.00277E+04  9.08298E+03 -1.68122E+04 -5.29283E+03
 -1.25764E+04 -1.95207E+04 -1.50633E+03 -1.91774E+04  1.04223E+04 -1.18183E+04  1.59405E+04 -8.51946E+03
  1.66475E+04 -1.78136E+03  1.13499E+04  3.38835E+03  3.27084E+03 -1.59831E+03  6.20608E+03  2.11423E+02
  1.35462E+04  3.70420E+03  1.71797E+04  1.16314E+04  1.03353E+04  2.44063E+04 -3.56415E+02  2.59593E+04
 -1.72438E+04  2.02225E+04 -2.38930E+04  1.19742E+04 -2.34241E+04  1.81733E+03 -2.01243E+04 -1.46025E+04
 -1.03692E+04 -1.75015E+04  7.67404E+03 -1.91860E+04  1.95626E+04 -1.18188E+04  1.54323E+04  2.25679E+03
  6.30477E+03  7.87728E+03 -7.70225E+03  1.20493E+04 -1.39977E+04  2.67636E+03 -1.00063E+04 -7.38313E+03
  2.07028E+03 -9.26993E+03  8.31477E+03 -9.24018E+03  9.21968E+03 -1.97890E+03  1.42769E+03  5.23931E+03
 -6.16742E+03 -2.05173E+02 -6.01620E+03 -3.36150E+03 -4.43008E+02 -1.19134E+04  9.74528E+03 -1.19738E+04
  1.46640E+04 -7.10498E+03  1.04099E+04  3.03491E+03  7.99529E+03  7.94389E+03  2.96772E+03  1.19581E+04
  3.30246E+02  1.32478E+04 -1.14091E+04  1.00408E+04 -9.20235E+03  1.30192E+03 -1.10221E+04  9.83573E+01
 -4.80486E+03 -4.86125E+03 -2.97911E+03  7.76788E+03 -3.75543E+03  2.81260E+03 -6.59920E+02  4.60874E+03
 -1.16784E+04 -1.05393E+02 -7.28335E+03 -8.84077E+03 -4.46537E+03 -8.48769E+03  7.89654E+03 -7.41274E+03
  4.68299E+03 -3.73492E+03  1.98104E+03  2.44151E+03  3.27766E+03  4.84745E+03 -4.57646E+03 -7.57670E+02
 -1.59033E+02 -3.39736E+03  9.65846E+02 -6.08720E+03  4.41741E+03 -6.47396E+03  6.63278E+03 -4.00347E+01
  9.38238E+03 -5.09393E+02  7.15653E+03  5.43416E+03  3.75645E+03  1.01189E+04 -5.04984E+03  1.07779E+04
 -7.08011E+03  4.33923E+03 -9.88612E+02 -8.34271E+02  1.02270E+03 -3.21985E+03  3.98789E+03 -1.99569E+03
  8.48023E+03  1.87427E+03  4.02237E+03  9.00908E+03 -2.62239E+03  1.04572E+04 -6.43515E+03  1.51122E+03
 -5.01822E+03 -1.83220E+02  4.55695E+03 -7.18937E+03  5.90052E+03 -2.37960E+03  1.03168E+04  4.30095E+03
  1.21064E+03  9.54930E+03 -8.04440E+03  3.20107E+03 -6.39868E+02  3.15428E+03 -2.09484E+03  1.41100E+03
 -2.67900E+03 -7.18435E+03  4.51317E+02 -8.11641E+03  7.16170E+03 -3.68785E+03  9.05045E+03  8.51918E+02
  5.42283E+03  1.79468E+03 -1.55457E+03  7.49997E+03 -5.73017E+03  4.45078E+03 -8.99906E+03 -2.41476E+03
  9.64431E+02 -2.09340E+03  1.75095E+03 -3.14699E+03  1.60538E+03 -2.24579E+03  5.02264E+03 -1.28719E+02
 -4.69965E+02  6.93139E+02 -1.77287E+03 -2.38661E+02 -1.40438E+03  2.50092E+03  8.64460E+02 -1.89463E+03
  5.14948E+03  6.58083E+02  8.26207E+03 -8.39534E+02  4.43873E+03  8.42225E+03  3.57144E+03  6.69585E+03
 -1.90012E+03  7.48757E+03 -7.72463E+03  5.76523E+03 -1.03680E+04  7.51459E+02 -5.27374E+03 -2.20155E+03
  1.45633E+03 -3.88450E+03  1.73982E+03 -2.18661E+03  4.43418E+03  4.18820E+03  3.47910E+03 -2.91854E+03
  3.92119E+03 -1.12931E+03  1.39768E+03 -5.39312E+03  4.82387E+03 -1.65642E+03 -2.09017E+03 -8.51625E+02
  2.95799E+03  1.20408E+03  5.81805E+02  3.77345E+03  1.15325E+03 -8.89455E+02 -3.97803E+03  7.40762E+03
  1.35823E+02 -2.38609E+03 -2.61745E+03 -5.14906E+03  2.78997E+02 -5.90817E+03  5.61494E+02 -3.72732E+03
  5.19680E+03 -2.71309E+03  8.95421E+03  4.31242E+02  4.20632E+03  2.84304E+03 -2.71331E+03  7.01612E+03
  2.76418E+03  8.42428E+03 -4.97879E+03  3.97993E+03 -2.43626E+03 -6.52041E+03 -4.86048E+02 -2.51078E+03
 -1.24989E+03 -1.44079E+03  3.62171E+02  1.00253E+03 -4.56911E+03 -2.43022E+03 -5.01869E+03  1.97184E+03
 -3.93880E+03 -4.56111E+03  1.24222E+03 -1.36894E+03 -2.75332E+03 -2.17918E+03  3.47105E+03 -4.54998E+02
  4.02535E+03  4.99412E+02  5.21771E+03  2.74665E+03 -1.21275E+02  3.58833E+03 -2.14189E+03  3.98276E+03
 -4.67537E+03  2.64539E+02 -4.60738E+03 -2.17301E+03  1.18550E+03 -4.59850E+03 -7.33788E+02  1.98284E+03
  2.13586E+03 -4.46222E+03  1.96906E+03 -2.73111E+03 -2.61857E+02 -2.19724E+03  3.63685E+03  1.95175E+03
  1.73236E+03 -9.95588E+02  3.80108E+03  2.07040E+03  1.01052E+03  3.13622E+03  3.43330E+02  1.47837E+03
  1.83571E+03 -9.57314E+02 -8.24522E+03  4.41210E+03 -3.65298E+03  9.71279E+02 -6.01532E+03  2.95671E+03
 -2.19653E+03 -4.31876E+03 -3.85766E+03 -6.78426E+03  2.26048E+02 -3.24395E+03  4.46654E+02 -3.30846E+03
  4.03574E+03  5.90853E+03  1.30014E+03  4.75624E+03 -2.90725E+03 -1.28363E+03 -2.83718E+03 -1.11445E+03
 -1.47286E+03 -1.25632E+03 -4.24441E+01 -1.31934E+03 -1.67180E+03 -3.83852E+03  4.73256E+03  1.51364E+03
  3.05001E+03  4.04483E+03  6.34042E+03 -1.79517E+03 -1.80502E+03  1.01220E+03 -1.13695E+03  1.20348E+03
 -1.28942E+03  1.31111E+03 -5.14452E+02 -6.13841E+02  8.39294E+02  7.83845E+02  2.05001E+02 -7.95542E+00
  1.23747E+03  5.85259E+03 -3.21437E+03  2.44325E+03 -4.78152E+03  1.39353E+03 -1.08379E+03  1.63650E+03
 -3.73015E+03 -1.14459E+03 -3.68820E+03  3.04776E+02  4.20061E+03  5.13650E+01  6.24628E+02  3.95825E+03
  6.81849E+02 -2.86129E+02  8.58857E+02 -1.97640E+03 -6.82427E+02 -2.88734E+03 -8.52446E+02 -2.10594E+03
 -2.10201E+02 -1.16274E+03  2.66252E+02 -3.66025E+02  7.49407E+02 -1.27044E+03  5.53477E+03  1.55073E+02
  2.98250E+03 -9.30057E+00  1.82791E+02 -2.01999E+03 -1.70294E+03  6.74293E+02  5.42557E+02 -1.23847E+03
 -2.92495E+03 -8.17063E+02  9.53909E+03  1.99890E+03  2.98558E+03  3.15622E+03 -3.78916E+03 -9.57964E+02
  8.69001E+02 -1.62316E+03 -8.12850E+03  6.02925E+02 -1.45028E+03 -1.56397E+03  1.35856E+03  4.48026E+02
  1.48733E+03 -1.07060E+03  2.53342E+03 -2.42791E+01  2.45107E+03  1.73101E+03  2.16992E+03  3.73710E+03
 -9.86087E+01  3.85946E+03  9.52791E+02  2.61524E+03 -5.32507E+02  4.86171E+02 -5.90235E+01  3.63207E+03
 -3.03646E+03 -1.85281E+03 -3.32037E+03  1.25247E+03 -2.40665E+03  3.01351E+03 -3.12298E+03 -1.29927E+03
 -3.11858E+03 -7.66311E+02 -1.23170E+02 -1.34748E+03  2.45380E+03 -2.95497E+03 -5.82821E+01 -4.11895E+03
  2.00391E+03 -8.12883E+02  1.58558E+03  4.73027E+03  6.18480E+02  8.02549E+02 -4.05798E+03  5.68961E+03
 -1.81803E+03  1.07185E+03 -1.93359E+03 -6.39901E+03  1.52183E+03  2.07094E+03 -1.10152E+03 -7.38074E+02
 -1.42622E+03 -2.48596E+03 -3.16873E+03 -4.12555E+02  4.66297E+03  4.83926E+02 -5.13272E+02 -2.52751E+02
  3.70668E+01 -4.95333E+01 -1.18005E+03  8.90031E+02  2.34396E+03  8.69920E+02  3.93555E+02 -5.09232E+02
  2.04631E+03  7.10747E+03 -1.08606E+03  3.58538E+03 -5.76396E+02 -4.08113E+03 -3.77635E+03  1.63294E+03
 -5.61370E+02 -7.84292E+01 -4.52345E+03 -1.62549E+03 -3.40774E+03  2.82991E+01  2.64673E+03  2.33120E+03
 -1.03247E+03 -1.53531E+03  3.07778E+03  7.00971E+01 -3.46377E+03  2.49914E+03 -1.53970E+03  8.28408E+01
 -1.95161E+03 -2.52482E+03  2.45664E+02  3.79137E+03  2.46828E+03  1.25210E+03  1.97737E+03 -1.13730E+03
 -5.76806E+02 -1.40794E+02 -1.01455E+03 -2.58829E+03 -1.11649E+03 -4.93034E+03 -2.59479E+02 -1.57889E+03
  5.21965E+02 -1.67703E+03  2.78136E+03  2.69545E+03 -1.64761E+03  9.51027E+02  9.65658E+02  2.08824E+03
 -4.93201E+02  3.44934E+03  1.35523E+03  3.45838E+03 -1.97254E+03 -1.27396E+03  4.15035E+03 -1.62042E+03
  2.48374E+03 -1.19866E+03  1.57931E+03  6.48793E+02 -3.33567E+03  8.94737E+02  1.67645E+03  1.30902E+03
 -1.19840E+03  5.56996E+02  3.85455E+03 -6.69794E+02  2.99545E+03 -5.68347E+01  2.49958E+03 -1.94836E+03
 -8.12345E+02  2.18847E+03 -7.40440E+02 -2.68576E+03 -1.13309E+01  4.79723E+02  5.05089E+02 -3.70834E+03
