 $NMID ID='MM_0lb_SNR50_16hz_g45_10.RAW', FMTDAT='(8E13.5)'
 TRAMP=1., VOLUME=1. $END
  3.06727E+05 -1.19392E+02  3.39175E+05  2.52194E+05  8.89743E+04  3.38700E+05 -1.32844E+05  2.47507E+05
 -1.90842E+05  8.66449E+04 -1.10661E+05 -3.43824E+04 -1.30695E+02 -4.78945E+04  5.22750E+04  1.00164E+03
  3.49401E+04  5.57918E+04 -1.55279E+04  6.92444E+04 -6.14313E+04  6.17290E+04 -8.66691E+04  3.10764E+04
 -7.67359E+04 -8.78330E+03 -5.55953E+04 -5.08678E+04 -1.28714E+04 -6.97627E+04  2.65170E+04 -4.65422E+04
  3.69912E+04  7.83486E+02  1.58652E+04  4.87667E+04 -3.39055E+04  4.67809E+04 -6.72015E+04 -1.79304E+02
 -5.42620E+04 -5.30619E+04 -2.94610E+03 -7.11015E+04  3.80013E+04 -5.47893E+04  4.49969E+04 -1.73570E+04
  4.26360E+04  1.13303E+04  2.90841E+04  2.57233E+04  1.60228E+04  2.99146E+04 -2.29408E+03  2.60641E+04
 -2.60140E+04  1.20104E+04 -2.03878E+04 -1.56040E+03  4.82074E+03 -4.77272E+03  2.38787E+04  1.48240E+04
  3.61264E+03  3.04526E+04 -3.15421E+04  3.51908E+04 -6.26558E+04  1.03748E+03 -5.91521E+04 -4.18346E+04
 -9.47576E+03 -6.08474E+04  3.60546E+04 -4.06530E+04  5.76113E+04 -2.63890E+03  3.53289E+04  2.94631E+04
 -6.47720E+03  3.44632E+04 -2.85887E+04  1.55849E+04 -3.10314E+04 -1.09754E+03 -1.25826E+04 -1.32312E+04
 -3.71250E+03 -1.25596E+04 -1.43589E+03 -1.61786E+04  2.22502E+03 -2.22158E+04  1.91685E+04 -1.24252E+04
  1.07748E+04  2.71297E+03 -9.71901E+03  1.54439E+04 -2.09352E+04 -1.31419E+03 -6.00048E+03 -2.98867E+04
  2.53862E+04 -3.90488E+04  4.45309E+04 -1.94889E+04  4.56406E+04  2.10926E+04  1.03477E+04  4.09512E+04
 -1.39204E+04  3.27095E+04 -1.68289E+04  3.96773E+02 -6.80491E+03 -2.16635E+04  2.17270E+04 -3.17727E+04
  4.19728E+04 -1.16038E+04  3.43733E+04  2.50691E+04  2.02440E+04  4.70805E+04 -6.47221E+03  4.96693E+04
 -3.02277E+04  3.25231E+04 -4.03337E+04  9.65190E+03 -3.85895E+04 -1.67831E+04 -2.00622E+04 -3.50923E+04
  9.86723E+03 -3.36174E+04  3.04764E+04 -1.20834E+04  3.10079E+04  9.20312E+03  9.03455E+02  1.85054E+04
 -1.17549E+04  8.32732E+03 -7.56426E+03 -8.88705E+03  6.63958E+03 -1.06006E+04  1.17213E+04  6.31973E+03
  1.35539E+04  2.26085E+04 -5.86527E+03  1.97087E+04 -2.23436E+04  6.06205E+03 -2.81632E+04 -6.99765E+03
 -1.50908E+04 -1.71650E+04 -7.05038E+03 -1.82959E+04  4.67556E+03 -1.37559E+04  1.18527E+04 -1.82335E+04
  2.44160E+04 -8.34252E+03  3.10004E+04  6.80282E+03  2.54143E+04  1.95154E+04  3.07851E+02  3.46333E+04
 -1.38031E+04  2.67706E+04 -2.70061E+04  1.15528E+04 -2.01913E+04 -9.62038E+03 -3.20067E+03 -1.85270E+04
  7.41631E+02 -6.43405E+03 -1.98392E+03  7.94512E+03 -1.15234E+04  6.20099E+03 -1.55895E+04 -5.78881E+03
 -1.52573E+04 -1.42657E+04  4.10003E+03 -2.19118E+04  1.52536E+04 -1.66037E+04  1.33567E+04 -1.13564E+03
  8.41132E+03  1.25514E+04 -1.83091E+03  1.67845E+04 -9.95578E+03  9.86941E+03 -1.42723E+04 -2.92466E+03
 -1.73346E+04 -1.73225E+04 -4.61054E+03 -2.12369E+04  1.26108E+04 -1.59784E+04  1.84919E+04 -4.04113E+03
  1.40081E+04  2.47722E+03  1.10756E+04  4.06136E+03  7.16548E+03  3.87410E+03  7.13169E+03 -4.81709E+01
  1.40605E+04  1.44082E+03  2.11751E+04  8.89792E+03  1.31124E+04  2.64367E+04 -3.96405E+03  2.85088E+04
 -2.04090E+04  2.04427E+04 -3.39384E+04  1.16138E+04 -2.86387E+04 -1.50845E+03 -2.26029E+04 -1.60303E+04
 -9.42117E+03 -2.65958E+04  8.19901E+03 -2.75585E+04  1.89216E+04 -1.30981E+04  1.67959E+04  4.30677E+03
  9.27971E+03  1.26758E+04 -1.00156E+04  1.14846E+04 -1.21857E+04  5.07740E+03 -8.22988E+03 -9.45436E+03
 -1.13202E+03 -1.11146E+04  6.47994E+03 -1.50296E+04  7.32865E+03 -3.12123E+03  3.52230E+03  3.05884E+03
 -4.74809E+03 -1.20698E+03 -2.71565E+03 -2.63873E+03  1.97459E+03 -1.09183E+04  6.61896E+03 -1.13898E+04
  1.45968E+04 -1.32538E+03  1.97710E+04  4.85156E+03  1.13972E+04  1.22925E+04  2.13631E+03  1.66570E+04
 -2.40884E+03  1.82837E+04 -7.72737E+03  1.21854E+04 -1.18873E+04  5.14757E+03 -8.65688E+03  3.05183E+02
 -2.01478E+03 -4.78279E+03 -4.87673E+02  8.27034E+02 -3.76254E+03  2.29288E+03 -3.90642E+03  1.29058E+03
 -1.02753E+04 -1.76025E+01 -1.34485E+04 -9.27762E+03 -4.20321E+03 -1.42973E+04  1.36263E+03 -8.44449E+03
  1.16429E+04 -3.19455E+03  8.34330E+03  4.49238E+03 -2.79503E+03  5.66167E+03 -8.47859E+03 -4.08708E+03
 -2.63327E+03 -7.17352E+03 -2.53384E+03 -9.79408E+03  5.65931E+03 -7.17593E+03  1.01496E+04 -4.36416E+03
  1.95305E+04 -3.09735E+03  9.68699E+03  9.61573E+03  2.60600E+03  1.02498E+04 -3.49287E+03  1.12566E+04
 -3.68879E+03  3.09328E+03  3.61982E+01 -2.04439E+03  2.43246E+02 -5.87611E+03  2.67632E+03  4.13107E+03
  5.91913E+03  6.69780E+03 -4.24163E+02  4.84789E+03 -3.74704E+03  9.34063E+03 -7.78500E+03  4.03963E+03
 -7.36201E+03 -3.61313E+03 -1.53283E+03 -9.49178E+02  3.53008E+03  7.99677E+02  4.88044E+03 -2.33886E+03
  1.05560E+03  3.34293E+03 -1.14549E+03  1.31550E+04 -5.09200E+03  2.31250E+03 -8.83201E+03  2.12416E+03
 -6.18402E+03 -8.38818E+03 -3.53521E+03 -8.15130E+03  1.21147E+04 -2.26288E+03  8.23975E+03  1.88215E+03
  3.72426E+03  7.92573E+03 -9.76620E+02  6.68412E+03 -7.71977E+03  5.45528E+03 -4.14387E+03 -2.07029E+03
 -9.74366E+03 -3.86162E+03 -6.36898E+03 -4.79834E+03  3.02873E+03 -7.61078E+03  2.96945E+03 -5.06039E+03
  4.10785E+03 -2.97444E+03  1.36314E+03  4.58095E+02  1.64384E+03  2.69102E+02  9.14912E+02 -1.95942E+03
  2.84945E+03  4.37441E+02  7.65940E+03  2.73868E+03  9.75005E+03  3.64121E+03  5.19895E+03  9.98381E+03
 -4.19915E+03  9.52442E+03 -1.15880E+04  8.75819E+03 -8.47581E+03  2.60068E+03 -9.07434E+03 -2.18960E+03
 -7.15310E+03 -5.68371E+03  3.28394E+03 -8.83243E+03  3.09371E+03 -4.67002E+02 -6.83857E+02  1.25144E+03
 -1.51970E+03 -4.28026E+03  5.76357E+02 -3.11685E+03  3.64034E+03 -1.64249E+02  4.39539E+03 -1.41565E+02
  3.96366E+03  2.96130E+03  4.32681E+03  2.81380E+03  1.56665E+03  5.54175E+03 -5.64758E+03  4.66568E+03
 -9.09227E+03 -1.17586E+03 -3.70022E+03 -8.58470E+03 -2.90226E+03 -6.97938E+03  7.87210E+03 -7.16159E+03
  4.96768E+03 -4.46934E+03  6.41158E+03 -2.02690E+03  8.32344E+03  6.39292E+03  5.50442E+03  6.59553E+03
 -7.49549E+02  1.25803E+04 -2.85585E+03  4.61200E+03 -8.80073E+02  7.12256E+02 -2.50537E+03 -7.63969E+02
 -4.51313E+03  2.07095E+03 -2.00639E+02  1.80177E+02 -6.06862E+03  2.13561E+03 -8.65484E+03  1.97555E+03
 -2.72909E+03 -2.34075E+03  2.65913E+02 -4.75156E+03  7.48443E+03 -7.15220E+03  6.43747E+03 -2.62045E+03
  3.13885E+02  5.08081E+03  1.48168E+03  6.37722E+03 -4.55187E+03  8.03769E+03 -3.98990E+03  3.05077E+03
 -8.22255E+03 -2.20686E+03 -6.69157E+03 -6.71487E+03  3.31126E+03 -2.58378E+03  1.53408E+03 -2.41427E+03
  7.49210E+03  3.83561E+03  1.38600E+03  3.10834E+03 -1.52391E+02  7.21788E+02  2.23105E+03  2.33313E+03
  2.38734E+03  8.83332E+02  7.34826E+02  1.35211E+03 -3.09375E+03 -5.41817E+02 -1.28443E+03  2.19178E+03
 -2.24070E+03  6.28357E+03 -7.93603E+03  6.37251E+03 -6.23108E+03 -2.22278E+03 -7.30131E+03  6.66711E+02
 -4.88330E+03 -1.92930E+03 -2.24085E+03 -9.85257E+03  3.62481E+03 -5.16821E+03  1.91119E+03 -4.85518E+02
  1.38782E+02  1.62847E+03  3.77029E+03  2.29674E+03 -2.73054E+03 -8.86163E+02 -1.98697E+03 -2.13900E+03
 -1.73248E+03 -5.68546E+03 -4.51124E+03  1.36701E+03  2.51499E+03 -8.13847E+03  1.31181E+03 -2.23407E+03
  3.89953E+03  9.05053E+02 -2.08814E+03  1.89696E+03 -2.83809E+03  1.07227E+03  6.61366E+03  1.73729E+02
  4.41376E+03 -3.02389E+03  1.03831E+03  6.91811E+03 -4.47517E+03 -2.73902E+03 -7.84647E+01  8.00930E+03
 -6.92036E+03  1.37628E+03 -2.58064E+02  1.35674E+03 -3.31313E+03  1.69686E+03 -3.61654E+03 -3.44470E+03
  4.56146E+02 -1.61899E+03 -2.25180E+03 -1.92012E+03  2.64669E+03  1.19678E+03 -2.09110E+03  6.11522E+02
 -5.98242E+03  7.57838E+02 -2.18923E+03 -3.23473E+03 -1.80759E+03 -1.53948E+03 -2.90776E+03 -5.08473E+03
 -2.55440E+03  2.59427E+03  2.33481E+03  1.37951E+03  1.63291E+03  2.16161E+02  1.59226E+01 -2.61255E+03
  2.33898E+02 -1.92546E+03 -2.52108E+02  3.09857E+02 -5.41896E+02 -7.04658E+03 -1.42192E+03 -5.32640E+03
  2.98936E+03 -1.40217E+03  5.78473E+03  3.46531E+03  1.03951E+03  5.87547E+02 -2.77305E+03  1.57642E+03
 -5.77771E+03  2.57139E+03 -2.18744E+03  2.27151E+03 -3.86394E+03 -5.92085E+03 -1.91758E+03 -1.57785E+03
 -2.21003E+03  2.45034E+02  2.82639E+03  1.50527E+03  2.94396E+02  3.13850E+03  1.27256E+03  1.36532E+03
 -2.33833E+03 -2.25511E+02  1.24645E+03 -5.64759E+02  1.70820E+03  1.61975E+03 -4.69774E+03  1.74334E+03
 -1.78913E+03  9.37660E+03 -2.25628E+03  3.09888E+03 -9.59568E+01 -1.47723E+03 -1.29368E+03 -1.03494E+03
 -2.21127E+03 -2.56737E+03  3.17540E+03 -7.33690E+03  1.31647E+03 -5.36254E+03  9.00063E+03 -8.81328E+02
  6.17561E+03  1.56451E+03  5.07820E+03  5.51135E+03  3.95604E+03  3.68464E+03  6.47344E+00  1.11601E+03
 -2.17711E+03  1.31868E+03 -1.06116E+03  3.89628E+03 -1.16183E+03 -1.60321E+03  2.41932E+03 -1.56106E+03
 -2.92771E+03 -1.27178E+03  3.76790E+03  2.87215E+03  5.38987E+03  1.12030E+03  1.36344E+03  3.63876E+03
  3.33256E+03 -5.12177E+03 -5.37689E+02 -1.18529E+03  2.37889E+03  2.24401E+02 -1.48659E+03  2.23115E+03
 -3.19905E+03  6.24861E+03 -2.62632E+03  4.98337E+03 -1.93460E+02  1.21776E+03 -3.18203E+03 -1.64302E+02
 -6.68173E+03 -2.58977E+03 -3.17743E+02 -2.66984E+03 -2.85202E+03 -4.95115E+02  3.06287E+03 -2.14513E+03
  1.91783E+03  2.57581E+03  5.45215E+03  4.75702E+03 -1.35138E+03  3.64266E+02 -1.45751E+03  3.16232E+03
  1.05038E+03 -4.58712E+02  1.00609E+03  2.25896E+03 -2.15490E+03  8.76139E+02  4.02609E+03  6.45000E+03
 -1.81503E+03  2.26750E+03 -1.59315E+02 -1.67660E+03 -3.85716E+03 -5.54208E+00  3.52421E+03 -4.41382E+03
 -3.60398E+03 -2.53681E+03  5.09986E+03  4.39721E+03  3.39417E+03 -4.08957E+03  1.23077E+03  4.25371E+03
  9.92674E+01  3.57107E+02 -1.21032E+03  4.43459E+02 -2.79433E+03  1.14737E+03 -3.10296E+03 -7.78347E+02
 -4.24412E+03 -1.71033E+03  1.96143E+02  1.39872E+03  3.96661E+03  1.31434E+03 -4.12771E+03  5.12394E+02
 -3.36490E+02  2.44624E+02 -1.72074E+03  1.17539E+03  6.88115E+03 -1.30400E+03  1.91402E+03  1.09284E+02
  6.72626E+02 -4.09190E+03 -1.50154E+03  1.77218E+03 -3.97255E+03  1.28741E+03  1.46411E+03  1.56554E+03
