 $NMID ID='MM_0lb_SNR50_14hz_g50_51.RAW', FMTDAT='(8E13.5)'
 TRAMP=1., VOLUME=1. $END
  3.06048E+05  5.17585E+03  3.32732E+05  2.45202E+05  8.94046E+04  3.36613E+05 -1.29382E+05  2.48948E+05
 -1.87480E+05  8.36575E+04 -1.15518E+05 -3.00382E+04  3.38320E+03 -5.32138E+04  5.14503E+04  2.12156E+03
  3.77379E+04  5.54819E+04 -1.96748E+04  8.20044E+04 -5.86400E+04  6.33639E+04 -8.28064E+04  3.04503E+04
 -7.70871E+04 -7.93108E+03 -5.83748E+04 -4.83503E+04 -1.31925E+04 -6.52266E+04  2.27827E+04 -4.93807E+04
  4.03631E+04  9.04312E+03  1.69722E+04  4.94375E+04 -3.60215E+04  4.09356E+04 -6.96859E+04  2.09097E+03
 -5.44430E+04 -5.66168E+04 -4.44731E+02 -7.89033E+04  3.04373E+04 -5.30570E+04  4.65553E+04 -2.41758E+04
  4.37747E+04  1.65511E+04  3.64539E+04  2.35094E+04  1.73388E+04  2.71235E+04 -5.69281E+03  3.21481E+04
 -2.04986E+04  1.19474E+04 -1.96839E+04 -4.41782E+03  1.12342E+04 -5.62242E+03  1.60617E+04  1.17818E+04
  2.57325E+03  3.16960E+04 -3.33181E+04  3.36312E+04 -6.45780E+04 -1.34273E+03 -5.88634E+04 -4.37528E+04
 -1.08770E+04 -6.32366E+04  4.38080E+04 -4.41770E+04  6.04085E+04  8.13061E+01  3.33850E+04  3.59089E+04
 -4.88984E+03  3.29707E+04 -2.60545E+04  1.23391E+04 -2.65450E+04 -6.49021E+03 -1.56257E+04 -1.11146E+04
 -1.15351E+04 -9.80855E+03 -7.37259E+02 -2.15574E+04  7.26034E+03 -2.00394E+04  1.70122E+04 -1.20772E+04
  9.21642E+03  7.72264E+03 -1.15029E+04  1.49589E+04 -2.37043E+04 -6.01215E+03 -6.98186E+03 -3.26913E+04
  2.10206E+04 -4.56138E+04  4.57798E+04 -2.08521E+04  4.33678E+04  1.46245E+04  1.69536E+04  4.96837E+04
 -1.46659E+04  3.20333E+04 -2.64887E+04  1.07806E+03 -4.84157E+03 -2.88430E+04  2.00319E+04 -3.92120E+04
  4.44270E+04 -4.60624E+03  3.43369E+04  2.34351E+04  1.66296E+04  4.90715E+04 -5.06341E+03  5.05966E+04
 -3.67910E+04  3.44805E+04 -4.00948E+04  1.32884E+04 -3.96011E+04 -1.84265E+04 -2.71867E+04 -3.74293E+04
  3.63588E+03 -3.75982E+04  3.60874E+04 -1.54778E+04  2.72796E+04  1.50183E+04  5.46971E+03  2.56789E+04
 -1.05517E+04  8.37395E+03 -5.14784E+03 -7.96001E+03  8.09149E+03 -1.33423E+04  1.74682E+04  7.35206E+03
  1.12608E+04  1.86903E+04 -1.95263E+03  2.71467E+04 -2.16729E+04  1.51673E+04 -2.51701E+04 -3.28117E+03
 -2.14120E+04 -1.85975E+04 -7.22106E+03 -2.16607E+04  1.75828E+03 -2.21775E+04  1.55811E+04 -1.48462E+04
  2.80539E+04 -1.68961E+04  3.13373E+04  1.75030E+03  2.31777E+04  2.11276E+04  7.66365E+03  3.72411E+04
 -2.34150E+04  2.75457E+04 -2.67686E+04  5.33028E+03 -2.47487E+04 -6.80349E+03 -2.39747E+03 -1.36375E+04
 -6.72258E+01  3.49040E+03 -4.70346E+03  9.15048E+03 -1.44151E+04  4.31969E+03 -1.44101E+04 -7.74061E+03
 -8.71845E+03 -2.19783E+04  4.30029E+03 -2.37162E+04  1.76280E+04 -1.38654E+04  1.45323E+04 -2.53901E+03
  1.23653E+04  8.65236E+03  3.00453E+03  1.99369E+04 -1.18793E+04  1.00103E+04 -2.14937E+04 -1.60410E+03
 -1.05242E+04 -1.92434E+04  4.21184E+02 -2.05910E+04  1.05546E+04 -1.53861E+04  2.38006E+04 -1.06091E+04
  1.75280E+04  1.08141E+03  1.44911E+04  9.32926E+03  1.11223E+04 -1.73083E+03  7.78266E+03 -7.07575E+03
  1.60148E+04  2.15309E+02  2.25971E+04  1.26373E+04  1.47669E+04  2.92775E+04 -3.50595E+03  3.05204E+04
 -2.29789E+04  3.36117E+04 -3.35713E+04  9.57140E+03 -2.95057E+04 -5.42319E+03 -2.31559E+04 -1.84452E+04
 -7.46995E+03 -3.11097E+04  1.10043E+04 -2.64925E+04  2.12455E+04 -1.04199E+04  1.86930E+04  4.36981E+03
  5.81288E+03  1.40309E+04 -1.25392E+04  6.71569E+03 -1.83251E+04  6.24059E+03 -7.34328E+03 -1.19260E+04
 -3.42449E+03 -1.88835E+04  9.13684E+03 -1.03256E+04  1.26033E+04  1.44893E+02  2.59358E+03  7.92442E+03
 -8.69294E+03  3.94559E+03 -7.07839E+03 -4.35406E+03 -2.40507E+03 -1.31507E+04  1.33145E+04 -1.66489E+04
  1.14654E+04 -9.18054E+03  1.83873E+04  2.52868E+03  1.19823E+04  1.44594E+04  7.72863E+03  2.28444E+04
 -4.09654E+03  2.51842E+04 -9.90664E+03  1.73228E+04 -1.63753E+04  6.45390E+03 -1.12568E+04 -6.35447E+03
 -7.23901E+03 -6.74850E+03 -4.50513E+03  4.03514E+03  6.92500E+02  2.49678E+03 -3.59251E+03  1.46009E+02
 -1.43996E+04 -1.08917E+03 -8.26987E+03 -8.04792E+03 -1.11830E+04 -1.41360E+04  8.03311E+03 -1.06068E+04
  6.86090E+03 -3.71207E+03  9.18409E+03  4.44160E+03 -1.28578E+03  5.14488E+03 -1.24836E+03 -1.74375E+03
 -6.03094E+03 -6.30273E+03 -3.25439E+03 -1.02025E+04  9.24934E+03 -9.45300E+03  1.25695E+04 -8.85309E+03
  1.41460E+04  8.29974E+03  1.13720E+04  6.91367E+03 -7.60454E+01  1.15326E+04 -8.78148E+03  1.24098E+04
 -1.22037E+04  1.15297E+03 -8.09242E+03 -5.33304E+03  3.06877E+03  1.14031E+03  7.07088E+03 -7.32944E+02
  4.00385E+03  7.08031E+03  1.39905E+03  1.06208E+04 -2.51836E+03  7.54993E+03 -5.11857E+03 -6.24013E+02
 -5.79745E+03 -6.25805E+03 -6.17106E+03 -1.09922E+04  2.34612E+03 -3.22897E+03  7.49701E+03  1.47064E+03
  6.38309E+03  5.75982E+03 -8.53819E+03  5.30897E+03 -7.35243E+03  4.19130E+03 -5.24617E+03 -2.43207E+03
 -5.25356E+03 -1.18719E+04  4.22448E+03 -9.36574E+03  8.01438E+03 -5.30588E+03  1.55871E+04  1.62052E+03
  8.08805E+03  7.68491E+03 -3.21314E+03  1.30235E+04 -4.77051E+03  2.18988E+03 -5.63042E+03  2.12979E+03
 -8.07950E+03 -7.69703E+03 -2.96951E+03 -1.25479E+04  3.46103E+03 -5.91286E+03  4.49573E+03 -2.20717E+03
  2.31090E+03 -2.66477E+03 -3.04490E+03 -6.72741E+02 -2.57714E+02 -4.36419E+03 -8.51299E+02 -7.49566E+03
  9.51956E+03  2.11632E+02  1.06637E+04  3.48143E+03  9.88803E+03  8.02003E+03  7.46994E+03  1.88850E+04
 -2.03376E+03  1.29099E+04 -1.22493E+04  1.82221E+04 -1.48342E+04 -1.87789E+02 -1.27420E+04 -1.99088E+03
 -5.47309E+03 -5.83584E+03  1.88455E+03 -3.16521E+03  2.22949E+03 -4.14439E+03  4.91482E+02 -3.53798E+03
 -6.64224E+02 -2.73846E+03  2.50434E+03  1.59619E+02  5.72505E+03 -1.84509E+02  4.63663E+03 -2.09612E+03
  4.28885E+03  1.19497E+03 -7.26607E+01  5.10862E+03  1.59627E+03  9.04310E+03 -7.60810E+03  3.60745E+03
 -5.38426E+03 -6.07464E+02 -8.69310E+03 -3.08345E+03 -4.81527E+03 -8.21113E+03  6.01852E+03 -1.34505E+04
  9.82114E+03 -8.08599E+03  8.39891E+03  6.97425E+03  6.90222E+03  8.57122E+03 -7.74885E+02  1.18669E+04
 -4.96648E+03  8.02014E+03 -9.03238E+03  4.14121E+03 -2.99033E+03 -9.14104E+02  9.50886E+02  9.44042E+02
 -2.08182E+02  5.56217E+03 -1.68373E+03  1.52901E+03  1.08169E+03  7.76333E+02 -5.41236E+03  1.57115E+03
 -4.87248E+03 -4.53004E+03 -9.38770E+02 -9.74396E+03  1.09006E+04 -6.75678E+03  3.78533E+03 -3.79895E+03
  8.14231E+03  6.46488E+03  4.79952E+03  7.63655E+03 -5.20144E+03  3.74663E+03 -6.65156E+03  5.10429E+03
 -6.37051E+03 -1.08062E+03 -6.93425E+03 -6.22522E+03  2.15211E+02 -4.11497E+03  3.59872E+03 -4.53100E+03
  4.69491E+03 -8.48550E+02  4.76726E+03  6.54882E+03  6.45078E+03  9.62779E+02  1.48655E+02 -1.57396E+03
  5.11531E+03  9.36401E+01 -1.92784E+02 -7.78281E+02  2.36654E+03  2.70150E+03  1.34419E+03  5.26161E+03
 -2.48156E+02  5.27676E+03 -5.40019E+03  8.67844E+03 -6.23057E+01  3.93985E+03 -6.96168E+03 -2.12044E+03
 -4.40140E+03 -5.71003E+03  3.34906E+03 -9.73015E+03  7.91146E+03 -7.82644E+02  4.31315E+03  3.68518E+02
  2.47208E+03  2.45845E+03  4.55318E+03  5.12064E+03  4.49960E+02  5.10884E+03 -7.19791E+03  4.82785E+03
 -6.56591E+02 -1.07020E+04 -5.32591E+02 -6.45849E+03 -1.90481E+03 -1.54546E+03  3.85082E+03  3.75171E+03
  3.34017E+03  2.84423E+03 -3.86523E+02  6.00090E+03 -7.94381E+02  2.09317E+03  5.34356E+03 -1.41176E+02
 -2.19822E+02  8.11530E+02  3.32056E+03 -1.83119E+03  7.89101E+02  3.25807E+03 -9.63238E+02  6.89539E+03
 -4.42190E+03  2.50719E+02 -7.27719E+03  3.03635E+03 -6.28503E+03  5.90456E+02  1.08143E+02 -5.95191E+03
 -3.33437E+02 -6.25602E+02  8.93432E+03 -3.12341E+03  1.80613E+03  7.92913E+03  4.43587E+03  1.97556E+02
  1.40150E+03 -4.49267E+03  1.78935E+02 -3.73130E+03 -1.14279E+03 -3.33867E+03  9.41647E+02 -4.28128E+03
  5.51804E+03  3.39129E+03  1.04153E+04 -2.97562E+01  1.01619E+04  1.91256E+03 -2.51423E+03 -1.13655E+03
 -2.36017E+03  9.52026E+02 -4.87851E+03 -1.06468E+03 -2.37487E+03 -6.70522E+03  5.78268E+03  1.99211E+03
  9.07573E+03  1.46185E+02  3.07062E+03  4.43666E+03  1.33186E+03  3.95387E+03 -1.76227E+03  5.48640E+03
 -3.54948E+03  7.67926E+02 -8.93294E+03 -1.67497E+03 -3.23997E+03 -3.40978E+03  1.13401E+03 -1.93583E+03
  2.23244E+03  3.95532E+02  2.58231E+03  2.49635E+02  4.48602E+02  2.87813E+03  3.27201E+03  2.49802E+03
 -1.05186E+03  3.20186E+03 -3.34457E+03  3.42550E+02  6.17520E+02  1.01832E+03 -3.70236E+03  1.03439E+03
 -2.42608E+03 -9.73473E+02 -4.43211E+03 -1.86597E+03 -4.08651E+03  4.47734E+02 -4.89008E+03 -3.15931E+03
 -1.93448E+03 -3.16649E+03 -2.22583E+03 -6.69692E+03  9.02080E+03 -3.33103E+03  1.19363E+03  4.74333E+02
  3.98007E+03  2.66700E+03  1.49901E+03  5.19897E+03 -8.03111E+02  4.58099E+03 -2.15866E+03  2.01089E+03
 -2.23908E+03  2.13358E+03  4.77108E+02 -1.40497E+03 -5.35671E+03  1.42122E+02 -2.09438E+03 -3.04469E+03
  2.25694E+03  2.84632E+03 -6.54624E+02  2.08950E+02 -5.29544E+02 -3.49179E+03 -5.10160E+02 -4.09153E+02
 -1.57303E+03  6.48637E+03  1.07922E+03  2.27325E+03  2.90886E+03  2.25068E+03  6.20022E+03  5.14834E+03
 -2.76071E+02  1.18775E+03 -4.05681E+03  2.30842E+03 -8.59072E+03  5.40528E+03 -6.95826E+03 -1.22122E+04
 -3.65044E+03 -3.65451E+02  5.31529E+03 -2.95962E+03  6.68561E+03  4.00411E+02  8.32017E+03 -4.07492E+03
 -9.06269E+02  5.95612E+03 -2.18589E+03  1.74392E+03  5.36072E+02  1.26869E+03 -3.10773E+03  5.10479E+02
 -3.73404E+03 -4.35815E+01  1.38495E+03  1.63812E+03 -5.60221E+03  3.51509E+03  1.12988E+03  3.37020E+03
  7.88273E+02  1.38731E+03 -3.97140E+03  2.36593E+03 -4.08305E+03 -3.77464E+03  2.40026E+03 -7.95125E+03
  2.12722E+03 -1.55584E+03  4.49437E+03  1.44767E+03  2.58640E+03  1.29856E+03  7.53601E+02 -1.23949E+03
 -2.83996E+03  2.15483E+02 -4.70336E+03 -1.41677E+03 -4.99319E+03  5.83029E+03 -2.03824E+03 -1.36980E+03
 -2.06574E+02  1.96199E+03 -5.04716E+03 -1.54371E+03 -4.80905E+03 -1.53735E+03  1.19989E+03  3.52365E+03
 -1.22775E+03 -2.70434E+03 -7.46600E+03 -5.49774E+03  2.11168E+03  1.84134E+03 -2.84232E+03 -4.15978E+03
  2.22431E+03 -3.04792E+03 -3.54806E+03 -3.36932E+03  6.11630E+03  1.48065E+03 -2.10909E+03  9.06730E+02
