 $NMID ID='MM_0lb_SNR50_15hz_g40_16.RAW', FMTDAT='(8E13.5)'
 TRAMP=1., VOLUME=1. $END
  3.11719E+05 -2.18643E+03  3.36722E+05  2.55319E+05  8.69069E+04  3.32778E+05 -1.30536E+05  2.49728E+05
 -1.94081E+05  8.37372E+04 -1.14166E+05 -3.13717E+04  4.33789E+02 -5.37568E+04  4.88696E+04  2.00433E+02
  3.50236E+04  4.75436E+04 -1.26423E+04  7.62534E+04 -5.43596E+04  6.65241E+04 -8.04391E+04  3.19912E+04
 -8.01547E+04 -6.33803E+03 -5.18013E+04 -4.53081E+04 -1.65235E+04 -6.91841E+04  2.52763E+04 -4.70495E+04
  3.86387E+04  3.36865E+03  1.65706E+04  4.64818E+04 -3.38994E+04  4.98953E+04 -6.86012E+04 -5.64977E+03
 -5.02912E+04 -5.36958E+04 -4.71597E+03 -7.82190E+04  3.31534E+04 -5.14247E+04  4.45747E+04 -1.59210E+04
  4.24649E+04  9.44213E+03  3.52041E+04  1.87419E+04  1.40066E+04  2.86435E+04 -3.25135E+03  2.60495E+04
 -2.44958E+04  8.98216E+03 -1.63886E+04 -1.27207E+03  7.91816E+03 -7.14189E+03  1.92732E+04  1.68267E+04
  6.39380E+03  3.52198E+04 -3.41182E+04  3.45314E+04 -6.45245E+04  8.49684E+02 -5.93937E+04 -4.56032E+04
 -1.37077E+04 -6.41864E+04  4.18205E+04 -4.31341E+04  5.80610E+04 -3.26400E+03  2.78737E+04  3.25550E+04
 -1.08546E+04  3.70220E+04 -3.19541E+04  1.13847E+04 -3.01270E+04 -5.73076E+03 -1.62012E+04 -1.29905E+04
 -8.32781E+03 -9.54987E+03  2.46984E+03 -1.39423E+04  6.76055E+03 -2.00574E+04  1.87585E+04 -1.55287E+04
  1.47777E+04  6.01094E+03 -1.03137E+04  1.24066E+04 -1.93859E+04  9.87178E+02 -1.10779E+04 -2.99915E+04
  1.77384E+04 -4.27041E+04  4.54140E+04 -1.28063E+04  4.09515E+04  1.77678E+04  1.04172E+04  4.21683E+04
 -1.87389E+04  3.30445E+04 -2.35825E+04  2.94141E+03 -9.92258E+03 -2.70268E+04  1.78680E+04 -3.66573E+04
  3.98302E+04 -6.16194E+03  3.48241E+04  2.36902E+04  1.71478E+04  3.93399E+04 -5.76473E+03  5.01836E+04
 -2.80217E+04  2.96695E+04 -4.14394E+04  1.29368E+04 -3.95397E+04 -1.17112E+04 -1.99366E+04 -3.36699E+04
  7.40556E+03 -3.17272E+04  2.81151E+04 -1.10514E+04  2.69802E+04  1.01468E+04  3.89896E+03  1.64744E+04
 -1.28799E+04  1.01804E+04 -9.97156E+03 -7.37903E+03  1.02865E+03 -9.56402E+03  1.95432E+04  7.66707E+03
  1.01076E+04  2.18940E+04 -5.91231E+03  2.76789E+04 -2.04775E+04  1.12026E+04 -2.80011E+04 -5.15158E+03
 -1.76422E+04 -1.62694E+04 -1.04103E+04 -2.22686E+04  4.63000E+03 -1.38354E+04  1.78817E+04 -1.86775E+04
  2.45339E+04 -1.18487E+04  2.85324E+04 -2.11644E+03  2.26696E+04  1.68265E+04  5.23203E+03  3.37721E+04
 -1.54884E+04  3.08489E+04 -2.64132E+04  1.48294E+04 -1.51712E+04 -7.33955E+03 -7.10805E+03 -1.35607E+04
  3.05166E+03 -5.30675E+03 -1.04311E+03  7.09518E+03 -1.26363E+04 -1.33723E+03 -1.74847E+04 -2.58784E+03
 -1.07556E+04 -1.54011E+04  8.37641E+03 -2.35391E+04  1.41049E+04 -1.67191E+04  1.48111E+04 -2.01284E+02
  9.55737E+03  9.34280E+03  2.73652E+03  1.98328E+04 -1.39867E+04  7.20730E+03 -1.45999E+04 -8.37715E+02
 -1.36226E+04 -1.65868E+04 -4.06612E+03 -1.82622E+04  9.02152E+03 -1.46231E+04  2.18338E+04 -5.30350E+03
  1.50118E+04  3.06968E+03  3.96583E+03  2.42542E+03  7.91715E+03  1.63012E+03  9.54804E+03 -9.06074E+01
  1.35006E+04  3.70164E+03  1.64881E+04  1.45928E+04  9.67188E+03  2.49275E+04 -9.78505E+02  3.50487E+04
 -2.29645E+04  2.65303E+04 -2.92019E+04  1.22576E+04 -2.92746E+04 -3.89411E+03 -2.91036E+04 -1.51006E+04
 -1.34618E+04 -2.33051E+04  8.48014E+03 -2.59243E+04  1.88633E+04 -1.19580E+04  1.84348E+04  3.53990E+03
  4.87167E+03  1.61232E+04 -6.64074E+03  9.29488E+03 -1.37074E+04  2.14646E+03 -1.19315E+04 -7.05294E+03
 -4.26619E+03 -1.55115E+04  1.19622E+04 -5.67092E+03  1.41897E+04  2.26349E+03  2.10889E+03  1.63077E+03
 -5.72457E+03  4.19530E+03 -6.18519E+03 -2.38698E+03  5.47519E+01 -1.24497E+04  5.66646E+03 -1.03088E+04
  1.05305E+04 -7.87515E+03  1.32048E+04 -1.43683E+02  1.14929E+04  1.22079E+04  7.66070E+03  1.94199E+04
 -3.40007E+03  2.27781E+04 -1.09053E+04  1.23377E+04 -1.97341E+04  3.60326E+03 -9.21949E+03 -2.76220E+03
 -4.87014E+03 -1.77261E+03  1.68873E+02  6.02775E+02 -5.32087E+03  3.49556E+02 -7.59211E+03  4.13165E+03
 -9.41468E+03 -1.06763E+03 -1.08513E+04 -1.08470E+04 -8.41535E+03 -1.21847E+04  2.57364E+03 -1.03126E+04
  7.75350E+03 -6.44229E+03  8.39190E+03  3.97528E+03  2.26537E+03  1.15816E+03 -6.74736E+03  1.79941E+03
 -2.62730E+03 -8.56474E+03  6.13903E+02 -7.70024E+03  3.51845E+03 -4.21069E+03  1.89559E+04 -7.96762E+03
  1.67194E+04  2.04675E+03  1.25555E+04  7.81917E+03  4.96493E+03  1.15345E+04 -6.07893E+03  1.16138E+04
 -7.68971E+03  3.08931E+03 -1.03908E+02 -1.86239E+03  2.37305E+03 -1.46629E+03  3.07193E+03  3.56257E+02
  8.58134E+03  3.58845E+03 -1.05748E+03  9.72652E+03 -5.47933E+03  8.44953E+03 -1.23613E+04  5.12598E+03
 -4.55532E+03 -2.43927E+03 -1.32828E+03 -7.41456E+03  7.38105E+03 -1.50342E+02  8.01694E+03  6.21859E+03
  6.49735E+02  4.03069E+03 -3.85591E+03  6.23384E+03 -2.53051E+03  6.78713E+03 -4.53596E+03  2.18627E+03
 -1.02046E+03 -5.24270E+03  3.89416E+03 -1.34569E+04  7.01766E+03 -1.01214E+04  1.49760E+03  2.25589E+03
  9.01353E+03  1.03962E+04 -5.70479E+02  6.11263E+03 -3.46683E+03  6.72853E+03 -5.59748E+03 -1.80449E+03
 -4.99174E+03 -3.71156E+03 -6.34088E+03 -2.78627E+03  5.83340E+03 -8.09860E+03  2.99573E+03 -5.49480E+03
 -5.52606E+02 -1.18505E+03 -3.09154E+02  1.57115E+03  1.86259E+03  8.92461E+02 -8.34254E+02 -6.72536E+02
  6.28803E+03 -2.57360E+03  1.30268E+04 -8.42312E+02  1.70803E+03  5.90386E+03  6.40954E+03  1.15862E+04
  1.35662E+03  1.52295E+04 -9.15484E+03  6.04375E+03 -1.22881E+04  2.19145E+03 -9.79752E+03 -8.69065E+03
 -6.72603E+03 -8.75530E+03 -1.20775E+03 -1.98252E+03  1.78898E+02 -8.24964E+03 -2.74227E+03 -4.44854E+03
  2.44021E+03  8.86964E+02  2.22951E+03 -6.31417E+03 -1.43135E+02 -3.83103E+03  4.22268E+03 -4.07009E+03
  6.10488E+03  4.07281E+03  2.77493E+03  6.92806E+03 -1.80104E+03  5.01486E+03 -4.68356E+03  7.78065E+03
 -4.63618E+03 -5.53164E+03 -5.55568E+03 -8.14552E+03  3.40919E+03 -9.13327E+03  9.13669E+03 -8.50840E+03
  3.77019E+03 -5.01136E+03  8.18119E+03  7.40884E+02 -1.72408E+02  4.27363E+03  2.06161E+03  4.63625E+03
 -7.64979E+03  5.91185E+03 -8.05414E+03  1.43672E+03 -3.96508E+03 -1.89283E+02  2.98845E+03 -3.50964E+03
 -6.95187E+03  1.45418E+03  8.88645E+02  3.39018E+03 -3.80436E+03 -4.40801E+03 -4.09659E+03 -3.70631E+03
  8.80500E+02 -4.04286E+03 -9.48663E+02 -4.18032E+03  2.02756E+03 -6.65060E+03  1.10180E+04 -1.66989E+03
  7.86966E+03  7.45805E+03  4.78743E+03  5.95488E+03 -1.45607E+03  2.65612E+03 -3.40667E+03  1.81697E+03
 -7.31976E+03 -2.08324E+03 -2.23099E+03 -7.90316E+02 -1.50200E+03 -3.99257E+03  3.66305E+03 -7.63949E+03
  6.96734E+03 -2.81829E+03  1.08073E+03  1.17613E+03 -5.71552E+01  1.33318E+03 -5.97496E+02  1.70182E+03
 -1.13548E+03 -2.27402E+03  2.06356E+03 -3.04302E+03  3.41793E+03 -2.60925E+02 -2.07299E+03  5.10267E+03
 -2.77753E+03  3.50614E+03 -2.66603E+03  5.95480E+03 -6.09631E+03 -3.80460E+02 -7.70135E+03 -1.39308E+03
 -5.02667E+03 -3.94647E+03  2.58652E+03 -9.69467E+03  4.62260E+03 -5.17370E+03  7.51572E+03 -7.27706E+03
  3.01258E+01  4.54243E+03 -2.32988E+03  6.23085E+03  6.86800E+02  3.68569E+03  6.31379E+01 -1.69783E+03
 -1.40351E+03 -1.30595E+03  1.93967E+03 -2.93635E+03  7.60588E+03 -3.87980E+03  9.45028E+02 -1.59448E+03
  3.64236E+03  6.60971E+02  5.11068E+03  3.94479E+03 -1.04145E+03  7.08812E+02  3.27832E+03 -3.57133E+03
  3.40490E+03 -8.80374E+02  2.98323E+03 -1.45469E+03  3.87663E+03  5.44423E+03 -1.98140E+03  3.10661E+03
 -6.18111E+03  4.19224E+03 -6.02823E+03 -2.06912E+03  1.56828E+03 -2.79375E+02  5.18798E+03 -5.22721E+03
  4.07554E+03 -7.91548E+03 -2.84846E+03 -2.70538E+03  3.95681E+03  1.78000E+03  9.67616E+01  2.62528E+02
 -4.71638E+03  2.37508E+03  3.51038E+03 -6.36567E+03  1.53980E+03  1.00082E+03 -7.36174E+02  2.17131E+02
  3.73176E+03 -1.26021E+03  1.29511E+03 -1.12734E+03  4.60582E+03  2.44085E+03 -4.02848E+03  7.92426E+02
 -1.26894E+03 -1.52588E+03 -8.58574E+02 -3.61593E+03 -1.30184E+03 -2.24281E+03  4.99959E+03  2.44071E+02
  5.88202E+03  1.47539E+03  9.17146E+02  6.37539E+03  1.89541E+03  5.30706E+03 -9.44257E+02  6.50183E+03
  3.32080E+03  5.24993E+03 -3.19821E+03 -1.72307E+03 -4.35891E+03 -2.76330E+03 -1.57615E+03  7.35495E+02
 -9.91548E+02 -3.66809E+03  1.43065E+03 -2.97195E+03  2.62681E+02  3.19204E+02 -9.23805E+02  2.78023E+02
 -5.30250E+02  2.17073E+03  3.28547E+03  1.79582E+03  2.44539E+02  2.31430E+03 -5.68008E+02  3.49796E+03
  3.67808E+03 -3.25167E+03 -6.96981E+02  3.28121E+03 -3.82204E+03  3.88827E+03 -3.94130E+03 -3.22028E+03
 -1.21945E+03 -2.35562E+03 -5.00901E+02 -6.67256E+02  2.02198E+03 -5.11099E+03  2.72189E+03  2.34360E+03
  2.44689E+03 -1.66113E+03  4.03886E+03  2.38838E+03  8.94610E+02  4.02139E+03 -2.43312E+03  1.35076E+02
 -3.20981E+03 -8.89408E+02 -2.70539E+03  2.64914E+03 -1.90588E+03  2.11169E+03  1.64510E+03  1.18004E+03
 -2.94734E+03 -1.97771E+03 -5.04680E+02  9.52622E+02 -1.60319E+03 -1.29794E+03 -2.54293E+03  1.99355E+03
  5.34713E+02 -1.92829E+03  1.57179E+03  9.71721E+01  7.48579E+03  4.69281E+02 -5.25063E+03  1.03063E+03
 -4.38558E+03 -6.13845E+02 -3.17422E+03  3.08531E+03 -1.55111E+03 -4.01876E+03 -3.06714E+03  2.21043E+03
  1.21362E+03 -6.92638E+03 -4.69786E+02 -2.12796E+03  1.96119E+03 -6.80910E+03  3.89505E+03  1.10303E+03
 -2.06370E+03  3.19383E+03  3.71579E+03 -2.23517E+03 -7.62059E+02  1.25974E+03 -1.58740E+03 -9.01341E+02
  5.39601E+03 -4.19314E+03  2.48561E+02  3.36209E+03  4.78919E+03 -2.01540E+03  7.64221E+02  9.39676E+02
 -8.75049E+02 -1.56635E+03 -3.06025E+03  3.12584E+03  9.38718E+02 -5.78864E+02  3.50191E+02 -3.52181E+03
  2.38110E+03 -2.16417E+03  1.88199E+03  1.84953E+03  4.50931E+03  6.69680E+02  3.99436E+03  2.47992E+03
 -2.45756E+02  1.94290E+03 -3.93904E+03  2.24265E+03 -2.85486E+03 -8.13135E+00 -4.82819E+03 -7.06102E+02
 -2.42940E+03 -1.51842E+03  1.63469E+03 -3.04434E+03 -2.03715E+03 -3.51259E+03 -3.61750E+03  3.15535E+03
 -7.76198E+03  2.12741E+03 -1.99682E+03  4.10368E+03  3.54201E+03 -4.94337E+03  1.61773E+03  3.87579E+03
  2.78091E+03  1.94176E+03 -4.60138E+03  3.40553E+03  3.35038E+03  5.37125E+03 -3.79563E+03  4.87120E+03
