 $NMID ID='MM_0lb_SNR50_8hz_g45_10.RAW', FMTDAT='(8E13.5)'
 TRAMP=1., VOLUME=1. $END
  3.07321E+05 -2.12854E+03  3.44370E+05  2.52068E+05  8.75866E+04  3.42175E+05 -1.37061E+05  2.53398E+05
 -1.95575E+05  8.29285E+04 -1.15055E+05 -3.05314E+04 -1.10352E+03 -5.22894E+04  5.50756E+04 -3.69480E+02
  3.93620E+04  5.39195E+04 -1.17438E+04  7.72855E+04 -5.98952E+04  7.00864E+04 -7.80597E+04  3.25675E+04
 -8.44911E+04 -6.89393E+03 -5.80870E+04 -5.41882E+04 -1.59080E+04 -6.98949E+04  2.54944E+04 -4.69611E+04
  4.36486E+04  2.87946E+03  1.28243E+04  4.63315E+04 -3.91182E+04  5.33880E+04 -6.77846E+04  3.92695E+03
 -5.17325E+04 -5.36213E+04 -6.67180E+03 -7.64793E+04  3.03012E+04 -5.94633E+04  4.98900E+04 -2.18821E+04
  4.40776E+04  8.89815E+03  3.22580E+04  2.80007E+04  1.18625E+04  2.32151E+04 -9.77195E+03  3.14948E+04
 -2.34102E+04  1.61521E+04 -1.40608E+04 -1.61340E+03  1.18555E+04  8.72911E+02  2.51543E+04  4.73976E+03
  4.68067E+03  3.90245E+04 -3.79666E+04  3.97312E+04 -6.50651E+04 -2.50714E+03 -6.08619E+04 -4.52461E+04
 -1.56391E+04 -7.01467E+04  4.46187E+04 -4.96561E+04  6.31612E+04 -4.64352E+03  3.26089E+04  3.87446E+04
 -1.14474E+04  2.99625E+04 -2.66021E+04  1.47825E+04 -3.38172E+04 -2.70720E+03 -2.27505E+04 -1.00497E+04
 -3.81331E+03 -1.30567E+04  1.36285E+03 -2.35010E+04  7.44975E+03 -2.26690E+04  1.02042E+04 -1.00275E+04
  1.17810E+04  5.05615E+03 -1.88547E+04  1.07392E+04 -1.82129E+04 -7.23655E+03 -9.88673E+03 -4.06298E+04
  3.46343E+04 -4.88199E+04  4.62717E+04 -2.26470E+04  4.62327E+04  2.16614E+04  1.59410E+04  4.67011E+04
 -1.41597E+04  3.55124E+04 -2.49667E+04 -6.16622E+02 -7.35788E+03 -2.97446E+04  2.33797E+04 -4.04726E+04
  3.83461E+04 -1.43176E+04  4.76743E+04  2.91198E+04  2.60568E+04  5.61909E+04 -1.58404E+04  5.99359E+04
 -3.36094E+04  3.70089E+04 -6.06622E+04  7.68723E+03 -4.42454E+04 -1.94524E+04 -2.23248E+04 -5.24200E+04
  6.92127E+03 -3.89627E+04  3.47962E+04 -1.99102E+04  2.94915E+04  1.11309E+04  1.77844E+03  2.40503E+04
 -2.15440E+04  9.24558E+03 -4.86194E+03 -9.32470E+03  3.78374E+03 -1.43109E+04  2.14530E+04  7.81597E+03
  1.48615E+04  2.09574E+04 -5.03229E+03  2.27186E+04 -2.47269E+04  1.17973E+04 -2.74055E+04 -9.04432E+03
 -2.69047E+04 -1.93427E+04 -1.29391E+04 -2.91274E+04  1.72374E+04 -2.72000E+04  2.06462E+04 -2.34074E+04
  3.60199E+04 -1.25241E+04  4.27852E+04  8.89342E+03  3.34158E+04  1.91434E+04 -2.68618E+03  4.52294E+04
 -1.53878E+04  3.56372E+04 -3.16885E+04  1.29765E+04 -2.72336E+04 -1.34780E+04 -9.20169E+03 -8.54077E+03
 -3.69970E+03 -3.80049E+02 -6.90608E+03  7.16571E+03 -2.12098E+04 -1.19445E+03 -2.26655E+04 -1.31272E+04
 -7.58082E+03 -2.27450E+04  7.65471E+03 -3.01980E+04  2.35722E+04 -1.94679E+04  2.91482E+04  1.56172E+03
  2.09367E+04  1.71247E+04 -2.69450E+03  2.55558E+04 -2.68342E+04  1.70072E+04 -1.71894E+04 -3.46001E+03
 -1.46831E+04 -2.38045E+04 -5.82246E+03 -2.79272E+04  1.65218E+04 -1.89469E+04  2.58197E+04 -9.13715E+03
  2.34081E+04 -2.77777E+03  1.49807E+04  6.95105E+03  2.97963E+03 -6.72225E+02  1.68140E+04 -5.90623E+03
  2.53306E+04  1.58411E+03  3.00823E+04  1.79850E+04  1.29949E+04  3.28112E+04 -4.96494E+03  4.85849E+04
 -2.74778E+04  3.71946E+04 -4.11476E+04  2.26780E+04 -4.74356E+04  7.48776E+03 -3.58160E+04 -2.51346E+04
 -2.30111E+04 -3.84321E+04  1.61070E+04 -3.34543E+04  2.62101E+04 -1.57420E+04  2.60309E+04  2.21512E+03
  4.19660E+03  1.81397E+04 -1.19997E+04  1.74454E+04 -2.41502E+04  8.90533E+03 -1.59934E+04 -7.53407E+03
 -1.73702E+03 -1.29862E+04  1.25864E+04 -1.22204E+04  1.68828E+04 -1.77750E+03  8.51753E+02  1.01205E+04
 -7.88263E+03  5.44261E+03 -1.70095E+04 -1.44832E+04  4.74503E+02 -1.77792E+04  9.39870E+03 -1.95570E+04
  2.10429E+04 -1.46978E+04  3.02735E+04  8.48523E+03  2.38721E+04  1.94843E+04  9.52429E+03  2.79526E+04
 -6.97310E+03  3.73931E+04 -1.93357E+04  2.27034E+04 -2.66919E+04  5.19009E+03 -2.44889E+04 -4.23288E+03
 -1.19951E+04 -8.41779E+03 -1.10629E+03  2.25135E+02 -6.51773E+03  1.65140E+03 -7.81912E+03  7.44169E+03
 -1.10007E+04 -3.68306E+03 -6.85242E+03 -1.56436E+04 -7.40078E+03 -1.82123E+04  1.21952E+04 -1.83048E+04
  1.80490E+04 -7.48015E+03  3.85373E+03 -1.99419E+03 -6.46663E+03  5.70028E+03 -9.00874E+03  1.25386E+03
 -5.11160E+03 -1.18544E+04 -1.04462E+03 -1.31174E+04  9.74183E+03 -1.59167E+04  1.92317E+04 -1.83620E+04
  2.27463E+04  3.81508E+03  1.49980E+04  1.52957E+04 -1.69466E+03  2.14958E+04 -7.87238E+03  1.50096E+04
 -7.10161E+03  9.92659E+03 -1.06325E+04 -7.61754E+03 -7.64436E+03 -2.62923E+03  1.05693E+04  5.87136E+03
  9.74209E+02  8.30733E+03  3.56609E+03  9.75882E+03 -8.75627E+03  1.32188E+04 -1.57332E+04  1.36883E+03
 -1.06696E+04 -1.20851E+04 -2.31825E+03 -2.42259E+04  5.39309E+03 -7.96798E+03  1.12406E+04  2.72175E+03
  7.50843E+03  1.53000E+04 -1.19848E+04  1.32749E+04 -1.70950E+04  8.98103E+03 -1.42818E+04 -3.56123E+03
 -8.00556E+03 -2.04255E+04  2.79462E+03 -1.91682E+04  2.08060E+04 -1.43415E+04  1.92126E+04  7.93207E+03
  1.39127E+04  1.02464E+04 -6.87745E+03  1.44782E+04 -1.84235E+04  8.87432E+03 -1.56834E+04  8.87868E+02
 -7.71489E+03 -1.19324E+04  6.18443E+02 -1.34847E+04  4.43639E+03 -6.54485E+03  5.99926E+03 -7.66833E+02
  5.14875E+03  2.95202E+03 -2.10010E+03  2.11032E+02  1.42037E+02 -1.12854E+04  7.07090E+03 -8.04284E+03
  1.95920E+04 -2.58759E+03  1.80257E+04  2.59872E+03  1.42088E+04  9.88456E+03  1.09184E+04  2.53071E+04
 -1.01452E+04  3.34488E+04 -2.45050E+04  2.06545E+04 -3.15784E+04  1.26678E+03 -2.40189E+04 -6.00315E+03
 -1.12638E+04 -1.57859E+04  2.05679E+03 -1.58130E+04  5.40193E+03 -5.57848E+03  8.54632E+02 -2.28801E+03
 -1.27773E+02 -3.43997E+03  6.99160E+03 -6.23319E+03  1.05370E+04 -2.33947E+03  1.54939E+04  3.25379E+03
  1.05680E+04  5.66918E+03  1.04826E+04  1.17341E+04 -4.54922E+03  7.80130E+03 -8.40791E+03  9.52233E+03
 -8.71149E+03 -3.50414E+03 -1.60046E+04 -1.51441E+04  1.80491E+03 -1.68272E+04  5.81477E+03 -1.85041E+04
  2.10488E+04 -7.13866E+03  1.87354E+04 -4.99460E+02  1.37172E+04  1.20218E+04  1.05956E+02  1.53975E+04
 -1.22721E+04  1.07860E+04 -1.18153E+04  4.34621E+03 -9.61707E+03 -7.44003E+03 -1.39175E+02 -4.23880E+03
 -3.11749E+02  4.55480E+03 -4.92647E+03  2.61911E+02 -7.59725E+03  3.52594E+02 -4.21014E+03  6.32408E+03
 -3.31303E+03 -1.34121E+04  3.57807E+03 -1.94486E+04  4.56271E+03 -1.11596E+04  1.59963E+04 -2.84613E+03
  2.10031E+04  3.42660E+03  1.58499E+04  9.17421E+03 -2.26229E+03  1.46806E+04 -9.99815E+03  5.61732E+03
 -6.65830E+03 -7.40904E+02 -1.49709E+04 -3.71966E+03 -4.49069E+03 -1.02971E+04  6.35705E+03 -1.01249E+04
  1.29311E+04 -2.27344E+03  1.21393E+04  5.41837E+03  7.78050E+03  2.06886E+03 -4.05326E+03 -2.48033E+03
  4.19620E+03  7.66691E+03  2.67174E+03  8.01746E+03  7.11362E+03  1.74730E+03  1.04864E+04  9.22182E+03
 -9.73662E+02  9.01757E+03 -7.44165E+03  7.66226E+03 -1.36626E+04  1.22489E+01 -2.02070E+04 -6.13353E+03
 -1.11526E+04 -1.92006E+04 -1.69665E+03 -2.10351E+04  1.03883E+04 -1.61975E+04  7.42502E+03 -2.15525E+03
  1.50743E+04  1.13040E+04  7.24859E+03  1.21276E+04 -1.39404E+04  1.01615E+04 -1.16284E+04  1.75771E+01
 -1.63655E+01 -8.60509E+03  1.04414E+03 -5.26086E+03  4.62004E+03  2.08184E+03  7.57225E+03 -8.84385E+02
  7.08907E+03 -8.49676E+02  1.13884E+03  2.40571E+03 -1.94787E+03 -2.07340E+02  7.96450E+02 -9.65756E+02
 -6.72086E+02  2.07929E+03  6.70328E+03 -1.76097E+02 -2.22757E+03  1.16112E+04 -7.82681E+02  1.13063E+04
 -7.64458E+03  6.44052E+03 -8.17377E+03  4.56971E+03 -1.54103E+04  3.36382E+02 -6.48535E+03 -8.27969E+03
  3.28282E+03 -6.00464E+03 -3.83720E+03 -3.91138E+03  6.96375E+03  7.56288E+03  6.11270E+03  1.45133E+04
  8.54953E+01  7.07663E+03 -9.24506E+03 -2.52544E+02 -4.98885E+03 -1.03472E+04 -2.56244E+03 -1.29887E+04
  6.49699E+03 -1.14080E+03  4.77181E+03 -4.30056E+03 -4.15213E+03 -8.36126E+02  1.20327E+03  4.56959E+03
 -4.13877E+02  6.56383E+03 -5.78918E+03 -7.14178E+03 -1.06375E+03 -9.01089E+03  6.80351E+03 -8.57289E+03
  1.44617E+04  2.60026E+03  1.31544E+04  6.70923E+03  5.86043E+02  1.33976E+04 -5.59727E+03  8.29431E+03
 -1.25174E+04  3.76257E+03 -9.95924E+03 -3.52408E+03 -2.58577E+03 -1.38279E+04 -1.95776E+03 -6.13334E+03
  6.00307E+03 -1.00208E+04  1.04260E+04 -5.10641E+03  5.77816E+03  5.24745E+03 -8.52181E+02  3.41269E+03
 -5.54967E+03  4.48590E+03 -9.23994E+02  4.66145E+03 -8.88639E+03  5.00144E+03 -1.32491E+02  7.30660E+03
 -5.66672E+03  3.48764E+03 -1.50796E+03  5.61287E+03 -1.50444E+04 -2.20958E+03 -6.30821E+03 -5.67626E+03
 -6.02166E+03 -5.01069E+03 -3.55436E+01 -1.61259E+04  1.35249E+04 -1.12031E+04  9.90237E+03 -1.84796E+03
  1.94317E+04  9.62360E+02  1.18820E+04  5.85501E+03  3.37693E+03  1.77294E+04 -1.28023E+04  1.29767E+04
 -9.43502E+03  7.13255E+03  1.13746E+03 -1.99376E+03  1.93749E+02 -4.30475E+02  5.65635E+02  4.96194E+03
 -3.36578E+03  5.25367E+02 -8.87035E+03 -1.03783E+04  1.61225E+03  3.93486E+03 -1.49402E+03  2.31041E+02
  2.27364E+03 -2.65757E+03  5.64291E+03 -2.01521E+03 -3.57642E+03  4.46218E+03  1.07764E+04  1.38449E+04
 -1.09121E+04  1.28838E+04 -1.61578E+04  8.09764E+03 -6.64471E+03  2.40778E+03 -1.03575E+04 -1.24555E+04
 -1.02013E+04 -1.69512E+04  2.47508E+03 -1.00732E+04  7.54628E+03 -5.34952E+03  5.52467E+03  8.02247E+02
  6.55170E+03  3.21081E+03 -1.71740E+03  4.59738E+03  2.75909E+03 -1.20515E+03 -3.88108E+03 -7.65987E+03
  6.02789E+03  2.86462E+03  1.23742E+04  3.59077E+03 -4.64996E+03  8.41783E+03 -2.74122E+03  2.81218E+03
 -7.81073E+03  8.62763E+03 -9.49256E+03  3.42976E+03 -8.49931E+03 -1.53161E+03 -8.17932E+01 -3.75903E+03
  1.14157E+04 -6.50361E+03  1.09554E+04  1.33990E+03  6.87721E+03  5.02726E+03  8.29597E+03  4.17288E+02
 -2.42020E+03  2.61461E+03 -1.23653E+03  1.13000E+04 -8.66522E+03 -5.70497E+02 -2.57938E+03  4.37789E+03
  2.19425E+03  2.67001E+03 -2.02295E+03  4.57303E+03 -5.41031E+03  1.70123E+03 -6.42242E+03 -4.29510E+02
 -6.76873E+03 -9.84122E+02 -6.08063E+03 -3.95190E+03 -5.84513E+01 -7.61939E+03  9.74231E+03 -1.99010E+03
  1.07496E+04  2.70349E+03  3.65547E+03  1.10305E+04 -4.45436E+03  9.46601E+03 -6.77705E+03  6.54632E+03
