 $NMID ID='MM_0lb_SNR50_17hz_g55_97.RAW', FMTDAT='(8E13.5)'
 TRAMP=1., VOLUME=1. $END
  3.15029E+05 -8.74759E+01  3.37343E+05  2.46972E+05  8.09845E+04  3.36785E+05 -1.36186E+05  2.49611E+05
 -1.91133E+05  8.40047E+04 -1.12823E+05 -3.33509E+04  4.07759E+03 -5.45167E+04  5.07701E+04 -1.23329E+03
  3.58598E+04  5.26251E+04 -1.30322E+04  7.22060E+04 -6.17237E+04  6.45639E+04 -8.02939E+04  3.02428E+04
 -7.96848E+04 -1.41540E+04 -5.54905E+04 -4.71812E+04 -1.76202E+04 -7.13163E+04  2.93865E+04 -4.52583E+04
  3.62097E+04  5.21958E+03  1.50400E+04  4.56316E+04 -3.82609E+04  4.33621E+04 -6.40787E+04 -1.71760E+03
 -5.40278E+04 -5.80580E+04 -1.18204E+04 -7.39285E+04  3.92799E+04 -5.60910E+04  4.95353E+04 -1.83198E+04
  4.37997E+04  1.32483E+04  3.41961E+04  2.66243E+04  1.55851E+04  2.89892E+04 -3.15031E+03  2.36154E+04
 -1.93029E+04  7.03662E+03 -1.60482E+04 -6.43698E+03  7.96487E+03 -6.45876E+03  1.79664E+04  1.56780E+04
  5.97088E+03  3.53540E+04 -3.60137E+04  3.11057E+04 -6.46827E+04  1.67208E+03 -5.48640E+04 -3.88641E+04
 -1.60221E+04 -6.02946E+04  3.82908E+04 -4.58693E+04  5.46907E+04 -4.33024E+03  3.09190E+04  2.65277E+04
 -3.92735E+03  3.92450E+04 -3.19202E+04  1.59635E+04 -3.20317E+04 -7.82874E+03 -1.56127E+04 -9.51242E+03
 -1.15661E+04 -1.10441E+04 -6.59101E+02 -1.62924E+04  2.76683E+03 -2.13389E+04  1.78415E+04 -1.55476E+04
  1.38667E+04  3.63035E+03 -8.58800E+03  9.14844E+03 -1.62143E+04 -3.22511E+03 -8.34727E+03 -3.00233E+04
  2.35717E+04 -4.53644E+04  4.61695E+04 -1.67665E+04  4.93645E+04  1.92562E+04  1.97828E+04  4.17504E+04
 -1.66870E+04  3.21035E+04 -2.32589E+04  3.62457E+02 -8.00309E+03 -2.71158E+04  1.81357E+04 -3.60133E+04
  4.12989E+04 -8.64397E+03  4.09034E+04  2.18723E+04  1.90966E+04  4.52626E+04 -6.46598E+03  4.71953E+04
 -2.85909E+04  3.41134E+04 -3.90876E+04  9.13760E+03 -4.21854E+04 -1.67231E+04 -2.26998E+04 -3.66152E+04
  8.05505E+03 -3.79083E+04  2.95512E+04 -1.76378E+04  2.55845E+04  1.03068E+04  3.43389E+03  1.79614E+04
 -1.77142E+04  8.75189E+03 -8.47608E+03 -3.90934E+03  8.46135E+03 -8.07593E+03  2.11952E+04  4.60817E+03
  1.16831E+04  1.92055E+04 -2.96884E+03  2.86647E+04 -1.80763E+04  1.35472E+04 -2.91471E+04  1.43361E+01
 -1.59052E+04 -1.56188E+04 -8.01783E+03 -2.25355E+04  6.39510E+03 -1.45535E+04  1.56107E+04 -1.78772E+04
  2.55479E+04 -1.14356E+04  3.09643E+04  6.14151E+01  2.31680E+04  2.13868E+04  4.31576E+03  3.76637E+04
 -2.24586E+04  3.10935E+04 -2.25717E+04  1.49007E+04 -1.71697E+04 -1.04261E+04 -8.65880E+03 -1.77956E+04
 -1.36474E+03 -1.16249E+03 -2.24260E+03  6.17968E+03 -1.42326E+04  7.69059E+03 -1.09711E+04 -4.58471E+03
 -1.08590E+04 -1.41865E+04  2.79954E+03 -2.44877E+04  1.33492E+04 -1.55826E+04  2.23248E+04 -3.11048E+03
  1.46163E+04  1.29531E+04  5.63110E+03  2.12653E+04 -1.43058E+04  8.84191E+03 -1.67083E+04 -2.48942E+03
 -1.10137E+04 -1.70406E+04 -1.21398E+03 -2.65546E+04  1.09100E+04 -1.95665E+04  1.88095E+04 -6.33184E+03
  1.51203E+04  2.97973E+03  1.12046E+04  3.93530E+03  6.66125E+03 -2.62186E+03  7.66517E+03  2.34427E+02
  1.23607E+04  2.03276E+03  1.26179E+04  1.62518E+04  1.09597E+04  2.64988E+04 -4.93785E+03  3.09326E+04
 -1.79928E+04  2.50925E+04 -2.94418E+04  1.22436E+04 -2.77762E+04 -2.90689E+03 -2.55703E+04 -1.76761E+04
 -1.47272E+04 -2.90552E+04  8.72411E+03 -2.24704E+04  1.97419E+04 -1.11472E+04  2.07799E+04  3.46636E+03
  6.93334E+03  1.11314E+04 -5.41689E+03  1.41538E+04 -1.63354E+04  2.72829E+03 -1.03881E+04 -7.20160E+03
 -1.10887E+03 -1.31717E+04  8.47453E+03 -1.06024E+04  1.00279E+04 -4.24982E+03  3.49568E+03  6.88538E+03
 -5.44130E+03 -4.19234E+02 -5.89173E+03 -1.41263E+03 -5.14598E+02 -1.41540E+04  4.43199E+03 -8.10028E+03
  1.51461E+04 -7.37450E+03  1.75022E+04  5.75068E+03  1.61444E+04  1.31337E+04  6.65713E+03  1.75592E+04
  2.50488E+03  1.89591E+04 -9.70137E+03  9.72325E+03 -1.26914E+04  1.78444E+03 -7.08645E+03 -3.39102E+03
 -4.41557E+03 -2.16913E+03  3.90333E+02 -1.12711E+03 -2.42158E+03  1.01564E+03 -4.58740E+03  4.54270E+03
 -7.38097E+03  7.27190E+02 -1.07521E+04 -6.04960E+03 -6.24528E+03 -1.19047E+04  4.34599E+03 -8.59346E+03
  7.27831E+03 -7.25629E+03  3.96013E+03  3.57280E+03 -3.45271E+03  5.29106E+03 -4.98187E+03  2.51602E+03
 -6.54947E+03 -9.75878E+03  2.33413E+03 -1.06673E+04  4.61587E+03 -1.00782E+04  1.01069E+04 -4.74210E+03
  1.64919E+04  2.76505E+03  1.03801E+04  9.36793E+03  3.52344E+03  1.12673E+04 -3.16098E+03  1.29325E+04
 -8.72219E+03  5.25367E+03 -2.95526E+03  3.45463E+03  1.47036E+03 -3.87629E+02  6.20120E+03  9.94929E+02
  3.85252E+03  7.47790E+03  2.86494E+03  1.20019E+04 -3.95052E+03  8.37816E+03 -9.00818E+03  1.62040E+03
 -4.24953E+03 -2.86970E+03  1.78853E+03 -6.62514E+03  6.75320E+03 -6.32449E+03  3.82558E+03  5.58705E+03
  2.47978E+03  2.88988E+03 -6.19765E+03  4.87136E+03 -7.52156E+03  3.49831E+03 -6.02253E+03 -4.70719E+03
 -2.37651E+03 -7.15912E+03  1.62876E+03 -4.21552E+03  1.19483E+04 -3.40900E+03  5.98978E+03 -4.78468E+02
  6.63863E+03  7.20751E+03  2.93838E+03  5.82788E+03 -3.02574E+03  3.66013E+03 -7.01131E+03  7.45034E+02
 -8.23639E+03 -5.71635E+03 -3.11538E+03 -3.21451E+03  3.34596E+02 -5.03190E+03  3.35224E+03 -5.29448E+03
  1.98585E+03  2.74075E+01  1.92857E+03 -8.02185E+02 -3.80654E+03 -2.58563E+03 -7.35492E+02 -1.31983E+03
  6.63559E+03 -2.75813E+03  9.57647E+03  4.11505E+03  5.39118E+03  6.64285E+03  7.13968E+03  3.64921E+03
 -4.06784E+03  1.45163E+04 -1.43775E+04  9.07070E+03 -1.13336E+04 -1.17633E+03 -5.65674E+03 -1.55879E+03
 -8.26010E+03 -1.03990E+04 -2.06137E+03 -8.54571E+03  1.33729E+03 -7.27646E+03  5.10118E+03 -2.60616E+03
  1.20145E+03 -6.34815E+03  3.32350E+03 -2.31951E+03  4.21299E+03  8.71691E+02  5.64523E+03 -8.23898E+02
  8.88356E+03  3.09608E+02  5.81997E+03  3.47542E+03 -7.96776E+02  7.29229E+03 -6.02077E+03  3.93342E+03
 -5.04602E+03  2.20740E+03 -4.15663E+03 -4.19675E+03  2.80939E+03 -6.81002E+03  5.19340E+03 -9.21004E+03
  4.39618E+03 -5.78385E+03  7.60942E+03 -1.18422E+03  1.16686E+03  3.54370E+03  4.34719E+02  5.69799E+03
 -1.22339E+03  9.10593E+03 -5.48179E+03 -1.34635E+03 -4.52609E+03  1.19255E+03 -5.98979E+02  2.70217E+03
  1.22624E+03  1.58266E+03  2.94433E+02  4.45973E+03 -4.35834E+03  2.97108E+03 -5.06067E+03  2.08125E+03
 -2.54913E+03 -3.27494E+03  1.09773E+03 -6.99975E+03  1.24859E+03 -4.76712E+03 -4.44655E+02 -3.17247E+03
  4.18762E+03  3.61707E+03  8.45672E+02  2.04817E+03 -5.73696E+02  6.40561E+03 -1.87240E+03  1.94135E+03
 -5.90921E+03  4.29727E+03 -4.72802E+03 -5.09655E+03 -4.72964E+03 -4.35342E+03  4.16229E+03 -4.55171E+02
  6.29707E+02 -3.18845E+03  3.74696E+03  2.55971E+03  7.19553E+03  3.02068E+03  1.61957E+03  2.72480E+03
  3.88192E+03  1.71848E+03  2.79992E+03 -3.19623E+03  4.82951E+03  3.90497E+03  1.59147E+03  6.22613E+03
  4.50109E+02  3.13984E+03 -2.12494E+03  6.15634E+03 -5.61778E+03  7.50429E+02 -4.38243E+03  7.92190E+02
 -1.22152E+03 -1.12497E+03  3.40533E+03 -1.06296E+04  3.13267E+03  1.24559E+02  2.03860E+03 -4.47923E+03
  3.62844E+03  3.10164E+03 -1.72902E+03  4.29026E+03  1.31553E+03  1.90850E+03  1.98896E+02 -1.51830E+03
 -3.06972E+03 -3.86997E+03  2.34503E+03  5.81852E+02  3.21556E+03 -2.68039E+03  7.86504E+02  3.94070E+03
 -2.89225E+03 -1.75672E+03  4.59770E+03  1.56560E+03 -2.19569E+02 -1.08346E+03 -2.50128E+03  3.99057E+02
  1.73008E+03 -4.02176E+02  4.02712E+03 -2.06194E+03 -6.84229E+02  5.34357E+02 -1.61510E+03  3.32243E+03
 -1.64500E+03 -4.74662E+02 -6.35680E+02 -5.39957E+02 -5.67121E+03 -4.30088E+03  4.28519E+02 -4.23367E+03
 -7.89793E+02 -1.12973E+03  6.20009E+02 -1.21394E+03  1.30473E+03  4.19013E+03 -5.86774E+03  1.92164E+03
 -1.48143E+03  3.78613E+03 -3.73001E+03  1.00950E+03  5.28703E+01 -2.83813E+03 -7.48202E+02 -3.41749E+03
 -2.02683E+03 -3.49998E+02  1.71223E+03  1.57427E+03  3.37108E+03 -3.51880E+03  1.53733E+03 -6.79513E+01
 -3.82058E+02 -3.37972E+03 -2.61286E+03 -1.62409E+03  3.32214E+03 -2.53063E+03  3.58670E+02  2.28193E+03
  2.12698E+02 -4.79341E+03  3.69218E+03 -1.35984E+03  3.46389E+03  1.19759E+03  3.23026E+03  2.01185E+03
 -2.54575E+03  7.74758E+02 -1.63687E+03 -6.45916E+03 -2.03694E+02  1.49254E+02  2.07211E+03  1.12450E+03
  1.92721E+03  2.50453E+03  4.05239E+03  1.54937E+03 -6.11227E+01  8.37707E+01  4.57710E+03 -2.04289E+03
  7.03299E+02  7.10314E+02 -3.35481E+03 -5.31366E+02  3.14233E+03  3.04018E+03  3.81716E+02 -7.42764E+02
 -2.35296E+03  2.11929E+03 -1.52429E+03 -1.84198E+03 -6.68459E+03  5.21331E+03 -2.11518E+03 -6.94816E+02
 -3.10862E+02 -4.45275E+03  1.14441E+03 -4.76561E+03  1.34212E+03 -3.16622E+03 -7.88481E+02 -9.92183E+02
  6.54300E+03 -4.45101E+03  1.97571E+03 -1.93640E+03 -7.25998E+02  5.15043E+02  5.77899E+02  4.32222E+03
 -1.14198E+03  5.70059E+03 -2.09175E+03 -2.97588E+03  1.50683E+03 -6.42490E+02 -6.83131E+03  4.39942E+02
  7.34028E+02 -3.00927E+03 -1.87962E+03  5.44772E+02  2.21756E+03 -2.32003E+03 -3.79350E+03  1.39835E+02
  3.19039E+03 -4.54672E+03 -2.79853E+03  1.90446E+03 -2.22476E+03  1.52977E+03 -3.05140E+03 -2.71090E+03
  8.01053E+02  2.35372E+03 -1.89970E+02  9.80834E+02 -6.84404E+03  1.14072E+03  1.73878E+02 -1.04909E+03
  2.86558E+03 -9.97692E+02  3.39251E+03 -2.73889E+03 -7.71621E+02 -4.09348E+02 -3.29403E+01 -1.69324E+03
 -2.85005E+03 -1.13158E+02  1.47713E+03  9.55908E+02  4.72770E+02  2.06862E+03 -1.42073E+03 -2.35864E+03
  1.44736E+03 -2.79372E+03 -3.44405E+03  4.49188E+03 -2.00069E+03 -3.79976E+03 -4.62089E+03 -2.41150E+03
 -3.10758E+03  2.86896E+03 -1.87577E+03  1.13303E+03 -1.90964E+03 -3.30023E+02 -3.77737E+03 -3.99680E+03
 -1.33081E+02 -9.24643E+02  1.51056E+03 -1.51329E+03 -1.60120E+03 -3.47600E+03  1.57090E+03 -2.09872E+03
 -4.08712E+03  4.45595E+03 -5.31380E+03 -8.73596E+02 -4.28386E+03  1.03750E+03  2.80514E+03  1.60592E+02
 -3.52594E+03  8.87701E+02 -8.21984E+02  1.95881E+03 -8.12903E+02  3.81346E+02 -2.16192E+03  8.27031E+02
 -4.96604E+03  4.38142E+03  3.67503E+02  3.53594E+01  8.98404E+02  1.11848E+03  4.65338E+03  2.72826E+02
 -6.97891E+02  7.47830E+02  1.75660E+03 -1.05267E+03  1.13973E+03  4.33326E+03 -1.81465E+03  2.32175E+03
