 $NMID ID='MM_0lb_SNR50_14hz_g40_72.RAW', FMTDAT='(8E13.5)'
 TRAMP=1., VOLUME=1. $END
  3.13183E+05 -3.12366E+03  3.38278E+05  2.52538E+05  8.23491E+04  3.37083E+05 -1.36957E+05  2.51358E+05
 -1.91341E+05  8.40357E+04 -1.09086E+05 -3.67519E+04  1.28947E+03 -4.72115E+04  5.45779E+04  4.68935E+02
  3.51997E+04  5.43142E+04 -1.52228E+04  7.76077E+04 -6.43653E+04  6.46039E+04 -8.25156E+04  3.30716E+04
 -8.09997E+04 -1.16458E+04 -5.44776E+04 -4.74963E+04 -1.52443E+04 -6.71016E+04  3.01653E+04 -5.04258E+04
  4.16315E+04  2.85027E+03  1.80016E+04  4.91894E+04 -3.31275E+04  4.78255E+04 -6.40357E+04 -2.87472E+03
 -5.23253E+04 -5.96103E+04 -6.11774E+03 -7.60124E+04  3.80518E+04 -5.04748E+04  4.83750E+04 -1.80518E+04
  4.12282E+04  1.21618E+04  3.25357E+04  2.30937E+04  1.90619E+04  2.60234E+04 -5.84063E+03  2.92987E+04
 -2.14063E+04  8.10333E+03 -2.04563E+04 -4.19601E+03  6.52747E+03 -1.23711E+04  2.14540E+04  1.47821E+04
  1.03700E+04  3.66252E+04 -3.25819E+04  3.65656E+04 -6.05133E+04  1.24366E+03 -5.13615E+04 -4.52419E+04
 -1.57706E+04 -5.99405E+04  4.43815E+04 -4.35737E+04  5.74630E+04 -4.19448E+03  3.48483E+04  3.17925E+04
 -3.78744E+03  3.17744E+04 -2.92751E+04  1.51414E+04 -2.47359E+04 -8.37092E+03 -1.12319E+04 -7.99931E+03
 -8.34640E+03 -1.90216E+04  2.00555E+01 -2.01377E+04  8.57508E+03 -2.64913E+04  1.54449E+04 -1.31294E+04
  9.93326E+03  3.06899E+03 -3.07448E+03  1.70148E+04 -1.88450E+04 -2.86890E+03 -1.06981E+04 -3.23801E+04
  2.01600E+04 -3.69217E+04  4.61145E+04 -1.72708E+04  4.02571E+04  2.21545E+04  1.85389E+04  4.31599E+04
 -1.39136E+04  3.46698E+04 -2.53511E+04  2.05176E+03 -3.87620E+03 -2.91609E+04  2.17519E+04 -3.22396E+04
  4.35770E+04 -2.76771E+03  3.37746E+04  2.57289E+04  1.57264E+04  4.75426E+04 -1.02961E+04  4.92056E+04
 -3.03098E+04  3.80092E+04 -4.46406E+04  5.46711E+03 -4.19910E+04 -1.63895E+04 -1.88427E+04 -3.54334E+04
  5.30565E+03 -3.77013E+04  2.83539E+04 -1.53371E+04  2.97810E+04  9.74658E+03 -8.39719E+02  1.53326E+04
 -1.20643E+04  8.20503E+03 -1.58348E+04 -7.19569E+03  5.68674E+03 -8.32997E+03  1.82689E+04  7.89826E+03
  9.52972E+03  2.41254E+04 -9.00312E+03  2.65366E+04 -2.16856E+04  1.60085E+04 -2.80849E+04 -3.77645E+03
 -1.49400E+04 -1.82539E+04 -6.82669E+03 -2.26958E+04  2.30835E+03 -1.86451E+04  1.55047E+04 -1.80735E+04
  2.86187E+04 -9.58704E+03  3.16739E+04  3.40074E+03  2.54647E+04  2.26224E+04  2.81177E+03  3.46940E+04
 -1.41626E+04  3.56274E+04 -2.86908E+04  1.30090E+04 -2.36717E+04 -8.57688E+03 -6.63144E+03 -1.29124E+04
  8.97628E+02 -7.91339E+03 -3.24652E+03  8.42281E+03 -1.22999E+04  7.74796E+02 -1.56573E+04 -7.00514E+03
 -8.73491E+03 -1.50492E+04  2.82797E+03 -1.69138E+04  1.45600E+04 -1.91162E+04  1.47694E+04  3.30109E+03
  1.12522E+04  1.43887E+04 -7.98304E+03  1.91458E+04 -1.30496E+04  1.15742E+04 -1.68724E+04 -4.47229E+03
 -9.21902E+03 -2.03701E+04 -3.47494E+03 -2.53484E+04  8.02558E+03 -2.18385E+04  1.71124E+04 -9.96535E+03
  2.16407E+04  1.76687E+03  1.09122E+04  4.69475E+03  2.80374E+03  2.96686E+03  5.62817E+03  2.52222E+03
  1.94282E+04  7.72169E+03  1.55259E+04  1.15095E+04  1.32371E+04  2.97326E+04 -3.40891E+03  3.28358E+04
 -1.83267E+04  2.60225E+04 -2.65502E+04  9.23578E+03 -3.30206E+04  1.16361E+03 -2.57232E+04 -2.38187E+04
 -1.22202E+04 -2.44782E+04  6.24043E+03 -2.32949E+04  1.81353E+04 -1.04723E+04  1.92983E+04  1.30603E+02
  7.66210E+03  9.36756E+03 -1.14714E+04  1.24448E+04 -1.26052E+04  7.13885E+03 -1.69170E+04 -1.02362E+04
 -2.30005E+03 -1.19284E+04  3.80451E+03 -1.61654E+04  8.42276E+03  3.81097E+03 -1.59785E+03  7.78443E+03
 -3.66161E+03  1.94334E+03 -8.21760E+03 -3.90127E+03 -1.88222E+02 -1.38951E+04  1.15991E+04 -1.38321E+04
  1.02717E+04 -1.29705E+03  1.69660E+04 -1.14526E+03  1.51489E+04  1.38611E+04  4.45456E+03  2.14283E+04
 -2.50556E+03  2.06963E+04 -1.18257E+04  1.17141E+04 -1.53017E+04  5.60773E+03 -9.07343E+03 -2.80171E+03
 -3.80359E+03 -2.10463E+03 -2.95371E+03 -6.20341E+02 -1.64500E+03 -4.90577E+02 -6.74097E+03  6.72972E+03
 -1.53393E+04  3.51467E+01 -4.42495E+03 -7.57291E+03 -5.69347E+03 -1.52060E+04  6.63617E+03 -1.04096E+04
  1.22582E+04 -8.97054E+03  5.14921E+03  1.84160E+03 -7.44438E+02  2.84973E+03 -2.87469E+03  4.25520E+03
 -2.52961E+03 -9.86929E+03  2.61938E+03 -1.00001E+04  4.32850E+03 -6.92399E+03  1.23337E+04 -6.96326E+03
  1.31442E+04 -2.53849E+03  1.28229E+04  9.89672E+03  3.37477E+03  7.39780E+03 -5.05314E+03  1.01260E+04
 -1.02465E+04 -1.87116E+03 -4.43434E+03 -1.75521E+03  5.96124E+02 -7.01625E+03  5.13800E+03 -5.63739E+02
  9.67694E+03  5.13737E+03 -3.94658E+02  1.06862E+04 -5.30034E+03  5.50991E+03 -8.03136E+03 -1.20940E+03
 -2.65723E+03 -8.82904E+03  4.33660E+03 -1.19969E+04  5.36200E+03 -6.24769E+03  8.10482E+03 -4.87556E+02
  2.92235E+03  4.04648E+03 -4.42050E+03  9.67847E+03 -1.34348E+04  4.50213E+03 -1.02952E+04 -4.91578E+03
 -6.91163E+03 -1.35066E+04  2.65038E+03 -1.08570E+04  1.41157E+04 -2.51324E+03  9.89272E+03 -2.35545E+02
  3.52969E+03  1.15097E+04  1.31437E+03  6.94456E+03 -7.52663E+03 -8.91117E+02 -8.19340E+03 -2.80124E+03
 -7.72909E+03 -3.90781E+03 -1.42213E+03 -3.79869E+03 -1.66034E+02 -7.40879E+03  3.40836E+03 -1.32131E+03
  3.15135E+03 -3.11622E+02 -1.45056E+02  1.40875E+03  2.93058E+02 -3.15180E+03 -1.09789E+03 -2.35092E+03
  2.41335E+03 -2.92150E+03  9.37029E+03 -1.72626E+03  7.56542E+03  8.25842E+03  7.98520E+03  1.10007E+04
 -3.20735E+03  9.13589E+03 -1.51393E+04  1.30171E+04 -1.61267E+04  2.60326E+03 -1.09915E+04 -1.94482E+03
 -6.68461E+03 -1.35677E+04  3.46757E+03 -4.23229E+03  6.09451E+02 -2.54562E+03  5.48749E+03 -2.01880E+03
  4.19425E+02  4.64306E+02 -1.55920E+02  6.51784E+02  1.38032E+03  4.13092E+02  8.36283E+03 -1.02071E+03
  6.74578E+03  2.06116E+03  4.67626E+03  3.55146E+03  9.17459E+02  1.64990E+03 -4.35876E+03  5.23995E+03
 -7.63406E+03 -5.47390E+03 -8.75443E+03 -9.89148E+03 -1.76767E+03 -1.04618E+04  5.24097E+03 -8.23996E+03
  9.26008E+03 -6.03271E+03  9.86023E+03  6.47394E+02  8.64122E+03  7.97927E+03 -3.25494E+03  1.38553E+04
 -4.96492E+03  7.74076E+03 -6.19276E+03  2.85817E+03 -3.35257E+03 -3.23122E+03 -1.67969E+03 -3.47991E+03
 -1.69234E+03 -3.82668E+03 -4.43111E+02  5.18434E+03 -1.50629E+03 -1.79566E+03 -6.87740E+03 -5.21634E+03
 -1.72124E+03 -2.80920E+03  5.10598E+03 -7.86364E+03  4.43124E+03 -4.11274E+03  6.00852E+03 -6.45981E+02
  5.49329E+03  9.87470E+03  1.28273E+03  3.92821E+03 -3.52802E+03  7.56492E+03 -1.34489E+03  6.26720E+03
 -3.91741E+03  1.51098E+03 -6.20305E+03 -6.03080E+03  2.12616E+03 -3.56251E+03  3.91953E+03 -1.19611E+04
  1.99841E+03 -3.03839E+03 -3.22593E+03 -2.53633E+03  1.79426E+02  1.74142E+03  8.60931E+03  3.17869E+03
  9.21370E+02 -5.81477E+03  1.55829E+03 -2.53563E+03 -7.17007E+02  4.18363E+02  3.99544E+03  4.62725E+03
 -9.64970E+03  7.43958E+02 -2.75344E+03  7.32502E+03 -2.20839E+03 -1.42024E+03 -9.95613E+03 -2.59202E+03
 -3.38257E+03 -8.10499E+03  1.55666E+03 -5.04639E+03 -2.71668E+02 -5.53200E+03  2.02587E+03 -9.32847E+02
  5.49906E+03  2.07493E+02  4.67582E+03 -1.53018E+02 -6.54862E+01  3.42308E+03 -2.48111E+03 -9.65843E+02
 -1.91980E+03 -1.81342E+03  2.06536E+03 -3.15926E+03  5.17148E+03  6.32337E+02  1.10214E+03  5.43260E+03
  7.48022E+02  4.77303E+03  9.42537E+01 -1.28727E+03 -5.20150E+03  3.21592E+03  3.85366E+03 -4.12350E+02
  3.29035E+03 -6.29563E+03  6.18589E+03  3.22574E+03 -2.52058E+02 -3.15492E+03 -2.58667E+03  8.51104E+03
 -3.45781E+03  4.54485E+03 -1.21269E+03 -4.51166E+03 -8.11111E+03 -4.60934E+03  1.26397E+03 -1.87751E+03
 -8.67803E+02 -2.81905E+03  1.26506E+03 -3.22656E+03  3.60867E+03  2.57021E+03 -5.29915E+02  3.79131E+03
 -2.35642E+03  5.35051E+03 -1.73183E+03  2.88185E+03  2.88456E+03 -2.75687E+03  4.61853E+03 -2.94232E+03
  9.01802E+02  5.38997E+02  1.54008E+03 -2.52674E+03  4.61336E+03  1.87235E+03 -2.37363E+03  6.48514E+03
 -1.76932E+03 -9.63156E+02 -1.82313E+03 -9.71737E+02 -1.09037E+03 -5.85850E+03 -7.07433E+02 -1.54466E+03
  5.30225E+03 -2.07940E+03  7.67592E+03  1.24443E+03  1.70951E+03  1.96988E+03 -1.83501E+03 -3.35249E+03
 -6.50590E+03  1.35093E+03 -2.05890E+03 -3.59921E+03 -5.43013E+03 -3.76281E+03  1.89155E+03 -2.08985E+03
  4.23493E+03 -3.65630E+03  4.93508E+03  6.93940E+03  5.37560E+03  3.27278E+03  1.62768E+03 -1.86148E+03
 -3.04935E+02 -2.80574E+03 -3.46483E+03 -2.71523E+03  4.40440E+03 -6.09404E+01 -8.29521E+02  1.42656E+02
 -6.13260E+03 -1.45978E+03 -4.28562E+03  3.38784E+03 -1.36146E+03  3.61521E+03 -4.16853E+03 -1.78684E+03
 -1.42476E+03 -3.50681E+03 -1.23604E+03 -8.78912E+03  1.99052E+03 -9.75908E+03  1.11147E+04  2.59646E+03
  6.28751E+03 -6.66894E+02  6.21472E+03  5.36116E+03 -3.09566E+03  2.80070E+03 -4.60456E+03  6.97351E+03
 -2.99955E+01  5.10390E+03 -6.41419E+03  7.41383E+02  1.53414E+03 -9.53495E+02 -2.67918E+03  1.62542E+02
 -1.11662E+03  2.50479E+03 -1.94029E+03  2.41968E+03  3.29442E+03 -2.17960E+03 -8.40127E+02 -5.53457E+03
  6.37792E+03 -3.38581E+03  4.00907E+03  1.42146E+03 -4.20110E+03  1.07848E+03  1.32834E+03  2.04647E+03
 -1.54737E+03  1.81645E+03 -2.91604E+03  8.08113E+03 -3.44735E+03  7.61375E+02 -1.68865E+03 -2.29044E+03
 -2.89755E+03 -5.54149E+03 -6.15729E+02  2.21325E+02  5.89475E+01 -2.65274E+03  8.47950E+03  1.38620E+03
  4.77906E+03 -2.36636E+03  7.73620E+02  3.03567E+03  3.13663E+03  1.26397E+03 -3.64445E+02 -3.43126E+03
 -3.33684E+03  1.23744E+03  7.05308E+02 -1.89564E+03  1.06382E+04  5.20225E+03 -1.58933E+03 -3.69367E+03
 -1.50599E+03  1.10805E+03 -1.92209E+03  5.22857E+03  3.22379E+03 -3.32250E+03  1.52431E+03 -6.73979E+03
 -6.97951E+01 -7.23824E+02  5.33757E+03 -4.04008E+03  2.33976E+03 -4.72566E+03  2.42570E+03  2.08317E+03
 -3.65130E+03  4.82178E+03 -1.48353E+03  2.28106E+03 -3.69710E+03 -7.46328E+02 -3.72826E+03 -2.90348E+02
  1.93150E+03  7.48928E+02  7.95672E+02 -9.33250E+02 -3.24445E+03 -1.40328E+03 -4.87063E+03 -4.60942E+03
 -4.51791E+03 -9.86231E+02 -3.57542E+03 -1.18591E+03  2.77979E+03 -2.69700E+03  1.63341E+03 -7.20860E+02
  4.89123E+03  1.85636E+03  1.26385E+03  3.15716E+03  3.41873E+01  4.20656E+03 -2.63299E+03  2.09603E+03
