 $NMID ID='MM_0lb_SNR50_9hz_g45_17.RAW', FMTDAT='(8E13.5)'
 TRAMP=1., VOLUME=1. $END
  3.05462E+05 -1.94139E+03  3.36304E+05  2.52712E+05  8.91382E+04  3.33847E+05 -1.38002E+05  2.45541E+05
 -1.95285E+05  8.60865E+04 -1.18883E+05 -3.10624E+04 -7.00730E+03 -4.90848E+04  5.23574E+04  3.94070E+03
  3.40932E+04  4.86640E+04 -1.72386E+04  7.77013E+04 -5.96962E+04  5.83895E+04 -8.72584E+04  3.56577E+04
 -8.21560E+04 -1.20829E+04 -6.08258E+04 -5.93104E+04 -2.15036E+04 -7.08743E+04  3.34540E+04 -4.97579E+04
  3.73498E+04  8.78551E+03  1.99745E+04  4.69088E+04 -2.96868E+04  5.20656E+04 -6.75188E+04  1.63495E+03
 -5.26745E+04 -6.47477E+04 -8.35172E+03 -8.29278E+04  3.95077E+04 -5.50474E+04  5.04364E+04 -1.54076E+04
  4.12056E+04  1.02446E+04  4.05726E+04  2.49872E+04  2.03953E+04  3.44302E+04 -9.02241E+03  2.68399E+04
 -2.15495E+04  1.19344E+04 -2.08887E+04 -2.05854E+03  4.67609E+03 -5.79868E+03  2.49095E+04  1.21721E+04
  3.95535E+03  3.55602E+04 -3.41762E+04  3.54210E+04 -6.36499E+04  2.57066E+02 -5.85917E+04 -4.50514E+04
 -9.09825E+03 -6.69854E+04  3.87955E+04 -4.69037E+04  6.15475E+04  1.85718E+03  3.95069E+04  3.76161E+04
 -8.35016E+03  4.00994E+04 -3.34554E+04  1.77565E+04 -2.96708E+04  2.14029E+02 -2.24049E+04 -1.23860E+04
 -1.43905E+04 -9.12542E+03  8.49208E+02 -1.83299E+04  1.01171E+04 -2.44259E+04  1.89354E+04 -1.94238E+04
  1.45404E+04  8.34951E+03 -9.15628E+03  1.18811E+04 -1.76774E+04 -2.07380E+03 -1.10043E+04 -3.98847E+04
  2.02187E+04 -4.69373E+04  5.65759E+04 -1.87268E+04  4.46694E+04  1.74982E+04  2.54606E+04  4.62910E+04
 -2.19440E+04  3.35181E+04 -2.14997E+04  2.69147E+03 -6.21924E+03 -2.25221E+04  1.98176E+04 -3.85826E+04
  4.40465E+04 -1.02098E+04  3.29418E+04  2.88894E+04  1.97572E+04  4.74595E+04 -1.23901E+04  5.43553E+04
 -3.92763E+04  3.32500E+04 -4.35744E+04  9.21294E+03 -4.49595E+04 -1.94303E+04 -2.53796E+04 -4.94654E+04
  1.95630E+03 -4.19625E+04  3.52227E+04 -1.49530E+04  2.71825E+04  1.06297E+04  4.64397E+03  1.97482E+04
 -9.26524E+03  2.34138E+03 -9.44201E+03 -1.89386E+03  3.94259E+03 -1.37605E+04  2.57629E+04  3.15393E+02
  1.54648E+04  2.94142E+04 -9.91012E+03  2.53469E+04 -2.23935E+04  1.53605E+04 -2.56692E+04 -4.28590E+03
 -2.33296E+04 -1.13342E+04 -1.17057E+04 -2.34902E+04  3.88815E+03 -2.26287E+04  1.58389E+04 -2.52289E+04
  3.20441E+04 -8.54560E+03  3.92277E+04  4.83697E+03  3.42263E+04  2.00241E+04  6.32257E+03  4.26229E+04
 -1.89061E+04  3.68342E+04 -2.88134E+04  1.54100E+04 -1.93683E+04 -6.76617E+03  4.15195E+02 -1.21507E+04
 -1.33996E+03 -8.10565E+02 -9.62808E+03  9.58342E+03 -1.72615E+04  2.78176E+03 -1.46099E+04 -8.32704E+03
 -1.14494E+04 -2.55434E+04  1.01693E+04 -2.41371E+04  1.53290E+04 -1.55778E+04  2.55687E+04 -7.95540E+03
  1.36578E+04  1.65056E+04  7.98860E+02  2.67284E+04 -1.16291E+04  1.23357E+04 -2.33592E+04 -1.35367E+04
 -1.92177E+04 -1.86237E+04 -1.81490E+03 -2.34795E+04  1.49821E+04 -2.09770E+04  2.18823E+04 -1.37952E+04
  2.38872E+04  9.91846E+02  1.89249E+04  6.68677E+03  1.23458E+04  1.27693E+03  1.81451E+04 -1.36501E+03
  1.46200E+04 -5.23638E+03  2.59452E+04  1.86941E+04  2.22354E+04  3.70931E+04 -2.51467E+03  4.78370E+04
 -2.39784E+04  3.55433E+04 -4.15553E+04  2.03714E+04 -3.91950E+04 -3.61041E+03 -3.15983E+04 -2.33036E+04
 -1.61706E+04 -4.08227E+04  1.04496E+04 -3.36270E+04  3.06246E+04 -1.70347E+04  1.90841E+04  6.73883E+03
  1.31801E+04  1.99756E+04 -1.58185E+04  1.49908E+04 -2.16820E+04  1.46790E+03 -1.77668E+04 -8.67704E+03
  2.01473E+02 -2.54291E+04  9.13364E+03 -2.02581E+04  1.57271E+04 -4.40224E+03  5.77286E+03  3.34889E+03
 -7.44455E+03 -5.28401E+03 -1.14554E+04 -1.36292E+04 -2.74304E+03 -1.57753E+04  1.35426E+04 -1.25486E+04
  2.23856E+04 -1.13281E+04  2.47412E+04  1.70634E+03  2.25880E+04  1.34460E+04  8.09490E+03  2.47383E+04
 -1.00552E+04  2.97126E+04 -2.26056E+04  1.90036E+04 -1.61569E+04  1.11450E+03 -2.17362E+04 -4.63703E+03
 -7.01673E+03 -1.14927E+04  1.02735E+03 -3.12755E+03 -5.21482E+03  3.11348E+03 -7.76305E+03  5.59474E+03
 -1.42323E+04 -2.34293E+03 -1.82353E+04 -2.39217E+04 -1.02274E+04 -2.35979E+04  7.86331E+03 -1.95621E+04
  1.38683E+04 -5.20081E+03  9.74067E+03  1.52834E+03 -3.35090E+03  3.83935E+03 -3.28751E+03 -9.12278E+03
 -9.91945E+03 -1.53439E+04  7.53368E+02 -1.17492E+04  9.66916E+03 -1.51478E+04  1.95569E+04 -9.63401E+03
  1.62668E+04 -7.71191E+02  1.67475E+04  1.26637E+04 -2.58084E+03  2.57091E+04 -8.20526E+03  2.01766E+04
 -3.67349E+03  4.20004E+03 -1.33985E+04 -6.09206E+03 -8.65806E+02  2.23877E+03  5.35550E+03 -2.44037E+03
  4.48210E+03  8.10612E+03 -1.35069E+03  1.14697E+04 -1.04223E+04  1.13412E+04 -8.87116E+03  7.32052E+03
 -9.49057E+03 -1.17226E+04  2.93758E+03 -2.32408E+04  1.73358E+04 -7.48276E+03  9.13307E+03  3.72830E+03
  2.47554E+03  1.28036E+04 -1.20701E+04  6.46269E+03 -1.58782E+04 -1.84408E+03 -4.34297E+03 -5.34460E+02
 -4.98681E+03 -1.49456E+04  1.38825E+03 -2.09138E+04  1.36993E+04 -8.18717E+03  2.10767E+04  4.70209E+03
  1.00650E+04  1.66790E+04 -8.87401E+02  1.55376E+04 -3.08271E+03  1.38650E+04 -1.69324E+04  6.11749E+03
 -8.97998E+03 -1.10631E+04 -6.62760E+02 -1.60981E+04 -3.27420E+03 -9.16594E+03  5.65086E+03 -4.36175E+03
  1.22082E+03 -6.51312E+02 -6.64659E+03  7.46516E+02 -8.54417E+02 -7.51326E+03  3.12888E+02 -7.93921E+03
  8.38621E+03 -9.71915E+03  1.71248E+04 -1.09682E+03  1.71930E+04  3.25366E+03  1.32441E+04  1.42425E+04
 -4.64408E+03  2.47297E+04 -1.88316E+04  1.60833E+04 -2.79674E+04 -1.80014E+03 -2.05002E+04 -8.10921E+03
 -1.32132E+04 -1.78638E+04  1.10990E+03 -1.80773E+04  1.03618E+04 -9.66196E+03  1.09254E+04 -6.52083E+03
  1.13097E+03 -1.47838E+03  2.75704E+03 -7.20990E+03  3.68152E+03 -2.88754E+03  8.33664E+03  4.33643E+03
  1.21029E+04  2.99465E+03 -1.86466E+03  1.04701E+04 -2.54388E+03  1.00462E+04 -1.04047E+04  1.06072E+04
 -1.38581E+04  1.17422E+03 -7.32718E+03 -1.18657E+04 -2.64767E+03 -1.91039E+04  1.10219E+04 -1.38964E+04
  2.08325E+04 -7.93369E+03  2.02879E+04  1.06235E+03  1.15219E+04  1.30571E+04 -2.48078E+03  1.54881E+04
 -3.63524E+03  1.46464E+04 -5.71834E+03  4.03228E+03 -2.13490E+03 -1.91277E+03 -5.58152E+02 -3.09644E+03
 -2.29526E+03 -3.70259E+03 -1.11336E+03  4.59140E+03 -8.47509E+03  4.17512E+02 -9.48530E+03  2.22653E+03
 -8.76123E+03 -1.39411E+04  7.00330E+02 -2.06013E+04  6.36229E+03 -1.22675E+04  2.08476E+04 -6.31900E+03
  1.87713E+04  3.67470E+03  6.35711E+03  9.22710E+03 -4.39589E+03  1.92046E+04 -1.17580E+04  1.07804E+04
 -1.46801E+04 -2.07050E+03 -8.42075E+03 -9.55978E+03  5.29472E+03 -1.27852E+04  5.09992E+02 -1.20427E+04
  5.61904E+03 -8.61435E+03  3.65063E+03  7.05092E+03  2.88874E+03  5.80638E+03  4.18778E+03  4.73157E+03
  1.05971E+04 -1.12163E+03  2.85611E+03 -1.89292E+03  7.97054E+03  4.61402E+03  1.55159E+03  1.29919E+04
 -3.27486E+03  1.44399E+04 -1.24415E+04  7.92045E+03 -8.92351E+03  9.48550E+03 -1.76520E+04 -1.30758E+03
 -2.71234E+03 -1.88911E+04  2.52313E+03 -1.36793E+04  1.59952E+04 -1.20917E+04  5.64194E+03 -1.98708E+03
  5.81412E+03  5.74375E+03  3.91182E+03  1.29954E+04 -3.40262E+03  6.61992E+03 -8.65052E+03 -4.90477E+03
  1.98743E+03  3.36841E+02  1.27679E+03 -6.18316E+03  8.41206E+03 -4.58375E+03  2.72165E+03  2.36811E+03
  8.86547E+03 -5.00482E+03 -3.87512E+03  5.93559E+03  3.82215E+03 -4.26417E+02  8.51620E+03 -3.08883E+03
 -3.71442E+03  6.05894E+02  2.22219E+03  4.86416E+03  2.39434E+03  7.54492E+03  3.67486E+03  9.49329E+03
 -1.24924E+04  6.97045E+03 -1.65562E+04  5.52651E+03 -1.01035E+04 -4.48001E+03 -1.27585E+03 -4.96145E+03
  3.07819E+03 -9.51503E+03  4.02220E+03 -4.30301E+03  2.75414E+03  2.75502E+03 -5.25238E+01  2.86205E+03
 -9.78753E+03  4.52396E+03 -1.76451E+03 -6.42584E+03 -1.17311E+04 -8.72821E+03 -1.01144E+03 -1.57770E+04
  8.06597E+03 -3.97020E+03  2.45026E+03  1.85982E+03  9.83996E+03  2.23395E+03 -4.39643E+03 -8.06708E+02
 -2.93746E+03  6.34312E+02 -3.10499E+03 -2.85567E+03  3.75974E+03 -8.85352E+03  1.30008E+04 -1.60656E+03
  9.31958E+03 -3.12070E+03  1.26969E+04  8.79085E+03  6.34858E+03  2.61037E+03 -1.32195E+03  8.17192E+03
 -6.93538E+03  2.65912E+03 -6.98872E+03  1.47604E+03 -4.22885E+03 -5.36124E+03 -2.41792E+03 -6.14208E+03
  1.14596E+04 -3.76077E+03  5.69883E+03 -3.69867E+02  6.38407E+03  1.00671E+04 -2.64104E+03 -7.04560E+03
  1.52037E+03 -4.80577E+02 -3.45925E+03  5.48331E+03 -1.92108E+03  5.15746E+03 -5.19714E+03  8.15518E+02
 -6.70589E+03  1.02291E+04 -7.62447E+03  5.20517E+03 -2.03168E+02 -1.04304E+03 -1.64074E+04 -4.43352E+03
 -4.90977E+03 -1.25528E+04 -1.68601E+03 -1.92615E+04  1.76252E+03 -1.50303E+04  1.20268E+04 -1.22893E+03
  1.31033E+04  2.13446E+01  3.96526E+02  1.10079E+04  6.65619E+03  1.36150E+04 -2.94703E+03  1.10910E+04
 -2.07372E+03  1.63380E+03 -2.45844E+03  7.41914E+02  2.19877E+03 -1.44234E+03 -3.09966E+03 -2.69828E+03
  1.81783E+03  1.49386E+03  1.11495E+03 -1.26789E+03 -1.20894E+03 -3.43241E+03  2.88751E+03 -2.72570E+03
  3.47005E+03 -2.83927E+03  8.21507E+03  1.17444E+03  8.29143E+03  1.46930E+03  8.40308E+02  1.32419E+04
 -7.72261E+03  1.74129E+04 -8.49025E+03  9.14120E+03 -9.57369E+03 -3.48581E+03 -7.44162E+03 -9.93933E+03
 -3.37599E+03 -1.20792E+04  4.84080E+03 -8.52374E+03  5.21597E+03 -1.87085E+03  9.89639E+03 -4.53875E+02
  1.02419E+02  6.70399E+03 -1.55400E+03  7.06212E+03 -9.62093E+02 -1.11781E+03 -6.83893E+02 -6.14202E+03
  1.72448E+03 -2.97239E+03  5.26931E+03 -6.26841E+03 -4.57861E+03  7.87379E+02 -2.61325E+03  2.86677E+03
 -9.07065E+03  2.77160E+03 -6.86979E+03  1.08190E+03 -3.18302E+03  2.62771E+03 -2.85538E+03 -5.55985E+03
  6.23752E+02  2.21659E+03  1.14172E+04 -1.60103E+03  5.61968E+03  1.17523E+03  2.03753E+03  3.86191E+03
  6.32291E+03  6.38910E+03 -3.43080E+03 -7.22785E+01 -2.76061E+03 -8.76000E+02 -2.34636E+03  1.27380E+03
 -2.46461E+03  3.73851E+03 -1.84113E+03  4.78989E+03 -6.19815E+03  2.46721E+03 -8.60567E+03  5.12050E+02
  8.57209E+02 -8.17943E+03 -3.82458E+03 -6.90751E+03  1.92265E+03 -7.30653E+03  8.86100E+03 -1.93129E+03
  1.78084E+03  9.64338E+02  2.47401E+02  8.66647E+03 -2.10047E+03  5.85337E+03 -1.01047E+04 -4.93745E+03
