 $NMID ID='MM_0lb_SNR50_9hz_g50_42.RAW', FMTDAT='(8E13.5)'
 TRAMP=1., VOLUME=1. $END
  3.07086E+05 -6.17701E+03  3.38072E+05  2.51875E+05  8.36840E+04  3.43225E+05 -1.31863E+05  2.49113E+05
 -1.91143E+05  8.88805E+04 -1.14732E+05 -3.48532E+04  4.98461E+03 -5.49414E+04  5.45172E+04  7.79667E+03
  3.64169E+04  5.15168E+04 -1.48095E+04  7.14789E+04 -5.98353E+04  7.05413E+04 -8.77974E+04  3.43915E+04
 -7.33076E+04 -8.69716E+03 -5.63138E+04 -5.08939E+04 -2.15976E+04 -7.17432E+04  2.87957E+04 -4.30780E+04
  3.40457E+04  5.99490E+03  1.09557E+04  4.83201E+04 -3.25404E+04  4.99724E+04 -7.43632E+04 -6.57526E+03
 -5.63159E+04 -5.75250E+04  9.51918E+02 -8.10680E+04  3.38243E+04 -5.60696E+04  5.21401E+04 -1.71338E+04
  4.81533E+04  1.88743E+04  2.87416E+04  2.19894E+04  1.27044E+04  3.29318E+04  4.77860E+02  2.28445E+04
 -1.76994E+04  1.60393E+04 -1.77530E+04 -3.25504E+03  7.66344E+03 -1.31453E+04  2.18119E+04  6.92263E+03
  4.17194E+03  3.61348E+04 -3.34179E+04  4.13537E+04 -6.46416E+04 -1.59922E+03 -5.70424E+04 -4.62253E+04
 -1.06136E+04 -6.39880E+04  4.47548E+04 -4.60169E+04  6.29534E+04 -3.73326E+03  3.60832E+04  3.13143E+04
 -1.04996E+04  3.97939E+04 -3.53655E+04  1.73186E+04 -3.73303E+04 -6.53012E+03 -1.51973E+04 -1.00972E+04
 -1.32219E+04 -1.67601E+04  9.37375E+02 -1.39852E+04  6.96158E+03 -1.87054E+04  1.45961E+04 -1.05928E+04
  1.18834E+04  1.11945E+04 -1.28753E+04  1.78642E+04 -2.77713E+04 -8.71161E+03 -9.91263E+03 -3.42428E+04
  2.01958E+04 -5.19819E+04  5.23740E+04 -2.38944E+04  5.20539E+04  2.12752E+04  1.20578E+04  4.84170E+04
 -1.92686E+04  3.53054E+04 -2.20654E+04 -3.57869E+03 -1.18447E+04 -3.45874E+04  2.16326E+04 -2.75678E+04
  4.60433E+04 -1.20910E+04  4.23964E+04  2.81206E+04  2.38072E+04  5.95698E+04 -7.01556E+03  5.09845E+04
 -3.85022E+04  3.67747E+04 -4.29132E+04  1.56021E+04 -4.10031E+04 -1.40196E+04 -2.84925E+04 -4.18248E+04
  4.97033E+03 -3.65528E+04  3.16100E+04 -1.14476E+04  3.44706E+04  6.83938E+03  8.61169E+03  2.17910E+04
 -1.46621E+04  1.08446E+04 -1.03206E+04 -1.35619E+04  1.57719E+04 -1.02058E+04  1.43557E+04  3.31763E+03
  1.40204E+04  1.94325E+04  1.83697E+03  2.50428E+04 -2.60580E+04  1.20860E+04 -3.02161E+04  6.40242E+02
 -2.41868E+04 -2.35233E+04 -1.64291E+04 -2.21405E+04 -4.11028E+02 -3.19643E+04  2.15939E+04 -2.50974E+04
  3.31948E+04 -8.80315E+03  3.70413E+04  6.36938E+03  2.95988E+04  2.18935E+04  5.04768E+03  4.79092E+04
 -2.52367E+04  3.12799E+04 -3.15036E+04  7.58749E+03 -2.04810E+04 -1.68185E+04 -2.51763E+03 -1.35501E+04
 -3.01103E+03 -3.35854E+03 -7.15435E+03  1.70988E+04 -9.06577E+03  9.69209E+03 -1.72539E+04 -6.32533E+03
 -1.32094E+04 -2.28697E+04  7.08913E+03 -3.68188E+04  1.65501E+04 -1.95320E+04  2.09168E+04 -3.54860E+03
  9.47962E+03  1.54163E+04 -4.95412E+03  2.14358E+04 -1.84094E+04  4.89839E+03 -1.88431E+04 -1.80904E+03
 -1.54858E+04 -1.87116E+04 -4.17695E+03 -2.45792E+04  1.14285E+04 -2.29610E+04  2.57337E+04 -8.99596E+03
  1.89783E+04  9.71035E+02  2.11368E+04  3.91604E+03  5.24933E+03  9.60508E+03  1.04494E+04 -3.24676E+03
  1.80927E+04  6.80890E+03  2.54987E+04  1.83224E+04  1.40063E+04  4.30866E+04 -4.52760E+03  4.67321E+04
 -2.33940E+04  3.54371E+04 -4.31539E+04  1.71850E+04 -4.57224E+04 -1.16344E+03 -3.75247E+04 -2.31753E+04
 -2.08328E+04 -3.83123E+04  7.21680E+03 -2.83740E+04  2.70328E+04 -1.12183E+04  2.86411E+04  9.31047E+03
  3.95816E+03  2.06782E+04 -1.34962E+04  1.43599E+04 -2.20307E+04  1.74396E+03 -1.52443E+04 -7.98189E+03
  7.74372E+02 -1.94718E+04  1.64896E+04 -1.45725E+04  1.30069E+04 -2.36590E+03 -4.70168E+03  8.43734E+03
 -1.11922E+04  5.90830E+03 -1.32709E+04 -2.75616E+03 -2.96468E+03 -1.66319E+04  1.22714E+04 -2.14535E+04
  2.18788E+04 -1.60442E+04  3.47473E+04  3.99084E+03  2.98015E+04  1.82130E+04  1.08640E+04  2.15847E+04
 -9.55007E+03  3.36942E+04 -1.98151E+04  1.96434E+04 -2.68530E+04  1.16152E+04 -1.69397E+04  5.75255E+02
 -4.43564E+03 -7.79046E+03  3.59187E+03  3.28243E+03 -2.10533E+03  3.23931E+02 -8.43241E+03  9.23857E+03
 -1.46485E+04 -4.82725E+03 -1.83975E+04 -8.34040E+03 -2.92504E+03 -1.21377E+04  7.37890E+03 -1.50559E+04
  1.66924E+04 -1.78218E+03  9.45366E+03  7.71679E+03 -3.07235E+03  9.00843E+03 -6.59979E+03  3.44545E+03
 -6.41671E+03 -1.46111E+04  3.27972E+03 -1.66537E+04  9.44671E+03 -1.12602E+04  2.05173E+04 -5.62548E+03
  1.78325E+04  1.51007E+03  1.99608E+04  1.78209E+04  2.40632E+03  2.41093E+04 -1.03785E+04  1.54349E+04
 -1.47025E+04  1.30514E+03 -5.46127E+03 -4.86682E+03  3.85673E+02 -3.39516E+03  1.23128E+04  7.14139E+02
  8.89885E+03  8.75184E+03  6.33263E+03  1.23899E+04 -9.66142E+03  1.83238E+04 -1.20252E+04 -3.55738E+03
 -9.47029E+03 -8.56064E+03  8.52230E+02 -6.74107E+03  1.16578E+04 -7.64061E+03  1.06685E+04  5.68784E+03
  2.73898E+03  4.78628E+03 -6.60782E+03  1.08916E+04 -1.87847E+04  6.54439E+03 -1.31591E+04 -9.15394E+02
 -4.78134E+03 -2.50091E+04  9.66463E+03 -1.62161E+04  1.56961E+04 -9.55893E+03  2.06692E+04 -1.85063E+03
  8.22142E+03  1.43485E+04  4.16575E+03  1.99549E+04 -1.14714E+04  9.02959E+03 -8.02523E+03  1.43329E+03
 -1.22504E+04 -8.76675E+03  4.81761E+03 -1.70314E+04  3.83753E+03 -6.63509E+03  7.61794E+03 -6.06143E+03
  6.46375E+03 -4.44799E+03 -2.08378E+03  2.22089E+03 -1.99830E+03 -6.42219E+03  1.51574E+03 -9.64719E+03
  9.21674E+03 -4.66084E+03  1.91539E+04  7.25043E+01  1.79721E+04  9.59154E+03  7.74915E+03  2.33809E+04
 -1.02029E+03  3.06786E+04 -1.87768E+04  1.94158E+04 -2.72902E+04  9.92985E+03 -1.94688E+04 -1.17200E+04
 -8.68301E+03 -1.96132E+04  1.03327E+03 -1.41558E+04  9.99792E+03 -7.75371E+03  1.67115E+03 -2.91981E+03
  5.88179E+03 -4.54142E+03  3.57149E+03 -1.15012E+03  3.23723E+03  6.73358E+03  8.89791E+03 -3.35249E+03
  3.40652E+03  4.94779E+03  9.11162E+03  3.92987E+03 -2.10000E+02  1.10139E+04 -9.05359E+03  8.57813E+03
 -1.08246E+04  5.57104E+03 -1.40767E+04 -8.54499E+03 -3.38116E+03 -1.96610E+04  1.41893E+04 -1.55921E+04
  1.73053E+04 -8.50687E+03  1.66272E+04  5.91597E+03  1.45761E+04  1.16783E+04  6.48888E+03  1.44672E+04
 -1.29092E+04  1.26115E+04 -1.68810E+04  1.99453E+03  4.21056E+02  2.92939E+02  1.09521E+03 -1.34294E+03
 -2.49685E+02  5.15370E+03 -7.29255E+03 -7.64652E+02 -5.19288E+03  3.98562E+03 -1.03494E+04 -5.01347E+03
 -9.19766E+03 -6.17589E+03  3.96780E+03 -1.75671E+04  1.33326E+04 -1.73916E+04  1.00433E+04 -8.23051E+03
  1.36475E+04  1.20265E+04  6.85061E+03  1.88847E+04 -3.90159E+02  1.32756E+04 -6.42312E+03  1.53827E+04
 -1.82856E+04 -5.00030E+03 -4.05362E+03 -5.80910E+03 -3.41118E+03 -8.93312E+03  9.46635E+03 -7.95912E+03
  3.02036E+03 -4.40420E+03  2.91787E+03 -5.96839E+02 -3.86888E+02  4.74134E+03  9.33948E+02 -3.53077E+03
 -4.77743E+02  3.85463E+03  9.07006E+03  1.16247E+03 -6.60016E+02  5.94942E+03  2.63981E+03  7.12829E+03
  2.91206E+03  1.72716E+04 -1.01688E+04  9.69603E+03 -1.40900E+04  3.31987E+02 -1.44925E+04 -7.16302E+03
 -9.78015E+03 -1.33974E+04 -5.06454E+03 -1.21061E+04  1.28873E+04 -1.29245E+04  1.13004E+04 -6.78612E+03
  1.23718E+04  3.11422E+03  4.33464E+03  8.62856E+03 -3.90194E+03  9.24280E+02 -5.09213E+03  4.77226E+03
 -2.24544E+03 -9.87196E+03  1.70957E+03 -4.03387E+03  2.85987E+03  1.12766E+03  1.03356E+04  9.74687E+02
  3.46077E+03  5.20855E+03  5.31322E+03  4.46625E+03 -1.48588E+03 -4.31001E+02  5.96921E+02 -1.40836E+03
  2.92027E+03 -8.98596E+02  6.66348E+03  2.23750E+03  5.51187E+02  8.65014E+03  1.62972E+03  9.31990E+03
 -6.91680E+03  1.09098E+03 -1.48492E+03  3.06493E+03 -8.85313E+03  2.04782E+03  2.13016E+03 -7.85876E+03
 -3.04119E+03 -9.03838E+03  4.91438E+03 -3.64626E+03  5.82144E+03  3.28579E+03 -6.52159E+03  5.58080E+03
 -5.90166E+03  1.17098E+04 -6.19762E+03 -8.79124E+03 -1.99458E+03 -1.31127E+04  2.69790E+03 -4.30814E+03
  3.96740E+03 -6.70532E+03  1.18709E+04 -3.10393E+02  3.70447E+03  7.58821E+03  9.02195E+03  1.20545E+03
  2.74104E+03 -2.64429E+03 -3.63999E+03 -8.96574E+03 -1.01618E+03  1.60261E+02  7.38483E+03 -2.42476E+03
  1.02089E+04  6.58977E+02  9.97288E+03  6.68413E+03 -1.13413E+03  7.97373E+03 -3.45578E+03  1.00923E+04
 -1.19774E+04  1.61280E+03 -1.22671E+04 -2.98860E+02 -1.65792E+02 -6.32924E+03  2.09576E+03 -6.01125E+03
  8.19809E+03 -2.85492E+03  6.93001E+03  7.58589E+00  5.83067E+03  3.82301E+03  2.46913E+03  4.74192E+03
 -1.70104E+03  5.79481E+03  1.22485E+02  1.68612E+02  3.42193E+03  7.48204E+02  3.49802E+03 -2.01208E+03
 -8.59521E+03  7.14140E+03 -2.38377E+03  2.35264E+02 -1.41896E+04  5.01973E+03 -9.58749E+03 -3.73573E+03
 -9.18913E+03 -1.83094E+04  2.85287E+03 -1.91175E+04  1.24745E+04 -1.09365E+04  1.33438E+04 -7.86517E+03
  1.21871E+04  1.10201E+04  8.87871E+03  5.51820E+03  1.72061E+02  1.26248E+04 -3.40379E+01  7.43615E+03
 -8.03710E+03 -1.72936E+03 -1.75756E+03 -9.64051E+02 -2.16605E+03  9.45695E+03  1.98650E+02  1.93077E+03
  2.46447E+03 -8.12034E+02 -8.31012E+02 -3.16129E+03  5.67786E+03 -4.79312E+02  3.00517E+03 -9.25201E+02
  2.21306E+02 -7.21373E+03  6.28966E+03  3.64764E+03  5.49861E+03  6.04443E+03  5.21553E+02  1.91956E+04
 -6.40972E+03  1.29485E+04 -1.06739E+04  8.53130E+03 -1.17466E+04 -1.02785E+04 -1.66405E+04 -5.29019E+02
 -2.80607E+03 -1.31889E+04  1.09139E+04 -1.72898E+04  1.51185E+03 -4.20964E+03 -5.93926E+02  4.91036E+03
  3.89961E+03  9.33374E+03 -2.52150E+03 -4.72026E+03 -7.67577E+03  2.09523E+03  7.47721E+02 -8.32976E+03
 -1.75576E+03 -1.27123E+03 -1.22499E+03 -5.59810E+03  2.55051E+03  8.34611E+03  7.57455E+02  3.76289E+03
 -8.42058E+03  5.85632E+03 -1.10019E+04 -1.43796E+02 -9.53871E+03 -8.69219E+03  7.51719E+02 -1.10483E+04
  1.10102E+04 -1.34706E+04  2.92855E+03 -3.08557E+03  8.85888E+03  3.56198E+03  1.27576E+04  7.85419E+03
 -7.15202E+02  5.71043E+03  5.33726E+03  4.71034E+03  3.77924E+03 -1.23117E+03 -6.26958E+03 -5.25396E+03
 -2.01425E+03 -1.32650E+03  4.21284E+03 -2.81746E+03  5.64273E+03 -2.76323E+03 -1.15848E+04 -2.66317E+03
 -5.56510E+03 -3.95962E+03  5.87227E+02 -5.15167E+03  6.56144E+03 -1.17733E+04  3.61684E+03 -2.62407E+03
  5.31694E+03  1.96781E+03  6.56952E+03  4.26514E+03 -3.21059E+03  3.34176E+03 -8.62503E+03  5.05073E+03
