 $NMID ID='MM_0lb_SNR50_14hz_g40_54.RAW', FMTDAT='(8E13.5)'
 TRAMP=1., VOLUME=1. $END
  3.09162E+05  1.14844E+01  3.37147E+05  2.50898E+05  8.79503E+04  3.42484E+05 -1.29374E+05  2.51720E+05
 -1.87557E+05  8.28398E+04 -1.08137E+05 -3.80730E+04 -1.03212E+03 -5.01043E+04  5.17550E+04  2.44723E+03
  3.70319E+04  4.79616E+04 -1.92962E+04  7.35393E+04 -5.91474E+04  6.24918E+04 -8.64303E+04  2.99531E+04
 -7.97374E+04 -9.43510E+03 -5.33220E+04 -5.27826E+04 -1.23127E+04 -6.87200E+04  3.27978E+04 -5.11476E+04
  3.71399E+04  4.96747E+03  1.45374E+04  4.72623E+04 -3.91717E+04  4.36482E+04 -6.53003E+04  1.01667E+03
 -5.10087E+04 -6.34080E+04 -5.47237E+03 -7.77946E+04  3.27808E+04 -5.09337E+04  4.55870E+04 -1.82062E+04
  4.43204E+04  1.02698E+04  3.31052E+04  2.84405E+04  1.50547E+04  2.62512E+04 -3.76153E+03  3.46721E+04
 -1.87486E+04  1.20944E+04 -1.83351E+04 -2.78748E+03  4.33279E+03 -4.68545E+03  2.22236E+04  1.09226E+04
  4.00171E+03  3.54958E+04 -3.03454E+04  3.53975E+04 -6.46376E+04  3.01234E+01 -5.55720E+04 -4.03154E+04
 -1.10453E+04 -5.87727E+04  3.84552E+04 -4.40355E+04  5.70723E+04 -6.09984E+03  3.55957E+04  2.67367E+04
  2.98244E+02  3.61209E+04 -3.10721E+04  1.46893E+04 -2.96203E+04 -5.64505E+03 -1.67913E+04 -1.50123E+04
 -7.99092E+03 -8.66696E+03 -1.22773E+03 -2.09609E+04  8.10798E+03 -2.20696E+04  1.50046E+04 -1.48507E+04
  1.43860E+04 -1.57535E+03 -6.40425E+03  1.43280E+04 -2.26344E+04 -5.23974E+03 -1.15121E+04 -3.15149E+04
  2.35305E+04 -4.07187E+04  4.54063E+04 -1.81118E+04  4.75692E+04  2.07275E+04  1.54706E+04  4.45731E+04
 -1.68080E+04  3.26283E+04 -2.32834E+04 -1.21510E+03 -6.65666E+03 -2.63486E+04  2.19158E+04 -3.06103E+04
  3.76184E+04 -5.25923E+03  3.41699E+04  2.12809E+04  1.65957E+04  4.68063E+04 -1.04092E+04  4.96595E+04
 -2.97242E+04  3.84120E+04 -3.82254E+04  8.87441E+03 -4.21442E+04 -1.77208E+04 -2.22841E+04 -3.66382E+04
  1.24185E+04 -3.62965E+04  3.10930E+04 -1.38748E+04  2.88002E+04  1.03831E+04  5.04468E+03  2.07106E+04
 -1.29210E+04  7.71262E+03 -6.57951E+03 -5.81314E+03  6.88749E+03 -1.21631E+04  1.25801E+04  5.63174E+03
  1.23639E+04  2.01396E+04 -1.08242E+04  2.33151E+04 -2.15609E+04  1.48482E+04 -2.88273E+04 -6.69064E+03
 -1.94671E+04 -1.92939E+04 -9.47478E+03 -2.18604E+04  6.25393E+03 -1.93514E+04  1.90671E+04 -1.52163E+04
  2.20709E+04 -1.20256E+04  2.92276E+04 -2.70863E+02  2.59025E+04  1.82589E+04  6.47694E+03  3.78827E+04
 -2.03011E+04  3.10969E+04 -2.71734E+04  8.09500E+03 -1.87276E+04 -1.39177E+04 -1.04203E+03 -1.72604E+04
  1.70244E+03 -6.05239E+03 -5.54902E+03  7.00016E+03 -1.56603E+04  6.09105E+03 -1.58988E+04 -3.37640E+03
 -1.05903E+04 -2.04229E+04  2.90545E+03 -2.52862E+04  1.56945E+04 -2.15087E+04  2.05415E+04 -4.16097E+02
  9.54711E+03  1.48246E+04 -1.85115E+03  1.79168E+04 -1.34127E+04  1.02818E+04 -1.77510E+04 -7.13393E+03
 -1.09499E+04 -1.57469E+04 -2.29124E+03 -2.31947E+04  8.77765E+03 -2.06915E+04  1.80649E+04 -1.26302E+04
  1.91976E+04  8.53372E+02  1.00340E+04  5.71518E+03  2.91916E+03  3.30368E+03  1.15974E+04 -1.05138E+03
  1.20749E+04  5.89599E+03  1.85005E+04  1.54704E+04  1.34073E+04  3.13837E+04 -9.96603E+03  3.06932E+04
 -1.69931E+04  2.87072E+04 -2.57325E+04  1.38216E+04 -2.75415E+04 -2.61786E+03 -2.88472E+04 -1.95443E+04
 -1.06122E+04 -2.30228E+04  5.81391E+03 -2.52825E+04  1.80200E+04 -1.07745E+04  2.00411E+04  3.08423E+03
  6.44852E+03  1.44335E+04 -8.97237E+03  9.99082E+03 -1.18825E+04  5.78924E+03 -1.21667E+04 -6.74905E+03
  3.51202E+03 -1.24343E+04  1.24270E+04 -1.19070E+04  9.42222E+03 -3.16671E+03  2.56881E+03 -1.23158E+03
 -5.73523E+03  2.43229E+03 -5.65452E+03 -1.00788E+04 -3.79512E+03 -1.25919E+04  9.73072E+03 -1.16117E+04
  1.34520E+04 -3.46190E+03  1.49104E+04  5.17147E+03  1.55654E+04  1.10851E+04  8.65833E+03  2.16879E+04
  1.00156E+02  1.71056E+04 -1.21962E+04  1.70403E+04 -1.51983E+04  3.51740E+03 -1.15649E+04 -3.42258E+02
 -1.96047E+03 -5.68733E+03  3.65399E+02  8.28740E+02 -4.41235E+03  2.79952E+03 -1.86244E+03  2.07586E+03
 -1.13744E+04  7.02404E+02 -1.05047E+04 -9.07870E+03 -5.74267E+03 -1.45497E+04  1.77947E+03 -1.02846E+04
  1.01728E+04  3.37943E+02  2.59870E+03  4.70436E+03  2.81353E+03  2.21022E+03 -8.72680E+03  2.83301E+03
 -7.16311E+03 -1.01017E+04 -9.67453E+02 -7.49790E+03  4.95002E+03 -1.24105E+04  1.44785E+04 -4.17316E+03
  1.62546E+04 -2.12299E+03  8.75884E+03  1.57925E+04  2.05377E+02  7.33310E+03 -8.81250E+03  8.38891E+03
 -5.89369E+03  4.09397E+03 -1.13018E+03 -3.51177E+03  3.52354E+03 -3.32249E+03  8.24468E+03 -7.06333E+02
  6.53903E+03  3.45669E+03  3.77435E+03  1.47464E+04 -8.31877E+03  8.51141E+03 -1.00340E+04  1.77317E+02
 -3.50694E+03 -3.89698E+03 -4.42219E+03 -7.56975E+03  9.11966E+03 -3.58206E+03  5.49731E+03  1.69907E+03
  9.65277E+02  2.32106E+03 -8.57212E+03  4.56123E+03 -8.36852E+03 -9.18264E+02 -1.06617E+04 -1.86825E+03
 -5.13361E+03 -9.69934E+03 -4.56484E+02 -1.00283E+04  9.44978E+03 -8.26308E+03  1.05001E+04  1.11333E+03
  9.24633E+03  1.48568E+04  3.49466E+03  1.16453E+04 -5.24762E+03  6.02615E+03 -4.71197E+03 -1.23063E+02
 -6.75073E+03 -8.27549E+03 -6.78699E+03 -7.11651E+03 -2.30673E+02 -4.67288E+03  2.05364E+03 -1.86881E+02
  5.11466E+03  2.96531E+03 -4.41426E+03 -1.87277E+03  2.19436E+03 -1.60217E+03  1.25310E+03 -3.29682E+03
  5.45954E+03  7.05644E+02  9.20763E+03 -1.82122E+03  7.69080E+03  2.26615E+03  7.56440E+03  1.32383E+04
  2.17909E+02  1.76612E+04 -1.48134E+04  1.01891E+04 -1.82106E+04  1.93059E+01 -1.35056E+04 -4.21144E+03
 -8.46581E+03 -1.18777E+04  8.70614E+02 -5.97434E+03  7.16769E+03 -8.37933E+03  2.73149E+03 -1.98342E+03
  1.59085E+03 -7.58805E+03  4.70598E+03 -6.26255E+02  2.94416E+03 -2.29132E+03  3.67391E+03 -1.81553E+03
  1.24410E+04  1.28390E+03 -6.53778E+02  3.63912E+03 -5.85759E+03  6.50390E+03 -1.17532E+04  5.52869E+03
 -1.71372E+03  3.00978E+03 -5.45636E+03 -6.94752E+03  2.76209E+02 -6.96817E+03  1.01163E+04 -7.95825E+03
  8.11614E+03 -7.73143E+03  1.14677E+04 -2.41117E+03  4.94451E+03  9.67419E+03  2.28612E+03  5.15963E+03
 -3.07847E+02  1.01850E+04 -3.22320E+03  1.53410E+03 -5.20833E+03 -3.41092E+03 -6.95594E+02 -1.09987E+03
  3.22189E+02  9.46080E+02  6.88067E+01  5.25816E+03 -5.42464E+03  1.06506E+02 -7.53811E+03 -1.17078E+03
 -3.11215E+03 -7.88997E+03 -1.57030E+03 -1.03959E+04  7.38169E+03 -5.74570E+03  5.23421E+03 -7.81336E+03
  8.50368E+03  1.00304E+03  3.47301E+03  8.16085E+03 -4.76836E+03  6.50136E+03  1.03500E+03  5.16676E+03
 -3.07610E+03  5.84751E+03 -4.46706E+03 -6.85650E+03 -3.25208E+03 -8.84480E+03 -3.52384E+02 -5.79249E+03
  2.30283E+03  2.22359E+02  4.16555E+03 -1.87993E+03  2.06307E+03 -1.73206E+03 -7.54612E+01  5.25753E+03
  6.53937E+00  3.40226E+03  7.03597E+03 -8.43694E+02  6.31655E+03  5.25485E+03  4.35532E+03 -1.43211E+02
 -2.88877E+03  2.77879E+03 -9.09989E+03  4.66136E+03 -8.08773E+03  2.79001E+03 -6.77730E+03 -3.74744E+01
 -4.04569E+02 -1.99184E+03  4.49623E+02 -9.88794E+03  3.67400E+03 -4.19709E+03  5.97860E+03 -6.89140E+02
  3.06395E+03  3.49894E+02 -9.87203E+02  1.12072E+04 -3.01919E+03  3.86199E+03 -3.01014E+03 -3.34163E+02
 -3.45371E+03 -3.32478E+02  4.59743E+03 -2.89526E+03  5.72362E+03  1.86888E+03  3.51312E+02  2.55448E+02
  4.57954E+03  5.87151E+02 -2.24791E+03 -4.73422E+01 -1.34170E+01 -9.20045E+02  3.77285E+03 -4.09096E+03
  4.96217E+03 -1.02952E+03  2.52541E+03  2.44911E+03  1.36447E+03  6.21910E+03  1.56606E+03  8.25020E+03
 -6.14000E+03  2.01801E+03 -5.27143E+03  4.11188E+03 -2.83104E+03 -3.01027E+02  1.64083E+03 -2.76142E+03
 -1.02239E+03 -3.10869E+03  1.94987E+03 -4.00517E+03  2.77926E+03  1.54418E+03  1.37738E+01 -1.36661E+03
  8.52940E+02  4.47872E+02 -7.81653E+02  1.05091E+03 -5.89544E+03 -5.20664E+03 -7.31629E+02 -1.75393E+02
 -1.39177E+03  7.79197E+03  1.36211E+03 -4.07900E+03  1.23011E+03 -3.59023E+01  4.99186E+03  7.52418E+02
  2.27296E+03 -3.18530E+03  9.77745E+02  1.37008E+03 -8.51265E+02 -8.82381E+02 -2.62308E+02 -8.35673E+03
 -1.71345E+03  7.94279E+02  6.16889E+03  3.63514E+03  3.06678E+03  5.09102E+03 -6.16813E+03  4.57627E+03
 -1.88625E+03  7.28275E+03 -8.50442E+03  3.56113E+03 -2.48566E+03  3.46387E+02 -2.52359E+03  2.84985E+02
  1.81559E+03 -5.06054E+03 -2.94313E+03  2.30026E+03 -2.96351E+03  4.41101E+03 -2.46447E+02 -3.66950E+02
 -8.94606E+01 -1.85745E+03 -4.39143E+03 -8.37833E+02  8.72561E+02  2.02906E+03 -1.50305E+03  1.45340E+03
  2.95781E+03 -1.73074E+03 -2.49811E+03 -3.45190E+03 -7.39788E+03  2.71308E+03 -3.66465E+03 -7.90804E+03
 -1.75817E+03 -9.40945E+02 -1.31602E+03 -8.98947E+03 -5.21944E+01 -8.46944E+03  9.94228E+03 -5.61158E+03
  7.13446E+03  1.48685E+03  1.40518E+03  3.33315E+03 -1.88524E+03  4.41242E+03 -1.67202E+03  3.34700E+03
 -5.45358E+02  3.08626E+03  6.96064E+02  1.29909E+03  1.68191E+03  1.70688E+02  1.11373E+03  2.06818E+03
 -3.40235E+03 -1.98583E+03 -3.94656E+03  1.06207E+03 -8.21253E+02 -3.52702E+03 -1.65636E+03  6.76624E+02
 -2.54098E+03  1.99594E+02  6.61800E+03 -2.89450E+03 -8.84893E+02  4.10296E+03  1.26135E+03  6.96746E+02
 -1.68867E+03  1.23278E+04 -7.91818E+03  4.26866E+03 -3.03795E+03 -3.54491E+03 -2.07460E+03 -8.81028E+03
 -7.80174E+02 -2.91231E+03  3.29122E+03 -5.26593E+03  1.90439E+03 -6.42206E+01  4.24235E+03 -4.82250E+02
  6.07672E+02  4.01950E+03 -2.09126E+03  1.82198E+03 -1.47155E+03 -3.03268E+03 -4.41987E+03 -1.90770E+03
 -2.76060E+03 -7.16343E+01  2.98418E+03 -4.50520E+03 -3.89341E+03  3.36161E+03  1.22586E+03 -9.69482E+02
  9.17331E+02  9.59665E+01  3.88016E+03 -1.81509E+03 -3.49252E+02 -3.34162E+03 -8.67059E+02 -1.94745E+03
  9.19904E+02 -3.41353E+03  4.45631E+03 -2.11184E+03  2.85455E+03  8.51104E+02 -1.86731E+02 -1.01424E+03
  4.04130E+03 -5.33148E+03  2.37104E+03 -2.76925E+03 -2.28561E+03  6.35747E+03 -6.37993E+02  2.15973E+01
 -4.02811E+03  7.19992E+02 -3.35391E+02  6.85719E+02 -1.78809E+03  1.68716E+03 -2.53858E+03 -1.27331E+03
 -3.93609E+03  8.05002E+02 -5.28137E+02 -8.38238E+02 -3.93163E+03 -4.89510E+03  3.11052E+03  2.54168E+03
  1.61021E+03  2.45011E+03 -5.76146E+02  2.75254E+03 -2.91327E+03  3.88211E+03 -4.53032E+02  1.17285E+02
