 $NMID ID='MM_0lb_SNR50_17hz_g40_4.RAW', FMTDAT='(8E13.5)'
 TRAMP=1., VOLUME=1. $END
  3.11164E+05  9.17924E+02  3.40837E+05  2.51418E+05  8.54381E+04  3.38515E+05 -1.33254E+05  2.50366E+05
 -1.86985E+05  8.53070E+04 -1.09591E+05 -3.22988E+04  1.47743E+03 -4.88336E+04  5.71582E+04 -2.01236E+03
  3.44395E+04  5.55910E+04 -1.54446E+04  7.38448E+04 -5.89395E+04  6.41698E+04 -8.15404E+04  3.11934E+04
 -8.12283E+04 -9.06443E+03 -5.76015E+04 -5.02126E+04 -1.53913E+04 -6.94525E+04  2.93713E+04 -4.44113E+04
  4.10445E+04  4.07520E+03  1.77299E+04  4.48639E+04 -3.51252E+04  4.69307E+04 -6.41642E+04 -3.60604E+03
 -5.08010E+04 -5.47813E+04 -4.65681E+03 -7.34153E+04  2.98203E+04 -4.57303E+04  4.63603E+04 -1.80197E+04
  4.22682E+04  1.25833E+04  2.97485E+04  2.57328E+04  1.97910E+04  2.98001E+04 -5.21857E+03  2.55974E+04
 -2.12992E+04  1.07461E+04 -1.88797E+04 -4.96131E+03  5.00379E+02 -7.30189E+03  1.89915E+04  1.09499E+04
  9.68244E+03  3.17995E+04 -3.16086E+04  3.21456E+04 -6.10434E+04 -1.20398E+02 -5.34837E+04 -4.00933E+04
 -1.17582E+04 -6.17571E+04  3.91925E+04 -4.17519E+04  5.74609E+04 -2.26002E+03  3.34427E+04  3.15943E+04
 -8.23383E+03  3.46264E+04 -2.98588E+04  1.52853E+04 -3.07503E+04 -6.13274E+03 -2.05080E+04 -9.28912E+03
 -3.58986E+03 -1.49840E+04 -1.62116E+03 -1.42798E+04  6.40318E+03 -2.12558E+04  1.57787E+04 -1.08008E+04
  1.11296E+04  5.02461E+03 -4.06928E+03  1.19357E+04 -2.06104E+04 -1.69405E+02 -9.45883E+03 -2.90546E+04
  1.77637E+04 -3.78252E+04  5.17913E+04 -2.08834E+04  3.93620E+04  2.00557E+04  1.16806E+04  4.68796E+04
 -1.38194E+04  3.15853E+04 -2.26280E+04  4.12116E+03 -5.42295E+03 -2.71967E+04  2.40456E+04 -2.82883E+04
  4.28027E+04 -3.98247E+03  3.43937E+04  2.38061E+04  1.38971E+04  4.23988E+04 -7.92132E+03  4.40133E+04
 -3.34340E+04  3.25619E+04 -3.93336E+04  8.22558E+03 -3.91035E+04 -1.93741E+04 -2.16310E+04 -3.33816E+04
  2.75243E+03 -3.44572E+04  3.06930E+04 -9.99244E+03  2.35029E+04  1.41553E+04  8.74990E+02  1.35752E+04
 -1.14834E+04  4.44454E+03 -1.09062E+04 -8.05531E+03  5.98743E+03 -9.99584E+03  1.83221E+04  2.88332E+03
  1.24997E+04  2.11367E+04 -3.48742E+03  2.45877E+04 -2.02173E+04  9.30856E+03 -2.23543E+04 -4.30494E+03
 -1.84958E+04 -1.60716E+04 -5.02951E+03 -1.63504E+04  7.14325E+02 -1.80511E+04  1.42221E+04 -1.50000E+04
  2.42587E+04 -1.11119E+04  2.92993E+04  3.30693E+03  2.37350E+04  1.80893E+04  6.73962E+03  3.33076E+04
 -1.85944E+04  3.03842E+04 -2.53613E+04  9.56011E+03 -2.24018E+04 -9.59803E+03 -6.37851E+03 -1.59568E+04
  1.14789E+03 -7.97995E+03 -2.90919E+03  8.10226E+03 -1.78979E+04  6.86807E+03 -1.38412E+04 -2.83226E+03
 -1.40548E+04 -1.39607E+04  6.10328E+03 -2.10356E+04  8.40503E+03 -1.59771E+04  1.44261E+04 -2.43931E+03
  9.71423E+03  7.42681E+03  4.03112E+01  1.96727E+04 -8.58186E+03  1.02879E+04 -1.47894E+04 -3.31492E+03
 -1.11922E+04 -1.21142E+04 -2.72809E+03 -1.72229E+04  8.81389E+03 -1.95525E+04  1.95829E+04 -6.65766E+03
  1.53233E+04  2.75420E+02  1.32945E+04  8.09357E+03  2.13434E+03 -2.80453E+02  9.01183E+03 -4.55837E+03
  1.78546E+04  1.18646E+03  1.27417E+04  1.48833E+04  1.26905E+04  2.80820E+04  3.16224E+02  2.73381E+04
 -1.23268E+04  2.70258E+04 -2.66333E+04  8.63617E+03 -2.66705E+04  5.42968E+02 -2.14283E+04 -1.53672E+04
 -1.21214E+04 -2.78329E+04  4.15116E+03 -1.82292E+04  1.79314E+04 -1.59651E+04  1.72442E+04  2.05483E+02
  8.25379E+03  1.14266E+04 -7.28189E+03  1.32681E+04 -1.30607E+04  8.91554E+03 -1.05522E+04 -9.59933E+03
 -2.53703E+03 -1.27189E+04  7.17315E+03 -1.04090E+04  8.15273E+03 -9.37693E+02  9.27197E+02  1.65080E+03
 -2.60964E+03  3.28873E+03  1.02690E+02 -5.15234E+03 -1.63230E+03 -1.17754E+04  6.76265E+03 -1.09100E+04
  1.31007E+04 -2.47002E+03  1.44738E+04  5.19715E+03  9.44485E+03  8.21892E+03  8.29774E+02  1.60476E+04
 -2.23433E+03  1.99098E+04 -8.01827E+03  7.16738E+03 -1.28209E+04  3.91229E+03 -9.25258E+03 -1.15733E+03
 -3.18386E+03 -3.95523E+03  1.11709E+03  1.96688E+03 -2.48885E+03  2.97196E+03 -3.13983E+03  1.66928E+03
 -6.98914E+03  2.27138E+03 -8.52495E+03 -6.47119E+03 -3.32495E+03 -1.08145E+04 -2.08721E+03 -7.86412E+03
  3.74947E+03 -8.97597E+03  1.10043E+04  1.96357E+03  2.66175E+03  3.88508E+03 -4.47436E+01  2.76187E+01
 -6.33259E+03 -6.69319E+03 -3.98486E+03 -7.08898E+03  1.02758E+04 -7.69054E+03  9.42093E+03 -3.68568E+03
  1.43663E+04  1.44086E+03  7.43680E+03  5.19667E+03  3.34332E+03  1.03904E+04 -4.12765E+03  5.55990E+03
 -8.13274E+03  5.96284E+03  2.00267E+03  5.19742E+03  3.24519E+03 -4.44057E+03  2.95185E+03 -5.11275E+03
  3.73538E+03  2.00867E+03  9.10036E+02  7.31309E+03 -7.53700E+03  4.44312E+03 -8.38559E+03 -3.08031E+02
 -9.86970E+03 -2.95680E+03  2.62067E+03 -6.34187E+03  2.71769E+03 -3.96849E+03  7.80853E+03  2.01124E+03
 -3.98487E+03  3.03203E+03 -8.68150E+03  6.20838E+03 -2.13219E+03  3.40109E+03 -5.88915E+03 -2.02455E+03
 -7.30843E+03 -8.64405E+03  1.69637E+03 -7.01662E+03  5.94530E+03 -2.75389E+03  1.25817E+04  8.02594E+01
  4.51954E+03  6.35843E+03  2.02386E+03  6.51546E+03 -6.32999E+03 -2.03349E+03 -5.12254E+03  1.14082E+03
 -6.09744E+03 -6.58069E+03 -7.92070E+02 -7.85756E+03  3.33004E+03 -5.89629E+03  3.85150E+03 -7.00873E+03
  1.84843E+03 -1.88635E+03  6.46036E+03 -4.01194E+03 -2.76913E+03 -1.27367E+03  1.15496E+03  2.21346E+01
  5.20595E+03  2.68688E+03  5.20342E+03 -7.37562E+01  7.12716E+03  6.00932E+03  4.92747E+03  7.53191E+03
 -3.00978E+03  9.56500E+03 -7.52729E+03  7.96415E+03 -1.01883E+04  1.23203E+03 -1.11693E+04 -1.88810E+03
 -7.26623E+03 -9.41777E+03 -9.96979E+02 -7.04861E+03  2.12769E+03 -1.99534E+02  4.25711E+03  1.02087E+03
 -1.26094E+03 -1.40716E+02  3.60807E+03 -1.79555E+03  1.41716E+03 -6.01638E+03 -2.84137E+02 -1.58637E+02
  3.89046E+03 -1.74911E+03 -3.32722E+03  3.23211E+03 -6.36298E+02  1.94028E+03 -4.46915E+03  3.05976E+03
 -7.52281E+03 -2.35606E+03 -5.12501E+03 -4.83645E+03 -2.28524E+03 -4.47403E+03  2.42296E+03 -5.70570E+03
  6.49544E+03 -2.12217E+03  1.09289E+04 -4.44773E+03  5.58419E+03  7.93570E+03 -6.43833E+02  6.84403E+03
 -3.71990E+03  5.39245E+03 -2.85439E+03 -9.88022E+02 -5.82153E+03 -2.65371E+03 -1.11959E+03 -2.61512E+03
  1.63435E+03 -3.73194E+03 -1.00528E+03  2.20624E+03 -3.09311E+03 -1.61114E+02 -5.13235E+03 -1.42488E+03
 -4.45285E+03 -5.27801E+03  2.08425E+03 -1.04902E+04  2.12032E+03 -8.43016E+03  2.55445E+03 -2.55544E+03
  1.93684E+03  2.59472E+03 -6.07710E+02  5.24639E+03 -3.61279E+03  5.16112E+03 -2.06256E+03  3.42467E+03
 -1.70391E+03 -1.13565E+03 -5.59292E+03 -1.20661E+03 -1.15635E+02 -1.02100E+04  2.17420E+02 -1.16796E+03
  1.76912E+03  8.52882E+02  3.85930E+03  1.27239E+03  1.87156E+03  2.03478E+03 -2.71065E+02 -3.32449E+03
  5.69493E+03  2.64863E+03 -1.00561E+03  6.70858E+02  3.41506E+02  3.75337E+03 -2.32753E+03  3.57427E+02
 -1.55646E+03  3.03802E+03 -7.36914E+03  6.38534E+03 -4.48906E+03 -6.43405E+02  1.38690E+02 -1.19755E+02
 -1.39649E+03 -3.37731E+03  3.79120E+01 -4.36060E+03  7.54704E+03  7.73929E+01  5.32658E+03  2.12075E+03
  3.64454E+03  2.19441E+03 -1.45606E+03  3.72736E+03 -7.90591E+02  1.03859E+03  1.12663E+03 -6.91113E+02
  3.08649E+03 -1.89522E+03 -1.46595E+03 -7.20662E+03 -2.66726E+03 -1.02715E+03 -2.39946E+03 -9.79647E+02
  1.44115E+02 -4.20646E+03  6.78385E+03 -2.99876E+03 -4.52769E+02  1.95955E+03 -3.28000E+03  1.50559E+03
 -1.24526E+03 -2.70091E+03 -9.84626E+01  5.32965E+03 -3.45137E+02  4.95431E+03 -1.82313E+02  3.35112E+03
 -5.48888E+03  4.02131E+03 -6.30586E+03 -1.75498E+02 -2.71772E+03  2.68797E+02  2.18218E+03 -4.48084E+03
  2.04349E+03 -2.41733E+03  2.73480E+03  1.34238E+03  3.29514E+03 -1.93147E+03  1.05477E+02  1.83396E+03
 -1.49448E+03 -1.70370E+03  1.87722E+03  8.82196E+02  5.17206E+02  1.29661E+03  5.57046E+02 -4.07413E+03
  4.53966E+02 -2.01984E+03 -2.82554E+00  2.63251E+03  7.97561E+01  5.39363E+02 -5.16761E+03  1.02834E+03
 -1.48804E+03  1.47780E+02 -6.55368E+03 -1.73556E+03 -2.47131E+02  9.69170E+02  1.10765E+03  1.15901E+00
  2.06240E+02  2.41265E+03  1.33928E+03 -2.44957E+03  1.49515E+03  2.01934E+02 -2.60741E+02  2.89201E+03
 -1.02129E+03  4.30942E+02 -3.65335E+03 -5.57153E+03 -2.40728E+03  1.68452E+02  2.09007E+03  4.19093E+02
 -6.81304E+02 -1.64473E+03 -2.21695E+03  2.18915E+03  4.99499E+03  1.45592E+03  5.08021E+03 -1.23613E+02
 -1.17033E+03  1.00966E+03 -1.76914E+03  1.56657E+02  1.70914E+03 -1.84172E+03  8.39695E+02  2.89135E+03
 -4.21462E+03  1.45819E+03 -5.36023E+03  4.29459E+03 -4.59092E+03  3.95600E+02 -1.97728E+03  5.39688E+02
 -2.35144E+03 -4.23799E+03 -1.52524E+03 -4.22409E+03  2.76807E+03 -5.02236E+03  2.65991E+02  1.24965E+03
  8.25762E+03  3.07272E+03  9.52167E+02  9.62860E+02 -1.49008E+03  2.33983E+03  1.89860E+03 -1.04999E+03
  1.81189E+03  1.76362E+03  1.31809E+03  1.79260E+03 -6.57916E+02  2.87647E+03  2.52299E+02 -1.36774E+03
  2.85513E+03 -2.27460E+03 -2.91658E+02 -1.56246E+03 -3.22824E+02  4.27826E+03 -1.73852E+03 -1.79406E+03
 -2.86445E+02 -1.11749E+03  4.94797E+02 -2.95410E+03 -2.37519E+03  8.25870E+02 -1.65840E+03 -1.33405E+03
 -2.00833E+03  7.62549E+03 -3.81761E+03  6.17761E+03 -2.90769E+03  1.96037E+03 -1.86903E+03  1.30058E+03
  3.53203E+01  8.13908E+02 -2.05090E+03  5.70516E+02 -1.48420E+03  6.66274E+02  8.67844E+02 -2.84851E+03
  5.45767E+03  4.42675E+03 -1.06850E+03  2.11978E+03 -3.34715E+03 -1.68401E+03  2.19661E+03 -8.03779E+02
  3.64492E+03  3.19401E+03 -6.93464E-03  2.58184E+03  2.05176E+03  3.84930E+03 -1.34300E+03 -5.28008E+03
 -1.45872E+03  1.74516E+03 -2.47496E+03  5.67473E+02  2.88556E+03 -3.54046E+03 -5.41494E+03 -3.78716E+03
  3.65481E+03 -4.52283E+03  8.05911E+01 -1.95612E+03  2.23346E+03 -2.30593E+03  1.99534E+03  2.30524E+03
 -3.85256E+01  3.76679E+02  2.66109E+02  8.37252E+02 -2.01736E+03 -1.01375E+03 -5.67214E+01  1.24061E+03
 -2.53689E+03  5.67202E+02 -1.48065E+03 -1.83659E+03 -2.96057E+03  2.54316E+03  3.41235E+01  1.33700E+02
 -2.00066E+02  4.24303E+03 -2.97205E+02 -1.26420E+03  2.66764E+03 -2.05069E+03  3.65777E+03 -5.46737E+02
  2.50221E+03 -3.39277E+03 -2.22638E+03  3.61837E+03  1.21000E+03  1.93099E+02  3.40924E+03 -2.63082E+02
