 $NMID ID='MM_0lb_SNR50_18hz_g60_40.RAW', FMTDAT='(8E13.5)'
 TRAMP=1., VOLUME=1. $END
  3.10555E+05  1.26581E+03  3.36032E+05  2.49513E+05  8.35162E+04  3.35658E+05 -1.32639E+05  2.48839E+05
 -1.86358E+05  8.42504E+04 -1.11749E+05 -3.39783E+04  3.97899E+03 -5.04972E+04  5.08161E+04 -2.66663E+03
  3.30966E+04  5.43186E+04 -1.30571E+04  7.80291E+04 -6.26712E+04  6.41928E+04 -8.22447E+04  2.99477E+04
 -7.88422E+04 -1.10545E+04 -6.05102E+04 -5.19869E+04 -1.28338E+04 -7.19711E+04  2.45843E+04 -4.40341E+04
  3.95985E+04  3.86053E+03  1.08693E+04  4.50305E+04 -3.35982E+04  4.91037E+04 -6.91795E+04 -6.40671E+02
 -5.07383E+04 -5.36089E+04 -9.98899E+03 -7.76006E+04  3.32124E+04 -5.77157E+04  4.76723E+04 -1.63963E+04
  3.95052E+04  8.67363E+03  3.29372E+04  2.61974E+04  1.88421E+04  3.09879E+04 -7.96804E+03  2.82118E+04
 -2.19889E+04  1.36049E+04 -1.69181E+04 -1.01886E+04  4.36540E+03 -1.04896E+04  1.95766E+04  1.29480E+04
  7.62638E+03  3.56803E+04 -3.11317E+04  3.80282E+04 -6.10400E+04 -2.14455E+03 -5.93874E+04 -4.55139E+04
 -1.44312E+04 -6.14556E+04  3.80729E+04 -4.71912E+04  5.62936E+04 -4.32625E+03  3.76598E+04  2.94010E+04
 -5.34635E+03  3.70406E+04 -3.34580E+04  1.06747E+04 -3.03461E+04 -4.32384E+03 -1.30314E+04 -9.41474E+03
 -9.71959E+03 -1.27042E+04 -4.11282E+03 -1.80292E+04  7.37717E+03 -2.33042E+04  1.34698E+04 -1.54753E+04
  1.20720E+04  2.35829E+03 -8.10700E+03  1.49588E+04 -1.67595E+04 -4.14022E+03 -1.13451E+04 -3.24046E+04
  2.29188E+04 -3.96411E+04  4.51464E+04 -1.94828E+04  4.51834E+04  1.95196E+04  1.52111E+04  4.36905E+04
 -1.71158E+04  3.25440E+04 -2.14483E+04  1.34594E+03 -8.81650E+03 -2.63607E+04  2.41256E+04 -2.86975E+04
  3.94779E+04 -1.10395E+04  3.48065E+04  2.32356E+04  1.59174E+04  4.54002E+04 -6.88532E+03  4.95885E+04
 -3.17703E+04  3.31238E+04 -3.87420E+04  5.16678E+03 -4.43024E+04 -1.52840E+04 -1.98516E+04 -3.46419E+04
  8.03197E+03 -3.71345E+04  3.07525E+04 -1.32273E+04  3.04221E+04  1.02871E+04  3.20127E+03  1.87346E+04
 -1.14818E+04  7.74117E+03 -1.05079E+04 -2.89901E+03  4.82258E+03 -1.39276E+04  1.93621E+04  1.02298E+04
  1.04081E+04  2.37876E+04 -8.75573E+03  2.45926E+04 -2.54941E+04  9.38841E+03 -2.79982E+04 -5.20809E+03
 -1.87568E+04 -1.57765E+04 -7.94521E+03 -1.54689E+04  3.55640E+03 -1.65901E+04  1.30490E+04 -1.32834E+04
  1.97504E+04 -1.00945E+04  3.05080E+04  3.93047E+03  2.27632E+04  1.67998E+04  6.91754E+03  3.85491E+04
 -1.37040E+04  3.09744E+04 -3.05920E+04  1.23418E+04 -2.17253E+04 -1.14041E+04 -3.91085E+03 -1.52826E+04
 -2.99305E+02  6.90669E+02 -1.63775E+03  5.41239E+03 -1.94873E+04  3.22666E+03 -1.38100E+04 -6.74566E+03
 -6.49547E+03 -1.79129E+04  4.08315E+03 -2.09230E+04  1.23211E+04 -1.77811E+04  1.49167E+04 -1.80382E+03
  9.43584E+03  1.70696E+04  3.39518E+03  1.61518E+04 -1.45541E+04  1.02038E+04 -2.04163E+04 -4.26066E+03
 -1.37989E+04 -1.73086E+04  1.88578E+03 -1.91541E+04  1.27086E+04 -1.64686E+04  1.72500E+04 -4.97875E+03
  1.34514E+04  3.93718E+03  1.14110E+04  7.40989E+03  2.13594E+03  2.04597E+03  4.25450E+03 -4.06154E+03
  1.57223E+04  2.61560E+03  1.69144E+04  1.16681E+04  8.63184E+03  2.80247E+04  3.61159E+03  2.64903E+04
 -1.70592E+04  2.27648E+04 -2.89326E+04  8.49424E+03 -3.13410E+04 -6.89548E+03 -2.51438E+04 -1.37714E+04
 -1.25025E+04 -2.58432E+04  8.04751E+03 -2.25216E+04  1.87523E+04 -9.10189E+03  1.14777E+04  2.76463E+03
  4.41000E+03  1.54389E+04 -1.10861E+04  1.48254E+04 -1.28110E+04  4.10920E+03 -1.15582E+04 -7.56164E+03
  2.94543E+03 -1.99555E+04  3.71428E+03 -9.81199E+03  3.41764E+03 -1.25521E+03  1.46436E+03  1.33710E+03
 -4.35970E+03  3.50194E+03 -8.21887E+03 -3.27416E+03 -1.13693E+03 -1.06590E+04  6.30960E+03 -9.85997E+03
  1.16256E+04 -4.63260E+03  1.48508E+04  6.13619E+03  8.93214E+03  1.19419E+04  7.27425E+03  1.52738E+04
  1.64241E+03  1.49470E+04 -8.25619E+03  1.51914E+04 -1.39462E+04  7.32897E+03 -9.78792E+03 -4.35921E+03
  1.27516E+03 -3.49075E+03 -2.77934E+03  3.69339E+03 -3.10945E+03  5.84862E+03 -5.48823E+03  5.60924E+03
 -1.00291E+04  1.32253E+02 -7.02039E+03 -7.09141E+03 -4.57990E+02 -1.28613E+04  5.41543E+03 -9.75179E+03
  9.08157E+03 -2.15509E+03  6.70870E+02  3.47060E+03 -2.41465E+03  4.70006E+03 -6.87281E+03  4.37207E+02
 -5.58604E+03 -8.96315E+03  5.42337E+03 -8.13258E+03  5.16300E+03 -3.81192E+03  1.25399E+04 -6.48615E+03
  1.26830E+04  6.70898E+02  8.65552E+03  5.00614E+03  2.65935E+03  9.97978E+03 -8.86008E+03  9.41062E+03
 -9.78928E+03  1.40306E+03 -3.71621E+03  2.20063E+03  5.22491E+03 -4.14517E+03  4.86232E+03  1.98775E+02
  1.89926E+03  8.30271E+02 -1.05666E+03  6.70862E+03 -6.07291E+03  1.17191E+04 -5.99496E+03 -4.97479E+02
 -3.44868E+03 -2.56246E+03 -2.36879E+03 -8.16424E+03  5.42163E+03 -2.86488E+03  4.01114E+03  2.01160E+03
 -2.46191E+03  3.85911E+03 -3.35124E+03  6.91012E+03 -8.09462E+03  1.34685E+03 -4.49645E+03 -1.64387E+03
 -6.17664E+02 -6.09807E+03  2.90894E+03 -1.08069E+04  1.02934E+04 -3.51196E+03  8.30523E+03 -5.70914E+03
  7.15898E+03  6.90067E+03 -5.07222E+03  6.68681E+03 -1.73182E+03  7.63663E+03 -7.31274E+03  1.72306E+03
 -7.72323E+03 -8.58578E+03 -4.14264E+03 -4.22480E+03  9.47271E+02 -6.30019E+03  3.45438E+03 -1.18735E+03
 -8.47165E+02 -5.17100E+02  1.22727E+03 -1.51281E+03 -1.60563E+03  2.39184E+03  3.70853E+03 -1.68462E+03
  3.97857E+03 -6.11278E+03  7.39898E+03  9.43860E+01  8.53187E+03  5.40972E+03  4.71517E+03  1.19354E+04
  2.99491E+03  1.02865E+04 -6.40241E+03  7.25438E+03 -7.38310E+03  3.98880E+03 -1.27922E+04 -2.57498E+03
 -3.87176E+03 -8.64512E+03 -3.06615E+03 -6.45733E+03 -8.28662E+01 -5.08785E+03  1.67486E+03  3.83289E+03
  2.94173E+03  2.53530E+02  1.72528E+03 -1.82936E+03  5.24371E+03  1.76804E+03  1.90352E+03 -2.93958E+03
  5.19471E+03  5.09511E+03  5.38313E+03  3.14559E+03 -4.41929E+03  7.75301E+03 -5.62989E+03  4.77016E+03
 -4.94200E+03 -3.61098E+03  2.13834E+03 -4.19427E+03  1.59240E+03 -7.96098E+03  5.67541E+03 -8.24062E+03
  7.07205E+03 -5.87634E+02  8.43693E+03  1.91581E+03  7.45547E+03  6.77665E+03  3.82830E+03  5.26393E+03
 -1.32956E+03  7.36019E+03 -8.40231E+02  3.08620E+02 -5.87679E+02 -2.54126E+02  8.93016E+02 -1.45552E+03
 -8.17335E+02  8.90782E+02 -1.62919E+03  6.91335E+03  2.23917E+03  2.52613E+03 -4.95440E+03  1.83974E+02
 -5.68030E+03 -4.63397E+03  3.15425E+03 -7.28390E+03  3.92393E+03 -4.55360E+03  4.79980E+03 -1.18638E+03
  3.40305E+03 -5.32444E+02  5.29309E+02  5.65248E+03  4.69659E+03  5.35451E+03 -4.24648E+02 -4.50452E+03
 -3.53622E+03  2.69467E+03 -7.09897E+03 -7.58882E+03  1.92013E+03 -4.98663E+03  1.28453E+02 -2.33805E+03
  6.88252E+03  4.16410E+02  2.07296E+03  1.92534E+03  7.33055E+02  1.88804E+03  4.12777E+03 -1.63996E+03
  2.67346E+03  7.04788E+02  4.60575E+03  4.97583E+03  6.34064E+01  2.42276E+03 -1.99256E+02  4.31046E+03
  3.39119E+03 -1.78352E+03 -4.41216E+03  8.51300E+03 -6.73450E+02  2.27846E+03 -3.96474E+02 -2.07235E+03
 -3.18917E+03 -6.92400E+03  2.16433E+03 -6.08112E+03  2.17936E+03 -4.32836E+03  4.87575E+03 -2.19128E+03
  6.26541E+03  2.50920E+03  1.13380E+03  2.81358E+03  1.98191E+02  5.23736E+03 -3.57692E+03 -3.92493E+03
 -3.71586E+03 -1.76183E+01  4.07789E+03  6.30006E+02  7.63519E+03  2.96992E+02 -7.86426E+02  1.04961E+03
 -1.43510E+03  3.03141E+03 -3.96019E+03  3.57848E+03 -3.71223E+03  6.51956E+02  3.67720E+03 -1.12800E+03
  2.86823E+03  8.90738E+02  5.62935E+03  1.78910E+03 -1.19567E+03  4.33707E+03 -4.46707E+03 -2.28591E+03
 -4.16829E+03  7.35613E+02 -2.67566E+03 -1.18518E+03 -9.80529E+02 -2.78237E+03  1.75325E+03  2.78923E+00
 -8.24144E+02 -1.45342E+03  2.28630E+03 -5.95726E+02  4.14133E+02  4.53195E+03  6.67676E+02  1.26961E+03
 -4.95946E+03  1.42866E+03 -3.16707E+03  6.15217E+02 -4.30194E+03  2.01324E+03  1.39676E+03  1.41089E+03
  1.13392E+03 -1.00287E+03 -3.63772E+03 -1.41341E+03  5.83911E+03 -1.39672E+03 -1.45600E+03  4.35919E+03
 -1.50698E+03  8.00319E+03 -8.40040E+02  1.45731E+03 -6.24812E+02 -1.90842E+03  4.54090E+03 -6.36445E+02
 -1.98229E+03  5.90121E+02  6.47087E+03  1.92259E+03  4.01952E+03  1.33811E+03 -4.17644E+03 -1.89956E+03
  1.99666E+03 -4.22864E+03 -3.22538E+01 -3.55530E+03 -7.37084E+02 -3.71964E+03  2.15182E+03 -2.09357E+03
  1.03978E+03 -4.29364E+03  2.68966E+03 -4.68903E+03 -3.97706E+03  2.21921E+03  3.05552E+03  2.48019E+03
 -2.08499E+03 -3.12313E+02 -4.98551E+03  7.21728E+02  2.02246E+03  2.50967E+03  2.73057E+03  1.35608E+03
 -4.59594E+03 -1.44887E+03 -7.23003E+02  1.05969E+03 -4.54273E+03 -1.38588E+03 -3.57689E+03 -1.75884E+02
 -2.11337E+02 -4.70624E+03  1.67785E+03 -2.60904E+03 -2.74152E+02 -5.98514E+03  5.25681E+03 -1.73965E+02
 -4.01039E+02 -1.26506E+03  1.11838E+03  3.52183E+03 -1.07855E+02  3.02337E+03 -4.00671E+03 -1.84996E+02
 -3.78333E+03  5.23302E+01 -3.86634E+03 -1.87292E+03  1.61428E+03  4.55002E+02 -5.45654E+03  1.19164E+03
 -2.89659E+02 -2.00621E+03 -2.75378E+03 -2.52850E+02  3.38395E+03 -8.26643E+02  2.03457E+03  2.10205E+03
  1.78544E+01 -3.46895E+02 -6.03943E+03  1.07810E+03  2.95777E+03 -1.60172E+03  3.10007E+03  1.43031E+03
 -1.59195E+03 -1.70116E+02 -2.66977E+03  3.85685E+03  4.20785E+03 -8.22914E+02 -1.01791E+03 -3.21727E+03
  1.98308E+03 -4.84650E+02 -2.98265E+03  1.63434E+03  3.48424E+02 -3.26036E+03 -1.28710E+03  5.09948E+03
  2.53864E+03 -5.03733E+03 -1.42994E+03  4.53940E+03  2.93034E+03  1.36551E+02  2.64398E+03 -7.36383E+02
 -1.44044E+02  6.66648E+02  1.26448E+03  3.31981E+02 -9.33088E+02 -2.21438E+03 -1.79035E+02  6.59951E+02
  8.70758E+02  2.99490E+03 -2.58847E+03  1.10772E+03  9.40741E+02 -1.12379E+03 -1.17669E+03 -2.22075E+03
 -8.75835E+02 -1.92410E+03  2.26227E+03 -5.70031E+02  1.98677E+03  1.55519E+03 -5.92554E+02  8.23554E+02
 -1.84885E+03  1.45002E+03 -3.96780E+03  2.27850E+03  2.25718E+03  4.22110E+03 -1.16081E+03  3.54945E+03
 -4.90000E+02  2.04449E+03 -6.05174E+03  4.34787E+03 -4.76624E+03 -9.27026E+02 -3.15578E+03  3.82622E+03
 -1.89843E+03  1.91512E+03  2.80515E+03 -2.25387E+03 -2.13563E+03 -3.41395E+03 -9.42506E+02  7.37007E+03
 -2.40422E+03  4.73663E+02 -2.57789E+02  2.18377E+03  3.28644E+03 -5.02191E+03 -1.70503E+03 -1.08661E+01
