 $NMID ID='MM_0lb_SNR50_8hz_g45_62.RAW', FMTDAT='(8E13.5)'
 TRAMP=1., VOLUME=1. $END
  3.11598E+05  2.34844E+03  3.32932E+05  2.54038E+05  8.87386E+04  3.37876E+05 -1.33214E+05  2.52376E+05
 -1.92746E+05  8.19942E+04 -1.07709E+05 -3.62345E+04 -1.24962E+03 -5.62038E+04  4.75503E+04 -9.29826E+02
  3.73741E+04  5.66489E+04 -1.69806E+04  7.92000E+04 -6.21024E+04  5.97005E+04 -8.32303E+04  3.28821E+04
 -8.16101E+04 -1.62044E+04 -5.37663E+04 -5.42542E+04 -2.04195E+04 -6.85399E+04  2.40740E+04 -4.75159E+04
  4.29751E+04  2.68805E+03  1.43442E+04  4.27271E+04 -3.96321E+04  4.30013E+04 -6.66996E+04 -2.80946E+03
 -6.03295E+04 -5.03817E+04 -8.85348E+03 -7.98980E+04  2.92810E+04 -5.75188E+04  5.23997E+04 -2.38152E+04
  4.55693E+04  1.20626E+04  3.98639E+04  2.15691E+04  1.57348E+04  3.16333E+04 -3.63748E+03  2.96876E+04
 -1.77561E+04  1.54050E+04 -2.04997E+04  1.00644E+03  9.92825E+03 -1.10024E+04  2.92377E+04  1.91661E+04
  1.16728E+04  3.41413E+04 -3.34031E+04  3.90256E+04 -6.61712E+04  3.33167E+03 -5.99719E+04 -4.32847E+04
 -6.33781E+03 -6.97539E+04  4.18910E+04 -4.44170E+04  6.20244E+04  3.18193E+03  2.94253E+04  3.17666E+04
 -6.29896E+03  4.01680E+04 -2.14690E+04  2.33913E+04 -2.72005E+04 -2.91866E+03 -1.82033E+04 -1.61579E+04
 -6.04309E+03 -1.23976E+04  1.36078E+03 -2.10795E+04  5.04964E+03 -2.40564E+04  1.76684E+04 -1.47593E+04
  1.32045E+04  9.36970E+03 -1.43595E+04  7.09869E+03 -1.95020E+04 -6.39300E+03 -7.79876E+03 -3.04510E+04
  2.42806E+04 -4.57821E+04  5.28396E+04 -1.95172E+04  5.02760E+04  2.42747E+04  1.49423E+04  4.80691E+04
 -1.46751E+04  3.53447E+04 -2.74517E+04  3.79916E+03 -1.41269E+04 -2.78801E+04  2.52136E+04 -3.58907E+04
  4.26752E+04 -1.25698E+04  4.12445E+04  2.28561E+04  2.07692E+04  5.36549E+04 -9.87369E+03  5.67372E+04
 -3.82056E+04  4.32680E+04 -5.28942E+04  9.42221E+03 -4.52697E+04 -1.64211E+04 -2.46481E+04 -4.52730E+04
  1.17963E+04 -3.76732E+04  2.75491E+04 -1.51645E+04  3.52296E+04  9.07467E+03  5.38784E+03  2.65247E+04
 -1.94011E+04  1.14209E+04 -1.41923E+04 -4.29311E+03  1.33837E+04 -1.53181E+04  1.58653E+04  2.81203E+03
  1.38386E+04  1.78798E+04 -2.97633E+03  2.43990E+04 -1.45233E+04  1.61936E+04 -3.30400E+04 -1.30930E+04
 -1.90348E+04 -1.32561E+04 -1.29666E+04 -2.95159E+04  3.40928E+03 -3.02905E+04  1.90589E+04 -2.20376E+04
  3.01238E+04 -1.54261E+04  3.30766E+04  7.87083E+03  3.27750E+04  3.22208E+04  8.74450E+02  3.65862E+04
 -1.89292E+04  2.50359E+04 -2.88359E+04  9.41590E+03 -2.47705E+04 -7.04672E+03 -8.24761E+03 -1.41182E+04
  1.53375E+03 -9.12454E+02 -5.20373E+03  6.26389E+03 -1.86502E+04 -5.00881E+02 -2.67402E+04 -1.72380E+04
 -1.33855E+04 -1.99053E+04  7.13044E+03 -2.82089E+04  2.65753E+04 -1.97435E+04  3.16690E+04  1.20201E+02
  1.50471E+04  2.21156E+04 -2.63216E+03  3.38120E+04 -1.57585E+04  1.64866E+04 -2.55118E+04 -2.57734E+03
 -2.08741E+04 -1.58802E+04 -4.36871E+03 -2.61419E+04  1.03362E+04 -2.30253E+04  2.30633E+04 -1.14223E+04
  2.52524E+04 -6.22104E+02  1.54639E+04  1.21153E+04  5.40978E+03  4.32121E+03  1.15806E+04  6.26311E+03
  1.61386E+04  6.18342E+03  2.38538E+04  1.75321E+04  1.93461E+04  3.65950E+04 -2.75954E+03  5.23237E+04
 -2.37865E+04  3.13506E+04 -3.90362E+04  1.74855E+04 -3.87018E+04 -6.18288E+02 -3.30573E+04 -2.91611E+04
 -1.26518E+04 -2.93700E+04  1.49609E+04 -3.61878E+04  3.06951E+04 -1.77254E+04  2.21170E+04  9.57965E+03
  8.18893E+03  1.73739E+04 -1.11834E+04  1.63708E+04 -1.47584E+04  5.57666E+03 -1.21302E+04 -1.22892E+04
 -1.84754E+03 -2.25760E+04  1.20272E+04 -9.93664E+03  8.18112E+03 -5.59706E+03  7.72598E+03  2.85299E+03
 -1.10273E+04  1.18229E+03 -6.81042E+03 -5.31458E+03  2.00968E+03 -1.53487E+04  5.99979E+03 -1.51993E+04
  2.35731E+04 -1.47146E+04  3.32247E+04 -1.97695E+03  2.14109E+04  1.73001E+04  9.58338E+03  2.62118E+04
 -7.90846E+03  3.86960E+04 -2.46687E+04  2.04441E+04 -2.27104E+04  4.81472E+02 -1.36169E+04 -2.17097E+03
 -2.28794E+03 -7.30081E+03 -1.01516E+03  4.70126E+03 -4.44596E+03  3.22219E+03 -2.04334E+03  6.56324E+03
 -1.88678E+04  1.24334E+03 -1.94865E+04 -2.47065E+03 -4.96975E+03 -2.13765E+04  7.37243E+03 -1.07831E+04
  7.57034E+03 -6.00436E+03  1.05830E+04  5.59214E+03  8.40227E+03  9.65030E+03 -1.22278E+04 -6.30445E+03
 -9.68241E+03 -6.76646E+03  4.90905E+03 -1.91740E+04  1.05052E+04 -1.68502E+04  1.90608E+04 -9.53129E+03
  2.68255E+04  3.16058E+03  1.62019E+04  1.56858E+04 -2.22064E+02  2.24784E+04 -7.74557E+03  1.30359E+04
 -1.46057E+04  6.54059E+03 -3.40657E+03 -1.31427E+02  4.88500E+03 -2.11693E+03  9.30935E+03  2.23733E+03
  9.95146E+03  5.06462E+03  1.32582E+03  1.14184E+04 -7.97282E+03  9.26916E+03 -1.85855E+04  3.86894E+03
 -1.59894E+04 -7.10272E+03  4.23954E+03 -1.22612E+04  1.31379E+04 -3.37536E+03  9.25798E+03 -2.16633E+02
  5.11566E+03  4.32678E+03 -6.04909E+03  1.67974E+04 -1.16076E+04  1.04477E+03 -1.21860E+04 -9.69037E+03
 -1.23452E+04 -1.87386E+04  4.40023E+03 -2.02918E+04  1.47854E+04 -1.09487E+04  1.28791E+04  3.83167E+03
  7.72552E+03  1.39521E+04  2.52786E+03  2.19974E+04 -1.26651E+04  1.35365E+04 -1.50065E+04 -8.88685E+01
 -1.61061E+04 -9.60957E+03  2.04537E+03 -1.55190E+04  7.32664E+03 -8.43359E+03  1.56875E+04 -3.85739E+03
  3.50418E+03  4.90142E+02 -5.07825E+02 -5.34867E+03 -2.07772E+03 -1.27624E+03  3.78066E+03 -1.08035E+04
  9.02351E+03 -9.44406E+03  1.45028E+04  6.54206E+03  1.67493E+04  1.77014E+04  1.07066E+04  1.96537E+04
 -4.11524E+03  2.59249E+04 -2.16237E+04  2.17354E+04 -2.81760E+04  6.22129E+03 -2.04395E+04 -1.46866E+04
 -8.51378E+03 -1.83985E+04 -2.44854E+03 -1.73385E+04  1.07312E+04 -2.04282E+03 -1.08452E+03 -5.90718E+03
  1.05706E+04 -9.16412E+03  2.14125E+03 -3.64497E+03  1.34671E+04 -7.50439E+03  1.26912E+04 -1.25340E+03
  1.08359E+04  7.57147E+03  3.53413E+03  6.52057E+03 -5.85102E+03  9.65315E+03 -1.18053E+04  7.41375E+03
 -2.10686E+04  2.53311E+02 -1.16931E+04 -1.22688E+04  9.59611E+03 -1.47920E+04  9.35301E+03 -1.62201E+04
  1.48925E+04 -5.37074E+03  1.73751E+04  4.59802E+03  1.35954E+04  1.60290E+04 -1.70596E+03  1.88080E+04
 -7.72546E+03  1.20869E+04 -1.28277E+04  5.97940E+03 -5.79648E+03 -3.22170E+03 -2.85705E+03 -9.33509E+03
 -2.97933E+03 -1.76990E+03  1.41688E+02  3.76721E+03 -3.56197E+03  4.49019E+03 -9.12705E+03  3.93098E+03
 -1.04567E+04 -1.26868E+04 -1.04162E+02 -2.62149E+04  9.89810E+03 -1.37098E+04  1.94474E+04 -2.45893E+03
  9.56313E+03  5.31447E+03  9.53639E+03  1.28412E+04 -5.58547E+03  1.20667E+04 -1.75782E+04  6.27149E+03
 -1.75990E+04  1.37472E+03 -1.36886E+04 -8.79079E+03 -6.30085E+02 -1.57045E+04  6.11750E+03 -1.99272E+03
  1.42176E+04 -2.53439E+03  1.37330E+04 -1.27703E+03  4.18162E+03  4.77055E+03 -9.93933E+02  9.71973E+00
  7.13230E+03 -8.12954E+02  6.69385E+03  6.25582E+03 -6.26576E+02  1.88792E+03  6.34243E+03  7.28099E+03
  2.64825E+03  1.16069E+04 -1.53842E+04  1.33181E+04 -2.67195E+04  7.48953E+03 -1.87322E+04 -1.61522E+03
 -9.94555E+03 -1.55286E+04 -3.94998E+03 -1.82336E+04  5.87702E+03 -8.70778E+03  1.18833E+04 -3.66363E+03
  1.31997E+04 -1.02655E+03  2.87339E+03  9.05490E+03 -1.06216E+03  5.06011E+03 -8.26210E+03 -5.39752E+03
 -1.98720E+03 -9.60350E+03  1.25237E+04 -1.18734E+04  1.06614E+04 -6.15389E+03  1.06386E+04  2.61696E+03
 -1.25922E+02  1.24124E+03  1.60689E+03  1.08360E+02  2.00153E+03  1.26399E+04  7.04760E+03 -1.38050E+03
 -1.35303E+03  3.72953E+03  5.82283E+03  1.39931E+03  1.58069E+03  4.04439E+03 -3.02351E+02  9.10371E+03
 -9.92106E+03 -4.46991E+02 -1.23117E+04  4.05835E+02 -1.58337E+04 -1.93647E+03 -2.76605E+03 -1.02272E+04
 -4.25260E+03 -6.74274E+03  3.61352E+02  4.80932E+03  3.87905E+03  6.55624E+02 -7.00280E+03  4.21086E+03
 -1.11888E+04 -1.97593E+03 -1.19062E+04 -6.53646E+02 -8.70792E+03 -1.16612E+04  2.36024E+03 -5.24305E+03
  3.32171E+03 -9.98493E+02  1.19681E+04  1.15616E+02  6.92428E+03  3.49179E+03 -4.16446E+03  4.04171E+03
 -5.86133E+03  9.87045E+03 -2.28982E+03 -2.98048E+03 -1.24104E+03 -1.11074E+04  8.39123E+03 -1.06903E+04
  9.56650E+03 -1.19416E+03  1.42047E+04  6.34464E+03  6.19464E+03  9.85986E+03 -7.92861E+03  4.13764E+03
 -1.23650E+04  7.15539E+03 -1.12296E+04 -6.75222E+03 -9.56521E+02 -4.62092E+03  2.70001E+03 -5.11182E+03
  6.08834E+03  3.22053E+03  5.26273E+03  3.88319E+03 -1.04538E+03  7.51459E+03  1.62085E+02  5.82656E+03
 -3.92716E+03 -1.39260E+03  1.97254E+03 -1.30226E+03  1.15879E+03  1.35028E+03  6.97951E+03  1.46147E+03
 -2.75189E+03  4.06518E+03 -7.01475E+03  3.64230E+03 -1.04053E+04  3.45249E+03 -1.02682E+04 -8.82786E+03
 -1.13462E+04 -1.82255E+04  5.62167E+03 -1.41854E+04  1.04841E+04 -1.33122E+04  2.40647E+04 -8.22167E+03
  1.61969E+04  3.42788E+03  8.95000E+03  1.12127E+04  3.90712E+03  1.45627E+04 -4.66685E+03  1.30128E+04
 -8.54480E+03  9.00503E+03 -3.33617E+03 -2.08518E+03  1.49260E+03 -2.53813E+03  9.02916E+02  3.52917E+03
 -5.58716E+03 -4.71946E+03 -3.00852E+03  5.34798E+02  2.52860E+03 -4.32191E+03  4.50510E+03 -8.38889E+03
  6.31376E+03 -4.54507E+03  7.87697E+03  6.50535E+03  1.46523E+04  7.57039E+03  3.35264E+03  1.22218E+04
 -3.54892E+03  1.93257E+04 -1.06863E+04  1.57742E+04 -1.24628E+04 -3.37803E+03 -6.06054E+03 -7.06529E+03
 -4.34222E+03 -1.39190E+04 -4.80159E+02 -6.56090E+03  3.30481E+03 -7.03346E+03  1.49049E+03 -7.85530E+03
  2.43094E+03  2.04929E+03 -4.10333E+03 -3.76985E+01  6.76161E+02 -3.67050E+03  5.20507E+02  1.99505E+03
  3.29927E+03 -1.00274E+03  5.34397E+03 -5.84763E+02  4.76325E+03  7.17394E+03  4.35439E+03  2.71641E+02
 -5.98230E+03 -2.71972E+03 -9.02005E+03  8.98430E+03 -7.20049E+02 -4.51689E+03 -1.13347E+03 -9.35829E+03
  1.44167E+04 -7.89911E+03  1.11648E+04 -2.20810E+03  4.93149E+03  2.05572E+03  1.36121E+04  8.51777E+03
 -2.09689E+03  8.83262E+03 -6.61018E+03  8.58389E+03 -6.64446E+03  3.76120E+02 -1.59810E+03 -3.01802E+03
  5.67883E+03 -3.23807E+03 -4.45079E+03 -2.55545E+03  4.79363E+03  1.01099E+03 -3.21911E+03 -4.42520E+03
 -4.81226E+03 -4.32399E+03 -5.56525E+03 -6.31723E+03  2.73821E+03 -2.85370E+03  1.03111E+04  1.33483E+03
  8.20459E+03  8.17605E+03  4.74099E+03  1.50700E+03  2.07374E+03  1.28707E+04 -8.92071E+03 -1.94305E+03
