 $NMID ID='MM_0lb_SNR50_8hz_g55_32.RAW', FMTDAT='(8E13.5)'
 TRAMP=1., VOLUME=1. $END
  3.17251E+05  3.42742E+03  3.32905E+05  2.45445E+05  8.40054E+04  3.39539E+05 -1.27858E+05  2.54627E+05
 -1.94670E+05  7.74821E+04 -1.10416E+05 -3.02558E+04 -6.49332E+03 -4.94396E+04  5.43045E+04 -5.91754E+02
  3.88120E+04  4.77050E+04 -1.64627E+04  8.22547E+04 -6.05030E+04  6.10443E+04 -9.14660E+04  3.15257E+04
 -8.26766E+04 -1.57330E+04 -6.03522E+04 -5.72062E+04 -1.78527E+04 -6.91532E+04  2.54752E+04 -4.78172E+04
  4.76472E+04 -2.59135E+02  1.87649E+04  4.91500E+04 -3.53489E+04  4.21102E+04 -6.99760E+04 -7.31699E+03
 -6.06746E+04 -6.15318E+04 -2.56647E+03 -7.59878E+04  3.39628E+04 -5.92474E+04  5.12589E+04 -1.89283E+04
  3.94467E+04  6.00710E+03  3.24150E+04  2.07063E+04  1.91844E+04  3.34809E+04 -5.40911E+03  2.94349E+04
 -2.36151E+04  1.79721E+04 -2.16691E+04 -9.24442E+03  1.19338E+04 -4.11903E+03  1.80686E+04  1.57267E+04
  1.98974E+03  4.40731E+04 -3.68404E+04  4.25802E+04 -7.12529E+04 -2.06584E+03 -5.70129E+04 -3.94586E+04
 -1.22790E+04 -6.43698E+04  4.10860E+04 -5.08661E+04  6.46346E+04 -6.08727E+03  3.57583E+04  4.29586E+04
 -2.95764E+03  4.83070E+04 -2.84519E+04  1.38367E+04 -3.61293E+04 -6.76567E+03 -2.52311E+04 -1.43100E+04
 -1.35072E+04 -1.97420E+04  1.18647E+03 -2.64921E+04  1.02648E+04 -2.64652E+04  1.62364E+04 -1.58403E+04
  1.16411E+04  4.10238E+03 -7.31965E+03  1.45178E+04 -2.22783E+04 -8.33399E+03 -1.36048E+04 -3.52778E+04
  1.64772E+04 -4.79206E+04  4.46786E+04 -2.56975E+04  4.89848E+04  2.42688E+04  2.13647E+04  4.79440E+04
 -1.83617E+04  3.33666E+04 -2.79664E+04 -1.39891E+03 -8.67849E+03 -3.11464E+04  2.32405E+04 -3.31830E+04
  5.25962E+04 -1.40958E+04  4.30464E+04  2.35835E+04  2.61673E+04  4.67058E+04 -8.24397E+03  5.38303E+04
 -4.09087E+04  4.44192E+04 -5.11233E+04  1.06579E+04 -4.16399E+04 -8.67870E+03 -2.22002E+04 -4.63034E+04
  2.84037E+03 -4.75950E+04  3.88722E+04 -8.15852E+03  2.95042E+04  5.25460E+03  3.58566E+03  1.49185E+04
 -1.86585E+04  1.12245E+04 -1.14401E+04 -4.30299E+03  7.62901E+03 -4.78834E+03  1.80045E+04  3.78259E+03
  1.02415E+04  1.93741E+04 -2.29361E+03  2.73432E+04 -2.29891E+04  1.76270E+04 -2.98038E+04 -1.89543E+03
 -1.98622E+04 -2.16751E+04 -8.73216E+03 -2.55213E+04  6.00081E+03 -2.62546E+04  1.50906E+04 -2.86578E+04
  3.16582E+04 -8.93808E+03  3.77208E+04  8.04618E+03  2.31650E+04  3.20848E+04  7.73447E+03  4.20907E+04
 -1.79423E+04  3.48742E+04 -2.99421E+04  8.15491E+03 -1.88961E+04 -1.43234E+04 -1.23476E+04 -1.53874E+04
  2.30903E+03  5.04255E+02 -6.20506E+03  2.65997E+03 -2.80554E+04  4.48245E+03 -1.58629E+04 -1.11373E+04
 -1.19345E+04 -2.53065E+04  9.42542E+03 -2.97989E+04  1.88456E+04 -2.13221E+04  2.85764E+04 -3.85869E+03
  1.68423E+04  1.50042E+04 -4.61765E+03  2.72546E+04 -1.50431E+04  2.42855E+04 -2.02742E+04 -9.90326E+03
 -1.83976E+04 -2.21920E+04 -2.83134E+03 -3.52966E+04  6.65976E+03 -2.93747E+04  2.35351E+04 -1.07014E+04
  2.49757E+04 -3.14942E+03  1.63757E+04 -2.08565E+03  1.44252E+04  3.14015E+03  1.09135E+04  4.32005E+03
  1.99293E+04 -2.05600E+03  2.28874E+04  1.92587E+04  2.35294E+04  4.96486E+04 -3.80091E+03  4.78541E+04
 -2.78561E+04  4.12384E+04 -4.63381E+04  2.12470E+04 -4.57200E+04 -8.11783E+03 -3.16808E+04 -3.55716E+04
 -2.43531E+04 -4.88624E+04  1.50175E+04 -3.65419E+04  2.56409E+04 -2.01279E+04  2.67107E+04  4.30765E+03
  8.72569E+02  2.10634E+04 -8.31074E+03  1.76159E+04 -2.10696E+04 -5.32812E+03 -2.28201E+04 -1.68687E+04
  3.44132E+03 -1.70989E+04  1.11385E+04 -1.67197E+04  1.99404E+04  3.99006E+02  3.82150E+03  1.36963E+04
 -7.30239E+03  6.79170E+03 -8.62243E+03 -1.85095E+03 -6.34029E+03 -2.56773E+04  1.56943E+04 -1.98033E+04
  2.27653E+04 -1.35477E+04  2.55208E+04  4.04993E+03  3.43424E+04  1.98333E+04  9.82024E+03  3.24686E+04
 -2.55074E+03  3.40248E+04 -2.22843E+04  1.84330E+04 -2.21524E+04  1.26009E+04 -1.55610E+04 -7.15568E+03
 -6.26310E+03 -8.61438E+02  2.09739E+03  5.93488E+01 -1.83268E+03  7.06414E+03 -1.34497E+04  4.11592E+03
 -1.72677E+04  3.97465E+03 -1.28630E+04 -1.55982E+04 -6.56984E+02 -1.78225E+04 -1.33187E+03 -1.09330E+04
  2.13438E+04 -1.06773E+04  6.16614E+03  3.44804E+02 -8.98623E+01  4.77301E+03 -8.35065E+03 -7.21502E+03
 -8.33197E+03 -2.39209E+04  3.68104E+03 -1.68384E+04  5.44320E+03 -2.71620E+04  2.02781E+04 -1.07369E+04
  2.21931E+04  4.39477E+03  2.59309E+04  2.05945E+04  7.18574E+03  2.64672E+04 -1.16781E+04  1.82975E+04
 -2.08006E+04  3.13141E+03  3.12459E+03 -1.41632E+02  4.59020E+03 -7.57858E+03  9.79856E+03  1.18106E+04
  4.36968E+03  8.86765E+03 -1.58018E+01  1.07386E+04 -7.92214E+03  1.42120E+04 -1.41778E+04 -1.10590E+03
 -1.02661E+04 -9.27721E+03 -5.45697E+03 -1.31736E+04  7.71872E+03 -1.18720E+04  1.45536E+04  5.99386E+03
 -3.01586E+03 -1.60568E+03 -3.03962E+03  2.22337E+04 -2.35669E+04  1.20117E+03 -1.71325E+04 -1.25355E+04
 -4.90148E+03 -1.59185E+04  7.40109E+03 -2.43708E+04  1.67018E+04 -1.96647E+04  1.74845E+04  1.12445E+04
  4.12044E+03  2.07881E+04 -1.57742E+03  1.30109E+04 -1.87132E+04  1.41509E+04 -1.91091E+04  1.30142E+03
 -1.17448E+04 -8.01524E+03 -6.76282E+03 -1.45782E+04  5.59425E+03 -1.51669E+04  7.77180E+03 -2.82236E+03
  7.64257E+03  4.81030E+03 -2.53302E+03 -5.02215E+02 -4.52655E+03 -2.33220E+03 -3.77409E+03 -2.96773E+03
  1.42444E+04 -3.08079E+03  1.96344E+04  5.05876E+03  2.27244E+04  1.28854E+04  7.03598E+03  2.50702E+04
 -2.43526E+03  2.12032E+04 -2.83434E+04  2.47610E+04 -2.86058E+04  3.04065E+03 -2.39629E+04 -1.08538E+04
 -1.06520E+04 -3.02115E+04  3.08119E+03 -1.74816E+04  9.17025E+03 -9.64788E+03  1.70716E+03 -4.10489E+03
  1.49210E+04 -3.68766E+03  5.65664E+03  1.65176E+03  9.61833E+03 -1.40996E+03  6.86358E+03 -2.94807E+03
  5.15659E+03  1.86035E+03  7.50335E+03  1.08234E+04  1.09684E+04  1.46213E+04 -1.02884E+04  1.31076E+04
 -2.30440E+04  4.37225E+03 -1.20719E+04 -9.91719E+03 -3.02332E+03 -2.24201E+04  1.05334E+04 -1.97788E+04
  2.41734E+04 -9.72497E+03  2.48948E+04  7.15667E+03  1.76046E+04  2.00401E+04 -6.51102E+02  2.08152E+04
 -1.11527E+04  2.03143E+04 -1.19379E+04  3.15499E+03 -1.29443E+04 -2.04004E+03 -3.01292E+03 -1.80768E+03
 -6.43342E+03  3.64525E+03 -5.81921E+03  1.98165E+03 -6.16740E+03  1.83798E+03 -1.07020E+04 -6.37803E+03
 -4.95686E+03 -1.37319E+04  3.21758E+03 -1.79901E+04  1.10966E+04 -1.96450E+04  2.63909E+04  2.59374E+02
  1.46690E+04  8.52796E+03  1.87558E+03  1.25709E+04 -2.89543E+03  5.02589E+03 -1.22642E+04  1.31077E+04
 -9.11188E+03  1.51451E+03 -1.82947E+04 -1.23970E+04  8.45749E+02 -2.00994E+04  1.25836E+04 -8.56217E+03
  9.17250E+03 -3.77336E+03  3.28673E+03  6.63252E+02  2.14093E+03  6.03670E+03  4.80978E+03  1.52185E+03
 -2.87565E+03 -3.51252E+03  6.83623E+03  4.67008E+02  3.60827E+03  8.56510E+03 -2.18524E+02  9.86985E+03
 -5.85721E+03  1.30041E+04 -1.43011E+04  1.16226E+04 -1.76810E+04  7.56632E+02 -2.08145E+04 -1.77837E+03
 -1.03988E+04 -1.87049E+04 -4.75401E+03 -1.51832E+04  8.15920E+03 -1.31814E+04  1.88079E+04 -6.00410E+03
  1.06708E+04  1.44669E+03  4.60259E+03  6.65320E+03 -8.80893E+03  5.56770E+03 -2.99559E+03 -4.11553E+03
 -1.87701E+03 -7.84473E+03  3.60047E+03 -3.38459E+03  3.59630E+02 -9.34807E+02  1.30008E+04  1.23128E+04
  5.33644E+03  7.95453E+03 -4.26967E+03  1.76971E+03  1.75859E+03  1.71303E+03  4.27267E+03 -1.54468E+03
  1.01680E+03  4.01744E+03  1.10205E+04  4.21602E+03  8.22655E+03  1.10742E+04 -2.43308E+03  1.24358E+04
 -1.68885E+04  7.48667E+03 -9.90975E+03  2.51488E+03 -1.01829E+04 -2.90180E+03 -4.67244E+03 -1.75361E+03
 -1.85036E+03 -4.50753E+03  6.40024E+03 -1.24839E+04  4.71836E+03 -2.09155E+03 -9.21747E+03  3.76581E+03
 -7.70667E+03  7.76158E+01 -4.35165E+03 -3.16580E+03 -7.91412E+03 -2.79388E+03 -7.49974E+02 -1.49552E+04
  2.90902E+03 -1.01803E+04  1.43982E+04  7.38416E+02  1.52624E+02 -1.07827E+03  1.43355E+03  5.75356E+03
 -3.49346E+03  2.10058E+03 -8.51932E+03 -3.62867E+03  8.94594E+03 -8.46406E+03  8.52473E+03 -6.80967E+03
  1.67167E+04  8.89437E+03  6.45780E+03  1.16182E+04  2.46758E+03  1.15877E+04 -5.28487E+03  1.59618E+04
 -8.07701E+03  6.24686E+03 -2.87382E+02 -1.83921E+03 -7.04285E+03 -9.48302E+03  7.50997E+03 -1.08398E+04
  1.16490E+04  9.85495E+01  1.22763E+04  3.89487E+01  4.57418E+03  1.28192E+03 -1.20499E+03  5.47064E+03
 -4.30883E+03  1.23656E+03 -3.90573E+03 -6.26876E+03 -7.75693E+03  5.77436E+03 -3.39734E+03  3.23501E+03
  3.89015E+03  9.44714E+03 -1.04484E+04  9.06189E+02 -1.28833E+04  9.19624E+01 -1.77715E+04 -1.23468E+04
 -1.01567E+04 -1.96643E+04  6.14211E+03 -2.05747E+04  3.91616E+03 -2.11098E+04  1.67489E+04 -5.99017E+03
  1.59534E+04  2.27888E+02  1.38798E+04  7.16424E+03  4.97526E+03  1.10708E+04 -1.16506E+04  9.05102E+03
 -9.34184E+03 -1.19036E+03 -8.14120E+03 -7.63017E+02 -1.93411E+03 -4.35043E+03  1.23189E+03  2.24329E+03
 -1.86128E+03  6.31122E+03 -4.72729E+03 -7.03501E+03 -4.92316E+03 -1.20842E+04 -1.30802E+02 -3.19344E+03
  2.69111E+03 -3.46348E+03  4.46590E+03  1.13349E+03  1.51988E+03  9.85294E+03  4.98544E+03  9.87034E+03
 -4.46244E+03  1.79623E+04 -1.78920E+04  8.09741E+02 -1.88163E+04  1.56832E+02 -9.97652E+03 -1.12084E+04
  4.37174E+02 -1.15910E+04 -9.31316E+02 -4.73104E+03  1.45157E+04 -1.28318E+04  1.61300E+04 -5.14081E+03
  7.73225E+03 -2.01421E+03 -5.42773E+03  4.55735E+02  1.35807E+03 -1.06293E+03  2.29083E+03 -1.96689E+03
 -3.25040E+03 -1.24057E+04  1.12947E+03  8.97839E+03  4.76192E+03  9.74593E+03 -4.80843E+03  1.38230E+04
 -5.83419E+03  9.89843E+03 -1.03972E+04 -1.63684E+03 -1.39280E+04 -6.20619E+03  9.36440E+02 -9.86195E+03
  1.06572E+04 -1.25730E+04  1.12433E+04 -4.87241E+02  1.75123E+04  1.49679E+03  1.64712E+04  5.23628E+03
  4.07249E+03  1.42574E+04 -8.77130E+03  1.03769E+04 -4.25706E+03 -3.69615E+02 -7.65039E+03  3.64960E+03
 -6.87715E+03  4.77399E+03 -9.03424E+00  3.20056E+03 -8.17022E+03  1.59119E+03 -4.60463E+03  1.17874E+03
 -8.19443E+03 -4.62586E+03 -4.68113E+02 -1.20946E+04  5.23397E+03 -1.07994E+04  9.81630E+03 -6.46433E+03
  8.11044E+03  1.40408E+03  5.55962E+03 -9.40145E+02 -3.48216E+03  6.59884E+03 -1.54964E+04  7.57249E+03
