 $NMID ID='MM_0lb_SNR50_18hz_g40_75.RAW', FMTDAT='(8E13.5)'
 TRAMP=1., VOLUME=1. $END
  3.09681E+05  4.62336E+03  3.40375E+05  2.51751E+05  8.66847E+04  3.35203E+05 -1.32901E+05  2.46036E+05
 -1.92968E+05  8.27027E+04 -1.12170E+05 -3.18766E+04  7.33542E+02 -5.26934E+04  5.88901E+04 -4.17014E+03
  3.29715E+04  5.22840E+04 -1.80142E+04  7.50830E+04 -5.63050E+04  6.07216E+04 -8.72431E+04  2.80720E+04
 -7.73701E+04 -1.03357E+04 -5.70832E+04 -5.00864E+04 -1.54164E+04 -6.35124E+04  2.74416E+04 -4.63087E+04
  3.70380E+04  4.12461E+03  1.53696E+04  4.55408E+04 -3.45032E+04  4.54430E+04 -6.43855E+04  5.22748E+02
 -5.66134E+04 -5.63544E+04 -6.31962E+03 -7.30015E+04  3.35741E+04 -5.48425E+04  4.90549E+04 -1.71283E+04
  4.34980E+04  6.71257E+03  2.98052E+04  2.53808E+04  1.19808E+04  2.90781E+04 -7.51279E+03  2.96741E+04
 -2.07134E+04  1.62934E+04 -2.33503E+04 -7.13968E+02  1.92639E+03 -7.94457E+03  2.16452E+04  1.47661E+04
  9.29773E+03  3.35421E+04 -3.38528E+04  3.51059E+04 -5.89079E+04 -2.43541E+03 -5.67377E+04 -4.01967E+04
 -1.29973E+04 -6.08210E+04  3.81066E+04 -4.50495E+04  5.52413E+04 -1.70547E+03  2.66593E+04  2.99022E+04
 -8.80479E+03  3.28832E+04 -2.85611E+04  1.55821E+04 -3.15393E+04 -3.66505E+03 -1.70772E+04 -6.81760E+03
 -1.01135E+04 -1.46172E+04 -2.08009E+03 -1.56346E+04  5.16946E+03 -2.36610E+04  1.00825E+04 -1.56000E+04
  7.89829E+03  3.30922E+03 -7.89799E+03  1.73617E+04 -1.98173E+04 -5.58745E+03 -7.17076E+03 -3.56950E+04
  2.19669E+04 -4.24415E+04  4.78244E+04 -2.23471E+04  4.10689E+04  1.69781E+04  1.42377E+04  4.34364E+04
 -1.76937E+04  3.16626E+04 -2.31733E+04 -7.12280E+02 -1.06921E+04 -2.61563E+04  2.14410E+04 -2.72853E+04
  3.85694E+04 -9.42323E+03  3.44703E+04  3.04616E+04  1.60888E+04  4.26585E+04 -1.13273E+04  4.51233E+04
 -2.97345E+04  2.96994E+04 -3.91177E+04  9.10390E+03 -3.95297E+04 -1.76551E+04 -2.43559E+04 -3.51627E+04
  4.35759E+03 -3.25019E+04  2.59230E+04 -1.53118E+04  2.31883E+04  9.35535E+03  4.78700E+03  1.93257E+04
 -1.13698E+04  6.01565E+03 -9.76414E+03 -4.32156E+03  3.94451E+03 -1.22014E+04  1.67060E+04  4.38234E+03
  9.63155E+03  2.14199E+04 -7.51909E+03  2.43061E+04 -2.36795E+04  1.05570E+04 -2.53562E+04 -8.52845E+03
 -1.57707E+04 -1.84538E+04 -5.35572E+03 -1.71321E+04  5.99691E+03 -1.53812E+04  9.19483E+03 -1.55869E+04
  2.42296E+04 -1.14720E+04  2.75823E+04  1.43125E+03  1.77920E+04  1.71686E+04  4.72228E+03  2.98733E+04
 -1.88681E+04  2.76543E+04 -2.58465E+04  7.08897E+03 -1.49249E+04 -1.22808E+04 -5.45326E+02 -1.63229E+04
  1.37811E+03 -8.42235E+02 -1.25179E+03  6.97421E+03 -1.78418E+04  8.91732E+03 -9.40346E+03 -9.31112E+03
 -7.78997E+03 -1.79490E+04  2.39857E+03 -2.11009E+04  1.20704E+04 -1.49854E+04  1.42060E+04 -2.41554E+03
  7.98403E+03  1.02998E+04  4.50899E+03  1.55620E+04 -1.24316E+04  5.00511E+03 -1.54301E+04 -4.30459E+03
 -9.07771E+03 -1.48879E+04  5.27751E+02 -1.98260E+04  5.56978E+03 -1.55245E+04  1.77657E+04 -6.65466E+03
  1.64136E+04  3.12810E+02  8.46969E+03  3.06130E+03  6.47123E+03 -1.31530E+03  5.20754E+03 -6.05596E+03
  1.28797E+04 -4.71305E+02  1.45407E+04  1.25235E+04  7.94808E+03  2.65213E+04 -7.62063E+03  2.14049E+04
 -1.69330E+04  1.97167E+04 -1.86502E+04  8.98606E+03 -2.10369E+04 -1.28634E+03 -2.14177E+04 -1.68938E+04
 -1.16919E+04 -2.12603E+04  7.69168E+03 -1.73164E+04  1.43207E+04 -1.23619E+04  1.41567E+04  3.18891E+03
  8.17933E+03  3.39632E+03 -5.35591E+03  1.02675E+04 -1.45880E+04  3.11044E+03 -1.31809E+04 -1.04856E+04
 -1.78911E+03 -1.31334E+04  7.09146E+03 -7.40432E+03  9.88090E+03 -3.18656E+03 -6.06100E+01  2.96479E+03
 -4.41739E+03  3.60390E+03 -2.10152E+03 -9.98546E+03  2.99841E+03 -6.98751E+03  1.09031E+04 -9.70999E+03
  1.35034E+04 -3.58569E+03  1.01476E+04  3.66149E+03  1.52304E+04  1.31194E+04  6.03270E+03  1.39027E+04
 -1.38778E+03  1.51906E+04 -1.07067E+04  1.39572E+04 -7.86574E+03  1.65521E+03 -9.77020E+03 -1.88638E+03
 -1.59111E+03 -2.69730E+03 -4.09375E+03 -2.80613E+03 -5.05471E+03  4.20441E+03 -4.73208E+03  2.87610E+03
 -6.90271E+03  5.58090E+03 -1.01232E+04 -5.46878E+03 -3.42367E+03 -9.52929E+03  1.53502E+03 -7.07565E+03
  5.61690E+03 -4.62587E+03  2.83286E+03  5.00516E+03  8.37818E+01  4.66149E+02 -1.78015E+03 -2.24382E+03
 -2.71968E+03 -1.34612E+03 -1.78003E+03 -6.74726E+03  6.71602E+03 -1.16770E+04  1.24749E+04 -3.40610E+03
  1.46615E+04  3.85890E+03  1.11250E+04  1.37952E+04 -1.93910E+02  8.79900E+03 -8.67144E+03  8.44224E+03
 -1.00234E+04  3.49362E+03 -2.81074E+03  1.81385E+02  1.64127E+03 -1.22143E+03  6.70604E+03 -1.62075E+03
  4.63239E+03  1.00083E+03  5.08382E+03  6.92882E+03 -2.00907E+03  6.97955E+03 -8.59460E+03  5.23780E+03
 -3.07597E+03 -7.46915E+02  3.11753E+03 -5.46593E+03  4.27031E+03 -2.81640E+03  5.21764E+03 -1.07316E+03
  4.26837E+03  1.65128E+03 -8.34387E+03  3.86612E+03 -7.98923E+03 -4.92584E+01 -4.78676E+02 -2.15419E+03
 -2.71515E+03 -8.74800E+02  3.96503E+03 -9.86530E+03  3.13774E+03 -3.20826E+03  7.03780E+03  1.22345E+03
  3.75116E+03  5.38891E+03  2.69446E+03  5.62874E+03 -3.44194E+03  3.62001E+03 -5.10455E+03 -9.97498E+02
 -8.53630E+03 -2.41137E+02 -1.33881E+03 -5.47349E+03  2.81041E+03 -2.60604E+03  1.16330E+03 -1.16203E+03
  6.95435E+03  2.13438E+03 -1.76048E+03  2.00399E+03 -8.62956E+02  3.79219E+03 -4.59945E+03 -4.06774E+03
  7.30116E+03 -2.39330E+03  3.16406E+03  4.08611E+03  8.74372E+03  2.35458E+03  1.79758E+03  7.90985E+03
  1.87870E+03  4.62244E+03 -7.48223E+03  6.73476E+03 -7.37960E+03 -1.63194E+03 -8.69708E+03 -5.19976E+03
  1.22954E+03 -6.85473E+03  6.00087E+02 -4.34712E+03  8.54496E+02 -1.02260E+03 -1.30874E+03 -4.04975E+03
  2.68772E+03 -3.54497E+03  2.29713E+03  2.69787E+03  8.11068E+03 -3.02956E+03  4.56741E+03 -3.22231E+02
  6.81071E+01  5.96941E+03 -2.57473E+01  9.44582E+02 -2.11268E+03  4.10891E+03 -3.83410E+03  2.19185E+03
 -6.81751E+03 -1.94918E+03 -2.46767E+03 -6.47447E+02 -4.03223E+02 -4.82287E+03  7.01972E+03 -4.11420E+03
  5.90141E+03 -6.15801E+03  5.97221E+03  4.40864E+03  4.81313E+03  1.53668E+03 -1.04781E+03  7.33023E+03
 -2.96270E+03  4.44569E+03 -4.59320E+03  1.41873E+03  3.25421E+02 -1.83364E+02  1.79167E+02 -3.78812E+03
 -3.73032E+03  8.58439E+02 -1.07408E+02  4.45840E+03 -3.78690E+01  4.87961E+03 -7.65965E+03  3.84721E+01
 -1.43027E+03 -8.15051E+03  2.34189E+03 -5.38595E+02  3.64256E+02 -3.81943E+03  6.80293E+03 -2.89305E+03
  5.84447E+03  1.43655E+03  4.38406E+03  9.84663E+02 -2.06349E+03  6.32001E+03  4.72504E+02  4.58376E+02
 -3.30140E+03 -2.37890E+03 -4.23362E+03  6.57062E+02 -4.76760E+03 -4.89503E+03  3.98622E+03 -4.33765E+03
  3.81673E+03 -4.49183E+03  3.37231E+03 -1.54544E+03 -3.09243E+03 -1.33563E+03  7.33785E+02 -2.97413E+03
  3.27824E+03  2.89888E+03  4.18619E+03  6.23354E+03 -6.92290E+02  4.03784E+03 -2.14480E+03  1.46273E+02
 -4.33375E+03  7.70160E+03 -3.85779E+03  1.32285E+03 -4.82464E+03  1.09004E+03 -9.19011E+02 -6.57095E+02
 -1.42284E+03 -5.20445E+03  3.48798E+03 -1.92429E+03  2.65985E+03  2.56263E+02  3.89659E+03  1.18088E+03
  9.03233E+02  4.27432E+03 -2.90798E+03  5.73673E+03  5.59016E+02  1.95436E+03  2.19270E+03  6.76327E+02
 -8.56260E+02 -2.00673E+03  4.08586E+03 -2.18125E+03  3.45745E+03  4.25345E+03  5.40289E+03  3.81892E+03
 -3.83958E+03 -2.32489E+03  9.41394E+02  2.34919E+03  5.63337E+02 -1.84675E+02  1.94851E+03  1.94139E+03
  1.56162E+03  1.69395E+03  6.05394E+01 -1.84643E+03 -2.46915E+03  2.09130E+03  6.69153E+03  9.24878E+02
 -3.32111E+03  1.98000E+03 -2.84965E+03 -1.12061E+03 -3.42608E+03 -2.82762E+03  4.02459E+03 -2.68619E+03
 -5.38502E+03  1.02065E+03  2.69192E+03 -1.77986E+03  9.87927E+01  5.16614E+03 -3.82959E+03  2.78360E+03
 -3.55275E+03  1.33157E+03  5.87851E+03 -2.68332E+03 -6.66378E+02 -9.90049E+02 -3.17921E+03 -8.81977E+02
  1.92948E+03 -1.37059E+03 -1.08094E+03 -7.50322E+02 -1.76385E+03  1.99724E+03  3.97824E+03  1.54870E+02
 -1.29774E+03 -1.67736E+03 -4.69533E+03  1.48311E+03  2.87412E+03 -4.07685E+03  5.34114E+03 -1.22456E+03
  7.44553E+03  2.51862E+03  1.71605E+03  5.53032E+03  2.50416E+03  6.31026E+02 -7.17872E+02  4.22327E+03
 -2.90176E+02  9.27336E+01 -5.16355E+02  2.23024E+03  5.29844E+03  4.22339E+03 -1.54196E+03  2.09581E+03
  9.28387E+02  1.46261E+02  2.06638E+03  9.00924E+02 -1.95515E+03  4.61618E+02  3.67107E+02 -1.79562E+03
 -2.38421E+03  2.03807E+03  6.24106E+02 -1.84110E+03 -3.07598E+03 -2.89045E+02  2.66809E+03  1.85701E+03
  1.60033E+03  6.87134E+02 -3.41823E+02 -1.86325E+03 -4.18174E+03 -2.31989E+02 -3.13456E+03  1.64425E+03
 -2.21133E+03 -2.54823E+03  1.22695E+03 -3.68138E+03  4.53681E+03 -2.55858E+03  3.97848E+03 -4.56053E+03
  7.03431E+03  1.51889E+03  3.37358E+02  3.90318E+03 -3.45571E+03 -1.73326E+03 -3.04618E+03 -2.06021E+03
 -4.70012E+03 -5.61043E+02  2.57975E+03 -2.39330E+03 -1.30757E+03  2.08219E+03 -9.27112E+02 -5.28270E+03
 -2.44374E+03  1.19412E+03  6.11529E+02  2.05847E+03 -1.49849E+03 -3.03506E+02  3.66631E+02 -3.91103E+03
  8.64546E+03  4.01585E+03 -3.10442E+03 -3.27173E+03  5.27565E+03  1.03016E+03 -2.19476E+03  2.91645E+03
 -6.90115E+03  5.58788E+03 -1.61437E+03 -2.13875E+03 -2.87772E+03 -1.53306E+03  1.78063E+03 -2.88119E+03
  9.00585E+02 -6.64234E+02  3.61732E+03 -4.10443E+03 -1.80904E+03 -2.94144E+03  8.12391E+02  3.09711E+03
 -9.45961E+02  3.79154E+02  1.12484E+03 -4.38646E+03  4.14448E+02  1.33281E+03 -1.08474E+03 -3.11141E+03
  3.57480E+03  1.29662E+03  5.14598E+03  1.78347E+03 -1.16266E+03 -1.28974E+03  9.62848E+02 -1.35085E+03
 -7.86740E+02  2.42119E+03 -4.69497E+01 -3.20921E+03  8.57160E+02 -2.82797E+03 -1.34888E+03  2.18974E+03
 -5.61962E+02  3.39355E+02 -1.48580E+03  2.09827E+03 -7.32730E+01  3.10838E+03 -9.67588E+02 -1.33537E+01
 -5.47206E+02 -2.48183E+03  1.83346E+03  1.92119E+03 -3.57134E+03  2.07210E+03 -2.14315E+03  3.17306E+03
 -3.03312E+03 -4.18731E+03 -2.46038E+03  4.43473E+03 -2.36097E+03 -5.60540E+02 -6.28103E+03 -2.38210E+03
 -1.00514E+03 -4.93373E+02 -2.73042E+03 -5.34224E+03  3.64595E+03  9.35456E+01  1.09990E+03 -2.59508E+03
 -5.95700E+02 -9.31166E+02 -1.18964E+03  1.26420E+03  2.68770E+03 -2.67869E+03  3.85903E+02  1.28539E+03
