 $NMID ID='MM_0lb_SNR50_13hz_g55_21.RAW', FMTDAT='(8E13.5)'
 TRAMP=1., VOLUME=1. $END
  3.17241E+05  5.03983E+03  3.37977E+05  2.51354E+05  8.34306E+04  3.41900E+05 -1.33184E+05  2.48112E+05
 -1.92589E+05  8.15154E+04 -1.14628E+05 -3.01086E+04  1.41568E+03 -5.31984E+04  4.84540E+04 -5.36414E+03
  3.84226E+04  5.00333E+04 -2.10174E+04  7.66025E+04 -6.03102E+04  6.96624E+04 -8.33878E+04  2.99766E+04
 -8.45285E+04 -1.13697E+04 -5.73538E+04 -5.14905E+04 -1.42222E+04 -6.81769E+04  2.46228E+04 -4.65319E+04
  4.50737E+04  4.08655E+03  1.57270E+04  5.38903E+04 -3.48868E+04  4.40521E+04 -6.34779E+04  9.40168E+02
 -5.27916E+04 -5.93763E+04 -1.07093E+04 -7.45487E+04  3.67767E+04 -5.42995E+04  4.52187E+04 -1.29943E+04
  4.46102E+04  1.04633E+04  3.10424E+04  2.06101E+04  1.70328E+04  3.07025E+04 -7.59846E+03  2.43760E+04
 -2.04266E+04  7.31811E+03 -1.77284E+04 -6.16683E+03  1.02799E+04 -7.48576E+03  2.78441E+04  1.21993E+04
  5.75996E+03  3.32027E+04 -3.47825E+04  3.35329E+04 -6.62246E+04 -2.11354E+03 -5.65256E+04 -4.38086E+04
 -1.57107E+04 -6.33357E+04  4.16452E+04 -4.87889E+04  5.72542E+04 -5.85764E+03  3.68438E+04  3.52200E+04
 -5.61667E+03  3.72782E+04 -3.00428E+04  1.41155E+04 -3.79129E+04  9.73145E+02 -1.64734E+04 -5.98991E+03
 -3.52924E+03 -1.45000E+04  2.45706E+03 -1.74661E+04  8.32166E+03 -2.49302E+04  1.74973E+04 -1.37370E+04
  1.24292E+04  4.24730E+03 -1.14352E+04  1.49075E+04 -2.39304E+04 -3.41151E+03 -3.50936E+03 -3.39245E+04
  2.26615E+04 -4.23119E+04  4.86322E+04 -2.40502E+04  5.22105E+04  2.07573E+04  8.99558E+03  3.85731E+04
 -1.37174E+04  3.03540E+04 -2.92551E+04 -1.20436E+03 -7.40166E+03 -2.25517E+04  2.36511E+04 -3.02306E+04
  4.06556E+04 -6.70750E+03  3.76369E+04  2.33488E+04  1.97505E+04  4.73661E+04 -6.54812E+03  4.82819E+04
 -2.97708E+04  3.38467E+04 -4.81277E+04  1.31126E+04 -4.44475E+04 -1.68475E+04 -2.35090E+04 -4.10401E+04
  4.48151E+03 -4.05044E+04  2.95209E+04 -1.46990E+04  2.80585E+04  8.64848E+03  5.02787E+02  1.93650E+04
 -1.22358E+04  5.99443E+03 -8.20035E+03 -4.71440E+03  7.43212E+03 -8.14116E+03  1.84149E+04  8.06180E+03
  1.73120E+04  2.33360E+04 -9.08123E+03  2.69651E+04 -2.74615E+04  1.27711E+04 -2.86218E+04 -6.65540E+03
 -2.43398E+04 -1.81242E+04 -4.44098E+03 -2.54226E+04  3.04203E+03 -2.47670E+04  1.51287E+04 -2.46289E+04
  2.81728E+04 -1.67259E+04  3.51584E+04  3.44442E+03  1.68793E+04  3.12050E+04  3.06849E+03  3.85928E+04
 -2.41355E+04  3.17783E+04 -2.73686E+04  9.98948E+03 -2.04647E+04 -6.73744E+03 -9.23754E+03 -1.15891E+04
  5.11685E+03 -3.69804E+03 -1.09563E+04  5.73143E+03 -1.32156E+04  6.86965E+03 -1.92362E+04 -7.37282E+03
 -7.95234E+03 -2.06183E+04  4.69765E+03 -3.04182E+04  1.78882E+04 -1.59774E+04  1.74426E+04  1.55764E+03
  1.32579E+04  1.49433E+04  9.69096E+02  1.77831E+04 -1.85623E+04  1.57807E+04 -2.31065E+04 -3.52648E+03
 -1.80772E+04 -1.53285E+04  2.25854E+03 -2.51920E+04  8.47650E+03 -2.82467E+04  2.51883E+04 -6.25594E+03
  2.21740E+04 -3.66458E+03  1.40851E+04  4.61048E+03  1.08377E+04 -4.58521E+03  1.12699E+04  6.92548E+02
  1.81643E+04  2.71485E+03  2.11277E+04  1.62275E+04  1.27124E+04  3.30522E+04 -7.82318E+03  3.79587E+04
 -2.22689E+04  2.90650E+04 -3.41472E+04  1.28909E+04 -4.19064E+04 -4.90997E+03 -2.69551E+04 -2.63975E+04
 -1.03423E+04 -2.86451E+04  5.56217E+03 -2.80457E+04  2.24586E+04 -1.62682E+04  1.56112E+04  4.77436E+03
  2.99607E+03  1.71863E+04 -8.18852E+03  1.08870E+04 -1.60183E+04 -1.04340E+03 -9.63208E+03 -6.34882E+03
 -7.97038E+03 -1.37252E+04  8.34077E+03 -1.59044E+04  1.08760E+04 -2.49031E+03  1.92360E+03  4.60367E+03
 -9.72847E+03  2.70871E+03 -3.18548E+03 -5.63640E+03 -3.65374E+03 -1.70393E+04  9.34249E+03 -1.58798E+04
  1.63251E+04 -6.10208E+03  2.00865E+04  2.17027E+03  2.01073E+04  1.68325E+04  8.82435E+03  2.58379E+04
 -7.27177E+02  2.43760E+04 -1.81177E+04  1.41725E+04 -1.51739E+04  1.16109E+03 -1.32076E+04 -8.93870E+03
 -5.51420E+03 -1.08229E+04  1.56539E+02  7.12316E+03  1.71786E+03  2.02035E+03 -5.24602E+03  4.40103E+03
 -9.80212E+03 -3.18984E+03 -1.66479E+04 -9.47292E+03 -4.38375E+03 -1.36740E+04  4.84592E+03 -1.03101E+04
  7.78109E+03 -6.17620E+03  4.61577E+03  5.31863E+03  4.47301E+03  9.15944E+03 -6.84649E+03  2.41117E+03
 -6.14518E+03 -6.65086E+03 -2.08143E+03 -1.03505E+04  4.97561E+03 -1.00751E+04  1.74230E+04 -6.25853E+03
  1.64133E+04  7.25922E+03  1.21837E+04  1.10474E+04  7.25373E+03  1.32134E+04 -6.77568E+03  1.34078E+04
 -1.31367E+04  1.69183E+03 -4.69746E+03  3.39062E+03  3.20933E+03 -1.82138E+03  6.71418E+03  2.55966E+03
  6.10017E+03  1.13166E+04  2.68495E+03  1.25184E+04 -6.90927E+03  7.79481E+03 -9.32812E+03  4.06869E+03
 -8.77028E+03  8.29656E+01 -4.01782E+03 -1.37779E+04  9.29211E+03 -1.05655E+04  1.51411E+04  1.35218E+03
 -2.21362E+03  1.18357E+04 -3.86457E+03  1.06628E+04 -5.11125E+03  6.20833E+03 -8.68367E+03 -6.96895E+02
 -1.09676E+04 -1.51290E+04  1.99698E+03 -1.38537E+04  1.27412E+04 -9.57421E+03  1.21881E+04  1.68799E+03
  1.09217E+04  1.04803E+04 -1.96686E+03  1.03076E+04 -1.05832E+04  5.11217E+03 -9.77927E+03 -5.73684E+03
 -1.28743E+04 -1.03055E+04 -4.65307E+03 -6.19304E+03  3.62399E+03 -8.90489E+03  4.86649E+03 -4.37831E+03
  3.42851E+03  4.62444E+03  1.52336E+03  7.70254E+02  5.66629E+03 -3.13224E+03  7.50293E+02 -6.20797E+03
  9.29486E+03 -5.65164E+03  5.32973E+03  4.12538E+02  8.74177E+03  7.04424E+03  5.69240E+03  1.40091E+04
  1.21399E+03  1.59071E+04 -1.69321E+04  1.39672E+04 -1.67189E+04  3.47071E+01 -1.24242E+04 -4.61049E+03
 -7.49573E+03 -1.55318E+04 -2.06470E+02 -1.00861E+04  3.53643E+03 -5.96214E+03  2.03353E+03 -8.08352E+03
  6.84871E+02 -9.43131E+03  6.30456E+03  1.38136E+03  5.64506E+03 -8.54876E+02  8.51073E+03 -2.93801E+03
  6.49529E+03  9.40549E+03  5.41642E+03  1.03418E+04 -2.32756E+03  6.26857E+03 -1.17863E+04  1.04028E+04
 -1.22401E+04 -5.60636E+03 -9.77385E+03 -8.57321E+03 -1.55857E+03 -1.20467E+04  5.64060E+03 -1.25041E+04
  1.49875E+04 -2.65817E+03  1.38115E+04 -2.39703E+03  1.00751E+04  1.54429E+04  2.73130E+03  1.43316E+04
 -5.91359E+03  4.35328E+03 -1.09433E+04 -1.59408E+02 -4.96643E+03 -3.91078E+03 -1.29569E+03 -2.15823E+03
  3.99075E+03  1.28750E+03  6.26918E+02  3.50737E+03 -2.79899E+03  3.16335E+03 -8.11017E+03  2.49271E+02
 -2.00930E+02 -2.92158E+03  8.49906E+02 -1.21246E+04  7.08344E+03 -1.27958E+04  5.36012E+03 -2.49162E+03
  1.04860E+04  8.63302E+03  4.82898E+03  1.08386E+04 -2.35209E+03  9.86532E+03 -4.14884E+03  1.19040E+04
 -1.31414E+04  3.16882E+03 -2.51470E+03 -3.21173E+03  1.47049E+03 -9.60559E+03  2.40880E+03 -4.42563E+03
  5.66012E+03 -5.13469E+03  3.93481E+03  1.44253E+03  1.75542E+03  3.26702E+03  6.44709E+02  4.54338E+03
  2.44502E+02  2.86226E+03  5.09948E+02  5.62962E+03  3.77006E+02  5.78642E+03 -5.44656E+02 -2.05677E+01
 -6.90324E+01 -9.75878E+00 -1.12453E+04  5.03330E+03 -7.66235E+03 -3.63000E+03 -1.04821E+04 -8.66796E+02
 -5.54246E+03 -7.11931E+03 -1.59247E+03 -1.03762E+04  6.87524E+03 -5.45386E+03  8.78448E+03 -3.05044E+03
  5.03344E+03  2.87621E+03 -3.23825E+03  4.74849E+03 -6.94800E+03  8.23012E+02 -2.10177E+03 -1.63954E+03
  2.28007E+03 -7.95592E+03 -5.00325E+03  4.23290E+03  4.56734E+03 -5.93906E+02  2.10059E+03  1.00667E+03
  3.69605E+03  3.46938E+03  7.09416E+03  6.59124E+03 -1.88098E+03 -2.94517E+03  9.32286E+02 -1.42524E+03
 -1.00408E+03  7.00827E+02  4.99797E+03  6.27915E+03  1.03915E+03  3.76238E+03 -2.72881E+03  3.97664E+03
 -8.31054E+03  8.28603E+03 -7.99455E+03 -1.30159E+03 -9.67883E+03  1.22252E+03  4.43618E+03  4.01584E+02
 -6.85851E+03 -3.05149E+03 -6.91673E+02  2.50632E+03  4.82931E+03  6.77975E+02 -2.96556E+01  1.65316E+03
 -5.07485E+03  4.26174E+03 -8.84929E+03  2.48110E+02 -1.89610E+03 -9.15336E+03  2.88590E+03 -8.11975E+02
  6.81945E+02 -1.07790E+03  5.35591E+03 -4.66075E+02  3.24580E+03 -5.18075E+03 -1.12228E+03  2.76025E+03
 -2.90033E+03  3.87955E+03 -4.39601E+03 -4.75671E+02  1.56455E+03 -6.79454E+03  3.37632E+03 -2.95950E+03
  2.08705E+03 -2.52915E+03  6.00314E+03  5.99868E+03  1.86783E+03  6.05301E+03 -1.68637E+03 -4.31426E+02
 -1.87290E+03  6.51554E+01 -6.53301E+03  1.23696E+03 -4.86925E+03 -2.95858E+03  2.32430E+01 -2.01750E+03
  4.89679E+03  4.04019E+03  5.86750E+03  2.71962E+03  1.23112E+03  6.00048E+03  3.97822E+03  4.63032E+02
 -1.23531E+03  4.16327E+02 -3.90233E+02  3.64787E+03 -2.23761E+03  1.64790E+03 -2.93982E+02 -7.82432E+02
  1.51544E+03  2.39600E+03 -3.52149E+03 -6.74494E+03 -6.86131E+03 -2.63764E+03 -8.00155E+03 -7.29406E+02
 -3.84508E+03 -9.37251E+03  3.09877E+03 -4.80707E+03  5.53844E+03 -1.24330E+03  8.41581E+03 -3.84894E+03
  5.90066E+03  3.91044E+03  7.03408E+03  5.82198E+03 -4.41227E+02  6.71122E+03 -6.17837E+03  7.37812E+03
 -1.74146E+03 -5.67326E+02 -4.32618E+03  5.08743E+02  3.05151E+03 -2.94242E+03  6.22201E+03  5.89618E+03
 -7.54706E+02  2.26147E+03  1.17272E+03 -3.45327E+03  2.96234E+03  3.85645E+03  1.18407E+03  2.09268E+03
  3.68826E+03 -1.79233E+02  1.63691E+03  2.07458E+03  7.14851E+03  8.37914E+03  2.24418E+03  8.84764E+03
  4.55213E+02  4.03343E+03 -3.62252E+03 -8.11177E+02 -4.79343E+03 -1.14152E+03 -4.91511E+03 -2.80620E+02
 -4.52211E+03 -8.38023E+03  2.18996E+03 -7.72281E+03 -1.78197E+03 -3.83722E+03  2.87557E+03 -1.70413E+03
  2.05659E+03  5.98808E+02 -3.00272E+03  4.70997E+03  2.72500E+03 -1.67800E+03  2.12049E+03  1.90995E+03
 -1.87465E+02  2.78774E+03  6.41309E+03 -7.70441E+01  2.08372E+03 -1.65168E+02 -1.78777E+03  3.33687E+02
 -2.68087E+03  7.43925E+02 -2.69349E+02 -3.09261E+03 -7.20196E+03 -3.91552E+03 -8.51860E+02 -2.60064E+03
 -3.10968E+03 -2.78588E+03 -4.69908E+03 -3.23914E+03  3.19772E+03  1.93435E+03 -1.58903E+03  4.11076E+03
  4.27143E+03  3.21438E+03  3.36554E+02  3.58610E+02  4.68269E+03  8.77488E+02 -1.47580E+03 -1.10802E+03
 -1.06338E+03 -5.59806E+02  2.01276E+03  2.36983E+02 -1.94538E+03 -1.97165E+02 -6.15411E+02 -1.80898E+03
 -1.32229E+03 -1.78785E+03  2.02364E+03 -4.21781E+03  4.78916E+02 -4.83071E+03  6.06333E+03  1.71845E+03
  5.55261E+03 -2.34133E+03  6.31698E+03  2.29566E+03 -1.84796E+03  3.99047E+03 -1.21254E+02 -8.89576E+02
