 $NMID ID='MM_0lb_SNR50_11hz_g60_44.RAW', FMTDAT='(8E13.5)'
 TRAMP=1., VOLUME=1. $END
  3.12295E+05  5.40311E+03  3.38645E+05  2.52768E+05  8.15735E+04  3.35818E+05 -1.36145E+05  2.52814E+05
 -1.90927E+05  8.30199E+04 -1.09789E+05 -2.96961E+04  1.99014E+03 -4.82038E+04  5.21800E+04 -6.64996E+02
  3.57666E+04  5.23819E+04 -1.96554E+04  7.87579E+04 -6.23430E+04  6.65330E+04 -9.16665E+04  2.93413E+04
 -8.14808E+04 -1.14869E+04 -6.18114E+04 -5.34694E+04 -2.03640E+04 -7.32809E+04  2.71406E+04 -4.33065E+04
  3.78976E+04  1.28822E+03  1.90382E+04  5.17856E+04 -2.85493E+04  4.83222E+04 -6.72331E+04  2.08550E+02
 -5.55030E+04 -5.77721E+04 -9.65278E+03 -8.28173E+04  3.92043E+04 -5.30486E+04  5.39541E+04 -1.62061E+04
  4.69826E+04  1.17753E+04  3.18319E+04  2.81027E+04  9.94614E+03  3.37977E+04 -8.14609E+03  2.64314E+04
 -2.64270E+04  1.08498E+04 -1.73709E+04 -7.19660E+02  7.68832E+03 -5.72676E+03  2.24346E+04  1.44207E+04
  6.83764E+03  4.55657E+04 -3.31614E+04  3.60645E+04 -6.65077E+04 -1.25967E+03 -5.56411E+04 -4.98376E+04
 -1.12580E+04 -5.99907E+04  4.21847E+04 -5.04989E+04  6.17909E+04  3.81237E+01  3.86723E+04  3.33399E+04
 -1.01858E+03  4.16188E+04 -2.18707E+04  2.47672E+04 -3.25401E+04 -7.90577E+03 -2.06250E+04 -1.28584E+04
 -6.71541E+03 -1.41944E+04  1.30320E+03 -2.07789E+04  1.19801E+04 -2.16802E+04  1.17840E+04 -1.49199E+04
  4.42647E+03  7.56358E+03 -1.32890E+04  1.64702E+04 -2.17283E+04 -4.35789E+03 -3.29088E+03 -3.38598E+04
  2.49366E+04 -4.93256E+04  5.08739E+04 -2.11093E+04  4.89279E+04  1.57845E+04  1.97461E+04  4.32184E+04
 -1.39698E+04  3.19119E+04 -2.68365E+04  4.65326E+03 -1.08314E+04 -3.22612E+04  2.22309E+04 -3.63730E+04
  4.48567E+04 -1.41906E+04  3.52442E+04  2.98925E+04  2.57422E+04  5.18262E+04 -8.32019E+03  5.47870E+04
 -3.29999E+04  3.00221E+04 -5.23634E+04  3.42236E+03 -4.82608E+04 -2.02905E+04 -2.36500E+04 -4.07291E+04
  5.17447E+03 -3.75327E+04  3.68586E+04 -1.84146E+04  2.54121E+04  1.56963E+04  1.12754E+04  2.11278E+04
 -1.77219E+04  9.30580E+03 -1.13033E+04 -1.14800E+04  8.72240E+03 -1.49059E+04  1.93214E+04  4.30252E+03
  1.25963E+04  1.73146E+04 -5.76965E+03  2.71385E+04 -2.52328E+04  1.30627E+04 -2.87611E+04  7.38679E+02
 -2.48002E+04 -1.40839E+04 -4.18421E+03 -2.47082E+04  2.49289E+03 -2.42681E+04  2.09694E+04 -2.81686E+04
  3.13271E+04 -1.34140E+04  3.91784E+04  4.93551E+02  2.84849E+04  2.35294E+04  7.87826E+03  3.53729E+04
 -1.67237E+04  2.99539E+04 -2.57689E+04  7.86821E+03 -2.24446E+04 -9.57032E+03 -5.30114E+03 -1.32988E+04
  3.84645E+03  8.92606E+02 -9.79359E+03  5.34058E+03 -1.71969E+04  2.71527E+03 -2.51825E+04 -3.24791E+03
 -1.53478E+04 -2.22760E+04  9.61143E+03 -2.87732E+04  1.66521E+04 -1.85281E+04  2.29429E+04 -5.44813E+03
  1.25536E+04  1.31959E+04 -4.85164E+03  1.97528E+04 -1.67193E+04  1.74726E+04 -2.02092E+04 -1.24149E+04
 -1.25312E+04 -1.76667E+04 -7.99182E+02 -2.88103E+04  1.47592E+04 -2.53631E+04  2.36641E+04 -1.17986E+04
  2.44047E+04  1.19605E+03  1.48323E+04  7.79808E+03  7.42961E+03  2.60055E+03  1.74917E+04 -4.38448E+03
  2.30260E+04 -6.31552E+02  2.37050E+04  1.57115E+04  1.78806E+04  3.90405E+04  3.03369E+03  4.24141E+04
 -1.98942E+04  3.03761E+04 -4.10807E+04  1.77680E+04 -3.91094E+04  2.31253E+02 -3.26000E+04 -3.13745E+04
 -1.53679E+04 -3.75404E+04  1.27158E+04 -3.36725E+04  3.02707E+04 -1.83758E+04  1.71602E+04  9.50564E+03
  4.76676E+03  1.37615E+04 -1.35946E+04  1.28702E+04 -2.70958E+04  2.43191E+03 -1.37673E+04 -1.27418E+04
 -1.70015E+02 -1.29851E+04  1.13757E+04 -9.42173E+03  1.40582E+04  2.39045E+02  2.10619E+03  1.09418E+04
 -6.91706E+03  1.40297E+03 -4.29802E+03 -8.04878E+03 -2.86498E+03 -1.63708E+04  1.41526E+04 -1.92468E+04
  2.55812E+04 -3.97710E+03  2.45793E+04  5.27413E+03  2.11866E+04  2.49040E+04  1.10851E+04  2.74521E+04
  1.82390E+03  2.71743E+04 -1.92726E+04  2.00835E+04 -2.17835E+04  3.77277E+03 -1.75361E+04 -3.09253E+03
 -1.25807E+04 -4.00630E+01  1.27895E+03  2.61970E+03 -9.88182E+03  4.89190E+03 -9.36400E+03  1.12731E+04
 -1.66122E+04 -2.93724E+03 -9.41267E+03 -7.51542E+03 -2.36863E+03 -2.02321E+04  7.44183E+03 -1.58843E+04
  7.77729E+03 -3.13936E+03  9.02535E+03  4.16547E+03 -4.45380E+03  3.74564E+03 -6.68292E+03 -5.34971E+03
 -6.86371E+03 -1.16844E+04  1.98267E+03 -1.37817E+04  9.69990E+03 -1.01000E+04  1.86883E+04 -1.16250E+04
  1.85723E+04  2.10147E+03  1.57293E+04  1.39451E+04  4.09534E+03  1.60817E+04 -1.09328E+04  1.51619E+04
 -5.47832E+03  3.84324E+03 -7.03303E+03 -4.48360E+03 -3.62790E+01 -5.01101E+03  6.33167E+03  3.07105E+03
  8.36794E+03  8.72256E+03 -6.94406E+03  1.35175E+04 -6.53868E+03  1.69225E+04 -1.00137E+04 -1.45584E+03
 -4.32608E+03 -2.85857E+03 -2.74803E+03 -1.18536E+04  1.06501E+04 -8.38571E+03  8.70040E+03  2.33197E+03
  5.35181E+03  5.98673E+03 -1.15236E+04  1.08541E+04 -9.74355E+03  4.10369E+03 -1.22923E+04 -2.39655E+03
 -9.92868E+03 -1.54553E+04  5.01324E+03 -1.89885E+04  1.32971E+04 -1.25654E+04  1.64178E+04  4.86608E+03
  7.68783E+03  9.19262E+03 -8.07798E+02  9.82150E+03 -1.34200E+04  2.26961E+03 -8.57807E+03 -6.32714E+02
 -1.09138E+04 -9.69014E+03  2.88805E+03 -1.07436E+04  1.00112E+04 -6.93579E+03  4.60717E+03 -7.20270E+03
  3.54102E+03  2.52380E+03  6.38564E+02  4.10708E+03  9.36313E+01 -5.45809E+03  2.48721E+03 -1.23257E+04
  1.35458E+04 -6.53616E+03  1.59162E+04 -1.99008E+03  1.54683E+04  6.80704E+03  7.07477E+03  1.83682E+04
 -3.58125E+03  1.88496E+04 -1.31815E+04  1.93561E+04 -2.20389E+04  1.07560E+03 -1.20088E+04 -4.92439E+03
 -1.10387E+04 -1.70135E+04 -4.72187E+03 -1.40950E+04  5.87349E+03 -9.48410E+03  6.19276E+02  1.02931E+03
  5.80609E+03 -3.25408E+03  1.03989E+02  2.57217E+02  1.08069E+04 -5.95698E+02  7.04742E+03  2.37359E+03
  1.62848E+04  5.55244E+02  5.36258E+03  4.49532E+03 -1.11850E+04  6.03968E+03 -1.04104E+04  3.19114E+03
 -1.73629E+04  3.92267E+03 -1.14478E+04 -5.44576E+03 -6.80511E+02 -1.14137E+04  9.47276E+03 -1.70842E+04
  1.46892E+04 -1.21546E+04  1.75547E+04  3.85882E+03  1.71850E+04  9.46276E+03 -2.45964E+03  1.60815E+04
 -5.68185E+03  1.46938E+04 -8.10063E+03  2.99041E+03 -2.94668E+03 -8.64605E+03 -5.78124E+03 -2.58635E+03
  3.62316E+03 -4.54484E+02  2.96960E+03 -4.55260E+02 -1.04859E+04  4.65194E+03 -7.76382E+03 -3.65563E+03
 -5.89009E+03 -5.84753E+03  4.46931E+03 -1.65491E+04  8.62791E+03 -1.29355E+04  1.53364E+04 -3.46566E+03
  1.56789E+04  3.53581E+03  8.02430E+03  9.03064E+03 -1.07621E+04  1.09988E+04 -9.74449E+03  1.07392E+04
 -1.19325E+04  6.90159E+03 -8.83347E+03 -7.11763E+03  4.05175E+03 -1.29763E+04  1.01349E+04 -6.78467E+03
  1.08108E+04 -4.29123E+03  4.74759E+03  2.14432E+03  3.37327E+03  5.09484E+03  1.39538E+03 -4.09492E+03
  4.56725E+03  3.66613E+03  5.56463E+03  2.55215E+03  8.95270E+02  4.93503E+03 -3.47411E+03  7.18321E+03
 -7.28892E+03  1.25061E+04 -6.72656E+03  1.21161E+04 -1.35740E+04  4.30571E+03 -1.13223E+04 -1.34975E+03
 -4.10460E+02 -1.43916E+04  2.56939E+02 -1.78484E+04  1.08604E+04 -1.53849E+04  1.20398E+04  2.89949E+03
  9.36077E+03  1.06517E+03 -9.17859E+02  3.98815E+03 -4.59385E+03 -1.05447E+03 -5.92463E+03 -3.46980E+02
 -3.01969E+03 -5.61813E+02  3.96454E+03 -1.29805E+04  1.00393E+04 -3.56087E+03  4.25805E+03 -2.65282E+03
  1.86987E+02 -1.70835E+03 -3.97828E+02 -1.98251E+03  4.02241E+03  5.06786E+03  3.34465E+03  1.23153E+03
 -6.13632E+01  5.09560E+03 -1.04319E+03  2.28286E+03  5.41194E+03  5.83205E+03 -5.29180E+03  1.38739E+04
 -4.44104E+03  8.67127E+03 -7.05424E+03 -1.29931E+03 -9.08472E+03  7.44171E+01  2.41902E+03 -1.01072E+04
  8.09128E+03 -4.72369E+03  3.25036E+03 -4.26375E+03 -2.85891E+03  1.11726E+04 -7.97461E+03  7.84388E+03
  2.17070E+03  2.11486E+03 -4.64491E+03 -1.07737E+03 -1.92848E+03 -4.82675E+03 -2.46520E+03 -6.82429E+03
  3.93681E+03  4.94743E+02  9.10938E+03  9.92654E+02  6.30266E+03 -2.68865E+03  4.65977E+03  2.98394E+03
 -4.70880E+03 -3.20846E+03 -1.53660E+03 -1.91878E+03  7.18248E+03 -3.33530E+03  2.86254E+03 -1.23781E+04
  5.44313E+03 -1.57345E+03  8.02538E+03  1.98902E+03  2.21412E+03  5.78093E+03 -2.36747E+03  5.73928E+03
 -2.77040E+03  4.32866E+03 -7.90036E+03  9.75916E+02  4.66742E+02 -3.23213E+03  1.03360E+03 -3.55785E+03
  3.56735E+03 -5.34522E+03  9.41687E+02  4.86913E+03  4.80678E+03 -1.81404E+03  1.51885E+03 -5.48258E+02
 -9.04271E+02  7.67921E+03 -1.81755E+03  1.33709E+03  3.66655E+03  1.15254E+02  2.17631E+03  5.49762E+03
 -3.99786E+03  2.61963E+03 -3.03962E+03  1.59928E+03 -8.20944E+03  6.16825E+02 -1.12388E+04 -9.17678E+03
 -5.74135E+03 -6.14792E+03  2.02618E+03 -1.20339E+04  9.04411E+03 -9.09072E+03  1.40491E+04  9.37146E+02
  6.06420E+03 -5.16222E+03  4.38176E+03  5.57330E+03 -4.70408E+02  7.69973E+03 -7.64535E+02  6.80843E+03
 -4.52714E+03  1.55319E+03 -3.47701E+03  1.87622E+03 -5.65644E+02 -2.75627E+02 -3.09661E+03 -8.79335E+01
 -1.10910E+03  3.13046E+03 -7.09335E+03 -1.34058E+03  3.21534E+03  9.88265E+02 -1.08538E+03 -3.08495E+03
  4.30196E+03  5.95933E+02  3.16202E+03 -1.40507E+03  3.99822E+03  7.53502E+03 -7.06447E+02  4.45176E+03
  1.16498E+03  9.23608E+03 -5.02954E+03  4.47416E+03 -1.06511E+04 -6.19134E+03 -5.56174E+03 -2.66560E+03
 -7.19466E+03 -9.95705E+03  3.75288E+03 -1.25451E+04  6.40477E+03  9.93973E+02  8.06956E+03  2.33651E+03
  1.51402E+03  1.80536E+03 -3.43832E+03 -1.90764E+03 -1.01839E+03 -1.26374E+02  1.82339E+02 -8.91195E+02
  2.11104E+03 -4.37860E+03  4.61977E+03  3.78966E+03 -2.20925E+03 -1.78327E+03  1.92600E+03  9.64817E+03
 -5.32294E+03  6.63418E+03 -5.37334E+03  3.00165E+03 -1.15606E+03 -5.87119E+03  5.17911E+03 -1.06580E+04
  5.47547E+03  1.83088E+03  5.45113E+03  3.18189E+03  1.06663E+04  6.37831E+03  2.58427E+03  3.34665E+03
  5.16647E+03  9.34587E+03 -1.21419E+03  1.02111E+04 -3.20321E+03  7.83156E+03  2.77618E+02  4.60816E+02
 -5.02967E+03 -2.46843E+03 -5.28321E+03 -1.68594E+03 -5.45550E+03  4.02025E+03  8.33040E+02 -7.29583E+02
 -2.33361E+03 -4.49118E+03 -1.90908E+03 -3.51840E+03  2.17253E+03 -4.09128E+03  4.44504E+03 -4.49498E+03
  8.16607E+03 -7.69966E+02  6.26486E+02  1.02836E+03 -1.60181E+03  1.28469E+04 -1.23781E+04  3.53399E+03
