 $NMID ID='MM_0lb_SNR50_12hz_g45_46.RAW', FMTDAT='(8E13.5)'
 TRAMP=1., VOLUME=1. $END
  3.10061E+05 -3.05523E+03  3.43748E+05  2.49906E+05  8.72725E+04  3.39828E+05 -1.34947E+05  2.47136E+05
 -1.86433E+05  8.61655E+04 -1.12735E+05 -3.01733E+04  3.53346E+03 -4.95601E+04  5.37253E+04 -6.12895E+03
  3.72165E+04  5.31597E+04 -1.64588E+04  7.73661E+04 -5.99693E+04  6.37457E+04 -8.27113E+04  3.24234E+04
 -8.20325E+04 -1.37851E+04 -5.91917E+04 -4.71644E+04 -1.79705E+04 -7.17660E+04  2.87150E+04 -4.04400E+04
  4.79892E+04  5.50848E+03  1.64285E+04  4.48668E+04 -3.38950E+04  4.56171E+04 -6.61574E+04 -2.65061E+03
 -5.55436E+04 -5.80119E+04 -1.26528E+04 -7.79334E+04  3.76980E+04 -5.71033E+04  5.66518E+04 -1.86272E+04
  4.13151E+04  1.08441E+04  3.08859E+04  2.01935E+04  1.21078E+04  2.62426E+04 -5.66566E+03  2.76928E+04
 -2.31498E+04  1.25924E+04 -2.02456E+04 -1.02183E+04  5.27275E+03 -8.48270E+03  1.91134E+04  8.99414E+03
  5.11095E+03  4.05783E+04 -3.22183E+04  3.95831E+04 -6.38411E+04  2.24034E+03 -5.75403E+04 -4.60595E+04
 -1.24288E+04 -6.68786E+04  4.43487E+04 -4.45578E+04  5.74972E+04 -2.98768E+03  3.07582E+04  3.84780E+04
 -6.71348E+03  3.85826E+04 -3.20353E+04  1.48723E+04 -3.10558E+04 -5.49563E+03 -1.36345E+04 -7.94266E+03
 -1.30921E+04 -1.49470E+04  2.12138E+03 -2.07778E+04  1.04934E+04 -2.27002E+04  1.59880E+04 -1.45154E+04
  6.84489E+03  8.73941E+02 -7.63844E+03  1.18899E+04 -2.84783E+04 -4.01388E+03 -6.44363E+03 -3.59916E+04
  2.03508E+04 -4.10007E+04  4.71110E+04 -1.94865E+04  4.72270E+04  1.67430E+04  1.40974E+04  4.37039E+04
 -1.81512E+04  3.37318E+04 -3.06226E+04 -2.01739E+02 -6.83252E+03 -2.94560E+04  2.26821E+04 -3.55041E+04
  3.71451E+04 -9.78642E+03  3.25902E+04  2.30512E+04  1.77983E+04  5.08899E+04 -3.05488E+03  5.14368E+04
 -3.71142E+04  3.23241E+04 -4.18649E+04  1.27558E+04 -4.28570E+04 -1.69875E+04 -2.54389E+04 -3.76121E+04
  6.05247E+03 -3.55847E+04  3.06081E+04 -1.10256E+04  3.09537E+04  9.23044E+03  8.94023E+03  1.94677E+04
 -1.47737E+04  7.92170E+03 -8.80376E+03 -2.66944E+03  4.95290E+03 -1.23507E+04  2.12738E+04  7.99443E+03
  1.49126E+04  2.07605E+04 -7.07027E+03  2.29231E+04 -2.72679E+04  1.16320E+04 -2.83495E+04 -3.32226E+03
 -2.45277E+04 -1.85389E+04 -1.44322E+04 -2.70536E+04  6.32194E+03 -2.01723E+04  1.19819E+04 -1.78498E+04
  2.47990E+04 -1.59815E+04  2.83213E+04  7.33613E+03  2.32297E+04  2.65174E+04  5.90423E+03  4.45506E+04
 -1.40717E+04  3.13633E+04 -2.96161E+04  9.23568E+03 -3.03077E+04 -8.56172E+03 -1.22927E+03 -4.82674E+03
 -1.14350E+03 -2.69751E+03 -5.16965E+03  7.07787E+03 -1.33210E+04  6.04329E+03 -2.06472E+04 -8.69603E+03
 -1.19730E+04 -1.34382E+04  3.67412E+03 -2.40486E+04  1.38054E+04 -1.90192E+04  1.78390E+04 -4.21971E+03
  1.31464E+04  1.69762E+04  9.23618E+02  1.71733E+04 -1.24681E+04  1.49630E+04 -2.01814E+04 -6.39310E+03
 -1.60774E+04 -1.96877E+04  2.58010E+03 -2.23510E+04  8.45786E+03 -1.75112E+04  1.72202E+04 -1.01222E+04
  1.49316E+04 -1.02978E+03  1.17676E+04  6.87012E+03  8.80443E+03  2.83326E+03  1.07107E+04  1.82590E+03
  1.80634E+04  4.76514E+03  1.95746E+04  1.22854E+04  8.94065E+03  3.47410E+04 -5.37811E+02  3.63430E+04
 -2.10456E+04  3.55266E+04 -3.23816E+04  1.60447E+04 -3.29316E+04  3.02052E+03 -2.99821E+04 -2.00896E+04
 -1.03127E+04 -2.80976E+04  1.11531E+04 -2.73147E+04  2.62767E+04 -1.35933E+04  1.90831E+04  3.16061E+03
  1.01243E+04  1.51388E+04 -1.49291E+04  1.79502E+04 -1.91105E+04  2.42273E+03 -1.23034E+04 -1.41662E+04
  3.77419E+03 -1.45785E+04  1.16573E+04 -1.43176E+04  1.17636E+04  1.88897E+03  3.85523E+03  1.02978E+04
 -5.20437E+03  5.02062E+03 -6.37469E+03 -7.20789E+03  2.31820E+02 -1.02757E+04  1.15197E+04 -1.38234E+04
  1.62203E+04 -3.31201E+03  2.12949E+04  6.70317E+03  1.51137E+04  1.62488E+04  7.11870E+03  2.52356E+04
 -2.02190E+03  2.24132E+04 -1.32361E+04  1.05711E+04 -1.68958E+04  2.35969E+03 -1.24716E+04 -8.16801E+03
 -4.45750E+03 -3.46805E+03  2.37659E+03  3.39723E+03 -2.08252E+03 -3.34164E+02 -2.78436E+03  8.93133E+03
 -1.38921E+04  3.47442E+03 -1.18300E+04 -8.88350E+03 -8.87694E+03 -1.49741E+04  8.94887E+03 -1.17761E+04
  1.22875E+04 -6.79558E+03  1.31166E+04  2.73641E+03 -1.38927E+03  8.48139E+03 -6.52150E+03  2.73059E+03
 -5.06993E+03 -1.16592E+04 -3.86482E+02 -1.30864E+04  5.88322E+03 -1.20117E+04  1.44351E+04 -2.48314E+03
  1.07211E+04  4.44997E+02  1.97977E+04  1.47021E+04  6.56172E+03  1.08844E+04 -7.87213E+03  1.51617E+04
 -9.26281E+03  7.71798E+03 -3.16188E+03 -5.23201E+03  6.33995E+02  1.83707E+03  1.62635E+04  1.41985E+03
  4.23365E+03  2.87462E+03  3.92218E+03  1.02904E+04 -7.02562E+01  1.13060E+04 -9.84301E+03  3.72747E+03
 -7.73747E+03 -2.26871E+03  3.14679E+03 -1.41474E+04  8.46220E+03 -8.86098E+03  9.37726E+03 -1.89051E+03
  4.41588E+03  9.95073E+03 -9.62803E+03  1.15119E+04 -1.34800E+04  9.87722E+02 -1.65924E+04 -8.03558E+03
 -4.80043E+03 -1.07443E+04  1.72239E+03 -1.25864E+04  1.08030E+04 -5.77898E+03  1.23369E+04 -8.31440E+02
  6.97228E+03  5.38717E+03 -3.62604E+03  9.95784E+03 -1.02657E+04  3.77992E+03 -8.08275E+03 -1.93460E+03
 -1.18777E+04 -3.43807E+03 -1.14754E+03 -1.22514E+04  4.94101E+03 -1.00921E+04  3.69869E+03 -4.54913E+03
  6.90412E+03  1.26723E+03 -5.25856E+03  4.25863E+03  1.15500E+03 -1.49701E+03 -5.75393E+03 -2.98130E+03
  9.28796E+03 -6.07447E+03  7.87082E+03 -5.75658E+02  1.20310E+04  3.75641E+03  3.50286E+02  1.36926E+04
 -3.88515E+03  2.10377E+04 -1.61255E+04  1.13505E+04 -2.17015E+04 -6.62925E+02 -2.20267E+04 -6.71516E+03
 -7.41106E+03 -1.34297E+04  2.27530E+03 -9.48719E+03  6.85006E+03 -1.92905E+03  1.08837E+04 -8.33303E+03
  6.10207E+03 -2.53488E+03  1.22200E+03 -6.23350E+03  7.10159E+03 -1.71998E+03  1.02274E+04 -3.65679E+03
  1.22513E+04  3.35230E+03  1.96283E+03  8.66797E+03  3.16958E+03  8.91679E+03 -7.05695E+03  4.03758E+03
 -1.14115E+04 -6.38738E+03 -6.41307E+03 -5.58860E+03  2.80832E+03 -1.04030E+04 -1.86417E+03 -1.47671E+04
  1.62981E+04 -6.37540E+03  1.42497E+04  1.52224E+03  1.00365E+04  1.17246E+04  4.09076E+03  1.29806E+04
 -3.12679E+03  7.45562E+03 -7.59818E+03  8.94269E+03 -5.06412E+03 -9.29772E+02 -3.01268E+03  1.93285E+03
  3.17657E+01 -2.78095E+02 -5.30469E+03 -1.08155E+03 -3.44072E+03  6.59491E+03 -9.32008E+03 -3.34429E+03
 -3.02004E+03 -1.04704E+04 -5.67102E+02 -7.66860E+03  7.98189E+03 -1.08950E+04  1.11468E+04 -3.49892E+03
  1.37880E+04  1.89613E+03  3.90332E+03  1.17244E+04 -4.08967E+03  9.00686E+03 -5.51906E+03  7.42561E+03
 -1.39101E+04  4.79045E+02 -7.13296E+03 -6.89353E+03 -4.50430E+03 -3.97086E+03  3.22859E+03 -9.36841E+03
  7.55732E+03 -4.59145E+02  5.02539E+03 -2.44836E+03  5.57266E+03  4.78352E+03 -2.88700E+03 -2.55997E+03
  3.92777E+03  3.81788E+02  3.69218E+03  5.28848E+03  1.85144E+03  1.48197E+03 -1.20047E+02  1.26086E+04
 -3.07840E+03  1.13641E+04 -8.01000E+03  5.81000E+03 -1.32448E+04  5.58288E+03 -1.04506E+04 -6.10130E+03
 -8.04050E+02 -1.50527E+04  4.22608E+03 -6.84758E+03  4.56242E+03 -5.83171E+03  1.61232E+03 -2.35602E+03
  7.48057E+03  1.50222E+03  4.26367E+03  5.34746E+03 -5.53033E+03  9.80265E+03  6.26065E+02  2.22562E+03
 -1.72023E+03 -2.35953E+03  3.21239E+03 -6.83132E+03  4.52503E+03 -8.67460E+03  1.85821E+03  6.70872E+03
  4.23376E+03  1.41978E+03  5.89734E+03  1.37759E+03 -3.68037E+03 -2.07577E+03  2.10174E+03 -2.09029E+03
 -5.92004E+02 -1.16837E+03  4.04880E+03 -2.22387E+03  3.87244E+03  5.78686E+03  1.64243E+03  4.77894E+03
 -7.34021E+03  4.06504E+03 -5.76253E+03 -1.14459E+03 -1.62328E+03 -5.24576E+03 -2.69102E+03 -3.51658E+03
 -9.88982E+02 -4.80009E+03  2.39554E+02 -1.26841E+03  5.79759E+03  3.83474E+03 -1.73887E+03 -1.39385E+03
 -5.20266E+03  1.02729E+03 -1.27662E+04 -4.30849E+03 -1.73152E+03 -4.33451E+03  3.34864E+03 -7.75120E+03
  2.57242E+03 -1.64928E+03  3.56330E+03 -3.06812E+03  8.29711E+03  4.73720E+02 -4.36314E+02  6.78346E+03
 -5.05319E+02  2.57213E+02 -2.59544E+03 -1.27949E+03  1.29084E+03 -6.63852E+03  1.69134E+03 -1.73042E+03
  2.68032E+03  4.70506E+03  6.44221E+03  8.70435E+02  3.05761E+03  4.00579E+03 -4.20149E+03  7.37293E+03
 -5.01331E+03  8.55875E+03 -6.38755E+03  2.40440E+03 -1.37216E+03 -2.07038E+03  2.14597E+03 -4.72109E+03
 -3.50226E+03  5.07079E+03 -8.94367E+02  2.14559E+03  3.70253E+03  5.53838E+03  6.31991E+02  1.56290E+03
 -4.71231E+03 -2.28915E+03  1.72039E+03  5.29196E+03  1.46200E+02 -1.38445E+03 -2.02664E+03  2.21136E+03
 -1.95340E+03 -2.60090E+02 -5.66998E+03 -1.59910E+02 -4.38292E+03 -2.32724E+03 -6.98543E+03 -1.06998E+03
  2.30801E+02 -1.55171E+04  5.33400E+03 -5.70279E+03  6.35822E+03 -1.00376E+04  1.06611E+04 -5.38723E+03
  1.41899E+04  3.74161E+02  2.06487E+03  3.69537E+03 -9.71358E+02  7.19693E+03 -8.64257E+02  9.67461E+02
 -4.84513E+02  3.00562E+03 -1.99002E+03 -4.45506E+03 -1.78401E+03 -3.89650E+03  1.34031E+03 -4.89887E+01
  1.92043E+03 -1.63114E+03 -5.47009E+03 -2.70457E+03 -1.12728E+03 -5.41903E+03 -6.96293E+02 -3.10275E+03
  8.06266E+02 -3.50659E+03  9.13925E+03 -3.36715E+03  4.85951E+03 -2.06455E+03 -1.33662E+03  5.81034E+03
 -4.82416E+03  3.93808E+03 -6.90626E+03  4.03908E+03 -1.00278E+04  3.30012E+03 -4.59241E+03  7.71630E+02
 -5.26929E+03 -1.60695E+03  4.17660E+03 -1.01324E+04  6.02720E+03 -3.72378E+03  3.79238E+03  4.08610E+01
  1.03054E+03  6.03019E+03 -3.03821E+02 -2.58008E+03 -8.53192E+02  6.19948E+02  1.14944E+03 -3.76696E+03
  9.79009E+01 -3.54877E+03  2.60026E+03  2.44927E+02  3.03836E+03  1.05479E+03 -1.15463E+03 -2.64354E+03
 -5.34723E+03  5.41945E+03  2.30265E+03 -1.20885E+03 -4.98675E+03 -5.68875E+03  1.15620E+03 -2.89040E+03
  2.07621E+03 -5.22984E+03 -1.13314E+03 -4.87691E+03  7.45566E+03 -2.23967E+03  8.56621E+03  4.44173E+03
  1.62575E+02  3.14899E+03 -6.99220E+02  1.28896E+03 -1.36448E+03 -1.53004E+02  9.87365E+02  9.88006E+02
 -6.61178E+02  5.61875E+03  1.21581E+02 -5.63148E+02 -4.14833E+03  2.61686E+03  4.25827E+02 -4.15469E+03
 -4.49713E+03 -1.02536E+03 -1.67504E+03 -2.40125E+03  3.27201E+03 -5.03324E+03  3.99619E+03 -3.62381E+03
  5.09995E+03 -2.22082E+03  2.95293E+03  3.33063E+03 -3.91767E+03  8.45316E+03 -6.42355E+03  5.65539E+03
