 $NMID ID='MM_0lb_SNR50_17hz_g55_71.RAW', FMTDAT='(8E13.5)'
 TRAMP=1., VOLUME=1. $END
  3.11007E+05 -2.14532E+03  3.36507E+05  2.54410E+05  8.16136E+04  3.34196E+05 -1.32953E+05  2.50878E+05
 -1.90611E+05  8.56878E+04 -1.13615E+05 -3.31078E+04 -4.58656E+03 -4.91073E+04  5.32876E+04 -2.45556E+03
  3.36888E+04  5.23032E+04 -1.28345E+04  7.28476E+04 -5.87615E+04  6.08412E+04 -8.10811E+04  3.30261E+04
 -8.14254E+04 -1.60657E+04 -5.68099E+04 -4.59717E+04 -1.20897E+04 -6.92027E+04  2.72323E+04 -4.74800E+04
  3.93016E+04  5.29225E+03  1.54469E+04  4.60028E+04 -3.56411E+04  4.69213E+04 -6.09061E+04 -1.32674E+03
 -5.50365E+04 -5.57319E+04 -6.86516E+03 -7.35276E+04  3.48972E+04 -5.61762E+04  4.80200E+04 -1.89348E+04
  3.97130E+04  5.37963E+03  3.05172E+04  2.59871E+04  1.47500E+04  3.21935E+04 -4.73461E+03  2.89440E+04
 -2.36777E+04  1.06914E+04 -1.87773E+04 -7.27313E+03  6.83857E+03 -3.13465E+03  1.78077E+04  1.45556E+04
  8.53592E+03  3.18156E+04 -2.72791E+04  3.53471E+04 -6.23790E+04  1.75516E+03 -5.74600E+04 -3.94841E+04
 -9.12982E+03 -6.36009E+04  3.85824E+04 -4.60037E+04  5.68253E+04 -1.57110E+03  3.65747E+04  3.04579E+04
 -7.83489E+03  3.35148E+04 -2.64502E+04  1.23607E+04 -2.73439E+04 -3.67375E+03 -1.84910E+04 -1.08651E+04
 -1.33305E+04 -1.17846E+04  1.46625E+03 -1.75512E+04  7.05392E+03 -2.36867E+04  1.74831E+04 -9.38452E+03
  1.29642E+04  3.28730E+03 -8.62660E+03  1.19858E+04 -1.68421E+04 -2.66201E+03 -7.51191E+03 -3.08228E+04
  2.15188E+04 -4.17147E+04  4.92976E+04 -1.48300E+04  4.39486E+04  2.03259E+04  1.36742E+04  4.67491E+04
 -1.86614E+04  3.49784E+04 -2.37963E+04  5.01692E+03 -1.19367E+04 -2.61637E+04  1.55294E+04 -3.07602E+04
  3.93945E+04 -6.96044E+03  3.14742E+04  2.55379E+04  1.84969E+04  3.94884E+04 -7.53964E+03  4.72475E+04
 -3.05429E+04  3.57124E+04 -4.03082E+04  6.67213E+03 -4.36448E+04 -1.48961E+04 -2.46430E+04 -4.11440E+04
  8.89161E+03 -3.22815E+04  2.86017E+04 -1.33275E+04  2.43181E+04  1.42401E+04  2.87744E+03  1.46820E+04
 -1.53481E+04  9.07820E+03 -1.65180E+04 -6.03805E+03  3.57011E+03 -1.09236E+04  2.08834E+04  5.72935E+03
  1.27079E+04  2.31103E+04 -8.00177E+03  2.71639E+04 -1.84399E+04  8.79515E+03 -2.93580E+04 -3.71721E+03
 -1.76435E+04 -1.38481E+04 -7.34875E+03 -1.52634E+04  6.50130E+02 -1.59688E+04  1.52990E+04 -1.86861E+04
  2.19411E+04 -1.52314E+04  3.20975E+04  3.85839E+03  2.13497E+04  1.86209E+04  5.88541E+03  3.14676E+04
 -1.73496E+04  2.99635E+04 -3.03343E+04  1.38590E+04 -2.31262E+04 -1.08828E+04 -6.03865E+03 -1.67398E+04
  3.97678E+02 -1.05406E+03 -8.10135E+03  5.91934E+03 -1.45763E+04  5.63144E+03 -1.59315E+04 -7.61947E+03
 -7.18968E+03 -1.62303E+04  7.48809E+03 -2.31132E+04  1.64595E+04 -1.33370E+04  1.36971E+04  4.95732E+02
  1.08088E+04  8.07414E+03 -4.50419E+03  1.88053E+04 -8.66747E+03  9.16058E+03 -1.86811E+04 -4.52928E+03
 -1.31481E+04 -1.34309E+04 -2.56898E+03 -2.00452E+04  1.03376E+04 -1.89468E+04  1.89580E+04 -9.54696E+03
  1.57719E+04 -1.32304E+03  1.02540E+04  5.31504E+03  5.10455E+03 -3.63588E+01  9.03900E+03 -2.17923E+03
  1.58363E+04  2.54221E+03  1.54818E+04  1.17654E+04  7.84181E+03  2.80998E+04 -9.90252E+02  3.34324E+04
 -1.58410E+04  2.23761E+04 -2.66172E+04  1.32183E+04 -2.64271E+04 -3.45574E+03 -2.34006E+04 -1.48999E+04
 -7.18299E+03 -2.69045E+04  1.14777E+04 -2.19042E+04  1.52401E+04 -1.17027E+04  1.40175E+04  2.75013E+03
  8.72897E+03  7.69402E+03 -8.97762E+03  1.44920E+04 -1.66274E+04  2.03904E+03 -6.44913E+03 -2.17889E+03
  1.74407E+03 -1.02925E+04  6.73561E+03 -1.12807E+04  1.13799E+04 -1.28767E+03  5.79302E+02  1.20333E+04
 -6.35175E+03 -1.33401E+03 -6.73644E+03 -3.16330E+03 -1.32180E+03 -1.01015E+04  8.41186E+03 -1.05562E+04
  1.40958E+04 -8.63028E+03  1.52286E+04  3.24879E+03  1.21511E+04  9.66635E+03  3.98262E+03  1.65152E+04
 -3.39540E+03  1.98488E+04 -9.03857E+03  8.23824E+03 -1.25094E+04  1.48852E+03 -5.94048E+03 -7.55467E+03
 -8.56921E+03 -7.32742E+03  4.60525E+02  2.04222E+03  4.56259E+03  3.79885E+03 -3.90742E+03  6.66819E+03
 -5.60834E+03  1.35731E+03 -9.69627E+03 -1.02275E+04 -2.15372E+03 -1.23984E+04  2.73574E+03 -7.20229E+03
  6.99112E+03 -4.42965E+03  8.21237E+03  6.18841E+03  2.10219E+03  1.58473E+03 -1.69390E+03  6.23858E+02
 -4.93193E+03 -4.94054E+03  1.00809E+03 -8.49587E+03  2.47116E+03 -1.30900E+04  1.35875E+04 -3.70677E+03
  1.46316E+04  3.56581E+03  1.22502E+04  7.99430E+03  2.90721E+03  6.39329E+03 -1.06910E+04  1.11015E+04
 -1.26916E+04  3.75695E+03 -6.59779E+03  1.60493E+03  1.53393E+03 -5.12958E+03 -1.60877E+03  5.14693E+03
  7.51675E+03  1.46819E+03  2.94012E+03  6.40013E+03 -8.99798E+03  4.76695E+03 -8.18782E+03 -3.51854E+02
 -9.50255E+03 -4.02892E+03 -1.06129E+03 -1.12555E+04  3.61582E+03 -3.49505E+03  3.55415E+03 -1.32805E+03
 -1.16957E+03  5.45486E+03 -6.30197E+03  9.61137E+03 -9.95799E+03  4.15427E+03 -6.65819E+03 -5.81677E+03
 -3.77290E+03 -7.26339E+03  3.39246E+03 -6.29112E+03  7.80224E+03 -2.97297E+03  6.71051E+03  2.56184E+03
  8.38669E+03  1.16665E+04  1.35197E+03  8.53102E+03 -3.99753E+03  1.42299E+04 -5.11785E+03  1.66219E+03
 -8.19655E+03 -1.70867E+03 -7.60972E+02 -6.78627E+03  5.66281E+03 -1.24967E+04  2.69068E+03  1.18244E+03
  4.79411E+03  2.04511E+03 -3.91866E+03  4.91190E+02  1.91273E+03  2.33519E+03 -4.06452E+01  4.11520E+02
  5.01195E+03  3.02730E+03  4.26849E+03  2.48447E+03  1.05996E+04  1.67310E+03  8.51147E+03  5.92833E+03
  2.76648E+03  1.16417E+04 -1.38286E+04  1.25996E+04 -9.49713E+03  9.62544E+02 -1.33724E+04 -5.15694E+03
 -3.55818E+03 -7.98287E+03  1.21515E+03 -7.63264E+03  3.14672E+03 -2.60639E+03  3.24952E+03 -1.33219E+03
  9.69302E+02 -3.43978E+03  3.00450E+03  4.06591E+02  5.55221E+03 -2.74991E+03 -2.18450E+03  6.80279E+03
  5.28077E+03  5.64249E+01 -3.72707E+02  3.47828E+03 -2.80169E+03  7.89604E+03 -4.23903E+03  1.53811E+03
 -4.47927E+03  4.30455E+03 -1.36617E+03 -5.57619E+03 -7.19054E+02 -7.08534E+03  8.42416E+02 -7.40729E+03
  4.40526E+03 -2.09640E+03  9.20961E+03  2.40006E+02  5.33003E+03  5.74780E+03  5.40231E+03  9.66292E+03
 -2.38093E+03  6.66494E+03  6.88327E+02 -8.32124E+02 -4.57577E+03  1.97207E+03 -1.36144E+03  1.33376E+03
 -2.46080E+03  2.94310E+03  2.13822E+03  3.01984E+03 -3.25093E+03  5.49970E+02 -1.80492E+03 -5.41699E+02
 -1.16774E+03 -1.26379E+03 -2.03659E+03 -3.58585E+03  4.89005E+03 -4.14689E+03  4.52159E+03  3.67956E+03
  7.99933E+03  3.86956E+03  4.20151E+02  3.01921E+03 -3.91074E+03  6.12599E+03 -2.86947E+03  5.28260E+03
 -7.22561E+03 -2.01536E+03 -3.79297E+03  1.58469E+03 -3.61402E+03 -1.08430E+04  6.40602E+01 -3.26801E+03
  9.46454E+02 -2.55198E+03  2.45665E+03 -6.33104E+03 -1.16781E+03  3.50685E+03 -3.72360E+03  7.61792E+03
  2.72550E+03 -1.49607E+03 -2.20316E+02  1.79896E+03  2.69928E+03  2.24207E+03 -1.41868E+03  4.68614E+03
 -4.80052E+03  9.49700E+03 -7.35065E+03  4.79074E+03 -3.34264E+03  7.67412E+02 -4.41405E+03 -1.58146E+03
 -2.12864E+03  1.94759E+02  3.32847E+03 -4.52207E+03 -6.52724E+02 -9.40644E+03  7.49660E+03  2.22041E+03
  3.23778E+03  6.93491E+02 -1.03456E+03  2.58341E+02 -1.14756E+03 -1.19339E+03 -3.00954E+03 -2.17303E+03
 -6.26536E+02 -3.86376E+03  6.03548E+02 -2.68256E+03 -5.52246E+02 -3.34335E+03  4.59763E+03 -6.44440E+02
  3.70635E+00  1.18765E+03  7.45836E+03  2.30714E+03  1.52267E+03  8.63954E+02 -1.30282E+03  2.59900E+03
  1.23647E+02 -6.92305E+02  5.11443E+03  9.60976E+02 -9.18301E+02  2.57600E+03 -5.46197E+02 -5.44204E+02
 -4.95463E+03  2.96710E+03  3.06888E+02  5.39768E+03 -5.87705E+02 -4.68428E+03 -3.80424E+03  7.15952E+02
  2.65167E+03 -2.82660E+03  4.34735E+03 -3.71424E+03  1.24484E+03  3.87997E+02 -4.52428E+03 -6.08570E+02
 -2.23109E+03 -1.31732E+02 -1.84702E+03 -3.11174E+03 -1.90881E+03 -1.01036E+04 -4.82935E+03  1.23067E+02
 -1.52472E+03 -2.03599E+03 -3.73221E+03  4.53708E+02 -1.04880E+03 -3.73665E+03  4.56766E+03 -4.30856E+03
 -8.68161E+02 -4.01129E+03  8.51591E+01 -2.95703E+03 -2.23701E+03 -2.40611E+03  3.32966E+03 -2.50235E+03
  1.55294E+03  1.69534E+03  5.46395E+03  8.59621E+03 -9.62785E+02 -2.35527E+02  4.46521E+02  8.75229E+03
  3.85872E+03 -1.21407E+03 -4.61526E+03  3.93254E+03  2.45721E+03 -1.55359E+03  3.23717E+03  1.83098E+03
  2.92422E+03  9.33003E+02  2.54224E+03  3.90380E+02 -1.08116E+03  2.26013E+03 -1.30576E+02  4.77205E+03
 -3.32264E+03 -2.09691E+03 -1.10543E+03  3.55273E+03 -2.67524E+03  3.18475E+03  3.28924E+03 -4.39516E+03
  1.05719E+03  2.26767E+02 -3.86005E+03  1.08548E+03 -2.59176E+03  6.25168E+02 -6.96178E+03 -3.82562E+03
  2.52180E+03 -3.77113E+03  3.20360E+03  1.12354E+03  5.39567E+03 -1.89714E+03  5.33111E+03 -2.45697E+03
  2.80759E+03 -2.47500E+03  3.27775E+03  3.69724E+03  6.47809E+02  1.22759E+03 -3.75580E+02 -2.82940E+03
  3.08383E+02 -3.65247E+00 -2.82383E+03 -3.40823E+02 -2.32133E+02 -1.56224E+03 -4.53894E+03  9.24900E+02
 -9.64049E+02  1.13799E+03  4.45519E+03  1.25211E+03 -2.09203E+03  1.78762E+03 -9.62724E+02  1.30295E+03
  1.42908E+03 -1.57213E+03 -2.02569E+03  4.40477E+03 -3.88872E+02  2.87921E+03 -6.46432E+02  2.37037E+03
 -8.92021E+02  2.39876E+03 -3.53863E+03 -5.63799E+02 -2.17949E+03 -3.04615E+03 -1.69418E+03 -1.26344E+03
 -1.18077E+03 -3.77749E+03  6.54766E+02 -1.37052E+02  4.17775E+03  1.10258E+03  3.68027E+03  9.83999E+02
 -7.96083E+01  5.77234E+02  2.58216E+03  2.57156E+03  1.88784E+03 -5.33842E+01 -2.11755E+03  1.82557E+03
  6.56503E+03 -3.81144E+02  4.30113E+03 -1.35831E+03  1.37244E+03 -4.05996E+03  1.58190E+03  2.92243E+03
  1.18659E+03  6.58203E+02 -2.15654E+03 -2.44201E+03 -1.47341E+03 -2.21152E+03 -2.75104E+03 -7.18111E+02
  3.59871E+03 -3.90667E+03 -4.59355E+02  1.46690E+03  4.13541E+03 -7.93021E+02 -3.75324E+02 -1.61237E+03
 -1.89453E+03  6.18623E+02  4.49594E+03  2.72106E+02 -5.48377E+02 -2.07762E+03  2.90871E+02  7.09705E+02
 -3.44658E+03 -4.10174E+03 -9.44380E+02 -4.83566E+03  1.55889E+03 -3.21100E+03 -5.15838E+03 -2.29147E+02
  6.22162E+02  2.44203E+03  8.66020E+02 -4.49544E+03 -3.47372E+03 -1.35744E+02 -5.58247E+02 -1.66897E+03
 -4.88436E+03 -8.17939E+02  3.17379E+03  2.80684E+02  1.08128E+03  3.37033E+03 -2.05724E+02  1.43383E+03
