 $NMID ID='MM_0lb_SNR50_19hz_g60_87.RAW', FMTDAT='(8E13.5)'
 TRAMP=1., VOLUME=1. $END
  3.08865E+05  2.25636E+03  3.38461E+05  2.51522E+05  7.95261E+04  3.35490E+05 -1.30967E+05  2.50873E+05
 -1.85742E+05  8.10420E+04 -1.07281E+05 -3.31813E+04  9.38609E+02 -4.98852E+04  5.60580E+04 -3.82027E+03
  3.71618E+04  5.48989E+04 -1.79985E+04  7.39016E+04 -5.81722E+04  5.98322E+04 -8.32829E+04  3.22537E+04
 -7.75784E+04 -1.25383E+04 -5.56806E+04 -4.63401E+04 -1.66887E+04 -6.95284E+04  2.87301E+04 -4.82004E+04
  4.13396E+04  6.19706E+03  1.63872E+04  4.43457E+04 -3.26048E+04  4.32558E+04 -6.64082E+04 -4.52675E+03
 -5.37914E+04 -5.90991E+04 -7.04978E+03 -7.59412E+04  3.00361E+04 -5.46311E+04  4.62361E+04 -1.55175E+04
  4.31714E+04  8.57512E+03  3.37665E+04  2.44490E+04  1.94401E+04  2.52180E+04 -6.22611E+03  2.05511E+04
 -1.95376E+04  1.03760E+04 -1.68491E+04 -4.31244E+03  6.07917E+03 -4.01525E+03  1.74493E+04  1.06179E+04
  9.91685E+03  3.27605E+04 -2.81171E+04  3.54717E+04 -5.83281E+04  2.00435E+03 -5.78811E+04 -4.23231E+04
 -1.42536E+04 -6.08095E+04  3.58826E+04 -4.15930E+04  5.39813E+04 -6.16249E+02  3.14533E+04  2.99728E+04
 -4.80724E+03  3.22048E+04 -2.83501E+04  1.84426E+04 -3.13837E+04 -9.06739E+03 -1.80817E+04 -1.21629E+04
 -3.24916E+03 -1.28838E+04 -2.69495E+03 -1.80705E+04  7.75175E+03 -2.25735E+04  1.70337E+04 -1.55657E+04
  1.54196E+04  2.04771E+03 -8.32970E+03  1.44911E+04 -2.03167E+04 -6.03992E+03 -8.01911E+03 -3.00534E+04
  2.11709E+04 -3.54670E+04  4.40037E+04 -2.20629E+04  4.49590E+04  1.87826E+04  1.47114E+04  4.43661E+04
 -1.76128E+04  3.18410E+04 -2.96491E+04  2.04310E+03 -6.88460E+03 -2.90012E+04  2.07790E+04 -3.05774E+04
  4.20272E+04 -8.74345E+03  3.37841E+04  2.27833E+04  1.21791E+04  4.48531E+04 -8.40963E+03  4.54082E+04
 -3.10000E+04  2.91610E+04 -3.92828E+04  1.12982E+04 -3.79723E+04 -1.64081E+04 -2.23661E+04 -3.43622E+04
  7.48552E+03 -3.25261E+04  2.88623E+04 -1.62353E+04  2.85090E+04  7.49825E+03  2.92516E+03  1.69195E+04
 -1.55666E+04  8.48422E+03 -1.25060E+04 -8.39352E+03  4.29744E+03 -1.46469E+04  1.57305E+04  6.65415E+03
  1.02823E+04  1.96278E+04 -2.70623E+03  2.35814E+04 -2.09886E+04  1.09800E+04 -2.41362E+04 -2.41176E+03
 -1.70239E+04 -1.79624E+04 -4.16496E+03 -2.08990E+04  5.85601E+03 -1.75785E+04  1.42872E+04 -1.22364E+04
  2.07224E+04 -1.19178E+04  2.63725E+04 -1.67992E+03  2.06380E+04  1.89598E+04  2.64843E+02  3.26676E+04
 -1.59903E+04  3.01780E+04 -2.15522E+04  1.26105E+04 -2.01925E+04 -1.21775E+04 -3.02094E+03 -1.37828E+04
  7.70477E+03 -8.56006E+02 -8.91020E+01  1.02430E+04 -1.14732E+04  8.75759E+03 -1.35482E+04 -8.65734E+03
 -1.16364E+04 -1.64312E+04  7.26749E+03 -2.11262E+04  1.29529E+04 -1.70076E+04  1.54543E+04 -1.17776E+03
  1.05489E+04  7.21083E+03  2.42922E+02  1.40705E+04 -6.51565E+03  1.02227E+04 -2.07545E+04 -3.48977E+03
 -1.61602E+04 -1.50608E+04  1.05492E+03 -1.78576E+04  5.11220E+03 -1.48804E+04  1.96242E+04 -7.88680E+03
  1.93342E+04 -1.15347E+02  9.46953E+03  4.22526E+03  6.33671E+03 -4.26253E+03  8.25321E+03  1.20188E+03
  1.60132E+04  3.87016E+03  1.53526E+04  1.08774E+04  1.01018E+04  2.87960E+04 -1.49262E+03  2.81097E+04
 -1.57738E+04  2.01045E+04 -2.70996E+04  9.86184E+03 -2.87707E+04 -3.24456E+03 -2.78220E+04 -1.35282E+04
 -1.13107E+04 -2.26653E+04  4.82554E+03 -2.24650E+04  2.22377E+04 -1.16288E+04  1.76175E+04  7.22736E+03
  9.34362E+03  1.20937E+04 -6.74643E+03  8.44261E+03 -1.62832E+04 -3.12134E+02 -1.15648E+04 -1.43214E+04
  5.36153E+02 -1.14683E+04  8.95841E+03 -6.52795E+03  6.66847E+03  3.81765E+02  4.32159E+03  5.66426E+03
 -7.83286E+03 -8.39329E+01 -1.03690E+04 -5.62292E+03 -5.96802E+03 -1.38514E+04  1.16604E+04 -1.13779E+04
  1.00824E+04  1.62278E+03  1.66496E+04  3.87439E+03  9.24206E+03  1.12672E+04  4.27966E+03  1.66735E+04
 -3.43677E+03  1.71997E+04 -1.15165E+04  1.20497E+04 -1.29491E+04  8.14605E+03 -1.29181E+04 -1.08212E+03
 -3.08932E+03 -3.17098E+03 -1.21506E+03  4.04707E+02 -1.15129E+03  2.71530E+03 -4.27790E+03  3.50363E+03
 -1.19214E+04 -2.88772E+03 -9.53484E+03 -7.84829E+03 -4.74127E+03 -1.43414E+04  4.54735E+03 -9.97961E+03
  5.53435E+03 -1.14437E+03  1.96384E+03  3.67386E+03 -3.97790E+03  3.07801E+03 -1.98669E+03 -6.32370E+03
 -4.53954E+03 -3.44304E+03 -4.00932E+03 -6.08036E+03  8.31931E+03 -1.09354E+04  8.65412E+03 -2.63543E+03
  1.18990E+04  1.02473E+03  2.36789E+03  5.09506E+03  4.14062E+03  1.58871E+04 -7.25961E+03  4.82596E+03
 -1.12364E+04  2.25923E+03 -3.64059E+03 -3.96452E+03 -1.55216E+03 -2.63619E+03  4.55275E+03 -5.94655E+03
  4.68986E+03  3.93458E+03  4.67556E+02  4.33327E+03 -3.40194E+03  9.05461E+03 -9.07971E+03  3.73067E+02
 -6.28223E+03 -3.49659E+03  2.45172E+03 -7.53671E+03  3.05001E+03 -4.26361E+03  4.66859E+03  4.71038E+03
 -1.73881E+03  2.97963E+03 -7.20339E+03  4.57896E+03 -5.48770E+03  2.27832E+03 -4.45109E+03  2.48577E+02
 -6.04038E+03 -2.12110E+03  2.58337E+03 -4.53918E+03  5.34114E+03 -2.80655E+03  1.15508E+04  9.01849E+02
  6.58403E+03  8.99395E+03  1.53313E+03  9.86801E+03 -5.51574E+03  4.72008E+03 -6.18456E+03  1.88038E+03
 -4.02144E+03 -7.03873E+03 -5.10010E+03 -9.28474E+03  2.82329E+03 -6.68932E+03  6.88609E+02 -3.88080E+03
  2.51936E+03 -1.35348E+03 -9.58520E+02  1.40003E+03 -5.59832E+01  1.00875E+03  9.05748E+02 -4.13085E+03
  4.68446E+03 -1.38016E+03  3.99920E+03 -3.49167E+02  5.25757E+03  6.62420E+03  5.47345E+03  8.23625E+03
 -2.99052E+03  6.26625E+03 -7.97696E+03  5.13508E+03 -9.86145E+03  4.49342E+02 -3.01872E+03 -3.76843E+03
 -3.87152E+03 -4.20441E+03  3.34968E+03 -9.09637E+03  1.03626E+02 -2.52212E+03  3.61062E+03 -2.18382E+02
  1.16779E+03 -3.93395E+03  2.85751E+03 -7.80370E+02  5.02052E+03 -1.71938E+03  9.50381E+02  7.27283E+02
  6.42595E+03  8.40145E+01  3.96703E+03  3.92144E+03  1.58705E+02  5.49697E+03 -5.53570E+03  2.15777E+03
 -1.78286E+03  7.01805E+02  6.38286E+02 -5.02634E+03  1.64248E+03 -1.90030E+03  5.12345E+03 -4.40146E+03
  3.53813E+03 -1.87404E+03  3.86784E+03  3.89522E+03  2.07196E+03  1.68038E+03  1.67845E+03  9.71609E+03
 -2.80132E+03  4.65036E+03 -5.52443E+03  3.95698E+03 -1.52208E+03  3.51909E+03 -7.54346E+02 -7.48173E+02
 -2.28432E+03 -1.56325E+00 -2.47542E+03  3.66491E+03 -1.83287E+03  1.73464E+03 -2.40465E+03 -2.74265E+03
 -1.19130E+03 -3.08031E+03 -4.72333E+02 -2.94662E+03 -2.99644E+02 -5.33245E+02  6.18759E+03  2.07402E+03
  5.98710E+03  1.04964E+04  3.87278E+03  2.73251E+03 -1.07838E+03  6.98086E+03 -3.37435E+02 -1.78003E+03
 -5.17810E+03  1.74322E+03 -3.72885E+03 -6.18221E+03 -2.66199E+03 -7.10372E+02  3.18703E+02  2.99437E+02
  4.00310E+03 -4.90997E+02  3.71702E+03  4.85220E+03 -2.03731E+03  2.74483E+03 -6.59664E+02  1.31898E+03
  2.74568E+03  6.03872E+02  3.54601E+03  1.43750E+03  7.44076E+02  6.87544E+03  2.53179E+03  4.34502E+03
  1.45431E+03  1.99280E+03 -1.67370E+03 -1.68535E+03 -3.68614E+02  3.16610E+02 -6.23617E+02 -2.00989E+02
 -2.71406E+03 -1.73644E+03  2.10076E+03 -5.59604E+03  6.31974E+02  3.04630E+03  2.61502E+03 -2.40921E+03
  1.73495E+03  3.45308E+03  5.06344E+03  2.14684E+03 -2.40793E+03  2.90209E+03  1.29478E+03 -2.82087E+03
 -3.53827E+03 -8.66497E+02 -3.92433E+03 -8.93759E+02  4.12375E+03  5.57130E+02  2.68072E+03 -1.28124E+03
  1.43254E+03  1.91378E+02 -4.80380E+03 -5.04192E+03 -4.19468E+03 -3.16315E+02  2.45359E+03 -1.24267E+03
 -1.22069E+03 -1.90683E+03  1.07242E+03  3.51876E+03  2.28378E+03 -4.67962E+02 -2.14285E+03  2.94241E+03
 -1.34542E+03  1.63563E+03  3.77827E+03 -1.00822E+03 -2.99014E+03  1.39307E+02 -7.64686E+02 -3.73442E+03
 -1.87442E+02 -3.29579E+03 -1.40260E+02 -1.56401E+03  1.09621E+03  3.01259E+03  3.61849E+01  3.74866E+03
  1.07308E+03  5.73237E+02 -1.35260E+03  3.56326E+03 -6.60596E+02 -4.07725E+03 -8.43049E+02 -4.32212E+03
  2.96316E+03  4.48231E+03 -1.36832E+02 -3.40704E+02  8.55945E+02 -5.76929E+02  5.61596E+03  3.08197E+03
  2.55087E+03  4.13956E+02 -5.88261E+03 -9.16636E+02 -5.45946E+03  2.57262E+03  2.23576E+01 -2.86573E+02
  2.89306E+03  1.88622E+03  7.96125E+03 -1.23441E+03  6.54598E+03  4.03598E+01  3.94226E+01 -7.12785E+02
 -3.82417E+03 -7.52831E+02 -1.33834E+03  5.17451E+02  1.83545E+02 -2.37476E+03  6.42433E+02 -2.45070E+03
  4.21554E+03 -4.73605E+03  1.80591E+03 -9.99640E+02 -1.71635E+03  1.24431E+03 -4.93782E+02  4.87718E+02
 -1.03067E+03 -2.82631E+03  5.74866E+03  2.41274E+01 -3.63358E+02 -5.81416E+02 -1.79914E+03  6.95462E+02
  5.63507E+02  9.63842E+02 -2.27276E+03 -2.35634E+03 -1.01108E+03  2.99428E+03 -2.27390E+02 -3.67916E+03
 -2.82598E+03 -3.67780E+02 -1.23926E+03  1.46049E+03  1.10873E+03 -4.68824E+02  1.07677E+03  1.84204E+03
  4.79046E+03  3.50159E+03 -1.30228E+03  1.23211E+03  2.90249E+03  5.04378E+03 -4.02577E+02  1.81879E+03
 -5.86212E+02 -2.09435E+03  9.35661E+02  4.38894E+01  1.99619E+03 -6.98921E+01 -9.38500E+02 -7.18424E+02
 -5.22185E+03 -1.57482E+03 -1.14535E+03 -2.24982E+03  1.55218E+03 -2.93165E+02 -1.01167E+03 -2.00802E+03
  8.57373E+02 -3.12488E+03  5.30586E+03  3.84691E+03 -1.89700E+03  1.37902E+03  9.18309E+02 -1.53366E+03
 -2.36512E+02  2.92251E+03 -1.60984E+03 -1.79209E+03 -4.62580E+03  3.27374E+03 -1.18895E+03  1.11352E+03
 -8.80357E+02  1.80981E+03  5.82502E+03 -2.57623E+02 -4.26012E+03  1.59460E+03 -1.42389E+03  5.96594E+02
 -3.17973E+03 -4.93633E+02  7.46177E+03  4.05647E+03  4.59070E+03 -1.31719E+03 -2.56026E+03 -2.87948E+03
  4.82671E+03 -1.33790E+03  8.61202E+02  9.97310E+02  2.19752E+03  1.34942E+03 -3.81172E+03 -2.50265E+03
  3.90496E+03 -1.86503E+03 -1.82372E+03 -3.33828E+03  2.32021E+03 -8.81549E+02 -5.99729E+03  1.33770E+03
 -7.34335E+02 -8.58029E+02  8.90116E+02 -2.58958E+03  1.20196E+03 -2.61003E+03  3.12469E+03 -1.97135E+03
 -1.97865E+03  2.09655E+03  9.19642E+02  3.65088E+03 -1.91744E+03  1.11166E+03 -6.05694E+01 -3.11782E+03
  3.32791E+03  2.63118E+03 -3.66288E+02 -7.50066E+02 -2.48985E+02 -2.91087E+03  2.08577E+03 -3.11305E+03
 -5.62444E+02 -1.31757E+03 -3.52252E+03  1.53052E+03 -3.06537E+03 -3.48602E+03 -3.34757E+03 -1.55432E+02
 -2.73059E+03  1.32892E+03 -3.49705E+03  9.67490E+02 -7.87062E+02 -2.29952E+03 -2.35530E+03  1.00127E+03
