 $NMID ID='MM_0lb_SNR50_17hz_g50_41.RAW', FMTDAT='(8E13.5)'
 TRAMP=1., VOLUME=1. $END
  3.09394E+05  5.31418E+03  3.36197E+05  2.51942E+05  8.29435E+04  3.41992E+05 -1.28265E+05  2.47102E+05
 -1.89469E+05  7.94516E+04 -1.11018E+05 -3.25346E+04  1.18124E+03 -4.73049E+04  5.42765E+04 -5.71707E+03
  3.42550E+04  5.24310E+04 -1.65602E+04  7.09194E+04 -6.05613E+04  6.32687E+04 -8.61083E+04  3.10623E+04
 -7.94802E+04 -9.52604E+03 -5.53929E+04 -5.06653E+04 -1.39698E+04 -7.27887E+04  2.55616E+04 -4.71792E+04
  4.17806E+04  1.73596E+03  1.21658E+04  4.43240E+04 -3.86911E+04  4.62878E+04 -7.21294E+04  7.14309E+02
 -5.08554E+04 -5.81609E+04 -5.77145E+03 -7.34249E+04  3.58237E+04 -6.02933E+04  4.40478E+04 -1.38180E+04
  4.10163E+04  8.85434E+03  3.21162E+04  2.62067E+04  1.74325E+04  2.84820E+04 -1.19185E+03  2.63963E+04
 -2.18872E+04  8.48180E+03 -2.19698E+04 -6.08193E+03  3.18232E+03 -7.77101E+03  2.50434E+04  9.91768E+03
  5.42835E+03  3.49876E+04 -3.30875E+04  3.32610E+04 -5.81022E+04  3.55197E+02 -5.74838E+04 -4.21591E+04
 -1.09653E+04 -5.68994E+04  4.20858E+04 -4.07764E+04  5.79333E+04  1.03332E+03  3.53618E+04  3.19894E+04
 -5.31416E+03  2.95017E+04 -2.71391E+04  1.37555E+04 -2.61301E+04  1.42999E+03 -1.36430E+04 -9.15455E+03
 -5.46222E+03 -1.22970E+04 -5.05279E+03 -1.67813E+04  9.19261E+03 -2.44641E+04  1.42058E+04 -1.35060E+04
  1.14065E+04  3.21460E+03 -6.12534E+03  1.25288E+04 -1.64838E+04 -6.07050E+03 -8.09019E+03 -3.02257E+04
  1.82994E+04 -4.27022E+04  4.12272E+04 -1.82614E+04  4.57723E+04  2.22259E+04  1.25540E+04  4.01802E+04
 -1.06574E+04  3.25995E+04 -2.43393E+04  6.81517E+02 -1.21491E+04 -2.84482E+04  1.57041E+04 -3.45563E+04
  4.40317E+04 -1.12618E+04  3.11950E+04  2.10667E+04  1.97508E+04  4.63385E+04 -8.98472E+03  4.57511E+04
 -3.04798E+04  3.04428E+04 -3.67395E+04  6.00688E+03 -4.07195E+04 -1.79616E+04 -2.18464E+04 -3.76922E+04
  9.30817E+03 -3.77775E+04  2.86653E+04 -1.65544E+04  2.93553E+04  9.59536E+03  3.66533E+03  1.68303E+04
 -1.90862E+04  1.16045E+04 -1.23771E+04 -6.64738E+03  5.75120E+03 -7.31393E+03  1.94415E+04  6.75357E+03
  1.55519E+04  2.10955E+04 -4.52411E+03  2.06079E+04 -1.86067E+04  4.91669E+03 -2.62191E+04 -2.66677E+03
 -1.98266E+04 -1.52379E+04 -2.29501E+03 -1.78705E+04  6.10001E+03 -1.59051E+04  1.64301E+04 -1.69104E+04
  2.14349E+04 -1.09879E+04  3.17305E+04  1.12681E+03  2.13491E+04  1.56540E+04 -1.02466E+03  3.20723E+04
 -2.04745E+04  2.94913E+04 -2.74461E+04  8.27627E+03 -1.69428E+04 -8.78621E+03 -2.90015E+03 -1.57503E+04
  2.39717E+03 -4.32131E+03 -7.51385E+02  1.90270E+03 -1.78998E+04  1.64916E+03 -1.18419E+04 -6.44084E+03
 -9.46801E+03 -1.28932E+04  1.10161E+04 -1.87245E+04  1.12866E+04 -1.65786E+04  1.79015E+04 -8.64370E+03
  1.10010E+04  1.09014E+04 -7.18098E+03  1.66393E+04 -6.80984E+03  9.66054E+03 -1.88469E+04 -4.20406E+03
 -1.40056E+04 -1.70993E+04 -5.44909E+03 -2.05820E+04  1.20687E+04 -2.05116E+04  1.66991E+04 -1.00162E+04
  1.73880E+04  6.20345E+03  1.23430E+04  6.59605E+03  7.08804E+03  2.74142E+03  9.11851E+03  3.66507E+03
  1.50086E+04  5.65569E+03  1.96606E+04  1.43987E+04  8.66312E+03  2.34590E+04 -6.74737E+03  2.72179E+04
 -1.64320E+04  2.58184E+04 -2.92498E+04  9.06979E+03 -2.64395E+04 -5.77669E+03 -1.93905E+04 -1.55918E+04
 -9.80564E+03 -1.99490E+04  9.15755E+03 -2.02970E+04  2.01991E+04 -1.61589E+04  1.53229E+04  4.55804E+03
  4.23208E+03  1.22666E+04 -5.89350E+03  1.47088E+04 -1.13384E+04  5.01775E+03 -1.28438E+04 -1.18185E+04
 -8.91970E+02 -1.48719E+04  6.51683E+03 -6.45656E+03  8.64302E+03  1.54509E+03 -1.14818E+03  4.05645E+03
 -4.14781E+03  3.38365E+03 -4.39185E+03 -6.19200E+03  2.25479E+03 -1.05746E+04  1.03756E+04 -1.11951E+04
  1.11421E+04 -4.64776E+03  1.56236E+04  8.09856E+02  1.17203E+04  1.08031E+04  2.34782E+03  1.32895E+04
 -4.14677E+03  1.67087E+04 -1.34335E+04  1.40281E+04 -1.36794E+04  4.75717E+03 -6.65278E+03 -9.62159E+02
 -4.56778E+03 -5.00920E+03  1.61044E+03  2.38875E+03 -4.80195E+03  1.20595E+03 -3.53095E+03  8.62062E+03
 -6.38139E+03  3.81638E+02 -1.08549E+04 -1.03306E+04 -5.84762E+03 -1.04571E+04  7.90553E+01 -9.98730E+03
  3.85453E+03 -2.37805E+03  3.85200E+03  4.81940E+03  2.71169E+03  4.95220E+03 -2.54000E+03 -2.94412E+02
 -9.19672E+03 -8.69762E+03  1.88838E+03 -1.04456E+04  4.57972E+03 -1.22524E+04  1.29488E+04 -6.14952E+03
  1.22611E+04  1.78543E+03  1.11073E+04  8.71852E+03  6.97714E+03  1.17653E+04 -6.59175E+03  4.11350E+03
 -7.85889E+02  3.36163E+03 -1.10908E+02  4.40062E+02  9.36189E+02 -3.74824E+03  8.31061E+03  3.82118E+02
  1.01237E+04  4.36918E+03  1.83457E+03  7.01333E+03 -1.28476E+04  8.10718E+03 -1.03255E+04  5.13390E+03
 -6.48245E+03 -1.92118E+03  6.51651E+03 -3.14675E+03  5.59682E+03 -7.27750E+03  3.98475E+03  5.95763E+02
  2.88146E+02  8.45102E+03 -6.80855E+03  1.02287E+04 -4.87496E+03  1.70182E+03 -9.70475E+03 -7.02121E+03
 -2.92676E+03 -5.70453E+03  1.78480E+03 -6.33028E+03  7.45269E+03 -4.94305E+03  9.11867E+03  2.92178E+02
  7.30100E+03  5.03759E+03  2.64136E+03  8.10543E+03 -6.11236E+03  2.92046E+03 -8.33133E+03  1.65454E+03
 -1.05537E+04 -5.60558E+03 -1.27239E+03 -4.28909E+03  3.81259E+03 -7.17684E+03  1.11285E+03 -3.97267E+03
  3.45026E+03  1.96452E+02 -3.48169E+03  8.16379E+02  3.09408E+02 -1.62286E+03  2.35572E+03 -1.02572E+04
  7.36298E+03 -2.94362E+03  4.17101E+03 -2.87802E+03  7.16969E+03  4.82532E+03  5.07636E+03  8.77726E+03
 -2.42886E+02  7.66535E+03 -1.15703E+04  8.22848E+03 -8.45166E+03  4.48771E+02 -8.40589E+03 -1.95923E+03
 -3.14773E+03 -1.10554E+04  3.27202E+02 -3.90681E+03  1.71305E+03 -3.00206E+03  5.85690E+03 -3.12796E+03
 -2.04407E+03 -3.23466E+03 -7.76556E+02 -1.95974E+03 -3.36454E+02 -1.69876E+03  3.61387E+03  3.34944E+03
  7.51147E+03  1.89536E+03  2.67199E+02  5.63205E+03 -2.46674E+03 -1.43567E+03 -5.26543E+03  4.53925E+03
 -1.57259E+03 -2.60816E+03 -2.64917E+02  3.57417E+02  1.22471E+03 -3.59575E+03 -8.47721E+01 -7.83874E+03
  1.94794E+03 -3.28334E+03  6.67921E+03  1.11530E+03  2.49692E+03  3.20429E+03  2.37800E+03  4.57044E+03
 -3.41537E+02  7.71336E+03 -2.25729E+03  1.09335E+03  2.07888E+03 -3.76877E+03  4.95606E+03 -1.21126E+02
  2.74047E+03 -1.35430E+03 -1.12539E+03  5.05762E+03 -2.15090E+03  1.72997E+03 -5.23312E+03 -2.62561E+03
 -3.30928E+03 -1.01053E+04  2.62352E+03 -7.55999E+03  3.56376E+03 -2.39350E+03  7.34380E+03  6.15113E+02
  4.24340E+03  2.15672E+03  5.05318E+03  2.90210E+03 -2.48963E+03  3.34190E+03 -1.06830E+03  6.52281E+03
 -5.93863E+03 -2.70023E+03 -6.47921E+03  1.33914E+03 -2.05136E+03 -2.41769E+03  3.69721E+03 -1.12418E+03
  3.31005E+03  2.20333E+02  2.48552E+03 -6.62069E+02  2.32500E+03  3.08323E+03  2.78817E+03  3.08511E+03
  8.49532E+03  5.26651E+03 -8.18762E+02 -3.65701E+02 -6.20244E+02  1.33460E+03  4.07432E+03  2.00321E+03
 -5.75377E+03  4.46489E+03  5.67980E+02  1.84071E+03  1.04233E+02  8.76480E+03 -3.62967E+03 -3.26717E+03
 -2.92952E+03 -6.76406E+03  1.21120E+02 -4.49414E+03  1.10637E+03 -5.02467E+03  7.78514E+03 -9.32300E+02
 -4.00048E+03  3.13310E+02  1.65628E+03  3.75043E+03  2.16135E+03 -3.27880E+03  2.45828E+02  1.03621E+03
 -1.46041E+03  1.50382E+03  1.28061E+03 -3.17578E+03  5.96423E+03 -2.23728E+03  3.61486E+03  8.31135E+02
  3.20541E+03 -3.60689E+02 -4.02960E+03 -9.77712E+02  5.54730E+03  2.46877E+03 -5.07534E+02 -1.72392E+03
  1.73289E+03 -7.09640E+02 -7.05039E+02  5.86634E+02  3.05563E+03  2.73255E+03 -8.17898E+02  3.83068E+03
 -3.93454E+03  3.61496E+03 -3.39331E+03 -6.55645E+02 -7.61820E+03 -8.67912E+02 -4.57081E+03 -1.03108E+03
  3.54347E+03  2.29378E+03 -3.61504E+03 -3.08308E+03 -7.05384E+02  4.12350E+03 -2.22239E+03  1.44918E+03
  4.92190E+02  4.36902E+03 -1.50199E+03 -1.09239E+03 -1.87481E+03  4.10320E+02  3.04072E+02  2.58017E+02
  3.99718E+03  2.07258E+03 -4.99609E+02  1.20447E+03  4.09405E+03 -1.27760E+03  2.78302E+02  3.75391E+02
  1.97840E+03  8.37789E+02  6.23706E+02  2.05077E+03 -4.79993E+01 -2.79733E+03  5.66943E+03  9.20004E+02
  4.03900E+03 -2.02810E+03  2.47526E+03  2.88133E+03 -4.25235E+03  3.31339E+03  3.44511E+03  4.03917E+03
 -9.95221E+02  1.95410E+03 -4.68785E+03  1.54847E+03 -2.14287E+03  1.41430E+03  3.97524E+03 -1.62854E+03
  6.83912E+02 -3.11250E+02  2.32985E+03  2.40405E+03  3.01844E+03  4.40009E+03 -1.10997E+03  3.39798E+03
 -3.27232E+03  1.10542E+02  2.11208E+03  4.28976E+03 -7.22347E+01  6.46458E+02 -2.76173E+03  4.22610E+03
 -4.44022E+02  4.97934E+03 -8.04357E+03 -1.66119E+03 -1.08655E+03 -6.12181E+02 -6.60979E+03 -4.78081E+02
 -4.80421E+03 -2.75689E+03  4.26967E+03 -6.59205E+03  3.49646E+03  8.96812E+02  4.19056E+03 -3.92770E+03
  9.76696E+03  3.08548E+03  3.82922E+03 -8.37866E+02 -3.36171E+02  2.80543E+03 -1.53788E+03 -3.63576E+02
 -1.24343E+03  2.11075E+03 -2.35137E+03 -5.22836E+03 -1.47063E+03 -1.24184E+03  2.45387E+03  2.40756E+03
  8.28383E+02  1.26001E+03  2.22575E+03 -9.51382E+01  8.57124E+01 -2.25418E+03 -1.14234E+03 -4.63394E+03
  1.91576E+03  4.64341E+03  7.78482E+02  1.41804E+03 -6.86074E+02 -3.00347E+02 -1.24119E+02 -1.49113E+03
  1.22049E+03  5.58729E+03  8.18854E+02  4.87282E+03 -1.37784E+03  8.16644E+02 -2.22055E+03 -5.14328E+03
  6.24531E+01 -1.90441E+03  8.62749E+02 -4.63228E+03  7.13072E+02 -5.77575E+02  1.99684E+03 -3.20545E+03
  1.68286E+03 -2.72908E+03 -3.03233E+03  7.69728E+02  1.09560E+03 -8.27420E+02 -5.71544E+03 -2.46751E+03
  1.05943E+03 -2.38198E+03  1.91423E+03 -2.63605E+03  1.07096E+03  3.07470E+03 -1.88462E+02 -3.23586E+03
  2.45541E+01 -2.13072E+03  1.24686E+03 -9.85776E+02  1.37385E+03 -8.71583E+01  1.55169E+03 -2.54301E+03
  6.91863E+03 -2.43351E+03 -2.50185E+03 -1.53646E+03 -3.09730E+03  2.62221E+03  4.91001E+03 -1.35903E+03
 -3.69031E+03  3.19847E+03  2.35309E+03 -4.78882E+03 -1.60649E+03 -3.86847E+03  6.27070E+02 -1.51790E+03
 -9.06464E+02  7.10553E+02 -2.42097E+03  3.27605E+02 -5.51349E+03  1.74413E+03 -3.29203E+03 -1.81191E+03
 -7.60303E+03 -2.11077E+02 -3.38651E+03  3.29835E+03 -6.96538E+01 -1.01536E+03 -1.02529E+03  1.83987E+03
  3.59303E+02 -1.11798E+03 -9.34000E+02  1.82564E+03 -5.35993E+03  7.07670E+02 -2.04621E+03  2.49276E+03
