 $NMID ID='MM_0lb_SNR50_15hz_g50_2.RAW', FMTDAT='(8E13.5)'
 TRAMP=1., VOLUME=1. $END
  3.08518E+05  9.06045E+02  3.38028E+05  2.51751E+05  8.59418E+04  3.41346E+05 -1.34486E+05  2.52597E+05
 -1.86613E+05  8.25058E+04 -1.11342E+05 -3.27129E+04  9.28830E+02 -5.08342E+04  5.48951E+04  9.25448E+00
  3.56719E+04  5.40222E+04 -1.55677E+04  7.39924E+04 -5.89333E+04  6.80289E+04 -9.04932E+04  2.97526E+04
 -8.28684E+04 -1.11263E+04 -5.53638E+04 -5.47326E+04 -1.64625E+04 -6.78274E+04  2.72392E+04 -4.37864E+04
  3.97933E+04  3.68106E+03  1.86063E+04  4.82423E+04 -3.68880E+04  4.80029E+04 -6.85142E+04  2.44111E+03
 -5.27095E+04 -5.59025E+04 -2.52521E+03 -8.20951E+04  3.70697E+04 -5.56389E+04  4.64470E+04 -2.05898E+04
  4.45733E+04  1.55945E+04  3.16385E+04  2.89434E+04  1.38646E+04  3.04988E+04 -2.97486E+03  2.96513E+04
 -2.33275E+04  8.65103E+03 -1.65278E+04 -5.41106E+03  2.39600E+03 -7.53267E+03  1.99173E+04  1.54790E+04
  1.44334E+04  3.37409E+04 -3.20779E+04  3.47493E+04 -6.19519E+04  1.34695E+03 -5.33955E+04 -4.31689E+04
 -6.73334E+03 -6.41565E+04  3.69736E+04 -4.08826E+04  5.67704E+04  1.65319E+03  3.16082E+04  3.35164E+04
 -7.00453E+03  3.55892E+04 -2.94882E+04  1.37765E+04 -3.46916E+04 -4.01955E+03 -1.99107E+04 -1.63684E+04
 -6.53089E+03 -1.20935E+04 -4.20505E+03 -2.02808E+04  4.65071E+03 -1.87774E+04  1.84174E+04 -9.61532E+03
  7.53893E+03  3.81793E+03 -7.71415E+03  1.70174E+04 -2.19807E+04 -4.42255E+03 -1.39596E+04 -3.60112E+04
  2.17532E+04 -4.58335E+04  4.62697E+04 -2.01809E+04  4.80622E+04  1.85487E+04  1.55871E+04  4.32879E+04
 -1.83338E+04  3.23011E+04 -2.53210E+04  8.10486E+02 -7.66689E+03 -2.90046E+04  1.99781E+04 -3.89114E+04
  4.47942E+04 -5.52092E+03  3.85476E+04  2.38770E+04  1.95347E+04  4.92732E+04 -7.29009E+03  5.22240E+04
 -2.87371E+04  3.32638E+04 -4.10684E+04  8.26821E+03 -3.64597E+04 -1.58267E+04 -1.94944E+04 -3.80751E+04
  7.07517E+03 -3.38428E+04  3.28084E+04 -1.75609E+04  3.42946E+04  1.42305E+04 -1.36192E+03  1.58753E+04
 -1.05910E+04  5.89308E+03 -1.22511E+04 -1.00465E+04  3.52499E+03 -4.65485E+03  1.34367E+04  6.77160E+03
  1.74478E+04  2.16963E+04 -7.47347E+03  2.23699E+04 -2.51880E+04  1.46981E+04 -3.12256E+04 -8.90108E+03
 -1.73699E+04 -1.78431E+04 -1.00535E+04 -1.82650E+04  5.61331E+03 -1.65896E+04  1.75160E+04 -1.79157E+04
  2.50692E+04 -1.78408E+04  3.39229E+04  1.94487E+03  2.60476E+04  1.79221E+04  3.91477E+03  3.92079E+04
 -2.04671E+04  2.99891E+04 -2.50821E+04  7.93130E+03 -2.11751E+04 -9.00116E+03 -2.51431E+03 -1.46863E+04
  2.62703E+03 -5.10662E+03 -1.15287E+03  8.66626E+03 -1.94652E+04  5.93358E+03 -1.77486E+04 -5.09350E+03
 -1.03631E+04 -2.13967E+04  4.45008E+03 -2.53678E+04  1.78155E+04 -1.34104E+04  1.98490E+04 -4.87918E+03
  1.28444E+04  1.37548E+04 -2.30724E+03  2.26784E+04 -1.61222E+04  1.16768E+04 -1.27638E+04 -5.64092E+03
 -1.34553E+04 -1.66948E+04 -3.13195E+03 -2.25659E+04  1.13381E+04 -1.87779E+04  1.49559E+04 -8.72307E+03
  2.02362E+04  2.41603E+03  1.41670E+04  3.94439E+03  6.04694E+03  6.55026E+03  7.24411E+03 -4.16603E+03
  2.26352E+04  1.18632E+03  1.68221E+04  1.16795E+04  1.04615E+04  3.25491E+04 -2.83852E+03  3.15429E+04
 -1.84629E+04  2.25161E+04 -3.19999E+04  1.71301E+04 -2.65850E+04 -2.19100E+03 -2.59867E+04 -1.40141E+04
 -1.33812E+04 -2.95667E+04  1.02875E+04 -2.62839E+04  1.97371E+04 -1.34715E+04  1.87685E+04  3.77379E+03
  7.11311E+03  1.61787E+04 -7.50200E+03  9.57670E+03 -1.47628E+04  6.10047E+02 -1.30712E+04 -8.97543E+03
 -7.38254E+02 -1.05644E+04  6.70437E+03 -1.04605E+04  7.09775E+03 -3.84948E+03  4.60724E+03  5.94990E+03
 -7.77211E+03  4.20229E+03 -6.07041E+03 -1.05937E+04  1.78871E+02 -1.76389E+04  9.88334E+03 -1.33426E+04
  1.65744E+04 -8.80254E+03  1.94870E+04  5.38797E+03  1.09293E+04  1.45547E+04  1.02149E+03  1.92381E+04
 -3.57898E+03  1.99806E+04 -1.65882E+04  1.68833E+04 -1.31030E+04  6.50766E+03 -1.34427E+04 -2.84071E+03
 -4.36454E+03 -3.08385E+03  1.13803E+03 -1.84372E+02  9.69385E+02 -1.05699E+03 -7.23265E+03  6.94761E+03
 -1.15769E+04  2.85161E+03 -7.87850E+03 -6.83958E+03 -4.51159E+03 -1.68714E+04  3.54398E+03 -1.12885E+04
  5.82771E+03 -7.36484E+02  5.64038E+03  1.43229E+03 -2.61012E+03  1.31949E+03 -4.32187E+03  6.49529E+02
 -9.87818E+03 -8.18425E+03 -4.69919E+03 -7.00576E+03  2.96760E+03 -1.38327E+04  1.13396E+04 -4.21108E+03
  1.90935E+04  6.29699E+02  1.20183E+04  4.64068E+03  5.29420E+03  1.11698E+04 -4.01220E+03  1.53963E+04
 -1.07327E+04  3.43789E+03 -6.53964E+03 -2.19952E+02  5.63232E+03 -4.04523E+03  3.96282E+03 -4.43371E+03
  2.51544E+03  5.01820E+03 -7.93911E+02  5.18339E+03 -7.30634E+03  1.02311E+04 -8.87968E+03 -1.40001E+03
 -5.41277E+03 -5.47935E+03 -3.23404E+03 -9.95213E+03  6.28982E+03 -8.44189E+03  1.06258E+04  9.03485E+02
  1.83248E+03  2.59360E+03 -5.82560E+03  8.08907E+03 -4.29672E+03  2.96010E+03  4.30269E+02 -6.79859E+03
 -4.17166E+03 -1.09685E+04  5.28078E+03 -4.57313E+03  1.43346E+04 -6.94332E+03  1.37495E+04  2.28538E+03
  3.12029E+03  8.82984E+03 -7.56690E+02  1.14334E+04 -8.35383E+03  1.01794E+04 -7.87984E+03 -2.88446E+03
 -7.14919E+03 -7.55401E+03  5.10116E+02 -4.98666E+03  9.39278E+03 -3.68465E+03  3.73536E+02 -1.35003E+03
  5.65911E+03  1.40645E+03 -6.80479E+03 -7.75951E+02  2.80101E+03 -2.62065E+03 -1.07822E+03 -8.10716E+02
  3.50201E+03  3.92161E+03  9.75927E+03 -5.24676E+02  1.01651E+04  5.87358E+03  1.21725E+04  1.11060E+04
 -1.45239E+03  1.30664E+04 -1.22501E+04  1.32326E+04 -1.59274E+04  2.81797E+03 -1.44170E+04 -8.02377E+03
 -1.16997E+03 -1.30616E+04 -6.34066E+03 -8.90249E+03  2.01115E+02 -4.77019E+03  5.00346E+03 -8.95796E+02
  4.44507E+03 -5.62306E+03  4.90713E+03 -2.34822E+03  1.60147E+03  3.89963E+03  4.66226E+03 -9.73531E+02
  9.07054E+03 -5.45907E+03  4.25294E+03  1.18250E+03 -2.19272E+03  9.61898E+03 -6.35353E+03  2.89826E+03
 -4.04021E+03  8.21312E+02 -8.29178E+03 -6.18578E+03 -4.06691E+02 -1.15865E+04  2.36893E+03 -6.70108E+03
  9.43781E+03 -1.19218E+04  8.01487E+03  9.16758E+02  2.77453E+03  8.17324E+03  3.15539E+03  1.43682E+04
 -9.35142E+02  5.60718E+03 -8.80469E+03  1.76395E+03 -2.52580E+03 -5.88513E+03 -1.87591E+03 -3.83436E+02
  3.44149E+03 -1.67968E+03  3.07631E+02 -5.54284E+03 -6.58006E+03  3.89731E+02 -3.36591E+03 -1.83215E+03
 -4.04555E+03 -7.02773E+03  2.46540E+03 -2.60690E+03  2.46247E+03 -4.05354E+03  6.92095E+03 -7.74757E+02
  6.32857E+03  2.21904E+03  4.29980E+03  8.50898E+03 -4.41066E+02  8.73769E+03 -7.48869E+03  5.56552E+03
 -6.95429E+03 -4.92013E+03 -4.98791E+03 -2.82982E+03 -1.79182E+03 -5.37040E+03  3.75607E+03 -3.03040E+03
  3.26728E+03 -1.11776E+03  7.43131E+03  1.22821E+03  1.01885E+03 -9.72659E+02  3.52202E+03 -2.26475E+03
  3.91648E+03 -9.97253E+02  4.34467E+03  2.40696E+03  1.54774E+03  1.39333E+03  4.75301E+03  7.48516E+02
 -4.73382E+03  9.45160E+03 -1.90342E+03  9.00671E+03 -7.56176E+03  2.19675E+03 -9.57526E+03 -4.72917E+03
 -1.33229E+03 -4.29409E+03 -8.78105E+01 -7.49367E+03  4.89009E+03 -3.27465E+03  1.00788E+04 -2.51571E+03
  3.69563E+03 -1.97266E+02  4.47725E+03  4.21574E+03 -3.25874E+03  6.01566E+03 -1.53418E+03  2.05695E+03
 -4.00020E+03  5.57644E+03 -2.59688E+03  2.50484E+02  3.86548E+03  1.05996E+02  1.73226E+02  1.85723E+03
 -1.10145E+03  2.86481E+02 -6.23010E+03  4.09676E+03  1.09757E+03 -7.87815E+02  1.07390E+03 -4.89792E+02
  3.06590E+03  8.16670E+02  1.45995E+03  9.12849E+02  1.46209E+03  4.31893E+03  1.89581E+02  5.30467E+03
 -1.24577E+03  4.92122E+03  3.13489E+02  4.61309E+03 -6.94459E+02 -1.49316E+03 -1.76147E+02 -6.06423E+03
 -3.04587E+03 -3.08035E+03  3.53522E+03 -2.03974E+03  3.16007E+03  3.38779E+02 -3.11857E+03  8.48232E+02
 -3.74737E+03  1.67173E+03 -1.65427E+03 -3.79059E+03  1.18058E+03 -2.70652E+03 -1.23749E+03 -6.21513E+03
  2.09000E+03 -3.96674E+03  7.11298E+03  8.02289E+02  5.04735E+03 -5.11412E+02  2.09968E+03  3.09316E+03
 -2.00680E+03 -4.81821E+02 -1.66190E+03 -1.74203E+03  3.41499E+03 -4.13231E+03  1.97195E+03 -3.57978E+03
  4.05996E+03  2.77365E+03  4.70210E+03  7.33844E+03  1.43940E+03  7.46978E+03 -5.70795E+03  6.19530E+02
 -3.99243E+03  3.52775E+03 -1.37876E+03  2.97368E+03  5.37839E+02 -4.52577E+03  7.83104E+02 -5.19333E+03
  1.07258E+03  1.21940E+03  1.18321E+03  3.46822E+03 -3.94683E+03  3.36138E+03  2.83889E+03 -4.93514E+02
 -6.32578E+03  7.90324E+02 -6.53441E+03 -1.16157E+03 -2.73216E+03  2.33005E+03 -6.15232E+03  6.91552E+02
 -8.13089E+02 -8.59205E+00  2.33385E+03  4.67376E+03 -1.90948E+02  6.18763E+02 -4.51750E+03  1.87151E+03
  4.08024E+03 -6.51674E+03 -5.48795E+03 -5.70236E+03 -4.18587E+02 -2.62789E+03  5.85898E+03 -2.55115E+03
  5.62274E+03 -4.97219E+03  7.25803E+03  8.76080E+03  1.72918E+03  1.30237E+04 -6.43239E+03  6.60440E+03
 -4.74081E+03 -5.16973E+02 -7.88888E+02  1.70345E+03  9.17672E+02  9.50957E+02 -6.57304E+03 -1.20898E+03
 -7.88084E+02  3.94528E+03  5.15199E+03  2.74774E+03 -1.30356E+03  1.22499E+03  3.21098E+03 -1.21312E+03
  1.84085E+03  2.20717E+03  1.84850E+03  2.47424E+03 -4.63965E+02  7.05332E+02 -1.57418E+03  4.89777E+03
  2.22744E+03  5.90839E+03 -1.89254E+03  4.23078E+03 -1.05864E+04  3.18981E+00 -2.72992E+03  2.45308E+02
 -6.60923E+03 -1.00233E+03 -3.38857E+03  6.23587E+02  3.25688E+03 -2.52574E+03  1.37899E+03 -1.39608E+03
  4.01744E+03 -5.09223E+02 -2.04173E+03  3.03907E+03  4.42749E+02  4.09654E+02  1.54103E+02 -5.95213E+02
  1.96920E+03  4.77933E+03 -2.51729E+03  3.35892E+03  9.80011E+02  5.92031E+03  1.64513E+03 -5.57694E+02
 -2.87732E+02 -2.39398E+03 -4.18638E+03  8.08744E+02 -2.29697E+03  3.84769E+02  6.27305E+02 -3.88261E+03
  3.65814E+03 -1.15368E+03  5.33135E+02  1.83314E+02  1.89321E+03 -7.46390E+02  2.59934E+02  6.03458E+03
  2.39522E+03  5.58909E+03 -4.09717E+02 -1.68977E+03 -1.49164E+03  3.44226E+03 -3.21472E+03  6.70871E+03
  2.70983E+03  1.32909E+03  2.83252E+03  1.40303E+03 -2.75974E+02  9.04176E+02 -2.72659E+03 -1.11699E+04
 -8.11596E+02 -2.96968E+03 -6.37057E+03 -8.71504E+03  1.56752E+03 -5.03688E+02  4.67924E+03 -3.26496E+02
 -5.40600E+02 -4.54501E+02  2.17893E+03  7.07424E+02 -2.12022E+03  3.16244E+03  4.28638E+02  2.58896E+03
