 $NMID ID='MM_0lb_SNR50_15hz_g40_38.RAW', FMTDAT='(8E13.5)'
 TRAMP=1., VOLUME=1. $END
  3.12876E+05 -1.34012E+03  3.36898E+05  2.54490E+05  8.53980E+04  3.33079E+05 -1.32600E+05  2.50643E+05
 -1.93377E+05  8.67352E+04 -1.15158E+05 -3.31184E+04  2.86980E+03 -5.24162E+04  5.42342E+04  9.96516E+02
  3.72725E+04  5.10581E+04 -2.05164E+04  7.14834E+04 -5.89308E+04  7.01591E+04 -8.57337E+04  3.54282E+04
 -8.33378E+04 -1.15767E+04 -5.43177E+04 -5.26636E+04 -1.85229E+04 -7.14394E+04  2.59802E+04 -4.82443E+04
  4.22337E+04  4.05670E+03  1.82323E+04  4.80910E+04 -3.66208E+04  4.74105E+04 -6.36258E+04 -2.40736E+03
 -5.18758E+04 -5.42926E+04 -6.51740E+03 -8.13833E+04  3.44195E+04 -5.64773E+04  4.24060E+04 -1.63914E+04
  4.30493E+04  1.00556E+04  2.99484E+04  2.18717E+04  1.13505E+04  2.88339E+04 -6.18277E+03  2.87879E+04
 -2.06776E+04  7.49135E+03 -1.47354E+04 -5.97112E+03  4.44619E+03 -6.25133E+03  2.18583E+04  9.44841E+03
  9.18331E+03  3.32736E+04 -2.97891E+04  3.34174E+04 -6.11288E+04  2.75975E+03 -5.80270E+04 -4.33707E+04
 -9.97667E+03 -6.37103E+04  4.14776E+04 -4.40347E+04  5.81305E+04 -1.51903E+03  3.47588E+04  2.93288E+04
 -2.03409E+03  3.65281E+04 -2.70049E+04  1.37467E+04 -2.30115E+04 -6.75728E+03 -1.49291E+04 -4.43966E+03
 -8.49001E+03 -1.58046E+04  2.55200E+03 -9.70198E+03  7.36880E+03 -2.16740E+04  2.12493E+04 -1.33598E+04
  1.15559E+04  7.01285E+03 -3.58148E+03  1.71415E+04 -2.49150E+04  6.32212E+02 -1.18218E+04 -3.53844E+04
  1.86867E+04 -4.05187E+04  4.65579E+04 -1.92583E+04  4.33753E+04  1.84134E+04  1.46555E+04  4.49396E+04
 -1.93095E+04  2.93472E+04 -2.17176E+04  2.13983E+02 -8.86405E+03 -2.97963E+04  2.32230E+04 -3.09578E+04
  3.94450E+04 -9.35174E+03  3.64645E+04  2.31253E+04  1.68642E+04  4.25454E+04 -1.03783E+04  4.98016E+04
 -2.96877E+04  3.41671E+04 -4.22518E+04  9.44757E+03 -4.10546E+04 -1.26612E+04 -1.97360E+04 -3.81824E+04
  1.03763E+04 -3.40256E+04  2.82305E+04 -1.25069E+04  2.83574E+04  9.47299E+03  3.42481E+03  1.93062E+04
 -1.47957E+04  9.56673E+03 -8.96496E+03 -1.07499E+04  5.07517E+03 -8.75591E+03  1.86041E+04  3.76789E+03
  8.39472E+03  2.12500E+04 -3.92396E+03  2.53783E+04 -2.49512E+04  1.38228E+04 -2.82269E+04 -6.04984E+03
 -1.75079E+04 -1.57792E+04 -7.75778E+03 -1.97100E+04  1.43150E+03 -1.78497E+04  1.38115E+04 -1.73012E+04
  2.39545E+04 -1.90270E+04  3.22836E+04  3.64481E+03  2.39414E+04  1.66731E+04  1.37181E+03  3.28056E+04
 -1.73261E+04  3.17147E+04 -2.83490E+04  1.39836E+04 -2.41285E+04 -1.48877E+04 -7.27860E+03 -1.48727E+04
 -1.00022E+03 -4.22828E+03 -1.23600E+03  6.29419E+03 -1.40233E+04 -4.07838E+02 -1.33493E+04 -6.19815E+03
 -8.38801E+03 -1.43073E+04  3.29517E+03 -2.07318E+04  1.62556E+04 -1.21044E+04  2.03657E+04 -5.33068E+03
  9.60413E+03  9.15838E+03 -4.14138E+03  1.65169E+04 -1.27350E+04  1.19554E+04 -1.61012E+04 -5.16223E+03
 -7.84879E+03 -2.01110E+04 -6.46235E+03 -2.48637E+04  6.71063E+03 -1.63258E+04  2.15796E+04 -2.44657E+03
  1.88035E+04 -3.85139E+03  6.73527E+03 -1.02685E+03  5.71768E+03  2.28613E+03  5.55653E+03 -3.77035E+02
  1.59488E+04  2.39988E+03  2.06626E+04  1.22802E+04  1.04107E+04  3.19161E+04 -2.84547E+03  2.90053E+04
 -1.69275E+04  2.06708E+04 -2.73419E+04  1.61712E+04 -2.79987E+04 -3.19384E+03 -2.70788E+04 -1.78901E+04
 -9.92735E+03 -2.62318E+04  8.38048E+03 -1.95120E+04  1.37625E+04 -1.26869E+04  1.14697E+04  1.70468E+03
  7.66722E+03  1.00451E+04 -7.02638E+03  1.40912E+04 -1.71166E+04  3.66887E+03 -1.12027E+04 -5.77844E+03
 -2.28482E+03 -1.17559E+04  8.41161E+03 -1.30163E+04  9.78453E+03 -4.94093E+02  2.90082E+02  9.17269E+03
 -2.74997E+03  4.43048E+03 -1.97939E+03 -6.98167E+03  2.68680E+03 -1.25634E+04  1.16934E+04 -1.63530E+04
  1.19595E+04 -9.98229E+03  1.39215E+04  7.25498E+02  9.50105E+03  1.53166E+04  3.25438E+03  1.44250E+04
 -4.82320E+03  2.36710E+04 -1.60422E+04  1.46573E+04 -1.49579E+04  4.20749E+03 -8.86740E+03 -1.03165E+03
 -7.41372E+03 -9.29620E+02  4.80063E+02  8.15522E+02  3.47748E+03 -3.46413E+01 -1.61639E+03  2.23584E+03
 -1.02748E+04  2.93571E+03 -1.27553E+04 -1.22038E+04 -5.28134E+03 -1.44357E+04  5.43728E+03 -6.87758E+03
  1.03907E+04 -8.42727E+03  7.60377E+03  1.19869E+03 -9.16741E+02  1.20571E+03 -3.55717E+03 -4.01250E+03
 -5.91876E+03 -9.91261E+03 -4.12391E+03 -1.18210E+04  7.26753E+03 -1.13269E+04  1.50187E+04 -8.12438E+03
  2.09556E+04  3.86219E+01  1.11411E+04  1.07172E+04  3.22217E+03  8.47317E+03 -1.10385E+04  9.03784E+03
 -5.64798E+03  4.43232E+03 -3.29784E+03 -1.39947E+03 -7.66402E+02 -3.24564E+03  4.69306E+03 -1.57895E+03
  1.06905E+04  3.76696E+03  2.13911E+03  6.48007E+03 -7.36556E+03  8.86619E+03 -7.31698E+03  2.61799E+03
 -3.78187E+03 -3.62446E+03  2.88537E+03 -7.07416E+03  4.31801E+03  1.31854E+02  3.47774E+03 -2.95457E+02
  1.99548E+03  1.22726E+03 -3.36627E+03  7.13778E+03 -3.47312E+03  3.66579E+03 -6.84861E+03  5.51020E+02
 -5.43350E+03 -4.75108E+03 -2.33412E+01 -8.40973E+03  9.31721E+03 -5.91675E+03  7.15956E+03  1.92746E+03
  7.01914E+03  3.42877E+03 -6.37473E+02  8.88653E+03 -7.98794E+03  4.20904E+03 -3.90338E+03 -2.53676E+03
 -7.84789E+03 -5.32681E+03 -2.65152E+03 -4.00546E+03  5.75372E+03 -8.76046E+03  1.11115E+03 -2.96742E+03
 -1.75179E+03  3.36362E+03  1.22430E+03  3.42549E+03 -6.99855E+02  1.51373E+03 -7.96916E+02 -2.89071E+03
  1.52141E+04 -2.72073E+03  8.51139E+03  2.75981E+03  7.99192E+03  6.69325E+03  5.50052E+03  1.29368E+04
  2.47063E+02  1.03572E+04 -1.21235E+04  7.62122E+03 -9.37496E+03  6.95288E+02 -7.35539E+03 -6.32826E+03
 -7.92349E+03 -7.67397E+03  2.27570E+03 -6.28848E+03  1.36928E+03  4.74528E+03  2.83919E+03 -5.40401E+03
 -1.87944E+03 -6.42593E+03  8.35055E+03 -2.93099E+03  6.96090E+03 -5.73687E+03  4.92510E+03 -1.00825E+03
  4.96150E+03  2.30408E+03  6.11602E+03  3.37581E+03 -8.61647E+02  8.53985E+03 -6.13630E+03  2.07017E+03
 -6.79702E+03 -1.40790E+03 -7.30327E+03 -5.26240E+03  4.34070E+03 -1.15555E+04  3.91198E+03 -6.97004E+03
  6.62513E+03 -4.61811E+03  4.90530E+03 -1.02889E+03  4.77617E+03  5.73481E+03  4.32030E+03  8.34687E+03
 -2.25165E+03  6.14566E+03 -1.24923E+03 -1.04188E+03 -6.82288E+02 -3.76473E+02 -3.23417E+03 -2.32676E+03
 -2.65748E+03  1.35007E+03  1.77098E+03  2.35312E+03 -1.45639E+03  1.49865E+03 -2.06293E+03  1.80553E+03
 -7.52754E+03 -5.20616E+03  3.29677E+03 -9.09370E+03  3.28659E+03 -8.18396E+03  7.07953E+03 -6.52857E+03
  8.26497E+03  3.05349E+03 -2.18156E+03  9.69514E+03 -8.23059E+02  1.00052E+04 -4.82754E+03  3.70875E+03
  3.71090E+02  7.93326E+02 -5.69477E+03 -4.29884E+03  4.78532E+03 -3.28298E+03 -1.85194E+03 -1.89275E+03
  4.32026E+03  5.47494E+02  6.22344E+03  2.42231E+03 -1.44691E+03  4.74881E+03  1.91981E+03  4.19478E+03
  2.71471E+02  2.36288E+02  3.60033E+03 -2.62956E+03  1.77305E+03  3.93070E+03  4.36902E+03  1.20526E+03
 -2.03229E+02  1.17799E+03 -5.57211E+03  3.09999E+03 -8.30531E+03 -5.04527E+02 -6.49991E+03 -2.62840E+03
  4.41568E+03 -4.52486E+03 -4.68619E+03 -8.56644E+03  3.53988E+03 -3.97630E+03  6.52744E+03 -5.98105E+03
  7.56772E+03  4.47473E+03 -1.51686E+03 -1.32458E+03  2.53512E+03  3.88450E+03 -1.14603E+04  1.83149E+03
 -1.52048E+03 -8.70947E+03  4.00201E+03 -8.17639E+02  4.56890E+02 -1.84092E+03  5.76418E+03 -9.26515E+02
  7.91949E+01  4.78089E+02 -4.85750E+02 -7.67182E+02  5.06168E+02  2.78736E+03 -2.02352E+03  4.05061E+03
  1.27357E+03 -2.45393E+03  6.86261E+03 -1.08603E+03  4.45618E+02  5.52402E+03 -1.82266E+03  5.72339E+03
 -6.80021E+03  4.20695E+03 -2.89099E+03  3.69491E+03 -4.60118E+03 -2.35231E+03 -4.28250E+03 -2.56407E+03
 -2.13614E+03 -2.07575E+03 -1.40030E+03 -3.41848E+03  4.27917E+02  1.18196E+03  1.54652E+03  1.19558E+03
 -4.01344E+03  1.04861E+03 -3.30545E+03 -1.45145E+03 -8.68452E+03 -2.39058E+03  2.46537E+03 -1.13854E+03
 -7.91693E+02 -2.41548E+03  5.70065E+02  7.67326E+00 -3.50149E+03 -1.61753E+03 -3.04453E+03  3.17876E+03
  2.20357E+03 -1.91024E+03 -4.40143E+03  2.26251E+03 -1.21405E+03 -8.60177E+01  8.58162E+03  3.18665E+03
  1.20804E+03  3.48868E+03  2.87629E+03  1.75965E+03 -2.57326E+03  3.39151E+03 -1.01552E+03 -2.77191E+02
 -1.50814E+03  1.60897E+02 -4.10787E+03 -5.22071E+02  4.65451E+01 -2.46140E+00  2.16242E+03 -5.44181E+02
  2.09529E+03 -4.74179E+03  4.99925E+03  3.23181E+03 -6.22887E+01  2.90807E+03 -5.69183E+02  5.45207E+02
 -6.91455E+02  1.35242E+03  8.48837E+02  2.94219E+03  2.94092E+03 -1.69599E+03  9.05899E+00 -2.87073E+03
 -2.00667E+03  4.86934E+03 -2.34265E+03  4.53420E+02 -7.33110E+02  3.37759E+03  6.10159E+02 -2.33667E+03
 -3.08089E+03 -4.12568E+03  2.16388E+01 -7.93246E+03  3.88113E+03 -1.09847E+03  3.09535E+03 -2.24082E+03
  4.10070E+03 -3.33505E+03  1.47369E+03  7.16075E+03  1.27907E+03  2.80685E+03 -4.34792E+03  2.83777E+03
 -3.83787E+03  2.78844E+03 -3.37546E+03  3.09839E+03 -4.11571E+03 -3.93232E+03 -1.13024E+03  9.10395E+02
 -1.88302E+03  2.09598E+03 -3.50875E+03 -1.48969E+03 -2.55521E+03  7.88839E+02  1.09122E+01 -4.60500E+02
  2.96304E+02 -4.97376E+03  4.50666E+03  7.96931E+03  2.92011E+03  2.20321E+03 -5.87453E+02  8.72094E+03
 -7.70529E+03 -9.80161E+01 -5.13968E+03  2.76711E+03 -2.67729E+03  2.58837E+03 -3.22387E+03 -5.96675E+02
 -1.40433E+02 -3.84536E+02  1.78974E+02 -5.80274E+03  3.76306E+03  1.94762E+03  4.39194E+03  2.41097E+03
 -2.08866E+02  3.18707E+03 -1.60564E+03  9.15675E+02  1.70513E+03  5.91350E+03 -3.76447E+03 -5.30887E+03
 -2.77882E+03 -2.89101E+03  4.24870E+02 -3.96000E+01  1.00676E+03 -9.75606E+01  2.54431E+03  1.67659E+03
 -1.37129E+01  1.22237E+03 -5.56863E+03 -2.18198E+03  3.86382E+02  3.38800E+03  1.91513E+03 -2.44757E+03
  1.45998E+03  2.17447E+03  2.57972E+03 -2.09074E+03 -2.27157E+03 -3.42954E+03 -1.53804E+03  5.98227E+02
  3.31178E+03 -8.57482E+01 -4.63887E+01  2.91331E+03 -8.21960E+01  3.96836E+03  1.47243E+03 -1.17103E+03
 -1.14664E+03  2.94690E+03 -1.67584E+03 -9.07650E+02  4.98939E+02 -1.23800E+03 -3.75409E+03  3.52684E+01
 -1.63890E+03 -2.59605E+03 -7.14419E+03 -2.49572E+03 -1.11819E+03 -2.38687E+03  3.31670E+03 -3.10474E+02
 -7.93729E+00  1.97852E+03 -2.39134E+03  1.61938E+03 -2.63421E+03  1.85392E+03  3.82809E+01  2.84961E+03
