 $NMID ID='MM_0lb_SNR50_7hz_g50_59.RAW', FMTDAT='(8E13.5)'
 TRAMP=1., VOLUME=1. $END
  3.09256E+05 -2.90565E+03  3.39187E+05  2.54407E+05  8.51417E+04  3.42340E+05 -1.33858E+05  2.52093E+05
 -1.86404E+05  8.47504E+04 -1.14631E+05 -3.31662E+04 -6.75637E+02 -5.09510E+04  5.65479E+04 -7.27109E+02
  3.31236E+04  5.09536E+04 -1.17727E+04  7.16167E+04 -6.98068E+04  6.12956E+04 -8.94122E+04  3.98041E+04
 -7.87733E+04 -1.06419E+04 -5.65918E+04 -4.96057E+04 -1.29661E+04 -7.46588E+04  2.89999E+04 -4.87445E+04
  4.08836E+04  5.65613E+03  2.12228E+04  4.88192E+04 -3.51591E+04  5.57126E+04 -7.01271E+04 -2.77336E+03
 -5.52467E+04 -5.23341E+04 -5.14383E+03 -8.13255E+04  3.05771E+04 -5.26058E+04  4.57444E+04 -1.59110E+04
  4.66060E+04  1.09662E+04  3.75071E+04  3.45317E+04  1.76263E+04  3.76033E+04 -1.06968E+04  2.23373E+04
 -2.23506E+04  1.28270E+04 -1.49898E+04 -5.87255E+03  7.11343E+03 -1.02573E+04  2.71793E+04  1.65856E+04
  5.16699E+03  3.22573E+04 -3.18904E+04  4.14023E+04 -6.58974E+04 -9.07146E+02 -5.88090E+04 -4.33378E+04
 -1.21161E+04 -6.70479E+04  4.40271E+04 -4.53201E+04  6.19066E+04 -4.71532E+03  3.58815E+04  3.10598E+04
 -1.48742E+04  4.00155E+04 -3.00387E+04  2.08417E+04 -3.58286E+04 -1.35876E+03 -2.23411E+04 -1.52300E+04
 -1.26155E+04 -1.79889E+04 -2.33058E+03 -1.78607E+04  1.03995E+04 -1.61246E+04  9.70186E+03 -1.05442E+04
  1.37174E+04  8.31109E+03 -1.32227E+04  1.30062E+04 -2.56254E+04 -1.21958E+04 -6.79867E+03 -3.14661E+04
  2.59496E+04 -4.61351E+04  5.07404E+04 -1.75448E+04  5.24045E+04  2.14296E+04  1.83070E+04  5.00996E+04
 -1.66049E+04  4.28482E+04 -2.87202E+04  2.97928E+03 -1.93515E+04 -3.53831E+04  2.53903E+04 -3.97505E+04
  4.70461E+04 -4.91683E+03  5.16069E+04  2.59843E+04  3.09685E+04  5.46803E+04 -1.38641E+04  5.52300E+04
 -3.26831E+04  3.78289E+04 -4.55711E+04  9.31143E+03 -4.80765E+04 -8.80130E+03 -2.80192E+04 -3.99526E+04
  8.25555E+03 -4.64733E+04  3.31386E+04 -1.52467E+04  3.03268E+04  9.80268E+03  2.47027E+03  2.68722E+04
 -1.53126E+04  5.39791E+03 -1.52031E+04 -5.61544E+03  2.22274E+03 -7.30323E+03  1.87074E+04  4.89470E+03
  1.19829E+04  2.38929E+04  2.93414E+03  2.38742E+04 -2.51418E+04  1.42082E+04 -3.55184E+04 -2.34142E+03
 -2.53042E+04 -1.97339E+04 -1.65629E+04 -2.32715E+04  1.26388E+03 -2.29487E+04  1.98336E+04 -2.66935E+04
  3.25707E+04 -1.97204E+04  4.71757E+04  7.55217E+03  2.50288E+04  2.44796E+04  9.34360E+03  3.77635E+04
 -1.51376E+04  3.51636E+04 -3.38791E+04  1.21146E+04 -2.96598E+04 -1.01116E+04 -1.52822E+03 -1.13301E+04
  7.81869E+02  4.95388E+03 -1.79536E+04  1.69904E+04 -2.49048E+04 -1.60290E+03 -1.81279E+04 -1.08671E+04
 -1.91238E+04 -2.55979E+04  6.22027E+03 -3.70253E+04  2.38772E+04 -1.38326E+04  1.27671E+04  5.08981E+03
  1.61759E+04  1.49070E+04 -4.11251E+03  3.00372E+04 -9.20608E+03  1.27249E+04 -2.53484E+04 -7.13719E+03
 -1.56514E+04 -1.91499E+04 -2.97425E+03 -2.99135E+04  1.61229E+04 -2.11637E+04  3.08378E+04 -9.03825E+03
  2.88419E+04  5.17772E+03  2.17684E+04  5.38107E+03  1.26786E+04  8.42704E+03  9.42205E+03 -1.21746E+03
  2.90388E+04  5.82026E+03  2.41146E+04  1.43238E+04  1.23229E+04  3.88874E+04 -2.39783E+03  4.35971E+04
 -2.25950E+04  4.17387E+04 -4.99320E+04  2.17992E+04 -5.55864E+04  3.40043E+03 -3.80253E+04 -2.89501E+04
 -1.30094E+04 -3.95856E+04  1.69945E+04 -4.01252E+04  3.14410E+04 -8.56439E+03  2.32644E+04  6.62274E+03
  1.32936E+04  2.41373E+04 -8.83637E+03  1.83387E+04 -2.48078E+04  7.35277E+03 -8.07334E+03 -8.07083E+03
 -2.82818E+03 -2.11834E+04  1.13034E+04 -2.16846E+04  2.12647E+04 -2.58412E+03  3.67504E+03  5.78808E+03
 -1.08373E+04  6.37600E+02 -5.83135E+03 -1.22846E+04 -6.26242E+03 -1.99535E+04  1.28180E+04 -2.21811E+04
  2.89114E+04 -4.99838E+03  3.71067E+04  6.07668E+03  3.20147E+04  2.19639E+04  1.42486E+04  2.89373E+04
 -1.09837E+04  3.79877E+04 -2.44058E+04  2.65608E+04 -2.61497E+04  1.57853E+03 -1.08189E+04 -1.14457E+04
 -6.12349E+03 -1.28798E+04 -1.41136E+02  7.92881E+02 -4.71100E+02  7.40232E+03 -1.21992E+04  8.76511E+03
 -1.90894E+04 -8.65979E+03 -1.35180E+04 -1.56261E+04 -1.32288E+04 -2.24207E+04  1.39843E+03 -1.42362E+04
  1.40877E+04 -4.56632E+03  5.48633E+03  3.37998E+03 -2.34500E+03  9.04299E+03 -3.05841E+03 -1.04944E+03
 -1.59234E+04 -1.52140E+04  4.51357E+03 -1.57003E+04  2.01173E+04 -1.33177E+04  2.73474E+04 -1.13203E+04
  1.93766E+04 -7.10705E+02  2.29438E+04  1.44140E+04 -3.93510E+03  1.17940E+04 -4.90914E+03  2.35687E+04
 -1.79387E+04  1.84212E+03 -1.26394E+04 -1.48386E+03 -2.08882E+03 -5.78533E+03  2.26362E+03  3.52512E+02
  7.39563E+03  5.57146E+03 -4.08825E+03  1.25023E+04 -8.03394E+03  1.65271E+04 -1.38178E+04  6.42532E+03
 -1.72286E+04 -6.82560E+03 -1.99070E+03 -1.56920E+04  8.75120E+03 -1.15182E+04  1.11560E+04  8.52119E+03
  1.04088E+04  1.50027E+04 -3.44851E+03  1.63963E+04 -1.35208E+04  3.37957E+03 -1.92429E+04 -1.16101E+04
 -9.17232E+03 -1.79336E+04  9.84585E+03 -1.71735E+04  2.39021E+04 -1.16797E+04  1.50579E+04  5.17449E+03
  9.48020E+03  9.43932E+03  1.95315E+03  2.57573E+04 -9.97954E+03  4.06925E+03 -1.36712E+04  7.22807E+02
 -1.42316E+04 -9.87162E+03 -2.82634E+03 -1.90328E+04  1.00464E+04 -1.42898E+04  1.16802E+04 -3.20322E+03
  5.03139E+03  1.20242E+04 -2.77788E+03  5.15906E+03 -3.89408E+03 -3.58075E+03  4.03247E+03  2.01165E+03
  2.00367E+04 -9.83627E+03  1.81690E+04  1.03465E+04  1.83336E+04  1.30340E+04  8.52102E+03  2.47753E+04
  5.52305E+03  3.25021E+04 -1.52750E+04  2.03638E+04 -2.71095E+04 -4.92175E+02 -2.11277E+04 -1.22218E+04
 -1.01843E+04 -1.82548E+04  1.36108E+03 -2.22025E+04  3.17973E+03 -1.38749E+04  1.05702E+04 -8.17123E+03
  3.72841E+03 -5.85171E+03  4.65438E+03 -9.86785E+03  1.19010E+04  3.61518E+02  1.11096E+04  1.35305E+03
  5.97205E+03  1.78272E+03  7.36594E+03  5.91614E+03 -6.70302E+03  9.99633E+03 -1.49124E+04  9.23003E+03
 -1.88978E+04 -5.93882E+03 -1.08227E+04 -1.18030E+04 -2.09041E+03 -1.73729E+04  4.50445E+03 -1.91256E+04
  2.38980E+04 -8.44664E+03  1.80680E+04  5.46432E+03  1.95892E+04  1.82821E+04  1.44142E+03  2.26823E+04
 -2.90953E+03  1.88982E+04 -1.21593E+04  5.39281E+03 -1.27580E+04 -4.51843E+03  3.82450E+03  3.91976E+03
  2.39627E+02  9.65676E+02 -2.29564E+03  2.32160E+03 -7.94944E+02  2.63721E+03 -1.53847E+04 -1.02978E+03
 -8.39770E+03 -8.46390E+03 -3.05317E+03 -1.14159E+04  8.73755E+03 -1.44061E+04  1.56406E+04  3.62102E+02
  2.34029E+04  3.92891E+03  4.06121E+03  1.49700E+04 -3.46700E+03  2.08112E+04 -1.20675E+04  1.09876E+04
 -1.02900E+04 -1.07180E+03 -1.49065E+04 -8.26647E+03 -3.94191E+03 -2.08066E+04  1.61793E+03 -8.22146E+03
  9.50758E+03  9.39488E+02  6.31439E+03  5.21081E+03  3.28391E+03 -1.59458E+03  5.89956E+03  3.41135E+03
  4.46767E+03 -1.49287E+03  1.45629E+04  2.77263E+03  5.31305E+03  1.09605E+04  1.57662E+03  8.19793E+03
 -8.39503E+03  1.69653E+04 -1.54304E+04  6.28359E+03 -2.26467E+04  4.08999E+01 -1.76285E+04 -8.49163E+03
 -9.10869E+03 -1.83923E+04 -2.77634E+03 -1.76132E+04  1.16159E+04 -1.20797E+04  2.19468E+04 -2.48633E+03
  9.98241E+03  3.52252E+03  5.62973E+03  1.12800E+04 -6.85982E+03  7.77133E+03 -9.11939E+03 -1.27545E+03
 -3.18421E+03 -5.19102E+03  6.39634E+03 -8.93406E+03  5.90896E+03  1.49019E+03  8.50822E+03  9.85860E+03
  3.28181E+03  6.41670E+03 -3.53724E+03 -1.30299E+03 -6.13945E+02  4.21036E+03  8.95164E+03  6.16886E+03
  2.16912E+03 -2.12078E+03  4.50681E+03  5.05628E+03  5.03957E+03  4.64735E+03 -9.24069E+03  1.37956E+04
 -9.23600E+03  5.93307E+03 -1.46874E+04 -2.60834E+03 -1.49861E+04  1.39553E+03 -3.48528E+03 -8.52261E+03
 -9.96834E+02 -7.04953E+03  1.96716E+03  2.34982E+03  5.19106E+03  1.49384E+04 -1.14793E+03  3.94305E+03
 -5.97012E+03 -3.45934E+03 -1.61832E+04 -3.16530E+03 -9.17238E+03 -1.00382E+04  2.92615E+03 -1.06528E+04
  5.32697E+03 -8.36574E+02  7.21403E+03  1.97520E+03  8.24834E+03  7.06728E+03  3.23332E+03  1.19841E+03
 -1.98398E+03  1.08343E+03 -1.38497E+04  1.26232E+01 -4.44369E+03 -1.04884E+03  9.06918E+03 -3.24193E+03
  1.40099E+04 -4.63988E+02  1.34218E+04  1.04934E+04 -2.06017E+03  1.33338E+04  3.08842E+03  1.34341E+04
 -1.20063E+04  7.97019E+03 -1.82825E+04 -7.91076E+03 -5.70972E+03 -1.85091E+03  1.70894E+03 -4.61076E+03
  8.10888E+03 -1.11936E+03  2.64868E+03 -1.94958E+01  1.16515E+04  5.67633E+03 -7.16021E+03  1.25960E+04
 -3.40323E+03 -1.51115E+01 -5.96785E+03  4.08662E+03 -1.93379E+03 -8.54865E+02  1.11214E+01  9.91432E+03
  2.80276E+03  1.37170E+04 -5.49712E+03  1.07170E+04 -1.18583E+04  5.39122E+03 -1.19642E+04 -9.93266E+03
 -4.90992E+03 -1.79194E+04 -1.56782E+03 -2.15944E+04  1.77003E+04 -1.66344E+04  2.64766E+04 -6.90743E+03
  1.97549E+04 -1.83683E+02  1.55024E+04  1.39680E+04  6.01734E+03  1.45444E+04 -2.20725E+03  1.30226E+04
 -4.63007E+03  3.13757E+03 -2.84409E+03 -4.79469E+03 -3.31191E+02 -8.34500E+03  1.01622E+02  3.70967E+03
 -6.64570E+02 -5.82858E+03  5.57405E+03 -2.02096E+03  1.29753E+03 -6.74533E+03  1.26353E+03  1.66370E+03
  6.94733E+03 -8.47198E+03  2.43075E+03 -7.15793E+03  1.33041E+04  1.28169E+04  1.13709E+03  1.33265E+04
 -8.06189E+03  1.40992E+04 -1.82765E+04  7.26633E+03 -1.51695E+04 -2.97999E+03 -1.31043E+04 -1.59776E+04
 -5.89992E+03 -7.49515E+03  9.68916E+03 -1.57438E+04  1.16515E+04 -1.43704E+04  8.01164E+03  1.59501E+02
  4.88731E+03  7.92146E+03  6.16353E+03  3.89884E+03 -1.83603E+03 -1.48852E+03  2.95106E+03 -1.98874E+03
  1.50889E+03 -2.23557E+03  4.12651E+03  2.14645E+03  4.90250E+03  8.91164E+03 -1.30699E+02  7.09431E+03
 -6.35694E+03  6.82900E+03 -1.62798E+04 -3.16001E+03 -1.22436E+04 -6.49760E+03 -1.06224E+04 -1.26652E+04
  9.62818E+03 -9.77550E+03  1.59855E+04 -2.81972E+03  9.60356E+03  9.62795E+03  4.54043E+03  1.43071E+04
  8.27228E+03  1.20544E+04 -1.36769E+04  6.72664E+03 -5.69798E+03  8.81335E+03 -8.13180E+03  2.78146E+03
  4.36643E+03  3.90795E+03 -4.28117E+03  1.17943E+03 -1.25049E+04  2.96067E+03 -4.32691E+03  1.94231E+03
 -1.08075E+04 -2.42519E+02 -3.86573E+03 -1.43939E+04  3.93532E+03 -2.38606E+04  7.66369E+03 -2.03364E+03
  1.29884E+04  4.44436E+03  1.02039E+04  8.68878E+03 -9.56337E+02  1.22732E+04 -2.60358E+02  8.27286E+03
