 $NMID ID='MM_0lb_SNR50_16hz_g45_76.RAW', FMTDAT='(8E13.5)'
 TRAMP=1., VOLUME=1. $END
  3.10000E+05  2.89343E+03  3.36953E+05  2.51463E+05  8.39231E+04  3.35933E+05 -1.36973E+05  2.50645E+05
 -1.92884E+05  7.98246E+04 -1.14246E+05 -3.33917E+04  3.03713E+03 -4.73550E+04  5.52751E+04  2.22853E+03
  3.28485E+04  5.52158E+04 -1.84691E+04  7.96228E+04 -5.87767E+04  6.10757E+04 -8.35289E+04  3.38513E+04
 -7.87432E+04 -1.39642E+04 -5.54684E+04 -5.40636E+04 -1.26631E+04 -7.21175E+04  2.82924E+04 -4.76155E+04
  3.57768E+04  6.06926E+03  2.13571E+04  4.65317E+04 -3.66465E+04  4.54104E+04 -7.04501E+04 -2.75604E+03
 -5.17127E+04 -5.90123E+04 -3.91354E+03 -7.78963E+04  3.13937E+04 -5.26414E+04  4.56154E+04 -1.73547E+04
  4.04278E+04  1.14604E+04  3.02444E+04  2.65900E+04  2.02758E+04  2.98866E+04 -2.59086E+03  2.64485E+04
 -2.32802E+04  1.34455E+04 -2.21759E+04 -5.70475E+03  3.56999E+03 -4.11733E+03  2.04486E+04  1.57342E+04
  8.42656E+03  3.38350E+04 -3.55220E+04  3.64798E+04 -6.55492E+04 -7.59631E+02 -5.82540E+04 -4.29453E+04
 -1.17529E+04 -6.35378E+04  3.94133E+04 -4.24357E+04  5.60474E+04 -2.64219E+03  3.32279E+04  3.08184E+04
 -3.49516E+03  3.72237E+04 -3.35071E+04  1.19527E+04 -2.69443E+04 -3.28101E+03 -1.19017E+04 -1.12693E+04
 -7.04872E+03 -1.19245E+04 -3.35470E+03 -1.75118E+04  4.59109E+03 -2.51070E+04  1.41998E+04 -1.28200E+04
  1.25591E+04  1.65432E+03 -8.15713E+03  1.34733E+04 -1.98510E+04 -3.83698E+03 -8.60663E+03 -2.90799E+04
  2.26981E+04 -3.87911E+04  4.64113E+04 -2.17804E+04  4.34248E+04  1.68467E+04  1.18727E+04  4.64206E+04
 -1.39451E+04  3.18977E+04 -2.77671E+04 -1.46687E+03 -8.81084E+03 -2.55515E+04  2.05039E+04 -3.43794E+04
  3.81340E+04 -1.26868E+04  3.41194E+04  1.96970E+04  1.99558E+04  4.39742E+04 -6.73918E+03  4.38339E+04
 -3.17890E+04  3.10387E+04 -3.93778E+04  1.20401E+04 -3.97996E+04 -1.47571E+04 -2.32166E+04 -3.81627E+04
  5.90300E+03 -4.15503E+04  2.99417E+04 -1.14357E+04  2.88830E+04  1.08102E+04  5.44917E+03  2.27526E+04
 -1.23301E+04  8.87322E+03 -9.40906E+03 -1.06245E+04  5.47030E+03 -8.37916E+03  1.70864E+04  1.79958E+03
  1.47292E+04  2.15033E+04 -6.08247E+03  2.68615E+04 -2.08483E+04  1.21406E+04 -2.73622E+04 -4.70080E+03
 -1.55997E+04 -1.35925E+04 -6.52455E+02 -1.26821E+04  9.82690E+03 -1.57822E+04  1.43367E+04 -1.95044E+04
  2.24429E+04 -1.22515E+04  2.72326E+04 -3.76151E+03  2.24740E+04  1.26906E+04  3.69916E+03  3.47990E+04
 -1.69273E+04  2.37057E+04 -2.49047E+04  9.00822E+03 -2.04830E+04 -1.01901E+04 -6.26691E+03 -1.23463E+04
  5.39658E+03 -5.30849E+03 -4.16763E+03  7.31083E+03 -1.35018E+04  6.36037E+02 -1.66403E+04 -8.29880E+03
 -1.11091E+04 -1.76913E+04  3.74984E+03 -2.11848E+04  1.29074E+04 -1.77034E+04  1.41984E+04  1.73091E+03
  1.03845E+04  8.45563E+03 -1.18445E+03  1.37797E+04 -1.29707E+04  8.74723E+03 -2.00969E+04 -3.20195E+03
 -1.86590E+04 -1.66409E+04 -3.63200E+03 -2.19727E+04  4.79983E+03 -1.94523E+04  1.44333E+04 -7.41927E+03
  1.67975E+04 -2.11494E+03  9.86259E+03  4.07296E+02  5.94062E+03  2.48849E+03  8.26913E+03 -1.95451E+03
  1.43945E+04  6.78846E+03  1.19699E+04  1.30589E+04  1.29450E+04  2.52950E+04 -9.60416E+01  2.82191E+04
 -1.57928E+04  2.41521E+04 -2.83600E+04  1.45597E+04 -3.37151E+04  5.24948E+02 -2.36458E+04 -1.62943E+04
 -1.23005E+04 -2.34055E+04  9.16908E+03 -2.28202E+04  1.74300E+04 -1.11500E+04  1.57509E+04  8.85962E+03
  5.35333E+03  9.08293E+03 -3.31378E+03  9.70377E+03 -1.02667E+04 -3.64151E+02 -1.01096E+04 -1.20057E+04
 -1.67207E+03 -1.61286E+04  8.14148E+03 -9.53330E+03  9.96759E+03 -7.51157E+01  1.57600E+03  3.83914E+03
 -4.94185E+03 -4.63483E+03 -4.87297E+03 -9.64273E+03 -3.16988E+03 -1.00203E+04  7.17828E+03 -1.00297E+04
  1.57927E+04 -7.43790E+03  1.20479E+04  5.39723E+03  1.14884E+04  1.23815E+04  6.64204E+03  1.57609E+04
 -6.87980E+02  1.37217E+04 -9.46718E+03  9.94314E+03 -1.23193E+04 -3.86331E+02 -7.58533E+03 -5.41682E+02
 -8.34122E+03 -2.51021E+03  4.29807E+03 -5.00146E+02 -1.93816E+03 -1.68526E+03 -5.48147E+03  8.13884E+02
 -6.75939E+03  1.02089E+03 -4.63426E+03 -7.72343E+03 -4.54093E+03 -1.63254E+04  7.00987E+02 -1.30954E+04
  6.77907E+03 -6.15449E+03  1.06584E+04  8.01761E+02  7.11587E+03  3.82795E+03 -1.12776E+03  3.66350E+03
 -3.67961E+03 -5.81216E+03 -6.02795E+02 -7.15572E+03  1.05710E+03 -1.27320E+04  9.91357E+03 -3.73113E+03
  1.18274E+04  3.75127E+03  9.34853E+03  1.21388E+04  4.57835E+03  8.31800E+03 -2.88959E+03  8.08045E+03
 -8.86581E+03  1.03616E+04 -2.01221E+03  2.35836E+03 -1.16252E+02 -1.09467E+03  3.84794E+03 -3.03711E+03
  3.09105E+03  5.60361E+03 -2.70732E+02  6.61229E+03 -6.34898E+03  3.48969E+03 -6.90363E+03  1.26929E+03
 -6.14363E+03 -5.90876E+03 -4.54860E+02 -8.61990E+03  4.72047E+03 -2.29682E+03  2.20119E+03 -1.72346E+02
  5.83419E+01  5.76738E+03 -7.82382E+03  6.29108E+03 -1.07554E+04  1.45865E+03 -2.43824E+03  2.74425E+02
 -3.68814E+03 -1.29776E+04  9.06055E+02 -5.81077E+03  1.04200E+04 -5.58276E+03  1.05732E+04  3.94178E+03
  5.93130E+03  8.75923E+03  3.91839E+03  1.17275E+04 -6.82054E+03  3.37978E+03 -8.90681E+03  1.73092E+03
 -6.19190E+03 -3.66323E+03  8.85073E+02 -2.71756E+03  3.29917E+03 -5.47476E+03  3.13978E+03 -5.17347E+03
  4.75564E+03  3.92013E+03 -4.58681E+03  5.33203E+02 -3.81717E+02  2.57310E+03  2.67547E+02 -3.74865E+03
  5.39091E+03 -3.62994E+03  7.28967E+03  5.32926E+02  5.08516E+03  2.46890E+02  4.88312E+03  1.39572E+04
  2.66615E+02  1.06178E+04 -1.00250E+04  5.70051E+03 -1.51390E+04  3.49029E+03 -7.16373E+03  1.16993E+03
 -2.24252E+03 -9.54738E+03  1.06816E+03 -6.09688E+03  3.40596E+03 -4.81076E+03  3.43647E+03 -3.09230E+03
  2.77235E+03  2.12787E+03  5.46566E+03 -9.29783E+03  1.58196E+03  2.48103E+03  3.47452E+03 -1.33702E+02
  7.15744E+03  7.67645E+03 -1.37009E+03  5.00935E+03 -1.73782E+03  1.47733E+02 -4.17336E+03  4.45384E+03
 -8.91380E+03 -1.21474E+03 -3.76411E+03 -5.02312E+03 -1.20350E+03 -8.73025E+03  2.97582E+03 -6.27241E+03
  8.27956E+02 -4.82978E+03  6.26618E+03  6.47905E+02  5.99936E+03  7.53499E+03 -2.74438E+03  9.06862E+03
 -2.27736E+03  3.34649E+03 -1.99663E+02  4.85347E+03 -8.73026E+02  1.58687E+03 -1.18486E+03  9.48788E+02
 -2.67637E+03 -2.07714E+03 -7.62773E+02  5.66288E+03  7.10459E+02 -7.08934E+02 -6.68228E+03 -1.78435E+03
 -1.39118E+03 -3.64153E+03 -4.45113E+03 -6.40473E+03  5.75387E+03 -3.14413E+03  5.13068E+03  4.48276E+03
  7.10473E+03  3.31591E+03 -1.06057E+03  4.41017E+03 -3.96265E+02  6.46558E+03 -5.78782E+03  1.13364E+04
 -6.45646E+03 -6.86141E+02 -6.65618E+03 -4.07961E+03 -1.21566E+03 -4.19105E+03  3.16566E+03 -2.66427E+03
  8.47781E+03 -6.75950E+02  3.87668E+03 -2.87021E+03 -2.23095E+03 -3.11196E+03  4.70719E+03 -1.67829E+03
  3.63727E+03 -2.58404E+03 -3.29739E+02  4.43063E+03  2.77563E+03  1.31232E+03  1.92876E+03  5.53077E+03
 -2.33953E+03  3.25557E+03 -3.69489E+03  9.16252E+03 -2.52402E+03  2.10591E+03 -1.00525E+04 -1.63045E+03
 -7.08966E+03 -8.24317E+03  5.89565E+03 -4.57007E+03 -2.62856E+03 -3.97578E+03  3.04153E+03  1.62723E+03
  3.72084E+03  3.60890E+03 -2.11537E+03  1.88727E+03  4.65892E+02  3.52030E+03 -5.66722E+03 -2.95896E+03
 -3.63491E+03 -1.59628E+03  7.01341E+03 -7.95106E+02  1.50729E+03 -1.02878E+03 -2.05421E+03  4.42199E+03
 -2.20771E+03  5.84137E+02  2.17888E+01  2.86232E+03  3.72105E+03  5.83115E+02 -4.91031E+02 -6.32201E+02
  1.61513E+03  1.52341E+03 -1.35202E+03 -2.17053E+03  1.21583E+03  2.05923E+03  3.01216E+02  1.37996E+02
 -1.79457E+03  3.46571E+03 -3.71074E+03  2.81040E+03 -2.78525E+03 -1.58702E+03 -1.89172E+03 -6.54461E+02
 -3.14053E+03 -1.64881E+03  1.83740E+03 -4.80128E+03 -2.52155E+02  3.09349E+03 -5.36562E+02  1.67862E+03
 -4.34488E+03  5.15899E+03 -1.00813E+03  1.24491E+02  1.43623E+02  5.31344E+01  2.82436E+03  8.99614E+02
  1.36342E+03 -4.19345E+03  3.13096E+03  1.40084E+03  3.57557E+03 -1.61735E+03  1.38699E+03 -5.57991E+02
 -8.24379E+02  1.00489E+03 -1.73752E+03  2.13714E+03  6.40810E+02 -2.35893E+03  7.61353E+03 -3.42127E+03
  1.48617E+03  1.70701E+03  4.60575E+03 -3.03463E+03  3.40828E+03 -2.79727E+03  9.84910E+00  8.64349E+02
 -1.07053E+03  2.08997E+03 -3.98382E+02 -4.66801E+02 -4.11254E+01 -7.61692E+01 -4.15158E+02 -2.44863E+03
  4.21981E+03 -1.15780E+03  1.57741E+03  2.62252E+03 -1.04551E+03  1.85864E+03  5.15905E+02 -7.69502E+02
 -9.91829E+02 -2.23128E+03 -2.51943E+03  3.89614E+03 -4.24560E+03 -1.35334E+03 -2.52381E+03  8.23171E+02
 -7.84665E+02  6.84135E+02 -4.99338E+03 -8.98390E+02  1.00810E+03  2.33885E+03 -4.51028E+03 -2.67344E+03
  2.24183E+03 -1.59202E+03  3.39370E+03 -5.75281E+03  7.04249E+03 -2.73918E+03  5.01839E+03 -3.10762E+02
  3.80730E+03 -2.94994E+02  2.02165E+03 -2.05717E+03 -1.94576E+03  3.30220E+03 -4.59654E+03  8.53306E+02
 -1.01583E+04 -3.27472E+03 -3.73458E+03  3.31464E+03  9.66214E+02  9.25660E+02  1.14778E+03 -1.76851E+03
  1.97893E+03  7.66985E+02  2.98323E+02  7.41487E+02  2.54038E+03 -1.82918E+03 -1.61376E+02 -3.57757E+03
  1.07587E+03 -1.07278E+03  4.86792E+03  3.00632E+02  2.84602E+03 -6.34285E+02 -3.09087E+03  2.17746E+03
  2.12078E+03  2.88319E+03  1.53125E+03 -2.20977E+03 -5.06085E+03  5.61558E+02 -2.64720E+03 -2.88908E+03
 -2.55678E+03 -1.62949E+03 -3.62581E+03 -2.45495E+03 -1.94588E+03 -4.19450E+03  9.98725E+02 -3.94417E+01
 -1.14963E+03 -3.44617E+02  1.98747E+03 -5.57337E+02 -4.62584E+03 -2.20158E+03  3.34346E+03  1.35343E+02
 -1.56011E+03  2.40437E+03 -1.88366E+02 -3.50678E+03 -5.26363E+03  9.14079E+03 -1.47078E+03 -1.88021E+03
 -3.22815E+03  1.29926E+03 -1.40501E+02 -4.60854E+03 -3.12057E+03 -4.27226E+03 -1.39851E+03  2.93867E+02
  5.18244E+03  3.10189E+01  5.52342E+03  1.11427E+03  2.37745E+02 -9.13283E+02  1.02773E+03  2.89600E+03
 -1.44915E+03 -2.01485E+03 -3.31832E+03  9.26942E+01  1.27442E+03  3.48631E+03  2.92464E+03 -2.13298E+03
  2.97307E+03  2.54188E+03 -2.00524E+03  1.81705E+03 -1.93154E+03 -5.00792E+03 -1.46955E+03 -7.92524E+02
 -6.07590E+03 -2.01008E+02  9.62610E+02 -1.90129E+03 -1.98431E+03 -2.62436E+03  1.23152E+02  1.18788E+03
  6.22616E+02  1.23174E+03  9.05630E+02  5.94927E+02  3.55737E+03  1.49070E+03 -5.07985E+03 -1.06050E+03
