 $NMID ID='MM_0lb_SNR50_10hz_g60_70.RAW', FMTDAT='(8E13.5)'
 TRAMP=1., VOLUME=1. $END
  3.16933E+05  7.21838E+01  3.34901E+05  2.48943E+05  8.77985E+04  3.37817E+05 -1.32967E+05  2.52495E+05
 -1.93413E+05  8.58112E+04 -1.14285E+05 -3.00705E+04  2.48950E+03 -4.90045E+04  5.54798E+04  1.83680E+03
  3.79091E+04  6.11457E+04 -2.34881E+04  7.97567E+04 -5.57519E+04  6.30391E+04 -9.00694E+04  3.19943E+04
 -8.21147E+04 -1.04223E+04 -6.26751E+04 -5.54721E+04 -7.67329E+03 -7.31734E+04  2.71174E+04 -3.65166E+04
  4.57066E+04  6.83747E+03  1.64981E+04  4.58487E+04 -3.23285E+04  5.05044E+04 -6.66442E+04 -6.97793E+02
 -5.61903E+04 -5.56013E+04 -9.47957E+03 -7.63821E+04  3.86506E+04 -5.70172E+04  5.29823E+04 -2.06307E+04
  4.38670E+04  1.00117E+04  3.52997E+04  2.69110E+04  1.50687E+04  3.52999E+04 -4.58340E+03  2.24676E+04
 -1.98323E+04  7.26204E+03 -1.42466E+04 -6.04076E+02  4.50983E+03 -9.63324E+03  1.76923E+04  1.75788E+04
  8.14780E+03  3.72836E+04 -3.50843E+04  3.27375E+04 -6.99411E+04  3.31734E+02 -5.26499E+04 -4.66833E+04
 -1.49858E+04 -6.71817E+04  4.09821E+04 -5.16685E+04  6.19189E+04 -1.13925E+03  3.40752E+04  3.62461E+04
 -6.92401E+03  3.44629E+04 -2.56487E+04  1.90101E+04 -3.14882E+04 -9.58117E+03 -1.62121E+04 -1.60551E+04
 -9.93353E+03 -1.38508E+04 -3.50957E+03 -1.89822E+04  1.23165E+04 -2.65811E+04  1.18846E+04 -1.21158E+04
  1.35430E+04  2.49734E+03 -1.33266E+04  1.41989E+04 -2.04666E+04 -7.33124E+03 -5.78319E+03 -3.62520E+04
  3.06109E+04 -4.24599E+04  5.43308E+04 -2.28198E+04  4.90961E+04  1.91401E+04  2.31886E+04  4.57454E+04
 -1.29603E+04  3.63285E+04 -1.98871E+04 -6.89819E+02 -1.01067E+04 -2.41353E+04  2.61670E+04 -3.72233E+04
  4.43416E+04 -1.15529E+04  3.37473E+04  2.50152E+04  2.25037E+04  5.65911E+04 -8.46388E+03  5.06751E+04
 -3.66855E+04  4.39056E+04 -5.72320E+04  8.76975E+03 -4.49687E+04 -1.53852E+04 -2.83213E+04 -5.28874E+04
  1.29215E+04 -5.09426E+04  3.28345E+04 -1.64920E+04  2.94442E+04  1.23948E+04  3.39578E+03  2.67726E+04
 -1.46487E+04  7.29860E+03 -1.25574E+04 -3.78081E+03  4.20163E+03 -1.15307E+04  1.78363E+04  2.95061E+03
  1.60000E+04  2.13692E+04 -8.39805E+03  3.00150E+04 -2.05473E+04  1.20275E+04 -3.33650E+04 -7.20416E+02
 -2.14122E+04 -1.84565E+04 -1.52410E+04 -2.40159E+04  4.00667E+03 -1.99927E+04  1.80561E+04 -2.13731E+04
  3.64204E+04 -1.37926E+04  3.69796E+04  4.26025E+03  3.02951E+04  2.81570E+04  3.91083E+03  3.73495E+04
 -1.90589E+04  3.09152E+04 -3.56429E+04  1.13598E+04 -2.08327E+04 -1.26092E+04 -4.83995E+03 -1.60608E+04
  9.57263E+03  3.38661E+01 -6.71997E+03  1.00118E+04 -2.23289E+04  4.43023E+03 -2.06913E+04 -9.09094E+03
 -1.19109E+04 -2.09347E+04  6.81693E+03 -3.01772E+04  1.50594E+04 -1.60919E+04  2.50374E+04  4.30061E+03
  1.97611E+04  1.54984E+04 -8.24644E+03  2.51191E+04 -1.92533E+04  6.94880E+03 -2.41690E+04 -1.02952E+04
 -1.70235E+04 -2.49115E+04 -1.18881E+03 -2.58464E+04  1.42938E+04 -2.38024E+04  2.07812E+04 -9.49148E+03
  2.44774E+04 -2.76552E+02  1.75043E+04  5.35732E+03  9.73916E+03 -2.99682E+02  1.41726E+04 -1.67989E+03
  2.00331E+04  6.42453E+03  2.74153E+04  2.42949E+04  1.51328E+04  4.19554E+04 -8.53660E+03  4.64623E+04
 -2.18019E+04  3.44026E+04 -3.97226E+04  1.96497E+04 -4.50518E+04 -4.87742E+03 -3.67592E+04 -2.27451E+04
 -1.80317E+04 -3.68369E+04  9.19410E+03 -3.38912E+04  3.02248E+04 -2.20166E+04  2.14122E+04  5.69446E+03
  1.30195E+04  1.61291E+04 -7.12777E+03  1.17822E+04 -2.21958E+04 -4.84071E+03 -1.53339E+04 -9.61005E+03
 -1.68011E+03 -2.18380E+04  9.68479E+03 -1.47858E+04  1.14325E+04 -4.98768E+02  8.88015E+03  8.26785E+03
 -1.28156E+04  2.34826E+03 -9.18280E+03 -1.69569E+03 -5.61289E+03 -2.12836E+04  7.05048E+03 -1.58012E+04
  2.77398E+04 -1.49938E+04  2.73973E+04  3.84446E+03  2.02707E+04  2.77992E+04  1.07051E+04  2.45477E+04
 -6.07910E+03  3.38206E+04 -2.27058E+04  2.07746E+04 -1.87284E+04  2.03352E+03 -1.37002E+04 -3.52975E+03
 -7.47461E+03 -7.98899E+03 -4.78518E+03 -2.41604E+03 -4.89858E+03  1.89045E+03 -6.99233E+03  1.09623E+04
 -1.39544E+04  1.88390E+03 -1.43394E+04 -4.21859E+03 -8.22590E+03 -1.89669E+04  6.37417E+03 -1.84566E+04
  1.72969E+04 -9.82120E+03  9.10775E+03  4.98252E+03 -3.64725E+03  4.27652E+03 -8.40879E+03  2.01529E+03
 -8.89579E+03 -8.11375E+03  4.14802E+03 -1.50483E+04  7.74907E+03 -1.46216E+04  2.21746E+04 -7.02961E+03
  2.41110E+04 -5.91639E+02  1.75803E+04  1.59281E+04  7.66174E+02  2.49851E+04 -8.82272E+03  1.37338E+04
 -2.05111E+04  5.79885E+03 -9.81788E+03 -4.73796E+03  1.22300E+03 -2.56507E+03  1.23139E+04  5.25186E+02
  5.77385E+02  4.94361E+03  1.71978E+03  1.00574E+04 -7.48558E+03  1.91617E+04 -1.82807E+04 -4.86844E+01
 -4.69030E+03 -9.18683E+02 -3.03846E+02 -9.46802E+03  9.31226E+03 -7.18799E+03  8.88520E+03 -2.59643E+03
  1.40235E+03  1.17882E+04 -8.24399E+03  1.18750E+04 -1.50704E+04  8.25010E+03 -1.17430E+04 -8.62072E+03
 -8.71018E+03 -1.83644E+04  8.83841E+02 -2.26542E+04  1.63378E+04 -1.29594E+04  1.59581E+04  5.61581E+03
  1.00943E+04  1.77249E+04 -3.81978E+03  1.51848E+04 -1.01045E+04  1.09337E+04 -1.36446E+04 -1.76003E+03
 -1.14149E+04 -1.60351E+04 -4.34028E+03 -1.33679E+04  9.07446E+03 -1.71623E+04  4.61010E+03 -5.04497E+03
  8.38862E+03 -4.18254E+03  3.61262E+02  2.87316E+03 -4.74808E+03 -4.17942E+03 -1.80411E+03 -6.58419E+03
  1.32221E+04 -3.36702E+03  1.24054E+04  3.40870E+03  1.04726E+04  6.80310E+03  4.50012E+03  1.99691E+04
 -5.69344E+03  2.00322E+04 -1.95564E+04  2.27935E+04 -2.93524E+04  3.88352E+03 -1.62066E+04 -8.63660E+03
 -6.67813E+03 -1.88769E+04 -5.84912E+03 -1.35987E+04  9.43435E+03 -3.30333E+03  7.76005E+03 -3.30981E+03
  2.48728E+03 -2.51293E+03 -2.47817E+03 -4.18136E+03  4.36019E+03 -2.83677E+03  8.10541E+03 -3.79049E+03
  1.13636E+04 -5.71437E+02  5.21075E+02  9.27454E+03 -1.22918E+03  1.17562E+04 -1.41674E+04  4.39500E+03
 -1.44022E+04 -5.09804E+02 -7.56427E+03 -7.61881E+03  1.99030E+03 -1.70208E+04  1.87052E+03 -1.58790E+04
  1.10848E+04 -1.33558E+04  2.04511E+04  8.76742E+03  8.65160E+03  1.22661E+04 -6.73727E+02  1.92853E+04
 -9.24653E+03  1.12846E+04 -1.36395E+04  1.65331E+03 -4.42343E+03  5.44873E+01 -1.74765E+03  8.33873E+03
 -3.17642E+03 -3.69905E+03 -7.36377E+03 -8.19293E+02 -4.45809E+03  1.28325E+03 -3.41706E+03 -4.16553E+03
 -9.29018E+03 -9.97414E+03  2.50875E+03 -1.26991E+04  7.96517E+03 -1.08471E+04  1.44065E+04 -4.15822E+03
  1.44183E+04  1.09845E+04  9.51895E+03  1.32441E+04 -3.93329E+03  1.03757E+04 -1.25324E+04  9.86479E+03
 -1.29837E+04  8.18059E+03 -1.34323E+04 -1.21922E+04 -2.65297E+02 -1.16534E+04  6.49217E+03 -6.53922E+03
  9.52919E+03 -7.65604E+03  1.12481E+03  1.99846E+03  3.44511E+03  2.64459E+03  4.90967E+02  4.76277E+03
  3.28864E+03  2.31292E+03 -9.49556E+01  3.90500E+03  4.63411E+03  3.34674E+03 -2.90222E+03  4.53634E+03
  2.26852E+03  1.00539E+04 -1.00794E+04  3.19599E+03 -1.62435E+04 -3.86263E+03 -1.15750E+04 -7.64151E+03
 -1.40160E+03 -1.93705E+04  5.26616E+03 -1.55169E+04  5.72503E+03 -1.35368E+04  6.45731E+03  1.54126E+03
  6.31126E+03 -6.78147E+02 -6.78554E+02  5.33985E+03 -4.04609E+03  1.07412E+04  9.36092E+02 -3.36736E+03
 -8.82144E+02 -4.90566E+03  8.17787E+03 -6.14558E+03  5.29377E+03 -5.52336E+03  1.74414E+03  6.78358E+03
  5.88446E+03 -1.77356E+03  4.00475E+03  8.27956E+02  9.15577E+02  1.32289E+03  2.09356E+03  1.32625E+03
  1.55440E+03 -6.81609E+03  1.80432E+03 -2.26063E+03  2.96906E+03  7.18995E+03 -3.54030E+03  9.37692E+03
 -6.38991E+03  1.12775E+04 -1.49207E+04  4.72213E+02 -9.16988E+03 -1.03599E+03 -2.81882E+03 -4.97021E+03
  2.07195E+03 -6.73707E+02  4.49099E+03  1.66098E+03 -5.15341E+02  5.03506E+03 -3.45169E+03  8.12266E+02
 -2.57247E+03  3.16609E+02 -7.72717E+03 -3.03865E+03  1.19172E+03 -6.37795E+03 -2.45533E+03 -9.87660E+03
  1.21019E+03 -1.14055E+04  6.97704E+03  1.50307E+03  7.07465E+03  2.34673E+03  7.61885E+03  7.68058E+03
 -2.48549E+03  3.55074E+02 -2.42181E+03 -7.05262E+02 -2.59017E+03 -1.15403E+04  7.56218E+03 -7.98385E+00
  7.28822E+03  9.35846E+02  8.79107E+03  6.65277E+02  3.97501E+03  1.17861E+04 -3.61114E+03  6.26249E+03
 -1.20632E+04  4.95354E+03 -9.35680E+03 -1.32962E+03 -8.26442E+03 -4.06189E+03  1.22113E+03 -4.03350E+03
  4.58712E+03  2.82205E+03  3.88154E+03 -2.04225E+03  4.88610E+02  6.92126E+03 -1.94978E+03  5.31970E+03
 -8.18007E+02  2.00893E+03 -6.47321E+01  7.30498E+03 -2.21808E+03 -8.71780E+02 -6.91874E+03 -9.86623E+02
  2.01961E+03  7.74387E+03 -5.51058E+03 -1.34388E+03 -7.16517E+03  3.45708E+03 -1.02002E+04 -3.75054E+03
 -3.51928E+03 -2.01007E+04  6.73975E+03 -1.49959E+04  1.15637E+04 -9.89045E+03  1.38478E+04 -4.11451E+03
  1.30434E+04 -9.80233E+02  7.20836E+03  6.78521E+03 -1.93597E+03  6.21993E+03  6.24920E+02  1.50787E+02
  4.11375E+03  4.93001E+03 -3.73529E+03 -3.52072E+03 -6.98855E+02 -2.61357E+03  4.63692E+03 -3.13121E+03
  1.37479E+03 -1.45240E+03 -6.32142E+03 -2.50685E+03  3.51285E+02  4.98737E+02 -5.60514E+03 -4.79072E+03
  7.07060E+01 -5.40045E+03  7.33148E+03 -1.69119E+03  2.88994E+03  5.52419E+03  1.28954E+03  4.34489E+03
 -1.85384E+03  7.90823E+03 -8.19051E+03  2.91381E+03 -1.00823E+04  2.12137E+03 -1.10844E+04 -6.85665E+03
 -7.78227E+03 -9.23151E+03  1.52446E+03 -3.72697E+03  1.84630E+03 -8.48505E+03  3.78306E+03  2.01033E+02
 -3.51476E+02  2.66686E+03  2.01396E+03  6.83074E+03  7.05807E+02  4.26596E+03  3.39536E+03  1.01261E+03
 -1.93955E+03  2.21430E+03  3.46882E+03  5.18136E+03  2.44158E+03  4.40542E+03 -4.30695E+03  5.74116E+03
 -2.91923E+03 -1.06119E+03 -4.83738E+03  2.16497E+02 -3.50347E+03 -4.54854E+02 -4.48615E+03 -1.21612E+04
  1.51091E+03 -8.57369E+03  7.59783E+03  9.49099E+02  3.22586E+03  2.28887E+03  1.00831E+04  4.23643E+03
 -2.06801E+03  1.10989E+04  9.76225E+02  4.36821E+03 -4.81239E+03  2.98438E+03 -4.02171E+03 -1.22688E+03
  3.27064E+03 -1.67247E+03  4.75299E+02  7.70229E+03 -7.52121E+02  3.37328E+03 -2.29302E+03 -5.33862E+03
 -6.75622E+03 -3.33643E+03 -3.40761E+03 -6.33304E+02 -1.21198E+03 -1.08453E+04  3.35152E+03 -3.96702E+03
  8.00818E+03 -2.58749E+03  4.44431E+03  1.01677E+04 -1.47339E+03  3.22958E+03 -1.93221E+03  9.56760E+02
