 $NMID ID='MM_0lb_SNR50_7hz_g40_55.RAW', FMTDAT='(8E13.5)'
 TRAMP=1., VOLUME=1. $END
  3.12498E+05  9.35313E+02  3.36052E+05  2.46555E+05  8.72309E+04  3.37095E+05 -1.27679E+05  2.58707E+05
 -1.90402E+05  7.84469E+04 -1.16279E+05 -2.88960E+04  4.81684E+03 -4.89497E+04  5.20729E+04 -8.89242E+02
  3.99491E+04  5.23629E+04 -2.03887E+04  7.36867E+04 -6.35520E+04  6.58304E+04 -9.41548E+04  3.38728E+04
 -8.63234E+04 -8.84091E+03 -5.86210E+04 -5.21631E+04 -1.90890E+04 -6.44383E+04  2.79296E+04 -4.92572E+04
  4.50854E+04  8.50894E+03  1.93228E+04  4.45913E+04 -3.66756E+04  5.05485E+04 -6.41331E+04  5.92259E+02
 -4.83635E+04 -5.96897E+04 -9.48919E+03 -7.63688E+04  3.54421E+04 -6.04661E+04  5.24038E+04 -2.00797E+04
  4.02133E+04  1.01968E+04  3.20817E+04  2.94498E+04  8.67683E+03  3.07276E+04 -1.26126E+04  2.82678E+04
 -2.18742E+04  2.06314E+04 -1.95466E+04 -8.06373E+03  6.60888E+03 -6.69083E+03  1.46336E+04  1.80075E+04
  8.06576E+03  3.18170E+04 -3.08289E+04  3.47830E+04 -6.19054E+04  3.57518E+03 -5.89016E+04 -3.98240E+04
 -1.11482E+04 -7.30828E+04  4.34767E+04 -4.59497E+04  6.13402E+04 -7.64012E+03  3.47959E+04  3.21925E+04
  1.07029E+03  3.94055E+04 -2.85597E+04  2.38704E+04 -3.55390E+04 -3.02995E+03 -2.34964E+04 -9.69326E+03
 -6.81955E+03 -1.52945E+04 -2.32229E+03 -1.49992E+04  4.03273E+03 -2.58947E+04  1.62812E+04 -1.25995E+04
  7.43875E+03  6.76374E+03 -1.31864E+04  1.04123E+04 -2.56691E+04 -6.00352E+03 -7.05534E+03 -4.75030E+04
  2.69621E+04 -5.30435E+04  4.95862E+04 -2.42529E+04  5.68085E+04  1.29800E+04  1.75103E+04  4.44092E+04
 -1.31151E+04  3.98547E+04 -3.34331E+04  3.28504E+03 -1.11553E+04 -2.88535E+04  2.42057E+04 -3.85804E+04
  4.54998E+04 -5.50884E+03  3.75963E+04  2.93049E+04  2.20903E+04  5.29319E+04 -5.64588E+03  6.62725E+04
 -3.09317E+04  3.90307E+04 -4.62071E+04  9.59389E+03 -5.02553E+04 -1.64763E+04 -3.07920E+04 -4.08645E+04
  5.50765E+03 -4.07988E+04  3.11524E+04 -2.00397E+04  3.29023E+04  8.88466E+03  4.59273E+03  2.47292E+04
 -1.45523E+04  1.51723E+04 -6.61080E+03 -2.63163E+03 -2.98538E+03 -1.76492E+04  1.55055E+04  8.90592E+00
  9.36812E+03  2.52751E+04 -1.05465E+04  3.03429E+04 -2.31548E+04  9.47816E+03 -3.27092E+04 -5.08157E+03
 -2.68275E+04 -1.86755E+04 -2.48798E+03 -2.78201E+04 -1.81474E+03 -2.51701E+04  2.38614E+04 -2.18940E+04
  3.72607E+04 -1.53843E+04  3.83478E+04  1.16740E+04  2.05020E+04  1.67401E+04  6.16235E+03  4.33051E+04
 -1.64671E+04  3.51066E+04 -2.90243E+04  1.44630E+04 -2.51816E+04 -1.08175E+04 -5.17619E+03 -1.76041E+04
  8.09260E+03 -4.61004E+03 -5.76520E+03  1.03266E+04 -1.39601E+04  2.03873E+03 -1.94903E+04 -6.05923E+03
 -1.14936E+04 -2.37372E+04  8.55312E+03 -2.58095E+04  2.13218E+04 -1.65606E+04  3.22534E+04 -4.23160E+03
  2.01001E+04  2.15610E+04  4.38159E+02  2.58289E+04 -1.34526E+04  1.59881E+04 -2.21376E+04 -6.42020E+03
 -1.96087E+04 -2.24892E+04 -1.24714E+03 -2.68726E+04  1.44817E+04 -2.25986E+04  2.21131E+04 -7.67148E+03
  2.84367E+04  5.80888E+03  1.93669E+04 -3.23477E+02  5.79899E+03  1.72717E+03  8.61673E+03 -5.24064E+03
  2.83933E+04  1.00832E+04  1.78668E+04  2.01922E+04  1.78755E+04  4.20621E+04  1.20981E+03  4.18045E+04
 -2.70900E+04  4.09030E+04 -4.61924E+04  1.36766E+04 -5.37565E+04 -2.31263E+03 -3.68783E+04 -3.13887E+04
 -1.65049E+04 -3.76256E+04  1.95767E+04 -3.62876E+04  4.01850E+04 -1.71232E+04  2.66226E+04  7.42436E+03
  1.25376E+04  1.88027E+04 -1.23425E+04  1.74332E+04 -1.86702E+04  5.51854E+03 -1.44596E+04 -9.70697E+03
 -9.59008E+03 -2.38048E+04  1.09406E+04 -1.73579E+04  1.89348E+04 -6.43604E+03  3.61022E+03  1.22907E+04
 -5.51640E+03  4.32172E+03 -1.35559E+04 -8.42088E+03 -3.56203E+03 -2.46147E+04  1.40167E+04 -2.09429E+04
  2.47201E+04 -1.22105E+04  2.64998E+04  1.04223E+04  2.63971E+04  1.64683E+04  8.71535E+03  2.83038E+04
 -8.91670E+03  2.95011E+04 -2.11372E+04  2.60162E+04 -2.29916E+04  2.02446E+03 -2.00455E+04 -1.25074E+04
  3.35301E+03 -6.38352E+03 -1.93881E+03  9.14735E+03 -3.90681E+03 -1.01437E+02 -1.13103E+04  7.75134E+03
 -1.24318E+04  6.26028E+03 -1.89627E+04 -1.78431E+04 -7.73740E+03 -1.68169E+04  8.25432E+03 -2.33823E+04
  1.28095E+04 -3.27282E+03  8.47561E+03 -6.55854E+02  2.50527E+03  6.82110E+03 -3.61928E+03  4.92214E+03
 -4.31789E+03 -9.06288E+03 -1.16811E+03 -1.99070E+04  4.79217E+03 -2.35710E+04  2.39646E+04 -6.15030E+03
  2.34551E+04  7.49828E+03  2.21944E+04  1.86336E+04  4.82703E+03  2.00971E+04 -1.40396E+04  1.30108E+04
 -1.56999E+04  1.27720E+04 -9.37279E+03 -4.54339E+03  3.26069E+03 -1.52724E+04 -9.31546E+02 -1.38649E+03
  1.21164E+04  4.97468E+03  9.31779E+02  2.06947E+04 -1.54373E+04  1.00531E+04 -2.54925E+04  1.83997E+03
 -9.47230E+03 -6.51815E+03  3.22366E+03 -1.56187E+04  3.17177E+03 -7.90847E+03  1.22041E+04  8.47021E+03
  1.04331E+04  1.30610E+04 -2.09269E+03  1.83366E+04 -1.37892E+04  9.19286E+02 -1.75576E+04 -7.59510E+02
 -6.67347E+03 -1.95872E+04  1.02702E+04 -2.28082E+04  1.75080E+04 -1.78188E+04  1.24901E+04  5.67598E+03
  1.48266E+04  9.32959E+03  3.62482E+03  2.16480E+04 -2.46151E+04  9.60283E+03 -1.70207E+04  2.70444E+03
 -1.20144E+04 -8.24906E+03 -4.25966E+03 -1.58713E+04  1.00286E+04 -1.17117E+04  1.64051E+04 -4.04912E+03
  9.68426E+03  5.12443E+03 -6.86604E+02  3.99938E+03  1.89522E+03 -5.67922E+03  4.47952E+03 -1.08855E+04
  1.69818E+04 -7.69964E+03  1.78545E+04 -4.18321E+03  1.32420E+04  1.50162E+04  1.22787E+04  2.86781E+04
 -2.03338E+03  2.46787E+04 -2.16659E+04  2.34880E+04 -3.15870E+04  1.91134E+02 -1.52525E+04 -1.14134E+04
 -1.27060E+04 -2.10744E+04  9.16793E+02 -1.51491E+04  8.35987E+03 -3.51545E+03  2.68460E+03 -5.52256E+03
  1.39567E+03  1.72517E+03  1.58057E+03 -6.56871E+03  9.11130E+03 -7.94478E+03  5.23904E+03 -3.92872E+03
  9.69030E+03  7.56354E+02  1.08577E+04  1.12209E+04 -3.41194E+03  2.96550E+03 -6.64681E+03  7.73118E+03
 -1.29359E+04 -6.99303E+03 -7.16847E+03 -1.23661E+04  6.21551E+03 -1.85420E+04  6.57875E+03 -1.78814E+04
  1.89332E+04 -8.59629E+03  2.48305E+04  3.74731E+02  2.22720E+04  1.42680E+04 -1.39222E+03  1.58547E+04
 -9.50616E+03  1.68923E+04 -1.11184E+04  6.13901E+03 -1.00343E+04  6.53016E+03 -5.38615E+03 -2.91778E+03
 -4.63486E+03  2.60805E+02 -7.24386E+03  4.75163E+03 -8.17350E+03  2.75534E+03 -1.57620E+03 -2.15061E+02
 -8.10411E+03 -9.65906E+03 -4.69527E+03 -1.43459E+04  1.20141E+04 -1.74160E+04  2.66622E+04 -3.67096E+03
  1.53226E+04  6.14936E+03  1.53624E+04  1.59948E+04 -5.70569E+03  1.75556E+04 -1.47575E+04  3.89092E+03
 -2.44377E+04 -4.51430E+03 -1.38605E+04 -6.36685E+03 -1.20224E+03 -1.71181E+04  1.24172E+04 -1.12284E+04
  1.02844E+04  1.58735E+03 -3.02688E+03  3.79900E+03 -3.37913E+03  3.10113E+03  2.92442E+02  2.76305E+03
  3.88892E+03  3.63697E+03  1.47178E+03  7.23063E+02  8.05758E+03  5.09097E+03  7.81174E+03  1.33843E+04
  4.89080E+02  1.42278E+04 -1.11608E+04  1.14067E+04 -1.60928E+04 -7.02717E+02 -1.89307E+04 -2.63771E+03
 -9.73169E+03 -2.29822E+04  6.48479E+03 -1.77824E+04  1.02590E+04 -1.33137E+04  2.15959E+04 -1.55719E+03
  1.35737E+04  8.07020E+03  2.76610E+02  8.68052E+03 -2.57945E+03  6.75031E+03 -1.14884E+04 -1.62025E+03
 -7.74379E+03 -5.08635E+03  8.08068E+03 -3.54108E+03  6.13531E+03 -4.74475E+03  1.42771E+04  2.32805E+03
  4.46740E+03  8.67815E+03 -2.29116E+03  8.61451E+02 -5.66295E+02  2.31498E+03  1.22237E+04 -2.73886E+03
  4.47708E+03 -4.08993E+03  4.19793E+03 -2.55178E+03  3.92693E+02  1.18343E+04  2.92720E+03  4.32922E+03
 -6.57881E+03  1.05675E+04 -1.49802E+04  4.57540E+03 -1.16739E+04 -9.56942E+03 -5.98672E+03 -7.64300E+03
  8.27678E+02 -1.16826E+04  8.27655E+03 -5.63314E+03  1.06790E+04 -3.38049E+02 -4.30324E+03  1.74696E+03
 -4.84804E+03 -1.28721E+03 -8.59860E+03 -4.94828E+03 -6.50828E+03 -8.02999E+03  1.17383E+04 -4.18194E+03
  1.24867E+03 -1.24554E+04  1.23812E+04  2.72780E+03  1.09622E+04  1.96997E+03 -7.70283E+02  1.65669E+03
  1.14918E+03 -1.15825E+03 -8.01528E+03 -2.36024E+03  5.13561E+03 -1.14397E+04  1.16056E+04 -9.31748E+03
  1.61554E+04  8.08282E+02  1.08097E+04  3.85035E+03  6.18125E+02  1.49080E+04 -9.77630E+03  1.71619E+04
 -1.56426E+04  1.01398E+04 -1.53844E+04  2.30255E+03 -8.45998E+03 -5.77060E+03  8.80772E+03 -9.91064E+03
  7.61956E+03 -6.96736E+03  1.39416E+04  2.15405E+03  3.77052E+03  8.84810E+03  1.36610E+03  9.75005E+03
 -7.30569E+03  7.46440E+03  6.38307E+02  5.31812E+03  1.17012E+03  4.21421E+03 -2.33522E+02 -1.29739E+02
 -5.26130E+03 -2.83360E+03 -8.67344E+03  3.51685E+03 -1.25342E+04  8.61791E+02 -2.21741E+04 -7.57910E+03
 -8.45561E+03 -1.78683E+04  4.84168E+03 -2.25985E+04  1.37806E+04 -8.58189E+03  1.69848E+04 -1.56278E+03
  1.65938E+04  1.53952E+03  8.62593E+03  1.40483E+04 -6.69612E+02  1.23967E+04 -9.55940E+03  5.75390E+03
 -8.69469E+03  7.57644E+03 -3.63329E+03 -2.01607E+02  8.12687E+03 -5.14789E+03 -1.57481E+03  2.76085E+03
  7.47970E+03  1.32657E+03 -9.97692E+03 -1.17054E+03 -6.35842E+03 -6.15971E+03 -4.44963E+03  4.36590E+02
  4.57096E+03 -8.84269E+02  7.95933E+03  3.13515E+03  9.43125E+03  4.56218E+03  5.33457E+03  1.21681E+04
 -2.22735E+03  1.76380E+04 -1.95699E+04  2.21723E+03 -1.19050E+04  6.51602E+02 -6.58254E+03 -7.99845E+03
 -6.72131E+03 -1.53785E+04 -6.45519E+02 -1.01958E+04  1.38288E+04 -4.36715E+03  6.60686E+03 -5.69327E+02
  8.74173E+02  7.65539E+03  5.40241E+03  3.34334E+03 -6.76054E+03 -4.20181E+03 -6.42675E+03  2.70393E+03
  6.81925E+03 -2.00662E+03  2.66199E+03 -9.19349E+03  5.25395E+03  4.81138E+03 -1.61706E+03  2.17426E+03
 -6.53755E+03  7.55075E+03 -5.74458E+03  6.89837E+03 -1.15934E+04 -9.92546E+03 -3.36430E+03 -1.02140E+04
  1.13146E+04 -8.61432E+03  1.66113E+04 -4.59306E+02  1.13076E+04  9.86393E+03  2.79524E+03  4.18350E+03
  6.36908E+03  8.74226E+03 -8.75395E+03  1.97040E+03 -1.02925E+04  2.86872E+03 -1.63095E+03  4.83119E+03
 -4.14097E+03 -5.72672E+03 -9.00124E+03  1.15893E+03 -1.23072E+04 -6.08695E+03 -1.27855E+04 -5.82771E+03
 -1.38254E+04 -2.71843E+03 -4.04117E+03 -6.17842E+03  5.04265E+02 -1.18020E+04  1.13765E+04 -1.62422E+03
  6.89902E+03  3.58552E+03  1.00521E+04  8.72862E+03 -5.18367E+03  1.08430E+04 -1.41088E+04  1.21792E+04
