 $NMID ID='MM_0lb_SNR50_9hz_g60_32.RAW', FMTDAT='(8E13.5)'
 TRAMP=1., VOLUME=1. $END
  3.11283E+05 -8.34861E+03  3.38066E+05  2.52650E+05  8.63316E+04  3.35175E+05 -1.28917E+05  2.49783E+05
 -1.93400E+05  8.38380E+04 -1.16923E+05 -2.80748E+04  2.90804E+03 -5.22174E+04  5.61098E+04 -9.58179E+02
  3.81583E+04  4.73478E+04 -8.41569E+03  7.74888E+04 -5.79532E+04  6.60356E+04 -8.38144E+04  3.28281E+04
 -8.48006E+04 -8.10588E+03 -6.48605E+04 -4.93164E+04 -1.63389E+04 -7.15665E+04  2.68399E+04 -4.33490E+04
  4.31229E+04  4.50607E+03  1.89707E+04  4.78598E+04 -3.80316E+04  5.27443E+04 -7.03229E+04  1.05171E+03
 -5.92276E+04 -5.99054E+04 -7.24500E+03 -8.28481E+04  3.57198E+04 -4.97786E+04  5.32540E+04 -1.86677E+04
  4.44433E+04  8.19770E+03  2.73392E+04  2.67118E+04  1.61957E+04  3.50097E+04 -9.70938E+03  2.01204E+04
 -2.31266E+04  9.05001E+03 -2.46996E+04 -1.02909E+04  2.12859E+03 -1.04877E+04  2.33053E+04  1.66607E+04
  1.41126E+03  4.04980E+04 -3.50090E+04  3.59482E+04 -5.85701E+04  8.51221E+03 -6.36216E+04 -4.66707E+04
 -8.16100E+03 -5.97200E+04  4.84701E+04 -4.95755E+04  6.43200E+04 -5.18088E+03  3.52931E+04  3.42127E+04
 -7.82683E+03  4.33800E+04 -3.48873E+04  1.59726E+04 -3.38882E+04 -5.92545E+03 -2.49182E+04 -1.37931E+04
 -1.25506E+04 -1.37484E+04 -3.52771E+03 -2.57524E+04  5.12000E+03 -2.19591E+04  1.20409E+04 -1.10387E+04
  1.10702E+04  1.12650E+04 -6.62905E+03  1.60316E+04 -2.38333E+04 -3.56687E+03 -7.65601E+03 -3.76011E+04
  2.60002E+04 -5.08853E+04  5.13810E+04 -2.46499E+04  5.08497E+04  1.67729E+04  2.40040E+04  4.68508E+04
 -1.56992E+04  3.80659E+04 -2.57062E+04  5.64347E+01 -9.02999E+03 -3.29108E+04  1.69543E+04 -3.84288E+04
  4.65636E+04 -1.25602E+04  3.99355E+04  2.28210E+04  2.08838E+04  5.66006E+04 -1.26996E+04  5.43596E+04
 -3.76059E+04  3.44475E+04 -4.85419E+04  1.65812E+04 -4.59342E+04 -2.10365E+04 -2.75470E+04 -4.30422E+04
  6.01473E+03 -4.81377E+04  3.31958E+04 -1.67738E+04  3.33197E+04  9.52470E+03  4.19501E+03  1.70455E+04
 -1.24922E+04  9.95173E+03 -1.04221E+04 -1.13138E+04  5.41496E+03 -1.34910E+04  2.71190E+04  4.48677E+03
  1.64365E+04  2.05106E+04 -7.51514E+03  2.82991E+04 -1.77538E+04  1.13588E+04 -2.73695E+04 -6.98093E+03
 -3.24442E+04 -1.77436E+04 -1.22188E+04 -2.36522E+04  8.35267E+03 -2.25795E+04  2.26520E+04 -2.16494E+04
  3.69846E+04 -1.53555E+04  3.17739E+04  1.95617E+03  2.76070E+04  3.18342E+04  4.89025E+03  4.16573E+04
 -2.47098E+04  3.24708E+04 -2.88812E+04  1.22586E+04 -2.09985E+04 -1.20143E+04 -1.71836E+03 -9.98335E+03
 -8.54914E+03  3.57429E+03 -1.40661E+04  7.38186E+03 -2.68423E+04  3.98380E+03 -2.43742E+04 -1.19083E+04
 -1.28434E+04 -3.11312E+04  3.72187E+03 -2.70416E+04  2.06165E+04 -2.13450E+04  1.77003E+04 -2.34126E+03
  1.19356E+04  1.56565E+04 -1.69200E+03  1.88828E+04 -1.61530E+04  1.48943E+04 -2.26093E+04 -2.80576E+03
 -2.09533E+04 -2.04277E+04 -2.22575E+02 -2.79715E+04  1.53955E+04 -2.27601E+04  1.70863E+04 -1.13834E+04
  2.39758E+04  8.00565E+02  1.22094E+04 -3.13230E+03  5.03655E+03  4.83368E+03  1.80244E+04 -3.72509E+03
  2.00089E+04 -2.44239E+03  2.91919E+04  2.21501E+04  1.41729E+04  3.75611E+04  3.89681E+03  5.07051E+04
 -2.05144E+04  3.87002E+04 -3.71270E+04  2.55649E+04 -4.44489E+04 -5.43574E+03 -3.61853E+04 -3.34935E+04
 -1.68084E+04 -3.82971E+04  1.31080E+04 -3.36901E+04  2.15845E+04 -1.68713E+04  2.78321E+04  1.53931E+04
  8.86173E+03  1.87589E+04 -1.05951E+04  1.43578E+04 -2.00355E+04  3.32841E+03 -1.00028E+04 -9.96943E+03
  2.21973E+02 -1.99377E+04  7.12977E+03 -1.63276E+04  1.51996E+04  1.26719E+03  1.08742E+04  9.58867E+03
 -1.14336E+04  1.04539E+03 -1.10454E+04 -4.47689E+03  2.26386E+03 -2.28543E+04  1.38373E+04 -2.05530E+04
  2.74839E+04 -1.48818E+04  2.42326E+04  4.19204E+03  2.41046E+04  2.46833E+04  6.94272E+03  3.28061E+04
 -2.04878E+02  3.15228E+04 -2.06908E+04  2.13600E+04 -2.48933E+04  1.16445E+04 -1.50808E+04 -2.60988E+03
 -7.41237E+03 -1.17696E+04  5.44461E+01  2.13561E+03  5.11509E+01  2.02694E+03 -1.66446E+04  5.90800E+03
 -1.74376E+04  1.85439E+03 -1.73561E+04 -1.48947E+04 -7.24699E+03 -1.99026E+04  7.20230E+03 -1.66301E+04
  1.48174E+04 -1.15775E+04  1.25195E+04  4.08798E+03  8.52834E+02  1.21783E+04 -4.29502E+03 -3.05524E+03
 -6.55552E+03 -1.47690E+04 -7.00809E+03 -1.75641E+04  8.33287E+03 -1.18268E+04  2.25962E+04 -1.26002E+04
  2.64575E+04  2.06963E+03  1.25169E+04  1.49547E+04  1.09781E+03  1.56584E+04 -1.15856E+04  1.02028E+04
 -3.64921E+03 -7.43649E+01 -7.35427E+03 -5.72249E+03  8.37164E+02 -5.84434E+03  1.01298E+04  2.18480E+03
 -6.41383E+02  4.84768E+03  6.80295E+03  1.81193E+04 -7.97819E+03  7.83050E+03 -1.34568E+04  9.07204E+03
 -1.69988E+04 -1.48077E+04  6.48473E+03 -2.18741E+04  9.76515E+03 -6.65900E+03  1.05451E+04  1.15454E+04
 -1.78527E+03  1.40273E+04 -1.23414E+04  1.75891E+04 -1.37249E+04  8.26180E+03 -2.10103E+04  1.24318E+03
 -8.88053E+03 -1.08414E+04  7.26419E+03 -2.09961E+04  1.37108E+04 -9.52796E+03  1.36337E+04  3.45206E+03
  1.02183E+04  9.87511E+03 -8.99089E+02  1.82353E+04 -1.81946E+04  1.65347E+04 -1.24989E+04  2.67434E+03
 -1.23208E+04 -8.66131E+03 -8.32179E+03 -6.40042E+03  8.19949E+02 -5.56444E+03  7.22694E+03 -7.35956E+03
  5.56972E+03  3.82401E+03  8.97575E+02  4.10315E+03 -1.81788E+03  3.08677E+03  3.46527E+03 -1.14686E+04
  1.31428E+04 -1.80324E+03  1.73696E+04  4.66241E+03  1.80682E+04  1.27634E+04  7.08434E+03  2.66562E+04
 -4.10496E+03  2.93819E+04 -3.11681E+04  2.24765E+04 -3.37610E+04  5.80161E+03 -2.27539E+04 -7.53776E+03
 -8.60804E+03 -1.87455E+04 -1.67785E+03 -1.22274E+04  9.17068E+03 -6.90542E+03  8.75047E+03 -5.39141E+03
  6.28513E+03 -7.50012E+03  2.15368E+03 -5.72935E+03  5.69463E+03 -9.98251E+03  8.26035E+03 -6.20557E+03
  1.39147E+04  5.86617E+03  9.80205E+03  9.35641E+03 -3.69115E+03  9.31270E+03 -1.02083E+04  3.91806E+03
 -1.88878E+04 -2.38159E+03 -1.28367E+04 -9.79858E+03 -2.72619E+03 -1.75653E+04  6.22945E+03 -1.11613E+04
  2.09141E+04 -5.42547E+03  2.12851E+04  3.65772E+03  1.52368E+04  1.17913E+04  9.45871E+03  1.76663E+04
 -9.66119E+03  1.56610E+04 -1.56520E+04  7.40084E+03 -9.39495E+03 -1.06191E+03 -2.79739E+02 -6.70223E+03
 -1.40618E+03  9.78114E+02 -3.96299E+03  4.98111E+03 -6.74308E+03 -1.39724E+03 -1.57897E+04  1.61176E+03
 -8.07412E+03 -1.32948E+04  6.43562E+02 -1.28698E+04  7.11137E+03 -1.40335E+04  1.50889E+04 -2.10962E+03
  1.26661E+04  8.50646E+03  8.44699E+03  1.14644E+04 -1.79137E+03  1.40998E+04 -2.03501E+04  1.51490E+04
 -1.98774E+04  1.84887E+03 -1.12441E+04 -6.20300E+03 -8.46537E+03 -1.42444E+04  9.10221E+03 -1.75855E+04
  6.00055E+03 -9.53066E+02  3.86430E+03  7.13953E+02  9.80081E+03  5.81334E+03 -1.61314E+03  3.73756E+03
  1.17072E+03  2.22575E+03 -4.58394E+03  5.15204E+03  8.02137E+03  8.58806E+03  8.27757E+03  1.25499E+04
 -4.82674E+03  1.40416E+04 -1.09732E+04  1.00533E+04 -1.52008E+04  1.25863E+03 -1.56763E+04 -4.24138E+03
 -1.34237E+03 -1.77499E+04  5.24141E+03 -1.85095E+04  1.03922E+04 -1.36820E+04  7.39354E+03 -5.75126E+03
  8.36657E+03  9.31312E+03 -3.37679E+03  1.28868E+04 -9.53538E+03  5.46790E+03 -3.72064E+03  1.49274E+03
 -3.43160E+03 -1.20873E+04  6.18144E+03 -9.64045E+03  1.27104E+04 -2.83263E+03  2.38089E+03 -4.90042E+03
  4.14590E+03  6.33616E+03  6.98918E+03  9.86556E+03 -4.64515E+02  4.95254E+03  6.88634E+03 -6.20522E+03
  1.13899E+04 -5.96810E+03  9.12783E+03  1.16121E+04 -1.63129E+03  1.28463E+04  4.33968E+03  1.42100E+04
 -9.44016E+03  9.14936E+03 -5.09103E+03  7.42827E+03 -5.27837E+03 -6.97535E+03 -1.06233E+04 -7.17095E+03
  4.01770E+02 -8.23686E+03  7.75488E+03 -2.00552E+03  2.90583E+02  2.12516E+03 -6.64697E+03  9.22796E+03
 -8.41598E+03  9.62042E+03 -8.31402E+03 -5.39102E+03 -9.10741E+03 -1.05560E+04  4.04614E+03 -7.51414E+03
  1.66261E+03 -5.39099E+03  4.54477E+03  6.36113E+02  5.03985E+03  1.27468E+03  1.43645E+03 -7.36079E+02
  3.62325E+03  2.34587E+03 -9.95897E+03 -7.69251E+03  3.19694E+03 -7.54655E+03  8.46054E+03 -8.42118E+03
  9.48948E+03 -1.49973E+03  1.64183E+04  6.24281E+03  1.92283E+03  1.47356E+04 -8.75369E+03  9.12267E+03
 -1.00399E+04  6.33375E+03 -1.01720E+04 -3.56084E+03 -6.78927E+03 -3.26603E+03 -1.33482E+03 -9.77283E+03
  8.10462E+03  2.98781E+02  6.15775E+03  8.25985E+02 -1.50611E+03  6.20331E+03  2.48672E+03  2.86957E+03
 -9.57167E+02 -2.47696E+03 -4.14751E+03  2.75322E+03 -3.90202E+03  1.08309E+03 -2.41870E+03  7.12874E+02
 -4.22814E+02  5.05612E+03 -7.24126E+03  4.35496E+03 -1.32502E+04  4.32679E+02 -1.14684E+04 -7.49410E+03
 -1.40053E+04 -1.11079E+04  3.99837E+03 -2.12203E+04  1.60161E+04 -1.11246E+04  2.07989E+04 -5.01553E+03
  1.87182E+04  2.24812E+03  1.03147E+04  1.28620E+04 -1.15885E+03  3.03906E+03 -6.20403E+03  8.58061E+03
 -1.46293E+03 -1.09306E+03 -9.62593E+03  3.69490E+03  3.20358E+03 -2.43843E+03 -2.42724E+03  8.21747E+03
 -1.24745E+03  3.40251E+03  1.17901E+03  6.15186E+02  6.08926E+03  3.37120E+03  3.76260E+03 -3.10678E+03
  1.28549E+04 -2.70499E+03  2.10369E+03  2.13646E+03  1.41696E+04  6.78124E+03 -1.27462E+03  1.51339E+04
 -4.21090E+03  1.45797E+04 -1.10575E+04  1.02744E+04 -1.25192E+04 -1.26967E+03 -1.23770E+04 -1.29551E+04
 -2.41432E+03 -1.38174E+04  7.21055E+03 -1.25806E+04  7.35680E+03 -8.15045E+03  7.26282E+03  1.43440E+03
  1.62555E+03  2.05705E+03 -2.17479E+03 -2.20325E+02  5.59689E+02  2.81287E+03 -3.31520E+03  1.38453E+03
  8.21924E+03 -4.78201E+03  4.66524E+03  6.07353E+03  8.15070E+02  1.67099E+04  8.31732E+03  5.47320E+03
 -1.86712E+03  2.57592E+03 -6.48074E+03 -2.39724E+02 -1.35471E+03 -1.63003E+03 -3.47303E+03 -1.17610E+04
  8.62907E+03 -1.03526E+04  1.38620E+04 -6.16568E+03  1.17901E+04 -4.86305E+03  4.37936E+03  1.38904E+04
  6.52668E+02  4.38028E+03 -3.54078E+03  4.50885E+03 -3.76281E+03  1.81348E+03 -2.44582E+03  1.84552E+03
 -9.05838E+02 -3.33309E+03 -4.32478E+03  8.95005E+02 -2.54962E+03  2.51272E+03 -2.79709E+03 -6.14548E+03
 -3.80650E+03 -8.22354E+03 -2.97585E+03 -7.83282E+03  1.53250E+03 -5.95109E+03  1.95931E+03  7.41024E+02
  2.72776E+03  4.36261E+03  7.22811E+02  6.85000E+03 -2.18277E+03  3.96300E+03 -6.29620E+03 -1.84610E+03
