 $NMID ID='MM_0lb_SNR50_14hz_g45_61.RAW', FMTDAT='(8E13.5)'
 TRAMP=1., VOLUME=1. $END
  3.11849E+05  2.10281E+03  3.39969E+05  2.48271E+05  8.12710E+04  3.39369E+05 -1.30276E+05  2.48556E+05
 -1.90746E+05  8.16497E+04 -1.12814E+05 -3.21075E+04 -1.43040E+03 -5.28707E+04  5.54680E+04 -1.54036E+03
  3.79269E+04  5.22463E+04 -1.72109E+04  7.94605E+04 -6.36001E+04  6.31610E+04 -8.58365E+04  2.96284E+04
 -8.49148E+04 -1.73210E+04 -5.66490E+04 -5.18355E+04 -1.58870E+04 -6.78753E+04  2.49760E+04 -4.36406E+04
  3.52575E+04  4.84800E+02  1.61132E+04  4.85468E+04 -3.40522E+04  4.18983E+04 -6.71286E+04  4.85198E+03
 -5.41178E+04 -5.93748E+04 -3.29610E+03 -7.87646E+04  3.16399E+04 -5.77775E+04  4.34723E+04 -1.73622E+04
  4.31982E+04  1.00664E+04  3.45825E+04  2.36689E+04  1.45817E+04  2.82606E+04 -3.74405E+03  2.88307E+04
 -2.32142E+04  8.78125E+03 -1.51729E+04 -3.26736E+03  7.97611E+03 -7.16166E+03  2.12864E+04  1.32561E+04
  3.04554E+03  3.31501E+04 -3.15762E+04  3.66562E+04 -5.57138E+04  1.76340E+03 -6.05078E+04 -4.50669E+04
 -1.47475E+04 -6.46491E+04  4.17794E+04 -4.88741E+04  5.64081E+04  1.62159E+03  3.70776E+04  3.11526E+04
 -8.94452E+03  3.37449E+04 -3.44077E+04  1.32272E+04 -3.03297E+04 -1.26632E+03 -1.92326E+04 -1.17302E+04
 -1.26627E+04 -1.13594E+04  6.60410E+03 -1.64443E+04  2.27563E+03 -2.27701E+04  2.16045E+04 -1.35974E+04
  1.53538E+04  3.92842E+03 -1.23262E+04  9.48647E+03 -1.88593E+04 -4.19105E+03 -9.46190E+03 -3.15729E+04
  2.09884E+04 -4.11474E+04  5.09448E+04 -1.97613E+04  4.54638E+04  2.19381E+04  1.25299E+04  4.15021E+04
 -2.08475E+04  3.47767E+04 -2.87412E+04  2.64401E+03 -7.46494E+03 -2.75450E+04  1.84166E+04 -2.78786E+04
  3.53182E+04 -1.20337E+04  3.85986E+04  2.35589E+04  2.02855E+04  5.08510E+04 -6.63911E+03  4.75970E+04
 -3.06422E+04  3.38442E+04 -4.35764E+04  1.19915E+04 -4.38832E+04 -1.38895E+04 -2.18555E+04 -3.79050E+04
  1.45416E+04 -2.95131E+04  3.66950E+04 -1.52813E+04  2.31293E+04  1.23567E+04  2.69319E+03  1.81976E+04
 -7.00167E+03  1.19818E+04 -1.19353E+04 -3.28219E+03  6.32538E+03 -1.18026E+04  1.88648E+04  8.45907E+03
  1.64722E+04  2.22969E+04 -3.58225E+03  2.14028E+04 -1.99205E+04  8.32921E+03 -2.25039E+04 -1.83047E+03
 -2.27865E+04 -1.70160E+04 -8.76191E+03 -2.06568E+04  1.47670E+03 -1.96275E+04  1.84863E+04 -1.38859E+04
  2.14706E+04 -1.58207E+04  2.82059E+04  1.67690E+03  2.53057E+04  2.18188E+04  3.59671E+03  3.67636E+04
 -1.32485E+04  3.06580E+04 -3.25669E+04  6.75238E+03 -2.42338E+04 -1.54539E+04 -5.41830E+03 -1.35490E+04
 -2.02914E+02 -3.62244E+03 -5.19394E+03  6.19067E+03 -1.45304E+04  4.77760E+03 -1.37055E+04 -3.50238E+03
 -8.77194E+03 -2.01539E+04  9.33398E+03 -2.23277E+04  1.23792E+04 -1.41057E+04  1.74070E+04  2.24294E+03
  1.55829E+04  1.24281E+04 -6.29928E+02  2.52849E+04 -9.54128E+03  1.05885E+04 -2.14873E+04 -3.74514E+03
 -1.18055E+04 -2.02315E+04 -2.67546E+03 -1.96887E+04  1.06156E+04 -1.60078E+04  2.18433E+04 -9.24278E+03
  1.94310E+04 -1.51005E+03  1.32757E+04  2.95506E+03  1.27977E+04  1.70386E+03  8.46642E+03 -6.56896E+03
  1.12388E+04  5.28607E+03  1.96747E+04  1.63242E+04  1.21156E+04  2.92963E+04 -6.46483E+03  3.00080E+04
 -1.82298E+04  2.89085E+04 -2.74421E+04  1.39574E+04 -2.75721E+04 -1.26386E+02 -3.16059E+04 -1.83197E+04
 -1.06584E+04 -2.46019E+04  6.92688E+03 -3.05877E+04  2.03325E+04 -1.34908E+04  2.09530E+04  8.49829E+03
  6.03135E+03  8.21736E+03 -1.21771E+04  1.36212E+04 -1.90525E+04  2.57309E+03 -1.12596E+04 -1.19855E+04
 -2.21952E+03 -1.70235E+04  5.92875E+03 -1.28919E+04  7.99957E+03  4.98587E+02  3.34709E+03  3.76346E+03
 -9.01646E+03  1.08080E+04 -5.67871E+03 -2.96676E+03 -2.02163E+03 -1.35448E+04  8.72935E+03 -1.28717E+04
  1.87884E+04 -6.36963E+03  1.59719E+04  1.27394E+03  2.08531E+04  1.87171E+04  8.85217E+03  2.17334E+04
 -2.35402E+03  1.87138E+04 -1.37314E+04  1.19276E+04 -1.52766E+04  2.34774E+02 -1.06320E+04 -7.35340E+03
 -2.87760E+03 -7.18138E+03 -5.78832E+03  3.42266E+03 -2.44073E+03 -1.29273E+02 -7.23913E+03  3.83289E+03
 -1.37036E+04  1.75569E+03 -1.54108E+04 -7.22088E+03 -4.50753E+03 -1.57827E+04  3.02525E+03 -9.47489E+03
  8.92323E+03 -2.73836E+03  1.17158E+04  5.28586E+03  2.06447E+03  7.65062E+03 -5.05846E+03 -3.24129E+03
 -4.82657E+03 -3.62734E+03  3.25966E+03 -1.69972E+04  9.29833E+03 -9.20644E+03  1.11064E+04 -9.07152E+03
  1.58476E+04  5.11582E+03  1.48841E+04  8.15108E+03  3.16625E+03  1.07988E+04 -5.51607E+03  6.16044E+03
 -1.14427E+04  4.94597E+03 -5.07713E+03 -3.38368E+03  1.12989E+02 -6.04599E+03  6.57430E+03 -2.33414E+03
  8.02616E+03  6.63439E+03 -4.15312E+03  1.10570E+04 -3.83431E+03  9.05342E+03 -1.04790E+04  1.94095E+03
 -7.73340E+03 -5.94488E+03 -1.24983E+03 -4.17897E+03  4.74793E+03 -1.29538E+03  3.42561E+03  5.92537E+03
  9.09590E+03  6.48326E+03 -4.26188E+03  1.08660E+04 -9.77630E+03 -4.71366E+02 -9.46401E+03 -1.11205E+03
 -7.02481E+03 -1.82492E+04 -1.96584E+03 -9.89771E+03  6.79391E+03 -3.94590E+03  1.07983E+04  3.49040E+03
  8.34587E+03  5.39653E+03 -2.70884E+02  1.70151E+04 -3.60734E+03  5.26475E+03 -7.22271E+03 -9.09383E+02
 -9.48328E+03 -4.36608E+03 -3.93829E+03 -1.09864E+04  5.09424E+03 -2.17396E+03  4.59628E+03  2.09260E+02
  4.01889E+03  1.69800E+03 -2.22350E+03  2.61269E+03  1.72865E+02 -3.53351E+03  3.46241E+03 -4.60462E+03
  5.91667E+03 -3.44117E+03  8.33470E+03  2.32676E+03  7.89173E+03  6.07461E+03  8.13860E+03  1.40028E+04
 -7.01138E+02  1.09686E+04 -1.53040E+04  7.74358E+03 -1.27218E+04  2.70592E+03 -1.24937E+04 -2.83330E+03
 -3.16176E+03 -1.27500E+04  3.10058E+03 -1.09983E+04  2.11570E+03 -4.63380E+03  2.66433E+03 -6.91363E+03
  6.04140E+03 -3.02977E+03  5.75834E+03 -6.87983E+03  5.57278E+03 -5.31857E+03  1.07481E+04 -1.78045E+03
  1.16526E+04  1.84857E+03  2.30116E+03  5.42434E+03 -8.24531E+01  3.59586E+03 -1.02571E+04  4.70682E+03
 -9.89073E+03 -1.74425E+03 -8.66292E+03 -2.38174E+03 -1.03775E+03 -1.13586E+04  2.45561E+03 -1.01042E+04
  7.56140E+03 -3.77519E+03  1.10439E+04  1.17806E+03  1.03902E+04  8.45318E+03  2.94234E+03  6.45980E+03
 -6.74812E+03  9.10683E+03 -2.75627E+03 -1.49713E+03 -2.75207E+03  5.19113E+03  1.84319E+03 -1.54520E+03
  3.89769E+02  9.19578E+02 -1.91000E+03  1.96955E+03  2.61009E+02  6.58050E+03 -6.58449E+03 -4.91735E+03
 -1.76354E+03 -1.19443E+04  9.57116E+01 -7.39417E+03  5.58360E+03 -8.95798E+03  7.75741E+03  2.53307E+03
  7.37630E+03  5.80073E+02  1.13353E+03  1.08056E+04 -5.73362E+02  5.20933E+03 -6.02089E+03  5.11973E+03
 -8.06359E+03 -2.52386E+03 -4.15237E+03 -1.00092E+03  4.21091E+03 -1.76338E+03  1.68102E+03 -6.30921E+03
  3.60743E+03  2.29995E+03  4.11381E+03 -7.68500E+01  1.34238E+03  2.57642E+03  1.80334E+03  5.71715E+03
  3.16107E+03  3.76522E+03  4.41972E+03  3.51893E+03  5.62181E+03  1.05061E+03  1.28311E+03  6.83465E+03
 -4.96805E+03  5.12128E+03  2.21527E+02  5.51890E+03 -7.14684E+03 -1.02432E+03 -5.65189E+03 -5.14993E+03
  2.03970E+03 -9.42679E+03 -2.45689E+02 -7.88597E+03  8.89668E+03 -6.95714E+03  3.84074E+03 -2.13338E+03
  8.92407E+03  2.53078E+03 -4.10936E+00  6.86451E+03 -3.33965E+03  4.73301E+03 -4.07319E+03  1.43538E+03
  2.24793E+03 -9.26803E+02  6.21743E+02 -6.64592E+03  6.04934E+03 -4.76701E+03 -1.23577E+03  4.29185E+03
  2.67333E+03  2.73792E+02 -4.31281E+02  2.09495E+03  2.47682E+02  1.52883E+03  1.99984E+03  1.46618E+03
 -5.77410E+02  3.55009E+02  4.93641E+03  6.65302E+02  5.89803E+03  5.63071E+03 -2.21569E+03  5.79485E+03
 -7.11551E+03  6.10274E+03 -1.80955E+03  1.04170E+03 -5.68274E+03 -8.35656E+02  2.93394E+03 -5.86301E+03
  5.73366E+02  3.64356E+02  1.40522E+03 -3.01612E+03 -3.46156E+03 -2.01080E+03 -4.16590E+03  1.99195E+02
 -4.38438E+03  6.87740E+02 -5.56377E+03 -3.41645E+03 -4.12851E+03  3.41993E+03  6.55237E+02 -2.76113E+03
  4.45122E+03  1.55134E+03 -1.47050E+03 -9.29057E+02  4.89681E+03 -2.85687E+03 -2.14904E+03  5.21900E+03
 -3.14615E+03  8.60302E+02  1.48938E+03 -4.56032E+03 -1.47898E+03  9.86738E+02  2.18168E+03 -4.99564E+03
  3.88880E+03  6.13522E+03  3.88719E+03  7.56429E+01  4.20152E+03  3.51298E+03 -4.80511E+03  5.19418E+03
 -4.99913E+03  3.47689E+02 -5.42563E+03  9.49294E+02  2.34610E+03 -3.54399E+03 -2.12919E+03 -1.51531E+02
 -5.72047E+02 -1.38571E+03  1.48554E+03  2.71975E+02  1.07579E+03  3.93573E+03  1.11959E+03  4.97355E+03
  2.12941E+02 -5.49560E+02 -2.18103E+03 -2.73833E+03 -2.54072E+02 -5.16460E+03  6.26947E+02  3.38891E+03
 -1.20683E+03 -5.68828E+03 -5.71704E+02  8.07470E+02 -6.05719E+03  1.68880E+03 -6.13041E+03 -1.64428E+03
 -1.98026E+03 -7.24031E+03 -2.35782E+02 -9.26317E+03  1.62803E+03 -5.37593E+03  7.05795E+03 -2.98869E+03
  6.77027E+03  2.80884E+03  3.57979E+03  2.50131E+03 -1.90817E+02  6.57000E+03 -2.93027E+03  2.48542E+03
 -2.15258E+03  3.88314E+03 -1.00746E+04 -5.18029E+02  5.77196E+02 -3.14954E+02 -3.66429E+03  1.72924E+02
 -3.42565E+03 -2.41487E+03 -3.91221E+03 -1.13409E+03  7.40873E+02 -3.82556E+03  4.68581E+02 -1.95252E+03
  7.01223E+03 -1.15801E+03  5.96596E+03 -4.75369E+03  6.61432E+03  2.53651E+03  6.27861E+03  3.27084E+03
 -1.02877E+03  1.41812E+03 -8.92914E+02  5.34653E+03 -8.79455E+03  4.76353E+03 -4.98948E+03 -1.22620E+03
  3.20085E+03 -7.09469E+03  7.12697E+02 -8.63036E+02  1.32254E+03  2.47847E+03  4.58053E+03 -5.55924E+03
  1.35343E+03  1.34190E+03  4.11340E+03  9.72320E+02 -5.18187E+03 -4.85913E+03 -4.00263E+02  4.86657E+02
  1.04460E+03 -3.20708E+03  3.22360E+03  2.46209E+03  2.56413E+03  6.56848E+02  1.37970E+03 -1.56680E+02
 -9.08009E+02 -1.24659E+03 -2.02996E+03  3.45582E+03 -6.94832E+02  3.00557E+03 -4.63024E+03 -9.03721E+03
  2.43472E+03  2.42250E+03  9.20151E+03  3.85138E+00 -2.66568E+03  2.31609E+02  6.12884E+02  8.06047E+03
  2.84262E+02 -4.44642E+02 -4.15222E+03  5.65239E+03 -4.73207E+03 -1.29850E+03 -4.29529E+03  4.81672E+03
  4.02103E+03  1.38462E+03  3.18309E+03  2.30709E+03  1.23192E+03 -6.19941E+02 -2.22376E+03  7.87277E+01
  4.86198E+01 -3.93111E+03 -2.71493E+03 -2.89590E+03  1.10508E+03 -3.50407E+03  4.10696E+03 -1.41454E+03
  2.29873E+03 -2.06123E+03 -2.11997E+03  5.44997E+03  2.65192E+03  2.95847E+03 -2.63249E+03 -2.87904E+03
