 $NMID ID='MM_0lb_SNR50_19hz_g40_29.RAW', FMTDAT='(8E13.5)'
 TRAMP=1., VOLUME=1. $END
  3.08348E+05  1.04711E+03  3.38484E+05  2.54061E+05  8.60040E+04  3.41487E+05 -1.30112E+05  2.52028E+05
 -1.92344E+05  8.44649E+04 -1.09442E+05 -2.90940E+04  4.79164E+02 -4.86375E+04  5.84468E+04  5.63154E+03
  3.80391E+04  5.28157E+04 -1.29693E+04  7.28761E+04 -5.84453E+04  6.57403E+04 -8.44896E+04  3.06472E+04
 -8.00145E+04 -1.32204E+04 -5.59613E+04 -4.90555E+04 -1.83443E+04 -6.80902E+04  2.65933E+04 -4.45492E+04
  3.63656E+04 -1.17553E+03  1.85027E+04  4.31645E+04 -3.28428E+04  4.61013E+04 -6.44672E+04 -2.40660E+02
 -5.21555E+04 -5.47147E+04 -5.93937E+03 -7.66962E+04  3.28362E+04 -5.23563E+04  5.16091E+04 -1.55519E+04
  4.29090E+04  1.03346E+04  3.15036E+04  2.30692E+04  1.34928E+04  2.60407E+04 -4.10346E+03  2.56895E+04
 -2.04087E+04  1.08386E+04 -1.85560E+04 -3.44249E+03  5.43274E+03 -6.17824E+03  1.90499E+04  1.50104E+04
  9.03541E+03  3.28315E+04 -2.70148E+04  3.46260E+04 -5.98149E+04 -1.44946E+03 -5.49421E+04 -4.20737E+04
 -1.30519E+04 -5.91520E+04  3.91625E+04 -4.00970E+04  5.54352E+04 -3.68609E+03  3.56682E+04  3.12732E+04
 -6.81900E+03  3.75484E+04 -3.00060E+04  1.62991E+04 -2.57607E+04 -5.74102E+03 -1.04935E+04 -9.47438E+03
 -4.92003E+03 -9.88725E+03  2.18052E+03 -1.64641E+04  3.66736E+03 -2.18216E+04  1.43691E+04 -1.25059E+04
  1.95624E+04  4.85682E+03 -5.38252E+03  1.15555E+04 -1.75668E+04  6.48928E+02 -7.69786E+03 -2.89249E+04
  2.11701E+04 -3.66366E+04  4.15238E+04 -1.88751E+04  4.09093E+04  1.82013E+04  1.59720E+04  3.88357E+04
 -1.63922E+04  2.99100E+04 -2.40004E+04  3.67944E+03 -7.08657E+03 -2.80595E+04  1.98907E+04 -3.21517E+04
  3.99972E+04 -6.27251E+03  3.08784E+04  2.28388E+04  1.96895E+04  3.81940E+04 -6.79706E+03  4.24692E+04
 -2.49129E+04  2.79243E+04 -4.08020E+04  8.72557E+03 -3.86843E+04 -1.30007E+04 -1.89102E+04 -3.26488E+04
  4.17048E+03 -3.33592E+04  2.39880E+04 -1.39560E+04  2.80889E+04  1.43808E+04  1.83127E+03  1.48692E+04
 -1.51515E+04  7.91562E+03 -9.53874E+03 -6.98639E+03  8.83225E+03 -6.22075E+03  1.83670E+04  6.94483E+03
  1.33307E+04  2.18672E+04 -9.58601E+03  2.14688E+04 -1.85342E+04  7.14571E+03 -2.72543E+04 -9.10207E+03
 -1.75734E+04 -1.37250E+04 -2.13065E+03 -1.34960E+04  6.47693E+03 -1.31865E+04  1.16495E+04 -1.26170E+04
  2.19444E+04 -9.18135E+03  2.72919E+04  4.18307E+03  1.89296E+04  1.95085E+04  4.00977E+03  3.18746E+04
 -1.48287E+04  3.00285E+04 -2.82751E+04  8.46132E+03 -2.11556E+04 -7.94318E+03 -8.20495E+03 -1.24207E+04
  3.05421E+03 -3.91029E+03  3.03590E+03  2.95392E+03 -1.05255E+04  7.28657E+03 -1.28372E+04 -8.14042E+02
 -9.49523E+03 -1.59285E+04  3.01705E+03 -1.88184E+04  1.40826E+04 -1.31538E+04  8.74306E+03 -2.55041E+03
  1.00861E+04  1.40821E+04 -2.88318E+03  1.65458E+04 -7.84781E+03  7.23038E+03 -1.26330E+04 -5.90217E+03
 -1.35194E+04 -1.11285E+04 -2.03743E+03 -1.50824E+04  9.89797E+03 -1.91039E+04  1.45007E+04 -5.25579E+03
  1.46091E+04  2.46438E+03  8.54353E+03  1.80302E+03  5.85581E+03  3.80373E+02  1.17927E+04 -3.98782E+02
  1.53965E+04  1.36798E+03  1.71099E+04  1.02927E+04  8.44928E+03  2.18672E+04 -1.03894E+04  2.51969E+04
 -1.71419E+04  1.82400E+04 -2.13373E+04  9.00222E+03 -2.39418E+04 -3.34228E+03 -1.94114E+04 -1.46879E+04
 -7.73887E+03 -2.02100E+04  5.87917E+03 -1.71632E+04  1.53830E+04 -1.12076E+04  1.69076E+04  1.89902E+03
  4.11370E+03  1.31631E+04 -6.03032E+03  6.29388E+03 -9.39137E+03  1.57174E+03 -1.17746E+04 -7.42560E+03
 -4.81313E+03 -9.67091E+03  3.41461E+03 -1.03429E+04  1.15286E+04  7.11004E+02 -1.05022E+03  5.30229E+03
 -2.06813E+03  3.24753E+03 -5.17791E+03 -3.79254E+03  4.65405E+03 -9.85808E+03  1.16008E+04 -1.11588E+04
  9.14688E+03 -7.90701E+03  1.25952E+04  8.87962E+02  8.20999E+03  7.41492E+03  8.37030E+03  1.50826E+04
 -4.24329E+03  1.76977E+04 -7.46077E+03  1.33988E+04 -8.61252E+03  3.33148E+03 -5.01731E+03 -2.64319E+03
 -3.13482E+03 -4.06617E+03 -1.88738E+03  4.95869E+03 -1.55621E+03  2.55484E+03 -4.43929E+03  7.43917E+03
 -6.42399E+03 -3.97127E+03 -7.09994E+03 -5.54566E+03 -4.41416E+03 -6.76150E+03  3.09553E+03 -7.63448E+03
  7.86698E+03 -7.10105E+03  9.20164E+03  4.82277E+03  1.52046E+03  1.02582E+03 -6.43745E+03  3.72304E+02
  2.33887E+03 -4.39596E+03  1.34679E+03 -1.14184E+04  6.17577E+02 -1.15307E+04  9.98814E+03 -6.75555E+03
  1.07925E+04  4.47763E+03  1.23586E+04  8.09701E+03  3.84065E+03  4.83862E+03 -4.62607E+03  7.94626E+03
 -9.72441E+03  4.34477E+03 -2.90982E+03 -2.00208E+03  8.23362E+02 -5.38826E+03  4.78400E+03 -2.40599E+03
  1.83517E+03  6.46519E+03  1.44658E+03  4.90783E+03 -5.35991E+03  5.43729E+03 -1.19032E+04  1.70847E+03
  1.61441E+03 -3.93989E+03  5.21172E+02 -5.39899E+03  5.74722E+03 -1.11066E+03  4.74841E+03 -2.21296E+03
  1.33883E+03  1.00301E+03 -7.03376E+03  7.34282E+03 -3.11363E+03  8.20273E+03 -6.52819E+02 -3.84584E+03
 -7.25025E+02 -4.13694E+03  1.41452E+01 -7.58873E+03  5.13967E+03  2.34489E+02  4.85734E+03  1.62133E+03
  6.82348E+03  3.23629E+03  6.51159E+03  8.49699E+03 -5.20840E+02  6.63175E+03 -3.68022E+03  2.34976E+03
 -4.68834E+03 -9.14292E+03  1.00269E+03 -4.37556E+03 -6.58975E+02 -5.30046E+03  2.38089E+03 -2.80846E+03
  6.89110E+03 -3.92055E+02  3.05068E+03 -2.03875E+03 -1.60283E+03 -2.00218E+03  1.04476E+01 -2.61634E+03
  7.18221E+02  7.56069E+02  7.22854E+03  1.35853E+03  4.90349E+03  9.51119E+02  5.63447E+03  1.08796E+04
 -2.07080E+03  4.97791E+03 -9.81416E+03  2.50031E+03 -7.70926E+03 -2.59217E+02 -8.83779E+03 -3.62163E+03
 -2.90044E+03 -7.21574E+03 -1.38349E+03 -1.00070E+04  3.03365E+03 -3.56839E+03  1.79700E+03 -4.64794E+03
  8.87708E+02  8.29008E+02  2.69828E+03 -1.94207E+03  7.19059E+03 -7.26211E+02  1.66763E+03  2.40875E+03
  3.20406E+03 -2.09558E+03  3.76557E+01  4.88778E+03 -4.74290E+03 -7.22294E+01 -7.00830E+03  5.70439E+03
 -8.94674E+02 -5.51900E+02 -1.19229E+03 -1.96565E+03 -1.84692E+03 -1.97801E+03  1.65670E+03 -6.79371E+03
  1.76417E+03 -4.37887E+03  9.37686E+03 -1.51396E+03  4.32931E+03  3.89522E+03 -9.31564E+02  1.09297E+04
 -1.02325E+03  2.35459E+03 -3.25012E+03  3.15680E+03  3.04696E+03  5.44461E+02 -3.84221E+03 -1.30858E+03
  2.47094E+03 -2.92226E+03  3.50637E+03 -1.32760E+03 -1.54690E+03  1.91113E+03 -6.42063E+03  1.73003E+03
 -8.65793E+02 -1.66159E+03  4.75790E+03 -2.86205E+03  3.52234E+02 -2.36140E+03  7.61665E+02 -3.85213E+03
  4.55927E+03 -7.10958E+02  1.82360E+03  8.55669E+02 -1.72587E+02  1.96362E+03  2.20770E+03  3.57536E+02
 -5.21440E+03 -3.23161E+02 -8.20464E+03 -4.10667E+03 -1.62766E+03  1.27270E+03  1.37852E+03 -4.54658E+03
  1.89588E+03  1.62570E+03  1.34915E+03  9.12226E+02  1.98516E+03  6.46860E+02 -3.49006E+02 -7.83178E+02
  9.15285E+02 -1.22114E+03  2.05733E+03  4.57770E+02 -1.24390E+01  7.26437E+03  3.92379E+03  6.34726E+01
 -1.13679E+03  3.15803E+03 -5.02458E+03  4.77478E+03  7.90417E+02  2.37705E+02 -6.82453E+03  4.06349E+03
  9.95867E+02 -8.14215E+03 -1.75626E+03 -4.79409E+03  5.02768E+03 -1.37969E+03  2.51012E+03  1.17092E+03
  3.69166E+03 -3.97749E+03 -8.37972E+02  3.51239E+03 -4.24983E+03  5.68249E+02 -1.02683E+03 -9.65143E+01
 -2.54351E+03 -3.47620E+03 -2.67644E+03 -2.69161E+03  2.59346E+03 -1.54495E+03 -1.15040E+03  2.61776E+03
  4.30853E+03  1.53118E+03  5.72834E+02  1.22045E+02 -2.17368E+02 -3.41436E+03 -8.10905E+02 -2.65421E+03
 -2.07024E+03 -7.21381E+02  1.40418E+03 -6.06542E+02 -1.50222E+03  1.28727E+03  5.95710E+02  1.97938E+03
 -4.11437E+02 -8.04309E+02 -9.32399E+02 -5.42223E+01 -1.06800E+03 -1.74644E+03  4.51012E+02 -5.39272E+02
  3.08125E+03 -7.30813E+02  1.99505E+02 -1.69419E+03 -4.33601E+03 -3.31620E+03  2.75889E+02 -4.08108E+02
 -2.96384E+02 -3.10218E+03 -2.71397E+03  1.71088E+03 -4.54472E+02  9.86120E+02 -6.56875E+02 -7.15356E+02
  5.40137E+02 -2.76526E+03  2.00211E+03  1.25872E+03  8.03017E+02 -4.60773E+02  1.66168E+03  3.10098E+03
  4.86329E+02 -1.07934E+03 -1.22311E+03  2.43164E+03  2.56634E+03 -5.68989E+03  4.44404E+03  1.00620E+03
  2.31388E+03  4.90658E+03 -1.74726E+03  3.92560E+03 -5.66928E+02  1.28081E+03 -1.45894E+03  6.27254E+02
 -4.65544E+03 -3.79872E+03 -4.96541E+03 -2.31404E+03 -1.89681E+03 -6.39822E+03  3.20726E+01 -4.42228E+02
  1.74243E+03 -1.21632E+03  3.60335E+03  2.23360E+03  4.45093E+02 -2.51491E+03 -9.61587E+02  9.06035E+02
 -5.13987E+02  1.78969E+03 -1.81722E+03  1.87658E+02  4.46437E+01  4.92485E+02  8.08355E+02  9.38255E+02
 -6.92509E+02 -6.26475E+02 -4.38311E+03  2.15196E+02 -5.85000E+03 -1.38334E+03 -1.85530E+03  1.29567E+03
 -1.46272E+03 -3.47557E+03 -1.87997E+03  6.28800E+02  2.32662E+03  1.08897E+03 -4.69865E+02 -3.60305E+03
  6.71543E+01  1.11373E+03 -2.05248E+03  3.65586E+03 -1.90208E+03  1.30612E+03 -2.74156E+03  1.82954E+03
 -2.37708E+03  2.08453E+03 -8.30907E+01  1.03268E+02 -3.97122E+03  4.92871E+02 -2.09475E+03 -1.80324E+03
 -1.16519E+03 -1.02164E+03 -5.68036E+02 -9.48863E+02 -1.84743E+03 -7.29793E+02 -2.97033E+02 -2.14541E+03
  4.93782E+03  4.08428E+02 -1.88027E+03 -8.01572E+02  6.50080E+02  1.99976E+03  2.59134E+03  1.24537E+03
  4.83671E+02  2.05195E+03 -1.94489E+03  1.86339E+03  3.21116E+02 -2.68031E+03 -9.43355E+01  1.99708E+03
 -9.90873E+02 -7.26871E+02 -2.60485E+03  5.16220E+02 -4.18724E+02 -7.17442E+02  3.54025E+02 -2.62181E+03
  3.34816E+03 -5.25068E+02  3.45333E+03 -3.33087E+03 -2.74617E+03 -3.14305E+02  2.62614E+03  9.37965E+02
 -1.64953E+03  1.55437E+03 -1.53542E+03  2.06604E+03  1.69658E+03 -6.92555E+02 -7.11130E+02 -1.24223E+03
 -2.85873E+03  3.40585E+02  3.40812E+03  3.15804E+03  3.26706E+03 -2.63603E+03  9.38749E+01 -1.06821E+03
 -3.47635E+03 -2.84095E+03 -1.22263E+03  5.12097E+02 -1.23830E+03  1.24738E+03  3.24458E+02  3.34282E+03
 -1.54454E+03  1.08116E+03 -1.67105E+03  1.81197E+03 -2.99610E+03 -2.61452E+03  2.29094E+02 -1.09212E+03
 -1.83914E+03 -3.52099E+02 -6.85235E+00  6.49755E+02 -2.67453E+03  6.35820E+02  4.19955E+02 -1.92881E+03
 -5.83494E+03  7.85840E+02 -2.48795E+03 -2.30242E+03  3.33325E+03 -4.66382E+03  3.36791E+03 -9.29762E+02
  5.78629E+01  9.17905E+01  3.77007E+03  3.75426E+03  3.12978E+03  2.77914E+03 -2.11725E+03 -3.64562E+03
