 $NMID ID='MM_0lb_SNR50_19hz_g50_95.RAW', FMTDAT='(8E13.5)'
 TRAMP=1., VOLUME=1. $END
  3.11129E+05  3.36206E+02  3.39764E+05  2.52125E+05  8.91134E+04  3.37300E+05 -1.35673E+05  2.50719E+05
 -1.88450E+05  8.37158E+04 -1.11028E+05 -3.49080E+04 -8.78382E+02 -5.04140E+04  5.76382E+04 -2.39598E+03
  3.42988E+04  5.37082E+04 -1.91793E+04  7.68729E+04 -6.15580E+04  6.67370E+04 -8.32211E+04  3.31162E+04
 -8.21430E+04 -1.42541E+04 -5.36817E+04 -5.17653E+04 -1.30469E+04 -6.66641E+04  2.79919E+04 -4.41928E+04
  4.12932E+04  8.20735E+02  1.60028E+04  4.70889E+04 -3.45456E+04  4.26451E+04 -6.40803E+04  5.94295E+02
 -5.50659E+04 -5.42060E+04 -9.63647E+03 -7.88668E+04  3.34985E+04 -5.70516E+04  4.60761E+04 -1.39015E+04
  4.21993E+04  1.22120E+04  3.08768E+04  2.49462E+04  1.89036E+04  2.33314E+04 -1.42720E+03  2.54508E+04
 -2.10232E+04  1.18621E+04 -1.73255E+04 -5.46803E+02  2.37098E+03 -1.20556E+04  2.28298E+04  8.57741E+03
  5.56241E+03  3.38308E+04 -3.08565E+04  3.55086E+04 -6.34384E+04  4.91754E+03 -5.58690E+04 -4.14607E+04
 -1.57405E+04 -5.86741E+04  3.56639E+04 -4.27995E+04  5.61695E+04 -2.51650E+03  3.25547E+04  3.07320E+04
 -4.67945E+03  3.61737E+04 -2.86229E+04  8.07856E+03 -2.60954E+04 -5.82890E+03 -1.55806E+04 -1.01632E+04
 -5.23930E+03 -1.39972E+04 -3.91534E+03 -1.97400E+04  7.25716E+03 -1.87563E+04  1.17428E+04 -1.39217E+04
  1.64431E+04  6.43934E+03 -6.82340E+03  9.55064E+03 -1.68449E+04 -7.83671E+02 -1.08182E+04 -2.92773E+04
  2.02275E+04 -3.97183E+04  4.53491E+04 -2.06114E+04  4.52248E+04  1.54884E+04  1.86279E+04  4.07037E+04
 -1.14640E+04  3.46492E+04 -2.78896E+04  2.09829E+02 -1.08224E+04 -2.67936E+04  1.72914E+04 -3.33613E+04
  3.88695E+04 -1.06088E+04  3.05144E+04  2.41124E+04  1.32377E+04  3.93152E+04 -6.22586E+03  4.48150E+04
 -2.65145E+04  3.34082E+04 -4.02213E+04  7.78247E+03 -3.95301E+04 -1.66863E+04 -1.91163E+04 -3.58579E+04
  7.14091E+03 -3.54524E+04  3.17446E+04 -8.59282E+03  2.69436E+04  8.64566E+03  8.18962E+03  1.49655E+04
 -1.24211E+04  1.05229E+04 -1.16659E+04 -6.50683E+03  5.04926E+03 -9.03570E+03  1.43240E+04  5.36768E+03
  1.36138E+04  2.01407E+04 -5.78103E+03  2.42134E+04 -1.81393E+04  1.49462E+04 -2.41848E+04 -7.85685E+03
 -1.66040E+04 -1.47018E+04 -1.03305E+04 -1.80056E+04  4.11920E+03 -1.24272E+04  1.13073E+04 -1.40854E+04
  2.36296E+04 -9.11915E+03  2.91961E+04  4.16534E+03  2.23071E+04  1.82003E+04  1.49189E+03  3.42511E+04
 -1.07848E+04  2.77350E+04 -2.93424E+04  6.98326E+03 -2.20485E+04 -1.32371E+04 -1.50071E+03 -1.50416E+04
  1.65485E+03 -1.20925E+03 -6.99864E+02  5.01530E+03 -1.18074E+04  5.86102E+03 -1.77159E+04 -4.78954E+03
 -1.05709E+04 -1.48738E+04  6.67804E+03 -1.66393E+04  1.03794E+04 -1.35043E+04  1.34773E+04 -1.97082E+03
  1.06027E+04  9.51118E+03 -6.17059E+03  1.75251E+04 -1.48270E+04  1.12891E+04 -1.70104E+04 -6.29721E+03
 -1.46217E+04 -1.46918E+04 -1.90366E+03 -1.75976E+04  1.29246E+04 -1.47393E+04  1.80233E+04 -5.22884E+03
  1.55643E+04 -1.25717E+03  1.34271E+04 -1.28873E+03  2.48650E+03 -2.50171E+03  1.12243E+04 -4.53203E+03
  1.40503E+04  3.22827E+03  1.22993E+04  1.26461E+04  7.03693E+03  2.70628E+04 -5.66605E+03  2.63533E+04
 -1.62835E+04  2.21660E+04 -1.94665E+04  5.41147E+03 -2.76015E+04 -2.67504E+03 -2.03870E+04 -1.46440E+04
 -1.03359E+04 -2.13996E+04  8.49808E+03 -1.88336E+04  1.67025E+04 -1.61054E+04  1.84365E+04  1.32054E+03
  5.76248E+03  7.20374E+03 -6.23599E+03  9.16168E+03 -1.30883E+04  3.05885E+03 -1.12323E+04 -8.28221E+03
 -5.94913E+03 -1.18689E+04  4.64949E+03 -1.13956E+04  5.84866E+03  1.19373E+03 -3.49390E+02  1.06902E+03
 -8.23123E+03  1.73905E+03 -1.72003E+03 -4.36617E+03  1.00147E+03 -9.04678E+03  5.92864E+03 -1.05521E+04
  1.42711E+04 -6.47218E+03  8.23426E+03  3.65943E+03  1.08949E+04  1.22858E+04  4.31649E+03  1.25489E+04
 -1.34211E+03  1.30979E+04 -9.69260E+03  8.36876E+03 -1.73704E+04  6.34622E+03 -1.11916E+04 -1.04134E+03
 -1.39793E+03 -5.66238E+03 -3.17375E+01  2.15921E+03 -4.45874E+02  3.92257E+01 -1.12352E+03  4.13427E+03
 -9.61782E+03  4.60599E+02 -6.45639E+03 -5.53438E+03 -1.77321E+03 -1.25569E+04 -3.32731E+02 -6.35690E+03
  8.94265E+03 -4.53570E+03  5.08197E+03 -5.50436E+01 -1.40983E+03  2.14866E+03 -8.09901E+03  2.19047E+03
 -5.27797E+02 -7.83776E+03 -2.24830E+03 -3.85703E+03  5.76174E+03 -6.15698E+03  7.57574E+03 -4.42275E+03
  9.07009E+03 -3.75772E+03  1.08387E+04  1.64848E+03 -2.93834E+03  9.67225E+03 -1.05252E+04  4.39576E+03
 -6.75737E+03  5.18350E+02 -1.42779E+03 -1.84953E+03  3.91277E+03 -3.10677E+02  4.03923E+03  1.87915E+03
  3.05742E+03  6.29447E+03  3.63733E+02  9.58589E+03 -2.97065E+03  7.27391E+02 -9.21482E+03  1.90117E+03
 -3.01863E+03 -1.53337E+03  2.33095E+03 -6.66122E+03  6.91459E+03 -7.44976E+03  5.86362E+03  1.89864E+03
  3.35027E+03  2.25872E+03 -3.68444E+03  5.47497E+03 -2.68068E+03  2.20308E+03 -7.90821E+03  1.78765E+03
 -6.68666E+03 -5.91720E+03  1.59440E+03 -7.31061E+03  5.22155E+03 -4.61743E+03  4.03965E+03 -2.40069E+02
  5.32534E+03  4.12242E+03  1.21587E+03  4.32341E+03 -5.97798E+03  7.19009E+03 -8.42335E+03  3.09548E+03
 -7.84583E+03 -2.00600E+03 -5.00314E+03 -1.04090E+03  2.39388E+03 -4.43956E+03  3.70283E+03 -3.14881E+03
  6.85868E+03 -2.51338E+03  2.04438E+03  5.21683E+02  5.12707E+03 -1.19948E+03 -3.08701E+02 -3.75993E+03
  3.42444E+03 -1.25361E+03  5.81957E+03 -4.00210E+03  8.88628E+03  2.96846E+03  1.65236E+03  7.72845E+03
 -3.58550E+03  9.36908E+03 -6.80281E+03  2.52422E+03 -1.28046E+04 -4.02499E+02 -5.98032E+03 -3.98957E+03
 -4.54564E+03 -7.32185E+03  2.79696E+02 -3.59925E+03  2.28544E+03 -3.56631E+03 -1.62626E+03 -3.71206E+03
  1.51317E+03 -6.35369E+01 -1.28966E+03  3.65424E+03 -6.80262E+02 -8.72860E+02  6.62517E+03  7.42221E+02
  6.75855E+03  3.23486E+03 -2.50268E+03  4.61664E+03 -5.71487E+03  4.37423E+03 -6.42051E+03 -2.29555E+02
 -7.46882E+03 -3.25825E+02 -1.46211E+03 -2.78386E+03  1.28341E+03 -1.45845E+03  5.42053E+03 -6.83972E+03
  4.68935E+03 -1.22500E+03  7.91331E+03  1.22935E+03  1.03402E+04  3.59119E+03  3.08904E+03  2.73144E+03
 -8.81488E+03  4.80855E+03 -3.50327E+03  1.16413E+03 -1.17297E+03  7.31832E+01 -2.77315E+02 -1.03492E+03
 -1.99735E+03 -2.84826E+03  2.01134E+03 -1.23654E+03 -2.25616E+03 -6.09003E+02 -3.64821E+03  2.37812E+03
 -1.05990E+03 -2.73563E+03  2.27171E+03 -9.79265E+03  7.83921E+02 -4.53149E+03  4.04776E+03 -4.09550E+03
  9.15467E+03  5.60778E+02  6.08240E+03  3.66812E+03 -2.64442E+03  5.74416E+03 -3.27184E+03  7.23561E+03
 -3.93528E+03  2.28556E+03 -5.72416E+03 -5.04122E+03  5.00088E+02  7.84343E+02  1.74862E+03 -1.05415E+03
  3.51676E+03  2.79024E+02  6.42884E+03 -1.56862E+03  3.49343E+03  5.86428E+03  3.76408E+03 -4.73243E+02
  5.40478E+01 -6.20499E+02  1.07003E+02  2.53663E+03  2.20445E+03  4.24269E+03  2.24414E+03  1.16542E+03
 -9.32305E+02  2.26735E+03 -2.08321E+03  3.12844E+03  1.19948E+02  1.04445E+03 -4.87002E+03  4.07408E+03
  1.01324E+03 -3.28594E+03  1.44654E+03 -2.17529E+03  1.65662E+03  4.70734E+02  3.31143E+03  2.32882E+03
  1.61678E+03 -2.02241E+03  2.12773E+01  1.04319E+03  4.93762E+02  1.21773E+03 -3.85019E+03  3.05546E+02
  2.46578E+03 -3.53305E+02 -3.20613E+02 -3.42696E+02 -3.06139E+02 -2.33335E+03  6.11875E+02 -1.41043E+03
  1.59190E+02  1.24042E+03 -4.20358E+02 -2.45609E+03  3.77063E+03  1.94271E+02  3.10780E+03 -1.79598E+03
 -4.82524E+03  7.64097E+02 -6.70028E+02  1.51753E+03 -1.71584E+03  1.37065E+03 -1.01886E+03  2.02837E+03
 -1.34458E+03  1.12219E+03  1.95887E+03  5.13573E+03 -8.39351E+02 -5.47668E+03 -1.65035E+03 -2.30973E+03
  1.24616E+03 -2.98058E+03  8.55044E+03 -1.46373E+03  2.33270E+03  2.94816E+03 -1.66020E+03 -3.94398E+03
 -9.28844E+02  3.52186E+03 -3.94360E+03  3.35016E+03  5.20136E+01 -4.27231E+03 -1.68202E+03  3.52718E+02
 -1.26914E+03 -1.39572E+02 -7.85711E+02  4.06566E+02  5.27486E+02 -1.98385E+03  1.25656E+03  1.67188E+03
 -2.82755E+03 -5.80901E+02  1.03931E+03 -2.05133E+01  2.26370E+03 -2.44699E+03  2.54230E+03 -2.17154E+03
  5.33041E+03  1.93327E+03  1.96034E+03  1.94113E+03  3.97381E+03  5.57713E+03  2.73344E+03 -2.19065E+03
  2.17745E+02  2.67017E+03  2.35293E+03  1.20555E+03 -4.34487E+03  9.66743E+02 -1.44202E+03 -4.01524E+02
  4.14252E+03 -3.94944E+03 -2.20580E+03 -2.79469E+03 -1.22212E+01  3.58959E+02  3.41528E+03  2.66653E+03
  2.63626E+03  5.53373E+03  7.44728E+02 -9.54766E+01  2.46316E+03  2.72496E+03 -2.20200E+03  3.79946E+03
 -1.16006E+03 -1.43411E+03  4.76768E+02  4.51098E+02 -2.97015E+03  3.60546E+03 -3.51423E+03  1.63589E+03
 -4.79143E+03  2.24011E+02 -2.17381E+03 -5.93286E+03  3.10208E+03 -2.63871E+03  4.96714E+03  5.64724E+02
  3.15973E+03 -1.48262E+03  6.02144E+03 -1.54044E+03 -2.26506E+03  1.76738E+03  1.48264E+02  2.36327E+03
 -4.28015E+03 -1.85329E+03  3.99933E+02 -7.63409E+02  9.58002E+02  9.85384E+02  3.85489E+02  1.64227E+03
 -1.28288E+03 -3.12999E+03 -1.19260E+03  3.29938E+03 -1.59264E+03 -4.26937E+02 -2.17027E+03 -3.27636E+03
  3.92245E+03  5.94755E+02  2.45542E+03 -2.18841E+03 -2.18633E+03  3.48971E+03  1.98345E+02 -2.38110E+02
 -1.97914E+03  4.29655E+03  4.10847E+01  2.04017E+03  1.13980E+03 -7.33942E+02 -5.55560E+02  1.46273E+01
  1.70032E+03 -2.50129E+01  1.96331E+03 -3.88020E+03 -1.94819E+03  1.37769E+03  3.03889E+03  3.04683E+03
 -1.37774E+03  1.90286E+03  5.82509E+03 -3.40155E+03 -1.26421E+03 -1.55360E+03  1.95301E+03 -2.52569E+03
  1.72427E+02 -3.84249E+02  4.58390E+03  1.13987E+03 -2.87796E+02 -5.32716E+02 -4.10289E+03  4.41211E+02
 -2.47621E+03 -2.16679E+03 -1.20809E+03 -2.52281E+03 -2.00087E+03 -4.77035E+03 -4.99112E+03  4.28952E+02
  6.01068E+03 -2.30898E+03  1.57035E+03  1.82967E+03  2.18865E+03  9.64735E+02  2.60635E+03  3.73900E+03
  3.80956E+03  1.36598E+03 -4.33305E+03 -2.02624E+03  1.99645E+03 -4.18753E+02  2.80795E+03 -9.63050E+02
 -5.32239E+02 -2.58214E+02  7.26025E+02  1.20713E+03 -4.04696E+03 -3.24714E+03  4.15775E+02 -1.72269E+03
 -4.51578E+03  2.69678E+02 -1.06652E+02 -2.42445E+03  2.28632E+03 -5.88672E+03  2.87938E+03  8.39127E+02
  3.85653E+03  2.35471E+02 -3.32759E+03  7.72808E+02 -2.27165E+03 -2.33432E+03 -5.61454E+02  9.89098E+02
