 $NMID ID='MM_0lb_SNR50_11hz_g60_45.RAW', FMTDAT='(8E13.5)'
 TRAMP=1., VOLUME=1. $END
  3.08229E+05 -1.17004E+03  3.37750E+05  2.47197E+05  8.39531E+04  3.34470E+05 -1.32722E+05  2.53271E+05
 -1.90984E+05  8.14069E+04 -1.10021E+05 -3.19017E+04 -2.20995E+03 -4.91560E+04  5.49187E+04 -1.27420E+03
  3.22017E+04  5.02253E+04 -1.66686E+04  8.01730E+04 -5.96311E+04  5.81229E+04 -8.70556E+04  3.52802E+04
 -8.14066E+04 -5.80577E+03 -6.06708E+04 -5.63347E+04 -2.06814E+04 -6.46979E+04  3.25176E+04 -5.11120E+04
  4.79471E+04  5.11115E+01  1.58518E+04  4.57468E+04 -3.33282E+04  5.03313E+04 -7.30449E+04 -3.39563E+02
 -5.33922E+04 -5.83383E+04 -7.95147E+03 -7.57137E+04  3.60086E+04 -5.98296E+04  5.26519E+04 -1.91395E+04
  4.64676E+04  1.23227E+04  3.18598E+04  2.53559E+04  1.83020E+04  2.86869E+04 -9.26056E+03  2.76367E+04
 -2.24028E+04  1.04981E+04 -1.79913E+04 -7.48701E+03  9.65087E+03 -4.26815E+03  2.40408E+04  1.23960E+04
  5.84863E+03  3.65568E+04 -3.57944E+04  3.92088E+04 -6.58794E+04 -3.17439E+02 -5.43563E+04 -4.18923E+04
 -1.45644E+04 -6.27668E+04  4.98482E+04 -4.67872E+04  5.80999E+04  2.85799E+03  3.37399E+04  2.72175E+04
 -4.86666E+03  3.26518E+04 -3.28666E+04  1.98360E+04 -2.87590E+04 -2.63915E+03 -2.15334E+04 -1.51355E+04
 -5.59916E+03 -1.52402E+04  3.02280E+02 -2.63379E+04  9.24755E+03 -2.37407E+04  1.76997E+04 -1.04631E+04
  1.87624E+04  5.46105E+03 -1.40239E+04  1.12036E+04 -2.01765E+04  5.04152E+02 -2.66631E+03 -3.62602E+04
  2.90463E+04 -4.84805E+04  5.01374E+04 -2.77019E+04  5.10959E+04  2.53285E+04  1.75433E+04  4.88597E+04
 -2.03798E+04  3.34033E+04 -2.84151E+04  2.67085E+03 -1.00569E+04 -3.04821E+04  1.79362E+04 -4.14040E+04
  4.19969E+04 -5.73696E+03  3.57397E+04  2.53200E+04  2.29432E+04  5.09769E+04 -7.61192E+03  5.85395E+04
 -4.24455E+04  4.16120E+04 -4.72324E+04  8.70755E+03 -4.40920E+04 -1.80471E+04 -2.84721E+04 -4.00962E+04
  1.16605E+04 -4.25561E+04  3.34484E+04 -1.54560E+04  3.08627E+04  1.29329E+04  6.66919E+03  2.02960E+04
 -1.48546E+04  7.37684E+03 -1.29593E+04 -1.25543E+04  3.87026E+03 -9.70439E+03  1.35637E+04  4.42055E+03
  1.38394E+04  1.91816E+04 -2.88510E+03  2.24132E+04 -1.96822E+04  1.88262E+04 -2.77745E+04 -3.57159E+03
 -2.97460E+04 -1.71383E+04 -1.14824E+04 -2.02428E+04  2.67929E+03 -2.41874E+04  1.90577E+04 -1.88114E+04
  2.47632E+04 -1.43357E+04  3.84305E+04  3.46815E+03  3.30742E+04  1.76967E+04  3.64152E+02  4.27389E+04
 -1.65151E+04  3.78051E+04 -3.18225E+04  5.45615E+03 -2.73089E+04 -9.82383E+03 -3.88417E+03 -1.57235E+04
  3.13262E+03 -6.12884E+03 -6.13212E+03  8.54399E+03 -1.62129E+04  3.31456E+03 -1.49784E+04 -9.89875E+03
 -1.29921E+04 -1.82451E+04  8.12048E+02 -1.93240E+04  2.09942E+04 -2.11275E+04  2.54274E+04 -5.82205E+03
  1.52627E+04  9.94618E+03 -7.88787E+03  1.80745E+04 -1.74465E+04  5.21358E+03 -2.26898E+04 -2.46941E+03
 -1.49254E+04 -1.89902E+04 -7.17155E+03 -2.46231E+04  1.24155E+04 -1.68344E+04  2.25351E+04 -1.41221E+04
  2.10401E+04  8.32367E+02  1.57922E+04  6.61862E+02  4.01346E+03  1.58735E+03  1.55831E+04  4.90493E+02
  2.11393E+04  1.47375E+03  2.16422E+04  1.89226E+04  1.10184E+04  3.39498E+04 -2.86319E+03  4.03344E+04
 -2.08971E+04  3.50704E+04 -3.89391E+04  2.15605E+04 -4.40829E+04 -6.80975E+03 -3.83319E+04 -2.81993E+04
 -5.08795E+03 -3.02468E+04  1.25820E+04 -3.09986E+04  2.28654E+04 -1.27516E+04  2.67963E+04  5.53050E+03
  9.00268E+03  1.30817E+04 -7.03774E+03  1.42435E+04 -1.92734E+04  2.76955E+03 -1.40928E+04 -7.00847E+03
  6.82404E+02 -1.74433E+04  1.27418E+04 -1.35995E+04  1.26776E+04  2.61051E+03  5.74667E+03  8.92840E+03
  3.56691E+02  6.03925E+03 -4.92692E+03 -9.46836E+03 -1.22758E+03 -1.91466E+04  1.45030E+04 -1.48541E+04
  2.22593E+04 -8.23023E+03  2.57988E+04  4.83894E+03  2.57639E+04  1.61231E+04  7.25834E+03  3.03797E+04
 -9.43651E+03  3.29119E+04 -1.70680E+04  2.10325E+04 -2.29176E+04  4.71388E+03 -1.24389E+04 -6.50583E+03
 -4.40433E+03 -8.28590E+03  1.37071E+03  5.67123E+02 -2.02140E+03  3.70832E+03 -1.04074E+04  7.10079E+03
 -8.90225E+03 -4.87070E+03 -1.17302E+04 -1.42576E+04 -8.84849E+03 -2.09819E+04  6.12796E+03 -1.69908E+04
  1.10077E+04 -4.84205E+03  6.55271E+03  1.60475E+03 -2.98363E+03  4.12485E+03 -8.49036E+03 -3.65544E+03
 -7.73597E+03 -2.38849E+03  1.57291E+02 -1.96769E+04  1.31751E+04 -1.13995E+04  2.15675E+04 -9.55344E+03
  1.88420E+04  5.50284E+03  1.88097E+04  1.23741E+04  1.32937E+03  2.33457E+04 -8.67553E+03  1.69238E+04
 -9.03175E+03  6.30559E+03 -3.48097E+03 -7.78797E+03  2.97133E+03 -1.40353E+03  3.67324E+03  2.87993E+03
  2.21072E+03  1.28379E+04  3.25594E+03  1.45105E+04 -7.90929E+03  1.54596E+04 -1.42636E+04  6.15722E+03
 -8.21213E+03 -8.21987E+03 -4.39339E+03 -1.23929E+04  1.39014E+04 -5.99927E+03  7.10324E+03  3.42322E+03
  8.75402E+02  8.76780E+03 -7.96188E+03  1.24680E+04 -1.42619E+04  2.51019E+03 -1.39104E+04 -9.26417E+03
 -7.27479E+03 -1.29091E+04  6.35394E+03 -1.96178E+04  9.81289E+03 -9.95617E+03  1.91780E+04  3.12921E+03
  1.26885E+04  1.10077E+04  1.21119E+03  1.63263E+04 -1.51651E+04  1.11089E+04 -9.16988E+03 -3.22118E+03
 -8.57257E+03 -1.01826E+04 -7.69644E+01 -1.31309E+04  2.76846E+03 -1.13580E+04  5.14964E+03 -2.37668E+03
  8.01354E+03  3.99770E+03 -1.46457E+02 -2.66007E+03 -3.39046E+03 -1.49414E+03  8.44243E+03 -2.91595E+03
  1.24326E+04 -2.37271E+03  1.08829E+04  2.57360E+03  1.54747E+04  1.24587E+04  9.38748E+03  1.49140E+04
 -4.07379E+03  2.57254E+04 -1.96070E+04  2.08775E+04 -2.12263E+04  8.80996E+03 -1.91328E+04 -8.48247E+03
 -9.79290E+03 -1.57957E+04 -3.23244E+03 -1.43862E+04  3.43853E+03 -9.62032E+03  8.29231E+03 -2.67327E+03
  8.52365E+03 -5.37316E+03  3.06844E+03  4.43281E+02  1.74754E+03 -8.23485E+03  7.52655E+03 -4.08479E+03
  1.10253E+04  3.38682E+03  6.71995E+03  6.82858E+03  1.10382E+03  3.63898E+03 -1.19838E+04  1.93129E+03
 -1.55064E+04  1.07497E+03 -9.71238E+03 -7.91206E+03  8.76501E+02 -1.62432E+04  1.06096E+04 -1.16756E+04
  1.55498E+04 -1.09853E+04  1.66830E+04  4.08167E+03  1.55012E+04  1.33644E+04  3.06935E+03  1.58733E+04
 -7.04786E+03  9.75481E+03 -3.45614E+03 -2.49902E+03 -8.18031E+03 -2.51244E+03 -6.30674E+03 -1.31321E+03
 -2.36696E+03  2.94131E+03  1.41709E+03  1.01945E+03 -3.59289E+03  4.72875E+03 -1.55607E+04  3.12016E+03
 -3.82789E+03 -6.66394E+03  3.59131E+01 -9.51052E+03  1.42208E+04 -9.83054E+03  1.06248E+04 -2.32021E+03
  1.19802E+04  3.78642E+03  9.30543E+03  8.23239E+03 -5.24783E+03  2.13561E+04 -5.32178E+03  1.63735E+03
 -1.60007E+04  2.61391E+03 -1.07679E+04 -6.95435E+03  4.19353E+03 -1.06320E+04  6.97357E+03 -1.08392E+04
  9.64159E+03 -5.63283E+03  6.32646E+03 -6.77764E+02 -1.94157E+03 -2.25592E+02 -1.11079E+03  1.54957E+03
  5.93870E+03 -2.16338E+03  3.55126E+03  2.96488E+03  6.42793E+03  4.61224E+02  2.29159E+03  3.68809E+03
 -7.41791E+03  1.25234E+04 -1.02194E+04  9.58719E+03 -1.27291E+04 -3.26748E+03 -1.51239E+04 -8.77406E+03
 -7.23703E+03 -1.52364E+04  6.94058E+03 -1.45233E+04  7.53645E+03 -9.14822E+03  9.69674E+03 -4.28157E+03
  1.04454E+04  1.08078E+04  1.89906E+03  8.06961E+03 -5.94002E+03  2.50070E+03 -4.72518E+03  1.58445E+03
 -4.83749E+03 -9.15437E+03  7.84763E+03 -7.26443E+03  7.50114E+03 -5.12490E+03  6.04769E+03  5.10565E+03
 -1.71506E+01  4.12864E+03  3.70139E+03  5.54321E+03 -6.12677E+03  5.22874E+03  5.40328E+03 -4.17027E+02
  1.11119E+03 -3.76034E+03  6.59996E+03  3.09862E+03  6.63570E+03  9.74512E+03 -3.92913E+03  7.76627E+03
 -3.32964E+03  1.65974E+03 -1.11132E+04  8.07461E+03 -7.59749E+03 -3.41914E+03  4.98376E+03 -1.49735E+03
 -5.44935E+02 -5.30038E+03  7.73667E+02 -2.61095E+03  3.67478E+01 -2.63367E+03  1.65044E+03  8.46464E+03
 -7.92315E+03  2.14988E+03 -9.63104E+03 -2.82558E+03 -3.57635E+03 -5.90466E+03  4.06708E+03 -4.73124E+03
  2.89438E+03  4.27897E+03  2.84737E+03 -9.52142E+01  3.13533E+03  1.80166E+03 -1.81264E+02  1.36586E+02
 -7.84764E+03 -4.63247E+03 -2.29845E+03 -7.98990E+03  2.35003E+03 -8.29872E+03  9.56776E+03 -8.90680E+02
  5.90091E+03  6.80827E+03  6.51059E+03  6.00048E+03  3.43454E+03  6.23846E+03  4.28366E+03  9.18702E+03
 -1.84537E+03 -2.93577E+03 -7.17138E+03  3.78577E+03  1.32651E+03 -3.68122E+03  2.51885E+03 -6.62203E+03
  5.14085E+03  3.34977E+03  4.59078E+03  6.19202E+03  8.24786E+03  7.34977E+03  3.30330E+03 -3.48733E+02
 -1.29355E+03  1.27185E+03 -2.72958E+03 -4.30066E+03 -2.72160E+03  3.43353E+03 -8.17327E+03 -6.46481E+02
 -2.12379E+03 -1.53825E+03 -6.49622E+03 -7.94579E+02 -6.09051E+03 -1.14898E+03 -1.08845E+04 -4.88774E+03
 -7.11204E+03 -1.04280E+04  4.19170E+03 -1.45713E+04  6.97828E+03 -3.39891E+03  1.46201E+04 -5.24081E+03
  5.97277E+03  5.44201E+03  8.04294E+03  4.84632E+03  5.75586E+03  1.03165E+04 -2.45976E+03  3.18568E+03
 -2.61533E+03  7.99263E+03 -9.04685E+03 -4.71000E+03 -6.67907E+03 -6.66251E+03  2.79243E+03 -1.56665E+03
 -4.78881E+03 -5.65211E+03 -2.47393E+02 -1.88575E+03 -7.48109E+02 -2.12220E+03 -2.96025E+03 -8.27400E+03
  1.55206E+04 -5.72353E+02  1.60785E+03  1.80052E+03  5.26252E+03  3.38647E+03  5.08936E+03  1.31923E+04
  1.77990E+03  6.71736E+03 -5.35309E+03  7.48510E+03 -8.01555E+03  3.90240E+03 -1.31535E+04 -6.51098E+03
 -3.68772E+03 -9.81338E+03  4.85779E+02 -8.61517E+03  6.73437E+03 -6.38255E+03  4.29159E+03 -8.19263E+02
  3.88524E+01  3.90373E+03  3.43122E+03  1.28722E+04 -3.57239E+03 -7.90920E+02 -1.86162E+03  1.04455E+03
  6.95260E+01  1.12463E+03  2.10999E+03  6.54442E+02  8.31643E+03  8.38378E+03  3.85971E+03  2.31179E+01
 -1.62124E+03 -3.35853E+03 -4.39094E+03 -4.14544E+01 -3.90308E+03  2.85546E+03 -2.12604E+03 -3.81362E+03
  3.61016E+03 -2.91454E+03  8.39949E+03 -6.26656E+03  8.57327E+03 -2.02114E+03 -2.55335E+03  4.14131E+02
 -1.59632E+03  7.97030E+03 -5.92032E+03  3.27948E+03 -3.86990E+03  6.96232E+03  8.28049E+02 -3.18480E+02
 -6.16219E+03 -7.76588E+03  2.83227E+03  5.31479E+03 -5.37621E+03 -4.24022E+03 -4.02216E+03 -2.62414E+03
 -1.09509E+04 -6.45050E+03 -1.33966E+03 -1.58555E+03 -1.22421E+03 -6.35559E+03  3.68699E+03 -4.91568E+03
  6.66485E+03  3.98703E+03 -3.30376E+03  3.08658E+03 -1.76387E+03  5.23348E+03 -8.60554E+03  4.82837E+03
