 $NMID ID='MM_0lb_SNR50_19hz_g40_84.RAW', FMTDAT='(8E13.5)'
 TRAMP=1., VOLUME=1. $END
  3.08949E+05  1.94011E+03  3.37269E+05  2.53627E+05  8.63319E+04  3.40852E+05 -1.38502E+05  2.46534E+05
 -1.92034E+05  8.07820E+04 -1.11299E+05 -3.74869E+04  4.40674E+03 -4.92916E+04  5.58788E+04 -3.91702E+03
  3.49054E+04  4.64748E+04 -1.44492E+04  7.65920E+04 -6.16656E+04  6.15230E+04 -8.28961E+04  2.96304E+04
 -7.71577E+04 -1.45334E+04 -5.68611E+04 -4.71310E+04 -1.49762E+04 -7.02770E+04  2.80188E+04 -4.34991E+04
  4.15262E+04  4.48883E+03  1.82940E+04  4.41264E+04 -3.64968E+04  4.84170E+04 -6.65527E+04  9.69917E+02
 -5.43864E+04 -5.44706E+04 -3.95204E+03 -7.50090E+04  3.37138E+04 -5.78992E+04  4.68350E+04 -1.57747E+04
  4.00945E+04  1.29337E+04  3.36727E+04  2.34188E+04  1.77396E+04  2.57193E+04 -6.25418E+03  3.22142E+04
 -2.05334E+04  1.57147E+04 -2.16641E+04 -5.08228E+03  6.64791E+03 -5.99917E+03  1.84350E+04  1.16380E+04
  7.29644E+03  3.29579E+04 -3.32670E+04  3.42571E+04 -6.07717E+04  2.86033E+03 -5.64296E+04 -4.20868E+04
 -1.11424E+04 -6.11553E+04  3.83256E+04 -4.74644E+04  5.12181E+04 -5.22686E+02  3.45850E+04  3.36099E+04
 -3.45538E+03  3.45560E+04 -2.79837E+04  1.43980E+04 -2.74063E+04 -8.35363E+03 -1.62495E+04 -8.96783E+03
 -5.68118E+03 -8.77916E+03  2.40573E+02 -1.43138E+04  5.49511E+03 -2.12413E+04  1.45827E+04 -1.37922E+04
  8.09087E+03  4.95611E+03 -7.96791E+03  1.25281E+04 -2.04392E+04 -3.66133E+03 -7.01170E+03 -3.02208E+04
  2.25772E+04 -4.28114E+04  4.24697E+04 -1.24859E+04  4.13439E+04  1.61863E+04  1.42993E+04  4.17583E+04
 -1.18210E+04  2.76911E+04 -1.85039E+04  3.53202E+03 -8.57099E+03 -2.78258E+04  2.07994E+04 -3.17736E+04
  3.65180E+04 -2.60390E+03  2.52848E+04  2.40236E+04  1.09830E+04  4.59339E+04 -8.04293E+03  4.18671E+04
 -2.45233E+04  2.57702E+04 -3.59823E+04  7.05063E+03 -3.72021E+04 -1.85269E+04 -2.12674E+04 -3.24737E+04
  3.39687E+03 -3.02414E+04  2.96553E+04 -1.48611E+04  2.54482E+04  1.40500E+04  4.14056E+03  1.54983E+04
 -1.40702E+04  8.05459E+03 -1.04909E+04 -7.50023E+03  6.10069E+03 -1.41556E+04  1.54440E+04  8.64231E+03
  1.23042E+04  1.93778E+04 -5.39067E+03  2.61234E+04 -2.36135E+04  4.41844E+03 -2.43210E+04 -6.65123E+03
 -1.88136E+04 -1.46683E+04 -4.10773E+03 -1.69571E+04  3.48792E+03 -1.09189E+04  1.19634E+04 -1.33291E+04
  1.82227E+04 -9.35218E+03  2.49272E+04  3.40564E+03  1.80123E+04  1.89984E+04  1.47772E+03  3.15939E+04
 -1.31560E+04  2.63988E+04 -2.09254E+04  1.12128E+04 -1.94315E+04 -8.67670E+03 -1.76761E+03 -7.61606E+03
  3.37933E+03 -5.90080E+03 -6.91798E+03  4.13093E+03 -1.32832E+04  5.18581E+03 -1.18314E+04 -5.20564E+02
 -7.63019E+03 -1.25239E+04  2.33237E+03 -2.03130E+04  9.31742E+03 -1.24893E+04  8.55073E+03 -3.43600E+03
  9.75637E+03  1.26598E+04 -2.62411E+03  1.93532E+04 -1.44061E+04  8.33250E+03 -1.56472E+04 -3.38536E+03
 -1.00404E+04 -1.25528E+04 -2.83112E+03 -1.62287E+04  5.51013E+03 -1.66050E+04  1.38830E+04 -7.01638E+03
  1.23696E+04 -1.29324E+03  7.97889E+03  6.36450E+02  5.73213E+03 -2.07589E+03  9.38418E+03 -3.27095E+03
  1.09170E+04  2.51735E+03  1.49336E+04  1.06054E+04  1.17288E+04  2.36735E+04 -6.15898E+03  1.98974E+04
 -1.33466E+04  2.14552E+04 -1.82369E+04  1.03783E+04 -2.23773E+04 -6.08178E+03 -1.95565E+04 -1.12969E+04
 -1.12325E+04 -2.21385E+04  5.44852E+03 -1.85396E+04  1.38523E+04 -1.08920E+04  1.17967E+04  4.64739E+03
  4.45552E+03  7.89242E+03 -7.61595E+03  9.83120E+03 -1.32350E+04  1.80888E+03 -1.21475E+04 -8.75717E+03
 -1.98385E+03 -8.22209E+03  5.88107E+03 -4.71051E+03  2.82175E+03  8.64935E+02  2.54266E+03  5.63745E+03
 -8.02295E+03  2.33583E+03  1.19675E+02 -1.69506E+03 -1.98625E+03 -9.02379E+03  7.10521E+03 -9.28129E+03
  1.08600E+04 -5.18066E+03  1.37777E+04  3.43836E+03  7.32940E+03  9.03378E+03  4.43518E+03  1.40560E+04
 -3.39152E+03  1.65586E+04 -3.77653E+03  8.53282E+03 -6.86184E+03  2.86909E+03 -4.84834E+03 -1.90688E+03
 -6.40991E+03 -3.63792E+03 -1.26194E+03 -1.27172E+03 -2.21865E+03  1.22535E+03 -3.28405E+03  4.24292E+03
 -1.02071E+04  3.38747E+03 -8.33796E+03 -9.33815E+03  9.24346E+02 -1.03035E+04  1.82190E+03 -1.16160E+04
  6.56485E+03 -8.73676E+03 -4.89844E+02  2.85877E+03  8.94183E+02  4.25232E+03 -2.10648E+03  5.33827E+03
 -2.14115E+03 -3.69059E+03 -1.16944E+03 -2.86074E+03  6.35223E+03 -7.13624E+03  8.94967E+03 -2.86135E+03
  7.74818E+03 -7.72031E+02  4.52402E+03  8.14972E+03  3.93973E+03  9.02415E+03 -3.30347E+03  5.74855E+03
 -9.96105E+03  8.65987E+02 -2.32450E+03 -2.22480E+03  4.76683E+03 -1.20971E+03  6.42834E+03 -2.99429E+03
  2.07325E+03  4.48256E+03  2.27806E+03  7.49079E+03 -1.62035E+03  6.69491E+03 -8.79237E+03 -1.24736E+03
 -3.88501E+03  3.51288E+03  1.22733E+03 -4.82151E+03  3.15504E+03  3.70488E+03 -7.82863E+02  1.64611E+03
 -2.24661E+03  5.87630E+03 -2.18248E+03  2.10582E+03 -8.01475E+03  7.27719E+03 -5.38300E+03  2.25525E+02
 -4.81743E+03  2.99248E+02 -1.31464E+03 -1.02398E+04  3.61081E+03 -1.86999E+03  7.82090E+03  4.10338E+03
  1.69784E+03  4.23238E+03 -1.49328E+03  6.27288E+03 -8.50064E+03  4.01336E+03 -8.62133E+03 -1.63679E+03
 -7.50623E+03 -7.94954E+03 -1.03609E+03 -3.10480E+03  2.12551E+03 -3.40584E+03  1.33694E+02 -2.10919E+03
  9.14262E+02  3.10905E+03  9.84534E+02  3.11175E+03  1.32239E+03 -2.97221E+03 -3.34037E+03  1.59073E+03
  2.12645E+03 -1.40093E+02  2.30438E+03  6.67199E+02  5.48767E+03  7.67961E+03  2.83110E+03  6.29289E+03
 -2.27233E+01  8.97587E+03 -3.53527E+03  5.57158E+03 -8.44056E+03  3.59891E+03 -4.98922E+03 -2.86939E+03
 -7.98323E+03 -1.02886E+04 -1.55370E+03 -5.86586E+03  3.24561E+03  1.98319E+02  3.69305E+03 -1.63679E+02
  5.98317E+03 -3.27288E+03  2.39233E+03 -2.01337E+03  4.82501E+03 -8.06149E+01  5.02135E+03 -1.69464E+03
  4.99371E+03  3.77613E+03 -4.73193E+03  6.81048E+03 -1.32299E+03 -1.03944E+03 -1.92795E+03  3.39105E+03
 -3.71347E+03 -1.79135E+03 -1.00408E+02 -6.05214E+03  4.40553E+02 -3.55086E+03 -5.24972E+02 -5.51381E+03
 -8.26839E+02 -4.38950E+03  4.02397E+03  6.72352E+02  4.76665E+03  3.98854E+03  1.93581E+03  2.00450E+03
 -2.56405E+03  7.97441E+03 -6.61904E+03 -8.48383E+02 -2.40337E+03 -4.11302E+03 -1.72901E+03 -1.53812E+03
  2.07853E+03 -2.88716E+03  1.03328E+03  1.63220E+03 -5.42926E+03 -2.71768E+03 -1.06933E+03 -1.12233E+03
 -3.27837E+03  1.41486E+03 -2.66614E+03 -6.33991E+03  4.40497E+03 -6.84719E+03  4.38456E+03 -5.17322E+02
  5.29753E+03  3.38306E+03  8.86970E+02  1.48168E+03 -3.06632E+03  4.04737E+03 -2.79630E+03 -3.00101E+03
 -2.31515E+03 -2.75207E+03 -3.17599E+03  1.23862E+03 -2.87792E+03 -5.14325E+03  9.14172E+02 -1.74128E+03
  3.40133E+03 -4.76896E+03  1.92459E+03  2.61757E+03  2.12029E+03  3.02920E+03 -3.72113E+03 -1.30887E+03
  4.97368E+02  1.15215E+03 -5.48722E+02  3.21274E+03  2.17994E+03  2.39423E+03  7.33788E+03 -4.46924E+02
 -6.96408E+03  3.06178E+03  2.27567E+03  3.83161E+03 -1.11164E+02  3.46909E+03 -5.29424E+03  1.73941E+03
 -3.63255E+03 -2.50693E+03  2.25464E+03 -5.04828E+03 -1.39549E+03  8.48226E+01  4.78034E+03 -5.22295E+03
  2.26703E+03  1.41184E+03  7.50877E+02  5.28948E+03 -3.44174E+03  8.87725E+01  3.90537E+03 -2.21129E+02
  1.49493E+03 -4.70760E+03  1.86924E+03 -2.16698E+03 -4.86449E+01 -2.29001E+02  5.77175E+02  3.40816E+03
  2.92079E+03 -2.05673E+03  1.55282E+03  7.44751E+02 -4.49343E+03  4.33655E+02  1.86321E+03  3.33460E+03
 -1.95764E+03  1.43296E+03  4.75806E+03 -1.89411E+03  1.27165E+03 -9.07743E+02 -3.53289E+03  3.02715E+03
  2.44871E+03  2.25943E+02  8.62382E+02  1.17072E+02 -3.62076E+03 -3.94867E+03 -8.52065E+02 -9.03343E+02
  2.80623E+02 -2.11891E+03  3.26148E+03 -2.37759E+03 -9.47657E+02  3.22711E+03 -1.30831E+03  1.16264E+03
 -3.86818E+03  6.19822E+02 -4.30988E+03 -4.12603E+03 -1.56660E+02 -5.17394E+03 -2.08034E+03 -3.22758E+03
  1.31093E+03 -2.88279E+01 -1.79476E+03 -4.12385E+03 -4.24259E+03  4.90340E+03 -7.73504E+02 -3.05559E+03
 -2.39651E+03  9.50667E+01  3.02562E+03  2.55794E+03 -3.77663E+02 -5.42600E+02  4.20235E+03 -7.70710E+02
  4.19951E+03  1.67705E+03  3.58002E+03  2.73987E+03  2.05387E+03  1.22285E+03 -4.50894E+02  1.86138E+03
 -2.73336E+03 -3.65865E+02 -6.87311E+02 -2.39048E+03  4.04896E+03  2.71374E+03  9.28231E+02  2.21113E+03
  3.74762E+03 -4.31217E+03  2.49010E+03  9.68094E+02  3.90752E+02  2.05356E+03  6.08158E+02  1.85569E+03
 -2.53562E+01  3.20722E+03 -3.34265E+03  3.38779E+03  1.63373E+03  2.12802E+03 -6.67651E+03 -1.95434E+01
 -7.76835E+02  1.38628E+03  1.69682E+03  2.79482E+03 -3.51599E+03  3.85855E+03 -6.18807E+02 -3.39369E+01
 -7.28331E+02 -3.66757E+03  3.55966E+03 -1.88629E+03  1.93780E+03 -2.94332E+03  9.80646E+02 -1.19254E+03
  5.04651E+03  2.78745E+03  3.77730E+03  1.38563E+03  1.31219E+03  1.61490E+03 -2.00760E+03  1.47442E+03
  3.49514E+03 -1.66717E+03  3.27109E+02 -3.94175E+01 -1.96891E+03  1.48682E+03 -2.80463E+03 -2.81823E+03
  9.05484E+02 -2.13384E+03 -1.33272E+02  2.32875E+03 -5.87986E+02 -4.32041E+03  2.94838E+03  3.08774E+02
  5.18220E+03  4.43697E+02 -4.65838E+02  2.27546E+02  3.84112E+02  3.16273E+03 -1.50123E+03  5.85245E+02
 -2.71092E+03  7.64929E+03  2.18382E+03  1.62055E+02 -1.60113E+03 -3.34586E+03 -6.69026E+02 -4.09284E+03
  2.93391E+03 -3.38706E+03 -1.10159E+02 -3.41405E+03  2.24498E+03 -2.57888E+03 -3.95884E+03  3.77653E+02
  9.11238E+02  2.87713E+03 -1.38524E+03 -4.24813E+02  3.63381E+02  2.63231E+02 -4.74941E+03 -4.93486E+01
  2.54240E+03 -1.39290E+03  1.23210E+03 -8.43124E+02 -6.87147E+02  4.87636E+03  2.75154E+03  1.08209E+03
 -2.70832E+02  1.57166E+03 -2.59338E+03  3.09394E+03 -3.00882E+03  5.20407E+01 -7.07101E+02 -8.25403E+02
 -1.83068E+03  2.68875E+03 -3.05529E+03 -4.62239E+03  1.96082E+03  1.29333E+03  2.34677E+02  6.90133E+02
  2.86623E+03 -2.46691E+02 -1.87130E+03 -2.10416E+03  4.08460E+03 -3.39914E+03  1.62079E+02  3.22895E+03
  2.65953E+03  3.01466E+03 -7.25661E+02 -1.09619E+03 -3.16612E+03 -4.42097E+02 -2.26685E+03 -1.60739E+02
  4.64839E+03  1.40215E+03 -5.96099E+02 -3.72768E+03  6.30624E+03  1.05632E+03 -4.34105E+01 -1.75495E+03
 -5.93654E+03  1.97649E+03 -3.01527E+02  3.56610E+02  8.51076E+02  6.00941E+02 -4.24105E+02 -3.83596E+02
