 $NMID ID='MM_0lb_SNR50_10hz_g60_37.RAW', FMTDAT='(8E13.5)'
 TRAMP=1., VOLUME=1. $END
  3.10823E+05 -6.09258E+02  3.39703E+05  2.49139E+05  8.15449E+04  3.38532E+05 -1.32401E+05  2.52438E+05
 -1.92283E+05  8.21889E+04 -1.11969E+05 -3.50803E+04 -5.71758E+02 -5.13152E+04  4.95674E+04 -2.14187E+03
  3.44206E+04  5.03690E+04 -1.21015E+04  7.16429E+04 -5.77760E+04  6.58477E+04 -8.29706E+04  3.86104E+04
 -8.33540E+04 -1.19775E+04 -5.63960E+04 -4.83914E+04 -1.83937E+04 -6.71684E+04  2.46597E+04 -4.40651E+04
  3.89895E+04  1.88524E+02  1.43739E+04  4.22829E+04 -3.56255E+04  4.82516E+04 -6.27127E+04 -5.97877E+01
 -5.84092E+04 -5.97586E+04 -8.69953E+03 -7.93203E+04  3.33302E+04 -5.70328E+04  5.30591E+04 -1.32975E+04
  4.49674E+04  1.12296E+04  3.58019E+04  2.44706E+04  1.57466E+04  3.40981E+04 -6.22289E+03  2.09659E+04
 -1.75124E+04  1.45940E+04 -1.44744E+04 -1.15691E+04  9.88550E+03 -3.84218E+03  1.93067E+04  1.04788E+04
  1.00623E+04  4.30609E+04 -3.04992E+04  3.94798E+04 -6.54926E+04  7.07675E+03 -5.30416E+04 -4.75976E+04
 -2.88612E+03 -6.37504E+04  4.24319E+04 -4.33371E+04  6.73127E+04  3.61271E+01  3.36239E+04  3.45365E+04
 -7.73897E+03  4.10548E+04 -3.69503E+04  2.41594E+04 -2.88296E+04  1.72065E+03 -2.27284E+04 -1.23845E+04
 -5.70873E+03 -1.63850E+04 -3.52545E+03 -2.03934E+04  8.69472E+03 -1.98552E+04  1.53987E+04 -1.33649E+04
  1.09165E+04  3.74065E+03 -8.65447E+03  1.35998E+04 -2.77501E+04 -5.30329E+03 -8.86014E+03 -3.81130E+04
  2.99691E+04 -4.33761E+04  4.89474E+04 -2.64890E+04  4.91968E+04  1.86094E+04  1.69571E+04  4.50653E+04
 -1.94862E+04  4.39805E+04 -2.59735E+04 -3.22047E+03 -1.07706E+04 -2.61796E+04  1.91738E+04 -3.49668E+04
  4.41064E+04 -9.98495E+03  4.43148E+04  2.38653E+04  2.09642E+04  5.34517E+04 -6.51944E+03  5.76616E+04
 -3.58992E+04  4.46679E+04 -5.05023E+04  1.40224E+04 -5.13407E+04 -9.42803E+03 -2.33936E+04 -4.36314E+04
  1.53543E+04 -4.09639E+04  3.63137E+04 -1.13363E+04  2.78173E+04  1.13192E+04  8.67130E+03  2.57099E+04
 -1.56678E+04  1.16002E+04 -1.42287E+04 -1.30912E+04  5.55533E+02 -7.83349E+03  2.17152E+04  3.85872E+03
  2.12924E+04  2.28685E+04 -8.73352E+03  2.48585E+04 -2.59571E+04  1.44078E+04 -3.55154E+04 -2.41896E+03
 -3.03726E+04 -1.23004E+04 -9.09359E+03 -2.68382E+04  4.88414E+03 -2.55160E+04  2.28317E+04 -2.40465E+04
  3.45441E+04 -8.38603E+03  4.01064E+04  2.34592E+03  3.25130E+04  2.53951E+04  8.64854E+03  4.27414E+04
 -2.27791E+04  3.83322E+04 -3.17636E+04  9.79041E+03 -2.32172E+04 -4.61861E+03 -5.94527E+03 -1.25871E+04
  2.28115E+03 -3.34185E+03 -1.02723E+04  3.68227E+03 -1.80345E+04  5.70901E+03 -1.98796E+04 -1.87675E+04
 -1.16474E+04 -2.55832E+04  8.84039E+03 -2.77616E+04  1.13119E+04 -2.32160E+04  2.49885E+04 -1.64671E+03
  1.45276E+04  1.71069E+04 -7.60844E+01  2.76014E+04 -1.00446E+04  1.50925E+04 -1.91968E+04 -6.75594E+03
 -1.90008E+04 -2.43101E+04 -2.35984E+03 -3.20747E+04  1.50127E+04 -2.16436E+04  2.35815E+04 -1.07045E+04
  2.39912E+04  5.22972E+03  1.87484E+04 -9.60245E+02  1.30934E+04  1.21762E+03  1.72587E+04 -8.30760E+03
  2.14273E+04  3.17122E+03  2.73635E+04  1.95740E+04  1.78540E+04  4.01825E+04  2.75442E+03  4.49751E+04
 -2.33754E+04  4.29948E+04 -4.02870E+04  1.82635E+04 -4.15393E+04 -7.23386E+03 -3.80673E+04 -2.66612E+04
 -1.78019E+04 -3.63153E+04  1.49836E+04 -3.09721E+04  2.76357E+04 -1.79453E+04  1.94993E+04  5.70629E+03
  8.35243E+03  2.41222E+04 -1.23197E+04  1.79392E+04 -2.44899E+04 -2.93492E+03 -1.49339E+04 -1.51285E+04
 -8.96995E+02 -2.00492E+04  9.18325E+03 -1.37875E+04  1.54765E+04 -8.09132E+03  6.43641E+03  7.74598E+03
 -8.42876E+03  6.98703E+02 -1.09137E+04 -7.98213E+03 -1.13680E+03 -1.81369E+04  1.44022E+04 -1.95415E+04
  2.80635E+04 -8.95147E+03  2.53409E+04  5.92566E+03  2.83478E+04  2.23415E+04  1.49588E+04  3.01370E+04
 -7.45845E+03  3.39157E+04 -1.84247E+04  1.61188E+04 -2.01487E+04  3.14783E+03 -1.91501E+04 -2.53009E+03
 -5.42297E+03 -4.47384E+03  1.95666E+03  3.39676E+03 -3.24637E+03  5.28729E+03 -9.93062E+03  8.25977E+03
 -9.07451E+03  8.29424E+02 -1.71290E+04 -1.19347E+04 -1.13122E+04 -2.02617E+04  1.07476E+04 -1.20027E+04
  9.82179E+03 -1.13601E+04  1.06289E+04  1.96606E+03 -1.54719E+03  3.72515E+03 -5.20910E+03  2.64543E+03
 -9.38684E+03 -1.15874E+04  2.51494E+03 -1.57595E+04  5.16847E+03 -1.82082E+04  1.80460E+04 -1.64159E+04
  2.72677E+04  2.06955E+03  1.84733E+04  1.41065E+04 -2.90505E+03  1.69027E+04 -7.13910E+03  1.62656E+04
 -1.22573E+04 -2.63123E+03 -2.61808E+03 -6.38482E+03 -2.45449E+03 -8.79494E+03  5.55423E+03 -4.32774E+03
  9.94030E+02  8.31741E+03 -5.60618E+03  1.48611E+04 -8.04608E+03  1.75438E+04 -1.22025E+04  1.14758E+03
 -1.15151E+04 -1.21493E+04  8.33543E+03 -1.09404E+04  3.20359E+03 -7.21242E+03  1.00372E+04  1.07845E+03
  2.26726E+03  1.16798E+04 -1.28752E+04  7.26580E+03 -9.97088E+03  5.54292E+03 -1.12729E+04  6.25706E+02
 -1.02299E+04 -1.35489E+04  7.53582E+03 -1.38081E+04  1.69672E+04 -1.14057E+04  1.85739E+04  1.41865E+03
  1.10156E+04  1.62068E+04  1.09522E+03  1.71542E+04 -9.89423E+03  1.20507E+04 -1.65337E+04 -5.44203E+03
 -1.30487E+04 -7.10990E+03 -4.34205E+03 -1.91146E+04  1.07826E+04 -7.57296E+03  1.23137E+04 -9.42558E+03
  4.60502E+03 -7.02372E+03  3.67103E+00  2.19890E+03 -5.01531E+03 -4.42697E+02 -1.13409E+03 -9.62403E+03
  7.56193E+03 -6.30890E+03  1.61372E+04 -7.96717E+01  1.69317E+04  5.27796E+03  1.71254E+04  1.78065E+04
 -2.71080E+03  2.02451E+04 -1.83810E+04  1.46231E+04 -2.09838E+04  6.39677E+03 -2.35896E+04 -7.83205E+03
 -6.83322E+03 -2.47126E+04 -3.89445E+03 -1.95586E+04  3.35852E+03 -4.28407E+03  3.88323E+03 -6.93664E+03
  4.23831E+03 -8.56417E+03  1.08981E+04  6.77698E+02  4.17726E+03 -5.42793E+03  1.23340E+04  1.35660E+03
  1.07796E+04  5.90709E+03  2.41617E+03  1.19573E+04 -1.24349E+03  8.05991E+03 -1.20022E+04  5.04790E+03
 -1.33160E+04 -5.89950E+02 -7.05519E+03 -1.29020E+04  3.98015E+02 -1.95374E+04  2.61852E+03 -1.28231E+04
  1.84228E+04 -1.18059E+04  1.68510E+04  4.33860E+03  1.49484E+04  1.44931E+04 -1.33077E+03  1.98359E+04
 -4.61285E+03  1.32457E+04 -9.97526E+03  3.54479E+03 -1.04651E+04 -7.41201E+02 -3.98201E+03 -4.16097E+03
 -3.18925E+03  2.21700E+03 -3.04074E+03  2.92015E+03 -1.14394E+04  7.04915E+02 -9.61770E+03  1.78494E+03
 -9.32460E+03 -5.99994E+03 -6.95984E+03 -1.33525E+04  9.60261E+03 -1.50175E+04  1.48909E+04 -8.52164E+03
  1.72360E+04  4.29399E+03  3.04610E+03  1.50396E+04 -5.83768E+03  1.39850E+04 -9.28734E+03  1.44013E+04
 -1.88435E+04 -2.52533E+03 -1.02457E+04 -1.03456E+04  5.99503E+03 -1.32528E+04  1.20582E+04 -4.61395E+03
  9.61075E+03 -1.21583E+03  8.75287E+03  5.67186E+02  3.11375E+03  5.30379E+02 -2.25034E+03  1.49723E+03
  4.10340E+03 -1.12630E+03  1.74775E+03  5.20464E+03  7.43007E+03 -3.63221E+03  6.97388E+03  7.00232E+03
 -2.18843E+02  8.38740E+03 -7.84437E+03  1.20558E+04 -1.12620E+04  2.88142E+03 -1.66068E+04 -3.20389E+03
 -5.13512E+03 -1.42978E+04  2.81937E+03 -9.48909E+03  6.62157E+03 -8.80849E+03  1.74213E+04 -2.44037E+02
  7.89937E+03  4.45010E+03  5.44816E+02  5.82874E+03 -4.23337E+03  3.31334E+03  3.12721E+03  1.07206E+03
 -6.19735E+03 -4.43814E+03  3.40585E+03 -4.81130E+03  4.62638E+03 -4.32534E+02  7.01382E+03  3.74234E+03
  4.33870E+03  2.57703E+03 -1.66949E+03  3.28399E+03  2.99908E+02  3.78301E+03  5.25653E+03 -2.11538E+03
  4.18388E+03 -2.89824E+02  1.37482E+04  2.25442E+03  7.58782E+03  1.13929E+04 -3.43447E+03  1.21032E+04
 -5.83648E+03  4.63780E+03 -6.75655E+03  8.86891E+02 -8.82640E+03 -4.75516E+03 -1.60906E+03 -7.82812E+03
  2.74810E+03 -4.95777E+02  5.52215E+03 -1.28313E+03 -2.65795E+01  3.14763E+03 -4.98015E+03  6.84668E+03
 -3.27429E+03 -1.45061E+02 -7.58254E+03 -4.70097E+03 -3.14859E+03 -1.86020E+03  4.12890E+03 -1.18504E+04
  6.04978E+03  2.43341E+03  7.68947E+03 -1.91519E+03  2.04325E+03  1.68459E+03 -2.90750E+03  4.47422E+03
 -2.61769E+03 -3.00136E+03 -2.63043E+03 -3.32315E+03  1.86180E+03 -4.07954E+03  5.95509E+03 -4.21191E+03
  6.88614E+03  8.26868E+01 -4.17119E+02  9.70746E+03  5.20902E+03  1.25007E+04 -4.61348E+03  8.52082E+03
 -1.19567E+04 -2.45052E+03 -6.35954E+03 -2.33671E+03 -3.30259E+03 -1.41340E+03  1.07262E+04 -9.30204E+02
  7.62062E+03 -2.45703E+03  4.85450E+03 -1.99093E+03  1.15738E+03  1.64031E+03 -4.00285E+03  3.85255E+03
 -2.09413E+03  1.75893E+03 -1.14459E+03 -4.08280E+02  3.72419E+03  2.09217E+03 -4.81186E+03  7.17789E+03
 -8.45069E+03  5.34820E+03 -9.99417E+03 -2.36214E+03 -8.51275E+03 -4.29876E+03 -1.17998E+04 -5.07994E+03
 -1.37999E+03 -1.18555E+04  6.89470E+02 -1.02736E+04  8.35177E+03 -1.22424E+04  1.02687E+04 -5.52767E+03
  1.40012E+04 -7.39075E+02  1.25925E+04  8.40127E+03 -5.30887E+02  4.00817E+03 -1.48275E+03  6.87003E+03
 -8.67684E+03 -3.64218E+03 -3.13528E+03  1.80024E+03 -2.45780E+03 -6.71529E+03 -6.95899E+03  3.33039E+03
  6.46755E+02  1.89998E+03  3.62876E+03 -4.50507E+03 -1.93844E+03  4.00685E+02  1.91715E+03  4.08415E+03
  6.91758E+03 -4.73348E+03  6.99316E+03 -7.73253E+03  7.30655E+03  9.77275E+03  3.92655E+03  9.08295E+03
 -8.37920E+03  1.40710E+04 -8.34814E+03  7.25402E+03 -1.09704E+04 -2.25351E+02 -8.21157E+03 -1.16401E+04
 -8.11679E+03 -1.61877E+04  5.41864E+02 -6.97857E+03  9.05383E+03 -9.21186E+03  6.13279E+03  4.00452E+02
  6.60182E+03  6.23454E+03  5.04951E+02  3.20393E+03 -2.85450E+03  4.02981E+03  3.38699E+03 -1.18839E+04
  6.58949E+03 -2.40756E+03  4.93467E+03 -2.49201E+02  4.57899E+03 -4.27605E+02  5.17211E+03  9.22341E+03
 -7.95231E+03  1.02519E+04 -5.71327E+03 -1.12255E+03 -6.56301E+03 -8.91603E+02  1.04466E+03 -8.40322E+03
  1.24328E+04 -8.78377E+03  2.35442E+03 -1.78102E+03  1.19022E+04  4.93997E+03  4.59342E+03  8.83394E+03
 -1.13615E+03  4.65287E+03 -1.94153E+03  8.11153E+03  1.47874E+03  5.88635E+03 -3.80162E+03 -5.73612E+03
 -2.74361E+03 -2.83274E+03 -4.77857E+03  1.04680E+03 -5.72274E+03  1.21225E+02 -9.97825E+03 -3.30535E+03
 -4.94870E+03 -1.54155E+03  2.93318E+03 -1.15108E+04  1.07036E+03 -8.50308E+03  7.99122E+03 -3.35921E+03
  6.94616E+03  9.11040E+02  1.26555E+04  4.73665E+03 -6.42159E+01  9.41548E+03 -7.01411E+03 -1.20936E+03
