 $NMID ID='MM_0lb_SNR50_7hz_g50_5.RAW', FMTDAT='(8E13.5)'
 TRAMP=1., VOLUME=1. $END
  3.09897E+05  2.31122E+03  3.41412E+05  2.49290E+05  8.10945E+04  3.39411E+05 -1.30131E+05  2.49326E+05
 -1.91035E+05  8.45689E+04 -1.15260E+05 -3.16699E+04  3.28315E+03 -4.77837E+04  5.06206E+04 -7.35979E+02
  2.90385E+04  5.47590E+04 -1.48996E+04  7.07070E+04 -6.85472E+04  6.52322E+04 -8.71150E+04  3.52894E+04
 -7.59905E+04 -1.28392E+04 -5.43008E+04 -5.47556E+04 -1.57143E+04 -7.18416E+04  3.16914E+04 -4.98155E+04
  4.59238E+04  3.27601E+03  1.56657E+04  5.53035E+04 -3.79884E+04  5.40333E+04 -6.75086E+04 -1.16500E+03
 -5.46597E+04 -5.40279E+04 -1.11803E+04 -8.73850E+04  3.59029E+04 -6.28515E+04  4.74764E+04 -2.59749E+04
  4.53610E+04  8.98803E+03  3.17081E+04  2.51722E+04  1.60514E+04  3.19581E+04 -6.66249E+03  2.28261E+04
 -2.55363E+04  2.53851E+04 -1.95598E+04 -2.13429E+02  6.41053E+03 -9.65277E+03  2.53038E+04  2.15174E+04
  1.31568E+02  3.40192E+04 -3.32082E+04  4.49189E+04 -7.12943E+04  5.47522E+03 -5.80712E+04 -4.48659E+04
 -6.30634E+03 -6.42683E+04  3.68025E+04 -5.32731E+04  6.08267E+04 -2.10661E+03  4.11961E+04  3.76173E+04
 -6.61871E+03  3.28191E+04 -2.78813E+04  2.35303E+04 -3.74584E+04 -6.66210E+03 -1.35124E+04 -9.14366E+03
 -1.13538E+04 -1.93818E+04  7.94937E+03 -2.45551E+04  1.25149E+04 -2.59226E+04  1.84906E+04 -9.88975E+03
  1.55083E+04  1.23966E+04 -1.48786E+04  1.10373E+04 -2.51991E+04 -8.61775E+03 -6.51132E+03 -4.65177E+04
  2.99164E+04 -4.70660E+04  6.24423E+04 -1.93187E+04  5.07633E+04  1.65187E+04  1.38513E+04  5.20206E+04
 -1.81126E+04  3.67575E+04 -2.82738E+04 -5.04593E+03 -1.53326E+04 -3.49668E+04  1.65006E+04 -4.35384E+04
  4.52159E+04 -1.19138E+04  4.43291E+04  2.54349E+04  2.39225E+04  4.89449E+04 -6.15804E+03  6.25602E+04
 -2.87882E+04  4.08288E+04 -5.15000E+04  1.32589E+04 -4.66062E+04 -1.98797E+04 -2.76125E+04 -4.03134E+04
  6.62718E+02 -4.22595E+04  2.77374E+04 -1.41020E+04  3.34205E+04  1.30057E+04  9.63148E+03  2.56858E+04
 -1.19777E+04  1.56625E+04 -1.04431E+04 -9.55623E+03  5.26306E+03 -8.24348E+03  1.96752E+04  6.18122E+03
  1.19442E+04  2.56641E+04 -3.17040E+03  3.13233E+04 -1.86086E+04  4.00176E+03 -3.30692E+04 -5.43957E+03
 -2.75462E+04 -1.82617E+04 -1.40147E+04 -3.22617E+04  4.03967E+03 -2.83354E+04  2.48282E+04 -2.18962E+04
  3.24503E+04 -1.33494E+04  3.81982E+04  3.65415E+03  2.48785E+04  2.58544E+04 -3.57542E+03  4.00157E+04
 -1.60195E+04  3.17101E+04 -3.26988E+04  1.76175E+04 -1.64367E+04 -9.00329E+03 -6.51326E+03 -1.49631E+04
  1.32033E+03  4.72137E+03 -3.39164E+03  8.76553E+03 -2.01606E+04 -1.13787E+03 -2.07661E+04 -9.75265E+03
 -1.12467E+04 -2.50684E+04  4.01855E+03 -3.26059E+04  2.13125E+04 -2.43791E+04  2.45761E+04  1.37969E+03
  1.87663E+04  2.37269E+04  1.47266E+03  1.92153E+04 -2.17114E+04  5.85360E+03 -3.25468E+04 -2.42884E+03
 -2.47268E+04 -1.70290E+04 -3.10981E+03 -2.41527E+04  1.63709E+04 -2.59646E+04  2.39361E+04 -1.36470E+04
  2.24010E+04 -3.63051E+03  1.57594E+04  7.15493E+02  6.64537E+03  6.96054E+03  1.79206E+04 -4.11936E+03
  2.51620E+04 -3.32378E+03  3.24723E+04  1.86491E+04  1.82633E+04  4.31377E+04 -1.16202E+03  5.33685E+04
 -2.61849E+04  4.15223E+04 -4.82330E+04  2.18318E+04 -5.42203E+04  2.34790E+01 -4.36187E+04 -2.87109E+04
 -1.50755E+04 -4.31834E+04  1.48163E+04 -4.14162E+04  2.63025E+04 -1.92013E+04  2.38469E+04  1.53452E+04
  1.35748E+04  2.56611E+04 -1.07878E+04  1.43244E+04 -2.20004E+04 -5.05806E+02 -1.47402E+04 -9.02131E+03
  4.79663E+03 -2.28885E+04  1.87933E+04 -2.33883E+04  7.74770E+03  1.11888E+03  4.08744E+03  1.68700E+04
 -8.98410E+03  6.53177E+03 -1.21201E+04 -1.48147E+04 -8.94967E+03 -2.71677E+04  1.16705E+04 -1.47864E+04
  2.19418E+04 -1.24010E+04  3.50822E+04  8.79426E+03  1.94037E+04  2.27386E+04  1.58206E+04  3.31194E+04
 -6.47700E+03  4.62060E+04 -2.69089E+04  2.06637E+04 -2.59518E+04  4.92788E+03 -1.67621E+04 -4.53828E+03
 -9.35091E+03 -3.43176E+03 -5.30241E+03 -4.73750E+03 -7.40594E+03  1.96104E+03 -1.23111E+04  1.84743E+03
 -1.92800E+04 -1.23314E+03 -1.37815E+04 -1.45515E+04 -8.14614E+03 -3.28290E+04  8.14040E+03 -2.44436E+04
  1.53241E+04 -8.29251E+03  1.36031E+04  3.91030E+02  7.04273E+03  6.18289E+03 -1.08171E+04 -6.44594E+03
 -8.25850E+03 -1.34031E+04  5.39676E+02 -1.75679E+04  1.03359E+04 -1.28229E+04  1.65412E+04 -9.26505E+03
  2.19238E+04  4.26487E+03  1.89835E+04  1.26349E+04  6.34667E+03  1.31884E+04 -1.33331E+04  1.21854E+04
 -8.93249E+03  2.92708E+03 -7.47416E+03 -1.41441E+03  3.34835E+03 -4.08817E+02  1.13579E+04 -5.93313E+03
  6.06125E+03  1.01415E+04  4.82561E+03  1.40053E+04 -8.87831E+03  1.19659E+04 -2.10760E+04  9.75594E+03
 -1.15817E+04 -3.45114E+03 -4.08173E+03 -1.60870E+04  9.88083E+03 -2.79101E+03  6.82991E+03  6.68346E+03
  7.28588E+03  9.74335E+03 -2.04498E+04  1.94045E+04 -8.09154E+03  9.40189E+03 -1.36264E+04 -1.38432E+03
 -1.23794E+04 -1.26285E+04  9.52100E+03 -2.33838E+04  1.59116E+04 -1.10843E+04  2.15499E+04  4.41968E+03
  1.73691E+04  8.64629E+03 -4.21879E+02  2.00724E+04 -9.63503E+03  3.56457E+03 -2.05427E+04 -9.67358E+03
 -1.37044E+04 -1.29226E+04 -1.42734E+02 -1.48220E+04  9.36690E+03 -1.48060E+04  1.61178E+04  3.22013E+03
  3.16945E+03 -4.32805E+03  2.55642E+03  4.27740E+03 -2.46477E+03 -9.79283E+03 -6.83155E+02 -7.75812E+03
  1.24055E+04 -6.62626E+03  1.95038E+04 -2.50845E+03  2.00879E+04  1.02642E+04  1.46851E+04  3.34927E+04
 -2.53171E+03  2.51237E+04 -1.95285E+04  1.88016E+04 -3.42561E+04  4.48593E+03 -2.76167E+04 -1.55822E+04
 -1.68370E+04 -1.74311E+04 -2.67963E+03 -1.53973E+04  9.24952E+03 -1.37065E+04  2.32978E+03 -5.63965E+03
  9.48855E+03 -8.41021E+03  4.69658E+03 -9.13086E+03  9.02057E+03  3.42356E+03  7.03741E+03 -6.08419E+01
  1.17682E+04  5.82728E+03  7.48127E+03  1.75926E+04 -7.25803E+03  1.07334E+04 -6.41359E+03  1.06541E+04
 -1.27891E+04 -7.34675E+03 -8.85966E+03 -1.81931E+04 -2.10866E+03 -2.15858E+04  6.52564E+03 -2.24600E+04
  2.08607E+04 -8.72605E+03  1.79813E+04  8.85097E+03  2.12433E+04  1.48863E+04 -1.74489E+03  1.98696E+04
 -1.04125E+04  1.77283E+04 -1.56293E+04  1.22394E+04 -8.70419E+03  3.25089E+03  2.14711E+03  5.50709E+02
 -5.18109E+03 -1.07513E+03 -7.98294E+03  3.63556E+03 -8.64671E+03  1.67241E+03 -7.40144E+03  4.81792E+03
 -8.42808E+03 -1.14163E+04  4.54968E+03 -2.12024E+04  1.45788E+04 -2.25912E+04  1.83787E+04 -1.81575E+03
  1.82832E+04  8.37948E+03  6.09146E+03  1.44674E+04  3.97833E+03  1.50844E+04 -1.44529E+04  1.05699E+04
 -1.36203E+04  1.23475E+03 -1.35509E+04 -1.14351E+04  3.61546E+03 -1.32317E+04  4.86524E+03 -8.42738E+03
  7.45915E+03  1.18717E+03  8.64958E+03  7.27089E+03 -5.93320E+03  6.64869E+03 -6.08648E+02  5.98010E+02
  1.50760E+03  5.41466E+02 -9.84593E+02 -8.55817E+02  3.71906E+03  7.88010E+03 -6.03059E+03  8.29682E+03
 -8.85366E+03  1.60982E+04 -1.84487E+04  1.90790E+04 -1.94568E+04  9.82638E+03 -2.33402E+04 -1.02327E+04
 -5.73074E+03 -6.15326E+03  3.14512E+02 -1.55346E+04  3.79329E+03 -1.21297E+04  1.86211E+04 -9.33183E+03
  3.87258E+03  4.96076E+03  4.37483E+03  1.62805E+04 -5.50055E+03  7.81388E+03 -7.56610E+03 -6.59521E+02
 -7.91603E+03 -8.27432E+03  4.39437E+03 -5.68994E+03  4.26313E+03 -8.89868E+02  8.04558E+03  4.76812E+03
  2.74886E+03 -1.94641E+03  6.02547E+03 -1.91874E+01 -3.68137E+03  2.12807E+03 -3.00378E+03 -4.46264E+03
  5.76731E+03  2.78727E+03  6.84887E+03 -3.49772E+03  7.36866E+03  6.56435E+03 -4.69969E+03  1.70076E+04
 -7.23703E+03  8.24453E+03 -1.40960E+04  2.04463E+03 -1.02146E+04  6.58036E+02 -3.31014E+03 -1.50734E+04
  6.16745E+03 -1.18066E+04  1.45526E+03 -1.68104E+03  2.03556E+03  8.58830E+03 -1.00796E+03  5.37815E+03
 -1.02122E+04  3.68842E+03 -4.00683E+03 -6.08669E+03 -5.66182E+03 -1.22848E+04  1.60003E+03 -1.28935E+04
  1.34024E+04 -1.26559E+04  4.82453E+03 -7.88914E+03  1.05845E+04  1.09420E+03  1.58559E+03  1.22125E+04
 -6.52673E+02  5.66238E+03 -7.81567E+03 -5.07696E+02  4.47904E+03 -1.04764E+04  1.13444E+04 -3.73445E+03
  1.87577E+04 -7.60551E+02  1.47027E+04 -2.35383E+03  7.30681E+03  6.12634E+03 -1.94156E+03  1.54340E+04
 -1.46295E+04  2.38840E+03 -8.39865E+03 -3.98529E+02 -2.96750E+03 -6.71199E+03  6.72769E+03 -8.30695E+03
  9.41131E+03 -3.70184E+03  8.57055E+03 -1.84870E+03 -9.13830E+02  1.16871E+04  1.40003E+03  8.57662E+03
  1.59018E+03  1.63745E+03 -4.44819E+03 -2.05003E+03 -4.10354E+03 -4.71076E+03 -5.25590E+03 -2.56918E+03
 -2.39199E+03  1.73209E+03 -5.82711E+03  1.16184E+04 -1.58448E+04  1.89915E+03 -1.25947E+04 -1.56034E+04
 -1.25393E+04 -1.60200E+04  8.66096E+03 -2.00594E+04  1.09538E+04 -8.76573E+03  1.62821E+04 -4.16294E+03
  1.96907E+04  4.11320E+03  1.45595E+04  8.85219E+03  8.39726E+03  9.85111E+03 -8.40893E+02  1.28027E+04
 -8.83789E+03  5.55504E+03 -2.08319E+03  9.19508E+02 -7.42601E+03  6.94650E+02 -2.31265E+03 -3.67917E+03
 -8.27899E+02  5.46509E+02 -6.67882E+03 -4.85994E+03 -3.26487E+03 -6.66049E+03  6.13681E+02 -4.79971E+03
  9.18054E+03  1.24785E+03  1.02708E+04  6.57619E+03  8.08451E+03  1.31085E+04  1.06010E+04  9.97720E+03
 -4.06960E+03  1.32346E+04 -1.21311E+04  8.54409E+03 -1.93243E+04 -3.91146E+02 -9.58749E+03 -4.90812E+03
  7.12145E+02 -1.27881E+04  1.68229E+03 -1.14407E+04  1.14502E+04 -6.87896E+03  1.37661E+04 -8.54101E+03
  1.27045E+04  1.09069E+04  6.46257E+03 -2.75283E+03 -6.39043E+03 -4.98859E+03  8.37286E+03 -9.34096E+03
  3.86751E+03 -5.71830E+03  5.93733E+03  7.36751E+03  2.54113E+03  7.58124E+03 -4.00175E+03  1.62444E+04
 -7.67649E+03  5.98645E+03 -1.08096E+04 -3.24943E+03 -2.27621E+03 -5.12060E+03 -9.16866E+03 -1.23613E+04
  1.40763E+04 -6.51442E+03  1.66208E+04 -4.09099E+03  1.03971E+04  1.12482E+04  1.20915E+03  7.78615E+03
  5.93113E+03  8.26230E+03 -8.61950E+02  6.78275E+03 -1.01417E+04  8.68629E+03 -9.00249E+03 -3.89134E+03
 -5.65215E+03  2.21243E+03  2.44290E+02  7.07190E+03 -6.28072E+03  4.07286E+03 -9.33862E+03 -3.58687E+02
 -7.45408E+03  9.69936E+02  1.46713E+03 -9.12781E+03 -4.88763E+02 -3.85170E+03  1.69404E+04  1.25259E+03
  1.08858E+04  9.89354E+03  8.06806E+03  6.43655E+03  1.94007E+03  1.09671E+04  9.98115E+02  8.71322E+03
