 $NMID ID='MM_0lb_SNR50_14hz_g50_24.RAW', FMTDAT='(8E13.5)'
 TRAMP=1., VOLUME=1. $END
  3.07623E+05 -6.20965E+02  3.39929E+05  2.50344E+05  8.81393E+04  3.36010E+05 -1.32452E+05  2.44711E+05
 -1.84171E+05  7.88671E+04 -1.14220E+05 -3.53589E+04  1.70722E+02 -4.86671E+04  5.36710E+04 -1.93779E+03
  3.45175E+04  5.33846E+04 -1.53416E+04  7.33291E+04 -5.99111E+04  6.75544E+04 -8.38844E+04  3.11943E+04
 -7.69871E+04 -9.04649E+03 -5.66225E+04 -5.20192E+04 -1.17774E+04 -6.90491E+04  2.39919E+04 -4.52082E+04
  4.16415E+04  1.44750E+03  1.95604E+04  4.28032E+04 -3.76443E+04  4.52766E+04 -6.78188E+04 -8.00889E+02
 -5.07398E+04 -5.48440E+04 -7.02586E+03 -7.89328E+04  3.27439E+04 -5.53989E+04  5.10279E+04 -1.63486E+04
  4.23722E+04  1.03341E+04  4.04497E+04  2.26409E+04  1.56796E+04  3.12411E+04 -5.04373E+03  2.25446E+04
 -1.89652E+04  1.16613E+04 -1.73337E+04 -5.12538E+03  5.39272E+03 -1.19194E+04  1.95271E+04  6.95868E+03
  5.59030E+03  3.39042E+04 -2.66054E+04  3.42441E+04 -6.03251E+04  2.06883E+03 -5.91157E+04 -4.52094E+04
 -1.20599E+04 -6.52258E+04  4.30812E+04 -4.21028E+04  5.86103E+04  1.18289E+02  2.90199E+04  3.21779E+04
 -1.76921E+02  3.29767E+04 -3.24445E+04  1.93352E+04 -2.70986E+04 -4.86956E+03 -1.70400E+04 -1.14664E+04
 -6.57060E+03 -1.58807E+04 -2.65650E+02 -1.83689E+04  9.15688E+03 -2.46151E+04  1.40293E+04 -8.75709E+03
  1.02071E+04  5.68987E+03 -1.22186E+04  9.49544E+03 -2.04118E+04 -4.80744E+03 -1.01741E+04 -3.44274E+04
  2.75723E+04 -4.65959E+04  4.70894E+04 -2.07554E+04  4.70332E+04  1.53194E+04  1.04635E+04  4.13379E+04
 -1.30479E+04  3.11128E+04 -2.60334E+04  1.97145E+03 -1.23617E+04 -3.42522E+04  2.04294E+04 -2.61142E+04
  4.27840E+04 -1.39257E+04  3.66738E+04  2.35397E+04  1.74751E+04  5.08298E+04 -8.35880E+03  5.17662E+04
 -3.53270E+04  3.41632E+04 -4.15616E+04  5.09935E+03 -4.73706E+04 -2.10223E+04 -2.11996E+04 -3.77577E+04
  4.59241E+03 -3.62480E+04  3.05092E+04 -1.16608E+04  2.84108E+04  9.97583E+03  4.15580E+03  2.24902E+04
 -1.49567E+04  5.51354E+03 -9.35084E+03 -7.59513E+03  1.03488E+04 -7.23744E+03  2.07162E+04  8.91808E+03
  1.56896E+04  2.09538E+04  4.92707E+02  2.79817E+04 -2.44875E+04  1.13165E+04 -2.64783E+04 -3.69000E+03
 -2.32790E+04 -1.97848E+04 -6.84240E+03 -2.50999E+04  2.95233E+03 -2.12257E+04  1.69532E+04 -1.44385E+04
  2.94970E+04 -1.22870E+04  3.22751E+04 -2.89349E+03  2.46985E+04  1.70580E+04  1.25833E+03  3.37193E+04
 -1.88961E+04  3.22955E+04 -3.40497E+04  1.08191E+04 -2.02087E+04 -7.69068E+03 -2.90248E+03 -1.56047E+04
 -2.47398E+03 -6.16719E+02 -8.53183E+03  9.24564E+03 -1.14295E+04  8.31927E+03 -1.61026E+04 -2.41129E+03
 -7.66024E+03 -1.91647E+04  7.04970E+03 -2.20089E+04  1.42061E+04 -1.76609E+04  1.72834E+04 -4.01400E+03
  1.17605E+04  1.05677E+04  7.85978E+02  2.12003E+04 -1.05021E+04  8.92570E+03 -1.62225E+04 -4.41018E+03
 -1.54241E+04 -1.67370E+04  8.11365E+02 -2.46010E+04  9.39840E+03 -1.70568E+04  1.60233E+04 -1.71223E+03
  1.37790E+04  1.04386E+03  9.80274E+03  4.49722E+03  2.59178E+03  4.39621E+03  7.50166E+03 -1.04646E+03
  1.76910E+04  6.71588E+03  1.78172E+04  1.18554E+04  1.21908E+04  2.88411E+04 -8.75232E+03  3.19143E+04
 -1.56792E+04  3.05703E+04 -3.54221E+04  1.43959E+04 -3.79534E+04 -3.89216E+03 -2.88793E+04 -2.02633E+04
 -9.00233E+03 -2.55093E+04  1.02127E+04 -2.19691E+04  2.33164E+04 -1.02532E+04  2.47611E+04  4.43970E+03
  3.65174E+03  1.31476E+04 -1.34733E+04  1.21148E+04 -1.43704E+04 -1.78862E+03 -1.44933E+04 -9.31340E+03
 -2.44001E+03 -1.25350E+04  1.03421E+04 -1.53267E+04  1.28012E+04 -2.74069E+03  4.43402E+03  6.70096E+03
 -9.67118E+03  3.40113E+03 -8.53230E+03 -5.57730E+03 -8.25353E+02 -1.75160E+04  9.94865E+03 -1.10300E+04
  1.88096E+04 -1.25470E+04  1.95580E+04 -2.94712E+03  1.43929E+04  1.16763E+04  8.11818E+03  1.96828E+04
 -3.30183E+03  2.14086E+04 -1.99867E+04  1.19717E+04 -1.03244E+04 -2.05009E+03 -1.08850E+04 -3.75811E+03
 -4.16748E+03 -1.17813E+03 -2.08116E+02 -6.83743E+02 -4.05111E+03 -3.82615E+03 -5.74425E+03  2.91411E+03
 -1.24240E+04 -3.79312E+03 -1.14488E+04 -1.10629E+04 -9.45017E+03 -1.18923E+04  5.74604E+03 -1.19063E+04
  9.64709E+03 -2.83152E+03  8.20071E+03  4.76865E+03  3.50222E+03  6.29479E+02 -5.50937E+03 -1.77227E+02
 -7.50182E+03 -8.56229E+03 -1.15941E+03 -1.42191E+04  5.33032E+03 -1.38743E+04  1.44960E+04 -4.01915E+03
  2.22931E+04 -3.18634E+03  1.09259E+04  8.89071E+03  2.48074E+03  9.82125E+03 -8.01509E+03  1.06062E+04
 -5.44339E+03  1.68353E+03 -4.30362E+03 -7.67309E+02  4.95311E+03 -7.39046E+03  1.52134E+03 -7.61411E+02
  7.19905E+03  6.03920E+03  7.18898E+01  3.33969E+03 -1.03502E+04  9.39806E+03 -1.27103E+04  3.67134E+03
 -6.58438E+03 -6.18822E+03 -8.25530E+02 -9.41116E+03  3.94389E+03 -8.11053E+03  6.67844E+03  3.98053E+03
  1.60995E+03  7.02553E+03 -5.25316E+03  9.45290E+03 -5.97666E+03 -1.56480E+03 -7.24772E+03 -3.72194E+03
 -6.18012E+03 -1.09504E+04  2.87759E+03 -9.63018E+03  1.27318E+04 -1.26449E+04  1.33732E+04 -1.35085E+03
  1.01059E+04  3.65277E+03  2.96574E+02  6.41485E+03 -4.10123E+03  6.12047E+03 -1.19844E+04 -2.18155E+02
 -6.01329E+03 -5.58026E+03 -2.23033E+03 -5.93399E+03  6.72518E+03 -9.90847E+03  2.46961E+03 -2.99711E+03
  4.19311E+03 -2.61217E+03  4.96864E+03 -2.57540E+03 -1.29762E+03  5.21241E+02 -1.56460E+03 -4.63089E+03
  1.01834E+04 -4.76094E+03  1.09133E+04 -7.06025E+02  8.08464E+03  7.72107E+03  1.07755E+04  1.48907E+04
 -4.36562E+02  1.31163E+04 -1.16934E+04  1.02254E+04 -1.31832E+04 -1.62821E+03 -1.34439E+04 -2.67807E+03
 -6.09066E+03 -1.44042E+04 -2.49120E+03 -7.25622E+03  3.91235E+03 -5.05037E+03  2.82947E+03 -4.93600E+03
  6.42279E+03 -8.32917E+03  4.47960E+03 -1.20073E+03  2.24825E+03  8.09714E+02  1.73398E+03  2.70322E+03
  4.35123E+03  1.90384E+03  3.09466E+03  6.37363E+03 -3.49205E+02  3.78921E+03 -9.05464E+03  4.34940E+03
 -9.52421E+03  1.69402E+03 -6.04246E+03 -8.55414E+03 -6.23497E+02 -1.56220E+04  7.08618E+03 -1.22789E+04
  1.12712E+04 -9.82543E+03  1.08221E+04  2.70577E+03  7.65722E+03  4.43786E+03  3.69465E+03  7.57371E+03
  2.76758E+02  1.24574E+04 -7.86926E+03  7.28652E+03 -7.64276E+03 -3.04725E+03  8.24879E+02 -4.18778E+03
 -1.68251E+01 -2.30157E+02 -5.75625E+03  2.96725E+03 -6.30905E+03  3.93627E+03 -6.67040E+03  7.29544E+02
 -5.51302E+03 -4.50396E+03  7.03713E+03 -9.67745E+03  2.34247E+03 -7.32318E+03  8.54812E+03 -4.22571E+03
  6.82821E+03  4.85345E+03  2.36319E+03  3.63058E+03 -7.24462E+02  8.00137E+03 -8.51950E+03  3.32008E+03
 -9.21153E+03 -6.26786E+02 -5.54892E+03 -7.25247E+03 -4.24328E+03 -5.73663E+03 -8.63563E+02 -1.18676E+04
  5.63116E+03 -2.06091E+03  2.95431E+03 -2.30567E+02  3.08134E+02  5.07284E+02  2.45314E+03 -3.49546E+03
  2.20195E+03  3.84991E+03  2.14886E+03  5.73278E+03  4.25749E+03 -1.95919E+01  4.75128E+03  5.30423E+03
 -6.25777E+03  7.30224E+03 -4.85843E+03  5.32471E+03 -7.28301E+03  8.29779E+02 -3.73065E+03 -5.04637E+01
 -8.70851E+03 -6.30557E+03 -1.32881E+03 -1.13249E+04  3.24521E+03 -3.37505E+03  8.57792E+03  3.44407E+03
  2.16440E+03  6.08380E+01 -2.67603E+03  2.67761E+03 -1.88031E+03 -6.66598E+02 -6.12466E+03 -2.40440E+03
 -2.38398E+03 -2.66231E+03  1.09378E+03 -2.06544E+03  5.12429E+03  3.12211E+03  9.01347E+02 -7.21143E+02
 -7.22132E+02 -1.93109E+03 -4.86119E+02  3.28368E+03 -6.93321E+03  5.46984E+02 -4.97057E+01 -2.92095E+03
  1.31403E+03 -8.46181E+02  3.98322E+03  2.14468E+03  3.47783E+03  2.49640E+03  3.28788E+02  3.94557E+03
 -6.34319E+03  6.65767E+01 -5.15674E+03  2.13256E+03 -5.95709E+03 -2.33343E+03 -2.09725E+02 -3.54873E+03
 -4.73773E+02 -1.40174E+03  1.87118E+03 -2.85906E+03 -1.06268E+03 -5.72488E+02  3.11578E+02  4.18844E+03
 -5.76265E+03  1.19906E+03 -3.74833E+03 -4.82586E+03  2.44774E+03 -1.97061E+03  1.31952E+03 -3.66290E+03
  3.45466E+03 -2.61712E+03  4.33085E+03  4.83827E+02  3.56948E+03  3.03505E+03  7.10959E+02  4.74789E+03
  4.13531E+02  3.54233E+03 -2.47523E+03 -4.51926E+03  1.53501E+03 -1.58407E+03  4.26001E+03 -1.25613E+03
 -5.19247E+02  6.12533E+01  5.95643E+03  3.88039E+03  3.69858E+03  6.96885E+03 -3.04349E+03  3.57331E+03
 -1.92027E+03  6.40583E+02 -2.54497E+03  4.02750E+03  6.79333E+03 -3.30060E+03  2.44919E+03 -5.38260E+03
  1.17970E+03 -2.00078E+02  6.97868E+02  3.04477E+03 -9.12669E+01  1.86364E+03 -1.00694E+03  6.11492E+03
 -6.61650E+03 -4.03272E+03  1.21157E+03 -8.94255E+02  2.42881E+03  5.03333E+02  8.65254E+02 -6.76428E+02
  8.99908E+02  7.35462E+03 -2.82233E+03  2.28573E+03  7.40707E+02 -1.89746E+03 -5.88453E+03 -1.96268E+03
 -6.47597E+02 -9.81561E+03  3.24197E+03 -9.65649E+03  3.92695E+03 -4.52234E+03  3.76275E+03 -1.65351E+03
  6.60847E+03  2.05777E+03  6.71184E+03  6.98838E+03  1.00584E+03  4.92120E+03 -4.54628E+03  2.81140E+03
 -7.33039E+02  5.22188E+03 -2.85295E+03 -9.87300E+02 -4.68189E+03 -2.05422E+03 -1.09404E+03  2.61594E+03
 -2.29471E+03 -1.46902E+03  2.32372E+03 -2.37670E+03  4.51094E+03  1.31276E+03 -9.12428E+03  5.51184E+02
  3.47100E+03 -1.44383E+03  6.42248E+03 -1.05722E+03  2.88340E+03 -1.61992E+03  2.84890E+03  1.83102E+03
  2.72750E+02  6.20771E+03  1.85128E+02  1.19453E+03 -8.18926E+03  6.40937E+03 -5.06094E+03 -3.62403E+03
 -2.15890E+03 -1.61139E+03  2.75330E+03 -4.20857E+03  6.52887E+03 -2.68262E+03 -2.63896E+03  1.60516E+03
 -5.39754E+03  2.06118E+03 -7.54894E+02 -1.09877E+03  1.34900E+03 -4.40046E+02  3.62942E+03  2.27968E+02
  1.20718E+03 -2.48846E+03 -1.29647E+03 -3.61592E+03  4.38346E+03  3.73818E+03 -2.11133E+02  1.69126E+03
 -2.15847E+03 -3.52051E+03 -4.41921E+03  5.16465E+02 -4.08298E+03 -3.58468E+03 -2.00145E+03 -3.70064E+03
  3.44649E+03 -3.23067E+03 -6.11492E+02 -2.26159E+03  5.31368E+03 -9.20086E+02  4.27641E+03 -2.75266E+03
  3.72617E+03  5.97475E+03 -2.77481E+03  6.01340E+03  4.66756E+02  7.04998E+02 -3.72925E+03 -8.66219E+02
 -2.31639E+03 -2.59706E+03  4.99653E+03  3.32037E+03 -4.50929E+03 -1.21988E+03 -1.67469E+03 -1.13988E+03
 -3.44715E+03  2.88436E+03 -2.08398E+03 -7.30943E+03 -2.57633E+03  4.13926E+02  3.87357E+03 -3.20169E+02
  4.85086E+03 -1.16241E+03  1.04101E+03 -1.57933E+02  4.84274E+02  1.16864E+03 -2.50979E+03  2.16249E+03
