 $NMID ID='MM_0lb_SNR50_16hz_g55_12.RAW', FMTDAT='(8E13.5)'
 TRAMP=1., VOLUME=1. $END
  3.10541E+05 -2.56099E+03  3.37038E+05  2.49749E+05  8.65927E+04  3.41466E+05 -1.32312E+05  2.51677E+05
 -1.87341E+05  8.69932E+04 -1.06646E+05 -3.97707E+04 -5.78928E+03 -4.88998E+04  5.55629E+04  1.96813E+03
  3.36623E+04  5.20853E+04 -1.24819E+04  7.15146E+04 -6.19795E+04  6.39021E+04 -8.32388E+04  3.15464E+04
 -8.30856E+04 -1.09859E+04 -5.90723E+04 -5.32061E+04 -1.45279E+04 -6.75287E+04  2.66732E+04 -4.80677E+04
  4.03610E+04  2.28416E+02  1.45435E+04  4.75034E+04 -3.23708E+04  4.96345E+04 -6.14339E+04  2.01339E+02
 -5.52452E+04 -5.66591E+04 -9.75550E+03 -7.43419E+04  3.43304E+04 -5.46714E+04  5.17944E+04 -1.47869E+04
  4.07733E+04  1.18604E+04  2.89666E+04  2.47315E+04  1.47650E+04  2.63624E+04 -1.03172E+04  2.60518E+04
 -1.89715E+04  1.07686E+04 -1.96439E+04 -1.74055E+03  5.48579E+03 -7.94342E+03  1.96064E+04  1.15918E+04
  1.06632E+04  3.01931E+04 -2.93206E+04  3.58799E+04 -6.25806E+04  7.08380E+03 -5.49089E+04 -4.20139E+04
 -1.18738E+04 -6.68790E+04  4.13574E+04 -4.28840E+04  5.11864E+04 -1.44235E+03  3.06319E+04  3.05514E+04
 -5.78371E+03  3.44092E+04 -2.81030E+04  1.34662E+04 -2.70668E+04 -3.75374E+03 -1.33699E+04 -1.15430E+04
 -1.20397E+04 -1.21222E+04 -6.37851E+03 -1.90259E+04  6.70316E+03 -1.92282E+04  1.38513E+04 -1.15602E+04
  1.51289E+04  8.18622E+03 -1.08757E+04  1.23983E+04 -2.07069E+04 -3.97616E+03 -1.13855E+04 -3.05898E+04
  2.65242E+04 -4.05226E+04  5.00258E+04 -2.29613E+04  4.27180E+04  2.18542E+04  1.65759E+04  4.26471E+04
 -1.39439E+04  3.54053E+04 -2.15990E+04  4.38293E+03 -9.58013E+03 -2.74641E+04  2.30575E+04 -2.92635E+04
  3.72909E+04 -1.01652E+04  3.20868E+04  2.77596E+04  1.76117E+04  4.76348E+04 -8.08776E+03  4.98619E+04
 -3.12371E+04  3.28613E+04 -4.23533E+04  9.33503E+03 -4.21081E+04 -1.41201E+04 -2.67358E+04 -3.96989E+04
  7.71855E+03 -4.21635E+04  3.23065E+04 -2.09184E+04  3.33271E+04  6.98082E+03  1.89082E+03  1.89761E+04
 -1.77974E+04  6.86115E+03 -6.87284E+03 -5.80579E+03  6.09974E+03 -7.24204E+03  1.92587E+04  9.70959E+03
  1.40418E+04  2.44679E+04 -4.63473E+03  2.10845E+04 -2.34050E+04  1.13948E+04 -2.70003E+04 -6.40377E+03
 -1.66182E+04 -1.77774E+04 -4.58189E+03 -1.74972E+04 -4.39781E+02 -2.18132E+04  1.93702E+04 -2.02267E+04
  2.26161E+04 -1.28460E+04  3.09841E+04  1.75458E+03  2.28039E+04  1.34283E+04  2.78541E+03  3.29229E+04
 -1.74036E+04  3.32229E+04 -2.64474E+04  9.89241E+03 -1.54958E+04 -1.66873E+04 -5.31237E+03 -1.29526E+04
  5.54400E+01 -2.39110E+03 -6.49119E+03  6.84852E+03 -1.29537E+04  2.91927E+03 -1.61019E+04 -7.46044E+03
 -5.73648E+03 -2.06995E+04  7.94515E+03 -1.99437E+04  1.80906E+04 -1.38979E+04  1.88481E+04 -3.49891E+03
  1.45334E+04  1.58863E+04 -5.33586E+03  2.00941E+04 -1.33523E+04  6.56314E+03 -1.79012E+04 -1.96809E+03
 -1.06519E+04 -1.19228E+04 -1.41332E+03 -2.13843E+04  1.38934E+04 -2.13782E+04  2.06048E+04 -9.32301E+03
  1.86872E+04  1.19138E+03  1.24680E+04  4.32842E+03  2.82959E+03 -1.55136E+03  3.65899E+03 -4.55967E+03
  1.89477E+04  1.32649E+03  1.81026E+04  1.09927E+04  1.23956E+04  2.73625E+04 -4.26376E+03  3.55924E+04
 -2.08531E+04  2.83300E+04 -3.15999E+04  1.20651E+04 -3.20966E+04 -2.47654E+03 -2.88853E+04 -1.79940E+04
 -8.56542E+03 -3.06726E+04  8.11821E+03 -2.16372E+04  2.08060E+04 -1.63180E+04  1.73214E+04  4.79565E+03
  9.07532E+03  1.13161E+04 -1.33714E+04  1.13163E+04 -1.35601E+04  1.85484E+03 -1.31018E+04 -9.74916E+03
  6.44015E+03 -1.29671E+04  8.03657E+03 -1.24983E+04  1.25612E+04  1.69730E+03  1.37816E+03  1.08316E+04
 -5.16866E+03  1.57209E+03 -6.56359E+03 -7.87055E+03 -1.63567E+03 -1.32337E+04  6.21487E+03 -1.48322E+04
  1.71826E+04 -7.54403E+03  1.92974E+04 -1.06176E+03  1.33015E+04  1.54662E+04  8.61623E+03  1.91182E+04
 -5.59424E+03  1.62784E+04 -1.58487E+04  1.35280E+04 -1.42792E+04  3.32768E+02 -7.36776E+03 -3.46935E+03
 -3.20204E+03 -5.72818E+03 -5.49256E+03 -2.00640E+03 -3.58792E+03  1.42162E+03  1.06623E+02  2.98276E+03
 -1.41886E+04  6.78519E+02 -7.07800E+03 -9.92677E+03 -1.56041E+03 -1.52826E+04 -3.36805E+02 -1.04051E+04
  7.67461E+03 -3.05706E+03  6.85520E+03  2.92701E+03  3.04840E+03  2.89971E+03 -2.92808E+03 -6.88986E+02
 -8.52846E+03 -5.86504E+03 -2.66104E+03 -8.49092E+03  3.63414E+03 -1.18507E+04  1.46826E+04 -8.50161E+03
  1.72138E+04  4.39439E+02  9.91966E+03  9.92548E+03  1.84372E+03  1.12824E+04 -9.25906E+03  8.31100E+03
 -3.79123E+03  5.61165E+03 -3.54228E+03 -8.86015E+02  2.99015E+03 -4.78315E+03  5.74930E+03 -4.11094E+02
  5.41731E+03  1.74181E+03  4.45145E+03  8.01919E+03  8.45822E+02  1.02065E+04 -9.61110E+03 -1.44930E+03
 -4.59168E+03 -1.13509E+03  1.59927E+03 -1.14066E+04  7.30003E+03 -6.46177E+03  2.02474E+03 -2.54681E+02
 -1.96838E+03  5.81124E+03 -5.72142E+03  6.14202E+03 -6.83701E+03  5.21247E+02 -5.27584E+03 -3.93597E+03
 -4.59941E+03 -4.16198E+03  1.36933E+03 -7.13063E+03  9.22700E+03 -8.00913E+03  9.97618E+03 -4.90689E+03
  6.62163E+03  6.20763E+03  2.79504E+03  8.00742E+03 -7.63610E+03  7.35067E+03 -8.20531E+03  2.17005E+02
 -8.65236E+03 -7.17798E+03 -9.05047E+02 -4.76232E+03  2.24348E+03 -4.65881E+03  1.63774E+03 -2.81486E+03
  5.94972E+03  3.27894E+03 -4.13547E+02  7.31742E+02  1.15054E+03 -1.94086E+03  5.69425E+03 -2.63093E+03
  1.14220E+04 -2.41925E+03  1.24039E+04  3.44998E+03  8.97926E+03  4.66949E+03  3.79647E+03  8.74874E+03
 -3.80379E+03  1.22155E+04 -1.76579E+04  8.97599E+03 -1.15805E+04 -2.61203E+02 -1.28953E+04 -5.47063E+03
 -7.74966E+03 -7.14489E+03 -1.52558E+03 -7.36804E+03  3.96445E+02 -4.62400E+03  3.94633E+03 -5.15538E+03
  4.77999E+03  1.27931E+03 -4.84985E+03 -1.37992E+03  2.55209E+03 -6.88409E+03  6.11710E+03  1.54928E+02
  6.09630E+03 -1.12262E+03  1.19610E+03  5.95421E+03  2.67384E+03  1.90896E+03 -1.16268E+04  3.65140E+03
 -4.15340E+03 -2.24660E+03 -4.36934E+03 -4.49480E+03  1.06205E+03 -1.05823E+04  4.62350E+03 -9.00104E+03
  9.39503E+03 -3.03552E+03  9.07305E+03 -1.49106E+03  1.13108E+04  5.21236E+03 -3.11967E+03  8.23442E+03
  2.89398E+03  1.05365E+04 -1.63183E+03 -1.22477E+03  4.12580E+02  3.53782E+03  1.27401E+03 -1.72502E+03
  1.61775E+03 -4.60904E+02  1.35425E+02  1.06078E+03 -2.61716E+03  2.34381E+03 -3.90147E+03 -3.95664E+03
 -5.20212E+03 -4.86166E+03  2.17764E+03 -8.03944E+03  2.04734E+03 -7.74020E+03  8.67927E+03 -1.47601E+03
  7.50781E+03  2.59803E+03  4.30942E+03  5.70176E+03 -2.27405E+03  6.09589E+03 -4.37199E+03  1.06302E+03
 -1.06880E+04  3.51657E+03 -7.24533E+03 -4.82778E+03 -6.80401E+02 -9.44177E+03 -1.62984E+03 -8.85537E+03
  5.80238E+03 -3.22223E+03  3.75352E+03 -2.69035E+02 -6.69157E+02 -1.19669E+03  1.80394E+03  1.37977E+02
  1.06626E+03  4.53378E+03  4.30302E+03 -1.20304E+03  3.02283E+03  2.82547E+03  8.86927E+01  3.84231E+03
  7.02829E+02  6.39294E+03 -6.63176E+03  6.52698E+03 -8.09310E+03  3.80013E+03 -4.91729E+03 -2.43018E+03
 -1.40854E+03 -9.32615E+03  4.10452E+03 -6.57191E+03  5.24595E+03 -2.71135E+03  3.54130E+03  3.72445E+03
  7.05561E+03  1.44083E+03  1.34840E+03  1.25196E+03  1.66370E+03  3.34924E+03 -4.02554E+03 -3.19792E+03
  2.07074E+03 -5.30124E+03  1.25514E+03 -1.91399E+03  1.18075E+03 -1.83690E+03 -2.34343E+03 -1.04744E+03
  3.99246E+03  5.08493E+03  7.14376E+02 -4.97014E+03  2.05392E+03 -3.79828E+03  3.35151E+03  1.60904E+03
 -2.29131E+03  3.35577E+03  2.60873E+03 -3.03439E+03  2.47969E+02  2.86026E+03  1.14304E+03  7.17601E+03
 -2.15201E+03  4.30351E+03 -5.39309E+03  4.27046E+03 -4.93666E+02 -2.94986E+03 -5.00345E+03  1.05818E+03
 -1.17691E+03  1.37154E+03 -2.06625E+03 -1.35448E+03  3.22146E+03  3.86773E+03 -5.47646E+03  1.65490E+03
  2.14237E+03  3.14021E+03  1.24315E+02 -3.25428E+03 -1.25826E+03 -1.50673E+03  9.21600E+02 -4.32540E+03
  3.98397E+03  9.74864E+02  2.63446E+03  4.20306E+03  2.79235E+03 -9.08438E+02  1.47617E+03  2.41057E+03
 -2.31060E+03 -7.42556E+02 -3.93477E+02  5.50106E+02 -3.90388E+02 -1.27545E+03  4.63115E+03 -3.60372E+03
  4.25388E+03  2.88207E+03  4.36938E+03  1.10821E+03  1.04538E+03  4.11401E+03 -2.21484E+03 -1.16383E+03
 -3.84941E+03 -2.74151E+03 -6.46416E+03 -3.75530E+03 -2.69206E+03  6.13101E+02  1.97132E+03  5.01823E+02
 -1.72553E+02 -1.92606E+03  1.67897E+03 -4.80864E+01  3.28843E+03 -5.15192E+02  7.59091E+02  6.64902E+03
 -2.49059E+03  2.99232E+03 -5.20983E+02 -8.95683E+02  6.93118E+02 -5.13415E+03 -5.76598E+03  4.28592E+03
  1.91390E+02 -2.20310E+03 -5.14863E+03 -9.79290E+02 -4.10733E+03  1.42552E+03 -3.05220E+03 -1.93539E+03
 -5.81409E+03 -5.81956E+03  1.29822E+03 -2.02815E+03  6.25284E+03 -4.38833E+03  2.44790E+03  1.96600E+03
  2.78918E+03 -5.89264E+03  1.98519E+03  4.93005E+03  1.10427E+03  3.80321E+03 -3.48941E+03 -5.53715E+02
 -5.00068E+02  2.83978E+02 -2.93899E+03 -1.86946E+02 -1.43011E+03 -2.41200E+02 -1.75383E+03 -1.07423E+03
 -1.15944E+03  2.59822E+03  4.08060E+01 -2.44524E+02 -1.27337E+03  4.12998E+02 -1.84682E+02 -2.83297E+03
  9.94749E+02 -8.56764E+02  3.79032E+03  2.34132E+03  3.74957E+02  1.68398E+03 -4.15247E+03  2.75696E+03
 -1.53193E+02 -5.10082E+01 -1.57268E+03  6.03958E+03 -5.00311E+03 -4.43132E+03 -2.28093E+03 -4.92171E+03
 -8.92800E+03 -6.52553E+03  5.45438E+03 -1.13830E+03  5.22546E+01  1.83883E+03  1.06023E+03 -3.50630E+03
  1.04347E+03  9.27733E+02 -1.59843E+03 -5.05717E+03 -3.39867E+03  6.65897E+03  1.07294E+03  3.01071E+03
  1.92081E+03 -2.21123E+03  3.32656E+02 -3.51614E+03  8.54268E+02 -4.89939E+02 -1.04620E+03  2.00651E+03
 -2.64126E+03  1.81053E+03 -2.78935E+02 -4.01430E+03 -2.05647E+03 -1.57838E+03  4.77079E+02 -2.40572E+03
 -5.01888E+03 -2.09789E+03  1.04600E+03  2.28089E+03  5.19483E+03  2.91960E+03  1.47768E+03  3.55628E+03
  2.21245E+03 -1.75564E+03  3.95117E+03  8.11545E+02 -1.48621E+03  4.79544E+02 -1.82395E+03  6.76800E+03
 -6.37660E+03 -1.46604E+03  1.20698E+03  3.02826E+03 -2.06991E+03 -3.51242E+02 -6.16605E+03 -2.20981E+03
 -3.50339E+03  3.33645E+03 -2.51174E+03 -2.95170E+03  3.53616E+03  1.24541E+03 -2.83262E+02 -5.39438E+02
  2.09715E+03  2.78002E+03 -3.50532E+03  6.49410E+03 -1.23652E+03 -2.92669E+03  3.47452E+03  3.00868E+03
