 $NMID ID='MM_0lb_SNR50_16hz_g40_22.RAW', FMTDAT='(8E13.5)'
 TRAMP=1., VOLUME=1. $END
  3.12298E+05  2.34741E+03  3.38889E+05  2.50814E+05  8.42553E+04  3.43152E+05 -1.32511E+05  2.45796E+05
 -1.95163E+05  8.15693E+04 -1.14940E+05 -3.27749E+04 -9.26233E+01 -5.18715E+04  5.66440E+04  2.26041E+03
  3.38541E+04  5.52801E+04 -1.77794E+04  7.55285E+04 -6.28134E+04  5.99928E+04 -8.11824E+04  3.37884E+04
 -7.90464E+04 -9.94157E+03 -6.00852E+04 -4.90165E+04 -2.02097E+04 -6.79771E+04  2.69883E+04 -4.30108E+04
  4.01580E+04  6.57374E+03  1.60496E+04  4.31340E+04 -3.57525E+04  4.50393E+04 -6.84463E+04  7.16263E+02
 -5.30350E+04 -5.64778E+04 -7.01028E+03 -7.34071E+04  3.45151E+04 -5.44305E+04  4.83545E+04 -1.72824E+04
  4.16522E+04  1.44444E+04  2.78504E+04  2.30357E+04  1.54877E+04  3.02055E+04 -8.94963E+03  2.43447E+04
 -2.39245E+04  1.43042E+04 -1.79877E+04 -2.62327E+03  4.07468E+03 -6.49058E+03  2.14031E+04  1.07410E+04
  8.21969E+03  3.08028E+04 -3.20924E+04  3.59272E+04 -6.05585E+04  7.22297E+02 -5.65883E+04 -3.93900E+04
 -1.20469E+04 -5.83216E+04  4.12582E+04 -4.44610E+04  5.54547E+04  8.52888E+02  3.36284E+04  2.93902E+04
 -6.41861E+03  3.51824E+04 -2.84164E+04  1.37462E+04 -3.27209E+04 -5.67632E+03 -1.27805E+04 -9.70604E+03
 -6.56087E+03 -1.14731E+04 -5.59748E+03 -1.95921E+04  6.96143E+03 -2.29634E+04  1.29513E+04 -1.60068E+04
  8.91357E+03  8.03309E+03 -5.42895E+03  1.05445E+04 -2.13146E+04 -2.42047E+03 -4.83264E+03 -3.09752E+04
  2.28808E+04 -4.28995E+04  5.05549E+04 -1.76105E+04  4.45304E+04  1.54311E+04  1.77924E+04  4.41355E+04
 -1.58561E+04  3.20785E+04 -2.63754E+04  1.18916E+03 -5.25249E+03 -2.35384E+04  2.00467E+04 -3.34725E+04
  4.06272E+04 -1.23076E+04  3.69431E+04  2.06637E+04  1.76654E+04  4.13561E+04 -1.13412E+04  4.37363E+04
 -2.60532E+04  3.76443E+04 -3.75520E+04  1.22364E+04 -3.79333E+04 -1.32141E+04 -2.53317E+04 -3.72775E+04
  1.48512E+04 -3.84551E+04  2.93365E+04 -1.25215E+04  2.57371E+04  1.15815E+04  1.07587E+03  1.75065E+04
 -1.27318E+04  6.85016E+03 -1.06491E+04 -8.09381E+03  5.25057E+03 -1.14862E+04  1.67626E+04  5.84728E+03
  9.60132E+03  2.43607E+04 -5.25156E+03  2.53377E+04 -1.92829E+04  1.00864E+04 -2.04321E+04 -2.90870E+03
 -1.91247E+04 -1.86644E+04 -5.56001E+03 -1.64567E+04  1.66511E+03 -1.27296E+04  1.08159E+04 -1.96071E+04
  2.65288E+04 -1.42043E+04  2.99944E+04  3.48498E+02  2.29845E+04  1.58586E+04  3.21710E+03  3.73666E+04
 -2.29736E+04  2.69508E+04 -2.63339E+04  8.34956E+03 -2.04432E+04 -1.31958E+04 -6.25834E+02 -9.41864E+03
  3.05827E+03 -2.86764E+03 -4.02267E+03  6.68534E+03 -1.62266E+04  2.78368E+03 -1.45037E+04 -5.64748E+03
 -1.05355E+04 -1.07863E+04  7.55106E+03 -1.92835E+04  1.35348E+04 -1.15685E+04  2.15988E+04 -3.61074E+03
  1.29144E+04  1.50492E+04 -2.89170E+03  1.89004E+04 -1.25910E+04  7.55151E+03 -1.68283E+04 -3.75272E+03
 -1.56755E+04 -1.66341E+04 -1.00643E+03 -1.84623E+04  8.05684E+03 -1.57398E+04  1.72640E+04 -1.09146E+04
  1.78384E+04 -9.72060E+02  1.55556E+04  2.89215E+03  4.67236E+03 -1.13815E+03  7.58492E+03 -2.82249E+03
  1.22428E+04  5.91263E+02  1.32201E+04  1.17025E+04  1.27054E+04  1.96918E+04  1.15480E+03  2.87022E+04
 -1.94367E+04  2.36133E+04 -2.95948E+04  9.77049E+03 -3.05278E+04  1.10192E+03 -2.39818E+04 -1.71486E+04
 -9.20192E+03 -2.37404E+04  1.02565E+04 -1.87305E+04  1.57157E+04 -5.47791E+03  1.87032E+04  1.33801E+04
  1.30154E+03  1.13794E+04 -1.24009E+04  8.38774E+03 -1.53240E+04  3.62843E+03 -9.09201E+03 -1.05653E+04
 -1.02920E+02 -1.66461E+04  7.19708E+03 -1.03158E+04  9.44457E+03 -6.06816E+02  2.23277E+03  6.64201E+03
 -1.03406E+04  6.18269E+03 -5.32680E+03 -4.52231E+03  1.30768E+03 -1.03418E+04  1.06950E+04 -3.77240E+03
  1.45043E+04 -5.17336E+03  1.43552E+04  9.31676E+02  1.16342E+04  1.37867E+04  2.97769E+03  1.84809E+04
 -1.29501E+03  1.62808E+04 -1.31681E+04  1.29910E+04 -1.31816E+04  2.39275E+03 -6.48484E+03 -2.63705E+03
 -1.31356E+03 -4.74932E+03 -1.02219E+03  2.40795E+03 -2.67294E+02  2.06305E+03 -9.68072E+03  3.62288E+03
 -9.06105E+03 -4.36122E+03 -1.18011E+04 -7.12131E+03  2.19652E+02 -1.30246E+04  2.23408E+03 -1.15181E+04
  6.59474E+03 -5.48488E+03  6.38073E+03 -1.42752E+03  9.46385E+02 -3.07654E+02 -3.13103E+03 -1.23596E+03
 -6.13547E+03 -6.87663E+03 -1.51658E+03 -4.26059E+03  8.23942E+03 -6.62437E+03  1.33945E+04 -7.70991E+03
  1.29636E+04 -6.37547E+02  1.22997E+04  4.16349E+03  4.91940E+03  7.59536E+03 -9.89710E+03  7.73414E+03
 -7.99447E+03  7.35195E+02 -3.57719E+03  1.42873E+01 -1.15105E+03 -5.43415E+03  3.14196E+03 -1.13431E+03
  6.47620E+03  3.95636E+03  1.77413E+03  8.79597E+03 -8.45417E+03  9.04662E+03 -1.00501E+04  1.72350E+03
 -2.84941E+03 -8.36452E+02  3.70307E+03 -7.69681E+03  2.26124E+03 -6.78354E+03  4.04255E+03  1.22671E+03
 -7.35251E+02  4.25950E+03 -3.28434E+03  7.53128E+03 -6.11565E+03 -6.34033E+02 -1.14433E+04 -3.07580E+03
 -2.66518E+03 -4.55301E+03 -2.39149E+02 -7.97392E+03  8.24858E+03 -7.37812E+03  3.82938E+03 -2.66317E+03
  5.93495E+03  6.89407E+03 -3.47362E+03  4.95778E+03 -5.92748E+03  3.58489E+03 -2.18319E+03 -1.82174E+02
 -6.07363E+03 -7.75679E+03 -1.58313E+03 -3.20722E+03  2.72424E+03 -3.09698E+03 -8.09920E+02 -2.22544E+03
  4.81169E+03 -1.71005E+02 -9.99543E+02  1.10819E+03 -9.63083E+02 -4.44622E+03  1.02650E+03 -9.89879E+02
  4.85559E+03 -3.69676E+03  3.05521E+03  1.48811E+03  4.77310E+03  3.62543E+03  6.73496E+03  1.08404E+04
 -2.08395E+03  1.16350E+04 -5.81502E+03  8.34326E+03 -1.52351E+04 -2.75077E+03 -6.01042E+03 -8.39761E+03
 -2.90625E+03 -5.96044E+03 -2.22449E+03 -8.95779E+03  5.62336E+03 -2.88238E+03  2.72292E+03  8.70954E+01
  4.97197E+03 -5.64565E+03  6.19964E+03 -1.18750E+03  4.38105E+03 -3.32025E+03  4.63384E+03 -1.50361E+03
  1.56921E+03 -1.51675E+03  3.32113E+03  2.52414E+03 -1.08841E+03 -1.30077E+03 -3.19682E+03  4.63102E+03
 -1.07146E+04 -1.59752E+02 -5.81428E+03 -6.24941E+03  2.70772E+03 -8.34550E+03  3.11777E+03 -9.05654E+03
  8.08432E+03 -3.20736E+03  9.21027E+03 -3.65942E+03  7.66324E+03  9.45384E+03  1.22879E+03  1.16438E+04
 -5.50574E+03  6.64663E+03 -3.41586E+03  1.83612E+03 -6.14966E+03  4.61961E+02  9.73348E+00 -7.38627E+02
  1.15556E+03  1.41660E+02 -3.96537E+03  2.67115E+03 -3.06177E+03  3.62008E+02 -4.45979E+03  6.91799E+02
 -3.63650E+03 -4.33367E+03  1.40814E+03 -4.85767E+03  3.47360E+03 -5.52325E+03  5.69851E+03 -2.03151E+03
  1.04709E+04  6.03365E+02  6.73935E+03  3.14532E+03 -2.48919E+02  6.40556E+03 -1.40081E+03  1.85895E+03
 -1.01062E+03  4.76995E+03 -5.72380E+03 -2.21089E+03 -2.09455E+03 -5.23262E+03  1.72047E+03 -1.80509E+03
  1.42453E+03 -3.31785E+03  7.79603E+03 -2.46131E+03  1.81010E+02  3.24088E+03 -3.86058E+03  4.01180E+01
 -2.22518E+03  2.97799E+03  1.47203E+03  1.01559E+03 -1.03238E+03  2.46064E+03  3.30466E+03 -1.47088E+03
  9.25748E+02  2.20138E+03 -5.33891E+03  6.65144E+03 -9.54510E+03  5.33461E+03 -7.22531E+03 -6.49892E+02
 -7.57831E+03 -3.52084E+03 -2.69048E+03 -5.40347E+03 -1.62278E+03 -3.57386E+03  4.27802E+03 -4.48248E+02
 -1.25348E+02  5.14030E+03 -1.65891E+03 -2.10702E+03  2.65802E+03  4.83081E+03  1.73478E+03  2.14728E+01
 -3.31975E+03 -4.06766E+01  4.25383E+02 -1.30523E+03  2.32277E+03 -2.41751E+03  6.32814E+03  1.21181E+03
  1.68449E+03  2.28425E+03 -1.63784E+03  3.53170E+03 -5.43008E+03  1.02265E+03 -4.83854E+03  6.93082E+02
 -8.28898E+02  2.97995E+02  5.79239E+03  6.16108E+02 -1.37833E+03 -2.04154E+02 -5.66361E+02  6.44575E+03
 -4.13043E+03  7.45044E+02 -5.23567E+03 -2.77145E+03 -4.72431E+03 -1.72989E+03  4.50229E+01 -2.45716E+03
  1.20692E+03 -1.72012E+03  2.34529E+03  6.47571E+02  6.42792E+02 -1.41351E+03 -3.01545E+02  3.03199E+03
 -2.40111E+03 -6.67583E+02 -1.14961E+03 -5.44520E+02 -1.10763E+03 -4.27189E+03 -2.04469E+03 -2.62687E+03
  2.75150E+03 -9.54071E+02 -3.44649E+03 -3.17149E+03  1.28957E+03  3.59101E+03  1.42234E+03 -2.82057E+02
 -2.81397E+03  3.87944E+02  1.17318E+03 -2.90919E+02  2.14318E+03 -4.85973E+03  3.67550E+03 -1.44385E+03
  1.43999E+03 -7.19260E+02  5.04323E+03 -1.75498E+03  3.70833E+03 -1.63806E+03 -5.57350E+03  3.85131E+03
 -1.18603E+03 -7.68241E+02 -7.93567E+02 -2.21689E+03 -1.38216E+03  8.42158E+02  2.30246E+03  2.83135E+03
  1.04329E+03 -3.52639E+03  1.20220E+03 -1.19903E+03  2.93679E+03 -6.06164E+03 -3.16315E+03 -1.82080E+01
 -1.16222E+03 -3.76986E+03 -7.20945E+02 -3.68324E+03 -1.55907E+03 -2.07890E+03 -5.57196E+02  4.59736E+02
 -1.88366E+03  3.19801E+02  9.33400E+02  6.76623E+01 -4.68162E+03  2.66100E+03 -1.85661E+03 -1.74619E+03
 -2.05540E+03 -2.22478E+03  2.59248E+03 -1.40405E+03  1.05397E+03 -1.48676E+03  2.31759E+03 -2.76868E+02
 -2.01580E+02  9.11528E+01  9.52319E+02  4.89217E+03  3.96062E+01  1.81948E+03 -7.56372E+02  2.38000E+03
 -1.50864E+02  4.36026E+02 -5.09107E+03  6.62913E+03 -4.94716E+03  4.08276E+03 -8.49729E+02 -5.09631E+03
 -3.56025E+02  1.28203E+03 -2.08703E+03 -2.98228E+03  1.88381E+03 -7.61507E+02 -1.21805E+03 -1.93291E+03
 -9.36575E+02  5.62799E+03  2.57386E+03  3.80359E+03  6.63163E+03  2.39437E+03  5.43485E+03  2.21270E+03
 -6.16836E+03  6.16602E+03 -3.80115E+03  3.74571E+03 -1.33082E+03 -5.94610E+02  1.08417E+03 -2.91327E+03
 -4.50262E+03 -3.16976E+03  1.32603E+03 -3.07265E+03 -3.07919E+02 -3.85475E+03  5.26702E+02  3.15136E+03
  5.22302E+03 -3.76913E+03 -7.00330E+03  4.92708E+03 -4.15739E+03 -1.24874E+03 -2.84220E+03 -1.92268E+03
  1.38434E+02  2.96877E+03  7.72586E+02 -6.69576E+02 -3.37141E+02  4.53986E+02  1.46217E+03 -3.02738E+03
 -4.36275E+03  3.10117E+02  1.02090E+03 -3.74169E+03 -3.53119E+03 -1.01634E+02 -3.25452E+02 -5.27076E+03
  2.28645E+03  2.01227E+03 -1.71755E+03  5.69728E+03  8.70656E+02 -9.50435E+02 -2.34060E+03  1.84557E+03
  2.51858E+03  3.45510E+03 -1.95925E+03  1.64791E+03  2.48661E+03  1.08286E+03 -1.00905E+02 -3.51643E+03
  3.61492E+02 -1.64132E+03  2.75028E+03 -2.79682E+03 -2.63669E+03  1.98723E+03 -2.38326E+03 -3.08337E+03
 -4.61109E+03 -6.46852E+02 -4.33748E+03  2.82983E+03  2.52093E+03  1.72290E+03  2.16446E+03  3.03274E+02
  3.78438E+02 -1.70059E+03 -8.68153E+02  1.84131E+02  2.59397E+03  1.89211E+02 -9.41849E+02  1.16992E+03
