 $NMID ID='MM_0lb_SNR50_7hz_g45_10.RAW', FMTDAT='(8E13.5)'
 TRAMP=1., VOLUME=1. $END
  3.10577E+05  2.68234E+03  3.41714E+05  2.48912E+05  8.00362E+04  3.43449E+05 -1.37275E+05  2.54074E+05
 -1.93492E+05  8.05372E+04 -1.07653E+05 -2.82186E+04 -6.14458E+03 -4.73544E+04  5.37941E+04 -5.54880E+03
  3.76365E+04  5.64597E+04 -1.89247E+04  7.65113E+04 -6.80468E+04  6.60055E+04 -8.34754E+04  3.04829E+04
 -8.72150E+04 -1.40939E+04 -5.62269E+04 -4.86744E+04 -1.46262E+04 -7.18739E+04  2.71353E+04 -4.96508E+04
  3.45962E+04  3.13727E+03  2.52919E+04  5.47631E+04 -3.50531E+04  4.47056E+04 -6.33930E+04  1.06874E+03
 -5.63546E+04 -5.24938E+04 -6.89872E+03 -7.63093E+04  3.04114E+04 -5.60484E+04  4.26207E+04 -1.16977E+04
  4.88819E+04  1.32282E+04  2.68108E+04  2.50908E+04  1.16866E+04  4.03493E+04 -4.59339E+03  2.86598E+04
 -2.54070E+04  1.71408E+03 -1.74333E+04 -1.22406E+04  9.95325E+03 -4.18103E+03  2.53907E+04  1.41437E+04
  7.47922E+03  3.31912E+04 -3.30168E+04  4.13389E+04 -6.57236E+04 -2.01110E+03 -6.04693E+04 -4.33406E+04
 -1.59655E+04 -6.82140E+04  3.84008E+04 -4.37572E+04  6.41171E+04 -7.52385E+03  3.73931E+04  2.88384E+04
 -9.17017E+03  4.06787E+04 -3.02755E+04  1.78906E+04 -3.51092E+04 -2.06799E+03 -1.96851E+04 -9.38420E+03
 -1.38733E+04 -1.85659E+04 -4.62968E+03 -2.58052E+04  9.04046E+03 -2.16740E+04  1.45678E+04 -2.79077E+03
  1.63152E+04  8.29775E+03 -8.29254E+03  3.90660E+03 -2.02124E+04 -9.05125E+03 -1.02284E+04 -3.56958E+04
  2.36395E+04 -4.40930E+04  5.01280E+04 -2.31842E+04  5.10666E+04  2.42837E+04  1.98048E+04  4.56801E+04
 -1.44507E+04  4.10502E+04 -2.99724E+04  9.28596E+03 -1.15336E+04 -2.64560E+04  2.02971E+04 -4.21387E+04
  4.84116E+04 -1.08658E+04  4.50235E+04  2.36837E+04  2.31252E+04  4.47627E+04 -1.95029E+04  5.69618E+04
 -3.83040E+04  3.83235E+04 -4.35334E+04  1.09065E+04 -4.34820E+04 -1.33504E+04 -2.81751E+04 -4.49833E+04
  1.04258E+04 -4.60466E+04  3.10034E+04 -2.18529E+04  3.14392E+04  1.40888E+04  7.88932E+03  2.52541E+04
 -1.53240E+04  1.08991E+04 -1.18610E+04 -1.60814E+03 -1.44546E+03 -1.08423E+04  2.08442E+04  1.10405E+04
  1.52321E+04  1.96718E+04  6.42261E+02  2.48233E+04 -2.67401E+04  1.85305E+04 -3.96064E+04 -3.72675E+03
 -3.13566E+04 -2.37272E+04 -1.27482E+04 -2.55965E+04  8.07200E+03 -2.33503E+04  2.53940E+04 -3.37465E+04
  4.25565E+04 -1.66877E+04  4.07460E+04 -9.90167E+02  3.16924E+04  2.24439E+04  4.87259E+03  3.76364E+04
 -1.99117E+04  3.00199E+04 -3.31236E+04  1.41611E+04 -2.20425E+04 -1.88975E+04 -6.87801E+03 -1.11905E+04
 -9.42076E+02 -3.08760E+03 -7.62187E+03  1.33300E+04 -3.29113E+04 -5.61582E+02 -1.72773E+04 -1.59109E+04
 -6.02664E+03 -2.52274E+04 -5.50421E+02 -3.58142E+04  2.31865E+04 -1.72470E+04  1.70261E+04  3.05125E+03
  1.33741E+04  1.78133E+04  2.47849E+03  1.93713E+04 -1.89936E+04  1.50770E+04 -3.26466E+04 -4.75174E+03
 -1.74350E+04 -2.39145E+04  2.08641E+03 -2.95108E+04  1.59540E+04 -2.34099E+04  2.70834E+04 -9.77065E+03
  2.49661E+04  6.04699E+02  1.45130E+04  8.41442E+03  8.87325E+03  3.25567E+03  1.40666E+04 -4.08872E+03
  2.78017E+04  4.80240E+03  3.29017E+04  1.70292E+04  1.23308E+04  3.70273E+04 -5.52112E+03  4.55036E+04
 -2.67473E+04  4.02719E+04 -4.39438E+04  2.30061E+04 -4.46512E+04 -1.44857E+03 -4.60572E+04 -2.56735E+04
 -6.12465E+03 -4.01762E+04  1.27745E+04 -3.83406E+04  2.99263E+04 -1.58742E+04  2.62540E+04  1.33809E+04
  4.55682E+03  2.44786E+04 -5.48267E+03  1.47732E+04 -2.41212E+04  5.06737E+03 -2.16374E+04 -1.10866E+04
 -2.46126E+03 -2.23635E+04  1.30207E+04 -1.93354E+04  7.60222E+03  7.33271E+03  7.21595E+02  1.37455E+04
 -3.94430E+03  2.93825E+03 -1.72490E+04 -8.99991E+03  9.29527E+02 -2.56244E+04  1.44069E+04 -2.08963E+04
  2.91232E+04 -1.36758E+04  2.65604E+04 -2.38524E+03  3.36178E+04  1.90909E+04  1.65498E+04  3.24952E+04
  1.94893E+03  3.74392E+04 -1.96282E+04  1.89681E+04 -2.34626E+04  8.31285E+03 -1.96572E+04 -6.71598E+03
 -5.96214E+03 -5.35444E+03 -1.90654E+03  6.12641E+03  3.05906E+03  2.52306E+03 -1.52175E+04  7.62851E+03
 -1.49135E+04 -1.85656E+03 -1.68968E+04 -1.40588E+04 -1.91585E+03 -1.97466E+04  1.18776E+03 -2.09868E+04
  1.90150E+04 -5.33784E+03  5.44393E+03  2.57247E+03  3.30081E+03  8.02763E+03 -1.55617E+04  2.24503E+02
 -1.16016E+04 -8.57714E+03  7.36891E+03 -2.67161E+04  5.48992E+03 -1.47730E+04  2.18012E+04 -1.42015E+04
  2.03979E+04  3.72283E+03  2.27519E+04  1.78382E+04  1.44015E+03  2.25529E+04 -1.04645E+04  1.45341E+04
 -1.05966E+04  2.54567E+03 -2.60746E+03 -1.60174E+03  2.84904E+03 -1.26292E+03  1.01840E+04 -9.39454E+03
  8.86690E+03  7.48415E+03  1.57122E+03  6.04590E+03 -1.21267E+04  1.61368E+04 -1.91578E+04  9.58710E+03
 -1.90628E+03 -7.78114E+03 -8.46549E+02 -1.61810E+04  6.63083E+03 -5.14147E+03  1.10684E+04  5.94643E+03
  1.13187E+04  1.35128E+04 -5.32559E+03  1.43233E+04 -2.54049E+04  1.21088E+04 -1.83858E+04 -5.30159E+03
 -4.10743E+03 -1.29088E+04  3.10229E+03 -1.58346E+04  1.62641E+04 -1.15483E+04  1.75485E+04  5.54727E+03
  1.56296E+04  1.54411E+04  7.78184E+02  1.23753E+04 -1.07855E+04  8.43150E+03 -1.74950E+04 -3.50639E+03
 -1.48718E+04 -4.79983E+03  8.12673E+02 -1.76060E+04  4.62734E+03 -1.29396E+04  1.13631E+04 -1.18510E+03
  8.52203E+03  4.51645E+02  1.63702E+03  1.66970E+03 -3.00237E+03 -3.76867E+03  1.74365E+02  1.64883E+02
  1.32756E+04 -5.27314E+03  1.76504E+04  1.52705E+03  1.38560E+04  1.42047E+04  6.47339E+03  2.72136E+04
 -6.14540E+03  2.02898E+04 -2.86631E+04  2.31355E+04 -3.00360E+04  3.42742E+03 -2.32439E+04 -7.04749E+03
 -1.04844E+04 -2.23011E+04 -1.09296E+02 -1.78690E+04  5.50799E+03 -1.18843E+04  3.70884E+03 -8.14570E+03
  2.06849E+03 -3.47016E+03  8.13505E+03 -4.15010E+03  8.49066E+03 -1.50380E+03  1.05997E+04  4.66612E+02
  4.01748E+03  4.72605E+03  1.32283E+04  7.41518E+03 -7.45822E+03  9.30037E+03 -1.69142E+04  1.30063E+04
 -1.79169E+04  1.90481E+02 -4.00212E+03 -1.15846E+04  6.37812E+03 -1.97760E+04  9.32898E+03 -2.47716E+04
  2.13412E+04 -1.18572E+04  2.52700E+04  1.62140E+04  1.76638E+04  1.89925E+04  2.03881E+03  2.26273E+04
 -1.15895E+04  1.72745E+04 -1.26024E+04  5.70370E+03 -1.05877E+04 -3.19642E+02 -4.27816E+03 -1.00473E+03
 -4.20879E+03 -6.72333E+03  1.20881E+03  4.91316E+03 -8.21146E+03  3.61701E+03 -9.82633E+03  8.26598E+03
 -7.58023E+03 -9.48159E+03  5.24238E+03 -1.30789E+04  1.39541E+04 -1.91769E+04  1.83323E+04 -9.33441E+03
  9.40716E+03  9.67913E+03  1.10690E+04  2.37191E+04 -6.38092E+03  2.29296E+04 -7.85142E+03  9.69530E+03
 -1.92930E+04  2.85305E+02 -9.76322E+03 -1.08626E+04  1.15632E+02 -1.43564E+04  3.41755E+03 -1.24931E+04
  1.10081E+04 -7.19207E+03  6.62313E+03  3.19824E+03 -7.75862E+02  7.12372E+03 -2.79671E+03 -4.45784E+03
  7.91498E+03  6.24793E+03  8.87874E+03 -3.62249E+03  8.17615E+03  5.24696E+03  3.96978E+03  1.35262E+04
 -4.74024E+03  1.37770E+04 -3.55281E+03  1.31017E+04 -2.17507E+04  7.36284E+03 -1.64273E+04 -2.88484E+03
 -1.40116E+04 -1.74847E+04 -6.88683E+02 -2.41444E+04  1.60047E+04 -1.62195E+04  1.23367E+04 -2.97996E+03
  1.24327E+04  2.13350E+03  4.16903E+03  8.04201E+03 -5.24212E+03  7.44413E+03 -1.01612E+04 -4.60989E+03
 -5.74601E+03 -4.58966E+03 -4.74976E+03 -3.29706E+03  3.42965E+03 -3.22423E+03  6.03487E+03  6.86817E+03
  4.23871E+03 -3.13294E+03  4.64233E+03  1.17760E+03  1.56772E+03  7.42751E+02  3.34674E+03  1.82603E+03
  5.52389E+03  1.31033E+03  1.52752E+04  6.99555E+03  3.92480E+03  7.74909E+03 -2.96924E+03  1.63052E+04
 -1.02401E+04  8.11190E+03 -7.02298E+03 -1.73161E+03 -1.16530E+04 -3.73207E+03 -9.00727E+03 -7.48904E+03
  3.94244E+03 -1.60018E+04 -1.33271E+03 -2.60612E+03  9.38871E+03  2.76566E+03  1.85769E+03  3.31501E+03
 -1.28434E+04  5.40442E+03 -1.17331E+04 -3.14391E+03 -3.89764E+03 -1.16257E+03  3.38342E+02 -7.27705E+03
  1.07030E+04 -7.88350E+03  1.02090E+03 -7.15992E+03  7.10382E+03  2.24875E+03  1.75893E+03  4.52872E+03
 -6.91958E+03  1.37843E+03 -8.61956E+03 -1.06981E+04  1.24119E+04 -3.51191E+03  1.44199E+04 -6.21681E+03
  1.38012E+04  6.81342E+03  1.78212E+04  1.07418E+04  6.14666E+03  9.76842E+03 -3.66439E+03  1.34541E+04
 -1.16868E+04  6.17757E+03 -1.39781E+04 -8.02039E+03 -8.42335E+02 -4.33898E+03  1.99044E+03 -9.70416E+03
  1.04845E+04 -4.28585E+03  1.02273E+04  5.97671E+03 -6.67491E+02  4.11855E+03 -4.02830E+00  4.43202E+03
 -2.92271E+03  3.34365E+03 -6.42264E+03 -3.14112E+02 -2.85438E+03  4.44429E+02  5.30720E+02  5.57164E+03
 -1.54701E+03  1.54956E+03 -1.14255E+04 -1.32923E+03 -1.22184E+04  2.27600E+03 -2.33898E+04 -9.59040E+03
 -5.80538E+03 -1.01064E+04  1.05743E+04 -1.75835E+04  1.97728E+04 -2.11989E+04  1.89188E+04 -6.05595E+03
  2.00079E+04 -8.80798E+03  1.08996E+04  7.72716E+03 -2.93292E+02  7.86046E+03 -7.72998E+02  1.66529E+04
 -2.47488E+03  2.90804E+03  1.11138E+03  1.13811E+03 -2.25406E+03  1.00608E+03  3.07431E+03  5.08442E+03
 -9.88479E+03  2.45700E+03 -3.69554E+03 -2.75694E+03  1.81333E+02 -1.94451E+02 -9.91239E+02 -6.45591E+03
  9.69678E+03 -8.99634E+03  3.48596E+03 -3.37306E+02  4.43481E+03  1.77538E+04  4.24550E+02  1.45614E+04
 -1.02009E+04  2.27335E+04 -1.41011E+04  1.30617E+04 -1.36898E+04  1.95889E+03 -1.30853E+04 -1.47690E+04
 -4.31930E+03 -1.52675E+04  1.14099E+03 -5.16841E+03  6.86028E+03 -5.71850E+03  7.15342E+03  3.42310E+03
  4.28970E+03  1.27636E+04 -3.68319E+03  4.30328E+03 -8.47121E+03 -3.15939E+03 -1.17769E+04 -3.49590E+03
  1.23987E+04  1.40345E+03  2.87165E+03 -3.72889E+03  4.90335E+03  1.21621E+04  2.31041E+03  1.11300E+04
 -2.03584E+04  6.14627E+03 -1.68252E+04  3.94313E+03 -6.15014E+03 -1.02549E+04 -7.42886E+03 -5.69008E+03
  1.00529E+04 -1.02263E+04  1.53951E+04  3.37183E+02  9.19333E+03 -1.26533E+03  6.37553E+03  1.95173E+03
  6.98410E+03  6.11825E+03 -7.29213E+03  7.65083E+03 -1.80216E+03  4.22686E+03 -5.52704E+03 -1.55519E+02
  7.60332E+03  2.67618E+03 -8.80937E+03  1.89855E+03 -4.47544E+03 -2.25444E+03 -8.98348E+03 -3.23785E+03
 -9.42928E+03 -3.28704E+03 -7.97669E+03 -1.42205E+04  5.28025E+03 -2.63189E+03  1.34341E+04 -8.69619E+03
  8.98116E+03 -1.36935E+03  3.58724E+03  6.13313E+03  9.31766E+03  6.60267E+03 -1.00077E+04  8.62627E+03
