 $NMID ID='MM_0lb_SNR50_14hz_g45_2.RAW', FMTDAT='(8E13.5)'
 TRAMP=1., VOLUME=1. $END
  3.13506E+05  4.44711E+03  3.39141E+05  2.54093E+05  8.94275E+04  3.36989E+05 -1.28216E+05  2.50600E+05
 -1.88491E+05  8.40944E+04 -1.13329E+05 -3.11685E+04 -7.16310E+02 -4.82665E+04  5.69646E+04 -3.80880E+03
  3.60364E+04  5.38282E+04 -1.65600E+04  7.41025E+04 -5.96018E+04  6.38235E+04 -8.03868E+04  2.73898E+04
 -7.79738E+04 -1.13628E+04 -5.89128E+04 -5.15309E+04 -1.55050E+04 -6.42463E+04  2.42340E+04 -4.49824E+04
  3.57930E+04  4.63456E+03  1.69800E+04  4.95849E+04 -3.29858E+04  4.87068E+04 -6.57395E+04  4.03886E+03
 -5.21868E+04 -5.90243E+04 -8.01439E+03 -7.66946E+04  3.27191E+04 -5.39290E+04  4.85864E+04 -1.61196E+04
  3.66198E+04  1.13160E+04  3.32164E+04  2.66728E+04  1.91615E+04  3.03894E+04 -4.99341E+03  2.68919E+04
 -2.01032E+04  1.53696E+04 -1.74042E+04 -6.29061E+03  4.45169E+03 -1.11496E+04  2.92905E+04  1.48535E+04
  1.23782E+04  3.10572E+04 -3.61420E+04  3.47250E+04 -6.18014E+04 -8.18433E+02 -5.73719E+04 -4.39586E+04
 -1.52680E+04 -6.04704E+04  4.11832E+04 -4.24695E+04  5.23396E+04 -3.71639E+03  3.44895E+04  3.44443E+04
 -8.35810E+03  3.53578E+04 -2.94581E+04  1.20546E+04 -2.92597E+04 -4.89991E+03 -1.52478E+04 -1.07143E+04
 -1.34510E+04 -1.63235E+04  3.37155E+03 -1.93874E+04  7.04024E+03 -2.08857E+04  1.23338E+04 -1.01626E+04
  1.16191E+04  4.52104E+03 -5.99391E+03  8.66878E+03 -1.59756E+04 -2.71615E+03 -1.05632E+04 -3.15193E+04
  2.28560E+04 -4.05173E+04  4.99085E+04 -2.22479E+04  5.00891E+04  2.36291E+04  1.69063E+04  4.62944E+04
 -1.75733E+04  3.30972E+04 -2.50807E+04  5.06441E+02 -1.20873E+04 -2.78877E+04  2.02270E+04 -3.20378E+04
  4.44250E+04 -1.24124E+04  3.43896E+04  1.86573E+04  1.98476E+04  4.39240E+04 -1.22288E+04  4.70258E+04
 -2.76259E+04  3.24045E+04 -4.07366E+04  9.78452E+03 -4.73341E+04 -1.43398E+04 -2.20039E+04 -3.40568E+04
  4.42285E+03 -3.34779E+04  3.27217E+04 -1.75972E+04  3.10465E+04  1.42498E+04  6.30023E+03  1.74279E+04
 -1.33646E+04  2.50794E+03 -1.00055E+04 -1.13268E+04  1.59447E+04 -1.35421E+04  1.79656E+04  3.71782E+03
  1.33116E+04  2.60975E+04 -8.64190E+03  2.67156E+04 -2.22915E+04  1.44982E+04 -2.68427E+04 -2.90252E+03
 -2.15020E+04 -1.49215E+04 -8.93548E+03 -1.84384E+04 -8.74331E+02 -2.13536E+04  1.48093E+04 -1.63984E+04
  2.57198E+04 -1.25612E+04  3.34689E+04  2.33503E+03  2.59409E+04  1.76126E+04  3.90330E+03  4.12390E+04
 -1.26061E+04  3.10415E+04 -2.35712E+04  8.35849E+03 -1.88767E+04 -9.96385E+03 -3.98690E+03 -1.49983E+04
  2.79372E+02 -2.64468E+03 -3.76610E+03  4.96808E+03 -1.52549E+04  1.78266E+03 -1.37967E+04 -7.86866E+03
 -1.05252E+04 -2.24776E+04  2.84377E+03 -2.20452E+04  1.63148E+04 -1.80086E+04  1.66763E+04 -3.09927E+03
  1.20421E+04  1.11326E+04 -4.85024E+03  2.28793E+04 -1.01152E+04  1.04932E+04 -2.18039E+04 -4.15498E+03
 -1.28191E+04 -1.85873E+04 -7.74566E+03 -2.33707E+04  1.08405E+04 -2.14281E+04  1.75684E+04 -5.61309E+03
  1.92676E+04  2.85416E+03  1.34027E+04 -4.77168E+02  8.84049E+03 -7.82731E+01  1.44059E+04 -3.85126E+03
  1.77938E+04  5.29990E+03  1.82187E+04  1.46809E+04  1.18981E+04  3.05388E+04 -3.41110E+03  3.47564E+04
 -2.19394E+04  2.73590E+04 -2.91476E+04  1.68243E+04 -3.02209E+04 -4.67844E+03 -2.51435E+04 -1.38807E+04
 -1.22342E+04 -2.83479E+04  1.25913E+04 -2.87025E+04  2.08611E+04 -1.06475E+04  1.74999E+04  7.03344E+03
  6.74212E+03  1.38266E+04 -1.09224E+04  1.12440E+04 -1.39879E+04  3.02002E+03 -1.49850E+04 -8.56752E+03
 -3.03912E+03 -1.41617E+04  7.19976E+03 -1.13326E+04  1.52879E+04  3.04531E+02  1.70007E+03  7.63953E+03
 -1.08958E+04  5.83517E+03 -4.34763E+03 -3.12978E+03  1.08398E+03 -1.32627E+04  9.35539E+03 -1.78430E+04
  1.24922E+04 -7.85456E+03  2.15906E+04 -6.05815E+02  1.31579E+04  1.48395E+04  9.44343E+03  2.09069E+04
 -3.78494E+03  2.29728E+04 -1.20622E+04  1.81043E+04 -1.47793E+04  5.31020E+03 -1.48076E+04 -1.90537E+03
 -5.11288E+03 -2.17151E+02 -1.48819E+03 -3.22897E+03 -2.01109E+03  1.17995E+03 -8.59154E+03  1.15166E+03
 -1.06564E+04 -8.52832E+02 -1.12739E+04 -9.37498E+03 -2.76625E+03 -1.55426E+04  5.97592E+01 -8.69461E+03
  1.03209E+04 -4.58544E+03  1.18276E+04  2.12920E+03  1.04751E+03  2.96880E+03 -2.99615E+03 -2.85553E+03
 -4.76233E+03 -7.37253E+03 -1.43270E+03 -9.54181E+03  5.21907E+03 -3.75011E+03  1.02598E+04 -8.28232E+03
  1.52754E+04  2.27707E+03  9.51614E+03  9.70142E+03  6.47724E+03  1.70426E+04 -2.70858E+03  9.24673E+03
 -9.97702E+03  7.05087E+03 -2.54030E+03 -2.17640E+03  9.16273E+02 -6.49443E+02  6.05359E+03 -4.87926E+03
  4.53529E+03  6.25853E+03  6.50957E+03  5.94298E+03 -5.64006E+03  4.65571E+03 -9.39615E+03  4.63424E+03
 -7.34525E+03 -8.41305E+03  2.94431E+03 -6.11783E+03  1.04417E+04 -5.62394E+03  6.95712E+03 -7.38539E+02
  6.49694E+02  4.07442E+03 -6.67657E+03  5.31325E+03 -1.07933E+04  5.14325E+03 -3.67912E+03 -1.79435E+03
 -1.10973E+04 -1.12453E+04  9.16984E+02 -8.67335E+03  8.43879E+03 -4.20114E+03  8.80200E+03 -2.72372E+03
  6.22211E+02  7.64473E+03 -3.39694E+03  7.93076E+03 -9.00401E+03  3.28830E+03 -1.20092E+04  2.10344E+03
 -5.41490E+03 -8.14119E+03  4.13025E+03 -1.11635E+04  6.79939E+02 -1.15555E+04  6.81992E+03 -5.50082E+03
  2.41529E+03  3.82001E+03 -1.58070E+03  4.88180E+03 -2.16378E+03  1.60451E+03 -4.67274E+03  1.13971E+02
  5.16517E+03 -2.10210E+03  1.06791E+04  1.01630E+03  6.33462E+03  1.14026E+04  7.13924E+03  1.19872E+04
  1.86109E+03  7.92329E+03 -8.34281E+03  6.24516E+03 -1.47046E+04  7.68443E+02 -7.84086E+03 -7.50900E+03
 -7.64685E+03 -9.92096E+03  1.40788E+03 -1.42260E+04 -1.25794E+03 -8.31878E+03  1.90735E+03 -3.06758E+03
  7.59298E+03 -3.21604E+02 -1.61616E+03 -3.41180E+03  1.50935E+03 -4.15666E+03  8.20002E+03  1.52873E+03
  9.41332E+03  4.71129E+03 -1.41157E+03  2.02059E+03 -6.11278E+03  3.93919E+03 -3.21052E+03  6.33864E+03
 -1.21698E+04  2.23088E+03 -6.08774E+03 -3.92011E+03 -2.38898E+03 -1.03032E+04  2.25969E+03 -8.48319E+03
  5.05961E+03 -4.55404E+03  1.32174E+04  9.26899E+02  1.14659E+04  4.03808E+03 -2.44066E+02  9.71008E+03
 -1.53951E+03  1.14897E+04 -5.09554E+03  5.86990E+03 -2.06618E+03 -8.47985E+02 -9.73906E+01 -2.96355E+03
 -3.98239E+03 -2.80129E+03 -3.34731E+03  4.47226E+03 -6.35641E+03  2.35265E+03 -5.38604E+03 -7.49780E+02
 -5.29192E+03 -3.63782E+03 -5.90866E+01 -7.27710E+03  9.66563E+02 -4.62126E+03  7.81094E+03 -3.25354E+03
  7.77103E+03  1.57665E+03  2.54832E+03  9.87725E+03 -2.28793E+03  2.80685E+03 -3.34453E+03  5.05067E+03
 -7.80601E+03  1.74583E+02 -8.15348E+03 -3.50601E+03  3.50847E+03 -4.91457E+03  4.87519E+03 -7.32487E+03
  9.62918E+03 -3.91739E+03  4.64979E+03  5.41737E+03  8.46723E+02  4.77651E+03  1.55499E+03  2.56558E+02
  6.48493E+03  2.63571E+03  2.12211E+03 -2.25319E+03  3.13958E+03  3.66949E+03  3.90341E+03  4.09065E+03
 -3.59994E+03  8.38190E+03 -3.58327E+03  8.61497E+03 -5.71470E+03  2.11613E+03 -7.16710E+03 -3.08244E+03
 -3.92068E+03 -8.16757E+03 -4.85284E+02 -1.39013E+04  5.47457E+03 -8.92345E+03  6.48342E+03 -5.01402E+03
  2.45256E+03  2.58260E+03  2.97772E+03  6.11532E+03  2.76267E+03 -8.43817E+02 -3.34751E+02  2.76863E+03
 -1.20186E+03 -1.01680E+02 -3.06378E+03 -4.30486E+02  2.26937E+03 -7.84358E+02  2.61045E+03 -2.80163E+03
  5.80683E+03  2.91835E+03 -5.57290E+02  2.24438E+03 -3.63173E+03 -4.04013E+03  2.04305E+03  1.99201E+03
 -2.79394E+03  4.39312E+03  8.53717E+03 -4.19043E+01 -3.23023E+03  2.90522E+03  2.73238E+03  6.32638E+03
 -6.65456E+03  4.71261E+03 -7.21860E+03 -5.81923E+01 -6.09360E+03  1.35596E+03  2.42506E+03 -9.55833E+03
  3.91810E+03 -2.49912E+03  2.69952E+03  2.03878E+03  2.89896E+03  2.99057E+03 -5.21823E+02 -2.37502E+03
 -3.92680E+03  4.60262E+03  5.92138E+02 -7.23968E+02  1.24626E+02 -8.29132E+03 -1.35898E+03 -4.50258E+03
 -4.35569E+02 -2.50141E+03 -2.00736E+03 -9.58851E+02  3.53316E+01 -6.61238E+02  2.31526E+03 -1.41231E+03
  3.06603E+01  4.80121E+03  6.55055E+03 -8.81381E+02 -1.87302E+02  4.19545E+02  8.32810E+03 -1.63680E+03
 -5.47432E+02 -1.27141E+03  3.99268E+03  2.57786E+03  2.28194E+03 -1.28583E+03  4.46332E+03  3.56701E+03
  2.27881E+02  8.48633E+02 -5.81088E+03  7.89815E+03  2.61536E+03 -1.39262E+02 -5.88712E+02 -7.12951E+03
  2.39817E+03 -4.57067E+03  3.29237E+03  7.71641E+02  2.12545E+03  2.66500E+03 -3.16332E+03  4.72232E+03
 -4.72549E+03  9.61787E+02  3.25477E+03  3.27098E+03  5.03722E+03 -1.52468E+03  1.18844E+03 -1.86007E+03
 -2.42217E+03  1.14660E+03 -5.03975E+03 -7.09250E+03 -5.95473E+03 -6.40629E+02 -6.50696E+03 -4.02441E+02
  3.85739E+02 -4.85032E+02  2.38739E+03 -3.62823E+03 -9.28720E+02 -5.60723E+03  9.21220E+03  1.39158E+03
  5.32660E+03  3.02146E+03  2.81238E+02  2.09104E+03 -2.09868E+03  2.04787E+03 -2.89639E+03  6.57781E+02
 -7.34642E+03  1.34011E+03 -1.99722E+03  1.19281E+03 -3.92177E+03  1.36946E+03  1.12301E+02  2.37897E+03
 -1.20046E+03 -4.12079E+03 -6.65070E+03  1.52599E+03  3.29673E+02 -1.51785E+03 -1.51696E+03 -3.19922E+03
  5.05643E+03  1.37802E+03  4.69934E+03 -2.78356E+03  3.00862E+02  3.67227E+03  8.72233E+02  8.61810E+03
  1.30197E+03  6.10938E+03 -1.62873E+03  3.69171E+03 -1.02850E+03 -4.11212E+02 -1.12572E+02 -9.22084E+02
 -8.53336E+03 -3.35214E+03  1.86648E+03 -6.37911E+03  2.68595E+03 -1.91295E+03  7.16397E+02  2.70254E+03
  9.41265E+02  4.25810E+03 -3.76467E+01 -1.00752E+03  3.98435E+03  5.14182E+03  2.54134E+03  1.68583E+02
  2.97457E+03  9.04482E+02 -1.53363E+02 -2.98606E+03 -2.24344E+03 -7.32617E+02  6.95240E+02  3.64276E+03
 -6.40475E+03 -1.47408E+03 -3.16553E+03  1.15384E+03 -5.16476E+03 -4.83252E+03  1.47830E+02 -7.91311E+03
  3.39646E+03 -2.12034E+03  7.92155E+03  1.56269E+03 -1.77888E+02  2.97359E+03  6.08136E+03  1.50005E+03
  1.94944E+03  3.34582E+03  4.12141E+03  7.39323E+03 -1.90968E+03  3.64802E+03  2.55740E+03  1.83343E+03
 -1.55079E+03 -3.47494E+03 -5.70320E+02 -2.86454E+03 -2.49898E+02 -2.43868E+02 -7.57516E+03 -4.06025E+01
 -4.15561E+03 -3.69212E+03  3.68769E+03  1.89608E+03 -3.68159E+02 -2.04121E+03  6.22219E+03 -5.35112E+03
  8.27981E+02  1.07743E+03 -2.36434E+03  1.62306E+03 -1.52719E+03  2.51933E+03 -4.50021E+02 -1.25320E+02
