 $NMID ID='MM_0lb_SNR50_20hz_g45_33.RAW', FMTDAT='(8E13.5)'
 TRAMP=1., VOLUME=1. $END
  3.10143E+05  1.95281E+03  3.37089E+05  2.44881E+05  8.46328E+04  3.35146E+05 -1.33357E+05  2.50641E+05
 -1.90122E+05  8.14394E+04 -1.11337E+05 -3.35121E+04  1.37346E+03 -4.87113E+04  5.66291E+04  4.88918E+02
  3.89861E+04  5.38879E+04 -2.16859E+04  7.04924E+04 -6.18233E+04  5.89733E+04 -8.09034E+04  3.17900E+04
 -8.18758E+04 -1.11926E+04 -5.29943E+04 -4.84740E+04 -1.27210E+04 -6.88341E+04  2.48836E+04 -4.64105E+04
  3.57945E+04  3.41684E+03  1.71311E+04  4.76897E+04 -3.39720E+04  4.70185E+04 -6.48159E+04  9.53954E+02
 -5.07872E+04 -5.69069E+04 -4.37883E+03 -7.32490E+04  3.16413E+04 -4.79186E+04  4.41551E+04 -1.83403E+04
  4.33274E+04  9.60143E+03  2.60893E+04  2.60466E+04  1.34163E+04  2.90941E+04 -4.69191E+03  2.67297E+04
 -1.49714E+04  1.06272E+04 -2.30357E+04 -6.25376E+03  5.46935E+03 -5.38568E+03  2.39536E+04  8.98231E+03
  6.61753E+03  3.06932E+04 -3.12266E+04  3.25858E+04 -6.20422E+04  1.96814E+03 -5.64830E+04 -3.85833E+04
 -1.44968E+04 -5.73103E+04  3.69886E+04 -3.97233E+04  5.40822E+04 -5.19003E+03  2.90677E+04  2.62225E+04
 -7.94490E+03  2.99043E+04 -2.66026E+04  1.19245E+04 -2.60521E+04 -6.80937E+03 -1.72220E+04 -7.48486E+03
 -5.51558E+03 -1.44406E+04 -1.65876E+03 -1.36213E+04  6.30892E+03 -2.09647E+04  1.44450E+04 -1.85510E+04
  1.31763E+04  2.39234E+03 -4.18159E+03  1.21062E+04 -1.82543E+04 -2.18327E+01 -8.34933E+03 -3.03119E+04
  1.95836E+04 -4.16510E+04  4.32280E+04 -1.87368E+04  3.93110E+04  2.20148E+04  1.49742E+04  4.16506E+04
 -1.75835E+04  2.96149E+04 -1.88800E+04  1.57034E+01 -5.44086E+03 -2.93481E+04  1.83620E+04 -2.81697E+04
  3.66256E+04 -4.50138E+03  2.61793E+04  1.80110E+04  1.50322E+04  4.15537E+04 -6.98089E+03  4.42349E+04
 -2.71372E+04  2.21712E+04 -3.72612E+04  1.03150E+04 -3.63240E+04 -1.38093E+04 -2.13624E+04 -3.40972E+04
  1.08008E+04 -3.43767E+04  3.18356E+04 -1.06042E+04  2.67570E+04  1.20955E+04  4.96719E+03  1.53171E+04
 -1.16328E+04  6.52737E+03 -1.16494E+04 -5.99355E+03  5.41514E+03 -6.55587E+03  1.87105E+04  7.39295E+03
  1.44027E+04  1.55593E+04 -7.12920E+03  2.93399E+04 -1.73388E+04  1.09674E+04 -2.36151E+04 -2.55406E+03
 -1.78876E+04 -1.53081E+04 -4.67508E+03 -1.40346E+04  2.34340E+03 -1.26505E+04  1.07555E+04 -1.45072E+04
  2.26471E+04 -1.07867E+04  2.80052E+04 -2.94773E+02  1.65951E+04  1.57186E+04  1.38841E+03  2.65112E+04
 -1.58915E+04  2.46291E+04 -2.37705E+04  1.34394E+04 -1.94959E+04 -9.92661E+03 -3.83396E+03 -1.69870E+04
  4.27064E+02 -5.89678E+03  2.42028E+03  9.46619E+03 -1.04420E+04  7.60725E+03 -1.26178E+04 -3.15601E+03
 -4.99008E+03 -1.92759E+04  1.36147E+03 -1.85530E+04  1.31301E+04 -1.60268E+04  1.45368E+04 -3.97211E+03
  6.92343E+03  7.04604E+03 -1.22805E+03  1.42616E+04 -1.07595E+04  8.31021E+03 -1.36963E+04 -3.98553E+03
 -1.18026E+04 -1.11970E+04  1.21532E+03 -1.88740E+04  5.41236E+03 -1.24805E+04  1.36806E+04 -6.57757E+03
  1.42491E+04 -5.93234E+02  6.84401E+03  4.57716E+03  4.00396E+03  1.50568E+03  5.13404E+03  4.70315E+02
  1.11123E+04 -3.19280E+03  9.92923E+03  1.05759E+04  6.62832E+03  2.40598E+04 -6.59965E+03  2.63808E+04
 -1.33286E+04  2.01562E+04 -2.04762E+04  1.19334E+04 -2.19869E+04 -4.44958E+03 -1.97425E+04 -8.83722E+03
 -4.94031E+03 -1.88485E+04  4.75540E+03 -1.89209E+04  1.38790E+04 -1.20441E+04  1.75214E+04  4.49388E+03
  4.89742E+03  1.04654E+04 -2.69390E+03  4.45430E+03 -1.41600E+04  6.04815E+02 -9.70548E+03 -4.96096E+03
 -1.01675E+03 -1.27433E+04  3.12838E+03 -7.10125E+03  5.42518E+03 -2.10669E+03  3.60687E+03  4.31544E+03
 -4.68016E+03  1.35021E+03 -3.89029E+03 -5.73531E+03  2.75163E+03 -9.04010E+03  5.40991E+03 -9.59398E+03
  1.11673E+04 -2.56250E+03  8.60164E+03  3.80494E+03  1.03212E+04  5.87891E+03  2.24963E+03  1.19103E+04
  1.89963E+02  1.59648E+04 -6.36357E+03  1.05274E+04 -1.01676E+04  1.99116E+03 -3.24537E+03  1.11645E+03
 -5.83510E+03 -6.93579E+03 -2.25422E+03  1.63213E+03 -5.21444E+03  6.30304E+03 -7.61873E+03  4.93144E+03
 -8.22425E+03 -6.11249E+02 -7.19210E+03 -6.46858E+03 -1.79578E+03 -1.14693E+04  4.60653E+03 -5.57474E+03
  8.18506E+03 -5.04312E+03  6.02696E+03  6.87230E+01 -2.98814E+03  1.30375E+03 -3.87537E+03 -2.97048E+03
 -5.00799E+03 -1.30850E+03 -1.76554E+03 -5.12346E+03  2.37533E+03 -8.77891E+03  6.58919E+03 -3.21281E+03
  1.16365E+04 -1.85844E+03  8.29027E+03  5.53628E+03 -3.24223E+03  6.96799E+03 -1.06293E+04  4.07610E+03
 -1.00492E+04  3.47287E+03 -3.41412E+03  3.93620E+03 -3.19006E+03 -1.76867E+03  3.63098E+03 -1.56019E+03
  7.37786E+03  2.50988E+03 -1.31702E+02  6.08655E+03 -6.43348E+02  1.02086E+04 -7.41489E+03  3.18077E+03
 -5.66078E+03 -7.37910E+03 -4.82633E+02 -7.11008E+03  4.23758E+03 -1.68668E+03  3.36781E+03  1.71525E+03
 -3.76304E+03  4.81110E+03 -5.15844E+03  2.05632E+03 -6.78578E+03 -6.30912E+01 -3.44230E+03  4.62315E+03
 -2.74268E+03 -4.57319E+03  3.16139E+03 -8.04086E+03  3.43061E+03 -3.89036E+03  5.26933E+03  1.62697E+03
  6.79532E+03  1.04085E+03  2.90447E+03  9.73661E+03 -4.15117E+03  4.63592E+03 -6.76623E+03 -3.15800E+03
 -7.15615E+03 -6.27485E+02 -1.16125E+03 -6.48271E+03  1.83584E+03 -1.04520E+03  1.71382E+03 -1.27946E+03
  4.56782E+03 -3.87858E+03  3.12143E+02  1.32155E+03  1.25532E+03 -2.45501E+03  6.94411E+02 -4.99277E+03
  4.33779E+03  4.88902E+02  5.13899E+03  3.77316E+03  5.22512E+03  8.19347E+02  4.94691E+03  5.20182E+03
 -7.11531E+02  6.10559E+03 -6.79197E+03  6.20763E+03 -3.88342E+03 -2.03796E+03 -8.22208E+03 -5.90135E+03
 -9.12783E+02 -2.56471E+03 -6.45894E+02 -1.73996E+03  1.27621E+03 -8.10515E+02  1.34329E+03 -3.06692E+03
  2.16812E+03 -4.37836E+03  4.43018E+03 -2.37682E+03  1.61424E+03  3.04850E+03  2.09920E+03  7.22859E+02
  1.45690E+03 -8.11344E+02  4.59254E+03  3.45959E+03 -1.47515E+03  3.59425E+03 -4.70140E+02 -8.68320E+02
 -5.89373E+03  1.60694E+03  1.50186E+03 -7.48678E+03 -1.79622E+03 -4.28355E+03  3.40679E+03 -3.67588E+03
  4.82923E+03 -1.52059E+03  4.04438E+03  2.32461E+03  6.19922E+03  2.80326E+03  1.98969E+03  1.02146E+03
  2.11545E+03  7.83374E+03  1.89004E+03  1.05526E+03 -3.44270E+02  2.64604E+03 -8.58021E+02  3.36673E+02
  1.85662E+02 -2.97331E+02  1.46089E+03  2.33930E+03 -2.38633E+03  3.47078E+02 -4.23742E+03 -6.81581E+02
 -2.24040E+03 -4.97756E+03 -1.64538E+03 -3.39274E+03 -1.66818E+02 -2.76038E+03  3.21505E+03  1.32522E+03
  6.36055E+03  2.40771E+03  2.37946E+03 -5.90493E+02 -1.97555E+02 -1.14783E+03 -1.25172E+02  2.48494E+03
 -7.86869E+03 -1.45120E+03 -5.08159E+03 -2.05640E+03  2.11634E+03 -4.66135E+03 -1.65919E+03 -5.85673E+03
  7.32821E+03 -1.55264E+03  2.47537E+02 -2.07556E+02  3.82975E+03  1.28349E+02 -2.51356E+03 -1.26348E+03
  6.57297E+03  3.10143E+03  3.14410E+03 -6.85206E+02  4.09458E+02  1.11399E+03 -1.06344E+03 -2.41673E+03
 -1.30115E+01  3.65794E+03 -3.19228E+03  4.10534E+03 -5.29708E+03  2.10750E+03 -3.35432E+03 -2.72350E+03
 -2.43723E+03 -2.66871E+03 -4.68884E+02 -5.94918E+03  1.88691E+03 -2.45080E+03  4.96249E+03 -3.35523E+03
  4.64353E+03 -1.24356E+03 -1.21772E+03  2.44425E+03 -3.97320E+02  2.66483E+02 -2.24312E+03 -6.36665E+02
  9.18780E+02  8.94163E+02  4.91720E+02  1.10005E+03  2.62738E+03  5.56426E+03  2.43199E+03 -7.77221E+02
  1.29690E+02 -2.59328E+03  4.54771E+02 -2.51822E+03 -1.33755E+03 -1.28083E+03 -2.60208E+02  1.21210E+03
  4.95630E+03  5.28943E+02  5.45700E+03 -1.53894E+03  2.74613E+03  3.62386E+03 -8.81075E+02  3.67330E+03
 -4.22729E+03  4.01554E+03 -1.99552E+03 -1.10290E+02 -2.62970E+03 -3.20115E+03 -5.89435E+01  2.26850E+01
 -1.45372E+03 -1.06511E+03  4.87613E+02 -2.44661E+03  9.84757E+02  2.03520E+03  7.60539E+02  4.61512E+03
 -3.73060E+03 -3.14494E+03  1.93733E+02  5.87411E+03 -1.78942E+03 -2.12594E+03 -1.71805E+03 -3.50538E+02
 -8.35829E+02  1.12455E+03  2.44355E+03  1.46019E+03 -1.93785E+03  1.31629E+03  6.34462E+02  3.81048E+02
 -3.65459E+03 -3.90362E+03 -4.42524E+03 -1.87733E+03  3.09570E+03  3.16924E+03  3.20262E+03 -2.52239E+03
  2.28855E+03 -8.11117E+02  2.76190E+03 -1.05917E+03  1.78222E+03  2.11762E+03 -4.64542E+02  1.00649E+03
 -3.52480E+02 -2.33405E+03 -3.45615E+03 -2.78405E+02  2.46223E+03 -4.22210E+03 -1.50128E+03 -6.09654E+02
  2.80128E+02  4.54448E+03 -3.78411E+02  1.64272E+03 -9.58318E+02  1.24493E+03  2.92269E+03  5.86770E+01
 -2.97041E+03  1.18076E+03 -1.65818E+03  4.16676E+03  8.36392E+02 -1.03834E+03 -2.77063E+03 -3.57873E+03
  4.19925E+03  5.71904E+01 -2.11708E+03  2.72233E+01 -3.58068E+03 -5.92827E+02  2.69706E+03  1.21857E+02
  4.23354E+03 -1.56365E+03 -1.05021E+03  5.60545E+02  2.57284E+03 -1.84302E+02  4.08243E+03 -3.58023E+03
  2.00177E+03 -1.83593E+03 -3.20412E+02 -1.63745E+03 -1.30307E+03  2.37295E+03  1.08724E+02 -1.25709E+03
  1.68217E+03 -8.07104E+02  3.01939E+03 -5.27668E+02 -2.40071E+03 -3.18024E+02 -2.48383E+03  2.07988E+02
 -2.24014E+03 -2.63321E+02  1.49162E+03  2.41114E+03 -2.72484E+03  1.57933E+02  2.78156E+03  6.42957E+02
  4.57368E+03  2.37187E+03 -4.79033E+03 -3.28886E+01  1.71297E+03  1.31885E+03  1.41950E+03 -1.63486E+02
 -9.16554E+02  1.35782E+03  6.55404E+02 -2.01491E+03 -1.65376E+02 -2.59795E+03 -4.29385E+03 -2.15235E+03
 -5.07715E+03 -4.87152E+03  5.87907E+02 -1.98233E+03 -4.84199E+03  1.49862E+03  1.20489E+03  1.83599E+02
 -8.74660E+02 -2.81193E+03 -1.76057E+03 -4.24582E+02  2.26625E+03  3.07895E+03 -3.19841E+03 -1.40707E+03
  3.76891E+03  2.09067E+02  2.22270E+03  4.01530E+03 -6.04776E+02 -2.49644E+03 -4.83217E+02  9.64457E+02
 -2.18494E+03 -2.61108E+03 -9.67792E+02 -4.88778E+02  1.43441E+03  9.63399E+02  1.94602E+03 -4.74363E+03
 -2.02823E+03 -6.98387E+02  9.30477E+02  1.88827E+03  1.06993E+03 -3.34710E+03  1.31367E+03  1.04074E+03
  2.68886E+03  1.49055E+03  2.09998E+03 -3.93354E+02 -3.35814E+02 -2.98419E+02 -2.29206E+03 -1.37016E+03
  1.24181E+01 -1.85632E+03  8.85137E+02  2.08867E+03  4.58778E+03  1.91406E+03  2.36662E+02  5.59474E+02
 -2.69702E+03 -1.70347E+03  2.39427E+03 -4.65950E+03 -3.81724E+03  1.38829E+03  1.38924E+03 -1.34392E+03
  4.63296E+03  3.36306E+03 -4.12203E+03  1.15248E+03  2.93581E+03  2.02190E+03  8.76409E+02  5.67082E+03
