 $NMID ID='MM_0lb_SNR50_20hz_g60_83.RAW', FMTDAT='(8E13.5)'
 TRAMP=1., VOLUME=1. $END
  3.07868E+05 -6.36958E+02  3.34409E+05  2.49691E+05  8.57869E+04  3.36637E+05 -1.29165E+05  2.55015E+05
 -1.90484E+05  8.03686E+04 -1.13122E+05 -3.50820E+04  4.23459E+03 -4.64616E+04  5.16559E+04 -3.73941E+03
  3.22071E+04  5.45101E+04 -1.73516E+04  7.72620E+04 -6.18455E+04  5.90101E+04 -8.42899E+04  3.09730E+04
 -8.30171E+04 -1.03075E+04 -5.62251E+04 -4.60585E+04 -1.22427E+04 -7.04870E+04  2.84515E+04 -4.75852E+04
  4.25574E+04  2.93473E+03  1.53075E+04  4.72187E+04 -3.67077E+04  4.81273E+04 -6.18112E+04 -8.20914E+02
 -5.40020E+04 -5.77618E+04 -6.58413E+03 -7.65456E+04  3.57689E+04 -5.64231E+04  4.26087E+04 -1.80279E+04
  4.44998E+04  1.08193E+04  2.90868E+04  2.70974E+04  1.77146E+04  2.75322E+04 -3.88256E+03  2.99082E+04
 -1.77599E+04  1.30757E+04 -2.22346E+04 -4.97569E+03  2.59778E+03 -4.42501E+03  1.68577E+04  1.51694E+04
  6.09417E+03  3.33067E+04 -3.08066E+04  3.41955E+04 -6.28155E+04  1.91272E+03 -5.32106E+04 -4.26474E+04
 -1.04106E+04 -5.66666E+04  3.82824E+04 -4.61693E+04  5.68739E+04 -4.24666E+03  3.54020E+04  2.80961E+04
 -6.08865E+03  3.05378E+04 -3.29313E+04  1.31937E+04 -2.74041E+04 -6.69622E+03 -1.06280E+04 -1.25492E+04
 -8.87068E+03 -1.37611E+04 -2.66378E+03 -1.68204E+04  6.19891E+03 -2.50544E+04  1.51185E+04 -1.35754E+04
  1.83609E+04  2.79963E+03 -7.05996E+03  9.17965E+03 -1.89175E+04 -4.26025E+03 -1.15054E+04 -2.64302E+04
  1.90233E+04 -4.13998E+04  4.67294E+04 -1.78155E+04  4.54424E+04  1.93528E+04  1.85744E+04  4.21908E+04
 -1.71668E+04  3.20843E+04 -2.31275E+04 -1.26221E+03 -6.66711E+03 -2.97644E+04  1.94609E+04 -3.28431E+04
  3.76245E+04 -8.07979E+03  3.43708E+04  2.43594E+04  1.58433E+04  3.85113E+04 -9.11993E+03  4.85666E+04
 -2.95593E+04  3.01488E+04 -4.29994E+04  8.48164E+03 -3.41550E+04 -1.48823E+04 -2.32490E+04 -3.59084E+04
  7.88465E+03 -3.46659E+04  3.19551E+04 -1.36824E+04  2.72990E+04  6.91485E+03  5.68960E+03  1.74354E+04
 -1.44666E+04  1.07016E+04 -9.85258E+03 -7.11494E+03  2.78293E+03 -6.40972E+03  1.99372E+04  4.52766E+03
  1.51637E+04  2.12117E+04 -6.13420E+03  2.61357E+04 -2.41797E+04  1.37342E+04 -2.60984E+04 -7.04360E+03
 -1.88884E+04 -1.70797E+04 -8.27152E+03 -1.89139E+04  6.15697E+03 -1.41819E+04  1.60771E+04 -1.67164E+04
  2.41991E+04 -1.42625E+04  2.62874E+04 -1.05701E+03  1.98528E+04  2.15079E+04  6.15274E+03  3.25356E+04
 -2.59671E+04  2.85948E+04 -2.82735E+04  1.23986E+04 -2.26731E+04 -1.25064E+04 -2.54271E+03 -1.28345E+04
  1.73943E+03 -3.23598E+02 -2.86646E+03  1.09932E+04 -1.03700E+04  7.29400E+03 -1.32963E+04 -8.68100E+03
 -1.28854E+04 -1.16452E+04  7.79511E+03 -1.82362E+04  1.05740E+04 -1.24699E+04  1.33705E+04  4.62869E+02
  1.25383E+04  8.99314E+03 -4.80463E+03  1.35603E+04 -1.01300E+04  9.52550E+03 -1.67446E+04 -1.68173E+03
 -8.99461E+03 -2.03304E+04 -6.38803E+03 -1.94049E+04  9.55940E+03 -1.37296E+04  1.35848E+04 -5.76988E+03
  1.46690E+04  8.86789E+02  1.04677E+04  6.65363E+03  2.54621E+03 -1.17307E+01  1.23120E+04 -4.24907E+03
  1.37888E+04 -1.47695E+03  1.07153E+04  1.09488E+04  6.70314E+03  2.76890E+04 -5.53638E+03  2.83156E+04
 -1.87637E+04  2.25947E+04 -2.33011E+04  9.35556E+03 -2.92431E+04 -6.80632E+02 -2.34682E+04 -1.43240E+04
 -1.02245E+04 -2.57378E+04  9.56523E+03 -1.96953E+04  1.50087E+04 -1.08745E+04  1.21479E+04  7.99351E+02
  3.10637E+03  1.44342E+04 -5.33091E+03  1.28692E+04 -1.03051E+04 -2.42266E+03 -1.20136E+04 -5.33841E+03
 -4.17462E+02 -9.66205E+03 -5.09355E+02 -9.71829E+03  9.14799E+03 -1.65226E+03  4.22110E+03  1.72378E+03
 -5.72040E+03  3.16901E+03 -2.22476E+03 -9.65448E+03  2.17778E+03 -1.19302E+04  1.02316E+04 -8.71357E+03
  9.78094E+03 -4.69522E+03  1.29741E+04  3.29459E+03  1.08503E+04  1.22294E+04  2.58638E+03  1.60110E+04
 -1.89870E+03  1.34229E+04 -6.81831E+03  1.44867E+04 -1.00559E+04  4.61225E+03 -9.28945E+03 -6.67703E+02
 -3.31663E+03 -1.61940E+03  1.20989E+03  5.48173E+03 -3.40526E+03  4.71962E+02 -4.70043E+03  7.81255E+03
 -7.73720E+03 -1.58550E+03 -9.64922E+03 -2.74541E+03 -6.81090E+03 -1.47265E+04  8.92003E+03 -9.37352E+03
  1.07283E+04 -5.92618E+03  4.87073E+03  4.04159E+03 -6.41005E+02 -4.57348E+02 -4.43875E+03 -1.24321E+03
 -4.15713E+03 -6.05708E+03 -4.34608E+03 -1.02305E+04  1.03126E+02 -4.29142E+03  6.54945E+03 -1.79977E+03
  1.66560E+04 -5.86376E+02  9.97066E+03  6.07255E+03  3.00956E+03  7.61429E+03 -5.27873E+03  6.08785E+03
 -6.87817E+03  2.85095E+03 -5.31190E+03 -3.30044E+03 -2.72396E+03 -8.49542E+02  4.40000E+03  2.16082E+02
  2.93789E+03  3.93815E+03  2.40886E+03  4.66776E+03 -1.16678E+03  3.35759E+03 -7.85928E+03  3.13922E+03
 -3.73942E+03 -2.49633E+03  3.58368E+03 -4.22118E+03 -9.52157E+02 -1.51979E+03  7.46892E+02  2.54518E+03
 -2.08679E+03  7.06303E+03 -2.48733E+03  3.33943E+03 -7.43634E+03  1.87790E+03 -1.89070E+03 -4.05240E+03
 -4.90433E+03 -8.12961E+03 -3.44747E+03 -5.98022E+03  5.00733E+03 -3.72546E+03  6.30487E+03  5.48266E+02
  4.97733E+03  5.73020E+03  6.77754E+02  5.37522E+03 -6.99412E+03  6.04917E+03 -8.16040E+03 -2.91901E+02
 -5.56601E+03 -7.23588E+03 -1.73884E+03 -3.01558E+03  2.74949E+01 -4.91329E+03  5.10893E+03 -1.76033E+03
  1.57258E+03  3.79745E+03  4.10405E+03 -2.09284E+03 -8.24772E+01  2.91586E+03  4.78070E+03 -4.49648E+03
  1.76244E+03  5.81873E+02  3.75721E+02  1.57138E+03  5.18454E+03  1.43867E+03  4.76540E+03  1.01151E+04
 -2.08394E+03  1.54177E+03 -6.32378E+03  8.30198E+03 -1.20476E+04  6.68934E+02 -1.75047E+03 -5.92434E+03
 -3.87100E+03 -4.97207E+03  6.02102E+01 -2.88729E+03  1.78055E+03 -3.95879E+03  5.84826E+03 -2.96372E+03
 -2.46485E+03  3.31027E+02  3.03925E+03 -1.94192E+03  1.85346E+02 -9.07779E+02  3.67235E+03  7.10368E+02
  1.66277E+03  1.49328E+03 -2.48844E+03  4.13487E+03 -8.47564E+02  4.67123E+03 -3.76755E+03  4.34549E+03
 -3.87259E+03  6.88409E+02 -1.78350E+03 -2.90863E+03 -8.66459E+02 -4.38801E+03  8.10302E+02 -3.31883E+03
  3.47941E+03 -1.35266E+03  3.65303E+03  1.80682E+03  5.81033E+03  5.27617E+03 -3.25157E+03  4.10459E+03
 -3.63160E+03  6.89796E+03 -2.23144E+03  3.06280E+03 -1.58650E+02  7.25715E+02 -1.30060E+03 -3.05331E+03
  1.32212E+03  1.86708E+03  2.50459E+03  8.76215E+02 -1.73229E+03 -6.66630E+01  5.46127E+02 -1.57288E+03
 -2.80352E+03 -1.18101E+03  2.82213E+03 -1.28843E+03  5.12977E+02 -5.59990E+03  3.38262E+03 -2.24010E+03
  4.58129E+03  2.16335E+03  2.95773E+03  1.12474E+02 -1.02433E+03  3.54680E+03 -4.85975E+03  2.34243E+03
 -3.71036E+03 -4.07621E+03 -4.59790E+03 -3.25317E+03 -1.57445E+03 -4.70320E+03  8.31431E+02 -1.79215E+03
  4.18762E+03 -5.27856E+03 -2.05445E+03  1.60527E+02 -2.20194E+03  9.93100E+02 -2.19356E+03  1.21704E+02
  2.74139E+03 -2.96606E+03  3.99059E+02  1.89863E+03 -3.99253E+03 -1.04047E+03  3.43310E+03  3.77272E+03
 -3.70608E+03 -2.92322E+03  2.62743E+03  3.59112E+03  4.58129E+02  1.54652E+03 -2.69932E+03  2.70260E+03
 -2.12264E+03 -2.92270E+03 -1.11584E+03 -6.99959E+03 -1.43352E+03 -4.39089E+02  2.49689E+03 -1.40769E+02
  5.68092E+03  1.75583E+03  2.70466E+03  2.46326E+03 -7.11684E+03 -6.30141E+02  6.33416E+02 -6.50655E+03
 -1.00621E+03 -3.72698E+03  2.50062E+03 -1.34738E+03  2.38676E+03  2.36826E+03 -1.49338E+03  5.77297E+02
  7.58383E+02  1.03383E+02  2.46795E+03  1.97752E+03 -6.43825E+02 -4.56199E+03  1.92346E+03 -3.20348E+03
 -2.39434E+03 -3.71217E+02  1.28942E+03 -9.64053E+02  2.21605E+03  1.28923E+03 -1.19115E+03 -2.41511E+02
 -1.44949E+03 -5.19379E+02  2.17465E+02  7.92638E-01 -4.31483E+03 -3.33823E+03  8.74605E+02 -2.42691E+03
 -4.49028E+01  1.65462E+03  3.19906E+02 -1.00207E+03  1.50224E+03  1.59384E+03  1.34237E+03  2.41735E+03
 -3.56176E+03 -1.29168E+03  2.50728E+03 -1.32229E+03  1.38562E+02 -1.64006E+03 -1.21863E+03 -1.23853E+03
 -3.87612E+03 -3.06267E+03  2.48849E+03 -1.85522E+03  1.38106E+03 -2.05400E+03  7.34355E+02  3.85707E+03
 -2.61951E+03 -1.01091E+03 -2.51869E+03 -2.28661E+03  5.44644E+03 -6.98701E+01  5.37715E+02  2.17301E+03
  1.28610E+03  9.02614E+01  5.29549E+03  4.19198E+03  2.65892E+03  6.98385E+03  1.30526E+02 -5.90491E+03
  1.18840E+03  2.73245E+02  1.24459E+03  1.63030E+03 -9.69370E+02 -2.01840E+02 -4.29981E+03  3.09676E+03
  1.14528E+03 -2.61291E+03  1.47908E+03  1.28790E+03  1.95806E+03 -4.84875E+02  1.50016E+03  6.29544E+03
  9.83287E+02  3.24779E+03 -1.02698E+03  3.27525E+03 -1.13517E+03 -7.62076E+02  1.77497E+03  2.84393E+03
 -1.89428E+02 -1.01099E+02 -2.60764E+03 -1.98384E+03 -3.93627E+02 -1.88630E+03 -9.17755E+00 -2.19478E+03
  4.46089E+03 -6.10978E+03 -6.54204E+02 -1.35425E+03  2.94001E+02  9.87217E+02  4.35910E+03  6.81263E+02
 -1.10596E+03 -1.95215E+03  3.49138E+01  2.38955E+03 -4.23403E+03 -1.03245E+02 -5.56742E+02  3.15868E+03
 -3.65942E+02  3.65308E+03  1.11852E+03 -1.85069E+03 -1.67457E+03  3.57071E+03 -4.18589E+03 -7.01997E+01
  2.80015E+03  1.36965E+03 -1.81424E+03  1.29304E+03 -9.63826E+02  8.15087E+02 -2.28259E+02 -1.10075E+03
  1.16989E+03 -1.17758E+03  2.18580E+03 -1.52260E+03 -9.56277E+02 -1.95559E+02 -8.95487E+02 -3.30853E+02
 -4.94413E+03  3.90682E+03  3.33320E+03 -1.25295E+03 -5.44341E+03 -4.19601E+03 -4.49475E+03 -4.80540E+03
  4.45460E+02 -2.98437E+03 -1.77140E+03 -1.32832E+03 -2.16036E+03  9.78767E+02 -3.21540E+02 -2.46908E+03
  1.62167E+03  2.37176E+03 -1.47596E+03  2.58091E+02 -1.15926E+03 -2.88159E+03 -1.49688E+03 -5.42957E+02
  1.67705E+03 -2.64884E+03  2.22676E+03  1.62769E+03  2.38173E+03  2.46811E+03  1.84539E+03  2.09584E+03
 -7.30866E+02  1.91230E+03 -2.67794E+03  2.28822E+03  6.48568E+03 -5.76223E+02  1.83210E+03 -3.47252E+03
  4.82567E+03 -3.62601E+03  1.13784E+03 -1.56185E+03  2.81062E+02  5.32509E+02  3.88861E+03 -2.57374E+01
  2.60082E+03  4.81888E+02 -1.34154E+03 -4.82714E+02 -2.88822E+03 -4.64384E+02  1.58933E+03 -2.97219E+03
 -9.52943E+02  1.24846E+03 -1.07995E+02  4.06679E+03 -2.19008E+03  4.16332E+02 -2.88140E+03 -1.36624E+03
 -6.88378E+01 -4.76707E+02  1.63840E+03  5.92955E+02 -1.94389E+02 -2.99478E+03  1.58419E+03  1.27221E+03
 -9.54977E+02  1.05569E+03 -1.55872E+02 -4.30290E+03 -1.21835E+03  4.15840E+02 -4.82932E+02  4.47375E+02
