 $NMID ID='MM_0lb_SNR50_8hz_g40_18.RAW', FMTDAT='(8E13.5)'
 TRAMP=1., VOLUME=1. $END
  3.11068E+05  5.15346E+02  3.38703E+05  2.45013E+05  9.47056E+04  3.41282E+05 -1.28333E+05  2.55342E+05
 -1.88563E+05  8.44778E+04 -1.13534E+05 -3.05814E+04  5.72638E+03 -5.45461E+04  5.65008E+04 -4.31723E+03
  3.52155E+04  4.35917E+04 -1.07932E+04  7.29379E+04 -6.51971E+04  6.08692E+04 -8.49339E+04  2.99515E+04
 -7.81149E+04 -8.52535E+03 -4.39511E+04 -5.43434E+04 -2.06170E+04 -7.87136E+04  2.82825E+04 -4.64350E+04
  3.61304E+04  3.96906E+03  1.54214E+04  4.49964E+04 -3.75574E+04  5.00294E+04 -7.08104E+04  1.61008E+03
 -5.49468E+04 -5.63287E+04 -7.42083E+03 -7.75087E+04  3.46919E+04 -5.78949E+04  4.81926E+04 -2.01630E+04
  4.34273E+04  1.14512E+04  3.04686E+04  2.70956E+04  1.45162E+04  2.98130E+04 -6.69843E+03  3.59811E+04
 -2.29058E+04  1.35322E+04 -1.70144E+04 -6.89889E+03 -6.89720E+02 -7.83596E+03  2.19405E+04  1.29281E+04
  1.17491E+04  3.29141E+04 -4.23771E+04  3.94616E+04 -6.79075E+04  5.00662E+03 -5.72167E+04 -4.59663E+04
 -1.20340E+04 -6.90607E+04  4.19237E+04 -4.56166E+04  5.88668E+04 -2.12141E+02  3.72849E+04  3.84287E+04
 -2.58031E+03  4.32066E+04 -3.25894E+04  1.67460E+04 -3.07796E+04  2.06632E+03 -1.49336E+04 -7.55976E+03
 -2.52202E+03 -1.98738E+04  9.28190E+03 -2.42583E+04  9.18368E+03 -2.07379E+04  1.75719E+04 -1.70182E+04
  1.16915E+04  3.64144E+03 -1.02315E+04  9.23031E+03 -2.54821E+04 -1.03991E+04 -1.29421E+04 -3.91347E+04
  2.13800E+04 -4.62633E+04  5.50829E+04 -2.37696E+04  4.98839E+04  1.87933E+04  2.16787E+04  5.14340E+04
 -1.61743E+04  4.19037E+04 -2.38639E+04  3.49010E+03 -1.47901E+04 -2.69440E+04  1.72449E+04 -4.13768E+04
  4.41513E+04 -1.09178E+04  4.39335E+04  2.73410E+04  2.13926E+04  4.77988E+04 -9.42281E+03  5.89230E+04
 -3.62436E+04  3.77260E+04 -4.26093E+04  1.34873E+04 -4.58901E+04 -1.60660E+04 -2.57462E+04 -4.42980E+04
  1.33500E+04 -4.70453E+04  3.25401E+04 -1.87059E+04  2.76260E+04  9.77474E+03  1.21632E+04  2.34193E+04
 -2.03084E+04  5.98083E+03 -1.97054E+04 -9.08100E+03  2.09650E+03 -1.04498E+04  1.85638E+04  7.47135E+03
  2.00610E+04  2.83472E+04 -1.36509E+03  2.07247E+04 -2.19807E+04  1.53846E+04 -3.23127E+04 -4.67943E+03
 -2.96353E+04 -2.18221E+04 -1.64988E+04 -2.76911E+04  3.30158E+03 -3.10918E+04  2.09543E+04 -1.94089E+04
  3.49528E+04 -9.53426E+03  3.33506E+04  3.51479E+03  2.96711E+04  2.24646E+04  4.35113E+03  3.75938E+04
 -2.06336E+04  3.21855E+04 -2.51342E+04  1.28446E+04 -2.42653E+04 -1.49423E+04 -7.11698E+03 -1.05808E+04
  3.91763E+03 -3.95065E+03 -8.37010E+03  1.34197E+04 -2.05778E+04  9.21015E+03 -1.98834E+04 -1.00494E+04
 -6.89949E+03 -2.39821E+04  1.03362E+04 -3.31592E+04  2.09492E+04 -1.63341E+04  2.09323E+04  5.72110E+03
  1.37727E+04  1.31266E+04 -6.92544E+02  2.31512E+04 -2.11703E+04  8.89191E+03 -2.15442E+04 -6.37920E+03
 -1.88349E+04 -1.69737E+04  5.35844E+03 -2.80124E+04  1.95814E+04 -1.85834E+04  2.07498E+04 -1.15587E+04
  2.53564E+04 -1.84104E+03  1.80387E+04  3.32065E+03  1.20561E+04 -5.86775E+03  1.26776E+04 -6.43488E+03
  2.42195E+04  7.85531E+03  3.39507E+04  1.77834E+04  1.92924E+04  3.68374E+04 -4.88110E+03  4.86830E+04
 -2.71076E+04  3.32144E+04 -4.41829E+04  1.46339E+04 -4.86192E+04  6.10416E+02 -3.71109E+04 -3.29680E+04
 -2.30172E+04 -3.33525E+04  1.49613E+04 -3.48221E+04  2.49476E+04 -2.01302E+04  2.10045E+04  8.41839E+03
  4.25967E+03  2.33303E+04 -1.06694E+04  1.71058E+04 -2.21840E+04  1.14123E+03 -1.74567E+04 -1.19759E+04
 -1.60400E+03 -1.15308E+04  1.08257E+04 -7.23271E+03  1.50652E+04 -2.27407E+03  3.59939E+03  7.86606E+03
 -1.11099E+04  1.04183E+03 -1.37969E+04 -9.56630E+03 -6.88605E+03 -1.67362E+04  1.12381E+04 -1.82612E+04
  1.50013E+04 -1.00429E+04  2.48626E+04  1.87382E+03  2.65779E+04  1.83853E+04  1.06192E+04  3.40291E+04
 -5.64032E+02  3.00233E+04 -2.22383E+04  1.86850E+04 -1.66499E+04  5.01179E+03 -2.41002E+04 -7.69759E+03
 -4.92129E+03 -4.74253E+03  6.76708E+03  1.82564E+02 -2.69453E+03  1.08860E+04 -5.00909E+03  8.89491E+03
 -1.75868E+04  3.70176E+03 -1.19846E+04 -1.61312E+04 -8.66772E+03 -2.05606E+04  1.51465E+03 -1.37116E+04
  1.23344E+04 -1.09477E+04  8.58609E+03  2.11730E+03  3.39255E+03  6.40572E+03 -6.80194E+03 -6.12285E+03
 -8.40857E+03 -1.07990E+04  2.63569E+03 -1.74973E+04  5.57601E+03 -1.45742E+04  1.94138E+04 -1.71214E+03
  2.42197E+04  2.00130E+03  1.08626E+04  1.42443E+04  5.08579E+03  1.52228E+04 -1.23691E+04  2.39862E+04
 -8.41309E+03  8.60425E+03 -7.13229E+03 -8.35827E+03  6.10455E+03 -4.38516E+03  8.06099E+03 -4.19869E+00
  7.46738E+03  1.83240E+03  1.86158E+03  2.24020E+04 -1.05300E+04  1.18499E+04 -2.08440E+04 -3.83424E+02
 -7.29997E+03 -4.32950E+03  6.18510E+03 -9.85523E+03  1.05633E+04 -1.40462E+04  1.33713E+04  1.29697E+03
  4.22474E+03  1.19492E+04 -8.93509E+03  1.02184E+04 -1.24560E+04 -4.76106E+03 -1.11676E+04 -7.17010E+03
 -7.49433E+03 -1.74843E+04  5.88301E+03 -1.96094E+04  1.75551E+04 -7.01452E+03  2.24442E+04  2.07814E+03
  8.33196E+03  1.64991E+04 -3.37030E+03  1.38667E+04 -8.58554E+03  1.17728E+04 -1.68288E+04 -1.47488E+02
 -1.47006E+04 -9.11446E+03  4.92264E+03 -1.55870E+04  6.63660E+03 -6.61305E+03  7.80652E+03 -1.11671E+04
 -1.18099E+03 -6.49518E+03  6.84450E+03  2.48661E+03 -1.72275E+03 -5.18200E+03 -7.01172E+02 -8.93541E+03
  1.76410E+04  1.06823E+03  1.00472E+04  3.30844E+03  1.31319E+04  2.01828E+01  8.19161E+03  2.04183E+04
 -1.11187E+04  1.85974E+04 -2.33213E+04  1.67826E+04 -3.13892E+04  7.11693E+03 -1.68905E+04 -3.65611E+03
 -4.57965E+03 -2.27817E+04  1.88682E+02 -2.12307E+04  2.68398E+03 -9.48587E+03  5.38640E+03 -1.57384E+03
  3.02412E+03  5.65058E+02  5.12533E+03 -2.25440E+03  4.68931E+03  1.87312E+03  1.16905E+04  1.28517E+03
  9.50866E+03  7.12041E+03  6.46275E+03  3.19002E+03 -5.36129E+03  9.74210E+03 -1.26571E+04  6.15780E+03
 -8.89498E+03 -1.95753E+03 -1.11693E+04 -1.36967E+04 -3.73969E+03 -1.73540E+04  9.93256E+03 -1.31839E+04
  1.71237E+04 -9.36607E+03  1.72224E+04  2.76510E+03  8.04330E+03  1.98967E+04  5.55737E+03  1.52311E+04
 -1.19737E+04  1.38922E+04 -5.89323E+03  5.82674E+03 -8.12788E+03  3.07164E+03 -6.43081E+03 -4.24892E+03
 -2.75618E+03  8.49945E+02  5.68488E+03  4.93391E+03 -1.37146E+04  6.57313E+03 -1.22664E+04 -2.49734E+03
 -4.21022E+03 -8.22776E+03  1.60056E+03 -1.93825E+04  1.39178E+04 -1.98836E+04  1.63678E+04 -5.25431E+03
  1.24245E+04  8.20893E+03  1.13809E+04  1.99260E+04 -6.25419E+03  1.56629E+04 -1.05429E+04  1.08011E+04
 -2.10526E+04 -4.17918E+02 -1.20206E+04 -1.74944E+04  4.18825E+00 -1.38430E+04  9.01001E+03 -1.09198E+04
  8.27378E+03 -7.89198E+03  3.74789E+03  3.95681E+03 -2.15475E+03  2.72580E+03 -3.58079E+03  3.55342E+03
  4.39391E+03 -7.91706E+02  9.01614E+03  3.98556E+03  9.28632E+03  3.71086E+03  4.27408E+03  1.01604E+04
  4.45982E+01  9.90141E+03 -1.04572E+04  1.52435E+04 -1.65803E+04  1.30048E+03 -1.53791E+04 -6.06194E+03
 -9.08347E+03 -1.60875E+04  5.96853E+03 -1.57428E+04  4.66571E+03 -1.34181E+04  1.14866E+04 -1.55069E+03
  6.04626E+03  1.51102E+04  1.53636E+03  5.45800E+03 -1.14791E+04  7.65968E+03 -5.42067E+03  2.26599E+03
  2.59694E+03  3.11548E+01  8.76824E+03 -5.62012E+03  1.34154E+04 -5.17343E+03  4.69381E+03  1.97369E+03
  7.00764E+03 -1.83741E+03  9.45936E+03  2.94371E+03 -5.26184E+03  5.24683E+03 -2.04722E+03  4.37897E+03
  3.14061E+03 -3.17867E+03  5.99589E+03  1.94570E+03  1.07314E+04  8.73704E+03 -2.51355E+02  1.61895E+04
 -5.19452E+03  1.36046E+04 -1.29393E+04  2.97680E+03 -9.11205E+03  9.44708E+02 -2.00348E+02 -6.79259E+03
  4.38702E+02 -8.41087E+03  1.54221E+03 -8.65123E+03  1.96472E+03 -1.28963E+03 -2.20389E+03  2.99298E+03
 -6.16356E+03 -1.67174E+02 -7.02824E+03 -4.74145E+03 -5.46581E+03 -6.11421E+03 -2.98805E+02 -8.86798E+03
  1.12471E+04 -1.24561E+04  8.16486E+03 -2.62278E+03  5.28278E+03 -6.15911E+02 -3.69986E+02  5.20544E+03
  1.63906E+03 -6.88097E+02 -1.99547E+03 -3.01448E+03 -3.41745E+02 -9.19136E+03  1.58775E+04 -1.05101E+03
  1.58507E+04  7.22941E+03  1.35202E+04  6.86141E+03  4.51564E+03  1.12201E+04 -1.23913E+04  1.18139E+04
 -4.26813E+03  1.06725E+04 -1.00777E+04 -4.88431E+03 -3.67436E+03 -4.74523E+03 -3.84979E+03 -8.95477E+03
 -4.81569E+02 -4.71456E+03  1.33273E+04 -7.48924E+02  1.45930E+02  9.67132E+03  9.39996E+01  5.84022E+03
  2.00370E+03  5.52381E+02 -4.47090E+03  1.84684E+03  3.50731E+02 -2.03492E+03 -1.67857E+02  1.46564E+01
  4.90368E+03  4.51036E+03 -4.12854E+02  1.80457E+03 -5.39930E+03  6.78121E+03 -1.52656E+04 -9.09805E+03
 -3.67132E+03 -1.92911E+04  1.85838E+03 -1.52584E+04  9.20086E+03 -1.38090E+04  1.60641E+04 -5.94058E+03
  1.47691E+04 -1.10772E+03  7.03027E+03  1.03405E+04  4.05143E+03  8.72842E+03 -6.80154E+03  9.61985E+03
 -1.32386E+04  3.79848E+03 -7.71680E+03 -3.35725E+03 -5.74557E+03  2.27907E+03  1.73062E+03  7.02371E+02
  2.30814E+03 -1.78105E+03 -4.71228E+03  5.23566E+03  7.70380E+03 -5.96743E+03  9.05971E+02 -4.71006E+03
  4.65567E+03 -2.13792E+03  7.11327E+03  1.10024E+03  7.95285E+03  8.18169E+03  7.82182E+03  1.22407E+04
 -1.44099E+04  1.48241E+04 -1.60321E+04  3.03002E+03 -1.52257E+04  6.54325E+02 -5.94950E+03 -1.33856E+04
 -5.46886E+03 -1.18170E+04  5.80778E+03 -9.86117E+03  9.80261E+03 -6.32379E+03 -2.43436E+03 -4.72837E+02
  4.31902E+03  4.33097E+03 -3.71886E+03  6.48019E+03 -4.79835E+03  1.85301E+03  7.79916E+03 -5.12254E+03
  4.34091E+03 -4.60083E+03  5.60164E+03  5.84256E+02  2.06675E+03  1.72142E+03  3.27830E+03  4.78593E+03
 -2.84522E+03  5.75532E+03 -1.52130E+04  4.02792E+03 -4.30034E+03 -6.84968E+03 -5.46969E+03 -1.10064E+04
  1.53238E+03 -1.62808E+04  5.05986E+03  3.55145E+03  1.64458E+04  4.99404E+03  5.01002E+03  8.57790E+02
  1.22734E+03  9.26543E+03  2.17665E+03  1.04168E+04 -2.13271E+03  2.44295E+03 -4.19014E+03 -2.16560E+03
  1.67231E+03 -7.12839E+02 -6.99293E+03  3.94559E+03 -4.03326E+03  1.01569E+03 -6.23954E+03 -7.21160E+03
  1.22022E+03 -2.63631E+03 -2.96534E+03 -9.48050E+03 -8.93785E+03 -8.83830E+03  4.17880E+03 -3.44706E+03
  1.57015E+03 -4.98960E+03  3.49946E+03  8.24298E+03 -3.43551E+03  7.91820E+03 -8.59381E+03  9.94156E+03
