 $NMID ID='MM_0lb_SNR50_10hz_g40_24.RAW', FMTDAT='(8E13.5)'
 TRAMP=1., VOLUME=1. $END
  3.12639E+05 -3.50959E+03  3.38081E+05  2.48212E+05  8.20997E+04  3.35915E+05 -1.35202E+05  2.47905E+05
 -1.92693E+05  8.75860E+04 -1.07157E+05 -3.83062E+04  2.88186E+03 -5.31589E+04  5.11186E+04  1.75902E+03
  3.43937E+04  5.25810E+04 -1.42887E+04  7.79298E+04 -6.21005E+04  6.56188E+04 -8.22256E+04  2.67169E+04
 -7.68570E+04 -1.25030E+04 -5.72054E+04 -4.72774E+04 -1.40336E+04 -7.28698E+04  2.21165E+04 -5.11642E+04
  4.30056E+04  8.89909E+03  1.77486E+04  4.80938E+04 -3.01328E+04  4.96021E+04 -6.69010E+04 -2.99597E+03
 -5.27123E+04 -6.08661E+04 -7.37619E+03 -7.79057E+04  3.46575E+04 -5.71999E+04  4.91222E+04 -1.58297E+04
  4.47284E+04  7.83477E+03  3.28387E+04  2.91590E+04  1.56458E+04  2.59395E+04 -2.32342E+03  2.61568E+04
 -2.97178E+04  1.50965E+04 -1.17631E+04 -6.02800E+02  3.65039E+03 -1.25842E+04  2.45860E+04  1.54099E+04
  2.24007E+03  3.37826E+04 -3.35852E+04  3.45526E+04 -5.82516E+04  2.91464E+03 -6.22491E+04 -4.32972E+04
 -1.58433E+04 -7.31469E+04  3.74337E+04 -5.06122E+04  6.34208E+04 -4.12555E+03  3.17740E+04  3.48337E+04
 -5.14507E+03  3.71775E+04 -3.13143E+04  1.00060E+04 -3.20960E+04 -5.41899E+03 -2.01857E+04 -1.39747E+04
 -4.19791E+03 -1.35154E+04 -3.16073E+03 -2.31472E+04  5.50116E+03 -2.18544E+04  1.92043E+04 -1.56344E+04
  1.02500E+04  6.17614E+03 -9.06617E+03  1.38291E+04 -2.08448E+04 -7.11170E+03 -8.23626E+03 -3.85552E+04
  3.08966E+04 -4.67015E+04  4.52235E+04 -2.24647E+04  5.12640E+04  1.68884E+04  1.93117E+04  4.95265E+04
 -1.10664E+04  3.72514E+04 -2.40809E+04  1.81454E+02 -1.06992E+04 -3.65182E+04  2.16875E+04 -3.38789E+04
  4.17945E+04 -5.77839E+03  3.71877E+04  1.96668E+04  2.07884E+04  5.10638E+04 -9.63820E+03  5.11426E+04
 -2.88325E+04  3.23546E+04 -4.83879E+04  1.34003E+04 -4.28139E+04 -1.77783E+04 -2.64050E+04 -4.16331E+04
  4.56830E+03 -4.13980E+04  2.91770E+04 -1.58095E+04  2.74150E+04  7.46624E+03  9.51869E+03  1.95488E+04
 -1.07300E+04  1.08162E+04 -9.75220E+03 -9.08616E+03  8.19816E+03 -1.19438E+04  2.39955E+04  5.25723E+03
  1.68193E+04  2.37754E+04 -4.47041E+03  2.77112E+04 -1.98588E+04  1.64881E+04 -2.70542E+04 -8.61641E+03
 -1.71285E+04 -1.83494E+04 -1.32128E+04 -2.08181E+04  8.89852E+03 -2.17416E+04  1.90366E+04 -2.60096E+04
  2.68933E+04 -1.51760E+04  3.73935E+04  3.30798E+03  2.39824E+04  2.00629E+04  7.31984E+03  3.84579E+04
 -1.37730E+04  3.56858E+04 -2.37997E+04  1.91568E+04 -1.71808E+04 -2.62367E+03 -8.08541E+03 -9.62898E+03
 -2.77656E+03  1.36114E+03 -6.87794E+02  5.12043E+03 -1.77787E+04  1.13073E+04 -2.22186E+04 -6.88408E+03
 -9.08219E+03 -1.91677E+04  1.96842E+03 -2.37578E+04  1.54559E+04 -2.11494E+04  2.23596E+04  5.54842E+02
  1.23099E+04  1.02884E+04  5.87562E+03  1.76769E+04 -1.61002E+04  1.29163E+04 -2.36900E+04 -7.22804E+03
 -1.47098E+04 -1.20587E+04 -4.24540E+03 -2.34583E+04  9.61546E+03 -1.32021E+04  2.23080E+04 -1.57248E+04
  1.76879E+04  2.33546E+01  1.27157E+04  3.36960E+03  7.43517E+03  4.95331E+03  1.73696E+04 -4.16707E+03
  1.92391E+04  6.45180E+02  2.43945E+04  1.75353E+04  2.09398E+04  3.23771E+04 -5.06109E+03  3.91332E+04
 -2.25067E+04  3.68424E+04 -3.99475E+04  1.80848E+04 -3.75373E+04 -7.29088E+03 -3.77946E+04 -2.60431E+04
 -1.45153E+04 -3.49983E+04  1.26936E+04 -3.03600E+04  2.45719E+04 -1.73969E+04  1.91301E+04  7.02114E+03
  1.13585E+04  1.55406E+04 -5.99810E+03  1.51597E+04 -1.25677E+04  2.79937E+03 -1.36502E+04 -1.46589E+04
 -2.80509E+03 -1.69210E+04  1.04358E+04 -7.16068E+03  1.41031E+04 -1.30861E+03  6.38670E+03  5.00236E+03
 -8.52558E+03  5.88477E+03 -7.50438E+03 -3.22592E+03  1.04978E+03 -1.85110E+04  1.63592E+04 -1.43185E+04
  1.94289E+04 -8.31710E+03  2.00576E+04  2.93281E+03  1.73154E+04  1.57812E+04  1.20812E+04  2.37921E+04
 -7.58148E+03  2.22752E+04 -2.12062E+04  1.27834E+04 -2.11910E+04  3.47294E+03 -1.41644E+04 -6.59899E+02
 -6.34632E+03 -5.81258E+03 -4.10813E+03  6.18887E+01 -3.31173E+03  4.67925E+03 -8.07794E+03  3.81798E+03
 -1.53812E+04  1.68910E+03 -1.30146E+04 -1.15630E+04 -1.54445E+04 -1.68100E+04  1.24339E+03 -1.28910E+04
  1.27285E+04 -2.88702E+03  1.26955E+04  6.43530E+03 -4.88880E+02  3.33850E+03 -9.59968E+03  2.27271E+03
 -1.35026E+04 -9.62321E+03  3.86210E+02 -1.10590E+04  9.62311E+03 -1.44799E+04  1.44226E+04 -9.16349E+03
  2.26682E+04  7.20067E+03  1.75699E+04  1.19077E+04  1.36693E+03  1.48843E+04 -5.07359E+03  9.31009E+03
 -1.41033E+04  6.58293E+03 -7.09140E+03 -5.03802E+03 -1.07151E+01 -1.04509E+04  6.48528E+03 -9.82788E+03
  3.05551E+03  5.79823E+03  5.17087E+03  8.65026E+03 -8.44303E+03  1.22551E+04 -1.36168E+04  2.32248E+03
 -5.66789E+03 -1.01090E+04 -1.68422E+03 -1.63719E+04  2.92394E+03 -7.11201E+03  1.04825E+04  2.67614E+03
 -2.03442E+03  9.20025E+03 -7.71136E+03  1.13951E+04 -1.03237E+04  2.45494E+03 -9.35973E+03 -4.00684E+03
 -8.73643E+03 -1.09098E+04  5.42549E+03 -1.90909E+04  1.56010E+04 -1.63290E+04  1.05078E+04  7.99885E+02
  1.16972E+04  1.19334E+04  2.40637E+03  1.55031E+04 -1.29156E+04  7.30834E+03 -1.21612E+04  3.18446E+01
 -1.06850E+04 -7.94990E+03 -5.27654E+03 -5.89872E+03  7.53517E+03 -1.17018E+04  9.49111E+03 -4.75038E+03
  7.42226E+03 -4.75061E+03 -8.08536E+02 -2.70496E+03  5.53264E+03  5.41689E+03 -3.43827E+03 -1.18477E+04
  1.55191E+04 -7.26695E+02  1.61646E+04 -2.77548E+03  8.16988E+03  1.04565E+04  7.44878E+03  2.08837E+04
 -2.32068E+03  1.83872E+04 -1.27232E+04  1.45346E+04 -2.04239E+04  3.55360E+02 -1.28517E+04 -1.05981E+04
 -7.98593E+03 -1.24681E+04  2.28002E+03 -1.09794E+04  2.89060E+03 -8.03123E+03  6.87832E+03 -9.33983E+03
 -1.02190E+02 -1.30565E+03  7.21207E+03 -4.19818E+03  6.35793E+03  6.56684E+02  1.03326E+04 -4.14880E+03
  1.28733E+04  4.20998E+02  4.21947E+03  2.77271E+03 -3.89921E+03  1.32667E+04 -3.80047E+03  1.05117E+04
 -1.28957E+04 -5.51195E+03 -7.74647E+03 -1.21483E+04 -9.56739E+02 -1.33132E+04  6.95581E+03 -1.05909E+04
  1.19883E+04 -3.39493E+03  1.57829E+04 -1.07365E+03  1.46432E+04  1.28833E+04 -2.49691E+03  2.00034E+04
 -3.91757E+03  1.11798E+04 -1.32612E+04  2.52035E+03 -4.95527E+03  2.37994E+03 -4.26201E+03 -2.15665E+03
 -2.64094E+03 -5.28578E+02 -7.43617E+03  9.29744E+03 -4.93078E+03 -1.44102E+03 -8.92692E+03 -4.13728E+02
 -7.70929E+03 -1.22007E+04 -3.58123E+02 -7.65313E+03  8.44364E+03 -1.64178E+04  1.70976E+04 -5.02667E+03
  9.79156E+03  1.21745E+04  9.42599E+03  1.08620E+04  1.24863E+02  1.18533E+04 -8.13014E+03  2.60272E+03
 -1.40255E+04  5.73150E+03 -1.24835E+04 -1.00099E+03  8.13383E+02 -9.04139E+03  1.15245E+04 -5.35370E+03
  1.12164E+04 -8.51398E+03  5.74072E+03  3.76029E+03 -1.25336E+03  8.33519E+03  1.65889E+02  6.84623E+02
  3.58477E+03  4.14303E+02  7.30748E+02  2.60130E+03  6.32168E+03  6.08449E+03  3.95504E+03  1.03655E+04
  2.15140E+03  1.09615E+04 -6.37608E+03  1.42028E+04 -1.10759E+04  6.40511E+03 -1.04898E+04 -9.75493E+03
 -2.67466E+03 -1.22762E+04 -3.83759E+03 -8.09479E+03  1.23032E+04 -1.21218E+04  1.20373E+04 -6.81118E+03
  6.24308E+03  5.79423E+03  4.92464E+03  9.24124E+03 -1.43044E+03  3.24083E+03 -3.40822E+03 -1.64607E+03
 -1.71123E+03 -1.56416E+03  4.68068E+03 -2.58085E+03  8.61235E+03 -5.65372E+02  3.53871E+03  2.63241E+03
  1.26952E+03  5.96374E+03 -1.87576E+03 -1.74104E+03 -3.38707E+03  2.70825E+03 -4.69382E+02 -5.20474E+03
  4.08727E+03 -2.04763E+03  4.07694E+03  3.46939E+03  5.33024E+03  9.49683E+03  2.12739E+03  8.51539E+03
 -6.10370E+03  8.06983E+03 -8.77850E+03 -4.80233E+03 -7.66832E+03 -4.10232E+03 -2.42171E+03  5.34203E+02
  3.80927E+03 -1.08011E+04  6.37318E+03 -5.54153E+03 -1.28473E+03 -2.63355E+03  1.17805E+03  4.49417E+03
 -3.42529E+03  4.90098E+03 -3.37821E+03 -1.16366E+03 -2.89733E+03 -1.19473E+04 -1.41668E+03 -3.39862E+03
  9.46447E+02  1.29711E+03  4.25362E+03  4.58126E+03  4.15727E+03  9.23399E+02  1.95085E+01  6.14326E+03
 -2.69988E+02  6.56342E+03 -9.40503E+03 -1.30480E+03  4.94979E+02 -2.59068E+03  8.62430E+03  4.79871E+02
  8.85835E+03 -2.83136E+03  9.19384E+03  8.09264E+03  2.42600E+03  1.02681E+04 -2.54104E+03  1.14418E+04
 -2.51770E+03  1.23689E+03 -5.63036E+03 -3.29466E+03 -5.01382E+02  7.64443E+02  6.63376E+03 -6.05104E+02
  4.39180E+03 -2.64305E+03  6.09809E+03  6.87402E+03  3.23881E+03  3.87731E+03  3.68300E+03  8.50891E+03
  1.35126E+03  5.16351E+03 -1.32245E+03  5.99648E+03  6.45635E+03  1.60053E+03 -8.82567E+02 -1.61172E+03
  4.65683E+02 -7.21812E+02 -4.43444E+03  1.05998E+03 -8.84903E+03  1.80733E+03 -6.14585E+03 -4.26004E+03
 -2.88967E+03 -1.02239E+04 -7.90228E+02 -1.57335E+04  7.66405E+03 -6.44068E+03  1.09237E+04 -4.90273E+03
  9.23542E+03  1.25444E+03  5.93650E+03  6.74041E+03 -1.40452E+03  1.08871E+04 -6.73796E+03  5.44045E+03
 -1.91256E+03 -9.03265E+02 -3.99040E+03  5.40502E+03 -3.32544E+03 -1.87127E+02 -1.77206E+03 -8.81552E+02
 -7.36014E+03 -1.37507E+03 -4.95102E+03 -1.78147E+03 -2.46470E+03 -5.14499E+03 -1.11467E+03 -8.47799E+02
  5.74238E+03  1.81488E+02  4.68013E+03 -1.78853E+03  1.17394E+04  4.21261E+03  4.05088E+03  1.31364E+04
 -3.02922E+03  4.78843E+03 -7.33689E+03  2.78300E+03 -8.74478E+03 -1.38167E+03 -5.63879E+03 -2.84473E+03
  1.14701E+03 -5.14864E+03  6.90592E+03 -1.04190E+04  6.15782E+03 -3.04442E+03  2.96816E+03 -5.61487E+03
  2.29647E+03  2.87418E+03  7.83273E+02  1.63729E+03  2.18769E+03  1.44281E+03 -2.24643E+03 -9.97945E+03
 -7.40053E+03 -4.95916E+03 -3.72500E+03  2.41472E+03  5.95129E+03  6.57063E+03  4.94886E+01  9.21255E+03
 -4.72934E+00  7.45453E+03 -3.62542E+03  6.47950E+03 -4.16504E+03 -2.07354E+03 -3.30818E+03 -2.44483E+03
  4.84612E+03 -9.08376E+03  1.57632E+03  1.92063E+03  9.36612E+03  6.40564E+03  1.11277E+04 -1.13495E+03
  3.01683E+03  7.79740E+03  5.11483E+03  8.37520E+03 -6.41399E+03  9.47351E+03 -2.83668E+03  2.00659E+03
  3.08639E+03  2.15593E+03 -3.53187E+03  6.10640E+03  1.13692E+03 -1.27720E+03 -2.14639E+03 -1.82903E+03
  1.59568E+03 -5.34382E+02 -1.62147E+02 -9.83839E+03  1.22623E+04 -4.29788E+03  2.28495E+03 -5.85734E+02
  1.20815E+04 -2.81728E+03  2.87096E+03  5.08319E+03  5.96121E+02  2.80706E+03 -5.60539E+03  4.80452E+03
