 $NMID ID='MM_0lb_SNR50_11hz_g60_59.RAW', FMTDAT='(8E13.5)'
 TRAMP=1., VOLUME=1. $END
  3.10810E+05 -3.57264E+03  3.35284E+05  2.49296E+05  8.44881E+04  3.44539E+05 -1.31395E+05  2.51925E+05
 -1.85147E+05  8.44190E+04 -1.11481E+05 -3.79677E+04  2.13872E+01 -5.06526E+04  5.31047E+04 -5.99747E+03
  3.53814E+04  4.94034E+04 -1.16071E+04  7.72077E+04 -6.87244E+04  6.28239E+04 -8.74058E+04  3.47335E+04
 -8.62679E+04 -9.73140E+03 -5.58641E+04 -5.19111E+04 -1.89572E+04 -7.71477E+04  3.06619E+04 -4.48196E+04
  4.00281E+04  5.08686E+03  1.87375E+04  4.69945E+04 -3.62396E+04  4.90581E+04 -7.29053E+04  2.50767E+03
 -5.40083E+04 -5.69458E+04 -7.35370E+03 -7.98308E+04  3.23564E+04 -5.60067E+04  5.34667E+04 -1.64350E+04
  4.36850E+04  1.57812E+04  3.41776E+04  2.95167E+04  1.41405E+04  2.85797E+04 -6.64885E+03  2.86003E+04
 -1.92823E+04  1.57601E+04 -1.51643E+04 -6.16563E+03  1.29525E+04 -5.58656E+03  2.53236E+04  1.53128E+04
  1.01001E+04  3.98612E+04 -3.25967E+04  3.68617E+04 -6.67619E+04  2.49829E+03 -5.82679E+04 -3.79547E+04
 -1.42215E+04 -6.34877E+04  3.83849E+04 -4.54081E+04  5.50384E+04 -2.23541E+03  4.04775E+04  3.57224E+04
 -4.52881E+03  3.37866E+04 -3.18072E+04  1.40272E+04 -3.06129E+04 -5.88664E+03 -1.59287E+04 -1.42347E+04
 -1.12065E+04 -1.48886E+04 -4.91922E+03 -1.78271E+04  1.07895E+04 -2.75031E+04  1.76896E+04 -1.57194E+04
  1.20428E+04  5.33188E+03 -4.26561E+03  8.79263E+03 -2.05869E+04 -9.00573E+03 -1.36383E+04 -3.55588E+04
  2.85890E+04 -5.13233E+04  5.29054E+04 -2.01288E+04  5.21091E+04  2.57088E+04  1.31218E+04  4.28210E+04
 -1.33345E+04  4.12522E+04 -2.96318E+04  2.59167E+03 -9.94924E+03 -2.87163E+04  2.41965E+04 -4.02678E+04
  4.66205E+04 -1.35716E+04  4.03443E+04  2.14359E+04  2.36086E+04  5.31458E+04 -4.75247E+03  5.02397E+04
 -2.93865E+04  3.20887E+04 -4.32025E+04  1.49482E+04 -4.40093E+04 -2.25238E+04 -2.97035E+04 -5.27505E+04
  1.25232E+04 -4.73573E+04  3.61788E+04 -1.20149E+04  3.47540E+04  1.11465E+04  2.30523E+03  1.25033E+04
 -1.42011E+04  8.50011E+03 -1.57827E+04 -1.07292E+04  5.76078E+03 -8.56401E+03  1.74118E+04  4.40089E+03
  2.28267E+04  1.57521E+04 -5.16845E+03  2.82967E+04 -2.17750E+04  1.26040E+04 -2.71627E+04 -5.25914E+03
 -2.63768E+04 -1.66177E+04 -1.42763E+04 -2.53269E+04  3.74532E+03 -2.35661E+04  2.04482E+04 -1.62650E+04
  3.33570E+04 -1.40568E+04  3.86889E+04  6.38052E+03  2.83190E+04  2.67516E+04  5.46658E+02  4.15034E+04
 -1.61739E+04  3.62949E+04 -3.18658E+04  1.06567E+04 -1.77542E+04 -6.79611E+03 -2.90696E+03 -1.26678E+04
 -9.30626E+01 -6.88673E+03 -2.24649E+03  4.09712E+03 -1.92043E+04  6.08601E+03 -1.68586E+04 -1.39003E+04
 -1.34270E+04 -2.23082E+04  8.50364E+03 -3.08679E+04  1.74278E+04 -1.96157E+04  1.97355E+04 -2.63335E+03
  1.49760E+04  1.51214E+04  4.95549E+03  2.07170E+04 -2.04260E+04  1.40242E+04 -2.54112E+04 -4.36226E+03
 -1.88116E+04 -1.83863E+04 -1.81599E+03 -2.04492E+04  1.57412E+04 -1.83320E+04  1.81157E+04 -9.35046E+03
  2.51743E+04  1.86223E+03  1.48157E+04  3.25626E+03  8.37977E+03  2.29731E+03  1.29585E+04 -1.65066E+03
  2.51035E+04  2.40262E+03  2.92408E+04  1.82997E+04  2.19103E+04  3.17422E+04  1.93235E+03  4.42425E+04
 -2.41783E+04  3.56598E+04 -3.92037E+04  1.94873E+04 -3.67631E+04 -7.81929E+03 -3.53929E+04 -2.64688E+04
 -1.07428E+04 -3.57922E+04  1.20508E+04 -3.19491E+04  3.26386E+04 -1.88636E+04  2.34147E+04  1.17580E+04
  7.91954E+03  1.64791E+04 -7.16546E+03  1.26490E+04 -1.94034E+04  3.55507E+03 -1.56476E+04 -1.26056E+04
  2.37935E+03 -1.40149E+04  1.27996E+04 -8.79042E+03  1.91540E+04 -6.54642E+03  3.12532E+03  1.15916E+04
 -8.40056E+03  5.96595E+02 -3.94360E+03 -9.88180E+03 -3.99437E+02 -1.63846E+04  8.98033E+03 -2.26889E+04
  2.49249E+04 -1.25218E+04  1.95333E+04  6.05290E+03  2.05232E+04  1.96865E+04  7.41480E+03  2.92788E+04
  1.08924E+03  2.77250E+04 -2.13365E+04  2.06253E+04 -2.12993E+04  6.58213E+03 -9.89715E+03 -1.85749E+03
 -1.49078E+04 -6.56292E+03 -6.42251E+02  5.58071E+02 -2.36904E+03  6.05917E+03 -6.08056E+03  4.64756E+03
 -1.40154E+04 -1.09158E+03 -1.61712E+04 -9.43246E+03 -8.29855E+03 -1.97169E+04  8.54105E+03 -1.08695E+04
  1.45482E+04 -6.76240E+03  1.22946E+04  5.38231E+03  2.07144E+03  8.15929E+03 -5.07433E+03 -1.85999E+03
 -1.28830E+04 -1.03676E+04 -4.68422E+03 -1.62236E+04  6.33470E+03 -1.41682E+04  1.78124E+04 -7.85400E+03
  2.97439E+04  1.64922E+03  2.19050E+04  1.23416E+04  7.61586E+03  1.54461E+04 -1.30405E+04  1.18443E+04
 -1.82961E+04  9.08846E+03 -4.47480E+03 -4.71589E+03 -2.72026E+03  3.32324E+03  7.83506E+03 -3.92459E+03
  6.87441E+03  1.09304E+04 -5.82768E+03  8.94629E+03 -8.32299E+03  9.70444E+03 -1.33723E+04  7.74248E+03
 -1.41882E+04 -1.15098E+04 -1.69056E+03 -1.19069E+04  5.73453E+03 -4.25250E+03  1.03509E+04  3.31075E+03
 -2.29192E+03  9.21398E+03 -7.11563E+03  8.63593E+03 -1.72922E+04  2.30050E+03 -9.64498E+03 -3.45621E+03
 -4.40848E+03 -1.06106E+04  5.76113E+03 -1.18624E+04  1.11603E+04 -7.45470E+03  1.38394E+04 -6.81300E+02
  1.00529E+04  1.14843E+04  2.39180E+02  1.02062E+04 -8.74440E+03  4.42593E+03 -6.76319E+03  4.56501E+02
 -1.21473E+04 -9.51672E+03 -7.04471E+03 -1.37862E+04  6.82347E+03 -4.00159E+03  5.64523E+03 -9.69277E+03
  5.19702E+03  3.34608E+03  2.08518E+03  1.23017E+04  6.63027E+02  5.00178E+02  6.21321E+03 -3.69639E+03
  1.48380E+04  1.00141E+03  1.16524E+04  9.92152E+03  1.35828E+04  1.14406E+04  4.55863E+03  1.50862E+04
 -7.23615E+03  2.25594E+04 -1.52427E+04  1.56333E+04 -2.06136E+04  6.11841E+03 -1.91816E+04 -6.09327E+03
 -7.95994E+03 -2.14718E+04  3.26134E+03 -1.15816E+04  3.24443E+03 -7.34708E+03  7.60035E+03 -4.77089E+02
  5.71321E+03 -3.59320E+03  8.62604E+03 -1.47111E+03  7.43596E+03 -6.08228E+03  8.75459E+03  4.25493E+03
  8.63496E+03  1.85593E+02  4.09959E+03  5.60715E+03 -5.47099E+03  1.06866E+04 -9.07754E+03  1.02831E+04
 -1.51344E+04 -1.33445E+03 -1.41382E+04 -8.60143E+03 -8.17928E+03 -1.42264E+04  6.96410E+03 -1.34059E+04
  1.14462E+04 -6.14178E+03  1.53092E+04  2.74012E+03  1.42162E+04  9.65918E+03 -1.41484E+03  1.80455E+04
 -4.89067E+03  1.06957E+04 -7.05035E+03  1.63831E+03 -5.75382E+03 -1.68373E+03 -3.07536E+03 -7.50327E+03
  2.55504E+02  3.83847E+03  2.69099E+01  3.70138E+03 -9.18140E+03  3.79677E+03 -6.82237E+03  3.83265E+03
 -5.63153E+03 -7.76171E+03  3.00569E+03 -1.50258E+04  9.07694E+03 -1.45565E+04  1.43864E+04  1.62029E+03
  4.66504E+03  3.67112E+03  4.91814E+03  8.42398E+03 -1.35462E+03  1.48880E+04 -8.53787E+03  1.31466E+04
 -1.52442E+04  2.31594E+03 -7.50259E+03 -6.55822E+03 -2.84904E+02 -6.55619E+03  2.44952E+03 -6.15808E+03
  5.04309E+03 -2.97794E+03  1.21520E+04  6.42155E+03 -4.79355E+02 -3.52017E+03  1.08294E+03  3.14125E+03
  2.45066E+03 -1.92252E+03 -1.07041E+03  6.50465E+03 -2.62165E+03 -6.85381E+02  6.15842E+03  4.48322E+03
 -4.61050E+02  4.88819E+03 -7.56857E+03  7.22345E+03 -1.14002E+04 -2.98930E+03 -1.57354E+04 -1.15401E+03
 -1.04731E+04 -1.26416E+04 -3.32549E+03 -1.60260E+04  9.47808E+03 -6.49994E+03  1.12504E+04  2.66513E+02
  6.72247E+03  6.74072E+03 -3.96875E+03  3.88995E+03 -1.75067E+03  5.94119E+03 -1.17898E+04 -3.50511E+03
 -6.80906E+03 -7.93811E+03  5.11965E+03 -9.56323E+03  9.04257E+03 -6.30685E+03  6.19684E+03  2.89323E+03
  1.65854E+03  3.00543E+03 -7.66449E+01 -5.47227E+02 -5.47987E+03 -3.24451E+02  3.68393E+03 -6.12148E+03
 -8.73287E+02  1.77835E+03  1.12869E+04 -7.01534E+02  1.44757E+03  2.50601E+03  1.75152E+03  1.06701E+04
 -1.04170E+04  4.10896E+03 -6.02625E+03  2.24782E+03 -6.65907E+03 -5.14236E+03  1.82247E+03  1.49437E+02
 -3.12457E+03  5.14641E+02  4.32396E+03 -2.99811E+03  9.22274E+03 -6.40689E+02 -6.22749E+03  5.64208E+03
 -5.06377E+03  1.53428E+03 -9.15487E+03 -4.68681E+03  4.93079E+03 -6.44038E+03  8.22479E+02 -1.07049E+04
  4.20570E+03 -9.08649E+02  5.42754E+03  3.91994E+02 -8.35038E+02  2.01664E+03  9.82473E+03  5.35843E+03
 -6.29237E+03  4.47702E+03 -5.11820E+03 -4.57988E+03 -8.91024E+03 -4.75262E+03  8.32601E+03 -3.31946E+03
  6.48474E+03  4.18391E+03  7.81282E+03  8.66864E+03  1.76202E+03  1.07433E+04 -7.08027E+03  8.41945E+03
 -5.24623E+03 -1.16495E+02 -1.09041E+04 -4.35617E+03 -2.00627E+03 -5.49619E+03 -2.55188E+02 -6.72274E+03
 -1.30246E+03 -1.81174E+03  6.58839E+03  6.01812E+03  6.62742E+03  6.40631E+03  5.50949E+03  4.22838E+03
 -2.06239E+03  3.68310E+01  4.80416E+02 -1.60515E+03 -1.10562E+03 -3.82364E+03  5.69823E+03 -4.15397E+03
 -5.69025E+03  4.77238E+03 -3.86263E+03  2.70062E+00 -6.24233E+03  3.90758E+03 -1.16868E+04 -5.04213E+03
 -3.57890E+03 -7.29892E+03  3.39943E+03 -1.06038E+04  5.47178E+03 -8.54105E+03  1.36124E+04  1.24055E+03
  7.48888E+03  3.69480E+03  8.25665E+03  9.21119E+03  1.72410E+03  7.72779E+03 -2.86373E+03  3.78330E+03
 -4.99818E+03  9.30590E+02 -9.05977E+03 -6.81018E+03 -3.43893E+01  1.93252E+03  6.72379E+03 -2.22542E+03
 -3.48487E+03 -1.49241E+03  1.71678E+03 -1.98864E+03 -3.14716E+03 -7.99618E+03  2.32386E+03 -7.01141E+03
  1.17697E+03 -6.03168E+03  5.90809E+03 -1.35993E+03  6.86888E+03  5.93549E+03 -3.51400E+03  5.12268E+03
 -7.17792E+03  1.16642E+04 -8.23606E+03  1.01447E+04 -7.90208E+03  4.28137E+02 -6.15139E+03 -7.95689E+03
 -2.59694E+03 -1.10287E+04 -2.09534E+03 -9.92611E+03  1.11938E+04  1.89361E+03  3.32394E+03  2.63248E+03
 -3.22759E+03  2.86282E+03 -1.93986E+03 -8.20799E+01  4.97555E+02  1.21643E+03  2.82253E+03 -6.49641E+03
  2.06460E+03 -1.46386E+02  8.98544E+02 -1.92147E+03 -1.89525E+03  1.95636E+02  2.52721E+03  2.12234E+03
 -6.82795E+03  1.28013E+04 -5.52068E+03 -5.04007E+03 -7.23383E+03 -7.33654E+03 -2.60636E+02 -7.85636E+03
  1.11809E+04 -6.78247E+03  1.28924E+04 -7.27169E+03  5.64489E+03 -7.66747E+03  1.40623E+03  6.74428E+03
  2.15202E+03  2.64266E+03 -1.02918E+03  2.34202E+03 -1.87121E+03  4.28094E+03  1.19274E+03  2.01621E+03
  7.15478E+03 -2.56560E+03  6.21296E+02  5.41007E+03 -2.95912E+03  2.01027E+03 -2.05895E+03  2.42395E+03
 -9.63857E+03 -3.32960E+03 -1.31337E+03 -3.15778E+03  5.42593E+03 -8.12129E+03  4.69576E+03 -2.40814E+03
  6.20289E+03  3.79248E+03  6.50574E+03  2.40815E+03 -2.06159E+03  6.32062E+03 -2.13272E+03  9.16576E+02
