 $NMID ID='MM_0lb_SNR50_10hz_g55_22.RAW', FMTDAT='(8E13.5)'
 TRAMP=1., VOLUME=1. $END
  3.01494E+05  2.84090E+03  3.34713E+05  2.50220E+05  8.00091E+04  3.40144E+05 -1.32545E+05  2.51533E+05
 -1.94399E+05  8.86026E+04 -1.16460E+05 -3.20368E+04  8.30699E+03 -5.22837E+04  5.32616E+04  4.86423E+02
  2.77904E+04  5.03306E+04 -1.41451E+04  7.39548E+04 -6.49084E+04  6.47791E+04 -8.22159E+04  2.79869E+04
 -8.83547E+04 -1.32123E+04 -5.74167E+04 -4.75440E+04 -1.84537E+04 -6.78606E+04  2.86536E+04 -5.08039E+04
  4.48880E+04  1.01522E+04  2.09477E+04  5.10362E+04 -3.33095E+04  4.80677E+04 -7.07280E+04 -8.03537E+02
 -5.47870E+04 -5.86240E+04 -1.46220E+04 -7.75237E+04  3.94251E+04 -5.63866E+04  4.92330E+04 -1.91290E+04
  3.76976E+04  6.29102E+03  3.45102E+04  2.36655E+04  1.22676E+04  2.64109E+04 -6.07751E+03  2.46619E+04
 -2.75982E+04  6.11013E+03 -1.59301E+04 -5.50714E+03  1.06391E+04 -7.08933E+03  2.03242E+04  9.50684E+03
  5.70943E+03  3.93129E+04 -3.32552E+04  3.51193E+04 -6.14853E+04  1.91855E+03 -5.89485E+04 -4.69574E+04
 -1.11011E+04 -6.79895E+04  3.68768E+04 -4.69537E+04  6.40507E+04 -1.74772E+02  3.29985E+04  2.92412E+04
 -4.10772E+03  3.67174E+04 -2.67097E+04  1.51205E+04 -3.30699E+04 -1.06809E+03 -1.96470E+04 -1.07716E+04
 -7.71091E+03 -1.29885E+04 -1.71185E+03 -1.63363E+04  9.03586E+03 -2.61533E+04  1.43286E+04 -1.10492E+04
  7.96834E+03  2.76035E+03 -8.72424E+03  1.13441E+04 -2.67908E+04 -9.70977E+03 -6.33859E+03 -3.26894E+04
  2.38644E+04 -4.85570E+04  5.35014E+04 -2.78547E+04  4.92261E+04  2.35489E+04  2.35134E+04  4.26303E+04
 -1.34153E+04  3.38778E+04 -2.55740E+04  5.13867E+03 -1.24125E+04 -2.94764E+04  2.04152E+04 -3.83938E+04
  4.52873E+04 -1.16937E+04  3.21191E+04  2.06664E+04  1.88469E+04  5.07093E+04 -1.08396E+04  5.63972E+04
 -3.57383E+04  3.86712E+04 -4.16796E+04  1.10337E+04 -4.50773E+04 -1.77708E+04 -2.21053E+04 -4.22060E+04
  7.23937E+03 -3.99434E+04  3.04778E+04 -1.68974E+04  2.57362E+04  1.04715E+04  8.63242E+03  2.48663E+04
 -3.67981E+03  1.25812E+04 -1.19212E+04 -3.04815E+03  2.88199E+03 -1.56140E+04  1.74766E+04  1.19947E+04
  1.17155E+04  2.21369E+04 -1.66819E+03  2.70851E+04 -2.14495E+04  1.27504E+04 -3.03814E+04 -3.60476E+03
 -2.33031E+04 -2.40153E+04 -1.39944E+04 -2.24274E+04 -4.22858E+02 -2.05246E+04  1.69498E+04 -1.58542E+04
  3.33389E+04 -1.01110E+04  3.92829E+04  6.90417E+03  2.56461E+04  2.58264E+04  3.42423E+03  4.22292E+04
 -1.71765E+04  3.41857E+04 -2.93426E+04  1.39123E+04 -2.04829E+04 -8.01870E+03 -1.46468E+03 -1.83698E+04
  3.77339E+03 -1.82125E+03 -5.20020E+03  9.84441E+03 -2.62989E+04  4.88705E+03 -2.67645E+04 -1.20658E+04
 -1.44592E+04 -2.01546E+04  1.02719E+04 -2.54671E+04  1.85593E+04 -1.74109E+04  2.51266E+04  1.27793E+03
  1.14190E+04  1.03930E+04 -7.63786E+03  2.20572E+04 -2.21642E+04  1.96366E+04 -2.34981E+04 -6.13925E+03
 -1.96705E+04 -2.32358E+04  1.55193E+03 -3.51182E+04  1.21225E+04 -2.04296E+04  2.53881E+04 -1.43680E+04
  1.74207E+04 -1.95143E+03  1.58682E+04  5.81451E+03  1.44537E+04 -8.73624E+02  1.77244E+04 -1.32526E+03
  1.72192E+04  5.27349E+03  2.09833E+04  1.99730E+04  2.19546E+04  2.95141E+04 -9.43677E+02  3.36738E+04
 -2.19300E+04  3.34441E+04 -3.68748E+04  1.54638E+04 -4.14865E+04 -4.13474E+03 -4.02113E+04 -2.41888E+04
 -1.94210E+04 -3.80539E+04  1.11121E+04 -3.41130E+04  2.95325E+04 -1.41135E+04  2.59488E+04  4.90243E+03
  6.08586E+03  2.02969E+04 -9.20360E+03  1.59389E+04 -2.82027E+04  4.97291E+01 -7.39790E+03 -1.88410E+04
 -2.52211E+03 -1.71429E+04  1.02906E+04 -1.53434E+04  7.30164E+03 -2.02180E+03  4.09903E+03  7.69962E+03
 -9.40068E+03  6.33407E+03 -9.26641E+03 -9.42492E+03 -4.73742E+03 -2.41101E+04  1.13998E+04 -1.66292E+04
  2.03560E+04 -8.64100E+03  2.56782E+04  5.88622E+03  2.51058E+04  1.58094E+04  7.02372E+03  2.51882E+04
 -8.50941E+03  3.09473E+04 -1.84117E+04  1.21063E+04 -2.78112E+04  2.07280E+03 -1.94253E+04 -9.07121E+03
 -3.35479E+03 -8.41043E+03 -4.89076E+03 -3.22930E+03  1.13996E+03  2.19333E+03 -1.18669E+04  1.80772E+03
 -1.22169E+04  1.02815E+03 -1.28652E+04 -7.02225E+03 -4.02854E+03 -2.57860E+04  5.94866E+03 -1.12930E+04
  1.36168E+04 -6.77257E+03  1.26445E+04  3.28861E+03  3.96590E+03  3.62824E+03 -8.03611E+03 -2.64918E+03
  4.16845E+02 -9.47097E+03  2.85612E+03 -2.12109E+04  1.04209E+04 -9.29759E+03  2.36513E+04 -6.69251E+03
  2.25996E+04 -4.37735E+02  1.37861E+04  1.61260E+04  1.70898E+03  1.52862E+04 -9.17764E+03  2.12247E+04
 -7.60419E+03  9.17569E+03 -8.93867E+03 -2.73141E+03  2.09637E+03 -4.93076E+03  2.21419E+03 -1.89800E+03
  1.04210E+04  2.23550E+03 -5.52147E+03  1.63487E+04 -6.49507E+03  1.41918E+04 -1.93632E+04 -7.95633E+01
 -6.62114E+03 -5.63766E+03 -1.17480E+03 -8.46000E+03  1.05630E+04 -6.41067E+03  5.58970E+03 -7.47346E+02
  7.28507E+02  7.92614E+03 -7.70011E+03  5.00370E+03 -1.31669E+04  1.11961E+04 -1.33897E+04  2.48195E+03
 -7.62806E+03 -1.76940E+04  6.02801E+03 -1.80305E+04  1.60505E+04 -6.55495E+03  1.54152E+04  8.01673E+03
  1.48632E+04  1.08468E+04 -6.60531E+03  1.59880E+04 -1.00729E+04  1.13860E+04 -1.11383E+04  1.00357E+03
 -1.09049E+04 -6.77166E+03  1.55711E+02 -1.03139E+04  5.07178E+03 -1.01449E+04  1.32344E+04 -3.89124E+03
  4.68474E+03  3.04362E+03 -8.88917E+02 -7.27315E+02 -4.48926E+03 -4.13891E+03 -6.25623E+02 -8.87996E+03
  1.13443E+04 -3.79730E+03  1.83823E+04 -1.23431E+03  1.50411E+04  1.33712E+04  1.12560E+04  2.11719E+04
 -4.47447E+03  2.33787E+04 -1.57374E+04  1.23747E+04 -2.04925E+04 -1.14817E+02 -2.65870E+04 -1.26510E+04
 -1.32821E+04 -1.19951E+04 -1.92927E+03 -1.60658E+04  9.69634E+02 -7.58398E+03  5.14418E+03 -1.27091E+03
  6.69656E+03 -5.35263E+02  4.94141E+03 -8.69137E+03  7.12492E+03 -1.48997E+03  8.70546E+03 -3.88298E+03
  1.01873E+04 -6.58008E+03  6.65641E+03  7.03819E+03 -6.05085E+03  1.11516E+04 -1.16931E+04  1.34481E+04
 -1.44805E+04 -4.31380E+03 -1.37565E+04 -1.29483E+04  5.46080E+03 -1.01252E+04  8.22462E+03 -2.22730E+04
  1.21381E+04 -8.71698E+03  1.39342E+04  4.42447E+02  1.48453E+04  1.26940E+04  1.88790E+03  1.60871E+04
 -4.62349E+03  1.35520E+04 -1.26275E+04  6.33739E+03 -6.47976E+03 -1.98788E+03 -3.31041E+02  1.53674E+03
  3.98894E+02 -2.40269E+02 -6.38214E+03  5.52064E+03 -8.33629E+03  5.80107E+03 -9.28706E+03 -5.70230E+03
 -3.53705E+03 -7.71965E+03  1.33926E+03 -1.25611E+04  9.86505E+03 -1.39852E+04  1.50721E+04 -6.05711E+03
  8.16926E+03  8.16309E+03  4.03946E+03  9.37566E+03 -1.00639E+04  1.04902E+04 -8.09723E+03  1.63716E+04
 -1.34795E+04  3.29762E+03 -1.06690E+04 -6.21254E+03 -2.36183E+03 -9.15720E+03  2.26478E+03 -8.80914E+03
  6.09722E+03 -4.42848E+03  2.07654E+03  4.43543E+03 -2.75047E+02  4.91252E+03 -3.19362E+03  3.73874E+03
  7.83392E+03 -3.26120E+03 -1.49172E+03  1.06767E+03  4.10767E+03  2.26706E+03  5.87449E+03  8.22949E+03
 -4.73904E+03  1.49001E+04 -3.72189E+03  1.48892E+04 -1.23356E+04  6.06970E+03 -1.84061E+04 -4.89719E+03
 -7.91479E+03 -1.56047E+04  6.41464E+03 -2.29848E+04  7.92987E+03 -8.64592E+03  1.14544E+04 -4.82444E+03
  1.26101E+04  1.93278E+03 -2.53090E+03  5.83828E+03 -7.89699E+03  4.78283E+03 -8.80124E+03 -3.11513E+02
  5.54227E+02 -5.56974E+03  1.06016E+04 -5.09631E+03  2.54870E+03 -3.15614E+03  6.94834E+03  2.34260E+03
 -1.13412E+03  2.21883E+03  9.47497E+02 -4.31655E+02  2.41452E+03  2.73580E+03  2.80330E+03 -1.69040E+03
  2.87184E+03 -3.82435E+03  8.20945E+03  4.24862E+03  2.93277E+03  4.50440E+03 -7.14929E+03  8.40345E+03
 -9.67534E+03  3.95214E+03 -5.22881E+03 -3.27987E+03 -5.52203E+03  1.05402E+03  1.11971E+03  7.14264E+01
  8.99234E+02 -3.75291E+03  5.31805E+03 -5.63916E+03  1.88003E+03 -3.63234E+03  5.51842E+02  5.60069E+03
 -5.66302E+03  6.33199E+03 -5.16082E+03  9.01428E+02 -7.69387E+03 -7.53821E+03  3.34212E+03 -3.82029E+03
  9.13515E+03 -5.71754E+03  1.14982E+03  8.48792E+02  5.06943E+03  9.65362E+02  2.84389E+03  6.63419E+03
 -4.09462E+03  3.52969E+03 -6.54605E+03  7.48387E+03  3.99884E+02 -4.31171E+03  6.18035E+03 -6.71622E+03
  6.65613E+03  3.92538E+03  6.33689E+03  5.82472E+03  1.95182E+03  4.99912E+03 -1.00316E+04  1.18510E+04
 -8.46825E+03  1.78714E+03 -4.36802E+03  1.05191E+03 -4.89211E+03 -1.46666E+04  1.98873E+03 -6.00824E+03
  5.70326E+03 -7.05111E+03  1.61452E+03 -3.74082E+03  5.95952E+02  9.70330E+03  4.70739E+03  7.87977E+03
 -2.78156E+03 -2.07281E+02 -3.44045E+03 -1.39807E+03 -6.52334E+03 -2.98854E+03 -5.98065E+03  1.39008E+03
 -1.41485E+03  3.50503E+03  7.57121E+02 -2.36561E+02 -6.85667E+03  1.95019E+03 -1.03385E+04 -2.82199E+02
 -3.64732E+03 -1.32703E+04 -8.13052E+02 -1.18443E+04  9.98890E+03 -1.25052E+04  1.05816E+04 -2.45640E+03
  9.20125E+03 -2.41573E+03  4.16453E+03  9.95156E+03 -4.75005E+03  1.38309E+04 -1.72997E+03  1.14046E+04
 -2.37682E+03  9.13891E+03 -8.38245E+03 -4.04880E+03 -4.11577E+03 -2.97257E+03 -1.65814E+03 -2.18683E+02
 -1.58123E+03  1.97819E+03 -2.16094E+02  1.95362E+01  2.05346E+03  2.44991E+02 -3.25365E+01  2.29532E+03
  3.41699E+03  4.98025E+03  5.89474E+03 -2.94066E+03  9.14289E+03  5.84965E+03  6.90031E+03  1.13232E+04
 -1.11776E+03  8.51070E+03 -1.28258E+04  4.51922E+03 -1.52052E+04  3.88599E+03 -1.07723E+04 -6.06495E+03
 -8.72277E+03 -8.39590E+03  3.40727E+01 -8.03928E+03 -2.54033E+01 -7.28520E+03  4.22762E+03 -1.57529E+03
  9.66998E+02  8.41162E+02 -5.24979E+03  2.73978E+03 -4.64899E+03 -1.98657E+03  8.07120E+02 -4.33789E+03
  5.15169E+03 -6.05834E+03  1.02750E+04 -4.16795E+03  6.00413E+03  4.48566E+03  8.91607E+03  9.31165E+03
 -5.35415E+03  6.12433E+03 -6.13283E+03 -2.45297E+03 -3.96750E+03 -3.14061E+03 -1.80031E+03 -8.78492E+03
  1.11679E+04 -2.41937E+03  9.61498E+02 -1.60741E+03  1.05179E+04 -2.77352E+03  7.74949E+03 -1.21313E+03
 -2.78309E+03  3.89054E+03 -4.31448E+03  7.65892E+03 -7.77220E+03  1.84583E+03 -5.55755E+03 -3.98072E+03
  6.51462E+02  1.86790E+03  5.60872E+03 -9.67880E+02 -7.08263E+03  6.67736E+03 -9.53308E+02 -6.81778E+02
 -7.14909E+03 -1.31045E+03  3.79470E+02 -9.66903E+03  1.84861E+03 -5.86487E+03  3.75631E+03 -5.29433E+03
 -6.56742E+02 -3.90085E+03  3.31795E+03  2.21248E+03 -6.61268E+03  9.07039E+03  9.21573E+02  6.87705E+03
