 $NMID ID='MM_0lb_SNR50_11hz_g60_11.RAW', FMTDAT='(8E13.5)'
 TRAMP=1., VOLUME=1. $END
  3.12940E+05 -5.15052E+02  3.33475E+05  2.56721E+05  8.19544E+04  3.42164E+05 -1.28462E+05  2.48243E+05
 -1.87268E+05  8.37198E+04 -1.09553E+05 -3.37392E+04 -3.46438E+03 -5.53793E+04  4.75569E+04 -2.66546E+03
  3.61180E+04  5.01058E+04 -1.61842E+04  7.69949E+04 -6.98653E+04  6.38103E+04 -8.84712E+04  3.26805E+04
 -8.07865E+04 -1.38482E+04 -6.12395E+04 -5.73382E+04 -5.87797E+03 -6.92978E+04  2.68142E+04 -5.24840E+04
  4.88084E+04  4.44396E+03  1.87143E+04  5.38444E+04 -3.23856E+04  5.02401E+04 -6.74935E+04 -3.60427E+03
 -5.09855E+04 -5.96510E+04 -1.66016E+03 -7.72702E+04  3.45673E+04 -5.72623E+04  5.22076E+04 -1.48322E+04
  4.40979E+04  1.33109E+04  3.56129E+04  2.52225E+04  1.65782E+04  3.16936E+04 -9.79524E+03  2.36068E+04
 -2.20438E+04  7.78076E+03 -1.94039E+04 -1.21792E+04  9.94497E+03 -6.56478E+03  2.30213E+04  6.15129E+03
  2.60900E+03  3.31452E+04 -2.87830E+04  3.79812E+04 -6.14321E+04 -5.87380E+02 -6.09573E+04 -4.03915E+04
 -1.59977E+04 -6.59521E+04  4.74070E+04 -4.23226E+04  5.86754E+04 -3.05439E+03  4.44655E+04  2.81713E+04
 -2.94672E+03  3.26016E+04 -3.72838E+04  1.38978E+04 -3.50027E+04 -4.51428E+03 -1.59544E+04 -1.17657E+04
 -2.72097E+03 -1.63009E+04  1.37639E+03 -1.91217E+04  2.45447E+03 -2.57935E+04  1.43491E+04 -1.25566E+04
  1.00302E+04  6.40260E+03 -9.61277E+03  1.28457E+04 -2.15931E+04 -9.16647E+03 -8.76421E+03 -3.77718E+04
  2.53674E+04 -4.17639E+04  5.27925E+04 -2.20582E+04  4.38667E+04  2.23033E+04  1.51787E+04  5.13575E+04
 -1.91449E+04  3.29797E+04 -2.51627E+04 -3.69124E+03 -1.46899E+04 -3.03982E+04  2.33452E+04 -3.50930E+04
  4.27044E+04 -1.88810E+04  4.07055E+04  2.19811E+04  2.20329E+04  5.28554E+04  1.94986E+03  4.70339E+04
 -3.56558E+04  3.89479E+04 -4.22927E+04  9.40228E+03 -4.54514E+04 -1.84244E+04 -2.37168E+04 -3.52449E+04
  8.06811E+03 -3.62306E+04  2.64768E+04 -2.01514E+04  3.13903E+04  5.73709E+03  4.59319E+03  2.10396E+04
 -1.25090E+04  1.22682E+04 -5.95305E+03 -1.14711E+04  9.64921E+03 -8.98053E+03  1.93571E+04  7.10384E+03
  1.59820E+04  2.85989E+04 -9.03233E+03  2.85781E+04 -2.18262E+04  1.46190E+04 -2.75891E+04 -4.26851E+03
 -2.70759E+04 -1.94954E+04 -8.36850E+03 -2.75976E+04  3.22829E+03 -2.01584E+04  1.97789E+04 -2.63878E+04
  2.29109E+04 -7.56534E+03  4.02946E+04  5.72589E+03  2.45411E+04  1.81988E+04  5.55709E+03  3.82467E+04
 -1.73717E+04  2.87660E+04 -2.99999E+04  1.02633E+04 -2.39889E+04 -4.95220E+03 -7.16706E+03 -1.34969E+04
  2.35096E+03 -2.42936E+03 -6.47688E+03  1.26063E+04 -2.15854E+04  6.92414E+03 -1.85581E+04 -1.68423E+04
 -1.15729E+04 -2.65223E+04  7.89855E+03 -2.30833E+04  1.83138E+04 -2.05955E+04  2.36506E+04 -3.04608E+03
  1.62990E+04  1.76654E+04 -2.21985E+03  2.35656E+04 -1.32629E+04  1.18285E+04 -2.27160E+04 -5.96220E+03
 -1.94399E+04 -2.72279E+04 -9.66680E+03 -2.63448E+04  1.71305E+04 -2.22239E+04  1.52955E+04 -1.47651E+04
  2.05191E+04 -1.77254E+03  1.61554E+04  7.18322E+03  4.10102E+03  5.19798E+03  9.78652E+03 -3.42451E+02
  2.51496E+04 -7.86800E+01  2.28329E+04  1.68263E+04  1.73732E+04  3.70201E+04 -3.52214E+03  3.66940E+04
 -2.37548E+04  3.52984E+04 -3.87791E+04  2.06312E+04 -4.51855E+04 -8.73542E+03 -3.53950E+04 -2.37887E+04
 -1.97269E+04 -3.89933E+04  5.72073E+03 -2.75785E+04  2.26498E+04 -9.25067E+03  2.30050E+04  1.12307E+04
  8.32072E+03  1.31777E+04 -9.26574E+03  1.71574E+04 -1.73753E+04  2.92311E+03 -2.13669E+04 -1.37455E+04
 -4.89472E+03 -1.37143E+04  1.16711E+04 -1.45256E+04  1.35190E+04  2.94542E+01  3.20936E+03  8.03799E+03
 -4.94389E+03  9.90984E+03 -1.21704E+04 -5.24311E+03 -2.13007E+03 -2.16352E+04  9.22388E+03 -1.85780E+04
  2.15374E+04 -1.00335E+04  2.27173E+04 -1.67869E+03  2.08777E+04  2.23358E+04  6.96129E+03  3.02659E+04
 -8.58435E+03  2.90094E+04 -2.21577E+04  1.51675E+04 -2.03887E+04  4.78930E+03 -1.74301E+04 -5.75178E+03
 -7.16710E+03 -1.08710E+04 -3.83166E+03 -1.08649E+03  1.25361E+03 -2.26963E+02 -7.48597E+03  4.85618E+03
 -1.55171E+04 -5.62969E+03 -1.44879E+04 -5.72864E+03 -9.46673E+03 -2.31480E+04  8.35083E+03 -1.60428E+04
  1.26747E+04 -5.34489E+03  1.01114E+04  1.08791E+04  4.73863E+03  2.48234E+03 -4.17137E+03 -9.23937E+02
 -7.82571E+03 -7.53356E+03 -1.46879E+03 -1.17642E+04  1.22329E+04 -1.00484E+04  1.54958E+04 -6.41818E+03
  2.85638E+04  2.85851E+03  2.33258E+04  1.36748E+04  5.50945E+03  1.32454E+04 -1.22646E+04  1.52868E+04
 -9.93781E+03  4.24115E+03 -5.47144E+03  3.77680E+03  1.04170E+03  3.85646E+03  8.44931E+03 -2.45649E+03
  3.91480E+03  6.85490E+03 -4.29371E+03  1.22636E+04 -9.26050E+03  1.17475E+04 -7.02431E+03  8.48992E+02
 -1.29508E+04 -4.40015E+03  2.12937E+03 -1.62752E+04  8.97875E+03 -1.04555E+04  8.75006E+03  7.40049E+03
  4.06396E+03  7.75356E+03 -1.23429E+04  7.18736E+03 -9.37148E+03 -3.58706E+03 -1.14612E+04  3.08103E+02
 -2.83443E+03 -1.68648E+04  4.35198E+03 -1.67166E+04  1.06072E+04 -1.04168E+04  1.67378E+04  6.87852E+03
  1.18234E+04  1.33737E+04 -7.43224E+03  1.11016E+04 -1.30336E+04  7.46013E+03 -1.11735E+04  1.80558E+03
 -1.01588E+04 -1.46656E+04 -3.19805E+03 -5.43701E+03  2.57088E+03 -6.70494E+03  9.66294E+03  6.62512E+02
  6.98207E+03  4.30811E+03  7.89894E+02  1.58926E+02  2.82712E+03 -3.86602E+03  2.23162E+02 -8.63334E+03
  1.08477E+04 -9.83473E+03  1.11180E+04  1.64873E+03  3.68566E+03  1.13747E+04  6.88306E+03  2.47221E+04
 -2.20823E+03  1.79789E+04 -1.90974E+04  1.50659E+04 -2.05026E+04  1.45274E+02 -1.80450E+04 -7.52696E+03
 -9.52372E+03 -1.50325E+04  1.61972E+03 -1.40643E+04  9.29372E+03 -8.62817E+03  4.05938E+03 -6.54886E+03
  2.45859E+03 -9.15492E+02  1.30386E+03 -3.37943E+03  3.16402E+03 -3.10816E+03  7.32797E+03 -3.19208E+03
  1.16234E+04  4.38249E+03  5.48068E+03  7.57327E+03 -4.96620E+03  6.65101E+03 -1.27724E+04  1.89653E+04
 -1.21437E+04  6.80534E+02 -5.62817E+03 -1.61967E+04 -1.51065E+03 -1.41258E+04  1.37465E+04 -1.64437E+04
  1.92345E+04 -1.25253E+04  1.69669E+04  3.61978E+03  1.22734E+04  1.42674E+04  3.67199E+03  1.47961E+04
 -3.25814E+03  1.34141E+04 -8.65085E+03  3.94830E+03 -2.31586E+03 -2.36930E+03 -5.60675E+03 -5.40419E+03
 -2.97391E+03 -4.55717E+03 -8.20718E+01  4.62143E+03 -7.10015E+03  5.64194E+03 -5.01022E+03 -7.31510E+02
 -5.34590E+03 -5.46365E+03 -1.60113E+03 -8.62722E+03  1.43320E+04 -1.33402E+04  6.65375E+03 -3.13026E+03
  1.15900E+04  7.31185E+03  7.36961E+03  1.02209E+04 -2.00749E+03  9.91285E+03 -2.81424E+03  3.78541E+03
 -1.38011E+04  4.18222E+03 -1.18905E+04 -6.10840E+03 -1.56294E+02 -1.26974E+04  2.21553E+03 -6.63488E+03
  7.28061E+03  7.28734E+03 -3.06907E+03 -1.42728E+03  5.11320E+03  1.79662E+03  3.05231E+03  4.73458E+03
  5.04574E+03  4.73198E+03  3.29827E+02 -3.53966E+03  1.13135E+04  5.37668E+03  3.65145E+02  6.11351E+03
 -1.03179E+04  8.69143E+03 -7.41083E+03  1.77907E+04 -1.89091E+04  1.64069E+03 -1.79841E+04  1.97916E+03
 -3.93511E+03 -1.58311E+04 -2.69292E+03 -1.71654E+04  2.39833E+03 -1.14176E+04  6.50139E+03 -3.24464E+03
  6.17695E+03  2.63587E+03  1.11915E+03  8.81535E+03 -4.17216E+03  8.39848E+02 -8.24973E+03  1.62592E+02
 -1.11976E+03 -3.46951E+03  5.20064E+03 -9.79750E+03  1.84548E+03  2.49649E+02  4.95840E+03 -5.62997E+02
  3.49333E+03 -3.08765E+03 -4.24103E+03  2.28003E+03  4.96761E+03 -2.79940E+03  5.01778E+03 -2.69028E+03
  6.63933E+02  5.52978E+03  9.01978E+03  2.27177E+03  4.61528E+03  1.20938E+04  3.46561E+03  8.29025E+03
 -1.87597E+03  4.47160E+03 -1.02745E+04 -1.65385E+01 -4.31240E+03  3.02206E+03 -6.36182E+03 -4.75951E+03
 -3.55960E+02 -3.89911E+03  7.47428E+03 -7.47918E+02  6.81828E+03  4.60747E+03  1.50758E+03  1.55018E+04
 -5.31072E+03  5.07015E+03 -3.41737E+03 -7.66238E+03 -2.88298E+02 -4.94661E+03 -7.83290E+03 -2.32805E+03
  2.09041E+03 -1.31786E+03  5.21804E+03 -4.37027E+03  6.55190E+02  2.21882E+03  2.87765E+03  5.63767E+03
 -7.95588E+03 -3.95438E+03 -4.92294E+03 -2.88106E+03  5.86480E+03 -4.72893E+03  3.98553E+03  9.52020E+02
  8.03790E+03 -2.01745E+03  1.23456E+04  9.26995E+02 -4.33854E+03  7.15704E+03 -7.29048E+03  1.02023E+04
 -7.31865E+03  4.51204E+03 -4.86263E+03 -1.24373E+03 -1.74146E+03  1.55469E+03  4.31980E+03 -1.33939E+04
  3.98288E+03 -3.49780E+02  5.29076E+03 -2.03790E+03  5.43268E+03  6.19024E+03 -1.16160E+03  3.08524E+03
 -3.86570E+03  4.33523E+03  7.92746E+02  1.84950E+03 -5.30434E+03  5.92944E+03  1.13811E+02 -8.55429E+01
 -6.98240E+03  7.65679E+03 -5.51081E+03  1.55881E+03 -5.72890E+03 -2.89187E+03 -4.81548E+03  2.06030E+03
 -6.47168E+03 -5.40543E+03  8.90805E+03 -1.31364E+04  6.04290E+03 -8.92047E+03  5.27319E+03 -3.72337E+03
  1.27563E+04  1.11114E+04  1.68884E+03  6.41360E+03  2.16404E+03  1.30734E+04 -4.89744E+03  5.45238E+03
 -3.24533E+02 -4.74015E+02  3.06481E+03 -3.43856E+03  5.72643E+02 -3.97274E+03 -3.01424E+03  7.92281E+02
 -4.10722E+03 -3.38455E+03 -5.85505E+03 -2.64489E+03  3.52390E+03 -3.64007E+03 -2.45560E+03 -7.02565E+03
  3.85378E+03 -6.52748E+03  3.10886E+03 -1.68808E+03  2.26280E+03  3.80739E+03 -1.40693E+03  7.09422E+03
 -6.71203E+03  1.38584E+04 -4.36946E+03  7.58393E+02 -8.21440E+03 -3.11666E+02 -1.01561E+04 -7.43819E+03
 -2.81786E+03 -4.38575E+03  3.07644E+03 -1.18313E+04  4.58543E+03 -6.59401E+03 -1.57289E+02  1.37686E+03
 -6.44158E+02  8.52809E+03  5.27560E+03  1.31178E+03  2.08481E+03  3.80829E+03  9.47496E+02 -4.44064E+03
 -2.53636E+03 -3.64797E+03  3.22638E+03 -1.39603E+02  1.33756E+03 -1.43132E+03  3.85749E+03  6.17332E+03
 -2.14617E+03  7.16887E+02 -5.69578E+03  6.45160E+03 -5.95979E+03 -4.59365E+03 -6.77156E+03 -5.18302E+03
  3.37359E+02 -9.69390E+03  1.43363E+04 -5.08735E+03  7.38360E+03  5.11225E+03  4.04560E+03  6.93122E+03
 -5.06992E+02  1.05197E+02 -8.61511E+03  3.37340E+03 -3.34258E+03  9.01754E+03 -3.86051E+03 -5.63831E+02
  1.30788E+03  1.02428E+03 -6.75090E+02  3.67261E+03  1.14040E+03 -3.02114E+01 -4.67800E+03  5.49626E+03
  6.90306E+02 -1.97922E+03  2.95301E+03 -4.14484E+03  1.43460E+03 -5.41792E+03  5.81498E+03 -1.17582E+03
  6.75392E+03 -1.57194E+03  6.07735E+03  1.48483E+03 -4.64031E+03  2.82114E+03  3.22188E+02  1.38545E+03
