 $NMID ID='MM_0lb_SNR50_12hz_g60_100.RAW', FMTDAT='(8E13.5)'
 TRAMP=1., VOLUME=1. $END
  3.16543E+05 -1.63264E+03  3.42339E+05  2.46521E+05  8.74107E+04  3.40175E+05 -1.32607E+05  2.49772E+05
 -1.85612E+05  8.59152E+04 -1.12009E+05 -2.84127E+04 -1.06687E+02 -5.07682E+04  5.24567E+04 -2.78414E+03
  3.81319E+04  5.13663E+04 -1.62323E+04  7.86190E+04 -5.88402E+04  5.86434E+04 -8.25123E+04  2.72098E+04
 -8.62313E+04 -1.43550E+04 -5.26269E+04 -5.23503E+04 -1.44103E+04 -6.98471E+04  2.89243E+04 -4.69228E+04
  3.77198E+04  2.02721E+03  2.05810E+04  4.96202E+04 -3.45600E+04  4.61090E+04 -6.53707E+04  3.02788E+03
 -5.34739E+04 -5.71935E+04 -7.57223E+03 -7.95295E+04  2.83692E+04 -5.74397E+04  4.76833E+04 -1.24539E+04
  4.77798E+04  7.19184E+03  3.35045E+04  3.22050E+04  1.52556E+04  3.46016E+04 -5.53194E+03  2.38096E+04
 -2.32084E+04  1.02764E+04 -1.83349E+04 -6.47632E+03  3.85410E+03 -7.81205E+03  2.32206E+04  9.44861E+03
  5.12889E+03  3.69713E+04 -2.79259E+04  4.23083E+04 -6.90067E+04  3.64448E+03 -5.85748E+04 -3.98668E+04
 -1.62557E+04 -6.76918E+04  4.59576E+04 -4.87100E+04  6.04831E+04  1.39095E+03  3.21684E+04  3.10700E+04
 -8.83084E+03  4.10889E+04 -2.97013E+04  1.89247E+04 -2.67167E+04  3.46118E+02 -1.84371E+04 -1.00088E+04
 -4.97774E+03 -1.17005E+04  4.86802E+03 -2.42591E+04  7.73881E+03 -2.29505E+04  1.71641E+04 -9.50652E+03
  4.61677E+03  1.20762E+03 -7.88236E+03  1.26759E+04 -2.34090E+04 -9.96964E+03 -1.36526E+04 -4.21784E+04
  2.65180E+04 -4.68701E+04  5.43577E+04 -2.03609E+04  4.85335E+04  1.47422E+04  1.74657E+04  4.78142E+04
 -1.88869E+04  3.61089E+04 -2.41147E+04  2.00854E+03 -1.21632E+04 -2.91157E+04  1.96103E+04 -3.01627E+04
  3.83363E+04 -9.61143E+03  3.78926E+04  2.14202E+04  1.84853E+04  5.83611E+04 -5.63109E+03  5.08515E+04
 -3.40204E+04  3.56949E+04 -4.18960E+04  1.49607E+04 -4.72031E+04 -1.71909E+04 -2.75074E+04 -4.41299E+04
  5.73898E+03 -3.62576E+04  3.42954E+04 -1.60356E+04  3.02978E+04  1.36012E+04  6.65231E+03  2.05954E+04
 -1.63288E+04  6.23630E+03 -1.40944E+04 -7.99095E+03  5.02922E+03 -1.02865E+04  1.68804E+04  6.78120E+03
  1.35729E+04  2.68275E+04 -8.69737E+03  2.66443E+04 -1.81262E+04  1.40428E+04 -3.56003E+04 -5.49658E+03
 -2.75961E+04 -1.73062E+04 -1.22317E+04 -1.91810E+04  7.41667E+03 -2.64515E+04  1.62931E+04 -2.02489E+04
  3.14831E+04 -1.88609E+04  3.70345E+04  6.42625E+03  2.43168E+04  2.44367E+04  4.71077E+03  4.26289E+04
 -1.54547E+04  3.29617E+04 -2.80229E+04  4.56418E+03 -2.58410E+04 -1.14330E+04 -1.05078E+03 -1.21709E+04
  9.42012E+03 -1.16621E+02 -1.86030E+03  4.70804E+03 -2.14093E+04  4.07953E+02 -1.60155E+04 -3.16010E+03
 -1.41193E+04 -2.28710E+04  8.58255E+03 -2.30169E+04  2.07154E+04 -2.11827E+04  2.33269E+04  6.25845E+03
  1.39107E+04  1.95735E+04 -2.30848E+03  2.58461E+04 -1.58621E+04  9.03325E+03 -1.46653E+04 -2.73040E+03
 -1.33148E+04 -1.60267E+04 -3.58112E+03 -2.40794E+04  3.66612E+03 -1.75841E+04  2.43789E+04 -1.06326E+04
  1.81580E+04 -1.02252E+03  1.69006E+04  1.13574E+04  2.92516E+03 -2.86848E+03  1.19695E+04 -8.90793E+03
  2.31624E+04  9.34360E+03  2.50106E+04  1.74816E+04  1.41769E+04  3.17201E+04  2.26331E+03  4.36020E+04
 -2.40910E+04  3.50481E+04 -4.35198E+04  1.77661E+04 -4.18097E+04 -5.50761E+03 -3.12409E+04 -2.21522E+04
 -1.38503E+04 -3.47376E+04  1.26235E+04 -2.89291E+04  2.47307E+04 -1.50661E+04  3.03284E+04  6.10867E+03
  9.59955E+03  1.73685E+04 -1.40273E+04  1.28043E+04 -1.74947E+04  6.75732E+03 -1.12370E+04 -1.44071E+04
 -6.49848E+02 -2.01709E+04  1.03965E+04 -6.39417E+03  1.61177E+04  9.39077E+02  2.66760E+03  7.64610E+03
 -1.20888E+04  2.89008E+02 -6.11028E+03 -1.42474E+03  3.63314E+03 -1.43372E+04  7.35931E+03 -1.91351E+04
  2.12948E+04 -7.00276E+03  2.69357E+04  3.79667E+03  2.20326E+04  1.44412E+04  1.09117E+04  2.77020E+04
  3.32975E+03  2.94287E+04 -1.94083E+04  1.93341E+04 -2.23141E+04  8.61686E+03 -1.79249E+04 -7.62195E+03
 -5.41366E+03 -7.30107E+02 -3.24344E+03  1.58411E+03  8.45273E+02  7.21429E+03 -2.70918E+03  9.15615E+03
 -1.42707E+04 -1.56920E+03 -1.09989E+04 -1.06510E+04 -1.08546E+04 -1.60722E+04  1.99560E+03 -1.58460E+04
  1.28192E+04  1.57735E+03  6.48613E+03  1.14579E+03  2.26201E+03  2.92447E+03 -5.69888E+03  2.64604E+03
 -3.40189E+03 -8.05989E+03  1.06133E+03 -1.09879E+04  5.60130E+03 -1.86370E+04  1.71585E+04 -5.45122E+03
  2.17898E+04  9.47988E+02  1.47408E+04  1.22996E+04  1.01932E+02  1.54742E+04 -3.06304E+03  1.71020E+04
 -7.32520E+03  4.32863E+03 -9.54452E+03 -9.02198E+03  1.25931E+03 -2.51604E+03  7.94990E+03  4.35628E+03
  9.92564E+03  4.58416E+03  5.69925E+03  8.68909E+03 -1.08590E+04  7.35621E+03 -3.66896E+03 -5.41652E+02
 -4.19780E+03 -8.26832E+03  9.50130E+02 -1.03454E+04  1.02137E+04 -6.77917E+03  5.16508E+03  9.58401E+03
  6.97564E+03  1.40882E+04 -8.37028E+03  7.19619E+03 -6.56101E+03  5.73550E+03 -1.18957E+04 -1.46123E+03
 -2.45736E+03 -1.20675E+04  3.34320E+03 -1.28912E+04  1.91216E+04 -2.30717E+03  1.14821E+04  6.05493E+02
  2.82950E+03  1.47091E+04 -7.31069E+02  1.26453E+04 -6.68650E+03  6.79246E+03 -5.50665E+03 -3.87793E+03
 -1.06908E+04 -1.13957E+04 -7.02900E+03 -1.06081E+04  1.26003E+04 -1.40620E+04  8.25728E+03  7.09081E+02
 -2.14462E+03  3.34938E+03 -4.45634E+03  2.86069E+03 -2.23507E+03 -2.50393E+03  5.70888E+03 -6.04662E+03
  1.08853E+04 -3.75802E+03  7.71749E+03  4.32563E+03  1.16549E+04  2.52722E+03  4.27278E+03  1.80347E+04
 -2.53349E+03  1.74787E+04 -1.32195E+04  1.41645E+04 -2.27217E+04 -7.04658E+02 -1.38507E+04 -7.80369E+03
 -1.22414E+04 -1.36127E+04 -1.85966E+03 -1.21924E+04  3.10007E+03 -7.94702E+03  3.57796E+03 -1.11884E+03
  1.97637E+03 -7.31166E+03  2.07828E+03 -2.42176E+03  3.74428E+03 -4.27062E+03  6.87968E+03 -5.07826E+02
  4.36288E+03  3.05098E+03  2.09514E+03  1.27427E+04 -2.79986E+03  1.10844E+04 -1.34474E+04  4.81582E+03
 -5.46769E+03 -3.37619E+03 -1.12594E+04 -5.77035E+03  6.36351E+02 -1.51613E+04  7.37912E+03 -1.20203E+04
  1.62070E+04 -8.09651E+03  1.71138E+04  2.30150E+03  1.07746E+04  1.22385E+04  2.03584E+03  1.43208E+04
 -7.19983E+03  1.43155E+04 -1.09405E+04  8.87968E+03 -6.75629E+03  1.05930E+03 -6.40472E+03 -2.75853E+03
  4.48809E+02  3.88310E+03  8.88583E+02  4.85672E+03  6.43598E+02  3.88234E+03 -6.09982E+03  3.50318E+03
 -7.70836E+03 -6.78629E+03  2.40517E+02 -9.54652E+03  1.73539E+03 -4.58514E+03  1.06722E+04 -1.97334E+03
  1.44115E+04  7.20919E+03  1.39630E+02  1.26671E+04 -4.24065E+03  1.27859E+04 -7.10787E+03  7.39436E+03
 -3.64674E+03 -7.66603E+03 -8.13880E+03 -6.87338E+03  2.57786E+03 -9.69152E+03  5.14750E+03 -4.32540E+03
  1.01942E+04 -2.86648E+03  5.64444E+03  2.59708E+03  1.41255E+03  7.64637E+02  2.54885E+03  2.90577E+03
  5.14707E+02 -2.20406E+03  4.00053E+03  1.90684E+03 -1.10521E+03  1.99329E+03  3.80150E+03  2.60591E+03
 -7.59489E+02  6.28896E+03 -7.99695E+03  1.77914E+04 -9.00651E+03  2.01649E+03 -9.86587E+03 -4.41203E+03
  7.29781E+02 -1.32826E+04  5.60350E+03 -1.25287E+04  6.75050E+03 -7.32222E+03  8.47424E+03 -3.72447E+03
  5.72580E+03  4.20339E+03 -9.56291E+01  1.42994E+02 -3.75818E+03  6.42925E+03  8.98935E+02  2.26212E+03
 -6.48782E+03 -6.19356E+03  3.94236E+02 -7.90453E+03  8.44970E+03 -6.97775E+03  6.20786E+03 -4.01452E+02
  3.79281E+03 -2.75224E+03  2.18028E+03  5.00204E+03  4.56555E+02  2.71965E+01  5.43427E+03 -1.76510E+03
 -4.72044E+03 -1.13550E+03  1.12679E+04  1.13580E+03  7.18441E+03  7.34900E+03 -2.82295E+03  2.81629E+03
 -2.06312E+03  7.71809E+03 -9.12322E+03  2.35083E+03 -6.83800E+03 -3.46562E+03 -3.96656E+03 -3.44046E+03
 -4.60821E+03 -9.12178E+03  3.37445E+03  9.44715E+02  2.91971E+03  6.11725E+03 -3.95627E+03  2.10076E+03
 -4.77076E+03 -2.47859E+03  1.33139E+03 -7.64486E+03  4.33014E+02 -6.87911E+03  3.58535E+03 -7.11879E+03
 -3.08853E+03 -1.52583E+03  5.07793E+03 -3.20561E+03  5.78094E+03 -1.01900E+02 -1.16196E+03  1.19343E+03
 -4.90283E+02 -1.27703E+03 -1.75643E+03 -6.26192E+03  3.05200E+03 -6.61319E+03  7.84692E+03 -5.97078E+03
  1.14239E+04  2.77740E+03  9.30550E+03  2.55197E+03 -3.08030E+02  6.31574E+03 -6.54981E+03  1.37980E+03
 -5.09314E+03 -1.40732E+03 -3.67860E+03  6.08572E+02 -3.59571E+02 -7.17572E+03  2.71112E+03 -1.89173E+03
  6.98567E+03 -2.03179E+03  3.44504E+03  1.32996E+03  8.48359E+03  3.43722E+02 -5.67850E+03  4.17832E+03
 -7.00584E+03  3.67948E+03 -4.18719E+03 -3.34976E+03 -3.35120E+03  6.96462E+03 -2.25854E+03  1.33322E+03
  6.25837E+02  3.79012E+03 -5.03771E+03  1.46893E+03 -6.56449E+03 -4.21465E+02 -1.06298E+04 -3.72058E+03
 -5.83583E+03 -1.09794E+04  9.46769E+02 -7.34080E+03  5.58939E+03 -4.57948E+03  1.20128E+04 -2.64286E+03
  8.17260E+03  8.71820E+03  2.77463E+03  5.13760E+03  1.63939E+03  7.43695E+03  2.67863E+03  1.11162E+04
 -6.58155E+02 -8.27168E+01 -4.39534E+03  2.41182E+03  4.25121E+03 -1.90485E+03 -5.53633E+03 -4.35131E+03
 -3.45096E+03  3.16291E+03  4.73313E+03 -1.20881E+02  3.25631E+02 -7.70866E+02  1.00972E+03 -4.45866E+03
  6.13342E+03  3.77796E+03  2.92702E+03 -8.49026E+02  8.53084E+03  2.02906E+01  2.17855E+03  4.36241E+03
  1.34240E+03  9.11154E+03 -1.04282E+04  2.38959E+03 -9.56234E+03 -1.43928E+03 -7.03918E+03 -3.48089E+03
 -4.79101E+03 -7.15286E+03 -1.66067E+03 -9.28683E+03  3.99796E+03  8.10680E+02  6.10618E+03  3.39714E+03
  8.53983E+03  4.16625E+03  4.50297E+03  6.44423E+02 -1.33613E+02  5.12854E+02  2.87400E+03 -3.72972E+03
 -3.55544E+03 -1.09983E+03  3.53477E+03 -3.31396E+03  4.87858E+03  1.84465E+03 -1.08875E+03  2.93209E+03
 -3.07840E+03  8.65138E+02 -1.79778E+03  9.32448E+02 -4.27298E+03 -1.16964E+03  4.74365E+03 -2.85981E+03
  5.18283E+03 -9.04990E+03  4.44662E+03 -9.01992E+02  4.72275E+03 -7.24388E+03  7.03410E+03  5.55066E+03
  5.47812E+03  6.09234E+03  1.21424E+03  3.91760E+03  1.06591E+03  5.43219E+03 -4.75910E+03  4.59590E+03
  5.97335E+03  1.99640E+03 -4.09470E+03 -5.70733E+02  4.27156E+03 -9.30009E+02  1.39761E+03  2.15988E+03
 -5.02196E+03 -6.21532E+03 -2.12330E+03 -2.18768E+03 -5.02724E+03 -3.67685E+03  5.15749E+03 -1.76551E+02
 -4.22278E+02  2.24467E+03 -6.25272E+02  3.47308E+03  2.48617E+03 -3.95125E+03 -5.29565E+03 -2.29460E+03
