 $NMID ID='MM_0lb_SNR50_10hz_g50_32.RAW', FMTDAT='(8E13.5)'
 TRAMP=1., VOLUME=1. $END
  3.09507E+05 -4.21642E+03  3.37216E+05  2.55119E+05  8.16008E+04  3.42764E+05 -1.33716E+05  2.52407E+05
 -1.86608E+05  8.73521E+04 -1.09849E+05 -2.74371E+04  5.70384E+03 -4.58811E+04  5.53839E+04  2.88991E+03
  3.50947E+04  5.22746E+04 -1.44531E+04  7.82870E+04 -5.98165E+04  6.66896E+04 -9.02676E+04  3.57637E+04
 -8.15643E+04 -1.34873E+04 -6.34925E+04 -5.00901E+04 -1.49792E+04 -7.59040E+04  2.72903E+04 -4.94444E+04
  4.17560E+04  4.77373E+02  1.35819E+04  4.32921E+04 -3.14848E+04  5.42630E+04 -6.23102E+04 -1.61113E+03
 -5.25884E+04 -5.62742E+04 -7.59726E+03 -8.25542E+04  3.60999E+04 -5.68949E+04  4.79284E+04 -2.13585E+04
  4.90274E+04  1.06844E+04  4.25500E+04  2.94812E+04  1.92161E+04  3.12928E+04 -4.24277E+03  2.25450E+04
 -1.95605E+04  1.53889E+04 -1.61856E+04 -4.91258E+03  1.03454E+04 -3.52544E+03  2.62870E+04  5.88508E+03
  7.42714E+03  4.03621E+04 -3.35724E+04  3.94943E+04 -6.41574E+04  1.31152E+03 -5.66022E+04 -4.38734E+04
 -1.75143E+04 -6.83403E+04  3.95506E+04 -4.73414E+04  5.98334E+04 -6.23912E+03  3.86647E+04  3.43736E+04
 -5.69521E+03  4.19971E+04 -2.55452E+04  9.39640E+03 -3.68169E+04 -5.43832E+03 -1.65454E+04 -1.08545E+04
 -1.31455E+04 -1.56697E+04  1.24570E+03 -1.98422E+04  6.14839E+03 -2.61410E+04  1.57921E+04 -2.08321E+04
  1.33368E+04  5.22579E+03 -8.83777E+03  1.87687E+04 -2.68023E+04 -1.55569E+03 -1.08064E+04 -3.53199E+04
  2.19283E+04 -4.95842E+04  4.60574E+04 -1.74116E+04  4.36836E+04  2.30349E+04  1.76346E+04  4.86443E+04
 -1.60393E+04  4.09303E+04 -2.82646E+04  4.84730E+03 -5.22662E+03 -2.93128E+04  1.98016E+04 -4.16771E+04
  3.85689E+04 -9.92905E+03  3.59225E+04  2.66518E+04  2.73744E+04  4.54381E+04 -9.27793E+03  5.73864E+04
 -3.18294E+04  4.10537E+04 -4.80504E+04  1.01031E+04 -4.94880E+04 -1.89687E+04 -2.97263E+04 -4.06450E+04
  7.03150E+03 -4.26799E+04  3.73354E+04 -1.14939E+04  3.43880E+04  6.61790E+03  5.12517E+03  1.69496E+04
 -1.93465E+04  1.19789E+04 -1.03051E+04 -1.36722E+04  7.23365E+03 -4.62855E+03  1.78243E+04  6.28659E+03
  1.39005E+04  1.98663E+04 -2.95091E+03  2.61092E+04 -2.07747E+04  1.08294E+04 -3.41547E+04 -5.64947E+03
 -1.97893E+04 -1.40281E+04 -1.01010E+04 -2.80627E+04  5.85294E+03 -2.18315E+04  1.97940E+04 -2.44241E+04
  3.12717E+04 -1.70504E+04  3.46711E+04  2.38504E+03  2.84132E+04  2.33164E+04  5.07319E+03  3.86519E+04
 -1.93937E+04  2.77146E+04 -2.94440E+04  5.70323E+03 -2.40329E+04 -1.21878E+04 -5.34017E+03 -1.43210E+04
  3.51623E+03 -2.08962E+03 -1.15563E+04  1.05959E+04 -2.43470E+04  7.27726E+03 -2.09042E+04 -8.47545E+03
 -1.28153E+04 -1.91147E+04  3.50368E+03 -2.23086E+04  1.26366E+04 -1.31762E+04  1.95517E+04 -1.98144E+03
  1.39027E+04  1.00570E+04 -4.79732E+03  2.06621E+04 -1.95591E+04  1.26034E+04 -2.10364E+04 -5.70181E+03
 -1.29673E+04 -2.06894E+04 -3.52544E+03 -3.30960E+04  1.45075E+04 -2.49773E+04  2.48791E+04 -1.09681E+04
  2.69256E+04  6.03027E+03  1.46356E+04  4.95458E+03  9.82041E+03  2.31031E+02  1.23032E+04  7.07700E+01
  2.38953E+04  2.30578E+03  2.70984E+04  2.43732E+04  1.99691E+04  3.05324E+04 -2.87882E+03  4.30068E+04
 -2.94688E+04  3.17160E+04 -4.41384E+04  1.88593E+04 -4.70694E+04  6.68515E+01 -3.81541E+04 -2.26039E+04
 -1.82784E+04 -3.58971E+04  1.76103E+04 -2.74437E+04  3.10785E+04 -1.97505E+04  2.14881E+04  5.85337E+03
  9.61725E+03  1.65429E+04 -1.10184E+04  1.20018E+04 -1.71252E+04  1.24847E+02 -1.78786E+04 -1.67085E+04
 -2.48820E+03 -1.56408E+04  1.36711E+04 -1.18141E+04  1.85235E+04  1.25578E+03  3.44126E+03  4.28281E+03
 -6.50357E+03  2.42022E+03 -6.37685E+03 -2.35954E+03 -8.01347E+03 -1.27423E+04  1.46542E+04 -1.73056E+04
  2.45913E+04 -1.15598E+04  2.47880E+04  4.55982E+03  1.96591E+04  1.50326E+04  1.11260E+04  2.46045E+04
 -5.20081E+03  2.65586E+04 -2.14954E+04  8.02190E+03 -1.83475E+04  1.26799E+03 -1.28048E+04 -2.98786E+03
  5.69527E+02  1.10844E+03 -7.07716E+03  2.67137E+03  1.01114E+03  4.30525E+03 -7.87235E+03  8.34265E+03
 -1.53264E+04  3.20065E+03 -1.11987E+04 -1.44094E+04 -1.93724E+03 -1.18565E+04  5.24100E+03 -1.38650E+04
  1.28380E+04 -3.69067E+03  6.88229E+03  2.50781E+03 -6.33090E+02  8.32985E+03 -7.13483E+03 -3.81132E+02
 -6.12553E+03 -1.25685E+04 -1.04126E+04 -1.30976E+04  7.29501E+03 -1.42093E+04  2.24636E+04  2.83921E+03
  2.54456E+04  1.08954E+04  1.23751E+04  1.16715E+04  7.10138E+03  1.96778E+04 -1.32687E+04  1.46894E+04
 -1.55177E+04  6.89518E+03 -8.28920E+03  3.15153E+03  4.14916E+03 -9.16090E+02  9.28367E+03 -6.88156E+03
  9.62665E+03  8.34253E+03 -1.14451E+03  1.33054E+04 -1.04694E+04  7.03734E+03 -1.56488E+04 -1.74326E+03
 -1.04927E+04 -2.30484E+03  3.56469E+03 -1.43026E+04  1.01600E+04 -8.90831E+03  9.35332E+03  1.06702E+03
  2.54255E+03  1.03919E+04 -8.19416E+03  6.48065E+03 -1.32334E+04  7.86840E+03 -1.05090E+04 -2.06650E+03
 -3.66631E+03 -1.57959E+04  3.75348E+03 -1.57122E+04  1.38876E+04 -9.95628E+03  2.02061E+04  1.80426E+02
  9.47929E+03  1.13972E+04 -5.01881E+02  1.55689E+04 -1.16207E+04  5.73866E+03 -9.30903E+03 -2.56835E+02
 -1.20011E+04 -9.96113E+03 -3.80852E+03 -1.46974E+04  4.78915E+03 -8.00281E+03  3.36282E+03 -7.19769E+03
  1.01402E+03  1.44821E+03 -3.26869E+03  1.96277E+03  9.93017E+02 -5.20831E+03  2.34995E+03 -6.36082E+03
  1.10050E+04 -6.35076E+03  1.77927E+04  4.67246E+03  1.50681E+04  1.19781E+04  2.40666E+03  1.16027E+04
  7.68370E+02  1.95877E+04 -1.94851E+04  1.42859E+04 -2.05613E+04  8.62396E+02 -2.29822E+04 -8.90589E+03
 -9.57285E+03 -1.60635E+04  6.82370E+02 -1.42730E+04  6.54482E+03 -9.77920E+03  3.26900E+03 -2.51040E+03
  6.21506E+03 -2.96922E+03  4.88060E+03 -7.03965E+03  9.45064E+03 -1.35479E+03  1.97114E+03 -2.63385E+02
  6.34587E+03 -1.66557E+02  7.60601E+03  4.37594E+03  5.68158E+02  1.09626E+04 -8.37507E+03  6.80764E+03
 -1.60837E+04 -2.00076E+03 -2.64842E+03 -1.17711E+04 -3.23959E+03 -1.50352E+04  1.18607E+04 -1.51261E+04
  1.56176E+04 -6.81555E+03  2.03531E+04 -2.15074E+03  4.00183E+03  1.46632E+04  4.60595E+03  1.75385E+04
 -1.51831E+03  1.53410E+04 -5.34150E+03  9.14840E+03 -2.38085E+03  1.46832E+02 -5.20121E+03 -2.99439E+03
 -2.27649E+03 -1.59693E+03 -5.86009E+03  1.68774E+03 -9.64013E+03  8.43039E+03 -8.20428E+03  1.75653E+03
 -5.94825E+03 -7.30017E+03 -3.82584E+03 -1.42710E+04  7.73262E+03 -2.99588E+03  5.49725E+03 -4.79603E+03
  1.52908E+04  9.89123E+03  5.71155E+03  8.38682E+03 -4.73210E+03  2.27068E+04 -1.10769E+04  5.33897E+03
 -1.37152E+04  1.36274E+03 -1.26051E+04 -8.43254E+03  8.13335E+02 -1.38094E+04  9.93050E+03 -8.02306E+03
  3.47575E+03 -7.51104E+02  5.03544E+03 -4.85813E+03  7.44123E+03  4.98433E+03  7.64836E+02  8.69555E+02
  6.66136E+02  5.01764E+02  3.62940E+03  3.65504E+03  4.06143E+03  5.89103E+03 -1.89029E+03  8.01775E+03
 -4.82557E+03  9.26302E+03 -8.71832E+03  1.30522E+04 -1.42372E+04  1.75652E+03 -1.41142E+04  1.94213E+02
 -1.23251E+04 -1.22736E+04 -3.93718E+03 -9.88812E+03  9.64669E+03 -7.19469E+03  1.05294E+04 -1.20909E+04
  1.03050E+04  7.61420E+03  6.30815E+03  1.00356E+04 -9.53295E+03  5.77573E+03 -5.42768E+03  2.29818E+03
 -8.63816E+03 -6.24495E+03  5.17350E+03 -6.09889E+03  9.16627E+03 -4.36063E+03  4.26527E+03  2.26113E+03
  1.80618E+01 -1.40995E+03  3.09743E+03 -5.69436E+02 -2.39312E+03  3.75723E+03  1.41209E+03 -8.38679E+02
  9.29405E+03  3.40027E+03  5.32682E+02 -1.61620E+03  2.12386E+03  1.08057E+04 -2.30715E+03  2.50945E+03
 -4.72210E+03  8.47761E+03 -5.47729E+03  4.57752E+03 -6.77662E+03 -1.41802E+03 -5.63859E+03 -1.82534E+02
 -1.55263E+03 -2.44385E+03  2.53159E+02 -3.68743E+03  4.51808E+03  3.56824E+03  1.31941E+03  8.74821E+03
 -7.76134E+03  6.49225E+02 -3.59907E+03 -8.91122E+02 -1.94861E+03 -4.62774E+03  1.13254E+03 -6.14458E+03
  3.94734E+03 -6.38417E+03  6.42275E+03  6.79926E+02  8.33793E+03  1.15742E+04 -1.82785E+03  9.55330E+03
 -4.46073E+02  2.73526E+03 -5.79771E+03 -2.42959E+03  2.38825E+02 -1.07941E+04  4.38345E+03 -2.05582E+03
  6.07716E+03 -1.15045E+03  4.63370E+03  4.93540E+03 -1.54025E+03  1.00472E+04 -2.47268E+03  1.04781E+04
 -4.93362E+03  4.74048E+03 -1.05324E+04 -2.13177E+02 -6.20910E+03  3.84235E+02  3.71744E+03 -7.11331E+03
  6.79111E+03 -5.27281E+03  6.29687E+03  3.55979E+03 -1.93300E+03  5.93055E+03  3.92554E+03 -4.21601E+03
 -4.88929E+03  2.45875E+03 -3.17341E+03 -4.02348E+02 -1.28499E+02  4.74818E+02 -2.91366E+03  3.98431E+03
  4.26701E+03  6.36195E+03 -8.69807E+03  2.46366E+03 -1.26062E+04  1.43604E+03 -9.34091E+03 -6.06752E+03
 -4.09002E+03 -8.93654E+03  3.70575E+03 -1.06049E+04  4.44754E+02 -1.19962E+04  1.25849E+04 -3.87853E+03
  1.13053E+04 -1.05593E+03  4.87404E+03  1.22437E+04  9.41409E+02  1.13602E+04 -7.51744E+03  9.40688E+03
  5.95586E+02  2.84741E+03 -2.34359E+03 -7.40964E+03 -4.38502E+03  8.38097E+02 -2.04782E+03 -1.12333E+03
 -6.75953E+03  4.38290E+03  6.62172E+02 -3.82210E+02  2.05631E+02 -7.09712E+02  3.05146E+02  6.13475E+02
  9.36840E+03 -2.82433E+03  7.82605E+03 -2.95171E+03  7.28219E+03  7.35933E+03 -2.65654E+02  1.60854E+04
 -5.72229E+03  8.17159E+03 -1.15282E+04  1.16672E+04 -5.14702E+03 -2.51583E+03 -9.80591E+03 -8.56398E+03
 -4.89316E+03 -1.12466E+04  6.59163E+03 -1.04886E+04  5.88565E+03 -2.13593E+03 -4.37542E+03 -2.68274E+03
  2.02902E+03  3.65785E+03  1.36921E+03 -1.06573E+01 -2.58207E+03 -2.68166E+03 -5.25007E+03 -6.02362E+03
  3.48726E+03  6.59231E+03  5.03442E+03  2.00704E+03 -5.24321E+03  4.36735E+03  3.81109E+02  6.80352E+03
 -5.65645E+01  5.03188E+03 -1.07007E+04 -1.44151E+03 -6.68522E+03 -9.53732E+03  7.54268E+02 -3.11390E+03
  3.97873E+03 -8.74775E+03  4.30980E+03 -2.90974E+03  5.50677E+03  3.75270E+03  7.84062E+03  6.09142E+03
  3.01698E+03  3.36136E+03  1.83299E+02  3.83689E+03  1.92240E+02 -2.29209E+03 -5.72455E+03 -5.47766E+03
  2.14448E+03 -7.20981E+03 -6.11615E+03  1.21920E+03 -2.48837E+03  6.39504E+03 -6.92949E+02  2.18464E+03
 -2.61306E+03 -6.02712E+03 -4.20973E+03 -5.84928E+03  9.13147E+02 -3.85412E+03  5.82932E+03 -4.86244E+02
  3.41708E+03  5.31200E+03 -7.62178E+02  1.12150E+04 -4.46463E+03  5.40234E+03 -8.27964E+03  3.47976E+03
