 $NMID ID='MM_0lb_SNR50_8hz_g40_89.RAW', FMTDAT='(8E13.5)'
 TRAMP=1., VOLUME=1. $END
  3.07287E+05  4.13970E+03  3.38864E+05  2.51260E+05  8.91591E+04  3.34179E+05 -1.34708E+05  2.51647E+05
 -1.90551E+05  8.05635E+04 -1.12799E+05 -3.78441E+04  4.44352E+03 -5.29912E+04  4.70288E+04 -3.12128E+03
  3.29007E+04  5.55214E+04 -1.85087E+04  7.86976E+04 -6.02353E+04  5.52886E+04 -8.23306E+04  3.51692E+04
 -8.10583E+04 -1.10778E+04 -5.93927E+04 -5.18026E+04 -1.59041E+04 -7.13746E+04  3.40824E+04 -4.36829E+04
  3.95794E+04  6.75703E+03  1.64886E+04  4.58273E+04 -3.80158E+04  4.93690E+04 -6.46472E+04 -5.55721E+03
 -5.65570E+04 -5.81695E+04 -7.84471E+03 -7.69107E+04  3.48178E+04 -5.68973E+04  4.57702E+04 -2.09585E+04
  4.97131E+04  1.21606E+04  3.88105E+04  2.26303E+04  1.76532E+04  3.35707E+04 -7.34910E+03  2.65936E+04
 -2.35883E+04  1.27408E+04 -2.05463E+04 -2.86042E+03  1.11835E+04 -4.05998E+03  2.18346E+04  1.80696E+04
  1.53563E+03  3.77537E+04 -3.67566E+04  3.61807E+04 -6.17948E+04  4.70128E+03 -6.25855E+04 -5.02752E+04
 -8.86421E+03 -7.18728E+04  3.93154E+04 -5.16495E+04  6.35482E+04 -7.36924E+03  3.72341E+04  3.83314E+04
 -6.86395E+03  4.12965E+04 -3.26532E+04  1.44788E+04 -3.69429E+04 -4.13410E+03 -1.49390E+04 -1.05844E+04
 -7.52234E+03 -1.36535E+04 -7.72707E+03 -1.97417E+04  9.25019E+03 -2.14458E+04  1.22297E+04 -6.57684E+03
  1.26626E+04  4.03107E+03 -1.03868E+04  7.91776E+03 -1.90803E+04 -9.17204E+02 -6.90592E+03 -4.13307E+04
  1.95637E+04 -4.60734E+04  4.95799E+04 -2.18543E+04  5.18595E+04  2.46999E+04  1.87412E+04  4.25409E+04
 -1.59473E+04  3.45257E+04 -2.84029E+04  4.60791E+03 -8.83962E+03 -3.61059E+04  2.37704E+04 -3.67639E+04
  4.54449E+04 -1.08665E+04  4.39510E+04  2.47902E+04  2.70974E+04  5.54468E+04 -8.23442E+03  5.33361E+04
 -2.74557E+04  3.75031E+04 -4.72954E+04  9.81986E+03 -5.22296E+04 -2.10385E+04 -2.69843E+04 -4.63574E+04
  5.89614E+03 -3.60472E+04  3.26394E+04 -2.28614E+04  2.81525E+04  1.03933E+04  2.46845E+03  1.68902E+04
 -1.91210E+04  1.06483E+04 -1.01118E+04 -1.33709E+04  6.41831E+03 -1.20677E+04  1.70881E+04  1.08077E+04
  2.04867E+04  2.31645E+04 -2.72301E+03  2.87217E+04 -2.53715E+04  1.08564E+04 -3.59650E+04 -3.54703E+03
 -2.37904E+04 -1.25508E+04 -1.08471E+04 -2.82578E+04  9.90574E+03 -2.61037E+04  1.73306E+04 -1.71429E+04
  3.26793E+04 -7.05424E+03  4.42855E+04  2.18529E+03  2.54090E+04  2.51208E+04  2.35323E+03  4.64386E+04
 -2.24943E+04  3.21402E+04 -2.61710E+04  1.30179E+04 -2.74608E+04 -1.16207E+04 -3.53449E+03 -1.46795E+04
 -1.41550E+03  4.35554E+02 -6.73769E+03  5.95007E+03 -1.59978E+04  4.15183E+03 -1.95622E+04 -1.49247E+04
 -1.35215E+04 -2.56868E+04  7.34940E+02 -2.63836E+04  1.44586E+04 -2.44159E+04  1.59430E+04 -2.58919E+03
  9.71964E+03  2.15450E+04  8.17055E+02  1.96597E+04 -1.87534E+04  1.44042E+04 -2.59119E+04 -1.18619E+04
 -1.70858E+04 -1.56665E+04  8.94795E+02 -3.53897E+04  1.33821E+04 -2.15247E+04  2.63574E+04 -1.44689E+04
  2.40980E+04  4.50358E+02  1.83216E+04 -6.17077E+02  1.77393E+04  1.54051E+03  1.37867E+04 -2.94738E+03
  2.03769E+04  1.05074E+03  2.90981E+04  1.96828E+04  1.85682E+04  3.75947E+04 -1.96559E+03  4.72963E+04
 -3.20216E+04  3.74499E+04 -4.24373E+04  1.58702E+04 -4.19879E+04 -7.68766E+03 -3.60896E+04 -3.11586E+04
 -1.64542E+04 -3.56933E+04  1.03239E+04 -3.35680E+04  2.82598E+04 -2.46340E+04  3.22230E+04  1.01041E+04
  5.33765E+03  2.51253E+04 -1.58665E+04  1.77613E+04 -2.22967E+04 -3.49168E+03 -1.68639E+04 -1.16902E+04
  1.05254E+02 -1.67200E+04  8.97382E+03 -1.69733E+04  1.79656E+04  1.53345E+03  6.42541E+03  9.21942E+03
 -1.02967E+04  4.45126E+03 -1.23736E+04 -5.11515E+03 -7.92429E+02 -1.44264E+04  1.26810E+04 -1.18340E+04
  2.02971E+04 -1.59688E+04  2.03880E+04  1.22267E+04  2.48442E+04  2.11152E+04  8.78860E+03  3.56689E+04
 -8.51597E+03  3.82081E+04 -1.72835E+04  2.23667E+04 -2.09324E+04  5.74316E+03 -1.23304E+04 -8.49301E+03
 -7.09201E+03 -2.88767E+03  5.85380E+03  5.22765E+03  1.32957E+03  4.62645E+03 -1.01090E+04  2.26873E+03
 -1.42922E+04  2.51245E+03 -1.51993E+04 -1.51451E+04 -5.56069E+03 -2.44763E+04  2.53639E+03 -2.16000E+04
  1.81374E+04 -5.46235E+03  1.27836E+04  4.10983E+03 -7.80097E+03  7.07382E+03 -7.50780E+03  1.43197E+03
 -5.67992E+03 -9.29101E+03 -1.29991E+03 -1.25812E+04  1.02592E+04 -1.19933E+04  2.37691E+04 -6.88069E+03
  2.74165E+04  6.30841E+03  1.66079E+04  2.00871E+04  7.47737E+02  2.20917E+04 -9.00765E+03  1.61408E+04
 -1.60483E+04  9.52249E+03 -4.79697E+03 -3.53069E+03  5.05640E+03 -8.16223E+03  1.05988E+04 -5.98616E+03
  9.14637E+03  4.95184E+03 -1.67068E+02  9.62677E+03 -9.45853E+03  1.48547E+04 -1.83505E+04  5.55821E+03
 -6.24179E+03 -7.71936E+03 -6.97350E+02 -1.31493E+04  1.18187E+04 -5.73607E+03  1.09685E+04 -9.37653E+02
  3.40282E+03  7.71970E+03 -2.90831E+03  8.45004E+03 -1.20523E+04  3.15986E+03 -1.77313E+04 -2.69822E+03
 -7.24488E+03 -1.28982E+04  6.46817E+03 -2.10406E+04  1.91152E+04 -9.88001E+03  2.57485E+04  1.38105E+03
  8.02439E+03  1.63152E+04 -1.63844E+03  1.48627E+04 -9.46037E+03  2.03934E+03 -1.22699E+04 -6.49323E+01
 -6.56612E+03 -1.16061E+04 -5.36076E+03 -9.27497E+03  3.58883E+03 -7.97318E+03  1.21301E+04 -5.53271E+03
  1.21477E+04 -2.16741E+03 -2.44408E+03  3.22859E+03  1.71723E+03  2.70969E+03  1.53154E+03 -9.40365E+03
  1.05656E+04 -3.10887E+03  1.58648E+04 -7.59809E+02  1.22795E+04  1.25474E+04  8.98685E+03  2.27616E+04
 -1.28022E+04  1.93589E+04 -1.23285E+04  1.90694E+04 -2.61644E+04  1.89221E+03 -1.99286E+04 -1.07574E+04
 -1.05504E+04 -1.49742E+04  8.74115E+03 -1.45753E+04  2.14681E+03 -1.12845E+04  1.42034E+03 -7.45511E+03
  1.67830E+03  1.89366E+03 -1.22448E+03 -5.35273E+03  3.71190E+03  2.50195E+02  1.10417E+04  1.85865E+03
  1.70593E+04  5.32211E+01  1.00469E+04  8.96174E+03 -5.20523E+03  9.28991E+03 -1.17732E+04  1.07856E+04
 -1.76354E+04  4.79976E+03 -1.02512E+04 -8.24774E+03  1.21353E+03 -1.93063E+04  9.45068E+03 -1.22312E+04
  1.39783E+04 -5.65532E+03  2.36919E+04  4.78683E+03  1.79519E+04  1.45335E+04  4.34180E+03  1.79731E+04
 -1.19261E+04  1.39463E+04 -1.27963E+04  4.59433E+03 -1.33148E+04 -7.81612E+03 -5.48255E+03 -9.43158E+03
  1.24404E+03  6.28772E+02 -5.35724E+03  2.99644E+03 -1.81984E+03 -3.15196E+03 -9.38807E+03  4.46714E+02
 -5.72054E+03 -1.10004E+04 -5.88497E+02 -1.87961E+04  1.17725E+04 -1.19302E+04  1.66733E+04  5.57434E+02
  1.29514E+04  6.31556E+03  3.68370E+03  1.35388E+04 -6.54544E+03  1.52835E+04 -1.27473E+04  5.25941E+03
 -1.99399E+04  2.12557E+03 -1.41239E+04 -7.18286E+03  1.73683E+03 -1.11527E+04  7.58250E+03 -1.34676E+04
  9.32028E+03 -7.32613E+03  1.40075E+04 -3.05961E+03  3.76208E+03  2.33515E+03 -2.34030E+03  5.92262E+03
  2.73059E+03 -6.82489E+03  5.73166E+03  3.00249E+03  1.13089E+04  2.71479E+03  1.45713E+03  1.06414E+04
 -3.58061E+03  7.27993E+03 -8.71836E+03  1.37099E+04 -1.72391E+04  5.23893E+03 -2.11565E+04 -1.00851E+04
 -1.27399E+04 -1.72409E+04  4.95618E+03 -1.55973E+04  1.57546E+04 -1.23790E+04  1.31844E+04 -5.09353E+03
  1.12158E+04  8.64791E+03  3.80363E+02  7.05643E+03 -8.93555E+03  1.44960E+04 -3.59098E+03 -8.07629E+02
  1.73296E+03 -1.08772E+04  1.11257E+03 -7.17098E+03  1.10088E+04  2.02347E+03  6.11134E+03  1.12246E+03
 -1.58766E+03  3.27882E+03  2.67657E+03  5.65106E+03  1.27986E+03 -2.29358E+03 -2.36596E+03  8.27887E+03
  3.13037E+03  1.33985E+03  1.08033E+04  1.84429E+03  3.69887E+03  4.07513E+03 -6.31098E+03  1.64122E+04
 -1.05466E+04  6.58972E+03 -1.19901E+04  2.43341E+03 -5.70331E+03 -9.87269E+03 -7.07955E+03 -9.65465E+03
 -2.23557E+03 -4.26451E+03  3.64297E+03 -6.62907E+03 -5.95807E+02  8.50128E+03 -4.90106E+03  5.37119E+03
 -9.70853E+03  3.37492E+03 -1.47329E+03 -5.82839E+03 -9.53353E+03 -1.06588E+04  1.93872E+03 -8.54717E+03
  9.92089E+03  1.61313E+03  5.94709E+03 -4.42934E+03  5.12534E+03  6.56841E+03  7.13420E+02  7.36504E+03
  1.30153E+03  5.67402E+03  6.15843E+03 -1.47705E+03  5.58850E+03 -9.21914E+03  8.93444E+03 -3.06901E+03
  6.08619E+03  5.08727E+03  1.23916E+04  5.89200E+03 -3.47176E+02  1.06412E+04 -2.20394E+03  8.17284E+03
 -9.82162E+03  3.21270E+03 -1.04970E+04 -9.73248E+03 -5.76132E+03 -1.16304E+04 -2.19360E+03 -1.01698E+04
  6.68303E+03 -1.64986E+03  3.20041E+03  8.46993E+03 -1.49511E+03 -5.38909E+02  2.27113E+03  5.36228E+03
 -4.69600E+03  3.64293E+03 -4.28244E+03  5.28674E+03 -5.31932E+03  8.00488E+03 -8.92454E+02  7.74918E+03
 -3.86651E+02 -4.73156E+03 -8.47023E+03  5.47068E+03 -1.03806E+04 -3.92158E+03 -1.71323E+04 -1.04434E+04
 -3.69200E+03 -1.77430E+04  3.89657E+02 -1.07920E+04  7.22299E+03 -1.61151E+04  1.79309E+04 -6.29497E+03
  1.04267E+04  4.32993E+03  1.42224E+04  1.03413E+04  1.70341E+03  1.13916E+04  2.67501E+03  4.25861E+03
 -6.98907E+03  6.82459E+03 -9.51994E+03  1.16975E+02 -9.63504E+01 -5.46108E+03 -8.60387E+03 -4.23682E+03
 -4.53706E+03  6.56364E+02 -6.77720E+03  1.95539E+03 -3.16085E+03 -7.22725E+03 -1.48618E+03 -2.83069E+03
  6.22994E+03 -1.80657E+03  9.11181E+03  1.03191E+02  2.46847E+03  1.99484E+02  3.45697E+03  4.07052E+03
 -8.05153E+03  8.97189E+03 -1.06700E+04  7.02993E+03 -6.37404E+03 -9.74692E+03 -1.41580E+04 -9.17088E+03
  3.29644E+02 -8.27355E+03 -4.88846E+03 -8.63381E+03  8.69412E+03 -2.56621E+03  2.64998E+03  1.56901E+03
  6.67362E+03  6.59323E+02 -6.34770E+03  8.86401E+03 -6.83264E+03  1.01207E+03 -2.32745E+03 -4.20822E+03
  4.88512E+03 -4.16491E+03  2.15998E+03 -4.42661E+03  2.51683E+03  4.97921E+03  1.10587E+03  6.63397E+01
 -4.61820E+03  6.87334E+03 -7.14834E+03 -4.28288E+01 -1.04221E+04 -7.63470E+03 -3.23472E+03 -6.42941E+03
  8.67271E+03 -7.91143E+03  6.71789E+03 -3.14059E+03  8.73076E+03  5.71680E+03  6.77329E+03  1.21640E+04
  2.51084E+03  9.58519E+03 -8.53578E+03  7.27809E+03 -2.61725E+03  3.41780E+03 -6.49389E+03 -2.29556E+03
 -2.48266E+03  2.10692E+03 -2.60351E+03 -3.42381E+03 -1.59022E+03  7.13650E+03 -5.77983E+03  2.38823E+02
 -9.99212E+03 -1.71323E+03 -2.13475E+03 -5.51728E+03  6.68806E+03 -7.70534E+03  8.87290E+03 -4.28607E+03
  1.22556E+04  6.07117E+03  1.11512E+04  4.18284E+03 -8.01383E+03  6.82180E+03 -3.59825E+03  9.69417E+03
