 $NMID ID='MM_0lb_SNR50_7hz_g55_18.RAW', FMTDAT='(8E13.5)'
 TRAMP=1., VOLUME=1. $END
  3.04774E+05  3.83317E+03  3.33593E+05  2.48125E+05  7.83773E+04  3.42912E+05 -1.30715E+05  2.54937E+05
 -1.90752E+05  8.82426E+04 -1.14436E+05 -3.12716E+04 -2.89684E+03 -4.94804E+04  5.16860E+04  3.11257E+03
  3.01224E+04  5.77025E+04 -1.24225E+04  6.86719E+04 -5.84673E+04  6.44254E+04 -8.40519E+04  4.03991E+04
 -8.66731E+04 -2.20990E+04 -6.11032E+04 -4.91964E+04 -1.15227E+04 -7.51590E+04  2.87470E+04 -5.37484E+04
  3.96553E+04  1.05870E+04  2.05049E+04  4.71562E+04 -4.08484E+04  4.98516E+04 -6.59832E+04 -2.97124E+03
 -5.41659E+04 -5.67198E+04 -9.92210E+03 -8.12597E+04  3.53594E+04 -5.86268E+04  4.92295E+04 -1.12410E+04
  4.60430E+04  1.07188E+04  3.21244E+04  2.93455E+04  1.93668E+04  3.21485E+04 -1.33417E+04  2.98582E+04
 -2.79373E+04  2.46390E+03 -2.52277E+04  2.33488E+03  1.05712E+04 -4.03710E+03  2.66087E+04  8.81616E+03
  5.07840E+03  4.06944E+04 -3.24449E+04  3.45778E+04 -6.77889E+04  7.10951E+03 -6.60256E+04 -4.88033E+04
 -8.58463E+03 -6.64743E+04  3.86739E+04 -5.38647E+04  5.98291E+04 -3.54482E+03  3.52035E+04  3.46007E+04
 -8.03882E+03  4.05023E+04 -3.98585E+04  1.72865E+04 -3.61178E+04 -4.72057E+03 -2.70488E+04 -1.69691E+04
 -5.39219E+03 -1.50087E+04 -5.18147E+03 -9.37140E+03  9.86853E+03 -2.76507E+04  1.08672E+04 -2.09364E+04
  6.07742E+03  4.26823E+03 -5.93991E+03  2.04035E+04 -1.90882E+04 -1.06746E+04 -5.41000E+03 -3.74411E+04
  2.52798E+04 -5.07538E+04  5.86939E+04 -2.14987E+04  5.23303E+04  1.56248E+04  1.80541E+04  4.37841E+04
 -1.89636E+04  2.93897E+04 -3.57560E+04  4.60052E+03 -1.04077E+04 -2.84353E+04  2.11514E+04 -3.40063E+04
  5.17106E+04 -6.75020E+03  4.46207E+04  2.69759E+04  2.17301E+04  5.22869E+04 -1.14268E+04  5.46571E+04
 -3.97580E+04  3.54448E+04 -5.58038E+04  1.33241E+04 -4.55894E+04 -1.38287E+04 -2.55598E+04 -3.87579E+04
  1.31262E+04 -3.82230E+04  3.46520E+04 -2.14467E+04  3.25250E+04  1.07260E+04  8.28999E+03  2.13903E+04
 -1.82249E+04  1.15794E+04 -9.52172E+03 -1.12591E+04 -4.51618E+03 -1.03330E+04  2.14923E+04  4.49155E+03
  1.23642E+04  2.71468E+04 -5.42377E+03  2.76725E+04 -2.38141E+04  1.15133E+04 -3.08562E+04  4.74560E+03
 -3.16255E+04 -1.60838E+04 -2.18508E+04 -2.59517E+04 -3.06445E+03 -3.05820E+04  2.00041E+04 -2.26161E+04
  3.55124E+04 -1.24867E+04  4.76026E+04  4.03309E+03  3.51453E+04  2.38057E+04  5.65915E+03  4.13364E+04
 -2.17456E+04  3.21145E+04 -3.96840E+04  1.85049E+04 -2.59443E+04 -2.21529E+04 -2.42425E+03 -8.03720E+03
  8.93615E+03  2.23227E+02 -1.26816E+04  1.28293E+03 -2.61040E+04  8.22338E+03 -2.08727E+04 -6.66920E+03
 -1.72139E+04 -2.38360E+04  7.90083E+03 -2.82414E+04  2.22192E+04 -2.59376E+04  2.49149E+04 -2.31695E+03
  8.01206E+03  2.02952E+04 -4.92097E+03  3.33959E+04 -8.98558E+03  2.07656E+04 -2.84847E+04 -5.28479E+03
 -1.55186E+04 -2.39041E+04 -1.91352E+02 -3.45249E+04  9.88768E+03 -1.79931E+04  2.71075E+04 -1.58331E+04
  2.18543E+04  4.41931E+02  1.35046E+04  1.16312E+03  9.84835E+03  1.51293E+03  1.77492E+04 -3.24402E+03
  2.35095E+04  4.44318E+03  2.93866E+04  1.44690E+04  2.15808E+04  3.90318E+04 -1.07946E+03  5.00603E+04
 -2.62157E+04  3.64567E+04 -4.48490E+04  1.67026E+04 -5.93179E+04 -7.65638E+03 -4.10808E+04 -2.39311E+04
 -1.71019E+04 -3.66247E+04  1.13633E+04 -3.94422E+04  3.52082E+04 -1.43670E+04  2.83799E+04  3.89313E+03
  6.21593E+03  2.85276E+04 -1.21900E+04  1.81562E+04 -1.68991E+04  1.38425E+03 -1.93612E+04 -1.47343E+04
  4.09692E+03 -1.77852E+04  9.17431E+03 -1.88519E+04  9.39079E+03 -2.45020E+03  7.20305E+03  6.01999E+03
 -1.06787E+04  4.73228E+03 -1.22593E+04 -2.84575E+03  2.53821E+03 -1.59032E+04  1.13526E+04 -2.29400E+04
  2.99255E+04 -1.20577E+04  3.54830E+04  2.59960E+03  2.70479E+04  1.97465E+04  1.10868E+04  3.01060E+04
 -1.09185E+04  3.86802E+04 -2.90619E+04  3.11512E+04 -2.81478E+04  5.67261E+03 -1.15336E+04  1.14634E+03
 -2.86773E+03 -1.97332E+03 -2.53955E+03  2.78059E+03 -2.88406E+03 -3.22359E+03 -8.24522E+03  3.30959E+03
 -1.80403E+04 -1.26822E+03 -1.22430E+04 -1.21275E+04 -3.06971E+03 -2.82770E+04  3.33159E+03 -2.24587E+04
  1.91589E+04 -5.31787E+03  8.38362E+03  4.88006E+03  5.97978E+03  8.05265E+03 -1.43048E+04 -2.11293E+03
 -1.12164E+04 -1.30971E+04 -9.11073E+02 -1.43062E+04  1.11895E+04 -2.13920E+04  1.89286E+04 -1.19853E+04
  2.24462E+04  4.53916E+03  2.27480E+04  1.33647E+04  4.45461E+03  2.90593E+04 -4.15836E+03  1.69941E+04
 -1.52389E+04 -2.65374E+03 -4.12569E+03 -6.70754E+03  1.16900E+03 -4.51747E+02  6.73540E+03 -3.77005E+03
  1.47455E+04  9.00188E+03  7.93202E+03  1.97931E+04 -1.52847E+04  1.64253E+04 -1.41006E+04  9.26651E+03
 -1.41108E+04 -5.80519E+03 -8.90388E+03 -1.57990E+04  8.80584E+03 -1.03344E+04  5.15521E+02  7.93620E+03
  6.90980E+02  1.73616E+04 -1.51430E+04  1.39618E+04 -1.48279E+04  9.72596E+03 -1.56054E+04 -1.07559E+04
 -9.90040E+03 -2.74913E+04  4.25699E+03 -1.51621E+04  2.02959E+04 -1.18776E+04  2.18952E+04  7.99576E+03
  1.26202E+04  1.61780E+04 -6.98388E+03  1.69479E+04 -6.31005E+03  1.19832E+04 -1.71358E+04  5.09744E+03
 -1.74623E+04 -1.58514E+04 -4.97688E+03 -1.19676E+04  4.45296E+03 -5.23571E+03  5.31411E+02 -9.92344E+03
  8.03051E+03  2.29317E+03 -3.20466E+03 -5.03687E+03 -4.33399E+03 -1.31132E+04  4.31578E+03 -7.89926E+03
  1.03747E+04 -9.89106E+03  2.08241E+04  5.36754E+03  2.10907E+04  1.29136E+04  1.23167E+04  2.64836E+04
 -1.87727E+02  3.12823E+04 -2.19296E+04  2.56207E+04 -2.67451E+04  4.76610E+03 -2.78658E+04 -1.33019E+04
 -1.19800E+04 -1.46840E+04  2.67683E+03 -6.52527E+03  8.49732E+03 -1.95828E+04  9.55332E+03 -6.20237E+02
  7.86420E+03 -9.38540E+03  1.13120E+04 -5.02497E+03 -1.26950E+03 -3.58697E+03  5.01146E+03  7.80425E+03
  1.47367E+04  7.95978E+03  2.98142E+03  1.02807E+04 -3.24971E+03  1.14255E+04 -1.59227E+04  1.34366E+04
 -2.26436E+04  1.09161E+03 -1.18764E+04 -1.26027E+04 -7.81700E+02 -1.74719E+04  1.26337E+04 -1.78138E+04
  3.19385E+04 -4.49835E+03  2.89690E+04  1.08610E+03  1.32843E+04  1.58015E+04  2.39679E+03  3.05609E+04
 -4.60162E+03  1.31239E+04 -1.31486E+04  8.35110E+03 -9.90198E+03 -3.65266E+03 -1.82200E+03 -3.01101E+03
 -5.63109E+03  2.87119E+03 -5.31717E+03  1.06501E+03 -1.08791E+04  4.10212E+03 -8.19247E+03 -4.36709E+03
 -1.21745E+04 -1.89664E+04 -3.40380E+03 -2.21697E+04  1.31339E+04 -1.30645E+04  8.03609E+03 -4.14043E+03
  2.31959E+04  1.40401E+04  2.81960E+03  1.69794E+04 -2.52003E+03  2.46041E+04 -1.18036E+04  1.02928E+04
 -1.04732E+04  1.60282E+02 -1.30623E+04 -1.41463E+04  5.30214E+03 -1.42773E+04  8.72247E+03 -5.79530E+03
  1.05059E+04 -8.32626E+03  8.54292E+03  1.31668E+04  6.56793E+03  4.75589E+03 -6.29359E+03  5.54708E+03
  1.54518E+03 -1.62396E+03  7.69214E+03  6.69342E+03  1.05187E+04  2.31789E+03  6.41401E+03  1.32287E+04
 -1.43659E+03  1.45116E+04 -1.58380E+04  1.33620E+04 -1.98535E+04  4.08360E+03 -1.81172E+04 -6.89116E+03
 -9.41104E+03 -2.42333E+04  1.77943E+03 -2.20748E+04  1.39537E+04 -1.23273E+04  2.33840E+04  3.37720E+03
  1.94358E+04  2.01836E+03 -3.88025E+03  4.95085E+03 -4.23456E+03  5.85942E+03 -5.82768E+03 -2.60636E+03
 -3.98356E+03 -9.42002E+03  2.43134E+03 -8.85960E+03  1.01648E+04  3.04534E+03  9.59841E+03  2.50887E+03
  3.93005E+03  7.67366E+03  1.89799E+03  2.62568E+03 -5.90684E+03 -2.42057E+03  4.04467E+03 -7.10236E+03
  8.06153E+03 -6.89712E+03  7.32322E+03  3.35068E+03  4.71615E+03  1.07582E+04  2.07570E+03  1.08900E+04
 -5.38459E+03  9.38002E+03 -5.51649E+03 -1.82197E+03 -1.18667E+04 -3.92446E+03  1.69593E+03 -1.12286E+04
  1.08393E+03 -2.81750E+03  5.50682E+03 -6.01862E+03 -1.10090E+03  8.17788E+03 -1.12690E+04  1.09971E+04
 -1.15690E+04  1.20717E+02 -1.45533E+04 -4.45594E+03  1.75653E+03 -1.42242E+04 -2.09563E+03 -1.28202E+04
  1.27992E+04 -8.09885E+03  3.68354E+03 -4.62800E+03  1.90366E+03  2.36901E+03  2.11228E+03  5.52522E+02
 -9.80891E+03  2.38548E+03 -7.23707E+03 -5.77446E+03 -1.33193E+03 -1.22474E+04 -1.37703E+03 -4.99546E+03
  8.54135E+03  2.24528E+03  1.32328E+04  9.64992E+03  2.06576E+03  2.00891E+04 -3.35403E+03  1.47064E+04
 -7.41047E+03  6.37923E+03 -6.28147E+03  4.18651E+03 -4.70059E+03 -1.48809E+04 -3.57950E+03 -9.74292E+03
  8.91971E+03 -1.77078E+03  2.08815E+03  4.23789E+03  1.16127E+03  2.02305E+03 -8.93940E+01  3.84128E+03
 -6.21116E+03  6.02606E+03 -1.41791E+03  9.28808E+02 -3.82351E+03  1.38304E+03 -3.20928E+03  7.29866E+03
 -2.80267E+03 -1.70429E+03 -9.24076E+03  2.52301E+03 -1.71970E+04  1.20218E+03 -1.46188E+04 -7.76113E+03
 -3.11721E+03 -1.97684E+04  1.00574E+03 -2.51986E+04  1.11923E+04 -1.46256E+04  1.29411E+04 -9.82436E+03
  1.25200E+04  7.15832E+03  1.16472E+04  1.01198E+04  8.55639E+03  1.23047E+04 -7.77395E+03  7.33929E+03
 -1.12321E+04  7.61365E+03  5.79797E+01 -6.35660E+03 -3.83073E+03 -2.16650E+02  2.43631E+03  1.00316E+03
 -1.83897E+03 -1.57776E+03 -5.34267E+03 -3.24968E+03 -8.95941E+03 -3.90368E+03 -2.69816E+03  2.51794E+03
  9.10435E+03 -1.07986E+04  4.59837E+03  2.61294E+02  1.12303E+04  1.80589E+04  5.94984E+03  1.98792E+04
 -3.79104E+03  1.75944E+04 -1.64875E+04  1.77900E+04 -1.98641E+04 -4.34556E+03 -1.49360E+04 -1.51702E+04
 -8.77845E+03 -9.58286E+03  7.07699E+03 -1.83277E+04  1.16122E+04 -9.40581E+03  1.39772E+04 -1.88988E+03
  1.06402E+04 -1.48639E+03 -1.85527E+03  4.08579E+02 -5.69029E+03 -1.77758E+03 -3.83734E+03 -2.42244E+03
  5.22962E+03 -5.96727E+03  5.26480E+03  3.85086E+03  7.99377E+03  4.07254E+03  7.62824E+03  1.32865E+04
 -3.87836E+03 -3.06595E+02 -1.23534E+04 -2.73077E+03 -1.73646E+04 -2.48399E+03 -3.99728E+03 -1.45563E+04
  2.24444E+03 -1.62545E+04  4.64005E+03 -4.67641E+02  7.78843E+03  1.27520E+03  4.66248E+03  4.56261E+03
  3.77502E+03  1.61432E+04 -6.45772E+03  6.02511E+03  1.21011E+03 -8.01222E+02 -3.09466E+03  7.16011E+03
  2.68760E+03  5.26237E+03 -5.21538E+03  3.26528E+03 -1.88129E+03 -1.10820E+03 -6.26752E+03 -6.55048E+03
 -1.49097E+04  1.12480E+03 -6.46098E+03 -3.83754E+03  3.52265E+03 -8.36023E+03  1.20435E+04 -6.66093E+03
  1.91880E+04  1.20027E+04  9.36677E+03  4.93233E+03 -5.17073E+02  1.09884E+04 -5.12816E+03  3.04784E+03
