 $NMID ID='MM_0lb_SNR50_11hz_g40_28.RAW', FMTDAT='(8E13.5)'
 TRAMP=1., VOLUME=1. $END
  3.10280E+05 -6.54262E+03  3.41552E+05  2.48932E+05  8.37207E+04  3.34905E+05 -1.32900E+05  2.52888E+05
 -1.92569E+05  8.47846E+04 -1.12266E+05 -3.22680E+04 -4.98226E+03 -5.15861E+04  5.58392E+04 -4.26029E+02
  3.32571E+04  5.61988E+04 -1.53324E+04  7.70950E+04 -5.91755E+04  6.42117E+04 -8.79248E+04  3.08969E+04
 -8.38915E+04 -1.07164E+04 -5.69762E+04 -5.25343E+04 -1.86295E+04 -7.12449E+04  3.20287E+04 -4.26437E+04
  3.64151E+04  4.80882E+03  1.79753E+04  5.08917E+04 -3.38576E+04  5.28030E+04 -6.70423E+04 -2.17739E+03
 -5.67054E+04 -5.61057E+04 -5.28180E+03 -7.93164E+04  2.87187E+04 -6.06840E+04  4.63903E+04 -1.25573E+04
  4.52415E+04  1.17564E+04  3.52468E+04  2.44534E+04  1.13445E+04  2.40188E+04 -2.66733E+03  2.68741E+04
 -2.27466E+04  1.17299E+04 -1.82407E+04 -6.05140E+03  1.15583E+04 -8.04485E+03  2.10601E+04  1.16220E+04
  7.27181E+03  3.47147E+04 -4.11817E+04  3.68780E+04 -6.23414E+04  5.10963E+01 -5.39682E+04 -4.24192E+04
 -1.08209E+04 -6.56497E+04  4.30599E+04 -4.68720E+04  6.02277E+04 -2.77058E+01  3.11853E+04  3.16637E+04
 -6.05774E+03  3.14594E+04 -2.49984E+04  1.65276E+04 -3.46617E+04 -5.18223E+03 -1.95257E+04 -1.33995E+04
 -8.22487E+03 -1.04362E+04  4.78705E+03 -1.77773E+04  6.77870E+03 -2.57891E+04  1.60830E+04 -1.23700E+04
  1.12205E+04 -5.48195E+02 -5.43192E+03  6.15324E+03 -1.43309E+04 -6.14145E+03 -1.37149E+03 -3.80892E+04
  2.41291E+04 -3.89360E+04  5.00096E+04 -1.31354E+04  4.41747E+04  1.93227E+04  1.75724E+04  4.54148E+04
 -1.37306E+04  3.28754E+04 -2.46886E+04  1.61389E+02 -1.33503E+04 -3.22115E+04  2.20728E+04 -3.86165E+04
  4.27829E+04 -6.93971E+03  3.95551E+04  2.40840E+04  2.23576E+04  5.09541E+04 -6.19032E+03  5.46450E+04
 -3.50231E+04  3.72260E+04 -4.58152E+04  1.32223E+04 -4.21277E+04 -1.45959E+04 -2.72519E+04 -4.77306E+04
  1.84842E+03 -4.02549E+04  2.91064E+04 -1.95028E+04  2.94151E+04  1.73877E+04  3.99401E+03  2.09091E+04
 -8.27553E+03  9.64301E+03 -8.61990E+03 -7.03811E+03  3.38000E+03 -1.35788E+04  1.85330E+04  6.83266E+03
  1.54983E+04  2.01425E+04 -5.37634E+03  2.70749E+04 -2.37965E+04  1.43187E+04 -2.69756E+04 -2.28562E+02
 -1.88776E+04 -2.20173E+04 -1.24026E+04 -2.20634E+04  1.33638E+02 -2.12412E+04  2.33659E+04 -1.84450E+04
  2.83815E+04 -1.77719E+04  3.36484E+04  3.78454E+03  2.19473E+04  2.16271E+04  6.74416E+03  3.95166E+04
 -1.82192E+04  2.84090E+04 -2.54253E+04  1.06602E+04 -2.00024E+04 -8.29171E+03 -4.62212E+03 -1.32768E+04
 -1.84010E+03 -1.82544E+03 -7.23696E+03  4.61421E+03 -2.34039E+04  1.29397E+03 -1.19666E+04 -6.53752E+03
 -1.04405E+04 -2.52913E+04  5.24144E+03 -2.03463E+04  2.05157E+04 -1.36385E+04  1.99973E+04 -4.09265E+03
  1.49093E+04  1.33364E+04 -7.81339E+02  1.70968E+04 -1.74676E+04  1.32453E+04 -2.19630E+04 -5.25192E+03
 -1.64976E+04 -1.57490E+04 -4.48867E+03 -2.41110E+04  1.11364E+04 -1.81053E+04  2.05095E+04 -1.41006E+04
  1.75334E+04  8.26174E+03  1.30367E+04  1.07312E+04  8.77772E+03 -3.88049E+02  6.79442E+03 -6.19164E+03
  1.86901E+04  4.97988E+03  2.61948E+04  1.65844E+04  1.79233E+04  3.04943E+04 -1.14139E+03  3.54264E+04
 -1.95985E+04  2.98803E+04 -3.10455E+04  1.23021E+04 -3.52858E+04 -3.13383E+02 -2.77283E+04 -2.17427E+04
 -9.94500E+03 -3.29468E+04  8.89697E+03 -3.23142E+04  1.93941E+04 -1.31367E+04  2.30875E+04  4.94333E+03
  1.19787E+04  1.66279E+04 -7.62616E+03  6.20951E+03 -1.28628E+04  4.73318E+03 -1.37202E+04 -1.10413E+04
 -1.61180E+03 -1.54608E+04  1.57166E+04 -1.22188E+04  1.03447E+04  2.25388E+03  3.75488E+03  3.27088E+03
 -7.90919E+03  4.31442E+03 -6.28997E+03 -1.55639E+04 -2.31369E+02 -1.90404E+04  7.62096E+03 -2.09278E+04
  1.90801E+04 -1.26073E+04  2.61182E+04 -4.67388E+02  2.05480E+04  1.46417E+04  5.62645E+03  2.50355E+04
 -7.34304E+03  2.90995E+04 -1.80023E+04  1.40696E+04 -2.01127E+04  2.41176E+03 -1.25611E+04 -5.05556E+03
 -1.06843E+04 -3.77860E+03 -2.89357E+03  5.69851E+03 -9.55494E+03  4.44317E+03 -9.19027E+03  6.99061E+03
 -1.00554E+04 -1.66139E+03 -1.10156E+04 -1.19131E+04 -2.95000E+03 -1.70825E+04  4.45803E+03 -1.25024E+04
  1.20104E+04 -1.10256E+04  3.98334E+03 -1.64361E+02 -2.35285E+03  3.86979E+03 -6.28673E+03  1.92976E+03
  2.14930E+02 -1.05706E+04 -5.27218E+03 -1.23889E+04  5.21471E+03 -1.11181E+04  2.19427E+04 -1.06008E+04
  1.66977E+04  1.89427E+03  1.19324E+04  9.84464E+03  3.18702E+03  1.89706E+04 -7.08445E+03  1.07695E+04
 -9.20909E+03  4.93176E+03 -4.14994E+03  1.46400E+03  6.36681E+03 -4.83572E+03  4.26979E+03 -1.59463E+03
  4.12762E+03  1.71403E+03  5.05064E+03  7.54860E+03 -1.19646E+04  1.29407E+04 -1.31055E+04  3.02608E+03
 -1.50951E+04 -7.14913E+03 -8.28144E+02 -8.38131E+03  7.00970E+03 -1.05648E+04  5.75147E+02  1.90906E+03
  1.83930E+03  5.76665E+03 -5.99676E+03  1.11892E+04 -5.04087E+03  4.08748E+03 -1.20566E+04 -7.04771E+03
 -5.11097E+03 -1.04268E+04  3.36322E+03 -1.21819E+04  6.41756E+03 -1.02000E+04  8.62058E+03 -3.39034E+03
  1.00712E+04  7.54748E+03 -5.10452E+03  1.70328E+04 -1.31491E+04  8.66733E+03 -1.02877E+04  1.68544E+01
 -2.26351E+03 -6.74682E+03  5.41059E+02 -1.66340E+04  5.93782E+03 -7.58606E+03  6.29240E+03 -5.82333E+03
 -1.61874E+03 -1.72556E+03 -5.92277E+03 -5.21903E+03 -4.53146E+03 -4.80814E+03  5.28148E+03 -7.26749E+03
  6.38062E+03 -6.80826E+03  1.44674E+04  2.70399E+03  1.24670E+04  1.21218E+04  4.02826E+03  1.43231E+04
 -3.95927E+03  1.74299E+04 -1.61221E+04  1.32616E+04 -2.51669E+04  3.62633E+03 -1.33260E+04 -6.47031E+03
 -8.32903E+03 -1.48976E+04  1.28855E+03 -9.15508E+03 -1.64199E+03 -7.52091E+03  6.21957E+03 -2.51715E+03
 -7.83229E+02 -3.38210E+03  3.79175E+01 -5.18236E+03  4.69001E+03 -4.04009E+03  1.01506E+04 -9.46892E+03
  5.56231E+03  6.69538E+03  7.51893E+03  2.16793E+02 -1.75246E+03  4.08084E+03 -8.52906E+03  3.69472E+03
 -1.32744E+04 -2.53696E+03 -5.10570E+03 -1.27591E+04  3.11245E+03 -1.37339E+04  7.42777E+03 -1.30069E+04
  8.57833E+03 -9.21301E+03  2.29963E+04  3.67582E+03  6.28872E+03  1.19871E+04 -4.56041E+03  1.39366E+04
 -9.90129E+03  8.37551E+03 -5.79829E+03  7.14296E+03 -1.60569E+03 -3.52799E+03 -3.93853E+03 -3.47821E+03
  3.71686E+03 -2.59894E+03 -3.95134E+03  6.59277E+03 -3.45409E+03  9.75963E+02  2.25846E+02 -4.67582E+03
 -4.46634E+03 -1.69094E+04 -1.87933E+03 -1.25569E+04  7.12603E+03 -1.44257E+04  1.20498E+04 -3.53841E+03
  1.13229E+04  1.68592E+03  2.86772E+03  1.24829E+04 -4.79237E+03  1.55166E+04 -7.74496E+03  4.64247E+03
 -9.97667E+03  4.89686E+02 -9.33432E+03 -7.61943E+03  4.76100E+03 -7.00564E+03  4.30179E+03 -5.61648E+03
  6.89976E+03 -1.48129E+03  2.74463E+03  1.35261E+03  5.25244E+02  4.91117E+03  6.11409E+03 -4.66286E+03
  3.33526E+03 -6.17715E+03  7.56205E+03  3.98959E+03  1.23129E+02  6.46659E+03  2.27841E+02  1.03443E+04
 -2.70853E+03  7.11066E+03 -5.32265E+03  7.80427E+03 -1.39299E+04  4.24854E+02 -5.70666E+03 -5.65542E+03
 -3.91454E+03 -8.47202E+03  8.97485E+02 -1.37328E+04  4.99816E+03 -2.14065E+03  1.23973E+04 -9.00244E+02
  2.43205E+03  7.21249E+03 -2.66830E+02  6.14330E+03 -1.86219E+03  4.58923E+03 -4.05954E+03  8.64941E+02
  1.41943E+02 -2.03783E+03  2.29143E+03 -5.40219E+03  3.38231E+03 -2.49758E+03  7.16142E+03  9.28365E+02
  2.97642E+03  1.76120E+03 -4.07151E+03  1.05545E+03  9.60794E+02 -4.65221E+03  8.13685E+03 -4.60675E+03
  1.90621E+02 -2.87361E+03  6.41713E+03  3.34906E+03 -1.18492E+03  4.54099E+03 -3.15521E+03  7.09665E+03
 -8.24283E+03 -1.51043E+03 -6.53338E+03  5.83515E+02 -7.04753E+03  5.37138E+03 -3.10502E+03  4.97755E+02
  2.71457E+03  8.19193E+02 -2.41548E+03  6.36237E+03  5.81013E+03  5.52943E+01 -5.69197E+01  3.20300E+03
 -7.44417E+03  3.22480E+03 -5.14762E+03 -4.09381E+03 -5.96251E+03 -6.24377E+03  1.41160E+03 -9.39020E+03
  4.42754E+03 -4.85490E+03  5.77803E+03 -2.11105E+03  1.06594E+02  5.43580E+03  3.69079E+03  7.75965E+02
  8.01197E+02  3.74689E+03  2.38570E+03 -2.40977E+02  6.38425E+03 -2.15564E+03  1.59595E+03 -4.84443E+03
  3.42880E+03  4.99007E+03  7.77423E+03  2.70747E+03  3.21212E+03  1.03158E+04 -5.91303E+03  1.48625E+04
 -7.50860E+03  2.46209E+03 -4.91074E+03  1.15172E+02 -4.24465E+03 -9.91953E+02  1.02083E+03 -2.97107E+03
  4.92660E+03 -1.86009E+03  2.68115E+03 -7.78212E+02 -1.12680E+03  1.15808E+03  1.37149E+03 -1.69006E+02
  1.83096E+03  4.34149E+03  1.30709E+03  1.62228E+03 -1.85886E+03 -1.42763E+03  1.64110E+03 -1.45518E+03
 -1.06006E+03  1.85746E+03 -3.90350E+03  2.22314E+03 -1.10486E+03 -1.63391E+03 -7.23831E+03 -7.18499E+03
 -4.23364E+03 -7.39442E+03 -1.68157E+03 -1.34829E+04  5.12693E+03 -1.53746E+04  6.03329E+03 -2.74889E+03
  6.00610E+03 -3.29040E+02  4.43410E+03  4.71247E+03 -3.67504E+03  3.97236E+03 -6.43349E+03  4.09302E+03
 -1.89439E+03  5.48129E+02  3.36775E+03  1.13020E+03  4.82312E+03  1.38909E+03  2.60424E+03  5.55758E+03
  3.76555E+02 -2.18253E+03 -4.07483E+03  2.29759E+03 -1.86622E+03  1.85735E+03  4.06960E+02 -2.41062E+03
  2.02221E+03 -1.40755E+03  4.78771E+03  1.59382E+03  5.41865E+03  3.93740E+03 -2.60561E+03  1.10152E+04
 -3.42663E+03  5.84234E+03 -4.72833E+03  4.13706E+03 -1.12964E+04 -1.18025E+03 -7.82726E+03 -4.32872E+03
 -6.46753E+03 -8.26467E+03  4.30671E+03 -4.66614E+03  6.91502E+03 -6.11645E+03  9.37290E+03  2.58291E+03
  3.65409E+03 -9.60551E+02 -2.93138E+02  2.79180E+03 -2.16498E+03  2.33717E+03 -3.57256E+03 -3.50358E+03
  1.16281E+03 -2.84845E+03 -3.44552E+03 -1.46069E+03 -3.86258E+03  4.81491E+03  2.66988E+03  6.58806E+03
 -3.98493E+03 -2.58429E+02 -4.39049E+03 -1.07529E+03 -3.23934E+03 -7.00004E+01 -8.71098E+01 -6.57392E+03
  2.31461E+03 -4.69461E+03 -1.04078E+03 -6.14052E+01  5.24608E+03  8.84421E+02  5.87562E+03  1.22810E+04
  1.64694E+03  5.94248E+03 -4.95202E+02 -1.35495E+03 -2.72731E+03 -7.96876E+02 -1.82850E+03 -1.25221E+02
 -5.16541E+03  2.00585E+03  1.93323E+02  3.45519E+03 -5.51731E+03 -3.61045E+03 -5.06063E+03 -2.03676E+03
 -7.29033E+03 -5.85313E+03  2.06366E+03 -2.88058E+03  3.49541E+03 -8.86172E+03  5.02843E+03 -4.30271E+03
  6.78919E+03 -2.72934E+01  6.72757E+03  2.60806E+03  1.76374E+03  2.92117E+03 -2.21064E+03  3.83117E+03
