 $NMID ID='MM_0lb_SNR50_17hz_g55_60.RAW', FMTDAT='(8E13.5)'
 TRAMP=1., VOLUME=1. $END
  3.10776E+05  2.67064E+03  3.37129E+05  2.53976E+05  8.70176E+04  3.39872E+05 -1.31772E+05  2.51587E+05
 -1.97120E+05  8.11712E+04 -1.16156E+05 -2.96369E+04  1.71807E+03 -4.77280E+04  5.59242E+04 -3.36123E+03
  3.42820E+04  5.38843E+04 -2.02707E+04  7.45123E+04 -6.35167E+04  6.20633E+04 -8.64124E+04  2.88532E+04
 -7.78428E+04 -1.76912E+04 -5.56594E+04 -4.81399E+04 -1.42831E+04 -7.52887E+04  2.78226E+04 -4.44486E+04
  4.15738E+04  1.01577E+04  1.72960E+04  4.98858E+04 -3.29953E+04  4.94310E+04 -6.83254E+04  1.63269E+03
 -5.18369E+04 -5.14053E+04 -8.76102E+03 -7.66690E+04  3.18596E+04 -5.61110E+04  4.48871E+04 -1.97890E+04
  4.25738E+04  1.24702E+04  3.37194E+04  3.02707E+04  1.38607E+04  3.02016E+04 -5.01186E+03  2.81589E+04
 -2.33538E+04  1.26223E+04 -2.10439E+04 -8.46196E+03  5.50441E+03 -5.21331E+03  2.25175E+04  1.23756E+04
  1.15213E+04  3.27036E+04 -2.85037E+04  3.20662E+04 -5.93376E+04  6.35771E+03 -5.52287E+04 -4.33290E+04
 -1.21722E+04 -6.22494E+04  4.17451E+04 -4.20471E+04  5.81699E+04 -1.85501E+03  2.98609E+04  2.88334E+04
 -2.30271E+03  3.52438E+04 -3.10602E+04  1.73628E+04 -3.04706E+04 -1.51714E+03 -1.92843E+04 -1.36740E+04
 -7.59571E+03 -1.44683E+04  4.82034E+03 -2.00723E+04  7.10847E+03 -2.44076E+04  1.71361E+04 -1.18848E+04
  9.36862E+03  3.33492E+03 -6.07697E+03  1.27962E+04 -1.81735E+04 -6.24840E+02 -5.55476E+03 -2.99426E+04
  2.34165E+04 -4.68899E+04  4.54176E+04 -2.19803E+04  4.00769E+04  1.91537E+04  1.69810E+04  4.46990E+04
 -1.33920E+04  3.37948E+04 -2.54401E+04  3.17027E+03 -9.83952E+03 -3.31738E+04  2.09504E+04 -3.25391E+04
  3.82132E+04 -8.33612E+03  3.35164E+04  2.79289E+04  1.52794E+04  4.71021E+04 -1.10460E+04  5.09218E+04
 -3.25029E+04  2.99753E+04 -3.68139E+04  6.43919E+03 -3.82413E+04 -1.33100E+04 -2.17884E+04 -3.92787E+04
  7.25084E+03 -3.72281E+04  3.14720E+04 -1.56812E+04  2.86302E+04  1.20795E+04  5.72198E+03  1.68320E+04
 -1.24745E+04  8.93438E+03 -1.10752E+04 -3.95374E+03  8.22004E+03 -9.86190E+03  1.45780E+04  5.44949E+03
  1.23954E+04  1.91023E+04 -4.36069E+03  2.52408E+04 -1.91571E+04  9.69589E+03 -2.68215E+04 -5.74940E+03
 -2.08913E+04 -2.17913E+04 -5.41263E+03 -1.98391E+04  8.69787E+02 -1.64903E+04  1.32547E+04 -1.90347E+04
  2.40313E+04 -1.46495E+04  3.24002E+04  1.71004E+03  1.87270E+04  1.61323E+04  3.02609E+03  3.38161E+04
 -1.59512E+04  3.42207E+04 -2.28060E+04  1.04184E+04 -1.79716E+04 -8.43002E+03 -7.52355E+03 -1.75862E+04
  6.16987E+03 -3.21871E+03 -2.75317E+03  8.04466E+03 -9.30561E+03  4.68680E+03 -1.23070E+04 -4.29790E+03
 -1.14647E+04 -1.28231E+04  5.87611E+03 -1.83669E+04  1.31979E+04 -1.53028E+04  1.75497E+04 -2.58538E+03
  1.28721E+04  1.24227E+04 -6.91870E+01  1.66255E+04 -1.48147E+04  8.38590E+03 -1.52387E+04 -1.91199E+03
 -1.09322E+04 -1.61619E+04 -2.27181E+03 -2.10653E+04  1.54000E+04 -1.81938E+04  1.84993E+04 -1.08080E+04
  1.06444E+04  1.62800E+03  8.92097E+03  8.18565E+03  2.76235E+03 -3.29903E+03  1.27362E+04 -1.25444E+03
  1.54767E+04  5.64026E+03  1.53805E+04  1.14598E+04  1.47186E+04  2.43380E+04 -3.74927E+02  3.22026E+04
 -1.83667E+04  2.69120E+04 -2.40644E+04  1.20723E+04 -3.17511E+04 -2.42812E+03 -2.71950E+04 -1.37759E+04
 -1.65464E+04 -2.22843E+04  7.37848E+03 -1.85105E+04  1.74762E+04 -1.56361E+04  1.71500E+04  2.22470E+02
  2.35952E+03  1.61646E+04 -1.21415E+04  8.57819E+03 -1.94465E+04  2.53407E+03 -8.41883E+03 -8.31016E+03
 -1.35010E+03 -1.13103E+04  4.38846E+03 -9.93560E+03  1.20130E+04  3.37243E+03  7.69833E+02  7.78433E+03
 -4.83699E+03  3.29904E+03 -3.44443E+03 -2.95129E+03  1.94616E+03 -9.70083E+03  4.68611E+03 -9.31112E+03
  1.88932E+04 -1.09428E+04  1.29262E+04 -2.13007E+01  1.09041E+04  1.12074E+04  5.72212E+03  1.68086E+04
 -9.87551E+02  1.96109E+04 -8.32938E+03  7.54596E+03 -1.56622E+04  3.99001E+03 -9.26036E+03 -1.40449E+03
 -2.82776E+03 -1.66800E+03 -2.26497E+03  3.06055E+03 -3.69573E+03 -3.98638E+02 -3.41608E+03  1.24321E+03
 -1.01681E+04 -6.96742E+02 -1.04246E+04 -6.00934E+03 -6.37256E+03 -1.57137E+04  3.60649E+03 -1.18121E+04
  7.13788E+03 -4.00319E+03  3.99100E+03  5.06980E+03 -1.40188E+03  3.85803E+02 -4.12784E+03  2.87270E+03
 -4.65328E+03 -6.60643E+03 -3.31643E+03 -9.50413E+03  1.96891E+03 -1.17603E+04  8.67448E+03 -4.84411E+03
  1.70048E+04 -8.96749E+02  1.18090E+04  8.91241E+03  3.45227E+03  1.16833E+04 -3.83845E+03  5.84667E+03
 -6.25070E+03  4.64337E+03 -6.17235E+03 -4.13144E+02  2.40466E+03 -7.34001E+02  3.36713E+03 -3.24048E+03
  7.33410E+03  4.71731E+03 -1.99190E+03  7.47981E+03 -4.17378E+03  8.17747E+03 -1.12195E+04  2.73993E+03
 -4.90373E+03 -3.99490E+02 -4.75692E+02 -8.38657E+03  4.79321E+03 -2.39970E+03  2.47516E+03  4.56987E+03
 -2.60979E+03 -5.78216E+02 -8.71046E+03  7.34328E+03 -7.60898E+03  1.80814E+03 -8.17369E+03 -4.24006E+03
 -5.48839E+03 -4.48755E+03  2.79873E+03 -6.95080E+03  4.47922E+03 -3.02215E+03  3.82790E+03 -3.08593E+03
  5.54958E+03  1.01081E+04  4.49347E+03  1.13849E+04 -6.42734E+03  4.74242E+03 -7.06539E+03 -1.22952E+03
 -7.06151E+03 -1.16536E+04 -1.37359E+03 -5.62091E+03  2.86257E+03 -2.14927E+03  2.33970E+03 -2.73387E+03
  8.34072E+03  4.47554E+02 -7.56029E+02 -8.02204E+02 -6.80691E+02 -1.66617E+03 -2.05715E+03 -5.57871E+03
  6.83882E+03 -2.99495E+03  9.03505E+03  5.19719E+02  9.53906E+03  9.81420E+03  6.93336E+03  4.81313E+03
 -1.45225E+03  9.30171E+03 -1.01687E+04  8.25604E+03 -1.07070E+04  2.25051E+03 -9.09655E+03 -7.65819E+03
 -2.28120E+03 -7.52153E+03 -1.59688E+03 -3.91291E+03  4.77555E+03  1.24929E+02  3.67577E+03 -5.71217E+03
  1.08718E+03  3.18661E+03  2.26547E+03 -2.76907E+03  3.83607E+03 -1.51322E+03  6.47564E+03  2.50928E+03
  3.70327E+03  4.84691E+03  6.01301E+02  1.79152E+03 -4.98349E+03 -1.54859E+03 -5.02682E+03  2.12285E+03
 -5.42240E+03  3.72051E+03 -5.04600E+03 -1.52476E+03 -2.67128E+03 -4.47729E+03  6.27170E+03 -1.00653E+04
  2.60385E+02 -6.92455E+03  7.06288E+03 -2.91311E+03  6.65701E+03  4.50061E+03  2.94929E+03  7.45238E+03
 -1.84031E+03  2.87509E+03 -2.44880E+03  2.54570E+03 -5.64241E+03  8.91953E+02 -9.71886E+02 -4.23616E+03
  5.18159E+03  1.03652E+03 -2.30563E+03 -1.64415E+02 -1.52869E+03 -1.58304E+03 -4.89004E+03 -4.22764E+02
 -2.90632E+03 -1.33048E+02  2.33884E+03 -8.20151E+03  1.99413E+02 -5.39213E+03  3.80359E+03 -3.40010E+03
  5.33302E+03  4.60874E+03  5.92425E+03  4.25360E+03  1.74011E+03  5.59699E+03 -2.29797E+03  6.43919E+03
 -1.07859E+04 -8.65197E+02 -3.99422E+03 -3.73868E+03  9.23946E+02 -2.77956E+03  5.95908E+02 -1.59221E+03
  1.70272E+03  2.44955E+03  8.94807E+02  2.65566E+03 -5.55358E+02  5.16920E+03  3.31931E+03 -4.75635E+02
 -2.31094E+03  2.36358E+03 -1.49913E+03 -4.37237E+02  3.31042E+03 -6.47119E+01  1.97584E+03 -3.00812E+02
 -2.56408E+01  2.47479E+03 -1.13866E+03  3.15546E+03 -1.89187E+03  7.92057E+02 -1.69291E+03 -2.13942E+03
  3.30140E+02 -9.12325E+02  2.00392E+03 -1.55506E+03  2.62807E+03 -3.14681E+03  4.58338E+03  1.59733E+03
  4.02782E+03  2.66559E+03  2.73722E+03  2.78442E+03 -2.08864E+03  3.42226E+02 -5.79826E+02 -4.15418E+03
 -1.15117E+03 -3.28284E+03  3.29132E+03 -5.42162E+02  1.50764E+03 -2.83859E+03  3.47587E+03  2.90330E+03
  2.48812E+03  1.95249E+03  3.35464E+02 -1.60685E+03 -3.56046E+02  6.81773E+02  3.47442E+03 -6.67105E+01
 -4.08439E+03 -3.91389E+02  3.96578E+03  2.16033E+03 -3.79201E+02  1.51046E+03  1.15153E+03  6.10744E+03
 -1.61685E+03  2.70541E+03 -4.17753E+02  3.35534E+03 -4.27790E+03  1.07858E+03 -4.68559E+02 -3.49441E+03
 -3.35982E+03  1.07233E+03 -1.84379E+03 -2.63495E+03  1.32391E+03 -1.24222E+03 -7.67453E+02  2.48706E+03
  1.43134E+03 -2.87667E+02  1.06740E+02  6.29939E+02  2.50869E+03 -3.52831E+03 -4.13591E+03 -2.62802E+03
 -1.44638E+03  1.29938E+03 -1.16493E+03  2.61709E+03 -2.71542E+03 -6.63437E+02 -4.54087E+03 -4.39408E+02
 -4.65144E+02 -4.11735E+02 -1.36815E+03 -4.67552E+03  1.51224E+03 -1.46021E+03  5.89411E+03 -4.26008E+03
  1.27320E+03  5.59602E+03  8.57979E+03  1.49890E+03  9.91666E+02 -2.19471E+03  4.15196E+02  2.44529E+03
  1.78012E+03  6.96463E+02 -8.62517E+03  3.32652E+03 -6.30267E+03 -4.93772E+03  4.32192E+03  3.30465E+02
 -5.42737E+02 -9.88401E+02  5.23892E+02  2.55969E+03  1.31488E+03  1.20834E+03 -8.08432E+02  4.06030E+03
  6.59177E+02 -1.25724E+03  3.22638E+03 -6.26888E+02 -2.26920E+03 -1.41717E+03  1.45622E+03  5.91692E+03
  5.22059E+02 -2.08439E+03 -4.64794E+03 -2.75154E+03 -1.47696E+03  1.64402E+03 -1.22234E+03 -2.18160E+03
 -3.74956E+03 -2.00377E+03  3.77517E+03 -4.39515E+03  2.50745E+03 -4.29287E+03  4.13759E+03 -2.03193E+03
  6.16149E+03  2.80837E+03  4.57522E+02  2.20306E+03  8.45130E+02  4.19098E+03  4.64477E+03  8.45128E+02
 -9.01053E+02  1.20873E+03  2.44462E+03  2.00100E+02 -5.01146E+03  2.57593E+03 -4.40339E+03  4.27962E+02
 -2.13919E+03 -3.80181E+03 -4.71078E+03  2.84799E+03 -3.49517E+02 -1.94747E+03 -2.21353E+02 -9.49180E+02
 -2.80118E+03  2.08277E+03 -8.65022E+02  9.83770E+02  1.92230E+03 -2.25317E+03 -4.15974E+03  2.33901E+03
 -2.29675E+03  4.37297E+03 -2.16052E+03 -3.51431E+02 -7.18710E+02  6.79628E+02 -6.63065E+01 -7.10087E+03
 -2.89974E+03 -6.14626E+03  1.54012E+03 -1.89396E+03  4.97387E+03 -8.29260E+03  4.06636E+03 -2.22134E+03
 -1.17865E+03 -2.18962E+03 -3.15103E+03 -2.33344E+03 -6.11609E+01  7.19378E+02 -1.29061E+03 -9.01127E+02
  9.52533E+01  2.73629E+03  3.62904E+03 -2.21961E+02 -9.43463E+02  6.09211E+02  1.30486E+03 -3.25385E+02
  2.07265E+03 -1.71542E+03 -1.17192E+03  4.13581E+03 -3.68721E+03  1.71879E+03 -2.65600E+03 -6.59839E+03
 -2.81113E+03 -4.01094E+02  3.35459E+03  1.78169E+03 -3.66350E+03  3.70171E+03  2.11352E+03  1.17776E+03
 -1.45088E+03 -2.76751E+03 -3.27817E+03 -5.90660E+02 -7.25820E+02  1.18830E+03  2.08018E+03 -3.76863E+03
  6.56489E+02  2.40834E+03  7.28493E+02 -5.65293E+02 -2.03362E+03  1.79935E+03 -4.49200E+03  3.72494E+02
 -1.96506E+03 -2.59631E+03 -4.15461E+03  6.17841E+02  2.75827E+03  2.34648E+03  3.11327E+02 -1.19403E+03
  6.84211E+03 -2.41402E+03  1.78483E+01  1.32767E+03  9.19403E+02 -7.54243E+02  6.87813E+03  6.56541E+02
