 $NMID ID='MM_0lb_SNR50_19hz_g40_34.RAW', FMTDAT='(8E13.5)'
 TRAMP=1., VOLUME=1. $END
  3.08757E+05 -1.39482E+03  3.41648E+05  2.49039E+05  8.33354E+04  3.36129E+05 -1.28551E+05  2.49486E+05
 -1.87879E+05  8.06434E+04 -1.10138E+05 -3.61048E+04 -9.61719E+02 -5.38610E+04  5.12064E+04 -1.23383E+03
  3.35442E+04  5.57984E+04 -2.36389E+04  7.15749E+04 -6.19590E+04  6.36471E+04 -8.59776E+04  3.06261E+04
 -7.85319E+04 -9.87240E+03 -5.56783E+04 -5.07901E+04 -1.38134E+04 -6.76844E+04  2.67544E+04 -4.56379E+04
  3.86875E+04  1.11657E+02  2.07583E+04  4.54086E+04 -3.51277E+04  4.28126E+04 -6.51773E+04  2.79295E+02
 -4.98174E+04 -5.09741E+04 -5.40408E+03 -7.63248E+04  3.51567E+04 -5.60299E+04  4.57205E+04 -1.15092E+04
  3.94029E+04  9.12216E+03  3.25502E+04  2.40816E+04  1.65524E+04  3.19058E+04 -1.57796E+03  2.74223E+04
 -2.36408E+04  1.70492E+04 -2.08611E+04 -5.49996E+03  1.19106E+03 -8.13975E+03  1.91186E+04  1.11570E+04
  5.68288E+03  3.10140E+04 -3.10824E+04  3.15313E+04 -5.73078E+04  4.82149E+03 -5.11556E+04 -3.74717E+04
 -1.17503E+04 -5.81365E+04  3.59328E+04 -3.72904E+04  5.72197E+04 -2.61432E+03  3.05683E+04  2.92984E+04
 -6.80322E+03  3.35541E+04 -2.76192E+04  1.33484E+04 -3.04947E+04 -3.48372E+03 -1.27795E+04 -1.26151E+04
 -1.07109E+04 -8.34534E+03 -6.47343E+02 -1.91038E+04  7.08976E+03 -2.25303E+04  1.76429E+04 -1.23050E+04
  1.26643E+04  7.05534E+03 -2.76555E+03  1.35512E+04 -1.65571E+04  9.32303E+01 -8.05355E+03 -3.36731E+04
  1.66452E+04 -4.07891E+04  4.10928E+04 -2.05461E+04  4.03507E+04  1.74531E+04  1.87475E+04  4.39619E+04
 -1.37130E+04  3.18832E+04 -2.41656E+04  2.69980E+02 -9.53466E+03 -2.38672E+04  2.09685E+04 -3.25214E+04
  3.55668E+04 -8.42755E+03  3.02717E+04  2.18047E+04  1.22276E+04  4.24259E+04 -5.43294E+03  4.21995E+04
 -2.52707E+04  2.87233E+04 -3.87068E+04  1.38651E+03 -3.97252E+04 -1.17728E+04 -1.96578E+04 -3.14915E+04
  1.02128E+04 -3.19429E+04  2.98796E+04 -8.99506E+03  2.82775E+04  1.17350E+04  1.72648E+03  1.77949E+04
 -1.09681E+04  5.82741E+03 -9.30697E+03 -9.81962E+03  7.65723E+03 -1.05738E+04  1.56765E+04  6.44177E+03
  1.07570E+04  2.14572E+04 -7.70112E+03  2.37313E+04 -2.04444E+04  8.28086E+03 -2.70349E+04 -6.42730E+03
 -1.82148E+04 -1.50869E+04 -4.91227E+03 -1.31693E+04  4.72628E+03 -1.44002E+04  6.86851E+03 -1.65943E+04
  1.90274E+04 -6.10816E+03  2.63078E+04 -8.63572E+02  2.01746E+04  1.53711E+04  3.59628E+03  2.75947E+04
 -1.34371E+04  2.93825E+04 -2.56345E+04  1.52899E+04 -1.72682E+04 -1.03070E+04 -7.21337E+03 -1.03025E+04
  2.87752E+03 -3.71007E+03 -1.39333E+03  7.29198E+03 -1.23303E+04  5.24199E+03 -1.52009E+04 -2.11792E+03
 -9.22760E+03 -9.77139E+03  6.83432E+03 -2.07868E+04  1.43491E+04 -1.55880E+04  1.57815E+04 -1.38310E+03
  2.02125E+03  4.49050E+03 -9.24567E+02  1.72719E+04 -9.88521E+03  9.66462E+03 -1.54474E+04 -1.49209E+03
 -8.11736E+03 -1.18571E+04 -1.53726E+03 -1.84025E+04  5.86930E+03 -1.46493E+04  1.09189E+04 -2.41824E+03
  1.89395E+04  4.77317E+03  1.00004E+04  3.03865E+03  7.25223E+03  1.10256E+03  5.91686E+03 -1.03104E+03
  1.12203E+04  1.94601E+03  1.52089E+04  1.05823E+04  4.76771E+03  2.69083E+04 -4.09533E+03  2.98930E+04
 -1.47861E+04  1.94369E+04 -2.25065E+04  1.07460E+04 -2.07814E+04 -4.86477E+03 -2.01892E+04 -1.41038E+04
 -1.02984E+04 -1.93241E+04  7.02065E+03 -1.33905E+04  1.36320E+04 -8.93947E+03  1.56894E+04  3.32408E+02
  5.26324E+03  1.65799E+04 -6.79133E+03  9.59136E+03 -8.49247E+03  4.48619E+03 -1.07943E+04 -9.69937E+03
  1.39213E+03 -1.31213E+04  8.96776E+03 -1.00401E+04  1.12855E+04 -1.10486E+03 -1.97344E+03  2.56334E+03
 -7.71620E+03  4.72604E+03 -1.01938E+03 -3.40650E+03  1.89203E+03 -8.61339E+03  7.37825E+03 -1.26600E+04
  1.24802E+04 -3.82580E+03  8.69184E+03  3.97163E+03  1.04719E+04  8.31506E+03  6.11965E+03  5.84166E+03
 -5.85436E+02  1.47070E+04 -6.92445E+03  6.29318E+03 -8.28438E+03  2.28739E+03 -7.78794E+03 -1.33021E+03
 -5.18133E+03 -4.84924E+03  5.96419E+01 -1.71308E+02 -9.20935E+02 -1.35448E+02 -6.33690E+03  4.61744E+03
 -8.21101E+03 -4.70335E+03 -5.79555E+03 -2.34342E+03 -3.71488E+03 -1.06828E+04  6.70616E+03 -8.40355E+03
  8.35388E+03 -2.84029E+03  4.75406E+03  1.34825E+02  8.60285E+02  3.42062E+03 -4.86505E+02 -2.13570E+03
 -7.37304E+03 -6.17329E+03  3.41229E+03 -6.95044E+03  3.67851E+03 -5.40261E+03  8.41075E+03 -2.74982E+03
  9.42812E+03  1.74924E+02  7.19051E+03  5.59588E+03  3.67144E+03  7.34603E+03 -4.62956E+03  9.04971E+03
 -5.41592E+03  1.62426E+03  1.08218E+03  3.13829E+03  1.70537E+03 -1.41295E+03  3.34928E+03 -2.20753E+03
  1.54732E+03  4.37888E+03  3.99309E+03  7.52853E+03 -7.84078E+03  7.03309E+03 -7.92559E+03  2.89146E+03
 -5.58925E+03 -3.08510E+03  5.12333E+02 -3.61246E+03  1.56846E+03 -4.35904E+03  3.19173E+03 -1.94688E+03
  2.13617E+03  7.58175E+03 -8.24286E+03  8.34474E+03 -1.50430E+03  2.37074E+03 -2.78569E+03  8.39070E+02
 -2.72832E+03 -3.69584E+03  9.54320E+01 -6.57000E+03  2.41230E+03 -3.59020E+03  4.78019E+03  7.68283E+02
  1.30342E+03  2.99322E+03 -3.13710E+03  4.47211E+03 -2.44361E+03  7.16869E+03 -1.64818E+03  4.95842E+02
 -6.36079E+03 -3.11782E+03  2.44044E+02 -3.82506E+03  1.77380E+03 -3.85697E+03  1.21731E+03 -3.26193E+03
 -9.02424E+02  1.62486E+03 -9.39887E+02  1.52677E+03 -1.07074E+03 -3.78099E+01 -5.57138E+02 -1.05118E+03
  4.86215E+03  2.06656E+03  5.66867E+03  2.36830E+03  3.18606E+03  2.79516E+02  3.65848E+03  7.85805E+03
 -1.26326E+03  7.16944E+03 -9.41088E+03  2.49831E+03 -9.06511E+03 -9.56967E+02 -6.27261E+03  1.90927E+02
  2.81343E+03 -6.93467E+03  5.94766E+02 -6.23060E+03  5.62385E+03 -6.54048E+03  9.88296E+02  6.55529E+02
  2.12174E+03  7.29346E+02 -4.50631E+02 -5.64063E+03 -1.59530E+03 -3.45553E+02  5.98679E+03 -9.80066E+02
  3.87996E+03  2.05821E+02 -5.09613E+03  4.20735E+03  1.19189E+03  1.03041E+03 -1.04390E+04  2.05706E+03
 -4.39900E+03 -4.12344E+03 -8.83364E+02  1.19075E+02  9.41254E+02 -3.52608E+03 -1.14454E+03 -4.96023E+03
  2.72048E+03  3.48272E+02  5.98731E+03 -3.95940E+03  9.33633E+02  6.32636E+02 -1.15679E+03  4.50937E+03
 -1.49942E+03  4.76649E+03  7.09086E+02  2.79661E+03 -2.08109E+03 -8.35435E+02  1.13805E+03 -2.82566E+03
 -1.26244E+03  4.49439E+03 -1.17952E+03  1.34946E+03 -9.06027E+02 -5.42850E+02 -3.49665E+03  1.30375E+03
 -9.14163E+02 -6.37718E+03 -1.66681E+03 -8.40745E+03  5.53231E+03 -5.60144E+03  4.38323E+03 -1.84226E+03
  3.72624E+03 -1.02550E+01  3.54673E+02  4.48205E+03 -1.00175E+03  2.02716E+03  2.62569E+02 -3.76047E+03
 -2.35862E+03  6.02780E+03 -3.01046E+03  2.90206E+03  3.73903E+03 -2.46996E+03  6.96437E+03  4.81950E+02
 -1.69226E+03 -2.75181E+03  4.51441E+02  5.48443E+01 -5.92103E+02 -1.15072E+03  1.03182E+03  4.28901E+03
  3.76884E+03  2.12238E+03  1.41774E+03 -2.46168E+03  3.79141E+03  3.90764E+03  2.43541E+03  3.26644E+03
 -2.09408E+03  4.50846E+03 -9.95053E+02  2.36830E+03  1.25057E+03  1.03101E+03 -1.69513E+03 -2.44934E+03
 -1.46902E+03 -3.18452E+03  3.19661E+03 -5.36546E+03  9.72627E+02 -3.83718E+03 -1.65850E+03 -2.63744E+03
  3.09302E+03  1.76235E+03  1.11613E+03  6.03666E+01 -5.59571E+03  9.81258E+02 -2.25688E+03 -6.80762E+02
 -1.74619E+03  9.62128E+02 -3.67296E+03 -1.36432E+03  2.66414E+02 -1.01274E+03 -3.56298E+01  4.20868E+02
  1.80594E+03 -1.89682E+03  2.85362E+03  1.86071E+03  7.48096E+02  3.14881E+03  3.10323E+03 -3.02152E+03
  1.18347E+03  1.10875E+01  1.64172E+03 -2.18306E+03  4.58524E+02  4.98197E+03 -4.31237E+03  1.62549E+03
  2.62627E+03 -2.28175E+02 -1.16144E+02  3.02031E+03 -2.18098E+03 -3.06350E+02  1.70810E+03  2.20616E+02
  2.16041E+03 -3.46994E+03  2.31249E+03 -8.25649E+03  3.00928E+03 -2.44527E+03 -2.00694E+03  3.53260E+03
 -1.65807E+02  1.16993E+03  3.62004E+02 -2.34972E+03 -3.25286E+01 -3.68393E+03 -1.05415E+03 -1.44895E+03
  1.02189E+03  2.12852E+03 -1.89144E+03  2.28589E+03  3.22952E+03 -2.35883E+03 -3.95904E+03  2.30918E+03
  1.30467E+03  2.71829E+03 -4.12851E+02 -1.31602E+03 -4.23222E+03  5.88165E+02  1.10234E+03 -8.32346E+02
  8.85072E+02 -2.67557E+03  3.60170E+03  3.05683E+03  1.33595E+03  3.52962E+03 -2.14368E+03  2.40943E+03
  2.08998E+03  2.99024E+02 -2.08090E+03 -3.39141E+03 -2.39228E+03 -4.04155E+03 -3.85593E+02  2.48553E+03
  2.68727E+03  2.49528E+03 -8.24155E+01  3.75293E+03 -1.27008E+03  2.48510E+03 -1.01154E+03 -2.83007E+02
  1.49519E+02 -5.64794E+02  1.17358E+03  1.80426E+03 -2.27522E+02  6.85735E+02 -4.98641E+02  1.44405E+03
 -1.45322E+03  4.19471E+03  1.50247E+03  3.76612E+02 -3.83008E+03 -2.30808E+03 -3.81361E+03  4.42014E+02
  1.30347E+03 -1.96399E+03  1.29812E+03 -3.28053E+03  9.55548E+02 -2.97813E+03  6.67316E+03  2.51305E+03
  3.88030E+03 -1.59359E+03  1.45900E+03  1.54026E+03  4.40617E+03 -1.30552E+03 -6.53448E+02 -2.77414E+03
 -1.45559E+03 -1.09350E+03  4.84789E+03 -1.14868E+03 -2.40615E+03  1.03676E+03  2.16555E+03 -5.87349E+01
 -2.52087E+03  1.52438E+02  1.77213E+03 -4.64985E+03  2.25036E+03 -2.40702E+03  7.42295E+02  2.87248E+03
  2.88531E+03 -2.34184E+03 -2.85197E+03 -1.29202E+03 -2.33495E+03  2.42529E+03  1.69651E+03  4.29466E+03
  1.32480E+03  1.45964E+03 -7.12912E+02  2.13686E+03 -2.22152E+03 -7.78140E+02 -1.20042E+03 -7.16697E+02
 -2.34542E+03  1.56621E+03  5.13824E+02 -2.33217E+03 -2.77532E+02 -3.33767E+03  5.72458E+03 -4.96677E+02
 -1.98711E+02  4.00791E+03  5.98909E+02  4.31443E+03  1.07698E+03  1.95266E+03  1.33213E+03  3.77871E+01
 -1.70703E+03  3.29384E+03  9.58565E+02  7.82818E+02  6.32445E+02 -8.67938E+02  2.54643E+02 -2.00968E+03
 -1.07630E+02  3.11005E+03  3.38602E+03  3.78395E+03 -5.55207E+02 -2.57580E+03  3.98313E+03 -1.51227E+03
  4.69025E+03 -6.41426E+03  1.46778E+03 -1.76731E+03  2.68410E+03  1.06501E+03 -7.03459E+02 -8.52180E+01
  9.93458E+02  8.07029E+02  9.30687E+02 -3.16237E+02  2.99313E+02 -4.30591E+03  6.33858E+02  2.03153E+03
 -2.21285E+03 -2.39312E+02 -9.42619E+02 -2.12776E+03 -1.22227E+03  3.18881E+03  2.07324E+03  9.26619E+02
  7.47818E+02  2.50752E+03  1.59335E+03  5.00370E+02  4.64444E+02 -4.44773E+02  1.57785E+02  1.29327E+03
  1.58974E+02 -1.24272E+03 -1.48954E+03 -2.50456E+03  2.71864E+03  1.65540E+03 -3.10968E+03 -7.32297E+02
