 $NMID ID='MM_0lb_SNR50_13hz_g50_52.RAW', FMTDAT='(8E13.5)'
 TRAMP=1., VOLUME=1. $END
  3.10608E+05 -4.22704E+03  3.34356E+05  2.49035E+05  8.84612E+04  3.37669E+05 -1.34113E+05  2.52219E+05
 -1.88445E+05  7.87198E+04 -1.08058E+05 -2.98328E+04 -4.86280E+02 -5.45221E+04  5.22911E+04  2.43962E+03
  3.37666E+04  5.52490E+04 -1.66460E+04  7.78519E+04 -5.91467E+04  6.37938E+04 -8.63170E+04  3.31712E+04
 -8.27587E+04 -9.00214E+03 -5.69678E+04 -5.01110E+04 -1.56178E+04 -7.00105E+04  2.82308E+04 -4.15264E+04
  4.27632E+04  2.99572E+03  1.42347E+04  5.09432E+04 -3.22669E+04  4.79747E+04 -6.52691E+04 -4.25056E+03
 -5.80321E+04 -5.57295E+04 -4.93343E+03 -7.73618E+04  3.76207E+04 -5.03790E+04  4.62570E+04 -1.85991E+04
  4.30086E+04  9.69682E+03  3.06750E+04  2.56838E+04  2.14813E+04  2.86297E+04 -5.20459E+03  2.76622E+04
 -1.65497E+04  1.40192E+04 -2.17665E+04 -6.71924E+03  4.54612E+03 -4.42071E+03  2.54953E+04  1.43623E+04
  2.89244E+03  3.56791E+04 -2.75395E+04  3.21704E+04 -6.60576E+04  4.49340E+03 -5.84113E+04 -3.87925E+04
 -8.48895E+03 -6.72823E+04  3.68686E+04 -4.87377E+04  5.65775E+04  2.01092E+03  3.92859E+04  3.46070E+04
 -2.14550E+03  4.38939E+04 -2.80876E+04  1.75424E+04 -3.14215E+04 -1.96268E+03 -2.15154E+04 -1.29999E+04
 -1.39541E+04 -1.61163E+04 -2.91580E+02 -1.96398E+04  6.41697E+03 -2.37740E+04  1.60736E+04 -1.76755E+04
  9.29718E+03  2.89331E+03 -1.04221E+04  1.55470E+04 -2.37062E+04 -4.00471E+03 -1.04726E+04 -3.17977E+04
  1.92663E+04 -4.38849E+04  4.76098E+04 -1.74689E+04  4.55770E+04  2.29782E+04  1.47406E+04  4.52228E+04
 -1.94903E+04  3.27933E+04 -2.37885E+04  1.02115E+02 -1.02131E+04 -2.99992E+04  1.75608E+04 -3.32893E+04
  4.23825E+04 -5.76369E+03  3.36026E+04  2.60792E+04  1.35042E+04  4.86024E+04 -1.35905E+04  4.96984E+04
 -3.40500E+04  3.44190E+04 -4.16449E+04  1.62780E+04 -4.85912E+04 -1.78986E+04 -2.68613E+04 -3.48105E+04
  7.89236E+03 -4.41007E+04  3.37546E+04 -1.02845E+04  3.02718E+04  1.10808E+04  5.65751E+03  1.93732E+04
 -1.36863E+04  1.11281E+04 -8.83974E+03 -1.05942E+04  4.15102E+03 -1.41847E+04  1.88025E+04  3.77172E+03
  1.41331E+04  1.96198E+04 -7.49151E+03  2.54321E+04 -2.22478E+04  8.08699E+03 -2.57749E+04 -4.68357E+03
 -1.64205E+04 -1.97505E+04 -6.43167E+03 -2.00482E+04  2.52903E+03 -2.16880E+04  1.42461E+04 -2.39452E+04
  2.77806E+04 -1.05415E+04  3.72270E+04  9.08202E+02  2.59958E+04  2.13279E+04  3.22367E+03  3.60316E+04
 -2.26428E+04  3.22343E+04 -2.85401E+04  5.80437E+03 -1.46267E+04 -8.13264E+03 -3.31086E+03 -1.19144E+04
  5.26330E+03 -5.35116E+03 -8.08457E+03  7.65977E+03 -1.13710E+04  3.74622E+03 -2.19422E+04 -7.05540E+03
 -9.66040E+03 -1.56376E+04  2.42606E+03 -2.68746E+04  2.00560E+04 -2.09009E+04  2.29634E+04 -9.03875E+02
  1.54032E+04  1.47804E+04  1.41203E+03  1.59780E+04 -1.81397E+04  1.16802E+04 -1.90150E+04 -9.88748E+03
 -1.16239E+04 -1.80976E+04 -4.74451E+03 -2.27972E+04  1.25565E+04 -2.04969E+04  2.05372E+04 -5.87484E+01
  1.81791E+04 -5.34689E+02  1.22332E+04  2.89830E+03  1.15087E+04 -2.21970E+03  9.89501E+03  2.51052E+03
  2.24736E+04  3.02589E+03  1.78176E+04  2.08108E+04  1.64611E+04  3.58614E+04 -5.36659E+03  3.37348E+04
 -2.21329E+04  2.88051E+04 -3.15511E+04  1.60473E+04 -3.71525E+04 -4.86727E+03 -3.17719E+04 -1.63952E+04
 -1.21717E+04 -2.98733E+04  9.51900E+03 -2.42016E+04  2.13665E+04 -1.18933E+04  1.87613E+04  1.01391E+04
  5.84982E+03  1.19455E+04 -9.06294E+03  1.24195E+04 -1.40640E+04  5.75438E+03 -1.77765E+04 -1.16557E+04
  6.91017E+03 -1.73219E+04  3.67477E+03 -1.39708E+04  7.99361E+03 -1.30534E+03  8.73810E+02  1.01333E+04
 -4.91298E+03  1.95011E+03 -6.58631E+03  4.08308E+02  2.99673E+03 -1.36199E+04  1.05969E+04 -1.15487E+04
  1.73578E+04 -1.19086E+04  1.76696E+04  3.60658E+03  1.80474E+04  1.21746E+04  6.92052E+03  2.33882E+04
 -5.15627E+03  2.48429E+04 -1.73599E+04  1.90765E+04 -1.67593E+04 -8.22417E+02 -1.09129E+04 -1.85747E+03
 -1.01896E+04 -2.96063E+03  3.02736E+03 -2.90808E+02  2.72071E+02  4.04127E+02 -7.52891E+03  1.48952E+03
 -1.40964E+04 -3.09601E+03 -8.16740E+03 -4.57697E+03 -6.83342E+03 -1.10755E+04  9.34643E+03 -1.41941E+04
  9.05459E+03 -4.27715E+03  7.67832E+03  9.45678E+03 -6.85891E+02  8.80318E+03 -2.94737E+03 -4.84302E+03
 -4.38540E+03 -6.35975E+03 -5.72579E+03 -1.48628E+04  9.99344E+03 -1.40898E+04  1.46362E+04 -1.34806E+04
  2.23918E+04  8.74565E+02  6.49952E+03  1.32564E+04 -4.62802E+01  1.12219E+04 -6.31868E+03  1.25512E+04
 -8.87260E+03  2.72439E+03 -6.18820E+03 -2.81122E+03  2.42222E+03  1.91855E+03  5.75075E+03 -3.21954E+03
  4.65623E+03 -1.61711E+00 -1.98591E+02  9.87568E+03 -6.44377E+03  8.48260E+03 -1.10385E+04  4.45906E+03
 -7.55752E+03 -4.56059E+03 -5.33213E+03 -1.20938E+04  1.01551E+04 -2.86875E+03  7.55834E+03  2.80537E+03
  1.46350E+03  2.37256E+03 -8.36746E+03  4.77733E+03 -7.77937E+03  8.85493E+02 -5.90883E+03  4.12463E+03
 -6.28452E+03 -1.23954E+04  2.67150E+03 -1.85773E+04  1.10386E+04 -5.84178E+03  1.11861E+04  1.01824E+03
  8.05751E+03  1.17525E+04 -3.48365E+03  1.70106E+04 -8.84998E+03  5.44839E+03 -5.32155E+03  4.55307E+02
 -7.18658E+03 -9.30701E+03 -3.68461E+02 -8.51952E+03  1.03946E+04 -4.06861E+03  5.24274E+03 -3.91524E+03
  1.90057E+02  6.16159E+03 -4.70911E+03  7.90371E+03  3.55520E+03 -1.53497E+03 -2.19798E+03 -3.06565E+03
  8.31169E+03 -4.41318E+03  6.56156E+03 -1.70491E+03  1.57412E+04  8.11759E+03  5.83460E+03  1.25792E+04
 -9.36206E+03  1.68248E+04 -1.12335E+04  1.07714E+04 -1.98463E+04 -4.49886E+03 -1.66226E+04 -4.83562E+03
 -1.12716E+04 -8.80267E+03 -8.68277E+02 -5.28754E+03  4.25950E+03 -8.84280E+03  6.83850E+03 -2.40148E+03
  1.55079E+03 -6.30723E+03  1.40987E+01 -2.30601E+03  6.88610E+03 -5.53514E+03  7.07409E+03  2.84192E+02
  7.19021E+03 -2.21889E+03  5.42443E+03  3.83588E+03 -6.28859E+01  5.50811E+02 -8.56217E+03  9.63849E+03
 -9.60987E+03 -4.49783E+03 -1.29895E+04 -4.94241E+03 -1.34322E+03 -9.52905E+03  1.98025E+03 -1.61744E+04
  8.97240E+03 -8.42956E+03  1.65308E+04  8.76231E+02  8.32899E+03  1.04405E+04  6.88632E+03  1.27312E+04
 -5.35581E+03  7.19536E+03 -9.27952E+03  1.06900E+03 -2.79036E+03 -2.18280E+02  2.18814E+03  3.29173E+03
  1.22184E+03 -1.38105E+03 -3.87577E+03  5.42595E+03 -4.58956E+03  2.88744E+03 -1.07452E+04 -1.60734E+03
 -1.00442E+04 -7.51328E+03 -3.48005E+03 -1.02706E+04  5.15338E+03 -1.19103E+04  6.18264E+03 -3.61307E+03
  8.45243E+03  2.41165E+03  7.67489E+03  6.53924E+03  2.13999E+03  1.31408E+04 -9.24690E+02  6.78335E+03
 -9.18059E+03  2.81317E+03 -6.87664E+03 -7.57673E+03  2.05314E+03 -8.24003E+03  5.70670E+03 -3.18626E+03
  5.02430E+03 -3.21930E+03  6.65435E+03  1.25958E+03  1.35391E+03  3.84874E+03  2.32939E+03  5.94562E+03
  4.56465E+03 -1.49967E+03  5.84887E+02 -1.51836E+03 -3.32369E+03  5.44252E+03  3.14085E+03  6.37850E+03
 -3.67814E+03  5.37239E+03 -1.06078E+04  7.00363E+03 -1.12627E+04  1.37102E+02 -1.12261E+04 -2.57396E+03
  1.80803E+03 -9.54639E+03  4.88536E+03 -1.69363E+04  1.11155E+04 -1.57743E+03  7.25088E+03 -5.77181E+03
  6.61645E+03  4.38724E+02  2.73821E+03  5.31504E+03  1.61883E+03  1.12704E+03 -3.28865E+03  2.76876E+03
 -5.11672E+03  2.31762E+02  4.35602E+03 -6.21089E+03  6.12315E+03 -6.97453E+03  5.22879E+03  3.19671E+03
 -5.51763E+03  3.40519E+02  5.41691E+03 -7.20114E+02  7.96757E+02  2.48441E+03 -1.99737E+02  1.21300E+03
 -1.08794E+03 -1.65495E+03  2.52977E+03  6.18318E+03  3.94123E+03  4.89717E+03  2.26646E+03  4.59477E+03
 -5.31978E+03  4.42761E+03 -7.55574E+03 -8.06289E+02 -4.96246E+03 -3.88650E+03 -9.94131E+02  9.77209E+02
 -7.93136E+01 -2.04325E+03  4.89034E+03 -2.18712E+03  5.72817E+02  6.97058E+00 -2.77356E+02  4.54502E+03
 -5.53420E+03  7.52588E+03 -5.20102E+01 -1.76247E+03 -3.98242E+03 -1.92491E+03  1.16773E+03 -4.53711E+03
  5.68667E+03 -6.60446E+02 -2.43086E+03 -2.05149E+03 -6.46489E+02  5.74662E+03  3.85643E+02  4.29681E+03
 -2.92949E+03  2.35313E+03 -1.01413E+03 -3.52081E+02 -4.31215E+03 -3.99953E+03  5.65621E+03 -1.82043E+03
  3.25374E+03  2.07788E+03  5.33965E+03  1.33973E+03  5.84500E+03  3.96715E+03 -9.92892E+02  9.36222E+02
 -3.23494E+03 -9.21741E+02 -2.63822E+03 -1.10925E+02 -3.13804E+03 -3.23895E+03 -1.35831E+03 -2.98898E+03
  1.76412E+03 -3.47511E+03  8.70492E+01  4.41306E+03 -1.40191E+02  6.34734E+03  5.27315E+02  2.34202E+02
  1.47260E+03  2.41802E+03 -1.05657E+03  1.24567E+02 -2.29245E+03  4.70661E+02  4.56165E+03 -2.70538E+03
 -3.83782E+03  6.00930E+03 -2.14766E+03 -3.02768E+03 -2.53926E+03  4.96177E+03 -7.18754E+03 -3.41893E+03
 -6.15064E+03 -3.51810E+03 -4.28985E+03 -1.51787E+04  1.03243E+04 -8.25896E+03  1.22976E+04  6.01942E+02
  7.45446E+03  3.46888E+03  1.88314E+03  9.24729E+03 -1.56956E+03  5.28244E+03 -3.43384E+03  4.63724E+03
 -4.11638E+03  1.58441E+03 -2.48859E+02 -5.30517E+03 -3.12262E+03 -2.53399E+02  2.85889E+03 -9.08812E+02
  6.79131E+02  1.43144E+03  1.84886E+03 -1.13663E+03 -1.76157E+03 -3.86905E+03  6.14194E+02  7.47060E+02
  9.54858E+02  1.83599E+03  7.10232E+01 -1.90745E+02  3.43522E+02  6.54315E+03 -2.15812E+03  1.91149E+02
 -1.52516E+03  4.71209E+02 -6.85590E+03 -1.26961E+03 -7.45432E+03 -5.25337E+03 -8.18531E+03 -6.43170E+03
 -4.39129E+03 -3.54197E+03  6.54820E+03 -7.53169E+03 -5.26613E+02  3.01853E+03  4.24620E+03 -8.67691E+02
  2.28861E+03 -8.64881E+02 -3.22310E+03  1.57343E+03 -4.51575E+03  3.54978E+03  2.35494E+03  9.86181E+02
 -2.61936E+03  2.10519E+02  2.23901E+03 -3.00604E+03  5.15988E+02  4.09632E+03 -5.17846E+03  6.38050E+03
 -1.62439E+03  5.96703E+03 -4.18858E+03  1.75287E+03 -1.56655E+03  2.99730E+03 -9.45475E+02 -6.00114E+03
  1.53723E+02 -5.38298E+03 -9.68094E+02 -3.97697E+03  6.49083E+03  2.64778E+02  1.53767E+02 -7.86921E+02
  3.48291E+03  4.33353E+03 -2.64208E+03 -1.49894E+03 -9.64045E+01  3.59288E+03 -2.70323E+03  6.28526E+03
  5.46017E+03 -5.05140E+03 -5.76190E+02  1.33175E+03 -7.84385E+03 -4.85547E+01 -6.66962E+03  7.14719E+02
 -7.80905E+03 -2.21781E+03 -2.45877E+03 -2.20143E+03  2.22481E+03 -4.21987E+03  5.22568E+03 -1.70157E+03
  5.17643E+03  9.36458E+02  3.60823E+03  3.84828E+03  2.95628E+03  7.33989E+03 -5.05911E+03  3.75796E+03
