 $NMID ID='MM_0lb_SNR50_17hz_g50_85.RAW', FMTDAT='(8E13.5)'
 TRAMP=1., VOLUME=1. $END
  3.11417E+05  5.38763E+02  3.40615E+05  2.56582E+05  8.66026E+04  3.32142E+05 -1.36573E+05  2.52675E+05
 -1.89950E+05  8.36475E+04 -1.08816E+05 -3.39990E+04  4.70800E+03 -5.27296E+04  5.63105E+04  2.42487E+03
  3.49604E+04  5.15727E+04 -1.76781E+04  7.89628E+04 -6.15532E+04  6.42274E+04 -8.21040E+04  2.90340E+04
 -8.07706E+04 -1.07177E+04 -5.52671E+04 -5.21692E+04 -1.37370E+04 -6.94365E+04  2.44723E+04 -3.95038E+04
  4.17885E+04  7.00745E+03  1.83016E+04  4.81886E+04 -3.18074E+04  4.88722E+04 -6.55991E+04 -2.90501E+03
 -5.17721E+04 -5.58205E+04 -7.59540E+03 -7.86347E+04  3.14545E+04 -5.61605E+04  5.08638E+04 -1.42022E+04
  3.99386E+04  8.71850E+03  2.92212E+04  2.72877E+04  1.87526E+04  3.20998E+04 -3.64459E+03  2.69615E+04
 -2.20275E+04  1.12359E+04 -1.80786E+04 -6.49037E+03  5.20138E+03 -1.09312E+04  2.36666E+04  1.01867E+04
  1.21427E+04  3.30645E+04 -3.02731E+04  3.49659E+04 -6.35025E+04 -5.59777E+01 -5.39341E+04 -4.14749E+04
 -1.34227E+04 -6.04244E+04  4.35250E+04 -4.63814E+04  5.76478E+04 -4.37087E+03  2.98587E+04  2.97479E+04
 -1.45403E+03  3.33263E+04 -2.74961E+04  1.77104E+04 -2.64656E+04 -4.22763E+03 -2.03823E+04 -8.69059E+03
 -7.71801E+03 -1.26156E+04  1.38377E+03 -1.57793E+04  9.41516E+03 -2.34087E+04  1.59643E+04 -1.37122E+04
  1.12557E+04  9.47210E+03 -7.83062E+03  1.26906E+04 -1.56167E+04 -3.59544E+03 -3.21483E+03 -3.32405E+04
  2.32144E+04 -3.84908E+04  4.54384E+04 -1.79615E+04  4.16068E+04  1.48143E+04  1.32055E+04  4.12590E+04
 -1.75355E+04  3.21374E+04 -2.23676E+04 -2.18502E+03 -6.23189E+03 -2.87246E+04  2.23723E+04 -3.47089E+04
  3.79969E+04 -9.00393E+03  3.31084E+04  1.99582E+04  1.14360E+04  4.22477E+04 -2.62755E+03  4.64309E+04
 -2.99199E+04  3.00089E+04 -3.89652E+04  1.09328E+04 -4.07163E+04 -1.41950E+04 -1.87253E+04 -3.83620E+04
  7.79940E+03 -3.52283E+04  3.05433E+04 -1.16982E+04  2.84029E+04  7.79208E+03  2.87733E+03  1.79066E+04
 -1.03165E+04  5.43957E+03 -1.32499E+04 -5.32027E+03  4.92592E+03 -7.49139E+03  2.04380E+04  2.99082E+03
  1.27800E+04  2.24405E+04 -7.74784E+03  2.54463E+04 -2.25179E+04  1.25965E+04 -2.43158E+04 -7.12835E+03
 -1.80819E+04 -1.02754E+04 -6.65769E+03 -1.73514E+04  6.16158E+02 -1.38351E+04  1.23256E+04 -1.75972E+04
  2.40622E+04 -1.43732E+04  3.17158E+04 -7.08825E+02  2.04583E+04  2.00629E+04  6.05311E+03  3.45854E+04
 -1.53540E+04  2.80545E+04 -2.45229E+04  6.67345E+03 -2.22851E+04 -6.33764E+03 -3.22310E+03 -9.98421E+03
 -2.10704E+03 -5.62884E+03 -3.97859E+03  3.38455E+03 -1.42279E+04  7.14273E+03 -1.61485E+04 -4.27814E+03
 -1.04913E+04 -1.89198E+04  5.66889E+03 -2.10530E+04  1.39805E+04 -1.40571E+04  1.35638E+04  4.35284E+03
  7.13597E+03  6.55368E+03  3.02188E+03  2.00171E+04 -1.21176E+04  1.25707E+04 -2.14958E+04 -4.40872E+03
 -1.25048E+04 -1.21348E+04 -1.10294E+03 -2.45320E+04  1.43055E+04 -1.45191E+04  1.37756E+04 -8.65733E+03
  1.63043E+04  3.55466E+03  9.20772E+03  1.75322E+03  4.32647E+03 -1.64758E+03  1.07103E+04 -3.23927E+03
  1.12210E+04  1.86719E+03  1.81408E+04  1.32285E+04  1.10989E+04  2.54106E+04 -7.75248E+02  3.28251E+04
 -1.98739E+04  2.22961E+04 -2.70620E+04  1.08380E+04 -3.04698E+04 -3.73214E+03 -2.11159E+04 -1.82628E+04
 -9.33629E+03 -2.26651E+04  9.03586E+03 -2.46701E+04  1.80725E+04 -1.07464E+04  1.39264E+04  4.25872E+03
  7.38106E+03  1.10464E+04 -1.37969E+04  9.24668E+03 -1.54988E+04  5.21510E+03 -1.04215E+04 -9.38810E+03
  1.66685E+03 -1.45447E+04  9.15758E+03 -1.05171E+04  1.09704E+04  1.22893E+03  1.14585E+03  4.61273E+03
 -5.92746E+03  2.78585E+03 -4.06297E+03 -7.93620E+03  3.41924E+02 -1.16808E+04  9.03496E+03 -1.51878E+04
  1.06973E+04 -8.87621E+03  1.57870E+04  4.65118E+03  1.51029E+04  1.62565E+04  1.90564E+03  1.67822E+04
 -3.46223E+03  1.91051E+04 -1.41866E+04  9.73232E+03 -1.80298E+04  5.83763E+03 -8.69034E+03 -4.23242E+03
 -1.94189E+03 -2.52893E+03 -1.00433E+03  9.04466E+02 -8.71497E+02  2.46784E+03 -7.22924E+03  4.98323E+03
 -1.12110E+04 -2.26868E+03 -9.86508E+03 -9.45178E+03 -8.40846E+03 -1.32354E+04  5.30900E+03 -8.76764E+03
  2.97243E+03 -4.91744E+03  7.02163E+03  3.88585E+03 -1.79464E+02  4.77983E+03 -2.05216E+03 -1.45798E+03
 -7.65883E+03 -7.18967E+03  4.01824E+03 -8.21141E+03  6.16141E+03 -7.17209E+03  9.62079E+03 -6.74714E+02
  1.38198E+04 -9.45592E+01  6.54266E+03  7.27684E+03  1.02250E+03  1.03185E+04 -5.06374E+03  6.64711E+03
 -7.63212E+03  4.62982E+03 -1.36077E+03  1.33214E+03  5.31003E+03 -4.84322E+03  3.30052E+03 -3.57641E+03
  3.85267E+03  7.56408E+03  2.39117E+03  1.03823E+04 -3.57748E+03  7.92684E+03 -8.54382E+03 -2.83196E+03
 -4.25954E+03 -4.09670E+03  1.37732E+03 -6.20514E+03  4.34359E+03 -3.76151E+03  4.99256E+03  3.05314E+03
  7.11137E+03  3.25931E+03 -2.45470E+03  6.95099E+03 -6.73604E+03  2.81290E+03 -2.82892E+03 -8.60309E+02
 -7.36569E+03 -9.98805E+03  5.40834E+03 -6.41681E+03  8.64621E+03 -6.66574E+03  5.11971E+03  1.63169E+03
  6.41546E+03  8.36987E+03  1.01761E+03  5.16366E+03 -1.76164E+03  5.89343E+03 -3.91148E+03 -1.54722E+03
 -8.00425E+03 -1.06646E+04 -1.70071E+03 -6.54228E+03  6.03047E+02 -7.76306E+03  2.89506E+03 -4.32378E+03
  3.38381E+03  4.78835E+02  3.48903E+03  5.11937E+03  2.57601E+03 -3.23458E+03  3.11972E+02 -3.36307E+03
  3.70813E+03  3.75731E+03  4.76487E+03  1.95300E+03  7.09043E+03  3.19077E+03  7.88655E+03  1.06367E+04
  1.59163E+03  1.17705E+04 -5.58106E+03  5.12085E+03 -1.01292E+04 -1.54419E+03 -9.38740E+03 -5.06317E+03
 -3.01749E+03 -1.10055E+04 -1.84098E+03 -6.42997E+03  3.21413E+03 -3.12500E+03  2.64489E+03 -3.87819E+03
  3.26148E+03 -2.15400E+03 -2.59164E+03 -7.76083E+01  1.06035E+03 -3.96249E+01  3.58793E+03 -1.68241E+02
  3.43143E+03 -2.74398E+03 -9.02183E+02  2.43408E+03 -2.37626E+03  4.14563E+03 -4.76017E+03  2.37159E+03
 -4.56476E+03  1.65954E+03 -2.41905E+03 -2.33769E+03 -4.75830E+03 -6.95923E+03  4.69283E+03 -4.55897E+03
  8.97328E+03 -4.37224E+03  1.02332E+04 -6.47728E+02  3.07214E+03  5.24424E+03 -3.39566E+03  9.52395E+03
 -3.52509E+03  8.05018E+03 -2.65138E+03 -4.69754E+02 -1.35191E+03 -1.15525E+03  1.69438E+03 -7.62984E+02
 -3.72756E+02  1.98478E+03  4.56601E+02  5.71812E+02 -1.56494E+03  2.25988E+03 -6.27284E+03  3.38588E+03
 -6.19801E+03 -2.74058E+03  1.42148E+03 -8.59128E+03  3.09953E+03 -6.28187E+03  4.09819E+03 -2.88661E+03
  1.78195E+03  5.97161E+03  2.03496E+03  3.25787E+03 -5.00737E+03  5.16692E+03 -3.25197E+03  6.24987E+03
 -2.69095E+03  1.68460E+03 -3.75208E+03 -1.78987E+03 -1.96770E+02 -8.74031E+03  5.35481E+03 -4.57913E+03
  8.88733E+03 -2.35414E+03  2.12718E+03  1.67422E+03  1.99444E+03  8.95166E+02 -1.60252E+03 -1.42473E+03
  7.55877E+02  2.55311E+02  5.14557E+03  1.73044E+03  2.94706E+03  5.11244E+03  2.05561E+03  1.65496E+03
  2.47401E+02  5.86698E+03  1.45108E+03  5.39894E+03 -2.11210E+03  1.34870E+03 -3.76676E+03 -1.07763E+02
 -3.85492E+03 -8.31490E+03  1.19928E+03 -6.28370E+03  4.44638E+03 -4.57878E+03  4.43198E+03 -1.83435E+03
  2.88554E+03  4.49963E+03  2.93953E+03  1.84112E+02 -4.02181E+03  5.05709E+03 -2.30483E+03 -1.25053E+03
  5.55502E+02 -2.11309E+03 -1.71856E+03  5.69489E+02  5.60284E+03  1.57003E+03  4.23104E+03  7.33491E+02
 -2.12417E+03  1.66509E+03  4.55072E+03 -1.52253E+03  1.10533E+03 -6.35773E+02  7.28090E+01 -1.51453E+03
  3.02615E+03  1.18845E+03  4.89251E+03  9.77444E+02  9.72477E+02  4.86296E+03  2.49107E+03  1.88775E+03
 -1.67523E+03  2.52784E+03 -4.30842E+03  1.58651E+03 -3.25900E+03 -1.42415E+03 -5.32339E+03  2.94237E+03
  5.47734E+02 -2.23203E+03 -4.01213E+02 -1.08530E+03 -2.18224E+03 -8.83044E+02  2.31699E+03 -4.55053E+02
 -5.91763E+03  1.63298E+03 -2.25972E+03 -2.28670E+03 -2.30335E+03  1.03763E+03  6.14459E+02 -3.91606E+02
 -1.55290E+02 -4.65738E+03 -1.52758E+03  7.72479E+02  2.03246E+03 -1.93601E+03  3.93034E+03  2.10068E+03
 -8.65135E+02 -8.30479E+02 -4.46178E+03  1.67046E+03  2.69010E+03 -4.25086E+03 -1.35197E+03  2.83972E+02
  1.51778E+03 -2.03613E+03  2.45282E+03  4.57000E+03 -1.91565E+03  8.57563E+02 -3.79317E+03  6.34412E+03
  1.27425E+03 -2.25160E+02 -3.20945E+03  3.65112E+03 -8.43658E+02  3.70041E+02 -1.58324E+03 -1.52328E+03
  3.42076E+03 -2.93832E+03 -2.42479E+02  6.11132E+03  2.46311E+03 -5.26895E+02 -3.38644E+02  5.55263E+03
 -1.79237E+03  1.83365E+03 -3.36829E+03 -1.19703E+03  7.23522E+02 -2.25620E+03 -1.04600E+03  1.96891E+03
 -1.60826E+03 -2.00685E+02 -1.27953E+03  1.08133E+03  1.79394E+03 -4.29716E+03 -5.43964E+03 -3.68463E+02
 -4.85524E+03 -4.77508E+03 -1.02706E+03 -3.00879E+03  3.90016E+03 -3.39163E+03  1.84451E+03 -8.34677E+02
  6.94432E+03 -2.49723E+02  7.20735E+02 -1.34202E+03 -2.92744E+03  7.89818E+02 -3.42977E+03  6.24255E+03
 -4.33842E+03 -1.19692E+03  2.25696E+03 -8.52673E+02 -2.67350E+02 -5.18710E+03  3.29635E+03 -5.92988E+03
 -1.95215E+03 -2.50111E+03  7.06015E+02 -3.05774E+03 -1.17503E+03  3.77130E+02 -4.23221E+03 -1.60598E+03
  2.24700E+03 -1.17408E+03 -8.36439E+01 -2.05464E+03  1.54168E+03  1.84094E+03  3.23861E+03 -3.37572E+03
 -3.15253E+03  2.00909E+03 -3.47224E+03 -1.62445E+03 -2.14233E+03 -2.67020E+03  2.77467E+03  2.33866E+03
 -1.78488E+03 -2.93041E+03  1.68918E+03 -1.36875E+03 -4.42959E+03  1.89511E+03  2.98491E+03 -1.22202E+03
  3.66415E+03  3.22190E+03  8.94957E+02  7.23997E+02 -1.77353E+01  1.31292E+03 -1.98516E+03 -1.68215E+03
 -3.86167E+03 -8.72725E+02 -1.79087E+03 -2.76285E+02 -6.77280E+03 -5.93736E+03  4.73772E+03  4.05378E+03
 -4.15544E+02  4.79716E+03 -2.26400E+02 -2.02939E+03 -3.97129E+03  4.42077E+02 -9.21054E+02 -3.25065E+03
  6.03850E+03 -3.52067E+02 -2.17536E+03 -1.57245E+03  1.81225E+03  2.45526E+03  3.40749E+02  1.75087E+03
  6.09627E+01 -5.84107E+02 -1.90637E+03  4.50157E+03  3.45809E+02  4.14437E+03 -3.14980E+03  6.86079E+03
 -1.47387E+02 -1.21358E+03 -5.64900E+03  2.27882E+03 -4.69145E+03 -2.17863E+03 -5.39863E+03 -1.22933E+01
  2.45411E+03  5.90220E+02 -3.00831E+03 -2.34127E+03  2.04318E+03 -3.99919E+03  1.24298E+03  3.31447E+03
 -8.52805E+01  2.33103E+03  2.25914E+03  4.32175E+03  1.97680E+03 -2.34032E+03 -8.01467E+02  1.90079E+03
