 $NMID ID='MM_0lb_SNR50_11hz_g50_78.RAW', FMTDAT='(8E13.5)'
 TRAMP=1., VOLUME=1. $END
  3.13041E+05 -4.43193E+03  3.37040E+05  2.45799E+05  8.28467E+04  3.40900E+05 -1.32813E+05  2.54185E+05
 -1.94305E+05  8.30232E+04 -1.13914E+05 -3.37301E+04 -1.77287E+03 -5.05719E+04  5.71394E+04  3.43912E+03
  3.52852E+04  5.41206E+04 -2.00253E+04  7.71807E+04 -5.66306E+04  6.75613E+04 -8.22815E+04  3.20727E+04
 -8.05400E+04 -1.07819E+04 -5.85914E+04 -4.98582E+04 -1.76270E+04 -7.72247E+04  3.01588E+04 -5.12973E+04
  4.58172E+04  1.12401E+03  1.67487E+04  4.95259E+04 -3.21814E+04  4.85177E+04 -7.26582E+04 -5.87944E+02
 -5.21576E+04 -5.22631E+04 -1.15498E+04 -7.44098E+04  3.50364E+04 -5.60534E+04  4.99340E+04 -1.52782E+04
  4.84975E+04  8.55851E+03  2.83015E+04  2.24070E+04  1.46970E+04  3.08873E+04 -7.93164E+03  2.82595E+04
 -2.42080E+04  1.12641E+04 -1.38541E+04 -7.96488E+03  3.98636E+03 -1.41036E+04  2.23842E+04  1.37806E+04
  6.11079E+03  3.88949E+04 -3.37626E+04  3.89961E+04 -6.42269E+04  2.87287E+03 -5.24035E+04 -4.26861E+04
 -1.21875E+04 -5.88108E+04  4.33581E+04 -4.04754E+04  5.23694E+04 -5.46184E+03  3.67553E+04  3.01009E+04
 -4.61413E+03  3.31094E+04 -3.17159E+04  1.42591E+04 -3.22356E+04 -9.06625E+02 -1.78967E+04 -1.04672E+04
 -1.70066E+04 -1.86600E+04 -3.06959E+03 -1.70574E+04  5.16228E+03 -2.44584E+04  1.78121E+04 -1.21382E+04
  1.48535E+04  1.07024E+04 -8.78050E+03  1.36262E+04 -2.32524E+04 -5.24879E+03 -9.76143E+03 -3.56623E+04
  2.36639E+04 -4.87315E+04  4.90523E+04 -2.31383E+04  4.72636E+04  2.56768E+04  2.51420E+04  4.86449E+04
 -1.75712E+04  3.32433E+04 -2.00199E+04  3.03514E+03 -1.15556E+04 -3.10273E+04  1.94121E+04 -3.55089E+04
  4.23209E+04 -1.43228E+04  3.51578E+04  2.75330E+04  1.66083E+04  4.81796E+04 -9.69008E+03  5.92968E+04
 -3.62337E+04  4.11420E+04 -4.63010E+04  1.26575E+04 -4.48384E+04 -1.54711E+04 -2.10418E+04 -4.40534E+04
  9.41625E+03 -4.18190E+04  3.35808E+04 -1.77913E+04  2.64772E+04  1.48537E+04  8.15086E+03  2.02923E+04
 -1.39042E+04  7.94522E+03 -1.16674E+04 -8.67160E+03  2.45690E+03 -1.54909E+04  1.87606E+04  6.87469E+03
  1.47537E+04  2.38015E+04 -7.10118E+03  1.90467E+04 -2.33862E+04  1.20185E+04 -2.73943E+04 -5.72697E+03
 -2.19015E+04 -2.15835E+04 -3.49175E+03 -2.28234E+04  2.86999E+03 -2.30502E+04  1.95952E+04 -1.91962E+04
  2.91601E+04 -1.64152E+04  3.27670E+04  1.52775E+03  3.25115E+04  2.34877E+04  9.59934E+02  3.97450E+04
 -2.03235E+04  3.33239E+04 -3.11816E+04  9.10507E+03 -2.44861E+04 -1.09277E+04 -5.47384E+03 -1.44444E+04
  6.21784E+03 -1.53098E+03 -3.85131E+03  7.26603E+03 -1.40067E+04  2.22324E+03 -2.07576E+04 -5.39283E+03
 -1.23364E+04 -2.20832E+04  3.20857E+03 -2.79921E+04  2.10756E+04 -2.12561E+04  2.23529E+04 -2.48753E+03
  1.10720E+04  1.53997E+04  1.27116E+03  2.12986E+04 -1.23903E+04  1.27000E+04 -2.33351E+04 -9.57549E+03
 -1.56999E+04 -1.79109E+04 -1.62603E+03 -2.46859E+04  1.14372E+04 -2.15303E+04  2.11374E+04 -1.28431E+04
  2.35114E+04 -1.31082E+03  1.28566E+04  9.11017E+03  1.00518E+04 -3.79801E+03  1.02831E+04 -1.08317E+03
  1.59183E+04  4.09251E+03  2.90373E+04  1.95866E+04  1.80237E+04  3.02454E+04 -3.38615E+03  4.05316E+04
 -1.56273E+04  3.91034E+04 -4.03766E+04  2.13508E+04 -3.70181E+04  2.61871E+03 -2.89019E+04 -2.39546E+04
 -1.16898E+04 -3.92913E+04  3.48767E+03 -3.18179E+04  2.66067E+04 -1.29614E+04  1.85894E+04  8.49837E+03
  7.06008E+03  1.96529E+04 -8.34147E+03  1.23502E+04 -1.31162E+04  1.09070E+03 -1.64994E+04 -1.01400E+04
 -2.72116E+03 -2.07991E+04  1.12305E+04 -1.41235E+04  1.67359E+04  2.50146E+03  2.81412E+03  1.18895E+04
 -1.26954E+04  9.65206E+03 -5.66874E+03 -9.50349E+03  5.09973E+03 -1.25818E+04  1.06189E+04 -1.73226E+04
  1.58048E+04 -1.12586E+04  2.23841E+04  1.37401E+03  2.25212E+04  2.21690E+04  9.98429E+03  2.20653E+04
  1.76350E+03  2.84792E+04 -1.98001E+04  1.59200E+04 -1.92976E+04  5.93146E+03 -1.72431E+04 -9.57966E+03
 -3.45049E+03 -1.07829E+04  2.63750E+03 -7.44834E+02 -1.05293E+03  2.84351E+03 -9.65659E+03  3.72280E+03
 -1.08562E+04  3.82967E+03 -1.23464E+04 -1.10968E+04  7.59882E+02 -1.56091E+04  9.58992E+03 -8.47794E+03
  1.03606E+04 -5.86367E+03  7.89510E+03  3.14005E+03  3.68083E+03  4.74507E+02 -1.01926E+04 -2.45599E+02
 -5.95658E+03 -7.56710E+03 -4.13424E+03 -1.64491E+04  8.43812E+03 -1.25357E+04  1.65065E+04 -5.68391E+03
  1.19703E+04  2.99861E+03  1.70063E+04  9.65775E+03  6.61378E+03  1.14893E+04 -4.67984E+03  1.54807E+04
 -1.51639E+04  2.00248E+03 -2.03171E+03 -3.08585E+03  7.91688E+03 -4.56068E+03  2.63698E+03 -5.23866E+03
  9.01737E+03  4.43069E+03 -2.40437E+03  1.56094E+04 -9.87464E+03  6.83070E+03 -8.67747E+03 -1.81465E+03
 -1.15909E+04 -1.39507E+04  4.44960E+02 -3.70558E+03  4.35394E+03 -4.74539E+03  8.84971E+03  4.40717E+03
  1.55581E+03  7.89254E+03 -6.37459E+03  9.67428E+03 -7.60876E+03  2.26561E+02 -1.19238E+04 -2.15012E+03
 -7.95072E+03 -1.21790E+04 -1.04054E+03 -1.55898E+04  1.34026E+04 -1.72426E+04  9.97133E+03 -9.18654E+02
  8.80027E+03  1.54993E+04 -6.06458E+03  1.40287E+04 -8.71966E+03  6.18758E+03 -9.40668E+03 -6.99071E+03
 -1.13481E+04 -8.78856E+03 -5.60175E+03 -7.96598E+03  3.48247E+03 -4.77606E+03  2.54518E+03 -5.50996E+03
  2.53945E+03  2.28283E+03 -6.57474E+03  3.65533E+03 -4.89107E+03  6.32395E+02 -1.00821E+03 -1.32975E+04
  5.08963E+03  4.77274E+03  7.43727E+03  1.57967E+03  7.61175E+03  1.04571E+04  7.72103E+03  1.49911E+04
 -7.18356E+03  2.00235E+04 -1.83306E+04  1.92383E+04 -2.10764E+04  4.45609E+03 -1.82672E+04 -8.11048E+03
 -8.34409E+03 -1.57073E+04 -4.76421E+03 -1.32708E+04  1.71578E+03 -6.26481E+03  6.25957E+03 -6.26673E+03
  3.44545E+03 -1.41075E+03  9.41200E+03 -4.11817E+03  7.22237E+03 -2.48751E+03  7.04500E+03 -1.12764E+03
  4.34774E+03  1.24253E+03  6.95591E+03  3.70408E+03 -3.23737E+03  1.23700E+04 -7.78798E+03  1.20690E+03
 -1.55892E+04 -5.04565E+03 -6.50430E+03 -7.51598E+03  3.40341E+03 -1.38258E+04  4.08449E+03 -1.16867E+04
  1.17542E+04 -8.96688E+03  1.25274E+04 -4.47234E+02  8.86869E+03  7.18005E+03  1.52469E+03  6.35009E+03
 -8.83177E+03  1.71593E+04 -1.36397E+04 -2.88063E+03 -4.21941E+03 -3.54262E+03 -1.66546E+03 -4.25195E+03
 -1.92436E+03  6.47166E+01  5.56444E+02  2.33573E+03 -7.35955E+03 -2.06063E+03 -7.75049E+03 -1.31272E+03
 -8.68730E+03 -5.11030E+03 -2.30938E+03 -1.67055E+04  5.00037E+03 -8.99963E+03  9.42405E+03 -1.11582E+04
  4.45596E+03  5.49665E+03  6.85260E+03  1.00760E+04 -5.61075E+03  1.76906E+04 -9.12922E+03  8.94049E+03
 -1.66987E+04  1.47347E+03 -8.51699E+03 -5.63012E+03  1.13854E+03 -8.15674E+03  6.13239E+03 -4.72137E+03
  3.78016E+03 -1.21974E+03  9.33795E+03  3.44233E+03  5.78964E+03 -7.85553E+02 -2.65407E+02  1.42861E+03
  2.11428E+03  2.40386E+03  2.78945E+03 -1.70952E+03 -3.77261E+00  4.66182E+03  2.47109E+03  8.84108E+03
 -4.38623E+03  6.42179E+03 -9.92063E+03  7.66593E+03 -1.11512E+04  5.05709E+02 -5.13490E+03 -5.10032E+03
 -4.70474E+03 -1.04510E+04  7.59181E+03 -1.74667E+04  6.67799E+03 -8.57785E+03  1.21785E+04  8.25146E+02
  7.36840E+03  6.13787E+03 -2.56447E+03  7.77773E+03 -5.87248E+03  1.97754E+03 -6.78598E+03 -3.48433E+03
 -3.46891E+03 -7.06189E+03  8.71016E+02 -3.31120E+03  1.02551E+03 -5.79639E+03  3.27110E+03  5.57716E+03
  4.90853E+03  8.36436E+02  2.28484E+03  6.65234E+02 -3.64008E+03  5.05091E+03  2.42401E+03 -4.24003E+03
  2.41908E+03 -5.04213E+03  1.15107E+04  8.37434E+02  6.04132E+02  9.00267E+03  6.65493E+02  5.16255E+03
 -3.80931E+02  8.23793E+03 -2.27616E+03  8.20276E+02 -1.61956E+03 -3.58328E+03  1.76527E+03 -7.15033E+03
  5.15074E+03 -2.71627E+03  3.78546E+03 -1.25059E+03  7.42832E+03  1.95216E+03 -3.46240E+02  3.01349E+03
 -5.72771E+03 -5.71868E+02 -3.65641E+03 -2.97973E+03 -1.23429E+03 -3.66337E+03 -3.03663E+03 -9.20745E+03
  1.79591E+03 -1.17366E+03  2.10422E+03 -7.78694E+02  6.60794E+03 -8.96889E+02 -3.03837E+02  3.40404E+03
 -4.31628E+03 -1.98096E+03 -5.40922E+03  1.25313E+03 -2.01645E+03 -2.62757E+03  4.81803E+03 -6.41828E+03
  6.26049E+03  3.93982E+03  1.14441E+04  8.20337E+03  9.67674E+03  8.80446E+03  3.02156E+02  5.56520E+03
 -8.01745E+03  2.16173E+03 -1.40352E+03 -3.23578E+03 -1.67636E+03 -3.59549E+03 -2.61779E+03 -1.06106E+04
  6.48108E+03 -4.61078E+03  7.40010E+03  4.31245E+03  4.50030E+03  3.74197E+03  1.69708E+03  1.48033E+03
 -2.23172E+03  4.10959E+03 -3.81111E+03  2.83178E+03  3.54815E+02  5.16149E+03 -3.53102E+03  3.04316E+03
 -1.53364E+03  3.77859E+03 -6.16094E+03  5.55206E+03 -1.02583E+04  9.53022E+02 -9.68100E+03 -7.08078E+03
 -4.19874E+03 -1.35259E+04  2.81714E+03 -1.11262E+04  9.39381E+03 -9.93286E+03  1.32120E+04 -1.21370E+03
  1.16383E+04 -2.35037E+03  4.36591E+03  1.19094E+04 -3.75301E+03  9.86503E+03  3.08224E+03  1.00413E+04
 -3.99438E+03  1.34216E+03 -1.05383E+03 -4.03790E+03 -1.57448E+03 -5.76953E+02  4.20283E+03 -1.57055E+03
 -2.77780E+03 -7.92646E+02 -7.40054E+03  9.06320E+02 -2.84683E+03 -2.17664E+03  5.85751E+03 -1.68239E+03
  1.64048E+03 -8.25975E+02  9.65044E+03 -3.62992E+03  9.89862E+03  1.79598E+03  3.68732E+03  6.44169E+03
 -6.09562E+03  4.63472E+03 -1.19792E+04  5.10751E+03 -8.54005E+03 -2.99493E+03 -6.30363E+03 -7.14959E+03
 -1.24576E+03 -7.30592E+03  2.31312E+03 -6.11723E+03  7.22660E+03 -2.20781E+03  6.55432E+03  6.74005E+03
  3.18871E+02  3.91199E+03 -1.21614E+03 -2.40207E+03 -1.20588E+03 -6.02448E+03 -4.50876E+03  2.30247E+03
 -1.29961E+03  3.66687E+01  1.04964E+03  6.39217E+03  3.81024E+03  2.39219E+03  3.91287E+03  6.88002E+03
 -8.80912E+03  3.68449E+03 -8.63384E+03  4.10780E+03 -1.13930E+03 -1.24502E+03 -2.06115E+03 -3.79786E+03
  4.52879E+03 -4.30165E+03  6.32121E+03 -1.34006E+03  9.88839E+03  8.12503E+03 -1.37433E+03  8.87075E+02
 -1.67301E+03  3.59499E+03 -2.89506E+03  4.35913E+03  1.73747E+03 -1.64877E+02 -6.04353E+02  5.46819E+03
 -7.09916E+02 -3.58917E+03 -7.21963E+02 -1.78793E+03 -3.30397E+03 -2.55550E+03  2.48086E+03 -6.44449E+03
  2.81922E+03  8.31774E+02  1.00586E+02 -6.04226E+03  1.95975E+03 -8.06979E+03  6.48553E+03 -7.27939E+03
  6.75686E+03 -3.61587E+02  3.53379E+03  5.88687E+03  3.45184E+03  3.20518E+03 -1.19512E+03  4.95424E+03
