 $NMID ID='MM_0lb_SNR50_13hz_g40_11.RAW', FMTDAT='(8E13.5)'
 TRAMP=1., VOLUME=1. $END
  3.12388E+05 -1.89944E+02  3.42486E+05  2.52146E+05  8.42518E+04  3.38451E+05 -1.29156E+05  2.49075E+05
 -1.89145E+05  8.34167E+04 -1.11156E+05 -3.15503E+04  6.72682E+03 -5.04315E+04  4.76812E+04 -1.11214E+03
  3.99071E+04  5.41978E+04 -1.35650E+04  7.41430E+04 -5.93631E+04  5.98137E+04 -8.23097E+04  3.17807E+04
 -7.73629E+04 -9.85475E+03 -6.07882E+04 -5.08748E+04 -1.46826E+04 -7.23200E+04  2.52923E+04 -5.06938E+04
  3.86276E+04  7.91960E+02  1.94747E+04  4.86229E+04 -3.54111E+04  4.66252E+04 -6.77385E+04 -2.48664E+03
 -5.58142E+04 -5.20546E+04 -2.27537E+03 -8.12081E+04  3.25293E+04 -4.84699E+04  4.36861E+04 -1.49476E+04
  3.96932E+04  1.40374E+04  3.50489E+04  2.27376E+04  1.26208E+04  2.63639E+04 -3.34699E+03  2.38537E+04
 -1.99979E+04  1.04627E+04 -1.82099E+04 -4.90013E+03  3.46385E+03 -9.95902E+03  1.92050E+04  1.05351E+04
  1.58162E+03  3.42518E+04 -3.21162E+04  3.50784E+04 -6.23116E+04  3.17942E+03 -5.52293E+04 -4.64517E+04
 -1.32227E+04 -5.87464E+04  4.11311E+04 -4.71637E+04  5.98026E+04 -1.83954E+03  3.40675E+04  3.33771E+04
  2.53484E+03  3.15880E+04 -3.16792E+04  1.86012E+04 -2.80123E+04 -7.64082E+03 -1.45513E+04 -1.37215E+04
 -8.34297E+03 -1.67766E+04 -4.39984E+03 -1.77241E+04  5.95956E+03 -2.38209E+04  1.67242E+04 -1.07525E+04
  1.91157E+04  4.48491E+03 -5.09981E+03  1.62373E+04 -2.18359E+04 -2.27885E+03 -1.43988E+04 -3.16767E+04
  3.02279E+04 -4.47042E+04  4.80235E+04 -1.84212E+04  4.79561E+04  1.46003E+04  1.90573E+04  4.32493E+04
 -1.55259E+04  2.97669E+04 -2.49358E+04  1.28750E+03 -5.39041E+03 -2.74796E+04  2.51090E+04 -3.75112E+04
  3.89025E+04 -8.87147E+03  3.53485E+04  2.67065E+04  2.01597E+04  4.75748E+04 -7.38256E+03  5.20725E+04
 -2.99331E+04  3.21503E+04 -4.25902E+04  5.92588E+03 -4.97525E+04 -1.84181E+04 -2.37352E+04 -3.80059E+04
  3.52374E+03 -3.19308E+04  3.35750E+04 -1.43816E+04  2.70108E+04  7.88941E+03  4.92396E+03  1.75811E+04
 -1.66443E+04  5.97133E+03 -1.36498E+04 -7.13304E+03  5.80499E+03 -1.48120E+04  2.06599E+04  4.96813E+03
  1.38228E+04  2.27402E+04 -3.64057E+03  2.52615E+04 -2.00733E+04  1.18275E+04 -2.67507E+04 -2.88436E+03
 -2.05185E+04 -1.48518E+04 -1.13680E+04 -2.33838E+04  6.12361E+02 -1.74972E+04  1.82900E+04 -1.86319E+04
  2.47022E+04 -1.14561E+04  3.55978E+04 -5.28147E+02  2.07210E+04  2.09641E+04  3.75270E+03  3.30056E+04
 -1.96516E+04  3.36017E+04 -2.70082E+04  7.22628E+03 -2.47134E+04 -1.25283E+04 -6.09176E+03 -1.04731E+04
 -3.21461E+02 -3.94026E+03 -6.86653E+03  5.32995E+03 -1.22107E+04  4.61509E+03 -1.59279E+04 -5.04389E+03
 -1.07709E+04 -1.71423E+04 -6.61477E+02 -2.37933E+04  1.39640E+04 -1.90108E+04  2.01420E+04  1.00720E+03
  1.24680E+04  1.68125E+04 -2.59076E+03  2.23092E+04 -1.73636E+04  8.51124E+03 -2.52606E+04 -5.42910E+03
 -1.51034E+04 -1.30481E+04 -2.01983E+03 -2.74450E+04  8.08772E+03 -2.13608E+04  1.86056E+04 -1.18889E+04
  1.76556E+04 -3.37473E+03  1.55406E+04  4.06105E+03  3.99146E+03 -2.35554E+03  6.94029E+03 -1.04745E+03
  1.89092E+04  1.64828E+03  2.32629E+04  1.30781E+04  1.45449E+04  2.64136E+04 -8.10376E+02  3.67323E+04
 -2.09595E+04  2.57253E+04 -3.41842E+04  1.36511E+04 -3.21393E+04 -5.34895E+03 -2.84341E+04 -1.82302E+04
 -5.31096E+03 -2.27666E+04  1.09405E+04 -2.68451E+04  2.29787E+04 -1.01575E+04  1.91233E+04  1.07818E+04
  6.75666E+03  8.09464E+03 -4.80228E+03  1.66448E+04 -1.85802E+04  2.43912E+03 -1.27552E+04 -1.04733E+04
 -2.40895E+03 -1.51295E+04  5.80881E+03 -1.16574E+04  8.96652E+03 -4.35432E+03  1.78906E+03  4.48064E+03
 -6.37180E+03 -2.81561E+03 -5.20035E+03 -4.03854E+03 -2.81758E+03 -1.06181E+04  7.52172E+03 -1.72281E+04
  2.14151E+04 -1.07637E+04  2.10413E+04 -1.30342E+03  1.52389E+04  1.82941E+04  2.51095E+03  2.22369E+04
 -3.50881E+03  2.21395E+04 -1.22775E+04  1.89763E+04 -1.41225E+04  7.40001E+03 -7.78365E+03 -6.83991E+02
 -5.90405E+03 -5.91677E+03 -4.68716E+03  5.36876E+03 -8.39448E+02 -1.16698E+03 -8.51326E+03  1.55781E+03
 -1.23305E+04 -3.75197E+03 -1.05877E+04 -9.56267E+03 -6.60813E+03 -1.60218E+04  4.55162E+03 -9.68211E+03
  9.32608E+03 -6.54541E+03  5.15442E+03  6.45722E+02 -4.54484E+03  6.10671E+03 -3.74264E+03  4.77857E+01
 -4.14009E+03 -4.79815E+03  3.97870E+03 -8.77487E+03  1.03809E+04 -6.96095E+03  1.63264E+04 -3.63117E+03
  1.49635E+04 -1.01132E+03  1.05250E+04  9.02007E+03  2.11805E+03  1.58478E+04 -9.48119E+03  8.87729E+03
 -1.11342E+04  8.76856E+03 -3.75088E+03  1.41817E+02  3.64300E+03 -5.83240E+02  5.40569E+03  2.35645E+02
  4.60884E+03  8.49092E+03  1.08656E+03  8.88414E+03 -9.72192E+03  3.32205E+03 -8.68121E+03  6.01253E+03
 -3.90780E+03  3.52278E+02  3.39387E+03 -1.03885E+04  7.52675E+03 -4.69328E+03  7.51029E+03  1.89895E+03
 -8.87433E+01  6.66969E+03 -6.51840E+03  1.34650E+04 -8.84292E+03  2.87269E+03 -1.01187E+04 -5.18429E+03
 -3.07935E+03 -1.25464E+04  3.00806E+03 -1.13832E+04  8.92004E+03 -8.00915E+03  6.89494E+03  4.91997E+03
  1.02276E+04  5.96744E+03  2.48357E+03  9.24288E+03 -5.59515E+03  3.91042E+03 -5.64470E+03 -9.43650E+02
 -1.03825E+04 -5.73387E+03 -1.42521E+03 -1.12423E+04  6.37344E+03 -7.10221E+03  5.95675E+03 -9.09347E+03
 -1.77904E+02  3.19103E+03  1.43866E+03 -1.53071E+02 -4.25744E+03 -6.31092E+03  4.66363E+03 -8.22224E+03
  5.07798E+03 -6.62463E+03  1.50587E+04  2.41155E+03  1.38421E+04  2.86336E+03  5.60978E+03  1.41193E+04
 -4.06647E+03  1.55128E+04 -1.25483E+04  1.05092E+04 -1.77745E+04  3.03124E+03 -1.34986E+04 -4.61303E+03
 -1.01862E+04 -9.04048E+03  4.43611E+03 -9.64954E+03  3.77224E+03  3.73268E+02  4.22097E+03 -1.40009E+03
 -3.68955E+03  1.62644E+03  7.48288E+03 -2.00546E+03  8.91041E+03 -1.72467E+03  7.46352E+03  5.55196E+02
  7.61676E+03  3.75251E+03  5.60891E+02  4.68584E+03 -4.85679E+03  5.56285E+03 -1.39616E+04  3.47313E+03
 -1.05890E+04 -2.28894E+03 -7.85568E+03 -7.31848E+03 -1.01610E+03 -7.82817E+03  5.24793E+03 -3.14610E+03
  1.64919E+04 -8.58828E+03  9.64103E+03  6.32830E+03  6.90574E+03  1.01487E+04 -9.90584E+02  1.03098E+04
 -1.97642E+03  1.39680E+04 -5.48554E+02  7.47060E+03 -1.31533E+03  9.08818E+02  3.07449E+03 -4.75004E+03
  1.11840E+03 -1.80979E+03 -1.69794E+03  2.36310E+03 -5.28287E+03  2.86089E+03 -4.70838E+03  1.56273E+03
 -3.58672E+03 -9.94181E+03  3.49196E+03 -9.72977E+03  9.43491E+03 -6.84285E+03  1.09284E+04  8.19902E+02
  1.52253E+04  4.58031E+03  3.00225E+03  3.44245E+03 -4.37412E+03  1.28769E+04 -8.36837E+03  5.70137E+03
 -5.83272E+03 -5.54035E+03 -6.09418E+03 -3.71665E+03 -6.45150E+02 -3.86534E+03  5.44301E+03 -8.38155E+03
  9.59343E+03 -4.28193E+03  8.37864E+02  1.28083E+03 -2.68381E+02  7.37588E+03  4.99392E+03  5.78766E+03
  1.15378E+03 -1.46830E+03  4.17132E+03  7.32098E+03  4.77207E+03  4.74205E+03 -4.58320E+01  4.50132E+03
 -5.18273E+03  7.48004E+03 -5.00402E+03  3.66668E+03 -6.16433E+03  3.51128E+03 -7.37058E+03 -2.12972E+03
 -3.08824E+03 -9.50506E+03  4.16693E+03 -1.03550E+04  1.46096E+03 -1.96514E+03  7.52598E+03 -4.85931E+03
  3.85929E+03  5.83282E+03  5.85273E+02  4.10390E+03  2.83819E+03  3.77516E+03 -2.51516E+03  3.79111E+03
  4.75930E+03 -7.63782E+02  3.03252E+03  8.12868E+02  1.07383E+04 -2.39632E+03 -5.72221E+02 -6.88457E+02
 -3.21137E+03  2.54431E+03  2.95084E+03  1.50079E+02  7.06770E+02  4.72850E+03  3.99499E+03 -5.23315E+01
  1.95276E+03  2.66240E+03  1.69823E+03  2.07174E+01  1.22505E+03  5.66924E+03 -2.23331E+03  3.50011E+03
 -3.22327E+03  2.23118E+03 -5.80601E+03 -2.93271E+03 -7.70262E+02 -2.92465E+03 -2.89961E+02 -1.54061E+03
 -3.81672E+03 -3.88412E+03  5.05142E+03 -1.99728E+02  7.15450E+03  4.82167E+03 -3.43244E+03  4.66478E+03
 -5.11568E+03  9.33345E+02 -2.67604E+03 -2.29695E+03 -4.78016E+02 -2.85486E+03  1.59397E+03 -2.09938E+03
  5.14183E+03 -2.35758E+03  4.92080E+02  2.13791E+03  6.10750E+02 -4.25018E+03  1.72878E+03  4.65897E+02
  7.43189E+02 -2.53745E+03 -4.28589E+03 -2.24054E+03  5.20986E+03 -2.98883E+03  2.98255E+03 -6.11629E+03
 -1.53979E+03 -4.01823E+03  2.40399E+03  5.16704E+03  5.57956E+02  1.02909E+04 -8.12032E+03  6.33611E+03
 -3.05074E+03  9.42508E+03 -6.27675E+03 -1.54680E+03 -5.02558E+03  2.02618E+03 -4.36895E+03 -3.01798E+03
  2.56990E+03 -2.45749E+02  3.70560E+03  4.16627E+03 -2.33380E+03  3.49318E+03 -8.47314E+02  6.01606E+03
 -1.05884E+03  2.61971E+03 -4.43125E+03  5.64993E+03  1.82163E+03 -1.12957E+03  1.81445E+03  4.79696E+03
 -3.09214E+02 -8.28322E+02 -1.10422E+03 -1.93379E+03 -3.32020E+02 -2.04146E+03 -2.12828E+03 -1.13856E+03
 -3.47052E+03 -8.31518E+03  1.81491E+03 -1.24939E+03  4.29153E+03  4.04743E+02  6.48882E+03  2.08977E+03
  4.08360E+03 -4.70506E+02  5.19602E+03  3.79663E+02 -3.46190E+03  6.30813E+03 -5.03212E+03  1.07655E+03
 -6.76494E+03  2.00136E+02 -5.99729E+03  4.11991E+03 -8.64121E+02  1.85226E+03 -3.40928E+03  1.04168E+03
  2.91526E+02  2.31456E+02 -2.86324E+03 -3.60594E+01  1.14366E+03 -3.55706E+03  1.98379E+03 -1.74130E+03
  7.77037E+01  2.42675E+02 -3.04841E+03 -8.81389E+01  4.77293E+03  1.51448E+03 -3.28769E+03  2.30774E+03
 -4.85151E+03  3.43929E+03 -7.88826E+03  7.04714E+03 -3.35842E+03 -2.81131E+03 -4.54831E+03 -2.83089E+03
 -2.12037E+03 -4.68753E+03 -7.43763E+02 -3.37620E+03  3.12016E+03 -1.30979E+03  4.30429E+03 -1.13438E+03
  4.91410E+03  1.41925E+03 -3.66585E+02  2.21971E+02  5.59659E+02  7.49741E+02  3.60072E+03 -7.83930E+03
  4.06160E+03  2.47665E+03  8.70977E+03 -4.62380E+02 -4.67578E+02  2.76689E+03 -3.53516E+03  4.88344E+03
  2.67080E+03  1.83110E+03 -8.26565E+03 -1.77795E+03  4.41741E+02  1.23734E+02 -1.92117E+03 -1.74561E+03
  2.58954E+03 -5.87644E+03  4.42552E+03  1.98674E+03  3.50258E+03 -9.34714E+02  1.30505E+03  4.27876E+03
  3.87632E+03  5.91940E+03 -3.71125E+03 -4.03211E+02 -2.30037E+03  6.25224E+02 -4.06572E+02 -1.43967E+03
  1.14925E+03 -3.23047E+03 -2.08741E+02 -6.06079E+02 -4.75381E+03  2.04221E+03 -8.68369E+03 -5.04095E+03
 -1.12566E+03  1.25867E+03 -1.84641E+03 -1.49087E+03 -2.32258E+03 -3.97827E+03  8.13961E+03  6.19788E+02
  5.64341E+03  4.14032E+03 -1.11751E+02  2.34404E+03 -1.45157E+02  4.48511E+03 -1.63459E+03 -2.65808E+02
