 $NMID ID='MM_0lb_SNR50_15hz_g45_100.RAW', FMTDAT='(8E13.5)'
 TRAMP=1., VOLUME=1. $END
  3.12755E+05 -6.18127E+03  3.35970E+05  2.47836E+05  8.90133E+04  3.34617E+05 -1.31056E+05  2.49702E+05
 -1.88140E+05  8.55463E+04 -1.13395E+05 -3.00641E+04  1.00570E+03 -5.35219E+04  5.76203E+04 -2.23275E+02
  3.57540E+04  5.29403E+04 -1.41132E+04  7.30164E+04 -6.30458E+04  6.54631E+04 -8.46885E+04  3.18310E+04
 -8.11289E+04 -1.29402E+04 -5.65992E+04 -5.03552E+04 -1.35247E+04 -6.75130E+04  2.66549E+04 -4.62518E+04
  4.30212E+04  2.05394E+03  1.68488E+04  4.99163E+04 -3.50473E+04  4.87402E+04 -6.85526E+04 -1.22863E+03
 -5.00088E+04 -5.45017E+04 -6.31714E+03 -7.47527E+04  3.79054E+04 -5.55671E+04  4.79692E+04 -2.09409E+04
  4.42987E+04  1.79901E+04  3.02289E+04  2.38720E+04  1.18667E+04  2.82939E+04 -6.12500E+03  2.83765E+04
 -2.32323E+04  1.13937E+04 -1.32661E+04 -1.21109E+03  5.04257E+03 -1.01702E+04  1.73465E+04  1.58522E+04
  4.60254E+03  3.39537E+04 -3.06738E+04  3.65038E+04 -6.21744E+04  4.42473E+03 -5.59713E+04 -4.32553E+04
 -1.17620E+04 -6.15467E+04  3.66443E+04 -4.74955E+04  6.09101E+04 -1.03175E+03  2.87600E+04  3.46953E+04
 -8.93033E+03  3.52349E+04 -2.52586E+04  1.41107E+04 -2.94255E+04 -1.48951E+03 -1.96304E+04 -1.72352E+04
 -8.50625E+03 -1.19615E+04 -1.02020E+03 -1.62771E+04  5.45380E+03 -1.74168E+04  1.50352E+04 -1.27091E+04
  1.06472E+04  7.73285E+03 -7.96280E+03  1.22487E+04 -2.11818E+04 -4.91697E+03 -1.02029E+04 -3.07929E+04
  2.18477E+04 -3.73242E+04  4.24991E+04 -1.88350E+04  4.18597E+04  2.11452E+04  1.34168E+04  4.36387E+04
 -1.59920E+04  2.80423E+04 -2.51242E+04 -5.78732E+02 -9.43240E+03 -2.90320E+04  2.55682E+04 -3.16715E+04
  4.02404E+04 -6.50515E+03  3.02564E+04  1.94781E+04  1.52415E+04  4.83703E+04 -5.24045E+03  4.76445E+04
 -2.73578E+04  3.38863E+04 -4.04163E+04  1.10572E+04 -3.99217E+04 -1.17185E+04 -2.27040E+04 -3.45051E+04
  4.82523E+03 -3.77434E+04  2.61255E+04 -1.57231E+04  2.65221E+04  9.88058E+03  2.36118E+03  1.74398E+04
 -1.09749E+04  1.13196E+04 -6.99444E+03 -6.40424E+03  4.78423E+03 -1.37830E+04  2.12695E+04  3.04063E+03
  1.44471E+04  1.43649E+04 -8.35159E+03  2.41768E+04 -2.54395E+04  8.04661E+03 -2.63377E+04 -5.64405E+03
 -1.95008E+04 -1.67345E+04 -4.88460E+03 -1.98870E+04  2.04955E+03 -1.89042E+04  1.50025E+04 -1.40572E+04
  2.88092E+04 -1.42898E+04  3.09238E+04 -1.21815E+03  2.28374E+04  1.98710E+04  3.01125E+03  3.03183E+04
 -1.91246E+04  2.76696E+04 -2.65815E+04  1.15225E+04 -2.32488E+04 -9.55143E+03 -1.54515E+03 -1.59852E+04
  6.41290E+03 -7.51562E+03 -4.49092E+03  8.48126E+02 -1.63350E+04  8.08413E+03 -1.54692E+04 -7.18158E+03
 -8.83135E+03 -2.00033E+04  5.99945E+03 -2.29148E+04  1.23828E+04 -1.57344E+04  1.58321E+04 -2.88406E+03
  1.08587E+04  1.46318E+04  2.31094E+03  1.55492E+04 -9.44652E+03  1.28169E+04 -2.07363E+04 -5.79982E+03
 -1.37305E+04 -1.73839E+04 -1.72534E+03 -2.25083E+04  9.92159E+03 -2.18950E+04  1.55888E+04 -1.11425E+04
  1.78590E+04  2.27081E+02  1.29037E+04  9.62178E+03  4.21145E+03 -2.32793E+03  7.75136E+03 -4.03881E+03
  1.41951E+04  2.09332E+03  2.04625E+04  1.19858E+04  1.46100E+04  3.17820E+04 -6.22607E+03  2.67632E+04
 -1.77649E+04  2.32143E+04 -2.75627E+04  5.14809E+03 -3.10698E+04 -3.20118E+03 -2.77838E+04 -2.16236E+04
 -1.07410E+04 -2.72245E+04  8.13304E+03 -1.66081E+04  2.03381E+04 -1.39204E+04  1.64361E+04  1.69235E+02
  4.90087E+03  1.04435E+04 -6.88436E+03  1.08635E+04 -1.44201E+04  3.45039E+03 -1.35023E+04 -8.45137E+03
 -1.87870E+03 -8.58065E+03  7.07063E+03 -1.27869E+04  9.53568E+03 -3.49801E+03  1.59400E+03  1.00639E+04
 -5.75708E+03  2.01665E+03 -5.73070E+03 -5.62622E+03 -1.44045E+03 -1.07815E+04  8.52245E+03 -9.43856E+03
  1.58691E+04 -4.72237E+03  1.70852E+04  7.41586E+02  1.43549E+04  7.53248E+03  2.51282E+03  1.91172E+04
  1.85265E+03  2.59060E+04 -1.09980E+04  1.20803E+04 -1.10196E+04  7.46737E+03 -3.78409E+03  2.58334E+02
 -8.70166E+03  6.52642E+02 -3.01544E+03  1.03742E+03 -4.17971E+03  1.97664E+03 -6.51588E+03  3.92354E+03
 -1.00016E+04 -5.51771E+03 -1.00038E+04 -6.94013E+03 -3.16960E+03 -1.05283E+04  5.37529E+03 -7.75735E+03
  8.80237E+03 -6.46704E+03  7.24344E+03  3.31779E+03  3.67271E+03  3.27927E+03 -5.92092E+03  1.06742E+03
 -6.13030E+03 -9.59809E+02  7.79899E+02 -1.09051E+04  4.86505E+03 -4.67134E+03  1.40965E+04 -9.30920E+03
  1.59460E+04 -2.04066E+02  1.39293E+04  1.10677E+04  4.00698E+03  1.63864E+04 -8.19156E+03  8.45648E+03
 -7.94926E+03  2.17102E+03 -6.08600E+03  5.71928E+02  4.20332E+03 -4.80916E+03  1.09718E+04 -1.35701E+03
  3.50208E+03  5.66351E+03  3.25671E+03  8.81877E+03 -1.08615E+03  4.84132E+03 -1.06276E+04  1.58496E+03
 -8.05356E+03 -2.43531E+03 -2.82685E+03 -9.80180E+03  4.89406E+03 -4.20048E+03  6.27697E+03  4.65207E+03
  1.49916E+03  7.78495E+02 -3.59762E+03  3.36117E+03 -6.42409E+03  4.03608E+03 -6.78492E+03 -1.96933E+03
 -1.12649E+03 -7.72067E+03  3.68290E+02 -1.09540E+04  8.14308E+03 -2.01633E+03  4.32382E+03  2.24377E+03
  7.80945E+03  7.84600E+03  5.87886E+01  9.92384E+03 -5.29952E+03  1.00495E+04 -6.84004E+03  2.22902E+02
 -2.84338E+03 -5.86782E+03 -1.33625E+03 -1.04742E+04  2.71399E+03 -5.60140E+03  5.03465E+03 -1.66950E+03
  4.70552E+02 -3.54909E+03 -1.69205E+02  3.69723E+03  8.52264E+01  9.84953E+02  1.56231E+03 -3.66753E+03
  2.65140E+03 -2.91500E+03  5.93201E+03  7.46811E+02  8.72866E+03  6.57412E+03  4.40741E+03  8.01058E+03
  2.37137E+02  1.04366E+04 -1.03409E+04  8.88829E+03 -1.78146E+04 -2.34406E+03 -9.87374E+03 -4.90542E+03
 -8.62773E+03 -8.38781E+03  3.07914E+03 -7.36311E+03  7.81110E+02 -5.63207E+03  4.07450E+03 -2.82037E+03
  8.66075E+02 -2.89058E+03  1.82933E+03 -3.25587E+03  9.85062E+02 -2.80151E+03  3.19390E+02 -2.22991E+03
  3.56322E+03  3.89656E+03 -1.25825E+03  8.05572E+02 -2.74079E+02  1.97353E+03 -7.06160E+03  2.96166E+03
 -1.00443E+04  2.22417E+03 -3.73677E+03 -5.50438E+03  1.09127E+03 -4.17868E+03  1.69474E+03 -4.04062E+03
  1.23879E+04 -6.26356E+03  7.62949E+03  2.35813E+03  1.53188E+03  5.34965E+03 -5.76479E+02  9.96437E+03
 -1.86179E+03  8.94843E+03 -4.84467E+03  1.30975E+03 -7.40304E+03 -4.03175E+03 -3.81098E+03  1.74568E+03
 -3.56594E+03 -5.42349E+02 -6.10004E+02  4.30774E+03 -4.17670E+03 -2.38943E+03 -7.43463E+03  1.39106E+03
 -3.01394E+03 -2.93713E+03  1.96815E+03 -3.31796E+03  6.40031E+03 -4.91251E+03  2.34970E+03 -4.70828E+02
  7.17860E+03  3.18597E+03  7.61521E+03  7.12877E+03 -2.86114E+03  2.90877E+03 -8.82188E+03  2.51791E+03
 -8.31337E+03  2.02703E+02 -3.30260E+03 -1.85712E+03 -1.74793E+03 -2.87413E+03  4.12320E+03 -6.31367E+03
  3.95091E+03  2.57275E+03  8.27605E+02 -1.25567E+03  1.69388E+03 -3.76759E+02  2.02370E+03  2.28246E+03
  1.94800E+03  3.83252E+03  6.01133E+03  3.62594E+03  1.52920E+03  1.68541E+03  7.51006E+03  6.73168E+02
 -3.10435E+03  3.29351E+03 -3.10349E+03  6.86345E+03 -1.15094E+04  5.92596E+03 -8.32827E+03  7.05953E+02
 -7.01028E+03 -9.27102E+03  2.32654E+03 -1.05922E+04  2.01222E+03 -7.05772E+03  6.97998E+03 -7.46684E+03
  5.12095E+03  4.60623E+03 -4.74902E+02  9.06271E+03 -1.31762E+03  3.50572E+03 -4.61274E+03  1.47571E+03
 -3.13505E+03 -4.46274E+03  4.04887E+03 -5.46400E+03  2.66382E+03  2.22915E+03  2.84240E+03  1.42455E+03
  1.94396E+03 -4.35071E+03  5.33917E+03 -3.83327E+03  3.09815E+03 -4.61763E+02  3.47449E+03  2.70839E+03
 -3.57876E+02 -6.44059E+03  4.41781E+03  1.68048E+02 -9.63280E+02  2.88452E+03 -1.14777E+03  5.11093E+03
 -6.24243E+03  6.78458E+03 -6.06246E+03 -2.03594E+03 -7.14565E+03 -1.13581E+03 -3.92902E+02 -9.47178E+02
  5.29111E+03 -8.77090E+02 -4.13135E+03 -4.25249E+03 -5.55865E+02 -1.74750E+03 -3.87800E+03  2.53102E+03
 -4.69126E+03 -1.26111E+03  8.20010E+02 -5.98457E+03 -1.33178E+03 -6.39096E+03 -1.52586E+02  1.86338E+02
  2.77442E+03 -2.62295E+03  2.42132E+03 -2.34716E+03  2.66895E+03  1.21830E+03  5.60476E+02  3.73049E+02
 -2.15182E+03  2.17629E+03 -2.87493E+03  1.01170E+02  2.33545E+03 -6.38299E+03  6.06001E+03  3.43653E+03
  4.66491E+03 -2.69905E+03  7.55516E+02  7.22547E+02  1.86371E+03 -1.07428E+03  1.41622E+03  1.87423E+03
 -1.23403E+02  2.16176E+02 -2.34868E+03  1.11344E+03  2.05900E+02 -3.38876E+03 -1.08630E+03 -2.18146E+03
 -6.53737E+02  2.65099E+03  1.97028E+02  6.06349E+03 -6.85928E+02  4.13355E+03 -1.11266E+03  4.23749E+03
 -2.28636E+03  7.99374E+02  1.91040E+03 -8.42290E+01 -8.89214E+02 -1.68440E+03  3.05523E+03  4.39092E+03
  1.96983E+03  3.16594E+02 -4.65623E+03  2.23996E+03 -6.32082E+03  2.60821E+03 -1.01069E+04 -4.07532E+03
 -2.83118E+03 -2.97173E+03  6.56588E+02 -7.26031E+03  2.16120E+03 -4.37278E+03  5.71459E+03 -2.97645E+03
 -1.38351E+03  3.99281E+03  4.17544E+03  8.31333E+03 -1.39990E+03  2.81344E+03 -2.08405E+03  6.02461E+02
 -2.52799E+03  5.48110E+03 -6.11038E+03 -1.58991E+03 -9.02663E+01 -1.22362E+03  8.03541E+01 -2.91851E+01
 -2.54695E+03  1.43177E+03 -1.41394E+01  3.53851E+03  1.02191E+03 -1.08171E+02  2.99862E+03 -3.92468E+03
  2.37442E+02 -6.69932E+03  6.87177E+03 -9.54434E+01 -2.06501E+02  1.79062E+03 -2.72777E+03 -8.53664E+02
 -3.33165E+02  2.10311E+03 -4.65590E+03  4.61468E+02  9.22302E+02 -3.10115E+03  2.64031E+02 -3.05550E+03
 -3.82285E+02  4.70370E+02  3.51953E+02 -3.40473E+03 -2.53566E+03 -3.99395E+03  1.19467E+03 -3.73640E+03
  2.39856E+03  7.60670E+02 -2.02147E+02 -3.21686E+03  7.66614E+02 -2.33511E+03  7.69853E+01 -3.53804E+03
  6.24625E+01 -1.47641E+03 -3.02811E+03 -5.61506E+03 -3.30981E+03  1.19144E+02  2.21777E+03  6.23716E+03
 -2.52549E+03  1.59005E+03 -5.84246E+03  2.53811E+03 -2.07460E+03  5.02330E+02 -8.29600E+02 -1.30182E+03
  5.66247E+03  5.12804E+02  3.78224E+02  1.32533E+03  5.40825E+03  1.05183E+03 -2.39180E+02  7.56801E+03
 -2.89829E+03 -1.91400E+03  1.69325E+03  9.89039E+01 -1.99193E+03  2.26862E+03 -2.27190E+03  1.79066E+01
 -4.05358E+02  1.45001E+03 -1.13895E+03  1.93616E+03 -1.47915E+03 -2.56481E+03 -1.20428E+03 -2.60665E+03
 -4.30742E+03 -2.73919E+03 -3.98495E+03 -5.84849E+03  5.30134E+03 -3.64154E+03 -1.62273E+03  5.66778E+01
  2.34719E+03  1.55857E+03  2.28095E+03  4.84354E+03  1.26835E+03  3.83859E+03 -3.38528E+03  7.30707E+03
