 $NMID ID='MM_0lb_SNR50_15hz_g45_35.RAW', FMTDAT='(8E13.5)'
 TRAMP=1., VOLUME=1. $END
  3.10195E+05  9.59499E+02  3.41221E+05  2.53594E+05  7.94212E+04  3.36178E+05 -1.32358E+05  2.50610E+05
 -1.88161E+05  7.88878E+04 -1.14855E+05 -3.45854E+04  4.13175E+03 -5.07917E+04  5.51526E+04  4.62211E+03
  3.28044E+04  5.01723E+04 -1.38628E+04  7.33768E+04 -5.99802E+04  6.08164E+04 -8.21903E+04  3.47926E+04
 -7.76894E+04 -8.91511E+03 -5.94457E+04 -5.30382E+04 -2.02742E+04 -6.97672E+04  2.46414E+04 -4.73827E+04
  4.10321E+04  3.62374E+03  1.64669E+04  4.83592E+04 -3.48763E+04  4.82650E+04 -6.42866E+04 -1.90179E+03
 -5.88783E+04 -5.88279E+04 -1.05357E+04 -7.32452E+04  3.27900E+04 -5.48348E+04  4.31484E+04 -1.84566E+04
  4.15581E+04  9.23566E+03  2.34480E+04  2.03893E+04  1.49395E+04  2.60083E+04 -7.16624E+03  2.76666E+04
 -2.72639E+04  1.62269E+04 -2.39785E+04 -7.12268E+03  4.24916E+03 -3.64021E+03  1.57081E+04  1.11051E+04
  7.70289E+03  3.60133E+04 -3.57898E+04  3.33081E+04 -6.29217E+04 -7.60731E+02 -5.42734E+04 -3.98394E+04
 -1.10413E+04 -5.91419E+04  3.82043E+04 -4.57753E+04  5.41964E+04 -7.16314E+02  3.45477E+04  2.81398E+04
 -6.91879E+03  3.57394E+04 -3.21016E+04  1.69862E+04 -2.32745E+04 -4.46079E+03 -1.66758E+04 -9.82903E+03
 -7.61990E+03 -1.47365E+04  3.38865E+03 -1.69888E+04  1.24098E+04 -2.28325E+04  1.31544E+04 -1.80965E+04
  1.22964E+04  3.65803E+03 -6.12200E+03  1.33938E+04 -1.66418E+04 -5.49878E+03 -8.07133E+03 -2.89793E+04
  1.63647E+04 -4.43608E+04  4.61071E+04 -1.51770E+04  4.19072E+04  2.01635E+04  1.48391E+04  4.77687E+04
 -1.57723E+04  3.30441E+04 -2.36700E+04  1.65314E+03 -8.94909E+03 -2.44278E+04  2.22892E+04 -3.79806E+04
  4.34025E+04 -8.57565E+03  3.75768E+04  1.97820E+04  1.50989E+04  4.51026E+04 -8.22639E+03  4.77794E+04
 -3.41489E+04  3.42954E+04 -4.35323E+04  6.29477E+03 -3.77683E+04 -1.52919E+04 -2.29110E+04 -3.87797E+04
  7.26872E+03 -3.44189E+04  3.07061E+04 -1.39710E+04  2.38510E+04  8.02332E+03 -1.99114E+03  1.74709E+04
 -1.28042E+04  7.09110E+03 -9.02490E+03 -8.56199E+03  5.84399E+03 -1.24091E+04  1.87946E+04  8.16147E+02
  1.72488E+04  1.84546E+04 -6.50024E+03  3.16762E+04 -2.41508E+04  1.47735E+04 -2.98692E+04  1.51364E+03
 -1.43346E+04 -1.79569E+04 -4.66452E+03 -2.39781E+04  6.03092E+03 -1.82305E+04  1.55782E+04 -1.61005E+04
  2.10556E+04 -1.06920E+04  3.34012E+04 -1.68980E+02  2.49227E+04  1.78268E+04  2.70901E+03  3.98446E+04
 -1.47021E+04  2.93840E+04 -2.58840E+04  1.15295E+04 -2.24114E+04 -1.00173E+04  1.63596E+03 -1.46169E+04
  2.61887E+03  2.64975E+03 -4.05444E+03  6.44325E+03 -1.45662E+04  5.56578E+03 -1.70541E+04 -5.21007E+03
 -1.21367E+04 -2.13285E+04  2.77990E+03 -2.24205E+04  1.96723E+04 -1.53516E+04  1.76283E+04 -1.62416E+03
  6.65674E+03  1.39761E+04 -1.80921E+03  1.62542E+04 -1.34462E+04  5.83132E+03 -1.78863E+04 -3.37104E+03
 -1.04934E+04 -1.66110E+04 -4.20109E+03 -1.99238E+04  1.10234E+04 -1.72729E+04  1.41532E+04 -1.17703E+04
  1.51013E+04 -4.06955E+03  1.27854E+04  4.71453E+03  7.14528E+03 -5.32138E+02  1.28027E+04 -2.11711E+03
  1.83645E+04 -1.18234E+03  1.42957E+04  1.59091E+04  9.21912E+03  2.95452E+04 -1.77641E+03  3.30011E+04
 -2.02943E+04  1.80589E+04 -3.09198E+04  1.03108E+04 -3.19724E+04 -6.39130E+03 -2.49345E+04 -1.49834E+04
 -1.18307E+04 -2.60883E+04  6.33088E+03 -2.38398E+04  1.96548E+04 -1.45793E+04  1.43022E+04  5.54993E+03
  8.69882E+03  1.40832E+04 -5.66165E+03  1.15516E+04 -1.72087E+04  7.12230E+03 -1.41585E+04 -1.17853E+04
 -2.93003E+03 -1.40114E+04  7.46786E+03 -8.56211E+03  5.51278E+03 -9.13616E+02  9.81706E+02  4.20458E+03
 -5.52969E+03  1.96957E+03 -4.35745E+03 -6.37370E+02  6.12006E+02 -1.34770E+04  1.03468E+04 -1.44930E+04
  1.40754E+04 -3.16064E+03  1.94689E+04  1.00234E+03  1.38396E+04  1.03025E+04  4.25690E+03  1.69051E+04
 -1.13553E+03  2.07957E+04 -1.59760E+04  1.37043E+04 -1.08691E+04  7.52625E+03 -1.53529E+04  1.65622E+02
 -7.08408E+03  1.53158E+02  3.24265E+03 -9.16829E+02 -1.73230E+02  1.63266E+03 -6.60683E+03  7.02629E+03
 -8.29740E+03 -1.18823E+03 -1.30932E+04 -1.00784E+04 -1.35906E+03 -1.56337E+04  6.80368E+03 -9.68369E+03
  1.04358E+04 -2.10664E+03  1.21380E+04  4.43449E+02  2.08478E+03  2.80866E+03  2.02931E+03 -2.90558E+03
 -8.39871E+03 -8.15437E+03 -1.23851E+03 -1.30693E+04  5.77053E+03 -1.00903E+04  1.29142E+04 -5.07186E+03
  1.31461E+04 -2.47556E+02  1.22373E+04  9.67035E+03  3.36512E+03  1.02772E+04 -8.64414E+03  8.83094E+03
 -6.12847E+03 -6.73600E+01 -3.71338E+03 -3.86737E+03  4.97936E+03 -1.33835E+03  2.00136E+03 -2.79579E+03
  6.25177E+03  6.37551E+03  3.51954E+03  7.37148E+03 -8.55657E+03  1.04003E+04 -1.05968E+04 -6.14252E+02
 -6.16067E+03 -7.00779E+03  1.83067E+03 -1.33091E+04  6.72586E+03 -3.91992E+03  7.71827E+03  6.30914E+03
  1.14784E+03  5.66888E+03 -9.63287E+03  5.86337E+03 -4.38392E+03 -3.41270E+02 -8.14995E+03  1.27448E+03
 -6.36254E+03 -1.01008E+04  4.64873E+02 -8.74602E+03  1.16870E+04 -2.21729E+03  1.13476E+04  2.75658E+03
  6.49236E+03  1.00041E+04 -3.25025E+02  9.78889E+03 -1.78277E+02  4.26962E+03 -7.01478E+03 -3.33555E+03
 -1.10745E+04 -6.67159E+03  7.62198E+02 -1.51321E+03  1.33690E+01 -7.58209E+03 -6.90002E+02  9.93129E+02
 -1.85828E+03  8.26299E+02  2.83978E+03  5.02138E+03  1.60332E+03 -1.93221E+03  1.45492E+02 -5.85744E+03
  4.00233E+03 -8.86173E+02  7.30714E+03  2.82019E+03  6.46854E+03  6.89794E+03  1.04899E+04  1.21114E+04
 -2.52744E+03  1.47361E+04 -8.54655E+03  9.41506E+03 -1.44464E+04  2.54605E+03 -7.13218E+03 -2.24966E+03
 -1.24797E+03 -1.03424E+04  6.97064E+02 -9.86038E+03  7.10034E+03 -6.41412E+03  7.46284E+03 -2.31788E+03
  5.76628E+03  1.45047E+03 -7.06616E+02 -9.37150E+02  5.05092E+03  1.65738E+03  7.74482E+03 -6.01054E+03
  2.44106E+03  4.19875E+03  5.81099E+02  6.66807E+03 -4.09265E+03  6.61525E+03 -7.26756E+03  3.49039E+03
 -6.83796E+03  3.97753E+03 -6.85260E+03 -3.48905E+03  1.85200E+03 -8.45628E+03  3.11891E+03 -9.52197E+03
  4.78101E+03 -1.69827E+03  5.26243E+03  9.69208E+02  1.54145E+03  5.77122E+03  1.87137E+02  3.76545E+03
 -2.11397E+03  1.00857E+04 -2.58781E+02  5.04809E+03 -2.97457E+03 -3.01922E+03 -3.37435E+03  1.56394E+03
 -3.31579E+01 -2.10611E+03  3.68792E+03  1.64839E+03 -1.78042E+03 -1.38179E+02 -7.17596E+03  3.61249E+03
 -4.46829E+03 -4.64435E+03 -2.37381E+03 -9.68413E+03  5.92569E+03 -8.54775E+03  7.53303E+03  1.12416E+03
  3.33670E+03  3.02044E+03 -5.71677E+02  5.48303E+03  3.17531E+03  6.90374E+03 -2.83409E+03  1.45599E+03
 -6.56310E+03  1.52561E+03 -7.08335E+03 -1.89126E+03 -3.02124E+02 -3.57411E+03  6.69894E+03 -4.80220E+03
  3.47809E+03 -3.70470E+03 -9.76857E+02  1.09166E+03  3.47514E+02  6.21568E+03  3.61617E+03  1.86789E+03
 -4.82179E+03  2.74030E+03  1.63652E+02 -2.64829E+03  3.33677E+03  1.49818E+03  8.15520E+02  7.36682E+03
 -3.62364E+03  3.56697E+03 -5.70865E+03  5.19071E+03 -4.79290E+03  1.94018E+03 -5.61359E+03 -1.38729E+03
 -7.52248E+03 -8.87726E+03  4.07982E+02 -4.01612E+03  9.74651E+03 -7.24805E+03  6.15141E+03  5.35876E+02
  6.65248E+03  6.01942E+03  6.27174E+03  3.48928E+03 -1.68328E+03  4.82385E+02  1.20770E+03 -1.23835E+03
 -1.22134E+03 -2.49858E+03  1.71808E+03 -6.11011E+03  6.31734E+03 -4.02321E+03  3.12146E+03 -1.31137E+03
  2.52189E+03  4.10405E+02 -7.16111E+01 -2.24628E+03 -2.09677E+03 -2.48651E+03 -2.45261E+03  6.27190E+02
 -4.52200E+02 -2.50251E+03  3.93470E+03 -1.00683E+03 -3.54173E+03  3.92599E+03 -1.46002E+03  2.01987E+03
 -5.75218E+02  3.45654E+03 -2.46137E+03  1.73708E+02 -2.79665E+03 -8.80245E+01  3.93709E+03 -4.00127E+03
  1.19305E+03 -2.84657E+03 -1.42008E+03 -2.58098E+03  5.55213E+03  5.30647E+03 -1.45508E+03 -1.76125E+03
  4.42079E+03 -3.85339E+03 -1.15854E+03 -2.31326E+03 -6.80182E+03 -7.80482E+03  5.20209E+03 -4.86563E+03
  5.13323E+03 -1.13773E+03  4.90686E+03 -4.71208E+03  6.70247E+03  1.28449E+03  3.28025E+03  1.87823E+03
 -3.49462E+02  5.55322E+01 -2.31557E+03 -1.00460E+03  6.85650E+03  8.56856E+02 -2.01475E+03  1.69784E+03
  3.80917E+03 -3.14696E+02  1.64167E+03  3.23253E+03  9.31889E+03  7.50410E+03 -6.97268E+02  4.71664E+02
 -1.83757E+03  2.22342E+03 -1.79944E+03  3.35129E+03 -6.21968E+02 -1.19004E+03  9.44780E+02  8.76957E+02
  6.54975E+03  3.20409E+03 -4.87756E+02 -1.21676E+03  1.83676E+03  1.92487E+03  1.17977E+02  4.24476E+02
  1.08696E+03  9.11930E+02 -1.27990E+03  1.73478E+03  1.11206E+03  2.71371E+03 -3.11329E+03  7.95111E+03
 -2.40726E+03  3.40146E+03 -3.20072E+03  4.69245E+02 -6.10201E+02  3.45530E+02 -2.25936E+03 -7.56625E+02
 -4.36217E+03 -7.31198E+03  4.29321E+03 -3.91277E+03  4.47164E+03 -6.13733E+03 -6.28462E+02  1.91227E+03
  3.20982E+03 -2.41902E+03 -1.55074E+03  1.23079E+02 -5.10489E+03  5.10439E+03 -1.19980E+03  3.54753E+03
 -5.74505E+03  6.21031E+03  5.83159E+02  1.41776E+03 -2.32930E+03  8.80168E+02 -4.71222E+02  4.22886E+03
 -4.45682E+03  4.12414E+02  5.66899E+02 -9.65668E+02 -2.51383E+02 -1.10567E+03 -6.92166E+03 -3.37918E+00
  1.95827E+03 -2.55240E+03  4.84961E+03  3.77137E+03  7.95883E+03  9.08365E+02 -1.76008E+03  4.34600E+03
 -3.36468E+03  4.99272E+03 -2.34036E+03 -2.38045E+03 -7.32492E+03 -3.58247E+03 -4.28642E+03 -5.33008E+03
 -4.06567E+03 -3.49764E+03  1.24074E+02 -3.50705E+03  1.80640E+03 -2.64165E+03 -6.20918E+02 -5.92063E+02
 -1.82116E+03  4.81985E+03 -3.90954E+03  5.90016E+02 -2.53186E+03 -1.43014E+03 -5.43867E+03 -2.70409E+02
  3.32625E+02  4.10589E+03  1.40121E+03 -3.07755E+03  2.69347E+03  1.40227E+03  1.98284E+03  1.36824E+02
 -2.72422E+03  4.00411E+03 -2.99467E+03 -7.97240E+02 -2.74235E+03 -5.90111E+02  3.32069E+03 -2.10700E+03
  1.87118E+02 -5.08196E+03  3.16618E+03 -1.94886E+02  4.32598E+03 -2.50567E+03  5.22003E+03  1.57914E+03
  1.03986E+03 -6.91454E+01  7.80458E+02  3.91765E+03 -1.39475E+03  1.27040E+03 -2.56230E+03  7.85611E+02
 -1.93001E+03  3.42357E+03  2.74525E+03  2.72878E+03  1.33598E+03  6.67886E+02  2.96046E+03  4.21024E+03
 -6.45068E+03 -6.47216E+02 -3.85450E+03  1.31345E+03 -2.70533E+03 -1.56248E+03  5.56728E+03  7.32066E+02
  1.00632E+03  4.08470E+03  4.18559E+03  1.60542E+03  2.52463E+03  7.51257E+02 -2.25626E+03  3.09178E+03
