 $NMID ID='MM_0lb_SNR50_17hz_g50_60.RAW', FMTDAT='(8E13.5)'
 TRAMP=1., VOLUME=1. $END
  3.10424E+05  5.60506E+02  3.38604E+05  2.52902E+05  7.75381E+04  3.41823E+05 -1.30499E+05  2.51943E+05
 -1.90526E+05  8.17317E+04 -1.07675E+05 -3.20108E+04 -3.63916E+02 -4.67469E+04  5.58127E+04  7.42463E+02
  3.72793E+04  5.06969E+04 -1.75856E+04  7.40239E+04 -6.09373E+04  6.15480E+04 -8.14020E+04  3.10221E+04
 -7.86287E+04 -9.53754E+03 -5.69806E+04 -4.73344E+04 -1.64379E+04 -6.97826E+04  2.66281E+04 -4.10260E+04
  4.21652E+04  3.25520E+02  1.57666E+04  4.63114E+04 -3.37328E+04  5.09186E+04 -6.45182E+04  9.87493E+02
 -5.26297E+04 -5.32636E+04 -9.49443E+03 -7.06714E+04  3.37207E+04 -5.44700E+04  4.60419E+04 -1.49971E+04
  4.30160E+04  9.58159E+03  3.23874E+04  2.36539E+04  1.33028E+04  2.35001E+04 -5.80382E+03  2.83895E+04
 -2.31825E+04  1.31535E+04 -1.86112E+04 -7.87608E+03  6.20354E+03 -5.41995E+03  2.25147E+04  8.95639E+03
  7.84801E+03  3.58590E+04 -3.03527E+04  3.81321E+04 -5.95114E+04  1.21643E+03 -5.70543E+04 -3.68733E+04
 -1.38254E+04 -5.69775E+04  4.16710E+04 -4.39088E+04  5.89580E+04 -5.89350E+03  3.48456E+04  3.19460E+04
 -3.36488E+03  3.32413E+04 -2.54077E+04  1.38881E+04 -2.88779E+04 -4.37492E+03 -1.59631E+04 -1.47202E+04
 -7.81732E+03 -1.49125E+04 -5.44411E+03 -2.23724E+04  6.09335E+03 -2.50891E+04  1.88786E+04 -1.30778E+04
  1.13206E+04  9.35410E+03 -5.24759E+03  1.67448E+04 -2.53254E+04  8.47824E+02 -6.15988E+03 -3.26402E+04
  2.25217E+04 -4.31164E+04  4.19501E+04 -1.90359E+04  4.38085E+04  1.55134E+04  1.57713E+04  4.29127E+04
 -1.58218E+04  2.96627E+04 -2.52325E+04  2.59893E+02 -1.00278E+04 -2.72258E+04  1.86272E+04 -3.13115E+04
  4.16422E+04 -6.07259E+03  3.27101E+04  2.51696E+04  1.62627E+04  4.67804E+04 -7.64505E+03  4.70290E+04
 -2.45218E+04  3.38592E+04 -3.87183E+04  5.55271E+03 -3.59066E+04 -1.96613E+04 -2.14727E+04 -3.39635E+04
  4.67701E+03 -3.59641E+04  2.89133E+04 -1.11356E+04  2.40247E+04  1.18644E+04  3.41976E+02  1.57417E+04
 -1.36296E+04  4.33551E+03 -1.12044E+04 -6.32395E+03  4.66700E+03 -1.06910E+04  1.62837E+04  3.62634E+03
  1.59447E+04  1.96218E+04 -7.81354E+03  2.38662E+04 -2.62213E+04  1.04349E+04 -2.56805E+04 -1.22661E+04
 -1.68972E+04 -1.84735E+04 -1.00904E+04 -1.59197E+04  4.54353E+03 -1.92546E+04  1.38295E+04 -1.43684E+04
  1.90015E+04 -1.30264E+04  2.97472E+04  5.55367E+03  1.95233E+04  1.50817E+04  2.86105E+03  3.07693E+04
 -1.96436E+04  2.63671E+04 -2.94185E+04  1.20272E+04 -2.03314E+04 -1.44636E+04 -4.95008E+03 -1.43715E+04
  4.97241E+03  1.16732E+03 -3.72756E+03  5.90911E+03 -1.51646E+04  9.15178E+03 -1.43606E+04 -6.36293E+03
 -9.75716E+03 -1.86073E+04  2.57123E+03 -2.22977E+04  1.20831E+04 -1.68748E+04  1.60649E+04  6.60838E+01
  1.09715E+04  1.54760E+04  1.46685E+02  2.02498E+04 -1.45844E+04  9.74711E+03 -2.06130E+04 -7.72361E+02
 -1.16677E+04 -1.59073E+04  2.74193E+03 -2.03099E+04  8.16130E+03 -1.50598E+04  1.39823E+04 -6.57307E+03
  1.91573E+04  2.67850E+02  1.30342E+04  1.24050E+03  8.44151E+03 -1.14699E+03  1.21218E+04 -1.99531E+03
  1.29291E+04  3.38608E+03  1.71318E+04  1.29105E+04  8.23738E+03  2.57045E+04 -2.30071E+03  3.20514E+04
 -1.70818E+04  1.91305E+04 -3.23147E+04  6.29388E+03 -2.61826E+04 -2.79123E+03 -2.37946E+04 -2.14719E+04
 -8.25054E+03 -2.51235E+04  1.21301E+04 -1.96498E+04  1.77985E+04 -1.27818E+04  1.91230E+04  7.07590E+03
  7.17495E+03  1.60585E+04 -9.29166E+03  9.73911E+03 -1.14133E+04  4.30570E+03 -1.31129E+04 -1.18385E+04
 -5.54246E+02 -1.29028E+04  3.92561E+03 -8.55711E+03  1.06447E+04  9.69121E+02  7.58196E+01  8.37247E+03
 -5.51472E+03  3.30312E+03 -3.28382E+03 -3.80748E+03  3.80939E+03 -8.20995E+03  9.34633E+03 -1.64001E+04
  1.31335E+04 -2.59349E+03  1.16026E+04  2.78572E+03  1.32106E+04  1.33654E+04  5.20409E+03  1.67816E+04
  1.65446E+03  2.03497E+04 -7.90234E+03  9.70051E+03 -9.56067E+03  1.34022E+01 -5.75456E+03 -5.00317E+02
 -1.34927E+03 -3.65516E+03  1.69989E+03  1.93277E+03  9.26056E+01  3.74025E+03 -4.02324E+03  7.75893E+03
 -9.71934E+03  1.18118E+03 -1.33418E+04 -6.52420E+03 -5.71515E+03 -1.16809E+04  4.88400E+03 -9.87072E+03
  1.19519E+04 -4.82588E+03  5.16770E+03  4.90574E+03  2.62259E+03  4.30931E+03  2.00815E+03  5.09823E+02
 -1.39930E+03 -8.33678E+03  1.42984E+03 -7.36557E+03  7.80757E+03 -7.49252E+03  7.28848E+03 -6.56422E+03
  1.44594E+04  3.78051E+02  9.21573E+03  1.29960E+04  2.14824E+03  1.49315E+04 -6.46279E+03  1.59580E+04
 -1.08587E+04  3.42070E+03 -4.17740E+03 -6.26753E+03  1.26126E+03 -1.77802E+03  7.49057E+03 -1.74342E+03
 -2.43821E+03  5.13823E+03 -3.25178E+03  8.12582E+03 -4.42967E+03  3.85768E+03 -4.78475E+03 -2.33003E+03
 -3.21151E+03 -4.03265E+02 -2.66571E+03 -4.00395E+03  3.26995E+03 -2.42703E+03  2.61002E+02  1.39319E+03
  2.22337E+03  1.43144E+03 -4.37803E+03  5.78581E+03 -1.24236E+04  8.70802E+02 -7.21183E+03  7.45588E+02
 -2.98780E+03 -9.03408E+03 -3.49258E+02 -1.05087E+04  5.33430E+03 -3.57312E+03  8.74275E+03  2.36443E+03
  3.74894E+03  1.81249E+03 -1.62069E+03  5.53020E+03 -4.43713E+03  4.02005E+03 -6.25871E+03 -6.80662E+02
 -3.69387E+03 -7.01927E+03 -1.22236E+03 -5.76613E+03  3.88622E+03 -4.47799E+03  4.46605E+03  7.93116E+02
  2.55255E+03  5.98444E+02  2.14444E+03  1.74359E+03 -2.87516E+03 -4.83630E+03  3.59413E+03 -2.62874E+03
  5.82729E+03 -7.59014E+02  8.38236E+03  9.44391E+01  1.08673E+04  7.29596E+03  7.05573E+03  1.00577E+04
 -6.58448E+03  1.21989E+04 -7.74826E+03  1.09765E+04 -9.42904E+03  7.80942E+02 -1.02781E+04 -5.02022E+03
 -5.77343E+03 -6.41479E+03 -2.29581E+03 -3.32250E+03  3.15550E+03 -2.02740E+02  2.02752E+03 -2.81906E+03
 -1.92926E+03  9.46822E+02 -7.44119E+02 -1.47728E+03  1.11720E+03 -5.86002E+03  3.82040E+03  3.17264E+03
  3.43183E+03  2.29135E+03  1.20457E+03  6.92299E+03  1.35468E+03  3.09684E+03 -7.05744E+03  5.97669E+03
 -3.13709E+03  1.62554E+03 -1.07210E+03 -8.40367E+03  5.30030E+03 -3.21260E+03  2.75482E+03 -6.37564E+03
  7.43153E+03 -1.72939E+03  9.94977E+03  2.38912E+03  8.70413E+03  2.68558E+03  8.17460E+02  6.88029E+03
 -1.64480E+03  8.62034E+03 -8.24475E+03  1.15592E+03 -8.02637E+03 -4.66715E+03 -1.03875E+03 -5.02741E+03
 -4.10057E+03 -6.28339E+02 -1.71024E+03  5.62000E+03  1.67896E+03 -2.64811E+02 -5.59318E+03 -2.11214E+03
 -1.68149E+03 -4.11474E+03 -1.16922E+02 -7.80637E+03 -3.41273E+03 -4.55349E+03  2.64643E+03 -2.45130E+03
  3.29986E+03  4.36838E+02  3.35953E+03  3.49682E+03  3.22464E+02  3.44268E+03 -2.22323E+03  3.42884E+03
 -5.51822E+03 -3.54649E+02 -1.91476E+03 -4.60635E+03 -1.09358E+03 -6.31839E+03 -1.91331E+03 -2.37285E+03
 -3.93715E+02 -5.82535E+03  2.88411E+03  4.12021E+03 -4.31239E+03  3.04798E+03  4.95024E+03  8.31436E+02
  2.82469E+03 -4.17941E+03  3.14366E+03  2.63830E+03  2.59884E+03 -1.78922E+03  2.11286E+03  8.86785E+02
 -4.83915E+03  2.82629E+03 -3.41728E+03  4.14567E+03 -5.76140E+03  1.63738E+03 -4.58796E+03 -2.47006E+03
  2.67283E+03 -4.79954E+03 -1.08930E+03 -3.06060E+03  1.66761E+03 -2.56604E+03  2.04292E+03  1.51772E+03
  3.86697E+03  1.50421E+03 -9.68299E+02  4.31489E+03 -2.10417E+03  3.69175E+03  2.07997E+02  6.31121E+02
  2.26098E+02 -1.62207E+03  3.54158E+03 -3.08661E+03 -9.01327E+01  1.11564E+03 -2.23924E+03  2.84630E+03
 -9.83879E+02  1.35456E+03 -1.00405E+03  1.87008E+03 -1.80768E+03 -2.06587E+03  4.81724E+03 -6.41659E+02
  2.15030E+03  2.84388E+03  5.23553E+03  1.72057E+03  2.92817E+02  3.97651E+03  5.95517E+01  5.72186E+03
 -2.10178E+03  3.39831E+03 -6.19943E+03  2.61735E+03 -3.72110E+03 -1.81726E+03  3.34381E+02  1.12124E+03
  1.61636E+03 -1.70373E+03  1.00720E+03  1.49224E+03 -1.22667E+03  1.05880E+03  4.79203E+03  3.13045E+02
 -1.13815E+03 -8.71518E+02 -6.62552E+02  6.12050E+02 -1.13038E+03 -8.05109E+03 -6.50964E+02  1.32700E+03
 -1.12599E+03  3.64792E+03  2.75371E+03 -1.35438E+02  3.03656E+02  6.59821E+02 -2.29434E+03  4.02147E+03
 -1.97029E+02 -2.90739E+02 -3.96425E+03  3.01414E+02  2.51110E+03  5.81913E+02  9.12253E+02 -1.13845E+03
  1.35051E+03  6.05313E+01  2.95169E+03  3.38117E+03  1.28400E+03  3.59980E+03 -4.33393E+03 -3.68746E+03
  1.07237E+02 -5.24421E+02 -2.53231E+03 -3.68248E+02 -2.39762E+03  7.68552E+01 -1.73532E+03 -1.42465E+03
 -1.40482E+03 -2.01190E+03  1.19571E+03  4.36965E+03 -5.55033E+03 -1.28896E+03 -2.28407E+03  3.39425E+03
 -2.71360E+03  3.71971E+03 -6.84723E+02 -1.69968E+03 -1.94410E+03 -9.65463E+02 -4.58511E+02 -1.61935E+03
 -3.01381E+03  3.26323E+02 -2.25036E+03 -1.51673E+03 -3.11137E+03  2.93466E+03 -3.47954E+03 -4.56240E+02
 -3.89166E+03 -6.42214E+03  6.41656E+03 -2.31620E+03  2.19456E+03 -4.84032E+03  5.14602E+02  7.75025E+02
  7.27594E+03  1.32836E+03  3.31182E+03 -1.07050E+03 -2.44639E+03  3.06468E+03  1.50292E+03  3.43120E+03
  5.49768E+02  6.37610E+03  2.21329E+03  1.34100E+02 -3.27059E+03  1.29682E+03 -1.95796E+03  1.31377E+03
 -2.21964E+03  2.97427E+03 -4.48019E+03  2.10135E+03  1.56670E+03  2.85497E+03  3.23532E+03 -3.81189E+03
  2.97678E+03  3.99080E+02  1.36756E+03  5.05037E+02  9.06312E+01  4.01505E+03  1.18332E+02  1.52425E+03
 -3.34566E+01  1.75737E+03 -1.25310E+03  9.06584E+03 -3.96177E+03 -4.13134E+02 -1.06700E+03 -2.90729E+03
 -2.21820E+03  2.21379E+03  8.08069E+02 -5.08601E+03  2.44723E+03 -3.84304E+02  2.37489E+03 -6.07874E+02
  2.38896E+03  2.60212E+03  1.06181E+02  1.85093E+03 -2.34710E+03  8.44737E+01  2.98898E+03  8.83613E+02
 -7.10568E+03  1.99986E+03  1.11009E+03 -2.99519E+03  2.41907E+02  1.41180E+03  5.49278E+03  5.06532E+03
  1.72016E+03  1.88222E+02 -3.86381E+03  3.90997E+03  2.18792E+02 -9.96656E+02 -6.78474E+01  1.27716E+03
  1.38766E+03 -1.01943E+03  3.15602E+03 -1.37731E+02  2.10069E+03 -1.71061E+03 -2.92363E+03  1.53226E+03
  3.88725E+03 -1.63366E+03  9.83558E+02  4.59752E+03 -5.33583E+03 -3.55021E+02 -1.86202E+03 -5.46907E+02
  1.89053E+03  1.48032E+03 -2.80284E+02  2.25485E+03  3.46563E+03 -8.28528E+02 -9.90139E+02 -4.55642E+03
  1.30847E+03  4.61440E+03  1.95735E+03 -1.84250E+02 -8.43992E+02 -2.64303E+03  7.10768E+02  2.62309E+02
  1.10486E+03 -6.80819E+03  1.46289E+03  3.29696E+03 -3.08774E+03  5.43630E+03 -6.32649E+02  9.59293E+02
