 $NMID ID='MM_0lb_SNR50_8hz_g40_22.RAW', FMTDAT='(8E13.5)'
 TRAMP=1., VOLUME=1. $END
  3.05296E+05 -4.15857E+03  3.29421E+05  2.49510E+05  8.01471E+04  3.43210E+05 -1.31957E+05  2.49451E+05
 -1.91094E+05  8.69366E+04 -1.13724E+05 -2.73225E+04 -4.83843E+03 -4.88610E+04  5.28924E+04 -3.39336E+03
  3.63234E+04  5.08195E+04 -1.62834E+04  7.82091E+04 -6.02394E+04  6.55096E+04 -8.28157E+04  3.47679E+04
 -7.64189E+04 -1.20090E+04 -5.93115E+04 -4.95489E+04 -1.20806E+04 -8.07959E+04  2.51134E+04 -4.67112E+04
  3.79179E+04  7.21602E+03  2.35878E+04  4.70515E+04 -3.72455E+04  4.82265E+04 -7.35564E+04 -2.00876E+03
 -5.87347E+04 -5.40178E+04 -1.09564E+04 -7.73783E+04  3.66576E+04 -5.14999E+04  5.36304E+04 -2.21977E+04
  4.92531E+04  8.69461E+03  3.82354E+04  2.51598E+04  1.75380E+04  3.20315E+04 -6.89846E+03  2.28911E+04
 -2.40042E+04  1.16457E+04 -2.10324E+04 -9.75071E+03  1.08948E+04 -6.62868E+02  2.50872E+04  1.44793E+04
  7.39483E+03  3.39853E+04 -3.45920E+04  4.36875E+04 -7.06111E+04  2.93643E+03 -6.01014E+04 -4.64853E+04
 -1.30932E+04 -6.58018E+04  3.43601E+04 -4.84005E+04  6.12272E+04  3.48688E+02  3.40607E+04  3.35641E+04
 -4.75305E+03  4.78678E+04 -3.14406E+04  2.62348E+04 -3.32652E+04 -4.51693E+03 -1.84877E+04 -1.24636E+04
 -7.71810E+03 -1.65683E+04 -1.21001E+03 -2.02256E+04  1.11875E+04 -2.71175E+04  1.00214E+04 -1.01156E+04
  1.36274E+04  9.18542E+03 -2.16330E+04  1.69133E+04 -2.00713E+04 -8.54222E+03 -9.30772E+03 -3.81447E+04
  2.55046E+04 -4.70639E+04  5.40107E+04 -2.04555E+04  3.92926E+04  2.24566E+04  1.31294E+04  4.79702E+04
 -1.28630E+04  4.11244E+04 -3.50874E+04  6.91254E+03 -1.13774E+04 -2.82408E+04  2.01900E+04 -4.52838E+04
  4.23824E+04 -5.94880E+03  4.00556E+04  2.81088E+04  1.43030E+04  5.18754E+04 -1.46427E+04  5.52337E+04
 -3.63230E+04  4.48770E+04 -4.84162E+04  1.72662E+04 -4.72440E+04 -1.54525E+04 -3.14266E+04 -4.16763E+04
  4.81666E+03 -4.25358E+04  3.83972E+04 -1.90836E+04  3.22312E+04  1.45114E+04  9.30430E+02  1.97422E+04
 -1.18529E+04  1.63154E+04 -9.40507E+03 -4.08728E+03  6.54404E+03 -1.66261E+04  1.76144E+04  6.13269E+02
  1.68887E+04  2.15334E+04 -1.10695E+04  3.31889E+04 -2.49502E+04  1.68817E+04 -3.11767E+04  7.52600E+03
 -2.55381E+04 -1.33222E+04 -8.05365E+03 -3.39807E+04  1.20432E+04 -2.18074E+04  1.41533E+04 -2.11996E+04
  2.74227E+04 -1.97745E+04  4.37910E+04  1.42516E+04  2.91391E+04  2.34584E+04  3.00268E+03  5.00466E+04
 -2.14988E+04  3.15792E+04 -3.26263E+04  1.30964E+04 -2.05831E+04 -1.65272E+04  1.00579E+03 -7.49807E+03
  1.37992E+03  3.81409E+03 -1.25755E+04  7.69422E+03 -2.25740E+04  5.37827E+03 -2.07156E+04 -1.37871E+04
 -1.41776E+04 -2.58190E+04  5.06332E+03 -2.72177E+04  1.81430E+04 -1.44703E+04  1.62664E+04 -4.07680E+03
  1.67474E+04  2.02505E+04 -3.38441E+03  1.97874E+04 -1.71096E+04  1.52124E+04 -2.10895E+04 -6.70742E+03
 -1.79901E+04 -2.22765E+04 -2.86819E+03 -3.29143E+04  1.38517E+04 -2.46909E+04  2.63820E+04 -1.54581E+04
  2.83861E+04  5.29752E+02  1.13410E+04  1.83349E+03  2.30475E+03  2.27784E+03  1.37845E+04 -5.92228E+03
  2.42675E+04  6.64696E+03  2.42217E+04  1.95686E+04  1.34193E+04  3.79862E+04 -4.22184E+03  4.30727E+04
 -2.77747E+04  4.17199E+04 -4.18594E+04  2.10446E+04 -4.53302E+04 -5.66123E+03 -3.54902E+04 -2.69029E+04
 -1.20516E+04 -3.72791E+04  1.41663E+04 -3.44722E+04  3.07160E+04 -1.69712E+04  1.45526E+04  9.91754E+03
  3.69157E+03  1.93838E+04 -1.15318E+04  1.28578E+04 -1.98272E+04 -5.06298E+03 -1.71320E+04 -1.96831E+04
 -4.08338E+03 -2.21480E+04  6.47554E+03 -1.50573E+04  2.03496E+04  1.59303E+03  4.25023E+03  1.18606E+04
 -1.30123E+04  6.72515E+03 -9.65805E+03 -1.38331E+04  3.92328E+03 -1.92464E+04  8.69384E+03 -1.92379E+04
  2.29285E+04 -1.95829E+04  2.75548E+04  4.03413E+03  2.46915E+04  1.53016E+04  9.30737E+03  3.19313E+04
 -1.07469E+04  2.82034E+04 -1.80413E+04  1.97229E+04 -2.48888E+04  3.86779E+03 -1.00888E+04 -6.90017E+03
 -1.31616E+04 -1.23339E+04  8.91503E+02 -2.77449E+03 -1.08019E+04  4.36429E+03 -6.65215E+03  8.59950E+03
 -1.02830E+04 -3.65195E+02 -1.44189E+04 -1.11180E+04 -7.18092E+03 -1.27674E+04  5.67428E+03 -1.87585E+04
  1.95214E+04 -1.30255E+04  9.81811E+03  1.02974E+04  1.07706E+03  2.00364E+03 -1.18998E+04 -6.79798E+03
 -1.07287E+04 -1.12703E+04  2.27962E+03 -2.04622E+04  8.26028E+03 -2.25357E+04  2.02630E+04 -8.02501E+03
  2.26960E+04  5.78467E+03  2.49448E+04  1.65850E+04 -1.94291E+03  1.66444E+04 -1.22515E+04  1.75030E+04
 -1.21198E+04  7.03913E+02 -7.68118E+03 -2.93948E+03  5.55754E+03  5.78764E+02 -2.29704E+01 -1.31825E+02
  9.70797E+02  1.16508E+04  1.29129E+04  1.53792E+04 -1.21105E+04  8.34478E+03 -1.60161E+04  3.66584E+03
 -1.45610E+04 -9.95919E+03  5.52416E+03 -1.55757E+04  7.87116E+03 -4.67284E+03  6.62188E+03  4.82670E+03
 -2.03838E+02  1.47897E+04 -1.76579E+04  1.27752E+04 -1.21015E+04  1.06801E+04 -1.39597E+04 -1.05834E+04
 -4.72567E+03 -1.74578E+04  4.42729E+03 -1.62745E+04  9.95264E+03 -6.55405E+03  2.07272E+04  8.73040E+03
  1.23073E+04  1.31718E+04 -4.48727E+03  1.94489E+04 -6.97763E+03  6.03755E+03 -1.50149E+04  3.74672E+03
 -7.90889E+03 -1.17789E+04 -4.56199E+03 -6.37138E+03  5.21858E+03 -1.32037E+04  8.44492E+03 -6.40278E+03
  6.49838E+03  2.31015E+02  9.12138E+02  2.41987E+03  3.09816E+03 -5.63869E+03  9.13205E+03 -8.32543E+03
  7.24255E+03 -5.85417E+03  1.58540E+04  2.37528E+03  1.38506E+04  9.69740E+03  1.23404E+04  1.93195E+04
 -7.18499E+03  2.90654E+04 -1.77217E+04  1.88212E+04 -2.93834E+04  6.48511E+03 -1.80623E+04 -9.96795E+03
 -6.10195E+03 -1.29013E+04 -6.89768E+03 -1.65892E+04  4.13504E+03 -8.80351E+03  7.74278E+03 -5.94315E+02
  2.30085E+03  4.08723E+03  8.46077E+01 -6.59654E+03  1.34847E+03 -2.64268E+03  9.53089E+03  1.33160E+01
  1.05489E+04  3.95324E+03  5.47217E+03  8.69890E+03 -1.36197E+03  1.51400E+04 -1.26713E+04  5.71087E+03
 -1.93513E+04  1.73024E+03 -7.78888E+03 -2.09750E+04  2.72086E+03 -1.32678E+04  1.03906E+04 -1.06923E+04
  2.04452E+04 -1.26221E+04  2.13345E+04  5.56161E+03  9.18470E+03  1.49226E+04  3.16763E+03  2.02917E+04
 -1.13949E+04  1.86061E+04 -1.19579E+04  6.23042E+03 -2.60639E+03  1.82704E+03 -4.24458E+03 -8.67909E+03
  1.02069E+03 -3.41990E+03 -1.88167E+03  7.33270E+03 -4.14102E+03  4.49933E+03 -9.71932E+03 -3.54427E+03
 -1.08796E+04 -5.90247E+03 -2.53738E+03 -1.90892E+04  1.42526E+04 -1.00802E+04  1.56606E+04 -2.89628E+02
  1.38137E+04  1.35504E+04  9.49616E+03  1.34416E+04 -8.91323E+03  1.57434E+04 -1.21555E+04  7.93299E+03
 -1.73552E+04  2.61353E+03 -9.47879E+03 -6.55275E+03  1.54092E+02 -1.93357E+04  4.59105E+03 -5.71436E+03
  3.52061E+03 -6.27897E+00  9.72121E+03  5.73125E+03  7.39351E+03  3.80391E+03  9.06256E+03  1.09554E+03
 -7.71329E+03 -1.06496E+02  3.57515E+03  5.41193E+03  4.28310E+03  1.27719E+04  5.08435E+03  1.30922E+04
 -2.50654E+03  1.29135E+04 -1.43449E+04  1.33238E+04 -2.15385E+04  8.00673E+03 -1.32075E+04 -8.90877E+03
 -9.42055E+03 -1.50241E+04  9.47974E+02 -1.29643E+04  4.98744E+03 -1.54252E+04  1.19653E+04 -1.08570E+04
  1.28533E+04  4.19745E+03 -4.24331E+03  7.83811E+03 -5.27546E+03  7.19030E+03 -7.98687E+03 -1.04158E+03
 -8.85765E+02 -7.68092E+03  1.20977E+04 -4.61264E+03  3.84772E+03 -1.98741E+03  1.00134E+04  2.28495E+03
  6.16106E+03  4.67015E+03 -2.20740E+03  3.23947E+03 -6.02113E+03  9.91705E+02 -1.74347E+03 -4.55103E+03
  8.24218E+02  1.45834E+02  1.12214E+04  5.44205E+03 -7.75360E+02  8.60937E+03 -3.67277E+03  1.67905E+04
 -3.69896E+03  1.24974E+04 -6.13852E+03  3.26777E+03 -6.75585E+03 -7.22592E+03  1.49172E+03 -1.64564E+04
  2.17533E+03 -8.94542E+03  4.27176E+03 -3.28425E+03  5.20611E+03  5.12882E+03 -3.51050E+03  4.32257E+03
 -1.18662E+04 -4.99790E+03 -4.35273E+03  2.30169E+03 -5.82936E+03 -8.32577E+03  6.54894E+03 -1.35124E+04
  9.49506E+03 -3.61642E+03  7.27756E+03  6.05552E+02  3.50036E+03 -1.11518E+01  1.32429E+03  3.00675E+03
 -7.16993E+02  9.14196E+02 -8.57881E+03 -6.46122E+03 -5.72975E+02 -1.13805E+04  9.75832E+03 -7.43443E+02
  1.36195E+04 -1.11217E+02  8.75580E+03  7.45808E+03  1.94394E+03  1.02917E+04 -5.92442E+03  9.81951E+03
 -1.42297E+04 -6.63076E+01 -1.22962E+04 -2.25726E+02 -4.71840E+03 -2.37336E+03 -4.23597E+03 -6.11601E+03
  3.87716E+03 -6.92354E+03  5.28647E+03 -4.57436E+03  3.15146E+03  6.87959E+03 -3.77390E+03  9.87549E+03
  7.60193E+02  3.54107E+01  3.34310E+03 -5.97855E+03  2.18857E+03 -1.25834E+03 -3.33407E+03  3.45107E+03
 -3.76276E+03  7.00037E+03 -5.02769E+03  5.28099E+03 -1.13995E+04 -4.88584E+03 -1.39680E+04 -4.93320E+03
 -5.73175E+03 -2.27006E+04  2.66066E+03 -1.17966E+04  3.12421E+03 -1.99842E+04  1.08887E+04 -4.71047E+03
  1.53262E+04  7.58930E+03  7.58773E+03  1.42866E+04 -4.11752E+02  1.16571E+04 -2.33019E+03  1.20427E+04
 -3.51596E+02  4.74044E+03 -7.16326E+03  3.97049E+02 -3.53911E+03 -4.56003E+02  6.30325E+03  3.00034E+03
 -4.46052E+03  1.72595E+03 -5.10465E+01 -1.51318E+03 -1.97752E+03 -4.91299E+03  1.29073E+03 -1.07225E+04
  1.09810E+04 -5.38228E+03  7.98535E+03  3.10599E+03  6.52878E+03  1.10622E+04  5.23743E+03  1.04351E+04
 -6.21976E+03  1.06453E+04 -1.17664E+04  9.81157E+03 -2.58585E+04  6.80920E+03 -1.17315E+04 -1.18882E+04
 -4.24239E+03 -1.49264E+04 -1.49548E+02 -1.07192E+04  8.03107E+03 -8.02155E+03  5.08367E+03  4.28552E+03
  4.05109E+03  6.51781E+03  5.64226E+03  2.83283E+03 -1.56124E+03 -2.61686E+03 -8.77222E+02  2.65113E+03
  9.65735E+03  4.17996E+03  4.47304E+03  4.69579E+03  6.74339E+03  6.65427E+03  4.66279E+03  5.75972E+03
 -4.53675E+03  1.17241E+04 -1.09912E+04  2.26200E+03 -1.42184E+04 -6.65292E+03  1.62333E+03 -1.39877E+04
  8.33575E+03 -8.56803E+03  1.21839E+04  1.83714E+03  9.67999E+03  4.62669E+03  1.95262E+03  1.07329E+03
  3.54842E+03  8.51447E+03 -2.02252E+03  3.97407E+03 -3.12494E+03 -1.48155E+03 -5.46094E+03  4.47757E+03
 -7.65203E+03 -5.57556E+03 -6.28074E+03  3.26958E+03 -3.18131E+03  7.94199E+03 -5.37084E+03  4.61839E+03
 -1.44091E+03 -5.63834E+03 -1.28055E+03 -2.41645E+03  8.22543E+02 -1.44560E+04  5.67366E+03 -3.57077E+03
  6.81177E+03 -2.88640E+03  4.59356E+03  6.89785E+03 -2.65133E+03  9.54174E+03 -5.19898E+03 -2.89678E+03
