 $NMID ID='MM_0lb_SNR50_14hz_g50_60.RAW', FMTDAT='(8E13.5)'
 TRAMP=1., VOLUME=1. $END
  3.10556E+05  2.75361E+03  3.37717E+05  2.52792E+05  8.94517E+04  3.41594E+05 -1.35863E+05  2.51271E+05
 -1.87574E+05  8.83972E+04 -1.11124E+05 -3.18046E+04 -1.24055E+03 -5.25849E+04  5.50971E+04  1.06126E+03
  3.34878E+04  5.62717E+04 -1.40845E+04  7.77821E+04 -5.68035E+04  6.14537E+04 -8.34378E+04  3.23298E+04
 -7.97346E+04 -8.71049E+03 -5.99712E+04 -5.28483E+04 -1.65519E+04 -6.35039E+04  2.35365E+04 -4.87049E+04
  3.86779E+04  5.17449E+03  1.72276E+04  4.57488E+04 -3.72021E+04  4.79936E+04 -6.69589E+04  1.42650E+03
 -5.32599E+04 -5.69044E+04 -7.60669E+03 -7.97504E+04  2.53098E+04 -5.79225E+04  5.00524E+04 -1.32275E+04
  4.17111E+04  5.21444E+03  2.83401E+04  2.61632E+04  1.34407E+04  3.02327E+04 -5.91391E+03  3.01583E+04
 -2.31029E+04  1.04812E+04 -1.56664E+04 -6.41878E+03  6.57101E+03 -1.13880E+04  2.31402E+04  1.11495E+04
  8.41411E+03  3.83579E+04 -3.33109E+04  3.38679E+04 -6.51972E+04  4.08180E+03 -5.70282E+04 -4.35903E+04
 -1.57507E+04 -5.93382E+04  3.94725E+04 -4.61912E+04  5.53169E+04 -8.98444E+01  3.33225E+04  3.28566E+04
 -3.94199E+03  3.91946E+04 -2.86228E+04  1.12424E+04 -3.28738E+04 -1.25730E+03 -1.97085E+04 -1.16189E+04
 -9.94790E+03 -1.56878E+04  1.59925E+03 -1.78594E+04  6.23623E+03 -2.26550E+04  1.36300E+04 -1.61925E+04
  9.32928E+03  5.65340E+03 -6.74775E+03  1.14157E+04 -1.70115E+04 -5.78401E+03 -9.53235E+03 -3.30479E+04
  2.45329E+04 -4.52906E+04  4.64949E+04 -1.69920E+04  4.52975E+04  1.86511E+04  1.81580E+04  4.45768E+04
 -1.24921E+04  3.09434E+04 -2.73476E+04 -6.55455E+02 -9.01443E+03 -3.36957E+04  2.43057E+04 -3.15493E+04
  4.26964E+04 -6.07205E+03  3.73646E+04  2.84655E+04  1.43880E+04  4.39640E+04 -6.47871E+03  5.24261E+04
 -3.04653E+04  3.71275E+04 -4.40141E+04  1.32005E+04 -4.22333E+04 -2.24926E+04 -2.46994E+04 -4.01347E+04
  1.74826E+03 -3.91833E+04  3.45264E+04 -1.40880E+04  3.00090E+04  7.63084E+03  2.93668E+03  1.57389E+04
 -1.31393E+04  2.97557E+03 -8.05291E+03 -3.63748E+03  3.25021E+03 -8.48303E+03  2.28054E+04  7.01613E+03
  1.00284E+04  2.60825E+04 -5.19194E+02  2.57449E+04 -2.16490E+04  8.24365E+03 -2.31476E+04 -4.13988E+03
 -2.46725E+04 -1.43594E+04 -8.02534E+03 -1.78015E+04  7.72217E+02 -2.49245E+04  1.44855E+04 -1.88426E+04
  2.48539E+04 -1.19254E+04  3.35549E+04  3.84568E+03  2.37110E+04  2.23181E+04  5.57890E+03  3.66360E+04
 -2.02761E+04  2.74798E+04 -3.24570E+04  9.29658E+03 -1.97753E+04 -1.13415E+04 -5.88382E+03 -1.44339E+04
  7.83622E+03 -4.09232E+03 -5.54441E+03  7.05656E+03 -1.79803E+04  4.03175E+03 -1.55008E+04 -4.43418E+03
 -8.69754E+03 -1.85874E+04  7.10378E+03 -2.44467E+04  1.28620E+04 -1.38452E+04  1.82033E+04 -4.36816E+03
  1.04632E+04  1.34766E+04 -1.59950E+03  1.97636E+04 -1.23236E+04  8.88600E+03 -1.88630E+04 -5.07741E+03
 -1.62021E+04 -1.80165E+04 -3.18705E+03 -2.37399E+04  1.01615E+04 -2.16583E+04  2.11452E+04 -6.40200E+03
  2.14943E+04  9.30708E+02  1.82560E+04  6.25307E+03  4.47919E+03  2.09422E+03  1.55473E+04 -6.70582E+03
  1.92074E+04  4.26955E+03  1.86635E+04  1.70425E+04  9.25526E+03  3.44079E+04 -5.37788E+03  3.26544E+04
 -1.94071E+04  2.80614E+04 -3.18466E+04  1.49957E+04 -3.29900E+04  1.30633E+03 -2.77759E+04 -1.86387E+04
 -1.13487E+04 -2.91041E+04  1.35104E+04 -2.86562E+04  1.62907E+04 -1.03582E+04  1.48050E+04  3.43860E+03
  1.21209E+04  1.45276E+04 -1.22881E+04  1.20577E+04 -1.26884E+04  4.77448E+03 -1.62348E+04 -1.34030E+04
 -3.06969E+02 -1.32830E+04  1.11358E+04 -1.36976E+04  6.56553E+03 -1.28344E+03  1.46767E+03  3.34752E+03
 -9.76240E+03  2.81996E+03 -2.85074E+03 -7.85822E+02  1.29698E+03 -9.38503E+03  6.90098E+03 -1.40304E+04
  1.54660E+04 -6.21323E+03  1.86863E+04 -3.00950E+03  1.50349E+04  1.14095E+04  9.01690E+03  2.19191E+04
 -1.91226E+03  2.17599E+04 -1.35306E+04  7.65517E+03 -1.13719E+04  2.57694E+03 -1.02851E+04 -5.58710E+02
 -7.32180E+03 -5.35890E+03 -3.06952E+03  6.23093E+02 -9.86968E+02  3.50993E+03 -3.64835E+03  5.20363E+03
 -1.65689E+04 -2.53108E+03 -6.54516E+03 -7.09226E+03 -3.30484E+03 -1.44982E+04  3.51544E+03 -1.61943E+04
  9.45596E+03 -3.50516E+03  7.78424E+03  1.96140E+03  3.25306E+03  6.13375E+03 -7.30549E+03 -1.56291E+03
  6.01212E+02 -1.12012E+04 -4.60743E+02 -6.09152E+03  4.83825E+03 -9.62263E+03  1.67708E+04 -7.72135E+03
  2.15924E+04 -1.79810E+03  1.79520E+04  1.45377E+04  1.69948E+03  1.63977E+04 -4.21939E+03  2.04230E+04
 -6.95239E+03  4.15693E+03 -4.73483E+03 -1.58494E+03  8.98449E+02 -4.86524E+03  4.94596E+03  2.10752E+03
  3.78296E+03  2.89812E+03  1.59517E+03  7.86343E+03 -8.31108E+03  8.48336E+03 -1.48960E+04  3.21309E+03
 -6.84047E+03 -8.73450E+03  3.58270E+03 -8.01814E+03  5.61210E+03 -2.93353E+03  6.70934E+03  1.43612E+03
 -1.24719E+03  4.15188E+03 -5.13094E+03  1.07844E+04 -7.80248E+03  1.14798E+03 -7.36554E+03 -4.57002E+03
 -6.74854E+03 -8.25658E+03 -1.06338E+03 -1.28831E+04  1.25073E+04 -9.90479E+03  8.98504E+03  2.29669E+03
  8.36349E+03  1.05007E+04  7.08682E+02  8.73670E+03 -1.03325E+04  6.52936E+03 -1.10444E+04  8.27584E+02
 -8.26476E+03 -1.19959E+04 -1.17574E+03 -4.64500E+03  5.30560E+03 -1.04803E+04  7.62813E+03 -4.61032E+03
  4.17627E+03  1.35688E+03 -2.38171E+02  1.80400E+03 -4.03113E+03 -3.49768E+03 -3.87642E+03 -3.29599E+03
  8.95807E+03  9.86448E+02  8.16623E+03  6.08765E+03  1.20702E+04  2.46904E+03  9.95110E+03  1.19207E+04
 -7.18013E+02  9.50787E+03 -1.35862E+04  6.53075E+03 -1.43058E+04  3.50397E+03 -9.04915E+03 -5.50356E+03
 -7.65175E+03 -1.42545E+04 -9.57539E+02 -1.22053E+04  2.23384E+03 -2.58188E+02  1.80112E+03 -8.31573E+01
 -1.05014E+03 -6.17995E+03 -2.15870E+03 -5.37742E+03  4.36164E+03 -5.99482E+03  2.77309E+03 -2.33976E+02
  8.27303E+03  5.63483E+03 -1.72949E+03  4.74958E+02 -6.12989E+03  4.29468E+03 -7.47851E+03  4.02008E+03
 -6.51136E+03 -2.88434E+03 -2.81753E+03 -7.13207E+03  5.61955E+02 -1.11094E+04  7.56814E+03 -9.02310E+03
  1.07251E+04 -7.54278E+03  8.44099E+03  2.39400E+03  3.73433E+03  8.38453E+03  1.13628E+03  7.74781E+03
 -1.76298E+03  1.05565E+04 -4.57048E+03  1.73055E+03 -3.92396E+03  8.15382E+02 -5.11413E+03  2.33227E+03
 -2.45195E+03 -2.70412E+03 -6.12301E+03  2.14739E+03 -5.59122E+03  4.20447E+03 -7.11640E+03  1.04120E+03
 -9.19271E+03 -7.04788E+03 -1.03478E+03 -9.81613E+03  9.03179E+03 -7.66880E+03  1.10518E+04 -5.57471E+03
  6.89292E+03  7.73714E+03  4.03839E+03  4.44933E+03 -8.33768E+02  5.43897E+03 -8.74506E+03  9.06078E+03
 -1.13081E+04  1.16487E+03 -3.37558E+03 -3.23023E+03 -2.06952E+03 -6.84643E+03 -2.31621E+03 -3.07073E+03
  9.63545E+03 -1.93635E+03 -1.46365E+03  2.90418E+03  5.24822E+03 -2.43958E+03 -3.27186E+02  2.48194E+03
  4.17309E+03  2.10119E+03  2.55399E+03  2.44456E+02  5.68592E+03  8.43019E+02  5.79829E+03 -1.29469E+03
 -2.56201E+03  7.05860E+03 -3.65105E+03  1.32321E+04 -9.69598E+03  1.70147E+03 -5.86248E+03  8.06703E+02
 -1.22607E+03 -2.69943E+03  1.77107E+03 -6.55892E+03  4.68818E+03 -7.32276E+03  5.70145E+03 -1.70417E+03
  3.59649E+03  8.38779E+03  2.39656E+03  1.37289E+03 -3.58904E+01  3.26876E+03 -9.67620E+02 -3.20860E+03
  4.75060E+02 -2.96466E+03  8.10830E+02 -5.03102E+03  4.01758E+03 -6.86682E+03  4.33971E+03 -1.53724E+03
 -4.66696E+01  4.52046E+03 -6.36454E+02  3.28810E+02 -1.84228E+02 -4.46023E+02 -2.41890E+03 -3.08081E+03
  4.14652E+01  3.48183E+03  1.88060E+03  3.45378E+03  2.08754E+03  3.55401E+03  2.16508E+02  7.56221E+03
 -3.66691E+03  5.87646E+03 -6.93540E+03 -1.60361E+03 -2.35916E+02 -5.53285E+02 -6.36394E+03 -6.74117E+03
  1.38415E+03  3.76677E+02  1.67883E+03 -4.23292E+03  5.67469E+03  1.35750E+03 -6.90584E+03  2.18218E+03
 -2.47230E+03  2.46692E+02 -1.59906E+03  1.39037E+03 -3.80874E+03  2.10309E+02 -4.89023E+03 -4.75240E+03
  4.93475E+03 -6.22890E+03  4.47566E+03 -4.31223E+03  9.84704E+02  3.73401E+03  1.72044E+03  2.49327E+03
 -1.46870E+03  1.13017E+03 -2.30591E+03 -3.65613E+03  7.53966E+02  1.61933E+03  6.93786E+02 -2.78682E+03
  2.93033E+03  3.67177E+03  6.19398E+03 -9.57186E+02  1.58355E+03  1.50914E+02 -9.65932E+02  4.11526E+03
 -6.62360E+03  1.52679E+03  4.72751E+03 -1.31435E+03 -3.16094E+03 -1.05692E+03 -3.44525E+03 -2.23409E+03
  8.17864E+03 -2.44321E+03  3.58669E+03 -2.56823E+03 -4.18816E+02  3.71694E+01  6.53079E+02  1.86657E+03
 -2.84738E+03  4.95607E+03 -6.41070E+03  4.87229E+03 -2.04713E+03 -1.29989E+03 -1.86901E+03  2.52250E+03
 -4.27722E+03 -2.68638E+03 -3.79317E+03 -2.15972E+03 -5.08226E+03 -1.44476E+03 -6.69468E+03 -3.61556E+03
  2.71529E+03 -1.02008E+04  1.27843E+03 -7.27427E+03  4.38982E+03 -7.23444E+03  7.98653E+03 -7.60041E+03
  1.35460E+03 -1.75284E+03  1.02626E+03  1.74123E+03 -1.86126E+03  1.80491E+03 -1.21221E+03  1.62217E+02
  2.13448E+02  7.59195E+01  2.09516E+03 -2.87289E+03 -1.48887E+03 -1.51842E+03  2.35903E+02  2.91929E+02
 -2.74972E+03 -2.51611E+03  1.37497E+03  1.45904E+03 -1.46317E+03 -2.88331E+03  2.09340E+03 -3.87559E+03
 -3.68955E+03  3.18855E+03  7.16458E+02 -3.34901E+02  8.92097E+02  2.16621E+03 -1.44056E+03  6.88819E+03
 -1.70912E+03  1.40529E+03 -4.96769E+03  4.73909E+03 -5.89004E+03  3.23799E+02 -1.61286E+03  9.25391E+02
 -2.60930E+03  4.74530E+02  1.29805E+03 -6.80565E+03 -5.91664E+03  1.50316E+03  3.77130E+03 -2.08461E+03
  3.16112E+03  2.96390E+03 -2.70036E+03  2.08939E+03 -2.30072E+03 -3.89731E+02  2.32602E+03 -6.06124E+02
  9.35558E+02 -2.85624E+03 -9.86398E+02 -2.53185E+03  2.83420E+03  1.25886E+03  7.42969E+03  3.95127E+03
 -3.77342E+03  3.11936E+03 -1.97518E+03 -1.65195E+03 -3.91305E+03 -1.74183E+03  1.60555E+03 -5.85790E+02
  1.21652E+03  3.53103E+02 -7.15818E+02 -4.71713E+03  4.34581E+03 -6.51131E+02  2.91314E+03 -1.59070E+03
  2.73100E+02  6.75439E+01 -1.85796E+03 -1.53407E+03 -4.03053E+03  4.38113E+02 -2.17803E+03  5.85097E+03
  2.73673E+03 -2.50721E+03  7.87645E+02 -2.64028E+01  2.39100E+03  3.59086E+03 -4.36435E+03 -3.05760E+03
 -4.33225E+03  2.68815E+03 -3.45642E+02 -3.99272E+03  1.48153E+02 -1.43158E+03  1.74603E+03  2.25428E+03
  6.48934E+03  8.79428E+02  2.07857E+03  5.71699E+03 -4.07513E+02  3.49592E+02 -6.14452E+02  3.48672E+03
