 $NMID ID='MM_0lb_SNR50_19hz_g50_20.RAW', FMTDAT='(8E13.5)'
 TRAMP=1., VOLUME=1. $END
  3.08949E+05  2.22194E+03  3.37551E+05  2.51835E+05  8.53075E+04  3.38132E+05 -1.33076E+05  2.50744E+05
 -1.91184E+05  8.54590E+04 -1.08951E+05 -3.10807E+04  1.56099E+03 -5.02881E+04  5.51636E+04 -3.38911E+03
  3.43155E+04  5.36714E+04 -2.03127E+04  7.19374E+04 -5.84382E+04  6.41720E+04 -8.61631E+04  3.22900E+04
 -7.97047E+04 -1.29234E+04 -5.70348E+04 -4.81629E+04 -1.30831E+04 -6.91921E+04  2.66963E+04 -4.81085E+04
  3.92041E+04  5.33977E+03  1.70197E+04  4.74729E+04 -3.78931E+04  4.74945E+04 -7.06977E+04  1.29387E+03
 -4.98000E+04 -5.67686E+04 -4.12455E+03 -7.32480E+04  3.73976E+04 -5.20435E+04  4.39970E+04 -1.87016E+04
  4.05118E+04  1.25809E+04  3.06830E+04  2.59111E+04  2.20182E+04  2.76454E+04 -5.29560E+03  3.12022E+04
 -1.83667E+04  1.44004E+04 -1.51138E+04 -3.76794E+03  2.98944E+03 -7.77426E+03  1.64220E+04  1.06400E+04
  9.51068E+03  3.36165E+04 -3.09458E+04  3.27746E+04 -6.03487E+04  6.02507E+03 -5.70779E+04 -3.96458E+04
 -1.40410E+04 -6.28672E+04  3.62268E+04 -4.45643E+04  5.58523E+04 -2.51489E+03  3.18436E+04  2.82666E+04
 -3.71466E+03  3.06117E+04 -3.12490E+04  1.57933E+04 -2.61388E+04 -5.09912E+03 -1.43230E+04 -1.10319E+04
 -6.72596E+03 -1.04758E+04  9.54015E+02 -1.99107E+04  8.44719E+03 -2.39745E+04  1.81273E+04 -1.46966E+04
  9.90363E+03  4.19702E+03 -3.42281E+03  1.42383E+04 -2.00827E+04 -1.85359E+03 -7.06065E+03 -3.08940E+04
  2.11983E+04 -4.20244E+04  4.40838E+04 -1.86837E+04  4.43002E+04  1.77654E+04  1.26646E+04  4.16889E+04
 -1.74382E+04  3.27582E+04 -2.14855E+04  2.42121E+03 -1.01618E+04 -2.52216E+04  2.32701E+04 -2.89555E+04
  3.88923E+04 -6.49537E+03  3.12671E+04  2.08647E+04  1.43695E+04  4.17285E+04 -1.34823E+04  4.16075E+04
 -2.76709E+04  3.02709E+04 -3.28966E+04  8.57063E+03 -3.97304E+04 -1.35920E+04 -2.30897E+04 -3.12331E+04
  4.11063E+03 -3.32009E+04  2.75574E+04 -1.00146E+04  2.81417E+04  7.17108E+03  2.80272E+03  1.86954E+04
 -1.15544E+04  9.42705E+03 -1.09202E+04 -1.12011E+04  6.74646E+03 -1.06383E+04  1.78453E+04  7.12564E+03
  1.12658E+04  2.39176E+04 -8.41278E+03  2.42473E+04 -2.29663E+04  8.50603E+03 -2.53411E+04 -5.88698E+03
 -1.37307E+04 -1.04197E+04 -2.29646E+03 -1.93476E+04  5.71594E+03 -1.41980E+04  1.14876E+04 -1.34888E+04
  1.65610E+04 -8.37794E+03  2.97674E+04 -5.14493E+02  2.33014E+04  1.65167E+04  5.79390E+03  3.11370E+04
 -1.30545E+04  2.69864E+04 -2.53759E+04  5.24969E+03 -2.73519E+04 -6.36160E+03 -3.39857E+03 -1.60339E+04
  3.50845E+03 -2.88717E+03  2.50273E+03  3.64143E+03 -1.45215E+04  2.61308E+03 -1.04392E+04 -6.14847E+03
 -6.35406E+03 -1.51936E+04  6.92425E+03 -1.94555E+04  1.17073E+04 -1.47994E+04  1.12812E+04  9.79022E+02
  7.38702E+03  6.89164E+03 -2.46469E+03  2.11406E+04 -6.10503E+03  8.50439E+03 -1.34735E+04 -2.09838E+03
 -1.07464E+04 -1.58844E+04 -1.73075E+03 -2.19290E+04  7.90818E+03 -1.68847E+04  1.40901E+04 -3.46609E+03
  1.26776E+04 -1.65375E+03  8.64947E+03  2.38229E+03  8.03527E+03  1.48936E+02  8.39125E+03 -1.72632E+02
  1.30257E+04  1.18545E+03  1.68294E+04  1.26778E+04  1.25511E+04  2.48770E+04 -5.74291E+03  2.68888E+04
 -1.71899E+04  2.52002E+04 -2.38138E+04  4.10326E+03 -2.42411E+04 -1.37057E+03 -2.07129E+04 -1.68924E+04
 -9.64545E+03 -2.21718E+04  8.66955E+03 -1.65853E+04  1.75702E+04 -1.38530E+04  1.69670E+04  2.55797E+03
  7.08519E+03  1.20718E+04 -6.70547E+03  1.15709E+04 -1.09687E+04  4.36516E+03 -1.34984E+04 -4.85012E+03
 -1.77888E+03 -1.70709E+04  5.51037E+03 -6.56577E+03  7.06267E+03  4.85704E+03 -1.78323E+03  6.00892E+03
 -8.95367E+03  2.12933E+03 -1.77822E+03 -6.14107E+03 -1.32288E+03 -1.19445E+04  7.43481E+03 -9.49776E+03
  1.60125E+04 -4.58430E+03  1.22899E+04  6.86908E+03  9.61141E+03  7.58286E+03  3.98347E+03  1.29807E+04
 -1.50812E+03  2.03646E+04 -5.69567E+03  9.08417E+03 -1.30783E+04  6.43043E+03 -6.75038E+03 -4.04498E+03
 -1.81527E+03 -3.48402E+03  2.25535E+03 -1.42095E+03 -4.08905E+02  2.55622E+03 -3.98574E+03  2.97080E+03
 -9.56841E+03 -6.95271E+02 -1.11469E+04 -9.95504E+03 -3.79434E+03 -1.35217E+04  1.12463E+02 -1.06123E+04
  5.93748E+03 -4.37192E+03  4.03228E+03  2.04644E+03  1.14348E+03  1.35535E+03 -4.84872E+03 -3.51341E+03
 -4.26274E+03 -7.43885E+03 -5.40491E+03 -7.23935E+03 -1.31261E+03 -7.86552E+03  1.25005E+04 -3.69926E+03
  1.22587E+04 -2.58875E+03  9.64304E+03  7.28493E+03  1.68313E+03  6.96543E+03 -7.21726E+03  5.68946E+03
 -5.27924E+03  1.39325E+03 -2.49909E+03  2.00443E+03  4.24502E+03 -4.69992E+03  4.10533E+03  5.61389E+02
  2.87118E+03  5.39976E+03  7.55465E+02  6.66530E+03 -5.14364E+03  9.74505E+03 -7.45481E+03  2.82818E+03
 -4.91415E+03 -5.45789E+03  3.89244E+03 -8.37271E+03  2.65827E+03 -6.40200E+03  8.06785E+02  3.53308E+03
  1.76913E+03  5.51093E+02 -2.17935E+03  3.10537E+03 -2.16445E+03 -7.03213E+02 -3.77884E+01 -5.56429E+03
 -2.11803E+03 -3.92537E+03  1.98493E+03 -7.01188E+03  8.99244E+03 -5.46522E+03  6.32922E+03 -2.66758E+03
  3.08240E+03  5.92870E+03  2.43506E+03  5.55793E+03 -6.33961E+03  8.96924E+03 -7.75416E+03 -4.91726E+03
 -7.41104E+03 -7.03525E+03 -6.03937E+03 -3.38887E+03 -1.83894E+03 -2.92144E+03  4.11756E+03  8.92532E+01
  9.04564E+02  3.67897E+03 -3.09814E+03 -2.77602E+02 -2.08306E+03 -3.50009E+03  1.45344E+02 -5.46459E+03
  2.60817E+03  2.01697E+03  6.59729E+03  1.74042E+03  6.12495E+03  6.39489E+03  4.58278E+03  6.20003E+03
  1.44937E+03  7.54232E+03 -5.15419E+03  5.53034E+03 -9.03436E+03 -1.15674E+03 -7.89304E+03 -2.61412E+03
 -4.22543E+03 -1.31330E+04 -5.07955E+02 -6.73836E+03  7.87202E+03  5.99525E+02  3.96735E+03 -4.73371E+03
 -3.71934E+02 -4.39574E+03  2.21322E+03 -2.42255E+03  1.99152E+03 -2.03955E+03  5.77478E+03  6.96820E+02
  5.47149E+03  1.99603E+03  1.60274E+03  5.92660E+03 -3.04941E+03  1.76826E+03 -1.55377E+03  3.34235E+03
 -7.33554E+03 -3.14420E+03 -1.32176E+03 -1.26052E+03  1.04404E+03 -6.40811E+03  2.64985E+03 -5.07549E+03
  1.23683E+03 -3.48901E+03  7.79474E+03 -1.25352E+03  7.66539E+03  3.01045E+03  4.44786E+03  6.53036E+03
 -3.99312E+03  6.00616E+03 -7.85568E+03  2.01671E+03 -2.80363E+03 -1.76158E+03  9.55841E+02 -4.63897E+02
 -1.32678E+03  2.35479E+03  4.38391E+03  5.89666E+03 -2.52361E+03  4.23650E+02 -4.87351E+03 -1.35295E+03
  5.61635E+02 -5.64085E+03  2.44385E+03 -6.17447E+03  4.36182E+03 -3.08906E+03  3.36877E+03  1.47081E+03
  4.09623E+03  7.82815E+02  2.20292E+02  2.74439E+03 -1.40616E+03  5.71057E+03  1.39152E+03  4.41381E+03
 -4.26816E+03 -7.62507E+01 -1.89171E+03 -3.52750E+03 -1.81237E+03  2.07841E+03  2.72588E+03 -5.59323E+03
  5.45962E+03 -2.83174E+03  3.36726E+03  2.39638E+03 -3.09845E+03 -1.09749E+03  1.23882E+03 -5.30032E+02
  3.04951E+03 -1.08803E+03  4.26906E+02  1.30690E+03 -2.71767E+01  5.12818E+03  1.71361E+03  1.74917E+03
 -1.99551E+02  2.92029E+03  1.13111E+03  4.13744E+03  3.70402E+03  3.04383E+02 -6.11599E+03  6.46758E+02
 -4.26628E+03 -2.29256E+03  4.20182E+01 -4.60148E+03 -1.32605E+03 -7.24878E+01  3.48158E+03 -2.06642E+02
 -3.27633E+03  5.25545E+03 -1.66816E+03  2.20070E+03  8.98221E+02  1.34301E+03 -1.94154E+03  1.15834E+03
 -4.35765E+03 -1.10750E+03 -5.71998E+02 -4.63565E+02  1.70792E+03 -2.51421E+03 -5.09163E+02  1.24623E+03
 -9.42189E+02  3.40247E+02  2.80761E+03  5.02176E+03 -3.24402E+02  1.08583E+03  2.18903E+03 -3.44299E+03
  8.94791E+02  2.76688E+03  5.74374E+02  2.41735E+03  4.98332E+03  2.77386E+03 -1.68598E+03 -3.94398E+02
 -4.10044E+03  4.37770E+03 -1.71813E+03  1.79094E+03  6.77431E+02 -3.37072E+03 -4.38672E+02 -2.94095E+03
  3.91958E+03 -3.83270E+03 -2.15300E+03  2.98445E+03  6.78194E+03  1.40640E+03 -1.27988E+03  1.88935E+03
  1.14749E+03 -4.76150E+02 -2.57939E+03 -9.99271E+02  2.31387E+03 -5.74217E+02 -1.61896E+03  3.23271E+03
 -2.73785E+02 -3.42063E+03 -3.70816E+03 -3.57708E+03 -9.68229E+02  1.30947E+03 -1.51792E+03  1.91621E+03
 -7.02679E+02 -3.04147E+02 -2.27898E+03  1.52803E+03  1.50806E+02 -3.80027E+03  2.99360E+03 -2.96153E+03
 -1.52635E+03 -1.81420E+03  2.68508E+03  3.42826E+03  3.13215E+03  1.18042E+03 -2.17551E+03 -2.69073E+03
  1.39178E+02  2.36992E+03 -9.89531E+02 -3.91730E+03 -3.98812E+03 -2.04755E+03  5.28439E+02 -3.91613E+03
 -9.02057E+02  4.00316E+03 -1.62725E+03  2.97597E+03 -2.44730E+03 -2.22744E+03  2.31054E+03  1.54598E+03
 -3.44262E+03 -1.25433E+03  2.95894E+03  2.62171E+03  3.37224E+03  4.39300E+03 -1.89132E+03 -6.06841E+02
  1.01542E+03  2.16286E+03 -1.05444E+03  4.72758E+03  2.01331E+03 -4.30371E+03 -1.77784E+03 -1.14926E+02
 -5.71395E+02  1.26021E+03 -3.80882E+02 -3.00324E+03  2.87730E+02 -1.52267E+03  3.69833E+03 -3.31669E+03
  2.59726E+03 -2.05898E+03  4.27654E+02 -2.66192E+03 -1.40182E+03 -1.75731E+03 -9.96509E+02 -1.71083E+02
 -2.75696E+03 -8.53881E+01 -1.56120E+03 -3.39970E+03  4.87283E+03  2.58264E+03 -2.88398E+03 -3.19820E+03
 -1.83046E+03 -1.96655E+03 -3.28314E+03 -1.55105E+03 -9.54914E+02  4.09293E+03 -1.19850E+03 -6.47720E+02
  5.11500E+03 -7.83592E+02 -1.88838E+03  8.75209E+02  3.07441E+01  2.25669E+03  1.96338E+03  2.36222E+03
 -4.35279E+03  2.36484E+03  1.73320E+03  2.23375E+03 -1.47230E+03  1.78950E+03  4.18590E+03 -2.71393E+03
 -3.09657E+03 -4.81421E+03  3.23239E+03 -2.28821E+03 -3.11520E+02  7.73863E+02  4.07976E+01 -1.00442E+03
 -1.01092E+03  1.96066E+03  3.00362E+03  1.00503E+03  1.97680E+03 -4.28332E+02 -2.70303E+02 -4.25650E+03
  1.67880E+03  2.70517E+03 -1.63320E+03  6.15802E+02  1.24766E+03  4.02285E+02 -4.50222E+02  1.96233E+03
 -1.45896E+03  9.97032E+02  2.10674E+03  1.23094E+03 -1.51663E+03 -4.34958E+01 -7.25605E+02 -2.92502E+03
  1.14287E+02 -1.98978E+03  8.65343E+02  7.35125E+01  2.73217E+03  1.49407E+03 -4.44045E+03  3.06120E+03
 -3.49890E+03  3.54741E+03 -2.74367E+03 -1.99934E+02 -2.75890E+03  2.88056E+03 -8.67944E+02  1.52579E+03
  1.20371E+03  3.82329E+03  2.21052E+02  1.72148E+03 -4.08323E+03 -1.47796E+02 -2.21356E+03 -6.80996E+02
 -5.18366E+02 -1.33152E+03 -1.28735E+03 -5.14820E+02 -5.53908E+02  3.00262E+03 -5.57887E+02 -1.34390E+00
  5.75093E+03 -1.41300E+03  2.47192E+03  1.03250E+03 -1.34940E+03 -1.55077E+03 -4.21572E+03 -3.17950E+03
