 $NMID ID='MM_0lb_SNR50_11hz_g40_21.RAW', FMTDAT='(8E13.5)'
 TRAMP=1., VOLUME=1. $END
  3.10026E+05  3.27653E+03  3.41935E+05  2.49778E+05  8.63677E+04  3.43004E+05 -1.33183E+05  2.46864E+05
 -1.90211E+05  8.71885E+04 -1.16631E+05 -2.95911E+04  4.23967E+03 -5.25776E+04  5.17267E+04 -4.71524E+03
  3.19233E+04  5.54126E+04 -1.90678E+04  7.24900E+04 -6.07894E+04  6.01821E+04 -8.53917E+04  3.24925E+04
 -8.24402E+04 -8.72237E+03 -5.33203E+04 -4.91741E+04 -1.51823E+04 -7.00607E+04  2.98226E+04 -5.16156E+04
  4.08600E+04  3.97435E+03  1.52062E+04  4.58208E+04 -3.36673E+04  4.22003E+04 -6.41613E+04  2.63882E+03
 -5.11016E+04 -5.83556E+04 -7.38576E+03 -7.62749E+04  3.37360E+04 -5.78997E+04  5.08843E+04 -2.20944E+04
  4.25681E+04  1.70435E+04  3.34814E+04  2.59758E+04  1.96855E+04  3.09015E+04 -7.22087E+02  2.99436E+04
 -2.47077E+04  4.93094E+03 -1.45106E+04 -7.06978E+03  8.49898E+03 -1.16196E+04  2.40759E+04  1.50581E+04
  1.70259E+03  3.58132E+04 -3.91188E+04  3.29336E+04 -5.79625E+04  3.05740E+03 -6.06731E+04 -4.32144E+04
 -1.23009E+04 -6.44488E+04  4.41151E+04 -4.94633E+04  5.83173E+04 -3.73988E+03  3.74958E+04  2.88110E+04
 -2.02842E+03  3.90043E+04 -2.97316E+04  1.51982E+04 -3.17614E+04  4.90548E+02 -1.87875E+04 -9.06517E+03
 -8.32617E+03 -1.71812E+04  2.78315E+03 -2.10432E+04  2.95985E+03 -2.33646E+04  1.15432E+04 -1.22507E+04
  1.26663E+04  6.54576E+03 -3.11370E+03  1.46459E+04 -2.20688E+04 -4.08457E+03 -6.13045E+03 -3.56638E+04
  2.63529E+04 -4.35456E+04  5.07311E+04 -1.87777E+04  5.17539E+04  1.69029E+04  1.53889E+04  4.48747E+04
 -1.75999E+04  3.11246E+04 -2.77555E+04  4.76985E+02 -8.11289E+03 -2.61463E+04  2.44584E+04 -3.90005E+04
  4.54671E+04 -1.24484E+04  3.82946E+04  2.93295E+04  2.04203E+04  4.49979E+04 -1.24515E+04  5.39579E+04
 -2.91759E+04  3.29021E+04 -4.23961E+04  8.55847E+03 -4.55564E+04 -1.55188E+04 -2.03313E+04 -4.24920E+04
  8.06664E+03 -3.91906E+04  3.39866E+04 -1.46015E+04  3.97449E+04  6.33197E+03  7.87224E+03  2.61823E+04
 -1.43112E+04  3.51876E+03 -1.15465E+04 -9.13127E+03  4.08220E+03 -8.00337E+03  1.38817E+04  1.13819E+04
  1.38782E+04  2.37458E+04 -2.96049E+03  2.63111E+04 -2.17167E+04  1.23205E+04 -2.51693E+04 -1.58107E+03
 -2.77071E+04 -1.74933E+04 -1.34379E+04 -2.20232E+04  9.19860E+03 -2.46311E+04  1.90273E+04 -2.07721E+04
  2.88063E+04 -1.45462E+04  3.23382E+04  4.26777E+03  2.12729E+04  1.80705E+04  1.41437E+03  4.24780E+04
 -2.01068E+04  3.15325E+04 -2.23919E+04  4.71170E+03 -1.93685E+04 -7.82209E+03 -4.95018E+03 -1.02483E+04
  1.66212E+03 -1.22748E+03 -9.36329E+03  9.52705E+03 -1.73807E+04  8.56913E+02 -1.77895E+04 -5.15065E+03
 -7.42509E+03 -1.98257E+04  9.48217E+03 -2.28178E+04  1.88248E+04 -2.13755E+04  1.73927E+04 -2.45753E+03
  1.56365E+04  1.62562E+04 -3.48628E+03  2.04537E+04 -1.61003E+04  1.16798E+04 -2.28443E+04 -1.65962E+03
 -1.60154E+04 -1.14228E+04 -3.83621E+03 -2.08624E+04  9.78148E+03 -2.28113E+04  2.21614E+04 -8.20685E+03
  1.77109E+04 -4.92219E+01  1.03791E+04  5.47088E+03  8.35702E+03 -7.36049E+03  1.30440E+04  4.01841E+03
  1.81485E+04 -1.98184E+03  1.98461E+04  1.52648E+04  1.54851E+04  2.89776E+04  1.38763E+03  3.93110E+04
 -1.89844E+04  2.76866E+04 -3.35293E+04  1.99762E+04 -4.02806E+04 -3.56080E+03 -2.70279E+04 -2.18150E+04
 -1.64087E+04 -3.42163E+04  6.36503E+03 -2.87839E+04  2.44189E+04 -1.20759E+04  2.23542E+04  6.23923E+03
  8.70900E+03  1.64318E+04 -8.81204E+03  1.68276E+04 -2.07241E+04  1.98955E+03 -1.64850E+04 -3.80925E+03
  6.68611E+02 -1.41968E+04  9.64007E+03 -1.20734E+04  1.02487E+04 -2.09066E+02  4.50089E+03  2.69540E+03
 -4.87519E+03  1.12625E+04 -8.71614E+03 -4.09834E+03  1.53335E+03 -1.04832E+04  5.74946E+03 -1.35982E+04
  1.94321E+04 -1.28182E+04  2.46205E+04  2.21931E+03  2.03102E+04  2.19594E+04  7.35969E+03  2.28361E+04
 -2.07637E+03  3.08826E+04 -2.34005E+04  7.60178E+03 -2.16930E+04  7.04583E+03 -7.78578E+03 -6.66530E+03
 -1.05032E+04 -7.54304E+03 -9.35623E+03  2.50928E+03 -3.53412E+02  3.94530E+03 -3.23671E+03  9.64063E+03
 -1.21195E+04 -2.92664E+03 -1.15969E+04 -6.96546E+03 -7.97336E+03 -1.03905E+04 -1.49410E+02 -1.39143E+04
  9.44157E+03 -1.34613E+03  1.31416E+04  4.95286E+03 -2.05499E+03  4.20040E+03 -5.15238E+03 -2.23464E+03
 -9.48681E+03 -1.13586E+04 -1.03356E+03 -8.70441E+03  3.93103E+03 -1.06730E+04  2.03021E+04 -4.48277E+03
  1.72706E+04 -4.31857E+03  8.16580E+03  1.57789E+04  5.59675E+03  1.97156E+04 -1.06295E+04  1.75091E+04
 -1.58544E+04  4.92529E+03  1.20517E+03 -3.27744E+03 -4.81336E+02 -2.31515E+03  3.97116E+03 -4.66977E+03
 -3.42377E+02  3.33037E+03  1.26013E+03  5.60926E+03 -7.90631E+03  1.35135E+04 -1.91274E+04  3.63484E+03
 -9.96755E+03 -2.76219E+03  8.75768E+02 -1.27095E+04  1.23677E+03 -5.26072E+03  7.22284E+03  2.92528E+03
 -2.61774E+03  6.01704E+03 -5.68276E+03  1.29418E+04 -1.85012E+04  3.10219E+03 -1.43089E+04 -7.35062E+03
 -6.24649E+03 -1.09364E+04  8.82725E+03 -1.31322E+04  1.13285E+04 -1.07031E+04  1.65591E+04 -2.81764E+02
  7.74633E+03  1.32405E+04 -2.00260E+03  1.13550E+04 -5.80673E+03  1.01966E+04 -1.20700E+04 -6.59446E+02
 -4.58697E+03 -7.79916E+03 -6.48881E+03 -1.26676E+04  4.73767E+03 -1.24501E+04  1.03840E+04 -6.87313E+03
  2.72001E+03 -2.72955E+03  2.27521E+03  4.01173E+03 -3.50444E+03 -2.60816E+03  1.42549E+03 -7.76535E+03
  1.28759E+04 -2.72977E+02  1.43596E+04 -2.41915E+02  1.52556E+04  6.98424E+03  4.89009E+03  1.56668E+04
 -5.24628E+03  1.85069E+04 -1.18862E+04  1.48976E+04 -1.81894E+04 -2.59073E+03 -1.82936E+04 -6.25435E+03
 -5.55028E+03 -9.12959E+03  2.16678E+03 -8.81446E+03  9.64644E+01 -7.58552E+03  2.61734E+03 -6.60132E+03
  3.71026E+03 -1.77290E+03  3.36298E+03 -1.54356E+03  7.60758E+03 -4.97379E+03  7.90032E+03 -3.05884E+03
  9.76565E+03  2.51219E+03  4.05613E+03  1.18248E+04 -7.26761E+01  1.18263E+04 -5.87584E+03  1.04265E+04
 -1.25368E+04  4.25228E+03 -8.04531E+03 -4.25332E+03  5.05141E+02 -9.30346E+03  7.20497E+03 -1.13008E+04
  1.41439E+04 -2.74145E+03  1.56463E+04  2.60190E+03  1.29143E+04  1.31739E+04  2.95022E+03  1.51304E+04
 -1.30063E+04  1.52472E+04 -1.00332E+04  6.01724E+03 -7.21663E+03 -9.26563E+03 -2.03733E+03 -1.51002E+03
 -2.29436E+03 -2.78457E+03 -2.88321E+03  3.31866E+03 -3.69287E+03 -9.15081E+02 -5.43164E+03  4.37811E+03
 -6.04482E+03 -1.15627E+04 -1.31537E+03 -1.22688E+04  6.46227E+03 -2.38173E+03  8.51872E+03 -1.64635E+03
  1.43926E+04  5.08985E+03  6.14226E+03  1.62357E+04 -2.39876E+03  1.28843E+04 -1.04274E+04  5.92406E+03
 -1.05751E+04 -2.47724E+03 -1.31689E+04 -4.56481E+03  3.13142E+02 -7.19016E+03  9.94838E+03 -9.01858E+03
  9.82764E+03 -3.18132E+02  2.17745E+03 -1.18652E+03  4.72507E+03  2.15132E+03  8.43283E+02  3.85949E+02
  2.02504E+03  1.81541E+03  3.09621E+03  3.19785E+03  2.53810E+03 -3.90154E+02  5.09600E+03  4.03769E+03
 -4.89441E+03  6.79646E+03 -1.17407E+04  7.39995E+03 -9.04149E+03 -1.39027E+03 -1.05451E+04 -5.55456E+03
 -1.01178E+04 -9.76402E+03  4.67760E+03 -9.94469E+03  4.52379E+03 -1.11246E+04  4.28145E+03  3.48962E+03
  3.35651E+03  7.17305E+03  5.18367E+03  7.23821E+03 -4.32234E+03  4.72415E+03 -6.14051E+03  2.87491E+03
 -7.82892E+03 -6.24282E+03  2.41850E+03 -4.72235E+03 -8.38562E+02 -8.04792E+03  2.20885E+03  1.14929E+03
  7.51034E+03  1.66333E+03  8.18088E+02  5.29168E+03 -1.20396E+03  7.07112E+03 -2.40642E+03 -4.43386E+03
 -5.43304E+03 -1.64059E+03  3.95286E+03  3.50675E+03 -3.42460E+03  1.03945E+04 -4.32681E+02  4.51535E+03
 -1.39507E+04  6.81589E+03 -5.09205E+03 -1.02562E+03  3.30687E+02 -3.77152E+02  1.95434E+03 -4.75212E+03
 -1.86610E+03 -3.71362E+03  3.30642E+03 -3.02964E+03  4.98423E+03 -3.24318E+01 -1.60902E+03  2.67254E+03
 -3.93924E+03  3.18053E+02 -7.69376E+03  7.24578E+02  4.30190E+02 -1.19970E+04  4.84391E+03  1.90762E+02
  1.48267E+03  1.87737E+03  8.73048E+03  1.23822E+03  5.79495E+03  7.99341E+02  7.80882E+02  5.27785E+03
 -3.13124E+03 -7.00782E+01 -5.20845E+03 -9.59689E+03 -1.00005E+03 -2.35842E+03  1.00509E+04 -3.40027E+03
  3.67644E+03 -2.52551E+03  1.20869E+03  9.88666E+02  2.61943E+03  9.86133E+03 -8.16896E+03  1.48129E+03
 -1.76019E+03  2.59256E+03 -6.20296E+03  5.28084E+03 -3.88197E+03  6.91591E+02  6.10065E+03 -1.34856E+03
  2.29848E+03 -2.70655E+03  8.01014E+02  1.75865E+03  4.49569E+03  6.73932E+03  9.61183E+02  3.82710E+03
  5.97586E+02  5.66837E+03 -2.70559E+03  2.79023E+03 -1.40806E+03  2.70731E+03  4.04945E+02 -2.37431E+02
 -5.38653E+03  6.59708E+03 -4.87828E+03  4.05138E+03 -6.18894E+03  3.78931E+03 -8.84994E+03 -3.83101E+03
 -1.50432E+03 -1.01145E+04  7.34181E+01 -1.39885E+04  6.50532E+03 -9.27385E+03  4.43746E+03  2.68771E+03
  1.08207E+04 -1.10377E+03  5.74939E+03  3.80455E+03  4.24526E+03  5.48841E+03 -7.12374E+03  8.90345E+03
 -7.74066E+03  1.65111E+02 -3.28809E+03  1.12641E+03  1.17802E+03  3.86245E+03 -2.28401E+01  6.34685E+02
 -1.88604E+03 -1.07256E+03  2.66535E+02 -3.50025E+03 -3.26914E+03  1.25888E+03  3.10272E+03  1.55495E+03
  4.35003E+03  3.07648E+03 -1.74506E+03  8.38669E+03  3.05377E+03  4.68559E+03  5.25555E+03  6.76955E+03
 -6.06677E+03  1.02057E+04 -8.85646E+03  3.18307E+03 -9.96479E+03 -1.18402E+03 -3.53924E+03 -2.72604E+03
 -6.28404E+03 -7.06010E+03  4.38354E+03 -9.50363E+03  2.23515E+03 -3.11309E+03  1.28103E+03  1.30509E+03
  7.44637E+03  2.44354E+03  5.30340E+02 -2.60316E+03  2.91324E+03 -4.02206E+03 -1.86266E+03  1.05359E+03
  7.76149E+03  3.84967E+03  5.14272E+03 -1.69387E+03 -9.26714E+01  9.24291E+02 -2.85000E+03  5.53215E+03
 -4.95657E+03  4.33881E+03 -1.11195E+04  1.07977E+03 -6.94434E+03 -7.84301E+03 -4.47944E+03 -1.27155E+03
  6.94901E+03 -4.26443E+03  4.84535E+03  5.21694E+03  1.94319E+03  5.44345E+03 -2.61983E+03  3.93960E+03
  3.80025E+03  6.13989E+03 -3.69281E+03  9.72446E+03 -5.97840E+03  4.79478E+03 -3.42930E+03 -3.27763E+03
 -1.59012E+03 -5.31116E+02 -4.39971E+03 -1.20659E+02 -3.81598E+03 -1.43872E+03 -1.53279E+03  2.94099E+03
 -3.60964E+03 -2.92595E+03  4.05613E+02 -9.27562E+02  1.98915E+03 -2.98255E+03 -1.79059E+03 -1.21854E+03
  5.06757E+03  3.22352E+03 -2.41206E+02  9.86828E+02 -5.11727E+02  8.45901E+03 -5.24661E+03  7.86988E+03
