 $NMID ID='MM_0lb_SNR50_10hz_g60_30.RAW', FMTDAT='(8E13.5)'
 TRAMP=1., VOLUME=1. $END
  3.10071E+05 -2.36906E+02  3.38037E+05  2.52548E+05  8.42208E+04  3.45604E+05 -1.31329E+05  2.48034E+05
 -1.95169E+05  8.11885E+04 -1.08334E+05 -3.08813E+04  8.37636E+02 -4.88062E+04  5.63846E+04  3.79554E+03
  3.35242E+04  5.57718E+04 -1.60104E+04  7.93212E+04 -5.99246E+04  6.50856E+04 -8.69261E+04  3.43291E+04
 -8.25133E+04 -1.38771E+04 -5.40668E+04 -5.34129E+04 -1.11474E+04 -7.39543E+04  2.39999E+04 -5.15128E+04
  4.61491E+04  9.28044E+02  1.90430E+04  4.01981E+04 -3.44514E+04  5.26416E+04 -6.20771E+04 -2.29423E+03
 -5.73271E+04 -5.27805E+04 -5.74450E+03 -8.10366E+04  3.38778E+04 -6.15999E+04  5.05504E+04 -2.15012E+04
  4.18566E+04  1.02054E+04  3.17698E+04  3.07478E+04  1.30253E+04  3.87733E+04 -3.52506E+03  2.54256E+04
 -1.75671E+04  1.38387E+04 -1.68989E+04 -3.62304E+03  1.02173E+04 -9.64373E+03  2.62102E+04  1.71903E+04
  7.59130E+03  3.94598E+04 -3.88305E+04  3.89302E+04 -6.58091E+04  7.12476E+03 -5.69447E+04 -4.59202E+04
 -2.03434E+04 -6.40492E+04  4.44690E+04 -4.94810E+04  6.91520E+04  2.46034E+03  3.53002E+04  3.50563E+04
 -5.65352E+03  3.90883E+04 -3.08615E+04  1.88643E+04 -3.54340E+04 -5.05496E+02 -2.05569E+04 -1.09347E+04
 -1.63881E+04 -1.39457E+04 -3.88626E+03 -2.24009E+04  5.10594E+03 -2.78332E+04  1.19083E+04 -1.56423E+04
  1.53010E+04  6.34264E+03 -1.13838E+04  1.05704E+04 -2.56052E+04 -7.33579E+02 -1.38473E+04 -4.34540E+04
  3.00910E+04 -4.59631E+04  4.83462E+04 -2.08338E+04  5.03928E+04  2.05000E+04  2.31432E+04  5.12313E+04
 -1.76798E+04  3.99090E+04 -2.17592E+04  1.98791E+03 -1.22967E+04 -2.70809E+04  1.52463E+04 -4.03062E+04
  5.05591E+04 -8.43289E+03  4.13913E+04  1.87739E+04  2.23969E+04  5.57440E+04 -8.70221E+03  5.69043E+04
 -3.81815E+04  4.01259E+04 -4.41312E+04  1.57161E+04 -4.76740E+04 -2.18477E+04 -2.20850E+04 -4.20652E+04
  8.03234E+03 -4.23401E+04  2.89647E+04 -1.96378E+04  2.90998E+04  3.16691E+03  7.59963E+03  2.30284E+04
 -9.81697E+03  1.34008E+04 -8.98897E+03 -5.95580E+03  6.30476E+03 -1.90557E+04  1.92592E+04  2.59244E+03
  1.46228E+04  2.07093E+04 -7.09665E+03  2.21967E+04 -2.55946E+04  1.36535E+04 -3.58149E+04 -9.11363E+03
 -2.69724E+04 -1.58573E+04 -1.69390E+04 -2.68347E+04  4.74747E+03 -3.16227E+04  1.72284E+04 -2.14248E+04
  3.14975E+04 -1.72446E+04  3.86395E+04  1.10326E+03  2.54940E+04  2.21646E+04  8.21235E+03  4.06723E+04
 -2.01200E+04  3.04938E+04 -2.62475E+04  1.24553E+04 -2.38700E+04 -1.28326E+04 -3.86635E+03 -9.09741E+03
  1.89090E+03  2.93817E+03 -6.67136E+03  5.33105E+03 -1.90443E+04  1.92296E+03 -1.85202E+04 -1.10481E+04
 -1.20364E+04 -2.15743E+04  1.15297E+04 -2.26218E+04  2.00378E+04 -1.96963E+04  1.87972E+04 -5.83063E+03
  1.10129E+04  1.34310E+04  1.83726E+03  2.20349E+04 -1.82722E+04  1.52249E+04 -2.69115E+04 -7.23397E+03
 -2.58220E+04 -1.85237E+04  5.43655E+01 -2.49610E+04  1.48352E+04 -2.78517E+04  2.70416E+04 -1.64792E+04
  1.96342E+04 -1.72810E+02  1.12852E+04 -9.13440E+02  1.02695E+04 -1.91796E+03  7.17051E+03 -7.92666E+03
  2.62150E+04  1.20923E+03  1.84381E+04  2.21757E+04  1.70488E+04  4.12622E+04 -3.57553E+03  4.44850E+04
 -2.39212E+04  3.95174E+04 -4.74229E+04  2.28401E+04 -4.64254E+04 -7.11288E+03 -3.07541E+04 -2.38792E+04
 -1.73723E+04 -3.72321E+04  1.31133E+04 -3.52058E+04  2.72544E+04 -1.78079E+04  2.38185E+04  6.77787E+03
  4.60104E+03  1.85252E+04 -1.09214E+04  1.27685E+04 -2.17465E+04  6.33627E+03 -1.53392E+04 -1.04385E+04
 -1.34445E+03 -1.88146E+04  6.28699E+03 -1.41310E+04  1.49294E+04  2.74122E+03 -1.16296E+02  1.35173E+04
 -2.74154E+03  8.00555E+03 -1.02472E+04 -8.77372E+03 -5.21320E+02 -1.54906E+04  6.69819E+03 -1.88555E+04
  2.56981E+04 -4.89540E+03  2.57523E+04  3.45806E+03  2.35135E+04  1.88977E+04  1.66203E+04  2.90524E+04
 -4.73976E+03  3.36405E+04 -2.45800E+04  2.57424E+04 -1.94395E+04  2.58788E+03 -1.10079E+04 -4.34816E+03
 -9.91741E+02 -7.09309E+03  8.02043E+02  3.05376E+03 -3.29596E+03  4.00674E+03 -7.32401E+03  5.01443E+02
 -1.22692E+04  3.73465E+01 -1.79867E+04 -1.10626E+04 -9.83587E+03 -1.70229E+04  4.32673E+03 -1.45069E+04
  7.81933E+03 -5.53472E+03  7.73345E+03  3.75973E+03 -2.21090E+03  4.70036E+03 -9.43994E+03 -7.82083E+02
 -7.62755E+03 -7.34111E+03 -5.48984E+02 -1.42122E+04  1.21081E+04 -1.10498E+04  1.75434E+04 -1.04322E+04
  2.26606E+04  5.41571E+03  1.56882E+04  1.07947E+04  5.94205E+03  2.13070E+04 -9.92242E+03  8.84151E+03
 -1.15299E+04  6.48765E+03 -6.03347E+03  5.55695E+03  1.18071E+04 -3.74176E+03  5.57098E+03  3.51969E+03
  4.90483E+03  7.04435E+03  3.02701E+03  8.91450E+03 -7.00430E+03  1.15146E+04 -1.79364E+04  5.83360E+03
 -1.51750E+04 -8.08890E+03  2.82733E+03 -1.73939E+04  6.56932E+03 -6.41190E+03  1.40834E+04  1.14873E+04
  2.75362E+03  1.13511E+04 -5.65481E+03  1.48605E+04 -4.62681E+03  7.16688E+03 -1.26258E+04 -2.96092E+03
 -1.18977E+04 -2.13312E+04  9.66680E+02 -1.67174E+04  1.68995E+04 -1.19787E+04  1.34756E+04  4.08365E+03
  9.15230E+03  1.69566E+04 -6.08549E+03  1.01604E+04 -8.99153E+03  1.45156E+04 -9.03994E+03 -2.88562E+03
 -1.28205E+04 -1.26739E+04  2.09050E+03 -9.57901E+03  2.59919E+03 -7.07882E+03  9.79111E+02 -1.46235E+01
  1.27507E+04  5.02917E+02  2.58991E+01 -2.11895E+03  5.39469E+03  1.77959E+03  4.19797E+03 -4.52550E+03
  2.02871E+04 -7.94928E+03  1.29674E+04  4.03577E+03  1.73863E+04  5.68890E+03  8.49179E+03  2.09012E+04
 -8.14244E+02  2.44679E+04 -1.36865E+04  1.44964E+04 -2.57534E+04  5.82972E+03 -2.00161E+04 -8.59894E+03
 -1.11598E+04 -2.64481E+04 -4.15536E+03 -1.53135E+04  5.56130E+03 -9.17041E+03  8.83373E+03 -8.50983E+03
  6.45496E+03 -2.47734E+03 -1.55766E+03 -4.33800E+03  3.41202E+03  2.53220E+03  4.69779E+03 -4.95628E+03
  4.85304E+03 -5.82220E+02  1.52601E+03  1.03836E+04 -2.87340E+03  8.13046E+03 -7.72906E+03  1.09473E+04
 -1.45729E+04  4.07362E+03 -1.71227E+04 -1.04545E+04  1.13652E+03 -1.18706E+04  1.00467E+04 -1.41203E+04
  1.93435E+04 -8.44321E+03  1.48981E+04  1.21998E+03  5.87642E+03  1.17766E+04  2.02383E+03  2.26868E+04
 -5.38510E+03  1.17698E+04 -2.03487E+04 -1.87008E+02 -5.56768E+03  1.02621E+03  1.50608E+03 -1.62373E+03
 -2.66599E+03  4.87992E+03  4.25663E+03  8.53227E+03  7.43269E+02  6.12409E+03 -1.61558E+04  1.88871E+03
 -7.27046E+03 -1.30279E+04  2.46762E+03 -1.41832E+04  7.29275E+03 -1.59330E+04  1.25490E+04 -2.39400E+03
  1.34490E+04  1.02647E+04  6.26786E+03  7.76855E+03 -2.72715E+03  1.71599E+04 -1.24706E+04  4.89325E+03
 -9.23749E+03  2.00427E+03 -1.17483E+04 -1.05275E+04  3.07441E+03 -1.60294E+04  2.30147E+03 -6.13006E+03
  3.61234E+03 -2.31295E+03  1.92987E+03 -4.28637E+03  2.35320E+03  3.91594E+03 -6.03122E+03 -7.54134E+02
  4.89513E+02 -3.92000E+03  7.74710E+02  5.12262E+03  6.18231E+03  3.58474E+03  1.27075E+03  1.57170E+03
 -6.10798E+01  6.71283E+03 -1.18305E+04  8.78061E+03 -1.55882E+04  5.10917E+03 -1.43538E+04 -6.57927E+03
 -1.02375E+04 -1.58410E+04  3.40715E+02 -1.66371E+04  8.73580E+03 -1.32997E+04  9.98544E+03  2.39330E+02
  1.31711E+04  5.98510E+03  2.49643E+03  1.06140E+04 -2.48968E+03  6.88208E+03 -1.04374E+04  8.94999E+02
 -6.97960E+03 -6.91775E+03  2.09110E+03 -7.82653E+03  7.30469E+03 -6.23445E+03  9.40187E+03 -3.02156E+03
  1.81617E+03  4.47631E+03  1.59279E+03  4.26853E+03 -6.74478E+03  4.47320E+03  4.11456E+02 -1.84472E+03
  7.48836E+03 -5.01143E+03  4.50360E+03  3.72606E+03  5.70892E+03  5.42757E+03 -2.72870E+03  6.27541E+03
 -3.66781E+02  8.89219E+03 -6.96130E+03  4.84256E+03 -1.05484E+04  3.04634E+02 -6.15141E+03 -1.01902E+04
 -5.86288E+03 -6.32935E+02  6.35349E+03 -2.22204E+03  1.26249E+03  6.30279E+03 -9.83666E+02 -3.88149E+02
 -1.10245E+04  3.77539E+03 -1.35004E+04 -1.47680E+02 -4.85638E+03 -6.72037E+03  2.49951E+03 -7.18697E+03
  5.82682E+03 -1.97848E+03  4.20671E+03 -7.39969E+02  3.72340E+03  7.70858E+03  2.29844E+03  9.28611E+03
  5.07282E+02  2.27906E+03 -3.54061E+03 -6.11569E+03  4.29303E+03 -5.24663E+03  1.08404E+04 -1.02666E+04
  8.27734E+03 -6.01414E+02  1.13561E+04  6.90375E+03  1.63631E+03  8.56030E+03 -1.35983E+02  1.26197E+04
 -1.06390E+04  6.71503E+03 -1.13770E+04 -5.59934E+03 -5.23702E+03 -3.06161E+03  3.05265E+03 -1.25247E+03
  6.15228E+03 -2.88169E+03  6.30254E+03  4.31454E+03  4.71652E+03  7.02127E+03 -2.48094E+03  8.32392E+03
 -4.12702E+03 -1.32173E+03 -7.56880E+03  3.34643E+03 -1.46102E+03 -1.72395E+03 -4.03171E+03  1.81211E+03
 -2.72678E+03  6.74784E+03  1.19615E+02 -3.25789E+01 -1.27984E+04  2.18783E+03 -1.36199E+04 -5.54673E+03
 -6.81304E+03 -1.58376E+04 -1.15038E+02 -1.42496E+04  1.21821E+04 -1.10212E+04  1.68043E+04 -8.87666E+03
  3.25419E+03  1.22797E+03  7.26911E+03  1.64196E+04 -2.30386E+03  8.65517E+03 -9.60502E+03  6.76323E+03
 -8.09578E+03  2.30474E+03 -3.70707E+02 -5.43949E+03  6.16799E+01  2.73729E+03 -1.09172E+03  4.91215E+02
  1.53265E+03 -1.37702E+03 -2.48650E+03  6.92210E+02 -2.11525E+03 -8.98281E+03  3.84620E+03 -2.62414E+03
  3.34661E+03  2.63553E+03  1.07863E+04  6.53393E+03  8.31238E+03  1.14268E+03  4.66778E+03  1.35005E+04
 -4.91630E+03  1.68965E+04 -1.14986E+04  5.98541E+03 -1.61996E+04  1.01977E+03 -9.59024E+03 -6.53947E+03
  7.90612E+02 -1.09398E+04 -4.63134E+02 -8.69548E+03  4.48942E+03 -4.07143E+03  6.21013E+03  1.30499E+03
  5.45120E+03  7.75237E+03 -2.43248E+03 -1.85546E+03 -1.17914E+03  1.92751E+03  7.12276E+02 -6.50710E+03
  6.34788E+03 -4.14913E+02  6.81430E+03  3.70639E+03  6.11979E+03  7.69660E+03 -2.31542E+03  8.42233E+03
 -1.79838E+03  3.77475E+03 -4.53034E+02 -1.03004E+04 -9.61566E+03 -1.00750E+02  4.59818E+03 -7.79699E+03
  1.26914E+04 -3.92633E+03  9.47449E+03 -3.11515E+02  1.03246E+04 -1.26973E+03  4.76504E+03  6.83221E+03
  1.37153E+03  1.25663E+04 -2.76873E+03  1.10213E+04 -2.09213E+03  3.91231E+03 -8.20503E+03  4.09562E+03
 -2.85822E+03  1.19911E+03 -2.06254E+03 -1.12518E+03 -5.36032E+03  2.84250E+02 -8.89991E+03  8.53677E+02
 -1.89267E+03 -1.22965E+03 -1.57944E+03 -3.31994E+03  1.07024E+03 -1.39067E+04 -4.47859E+03 -9.37573E+03
  9.94768E+03 -5.79430E+01  5.39702E+03  5.14858E+03 -4.49191E+03  9.28080E+03 -9.94948E+03  9.41709E+03
