 $NMID ID='MM_0lb_SNR50_11hz_g55_16.RAW', FMTDAT='(8E13.5)'
 TRAMP=1., VOLUME=1. $END
  3.09528E+05 -1.57971E+03  3.36679E+05  2.54063E+05  8.57287E+04  3.33712E+05 -1.33687E+05  2.50510E+05
 -1.88855E+05  8.69678E+04 -1.11770E+05 -3.14373E+04 -1.05674E+03 -5.04376E+04  5.29268E+04 -2.25394E+03
  3.85110E+04  5.34544E+04 -1.81763E+04  7.60775E+04 -6.27796E+04  6.08185E+04 -8.59922E+04  3.30895E+04
 -8.24752E+04 -1.50784E+04 -5.49181E+04 -5.40517E+04 -9.21627E+03 -6.43254E+04  3.02308E+04 -4.38896E+04
  3.52227E+04 -9.47808E+02  1.91665E+04  4.75978E+04 -2.72430E+04  5.09049E+04 -6.81713E+04  3.35738E+02
 -5.20051E+04 -6.16417E+04 -7.24414E+03 -7.96387E+04  3.76032E+04 -5.78779E+04  5.39605E+04 -1.75930E+04
  3.94472E+04  1.14646E+04  3.59126E+04  3.00850E+04  2.19770E+04  3.36944E+04 -1.46870E+03  2.58934E+04
 -1.62812E+04  1.04701E+04 -1.78017E+04 -3.66642E+03  1.11490E+04 -4.55111E+03  2.63079E+04  1.91139E+04
  2.88050E+03  3.60098E+04 -3.67440E+04  3.49472E+04 -6.25972E+04  4.37785E+03 -5.91441E+04 -4.28232E+04
 -1.22965E+04 -6.74321E+04  4.23551E+04 -4.96301E+04  6.21598E+04  1.33864E+03  3.40313E+04  3.35081E+04
 -4.93087E+03  4.12802E+04 -3.32424E+04  1.60971E+04 -3.38104E+04  6.86898E+02 -1.84311E+04 -1.08207E+04
 -5.92132E+03 -1.41569E+04 -5.01656E+02 -1.37181E+04  3.04327E+03 -2.25807E+04  1.27095E+04 -1.17050E+04
  6.88037E+03  7.15820E+03 -7.67567E+03  6.84670E+03 -2.41252E+04 -4.90868E+03 -1.25121E+04 -3.54392E+04
  2.81923E+04 -4.42243E+04  4.83421E+04 -1.73448E+04  4.41083E+04  1.98932E+04  1.98584E+04  4.82075E+04
 -1.55081E+04  3.42044E+04 -2.85805E+04  5.23001E+03 -1.25351E+04 -2.60829E+04  2.20074E+04 -4.00534E+04
  4.56698E+04 -1.20415E+04  4.16349E+04  1.99098E+04  1.98303E+04  5.49960E+04 -7.48526E+03  5.27346E+04
 -3.44688E+04  4.03600E+04 -4.91259E+04  1.46438E+04 -4.76263E+04 -2.12318E+04 -2.76947E+04 -4.05762E+04
 -9.07687E+02 -4.07117E+04  2.72284E+04 -2.17409E+04  2.68645E+04  9.42755E+03 -2.67052E+01  2.38157E+04
 -1.48850E+04  1.14570E+04 -1.05409E+04 -1.07189E+04  8.49750E+03 -1.36957E+04  1.80208E+04  1.03463E+04
  1.71371E+04  2.01849E+04 -4.33688E+03  2.52131E+04 -2.27321E+04  1.03509E+04 -2.87704E+04 -2.75712E+03
 -2.50673E+04 -2.16582E+04 -3.53825E+03 -2.00325E+04  3.47619E+03 -2.78040E+04  1.81228E+04 -2.44900E+04
  3.28305E+04 -1.16994E+04  3.61938E+04  6.88684E+03  2.35525E+04  2.52330E+04  9.49282E+03  4.32159E+04
 -1.53133E+04  3.23269E+04 -2.68181E+04  9.25011E+03 -2.09914E+04 -6.49014E+03 -5.24935E+03 -1.63599E+04
  6.95870E+03 -8.37521E+02 -4.09495E+03  1.00449E+04 -1.60319E+04  9.21146E+03 -2.04934E+04 -1.36544E+04
 -1.68468E+04 -2.16477E+04  4.98933E+03 -2.81558E+04  2.31925E+04 -1.35461E+04  2.35403E+04  2.51322E+01
  1.19713E+04  1.35011E+04  1.74449E+03  2.10834E+04 -2.22521E+04  1.28621E+04 -2.32741E+04 -3.45457E+03
 -1.54328E+04 -1.99458E+04 -1.67236E+03 -2.60226E+04  1.76539E+04 -1.37267E+04  1.75582E+04 -1.15515E+04
  2.01890E+04  1.44235E+03  1.34689E+04  8.68175E+03  1.24691E+04 -4.47998E+02  1.08102E+04 -6.75656E+03
  1.25430E+04  6.39017E+03  2.71964E+04  1.72829E+04  1.74144E+04  3.41968E+04  5.51327E+02  4.48288E+04
 -2.28670E+04  3.37645E+04 -4.43546E+04  1.89697E+04 -4.39087E+04  8.95686E+02 -3.22532E+04 -2.29146E+04
 -1.73542E+04 -3.50282E+04  1.42344E+04 -2.60204E+04  2.50774E+04 -1.28972E+04  2.91644E+04  5.33833E+03
  8.03620E+03  1.64461E+04 -9.26543E+03  1.83357E+04 -2.13655E+04  2.70729E+02 -1.18117E+04 -1.29812E+04
 -2.01736E+01 -1.86524E+04  1.15881E+04 -1.52810E+04  6.78598E+03  9.01137E+02  7.42463E+03  1.08141E+04
 -1.29158E+04  7.54833E+03 -7.77212E+03 -5.18706E+03 -3.67355E+03 -1.89397E+04  1.12182E+04 -2.31784E+04
  2.13598E+04 -7.75677E+03  2.54823E+04  4.57160E+03  1.93134E+04  2.00220E+04  9.57390E+03  2.17218E+04
 -4.98728E+03  2.77732E+04 -2.23789E+04  1.50443E+04 -1.50397E+04  1.55940E+03 -1.37591E+04 -6.19208E+03
 -4.67283E+03 -1.14357E+04 -7.73306E+03 -7.20740E+02 -3.96509E+03  1.25582E+04 -4.51438E+03  5.20341E+03
 -1.48477E+04  2.44582E+03 -1.57883E+04 -9.77390E+03  2.12872E+02 -1.50869E+04  6.47486E+03 -9.15513E+03
  9.56290E+03 -6.43707E+03  1.27937E+04  2.35360E+03 -3.61257E+03  1.81200E+03 -6.65913E+03  1.02339E+03
 -8.42996E+03 -1.00320E+04 -1.13820E+02 -1.49840E+04  1.13038E+04 -1.70385E+04  1.84197E+04 -9.69950E+03
  2.42038E+04  3.62971E+03  1.39945E+04  1.23523E+04  3.09026E+03  1.80761E+04 -8.80726E+03  1.57120E+04
 -1.23808E+04  1.70635E+03 -2.24474E+03 -1.79625E+03  5.54372E+03 -3.92803E+02  9.66462E+03  1.77218E+02
  3.66565E+03  1.17127E+04  4.35263E+03  1.49574E+04 -7.92009E+03  1.36243E+04 -1.27095E+04  1.97797E+03
 -8.61454E+03 -1.09502E+04  3.66323E+03 -1.23638E+04  6.08410E+03 -8.30810E+03  6.15912E+03  6.27977E+03
  6.23363E+03  9.36177E+03 -6.81231E+03  1.43517E+04 -1.20436E+04  1.92636E+03 -1.48679E+04 -6.19080E+03
 -8.41020E+03 -1.33830E+04  4.89432E+03 -1.88466E+04  1.31791E+04 -1.05567E+04  1.14821E+04  9.71182E+02
  8.58956E+03  9.54996E+03 -2.27653E+03  1.33027E+04 -1.76251E+04  1.62630E+04 -1.80345E+04 -1.00927E+03
 -7.75945E+03 -1.40434E+04 -5.12268E+03 -1.17407E+04  3.38140E+03 -3.62599E+03  1.43147E+03 -5.03295E+03
  9.06149E+03  5.11303E+02  4.73541E+02  1.05610E+04  2.28206E+00 -4.76079E+03 -4.51305E+02 -3.67316E+03
  9.77119E+03 -5.42663E+03  1.05528E+04  6.56739E+02  9.20529E+03  9.66584E+03  6.07969E+03  1.97531E+04
  2.25164E+02  2.18125E+04 -1.29919E+04  1.92662E+04 -1.95731E+04  1.09959E+03 -1.55649E+04 -6.96482E+03
 -1.40635E+04 -1.09019E+04 -2.20835E+03 -1.29096E+04  2.67322E+03 -5.95314E+03  4.80025E+03 -1.22604E+04
 -8.37243E+02  4.51576E+03  5.52096E+03 -7.56339E+03  5.08491E+03 -1.26651E+03  1.32798E+04 -1.49689E+03
  7.01580E+03  4.65147E+03  2.39381E+03  5.57076E+03 -1.93927E+03  1.16326E+04 -6.19694E+03  3.55042E+03
 -1.25411E+04 -3.63836E+03 -8.15481E+03 -1.03122E+04 -1.28465E+03 -1.42232E+04  4.77109E+03 -2.01789E+04
  1.36879E+04 -7.37112E+03  1.71032E+04  3.61717E+02  1.11084E+04  1.36527E+04  2.47068E+03  1.93681E+04
 -4.42012E+03  1.59040E+04 -1.04310E+04  7.07356E+03 -7.59211E+03 -1.97982E+03 -1.60267E+03 -2.37419E+03
 -2.71491E+03 -2.51568E+03 -3.96493E+03 -2.15864E+02 -6.37351E+03  3.09870E+03 -6.67814E+03 -5.84269E+03
 -6.07096E+03 -9.28726E+03  3.11530E+03 -9.31534E+03  8.07677E+03 -8.69381E+03  1.70337E+04  9.86461E+02
  1.17154E+04  3.76385E+03  8.62226E+03  9.71554E+03 -3.82966E+03  5.76901E+03 -4.55940E+03  6.17740E+03
 -1.24600E+04  5.16774E+02 -3.62157E+03 -8.36248E+03  9.08738E+01 -7.85227E+03  6.54785E+03 -7.70280E+03
  1.19190E+03 -4.37921E+03  5.32327E+02  3.91983E+03  1.69162E+03  4.62680E+03 -5.75013E+02  3.87557E+03
  1.41694E+03 -1.06356E+02 -2.09204E+03 -1.29987E+03  8.67258E+03  9.00947E+03  6.37772E+03  1.13910E+04
 -2.05133E+03  3.81681E+03 -7.12065E+03  1.01970E+04 -1.40804E+04  3.71901E+03 -1.45303E+04  1.45967E+02
 -7.08444E+03 -8.45667E+03  5.20080E+03 -1.83178E+04  8.76382E+03 -4.35991E+03  9.20152E+03 -5.65773E+03
  5.10031E+03  5.38919E+03  1.68642E+03  8.23522E+03 -9.24473E+03  3.04923E+02 -6.53358E+03  3.33485E+03
 -3.51646E+03 -8.26906E+02  3.47262E+03 -1.09340E+04  4.62599E+03  1.57949E+03  3.59736E+03 -2.61815E+03
  1.50252E+03 -4.10810E+03  3.96990E+03 -2.48568E+03 -1.42590E+03  6.97778E+03  6.63301E+03  2.83756E+03
  3.02153E+03 -4.64724E+02  3.39476E+03 -2.40373E+03  3.53500E+03  5.80266E+03 -6.66027E+03  2.98159E+03
 -1.06380E+04  5.72717E+03 -1.15209E+04 -2.26245E+02 -8.75177E+03  2.50183E+03 -5.98315E+03  2.98115E+03
 -1.90479E+03 -3.53019E+03  4.78761E+03 -1.18218E+03 -2.47896E+03  1.02536E+04 -6.33233E+02 -1.19627E+03
 -7.24973E+03  4.86278E+03 -4.35580E+03 -3.88999E+03  2.17685E+03 -2.78921E+02 -1.28460E+03  2.41683E+03
  1.54559E+03 -2.09144E+03  4.06729E+03 -6.56003E+01  5.10141E+03 -2.04182E+03  1.92231E+03  1.35016E+04
 -8.01196E+02  2.34810E+03 -5.73534E+03 -3.51216E+03 -3.78274E+02 -1.04829E+03  1.14785E+04 -3.89517E+03
  1.04357E+04  3.31018E+03  1.01243E+04  5.39997E+03  6.25074E+03  4.05580E+03 -1.26934E+03  2.91663E+03
 -7.75800E+03  1.34561E+03 -6.23572E+03  1.45409E+03 -4.23560E+03 -3.64710E+03  3.58739E+03 -4.60018E+03
  1.56054E+03 -9.77379E+00  3.93865E+03  1.95524E+03  1.83071E+03  1.10351E+04 -1.92087E+02  6.42166E+03
 -2.23760E+03 -4.66384E+02 -8.28126E+03  3.95809E+03  9.63683E+02 -6.97826E+02 -1.70787E+03 -9.65715E+01
  8.39877E+02  1.14534E+03 -3.56559E+02  1.37977E+03 -5.04401E+03  2.37969E+03 -1.10451E+04 -5.40873E+03
 -4.82038E+03 -1.13752E+04  2.84218E+03 -5.73792E+03  8.34958E+03 -9.03164E+03  1.15494E+04 -7.71211E+03
  4.84341E+03  4.19820E+03  5.53694E+03  5.86705E+03  6.52172E+02  6.03766E+03  2.01411E+03  8.02898E+03
 -3.75230E+03  9.99019E+02 -5.08924E+03  5.86446E+02 -1.71313E+03  2.94798E+03 -4.14442E+03  7.33023E+02
  7.76760E+02  1.32485E+03 -6.01780E+02  2.07872E+03  3.22683E+03 -6.71995E+03 -5.42909E+03 -1.98367E+03
  3.89230E+03  2.57061E+02  4.36009E+03  1.60432E+03  1.34827E+03 -6.88465E+02 -1.94054E+03  7.42695E+03
 -3.39496E+03  1.28866E+04 -1.40309E+04  3.30441E+02 -3.22642E+03 -2.19854E+03 -8.42612E+03 -3.55361E+03
 -2.27187E+03 -9.00741E+03  7.93736E+03 -1.15575E+04  1.28812E+03 -1.95576E+03  4.83378E+03 -4.09312E+02
  1.68407E+03 -5.98322E+02  1.15591E+03  4.15834E+03  2.34327E+03 -4.70002E+03 -1.31854E+03 -1.75610E+03
  3.85817E+03 -6.46794E+03  4.65545E+03 -2.49962E+03  1.13533E+03  3.26523E+03 -5.20843E+03  3.65348E+03
 -1.48572E+03 -4.69890E+03 -1.05413E+04  1.39863E+03 -6.10157E+03 -7.92255E+02  1.75838E+03 -5.74862E+03
  2.51383E+03 -7.93173E+03  8.60736E+03 -1.56848E+03  2.43608E+03  2.57299E+03  1.63463E+03  1.25981E+03
 -2.20374E+03  6.63801E+02  5.83374E+03 -3.23214E+02 -4.59534E+03 -1.19480E+02 -5.50491E+03 -4.49212E+03
  6.60264E+02 -9.81294E+02 -6.73501E+02  3.11566E+03  2.14259E+03  8.79419E+01 -3.92210E+03 -1.64608E+03
 -8.25967E+03 -5.57723E+03  2.98147E+03  9.98966E+02  2.78995E+03 -9.20156E+03  5.63872E+03  1.83220E+03
  3.96101E+03 -4.54635E+03  2.57431E+03  3.33566E+03  6.65790E+02  6.32851E+03 -4.89700E+03  4.57549E+03
