 $NMID ID='MM_0lb_SNR50_9hz_g50_61.RAW', FMTDAT='(8E13.5)'
 TRAMP=1., VOLUME=1. $END
  3.11982E+05 -3.93778E+03  3.46470E+05  2.50037E+05  8.90786E+04  3.35230E+05 -1.32204E+05  2.46148E+05
 -1.93002E+05  8.29065E+04 -1.13490E+05 -3.24562E+04  2.71624E+03 -4.78733E+04  5.48480E+04 -3.58889E+03
  3.47690E+04  4.66940E+04 -1.95181E+04  7.74133E+04 -6.08861E+04  6.09628E+04 -8.40040E+04  3.18634E+04
 -8.10281E+04 -1.20168E+04 -5.23281E+04 -5.12883E+04 -1.21575E+04 -6.81966E+04  2.64033E+04 -4.29368E+04
  4.53979E+04  5.52006E+03  1.50091E+04  4.73759E+04 -3.39350E+04  4.32782E+04 -6.96546E+04  1.54713E+03
 -5.66753E+04 -6.31904E+04 -1.37232E+04 -7.99039E+04  3.30539E+04 -5.66597E+04  4.68144E+04 -1.82601E+04
  4.18061E+04  1.04728E+04  3.42837E+04  2.31538E+04  1.56953E+04  3.67818E+04 -9.38735E+01  3.15369E+04
 -2.00912E+04  1.63037E+04 -1.93533E+04 -8.65488E+03  6.36736E+03 -1.36584E+04  2.51000E+04  1.42536E+04
  9.53124E+03  3.99860E+04 -3.37609E+04  3.58504E+04 -6.29172E+04 -2.17284E+03 -6.15418E+04 -4.68128E+04
 -1.27337E+04 -7.23001E+04  3.79819E+04 -4.75505E+04  6.40766E+04 -4.45864E+03  3.73895E+04  3.70522E+04
 -6.45019E+03  3.45143E+04 -3.54730E+04  1.94019E+04 -3.42924E+04  9.83024E+02 -2.08254E+04 -1.68595E+04
 -2.92174E+03 -1.50445E+04 -8.47720E+03 -2.41689E+04  6.37437E+03 -2.48756E+04  1.50164E+04 -1.32323E+04
  9.30216E+03  1.11356E+04 -6.22832E+03  6.87825E+03 -2.23486E+04  5.98996E+02 -8.07138E+03 -3.94515E+04
  2.75124E+04 -5.28003E+04  5.08696E+04 -2.44797E+04  4.13406E+04  1.75822E+04  1.10294E+04  4.94726E+04
 -2.02923E+04  3.23801E+04 -2.58900E+04  1.76995E+03 -1.19882E+04 -2.95446E+04  1.98116E+04 -4.23515E+04
  4.21537E+04 -6.68723E+03  3.64074E+04  2.17745E+04  2.68683E+04  5.25693E+04 -7.61133E+03  6.06921E+04
 -3.77960E+04  2.97683E+04 -4.33840E+04  1.42028E+04 -3.46941E+04 -2.04185E+04 -2.56391E+04 -3.73177E+04
  7.81896E+03 -4.52693E+04  3.17421E+04 -1.48678E+04  3.28531E+04  1.40008E+04  3.78062E+03  2.26183E+04
 -1.05876E+04  6.41735E+02 -8.80271E+03 -9.69253E+03  8.02066E+03 -1.10545E+04  1.62793E+04  6.03920E+03
  1.52610E+04  2.24802E+04  1.80499E+03  2.49823E+04 -2.49187E+04  1.47617E+04 -3.21493E+04 -6.41643E+03
 -2.44748E+04 -1.60310E+04 -1.05582E+04 -2.94007E+04 -1.88957E+03 -2.61427E+04  2.21372E+04 -2.07126E+04
  3.17331E+04 -1.70366E+04  3.86268E+04  1.11169E+04  3.13516E+04  2.32069E+04  5.99836E+03  4.10769E+04
 -2.46373E+04  3.73248E+04 -3.51703E+04  4.64965E+03 -2.10156E+04 -1.28202E+04 -4.56124E+03 -1.38331E+04
 -1.87604E+03  6.63709E+03 -5.45987E+03  1.09125E+04 -2.54169E+04 -2.41384E+02 -2.47166E+04 -1.03528E+04
 -1.23022E+04 -1.70877E+04  6.52362E+03 -3.63404E+04  2.08220E+04 -2.01989E+04  2.36231E+04 -2.08598E+03
  9.57968E+03  8.98462E+03 -6.56381E+02  2.35511E+04 -1.69200E+04  1.06635E+04 -2.43787E+04 -1.12313E+04
 -1.00164E+04 -3.03446E+04 -5.37022E+03 -2.72430E+04  1.28627E+04 -2.40886E+04  2.36565E+04 -1.12749E+04
  1.87102E+04 -8.51914E+03  1.76062E+04  5.82313E+03  8.14163E+03  3.45670E+03  1.08345E+04 -6.97564E+03
  2.10699E+04  5.69683E+03  1.87646E+04  2.38086E+04  2.06211E+04  3.67276E+04 -2.38217E+03  4.37778E+04
 -2.37699E+04  4.28577E+04 -3.93536E+04  1.83765E+04 -3.98659E+04 -2.33495E+03 -3.04789E+04 -2.56629E+04
 -1.48249E+04 -4.47138E+04  9.16086E+03 -3.30220E+04  2.90875E+04 -1.38731E+04  2.56954E+04  6.85087E+03
  8.73535E+03  2.17953E+04 -9.95303E+03  1.62929E+04 -2.27890E+04 -3.35545E+03 -1.46424E+04 -1.67677E+04
 -7.07296E+03 -1.50199E+04  1.20846E+04 -1.09528E+04  1.61236E+04 -8.94096E+02  7.42716E+03  1.04754E+04
 -1.25267E+04  6.74927E+03 -1.94085E+03 -6.73626E+03  3.07667E+03 -1.57823E+04  8.07029E+03 -1.90394E+04
  2.72034E+04 -1.14821E+04  2.79407E+04  3.23465E+03  2.67352E+04  1.41566E+04  2.88945E+03  2.50297E+04
 -3.84021E+03  3.17435E+04 -1.99919E+04  1.94934E+04 -2.52342E+04  7.04681E+03 -2.02595E+04 -5.20381E+03
 -8.48205E+03 -3.39396E+03 -1.70331E+03  3.83782E+03 -1.51982E+03  3.64789E+03 -8.31529E+03  1.32058E+04
 -1.63891E+04 -5.18474E+03 -1.80754E+04 -1.62120E+04 -1.12821E+04 -2.05222E+04  4.72581E+03 -1.08959E+04
  1.33588E+04 -2.15010E+03  9.54938E+03  1.38927E+03  4.06195E+02  3.69505E+03 -6.84731E+03 -2.49244E+03
 -9.65212E+03 -1.08061E+04  1.86109E+03 -1.92172E+04  6.00303E+03 -1.86146E+04  2.61282E+04 -1.13432E+04
  2.46819E+04  6.37779E+03  1.67512E+04  1.57827E+04  6.57181E+03  1.27688E+04 -8.06811E+03  1.68898E+04
 -1.41322E+04  5.58528E+03 -5.20822E+03 -4.43084E+03 -2.18778E+03 -4.44909E+03  7.97141E+03 -5.58310E+03
  2.19064E+03  9.71101E+03 -4.05014E+03  1.63700E+04 -1.16627E+04  1.45308E+04 -1.54351E+04  5.08502E+03
 -6.10044E+03 -9.81473E+03  1.34141E+03 -1.30404E+04  4.81046E+03 -7.17665E+03  1.49934E+04 -3.32547E+02
  5.52526E+03  1.39104E+04 -7.66783E+03  9.59427E+03 -1.36131E+04  1.16894E+04 -1.59414E+04 -1.64252E+03
 -8.14245E+03 -1.60126E+04  3.61782E+03 -1.50557E+04  1.12439E+04 -5.70951E+03  1.51953E+04 -3.38472E+03
  5.60183E+03  1.32595E+04 -2.16908E+03  1.95483E+04 -1.06432E+04  9.30460E+03 -6.35139E+03  2.87073E+03
 -1.30839E+04 -1.77153E+04 -1.97868E+03 -1.11522E+04  8.73482E+03 -1.04829E+04  9.09028E+03 -1.59976E+03
  7.57209E+02 -3.94342E+02 -2.57881E+03  2.41682E+03 -7.15374E+03 -6.47859E+03  2.45942E+03 -5.78933E+03
  6.09874E+03 -8.07031E+03  1.44609E+04  1.46966E+03  1.56335E+04  1.63174E+04  1.08066E+04  2.31597E+04
 -6.87306E+03  2.32886E+04 -2.02221E+04  2.32363E+04 -3.06488E+04  1.07579E+04 -1.95329E+04 -1.01011E+04
 -1.08799E+04 -1.63183E+04 -2.04917E+02 -2.01355E+04  7.59012E+03 -1.70321E+04  2.45457E+03 -1.30668E+03
 -8.71296E+02 -6.17150E+03  5.96432E+01  3.67439E+03  3.27049E+03 -1.37057E+03  1.19085E+04 -1.42181E+02
  8.98847E+03  1.04367E+03  3.25333E+03  7.64691E+03 -3.41792E+03  9.93727E+03 -1.49726E+04  7.38069E+03
 -1.15472E+04  5.47924E+03 -5.83275E+03 -1.05440E+04 -1.95558E+03 -2.03701E+04  4.00560E+03 -1.55538E+04
  1.95942E+04 -6.75512E+03  2.23629E+04  2.99481E+03  1.11271E+04  1.55372E+04 -1.15289E+03  1.97462E+04
 -8.23962E+03  1.70004E+04 -7.60628E+03  5.05876E+03 -4.40002E+03  2.22522E+03 -2.62488E+03  1.61339E+03
 -7.41582E+03  1.44182E+03 -2.03671E+03  5.80063E+03 -1.05939E+04  4.40852E+03 -6.93628E+03  3.37935E+03
 -4.20010E+03 -1.56150E+04 -4.83703E+03 -9.58369E+03  1.04559E+04 -1.96137E+04  1.26183E+04 -6.11074E+03
  1.45590E+04  8.42075E+03  8.99296E+03  9.18150E+03 -4.59981E+03  1.94919E+04 -1.04649E+04  1.02584E+04
 -9.16128E+03 -3.21136E+03 -2.76388E+03 -1.11623E+04  2.40420E+03 -1.88034E+04  1.22237E+04 -9.21755E+03
  4.64353E+03 -1.11221E+04 -2.90975E+02  4.04610E+03  5.57138E+03  1.75914E+03  5.83206E+03  2.17524E+03
  2.88875E+03 -2.79499E+03  3.46136E+03  5.72630E+03  5.27457E+03  7.78398E+03  4.39352E+03  6.75109E+03
 -8.51647E+03  7.94299E+03 -1.23841E+04  9.29486E+03 -1.04384E+04  7.32016E+03 -1.83746E+04 -1.01470E+03
 -9.77287E+03 -1.49201E+04  2.30300E+03 -2.03601E+04  1.21814E+04 -7.91386E+03  1.77028E+04  3.77865E+02
  1.02403E+04  8.07582E+03  3.50104E+03  1.34294E+04  1.42779E+03  1.13068E+04 -9.60789E+02 -7.02457E+03
 -7.50458E+03 -1.26114E+04  3.89113E+03 -6.48644E+03  5.84029E+03  2.10155E+03  3.47212E+03  5.88100E+03
  8.26708E+03  2.64983E+03 -1.76553E+03  1.00486E+04  4.54434E+03  6.26805E+02  6.26029E+03 -2.65372E+03
  1.76631E+03  1.25768E+03  1.00835E+04  4.55691E+03 -6.68567E+02  8.04360E+03  2.28658E+03  9.19500E+03
 -9.13844E+03  9.12132E+03 -3.43665E+03  3.46150E+03 -6.20999E+03 -4.46489E+03 -1.49288E+03 -5.33607E+03
  2.98329E+03 -3.16685E+03  1.16767E+04 -2.04800E+03  5.52613E+03  7.41469E+03  1.02283E+03  8.18761E+03
 -6.54553E+03  5.27412E+03 -7.06194E+03  2.67499E+03 -4.40036E+03 -6.31986E+03  5.80268E+03 -1.15131E+04
  4.12912E+03 -1.19521E+03  1.61146E+03 -2.45040E+03  3.28666E+03  3.65122E+03  1.17459E+03  7.21953E+03
 -5.30085E+03  1.24248E+03 -7.87248E+03 -7.08392E+03  4.81588E+03 -6.09398E+03  1.31296E+04 -1.09717E+04
  8.89387E+03 -2.44394E+01  3.16812E+03  5.73886E+03  9.27259E+03  1.64570E+04 -8.59598E+02  1.54544E+04
 -1.25930E+04  1.05031E+03 -3.24808E+03 -2.86393E+02 -2.78361E+03 -4.32483E+03  1.45007E+03 -7.60870E+03
 -3.58668E+03  1.52122E+03  9.88202E+03 -5.66241E+02 -1.29005E+03  8.84328E+03 -5.12231E+02  2.57335E+03
 -3.05172E+03 -3.06430E+03 -3.22886E+02  2.34891E+03 -1.05191E+04 -2.13313E+03 -2.07432E+03  5.05060E+03
  1.49957E+03  9.89859E+03 -2.70653E+03  8.46336E+03 -1.62932E+04 -3.61854E+03 -1.16460E+04 -6.17506E+03
 -1.71637E+03 -1.12198E+04  1.11097E+03 -1.87699E+04  7.84801E+03 -1.12222E+04  1.29617E+04 -4.74499E+03
  1.14906E+04  4.92755E+03  4.14677E+03  1.38799E+04  1.19712E+03  6.58121E+03 -2.10649E+03  6.98270E+02
 -4.09714E+03  5.83643E+03 -5.48780E+03 -6.26191E+03 -4.76504E+03 -5.73334E+03  4.20439E+03 -4.78061E+03
  3.56796E+02 -4.65204E+03 -1.82961E+03  9.42986E+02  2.15197E+03 -2.89448E+03 -1.07734E+03 -3.28737E+03
  9.35162E+03 -5.54111E+03  8.76061E+03 -5.42330E+03  8.79426E+03  1.15595E+04  2.74006E+03  1.16003E+04
 -1.71098E+03  2.47116E+03 -1.38796E+04  9.81370E+03 -1.40138E+04 -8.62153E+02 -1.19085E+04 -1.12104E+04
 -2.92318E+03 -1.08503E+04  9.90148E+02 -1.03883E+04  2.61092E+03 -4.81675E+03  5.12888E+03 -2.87855E+03
 -5.40663E+02  1.14174E+03  3.02840E+03  2.27523E+03  5.32589E+02 -2.88366E+01 -3.06069E+03 -3.12240E+03
  6.34141E+03  2.66328E+03  5.92977E+03  4.29664E+03 -1.84870E+03  2.48933E+03 -2.20018E+02  7.85861E+03
 -6.18631E+03  6.59549E+03 -3.73478E+03  1.08668E+03 -1.27835E+04 -2.86558E+03 -5.35942E+02 -6.73996E+03
  4.14710E+03 -1.21577E+04  9.86387E+03  2.29265E+03  2.16212E+03  4.96974E+03  7.66240E+03  6.10567E+03
  3.59050E+03  9.30960E+03 -6.26451E+03  1.07672E+04 -6.72689E+03  7.69853E+02 -4.48485E+03  6.21677E+03
 -7.91892E+03  8.93379E+02 -1.12667E+04  8.05491E+02  4.69022E+02  1.71161E+03 -8.41125E+03  2.77069E+03
 -2.25919E+03 -6.13730E+03 -7.05388E+03 -8.41851E+03 -9.53938E+02 -8.58743E+03  2.73437E+03 -7.58691E+02
  9.63003E+03  1.75341E+03 -1.78563E+03  5.10426E+03 -9.91158E+03  9.62357E+03 -7.90257E+03  7.17893E+03
