 $NMID ID='MM_0lb_SNR50_7hz_g45_7.RAW', FMTDAT='(8E13.5)'
 TRAMP=1., VOLUME=1. $END
  3.12585E+05 -4.61077E+03  3.32016E+05  2.47588E+05  8.64992E+04  3.41799E+05 -1.31681E+05  2.48809E+05
 -1.92842E+05  7.52828E+04 -1.06584E+05 -3.53112E+04 -4.74758E+03 -5.17693E+04  4.62449E+04  5.46791E+03
  3.36900E+04  5.74728E+04 -1.94209E+04  7.62568E+04 -6.18909E+04  6.57185E+04 -8.40155E+04  3.59499E+04
 -8.60386E+04 -1.33277E+04 -5.88492E+04 -5.04743E+04 -1.43409E+04 -7.70414E+04  3.48682E+04 -4.33534E+04
  3.98840E+04  2.03911E+03  1.40458E+04  5.34245E+04 -3.19051E+04  4.29565E+04 -7.50516E+04 -3.44064E+02
 -5.10497E+04 -6.22064E+04 -3.94997E+03 -8.17749E+04  3.34891E+04 -5.13292E+04  4.65818E+04 -1.86721E+04
  4.60386E+04  1.12524E+04  3.81969E+04  2.85383E+04  2.06826E+04  3.73991E+04 -6.55265E+03  2.55294E+04
 -2.31516E+04  9.45809E+03 -1.91590E+04 -4.91792E+03  2.93959E+03 -1.38085E+04  1.70037E+04  1.08579E+04
  1.13888E+04  4.40468E+04 -2.93470E+04  4.34061E+04 -6.67974E+04  9.69647E+03 -5.52598E+04 -4.60837E+04
 -1.89740E+04 -6.54230E+04  4.48169E+04 -5.01318E+04  5.25169E+04 -3.17671E+03  3.24955E+04  4.15319E+04
 -1.78509E+03  3.63309E+04 -3.44829E+04  1.76244E+04 -3.03346E+04  1.21216E+03 -1.87098E+04 -1.46828E+04
 -8.21372E+03 -1.93905E+04  7.62631E+02 -2.46798E+04  5.96930E+03 -2.58750E+04  1.71173E+04 -7.64997E+03
  9.37791E+03  9.02899E+03 -1.01695E+04  7.54204E+03 -2.03595E+04 -4.42381E+03 -3.35561E+03 -3.69989E+04
  2.64493E+04 -3.95738E+04  3.89411E+04 -2.70820E+04  5.32519E+04  1.96368E+04  2.25326E+04  5.27211E+04
 -1.98073E+04  3.74369E+04 -2.80933E+04  6.87476E+03 -1.54209E+04 -2.54160E+04  2.89553E+04 -3.09455E+04
  4.71687E+04 -7.21671E+03  4.09543E+04  2.06740E+04  2.12091E+04  5.15698E+04 -5.29365E+03  5.68305E+04
 -3.81451E+04  3.84852E+04 -5.26716E+04  1.46848E+04 -4.88202E+04 -2.88392E+04 -2.31606E+04 -4.25898E+04
  7.54857E+03 -4.95408E+04  3.53386E+04 -1.54641E+04  3.38974E+04  1.38876E+04  5.42902E+03  2.38846E+04
 -1.71412E+04  1.56428E+04 -1.52082E+04 -5.52978E+03  1.49986E+04 -1.47334E+04  2.44775E+04  2.47680E+03
  1.07189E+04  1.60961E+04 -6.49374E+03  3.34497E+04 -2.65216E+04  1.87440E+04 -3.07041E+04 -1.61424E+03
 -3.16421E+04 -2.40871E+04 -5.47986E+03 -2.74444E+04  6.63636E+03 -2.58267E+04  2.30653E+04 -1.64062E+04
  3.14810E+04 -2.54028E+04  4.09386E+04  2.91722E+03  2.35482E+04  2.89193E+04  8.97471E+03  4.71251E+04
 -2.44666E+04  3.34326E+04 -3.37003E+04  1.79427E+04 -2.47028E+04 -8.69692E+03 -1.82552E+03 -8.61848E+03
 -2.62953E+03 -7.33237E+02 -1.20149E+03  7.98327E+03 -2.17490E+04  2.01792E+03 -2.27246E+04 -1.33228E+04
 -5.73110E+03 -2.95620E+04  6.51471E+03 -3.19364E+04  2.39877E+04 -1.16334E+04  2.38112E+04 -2.47561E+03
  1.34127E+04  1.38327E+04 -5.33250E+03  2.66866E+04 -1.61531E+04  1.29672E+04 -2.44222E+04 -7.76459E+03
 -1.40518E+04 -2.02042E+04 -5.03495E+03 -2.83203E+04  8.63758E+03 -2.12323E+04  1.84642E+04 -1.67125E+04
  3.01259E+04  1.98666E+03  2.20412E+04  4.53010E+03  8.01638E+03  4.28092E+03  1.31309E+04 -3.82513E+02
  2.16436E+04  3.14831E+03  2.36249E+04  1.17706E+04  2.09979E+04  3.78657E+04 -5.94975E+03  4.94602E+04
 -2.74777E+04  4.15344E+04 -4.51938E+04  2.04384E+04 -5.90268E+04 -5.88661E+03 -3.80302E+04 -1.85212E+04
 -9.91507E+03 -3.71216E+04  6.33906E+03 -3.33898E+04  3.27595E+04 -1.75972E+04  1.75729E+04  1.21147E+04
  4.08246E+03  2.14470E+04 -5.77587E+03  1.88926E+04 -1.74633E+04  3.32623E+03 -1.46461E+04 -1.27164E+04
 -2.12929E+03 -1.56494E+04  1.69410E+04 -1.37634E+04  1.35624E+04  3.80000E+03  2.95881E+01  1.78597E+04
 -4.15783E+03  2.94909E+03 -7.32567E+03 -8.98640E+03 -3.15235E+03 -1.15296E+04  1.12285E+04 -1.92321E+04
  4.00715E+04 -9.56521E+03  2.78860E+04  2.56647E+03  2.72033E+04  1.73382E+04  8.58032E+03  2.08857E+04
 -1.23568E+04  3.25899E+04 -2.64570E+04  2.45864E+04 -2.43833E+04  2.59120E+03 -2.08490E+04 -1.16827E+04
 -4.85460E+03 -7.72756E+03 -5.71131E+03  4.21628E+03  3.59632E+03  7.38450E+03 -8.46688E+03  3.47106E+03
 -1.32877E+04 -8.66057E+02 -1.06684E+04 -6.96079E+03 -9.72821E+02 -2.20774E+04  8.16468E+03 -1.47103E+04
  7.07228E+03 -4.71477E+03  3.94897E+03  1.05883E+04 -5.33703E+03  7.84401E+03 -7.43053E+03  1.81716E+03
 -4.62199E+03 -1.59665E+04  3.08152E+03 -1.78907E+04  8.00450E+03 -2.37136E+04  2.00786E+04 -1.24582E+04
  2.90152E+04 -3.65537E+03  1.42548E+04  9.98205E+03  2.49669E+03  1.60447E+04 -9.79820E+03  2.12750E+04
 -1.44677E+04  2.58543E+03 -7.98045E+03 -8.90627E+03  8.00770E+03 -5.86868E+03  8.82635E+03 -5.34608E+03
  6.20225E+03  6.04032E+03  4.47700E+03  2.31968E+04 -1.20647E+04  8.38799E+03 -2.26242E+04 -1.28417E+03
 -1.40961E+04 -1.40343E+04 -5.67771E+03 -8.82639E+03  5.93682E+03 -3.09382E+03  1.45377E+04  6.50683E+03
  2.82241E+03  6.32320E+03 -7.94900E+03  1.23970E+04 -1.39164E+04  5.58313E+03 -1.69243E+04 -5.86198E+03
 -1.15567E+04 -1.76976E+04  1.15073E+04 -1.80091E+04  9.29671E+03 -1.38733E+04  2.24492E+04  1.68702E+03
  6.63676E+03  1.53455E+04 -4.83106E+03  2.24447E+04 -1.66305E+04  8.05118E+03 -1.64438E+04  3.03160E+02
 -1.30047E+04 -4.76850E+03  1.06232E+03 -1.47232E+04  2.99833E+03 -1.28864E+04  1.25378E+04 -2.66718E+03
  1.27881E+03  3.61286E+03 -7.62973E+02 -1.28182E+03 -6.64025E+03 -5.38933E+03 -8.43252E+02 -7.43620E+03
  1.24297E+04 -1.01726E+03  1.96938E+04  3.65384E+03  2.46728E+04  1.69699E+04  1.55617E+04  3.34494E+04
 -1.69667E+03  3.06540E+04 -1.49933E+04  2.18524E+04 -3.69498E+04  1.69575E+03 -3.06589E+04 -1.28319E+04
 -1.12875E+04 -1.99784E+04  2.96237E+03 -1.74790E+04  2.90444E+03 -9.77925E+03  2.19395E+03  2.70427E+03
  2.67093E+03  1.13564E+03  8.34358E+03 -4.65414E+02  1.74801E+04  3.03949E+03  9.22099E+03  3.23027E+03
  1.47974E+04  5.27083E+03  7.58630E+03  1.29623E+04 -8.29098E+03  1.55921E+04 -1.33076E+04  1.51350E+04
 -1.73444E+04 -2.30494E+03 -1.47932E+04 -1.17123E+04  8.82799E+02 -2.14066E+04  8.04023E+03 -1.76026E+04
  1.27050E+04 -1.11763E+04  2.63545E+04  3.36921E+03  2.24355E+04  1.62960E+04 -6.47610E+03  2.80748E+04
 -1.22251E+04  1.47311E+04 -1.37521E+04  8.95347E+03 -7.50409E+03 -3.85410E+03 -2.59379E+03 -1.03779E+04
 -4.35083E+03 -1.29226E+02 -1.37102E+03  4.55458E+03 -3.26762E+03  9.47935E+03 -1.05691E+04  1.61818E+03
 -8.43305E+03 -1.13576E+04 -5.57048E+03 -2.11572E+04  1.26052E+04 -1.55076E+04  1.75967E+04 -3.38657E+03
  2.17642E+04  8.47466E+03  5.87177E+03  1.20855E+04 -6.49301E+03  2.10316E+04 -1.34791E+04  8.03587E+03
 -1.95474E+04 -6.24566E+03 -1.07526E+04 -5.06405E+03  7.58884E+02 -2.22523E+04  4.09454E+03 -1.05530E+04
  1.23083E+04 -4.95180E+03  5.58590E+03  6.91581E+03  7.74882E+03  6.67952E+03  6.00442E+02  5.64598E+03
  1.27621E+03  1.01180E+04  5.11119E+03  2.77407E+03  1.34030E+04  5.18841E+03  5.18573E+03  1.59916E+04
  4.47192E+03  1.00697E+04 -9.22648E+03  1.27552E+04 -1.66872E+04 -3.19339E+03 -1.96834E+04 -9.40392E+03
 -1.11367E+04 -2.06319E+04 -5.72576E+03 -2.50608E+04  6.41456E+03 -1.16549E+04  1.93278E+04  2.51930E+02
  1.18919E+04  2.88109E+03  1.59853E+03  2.66270E+03 -8.64965E+03  9.36318E+03 -5.04042E+03 -4.95914E+02
 -3.51653E+03 -3.48212E+03 -2.59716E+02 -1.09889E+04  6.07792E+02 -2.87734E+03  7.65887E+03  5.10972E+03
  8.57092E+02  5.87287E+03  3.14540E+03  8.76106E+03  1.94658E+03  5.45789E+03 -4.59763E+03 -2.52072E+03
  2.04324E+03  2.10264E+03  5.29548E+03  3.26678E+03  4.55743E+03  1.01689E+03 -4.55307E+03  2.11027E+04
 -1.66198E+04  4.49486E+03 -1.08528E+04  3.10394E+03 -1.02717E+04 -6.11190E+03 -5.92241E+02 -6.58586E+03
  5.31530E+02 -8.94563E+03  6.60514E+03 -7.89029E+03  2.32952E+03  6.51756E+03  2.72534E+03  3.19993E+03
 -9.29493E+03 -2.58465E+02 -1.39187E+04 -4.64282E+03  5.72834E+03 -9.00628E+03 -1.22180E+03 -1.25897E+04
 -2.13880E+01 -6.51352E+03  6.42831E+03  1.18740E+03  2.11759E+03 -6.14055E+03  6.22232E+02  2.86443E+03
 -5.00614E+03  8.75282E+03  1.62662E+03 -5.85411E+03 -2.73956E+02 -1.15793E+04  9.65831E+03 -2.57263E+03
  8.53803E+03  1.40162E+03  1.51165E+04  7.82543E+03  6.91108E+03  1.31656E+04 -9.81103E+03  1.28070E+04
 -1.53302E+04  4.64465E+03 -8.93703E+03 -2.37079E+03 -8.97699E+03 -7.24173E+03  6.78123E+03 -1.08321E+04
  6.47058E+03  1.34776E+03  2.97245E+03 -1.34322E+02  2.63749E+03  8.41372E+03  2.78595E+02  1.59847E+04
 -4.28979E+03 -1.42546E+03 -7.23750E+03 -1.58402E+02 -2.25086E+03 -1.41373E+03 -9.92149E+03  4.25642E+03
 -7.24173E+03  1.61745E+03 -3.26466E+03  2.89054E+03 -1.95457E+04 -4.78387E+03 -2.15538E+04 -1.15485E+04
 -1.12061E+04 -2.37720E+04 -3.96459E+02 -2.99391E+04  1.03607E+04 -2.21628E+04  1.57763E+04  6.35044E+02
  2.53688E+04  6.10182E+03  7.63834E+03  1.40336E+04 -4.26471E+03  1.54749E+04 -2.88041E+03  5.43561E+03
 -8.38682E+03  9.44016E+02 -8.05125E+03 -5.39224E+03  3.35912E+03  8.66974E+02 -1.84532E+03 -3.68291E+03
 -3.29985E+03  1.02199E+03  5.60592E+02 -3.56345E+03  7.25748E+02 -4.11747E+03 -2.94646E+03 -2.27225E+03
  4.75149E+03 -6.85133E+03  7.04911E+03  4.33945E+03  8.86965E+03  1.19528E+04  8.53507E+03  1.36960E+04
 -8.28611E+03  1.43534E+04 -1.85374E+04  8.36739E+03 -1.69919E+04  4.06631E+03 -1.33818E+04 -7.56293E+03
 -2.39652E+03 -2.16367E+04 -2.39604E+03 -1.67169E+04  1.16933E+04 -6.88048E+03  1.02075E+04 -6.86324E+03
  3.84073E+03  6.85553E+03  1.59908E+03  2.11125E+03  1.78453E+03 -3.69811E+03  4.40063E+03 -8.37547E+03
  1.17074E+03  2.34015E+03  3.82133E+03  8.37824E+03 -2.38247E+03  9.32903E+03 -9.15512E+03  1.05264E+04
 -7.59430E+03 -2.67673E+03 -6.82211E+03  3.63700E+03 -1.27174E+04 -1.02116E+04  1.44195E+03 -8.12760E+03
  1.07908E+04 -7.28379E+03  1.39310E+04 -8.98490E+03  1.37000E+04  1.15377E+03  1.26276E+03  8.55004E+03
  6.36389E+03  9.42529E+03 -4.37953E+03  8.25624E+03  6.28498E+03  3.03057E+03 -5.93876E+03  4.87559E+03
 -1.08005E+04  4.28716E+02  1.82155E+03 -1.61302E+03 -1.10390E+04  1.46685E+02 -8.96375E+03 -1.64728E+03
 -3.96324E+03 -9.49354E+03  1.52590E+02 -1.36858E+04  5.64075E+03 -7.30755E+03  1.27775E+04 -1.30515E+04
  3.78742E+03  1.23919E+03  9.10476E+03  1.15793E+04 -8.23831E+02  6.01255E+03 -1.70480E+04  1.23261E+04
