 $NMID ID='MM_0lb_SNR50_10hz_g45_33.RAW', FMTDAT='(8E13.5)'
 TRAMP=1., VOLUME=1. $END
  3.13814E+05  8.79799E+03  3.40134E+05  2.53696E+05  8.02711E+04  3.38804E+05 -1.32131E+05  2.48799E+05
 -1.94973E+05  8.70737E+04 -1.07416E+05 -3.25912E+04  3.72890E+03 -5.38473E+04  5.27874E+04 -4.40198E+03
  3.37606E+04  5.06376E+04 -1.53713E+04  7.43725E+04 -5.98426E+04  6.46072E+04 -8.62257E+04  3.41580E+04
 -8.05096E+04 -1.24558E+04 -5.80769E+04 -5.12964E+04 -1.28054E+04 -7.68956E+04  3.32815E+04 -4.58324E+04
  4.28526E+04  3.77572E+03  1.86504E+04  4.68305E+04 -3.57076E+04  4.65364E+04 -6.83098E+04  1.05985E+03
 -4.53891E+04 -5.96232E+04 -8.88550E+03 -7.89052E+04  3.40204E+04 -5.75483E+04  5.26559E+04 -1.59374E+04
  4.61445E+04  1.40839E+04  3.81528E+04  2.52245E+04  1.40079E+04  2.98265E+04 -8.82317E+03  2.52168E+04
 -2.26514E+04  1.05554E+04 -1.24716E+04 -4.76106E+03  4.83610E+03 -2.48576E+03  1.82667E+04  1.24563E+04
  1.06702E+04  3.62551E+04 -2.86992E+04  3.94837E+04 -6.64484E+04  2.99923E+03 -5.94079E+04 -4.21179E+04
 -1.52360E+04 -6.27521E+04  4.10769E+04 -4.79883E+04  6.32796E+04  2.30463E+03  3.94036E+04  3.22113E+04
 -2.96598E+03  3.32114E+04 -3.38180E+04  1.12652E+04 -3.14672E+04 -1.64345E+03 -1.43376E+04 -4.19576E+03
 -4.24775E+03 -1.26482E+04  1.78949E+03 -2.17457E+04  9.78475E+03 -2.44849E+04  1.44708E+04 -1.53498E+04
  7.44990E+03  5.57722E+03 -6.90251E+03  1.27253E+04 -2.18492E+04 -6.74130E+03 -7.62659E+03 -3.65632E+04
  2.08515E+04 -4.16890E+04  4.52899E+04 -2.57862E+04  4.37411E+04  1.74471E+04  1.73524E+04  4.69335E+04
 -9.43602E+03  3.38175E+04 -2.77072E+04  1.47406E+02 -1.60350E+04 -3.13639E+04  2.41778E+04 -3.80822E+04
  4.79660E+04 -1.61104E+04  4.10409E+04  2.60331E+04  1.85317E+04  4.99043E+04 -4.38482E+03  5.84014E+04
 -3.45692E+04  2.77314E+04 -4.67352E+04  3.68607E+03 -4.74983E+04 -1.61738E+04 -3.16853E+04 -4.37555E+04
  1.07508E+04 -3.84597E+04  3.76103E+04 -1.52912E+04  3.04970E+04  1.20675E+04  9.89988E+03  1.84655E+04
 -1.68299E+04  9.81346E+03 -1.24772E+04 -8.44214E+03  6.55553E+03 -7.91266E+03  2.34874E+04  7.84620E+02
  1.07973E+04  2.47034E+04 -8.83593E+03  3.12413E+04 -2.82212E+04  1.01762E+04 -3.56214E+04 -4.39434E+03
 -2.70325E+04 -2.23005E+04 -1.30297E+04 -2.59267E+04  1.16369E+04 -2.29070E+04  1.29159E+04 -2.52714E+04
  2.75472E+04 -1.76784E+04  3.48928E+04  6.98224E+03  2.80442E+04  2.50237E+04  5.07086E+03  3.97407E+04
 -1.31407E+04  3.45696E+04 -2.37110E+04  1.34362E+04 -2.15775E+04 -1.09438E+04 -4.60138E+02 -1.31742E+04
  4.98160E+03 -2.73463E+03 -3.23906E+03  7.99871E+03 -1.97188E+04  6.03694E+03 -1.75013E+04 -8.28765E+03
 -1.07016E+04 -1.82646E+04  6.83826E+03 -2.50569E+04  1.19597E+04 -1.55493E+04  2.08903E+04 -2.46792E+03
  1.25882E+04  1.89093E+04 -3.68524E+03  1.95374E+04 -2.00647E+04  1.46056E+04 -1.98238E+04 -3.48611E+03
 -1.48869E+04 -2.03792E+04  9.28327E+02 -2.76899E+04  1.49722E+04 -2.63114E+04  1.97096E+04 -1.19763E+04
  2.02843E+04 -3.61424E+03  1.29316E+04  5.35031E+03  7.61441E+03  1.02853E+03  6.42015E+03 -2.26675E+03
  2.04238E+04  1.37269E+03  1.86142E+04  1.37855E+04  2.03422E+04  3.70810E+04 -5.83159E+03  4.47601E+04
 -1.74715E+04  3.10860E+04 -4.12636E+04  1.41226E+04 -3.96285E+04 -3.76254E+03 -3.54501E+04 -2.31566E+04
 -1.17106E+04 -2.89147E+04  1.35026E+04 -1.75135E+04  2.56597E+04 -1.48214E+04  2.40044E+04  8.82517E+03
  8.60786E+03  1.63984E+04 -5.42878E+03  1.40540E+04 -1.72142E+04  7.42875E+03 -1.57028E+04 -6.42218E+03
  2.03035E+01 -1.26264E+04  8.10338E+03 -1.65976E+04  1.36225E+04  1.05998E+02  5.75194E+03  1.24580E+04
 -8.95473E+03  1.08222E+04 -6.77486E+03 -9.90656E+03 -3.23731E+02 -1.93177E+04  1.76424E+04 -1.30893E+04
  1.67785E+04 -1.30732E+04  1.86290E+04  2.85397E+03  1.66726E+04  2.04034E+04  2.37394E+03  2.41757E+04
 -6.47697E+03  2.95018E+04 -1.49391E+04  1.68402E+04 -1.97550E+04  6.33982E+03 -1.20145E+04 -3.70643E+03
 -9.76636E+03 -4.85520E+03  6.07457E+02 -2.33140E+03 -2.82455E+03  4.43542E+03 -6.30145E+03  5.95268E+03
 -1.44541E+04  1.61105E+02 -1.25228E+04 -1.14617E+04  1.52184E+03 -1.34434E+04  1.02448E+04 -2.06474E+04
  1.49946E+04 -8.30506E+03  6.13242E+03  9.31855E+03  9.99059E+02  8.55181E+03 -8.24962E+03 -2.35635E+03
 -6.64606E+03 -7.76414E+03  9.33418E+02 -9.21808E+03  8.86514E+03 -1.94784E+04  1.95438E+04 -6.53180E+03
  2.32177E+04  6.53275E+03  9.07931E+03  9.61965E+03  2.16046E+03  1.65960E+04 -6.10571E+03  9.93214E+03
 -7.76855E+03  4.50545E+03 -6.73113E+03 -8.47308E+03 -1.32048E+03 -4.32768E+03  9.63229E+03 -2.98473E+03
  1.88944E+03  4.45492E+03 -2.67279E+03  7.53117E+03 -8.10064E+03  1.39853E+04 -1.61706E+04  3.41517E+03
 -8.80293E+03 -1.04172E+04  4.44835E+03 -9.36317E+03  4.34441E+03 -4.62154E+03  1.27293E+04  2.67627E+03
  1.08993E+03  1.18100E+04 -5.65504E+03  7.56838E+03 -7.44537E+03  5.88941E+03 -1.65572E+04 -6.22193E+03
 -4.40271E+03 -1.61483E+04  6.02429E+03 -1.94663E+04  8.61510E+03 -8.84769E+03  1.51599E+04  2.39429E+03
  1.04421E+04  1.43969E+04 -5.34488E+03  1.55797E+04 -1.55214E+04  9.77456E+03 -1.01739E+03 -2.48577E+03
 -8.45261E+03 -1.07722E+04 -1.84655E+03 -1.36633E+04  8.95673E+03 -1.00316E+04 -9.21815E+02 -2.51021E+03
  4.70948E+02 -5.42312E+02 -1.08343E+03  5.51228E+03 -4.34837E+03 -5.66034E+03  3.55377E+03 -7.60422E+03
  3.20372E+03 -1.42948E+03  1.21887E+04  8.87664E+03  1.19876E+04  1.07348E+04  1.05185E+04  2.08114E+04
 -6.59984E+03  2.04146E+04 -1.71078E+04  1.60211E+04 -1.41162E+04  4.16486E+02 -1.47778E+04 -8.95129E+03
 -1.01059E+04 -8.77551E+03 -3.07934E+03 -1.49074E+04  5.38067E+03 -5.34092E+03  5.96617E+03 -5.71471E+03
  4.56721E+03 -4.64497E+03  1.98534E+03 -2.98943E+03  5.99452E+03 -3.00472E+03  2.94167E+03  4.87335E+02
  1.27967E+04  3.90404E+03  4.48451E+03  8.89187E+03  3.15636E+03  1.22131E+04 -9.56402E+03  2.09798E+03
 -1.51766E+04  9.69552E+02 -4.77771E+03 -8.61958E+03  2.60694E+03 -1.92174E+04  1.02062E+04 -9.20896E+03
  1.24722E+04 -1.24968E+04  1.61318E+04  1.77926E+03  1.74202E+04  1.29639E+04 -1.45988E+03  2.04055E+04
 -6.00525E+03  7.54686E+03 -5.62941E+03  6.32755E+03 -5.76373E+03  9.33097E+02 -1.60419E+03 -2.32404E+03
  7.77800E+02 -6.80146E+02 -2.65818E+03 -1.76510E+03 -6.09083E+03  6.00570E+03 -7.98436E+03 -2.39355E+03
 -3.11783E+03 -8.63819E+03 -1.14633E+03 -1.80289E+04  1.29414E+04 -1.62795E+04  8.29053E+03 -4.06131E+03
  1.11995E+04  5.46532E+03  7.11260E+03  1.16496E+04 -8.31130E+03  1.91721E+04 -1.45004E+04  7.75290E+03
 -1.32364E+04  3.69039E+03 -5.39788E+03 -1.03449E+04 -2.56717E+03 -1.03421E+04  6.14373E+03 -9.05066E+03
  6.31574E+03 -6.87284E+03  3.48352E+03  3.06101E+03  7.24110E+01  1.04645E+04 -2.73552E+02  5.44726E+03
  1.38866E+03 -4.89723E+02  1.07224E+03  3.95467E+03  3.80704E+03  5.38909E+03 -1.94888E+03  1.00700E+04
 -4.80945E+03  1.14346E+04 -1.13783E+03  7.93485E+03 -1.14824E+04  8.60336E+02 -1.22798E+04 -7.57444E+03
 -1.06876E+04 -1.14725E+04  4.78863E+03 -2.31015E+04  5.07867E+03 -1.49326E+04  1.43180E+04 -5.09577E+03
  1.19237E+04  2.50533E+03 -6.89819E+03  1.03244E+04 -2.02203E+03  6.98998E+03 -1.85608E+03 -1.67073E+03
  8.65663E+02 -4.27900E+03  6.95958E+02 -2.12244E+03  1.07403E+04 -9.56607E+02  9.86083E+03 -5.38618E+03
 -5.54378E+02  1.56009E+03 -7.14522E+02  1.18516E+03 -4.22311E+03 -8.85423E+02  7.25248E+03  8.56650E+02
  2.13086E+03 -3.43981E+03  4.58092E+03 -7.51301E+02  5.87985E+03  9.18459E+03  5.29492E+03  1.02885E+04
 -8.81806E+03  7.16360E+03 -1.01089E+04  4.75643E+03 -4.33551E+03 -2.83096E+03 -1.06488E+03 -2.15968E+03
 -5.19676E+03 -3.38332E+03  9.73087E+02  6.50933E+02  2.46321E+03  1.69205E+03 -3.32436E+03  2.11461E+01
 -6.48876E+03 -3.12390E+03 -5.43489E+03 -6.91718E+03 -4.53593E+03 -1.12428E+04  1.73661E+03 -9.71211E+03
  7.05062E+03 -6.88478E+03  2.99608E+03 -1.58186E+03  5.08163E+03  1.19940E+03 -2.63675E+03  2.87270E+03
 -1.75379E+03  6.80503E+03 -7.37196E+03 -1.27725E+03 -1.47555E+02 -7.93963E+03  6.36033E+03 -4.79653E+03
  5.86146E+03  4.62701E+03  4.59348E+03  5.31609E+03  5.27788E+03  1.40030E+04  1.12979E+03  6.51042E+03
 -8.68945E+03 -1.62747E+03 -5.08728E+03 -1.46697E+03 -2.79662E+03 -4.74777E+02  5.99906E+03 -3.48178E+03
  1.17939E+04 -5.29316E+03  2.48976E+03  9.24383E+02 -1.63948E+03  6.11961E+03 -2.95877E+03  1.17358E+04
 -4.97122E+03  6.25359E+03 -2.18305E+02 -2.36102E+03 -5.04409E+03  8.80430E+02  1.57762E+02  3.24864E+03
 -4.12556E+03  2.98475E+03 -5.12582E+03  1.06149E+04 -4.44056E+03 -7.71226E+02 -7.37549E+03 -1.01699E+04
 -1.60563E+03 -9.31265E+03 -5.13842E+03 -1.12244E+04  7.07472E+03 -1.39244E+04  1.23814E+04 -3.78254E+03
  1.04232E+04  5.27478E+03  8.44231E+03  1.06026E+04  1.10269E+02  9.86710E+03 -2.10741E+03  1.24405E+04
 -5.50257E+03  3.85667E+03 -1.50958E+03 -3.96934E+03  4.55695E+03 -1.91122E+02  5.58115E+02  5.35723E+03
 -7.25045E+03  3.88331E+03 -3.17316E+02  8.99837E+02 -1.22737E+03 -5.76510E+03  2.88364E+03 -1.76963E+03
  7.77576E+03 -3.87694E+03  4.02785E+03 -9.09223E+01  5.25696E+03  4.92772E+03  5.67835E+03  1.01944E+04
 -3.37718E+03  1.23505E+04 -1.05222E+04  3.06923E+03 -1.01575E+04 -5.46587E+02 -5.61507E+03 -3.89575E+03
 -1.98687E+03 -1.41953E+04  4.87732E+03 -7.48452E+03  2.88321E+03 -5.27084E+03  7.21334E+03 -3.56058E+03
  3.94322E+03  3.97450E+03 -7.32962E+03  6.22647E+03 -7.97169E+03 -4.87144E+03  2.66283E+03  6.74696E+03
 -6.02552E+02  7.12520E+03  6.34257E+02 -1.52387E+03  6.97614E+03  1.63781E+03 -7.27022E+02  2.58872E+03
  2.55790E+03  3.95299E+03 -5.08438E+03 -5.89350E+03 -7.68633E+03 -5.71494E+03  4.91740E+03 -5.76937E+03
  3.18941E+03 -6.30972E+03  2.11317E+03  2.44424E+03  5.57834E+03 -2.47083E+03  7.78027E+03  1.09502E+04
  4.20458E+03  6.33064E+03 -2.69516E+03  2.02350E+03 -2.02480E+03  1.73862E+03 -6.48602E+03 -9.43387E+02
 -3.39190E+03  2.47672E+03 -1.50589E+02 -5.16798E+02  1.45424E+03  2.77997E+03 -5.42437E+03 -3.25650E+03
  5.90331E+02  1.30218E+03 -6.32271E+03 -4.14584E+03 -1.70928E+03 -7.27728E+03  1.83690E+03 -2.04548E+03
  5.45045E+03  1.15182E+03  4.95678E+03  1.67620E+03 -2.93852E+03  9.26978E+03 -1.82799E+02  1.74472E+03
