 $NMID ID='MM_0lb_SNR50_9hz_g50_54.RAW', FMTDAT='(8E13.5)'
 TRAMP=1., VOLUME=1. $END
  3.10539E+05 -3.36540E+03  3.36228E+05  2.53250E+05  8.21748E+04  3.43392E+05 -1.37199E+05  2.49550E+05
 -1.88400E+05  8.10391E+04 -1.18335E+05 -3.23588E+04 -1.08772E+03 -5.64184E+04  5.67379E+04 -2.74549E+03
  3.48682E+04  5.63168E+04 -1.61111E+04  7.63821E+04 -6.36560E+04  6.29537E+04 -8.43860E+04  3.24410E+04
 -7.94509E+04 -1.25875E+04 -6.36537E+04 -5.24258E+04 -1.44118E+04 -6.96871E+04  2.62951E+04 -5.16295E+04
  3.87082E+04  4.87000E+03  1.95316E+04  4.41607E+04 -3.83308E+04  5.71688E+04 -6.76818E+04 -7.39171E+02
 -5.65867E+04 -6.19922E+04 -9.97171E+03 -7.76759E+04  3.67873E+04 -5.50750E+04  4.79723E+04 -1.85054E+04
  4.43818E+04  1.15519E+04  2.97556E+04  2.63472E+04  1.83116E+04  2.94629E+04 -1.17665E+04  2.29404E+04
 -2.24896E+04  1.39413E+04 -2.12033E+04 -1.48699E+03  8.02786E+03 -7.83884E+03  2.27135E+04  1.57079E+04
  5.31943E+03  3.25984E+04 -3.23751E+04  3.02012E+04 -7.01087E+04 -1.13049E+02 -5.83201E+04 -4.93020E+04
 -1.18232E+04 -7.27438E+04  3.70035E+04 -4.45073E+04  6.06524E+04 -3.43496E+03  3.21925E+04  3.21607E+04
 -4.76962E+03  3.84051E+04 -3.39448E+04  1.65597E+04 -3.44895E+04 -1.87081E+03 -1.95091E+04 -1.07732E+04
 -1.38969E+04 -1.29307E+04 -5.25234E+02 -2.55639E+04  3.71424E+03 -2.74843E+04  1.72169E+04 -1.80348E+04
  9.52234E+03  7.53667E+03 -1.63125E+04  1.53511E+04 -2.09495E+04 -1.62894E+03 -8.34025E+03 -2.78781E+04
  2.52510E+04 -4.71711E+04  4.66894E+04 -2.28336E+04  4.80138E+04  1.99140E+04  2.09068E+04  4.55372E+04
 -1.53804E+04  3.43035E+04 -2.75377E+04  1.21109E+03 -1.17764E+04 -3.64462E+04  2.06595E+04 -3.52443E+04
  4.70152E+04 -1.12474E+04  4.04311E+04  1.62359E+04  2.28348E+04  4.95911E+04 -3.86888E+03  6.01812E+04
 -2.84697E+04  3.95323E+04 -4.95460E+04  1.72165E+04 -4.83278E+04 -1.62409E+04 -2.55443E+04 -3.88442E+04
  1.65263E+04 -4.42376E+04  3.81715E+04 -1.51987E+04  3.62384E+04  1.24352E+04 -4.17788E+02  1.73683E+04
 -1.72101E+04  7.65476E+03 -1.42486E+04 -8.03671E+03  5.93688E+03 -1.36413E+04  1.87326E+04  8.55626E+03
  1.84383E+04  2.07918E+04 -5.59292E+03  2.93042E+04 -2.13716E+04  1.66011E+04 -3.23436E+04  6.07245E+03
 -2.57518E+04 -1.65521E+04 -5.71164E+03 -2.67469E+04  5.52313E+03 -2.53966E+04  1.74433E+04 -2.07149E+04
  3.05451E+04 -1.36580E+04  3.84645E+04  1.88638E+03  2.68665E+04  2.32696E+04 -2.54807E+03  4.15456E+04
 -1.52135E+04  3.74872E+04 -3.37195E+04  1.22792E+04 -1.45846E+04 -1.06802E+04 -5.35132E+03 -9.41112E+03
  4.44333E+03 -9.48840E+03 -6.38521E+03  2.17337E+02 -2.14924E+04  9.10313E+03 -2.23450E+04 -1.05184E+04
 -8.27620E+03 -2.49345E+04  9.43078E+03 -3.35398E+04  1.68070E+04 -2.19749E+04  2.52072E+04 -6.60315E+02
  8.11054E+03  1.65700E+04 -2.27170E+03  2.56847E+04 -2.02117E+04  1.14864E+04 -2.15744E+04 -2.51778E+03
 -1.73471E+04 -1.84713E+04  6.34696E+02 -2.38041E+04  7.03953E+03 -2.09449E+04  2.15341E+04 -1.25775E+04
  2.03584E+04  1.26624E+03  1.65423E+04  4.66454E+03  5.74344E+03  5.58871E+03  1.13295E+04 -2.78531E+03
  2.14983E+04  1.70285E+03  2.10082E+04  1.96089E+04  1.21170E+04  3.80535E+04  8.82613E+01  4.34756E+04
 -2.51146E+04  3.42443E+04 -3.96691E+04  1.80511E+04 -4.74820E+04 -3.02237E+03 -3.78555E+04 -2.88361E+04
 -1.08462E+04 -4.13574E+04  1.50721E+04 -2.85173E+04  2.73697E+04 -6.81302E+03  1.86059E+04  6.75895E+03
  3.65900E+03  1.85646E+04 -1.92477E+04  1.04770E+04 -2.19640E+04  4.22686E+03 -1.79170E+04 -2.20986E+04
 -6.39636E+02 -1.78330E+04  1.12161E+04 -1.67814E+04  1.10253E+04 -8.92383E+02 -5.24586E+03  8.20826E+03
 -9.45795E+02  7.66732E+03 -6.88256E+03 -1.02888E+04  3.96711E+03 -2.44249E+04  1.44351E+04 -2.50987E+04
  2.55041E+04 -1.04049E+04  2.70123E+04  2.07277E+03  1.97540E+04  2.26967E+04  8.24872E+03  2.48089E+04
 -1.11680E+04  2.78091E+04 -2.09121E+04  2.01278E+04 -2.10566E+04  4.80247E+03 -1.45548E+04 -6.15003E+03
 -3.82896E+03 -8.40545E+03  1.13053E+03  1.74201E+03  5.27320E+03 -1.09397E+02 -3.50668E+03  7.46594E+03
 -1.33254E+04 -1.91042E+03 -2.37358E+04 -8.26813E+03 -6.68046E+03 -2.04773E+04  6.73770E+02 -1.65255E+04
  1.15484E+04 -1.53511E+04  7.83959E+03  8.85547E+02 -3.86546E+03  8.10635E+03 -1.04601E+04 -7.45302E+03
 -5.57269E+03 -1.16527E+04  2.28187E+03 -1.75434E+04  3.70849E+03 -1.91161E+04  1.50294E+04 -1.08973E+04
  2.51507E+04 -1.20202E+03  1.29157E+04  1.25066E+04  5.30043E+03  1.77586E+04 -2.47052E+03  1.57437E+04
 -1.63815E+04  7.94787E+03 -8.26177E+03 -7.65413E+02  6.48883E+03 -6.64971E+03  4.90613E+03 -9.87797E+02
  7.91610E+03  9.48790E+03  3.94196E+03  1.02564E+04 -4.31656E+03  1.18040E+04 -1.80543E+04  9.51971E+03
 -1.54725E+04 -8.68652E+03  1.03699E+03 -8.54365E+03  6.83959E+03 -1.21066E+04  5.03848E+03 -3.12374E+01
  5.40807E+03  1.35071E+04 -1.15439E+04  1.23116E+04 -1.17293E+04  9.62731E+03 -1.18691E+04 -2.28598E+03
 -9.60294E+03 -1.51096E+04  2.29557E+03 -1.45394E+04  1.63604E+04 -4.77930E+03  1.97051E+04  7.74079E+03
  7.51320E+03  1.65269E+04 -2.89891E+03  1.42234E+04 -8.45074E+03  3.78556E+03 -1.12086E+04 -4.94340E+02
 -1.33604E+04 -6.72860E+03 -6.07989E+03 -1.41024E+04  5.84378E+03 -8.72332E+03  4.17017E+03 -4.82860E+03
 -1.30078E+03  2.92724E+03 -7.23726E+02 -4.42036E+03 -3.55336E+03 -3.62806E+03 -4.55757E+03 -1.19302E+04
  7.21454E+03 -5.10731E+03  1.53631E+04  3.98847E+03  6.11761E+03  1.31234E+04  1.68444E+04  1.84711E+04
 -3.87908E+03  2.61195E+04 -1.96928E+04  2.13296E+04 -2.08624E+04  4.15601E+03 -2.21685E+04 -9.15687E+03
 -2.78237E+03 -2.60520E+04  5.59230E+03 -1.57991E+04 -2.35770E+03 -9.18253E+03  6.84498E+03 -2.18853E+03
  4.36312E+02 -7.22372E+03  2.95703E+03 -8.00712E+03  8.12833E+03 -1.01876E+04 -7.02509E+02 -5.90801E+03
  1.09249E+04  5.61869E+03  1.87022E+03  1.33711E+04 -2.55394E+03  1.43230E+04 -8.54303E+03  9.37140E+03
 -1.11501E+04 -2.95299E+02 -9.71245E+03 -1.68540E+04 -6.49521E+02 -1.25950E+04  8.66968E+03 -2.21417E+04
  1.86562E+04 -3.38023E+03  1.82713E+04  3.49348E+02  1.29147E+04  1.13507E+04  2.74632E+03  2.09846E+04
 -1.22793E+04  1.36569E+04 -6.23567E+03  6.85982E+03 -4.64243E+03 -1.52509E+03  9.85496E+02 -5.45159E+03
 -4.49358E+03 -5.12061E+03  5.06297E+02  7.50556E+01 -2.16199E+03  2.72288E+03 -6.06951E+03 -1.68484E+03
 -8.93445E+03 -1.27064E+04 -9.75054E+02 -2.39269E+04  6.09510E+03 -1.33455E+04  1.32913E+04 -1.79200E+03
  1.88540E+04  4.12061E+03  1.20350E+04  1.60121E+04  6.73863E+03  1.54925E+04 -1.50815E+04  1.23850E+04
 -1.48811E+04  1.19746E+03 -9.88708E+03 -2.64874E+03 -2.83557E+03 -1.03265E+04  7.53401E+03 -9.43946E+03
  9.11489E+03 -4.30224E+03  1.35197E+04  5.76461E+03 -7.67122E+02  4.50525E+03  2.21484E+02  4.21335E+03
  5.56334E+03 -3.74761E+03  1.07928E+03 -2.82642E+03  4.49241E+03  4.72635E+03  4.62154E+03  6.67618E+03
 -6.75724E+03  1.43717E+04 -1.62285E+04  1.49274E+04 -1.66941E+04  5.35668E+03 -1.84176E+04 -7.21702E+03
 -5.56792E+03 -2.06227E+04  2.06773E+03 -1.58951E+04  6.23031E+03 -1.34642E+04  5.98337E+03 -6.20067E+03
  1.44825E+04  9.42158E+03 -2.10997E+03  9.57323E+03 -2.99567E+02  1.10691E+04 -5.45084E+03 -1.53158E+03
 -1.04905E+04 -1.25869E+04  1.08321E+01 -8.69425E+03  7.34704E+02 -2.91324E+03  6.06348E+03  6.31133E+03
  5.50801E+03 -3.01808E+02  6.95291E+02 -2.45365E+02  1.92828E+02  3.04312E+03  5.13578E+03  2.10371E+03
  6.82756E+03 -2.69884E+03  6.67509E+03  3.26045E+03  4.55280E+03  5.17708E+03 -4.46815E+03  1.16161E+04
 -1.30936E+03  7.06519E+03 -1.10834E+04  4.78857E+03 -9.32444E+03 -1.12882E+03 -1.30710E+02 -1.34617E+03
  1.87166E+03 -7.73591E+03  7.67588E+03 -5.25547E+03  9.21666E+02  6.20990E+03 -2.96666E+03  3.92205E+03
 -3.67687E+03  5.11101E+03 -6.37319E+03 -6.68933E+03 -3.35899E+03 -1.12417E+04 -1.95779E+02 -1.26815E+04
  5.30016E+03 -6.95121E+03  3.40192E+02 -4.50154E+03 -4.81258E+03  2.78989E+03  1.16977E+03  1.87659E+03
 -2.01461E+03  5.62860E+03 -3.45984E+03 -2.07348E+03  1.76380E+03 -7.51083E+03  4.80059E+03 -2.67242E+03
  8.99967E+03  1.26027E+02  1.00620E+04  6.65854E+03  2.18498E+03  1.15742E+04 -7.01722E+03  9.82452E+03
 -8.93322E+03  2.27134E+03 -8.91605E+03 -2.33910E+03 -6.49483E+03 -1.12182E+04  4.19232E+03 -3.62380E+03
  1.02985E+04 -2.90205E+03  5.37542E+03  3.70032E+03  9.98487E+02  1.72604E+03 -2.00877E+03  2.66463E+03
  8.38814E+02  1.59544E+03 -1.54014E+03 -3.45779E+03 -4.42036E+03  4.71618E+02  5.33487E+03 -8.76930E+02
  2.72400E+02  5.83150E+03 -6.22161E+03  2.57531E+03 -7.51908E+03 -3.99593E+03 -6.15689E+03 -8.44959E+03
 -2.91827E+02 -1.09145E+04  3.68809E+03 -1.10796E+04  1.01223E+04 -1.52842E+04  1.88835E+04 -1.01097E+04
  1.98211E+04  4.57387E+03  1.20606E+03  7.68850E+03 -1.61938E+03  1.03539E+04 -7.06800E+03  4.93348E+03
 -7.35794E+03  5.34659E+03 -3.21322E+03 -2.16167E+03 -1.03208E+03  5.71935E+03 -2.24704E+03  7.72259E+02
 -2.66707E+03 -4.64586E+03 -2.57325E+03 -6.37050E+02 -4.42488E+03  1.40945E+03  1.00894E+04 -4.57555E+03
  1.33919E+04 -6.17582E+03 -2.86275E+03 -3.96030E+03  1.15754E+04  4.68458E+03 -7.78342E+03  1.44685E+04
 -5.43552E+03  3.03541E+03 -1.14452E+04  7.08048E+03 -1.42705E+04 -5.11689E+02 -1.10557E+04 -7.58658E+03
  1.53730E+03 -5.17053E+03  3.20714E+03 -1.49090E+04  8.79118E+03 -3.16849E+03  1.25747E+04  5.39826E+03
  3.41363E+03 -7.98039E+02  6.31985E+02  1.69240E+03  2.65164E+02  2.22162E+03  5.81298E+02 -2.08486E+03
  7.99550E+03 -7.33582E+03  3.41186E+03  1.01584E+02  3.48487E+03  3.28032E+03  4.81227E+02  1.06737E+04
 -2.40507E+03  9.76846E+03  7.93947E+02  2.64424E+03 -6.07232E+03  6.41306E+02  2.23619E+01 -8.73658E+03
  6.80110E+02 -9.80931E+03  7.55381E+03  9.20140E+02  8.06269E+03  8.44952E+02 -4.39509E+02  2.88809E+03
  6.39445E+03  7.28776E+03 -5.49648E+03  1.03236E+04 -6.19912E+03  3.50222E+03 -1.29908E+02 -2.62099E+03
 -6.78611E+03 -4.14393E+03  3.84287E+03  6.08613E+02 -6.35512E+03  5.89420E+03 -9.72093E+03 -6.84116E+03
 -2.55593E+03 -4.19606E+03 -1.41388E+02 -6.80154E+03 -1.03972E+02 -8.63366E+03  1.06755E+03 -5.13112E+03
  5.91197E+03  1.29796E+03  7.62643E+03  6.72646E+03  7.51957E+03  6.83746E+03  1.21095E+03  1.48885E+03
