 $NMID ID='MM_0lb_SNR50_8hz_g60_17.RAW', FMTDAT='(8E13.5)'
 TRAMP=1., VOLUME=1. $END
  3.10614E+05 -2.68972E+03  3.36523E+05  2.45642E+05  8.27198E+04  3.41009E+05 -1.28206E+05  2.47981E+05
 -1.90547E+05  8.10701E+04 -1.17992E+05 -3.05897E+04 -4.86083E+03 -4.54452E+04  5.64411E+04  4.68222E+03
  3.36964E+04  4.28776E+04 -1.28540E+04  8.18139E+04 -6.03464E+04  6.59439E+04 -8.56686E+04  3.02864E+04
 -8.17929E+04 -1.01376E+04 -6.23439E+04 -5.35447E+04 -1.40158E+04 -7.28992E+04  2.00125E+04 -4.79486E+04
  3.74836E+04  7.92833E+03  1.72661E+04  4.88463E+04 -3.32169E+04  5.37830E+04 -6.77712E+04 -2.58100E+03
 -4.68955E+04 -5.95637E+04 -1.21752E+04 -7.53747E+04  3.46594E+04 -6.36030E+04  4.91914E+04 -1.92114E+04
  4.37626E+04  1.31309E+04  3.12998E+04  2.41735E+04  1.92696E+04  3.80965E+04 -8.32861E+03  2.78302E+04
 -2.29599E+04  1.27708E+04 -1.70957E+04 -1.37500E+04  8.04844E+03 -9.41294E+03  2.72537E+04  1.63075E+04
  5.52008E+03  3.77855E+04 -3.37764E+04  3.73892E+04 -5.64534E+04  9.60419E+02 -5.70536E+04 -4.20447E+04
 -1.12997E+04 -6.82400E+04  4.29167E+04 -4.66723E+04  6.04125E+04 -9.40796E+03  3.73696E+04  3.64980E+04
 -6.33435E+03  3.92044E+04 -3.20826E+04  1.76621E+04 -3.32516E+04 -5.46037E+02 -1.59263E+04 -1.47981E+04
 -9.87135E+03 -1.69338E+04 -4.82294E+03 -2.40455E+04  4.22101E+03 -2.35687E+04  1.62100E+04 -1.39402E+04
  1.12036E+04  1.28792E+04 -1.31474E+04  1.37792E+04 -2.66478E+04 -8.00009E+03 -6.36874E+03 -3.66553E+04
  1.88398E+04 -4.82301E+04  5.31305E+04 -2.63158E+04  4.45676E+04  2.26070E+04  1.44935E+04  5.16145E+04
 -1.62693E+04  3.97480E+04 -2.24110E+04  2.54287E+03 -1.13598E+04 -3.07072E+04  2.39274E+04 -4.07406E+04
  4.40278E+04 -1.12198E+04  4.34818E+04  2.35395E+04  1.54073E+04  5.41936E+04 -1.37090E+04  6.45746E+04
 -4.21811E+04  4.22075E+04 -5.08656E+04  1.07851E+04 -4.97092E+04 -1.83417E+04 -3.07576E+04 -4.51353E+04
  1.26234E+04 -4.33096E+04  2.93899E+04 -1.87132E+04  2.89979E+04  1.10685E+04  9.78900E+03  1.86364E+04
 -1.64965E+04  1.03636E+04 -8.37237E+03 -5.18429E+03  6.85441E+03 -1.11687E+04  1.71904E+04  3.40223E+03
  2.29841E+04  2.22340E+04 -8.06678E+03  2.34644E+04 -2.68702E+04  2.04164E+04 -4.27196E+04  4.70146E+03
 -2.91067E+04 -1.94313E+04 -6.43024E+03 -3.11417E+04  4.88973E+03 -2.43868E+04  2.51329E+04 -2.49581E+04
  2.94605E+04 -1.27152E+04  4.22680E+04  6.01713E+03  2.08014E+04  1.99035E+04 -6.89990E+03  4.05822E+04
 -2.98187E+04  3.13484E+04 -3.61263E+04  8.22576E+03 -1.77443E+04 -1.11097E+04 -6.84830E+03 -1.48439E+04
  3.31238E+03  3.00836E+03 -1.10926E+04  1.21050E+04 -2.81769E+04 -7.28559E+02 -1.92224E+04 -8.78976E+03
 -1.07304E+04 -2.29648E+04 -5.04499E+02 -2.19682E+04  2.60721E+04 -2.13117E+04  2.44877E+04 -4.31301E+03
  1.80693E+04  2.35345E+04 -2.19634E+03  2.09855E+04 -1.69343E+04  1.11246E+04 -3.18368E+04 -4.76560E+03
 -1.97985E+04 -2.61299E+04 -6.62203E+03 -2.66580E+04  1.27623E+04 -1.84926E+04  2.77005E+04 -1.35429E+04
  2.16573E+04  1.20247E+03  2.35276E+04  6.58902E+03  6.52459E+03  8.84050E+02  1.37753E+04 -3.22253E+03
  2.21561E+04 -1.10582E+03  2.35361E+04  2.27427E+04  2.84996E+04  4.21974E+04 -3.48880E+02  5.44929E+04
 -2.61360E+04  3.78599E+04 -4.34272E+04  2.71914E+04 -4.99682E+04 -6.22193E+03 -5.03386E+04 -2.74660E+04
 -1.36653E+04 -4.27896E+04  4.86632E+03 -3.78800E+04  2.93133E+04 -2.55721E+04  2.85157E+04  1.35860E+04
  1.29587E+04  2.69729E+04 -1.24633E+04  1.66742E+04 -1.33393E+04  1.52669E+04 -1.88735E+04 -1.07377E+04
 -5.43956E+03 -2.28382E+04  7.92328E+03 -1.96055E+04  2.22580E+04 -2.17890E+03  7.24496E+03  5.92710E+03
 -5.49800E+02  2.92293E+03 -1.34260E+04 -1.37928E+04  2.78787E+03 -1.85652E+04  1.24320E+04 -2.49868E+04
  2.18298E+04 -2.00776E+04  2.12428E+04  3.25953E+03  2.56780E+04  2.05430E+04  1.48685E+04  3.14400E+04
 -7.23881E+03  3.26675E+04 -2.16652E+04  2.43590E+04 -2.51723E+04  1.45636E+03 -1.82358E+04 -3.66982E+03
 -4.65694E+03 -5.86486E+03 -1.82740E+03 -3.73609E+02 -1.44338E+03  1.11975E+04 -3.86618E+03  2.46595E+03
 -1.61648E+04 -1.43360E+03 -1.45786E+04 -7.88307E+03 -1.97418E+03 -2.40041E+04  8.81274E+03 -1.09796E+04
  2.09822E+04 -1.30610E+04  1.24236E+04  4.96015E+03  1.57061E+03  8.25921E+03 -1.19641E+04 -5.57923E+03
 -9.58960E+03 -7.86901E+03 -2.27609E+03 -1.07503E+04  6.11072E+03 -1.83859E+04  2.89042E+04 -4.39044E+03
  1.86145E+04 -1.22359E+03  1.61803E+04  2.17225E+04  7.34073E+03  2.36417E+04 -9.60525E+03  9.32366E+03
 -1.80101E+04  1.05146E+04 -8.07202E+03 -3.10771E+03 -5.92525E+02 -8.53607E+03  1.30302E+04  4.23030E+03
  1.25690E+04  1.26638E+04 -6.59549E+02  8.03816E+03 -5.43081E+03  9.83590E+03 -1.06734E+04  6.48521E+03
 -7.22135E+03 -4.61777E+03 -1.37195E+03 -1.11920E+04  8.41836E+03 -9.36041E+03  6.44820E+03  1.71853E+03
  3.99262E+03  1.43640E+04 -6.51486E+03  1.29974E+04 -2.00114E+04  7.66676E+03 -2.41037E+04 -3.38852E+03
 -7.43949E+03 -1.67055E+04  1.99619E+03 -2.66539E+04  2.20560E+04 -1.19889E+04  2.17792E+04  3.51683E+03
  1.04277E+04  1.08578E+04 -1.14927E+03  2.48096E+04 -9.80416E+03  6.47823E+03 -1.70611E+04 -4.19916E+03
 -1.19780E+04 -6.61471E+03 -3.67968E+03 -1.66747E+04  9.68262E+02 -9.44181E+03 -1.97264E+03  1.23662E+03
  9.38011E+02  7.16570E+02  2.77087E+03  6.12553E+02 -5.52530E+03 -4.88178E+03  3.31023E+03 -3.41760E+03
  1.63492E+04 -8.36804E+03  1.92845E+04  5.75822E+02  1.46416E+04  1.88273E+04  1.72554E+04  2.55553E+04
 -5.00388E+03  3.53337E+04 -1.43453E+04  2.12725E+04 -3.33898E+04  2.62499E+03 -1.83777E+04 -3.41349E+03
 -1.30709E+04 -2.28733E+04 -5.49953E+02 -1.65125E+04  6.28498E+03 -7.71391E+03 -1.64292E+03 -7.55372E+03
  3.01788E+03 -1.43249E+03  3.00803E+03  3.74459E+03  5.65692E+03 -6.58555E+03  1.33419E+04 -5.52451E+03
  1.09132E+04  1.67246E+03  3.45779E+03  1.05399E+04 -1.45372E+03  1.94204E+04 -1.09507E+04  1.09730E+04
 -1.38799E+04 -9.18785E+02 -1.28120E+04 -9.13440E+03 -7.35288E+03 -2.06251E+04  1.01763E+04 -2.37898E+04
  1.90228E+04 -1.41211E+04  2.83957E+04 -1.62600E+03  1.82841E+04  2.32285E+04  3.29044E+03  1.94487E+04
 -1.27062E+04  1.61440E+04 -1.61274E+04  4.65341E+03 -5.35055E+03 -3.88539E+03 -3.41937E+03  5.79617E+02
  1.08979E+03  1.47542E+03 -5.66085E+03  5.57137E+03 -5.83415E+03 -1.23888E+02 -1.43111E+04 -7.26603E+03
 -9.04614E+03 -1.16198E+04  1.80870E+03 -1.81367E+04  8.58030E+03 -1.09065E+04  1.10777E+04 -3.02853E+03
  1.94191E+04  4.07261E+03  2.85324E+03  1.89896E+04 -6.75622E+03  1.39143E+04 -1.13826E+04  1.36385E+04
 -1.91950E+04  4.11729E+03 -8.65993E+03 -8.37107E+03 -8.02271E+03 -1.85216E+04  7.77575E+03 -1.19254E+04
  1.41567E+04 -1.04111E+02  8.39482E+03  7.70232E+03  5.39314E+03  4.73615E+03  2.28069E+03  7.76840E+03
 -4.86080E+03 -5.35048E+03 -2.47945E+03  1.55794E+03  6.86596E+03  8.98459E+03 -5.24916E+02  8.00525E+03
 -1.02393E+04  1.26578E+04 -1.00774E+04  1.48261E+04 -1.94478E+04  3.04707E+03 -1.80951E+04 -7.05655E+03
 -7.89386E+03 -1.79783E+04  9.50731E+03 -2.37787E+04  7.65966E+03 -3.84588E+03  1.88560E+04 -5.61041E+03
  1.16227E+04  2.12032E+03 -8.60715E+01  1.23829E+04 -5.17096E+03  9.91569E+03 -2.14848E+03  2.20720E+03
  5.28512E+02 -8.90451E+03  7.98371E+02 -1.24178E+04  3.80184E+03 -6.16186E+03  9.03397E+03  1.12205E+03
 -1.69938E+03  1.83384E+03  1.84939E+03 -2.76258E+03  3.93921E+03  2.55100E+03  3.92708E+03 -1.17791E+04
  7.82176E+03 -8.09232E+03  3.66186E+03  7.38882E+03  1.08850E+04  1.25599E+04 -4.88935E+03  1.42337E+04
 -2.85858E+03  9.05529E+03 -1.78800E+04  2.28847E+02 -5.33213E+03 -3.41041E+03  3.58031E+03 -8.45780E+03
  2.49103E+03 -9.50718E+03  1.55793E+04 -4.70143E+03  3.97356E+03  3.73659E+03  4.01041E+03  1.09700E+04
 -5.18367E+03  7.14183E+03 -9.88590E+03 -7.41976E+03 -1.28010E+04 -9.65317E+03  4.52853E+03 -1.00839E+04
  1.25680E+04  4.79163E+03 -3.43315E+01 -3.68866E+03  4.34066E+03  2.28415E+03  3.42298E+03  3.37061E+03
 -5.80899E+03  4.17551E+03 -5.14961E+03 -3.22291E+03  1.44428E+03 -9.26355E+03  1.34081E+04 -5.77605E+03
  1.30382E+04  4.95521E+03  6.14356E+03  9.37920E+03  2.58079E+03  1.13954E+04 -1.46380E+03  1.28078E+04
 -3.03520E+03  7.33468E+03 -4.03161E+03 -1.77018E+03 -5.33612E+03 -7.39880E+03  2.11197E+03 -1.37782E+04
  1.16989E+04 -5.26207E+03 -4.86647E+02  4.48973E+03  2.27343E+03  6.92691E+03 -2.70930E+02  1.64584E+04
 -5.14847E+03  9.42239E+03 -1.00160E+04  2.55873E+02 -5.34734E+03  4.81601E+03 -9.40035E+03  6.11368E+03
 -2.39412E+03  7.57647E+03 -1.03841E+04 -1.97017E+03 -1.42123E+04  4.74263E+03 -1.07711E+04 -6.52906E+03
 -7.73579E+03 -1.85879E+04  3.62102E+03 -2.25075E+04  1.28365E+04 -1.66768E+04  1.69300E+04 -3.76418E+03
  1.76379E+04  5.15685E+03  1.59181E+04  1.09094E+04  4.26075E+03  1.40527E+04 -9.38057E+03  4.25124E+03
 -3.43119E+03  5.04679E+03  2.17935E+03 -5.83896E+03  1.10964E+03 -5.12467E+03  4.78542E+03 -4.09186E+03
  6.99872E+02  4.34733E+03 -4.01526E+02  2.80590E+03 -6.21962E+03 -4.97921E+03  1.06346E+03 -3.51842E+03
  5.60526E+03 -5.58751E+03  1.97338E+03 -1.01856E+04  1.29229E+04  1.25477E+04  7.62330E+03  1.26979E+04
 -4.30783E+03  1.09806E+04 -1.67916E+04  8.54470E+03 -1.78779E+04  1.00077E+03 -1.19877E+04 -8.80530E+03
 -1.28278E+03 -9.91704E+03  5.92463E+03 -1.70330E+04  3.06332E+03 -3.46801E+03  7.28017E+03  2.67174E+02
  3.74826E+03  1.01682E+04 -9.18830E+02  8.36321E+03 -7.44401E+03  1.32898E+04 -6.34368E+03  6.79604E+03
  9.92824E+03 -1.07968E+03 -1.95357E+03  3.14035E+03  1.37067E+03  1.20749E+04  3.74266E+03  2.52279E+03
 -7.50602E+03 -2.16516E+03 -3.22182E+03 -7.50497E+02 -1.16134E+04 -1.11531E+04  1.45982E+03 -9.40615E+03
  6.09392E+03 -8.26374E+03  6.13425E+03 -3.19698E+03  8.56835E+03  2.67808E+03  7.54489E+03  6.93735E+03
  2.81075E+03  8.11843E+03  7.80941E+02  1.34549E+04 -8.55001E+03  1.04617E+02 -6.64640E+03  6.48765E+01
 -4.57579E+03  1.31003E+03 -6.48871E+01  4.65595E+03 -4.76202E+03 -2.71292E+03 -4.70537E+03 -1.04587E+03
 -3.68728E+03 -7.34884E+03 -5.46407E+03 -5.65918E+03  4.76894E+03 -1.35514E+04  5.97427E+03 -3.54058E+03
  1.03136E+04  2.13649E+03  1.61205E+03  9.54920E+02 -6.23694E+03  8.08980E+03 -7.83048E+03  7.74980E+03
