 $NMID ID='MM_0lb_SNR50_17hz_g40_29.RAW', FMTDAT='(8E13.5)'
 TRAMP=1., VOLUME=1. $END
  3.13565E+05 -2.71559E+03  3.40242E+05  2.48868E+05  8.58295E+04  3.30309E+05 -1.31457E+05  2.49831E+05
 -1.85783E+05  8.23959E+04 -1.08951E+05 -3.36830E+04  3.79744E+03 -4.81966E+04  5.15420E+04  4.29687E+03
  3.97807E+04  5.23523E+04 -1.72561E+04  7.08561E+04 -6.29517E+04  6.56207E+04 -8.35926E+04  3.01741E+04
 -8.12089E+04 -1.07296E+04 -5.92723E+04 -4.98788E+04 -1.16140E+04 -6.73985E+04  2.71010E+04 -5.03231E+04
  3.88936E+04  4.78389E+03  1.79836E+04  4.31237E+04 -3.44753E+04  4.41260E+04 -6.65337E+04 -2.74248E+03
 -5.33766E+04 -5.50387E+04 -1.12760E+04 -7.62838E+04  3.21598E+04 -5.31038E+04  4.94088E+04 -1.88236E+04
  4.27631E+04  1.52469E+04  3.23251E+04  2.07589E+04  1.37734E+04  2.89889E+04 -3.52340E+03  2.66296E+04
 -2.27959E+04  1.32626E+04 -2.10998E+04 -1.16053E+03  5.58071E+03 -5.26681E+03  2.02831E+04  1.07212E+04
  3.66931E+03  3.31345E+04 -3.04543E+04  3.47139E+04 -6.46166E+04  3.40941E+03 -5.60780E+04 -4.02639E+04
 -1.57929E+04 -6.39352E+04  4.02074E+04 -4.33969E+04  5.31382E+04  1.63018E+02  3.54330E+04  2.94591E+04
 -1.13013E+04  3.04374E+04 -3.09688E+04  1.51886E+04 -2.39392E+04 -6.02176E+03 -1.40800E+04 -1.30116E+04
 -7.12626E+03 -9.50407E+03 -2.54027E+03 -1.59498E+04  2.84236E+03 -2.04312E+04  1.27675E+04 -9.92455E+03
  1.41920E+04  1.47705E+03 -7.19286E+03  1.33188E+04 -1.81261E+04 -8.11733E+02 -6.94276E+03 -2.94019E+04
  1.91922E+04 -4.09917E+04  4.47567E+04 -2.02710E+04  4.18838E+04  2.04912E+04  1.39267E+04  4.14001E+04
 -1.54466E+04  3.05932E+04 -2.37176E+04 -2.00771E+03 -1.05771E+04 -2.57176E+04  2.12694E+04 -3.29052E+04
  4.31333E+04 -9.86500E+03  3.10596E+04  2.34390E+04  1.31213E+04  4.21721E+04 -4.92890E+03  4.39536E+04
 -2.89819E+04  3.03450E+04 -3.75889E+04  9.13435E+03 -4.40903E+04 -1.73306E+04 -1.92854E+04 -3.07501E+04
  7.56774E+03 -3.31820E+04  3.17374E+04 -1.54040E+04  3.38147E+04  1.11266E+04  6.98050E+03  1.97706E+04
 -1.36600E+04  6.54738E+03 -5.67608E+03 -1.10887E+04  3.44347E+03 -1.31044E+04  1.96538E+04  2.12873E+03
  8.27062E+03  2.44105E+04 -5.26609E+03  2.49029E+04 -1.97573E+04  9.65846E+03 -2.20313E+04 -7.57861E+03
 -2.00998E+04 -1.95717E+04 -8.07944E+03 -2.26740E+04  1.66423E+02 -1.61457E+04  1.43144E+04 -1.39365E+04
  2.23296E+04 -1.43467E+04  2.81738E+04  1.81612E+02  2.44999E+04  1.68717E+04  1.70499E+03  2.89807E+04
 -1.59176E+04  2.79049E+04 -2.27699E+04  7.83405E+03 -2.13123E+04 -9.04712E+03 -2.87134E+03 -1.53548E+04
  2.62706E+03 -2.15035E+02 -1.02355E+03  1.41166E+03 -1.54301E+04  7.69702E+03 -1.19724E+04 -6.45031E+03
 -1.05286E+04 -1.34096E+04 -3.80934E+02 -1.83221E+04  9.48610E+03 -1.29540E+04  1.54647E+04  2.65769E+03
  1.03340E+04  9.37648E+03 -8.54757E+01  1.91289E+04 -1.12828E+04  1.19235E+04 -1.32433E+04 -5.49997E+03
 -1.27134E+04 -1.46265E+04 -2.11863E+03 -2.02004E+04  7.89955E+03 -1.29097E+04  1.72836E+04 -6.79510E+03
  1.43107E+04 -2.79230E+02  9.03831E+03  3.26571E+03  5.82244E+03  1.72589E+03  6.80241E+03 -3.15205E+02
  1.33090E+04  4.08982E+03  1.89609E+04  1.24383E+04  1.29272E+04  2.91409E+04 -4.25903E+03  3.19641E+04
 -1.68394E+04  2.20117E+04 -2.77187E+04  1.08623E+04 -2.56692E+04  8.26432E+02 -2.12186E+04 -1.39435E+04
 -1.02681E+04 -2.34239E+04  6.51477E+03 -2.19444E+04  2.06823E+04 -1.67332E+04  1.60556E+04  2.30275E+03
  8.74583E+03  1.46082E+04 -9.24231E+03  8.66394E+03 -1.36768E+04  4.31997E+03 -9.00394E+03 -1.14953E+04
 -1.95590E+03 -1.45152E+04  7.97640E+03 -1.07674E+04  5.35704E+03 -1.31957E+03 -7.07242E+02  1.92690E+02
 -9.73345E+03  2.54827E+03 -2.51569E+03 -6.65312E+03  3.31545E+01 -1.08741E+04  5.43618E+03 -1.42819E+04
  1.41516E+04 -1.15286E+04  1.07784E+04  7.56500E+02  1.69415E+04  1.00153E+04  9.99038E+03  1.15752E+04
  3.58335E+02  1.35817E+04 -9.77393E+03  1.05778E+04 -1.61299E+04  6.95649E+02 -9.34068E+03  4.62103E+02
 -6.20503E+02 -5.33367E+03 -1.82492E+03  2.97860E+03 -1.89752E+03  6.68847E+03 -2.58421E+03  2.67856E+03
 -6.13438E+03 -3.51192E+03 -1.08980E+04 -8.82018E+03 -2.53720E+03 -1.35208E+04  2.69002E+03 -5.42228E+03
  7.50978E+03 -2.71033E+03  5.39389E+03  5.87240E+03 -2.07603E+02  5.10702E+03 -4.22763E+03  3.08221E+03
 -5.61234E+03 -2.19035E+03  1.81605E+03 -4.49268E+03  4.43727E+02 -8.67903E+03  1.35759E+04 -2.51156E+03
  1.33159E+04 -2.01330E+03  4.68925E+03  9.22824E+03  2.00458E+03  8.32722E+03 -5.07271E+03  1.18929E+04
 -7.35057E+03  2.08067E+03 -3.41435E+03  3.88710E+01  3.34385E+02 -1.91753E+03  2.88116E+03 -1.69224E+03
  7.54899E+03  8.52816E+03 -2.14809E+03  5.37338E+03 -9.99765E+03  6.72393E+03 -8.29538E+03  3.12702E+03
 -5.75205E+03 -7.32483E+03 -1.66054E+02 -8.22374E+03 -4.89614E+02 -5.39987E+02  4.88008E+03 -2.31208E+03
  1.12968E+03  4.73455E+03 -2.83186E+03  4.48542E+03 -2.60522E+03  3.70142E+03 -4.58974E+03 -2.57717E+03
 -4.17101E+03 -1.89403E+03 -2.25216E+03 -7.84410E+03  4.51260E+03 -4.20043E+02  8.42046E+03  1.04011E+03
  7.26295E+03  6.31528E+03  2.04398E+02  9.42937E+03 -7.46421E+03  3.56056E+03 -1.16503E+04  2.97446E+03
 -6.98775E+03 -4.87178E+03  2.22321E+03 -7.15111E+03  3.25597E+03 -5.96251E+03  2.30778E+03 -1.67644E+03
  3.23958E+03 -2.31905E+03  2.06037E+03  2.77901E+03 -1.14443E+03  2.50229E+03 -3.68959E+02 -8.67904E+02
  9.51888E+03 -3.37799E+03  1.80343E+03  3.05083E+03  5.42936E+03  2.04714E+03 -1.53878E+03  4.03780E+03
 -3.41038E+03  1.06189E+04 -1.09988E+04  9.24454E+03 -1.10094E+04  2.08162E+03 -9.48430E+03 -6.22643E+03
 -6.70048E+03 -5.24648E+03  1.62183E+03 -2.91876E+03  1.54339E+03 -3.38755E+03  1.28399E+03 -3.76089E+03
  6.64338E+03 -1.66655E+03  1.12569E+03 -2.49894E+03  8.62822E+03 -1.36145E+03  2.73611E+03  2.70674E+03
  8.19661E+03 -1.96088E+03  1.69874E+03  2.11640E+03 -2.80818E+03  2.94263E+03 -3.53756E+03  1.55274E+03
 -7.11183E+03  1.31469E+03  4.16405E+02 -4.80061E+03 -9.33631E+02 -8.81711E+03  6.37848E+03 -3.97156E+03
  8.87529E+03 -3.48320E+03  9.85264E+03 -1.94974E+03  6.42797E+03  3.97687E+03  4.91130E+03  7.40758E+03
 -5.16058E+03  5.60794E+03 -1.85895E+03  4.51479E+03 -3.61054E+03 -4.72666E+03 -3.16240E+03 -1.22711E+03
 -2.91528E+03 -1.25865E+03 -2.96017E+03  4.39308E+03 -7.83037E+03  7.32064E+02 -3.16349E+03 -5.06246E+03
 -5.75202E+03 -5.31674E+03  4.22827E+03 -6.57840E+03  6.14114E+03 -6.54710E+03  5.86333E+03 -7.44945E+02
  4.10323E+03  5.26554E+03  2.88417E+03  7.42670E+03  1.26638E+03  6.89198E+03 -1.54955E+03  1.59471E+03
 -8.45418E+03  8.32722E+02 -4.39775E+03 -4.58690E+02  3.60701E+02 -8.18847E+03  2.47293E+03 -3.15684E+03
  2.38663E+03  1.70896E+03  3.75852E+03  1.31070E+03 -2.42675E+03  5.24202E+03 -1.95331E+02 -4.83237E+03
  6.87069E+02  5.06960E+02 -2.31312E+03 -4.38278E+03  1.05504E+03 -3.08477E+03  3.55636E+03  1.21356E+03
 -4.81591E+03  6.01928E+03 -4.49053E+03  4.84442E+03 -4.31342E+03  1.29907E+03 -6.42952E+03 -3.81200E+03
 -4.04048E+02 -4.41345E+03 -5.00867E+03 -1.38525E+03  3.38577E+03 -2.92866E+03  2.61348E+03 -2.23239E+03
  3.68356E+03  1.64037E+03 -2.53952E+03 -2.05274E+03 -8.84233E+01  1.81616E+03 -8.04824E+03  7.97798E+02
 -5.94318E+02 -2.03621E+03 -9.73817E+02  2.32889E+03 -1.57904E+02 -2.32192E+03  6.04212E+03 -1.43114E+03
  7.21432E+02  8.36058E+02 -8.32127E+02 -3.10178E+03 -2.46832E+03 -2.36526E+02  4.32463E+02 -1.86493E+03
 -3.77092E+03  5.39062E+01  1.14380E+03 -5.43194E+02  4.91788E+02  3.45683E+03 -2.62502E+03  6.17642E+03
 -4.10053E+03  5.59803E+02 -4.20337E+03  1.01277E+03 -1.76978E+02 -1.07410E+03  9.02837E+02 -3.13737E+03
  9.05447E+02  2.50189E+03  9.72294E+02  2.11510E+03  5.21473E+02  5.86772E+02 -1.65463E+03  4.09449E+02
 -2.65718E+03 -1.41102E+03  1.04295E+03 -3.01203E+03 -1.82139E+03 -1.61438E+03 -5.14473E+02 -6.13655E+03
  2.85338E+03 -9.98398E+02 -7.06959E+02  3.43086E+03  2.50964E+03  1.41834E+03 -3.19968E+03  2.56709E+03
 -3.41628E+03 -1.23924E+03 -4.67105E+03 -4.07436E+02 -1.39498E+03 -3.69310E+03  2.09756E+03 -6.06382E+03
  1.10868E+03 -4.21243E+02  1.97671E+03  2.38654E+03 -8.78965E+00  4.24414E+03 -3.59964E+03 -3.93341E+03
 -2.47772E+03 -7.76530E+02 -4.05883E+02  5.85657E+02 -5.76214E+01 -3.74526E+02  3.51475E+03 -1.60969E+02
  1.36779E+03 -1.45067E+03  4.84366E+03  8.44852E+02  5.22067E+03  5.92328E+03  2.96114E+03 -1.77965E+03
  1.79645E+03 -1.81919E+03 -6.41992E+02 -1.35913E+03  4.73716E+03  1.30273E+03 -4.85360E+03  4.08481E+02
 -1.52492E+03  2.99787E+03 -1.70863E+03 -2.07098E+03  6.82425E+02  6.45813E+02 -8.98827E+03 -6.69277E+02
 -3.71694E+02  1.85460E+03  5.03830E+03 -4.69781E+02  2.88399E+03 -4.47449E+03  4.13540E+03  1.49233E+02
  2.59897E+03  3.44714E+02 -7.98244E+02  1.29634E+03  2.07910E+03  1.87377E+03 -1.10937E+02 -2.94054E+03
 -4.42088E+03 -7.46969E+02 -1.05196E+03 -5.19804E+03  5.86632E+02 -4.19299E+02 -4.02755E+03  1.46566E+02
  3.53219E+03  4.27045E+03  7.41762E+02 -1.61598E+03  2.32621E+03 -4.17844E+02 -2.56071E+02 -2.86330E+03
  3.78829E+03 -4.43921E+03  6.51375E+03  4.02312E+03  2.65086E+03  1.26870E+02  2.34847E+03 -1.14644E+02
 -1.10404E+03  3.28565E+03 -2.27634E+03  2.93792E+03 -1.16861E+03 -2.86932E+03 -1.82266E+03 -3.45577E+03
 -6.29576E+02  1.84531E+03  1.37375E+03 -2.57563E+03 -2.77731E+03  1.83171E+03 -1.11079E+03 -5.47336E+03
 -7.24610E+02  3.98783E+03  1.95422E+02  1.34997E+03 -3.02563E+03  3.75914E+03  4.53139E+02  3.14626E+03
 -2.26822E+03 -1.20577E+03 -7.31099E+02  3.57996E+01  1.00367E+03  3.33304E+03 -1.35103E+03 -1.23256E+01
  4.61200E+03 -9.88395E+02  4.39954E+03  1.74885E+03  4.80915E+02  2.61889E+03  1.19534E+03 -4.09342E+03
 -4.01750E+02  2.32825E+02 -2.88520E+03  1.26136E+03  1.71331E+03 -4.49542E+03  5.96702E+03  2.08637E+03
 -5.70557E+00 -8.84847E+02 -1.09491E+03  7.78989E+02 -1.00450E+03  3.89205E+03 -9.70550E+02 -1.71999E+03
  2.59647E+03  1.30851E+03 -2.97003E+03 -1.04744E+03 -1.23293E+03  3.36944E+03  1.45318E+03  1.01734E+03
  7.09549E+02 -1.61827E+03  4.45814E+02  3.65908E+02 -3.09403E+03 -2.52590E+03  2.52412E+03  1.84379E+03
 -6.50973E+02 -1.34815E+03 -2.57342E+02  5.44064E+03 -1.95410E+03 -5.46656E+02 -1.51126E+03  1.47987E+03
