 $NMID ID='MM_0lb_SNR50_18hz_g60_73.RAW', FMTDAT='(8E13.5)'
 TRAMP=1., VOLUME=1. $END
  3.08221E+05 -4.86552E+03  3.40059E+05  2.51311E+05  8.41721E+04  3.39418E+05 -1.30445E+05  2.50137E+05
 -1.88531E+05  8.53533E+04 -1.12016E+05 -3.41198E+04  1.16913E+02 -5.19276E+04  5.73888E+04 -3.82359E+02
  3.30391E+04  5.12369E+04 -1.41723E+04  7.78142E+04 -5.91542E+04  6.03438E+04 -8.13249E+04  3.60564E+04
 -8.30741E+04 -1.11184E+04 -6.18966E+04 -4.76392E+04 -1.50983E+04 -6.95120E+04  2.53577E+04 -4.69964E+04
  4.36686E+04  1.16573E+03  1.26163E+04  4.68051E+04 -2.94893E+04  5.04089E+04 -6.55481E+04  1.24040E+03
 -5.41550E+04 -6.13542E+04 -5.05422E+03 -7.88807E+04  3.31509E+04 -5.10331E+04  4.79021E+04 -1.31448E+04
  4.32088E+04  1.16220E+04  3.23369E+04  2.43866E+04  1.43230E+04  2.73372E+04 -2.31070E+03  2.39334E+04
 -2.26076E+04  1.00168E+04 -2.10508E+04 -4.50243E+03  5.63247E+03 -9.07014E+03  2.56841E+04  1.03638E+04
  2.03973E+03  3.60329E+04 -3.01125E+04  3.84936E+04 -6.36560E+04  4.02428E+02 -6.19435E+04 -4.40148E+04
 -1.07617E+04 -6.23825E+04  3.97387E+04 -4.52371E+04  5.79682E+04 -2.99762E+03  3.52936E+04  3.44700E+04
 -8.28800E+03  3.89335E+04 -3.06727E+04  1.39230E+04 -2.70809E+04 -5.63714E+03 -1.97314E+04 -5.48942E+03
 -9.00280E+03 -1.36457E+04 -5.57317E+01 -1.80650E+04  9.04043E+03 -2.33590E+04  1.71344E+04 -1.20176E+04
  1.39118E+04  1.99476E+03 -1.42341E+03  1.18663E+04 -2.03364E+04 -5.32439E+03 -1.06143E+04 -3.18977E+04
  2.47313E+04 -3.99036E+04  4.59879E+04 -1.98761E+04  4.37868E+04  1.77993E+04  1.24757E+04  4.36947E+04
 -1.97890E+04  3.69633E+04 -2.89757E+04  1.87703E+03 -1.05162E+04 -2.87138E+04  1.67221E+04 -3.45983E+04
  3.51996E+04 -8.91040E+03  3.47987E+04  2.38301E+04  2.01380E+04  4.56691E+04 -6.87525E+03  4.94992E+04
 -2.82283E+04  3.50978E+04 -3.72436E+04  1.27054E+04 -4.16202E+04 -1.31322E+04 -2.20970E+04 -3.36639E+04
  1.12544E+04 -3.63964E+04  3.13667E+04 -1.53440E+04  2.53794E+04  9.69731E+03  4.20947E+03  1.89258E+04
 -8.59605E+03  8.46858E+03 -9.97421E+03 -4.09554E+03  7.60092E+03 -4.17292E+03  1.62933E+04  8.89091E+03
  1.13438E+04  2.60744E+04 -7.33152E+03  2.55168E+04 -2.43356E+04  1.11541E+04 -2.35499E+04  1.37548E+03
 -2.04254E+04 -1.46088E+04 -1.07507E+04 -2.11521E+04  3.82562E+03 -1.72811E+04  1.79087E+04 -1.67181E+04
  2.29605E+04 -1.13633E+04  3.17935E+04  6.94523E+02  2.37161E+04  1.99680E+04  6.33182E+03  3.83859E+04
 -1.50476E+04  2.56340E+04 -2.48250E+04  8.20270E+03 -1.95077E+04 -7.64622E+03 -6.64454E+03 -1.58230E+04
  5.96590E+03 -5.66513E+03 -4.54970E+03  1.26873E+04 -1.28213E+04  7.15819E+03 -1.71092E+04 -7.38424E+03
 -1.03131E+04 -1.82494E+04  5.79916E+03 -2.34267E+04  1.40374E+04 -1.82146E+04  1.57878E+04  5.33398E+02
  9.61096E+03  1.29733E+04 -6.84222E+02  1.54163E+04 -1.27901E+04  1.04923E+04 -1.95205E+04 -3.62410E+03
 -1.13811E+04 -1.80864E+04 -1.65599E+03 -2.40691E+04  1.49266E+04 -1.45271E+04  2.28728E+04 -8.41651E+03
  1.68600E+04  4.94916E+03  1.29751E+04  2.74626E+03  7.17552E+03 -1.21222E+03  7.17638E+03  3.37703E+03
  1.37873E+04  2.14391E+03  1.14801E+04  1.88564E+04  7.35172E+03  2.42633E+04 -1.72965E+03  2.98028E+04
 -1.94717E+04  2.53894E+04 -2.36561E+04  9.72604E+03 -3.27128E+04 -2.61945E+03 -2.40180E+04 -1.61795E+04
 -7.36939E+03 -2.22789E+04  4.46907E+03 -2.13559E+04  1.48368E+04 -1.19517E+04  1.48954E+04  7.87453E+03
  9.14671E+03  1.43246E+04 -8.98797E+03  1.11925E+04 -1.40630E+04  4.00295E+03 -8.04196E+03 -9.44014E+03
  7.89765E+02 -1.07589E+04  1.09802E+04 -1.37573E+04  8.47089E+03 -3.93959E+03  7.89626E+02  7.86346E+03
 -5.98542E+03  4.58513E+03 -8.14726E+03 -5.15288E+03 -2.61180E+03 -1.04480E+04  7.01589E+03 -5.15758E+03
  1.71146E+04 -1.00063E+04  1.42703E+04  2.94935E+03  1.32714E+04  1.23851E+04  6.71231E+03  1.88629E+04
 -5.40920E+02  1.64006E+04 -9.61917E+03  1.36995E+04 -1.22066E+04  5.07891E+03 -1.09520E+04 -3.37791E+03
 -3.44337E+03 -6.68567E+03  1.99927E+03  3.04335E+03 -4.97151E+02  6.96302E+02 -6.55529E+03  7.57484E+03
 -8.30467E+03 -1.31711E+03 -9.90906E+03 -8.51060E+03  3.51750E+01 -1.30913E+04  5.73233E+03 -7.24183E+03
  1.12064E+04 -5.52778E+02  7.93426E+03  4.55919E+03  1.92376E+03  5.01032E+03 -4.61785E+03 -4.86976E+03
 -3.63905E+03 -7.65855E+03 -1.56671E+03 -8.96699E+03 -1.41901E+03 -1.11671E+04  4.87630E+03 -4.74149E+03
  8.42157E+03  3.52485E+03  1.01144E+04  8.25051E+03  2.33581E+03  1.22484E+04 -6.63244E+03  1.14579E+04
 -4.35004E+03  2.33484E+03 -3.22847E+03 -2.57900E+03  1.57930E+03 -3.01691E+03  4.37617E+03 -3.61204E+03
  3.92767E+03  2.20185E+03  4.63215E+03  3.01843E+03 -5.33795E+03  1.02373E+04 -8.65983E+03  6.34710E+03
 -6.64534E+03 -4.41829E+03  1.53531E+03 -4.04606E+03  6.79750E+03 -3.27012E+03  4.79624E+03  2.56754E+03
  2.05713E+03  1.31377E+03 -6.06254E+03  3.62096E+03 -5.01524E+03  1.10713E+03 -5.31046E+03 -3.87558E+02
 -4.50650E+03 -5.69476E+03 -4.17328E+02 -9.99556E+03  6.71731E+03 -5.27999E+03  6.18292E+03  2.06514E+03
  2.75579E+03  6.07985E+03 -2.94402E+03  7.41197E+03 -8.55908E+03  4.18137E+03 -5.78174E+03 -5.20176E+01
 -8.24770E+03 -6.61745E+03  3.00732E+03 -5.91314E+03  1.91893E+03 -6.68581E+03  4.05695E+03 -3.75297E+03
  4.80282E+03  4.52099E+02  2.35807E+03  2.75530E+03 -1.62588E+03 -2.67536E+02 -1.23251E+03 -3.81111E+02
  6.09572E+03 -7.15651E+03  5.69683E+03  8.91456E+02  9.64007E+03  1.47740E+03  6.06138E+03  8.53065E+03
 -2.18326E+03  7.08195E+03 -5.77031E+03  7.02382E+03 -1.22460E+04  3.06413E+03 -9.94515E+03 -4.38800E+03
 -8.80243E+03 -4.16547E+03 -1.54216E+02 -1.03802E+04  1.03253E+03 -4.32399E+03  5.88609E+03 -1.86134E+03
  9.17681E+02 -2.40740E+03  4.36338E+03 -1.57477E+03  4.59890E+03 -4.86243E+03  2.80972E+03 -4.18395E+02
  6.16287E+03  2.85130E+03  1.24035E+03  4.53711E+03 -4.06709E+03  2.73907E+03 -1.09621E+04  1.58600E+03
 -5.51693E+03  1.13589E+03 -3.90015E+03 -4.04329E+03 -4.47526E+01 -3.24047E+03  1.61325E+03 -1.80052E+03
  4.21073E+03 -2.27507E+03  1.07191E+04  1.89240E+03  6.30553E+03  7.10056E+03 -1.54100E+03  1.00568E+04
 -3.26886E+03  6.52979E+03 -2.17751E+03  3.97754E+03  3.19225E+02  2.12929E+03  3.88438E+02  1.03787E+01
 -1.85227E+03 -3.63163E+03 -2.09937E+03  2.18141E+03 -2.26311E+03 -1.82542E+03 -3.47243E+03 -2.67477E+03
 -1.73976E+03 -1.07659E+03  1.94735E+03 -3.30733E+03  3.09899E+03 -4.76074E+03 -7.92508E+01 -2.40946E+03
 -1.75097E+03  5.18904E+03  5.54005E+03  5.67080E+03  1.26341E+02  2.86713E+03 -2.54045E+03  1.45434E+03
 -4.64353E+03  3.82712E+02 -2.94496E+03 -3.18302E+03 -2.01606E+03 -4.71680E+03  9.62033E+01 -1.27545E+03
  3.26643E+03 -2.46105E+03  3.75269E+03 -2.76544E+03 -2.29898E+03  2.61095E+02  3.44215E+03  6.96710E+02
 -9.38492E+02 -2.25679E+03 -7.23907E+02  2.02452E+03  3.84614E+03  9.70405E+02  4.06688E+03  7.61644E+02
  1.10910E+03  2.46109E+03  5.71160E+02  6.69687E+03 -7.05197E+03  3.61576E+03 -5.55307E+03 -1.66206E+02
 -6.89591E+03 -9.28688E+03 -1.37196E+03 -4.08142E+03  2.64233E+03 -1.80635E+03  2.27059E+03 -1.77646E+03
  1.56202E+03  2.71433E+03  2.12572E+03  4.03867E+03 -3.07913E+02  3.67780E+03 -3.73045E+03  5.85883E+02
 -3.57852E+03 -2.69472E+03 -1.78707E+03 -2.78061E+03 -2.18670E+03 -4.42299E+02  6.66491E+03  5.74498E+02
  1.70284E+03  1.93320E+02 -1.05535E+03 -1.02902E+03 -5.45289E+02 -1.72224E+03 -6.68897E+02  9.05342E+02
 -5.45257E+02  1.82641E+03  2.26078E+03  2.54409E+02 -2.37961E+03 -1.57579E+03 -1.99993E+03  5.09503E+03
 -1.71256E+03  4.12338E+03 -1.38713E+03 -2.40110E+02 -5.03909E+03  9.03259E+02  3.90163E+03 -1.08176E+03
  2.96824E+03 -1.71541E+03  1.06395E+02 -3.12608E+03  1.52737E+03 -4.11939E+03 -2.37086E+03 -8.85828E+02
 -1.06092E+03  4.40672E+02 -5.48980E+03  3.29649E+03 -1.28084E+03 -2.73125E+03  2.14258E+03 -3.40301E+02
  4.38239E+03  2.82415E+02 -2.37642E+03  3.40162E+03 -1.22806E+03 -3.04310E+03  2.58183E+02  2.27736E+03
  9.71865E+02  3.96967E+02 -7.70567E+02 -1.07816E+02  5.40075E+03 -1.53925E+03  4.23551E+03 -3.31133E+03
 -1.06879E+03  3.82523E+02  8.31340E+03  2.39048E+03  1.22665E+03  1.34217E+03 -2.20782E+03  2.96069E+03
  4.59824E+03  1.44796E+03 -1.16903E+03 -2.53081E+02 -3.58797E+02  3.02219E+03 -2.58691E+02 -1.12301E+03
  5.32789E+03 -3.07364E+03 -3.77711E+03  1.09958E+03 -7.81759E+02  4.91214E+02  2.71155E+03  1.36223E+03
 -2.86571E+03  1.39314E+03 -8.60562E+02 -2.54967E+03 -4.58516E+03 -2.20765E+03 -1.94680E+03 -1.26374E+03
 -5.99517E+03  7.62774E+03  2.36770E+03  4.54278E+03  3.48745E+03 -4.45272E+03 -6.90155E+03 -1.08647E+03
 -2.69641E+03 -2.85616E+03  1.16146E+03 -2.52941E+03  6.97570E+02  4.31532E+02 -2.10514E+03 -2.28511E+03
  4.10286E+02 -2.48735E+03 -2.04102E+03  2.55127E+03  4.90702E+01  1.12081E+03  2.69127E+02  1.70093E+03
 -1.08385E+03  1.00514E+03 -1.23593E+03  3.46366E+03 -3.15968E+02  5.44175E+03 -1.67999E+03  1.73105E+03
  1.76677E+03  5.71440E+02  9.47045E+02  3.35158E+03 -2.83708E+03  2.39622E+03 -5.60494E+02  1.02325E+03
 -3.51029E+02 -5.60601E+02  1.57402E+03 -1.36458E+03 -1.26660E+03  4.80859E+02  4.74937E+03  1.25916E+03
 -4.55231E+03  2.71982E+03 -4.54758E+03 -4.40886E+02 -2.01333E+03  3.21555E+03  1.21926E+03 -4.36449E+03
 -2.95320E+03 -8.83845E+02 -2.21250E+02 -2.89042E+03  4.83389E+01  2.31487E+03  1.28961E+03  2.28221E+03
 -1.14543E+03 -1.41699E+03 -3.44222E+03  5.23973E+03  2.96255E+03 -1.56267E+02  4.95124E+03 -2.30950E+02
 -4.73981E+03  1.99910E+03  1.19603E+03  6.09534E+02  1.84839E+03  1.75915E+03 -1.06231E+03 -3.06694E+03
  2.79637E+03  3.42339E+03 -2.37892E+03 -2.02684E+03 -6.10969E+02 -8.55208E+02  8.57562E+02 -4.20075E+03
 -6.46371E+03 -2.97094E+03  2.42242E+03  1.16855E+03 -2.38667E+01  1.43301E+03  4.62018E+03  1.46925E+03
  2.44086E+01  1.07498E+03 -1.20157E+03  2.88169E+03 -5.14635E+02  2.84784E+03 -1.86389E+03  5.55406E+02
 -2.28627E+02 -1.27473E+03 -1.26403E+03  5.02334E+03 -1.25327E+03  2.18849E+03  1.32905E+02 -2.28598E+03
  1.04985E+03 -1.57893E+03 -2.72607E+02 -5.44353E+03  1.08821E+03  1.02950E+03  3.94164E+03 -3.75986E+02
 -7.18203E+01  2.02579E+03 -3.12028E+03  3.27551E+03 -4.25617E+02  2.87756E+02 -3.89771E+03  2.00194E+03
