 $NMID ID='MM_0lb_SNR50_18hz_g40_55.RAW', FMTDAT='(8E13.5)'
 TRAMP=1., VOLUME=1. $END
  3.03823E+05 -4.44093E+03  3.33827E+05  2.52546E+05  8.06725E+04  3.36645E+05 -1.37059E+05  2.47853E+05
 -1.88493E+05  8.35461E+04 -1.11137E+05 -2.99697E+04  2.84314E+02 -5.47807E+04  5.62653E+04 -3.24024E+03
  3.49798E+04  5.36940E+04 -1.75555E+04  7.48040E+04 -6.09419E+04  6.39915E+04 -8.22235E+04  3.04916E+04
 -7.66658E+04 -7.83252E+03 -5.49492E+04 -4.62409E+04 -1.41888E+04 -6.71529E+04  2.30735E+04 -4.86235E+04
  4.34674E+04  4.11163E+03  1.23904E+04  4.63089E+04 -3.41521E+04  4.67790E+04 -6.29246E+04 -2.78665E+03
 -5.10752E+04 -5.20170E+04 -5.57060E+03 -7.85607E+04  3.39904E+04 -5.41958E+04  4.99614E+04 -1.59719E+04
  4.39497E+04  1.23453E+04  3.09751E+04  2.54400E+04  1.94060E+04  2.64280E+04 -7.16123E+03  2.64950E+04
 -1.95591E+04  1.05305E+04 -2.18467E+04 -2.81119E+03  4.20773E+03 -8.44715E+03  2.25886E+04  9.70650E+03
  7.28729E+03  3.18160E+04 -3.03128E+04  3.09096E+04 -5.94904E+04 -2.14902E+03 -5.38062E+04 -3.90182E+04
 -7.43336E+03 -6.10202E+04  3.55305E+04 -4.13376E+04  5.29953E+04 -3.97874E+03  3.17163E+04  3.18937E+04
 -1.08610E+04  3.52143E+04 -2.76986E+04  1.08111E+04 -2.65817E+04 -5.12791E+03 -9.13197E+03 -8.69936E+03
 -4.42954E+03 -1.02228E+04 -2.33957E+03 -1.75237E+04  1.26857E+04 -2.52634E+04  1.28095E+04 -1.67608E+04
  9.67339E+03  3.13394E+03 -3.15661E+03  1.18395E+04 -1.81859E+04  1.01839E+02 -1.08340E+04 -2.91498E+04
  2.12515E+04 -3.66181E+04  4.63240E+04 -1.63076E+04  4.16195E+04  1.60046E+04  1.47522E+04  4.19438E+04
 -1.29485E+04  2.86333E+04 -2.25151E+04 -1.86817E+03 -1.17135E+04 -2.36188E+04  1.79317E+04 -2.81381E+04
  3.78898E+04 -6.82444E+03  2.90959E+04  2.06868E+04  1.38338E+04  3.99801E+04 -1.54727E+03  4.35663E+04
 -2.79423E+04  2.83863E+04 -3.66725E+04  8.00865E+03 -3.87111E+04 -1.42380E+04 -2.28444E+04 -3.72261E+04
  5.31139E+03 -3.29817E+04  2.90831E+04 -8.34748E+03  2.55669E+04  3.47127E+03  3.04187E+03  1.62148E+04
 -1.18198E+04  4.95841E+03 -1.06896E+04 -9.43433E+03  7.67264E+03 -8.39807E+03  1.84852E+04  2.43818E+03
  1.16000E+04  2.72851E+04 -6.22642E+03  1.94601E+04 -2.14515E+04  9.77400E+03 -1.81581E+04 -6.34990E+03
 -1.25987E+04 -1.21017E+04 -6.29349E+03 -1.52747E+04  2.63839E+03 -1.62766E+04  9.62465E+03 -1.30011E+04
  2.12562E+04 -1.28834E+04  3.16691E+04 -9.22651E+02  2.03826E+04  1.62189E+04  6.16478E+03  3.13430E+04
 -1.31160E+04  2.53482E+04 -2.21666E+04  8.52056E+03 -1.95712E+04 -1.36070E+04 -5.88003E+03 -2.01282E+04
  1.57050E+03 -5.73362E+03 -2.82656E+02  2.73435E+03 -1.18218E+04  4.02836E+03 -1.09060E+04 -3.80939E+03
 -7.87646E+03 -1.67723E+04  3.69627E+03 -2.02222E+04  1.23387E+04 -1.08937E+04  1.04197E+04 -1.79585E+03
  6.91287E+03  1.14397E+04 -1.80174E+03  1.88130E+04 -7.19195E+03  7.57498E+03 -1.64140E+04 -6.07577E+03
 -8.10661E+03 -1.60190E+04  1.91072E+03 -1.63082E+04  9.50168E+03 -1.53235E+04  1.73497E+04 -5.70893E+03
  1.50874E+04  5.89939E+02  4.10442E+03  6.44941E+03  5.13310E+03  3.83872E+03  8.07778E+03  8.36014E+02
  1.37554E+04  4.09495E+03  1.52986E+04  1.54400E+04  1.28517E+04  2.15078E+04 -7.58849E+03  2.47033E+04
 -1.57750E+04  2.02063E+04 -2.45128E+04  1.14772E+04 -2.21209E+04 -5.48304E+03 -1.96214E+04 -1.56134E+04
 -5.90348E+03 -1.81405E+04  4.48550E+03 -1.63114E+04  1.60102E+04 -7.92113E+03  1.79606E+04  1.05384E+04
  7.60029E+03  1.24624E+04 -2.50811E+03  1.74484E+04 -1.50378E+04  7.38627E+02 -1.32141E+04 -6.43069E+03
 -1.84973E+03 -9.96202E+03  5.59400E+03 -1.02001E+04  7.97399E+03 -6.43744E+03  2.69466E+03  7.10028E+03
 -4.39092E+03  5.08258E+03 -4.63081E+03 -4.82420E+03  1.18511E+03 -1.49520E+04  1.30348E+04 -1.02373E+04
  1.38223E+04 -4.53737E+02  9.28968E+03  2.97904E+03  9.61114E+03  9.84132E+03  6.13858E+03  1.46621E+04
 -3.31276E+03  1.86798E+04 -1.02358E+04  7.02886E+03 -8.56769E+03  4.98579E+03 -6.40406E+03 -3.08623E+03
 -1.68622E+03 -6.06912E+02  1.46230E+03  3.65287E+03 -6.83844E+02  3.96854E+03  3.13108E+03  7.25464E+03
 -8.87675E+03 -1.38612E+03 -9.05648E+03 -1.78473E+03 -9.64444E+02 -1.14195E+04  3.01382E+03 -8.40775E+03
  3.65979E+03 -3.10067E+03  8.10354E+03  4.34595E+02 -1.61952E+03  7.23465E+03 -7.19160E+02  2.76216E+03
 -3.41757E+03 -8.61897E+03  1.41735E+03 -6.15070E+03  3.13595E+03 -1.00509E+04  6.63378E+03 -5.29155E+03
  1.04193E+04  6.23394E+03  1.24279E+04  6.07611E+03 -1.27018E+03  1.28196E+04 -2.74607E+03  2.64767E+03
 -4.26730E+03 -2.27337E+02 -6.07319E+03 -3.53222E+03  4.90066E+03  8.79366E+02  1.97169E+03  3.62022E+03
  6.28396E+03  1.02140E+04  3.61144E+03  7.43845E+03 -3.06411E+03  2.72786E+03 -8.63166E+03 -7.85634E+02
 -6.55732E+03  2.28418E+02 -8.08778E+02 -3.26094E+03  2.13782E+03 -4.71618E+03  2.14082E+03  4.39228E+03
  2.78894E+03  4.83027E+03 -5.47957E+03  4.46315E+03 -2.63580E+03  2.42043E+03 -1.76201E+03 -2.83614E+03
 -7.17689E+03 -4.19639E+03  2.59585E+03 -5.28139E+03  4.88383E+03 -4.61590E+03  7.61673E+03 -3.54849E+03
  6.61961E+03  5.67504E+03  1.92260E+03  6.48263E+03 -4.79311E+03  4.49176E+03 -7.31743E+03 -1.24315E+03
 -5.52099E+03 -6.40041E+03 -2.22532E+03 -5.08017E+03  4.74951E+03 -5.97958E+03  1.90086E+03  1.32483E+03
  8.96767E+02  2.65787E+02 -1.91807E+03 -1.77422E+02  2.02066E+03 -1.28944E+03  1.07570E+03 -8.15448E+02
 -2.95696E+02 -5.77684E+02  2.19769E+03  3.20604E+03  5.82586E+03  7.23280E+02  5.54979E+03  6.62524E+03
 -1.18362E+03  1.06728E+04 -5.91966E+03  1.10591E+04 -1.21214E+04  6.86389E+03 -8.22656E+03 -5.63702E+03
 -4.89649E+03 -8.94041E+03 -4.62070E+03 -5.01698E+03  6.13237E+02 -6.01643E+03  1.81128E+03 -1.62164E+03
 -6.53829E+03 -2.20999E+03  3.77076E+03 -1.78270E+03  5.06295E+03 -5.96883E+01  4.54773E+03  1.38525E+03
  5.49899E+03 -1.77996E+03  2.32969E+03  3.48399E+03 -3.84113E+03  7.00132E+02 -9.62834E+02  3.66068E+03
 -3.60701E+03  9.51870E+01  3.13916E+03 -5.12519E+03  2.20619E+03 -3.20235E+03 -2.42010E+03 -5.62441E+03
  5.95434E+03 -2.47189E+03  8.88092E+03 -3.79542E+03  5.10919E+02  5.05405E+03 -2.97510E+02  6.53445E+03
 -4.29008E+03  6.74858E+03 -8.00480E+03  3.40611E+01 -6.80670E+02 -7.11948E+03 -5.87322E+02  2.41768E+03
 -3.84991E+03 -4.10324E+03 -8.34721E+02  2.78109E+03 -9.67881E+02  8.85337E+02 -3.76126E+03 -5.12018E+02
 -2.65800E+03 -7.76729E+03 -1.08174E+02 -4.18240E+03  7.23241E+03 -3.08698E+02  4.33112E+03 -6.04181E+02
  6.12917E+03  2.37130E+03  5.65747E+03  2.08914E+03 -1.98053E+03  6.52635E+03 -3.22526E+03  4.86272E+02
 -1.57843E+03 -1.34604E+03 -4.84470E+03 -4.55205E+03 -2.02325E+03 -3.43453E+03  6.20735E+03 -3.77425E+03
  5.61198E+03 -8.66234E+02  1.47817E+03  2.17912E+03 -4.42265E+02  4.01204E+03 -2.97037E+03  8.33758E+02
  1.45596E+03  1.53098E+03  2.23473E+02  2.00961E+03  4.08032E+03 -2.28092E+03  6.88201E+03  6.03686E+03
 -5.70841E+02  1.01414E+03  4.07242E+02  6.44869E+03 -2.44893E+03 -3.13741E+03 -6.84862E+03  1.70196E+02
  1.09693E+03 -2.75058E+03 -2.55637E+03 -4.32106E+03 -4.37156E+03 -2.34478E+03  5.99333E+03 -5.47671E+03
  4.32396E+03  1.90964E+03 -9.46860E+02  5.92171E+03 -2.38453E+02  3.17472E+03  3.63230E+03 -1.62314E+02
  2.26061E+03 -3.22066E+03  2.70877E+03  3.43060E+03 -3.56655E+03  1.75165E+02 -2.75700E+03 -4.64383E+03
  3.85751E+03  1.40181E+01  1.11150E+03  9.04162E+02  1.04538E+03 -2.97827E+02 -2.81401E+03 -9.66903E+02
  6.86728E+02  3.04211E+02  4.41385E+03 -2.86663E+03  2.17185E+03  1.69522E+03  1.21554E+03  9.73580E+02
  3.25151E+02  1.22971E+03 -2.51663E+02  7.82766E+02  3.71376E+02  1.06904E+03 -3.89577E+02  3.90582E+02
  1.00762E+03 -2.18474E+03  4.01958E+03 -1.14379E+03 -2.21984E+03  2.12804E+03  1.26740E+02 -4.93314E+02
 -2.82457E+03  2.67137E+03 -3.25599E+03  3.52346E+03 -6.83026E+02 -1.66376E+03  1.30685E+03 -2.66574E+03
  2.11602E+02 -2.03504E+03  9.34463E+02 -3.55319E+03  2.45078E+03 -3.85473E+03  4.64822E+03  1.86726E+03
 -2.52160E+03  2.68163E+03 -4.06054E+03  1.70406E+03  1.78229E+03 -8.45960E+02  2.11665E+03  1.03683E+03
  7.02366E+03 -1.30985E+03  6.26224E+03  3.29452E+02  3.47864E+02  8.91321E+02  1.01562E+02 -1.45601E+03
 -1.11702E+02 -1.63271E+02 -4.72949E+03  3.48058E+03 -2.12689E+03  7.14633E+02  2.38188E+03 -5.14892E+02
  5.31542E+03  3.50500E+03 -3.05445E+03 -1.60967E+02  1.01131E+03  1.03949E+02 -2.01979E+03  2.67536E+03
  8.69015E+02  2.83235E+03  1.05274E+03 -2.04104E+03 -6.05993E+02 -1.50754E+03 -3.41072E+02  2.88444E+03
  1.58301E+03  1.81736E+03 -3.01443E+03  3.10642E+03 -2.57272E+03  2.22012E+03 -1.88570E+03 -3.60426E+03
 -4.34238E+03 -7.47521E+03 -2.16799E+03 -2.69630E+03  4.28258E+00 -1.64857E+03 -1.92111E+03 -5.17588E+03
  2.39961E+03 -2.29442E+03 -2.50360E+03  1.88171E+03 -2.55538E+03  1.03391E+03  5.18530E+02  1.23569E+03
  2.89310E+02 -2.89303E+03  2.58509E+03  1.09575E+03 -1.11291E+03  1.69438E+01 -5.10242E+01  3.60611E+03
 -8.25550E+02 -2.39517E+03  2.81786E+03  9.18883E+02  1.07599E+02 -1.68884E+03 -2.74494E+03  2.41555E+03
  3.25360E+03  3.64760E+03  3.60602E+03  1.20216E+03  8.53766E+02  6.01648E+02 -4.90308E+02  4.48841E+03
 -6.79868E+03  2.14816E+02  3.04626E+02  3.76827E+03 -1.22732E+03 -1.98062E+03  7.10284E+02  3.76003E+03
 -4.51432E+03  6.00101E+02 -1.86486E+03 -2.89265E+03  8.42490E+02 -3.03344E+03  1.83399E+03 -7.78740E+02
  2.24921E+01  9.45153E+02  2.72867E+03 -1.01051E+03 -6.99190E+02 -2.94292E+03 -4.75459E+02  3.04963E+03
  4.82173E+03  7.91205E+02  1.35007E+03  5.03234E+02 -4.97043E+03  1.56924E+03 -5.98085E+02  2.25966E+03
 -9.94578E+01  7.70948E+02  3.56762E+01 -3.80573E+03 -2.04325E+03  6.38158E+02  1.16796E+03 -1.28782E+03
  9.28855E+02  1.15000E+03 -2.03805E+03 -4.15740E+02  2.41102E+03  6.23249E+01  8.39969E+01  1.48821E+03
 -2.08976E+03  8.44428E+02  3.48209E+03  4.53710E+02 -1.91518E+03 -3.09176E+03 -1.81021E+03 -6.39330E+02
  4.50821E+02 -1.89040E+03  2.86439E+03 -5.12563E+02 -9.96870E+02  3.41079E+03  9.33216E+02  7.31432E+02
  2.78835E+02  6.51503E+02  4.76676E+01 -1.17051E+03 -3.65461E+03  7.34062E+02 -1.16084E+03 -1.15631E+03
 -3.41335E+02 -2.71600E+03  6.63371E+02 -4.77593E+03  2.01173E+02  3.84299E+03 -2.56163E+03 -4.45318E+02
