 $NMID ID='MM_0lb_SNR50_10hz_g50_67.RAW', FMTDAT='(8E13.5)'
 TRAMP=1., VOLUME=1. $END
  3.09473E+05 -1.51935E+03  3.38950E+05  2.52780E+05  8.08710E+04  3.40984E+05 -1.31286E+05  2.56507E+05
 -1.92518E+05  7.93143E+04 -1.16617E+05 -3.52466E+04 -5.82717E+03 -5.08406E+04  4.85326E+04  1.08540E+03
  3.39096E+04  5.47268E+04 -1.43986E+04  7.99020E+04 -5.87847E+04  6.42367E+04 -8.06089E+04  3.17997E+04
 -8.01916E+04 -1.13938E+04 -5.46783E+04 -5.27416E+04 -1.87309E+04 -6.68741E+04  1.92623E+04 -4.66026E+04
  4.29681E+04  1.46644E+03  1.29638E+04  4.76339E+04 -3.26969E+04  5.32809E+04 -6.37864E+04  5.01654E+03
 -5.87062E+04 -5.85648E+04 -5.15739E+03 -7.48618E+04  4.16453E+04 -6.13405E+04  5.19816E+04 -1.24182E+04
  4.39801E+04  1.25941E+04  4.11079E+04  2.66667E+04  1.78134E+04  2.72869E+04 -1.09443E+04  2.88822E+04
 -1.91746E+04  1.18267E+04 -1.72940E+04  6.63556E+03  1.19664E+04 -1.34481E+04  2.13407E+04  1.33108E+04
  9.80224E+03  3.87385E+04 -3.34546E+04  3.41746E+04 -7.12035E+04 -2.44843E+02 -5.72408E+04 -3.57122E+04
 -1.78667E+04 -6.96908E+04  3.97388E+04 -4.55860E+04  5.72675E+04 -4.92812E+03  3.47354E+04  2.85574E+04
 -2.43531E+03  3.87773E+04 -3.35801E+04  2.03502E+04 -3.75443E+04 -4.40619E+03 -2.23146E+04 -1.57541E+04
 -1.02692E+04 -1.17576E+04 -9.96167E+00 -1.92753E+04  1.28293E+04 -1.92049E+04  1.67641E+04 -1.43148E+04
  1.15090E+04  3.30180E+02 -1.42181E+04  1.35683E+04 -1.80870E+04 -5.02053E+03 -1.47452E+04 -3.80229E+04
  2.27972E+04 -5.21119E+04  5.10420E+04 -1.79515E+04  4.94273E+04  1.87812E+04  1.27645E+04  4.31738E+04
 -1.50149E+04  3.36582E+04 -2.63337E+04  8.12426E+02 -1.23318E+04 -3.39343E+04  1.73082E+04 -3.08007E+04
  4.62600E+04 -1.38467E+04  4.42524E+04  2.28657E+04  2.12366E+04  4.71776E+04 -6.78837E+03  5.32792E+04
 -3.66152E+04  3.20319E+04 -5.05698E+04  1.02012E+04 -5.07493E+04 -1.71496E+04 -2.32641E+04 -4.20033E+04
  7.48953E+03 -4.03409E+04  3.45337E+04 -1.60242E+04  2.83146E+04  8.52867E+03  8.38588E+03  2.54971E+04
 -1.31791E+04  1.60279E+04 -8.76530E+03 -2.00879E+03  9.23402E+03 -8.01247E+03  2.13577E+04  7.04650E+03
  2.04091E+04  1.97103E+04  2.26468E+03  2.96997E+04 -1.89845E+04  1.62679E+04 -3.57466E+04 -3.33873E+03
 -1.98835E+04 -1.79237E+04 -5.11387E+03 -2.41307E+04  3.49837E+03 -1.92208E+04  1.43961E+04 -1.97754E+04
  3.24022E+04 -1.55504E+04  3.23851E+04  5.52542E+03  2.37476E+04  1.77845E+04  2.45041E+03  3.24523E+04
 -1.84250E+04  3.23534E+04 -3.19391E+04  1.50890E+04 -1.70201E+04 -9.43662E+03 -1.42191E+03 -1.07259E+04
  2.92929E+03 -2.16788E+03 -8.39680E+03  5.06855E+03 -1.77390E+04  6.34307E+03 -1.85067E+04 -1.09493E+04
 -7.36863E+03 -1.98930E+04  7.40828E+03 -2.32091E+04  1.07275E+04 -2.39747E+04  2.34730E+04 -1.43745E+03
  6.19146E+03  1.83701E+04  1.93329E+02  2.37837E+04 -1.69400E+04  6.77723E+03 -2.60288E+04  4.83048E+02
 -1.66238E+04 -2.11261E+04 -3.02152E+03 -2.38677E+04  9.75689E+03 -2.49889E+04  1.43734E+04 -1.82379E+04
  2.19570E+04 -6.10180E+03  1.49766E+04  1.04726E+04  9.96710E+03  3.05817E+03  1.00150E+04 -3.92583E+03
  2.03443E+04  6.14496E+03  2.81399E+04  1.64057E+04  1.42219E+04  3.59060E+04 -2.13867E+03  3.86238E+04
 -2.25741E+04  2.94694E+04 -3.64307E+04  2.06680E+04 -4.62053E+04 -1.05891E+03 -3.65736E+04 -1.97280E+04
 -2.01744E+04 -3.68740E+04  1.47014E+04 -3.36879E+04  2.29993E+04 -1.44661E+04  2.18658E+04  1.09939E+04
  9.69485E+03  1.02912E+04 -1.20818E+04  1.58632E+04 -1.59518E+04  9.70922E+03 -1.68330E+04 -1.77566E+04
 -1.24093E+03 -2.00175E+04  1.10910E+04 -1.40998E+04  1.59425E+04 -2.34103E+03  4.87003E+03  5.71396E+03
 -8.65445E+03  5.52317E+03 -1.09026E+04 -1.36814E+04 -8.46473E+02 -1.91512E+04  9.83018E+03 -1.84943E+04
  2.23819E+04 -1.16881E+04  2.76234E+04  3.16495E+03  2.50604E+04  8.56571E+03  7.29400E+03  2.85195E+04
 -7.35756E+02  2.64248E+04 -2.23846E+04  1.91650E+04 -2.08124E+04  6.30468E+03 -8.63042E+03 -6.66051E+03
 -4.72474E+02 -1.25329E+03  2.28580E+03  5.25518E+02 -4.70348E+02  2.72845E+03 -3.95176E+02  8.00597E+03
 -1.35909E+04  1.50181E+03 -1.50247E+04 -1.05136E+04 -7.24399E+03 -1.87058E+04  2.18574E+03 -1.75131E+04
  1.20372E+04 -5.10063E+03  1.29890E+03  3.31045E+03  2.67314E+03  9.32076E+03 -1.61763E+04  6.52245E+02
 -2.05535E+03 -1.30278E+04  3.71142E+02 -1.14162E+04  7.89776E+03 -1.90692E+04  2.03657E+04 -3.62262E+03
  1.89593E+04  4.56216E+03  1.71714E+04  1.71629E+04  7.76407E+03  1.94942E+04 -1.34973E+04  9.68690E+03
 -1.57554E+04  5.58436E+03 -1.33442E+04 -3.88701E+03  9.58493E+02  1.84978E+03  7.46929E+03  5.80512E+03
  6.15678E+03  3.43929E+03  6.50125E+02  7.67971E+03 -1.02462E+04  1.19973E+04 -1.54126E+04 -2.34683E+03
 -7.77507E+03 -7.87040E+03  1.73894E+03 -1.47010E+04  1.09178E+04 -7.26370E+03  6.72422E+03  3.89786E+03
 -2.37801E+03  1.55995E+04 -2.16100E+03  1.02173E+04 -1.33532E+04  4.00988E+03 -1.59394E+04 -9.19579E+03
 -1.71531E+04 -1.36768E+04  1.18550E+03 -1.01891E+04  8.95116E+03 -4.44968E+03  1.50778E+04  2.24159E+03
  2.95174E+03  1.44386E+04 -3.50311E+03  1.76794E+04 -1.25810E+04  1.24132E+04 -9.54798E+03 -8.14218E+03
 -9.65856E+03 -1.09193E+04  3.97116E+02 -1.04176E+04  6.08015E+03 -1.23797E+04  5.20638E+03  7.90754E+02
  2.52293E+03  4.06984E+03 -3.66582E+03  4.40550E+03 -9.57832E+03 -5.01767E+03  1.00155E+04 -1.45042E+04
  8.96573E+03 -4.88740E+03  1.72690E+04  1.42730E+03  1.35172E+04  8.79760E+03  1.28271E+04  1.94892E+04
 -2.39584E+03  2.27993E+04 -1.36188E+04  1.40396E+04 -2.54414E+04  6.13627E+03 -1.67707E+04 -3.96608E+03
 -1.33515E+04 -1.75643E+04  1.71719E+02 -9.30582E+03  9.87952E+03 -2.63738E+03  3.88540E+03 -2.97784E+03
  9.68115E+03 -8.07492E+03 -1.69827E+02 -7.56730E+03  9.05811E+03 -3.30104E+03  6.07018E+03  2.61330E+03
  1.13447E+04  2.88835E+03  5.26010E+03  7.93882E+03 -3.89591E+03  1.15851E+04 -1.38142E+04  1.29017E+04
 -1.44624E+04  2.34867E+03  2.68677E+02 -1.19072E+04 -2.25144E+03 -1.54385E+04  1.06087E+04 -1.41731E+04
  1.80674E+04 -5.05252E+03  2.13628E+04  4.59493E+03  9.88436E+03  8.75076E+03  3.80388E+03  2.07444E+04
 -7.24268E+03  9.62269E+03 -1.29313E+04  1.49118E+03 -3.10688E+03  5.38159E+03 -1.83264E+03 -1.19235E+03
  1.05968E+03 -1.54229E+03  7.70553E+02  4.24986E+03 -1.23062E+04  3.51072E+03 -1.66066E+04 -2.20573E+03
 -3.47011E+03 -5.46005E+03 -5.58089E+03 -1.17697E+04  7.28068E+03 -2.10345E+04  1.58353E+04 -3.27243E+03
  1.29225E+04  3.54445E+03  6.76053E+03  1.63432E+04 -4.25719E+03  1.09236E+04 -1.95261E+04  5.97149E+03
 -1.03550E+04  4.42878E+03 -1.50424E+04 -8.21620E+03  4.67662E+03 -1.24239E+04  7.34784E+03 -2.66838E+03
  8.69582E+03 -4.40417E+03  8.02476E+03  5.92763E+03  9.78598E+01 -6.67301E+03  7.30380E+03  5.95669E+03
  9.37947E+02 -2.15164E+03 -2.23241E+03  4.80300E+03  3.43201E+03  1.14184E+04  5.97100E+03  1.23896E+04
 -8.44256E+03  1.15615E+04 -7.40864E+03  1.92019E+04 -1.37825E+04 -2.48950E+03 -1.23675E+04 -2.12757E+03
 -5.20152E+03 -1.30077E+04  2.59301E+03 -1.29088E+04  8.69927E+03 -1.01424E+04  1.10000E+04 -4.42542E+03
  1.00579E+04  6.67260E+03  1.50734E+03  1.33033E+04 -5.35550E+03  6.26247E+03 -1.57214E+03 -2.37476E+03
 -1.34041E+03 -5.99138E+03  2.94928E+03 -7.14254E+03  9.65567E+03 -9.59052E+02  8.60363E+03  3.49547E+03
 -2.93169E+03 -3.50764E+03  4.65536E+03 -1.09442E+03  4.48500E+01 -5.55904E+03  3.87496E+03 -1.26143E+03
 -3.94944E+03  8.37649E+02  1.12793E+04  4.79574E+02 -8.50436E+02  9.61314E+03 -2.86625E+03  1.08344E+04
 -1.03546E+04  6.29159E+03 -3.31022E+03  3.67066E+03 -1.34901E+04 -5.83315E+03 -9.92999E+03 -2.50845E+03
  1.53185E+03 -3.82107E+03  1.12101E+03  1.21241E+03  1.89773E+03  4.70254E+03 -1.29258E+03  2.51493E+03
 -5.14647E+03  4.50570E+02 -2.05208E+03 -2.09930E+03 -1.51222E+03  2.41594E+02  9.35712E+03 -1.14094E+04
  1.07199E+04 -8.59163E+03  3.21936E+03 -8.10170E+02  4.18911E+03  4.89517E+03  4.98212E+02  5.29040E+03
 -3.14193E+03  6.77843E+03 -6.03268E+02  4.78890E+02 -1.78694E+03 -3.30740E+03  6.81124E+03 -1.02039E+04
  1.42245E+04  5.41070E+02  1.18436E+04  7.86904E+03 -5.03507E+02  1.30744E+04 -1.50276E+03  6.22206E+03
 -1.63700E+03  4.03660E+03 -9.43426E+03  7.12188E+02 -5.97663E+03 -3.51202E+03 -3.70722E+03 -1.44065E+03
  3.12823E+03  2.12757E+03  8.92395E+02  6.86207E+03 -1.72167E+03  1.07374E+04 -6.01429E+03  9.82113E+03
 -1.36437E+03  5.93320E+03  5.18803E+03 -1.98288E+03  1.12946E+03  2.91388E+03  3.10578E+03 -3.31711E+03
  2.54714E+03  3.25277E+03 -4.14928E+03  5.92743E+03 -8.26098E+03 -1.78441E+03 -5.84694E+03 -5.68476E+03
 -2.20584E+03 -1.25062E+04  1.79875E+03 -5.43942E+03  8.31200E+03 -7.61950E+03  1.36165E+04 -4.55411E+03
  7.48254E+03  3.66150E+03  5.27973E+03  9.68657E+03  6.96301E+02  7.89468E+03 -1.05491E+03  6.16410E+03
 -8.65537E+03  4.20003E+03 -5.62393E+03 -2.74824E+03  8.45286E+02 -5.76822E+03 -2.11725E+03 -1.98810E+03
  1.86177E+03  3.41871E+03 -5.36798E+03 -1.62696E+03  6.45115E+03 -1.73514E+03 -2.63303E+02 -2.64628E+02
  6.62204E+03 -7.38052E+02 -9.09918E+02  5.28217E+03  7.29870E+03  5.48747E+03 -1.94763E+03  1.05448E+04
 -1.67579E+03  1.17465E+04 -9.89846E+03  7.17721E+03 -5.85152E+03  3.19155E+03 -9.45687E+03 -1.07453E+04
 -3.95193E+03 -1.13504E+04  2.02749E+03 -6.53131E+03  4.40194E+03  2.81044E+03  6.30536E+03 -1.62506E+03
  6.48372E+03  5.76987E+02 -2.03603E+03  7.07198E+02  8.96337E+02 -7.49213E+02 -6.82228E+02  1.70672E+03
  7.78472E+03  6.60519E+03  2.96226E+03 -1.01294E+03 -3.22819E+03  5.86763E+03 -4.55199E+03  4.36718E+03
 -1.73709E+03  3.77263E+03 -2.71570E+03  4.04487E+03 -1.03506E+04  4.63490E+03 -4.29786E+03 -1.12585E+04
  2.40982E+03 -8.15226E+02  7.96726E+03 -4.40095E+03  1.04537E+04  4.67871E+03  4.87145E+03  1.01223E+04
  6.06478E+02  5.06705E+03 -3.03753E+03  7.51401E+03 -7.12992E+03  4.73580E+03 -1.44459E+04 -3.14355E+03
  2.50411E+03 -2.94824E+03  8.47230E+03  2.58853E+03 -1.76978E+03  1.52978E+03 -4.34851E+03  6.82595E+01
 -5.46541E+03 -7.18017E+02 -3.46751E+03 -7.89128E+02  5.21142E+03 -1.76369E+03  9.34787E+03 -5.20524E+03
  7.85430E+03 -1.90462E+03  3.58683E+03  7.91870E+03 -1.37900E+03  7.02899E+03 -3.15842E+03  2.29458E+03
