 $NMID ID='MM_0lb_SNR50_15hz_g50_65.RAW', FMTDAT='(8E13.5)'
 TRAMP=1., VOLUME=1. $END
  3.11462E+05 -2.93278E+03  3.39519E+05  2.48517E+05  8.54596E+04  3.38148E+05 -1.30046E+05  2.48678E+05
 -1.93843E+05  8.49992E+04 -1.09631E+05 -3.35369E+04 -1.99207E+03 -4.79431E+04  6.02176E+04  1.22057E+03
  3.77848E+04  5.15751E+04 -1.85608E+04  7.86499E+04 -5.82928E+04  6.49811E+04 -8.31520E+04  2.91791E+04
 -7.56922E+04 -9.47617E+03 -5.67733E+04 -5.25261E+04 -1.65954E+04 -7.25671E+04  2.79937E+04 -4.52367E+04
  3.96303E+04  1.10310E+03  1.97889E+04  5.33277E+04 -3.36525E+04  4.76146E+04 -6.37091E+04 -1.44112E+02
 -5.42398E+04 -5.69013E+04 -1.22334E+04 -7.72334E+04  2.79848E+04 -5.47481E+04  4.91220E+04 -1.51615E+04
  3.90761E+04  8.84346E+03  3.48196E+04  2.02223E+04  1.59577E+04  3.06206E+04 -3.00461E+03  2.65886E+04
 -2.12521E+04  1.41075E+04 -1.86522E+04 -1.48271E+03  5.08079E+03 -8.36620E+03  2.10933E+04  1.35110E+04
  7.98288E+03  3.79028E+04 -2.72645E+04  3.50641E+04 -6.03870E+04  1.95928E+03 -5.65713E+04 -4.33643E+04
 -1.14874E+04 -5.85140E+04  4.49507E+04 -4.43353E+04  5.72369E+04 -2.12437E+03  3.63918E+04  3.36152E+04
 -7.22112E+03  4.23075E+04 -2.35004E+04  1.61229E+04 -2.85921E+04 -7.48454E+03 -2.00939E+04 -1.24973E+04
 -8.65328E+03 -1.44242E+04 -2.66023E+03 -2.28490E+04  8.12016E+03 -2.22656E+04  1.13072E+04 -1.75755E+04
  1.32206E+04  8.04451E+03 -6.14345E+03  9.35457E+03 -2.29953E+04 -7.83868E+03 -8.50896E+03 -2.99600E+04
  2.46804E+04 -4.50935E+04  4.95482E+04 -1.52177E+04  4.38850E+04  1.54186E+04  1.52808E+04  4.69475E+04
 -1.77656E+04  3.26600E+04 -2.22956E+04 -4.78551E+03 -1.03581E+04 -2.48524E+04  1.87226E+04 -3.51024E+04
  3.54751E+04 -8.30209E+03  3.49086E+04  2.41770E+04  1.59307E+04  4.52805E+04 -5.67866E+03  5.14364E+04
 -3.02194E+04  3.95257E+04 -3.85755E+04  9.80498E+03 -4.75920E+04 -1.67523E+04 -2.08409E+04 -3.29723E+04
  3.55729E+03 -3.63647E+04  2.75538E+04 -1.68630E+04  3.21422E+04  1.17866E+04  1.74282E+03  1.97672E+04
 -1.50678E+04  4.26632E+03 -9.99246E+03 -4.19708E+03  6.69470E+03 -1.06021E+04  1.91404E+04  1.14179E+04
  1.26174E+04  1.97641E+04 -5.21510E+03  2.48567E+04 -2.62370E+04  7.71781E+03 -2.20141E+04 -3.41525E+03
 -2.29656E+04 -1.85731E+04 -1.12366E+03 -2.16596E+04  1.34948E+03 -1.55697E+04  1.24226E+04 -1.95471E+04
  2.22367E+04 -1.15392E+04  3.21744E+04  5.00933E+02  1.99486E+04  1.71402E+04  6.80274E+02  3.71321E+04
 -1.29706E+04  2.99195E+04 -2.98039E+04  1.50145E+04 -2.31909E+04 -6.85179E+03 -5.31422E+03 -1.36388E+04
  8.20859E+02  2.19871E+03 -4.99444E+03  2.80800E+03 -2.00538E+04  3.73622E+03 -1.62031E+04 -5.83248E+03
 -1.07850E+04 -1.63144E+04  3.25168E+03 -2.21758E+04  1.31120E+04 -2.02605E+04  1.73377E+04  9.29652E+02
  8.68272E+03  1.41205E+04  1.70016E+03  1.95822E+04 -1.45313E+04  1.20460E+04 -2.33407E+04 -4.96501E+03
 -1.21841E+04 -1.90620E+04 -2.43061E+03 -2.14579E+04  1.52861E+04 -2.24421E+04  2.25308E+04 -6.46281E+03
  1.12901E+04 -3.00878E+03  1.16689E+04  5.42010E+03  1.06668E+04  2.02593E+03  1.50999E+04 -4.17836E+03
  1.50351E+04  2.71408E+03  1.55413E+04  1.21072E+04  1.48547E+04  2.98436E+04 -1.30845E+03  3.53670E+04
 -1.67870E+04  2.60756E+04 -3.00358E+04  1.28680E+04 -3.29828E+04 -6.21497E+03 -2.49385E+04 -1.70719E+04
 -1.12942E+04 -2.43884E+04  8.72027E+03 -2.66329E+04  2.05435E+04 -1.11485E+04  1.92770E+04  8.65885E+02
  6.38212E+03  1.24486E+04 -1.17533E+04  1.21283E+04 -1.61775E+04  5.45257E+03 -1.03165E+04 -5.26293E+03
 -1.07143E+03 -9.04122E+03  9.35562E+03 -1.02005E+04  5.90424E+03 -4.38556E+03  1.15152E+03  1.97170E+03
 -7.32433E+03  1.62605E+03 -5.15776E+03 -9.52876E+03  1.88506E+03 -8.58648E+03  7.33505E+03 -7.79445E+03
  1.73919E+04 -6.80571E+03  2.02299E+04  1.83744E+03  1.80429E+04  1.41543E+04  8.83335E+03  2.11459E+04
 -2.96489E+03  1.79505E+04 -1.15627E+04  1.21550E+04 -1.36832E+04  1.83910E+03 -1.28502E+04 -4.18422E+03
 -6.54122E+03 -4.78689E+02 -2.30893E+03 -2.70581E+02  6.40501E+02  5.56178E+02 -4.89005E+03  3.58092E+03
 -1.19474E+04 -7.71454E+02 -8.69045E+03 -7.64158E+03 -3.92685E+03 -1.48590E+04  7.73841E+03 -9.81996E+03
  6.71855E+03 -7.90835E+03  5.63978E+03  4.06593E+03 -3.20621E+03  5.77746E+03 -2.43542E+03 -6.87823E+03
  5.15500E+03 -8.90600E+03 -4.38250E+03 -1.03717E+04  8.57549E+03 -1.08591E+04  1.07871E+04  2.91439E+02
  1.34456E+04 -6.25571E+02  1.30112E+04  8.47256E+03  1.86512E+03  1.45826E+04 -5.55603E+03  9.06507E+03
 -5.40338E+03  4.67699E+01 -2.09454E+03 -3.72900E+03  2.70018E+03 -4.35099E+03  1.07773E+03  9.77540E+01
  2.56132E+03  7.72427E+03  3.78797E+03  5.17364E+03 -6.03495E+03  8.81397E+03 -8.91254E+03  1.59643E+03
 -7.38055E+03 -2.79445E+03 -1.51947E+03 -1.24317E+04  9.28108E+03 -8.74206E+02  4.79735E+03  3.42469E+03
 -2.01265E+03  1.39995E+03 -9.78446E+03  4.48420E+03 -7.32656E+03 -3.41045E+03 -9.65513E+03 -5.02998E+03
 -2.00326E+03 -9.82437E+03  4.59264E+03 -1.16655E+04  6.38297E+03 -5.45916E+03  7.67012E+03 -1.43987E+02
  4.78051E+03  9.72692E+03  1.28981E+03  1.09257E+04 -7.51868E+03  3.62957E+03 -9.01181E+03  2.93842E+02
 -8.21485E+03 -7.50991E+03 -1.64622E+03 -5.37064E+03  1.71839E+03 -5.54922E+03  4.69955E+03 -5.36186E+03
  4.60619E+03  3.59158E+03  2.61539E+03 -1.37885E+03 -9.65522E+02 -4.70967E+03  6.98461E+02 -1.83189E+03
  8.28734E+03 -1.02920E+03  7.69850E+03  3.77234E+02  1.19471E+04  3.88474E+03  5.86024E+03  1.14065E+04
 -1.84041E+03  1.17280E+04 -9.51102E+03  5.15926E+03 -1.69719E+04  1.46549E+03 -1.20086E+04 -4.11417E+03
 -1.81252E+03 -9.53899E+03  1.04505E+03 -8.93539E+03  3.57119E+03 -2.07900E+03  4.20922E+03 -4.76307E+03
  2.92994E+03 -7.22095E+03  9.31204E+02 -4.60565E+03  2.81686E+03  2.76709E+03  6.37003E+03  7.55691E+01
  6.28320E+03 -1.53930E+03  3.64748E+03  4.01142E+03  5.53321E+02  1.00204E+04 -9.18696E+03  1.01473E+04
 -8.54732E+03  3.81362E+03 -2.48170E+02 -5.47857E+03  2.57280E+03 -3.90505E+03  5.09136E+03 -8.50377E+03
  7.41272E+03 -6.27781E+03  8.77868E+03  3.89616E+03  7.77520E+03  9.06304E+03 -5.34119E+02  1.00599E+04
 -1.42243E+03  4.20098E+03 -7.77640E+03  2.66715E+03 -6.05226E+03 -5.30306E+03 -7.25230E+02 -5.85605E+03
 -1.43909E+03 -4.39106E+03 -6.59277E+02  2.83685E+02 -3.89677E+03 -2.47761E+02 -5.58532E+03 -3.62163E+03
 -5.95307E+03 -5.77827E+03 -8.31706E+02 -2.65345E+03  5.00808E+03 -7.16980E+03  6.73037E+03 -2.55380E+02
  1.16935E+03  1.82210E+03  5.21553E+03  2.80499E+03  1.63631E+03  9.42339E+03 -4.02005E+03  6.00618E+03
 -4.65824E+03  1.19949E+03 -4.56604E+03 -2.02795E+03 -4.62488E+02 -5.74568E+03  7.10926E+03 -3.84255E+03
  3.76109E+03 -3.31275E+03  6.69021E+03 -9.90333E+01 -9.85192E+02  6.76029E+03  3.85252E+03  1.88157E+03
  2.20665E+03  1.65709E+03  6.34481E+02 -8.29961E+02  2.07497E+03  2.06801E+03  4.27730E+02 -1.99836E+03
 -8.71028E+02  4.55197E+03 -4.34180E+03  5.88218E+03 -3.99296E+03 -2.73075E+03 -1.03024E+04 -3.88686E+02
 -4.24679E+03 -7.02972E+03 -5.63877E+03 -8.40681E+03 -2.14735E+03 -5.98671E+03  7.03198E+03 -2.22188E+03
  5.86745E+03 -9.64183E+02  6.19292E+02  2.93363E+03 -3.43060E+03  3.02473E+03 -1.21485E+03 -2.07607E+02
 -7.65349E+02 -1.99759E+03  2.23396E+03 -1.09242E+03  3.78623E+03  1.60003E+03  7.78181E+03 -4.14642E+02
  1.51405E+03 -6.70868E+02  3.18867E+03  1.08356E+03  5.02695E+02 -2.51224E+03 -2.89842E+03  9.15110E+02
  4.02534E+03 -1.33303E+03  1.84585E+03 -3.97592E+03  6.14303E+02  3.36604E+03  1.55279E+03  2.39607E+03
 -2.01918E+03 -6.07595E+02 -4.21624E+03  4.77809E+02 -5.15644E+03  1.86074E+03 -7.25464E+03  3.14015E+01
 -1.58104E+03 -2.57778E+03  4.26047E+03 -4.58282E+03  4.39942E+03  7.54852E+03 -9.01289E+01 -2.13209E+02
 -2.96335E+03 -3.34211E+03  1.31574E+03 -2.69085E+03  1.63397E+03 -2.92681E+03  3.24602E+03 -1.53329E+03
  2.55355E+03  3.11208E+03  1.16294E+03  2.87868E+03  1.92042E+03  1.76099E+03  3.40945E+03 -7.96924E+02
 -3.80273E+03  1.03822E+02  2.77393E+02 -1.07991E+02  1.40718E+03  1.36102E+03  1.34938E+03 -2.50606E+03
  4.43359E+02  1.46611E+03  8.04927E+03 -5.27415E+02  1.02052E+03  1.01870E+03  3.08490E+02  1.84335E+03
  3.11144E+03 -1.09620E+03 -5.36180E+03  2.26010E+03 -3.36806E+03 -4.17609E+03  2.12446E+03 -3.70474E+03
  2.68802E+03  8.13216E+01  3.40529E+03 -4.51203E+03  2.89794E+03  1.04764E+03  1.74722E+03  1.43079E+03
 -5.62569E+02  3.30559E+03 -1.80166E+03 -4.41503E+03 -1.99805E+03  9.47186E+02  4.09462E+03 -7.70844E+02
  2.26033E+03  9.65682E+02 -4.29945E+03  9.71635E+02 -7.47954E+03  9.07192E+02 -5.49540E+03 -1.48267E+03
  6.46573E+03 -1.55674E+03 -7.51102E+02 -5.90974E+03  1.58283E+03 -2.08378E+02  6.63880E+03 -3.17660E+03
  2.48915E+03 -8.80924E+01  6.82150E+03  2.28352E+03  2.85882E+03  1.36954E+03 -6.11561E+03  6.33906E+03
  1.03034E+03  6.12435E+03 -8.50830E+02 -1.73438E+03 -2.46209E+02  8.43984E+02 -2.30925E+03  6.34777E+01
  1.37448E+03 -2.34777E+03 -1.84179E+03 -6.08164E+03  3.28412E+03 -2.08319E+03 -1.28855E+03 -9.07013E+02
 -2.69440E+03 -4.37540E+03  2.47640E+03 -1.07604E+03  1.09947E+03  4.51798E+02  1.71078E+03  1.25054E+03
 -2.90895E+03  3.84015E+03 -5.46018E+03  5.47701E+03 -8.43939E+02 -1.55089E+03 -8.84874E+02  1.93329E+02
  3.30808E+03 -5.89648E+03 -3.23929E+03  1.84270E+03  4.37601E+03 -3.83612E+03 -1.44250E+03  1.43205E+03
  1.68764E+03  2.42271E+03 -8.53572E+02  5.61581E+03  1.35207E+02  8.65579E+02 -3.25518E+02  3.86277E+02
  1.59894E+03  4.63901E+03  1.99023E+03  1.62760E+03 -2.37072E+03 -5.46108E+02 -1.60702E+03 -3.09630E+03
 -1.21571E+02  3.35054E+03 -1.99050E+03 -7.29659E+02 -3.53770E+02  2.65173E+03  3.16649E+03 -6.85846E+03
 -8.42541E+01 -8.53854E+02  2.50832E+03 -3.90738E+03  1.96273E+03  3.60523E+03  2.74781E+03  4.31634E+02
  3.40382E+03 -2.35979E+03 -4.69610E+02  3.74330E+03  2.78767E+03  1.47864E+03 -3.98140E+02 -4.38921E+03
  2.39446E+02  4.07986E+03 -1.11412E+03  5.61388E+02 -1.76616E+03  2.99987E+03  1.90274E+03  2.19415E+03
 -3.45690E+03 -2.57104E+03  3.29055E+03 -4.03024E+02  2.99542E+03 -1.52308E+03  1.75167E+03  1.11408E+03
  4.85931E+03 -1.41864E+03 -2.54056E+02  2.39480E+03  3.08555E+03  1.05971E+03 -2.90449E+02  3.19852E+03
