 $NMID ID='MM_0lb_SNR50_13hz_g50_10.RAW', FMTDAT='(8E13.5)'
 TRAMP=1., VOLUME=1. $END
  3.06977E+05  4.88223E+03  3.39988E+05  2.49519E+05  8.67317E+04  3.38297E+05 -1.29449E+05  2.59704E+05
 -1.84089E+05  8.03676E+04 -1.10702E+05 -2.75995E+04 -2.30832E+03 -4.88366E+04  5.40580E+04  2.62087E+03
  3.50099E+04  5.33705E+04 -1.67756E+04  8.07438E+04 -6.32258E+04  6.85896E+04 -7.86793E+04  3.22155E+04
 -8.46003E+04 -8.51870E+03 -6.01385E+04 -4.78314E+04 -1.35682E+04 -6.81879E+04  2.92899E+04 -4.42232E+04
  4.16484E+04  3.01852E+03  1.31545E+04  4.80231E+04 -3.22897E+04  4.78067E+04 -7.30324E+04  4.19261E+03
 -4.86161E+04 -5.58790E+04 -1.12780E+04 -7.76091E+04  3.86318E+04 -5.96557E+04  5.18033E+04 -1.43547E+04
  4.24527E+04  1.01761E+04  3.37265E+04  2.91142E+04  1.84133E+04  3.12441E+04  2.22740E+03  2.40699E+04
 -1.80669E+04  7.06885E+03 -2.08358E+04 -8.96706E+03  5.34186E+03 -6.91127E+03  1.79176E+04  1.03886E+04
  6.61502E+03  3.64578E+04 -3.12837E+04  3.62327E+04 -6.44852E+04  5.57521E+03 -5.72218E+04 -4.19005E+04
 -1.53524E+04 -6.74597E+04  4.19282E+04 -4.92898E+04  5.80007E+04 -6.40029E+03  3.69012E+04  3.01165E+04
 -3.91486E+03  3.57621E+04 -3.13724E+04  1.90376E+04 -3.21916E+04 -1.24400E+03 -1.86043E+04 -1.36754E+04
 -8.31542E+03 -1.56791E+04 -1.44608E+03 -1.19506E+04  1.46071E+04 -2.08265E+04  1.50316E+04 -1.37254E+04
  1.57931E+04  1.35573E+03 -8.30684E+03  9.13447E+03 -2.50608E+04 -7.32381E+03 -1.10736E+04 -3.47119E+04
  2.63660E+04 -4.18084E+04  5.03817E+04 -2.18523E+04  4.72682E+04  1.70180E+04  1.53869E+04  4.45867E+04
 -1.68440E+04  3.39912E+04 -2.52647E+04  4.51028E+03 -8.93678E+03 -2.63656E+04  2.22871E+04 -3.36914E+04
  4.11193E+04 -1.98251E+03  3.90678E+04  2.05914E+04  1.87907E+04  4.55352E+04 -5.04547E+02  4.84119E+04
 -3.18423E+04  3.60714E+04 -4.09135E+04  8.81126E+03 -4.84313E+04 -1.69743E+04 -2.49834E+04 -3.92865E+04
  2.62024E+03 -3.61468E+04  2.82577E+04 -1.41726E+04  2.74744E+04  9.38527E+03  4.16376E+03  2.28556E+04
 -9.35008E+03  1.11658E+04 -9.86433E+03 -9.76714E+03  8.70222E+03 -1.19985E+04  1.93130E+04  1.29550E+04
  1.62646E+04  2.24178E+04 -5.83084E+03  2.49181E+04 -2.60991E+04  9.29041E+03 -2.93589E+04  7.77803E+02
 -2.23447E+04 -1.79787E+04 -5.97960E+03 -2.25953E+04  5.20551E+03 -2.03817E+04  1.72148E+04 -1.70953E+04
  2.86973E+04 -1.79011E+04  3.27227E+04  3.54387E+03  2.52124E+04  2.10633E+04  3.72247E+03  3.23002E+04
 -1.79934E+04  3.10062E+04 -2.96824E+04  7.95458E+03 -1.61757E+04 -1.25791E+04 -9.60235E+03 -1.96416E+04
  3.36712E+03 -7.13953E+03  1.88845E+01  4.44330E+03 -1.80040E+04  1.99965E+03 -1.48595E+04 -6.61791E+03
 -8.54135E+03 -2.10334E+04  1.37543E+03 -2.50336E+04  1.47076E+04 -1.37419E+04  1.60148E+04 -3.80271E+03
  9.75435E+03  1.12461E+04 -6.32762E+01  2.05602E+04 -1.51194E+04  9.73890E+03 -2.24518E+04 -7.09350E+03
 -1.55024E+04 -1.96335E+04 -6.67847E+03 -2.90937E+04  1.29207E+04 -1.61392E+04  2.26044E+04 -1.04914E+04
  1.52914E+04 -4.29066E+02  1.39985E+04  3.24996E+03  6.07219E+03  5.78057E+03  8.28833E+03 -2.26567E+03
  1.46091E+04  2.45966E+03  2.30543E+04  2.00107E+04  8.15132E+03  3.32075E+04 -4.86468E+03  2.92265E+04
 -2.08330E+04  2.50389E+04 -3.21777E+04  1.09958E+04 -2.95300E+04 -2.25963E+03 -2.98543E+04 -2.09341E+04
 -1.80076E+04 -2.56420E+04  1.11039E+04 -2.77241E+04  2.64874E+04 -1.41378E+04  1.82742E+04  7.45139E+03
  5.37291E+03  1.42893E+04 -1.38250E+04  1.35868E+04 -2.13061E+04 -2.54569E+03 -1.20272E+04 -9.43146E+03
 -1.57475E+02 -1.87547E+04  7.98079E+03 -1.57991E+04  8.34730E+03 -1.30981E+03  1.56879E+03  9.47190E+03
 -7.69238E+03  4.20691E+03 -6.66739E+03 -4.90767E+03  5.01272E+02 -1.42068E+04  1.64114E+04 -1.59029E+04
  1.86175E+04 -1.13018E+04  1.96508E+04  6.74859E+03  1.45513E+04  1.39436E+04  9.68690E+03  2.19480E+04
 -1.19407E+03  2.34261E+04 -1.35116E+04  1.28215E+04 -9.82138E+03 -1.61543E+03 -5.60860E+03 -3.30957E+03
 -5.30255E+03 -1.04175E+04 -1.57116E+03  2.05407E+03 -6.99660E+03  4.12110E+02 -9.57183E+03  6.92650E+03
 -1.16047E+04 -2.12610E+03 -8.97204E+03 -1.07681E+04 -3.56637E+03 -1.81009E+04  2.99740E+03 -1.24312E+04
  1.29558E+04 -1.70442E+02  3.97907E+03  3.34431E+03  7.68528E+01  1.74171E+03 -4.29125E+03  4.57231E+02
 -1.01362E+04 -6.00826E+03  3.16929E+03 -8.92620E+03  5.73162E+03 -1.28088E+04  1.72201E+04 -6.65425E+03
  1.77322E+04  3.82115E+03  1.27947E+04  1.19469E+04  3.25060E+03  1.46171E+04 -4.27943E+03  1.25403E+04
 -1.23053E+04  4.79857E+03 -7.35016E+03 -3.63206E+03  1.29201E+00 -1.33121E+03  4.93231E+03  1.19961E+02
  5.48966E+03  1.04544E+04  5.82738E+02  1.00333E+04 -4.60879E+03  1.30042E+04 -6.76123E+03  3.07215E+03
 -5.03089E+03 -9.70581E+03  2.26763E+03 -1.21522E+04  3.98813E+03 -3.40921E+03  6.40195E+03  4.27318E+03
  1.36951E+03  5.29216E+03 -1.15899E+04  8.88485E+03 -1.06276E+04  5.60293E+03 -1.12224E+04 -4.55263E+03
 -5.65502E+03 -1.15492E+04  2.27335E+03 -1.32514E+04  7.71134E+03 -8.76292E+03  1.02940E+04  7.80821E+03
  7.13136E+03  7.46004E+03  1.51442E+03  1.06705E+04 -4.74919E+02  9.69248E+03 -1.02040E+04 -2.22684E+03
 -1.25081E+04 -7.27604E+03  1.37084E+03 -7.60423E+03  2.88192E+03 -1.74888E+03  7.65950E+03  3.02651E+03
  4.22884E+03  7.73787E+02  1.66675E+03  2.65737E+03  4.45034E+03 -5.32133E+03 -8.99549E+03 -8.09453E+03
  8.65314E+03 -2.28954E+03  1.00621E+04  1.69940E+03  1.28799E+04  1.72567E+03  9.30585E+03  1.10924E+04
 -2.52675E+03  1.34281E+04 -1.64465E+04  8.74310E+03 -1.58599E+04  8.32743E+03 -1.57578E+04 -3.99230E+03
 -9.09935E+03 -1.43458E+04 -2.59450E+03 -8.77517E+03  2.09043E+03 -1.00037E+03  8.89949E+03  4.29736E+02
  5.21820E+03 -2.46082E+03  4.43180E+03 -4.90397E+03  6.25234E+03 -3.72803E+02  5.54413E+03 -1.48549E+03
  8.90476E+03  5.50113E+02  6.38367E+03  3.70301E+03 -1.80941E+03  1.02876E+04 -1.00693E+04  1.06668E+04
 -3.69855E+03 -2.38095E+03 -8.70774E+03 -9.02678E+03  4.44594E+02 -8.48490E+03  9.30979E+03 -6.55695E+03
  5.95107E+03 -6.79180E+03  1.39632E+04  6.16388E+03  8.89210E+03  1.20920E+04  3.03435E+03  7.80570E+03
 -4.75368E+03  1.33500E+04 -3.19147E+03 -1.62737E+03 -1.78237E+03 -7.75100E+02 -8.65621E+02 -2.72150E+03
 -3.89653E+02 -1.64022E+01  2.57418E+03  3.61849E+03 -4.78684E+03  3.61084E+03 -9.93921E+03  2.61698E+03
 -3.03424E+03 -7.26812E+03 -1.86094E+03 -6.30665E+03  5.07552E+03 -7.84701E+03  7.69057E+03 -2.97484E+03
  7.01107E+03  3.96759E+03  4.84840E+03  1.15806E+04 -2.30871E+03  1.01115E+04 -6.51965E+03  6.03015E+03
 -1.10111E+04  1.34806E+03 -1.47632E+04 -4.58100E+03  2.70070E+02 -2.64316E+03  6.43062E+03 -7.96950E+03
  8.30613E+03 -3.49067E+03  4.64615E+02  7.29687E+03 -3.54805E+02  3.48321E+03  1.97840E+03 -8.98402E+02
  4.12450E+02  1.42777E+02  2.00015E+03 -3.48432E+02 -1.22675E+03  4.82908E+03 -2.83133E+03  3.11543E+03
  6.88511E+02  6.98725E+03 -7.63993E+03  5.46127E+03 -7.91752E+03 -3.30836E+03 -1.16038E+04 -2.03177E+03
 -4.86164E+03 -2.63878E+03  5.46000E+03 -1.10659E+04  5.98996E+03 -5.57896E+03  4.69704E+03  3.33351E+02
  6.18986E+03  1.41108E+03  2.71280E+03  6.07407E+03 -6.46926E+03  3.02667E+03 -4.96984E+03  4.48515E+02
  5.63492E+03 -2.66617E+03  3.88316E+03 -6.64977E+03  5.64772E+03 -1.39550E+03  3.85204E+03  3.10965E+03
 -5.51008E+02 -5.12492E+03  1.13525E+02  3.63343E+03  2.16323E+03  5.24052E+03 -1.11335E+03 -3.89375E+03
  3.66115E+03 -7.26932E+03  2.77092E+03 -1.05101E+03  3.99100E+03  6.70476E+03 -1.74047E+03  4.44904E+03
 -4.70683E+03  7.72166E+03 -4.02078E+02  1.61460E+03 -3.30128E+03 -2.34186E+03 -3.63376E+03 -5.22362E+03
  2.44142E+03 -1.92743E+03  8.76148E+01 -7.66923E+03 -7.83979E+02  3.25169E+03 -1.17315E+03  6.99198E+03
 -1.93692E+03  5.63201E+02 -2.58331E+03 -2.06365E+03  2.42312E+03 -7.39622E+03 -1.97143E+03 -8.00032E+03
  1.10560E+03 -4.55301E+03  4.26437E+03  5.96583E+03  7.43229E+03  2.26798E+02 -1.44550E+03  3.11403E+03
 -2.06237E+03  3.03530E+03 -4.63272E+03 -3.18579E+03  1.18376E+03 -6.97828E+03  4.17576E+03 -2.77325E+03
  6.91978E+03  2.17862E+03  8.83766E+03  5.91508E+03 -9.47009E+02  5.60289E+03 -5.51737E+02  8.15712E+02
 -1.80725E+03  1.26598E+03 -3.95973E+03 -2.72935E+02 -2.27837E+03  2.00917E+03 -4.57610E+03 -1.14893E+03
 -2.83370E+03 -2.42478E+02  1.90327E+03  2.76034E+03  1.66657E+03  7.17473E+03 -1.51097E+03  1.55077E+03
 -2.44631E+03  4.28335E+03  2.90080E+03 -3.89284E+03 -2.70419E+03  3.29402E+03  9.27245E+02 -7.66796E+02
 -7.12722E+02  3.95605E+03 -7.75030E+02 -1.33323E+03 -4.42775E+03 -2.29402E+02 -6.17082E+03 -4.28140E+03
  1.02826E+03 -4.43151E+03  6.94668E+02 -9.86550E+03  2.11500E+02 -5.54997E+03  4.19632E+03 -3.99100E+03
  7.69709E+03  3.79282E+03  5.20037E+02 -1.47622E+03 -2.19779E+03  2.91133E+03 -1.14809E+03 -5.60839E+01
 -1.58700E+03 -2.84718E+03 -2.33366E+03 -5.98501E+02 -7.15362E+01  4.31578E+03 -8.27910E+02 -1.07378E+03
 -8.17216E+02 -1.70448E+03 -3.51481E+03  2.35928E+01  2.59813E+03 -4.34608E+03 -1.76331E+03  1.67179E+03
  3.44365E+03 -1.48122E+03  3.02867E+03 -2.73071E+03  3.42966E+03  4.41397E+03  9.78041E+02  5.63512E+03
 -9.89536E+02  6.32849E+03 -5.80777E+03  1.15171E+04 -3.72351E+03 -7.50119E+03  1.69146E+03 -7.04157E+03
 -1.69066E+03 -5.73286E+03  6.16152E+02 -4.72439E+03  5.33248E+03 -2.85285E+03  1.17896E+03 -6.83254E+02
  3.83602E+03 -6.15266E+02  4.26456E+03  1.98486E+02  4.06304E+03 -4.47402E+02  2.80033E+03  4.37882E+03
  1.85044E+03  2.07302E+03  7.74921E+03  1.00043E+03  2.63109E+03  3.46412E+02 -3.98367E+03 -1.51417E+03
 -3.33640E+03  5.63187E+02 -9.09718E+03 -1.52406E+03 -1.01078E+03  1.07355E+03  5.40401E+03 -2.43342E+03
  2.57606E+03 -2.46191E+03  8.02759E+03  1.50660E+03  3.85065E+03  2.82228E+03  8.56931E+02  2.65470E+03
  2.26159E+03  1.00225E+03  4.06256E+03  6.94583E+02 -4.55961E+03 -9.95522E+02 -2.82810E+03 -1.40116E+03
  2.54941E+03 -3.07149E+03 -8.95870E+03 -9.46712E+02 -1.60505E+02 -3.96985E+03 -1.12500E+03 -8.11897E+02
 -3.36510E+03 -3.90713E+03  1.75188E+03 -2.46312E+03 -5.50059E+02 -1.52208E+03  4.95637E+03 -2.42841E+03
  1.25650E+03 -1.83167E+03 -2.44951E+03  3.34212E+02 -9.62741E+02  1.89502E+03 -5.63686E+03  4.21173E+03
