 $NMID ID='MM_0lb_SNR50_18hz_g55_14.RAW', FMTDAT='(8E13.5)'
 TRAMP=1., VOLUME=1. $END
  3.15476E+05  3.01561E+03  3.31744E+05  2.44877E+05  8.57666E+04  3.41764E+05 -1.32033E+05  2.49425E+05
 -1.91082E+05  8.32102E+04 -1.09573E+05 -3.62142E+04  1.39793E+03 -5.06465E+04  5.45645E+04  2.23486E+03
  4.07652E+04  5.53506E+04 -1.35289E+04  7.74376E+04 -5.82895E+04  6.36523E+04 -8.19970E+04  3.46727E+04
 -7.92687E+04 -1.24040E+04 -5.90344E+04 -4.99830E+04 -8.96273E+03 -6.90115E+04  2.31269E+04 -4.27563E+04
  3.98899E+04  3.13760E+03  1.38326E+04  4.89550E+04 -2.96408E+04  4.94108E+04 -6.47262E+04 -6.99809E+02
 -4.92569E+04 -5.85047E+04 -6.47405E+03 -7.54173E+04  3.21656E+04 -5.24944E+04  4.50630E+04 -1.99019E+04
  4.47602E+04  1.14740E+04  2.96588E+04  2.49698E+04  2.02110E+04  2.35554E+04 -5.70348E+03  2.70424E+04
 -2.10776E+04  9.65422E+03 -1.81169E+04 -6.81287E+03  6.53143E+03 -6.29039E+03  2.16096E+04  1.34677E+04
  4.00273E+03  3.05481E+04 -3.13630E+04  3.51766E+04 -6.13417E+04  1.51731E+03 -6.07367E+04 -4.49454E+04
 -1.06761E+04 -5.87526E+04  4.16362E+04 -4.63553E+04  5.85664E+04 -1.19122E+03  3.49196E+04  3.60700E+04
 -2.43386E+03  3.37583E+04 -3.26098E+04  1.32649E+04 -2.86332E+04 -2.50340E+03 -1.46336E+04 -1.35274E+04
 -8.72208E+03 -1.05716E+04 -4.28951E+02 -1.76685E+04  5.91508E+03 -2.28194E+04  1.34860E+04 -1.33538E+04
  1.23692E+04  7.96794E+03 -9.15953E+03  1.49680E+04 -1.98792E+04 -4.99363E+03 -6.60404E+03 -3.24690E+04
  2.82657E+04 -3.94154E+04  4.72824E+04 -2.05826E+04  4.32130E+04  1.95230E+04  1.57816E+04  4.01920E+04
 -1.87333E+04  2.98329E+04 -2.59334E+04 -2.40297E+03 -9.13815E+03 -2.97558E+04  1.59198E+04 -3.18916E+04
  3.95766E+04 -9.61493E+03  3.19341E+04  2.49683E+04  1.38771E+04  4.07760E+04 -6.77423E+03  4.65099E+04
 -2.85220E+04  3.63047E+04 -3.77023E+04  1.04171E+04 -4.14404E+04 -1.44384E+04 -1.93576E+04 -3.82934E+04
  7.08408E+03 -3.56782E+04  2.89182E+04 -1.49563E+04  3.00960E+04  1.01333E+04  2.50973E+03  2.20117E+04
 -1.37348E+04  1.10046E+04 -1.37235E+04 -1.78802E+03  2.93983E+03 -6.94437E+03  2.02384E+04  5.15420E+03
  1.92542E+04  2.38748E+04 -5.30897E+03  2.48413E+04 -1.85854E+04  8.84941E+03 -2.75293E+04 -4.78289E+03
 -1.78101E+04 -1.30587E+04 -4.72669E+03 -2.22717E+04  4.25056E+03 -2.00289E+04  1.34626E+04 -1.20785E+04
  2.87721E+04 -1.10457E+04  3.23247E+04  3.62410E+03  2.25802E+04  1.79567E+04  4.00579E+03  3.37112E+04
 -1.25760E+04  2.62395E+04 -2.61241E+04  1.42692E+04 -1.74166E+04 -1.09860E+04 -4.21889E+03 -1.46811E+04
  3.91841E+03 -4.17034E+03 -3.71138E+03  3.56919E+03 -1.45315E+04  4.91769E+03 -1.40493E+04 -3.71360E+03
 -1.04087E+04 -1.91149E+04  3.68204E+03 -2.31625E+04  1.73963E+04 -1.51726E+04  1.79891E+04 -6.15819E+03
  8.16222E+03  1.36533E+04 -1.43460E+03  1.90813E+04 -1.07521E+04  8.25461E+03 -1.32039E+04 -1.15214E+03
 -1.25749E+04 -1.30020E+04  1.84310E+03 -2.42391E+04  8.95413E+03 -1.65523E+04  1.62534E+04 -6.31891E+03
  1.42167E+04 -5.03272E+03  9.73642E+03 -1.32637E+03  5.09532E+03 -2.12748E+03  2.25213E+03 -3.37109E+03
  1.62978E+04  8.63951E+02  1.80586E+04  1.37063E+04  1.19092E+04  2.65995E+04 -2.21981E+03  2.77874E+04
 -1.58249E+04  2.17030E+04 -2.58545E+04  1.20067E+04 -2.63180E+04 -2.22086E+02 -2.64209E+04 -1.48308E+04
 -1.59909E+04 -2.19693E+04  5.46863E+03 -2.23277E+04  2.02643E+04 -9.19691E+03  1.79751E+04  3.30110E+03
  4.44769E+03  8.89970E+03 -2.26367E+03  5.58327E+03 -1.28778E+04  1.93272E+03 -1.30613E+04 -6.79432E+03
 -2.25911E+03 -1.01385E+04  4.11387E+03 -7.23356E+03  5.73103E+03 -1.31554E+02  3.37487E+03  2.81704E+03
 -6.64107E+03 -4.71754E+02 -5.24186E+03 -4.20302E+03  4.31369E+03 -7.01503E+03  7.43908E+03 -1.28413E+04
  1.39928E+04 -6.88191E+03  1.49569E+04  1.95670E+03  1.44238E+04  1.10119E+04  8.57528E+03  1.91182E+04
 -2.23893E+03  1.93874E+04 -1.17816E+04  1.67189E+04 -1.45515E+04  1.86619E+03 -1.13887E+04  3.13822E+01
 -3.16236E+03 -1.64456E+03 -1.07634E+02  2.55484E+03 -4.52217E+03 -2.49240E+03 -2.68985E+03  4.17182E+03
 -1.00366E+04 -2.41178E+03 -9.67098E+03 -7.84801E+03 -2.79928E+03 -8.89829E+03  7.31803E+03 -7.67860E+03
  4.41610E+03 -4.03546E+03  5.82095E+03  2.65011E+03  1.24793E+03  3.45093E+03 -3.87578E+03 -1.50443E+03
 -3.86589E+03 -6.74259E+03 -3.41424E+03 -1.17160E+04  5.97887E+03 -1.31517E+04  1.25534E+04 -7.05260E+03
  1.53781E+04  6.17303E+03  7.94894E+03  1.83722E+03  1.44864E+03  1.02167E+04 -5.47877E+03  7.01590E+03
 -4.73550E+03  3.68517E+03 -2.56519E+03  1.07968E+03  2.92548E+03 -4.07879E+03  4.55379E+03 -3.48893E+03
  1.81746E+03  3.46470E+03  5.41843E+03  6.94725E+03 -1.32879E+03  4.91505E+03 -7.41312E+03  1.17160E+02
 -5.23785E+03 -4.21264E+03 -1.36942E+03 -7.24326E+03  5.72140E+03 -1.82770E+02  9.46493E+02  2.44053E+03
 -8.84194E+02  7.99130E+02 -1.84029E+03  8.90627E+03 -5.25574E+03  7.12762E+02 -4.94632E+03  1.19751E+03
 -6.48792E+03 -5.17090E+03  3.54846E+03 -7.11045E+03  7.66702E+03 -5.54362E+03  5.03371E+03 -1.71559E+03
  6.24143E+03  5.91011E+03  5.67230E+01  8.81385E+03 -4.91229E+03  6.24804E+03 -1.01685E+04 -3.36260E+03
 -6.10497E+03 -6.40864E+03 -9.25313E+02 -5.99940E+03 -2.06316E+03 -3.08000E+03  6.24471E+03 -2.58914E+03
  3.71611E+03  1.40394E+02 -2.59883E+03  4.01543E+03  8.61013E+02  1.12442E+03  5.14648E+03 -3.61501E+03
  3.41658E+03 -1.90331E+03  7.54132E+03  8.46751E+03  2.88329E+03  3.80661E+03  8.75882E+03  8.14883E+03
  3.98939E+03  9.06510E+03 -1.11961E+04  8.72857E+03 -1.06546E+04  1.40793E+03 -9.43396E+03 -8.11867E+03
 -9.02512E+03 -4.93838E+03 -2.57466E+03 -7.24936E+03  7.49824E+03 -1.37536E+03  5.87576E+03 -8.53537E+02
  2.89049E+03 -9.88029E+02  4.99645E+03 -1.06611E+03  4.53888E+03 -3.13487E+03  6.24324E+03  3.44841E+03
  4.16384E+03 -8.46114E+02  3.97697E+03  4.24692E+03 -3.61014E+03  5.26384E+03 -4.01287E+03  2.85320E+03
 -3.44044E+03 -1.01392E+03 -6.11281E+02 -3.40131E+03 -1.03560E+03 -7.75165E+03  5.48913E+03 -5.98896E+03
  2.33291E+03 -3.95519E+03  8.71001E+03 -1.36942E+03  2.09122E+03  8.08988E+03  2.68524E+03  5.47203E+03
 -9.39660E+02  5.73957E+03 -2.56980E+03  3.79560E+03  1.84404E+03 -1.64363E+03 -1.45960E+03  2.74762E+03
 -2.12960E+03  2.36631E+03 -3.32584E+02 -1.52472E+02 -7.81926E+03  1.87403E+03 -3.74697E+03 -1.86428E+03
 -4.21938E+03 -2.49056E+03  2.21650E+03 -3.72244E+03  3.83542E+03 -2.03492E+03  7.86869E+03 -3.54020E+03
 -5.61625E+01  3.48490E+03 -1.82717E+03  4.32137E+03 -5.00960E+02 -2.78470E+02 -5.29399E+02  1.40508E+03
 -3.63645E+03 -2.74552E+02 -7.10942E+03 -2.11487E+03 -2.44008E+03 -3.63768E+03  1.32715E+03 -1.85792E+03
  3.80301E+03 -1.39212E+03 -1.06169E+03 -5.89267E+02 -1.69394E+02 -2.04205E+03 -9.36103E+02 -8.12660E+02
 -1.81772E+03 -9.38001E+01  4.44228E+03  4.82136E+03  2.18071E+03  1.96910E+03 -1.01690E+03  1.52041E+03
 -6.64216E+03  2.92859E+03 -2.22745E+03  7.47346E+03 -9.06570E+02  3.58698E+03 -5.06609E+03  1.00721E+02
 -2.57059E+03  4.11626E+02  1.13323E+03 -1.63684E+03  1.21962E+03  2.32690E+03  4.40674E+03  4.83986E+03
 -3.25473E+02  2.09219E+03  4.41199E+03 -6.80429E+02 -4.37701E+03  5.06976E+03 -1.46012E+03 -3.75737E+03
 -6.99453E+02 -4.97777E+03  1.91032E+03  2.24298E+03  7.40352E+02  1.92214E+03  3.38550E+03  3.50119E+02
  4.37338E+03 -6.21991E+02  2.29778E+03 -6.30950E+03  7.09426E+02  1.09029E+03  1.09147E+03  1.28909E+03
  5.62320E+03  2.11618E+03  6.40146E+02 -1.55838E+03 -1.09621E+03  4.10651E+03  8.46359E+02  2.26938E+03
  3.40332E+03  5.04263E+01  1.14398E+03 -4.38399E+02 -2.69944E+03 -9.55637E+01 -8.36441E+02  9.37112E+01
 -1.75105E+03 -4.50555E+03  6.82184E+03 -1.12554E+03  4.18243E+03 -1.37391E+03 -3.35412E+03  1.72985E+03
 -1.77795E+03 -2.34104E+02  3.40192E+03 -2.40215E+03 -4.72813E+03 -8.38091E+02  3.87616E+02 -9.27696E+02
  3.49799E+03 -1.79361E+03  3.71698E+02  3.97342E+03  1.70276E+02  2.27721E+03 -2.07718E+03  2.38104E+03
  1.75228E+03 -1.95376E+02  1.17651E+02 -1.11136E+03 -1.88886E+03 -2.38612E+03 -6.20726E+02  4.17711E+03
  1.60394E+03  2.16604E+02  2.68002E+03 -1.30148E+02  7.16842E+02  2.62893E+03 -7.71751E+02  1.35822E+03
 -1.55563E+03 -1.08482E+03  5.71019E+02 -2.48224E+03  1.77491E+03 -6.91248E+02 -2.70092E+03  3.04267E+03
  2.56636E+03 -4.26321E+03  3.82756E+03 -1.69031E+03  4.33142E+02  2.98226E+02  4.35037E+03  9.59918E+02
 -4.60099E+03  1.23392E+03 -4.80690E+02  2.75584E+03 -4.96389E+03  6.53676E+02 -2.47238E+03 -2.65159E+03
 -2.76253E+03  1.79930E+03  1.23700E+02  1.31037E+03 -4.70679E+03 -3.49563E+03 -4.21933E+03 -2.83185E+03
 -2.57438E+03 -2.72851E+03  2.08412E+03 -4.36417E+03  5.14083E+02 -6.41597E+03  3.46316E+03 -1.27433E+03
  2.31108E+02  9.67650E+02  4.90382E+03  2.44494E+02  5.60223E+03  4.37393E+03 -1.30848E+03  4.38383E+03
  2.59626E+02  2.58183E+03  8.70870E+02  2.24027E+03 -2.43586E+03 -2.09621E+03  4.44940E+03  1.49970E+03
 -5.03690E+03 -2.17606E+03  3.02947E+03 -6.80534E+02 -1.21138E+03  1.07008E+03  6.29937E+03 -9.39730E+02
  2.14162E+03 -3.12575E+03  1.96794E+03  2.42516E+02 -2.65138E+03 -2.63217E+03  3.89838E+03  4.29761E+03
  3.00579E+02  3.62463E+02 -4.21950E+03  3.52361E+03 -2.41296E+03 -9.21589E+02 -2.31204E+03  5.95824E+02
 -2.20000E+03 -5.15588E+03  1.21362E+03 -3.28418E+03  9.94579E+01 -1.60210E+03  2.06066E+03  5.50328E+02
  1.40604E+03  3.79850E+03 -2.54941E+03 -3.67107E+03 -4.61343E+02  3.29311E+03  2.38332E+03 -1.76657E+03
  1.27196E+02  1.07117E+03  3.83612E+03 -6.17442E+02  1.40574E+03 -4.50597E+02  9.34160E+01 -1.80090E+03
 -3.97228E+03  1.93538E+02 -1.67853E+03  2.76922E+03 -3.33983E+03  1.73040E+03 -1.90396E+03 -4.18903E+02
  3.23977E+03 -2.48051E+03 -2.93075E+03  8.73190E+01  5.11169E+03 -2.62269E+03  5.46538E+03 -2.41147E+03
 -1.12203E+03  4.48311E+03 -4.65794E+02 -1.32685E+03 -2.59955E+03 -1.47502E+03  7.73745E+02 -1.76508E+03
  5.88116E+02 -6.97454E+02 -4.73996E+02 -2.19551E+03 -2.43929E+03 -1.28076E+02  1.95351E+03 -1.07802E+03
 -3.81649E+03 -3.09888E+02  1.09776E+03  3.51238E+02 -2.63988E+03  1.83288E+03 -1.13887E+03  2.32834E+03
 -1.38230E+03  7.60155E+02  8.02082E+02 -1.31772E+03  5.58642E+02  3.32639E+03 -6.16100E+03  2.62974E+03
