 $NMID ID='MM_0lb_SNR50_14hz_g55_92.RAW', FMTDAT='(8E13.5)'
 TRAMP=1., VOLUME=1. $END
  3.07676E+05 -1.26996E+03  3.40170E+05  2.48187E+05  8.21655E+04  3.37767E+05 -1.33228E+05  2.57575E+05
 -1.87429E+05  8.50359E+04 -1.15688E+05 -2.96956E+04 -4.27079E+03 -5.21506E+04  5.29577E+04  5.89968E+02
  3.76362E+04  5.21121E+04 -1.69937E+04  7.57063E+04 -5.81675E+04  5.63374E+04 -8.23328E+04  2.51903E+04
 -8.18763E+04 -9.86860E+03 -5.84675E+04 -5.57753E+04 -1.64173E+04 -6.52593E+04  2.88464E+04 -4.94486E+04
  4.21702E+04  4.78777E+03  1.70728E+04  4.49566E+04 -3.58722E+04  4.72021E+04 -7.10353E+04  2.47369E+02
 -5.07364E+04 -6.06118E+04 -6.14700E+03 -7.70538E+04  3.34869E+04 -5.30925E+04  4.82742E+04 -2.20147E+04
  4.11677E+04  1.13285E+04  3.26359E+04  2.10302E+04  1.66933E+04  2.69241E+04 -4.32351E+03  2.53571E+04
 -2.62750E+04  9.82866E+03 -1.47939E+04 -9.73801E+03  9.92467E+03 -5.10428E+03  2.45835E+04  1.05736E+04
  7.40136E+03  3.36500E+04 -3.15394E+04  3.75276E+04 -6.94306E+04  3.01961E+03 -5.95747E+04 -4.66860E+04
 -1.05570E+04 -6.33186E+04  4.06159E+04 -4.55957E+04  5.74170E+04 -2.28668E+03  4.11333E+04  2.97359E+04
 -9.16946E+03  4.26595E+04 -2.98353E+04  1.51522E+04 -3.20821E+04 -9.19987E+03 -1.91606E+04 -1.43004E+04
 -7.10925E+03 -1.68421E+04  1.32751E+03 -2.16525E+04  5.99323E+03 -2.70974E+04  1.38124E+04 -1.15905E+04
  1.35771E+04  6.05441E+03 -1.45542E+04  1.47283E+04 -2.59332E+04 -4.74052E+03 -4.10106E+03 -3.65722E+04
  2.15715E+04 -4.69408E+04  4.55307E+04 -2.08758E+04  4.49873E+04  1.94357E+04  1.68626E+04  4.85269E+04
 -1.61615E+04  3.24641E+04 -2.33445E+04  2.00339E+03 -9.84663E+03 -2.91169E+04  2.28034E+04 -3.56246E+04
  4.05118E+04 -5.32330E+03  4.52778E+04  1.98039E+04  1.62070E+04  4.52163E+04 -9.08050E+03  4.99095E+04
 -3.21166E+04  3.18463E+04 -4.12358E+04  6.07271E+03 -4.38089E+04 -1.53258E+04 -2.34016E+04 -3.72304E+04
  8.44323E+03 -4.10766E+04  3.36981E+04 -1.15946E+04  2.95970E+04  1.38322E+04 -1.75941E+03  1.49472E+04
 -1.56602E+04  1.05137E+04 -7.74596E+03 -8.44776E+03  2.99968E+03 -1.45105E+04  1.51189E+04  7.24646E+03
  1.42767E+04  2.35011E+04 -7.59373E+03  2.66688E+04 -2.21746E+04  8.71180E+03 -2.75855E+04 -1.25242E+03
 -1.94045E+04 -1.49474E+04 -8.87116E+03 -2.10817E+04  1.54819E+03 -1.87014E+04  1.93303E+04 -1.87701E+04
  2.20493E+04 -1.35061E+04  3.07666E+04 -5.37245E+03  2.99380E+04  2.08453E+04  5.35472E+03  3.53297E+04
 -1.99243E+04  3.42170E+04 -2.87625E+04  1.64068E+04 -1.80771E+04 -7.89948E+03 -4.79899E+03 -9.54396E+03
  1.26460E+03 -5.82515E+03 -3.38802E+03  3.39150E+03 -1.52085E+04  8.66910E+03 -1.74022E+04 -8.45190E+03
 -9.23595E+03 -1.89821E+04  5.46013E+03 -2.27540E+04  1.46907E+04 -1.54035E+04  1.58143E+04 -4.33777E+03
  1.04745E+04  1.35668E+04 -6.39579E+03  1.78857E+04 -1.44531E+04  7.95715E+03 -2.09061E+04 -2.61314E+03
 -1.05972E+04 -1.60095E+04 -1.97405E+03 -2.42903E+04  1.41682E+04 -1.53219E+04  1.60914E+04 -1.14924E+04
  1.91139E+04  4.98504E+02  1.14894E+04 -2.11783E+02  1.23322E+04  4.41798E+03  5.84111E+03 -5.64487E+01
  1.91982E+04  4.45563E+03  2.08719E+04  1.73534E+04  1.07410E+04  3.61682E+04 -3.36022E+03  3.76449E+04
 -2.11547E+04  2.83866E+04 -3.63467E+04  1.17194E+04 -3.61932E+04 -1.33453E+03 -2.94299E+04 -2.03935E+04
 -9.60159E+03 -2.58618E+04  1.93698E+04 -2.60235E+04  1.96786E+04 -1.37003E+04  2.08839E+04  7.72782E+03
  7.40681E+03  1.40551E+04 -1.07133E+04  1.83547E+04 -2.00951E+04  4.46401E+03 -1.31305E+04 -1.13078E+04
 -1.41661E+03 -1.90581E+04  5.45719E+03 -1.22465E+04  7.13021E+03 -6.11043E+03  6.61998E+03  5.22257E+03
 -9.19245E+03  2.87522E+03 -1.07611E+04 -4.73243E+03  1.65540E+03 -1.41285E+04  1.17982E+04 -9.74145E+03
  1.93950E+04 -7.16588E+03  1.63882E+04  1.54979E+03  1.38480E+04  1.27424E+04  7.29504E+03  2.68500E+04
 -2.52560E+03  2.20865E+04 -1.56500E+04  1.43240E+04 -1.85922E+04  2.38999E+03 -8.60040E+03  5.75007E+02
 -8.28820E+03 -1.35515E+03  4.40593E+03 -8.65853E+02 -1.14419E+03  3.10235E+03 -3.76052E+03  5.17878E+03
 -1.28869E+04 -2.00729E+03 -1.46972E+04 -9.16194E+03 -4.06786E+03 -1.82455E+04  3.04845E+03 -1.20731E+04
  1.01798E+04 -6.45443E+03  6.86803E+03  4.36872E+03  1.22474E+03  5.79528E+03 -6.17878E+03 -1.60225E+03
 -6.69609E+03 -2.24768E+03 -3.15627E+03 -1.01341E+04  3.84503E+03 -1.23523E+04  1.30660E+04 -2.62589E+03
  1.74474E+04 -9.81782E+02  1.29366E+04  1.40895E+04  2.55811E+03  1.52088E+04 -9.62109E+03  1.39371E+04
 -1.22620E+04  4.93392E+03 -4.06602E+03 -8.91084E+03  2.98711E+03  1.31616E+03  4.99594E+03  1.78088E+03
  6.88688E+03  7.96984E+03  1.46249E+02  8.83031E+03 -1.02759E+04  7.09329E+03 -1.26906E+04  2.84112E+03
 -9.36053E+03 -8.45348E+03  1.01792E+03 -9.47038E+03  4.67695E+03 -5.17525E+03  7.86588E+03 -7.43528E+02
  2.71088E+03  5.29268E+03 -8.93204E+03  9.74762E+03 -9.82613E+03  2.16892E+03 -1.04096E+04 -4.31086E+03
 -2.99583E+03 -1.18702E+04  6.26542E+02 -1.52076E+04  9.08494E+03 -7.40969E+03  7.16729E+03  2.46112E+03
  1.32539E+04  1.23434E+04 -1.59787E+02  1.18329E+04 -3.44638E+03  7.68908E+03 -9.35995E+03 -3.62533E+03
 -8.74207E+03 -1.08941E+04 -2.18555E+03 -9.50417E+03  5.63580E+03 -9.30817E+03  1.58177E+03 -4.52838E+03
  3.21703E+03  7.93857E+02 -8.27054E+02  3.06560E+03 -8.30699E+01 -7.48167E+02  5.42834E+02 -7.91724E+03
  5.50545E+03 -6.59891E+03  1.30868E+04 -4.24955E+03  1.25804E+04  1.34249E+04  6.03258E+03  1.05523E+04
 -4.81655E+03  1.37207E+04 -1.37897E+04  8.07307E+03 -1.34235E+04  1.46872E+03 -1.43763E+04 -6.77472E+03
 -7.47388E+03 -1.18803E+04  1.58963E+03 -6.21362E+03  5.95876E+03 -4.48608E+03  2.11723E+03 -2.66396E+03
  1.04990E+03 -2.98852E+03  1.36045E+03 -4.10991E+02  8.28093E+02 -4.11677E+03  5.98782E+03 -3.51030E+03
  1.01568E+04 -1.86623E+03  5.48581E+03  9.83801E+03 -4.81790E+03  7.43483E+03 -7.74901E+03  7.99126E+03
 -1.14829E+04 -2.53439E+03 -6.78921E+03 -8.20425E+03 -9.10152E+02 -1.22965E+04  3.79997E+03 -8.69420E+03
  7.80394E+03 -5.11770E+03  1.09511E+04 -2.26639E+03  3.03524E+03  6.38767E+03  2.22816E+03  7.69211E+03
  7.88800E+02  1.24693E+04 -1.17397E+04  2.73791E+03 -5.03635E+03 -1.10643E+03 -1.49558E+03  3.77450E+03
 -4.41213E+03  1.01907E+03 -2.86671E+03  3.07753E+03 -6.83777E+03  1.99813E+03 -6.92982E+03  1.11807E+03
 -8.06807E+03 -1.65889E+03  2.36572E+02 -7.79870E+03  1.02873E+04 -1.32785E+04  1.11563E+04 -2.51747E+03
  4.54866E+03  5.27726E+03  2.08500E+02  6.45408E+03  1.32434E+03  1.08149E+04 -1.18466E+04  1.17819E+04
 -1.33917E+04  1.08331E+02 -8.15764E+03 -8.13045E+03 -1.46610E+03 -5.45825E+03  5.73603E+03 -4.24740E+03
  6.87031E+03 -5.47143E+03  2.34036E+03 -3.62033E+03  5.78906E+03  1.28065E+02  1.00903E+03  4.27628E+02
  3.21522E+03  1.12075E+03  5.07987E+03  2.79466E+03  4.47283E+02  2.81690E+03  3.61298E+03 -1.92172E+03
  7.86176E+00  5.97710E+03  3.99675E+02  8.14358E+03 -8.43465E+03  1.46272E+03 -7.73385E+03 -1.64095E+02
 -7.52048E+03 -9.26961E+03 -1.34293E+03 -1.24031E+04  3.22250E+03 -4.38280E+03  9.40197E+03 -1.29801E+02
  3.87704E+03  6.93410E+03  4.48252E+03  1.50745E+03 -3.83858E+03  2.01796E+03  5.67854E+02  3.59417E+03
 -3.27665E+03 -6.02690E+03  6.94362E+03 -1.89988E+03  9.07748E+02  1.70691E+03  3.35358E+02  1.45209E+03
  5.16106E+03  2.05147E+03  4.62688E+03 -5.33792E+03 -8.07971E+03  1.93393E+03  3.53361E+02 -4.71054E+02
 -6.77564E+02 -4.28664E+03  4.08765E+03 -3.81797E+02  8.20992E+02  1.90549E+03  2.26594E+03  3.85547E+03
 -4.83108E+03  1.05367E+03 -7.08831E+03 -5.10505E+03 -4.59628E+03 -2.72286E+03 -2.58428E+03 -1.20737E+03
  4.80506E+03 -2.63296E+03  1.72484E+03  2.45481E+03  3.05088E+03  3.29186E+03  7.70026E+02  8.15688E+02
 -1.92471E+03  3.25424E+03 -7.10019E+03 -1.21532E+03 -4.30978E+03 -4.63501E+03 -1.06835E+03 -2.19129E+03
  2.01055E+03 -3.99902E+03  4.75538E+03  1.66279E+03  3.24548E+03 -1.98011E+03 -1.32057E+03  1.75336E+03
 -1.68267E+03 -2.10951E+03 -3.06920E+03  2.13449E+03 -1.01578E+03 -5.87558E+03  3.58223E+03 -5.94233E+03
  7.81859E+03 -2.63683E+02  2.78859E+03 -4.71009E+03 -1.61662E+03  2.78985E+03 -1.15252E+03  6.57827E+03
 -8.55934E+03  1.44866E+03 -4.73806E+03 -1.73096E+03 -3.13373E+03 -6.29936E+03  2.67579E+03 -4.41036E+03
 -2.36889E+03 -2.01952E+03  3.94821E+03  4.22636E+03  5.62763E+03 -2.44576E+03  1.83569E+03  2.47659E+03
  2.56558E+03  1.32190E+03 -1.26900E+03  1.00101E+01  2.79620E+03  6.88888E+03  1.38550E+03  7.04307E+01
 -1.00584E+03 -6.89839E+03  1.02511E+03 -3.05565E+02 -8.18789E+03 -4.58126E+03 -7.78383E+03 -1.28327E+03
 -4.01353E+03 -7.94890E+03  9.46518E+02 -4.53533E+03  5.53816E+03 -8.98582E+03  5.16123E+03 -3.08972E+03
  1.96644E+03  9.01470E+03  5.33298E+03  6.63141E+03 -3.50457E+03  2.46199E+03 -5.10769E+01  2.59943E+03
 -5.65584E+03  1.21304E+03 -5.64114E+02  2.82729E+03  8.55340E+02 -4.19872E+01 -3.49471E+03  1.67132E+03
 -4.44666E+03  3.20684E+03 -1.46447E+03 -9.64532E+02 -1.98533E+03 -8.34238E+03 -1.21554E+03 -5.97368E+03
  5.69122E+03  1.68065E+02  3.07186E+02 -3.49645E+03  4.07910E+03  4.51733E+03  5.32935E+02  6.01916E+03
  1.94689E+03  4.11067E+03 -1.69189E+03  1.95239E+03 -7.08529E+03 -3.73820E+03 -6.42142E+03 -8.21553E+03
 -2.07219E+03 -8.63848E+03  1.71735E+03 -5.13898E+03  6.36183E+02 -5.59965E+03 -3.59697E+03  4.68838E+03
 -2.23866E+03 -1.55924E+03  7.65589E+02  2.88090E+02 -3.28163E+03  1.09569E+03 -4.84268E+03 -2.08134E+03
  2.31690E+03 -1.50380E+03  9.45760E+03  2.81635E+03  2.27558E+03  3.90758E+03  2.24438E+03 -2.12812E+03
 -2.26334E+03  5.60927E+03 -6.69301E+03 -2.85874E+03 -1.81529E+03  2.60332E+03 -1.99109E+03 -3.30294E+03
  1.56870E+03  1.17191E+03  3.56243E+03 -1.96074E+03  5.71893E+03  3.68444E+03  9.18094E+02 -4.02374E+03
  4.07490E+03  1.77977E+03  1.22458E+02  2.21422E+03  3.60541E+03  1.46014E+03 -2.73067E+03  1.26435E+03
  1.43840E+03 -2.57859E+03 -1.64462E+03 -6.62245E+02 -7.23714E+03  1.45989E+03 -1.22564E+02 -7.86022E+02
 -1.79194E+03  1.62733E+03 -5.33785E+02 -1.03410E+03 -8.08690E+02 -4.35520E+03  2.65360E+03 -7.80543E+02
  3.44546E+03 -2.68735E+03  1.07387E+03  3.15022E+03  3.74640E+03 -3.99498E+02 -3.86971E+03  4.66132E+01
