 $NMID ID='MM_0lb_SNR50_15hz_g40_28.RAW', FMTDAT='(8E13.5)'
 TRAMP=1., VOLUME=1. $END
  3.11566E+05 -2.46137E+02  3.41962E+05  2.50919E+05  8.03866E+04  3.40025E+05 -1.39055E+05  2.49378E+05
 -1.91598E+05  8.34940E+04 -1.09660E+05 -3.31806E+04  1.78173E+03 -5.34635E+04  5.04950E+04 -7.33218E+02
  3.66931E+04  5.22402E+04 -1.85886E+04  6.97214E+04 -5.83440E+04  6.40523E+04 -9.05615E+04  2.80757E+04
 -7.84473E+04 -7.43094E+03 -5.53705E+04 -5.06116E+04 -1.32367E+04 -6.51878E+04  2.98498E+04 -4.06940E+04
  3.84099E+04  2.42500E+03  1.39472E+04  4.93590E+04 -3.41337E+04  5.15924E+04 -6.83924E+04 -1.49956E+03
 -5.54009E+04 -5.98352E+04 -4.42816E+03 -7.79487E+04  3.13595E+04 -5.32137E+04  4.95141E+04 -1.97491E+04
  4.42651E+04  1.13444E+04  3.54638E+04  2.11543E+04  1.65846E+04  2.30174E+04 -7.44489E+03  2.58585E+04
 -2.65660E+04  1.07651E+04 -1.64384E+04 -3.19533E+03  1.23670E+03 -5.84266E+03  2.32278E+04  1.15469E+04
  1.02096E+04  3.21186E+04 -3.48883E+04  3.59106E+04 -5.95469E+04  6.41073E+03 -5.64022E+04 -4.45138E+04
 -1.40438E+04 -6.28766E+04  3.22115E+04 -4.64464E+04  6.21346E+04 -6.71927E+03  3.29482E+04  2.90044E+04
 -7.09387E+03  3.38322E+04 -2.65034E+04  1.19943E+04 -3.05668E+04 -7.05497E+03 -1.62885E+04 -1.33756E+04
 -6.74343E+03 -1.14651E+04 -2.21805E+03 -1.67950E+04  3.97782E+03 -1.90724E+04  1.75069E+04 -1.11803E+04
  1.56016E+04  4.22676E+03 -8.89557E+03  1.03356E+04 -2.19230E+04 -3.98244E+03 -6.57159E+03 -3.58563E+04
  2.24580E+04 -4.06167E+04  4.50656E+04 -1.61309E+04  4.44907E+04  1.87115E+04  1.27481E+04  4.50608E+04
 -1.35223E+04  3.15438E+04 -2.53330E+04 -6.51275E+02 -6.43816E+03 -2.14451E+04  2.02716E+04 -3.09398E+04
  4.39972E+04 -6.09553E+03  3.31724E+04  2.31977E+04  1.70485E+04  4.58165E+04 -1.01046E+04  4.08228E+04
 -3.01388E+04  3.38836E+04 -3.61458E+04  1.14435E+04 -4.10099E+04 -1.66391E+04 -2.53980E+04 -3.79056E+04
  6.21825E+03 -3.50136E+04  2.71937E+04 -1.27464E+04  3.36446E+04  6.41464E+03  3.58947E+03  1.49825E+04
 -1.31067E+04  4.73250E+03 -1.27889E+04 -7.25965E+03  2.81050E+03 -1.16507E+04  1.34240E+04  8.56711E+03
  1.01420E+04  1.93092E+04 -3.05252E+03  2.45215E+04 -2.01161E+04  9.61798E+03 -2.52681E+04 -2.75185E+03
 -1.84890E+04 -1.24638E+04 -5.28079E+03 -1.69124E+04  1.79797E+03 -1.85594E+04  1.24436E+04 -1.79187E+04
  2.64870E+04 -1.08384E+04  2.75509E+04  9.64644E+02  2.00063E+04  1.96631E+04  4.76833E+03  3.33466E+04
 -1.90247E+04  2.97066E+04 -2.75500E+04  5.52256E+03 -2.13698E+04 -9.22597E+03 -8.34311E+03 -1.77732E+04
  1.08937E+03  3.76124E+02 -2.64383E+03  7.62460E+03 -1.39433E+04  4.69088E+03 -1.88404E+04 -1.22624E+04
 -4.77086E+03 -1.81635E+04  4.68693E+03 -2.42316E+04  1.45263E+04 -1.58098E+04  2.06437E+04 -1.27583E+03
  9.31043E+03  1.44637E+04 -9.37540E+02  2.27749E+04 -7.92695E+03  1.41623E+04 -1.22317E+04 -6.10910E+03
 -1.56523E+04 -1.72486E+04 -1.05394E+03 -2.20973E+04  9.77249E+03 -1.61636E+04  1.70097E+04 -1.01571E+04
  1.63159E+04  1.28055E+02  1.27449E+04  4.20675E+03  5.11172E+03  8.44420E+03  4.12725E+03 -1.84899E+01
  2.13097E+04 -1.55196E+02  1.86359E+04  1.46941E+04  1.08642E+04  2.60025E+04 -3.90003E+03  3.28845E+04
 -1.75422E+04  2.10626E+04 -3.11152E+04  1.18474E+04 -3.10633E+04 -6.72589E+03 -2.88703E+04 -2.17022E+04
 -1.20335E+04 -2.25166E+04  9.70933E+03 -2.24863E+04  1.51302E+04 -1.58316E+04  2.07487E+04  5.73814E+03
  7.92600E+03  1.60406E+04 -1.05124E+04  1.48703E+04 -1.54423E+04 -3.31578E+03 -1.40411E+04 -1.05831E+04
  6.98412E+01 -1.41890E+04  8.13276E+03 -1.11425E+04  1.06468E+04  1.04230E+03  3.14632E+03  6.46432E+03
 -2.80140E+03  5.41878E+03 -5.28198E+03 -1.69162E+03  2.09672E+03 -9.69247E+03  7.85102E+03 -1.12320E+04
  1.49188E+04 -5.13543E+03  1.49556E+04  4.70355E+03  2.13579E+04  1.26415E+04  3.19916E+03  1.84352E+04
 -2.80386E+03  1.98482E+04 -1.31028E+04  1.26723E+04 -1.65070E+04  2.84226E+03 -9.27457E+03 -2.06972E+03
 -6.72661E+03 -3.79782E+03 -4.71927E+02  5.24071E+03 -3.37236E+03  1.99613E+03 -4.21920E+03  5.48339E+03
 -1.04169E+04 -6.09357E+01 -1.18633E+04 -7.70011E+03 -8.68206E+03 -1.07772E+04  3.83808E+03 -1.06417E+04
  1.03620E+04 -5.37524E+03  3.03960E+03  1.18125E+03 -2.16020E+03  3.09749E+03 -4.86317E+03 -1.26590E+03
 -4.20024E+03 -3.87244E+03 -3.60235E+03 -8.78358E+03  7.33220E+03 -1.37641E+04  1.60782E+04 -6.57394E+03
  1.28953E+04 -5.41601E+02  1.03080E+04  1.57278E+04  3.39682E+03  1.50973E+04 -7.63960E+03  1.08294E+04
 -9.50861E+03  6.42577E+03 -1.28518E+03 -3.44110E+03 -1.28392E+03 -7.54880E+02  8.14529E+03  1.52058E+03
  2.46349E+03  7.76303E+03  4.04874E+03  1.03459E+04 -2.00087E+02  6.77838E+03 -1.54596E+04  2.62218E+03
 -5.53343E+03 -4.92798E+03 -8.32923E+01 -8.80389E+03  2.76269E+03 -3.91319E+03  6.37144E+03  1.00802E+03
  4.45996E+03  9.80435E+03 -4.86242E+03  8.15912E+03 -7.97737E+03  3.47825E+03 -8.84880E+03 -2.37376E+03
 -3.56028E+03 -1.08573E+04  4.46682E+03 -1.21263E+04  6.52749E+03 -2.44160E+03  6.31678E+03  1.69353E+03
  3.34992E+03  1.02673E+04  2.16267E+03  1.10780E+04 -6.17772E+03  4.66720E+03 -5.86698E+03  3.75496E+03
 -1.19142E+04 -9.10642E+03  1.12655E+03 -4.71541E+03  1.81734E+03 -4.73609E+03  2.93109E+03 -4.78714E+03
  5.81469E+03 -2.26808E+03  5.79927E+02  2.41265E+03  2.97228E+03 -1.62885E+03  1.10628E+03 -3.38511E+02
  4.65378E+03 -1.36705E+03  1.10936E+04 -2.28597E+03  3.43154E+03  6.12541E+03  9.49135E+02  1.28846E+04
 -3.42347E+03  1.57466E+04 -6.96834E+03  1.22382E+04 -1.21330E+04 -1.36399E+03 -1.06290E+04 -9.05168E+03
 -6.42545E+03 -6.49639E+03  1.16563E+03 -6.30473E+03  4.03024E+03 -3.06588E+03  2.25375E+03 -9.81892E+02
 -1.33105E+03 -3.57678E+03  1.83288E+03  3.25967E+02  7.76785E+03 -4.65681E+03  3.13014E+03  4.03810E+03
  7.05888E+03  5.51512E+03 -2.38961E+03  3.65856E+03 -7.96120E+02  8.20215E+02 -1.63441E+03  8.90199E+03
 -1.05098E+04 -5.65711E+03 -2.83838E+03 -1.59159E+03  4.42897E+03 -9.73356E+03  1.32765E+03 -9.81604E+03
  1.14007E+04 -4.82191E+03  8.61419E+03  4.03466E+02 -9.60956E+02  1.03682E+04  1.06549E+02  8.83754E+03
 -4.35827E+03  1.13331E+04 -5.37570E+03  8.97064E+03 -3.84407E+03 -1.28411E+03  1.05736E+03  9.71020E+02
  1.42710E+03  1.07192E+03 -9.73209E+02  4.28866E+03 -5.04985E+03  2.91602E+02 -4.01691E+03  3.33922E+02
 -2.18078E+02 -2.00482E+03  4.88804E+03 -5.26113E+03  1.88701E+03 -5.78274E+03  8.06935E+03 -4.15848E+03
  4.43243E+03  2.43043E+03  3.41005E+03  8.33313E+03 -2.89060E+03  7.25609E+03 -5.30013E+03  5.88607E+03
 -7.95860E+03 -8.58917E+02 -4.80001E+03 -4.55701E+03 -1.68983E+02 -5.95651E+03  2.30953E+03 -2.94396E+03
  4.52609E+03 -2.69544E+02  3.14643E+03  8.92810E+02 -1.18483E+03  3.14012E+03  2.76556E+03  1.38389E+03
  2.36272E+03  1.85988E+03  1.28078E+03  2.29529E+02  1.67775E+03  1.29052E+03  2.28851E+03  6.21169E+03
 -3.13367E+03  6.87357E+03 -5.21332E+03  1.19804E+04 -9.44233E+03 -3.32425E+02 -9.59796E+03 -1.40124E+03
  9.73711E+02 -2.86441E+03  5.06379E+03 -5.16377E+03  5.07497E+03 -5.00736E+03  6.32159E+03 -6.73415E+02
  7.40428E+03 -1.09465E+02  1.05091E+03  7.87820E+03 -4.52778E+03 -3.50353E+03 -2.37778E+03 -2.85672E+03
  4.69279E+02 -4.38254E+03  3.68943E+03  3.08261E+02  3.29875E+03 -3.13827E+03  4.74956E+02 -1.70538E+03
  2.68651E+02  2.64157E+03  2.09513E+03  3.67227E+03  3.07101E+02  8.78788E+02 -1.51784E+03 -3.15174E+03
  5.30328E+03  1.48737E+03  4.21163E+03  1.88951E+03  3.10539E+02  8.92677E+02  1.03749E+03  6.65298E+03
 -5.90493E+02  3.25898E+03 -6.76797E+03  2.83262E+03 -3.15968E+03  2.64895E+03  4.34749E+02 -8.01068E+02
 -2.19267E+03 -1.50394E+03  1.45615E+03 -1.06101E+03 -4.67130E+02  5.10409E+03  8.48906E+02  2.14127E+02
 -1.92125E+02  8.59735E+01 -3.65462E+03 -2.63687E+02 -2.18475E+01 -2.91814E+03  1.92752E+02 -4.36532E+03
  2.72729E+03 -2.50846E+03  5.82559E+03  3.20306E+02  3.02442E+02  4.53334E+03  5.11495E+02  7.64777E+02
 -2.78048E+03 -3.70665E+03 -7.47149E+03 -8.38728E+02 -2.03804E+03  2.49476E+03  4.13197E+03 -3.98132E+03
  3.16641E+03 -2.24620E+02  1.72728E+03  2.22714E+03  3.85453E+03  6.46302E+03 -4.42497E+03  7.87664E+03
 -3.44637E+03  1.91539E+03 -3.58812E+03  1.67780E+03  1.21079E+03 -4.97385E+03 -9.69452E+02 -2.83871E+03
  6.22705E+03 -3.57515E+03 -5.93061E+03 -2.37096E+03 -1.55555E+03  4.23990E+03 -3.82117E+03  5.69362E+03
 -4.09152E+03  4.11606E+03  2.51574E+02 -1.54253E+03  3.25016E+03  1.17045E+03 -3.01079E+03  3.22973E+03
 -2.51242E+03  2.11019E+02 -5.05765E+03  2.88370E+02  8.93369E+02  6.95330E+01 -3.03373E+03 -3.39716E+03
 -1.65688E+03 -6.09431E+03 -4.20906E+03 -5.13641E+03  3.57510E+03 -7.76832E+03  4.31873E+03 -4.36046E+02
  3.67315E+03  1.19917E+03  4.04007E+02  1.59650E+03  6.32390E+03  3.04179E+03 -4.61735E+03  2.91397E+02
 -1.21385E+03 -1.95555E+03  2.13620E+02 -4.29508E+02 -5.48139E+03  2.15928E+03 -4.29360E+03  1.74201E+03
 -5.30489E+03  5.07874E+02  1.89949E+03  4.84941E+03  5.75542E+03 -5.80084E+03 -1.55427E+03 -2.61631E+03
  5.84247E+01 -8.07442E+03 -2.69426E+02  3.23734E+03  2.06603E+03 -1.43087E+03  6.54859E+02  5.36975E+03
  3.33062E+02 -1.13683E+03 -4.48534E+03  6.95045E+03 -1.85620E+03  7.28379E+02  6.71665E+02 -7.51673E+03
 -3.12929E+03 -6.63673E+03  4.41905E+03 -2.45163E+03 -8.54763E+02  2.31505E+02 -6.05966E+02  5.66701E+02
 -9.26621E+01  1.29703E+03 -4.23568E+03 -1.36013E+03 -2.44024E+03  2.39534E+03 -5.11157E+02 -1.93890E+03
  2.98744E+03  1.28483E+03  3.61190E+03 -2.62542E+03  1.08441E+03  2.98699E+03 -2.07514E+03  1.64655E+03
 -3.25400E+03  2.88271E+03 -2.78663E+03 -1.95672E+03 -9.69280E+02 -2.15624E+03  1.68472E+03  3.61858E+03
  3.79521E+03 -7.19904E+02  4.74351E+03 -3.10049E+03  2.60022E+03 -9.00747E+02  1.62998E+03  5.08196E+03
  3.82946E+03 -8.91701E+02 -4.42598E+03  3.13366E+03  4.77936E+03 -2.65256E+02  1.59926E+03  1.64600E+03
 -4.49680E+03 -1.48990E+03  1.77778E+03  3.93131E+03 -4.66091E+02 -2.89965E+03 -2.61108E+03 -2.16203E+02
 -5.40425E+02 -1.25342E+03 -5.11802E+02  1.59622E+03  2.25438E+03  5.57037E+02 -1.96834E+03 -6.06838E+03
 -4.01307E+02 -2.71763E+03  3.35223E+03 -1.39424E+03 -2.68835E+03  2.75344E+03 -3.66263E+01 -2.50419E+02
