 $NMID ID='MM_0lb_SNR50_8hz_g55_49.RAW', FMTDAT='(8E13.5)'
 TRAMP=1., VOLUME=1. $END
  3.06709E+05  7.16576E+03  3.38328E+05  2.52886E+05  8.72597E+04  3.36051E+05 -1.33982E+05  2.50729E+05
 -1.97440E+05  8.78290E+04 -1.17970E+05 -3.14526E+04  4.94800E+03 -5.35262E+04  5.22245E+04 -2.73909E+03
  3.53773E+04  5.04098E+04 -1.62916E+04  8.18281E+04 -6.10990E+04  6.32109E+04 -8.02376E+04  2.93170E+04
 -8.76546E+04 -1.42953E+04 -6.25303E+04 -5.25190E+04 -1.41197E+04 -6.66695E+04  2.74843E+04 -4.18508E+04
  4.19093E+04  1.50835E+03  1.28977E+04  5.39921E+04 -4.05441E+04  4.41521E+04 -6.90688E+04  4.11763E+02
 -5.66407E+04 -6.10133E+04 -1.22448E+04 -8.61216E+04  3.57701E+04 -6.18411E+04  5.08244E+04 -2.83620E+04
  4.06608E+04  1.05832E+04  3.12804E+04  2.90632E+04  2.04908E+04  2.56292E+04 -7.15023E+03  2.84628E+04
 -2.07662E+04  4.51959E+03 -1.44528E+04 -7.18897E+03  8.56994E+03 -7.10570E+03  2.96946E+04  6.44572E+03
  7.65979E+03  3.69819E+04 -3.86774E+04  4.06592E+04 -6.44370E+04  6.90682E+02 -6.20938E+04 -4.31112E+04
 -1.51097E+04 -6.05219E+04  4.18013E+04 -5.34147E+04  6.26214E+04 -4.37705E+02  4.21378E+04  3.31674E+04
 -4.88602E+03  3.97966E+04 -3.29297E+04  2.26194E+04 -3.43592E+04 -4.79724E+03 -2.01779E+04 -1.87774E+03
 -6.29510E+03 -1.98902E+04 -1.12770E+03 -2.20421E+04  4.77014E+03 -3.14891E+04  2.35782E+04 -1.26477E+04
  1.15051E+04  9.27116E+03 -9.64110E+03  7.24239E+03 -2.36757E+04 -5.29091E+03 -4.38294E+03 -3.31882E+04
  2.24189E+04 -4.61726E+04  5.12556E+04 -1.99623E+04  5.09763E+04  2.39450E+04  1.99611E+04  4.74526E+04
 -1.28544E+04  3.34823E+04 -1.99284E+04  7.80591E+03 -1.25331E+04 -2.43058E+04  2.49074E+04 -3.83721E+04
  4.83811E+04 -1.16717E+04  4.13003E+04  2.47428E+04  2.77845E+04  5.49222E+04 -1.37730E+04  5.57214E+04
 -4.09003E+04  4.02589E+04 -5.31185E+04  8.71808E+03 -4.62787E+04 -1.08645E+04 -3.15036E+04 -4.73090E+04
 -1.80472E+03 -4.78016E+04  3.74453E+04 -1.84678E+04  3.44855E+04  1.55570E+04  5.43711E+03  2.31245E+04
 -8.54499E+03  5.65662E+03 -9.20736E+03 -1.27947E+04 -3.36301E+03 -1.45846E+04  2.02682E+04  7.00711E+03
  1.73594E+04  2.07493E+04 -4.37361E+03  2.73167E+04 -1.77447E+04  1.03133E+04 -3.67278E+04 -8.26118E+01
 -2.48380E+04 -1.74947E+04 -7.99299E+03 -2.13285E+04  4.51209E+03 -2.09695E+04  1.97817E+04 -2.00311E+04
  3.09962E+04 -6.55521E+03  3.48868E+04  3.62916E+03  2.85224E+04  1.99747E+04  6.05758E+02  3.42868E+04
 -1.72327E+04  3.83696E+04 -3.46356E+04  1.02376E+04 -2.00194E+04 -6.30528E+03 -6.85401E+03 -1.04738E+04
  1.17503E+03 -2.52885E+03 -1.16493E+03  1.19803E+04 -2.38643E+04 -2.33994E+03 -3.08182E+04 -1.36089E+04
 -7.15680E+03 -2.89835E+04  6.92768E+03 -3.17855E+04  1.71160E+04 -2.69090E+04  2.31052E+04 -3.08197E+03
  1.59348E+04  1.93168E+04  3.41459E+02  2.53215E+04 -1.40517E+04  1.27266E+04 -1.98341E+04 -6.71986E+03
 -1.69031E+04 -1.17606E+04  6.98502E+01 -2.71673E+04  1.24318E+04 -2.61815E+04  2.44865E+04 -8.95011E+03
  3.20043E+04 -2.55022E+03  1.91966E+04 -6.55029E+02  1.08801E+04 -1.24572E+03  1.22430E+04 -1.92325E+03
  2.11488E+04  2.42126E+03  2.70247E+04  2.19540E+04  1.36138E+04  3.25090E+04  4.27776E+03  4.46561E+04
 -2.87130E+04  4.26795E+04 -4.94317E+04  2.15713E+04 -5.35505E+04 -2.08256E+03 -3.79927E+04 -2.78826E+04
 -1.21958E+04 -3.67552E+04  1.94166E+04 -4.17994E+04  3.12887E+04 -1.04670E+04  2.71425E+04  1.14785E+04
  1.18813E+04  2.08273E+04 -1.52519E+04  1.27942E+04 -2.69975E+04  2.42238E+03 -6.79757E+03 -1.55565E+04
 -8.62542E+03 -2.81269E+04  1.29015E+04 -2.13460E+04  7.88645E+03 -5.77365E+03 -2.30514E+03  6.27287E+03
 -1.01923E+04  1.03563E+04 -1.40276E+04 -1.21505E+04 -8.53918E+03 -1.72543E+04  1.20959E+04 -2.60828E+04
  2.59161E+04 -8.16042E+03  3.12732E+04  6.14647E+03  1.86967E+04  1.99539E+04  9.39952E+03  3.29706E+04
 -4.57098E+03  3.54951E+04 -3.05156E+04  2.39042E+04 -2.54829E+04  4.99388E+03 -1.69764E+04 -6.17870E+03
 -9.56723E+03 -1.80030E+01  3.03929E+03  1.24420E+03 -7.59753E+03  7.55006E+03 -1.01103E+04  6.70877E+03
 -1.64600E+04  3.30192E+03 -1.24456E+04 -1.78455E+04 -4.70577E+03 -2.70516E+04  9.69010E+03 -2.01022E+04
  2.10848E+04 -1.30913E+04  8.09881E+03  6.46024E+03 -3.99986E+02  7.76718E+03 -1.14781E+04 -2.64670E+03
 -4.62593E+03 -1.25149E+04  4.05210E+03 -2.39177E+04  1.71017E+04 -2.25597E+04  1.81885E+04 -1.20163E+04
  2.23720E+04  1.65938E+03  1.01536E+04  1.50631E+04  6.59521E+03  2.76907E+04 -1.10782E+04  1.66312E+04
 -1.00978E+04  4.77179E+03 -1.60133E+04 -1.87275E+03  2.10123E+02 -8.63931E+03  1.39284E+04 -1.08508E+04
  1.35358E+04 -1.09147E+02  1.01529E+04  1.35056E+04 -7.36342E+03  9.25597E+03 -1.52455E+04  2.42078E+03
 -1.07286E+04 -1.40043E+04  5.25393E+03 -1.57311E+04  1.21546E+04 -1.00397E+04  1.04838E+04  1.61163E+03
  4.22238E+03  7.77046E+03 -9.75648E+02  1.67773E+04 -1.66187E+04  4.27501E+03 -1.74508E+04 -7.19396E+03
 -5.69517E+03 -2.21080E+04  1.09997E+04 -2.20159E+04  1.94382E+04 -1.74471E+04  2.08779E+04  3.25080E+03
  7.12626E+03  1.51372E+04 -6.70212E+02  1.56707E+04 -7.22586E+03  9.87018E+03 -1.83690E+04 -5.43462E+03
 -5.54722E+03 -1.63871E+04 -3.91083E+03 -1.70385E+04  6.66059E+03 -3.58943E+03  2.76656E+03 -1.96243E+03
  9.77662E+02 -4.48200E+03 -1.14403E+04  6.81869E+03  1.32830E+03 -7.63564E+03  9.32162E+03 -9.56789E+03
  1.44950E+04 -7.00084E+03  1.47306E+04  6.24689E+02  2.46687E+04  1.11187E+04  7.69644E+03  2.34435E+04
 -4.14598E+03  3.02100E+04 -2.17652E+04  1.67981E+04 -2.26798E+04 -7.31582E+03 -2.07028E+04 -1.23348E+04
 -1.24913E+04 -1.64944E+04 -1.35692E+03 -1.58207E+04  5.53615E+03 -1.44042E+04  5.49026E+03 -3.17358E+03
 -4.26776E+02 -3.81849E+03  9.19800E+03  2.23991E+03  3.40988E+03  4.02915E+03  9.84969E+03  2.98502E+03
  1.66766E+04  2.17137E+03  9.65358E+03  8.94037E+03 -3.18497E+03  1.10781E+04 -1.29104E+04  1.07123E+04
 -2.06007E+04 -8.19817E+02 -1.41094E+04 -5.29743E+03 -2.54372E+03 -2.13835E+04  1.37788E+04 -2.50100E+04
  2.71854E+04 -4.23668E+03  2.06618E+04 -1.56159E+03  1.44479E+04  1.26099E+04  8.10341E+03  1.75955E+04
 -7.03983E+03  1.81566E+04 -2.10664E+04  2.94328E+03 -1.35522E+04 -5.64969E+03  1.20644E+03  3.51518E+03
 -8.16024E+03 -7.64341E+02  2.69600E+03  3.75744E+03 -3.18753E+03  8.50257E+03 -1.29981E+04 -6.37382E+03
 -4.89536E+03 -1.06756E+04  5.62377E+03 -1.36810E+04  8.43662E+03 -1.84780E+04  1.43775E+04 -3.95766E+03
  1.47551E+04  5.40156E+03  8.64550E+03  1.26446E+04 -6.24943E+03  1.83889E+04 -8.80799E+03  8.67156E+03
 -1.91751E+04  2.24436E+02 -1.94090E+04 -2.36026E+04 -6.28873E+03 -1.63084E+04  1.29002E+04 -1.37890E+04
  1.04843E+04  2.12944E+03  6.77564E+03  4.83740E+03 -2.97171E+03 -2.17520E+03 -2.94109E+03  1.05857E+03
 -4.81834E+03  7.72022E+03  4.32230E+03  2.91108E+03  5.19170E+03  6.37738E+03  7.70019E+03  1.55181E+04
  3.32606E+03  2.01262E+04 -1.15826E+04  1.78398E+04 -1.91099E+04  2.00216E+01 -2.32994E+04 -7.13525E+03
  1.54855E+03 -1.15943E+04  4.50300E+01 -1.90393E+04  1.50318E+04 -9.50469E+03  1.67579E+04 -1.33928E+04
  1.45143E+04  5.84814E+03 -7.70134E+02  1.04181E+04 -5.84501E+03  7.24890E+03 -2.46479E+03  3.40141E+03
 -8.81841E+03 -4.86337E+03  5.14308E+03 -8.47328E+03  9.00960E+03  5.49306E+02  9.71853E+03 -1.64393E+03
 -4.72979E+02  7.45804E+03 -1.55372E+03  1.22064E+04  3.41255E+03 -2.40686E+03  7.19640E+02  5.55433E+02
  3.30021E+03  3.72356E+03  6.54155E+03  2.24933E+03  3.01554E+03  7.55266E+03 -1.57908E+03  1.00599E+04
 -1.36248E+04  7.58418E+03 -9.57693E+03  2.95675E+03 -1.03768E+04  2.33631E+01 -6.99822E+03 -6.14907E+03
  1.53232E+03 -4.16235E+03  3.09336E+03  1.67382E+03 -2.55395E+03  9.05201E+03  1.39345E+03  6.14839E+03
 -6.54110E+03  7.27134E+03 -9.84733E+03 -1.27454E+03 -3.53062E+03 -9.43825E+03  3.35135E+03 -1.26880E+04
  6.08011E+03 -5.74100E+03  3.44203E+03 -7.59644E+03  4.63558E+02  4.47994E+03  2.81299E+03  7.56914E+03
 -2.15621E+03  2.71975E+03 -1.10385E+04 -6.88712E+03  1.13824E+04 -1.13795E+04  1.28032E+04 -8.36271E+03
  8.39285E+03 -3.56479E+03  9.15014E+03  6.59804E+03 -9.61509E+02  8.67990E+03 -6.08233E+03  9.25294E+03
 -1.00838E+04  5.93447E+03 -3.92236E+03 -9.27336E+02 -4.98507E+03 -1.02561E+04  3.97888E+03 -4.10477E+03
  6.93654E+03 -7.41949E+03  6.19691E+03  6.09132E+03  1.22656E+04  3.24182E+03  6.45935E+02  2.08341E+03
 -1.30508E+03  1.53092E+03 -7.15987E+03 -2.07546E+03 -3.74821E+03  9.42585E+02 -2.47371E+03  1.50188E+03
 -6.85355E+03  7.90908E+03 -1.06266E+04  7.89245E+03 -1.07429E+04  3.41189E+03 -1.02672E+04 -8.80727E+03
 -6.51508E+03 -1.74299E+04 -2.31973E+03 -2.16455E+04  4.40462E+03 -1.39657E+04  1.95916E+04 -3.41054E+03
  1.04340E+04 -3.16487E+03  8.75269E+03  1.00635E+04  1.08552E+03  1.28652E+04 -4.75280E+03  1.35479E+04
 -3.52217E+03  8.02917E+03 -3.00558E+02 -6.26506E+03  3.16239E+03  4.54341E+03  1.68607E+03 -4.17286E+03
  1.08953E+03 -4.84886E+03 -5.45867E+03 -3.43469E+03  6.29143E+02 -5.97873E+03  2.34277E+03 -2.11978E+03
  4.52817E+03 -1.22382E+03  1.29009E+04 -3.26365E+03  8.62126E+03  1.09490E+04 -2.00401E+03  1.25493E+04
 -1.01857E+04  1.40484E+04 -1.08385E+04  9.22244E+03 -1.84045E+04 -5.63790E+03 -1.01673E+04 -7.54010E+03
 -6.32697E+03 -1.63687E+04  7.28778E+02 -1.44323E+04  1.03764E+04 -2.25433E+03  1.42306E+04  6.69954E+03
  4.90297E+03  9.09588E+03  7.11903E+03 -3.34547E+03 -1.45113E+03 -2.76647E+03  1.12380E+03 -1.57181E+03
  2.42368E+03 -1.19924E+03  2.01122E+03  2.34655E+03  1.09952E+04  1.89157E+03 -3.45194E+03  1.15661E+04
 -3.09598E+03  9.11455E+03 -1.85743E+04 -2.74797E+03 -8.29615E+03 -5.52167E+03 -3.77196E+02 -1.25364E+04
  3.50434E+03 -1.45202E+04  1.55688E+04  4.69662E+03  1.17635E+04  1.64169E+03  2.33165E+03  8.72864E+03
 -9.48955E+02  5.36197E+03 -4.52787E+03  6.48317E+03  1.50457E+03  5.53126E+03 -2.70230E+03 -5.74553E+02
 -7.90838E+02 -6.88589E+03  7.17096E+02  3.68417E+03 -1.08432E+04 -1.71036E+02 -7.99084E+03  4.54101E+03
 -1.63328E+03 -2.80085E+03  1.69267E+03 -8.46266E+03  2.78264E+03 -6.45642E+03  8.40278E+03 -8.86309E+03
  6.77783E+03  2.77482E+03  3.66149E+03  1.32955E+04  8.52289E+02  1.74165E+04 -6.06151E+03  6.78142E+03
