 $NMID ID='MM_0lb_SNR50_9hz_g50_91.RAW', FMTDAT='(8E13.5)'
 TRAMP=1., VOLUME=1. $END
  3.05809E+05  1.64640E+03  3.46148E+05  2.49385E+05  8.41203E+04  3.37308E+05 -1.33715E+05  2.44989E+05
 -1.96687E+05  8.70972E+04 -1.10816E+05 -2.99843E+04 -2.86402E+03 -5.03502E+04  5.57403E+04  9.30361E+02
  3.27101E+04  4.79617E+04 -1.66562E+04  7.60731E+04 -6.03174E+04  6.49119E+04 -9.17828E+04  2.99969E+04
 -8.17112E+04 -1.39994E+04 -5.39288E+04 -4.60241E+04 -8.99010E+03 -6.79796E+04  2.64708E+04 -4.73654E+04
  4.24363E+04  8.93680E+03  1.66942E+04  4.98867E+04 -3.26751E+04  4.48432E+04 -6.44693E+04 -4.75362E+03
 -5.30768E+04 -5.76474E+04 -1.14932E+03 -7.94529E+04  4.03285E+04 -6.08767E+04  4.31607E+04 -1.49721E+04
  4.63550E+04  1.30458E+04  3.59986E+04  3.40018E+04  8.19346E+03  2.94120E+04 -8.80017E+02  2.27629E+04
 -2.53799E+04  1.36993E+04 -2.21718E+04 -9.41845E+03  8.83269E+03 -1.15021E+03  1.58962E+04  1.71015E+04
  6.82670E+03  3.77580E+04 -3.50306E+04  3.63337E+04 -6.64193E+04  8.41616E+02 -5.83790E+04 -4.28219E+04
 -6.86019E+03 -7.00837E+04  4.39532E+04 -4.61749E+04  6.61058E+04 -3.00551E+03  3.92591E+04  3.77539E+04
 -6.62779E+03  3.90090E+04 -3.53554E+04  1.93468E+04 -2.98143E+04 -6.90977E+03 -2.42440E+04 -7.35876E+03
 -6.07398E+03 -1.85871E+04  2.15299E+03 -2.13039E+04  6.46940E+03 -2.21808E+04  1.40522E+04 -9.92375E+03
  7.93145E+03  3.31335E+03 -7.70559E+03  1.76654E+04 -2.47360E+04 -7.19260E+02 -1.01235E+04 -3.88346E+04
  2.19549E+04 -4.39215E+04  5.29704E+04 -2.21234E+04  4.45082E+04  1.71427E+04  2.13605E+04  4.40726E+04
 -1.29099E+04  3.35273E+04 -2.20533E+04  7.65632E+03 -1.77368E+04 -2.60879E+04  1.80794E+04 -4.07609E+04
  4.18263E+04 -1.51659E+04  3.64270E+04  2.30099E+04  1.80234E+04  5.04877E+04 -4.47220E+03  5.89442E+04
 -3.45757E+04  3.81425E+04 -5.33379E+04  8.53760E+03 -4.57227E+04 -1.85002E+04 -2.57684E+04 -4.04804E+04
  8.14861E+03 -4.08100E+04  3.28377E+04 -1.08928E+04  3.29177E+04  1.42246E+04  6.23934E+03  2.25348E+04
 -1.17727E+04  4.71869E+03 -6.77847E+03 -3.56533E+03  2.89834E+03 -1.64324E+04  2.56065E+04  1.26079E+04
  1.04176E+04  2.13615E+04 -6.06087E+03  2.52529E+04 -2.06821E+04  1.35203E+04 -3.06674E+04  3.69447E+02
 -3.16617E+04 -2.06546E+04 -1.40569E+04 -2.10930E+04  1.19943E+04 -2.10326E+04  1.98078E+04 -2.58365E+04
  3.42525E+04 -1.29321E+04  3.61482E+04  5.06945E+03  3.05561E+04  2.25233E+04  6.40200E+03  4.48457E+04
 -1.57880E+04  3.58968E+04 -2.90244E+04  1.05985E+04 -2.26753E+04 -1.12325E+04 -7.38006E+03 -1.04164E+04
  1.54691E+03 -7.77077E+02 -4.49662E+03  8.92462E+03 -2.46330E+04  4.47342E+03 -2.16416E+04 -1.27483E+04
 -4.42628E+03 -2.40319E+04  1.00831E+04 -3.05042E+04  2.26284E+04 -2.35647E+04  2.67696E+04  2.06115E+03
  1.40084E+04  2.11319E+04 -2.73822E+03  2.14197E+04 -1.92269E+04  1.40813E+04 -2.08897E+04 -4.69159E+03
 -1.82952E+04 -2.03091E+04 -3.36808E+03 -2.71883E+04  1.68247E+04 -1.98727E+04  1.87515E+04 -1.10926E+04
  2.27042E+04 -6.27808E+02  1.45200E+04  1.04062E+03  1.20722E+04 -1.36904E+03  1.42914E+04 -2.63029E+03
  2.37895E+04  1.36296E+03  2.69488E+04  1.77184E+04  1.41791E+04  3.95712E+04  2.89662E+03  4.19901E+04
 -1.94918E+04  3.41910E+04 -4.52674E+04  1.93735E+04 -4.16499E+04 -3.15470E+03 -3.25198E+04 -2.78785E+04
 -1.31132E+04 -3.67079E+04  1.97427E+04 -3.09560E+04  3.14441E+04 -1.80937E+04  2.12853E+04  8.52974E+03
  2.65254E+03  2.38606E+04 -1.41558E+04  1.38184E+04 -1.96386E+04  2.72897E+03 -1.56780E+04 -8.66280E+03
  4.89765E+02 -1.92303E+04  8.47655E+03 -1.23490E+04  1.31560E+04  1.96473E+03  6.10686E+03  4.54803E+03
 -1.26140E+04  4.36707E+03 -6.94813E+03 -1.19354E+04 -5.06565E+03 -1.59884E+04  1.02934E+04 -2.33296E+04
  2.29839E+04 -1.34357E+04  2.34196E+04  4.38924E+03  3.02207E+04  2.25664E+04  1.63066E+04  3.33522E+04
 -8.37078E+03  3.49469E+04 -2.30279E+04  1.70273E+04 -2.54955E+04  1.16147E+04 -1.58498E+04 -1.55806E+03
 -1.10977E+04 -4.52636E+03 -1.39509E+03  4.25377E+03 -3.21212E+03  5.82726E+03 -1.53989E+03  6.26350E+03
 -1.72706E+04  8.25396E+02 -1.36605E+04 -5.92349E+03 -5.04263E+03 -2.04098E+04  6.42060E+03 -1.44213E+04
  1.00451E+04 -1.01762E+04  4.84258E+03  7.21988E+02 -6.10542E+03  1.50026E+04 -1.02022E+04 -2.55266E+02
 -8.14967E+03 -1.65080E+04 -3.89977E+03 -1.38631E+04  1.01308E+04 -1.51585E+04  1.91466E+04 -3.63196E+03
  2.11002E+04 -2.06581E+02  1.99517E+04  1.55385E+04 -9.12624E+02  1.79627E+04 -1.03228E+04  1.65000E+04
 -1.38285E+04  7.38810E+03 -9.57158E+03 -2.19307E+03  1.37927E+03 -6.70489E+03  1.33410E+04 -2.34147E+02
  5.47481E+03  7.79444E+03  8.07332E+03  1.51042E+04 -6.25102E+03  1.40228E+04 -1.10755E+04 -5.53164E+03
 -8.44174E+03 -4.17380E+03  8.64514E+03 -1.27329E+04  8.09799E+03 -1.20609E+04  7.74535E+03  4.66484E+03
  7.15694E+03  9.60059E+03 -9.52630E+03  1.35388E+04 -1.63570E+04 -3.69369E+02 -9.83817E+03  1.30401E+03
 -1.07069E+04 -1.80113E+04  6.23233E+03 -1.34234E+04  1.92589E+04 -1.24547E+04  1.79916E+04 -1.05285E+03
  1.70303E+04  1.13233E+04 -4.15029E+03  2.00534E+04 -8.25307E+03  1.03741E+04 -1.20371E+04  2.02936E+03
 -1.20360E+04 -1.52218E+04 -2.59267E+03 -7.15255E+03  8.84708E+03 -6.07711E+03  1.00273E+04 -9.79717E+03
  7.76242E+03  3.31146E+03 -6.01001E+03  2.83595E+03  1.30071E+03 -7.38547E+02  9.03905E+03 -5.12655E+03
  1.43101E+04  8.38798E+02  1.41332E+04 -4.89813E+03  1.70280E+04  1.16387E+04  7.08221E+03  1.65437E+04
  3.90773E+03  2.65183E+04 -2.31453E+04  1.94778E+04 -2.97231E+04  4.41153E+03 -2.00559E+04 -9.81350E+03
 -9.10280E+03 -1.45389E+04 -1.06706E+04 -1.41567E+04  1.51541E+03 -8.33463E+03  6.60944E+03 -1.23399E+04
  5.60117E+03 -5.03261E+03  3.72625E+03  2.68355E+02  1.61218E+03 -2.95343E+03  4.40297E+03 -1.80051E+03
  5.06271E+03  3.62208E+03  3.74916E+03  4.22391E+03 -1.26771E+03  1.45471E+04 -1.56214E+04  1.36261E+04
 -2.11286E+04  3.40150E+03 -7.45878E+03 -1.48887E+04  6.64636E+03 -1.85410E+04  1.08544E+04 -1.20672E+04
  1.67226E+04 -8.82850E+03  2.33842E+04  3.41153E+03  1.13798E+04  1.33771E+04 -1.68153E+03  1.55984E+04
 -6.64966E+03  1.55421E+04 -1.06269E+04  1.94050E+03 -1.05359E+04 -4.66899E+03 -5.57337E+03 -6.17035E+03
  6.77188E+03 -5.61911E+03 -1.07427E+04  4.93088E+03 -6.06993E+03  1.05693E+04 -5.85672E+03  6.99680E+03
 -1.34881E+04 -9.44481E+03 -5.67187E+02 -1.51730E+04  9.73458E+03 -1.31730E+04  1.65716E+04 -3.87746E+03
  1.19547E+04  1.06208E+04  1.10090E+04  1.12563E+04 -5.25860E+03  1.26309E+04 -1.17434E+04  1.29481E+04
 -1.14816E+04 -7.12680E+02 -1.28170E+04 -1.13453E+04 -1.73444E+02 -1.15474E+04  4.63736E+03 -1.15591E+04
  9.70971E+03 -3.93100E+03  1.02408E+04 -2.11446E+03  3.15938E+02  6.30130E+03  2.47337E+03  4.22298E+03
  1.23908E+04  1.26349E+03  8.83392E+02 -1.28100E+03  4.33181E+03 -9.96484E+02  5.40994E+03  9.12264E+03
 -8.79755E+02  1.25590E+04 -9.98643E+03  1.08736E+04 -8.89753E+03  9.24873E+03 -8.08257E+03 -8.99178E+03
 -9.06224E+03 -1.08354E+04  2.72443E+03 -1.84930E+04  3.60379E+03 -8.92773E+03  1.02732E+04  1.23202E+03
  6.67203E+03  5.17520E+03  4.05123E+03  1.07631E+04 -2.83278E+03  1.19316E+04 -7.71327E+03  7.58852E+02
 -5.86799E+03 -9.48909E+03  5.46719E+03 -4.23721E+03  6.82380E+03 -9.93935E+02  4.19319E+03 -9.66685E+02
 -4.83716E+03  3.80417E+03  3.48585E+03 -4.15456E+02 -1.97841E+03  1.86689E+03 -1.10017E+03  6.65789E+03
  5.25666E+03 -2.30078E+03  1.00148E+04 -9.24181E+02  1.47242E+03  1.39123E+04  2.97009E+03  1.04388E+04
 -6.95261E+03  4.39536E+03 -1.19988E+04  6.66235E+02 -8.84754E+03 -1.01778E+04 -7.45528E+03 -4.67134E+03
 -9.05990E+02 -2.83190E+03  2.04466E+03 -1.22276E+03 -3.87535E+03  2.79345E+03 -3.55271E+03  3.47980E+03
 -7.97710E+03  4.79039E+03 -4.92361E+03 -4.85723E+03 -8.52875E+03 -3.79563E+03  1.55175E+03 -8.88158E+03
  6.36199E+03 -8.93820E+03  4.94393E+03  2.21940E+03  4.32884E+03  2.26931E+03 -4.85031E+03  9.97572E+03
 -4.18742E+02  4.17660E+02 -8.35738E+02 -5.07809E+03  1.24218E+03 -5.87107E+03  7.60668E+03 -5.22958E+03
  3.36480E+03  2.72939E+03  1.43137E+04  9.04927E+03  3.49716E+03  9.75282E+03 -9.76410E+02  8.71852E+03
 -8.77046E+03  5.85485E+03 -7.30200E+03 -1.28395E+02 -6.83227E+03 -8.45805E+03  1.01338E+04 -6.72036E+03
 -1.78805E+03 -1.14264E+03  1.21249E+03  4.71860E+03 -3.11998E+03  3.79478E+03 -1.65289E+03  3.02521E+03
 -3.91333E+03  1.94164E+03 -3.29687E+03  1.24765E+03 -1.61903E+03 -2.07177E+03  9.02859E+02  2.46749E+03
 -6.03337E+03  8.78182E+01 -8.47929E+03  2.17081E+03 -5.07715E+03  1.86005E+03 -1.08805E+04 -3.09671E+03
 -9.55788E+02 -1.46739E+04  2.38066E+03 -1.32603E+04  1.09559E+04 -9.87437E+03  6.47522E+03 -6.96523E+03
  1.40366E+04  4.27320E+03  9.97622E+03  8.21962E+03 -9.06982E+02  6.54919E+03 -2.99144E+03  1.06979E+03
 -8.81505E+03  7.19959E+03 -6.43566E+02  2.51932E+03 -4.80097E+03 -3.31145E+03  9.51960E+02 -2.60920E+03
 -7.07679E+03  2.78811E+03 -5.43183E+03 -2.83071E+03 -3.31870E+03  6.43535E+01  4.49780E+03 -2.43796E+03
  8.51793E+03 -6.63145E+03  5.36010E+03 -3.56287E+02  1.02523E+04  3.09158E+03  4.81024E+03  8.53296E+03
 -1.08504E+04  7.66586E+03 -1.27733E+04  5.24020E+03 -1.92522E+04 -1.84452E+03 -1.02597E+04 -5.50198E+03
  7.69494E+02 -1.16649E+04  3.95143E+03 -1.75410E+04  6.88040E+03  7.49799E+01  6.36109E+03  7.60197E+03
 -3.67161E+02  3.64554E+03  1.47410E+03  6.51946E+03 -1.38890E+03 -7.29364E+02  1.37816E+03 -3.13974E+03
  9.65970E+03 -9.10965E+02  5.09851E+03 -2.93908E+03  3.70819E+03  1.84883E+02  1.34346E+03  2.08481E+03
 -3.95371E+03  8.60316E+03 -1.05386E+04 -1.88945E+03 -1.53785E+04 -2.63719E+03 -2.04779E+03 -1.05207E+04
  1.09971E+04 -5.25613E+03  8.71744E+03 -7.77995E+03  5.88532E+03  5.90743E+03  4.98360E+03 -6.65724E+02
  4.10475E+03  3.45750E+03 -5.12790E+03  1.04701E+04 -6.44791E+03  7.15573E+03 -1.47619E+04  1.80072E+03
  3.74829E+03 -2.87703E+03 -6.12148E+03  9.45200E+03 -5.04868E+03  6.67215E+02 -1.17895E+04  3.06856E+03
 -4.70604E+02 -2.96788E+03  1.04952E+03 -7.45411E+03 -8.91602E+01 -9.75901E+03  7.73749E+03 -6.39261E+02
 -1.73401E+03 -2.01104E+03 -1.75294E+03  4.44029E+03 -1.60329E+03  4.49075E+03  3.99942E+03  8.81088E+03
