 $NMID ID='MM_0lb_SNR50_20hz_g45_53.RAW', FMTDAT='(8E13.5)'
 TRAMP=1., VOLUME=1. $END
  3.11586E+05  1.23097E+03  3.41964E+05  2.49937E+05  8.80761E+04  3.37136E+05 -1.28841E+05  2.53510E+05
 -1.88180E+05  8.33403E+04 -1.06727E+05 -3.36634E+04  2.90878E+03 -4.90944E+04  5.38149E+04  4.19838E+03
  3.63085E+04  5.37339E+04 -1.72161E+04  7.37458E+04 -5.66876E+04  6.29294E+04 -8.49640E+04  2.93318E+04
 -7.60645E+04 -1.12744E+04 -5.43352E+04 -4.72718E+04 -1.63506E+04 -6.57401E+04  2.78420E+04 -4.50572E+04
  3.69834E+04  3.14568E+03  1.62615E+04  4.93587E+04 -3.40289E+04  4.69328E+04 -6.48201E+04  2.30071E+02
 -5.24305E+04 -5.83861E+04 -8.78516E+03 -7.07020E+04  3.56417E+04 -5.23152E+04  4.57317E+04 -1.78117E+04
  3.81177E+04  1.15482E+04  2.68500E+04  2.66866E+04  1.26085E+04  2.26434E+04 -3.77012E+03  2.26140E+04
 -2.26754E+04  1.48235E+04 -2.41821E+04 -4.03040E+03  2.79574E+03 -2.67578E+03  2.37442E+04  1.41304E+04
  7.52566E+03  3.46494E+04 -2.61878E+04  3.05084E+04 -5.62007E+04  2.27600E+03 -5.15914E+04 -3.84910E+04
 -8.11417E+03 -6.07341E+04  4.03195E+04 -4.39598E+04  5.27698E+04 -3.41000E+03  3.03156E+04  2.93045E+04
 -3.07978E+03  3.17334E+04 -2.81231E+04  1.76094E+04 -2.79420E+04 -5.95130E+03 -1.16911E+04 -1.07530E+04
 -2.54686E+03 -1.49618E+04 -8.28833E+01 -1.42204E+04  8.80524E+03 -2.52799E+04  1.70445E+04 -1.02327E+04
  1.53767E+04  2.57518E+03 -4.09171E+03  1.35801E+04 -1.29252E+04 -2.83954E+03 -7.00839E+03 -3.06613E+04
  2.06435E+04 -4.05943E+04  4.25833E+04 -1.85425E+04  4.19672E+04  1.71870E+04  1.07876E+04  4.20444E+04
 -1.77656E+04  3.45763E+04 -2.10697E+04  3.33748E+03 -6.31416E+03 -3.05871E+04  2.32365E+04 -2.55214E+04
  3.49267E+04 -7.82053E+03  3.18274E+04  2.13730E+04  1.15269E+04  3.84718E+04 -8.71734E+03  4.43476E+04
 -2.57299E+04  2.46663E+04 -3.77175E+04  1.43871E+04 -3.61825E+04 -1.79004E+04 -2.14432E+04 -3.45155E+04
  4.06013E+03 -3.08969E+04  2.96027E+04 -1.48605E+04  2.64163E+04  1.22979E+04  1.40062E+03  2.04432E+04
 -1.27507E+04  9.61785E+03 -1.12970E+04 -8.31098E+03  6.99495E+03 -1.26191E+04  1.76618E+04  7.59421E+03
  1.14148E+04  2.47242E+04 -5.49221E+03  2.20473E+04 -2.16990E+04  9.60966E+03 -2.08861E+04 -9.12464E+03
 -1.42903E+04 -1.63003E+04 -3.01788E+03 -1.46254E+04  3.39222E+03 -1.63974E+04  1.23973E+04 -1.19864E+04
  2.16103E+04 -1.44814E+04  2.92906E+04  1.60788E+02  1.76378E+04  1.32677E+04  1.87043E+03  3.28180E+04
 -1.39735E+04  3.10709E+04 -2.65552E+04  6.29209E+03 -1.80212E+04 -1.30831E+04 -3.54818E+03 -1.52120E+04
  2.55561E+03 -5.31844E+03 -1.63271E+03  3.73294E+03 -1.43203E+04  2.52498E+03 -9.61427E+03 -2.27097E+03
 -7.45612E+03 -1.61915E+04  5.61942E+03 -1.76655E+04  1.27487E+04 -1.54425E+04  8.79375E+03 -5.00289E+03
  8.29048E+03  9.91074E+03  1.62310E+03  1.61126E+04 -1.38411E+04  6.31883E+03 -1.77120E+04 -5.14085E+03
 -7.32661E+03 -1.68410E+04 -9.80706E+02 -1.44882E+04  6.86599E+03 -1.81257E+04  1.52871E+04 -6.00045E+03
  1.09126E+04  2.10384E+03  5.75450E+03  5.56656E+03  6.14919E+03  5.39849E+02  3.14827E+03 -5.16244E+03
  1.35332E+04  5.62093E+03  1.68645E+04  1.18407E+04  9.52574E+03  2.43615E+04 -2.82649E+03  2.53185E+04
 -1.12160E+04  1.74582E+04 -2.39593E+04  6.28539E+03 -2.38752E+04 -5.36600E+03 -1.72745E+04 -1.29785E+04
 -1.01939E+04 -1.27616E+04  7.60927E+03 -1.82529E+04  1.73898E+04 -9.28376E+03  1.59877E+04  5.64674E+03
  9.21027E+03  1.16524E+04 -6.29291E+03  8.36796E+03 -1.60155E+04  5.04821E+03 -1.20216E+04 -8.40732E+03
  1.86027E+03 -1.08345E+04  8.70343E+03 -1.00537E+04  8.50208E+03 -1.60331E+03 -7.21522E+02  6.88858E+03
 -2.57077E+03  2.57284E+03 -3.51210E+02 -7.37834E+03 -3.61961E+03 -1.11054E+04  1.11306E+04 -7.73406E+03
  9.60256E+03 -2.50706E+03  8.57264E+03  4.04112E+02  1.03276E+04  1.10962E+04 -2.57262E+03  1.21287E+04
  7.19780E+02  1.44026E+04 -9.47511E+03  9.98037E+03 -7.39477E+03  2.16351E+03 -8.30038E+03 -2.31736E+03
 -4.24878E+03 -7.27797E+03  7.27213E+02  1.17454E+03  2.78379E+03  9.18809E+02 -2.09009E+03  8.60522E+02
 -9.79104E+03  2.85851E+03 -1.01775E+04 -8.40072E+03 -4.52069E+03 -1.54241E+04  2.95761E+03 -6.46400E+03
  4.53832E+03 -5.71533E+03  5.25969E+03 -2.82410E+01  3.24682E+03  1.70999E+03 -4.70390E+03 -1.60216E+02
 -5.36195E+03 -3.10167E+03  3.63927E+03 -4.16635E+03  4.77061E+03 -9.27168E+03  7.53918E+03 -3.24860E+03
  5.14726E+03  3.60750E+03  4.85135E+03  5.13591E+03  7.46817E+02  1.23015E+04 -5.26720E+03  6.05958E+03
 -6.64735E+03  1.10638E+03 -4.49807E+03 -2.81353E+03  1.02216E+03 -6.10596E+03  2.18019E+03  2.17293E+01
  3.07583E+03  5.95003E+03  3.32349E+03  3.42426E+03 -5.08974E+03  5.89972E+03 -5.86828E+03 -1.22782E+03
 -5.24734E+03 -3.67569E+03 -1.59930E+03 -6.20452E+03  2.12321E+03  1.38646E+02  6.66176E+02 -1.39253E+03
 -2.87500E+03  3.07960E+03 -1.45505E+03  5.56222E+03 -3.37159E+03  3.32568E+03 -1.24558E+03  6.26496E+03
 -3.12307E+03 -5.38064E+03  1.09460E+03 -7.51196E+03  4.55362E+03 -5.70602E+03  1.00536E+04  1.50032E+03
  4.31999E+03  3.14079E+03  1.41471E+03  8.69391E+03 -4.83301E+03  2.73872E+03 -3.57096E+03 -1.38937E+03
 -2.18298E+03 -2.06365E+03 -2.86708E+03 -6.48409E+03  2.40743E+03 -5.44424E+03 -1.67563E+02 -3.94465E+03
  3.13368E+03  5.54626E+03  1.02021E+03  4.02026E+03  4.99346E+03  1.33596E+03 -2.13894E+03 -3.05468E+03
  6.03009E+03 -2.34037E+03  7.11945E+03  1.83478E+03  1.00094E+04 -2.11298E+03  5.52378E+03  7.12035E+03
 -3.32264E+03  5.45308E+03 -4.58543E+03  6.73868E+03 -9.46522E+03  2.04679E+03 -5.84272E+03 -1.38479E+03
 -3.30193E+03 -5.05012E+03 -1.98661E+03 -3.17490E+03 -1.55050E+03 -3.98429E+03 -1.03633E+03 -3.02229E+02
  2.42471E+03 -2.26471E+03  5.38004E+03 -1.01717E+03  1.54248E+03 -6.44890E+02  3.97705E+03 -3.93225E+03
  6.15895E+03  6.11549E+02  5.38920E+02 -2.77793E+03  1.61959E+03  4.60440E+03 -5.65445E+03  2.17784E+02
 -7.95678E+03 -4.17723E+03 -1.07102E+03 -3.63983E+03  1.55619E+03 -3.30344E+03  2.92189E+03 -6.35209E+03
  2.19571E+03 -4.45822E+03  4.11710E+03 -5.50442E+02  2.60742E+03  2.45234E+03  4.04746E+03  7.35382E+03
  1.65145E+03  4.60878E+03 -4.11382E+03  3.94411E+03 -5.42614E+02 -5.07254E+03 -1.83166E+03  4.48237E+03
  2.16825E+03 -1.15564E+03 -4.57399E+03  2.29506E+03 -4.83787E+03  3.70707E+03 -1.29520E+03 -3.40632E+03
  2.30681E+03 -1.73587E+03  8.06209E+02 -2.02848E+03  1.58389E+03 -5.40040E+03  3.30220E+03 -5.57897E+03
  7.85357E+02  3.34245E+03  2.20343E+03  3.45004E+03 -1.17933E+03  3.23788E+03 -1.89262E+03  2.37687E+03
 -2.90665E+03 -9.38491E+02 -2.10155E+03 -6.21522E+03  2.36557E+03 -6.98035E+02 -1.96885E+03 -4.90507E+03
 -1.49852E+03  1.11175E+03  1.27077E+03 -6.68006E+02  2.40349E+02  3.62706E+03 -3.18882E+02  1.40616E+03
  2.28434E+03 -8.28372E+02 -8.54818E+02  2.23445E+03  1.51880E+02  9.15415E+02  4.62051E+03 -3.88787E+03
  1.69753E+02  4.23041E+03 -5.40954E+03  2.38299E+03  1.46145E+03  4.16680E+03 -6.04482E+03 -7.85640E+02
 -9.89878E+01 -4.51576E+03 -7.21797E+02 -3.89946E+03 -1.42440E+03 -3.18443E+03  2.82284E+03 -1.00736E+03
  2.99290E+03  5.46223E+03  7.68017E+02 -2.27395E+03 -4.77951E+03  2.13192E+03 -2.96477E+03 -7.25840E+02
 -3.28785E+03 -2.10477E+03 -3.46023E+03 -1.04941E+03 -5.57811E+02 -3.78757E+02 -1.60712E+03  1.99881E+02
  2.33017E+03  1.11484E+03  4.38874E+03 -3.50529E+03 -4.98894E+03  4.13493E+03  1.12543E+03 -2.75549E+03
 -6.98913E+02  9.93697E+02  4.34350E+03  3.37364E+03  3.80335E+03  4.18887E+03 -2.74008E+03  4.45173E+03
 -2.66251E+02  8.77362E+02 -2.28269E+03  6.03395E+02 -4.55421E+03  1.19265E+03 -7.90547E+02 -2.96705E+03
 -5.08144E+03 -1.76609E+01  2.84789E+03 -2.08606E+03 -9.46754E+02 -2.16171E+03 -2.00842E+02  2.52524E+03
  2.55306E+03  1.14073E+03 -3.53235E+03 -1.10650E+03  1.73478E+03 -6.31820E+03 -1.40277E+03 -2.48695E+03
 -2.01295E+02  7.90083E+02  6.46056E+03  3.31877E+02 -6.79225E+02 -2.29020E+03 -8.78727E+02 -2.11987E+03
  3.18489E+03  5.80576E+02  8.57140E+02  1.39732E+03 -3.02995E+03  1.41637E+03  4.70846E+03  1.56766E+02
  1.55029E+03  4.21103E+02  2.13399E+03 -1.05703E+03 -1.89281E+03 -8.87495E+02  1.15869E+03  3.82933E+03
 -1.22121E+03  3.17365E+03 -7.18378E+02 -3.21731E+03  1.72543E+03 -1.64094E+02 -3.15997E+02  3.18121E+03
  5.39326E+03 -3.77234E+03  7.05581E+02 -3.44386E+03 -8.22115E+02  3.75508E+03  1.06615E+02 -4.27618E+02
 -3.04655E+03 -2.13266E+01  5.58524E+02 -1.07721E+03  1.88273E+03  7.76824E+02 -3.00292E+02 -1.86275E+03
 -1.28420E+03  5.80459E+03 -5.04726E+03 -1.86545E+03  4.07516E+03  2.12298E+03 -1.90295E+03  7.41642E+02
 -2.99295E+03  3.66437E+02 -3.96093E+02 -6.62819E+02 -5.86865E+01 -4.20994E+03  3.66228E+03  5.75695E+01
 -1.29312E+03 -3.29131E+03  7.87757E+02  3.25241E+03 -1.29430E+03 -3.32694E+00  1.15596E+03 -2.93280E+03
  2.31648E+03  2.18125E+03  4.71812E+02 -3.39664E+03 -3.83061E+01  8.41973E+02  5.08028E+02 -4.24421E+03
 -1.34352E+03  4.44650E+02 -7.57994E+02  2.02386E+03 -2.00997E+03  2.75108E+03 -1.29588E+02  1.42460E+03
  2.64270E+03 -1.32846E+03  2.01416E+03  1.11612E+03 -4.71163E+02  2.90473E+03 -2.08481E+03  2.23085E+03
 -4.63585E+03  1.07467E+03 -9.73372E+02  4.70112E+03 -2.27681E+03  4.26521E+01 -3.45749E+03 -2.46909E+03
 -2.71097E+03 -2.50175E+03 -7.29777E+02  6.69209E+02 -1.21057E+02  2.83251E+03  2.89798E+03  2.12526E+03
  3.15537E+02  2.56977E+03 -4.10283E+03  1.57534E+03 -6.59240E+02 -2.67601E+03 -5.70190E+03 -2.70475E+02
  2.52420E+03 -1.17834E+03  1.33295E+03  1.08560E+03  2.79512E+03  4.52789E+03  6.42061E+02 -9.14724E+02
 -2.13530E+03 -2.19077E+02  1.81890E+02 -1.75316E+03  1.04924E+03  1.55957E+03  2.61448E+03 -1.27506E+03
  3.84496E+03 -2.91540E+03  1.51228E+03  2.96311E+03  2.65857E+01 -9.95581E+02 -3.21983E+02  2.32933E+03
  2.76369E+03  3.17726E+03 -4.43666E+03  2.01674E+03  3.85533E+03 -1.51501E+03 -4.53338E+01  4.91843E+03
 -3.16002E+03 -1.46520E+03  8.70712E+02 -2.50557E+02  6.98613E+02 -2.57676E+03 -1.79466E+03 -3.17655E+02
 -2.54289E+03  1.97048E+03  1.39232E+03 -1.55604E+03  1.76985E+02 -5.53092E+02 -3.76604E+03 -1.83052E+02
 -1.21972E+03  1.09491E+03  2.63755E+02  6.89733E+02  3.96328E+02  2.79856E+03 -2.63834E+03  2.21907E+03
