 $NMID ID='MM_0lb_SNR50_7hz_g50_63.RAW', FMTDAT='(8E13.5)'
 TRAMP=1., VOLUME=1. $END
  3.12537E+05  6.62330E+03  3.40193E+05  2.52794E+05  9.18064E+04  3.35418E+05 -1.36438E+05  2.51967E+05
 -1.99665E+05  8.28421E+04 -1.16091E+05 -3.04129E+04  1.97340E+03 -4.95719E+04  5.12564E+04 -1.70404E+03
  3.39168E+04  4.83108E+04 -1.37632E+04  8.19301E+04 -6.01819E+04  6.26492E+04 -7.54899E+04  3.78489E+04
 -8.66912E+04 -1.57635E+04 -6.46203E+04 -5.48952E+04 -1.56705E+04 -6.73182E+04  3.11570E+04 -4.85720E+04
  4.41239E+04  8.25541E+02  2.18382E+04  4.54209E+04 -3.80299E+04  4.63225E+04 -6.62113E+04  3.70427E+03
 -5.27337E+04 -6.62180E+04 -1.52734E+04 -8.04573E+04  3.37417E+04 -5.90317E+04  4.61435E+04 -2.17757E+04
  4.54383E+04  8.82128E+03  3.23721E+04  2.99778E+04  1.34779E+04  2.93072E+04 -1.00362E+04  3.05614E+04
 -2.53100E+04  1.83853E+04 -1.65388E+04 -6.82337E+03  6.29805E+03 -4.24903E+03  2.82304E+04  1.39458E+04
  4.29805E+03  3.80015E+04 -3.12154E+04  3.50660E+04 -6.90454E+04  3.92268E+03 -6.26982E+04 -4.47086E+04
 -1.01267E+04 -6.87524E+04  4.61140E+04 -5.22868E+04  6.29087E+04 -5.75676E+03  3.85370E+04  3.70283E+04
 -2.97111E+03  4.90645E+04 -3.51885E+04  1.79854E+04 -3.55642E+04 -7.97393E+03 -2.26369E+04 -1.16102E+04
 -1.40119E+04 -8.22202E+03  4.75386E+02 -2.51198E+04  1.49267E+04 -2.37828E+04  2.24509E+04 -1.22778E+04
  1.12659E+04  4.19778E+03 -1.34813E+04  4.87075E+03 -2.92413E+04 -1.14696E+04 -8.14912E+03 -4.07559E+04
  2.92732E+04 -5.00509E+04  5.08691E+04 -2.13512E+04  4.50549E+04  1.49961E+04  1.43543E+04  5.34253E+04
 -1.85950E+04  4.02802E+04 -3.27932E+04  6.14360E+03 -8.75864E+03 -3.21586E+04  2.84548E+04 -4.64960E+04
  3.95819E+04 -1.11934E+04  4.21488E+04  1.72175E+04  1.64841E+04  5.76972E+04 -6.85552E+03  5.99289E+04
 -4.13785E+04  4.60207E+04 -5.53256E+04  2.11691E+04 -4.78944E+04 -2.29742E+04 -2.60641E+04 -4.73656E+04
  9.77401E+03 -4.04854E+04  3.67526E+04 -1.58429E+04  3.69879E+04  1.02952E+04  4.92956E+03  1.80628E+04
 -1.20596E+04  7.68253E+03 -1.31326E+04 -1.79287E+03  2.25664E+03 -1.31338E+04  2.16772E+04  1.11963E+03
  1.57663E+04  2.27938E+04 -2.87445E+03  2.70798E+04 -2.68322E+04  9.28582E+03 -3.53141E+04  3.65291E+03
 -2.60853E+04 -2.22989E+04 -9.60178E+03 -3.15804E+04 -1.22711E+03 -2.49184E+04  2.49506E+04 -2.66396E+04
  3.79950E+04 -1.19369E+04  3.87744E+04 -4.60023E+02  3.25763E+04  2.49539E+04  1.07040E+04  4.23987E+04
 -2.32499E+04  3.42318E+04 -2.95435E+04  5.81370E+03 -2.95308E+04 -8.33301E+03 -2.65054E+03 -1.22940E+04
  6.14636E+03 -3.01723E+03 -8.63262E+03  1.19266E+04 -1.88858E+04  6.75281E+03 -2.69474E+04 -9.31813E+03
 -1.37810E+04 -2.56975E+04  1.54890E+04 -2.92756E+04  1.95552E+04 -2.49524E+04  2.23420E+04 -1.86231E+03
  1.37337E+04  1.86121E+04 -5.45161E+03  2.64917E+04 -1.84150E+04  9.67007E+03 -2.09700E+04 -8.08147E+03
 -1.64617E+04 -2.18264E+04 -9.31082E+03 -3.27007E+04  8.35881E+03 -1.08360E+04  1.88370E+04 -1.29808E+04
  1.34777E+04  5.03112E+03  1.51358E+04  6.05567E+03  1.35117E+04 -7.16689E+03  1.75600E+04  3.42059E+03
  2.05536E+04  4.71586E+03  2.86919E+04  1.49083E+04  2.31687E+04  3.46707E+04 -1.05485E+03  3.66593E+04
 -1.90458E+04  3.63654E+04 -5.06804E+04  2.45503E+04 -5.09987E+04 -2.83586E+03 -3.88641E+04 -2.97214E+04
 -1.37803E+04 -4.01364E+04  1.82777E+04 -3.43272E+04  2.90837E+04 -1.83206E+04  2.97478E+04  1.35490E+04
  1.06144E+04  1.79234E+04 -1.82040E+04  2.61209E+04 -1.97302E+04  3.95662E+03 -1.33699E+04 -1.84741E+04
  6.30933E+02 -2.61318E+04  1.59180E+04 -1.85594E+04  1.58358E+04 -8.05544E+03  4.38479E+03  1.03665E+04
 -1.05194E+04  2.60012E+03 -1.63290E+04 -1.21056E+04 -2.14658E+03 -2.45243E+04  1.70099E+04 -1.85563E+04
  2.37777E+04 -1.04147E+04  2.67961E+04  7.98211E+03  2.42429E+04  1.67750E+04  1.07317E+04  2.87000E+04
 -5.99274E+03  3.86911E+04 -1.89031E+04  3.08711E+04 -2.14181E+04  7.60576E+02 -1.67984E+04 -1.10019E+04
  4.58933E+02 -1.96707E+04  3.05064E+03  7.77436E+02 -2.58251E+03  2.72544E+03 -6.55670E+03  1.20467E+04
 -1.87998E+04  2.72847E+03 -1.14175E+04 -1.65066E+04 -5.16733E+03 -1.48031E+04  4.73531E+03 -1.98111E+04
  2.37479E+04 -7.05435E+03  8.16282E+03  5.26279E+03  1.60774E+03  6.37864E+03 -1.16593E+04 -4.26853E+03
 -9.78595E+03 -1.13667E+04 -7.58294E+02 -1.92272E+04  1.33837E+04 -1.62214E+04  2.71224E+04 -1.42030E+04
  3.10078E+04  7.36962E+03  2.22239E+04  1.86264E+04  4.92446E+02  2.31975E+04 -6.18272E+03  1.83146E+04
 -1.32812E+04  2.90227E+03 -7.33627E+03  4.61486E+02  1.36430E+03 -1.16754E+04  7.39578E+03 -3.13652E+03
  1.27196E+03  1.94160E+03  6.63470E+02  1.97864E+04 -3.76977E+03  1.22518E+04 -1.84196E+04  7.49739E+03
 -9.44662E+03 -9.46331E+03  3.47435E+03 -9.34225E+03  1.04636E+04 -7.69707E+03  6.80511E+03  2.08446E+03
  7.56631E+02  1.34409E+04 -1.75723E+04  1.55544E+04 -1.49177E+04  7.02226E+03 -2.11216E+04 -5.74289E+03
 -1.83860E+04 -2.04276E+04  1.67464E+03 -1.99932E+04  1.62590E+04 -1.14900E+04  2.08194E+04  9.23779E+03
  1.29687E+04  1.94968E+04  1.03706E+03  1.69059E+04 -1.65191E+04  1.11716E+04 -1.13766E+04  4.35095E+03
 -1.81477E+04 -1.16726E+04 -5.77929E+03 -1.93326E+04  8.40104E+03 -1.18757E+04  3.17952E+03 -2.44244E+03
  7.83783E+03  2.87862E+03  2.35368E+03  4.49472E+03 -8.01125E+03 -8.75898E+03  2.54369E+03 -3.79861E+03
  1.09771E+04 -6.69098E+03  2.21474E+04  1.04712E+04  2.15267E+04  1.43908E+04  7.87814E+03  2.63268E+04
 -5.91705E+03  3.01037E+04 -2.98354E+04  1.77541E+04 -2.55739E+04  3.64568E+03 -2.59395E+04 -1.99321E+04
 -1.21288E+04 -1.80072E+04 -3.73411E+03 -2.51924E+04  6.61604E+03 -1.23101E+04  3.21537E+03 -1.08648E+04
  5.86890E+03 -3.51833E+03  1.30425E+04 -1.65632E+03  1.40000E+04 -3.92773E+03  1.52134E+04 -2.82678E+03
  6.68394E+03 -1.00669E+03  1.18531E+04  1.49191E+04 -4.43874E+03  1.02405E+04 -1.21333E+04  1.03037E+04
 -2.13202E+04 -1.33181E+04 -9.16625E+03 -1.19002E+04  2.58949E+03 -1.36401E+04  8.84673E+03 -1.62409E+04
  1.81412E+04 -1.27319E+04  1.54659E+04  5.32565E+03  2.07889E+04  2.36810E+04  1.43397E+03  2.66748E+04
 -4.71398E+03  1.82010E+04 -8.07349E+03  3.53820E+03 -8.74020E+03 -2.51598E+03 -5.76135E+03 -1.03638E+03
 -8.64877E+03 -1.34209E+01 -2.34489E+03 -2.90037E+03 -5.55223E+03  7.57186E+02 -1.53937E+04 -1.00647E+03
 -1.66791E+04 -1.59585E+04 -7.64317E+03 -1.58530E+04  8.25390E+03 -1.97368E+04  1.09218E+04 -6.46261E+03
  1.27351E+04  1.18271E+04  6.35616E+03  1.20123E+04 -4.68259E+03  1.29297E+04 -8.60117E+03  1.70992E+04
 -1.52330E+04 -2.96412E+03 -1.99663E+04 -1.49645E+04  2.21777E+03 -1.42349E+04  8.52905E+03 -9.59448E+03
  1.84159E+04 -4.29654E+03  1.32622E+04  5.69169E+03  1.01506E+04  1.25759E+04 -3.41343E+03  5.48837E+03
  4.19694E+03  3.68364E+03  3.45943E+03  6.22354E+03 -4.61431E+03  9.34550E+03  1.24209E+03  1.05600E+04
 -6.44660E+03  1.61676E+04 -1.43384E+04  1.73227E+04 -2.14974E+04  6.38196E+03 -1.86895E+04 -7.86084E+03
 -6.64840E+03 -2.20305E+04  3.30746E+03 -2.58353E+04  1.12782E+04 -7.61726E+03  3.39974E+03  2.98386E+03
  1.56292E+04  1.06783E+04 -5.80609E+03  1.82472E+04 -3.85378E+02  8.93785E+03 -5.81787E+03 -1.27187E+03
  7.86378E+02 -9.60068E+03  5.22026E+03 -4.04757E+03  9.18802E+03 -5.81531E+03  1.24607E+04 -2.12060E+03
 -1.37758E+02  7.64556E+03  8.17188E+03  2.17850E+03 -5.02754E+03  6.90281E+03  7.55859E+03 -3.13291E+02
  5.07222E+02 -4.41673E+02  4.52688E+03  3.20317E+03  1.69655E+03  1.00780E+04  3.17329E+03  1.30116E+04
 -1.64005E+04  1.43710E+04 -1.58358E+04 -6.27731E+03 -8.34209E+03 -5.49460E+02 -2.85498E+03 -3.51361E+03
  3.44652E+03 -6.37202E+03  4.59081E+03 -9.13654E+03  6.76791E+03  4.48812E+03 -3.73786E+02  6.95243E+03
 -9.02735E+03  8.18354E+02 -3.64437E+03 -4.07330E+03  3.63061E+03 -7.11628E+03 -1.95476E+03 -8.03297E+03
  1.05668E+04 -1.26718E+04  5.79978E+03  7.13898E+02  9.37851E+03  8.25938E+03 -1.58961E+03  7.58714E+03
 -1.23983E+04 -6.85135E+03 -5.06292E+03 -5.83852E+03 -6.03672E+03 -6.86761E+03  1.50194E+04 -9.12100E+03
  9.62693E+03  2.40050E+03  9.82257E+03  8.95807E+03  2.91597E+03  7.71331E+03 -8.34800E+03  1.11916E+04
 -1.22281E+04  7.74206E+03 -1.47393E+04 -5.08570E+03 -8.98754E+03 -5.35075E+03  5.76533E+02 -7.24831E+03
  1.24724E+04 -5.31234E+03  9.38401E+03  3.87889E+03  2.57645E+03  1.23921E+04  1.94948E+03  1.02231E+04
  8.34307E+02  8.04403E+03 -7.66336E+01  2.32067E+03 -1.68134E+03  1.04549E+03 -8.10914E+03  1.72563E+02
 -5.84090E+02  5.03121E+03 -7.02837E+03  6.20041E+03 -2.04281E+04  5.15988E+03 -1.83669E+04 -1.30709E+04
 -1.46821E+04 -1.98598E+04  1.14400E+04 -2.54111E+04  2.39533E+04 -1.61487E+04  2.19289E+04  2.82109E+02
  2.23045E+04 -9.00889E+02  9.24907E+03  7.15482E+03 -9.28518E+02  1.93740E+04 -1.34285E+04  1.13351E+04
 -8.85490E+03  3.31661E+03 -1.47531E+03 -3.51182E+03 -9.61941E+02 -4.91200E+03 -6.49284E+00  3.52914E+01
 -1.21350E+03 -3.54660E+03 -3.03704E+03 -5.05066E+02 -3.70909E+03 -3.90650E+02 -7.67340E+02 -5.51398E+03
  2.44455E+03 -7.57200E+03  3.38718E+03  4.44448E+03  6.31155E+03  3.93688E+03 -1.05226E+03  1.45277E+04
 -6.94014E+03  2.02816E+04 -4.93668E+03  1.22239E+04 -1.15768E+04 -6.66577E+03 -8.38364E+03 -1.98999E+04
 -9.37738E+03 -1.93611E+04  2.80224E+03 -1.32479E+04  9.60571E+03 -2.54416E+02  6.09180E+03  9.73988E+02
  6.08712E+03  4.93763E+03 -2.37480E+03  1.01948E+04 -6.65806E+03  4.45116E+03 -6.84046E+02 -6.77846E+03
 -3.66646E+03  6.32220E+03  6.77680E+03  7.16885E+01  5.85007E+03  2.61097E+03 -4.06315E+03  5.14997E+03
 -3.81269E+03  3.48083E+03 -2.85934E+03  7.92710E+02 -1.10333E+04  1.97292E+02 -6.11625E+03 -1.87519E+04
  1.04993E+04 -1.70669E+04  9.07885E+03 -3.37009E+02  6.09060E+03  5.43256E+03  4.52316E+03  8.74742E+03
  1.37065E+03  1.06918E+04  8.48696E+01  9.04869E+03 -9.88956E+03  9.54016E+03 -6.41763E+03  1.89503E+03
 -6.98965E+03  2.59757E+03  4.43783E+03  2.03319E+03 -5.77466E+03 -7.79229E+02 -4.70353E+03 -4.19440E+02
 -1.54933E+04 -5.70711E+03  1.88758E+03 -1.01588E+04  3.72736E+03 -1.34211E+04  1.27150E+04  1.40234E+03
  7.78267E+03 -5.29326E+03  1.08527E+04  1.27899E+04  3.97627E+03  1.30296E+04 -6.30534E+03  7.22261E+03
