 $NMID ID='MM_0lb_SNR50_13hz_g40_46.RAW', FMTDAT='(8E13.5)'
 TRAMP=1., VOLUME=1. $END
  3.11392E+05 -7.44039E+02  3.36921E+05  2.47893E+05  8.25089E+04  3.36806E+05 -1.30978E+05  2.50139E+05
 -1.94721E+05  8.24828E+04 -1.14582E+05 -3.29985E+04  2.98412E+02 -4.76803E+04  5.00281E+04 -8.44766E+02
  3.54991E+04  5.30636E+04 -2.00890E+04  7.49304E+04 -6.82542E+04  6.74727E+04 -8.10298E+04  3.32475E+04
 -7.90962E+04 -1.18290E+04 -5.84626E+04 -4.86441E+04 -1.27530E+04 -7.22158E+04  2.84115E+04 -4.98115E+04
  3.99728E+04  7.23281E+03  1.42473E+04  4.80533E+04 -3.38021E+04  4.55661E+04 -6.65847E+04 -3.50665E+03
 -5.26662E+04 -6.09246E+04 -1.29952E+04 -7.62296E+04  3.75273E+04 -5.27563E+04  5.32757E+04 -1.74050E+04
  4.47122E+04  1.17097E+04  3.35627E+04  2.64577E+04  1.67771E+04  2.98217E+04 -6.11971E+03  3.29205E+04
 -2.46778E+04  1.27911E+04 -2.03753E+04 -5.38363E+03  9.02063E+03 -1.09613E+04  2.34198E+04  7.53772E+03
  1.01970E+04  3.57501E+04 -3.28009E+04  3.38609E+04 -6.08400E+04 -1.45346E+03 -5.56882E+04 -4.49968E+04
 -1.36253E+04 -6.52688E+04  4.07772E+04 -4.28350E+04  5.26291E+04 -2.64088E+03  3.66466E+04  3.05450E+04
  1.79322E+03  3.79185E+04 -2.70355E+04  1.34446E+04 -2.74797E+04 -7.50433E+03 -1.55211E+04 -1.34559E+04
 -4.89445E+03 -2.01317E+04  2.16197E+03 -2.27772E+04  1.00983E+04 -1.97613E+04  1.58353E+04 -9.87430E+03
  1.14148E+04  7.03617E+03 -1.12449E+04  1.25802E+04 -2.44301E+04 -3.41268E+03 -8.69362E+03 -3.32350E+04
  2.38121E+04 -4.23778E+04  4.76539E+04 -2.03245E+04  4.21103E+04  2.50610E+04  9.90511E+03  3.80975E+04
 -1.08679E+04  3.29830E+04 -2.42546E+04  5.91932E+02 -7.75916E+03 -3.23580E+04  1.74585E+04 -3.65487E+04
  3.96350E+04 -1.30006E+04  4.13924E+04  2.74649E+04  1.56755E+04  4.68792E+04 -4.62865E+03  5.01056E+04
 -3.61893E+04  3.29118E+04 -4.51028E+04  8.12266E+03 -4.14076E+04 -1.71712E+04 -2.55705E+04 -3.56924E+04
  1.04753E+04 -3.79631E+04  2.75191E+04 -1.39190E+04  2.80361E+04  5.47761E+03  4.14497E+03  1.74207E+04
 -1.34864E+04  1.01797E+04 -8.08009E+03 -6.79686E+02  6.81430E+03 -1.62716E+04  1.37570E+04  6.30923E+03
  8.67503E+03  2.44685E+04 -2.63861E+03  2.43958E+04 -2.45582E+04  1.07145E+04 -2.96560E+04 -3.41477E+03
 -1.88347E+04 -1.79106E+04 -4.34190E+03 -2.35360E+04  4.04103E+03 -2.03764E+04  1.77652E+04 -1.84989E+04
  2.52988E+04 -7.53625E+03  3.27510E+04  8.61820E+02  2.83829E+04  1.96168E+04  7.03407E+03  3.61689E+04
 -1.78361E+04  2.74608E+04 -2.68997E+04  9.52258E+03 -1.75908E+04 -7.44598E+03 -3.71837E+03 -1.87059E+04
  5.60037E+01 -4.79966E+03 -7.44377E+03  7.81291E+03 -1.48032E+04  1.01570E+04 -1.32332E+04 -1.21859E+04
 -7.81205E+03 -1.51695E+04  6.79934E+03 -2.45585E+04  1.36488E+04 -1.73568E+04  1.50650E+04 -1.83230E+03
  6.34641E+03  1.51244E+04  1.09382E+03  1.91077E+04 -1.40872E+04  1.01008E+04 -1.71362E+04  1.85076E+02
 -1.79246E+04 -1.17739E+04 -1.44059E+03 -2.16668E+04  5.62509E+03 -1.69957E+04  1.71572E+04 -6.94625E+03
  1.95682E+04  1.02972E+03  8.09012E+03  6.93640E+03  3.11185E+03  2.77100E+03  9.62834E+03 -4.12356E+02
  1.78919E+04  3.87209E+03  1.81456E+04  1.11523E+04  1.29479E+04  3.24167E+04 -3.08332E+03  3.13917E+04
 -1.62261E+04  2.87865E+04 -2.94716E+04  1.36791E+04 -3.40592E+04  3.85803E+03 -2.49983E+04 -1.54660E+04
 -1.75173E+04 -2.98661E+04  7.28755E+03 -2.40941E+04  2.37008E+04 -9.71919E+03  2.11220E+04  5.16506E+03
  4.56439E+03  1.22870E+04 -6.71744E+03  1.03100E+04 -2.10515E+04  1.76687E+03 -1.05376E+04 -1.19870E+04
  3.19914E+03 -1.26315E+04  7.75985E+03 -7.59485E+03  1.20209E+04 -5.06176E+02  4.82157E+03  8.08125E+03
 -4.43439E+03  3.21866E+03 -3.88285E+03  2.28342E+03 -2.62314E+03 -1.17485E+04  7.28388E+03 -1.03618E+04
  1.96351E+04 -7.34928E+03  1.89133E+04  2.06200E+03  1.81664E+04  1.25741E+04  6.96171E+03  1.54634E+04
 -5.21958E+03  2.04258E+04 -1.34465E+04  1.40345E+04 -1.65010E+04  5.54753E+03 -1.03027E+04 -8.20419E+03
 -2.08617E+03 -4.65178E+03 -5.46291E+03  4.87222E+02 -4.36380E+03  3.81061E+03  1.95481E+02  2.21680E+03
 -7.87433E+03  5.67424E+02 -1.01600E+04 -7.78429E+03  2.35962E+02 -1.59457E+04  2.65984E+03 -1.04959E+04
  1.60454E+04 -7.03405E+03  7.76737E+03  9.74947E+03  2.10868E+02  1.51240E+03 -6.49000E+03  1.02785E+03
 -3.20603E+03 -5.51534E+03  3.47972E+03 -1.18392E+04  9.70503E+03 -1.40426E+04  1.35738E+04 -3.34353E+03
  1.86084E+04 -3.90843E+01  1.13709E+04  1.29806E+04  2.34391E+03  1.38901E+04 -9.69533E+03  1.01332E+04
 -2.45454E+03  2.86007E+03 -4.82792E+03  7.28490E+02 -1.38019E+03 -3.78528E+03  6.58477E+03 -2.71903E+03
  7.14707E+03  8.32568E+03 -2.57258E+03  9.11421E+03 -5.10578E+03  5.39828E+03 -8.04758E+03  7.50802E+03
 -7.25842E+03 -9.40063E+03  1.24744E+03 -7.97519E+03  2.54576E+03 -6.40286E+03  7.57123E+03  3.85246E+03
  2.67726E+03  5.09967E+03 -3.18016E+03  7.95606E+03 -9.38920E+03 -1.02710E+03 -8.53484E+03 -5.66808E+03
 -4.41583E+03 -8.03246E+03  1.12769E+03 -8.77910E+03  1.41610E+04 -4.45902E+03  9.38408E+03  4.28939E+03
  9.09161E+03  6.75484E+03 -2.85126E+03  6.09766E+03 -8.19899E+03 -7.85673E+01 -5.46022E+03  4.22736E+03
 -7.42228E+03 -1.00547E+04  2.08218E+03 -1.28658E+04  1.24648E+03 -9.54612E+03  8.10090E+03 -2.88012E+03
  4.61382E+03  1.32660E+03 -5.56305E+03  3.24943E+03 -1.71027E+03 -4.01819E+03 -3.24430E+02 -1.14242E+04
  1.06296E+04 -6.70271E+03  1.39100E+04  4.59073E+03  1.27639E+04  1.13769E+04  7.88089E+03  1.50892E+04
  3.75246E+02  1.82230E+04 -1.63860E+04  1.31907E+04 -1.79275E+04 -2.76236E+03 -1.34364E+04 -6.31705E+03
 -7.27615E+03 -1.38527E+04 -4.54138E+02 -6.95633E+03  2.92282E+03 -3.65428E+03  4.17811E+03 -2.63840E+03
  4.81700E+03  6.68156E+01  2.63050E+03 -3.49221E+03  9.03651E+03 -1.60072E+03  2.67096E+03  4.62604E+03
  6.75824E+03 -3.12123E+03  4.31225E+03  2.16291E+03 -9.28763E+02  6.19667E+03 -1.24251E+04  2.65734E+03
 -6.27432E+03 -2.54922E+03 -4.40172E+03 -1.78428E+03  7.47234E+02 -8.59349E+03  5.19416E+03 -1.03573E+04
  7.14959E+03 -7.73736E+03  1.38872E+04 -2.13590E+03  1.01096E+04  8.28664E+03  2.78658E+03  1.04042E+04
 -7.59181E+03  5.89774E+03 -1.26723E+04  7.46455E+03 -7.63428E+02 -3.60252E+03 -1.21378E+03  5.60293E+03
  1.02513E+03 -1.42844E+03  4.41724E+02  2.61147E+03 -2.61805E+02  3.46273E+03 -4.19638E+03 -7.68650E+02
 -7.25607E+03 -5.06941E+03 -2.91564E+03 -1.29313E+04  3.59087E+03 -9.23544E+03  7.54026E+03 -3.55156E+03
  8.72279E+03  9.69755E+03  3.56951E+03  6.43047E+03 -2.56762E+03  7.11315E+03 -6.28932E+03  8.51149E+02
 -9.31939E+03 -1.90742E+03 -4.32946E+02 -8.11857E+02 -3.16918E+03 -1.00233E+04  2.68296E+03 -1.64456E+03
  8.89788E+02 -5.76907E+03  4.43676E+03 -2.19315E+03  3.89717E+03  6.67757E+03  5.13522E+03  5.97276E+02
  5.28738E+03 -3.27999E+02  2.87657E+03 -3.14309E+02  2.54570E+03  5.12987E+03  1.64358E+03 -5.12372E+01
 -1.65201E+03  9.86765E+03 -2.51452E+03  6.93993E+03 -5.33610E+03  5.72325E+03 -1.02221E+04 -4.31975E+03
  2.02589E+03 -7.43418E+03  9.93293E+02 -8.65423E+03 -2.24560E+03 -9.32472E+03  9.15837E+03  8.01463E+02
  3.60574E+03  2.48785E+03  4.12210E+03  2.85316E+03 -2.54231E+03 -1.28061E+03 -2.67654E+03  1.82184E+03
  3.61210E+03 -5.63788E+03  5.66748E+03 -7.59945E+03  4.77457E+03 -2.74068E+03  4.84310E+03 -3.04568E+03
  6.54417E+03  2.12031E+03  3.99742E+03  1.11949E+03 -1.28056E+03  2.17436E+03  3.48087E+03 -4.66295E+03
 -2.97287E+03  8.72241E+02  4.50823E+03  1.40968E+03 -1.28399E+03  5.67195E+03  8.28460E+02  8.33705E+02
  1.73168E+01  4.07291E+03 -5.49402E+03 -6.18716E+02 -3.55416E+03 -2.90914E+03 -1.17583E+03  2.07552E+03
 -4.18697E+02 -6.16059E+02 -2.43363E+03 -5.11221E+03  2.85454E+03  2.27615E+02 -4.91281E+03  5.04008E+03
 -1.62433E+03  1.48228E+03 -6.31988E+03  3.75846E+02 -5.86591E+03 -4.84884E+03  4.55680E+03 -6.86814E+03
 -3.94649E+03 -2.20855E+03  5.93075E+03  2.43586E+03  1.80161E+03  3.13252E+03  2.35140E+03  9.64925E+02
  2.45548E+03  2.64961E+03 -3.74298E+03 -5.55987E+03  4.27218E+03 -9.69757E+02  4.01040E+03 -2.08348E+03
  2.85394E+03  2.59794E+03  4.91906E+03 -7.00158E+02  2.28561E+03  8.88329E+03 -3.19578E+02  5.31756E+03
 -5.01343E+03  4.40901E+03 -2.11334E+03 -1.46155E+02  3.71363E+03 -5.72622E+03 -5.99170E+03 -1.65731E+02
  4.76733E+03  1.37737E+03  1.56221E+02 -4.70098E+03  3.60932E+03  6.20270E+03  2.60524E+03  7.72788E+02
 -2.66542E+03 -8.77417E+02 -2.09613E+02  3.08498E+03  1.14437E+03  2.53437E+02 -1.04911E+03  4.81437E+03
 -1.21805E+03  1.00379E+03 -3.20519E+03  4.13170E+03 -3.68113E+03  3.33770E+02 -7.19444E+03 -6.27715E+02
 -5.25258E+03 -1.76975E+03  1.93427E+03 -2.73150E+03  1.02332E+04 -5.15603E+03  7.79910E+03 -4.55236E+03
  9.29590E+03  3.91605E+03  6.80911E+03  2.17199E+03 -7.69292E+02  5.15455E+03 -2.77436E+03  4.74854E+03
 -7.99733E+03 -1.54920E+03  2.96110E+03 -4.07674E+03 -1.08786E+03  9.13315E+02  3.82310E+03  6.66335E+02
  1.46516E+03 -2.35459E+03  1.84394E+03 -1.72421E+03 -5.14919E+02 -2.70368E+01 -2.10609E+03 -4.57129E+03
  9.20565E+03  3.79689E+03  4.21481E+03  3.08848E+02  3.33472E+03 -9.30128E+02 -5.47625E+03  7.83942E+03
 -2.89743E+03  4.26910E+03 -2.40889E+02  6.87252E+03 -6.72529E+03 -8.02197E+02 -3.95503E+03 -2.43922E+03
 -3.22688E+03 -4.31754E+03  9.75485E+02 -7.40859E+03 -1.45673E+03 -8.03954E+02  1.52063E+03  3.90176E+03
  3.49145E+03 -2.64351E+02 -1.06634E+03  3.88638E+03  2.69410E+03 -1.15687E+03  1.93902E+03 -3.05967E+03
 -1.42728E+03 -4.24079E+03  1.39448E+03  2.85400E+02 -2.90565E+03  5.38512E+03 -5.57713E+03  3.80048E+03
 -6.12158E+03  3.14248E+03 -8.76510E+03 -4.33098E+03 -4.20918E+03 -2.61022E+03 -2.50694E+03 -3.86328E+03
  1.64097E+02 -1.11613E+03  1.22316E+03  1.16127E+03  5.26936E+03 -1.23558E+03  4.52338E+03  6.48698E+03
  3.37539E+03  2.43990E+03  7.46836E+02 -2.44380E+03 -4.22825E+03  6.99769E+03 -6.17708E+02 -4.66539E+02
 -9.07185E+02 -2.52182E+03  4.46489E+02  2.20789E+03 -3.50779E+02  1.47820E+03 -5.59761E+03 -5.63151E+03
  1.31142E+03 -2.26007E+02  1.32922E+03 -8.23866E+03  4.90424E+03 -2.59442E+03 -1.57337E+03 -4.26911E+02
 -4.41102E+03  3.66183E+01  1.15732E+03 -4.44105E+03 -1.43407E+03  3.13881E+03 -1.69108E+03  1.59219E+02
