 $NMID ID='MM_0lb_SNR50_17hz_g45_97.RAW', FMTDAT='(8E13.5)'
 TRAMP=1., VOLUME=1. $END
  3.09081E+05 -4.42397E+02  3.40966E+05  2.47502E+05  8.52393E+04  3.34218E+05 -1.31068E+05  2.45526E+05
 -1.90160E+05  8.17612E+04 -1.08548E+05 -3.73919E+04 -1.24091E+03 -5.01454E+04  5.73870E+04 -3.70581E+03
  3.24849E+04  5.46435E+04 -1.65450E+04  7.49879E+04 -6.11279E+04  6.30025E+04 -8.12658E+04  3.38938E+04
 -8.13017E+04 -1.46160E+04 -5.90480E+04 -5.17240E+04 -1.66685E+04 -6.75995E+04  2.90520E+04 -4.49392E+04
  3.82712E+04  3.01506E+03  1.23309E+04  5.33415E+04 -3.78152E+04  4.54094E+04 -6.35558E+04 -2.11257E+03
 -5.16888E+04 -5.67367E+04 -6.33686E+03 -7.10395E+04  3.49844E+04 -5.56173E+04  5.08708E+04 -1.66658E+04
  4.25247E+04  1.05681E+04  2.98002E+04  2.34501E+04  1.26510E+04  2.85798E+04 -5.16058E+03  2.68660E+04
 -2.42245E+04  1.52921E+04 -1.64223E+04 -5.06183E+03  1.14097E+03 -9.45748E+03  2.23056E+04  1.25558E+04
  8.54503E+03  3.77020E+04 -3.58684E+04  3.84724E+04 -6.18794E+04  5.72317E+03 -5.12389E+04 -4.69745E+04
 -1.48358E+04 -6.31120E+04  3.63835E+04 -4.33395E+04  5.32417E+04  1.18863E+02  3.34535E+04  3.33695E+04
 -8.76118E+03  3.13752E+04 -2.62047E+04  1.25473E+04 -2.74900E+04 -5.29031E+02 -1.33150E+04 -1.45489E+04
 -9.26286E+03 -1.14149E+04 -3.32273E+03 -1.52426E+04  8.74219E+03 -1.86450E+04  1.56134E+04 -1.61428E+04
  1.15496E+04  1.44071E+03 -5.31753E+03  1.40542E+04 -2.21397E+04 -3.76274E+03 -6.01654E+03 -3.50524E+04
  2.11231E+04 -4.41223E+04  4.27576E+04 -1.58313E+04  4.21064E+04  1.82781E+04  1.25457E+04  4.21165E+04
 -2.06851E+04  3.33047E+04 -2.31815E+04  1.80555E+03 -6.88450E+03 -2.50758E+04  1.39607E+04 -2.86434E+04
  4.11890E+04 -6.59631E+03  3.33393E+04  2.26148E+04  1.61118E+04  4.32053E+04 -6.23760E+03  4.96600E+04
 -3.18359E+04  2.96748E+04 -4.17379E+04  5.61683E+03 -4.27635E+04 -1.63058E+04 -2.04078E+04 -3.33878E+04
  7.30261E+03 -3.42923E+04  3.23706E+04 -1.02271E+04  2.33730E+04  9.44475E+03  1.32423E+03  1.74556E+04
 -1.27162E+04  6.65848E+03 -3.61767E+03 -6.95918E+03  5.19635E+03 -1.09489E+04  1.23551E+04  8.71923E+03
  6.47238E+03  2.21791E+04 -3.78983E+03  2.46968E+04 -2.19398E+04  1.12106E+04 -2.71015E+04 -4.83859E+03
 -2.14591E+04 -1.65469E+04 -1.92666E+03 -1.68541E+04  4.22458E+03 -1.40366E+04  1.21203E+04 -1.36607E+04
  2.23971E+04 -1.25395E+04  3.28419E+04  9.28877E+02  2.16279E+04  1.81319E+04  1.27583E+03  3.65135E+04
 -1.72677E+04  2.39669E+04 -3.12089E+04  7.16433E+03 -2.29917E+04 -7.60922E+03 -4.75366E+03 -1.00090E+04
  3.06909E+03 -3.09168E+03 -7.45421E+03  4.29360E+03 -9.19111E+03  1.76261E+03 -1.34106E+04 -3.48611E+03
 -9.07575E+03 -1.78635E+04  3.69753E+03 -2.21065E+04  9.20532E+03 -1.07108E+04  1.61137E+04 -6.65910E+03
  9.68260E+03  1.37604E+04  2.35117E+03  7.98071E+03 -1.23007E+04  1.06189E+04 -1.54455E+04  2.73491E+02
 -1.32126E+04 -1.62655E+04 -2.01013E+03 -2.08667E+04  5.67139E+03 -1.65252E+04  1.42101E+04 -7.72418E+03
  1.60598E+04  1.97753E+01  1.28705E+04 -8.08405E+01  4.14415E+03 -4.15886E+03  6.23420E+03 -5.26635E+02
  1.81688E+04  1.61019E+03  1.27207E+04  1.19992E+04  8.56015E+03  2.49171E+04  1.04638E+03  2.71482E+04
 -1.99645E+04  2.32202E+04 -2.58178E+04  9.69826E+03 -2.81294E+04 -3.66749E+03 -2.43118E+04 -1.77426E+04
 -1.24306E+04 -2.50755E+04  8.10122E+03 -2.24332E+04  1.69832E+04 -1.31187E+04  2.02339E+04  2.38732E+03
  3.89124E+03  7.20813E+03 -3.06159E+03  9.96678E+03 -1.54091E+04  3.55845E+03 -1.30969E+04 -1.00967E+04
  2.35964E+03 -1.39289E+04  7.43390E+03 -1.09044E+04  1.04612E+04 -1.18363E+03  2.09762E+03  5.94387E+03
 -4.01813E+03  4.82388E+03 -3.74619E+03 -3.97847E+03 -2.87807E+02 -1.23997E+04  1.00184E+04 -6.88388E+03
  1.27151E+04 -2.57219E+03  1.80154E+04  6.87732E+03  9.60245E+03  1.12971E+04  6.74672E+03  1.34178E+04
 -3.19107E+03  1.91881E+04 -1.52356E+04  1.21174E+04 -1.09819E+04 -4.00781E+02 -6.75764E+03 -4.33050E+03
 -7.74783E+03 -4.50087E+03 -1.81030E+03  1.26802E+03 -2.51814E+03  1.51783E+03 -2.15064E+03  4.86483E+03
 -5.31951E+03  1.32807E+03 -6.30458E+03 -9.90430E+03 -3.90310E+03 -1.07311E+04  3.49187E+03 -1.01770E+04
  9.59141E+03 -1.93745E+03  8.46023E+03  2.77146E+03 -5.08254E+03  4.30659E+03 -4.79515E+03 -1.51247E+03
 -2.04870E+03 -6.70155E+03 -1.40364E+03 -7.28556E+03  4.91164E+03 -8.28380E+03  1.46115E+04 -4.73869E+03
  1.29969E+04 -8.26468E+02  1.21640E+04  1.04528E+04 -2.33494E+03  7.13996E+03 -7.66015E+03  1.09649E+04
 -8.18726E+03 -1.59632E+03  2.44595E+02 -2.34902E+03  2.89633E+03 -2.70910E+03  5.02034E+03  6.56591E+01
  5.04362E+03  6.96363E+03 -2.84025E+03  9.60970E+03 -5.63553E+03  1.39936E+04 -1.32699E+04  5.93518E+03
 -5.75696E+03 -4.68080E+03  1.08858E+03 -6.40469E+03  3.98155E+03 -1.13449E+03  2.52253E+03 -6.88743E+02
 -3.59090E+03 -1.52772E+02 -2.04105E+03  2.30097E+03 -6.23064E+03  3.80462E+03 -6.90492E+03 -1.89640E+03
 -9.16285E+02 -6.92305E+03 -1.46853E+03 -7.57694E+03  2.36451E+03 -8.97126E+03  1.11949E+04  4.27353E+02
  2.06053E+03  7.91983E+03 -1.60680E+03  6.31942E+03 -1.00341E+04  1.18351E+04 -1.47121E+03  4.08127E+03
 -3.85762E+03 -3.00717E+02 -2.08249E+03 -5.94314E+03  2.66406E+03 -5.08089E+03  5.23811E+03  1.85597E+03
  7.14015E+03 -1.65388E+03 -2.72434E+02  1.44839E+02  3.63808E+03 -1.03390E+03 -5.71960E+02 -1.07082E+03
  6.19892E+02 -2.68822E+03  6.21545E+03 -1.75191E+03  5.37668E+03  3.70647E+03  7.76431E+03  7.85781E+03
  3.60642E+02  8.06911E+03 -1.22811E+04  6.56971E+03 -8.64466E+03  3.66446E+03 -8.49271E+03 -4.00714E+03
 -3.41299E+03 -5.74598E+03  6.99847E+02 -5.03656E+03  6.40336E+02 -1.02665E+03  8.32691E+02 -3.99001E+03
 -2.29755E+03 -4.25676E+03  3.36186E+03 -5.87295E+02  5.07237E+03 -9.77293E+02  3.01205E+03 -8.60843E+02
  7.69528E+03 -1.19830E+03  5.72199E+03  3.58913E+03 -2.68566E+03  1.63406E+03 -3.85182E+03  2.59110E+03
 -6.43442E+03 -2.31311E+03 -1.16446E+02 -3.77363E+03 -3.29985E+03 -7.93477E+03  8.36459E+02 -9.49358E+03
  7.77007E+03 -6.76669E+03  1.10375E+04  1.94277E+03  5.84852E+03  3.06288E+03  5.75806E+03  1.48018E+03
 -1.82686E+03  7.80192E+03 -5.90544E+03  1.85664E+03  3.69246E+03 -1.43783E+03  2.55671E+03 -2.97140E+03
 -4.19253E+02  6.44754E+02 -1.78351E+03  2.39485E+03 -4.28602E+03  2.28355E+03 -6.15429E+03 -1.42743E+03
 -4.01381E+03 -8.36332E+03  1.71301E+03 -4.51501E+03  1.03422E+03 -5.18837E+03  5.28740E+03 -9.37132E+02
  1.76353E+03  1.30430E+03  2.77047E+03  3.76352E+03 -3.48812E+03  3.30810E+03 -3.51461E+03  1.42488E+03
 -6.94166E+03  5.74500E+02 -9.49019E+03  2.49252E+03 -1.59175E+03 -4.17781E+03  1.42972E+03 -3.08926E+03
  2.32158E+03  6.44398E+02  3.75056E+02  3.90891E+03 -2.20645E+02  2.61903E+03 -9.13718E+01  3.72336E+02
  2.16987E+03 -1.60861E+03  9.59266E+02 -3.45361E+02  1.76251E+03  1.21410E+03  2.55681E+03  1.24752E+03
 -2.81831E+03  5.37994E+03 -3.52438E+03  5.14959E+03 -1.83371E+03  4.51938E+03 -3.78400E+03  4.77683E+02
 -3.07449E+03  1.53252E+02  5.48656E+03 -3.14364E+03  3.47404E+03  1.89558E+03  2.61939E+03 -2.24916E+03
  1.96168E+03  4.67191E+03 -2.52866E+03  3.64587E+02  1.82413E+03 -1.49393E+03  4.33340E+03 -2.10004E+03
  2.77136E+02 -1.98328E+03  2.62377E+03 -4.75941E+03 -6.48018E+02  9.69314E+02  6.11670E+02 -4.11238E+03
  1.29136E+03  1.27333E+03  8.66046E+02  1.65714E+03 -2.34378E+03  7.16821E+02  4.33883E+02 -3.56170E+03
  1.44236E+03 -6.64861E+02  2.38005E+03  8.07987E+02  7.44420E+02  4.57256E+03 -2.86492E+03  4.73443E+03
 -4.05436E+03  5.22256E+03 -3.22397E+03  2.38934E+02  1.54262E+03  2.05936E+01 -2.06125E+03 -2.52756E+03
  8.27689E+02 -2.06500E+02 -2.41653E+03 -1.49878E+03  1.99709E+03  2.45171E+03 -3.57954E+03  5.03036E+03
 -4.96985E+03  1.96189E+03 -2.34863E+03 -1.61149E+03 -4.58802E+03 -5.62326E+03 -4.10337E+03 -3.39343E+03
  2.88938E+03  1.54586E+03 -2.13645E+03 -3.30035E+03  1.43911E+03  1.52730E+03 -1.91439E+03  2.48532E+03
 -1.88098E+03  2.03276E+03  1.81025E+03  4.76025E+03 -1.23149E+03  1.82456E+02  1.05723E+03 -3.91268E+03
 -3.83745E+03 -1.85963E+03  5.31628E+03 -2.87134E+02 -3.32316E+03  3.87445E+03 -8.73080E+02  5.47286E+03
  2.92938E+03  2.34626E+03 -6.90594E+03 -2.47006E+03 -2.51887E+03 -6.31254E+03 -1.07877E+03  5.47859E+02
  9.56951E+02 -5.34582E+03  2.98416E+03  4.60720E+01 -9.86649E+02 -1.54291E+03 -3.49545E+02  4.84405E+03
  7.13311E+02  1.87277E+03 -4.19230E+02  2.59220E+03 -1.09124E+03  5.30950E+03 -2.76185E+03 -9.13709E+00
 -1.03495E+03  3.12229E+03 -1.82153E+03 -2.56050E+03  2.79438E+03 -6.68339E+02 -1.77931E+03 -2.75732E+02
 -2.56902E+02 -6.59910E+02  5.48222E+02 -3.15996E+03 -1.17745E+03 -1.75745E+03  5.84427E+03 -3.10439E+03
  1.06490E+03 -3.01537E+03  2.47075E+03  1.21897E+03 -4.72224E+03  3.93600E+03  1.17414E+03 -5.58063E+03
 -1.92744E+03  1.26842E+03 -1.88341E+03  2.69704E+02  8.52030E+02  2.33243E+03 -2.88137E+03 -5.26479E+02
  3.02839E+03 -1.90292E+02 -2.01089E+01 -1.36158E+03 -1.27381E+03  1.44992E+03  6.94616E+02 -7.63765E+02
  4.58612E+03  2.13963E+03 -1.76818E+03 -2.85685E+03  1.27340E+03 -8.44422E+02 -5.18634E+03  4.43637E+03
  2.17918E+03 -2.35739E+03 -3.99056E+03  3.19826E+03 -3.47517E+02 -1.47476E+02  1.31601E+03 -2.49003E+02
 -4.21864E+03 -1.74856E+03 -2.86210E+03 -4.26968E+03  1.90423E+01 -3.82614E+03  4.19289E+03  5.70802E+03
 -2.40294E+03  9.89306E+02 -2.60234E+03 -1.34387E+03 -1.76828E+03 -3.62361E+03 -4.04186E+02  3.69072E+02
 -4.26190E+02 -3.45421E+03 -5.64052E+03  1.00275E+03  3.77517E+03 -1.78546E+03 -3.36791E+03  4.14372E+03
 -5.56443E+03  2.63884E+03  3.64222E+03 -2.05329E+03 -1.46318E+03 -3.10017E+03 -4.75081E+03 -2.49493E+03
  9.64500E+02 -3.21816E+03  7.86611E+02  3.08896E+03  1.51651E+03 -2.06809E+03  1.08353E+03 -1.96401E+03
  5.60791E+02  7.31707E+03  1.05649E+03  2.35574E+03 -2.72500E+03 -1.83761E+03 -1.01700E+02 -2.48235E+03
  2.37560E+03  2.14421E+03 -2.09733E+03  1.88161E+03 -8.25331E+02  3.10104E+03 -2.24404E+03 -1.14193E+03
 -2.71484E+03  1.74498E+03 -8.86270E+02 -6.48971E+02 -9.01350E+02 -8.13850E+03 -2.81942E+03 -1.15001E+02
  2.96844E+03  7.52513E+02  8.23468E+02  2.03949E+03 -3.41706E+03  1.69511E+03  3.05693E+02 -1.80396E+02
