 $NMID ID='MM_0lb_SNR50_15hz_g55_83.RAW', FMTDAT='(8E13.5)'
 TRAMP=1., VOLUME=1. $END
  3.11631E+05  3.89622E+03  3.34426E+05  2.47475E+05  8.50565E+04  3.38396E+05 -1.27426E+05  2.48049E+05
 -1.94952E+05  7.93354E+04 -1.11571E+05 -3.09173E+04  9.60917E+02 -5.18203E+04  5.54623E+04 -3.21580E+03
  3.71449E+04  5.06860E+04 -1.45692E+04  7.24173E+04 -6.40966E+04  6.48943E+04 -8.40903E+04  3.04708E+04
 -7.79063E+04 -1.26081E+04 -5.29456E+04 -5.13136E+04 -1.49084E+04 -7.26752E+04  1.93059E+04 -4.43047E+04
  4.01055E+04  5.41139E+03  1.83869E+04  4.47823E+04 -3.50155E+04  4.31888E+04 -6.65129E+04  3.11086E+02
 -5.43881E+04 -5.66180E+04 -7.69872E+03 -7.39111E+04  3.01018E+04 -5.15178E+04  4.43465E+04 -1.49349E+04
  4.12178E+04  1.42565E+04  2.76363E+04  2.77193E+04  1.11005E+04  2.94155E+04 -3.11248E+03  3.23738E+04
 -1.91587E+04  1.71143E+04 -2.03688E+04 -5.60794E+03  4.48408E+03 -7.51787E+03  2.13860E+04  1.12835E+04
  9.72293E+03  4.28370E+04 -3.27162E+04  3.67238E+04 -6.18986E+04  5.15499E+03 -5.50367E+04 -4.45319E+04
 -1.28058E+04 -6.29435E+04  4.26265E+04 -5.02807E+04  5.63932E+04 -9.07102E+02  3.03041E+04  3.06112E+04
 -9.68696E+03  3.99281E+04 -2.89633E+04  1.81337E+04 -3.15482E+04 -6.48109E+03 -1.59075E+04 -7.57840E+03
 -5.87178E+03 -1.42479E+04 -3.52906E+03 -1.83422E+04  9.96225E+03 -2.77493E+04  1.41205E+04 -1.60976E+04
  1.16854E+04  4.91755E+03 -6.92236E+03  9.80207E+03 -1.59014E+04 -6.64392E+03 -9.28607E+03 -3.60448E+04
  1.99550E+04 -4.61094E+04  4.76248E+04 -2.62974E+04  4.62810E+04  1.92627E+04  1.47798E+04  4.17378E+04
 -1.37885E+04  3.69527E+04 -3.07459E+04 -2.44112E+03 -6.97527E+03 -3.08932E+04  2.37143E+04 -2.96053E+04
  4.19211E+04 -1.21287E+04  3.76251E+04  1.95816E+04  1.97751E+04  4.42581E+04 -9.09637E+03  5.18106E+04
 -2.77967E+04  3.80027E+04 -3.79984E+04  1.42439E+04 -4.63667E+04 -2.08690E+04 -2.49346E+04 -4.11961E+04
  1.19960E+04 -3.46818E+04  3.29528E+04 -1.09536E+04  2.92129E+04  1.50569E+04  1.20192E+03  2.04277E+04
 -1.47554E+04  3.19534E+03 -8.85084E+03 -8.80432E+03  8.35530E+03 -8.42768E+03  1.86912E+04  2.44894E+03
  1.23724E+04  2.37175E+04 -7.49651E+03  2.36399E+04 -1.91904E+04  8.00160E+03 -2.56320E+04 -4.12101E+03
 -2.18687E+04 -1.59700E+04 -9.68568E+03 -1.78234E+04  5.59144E+03 -1.60155E+04  1.50687E+04 -2.17573E+04
  2.70256E+04 -1.38384E+04  3.24459E+04  4.98946E+02  2.55059E+04  2.07106E+04  3.00211E+03  3.89744E+04
 -1.60837E+04  2.99230E+04 -2.80032E+04  9.19746E+03 -1.50315E+04 -1.00439E+04 -2.39408E+03 -1.64830E+04
  1.62063E+03 -4.01820E+02 -5.32143E+03  7.53102E+03 -1.81634E+04  1.01657E+04 -1.89836E+04 -5.53563E+03
 -8.90465E+03 -1.66608E+04  2.91346E+03 -2.14787E+04  1.55220E+04 -1.84753E+04  1.65367E+04 -4.60754E+03
  1.14458E+04  1.43566E+04 -1.75072E+03  2.11870E+04 -1.44920E+04  1.26603E+04 -2.27060E+04  1.74799E+03
 -8.73052E+03 -1.42846E+04 -4.91851E+03 -2.24678E+04  6.01280E+03 -2.06220E+04  2.09710E+04 -1.53720E+04
  1.81935E+04  1.22645E+03  8.68851E+03  9.25032E+03  8.55147E+03  3.99928E+03  1.25064E+04 -7.17459E+02
  1.31307E+04  3.82068E+02  2.16139E+04  1.55811E+04  7.40790E+03  3.26287E+04  3.74710E+02  3.48362E+04
 -2.28518E+04  2.64059E+04 -3.41587E+04  1.34940E+04 -3.20036E+04 -2.44938E+03 -2.61276E+04 -1.56187E+04
 -7.60221E+03 -2.73378E+04  7.40579E+03 -2.73573E+04  1.91243E+04 -1.21862E+04  1.86719E+04  8.73468E+03
  1.04283E+04  1.48869E+04 -8.16019E+03  1.36225E+04 -1.65953E+04  3.08707E+03 -1.27239E+04 -9.91136E+03
  3.73687E+03 -9.30131E+03  8.73993E+03 -8.84610E+03  7.33245E+03 -3.90227E+02  6.02014E+03  4.77072E+03
 -7.03449E+01 -5.98718E+03 -4.73045E+03 -3.84824E+03  2.14860E+03 -1.25697E+04  1.41054E+04 -1.50707E+04
  1.33606E+04 -2.70710E+03  1.32927E+04  4.16573E+03  1.50286E+04  1.12728E+04  9.27211E+03  1.82792E+04
 -3.34376E+01  2.19969E+04 -1.81490E+04  1.21638E+04 -1.40394E+04  4.36940E+03 -1.21045E+04  1.29608E+02
 -6.84373E+03 -7.13642E+03  2.01382E+03 -9.36180E+02 -2.95505E+03  3.85143E+03 -2.01606E+02  5.75602E+03
 -1.35603E+04  4.33227E+03 -1.27228E+04 -8.09672E+03 -9.87173E+03 -1.25565E+04  4.74123E+03 -1.39229E+04
  8.89369E+03 -2.47503E+03  6.13964E+03  5.63794E+03  2.38874E+03  1.77052E+03 -5.13232E+03 -7.82550E+02
 -8.38596E+03 -5.96548E+03 -2.64674E+02 -8.64901E+03  2.34362E+03 -1.13110E+04  1.46764E+04 -8.13248E+03
  1.24807E+04  3.71998E+03  7.46026E+03  9.82020E+03  4.48683E+03  1.30754E+04 -4.56007E+03  1.02756E+04
 -1.43369E+04  1.71695E+03 -3.01920E+03  2.06388E+03  3.52020E+02 -5.57405E+02  9.24051E+03 -1.98836E+03
  6.23163E+03  3.16616E+03 -4.33064E+00  1.15980E+04 -5.71518E+03  6.85237E+03 -1.29443E+04  2.76165E+03
 -8.62508E+03 -4.62901E+03 -1.88367E+03 -3.46919E+03  7.78845E+03 -3.75852E+03  9.69325E+03 -1.19491E+02
  8.22952E+02  1.22516E+04 -8.65549E+03  5.47121E+03 -9.76185E+03  2.35244E+03 -8.11993E+03 -1.98074E+03
 -5.75174E+03 -6.81948E+03  3.35341E+02 -1.03240E+04  1.21261E+04 -1.14055E+04  1.01908E+04 -1.11053E+02
  4.25698E+03  8.27411E+03 -3.06189E+03  7.92704E+03 -5.46779E+03  1.50311E+03 -9.59946E+03 -4.25653E+02
 -7.23362E+03 -7.37701E+03 -1.68343E+02 -1.06080E+04  1.54587E+03 -2.83852E+03  8.73737E+03 -6.32587E+03
  4.59295E+03  1.71750E+03  2.85751E+03 -9.74078E+02  6.74683E+03 -1.87326E+03  2.79656E+03 -5.59379E+03
  1.02407E+03 -1.85989E+03  4.31300E+03  1.94211E+03  7.43757E+03  1.39524E+03  6.42257E+03  1.28672E+04
 -1.11746E+03  1.10452E+04 -1.19317E+04  8.74387E+03 -1.16639E+04 -4.08251E+03 -1.37429E+04 -5.08498E+02
 -6.10637E+03 -1.30558E+04  1.90406E+03 -6.02528E+03  1.81644E+03 -4.38050E+03  8.83172E+02  1.48990E+03
  6.29250E+03  2.60257E+03  4.79474E+03 -4.06128E+03  4.97373E+03 -4.59874E+03  1.47046E+03 -7.91666E+03
  5.27707E+03  3.61039E+03  4.88415E+03  6.35078E+03  7.02573E+02  4.88704E+03 -7.20924E+03  2.55081E+03
 -9.29056E+03  3.35735E+03 -6.35473E+03 -2.41737E+03  5.09341E+03 -7.65544E+03  4.28368E+03 -6.36703E+03
  5.97540E+03 -7.77204E+03  1.35662E+04  3.36130E+03  5.87737E+03  9.05784E+03 -8.09016E+01  6.43292E+03
 -8.48916E+03  3.88291E+03 -7.86561E+03 -1.44474E+03 -3.89838E+03  2.30981E+03 -3.24918E+03 -2.13796E+03
  4.15698E+03  3.37806E+03 -3.86518E+03  2.14956E+03 -8.63964E+03 -3.23993E+03 -3.91067E+03 -1.17747E+03
 -3.28424E+02 -7.81157E+03  5.99009E+02 -7.06320E+03  6.88020E+03 -6.57141E+03  8.27711E+03 -7.19022E+03
  1.06218E+04  2.77364E+03  4.96492E+03  4.69288E+03 -5.08654E+03  6.28931E+03 -1.14794E+04  7.02449E+03
 -1.20583E+04  2.79770E+03 -4.15643E+03 -3.11949E+03 -1.94621E+03 -1.68448E+03  3.70558E+03 -3.95478E+03
  8.28510E+02 -3.19139E+03  9.32404E+02  2.13959E+03  4.56519E+02  1.70347E+02 -2.36933E+02 -3.81775E+02
  2.31674E+03 -4.32945E+03  7.68678E+03  3.17862E+03  5.66308E+03  2.72073E+03 -1.80980E+03  5.69181E+03
 -1.42783E+03  5.68065E+03 -4.29237E+03  6.76077E+03 -1.04175E+04  1.67936E+03 -5.97256E+03 -4.59557E+03
 -6.33965E+03 -8.70883E+03 -9.57942E+02 -8.49077E+03  6.24078E+03 -8.07930E+03  3.40152E+03  1.60335E+03
  1.77771E+03  6.66106E+03  3.06687E+03  2.65665E+03  1.68172E+03  6.06349E+03 -2.20617E+03 -2.33687E+03
 -9.07011E+02 -5.44604E+03  5.84956E+03 -3.25173E+03 -2.35026E+02 -4.24173E+03  1.55946E+03  1.73497E+03
 -4.31858E+02 -3.58722E+03 -1.03707E+03 -2.51975E+03  1.96201E+03  3.65274E+03 -2.04598E+03 -7.08580E+02
  2.44709E+03  7.76602E+02  2.63516E+03  3.81436E+03  1.36800E+03  3.17601E+03 -3.17308E+03  4.06391E+03
 -1.16157E+03  3.63633E+03 -4.46034E+03 -3.34208E+03 -3.38548E+03 -1.20282E+03  5.25383E+03 -3.94992E+03
 -5.44045E+02 -1.89866E+03  2.75310E+03 -8.65627E+03  2.76810E+02  4.40197E+03 -6.36690E+03 -1.65734E+03
 -4.08352E+03  8.03953E+02 -1.03723E+03 -5.16024E+03 -2.29535E+03 -1.34059E+03 -3.50118E+02 -5.98218E+03
  1.91265E+03 -3.60820E+03  5.34798E+03  5.48110E+03  2.73873E+03 -2.01818E+03 -3.95633E+03  5.01875E+02
 -1.55753E+03  9.23365E+02 -3.16106E+03 -6.57555E+03  5.80077E+03 -7.87830E+03  4.19335E+03 -1.06156E+03
  3.30413E+03 -7.38672E+02  2.68506E+03 -2.46231E+02  3.36495E+02  2.66127E+03 -4.78567E+03 -2.02279E+02
 -7.42746E+02  4.43132E+03 -2.23704E+03 -5.38847E+03  2.61258E+03 -3.53780E+03 -3.08261E+02 -1.03097E+03
  2.88520E+03  2.83985E+03  2.60287E+03 -3.83856E+03 -2.12943E+03  3.83570E+03  5.17903E+03  2.55214E+03
  3.30790E+03  1.54397E+03 -2.52330E+03  2.59801E+03  4.23760E+03 -1.70231E+03 -5.85315E+02  1.52647E+03
 -3.50205E+03 -5.56276E+03  4.13603E+02 -3.11876E+03 -5.00214E+03 -3.37059E+03 -3.33087E+03  7.68876E+02
 -1.03794E+03 -2.54150E+03  4.66370E+02 -4.63575E+03  2.48496E+02 -1.27865E+04  8.72733E+03 -2.73904E+03
 -8.85104E+02  1.83376E+03  3.76297E+03  8.07730E+03 -1.17070E+03  9.12620E+03 -3.41229E+03  3.38608E+03
 -5.59749E+03  3.99982E+03 -5.09344E+03  1.65274E+03  8.11427E+02  4.76103E+03  2.27767E+03 -4.61566E+03
 -1.87791E+03  2.55057E+03 -1.13440E+03 -3.51628E+01 -5.21617E+03 -5.24395E+03  3.17961E+03 -6.08702E+03
  1.53750E+03  1.12389E+03  4.44301E+02  1.82510E+03  6.36203E+03  7.29756E+03  8.68527E+02  3.56637E+03
  1.17374E+03  3.00058E+03 -2.94018E+03  5.38312E+01 -9.50592E+02 -3.66649E+03 -3.13097E+03  6.08637E+00
 -6.80585E+03 -6.15470E+03  3.90296E+03 -4.95501E+03  3.16327E+03 -8.48889E+03  3.29014E+03  1.44262E+03
 -5.49148E+02  3.52653E+02 -3.00984E+02  1.66816E+03 -1.01468E+03 -2.64102E+03 -3.10729E+03  2.64508E+03
 -2.91023E+02  1.83066E+03  3.13873E+03 -2.66080E+02  6.04833E+03  4.47836E+02  6.34720E+03  1.55936E+03
 -3.15699E+03 -2.74088E+03 -1.91248E+03  3.20537E+02 -5.32482E+03 -2.65501E+03 -8.10846E+02 -7.16057E+02
  4.06870E+03  5.39684E+03  5.01171E+02  3.07405E+03  2.45807E+02 -2.19191E+03 -2.33650E+03 -2.03679E+02
 -2.20334E+03  1.02797E+03  1.76413E+03  3.59504E+03 -1.37785E+03 -1.58813E+03 -7.93775E+02  1.23749E+03
 -6.19454E+01  9.41723E+02 -1.03360E+03  2.09891E+03  1.34305E+03 -1.22547E+03 -1.17194E+03  1.96263E+03
 -2.29885E+03 -7.56865E+00 -1.57876E+03 -2.13002E+03  1.08476E+03 -3.29399E+03  1.71308E+03 -1.22388E+03
  2.50862E+03  5.65935E+02  2.91881E+03  1.32710E+03 -6.59391E+02  3.94854E+03 -4.95209E+01 -1.44106E+03
