 $NMID ID='MM_0lb_SNR50_20hz_g40_8.RAW', FMTDAT='(8E13.5)'
 TRAMP=1., VOLUME=1. $END
  3.07579E+05  1.08929E+03  3.35888E+05  2.54030E+05  8.27024E+04  3.36594E+05 -1.31938E+05  2.51576E+05
 -1.90515E+05  7.91666E+04 -1.09771E+05 -3.49908E+04 -2.27198E+03 -4.78587E+04  5.83127E+04 -9.33730E+02
  3.97461E+04  5.53581E+04 -1.61654E+04  7.49484E+04 -5.93571E+04  6.16057E+04 -8.20826E+04  3.29545E+04
 -7.87504E+04 -8.72607E+03 -5.71698E+04 -4.52654E+04 -1.80161E+04 -6.58307E+04  2.66514E+04 -4.37607E+04
  3.71704E+04  5.05309E+03  1.79081E+04  4.42585E+04 -3.47342E+04  4.70241E+04 -6.53557E+04  8.95197E+02
 -5.06364E+04 -5.37399E+04 -4.85288E+03 -7.05681E+04  3.26318E+04 -4.93200E+04  4.51415E+04 -1.83874E+04
  4.11347E+04  8.13070E+03  3.28426E+04  2.40338E+04  8.09746E+03  2.77466E+04 -5.31121E+03  2.56390E+04
 -1.94388E+04  1.43310E+04 -2.04996E+04 -5.23110E+03  4.05936E+03 -5.62545E+03  1.95491E+04  6.56069E+03
  8.68225E+03  3.02900E+04 -3.10830E+04  3.34136E+04 -6.02300E+04  3.23899E+03 -5.32284E+04 -4.21475E+04
 -1.36666E+04 -5.51094E+04  3.50761E+04 -3.98808E+04  5.26661E+04 -1.10738E+03  3.24254E+04  3.20032E+04
 -5.54781E+03  3.07267E+04 -2.85150E+04  1.22328E+04 -2.54756E+04 -2.72720E+03 -1.69166E+04 -8.56776E+03
 -8.67579E+03 -1.11060E+04  8.58154E+01 -1.55779E+04  4.59315E+03 -2.14195E+04  1.38612E+04 -1.42399E+04
  1.36682E+04  2.54648E+03 -6.24961E+03  1.52899E+04 -1.97069E+04  4.89871E+02 -7.86685E+03 -2.63463E+04
  2.28070E+04 -3.75919E+04  4.05830E+04 -2.07861E+04  4.26843E+04  1.41445E+04  1.34015E+04  4.15553E+04
 -1.56768E+04  2.99749E+04 -2.27897E+04  2.37774E+03 -7.54867E+03 -2.44882E+04  1.65342E+04 -2.88370E+04
  3.54595E+04 -6.79704E+03  2.98541E+04  2.39613E+04  1.43493E+04  4.07305E+04 -6.69052E+03  4.47849E+04
 -2.52404E+04  2.82490E+04 -3.76769E+04  1.09578E+04 -3.85976E+04 -1.45068E+04 -2.23876E+04 -3.16149E+04
  5.52752E+03 -3.11360E+04  2.76205E+04 -1.42817E+04  3.03428E+04  7.79317E+03  1.92873E+03  1.74673E+04
 -1.11360E+04  6.51034E+03 -8.79551E+03 -7.22960E+03  7.68095E+03 -6.79792E+03  2.04493E+04  4.42903E+03
  1.35504E+04  2.09935E+04 -6.52162E+03  2.14741E+04 -1.99111E+04  4.57258E+03 -2.37243E+04 -2.69783E+03
 -1.44367E+04 -1.72938E+04 -5.86553E+03 -1.33081E+04  7.63630E+03 -1.09320E+04  1.04361E+04 -1.53169E+04
  1.94954E+04 -1.11888E+04  2.58340E+04  2.39065E+03  1.70263E+04  1.48600E+04  5.62516E+03  3.11403E+04
 -1.57282E+04  2.80058E+04 -2.92104E+04  8.29145E+03 -2.19839E+04 -1.18564E+04 -3.35724E+03 -1.17412E+04
  4.68865E+03 -2.60473E+03 -1.04971E+03  5.31805E+03 -1.07264E+04  1.27906E+03 -1.26399E+04 -8.24618E+03
 -8.94058E+03 -1.13596E+04  4.35210E+03 -2.14578E+04  7.48251E+03 -8.59691E+03  1.06852E+04 -7.06794E+02
  1.05734E+04  1.03922E+04 -2.73432E+02  1.54410E+04 -8.66900E+03  8.28548E+03 -1.66144E+04 -3.67053E+03
 -8.53644E+03 -9.22083E+03 -3.95899E+03 -2.02390E+04  7.40829E+03 -1.24401E+04  1.77992E+04 -6.10446E+03
  1.09977E+04  4.13935E+03  7.86219E+03  4.09219E+03  5.63811E+03  2.51580E+03  8.53129E+03 -2.01718E+03
  1.45099E+04  5.07784E+02  1.29847E+04  1.10211E+04  8.62539E+03  2.27114E+04 -3.00933E+03  2.85428E+04
 -1.28600E+04  1.34225E+04 -2.20720E+04  9.85864E+03 -2.52417E+04  1.52108E+03 -1.38366E+04 -1.44655E+04
 -8.97113E+03 -1.60411E+04  6.46634E+03 -1.91373E+04  1.35820E+04 -1.03242E+04  1.47980E+04  3.14441E+03
  7.34280E+03  9.08895E+03 -5.89613E+03  1.27397E+04 -1.42236E+04 -5.88693E+01 -1.09126E+04 -5.14199E+03
 -2.49059E+02 -1.34700E+04  6.56955E+03 -3.84067E+03  9.37289E+03  1.62717E+03  1.19298E+03  5.38653E+03
 -4.01405E+03 -1.56376E+03 -1.84497E+03 -4.79784E+03  3.80776E+02 -1.11974E+04  7.76293E+03 -7.92589E+03
  1.13448E+04 -5.05244E+03  9.42589E+03 -1.49234E+02  9.94979E+03  4.76264E+03  2.13062E+03  1.08815E+04
  2.54317E+03  1.40926E+04 -6.64224E+03  1.15644E+04 -1.04908E+04  5.57891E+03 -7.77773E+03  1.80545E+02
 -4.06156E+03 -3.01931E+03 -2.04279E+03 -7.08485E+02 -1.25895E+03  1.08583E+03  7.14562E+02  6.73860E+02
 -8.39161E+03 -8.68347E+02 -9.19015E+03 -1.05545E+04 -4.18408E+03 -1.05439E+04  2.02298E+03 -8.58976E+03
  8.06865E+03 -4.33208E+03  5.59005E+03  4.36825E+02  5.74125E+02  6.64374E+03 -1.49861E+03  2.39721E+03
 -3.42613E+02 -6.27548E+03 -9.98843E+02 -7.07181E+03  1.00189E+03 -5.60224E+03  8.10013E+03 -3.97980E+03
  1.02619E+04 -3.12895E+02  9.67165E+03  6.36884E+03  2.29422E+03  6.96667E+03 -5.70195E+03  8.45543E+03
 -2.88878E+03  2.11161E+03 -4.87728E+03  3.34341E+02 -3.84979E+02  7.60658E+02  4.41245E+03 -4.01305E+03
  2.32249E+03  3.80798E+03 -6.19081E+02  6.00488E+03 -2.70155E+02  9.64520E+03 -8.95456E+03  7.59494E+02
  3.38666E+02 -1.22869E+02  5.68288E+03 -1.94477E+03  5.42574E+03 -5.92940E+03  4.66133E+03  2.16393E+03
  8.05633E+02  6.96516E+02 -5.79408E+02  4.37841E+03 -2.11852E+03  2.74237E+03 -3.33610E+03 -7.36072E+02
 -3.73405E+03 -8.25512E+03 -3.28246E+03 -7.92859E+03  9.16250E+03 -6.41339E+03  3.32351E+03  4.18137E+03
  3.86699E+03  4.04609E+03  7.57508E+03  4.82079E+03  4.71348E+02  5.39815E+03 -9.18926E+02 -1.96449E+03
 -3.85490E+03 -4.52297E+03  4.44497E+03 -3.15269E+03 -2.01920E+02 -4.26191E+03  5.80302E+03 -5.50084E+03
 -3.06615E+03 -9.06537E+02  1.42906E+02 -2.39957E+03 -8.59620E+02 -1.89301E+03  5.21154E+02  1.62091E+03
  2.81252E+03  9.88661E+02  3.86839E+03 -4.17781E+03  3.01937E+03 -2.50053E+03  6.16407E+03  3.24398E+03
 -1.35784E+03  6.09750E+03 -5.59047E+03  6.29532E+03 -8.26675E+03 -3.93558E+02 -6.61530E+03 -2.49504E+03
 -6.83441E+02 -7.37759E+03 -1.46611E+03 -5.67123E+03  1.08955E+03  4.54015E+02  3.20126E+03 -9.27804E+01
 -1.20672E+03 -4.72382E+03  1.49429E+03  1.34357E+03 -1.26325E+00 -1.45351E+03  2.53671E+03 -2.25382E+03
  5.52078E+03 -1.19080E+03  1.15127E+03  2.68952E+03 -3.77075E+03  2.89337E+03 -4.49242E+03 -1.00817E+03
 -2.85097E+03  2.48718E+03 -8.91646E+02 -4.07126E+03  1.36944E+03 -3.88854E+03  7.61078E+03 -1.55335E+03
  1.42325E+03 -3.48705E+03  3.74201E+03 -1.09966E+03  5.42391E+03  4.73932E+03  6.01845E+03  4.60721E+03
  3.66500E+03  5.80535E+03 -2.54409E+03  1.36870E+03 -1.80481E+03  1.74409E+03 -9.36275E+02  7.42125E+02
  3.52165E+03 -1.29202E+03 -1.78652E+03 -2.74271E+03 -2.87637E+03 -1.55517E+03 -1.65498E+03 -1.77138E+03
 -2.54819E+03 -4.75114E+03  8.78331E+02 -8.74676E+02  1.66965E+03 -4.43848E+02  5.13405E+03 -9.24494E+02
  6.38134E+03  6.39856E+03  5.05598E+03  2.20062E+03 -2.10141E+03  2.16477E+03 -1.00016E+03  3.39973E+03
 -1.76011E+03  2.98251E+03 -2.52382E+03 -5.41602E+03  8.77055E+01 -3.71587E+03  5.39964E+02  3.33077E+03
 -1.32227E+03  1.32741E+03  1.83644E+03 -1.56939E+01  5.82946E+03 -5.87108E+02  1.20427E+03  1.88276E+03
  1.43076E+03 -2.14961E+03 -2.87872E+03  1.04948E+02  2.96446E+03  7.31961E+03  1.29692E+03  3.33817E+03
 -2.78435E+03  5.82162E+02  8.99425E+02  4.48117E+03  3.94741E+02  3.18788E+02 -3.95984E+03  1.15532E+03
 -2.59133E+03 -2.39191E+03  1.37863E+03 -3.25416E+03  1.24137E+03 -2.27228E+02  2.47400E+03 -1.93403E+03
  2.91121E+03  4.73897E+03 -9.28367E+02 -1.84943E+03 -1.23146E+03 -2.74019E+03 -8.16655E+02  1.18068E+02
  2.26926E+02 -9.99645E+02  5.58273E+02  1.32759E+03 -3.87903E+03 -1.65089E+03  1.53357E+03 -7.33714E+01
 -4.18089E+03  1.30111E+03 -1.08993E+03  1.70384E+03 -4.78544E+03  7.71341E+02  5.53092E+03  5.47114E+02
 -2.27278E+03 -2.45732E+03  2.74116E+03 -9.86423E+02 -5.59224E+02  1.12921E+03 -1.30056E+03  4.84739E+03
 -1.79736E+02 -2.92859E+03 -8.63435E+02  6.78043E+01 -1.97542E+02 -3.24271E+03  2.68951E+03 -3.58012E+03
  1.66250E+03 -2.79135E+02  7.23356E+02  1.33713E+03  1.29869E+03 -1.15451E+03  2.30069E+03  8.25302E+02
 -4.45400E+03  4.67759E+03 -1.35728E+02  5.58014E+01 -3.28534E+03 -1.48151E+03 -3.42320E+03  1.36712E+03
 -9.86148E+02 -1.53265E+03 -7.74732E+02  2.68777E+03 -6.44616E+02 -2.57128E+02 -1.80628E+03  2.06443E+03
  1.10295E+03 -1.48337E+03 -1.41043E+03  2.37332E+03  2.81397E+03 -3.34940E+03  6.42489E+03  3.17914E+02
 -1.52028E+03  1.57925E+03  2.27490E+02 -1.89433E+03  5.17935E+03 -2.00587E+03  2.53250E+03 -6.76810E+02
 -1.49530E+03 -3.45545E+02 -1.03790E+03  1.51825E+03 -1.22011E+03  9.09614E+02  2.71664E+03  3.68208E+03
  1.75909E+03 -3.05531E+03 -3.05214E+02  1.62380E+03 -2.99016E+03  3.58720E+03 -6.65410E+02  2.95013E+03
  3.41172E+03 -3.96523E+02 -5.19860E+03  3.51331E+03  2.19393E+03  2.00956E+03  9.17038E+02 -2.80249E+03
  2.36088E+03  1.99206E+03  3.89453E+02  2.47614E+03  1.42043E+02  4.67745E+02 -3.27545E+03  2.62295E+03
 -1.64414E+03 -5.14240E+03 -9.78478E+02 -4.85647E+03 -7.06270E+02 -1.51136E+03  1.35969E+03 -1.36505E+03
  2.14451E+03 -9.07697E+02 -1.18206E+02  1.69541E+03  2.90691E+03 -5.97639E+02  8.45948E+02  6.37627E+03
 -4.53924E+03  1.80890E+03  1.14110E+03 -3.94963E+03 -1.68498E+03  1.89054E+03  2.89043E+02  5.23008E+03
 -3.15752E+03 -2.98125E+03 -6.05089E+01 -1.74620E+02 -2.97322E+02  1.21565E+03  1.75660E+03 -3.43911E+03
  5.48127E+03 -5.51673E+02  3.57782E+00 -1.70338E+03  3.17183E+03  1.35200E+03  4.87817E+02 -5.34520E+03
 -3.13958E+03 -2.23128E+03 -3.37306E+03  5.42840E+02 -3.33513E+03 -1.88200E+03 -3.25151E+03 -3.55563E+03
  2.74182E+03 -3.57728E+03  1.52903E+03 -1.33472E+03  1.66881E+03 -4.06456E+03 -2.32527E+03 -4.01255E+03
  1.46319E+03  2.96013E+03  2.10408E+03  1.69218E+03  2.35304E+03  6.97115E+02 -2.22356E+03 -2.48231E+03
 -3.16247E+03  8.15956E+02 -2.94274E+03  2.32753E+03 -4.07108E+03  4.11067E+03 -5.47792E+02  2.85286E+03
 -1.37404E+03  2.39783E+03  4.16054E+02  2.75943E+02 -2.43478E+03  3.71152E+02  1.52133E+03 -7.11888E+02
  2.55993E+01  3.25315E+03  4.52511E+02 -1.19507E+03  4.31277E+03  5.61788E+02  2.18397E+03  2.05755E+03
  1.76517E+03  3.72338E+03  1.81431E+03  2.02358E+03  8.04442E+01  3.30575E+03  2.71011E+03  1.58077E+01
 -2.89653E+03 -9.46007E+02  3.41188E+03  1.76568E+02  1.68570E+03 -6.94126E+02  2.67832E+03  5.62577E+02
  1.30097E+03  4.75007E+03  6.26067E+02  1.75496E+03  4.11623E+03 -3.27711E+03  1.30696E+03 -1.63135E+03
  1.56169E+03  2.01983E+03 -1.14978E+02 -1.11690E+02 -9.40249E+02 -1.61705E+03  1.79113E+03  3.30855E+03
