 $NMID ID='MM_0lb_SNR50_8hz_g60_91.RAW', FMTDAT='(8E13.5)'
 TRAMP=1., VOLUME=1. $END
  3.07830E+05  1.96235E+03  3.33125E+05  2.44068E+05  8.45359E+04  3.40515E+05 -1.37275E+05  2.59030E+05
 -1.86594E+05  8.76192E+04 -1.04237E+05 -3.35299E+04  1.95579E+03 -4.68479E+04  4.82672E+04  4.78331E+03
  3.60108E+04  4.88038E+04 -1.07397E+04  8.10690E+04 -6.23788E+04  7.61433E+04 -8.40306E+04  2.93469E+04
 -8.32620E+04 -1.41150E+04 -5.92450E+04 -4.75712E+04 -1.58053E+04 -6.74328E+04  2.68445E+04 -5.17935E+04
  4.45693E+04  1.12753E+04  1.49517E+04  4.74052E+04 -3.01600E+04  4.38253E+04 -7.23440E+04 -1.07624E+03
 -5.38191E+04 -5.22010E+04 -6.41576E+03 -7.77234E+04  3.91057E+04 -5.42552E+04  5.28826E+04 -1.66155E+04
  4.99316E+04  1.05938E+04  2.47409E+04  2.60826E+04  1.28373E+04  3.34131E+04 -8.18850E+03  2.60408E+04
 -2.13691E+04  1.73753E+04 -1.84180E+04 -1.45663E+04  1.18202E+04 -2.08425E+03  1.78078E+04  7.04601E+03
  1.13545E+04  4.16218E+04 -3.07877E+04  3.28526E+04 -6.46459E+04  2.82919E+03 -5.19444E+04 -4.24279E+04
 -1.39727E+04 -6.31240E+04  4.26129E+04 -4.05420E+04  6.44719E+04  4.57347E+03  4.14038E+04  3.15826E+04
 -6.34182E+03  4.05267E+04 -3.37908E+04  1.72461E+04 -3.40623E+04 -3.01694E+02 -1.43593E+04 -1.02764E+04
 -3.65397E+03 -1.99605E+04  3.37409E+03 -1.83052E+04  8.79037E+03 -2.70122E+04  1.94304E+04 -1.29155E+04
  8.16963E+03  8.86312E+03 -1.11271E+04  8.84910E+03 -2.05506E+04 -5.45334E+03 -7.30015E+03 -4.20922E+04
  3.05432E+04 -4.73359E+04  5.15685E+04 -1.64297E+04  4.92005E+04  3.07379E+04  1.50634E+04  5.32888E+04
 -1.44315E+04  3.54691E+04 -2.71187E+04 -4.07555E+03 -7.43130E+03 -3.72864E+04  2.36619E+04 -3.33625E+04
  3.75767E+04 -6.78080E+03  4.05896E+04  2.69170E+04  2.66654E+04  5.67596E+04 -7.28772E+03  5.81857E+04
 -3.59603E+04  4.27137E+04 -4.15940E+04  8.67098E+03 -4.46830E+04 -2.56561E+04 -2.62606E+04 -4.58437E+04
  4.71241E+03 -3.94613E+04  3.52225E+04 -1.63390E+04  2.88351E+04  2.68949E+03 -3.92259E+02  2.08544E+04
 -1.97910E+04  8.34130E+03 -1.08426E+04  2.41024E+03  4.57263E+03 -1.25706E+04  1.17594E+04  2.83847E+03
  1.67248E+04  2.01009E+04 -2.51663E+03  2.94802E+04 -2.17013E+04  1.53995E+04 -3.09220E+04  5.42982E+03
 -3.48190E+04 -1.57653E+04 -8.03246E+03 -2.85490E+04  2.28997E+03 -2.64171E+04  1.97724E+04 -2.11008E+04
  3.29557E+04 -1.27461E+04  4.47787E+04  9.43190E+03  2.84190E+04  2.79148E+04  5.49021E+03  4.36349E+04
 -1.88738E+04  3.88728E+04 -2.79811E+04  9.47953E+03 -1.92814E+04 -3.05557E+03  2.19318E+03 -1.50566E+04
  6.51272E+03 -7.39795E+02 -1.01962E+04  8.76533E+03 -2.27248E+04  4.36937E+03 -2.52277E+04 -1.62866E+04
 -1.68299E+04 -2.73382E+04  8.24854E+03 -2.52585E+04  2.20953E+04 -1.76650E+04  2.73778E+04 -1.14186E+03
  1.60441E+04  1.83061E+04 -5.62927E+03  2.52980E+04 -2.80379E+04  1.23848E+04 -1.81316E+04 -8.30169E+02
 -2.12114E+04 -2.19204E+04 -2.40418E+03 -3.17791E+04  1.02814E+04 -2.79178E+04  2.81863E+04 -1.51513E+04
  2.14647E+04 -2.85500E+03  1.93163E+04  4.70493E+03  1.42593E+04 -5.47044E+03  1.49951E+04  2.40688E+02
  2.42436E+04 -1.57166E+03  2.71892E+04  2.57304E+04  1.87517E+04  4.34281E+04 -8.46822E+02  5.28389E+04
 -2.28267E+04  4.27829E+04 -4.52714E+04  1.48052E+04 -5.58145E+04 -4.54949E+03 -4.04966E+04 -3.34282E+04
 -1.31235E+04 -3.67447E+04  1.45183E+04 -3.08799E+04  3.23457E+04 -1.17960E+04  3.10367E+04  1.85867E+03
  1.15390E+04  1.80170E+04 -8.03636E+03  1.65155E+04 -2.25969E+04 -4.30953E+02 -1.50516E+04 -8.69094E+03
 -4.24404E+03 -1.86194E+04  9.79350E+03 -1.46085E+04  1.13762E+04 -2.09227E+02  6.28545E+03  1.04937E+04
 -1.48252E+04  3.44849E+03 -8.68348E+03 -1.02653E+04 -2.68619E+03 -2.09711E+04  8.44772E+03 -1.76563E+04
  2.64840E+04 -1.42790E+04  3.26780E+04  4.59065E+03  2.24638E+04  2.15059E+04  1.53965E+04  3.81223E+04
 -6.60296E+03  3.60294E+04 -2.66416E+04  1.73036E+04 -2.97078E+04  5.85905E+03 -1.81605E+04 -5.86267E+03
 -6.89727E+03 -1.11005E+04 -8.60947E+02  4.82103E+03 -9.38101E+03 -1.94300E+03 -1.54245E+04  9.92369E+03
 -1.73975E+04  1.90549E+03 -1.74902E+04 -1.83754E+04 -2.22412E+03 -1.93687E+04  1.37350E+04 -1.39350E+04
  1.64381E+04 -8.84605E+03  1.40323E+04  2.80432E+03 -4.54577E+03  1.36621E+03 -7.15760E+03 -3.10609E+03
 -3.93582E+03 -1.41704E+04 -5.34992E+03 -1.76934E+04  5.31605E+03 -1.74972E+04  2.31816E+04 -9.95760E+03
  2.72211E+04  9.67771E+01  1.62627E+04  1.61246E+04  1.07685E+04  2.07116E+04 -2.35403E+03  1.71212E+04
 -1.49746E+04  8.06110E+03 -1.35932E+04 -1.41155E+03 -2.76149E+02 -3.28387E+03  1.23513E+04 -6.58506E+03
 -1.56913E+03  2.41592E+03  6.22849E+03  1.91082E+04 -1.80177E+04  1.18016E+04 -1.88077E+04  1.02859E+02
 -1.43463E+04 -1.01537E+04 -1.34123E+03 -1.64927E+04  6.19559E+03 -6.15413E+03  1.44324E+04  3.96583E+03
  5.65408E+03  1.49672E+04 -4.57294E+03  9.04059E+03 -1.15290E+04  6.65894E+03 -1.20441E+04 -4.16905E+03
 -1.15285E+04 -2.09053E+04  2.20912E+03 -1.77607E+04  1.47268E+04 -1.83797E+04  2.36288E+04  3.00685E+03
  7.86474E+03  2.03632E+04 -1.13676E+03  1.52972E+04 -1.15758E+04  1.31323E+04 -2.16810E+04 -8.61349E+03
 -1.27802E+04 -7.40835E+03 -5.12524E+03 -6.93371E+03  1.77413E+03 -3.71281E+03  8.94294E+03  4.95650E+03
  7.50669E+03  8.01872E+03 -7.18299E+02  4.74933E+03  3.06525E+03 -7.35347E+03  8.48832E+03 -7.68302E+03
  1.22456E+04 -6.63020E+03  1.70723E+04 -3.39582E+03  1.51551E+04  1.86774E+04  1.18829E+04  2.79782E+04
 -1.87163E+03  2.81630E+04 -1.88821E+04  2.37359E+04 -2.83072E+04  4.50299E+02 -2.20527E+04 -5.57490E+03
 -1.62168E+04 -1.87646E+04  1.56859E+03 -1.46773E+04  1.01426E+04 -7.45688E+03  9.48502E+03 -8.48753E+03
  4.71852E+03 -3.88273E+03 -1.19455E+03 -1.15219E+04  8.00729E+03  4.93517E+03  1.20281E+04 -3.09448E+03
  1.38839E+04  2.98308E+03  3.82033E+03  1.19321E+04 -2.24990E+03  7.78604E+03 -1.66508E+04  9.25656E+03
 -1.65176E+04  5.26364E+03 -1.58757E+04 -1.56067E+04 -4.41688E+03 -1.08868E+04  8.42095E+03 -1.19246E+04
  1.62758E+04 -1.23336E+04  2.19251E+04  2.56818E+03  1.86441E+04  1.72902E+04  3.53885E+03  1.99333E+04
 -4.94827E+03  1.43520E+04 -1.25915E+04  3.99817E+03 -1.14981E+04 -1.71175E+03  2.99794E+03 -2.94351E+03
 -1.12613E+03 -1.62954E+03  2.42879E+03  5.74452E+03 -1.09525E+04  2.72903E+02 -1.35217E+04 -2.19627E+03
 -9.61914E+03 -1.58179E+04 -2.91352E+03 -1.92608E+04  1.08348E+04 -1.54818E+04  9.12284E+03 -8.14788E+02
  1.36016E+04  4.75344E+03  3.24265E+03  1.78517E+04  2.52356E+03  1.74144E+04 -1.40326E+04  1.21919E+04
 -1.36619E+04 -1.41639E+03 -1.12730E+04 -7.88841E+03 -2.37536E+03 -1.35076E+04  1.14837E+04 -1.10207E+04
  3.28862E+03 -8.27477E+03  4.19146E+03  2.78650E+03  1.34194E+03  4.91257E+03 -2.63771E+03 -2.26416E+03
  3.31159E+03  2.70445E+03 -1.19943E+03  8.27596E+02  1.12918E+04 -3.85061E+03  5.93987E+03  1.27970E+04
 -8.23629E+03  1.32038E+04 -1.52520E+04  1.84196E+04 -2.42346E+04  6.40221E+03 -1.84631E+04 -6.01513E+03
 -2.15833E+03 -1.93041E+04  4.42813E+03 -1.79919E+04  1.46775E+04 -1.48014E+04  1.68494E+04 -4.02295E+03
  6.62490E+03  1.02160E+04  3.08740E+03  9.69806E+03 -7.73865E+03  6.76136E+03 -7.10343E+03 -6.64126E+03
  6.70773E+01 -3.39422E+03 -3.88154E+03 -2.45379E+03  6.09172E+03 -8.26351E+03  4.50890E+03 -3.91362E+03
  5.71536E+03 -3.02082E+03 -7.98650E-01  4.76828E+03 -3.15328E+03  4.28790E+03  4.24919E+03  1.68478E+03
  1.52509E+03 -5.43442E+03  6.16639E+03  7.37595E+03  1.00374E+04  1.13002E+04 -1.03138E+04  2.32761E+03
 -1.24380E+04  5.27216E+03 -1.09560E+04  3.61870E+02 -1.12614E+04 -1.16156E+04 -8.07235E+03 -5.00074E+03
  5.29355E+02 -1.74716E+03  1.07392E+04  1.67223E+03  9.32394E+03  2.06660E+03 -6.78146E+03  4.14149E+03
 -4.40767E+03  8.23722E+03 -1.21215E+03 -7.73032E+02 -7.98805E+03 -1.31993E+04  7.21100E+02 -1.40088E+04
  5.25001E+03 -2.50523E+03  6.27440E+03  9.43288E+02  7.77029E+03  1.57634E+03  1.74608E+03  1.86836E+03
 -3.28985E+03 -5.20126E+03 -2.55851E+03 -7.57361E+03 -3.68995E+02 -6.53021E+03 -2.87621E+03 -5.45207E+03
  1.27961E+04  1.00598E+04  6.93653E+03  5.37086E+03  1.78915E+03  1.14475E+04 -7.40852E+03  1.62275E+04
 -1.23425E+04  7.15797E+03 -9.91178E+03  2.09001E+03 -1.55636E+03 -6.92192E+03  6.71233E+03 -1.15950E+03
  7.98939E+03 -2.61055E+03  9.80821E+03  6.69625E+03 -3.90484E+03  4.88951E+03  4.54677E+03  9.30825E+03
 -6.32599E+03  9.80537E+03  6.87039E+02 -3.50023E+03  2.31283E+03  7.64340E+03 -3.41278E+03  8.48123E+02
 -2.69560E+03  4.59809E+03 -1.18126E+04  3.78852E+03 -1.26052E+04 -4.47841E+03 -1.41718E+04 -4.19502E+03
 -5.02224E+03 -1.86836E+04  7.97395E+03 -1.52282E+04  7.62705E+03 -1.36635E+04  1.47911E+04 -6.07063E+03
  2.14148E+04  3.89432E+03  1.28312E+04  1.50441E+04 -2.16323E+03  1.35401E+04 -9.11297E+03  7.37756E+03
 -5.85407E+03  3.98752E+03 -7.10636E+03 -1.13363E+03 -1.72544E+03  2.74408E+02 -2.18757E+03 -2.16311E+02
  1.61360E+03 -3.15414E+03  3.70159E+03  1.20811E+03  1.43884E+03  2.90086E+03  3.01604E+03 -1.78538E+03
 -2.29334E+03 -5.51785E+03  6.55312E+03 -3.33217E+03  2.32458E+03 -5.74747E+00  5.78745E+03  1.90368E+04
 -8.84311E+03  1.80491E+04 -1.48207E+04  1.22210E+04 -1.59827E+04 -3.65581E+03 -9.10504E+03 -8.24021E+03
  1.69705E+03 -1.35581E+04 -9.45673E+02 -1.06577E+04  7.11248E+03 -1.04135E+04  6.69818E+03  1.87797E+03
  3.93905E+03 -1.29993E+02 -3.35094E+03  1.86230E+03 -6.23918E+03 -8.32481E+03  1.30538E+03 -5.34512E+03
  5.37381E+03  4.28694E+03  1.17146E+04  1.85246E+03  1.11042E+04  1.32675E+04  4.85684E+03  1.13726E+04
 -1.06147E+04  1.12574E+02 -7.16233E+03 -4.72756E+03 -9.40931E+03 -8.18438E+03  1.94913E+03 -1.24582E+04
  8.12584E+03 -2.96089E+03  8.92251E+03  1.46514E+03  1.63716E+04  8.27516E+03 -4.32878E+02  8.88283E+03
 -2.88623E+03  1.39136E+04 -5.34531E+03  5.59133E+03 -6.03389E+03 -2.11700E+03 -3.61708E+03 -4.81033E+03
 -4.53323E+03  2.70480E+03 -4.33677E+03 -1.84705E+03 -2.57906E+03  2.48597E+03 -1.59236E+04 -6.19729E+03
 -8.18632E+03 -8.39087E+03  9.73955E+02 -1.30337E+04 -1.93105E+03 -8.63968E+03  6.62769E+03 -5.48230E+03
  1.23606E+04  4.00449E+03  2.43590E+03  2.80823E+03 -7.14618E+03  1.00996E+04 -8.56342E+03  7.63411E+03
