 $NMID ID='MM_0lb_SNR50_15hz_g60_46.RAW', FMTDAT='(8E13.5)'
 TRAMP=1., VOLUME=1. $END
  3.13750E+05  2.43500E+03  3.31794E+05  2.53390E+05  8.73569E+04  3.36813E+05 -1.33607E+05  2.55981E+05
 -1.89468E+05  8.07838E+04 -1.06035E+05 -3.29250E+04  4.05382E+03 -5.26584E+04  5.04080E+04 -5.87288E+02
  3.32815E+04  5.29633E+04 -1.45638E+04  7.47714E+04 -6.47262E+04  6.54884E+04 -8.92327E+04  3.23688E+04
 -8.16773E+04 -1.04951E+04 -5.71344E+04 -5.14656E+04 -1.57594E+04 -7.09742E+04  2.39039E+04 -4.27137E+04
  3.97286E+04  7.45189E+03  2.45126E+04  5.36679E+04 -3.22662E+04  4.54045E+04 -7.04112E+04 -1.04158E+03
 -5.22258E+04 -5.38733E+04 -1.10059E+04 -7.67949E+04  3.95435E+04 -5.55552E+04  4.70685E+04 -1.76033E+04
  4.40840E+04  1.32985E+04  3.51090E+04  2.71759E+04  1.66291E+04  3.00262E+04 -2.37234E+03  2.80420E+04
 -2.15038E+04  1.42333E+04 -1.86389E+04 -8.88661E+03  3.73063E+03 -4.85133E+03  1.84280E+04  1.74233E+04
  7.46812E+03  3.17619E+04 -3.44664E+04  3.20337E+04 -6.91629E+04 -1.83675E+02 -5.84804E+04 -4.14286E+04
 -1.42423E+04 -6.07217E+04  4.01161E+04 -4.61661E+04  5.71660E+04 -2.33346E+03  3.85893E+04  3.23855E+04
 -6.02357E+03  3.70071E+04 -2.78092E+04  1.67925E+04 -2.94354E+04 -3.94864E+03 -2.02204E+04 -9.78686E+03
 -5.68112E+03 -1.79321E+04 -2.15489E+03 -1.80424E+04  8.72944E+03 -2.23918E+04  1.61414E+04 -1.28511E+04
  9.06160E+03  4.43197E+03 -1.99422E+03  1.11062E+04 -2.30105E+04 -7.88765E+03 -8.39079E+03 -3.33645E+04
  2.70425E+04 -4.06496E+04  4.80232E+04 -1.75772E+04  4.26728E+04  2.16818E+04  9.48518E+03  4.38056E+04
 -1.49939E+04  2.84404E+04 -2.59358E+04  5.04009E+02 -1.28027E+04 -2.62665E+04  2.06866E+04 -3.59907E+04
  3.94404E+04 -1.19285E+04  3.76806E+04  2.77898E+04  2.03835E+04  4.94058E+04 -8.56734E+03  5.17909E+04
 -3.12399E+04  3.72340E+04 -4.27054E+04  8.92302E+03 -4.62003E+04 -1.71406E+04 -2.34492E+04 -3.52146E+04
  1.41316E+04 -3.71833E+04  3.46213E+04 -2.00991E+04  3.03732E+04  8.82262E+03  1.85836E+03  2.08243E+04
 -1.60894E+04  8.16666E+03 -8.90066E+03 -2.60368E+03  8.34395E+03 -8.74618E+03  1.69307E+04  9.92341E+03
  7.23386E+03  2.22373E+04 -4.56456E+03  2.57700E+04 -2.35332E+04  1.08684E+04 -3.09882E+04 -3.09845E+03
 -2.24432E+04 -2.03720E+04 -1.08870E+04 -1.56164E+04  5.08117E+03 -1.77866E+04  1.71896E+04 -1.66287E+04
  2.38263E+04 -8.41283E+03  3.45009E+04  5.81181E+03  2.04375E+04  1.81998E+04  2.74258E+03  3.64094E+04
 -1.72127E+04  3.35061E+04 -2.22228E+04  1.16212E+04 -2.00239E+04 -1.02410E+04 -2.66349E+03 -1.09401E+04
  9.07559E+03 -2.75910E+03 -6.42291E+03  6.15255E+03 -2.01101E+04  8.83976E+03 -1.75879E+04 -2.50746E+03
 -1.07166E+04 -1.49853E+04  5.72287E+03 -2.27010E+04  1.80347E+04 -1.70158E+04  1.96896E+04 -2.25795E+03
  1.05928E+04  9.34519E+03  2.94591E+03  2.34482E+04 -1.48620E+04  1.51835E+04 -2.22001E+04 -6.59034E+03
 -1.60535E+04 -1.61204E+04 -3.94948E+03 -2.36733E+04  1.28039E+04 -2.44743E+04  1.97592E+04 -7.05201E+03
  1.37271E+04  2.33836E+03  1.03561E+04  7.13215E+03  7.43651E+03  2.22279E+02  6.99809E+03 -6.84122E+03
  1.49702E+04  6.59532E+02  1.73206E+04  1.54066E+04  1.55240E+04  2.83694E+04 -1.18641E+03  3.62057E+04
 -2.07688E+04  2.15426E+04 -3.69085E+04  1.26657E+04 -3.14786E+04 -1.21970E+03 -3.16579E+04 -2.32084E+04
 -1.12349E+04 -2.75235E+04  1.10029E+04 -3.34687E+04  2.15737E+04 -1.19295E+04  1.93710E+04  6.64281E+03
  1.30470E+04  1.36032E+04 -1.14503E+04  1.46760E+04 -1.77494E+04  2.31864E+03 -5.65104E+03 -6.92915E+03
 -4.46960E+01 -1.58741E+04  6.89232E+03 -1.12327E+04  8.87006E+03 -3.59606E+03  1.28193E+02  4.54017E+03
 -3.98900E+03  2.15936E+03 -6.39915E+03 -5.78653E+03 -2.96280E+03 -1.21177E+04  1.08755E+04 -1.29784E+04
  1.87125E+04 -3.84042E+03  1.57126E+04  7.34907E+03  1.39766E+04  1.51449E+04  5.72070E+03  2.54813E+04
 -1.33896E+03  1.89261E+04 -1.78440E+04  1.42994E+04 -1.60648E+04  1.78323E+03 -1.14108E+04 -3.19080E+03
 -5.01123E+03 -3.59472E+03  4.67999E+02  3.16693E+03 -1.74502E+03 -6.55509E+02 -5.56691E+03  1.61872E+03
 -1.18353E+04 -1.22121E+03 -1.07609E+04 -9.87935E+03 -5.22529E+03 -1.45506E+04  7.90069E+03 -1.26078E+04
  8.87730E+03 -2.83274E+03  4.87912E+03 -4.03611E+01  3.66013E+03  2.30581E+03 -6.82510E+03 -5.30729E+03
 -3.99642E+03 -4.51719E+03  3.38533E+03 -1.46161E+04  3.15484E+03 -1.12487E+04  1.07186E+04 -3.31503E+03
  1.78635E+04  4.78015E+02  1.39744E+04  8.41551E+03  1.41598E+03  1.30112E+04 -1.03328E+04  6.25085E+03
 -1.15454E+04  2.49183E+03 -9.48982E+02 -2.30102E+03  4.24771E+03 -2.01986E+03  5.84204E+03 -1.95907E+03
  4.27267E+03  6.26307E+03 -2.09716E+03  8.48105E+03 -7.92532E+03  1.22973E+04 -7.28829E+03  3.60742E+03
 -7.82864E+03 -5.46813E+02 -8.09578E+02 -6.42688E+03  6.07912E+03 -2.65089E+03  4.23282E+03  2.03245E+03
 -3.46212E+03  1.93105E+03 -1.55484E+03  1.07307E+04 -1.19522E+04  1.97257E+03 -5.04793E+03  6.50357E+02
 -5.29282E+03 -8.08252E+03  4.15131E+03 -1.22005E+04  9.42210E+03 -4.45816E+03  1.15983E+04  6.37563E+03
  6.29464E+03  1.00955E+04  3.66884E+03  9.00673E+03 -3.59226E+03  8.21052E+03 -5.87078E+03  5.74187E+02
 -5.91976E+03 -3.79844E+03  6.38000E+02 -7.53051E+03  6.76024E+03 -8.39986E+03  3.78429E+03 -4.95582E+03
  5.00296E+02 -2.42126E+03  1.39867E+03  1.26291E+03  2.68265E+03 -4.48743E+03 -6.55802E+02 -1.25818E+03
  5.08208E+03  3.17345E+01  1.44691E+04  2.72857E+03  9.28040E+03  3.79922E+03  6.97378E+03  1.64223E+04
 -2.60152E+02  1.30012E+04 -1.65281E+04  6.64500E+03 -1.70407E+04  3.06207E+03 -1.15066E+04 -2.60178E+03
 -6.36100E+03 -8.99965E+03 -8.35097E+02 -9.50247E+03  3.04741E+03 -5.22775E+03  4.12904E+03 -1.85282E+03
  2.17024E+03  1.13979E+02  7.52367E+03 -4.24643E+03  2.01520E+03 -2.32416E+03  7.10184E+03 -2.22392E+03
  5.12847E+03 -4.33814E+01  3.96111E+03  8.95605E+03  1.89208E+03  4.94256E+03 -1.11855E+04  5.47580E+03
 -7.55973E+03 -3.33918E+03 -1.41561E+03 -9.40691E+03  5.66032E+03 -5.77082E+03  2.25597E+03 -3.16399E+03
  1.56757E+04 -7.23989E+03  1.14178E+04  3.36365E+03  7.21724E+03  5.02311E+03  9.18903E+02  1.41636E+04
 -6.04157E+03  9.80622E+03 -8.27229E+03 -1.87728E+03 -1.62395E+03 -4.18376E+03  1.33929E+03 -3.63612E+03
 -3.04283E+02 -4.24194E+03 -1.78973E+03  2.49974E+03 -6.25366E+03 -2.43123E+03 -6.95789E+03 -2.51203E+03
 -6.64276E+03 -4.83300E+03  2.44644E+03 -3.76130E+03  3.79385E+03 -5.85501E+03  3.64739E+03 -1.51031E+03
  6.59173E+03  1.84098E+03  2.13688E+03  7.57431E+03 -7.99132E+03  6.19925E+03 -1.57155E+03  7.75990E+02
 -6.91712E+03  2.24719E+03 -6.14103E+03 -2.07810E+03 -6.30755E+02 -6.66309E+03 -1.94458E+03 -7.99949E+03
  5.99385E+03  3.10408E+03  2.59002E+03 -5.18047E+02  7.11816E+03  2.18841E+03  2.80203E+02 -6.68153E+02
  9.04496E+02  4.12858E+03 -3.34624E+03  1.32136E+03  6.41858E+03  9.99787E+03  3.66713E+03  1.24147E+03
 -3.54763E+03  6.29630E+03 -1.02629E+04  6.18571E+03 -2.11127E+03 -2.88353E+01 -5.20242E+03 -8.13363E+02
 -5.45612E+03 -4.69899E+03  1.60886E+03 -9.49950E+03  5.15502E+03 -3.04472E+03  5.18949E+03  1.69730E+03
  5.86421E+03  4.98663E+02 -1.03831E+01  1.50885E+03 -1.77392E+03  3.87832E+03 -1.02373E+03 -1.61586E+03
 -8.06989E+02 -6.96006E+03  1.33598E+02 -3.91695E+03  1.33030E+02 -4.08672E+03  8.17952E+03  2.21111E+03
  3.34294E+03 -8.76124E+02 -4.27988E+02  5.67303E+03  2.33379E+03  1.75913E+03 -3.77817E+03  2.33718E+03
  2.45699E+03 -3.23422E+03  8.81238E+03  3.08231E+03  1.54305E+03  5.65690E+03  1.69072E+03  4.79747E+03
 -3.66495E+03  7.23153E+02  4.82657E+02 -2.98254E+03 -3.62563E+03  1.50590E+03 -7.12095E+02 -5.43069E+03
  2.60856E+03 -2.26857E+03  3.29536E+02 -5.26061E+03  3.41253E+02 -1.00461E+03  4.13183E+03  1.78431E+03
 -3.32944E+03 -1.19002E+03  3.53637E+02 -5.07828E+03  1.26633E+03  7.34577E+02 -1.57882E+03 -8.76443E+03
  3.65956E+03 -2.36464E+03  3.59059E+03 -4.12269E+03 -2.81692E+03 -5.35713E+02  2.92496E+03  6.11176E+02
 -8.11113E+01  1.43236E+03 -2.82645E+03 -6.49343E+02 -1.14838E+03  3.41027E+02 -1.59828E+03 -4.06587E+03
 -2.32090E+03 -3.46851E+03  7.70055E+03  2.89076E+03  5.64768E+03  6.94800E+03 -4.44979E+03 -1.75770E+02
 -7.93254E+02  5.89195E+03 -5.00440E+03  7.81793E+02 -3.38587E+03 -3.43880E+03 -5.13622E+03  8.23315E+02
  3.84929E+03 -1.55754E+03 -5.49835E+02  2.49235E+02  3.13401E+03  2.72015E+03 -2.70950E+03  1.40778E+03
 -7.95354E+02 -7.21149E+02  8.88055E+01  9.45041E+01 -3.59953E+03 -1.75897E+03  3.08546E+03  2.38505E+03
 -4.32104E+02 -4.60318E+03 -1.29530E+03  6.76639E+03 -3.67427E+03 -1.23829E+03 -7.79515E+03  4.26496E+02
 -3.90221E+03 -2.43391E+03  2.78969E+03 -9.69397E+03  2.63545E+03 -4.20197E+03  4.15554E+03 -5.24905E+03
  3.87814E+03 -1.52868E+03  1.14288E+03  8.38364E+03  2.75610E+03  3.31676E+02 -3.82063E+03  3.61312E+03
 -7.24485E+02  1.64720E+03 -4.12421E+03 -1.67218E+03 -2.79368E+02 -2.16295E+03 -3.31244E+03 -1.63405E+03
 -4.15526E+02 -1.15964E+03 -1.58679E+03 -1.53778E+03 -4.09880E+02  8.64052E+02  2.53404E+03 -2.57760E+03
  1.86527E+03 -5.82795E+03  5.80597E+02  1.72257E+03 -7.00031E+02  2.24231E+03  3.68402E+03  1.80334E+03
 -7.59227E+03  2.30084E+03 -5.72140E+03 -3.34752E+03 -2.06894E+03  2.36230E+03  1.33842E+03 -1.13409E+03
  1.71628E+03 -5.12022E+03 -4.15640E+02  1.21186E+03  1.70466E+03  3.03198E+03 -1.67999E+03  1.83026E+03
 -8.41103E+02 -1.32641E+03  3.62121E+02  1.62980E+03 -1.42801E+03  1.34101E+03 -1.18904E+03 -7.07537E+02
  3.54490E+03 -3.40947E+03  2.99497E+02  1.27588E+03  1.75312E+03 -1.88104E+03  1.26689E+03  3.09345E+03
 -3.75338E+03  4.33278E+03 -4.00829E+03  1.30925E+03 -2.42548E+02 -1.46233E+03  4.62904E+02 -1.99684E+03
  3.94073E+03 -7.27375E+03  5.68677E+02 -1.99911E+02  3.42662E+03  1.58621E+03 -1.56478E+03 -3.28521E+03
 -4.55062E+03 -3.31665E+03 -2.29044E+03  5.23123E+03  2.33278E+03  2.79361E+03 -2.50311E+02 -7.74567E+02
 -1.96434E+03  6.84603E+02 -2.31906E+03 -2.75886E+03 -1.06278E+03  3.27551E+03 -4.27953E+03 -1.59630E+03
 -8.56040E+02  9.98369E+02  2.15130E+03 -2.70493E+03 -1.64701E+03 -1.45315E+03  6.22268E+02 -1.35453E+03
  1.77526E+03 -2.76798E+03  6.37988E+02 -4.92648E+03 -2.96656E+03 -3.24343E+03 -2.36837E+03  2.16714E+03
