 $NMID ID='MM_0lb_SNR50_11hz_g60_61.RAW', FMTDAT='(8E13.5)'
 TRAMP=1., VOLUME=1. $END
  3.14585E+05  2.27257E+03  3.36955E+05  2.52539E+05  8.62402E+04  3.36364E+05 -1.31781E+05  2.55000E+05
 -1.91181E+05  8.17791E+04 -1.10531E+05 -3.18288E+04 -4.24599E+02 -4.62016E+04  5.58973E+04 -9.30758E+02
  3.92004E+04  4.80345E+04 -2.03473E+04  8.08622E+04 -6.15180E+04  6.67794E+04 -9.48409E+04  3.72481E+04
 -8.78406E+04 -1.06040E+04 -5.43709E+04 -5.05907E+04 -1.35720E+04 -7.25821E+04  2.50221E+04 -4.48956E+04
  3.98339E+04  1.00108E+03  1.42670E+04  4.60288E+04 -4.05538E+04  5.29059E+04 -6.81926E+04 -4.12940E+03
 -5.71056E+04 -5.75562E+04 -1.29198E+04 -7.99870E+04  3.62343E+04 -5.94007E+04  4.57833E+04 -2.24679E+04
  4.43053E+04  9.86891E+03  3.46639E+04  2.31404E+04  8.39371E+03  3.37461E+04 -5.84816E+03  2.14729E+04
 -2.15115E+04  1.40865E+04 -2.07676E+04  5.23634E+02  3.22134E+03 -1.15185E+04  2.56722E+04  1.30531E+04
  1.93993E+03  3.57216E+04 -3.63064E+04  3.45902E+04 -6.03308E+04  6.46984E+03 -5.46280E+04 -4.91255E+04
 -1.49313E+04 -6.63994E+04  4.04011E+04 -4.21062E+04  6.69765E+04 -3.64168E+03  3.03215E+04  2.51474E+04
 -1.13232E+04  3.49860E+04 -3.63055E+04  1.55150E+04 -3.00145E+04 -6.96350E+03 -1.50604E+04 -1.50654E+04
 -1.22246E+04 -9.07992E+03  3.58805E+02 -2.44061E+04  9.85714E+03 -2.18591E+04  1.42379E+04 -1.08741E+04
  5.92636E+03  4.09369E+03 -9.99571E+03  8.95471E+03 -2.49896E+04 -4.58076E+03 -4.11949E+03 -3.91103E+04
  2.14224E+04 -4.70817E+04  5.30820E+04 -2.45753E+04  5.06671E+04  2.04972E+04  1.33458E+04  4.77994E+04
 -1.46093E+04  3.87258E+04 -2.19234E+04  2.67220E+03 -8.57726E+03 -3.39990E+04  2.33465E+04 -3.45037E+04
  4.69004E+04 -1.34367E+04  3.84470E+04  2.35163E+04  1.60758E+04  5.59016E+04 -8.22267E+03  5.14925E+04
 -3.60744E+04  3.79222E+04 -4.33113E+04  9.35404E+03 -4.93495E+04 -2.25257E+04 -2.10828E+04 -4.51863E+04
  7.56981E+03 -4.17864E+04  3.19395E+04 -1.29680E+04  2.96271E+04  1.20775E+04  1.05359E+04  1.96357E+04
 -1.56375E+04  2.07691E+04 -9.28849E+03 -7.33095E+03  6.46640E+03 -1.35520E+04  1.24860E+04  3.26909E+03
  1.12201E+04  2.22446E+04 -2.71479E+03  2.72688E+04 -2.08975E+04  1.01070E+04 -3.16851E+04 -2.00739E+03
 -2.27743E+04 -1.75284E+04 -1.30486E+04 -2.24639E+04  2.85221E+03 -2.42519E+04  1.58262E+04 -2.30894E+04
  3.03505E+04 -1.29471E+04  3.53931E+04  8.35932E+03  2.33967E+04  2.58281E+04  3.69412E+03  4.03574E+04
 -1.95377E+04  3.58481E+04 -3.53617E+04  9.47514E+03 -2.19497E+04 -1.64807E+04 -4.90668E+03 -1.09665E+04
 -3.70475E+03  2.84342E+02 -4.83282E+03  2.57134E+03 -2.05129E+04  9.14079E+02 -1.32412E+04 -7.42085E+03
 -1.64973E+04 -2.67767E+04  3.39147E+03 -2.34041E+04  2.15401E+04 -2.03095E+04  2.63626E+04 -1.28762E+03
  1.19211E+04  1.51817E+04  1.18084E+03  2.18824E+04 -1.52853E+04  1.09299E+04 -2.41161E+04 -6.70037E+03
 -2.05551E+04 -2.20556E+04  2.56737E+03 -2.57369E+04  1.15867E+04 -2.29301E+04  2.04638E+04 -1.17229E+04
  2.18846E+04 -7.13122E+02  1.47808E+04  5.69706E+03  1.25617E+04  3.12256E+03  1.28259E+04 -1.47593E+03
  1.62672E+04  9.31414E+03  3.05728E+04  1.90115E+04  1.97237E+04  3.76677E+04 -4.44289E+03  4.46771E+04
 -2.30733E+04  3.46899E+04 -3.83849E+04  1.84110E+04 -4.30020E+04 -7.24557E+03 -3.90127E+04 -2.19204E+04
 -1.43483E+04 -3.52255E+04  1.25964E+04 -3.38298E+04  2.86043E+04 -1.94075E+04  1.84621E+04  1.71229E+03
  3.46804E+03  1.41652E+04 -1.35884E+04  1.57731E+04 -1.56250E+04  5.19316E+03 -1.75890E+04 -1.41931E+04
  2.61004E+03 -1.57748E+04  1.38896E+04 -1.62254E+04  1.15979E+04  6.37033E+02  5.54691E+03  9.98126E+03
 -1.40974E+04  9.14967E+02 -9.73845E+03 -3.35450E+03 -2.01185E+03 -1.68155E+04  1.70198E+04 -1.80768E+04
  2.34714E+04 -1.66525E+04  2.62140E+04 -1.42473E+03  2.55605E+04  2.36417E+04  7.44177E+03  2.58469E+04
 -8.53312E+03  3.02063E+04 -1.72368E+04  2.21018E+04 -2.20427E+04  6.48896E+03 -1.43526E+04 -7.66924E+03
 -4.53520E+03 -4.92094E+03 -1.85424E+03 -1.57198E+03 -1.45936E+03  1.44681E+03 -6.38511E+03  4.22256E+03
 -8.76381E+03 -1.00661E+03 -1.00971E+04 -1.20591E+04 -4.42637E+03 -1.81264E+04  4.69541E+03 -1.80579E+04
  1.80677E+04 -8.23197E+02  8.76162E+03  1.81099E+03 -2.79298E+03  3.20790E+03 -1.27303E+04 -1.61434E+03
 -9.13640E+03 -1.29791E+04  1.64458E+03 -8.85101E+03  1.14098E+04 -1.32300E+04  1.86088E+04 -6.79174E+03
  2.47711E+04  6.19820E+02  2.17324E+04  1.05889E+04  7.73249E+03  2.13066E+04 -1.30229E+04  1.48542E+04
 -9.58008E+03 -1.75046E+03 -3.71780E+03 -4.51493E+03  6.94405E+03 -1.21501E+04  5.21569E+03  1.98989E+03
  1.38578E+03  8.43953E+03  2.56964E+01  7.70077E+03 -1.16041E+04  1.37167E+04 -1.38285E+04  4.25777E+03
 -8.41026E+03 -9.60793E+03  2.25320E+02 -1.24104E+04  9.73639E+03 -1.05298E+04  3.52135E+03 -1.76081E+03
  1.35709E+03  1.26582E+04 -6.94109E+03  4.65978E+03 -1.12154E+04  6.89821E+03 -1.21384E+04 -1.18320E+03
 -9.83910E+03 -1.30919E+04  5.64354E+03 -1.57851E+04  1.56529E+04 -1.11395E+04  1.50557E+04  5.44774E+02
  1.25379E+04  8.44594E+03 -1.80946E+03  1.42849E+04 -1.32862E+04  2.77067E+03 -5.15526E+03  1.93246E+03
 -5.67514E+03 -1.00998E+04 -1.74550E+03 -8.80547E+03  1.19047E+04 -1.19798E+04  3.99585E+03 -1.66064E+02
 -4.31166E+01  8.28872E+03  1.80338E+03 -2.07463E+03  1.33839E+03 -4.45803E+03  1.10825E+04 -6.15557E+03
  8.90723E+03 -6.01936E+03  1.36081E+04  3.04209E+03  1.81177E+04  1.22794E+04  6.71091E+03  2.08188E+04
 -8.49655E+03  2.84128E+04 -1.20270E+04  9.67468E+03 -2.49992E+04  3.35790E+03 -1.45780E+04 -7.04567E+03
 -9.20178E+03 -1.26200E+04  1.72378E+03 -1.14379E+04  6.60649E+03 -1.46979E+04  4.01266E+03 -4.90987E+03
  9.65566E+03 -7.30168E+02  2.37639E+03 -2.38674E+03  1.96109E+03 -4.55159E+03  9.74889E+03  1.91392E+03
  1.01561E+04  5.39903E+03  3.90603E+03  8.36462E+03 -3.44438E+03  6.93896E+03 -6.53776E+03  7.01321E+03
 -1.01430E+04  7.01647E+03 -7.17122E+03 -4.89686E+03  2.15252E+03 -6.67243E+03  5.86722E+03 -1.34388E+04
  1.42304E+04 -1.05987E+04  1.04527E+04  3.93726E+03  1.18602E+04  1.31378E+04 -2.59594E+03  1.44342E+04
 -6.59164E+03  1.08408E+04 -4.60677E+03  2.25010E+03 -1.02728E+04 -4.79579E+02  3.20924E+03 -4.51432E+03
  8.23116E+02 -5.43455E+03 -8.10739E+03  1.46615E+03 -2.82334E+03  4.65319E+03 -7.12938E+03  2.49096E+03
 -8.74236E+03 -7.73130E+03 -1.46421E+03 -1.13518E+04  2.52237E+03 -1.49873E+04  1.53919E+04 -2.76052E+01
  1.38779E+04  4.50510E+03  6.57818E+03  9.83002E+03  2.54046E+02  1.64234E+04 -6.45434E+03  1.45965E+04
 -1.59801E+04 -1.16535E+03 -9.53227E+03 -8.60838E+03 -1.82097E+02 -7.57904E+03  6.77794E+03 -9.31624E+03
  9.87707E+03 -4.65841E+03 -1.76543E+03  6.54955E+03  1.16815E+03  3.06035E+03 -1.52603E+03  6.58911E+03
 -3.19778E+03  3.11852E+03 -4.14089E+02  3.25043E+03 -1.97945E+03  3.20380E+03  7.31004E+03  4.95401E+03
 -1.43890E+03  1.12398E+04 -1.10761E+04  9.43883E+03 -9.00063E+03 -8.97590E+02 -1.60751E+04 -6.11794E+03
 -8.90251E+03 -1.31974E+04  4.11323E+03 -1.41011E+04  5.18337E+03 -1.02992E+04  1.00213E+04 -9.92519E+03
  7.71711E+03  2.69363E+03  3.13447E+03  6.93800E+03  5.05729E+02  4.79493E+03 -4.96410E+03 -1.93964E+03
 -8.13114E+03 -1.38340E+04  1.00478E+04 -2.86526E+03  7.05513E+03 -1.72066E+03  3.09769E+03 -1.70984E+03
 -1.49204E+03  5.67511E+03  3.50953E+03 -1.77442E+03  2.83918E+03 -2.21180E+03  1.74220E+03  2.70377E+03
  3.33338E+03 -1.04033E+03  5.81383E+03  5.59835E+03  3.77996E+03  5.08333E+03 -2.49644E+03  5.01382E+03
 -4.39243E+03  5.29799E+03 -7.70566E+03  4.95152E+03 -4.05605E+03 -2.20766E+03 -7.54483E+03 -2.72453E+03
 -2.07624E+03  1.28248E+02  7.55550E+03 -6.14671E+02 -5.84484E+02  3.08069E+03 -5.77242E+03  6.79813E+03
 -6.96098E+02  4.44989E+03 -3.11295E+03 -8.86384E+03 -3.77068E+03 -6.15607E+03  2.30648E+03 -3.13102E+03
  4.72062E+03 -4.02273E+03  3.12927E+03 -1.55351E+03  6.73873E+03  1.37980E+03  4.88301E+03 -3.00818E+03
 -6.67318E+03  1.85607E+03 -2.68214E+03 -2.60560E+03  1.81758E+03 -2.25687E+03  5.86774E+03  1.17248E+03
  6.17907E+03 -3.23444E+03  7.07617E+03  1.14356E+04 -6.34256E+02  7.39873E+03  2.55887E+02  2.53359E+03
 -3.12893E+03  2.65819E+03 -7.83367E+03  2.26908E+02 -4.70965E+03 -6.80844E+03 -4.50753E+02 -2.74316E+03
  1.08004E+04 -7.43986E+03  5.94688E+03  4.84906E+03 -1.80355E+03  3.51883E+03  3.03223E+02  6.39327E+03
 -3.97192E+03  9.71588E+03 -7.77844E+02 -1.00606E+03  1.39549E+02 -2.87993E+03 -4.37053E+03  8.05163E+03
 -2.24559E+03  4.20936E+03 -7.97277E+02 -2.74350E+03 -9.98414E+03 -1.77922E+03 -6.57210E+03 -3.98997E+03
 -6.69573E+03 -1.17319E+04  2.61058E+03 -1.78239E+04  1.07779E+04 -7.91247E+03  9.12145E+03 -2.05934E+03
  7.95190E+03 -1.90690E+03  9.68674E+03  8.16148E+03 -1.62184E+03  5.25395E+03  1.38680E+03  7.91727E+03
 -4.66560E+03  7.58037E+03 -2.59579E+03  5.24341E+03  2.68178E+03  4.39049E+03 -5.58575E+02  1.28081E+03
 -4.55454E+03  2.89353E+03 -3.88039E+03 -2.25694E+03 -5.47772E+03 -4.36840E+03 -6.41184E+02 -6.13863E+03
  6.93012E+03 -1.51713E+03  4.28197E+03 -1.34272E+03  7.95638E+03  4.02425E+03  1.78545E+03  1.06742E+04
 -1.84473E+03  1.15954E+04 -5.85987E+03  4.20249E+03 -9.48776E+03  5.57410E+02 -7.93994E+03 -5.87291E+03
  1.28196E+03 -2.64231E+03  3.22376E+03  1.18320E+03  8.37946E+03 -6.52259E+03  5.32531E+02  2.43670E+03
  2.46540E+03  3.34846E+03 -5.43949E+03  5.69168E+03  1.06703E+03  2.63042E+03 -5.32245E+03 -1.89229E+03
  5.90885E+03 -4.57555E+03 -3.44475E+01 -4.44968E+02  3.06265E+03  1.07814E+03  9.83163E+01  5.14349E+03
 -3.74671E+03 -2.03373E+03  2.61414E+03 -7.33634E+02 -5.59758E+03  2.53471E+02  9.37590E+02 -5.85549E+03
  7.71399E+03 -3.55612E+03  9.38116E+03  5.64048E+02  1.35013E+04 -4.50498E+03  4.09526E+01  1.15844E+03
  3.50115E+03 -5.30011E+01  2.76743E+03  5.30980E+03 -7.77821E+03  4.55728E+03  1.55599E+02 -1.56096E+03
 -1.12567E+03 -3.95404E+03 -2.74994E+03  1.74225E+03 -2.08829E+03  1.08452E+03 -5.26133E+03  1.51119E+03
 -7.72942E+03  4.57047E+03 -5.68530E+02 -6.58888E+03  4.45161E+03 -9.07196E+03  3.82381E+03 -1.32000E+03
  5.40178E+03  3.75605E+03 -9.05249E+02  1.00429E+03 -1.31224E+03  9.38304E+03 -6.16299E+03  7.30323E+03
