 $NMID ID='MM_0lb_SNR50_10hz_g50_19.RAW', FMTDAT='(8E13.5)'
 TRAMP=1., VOLUME=1. $END
  3.06487E+05  4.59194E+03  3.37074E+05  2.43926E+05  8.33988E+04  3.34022E+05 -1.33748E+05  2.47818E+05
 -1.86573E+05  8.14117E+04 -1.16699E+05 -2.88490E+04  2.65480E+03 -4.58872E+04  5.40074E+04  2.12351E+03
  3.80648E+04  5.60817E+04 -1.28075E+04  7.93424E+04 -6.29104E+04  6.92377E+04 -8.36961E+04  2.89195E+04
 -7.80074E+04 -1.57299E+04 -5.72832E+04 -5.25423E+04 -7.35028E+03 -6.73424E+04  2.62097E+04 -4.32359E+04
  4.12252E+04  6.15372E+03  1.85124E+04  4.35163E+04 -3.57489E+04  4.32096E+04 -7.12589E+04  2.62199E+03
 -5.56549E+04 -5.57211E+04 -1.21212E+04 -7.84574E+04  4.25066E+04 -5.84332E+04  4.79381E+04 -1.67722E+04
  3.74770E+04  9.20653E+03  3.68376E+04  2.60427E+04  2.33182E+04  3.12556E+04 -9.56292E+03  3.15553E+04
 -2.78619E+04  1.47380E+04 -2.21768E+04 -5.32354E+03  1.27505E+04 -8.17216E+03  1.86682E+04  1.63497E+04
  2.78736E+03  3.76220E+04 -3.64390E+04  3.52230E+04 -6.96632E+04  6.56711E+03 -6.20338E+04 -4.80066E+04
 -1.19448E+04 -6.36427E+04  4.12436E+04 -4.70052E+04  5.85232E+04 -1.52001E+03  3.58677E+04  3.26482E+04
 -9.15101E+03  4.06789E+04 -3.02558E+04  1.63041E+04 -3.41465E+04 -5.62504E+03 -1.38828E+04 -1.06580E+04
 -1.04452E+04 -1.29675E+04  3.48754E+03 -2.12749E+04  8.17243E+03 -1.99941E+04  1.29190E+04 -1.56592E+04
  1.58370E+04  2.77245E+03 -7.65740E+03  1.04112E+04 -2.46944E+04 -8.81659E+02 -9.26047E+03 -3.73736E+04
  2.33696E+04 -3.99383E+04  5.77402E+04 -2.17893E+04  4.32086E+04  1.84805E+04  1.33905E+04  4.47587E+04
 -2.12452E+04  3.51072E+04 -2.82496E+04  6.20368E+03 -9.34645E+03 -2.17561E+04  1.89106E+04 -4.56286E+04
  4.49916E+04 -1.34292E+04  4.09903E+04  2.14830E+04  2.16725E+04  5.04584E+04 -1.27638E+04  5.02851E+04
 -3.12017E+04  3.62558E+04 -4.14138E+04  1.51206E+04 -5.24345E+04 -1.84720E+04 -2.35962E+04 -4.40500E+04
  7.36521E+03 -4.06262E+04  3.25204E+04 -2.00860E+04  3.22710E+04  1.78882E+04  9.85601E+03  2.26569E+04
 -1.47413E+04  1.25774E+04 -1.06579E+04 -1.14104E+04  8.32025E+02 -6.71999E+03  1.74626E+04  6.41363E+03
  1.82671E+04  2.37827E+04 -9.77559E+03  3.05803E+04 -2.40660E+04  1.44555E+04 -2.72613E+04 -7.32748E+02
 -2.39712E+04 -2.03065E+04 -5.65029E+03 -2.36184E+04  1.95174E+03 -2.62519E+04  1.67585E+04 -2.15882E+04
  3.23340E+04 -9.53713E+03  4.06624E+04  5.27310E+03  2.79139E+04  2.29095E+04  3.32907E+03  3.81568E+04
 -1.90039E+04  2.53436E+04 -2.96155E+04  1.65134E+04 -2.34944E+04 -1.50952E+04 -4.40465E+03 -6.22157E+03
  1.32092E+03 -2.87575E+03 -8.44963E+03  8.32516E+03 -1.39480E+04  1.84305E+03 -1.88645E+04 -1.31207E+04
 -1.19207E+04 -2.50119E+04  7.56338E+03 -2.75155E+04  2.02932E+04 -2.04695E+04  1.83728E+04 -9.86294E+03
  1.42152E+04  1.83708E+04 -3.41947E+03  2.53189E+04 -1.49804E+04  1.15287E+04 -2.37700E+04 -3.00281E+03
 -1.47068E+04 -1.39458E+04 -1.78863E+03 -2.64250E+04  1.58267E+04 -2.53331E+04  2.20265E+04 -1.49508E+04
  1.55878E+04 -1.57792E+03  1.59136E+04  6.89053E+03  9.42952E+03  4.28056E+02  1.34992E+04 -5.54428E+03
  1.98120E+04  2.33249E+03  1.98839E+04  1.59188E+04  1.33407E+04  3.46534E+04  6.21561E+02  4.40213E+04
 -2.58427E+04  3.57529E+04 -3.34904E+04  2.02783E+04 -4.01616E+04 -2.64879E+03 -3.55947E+04 -2.15819E+04
 -1.39039E+04 -3.74234E+04  1.45801E+04 -2.82432E+04  1.99335E+04 -1.52287E+04  2.16507E+04  9.35981E+03
  5.80309E+03  1.70348E+04 -1.12317E+04  1.24149E+04 -1.97160E+04  3.40585E+03 -1.57846E+04 -1.52751E+04
 -1.09084E+03 -2.19180E+04  1.17109E+04 -1.97049E+04  1.49622E+04 -1.97066E+03 -1.19943E+03  7.80892E+03
 -1.51254E+04  6.83116E+03 -7.39932E+03 -9.45564E+03 -4.31390E+03 -1.42021E+04  1.70563E+04 -2.03480E+04
  2.08741E+04 -1.29993E+04  2.00514E+04  5.92735E+03  1.85278E+04  1.37607E+04  1.52903E+04  3.08865E+04
 -8.05847E+03  2.74234E+04 -1.77358E+04  1.79703E+04 -1.76955E+04  4.79585E+03 -1.21700E+04 -8.62928E+03
 -8.72141E+03 -1.08488E+04 -2.60774E+03  1.17500E+03 -2.42695E+03  8.27610E+03 -9.45799E+03  3.61811E+03
 -1.34057E+04 -7.02624E+03 -1.13052E+04 -1.20056E+04 -7.55207E+03 -1.77694E+04  8.26651E+03 -1.35096E+04
  1.60578E+04 -3.73931E+03  1.20982E+04  1.20345E+03  1.72928E+03  3.05060E+03 -7.10362E+03  7.12929E+03
 -3.06210E+03 -6.10697E+03 -3.90598E+03 -1.22989E+04  1.05890E+04 -1.57479E+04  1.58411E+04 -7.54058E+03
  2.48341E+04  7.67309E+02  1.92062E+04  1.31749E+04 -1.68553E+03  1.58019E+04 -1.09556E+04  7.73621E+03
 -8.59480E+03 -1.56748E+03 -9.76383E+03 -8.56732E+03 -2.96229E+03 -6.52159E+03  9.79821E+03 -3.28856E+03
  4.88372E+03  1.04442E+04  7.79553E+03  1.40161E+04 -9.96681E+03  9.67268E+03 -1.22157E+04  3.64350E+02
 -1.30587E+04 -9.57156E+03  2.16343E+03 -1.59530E+04  9.09589E+03 -5.05247E+03  7.37096E+03  1.93922E+03
  9.74269E+03  1.17505E+04 -2.78834E+03  6.07872E+03 -1.34796E+04  2.43911E+03 -1.42422E+04 -5.79295E+02
 -7.03519E+03 -1.36147E+04  5.89073E+03 -2.09469E+04  1.64573E+04 -9.31866E+03  1.03578E+04  6.45721E+02
  1.42965E+04  1.47004E+04 -4.36485E+03  1.27080E+04 -1.40549E+04  4.00651E+03 -1.35048E+04 -3.30106E+02
 -1.40110E+04 -1.08068E+04 -4.63700E+03 -1.44304E+04  6.84948E+03 -1.08670E+04  4.73370E+03 -3.12122E+03
  5.16416E+03  2.07467E+03  6.11995E+03  3.30633E+03 -2.46540E+03  2.42101E+03  4.17770E+03 -1.16499E+04
  5.34775E+03 -1.36232E+03  1.84644E+04  7.48657E+03  1.87167E+04  8.78841E+03  9.66605E+03  2.06271E+04
 -6.81526E+03  1.87716E+04 -1.22632E+04  1.09335E+04 -1.81956E+04  1.85490E+03 -2.13799E+04 -7.37254E+03
 -8.58066E+03 -1.27680E+04  1.87393E+02 -1.40545E+04  8.95894E+03 -3.82557E+03  5.46156E+03 -4.43612E+03
  6.95524E+03 -5.33704E+03  3.80446E+03 -4.04700E+03  4.06292E+03 -1.72201E+03  8.74294E+03 -1.65266E+03
  7.10721E+03  2.24172E+03  9.84932E+03  5.17081E+03 -2.66792E+03  1.61952E+04 -1.16548E+04  3.99561E+03
 -1.20978E+04 -1.24989E+03 -6.35962E+03 -9.65611E+03 -6.56963E+02 -1.71717E+04  5.46448E+03 -1.79763E+04
  2.10798E+04 -1.29810E+04  2.06373E+04  5.07647E+02  1.22144E+04  7.85460E+03  1.51968E+03  1.47415E+04
 -1.28450E+04  1.90734E+04 -1.04941E+04  9.54305E+03 -6.15717E+03  8.36187E+01  1.41309E+03 -1.81665E+02
 -8.92729E+02  8.39248E+02 -1.44789E+03  3.62247E+03 -1.05674E+04  4.33487E+03 -1.07823E+04 -3.76425E+03
 -3.38782E+03 -1.23598E+04 -2.74137E+03 -1.05750E+04  1.15867E+04 -9.74328E+03  1.44403E+04 -7.15049E+03
  1.66923E+04  7.17645E+03  6.07743E+03  1.34119E+04 -9.55922E+02  1.59591E+04 -2.30871E+03  7.42673E+02
 -1.33688E+04 -8.50579E+02 -9.81739E+03 -8.31304E+03 -2.10512E+03 -1.55794E+04  7.24214E+03 -1.17440E+04
  7.27277E+03  2.36474E+03  7.43036E+03 -2.61318E+03 -2.14612E+03  2.51186E+03  5.78013E+03 -5.38602E+02
  3.26422E+03  3.82959E+03  2.84584E+03  2.38162E+03 -1.04910E+03 -3.97804E+03  6.74933E+03  2.73682E+03
  2.92317E+03  1.01826E+04 -5.24146E+03  9.56419E+03 -1.27424E+04  1.80772E+03 -1.43547E+04  4.36528E+02
 -5.33734E+03 -1.35222E+04  3.37559E+02 -1.79180E+04  5.56198E+03 -9.81923E+03  8.83265E+03 -4.74302E+03
  6.12409E+03  9.28994E+03  3.07409E+03  5.12972E+03 -4.32574E+02  5.05960E+03 -8.28469E+03  2.14565E+03
 -4.87037E+03 -7.76064E+02  1.78069E+03 -1.08263E+04  6.71079E+03 -3.76283E+03  7.59987E+03  2.46991E+03
 -3.71992E+03  2.85831E+01  2.10133E+03  1.53123E+03  6.67986E+03 -2.58009E+03 -4.78797E+03 -2.14142E+03
  2.06211E+02 -1.47314E+03  5.79032E+03  4.19011E+02  5.46604E+03  1.16893E+04 -3.17913E+03  4.81982E+03
 -4.19590E+03  3.82257E+03 -1.11924E+04  2.84079E+03 -8.54295E+03 -2.08747E+03 -4.16548E+03 -2.60261E+03
  1.13062E+03 -6.21290E+03  1.73519E+03  4.51530E+03  6.73644E+02  4.63176E+03 -3.84767E+03  3.99874E+03
 -1.04600E+04 -1.96171E+03 -6.54725E+03  1.52451E+03 -5.17332E+03 -9.27996E+03  7.91639E+02 -9.53117E+03
  1.13919E+03 -6.62224E+02 -1.09253E+03 -2.08975E+03  3.89516E+03  3.44451E+03  1.04255E+03  7.35792E+03
 -2.52912E+03  3.73736E+03 -4.39745E+03  2.12755E+03  2.96979E+03 -7.37152E+03  8.77709E+03 -7.50490E+03
  7.38134E+02 -2.97976E+02  5.05565E+03  9.52692E+03  4.74069E+03  1.16661E+04 -2.06262E+03  9.56385E+03
 -1.20009E+04  2.11081E+03 -9.05196E+03 -2.02539E+03 -5.13501E+03 -2.09002E+03  3.10370E+02 -1.77767E+03
  1.20440E+03 -1.99571E+03  3.95056E+02 -4.19150E+03  1.79562E+03  3.91533E+03  3.96557E+03  1.11343E+04
  3.05571E+03  4.74750E+03 -9.28231E+03  9.24388E+02 -1.99569E+03  5.85993E+03 -3.80642E+03  6.04443E+03
 -4.03481E+03  4.77911E+03 -2.26030E+03  5.23987E+03 -7.12887E+03 -2.59249E+02 -1.44908E+04 -5.76020E+03
 -8.61309E+03 -8.47354E+03  9.56372E+03 -1.24897E+04  5.34804E+03 -1.15951E+04  9.76442E+03 -2.72220E+03
  8.55982E+03 -1.15275E+03  6.07020E+03  4.91109E+03 -1.47167E+03  1.42077E+04 -4.31753E+03  4.07229E+03
 -7.97268E+03  6.52180E+03 -3.78890E+03 -3.59673E+03 -1.35876E+03  1.01296E+02 -5.79664E+02  1.57963E+03
 -5.81828E+03  5.41943E+03 -1.28852E+03  7.98288E+02 -1.03413E+03 -3.88492E+03 -2.71164E+02 -3.37874E+03
  4.61670E+03 -3.24765E+03 -5.42230E+03 -5.45465E+03  1.19549E+04  3.14657E+03  2.32052E+03  6.06429E+03
 -7.39539E+03  4.82995E+03 -2.56316E+03  2.09109E+03 -1.15293E+04 -2.56817E+03 -5.83828E+03 -2.03484E+03
 -7.20350E+03 -6.21929E+03  1.47275E+03 -1.12045E+04  1.24767E+04 -3.94517E+03 -1.09292E+03 -3.68838E+03
  2.83154E+03  3.81206E+03 -1.18836E+03 -3.67762E+03 -3.29440E+03  1.68647E+03  3.98514E+03 -4.95953E+03
  1.38844E+03  1.89805E+03  1.69506E+03 -1.50217E+03  7.27633E+03 -8.18376E+02  3.40260E+03 -1.30961E+03
 -6.85589E+03 -3.07823E+03 -6.93002E+03  8.51024E+03 -4.01938E+03 -3.28198E+03 -3.73607E+03 -7.67121E+03
  9.94107E+03 -7.12431E+03  4.78815E+03 -8.34451E+03  4.51696E+03  1.05652E+02  4.28643E+03  2.90767E+03
  7.36432E+03  3.93771E+03 -6.31158E+03  1.20836E+03 -4.18161E+03  6.54594E+03 -4.45783E+03  3.23777E+03
 -6.55962E+03 -6.52500E+03  3.83857E+03 -1.09030E+03 -4.15465E+03  9.08315E+02 -6.71747E+03 -8.33139E+02
 -2.76536E+03 -9.77949E+02 -3.18413E+03 -9.88658E+03 -4.61357E+03 -7.90449E+03  2.88805E+03  1.57099E+03
  1.11462E+04  4.20251E+03 -6.82660E+03  1.79330E+03 -7.39372E+02  6.52781E+03 -1.75683E+02  1.29868E+03
