 $NMID ID='MM_0lb_SNR50_12hz_g40_49.RAW', FMTDAT='(8E13.5)'
 TRAMP=1., VOLUME=1. $END
  3.13790E+05  2.08891E+03  3.38956E+05  2.46921E+05  8.97722E+04  3.42273E+05 -1.35122E+05  2.51202E+05
 -1.92343E+05  8.19361E+04 -1.10261E+05 -3.06535E+04  7.62934E+02 -5.15763E+04  5.33652E+04  2.15845E+03
  4.39512E+04  5.14350E+04 -1.86163E+04  7.90811E+04 -6.34971E+04  6.43459E+04 -8.77948E+04  3.33045E+04
 -8.14278E+04 -1.34710E+04 -5.53462E+04 -5.22403E+04 -1.60624E+04 -6.73106E+04  2.58363E+04 -4.82597E+04
  4.29283E+04 -2.46454E+03  1.62305E+04  5.60055E+04 -3.62873E+04  4.08829E+04 -6.34820E+04  2.76448E+03
 -5.06362E+04 -5.76320E+04 -9.60021E+03 -7.91832E+04  3.23229E+04 -5.92360E+04  4.95409E+04 -1.72235E+04
  3.99646E+04  1.15580E+04  2.72842E+04  2.63299E+04  1.08302E+04  2.72087E+04 -7.33844E+03  2.90185E+04
 -2.01135E+04  1.05613E+04 -1.74326E+04 -3.43503E+03  6.31619E+03 -7.41368E+03  1.63049E+04  1.37274E+04
  8.97468E+03  3.70916E+04 -3.40524E+04  3.89313E+04 -7.06035E+04  4.98823E+03 -5.76339E+04 -4.49968E+04
 -1.40813E+04 -6.21925E+04  3.84947E+04 -4.48029E+04  5.70957E+04 -2.06181E+03  3.60109E+04  3.32868E+04
 -3.19288E+03  3.53511E+04 -2.68912E+04  1.79226E+04 -2.67629E+04 -5.13533E+02 -1.57167E+04 -7.64063E+03
 -8.75337E+03 -1.56412E+04 -6.25715E+03 -1.81846E+04  5.14736E+03 -1.80815E+04  1.66799E+04 -1.14485E+04
  1.06788E+04  2.01042E+03 -1.16698E+04  1.09951E+04 -2.14488E+04 -8.74533E+03 -9.41306E+03 -3.54575E+04
  2.15134E+04 -4.25797E+04  4.90917E+04 -2.19282E+04  3.98472E+04  1.93493E+04  1.18302E+04  4.58355E+04
 -1.45325E+04  3.58838E+04 -2.63684E+04  2.75043E+03 -1.07658E+04 -2.84640E+04  2.21050E+04 -3.11693E+04
  4.02538E+04 -5.99548E+03  3.03701E+04  2.43551E+04  1.79768E+04  4.33573E+04 -1.12309E+04  5.01153E+04
 -3.19806E+04  3.88110E+04 -4.64250E+04  1.47297E+04 -4.71354E+04 -1.80939E+04 -2.75484E+04 -4.09681E+04
  1.39590E+03 -4.44924E+04  2.75962E+04 -1.30632E+04  2.89020E+04  5.47877E+03  6.08183E+03  1.61637E+04
 -2.03056E+04  1.29125E+04 -5.40110E+03 -3.56434E+03  4.40161E+03 -6.91188E+03  2.00619E+04  7.30840E+03
  1.11634E+04  1.99737E+04 -8.77750E+03  2.54583E+04 -2.52436E+04  1.80338E+04 -2.44246E+04 -6.52806E+03
 -2.40005E+04 -1.62484E+04  2.01862E+03 -2.20769E+04 -1.53470E+03 -1.95376E+04  1.76645E+04 -2.02343E+04
  3.03268E+04 -1.10596E+04  3.69002E+04  7.38746E+02  2.66535E+04  2.10608E+04  5.09143E+03  3.65481E+04
 -1.90910E+04  2.65040E+04 -3.04344E+04  1.28738E+04 -2.24378E+04 -1.11029E+04 -4.05508E+03 -1.21887E+04
  2.42853E+03  1.03311E+03 -3.49853E+03  5.26623E+03 -1.80802E+04  1.09546E+04 -1.68438E+04 -8.14477E+03
 -7.79901E+03 -1.86220E+04  5.30709E+03 -2.75222E+04  1.52723E+04 -1.07800E+04  1.89972E+04 -5.49622E+03
  7.82237E+03  1.30973E+04  1.11347E+03  1.87801E+04 -1.23765E+04  1.14061E+04 -2.39324E+04 -3.76162E+03
 -9.23432E+03 -1.81026E+04  2.18897E+03 -2.51231E+04  1.61207E+04 -2.25716E+04  1.75234E+04 -8.85084E+03
  1.68875E+04 -2.09785E+03  1.51965E+04  6.66457E+03  6.41295E+03  2.91109E+03  1.20186E+04 -3.27998E+03
  1.78569E+04  1.70373E+03  2.44850E+04  1.66877E+04  1.21917E+04  3.25980E+04 -2.38572E+03  3.50008E+04
 -2.12695E+04  3.19995E+04 -2.79357E+04  1.77818E+04 -3.78360E+04  6.63244E+02 -3.04605E+04 -1.77208E+04
 -1.17684E+04 -2.67734E+04  9.54837E+03 -2.82092E+04  2.19443E+04 -8.58779E+03  2.22298E+04  6.46103E+03
  6.64534E+03  1.45017E+04 -1.14305E+04  1.30122E+04 -2.12999E+04  4.67936E+02 -1.14115E+04 -1.36997E+04
 -4.06643E+03 -1.88734E+04  1.02691E+04 -1.20621E+04  8.89564E+03 -1.63730E+03  3.50848E+03  4.70913E+03
 -5.28771E+03  3.69797E+02 -6.82724E+03 -4.52498E+03 -5.63157E+01 -1.40532E+04  7.65872E+03 -1.09142E+04
  1.68683E+04 -5.89250E+03  2.27536E+04  4.02694E+03  1.52649E+04  1.84499E+04  1.01237E+04  2.81987E+04
 -1.16515E+03  2.14605E+04 -1.88346E+04  1.23476E+04 -1.33057E+04  9.68272E+03 -1.38824E+04 -7.04404E+03
 -5.27473E+03 -6.45979E+03 -8.83977E+03  4.71101E+03 -3.78843E+03  1.09676E+03 -5.47352E+03  2.83144E+03
 -1.08358E+04 -1.79402E+03 -8.24847E+03 -1.12346E+04 -3.64539E+03 -1.86707E+04  8.14791E+03 -1.24624E+04
  1.18812E+04 -5.33794E+03  9.29576E+03  7.05291E+03  3.85288E+02  7.95809E+03 -3.35727E+03 -2.52840E+03
 -4.19304E+03 -4.03094E+03  2.36274E+03 -1.21441E+04  1.18101E+04 -1.27950E+04  1.41292E+04 -5.12879E+03
  1.74324E+04  6.63605E+03  1.25285E+04  8.77509E+03 -8.61577E+03  1.14362E+04 -1.13130E+04  1.34550E+04
 -1.06211E+04  5.89295E+03 -2.18425E+03 -2.26864E+03  3.07254E+03 -2.90545E+03  1.02465E+04 -4.46589E+03
  7.73407E+03  3.98263E+03  6.97043E+03  1.20182E+04 -3.86080E+03  8.83647E+03 -1.16325E+04  6.52319E+03
 -1.19426E+04 -4.54553E+03  4.73545E+03 -1.29674E+04  3.24938E+03 -8.36608E+03  8.23169E+03  3.50117E+03
  3.77897E+03  1.02498E+04 -4.68947E+03  1.23182E+04 -7.53375E+03  3.38456E+03 -3.35991E+03 -6.58686E+03
 -6.89079E+03 -1.50328E+04  6.64713E+03 -4.33199E+03  9.63676E+03 -7.56364E+03  1.30179E+04  1.90054E+03
  1.21552E+04  5.32469E+03 -1.42698E+02  6.18922E+03 -1.31413E+04  3.32919E+03 -1.23359E+04 -4.58798E+02
 -3.85085E+03 -7.78784E+03  4.05309E+03 -6.84505E+03  6.75651E+03 -5.88781E+03  5.06948E+03 -3.69719E+03
  6.77363E+03 -7.10194E+02 -2.64128E+03 -1.79542E+03  3.38257E+03 -2.06695E+03 -8.69903E+02 -9.72505E+02
  8.24485E+03  2.59538E+03  1.08777E+04  7.28854E+02  1.31996E+04  9.83832E+03  7.67410E+03  1.69282E+04
 -6.80785E+02  1.80952E+04 -1.51017E+04  1.06619E+04 -1.55631E+04  6.12785E+02 -2.12209E+04 -3.23231E+03
 -6.13813E+03 -1.68395E+04 -2.47894E+03 -9.07869E+03  6.71447E+03 -7.37790E+03  4.60139E+03 -6.67441E+03
  6.13859E+03 -2.11242E+03  6.72704E+03 -5.24434E+03  2.38025E+03 -1.44536E+03  8.08836E+03  1.72117E+03
  8.70363E+03 -4.51776E+02  3.78933E+03  6.14461E+03 -1.86725E+02  4.08788E+03 -8.90884E+03  5.83646E+03
 -7.68216E+03 -3.74005E+03 -6.76923E+03 -6.21507E+03  1.21685E+03 -9.43367E+03  8.35994E+03 -8.36955E+03
  9.27735E+03 -3.75725E+03  1.37953E+04  3.35039E+03  5.91329E+03  5.08719E+03 -1.82597E+03  1.41284E+04
 -4.51612E+03  1.18196E+04 -7.86242E+03  2.88750E+03 -9.52815E+03 -3.02177E+03 -3.25310E+03  2.13101E+03
 -2.25533E+02 -1.78226E+03 -2.47818E+03 -8.22596E+02 -3.06688E+03  9.45658E+02 -4.40931E+03 -2.96523E+03
 -6.89212E+03 -5.29943E+03 -1.53765E+03 -1.39517E+04  5.59282E+03 -1.24556E+04  1.11246E+04 -1.87361E+03
  9.36384E+03  8.91556E+03  3.48588E+03  7.96764E+03  1.08124E+03  1.47018E+04 -5.72778E+03  2.64000E+03
 -7.77425E+03 -8.05387E+02 -4.19242E+01 -9.20781E+03 -4.22112E+03 -6.82742E+03 -2.16775E+03 -6.53175E+03
  1.07251E+03 -2.91185E+03  9.37304E+03  1.22603E+03  5.79271E+03  6.43337E+03  6.13294E+03  3.03275E+03
  1.12109E+03  2.00050E+03 -1.46094E+03  5.09303E+03  5.12454E+03  3.13525E+03  8.55389E+02  4.84499E+03
 -2.41573E+03 -8.98589E+02 -4.42359E+03  7.37859E+03 -1.08685E+04 -2.12555E+03 -8.09422E+03 -3.08605E+03
 -3.03613E+01 -1.08535E+04  1.42625E+03 -1.19850E+04  7.69366E+03 -1.30122E+04  3.38402E+03 -9.31165E+03
  5.76696E+03  5.67349E+03  3.72020E+03  1.09029E+04 -6.75238E+03  6.72761E+03 -2.94804E+03  5.56084E+03
 -4.94402E+03 -5.20853E+03  4.37622E+03 -7.53118E+03  8.57936E+03  3.68421E+03  6.65958E+03  6.53331E+02
  1.41327E+02  3.47094E+03  3.96841E+03  3.90753E+02  1.29046E+03 -5.63478E+03  5.94798E+03  2.37510E+03
  6.10944E+02  6.79277E+02  3.53441E+03  5.51183E+01  6.63260E+03  3.36818E+03 -5.69306E+03  9.21784E+03
 -2.28688E+03  5.06985E+03 -9.09982E+03  2.74930E+03 -6.31244E+03 -3.15102E+02  2.48846E+03 -1.62862E+03
 -1.62114E+03 -8.04698E+02  3.47270E+03 -3.32558E+03  3.38743E+03  2.71209E+03 -3.61181E+03 -1.58782E+02
  1.74144E+03  4.29679E+03 -6.99169E+03 -2.30917E+03 -8.97538E+03 -3.58471E+03 -3.99597E+03 -1.04404E+04
  6.14633E+02 -3.14499E+03  2.49504E+03  2.25997E+03  2.86653E+03 -9.63025E+03 -3.74876E+03  6.68246E+03
 -3.66228E+03 -2.14708E+03 -5.12988E+03 -1.52421E+03  6.54548E+03 -3.95922E+03  3.86837E+03  5.87289E+02
  1.06256E+04 -8.12755E+03  2.21600E+03  1.49210E+03  1.29788E+03  6.91629E+03 -1.91904E+03  6.44542E+03
 -6.37329E+03 -1.19346E+03 -1.31810E+03  7.53738E+02 -2.41477E+03 -1.97331E+03  6.67491E+03 -1.40459E+03
  6.38680E+03 -9.90699E+02  2.93138E+03  1.22114E+02  4.39825E+03 -4.95108E+03 -2.78639E+03  8.63435E+03
  2.21495E+03  9.30421E+02 -3.43283E+03  2.71526E+03  4.02641E+02  2.76749E+03  3.99415E+03  5.92076E+03
 -4.06940E+03  5.65573E+03 -2.98933E+03  3.71448E+03 -4.81435E+03  2.65734E+03 -8.80196E+03 -1.44988E+03
 -5.72642E+03 -1.25808E+04 -3.51894E+02 -1.14961E+04  5.05257E+03 -1.32574E+04  6.15702E+03 -2.95045E+02
  1.09481E+04  7.72710E+01  6.57525E+03  1.12179E+03  1.42283E+03  1.10308E+04  3.02545E+03  5.11878E+03
 -4.54135E+03  1.92364E+03 -3.59967E+03 -1.18557E+03 -5.93377E+03  2.06510E+03  1.31715E+03 -5.09172E+03
 -2.01105E+03 -1.08841E+03  5.68003E+03  3.21044E+03 -1.14299E+03  3.05021E+03 -2.87004E+03 -2.95435E+03
  2.64088E+03 -2.00285E+03  3.63179E+03  3.01043E+03 -1.82252E+02  3.21683E+03  4.36363E+03  9.48020E+03
  3.37728E+03  2.37506E+03 -5.35628E+03  3.13054E+03 -5.92928E+03 -8.25984E+02 -1.75789E+03 -3.90947E+03
 -1.35908E+03 -3.78396E+03  2.60237E+03 -9.99192E+03  6.51644E+03 -7.48645E+03  2.98860E+03  7.21471E+01
  3.17291E+03  1.59439E+03 -2.88085E+02  3.01358E+03 -2.32883E+03 -5.61225E+02 -6.83992E+02  1.08943E+03
  1.12299E+03 -3.43750E+03  5.78330E+03  1.77509E+03 -1.28895E+03  4.68996E+03  4.44272E+03 -9.23439E+02
 -1.60472E+03  8.43661E+01 -2.99504E+03 -4.15025E+03  3.76522E+03 -5.85290E+02  2.18205E+02 -1.21535E+04
  1.17588E+03 -1.68370E+02  7.37254E+03  1.59397E+03  3.00447E+03  7.18880E+03  5.88794E+03  9.84943E+02
  1.49719E+03  2.49562E+03  1.85459E+03  2.44829E+03  1.23086E+02  7.88468E+03 -6.40952E+02  3.53980E+03
 -2.45605E+02  9.16855E+02  1.45305E+03 -1.35061E+03 -2.94396E+03  1.97228E+03 -2.72922E+03 -5.88079E+03
 -6.86981E+03 -1.18366E+03 -3.96838E+01 -1.01480E+03  1.15132E+03  1.11900E+03  2.73173E+03 -7.62287E+03
  1.03796E+02 -2.87938E+03 -2.97511E+02 -8.62900E+02  4.54789E+03  4.35167E+03 -5.42939E+03 -6.24550E+02
