 $NMID ID='MM_0lb_SNR50_20hz_g60_45.RAW', FMTDAT='(8E13.5)'
 TRAMP=1., VOLUME=1. $END
  3.13848E+05  2.11189E+03  3.38386E+05  2.51355E+05  8.67319E+04  3.37052E+05 -1.33394E+05  2.43677E+05
 -1.89354E+05  7.91383E+04 -1.12942E+05 -3.57341E+04  2.78745E+03 -5.15502E+04  5.54672E+04 -3.05308E+03
  3.30727E+04  5.13344E+04 -1.97589E+04  7.54157E+04 -6.26915E+04  6.18584E+04 -8.19780E+04  2.78873E+04
 -8.14649E+04 -1.39993E+04 -6.19782E+04 -4.89123E+04 -1.50798E+04 -6.72771E+04  2.91019E+04 -4.65331E+04
  3.49641E+04  2.51329E+03  1.56756E+04  4.58486E+04 -3.42386E+04  4.60880E+04 -6.89680E+04  6.73020E+02
 -5.01711E+04 -5.32212E+04 -1.05544E+04 -7.62042E+04  3.42518E+04 -5.70835E+04  4.92804E+04 -1.37170E+04
  4.27165E+04  1.11076E+04  3.34781E+04  1.71835E+04  1.62804E+04  2.73646E+04 -6.40660E+03  2.56862E+04
 -2.33094E+04  1.30591E+04 -1.59251E+04 -6.20882E+03  7.23786E+03 -9.71401E+03  2.03345E+04  1.51605E+04
  1.15893E+04  3.31677E+04 -2.63045E+04  3.50786E+04 -5.99110E+04  4.06278E+03 -5.85491E+04 -4.04857E+04
 -1.69267E+04 -6.01585E+04  4.06087E+04 -4.04711E+04  5.34175E+04 -2.57660E+03  3.48974E+04  3.44661E+04
 -4.66055E+03  3.30796E+04 -3.13420E+04  1.88070E+04 -2.98135E+04 -5.02851E+03 -1.87759E+04 -9.88360E+03
 -3.82556E+03 -1.12766E+04 -1.95274E+03 -1.62628E+04  6.80860E+03 -2.32123E+04  1.32386E+04 -7.47261E+03
  1.07666E+04  5.66037E+02 -6.07774E+03  1.49539E+04 -2.33632E+04 -5.06035E+03 -9.65463E+03 -3.48416E+04
  2.06361E+04 -4.02947E+04  4.61713E+04 -1.81326E+04  4.53348E+04  1.57246E+04  1.15917E+04  4.30287E+04
 -1.16416E+04  3.43414E+04 -2.05557E+04 -1.81733E+03 -9.19601E+03 -2.55794E+04  1.64629E+04 -3.37520E+04
  3.96257E+04 -8.15170E+03  3.50398E+04  2.54752E+04  1.61889E+04  4.41257E+04 -9.08043E+03  4.70297E+04
 -2.85066E+04  2.90300E+04 -3.39078E+04  8.88404E+03 -3.92979E+04 -1.30589E+04 -2.26826E+04 -3.92133E+04
  8.37395E+03 -3.73600E+04  2.87543E+04 -1.04502E+04  3.11660E+04  1.05841E+04  4.67167E+03  2.01649E+04
 -1.59050E+04  5.85608E+03 -1.48947E+04 -5.47048E+03  5.65464E+03 -8.07355E+03  1.88930E+04  9.40135E+03
  1.21962E+04  2.16430E+04 -9.12302E+03  2.38842E+04 -2.09753E+04  7.87565E+03 -2.46376E+04 -5.74277E+03
 -1.61485E+04 -1.65967E+04 -4.13931E+03 -2.01440E+04  5.42001E+02 -2.05924E+04  1.20701E+04 -1.39983E+04
  2.49419E+04 -1.16948E+04  2.94849E+04  3.19553E+03  2.25290E+04  1.88084E+04  3.19957E+03  3.42756E+04
 -1.68706E+04  2.67471E+04 -2.48770E+04  8.75096E+03 -2.03737E+04 -1.54982E+04 -2.31075E+03 -1.36452E+04
  4.11232E+02 -5.27445E+03 -5.62185E+03  8.26178E+03 -1.08905E+04  2.49841E+03 -1.42219E+04 -7.12274E+03
 -8.75933E+03 -1.40274E+04  3.14976E+03 -2.00725E+04  1.26271E+04 -1.19719E+04  1.88769E+04 -2.11631E+03
  7.22435E+03  7.56960E+03  6.21014E+01  1.61876E+04 -1.41431E+04  9.38900E+03 -1.68239E+04 -5.30504E+03
 -1.40334E+04 -1.33660E+04  4.38020E+02 -1.96649E+04  1.18454E+04 -1.41023E+04  1.33912E+04 -4.71426E+03
  1.88066E+04  3.73534E+03  1.32956E+04  7.88697E+03  3.80507E+03  4.79612E+02  1.20895E+04 -9.22446E+02
  1.63053E+04  1.51969E+03  1.33464E+04  1.45144E+04  6.37126E+03  2.23724E+04 -1.22823E+03  2.71303E+04
 -1.74829E+04  2.07505E+04 -2.62488E+04  1.40756E+04 -2.44075E+04 -3.70400E+03 -1.85204E+04 -1.84676E+04
 -1.32068E+04 -2.02149E+04  4.83030E+03 -2.27200E+04  1.54751E+04 -1.04056E+04  1.46920E+04  3.87237E+03
  8.74018E+03  1.32956E+04 -5.21314E+03  9.13981E+03 -1.23335E+04 -1.05146E+03 -1.33446E+04 -5.64864E+03
  2.62813E+03 -1.39089E+04  1.06501E+04 -9.40375E+03  7.51366E+03  9.15841E+02  1.62942E+03  8.76165E+03
 -4.65114E+03 -3.17824E+03 -3.73038E+03 -3.51421E+03  7.94476E+02 -9.56326E+03  6.97595E+03 -8.02544E+03
  1.18233E+04 -5.71301E+03  1.33252E+04  9.03147E+02  1.01969E+04  1.43936E+04  4.39069E+03  8.72800E+03
 -4.22430E+03  1.64242E+04 -3.26161E+03  1.26646E+04 -1.39207E+04  5.28112E+03 -9.40123E+03 -3.50919E+02
 -6.17803E+03 -1.52712E+02 -7.56567E+02  1.04576E+03  6.15364E+02  2.86209E+03 -2.18321E+03  7.17282E+02
 -9.36626E+03 -2.71508E+03 -5.23355E+03 -3.54124E+03 -3.93700E+03 -1.34327E+04  2.57807E+02 -5.08337E+03
  5.76302E+03 -1.72354E+03  7.64580E+03  3.06014E+03 -2.67754E+02  4.54811E+03 -2.18753E+03 -1.76658E+03
 -3.87146E+03 -8.10957E+03 -1.56794E+03 -7.90662E+03  2.40831E+03 -7.03209E+03  1.14720E+04 -7.38360E+03
  7.51311E+03  3.21780E+02  4.67869E+03  3.84185E+03  6.76674E+01  7.42613E+03 -4.85314E+03  1.13975E+04
 -9.84776E+03  4.07673E+03 -2.14273E+03  5.48662E+02 -2.39778E+03 -2.15707E+03  4.18947E+03 -4.13988E+03
 -6.87491E+02  6.16075E+03 -1.60101E+02  5.79119E+03 -5.24033E+03  6.19017E+03 -8.85719E+03  4.82885E+03
  2.78462E+02 -2.81795E+03  2.49295E+03 -8.88714E+03  2.33926E+03 -5.06088E+03  1.26502E+03 -5.05132E+02
 -1.50404E+02  3.72152E+03 -9.21056E+03  9.78623E+03 -1.68368E+03  4.20007E+03 -9.45728E+02 -1.97703E+03
 -3.64972E+03 -9.72454E+02 -4.36751E+03 -6.27276E+03  7.69295E+03 -4.66133E+03  4.97292E+03  1.80950E+03
  3.52732E+03  5.10483E+03 -1.42149E+03  7.34714E+03 -1.27395E+03  1.38719E+03 -1.71685E+03  2.03976E+03
 -4.42038E+03 -5.35653E+03 -1.40965E+03 -6.55383E+03 -1.97288E+02 -4.55019E+03  2.20304E+03 -3.70351E+03
 -1.26187E+03  1.49312E+03 -4.33762E+02 -7.89321E+02  5.45424E+02  2.26187E+03  2.37914E+03  1.65866E+03
  6.44221E+03 -1.87864E+03  8.67717E+03  2.87273E+03  4.54569E+03  6.29783E+03  6.11136E+03  5.91663E+03
 -2.07276E+03  7.45280E+03 -7.58400E+03  6.65134E+03 -9.92547E+03  4.15462E+03 -1.04839E+04 -2.79241E+03
 -3.32694E+03 -1.08824E+04  4.31647E+03 -5.90341E+03  1.44353E+03  3.83257E+02  2.87368E+03 -2.56159E+03
 -1.02523E+03  1.56263E+02  2.30155E+03 -9.31870E+02  4.02793E+03 -3.93629E+03  2.17437E+03 -4.53634E+03
  2.62248E+03 -4.75167E+02  2.87928E+03  4.51130E+03 -9.72606E+03  2.30876E+03 -5.08136E+03 -1.65847E+03
 -3.72590E+03 -1.05913E+03  9.78688E+02 -6.58849E+02  5.14069E+03 -7.71477E+03  5.85947E+03 -4.75831E+03
  2.01325E+03 -9.43844E+02  6.79658E+03  3.40032E+03  3.90147E+03  3.81954E+03  5.56732E+02  4.02988E+03
 -2.36105E+03  4.21724E+03 -2.65124E+03  1.12719E+03  1.07027E+02 -1.34119E+03  6.65505E+03  5.50876E+02
 -1.06504E+01  3.59502E+03 -2.99673E+03  2.26090E+02 -6.11740E+03  1.56204E+03 -3.98697E+03 -1.42199E+03
  8.45304E+02  1.68027E+01 -1.63139E+03 -5.55285E+02 -9.40283E+02 -4.75112E+03  1.91284E+03  5.38779E+03
  2.17842E+03  1.39929E+03  1.36832E+03  1.71910E+03  3.90232E+02  3.58458E+03 -6.25348E+03  4.61210E+02
 -1.00694E+03  8.52497E+02 -1.90565E+03  2.09911E+03 -2.45474E+02 -7.07700E+02  9.74946E+01  9.37880E+02
  1.43950E+03 -3.76130E+03 -1.97555E+03 -2.34665E+03  9.59884E+02  4.89375E+02 -8.86179E+02  1.20128E+03
  4.59337E+03 -2.12949E+03 -2.96153E+03 -1.59273E+03  5.39843E+03  8.90885E+02 -9.51527E+02 -1.82859E+03
 -3.17092E+03  5.04685E+03 -1.13286E+03  5.27951E+03 -7.42286E+03 -5.54785E+02 -4.39898E+03  1.79651E+03
 -7.94550E+02 -4.04619E+03 -2.39868E+03 -3.43840E+03  4.62222E+02  4.32457E+02 -3.85318E+03  1.15952E+02
  2.63051E+03  3.28633E+03  3.78385E+03 -7.41741E+02 -3.43006E+03  1.77314E+03  1.47460E+03 -6.20211E+02
  2.68723E+03  2.99661E+02  4.94374E+03 -3.67944E+03  2.15875E+03 -3.38193E+03  4.84898E+03 -8.29899E+02
  3.07431E+03  2.08057E+03  3.71968E+03 -2.51401E+03 -8.20890E+02 -1.16943E+03  2.69626E+03  4.69471E+02
 -1.82464E+03  6.41232E+02  1.35949E+03  7.83993E+02 -2.38109E+02  1.00500E+02  1.52717E+03  3.01606E+02
 -1.05972E+03 -4.78241E+02 -1.20320E+03  5.76358E+02 -1.22648E+03 -3.54271E+03  3.72935E+03 -1.98012E+03
  1.87131E+03  1.19346E+03  1.20943E+03 -2.15222E+03 -2.13394E+03  6.77089E+02 -1.56069E+03  3.71098E+03
 -1.07163E+03 -3.77885E+02  1.61303E+03 -9.68350E+02 -9.38515E+02 -1.73446E+03  5.75754E+02 -1.59208E+03
 -2.87099E+03  3.63803E+03  9.58359E+02  9.34503E+02  2.38072E+03  2.80033E+03 -2.27819E+03  1.94822E+03
 -1.87424E+03 -4.54809E+02 -1.23705E+03 -1.55279E+03  6.86745E+02 -1.24421E+03  2.23391E+03 -2.03250E+03
  6.33071E+02 -2.07118E+03  1.07333E+03  4.38558E+02  5.55795E+03  9.66052E+02 -1.78254E+03  2.47471E+03
 -2.59681E+03 -3.44423E+03 -1.07796E+03  3.73766E+02 -2.21195E+03 -1.45144E+03 -8.27601E+02 -4.20290E+03
  2.31534E+03  1.61411E+03 -3.10427E+03 -3.02947E+03  1.15919E+03  1.56673E+03 -6.74011E+03  1.29260E+03
 -4.66123E+03  1.47418E+03 -5.07027E+02  4.63060E+03  1.21327E+03  3.43783E+02 -9.53392E+02 -2.76041E+02
 -3.57788E+03  1.06178E+03 -4.11447E+02 -1.86233E+03  4.44284E+03 -2.77159E+03 -2.56665E+03 -2.82256E+02
  3.97652E+02 -3.07154E+03 -1.30412E+03 -7.30337E+03  3.77440E+02  1.40834E+03  2.74214E+03 -1.33388E+03
  1.33838E+03 -2.31369E+03  1.34504E+03 -1.68213E+03  7.42989E+02 -4.46438E+03  4.16261E+03 -5.15297E+02
 -6.97839E+02 -1.52162E+01 -3.17241E+03 -2.78773E+02 -3.55603E+03  3.68163E+03 -1.09324E+03  9.29095E+01
 -7.41406E+02  1.89879E+03  4.83549E+02 -1.41039E+03  1.25057E+03 -3.42739E+03  2.26121E+03 -4.84582E+03
  2.57304E+03 -1.95698E+03 -4.14022E+03 -2.18498E+03 -1.28972E+03 -1.28193E+03 -8.06664E+01 -6.56888E+02
 -1.89850E+03  1.16378E+02 -3.34979E+02  3.48812E+03 -3.17356E+03  1.17596E+03 -1.47733E+03  2.02391E+03
 -5.12401E+03  2.66044E+03 -6.13426E+03 -2.19873E+03 -5.71218E+03 -2.04310E+03  1.09946E+03  1.53327E+03
  1.79364E+03 -4.61059E+02  2.42498E+03  8.25870E+02 -3.28823E+03  2.11834E+03 -2.35498E+03 -1.04241E+03
 -5.02453E+03 -3.34266E+03  1.10161E+03 -3.86113E+03 -3.45357E+03  5.61593E+02  4.44614E+03  2.93770E+02
  1.63795E+02 -2.44717E+03  3.01729E+03 -1.06451E+03  8.02535E+02  1.35564E+01 -2.09359E+03 -2.55130E+02
 -1.69830E+03 -5.86132E+02  1.80298E+03 -3.12909E+03  2.45869E+03 -4.81479E+03  9.61427E+02  9.12231E+02
  4.14699E+02  2.03011E+03 -2.59626E+03 -1.58875E+03  6.60815E+02  3.47946E+02 -1.02008E+03 -2.55608E+02
 -2.15962E+03 -1.33557E+03 -2.40509E+02  3.91659E+03  9.12229E+02  4.55069E+03 -1.53221E+03 -8.58330E+02
 -9.70421E+02 -2.78307E+03 -1.77866E+01 -1.94279E+03  6.46534E+02  2.23815E+03  2.93657E+03  2.39816E+03
 -3.00748E+03 -1.14966E+03 -1.16127E+03 -1.57717E+02 -1.49372E+03  2.92879E+03  6.74463E+01 -1.96566E+03
