 $NMID ID='MM_0lb_SNR50_16hz_g50_57.RAW', FMTDAT='(8E13.5)'
 TRAMP=1., VOLUME=1. $END
  3.09125E+05  5.38306E+02  3.36186E+05  2.50971E+05  8.36119E+04  3.36826E+05 -1.33008E+05  2.47448E+05
 -1.90198E+05  8.00225E+04 -1.11743E+05 -3.47583E+04  1.92575E+03 -5.35133E+04  5.53436E+04 -4.36280E+03
  3.47578E+04  5.14080E+04 -2.05102E+04  7.25607E+04 -6.15419E+04  5.92322E+04 -8.27779E+04  3.18811E+04
 -8.33159E+04 -9.59883E+03 -5.70243E+04 -4.72628E+04 -1.92996E+04 -6.88900E+04  2.55762E+04 -4.45041E+04
  3.62655E+04  4.37400E+03  1.40266E+04  4.59654E+04 -3.80735E+04  4.41600E+04 -6.60724E+04 -1.39706E+03
 -5.55046E+04 -5.78275E+04 -1.99395E+03 -7.97754E+04  3.42540E+04 -5.03049E+04  4.74104E+04 -1.65094E+04
  4.36364E+04  1.32371E+04  2.96407E+04  2.59021E+04  1.77408E+04  2.92338E+04 -5.62587E+03  3.04524E+04
 -2.16159E+04  1.54183E+04 -1.50619E+04 -3.55518E+03  4.27426E+03 -5.74031E+03  2.04537E+04  9.03007E+03
  9.80768E+03  3.36102E+04 -3.08300E+04  3.67103E+04 -6.59815E+04  1.43477E+03 -5.16903E+04 -4.80033E+04
 -1.39229E+04 -6.32947E+04  4.17705E+04 -4.28874E+04  6.13806E+04 -6.41354E+03  3.63439E+04  3.79425E+04
 -3.57850E+03  3.16802E+04 -2.98902E+04  1.64506E+04 -2.63213E+04 -5.36869E+03 -1.46119E+04 -1.28755E+04
 -1.21999E+04 -1.00641E+04  3.02577E+02 -1.96413E+04  5.72943E+03 -2.28036E+04  1.37511E+04 -8.71577E+03
  1.20295E+04  8.25695E+03 -8.01207E+03  1.07817E+04 -2.17103E+04 -2.92203E+03 -7.34591E+03 -3.21863E+04
  2.32354E+04 -4.29859E+04  4.44584E+04 -1.63506E+04  4.29771E+04  1.45780E+04  1.74751E+04  4.61193E+04
 -1.47429E+04  2.93026E+04 -2.64153E+04  1.98571E+03 -1.13717E+04 -2.80605E+04  2.01316E+04 -3.08284E+04
  3.97519E+04 -1.06086E+04  3.60438E+04  2.15775E+04  1.70227E+04  5.26936E+04 -7.66946E+03  4.96401E+04
 -3.40910E+04  3.35546E+04 -3.81390E+04  8.23624E+03 -4.27666E+04 -1.46419E+04 -2.01074E+04 -3.71856E+04
  8.83725E+03 -3.75710E+04  2.98532E+04 -1.21653E+04  2.91525E+04  8.89310E+03  3.73792E+03  1.91175E+04
 -1.63571E+04  1.15055E+04 -8.31377E+03 -4.37670E+03  5.78490E+03 -1.65447E+04  1.81704E+04  1.38580E+03
  1.39618E+04  2.36351E+04 -7.27940E+03  2.50229E+04 -2.17051E+04  9.04466E+03 -2.83332E+04 -5.06096E+03
 -1.52667E+04 -1.61538E+04 -5.31245E+03 -1.88310E+04  4.64621E+03 -1.49056E+04  1.94278E+04 -1.48731E+04
  2.47154E+04 -1.52136E+04  3.24050E+04 -2.43488E+03  2.36909E+04  2.18418E+04 -1.80871E+02  3.89107E+04
 -2.09284E+04  3.16685E+04 -2.71130E+04  9.87821E+03 -1.96054E+04 -9.19022E+03 -4.29728E+03 -1.73551E+04
  2.70886E+03 -1.11918E+04 -4.02174E+03  5.25890E+03 -1.25178E+04  3.95604E+03 -1.59779E+04  4.61087E+02
 -8.67151E+03 -1.89236E+04  5.69177E+03 -1.93388E+04  1.03996E+04 -1.11102E+04  1.48245E+04 -1.36937E+03
  1.07407E+04  1.56209E+04 -3.76013E+02  1.37960E+04 -1.23726E+04  1.19529E+04 -1.22239E+04 -6.42924E+03
 -1.57132E+04 -1.49751E+04  3.95877E+03 -2.32127E+04  1.09409E+04 -2.15280E+04  1.99160E+04 -6.46524E+03
  1.99217E+04  2.89292E+03  1.24083E+04  4.04056E+03  5.56331E+03  3.72688E+03  1.11755E+04  3.01999E+03
  1.20796E+04  7.73083E+02  1.99198E+04  1.86996E+04  1.33450E+04  2.81431E+04 -1.95537E+02  3.13176E+04
 -2.11746E+04  2.83149E+04 -2.49983E+04  1.38044E+04 -3.08754E+04  2.21165E+02 -2.60213E+04 -2.14248E+04
 -1.33749E+04 -2.44300E+04  1.01065E+04 -2.33821E+04  1.90462E+04 -1.32408E+04  1.60967E+04  4.46301E+03
  8.75519E+03  1.00421E+04 -1.00627E+04  9.66399E+03 -1.86998E+04  4.52300E+02 -1.06579E+04 -1.04663E+04
 -7.80744E+02 -1.15020E+04  5.61088E+03 -1.01500E+04  1.42096E+04  1.21953E+03 -2.29374E+03  6.75710E+03
 -4.75752E+03  2.66023E+03 -4.74409E+03 -6.08466E+03  3.46867E+03 -9.68240E+03  5.20955E+03 -1.57744E+04
  2.00583E+04 -8.79884E+03  1.20384E+04 -1.05507E+03  1.17364E+04  9.93111E+03  1.02239E+04  1.68849E+04
 -1.74402E+03  1.61204E+04 -1.23397E+04  9.74830E+03 -1.42388E+04 -1.39475E+03 -9.97063E+03 -1.21555E+03
 -2.85647E+02 -5.09155E+03  3.77313E+03 -7.60166E+02 -4.79456E+03 -4.93095E+03 -7.04557E+03  3.84537E+03
 -7.93263E+03 -1.14289E+03 -1.31012E+04 -7.37067E+03 -5.73052E+03 -1.34272E+04 -9.38719E+02 -9.52269E+03
  1.19115E+04 -4.73308E+03  3.29117E+03  4.73567E+02  3.45610E+03  1.39750E+03 -9.64684E+03 -4.63048E+03
 -4.32170E+03 -7.24971E+03 -1.33505E+03 -1.05477E+04  9.02591E+03 -1.12498E+04  1.25387E+04 -4.64528E+03
  1.35885E+04  2.55615E+03  1.17599E+04  1.05445E+04  1.65191E+03  9.23115E+03 -8.87358E+03  8.10439E+03
 -8.28570E+03  2.80346E+03 -5.65840E+03 -5.81564E+03  2.83977E+03 -5.95412E+03  4.54816E+03  3.14716E+02
  2.39814E+03  5.12372E+03  2.59965E+03  4.37825E+03 -3.31027E+03  4.58498E+03 -4.77256E+03  1.87715E+03
 -6.97478E+03 -5.52091E+03  6.83988E+03 -5.76338E+03  5.25716E+03 -6.61182E+02  3.96989E+03  6.13768E+03
  2.65748E+03  4.31043E+03 -4.66429E+03  8.07924E+03 -8.16520E+03  3.34947E+02 -8.70181E+03 -3.12384E+03
 -8.20910E+03 -1.02801E+04 -2.97742E+02 -1.23618E+04  1.45130E+04 -7.23006E+03  8.94337E+03 -3.93717E+02
  1.07946E+04  6.32030E+03 -2.26802E+03  1.37829E+04 -5.01330E+03  5.02523E+03 -4.10935E+03  1.27840E+02
 -6.54520E+03 -8.07103E+03 -6.60013E+01 -4.85142E+03  4.45433E+03 -8.86149E+03  5.57483E+03 -3.24439E+03
  4.50841E+03  1.36765E+03  1.27708E+03 -1.42057E+02  1.84234E+03 -3.58558E+03  1.53780E+02 -1.59804E+03
  6.48944E+03 -5.85510E+02  8.56392E+03  1.97016E+01  8.83979E+03  2.40397E+03  6.77459E+03  5.41355E+03
 -5.67253E+03  1.12271E+04 -1.17468E+04  6.66330E+03 -1.40561E+04  1.60672E+03 -8.66009E+03 -3.25699E+03
 -6.38064E+03 -9.01448E+03  1.10361E+03 -7.34288E+03  3.04130E+03 -1.99399E+03  1.02796E+03 -4.95822E+03
  5.54722E+03  5.48831E+02  2.21356E+03 -3.80649E+03  5.67026E+03 -1.56217E+03  3.07859E+03  1.38944E+03
  3.17160E+03  2.44159E+03 -1.75179E+03  5.45993E+03 -1.36376E+03  6.40894E+03 -6.08873E+03  8.25970E+03
 -7.14656E+03  1.13045E+03 -1.31337E+03 -5.65128E+03 -1.37230E+03 -6.86811E+03  5.44617E+03 -4.09915E+03
  1.15219E+04 -4.15802E+03  9.44218E+03 -2.68484E+03  2.47979E+03  3.99506E+03  3.12090E+02  6.19777E+03
 -2.40675E+03  1.28618E+04 -8.70878E+03  1.25954E+03 -1.90998E+02 -3.37879E+03  1.22160E+03 -3.99198E+03
  2.08071E+03 -9.66547E+02 -7.18184E+02  6.23304E+03 -4.75040E+02 -7.38329E+02 -5.18060E+03  3.10868E+03
 -5.40873E+03 -2.57511E+03  1.50907E+03 -3.75509E+03 -5.31861E+02 -2.07650E+03  7.30761E+03 -1.05299E+03
  7.00459E+03  5.78883E+03  2.29248E+03  3.64978E+03 -4.81455E+02  3.88523E+03 -4.78624E+03  5.77831E+03
 -7.53702E+03 -1.73842E+02 -8.13239E+03 -4.49338E+03 -1.51066E+03 -3.09683E+03  5.30421E+03 -4.97735E+03
  5.09064E+03 -4.15904E+03  4.90466E+03 -5.76070E+03 -2.51129E+03  2.01222E+03 -1.91283E+03  2.88862E+03
  6.30553E+01  4.25942E+03  2.08167E+03  4.45289E+03  1.49466E+03  3.16886E+03  3.81044E+03  2.31405E+03
 -8.50896E+02  4.61203E+03 -3.40593E+02  5.00130E+03 -5.28800E+03 -2.35895E+03 -5.77384E+03  2.07609E+03
  1.17145E+03 -6.45498E+03 -9.89002E+02 -9.00315E+03  4.69073E+03 -4.06082E+03  4.03752E+03  7.59094E+01
  7.25538E+03  2.34917E+03  1.06008E+03  7.63629E+03 -3.38925E+03 -1.84058E+03 -7.15394E+03 -2.21532E+03
  4.18768E+03 -2.64610E+02  3.63374E+03 -5.60956E+03  6.51083E+03 -6.22544E+03 -2.08404E+02  1.70835E+02
 -1.73443E+03 -1.12939E+03  5.74892E+03 -2.33032E+03 -2.42325E+02 -8.44115E+02  7.50907E+02  6.17980E+02
 -1.24856E+03 -5.59003E+02  1.06323E+03  6.35122E+02 -8.05465E+02  5.42229E+03  1.63515E+03  1.44432E+03
 -3.72936E+03  3.94068E+03 -6.59403E+00 -5.47549E+03 -1.46468E+03 -5.79135E+02  2.48864E+03  7.28709E+02
  2.91555E+03 -3.01439E+03  6.55813E+03 -3.91304E+03 -6.79814E+02  3.72235E+03  2.68778E+03  3.85073E+03
  2.44320E+03  2.45690E+03 -1.60381E+03  7.24172E+02 -4.04970E+03 -1.74082E+03 -2.26061E+03 -3.44111E+03
  3.44842E+03  1.38607E+03  1.45316E+03 -4.10363E+02 -5.20108E+02  4.50731E+03  3.12610E+01  2.95710E+03
  1.75585E+02 -1.08866E+03  2.44901E+02  1.40857E+03  4.83583E+02 -4.90478E+03  4.56695E+03  6.16461E+02
  1.96670E+02  1.26914E+03  4.19333E+03 -4.42188E+02  1.53260E+03  1.63729E+03 -3.92528E+02  6.85742E+03
 -3.18166E+03  1.12983E+03 -9.89833E+02  3.12037E+03 -1.08915E+03 -1.65475E+03  9.19419E+01  2.72893E+03
  3.38558E+03 -3.24616E+03  1.50317E+03  2.71654E+03 -5.69049E+03  1.01915E+03  1.55054E+03 -8.74559E+02
  3.54379E+02 -1.27374E+03  3.78730E+02  4.56592E+02 -3.10146E+02  8.02916E+02 -9.87046E+02  1.29662E+03
  1.85641E+03 -3.49139E+03 -6.01971E+03 -3.99417E+03 -1.05479E+03 -7.27176E+02 -3.56889E+03  5.64057E+02
 -4.23050E+03 -2.90674E+03  3.03468E+03 -8.55641E+03  4.70486E+03 -5.92107E+03  5.29476E+03  2.59414E+02
  1.48593E+03  3.22313E+02  3.15282E+03  6.17921E+03 -1.60368E+03  1.14261E+03 -1.50319E+03 -5.11750E+02
 -5.69795E+03  4.75415E+03 -1.00090E+03  1.20511E+03  1.47850E+03  1.68632E+03 -2.08058E+03  2.20109E+03
  7.73522E+02  2.10190E+03  2.04520E+03 -3.26058E+03 -2.09963E+03  1.98846E+03  4.39318E+03 -3.98766E+03
  1.11371E+03 -5.71502E+02 -1.84080E+03  5.21912E+03  3.27903E+03 -2.19167E+03  5.36323E+02 -3.36248E+03
  6.21759E+02  5.44092E+03 -1.48948E+03  1.01159E+03 -3.41696E+03 -5.79956E+01  2.24225E+03 -1.98718E+02
 -3.01243E+03 -2.39643E+03 -3.51391E+03 -6.81476E+03 -2.43814E+03  2.50180E+03  4.76620E+03 -4.32644E+03
 -4.03530E+03 -1.48522E+03 -2.62396E+03  1.50953E+03  1.85159E+02 -2.71912E+03 -4.13877E+03 -2.55184E+03
  1.84183E+03  5.60771E+03  1.15338E+03  6.92266E+02  1.52234E+03  2.93600E+02 -1.32178E+02 -6.93693E+02
 -5.74349E+03  2.49118E+03 -6.72197E+03 -1.37673E+03 -3.42236E+03  1.45616E+03  1.92397E+03 -3.51249E+02
  3.14885E+02 -1.95169E+03  1.79108E+03  1.73322E+03 -2.70719E+03  9.62972E+02  2.36720E+03 -7.81604E+02
  2.59780E+03  1.89780E+03  3.46986E+03  7.83612E+03  1.66433E+03  1.38884E+03 -2.25765E+03  1.70511E+03
 -5.79353E+03  2.91964E+03 -1.27130E+03 -1.88088E+03 -5.55213E+03  1.16032E+03 -3.95892E+03  1.90662E+03
  1.88284E+03  6.64594E+02 -2.98003E+03 -7.01197E+02  1.94207E+03  1.28870E+02  4.69804E+02  7.10220E+02
  3.32479E+03 -7.41149E+02 -9.72823E+01  1.31459E+03  2.20909E+03  1.99626E+03 -4.19651E+03 -1.44034E+03
