 $NMID ID='MM_0lb_SNR50_16hz_g60_13.RAW', FMTDAT='(8E13.5)'
 TRAMP=1., VOLUME=1. $END
  3.11011E+05  2.46606E+03  3.37077E+05  2.51014E+05  8.73200E+04  3.34732E+05 -1.32601E+05  2.56963E+05
 -1.86207E+05  8.62607E+04 -1.06033E+05 -3.14301E+04 -1.40987E+03 -5.20805E+04  5.68621E+04  3.55251E+03
  3.56234E+04  4.93117E+04 -1.72029E+04  8.00091E+04 -6.20308E+04  6.69783E+04 -8.73258E+04  3.81960E+04
 -8.71078E+04 -1.15036E+04 -5.91608E+04 -5.17174E+04 -1.60091E+04 -6.79923E+04  2.69213E+04 -5.11264E+04
  4.31166E+04  1.19012E+03  1.67551E+04  5.02825E+04 -2.74423E+04  4.82599E+04 -6.57463E+04  8.82304E+02
 -5.30137E+04 -5.77820E+04 -6.71432E+03 -8.08899E+04  3.63386E+04 -5.79158E+04  4.81785E+04 -1.79921E+04
  4.30609E+04  8.10434E+03  3.04757E+04  2.08248E+04  1.74067E+04  3.15401E+04 -8.11974E+03  2.50135E+04
 -2.08507E+04  1.55731E+04 -2.06874E+04 -4.45163E+03  4.39217E+03 -1.09151E+04  2.64884E+04  1.34126E+04
  5.66639E+03  3.49291E+04 -3.14203E+04  3.76987E+04 -6.05371E+04  1.08319E+03 -5.49223E+04 -4.12413E+04
 -1.85418E+04 -5.80859E+04  3.61231E+04 -4.48004E+04  5.97555E+04 -3.59251E+03  3.41567E+04  3.41285E+04
 -7.55237E+03  3.60944E+04 -2.56906E+04  2.14080E+04 -3.01240E+04 -2.83099E+03 -1.84534E+04 -1.16708E+04
 -9.18717E+03 -1.21268E+04  2.75362E+03 -1.60755E+04  7.19026E+03 -2.60484E+04  1.67056E+04 -1.80576E+04
  1.09828E+04  6.73198E+03 -1.04010E+04  1.25780E+04 -1.79319E+04 -4.27671E+03 -4.64080E+03 -3.07117E+04
  2.54770E+04 -4.24083E+04  4.72002E+04 -1.74409E+04  4.57640E+04  1.94367E+04  1.25244E+04  4.43046E+04
 -1.67556E+04  3.18843E+04 -2.49126E+04  1.77101E+03 -1.00548E+04 -2.97311E+04  2.34817E+04 -3.86386E+04
  3.76462E+04 -9.73316E+03  3.32592E+04  2.34507E+04  1.77382E+04  5.02366E+04 -8.85864E+03  5.40366E+04
 -3.03609E+04  3.36590E+04 -3.92731E+04  6.52715E+03 -4.33672E+04 -1.70487E+04 -2.69693E+04 -4.00426E+04
  1.12160E+04 -3.79719E+04  3.57888E+04 -1.35404E+04  3.14990E+04  1.47403E+04  1.17016E+03  2.02474E+04
 -1.17465E+04  3.07140E+03 -9.79897E+03 -8.19197E+03  1.35551E+04 -1.03167E+04  1.61093E+04  3.89602E+03
  1.19460E+04  2.69332E+04 -3.17017E+03  2.68328E+04 -2.44811E+04  9.18322E+03 -2.49280E+04 -3.62300E+03
 -2.08107E+04 -1.59834E+04 -7.53399E+03 -2.32515E+04  3.93598E+03 -1.64117E+04  1.59296E+04 -1.90886E+04
  2.72666E+04 -1.05263E+04  3.65010E+04  5.06095E+03  2.54531E+04  2.04879E+04  8.73489E+03  3.63987E+04
 -1.74515E+04  3.22787E+04 -2.30990E+04  1.20032E+04 -2.16073E+04 -1.19036E+04 -2.05416E+03 -1.72646E+04
  2.42137E+02 -8.56286E+02 -5.64460E+03  6.28826E+03 -1.07197E+04  4.75889E+03 -1.47323E+04 -9.01993E+03
 -1.05624E+04 -1.38019E+04  4.91958E+03 -2.13668E+04  1.12721E+04 -1.97283E+04  2.04188E+04 -2.39405E+02
  8.49382E+03  1.65125E+04 -4.27560E+03  2.02624E+04 -1.40032E+04  1.13128E+04 -2.20371E+04 -2.18648E+03
 -1.29803E+04 -1.86381E+04 -3.48407E+03 -2.08007E+04  9.72934E+03 -1.41015E+04  1.47860E+04 -1.53390E+04
  1.47971E+04 -3.00889E+02  1.45467E+04  2.85657E+03  5.94208E+03  1.57911E+03  1.02427E+04 -5.16600E+03
  1.42916E+04  1.77716E+03  2.13845E+04  1.65150E+04  1.06558E+04  2.75385E+04 -6.95160E+03  3.65027E+04
 -2.35765E+04  2.88574E+04 -3.50108E+04  1.43412E+04 -3.15367E+04 -7.32927E+03 -3.27113E+04 -1.65390E+04
 -1.36327E+04 -2.82617E+04  1.03721E+04 -2.57440E+04  1.81230E+04 -1.17986E+04  2.06072E+04  5.58501E+03
  5.96419E+03  1.26427E+04 -1.35255E+04  6.80716E+03 -1.77335E+04  1.46815E+03 -1.16429E+04 -1.35154E+04
 -1.27744E+03 -1.55816E+04  9.20817E+03 -9.04559E+03  9.45575E+03  2.64987E+03  1.36219E+03  7.14150E+03
 -6.89424E+03  3.18963E+03 -7.63048E+03 -4.39049E+03  3.07432E+02 -9.46606E+03  1.23679E+04 -8.47217E+03
  1.72340E+04 -1.26491E+04  1.69840E+04  1.20051E+03  1.29606E+04  1.58502E+04  3.71112E+03  1.86618E+04
 -5.27336E+03  1.94342E+04 -1.32765E+04  1.51126E+04 -1.81531E+04  1.71099E+03 -7.28066E+03 -3.74219E+03
 -3.83451E+03 -2.10043E+02  4.42355E+02  6.80414E+02  4.10526E+02  2.96104E+02 -5.86486E+03  4.55221E+03
 -8.63390E+03  2.27653E+03 -1.23299E+04 -1.22332E+04 -7.34726E+03 -1.95617E+04  1.27028E+03 -1.32270E+04
  2.13675E+03 -4.28570E+03  6.58451E+03  3.44833E+03  1.66052E+03  6.83317E+03 -3.35316E+03 -1.83221E+03
  2.93860E+02 -5.36463E+03  1.86291E+03 -9.57150E+03  8.90598E+03 -1.08230E+04  1.50352E+04 -4.85255E+03
  1.85950E+04 -4.62118E+02  1.09126E+04  7.13891E+03  2.52893E+03  1.07215E+04 -1.17979E+04  7.75409E+03
 -4.96468E+03  1.11828E+03 -4.99619E+03 -5.63912E+03 -2.03296E+03 -3.76146E+03  7.33359E+03  1.10337E+03
  6.43384E+03  4.77538E+03  1.60423E+03  3.37978E+03 -4.43146E+03  9.82523E+03 -1.48717E+04  6.09807E+02
 -2.50356E+03 -3.94204E+03  9.81183E+02 -8.05300E+03  3.16758E+03 -7.75983E+03  1.95328E+03  5.12489E+03
 -1.08924E+02  4.55608E+03 -1.23044E+04  3.39540E+03 -8.61884E+03  4.60088E+03 -6.92045E+03 -3.54899E+03
 -2.16523E+03 -1.25391E+04  1.10757E+03 -1.15692E+04  6.91190E+03 -2.40097E+03  1.24500E+04  5.12113E+03
  8.13264E+03  1.05313E+04 -1.88050E+03  7.27474E+03 -6.16425E+03  4.81245E+03 -4.72648E+03 -1.30179E+02
 -7.97910E+03 -5.61811E+03 -5.70144E+03 -8.25651E+03  2.12994E+03 -6.61141E+03  1.06783E+03 -3.44293E+03
 -5.11488E+02  4.92881E+03 -2.73408E+03  9.06103E+02  4.91078E+02 -7.09759E+02  3.27351E+03 -4.82400E+01
  5.85018E+03 -1.91364E+03  8.29715E+03 -7.66502E+02  1.44038E+02  5.52859E+03  1.01198E+04  1.35230E+04
  2.26970E+02  1.21585E+04 -8.22866E+03  1.13603E+04 -1.25226E+04  7.69895E+02 -1.17449E+04 -4.28811E+03
 -8.07949E+03 -8.03990E+03 -9.30791E+02 -7.29807E+03  1.53237E+03 -1.54453E+03  1.67092E+03 -3.78376E+03
  7.48463E+03 -6.82442E+03  2.82628E+03 -1.10247E+03  7.53386E+03 -5.17883E+03  5.31042E+03  4.69630E+03
  7.67901E+03  3.00209E+03  3.88243E+03  2.58590E+03 -2.38684E+03  5.54019E+03 -7.79090E+03  3.83551E+03
 -2.08382E+03 -4.43948E+03  1.75497E+03 -7.48674E+03  3.95528E+03 -9.45294E+03  1.99299E+03 -7.31221E+03
  7.70530E+03 -4.23958E+03  1.40216E+04 -5.37411E+02  7.18238E+03  6.77675E+03  5.62800E+02  1.08393E+04
 -2.46652E+03  6.63586E+03 -7.19435E+03  1.78176E+03 -1.42571E+02  9.73978E+02 -2.95159E+02  1.30392E+03
 -1.80032E+02  1.76633E+03 -1.40600E+03 -2.65208E+02 -3.00576E+03 -1.26254E+03 -1.18373E+04  2.24449E+03
 -6.26962E+03 -7.00065E+03  7.30487E+02 -5.76590E+03  1.28544E+03 -6.28526E+03  3.86784E+03 -2.27422E+03
  5.51536E+03  7.00810E+03  1.69332E+03  1.81327E+03 -3.59896E+03  3.87557E+03 -5.69978E+03  1.76213E+03
 -7.60544E+03 -5.94877E+02 -5.97363E+03 -8.01436E+03  2.03146E+03 -2.44467E+03  2.58226E+03 -5.25557E+03
  3.69595E+03 -1.95234E+02 -2.48465E+03 -6.89049E+02 -5.41334E+03  5.59516E+03 -8.12603E+02  1.91988E+03
 -4.57613E+03 -1.78533E+02 -5.41519E+02 -1.03817E+03  2.55471E+03 -5.93915E+02  2.21907E+03  5.37863E+03
  1.09622E+02  4.73412E+03 -1.27047E+03  9.57806E+03 -6.00169E+03  2.23897E+03 -5.09627E+03  1.43458E+03
 -1.42391E+03 -6.83684E+03 -3.10944E+03 -1.21159E+04 -5.07516E+01 -6.48224E+03  6.49611E+03 -2.41628E+03
  5.35031E+03  4.14433E+03  6.07696E+02  7.75262E+03  1.38514E+03 -3.39796E+02  1.22964E+03 -1.36354E+03
  2.50043E+03 -7.46350E+03  3.22958E+03 -8.00503E+02  1.29550E+03 -4.68578E+03  1.72132E+03 -4.61071E+03
  3.03974E+03 -2.40683E+03  1.67622E+03  2.39493E+03  2.72459E+03  1.94706E+03  1.25505E+03 -2.48447E+03
  2.76442E+01 -1.12899E+03  3.57287E+03  2.63423E+03 -8.63559E+02  4.22516E+03 -1.00535E+03  8.71347E+03
 -8.32373E+03  1.19053E+02 -9.11647E+02  2.31869E+03 -2.98985E+03 -2.54745E+03 -2.25120E+02  3.95807E+03
  1.93657E+03 -2.58524E+03 -4.63143E+02 -4.03060E+03  3.09365E+03  3.85945E+03  4.38833E+03  2.65608E+03
 -1.88783E+03 -9.75167E+02 -2.71315E+03 -3.52409E+03  1.57144E+02  9.89076E+02 -4.91100E+03 -4.95137E+03
  2.88460E+03 -2.90724E+03  4.46377E+03 -1.89619E+03  4.54042E+03  7.83014E+02 -2.64459E+03  7.75034E+03
 -2.31972E+02  1.34113E+03 -3.11404E+02  1.41094E+02  2.66116E+03 -1.00151E+03  5.01658E+03  3.43371E+02
 -1.62299E+03  5.86704E+02  5.79260E+03  3.79715E+03  9.41818E+02  6.02573E+03  2.43194E+02  5.06458E+03
 -4.17527E+03  9.10427E+03 -4.00952E+03  1.29463E+03  2.75573E+03 -5.48813E+02  8.22871E+02 -2.60663E+03
  1.04137E+03 -6.43180E+02 -2.41840E+03  7.42731E+03 -2.94907E+03  4.05238E+02  1.06655E+03  1.88850E+03
  3.02741E+03 -1.18980E+02  6.35986E+03  5.50395E+02  2.92927E+02  1.67714E+03 -1.36913E+03 -3.43779E+03
  4.45521E+03  6.53284E+03 -2.24430E+03  2.82515E+03 -1.97890E+03 -4.13582E+03  1.22680E+03 -5.12813E+02
 -3.28959E+03 -4.89825E+03  4.59587E+02 -6.92043E+03  1.58978E+03 -4.41229E+03  4.97850E+03 -1.81475E+03
 -1.74197E+02 -1.71366E+03  2.90139E+03  4.91137E+02  4.03371E+03  3.61355E+03  1.08822E+03 -1.05724E+03
 -1.11033E+03 -4.15624E+03  2.99592E+03  3.44880E+03  4.90952E+02  2.20345E+03 -1.05371E+03 -4.12240E+03
  4.78168E+03  7.93769E+02 -7.19198E+02  3.43070E+03  1.10235E+03 -1.14312E+03  1.31282E+03 -2.54449E+03
  1.85525E+03  3.21472E+03  4.74739E+02  1.25683E+03 -4.13251E+03  6.07384E+03  1.10821E+03  3.53990E+03
  1.16676E+03  1.58053E+03 -1.50959E+03  5.12261E+03 -1.52091E+03  1.36243E+03 -4.30233E+03 -3.62398E+03
 -3.41790E+02 -6.10462E+03 -9.54112E+02 -3.59605E+03  7.53160E+03 -4.65882E+03 -4.45580E+02 -2.22232E+03
 -8.02539E+02  1.58532E+03 -4.06930E+03 -3.49819E+03  9.13469E+02  5.46674E+03  5.64208E+02  1.59820E+03
  2.81546E+03 -5.29524E+03  1.51884E+03  1.22224E+02  1.42381E+03  1.67165E+03 -7.43875E+02  2.28230E+03
  1.75560E+03 -2.10634E+03 -1.66038E+03 -1.95139E+03 -5.39304E+02  2.26286E+03  3.46495E+02 -1.58646E+03
  9.22032E+03 -1.95959E+03  4.19261E+02  4.52730E+02  9.73167E+02 -3.15230E+03  3.35550E+03 -1.93640E+03
  9.37527E+02  2.88526E+02 -2.70554E+03  7.85099E+02 -1.75590E+03 -1.88926E+03 -3.74136E+03 -4.60939E+03
  2.31989E+03  5.90647E+03 -2.86813E+03 -1.81310E+03 -1.78164E+03 -1.13919E+03 -1.92519E+03 -4.49097E+03
 -3.42835E+03  2.24084E+03 -1.93423E+03 -2.95164E+03  5.98557E+03 -2.45867E+03  5.25004E+02 -9.41037E+02
  1.34319E+03 -2.53168E+03  4.14392E+03  6.25704E+02 -1.19399E+02 -1.64085E+02 -4.60504E+03  3.45848E+02
