 $NMID ID='MM_0lb_SNR50_18hz_g60_24.RAW', FMTDAT='(8E13.5)'
 TRAMP=1., VOLUME=1. $END
  3.11090E+05 -4.33973E+02  3.35611E+05  2.49735E+05  8.35878E+04  3.36368E+05 -1.31373E+05  2.48799E+05
 -1.86578E+05  8.44927E+04 -1.14716E+05 -3.25902E+04  1.90543E+03 -5.39137E+04  4.98405E+04 -2.36495E+03
  3.67950E+04  5.38686E+04 -1.57245E+04  7.30552E+04 -6.28720E+04  6.30996E+04 -8.53671E+04  3.23136E+04
 -7.93802E+04 -9.39915E+03 -6.00843E+04 -4.80427E+04 -1.44920E+04 -6.89654E+04  2.75636E+04 -4.55376E+04
  3.88416E+04  3.70062E+03  1.42588E+04  4.57900E+04 -3.39532E+04  5.03614E+04 -6.66825E+04  2.47018E+03
 -5.51662E+04 -5.86794E+04 -5.95024E+03 -7.60610E+04  3.43782E+04 -5.60619E+04  4.84450E+04 -2.15861E+04
  4.22257E+04  9.14009E+03  3.02982E+04  2.49527E+04  1.64200E+04  2.34215E+04 -9.02584E+03  2.46847E+04
 -2.25265E+04  1.53191E+04 -1.92542E+04 -4.78401E+03  5.35682E+03 -5.22653E+03  2.03161E+04  1.75786E+04
  4.43633E+03  3.88523E+04 -3.25575E+04  3.52340E+04 -6.43431E+04  4.03159E+03 -5.37358E+04 -4.45636E+04
 -1.64328E+04 -6.39932E+04  3.82416E+04 -4.62869E+04  5.77093E+04 -8.66801E+02  3.28662E+04  3.34618E+04
 -5.39583E+03  3.74828E+04 -2.68819E+04  1.38921E+04 -2.71751E+04 -4.19114E+03 -1.68006E+04 -1.79851E+04
 -1.27275E+04 -1.38911E+04 -3.55037E+03 -1.75205E+04  9.43625E+03 -2.63145E+04  1.09862E+04 -1.50234E+04
  6.22497E+03  3.19203E+03 -7.91019E+03  6.66118E+03 -1.84090E+04 -7.08847E+02 -1.09588E+04 -3.51470E+04
  1.96476E+04 -4.58414E+04  4.81662E+04 -2.10925E+04  5.14379E+04  1.69490E+04  1.53516E+04  4.22892E+04
 -1.70336E+04  3.02241E+04 -2.22282E+04  4.13078E+03 -1.05697E+04 -2.66459E+04  1.92213E+04 -3.00869E+04
  4.66651E+04 -9.23718E+03  3.30432E+04  2.11361E+04  1.82747E+04  4.65743E+04 -1.10911E+04  4.78306E+04
 -3.08865E+04  3.48475E+04 -3.89549E+04  7.66290E+03 -4.41560E+04 -1.34976E+04 -2.25406E+04 -3.61601E+04
  1.08066E+04 -3.33450E+04  3.07485E+04 -1.19014E+04  2.35537E+04  9.50421E+03  7.79255E+03  1.53935E+04
 -1.42069E+04  6.26430E+03 -9.68359E+03 -2.68960E+03  8.38959E+03 -9.45020E+03  2.13341E+04  3.24942E+03
  1.52930E+04  2.10197E+04 -3.09734E+03  2.19952E+04 -2.05939E+04  1.18945E+04 -2.38373E+04 -4.76578E+03
 -1.99619E+04 -1.44772E+04 -7.74425E+03 -1.43640E+04  5.08036E+03 -2.07003E+04  1.19787E+04 -2.14450E+04
  2.89564E+04 -1.19335E+04  2.80401E+04  6.47436E+03  2.33808E+04  1.63068E+04 -1.38675E+02  3.52312E+04
 -1.51378E+04  2.92321E+04 -2.48444E+04  1.03055E+04 -2.39249E+04 -8.56712E+03 -1.00634E+03 -1.64059E+04
  4.11310E+03 -7.38588E+02 -3.71913E+03  6.12507E+03 -1.69761E+04  7.54856E+03 -1.60282E+04 -6.04834E+03
 -8.45297E+03 -1.70841E+04  2.49062E+03 -2.17444E+04  1.70810E+04 -1.51032E+04  1.42547E+04  2.52083E+02
  1.38932E+04  1.37461E+04  3.16873E+03  1.82403E+04 -1.42811E+04  9.40972E+03 -1.64428E+04 -5.56183E+03
 -1.18327E+04 -1.82943E+04  4.54342E+02 -2.07362E+04  8.73301E+03 -1.55391E+04  1.87297E+04 -4.87463E+03
  1.86017E+04 -1.55688E+03  1.00505E+04  5.49434E+03  5.00835E+03  8.61242E+01  9.79509E+03  5.82093E+02
  1.72770E+04  2.64356E+02  1.57248E+04  1.48377E+04  1.33486E+04  2.76905E+04  1.44447E+03  3.32549E+04
 -1.57057E+04  2.35235E+04 -2.75984E+04  1.15469E+04 -2.63930E+04 -1.98312E+02 -2.33995E+04 -1.67637E+04
 -8.38748E+03 -2.00687E+04  5.59464E+03 -2.08626E+04  2.00578E+04 -1.05041E+04  1.30627E+04  5.94409E+03
  9.33127E+03  1.25178E+04 -1.13699E+04  1.05117E+04 -1.33130E+04  3.10245E+03 -1.35905E+04 -1.26818E+04
  2.44121E+03 -1.76913E+04  3.57111E+03 -1.52151E+04  8.74717E+03 -1.30911E+03  2.48587E+03  2.98154E+03
 -4.37667E+03 -2.15276E+03 -7.59273E+03 -9.43992E+02 -3.21755E+03 -1.09375E+04  4.96272E+03 -1.16626E+04
  1.26619E+04 -5.09260E+03  1.28403E+04  4.96144E+03  1.12756E+04  1.34456E+04  9.29829E+03  1.83774E+04
 -3.53994E+03  1.81231E+04 -1.13768E+04  8.28887E+03 -1.36916E+04  3.25729E+03 -9.09822E+03 -8.31724E+03
 -3.80436E+03 -6.29473E+03 -4.22005E+03  2.01359E+03 -4.63886E+03  1.36388E+03 -3.72011E+03  7.25851E+03
 -9.84757E+03 -7.08322E+02 -1.26667E+04 -1.12108E+04 -7.44819E+03 -1.26421E+04  6.13672E+03 -8.37331E+03
  1.08306E+04 -3.53881E+03  8.92540E+03  4.23669E+03  1.09577E+03  6.20078E+03 -6.01078E+03 -2.12870E+03
 -6.60290E+03 -5.97853E+03  1.12594E+03 -9.22128E+03  6.28674E+03 -8.88506E+03  1.16980E+04  3.77650E+02
  1.38374E+04 -2.72935E+03  1.24849E+04  4.79341E+03  3.65264E+03  1.04403E+04 -8.91888E+03  9.11021E+03
 -7.83240E+03  7.55233E+03 -6.07194E+03  5.05056E+03  2.60410E+03 -3.03366E+03  2.88618E+02  2.43375E+03
  6.63511E+03  6.66040E+03  2.45684E+03  4.99956E+03 -1.59931E+03  4.81009E+03 -6.06388E+03 -1.61356E+03
 -6.19171E+03 -5.26438E+03 -8.39389E+02 -6.34761E+03  3.99634E+03 -4.01799E+03  5.02403E+03 -6.89775E+02
  2.67337E+03  1.88765E+03 -3.59722E+03  1.17973E+03 -5.77393E+03  4.04111E+03 -2.48454E+03  1.55323E+02
 -5.77044E+03 -7.18056E+03 -3.51371E+03 -1.13474E+04  5.53540E+03 -1.16660E+04  7.72351E+03  2.46714E+03
  3.88414E+03  8.37541E+03  3.34377E+03  1.00184E+04 -5.91705E+03  7.09954E+03 -5.27796E+03  3.46892E+02
 -1.01116E+04 -7.33403E+03 -5.43737E+03  8.85855E+02  3.60119E+03 -6.20090E+03  1.90689E+03  1.42627E+02
  3.38517E+03 -1.34176E+03  8.73710E+02 -1.53989E+03 -2.37258E+03 -2.26217E+03  4.70550E+02 -5.22610E+03
  3.15579E+03 -4.17724E+02  5.86062E+03  6.99888E+03  4.13258E+03  2.58648E+03  8.26916E+03  5.76583E+03
 -2.83135E+03  9.97719E+03 -7.52328E+03  6.14485E+03 -1.27502E+04 -2.72942E+03 -1.07815E+04 -3.47265E+03
 -6.65696E+03 -8.97730E+03  6.74151E+02 -3.60764E+03  4.47778E+03 -4.93233E+03  5.46084E+02 -2.24762E+03
  4.13675E+03  1.01867E+02  7.01471E+03 -3.61849E+03  3.96069E+03  3.13402E+03  3.69164E+03 -3.37260E+03
  7.24198E+03  2.91496E+03 -1.50382E+03  4.05270E+03 -9.94905E+02  5.12424E+03 -7.10871E+03  3.91918E+03
 -6.37339E+03 -1.57519E+03 -3.64687E+03  1.23073E+03 -2.19860E+03 -7.86431E+03  3.31379E+03 -6.98771E+03
  9.66536E+03 -3.54952E+03  1.03842E+04 -4.70278E+01  5.23248E+03  5.22994E+03  5.16917E+02  5.22502E+03
 -3.37646E+02  4.37424E+03 -5.00940E+03  1.69678E+01 -2.64679E+03  3.47991E+03 -3.27888E+03  8.59541E+02
  1.81225E+03  2.45394E+03  8.53217E+01  5.91099E+02 -4.08885E+03  4.43957E+03 -5.03094E+03  4.30554E+03
 -1.27113E+03 -2.62787E+03 -3.11839E+03 -7.29919E+03  2.94394E+03 -4.62581E+03  2.75449E+03  3.28350E+02
  5.62597E+03  6.42539E+03  3.96837E+03  1.60937E+03 -1.21309E+02  3.34570E+03 -3.07849E+03  2.30422E+03
 -5.44682E+03  4.55604E+03 -3.89057E+03 -5.00570E+03 -1.17744E+03 -6.87337E+03 -2.05269E+03 -3.19672E+03
  4.31981E+03 -1.72008E+03  4.26444E+03  4.32974E+03 -1.56963E+03  5.36702E+03  1.82662E+03  1.61568E+03
  3.93836E+03 -1.73153E+03  3.73358E+03  2.22032E+03  4.02399E+03  4.24673E+03 -2.66129E+03  4.34803E+03
 -2.15380E+03  3.81087E+03 -2.03040E+03  4.57160E+03 -5.13748E+03  1.72948E+03 -7.57742E+03 -3.49055E+03
 -5.21478E+03 -2.16240E+03  3.76530E+03 -1.03420E+04  3.61882E+03 -5.53785E+03  5.33637E+03 -2.74682E+03
  1.31332E+03  1.63198E+03  3.20464E+03  2.59121E+03  1.88652E+03  5.17270E+03 -2.79086E+03  2.81543E+03
  1.95634E+03  1.03450E+03 -5.85653E+02 -2.57320E+03  5.98232E+02 -2.82280E+03  5.06190E+03 -1.08376E+03
 -3.60681E+03  4.59442E+02  2.38674E+03 -1.16754E+03  2.43441E+02  1.13286E+03  1.29829E+03 -2.11508E+03
  2.78849E+03 -3.59022E+03  1.52552E+03 -3.24241E+03 -2.00054E+03  7.69258E+02 -1.09497E+03  2.36843E+03
 -3.67783E+03 -1.85366E+03  3.47506E+03 -3.63603E+03 -5.00038E+03 -1.91559E+03  2.84759E+03 -2.37092E+03
  3.68349E+03 -1.66796E+03 -1.91564E+02 -2.58437E+03  2.94138E+03  2.46471E+03  1.47147E+03  6.02255E+03
 -2.17957E+02  3.45966E+03  4.88410E+02 -4.23390E+02  3.07498E+03  7.45464E+02  4.33555E+03  1.25457E+03
  1.24338E+02  3.65721E+03  1.16232E+03 -6.54509E+02  2.27291E+03  1.78862E+03 -3.29566E+03  3.92201E+03
 -8.42366E+03 -1.92947E+03 -2.39826E+03 -1.31185E+03  3.12967E+03  1.93044E+03  2.07508E+03 -1.69815E+03
  1.86114E+03 -1.61648E+02  2.73902E+03  1.89192E+02 -3.02029E+03  6.04088E+02 -5.53492E+03 -1.58667E+03
 -2.67414E+03 -2.64402E+03 -1.29188E+03  1.95378E+03  2.74962E+03  9.01826E+02  1.10302E+03 -2.13917E+03
  3.62780E+03  1.35477E+03  3.61050E+03  2.14704E+03  4.17478E+03  1.86758E+03 -4.55990E+03 -1.12343E+03
 -7.19900E+02  1.70204E+03  4.64297E+02  6.00979E+03  3.18674E+03 -4.45224E+02 -3.62317E+03 -1.70796E+02
 -1.38930E+03  3.65232E+02 -2.84989E+03  9.78011E+02 -3.80927E+03 -2.41708E+03 -8.57706E+03 -3.45325E+03
 -1.51096E+03 -1.25781E+03 -3.61898E+03 -7.59954E+03 -3.06660E+02 -2.70140E+03  7.00293E+03 -9.50144E+01
 -5.15354E+02 -1.26581E+02  4.45247E+03  3.99119E+03 -2.95497E+03  1.35468E+03 -2.27240E+03  4.92190E+03
 -1.64982E+03  8.84836E+02  2.65414E+03  1.65476E+03  3.03787E+02 -4.18477E+03  1.00185E+03  7.24620E+02
 -1.43945E+03 -4.43991E+03 -2.52728E+03  6.42834E+02  3.87410E+01  4.89844E+03  3.15194E+03 -2.79258E+03
 -1.57976E+03  4.68870E+03  7.10164E+02 -1.28716E+03  6.90019E+02 -1.47545E+03  4.36842E+03 -1.26429E+02
 -2.81822E+03  4.78059E+03  1.21912E+03  2.23177E+03 -3.21371E+03  2.58151E+03 -1.43538E+03  4.95843E+02
 -2.05019E+03 -1.01462E+03  6.70435E+02 -3.02064E+03  2.55115E+03 -5.79697E+03  7.06038E+02 -1.92291E+02
 -6.86271E+02 -2.81224E+03 -1.64579E+03  1.30253E+03 -2.64857E+03 -1.58513E+03  3.34393E+03  2.02303E+03
 -1.98851E+03  1.56631E+03  2.33707E+02  2.69143E+03  2.81296E+03 -4.27353E+02  3.50019E+03  1.98899E+03
  1.94465E+03 -3.35328E+03 -8.51041E+02  9.89359E+02  2.12644E+03  1.20968E+03 -2.18303E+03 -1.08899E+03
  2.77316E+03 -4.34352E+03 -3.50043E+03  2.56455E+03  1.26231E+03 -4.11103E+03  6.88223E+02  3.67699E+03
  1.52125E+03 -1.25682E+03  2.77821E+03  5.26703E+03 -3.56581E+03  1.58168E+03 -2.85029E+02  2.21071E+03
 -3.39443E+03  4.49085E+02 -4.67289E+03 -3.88878E+03 -1.08323E+03 -3.11372E+03 -8.52266E+02 -1.74713E+03
 -2.47085E+03 -8.89489E+02  1.43851E+03  1.74723E+03 -3.43077E+02 -6.41468E+03 -3.91372E+03  4.26161E+03
 -1.03240E+03 -7.57802E+02 -4.21245E+03  2.08804E+03  5.12349E+02 -4.43470E+03  4.90192E+03  1.78873E+03
