 $NMID ID='MM_0lb_SNR50_15hz_g40_26.RAW', FMTDAT='(8E13.5)'
 TRAMP=1., VOLUME=1. $END
  3.09509E+05  1.30568E+03  3.38933E+05  2.51513E+05  8.87285E+04  3.38310E+05 -1.33905E+05  2.52214E+05
 -1.92299E+05  8.44685E+04 -1.12104E+05 -3.21814E+04 -1.00855E+03 -5.27522E+04  5.31750E+04  3.21961E+03
  3.77962E+04  5.75122E+04 -1.61822E+04  7.59292E+04 -5.66627E+04  6.61893E+04 -8.26649E+04  3.20958E+04
 -8.40549E+04 -1.17111E+04 -5.64691E+04 -5.51744E+04 -1.48496E+04 -6.80335E+04  2.64813E+04 -4.89680E+04
  4.01358E+04  6.22679E+03  1.80059E+04  4.48358E+04 -3.52166E+04  4.81637E+04 -6.60393E+04  4.52061E+03
 -5.19966E+04 -5.66034E+04 -4.58555E+03 -7.53533E+04  3.16343E+04 -5.48265E+04  4.89210E+04 -1.86213E+04
  4.30156E+04  7.63511E+03  3.30136E+04  2.16587E+04  1.96155E+04  2.75691E+04 -3.40465E+03  2.38669E+04
 -2.12496E+04  1.17866E+04 -1.97630E+04 -1.99508E+03  5.01378E+03 -9.06839E+03  1.87011E+04  1.46675E+04
  4.24993E+03  3.25374E+04 -2.89145E+04  3.66331E+04 -5.91314E+04  4.88894E+01 -5.96523E+04 -4.42681E+04
 -6.81597E+03 -6.30531E+04  3.64059E+04 -4.50622E+04  5.68677E+04 -3.56832E+03  3.51727E+04  3.32366E+04
 -9.38901E+03  3.77496E+04 -2.98951E+04  1.08963E+04 -2.46109E+04 -3.99226E+03 -1.71948E+04 -4.82898E+03
 -6.36421E+03 -1.45431E+04 -1.31722E+03 -2.11039E+04  6.59255E+03 -2.21930E+04  2.31627E+04 -1.02792E+04
  1.12040E+04  9.05482E+03 -9.91317E+03  1.30071E+04 -2.16515E+04 -5.52591E+03 -6.47600E+03 -3.46357E+04
  2.81342E+04 -3.96761E+04  4.86643E+04 -2.04755E+04  4.46675E+04  1.71296E+04  1.44990E+04  3.91174E+04
 -1.41421E+04  3.10636E+04 -1.89057E+04  4.48780E+03 -8.08825E+03 -2.35402E+04  2.27743E+04 -3.09610E+04
  3.83040E+04 -1.79240E+04  3.24061E+04  2.80336E+04  1.71211E+04  4.17837E+04 -8.61905E+03  4.76082E+04
 -3.22274E+04  3.46849E+04 -4.21674E+04  7.44831E+03 -3.72691E+04 -1.91628E+04 -2.25845E+04 -3.78366E+04
  8.88568E+03 -3.61702E+04  3.01346E+04 -1.43611E+04  2.80130E+04  1.30953E+04  3.64912E+03  2.04036E+04
 -1.13535E+04  8.09749E+03 -1.66562E+04 -9.45344E+03  4.44577E+03 -5.98852E+03  1.71603E+04  1.21364E+04
  1.29896E+04  2.20300E+04 -7.40246E+03  2.48537E+04 -2.36122E+04  9.48777E+03 -2.43953E+04 -3.20893E+03
 -1.76329E+04 -1.43308E+04 -1.37061E+04 -1.87583E+04  1.88291E+03 -1.72189E+04  1.25457E+04 -1.47937E+04
  2.86100E+04 -1.34740E+04  2.89716E+04  7.24447E+02  2.11739E+04  1.98756E+04  5.61889E+03  3.47367E+04
 -1.88678E+04  2.73005E+04 -2.60025E+04  1.27510E+04 -2.07126E+04 -6.11490E+03 -7.09534E+03 -1.25000E+04
  3.05979E+03  2.47853E+03 -6.18188E+02  1.03466E+03 -1.25338E+04  8.44460E+03 -1.58510E+04 -6.29258E+03
 -8.06735E+03 -1.60445E+04  4.57849E+03 -2.29496E+04  1.09592E+04 -1.67973E+04  1.54554E+04 -2.76974E+03
  5.66698E+03  1.02327E+04 -1.89280E+03  1.37993E+04 -1.04511E+04  8.40928E+03 -2.11407E+04 -2.57326E+03
 -9.51977E+03 -1.66891E+04 -1.73520E+03 -1.88881E+04  1.35245E+04 -1.51196E+04  2.29182E+04 -8.25430E+03
  1.38092E+04  2.26561E+03  1.45398E+04  3.21808E+03  3.01062E+03 -2.00949E+03  8.86295E+03 -4.41155E+03
  1.62363E+04 -4.14476E+01  1.77728E+04  6.12204E+03  1.17726E+04  2.75658E+04 -8.80608E+02  2.96961E+04
 -2.45464E+04  2.50514E+04 -2.44527E+04  1.44760E+04 -2.92761E+04 -8.79327E+02 -2.37322E+04 -1.56526E+04
 -1.20832E+04 -2.35303E+04  5.46577E+03 -1.78428E+04  1.79982E+04 -1.22318E+04  1.92022E+04  4.92176E+02
  6.20296E+03  1.12366E+04 -6.66562E+03  1.35283E+04 -1.59594E+04  3.97856E+03 -1.11171E+04 -1.06956E+04
 -1.59889E+03 -1.38797E+04  8.55008E+03 -1.34545E+04  8.79207E+03 -4.02841E+03 -9.48587E+02 -2.81755E+02
 -6.85987E+03  3.09902E+02 -4.03418E+03 -5.01472E+03  4.94651E+03 -8.80968E+03  1.06602E+04 -1.38523E+04
  1.80510E+04 -8.90169E+03  1.84525E+04  3.62936E+03  1.35072E+04  1.43945E+04  2.70516E+03  2.03923E+04
 -3.64156E+03  2.50136E+04 -1.43126E+04  1.29080E+04 -1.56331E+04 -2.11452E+02 -9.52404E+03 -6.08428E+03
 -6.36483E+03 -1.05797E+04 -5.71091E+03  1.98713E+03 -2.81984E+03 -3.91377E+03 -4.29648E+03  6.30432E+03
 -1.27206E+04  4.60148E+03 -6.01847E+03 -8.64383E+03 -3.67892E+02 -1.48308E+04  3.08681E+03 -8.97524E+03
  1.44095E+04 -4.85155E+03  6.68013E+03  1.82867E+03 -8.33873E+01  8.53652E+02 -1.03952E+04 -1.00275E+03
 -4.43871E+03 -9.80169E+03 -3.48147E+03 -6.55714E+03  7.15786E+03 -7.84412E+03  1.24959E+04 -3.62225E+03
  1.15721E+04  1.15691E+03  1.41042E+04  1.01572E+04 -4.45721E+02  1.25447E+04 -6.40429E+03  8.13426E+03
 -4.16081E+03  2.97522E+03 -5.43309E+03 -1.31952E+03  1.61684E+03 -6.16057E+03  3.44527E+03 -4.42224E+03
  2.48702E+03  5.52857E+03 -1.41170E+03  1.46928E+03 -4.39651E+03  8.93542E+03 -8.52601E+03  3.31663E+03
 -7.14909E+03 -2.60742E+03 -2.98354E+03 -8.29734E+03  9.83482E+03 -7.46638E+03  8.48130E+03  1.08700E+03
  2.43881E+03  4.11474E+03 -7.98359E+03  7.75731E+03 -4.59471E+03  1.45560E+03 -4.87413E+03 -2.98610E+03
 -3.00485E+03 -9.93688E+03 -3.68142E+02 -1.05334E+04  1.12048E+04 -7.78452E+03  7.22339E+03  1.74002E+03
  5.75263E+03  9.99682E+03 -3.19808E+03  9.61567E+03 -6.32791E+03  5.73362E+03 -8.39179E+03  1.47805E+03
 -7.15318E+03 -4.49189E+03 -4.58362E+03 -2.73928E+03 -2.22809E+02 -1.08204E+04  5.70347E+03  5.22244E+01
  5.15252E+02 -1.08539E+03 -2.88078E+02  2.54539E+03 -5.68634E+03 -2.23625E+03  6.67944E+02 -6.26318E+03
  3.65354E+03 -2.27154E+03  8.15951E+03 -5.53193E+02  6.57126E+03  6.94863E+03  8.83334E+03  9.77560E+03
 -1.88999E+03  7.12968E+03 -8.21546E+03  5.33424E+03 -1.21930E+04 -1.95701E+03 -5.29067E+03  1.73723E+02
 -4.09061E+03 -1.06005E+04 -7.65265E+02 -6.27647E+03  1.53881E+03 -2.94998E+03  5.12867E+03  6.56956E+02
  4.83769E+03 -1.83201E+03  7.29369E+03 -2.34993E+03  6.88330E+03 -2.64701E+03  3.80248E+03 -1.68445E+03
  8.59747E+03 -2.72153E+03  3.63856E+03  3.49739E+03  2.46264E+03  3.54222E+02 -1.03052E+04  1.94874E+03
 -6.25935E+03 -1.71806E+03 -3.52027E+03 -7.84809E+03  1.18046E+01 -7.21840E+03 -5.57089E+01 -2.17677E+03
  4.99093E+03 -4.19901E+03  1.17635E+04 -1.12984E+03  9.20064E+03  3.01231E+03 -1.60593E+02  1.03817E+04
 -2.48248E+03  6.30261E+03 -9.39449E+03  3.75497E+03 -3.72278E+02  7.73823E+02  1.04338E+03  2.00264E+03
  9.51246E+02  3.64433E+03  2.45122E+03  5.13886E+03 -3.23277E+01  1.63415E+03 -3.58084E+03  8.17958E+02
 -5.55819E+02 -6.30399E+03  1.00983E+03 -5.23939E+03  3.09668E+03 -6.57776E+03  2.10455E+03 -2.20304E+03
  6.43440E+03  1.14433E+03  7.30347E+03  8.68958E+03  2.79196E+01  7.57087E+03 -1.54588E+03  7.92897E+03
 -9.52400E+03 -6.03386E+02 -1.00219E+04 -6.02773E+03  1.23086E+03 -4.37381E+03  3.31900E+03 -8.57397E+03
  5.71938E+03 -2.69301E+03  2.18645E+03  2.90722E+02  2.35132E+03  5.81136E+03  5.29922E+03  1.08164E+03
  3.09169E+03 -1.45729E+03  2.33293E+03  4.13055E+03 -6.78674E+02  1.77151E+03  1.83777E+03  4.55236E+03
 -4.36418E+03  5.29934E+03 -6.34001E+03  8.66875E+03 -4.91358E+03 -1.06862E+03 -4.85703E+03 -1.92232E+03
  2.59035E+03 -7.83513E+03  1.17048E+03 -6.68225E+03  7.58032E+03  3.70757E+02  8.07470E+03 -1.90833E+03
  2.33344E+03  2.93770E+03  1.12757E+03  6.31646E+03 -3.35243E+03  3.22570E+03 -2.27248E+03  9.42043E+02
  6.06686E+02 -5.46114E+03  2.43317E+03 -1.40765E+03  2.65488E+03 -2.25088E+03  1.83754E+03 -2.94675E+03
  3.96193E+03  1.80764E+03  3.95561E+03 -4.67796E+02 -2.04887E+03  1.28598E+03 -2.12050E+03 -2.85130E+02
  3.16092E+03 -8.51856E+02 -1.45743E+03  7.10696E+03  3.11846E+03  1.52693E+03  1.37456E+03  5.55804E+03
 -5.35980E+03 -4.46518E+03  7.54645E+02  2.08968E+02 -1.26775E+03  1.63986E+03 -1.55025E+02 -6.43588E+03
  3.03980E+03 -2.58122E+03  2.01283E+03 -2.82130E+01  2.10445E+03 -1.74221E+03 -1.78503E+02 -4.44339E+03
 -2.58002E+03  3.38216E+03 -3.46761E+03 -1.65389E+03 -5.08726E+03 -6.04769E+03  4.08331E+03 -2.32532E+03
 -2.71192E+03 -3.81628E+03  9.43875E+03 -1.14028E+03  2.74566E+03  2.10186E+03  2.37768E+03 -2.28271E+03
  8.90702E+02  4.98379E+02 -5.76519E+02 -1.18884E+03  3.73674E+03  1.28744E+03  3.73847E+03 -1.29062E+03
 -7.81977E+02  4.10780E+02  3.15607E+03  3.66820E+03  1.61005E+03  5.66031E+03  3.58827E+03  6.28276E+03
 -4.08322E+03 -2.73885E+03 -1.81040E+02 -3.60075E+03 -1.09065E+03 -3.03099E+03  4.57449E+03 -1.17987E+03
  4.07649E+03 -3.17556E+03 -3.35589E+03 -6.30397E+03  9.35613E+02  2.67436E+03  2.95481E+03  2.21170E+03
 -2.00385E+03  3.87921E+03 -7.51740E+02  2.63847E+03  1.85686E+03  7.28850E+02 -1.99318E+03  3.69623E+03
 -6.94360E+02  5.88697E+02  1.00600E+03 -6.34029E+01 -4.35522E+03  2.77141E+03 -8.05345E+03 -1.93142E+03
 -2.68499E+03 -5.74920E+03  2.26148E+03 -2.58057E+03 -3.13412E+03 -4.32381E+03  4.44313E+03  2.75638E+02
  7.14414E+03  2.50720E+03  4.51997E+03  2.10357E+03 -1.30692E+03  3.13646E+03 -2.61105E+03  9.55512E+02
 -4.44738E+02  1.10691E+03  1.44205E+03 -7.25428E+02  2.95082E+03 -2.42007E+03  1.10825E+03  5.03639E+03
  3.00654E+02  5.16488E+02 -2.24242E+03 -1.15354E+03  5.92841E+02  2.86359E+03  3.17598E+03  1.54104E+03
  1.35271E+03 -3.29609E+03  6.65132E+03  1.21542E+03  4.62828E+03  3.15634E+03 -4.20262E+02  4.20294E+03
 -4.98159E+03  5.94940E+03 -1.35445E+03  3.80540E+03  3.03124E+02  3.15728E+03 -3.97700E+03  1.05859E+02
 -1.85014E+03 -1.51047E+03 -9.21189E+02 -3.03100E+03 -4.64147E+02 -7.30940E+03  4.38505E+03 -9.97219E+02
  4.63556E+03  2.22694E+02  7.33678E+02  4.95731E+03  8.85660E+02 -5.67896E+02  7.57616E+02  1.77359E+03
  4.00900E+02 -3.36392E+03  1.81301E+03  1.08644E+03  1.99467E+03  2.34579E+03  4.34163E+03  5.50169E+03
  6.53402E+02  6.16804E+02  5.40183E+02  9.80856E+02 -2.89098E+03 -2.11642E+03 -6.75988E+02 -5.58385E+03
  1.56699E+03 -1.26771E+03  4.62159E+03  7.48082E+02 -1.03630E+03 -7.24883E+01  5.69886E+03  9.19797E+01
  2.16575E+03  1.84610E+03 -9.75337E+02 -3.14446E+02 -1.09783E+03  5.30527E+03 -1.68493E+03  4.60796E+03
 -1.83942E+03 -6.44814E+03  8.87089E+02  1.91660E+01 -3.17979E+03 -6.33540E+02 -2.24688E+03 -1.26420E+03
 -3.24618E+03 -1.19455E+03 -3.05748E+03 -1.04463E+03 -2.20290E+03 -1.57730E+03  1.15279E+03 -1.49366E+03
  1.00003E+03 -3.04963E+03  2.75057E+02 -1.83488E+03  7.97209E+02  5.07138E+03  2.61879E+03  8.42590E+02
