 $NMID ID='MM_0lb_SNR50_7hz_g60_62.RAW', FMTDAT='(8E13.5)'
 TRAMP=1., VOLUME=1. $END
  3.09398E+05 -6.89346E+03  3.40169E+05  2.54180E+05  8.86095E+04  3.41493E+05 -1.34892E+05  2.47070E+05
 -1.91686E+05  8.45779E+04 -1.09972E+05 -3.22177E+04 -5.24786E+03 -5.72564E+04  5.73228E+04  5.61155E+03
  3.84507E+04  6.02447E+04 -9.52725E+03  7.42784E+04 -5.35837E+04  6.96198E+04 -9.46629E+04  2.50305E+04
 -7.87237E+04 -1.51421E+04 -6.36963E+04 -5.51531E+04 -1.27320E+04 -6.95924E+04  3.20313E+04 -5.02911E+04
  4.29581E+04  1.06086E+02  2.74086E+04  5.18662E+04 -3.34944E+04  4.70426E+04 -6.56087E+04  4.06036E+03
 -5.50243E+04 -5.80657E+04 -5.33016E+03 -8.66284E+04  4.08588E+04 -6.12885E+04  4.68221E+04 -1.05499E+04
  4.39173E+04  1.56098E+04  3.36505E+04  3.22974E+04  2.31797E+04  3.59518E+04 -3.14691E+03  2.91931E+04
 -2.36947E+04  1.22186E+04 -1.33973E+04 -7.70853E+03  7.38497E+03 -8.28234E+03  2.06532E+04  1.48477E+04
  4.18135E+03  4.23124E+04 -2.91089E+04  3.42162E+04 -6.63770E+04  2.31151E+02 -5.69150E+04 -4.47173E+04
 -1.65589E+04 -7.21614E+04  3.97038E+04 -4.55153E+04  7.15715E+04 -5.36167E+03  3.78316E+04  3.13582E+04
 -8.05365E+03  3.65383E+04 -2.36420E+04  1.85329E+04 -2.95549E+04 -1.85783E+03 -2.49748E+04 -1.42825E+04
 -1.12659E+04 -2.05671E+04 -4.97210E+03 -2.44137E+04  2.32336E+03 -2.63164E+04  1.98144E+04 -1.23420E+04
  5.86967E+03  8.59350E+03 -1.00273E+04  1.40114E+04 -2.28855E+04  3.88009E+03 -8.33066E+03 -3.75300E+04
  3.25460E+04 -5.37446E+04  5.87104E+04 -1.84104E+04  5.34256E+04  1.96614E+04  1.42489E+04  5.00864E+04
 -1.72071E+04  3.30637E+04 -2.76381E+04  6.36313E+02 -1.12741E+04 -2.99750E+04  2.26107E+04 -4.71100E+04
  4.94159E+04 -1.61326E+04  3.83450E+04  1.39086E+04  2.33258E+04  5.15201E+04 -2.82690E+03  6.17944E+04
 -3.79829E+04  4.70052E+04 -5.68158E+04  1.24076E+04 -4.49047E+04 -2.15450E+04 -2.99511E+04 -4.51153E+04
  8.95742E+03 -4.48533E+04  3.49259E+04 -1.65131E+04  3.91994E+04  1.25550E+04  7.58713E+03  2.66962E+04
 -8.22797E+03  9.99015E+03 -1.10658E+04  2.59177E+02  7.62456E+01 -3.74185E+03  2.39820E+04  1.83999E+03
  1.23185E+04  2.62319E+04  2.74119E+03  3.43464E+04 -2.67704E+04  1.86630E+04 -3.02396E+04 -2.40129E+02
 -3.87710E+04 -2.28711E+04 -2.31904E+04 -2.85361E+04  1.75368E+04 -3.10276E+04  2.92615E+04 -2.04318E+04
  2.98543E+04 -7.98960E+03  4.84748E+04  1.09665E+04  3.06602E+04  2.76977E+04  2.92831E+03  3.89937E+04
 -1.95659E+04  3.34285E+04 -3.42802E+04  1.65679E+04 -2.38448E+04 -1.26845E+04 -3.17831E+03 -5.16153E+03
  1.38715E+03 -1.15044E+03 -1.49120E+04  1.67527E+04 -3.03781E+04 -2.39496E+03 -1.90156E+04 -3.36934E+03
 -1.33765E+04 -3.17543E+04  3.31355E+03 -3.52114E+04  2.46971E+04 -3.01583E+04  2.36986E+04 -1.29348E+03
  1.77970E+04  1.92588E+04 -2.78904E+02  3.12568E+04 -1.62216E+04  1.77446E+04 -2.87889E+04 -2.95130E+03
 -1.52820E+04 -2.66598E+04 -8.58827E+03 -3.07363E+04  1.52726E+04 -3.53482E+04  2.66948E+04 -1.10981E+04
  2.12990E+04 -6.18983E+02  1.44820E+04  4.67610E+03  1.24134E+04  4.35973E+03  2.31718E+04  2.52757E+03
  2.66092E+04  1.62086E+02  2.80744E+04  2.33100E+04  2.23025E+04  4.40226E+04  4.36721E+03  5.15400E+04
 -3.14903E+04  4.53031E+04 -4.65680E+04  2.32788E+04 -5.48846E+04 -3.92996E+03 -4.87803E+04 -2.68634E+04
 -2.16874E+04 -3.78588E+04  1.50317E+04 -4.19446E+04  3.82177E+04 -7.31077E+03  2.70193E+04  5.78783E+03
  4.32023E+03  1.81837E+04 -1.65106E+04  2.33130E+04 -2.21213E+04  5.22046E+02 -2.01395E+04 -1.38822E+04
 -5.48828E+03 -2.49038E+04  9.74998E+03 -1.55762E+04  1.96927E+04  1.66046E+02  2.51866E+03  8.78574E+03
 -5.41950E+03  4.21870E+03 -1.08157E+04 -5.28510E+03 -4.25933E+03 -1.29469E+04  1.36442E+04 -2.54248E+04
  2.21406E+04 -1.20208E+04  2.87375E+04  4.97966E+03  2.78205E+04  2.45686E+04  1.46650E+04  4.33596E+04
 -5.62349E+03  3.78623E+04 -2.09050E+04  2.97585E+04 -2.16044E+04  5.30986E+03 -1.55854E+04 -8.12005E+03
 -4.99432E+03 -7.58869E+03 -7.20165E+02 -2.58886E+02 -7.26202E+03  2.39199E+03 -6.62903E+03  4.42570E+03
 -2.06748E+04  6.22417E+03 -1.19468E+04 -1.37326E+04 -3.79154E+03 -2.44244E+04  1.02830E+04 -1.21460E+04
  1.71448E+04 -1.12873E+04  9.17451E+03  6.74954E+03 -8.15443E+03  5.21859E+03 -9.62903E+03 -4.64997E+03
 -7.09430E+03 -1.30699E+04 -6.77518E+03 -2.68723E+04  8.28021E+03 -1.98771E+04  3.30816E+04 -1.42291E+04
  2.39940E+04  5.02196E+03  1.55652E+04  2.46874E+04  4.06188E+03  3.07333E+04 -1.84241E+04  1.48437E+04
 -1.37821E+04  2.82004E+03 -7.93509E+03  1.33462E+03  6.10123E+03 -4.43453E+03  9.52142E+03 -2.92902E+03
  1.15719E+04  1.34933E+04 -3.03528E+03  1.47488E+04 -1.36690E+04  1.47508E+04 -2.20506E+04  7.94503E+03
 -1.41909E+04 -6.47812E+03 -1.99369E+03 -1.69622E+04  1.58505E+04 -5.14865E+03  6.84603E+03 -3.16744E+03
 -2.63482E+03  2.61181E+03 -1.50682E+04  6.56772E+03 -1.03101E+04  6.67495E+03 -1.48592E+04 -7.15977E+03
 -1.34359E+04 -2.48253E+04  7.84841E+03 -1.90285E+04  1.80163E+04 -1.46247E+04  2.03524E+04  3.90145E+03
  1.51021E+04  2.19046E+04 -5.03286E+03  1.82248E+04 -1.28494E+04  1.70146E+04 -1.42597E+04 -2.52202E+03
 -1.03352E+04 -7.40618E+03 -2.43423E+03 -2.29025E+04  9.19558E+03 -1.14600E+04  8.88293E+03 -4.93374E+03
  8.88131E+03  4.63062E+03  4.59668E+03  2.62281E+03  4.73820E+02 -1.48413E+03  9.98131E+03 -1.32875E+04
  1.19257E+04 -4.22555E+03  1.76390E+04  2.12311E+03  1.88367E+04  1.95632E+04  4.76274E+03  2.42955E+04
 -9.18609E+03  3.65381E+04 -2.93699E+04  2.23372E+04 -4.10520E+04  7.62306E+03 -2.22287E+04 -9.31625E+03
 -9.49888E+03 -2.28833E+04 -2.37609E+03 -2.25516E+04  5.14248E+03 -9.40493E+03  4.92055E+03 -6.22201E+03
  1.37420E+04 -4.16445E+03  9.24620E+03  4.80042E+03  9.14102E+03 -2.77825E+03  7.17027E+03 -4.49562E+03
  1.25019E+04  3.68915E+03  1.88994E+03  1.47090E+04 -9.07745E+03  1.28957E+04 -1.47540E+04  1.47502E+04
 -2.65723E+04 -3.56819E+01 -5.33794E+03 -1.62454E+04  8.67469E+02 -2.26041E+04  1.05146E+04 -1.56239E+04
  2.33115E+04 -6.06944E+03  2.26517E+04  5.63392E+03  1.81585E+04  1.89963E+04  1.33945E+04  2.28357E+04
 -9.93531E+03  1.13459E+04 -9.85097E+03  8.62828E+03 -8.91264E+03 -3.49039E+03 -2.58375E+03  3.27972E+02
  4.33419E+03 -7.65803E+02 -1.09157E+04  2.70591E+03 -4.77619E+02  1.54457E+04 -1.60644E+04  2.87428E+03
 -1.01599E+04 -1.08096E+04  4.11870E+03 -2.89930E+04  1.57519E+04 -2.03785E+04  2.08699E+04 -5.13398E+03
  2.17434E+04  8.22406E+03  1.67401E+04  1.60801E+04 -6.96810E+03  1.20119E+04 -1.59966E+04  9.48830E+03
 -1.84962E+04 -8.26024E+03 -1.73189E+04 -1.80214E+04  7.74160E+03 -2.11146E+04  2.67896E+03 -1.37914E+04
  1.37004E+04 -1.18949E+04  6.75832E+03  2.52565E+03  7.41324E+03  1.26614E+04 -2.35771E+03  7.10668E+03
  4.80943E+03  4.16968E+03 -1.22160E+03  9.60476E+02  1.16253E+04  1.10001E+04  3.91667E+03  1.51241E+04
 -6.01971E+03  2.27993E+04 -1.39632E+04  1.09680E+04 -2.55863E+04  1.61544E+03 -2.53787E+04 -8.24490E+03
 -1.01383E+04 -2.42925E+04  2.28498E+03 -1.83940E+04  1.33397E+04 -1.79603E+04  1.91619E+04 -5.86082E+03
  8.61210E+03 -1.11900E+03  2.31396E+03  9.63876E+03 -1.31875E+04  8.17989E+03 -1.37512E+04  5.27974E+02
  8.61552E+02 -2.14849E+04 -4.41077E+03 -1.04004E+04  1.39045E+04  1.53991E+03  4.93419E+03  6.53680E+03
 -2.89497E+03  6.34392E+03  4.44025E+03  5.00097E+03  3.11029E+03  1.20525E+04  7.26939E+02 -4.78586E+03
  1.98805E+03  3.47741E+03  1.43644E+04 -2.56837E+03  2.56108E+03  1.68313E+04 -6.27825E+02  1.15704E+04
 -4.57670E+03  1.83366E+04 -1.25758E+04  7.44191E+03 -7.85675E+03 -7.68012E+03 -6.89437E+03 -1.39199E+04
 -7.00298E+02 -1.07078E+04  2.17429E+03 -9.23230E+03  2.00605E+03  6.39507E+03 -2.05302E+03  6.50465E+03
 -6.02713E+03  1.74077E+03 -7.62420E+03 -5.88041E+03 -2.17823E+03 -1.51579E+04  6.71799E+03 -1.24964E+04
  4.12112E+03 -3.03007E+03  7.29686E+03 -7.43093E+03  3.96018E+03  2.45168E+03  5.49857E+03  9.04372E+03
  8.10497E+03  6.67041E+03 -5.01805E+03 -3.01666E+03 -5.11715E+03 -2.03411E+04  7.84459E+03 -5.79864E+03
  8.91740E+03  2.48362E+03  1.50619E+04  4.94660E+03  2.19569E+02  1.71650E+04 -3.33139E+03  2.03649E+04
 -1.38062E+04  2.69239E+03 -3.60797E+03  1.31541E+03 -5.01667E+03 -4.96735E+02 -9.90873E+03 -9.12309E+03
  1.40472E+04 -4.82591E+03  8.34011E+03  8.02930E+03  6.16920E+03  9.15120E+03  1.52908E+03  3.35015E+03
  1.42775E+02  3.31197E+03  8.95699E+02 -2.68993E+01 -5.50032E+03  2.96076E+03 -2.11975E+03 -4.80223E+02
 -1.24416E+04  6.79337E+03 -9.47642E+03  1.30072E+03 -1.36393E+04 -2.87005E+03 -1.63132E+04 -1.32062E+04
 -6.74723E+03 -2.32317E+04  2.17173E+03 -1.49732E+04  1.95868E+04 -2.25554E+04  2.31850E+04 -5.94157E+03
  1.57754E+04 -6.77357E+03  1.96578E+04  6.72886E+03  2.22411E+03  1.44262E+04 -6.35823E+03  9.58909E+03
 -9.32048E+03  1.19152E+04 -5.51911E+03 -3.57311E+03 -7.91409E+03 -4.08580E+03 -3.73977E+03 -2.93372E+03
  1.34751E+02 -3.25934E+03  4.76930E+02  8.94186E+03 -1.19980E+04 -5.25383E+03 -4.52307E+03 -2.24268E+03
  6.67414E+03 -1.11918E+04  1.07731E+04 -7.97408E+03  1.28957E+04  4.46944E+03 -4.14352E+03  1.81608E+04
 -1.62560E+04  2.06607E+04 -1.66460E+04  3.72053E+03 -2.40636E+04  1.14651E+02 -2.49061E+04 -1.39871E+04
 -1.05723E+04 -2.44064E+04  1.14483E+03 -1.93174E+04  6.93058E+03 -1.21609E+04  6.81265E+03  4.24539E+03
  7.80597E+03  8.49765E+03 -3.64621E+03  1.53275E+03  6.57865E+00  4.06684E+03 -1.31709E+03 -1.00731E+04
  7.94219E+03 -2.12399E+03  1.65131E+03 -6.58181E+03  6.06829E+03  6.69198E+03 -7.47915E+02  1.01928E+04
 -9.48853E+03  5.61019E+03 -1.73714E+04  2.30199E+03 -8.49354E+03 -8.16530E+03 -2.70389E+03 -2.19888E+04
  6.99500E+03 -8.39104E+03  1.14458E+04 -5.34897E+03  1.31397E+04  1.12016E+03  5.48448E+03  1.09404E+04
  5.06403E+03  1.66325E+04 -6.88290E+03  4.59730E+03 -8.60830E+03  4.97685E+03 -9.56296E+03  7.07173E+03
 -2.65243E+03  3.85864E+03  1.17612E+03 -3.84232E+03 -5.52759E+03  3.25955E+03 -1.90611E+04 -1.13689E+04
 -8.16052E+03  2.54354E+02  6.07366E+03 -1.11077E+04  2.88517E+03 -1.51250E+04  9.20855E+03 -1.98739E+03
  9.31767E+03  2.10900E+03  1.02512E+04  1.08656E+04  8.44790E+03  1.68086E+04  1.28463E+03  7.64698E+03
