 $NMID ID='MM_0lb_SNR50_7hz_g45_24.RAW', FMTDAT='(8E13.5)'
 TRAMP=1., VOLUME=1. $END
  3.15804E+05 -4.12432E+03  3.35323E+05  2.53240E+05  8.81224E+04  3.30383E+05 -1.36900E+05  2.52377E+05
 -1.91909E+05  8.39832E+04 -1.10258E+05 -3.21035E+04 -3.22305E+03 -4.91553E+04  5.27697E+04 -3.47170E+03
  3.16089E+04  5.57133E+04 -2.74115E+04  7.75609E+04 -5.43912E+04  6.87256E+04 -9.19260E+04  3.43138E+04
 -8.43093E+04 -9.19444E+03 -6.09638E+04 -4.53052E+04 -1.65017E+04 -6.74951E+04  3.20373E+04 -4.44825E+04
  4.56672E+04  3.57525E+03  1.40527E+04  4.51322E+04 -3.15820E+04  4.78252E+04 -6.42227E+04 -2.56910E+03
 -5.61442E+04 -4.95028E+04 -7.62743E+03 -8.37869E+04  2.72941E+04 -4.86469E+04  5.10395E+04 -1.78207E+04
  5.11760E+04  1.52540E+04  4.18636E+04  3.11416E+04  1.80701E+04  3.00376E+04  4.30484E+03  2.93137E+04
 -2.81328E+04  1.63996E+04 -1.70488E+04 -4.59145E+03  6.18875E+03 -7.85965E+03  3.01652E+04  1.21096E+04
  1.61986E+04  3.88634E+04 -3.32549E+04  3.87165E+04 -7.26817E+04 -2.61783E+02 -5.78339E+04 -4.39226E+04
 -8.90827E+03 -6.48066E+04  4.75776E+04 -4.74238E+04  6.65065E+04 -2.52430E+03  3.53724E+04  3.59591E+04
 -3.35735E+03  4.55410E+04 -3.18541E+04  2.37158E+04 -2.97208E+04 -5.65733E+03 -2.35062E+04 -1.61611E+04
 -6.75705E+03 -1.79509E+04 -6.40369E+03 -2.20382E+04  4.94638E+03 -1.56672E+04  2.06306E+04 -8.15003E+03
  1.09106E+04  2.19400E+03 -1.41374E+04  1.46243E+04 -2.52619E+04 -1.00607E+04 -5.07227E+03 -4.12540E+04
  2.67227E+04 -4.08380E+04  5.52810E+04 -2.34697E+04  4.61393E+04  3.01949E+04  1.60490E+04  4.85355E+04
 -1.48321E+04  3.63790E+04 -2.96990E+04  4.15054E+03 -1.37646E+04 -3.20643E+04  2.44627E+04 -4.29622E+04
  4.89236E+04 -1.46211E+04  3.98114E+04  3.01020E+04  2.50615E+04  6.19394E+04 -6.56296E+03  5.60135E+04
 -3.53168E+04  3.73547E+04 -5.31891E+04  1.60417E+04 -5.00340E+04 -1.83489E+04 -3.06709E+04 -4.77132E+04
  3.23950E+03 -4.25226E+04  3.70840E+04 -1.83531E+04  2.65287E+04  1.86927E+04 -1.44431E+03  1.92178E+04
 -1.94593E+04  5.53747E+03 -1.00208E+04 -5.42050E+03  6.14099E+03 -1.11979E+04  1.94412E+04  3.52340E+03
  1.67115E+04  2.28833E+04 -9.63052E+03  3.03770E+04 -2.05781E+04  1.18695E+04 -2.72253E+04 -7.27179E+03
 -2.57581E+04 -1.93600E+04 -7.89807E+03 -2.80161E+04  6.67344E+03 -2.94434E+04  1.98093E+04 -2.39298E+04
  3.46351E+04 -1.93176E+04  4.17393E+04  1.31568E+03  2.80195E+04  2.66143E+04  1.53156E+03  4.69668E+04
 -1.90419E+04  3.97877E+04 -2.99896E+04  1.05682E+04 -2.31317E+04 -4.15032E+03 -6.69121E+03 -1.42701E+04
  2.92733E+03  2.95240E+03 -1.08016E+04  1.54042E+04 -2.18931E+04  5.75042E+03 -1.81767E+04 -1.64341E+04
 -7.25158E+03 -2.59387E+04  6.29503E+03 -3.85846E+04  1.57708E+04 -1.76108E+04  2.91589E+04 -1.56534E+03
  1.37982E+04  2.06538E+04 -8.13045E+03  2.47540E+04 -1.84712E+04  1.60351E+04 -2.39490E+04 -4.56011E+03
 -1.84730E+04 -2.35573E+04  4.68292E+03 -2.90938E+04  1.76040E+04 -1.77540E+04  1.90251E+04 -1.80215E+04
  2.47660E+04 -5.43708E+03  2.21206E+04  2.56196E+03  4.35729E+03 -9.59584E+02  1.73874E+04 -1.25927E+04
  2.20413E+04  7.11738E+03  2.65716E+04  2.55717E+04  2.56419E+04  4.56518E+04 -1.47597E+03  4.93543E+04
 -1.85739E+04  4.49193E+04 -4.44450E+04  1.51271E+04 -4.96736E+04 -1.95029E+02 -3.53677E+04 -2.21863E+04
 -1.46258E+04 -3.23582E+04  1.40615E+04 -3.47777E+04  2.25406E+04 -1.79046E+04  2.91156E+04  9.15947E+03
 -5.19729E+03  2.09897E+04 -2.00408E+04  1.91031E+04 -1.85922E+04 -9.87490E+03 -1.70315E+04 -1.08260E+04
  5.56471E+03 -2.58541E+04  9.16337E+03 -1.12074E+04  1.12768E+04  6.87028E+03  2.58038E+03  1.14256E+04
 -1.22045E+02  7.04914E+03 -3.64497E+03 -3.82510E+03 -4.02810E+03 -9.17666E+03  7.91978E+03 -1.92500E+04
  2.65239E+04 -5.26633E+03  2.38442E+04  2.03779E+03  2.26530E+04  1.74367E+04  1.44857E+04  3.54065E+04
 -1.18112E+04  3.31963E+04 -1.93752E+04  1.92539E+04 -2.73015E+04  4.57453E+03 -1.31576E+04  3.06960E+03
 -5.07857E+03 -5.15876E+03  3.94083E+03 -6.15727E+02  4.12233E+02  4.77842E+03 -5.75975E+03  8.69557E+03
 -7.68027E+03 -3.32211E+03 -1.85450E+04 -1.34188E+04 -1.72060E+04 -1.42571E+04  6.99878E+03 -1.33611E+04
  1.46382E+04 -5.42359E+03  8.99225E+03  9.03358E+03 -4.75757E+03  4.71436E+03 -1.02306E+04  1.10757E+03
 -1.26264E+04 -1.55646E+04 -3.61783E+03 -2.17318E+04  1.14305E+04 -1.65355E+04  3.13381E+04 -6.55163E+03
  2.32028E+04 -6.03635E+03  2.23164E+04  1.36769E+04  5.63767E+03  3.17441E+04 -1.19878E+04  1.23013E+04
 -1.58722E+04 -1.19869E+01 -9.31561E+03  1.53656E+03  9.82509E+02 -5.43861E+02  4.25252E+03  4.82632E+03
  5.88980E+03  8.19803E+03  1.92565E+02  1.58796E+04 -9.59760E+03  1.60115E+04 -1.41944E+04  1.37111E+03
 -1.64007E+04 -8.41535E+03  1.59831E+03 -1.11102E+04  1.11092E+04 -5.67004E+03  5.39176E+03  2.96728E+03
 -5.45266E+02  1.15721E+04 -7.55186E+03  1.08300E+04 -1.38413E+04  7.48291E+03 -1.67644E+04 -5.36592E+03
 -1.03458E+04 -2.15224E+04  3.12819E+03 -1.89431E+04  1.92116E+04 -1.52781E+04  1.84818E+04 -4.96777E+03
  7.43522E+03  2.12568E+04  3.40276E+02  1.59361E+04 -1.84619E+04  7.41339E+03 -1.02102E+04 -1.01130E+03
 -1.37298E+04 -1.53347E+04 -5.93154E+03 -1.17610E+04  1.11119E+03 -9.56507E+03  1.27722E+04 -6.18890E+03
  7.20456E+03  2.01629E+03 -1.72431E+03 -1.21427E+03  2.97068E+02  1.70472E+03  3.19064E+03 -1.32128E+04
  1.59945E+04 -1.25075E+04  1.84399E+04  2.33435E+03  2.43353E+04  1.71829E+04  8.46768E+03  2.65477E+04
 -3.67557E+03  2.49452E+04 -1.81482E+04  1.90173E+04 -3.26076E+04  8.96801E+03 -2.09622E+04 -9.68277E+03
 -1.33884E+04 -2.38202E+04 -8.01522E+03 -7.26971E+03  6.19586E+03 -7.94173E+03  8.72178E+03 -4.86492E+03
  7.14543E+03 -1.01191E+04  3.29905E+03 -1.33367E+04  1.27829E+04 -2.75171E+03  7.89540E+03 -9.86793E+03
  1.21634E+04  2.52843E+03  8.52277E+03  8.63796E+03  2.30720E+03  1.84359E+04 -1.69601E+04  4.16167E+03
 -1.50085E+04 -5.98129E+03 -6.95785E+03 -1.72649E+04 -6.01351E+03 -2.20395E+04  6.34467E+03 -1.84679E+04
  1.97572E+04 -7.56605E+03  2.50039E+04  8.58046E+03  1.21886E+04  1.70273E+04 -3.28527E+03  2.60254E+04
 -1.26013E+04  2.53625E+04 -1.12258E+04  1.87372E+03 -1.42937E+04  1.13439E+03 -5.45048E+03 -1.09557E+04
 -1.03869E+04 -1.06567E+04  2.88640E+03  4.53041E+03 -4.36225E+03  5.34973E+03 -1.97909E+04 -1.53035E+03
 -9.85766E+03 -1.13389E+04 -2.42518E+03 -2.31666E+04  8.19775E+03 -1.56922E+04  1.86449E+04 -7.95307E+03
  1.39590E+04  1.21871E+04  1.08980E+04  2.12081E+04  2.99029E+03  1.76262E+04 -2.21178E+04  1.50932E+04
 -1.93213E+04  6.58316E+02 -8.68448E+03 -1.21277E+04 -3.43641E+03 -4.27074E+03  5.74122E+03 -1.23839E+04
  7.29421E+03  1.60845E+03  1.75803E+04  1.84747E+03  1.57389E+03  9.87667E+03  3.33900E+03  5.95986E+03
  7.58124E+03 -2.61840E+03  8.33261E+03 -7.64520E+01  1.04599E+04  8.60013E+03  6.32639E+03  3.43327E+03
 -2.49589E+03  1.92731E+04 -6.26888E+03  1.71053E+04 -1.46692E+04  7.10332E+03 -2.30727E+04  2.17238E+03
 -7.75557E+03 -2.22396E+04  7.79485E+03 -2.31625E+04  1.38936E+04 -1.36841E+04  2.05860E+04 -1.11443E+03
  8.61406E+03  7.26785E+03  4.29251E+03  1.33174E+04 -9.15068E+03  8.29836E+03 -8.98451E+03  2.87272E+03
 -6.57916E+03 -7.40983E+03  3.54564E+03 -6.45359E+03  7.06149E+03 -4.44950E+03 -2.53103E+02  4.95641E+03
  5.99242E+03 -1.87059E+03  5.01027E+03  2.21709E+03  3.44143E+03  2.03989E+03  9.87805E+03 -4.21476E+03
 -1.30956E+03  2.09420E+03  9.87351E+03  7.70580E+03  8.89576E+03  8.45600E+03 -5.55182E+03  9.84012E+03
 -1.44183E+04  7.42725E+03 -1.03681E+04 -2.36270E+03 -8.14617E+03 -7.34130E+03  4.27183E+02 -1.48483E+03
  5.69420E+03 -8.09233E+03  3.51212E+03 -1.14627E+04  5.45728E+03 -1.84658E+03  8.72914E+02  6.37213E+03
 -3.74856E+03 -1.32731E+02 -9.04569E+03 -2.09127E+03 -8.87513E+03 -1.28441E+04  4.08700E+02 -6.89166E+03
  1.15376E+04 -6.71998E+03  1.02840E+04 -6.05207E+03  3.21646E+03  2.93580E+03  2.62714E+03  2.44358E+03
 -3.31828E+02  5.23738E+03 -1.94921E+03 -1.38878E+03  2.90020E+03  3.50948E+02  1.59196E+04 -9.59155E+03
  1.75883E+04 -2.11960E+03  9.10408E+03  6.88712E+03  8.38583E+03  9.08226E+03 -9.24480E+03  8.84188E+03
 -1.33349E+04  6.66670E+03 -1.59097E+04 -1.17471E+03 -5.67461E+03 -6.56316E+03  3.64170E+03 -1.59093E+04
  1.32677E+04  8.18685E+02  5.06677E+03  2.40415E+03  4.81320E+03  7.68463E+03 -2.81932E+03  6.03079E+03
 -6.68544E+03  2.87528E+03 -2.79319E+03  1.23170E+03 -3.87407E+03 -6.78861E+02 -1.35028E+03  2.66288E+03
  5.77220E+02  1.15144E+04 -1.11134E+04 -9.30917E+01 -1.19591E+04  1.22826E+03 -1.52579E+04 -5.29058E+03
 -6.69610E+03 -1.27839E+04  7.76112E+03 -1.02080E+04  1.39067E+04 -2.26441E+04  1.23910E+04 -5.59480E+03
  1.94490E+04 -9.24970E+02  8.71715E+03  1.32845E+04  7.10913E+03  9.24387E+03 -1.65051E+03  6.39790E+03
 -6.28675E+03  6.17438E+03 -8.44918E+03  3.56486E+03 -4.23690E+03 -1.00056E+03 -1.55942E+02 -3.94090E+03
  1.27099E+03 -2.25342E+03  1.13081E+03 -5.21278E+03 -4.63462E+03  1.47179E+03 -3.24017E+01 -2.30798E+03
  6.10265E+03  1.83997E+03  1.73386E+04  3.16606E+03  8.87268E+03  1.68850E+03  1.94478E+03  1.97616E+04
 -4.19323E+03  2.10990E+04 -1.39974E+04  6.01003E+03 -1.85010E+04 -7.00784E+03 -1.24167E+04 -1.19559E+04
 -6.81789E+03 -1.05762E+04 -2.94237E+03 -1.03559E+04  1.43903E+04 -4.81742E+03  3.70826E+03  4.68101E+03
  4.21456E+02  5.79423E+03 -1.17722E+03  9.24498E+03 -8.82274E+02  6.89286E+03 -5.93592E+03 -3.53840E+03
  1.16374E+04  4.54953E+03  6.02524E+03  2.49641E+03  8.20779E+03  6.94354E+03  1.42778E+03  9.25635E+03
 -5.20601E+03  3.56388E+03 -1.01946E+04  2.61497E+03 -1.55722E+04 -5.17102E+03 -3.48263E+03 -1.51707E+04
  5.60297E+03 -1.19772E+04  8.47639E+03 -5.36376E+03  1.15742E+04  4.43762E+03  5.25706E+03  1.00599E+04
 -1.60865E+03  9.39386E+03 -1.24388E+04  2.81282E+03 -5.56300E+03 -1.92720E+03 -4.74440E+03  4.41468E+03
 -5.31051E+03 -1.44313E+03 -1.04005E+03  7.84350E+02 -1.82606E+03  4.90433E+03 -4.24559E+03 -9.87652E+03
 -6.95706E+03 -7.81582E+03 -2.49236E+03 -5.65117E+03  6.90595E+03 -7.00381E+03  4.17661E+03 -1.73118E+03
  1.60330E+04 -7.20599E+01  8.30409E+03  3.44256E+03 -5.02530E+03  6.17704E+03 -9.38399E+03  7.75118E+03
