 $NMID ID='MM_0lb_SNR50_11hz_g55_79.RAW', FMTDAT='(8E13.5)'
 TRAMP=1., VOLUME=1. $END
  3.05494E+05  3.11621E+03  3.39058E+05  2.46132E+05  8.59180E+04  3.36541E+05 -1.31724E+05  2.54563E+05
 -1.93763E+05  8.46330E+04 -1.09341E+05 -3.09562E+04 -1.38222E+03 -5.00454E+04  5.57064E+04 -8.25768E+03
  3.52619E+04  5.15989E+04 -1.57286E+04  7.38023E+04 -6.26412E+04  6.47306E+04 -8.22038E+04  3.17310E+04
 -7.84118E+04 -1.52808E+04 -6.06198E+04 -4.48646E+04 -1.48681E+04 -7.35105E+04  2.56564E+04 -4.64292E+04
  3.72528E+04  4.17545E+03  1.73435E+04  4.49803E+04 -3.35380E+04  5.35281E+04 -6.51236E+04  3.97262E+03
 -5.59350E+04 -5.74177E+04 -4.87898E+03 -7.77618E+04  3.19587E+04 -5.47149E+04  5.09887E+04 -1.24827E+04
  4.23690E+04  1.09769E+04  3.66432E+04  2.51623E+04  1.12692E+04  2.94448E+04 -6.30030E+03  2.56667E+04
 -2.38348E+04  1.47443E+04 -1.86971E+04 -7.25576E+03  9.09763E+03 -1.73787E+04  2.40610E+04  8.42733E+03
  5.94531E+03  4.03532E+04 -3.13726E+04  3.38777E+04 -6.40674E+04 -2.33389E+03 -5.64102E+04 -4.50342E+04
 -1.59957E+04 -6.30544E+04  3.90236E+04 -5.01054E+04  5.75516E+04  2.63206E+03  3.60271E+04  3.28332E+04
 -2.15278E+03  4.28802E+04 -3.31052E+04  1.60218E+04 -3.02187E+04 -7.06798E+03 -1.89212E+04 -1.45471E+04
 -5.02286E+03 -1.17042E+04  1.39538E+03 -1.85063E+04  5.10489E+03 -2.15359E+04  1.50776E+04 -1.25870E+04
  8.90053E+03  3.11158E+03 -5.20992E+03  1.00969E+04 -2.18884E+04 -3.23076E+03 -7.61471E+03 -4.09439E+04
  2.45749E+04 -4.90541E+04  4.89138E+04 -1.99264E+04  5.47007E+04  1.75957E+04  1.92646E+04  4.64530E+04
 -1.51608E+04  3.95203E+04 -2.39761E+04  4.35900E+03 -9.89285E+03 -2.64593E+04  1.87913E+04 -3.81179E+04
  4.30705E+04 -9.50654E+03  4.03295E+04  2.75518E+04  2.09403E+04  4.88512E+04 -7.65057E+03  5.20516E+04
 -3.24489E+04  3.28795E+04 -4.52755E+04  1.45876E+04 -4.39459E+04 -2.30147E+04 -2.76156E+04 -3.55749E+04
  7.61922E+03 -4.01376E+04  3.36076E+04 -1.59402E+04  3.10187E+04  1.17528E+04 -6.46837E+02  1.58274E+04
 -1.32507E+04  6.78582E+03 -1.16055E+04 -7.59810E+03  1.45775E+03 -5.72167E+03  2.12678E+04  5.63332E+03
  1.29872E+04  1.75897E+04 -5.62097E+03  2.26996E+04 -2.52626E+04  1.30072E+04 -3.05500E+04 -2.77251E+03
 -1.90660E+04 -1.76448E+04 -1.21476E+04 -2.06499E+04  6.90783E+03 -2.25310E+04  1.95445E+04 -2.14880E+04
  3.40847E+04 -1.51791E+04  3.74323E+04  9.21973E+02  2.39276E+04  2.16937E+04 -3.80707E+03  4.04453E+04
 -1.88372E+04  3.51908E+04 -3.03489E+04  8.07648E+03 -2.37748E+04 -1.84366E+04 -5.99892E+03 -1.11143E+04
  3.04288E+03 -4.83484E+03 -5.46296E+03  8.14685E+03 -1.80386E+04  4.28386E+03 -1.98072E+04 -3.80693E+03
 -6.36374E+03 -2.57251E+04  7.02302E+03 -2.30173E+04  2.01066E+04 -2.08207E+04  1.89957E+04  1.35483E+03
  1.39315E+04  9.40060E+03 -2.41329E+03  2.02608E+04 -1.75365E+04  1.78693E+04 -2.12228E+04 -4.29268E+03
 -1.97453E+04 -2.14005E+04 -3.84644E+03 -2.69868E+04  1.15977E+04 -2.33823E+04  2.60744E+04 -8.89691E+03
  2.30648E+04  1.00679E+03  2.24730E+04  3.72639E+03  1.13343E+04  1.00155E+04  1.59252E+04 -4.47136E+03
  1.52133E+04 -3.01564E+02  2.66279E+04  1.45664E+04  9.13251E+03  3.62261E+04 -2.29532E+03  3.43314E+04
 -2.64181E+04  3.39234E+04 -3.79895E+04  1.98056E+04 -4.52988E+04 -9.08345E+02 -3.50034E+04 -2.52145E+04
 -1.48008E+04 -2.98019E+04  1.39667E+04 -2.83479E+04  2.52225E+04 -1.86579E+04  2.31108E+04  9.69208E+03
  3.59086E+03  1.36289E+04 -6.03877E+03  1.33390E+04 -2.46557E+04  3.77928E+02 -1.45906E+04 -8.52052E+03
 -6.57705E+02 -1.94265E+04  1.31445E+04 -1.62618E+04  1.59674E+04 -2.16703E+03  1.31278E+03  4.06003E+03
 -8.57753E+03  5.46427E+03 -1.08686E+04  2.49939E+01 -1.71113E+03 -1.43574E+04  1.32880E+04 -1.56309E+04
  2.28759E+04 -8.64458E+03  2.41246E+04  4.64609E+03  2.10613E+04  1.81605E+04  1.41045E+04  2.49941E+04
 -6.57630E+03  2.84370E+04 -2.04055E+04  1.17776E+04 -1.88500E+04 -3.32720E+03 -1.20732E+04 -8.62984E+03
 -3.59061E+03 -2.22816E+03  5.72915E+02  9.76926E+02 -6.62396E+03  3.30746E+02 -7.81171E+03  8.57449E+03
 -1.14694E+04 -2.09839E+03 -1.10245E+04 -8.66538E+03 -3.54431E+03 -1.15130E+04  9.94505E+03 -1.05206E+04
  1.58717E+04 -2.60501E+03  6.07921E+03  6.84714E+03 -9.36183E+02  5.72268E+03 -7.88033E+03 -2.19725E+03
 -5.45604E+03 -1.31465E+04  2.88496E+03 -9.85775E+03  3.99307E+03 -1.46650E+04  1.90775E+04 -1.47162E+04
  2.11073E+04  7.17923E+03  2.00561E+04  1.03228E+04  6.11309E+03  1.85288E+04 -1.16773E+04  1.36045E+04
 -8.67657E+03  1.76486E+03 -2.72993E+03 -1.11354E+04  1.97045E+03 -5.25096E+03  3.29006E+03 -6.85586E+03
  1.08980E+04  1.23004E+04  4.76394E+03  4.64788E+03 -9.68618E+03  1.37241E+04 -1.34398E+04 -1.74005E+03
 -1.10138E+04 -7.42890E+03  2.24743E+03 -1.28711E+04  5.17619E+03 -5.76559E+03  4.02011E+03  5.85805E+03
  2.79587E+03  9.56452E+03 -7.38192E+03  7.17146E+03 -8.58455E+03  6.33331E+03 -9.23645E+03 -6.25049E+03
 -5.06408E+03 -8.75486E+03  1.60436E+03 -1.30073E+04  1.24175E+04 -6.77951E+03  1.41768E+04 -3.42573E+03
  1.27591E+04  1.25920E+04  1.30453E+03  1.18144E+04 -1.13161E+04  4.80622E+03 -8.10326E+03 -2.42984E+03
 -7.80933E+03 -1.11884E+04 -5.26754E+03 -1.12211E+04  5.50635E+03 -1.17807E+04  5.03761E+03 -6.45076E+03
  6.49508E+03  6.13537E+03  1.78819E+02  3.26312E+03 -1.38941E+03 -1.07807E+03  6.50288E+03 -6.82548E+03
  1.08388E+04 -2.83497E+03  1.52716E+04  2.30958E+03  1.73618E+04  1.10326E+04  9.52255E+03  1.72281E+04
  1.05227E+02  2.30004E+04 -1.39186E+04  1.75766E+04 -2.14682E+04  8.58952E+02 -2.15540E+04 -8.57180E+03
 -6.34512E+03 -2.38114E+04  7.10213E+02 -1.26856E+04  2.33907E+03 -4.91914E+03  6.66908E+03  5.71641E+03
  4.76950E+03 -1.74826E+03  2.04496E+03 -3.51826E+03  6.20362E+03 -4.86027E+03  7.66126E+03 -1.04348E+03
  1.07989E+04  4.73840E+03  2.62011E+03  9.87682E+03 -2.77065E+03  6.53769E+03 -1.33969E+04  5.68922E+03
 -1.14331E+04  4.00642E+03 -1.20585E+04 -6.43523E+03 -1.37245E+03 -1.55799E+04  6.82875E+03 -1.09624E+04
  1.52377E+04 -2.78923E+03  1.36423E+04 -1.63879E+03  1.08110E+04  1.25055E+04 -1.07962E+03  1.05139E+04
 -1.90722E+03  1.30112E+04 -1.15797E+04  2.96324E+03 -1.10197E+04  4.12413E+02 -8.32530E+03 -4.08040E+03
  3.44822E+03 -2.93599E+03 -4.76065E+03  1.17878E+04 -6.49265E+03 -2.29471E+03 -3.45863E+03  3.71623E+03
 -1.10680E+04 -1.46232E+04  3.40050E+02 -1.57236E+04  5.86129E+03 -8.94439E+03  1.19308E+04 -6.43802E+03
  8.88470E+03  5.23993E+03  5.92725E+03  1.00384E+04 -1.76087E+03  1.22132E+04 -4.08119E+03  1.81394E+03
 -1.66590E+04 -3.79177E+03 -7.45306E+03 -9.30087E+03 -7.51927E+03 -1.19036E+04  4.27338E+03 -3.96721E+03
  1.46345E+04 -5.91264E+03  3.33082E+03  6.66429E+03  3.10701E+02  3.15387E+03 -1.84424E+03 -1.32029E+03
  1.21106E+03 -1.09880E+03  2.48520E+03  2.65210E+02  6.13653E+03  5.86729E+03 -1.64322E+02  9.94254E+02
 -6.59011E+03  1.06173E+04 -8.86657E+03  1.72199E+04 -1.00589E+04 -3.19983E+03 -1.49935E+04 -3.70267E+03
 -6.31491E+02 -1.91002E+04  3.41338E+03 -1.48450E+04  1.20589E+04 -6.29272E+03  1.13969E+04 -4.71090E+03
  6.57186E+03  1.32351E+03  1.04137E+03  1.03168E+04 -8.72806E+03  9.60928E+03 -8.22831E+03  1.97632E+03
 -2.02281E+03 -1.41162E+03  1.25552E+03 -5.74830E+03  1.32299E+03 -6.33166E+03  4.39209E+03 -3.04133E+03
  4.05975E+03  3.02233E+03  5.14207E+03 -4.35661E+02 -7.28509E+02 -4.23726E+03  5.33463E+03 -8.99482E+02
  4.17548E+03  1.06169E+03  2.66284E+03  4.62145E+03 -7.74995E+03  7.27838E+03 -2.68968E+03  6.60050E+03
 -1.38457E+03  5.88379E+03 -8.89322E+03  3.58095E+03 -6.09220E+03 -3.65997E+03 -3.25281E+03 -9.50153E+03
  1.61103E+03 -6.75571E+03  1.81921E+02 -1.47818E+03  2.35749E+03  2.35139E+03 -6.09867E+03  1.10094E+04
 -4.47330E+03  3.59358E+03 -4.40691E+03  3.84688E+02 -4.42304E+02 -5.89000E+03  6.21307E+03 -6.00722E+03
  5.30491E+03 -6.70664E+03  1.80321E+03 -3.04433E+03  1.83153E+03  6.99187E+03  1.02098E+03  8.83427E+03
  1.10962E+03  3.95863E+03  2.74110E+03 -8.50802E+03  1.88272E+02 -4.87874E+03  3.52601E+03 -2.19606E+03
  6.72087E+03 -1.83695E+03  9.88872E+03  5.78752E+03 -2.76734E+03  6.64974E+03 -5.39158E+03  6.83734E+03
 -4.12933E+03  7.13087E+03 -5.04946E+03 -1.95932E+03 -5.81213E+03 -7.00517E+03  2.63886E+03 -5.80201E+03
  1.00936E+03 -3.26139E+03  4.53227E+03 -1.70853E+03 -5.57642E+02  4.69008E+03 -4.07738E+03  1.85353E+03
 -6.67776E+03 -3.72805E+02  2.57311E+02  1.47984E+03 -2.88482E+03 -2.43357E+02  3.75353E+02  2.24657E+03
 -7.22304E+03 -3.33393E+03 -6.11644E+03  2.10398E+03 -6.74212E+03 -2.46035E+02 -1.30400E+04 -5.64096E+03
 -3.12306E+03 -1.16166E+04  1.86954E+03 -1.11492E+04  8.58707E+03 -3.81140E+03  8.57275E+03 -6.86618E+03
  2.69891E+03  7.03833E+02  1.07891E+04  8.96386E+03 -3.13896E+03  4.91621E+03 -5.89974E+02  5.37845E+03
 -8.16861E+03  5.62235E+03 -5.49297E+02 -2.88399E+02 -8.50133E+02 -6.14101E+03 -2.99781E+03 -2.38880E+02
  9.99512E+02  2.47827E+03 -3.82410E+03 -4.17244E+03 -5.91730E+03  5.17984E+03  3.30350E+03 -2.21636E+03
  5.88808E+03  7.69230E+02  1.10387E+04  4.94231E+03  6.18265E+03  4.89523E+03 -2.20312E+03  6.19546E+03
 -6.22630E+03  1.90037E+04 -7.00845E+03  3.63133E+03 -8.39602E+03 -6.23582E+03 -6.00186E+03 -1.69949E+03
 -5.97830E+03 -3.62228E+03  6.11463E+03 -3.17942E+03  2.81862E+03 -2.66610E+02  4.54577E+03  4.11252E+03
 -1.11136E+02  4.86599E+03  2.52366E+03 -2.65070E+03  2.58358E+03  7.00128E+02 -3.65358E+03 -3.42653E+03
  1.39723E+03 -7.43853E+03 -1.75824E+03  2.28640E+02  3.75102E+03  3.58760E+03 -4.41714E+03  6.78575E+03
 -1.56149E+03  3.00698E+03 -8.32727E+03 -4.15185E+02 -5.81059E+03 -4.70471E+03  1.77094E+03 -3.93746E+03
  3.63828E+02 -3.99144E+03  4.97716E+03 -3.85955E+03  9.77007E+03  7.60236E+02  2.15165E+03  4.61951E+03
  1.71314E+03  8.11297E+03 -8.16158E+02  5.15650E+03 -2.40505E+03 -3.99672E+03 -4.96695E+03 -7.11517E+02
 -2.47691E+03  2.15871E+03  4.16997E+02 -2.36914E+03 -9.66476E+02 -4.07481E+03 -7.23698E+03 -2.14268E+03
 -3.44217E+03 -7.23986E+03 -1.32504E+03 -7.10793E+03  5.39789E+03 -2.33779E+03  3.36016E+03 -2.74674E+03
  1.44091E+03  3.52020E+03  2.82118E+02  3.12495E+03  1.72081E+02  7.19226E+03 -5.48037E+03  5.42689E+03
