 $NMID ID='MM_0lb_SNR50_20hz_g60_88.RAW', FMTDAT='(8E13.5)'
 TRAMP=1., VOLUME=1. $END
  3.10782E+05  3.16380E+03  3.39405E+05  2.52768E+05  8.69044E+04  3.35799E+05 -1.35050E+05  2.51494E+05
 -1.93503E+05  7.90945E+04 -1.10390E+05 -3.30273E+04 -7.83246E+02 -5.00360E+04  5.13930E+04 -1.92579E+03
  3.98822E+04  5.49110E+04 -1.59025E+04  7.31224E+04 -6.01961E+04  6.48776E+04 -8.60800E+04  3.13099E+04
 -7.96074E+04 -8.87523E+03 -5.98973E+04 -5.30620E+04 -1.50824E+04 -7.10061E+04  2.63240E+04 -4.84831E+04
  3.95442E+04  6.09340E+03  1.95838E+04  4.96767E+04 -3.29718E+04  4.81460E+04 -6.73889E+04 -1.65641E+03
 -5.73898E+04 -5.50971E+04 -2.94611E+03 -7.83335E+04  3.16832E+04 -5.46858E+04  4.74983E+04 -1.31671E+04
  4.69214E+04  1.38011E+04  3.37918E+04  2.60889E+04  1.45649E+04  2.93823E+04 -4.78376E+03  3.29371E+04
 -2.31596E+04  9.59191E+03 -2.22057E+04 -2.04864E+03  5.23322E+03 -4.15683E+03  2.40363E+04  7.55641E+03
  7.61101E+03  3.76991E+04 -3.20255E+04  3.30554E+04 -6.57603E+04 -2.44688E+02 -5.56221E+04 -4.38933E+04
 -1.43650E+04 -6.38142E+04  3.89742E+04 -4.59811E+04  6.02328E+04 -3.90589E+03  3.11240E+04  3.13284E+04
  2.11771E+03  3.39206E+04 -3.16732E+04  1.37036E+04 -2.71196E+04 -2.37398E+03 -1.57145E+04 -1.35361E+04
 -7.70450E+03 -1.52114E+04  9.99645E+02 -1.85300E+04  5.31622E+03 -2.09849E+04  1.11879E+04 -1.20272E+04
  1.27925E+04  5.37733E+03 -4.42303E+03  1.44719E+04 -2.05328E+04 -7.03875E+03 -7.64064E+03 -2.98076E+04
  2.24736E+04 -4.11868E+04  4.55621E+04 -2.05615E+04  4.06278E+04  2.10662E+04  1.75714E+04  4.55936E+04
 -1.78529E+04  2.80898E+04 -2.32227E+04 -3.88561E+02 -1.12376E+04 -2.38753E+04  1.98151E+04 -2.98550E+04
  3.40522E+04 -4.36691E+03  3.15351E+04  2.49836E+04  1.39845E+04  4.20665E+04 -5.40664E+03  4.58264E+04
 -2.55742E+04  3.22903E+04 -3.78124E+04  9.11128E+03 -3.78470E+04 -1.52771E+04 -2.09773E+04 -3.61889E+04
  6.46547E+03 -3.21818E+04  3.19207E+04 -1.54099E+04  2.47947E+04  1.18547E+04  7.72544E+03  1.75769E+04
 -1.38650E+04  5.10400E+03 -1.28222E+04 -1.08249E+04  5.58344E+03 -1.37573E+04  1.87730E+04  6.14690E+03
  1.30331E+04  2.08938E+04 -5.64162E+03  2.35815E+04 -2.22281E+04  1.08088E+04 -3.11034E+04 -7.11498E+03
 -1.67493E+04 -1.76687E+04 -9.32791E+03 -1.61197E+04  3.95268E+03 -1.79316E+04  1.01772E+04 -1.84069E+04
  2.40421E+04 -1.52948E+04  3.07324E+04 -3.63400E+02  2.17623E+04  1.56284E+04  2.50310E+03  3.22758E+04
 -1.45267E+04  2.58404E+04 -2.60809E+04  9.87778E+03 -2.39597E+04 -8.57749E+03 -7.35413E+03 -1.16081E+04
  1.15662E+03 -6.17458E+03 -1.51740E+03  6.66012E+03 -1.44247E+04  5.52200E+03 -1.90977E+04 -8.02543E+03
 -7.12598E+03 -1.60284E+04  2.58730E+03 -2.34455E+04  1.37022E+04 -1.15257E+04  1.19600E+04 -5.93669E+03
  9.42024E+03  6.98447E+03  1.63069E+03  1.47664E+04 -1.17603E+04  1.05564E+04 -1.76402E+04 -3.28212E+03
 -1.03690E+04 -1.54688E+04 -9.74300E+02 -1.62032E+04  1.10913E+04 -1.59396E+04  1.53479E+04 -1.05299E+04
  1.15725E+04  1.28058E+03  1.01377E+04  1.71069E+03  8.30826E+03  1.23353E+03  6.78559E+03 -2.72991E+03
  1.56237E+04  2.06552E+03  1.68481E+04  1.60658E+04  6.81745E+03  2.51402E+04 -1.04882E+03  2.65247E+04
 -1.59115E+04  2.03487E+04 -2.79428E+04  1.04572E+04 -2.99990E+04 -3.63350E+03 -1.98769E+04 -1.15524E+04
 -7.17812E+03 -2.42356E+04  5.89931E+03 -2.06279E+04  1.55860E+04 -9.39829E+03  1.32557E+04  1.06032E+03
  7.09107E+03  9.64728E+03 -9.70167E+03  1.10792E+04 -1.43449E+04  3.65703E+03 -1.12265E+04 -5.66235E+03
 -6.00278E+02 -1.30438E+04  4.86597E+03 -8.62065E+03  1.02291E+04 -2.37920E+03 -1.44313E+03  5.23083E+03
 -9.73004E+03  1.29456E+03 -4.81252E+03 -5.82289E+03 -2.42508E+03 -5.59329E+03  8.91083E+03 -7.53004E+03
  9.90344E+03 -6.34109E+03  1.36940E+04  2.79186E+03  9.58581E+03  9.56221E+03  7.67433E+03  1.37934E+04
 -4.15398E+03  2.42722E+04 -1.47353E+04  7.61052E+03 -9.32501E+03 -2.43763E+02 -9.99229E+03 -3.07091E+03
 -5.22932E+03  1.38846E+03 -2.48550E+03  5.15137E+03 -4.40227E+02  4.27109E+03  4.44729E+02  3.13643E+03
 -9.75159E+03 -2.30173E+03 -7.50326E+03 -6.33508E+03 -4.18141E+03 -1.18264E+04 -5.01408E+03 -1.26476E+04
  6.67563E+03 -2.93788E+03  9.23407E+03  9.43201E+02 -4.02550E+03  4.95349E+03 -1.82966E+03  7.44968E+03
 -3.08207E+03 -5.07195E+03 -3.78930E+03 -5.08222E+03 -2.21431E+03 -5.10367E+03  9.24943E+03 -3.88313E+03
  8.55525E+03 -2.53183E+03  1.10945E+04  5.92714E+02  4.11657E+03  6.73179E+03 -8.71319E+03  5.39238E+03
 -5.25435E+03  1.32430E+03 -6.13975E+03 -2.20125E+03  1.24755E+03 -2.57906E+03  7.92713E+03 -1.15533E+03
  7.10337E+03  7.43021E+03  2.84208E+02  7.27563E+03 -6.44909E+03  3.18588E+03 -6.21003E+03  1.26662E+03
 -9.33089E+03 -4.87549E+03  3.43078E+03 -8.32015E+03  2.73676E+03 -4.28168E+03  5.84923E+03  5.65113E+02
  1.25074E+03  2.19551E+03 -4.68484E+03  2.68645E+03 -4.43985E+03 -2.22586E+02 -4.59081E+03  9.53505E+02
 -3.34984E+03 -7.58768E+03  3.47468E+03 -5.27796E+03  2.00239E+03 -5.86718E+03  6.56365E+03 -5.69168E+03
  7.12841E+03  3.46436E+03  2.90648E+03  5.24100E+03 -4.02668E+03  3.87956E+03 -2.80371E+03  3.56195E+02
 -4.10372E+03 -6.44646E+03 -3.43729E+03 -3.37044E+03  2.80527E+03 -6.82469E+03  1.58237E+03  1.46297E+03
  3.84619E+03 -7.69103E+01 -5.63131E+01  2.60515E+03 -6.29812E+02  3.82719E+03  3.14550E+03 -1.63392E+03
  6.88695E+03 -2.48840E+03  7.43084E+02  7.76177E+02  8.09274E+03  7.39243E+03  3.01198E+03  6.78478E+03
 -2.84941E+03  8.87567E+03 -5.54988E+03  4.54690E+03 -1.29478E+04  5.04499E+03 -1.05516E+04 -2.32604E+03
  9.71157E+02 -5.01825E+03 -2.46981E+03 -3.40796E+03  1.70661E+03 -1.95197E+03  1.36607E+03 -2.37327E+02
  2.45530E+03 -4.05366E+03  7.44083E+02 -4.56358E+03  4.35243E+03 -1.17488E+03  4.44712E+03  3.81744E+02
  2.68069E+02  9.67500E+02 -2.11643E+03  7.00172E+01 -2.50247E+03  4.64966E+02 -3.23775E+03  4.89748E+02
 -8.57959E+03  2.56741E+03 -2.29323E+02 -4.54612E+03  3.29382E+02 -9.12260E+02  4.92618E+03 -5.16299E+03
  1.47600E+03 -4.11144E+03  6.45655E+03 -8.94831E+02  1.76384E+03  2.77724E+03  2.23249E+03  6.92519E+03
 -3.42379E+03  6.72083E+03 -9.52205E+02 -9.50948E+02 -3.50286E+03 -2.23208E+01  8.03443E+02 -2.49145E+03
 -1.27109E+03  2.42908E+03  2.19630E+02 -4.38433E+02 -3.81438E+03 -2.39597E+02 -1.03876E+03 -3.97552E+02
 -6.32658E+02 -3.82410E+03  1.13226E+02 -1.42909E+03 -1.45469E+03  5.73900E+02  5.56421E+03  1.48845E+03
  3.59928E+03  1.08922E+03  3.12763E+03  2.90650E+03  4.22068E+03  5.59412E+03 -7.17907E+02  9.92982E+02
 -7.59829E+03  1.31613E+02 -1.90030E+03 -2.77458E+03  1.59048E+03  7.81651E+02  9.15710E+02 -1.74739E+03
  5.64933E+03  2.87642E+02  1.24879E+03 -4.88892E+02 -7.24300E+02  2.76881E+03  5.78031E+02 -3.53995E+03
 -2.34682E+03 -9.23732E+01  1.53390E+03  3.91841E+03  3.79979E+03  8.21165E+02 -8.87061E+02 -2.89678E+03
 -2.49103E+03  2.04493E+03  3.92450E+02  3.01780E+03  8.65677E+01  2.54207E+03 -3.41076E+03 -4.50513E+02
  2.72112E+03 -3.10712E+03 -1.26828E+01 -5.02285E+03  4.55175E+03  8.39270E+01  3.97200E+03  4.71530E+02
  4.24898E+03  4.87636E+03  1.09324E+03  2.61870E+03 -2.79318E+01  3.78238E+03 -1.75188E+02  1.18636E+03
 -3.24337E+03 -2.44163E+03  2.71827E+03  9.81627E+02 -1.84211E+03 -1.69201E+03 -5.74905E+02  2.11915E+03
  3.86664E+02 -1.79591E+02 -9.85973E+01  2.32957E+02 -1.11630E+03  4.58730E+03 -2.79453E+02  4.42043E+03
 -2.89023E+02  6.11565E+02  2.33332E+03 -4.67824E+02  5.87738E+02  6.56497E+03 -1.80249E+03  1.56312E+03
 -1.24118E+02 -5.53147E+03 -2.56368E+03  9.30653E+01 -1.40280E+03 -1.14341E+03  1.30041E+03  4.50019E+02
  7.69355E+02 -5.44519E+03  4.24582E+03  4.12175E+03 -1.01510E+03 -1.62245E+03 -1.28907E+03  3.94774E+03
 -3.58867E+03  1.67529E+03 -9.80072E+02 -3.09238E+03 -1.24708E+03 -1.38838E+03 -1.85669E+03 -1.16718E+03
  4.23859E+03 -2.75362E+03 -4.02704E+02 -2.75446E+03  2.10404E+03 -4.55358E+02 -2.34386E+02 -9.65228E+02
  3.31060E+03  1.78350E+02 -1.69244E+03  5.35992E+03 -8.06201E+02  5.80330E+03  1.78701E+03  1.46440E+03
  4.84807E+02  3.53023E+03  3.63292E+03  2.68659E+03  2.07168E+03  1.25134E+03 -4.49728E+03  4.60182E+03
 -2.85406E+03 -4.99326E+01 -6.98566E+02  2.86102E+03  6.60603E+02 -6.18516E+02  1.37458E+03  1.59480E+03
  1.54046E+03 -7.06111E+02 -8.95199E+02  1.97287E+03 -4.86597E+01  1.83599E+03  5.62735E+01 -1.52525E+03
  2.52154E+01  3.12021E+02 -1.17781E+03  3.68225E+03 -2.59609E+03  6.47376E+03 -1.82250E+03 -9.27041E+02
  1.54136E+03  1.30124E+02  5.93754E+02  5.40672E+03 -4.62124E+02 -2.71686E+03  2.08766E+03 -3.85990E+03
  2.77476E+02 -2.77644E+03  8.94706E+02 -1.92415E+03 -2.46120E+03 -9.33338E+02  4.11315E+03 -2.59765E+03
  3.00939E+03  1.16265E+03 -2.67660E+03 -1.50934E+02  4.33252E+02 -1.79476E+03  1.04909E+03  8.45938E+02
  1.02277E+02  6.35149E+02 -1.18170E+03 -1.57346E+03  1.73083E+03  2.00249E+03 -1.76803E+01 -2.80704E+02
 -9.55783E+02 -4.91224E+03 -6.06237E+03  1.32743E+03 -4.16892E+03  1.65714E+03 -3.73449E+03  1.54760E+03
  2.09893E+03 -1.29728E+03  8.88786E+02 -1.83735E+03 -7.82723E+02  1.50462E+03  1.83541E+02  2.30986E+03
  4.78107E+02  3.07262E+03 -5.79710E+02 -2.89606E+01 -1.35386E+03  2.87771E+03 -1.90805E+03  1.19646E+03
  1.56864E+03  5.84015E+02 -4.94779E+02 -2.65026E+03 -1.63758E+03 -3.85601E+02  4.50465E+02  5.60548E+02
  2.39830E+03  6.75457E+02 -3.31468E+02  6.01690E+03 -4.09282E+02  1.27480E+03 -4.16636E+02  1.65830E+03
  4.00099E+03 -9.32987E+02  3.80244E+03  1.76903E+03  1.64538E+03  1.56054E+03  3.51264E+02  1.45782E+03
 -4.32918E+03 -4.11041E+03  4.02286E+02  1.07744E+03 -3.06724E+03 -1.47845E+03 -1.64183E+03 -2.62651E+03
 -1.81577E+03  5.04782E+03 -2.74670E+02  1.86657E+03  2.97455E+03  6.80708E+02  2.60721E+03 -3.55763E+03
 -3.80503E+02 -5.59716E+02  1.85883E+03 -3.33671E+03 -1.11867E+03  5.29903E+02 -1.02473E+03 -1.72714E+03
 -4.54612E+02  3.76922E+03 -6.22938E+02 -4.34560E+03 -5.64556E+02 -3.27771E+02  1.99948E+02 -5.12317E+03
  2.44553E+03 -4.52453E+02 -6.82894E+02 -2.15836E+03 -1.70513E+03 -3.97103E+03 -2.66546E+02  1.87197E+03
  5.54107E+03  2.32440E+02 -1.16072E+03 -1.88147E+03  2.96889E+03 -1.26693E+03 -1.32638E+03  2.98325E+03
