 $NMID ID='MM_0lb_SNR50_18hz_g50_52.RAW', FMTDAT='(8E13.5)'
 TRAMP=1., VOLUME=1. $END
  3.11363E+05  2.75066E+03  3.37757E+05  2.49097E+05  8.23522E+04  3.39819E+05 -1.36805E+05  2.48510E+05
 -1.89587E+05  8.21888E+04 -1.13406E+05 -3.10919E+04  3.25234E+03 -5.41845E+04  5.18263E+04 -5.59185E+02
  3.81406E+04  5.35190E+04 -1.89424E+04  7.29034E+04 -5.94155E+04  5.62337E+04 -8.54121E+04  2.88824E+04
 -8.37889E+04 -1.24560E+04 -5.78435E+04 -5.29380E+04 -1.32314E+04 -7.09581E+04  2.40740E+04 -4.56919E+04
  3.52332E+04  1.19385E+03  2.16690E+04  4.56695E+04 -3.64179E+04  4.59414E+04 -6.41637E+04  2.26033E+03
 -4.74945E+04 -5.43861E+04 -6.37309E+03 -7.60422E+04  3.10520E+04 -5.23817E+04  4.81774E+04 -1.56509E+04
  4.19416E+04  1.17524E+04  3.22787E+04  2.48538E+04  1.01219E+04  3.16132E+04 -1.28749E+03  2.86970E+04
 -2.48378E+04  1.34183E+04 -2.02684E+04 -3.69351E+03  2.33571E+03 -8.17504E+03  2.10174E+04  8.44945E+03
  2.65898E+03  2.95416E+04 -2.93273E+04  3.42802E+04 -5.69519E+04  6.54403E+03 -5.83929E+04 -4.13264E+04
 -1.17530E+04 -6.03956E+04  3.73359E+04 -4.53489E+04  5.90063E+04  2.36951E+03  3.01761E+04  3.05179E+04
 -4.87544E+03  3.44123E+04 -2.82160E+04  1.51933E+04 -2.74400E+04 -4.56298E+03 -1.61566E+04 -9.48105E+03
 -9.72317E+03 -7.61280E+03 -6.04556E+03 -1.69417E+04  3.45145E+03 -2.01709E+04  1.80405E+04 -1.19113E+04
  1.08295E+04  4.68785E+03 -3.26234E+03  8.19685E+03 -1.84511E+04  3.21607E+03 -8.18129E+03 -3.16072E+04
  2.05211E+04 -4.40496E+04  4.74658E+04 -1.80642E+04  4.27026E+04  1.95725E+04  1.67558E+04  4.40146E+04
 -1.79746E+04  2.90657E+04 -2.20030E+04  2.08234E+03 -7.70174E+03 -2.60367E+04  2.34216E+04 -2.97615E+04
  3.68087E+04 -4.15829E+03  3.62778E+04  2.23556E+04  2.12767E+04  4.50522E+04 -4.60500E+03  4.06372E+04
 -2.82658E+04  3.23794E+04 -3.96238E+04  7.13267E+03 -4.20875E+04 -1.63449E+04 -1.91771E+04 -3.46036E+04
  9.88607E+03 -3.49877E+04  2.96868E+04 -1.10532E+04  2.45915E+04  1.45876E+04  2.15603E+03  2.16189E+04
 -1.01784E+04  9.49516E+03 -8.55739E+03 -1.08017E+04  4.35200E+03 -9.69167E+03  1.76368E+04  8.17277E+03
  1.15003E+04  2.44961E+04 -7.74754E+03  2.15597E+04 -1.79191E+04  9.80010E+03 -2.78786E+04 -4.90517E+03
 -1.60579E+04 -1.38073E+04 -6.62704E+03 -2.05556E+04  1.85652E+03 -1.59488E+04  7.62319E+03 -1.15565E+04
  2.01292E+04 -1.39264E+04  2.84282E+04 -1.92699E+03  1.92033E+04  2.00806E+04  9.66928E+02  3.46821E+04
 -1.73895E+04  2.56612E+04 -2.77696E+04  8.62380E+03 -2.19198E+04 -1.13037E+04  6.35366E+02 -1.23419E+04
  4.10012E+03 -3.23649E+03 -6.40931E+03  8.33644E+03 -1.10075E+04  5.11535E+03 -1.41350E+04 -2.04830E+03
 -7.58196E+03 -1.44893E+04  7.28425E+03 -1.62278E+04  1.61238E+04 -1.57142E+04  1.72656E+04 -3.06939E+03
  1.10839E+04  1.22692E+04 -2.79051E+03  1.80902E+04 -1.22641E+04  5.34832E+03 -1.66728E+04 -4.61195E+03
 -7.34326E+03 -1.81180E+04 -4.27189E+03 -1.70264E+04  6.80574E+03 -1.58607E+04  1.52340E+04 -4.42046E+03
  1.38483E+04  1.64169E+03  1.64491E+04  3.22018E+03  7.39530E+03 -2.30737E+03  7.49959E+03  4.13452E+03
  1.30163E+04  6.91026E+03  1.52052E+04  1.35220E+04  1.22029E+04  2.52111E+04  2.29377E+03  3.12991E+04
 -1.54440E+04  2.19160E+04 -2.83063E+04  1.05451E+04 -2.98661E+04 -4.54131E+03 -2.12681E+04 -1.56427E+04
 -7.04974E+03 -2.47236E+04  9.42586E+03 -1.62621E+04  1.66117E+04 -9.71657E+03  1.64684E+04  3.58735E+03
  1.09769E+04  7.81383E+03 -7.29540E+03  1.12538E+04 -1.08658E+04  2.38688E+03 -9.41463E+03 -3.80604E+03
 -6.52080E+02 -1.28703E+04  7.36389E+03 -8.16345E+03  8.46345E+03  2.20565E+03  2.86887E+03  5.80470E+02
 -7.11167E+03  9.14394E+02 -5.49904E+03 -1.89509E+03  2.85408E+03 -1.14361E+04  8.77968E+03 -1.67423E+04
  1.40966E+04 -4.40752E+03  1.23552E+04  4.31760E+03  9.81270E+03  1.10127E+04  5.38997E+03  1.72884E+04
 -4.13305E+03  1.96085E+04 -8.56824E+03  5.55352E+03 -1.31519E+04  2.75360E+03 -8.98794E+03 -1.88913E+03
 -4.91032E+03 -4.75476E+03  1.28552E+02  2.79328E+03  1.30220E+03  1.27162E+03 -1.98417E+03  4.30264E+02
 -8.15084E+03 -1.20787E+03 -8.40771E+03 -8.90831E+03 -2.28438E+03 -1.40970E+04  6.92523E+03 -9.79440E+03
  8.78017E+03 -4.39121E+03  7.30745E+02  3.41301E+03 -1.41100E+03  1.68808E+03 -4.78292E+03 -1.57438E+02
 -4.60393E+03 -1.37041E+03  1.70679E+03 -1.20338E+04  2.51613E+03 -1.16450E+04  9.16349E+03 -6.56652E+03
  1.34130E+04  3.67690E+03  8.08034E+03  4.12233E+03 -1.33054E+03  1.01197E+04 -5.99423E+03  4.78751E+03
 -6.46385E+03  1.55181E+03 -1.54451E+03 -5.75473E+03  3.50979E+03 -5.02532E+03  6.17718E+03 -4.80155E+02
  5.23589E+03  2.99971E+03  2.64111E+03  8.69672E+03 -4.12135E+03  4.68624E+03 -6.26095E+03  1.34888E+03
 -9.90018E+03 -7.01276E+03  2.56530E+03 -1.03778E+04  4.71781E+03 -4.55590E+03  4.70105E+03 -9.60042E+01
 -4.15029E+03  5.02097E+03 -3.42431E+03  5.40704E+03 -3.50711E+03  4.12099E+03 -3.37697E+03 -1.41763E+02
 -4.40181E+03 -7.37451E+03 -1.11120E+03 -7.36301E+03  8.05961E+03 -3.90876E+03  5.90123E+03  4.19772E+03
  6.81956E+03  4.46424E+03  7.32891E+02  6.90771E+03 -4.87067E+03  3.48445E+03 -3.30118E+03  2.27952E+03
 -3.81584E+03 -3.73777E+03  7.33243E+02 -3.78710E+03  2.58185E+03 -8.25439E+03  2.83609E+03 -1.05682E+03
  1.62601E+03 -8.33096E+02  3.65812E+03  4.64901E+02  3.90181E+03 -5.65811E+02 -2.46266E+03  2.37045E+03
  9.51431E+03  1.04049E+03  4.65286E+03  4.10073E+03  7.88080E+03  3.06536E+03  8.03807E+03  7.20618E+03
 -4.49562E+03  8.17283E+03 -1.14044E+04  5.94927E+03 -9.90352E+03  4.41183E+02 -7.70895E+03 -7.07560E+03
 -6.81917E+03 -5.47868E+03 -5.11464E+03 -2.44089E+03 -1.69498E+03 -2.55379E+03  2.44620E+03 -3.31671E+03
  1.20208E+03 -1.55959E+03  3.47876E+03 -5.91920E+03  7.46723E+03 -1.47690E+03  1.93479E+03  1.46442E+03
  6.38970E+03  2.81070E+03 -9.39337E+02  6.44519E+03 -1.17524E+03  3.26908E+03 -3.26103E+03  6.12946E+03
 -2.60804E+03 -3.29987E+03 -5.95070E+03 -4.72175E+03  4.11949E+03 -5.87261E+02  3.06217E+03 -2.27782E+03
 -1.95905E+02 -2.36320E+03  5.22241E+03  1.71076E+02  6.85888E+03  5.24266E+03 -3.98346E+02  4.79071E+03
 -6.67228E+02  6.86544E+03 -4.96838E+03  4.78477E+03 -9.47574E+02 -3.70615E+03 -4.06668E+03 -1.91427E+03
  5.25419E+02  3.13530E+03 -1.28839E+02  3.31435E+03 -5.19889E+03  5.20478E+03 -9.14300E+03 -2.95423E+03
  1.70902E+01 -3.61827E+03 -2.97858E+02 -2.88922E+03  1.81589E+03 -1.74320E+03  3.73391E+03 -2.21679E+03
  2.12189E+03  5.85741E+03  6.17618E+02  5.76424E+03 -2.31223E+03  5.30078E+03 -3.70694E+03  3.43956E+03
 -3.43658E+03 -2.20044E+03 -4.74526E+03 -9.28108E+02 -1.46214E+03 -1.72308E+02  4.19318E+03 -5.14257E+03
  4.68079E+03 -7.36118E+02 -1.34453E+03  1.90908E+03 -3.04811E+03 -4.46093E+02 -7.56397E+03 -4.46981E+02
  3.34054E+03  1.46028E+03 -2.96971E+02 -3.22435E+03 -6.42757E+02  2.79127E+03  8.66452E+02  1.84987E+03
 -2.78158E+03  3.93344E+03 -2.25427E+03  4.56732E+03 -3.31313E+03  1.19098E+03  1.07496E+03  4.42642E+02
 -1.63523E+03 -7.57622E+03 -2.07701E+02 -1.93754E+03  1.80814E+03 -2.56701E+03  1.32221E+03  2.13982E+03
  2.82507E+03  9.32190E+02  3.81498E+03  2.91176E+03 -3.48074E+03  6.15703E+03 -4.59115E+03  3.69484E+03
 -1.14906E+03 -2.50474E+03  1.89053E+03 -4.70982E+03  1.84643E+03  3.28862E+03  4.13956E+03  2.29444E+03
 -5.93661E+02 -1.39821E+03  2.97408E+03 -2.81363E+03 -4.84209E+02  4.33256E+03 -2.06825E+03 -1.65698E+03
  3.04721E+03 -1.21086E+03  3.15189E+03  2.60198E+03 -8.03835E+02  9.03457E+02 -3.85454E+02  1.67148E+03
 -3.84455E+03 -1.05081E+00 -1.97840E+03  5.05754E+03 -3.98227E+02 -1.55821E+03 -4.84660E+03 -3.49466E+02
  2.05900E+03 -1.43974E+03  2.03505E+02 -4.48883E+03  3.75632E+03 -1.33437E+03  2.36701E+03  2.25082E+03
 -2.18726E+03  2.06730E+03 -3.43728E+03 -2.73701E+03 -4.31786E+03 -7.28302E+02  2.38914E+03 -3.55701E+03
 -1.95104E+03 -3.86557E+03 -1.92264E+03  3.16116E+03  1.33476E+03 -2.36369E+03 -6.00010E+03  3.86180E+03
  6.51001E+01 -3.07858E+03 -1.14184E+03  1.18011E+03  1.50757E+03  5.32590E+03 -2.65132E+03 -4.21229E+03
 -8.86486E+02  1.41981E+02  5.63778E+03 -1.78281E+03  4.24533E+03 -5.31851E+01 -3.64346E+03  4.78826E+03
 -5.71932E+02 -1.94393E+03 -2.88185E+03 -2.48068E+03  1.24371E+03 -2.95320E+03  1.11249E+03  9.98152E+02
  6.74267E+02 -2.21786E+03  6.48555E+02  4.47713E+02  6.46855E+02  1.79689E+03  3.06931E+03  7.03578E+02
 -1.11077E+02  3.80570E+03 -3.21615E+02 -7.39086E+03 -2.54350E+03  2.24010E+03  1.61645E+02 -9.55143E+02
  3.92043E+03  2.22960E+03 -1.50089E+03 -1.96137E+03 -5.44401E+03  9.82204E+02 -3.42004E+03  3.88364E+03
 -5.38543E+02 -2.47100E+02  4.10937E+03  2.41505E+03  2.47081E+03 -3.36145E+03  4.23293E+03 -2.91090E+03
  3.71874E+03 -4.03168E+03  1.20282E+03 -1.21697E+03  2.71176E+03  2.90850E+02  2.02643E+03  2.29248E+03
 -3.99684E+03  9.00669E+02 -3.07190E+03 -7.98241E+02 -1.94872E+03 -2.13875E+02 -1.22252E+03  2.92602E+03
 -1.71003E+03 -2.46447E+03 -2.42822E+03 -3.41589E+03 -8.44076E+02 -3.09965E+03 -2.73853E+03  1.54904E+03
  8.51233E+02 -1.10099E+03  2.10147E+03 -3.37463E+03 -4.71470E+03 -3.60083E+03 -1.31354E+03  2.06925E+03
 -1.44695E+01  4.71949E+03 -1.62816E+03 -4.67114E+02 -1.39371E+03  3.18896E+02  6.69194E+02  1.51723E+01
  8.21066E+02  1.74564E+03  1.86652E+03 -3.16772E+03  9.89586E+02 -4.06760E+03  7.52684E+02 -1.22117E+03
  3.31964E+03 -1.39822E+03  4.01772E+02 -3.35962E+03 -2.82630E+03 -4.79615E+03  1.96705E+03 -1.34442E+03
  4.26486E+03  9.27747E+01 -3.79431E+02  2.48469E+03  3.86510E+01  2.39087E+02 -1.63256E+03  2.33506E+02
  1.83078E+03 -2.07379E+03 -2.63844E+03  1.08479E+03 -2.00286E+03 -9.12409E+02  6.29479E+03 -2.31872E+03
  1.10661E+03 -5.04657E+03 -2.41836E+03 -6.01005E+02  5.01143E+02 -3.39946E+03 -1.91250E+03  1.25426E+03
  1.22590E+03  3.57922E+02 -2.52737E+03  3.32921E+03 -3.74373E+03  1.31045E+03  4.25143E+02  9.24464E+02
 -1.28222E+03  8.75080E+01  5.19499E+03 -6.18839E+02  4.74639E+03 -3.03501E+03 -4.61990E+03 -7.18680E+03
 -4.62463E+03  1.29693E+03 -2.44804E+03 -3.63605E+03 -8.56269E+02 -4.19586E+03 -8.60625E+02  2.46709E+03
  1.70531E+03 -9.39655E+02  8.78232E+02  1.41425E+03  7.22643E+02  8.98149E+02 -3.45653E+03 -5.49603E+02
