 $NMID ID='MM_0lb_SNR50_12hz_g50_37.RAW', FMTDAT='(8E13.5)'
 TRAMP=1., VOLUME=1. $END
  3.13004E+05  2.31417E+02  3.37274E+05  2.52442E+05  8.52355E+04  3.34485E+05 -1.31661E+05  2.47700E+05
 -1.88540E+05  8.65527E+04 -1.12150E+05 -2.91093E+04  6.40455E+03 -5.34735E+04  5.25274E+04 -1.49033E+03
  3.37210E+04  5.44097E+04 -1.91962E+04  7.73093E+04 -6.23046E+04  6.20691E+04 -8.96986E+04  3.13482E+04
 -7.75422E+04 -1.35539E+04 -5.79439E+04 -5.24687E+04 -1.33274E+04 -6.73654E+04  2.94490E+04 -4.42621E+04
  4.38719E+04 -2.83580E+03  1.01137E+04  5.10796E+04 -3.64773E+04  4.52842E+04 -6.81848E+04 -2.54469E+03
 -4.90298E+04 -5.76765E+04 -5.39962E+03 -7.79960E+04  3.64328E+04 -5.52336E+04  5.10848E+04 -1.44556E+04
  4.60487E+04  1.03009E+04  2.73659E+04  2.28621E+04  1.63568E+04  3.48719E+04 -3.54395E+03  2.78558E+04
 -2.34403E+04  1.51101E+04 -2.30467E+04 -7.72460E+03  3.12020E+03 -2.92864E+03  2.24355E+04  1.21630E+04
  8.89964E+03  3.51196E+04 -3.31601E+04  2.89343E+04 -6.22705E+04 -8.87437E+02 -5.42973E+04 -4.55921E+04
 -9.84415E+03 -6.01989E+04  4.73136E+04 -4.35207E+04  5.84386E+04 -3.85433E+03  3.55355E+04  3.22185E+04
 -9.16283E+02  3.56794E+04 -2.94500E+04  1.52952E+04 -3.00358E+04 -5.59501E+03 -1.92918E+04 -1.58125E+04
 -8.11388E+03 -1.90447E+04 -3.18045E+03 -2.16335E+04  5.90816E+03 -2.19310E+04  1.55686E+04 -1.05280E+04
  8.36623E+03  3.18444E+03 -1.02609E+04  1.45109E+04 -1.62496E+04 -6.16422E+03 -1.02723E+04 -3.32391E+04
  2.58139E+04 -4.54025E+04  5.41356E+04 -1.68468E+04  4.67594E+04  2.14975E+04  1.45331E+04  4.64252E+04
 -1.80569E+04  3.24954E+04 -2.58533E+04  5.54275E+03 -1.32166E+04 -2.69551E+04  2.09943E+04 -3.31515E+04
  4.04634E+04 -9.66274E+03  4.07290E+04  2.90021E+04  1.78145E+04  4.86616E+04  1.54394E+03  5.66112E+04
 -3.03569E+04  3.86814E+04 -4.89532E+04  1.03085E+04 -4.66290E+04 -1.40213E+04 -2.01050E+04 -4.04208E+04
  7.40162E+03 -4.49279E+04  3.51993E+04 -1.21624E+04  3.08661E+04  1.20702E+04  7.01754E+03  1.72138E+04
 -1.53617E+04  7.33338E+03 -5.53950E+03 -1.55404E+04  3.14627E+03 -1.24570E+04  1.31482E+04  7.01551E+03
  1.25574E+04  2.58775E+04 -8.03990E+03  2.99258E+04 -2.24794E+04  1.31122E+04 -3.42864E+04 -7.21261E+03
 -2.42054E+04 -2.13307E+04 -9.23172E+03 -2.52742E+04  6.00322E+03 -1.84946E+04  1.38945E+04 -1.80730E+04
  2.85853E+04 -1.36231E+04  3.23955E+04  1.11829E+03  2.68677E+04  2.19181E+04  4.84496E+03  3.98477E+04
 -1.86387E+04  3.47965E+04 -3.02158E+04  1.22449E+04 -2.62849E+04 -5.31497E+03 -1.06210E+04 -1.33567E+04
  6.34829E+03 -3.89188E+03 -7.44275E+03  3.11949E+03 -1.68455E+04  9.31584E+03 -1.73526E+04 -5.40706E+03
 -9.57660E+03 -1.87969E+04  1.09696E+02 -2.40659E+04  1.65475E+04 -1.71296E+04  2.31112E+04 -2.36164E+03
  1.25632E+04  1.54758E+04 -1.40075E+03  1.87383E+04 -1.47313E+04  1.13797E+04 -2.21058E+04 -2.31300E+03
 -1.56287E+04 -1.77882E+04 -1.77521E+03 -2.47504E+04  1.14617E+04 -1.96132E+04  1.99497E+04 -8.86987E+03
  1.65739E+04 -1.68976E+03  1.35828E+04  8.73458E+03  9.64472E+03  2.22495E+03  1.17870E+04 -2.82461E+02
  2.24074E+04  4.28041E+03  1.89371E+04  1.70423E+04  1.31071E+04  3.43052E+04 -2.38228E+03  4.13137E+04
 -2.06207E+04  2.91692E+04 -3.65402E+04  1.62279E+04 -3.85558E+04 -1.04280E+03 -2.51328E+04 -1.99142E+04
 -2.00383E+04 -3.48225E+04  8.26926E+03 -3.02085E+04  2.39105E+04 -1.46360E+04  1.91841E+04  1.27621E+04
  1.22993E+04  1.35366E+04 -1.13411E+04  1.58359E+04 -1.74353E+04  5.96931E+03 -1.10304E+04 -1.74572E+04
  3.23266E+03 -1.75832E+04  1.29935E+04 -1.25530E+04  1.12838E+04  8.02838E+02  3.25881E+03  6.73848E+03
 -1.11871E+04  1.44224E+03 -1.23181E+04 -3.03294E+03  1.09617E+03 -1.44530E+04  1.07912E+04 -1.35971E+04
  2.06602E+04 -1.05634E+04  2.66742E+04 -1.95570E+01  1.64666E+04  1.84608E+04  8.87474E+03  2.60005E+04
 -1.97415E+03  2.79600E+04 -1.58468E+04  1.90330E+04 -1.59547E+04  7.59239E+03 -1.40788E+04 -5.07233E+03
 -5.51749E+03 -5.72862E+03 -1.36397E+03  4.95269E+03 -8.97937E+02  7.07930E+03 -4.19301E+03  7.68592E+03
 -1.45662E+04  1.26971E+02 -1.32868E+04 -9.14639E+03 -1.08743E+04 -1.49286E+04  2.22100E+03 -1.79235E+04
  9.62133E+03 -5.87019E+03  1.30444E+04  1.01915E+04 -1.68044E+02  4.75808E+03 -7.90006E+03  2.89933E+03
 -7.61387E+03 -1.18021E+04 -2.50586E+03 -9.58244E+03  5.21614E+03 -1.13999E+04  1.67277E+04 -9.35173E+03
  1.89152E+04 -1.61170E+02  1.43922E+04  1.37850E+04  9.00890E+02  1.23006E+04 -5.51527E+03  1.30743E+04
 -7.76592E+03 -2.01761E+03 -6.11207E+03 -5.20805E+03 -1.72794E+03 -2.54735E+03  6.95397E+03  1.28974E+03
  6.06479E+03  2.11689E+03  3.43356E+03  1.41207E+04 -9.60243E+03  1.37672E+04 -1.01328E+04  3.77437E+03
 -9.00695E+03 -7.74079E+03  8.12353E+02 -8.80912E+03  4.48464E+03 -5.06076E+03  1.26534E+04 -3.67700E+03
  2.13670E+03  6.54681E+03 -6.58493E+03  8.62106E+03 -1.07051E+04  4.12442E+03 -1.18677E+04 -4.37755E+03
 -6.65449E+03 -1.74192E+04  1.08562E+04 -1.51578E+04  1.37866E+04 -8.66590E+03  1.10359E+04  3.83943E+03
  6.28899E+03  1.13676E+04 -1.28311E+03  9.77638E+03 -6.93201E+03  8.20887E+03 -7.69554E+03  9.49329E+02
 -4.98587E+03 -7.36695E+03  1.06107E+03 -1.05909E+04  4.63318E+03 -9.53370E+03  9.90780E+03 -3.33754E+03
  7.64170E+03  9.48386E+02  8.30362E+02  6.15176E+03 -4.59890E+03 -1.02911E+03  1.80745E+03 -2.60361E+03
  9.38621E+03 -2.33541E+03  9.85908E+03  7.31264E+03  1.21927E+04  9.07017E+03  1.26191E+04  1.73764E+04
 -7.37378E+03  1.36934E+04 -1.96160E+04  9.12331E+03 -2.01546E+04  1.91159E+03 -1.88998E+04 -4.78603E+03
 -3.96748E+03 -1.51456E+04  1.28179E+02 -8.54209E+03  7.93504E+03 -8.74954E+03  1.99989E+03  1.32806E+03
 -4.64450E+02 -6.13597E+03  8.94544E+02 -5.64981E+02  5.74384E+03  2.93660E+02  1.31354E+04  2.44430E+03
  8.07448E+03  2.15039E+03  1.07985E+03  6.14342E+03 -4.50737E+03  8.20949E+03 -7.21940E+03  2.11248E+03
 -1.56350E+04 -3.49542E+03 -1.51949E+03 -1.91953E+03 -1.51658E+03 -1.82338E+04  4.08433E+03 -1.27700E+04
  9.17823E+03 -9.28456E+03  1.79559E+04  1.55921E+03  7.21667E+03  5.07311E+03  1.23283E+03  1.01112E+04
 -2.88093E+03  7.71643E+03 -9.03551E+03  7.24808E+03 -6.29505E+03 -1.11915E+04 -5.15240E+02  2.05043E+03
  2.14812E+02  1.80584E+02 -2.78566E+03  5.17227E+03 -4.65610E+03  4.51334E+03 -7.58357E+02 -1.73782E+03
 -2.13738E+03 -6.14330E+03 -5.46459E+03 -1.15680E+04  5.58042E+03 -1.69634E+04  1.59060E+04 -4.25614E+03
  8.03886E+03  4.64627E+03  4.99712E+03  5.89680E+03 -2.63136E+03  6.94655E+03 -1.32543E+04  4.53301E+03
 -1.25132E+04  5.16513E+03 -3.89880E+03 -6.61908E+03 -6.92037E+02 -1.03122E+04  3.25224E+03 -1.24609E+04
  8.70398E+03 -1.91425E+03  8.38273E+03 -1.04888E+02  1.14145E+03  5.67609E+03  1.87996E+03  2.26171E+03
  4.16241E+03 -8.70043E+02  1.94499E+03  3.60179E+03  4.23872E+03  5.77831E+03  1.92302E+03  6.72011E+03
  3.16200E+03  9.93641E+03 -9.74486E+03  1.00146E+04 -4.79504E+03  2.14798E+03 -1.10569E+04 -7.37711E+03
 -2.12072E+02 -7.57407E+03  2.12964E+03 -1.39619E+04  6.57959E+03 -1.18363E+04  4.14546E+03  6.07693E+02
  7.15251E+03  7.89691E+02 -7.42694E+02  1.94882E+03  2.18149E+03  7.25883E+03 -6.97228E+03 -2.40035E+03
 -2.70209E+03 -6.30554E+03  1.79480E+03 -8.56005E+03  7.25904E+03 -2.14732E+03  4.12726E+03  1.02651E+03
  2.76527E+03  3.47246E+01  5.53631E+03 -1.59073E+03  1.34080E+03  4.23468E+03  7.00757E+02  3.83083E+03
  2.31054E+03  2.68911E+03  1.12079E+03  3.81939E+03  5.51564E+03  6.99064E+03 -4.59100E+03  9.25178E+03
 -6.73009E+03  2.98820E+03 -9.23550E+02 -1.34222E+03 -3.48888E+03 -6.18292E+03  4.67914E+03 -8.55152E+03
  3.61138E+03 -8.76676E+03  2.77388E+02 -1.89603E+03  3.61271E+03  2.53867E+03 -5.38055E+03  1.36888E+03
 -3.05872E+03  2.56422E+03 -3.80065E+03 -9.61637E+03 -1.05034E+04 -1.88675E+03 -1.40781E+03 -6.02514E+03
  1.63866E+03 -5.30782E+03  2.63258E+03 -1.80931E+03  3.02045E+03  5.01910E+02  1.74646E+03  1.40637E+03
 -4.60939E+03  6.52381E+02 -2.48457E+02  1.86998E+03 -2.17734E+03 -8.15511E+03  2.04248E+03 -6.00264E+03
  3.64617E+03 -3.97341E+03  8.89316E+03  6.25387E+03  5.10905E+03  3.61954E+03  1.39457E+03  5.66274E+03
 -9.23331E+03  1.19654E+03 -5.29367E+03  4.20034E+02 -1.50746E+03 -4.56377E+03 -4.76576E+02 -3.55416E+03
  4.96725E+02 -2.67689E+03  4.66166E+03  2.08125E+03  6.41067E+03  2.55344E+03  1.09594E+03  6.87084E+03
  1.89633E+03 -2.35756E+03 -1.41682E+03  8.17001E+02 -9.01633E+02  6.56050E+01  5.60810E+03  2.06965E+03
  2.98821E+03  2.07167E+03 -1.09891E+04  6.57345E+03 -8.15000E+03 -1.52520E+03 -7.52226E+03 -3.65947E+03
  1.20086E+03 -4.61270E+03 -1.81040E+03 -8.66770E+03  3.07873E+03 -9.13403E+03  1.23831E+04  1.15223E+03
  1.30788E+04  1.58871E+03  7.33677E+03  7.86787E+03 -2.66325E+02  7.16083E+03  7.12802E+02  3.16549E+03
 -6.61512E+03  4.67134E+03 -2.59823E+03 -6.89794E+03  5.80235E+03  4.29886E+03 -3.23021E+03  4.64556E+02
  1.79372E+03  1.78294E+03 -4.14399E+03 -1.44054E+03 -1.19746E+03  4.37068E+02  2.83295E+02 -5.61892E+02
  8.43281E+02 -4.04520E+03  2.18045E+02 -2.40220E+03  3.52350E+03  3.51825E+03  8.51930E+02  7.68069E+03
  1.17314E+03  7.94503E+03 -6.29557E+03  4.07614E+03 -4.08030E+03 -2.31741E+03 -9.60078E+02 -6.32098E+03
 -5.96390E+02 -1.97630E+03  2.71217E+03 -4.30325E+03  3.94835E+03 -6.19284E+03  4.63738E+03  2.65523E+03
  3.87495E+03  6.08767E+03  4.22475E+03 -6.92612E+02 -1.06621E+03  3.22150E+03  4.49072E+03 -4.19590E+03
 -8.88140E+03  2.07556E+03 -9.23567E+02 -1.21094E+03  5.18694E+03  2.27966E+03 -3.38480E+03  4.06346E+03
 -4.48580E+03  4.36382E+02 -1.85929E+03 -7.63084E+02 -2.96388E+03 -4.88328E+03  1.08059E+03 -3.31873E+03
  3.25801E+03 -4.82823E+03  1.00817E+04  1.18350E+03  8.62631E+03 -1.57860E+03  5.00170E+03 -1.75887E+01
  4.26468E+03  1.13517E+03  1.83625E+03  3.65345E+02 -2.36091E+03  1.95301E+03 -5.89952E+03 -1.94954E+02
  3.86019E+03  2.11753E+02  1.94647E+03  2.14754E+03 -6.35214E+03  2.14266E+03 -3.93142E+03 -1.43474E+02
 -3.68947E+01 -1.80228E+03 -1.45009E+03 -1.13404E+03  1.15945E+03 -7.48708E+03  4.04008E+03 -1.04154E+03
  6.81188E+01  6.16695E+03 -9.68901E+02 -7.76565E+02 -3.30691E+03  3.45401E+03 -5.49670E+03  2.05827E+03
