 $NMID ID='MM_0lb_SNR50_20hz_g60_93.RAW', FMTDAT='(8E13.5)'
 TRAMP=1., VOLUME=1. $END
  3.11415E+05  2.12255E+03  3.35346E+05  2.53353E+05  8.44787E+04  3.35263E+05 -1.34032E+05  2.53329E+05
 -1.95256E+05  7.84359E+04 -1.11264E+05 -3.36810E+04  2.81467E+03 -4.96369E+04  5.19666E+04 -1.24539E+03
  3.78231E+04  5.10119E+04 -1.52259E+04  7.77398E+04 -6.01964E+04  6.19476E+04 -8.18842E+04  3.18954E+04
 -8.12232E+04 -8.00536E+03 -5.57793E+04 -4.85875E+04 -9.95593E+03 -7.35933E+04  2.58938E+04 -4.69913E+04
  3.72141E+04  3.81062E+03  1.46480E+04  5.18250E+04 -3.36780E+04  4.50960E+04 -6.33390E+04  1.01241E+03
 -5.19705E+04 -5.75160E+04 -5.17365E+03 -7.18387E+04  3.63436E+04 -5.40347E+04  4.43868E+04 -1.68060E+04
  3.83135E+04  1.12624E+04  3.15395E+04  2.24336E+04  1.50095E+04  3.17993E+04 -4.81651E+03  3.16223E+04
 -2.27398E+04  1.43951E+04 -2.23830E+04 -3.86881E+03  5.20432E+03 -1.05280E+04  2.19283E+04  9.81529E+03
  7.29182E+03  3.45271E+04 -3.34071E+04  3.51236E+04 -6.24695E+04  1.85764E+03 -5.83598E+04 -4.06170E+04
 -9.06404E+03 -6.00670E+04  3.89520E+04 -3.94442E+04  5.67210E+04  1.64740E+03  3.43980E+04  3.01902E+04
 -5.29249E+03  3.41350E+04 -2.62946E+04  1.51106E+04 -2.70087E+04  5.65710E+02 -1.33357E+04 -1.24270E+04
 -3.35786E+03 -1.24527E+04 -4.71087E+03 -1.56182E+04  4.34090E+03 -2.41722E+04  1.51308E+04 -1.33663E+04
  1.46300E+04  2.71111E+03 -9.23254E+03  1.52973E+04 -1.95575E+04 -1.60881E+03 -7.73427E+03 -3.02326E+04
  1.90774E+04 -3.69222E+04  4.60356E+04 -1.68591E+04  4.07923E+04  1.68557E+04  1.44646E+04  4.34255E+04
 -1.50518E+04  3.06379E+04 -2.23520E+04 -2.59742E+02 -8.04293E+03 -2.71461E+04  2.32940E+04 -3.19213E+04
  3.66350E+04 -5.77298E+03  3.05241E+04  1.78722E+04  1.57871E+04  4.26557E+04 -4.67383E+03  4.54053E+04
 -2.75063E+04  3.16049E+04 -3.72188E+04  7.81660E+03 -4.11963E+04 -1.47147E+04 -2.24673E+04 -3.24901E+04
  5.57407E+03 -3.58832E+04  2.38347E+04 -1.23279E+04  2.83193E+04  1.33989E+04  1.20222E+03  1.73370E+04
 -1.39966E+04  6.16619E+03 -1.20066E+04 -7.72592E+03  5.12307E+03 -1.17415E+04  1.76218E+04  8.52312E+03
  1.48643E+04  2.38962E+04 -1.07771E+04  2.41729E+04 -2.24165E+04  1.22248E+04 -2.23551E+04 -4.57837E+03
 -1.12876E+04 -1.85977E+04 -5.65068E+03 -1.34055E+04  5.03252E+03 -1.19141E+04  1.29465E+04 -1.76002E+04
  2.21232E+04 -1.24654E+04  2.60714E+04 -2.83015E+02  2.08092E+04  2.20813E+04  5.46385E+03  3.25326E+04
 -1.60945E+04  2.66009E+04 -2.80988E+04  9.11645E+03 -2.32049E+04 -1.10287E+04 -4.30140E+03 -1.33120E+04
 -2.30808E+03 -5.33283E+03 -1.86079E+03  5.54555E+03 -1.26640E+04  6.83532E+03 -1.01269E+04 -8.85802E+03
 -5.79492E+03 -1.50526E+04  6.05092E+03 -1.91201E+04  1.48223E+04 -1.16881E+04  1.09116E+04 -9.40426E+02
  1.02336E+04  7.40995E+03  2.16582E+03  1.45360E+04 -9.31669E+03  6.73524E+03 -1.91623E+04 -5.29947E+03
 -1.35870E+04 -1.30803E+04 -4.84371E+03 -2.08285E+04  5.71940E+03 -1.13451E+04  1.48854E+04 -6.35348E+03
  1.58648E+04  2.48290E+02  8.62480E+03  8.36174E+02  1.18308E+04  1.96915E+03  9.31952E+03 -2.52044E+03
  1.32269E+04  4.51921E+03  1.47662E+04  1.17815E+04  8.28006E+03  2.35439E+04 -6.81017E+03  2.99269E+04
 -1.75043E+04  1.93919E+04 -2.20328E+04  1.31697E+04 -2.06082E+04 -1.54828E+03 -2.31196E+04 -1.66222E+04
 -9.62367E+03 -2.22918E+04  4.58074E+03 -1.74573E+04  1.26796E+04 -9.80289E+03  1.95699E+04  2.35946E+03
  3.05010E+03  1.17248E+04 -7.51537E+03  8.53899E+03 -1.37413E+04  2.84993E+03 -7.35704E+03 -6.16622E+03
 -3.03215E+03 -1.19435E+04  3.10866E+03 -1.10888E+04  9.85504E+03 -7.58573E+02  5.67343E+03  1.79255E+03
 -5.07404E+03  4.69900E+03 -1.05226E+03 -5.31127E+03  1.66912E+02 -7.44319E+03  1.09329E+04 -5.70832E+03
  1.08665E+04 -3.93378E+03  1.33098E+04  6.42330E+03  9.17181E+03  1.08968E+04  1.84821E+03  1.34464E+04
  8.42593E+02  1.72695E+04 -8.40372E+03  1.12637E+04 -7.96480E+03 -7.12037E+02 -9.11777E+03 -6.62568E+02
 -7.27313E+03 -5.08481E+03  3.08968E+03 -2.63457E+02 -2.16153E+03  5.89282E+03 -7.55307E+03  2.59592E+03
 -6.57880E+03 -9.25304E+02 -9.43757E+03 -5.49303E+03 -3.23472E+03 -1.13571E+04 -4.29517E+02 -1.19443E+04
  1.04035E+04 -2.21586E+03  7.18624E+03  2.41146E+03  2.49352E+03  5.73791E+03 -3.68237E+03  7.76821E+02
 -1.42346E+03 -4.62982E+03  1.30569E+03 -8.32071E+03  5.05965E+03 -1.27389E+04  7.98408E+03 -2.48535E+03
  1.09424E+04  3.98913E+02  1.15804E+04  5.79581E+03  2.89559E+03  5.77750E+03 -1.72847E+03  1.13724E+04
 -7.49296E+03  3.19949E+03 -5.20154E+03 -2.30884E+03 -2.35411E+02 -1.19765E+03  8.21770E+03 -5.61627E+03
  6.79679E+02  2.62987E+03 -1.76144E+03  2.69597E+03 -2.15968E+03  2.26571E+03 -3.22866E+03  2.52259E+03
 -5.39087E+03 -6.48331E+03 -2.99110E+03 -9.11081E+03  5.90116E+03 -8.36923E+03  8.77533E+00 -3.40396E+03
  4.71265E+03  5.05820E+03 -6.79216E+03  2.59359E+03 -6.04921E+03  3.35402E+03 -3.33822E+03 -1.79868E+03
 -1.72841E+03 -2.75216E+03  2.68091E+03 -6.63696E+03  5.65931E+03 -6.19119E+03  9.56371E+03 -2.48935E+01
  8.19633E+03  7.77099E+03  9.09337E+02  6.58645E+03 -5.41310E+03  3.22892E+03 -3.56300E+03  6.07687E+02
 -6.82654E+03 -6.31292E+03 -2.49030E+03 -1.21942E+03  6.34149E+03 -1.83408E+03  5.85049E+03  2.14018E+03
  2.56492E+03 -4.50927E+03  3.08421E+03  4.97230E+03 -1.39788E+03 -1.87741E+03 -3.67547E+03 -3.09172E+03
  5.90317E+03 -3.63273E+02  2.47772E+03 -1.14262E+03  7.02137E+03  1.47741E+03  4.18572E+03  7.31672E+03
 -1.85049E+03  5.49129E+03 -3.45588E+03  7.95504E+03 -8.82086E+03  3.37094E+03 -6.59848E+03 -2.20314E+02
 -2.71500E+03 -5.58660E+03  2.79977E+03 -2.13165E+03  3.76327E+02  9.46798E+02  1.06961E+03 -4.86409E+03
  9.77864E+02  1.40296E+02  2.63464E+03 -4.04404E+03  4.82483E+03  4.61416E+01  2.01785E+03 -3.47663E+02
  2.75900E+03  1.47940E+03  9.15714E+02  5.39140E+03 -3.60555E+03  5.81180E+01 -3.96203E+03  3.07356E+03
 -3.82256E+03 -8.48779E+02 -7.14906E+02 -2.81115E+03  1.31896E+02 -2.79790E+03  7.10636E+03 -3.83139E+03
  4.70284E+02 -3.36330E+03  2.74847E+03 -2.52480E+03  4.51307E+03  1.01360E+03  1.53622E+03  4.29701E+03
 -1.23800E+03  6.42735E+03  1.09318E+03  4.44409E+03 -3.16022E+03 -1.77305E+03 -3.15349E+03  3.45406E+03
  4.57730E+02  4.25736E+02 -2.41952E+03 -2.11697E+03 -7.18642E+03 -1.26603E+03 -3.34181E+03 -1.35050E+03
 -1.63354E+03 -4.18932E+03  1.54202E+03 -2.61378E+03  4.51708E+03 -7.37172E+03  1.52394E+03 -1.05054E+03
  5.21807E+03  5.79803E+03  4.72065E+03  4.68686E+03  1.21723E+03  5.69297E+03 -1.77689E+03  9.01015E+03
 -2.21590E+03 -1.85364E+03 -2.93297E+03 -1.85437E+03 -1.01817E+03 -7.76446E+03 -5.33448E+02 -2.09112E+03
 -7.36880E+02 -7.59311E+02  4.69708E+02  1.72611E+03  1.70344E+03  5.78438E+03  1.80070E+03 -2.54675E+03
 -2.52045E+02 -1.82934E+03  2.01119E+03  2.49134E+03 -1.63143E+03  2.58333E+03  1.37299E+03  4.29346E+03
 -3.18363E+03  2.55753E+03 -1.01365E+03  3.80382E+03  9.90735E+01  3.16242E+02 -7.06955E+02  6.74286E+02
 -8.18432E+02 -3.26858E+03  1.38980E+03 -4.21392E+03  1.19440E+03  1.38602E+03 -1.05701E+03 -6.99229E+02
 -1.26900E+03  6.17665E+02  1.89762E+02 -1.15861E+03 -3.11781E+03  1.67124E+03  1.11774E+03 -1.68135E+03
  9.76616E+02 -8.98006E+02 -1.21100E+03  2.33409E+03 -2.64099E+02 -1.02983E+03 -1.84220E+03 -5.87694E+02
  3.86197E+03 -3.16895E+03  2.48743E+03  1.16432E+03 -6.22463E+03 -7.77544E+01 -2.73790E+03 -1.33486E+03
  4.57554E+03 -3.08717E+03  3.27244E+03  1.92200E+03 -1.21734E+03 -8.75293E+02  1.21671E+03  5.44520E+03
 -1.47714E+03  4.12472E+03 -5.77410E+03  6.52551E+02 -1.69126E+02 -3.27875E+03  8.97554E+02 -3.49466E+03
 -1.19940E+02  8.99052E+02  3.01228E+02 -9.61735E+02  1.42195E+03  4.40874E+03 -2.63452E+03 -1.45911E+03
 -2.29117E+03  1.87005E+03 -1.56595E+03  1.68981E+02 -8.83402E+02 -3.44170E+03 -3.29821E+03  6.25270E+03
 -2.16149E+03  2.06280E+03 -1.97950E+03  5.86707E+02  7.14942E+02  1.43234E+03  3.97041E+03  2.20932E+03
  4.03877E+02 -4.83234E+02 -8.51564E+02 -1.35327E+03  1.51302E+03  1.58176E+03  7.26070E+03 -2.39397E+03
  9.30857E+02  1.72313E+02  8.96063E+02  1.00071E+03 -3.85339E+03  2.78650E+03  3.59132E+02 -4.70077E+02
 -3.91345E+03 -3.06025E+03 -2.09869E+03  1.24904E+03 -2.42722E+03 -4.55161E+03  4.23144E+03  1.59154E+02
 -2.34039E+03 -9.52589E+02  6.74953E+01  1.47611E+03  4.58256E+02  3.95638E+03 -5.67863E+03 -2.84774E+03
  1.19774E+03  5.16152E+02 -2.23955E+03 -1.21366E+03  1.86101E+03  4.43709E+03 -1.58810E+03 -7.10150E+02
  1.58757E+01  2.32200E+03  6.49409E+02  2.57101E+03 -4.17234E+03 -2.95596E+03  1.12690E+03 -4.63769E+03
  1.35907E+03 -3.59428E+03  9.78027E+02 -2.23113E+03 -5.15758E+03 -6.01878E+03  2.53667E+03 -1.00275E+03
  6.75126E+02 -4.65353E+03  8.01121E+02  5.09250E+02 -8.78071E+02 -9.04983E+02  1.40915E+03  1.62485E+03
  3.74507E+03  1.25697E+03 -1.00343E+03 -1.32318E+03 -1.11661E+03  1.47676E+03  7.99600E+02  2.55274E+03
 -1.78824E+03  7.33782E+02 -2.37275E+03 -2.84966E+03 -1.13273E+03  2.64688E+03 -6.13473E+02  1.46580E+03
  1.93395E+03  2.08805E+03  8.91975E+02  1.02598E+02  9.31946E+01  2.13722E+03 -7.60204E+02  2.02106E+03
 -3.75776E+03  1.36205E+03 -3.04751E+03  3.46526E+03  1.69932E+03  1.29099E+03 -1.63030E+03 -5.68142E+02
  4.40211E+02  1.94734E+03 -2.47099E+03 -1.39275E+02 -2.42391E+02 -2.91350E+03 -3.04413E+03  6.08037E+02
  3.41687E+03  1.71721E+03  3.25182E+03  4.03330E+02  1.65486E+03  1.99096E+03  3.95803E+03  1.18502E+03
  3.13014E+03  2.75957E+03 -3.10802E+03  4.41031E+03  3.36138E+03 -1.25563E+03 -1.94586E+01 -3.89915E+03
  1.77124E+03  3.90986E+03 -2.93597E+03  1.60814E+03 -8.32232E+02 -7.78737E+02 -2.23706E+03 -3.34561E+02
 -1.12770E+03  3.44352E+02  1.60342E+03 -1.21098E+03 -2.46233E+03  3.95658E+03 -2.67660E+03 -1.22951E+03
  8.92573E+02  1.90427E+03 -1.36925E+03  2.80468E+03  4.50539E+02 -8.86929E+02 -8.50062E+03  2.09330E+03
  3.86586E+03 -3.12041E+03  9.72244E+02 -4.97383E+01 -2.48927E+03  3.28018E+03 -2.50794E+03 -4.02469E+03
 -4.57113E+03  1.27613E+03  2.02054E+02 -2.09886E+03 -9.39232E+02 -3.24975E+02  1.55583E+03 -6.93669E+01
  1.93924E+03  1.28631E+03  1.93912E+03  2.07585E+03  5.17082E+02 -1.65403E+03  5.70824E+02 -3.46729E+01
