 $NMID ID='MM_0lb_SNR50_19hz_g45_98.RAW', FMTDAT='(8E13.5)'
 TRAMP=1., VOLUME=1. $END
  3.10916E+05  4.06804E+03  3.39791E+05  2.53808E+05  8.40266E+04  3.36542E+05 -1.33590E+05  2.50948E+05
 -1.90137E+05  7.89840E+04 -1.06030E+05 -3.60581E+04  4.16341E+03 -4.79390E+04  5.64926E+04  2.23092E+03
  3.58061E+04  5.21929E+04 -1.90808E+04  7.64035E+04 -6.25786E+04  6.28030E+04 -8.24307E+04  3.11657E+04
 -8.18613E+04 -1.21600E+04 -5.26193E+04 -5.50173E+04 -1.34921E+04 -6.73859E+04  2.40566E+04 -4.16946E+04
  4.03679E+04  4.86880E+03  1.07069E+04  5.03960E+04 -3.34153E+04  4.85146E+04 -6.49432E+04 -2.41307E+03
 -5.75343E+04 -5.31367E+04 -5.35233E+03 -7.62494E+04  3.34391E+04 -5.36735E+04  4.17987E+04 -1.58004E+04
  4.15464E+04  8.80637E+03  3.35650E+04  2.60666E+04  1.85992E+04  2.80092E+04 -4.30016E+03  2.80578E+04
 -2.42310E+04  1.18581E+04 -1.45109E+04 -6.81768E+03  1.05752E+03 -3.65587E+03  2.15982E+04  9.49125E+03
  8.28147E+03  3.38650E+04 -2.67099E+04  3.08790E+04 -6.20992E+04  1.87729E+03 -5.42322E+04 -4.11508E+04
 -1.36194E+04 -6.00567E+04  3.14862E+04 -4.19457E+04  5.55599E+04 -3.60236E+03  3.35165E+04  2.93022E+04
 -5.63064E+03  3.38061E+04 -2.88372E+04  1.00368E+04 -2.55922E+04 -4.88922E+03 -1.68060E+04 -1.10018E+04
 -8.41447E+03 -1.36616E+04  1.35148E+03 -1.80220E+04  6.31633E+03 -2.10667E+04  1.75812E+04 -1.48956E+04
  1.21109E+04  4.45794E+03 -5.42460E+03  1.16706E+04 -1.78657E+04 -2.88858E+03 -9.53877E+03 -3.13052E+04
  2.21374E+04 -4.35206E+04  4.08007E+04 -1.69256E+04  4.16919E+04  2.04469E+04  1.45980E+04  4.06062E+04
 -1.94902E+04  3.15606E+04 -2.31932E+04  3.79549E+03 -7.02435E+03 -2.75834E+04  1.75066E+04 -3.10886E+04
  3.64800E+04 -8.23142E+03  2.94310E+04  2.04747E+04  1.51728E+04  3.86165E+04 -9.80424E+03  4.34488E+04
 -2.69066E+04  2.67189E+04 -3.77047E+04  6.42793E+03 -3.26508E+04 -1.46829E+04 -2.13525E+04 -3.53335E+04
  5.10379E+03 -3.40101E+04  2.82999E+04 -1.50349E+04  2.82126E+04  7.16295E+03  1.51318E+03  1.47582E+04
 -1.19932E+04  7.08970E+03 -1.03927E+04 -8.28881E+03  7.76242E+03 -1.40320E+04  1.51135E+04  5.62978E+03
  1.14545E+04  1.95141E+04 -7.39599E+03  2.10291E+04 -1.72914E+04  7.69642E+03 -2.82351E+04 -1.93126E+02
 -1.80319E+04 -1.25703E+04 -4.31559E+03 -1.90659E+04  4.33717E+03 -1.83228E+04  1.00296E+04 -1.71666E+04
  2.29585E+04 -1.02514E+04  2.52797E+04  3.55711E+03  2.32347E+04  1.33439E+04  3.02405E+03  3.05650E+04
 -1.53357E+04  2.32522E+04 -2.46315E+04  8.11914E+03 -2.02737E+04 -1.16498E+04 -5.78149E+03 -1.04951E+04
  2.46083E+03 -9.73974E+03  3.01447E+03  4.70632E+03 -1.10116E+04  5.37642E+03 -1.54099E+04 -4.58821E+03
 -9.56161E+03 -1.76185E+04  4.93127E+03 -2.01891E+04  1.09896E+04 -1.67124E+04  1.42342E+04 -3.02447E+03
  5.22617E+03  1.05717E+04  1.03273E+03  1.83226E+04 -1.11021E+04  1.35274E+04 -1.24059E+04 -3.44781E+02
 -1.01529E+04 -1.42667E+04 -1.47174E+03 -1.96031E+04  8.77225E+03 -1.31356E+04  1.50215E+04 -1.01990E+04
  1.23190E+04  1.29132E+02  1.05985E+04  3.43181E+03  2.94711E+03  1.76844E+03  5.10309E+03 -4.11405E+03
  1.30564E+04 -4.08799E+02  1.55126E+04  1.26854E+04  1.03667E+04  2.63811E+04 -1.24624E+03  2.80418E+04
 -1.61574E+04  1.99428E+04 -2.55686E+04  3.90201E+03 -2.12268E+04  2.41429E+03 -2.19995E+04 -1.32534E+04
 -8.27178E+03 -1.95833E+04  9.26492E+03 -1.91799E+04  1.26094E+04 -8.43380E+03  1.52925E+04  1.37633E+03
  8.05252E+03  9.62666E+03 -6.88780E+03  9.25571E+03 -8.67184E+03 -7.17076E+02 -1.17334E+04 -6.60218E+03
  4.49842E+03 -1.09256E+04  7.06688E+03 -1.03887E+04  7.43590E+03 -5.00702E+03  4.07056E+03  2.80881E+03
 -6.00319E+03 -1.12937E+03 -5.74530E+03 -4.73896E+03  1.03395E+03 -9.84400E+03  9.86626E+03 -1.11641E+04
  9.89083E+03 -7.17969E+03  1.20003E+04  5.52968E+03  7.84458E+03  7.68376E+03  6.23442E+03  1.45335E+04
  1.32317E+03  1.52544E+04 -7.39395E+03  9.16668E+03 -1.31431E+04  3.38834E+03 -1.00127E+04 -2.45373E+03
 -4.73300E+03 -4.05437E+03  1.34716E+03  2.95529E+02 -1.17502E+03 -1.79972E+03 -3.17873E+03 -1.96137E+03
 -4.42044E+03  1.47627E+03 -9.49707E+03 -6.02034E+03 -6.57053E+03 -9.65457E+03  1.96625E+03 -4.49263E+03
  6.15067E+03 -2.58259E+03  4.90542E+03  5.00568E+03 -2.70798E+03  4.02829E+03 -2.66206E+02 -8.25289E+02
 -5.11115E+02 -2.24533E+03  3.55915E+03 -1.05273E+04  4.12739E+03 -8.15067E+03  9.68012E+03 -5.20963E+03
  1.21757E+04  1.31186E+03  5.72110E+03  4.25370E+03  4.40832E+03  8.02408E+03 -4.57262E+03  9.35821E+03
 -7.13613E+03  3.40825E+03 -1.01813E+03 -3.99635E+03  1.92376E+03 -5.26109E+03  8.77853E+03 -1.45091E+03
  5.26423E+03  3.07045E+03  3.60473E+03  6.14248E+03 -2.55973E+02  8.30036E+03 -5.34720E+03  4.31420E+03
 -6.74901E+03 -4.63224E+03 -6.15692E+03 -7.65244E+03  1.55387E+03 -2.08044E+03  2.37351E+03 -3.15197E+02
 -2.62116E+03  1.54333E+03 -2.39593E+03  2.92426E+03 -6.73874E+03  1.78327E+03 -3.16557E+03  2.15400E+03
 -3.64682E+03 -4.41327E+03  2.65781E+03 -3.21589E+03  5.08967E+03 -3.03814E+03  3.99501E+03  6.81809E+02
  1.29122E+03  3.46517E+03 -6.22596E+02  2.82994E+03 -4.20800E+03  5.42548E+03 -4.85177E+03  4.10220E+03
 -4.25605E+03 -7.36041E+03  5.67096E+02 -3.69883E+03  1.13088E+03 -8.67378E+03  8.73387E+02 -5.51541E+03
  2.12434E+03 -3.90538E+03 -3.17552E+03  5.03959E+03  4.36972E+02 -5.18989E+03 -2.01930E+03  3.56039E+03
  3.96677E+03  1.35842E+03  5.56317E+03 -4.08319E+03  5.53951E+03  3.14682E+03  1.87248E+03  1.01417E+04
 -7.99115E+02  5.62509E+03 -8.49292E+03  5.33667E+03 -7.56417E+03  2.08058E+02 -7.36153E+03  5.36124E+02
 -3.76009E+03 -5.56447E+03 -1.60605E+03 -8.49813E+03  2.31712E+03 -3.07339E+03  5.75102E+03 -3.44097E+03
  2.23572E+03 -4.45865E+02  2.59072E+03 -2.49810E+03  1.01981E+03 -5.28325E+01 -1.31281E+03  1.68392E+03
  5.75995E+03 -4.76431E+02  2.05331E+03  1.00214E+03  3.34394E+03  5.12440E+03 -2.34229E+03  1.64039E+03
 -7.74215E+03 -2.50954E+03 -3.23219E+03 -4.13942E+03 -1.22401E+03 -5.59666E+03  2.10334E+03 -5.03828E+03
  7.34919E+03 -4.79310E+03  8.41030E+03 -2.29302E+03  2.12289E+03  7.64936E+03 -1.66444E+03  2.05730E+03
 -1.77242E+03  1.09718E+04 -3.98796E+02  4.55235E+03 -1.91873E+03 -1.64804E+03 -2.43387E+03 -4.87388E+03
 -1.89237E+03 -3.43794E+03 -9.36481E+02  6.66660E+03  2.82733E+03  2.61246E+02 -1.95321E+03 -1.75297E+01
 -2.80764E+03 -4.29929E+03 -3.18671E+02 -3.93032E+03  1.94063E+03 -7.58099E+03  2.16602E+03 -2.22326E+03
  7.13796E+03  5.79523E+03  2.65704E+03  2.25926E+03 -1.51066E+03  3.53807E+03 -6.91545E+03  1.63887E+03
 -4.12810E+03  2.69836E+03 -1.79974E+03 -7.23260E+02 -7.53740E+02 -7.28601E+03  3.54652E+03 -1.94328E+03
  3.70781E+03 -2.19565E+02  1.81238E+03  1.48139E+03 -5.86200E+02  6.88175E+02  2.33950E+03  4.90855E+02
  2.37622E+03  6.17737E+00  2.14729E+03  3.87396E+03 -3.81598E+03  3.24772E+03  1.20784E+03  9.95134E+02
 -3.40835E+03  4.65742E+03 -6.22580E+03  9.58277E+02 -4.80985E+03 -1.64507E+03 -5.02772E+03  3.30970E+03
 -6.02223E+03 -3.86460E+02 -7.20565E+02 -2.16498E+03 -5.15262E+02 -2.93101E+03  4.66618E+03  2.42633E+03
  4.20468E+03 -4.55831E+03  3.40060E+02  3.10887E+03  1.59180E+03  3.77557E+03 -4.30693E+03 -4.86903E+03
 -6.64693E+01 -2.37499E+03 -2.06155E+03  2.70884E+02 -1.19010E+03  3.73262E+02  1.40765E+03  1.58860E+03
  3.82040E+03  2.53523E+03  2.39353E+03 -7.18168E+02 -3.25510E+03  1.30811E+03  2.39424E+03 -1.85184E+03
  7.05137E+02  2.40221E+03 -1.80999E+03  1.43726E+03  3.34265E+03 -5.30358E+02  1.29747E+03 -9.77488E+02
 -1.98900E+03 -2.73559E+02  8.28681E+02 -1.26477E+03 -4.83981E+03  1.51523E+03 -6.23495E+02 -5.49415E+03
  1.15873E+03 -9.40083E+02  1.34844E+03 -3.93087E+02  2.12449E+03  7.04577E+02 -5.83369E+02  2.28589E+03
  4.58671E+02 -7.51908E+02  1.29688E+03 -5.40658E+03  1.27234E+03 -5.54860E+03 -4.19425E+03 -1.45432E+03
 -1.18930E+03  7.88403E+02  2.79685E+02 -1.78060E+03  3.91928E+02 -1.31512E+03 -3.87707E+03  2.95093E+03
  3.39119E+02 -3.05376E+02 -1.33202E+03  3.13994E+03 -3.10683E+03 -2.21213E+03 -2.11898E+03 -2.70182E+02
 -1.86512E+03 -3.16492E+03  5.11401E+03  3.14625E+02  1.91340E+03 -2.43040E+02  1.25255E+02  2.96460E+03
 -1.93318E+03 -1.98240E+03  1.69235E+03 -2.19772E+03 -9.60809E+02  1.93973E+01 -5.31318E+01 -4.01161E+03
 -4.01297E+03  2.16864E+03  9.06153E+02  2.60432E+02  3.47883E+03  4.06368E+03 -4.58523E+03 -4.37038E+02
 -1.26109E+03  3.89387E+03 -9.44250E+02 -1.89384E+03  2.55668E+03 -5.07136E+03 -1.26294E+03 -2.78293E+03
  3.69674E+03  5.11262E+03 -2.76405E+03  2.22681E+03 -3.04325E+03 -6.04612E+03 -3.21637E+03 -6.51591E+02
 -3.51257E+03 -1.78112E+03  6.33758E+03 -1.65152E+03 -1.60506E+03 -3.60510E+03 -2.89116E+03  7.56904E+02
  7.06729E+02  1.06975E+03 -2.39101E+03  3.06335E+03 -1.79339E+03  1.38701E+03 -1.02529E+01  2.27581E+03
 -2.82844E+03  1.59108E+03  6.74396E+03  1.26118E+03 -1.13044E+03  4.19198E+02  2.22022E+03 -1.84474E+03
  3.40873E+03  2.98170E+03  1.96433E+03  6.12829E+03 -9.96914E+02  3.68272E+02  2.77641E+03  3.24287E+03
 -1.33561E+03 -4.58968E+02 -1.55427E+02 -1.90789E+03  2.51286E+03  9.17362E+02  2.90740E+03  1.62698E+03
  1.87385E+03 -8.06571E+02  2.79528E+03 -4.94878E+02 -2.99068E+03 -5.61150E+03  6.72938E+01 -2.44526E+03
 -2.61998E+03  1.66773E+03  3.15716E+03  1.19251E+03  1.09194E+03  1.75428E+03 -2.56807E+02 -2.73934E+02
 -5.55040E+02  1.31769E+03  9.20766E+02 -2.20423E+03  1.80845E+03  4.38866E+02 -7.31510E+03 -3.37644E+03
  1.91999E+02 -1.08311E+03 -9.87838E+02  9.22598E+02  9.49187E+02  1.07771E+03 -3.55417E+03 -9.12505E+02
  2.78838E+02  1.28377E+03 -2.17681E+03  4.41487E+03 -5.27483E+03  1.30190E+03  1.90345E+03 -5.44892E+03
 -3.70252E+03 -1.34772E+03 -1.66934E+03 -4.44209E+03  1.35589E+03 -4.25675E+03 -3.90007E+02 -2.73380E+03
 -2.70658E+03 -3.22334E+03  2.41537E+03  3.22487E+02 -3.77105E+02 -3.30118E+03 -1.28595E+03 -1.64303E+02
 -2.86449E+03  3.64881E+03 -7.80787E+02 -3.61775E+02 -1.26170E+03  1.25608E+03 -5.87934E+00 -1.99849E+02
 -3.90692E+03 -3.03614E+03  3.43660E+03 -2.52211E+03  3.72933E+03  2.63399E+03  1.53078E+02 -2.16363E+03
  3.83483E+03 -1.02435E+02  9.33171E+02 -2.47306E+03 -8.02954E+02  3.19823E+03  3.48811E+03  5.44308E+02
