 $NMID ID='MM_0lb_SNR50_18hz_g60_34.RAW', FMTDAT='(8E13.5)'
 TRAMP=1., VOLUME=1. $END
  3.15692E+05  5.75232E+03  3.34666E+05  2.49452E+05  8.76133E+04  3.34355E+05 -1.29809E+05  2.52806E+05
 -1.87731E+05  8.42172E+04 -1.07845E+05 -3.76039E+04  2.72160E+03 -5.12476E+04  5.77676E+04  4.86034E+02
  3.66925E+04  5.06814E+04 -1.30161E+04  7.78788E+04 -5.93302E+04  6.05033E+04 -8.24742E+04  3.41182E+04
 -7.60195E+04 -1.22494E+04 -6.10246E+04 -4.89134E+04 -1.34918E+04 -7.02271E+04  2.81418E+04 -4.76991E+04
  3.82343E+04  4.63508E+03  1.63590E+04  4.61990E+04 -3.80042E+04  4.79299E+04 -6.63946E+04  5.12803E+02
 -5.55447E+04 -5.78755E+04 -3.88631E+03 -7.57109E+04  3.35235E+04 -5.11275E+04  4.89630E+04 -2.01701E+04
  4.19900E+04  1.44329E+04  3.28712E+04  2.26909E+04  1.63089E+04  3.15725E+04 -5.52787E+03  2.78569E+04
 -2.01837E+04  1.16195E+04 -1.72216E+04 -8.03735E+03 -4.11675E+01 -8.18467E+03  2.37960E+04  1.21792E+04
  6.44520E+03  3.34157E+04 -2.64090E+04  3.33808E+04 -6.63832E+04  3.34964E+03 -6.01846E+04 -4.03900E+04
 -1.21244E+04 -6.40333E+04  3.51081E+04 -4.59088E+04  5.61992E+04 -3.67902E+03  3.25250E+04  3.32626E+04
 -4.63354E+03  3.45592E+04 -2.72365E+04  1.32748E+04 -3.16443E+04 -3.68489E+03 -1.31612E+04 -1.01907E+04
 -6.92244E+03 -1.10510E+04  3.36620E+03 -1.52544E+04  7.91422E+03 -2.55637E+04  1.34108E+04 -1.30322E+04
  1.44203E+04  2.35698E+03 -2.04901E+03  1.30146E+04 -1.50307E+04 -2.89002E+03 -9.58711E+03 -2.84604E+04
  2.05298E+04 -4.37389E+04  4.72983E+04 -1.72094E+04  4.66662E+04  1.73092E+04  1.62487E+04  4.54513E+04
 -1.06311E+04  3.45678E+04 -1.84464E+04  3.20524E+03 -9.81097E+03 -2.70978E+04  1.91517E+04 -3.12291E+04
  4.07299E+04 -7.55069E+03  3.15793E+04  2.48685E+04  1.70629E+04  4.66520E+04 -6.66814E+03  4.65760E+04
 -2.99652E+04  3.82506E+04 -3.98047E+04  1.09874E+04 -3.65120E+04 -1.59521E+04 -2.02024E+04 -3.43353E+04
  1.12717E+04 -3.26210E+04  2.92399E+04 -1.42997E+04  3.30086E+04  1.25889E+04  3.71293E+03  1.77517E+04
 -1.28861E+04  7.40425E+03 -1.16865E+04 -6.26105E+03  7.38748E+03 -1.26009E+04  1.84841E+04  5.71411E+03
  1.63736E+04  2.42832E+04 -5.79551E+03  2.33887E+04 -1.95061E+04  1.43905E+04 -2.46036E+04 -2.48892E+03
 -1.89769E+04 -1.53334E+04 -8.10070E+03 -2.11944E+04  6.28991E+03 -1.72822E+04  1.22795E+04 -1.50226E+04
  2.13659E+04 -1.29116E+04  3.25359E+04  3.31517E+03  2.54489E+04  1.87992E+04  6.65577E+03  3.78575E+04
 -1.60303E+04  3.14597E+04 -2.45760E+04  1.27226E+04 -2.01929E+04 -1.09600E+04 -2.73981E+03 -1.36512E+04
  3.30921E+03 -3.75006E+03 -4.99893E+03  3.60091E+03 -1.23284E+04  7.67190E+03 -1.26241E+04 -1.70410E+03
 -7.11490E+03 -1.85652E+04  7.83071E+03 -2.23560E+04  1.01605E+04 -1.48364E+04  1.52894E+04 -2.31355E+03
  1.31902E+04  1.19755E+04  1.85863E+03  1.47984E+04 -1.17681E+04  9.47040E+03 -1.35080E+04 -7.42795E+03
 -9.13312E+03 -1.45574E+04 -4.19724E+03 -2.07059E+04  1.06981E+04 -1.73547E+04  2.13662E+04 -5.90378E+03
  1.97888E+04 -3.51815E+03  1.00241E+04  3.95933E+03  1.16945E+04  5.90866E+02  1.35860E+04 -4.45493E+03
  1.53943E+04  4.25766E+03  1.62407E+04  1.41767E+04  8.18766E+03  2.96585E+04 -1.77331E+03  2.87787E+04
 -1.98958E+04  2.18887E+04 -2.65908E+04  9.77273E+03 -2.34069E+04 -5.14495E+01 -2.08470E+04 -1.42947E+04
 -1.04026E+04 -1.99334E+04  7.38299E+03 -2.45542E+04  1.81302E+04 -1.03958E+04  2.32520E+04  7.31786E+03
  8.37704E+03  1.23900E+04 -5.55326E+03  1.09975E+04 -1.62061E+04  1.03626E+03 -1.09527E+04 -8.62963E+03
  4.06795E+03 -1.60846E+04  6.78446E+03 -1.12183E+04  7.44063E+03  1.74599E+03 -4.31331E+02  3.65100E+03
 -6.93587E+03  2.92821E+03  2.77135E+02 -9.00540E+02  5.01715E+03 -1.02699E+04  5.20422E+03 -1.05961E+04
  1.17141E+04 -3.73514E+03  1.66155E+04  2.95845E+03  1.20152E+04  1.21705E+04  4.27484E+03  2.03877E+04
 -4.40793E+03  1.80618E+04 -7.18266E+03  1.00488E+04 -1.12057E+04  6.32077E+03 -5.63227E+03 -4.12341E+03
 -6.67155E+03 -4.92976E+03  3.57833E+02  2.88998E+03  1.69386E+03  3.68839E+02 -1.51251E+03  8.31925E+03
 -1.11734E+04  2.53405E+03 -9.63478E+03 -6.08317E+03 -3.93707E+03 -1.41529E+04  4.98465E+03 -8.66591E+03
  1.17791E+04 -4.97681E+03  1.01277E+04  2.02790E+02  2.58240E+03  5.73968E+03 -1.18577E+03  1.97276E+03
 -3.36948E+03 -5.17915E+03 -1.17797E+02 -4.68172E+03  3.87410E+03 -8.58089E+03  1.58605E+04 -4.16326E+02
  9.48108E+03  1.86932E+03  1.02699E+04  4.89016E+03  8.52609E+03  1.27633E+04 -6.58840E+03  7.22308E+03
 -7.01918E+03  1.95728E+03 -6.22150E+03 -2.11491E+03  1.22076E+03 -4.11772E+03 -1.83919E+03  5.55268E+02
  3.49299E+03  4.88414E+03 -6.39773E+02  6.32061E+03 -2.46980E+03  6.95984E+03 -7.20572E+03  7.04494E+02
 -4.52909E+03  4.55662E+02  1.16079E+03 -1.02457E+04  7.67811E+03 -5.26483E+03  2.42302E+02  2.34567E+03
  1.03076E+03  4.58434E+03 -2.52144E+03  5.79089E+03 -5.64891E+03  2.55372E+03 -3.26876E+03  1.93220E+03
 -5.05553E+03 -7.36235E+03  3.47950E+03 -4.79817E+03  7.01000E+03 -6.62008E+03  1.00925E+04  2.86242E+03
  4.67120E+02  7.68973E+03  1.25854E+03  8.42932E+03 -5.10385E+03  6.77162E+03 -6.95206E+03 -1.84100E+03
 -6.99312E+03 -3.29097E+03 -4.49302E+03 -1.16254E+04  3.88715E+02 -4.62341E+03  1.77846E+03 -4.87847E+03
  5.13218E+03  3.00667E+03  1.47064E+03  5.61329E+03  8.77160E+02  2.07449E+03  8.36301E+02 -2.48266E+03
  6.76093E+03 -2.15196E+02  6.15788E+03  3.21294E+02  8.65507E+03  5.27144E+03  4.66862E+03  9.86007E+03
 -3.02396E+03  1.06806E+04 -5.92136E+03  1.17413E+04 -1.62893E+04 -7.85030E+01 -9.78063E+03 -7.53064E+03
 -3.07106E+03 -4.62463E+03  4.95149E+02 -6.37949E+03 -2.98313E+02 -3.10882E+03  2.97000E+03 -1.80420E+03
  3.56538E+03 -1.42536E+03  2.86960E+03 -2.95973E+03  1.77733E+03  2.73538E+03  6.22942E+03 -3.56832E+03
  3.01492E+03 -8.75875E+01 -5.81863E+02  5.58596E+03  7.99933E+02  3.17585E+03 -6.54014E+03  5.04296E+03
 -9.04846E+03 -6.78613E+02 -2.41250E+03 -4.09760E+03  3.40346E+03 -4.86995E+03  2.71187E+03 -4.57408E+03
  5.35818E+03  9.20225E+00  7.45696E+03  4.61700E+02  6.08301E+03  8.09082E+03  1.32959E+03  7.28506E+03
 -2.89388E+03  3.61393E+03 -3.60197E+03  3.00020E+03 -1.49925E+03  2.10672E+03  1.34048E+03  9.98997E+02
  2.65311E+03  3.24077E+02 -1.90457E+03  9.69048E+02 -3.53541E+03 -1.57801E+03 -1.56053E+03 -2.41825E+03
  9.30628E+02 -7.57295E+03 -5.17524E+03 -4.19129E+03  2.67584E+03 -4.65105E+03  3.75851E+03  2.42570E+03
  2.33192E+03  3.96342E+03  3.69970E+03  3.39023E+03 -5.64659E+02  4.38926E+03 -5.05836E+03  3.33903E+03
 -1.41050E+03  1.51540E+03 -4.20365E+03 -5.52991E+03 -7.03787E+02 -1.21994E+03  4.14374E+03 -2.41339E+03
  5.15240E+03 -1.61532E+03  4.49730E+02  8.43486E+02  1.51093E+03  4.78141E+03  3.77351E+03  2.41712E+03
  2.99434E+03 -9.69540E+02  3.31756E+03 -2.95079E+02  1.62612E+03  1.58324E+01  1.13619E+03  4.53643E+03
  1.80147E+03  4.99644E+03  6.21193E+02  2.97124E+03 -1.40619E+03  1.40006E+03 -6.98758E+03 -2.34057E+03
 -1.13074E+03 -7.44575E+03 -1.59756E+03 -4.15926E+03 -2.80282E+03 -1.53552E+03  6.55375E+03  2.78707E+03
  4.31874E+03  2.46007E+02  2.41124E+03 -1.67828E+03 -3.31200E+03  4.03278E+03  2.48272E+03  1.75565E+03
 -4.12980E+03 -1.98720E+03  1.77902E+03 -2.10386E+03 -1.62445E+03 -3.32722E+03  4.20570E+02 -2.13556E+03
  4.37561E+03  1.38080E+03  1.16643E+03  9.42758E+02  3.02065E+03  3.79081E+03  1.88561E+03  4.79192E+02
  4.06817E+03  3.03879E+03 -1.68215E+03  1.86666E+03 -7.14014E+02  3.92073E+03  2.26392E+03  3.56059E+03
  7.04492E+02  1.78674E+03 -2.59751E+03 -6.68162E+02 -4.11332E+03 -4.15478E+03  1.71961E+03  3.05282E+03
 -2.94212E+02 -2.78064E+03  2.89055E+02  1.07169E+03 -9.21484E+02  2.96517E+03 -1.15812E+03 -9.62462E+02
 -3.98083E+03  1.06013E+03 -3.48651E+02 -3.35183E+03 -1.24409E+03  1.17165E+03  1.53460E+03 -3.74705E+03
  1.42826E+03 -1.70306E+03  4.99508E+02  2.99113E+03  4.98811E+02  1.31022E+03  5.77465E+02 -1.14042E+01
 -2.73207E+03  6.73954E+03 -3.61744E+03  1.24000E+03  2.56733E+03 -3.06491E+03  5.67249E+02  1.95815E+03
  2.48272E+03  4.28879E+03 -6.40314E+02 -1.85509E+03 -2.84901E+03  3.28612E+03  2.35145E+03  4.21328E+03
  1.80233E+03  7.20906E+02  7.57072E+02 -1.48103E+03 -3.20733E+03 -9.67807E+02 -1.46362E+02  8.24063E+02
  6.00125E+02  8.52647E+02  7.80022E+02  1.15605E+03  5.41175E+02  1.74073E+03 -2.79666E+03  3.32966E+03
 -7.54552E+02 -1.52631E+03  9.62962E+02 -8.82921E+02 -6.68601E+02  4.50098E+03  1.69936E+02  1.28780E+03
  2.28304E+03 -4.38084E+03  1.49323E+02  2.28267E+02 -4.06306E+02  2.82468E+03 -5.22606E+03  4.94383E+02
  9.48441E+01 -2.41077E+03  3.10648E+03  9.05572E+02 -2.96965E+03 -3.24765E+03  7.73216E+03  4.33808E+03
 -1.44037E+03 -3.47924E+01  3.19018E+03  3.13686E+03  5.89003E+03  9.25646E+02 -3.20686E+02  2.94012E+03
  1.54230E+03  4.12280E+03 -1.10955E+03 -2.76085E+03 -3.42159E+03  2.42632E+03 -3.92733E+03 -5.64202E+02
 -3.57915E+03 -8.23664E+02 -2.38420E+02  3.91181E+03  2.57276E+03 -2.19944E+03 -3.56560E+03 -5.69671E+03
 -1.43664E+03 -2.09353E+03 -2.14358E+03  9.18870E+01  8.23544E+02 -1.99055E+03  1.05417E+03  3.60253E+03
 -3.27296E+03  2.77931E+03 -6.58746E+02 -4.22136E+02 -2.91114E+03  2.59454E+03 -2.09301E+03  1.85786E+03
  3.86836E+02 -3.94897E+03  5.21902E+03  2.72316E+03  7.64756E+01 -1.17894E+03  8.01125E+02  7.20011E+02
  4.82520E+02 -2.32410E+02 -1.92645E+03  7.75781E+02 -3.33844E+02 -1.29495E+03 -6.32662E+03 -7.65727E+02
  2.67932E+03 -6.18627E+03 -4.35162E+02  1.80729E+03  4.40206E+03  6.02088E+03  2.86792E+03 -3.59689E+03
  4.39549E+03  1.36887E+03 -2.95708E+03  1.03007E+03 -9.78616E+02  1.85908E+03  1.52414E+03 -5.86961E+02
  6.99956E+03  1.46955E+03 -2.63395E+02  2.53063E+03  4.81322E+03  1.30255E+03 -4.17041E+03 -1.17768E+03
 -3.53698E+02  6.08064E+03  1.18314E+03 -6.10913E+01  3.52676E+02  2.60911E+03 -3.94576E+02  1.92453E+03
 -2.48473E+03 -2.78918E+03  5.29738E+03 -1.28558E+03 -4.52820E+03 -4.63429E+03 -1.31319E+03  1.27226E+03
 -2.13865E+03 -1.58341E+03 -3.82023E+03 -4.27704E+03  2.08028E+03 -2.93343E+03  2.19985E+03 -1.81199E+03
  7.40139E+02 -2.89088E+03 -2.20345E+02  3.78604E+03 -2.52388E+03  3.02093E+03 -4.41674E+03  1.81370E+03
