 $NMID ID='MM_0lb_SNR50_7hz_g60_91.RAW', FMTDAT='(8E13.5)'
 TRAMP=1., VOLUME=1. $END
  3.10786E+05  5.90507E+03  3.33763E+05  2.51745E+05  8.36603E+04  3.37982E+05 -1.35362E+05  2.55978E+05
 -1.90140E+05  8.88906E+04 -1.16589E+05 -3.59183E+04 -1.81903E+03 -5.29227E+04  5.10384E+04  1.74532E+03
  3.06285E+04  5.42086E+04 -1.67182E+04  7.95091E+04 -6.53659E+04  7.02669E+04 -8.42796E+04  2.65808E+04
 -8.65106E+04 -9.09508E+03 -5.73539E+04 -4.75636E+04 -2.28996E+04 -6.85736E+04  2.52295E+04 -5.11831E+04
  3.68814E+04  6.03439E+03  1.48003E+04  4.82914E+04 -3.59827E+04  4.69160E+04 -7.45189E+04 -2.02851E+03
 -5.07349E+04 -5.91537E+04 -6.21463E+03 -8.92129E+04  3.13915E+04 -6.18669E+04  5.00225E+04 -1.75705E+04
  4.86967E+04  1.23821E+04  4.34622E+04  3.47039E+04  1.48980E+04  2.63760E+04 -9.38818E+03  2.61919E+04
 -2.11176E+04  1.55009E+04 -2.04988E+04  3.25361E+03  8.47339E+03 -8.06893E+03  2.59219E+04  1.65447E+04
  1.01716E+04  3.71518E+04 -3.91865E+04  4.22539E+04 -7.08350E+04  6.72829E+03 -5.53470E+04 -4.44709E+04
 -1.22052E+04 -7.11670E+04  3.58407E+04 -5.28915E+04  6.78704E+04 -4.27906E+03  4.08277E+04  3.39404E+04
 -6.43814E+03  4.32002E+04 -3.08517E+04  2.86148E+04 -3.78561E+04 -4.45434E+02 -2.12573E+04 -1.19189E+04
  1.42789E+03 -1.42981E+04  3.14101E+03 -2.19239E+04  6.33293E+03 -3.01939E+04  1.59417E+04 -1.51389E+04
  1.00425E+04  4.78599E+03 -1.45736E+04  1.39087E+04 -2.97050E+04 -1.15663E+04 -1.19787E+04 -3.80221E+04
  3.59162E+04 -5.40956E+04  4.74343E+04 -1.86607E+04  5.30384E+04  2.29655E+04  2.59426E+04  4.30293E+04
 -2.03046E+04  3.47992E+04 -2.92451E+04  4.58802E+03 -9.13957E+03 -3.34170E+04  2.03269E+04 -3.73018E+04
  4.53302E+04 -1.37352E+04  4.53685E+04  2.67442E+04  2.03422E+04  5.53926E+04 -8.50245E+03  5.90316E+04
 -3.53180E+04  4.03657E+04 -5.24425E+04  7.99594E+03 -5.63855E+04 -1.34546E+04 -1.80953E+04 -5.29764E+04
  1.70427E+04 -3.67189E+04  4.19595E+04 -2.26662E+04  3.04887E+04  1.36864E+04  4.56796E+03  1.76950E+04
 -1.20158E+04  1.44596E+04 -1.41936E+04 -6.99170E+03  1.38789E+03 -1.11804E+04  1.70578E+04  3.77400E+03
  1.76113E+04  3.24260E+04 -6.30142E+03  3.12501E+04 -2.12486E+04  1.83682E+04 -4.12909E+04 -2.22423E+03
 -3.08856E+04 -1.54260E+04 -1.59590E+04 -3.10835E+04  8.07123E+03 -3.17826E+04  1.63774E+04 -2.66719E+04
  3.11585E+04 -2.04468E+04  4.64921E+04  5.06296E+03  2.04190E+04  2.72898E+04  8.52458E+03  4.53683E+04
 -3.12425E+04  3.98921E+04 -3.27306E+04  1.77061E+04 -2.31933E+04 -9.41446E+03 -2.62953E+03 -1.18259E+04
 -2.24452E+03  2.08211E+03 -1.05661E+04  1.11455E+04 -1.96264E+04  1.40917E+04 -2.80406E+04 -1.29092E+04
 -2.70110E+03 -2.38999E+04  1.18566E+04 -2.95952E+04  1.68054E+04 -2.05997E+04  2.46582E+04 -9.40903E+02
  2.18290E+04  8.72598E+03  4.35812E+02  1.83683E+04 -2.00733E+04  1.87045E+04 -2.76611E+04 -3.12934E+03
 -1.92970E+04 -2.59140E+04  3.40453E+03 -2.51410E+04  2.31268E+04 -2.08909E+04  3.09000E+04 -2.33828E+04
  2.64735E+04 -2.75816E+03  2.00989E+04  1.16269E+03  1.74049E+04 -2.71073E+03  1.92219E+04 -2.93312E+03
  2.39617E+04  6.38189E+03  3.20208E+04  2.13834E+04  1.98933E+04  4.18291E+04  1.22265E+03  5.84655E+04
 -4.21920E+04  4.18595E+04 -4.49094E+04  2.72430E+04 -5.00780E+04  5.11953E+03 -4.71166E+04 -3.33554E+04
 -1.51163E+04 -4.20926E+04  1.15176E+04 -4.42082E+04  2.93584E+04 -1.71529E+04  2.96573E+04  7.20698E+03
  3.51542E+03  1.78638E+04 -1.84851E+04  1.75345E+04 -2.66796E+04  8.48505E+03 -1.80329E+04 -4.94007E+03
 -5.55451E+01 -1.55028E+04  1.00710E+04 -1.60257E+04  2.06172E+04  2.45587E+03 -1.01625E+03  1.32786E+04
 -2.26861E+04  6.87441E+03 -2.89244E+03 -3.71700E+03 -7.80893E+03 -1.80802E+04  1.84389E+04 -3.32758E+04
  2.23408E+04 -1.15942E+04  3.10133E+04  3.62010E+03  3.75646E+04  2.03243E+04  1.54986E+04  2.96428E+04
 -1.36408E+03  3.30376E+04 -2.16781E+04  1.43624E+04 -2.56238E+04  9.48568E+03 -1.82624E+04 -1.06289E+04
 -8.59923E+03 -6.91708E+03  5.55549E+03  5.91939E+03 -7.83350E+03  1.23758E+04 -3.96360E+03  7.86327E+03
 -1.11143E+04 -1.95247E+03 -1.44866E+04 -2.21040E+04 -8.19826E+03 -2.84079E+04  4.35999E+03 -1.09624E+04
  1.74577E+04 -1.19006E+04  1.92423E+04  2.79388E+03 -2.04540E+03  1.26536E+04 -8.29360E+03  2.99176E+03
 -5.59308E+03 -1.05994E+04  4.83622E+02 -1.83412E+04  1.16618E+04 -1.26718E+04  2.39055E+04 -8.34837E+03
  2.98039E+04  3.07088E+03  1.89952E+04  1.75025E+04  7.71698E+03  2.54285E+04 -1.37108E+04  2.02203E+04
 -9.83838E+03  2.52253E+02 -1.65603E+04 -6.09851E+03  7.47752E+03 -6.34756E+03  1.41099E+04 -2.39875E+03
  6.81709E+03  6.62738E+03  3.04492E+03  1.69028E+04 -1.35590E+04  1.48927E+04 -1.02388E+04 -6.62907E+02
 -1.64702E+04 -1.22720E+04  5.19903E+03 -1.27120E+04  2.02842E+04 -1.23116E+04  8.59299E+03  8.59620E+03
 -9.14852E+02  1.14775E+04 -1.34451E+04  1.40220E+04 -7.68334E+03  8.67767E+03 -1.52824E+04 -1.39771E+04
 -7.03598E+03 -1.92457E+04  5.61385E+03 -2.59672E+04  2.06771E+04 -8.81420E+03  2.19858E+04  3.19985E+03
  1.56652E+04  1.32175E+04 -2.93617E+03  1.91856E+04 -1.06888E+04  1.59710E+04 -1.65909E+04  4.03282E+03
 -1.15372E+04 -1.08489E+04 -3.29538E+03 -1.76666E+04  9.70215E+03 -9.49670E+03  1.39552E+04  4.33224E+02
 -2.76541E+03  1.48951E+03  6.90082E+03 -1.65448E+03 -7.72747E+03 -5.16341E+03  7.67120E+03 -1.13409E+04
  2.00352E+04 -5.45550E+02  2.14753E+04  1.05016E+04  2.53813E+04  1.35364E+04  8.24003E+03  2.88820E+04
 -4.19678E+03  3.10663E+04 -2.34853E+04  1.96111E+04 -3.97554E+04  3.46297E+03 -2.58242E+04 -8.44066E+03
 -1.25564E+04 -2.53204E+04 -7.25140E+03 -1.78683E+04  6.67499E+03 -1.06169E+04  5.85841E+03 -1.01279E+04
  5.40367E+03 -3.16292E+03 -2.04450E+02 -8.45323E+03  7.70901E+03 -3.52470E+03  9.25683E+03 -2.38457E+03
  1.99638E+04 -4.07177E+03  8.81511E+03  8.88372E+03 -2.26924E+03  1.69574E+04 -1.38246E+04  5.75851E+03
 -2.42310E+04 -5.84965E+03 -1.34641E+04 -7.67152E+03  4.25466E+02 -1.14941E+04  1.07929E+04 -1.90265E+04
  2.35506E+04 -1.54772E+04  2.67835E+04  5.23641E+03  1.89829E+04  2.07023E+04  4.53753E+02  2.73702E+04
 -1.05131E+04  1.88955E+04 -1.38752E+04  4.44708E+03 -1.55175E+04  4.46771E+03 -3.25574E+03 -8.70022E+03
  1.71287E+03 -1.16092E+04 -1.57801E+03  2.61105E+03 -2.29962E+03  6.11472E+03 -1.21327E+04 -3.77512E+03
 -9.92549E+03 -1.28796E+04 -5.07040E+03 -1.97682E+04  1.27433E+04 -1.13977E+04  1.77452E+04 -8.55157E+03
  2.66349E+04  4.27887E+03  1.86462E+03  2.17213E+04 -7.59586E+03  1.52164E+04 -1.78205E+04  1.35166E+04
 -1.72406E+04  4.26163E+03 -1.03871E+04 -1.19951E+04 -6.60890E+03 -1.43991E+04  9.54528E+03 -1.34520E+04
  1.32439E+04 -7.90086E+03  1.21435E+04 -2.23561E+03 -1.13664E+03  5.28438E+03  7.34824E+03  3.05637E+03
 -2.40941E+03  5.35385E+03  9.42562E+03  9.57661E+03  2.91831E+03  7.21028E+03  3.81770E+03  9.62053E+03
 -7.68755E+03  1.71253E+04 -1.89079E+04  6.73252E+03 -2.06344E+04 -4.44623E+03 -2.82314E+04 -1.28084E+04
 -8.77541E+03 -2.70886E+04  5.94571E+03 -2.15151E+04  1.47646E+04 -1.20171E+04  2.21148E+04 -4.84136E+03
  1.89481E+04  1.23978E+04  1.01412E+04  1.16357E+04 -3.46877E+03  1.10473E+04 -5.49143E+03  2.47968E+03
  4.31369E+03 -7.98458E+03  1.17931E+04 -8.51269E+03  6.59698E+03 -5.15793E+03  1.20486E+04 -3.22776E+03
  8.82884E+03  1.25587E+04  8.07056E+03  1.49673E+03  3.02228E+02 -1.71351E+03 -1.62569E+03 -1.46083E+03
  5.18390E+03  3.30533E+03  3.98184E+03 -4.05328E+03  9.97471E+03  1.38911E+04 -9.19616E+03  1.55276E+04
 -1.27569E+04  1.30521E+04 -1.18710E+04  8.11308E+03 -7.92337E+02  5.57571E+02 -6.54565E+03 -4.47478E+03
  2.49723E+03 -9.28245E+03  6.71864E+03 -1.07820E+02  2.62987E+03  1.66762E+03 -4.68273E+03  1.51308E+03
 -1.07464E+04  2.72808E+02 -7.25926E+03 -2.79658E+03 -7.12558E+03 -1.40235E+04  4.31832E+03 -2.50531E+03
  5.09505E+03 -1.14699E+04  1.13342E+04 -3.42396E+03  1.50872E+03  2.24714E+03 -1.14622E+03  1.04759E+04
 -5.41956E+03  6.33757E+03 -1.43407E+04 -8.84966E+03 -7.19229E+02 -1.05747E+04  1.43861E+04 -5.31660E+03
  9.94392E+03  1.80501E+03  1.20723E+04  4.53553E+03  1.11834E+04  1.68728E+04 -4.97682E+03  1.31495E+04
 -1.73058E+04  5.91011E+03 -1.46574E+04  3.17538E+03 -1.00734E+04 -3.66116E+03 -3.91982E+03 -9.79680E+03
  8.54364E+03 -9.23525E+03  1.20387E+04  4.00394E+02  5.50726E+03  6.10179E+03 -4.75320E+03  1.70821E+04
 -9.71003E+03  6.24145E+03 -3.78264E+02  1.14033E+04 -4.97103E+03  9.65808E+02 -5.36919E+03  2.91853E+03
 -1.14133E+04 -2.62218E+03 -1.85871E+04  8.04731E+03 -2.28166E+04  1.18649E+02 -1.51086E+04 -1.31378E+04
 -3.92336E+03 -2.05138E+04  1.06580E+04 -1.84752E+04  1.83331E+04 -1.89358E+04  1.64915E+04 -7.43146E+03
  1.63702E+04  9.52656E+02  1.18363E+04  2.17357E+04  7.28297E+02  2.12710E+04 -7.06144E+03  1.22448E+04
 -1.62280E+04  3.12780E+03 -1.93735E+03 -2.92359E+03 -2.25853E+03  5.43032E+01  4.89885E+03  1.09371E+03
  1.21538E+03 -5.17138E+02  1.15929E+03  7.91729E+02 -1.42016E+03 -1.20714E+03 -2.54451E+03 -3.46652E+03
  1.86607E+03 -3.71257E+03  7.42002E+03  1.31283E+03  1.71158E+04  5.51876E+03  2.02509E+02  1.50347E+04
 -1.22587E+04  1.64423E+04 -1.36848E+04  4.60510E+03 -2.26960E+04 -1.89254E+03 -1.20259E+04 -7.63846E+03
 -8.55215E+03 -2.02432E+04  1.32997E+03 -1.55891E+04  5.93222E+03 -2.73415E+03  1.24815E+04  1.32130E+03
  5.06686E+03  1.44838E+03  7.27544E+02  4.00075E+03  8.55164E+03 -2.31496E+03 -2.24672E+03 -4.52421E+02
  1.00162E+04 -8.84772E+01  6.52838E+03 -2.69172E+03  7.47573E+03  5.03789E+03 -3.68706E+03  7.89294E+03
 -7.36928E+03  6.72649E+03 -1.45967E+04  1.25669E+03 -1.26667E+04 -8.09981E+03  8.56655E+02 -1.00329E+04
  1.00692E+04 -1.39978E+04  1.28684E+04  2.21946E+02  7.25648E+03  7.12387E+03  1.01112E+04  5.37499E+03
 -7.70284E+03  1.05099E+04 -2.23485E+03  4.37795E+03 -7.56744E+03  5.38407E+03 -5.99605E+03  3.42273E+03
 -5.58519E+02 -7.46511E+03  3.22189E+03  2.01987E+03 -6.94008E+03 -4.05809E+03 -7.25587E+03 -5.55506E+03
 -8.85728E+03 -7.33828E+03  1.81508E+02 -1.39088E+04  5.52644E+03 -2.71315E+03  1.36428E+04 -5.86568E+03
  9.94194E+03  6.39043E+03  1.44302E+03  8.04975E+03 -6.60529E+02  3.80453E+03 -1.40975E+04 -3.53608E+03
