 $NMID ID='MM_0lb_SNR50_10hz_g45_30.RAW', FMTDAT='(8E13.5)'
 TRAMP=1., VOLUME=1. $END
  3.08531E+05  2.50689E+03  3.30173E+05  2.50382E+05  8.48999E+04  3.36205E+05 -1.29992E+05  2.56275E+05
 -1.88927E+05  8.81730E+04 -1.07639E+05 -3.68315E+04 -3.61666E+03 -5.09577E+04  5.67837E+04 -5.02319E+03
  3.30680E+04  4.83407E+04 -1.73641E+04  7.83396E+04 -6.55363E+04  6.56101E+04 -8.25892E+04  3.50573E+04
 -8.34750E+04 -1.34229E+04 -5.58150E+04 -5.90912E+04 -1.56416E+04 -7.45239E+04  2.71618E+04 -4.84119E+04
  3.73853E+04  4.74026E+03  1.29425E+04  4.37542E+04 -3.44920E+04  4.85403E+04 -7.05182E+04 -8.77110E+02
 -5.22683E+04 -5.42891E+04 -7.89513E+03 -7.96921E+04  3.54924E+04 -5.60104E+04  5.04227E+04 -1.46255E+04
  5.10394E+04  1.11743E+04  2.99532E+04  3.23618E+04  1.34121E+04  3.14475E+04 -5.64980E+03  2.35115E+04
 -2.49614E+04  1.12019E+04 -2.09238E+04  1.37303E+03  1.01463E+04 -5.99707E+03  2.46323E+04  1.83838E+04
  1.00666E+04  3.63405E+04 -3.07587E+04  3.73145E+04 -6.20789E+04  6.55226E+02 -6.18158E+04 -4.55982E+04
 -1.16300E+04 -5.98198E+04  4.29438E+04 -4.27985E+04  5.73224E+04  3.08528E+03  3.56782E+04  2.95420E+04
 -6.14361E+03  4.46361E+04 -2.82757E+04  1.51941E+04 -3.44317E+04 -1.92935E+03 -1.61805E+04 -1.23418E+04
 -1.09795E+04 -1.59086E+04  1.56622E+03 -1.70318E+04  7.23252E+03 -2.53260E+04  1.29604E+04 -1.39809E+04
  9.30587E+03  1.21834E+03 -1.05379E+04  1.03943E+04 -1.93803E+04 -1.60052E+03 -8.23271E+03 -3.99451E+04
  1.94047E+04 -4.45337E+04  5.43444E+04 -2.08143E+04  4.33295E+04  1.45910E+04  1.11896E+04  4.85063E+04
 -1.07991E+04  3.30631E+04 -3.13083E+04 -3.31425E+02 -1.03056E+04 -3.77946E+04  2.32253E+04 -3.77095E+04
  4.35096E+04 -6.78729E+03  3.40068E+04  2.87209E+04  1.95606E+04  4.79193E+04 -1.26069E+04  5.89213E+04
 -3.40956E+04  4.40769E+04 -4.44466E+04  8.91198E+03 -4.38671E+04 -1.54161E+04 -2.49800E+04 -4.42613E+04
  5.01709E+03 -4.13623E+04  2.63584E+04 -2.12895E+04  3.48572E+04  1.04520E+04  5.03847E+03  2.12821E+04
 -1.44129E+04  1.46019E+04 -1.65804E+04 -1.72071E+03  6.36910E+03 -4.75643E+03  2.08037E+04  7.75774E+03
  1.67280E+04  2.19454E+04 -2.47841E+03  3.23383E+04 -2.05579E+04  1.51641E+04 -2.94993E+04  1.06421E+03
 -2.25620E+04 -1.98751E+04 -1.11151E+04 -2.59416E+04  5.39639E+03 -2.70926E+04  1.63508E+04 -2.18760E+04
  3.11016E+04 -1.45128E+04  3.69948E+04  9.68112E+03  3.04045E+04  2.45248E+04  4.23205E+03  4.50363E+04
 -1.82073E+04  3.18773E+04 -3.36854E+04  1.57676E+04 -2.45557E+04 -1.09377E+04 -7.35694E+03 -7.36112E+03
 -3.24759E+02  2.54189E+03 -7.04165E+03  1.07988E+03 -1.35874E+04  9.08715E+03 -1.30757E+04 -6.39318E+03
 -1.07494E+04 -1.82179E+04  6.86351E+03 -2.89925E+04  1.96927E+04 -2.04684E+04  2.14434E+04 -5.47330E+03
  1.33931E+04  1.58409E+04  3.10286E+03  1.68906E+04 -1.17214E+04  1.22512E+04 -2.22158E+04 -5.91211E+03
 -8.57176E+03 -1.71799E+04 -8.14786E+03 -2.27567E+04  1.38260E+04 -2.38654E+04  2.23899E+04 -1.28274E+04
  1.68348E+04 -8.52549E+03  2.01626E+04  9.71116E+03 -1.84855E+03  2.50282E+03  1.03561E+04  2.08847E+03
  2.03774E+04  5.12345E+03  2.40988E+04  1.85436E+04  1.15549E+04  3.30946E+04 -2.61248E+03  4.19711E+04
 -2.56584E+04  3.27120E+04 -3.60320E+04  1.39526E+04 -3.59293E+04 -1.92524E+02 -3.09653E+04 -2.94458E+04
 -1.78684E+04 -3.15846E+04  8.62035E+03 -2.63222E+04  3.17328E+04 -9.69420E+03  2.22756E+04  5.41850E+03
  8.51276E+03  1.47291E+04 -1.32903E+04  8.93180E+03 -1.57531E+04  5.86021E+03 -1.55064E+04 -1.48020E+04
 -2.47452E+03 -1.90088E+04  8.85160E+03 -1.36554E+04  1.27298E+04 -4.64345E+03  3.95255E+03  4.12893E+03
 -1.08523E+04  4.90125E+03 -1.09709E+04 -6.52865E+03 -7.94772E+03 -1.21926E+04  1.36112E+04 -2.08401E+04
  2.28585E+04 -1.48568E+04  2.59373E+04 -9.78829E+02  2.20549E+04  1.63853E+04  9.42443E+03  2.76508E+04
 -1.03211E+04  3.16908E+04 -1.17753E+04  2.06636E+04 -1.97778E+04  8.52267E+03 -1.22723E+04 -3.36157E+03
 -1.01504E+04 -3.02782E+03 -4.79712E+02  8.86795E+02 -5.37983E+03  5.98061E+03 -7.30666E+02 -7.63270E+02
 -1.60989E+04  1.60998E+03 -1.70663E+04 -1.74710E+04 -1.04797E+04 -2.12721E+04  1.07990E+03 -1.75570E+04
  1.53995E+04 -1.00795E+04  1.09951E+04 -2.64678E+03 -5.10685E+03  9.25448E+03 -8.11028E+03  3.71188E+02
 -5.42759E+03 -8.15213E+03 -4.06612E+03 -1.81978E+04  4.33460E+03 -1.25731E+04  2.07049E+04 -8.44428E+03
  2.34512E+04 -2.55123E+03  1.01068E+04  8.51574E+03  9.84077E+02  1.35762E+04 -1.38174E+04  2.22098E+04
 -7.01555E+03  9.75256E+03 -4.31076E+03 -5.43685E+03  4.32199E+03  3.99946E+02  5.31568E+03 -3.12401E+03
  3.44439E+03  6.93254E+03  2.97871E+03  1.49954E+04 -9.81504E+03  1.44591E+04 -1.41366E+04  5.97327E+03
 -1.35288E+04 -9.56763E+03  8.89305E+01 -1.42362E+04  1.06346E+04 -4.52248E+03  6.03181E+03  2.02355E+03
  4.56718E+03  1.27282E+04 -7.14789E+03  1.37301E+04 -1.17786E+04 -1.60725E+03 -1.28995E+04 -2.48299E+03
 -1.69729E+03 -1.49727E+04  3.72318E+03 -1.49553E+04  1.31871E+04 -8.77642E+03  1.06051E+04  3.76677E+03
  3.50783E+03  9.96441E+03  4.35661E+02  1.61630E+04 -1.07602E+04  7.34672E+03 -1.31468E+04  1.92389E+03
 -1.07311E+04 -8.49720E+03  3.02977E+03 -6.99668E+03 -4.01792E+01 -1.00649E+04  9.13242E+03 -4.91607E+03
  7.45300E+03  7.40817E+02 -2.19633E+03  2.42472E+03  1.49533E+03 -6.23727E+03  3.71204E+03 -7.51084E+03
  4.27293E+03 -4.89840E+03  1.16260E+04  5.63609E+03  9.37380E+03  9.04320E+03  6.00631E+03  1.99154E+04
 -5.32214E+03  1.75130E+04 -1.80691E+04  2.03490E+04 -2.15741E+04  2.98915E+03 -1.58433E+04 -2.89312E+03
 -1.33921E+04 -1.14016E+04  3.53084E+03 -1.38698E+04  6.41748E+03 -5.71235E+03  1.28850E+03 -6.55935E+03
  3.08564E+02  1.67937E+03 -1.39297E+03 -7.33137E+03  6.35476E+03 -4.98719E+03  8.32214E+03 -6.49592E+03
  1.06430E+04 -5.24980E+03  5.35044E+03  6.15052E+03 -4.75776E+03  7.07319E+03 -1.29299E+04  2.70969E+03
 -1.44282E+04 -4.46513E+03 -1.10290E+04 -8.36030E+03 -4.02985E+02 -1.73542E+04  1.04708E+04 -1.10379E+04
  2.06980E+04 -6.11096E+03  1.55064E+04  3.56973E+03  1.44371E+04  1.21195E+04  3.31634E+03  1.82048E+04
 -4.30478E+03  1.38610E+04 -8.38099E+03  5.11136E+03 -3.72823E+03 -1.68436E+03 -5.12596E+03 -4.11865E+03
 -7.34720E+03  3.32548E+03  2.90708E+03  5.15607E+03  7.86568E+02 -2.74721E+03 -3.23861E+03  4.35293E+03
 -3.00054E+03 -7.57658E+03  1.36742E+03 -1.19583E+04  2.90410E+03 -1.49016E+04  1.03613E+04  1.09139E+03
  1.28501E+04  4.48693E+03  4.23125E+03  1.12791E+04 -5.23637E+03  1.44694E+04 -6.41315E+03  4.10333E+03
 -7.38162E+03  1.68060E+03 -7.04700E+03 -4.45093E+03 -1.97622E+03 -1.32878E+04  7.30944E+03 -5.85551E+03
  6.42679E+03 -4.53601E+03 -4.78427E+02  4.53342E+03 -1.30367E+03  1.13611E+03  3.12227E+03  3.68966E+03
  1.56330E+03  7.30040E+02  2.82238E+03  2.79414E+03  1.99246E+03  8.18479E+03  2.91684E+03  6.55088E+03
  2.35981E+03  1.41630E+04 -1.15979E+04  1.37940E+04 -1.49256E+04  7.09405E+03 -1.42473E+04 -9.90988E+03
 -1.02794E+04 -1.31409E+04  4.62777E+03 -2.05832E+04  5.32664E+03 -1.14601E+04  1.11999E+04 -5.89296E+03
  9.21435E+03  1.06890E+03 -3.91378E+02  6.74647E+03 -7.03028E+02  9.23870E+03 -3.32626E+03  2.08734E+03
  5.22026E+03 -5.34917E+03 -1.15024E+02 -6.53497E+03  3.83394E+03 -3.40972E+03  8.20067E+03  2.53467E+03
 -3.41293E+03  1.50027E+03  1.56191E+03  4.85059E+03 -3.58870E+02  2.80488E+03 -2.06518E+03  3.50448E+03
 -1.29732E+02  8.41835E+03  1.95008E+03  1.20988E+03  6.13864E+03  4.30429E+03  1.98494E+03  9.78050E+03
 -1.35457E+04  4.60018E+03 -9.04296E+03  4.20001E+03 -1.09432E+04 -3.18916E+03 -8.69727E+02 -1.21759E+04
 -3.43216E+03 -3.34675E+03 -3.15242E+03 -1.36199E+02  3.42875E+03  4.53824E+03 -3.22896E+03  2.44048E+03
 -8.91647E+03  5.37292E+03 -9.18087E+03 -1.20453E+03 -4.20982E+03 -6.25362E+03 -5.47038E+03 -1.31130E+04
  2.97640E+03 -1.27793E+04  5.17496E+03 -3.92675E+03  3.54171E+03 -2.50011E+02 -3.02781E+03  3.62212E+03
 -9.43517E+02  8.08116E+03 -4.95178E+03 -4.95907E+03 -2.58741E+03 -1.01212E+04  9.57808E+03 -6.42761E+03
  9.77411E+03 -3.81882E+03  6.52156E+03  2.71881E+03  4.06664E+02  3.87319E+03 -1.09333E+03  1.28941E+04
 -1.32363E+03  2.75973E+03 -4.45560E+03 -2.69406E+03 -2.01835E+02 -9.63950E+03  1.83997E+03 -6.29616E+03
  6.37459E+03  2.29169E+03  1.05067E+04  1.89811E+03  5.04537E+03  1.19849E+03  1.80385E+03  2.80661E+03
 -5.20023E+03  1.54555E+03 -4.78724E+03  4.82948E+03  2.21315E+03  3.89975E+03 -4.65038E+03 -1.20342E+03
 -4.33198E+02 -1.56075E+02  1.15939E+03 -3.27240E+02 -2.37479E+03 -2.34237E+03 -1.33545E+04 -3.71275E+03
 -1.38439E+03 -1.33536E+04  6.84293E+03 -1.04425E+04  6.36282E+03 -1.04559E+04  1.24157E+04 -6.53947E+03
  1.30890E+04 -4.99679E+03  7.56252E+03  7.65445E+03 -2.86088E+02  7.00844E+03  1.03135E+03  5.00107E+03
 -1.10843E+04  1.47474E+03 -2.63675E+02  3.53132E+03 -2.97067E+03 -1.96099E+03 -4.92808E+03 -3.99398E+03
  9.94706E+02 -3.28458E+03  1.57265E+03 -1.37620E+03 -5.42320E+03 -5.80462E+03 -2.14319E+03  8.44347E+02
  1.04000E+03 -3.18877E+03  6.32338E+03 -1.98565E+03  9.09852E+03  5.96654E+03  1.65576E+03  8.65611E+03
 -8.38250E+03  1.27359E+04 -1.54653E+04  6.32664E+03 -1.02435E+04  2.57125E+03 -3.37061E+02 -4.99081E+03
 -1.52623E+03 -7.28911E+03  4.03350E+03 -1.25170E+04  2.97818E+03 -1.80635E+03 -6.13824E+02  2.52210E+03
  2.35123E+03  6.08611E+03 -1.39097E+03  2.85093E+03 -7.46832E+03 -4.22806E+03 -2.64435E+03 -2.46863E+03
  2.00348E+03 -3.43784E+03  2.34798E+03 -1.69292E+03  8.62308E+02 -1.86946E+03 -4.74708E+03  2.08057E+03
  4.23516E+01  1.14205E+04 -8.89470E+03  4.19658E+03 -6.04824E+03 -2.23786E+03 -2.14568E+02 -1.03594E+04
  4.61030E+03 -1.26760E+04  7.14969E+03 -1.58331E+03  8.77818E+03 -2.46121E+03  9.41568E+03  3.41344E+03
  9.90248E+03  1.10105E+03 -3.06440E+03  6.07317E+03 -3.82823E+03  9.80921E+02 -5.12389E+03  1.89133E+03
 -2.13906E+03  1.16859E+04 -3.07012E+03 -1.70679E+03 -2.78311E+03 -2.73219E+03 -4.40476E+03 -2.94489E+03
 -8.75702E+03 -2.96826E+03  2.03427E+03 -1.23121E+04 -2.07361E+03 -6.18536E+03  8.88566E+03 -9.47570E+02
  1.41111E+03  3.22538E+03 -2.81494E+03  3.65167E+03 -5.88070E+03  3.42720E+03  6.16664E+02  7.70331E+03
