 $NMID ID='MM_0lb_SNR50_7hz_g40_2.RAW', FMTDAT='(8E13.5)'
 TRAMP=1., VOLUME=1. $END
  3.13487E+05  5.08857E+03  3.38295E+05  2.53723E+05  8.59042E+04  3.36651E+05 -1.38337E+05  2.55826E+05
 -1.87269E+05  7.85857E+04 -1.11498E+05 -2.62231E+04 -1.37819E+03 -5.22105E+04  4.85558E+04  9.30225E+02
  4.12064E+04  5.19379E+04 -1.90918E+04  7.63315E+04 -5.54845E+04  6.15680E+04 -8.30270E+04  2.75587E+04
 -7.47649E+04 -1.77881E+04 -5.93333E+04 -5.99875E+04 -1.93252E+04 -6.99936E+04  3.04938E+04 -4.49191E+04
  4.27780E+04  6.58139E+03  1.49973E+04  5.07661E+04 -3.03924E+04  4.61976E+04 -7.22996E+04  2.86662E+03
 -6.21259E+04 -5.12190E+04 -1.37930E+04 -7.66318E+04  3.90790E+04 -5.45651E+04  4.90125E+04 -1.96332E+04
  4.44461E+04  1.15014E+04  3.70790E+04  3.26957E+04  1.72631E+04  2.58409E+04 -1.76355E+03  1.79747E+04
 -2.69366E+04  9.93893E+03 -1.06539E+04 -2.87568E+03  6.17448E+03 -6.42898E+03  2.28313E+04  7.78794E+03
  6.50686E+03  3.87574E+04 -4.48297E+04  3.12595E+04 -6.63086E+04  6.91868E+03 -5.79975E+04 -4.48270E+04
 -1.90628E+04 -7.37382E+04  4.53846E+04 -5.24986E+04  6.35857E+04 -3.99279E+03  3.87057E+04  3.40225E+04
 -8.50114E+03  3.57676E+04 -2.63006E+04  2.18858E+04 -3.39223E+04 -1.33197E+02 -1.12591E+04 -1.04139E+04
 -1.28678E+04 -1.88827E+04  4.63789E+03 -2.10195E+04  6.76445E+03 -1.87758E+04  7.64508E+03 -1.35777E+04
  1.10028E+04  1.50691E+03 -1.28381E+04  1.68156E+04 -2.74451E+04 -1.24995E+04 -1.58490E+04 -3.32907E+04
  2.25343E+04 -4.76838E+04  4.93502E+04 -2.71364E+04  5.00663E+04  2.88351E+04  1.43829E+04  4.67465E+04
 -1.78765E+04  3.23054E+04 -3.48586E+04  5.94170E+02 -1.18485E+04 -3.25681E+04  2.03731E+04 -2.96993E+04
  4.99275E+04 -6.11702E+03  4.50801E+04  2.47834E+04  2.05632E+04  5.47347E+04 -6.88963E+03  5.51380E+04
 -3.16563E+04  4.80205E+04 -4.66048E+04  6.35155E+03 -4.52831E+04 -1.69722E+04 -2.50386E+04 -3.86948E+04
  7.66570E+03 -4.32353E+04  3.73124E+04 -1.62747E+04  3.02603E+04  6.12594E+03  3.07911E+03  2.46528E+04
 -1.48334E+04  1.14749E+04 -1.68705E+04 -2.61764E+03 -2.04938E+03 -8.53637E+03  1.98905E+04  5.86492E+03
  1.95365E+04  3.06424E+04 -1.25109E+03  2.61784E+04 -2.18777E+04  2.03458E+04 -3.19067E+04 -5.81662E+03
 -2.76318E+04 -1.48559E+04 -7.79691E+03 -2.70026E+04  6.26914E+03 -2.30544E+04  2.18908E+04 -1.95254E+04
  3.38874E+04 -1.49164E+04  3.66266E+04  4.80101E+03  2.24678E+04  2.74160E+04  2.12634E+03  4.41726E+04
 -2.36359E+04  3.23616E+04 -2.33533E+04  1.67713E+04 -2.34042E+04 -3.95257E+03 -3.07340E+03 -9.09191E+03
 -5.20872E+02 -1.46866E+03 -1.16926E+04  1.83342E+04 -2.68176E+04  8.40292E+03 -2.97539E+04 -5.59493E+03
 -7.22554E+03 -2.38796E+04  6.59044E+03 -2.78627E+04  2.01051E+04 -2.06428E+04  2.40739E+04  2.33720E+03
  8.64356E+03  1.90529E+04 -4.77540E+03  2.43988E+04 -1.17773E+04  1.64173E+04 -2.09205E+04 -4.02492E+03
 -1.56081E+04 -1.62054E+04  1.68327E+03 -2.94799E+04  1.62795E+04 -2.68430E+04  2.82871E+04 -8.97031E+03
  2.25174E+04  3.37264E+03  1.51826E+04  7.01641E+03  5.41860E+03  8.00767E+03  1.41247E+04 -3.34704E+03
  2.43481E+04  2.64109E+03  2.76441E+04  1.58760E+04  1.57030E+04  3.49842E+04 -3.93279E+03  4.94733E+04
 -2.81371E+04  3.74349E+04 -3.85013E+04  2.44906E+04 -4.80105E+04 -3.55030E+03 -4.71405E+04 -2.35170E+04
 -1.63785E+04 -3.72599E+04  1.55172E+04 -2.84002E+04  2.95637E+04 -1.80238E+04  2.38616E+04  1.08596E+04
  7.08119E+03  1.53598E+04 -1.82495E+04  1.52124E+04 -1.61667E+04  3.97136E+03 -1.32157E+04 -1.36331E+04
  1.08710E+03 -2.29849E+04  1.25178E+04 -6.59539E+03  8.32971E+03 -2.35527E+03  1.39999E+04  8.36886E+03
 -6.58854E+03  2.71261E+03 -1.24072E+04 -4.48592E+03 -2.42047E+02 -1.81138E+04  1.26774E+04 -1.58227E+04
  2.42640E+04 -1.12023E+04  2.55893E+04  4.85780E+03  2.57955E+04  1.55537E+04  1.54019E+04  2.99961E+04
 -2.96528E+03  4.00127E+04 -2.30251E+04  1.86887E+04 -2.26562E+04  5.17362E+03 -1.07068E+04 -1.25701E+04
 -8.82249E+03 -8.61049E+03 -8.73898E+03 -2.58470E+03 -5.14787E+03  2.15420E+03 -7.88556E+03  7.76328E+03
 -1.88739E+04  5.94759E+03 -1.05858E+04 -1.71894E+04 -6.36665E+03 -1.85189E+04  4.67437E+03 -8.62917E+03
  1.42534E+04 -5.39007E+03  6.46541E+03  4.30835E+03 -5.67511E+03  6.36260E+03 -1.82163E+03  3.34158E+02
 -1.02247E+03 -1.40901E+04  2.18932E+03 -1.65299E+04  6.41128E+03 -2.87868E+04  2.19022E+04 -2.33003E+03
  3.44383E+04 -1.39121E+03  1.53256E+04  1.36848E+04  9.39293E+03  2.25938E+04 -4.05277E+02  1.14902E+04
 -1.86735E+04 -6.21668E+03 -1.13403E+04 -5.23470E+03  4.26101E+03 -1.11110E+04  6.58140E+03 -3.39251E+02
  1.04996E+04  1.33471E+04  7.55063E+02  1.22212E+04 -5.51031E+03  1.56938E+04 -2.16692E+04  2.95339E+03
 -1.58193E+04 -5.19833E+03 -9.94971E+02 -1.48392E+04  1.23707E+04 -7.69903E+03  1.31154E+04  5.21222E+03
  3.83855E+03  1.19757E+04 -8.77033E+03  8.59333E+03 -1.79439E+04  2.07430E+02 -1.30116E+04 -1.54889E+03
 -8.11880E+03 -1.28400E+04  6.08079E+03 -1.98867E+04  2.02871E+04 -7.37093E+03  2.42304E+04 -7.02523E+02
  9.84277E+03  1.95733E+04  2.20365E+03  2.30444E+04 -1.38288E+04  1.09808E+04 -7.28557E+03 -1.25615E+03
 -1.33129E+04 -1.18386E+04 -4.08778E+02 -1.75063E+04  1.29839E+04 -1.25162E+04  2.37807E+03 -9.98202E+03
  2.52399E+03  3.01253E+03  1.90687E+03  9.88904E+02  3.06117E+03 -2.60849E+03 -1.20139E+03 -1.36760E+04
  1.06828E+04 -1.96618E+03  1.44613E+04  6.43745E+03  1.79720E+04  1.08539E+04  9.54784E+03  2.31751E+04
 -2.74598E+03  2.72290E+04 -2.27630E+04  1.70504E+04 -3.49265E+04 -2.44715E+03 -2.47292E+04 -1.30048E+04
 -1.70991E+04 -1.59584E+04 -1.28858E+03 -1.58553E+04  4.02174E+02 -1.08344E+04  9.86824E+03 -6.80488E+03
  1.00549E+03 -1.49696E+03 -5.60149E+03  2.38598E+03  1.26816E+04 -4.07522E+03  3.22307E+03  7.56731E+03
  1.59579E+04  5.81330E+03  1.23846E+04  2.18271E+03 -9.06947E+03  1.54571E+04 -1.31929E+04  1.72047E+04
 -2.06299E+04  2.24359E+03 -1.27266E+04 -3.26509E+03  2.00503E+03 -1.73690E+04  1.37096E+04 -2.64895E+04
  1.62341E+04 -9.85573E+03  2.41763E+04  8.15657E+03  1.93560E+04  1.56215E+04 -2.03497E+03  2.16796E+04
 -1.19951E+03  1.93408E+04 -8.91060E+03  1.19875E+04 -9.96774E+03 -2.21073E+03  1.74532E+03  2.75931E+02
  4.37565E+03  6.02925E+03 -3.03173E+02  7.69499E+02 -1.51522E+04  2.84091E+03 -6.11173E+03  2.84908E+03
 -8.20884E+03 -7.11776E+03 -3.26793E+03 -1.40010E+04  1.42452E+04 -2.00005E+04  1.85147E+04 -1.15965E+04
  1.32091E+04  8.34840E+03  6.05451E+03  1.76211E+04  1.76237E+03  2.21767E+04 -1.17530E+04  2.68174E+03
 -1.36020E+04 -7.00536E+03 -1.86586E+04 -1.08708E+04 -8.99681E+03 -2.38350E+04  1.31961E+04 -1.65106E+04
  1.34313E+04 -4.55278E+03  4.36264E+03  2.13508E+03  5.98612E+02  2.61895E+03  8.18835E+03  3.30171E+03
  4.81320E+03 -4.37763E+03  2.89351E+03 -7.90873E+02  3.54310E+03  1.37952E+03 -1.84282E+03  8.15891E+03
  1.48414E+03  9.98037E+03 -1.55838E+04  1.69296E+04 -1.53056E+04  6.87320E+03 -2.19739E+04 -1.10277E+04
 -5.75266E+03 -1.05714E+04  1.26425E+03 -2.20103E+04  9.35159E+03 -1.25990E+04  1.50127E+04 -4.64231E+03
  1.13396E+03  7.71983E+03  1.07452E+03  5.47373E+03 -4.83098E+03  9.45584E+03 -3.79716E+03  2.56302E+03
  3.07443E+03 -4.89587E+03  1.46549E+04 -1.20335E+04  1.50238E+04 -2.12491E+03  1.14324E+04 -5.07381E+03
  2.14646E+03  6.02289E+03  2.12165E+03 -1.71313E+03  9.86587E+02  5.22355E+03  1.11057E+02 -3.37481E+03
  7.65533E+03 -5.03797E+03  6.43193E+03  6.67975E+03  7.61719E+03  1.16323E+04  2.14319E+03  2.02525E+04
 -1.56060E+04  6.68240E+03 -1.32797E+04  9.70864E+03 -1.11017E+04 -3.37713E+03 -2.76027E+03 -9.97751E+03
  7.11389E+03 -4.92175E+03  8.33460E+03  3.00894E+02  1.08156E+04  1.25743E+03  3.90807E+03  6.50821E+03
 -6.40762E+03  7.70660E+03 -5.02461E+03 -4.30974E+03 -5.53201E+03 -1.15394E+04  1.24318E+02 -1.34978E+04
  1.18083E+04 -9.01646E+03  1.08416E+04  1.23000E+03  7.70243E+03  6.23357E+03  8.16338E+03  3.09004E+03
 -6.59274E+02  4.14869E+03 -1.65933E+02 -6.86429E+03 -2.40146E+02 -4.35455E+03  1.56428E+04 -6.36835E+03
  6.47340E+03 -2.92854E+02  1.18867E+04  8.97164E+03  3.81991E+03  7.56563E+03 -5.83832E+03  1.60474E+04
 -1.08501E+04  9.26101E+03 -9.76751E+03 -4.64711E+03 -1.09814E+04 -6.17346E+03  4.51954E+03 -1.11300E+04
  1.35125E+04 -1.31502E+04  3.70629E+03 -8.42595E+01 -1.34025E+03  7.68088E+03  7.04091E+02  1.35267E+04
 -1.00602E+04  2.75289E+03 -5.66047E+03 -3.14268E+03  5.04542E+03 -2.44321E+03 -2.97100E+03  3.10691E+03
 -8.55869E+03  8.15520E+03 -8.01713E+03  3.78008E+03 -1.68091E+04 -2.46033E+03 -1.38375E+04 -1.38271E+04
 -4.58005E+03 -2.66721E+04  2.22644E+03 -1.94245E+04  6.87080E+03 -1.26369E+04  1.73523E+04 -8.93358E+03
  1.37168E+04  3.60079E+03  6.62216E+03  1.24447E+04  3.94579E+03  2.18346E+04  2.74570E+01  8.42139E+03
 -3.84447E+03  9.25182E+02  2.00850E+03 -2.00690E+02  1.56857E+03  3.86731E+03  5.16636E+03  7.84719E+02
 -7.24524E+03 -6.78064E+03 -1.45793E+03 -2.12961E+03  7.90882E+03 -2.78099E+03  1.63022E+03 -1.04432E+04
 -2.43877E+03 -2.24512E+03  1.00133E+04 -7.22299E+03  9.89588E+03  4.52527E+03 -5.95592E+03  1.64756E+04
 -3.18229E+03  1.46758E+04 -1.11469E+04  1.01515E+04 -1.98092E+04 -9.71794E+03 -1.48342E+04 -4.89043E+03
 -1.07785E+04 -1.56209E+04  3.40030E+03 -1.32203E+04  9.14805E+03 -9.71663E+03  1.23173E+04  5.96757E+03
  1.14874E+03  3.64911E+03  4.87338E+03  2.28177E+03 -8.95889E+03 -7.73743E+02  9.52252E+03 -3.41880E+03
 -1.12226E+03  2.56632E+02  6.96447E+03  5.28398E+03  5.42803E+03  6.00813E+03  2.01274E+03  1.93236E+04
 -7.51139E+03  8.41750E+03 -1.76931E+04 -1.08873E+03 -7.26211E+03 -6.23898E+02  2.16173E+03 -1.08094E+04
  1.12130E+04 -1.03573E+04  1.17472E+04 -2.00732E+03  1.47167E+04  2.07561E+02  8.44886E+03  6.57308E+03
 -3.32094E+03  1.23860E+04  3.10479E+03  3.59359E+03 -2.35318E+03  3.34510E+03 -4.62132E+03 -3.01937E+03
 -1.73740E+03  2.13246E+03 -4.58631E+03  5.32505E+03 -8.65218E+03  1.91593E+03 -1.16602E+03 -3.39013E+03
 -1.11519E+02 -9.79849E+03 -3.59025E+03 -1.12726E+04  6.66949E+03 -1.25360E+04  9.34841E+01 -6.99156E+03
  1.44216E+04  4.90863E+03  5.92673E+02  1.09688E+03  1.67754E+03  1.30935E+04 -1.16245E+04  8.26971E+03
