 $NMID ID='MM_0lb_SNR50_19hz_g60_53.RAW', FMTDAT='(8E13.5)'
 TRAMP=1., VOLUME=1. $END
  3.10056E+05 -1.35339E+02  3.37726E+05  2.50560E+05  8.38939E+04  3.38243E+05 -1.30538E+05  2.52523E+05
 -1.91070E+05  8.61579E+04 -1.12080E+05 -3.41926E+04 -8.47224E+01 -5.22381E+04  5.69348E+04  9.45357E+02
  3.68413E+04  5.16955E+04 -2.07551E+04  7.47750E+04 -6.27442E+04  6.40464E+04 -8.65243E+04  3.16443E+04
 -8.47018E+04 -1.26390E+04 -5.29096E+04 -5.04289E+04 -1.34874E+04 -7.04758E+04  2.99604E+04 -4.61268E+04
  3.99581E+04  1.25021E+03  1.71460E+04  4.66816E+04 -3.50503E+04  4.89647E+04 -6.55905E+04  1.84486E+03
 -4.88931E+04 -5.66054E+04 -3.58720E+03 -7.71342E+04  3.21399E+04 -5.09429E+04  4.68338E+04 -1.88952E+04
  3.86916E+04  1.35960E+04  3.39913E+04  2.65776E+04  1.54136E+04  2.94193E+04 -6.48049E+03  2.64664E+04
 -1.92895E+04  1.28749E+04 -1.64577E+04 -6.75515E+03  5.76917E+03 -9.46106E+03  1.63405E+04  1.22391E+04
  7.81953E+03  3.66948E+04 -3.14228E+04  2.99767E+04 -6.05011E+04 -2.70318E+03 -5.63728E+04 -4.48040E+04
 -1.17692E+04 -6.33048E+04  4.01359E+04 -4.59499E+04  5.96215E+04 -9.22434E+02  3.10871E+04  3.04675E+04
 -1.30318E+04  3.55840E+04 -3.21351E+04  1.39507E+04 -3.11837E+04 -1.96534E+03 -1.31732E+04 -8.75093E+03
 -8.67283E+03 -1.45168E+04  2.88728E+02 -1.61013E+04  5.33030E+03 -2.49193E+04  1.03666E+04 -1.34568E+04
  1.43123E+04  4.17094E+03 -1.00294E+04  1.25611E+04 -1.76304E+04 -2.22404E+03 -8.02154E+03 -3.47781E+04
  2.34555E+04 -4.26011E+04  4.53074E+04 -1.95163E+04  4.40399E+04  1.88386E+04  1.41999E+04  4.97307E+04
 -1.47482E+04  2.79111E+04 -2.27304E+04 -3.96410E+02 -7.27732E+03 -2.49084E+04  2.04818E+04 -3.60424E+04
  3.94079E+04 -4.63640E+03  2.86489E+04  1.86133E+04  2.02972E+04  4.24456E+04 -9.76905E+03  4.86809E+04
 -3.07606E+04  3.07757E+04 -4.10112E+04  1.25187E+03 -4.55596E+04 -1.47065E+04 -2.02352E+04 -3.60023E+04
  1.76658E+03 -3.57017E+04  3.01671E+04 -1.63458E+04  2.84230E+04  9.34260E+03  4.34631E+03  1.58572E+04
 -1.32908E+04  7.15848E+03 -1.21508E+04 -7.13770E+03  7.21176E+03 -8.37806E+03  1.77601E+04  6.89113E+03
  1.48214E+04  1.95615E+04 -4.81075E+03  2.28811E+04 -2.41447E+04  1.14010E+04 -2.92456E+04 -3.48537E+03
 -1.89595E+04 -1.48526E+04 -1.19269E+04 -1.50006E+04  3.41334E+03 -2.16523E+04  1.88742E+04 -1.45458E+04
  1.95914E+04 -9.43467E+03  2.86636E+04  1.79582E+03  2.68800E+04  1.46175E+04  7.32304E+03  3.45331E+04
 -1.49863E+04  2.99035E+04 -2.42123E+04  1.12385E+04 -1.94333E+04 -3.78987E+03 -3.54590E+03 -1.38362E+04
  7.43663E+02 -2.47288E+03 -8.96905E+02  5.32272E+03 -1.44440E+04  3.25879E+03 -1.26565E+04 -6.22422E+03
 -9.40035E+03 -1.51429E+04  3.12682E+03 -2.05048E+04  1.42517E+04 -1.63257E+04  1.15468E+04 -7.01286E+02
  5.18941E+03  1.34729E+04  1.25461E+03  1.58788E+04 -9.66486E+03  9.65301E+03 -1.06309E+04 -5.60729E+03
 -8.86591E+03 -1.87395E+04  4.35998E+01 -2.09286E+04  8.71939E+03 -1.09370E+04  1.59309E+04 -1.06505E+04
  1.45974E+04  7.03440E+02  1.24875E+04  5.27638E+03  8.33870E+03 -1.00824E+03  1.18050E+04  3.32466E+02
  1.84205E+04  4.45113E+02  1.64784E+04  1.46879E+04  9.88730E+03  2.33985E+04 -6.66494E+02  3.26577E+04
 -1.68831E+04  2.41046E+04 -2.67096E+04  1.07446E+04 -2.90643E+04 -1.72311E+03 -2.36908E+04 -1.47002E+04
 -8.77291E+03 -2.19338E+04  1.24230E+04 -2.40535E+04  2.30756E+04 -1.36247E+04  1.08285E+04  7.26715E+03
  1.21749E+04  1.12542E+04 -5.22902E+03  9.46336E+03 -1.14172E+04 -1.34774E+03 -1.05245E+04 -5.36768E+03
 -4.66791E+03 -1.53353E+04  7.75704E+03 -7.93292E+03  1.01528E+04 -1.48801E+03  3.12885E+03  6.38988E+03
 -3.53382E+03 -3.79203E+03 -4.50433E+03 -1.14467E+03  9.80749E+02 -9.19678E+03  9.56308E+03 -8.31110E+03
  1.46396E+04 -4.24596E+03  1.56010E+04  1.26424E+03  9.26053E+03  1.07618E+04  6.01208E+03  1.48942E+04
 -7.01364E+01  1.72306E+04 -1.17846E+04  9.42202E+03 -1.07299E+04  3.98793E+03 -7.72109E+03  5.18867E+02
 -4.46648E+03 -6.17148E+03 -9.69922E+02  4.94669E+03  5.80070E+02  1.29876E+03 -4.16680E+03  6.97868E+03
 -7.06953E+03  4.96770E+03 -8.09873E+03 -7.89268E+03 -1.63315E+03 -1.28137E+04  3.58512E+03 -5.20021E+03
  8.76572E+03 -4.59695E+03  1.09839E+03  7.22694E+03  6.51954E+03  6.74506E+03 -8.24009E+02  8.58155E+02
 -7.58931E+03 -4.27635E+03  1.36313E+03 -9.26229E+03  3.47096E+03 -8.66243E+03  8.66868E+03 -5.43511E+03
  9.52252E+03 -2.66281E+03  9.61307E+03  8.59549E+03  8.57587E+02  6.72690E+03 -6.39149E+03  8.06313E+03
 -6.33763E+03  3.71521E+03 -4.49201E+03 -9.56627E+02  2.83450E+03 -1.70179E+03  9.64230E+03  2.50423E+02
  7.13397E+03  2.92728E+03  1.26115E+03  6.78401E+03 -1.41819E+03  6.92113E+03 -8.53790E+03  3.58701E+03
 -4.31728E+03 -2.23037E+03 -1.36164E+03 -4.12878E+03  4.45652E+03 -2.59056E+03  3.26560E+03  1.75914E+03
  2.47826E+03  5.18669E+03 -7.08211E+03  5.90357E+03 -7.92075E+03  8.01868E+03 -6.87975E+03 -3.56652E+03
 -9.15763E+03 -2.35553E+03  6.75449E+03 -4.70068E+03  7.06817E+03 -3.38431E+03  8.51738E+03 -1.04693E+03
  4.75695E+03  6.02845E+03 -2.95040E+02  7.16817E+03 -4.75144E+03  2.96435E+03 -6.78853E+03 -1.88788E+03
 -5.82034E+03 -4.24879E+03 -1.14736E+03 -5.47225E+03  4.47360E+03 -8.34948E+03  1.23966E+03 -7.05865E+03
  2.19558E+02  8.13607E+02  1.00213E+03  4.37904E+03  4.83680E+03  1.15153E+03 -8.03412E+03 -3.56037E+03
  5.99570E+03 -1.93303E+03  5.06343E+03 -1.13244E+03  1.22662E+04  8.03570E+03  6.59775E+03  7.90571E+03
 -4.34008E+02  7.10426E+03 -4.84349E+03  5.12449E+03 -1.28076E+04  8.17059E+02 -1.43995E+04 -2.92847E+03
 -4.86637E+03 -6.70160E+03 -9.15129E+02 -5.43981E+03  5.52877E+03 -7.29629E+02  6.71287E+02 -3.32190E+03
  1.27571E+03  2.14369E+03  3.28122E+03 -6.36156E+03  5.97359E+03 -3.57211E+03  7.26120E+03  1.66379E+03
  1.40792E+03  3.59070E+03 -1.36011E+02  1.70177E+03 -1.74810E+03  8.70040E+02 -3.57286E+03  3.97768E+03
 -4.33465E+02 -1.68515E+03 -2.00748E+03 -4.41287E+03  5.38585E+03 -8.52131E+03  4.56986E+03 -5.89724E+03
  8.47560E+03 -1.50998E+03  6.45851E+03  1.47357E+03  6.96973E+03  3.10606E+03  3.52378E+03  6.61941E+03
 -4.29906E+03  8.22722E+03 -4.70075E+03  3.57987E+03 -4.14938E+03  1.30564E+03 -2.24802E+02  6.85286E+02
 -1.21085E+03 -2.17901E+03  1.87517E+03 -2.49720E+03 -4.48191E+03  2.05765E+03 -5.08214E+03 -1.16648E+03
  1.49599E+03 -3.72033E+02  4.37944E+02 -4.34796E+02  3.64178E+03 -2.33862E+02  5.49791E+03  1.31606E+03
  7.94171E+03  3.39076E+03  2.34144E+03  1.74583E+03 -4.02205E+03  1.50252E+03 -3.03737E+03  2.09499E+03
 -3.49043E+03 -3.85006E+01  1.25092E+03 -2.82291E+03 -2.56318E+02 -1.90696E+03 -9.84431E+02 -9.31813E+02
  9.66179E+03 -4.88833E+02  5.56889E+03  3.29864E+03 -1.85941E+03 -1.74706E+03  3.29005E+03  1.29662E+03
  8.18589E+02 -3.24109E+03 -3.27153E+03  5.30762E+03  5.52780E+03  3.02259E+03 -1.61650E+01  3.25734E+00
  1.63345E+03  2.16585E+03 -7.80958E+03  4.19601E+03 -3.63082E+03  1.89574E+03 -1.15168E+03  2.70079E+03
 -5.73550E+03 -5.77282E+03 -2.49826E+03 -9.72029E+02  7.13364E+03 -3.11195E+03  4.87556E+03  1.79720E+03
  4.82115E+03  7.64559E+02 -3.53192E+03  1.32733E+03  1.35571E+02  2.54685E+03  3.76388E+03  1.90288E+03
  2.89864E+03 -4.44880E+03 -2.52030E+02  3.11120E+03  9.60168E+02  1.17338E+03 -4.60522E+02 -1.51223E+03
 -7.29471E+02 -3.41182E+03  2.71235E+03  3.49514E+02  1.89937E+03 -3.38592E+03  9.68960E+02 -2.60991E+03
 -1.22457E+03 -4.23202E+03  4.52503E+02  3.81377E+03 -5.89126E+02  6.32922E+02 -1.75104E+03  2.32288E+03
 -1.18416E+03  5.33199E+02 -4.63984E+03  5.22030E+02 -2.40151E+03 -1.10967E+03  2.13980E+03  1.74162E+03
 -3.75777E+03  4.00181E+03 -9.11757E+02 -9.64447E+02  1.56469E+03  3.17551E+03 -2.41835E+03 -7.21392E+01
 -5.24418E+03  4.06942E+03 -2.56169E+03 -3.86486E+03 -3.04974E+03 -3.02447E+03  1.36031E+03 -1.87269E+03
 -2.40772E+03  3.71817E+02 -2.28508E+03 -4.46417E+02  2.01740E+03  1.00641E+03  1.43037E+03 -4.65219E+03
 -2.50235E+03  2.35564E+03 -1.57828E+03 -4.00491E+03  1.00590E+03  2.45254E+02  1.18212E+03 -3.66145E+03
  6.29449E+03 -3.48701E+03  2.64065E+03 -3.76354E+03 -3.04522E+03  3.75695E+03  7.98283E+02  4.31938E+03
 -4.09800E+02 -1.97161E+03  2.76097E+03  1.29309E+03 -8.62941E+02 -6.01845E+03  8.45255E+02  1.44322E+03
  5.53724E+03  4.99712E+03 -1.34623E+03  2.74420E+02  3.06998E+02  2.87982E+03  3.90245E+03 -4.15222E+03
 -1.26023E+03  3.23090E+03 -1.12629E+03 -7.78924E+02 -3.24041E+03 -8.98782E+02 -4.69470E+03  1.30761E+03
  6.33475E+02  1.61304E+03 -1.20726E+03 -9.54454E+02 -3.81669E+03 -1.13678E+03 -3.46976E+03 -2.28553E+03
  6.31659E+02 -6.17424E+02 -3.23135E+03 -2.97717E+03 -5.85341E+02  1.46948E+03  3.94053E+03 -1.26848E+03
  3.28197E+03 -1.17255E+03  3.92980E+03  3.61440E+03  3.28103E+03  1.30648E+03 -8.46064E+02  6.42687E+03
 -1.87574E+03  7.01186E+02 -1.14336E+02 -1.92579E+02 -2.71499E+03 -1.36789E+03 -7.23180E+02 -1.41431E+03
  1.81219E+03 -3.73421E+02 -4.39451E+03  3.08929E+03  2.86951E+03 -1.90243E+03  2.28871E+02 -1.41484E+03
 -3.29716E+02  5.06732E+03  1.74825E+03 -3.28607E+02  2.43461E+03 -6.43316E+03 -8.76637E+02  1.96692E+03
  3.31323E+02  3.92687E+03 -3.87059E+03  1.46916E+03  1.87785E+03 -5.31807E+02  8.16452E+02 -8.66835E+02
  2.13257E+03 -5.11228E+02  3.18698E+03 -1.10214E+03  1.55643E+03  1.05773E+03  3.06743E+03 -1.18035E+03
  1.57531E+03  1.32640E+03  2.32941E+03  3.08839E+03  2.86057E+03 -2.38256E+03 -5.24641E+02  7.37564E+02
 -1.11082E+03  4.76723E+03 -2.09641E+03  2.11422E+03  2.44247E+02  1.34992E+03 -2.24192E+03 -1.56553E+03
 -2.14779E+03  3.46867E+03  8.22263E+02 -3.57138E+03  2.48161E+03 -2.70305E+02  2.96417E+03 -2.43436E+03
  1.78983E+03  6.34622E+02 -4.47153E+03  6.65226E+02  9.37773E+02 -2.04573E+03 -3.85149E+03 -7.91799E+02
 -3.17602E+03  1.58498E+03  8.96548E+02  1.21557E+03 -4.46877E+03 -2.42028E+03  2.51848E+03  1.61893E+03
  5.95534E+02 -2.58122E+03  5.27639E+02  2.04174E+03  2.32046E+03  1.62532E+02  5.81613E+03 -5.24620E+01
  5.62686E+03  3.56097E+02  1.49130E+03  2.74271E+03 -1.55425E+03 -1.73071E+03 -1.18867E+03 -7.36115E+02
  4.25018E+03 -4.39319E+03  8.78774E+02  2.24289E+03  7.32291E+02 -2.76940E+02 -6.76938E+03  1.91839E+03
