 $NMID ID='MM_0lb_SNR50_9hz_g45_23.RAW', FMTDAT='(8E13.5)'
 TRAMP=1., VOLUME=1. $END
  3.07477E+05  2.62169E+02  3.35034E+05  2.48698E+05  8.90269E+04  3.40682E+05 -1.30666E+05  2.49156E+05
 -1.96220E+05  7.98427E+04 -1.09432E+05 -3.20938E+04 -4.52798E+03 -5.22863E+04  5.50082E+04 -7.27372E+02
  3.20842E+04  4.75705E+04 -1.85106E+04  7.65250E+04 -6.56108E+04  6.22175E+04 -8.52206E+04  3.17992E+04
 -8.43665E+04 -5.67494E+03 -5.79219E+04 -4.65618E+04 -1.96867E+04 -6.82493E+04  3.01848E+04 -4.65201E+04
  4.37211E+04  5.43649E+03  1.43462E+04  5.61928E+04 -3.60561E+04  4.75807E+04 -7.03490E+04 -4.79120E+03
 -5.30024E+04 -6.21978E+04 -6.84126E+03 -7.82568E+04  2.91525E+04 -5.72890E+04  4.98890E+04 -2.15753E+04
  4.83910E+04  8.92460E+03  3.36200E+04  2.74046E+04  2.12620E+04  3.36755E+04 -1.09337E+04  3.67478E+04
 -1.89279E+04  1.20354E+04 -1.96921E+04  9.58830E+01  8.12243E+03 -2.74593E+03  2.45528E+04  1.40139E+04
  6.77130E+03  3.57918E+04 -3.00412E+04  3.51252E+04 -7.02458E+04  2.42635E+03 -4.87778E+04 -4.74105E+04
 -8.65788E+03 -6.78913E+04  4.35286E+04 -5.04644E+04  6.55760E+04 -6.36328E+03  3.07085E+04  3.11191E+04
 -7.32135E+03  4.35474E+04 -3.03629E+04  2.14377E+04 -3.64738E+04 -8.49793E+03 -2.34245E+04 -1.12442E+04
 -1.07506E+04 -1.27087E+04 -4.05143E+03 -1.70060E+04  1.03229E+04 -1.99868E+04  1.02607E+04 -1.92983E+04
  1.27284E+04  9.51050E+03 -9.59265E+03  1.27565E+04 -1.91421E+04 -9.12492E+03 -1.23173E+04 -3.42323E+04
  2.13713E+04 -5.11515E+04  5.06455E+04 -2.19174E+04  5.28279E+04  1.70890E+04  1.55722E+04  4.60009E+04
 -1.33579E+04  3.36410E+04 -2.72622E+04 -2.97417E+03 -6.91627E+03 -2.92000E+04  2.02483E+04 -3.74821E+04
  4.68870E+04 -1.60935E+04  3.41302E+04  2.38145E+04  2.24589E+04  5.62013E+04 -3.76692E+03  5.04855E+04
 -3.74380E+04  3.56121E+04 -4.35439E+04  7.42544E+03 -4.88717E+04 -1.89267E+04 -2.72633E+04 -3.81804E+04
  4.66123E+03 -4.20591E+04  3.15421E+04 -1.59634E+04  2.96598E+04  6.75206E+03  8.65923E+03  1.60850E+04
 -7.36390E+03  9.41217E+03 -1.67552E+04  1.25650E+03  7.66208E+03 -8.77925E+03  2.05755E+04  5.04176E+03
  7.54827E+03  2.15471E+04 -6.56878E+03  2.04271E+04 -1.61044E+04  1.98214E+04 -2.79699E+04 -7.22331E+03
 -2.26203E+04 -2.61507E+04 -9.32340E+03 -2.40634E+04  9.22294E+03 -2.63772E+04  1.97405E+04 -2.88365E+04
  2.64073E+04 -1.65313E+04  3.70258E+04  1.68706E+03  2.83550E+04  1.85231E+04  4.76447E+03  4.33195E+04
 -1.96988E+04  3.53100E+04 -2.48349E+04  1.21531E+04 -2.73622E+04 -1.15462E+04 -5.20015E+03 -9.20274E+03
 -4.40724E+02 -5.84770E+01 -4.43367E+03  6.49787E+03 -1.55878E+04  5.11264E+03 -2.38701E+04  5.77809E+02
 -7.73640E+03 -1.88084E+04  6.38262E+03 -2.29164E+04  1.15507E+04 -2.24740E+04  2.03186E+04 -9.33849E+03
  9.98508E+03  7.90610E+03 -5.08345E+03  2.50187E+04 -2.01541E+04  1.71772E+04 -2.17914E+04 -1.06778E+04
 -2.03713E+04 -1.50843E+04 -4.58730E+02 -2.49070E+04  1.10003E+04 -1.70158E+04  1.98265E+04 -1.14146E+04
  2.16801E+04  1.89901E+03  1.90088E+04  4.38648E+03  6.49723E+03  6.22388E+03  9.12884E+03 -6.10670E+01
  2.45088E+04 -1.81782E+03  2.72384E+04  2.61293E+04  1.62369E+04  3.70481E+04 -4.66581E+02  4.70637E+04
 -2.71062E+04  3.15418E+04 -3.67051E+04  1.48724E+04 -4.77498E+04  2.96576E+02 -3.68466E+04 -2.16435E+04
 -1.30122E+04 -3.57614E+04  1.59272E+04 -2.81709E+04  3.14239E+04 -1.64148E+04  2.40496E+04  5.44640E+03
  1.34240E+04  2.14846E+04 -1.63427E+04  1.94480E+04 -2.05402E+04  4.73283E+03 -1.30490E+04 -1.13750E+04
 -9.80833E+02 -1.89621E+04  7.26600E+03 -1.57879E+04  1.74297E+04  3.80810E+02  2.14610E+03  8.53633E+03
 -1.16000E+04  8.50285E+03 -1.55554E+04 -7.05123E+03 -1.00765E+03 -1.75060E+04  1.33083E+04 -2.80636E+04
  2.07995E+04 -1.21251E+04  2.52238E+04  6.67057E+03  2.26340E+04  2.15014E+04  1.09944E+04  3.21183E+04
 -9.83318E+03  3.54359E+04 -1.95938E+04  1.70447E+04 -2.92454E+04  4.20470E+03 -1.23713E+04 -8.70687E+03
 -2.74272E+03 -5.47923E+03 -4.26556E+03  1.96786E+03 -9.61449E+03  2.90968E+03 -1.30152E+04 -1.21228E+03
 -1.53439E+04  3.70815E+03 -1.15510E+04 -1.48513E+04 -1.51932E+03 -2.27491E+04  7.10161E+03 -1.20125E+04
  1.31802E+04 -1.04328E+03  6.06933E+03  4.83312E+02 -4.40270E+03  6.54544E+03 -1.34451E+04 -3.61581E+03
 -9.63112E+03 -1.22377E+04  2.19716E+03 -1.87138E+04  6.41817E+03 -1.61963E+04  1.86496E+04 -1.19578E+04
  2.52689E+04  3.93749E+03  1.97946E+04  1.18920E+04  6.65534E+03  1.79665E+04 -6.84117E+03  1.04341E+04
 -9.22685E+03  4.81986E+03 -9.22851E+03 -4.86772E+03 -6.50074E+03 -5.11511E+03  1.07977E+04 -1.26853E+03
  7.36577E+03  9.47051E+03  2.11866E+03  1.17279E+04 -8.00792E+03  9.02835E+03 -1.51113E+04  2.84757E+03
 -1.63606E+04 -4.69112E+03 -1.03755E+03 -1.78563E+04  8.55743E+03 -9.47427E+03  6.30262E+03 -2.44963E+03
  4.63948E+03  1.38228E+04 -1.19081E+04  1.30198E+04 -1.52153E+04  6.47050E+03 -1.26297E+04 -4.67451E+03
 -5.00770E+03 -1.95794E+04  4.58498E+03 -1.59524E+04  1.88815E+04 -1.34363E+04  1.86641E+04  5.44976E+03
  6.78810E+03  1.78174E+04 -1.03346E+03  1.33441E+04 -1.34712E+04  1.18712E+04 -9.85718E+03 -1.00771E+03
 -6.90578E+03 -1.78217E+04 -3.52978E+03 -1.90893E+04  1.12738E+04 -1.42685E+04  6.21599E+03 -1.05137E+04
  3.34994E+03  4.49395E+03 -1.67045E+03  1.22537E+03 -1.37207E+03 -1.10999E+04  6.51471E+02 -1.06865E+04
  1.51429E+04 -1.48857E+04  1.41199E+04  5.57679E+03  1.97772E+04  8.46134E+03  1.36658E+04  1.96094E+04
 -5.30029E+03  2.24261E+04 -1.87558E+04  2.28322E+04 -2.55294E+04 -4.93350E+02 -2.20589E+04 -8.74715E+03
 -9.74976E+03 -1.61767E+04 -1.83846E+03 -1.82271E+04  6.13981E+03 -1.02762E+04  3.71845E+03 -6.13446E+03
  6.11817E+03  1.74604E+03  8.99170E+03 -1.86531E+03  4.71140E+03 -1.54309E+03  1.01115E+04  1.25075E+03
  5.57112E+03  2.93685E+03  6.99966E+03  6.38816E+03 -3.36695E+03  1.30291E+04 -1.01299E+04  4.18292E+03
 -1.97665E+04  1.18406E+03 -5.26253E+03 -2.36622E+03 -1.19077E+03 -1.22046E+04  1.56517E+04 -1.42493E+04
  6.54858E+03 -1.36824E+03  1.65875E+04  1.41330E+03  1.15246E+04  1.48638E+04  2.27600E+03  1.59567E+04
 -8.15639E+03  1.08021E+04 -6.53263E+03  4.05397E+03 -8.40640E+03  1.29562E+03 -8.62310E+03 -1.91250E+03
 -6.04236E+03 -1.14886E+04 -3.23409E+03  2.61016E+03 -3.47009E+03  2.55511E+02 -7.94095E+03 -4.06784E+03
 -7.24249E+03 -6.21074E+03 -3.14127E+02 -1.62166E+04  7.27766E+03 -1.80698E+04  1.46862E+04 -5.11160E+03
  1.23066E+04  1.28775E+04  6.17781E+03  5.04904E+03  2.10849E+03  6.54768E+03 -1.24872E+04  5.76603E+03
 -1.60199E+04  3.57822E+03 -1.09138E+04 -6.44339E+03 -3.03180E+03 -1.58360E+04  8.80517E+03 -4.68007E+03
  5.88138E+03 -8.54133E+03  7.03387E+03  1.64951E+03 -4.96103E+02  1.97112E+03 -2.36886E+03  6.16770E+03
 -1.39409E+03  3.51789E+02 -2.52268E+03  2.06616E+03  1.37791E+03  4.18717E+03 -8.42522E+02  6.97955E+03
 -4.16560E+03  1.25949E+04 -1.49166E+04  9.60997E+03 -1.41111E+04  2.23466E+03 -2.09293E+04 -7.89960E+03
 -1.08287E+04 -1.06542E+04 -8.54651E+02 -1.38665E+04  1.55880E+04 -1.14443E+03  1.33287E+04 -2.01842E+03
  1.55497E+04  8.09559E+03  5.85776E+03  9.18592E+03 -4.86359E+02  1.48141E+03 -1.29885E+04 -1.27327E+02
 -5.48285E+03 -7.13016E+03  4.69351E+03 -8.12217E+03  4.55825E+03 -4.78960E+03 -4.84437E+03 -2.54416E+03
  6.12078E+03  9.56860E+02  3.55723E+00  1.51080E+02  2.80111E+02 -8.19298E+02 -1.04006E+03 -2.38872E+03
  4.42191E+03  3.04574E+03  3.96461E+02  5.48772E+03  3.74937E+03  4.71254E+03 -9.54414E+03  1.17417E+04
 -6.37789E+03  9.40257E+03 -9.51715E+03  1.32665E+03 -1.55658E+04  1.42093E+03  9.33132E+02 -6.34472E+03
 -8.26713E+03 -2.61556E+03 -9.26576E+01 -7.07620E+02  3.26523E+03 -1.73228E+03 -4.88693E+03  9.25224E+03
 -6.18894E+03 -4.94248E+02 -6.26600E+03  2.45104E+03 -2.69344E+03 -1.44644E+04  1.21729E+03 -7.21678E+03
  5.04764E+03 -8.47613E+03  4.47266E+03 -4.75978E+03  6.66089E+03  4.28030E+03 -3.22188E+03  8.15145E+03
 -5.80305E+03 -2.21977E+03 -3.95733E+03 -8.25796E+03 -2.32254E+03 -2.59923E+03  6.21506E+03 -5.41822E+03
  1.21629E+04 -4.23641E+03  7.94729E+03  4.63146E+03  2.95802E+03  6.92906E+03  1.72174E+03  5.18913E+03
 -1.38903E+04  3.95696E+03 -4.53761E+03  3.01632E+03 -6.04665E+03 -4.85212E+03  6.79113E+03 -1.70951E+03
  9.74336E+03  3.08618E+02  7.12632E+03  1.66247E+03 -4.49258E+01  4.38650E+03 -1.18672E+03  1.43848E+03
 -3.98191E+03  5.12888E+03  4.59148E+03 -1.35410E+03  3.43353E+03 -4.53286E+03 -5.14450E+03  5.83922E+03
 -5.93579E+03  7.99890E+03 -6.87748E+03 -2.24764E+03 -1.47172E+04 -4.98120E+03 -4.29565E+03 -1.10689E+04
 -6.38209E+03 -1.37838E+04  1.32058E+03 -1.12982E+04  1.08339E+04 -1.13297E+04  9.25032E+03 -1.13988E+04
  1.88720E+04  5.40864E+03  7.02073E+03  6.94492E+03  1.13764E+02  4.30164E+03 -4.78015E+02  8.58824E+03
 -6.58535E+03  6.17473E+03 -1.50889E+03  5.38191E+02 -2.26714E+03  2.88052E+03 -2.25092E+03 -2.23928E+03
 -3.84105E+03  1.08081E+03 -8.25689E+03  4.24096E+03 -3.05092E+03  9.82161E+02 -9.99350E+02 -3.54397E+03
  4.90870E+03 -4.65144E+03  2.96611E+03 -2.17077E+03  5.15426E+03  1.31466E+03  1.13813E+04  1.03218E+04
 -2.28455E+03  8.99229E+03 -7.42783E+03  7.59572E+03 -7.53081E+03 -5.60143E+03 -7.28283E+03 -4.20947E+03
 -4.79750E+03 -1.20084E+04  1.99499E+03 -9.96429E+03  1.09441E+04 -3.47256E+03  7.03914E+03 -2.35337E+03
  4.45823E+03  2.11383E+03  2.85914E+03  2.45786E+03 -8.87074E+02 -2.17159E+03  3.50016E+03  9.14884E+02
  1.31254E+02 -9.54923E+02  3.37360E+03  6.48749E+03  1.11602E+03  9.06314E+03 -2.67907E+03  5.98363E+02
 -5.12426E+03  7.29587E+03 -1.11554E+03 -1.84176E+03 -1.09381E+04 -6.71497E+03 -5.67321E+03 -8.84290E+03
  3.95790E+03 -8.78062E+03  8.48870E+03 -5.59214E+03  1.16522E+04  3.43349E+03  2.93396E+03  7.57841E+03
 -4.07825E+02  6.05782E+03  5.66029E+02  5.55200E+03  1.00330E+03 -4.28492E+03 -2.77715E+03  5.13856E+03
 -3.16918E+02  9.89012E+02 -2.47186E+03  3.03631E+03 -5.28178E+03  3.62111E+03 -3.11681E+03 -2.62233E+03
 -1.29992E+03  1.11236E+01 -2.08760E+03 -1.22843E+04 -1.01531E+03 -4.64506E+03  2.26238E+03 -6.24535E+03
  6.14718E+03  4.99623E+03  3.65457E+03  2.40649E+03  6.80735E+03  9.65902E+03 -5.63335E+03  5.69343E+03
