 $NMID ID='MM_0lb_SNR50_13hz_g50_89.RAW', FMTDAT='(8E13.5)'
 TRAMP=1., VOLUME=1. $END
  3.08418E+05 -5.18769E+02  3.37131E+05  2.47999E+05  8.87158E+04  3.38657E+05 -1.30011E+05  2.52626E+05
 -1.90148E+05  8.02143E+04 -1.07479E+05 -3.31624E+04 -1.61020E+03 -4.45499E+04  5.29615E+04  2.48329E+03
  3.24032E+04  5.14983E+04 -1.92131E+04  7.94784E+04 -6.73496E+04  6.39573E+04 -8.35467E+04  3.11039E+04
 -7.84302E+04 -1.65475E+04 -5.87817E+04 -4.98190E+04 -1.50237E+04 -6.75645E+04  2.20156E+04 -4.59023E+04
  3.63060E+04  6.75047E+03  2.10271E+04  4.92704E+04 -3.52169E+04  5.59591E+04 -6.80479E+04 -2.77435E+03
 -5.48356E+04 -5.45533E+04 -3.94589E+03 -7.83513E+04  3.57941E+04 -4.96953E+04  4.75180E+04 -2.11527E+04
  4.37815E+04  1.03844E+04  3.28053E+04  2.54084E+04  1.57674E+04  2.77264E+04 -8.50535E+03  2.72796E+04
 -1.96681E+04  1.48652E+04 -1.49770E+04 -5.66809E+03  4.00711E+03 -5.80783E+03  2.40506E+04  1.25861E+04
  1.42456E+04  3.82693E+04 -3.39873E+04  3.40536E+04 -6.64042E+04  3.39268E+03 -5.50666E+04 -4.18729E+04
 -1.39792E+04 -5.96051E+04  3.81719E+04 -4.00117E+04  5.54631E+04 -4.46753E+03  3.18418E+04  3.20174E+04
 -1.87563E+03  3.73847E+04 -3.19100E+04  1.88180E+04 -3.35288E+04 -8.02029E+02 -1.88003E+04 -9.61148E+03
 -6.73153E+03 -1.32124E+04 -2.97030E+03 -2.24113E+04  8.76840E+03 -2.30254E+04  1.01751E+04 -1.34003E+04
  7.75920E+03  3.84956E+03 -1.16724E+04  6.43292E+03 -1.77454E+04 -5.91616E+03 -6.79555E+03 -3.23639E+04
  2.88836E+04 -4.36750E+04  4.83547E+04 -2.08326E+04  4.21023E+04  2.41132E+04  2.05595E+04  4.53541E+04
 -1.44549E+04  3.93984E+04 -2.91576E+04  9.25155E+02 -1.12362E+04 -3.17233E+04  1.89399E+04 -3.49187E+04
  4.57948E+04 -6.23471E+03  3.45560E+04  2.17659E+04  1.75824E+04  4.79431E+04 -9.74555E+03  4.65473E+04
 -3.76980E+04  3.45091E+04 -4.52507E+04  8.32540E+03 -4.80355E+04 -1.31039E+04 -2.35052E+04 -3.39393E+04
  9.19010E+03 -3.55340E+04  3.76586E+04 -1.54431E+04  3.02320E+04  8.98112E+03 -3.24050E+03  1.97138E+04
 -1.21562E+04  9.93211E+03 -1.85392E+04 -5.19783E+03  4.84232E+03 -9.80184E+03  1.43688E+04  6.39466E+03
  1.65212E+04  2.32750E+04 -6.96079E+03  2.32704E+04 -2.28908E+04  9.70848E+03 -2.90202E+04 -4.58301E+03
 -2.33203E+04 -1.39111E+04 -6.49059E+03 -1.73826E+04  4.84055E+03 -2.52946E+04  1.99773E+04 -2.05520E+04
  3.10620E+04 -1.43029E+04  3.38637E+04  4.29750E+02  2.91377E+04  2.46802E+04  6.95279E+03  3.34812E+04
 -2.45442E+04  3.38753E+04 -2.85252E+04  1.33348E+04 -1.39054E+04 -1.10463E+04 -7.72916E+03 -1.45394E+04
  4.00265E+03 -5.33259E+03 -4.49221E+03  9.14154E+03 -2.09183E+04  6.74365E+03 -1.31334E+04  4.44303E+02
 -1.07897E+04 -1.53589E+04  6.05996E+03 -2.81583E+04  1.17688E+04 -1.76794E+04  1.90505E+04 -5.10577E+02
  1.26709E+04  1.83230E+04 -2.94988E+03  1.96582E+04 -1.57957E+04  1.13298E+04 -2.04372E+04 -7.75000E+03
 -1.39022E+04 -1.33173E+04  4.47598E+03 -2.85290E+04  7.16235E+03 -1.84596E+04  1.29174E+04 -6.19467E+03
  1.83930E+04 -5.29035E+03  1.51117E+04  1.05623E+03  1.00300E+04  2.89981E+03  1.10501E+04 -1.55488E+03
  1.91787E+04  3.45959E+03  1.86724E+04  1.27018E+04  1.54722E+04  3.13144E+04 -3.05169E+03  3.75667E+04
 -2.05237E+04  3.34202E+04 -3.61319E+04  1.07365E+04 -3.46177E+04 -1.90333E+03 -2.96731E+04 -2.79953E+04
 -1.57106E+04 -2.68610E+04  7.31461E+03 -3.09696E+04  2.29327E+04 -1.57349E+04  1.92698E+04  7.38443E+03
  7.70328E+03  1.37538E+04 -1.13661E+04  1.58613E+04 -1.81716E+04 -1.98828E+03 -9.79839E+03 -7.52034E+03
 -9.17835E+02 -1.75437E+04  4.27956E+03 -1.13986E+04  1.33038E+04 -1.98121E+03  1.79369E+03 -5.86922E+01
 -1.13538E+04  9.21797E+02 -5.42212E+03 -6.50600E+03  2.00161E+03 -1.67248E+04  8.19612E+03 -1.70930E+04
  2.09944E+04 -1.45292E+04  2.03535E+04 -2.01840E+03  1.85536E+04  1.66755E+04  4.29460E+03  2.06413E+04
 -9.38260E+02  3.19594E+04 -2.12655E+04  1.40469E+04 -1.40986E+04  7.79122E+03 -1.09550E+04  1.85134E+03
 -1.92768E+03 -7.65729E+03  4.59248E+02  2.62060E+03 -1.21454E+03  3.63091E+03 -5.07178E+03  1.08220E+04
 -7.64180E+03 -3.79228E+03 -9.67069E+03 -5.57465E+03 -5.95458E+03 -1.48652E+04  4.17026E+03 -1.10725E+04
  1.05477E+04 -9.47941E+03  1.17692E+04  4.73298E+03 -1.71513E+03  4.96042E+03 -4.89169E+03 -2.71957E+03
 -3.45975E+03 -9.33316E+03 -9.01489E+02 -5.76807E+03  8.48948E+03 -1.32715E+04  1.15563E+04 -9.66371E+03
  1.88116E+04 -9.21865E+02  1.36202E+04  1.06006E+04  8.01527E+03  1.39919E+04 -4.47040E+03  1.25948E+04
 -1.25085E+04  4.15599E+03 -3.37250E+03 -5.54759E+03 -9.16151E+01 -2.16402E+03  3.93976E+03 -1.12219E+03
  7.53008E+03  4.23817E+03  1.51590E+03  9.06604E+03 -7.17418E+03  8.79629E+03 -1.24404E+04  5.37347E+02
 -1.14148E+04 -1.94768E+03  1.05414E+02 -1.06936E+04  9.71029E+03 -1.06470E+03  4.50717E+03  2.96178E+03
  4.07803E+03  8.29648E+03 -1.10999E+04  8.25239E+03 -7.03126E+03  4.76326E+03 -1.02072E+04 -1.72839E+03
 -8.41371E+03 -1.29924E+04 -1.28329E+03 -1.45719E+04  1.02940E+04 -1.08127E+04  1.99429E+04  1.12038E+03
  5.56608E+03  1.12930E+04  3.94317E+03  8.80995E+03 -1.08154E+04  8.43473E+03 -6.30209E+03 -2.41077E+03
 -9.34294E+03 -6.42440E+03 -6.90842E+02 -6.70614E+03  6.64041E+03 -1.37375E+04  5.08004E+03 -4.23657E+03
  6.14027E+03 -3.81340E+03  8.71188E+02 -1.71170E+03 -3.73787E+02  3.28564E+03  3.00169E+03 -6.65677E+03
  7.47499E+03 -6.23150E+03  7.71033E+03 -7.94166E+02  1.38847E+04  4.59610E+03  7.85587E+03  1.39325E+04
  2.20251E+03  2.00259E+04 -1.66803E+04  1.16965E+04 -1.61890E+04  4.91211E+03 -1.26974E+04 -2.02308E+03
 -5.95288E+03 -1.33819E+04  5.13766E+03 -1.05388E+04  1.68915E+03 -4.43921E+03  8.37350E+03 -8.84640E+02
  5.33749E+02 -3.05571E+03  2.22028E+03 -1.16516E+03  9.62063E+03  3.68435E+03  8.30297E+02 -3.62140E+03
  4.79926E+03 -3.80263E+03  3.81812E+03  4.52520E+03 -2.03523E+03  6.50515E+03 -7.87304E+03  6.63597E+03
 -8.76467E+03 -1.51799E+02  1.14968E+03 -1.01261E+04  4.74225E+01 -1.08915E+04  8.04363E+02 -1.08068E+04
  7.96471E+03 -8.46838E+03  8.60070E+03 -3.17224E+03  5.77262E+03  8.92176E+03  1.64255E+03  9.69360E+03
 -4.56101E+03  1.12396E+04 -7.50681E+03  2.03029E+03 -5.29126E+03 -8.12960E+03 -1.32106E+03  3.33602E+03
 -9.79692E+02 -3.49296E+03  2.05898E+02  3.97964E+03 -2.49087E+03  2.06781E+03 -5.17577E+03 -1.20934E+03
 -4.13588E+03 -4.22707E+03  2.31434E+03 -9.40176E+03  4.33164E+03 -1.04466E+04  1.21262E+04 -2.99204E+03
  7.52865E+03  3.27118E+03  6.81387E+03  1.07285E+04 -1.91844E+03  9.57555E+03 -3.45212E+03  8.52149E+03
 -6.12852E+03 -3.67189E+03 -8.93120E+03 -7.13555E+03 -4.21281E+03 -5.00769E+03  3.52314E+03 -7.57736E+03
  6.91086E+03 -3.44553E+03  5.26978E+03  1.82491E+03 -2.55585E+03  4.85022E+01  1.10047E+03 -2.29799E+03
  2.69787E+03  6.97231E+02  2.83429E+03  1.06427E+03  2.95626E+03  2.78719E+03 -2.23703E+03  1.78211E+03
 -2.93063E+03  5.15951E+03 -3.81598E+03  1.09125E+04 -1.03926E+04  4.42998E+03 -6.99405E+03 -4.82033E+03
  1.38676E+03 -5.99961E+03 -1.33429E+03 -8.09841E+03  6.35363E+03 -9.12786E+03  9.18069E+03  3.28841E+03
  2.69046E+03  5.52336E+03  5.42900E+02  2.93492E+03 -2.42129E+02  1.11138E+03 -1.54786E+03  2.80246E+03
 -1.31993E+03 -5.15428E+03  3.27805E+03 -3.16632E+03  4.83011E+03  2.37239E+03  5.67013E+03  1.55883E+03
  5.74895E+02  3.04671E+03  6.49432E+03  3.00305E+03  1.98155E+02 -1.26422E+03 -3.12952E+02 -5.06031E+02
  2.34053E+03  3.24978E+03  2.18121E+03  2.85016E+03  6.45929E+03  5.80392E+03 -2.16661E+03  5.35460E+03
 -4.13648E+03 -5.72867E+02 -4.48017E+03  6.82482E+03 -5.51382E+03 -6.24992E+03 -5.50982E+03 -7.11340E+03
  4.84903E+03 -5.59731E+03 -2.18635E+03 -1.93239E+03  8.41722E+03 -3.07951E+02 -3.31905E+03  1.13373E+03
  3.00274E+02 -3.98299E+03 -3.83581E+03 -2.79375E+03  1.01244E+02 -7.14248E+03  1.96180E+03 -6.80784E+03
  3.72960E+03 -4.07352E+02  2.12033E+03 -1.23550E+03  5.20911E+03 -8.66778E+02 -4.45866E+03  2.34654E+03
 -4.71585E+02  4.40076E+03  8.17466E+02 -2.07423E+03  1.34848E+03 -7.45857E+03  2.53795E+03 -3.84100E+03
  9.20180E+03 -2.71972E+03  4.10901E+03 -1.47439E+03  1.93856E+03  5.02916E+03 -4.01921E+02  5.33507E+03
 -3.43023E+03  5.18540E+03 -3.07337E+03 -4.13518E+02 -5.36316E+03 -7.30724E+03  9.68693E+02  1.46739E+03
  3.58672E+03  5.33520E+01  1.79143E+03  1.44937E+03  6.85677E+03 -7.72047E+02  2.53044E+03  4.63184E+03
 -5.04954E+03  1.91728E+03  2.00829E+03 -1.97045E+03 -1.41443E+03  2.13007E+03 -4.58121E+03 -6.83932E+02
 -3.05894E+03  1.39006E+03  4.98583E+02  6.70046E+02  1.50827E+02  1.98877E+03 -6.21808E+03 -2.87055E+03
 -1.47131E+03 -5.13029E+03  3.23533E+03 -9.89039E+03  8.44014E+03 -9.43035E+03 -1.38130E+02 -3.00554E+03
  7.38727E+03  2.18968E+03  4.57026E+02  7.30562E+03  2.46463E+03  6.36304E+03 -7.40117E+03  5.39790E+03
 -4.16624E+03  4.72183E+03 -2.41894E+03 -4.51802E+03  3.52358E+03  2.58629E+03  2.65243E+03 -3.82231E+03
  2.86310E+03  1.01337E+03 -5.31569E+03  2.25882E+03 -1.00908E+02 -3.84111E+03 -1.50799E+03  1.27123E+03
  1.13036E+04 -1.38406E+03  2.54950E+03 -4.65060E+02  2.72339E+03  2.36309E+03  5.32259E+03  4.04973E+03
 -3.97240E+03  9.07878E+03 -3.64184E+03  5.99088E+03 -5.99810E+03  4.34349E+03 -4.44546E+03 -1.48675E+03
 -2.52250E+03 -7.27782E+03 -2.32126E+02 -6.94028E+03  5.67938E+02  2.19132E+02 -2.77779E+03 -8.02737E+00
 -2.56944E+03  1.05144E+03 -6.32749E+02  6.77702E+02 -7.99506E+03  4.85886E+02 -3.38768E+03  6.79050E+03
  6.84090E+03  7.00269E+03  3.30337E+03  3.17597E+03  2.07076E+02  2.71770E+03 -1.97686E+03  3.58249E+03
 -2.60477E+03  2.09297E+03 -1.24030E+03 -4.03990E+03 -6.13728E+03 -4.13194E+03 -3.79592E+03 -1.33715E+04
  4.59096E+03 -4.28510E+03 -3.58249E+03 -2.07203E+03  8.68913E+02 -5.42247E+03 -1.17003E+03  5.61761E+03
  2.20230E+02  3.96004E+03 -4.24833E+03  4.69665E+03 -4.19247E+03  4.45550E+03  4.89089E+02 -8.64368E+02
 -4.20492E+03  4.43204E+03 -2.39538E+03 -1.90905E+03  1.51626E+03 -4.10215E+03 -5.30389E+03  1.03440E+02
  1.26389E+03  5.63768E+03 -6.63188E+02 -4.18452E+03  4.07783E+03 -1.56975E+03  4.56978E+03 -2.31940E+03
 -1.14011E+03 -2.97830E+03  6.29743E+03  2.76388E+03  1.76387E+03  3.99971E+03  1.89478E+03 -2.08808E+02
