 $NMID ID='MM_0lb_SNR50_10hz_g55_87.RAW', FMTDAT='(8E13.5)'
 TRAMP=1., VOLUME=1. $END
  3.13340E+05  3.63176E+03  3.41264E+05  2.52257E+05  8.50365E+04  3.41580E+05 -1.31697E+05  2.51041E+05
 -1.88899E+05  7.70000E+04 -1.11989E+05 -3.77232E+04  3.86795E+03 -5.46147E+04  5.89793E+04  7.26438E+03
  3.35077E+04  4.78058E+04 -1.36719E+04  8.23347E+04 -6.17109E+04  6.49644E+04 -8.75608E+04  3.43122E+04
 -8.03872E+04 -5.79638E+03 -5.08309E+04 -4.67681E+04 -1.47518E+04 -7.11727E+04  2.65389E+04 -4.71020E+04
  4.18686E+04  5.84439E+03  1.93122E+04  5.03478E+04 -3.86112E+04  5.25575E+04 -6.33594E+04 -2.15424E+03
 -5.36528E+04 -5.41389E+04 -9.52125E+03 -7.91310E+04  3.34598E+04 -5.74760E+04  4.40925E+04 -2.35961E+04
  4.68944E+04  1.19822E+04  3.41009E+04  2.56717E+04  1.49672E+04  3.02197E+04 -3.90898E+03  3.01171E+04
 -1.47194E+04  7.62250E+03 -1.66692E+04 -1.19109E+04  7.08338E+03 -4.52467E+03  3.06888E+04  1.35527E+04
  7.46859E+03  3.85108E+04 -3.54504E+04  3.68663E+04 -5.92278E+04  3.21335E+03 -5.93985E+04 -3.76437E+04
 -1.35824E+04 -6.16345E+04  4.12711E+04 -5.10585E+04  5.89690E+04 -4.43069E+03  3.28763E+04  3.26475E+04
 -7.64941E+03  3.86498E+04 -2.86725E+04  1.63726E+04 -3.40014E+04 -5.32914E+03 -1.87548E+04 -6.72113E+03
 -8.73543E+03 -1.13828E+04 -8.29584E+02 -1.69840E+04  1.22552E+04 -2.15306E+04  1.70573E+04 -1.36532E+04
  1.09015E+04 -4.20606E+02 -1.49611E+04  1.68255E+04 -2.02265E+04 -6.78531E+03 -1.03130E+04 -3.31501E+04
  1.91613E+04 -4.63780E+04  5.23144E+04 -3.10100E+04  5.42498E+04  2.23915E+04  1.97125E+04  4.52745E+04
 -1.49859E+04  3.87896E+04 -2.70272E+04  3.26050E+03 -1.40060E+04 -3.33553E+04  2.86885E+04 -3.79841E+04
  4.55947E+04 -1.30383E+04  4.09914E+04  2.73065E+04  2.08081E+04  4.93553E+04 -8.83229E+03  5.78654E+04
 -3.43829E+04  4.07178E+04 -4.19718E+04  1.61672E+04 -5.26135E+04 -2.10374E+04 -2.50819E+04 -4.78346E+04
  1.01105E+04 -4.08148E+04  3.69067E+04 -1.86182E+04  4.10597E+04  8.34656E+03  8.70844E+03  1.82007E+04
 -2.01607E+04  8.74831E+03 -6.99155E+03 -5.73530E+03  6.22021E+03 -7.84008E+03  2.33804E+04  3.34899E+03
  1.24088E+04  2.34065E+04 -6.23657E+03  2.93503E+04 -2.55919E+04  1.96493E+04 -2.74095E+04 -1.06819E+03
 -2.12833E+04 -1.16546E+04 -1.04442E+04 -3.46525E+04  1.93318E+03 -2.44518E+04  1.99271E+04 -2.48916E+04
  3.68036E+04 -1.75133E+04  4.21253E+04  6.13215E+03  2.16052E+04  2.25831E+04  1.10062E+04  4.01679E+04
 -2.39834E+04  2.77609E+04 -3.60647E+04  1.39167E+04 -2.51819E+04 -1.17858E+04 -3.16057E+03 -1.05526E+04
 -1.71575E+03  2.12218E+03 -8.34121E+03  6.33517E+03 -2.36545E+04  1.10677E+04 -2.09042E+04 -4.21768E+03
 -1.36188E+04 -2.55858E+04  4.77887E+03 -1.99959E+04  1.69884E+04 -2.01886E+04  2.23739E+04 -5.78434E+03
  1.39387E+04  1.89707E+04  2.15252E+03  1.93984E+04 -2.51153E+04  8.58711E+03 -2.84645E+04 -6.05382E+03
 -1.69232E+04 -2.20764E+04  5.29759E+02 -3.13537E+04  7.14866E+03 -1.98888E+04  1.97628E+04 -1.05178E+04
  2.68735E+04  1.77145E+03  1.59088E+04  5.20003E+03  1.02957E+04  9.14322E+03  1.37464E+04 -6.23767E+03
  1.78303E+04 -3.02337E+03  2.71522E+04  1.21095E+04  1.57324E+04  3.56456E+04 -3.69862E+03  4.45132E+04
 -2.58053E+04  4.04911E+04 -3.82283E+04  1.86416E+04 -4.73603E+04 -8.27018E+03 -3.18793E+04 -2.93948E+04
 -1.31652E+04 -3.04497E+04  1.36035E+04 -2.73452E+04  2.47439E+04 -1.11716E+04  2.54944E+04  8.06056E+03
  1.33392E+04  1.62949E+04 -4.65762E+03  1.44750E+04 -1.97480E+04 -3.97992E+01 -1.53986E+04 -1.82731E+04
 -2.94652E+03 -1.60760E+04  1.31287E+04 -1.86210E+04  9.69652E+03 -3.24897E+03  3.10786E+03  9.61034E+03
 -3.45990E+03  3.90349E+03 -1.33969E+04 -8.04952E+03 -8.82069E+02 -2.18055E+04  1.51399E+04 -1.78052E+04
  2.81738E+04 -8.80155E+03  2.76090E+04  4.59414E+03  2.56802E+04  1.83836E+04  1.07550E+04  2.74044E+04
 -8.07755E+03  3.16118E+04 -2.00047E+04  1.84324E+04 -2.44717E+04  6.96174E+03 -1.51234E+04  2.09476E+02
 -6.46359E+03 -8.47452E+03  4.76476E+03  2.98556E+03 -3.03951E+03  6.50402E+03 -5.28648E+03  2.38418E+03
 -1.55751E+04  5.39801E+02 -7.44866E+03 -1.48766E+04 -4.65751E+03 -2.20792E+04  1.29395E+04 -2.21140E+04
  1.18871E+04 -5.63140E+03  6.79847E+03  4.95775E+03 -2.72637E+03  9.56147E+03 -3.13861E+03 -8.37921E+02
 -8.23382E+03 -8.71627E+03  2.36131E+03 -1.60571E+04  8.64186E+03 -2.44781E+04  2.07895E+04 -6.33402E+03
  2.38428E+04  2.93708E+03  1.69734E+04  1.78866E+04 -2.45079E+02  1.64595E+04 -4.57603E+03  5.86653E+03
 -1.15058E+04  6.91207E+03 -7.53268E+03 -2.81990E+03  3.04591E+03  8.55500E+02  8.58943E+03 -2.94158E+03
  1.97920E+03  6.23875E+03  7.44327E+03  1.27304E+04 -7.26450E+03  1.20165E+04 -1.57602E+04  2.85000E+03
 -1.34204E+04 -1.34880E+04 -4.18240E+03 -1.37167E+04  8.55305E+03 -1.00183E+04  1.66097E+04  4.93120E+03
 -5.12949E+02  9.19243E+03 -9.05714E+03  8.48747E+03 -1.14360E+04  2.53176E+03 -8.98305E+03 -6.62484E+03
 -6.06852E+03 -1.83646E+04  2.46894E+03 -1.44867E+04  1.23248E+04 -7.69485E+03  1.70500E+04  7.33696E+03
  1.00171E+04  1.50525E+04 -1.35349E+03  1.22497E+04 -1.33186E+04  7.69965E+03 -1.13869E+04 -1.96534E+03
 -9.49691E+03 -9.53738E+03  5.75700E+02 -1.55209E+04  5.73722E+03 -1.01825E+03  6.12081E+03  1.37185E+03
  5.40674E+03  2.47618E+03  3.58230E+03 -5.76448E+03 -2.81967E+03 -1.16168E+02  2.40429E+03 -1.01640E+04
  1.01375E+04 -2.43808E+03  1.07098E+04  1.19747E+03  1.44565E+04  1.48024E+04  1.27411E+04  2.11698E+04
 -6.61002E+03  2.15056E+04 -1.74791E+04  1.67202E+04 -2.15114E+04  3.52189E+03 -2.41433E+04 -6.36612E+03
 -1.45689E+04 -1.84776E+04 -4.00442E+03 -1.50386E+04  4.39531E+03 -3.25243E+03  1.04756E+04 -8.96149E+03
  6.89375E+03 -5.23258E+03 -3.65611E+03 -6.21545E+03  5.97507E+03 -7.33828E+03  3.30799E+03  1.22059E+03
  8.62202E+03 -4.89560E+03  6.60920E+03  9.51433E+03 -2.03738E+03  7.17761E+03 -7.88391E+03  5.49502E+03
 -1.15872E+04  1.32327E+03 -1.25951E+04 -7.05855E+03 -3.23821E+03 -1.77330E+04  1.15499E+04 -2.24136E+04
  1.23540E+04 -1.44658E+04  1.86362E+04  1.06087E+04  1.50180E+04  1.16504E+04  1.10655E+03  2.06691E+04
 -7.07127E+03  1.27506E+04 -5.79550E+03  2.45409E+03 -8.61715E+03 -1.88251E+02  4.20434E+02  2.19675E+03
  3.20201E+03 -2.41483E+03 -7.20697E+03  1.84820E+03 -9.99329E+03  2.53734E+02 -6.08352E+03 -3.01592E+03
 -1.47830E+04 -1.09990E+04  8.42527E+01 -1.21463E+04  9.77793E+03 -1.09998E+04  6.82703E+03 -7.44718E+03
  1.44283E+04  1.37932E+04  8.28020E+03  9.19270E+03 -4.69389E+03  1.73724E+04 -1.15005E+04  9.38074E+03
 -5.88794E+03  1.99496E+03 -1.14805E+04 -1.32297E+04  3.00550E+03 -8.93582E+03  4.72808E+03 -1.13382E+04
  7.40682E+03  9.80666E+02  6.93249E+03  3.29976E+03  2.86689E+03  3.94024E+03  8.42208E+02 -5.99154E+01
 -3.10938E+03 -1.70198E+01  6.09257E+03  1.85537E+03 -3.95272E+03  5.79373E+03 -1.46037E+03 -8.09414E+02
 -2.88174E+03  1.28733E+04 -1.36980E+04  1.21603E+04 -6.14157E+03  9.22076E+03 -8.80796E+03 -3.80014E+03
 -5.80828E+03 -1.11501E+04  9.60321E+02 -1.80850E+04  3.01448E+03 -1.21188E+04  1.34291E+04 -3.39992E+03
  1.36708E+04  9.05812E+03  1.92742E+03  1.08738E+04 -1.44762E+04  1.47442E+03  1.08013E+03  6.65197E+03
 -2.92328E+03 -9.01893E+03 -8.56367E+02 -7.26530E+03 -2.15499E+03 -8.94472E+03 -4.62705E+01  6.28068E+03
  5.64569E+03  3.14485E+03  6.04778E+03 -6.01044E+03 -3.16547E+03  8.05787E+03 -4.51741E+02  4.91153E+02
 -2.48948E+03  9.44282E+02  6.84416E+03  1.97183E+03  3.27668E+03  1.04587E+04 -4.25493E+01  9.93843E+03
 -7.73344E+03  8.65653E+03 -9.30278E+03  3.48064E+02 -7.02251E+03 -7.26108E+03 -3.64313E+03 -6.06216E+03
  4.19814E+03 -2.69267E+03  6.93605E+03  1.66314E+03  6.27184E+03  3.08506E+03 -1.21089E+03  6.17666E+03
 -7.35930E+03 -1.30074E+03 -9.47341E+03  2.59161E+02  5.15772E+03 -7.28643E+03  1.23157E+03 -8.05316E+03
  2.22660E+03 -8.01773E+02  3.78350E+03  1.86733E+03  1.88433E+03  2.10385E+03  2.59585E+03  6.85444E+03
 -5.76651E+03 -2.85477E+03 -7.14034E+03 -2.35776E+03  4.54734E+03 -6.40753E+03  6.02477E+03 -5.24354E+03
  1.29311E+04  2.66956E+03  7.98893E+03  6.31918E+03 -6.38511E+03  8.11170E+03 -1.64149E+02  2.90950E+03
 -6.09975E+03  6.90692E+03 -1.02871E+04 -2.49914E+03 -6.02952E+03 -5.64634E+03 -1.46203E+03 -5.06006E+03
  4.81325E+03 -4.79555E+03  7.56261E+03  6.02358E+03  1.82851E+03  3.91818E+03  1.34378E+02  6.96455E+03
  1.35579E+03  2.28779E+03 -5.00756E+03  3.01985E+03  3.28232E+03 -5.90132E+03  2.91722E+03  9.31160E+02
 -3.68717E+03  8.99594E+02 -4.97354E+03  4.56626E+03 -8.97417E+03 -4.14000E+02 -1.32906E+04  3.82060E+03
 -5.01373E+03 -9.05511E+03  8.66874E+02 -1.42075E+04  3.20034E+03 -1.80531E+04  1.26418E+04 -1.37306E+03
  8.18259E+03  4.39820E+03  1.51846E+04  1.31988E+04  2.39395E+02  1.01059E+04  2.59125E+03  8.62034E+03
 -5.42549E+03  3.89378E+03 -5.74781E+03  6.82292E+02 -4.04423E+03 -2.32113E+03  6.10520E+02  1.67774E+03
 -2.25666E+03  5.69815E+03  4.99717E+03  6.03918E+02  1.89280E+03 -1.33159E+03  3.64614E+03 -8.01694E+03
  1.77503E+03 -5.99940E+03  1.04533E+04 -1.41528E+03  1.09018E+04  2.07844E+03 -2.67958E+03  5.00379E+03
  1.19277E+03  1.20098E+04 -5.01605E+03 -1.93226E+03 -5.45966E+03 -2.34732E+03 -1.19672E+04 -9.09628E+03
 -1.50881E+03 -1.16010E+04  1.81196E+03 -7.10864E+03  6.04124E+03 -1.99561E+03  8.58517E+03 -1.70721E+02
  8.38048E+03  1.51337E+02 -1.52096E+03  5.98201E+03  1.38108E+03  3.07905E+03 -1.66089E+03 -7.39269E+02
  3.51368E+03  2.98031E+02  4.57732E+03 -2.88145E+03  3.03174E+02  2.18237E+03  1.71975E+03  2.05437E+03
 -3.02467E+03  5.78915E+03 -5.85748E+03  6.43921E+02 -4.80014E+03 -3.56235E+03 -2.90987E+03 -5.56111E+03
  6.01010E+03 -6.84837E+03  7.35822E+03  2.37089E+03  4.48979E+03  2.76881E+03  3.71185E+03  3.21313E+03
 -1.32021E+03  1.14702E+04 -4.52068E+02  9.34641E+02 -6.04699E+03  5.80646E+03 -1.82417E+03 -3.28481E+03
 -2.14554E+03 -5.29610E+03 -5.12110E+03 -1.83976E+03 -2.41569E+03  1.94402E+03 -6.45483E+03 -4.66249E+03
 -6.07441E+03 -2.71932E+03 -6.26099E+03 -5.58657E+03  1.24059E+03 -8.74776E+03  5.09423E+03 -1.84770E+03
  8.53191E+03 -1.10696E+03  8.55502E+02  1.20773E+03 -1.54687E+03  5.53863E+03  2.30221E+03  1.17413E+03
