 $NMID ID='MM_0lb_SNR50_10hz_g55_13.RAW', FMTDAT='(8E13.5)'
 TRAMP=1., VOLUME=1. $END
  3.09320E+05 -1.49746E+03  3.29031E+05  2.46275E+05  8.47287E+04  3.39962E+05 -1.31849E+05  2.51964E+05
 -1.86292E+05  8.10866E+04 -1.10699E+05 -3.39616E+04 -6.59075E+03 -5.13436E+04  5.43652E+04  4.17790E+03
  3.85451E+04  5.39416E+04 -1.91266E+04  7.38521E+04 -5.22633E+04  6.52438E+04 -8.67147E+04  2.48105E+04
 -7.66877E+04 -8.97845E+03 -5.65901E+04 -5.60957E+04 -7.82976E+03 -7.14346E+04  2.31044E+04 -4.27473E+04
  4.54532E+04  3.34422E+03  2.23744E+04  4.12788E+04 -3.28591E+04  4.87118E+04 -7.06760E+04 -4.60268E+03
 -5.44349E+04 -5.39655E+04 -7.47816E+03 -7.50631E+04  3.55271E+04 -5.94167E+04  4.35026E+04 -1.63872E+04
  4.94200E+04  1.34901E+04  3.54702E+04  2.42328E+04  1.66725E+04  3.59697E+04 -2.74487E+02  2.95220E+04
 -2.01131E+04  9.05523E+03 -1.72435E+04 -7.04278E+03  1.02936E+04 -1.22978E+04  2.52464E+04  1.81564E+04
  5.73343E+03  3.46185E+04 -3.60547E+04  3.24299E+04 -6.40572E+04 -2.04841E+03 -5.32897E+04 -4.53611E+04
 -1.77126E+04 -6.45393E+04  3.76764E+04 -4.51584E+04  5.71264E+04  1.44411E+03  3.48656E+04  3.61331E+04
 -5.01392E+03  4.07079E+04 -2.70788E+04  1.88678E+04 -3.43125E+04 -7.27908E+03 -1.47575E+04 -1.80161E+04
 -4.38351E+03 -1.08156E+04 -1.06888E+03 -1.91247E+04  1.00238E+04 -2.66035E+04  1.43835E+04 -7.20936E+03
  1.05392E+04  7.81356E+03 -1.21709E+04  1.01468E+04 -3.09393E+04 -9.00141E+03 -6.02236E+03 -4.22595E+04
  2.81701E+04 -4.42810E+04  5.19550E+04 -2.34825E+04  4.38297E+04  2.30413E+04  1.94529E+04  4.28614E+04
 -1.70548E+04  3.14367E+04 -2.85868E+04  4.47452E+02 -1.18764E+04 -2.97860E+04  2.44444E+04 -3.20514E+04
  4.90012E+04 -1.13862E+04  4.17894E+04  2.76598E+04  1.81187E+04  5.15875E+04 -1.37412E+04  5.54556E+04
 -3.50887E+04  3.80681E+04 -4.62833E+04  4.67700E+03 -4.61936E+04 -1.87894E+04 -2.89378E+04 -4.11694E+04
  1.06659E+04 -4.13997E+04  3.13560E+04 -1.23730E+04  3.20572E+04  1.17100E+04  9.23755E+03  2.05610E+04
 -1.64221E+04  1.28878E+04 -1.13451E+04 -5.74700E+03  9.79594E+03 -1.55316E+04  1.73870E+04  1.01357E+04
  5.55119E+03  1.96347E+04 -7.52030E+03  2.99460E+04 -2.95258E+04  1.34292E+04 -3.57059E+04 -7.96430E+03
 -2.98441E+04 -1.91305E+04 -9.26657E+03 -2.23745E+04  3.47624E+03 -2.72965E+04  1.94593E+04 -1.72293E+04
  3.28890E+04 -1.07597E+04  3.70379E+04  6.19467E+03  2.85135E+04  2.49550E+04  3.37242E+03  4.29038E+04
 -2.14896E+04  3.18076E+04 -3.08703E+04  1.37612E+04 -2.21363E+04 -9.54145E+03  1.20302E+02 -1.90427E+04
  2.56661E+03 -4.07189E+03 -7.51677E+03  6.72153E+03 -2.17668E+04  1.08716E+04 -1.62054E+04 -1.06146E+04
 -1.18523E+04 -2.22988E+04  1.34689E+04 -2.63476E+04  2.21106E+04 -1.86975E+04  2.55002E+04 -3.46756E+03
  1.43007E+04  1.91993E+04 -1.40608E+03  1.89813E+04 -1.17609E+04  1.16995E+04 -2.24385E+04 -7.32597E+03
 -1.77760E+04 -2.11390E+04  2.79316E+03 -2.94215E+04  1.42071E+04 -2.10606E+04  2.39073E+04 -1.07833E+04
  1.66500E+04 -4.62065E+03  1.89164E+04 -1.87589E+03  8.52840E+03 -4.87189E+03  9.79129E+03  1.55594E+03
  2.51799E+04  5.97529E+03  3.22206E+04  1.86007E+04  1.82104E+04  3.48152E+04 -8.69619E+03  4.49532E+04
 -2.45243E+04  3.60769E+04 -4.15037E+04  2.11906E+04 -4.76088E+04 -8.72631E+02 -3.73364E+04 -2.57403E+04
 -1.48349E+04 -3.56502E+04  1.19123E+04 -3.75373E+04  2.41280E+04 -1.26562E+04  2.01601E+04  8.74323E+03
  3.86234E+03  1.81102E+04 -1.22712E+04  9.31438E+03 -2.35119E+04  4.45277E+02 -1.25155E+04 -7.17912E+03
  1.63556E+03 -2.21070E+04  1.19770E+04 -1.15615E+04  1.71536E+04 -5.36279E+03  6.48257E+03  9.41640E+03
 -1.53749E+04  7.60030E+03 -1.23684E+04 -8.19195E+03 -5.16745E+03 -1.51937E+04  8.87283E+03 -2.11016E+04
  2.25802E+04 -1.47873E+04  2.68625E+04 -2.47010E+03  2.11588E+04  2.13220E+04  1.02489E+04  3.00266E+04
 -4.11341E+03  3.66657E+04 -2.43930E+04  2.12797E+04 -1.92870E+04  4.92739E+03 -1.77450E+04 -8.31198E+03
 -1.58264E+03 -1.31996E+04 -2.92891E+03  5.99299E+03 -5.97496E+03  5.22046E+03 -7.67624E+03  8.02862E+03
 -1.91778E+04  2.22434E+03 -1.72628E+04 -1.54439E+04 -8.03324E+03 -1.88701E+04  6.37954E+03 -1.72995E+04
  1.81974E+04 -5.82039E+03  5.86548E+03  5.99936E+03 -3.69193E+03  9.42898E+03 -4.71087E+03  2.49571E+03
 -3.98436E+03 -1.26221E+04 -1.05652E+03 -1.79193E+04  7.09599E+03 -1.66803E+04  1.50279E+04 -7.04012E+03
  1.99947E+04  4.37792E+03  1.58607E+04  1.34176E+04  3.99217E+03  2.86594E+04 -4.04891E+03  1.25367E+04
 -1.07946E+04  5.54713E+03 -5.30564E+03 -3.55486E+03  3.07087E+02 -4.87429E+03  1.00225E+04 -9.46675E+02
  8.42402E+03  8.83475E+03 -2.52945E+03  1.06210E+04 -7.61363E+03  1.37725E+04 -1.37138E+04  3.49912E+03
 -1.03925E+04 -1.33756E+04 -8.42496E+02 -1.40179E+04  6.31189E+03 -5.35778E+03  1.15611E+04  7.81864E+03
  3.45934E+03  1.23873E+04 -6.64781E+03  1.40588E+04 -1.45752E+04  6.17278E+03 -1.32786E+04  5.44412E+02
 -3.48879E+03 -1.28781E+04  9.41175E+03 -1.77828E+04  1.93770E+04 -1.21891E+04  1.27071E+04  4.60368E+03
  8.57327E+03  9.73867E+03 -2.90828E+03  1.46112E+04 -1.01303E+04  8.37394E+03 -1.21556E+04 -8.89595E+03
 -1.35080E+04 -1.12762E+04 -5.05440E+03 -1.35635E+04  4.11176E+03 -5.26997E+03  4.88981E+03 -1.38073E+03
  8.16626E+03  1.50830E+03  5.87447E+03  3.15677E+03  7.03155E+02 -3.02895E+03  5.94817E+03 -1.04450E+04
  7.00650E+03 -4.53920E+03  1.73051E+04  4.02959E+03  2.27204E+04  6.70189E+03  7.93817E+03  1.66241E+04
 -4.18362E+03  2.05389E+04 -2.25664E+04  1.68812E+04 -2.46607E+04  2.83301E+03 -2.38752E+04 -1.03299E+04
 -8.52874E+03 -1.34455E+04  4.88349E+02 -1.12934E+04  9.72695E+03 -4.10121E+03  1.11268E+03 -3.70788E+03
 -1.34946E+03 -1.65314E+02 -7.12913E+01 -8.74760E+03  2.01920E+03 -3.08844E+03  6.09520E+03  1.92405E+03
  9.65898E+03 -3.33564E+03  6.38426E+03  8.03262E+03 -5.19743E+03  9.65198E+03 -9.07284E+03  1.15390E+04
 -1.07337E+04 -2.33220E+03 -1.38671E+04 -1.16973E+04 -3.50270E+01 -1.28780E+04  5.75890E+03 -1.57501E+04
  1.30203E+04 -7.22739E+03  1.45637E+04  2.41606E+03  1.36071E+04  1.45010E+04  6.77603E+03  1.76024E+04
 -2.32156E+03  1.00257E+04 -1.46740E+04  3.53292E+03 -3.15777E+03 -6.04566E+03 -6.17602E+03 -5.00142E+03
  7.57181E+02  4.04248E+03 -1.72742E+03  1.13659E+03 -7.30510E+03  7.48302E+03 -1.00096E+04  2.01641E+03
 -1.18925E+04 -5.81491E+03  3.71492E+03 -1.66468E+04  8.05342E+03 -9.33025E+03  1.28277E+04 -2.04074E+03
  1.60306E+04  7.50118E+03  2.37602E+03  1.21118E+04 -2.76660E+03  1.32650E+04 -1.11687E+04  1.04435E+03
 -2.19931E+04  4.44412E+03 -9.81884E+03 -6.35601E+03 -4.87884E+03 -1.05116E+04  6.40651E+03 -4.39845E+03
  5.59705E+03  1.20162E+03  8.70592E+03  4.32215E+03  2.98510E+03 -7.72097E+02  2.99515E+02  5.64572E+03
 -7.17121E+01 -4.46218E+03  4.08433E+03 -9.90638E+02  5.55511E+03  4.44594E+03  5.74583E+03  1.05706E+04
 -6.00109E+03  1.01732E+03 -7.87725E+03  1.03928E+04 -1.02608E+04  2.84179E+03 -1.49550E+04 -8.85516E+03
 -4.94439E+03 -1.47119E+04  4.55536E+03 -1.79804E+04  1.04936E+04 -1.84126E+04  9.82715E+03 -8.09743E+03
  7.52603E+03  4.98830E+03 -3.56149E+03  1.04448E+04 -1.00557E+04  3.85991E+03 -1.22894E+04 -3.12742E+03
 -5.97255E+03 -2.66523E+03  7.07999E+03 -2.64026E+03  2.18102E+03 -6.08355E+02 -2.38868E+02 -1.29163E+03
  1.02461E+04  3.63869E+03  7.71638E+02 -3.30163E+03 -6.62863E+03  1.37805E+03  5.91523E+03  3.66733E+03
 -4.92600E+03 -7.34315E+03  2.87408E+03 -5.39373E+02  1.88427E+03  8.35792E+03  9.19341E+02  9.22151E+03
 -5.94439E+03  6.98259E+03 -8.17507E+03 -2.53601E+03 -7.95714E+03 -2.98078E+01 -4.80067E+03 -2.45667E+03
  2.16281E+03 -3.30426E+03  2.35844E+03 -5.96459E+03 -2.91464E+03  5.39398E+03  4.38936E+01  5.53756E+03
 -1.01807E+04  7.36046E+03 -4.53050E+03 -3.96154E+03 -3.99599E+01 -9.34278E+03 -3.27638E+03 -4.94201E+03
  8.01817E+03 -5.71233E+03  9.83213E+03 -3.72353E+03  4.03233E+03  4.58064E+03 -1.86368E+03  7.70830E+03
 -5.70989E+03  6.22525E+03 -3.71774E+03 -6.08618E+03  8.47583E+02 -4.05059E+03  1.12157E+04 -2.79578E+03
  1.01931E+04  3.21713E+03  1.26236E+04  8.90374E+03  7.77170E+03  9.22637E+03 -3.65556E+03  5.25717E+03
 -3.35198E+03  1.98596E+03 -1.13627E+04 -1.88191E+03 -5.14809E+03 -6.25665E+03  4.38979E+03 -4.03641E+03
  9.84719E+03 -2.23118E+03  1.93538E+03  2.40475E+03  2.03396E+03 -7.54339E+02 -3.95524E+03 -1.06473E+03
 -4.60936E+03  2.10109E+03  2.28537E+03 -7.35517E+03  3.98056E+03 -2.82928E+03 -2.92775E+03  2.79561E+03
 -5.99602E+03  5.28401E+03 -8.85759E+03  1.33633E+03 -9.50578E+03  3.57050E+02 -1.54471E+04 -2.99641E+03
 -1.67530E+03 -9.04745E+03  8.79433E+03 -1.81171E+04  7.43897E+03 -8.28645E+03  1.30496E+04 -3.18442E+03
  1.47521E+04 -7.75458E+02  1.00942E+04  6.13544E+03 -1.12980E+03  9.17979E+03 -4.61381E+03  1.16406E+04
 -9.12561E+03 -1.76007E+03  9.28529E+01 -2.56823E+03 -2.69092E+03 -6.45062E+03  1.22172E+03 -1.89994E+03
 -2.55080E+03 -1.18258E+03  2.65251E+03  6.49533E+03 -4.86284E+03 -4.96483E+03  2.11187E+03 -6.69177E+03
  2.96858E+03 -5.97195E+03 -1.30830E+03  4.69786E+03  1.06866E+04  3.92422E+03  5.43948E+03  1.31907E+04
 -7.99923E+03  8.28431E+03 -8.86077E+03  8.58149E+03 -7.45002E+03 -5.63543E+03 -1.29427E+04 -5.76685E+03
  1.47011E+03 -5.43442E+03 -1.67778E+03 -5.62932E+03  7.48189E+03  5.19006E+02  8.95562E+03 -6.03467E+02
  2.98266E+03  9.05934E+02 -4.29787E+03  5.78022E+03  4.13177E+02  2.90408E+03  1.27958E+03  8.32590E+02
  4.92020E+02 -3.57697E+03 -5.51348E+02  3.08458E+03  3.66070E+03  5.50581E+03 -1.52947E+03  7.26702E+03
 -4.97793E+03  5.70882E+03 -5.92527E+03 -7.89076E+03 -7.90667E+03 -1.11783E+03  1.62375E+03 -7.37462E+03
  8.14706E+03 -1.32742E+04  6.73201E+03  6.86301E+02  1.54911E+04  3.93146E+03  2.01579E+03  7.09575E+03
  3.38118E+03  5.86002E+03 -7.13880E+02  5.51598E+03 -3.28612E+03 -6.12578E+03 -6.33680E+03  3.45126E+03
 -3.12115E+03  9.39117E+02  2.32330E+03  7.29073E+03 -4.15343E+03  4.98428E+02 -9.31210E+00 -6.70471E+03
 -2.74336E+02 -9.01468E+03 -1.30685E+03 -9.98038E+03  2.06588E+03 -7.43845E+03  4.63238E+03  6.11000E+02
  1.21486E+04  5.47793E+02  8.14371E+03  7.17643E+03 -2.25184E+03  8.82368E+03 -2.22031E+03  5.75121E+03
