 $NMID ID='MM_0lb_SNR50_7hz_g60_37.RAW', FMTDAT='(8E13.5)'
 TRAMP=1., VOLUME=1. $END
  3.08300E+05 -2.72199E+03  3.37068E+05  2.48865E+05  8.38112E+04  3.39533E+05 -1.34414E+05  2.52781E+05
 -1.83176E+05  8.57358E+04 -1.05719E+05 -2.68864E+04  7.29615E+03 -4.91283E+04  5.07183E+04 -2.30108E+03
  3.48484E+04  4.83471E+04 -2.42460E+04  6.90185E+04 -6.03129E+04  6.83749E+04 -8.77839E+04  3.85523E+04
 -8.49820E+04 -1.00633E+04 -5.63596E+04 -5.20646E+04 -1.45200E+04 -7.54329E+04  2.79070E+04 -4.44654E+04
  4.79401E+04  1.26391E+04  9.90331E+03  4.73404E+04 -3.49892E+04  4.94275E+04 -7.07947E+04 -1.54984E+03
 -5.30423E+04 -5.83307E+04 -9.37845E+03 -7.75353E+04  3.08744E+04 -5.54625E+04  5.27571E+04 -1.16026E+04
  5.13304E+04  1.30822E+04  3.45311E+04  2.93950E+04  1.38122E+04  3.01887E+04 -8.86595E+03  2.50717E+04
 -2.53053E+04  1.63640E+04 -2.54340E+04 -1.20831E+04  1.53440E+04 -4.64034E+03  2.76027E+04  1.11039E+04
  1.04970E+04  3.92398E+04 -2.90459E+04  3.76897E+04 -6.73216E+04  2.27083E+03 -6.63065E+04 -4.98901E+04
 -5.75541E+03 -6.93953E+04  3.53225E+04 -4.57909E+04  5.96766E+04 -4.80756E+03  3.95901E+04  4.11514E+04
 -3.05878E+03  3.31735E+04 -2.76990E+04  1.99958E+04 -3.25163E+04 -8.09025E+03 -1.65353E+04 -1.66754E+04
 -8.04917E+03 -1.56761E+04  1.56857E+03 -2.38591E+04  7.11315E+03 -3.05120E+04  1.43119E+04 -6.92793E+03
  1.01541E+04  6.00768E+03 -1.39368E+04  8.59271E+03 -2.50820E+04 -8.93411E+03 -1.03589E+04 -4.10035E+04
  2.95353E+04 -4.91993E+04  5.28611E+04 -2.19561E+04  4.84035E+04  2.07493E+04  1.96089E+04  5.15066E+04
 -1.79413E+04  4.13747E+04 -2.70921E+04  4.76699E+02 -1.32689E+04 -3.59620E+04  2.02150E+04 -4.03324E+04
  4.57506E+04 -6.99166E+03  4.20466E+04  2.87671E+04  2.29817E+04  5.81948E+04 -1.41718E+04  6.35644E+04
 -3.97075E+04  3.91903E+04 -5.29399E+04  1.81366E+04 -5.94803E+04 -2.19825E+04 -2.89855E+04 -4.23340E+04
  1.05396E+04 -4.32847E+04  3.74845E+04 -2.19449E+04  3.35449E+04  1.27946E+04  8.56913E+03  1.96597E+04
 -1.41475E+04  9.32203E+03 -1.21616E+04 -7.55297E+03 -2.83126E+03 -1.40239E+04  1.76863E+04  7.66194E+03
  1.33200E+04  2.08700E+04 -8.47867E+03  3.08027E+04 -1.84711E+04  1.55337E+04 -3.42303E+04  8.51709E+02
 -3.13313E+04 -1.92973E+04 -1.37545E+04 -2.56857E+04  9.98214E+02 -3.28165E+04  2.16387E+04 -2.90508E+04
  4.27757E+04 -1.03586E+04  4.51482E+04  2.05601E+03  3.20403E+04  2.13258E+04  6.27818E+03  4.30756E+04
 -2.14111E+04  3.40313E+04 -2.74884E+04  2.25912E+04 -2.99945E+04 -1.53016E+04 -1.00271E+04 -1.89954E+04
  1.08637E+03  7.88175E+02 -7.44326E+03  1.88744E+04 -1.66445E+04  9.26084E+03 -2.39884E+04 -1.10873E+04
 -1.08816E+04 -1.62754E+04  8.34235E+03 -3.13244E+04  3.18447E+04 -2.50410E+04  2.38112E+04  9.08439E+02
  2.28021E+04  1.86838E+04  3.39522E+03  2.22784E+04 -1.85083E+04  1.80377E+04 -3.34513E+04 -5.01497E+03
 -2.27953E+04 -2.37705E+04 -1.03929E+03 -3.15212E+04  1.21956E+04 -2.06618E+04  2.37971E+04 -8.77638E+03
  2.01391E+04 -4.97970E+03  1.69124E+04  7.23093E+03  5.10512E+03 -7.29839E+03  1.96133E+04 -1.23310E+03
  2.64590E+04  3.46388E+03  3.13443E+04  2.60617E+04  1.50645E+04  4.83456E+04 -5.12806E+03  4.91092E+04
 -2.79214E+04  3.74928E+04 -5.22809E+04  2.27858E+04 -5.14694E+04 -2.29232E+03 -3.93869E+04 -3.31910E+04
 -1.27014E+04 -4.59272E+04  1.91562E+04 -4.24978E+04  3.19507E+04 -1.53777E+04  3.35475E+04  4.53401E+03
  1.00987E+04  2.77951E+04 -1.72448E+04  2.34683E+04 -2.42181E+04  3.66940E+03 -1.58477E+04 -9.84516E+03
  2.58806E+02 -1.90187E+04  1.40769E+04 -1.25293E+04  1.49418E+04 -5.54986E+03 -6.54537E+03  8.79302E+03
 -1.95351E+04  5.61774E+03 -1.38375E+04 -8.97741E+03 -6.73438E+03 -2.78902E+04  1.92060E+04 -2.13327E+04
  2.16327E+04 -1.05772E+04  3.17931E+04  1.30615E+04  3.00433E+04  1.82241E+04  1.24585E+04  4.12274E+04
 -6.73645E+03  3.64110E+04 -2.09408E+04  2.11566E+04 -3.18625E+04  3.57180E+03 -2.60861E+04 -8.23806E+03
 -1.04451E+04 -1.05649E+04  2.96626E+03  1.29210E+03 -7.08674E+03  4.93014E+03 -1.97909E+04  5.70937E+03
 -1.65464E+04  1.84441E+02 -1.31860E+04 -1.05938E+04 -4.00784E+03 -3.02310E+04  1.00719E+04 -2.24000E+04
  1.60916E+04 -1.60756E+04  1.16811E+04  1.43125E+03  5.23552E+03  8.52819E+03 -1.22200E+04  1.56135E+03
 -6.59051E+03 -7.79458E+03 -8.56978E+03 -2.49904E+04  1.06839E+04 -2.12302E+04  2.43542E+04 -8.48957E+03
  3.04842E+04  5.36784E+03  2.05012E+04  1.50791E+04  7.76959E+03  2.57331E+04 -9.94431E+03  1.69705E+04
 -9.21801E+03  4.32347E+03 -5.98480E+03 -9.64042E+03  9.60676E+01 -8.46598E+02  1.14281E+04 -4.54184E+03
  8.06299E+03  1.12758E+04  2.55848E+03  1.30707E+04 -2.63193E+03  1.32028E+04 -1.70513E+04  3.30752E+03
 -2.16973E+04 -1.03621E+04  5.89225E+02 -1.24742E+04  1.40437E+04 -6.41147E+03  1.29186E+04  5.93802E+03
  5.75180E+03  1.39293E+04 -1.33217E+04  1.98600E+04 -1.77894E+04  3.15389E+03 -1.91592E+04 -2.46414E+03
 -9.74542E+03 -1.94263E+04  4.33535E+03 -1.92050E+04  1.63075E+04 -1.58092E+04  2.62822E+04  7.07792E+03
  9.95792E+03  1.80645E+04 -7.55684E+02  2.05106E+04 -1.01189E+04  1.20433E+04 -1.77180E+04 -7.82015E+03
 -1.27636E+04 -6.88788E+03 -7.27461E+02 -1.23785E+04  1.13725E+03 -1.08608E+04  1.20855E+04  2.82543E+03
  2.05925E+03  2.41863E+03 -1.61387E+03  3.02262E+03 -2.18176E+03 -9.64676E+03  4.74600E+03 -9.65567E+03
  1.13129E+04 -1.20397E+04  2.45973E+04 -3.63593E+03  2.11284E+04  1.47591E+04  1.59541E+04  2.76814E+04
  2.34418E+02  3.29473E+04 -2.10901E+04  1.84064E+04 -3.26827E+04 -1.70144E+03 -2.63906E+04 -5.31734E+03
 -1.52686E+04 -2.37129E+04  1.89495E+03 -2.35340E+04  8.78097E+02 -9.17820E+03  5.07553E+03 -4.76553E+03
  1.07534E+04 -7.19375E+03  9.38598E+03 -8.68940E+03  1.52828E+04 -4.89527E+03  8.88724E+03 -2.44974E+03
  1.68243E+04  1.94703E+03  1.56274E+04  1.40965E+04 -8.97609E+02  1.86728E+04 -1.71989E+04  1.63192E+04
 -1.82488E+04 -3.29339E+03 -1.94586E+04 -1.63150E+04  7.08169E+03 -2.54466E+04  1.34559E+04 -2.18541E+04
  1.83581E+04 -9.57850E+03  3.35135E+04  1.44040E+03  1.13176E+04  2.22262E+04  5.69995E+03  2.39949E+04
 -1.65783E+04  2.23287E+04 -2.12162E+04  8.67135E+03 -9.86596E+03 -4.88658E+03 -7.40431E+03 -5.94131E+03
  1.90399E+02 -2.28956E+03 -1.20775E+04  4.58167E+03 -1.17890E+04  3.48205E+03 -1.34240E+04 -5.59198E+03
 -2.09799E+04 -9.15949E+03  5.83688E+02 -1.60537E+04  2.15938E+04 -1.67664E+04  1.33387E+04 -8.15165E+03
  1.97241E+04  4.85450E+03  7.31862E+03  1.38916E+04 -5.94266E+03  2.28268E+04 -1.06100E+04  1.63005E+04
 -1.87720E+04 -4.26417E+03 -1.99719E+04 -8.25084E+03  1.54438E+03 -3.31891E+03  7.33401E+03 -1.17705E+04
  2.21620E+04 -1.11817E+04  8.90065E+03  6.39995E+03  9.22642E+03  1.83916E+03  8.16789E+02  1.02137E+03
  8.78973E+03 -3.81515E+03  7.59211E+03  3.48408E+01  6.20599E+03  1.19359E+04  6.53264E+03  1.07439E+04
 -1.21094E+04  1.08339E+04 -1.76547E+04  1.51073E+04 -2.29521E+04  4.36337E+03 -1.29633E+04 -1.20501E+04
 -1.39262E+04 -2.47809E+04 -3.66148E+03 -1.78648E+04  1.17748E+04 -1.49901E+04  1.34938E+04 -2.69377E+03
  1.31436E+04  9.02006E+03  4.43204E+03  1.44807E+04 -1.12457E+04  8.08416E+03 -1.59375E+04 -1.17939E+03
 -3.70076E+02 -6.08877E+03  1.10305E+04 -8.19910E+03  7.86734E+03 -5.63723E+03  1.11234E+04  1.69269E+03
  8.17534E+03 -1.33385E+03 -8.25685E+02  9.01713E+03  2.70733E+03  7.83271E+03  4.58943E+03  6.27925E+03
  5.94501E+03  8.06337E+02  7.49649E+03  9.27931E+03  6.19420E+02  7.72991E+03  8.13744E+03  1.36562E+04
 -6.34581E+03  9.43320E+03 -2.04063E+04  6.62514E+03 -1.19557E+04 -7.56402E+03 -4.43837E+03 -4.81894E+03
  6.57405E+03 -6.81139E+03  8.57058E+03 -5.73019E+03  4.67717E+03  2.01488E+03  2.04132E+03  1.02242E+04
 -1.21311E+04  7.55837E+03 -5.14077E+03 -2.22543E+03 -4.35495E+03 -1.19963E+04  4.73384E+03 -7.35735E+03
  7.93631E+03 -9.29839E+03  1.13072E+04  4.96274E+02 -5.70626E+02  3.62237E+03 -5.79850E+02  6.98514E+03
  1.34778E+03  4.98127E+02  1.82098E+03 -2.35611E+03  3.58126E+03 -3.28570E+03  1.00200E+04 -9.33369E+03
  1.53461E+04  1.43595E+01  1.75482E+04  1.23099E+04  3.92222E+03  1.44495E+04 -7.95322E+03  1.49617E+04
 -1.08647E+04  4.29246E+03 -1.52669E+04 -7.76441E+03  2.81664E+03 -1.15130E+04 -7.54072E+02 -1.51290E+04
  7.56757E+03 -3.46860E+03  6.99478E+03  9.14717E+03 -1.77318E+03  1.25989E+04  4.06560E+03  5.18578E+03
 -7.06134E+02  1.97383E+03 -1.59893E+04  6.10720E+03 -7.69214E+03 -1.06053E+03 -1.12171E+03  1.73283E+02
  5.95971E+03  3.70782E+03 -1.29061E+03  4.47060E+03 -1.23120E+04 -3.32835E+02 -2.30545E+04 -1.06897E+04
 -1.62770E+04 -2.37752E+04  7.31065E+03 -2.69878E+04  1.12228E+04 -2.30231E+04  2.36257E+04 -1.20574E+04
  3.42565E+04  6.08738E+03  1.44442E+04  1.44009E+04 -2.23826E+03  1.46452E+04 -2.86668E+03  7.69129E+03
 -1.19782E+04  1.19025E+04 -1.10667E+03  2.14674E+03 -7.06924E+01 -1.65446E+03 -2.49832E+03  8.43351E+03
 -5.56977E+03  5.25234E+03 -8.55407E+03  1.23411E+03 -5.30645E+03 -5.95405E+03  8.98165E+02 -3.88653E+03
 -6.17600E+02  1.32896E+03  6.79774E+03 -1.36867E+03  3.83739E+03  9.64017E+03  7.00216E+02  1.85096E+04
 -1.20547E+04  2.06444E+04 -1.45602E+04  4.54180E+03 -2.08425E+04 -3.85456E+03 -1.74449E+04 -1.41942E+04
 -1.06557E+04 -1.35028E+04  1.06405E+04 -2.06674E+04  1.16398E+04 -9.07008E+03  1.40039E+04 -1.76904E+03
  1.22766E+04  4.92999E+03 -6.60809E+03 -3.91980E+03 -5.70277E+03  1.29199E+03  7.63085E+03 -7.58492E+03
  7.71231E+03 -4.02969E+03  4.26975E+03 -2.80869E+02  9.96113E+02  7.26385E+03 -7.05108E+02  6.29293E+03
 -1.41389E+03  6.64039E+03 -6.76499E+03 -3.38094E+03 -1.02694E+04 -9.41198E+03 -6.05550E+03 -9.41824E+03
  1.61880E+04 -1.14060E+04  1.07657E+04 -6.49340E+03  1.14873E+04 -3.42181E+03  7.34660E+03  2.53538E+03
  4.14150E+03  1.38668E+04 -6.63852E+02  1.62069E+04 -6.22258E+03  7.85675E+03 -2.28641E+03 -6.01935E+03
  4.48114E+02 -2.12211E+03 -2.71263E+03 -4.10389E+03 -4.40622E+03  8.41232E+02 -5.81176E+03 -8.42937E+01
 -1.23501E+04 -6.37309E+03 -4.08106E+03 -1.68106E+04  8.66348E+03 -1.07156E+04  1.55356E+04 -8.53645E+03
  1.27004E+04 -9.72034E+02  1.00942E+04  6.56472E+03  2.31758E+03  1.15905E+04 -1.46651E+04  1.19799E+04
