 $NMID ID='MM_0lb_SNR50_16hz_g40_44.RAW', FMTDAT='(8E13.5)'
 TRAMP=1., VOLUME=1. $END
  3.09350E+05  9.11245E+02  3.37270E+05  2.49721E+05  8.58086E+04  3.37082E+05 -1.31171E+05  2.50860E+05
 -1.88039E+05  8.25288E+04 -1.08099E+05 -3.68986E+04 -1.03371E+03 -5.27203E+04  5.29120E+04  1.16971E+03
  3.61277E+04  5.58714E+04 -1.69073E+04  7.68489E+04 -6.32966E+04  6.30395E+04 -8.57379E+04  3.22291E+04
 -8.11480E+04 -9.49300E+03 -5.70019E+04 -4.94928E+04 -1.25158E+04 -6.71038E+04  2.57739E+04 -4.68620E+04
  3.57711E+04  5.14550E+03  1.47431E+04  4.41268E+04 -3.08611E+04  4.65417E+04 -6.97114E+04 -3.23240E+03
 -4.84557E+04 -5.57717E+04 -9.71628E+03 -7.55770E+04  3.41410E+04 -5.11567E+04  4.85738E+04 -1.45644E+04
  3.99478E+04  1.06665E+04  2.74816E+04  2.47644E+04  1.28179E+04  2.73271E+04 -2.94033E+03  2.92161E+04
 -2.20167E+04  1.26387E+04 -1.92533E+04 -6.36096E+03  6.23690E+03 -5.22535E+03  2.22294E+04  8.92140E+03
  7.60922E+03  3.69097E+04 -3.19300E+04  3.43597E+04 -6.23088E+04  4.25603E+03 -6.04261E+04 -4.02880E+04
 -1.32033E+04 -6.09069E+04  3.74097E+04 -4.64273E+04  5.76048E+04 -2.83343E+03  2.65774E+04  3.04806E+04
 -7.32952E+03  3.50549E+04 -2.69509E+04  1.08370E+04 -2.60461E+04 -6.87845E+03 -1.60541E+04 -1.37445E+04
 -5.15497E+03 -1.22592E+04 -1.32805E+03 -1.47061E+04  6.37255E+03 -2.00015E+04  1.52731E+04 -1.49480E+04
  1.34596E+04  3.75493E+03 -7.89521E+03  1.27778E+04 -1.93006E+04 -3.11523E+03 -1.43878E+04 -3.42724E+04
  2.37831E+04 -3.87765E+04  4.85724E+04 -2.02316E+04  4.13329E+04  1.60907E+04  1.76817E+04  3.91277E+04
 -1.78266E+04  3.39578E+04 -1.90712E+04 -9.73491E+02 -1.06378E+04 -2.87350E+04  1.99351E+04 -3.23319E+04
  3.78727E+04 -5.43806E+03  3.15634E+04  2.83185E+04  1.22224E+04  4.55497E+04 -6.38477E+03  4.57390E+04
 -3.10947E+04  2.87326E+04 -3.85301E+04  1.08297E+04 -3.78725E+04 -1.53975E+04 -2.12384E+04 -3.67542E+04
  8.02673E+03 -3.69969E+04  2.74531E+04 -1.73642E+04  2.79070E+04  1.16543E+04 -1.00207E+03  1.82424E+04
 -1.17601E+04  7.95532E+03 -9.07616E+03 -4.63881E+03  4.11869E+03 -1.25863E+04  1.74013E+04  8.81040E+03
  9.58672E+03  2.21803E+04 -8.46026E+03  2.79048E+04 -2.48100E+04  1.43734E+04 -2.43260E+04 -4.09749E+03
 -2.00391E+04 -1.87788E+04 -8.52706E+03 -2.00751E+04  7.66904E+03 -1.30881E+04  1.22473E+04 -1.94873E+04
  2.27190E+04 -8.76580E+03  3.03302E+04  1.27952E+03  2.48102E+04  1.74757E+04  4.15487E+03  3.57672E+04
 -1.89414E+04  2.95977E+04 -2.70658E+04  1.19725E+04 -1.71971E+04 -1.22477E+04 -3.21778E+03 -1.47632E+04
  2.66960E+03 -8.63769E+03 -2.39096E+03  2.64545E+03 -1.79646E+04  3.17667E+03 -1.36223E+04 -1.23221E+04
 -6.97652E+03 -1.74958E+04  6.68772E+03 -2.26887E+04  1.25119E+04 -2.00667E+04  1.56520E+04 -4.63244E+02
  1.20313E+04  1.25057E+04 -3.38754E+03  1.75753E+04 -9.94159E+03  7.12362E+03 -1.86147E+04 -6.58686E+03
 -1.21849E+04 -1.34954E+04  3.34804E+02 -1.83330E+04  7.41030E+03 -1.90628E+04  1.86848E+04 -6.82801E+03
  1.42657E+04 -2.94325E+03  1.50116E+04  6.00844E+03  7.29579E+03 -1.92327E+03  8.69383E+03 -7.38138E+02
  2.01449E+04  1.80540E+03  1.39397E+04  1.03744E+04  9.36050E+03  2.75514E+04 -3.29317E+03  3.00999E+04
 -1.43966E+04  2.14849E+04 -2.39159E+04  1.25950E+04 -2.79991E+04 -1.34376E+02 -1.96720E+04 -1.87507E+04
 -1.15881E+04 -2.63616E+04  1.15175E+04 -2.20371E+04  1.61997E+04 -9.75115E+03  1.57131E+04  7.75826E+03
  1.01271E+04  1.33725E+04 -6.45878E+03  1.36349E+04 -1.63478E+04  2.86423E+03 -1.23921E+04 -9.57007E+03
 -3.38590E+03 -1.49149E+04  7.90832E+03 -1.52121E+04  8.22648E+03  2.03826E+03  2.22725E+03  1.71918E+03
 -9.70424E+03 -1.52071E+03 -2.19173E+03 -3.11440E+03  2.50344E+03 -1.51834E+04  3.83516E+03 -1.82156E+04
  1.53444E+04 -7.19257E+03  1.33903E+04  3.28657E+03  1.15538E+04  7.80103E+03  2.73677E+03  7.59460E+03
  1.01375E+03  1.91077E+04 -1.40914E+04  1.01848E+04 -1.20145E+04  5.09420E+03 -1.12344E+04 -4.96949E+03
 -8.02028E+03 -8.22934E+03 -2.78965E+03  4.01396E+03 -2.75224E+03 -6.05619E+02 -4.81101E+03  3.55543E+03
 -7.77510E+03 -7.62045E+02 -9.68374E+03 -3.82459E+03 -4.18043E+03 -1.05223E+04  4.25188E+03 -1.08065E+04
  8.11624E+03 -1.95965E+03  8.31409E+03  1.20075E+02  3.48989E+03  2.16239E+03 -7.49400E+03  2.12923E+03
 -4.51774E+03 -4.41924E+03  7.92067E+02 -1.13231E+04  5.82415E+03 -9.79820E+03  1.04382E+04 -2.80752E+03
  1.67545E+04 -9.22363E+02  9.02485E+03  1.11383E+04  4.06331E+03  5.70630E+03 -5.46463E+03  5.88812E+03
 -6.34397E+03  4.30754E+03 -4.29154E+03 -2.67133E+03  3.15053E+03  2.92315E+01  1.06555E+04  2.04610E+03
  2.10634E+03  4.86698E+03 -5.83965E+02  5.17780E+03 -7.94735E+03  7.19620E+03 -7.13643E+03  2.64908E+02
 -5.47143E+03  1.57274E+03 -2.30592E+03 -2.37257E+03  2.04438E+03 -4.33782E+03  4.39865E+03 -1.35877E+03
 -2.38650E+03  3.75546E+03 -5.99902E+03  1.84178E+03 -4.87878E+03  5.04379E+03 -8.56009E+03 -3.22799E+03
 -3.95429E+03 -8.03561E+03 -3.05260E+03 -8.03096E+03  9.27998E+03 -7.72423E+03  1.10637E+04  1.29054E+03
  9.02356E+03  8.67919E+03 -1.50643E+03  5.51094E+03 -2.77597E+03  2.65069E+02 -7.93784E+03 -2.43992E+03
 -2.13337E+03 -4.88247E+03  1.48276E+03 -4.16529E+03 -1.63845E+03 -5.92742E+03  5.08014E+03 -1.99602E+02
  4.53596E+03  1.61193E+03 -2.93879E+03  9.23148E+02  8.86673E+02  2.86127E+03  3.49940E+03 -4.34003E+03
  8.66662E+03 -4.68411E+03  8.02591E+03 -1.97598E+03  6.47359E+03  3.59301E+03  4.49101E+03  1.10634E+04
 -3.84296E+03  1.15001E+04 -1.03735E+04  9.76773E+03 -1.16822E+04  3.14426E+03 -1.18684E+04 -7.67715E+03
 -6.30128E+03 -1.18420E+04 -3.29218E+03 -1.04713E+04  4.93649E+03  3.55406E+00  9.70016E+02 -2.85948E+03
  2.84296E+03  5.01959E+02  3.28537E+03 -2.50052E+03  1.54492E+03 -2.04906E+03  5.91866E+03 -1.70622E+03
  4.46952E+03  5.58685E+02 -5.33728E+03  3.78220E+03 -2.08472E+03 -1.52701E+02 -4.96777E+03  4.15707E+03
 -1.28175E+03 -1.09193E+03 -6.98602E+03 -8.96994E+03  3.37654E+03 -7.08989E+03  5.92920E+03 -1.04986E+04
  4.79676E+03 -8.01410E+03  9.70726E+03  3.99217E+01  5.05795E+03  9.50523E+02 -2.28168E+03  5.61769E+03
 -7.05476E+03  8.41425E+03 -6.17116E+03  5.62944E+03 -3.87110E+03 -8.45700E+02 -5.32979E+03 -2.71772E+03
 -3.45478E+03 -1.96504E+02  1.03086E+03  4.33147E+03 -6.58979E+03  9.46611E+01 -3.37607E+03 -1.70705E+03
 -4.06213E+03 -8.19373E+03  1.85470E+03 -2.69457E+03 -2.26592E+02 -6.17034E+03  3.03050E+03 -3.18932E+02
  8.75637E+03  6.07609E+03  6.40437E+02  3.72008E+03  1.73794E+02  3.31733E+03 -2.46996E+03  5.17130E+02
 -8.93609E+03  2.85920E+03 -5.83131E+03 -5.85521E+03  1.26488E+03 -2.68310E+03  4.80872E+03 -1.05546E+03
  5.37059E+03 -2.24416E+03 -4.32208E+03 -8.20156E+01  2.75978E+03  5.31737E+03 -1.58144E+03 -3.49091E+03
  2.61578E+03  2.38356E+03  3.28493E+03  2.05400E+03 -4.75354E+03  3.14239E+03  2.03954E+03  2.28757E+03
 -2.47626E+03  1.11397E+03 -3.33849E+03  4.76721E+03 -6.56850E+03 -1.08116E+03 -1.22949E+04 -8.24155E+02
 -2.61109E+03  4.59221E+02 -9.13105E+02 -8.57946E+03  8.24238E+02 -4.16095E+03  6.67809E+03 -2.46536E+03
  2.02822E+03  6.05757E+03  6.49291E+03  4.22903E+03  2.18249E+03 -5.81085E+02 -1.48934E+03 -1.77123E+02
 -2.18318E+03 -4.10950E+03 -2.56714E+03 -4.66729E+03  2.99442E+02  2.34917E+03  1.38632E+03  4.55202E+03
  1.13312E+03  1.96852E+03 -1.25300E+03  4.92803E+03  4.96590E+02  2.24381E+03 -2.93052E+03  4.05889E+03
 -2.19177E+03 -4.30703E+03  6.37808E+03 -1.35205E+03 -7.62197E+02 -3.08708E+02 -2.70631E+03 -4.68348E+02
 -6.16624E+03  4.07204E+03  1.07080E+02  1.47352E+03 -7.22087E+03 -3.53442E+02 -6.33962E+03  1.85207E+03
 -1.89869E+03 -2.94740E+03 -1.17962E+03 -2.35846E+03  3.73512E+03  1.23909E+03  4.90141E+01  5.47090E+03
  2.67907E+02 -1.84349E+03 -4.09943E+03 -2.45991E+03 -6.84598E+03 -1.00064E+03 -3.20597E+03 -5.02117E+03
 -6.55545E+02 -1.31571E+03  5.12556E+03  6.18611E+03  3.13024E+03 -1.35654E+03  4.69704E+03 -3.42127E+03
 -3.15562E+03 -6.12790E+02 -3.14709E+02  4.10733E+03  2.28995E+03  8.35752E+01  6.59962E+02 -2.16085E+03
  3.10739E+03  2.82229E+03  1.92897E+03 -2.52249E+03  2.12073E+03  1.50933E+03 -1.26330E+03  1.90596E+03
 -4.09583E+02  3.22880E+02  1.18212E+03 -3.76742E+02 -3.77898E+02 -5.00202E+03  1.91346E+03 -5.53978E+03
  1.76445E+03 -1.31572E+03  2.21765E+03  4.68560E+03 -7.28982E+01  6.37189E+02 -1.96214E+03  2.92261E+03
 -4.41853E+03 -1.62171E+03 -7.02449E+03  2.54501E+03 -2.30363E+03 -1.30478E+03 -3.81406E+03  1.36503E+03
 -9.33428E+02 -4.40378E+01 -5.89201E+03 -1.33460E+03  1.66113E+03  1.85921E+03 -6.10786E+03 -4.66611E+03
 -7.78099E+02 -4.08576E+03  1.48746E+03 -7.12850E+03 -1.60222E+02  1.40151E+03  3.92223E+03  2.79202E+03
  1.99083E+03  3.71249E+03  2.43150E+03  1.02053E+04  3.23776E+03  2.57540E+03 -1.58891E+02  2.88597E+02
 -2.28499E+03 -8.90817E+01  1.31474E+03 -1.07892E+03 -1.69817E+02  2.39269E+03  1.60352E+03  1.18837E+03
  8.28082E+02 -4.11940E+03 -3.17805E+03  2.54297E+03 -1.02366E+03 -2.98150E+03  2.68244E+03 -5.00480E+01
  3.59470E+03 -4.25498E+02  1.83707E+03 -1.16598E+03 -1.23756E+03  6.28776E+03  3.02543E+03  4.66168E+03
 -1.21977E+03  2.72189E+03 -2.96516E+03 -1.04222E+03  6.62237E+02 -3.55103E+03 -1.04788E+03 -4.25935E+03
  1.03787E+03 -6.71119E+03  1.91523E+03 -3.84924E+03  1.32347E+03 -3.04902E+03  7.08856E+02  1.32896E+03
  4.11814E+03 -1.70313E+03  3.08678E+03  3.57352E+03 -4.34472E+03 -1.59791E+03  4.41610E+03  3.65973E+03
  3.21787E+03 -1.88690E+03 -1.53702E+03 -2.32578E+03 -4.39270E+02  4.80928E+02  1.22948E+03  3.29504E+03
 -1.84088E+03  7.51307E+03 -3.33156E+03 -4.21540E+02  3.76168E+03 -4.27735E+03 -1.54619E+03 -4.59825E+03
  5.42313E+02 -8.72235E+03  1.84742E+03  7.57277E+02 -4.37398E+02 -2.31950E+03 -1.02741E+03  1.07466E+03
  2.21772E+02  1.23791E+03 -3.25429E+03  2.31506E+03  1.02086E+03  2.99057E+03 -3.68690E+03  1.87987E+03
 -6.84610E+02  2.02531E+02 -4.49647E+03 -2.21236E+03  4.29376E+02 -5.30649E+01 -1.69931E+03  3.24158E+01
 -1.07442E+03  2.34262E+02  1.99715E+03 -6.14936E+02 -1.64905E+03 -3.32878E+03  4.56468E+03  3.19254E+02
  1.67254E+03  1.42263E+03 -2.48448E+03  2.98095E+03  1.08250E+03  1.18184E+03 -7.03545E+02  3.01149E+03
