 $NMID ID='MM_0lb_SNR50_17hz_g45_38.RAW', FMTDAT='(8E13.5)'
 TRAMP=1., VOLUME=1. $END
  3.11266E+05  5.45253E+03  3.36302E+05  2.47367E+05  8.56235E+04  3.34326E+05 -1.34658E+05  2.52804E+05
 -1.90102E+05  8.56132E+04 -1.05453E+05 -3.23151E+04 -1.76409E+03 -5.12449E+04  5.74489E+04 -2.90216E+03
  3.49207E+04  5.16798E+04 -1.72536E+04  7.54951E+04 -6.11944E+04  6.12786E+04 -8.42326E+04  2.80741E+04
 -8.07501E+04 -1.04432E+04 -5.72048E+04 -4.96888E+04 -1.71959E+04 -6.42430E+04  2.20978E+04 -4.64481E+04
  3.84337E+04  5.29873E+03  1.75115E+04  5.30524E+04 -3.55239E+04  4.84257E+04 -6.69762E+04 -4.80321E+03
 -5.08860E+04 -5.71977E+04 -9.45765E+03 -7.71188E+04  2.98254E+04 -5.50012E+04  4.81712E+04 -1.90168E+04
  4.15651E+04  1.30438E+04  3.21551E+04  2.26339E+04  1.51814E+04  3.19458E+04 -6.35653E+03  2.82925E+04
 -1.90229E+04  1.31699E+04 -1.81592E+04 -5.82713E+03  4.64093E+03 -9.01530E+03  2.39194E+04  1.22040E+04
  1.15643E+04  3.67644E+04 -2.96541E+04  3.76038E+04 -6.58600E+04  5.36919E+03 -5.70799E+04 -3.50353E+04
 -1.34802E+04 -6.06108E+04  3.63510E+04 -4.59620E+04  5.65876E+04 -6.12627E+03  2.94751E+04  3.10915E+04
 -1.12455E+04  3.34788E+04 -3.68060E+04  1.13840E+04 -3.02578E+04 -4.03347E+03 -1.77567E+04 -7.79119E+03
 -8.42493E+03 -1.40699E+04 -6.70968E+02 -2.20342E+04  9.98018E+03 -2.12325E+04  1.26599E+04 -1.16216E+04
  1.15866E+04  4.86753E+03 -6.26174E+03  1.11033E+04 -2.02954E+04 -4.89554E+03 -6.43793E+03 -3.46788E+04
  2.46510E+04 -3.83646E+04  4.64305E+04 -1.97258E+04  4.57441E+04  2.02504E+04  1.33601E+04  4.38768E+04
 -1.64601E+04  3.35475E+04 -2.37667E+04 -3.46934E+03 -7.58664E+03 -2.85227E+04  2.04824E+04 -3.35376E+04
  4.02116E+04 -1.05279E+04  3.43253E+04  2.01985E+04  1.59571E+04  4.59514E+04 -6.64327E+03  4.73977E+04
 -2.94195E+04  3.41709E+04 -3.44377E+04  1.42052E+04 -3.70626E+04 -8.77127E+03 -2.06204E+04 -3.53652E+04
  9.86485E+03 -3.51756E+04  2.77227E+04 -1.17286E+04  2.49208E+04  1.36325E+04  9.43846E+02  1.56945E+04
 -1.22469E+04  7.77861E+03 -1.11402E+04 -3.72660E+03  8.66006E+03 -9.69421E+03  1.40371E+04  6.71872E+03
  1.40504E+04  2.26575E+04 -5.59633E+03  1.94749E+04 -2.73622E+04  8.02448E+03 -2.49932E+04 -6.44171E+03
 -1.99421E+04 -1.49433E+04 -7.09942E+03 -1.85058E+04  1.09469E+03 -1.20900E+04  1.36093E+04 -1.26798E+04
  2.23608E+04 -1.30073E+04  3.23992E+04  4.53398E+03  2.08893E+04  1.73495E+04  4.64990E+03  3.68426E+04
 -1.67199E+04  2.44652E+04 -2.28044E+04  1.22000E+04 -2.03264E+04 -8.60190E+03  3.98246E+02 -1.56045E+04
  4.20875E+03 -2.81928E+03  4.82628E+02  2.15138E+03 -8.89312E+03  1.30100E+03 -1.11012E+04 -1.73946E+02
 -8.91648E+03 -1.25856E+04  3.29936E+03 -1.79601E+04  1.28776E+04 -1.67293E+04  1.98114E+04 -5.93876E+03
  1.09656E+04  8.82670E+03 -3.55465E+03  2.06828E+04 -9.01832E+03  9.58157E+03 -1.64792E+04 -2.52596E+03
 -1.40882E+04 -1.55956E+04 -2.50863E+03 -2.23384E+04  1.10742E+04 -1.68104E+04  1.67421E+04 -6.03521E+03
  1.28325E+04  4.04156E+02  1.10447E+04  8.56671E+03  7.36630E+03  2.83896E+03  1.01783E+04 -3.73531E+03
  1.21698E+04 -2.20575E+03  1.08904E+04  7.61443E+03  1.12584E+04  2.59937E+04 -7.70621E+03  2.49537E+04
 -2.00823E+04  1.88141E+04 -2.57012E+04  1.48558E+04 -3.00677E+04 -5.54791E+03 -2.66295E+04 -1.27925E+04
 -1.07928E+04 -1.91912E+04  4.19557E+03 -2.01701E+04  1.59516E+04 -9.07405E+03  1.24798E+04  5.06928E+03
  5.38465E+03  1.46361E+04 -3.99281E+03  9.29569E+03 -1.55940E+04 -2.88344E+03 -1.05295E+04 -1.16115E+04
 -1.81634E+03 -1.36152E+04  5.25660E+03 -6.35843E+03  6.65394E+03 -7.03390E+02 -7.63448E+02  3.56316E+03
 -8.14893E+03 -1.60816E+03 -5.22676E+03 -2.86741E+03  1.13513E+03 -8.59207E+03  6.85384E+03 -9.46898E+03
  1.40861E+04 -6.24960E+03  1.28107E+04  4.64567E+03  8.26183E+03  1.32174E+04  5.91003E+03  1.22662E+04
  2.82526E+02  1.65571E+04 -1.61994E+04  9.67126E+03 -7.73978E+03  4.14355E+03 -1.16053E+04 -5.10411E+03
 -2.26281E+03 -2.38563E+03  1.12488E+03  2.72685E+03 -4.30414E+03  4.54325E+03 -4.02208E+03 -1.32298E+02
 -1.17534E+04 -3.42112E+03 -1.27871E+04 -7.26301E+03 -4.56848E+03 -1.37877E+04  7.35013E+03 -9.86080E+03
  6.14367E+03 -2.79827E+03  4.08400E+03  8.85730E+01 -3.96848E+02  3.63304E+03  2.73105E+03 -5.80770E+02
 -4.83158E+03 -4.59794E+03  1.62257E+03 -3.76755E+03  5.72824E+03 -9.32234E+03  1.34739E+04 -6.11557E+03
  1.45400E+04 -3.37291E+02  1.00896E+04  5.10632E+03  1.82853E+03  1.10044E+04 -3.80731E+03  7.26353E+03
 -8.85951E+03  6.76097E+03 -7.78407E+03 -2.59338E+03  1.55729E+03 -3.56478E+03  5.23197E+03 -9.94182E+02
  4.48764E+03  8.41870E+02  5.39653E+03  1.01652E+04 -6.90251E+03  1.09456E+04 -6.72324E+03  2.26984E+03
 -4.82981E+03 -3.25269E+03  2.23767E+03 -5.11310E+03  5.86271E+03 -4.25953E+03  4.03949E+03  5.60508E+03
  4.65901E+02  4.94454E+03 -3.76600E+03  5.07121E+03 -6.23359E+03  4.38131E+03 -7.72578E+03  4.78924E+03
 -2.52866E+03 -4.38488E+03  3.59673E+02 -7.58963E+03  6.07558E+03 -5.18988E+03  9.58225E+03  2.45795E+03
  6.07333E+03  1.13823E+03 -1.73863E+03  1.02051E+04 -9.17349E+03  3.25304E+03 -6.40710E+03  1.37285E+02
 -6.74650E+03 -3.67724E+03 -6.21691E+02 -3.69184E+03  5.17532E+02 -6.68054E+03  4.47424E+03 -2.16771E+03
  5.42920E+03  3.29126E+02  9.91221E+02 -1.82815E+03  6.33725E+03 -1.97534E+02 -9.69700E+02 -3.98987E+03
  2.62563E+03  2.01423E+02  6.26723E+03 -7.55911E+02  6.25184E+03  1.24009E+02 -5.38923E+02  4.16510E+03
  8.69940E+02  1.33631E+04 -1.16948E+04  6.20016E+03 -1.06679E+04  3.68331E+03 -1.32783E+04 -6.04392E+03
 -8.71319E+03 -6.03169E+03 -8.28936E+00 -6.99359E+03  5.84403E+03 -5.16655E+02  1.95158E+03 -3.12208E+03
  3.18013E+03 -2.08283E+03  6.14203E+03 -6.72351E+03  1.19656E+03 -9.87647E+02  6.21038E+03  2.43777E+03
  5.18190E+03  1.31943E+03  2.45862E+03  5.26746E+03 -1.18420E+02  7.96147E+02 -7.99758E+03  3.46374E+03
 -3.81373E+03  5.44254E+03 -5.50051E+03 -2.51817E+03  5.55604E+03 -4.44153E+03  5.46601E+03 -7.42770E+03
  6.77877E+03 -5.97971E+03  8.37433E+03 -2.64020E+03  7.02418E+03  5.16285E+03  3.37461E+03  4.17695E+03
 -3.89074E+03  8.66576E+03 -7.29075E+03 -3.75149E+03  2.42430E+03  2.58369E+02 -2.27867E+03  5.44919E+02
 -9.84524E+02 -4.40636E+03 -4.61326E+03  1.16048E+03 -2.70289E+03  4.88970E+02 -5.71345E+03  1.74764E+03
 -1.58470E+03 -3.78417E+03 -4.69583E+02 -3.98050E+03  6.33552E+03 -6.34086E+03  3.27604E+03  3.84438E+03
 -1.39583E+03  2.34101E+03  3.82449E+03  5.27560E+03  2.89658E+03  3.77752E+03 -2.83606E+03  3.06562E+03
 -5.68233E+03 -1.42409E+03 -4.38634E+03  1.71107E+03  1.06594E+03 -2.59371E+03  5.17839E+03 -2.67981E+03
  8.35589E+03 -6.38596E+03  5.72587E+02 -2.80203E+03  1.10109E+03  2.21857E+03  2.79971E+03 -2.03555E+03
 -1.02533E+02  1.30111E+03  6.70860E+03  1.38173E+03  9.97633E+02 -2.93226E+03  3.13373E+03 -1.77886E+03
 -4.88962E+03  4.06519E+03 -4.70394E+02  8.16204E+02 -5.05671E+03  3.07917E+03 -7.71440E+03 -1.07291E+01
 -3.76165E+02 -5.95535E+03 -1.24021E+03 -3.65402E+03  6.58111E+03 -2.72701E+03  8.11197E+03 -3.93021E+03
  1.52473E+03 -2.24427E+03 -5.32332E+02 -3.91784E+02 -2.61456E+02  3.82806E+03  1.74098E+03 -2.01153E+03
  4.55541E+01 -1.51598E+02 -4.11734E+02 -3.06879E+03 -2.86688E+02 -1.95048E+03  3.91507E+03  9.84220E+02
  1.31165E+03 -2.12499E+03  2.21241E+03 -1.14288E+03 -3.34635E+03  2.26076E+03  1.05950E+03 -2.19145E+02
 -2.21451E+02 -2.47048E+03  1.14532E+03  2.04378E+03  1.25803E+03  8.32254E+03  1.10036E+03  3.90297E+03
 -1.47191E+03 -1.56502E+03 -3.60557E+03  2.01505E+03 -2.61524E+03  1.61535E+03 -2.06247E+03 -2.23827E+03
 -2.23142E+03  6.59859E+02  2.07978E+03  1.66568E+03 -9.68071E+02  1.48140E+03 -2.07881E+03 -2.89224E+03
 -5.19112E+02 -3.26279E+02 -4.44286E+03 -2.57011E+03 -6.93781E+02 -1.03523E+03  1.48242E+03 -1.16739E+03
  1.34041E+02 -2.15930E+03  4.59843E+02 -2.69398E+03 -1.97197E+03  4.69886E+03  1.96786E+02  1.74778E+03
 -1.11119E+03  1.02450E+03 -1.20343E+03  1.99881E+03  1.79896E+03  2.50396E+02  1.01754E+03 -6.26571E+02
 -3.09203E+03  2.57162E+03  4.18090E+03  2.36411E+03  1.43888E+03  1.11891E+03  3.25154E+03  8.66293E+03
 -4.05890E+03 -3.34513E+02 -6.49525E+03  1.09389E+03 -3.98962E+03 -3.82566E+03 -1.16532E+03 -7.03088E+02
  1.56970E+03 -5.97016E+03  2.26964E+02  5.86407E+03 -1.43875E+01  3.68162E+03  1.92801E+03 -4.50181E+03
 -3.53794E+02 -5.48427E+02 -3.42235E+02 -1.92047E+03  6.93219E+01  1.47174E+03 -1.83562E+02  2.29319E+03
 -2.80486E+02  5.79146E+02 -2.64539E+03 -5.68018E+02 -6.59053E+03 -1.16796E+03  1.40535E+03 -2.17393E+03
 -5.42821E+02 -7.24154E+03 -7.98767E+02 -4.65492E+03 -3.22047E+03 -4.49621E+03 -3.57580E+01 -4.81794E+03
  1.45591E+03 -2.11674E+02  1.99556E+03  2.19052E+03 -4.86988E+02 -7.96428E+02 -3.15170E+03 -2.84933E+03
  1.63493E+03  5.29066E+01 -1.83188E+03 -1.98975E+03 -3.13098E+02  1.52191E+02  1.47066E+03 -1.89366E+03
 -6.26780E+03  3.47933E+03  3.00898E+03 -2.03300E+03 -8.62450E+02 -1.54599E+03 -2.80403E+03 -2.23133E+03
  3.96786E+03 -6.35522E+01  2.93058E+03  3.06973E+03  6.76929E+03 -1.05960E+03 -2.16787E+03 -8.86536E+02
  6.85202E+02  1.33032E+03 -6.37408E+02 -4.42156E+01  2.38963E+03 -2.17575E+02  1.61577E+03 -1.37699E+03
 -1.78686E+03 -9.00646E+02 -1.60730E+02 -2.54629E+03  6.22609E+03 -9.59116E+02 -1.22102E+03 -1.20781E+03
 -3.21872E+03  2.98170E+03  4.36181E+02  1.65199E+03  1.92179E+03  2.12174E+03 -9.28874E+02  2.05623E+03
  1.14187E+03  2.67968E+01  2.88861E+02  2.03921E+03 -6.83367E+02  2.47137E+03  2.78695E+02  2.82495E+03
 -8.63943E+03 -1.83459E+03  7.69885E+02 -1.88479E+02 -2.52763E+03  1.92388E+03  4.92508E+02 -1.40109E+03
 -1.82965E+03  1.17263E+03  1.70493E+03 -1.17316E+03  2.41616E+03 -5.99127E+02 -3.53103E+02  3.50063E+03
 -2.55382E+03  3.03725E+03  2.01109E+03 -2.29762E+02  1.55123E+03 -5.20489E+03  1.89172E+03  3.91432E+02
 -7.96361E+02  9.81646E+02  3.24775E+03  1.97481E+03 -4.00146E+03  1.30738E+03  7.08467E+02 -5.23770E+01
  2.18295E+03  4.27170E+03  8.13608E+02 -1.92912E+03  2.04797E+01  7.67752E+02  4.33990E+03  2.09288E+03
 -1.32166E+03 -1.32106E+03  3.35144E+02 -1.55998E+03 -3.94928E+03  2.40910E+03  3.71130E+03  1.23706E+03
