 $NMID ID='MM_0lb_SNR50_17hz_g55_70.RAW', FMTDAT='(8E13.5)'
 TRAMP=1., VOLUME=1. $END
  3.08665E+05 -1.16490E+03  3.39489E+05  2.54292E+05  7.86530E+04  3.38642E+05 -1.32001E+05  2.51983E+05
 -1.90836E+05  8.19652E+04 -1.16288E+05 -3.67525E+04  2.11632E+03 -4.87403E+04  5.14878E+04 -4.37525E+02
  3.81870E+04  5.69636E+04 -1.52152E+04  7.67904E+04 -5.90059E+04  6.15926E+04 -8.02002E+04  3.41385E+04
 -8.08745E+04 -1.03457E+04 -6.11301E+04 -4.88616E+04 -1.28321E+04 -6.61435E+04  2.53875E+04 -4.76785E+04
  3.97928E+04  1.24445E+03  1.38462E+04  5.21009E+04 -3.69448E+04  4.86959E+04 -6.66751E+04 -5.36017E+03
 -4.99453E+04 -5.52412E+04 -7.65039E+03 -8.32756E+04  3.00914E+04 -5.19456E+04  4.83396E+04 -1.82130E+04
  4.96384E+04  9.36955E+03  3.02376E+04  2.52772E+04  1.77772E+04  2.98543E+04 -6.47197E+03  2.64003E+04
 -2.15257E+04  1.24306E+04 -1.62865E+04 -6.37924E+03  7.45269E+03 -7.49591E+03  2.19264E+04  1.39192E+04
  8.28866E+03  3.43908E+04 -3.34075E+04  3.11832E+04 -6.12873E+04  3.38344E+03 -5.85741E+04 -4.21293E+04
 -7.46480E+03 -6.31854E+04  3.43951E+04 -4.48073E+04  5.93917E+04 -4.03584E+03  3.36226E+04  3.29268E+04
 -8.33207E+03  3.36631E+04 -2.78688E+04  1.47742E+04 -3.14521E+04 -7.05338E+03 -1.21310E+04 -1.11269E+04
 -9.36756E+03 -1.43789E+04  1.07013E+03 -1.41878E+04  9.83068E+03 -1.90039E+04  1.28509E+04 -1.20429E+04
  1.18828E+04  5.41940E+02 -5.17179E+03  1.21938E+04 -2.29839E+04 -4.50393E+03 -9.43326E+03 -3.25116E+04
  2.03566E+04 -4.31479E+04  4.72314E+04 -1.37319E+04  4.54325E+04  1.83114E+04  1.95960E+04  4.47019E+04
 -1.25786E+04  2.90143E+04 -2.61901E+04  2.67105E+03 -8.84560E+03 -2.64050E+04  1.78710E+04 -3.30199E+04
  4.11407E+04 -9.16583E+03  3.55958E+04  2.29860E+04  1.58098E+04  4.23468E+04 -1.03966E+04  4.89364E+04
 -3.17048E+04  3.12196E+04 -3.90569E+04  1.00529E+04 -4.13720E+04 -1.54341E+04 -2.42652E+04 -3.56121E+04
  6.61804E+03 -3.79951E+04  2.73956E+04 -1.37828E+04  2.87473E+04  1.11576E+04  7.70635E+02  1.65713E+04
 -1.37821E+04  1.35366E+04 -8.45430E+03 -1.07177E+04  4.66921E+03 -8.98770E+03  1.89877E+04  7.91417E+03
  1.42298E+04  2.08668E+04 -9.12898E+03  2.67220E+04 -2.01803E+04  6.68926E+03 -2.78501E+04 -3.01235E+03
 -2.08439E+04 -1.51324E+04 -6.42579E+03 -1.98595E+04  1.86771E+03 -1.48874E+04  1.51922E+04 -1.65582E+04
  2.49729E+04 -1.39150E+04  3.04708E+04  3.49561E+03  2.21074E+04  2.14754E+04  1.91673E+03  3.16899E+04
 -1.74562E+04  3.06227E+04 -2.81470E+04  6.03770E+03 -1.84099E+04 -1.22039E+04 -4.26193E+03 -1.48715E+04
  9.26722E+02  1.63987E+03 -3.63093E+03  5.46909E+03 -9.96467E+03  9.06078E+03 -1.43412E+04 -6.04842E+03
 -1.37356E+04 -1.79703E+04  6.50718E+03 -2.36328E+04  1.47553E+04 -1.60000E+04  2.15844E+04 -4.64405E+03
  7.15944E+03  9.20210E+03  6.23544E+03  2.07942E+04 -1.19481E+04  1.00417E+04 -1.40801E+04 -5.01001E+02
 -1.47134E+04 -1.11632E+04  2.34946E+03 -2.15143E+04  1.12725E+04 -1.68132E+04  1.93988E+04 -7.27769E+03
  1.52005E+04 -5.43093E+02  9.68740E+03  3.99671E+03  1.70413E+03  5.65274E+02  9.36375E+03 -3.57624E+03
  1.87025E+04  1.69772E+03  1.66413E+04  1.09434E+04  1.18120E+04  2.36477E+04 -3.96473E+03  2.98395E+04
 -1.61269E+04  2.66696E+04 -3.13058E+04  1.18815E+04 -2.87302E+04 -5.16362E+03 -2.22616E+04 -1.94656E+04
 -1.14092E+04 -2.17395E+04  9.11123E+03 -2.43261E+04  1.82734E+04 -7.94187E+03  2.08229E+04  1.32552E+03
  9.09589E+03  1.69940E+04 -9.47809E+03  9.42337E+03 -1.66344E+04  7.03950E+03 -1.49077E+04 -7.86547E+03
 -1.83619E+02 -1.31503E+04  1.09480E+04 -8.30081E+03  1.05624E+04 -1.78573E+03  4.37135E+03  7.96303E+03
 -1.60021E+03  7.24855E+03 -7.07092E+03 -4.47871E+03  6.46437E+02 -1.17536E+04  1.03117E+04 -1.17909E+04
  1.61652E+04 -6.67328E+03  2.03706E+04 -4.76634E+02  1.07384E+04  1.40239E+04  4.93536E+03  1.74281E+04
 -3.46593E+03  1.96921E+04 -1.49008E+04  7.40164E+03 -1.50770E+04  7.97840E+03 -7.60193E+03 -1.24612E+03
 -1.51585E+03 -1.97881E+03 -4.62598E+02 -2.80058E+03  1.66624E+03  2.59029E+03  2.98719E+02  3.06330E+03
 -6.62842E+03 -1.43990E+03 -9.04971E+03 -4.82829E+03 -2.61752E+03 -1.50196E+04  7.76271E+03 -1.65934E+04
  4.94209E+03 -4.03168E+03  7.00256E+03 -2.87130E+03  2.14197E+03  6.39252E+03 -3.66435E+03 -2.29825E+02
 -5.52568E+03 -7.69044E+03 -6.97598E+02 -1.01437E+04  5.76917E+03 -6.73209E+03  1.34846E+04 -2.89850E+03
  1.64342E+04 -3.13609E+02  1.00014E+04  6.25896E+03  2.22203E+03  1.03425E+04 -5.63338E+03  4.14113E+03
 -4.62291E+03  1.81570E+03 -4.39107E+03 -5.12766E+03  1.81814E+03 -4.09891E+03  5.95227E+03 -3.10730E+03
  6.85864E+03  4.77083E+03  7.18555E+02  5.77399E+03 -6.90209E+03  5.63949E+03 -6.70161E+03  2.69812E+03
 -9.29133E+03 -2.86363E+03  7.87271E+02 -7.95444E+03  4.51906E+03 -4.43816E+03  1.14629E+03 -2.69296E+03
  6.48067E+03  2.88382E+03 -1.96208E+03  7.14103E+03 -5.51223E+03  4.64223E+03 -7.57447E+03 -2.80272E+02
 -5.71659E+03 -5.95869E+03  6.10668E+03 -8.40146E+03  7.35246E+03 -5.36016E+03  9.95983E+03  3.04478E+03
  1.36139E+02  8.85753E+03 -1.54816E+02  8.57133E+03 -7.73384E+03  5.80063E+03 -4.93100E+03  3.14137E+02
 -1.02562E+04 -8.68817E+03 -1.95012E+03 -2.24312E+03  1.30900E+03 -7.69284E+03  4.67677E+03 -7.50158E+03
  3.15533E+03 -8.73363E+02  3.98991E+03 -4.58363E+02  3.51087E+03  1.82420E+03 -7.27590E+02 -3.06124E+03
  3.83779E+03 -4.56091E+03  4.38381E+03  2.09830E+03 -3.04651E+02  5.50554E+03  4.11000E+03  7.64320E+03
 -2.23965E+03  9.25604E+03 -7.50410E+03  6.21261E+03 -1.30579E+04  5.18726E+03 -8.06573E+03 -7.25109E+03
 -2.37819E+03 -5.96970E+03 -5.67150E+01 -7.58655E+03  4.86632E+03 -2.30968E+03  6.48330E+03 -3.19542E+03
  1.11781E+03 -2.02446E+03 -2.20795E+03 -3.67249E+03  5.74417E+03 -3.10482E+03  3.70529E+03 -1.90261E+03
  7.85818E+03  2.80773E+03 -7.35581E+02  1.19681E+03 -3.13828E+03  4.93230E+03 -6.19261E+03  4.79043E+03
 -6.78668E+03 -4.02926E+02 -1.82248E+03 -6.10675E+03 -9.79683E+02 -6.31541E+03  6.38681E+03 -5.47707E+03
  3.09375E+03 -2.00669E+03  9.57714E+03 -1.62001E+02  4.48234E+03  8.31768E+03  9.42087E+02  4.85311E+03
 -2.46514E+03  4.25473E+03 -3.91047E+03  5.73252E+02 -1.34470E+03 -1.72898E+01 -3.22303E+03  1.28775E+03
  1.75220E+02  3.94307E+03 -2.14142E+02  1.66083E+03 -9.38026E+01  4.45136E+03 -9.37569E+03 -2.19415E+03
 -6.57319E+03 -2.21274E+03 -2.98058E+03 -3.66337E+03  6.75509E+02 -1.23365E+03  1.80066E+03 -2.90056E+03
  8.20611E+03  2.42299E+03  1.59488E+03  2.30981E+03 -1.66753E+03  6.92640E+03 -4.49572E+03  5.40970E+03
 -7.60090E+03  1.40689E+03 -2.45015E+03 -2.02127E+03  4.57800E+03 -2.23041E+03  8.34494E+02 -6.33250E+03
  1.91519E+03 -1.06075E+02  3.18222E+03  1.93342E+02 -6.55891E+02  1.80953E+03 -3.42222E+03 -9.16467E+02
  1.64379E+02 -5.12963E+03 -1.50274E+03  6.77604E+02  3.44817E+03  6.15809E+03  6.98298E+02  3.78311E+03
 -4.18099E+03  1.16607E+03 -6.04148E+02 -2.20270E+02 -6.20639E+03 -1.59837E+03 -5.78161E+03  1.78403E+03
 -1.46172E+03 -6.77816E+03 -2.05915E+03 -6.10470E+03  4.99688E+03 -6.16750E+03  3.69719E+03 -7.90231E+02
  3.66381E+01  2.21956E+03  4.24470E+03  1.81528E+03 -2.14993E+03 -6.15828E+02 -3.78909E+03  5.37656E+03
 -2.61924E+03 -6.30680E+02  1.56029E+03 -4.13583E+03  2.25983E+03 -1.32309E+03  3.18128E+03 -1.50149E+03
 -5.43334E+02 -1.68504E+03  3.39402E+02  3.20812E+03  3.46737E+03 -2.72745E+03  8.37437E+02 -1.92463E+03
 -3.15166E+03 -4.85296E+03  2.26049E+02 -1.50110E+03  3.95017E+03  8.10734E+03  1.03059E+02 -1.90024E+02
 -5.58056E+03  7.27672E+03  2.84967E+02  2.93584E+03 -1.92329E+03 -2.26012E+03 -2.53216E+03 -1.15010E+03
  1.69859E+03 -4.33968E+03  5.73025E+03 -3.47266E+03 -2.89920E+03  6.54374E+02 -3.55295E+03 -2.14617E+03
 -6.85469E+02 -6.90634E+02 -4.17729E+03  1.89242E+03 -2.31963E+03 -6.25480E+03  1.64718E+03 -2.97079E+02
 -2.23554E+03  3.00669E+03  3.57174E+03 -2.07561E+03 -4.47796E+02 -1.29782E+03  5.87192E+02  4.84963E+03
 -1.44834E+03 -2.72450E+03 -5.10466E+03  6.86310E+03 -2.44981E+03 -7.27153E+02 -1.82625E+03  3.56810E+02
  1.53311E+03 -9.49516E+02  4.40631E+03  2.52702E+03  5.10878E+03 -1.40771E+03 -2.56419E+03  5.20165E+03
 -2.40754E+03  2.20664E+03 -1.37433E+03 -1.99008E+03 -1.84525E+03 -5.17648E+03  1.22759E+03 -7.81054E+02
 -1.39623E+03 -1.10526E+03  1.82991E+03  7.64014E+02 -4.05606E+03  3.10249E+03  2.69471E+03  1.52769E+03
 -2.31221E+03 -8.80135E+02  3.25789E+03  2.40012E+03  2.76721E+03 -4.85130E+01 -2.78759E+03 -1.54633E+03
 -1.10069E+03  2.80226E+02 -3.42220E+03  2.36274E+03 -1.17070E+03  1.40967E+02 -7.56592E+03  4.68018E+03
 -8.03083E+02 -1.33887E+03  1.84717E+03 -5.49630E+03  1.75435E+03 -3.55698E+03  1.99370E+03  1.23014E+03
  3.65965E+03 -5.76807E+03  7.89319E+03  5.11838E+03 -3.10724E+03  4.70897E+03 -7.94808E+02  1.14939E+03
  8.82336E+02  4.30697E+03 -5.70596E+03  7.32219E+02 -7.97420E+01 -1.68396E+02 -1.73917E+03  5.11428E+02
 -1.76384E+03  3.34898E+03  2.34991E+02  2.63306E+03  5.24252E+03 -2.67885E+03 -4.23150E+02 -6.07648E+02
  4.92457E+03 -3.98170E+03 -4.17250E+02  1.66225E+03  9.34357E+02 -1.73793E+03 -3.84737E+03  1.85481E+03
  1.25435E+03  2.27906E+03  1.45700E+02  6.55302E+03 -4.37954E+03  1.39247E+03  3.70130E+01 -4.03970E+03
  7.84742E+02 -5.05336E+03  3.34531E+03 -1.28799E+03 -2.93876E+03 -7.31008E+02 -8.18014E+02  1.83676E+02
 -2.87711E+03 -5.21705E+02  1.27470E+03  2.33446E+03 -2.07135E+03 -2.85825E+03 -7.32675E+02 -1.06298E+02
 -8.64826E+02  3.87534E+03  2.27879E+03  3.51422E+03 -2.54610E+03  2.35553E+03  2.05350E+03  1.88969E+03
 -1.75335E+03  3.46842E+03 -8.48568E+02  4.29205E+03 -1.48892E+03 -8.04423E+02  1.19855E+03 -3.31618E+03
 -3.35562E+02 -5.80701E+03 -4.31779E+01 -3.55231E+03 -7.02308E+02 -9.46244E+02 -4.51798E+02  2.03684E+03
 -1.57152E+03  1.85610E+03  6.53780E+03  4.34302E+03 -2.94735E+03  1.24290E+03 -5.97746E+01  2.98746E+03
  6.10828E+02 -1.51558E+03 -1.84819E+03 -2.77984E+02 -7.98297E+02  1.03055E+03 -3.29895E+03  1.70626E+03
  2.25971E+03 -7.80433E+00 -5.94529E+03 -3.64287E+03 -2.53824E+03 -2.26264E+03  9.39320E+02  6.33815E+02
 -1.63518E+03  2.56467E+03 -2.21472E+03  1.20600E+03 -1.18386E+03 -3.78610E+03 -3.11797E+03  5.27777E+01
