 $NMID ID='MM_0lb_SNR50_17hz_g40_97.RAW', FMTDAT='(8E13.5)'
 TRAMP=1., VOLUME=1. $END
  3.09730E+05  2.26805E+02  3.34472E+05  2.46097E+05  8.26865E+04  3.38458E+05 -1.32959E+05  2.52253E+05
 -1.88845E+05  8.71493E+04 -1.12128E+05 -3.23356E+04  4.73752E+03 -5.07215E+04  5.78387E+04  2.05504E+03
  3.65056E+04  5.24376E+04 -1.61129E+04  7.38577E+04 -5.92961E+04  6.43378E+04 -8.56716E+04  3.10145E+04
 -7.77919E+04 -8.22910E+03 -5.11679E+04 -5.28264E+04 -1.31913E+04 -7.20995E+04  2.39080E+04 -3.82196E+04
  3.67466E+04  4.66905E+03  1.09404E+04  4.04080E+04 -3.26328E+04  4.27462E+04 -6.69811E+04  5.84869E+02
 -5.35343E+04 -5.09210E+04 -3.54867E+03 -7.52336E+04  3.48285E+04 -5.52953E+04  4.46410E+04 -1.17672E+04
  4.08867E+04  1.16495E+04  2.66138E+04  2.33614E+04  1.49741E+04  2.81605E+04 -3.46455E+03  2.64842E+04
 -2.53207E+04  1.37722E+04 -2.10564E+04 -2.92902E+03  2.00117E+03 -8.29766E+03  2.55446E+04  1.11524E+04
  8.27875E+03  3.27314E+04 -2.82804E+04  3.28501E+04 -6.29257E+04  3.56164E+03 -5.54865E+04 -4.32526E+04
 -1.50389E+04 -5.92568E+04  3.92209E+04 -4.35085E+04  5.68213E+04 -9.38055E+02  3.26717E+04  3.08773E+04
 -7.15178E+03  3.50436E+04 -2.57648E+04  1.17925E+04 -3.11162E+04 -3.52104E+03 -1.23955E+04 -1.11242E+04
 -7.24409E+03 -1.03412E+04 -1.83897E+03 -1.31658E+04  5.40752E+03 -2.22300E+04  1.48017E+04 -1.36786E+04
  1.21990E+04  4.88637E+03 -7.28442E+03  1.20562E+04 -2.28921E+04 -1.93613E+03 -1.04401E+04 -2.88137E+04
  2.07718E+04 -4.05310E+04  4.11822E+04 -2.01567E+04  4.19338E+04  1.95904E+04  1.78405E+04  4.65563E+04
 -1.49493E+04  3.00110E+04 -2.36448E+04  2.65120E+03 -7.57629E+03 -2.03235E+04  1.77528E+04 -2.96655E+04
  3.78625E+04 -8.45379E+03  3.37348E+04  2.51868E+04  1.22944E+04  4.01615E+04 -9.19235E+03  4.44066E+04
 -2.65407E+04  3.58072E+04 -3.64747E+04  1.26926E+04 -3.41571E+04 -1.23620E+04 -2.33722E+04 -3.53748E+04
  3.38981E+03 -3.42676E+04  3.14899E+04 -1.28098E+04  2.62674E+04  1.21081E+04  4.61166E+03  1.99570E+04
 -1.15025E+04  5.81444E+03 -8.44668E+03 -1.29062E+04  5.36867E+03 -9.69037E+03  1.74279E+04  8.27088E+03
  1.33220E+04  1.88654E+04 -3.80613E+03  2.49560E+04 -1.71321E+04  9.75953E+03 -2.59353E+04 -3.92655E+03
 -1.51374E+04 -1.67009E+04 -5.35322E+03 -2.27379E+04  5.91654E+03 -1.62637E+04  1.71261E+04 -1.73649E+04
  2.16141E+04 -1.36706E+04  2.81277E+04 -4.63375E+02  2.07217E+04  1.69485E+04  3.49204E+03  3.30353E+04
 -1.46942E+04  3.31188E+04 -2.75043E+04  9.00658E+03 -2.04451E+04 -1.33759E+04 -1.60922E+03 -1.16255E+04
  2.11593E+03 -2.18566E+03 -3.57053E+03  6.57816E+03 -1.14661E+04  1.89559E+03 -1.95063E+04 -5.20608E+03
 -1.05674E+04 -1.34023E+04  2.46691E+03 -2.07780E+04  6.52447E+03 -1.57106E+04  1.67760E+04 -9.64574E+02
  7.52505E+03  1.41675E+04 -2.84617E+01  1.37206E+04 -8.13944E+03  1.29380E+04 -1.75449E+04 -1.23496E+03
 -9.62402E+03 -1.09333E+04 -2.74615E+03 -2.30037E+04  9.79742E+03 -1.73077E+04  1.34760E+04 -2.69082E+03
  1.79584E+04 -3.03368E+03  8.39232E+03 -1.05937E+03  1.93360E+03 -2.68312E+03  3.95112E+03 -1.75581E+03
  1.63561E+04  2.99289E+02  1.66614E+04  1.26871E+04  1.07423E+04  2.93687E+04 -6.48448E+03  2.76860E+04
 -1.97884E+04  2.25974E+04 -2.62473E+04  7.84588E+03 -2.70206E+04 -5.96301E+03 -2.35800E+04 -1.36545E+04
 -7.23493E+03 -1.62716E+04  8.69239E+03 -1.96005E+04  1.58696E+04 -9.40864E+03  1.78179E+04  4.51285E+03
  1.10601E+04  1.16747E+04 -4.84339E+03  1.05443E+04 -1.16182E+04  2.83757E+03 -1.51185E+04 -6.37027E+03
 -2.04238E+03 -9.32259E+03  6.60974E+03 -8.85455E+03  7.07981E+03 -1.10068E+03  6.03147E+03  1.30098E+03
 -7.55702E+03  1.74332E+03 -6.33481E+03 -7.64756E+03 -9.35023E+02 -1.48524E+04  7.64797E+03 -9.04595E+03
  1.39116E+04 -5.02366E+03  1.30808E+04  1.19526E+03  1.44524E+04  8.27802E+03  4.52148E+03  1.43400E+04
 -2.10302E+03  1.73757E+04 -9.85367E+03  1.28723E+04 -1.56478E+04  1.89128E+03 -1.02091E+04  3.15698E+03
 -1.43946E+01 -1.48755E+03 -2.64778E+03  3.44018E+03 -5.17924E+02 -1.63877E+03 -5.61349E+03 -8.64021E+02
 -3.80236E+03 -2.72390E+03 -6.60163E+03 -8.11585E+03 -2.73736E+03 -1.06865E+04  2.60032E+03 -7.96234E+03
  1.07120E+04 -5.10516E+03  6.58456E+02 -2.28510E+03 -1.84253E+03  7.26324E+03 -3.52683E+03 -1.02849E+03
  1.69701E+03 -6.44839E+03  3.31912E+03 -5.83249E+03  1.87472E+03 -1.05275E+04  8.42007E+03 -5.78662E+03
  1.24979E+04 -5.78187E+02  7.97244E+03  5.17861E+03  3.73344E+03  1.12969E+04 -9.18197E+03  9.31877E+03
 -1.11911E+04 -2.93647E+03 -6.55246E+03  2.51120E+03  3.13352E+03 -3.90717E+02  2.92429E+03 -8.57550E+02
  4.30412E+03  2.09049E+03  2.70729E+03  8.24886E+03 -4.99339E+03  5.14399E+03 -6.38263E+03  4.08735E+03
 -7.14619E+03 -3.84834E+03  1.79791E+03 -6.82048E+03  2.09057E+03  1.89367E+02  5.65939E+03  6.30739E+02
  2.46064E+03  1.86823E+03 -2.65718E+03  4.32232E+03 -3.67076E+03  5.41769E+03 -8.72219E+03 -1.79462E+03
 -4.59653E+03 -8.47480E+03 -2.16956E+02 -1.09156E+04  5.04970E+03 -2.96607E+03  7.37729E+03  1.77732E+03
  2.00430E+03  8.00902E+03  1.69506E+02  5.58845E+03 -5.04811E+03  1.06024E+04 -2.15111E+03  4.86163E+02
 -7.97364E+03 -4.36419E+03 -2.45346E+03 -5.16833E+03  1.23884E+03 -6.05112E+02  3.13845E+03 -1.82347E+03
  2.96867E+03  6.50479E+02  4.37061E+03  1.17833E+03  7.08870E+02 -5.06351E+02  1.12151E+03 -2.43832E+03
  5.53805E+03 -4.15753E+03  7.55054E+03 -1.76875E+03  6.39958E+03  3.35993E+03  6.93146E+03  8.02184E+03
 -1.41655E+03  4.11642E+03 -7.44216E+03  6.82525E+03 -6.64824E+03 -2.22936E+03 -8.46721E+03 -4.85505E+03
 -4.55476E+03 -5.62761E+03  3.43072E+02 -5.31475E+03  6.76310E+03  1.77127E+03  8.78457E+02  1.28457E+03
 -3.56493E+02 -2.79501E+03  5.70308E+03 -2.18839E+02  5.08116E+03 -1.04037E+03  3.38233E+03  3.90335E+03
  7.90872E+03 -1.10942E+03  4.99881E+03  5.63916E+03 -3.75191E+03  5.91280E+03 -1.01200E+04  2.56659E+03
 -3.82218E+03 -3.53909E+01 -5.43869E+03 -5.78176E+03 -2.15191E+02 -3.93900E+03  5.18092E+03 -7.22519E+03
  9.96943E+03 -8.66005E+03  7.24966E+03  3.93613E+03  7.87782E+03  5.65763E+03 -8.10565E+02  3.39853E+03
 -4.23547E+03  7.18408E+03 -3.97679E+03  2.89365E+03 -2.63498E+03  7.93744E+01 -2.42271E+03 -9.96061E+02
 -2.80571E+03  2.28962E+03 -3.18452E+01  1.83984E+03 -5.43505E+03  2.84835E+03 -3.77475E+03  1.28791E+03
 -2.24481E+03 -3.35909E+03  2.27511E+03 -2.25234E+03  1.69172E+03 -5.51204E+03  2.39863E+03  1.98739E+03
  7.26653E+03  1.22377E+03  4.29362E+02  2.63549E+03 -2.92235E+03  6.44464E+03  1.23250E+03  3.29815E+03
 -6.33963E+03 -2.12102E+03 -6.39524E+03  6.90785E+02 -3.99667E+03 -4.72608E+03  1.44457E+03 -2.06384E+03
  3.22968E+03 -2.10414E+03  6.74243E+02 -5.99226E+02  2.12957E+03  1.14013E+03 -1.55162E+03  5.27347E+02
  3.42441E+03  1.95050E+03  4.07240E+03  3.60081E+03  7.22120E+02 -6.85117E+02 -7.93679E+02  1.14834E+03
  1.10652E+03  5.20843E+03 -5.77021E+03  4.15912E+03 -9.97835E+03  4.04864E+03 -5.50999E+03  4.01622E+03
 -5.31027E+03 -7.69282E+03 -2.71784E+03 -9.87017E+03 -1.29332E+03 -3.80381E+03  2.31903E+03 -8.16741E+02
 -2.15616E+03  1.89749E+03  5.79831E+00  1.87169E+03 -2.51484E+03  9.96023E+02  1.70623E+02  3.14513E+03
 -3.58708E+03 -4.27949E+03  2.08791E+02 -8.38868E+02  4.65751E+03 -1.18307E+03  6.22789E+03  2.83972E+03
 -2.14991E+02 -2.78641E+03  1.82758E+03 -1.98345E+03 -4.30575E+02  4.50021E+02 -2.80225E+02 -7.27792E+02
  1.46636E+03 -7.09882E+02  7.18308E+03  2.08367E+02  1.20796E+03  5.29556E+03 -7.51820E+02  6.14816E+03
 -4.29444E+03 -1.14935E+03  1.48012E+03 -5.52278E+02 -2.82552E+03 -1.48652E+03 -3.85662E+03 -2.37733E+03
  2.59242E+02 -1.45567E+03  8.47295E+02 -1.59158E+03 -1.07912E+03  4.35519E+03 -1.41260E+03 -2.50961E+03
 -5.56126E+03 -5.04675E+02 -2.70383E+02 -4.56977E+03 -7.00988E+03 -1.29400E+03  5.25824E+01 -2.59496E+03
  2.49839E+03 -4.17689E+03 -4.46101E+02 -2.16929E+03  4.57606E+03 -4.22272E+02  4.72836E+02 -8.64163E+02
 -4.05807E+03 -4.07937E+02 -5.75451E+03  1.53693E+03 -2.92555E+02  2.48806E+03  7.76390E+03 -2.17159E+03
  1.77305E+03  1.66126E+03  3.49106E+03 -3.39673E+03  3.72584E+03  1.90794E+03 -2.31344E+02  1.79714E+03
 -1.01118E+03  4.61916E+03 -2.05203E+01  2.27363E+01 -4.90908E+03 -1.93189E+03  6.92626E+02 -6.42245E+02
  1.79562E+03  4.54472E+03  2.45942E+03  2.21148E+03 -5.90873E+02  1.89964E+03  3.04512E+03  3.89501E+03
  1.78686E+03 -3.34855E+03 -4.78184E+03  7.15033E+02 -2.84643E+03 -1.07149E+03  1.74510E+02 -5.88781E+02
  6.84952E+02  3.35131E+03 -2.66850E+03 -2.04548E+03 -4.71227E+01 -1.58241E+03 -6.69795E+03 -6.20967E+03
 -1.12928E+03 -1.31640E+03  2.64810E+03 -6.94998E+03  4.98623E+03 -1.55738E+03  4.37278E+03 -2.50818E+03
  2.04494E+03 -1.77469E+03  3.62361E+03  3.12137E+03 -3.09723E+03  6.54580E+03 -2.68698E+03  1.66259E+03
 -1.48451E+03  1.91334E+03  1.12381E+03  1.41527E+03  4.13275E+03  1.32151E+03  1.41674E+03 -3.51431E+03
 -4.45624E+03 -9.56797E+02  5.30103E+02 -1.19671E+03  4.44612E+03 -2.97421E+03  2.16395E+03 -1.45906E+03
  1.07246E+02 -8.44875E+02  4.40993E+03  1.12878E+03  5.23420E+03  3.54219E+03  2.15234E+03  9.42233E+03
  1.82691E+03  6.50008E+03 -1.20966E+03  1.35817E+03  2.19687E+03 -3.68340E+03 -3.74995E+03  2.19664E+02
  1.03716E+01 -2.65974E+03  1.06346E+03  1.10003E+02  1.40812E+03 -2.19511E+03  4.16647E+02  1.88012E+03
  7.44328E+02 -1.76669E+03  3.27927E+03  3.25098E+01 -2.37588E+03 -2.11541E+03 -2.13906E+03 -1.39538E+03
 -3.82848E+03  9.99196E+02 -5.08766E+02  4.52116E+03  2.02428E+03  4.28142E+03  2.39638E+03  2.68622E+03
  1.66648E+03  4.01585E+03 -3.56260E+02 -6.13262E+02 -1.87951E+03 -1.06539E+03  5.28636E+03 -3.69898E+03
 -2.89799E+02 -2.85338E+03  8.72390E+02 -1.25850E+03 -3.31272E+03 -2.11490E+02  4.10544E+03 -1.98471E+03
 -2.46362E+03  3.11946E+03 -3.25201E+03 -3.56648E+03  2.07434E+03  2.23282E+03 -7.77015E+02  4.15444E+02
 -1.58208E+03  2.66775E+03 -8.97713E+02 -3.87412E+03 -1.72517E+03 -9.32724E+02 -8.14379E+02 -3.26657E+03
 -1.45407E+03  1.70998E+03 -2.19915E+02 -1.10125E+03  1.64366E+03 -5.19187E+03  1.53073E+03 -2.47726E+03
  3.04880E+03 -3.98397E+02 -3.64907E+03  3.29026E+03  2.85025E+03  2.59679E+02  3.44951E+03  8.33570E+02
