 $NMID ID='MM_0lb_SNR50_7hz_g60_35.RAW', FMTDAT='(8E13.5)'
 TRAMP=1., VOLUME=1. $END
  3.14504E+05 -5.74348E+03  3.41795E+05  2.50556E+05  8.99086E+04  3.26091E+05 -1.38827E+05  2.54127E+05
 -1.97225E+05  8.81538E+04 -1.10990E+05 -3.92933E+04 -2.86018E+03 -5.02139E+04  5.73620E+04 -3.28753E+03
  3.24302E+04  4.79158E+04 -1.67127E+04  7.25840E+04 -5.99850E+04  6.40016E+04 -8.58139E+04  3.70022E+04
 -8.27008E+04 -1.32974E+04 -5.58901E+04 -5.06223E+04 -1.49530E+04 -7.12346E+04  2.72786E+04 -4.29450E+04
  4.15806E+04  1.84305E+03  1.46799E+04  4.59109E+04 -3.38949E+04  5.04875E+04 -7.45428E+04 -1.51182E+03
 -5.19704E+04 -5.02944E+04 -7.92578E+03 -8.36622E+04  3.16152E+04 -5.24541E+04  5.68292E+04 -1.83546E+04
  4.73696E+04  1.68798E+04  3.21930E+04  2.56415E+04  1.50521E+04  3.47547E+04 -1.35518E+04  2.69897E+04
 -2.35718E+04  1.64233E+04 -2.34507E+04 -1.19099E+04  1.16023E+04 -1.12121E+03  2.56276E+04  1.96346E+04
  7.80919E+03  4.29685E+04 -4.02856E+04  4.27387E+04 -6.53711E+04  3.75492E+03 -6.82917E+04 -4.49274E+04
 -1.36467E+04 -7.57615E+04  4.80850E+04 -4.77352E+04  5.70724E+04 -3.48572E+03  4.07529E+04  3.90720E+04
 -1.09569E+04  4.23415E+04 -3.33587E+04  2.38177E+04 -3.37615E+04  2.80445E+03 -1.85723E+04 -1.23002E+04
 -9.70847E+03 -1.95083E+04 -1.08122E+04 -1.88688E+04  1.48103E+04 -2.63226E+04  1.54071E+04 -7.98341E+03
  1.01709E+04 -5.64569E+02 -2.18862E+04  1.74282E+04 -2.47702E+04 -2.12581E+03 -3.56232E+03 -5.15917E+04
  1.70884E+04 -5.12445E+04  5.67000E+04 -2.22583E+04  4.97843E+04  2.18144E+04  2.21755E+04  5.01988E+04
 -1.54766E+04  4.24170E+04 -2.85640E+04  5.86830E+03 -1.09950E+04 -2.57074E+04  1.50245E+04 -4.46150E+04
  3.62197E+04 -1.03760E+04  3.98072E+04  2.77288E+04  2.43354E+04  5.07925E+04 -1.29452E+04  7.03881E+04
 -3.33401E+04  4.23404E+04 -5.03961E+04  7.66685E+03 -5.41522E+04 -1.68588E+04 -2.53583E+04 -4.57593E+04
  4.08266E+03 -4.12798E+04  3.95026E+04 -2.22994E+04  3.93600E+04  1.37028E+04  3.67031E+03  2.49056E+04
 -1.25622E+04  1.65376E+04 -1.60828E+04 -1.02274E+04  4.03695E+03 -1.02160E+04  5.14115E+03  5.40139E+03
  2.06410E+04  2.72220E+04  4.95310E+03  3.54447E+04 -2.26050E+04  9.83109E+03 -2.80146E+04  1.80602E+03
 -2.59875E+04 -1.91391E+04 -8.92338E+03 -2.94486E+04  3.48407E+03 -2.89767E+04  1.76540E+04 -3.29691E+04
  3.44721E+04 -5.92887E+03  4.27372E+04  1.07749E+04  3.00856E+04  2.72107E+04  2.03625E+03  4.74936E+04
 -3.07318E+04  3.88565E+04 -2.27798E+04  1.15887E+04 -2.38720E+04 -9.87614E+03 -7.77507E+03 -1.82127E+04
 -1.81578E+03 -7.58991E+03 -8.43216E+03  8.49974E+03 -1.94449E+04  2.97508E+03 -1.59701E+04 -3.18668E+03
 -1.40484E+04 -2.35992E+04  1.01518E+04 -2.85975E+04  2.40788E+04 -2.13942E+04  1.78258E+04  3.47187E+03
  1.34900E+04  1.58940E+04 -5.30227E+03  2.20700E+04 -1.52128E+04  1.48156E+04 -2.79464E+04 -1.05416E+04
 -2.14175E+04 -2.20596E+04 -9.11992E+02 -2.88885E+04  1.58622E+04 -2.64980E+04  2.68710E+04 -1.00098E+04
  3.30639E+04  2.71697E+03  1.88594E+04  1.00727E+04  4.65074E+03  4.64119E+02  1.14775E+04  4.88563E+03
  2.56487E+04 -1.66792E+03  1.75928E+04  1.72405E+04  1.98296E+04  3.96843E+04 -5.58316E+03  5.12556E+04
 -2.79687E+04  4.00322E+04 -4.36469E+04  2.44593E+04 -5.94375E+04  1.76387E+03 -4.02214E+04 -2.77328E+04
 -5.27170E+03 -3.56768E+04  1.00686E+04 -3.89363E+04  2.74264E+04 -1.43413E+04  2.48544E+04  1.60679E+04
  8.47343E+03  1.57824E+04 -1.38373E+04  1.99178E+04 -2.45378E+04  5.51914E+03 -8.57837E+03 -2.00014E+04
 -6.60079E+03 -2.26107E+04  4.01294E+03 -1.88199E+04  1.24997E+04  5.54191E+02  1.02921E+04  1.41198E+04
 -1.09331E+04  6.83386E+03 -1.23729E+04 -9.24185E+03 -1.58260E+03 -1.94469E+04  1.37908E+04 -1.60157E+04
  2.94404E+04 -1.16647E+04  3.16645E+04  9.21943E+03  3.41722E+04  2.91277E+04  1.97019E+04  3.91396E+04
 -1.03645E+04  3.54738E+04 -2.72074E+04  2.09273E+04 -2.75390E+04 -3.38270E+03 -1.94312E+04 -6.49242E+03
  4.46250E+03 -4.02238E+03 -5.21992E+03  3.02256E+03 -1.80883E+02  3.76202E+03 -1.60626E+04  8.84277E+03
 -9.49369E+03  6.39550E+03 -1.02414E+04 -1.53179E+04 -2.39550E+03 -3.00796E+04  6.40019E+03 -1.16656E+04
  1.22055E+04  4.16153E+02  1.38423E+04  1.17192E+04 -3.68819E+03  6.56292E+03 -6.82865E+03  2.19754E+03
 -5.98214E+03 -1.70959E+04  2.34819E+03 -1.32095E+04  9.52837E+03 -3.25644E+04  2.22016E+04 -5.83470E+03
  3.08519E+04 -3.50195E+03  2.77598E+04  1.63926E+04  1.08519E+03  2.16266E+04 -5.41383E+03  2.29604E+04
 -1.69084E+04  4.74742E+02 -1.01973E+04  3.48275E+03  8.64835E+03  5.02335E+03  1.24659E+04  2.19853E+03
  1.12279E+04  8.40338E+03  2.87678E+03  1.33329E+04 -1.12631E+04  2.05706E+04 -1.99286E+04  1.01834E+04
 -2.00904E+04 -8.84400E+03 -2.97304E+03 -1.81140E+04  1.54417E+04 -1.17421E+04  1.56950E+04  2.14968E+03
  4.57624E+03  1.81262E+04 -1.23472E+04  1.82008E+04 -1.47984E+04  6.35698E+03 -1.73331E+04 -2.10758E+03
 -7.42013E+03 -1.57858E+04 -1.22851E+03 -1.86509E+04  1.42237E+04 -1.16029E+04  1.99323E+04  5.60214E+03
  1.39931E+04  2.01877E+04 -1.00728E+04  2.88692E+04 -1.41421E+04  1.22495E+04 -1.64933E+04 -5.37334E+03
 -1.77633E+04 -8.76672E+03 -7.85437E+03 -1.64243E+04  2.20522E+03 -1.67064E+04  1.19474E+04 -1.32639E+04
  8.54840E+03 -4.17884E+03  2.76983E+03 -3.10926E+03  5.53275E+03 -6.40919E+02  1.00568E+04 -1.36777E+04
  8.48144E+03 -1.14172E+04  1.85877E+04 -4.20133E+02  1.60345E+04  1.93872E+04  1.04662E+04  2.58397E+04
 -6.54534E+03  2.45423E+04 -2.71735E+04  2.11784E+04 -3.84938E+04  9.67434E+03 -2.78235E+04 -6.26800E+03
 -1.77628E+04 -2.00202E+04 -1.87744E+03 -1.36661E+04  8.68018E+03 -6.20913E+03  1.26708E+04 -4.95568E+03
 -3.46852E+01 -9.84602E+03  7.20166E+03 -2.78223E+03  5.89649E+03 -5.35312E+03  1.65990E+04 -1.56840E+04
  4.73358E+03  2.94697E+03  8.19258E+03  7.93060E+03 -1.14064E+04  1.32324E+04 -2.12744E+04  8.46437E+03
 -1.86766E+04  2.82948E+03 -1.80399E+04 -9.29260E+03 -8.05294E+03 -1.75609E+04  9.23881E+03 -1.84518E+04
  2.40707E+04 -9.42497E+03  3.29857E+04  1.68266E+03  1.27262E+04  2.03452E+04  1.45754E+03  1.90582E+04
 -8.83157E+03  1.75268E+04 -1.19458E+04  5.62344E+03 -1.17687E+04 -9.93498E+02 -9.94753E+02 -5.29847E+03
  9.67722E+02 -4.18071E+02  2.16254E+03  1.85661E+03 -1.31562E+04 -8.07876E+03 -7.31175E+03  3.87802E+03
 -1.20234E+04 -1.37098E+04  8.64075E+02 -1.26674E+04  1.20292E+04 -2.04221E+04  2.03261E+04 -1.82730E+04
  2.21037E+04  3.24317E+03  1.09230E+04  1.27447E+04 -3.44348E+03  2.08370E+04 -1.88223E+04  1.29681E+04
 -1.32563E+04 -7.14899E+02 -1.20864E+04 -7.26555E+03 -8.82967E+02 -2.15215E+04  7.96724E+03 -1.82507E+04
  1.55173E+04 -6.73982E+03  6.65588E+03  5.22738E+03  4.22089E+03  9.52682E+03  9.30513E+03  5.34837E+03
  1.68543E+03  4.64421E+03  4.56282E+03  6.97420E+03  5.70054E+03  2.80767E+03  9.15943E+03  1.53352E+04
 -1.91927E+03  1.47888E+04 -2.01663E+04  1.88801E+04 -1.99668E+04  5.91362E+03 -2.70607E+04 -3.98909E+03
 -1.57092E+04 -1.99554E+04  1.04932E+04 -2.40714E+04  4.84401E+03 -5.75021E+03  1.31963E+04  3.92355E+03
  8.11265E+03  3.78463E+03  2.96430E+03  1.13184E+04 -4.70823E+03 -8.52219E+02 -8.79923E+03 -2.38959E+03
 -3.13671E+03 -8.50915E+03  8.91990E+03 -1.29904E+04  3.58418E+03 -7.87270E+03  1.47360E+04 -2.32681E+03
  4.26679E+03  8.14032E+03  6.37239E+03  1.23354E+03  9.03782E+03  9.73627E+03  2.47743E+03 -2.51568E+03
  3.06221E+03  2.23595E+03  5.89022E+02 -1.13665E+03  1.18423E+04  8.95790E+03  1.91628E+03  2.07972E+04
 -8.68139E+03  8.81229E+03 -1.23812E+04  3.24146E+03 -1.76467E+04 -6.98234E+03 -4.65224E+03 -4.84843E+03
  6.45088E+03 -3.01623E+03  9.58316E+03 -4.62822E+02 -1.03519E+03  3.83316E+03 -1.99229E+03 -1.18187E+03
 -4.43306E+03 -2.16842E+02 -7.37089E+03 -2.64038E+03 -7.21109E+03 -1.64637E+04  7.76703E+02 -4.52578E+03
  2.04707E+03 -1.32898E+04  1.13302E+04  2.93611E+03  1.28888E+04 -3.89800E+03  7.67569E+02  1.63121E+04
  3.35759E+03  8.33621E+02 -3.53719E+02 -9.39676E+03  3.06495E+03 -1.39997E+04  7.03153E+03 -3.52449E+03
  1.17150E+04 -4.67921E+03  1.72285E+04  8.29063E+03  8.52982E+03  1.07249E+04 -1.50359E+04  1.28150E+04
 -7.26320E+03  1.07590E+04 -1.62302E+04 -1.57221E+03 -7.59822E+03 -9.32885E+02  1.66569E+03 -4.50637E+03
  9.78717E+03 -5.69883E+03  5.93866E+03 -8.09827E+03  4.85959E+03  4.44224E+03  2.16089E+02  1.19043E+04
  8.05434E+02  3.82220E+03 -2.14469E+03  3.89179E+02 -4.22611E+03 -2.05196E+03 -2.46341E+03  7.73263E+03
 -4.40521E+03 -3.99505E+03 -1.04863E+04  8.81895E+03 -9.70175E+03 -1.23179E+03 -1.59668E+04 -1.19269E+04
 -6.61047E+03 -1.42976E+04 -2.51606E+03 -1.50448E+04  1.38849E+04 -2.13048E+04  1.74751E+04 -1.35363E+04
  2.32138E+04 -1.71083E+02  1.36474E+04  1.10043E+04  8.22774E+03  4.76858E+03 -2.91029E+03  8.35586E+03
 -1.28632E+04  1.22898E+04 -1.30509E+04  1.50990E+03  6.15125E+02 -3.13556E+03  6.41976E+03  1.58725E+03
 -5.71601E+03 -1.28979E+03 -6.02083E+03 -2.59496E+03 -2.99137E+03  7.35806E+02  4.22753E+03 -5.31111E+03
  7.97274E+03 -5.49770E+03  1.44908E+04  2.41271E+03  1.55101E+04  1.55297E+03  1.06993E+04  1.07494E+04
 -6.59498E+03  1.80984E+04 -1.53221E+04  1.38619E+04 -1.74829E+04 -8.13473E+03 -1.46534E+04 -1.37501E+04
 -3.92725E+03 -1.92527E+04  4.08962E+03 -1.57212E+04  4.16603E+03 -1.59485E+04  1.35065E+04  3.10210E+03
  2.94178E+03  1.13208E+04  5.25335E+03  1.04351E+04 -3.99649E+03  1.33018E+04  3.34063E+03 -6.41068E+03
 -3.76484E+03 -5.65009E+03  7.40913E+03 -2.44884E+03  5.05975E+03  7.97921E+03  4.57935E+00  3.77629E+03
 -9.89815E+03  1.14010E+04 -1.60920E+04  3.38112E+03 -2.98539E+03 -6.84099E+03 -1.57797E+03 -9.89991E+03
  1.09117E+03 -6.40343E+03  1.69318E+04  1.30710E+03  1.35835E+04  1.74268E+03  1.23834E+04  6.07320E+03
  4.46912E+02  1.42416E+04 -1.37215E+03  5.08510E+03 -1.61820E+04  8.16997E+03  5.06763E+03 -1.62392E+03
 -1.28960E+04  6.75272E+03 -1.52990E+04  2.89369E+02  1.09360E+02  6.10279E+03 -3.64813E+03 -3.12493E+02
 -1.03578E+04  3.40120E+03 -5.51632E+03 -9.79006E+03  9.81098E+03 -1.32829E+04  1.00907E+04 -4.31395E+03
  1.27696E+04 -1.60136E+03  2.43433E+03  1.19847E+04  6.25069E+03  7.18585E+03 -4.13246E+03  6.04275E+03
