 $NMID ID='MM_0lb_SNR50_13hz_g40_62.RAW', FMTDAT='(8E13.5)'
 TRAMP=1., VOLUME=1. $END
  3.13834E+05  3.95528E+02  3.42356E+05  2.48953E+05  8.32966E+04  3.38283E+05 -1.31261E+05  2.46942E+05
 -1.89513E+05  8.36552E+04 -1.14128E+05 -3.19150E+04  7.83792E+02 -5.34210E+04  5.87614E+04 -3.33888E+03
  3.17766E+04  5.05567E+04 -1.60880E+04  7.73753E+04 -6.17582E+04  6.14906E+04 -8.10964E+04  3.03350E+04
 -8.38756E+04 -5.89506E+03 -5.18174E+04 -5.26998E+04 -1.45056E+04 -7.13599E+04  2.60624E+04 -4.37362E+04
  3.86310E+04  7.12537E+03  1.76494E+04  4.54910E+04 -3.37474E+04  5.06583E+04 -6.61406E+04  7.86236E+02
 -5.47260E+04 -5.72360E+04 -6.81918E+03 -7.15925E+04  3.39856E+04 -5.58869E+04  5.13750E+04 -1.21494E+04
  3.97939E+04  1.06871E+04  2.83253E+04  2.48915E+04  9.19530E+03  2.84629E+04 -5.31052E+03  2.67969E+04
 -2.13452E+04  1.30150E+04 -1.33479E+04 -4.07998E+03  3.71658E+03 -1.17881E+04  2.30123E+04  8.40040E+03
  5.01643E+03  3.70173E+04 -2.80837E+04  3.66411E+04 -6.54882E+04  1.86051E+03 -5.72050E+04 -4.09159E+04
 -1.23165E+04 -6.25185E+04  3.89032E+04 -3.99808E+04  6.05889E+04 -7.12495E+03  3.21121E+04  3.19345E+04
 -1.05370E+04  3.39311E+04 -2.85175E+04  1.85849E+04 -3.03377E+04 -6.16814E+03 -1.71645E+04 -6.46710E+03
 -1.05567E+04 -9.81723E+03  4.20079E+03 -1.52236E+04  9.79368E+03 -2.95628E+04  1.37202E+04 -9.97736E+03
  7.60383E+03  3.59881E+03 -5.19886E+03  1.27877E+04 -2.12085E+04 -2.47746E+03 -1.04220E+04 -3.48363E+04
  2.64800E+04 -4.63370E+04  4.76892E+04 -1.90629E+04  4.60042E+04  1.96208E+04  1.06460E+04  4.33374E+04
 -1.57895E+04  3.02195E+04 -2.93989E+04 -1.14214E+03 -1.14260E+04 -2.37085E+04  2.11180E+04 -3.39454E+04
  4.22392E+04 -9.93716E+03  3.61178E+04  2.19895E+04  1.91854E+04  4.66931E+04 -4.50602E+03  4.46974E+04
 -3.72128E+04  3.83367E+04 -4.34887E+04  8.44131E+03 -4.22168E+04 -1.57904E+04 -2.46064E+04 -3.79655E+04
  7.46371E+03 -4.03601E+04  3.08802E+04 -1.80290E+04  2.55868E+04  8.19337E+03 -1.20926E+03  1.73448E+04
 -1.46065E+04  1.03146E+04 -8.16220E+03 -5.22470E+03  3.23518E+03 -9.59350E+03  1.75822E+04  4.90807E+03
  1.45252E+04  2.13710E+04 -9.48272E+03  2.56429E+04 -2.08396E+04  1.00813E+04 -2.98826E+04 -3.02507E+03
 -1.95897E+04 -1.41218E+04 -1.10840E+04 -2.09975E+04  6.99026E+03 -2.11920E+04  1.60648E+04 -1.41021E+04
  2.31594E+04 -1.57866E+04  3.12396E+04  1.36313E+03  2.26372E+04  1.94165E+04  6.84799E+03  3.50772E+04
 -1.63898E+04  3.04781E+04 -2.68255E+04  1.49663E+04 -2.31870E+04 -1.44117E+04 -2.47235E+03 -1.48146E+04
  3.95779E+03 -4.96085E+03 -7.48442E+03  2.31011E+03 -1.20767E+04  7.68865E+03 -1.51967E+04 -6.66502E+03
 -5.90777E+03 -2.08368E+04  5.78298E+03 -2.06854E+04  1.34567E+04 -1.70301E+04  1.65403E+04  1.25202E+03
  9.23083E+03  1.01284E+04 -2.21363E+03  1.80838E+04 -1.35934E+04  1.10792E+04 -2.13026E+04 -6.32844E+03
 -7.99953E+03 -1.78898E+04 -3.67973E+03 -2.46057E+04  9.78725E+03 -1.79282E+04  1.94774E+04 -1.02697E+04
  1.45192E+04 -1.89451E+03  1.07499E+04  5.61919E+03  6.29232E+03 -7.50716E+02  7.60804E+03  1.19585E+03
  2.08673E+04  8.69032E+03  2.15751E+04  1.39237E+04  1.08911E+04  3.31606E+04  9.74701E+01  3.66835E+04
 -1.95704E+04  2.85086E+04 -2.92116E+04  1.40735E+04 -3.06243E+04 -3.41528E+03 -2.90623E+04 -2.13379E+04
 -1.09534E+04 -2.50567E+04  1.13222E+04 -2.36670E+04  1.84817E+04 -7.84253E+03  2.06215E+04  4.25083E+03
 -5.30598E+02  1.62197E+04 -4.71512E+03  1.26989E+04 -1.56170E+04  3.15701E+02 -6.29750E+03 -4.17595E+03
 -8.22403E+02 -1.61195E+04  2.48571E+03 -7.55723E+03  1.34805E+04  2.09671E+03  2.67521E+03  9.45679E+03
 -1.12812E+04  1.53596E+03 -7.33346E+03 -1.01394E+04 -1.87354E+03 -1.32743E+04  9.61307E+03 -1.10800E+04
  1.38771E+04 -3.67782E+03  1.63644E+04  9.45711E+03  1.15916E+04  1.49984E+04  1.10526E+04  2.23893E+04
 -2.31706E+03  2.25539E+04 -1.57661E+04  1.32930E+04 -1.87547E+04  5.75765E+03 -1.16771E+04  2.84493E+02
 -5.71570E+03 -8.89390E+03  9.78949E+02  5.22787E+02 -4.33355E+03  2.08596E+03 -7.31402E+03  9.07755E+03
 -1.36525E+04 -1.78883E+03 -7.69355E+03 -9.05650E+03 -6.46757E+03 -1.48260E+04  6.52534E+03 -1.36849E+04
  8.46522E+03 -8.44640E+03  8.06532E+03  4.20926E+03 -5.32645E+03  7.57619E+03 -7.18896E+03  2.62317E+03
  1.13680E+02 -5.54182E+03 -5.30784E+03 -7.37625E+03  6.03073E+03 -1.01704E+04  9.73203E+03 -3.60981E+03
  1.90157E+04  2.17377E+03  1.26272E+04  9.09710E+03  7.62159E+02  2.13928E+04 -9.82010E+03  1.12667E+04
 -4.17669E+03  6.73072E+03 -5.39288E+03 -5.82170E+03  4.23698E+03  1.88432E+03  5.86956E+03 -3.70865E+03
  6.86187E+03  4.33585E+02  6.88835E+02  5.63018E+03 -7.86196E+03  1.03569E+04 -1.16777E+04  2.35481E+03
 -4.82701E+03 -2.86520E+03 -1.65914E+02 -9.78098E+03  7.45027E+03 -8.02333E+03  6.20876E+03  7.21159E+00
  5.59092E+03  6.26236E+03 -8.25287E+03  3.36650E+03 -1.34059E+04  1.00832E+03 -3.16863E+03 -2.49184E+03
 -8.74635E+03 -1.14168E+04 -2.22428E+03 -1.08645E+04  1.43234E+04 -7.69695E+03  7.75499E+03 -1.42768E+03
  1.16486E+04  8.19692E+03 -2.54584E+03  1.14707E+04 -5.72187E+03  4.25685E+03 -7.84496E+03  1.82375E+03
 -7.83476E+03 -6.39841E+03 -8.97268E+02 -4.25186E+03  9.70744E+03 -4.63184E+03  2.80343E+03 -5.47500E+03
  2.41003E+03  1.67647E+03 -1.10638E+03  1.90895E+03  1.17669E+03  1.70263E+03 -1.57909E+03 -1.14576E+03
  5.59238E+03 -6.45896E+03  1.31201E+04  2.18293E+03  8.14127E+03  1.43704E+03  5.06688E+03  1.16278E+04
  1.14448E+03  1.59098E+04 -9.93682E+03  7.82130E+03 -1.62294E+04 -2.37054E+03 -1.54639E+04 -1.78122E+03
 -1.16807E+04 -7.46918E+03 -3.79094E+03 -1.03436E+04  5.80282E+03 -5.62925E+03  5.02708E+02 -5.88049E+03
  3.72133E+03 -2.75089E+03  5.08709E+03 -3.57096E+03  3.21054E+03 -4.00384E+03  4.25420E+03  2.11400E+03
  3.69406E+03  6.11531E+03  4.12431E+02  8.33687E+03 -2.70788E+03  8.66254E+03 -7.12607E+03 -4.80569E+02
 -1.08578E+04  1.51676E+03 -2.42930E+03 -2.66935E+03 -1.16446E+03 -1.32835E+04  4.42466E+03 -1.26196E+04
  8.82646E+03 -4.31930E+03  7.13340E+03 -3.42449E+03  6.22166E+03  8.58451E+03 -9.97974E+02  1.11825E+04
 -1.60091E+03  6.72458E+03 -5.28855E+03 -5.27278E+02 -3.82651E+03 -1.74585E+03 -3.23077E+03 -1.13555E+03
  3.86255E+03  6.65858E+03  1.38754E+03  9.63443E+02 -7.80368E+03 -1.06403E+03 -4.14879E+03 -1.67950E+03
 -4.96681E+03 -5.89706E+03  5.43646E+03 -1.12348E+04  7.58131E+03 -4.40286E+03  7.47748E+03 -2.35954E+03
  1.02922E+04  1.91056E+03 -1.78867E+03  4.93081E+03 -3.38377E+03  5.18513E+03 -6.01135E+03  8.03260E+03
 -1.21379E+04  1.49270E+03 -1.90716E+03 -4.05572E+03  3.86241E+01 -1.74038E+03  2.06118E+03 -7.04573E+03
  5.33865E+03 -2.88808E+03  2.98363E+03 -4.27068E+03  7.99506E+03  6.38690E+03  1.19601E+03  1.73955E+03
  4.51713E+03  3.41594E+03  3.32416E+03  2.03490E+03 -1.31567E+02 -3.44553E+02 -3.38253E+03  4.08205E+03
  1.77581E+03  6.39656E+03 -3.32375E+03  5.62367E+03 -1.33572E+04  1.28093E+03 -7.70557E+03 -1.12691E+03
 -5.18605E+03 -1.01907E+04  1.26118E+03 -5.06985E+03 -2.86941E+02 -4.51205E+03  8.23304E+03 -1.32957E+03
  3.47151E+03  7.85943E+03  3.69255E+02  4.25531E+03 -6.54022E+03  3.13156E+03 -2.11984E+03  2.02100E+03
 -4.60766E+03 -8.33966E+03  3.46212E+03  1.73627E+03  1.89802E+03 -5.92300E+03  5.09625E+03  7.52584E+02
  3.66009E+03 -3.59399E+03 -1.67029E+03 -3.45773E+03 -1.82359E+03  6.84842E+03  6.53752E+03  4.89413E+02
 -1.64646E+03  2.27938E+03  4.10920E+03 -4.41713E+03  1.35251E+03  2.92333E+02 -3.99215E+03  7.14193E+03
 -5.16225E+03 -5.71498E+02 -6.29563E+03 -1.47465E+03 -5.70732E+03 -8.98248E+02  7.26560E+02 -3.43039E+03
 -7.02146E+03 -7.25203E+03  5.51538E+03 -2.84146E+03  3.58011E+03  2.50288E+03  1.54744E+03 -2.76319E+03
 -4.40920E+03  8.99803E+02 -2.66114E+03 -3.20521E+03 -1.27346E+03 -4.32238E+03  1.94824E+03 -6.12571E+03
 -1.34584E+03  3.65211E+02  3.56892E+03  3.73296E+03  5.10438E+03  4.81337E+02  2.21444E+03  8.26414E+02
 -7.13582E+03  5.48230E+02 -1.55419E+03 -3.20885E+03 -2.33061E+03 -5.59790E+03  2.66955E+03 -7.77238E+03
  1.93780E+03  5.88740E+03  2.44269E+03 -5.02195E+02 -1.64843E+03  8.39022E+03 -1.53149E+03  5.74717E+03
 -1.17325E+04  3.15544E+03  1.36590E+03  3.13745E+03  1.69185E+03 -3.77567E+03 -2.42424E+03  9.05920E+02
  1.80126E+03 -7.89944E+02  3.84458E+03  3.02964E+03 -2.90028E+03  3.50127E+03  6.14041E+02 -1.61807E+02
 -3.68386E+03  3.97593E+02 -9.86869E+02 -2.41330E+03 -5.39114E+03  1.66852E+03  1.57486E+03  1.75607E+02
 -3.04322E+02 -1.34189E+03  1.15182E+03  7.62319E+02 -2.43757E+03 -2.77627E+03 -1.30537E+03 -5.23365E+03
  1.37265E+02 -4.10202E+03  7.73897E+03 -5.84514E+03  8.67484E+03 -5.74725E+03  7.83902E+03 -2.49136E+03
 -1.05699E+03  2.83606E+03  3.69282E+03  6.20798E+03  6.04483E+02 -1.46130E+03 -9.43932E+01  4.46193E+03
 -5.73494E+03  4.36714E+03 -2.07315E+02 -6.76602E+02 -5.45209E+03 -5.06406E+03 -1.79592E+03  5.49090E+02
 -7.74054E+02  2.63142E+03 -9.95727E+02 -4.31868E+03  3.58822E+02 -6.13321E+02  8.53838E+02 -1.48978E+03
  6.22526E+03 -3.39168E+03  8.53041E+02  3.79044E+03  1.41721E+03  5.38283E+03 -5.10534E+03  9.05696E+03
 -1.35676E+03  3.82665E+03 -6.50990E+03  2.67298E+03 -8.28341E+03 -1.64621E+03 -4.47893E+02 -6.32743E+03
  3.34395E+03 -2.37115E+03  8.31127E+02 -8.65144E+02  2.82321E+03 -5.11576E+03 -2.37965E+03 -1.12781E+03
 -3.27958E+03 -2.32811E+03 -5.07943E+03  1.87478E+03 -4.01493E+03 -1.29805E+03 -1.45410E+03 -9.63699E+02
  5.17704E+02  4.95117E+03  2.81671E+03 -8.23259E+02 -2.22898E+03  3.47655E+03  4.38462E+03 -1.20963E+03
 -1.67818E+03  4.73268E+03 -3.79718E+03  2.31182E+03 -1.01006E+03 -8.89935E+03 -4.30719E+01 -3.63875E+03
  1.26762E+03 -7.15971E+03  1.56590E+03  7.87678E+03  1.80465E+03 -6.40600E+03  3.85186E+03  1.02069E+04
  1.93338E+03  4.65524E+03  5.32603E+03  5.06318E+03 -1.08783E+03  2.21136E+03 -5.65797E+01 -2.15145E+02
  3.76497E+01  2.04857E+03  6.27648E+02 -1.78676E+02  4.39137E+03 -3.90048E+03 -1.61559E+03 -1.96550E+03
  2.49116E+03  4.96663E+02 -3.98508E+03  1.37794E+03  2.92526E+03 -3.11853E+02  7.05015E+03 -1.96200E+03
  6.71486E+02  1.55833E+03 -1.43021E+03  1.43568E+03 -6.34243E+02  8.75984E+03 -6.68544E+03  7.73734E+02
