 $NMID ID='MM_0lb_SNR50_14hz_g50_70.RAW', FMTDAT='(8E13.5)'
 TRAMP=1., VOLUME=1. $END
  3.11000E+05  4.43565E+02  3.37273E+05  2.50092E+05  8.87743E+04  3.33272E+05 -1.29019E+05  2.50115E+05
 -1.90796E+05  8.34894E+04 -1.14621E+05 -3.16388E+04  1.21174E+03 -5.41271E+04  5.28118E+04  1.18106E+03
  3.31634E+04  5.58245E+04 -1.42603E+04  7.70408E+04 -5.63165E+04  6.35658E+04 -8.37491E+04  3.41882E+04
 -8.11059E+04 -1.38251E+04 -5.64054E+04 -5.24533E+04 -1.47014E+04 -7.08632E+04  3.14180E+04 -4.07075E+04
  4.25485E+04  4.45737E+03  1.59714E+04  4.15598E+04 -3.38250E+04  5.24094E+04 -6.37290E+04 -1.12008E+03
 -5.11619E+04 -5.84112E+04 -8.26889E+03 -7.55584E+04  3.09052E+04 -5.64475E+04  4.63520E+04 -1.89642E+04
  4.41074E+04  1.17237E+04  3.23504E+04  2.70938E+04  1.75850E+04  2.83063E+04 -1.62708E+03  3.19380E+04
 -2.25955E+04  1.45857E+04 -1.82715E+04 -7.56478E+03  5.95876E+03 -6.43441E+03  1.96466E+04  1.74860E+04
  3.90552E+03  3.53343E+04 -2.99898E+04  3.90722E+04 -6.30870E+04  7.65958E+02 -5.83897E+04 -4.13831E+04
 -8.46464E+03 -6.28987E+04  3.82141E+04 -4.59249E+04  5.52952E+04 -2.51840E+03  3.17776E+04  3.34580E+04
 -5.06229E+03  3.72835E+04 -2.80126E+04  1.49227E+04 -2.99976E+04 -7.32153E+03 -1.43076E+04 -1.36719E+04
 -5.25202E+03 -1.13279E+04 -4.14715E+03 -1.78493E+04  4.67422E+03 -2.58734E+04  1.84589E+04 -1.46106E+04
  1.54175E+04  5.97324E+03 -7.87087E+03  1.26048E+04 -1.94644E+04 -8.62282E+03 -6.00864E+03 -3.94577E+04
  2.58868E+04 -3.93970E+04  4.60907E+04 -1.72715E+04  4.59773E+04  1.87939E+04  1.54947E+04  4.66646E+04
 -1.67677E+04  3.12489E+04 -2.83869E+04  5.38643E+03 -1.29268E+04 -2.59229E+04  1.87885E+04 -3.15106E+04
  3.63273E+04 -7.49776E+03  3.75425E+04  2.42645E+04  2.01833E+04  4.72499E+04 -7.44091E+03  4.96091E+04
 -3.30846E+04  3.33512E+04 -4.22151E+04  1.02044E+04 -4.36555E+04 -1.50680E+04 -2.40962E+04 -3.18067E+04
  8.33946E+03 -3.43370E+04  3.19951E+04 -1.56810E+04  2.96494E+04  1.09911E+04  5.54926E+03  2.42917E+04
 -1.64280E+04  8.76454E+03 -9.65015E+03 -9.30295E+03  3.93135E+03 -1.11989E+04  1.85788E+04  8.06494E+03
  9.92821E+03  2.04387E+04 -9.10468E+03  2.52850E+04 -1.79530E+04  5.79029E+03 -3.11291E+04 -6.07304E+03
 -2.16467E+04 -1.54530E+04 -4.69649E+03 -2.11525E+04  2.78680E+03 -1.68061E+04  1.37206E+04 -1.64657E+04
  2.98328E+04 -1.62132E+04  3.11438E+04  3.74121E+03  2.37271E+04  2.23397E+04  2.34204E+03  3.36798E+04
 -1.57848E+04  3.30182E+04 -2.75051E+04  9.98482E+03 -1.67905E+04 -1.03791E+04 -2.80193E+03 -1.08095E+04
  1.82643E+03 -3.99411E+03 -4.23007E+03  5.30675E+03 -1.66068E+04  1.31509E+04 -1.57805E+04 -6.52151E+03
 -1.03977E+04 -2.00969E+04  1.05474E+04 -2.75296E+04  1.37439E+04 -1.56514E+04  2.03926E+04 -5.11902E+03
  1.21071E+04  2.04056E+04 -2.52973E+03  1.87933E+04 -1.54037E+04  1.32270E+04 -1.66900E+04 -2.50757E+03
 -1.85494E+04 -1.20260E+04  4.89889E+03 -2.58274E+04  1.03454E+04 -2.03427E+04  1.86953E+04 -7.41135E+03
  1.78392E+04  4.00642E+03  1.41219E+04  2.76659E+03  3.47281E+03 -2.03019E+02  1.25069E+04 -3.32070E+03
  1.70475E+04  1.05354E+03  1.51077E+04  1.56328E+04  1.68321E+04  2.92988E+04 -4.98320E+03  3.46502E+04
 -2.00636E+04  2.54553E+04 -3.17194E+04  1.16490E+04 -3.06167E+04 -1.09408E+03 -2.96853E+04 -1.90606E+04
 -1.84342E+04 -2.67970E+04  4.60833E+03 -1.93517E+04  2.34593E+04 -1.22826E+04  1.83152E+04  7.99899E+03
  5.05090E+03  1.74095E+04 -7.69427E+03  1.55458E+04 -1.59627E+04  6.52195E+03 -1.07138E+04 -7.76359E+03
  4.44220E+03 -1.54820E+04  4.72890E+03 -9.34498E+03  1.10178E+04 -4.54137E+03  5.49500E+03  2.63226E+03
 -1.05278E+04  6.01566E+03 -1.17573E+04 -5.48602E+03 -2.08823E+03 -1.15825E+04  1.09688E+04 -1.13983E+04
  2.51168E+04 -8.24595E+03  1.85203E+04  6.95797E+01  1.71711E+04  1.51422E+04  6.90644E+03  1.97857E+04
  2.25391E+03  2.12344E+04 -1.14564E+04  1.48210E+04 -2.00584E+04  5.18067E+03 -8.61950E+03 -3.01450E+03
 -9.86874E+03 -8.21081E+03 -4.98438E+02  7.47359E+03 -2.75873E+03  1.09201E+03 -1.88852E+03  8.79578E+03
 -1.58786E+04 -1.45593E+03 -8.00286E+03 -1.17320E+04 -2.89597E+03 -1.29988E+04  3.57794E+03 -9.17021E+03
  7.73205E+03 -4.18310E+03  6.33338E+03  7.52498E+03 -2.55355E+03  2.06179E+03 -4.78191E+03 -3.06069E+02
 -4.87434E+03 -5.46450E+03 -1.12072E+03 -1.32563E+04  6.66561E+03 -1.02250E+04  1.49380E+04 -5.85815E+03
  1.62995E+04  1.00583E+03  1.15891E+04  8.32511E+03  4.62215E+03  7.64301E+03 -1.12402E+04  1.36307E+04
 -1.10195E+04  4.13196E+03 -1.04878E+04 -2.60342E+03  2.84492E+03 -2.39696E+03  1.00727E+04  1.42851E+03
  4.20814E+03  4.36792E+02  4.49523E+03  1.10725E+04 -5.20633E+03  5.13041E+03 -1.08932E+04  7.48821E+03
 -4.16578E+03 -1.32091E+03 -2.09741E+03 -7.96175E+03  6.90739E+03 -5.17087E+03  5.35996E+03 -1.64294E+03
  2.66052E+03  3.66557E+03 -6.24273E+03  5.04027E+03 -4.71461E+03  3.47988E+03 -7.83173E+03  4.48167E+02
  1.70246E+03 -7.92172E+03  4.17610E+03 -1.09293E+04  3.56371E+03 -5.83746E+03  7.94496E+03 -1.46643E+03
  7.81652E+03  1.00160E+04  5.54687E+02  1.00510E+04 -9.29399E+03  4.73912E+03 -1.05512E+04 -1.72913E+03
 -6.08122E+03 -8.38637E+03 -3.85839E+02 -6.88569E+03  3.95508E+03 -5.94469E+03  5.93067E+03 -1.06577E+03
  1.82269E+03 -4.33819E+03  3.30512E+03  1.95456E+03 -1.95634E+03  3.91316E+03  6.63219E+03 -4.96566E+03
  4.86449E+03 -2.09401E+03  1.18758E+04  2.96324E+03  1.08299E+04  2.19285E+03  1.01646E+04  1.28627E+04
 -3.42834E+03  1.46332E+04 -1.16057E+04  1.19998E+04 -1.42765E+04  2.82276E+03 -8.24540E+03 -4.61125E+02
 -8.86368E+03 -1.30461E+04  2.37731E+03 -4.44125E+03  5.75878E+03 -6.23676E+02  3.55288E+03  9.29492E+02
  4.28517E+03 -3.21964E+03  7.60700E+03 -4.18560E+03  5.76900E+03 -6.56621E+03  3.18984E+03 -3.58587E+02
  3.24160E+03  8.57638E+02  1.92138E+03  2.12645E+03 -9.71315E+02  5.93523E+03 -5.83884E+03  3.01518E+03
 -1.24076E+04  5.19578E+02 -3.09574E+03 -8.29353E+03  3.52771E+02 -5.08795E+03  3.38620E+03 -9.55419E+03
  8.88931E+03 -6.81222E+03  1.38341E+04  1.43842E+03  1.39775E+04  7.30775E+03  4.75078E+03  1.02041E+04
 -9.66886E+03  8.16711E+03 -6.48986E+03  3.51940E+03 -3.54480E+03 -1.84507E+03 -3.55205E+03  1.30304E+03
 -7.88340E+03  2.64838E+03 -1.62190E+03  2.72732E+02 -9.97607E+02  2.38522E+03 -3.21499E+03  4.23159E+03
 -1.67068E+03 -1.92667E+03  2.37344E+03 -7.54570E+03  6.11263E+03 -6.43025E+03  5.03625E+03 -2.16100E+03
  7.70207E+03  3.63274E+03  2.83882E+03  8.30069E+03 -2.41880E+03  8.54393E+03 -1.57472E+03  5.42488E+03
 -5.33668E+03  1.66047E+03 -7.16517E+03 -7.70996E+03 -6.24779E+02 -2.34733E+03  5.06751E+03 -8.45037E+03
  3.49828E+03 -8.76980E+02  1.78624E+03  2.42420E+03  1.56653E+02  8.36269E+03 -4.14217E+03  1.15667E+03
 -4.37293E+03  5.47443E+03  1.16689E+04  2.71501E+03  6.39125E+02  5.67875E+03  1.03221E+03  8.04088E+03
 -2.81444E+02  6.96626E+03 -3.48290E+03  1.12597E+04 -5.53875E+03  3.32601E+03 -9.40045E+03 -2.29157E+03
 -1.52730E+02 -7.16803E+03  7.83194E+02 -1.06102E+04  8.52617E+03 -3.69009E+03  5.36318E+03  1.39446E+03
  4.06195E+03  4.93659E+03  6.39075E+02  6.50951E+03 -2.87443E+03 -2.26934E+01 -3.53993E+03  1.17925E+03
 -4.70723E+03  3.11955E+02  7.65654E+02 -2.29303E+03  5.44013E+03 -2.41286E+03  3.16554E+03  3.33168E+02
  1.17999E+03  3.19633E+02  1.27755E+03 -3.18015E+03  1.71288E+03  1.88915E+03  8.39501E+02  2.93244E+03
  2.58927E+03  3.24840E+03  2.07463E+03  7.53817E+01 -2.20707E+03  5.06476E+03  2.78520E+03  8.02621E+03
 -1.23728E+03  1.17906E+03 -3.74750E+03 -3.05554E+03 -1.93935E+03  1.15915E+03  2.29619E+03 -4.85904E+03
  4.09118E+03  1.13200E+03  1.13296E+03 -2.63006E+03  2.29440E+03  5.86562E+03 -4.31537E+03  2.47118E+03
 -5.68594E+03  3.28096E+03 -1.23468E+03  7.17626E+02 -2.83712E+03 -3.61776E+03  4.06573E+02 -1.46771E+03
 -2.11402E+03 -3.39958E+03  2.62708E+03  8.96021E+03  2.84609E+00  3.01064E+03 -5.95166E+02  5.82107E+02
 -3.28232E+03  1.43023E+03 -1.29969E+03 -1.27529E+03  4.57780E+03 -2.34979E+03  1.28420E+04 -9.46224E+01
  8.92802E+02 -6.54378E+02  5.79148E+03  3.12476E+03  8.43936E+02  5.24635E+03  1.07721E+03  3.21860E+03
 -3.13787E+03  2.89141E+03 -1.79830E+03  2.28233E+03 -1.71598E+03 -4.65575E+03 -3.97369E+03  2.92223E+02
  1.86031E+03  1.58346E+03  2.06627E+03  5.40168E+03  9.05642E+02  2.66752E+03 -2.06757E+03  7.54888E+02
  4.44004E+03  2.88103E+03 -3.10452E+02  2.37389E+03 -9.74041E+02  5.35219E+03  1.07669E+03  1.96979E+03
  2.23972E+02 -1.33650E+03 -3.97258E+03 -4.37895E+03 -4.34841E+03  2.38603E+03 -4.55259E+03  3.89855E+02
 -3.09457E+03 -7.61864E+03  2.70905E+03 -1.12178E+04  3.79679E+03 -5.19150E+03  4.43172E+03 -3.78493E+03
  4.11655E+03 -3.62055E+02  2.29849E+03  4.78141E+03  2.46862E+03  4.65652E+03 -5.14127E+03 -1.73434E+03
 -4.48644E+03  4.52251E+03 -4.62942E+03 -5.43495E+02 -6.23633E+03 -4.17368E+03  3.69488E+03  2.99212E+03
 -1.54927E+03 -2.23033E+03  2.25931E+03  8.10521E+02 -5.39356E+03  2.04337E+03 -4.06710E+03  4.95608E+02
  5.23281E+03  2.48096E+03  5.78081E+03 -5.60900E+02  2.23450E+03  4.28338E+03  4.44799E+03  6.17497E+03
  1.05525E+03  4.71563E+03  8.36440E+02  5.03445E+03 -6.48123E+03 -2.22913E+03 -9.49724E+02 -3.04610E+03
 -1.50222E+03 -5.72790E+03 -1.03496E+03 -6.47645E+03  4.51267E+03 -4.04605E+03  2.21779E+03  1.16833E+03
  5.61308E+03  7.03280E+03 -3.52712E+03  2.10787E+03  4.85776E+02 -3.88166E+03 -4.01735E+03 -1.03149E+02
 -2.58357E+03 -1.13624E+03  4.49388E+03 -1.59310E+03 -2.46747E+03  1.39220E+03 -3.41323E+03  8.00705E+02
 -1.76641E+03  5.56585E+03 -7.90334E+03 -1.74707E+02 -3.20700E+03 -4.81423E+03  3.53112E+03 -6.38918E+03
  2.58953E+03 -9.79649E+02  2.43172E+03  3.00679E+03  6.18063E+03 -4.06468E+03  4.28692E+03  5.12941E+02
  3.18307E+03 -1.29595E+03  1.48752E+03  8.35105E+02  1.65041E+03 -4.27695E+03  9.72191E+02 -7.64847E+03
 -1.94980E+03 -5.66366E+03 -8.42018E+02  2.72649E+03  3.81447E+02  6.04509E+03 -7.84135E+02  1.74300E+02
 -7.77911E+02  3.31803E+02 -1.07857E+03 -3.42979E+03 -5.87766E+02 -5.42478E+03 -9.65066E+02  3.27783E+03
  3.26619E+03 -1.25062E+03  4.92907E+03  3.70639E+03  1.74299E+03 -8.96553E+02 -3.92090E+03  2.36241E+03
