 $NMID ID='MM_0lb_SNR50_19hz_g60_48.RAW', FMTDAT='(8E13.5)'
 TRAMP=1., VOLUME=1. $END
  3.09294E+05 -3.55757E+03  3.40252E+05  2.50812E+05  8.59916E+04  3.39277E+05 -1.30536E+05  2.48957E+05
 -1.88377E+05  8.05125E+04 -1.13075E+05 -3.45994E+04  1.42175E+03 -5.08878E+04  5.64397E+04 -1.34509E+03
  3.63313E+04  5.19628E+04 -1.80740E+04  7.09675E+04 -6.29338E+04  6.24022E+04 -8.15467E+04  3.40952E+04
 -8.13716E+04 -1.32404E+04 -5.80180E+04 -4.63445E+04 -1.66860E+04 -6.49388E+04  2.45186E+04 -4.47317E+04
  4.08752E+04  3.53611E+03  1.49033E+04  4.47789E+04 -3.39231E+04  4.67617E+04 -6.74893E+04  2.50792E+02
 -5.38414E+04 -5.57703E+04 -7.68954E+03 -7.46306E+04  3.14652E+04 -5.14033E+04  4.74972E+04 -1.88590E+04
  4.11607E+04  1.31384E+04  2.87891E+04  2.59253E+04  1.45330E+04  3.06766E+04 -2.91428E+03  2.65976E+04
 -2.14836E+04  9.89417E+03 -1.39446E+04 -1.09871E+03  5.01713E+02 -8.30241E+03  2.00480E+04  1.17117E+04
  6.32717E+03  3.26676E+04 -3.20097E+04  3.21378E+04 -6.20019E+04  2.80694E+03 -5.68455E+04 -4.69521E+04
 -9.81414E+03 -6.29002E+04  4.03062E+04 -4.42570E+04  5.91301E+04 -9.09084E+02  3.14154E+04  3.53055E+04
 -8.45813E+03  3.59682E+04 -3.09418E+04  1.19504E+04 -2.97581E+04 -8.30476E+03 -1.79068E+04 -1.20956E+04
 -8.55552E+03 -1.03108E+04 -3.01475E+03 -1.87460E+04  2.91612E+03 -2.60550E+04  1.40530E+04 -9.45636E+03
  9.80356E+03  5.08652E+03 -5.39373E+03  1.59904E+04 -2.17268E+04 -1.96841E+03 -9.61610E+03 -3.35791E+04
  2.55730E+04 -4.14908E+04  4.52018E+04 -1.68083E+04  3.91431E+04  2.16722E+04  1.27666E+04  4.48178E+04
 -1.33717E+04  3.14571E+04 -2.04764E+04 -2.77567E+02 -7.22200E+03 -2.55035E+04  2.42836E+04 -3.07223E+04
  3.87467E+04 -1.32988E+04  3.33031E+04  2.42603E+04  2.18256E+04  4.64185E+04 -6.92641E+03  4.36285E+04
 -3.34656E+04  3.05558E+04 -3.67653E+04  9.11585E+03 -3.87308E+04 -1.63494E+04 -2.20231E+04 -3.38559E+04
  8.31515E+03 -3.66699E+04  2.90442E+04 -1.58739E+04  2.94726E+04  1.04768E+04  5.65629E+03  1.52616E+04
 -1.36296E+04  6.91306E+03 -9.26452E+03 -9.05469E+03  4.07722E+03 -7.47259E+03  1.65378E+04  3.70941E+03
  1.46911E+04  2.54336E+04 -5.64074E+03  2.71403E+04 -1.99683E+04  1.17309E+04 -2.17535E+04 -3.86838E+03
 -2.01502E+04 -1.45426E+04 -1.03230E+04 -2.25765E+04  2.52809E+03 -1.67701E+04  1.27832E+04 -1.44141E+04
  2.52280E+04 -1.11701E+04  2.61334E+04  2.34224E+03  2.21628E+04  1.88457E+04  6.98637E+03  3.56316E+04
 -1.24913E+04  2.52043E+04 -2.53972E+04  7.78943E+03 -2.02605E+04 -7.31678E+03 -2.74792E+03 -1.28839E+04
  1.17877E+03 -6.24490E+03  3.96397E+02  5.17957E+03 -1.64578E+04  2.63268E+03 -1.48105E+04 -4.05005E+03
 -7.01879E+03 -1.67714E+04  2.42888E+03 -2.18820E+04  1.69341E+04 -1.53720E+04  1.01965E+04 -5.12725E+03
  1.31054E+04  1.49417E+04  1.83940E+03  1.54425E+04 -1.23273E+04  9.91764E+03 -1.76244E+04 -6.43430E+03
 -1.00625E+04 -1.82531E+04  7.14037E+01 -2.10215E+04  1.19303E+04 -1.39183E+04  1.52870E+04 -5.77501E+03
  1.31810E+04 -8.41971E+02  1.18914E+04  1.50169E+03  5.93559E+03 -2.04504E+03  9.51690E+03 -3.05788E+03
  1.48763E+04  5.33153E+03  1.98789E+04  1.52372E+04  1.18855E+04  2.64074E+04 -2.16012E+03  2.93413E+04
 -1.50380E+04  2.33551E+04 -2.80232E+04  1.13347E+04 -2.82559E+04 -2.26937E+03 -2.23555E+04 -1.04442E+04
 -1.32061E+04 -2.66451E+04  7.33375E+03 -2.32597E+04  1.23782E+04 -1.39262E+04  1.66058E+04  9.77755E+03
  1.85508E+03  1.07600E+04 -5.39042E+03  1.49435E+04 -1.23512E+04  3.25547E+03 -1.15867E+04 -7.76908E+03
  2.49461E+02 -1.67929E+04  4.41619E+03 -1.14339E+04  1.04467E+04  7.06726E+02  2.84315E+03  7.29769E+03
 -4.82671E+03  7.51220E+02 -1.54782E+03 -6.91852E+03 -9.27102E+02 -1.05911E+04  7.76332E+03 -8.16795E+03
  1.47796E+04 -9.03711E+03  1.40809E+04  1.18886E+03  9.31089E+03  1.07803E+04  6.49572E+03  1.32486E+04
 -7.48722E+03  1.79247E+04 -8.49373E+03  1.03475E+04 -1.05811E+04  4.78485E+03 -1.14764E+04 -1.88424E+03
 -9.10331E+03 -1.74414E+03 -3.01798E+03  2.94445E+03 -2.31404E+03  3.28302E+03 -5.60004E+03  5.90965E+02
 -1.15045E+04 -1.14639E+02 -5.88730E+03 -5.06176E+03 -5.53658E+03 -1.13208E+04  5.53214E+03 -9.00101E+03
  5.33410E+03 -3.63439E+03  9.59978E+03  5.80984E+03  2.85162E+03  1.13457E+03 -2.55076E+03  1.75072E+03
 -3.53944E+03 -5.59808E+03 -1.69840E+03 -6.43890E+03  3.03944E+03 -1.12345E+04  6.60018E+03 -9.13325E+02
  1.49491E+04 -1.79652E+03  1.05145E+04  3.86656E+03 -6.06563E+02  1.04163E+04 -2.64348E+03  4.20892E+03
 -5.23813E+03  1.63283E+03 -2.55803E+03  6.28402E+02  4.84344E+03 -4.33434E+03  6.43611E+03  9.27594E+00
  4.47337E+03  7.09171E+03  6.62504E+02  8.32102E+03 -3.72458E+03  8.98127E+03 -9.00760E+03  4.41372E+03
 -4.12153E+03 -2.17058E+03 -2.19804E+03 -7.49575E+03  3.86777E+03 -2.99759E+03  1.24270E+03 -5.33164E+02
  4.67569E+03  3.41043E+03 -3.67804E+03  4.79880E+03  1.30925E+03  2.72783E+03 -8.34791E+03  1.50671E+03
 -1.49298E+03 -6.89658E+03 -7.27631E+02 -7.31332E+03  5.64397E+03 -2.12110E+03  1.02436E+04  4.58827E+03
  3.97916E+03  4.19019E+03 -2.18227E+03  6.80409E+03 -4.20939E+03  4.01788E+03 -8.77626E+03 -3.62659E+03
 -6.25977E+03 -5.09155E+03 -1.53039E+03 -3.86043E+03  5.14650E+03 -1.22056E+03  3.03782E+03 -2.95498E+03
  3.76663E+03  1.16170E+03  7.98042E+02 -9.49158E+02 -7.64171E+02 -2.83491E+03 -1.76520E+03 -2.43495E+03
  1.49440E+03  8.53833E+02  5.89397E+03  9.09451E+02  4.10128E+03  2.01567E+03  6.67439E+03  3.58263E+03
 -4.18873E+03  6.36581E+03 -1.37067E+04  9.12927E+03 -7.15975E+03  1.26455E+03 -9.47353E+03 -2.57017E+03
 -5.55015E+03 -5.22435E+03 -1.85838E+03 -1.82097E+03 -3.68784E+03 -1.29960E+03 -2.91377E+03  1.25818E+03
 -3.16157E+03  7.79862E+02  4.94635E+03 -1.21967E+02 -1.37506E+03  2.24367E+02  4.23550E+03  1.21740E+03
  6.88957E+03  4.15989E+03 -2.77966E+03  1.00836E+04 -4.99822E+03  2.86615E+03 -3.97651E+03  1.51157E+03
 -7.79483E+02 -1.34162E+02 -1.72013E+03 -2.31826E+03 -3.90491E+02 -4.12472E+03  5.43664E+03 -5.26923E+03
  4.29016E+03 -3.04968E+03  5.10537E+03  1.63724E+03  6.58573E+03  4.69377E+03  3.61295E+03  6.13983E+03
  1.40356E+03  4.20538E+03 -1.76554E+03  1.39617E+03 -4.68157E+03 -1.41170E+03 -2.71019E+03  5.88247E+03
 -1.58784E+03 -3.99448E+03  5.30437E+03  1.34807E+03  1.30578E+03  3.77855E+02 -8.52153E+03  2.85923E+02
  1.48646E+02 -2.87216E+03  4.21611E+03 -1.39035E+03  7.01571E+03 -3.48214E+03  3.46169E+03 -7.77308E+02
  3.88168E+03  3.87934E+03  4.29019E+03 -1.22713E+03  1.06958E+03  6.00836E+03 -1.05033E+03  5.33419E+03
 -3.24267E+03 -1.39486E+02 -5.56434E+03  1.80681E+02 -4.48295E+02 -3.89011E+03  3.66839E+03  1.28794E+03
  3.91906E+03  3.29056E+03  4.54177E+03  2.91661E+03  1.13138E+03  2.69810E+03  8.33385E+02  3.19595E+03
  3.29870E+03  1.73612E+03  2.32224E+03 -2.82216E+03  3.47601E+03 -2.33717E+02 -7.40878E+02  5.94791E+03
 -1.47596E+03  3.30717E+03 -9.40484E+03 -9.31466E+02  2.23433E+02 -3.39282E+02 -6.38551E+03  7.97936E+02
 -1.62804E+03 -1.38232E+03  3.60166E+03 -4.23898E+03  9.03825E+03 -2.03135E+03  4.06058E+03 -7.24884E+03
  2.15375E+03  5.06149E+03  2.09110E+03  2.78865E+03 -4.49490E+00  2.29060E+03 -9.20467E+02  3.19885E+03
 -2.11045E+03  7.89186E+02 -1.06269E+03 -1.55826E+03  2.46948E+03  3.64778E+03  7.58209E+02 -2.92644E+02
 -4.37020E+02 -2.17629E+03 -2.61014E+02 -3.54138E+03  5.18119E+02  8.41855E+02  5.24441E+03  3.74882E+02
  1.87747E+02 -3.31806E+03  4.72915E+03  8.21936E+02 -5.05397E+02  3.45417E+03 -1.12106E+03 -3.89318E+02
 -9.03959E+02  1.47063E+02 -4.24313E+03 -3.33607E+03 -2.58182E+03 -1.35331E+03  1.71099E+03 -2.54348E+03
 -2.73419E+03  2.30865E+03  2.95035E+03  4.36023E+03 -1.04207E+03  1.59145E+03 -1.63870E+03  7.08351E+03
  2.73588E+02  1.41471E+01 -2.57148E+03 -2.58060E+02 -6.42624E+02  9.12510E+02 -1.16291E+03 -3.11721E+03
 -5.52237E+03  6.27692E+02 -7.91619E+02 -2.77532E+02 -3.03627E+03 -2.43861E+03 -9.32658E+00  8.33631E+02
 -2.02990E+03  7.90320E+02 -3.34509E+03  1.06411E+03 -1.25811E+03  2.57588E+03  8.48265E+02  1.22762E+02
  8.06824E+02  2.44020E+03  4.78400E+03  5.75474E+03  3.43958E+03  1.79893E+03  3.08332E+03  3.77293E+03
 -3.00938E+03  2.70605E+03  5.69767E+02 -3.90262E+01 -2.18046E+03 -5.32637E+03  2.83908E+03 -1.27825E+03
 -1.15390E+03  1.45869E+03  3.13099E+01 -3.08132E+03 -1.51119E+03  4.09666E+03 -1.41875E+03  1.54615E+02
 -1.74474E+02  1.47486E+03 -2.89554E+03 -1.23488E+03  2.94915E+01  1.71139E+03 -2.33407E+03  4.53298E+03
 -1.66731E+03 -2.30212E+03 -4.58508E+02 -2.58117E+03 -5.95265E+02  6.50911E+02 -4.03200E+03  1.57244E+02
 -4.89417E+03 -3.22765E+03  4.88950E+03 -7.75565E+02 -2.91913E+03 -1.26580E+03  3.76912E+03  3.09389E+03
  5.11778E+03  1.72060E+03  4.47791E+03 -2.53515E+03 -2.04882E+03  2.66671E+03 -1.55572E+03 -2.25068E+02
 -1.99875E+03  3.30549E+03  9.38549E+02  3.27685E+03 -1.21234E+03  6.55837E+03  7.82326E+02  3.59533E+03
 -4.63297E+03  2.09859E+03  1.88018E+03 -2.63661E+03 -9.85865E+02 -3.06172E+03 -2.73227E+03 -1.42762E+03
  1.69343E+03 -9.18303E+01  3.06978E+03  9.54840E+00  5.34367E+02  2.37059E+03  1.53677E+03  2.74703E+03
 -1.18152E+03  5.58068E+03  2.60057E+03 -4.81973E+02 -2.60198E+03  2.87856E+03  4.15546E+02 -2.95378E+02
  3.54638E+03  1.18233E+03 -2.37958E+03 -3.96351E+03 -1.48352E+02  8.44131E+02 -6.18584E+02 -4.88144E+02
 -3.00951E+02  1.58677E+03 -1.97997E+02 -9.83334E+02  3.79481E+03 -3.11205E+03  2.02819E+03  4.85064E+03
  2.07136E+03 -9.07800E+02  2.07375E+02  1.71925E+03 -1.00476E+03  7.46894E+03  1.66691E+03  4.30633E+03
 -6.37604E+02  3.21962E+03 -1.29238E+03  1.65768E+02 -1.57913E+03  2.32803E+03  2.09762E+03 -5.23256E+02
  3.17504E+03  2.19630E+02 -1.71662E+03 -3.93648E+03  1.19794E+03 -6.83921E+03  1.06252E+03  3.89626E+03
  5.80400E+02  3.42652E+03  1.73829E+03  2.05830E+03  3.31173E+03  1.95668E+03  1.81577E+03 -3.13024E+03
 -5.52759E+01  4.38975E+03 -2.41448E+03  1.43938E+03  7.20722E+02  2.78830E+03 -5.16477E+03 -1.38988E+03
 -2.80492E+03  1.08120E+03 -3.76240E+03 -4.30197E+03  5.10001E+02  1.25167E+03  4.46560E+03  5.87370E+03
  9.79568E+02  2.65615E+03 -1.63504E+03  2.03092E+02 -2.40431E+03 -1.67597E+03 -1.03295E+03 -1.71357E+03
