 $NMID ID='MM_0lb_SNR50_17hz_g50_51.RAW', FMTDAT='(8E13.5)'
 TRAMP=1., VOLUME=1. $END
  3.08934E+05  2.97011E+03  3.38313E+05  2.50931E+05  8.38539E+04  3.36102E+05 -1.30503E+05  2.50925E+05
 -1.87836E+05  8.17035E+04 -1.07255E+05 -3.48091E+04  3.11438E+03 -4.94336E+04  5.30802E+04 -1.34759E+03
  3.66969E+04  5.54417E+04 -1.28127E+04  7.50997E+04 -6.34684E+04  6.28006E+04 -8.26633E+04  3.00390E+04
 -8.12294E+04 -1.15664E+04 -5.62715E+04 -5.46572E+04 -1.60713E+04 -6.42535E+04  2.35964E+04 -4.69676E+04
  3.79800E+04  9.28910E+03  1.84283E+04  4.73240E+04 -3.31441E+04  4.72930E+04 -6.09751E+04  3.07548E+03
 -5.36367E+04 -5.75065E+04 -6.92949E+03 -7.56444E+04  3.12823E+04 -5.54530E+04  4.77623E+04 -1.50337E+04
  4.49763E+04  1.50682E+04  3.35280E+04  2.44087E+04  1.25605E+04  3.33562E+04 -6.16819E+03  2.95883E+04
 -1.87938E+04  1.59187E+04 -1.58299E+04 -3.54170E+03  8.82545E+03 -6.72001E+03  2.80183E+04  1.41872E+04
  2.72877E+03  3.62050E+04 -3.64741E+04  3.63532E+04 -5.93400E+04  1.43989E+03 -6.11109E+04 -4.21485E+04
 -7.61669E+03 -6.42320E+04  3.83120E+04 -5.08267E+04  5.99438E+04 -7.30797E+02  3.03505E+04  2.73773E+04
 -6.76874E+03  3.47434E+04 -2.84236E+04  1.73110E+04 -2.98801E+04 -4.16165E+03 -1.49300E+04 -1.04057E+04
 -2.47915E+03 -1.19546E+04 -3.55312E+03 -1.80438E+04  9.85743E+03 -2.29392E+04  1.22662E+04 -1.27142E+04
  1.38066E+04  4.07209E+03 -8.79095E+03  1.18216E+04 -1.98862E+04 -5.64000E+03 -1.14849E+04 -3.34810E+04
  1.83389E+04 -4.26874E+04  4.87940E+04 -1.83395E+04  4.58388E+04  2.29461E+04  1.16948E+04  4.54112E+04
 -1.19759E+04  3.25529E+04 -2.05971E+04  1.27941E+03 -1.04357E+04 -3.00976E+04  1.60182E+04 -3.09189E+04
  3.81129E+04 -8.98200E+03  3.47528E+04  1.87303E+04  1.62855E+04  4.27209E+04 -9.92527E+03  4.81490E+04
 -2.93136E+04  2.66684E+04 -3.84549E+04  4.97263E+03 -4.06095E+04 -1.37966E+04 -2.12942E+04 -3.27676E+04
  5.39665E+03 -3.31382E+04  2.85467E+04 -1.21386E+04  2.32319E+04  1.55319E+04  2.50598E+03  1.83947E+04
 -1.50912E+04  6.29389E+03 -8.53302E+03 -5.07467E+03  7.01143E+03 -1.03620E+04  1.72699E+04  3.50514E+03
  1.61624E+04  2.35126E+04 -7.34773E+03  2.64267E+04 -2.20197E+04  1.46636E+04 -2.70676E+04 -8.15987E+03
 -1.63166E+04 -1.76598E+04 -3.86001E+03 -2.00832E+04  4.71288E+03 -2.11367E+04  9.74330E+03 -1.05831E+04
  2.09081E+04 -1.08276E+04  2.30065E+04  7.29186E+02  2.27776E+04  1.90520E+04  2.69188E+03  3.49546E+04
 -1.65864E+04  2.87072E+04 -2.42132E+04  9.78326E+03 -1.77306E+04 -1.24073E+04 -6.42851E+03 -1.13301E+04
  5.10506E+03 -4.47093E+03 -2.90447E+03  4.48154E+03 -1.64366E+04  1.86841E+03 -1.24387E+04 -1.01544E+04
 -2.95722E+03 -1.72617E+04  6.59045E+03 -2.20117E+04  1.55902E+04 -1.73885E+04  1.76157E+04 -7.78737E+02
  1.01861E+04  1.35056E+04  1.56350E+03  1.67720E+04 -1.25971E+04  7.26123E+03 -1.68960E+04 -3.29139E+03
 -1.16645E+04 -1.32468E+04  6.38628E+01 -2.28378E+04  1.11444E+04 -1.51120E+04  1.64611E+04 -8.63182E+03
  1.74261E+04 -1.44529E+02  1.23969E+04  2.21197E+03  5.88279E+03 -1.49388E+03  1.19971E+04  3.73220E+03
  1.49516E+04  3.19336E+03  1.64671E+04  1.58665E+04  1.10769E+04  3.05846E+04 -2.99864E+03  2.66882E+04
 -1.76146E+04  2.29517E+04 -2.68133E+04  5.90566E+03 -2.32840E+04 -5.49752E+03 -1.93760E+04 -1.39653E+04
 -1.35327E+04 -2.23379E+04  7.92497E+03 -2.28599E+04  1.63317E+04 -1.15116E+04  1.85584E+04  7.16577E+03
  9.00635E+03  1.47254E+04 -1.07389E+04  9.94200E+03 -1.38247E+04 -1.97282E+03 -1.14963E+04 -1.06716E+04
 -5.41086E+03 -1.19118E+04  5.52641E+03 -1.02966E+04  6.27636E+03 -2.98077E+03  1.23411E+03  6.79719E+03
 -4.53860E+03 -6.53990E+02 -6.62723E+03 -5.23019E+03 -1.68800E+03 -1.11656E+04  8.20362E+03 -1.34937E+04
  1.41536E+04 -2.90391E+03  2.16943E+04  6.25853E+03  9.12044E+03  7.64083E+03  5.77449E+03  1.80943E+04
  2.30724E+03  1.77610E+04 -1.02387E+04  1.28642E+04 -1.44942E+04  9.20479E+02 -7.35718E+03 -5.39005E+03
 -9.40902E+03 -6.29289E+03 -1.84011E+03  4.56912E+02 -1.10282E+03  3.82403E+03  3.74203E+02  5.65700E+03
 -1.01874E+04 -2.83769E+03 -1.28989E+04 -8.93735E+03 -7.53184E+03 -1.15842E+04  1.75484E+03 -9.46021E+03
  5.93613E+03 -5.29656E+03  3.27269E+03  5.53485E+03  2.60962E+02  2.95969E+03 -4.20359E+03 -3.81332E+03
 -5.66022E+03 -3.65296E+03  1.83036E+03 -1.03837E+04  6.41025E+03 -1.25940E+04  1.07395E+04 -5.87804E+03
  1.62943E+04 -2.32368E+02  1.21738E+04  6.35540E+03  6.89561E+03  1.23905E+04 -4.21146E+03  6.14331E+03
 -1.03716E+04  2.71837E+03 -2.34932E+03  2.55237E+03 -5.23272E+02  2.29350E+03  7.67115E+03  2.74413E+03
  2.18813E+03  5.11755E+03  2.27345E+03  6.88384E+03 -5.81093E+03  5.56203E+03 -5.66660E+03  3.28224E+02
 -5.05998E+03 -5.63196E+03  8.40292E+01 -4.44133E+03  3.62597E+03 -5.91111E+03  6.00509E+03  1.90252E+02
 -3.60984E+03  5.12282E+03 -2.42221E+03  4.92918E+03 -7.38636E+03 -2.28112E+03 -2.22964E+03 -2.62215E+03
 -2.93334E+03 -6.92444E+03  2.40143E+03 -7.76088E+03  6.39557E+03 -3.90314E+03  9.10633E+03  2.54712E+03
  5.11238E+03  2.81463E+03 -3.76469E+03  1.10223E+04 -4.21071E+03  3.00766E+03 -8.88355E+03 -3.37536E+03
 -5.88424E+03 -6.70923E+03 -6.73173E+02 -9.35933E+03  3.55069E+03 -5.58356E+03  4.63236E+03 -4.79469E+03
  3.50376E+03  1.68703E+03 -1.22385E+03  4.40262E+03  3.51736E+03  4.21011E+02  1.19593E+02  1.87755E+02
  3.21644E+03 -1.39217E+03  7.25254E+03 -1.79162E+03  1.14261E+04  9.89629E+03  4.04930E+03  7.32383E+03
 -2.15924E+02  1.05621E+04 -1.27385E+04  5.61169E+03 -1.40225E+04  3.97283E+03 -8.32867E+03 -6.97761E+03
 -5.27279E+03 -8.41361E+03  1.09458E+03 -4.39969E+03  4.64166E+03  3.88491E+03  1.92954E+03  1.00656E+03
  4.59819E+03 -3.66649E+03  1.88403E+03 -3.13401E+03  1.63997E+03  5.88905E+02  3.40341E+03  6.17690E+02
  9.13282E+02  4.35724E+03  2.85131E+03  2.50355E+03 -1.00717E+03  3.02387E+03 -7.03499E+02  2.60204E+03
 -8.56534E+03 -3.87321E+03 -3.82268E+03  1.66767E+03  8.24406E+02 -8.72391E+03  6.91493E+03 -8.75711E+03
  7.68000E+03 -9.79844E+03  1.52693E+04  3.43571E+02  5.28876E+03  5.84404E+03 -1.67662E+03  8.89034E+03
 -2.30209E+00  7.68146E+03 -7.25618E+03 -2.87368E+03 -4.54155E+03 -3.62502E+03 -4.74446E+03  4.92972E+02
  2.78221E+03 -9.98131E+02 -2.26553E+03 -4.53086E+03  2.07624E+03  6.13072E+02 -5.22754E+03  1.68653E+03
 -3.54281E+03 -4.32304E+03  3.64615E+02 -9.16482E+03  5.77007E+03 -4.14730E+03  2.95170E+03 -1.10268E+02
  5.28049E+03  3.30404E+03  9.26820E+02  7.95770E+03 -2.42006E+03  6.95732E+03 -7.91647E+03  1.08598E+03
 -5.20870E+03 -1.20958E+03 -8.13922E+03 -8.62166E+02 -2.92440E+03 -6.62802E+03 -2.24365E+03 -5.19065E+03
  4.82342E+03 -2.13770E+03  1.26289E+03  3.07351E+03  1.15682E+03  3.70803E+03  6.43507E+03  3.06465E+03
  4.76990E+03 -2.01966E+03 -6.21804E+03  4.42020E+03  4.96146E+03  1.97536E+03  4.52007E+03  3.88857E+03
 -2.05115E+03  4.07228E+03 -3.94549E+03  4.82260E+03 -4.52274E+03 -7.28240E+02 -5.17791E+03 -3.04343E+03
 -2.79516E+03 -7.50766E+03  9.11153E+02 -5.49009E+03 -4.58892E+02 -3.23827E+03  1.98715E+03  4.47157E+03
  6.30699E+03 -1.28662E+03  3.28832E+03  3.45059E+03  1.79889E+02  2.50243E+03 -1.17986E+03 -4.47675E+03
 -2.43579E+03 -2.36569E+03  2.32399E+03 -5.46496E+02  2.77416E+03 -4.53446E+03  5.58995E+03 -9.66410E+02
  2.18729E+03 -9.32805E+02  4.65517E+03 -3.36069E+03  4.68854E+01 -7.58844E+02  3.22145E+03  2.33758E+03
 -3.32175E+03 -1.91200E+03  4.64998E+03  2.95231E+03 -4.81811E+02  5.90052E+03 -2.33368E+02  3.38191E+03
 -3.33793E+03  6.75407E+02 -8.22016E+02 -1.02105E+03 -3.86631E+03 -1.35732E+03  2.36908E+02 -3.55867E+03
 -3.13903E+03 -1.06525E+03  4.51712E+02 -8.63723E+02  1.94622E+03  3.93942E+03 -1.06164E+03  3.60509E+03
  1.03510E+03 -6.25886E+03 -1.22750E+03 -1.68885E+03  1.46172E+03 -4.12702E+03  7.28538E+02 -1.74177E+03
 -2.64414E+03 -3.95199E+03  4.35671E+03  1.52948E+03  1.66483E+03 -1.34848E+03  1.27985E+02  3.14487E+03
 -3.09869E+03  4.09074E+03 -2.27944E+03  1.39634E+02 -3.74877E+03 -1.64292E+03  4.18702E+03  5.26267E+03
  4.77946E+03 -2.24295E+03  6.05260E+03 -2.75116E+02  2.20236E+03  2.32026E+03  1.46462E+03  4.35236E+03
 -3.72085E+03  1.59627E+03 -5.06740E+03 -3.02345E+02 -2.55733E+03  3.58469E+03  4.04631E+02 -2.48076E+03
  3.30296E+03 -4.18256E+02  4.56252E+03  7.28178E+02  5.55888E+03  7.07914E+03  2.07554E+03  2.91001E+03
  3.53505E+02  2.55328E+03 -3.94079E+03 -1.47933E+03 -9.95234E+02  4.04074E+02 -1.85617E+03  3.75211E+03
 -1.43056E+03  5.29555E+02 -4.58354E+03  1.18527E+03  4.15210E+03 -1.22377E+02 -2.93323E+03 -3.08013E+03
  1.18953E+03 -2.60476E+03  6.00272E+03 -4.63653E+03  3.51788E+03 -1.17835E+02  1.13174E+03 -4.10625E+03
  4.51628E+03 -2.47811E+02 -1.89435E+03  2.55521E+03 -7.17508E+02  4.55987E+03  3.14916E+03  1.99174E+03
 -4.25313E+03  1.35961E+03  7.27005E+02 -1.56834E+03  1.52330E+03  1.93614E+02 -1.15344E+03 -2.86640E+03
 -2.45123E+03  5.35152E+02  3.72850E+03 -8.05375E+02  8.56811E+02 -9.41428E+02 -1.53604E+03 -4.22422E+03
 -7.05077E+01 -2.25036E+03  2.14803E+03 -8.00203E+01  3.15199E+02  6.76788E+03  4.30313E+03  1.39594E+03
 -1.41767E+03 -3.14777E+03 -2.61045E+03 -1.44389E+03 -2.27147E+03  6.91803E+02 -3.90131E+03  7.61533E+02
  1.49002E+03  2.63238E+03  3.94395E+03 -4.58690E+03  6.63513E+02  1.20206E+03  1.17437E+03  3.24255E+03
 -2.79609E+03  2.82746E+01  2.35918E+03  1.27791E+03  1.31647E+03  1.75388E+03  3.05404E+03 -4.98483E+03
  5.63682E+02 -5.00219E+03 -3.32818E+03 -2.71528E+02  5.35412E+03  2.35978E+03  1.70621E+03  3.02852E+02
 -5.64948E+03  3.40903E+03 -4.70335E+02  4.48887E+03 -3.58216E+03 -1.95306E+03 -1.64420E+03  3.23185E+02
  1.44983E+03  1.36075E+03  2.13997E+03  1.79226E+03 -1.34820E+03 -8.86123E+02 -5.67431E+02  1.15763E+03
  4.09392E+01  4.37580E+03 -4.05465E+03 -1.18995E+03  3.56580E+02  1.16465E+03 -5.73511E+03 -3.22701E+03
 -1.03443E+03 -2.14358E+02 -3.78520E+03 -5.96024E+02 -3.20396E+03 -1.17944E+02 -9.50499E+02  2.29560E+03
  1.60440E+02  6.35559E+02  1.18555E+03 -7.02808E+02 -2.41404E+03 -1.19437E+02 -3.64036E+03  2.59267E+03
  2.46454E+03  1.72104E+02 -3.09663E+03  8.18822E+02  2.25545E+01 -1.68435E+03  2.36073E+03  1.34353E+03
