 $NMID ID='MM_0lb_SNR50_10hz_g40_4.RAW', FMTDAT='(8E13.5)'
 TRAMP=1., VOLUME=1. $END
  3.01615E+05  3.84632E+03  3.43632E+05  2.41111E+05  8.66515E+04  3.33332E+05 -1.32104E+05  2.48065E+05
 -1.90590E+05  8.42139E+04 -1.14766E+05 -3.17979E+04  6.89248E+02 -5.10068E+04  5.15470E+04 -4.80692E+02
  3.53630E+04  5.04948E+04 -1.67468E+04  7.12444E+04 -6.72803E+04  6.15131E+04 -8.59603E+04  2.76496E+04
 -8.04481E+04 -1.06909E+04 -5.65742E+04 -5.29179E+04 -1.74833E+04 -7.21795E+04  3.24163E+04 -4.41770E+04
  4.06869E+04  3.53276E+03  9.12504E+03  4.46419E+04 -3.37313E+04  4.93435E+04 -6.83721E+04  6.88755E+02
 -5.62850E+04 -5.61834E+04 -8.17348E+03 -8.29922E+04  3.91870E+04 -5.84919E+04  4.80383E+04 -1.66562E+04
  4.71414E+04  1.68177E+04  2.93914E+04  2.82192E+04  1.59699E+04  3.16322E+04 -4.92646E+03  2.94975E+04
 -2.77501E+04  1.42528E+04 -1.57719E+04 -9.78196E+03  5.93065E+03 -4.68183E+03  1.81126E+04  1.53028E+04
  9.96415E+03  3.63430E+04 -2.92456E+04  3.88007E+04 -6.25143E+04  1.94931E+03 -5.83826E+04 -4.68646E+04
 -1.12269E+04 -6.64396E+04  4.36260E+04 -5.00150E+04  5.97943E+04 -7.05494E+03  3.51028E+04  3.27029E+04
 -1.62531E+03  3.57335E+04 -3.01324E+04  1.66705E+04 -3.46361E+04 -4.24005E+03 -2.22390E+04 -1.49183E+04
 -1.10704E+04 -1.46666E+04 -2.94848E+03 -2.10178E+04  6.04401E+03 -2.31764E+04  1.58889E+04 -1.32706E+04
  1.43317E+04  2.89257E+03 -8.26672E+03  6.82241E+03 -2.38214E+04 -2.72908E+03 -9.39255E+03 -3.69970E+04
  3.02475E+04 -4.27910E+04  5.19157E+04 -2.26438E+04  4.45455E+04  1.37872E+04  1.38528E+04  4.29552E+04
 -1.66624E+04  3.49872E+04 -2.37655E+04  3.27820E+03 -6.47535E+03 -3.43717E+04  2.69276E+04 -3.72130E+04
  4.31472E+04 -1.60937E+04  3.97619E+04  2.47368E+04  2.18054E+04  5.73224E+04 -4.05563E+03  5.79087E+04
 -4.20646E+04  3.03453E+04 -4.72460E+04  6.64483E+03 -5.14245E+04 -1.84006E+04 -2.74231E+04 -3.85513E+04
  5.57506E+03 -3.54916E+04  3.01148E+04 -1.55668E+04  2.92983E+04  1.19927E+04  8.11272E+03  2.51342E+04
 -1.17430E+04  5.61176E+03 -1.46630E+04 -7.41985E+03  9.97324E+03 -9.80944E+03  2.01719E+04  7.04535E+03
  1.31005E+04  1.69004E+04 -7.33129E+03  1.99425E+04 -2.52185E+04  1.26515E+04 -2.90458E+04 -1.12375E+04
 -2.38867E+04 -1.66542E+04 -1.51816E+04 -2.41530E+04  3.46493E+03 -2.18592E+04  2.58486E+04 -2.50770E+04
  3.17663E+04 -1.60775E+04  3.44049E+04  8.10514E+03  2.27023E+04  2.72810E+04  5.26713E+03  3.76901E+04
 -1.87779E+04  3.05012E+04 -3.42784E+04  1.04490E+04 -1.45860E+04 -8.11795E+03 -3.17587E+03 -1.55265E+04
 -1.28017E+03  2.86210E+03 -6.01159E+03  8.00440E+03 -1.63303E+04  2.15532E+03 -1.79659E+04 -1.47779E+04
 -1.21596E+04 -2.20113E+04  3.78209E+03 -2.08815E+04  1.96214E+04 -1.93039E+04  2.14669E+04 -2.39643E+03
  1.25351E+04  1.21805E+04  1.18787E+03  1.58230E+04 -1.47799E+04  1.24826E+04 -2.20891E+04 -5.09309E+03
 -1.48975E+04 -1.87887E+04  1.03514E+03 -3.02118E+04  6.70970E+03 -2.50896E+04  1.95964E+04 -8.97138E+03
  1.92733E+04 -4.13511E+02  1.51988E+04  5.30000E+03  9.71489E+03  7.68607E+02  1.08504E+04 -6.70605E+03
  1.82293E+04  2.85303E+03  1.90755E+04  1.30133E+04  2.04255E+04  2.89291E+04 -2.69221E+03  4.15103E+04
 -2.18886E+04  3.52821E+04 -3.68435E+04  1.50863E+04 -4.42547E+04 -2.20068E+03 -3.31796E+04 -2.30942E+04
 -1.08878E+04 -3.61139E+04  1.22541E+04 -2.57025E+04  1.47015E+04 -9.89593E+03  2.41252E+04  3.59111E+03
  8.57999E+03  1.66933E+04 -7.48350E+03  1.45530E+04 -1.79293E+04  1.16394E+03 -9.76805E+03 -9.99123E+03
 -6.47728E+03 -2.26782E+04  1.13591E+04 -1.39800E+04  1.29579E+04 -7.22122E+02 -1.99138E+03  1.12276E+04
 -1.36444E+04  1.62675E+03 -1.01710E+04 -3.94951E+03  1.04986E+03 -1.41306E+04  1.56882E+04 -1.93044E+04
  1.70485E+04 -5.24514E+03  2.00417E+04  2.47564E+03  1.77365E+04  1.45068E+04  9.92445E+03  2.62710E+04
 -4.14347E+03  2.76446E+04 -1.66392E+04  1.54011E+04 -2.20061E+04  2.37765E+03 -9.31613E+03 -6.60091E+03
 -2.62026E+03 -1.16153E+04  8.50945E+02 -5.28717E+03 -4.59407E+03  3.64263E+03 -5.66830E+03  3.51131E+03
 -1.18733E+04  1.04392E+03 -9.30356E+03 -1.16958E+04 -1.82667E+03 -2.18436E+04  4.37611E+03 -1.30726E+04
  1.64189E+04 -2.12082E+03  1.32247E+04 -1.00085E+03 -3.89286E+03  9.93954E+03 -9.50295E+03 -5.93210E+03
 -5.53473E+03 -1.42357E+04 -6.15673E+02 -9.68996E+03  7.48257E+03 -1.20177E+04  1.21909E+04 -3.24522E+03
  2.00685E+04  3.76986E+03  2.10650E+04  1.98464E+04  4.56246E+03  1.81939E+04 -9.79909E+03  1.73242E+04
 -8.31218E+03  6.97925E+03 -6.69404E+03  9.00008E+02  4.86446E+02 -3.05708E+02  1.16789E+04 -2.33726E+03
  3.18141E+03  4.72112E+03  1.27351E+03  8.64925E+03 -3.96004E+03  5.98467E+03 -1.80848E+04 -5.98476E+03
 -9.41080E+03 -5.99648E+03 -4.02277E+03 -1.15247E+04  8.03998E+03 -7.73738E+02  1.06285E+04  6.82593E+03
  4.15348E+03  8.08547E+03 -1.06941E+04  1.12599E+04 -1.27064E+04  2.97911E+03 -1.50013E+04 -4.16708E+03
 -4.06461E+03 -1.62333E+04  3.78002E+03 -1.76252E+04  1.31399E+04 -9.40694E+03  1.58956E+04 -1.06730E+03
  1.24514E+04  1.05599E+04 -4.00901E+03  1.77676E+04 -1.36301E+04  1.14809E+04 -7.82890E+03 -1.26837E+03
 -6.21000E+03 -8.43766E+03  1.63020E+03 -8.75896E+03  5.87989E+03 -1.02021E+04  3.54532E+03 -1.61666E+03
  6.52525E+03  1.24224E+02  3.59701E+03  3.87082E+01  6.53130E+03 -4.24264E+03  2.45776E+03 -4.06533E+03
  1.46534E+04 -8.03172E+03  1.31369E+04  5.39744E+03  1.13577E+04  5.74502E+03  1.02510E+04  1.89190E+04
 -4.47075E+03  2.52650E+04 -9.04542E+03  1.37928E+04 -2.02142E+04  2.87128E+03 -1.86734E+04 -6.99421E+03
 -1.65061E+04 -1.09432E+04  2.54205E+03 -9.43669E+03  3.54842E+03 -4.21292E+03  8.65367E+03 -4.68900E+03
 -7.85873E+02 -4.30446E+03  1.23967E+04 -6.05406E+03  3.74723E+03 -2.75693E+03  3.41099E+03 -1.74256E+03
  1.10494E+04  5.00144E+03  7.82684E+03  1.35785E+04 -3.32552E+03  7.62476E+03 -7.17688E+03  6.82468E+03
 -1.24827E+04 -2.72245E+03 -7.28050E+03 -6.69999E+03  3.90147E+03 -1.52127E+04  1.06334E+04 -1.59600E+04
  6.87434E+03 -6.72216E+03  2.05795E+04  1.57474E+03  1.07565E+04  6.21110E+03  6.45125E+03  1.44509E+04
 -5.40287E+03  1.39978E+04 -5.00894E+03  8.97634E+03 -7.81852E+03 -3.11154E+03  2.43635E+03  8.09202E+02
  6.45673E+03 -4.02543E+03 -2.97130E+03 -2.09014E+03 -7.30522E+03 -7.55109E+01 -1.14632E+04 -8.99114E+02
 -1.06469E+04 -8.73754E+03 -1.62671E+03 -1.52668E+04  1.12693E+04 -8.66352E+03  1.74903E+04 -5.48924E+03
  1.45540E+04  1.01314E+04  3.17561E+03  9.35007E+03 -1.96967E+03  8.60889E+03 -7.51572E+03  3.36403E+03
 -1.55341E+04 -5.99486E+03 -9.01786E+03 -6.97478E+03  2.82131E+03 -9.04676E+03  4.80887E+02 -9.09331E+03
  9.72903E+03  1.86161E+03  3.36065E+03  2.44546E+03  1.28569E+03  1.75033E+03  2.38913E+03 -4.30226E+03
 -3.34741E+03  3.16733E+03  1.58077E+03 -2.70291E+03  2.88234E+03  8.78415E+03  6.21747E+03  1.29340E+03
 -7.94083E+02  5.48560E+03 -7.93926E+03  9.89564E+03 -1.38785E+04  4.82948E+02 -1.16488E+04 -1.28873E+03
 -3.03668E+03 -1.16256E+04  4.92596E+02 -1.60839E+04  8.33859E+03 -3.54708E+03  1.06998E+04 -1.02751E+03
  9.45217E+03  2.12779E+03  4.59410E+03  2.75261E+03  2.32144E+03  5.05628E+03 -6.19023E+03 -3.58375E+02
  2.64585E+02 -5.16887E+03  1.59120E+03 -9.49253E+02  6.23171E+03 -1.80030E+03 -5.60471E+02  6.97438E+03
  4.97645E+03  7.74982E+03  3.01803E+02  8.05717E+03  1.13763E+03  3.48128E+03  5.56719E+03 -8.33003E+03
 -8.69681E+02 -6.68860E+02  7.03242E+03 -2.98809E+03  6.35872E+03  6.04796E+03 -2.34936E+02  1.23945E+04
 -5.79987E+03  4.04693E+03 -6.21048E+03  9.03383E+03 -1.17828E+04  2.46849E+02  5.13935E+03 -6.04532E+03
 -8.59161E+02 -1.60625E+03  7.24721E+03 -6.63063E+03  1.30324E+03 -4.09522E+03 -2.78462E+03  1.42466E+03
 -3.15774E+03  7.73294E+03 -4.25423E+03 -5.94489E+03  3.42125E+03 -6.62235E+03  5.03387E+03 -5.34843E+03
  7.72646E+03 -5.60933E+03  7.72975E+03 -7.73088E+02  4.74323E+01  6.56855E+03 -1.82386E+03  6.71091E+03
  1.10396E+03  4.43934E+02 -4.35896E+03 -3.67175E+03 -4.25700E+03 -5.86739E+03  8.38217E+03 -7.33479E+03
  1.03398E+04  2.63432E+03  7.93793E+03  5.29141E+03  7.47301E+02  6.67880E+03 -5.34011E+03  6.90804E+03
 -4.72638E+03 -1.40450E+03 -7.52068E+03 -2.15654E+01 -5.00870E+03 -8.06820E+03 -1.47220E+03 -2.44937E+03
  8.16032E+03 -2.18661E+03  6.97338E+03  3.49820E+03  5.73646E+02  4.89987E+03 -6.64345E+02  3.95583E+03
 -2.82639E+03  4.54516E+03 -4.36594E+03 -3.00574E+03 -5.97790E+03  5.04619E+03  1.33610E+03  3.64937E+03
 -1.26003E+03  2.78884E+03 -7.92228E+03  4.35979E+03 -1.08711E+04 -2.36069E+03 -8.90310E+03 -4.71690E+03
 -6.63208E+03 -1.59133E+04  3.22491E+03 -1.20656E+04  1.00237E+04 -6.19600E+03  1.44063E+04 -6.76533E+03
  8.34115E+03  2.02142E+03  1.01453E+04  1.04843E+04 -3.60281E+03  1.22219E+04 -7.77058E+03  2.56222E+03
 -5.33451E+03  2.33874E+03 -1.28168E+03 -4.32016E+03 -3.87366E+03 -4.73878E+03 -7.39469E+03  8.48278E+03
 -2.71587E+03 -4.88198E+03 -4.76833E+03 -2.04960E+03  2.48060E+03 -2.35131E+03  3.73336E+03 -1.37874E+03
  2.72620E+03 -5.23438E+03  8.79447E+03  4.10556E+03  6.56103E+03  5.58664E+03  4.42601E+03  1.10398E+04
 -3.80139E+03  7.19420E+03 -4.80236E+03  7.88054E+03 -1.36179E+04  4.89079E+02 -1.31984E+04 -1.21985E+04
 -9.29151E+03 -1.11761E+04  3.51744E+03 -7.78825E+03  3.77732E+03 -5.91924E+03  7.88876E+03  1.53523E+03
  1.20738E+03  4.99956E+03 -1.00122E+02 -9.34656E+01  3.05711E+03 -1.57570E+03  9.34107E+03 -3.53902E+02
  3.33087E+03 -3.31862E+03  4.09274E+02 -1.00747E+03  3.24899E+03  6.00464E+03 -2.72310E+03 -1.09031E+03
  3.71040E+03  4.76823E+03 -7.43292E+03 -1.08530E+03 -8.24293E+03 -5.37394E+03  8.34785E+02 -6.27787E+03
  4.27792E+03 -5.91766E+03  6.07657E+03 -1.92317E+03  6.51493E+03  5.16869E+03  2.53345E+03  1.16470E+04
  4.25035E+03  8.68514E+03 -5.96660E+03  3.60925E+03 -5.41769E+03  9.46660E+03 -3.85122E+03  5.06665E+03
  9.32623E+02  2.54889E+03 -7.25280E+03 -5.83988E+03 -3.07587E+03  4.01878E+03 -5.85036E+03  3.60515E+03
 -2.88146E+03  3.03980E+03  3.44896E+03 -4.17957E+03 -1.85985E+02 -4.69133E+03  1.79554E+03 -7.00206E+03
  7.24503E+03  7.97238E+02  2.31735E+03  5.85334E+03  9.29914E+02  5.70095E+03 -5.34928E+03  3.12795E+03
