 $NMID ID='MM_0lb_SNR50_8hz_g45_1.RAW', FMTDAT='(8E13.5)'
 TRAMP=1., VOLUME=1. $END
  3.09582E+05 -4.91022E+03  3.38020E+05  2.47335E+05  8.75925E+04  3.45755E+05 -1.24549E+05  2.51367E+05
 -1.89598E+05  8.61513E+04 -1.07572E+05 -3.04622E+04 -4.38309E+03 -5.07203E+04  4.66786E+04 -4.15895E+03
  3.77038E+04  5.06146E+04 -2.05040E+04  7.99171E+04 -6.24949E+04  6.45905E+04 -8.89853E+04  2.96909E+04
 -8.68363E+04 -1.38654E+04 -5.74915E+04 -5.56629E+04 -1.49159E+04 -6.81223E+04  2.51403E+04 -4.76964E+04
  4.41327E+04  2.62004E+03  8.02343E+03  4.88352E+04 -3.48864E+04  5.25479E+04 -6.65842E+04 -2.52328E+03
 -5.53847E+04 -5.27694E+04 -8.00452E+03 -7.92960E+04  2.91788E+04 -5.65876E+04  5.59682E+04 -1.55364E+04
  5.19838E+04  1.12651E+04  3.49282E+04  2.52699E+04  1.79032E+04  2.93715E+04 -2.69671E+03  3.12311E+04
 -2.25219E+04  1.08644E+04 -2.10952E+04 -5.08353E+03  7.57415E+02 -9.96925E+03  2.45811E+04  1.00443E+04
  3.41996E+03  3.56560E+04 -3.50266E+04  3.65844E+04 -6.10657E+04  3.09065E+02 -6.56957E+04 -4.46893E+04
 -1.49079E+04 -6.27921E+04  4.22258E+04 -5.17852E+04  6.43597E+04 -1.34330E+03  3.97048E+04  3.32167E+04
 -6.47017E+03  4.14667E+04 -3.85396E+04  1.87630E+04 -3.58773E+04 -6.93972E+03 -2.13116E+04 -1.45969E+04
 -8.87248E+03 -1.48935E+04 -2.29674E+03 -2.57613E+04  4.81467E+03 -2.24564E+04  1.57326E+04 -1.32637E+04
  1.40680E+04  3.89407E+03 -1.02966E+04  1.01909E+04 -2.04012E+04 -3.17679E+03 -9.65107E+03 -4.22663E+04
  2.96436E+04 -5.71584E+04  4.78797E+04 -1.56717E+04  5.03054E+04  2.40579E+04  1.97215E+04  4.55600E+04
 -1.59799E+04  3.47299E+04 -2.57864E+04  7.43489E+03 -1.47077E+04 -3.54499E+04  2.00153E+04 -4.19101E+04
  4.81232E+04 -1.46607E+04  4.00290E+04  2.90535E+04  2.18533E+04  5.19546E+04 -7.58960E+03  5.78595E+04
 -4.45481E+04  4.15988E+04 -4.87769E+04  1.49321E+04 -4.68594E+04 -2.13759E+04 -2.68629E+04 -4.23874E+04
  1.12046E+04 -4.41125E+04  3.62018E+04 -1.40872E+04  3.48955E+04  5.19697E+03  8.61229E+03  2.27599E+04
 -1.37836E+04  1.14808E+04 -1.64470E+04  1.75498E+02  8.97926E+03 -1.23747E+04  1.23364E+04  4.87650E+03
  1.38290E+04  2.44001E+04 -4.32865E+03  3.18440E+04 -2.18579E+04  1.88165E+04 -2.97050E+04  8.53486E+02
 -2.10947E+04 -1.94865E+04 -8.44127E+03 -2.71103E+04  1.12841E+04 -2.36820E+04  2.19795E+04 -1.99098E+04
  3.83575E+04 -8.33544E+03  3.71904E+04  3.89895E+03  3.00748E+04  2.70977E+04  5.62118E+02  3.85862E+04
 -2.04339E+04  2.94363E+04 -2.93809E+04  1.41050E+04 -1.97414E+04 -1.71264E+04  1.99232E+03 -1.14046E+04
 -2.33011E+03  1.04666E+01 -4.56707E+03  1.17672E+04 -1.59388E+04 -3.40794E+03 -2.24450E+04 -9.06882E+03
 -1.21156E+04 -2.65504E+04  3.48285E+03 -2.49785E+04  2.26846E+04 -1.43114E+04  2.37179E+04 -3.85604E+03
  2.15453E+04  1.65873E+04 -3.39656E+03  2.05434E+04 -1.85391E+04  8.76883E+03 -2.93394E+04 -8.02942E+03
 -1.40899E+04 -2.68405E+04 -4.68660E+02 -2.85476E+04  8.05649E+03 -2.86335E+04  2.11863E+04 -1.10359E+04
  2.54210E+04  6.38851E+02  1.26515E+04  7.64754E+03  9.01324E+03  2.79712E+03  8.70206E+03 -5.72203E+03
  2.09885E+04 -3.01607E+02  2.50746E+04  1.22517E+04  2.09114E+04  3.26380E+04  1.14315E+03  4.39389E+04
 -2.09784E+04  4.17375E+04 -4.38624E+04  1.96390E+04 -4.38900E+04 -4.23537E+03 -3.98582E+04 -2.78516E+04
 -1.10739E+04 -3.82952E+04  1.49199E+04 -3.65741E+04  3.24224E+04 -1.42715E+04  2.34708E+04  7.76145E+03
  5.21980E+03  1.78508E+04 -8.21950E+03  1.57336E+04 -2.09707E+04 -1.18777E+03 -1.40611E+04 -1.75301E+04
  2.72058E+03 -2.04431E+04  9.59405E+03 -8.54442E+03  1.56358E+04 -3.31253E+02  9.69013E+03  1.65020E+04
 -8.38127E+03  7.88170E+03 -6.15271E+03 -5.74012E+03 -4.57869E+03 -2.26522E+04  2.14768E+04 -1.48243E+04
  1.97789E+04 -1.77136E+04  3.26938E+04  3.76083E+03  2.59295E+04  2.76510E+04  1.40339E+04  3.79711E+04
 -3.95059E+03  3.71650E+04 -2.89233E+04  2.20890E+04 -2.72886E+04  4.70108E+03 -2.02456E+04 -9.40636E+03
 -7.04122E+03 -1.86195E+03 -2.20742E+03  3.46838E+03  1.07460E+03  1.46194E+03 -1.18579E+04  5.41616E+03
 -1.14368E+04  4.74376E+03 -1.60051E+04 -1.23481E+04 -6.98460E+03 -1.30562E+04  6.75705E+03 -1.20185E+04
  1.83471E+04 -2.51696E+03  1.39772E+04  4.65804E+03  1.39777E+03  7.01733E+03 -9.59236E+03  1.65964E+03
 -7.95693E+03 -1.75194E+04  2.15506E+03 -1.86738E+04  1.43957E+04 -1.44796E+04  2.31185E+04 -1.12796E+04
  2.38478E+04  7.98010E+03  2.81171E+04  8.83269E+03 -5.20967E+03  1.98889E+04 -1.57858E+04  1.72208E+04
 -1.41036E+04  7.63313E+03 -7.96707E+03  1.39732E+03  3.90943E+03 -6.37067E+03  9.93376E+03 -2.23368E+03
  7.30027E+03  1.05891E+04  8.15090E+02  1.77017E+04 -1.30343E+04  1.52364E+04 -1.37048E+04  6.16033E+03
 -1.20794E+04 -1.20734E+04  6.14753E+03 -1.52760E+04  1.23259E+04 -1.13900E+04  1.16993E+04  1.03511E+04
  3.91603E+03  8.07427E+03 -1.22868E+04  9.62165E+03 -1.29878E+04  1.58543E+03 -2.13782E+04 -9.32716E+03
 -4.34348E+03 -1.46313E+04  3.59556E+03 -1.55132E+04  1.65623E+04 -1.64288E+04  2.13001E+04  4.56293E+03
  1.48833E+04  1.60378E+04  1.90411E+03  1.10941E+04 -1.08968E+04  1.50221E+04 -2.01504E+04 -8.40277E+03
 -1.29256E+04 -7.19196E+03 -4.37190E+03 -1.00483E+04  5.64815E+03 -1.59804E+04  1.23375E+04 -2.02204E+03
  2.02294E+03  4.34526E+03  5.50835E+03 -1.75321E+03  4.16892E+03 -6.32690E+03  6.94293E+03 -6.37681E+03
  4.36814E+03 -9.25527E+03  2.07243E+04  4.22447E+03  1.60754E+04  1.16447E+04  1.61882E+04  2.61393E+04
 -6.33398E+03  2.10730E+04 -1.44985E+04  1.78536E+04 -3.08016E+04  7.75259E+03 -2.69123E+04 -1.35296E+04
 -1.48267E+04 -1.04291E+04  3.47768E+03 -1.43646E+04  1.17978E+04 -9.29610E+03  6.90676E+03 -2.44526E+03
  5.00582E+03 -1.40052E+03  3.14895E+03 -5.43373E+02  1.70544E+04 -6.72093E+03  8.82012E+03 -1.06783E+04
  1.14296E+04  4.96615E+03  9.84054E+03  1.73657E+04 -6.84026E+03  1.03207E+04 -1.38375E+04  1.16260E+04
 -1.83806E+04 -2.87451E+03 -1.33603E+04 -1.30135E+04 -3.15827E+03 -2.13011E+04  9.33302E+03 -1.12163E+04
  2.27102E+04 -1.09666E+04  2.34228E+04  7.97223E+03  2.06843E+04  1.43094E+04 -3.89215E+03  1.39365E+04
 -1.06428E+04  1.72062E+04 -1.14320E+04  3.69821E+03 -1.28341E+04  2.28532E+03 -4.75129E+03 -1.11593E+04
 -5.03794E+03 -3.30281E+03 -5.27940E+03  3.01511E+03 -2.72429E+03  7.88900E+03 -7.36805E+03 -4.78497E+03
 -7.68234E+03 -1.09604E+04 -6.79203E+03 -1.55843E+04  1.20398E+04 -8.05527E+03  1.07574E+04 -5.31039E+03
  1.91940E+04  9.71378E+03  1.05094E+04  1.65341E+04 -1.61023E+03  1.74884E+04 -1.06588E+04  1.57816E+04
 -2.11234E+04 -4.34496E+03 -3.55595E+03 -7.31477E+03  5.29953E+02 -8.85969E+03  7.79498E+03 -1.39620E+04
  1.38812E+04  1.57703E+03  5.36896E+03  4.92141E+03  4.96101E+03  5.21079E+03  1.55315E+03  8.11280E+02
  3.96371E+03  5.95946E+03  3.85393E+03 -1.51421E+03  7.38497E+03  8.37462E+03 -3.60711E+03  5.83708E+03
  4.08623E+03  1.26176E+04 -1.61166E+04  1.91424E+04 -1.87919E+04  8.52805E+02 -1.36937E+04 -1.00573E+04
 -9.93170E+03 -1.35314E+04 -2.46045E+03 -2.15595E+04  6.08100E+03 -1.63982E+04  1.40719E+04 -1.85701E+01
  1.23369E+04  4.65674E+03 -5.25212E+02  9.74953E+03  1.22446E+02  3.54047E+03 -6.86255E+03 -5.38660E+03
 -6.35743E+03 -5.66844E+03  3.93470E+03 -4.30944E+03  1.52173E+03  4.51307E+03  5.78468E+03 -4.78899E+03
  4.87701E+03 -7.07940E+02  1.41216E+03  7.03091E+03  7.01138E+03  2.02415E+03 -2.00495E+03  8.07329E+02
 -1.09588E+03  1.98756E+00  4.56226E+03  2.33452E+02  7.48800E+03  8.68102E+03 -7.88258E+03  8.89304E+03
 -5.35397E+03  9.51046E+03 -8.81923E+03 -2.57196E+03 -9.21883E+03 -2.25456E+01 -5.72591E+03 -7.29874E+03
  2.99187E+03 -6.86067E+03  9.61615E+03  4.10491E+02 -1.09611E+03  1.05303E+04 -2.33590E+03  8.36473E+03
 -7.34841E+03 -1.19308E+03 -1.27648E+04 -1.29996E+04 -3.97254E+01 -1.32866E+04 -2.32274E+03 -9.11762E+03
  7.51581E+03 -1.86309E+03  1.30358E+04  1.73738E+03  1.31391E+04  3.68587E+03 -4.80243E+03 -9.19214E+02
 -6.93000E+03  4.61861E+03 -1.00669E+04 -7.77219E+03  8.91423E+03 -3.47901E+03  7.67064E+03 -6.87782E+03
  1.06616E+04 -2.45327E+03  9.93514E+03  7.86600E+03  5.00154E+03  7.33141E+03 -6.93077E+03  6.92229E+03
 -1.35944E+04  5.21600E+03 -7.86910E+03 -2.83950E+03  1.08466E+03 -4.61693E+03  3.45877E+03 -3.57292E+03
  3.00687E+03 -1.76932E+03  1.25792E+04 -8.21028E+02  7.71764E+03  1.19763E+04 -2.69367E+03  9.21620E+03
 -1.01166E+04  2.25952E+03 -1.39700E+01  1.83949E+03 -7.54823E+03  3.24853E+03 -5.74427E+03 -2.55065E+02
 -3.03044E+03  6.65565E+03 -4.62680E+03  1.04191E+04 -1.37709E+04  5.44560E+02 -1.55711E+04 -6.93034E+03
 -4.04493E+03 -1.10271E+04  3.00932E+03 -1.26002E+04  1.24422E+04 -6.70952E+03  1.88856E+04 -5.48685E+02
  1.19938E+04  9.88562E+03  1.36797E+04  1.61388E+04  5.43656E+03  1.08315E+04 -6.62556E+03  7.72285E+03
 -6.61830E+03  4.68816E+03  1.65661E+03  1.65152E+02  3.46290E+03 -3.85418E+03 -4.96377E+03 -3.68410E+03
 -2.70401E+02  4.15737E+03  2.82970E+03 -1.50640E+03  9.40628E+03 -1.09063E+03  6.69859E+02 -4.41974E+03
 -1.36425E+03 -4.56478E+03  5.82295E+03  1.85583E+03  4.18769E+03  6.79850E+03  2.66498E+03  1.23904E+04
 -3.49123E+03  1.08281E+04 -1.56334E+04  8.15268E+03 -1.52693E+04 -4.65035E+03 -9.46835E+03 -4.56192E+03
 -1.03882E+03 -1.64633E+04  5.46120E+03 -3.93513E+03  8.70701E+03 -4.49418E+03  4.33435E+03  1.92520E+03
  3.17751E+03  6.49335E+03  2.83825E+03  9.45058E+02 -7.67287E+03  1.72858E+02 -1.50766E+03 -2.00413E+03
  1.10780E+04  9.53130E+02  5.29462E+03  5.16916E+03  2.12835E+03  2.65678E+02 -2.37532E+02  7.55430E+03
 -1.32784E+04  3.85993E+03 -9.48581E+03  5.54697E+03 -1.22294E+04 -5.19815E+03  7.42316E+02 -6.88871E+03
  1.20785E+04 -6.50846E+03  6.65144E+03 -2.63784E+03  8.39801E+03  1.08892E+04  5.96552E+03  1.21607E+04
  1.50509E+03  4.17174E+03 -8.76786E+03  3.73146E+02 -1.25221E+04  5.78221E+03 -7.36654E+02  2.08123E+03
  4.29272E+02 -9.17865E+02 -2.04739E+03 -2.46607E+03 -1.03452E+04  8.22776E+03 -2.91564E+03 -1.04205E+03
 -6.40869E+03 -3.09072E+03  7.33686E+03 -1.57704E+04  5.43569E+02 -1.15873E+04  8.40438E+03 -2.68254E+03
  3.47667E+03  7.47662E+02  6.61147E+03  1.31782E+04 -2.49649E+03  7.31961E+03 -7.11066E+03 -2.34104E+03
