 $NMID ID='MM_0lb_SNR50_10hz_g40_83.RAW', FMTDAT='(8E13.5)'
 TRAMP=1., VOLUME=1. $END
  3.10076E+05  3.40386E+03  3.37150E+05  2.49640E+05  7.78065E+04  3.40566E+05 -1.33216E+05  2.47817E+05
 -1.90010E+05  8.56794E+04 -1.05725E+05 -3.64303E+04  4.23053E+03 -4.26553E+04  5.27850E+04 -2.47319E+03
  3.69889E+04  5.48790E+04 -1.47868E+04  7.46692E+04 -6.41854E+04  6.81740E+04 -8.42442E+04  3.50716E+04
 -7.75733E+04 -5.75264E+03 -5.88695E+04 -5.40144E+04 -1.27676E+04 -7.48722E+04  3.09190E+04 -4.44946E+04
  4.00159E+04 -8.28272E+02  1.40672E+04  4.40682E+04 -3.37949E+04  4.68513E+04 -6.32678E+04 -1.82930E+02
 -5.45293E+04 -5.06170E+04 -4.95475E+03 -8.30802E+04  3.26475E+04 -5.53368E+04  5.02909E+04 -1.47446E+04
  4.44332E+04  9.99841E+03  3.00404E+04  2.61194E+04  1.74503E+04  3.07034E+04 -6.23965E+03  2.14623E+04
 -1.84213E+04  1.55524E+04 -2.13817E+04 -2.16251E+03  1.06385E+03 -1.31949E+04  2.11127E+04  1.40086E+04
  5.24773E+03  3.71529E+04 -3.24622E+04  3.12009E+04 -6.16224E+04  2.03528E+03 -5.70591E+04 -4.28321E+04
 -1.74216E+04 -6.58204E+04  3.69802E+04 -4.93914E+04  6.14532E+04 -5.56100E+03  3.90473E+04  3.26431E+04
 -5.94800E+03  3.66812E+04 -3.21608E+04  1.76368E+04 -3.17232E+04 -4.46312E+03 -2.03719E+04 -8.47580E+03
 -8.41135E+03 -1.35072E+04  2.86635E+03 -2.15502E+04  6.29979E+03 -2.00537E+04  1.06509E+04 -9.67962E+03
  1.70064E+04  3.67387E+03 -9.67266E+03  1.33094E+04 -2.11615E+04 -1.19210E+04 -8.46680E+03 -3.51501E+04
  1.89131E+04 -4.20844E+04  4.72125E+04 -2.04400E+04  4.54292E+04  1.67105E+04  1.62424E+04  4.43602E+04
 -1.36789E+04  3.50850E+04 -2.46133E+04  4.61131E+03 -1.72262E+04 -2.59360E+04  1.91269E+04 -3.85686E+04
  4.34708E+04 -1.22460E+04  3.98238E+04  1.95687E+04  1.85208E+04  5.25757E+04 -9.70746E+03  5.25150E+04
 -2.83186E+04  4.23370E+04 -4.15075E+04  1.15473E+04 -4.25482E+04 -1.41259E+04 -2.85772E+04 -4.43866E+04
  4.11448E+03 -3.45569E+04  3.35651E+04 -1.46100E+04  2.93236E+04  1.26945E+04 -1.58342E+03  2.22148E+04
 -1.27006E+04  1.04572E+04 -1.44621E+04 -1.28906E+04  2.76940E+03 -1.16047E+04  1.90808E+04  5.12926E+03
  1.50330E+04  1.96265E+04  2.48496E+02  2.40689E+04 -2.54691E+04  1.38202E+04 -2.76479E+04 -4.33952E+03
 -1.91709E+04 -1.53339E+04 -1.06127E+04 -2.84087E+04  3.31675E+03 -2.79276E+04  1.68495E+04 -2.10491E+04
  2.40573E+04 -1.57252E+04  3.41241E+04  6.77294E+03  2.26729E+04  2.23933E+04  4.37528E+03  4.06872E+04
 -1.57159E+04  2.46458E+04 -2.66325E+04  1.38809E+04 -2.58933E+04 -1.62135E+04 -5.59531E+03 -1.02798E+04
 -2.49123E+03 -5.65167E+02 -4.51717E+03  1.35517E+04 -2.17794E+04  4.39700E+03 -1.65945E+04 -7.62237E+03
 -1.27467E+04 -2.69348E+04  7.67335E+03 -3.17061E+04  1.50627E+04 -1.79120E+04  2.07805E+04 -2.93812E+03
  4.42757E+03  1.02690E+04 -2.89145E+03  2.01856E+04 -1.20106E+04  1.49441E+04 -2.07023E+04 -4.45660E+03
 -2.09858E+04 -1.80427E+04 -6.00558E+03 -1.94972E+04  1.37670E+04 -2.33756E+04  2.21068E+04 -9.71055E+03
  1.73765E+04 -2.22468E+03  1.37340E+04  3.27332E+03  9.88200E+03  8.27902E+03  1.12675E+04 -4.14905E+02
  2.00924E+04 -9.14407E+02  1.61374E+04  1.48035E+04  1.33627E+04  3.10231E+04 -4.03722E+03  4.03073E+04
 -2.27359E+04  3.25608E+04 -3.72818E+04  1.40915E+04 -4.46367E+04 -5.12354E+03 -3.22066E+04 -2.48733E+04
 -1.54922E+04 -3.26557E+04  1.33582E+04 -3.14980E+04  2.40439E+04 -9.55348E+03  2.26092E+04  1.17397E+04
  5.29719E+03  1.67157E+04 -7.28156E+03  1.59901E+04 -1.70031E+04  4.49580E+02 -1.35911E+04 -1.24302E+04
  2.11151E+03 -1.98335E+04  7.85842E+03 -6.93677E+03  3.98786E+03 -3.65820E+03  5.30815E+03  8.11118E+03
 -8.19363E+03  3.46788E+03 -3.64960E+03 -9.49461E+03  4.29867E+03 -2.19178E+04  1.20701E+04 -2.32243E+04
  2.23964E+04 -7.50671E+03  2.28168E+04 -3.33009E+03  2.57467E+04  1.63526E+04  3.91706E+03  2.26085E+04
 -7.17438E+03  2.54492E+04 -2.57710E+04  1.10826E+04 -1.93869E+04  3.47864E+03 -1.42695E+04 -1.11931E+04
 -7.35928E+03 -9.61858E+03  4.31539E+03 -7.44743E+02  2.30236E+03  8.57800E+02 -5.94169E+03  8.92762E+03
 -1.96886E+04 -2.25768E+03 -8.54327E+03 -1.16245E+04 -1.52195E+03 -1.75117E+04  5.86154E+03 -1.40904E+04
  1.88494E+04 -4.25304E+03  1.24746E+04  3.57463E+03  1.72031E+03  3.63181E+03 -5.53171E+03 -4.29090E+03
 -5.15670E+03 -8.30712E+03  6.33865E+03 -1.55306E+04  1.21360E+04 -1.70647E+04  1.74181E+04 -1.50151E+03
  1.80883E+04  3.64245E+03  1.78958E+04  1.16776E+04 -3.30803E+03  1.98944E+04 -1.51993E+04  1.40609E+04
 -9.46243E+03  3.68348E+03 -8.13190E+03 -6.70071E+03  4.00094E+03 -9.43049E+02  5.71814E+03 -6.11158E+02
  6.11793E+03  4.84969E+03 -1.86886E+03  7.27006E+03 -4.61379E+03  7.29767E+03 -1.04889E+04  4.03933E+03
 -5.05180E+03 -1.03341E+04 -3.35187E+03 -1.05837E+04  9.80912E+03 -1.35350E+04  7.98983E+03  1.40064E+03
  3.19916E+03  6.57386E+03 -6.75992E+03  6.63103E+03 -1.30479E+04  7.88347E+03 -1.24037E+04 -9.21695E+03
 -7.57472E+03 -1.76228E+04  1.51064E+03 -1.40760E+04  1.40967E+04 -1.29328E+04  1.59823E+04  3.43420E+03
  1.49886E+04  1.29315E+04  2.44527E+03  1.57305E+04 -1.00244E+04  1.78715E+03 -1.18507E+04  1.58360E+03
 -1.52406E+04 -5.87121E+03 -4.85026E+03 -1.05258E+04  7.53265E+03 -8.36469E+03  1.27664E+04 -2.99721E+03
  2.40177E+03 -1.93450E+03  9.32524E+02 -6.42810E+03  1.17288E+03 -4.69970E+03 -2.59427E+02 -4.51710E+03
  1.51035E+04 -1.61172E+03  8.11440E+03  4.22622E+03  1.31899E+04  9.61080E+03  9.20485E+03  1.92919E+04
 -4.40905E+03  1.86935E+04 -1.39511E+04  1.21909E+04 -2.35515E+04  6.41157E+03 -1.83578E+04 -1.14252E+04
 -7.44681E+03 -1.52274E+04  8.81830E+02 -9.53987E+03  4.69607E+03 -7.29900E+03  5.28482E+03  3.38619E+02
  2.42522E+03 -3.28931E+03 -2.45547E+03 -1.70333E+03  8.86426E+03  1.72816E+03  2.90181E+03 -8.69595E+03
  8.39675E+03  5.47984E+03  7.69385E+03  5.84089E+03 -3.55983E+02  1.66315E+04 -1.20987E+04  7.09551E+03
 -1.51326E+04 -1.31683E+03 -1.30097E+04 -2.07468E+03  1.59776E+03 -1.58625E+04  3.24868E+03 -1.04306E+04
  1.22446E+04 -7.92148E+03  2.05785E+04  9.41849E+01  1.20280E+04  1.00422E+04 -1.74735E+03  1.54639E+04
 -1.16075E+04  1.33404E+04 -1.40645E+04  7.02029E+03 -6.50385E+03 -1.58507E+03  3.30509E+02 -4.54334E+03
 -2.71057E+03 -3.90447E+03 -3.90210E+03 -1.24714E+03 -3.49198E+03  2.70554E+03 -7.31111E+03  8.52091E+03
 -5.22504E+03 -5.18942E+03  2.84685E+02 -1.42068E+04  1.17162E+04 -1.24557E+04  1.41710E+04 -4.32727E+03
  1.33766E+04  1.36491E+04  2.16338E+03  6.32929E+03 -7.01259E+03  7.42779E+03 -6.35410E+03  8.56118E+03
 -3.25779E+03 -3.45920E+02 -1.03503E+04 -7.56958E+03 -7.80465E+03 -7.85620E+03 -1.17545E+03 -9.68590E+03
  2.14378E+03 -7.57340E+02  3.62599E+03 -3.83154E+03 -1.76863E+03  3.08601E+03  1.13454E+03  4.20667E+03
  4.91371E+03 -9.30908E+02  3.37835E+02  1.97148E+03  3.55753E+03  5.31429E+03  4.76406E+03  8.66433E+03
  4.06745E+02  8.65669E+03 -1.21068E+04  1.34792E+04 -1.18106E+04  8.81128E+03 -5.00408E+03 -9.66558E+03
 -3.08688E+03 -1.51352E+04  6.73185E+03 -1.51887E+04  6.08530E+03 -8.10725E+03  1.44013E+04 -6.91829E+03
  1.04215E+04  2.92218E+03  4.46649E+03  4.35277E+03  6.33258E+01  7.57783E+03 -4.62188E+03 -6.13729E+03
 -6.22789E+02 -7.51388E+03  6.98572E+03 -9.06407E+02  8.78736E+03  4.82733E+02  1.08215E+04  5.05392E+02
  8.89437E+03  7.21550E+02 -2.32997E+03  2.83767E+03  4.08259E+03  5.13189E+03  2.18782E+03 -1.06292E+03
  1.29558E+03 -2.47502E+02  4.99569E+03  3.94008E+02 -2.16474E+03  7.45277E+03  2.63865E+03  1.08834E+04
 -5.99840E+03  5.55825E+03 -4.38290E+03 -5.92472E+03 -1.21261E+04 -1.37955E+03 -3.16599E+03 -8.91529E+02
  3.99197E+03 -3.34442E+03  1.47299E+02 -4.83189E+03  7.65585E+03  1.28429E+03 -7.11524E+03  4.05212E+03
 -5.51376E+03  4.70450E+03 -6.15021E+03 -2.04774E+03 -1.00772E+04 -8.06147E+03 -1.42890E+03 -7.47565E+03
  6.55367E+03 -3.73439E+03  3.00907E+03  2.40207E+03  8.53624E+03 -1.63244E+03  3.61249E+02  5.31379E+03
 -6.40868E+03 -8.41316E+02 -3.46050E+03 -9.29384E+03 -9.54233E+02 -4.63633E+02  4.18970E+03 -2.61435E+03
  1.26977E+04 -6.91168E+02  9.32533E+03  6.98077E+03  1.62487E+03  1.13885E+03 -1.11396E+04  7.49418E+03
 -1.13253E+04  6.03834E+03 -6.84591E+03  1.97612E+03  8.37820E+01 -2.76091E+03  5.44865E+03 -4.49608E+03
  9.60527E+03 -3.65335E+02  3.89852E+02  1.15704E+03  2.11345E+03  7.44662E+03 -9.30812E+02  2.70337E+03
 -2.75241E+03  5.48932E+03 -1.88723E+03  5.10892E+02  8.85349E+02 -5.62122E+03 -1.79008E+03  7.54563E+02
  1.42403E+03  6.50810E+02 -1.10560E+04 -9.65081E+02 -7.98945E+03 -7.49777E+02 -1.09527E+04 -2.09665E+03
 -1.02301E+03 -1.04192E+04  3.58736E+03 -1.55969E+04  1.08157E+04 -8.88306E+03  1.62894E+04 -4.91571E+03
  1.23463E+04  4.12419E+03  8.74117E+03  1.74655E+03  4.20790E+03  9.02002E+03 -2.60705E+03  8.57904E+03
 -9.85949E+03  7.61145E+03 -5.72943E+03 -1.39838E+03 -8.69426E+02 -3.53976E+03  4.33739E+02 -4.27614E+02
 -4.37784E+03  2.23700E+03 -5.00746E+03 -1.63748E+03 -8.70532E+03  2.65832E+03  4.01735E+02 -1.44848E+03
  4.16539E+03 -5.81906E+03  7.66044E+03  9.06156E+02  9.43030E+03  5.66592E+03  7.23704E+02  1.23568E+04
  8.57358E+02  8.48212E+03 -8.80312E+03  1.32920E+04 -7.59953E+03 -1.97388E+03 -1.03053E+04 -1.18067E+04
 -1.89150E+03 -5.07528E+03  1.66897E+03 -1.41285E+04 -1.52367E+02 -1.53694E+03  3.09125E+03  3.18733E+03
  9.97042E+02 -1.95300E+03  9.26915E+01  4.18907E+03 -2.04168E+03  4.99786E+03  6.97071E+03  2.31982E+03
  3.97820E+03 -1.11126E+03  2.23455E+03  2.57067E+03 -8.02901E+02 -8.37648E+02  1.01067E+02 -6.95882E+02
 -3.33114E+03 -1.92647E+03 -3.34061E+03  9.40621E+01 -3.72355E+03 -7.02008E+03  2.80996E+03 -8.99434E+03
  3.14796E+02 -6.74783E+02  7.79494E+03 -7.49701E+03  3.43535E+03  5.67921E+03  2.93794E+02  5.17692E+03
  4.00157E+03  8.41020E+03  6.09914E+03  3.74371E+03 -4.05992E+03  3.23678E+03  2.14565E+03 -2.01118E+03
 -3.47296E+03 -5.83203E+03 -5.46509E+03  8.84919E+02  2.54233E+03 -3.58537E+03 -2.86740E+03 -9.52445E+02
 -1.81767E+03 -1.61076E+03 -1.47590E+03 -9.98854E+03  5.85362E+03 -8.74645E+03  6.34912E+03 -2.33002E+03
  7.56405E+03  2.92154E+02  1.80117E+03  4.95876E+03 -2.84681E+03  5.97821E+03 -1.70758E+03  3.79958E+03
