 $NMID ID='MM_0lb_SNR50_7hz_g55_9.RAW', FMTDAT='(8E13.5)'
 TRAMP=1., VOLUME=1. $END
  3.11301E+05  2.30229E+03  3.39708E+05  2.50729E+05  7.84753E+04  3.33782E+05 -1.38390E+05  2.51263E+05
 -1.93360E+05  8.13009E+04 -1.12596E+05 -3.23454E+04  7.50920E+02 -5.23706E+04  5.45490E+04 -3.60937E+03
  3.47958E+04  5.35980E+04 -1.94056E+04  6.81254E+04 -6.51042E+04  6.56488E+04 -8.48168E+04  2.53642E+04
 -7.94556E+04 -2.14188E+04 -5.75749E+04 -6.29918E+04 -1.61344E+04 -6.90173E+04  2.59031E+04 -4.57038E+04
  4.36872E+04  2.62360E+03  1.30379E+04  5.51968E+04 -4.04429E+04  4.72680E+04 -7.25677E+04  1.29377E+03
 -5.23576E+04 -6.62071E+04 -1.78138E+04 -7.25326E+04  3.46945E+04 -6.62966E+04  4.60024E+04 -2.00908E+04
  4.92368E+04  6.53205E+03  3.44931E+04  3.04815E+04  1.52803E+04  2.87564E+04 -1.04023E+04  3.16416E+04
 -2.52783E+04  1.90653E+04 -2.22030E+04 -1.08575E+04  1.46082E+04 -1.45385E+04  3.00551E+04  1.09876E+04
  5.03437E+03  4.01046E+04 -4.25085E+04  3.93099E+04 -6.76055E+04 -2.68494E+03 -6.29463E+04 -4.65610E+04
 -8.54235E+03 -7.20445E+04  4.63135E+04 -4.61145E+04  6.32147E+04 -6.24361E+03  3.86822E+04  3.21423E+04
 -2.45983E+03  4.64494E+04 -3.37500E+04  2.09719E+04 -3.57589E+04 -6.32056E+03 -2.27429E+04 -5.45351E+03
 -7.75874E+03 -1.10863E+04 -5.36931E+03 -1.59717E+04  7.86987E+03 -2.54857E+04  1.37691E+04 -1.31887E+04
  1.38779E+04  6.23711E+03 -1.13276E+04  1.09689E+04 -2.43092E+04 -3.41851E+03 -1.41445E+04 -4.26340E+04
  2.90968E+04 -4.63778E+04  5.38971E+04 -3.03842E+04  5.75896E+04  2.80118E+04  2.14393E+04  5.16483E+04
 -2.71777E+04  4.19979E+04 -2.95057E+04  3.61440E+03 -1.55378E+04 -3.54571E+04  1.62854E+04 -3.81632E+04
  4.28235E+04 -1.45535E+04  3.68079E+04  3.00335E+04  2.56862E+04  5.29253E+04 -1.45935E+04  5.69632E+04
 -3.28966E+04  4.72689E+04 -5.85890E+04  9.67319E+03 -6.02454E+04 -2.47017E+04 -2.68592E+04 -3.65950E+04
  5.06313E+01 -5.02980E+04  3.07932E+04 -1.33609E+04  2.97186E+04  1.32432E+04  1.02265E+04  1.75879E+04
 -1.56852E+04  1.39687E+04 -1.67013E+04 -1.13845E+04  5.78086E+03 -1.39771E+04  1.37703E+04  1.94198E+03
  1.91286E+04  3.02605E+04  4.44299E+03  2.74260E+04 -2.20023E+04  1.54040E+04 -3.67120E+04  8.24757E+02
 -2.60663E+04 -2.35770E+04 -1.16655E+04 -3.53557E+04  1.17155E+04 -2.95273E+04  1.84334E+04 -1.97721E+04
  3.34229E+04 -1.66387E+04  3.79728E+04 -5.58428E+02  2.30814E+04  2.62808E+04  3.71886E+03  5.07725E+04
 -2.52682E+04  3.87365E+04 -3.50141E+04  9.95897E+03 -2.62806E+04 -1.08824E+04 -1.44166E+04 -1.73579E+04
 -3.28402E+03  3.52933E+03 -7.45781E+03  1.50406E+04 -1.93464E+04  8.54619E+03 -2.27640E+04 -1.91290E+04
 -1.76130E+04 -3.15643E+04  2.21737E+03 -3.70189E+04  1.55441E+04 -1.78180E+04  2.71020E+04  9.64463E+02
  1.95997E+04  1.66022E+04 -7.08759E+02  2.77640E+04 -2.05683E+04  1.85767E+04 -2.68472E+04 -1.88183E+03
 -2.57971E+04 -2.00376E+04 -6.04746E+03 -2.23336E+04  6.02593E+03 -2.61907E+04  2.23899E+04 -1.47527E+04
  3.27429E+04 -5.58813E+03  1.50759E+04  7.49065E+03  1.08696E+04 -2.67977E+03  1.77625E+04 -2.77407E+03
  2.49085E+04  1.54684E+03  3.18211E+04  1.39555E+04  2.45479E+04  4.45309E+04 -6.13596E+03  5.06573E+04
 -2.25185E+04  3.69698E+04 -4.68219E+04  2.26358E+04 -4.74485E+04 -5.18975E+03 -3.98124E+04 -3.07279E+04
 -1.65604E+04 -4.17958E+04  1.08587E+04 -3.43473E+04  3.44958E+04 -2.01016E+04  2.23911E+04  4.87831E+03
  3.62814E+03  1.47193E+04 -1.37651E+04  1.82926E+04 -1.67799E+04  1.33832E+04 -1.96018E+04 -6.37528E+03
 -6.89268E+03 -2.44646E+04  1.34263E+04 -2.99524E+04  1.12715E+04  9.48176E+02  1.07741E+04  1.30230E+04
 -1.37784E+04  6.98641E+02 -9.12261E+03  1.44056E+02  2.53286E+03 -1.68323E+04  9.64658E+03 -1.88393E+04
  2.38148E+04 -1.63852E+04  2.97646E+04  2.43093E+03  2.39044E+04  2.23525E+04  1.36010E+04  3.05930E+04
 -6.15632E+03  3.58411E+04 -2.90536E+04  2.03629E+04 -3.07627E+04  1.13205E+04 -2.16818E+04 -8.49477E+03
 -1.38681E+04 -7.75113E+01 -2.80216E+02  2.23982E+03  2.09613E+03  2.46085E+03 -3.41329E+03  4.55186E+03
 -8.75050E+03 -3.54745E+03 -2.38608E+04 -1.01225E+04 -4.38405E+03 -2.12187E+04  6.79109E+03 -2.30940E+04
  1.30498E+04 -7.03716E+03  9.91618E+03  1.40275E+04  2.12546E+02  4.87891E+03 -8.27021E+03 -1.57969E+03
 -1.01982E+04 -1.49937E+04  2.34139E+03 -1.56083E+04  1.04148E+04 -1.75610E+04  2.47250E+04 -1.29302E+04
  2.65990E+04  3.84958E+03  3.02565E+04  2.10940E+04 -1.89187E+03  2.04925E+04 -1.59161E+04  2.11170E+04
 -1.67981E+04 -1.75758E+03 -4.50269E+03 -5.74666E+03  6.97423E+03  2.86206E+02  1.16018E+04 -3.76764E+03
  1.72868E+04  6.68935E+03 -3.94212E+02  1.74358E+04 -1.50846E+04  5.75883E+03 -1.61524E+04  1.33751E+04
 -9.08850E+03 -1.42565E+04 -3.33657E+03 -4.56318E+03  1.01779E+04 -2.33098E+03  1.65096E+04  6.64633E+03
  8.50590E+03  1.19763E+04 -1.51410E+04  1.55997E+04 -2.56826E+04  1.55297E+04 -1.03940E+04 -5.00821E+03
 -1.77565E+04 -1.55916E+04  7.82637E+03 -1.80657E+04  1.91404E+04 -1.78512E+04  2.10452E+04  5.75061E+03
  1.10867E+04  1.76621E+04 -3.52843E+03  1.88592E+04 -1.36683E+04  8.40360E+03 -9.61850E+03 -3.07757E+03
 -1.25190E+04 -1.09653E+04 -5.13569E+03 -1.29684E+04  9.36642E+03 -1.17954E+04  1.16411E+04  7.00070E+02
  1.05238E+04  5.34301E+03 -1.32445E+03  1.09383E+03 -7.50792E+02 -2.74686E+03  6.65864E+03 -4.30896E+03
  1.23630E+04 -1.03743E+04  1.58366E+04  4.19112E+03  2.30329E+04  1.56228E+04  1.25269E+04  3.19083E+04
 -1.05072E+04  3.73360E+04 -2.84256E+04  2.51647E+04 -3.81590E+04 -1.30643E+03 -1.94255E+04 -8.95675E+03
 -1.59834E+04 -2.42584E+04 -1.57519E+02 -2.84168E+04  6.22768E+03 -7.47682E+03  1.19079E+03 -1.23161E+04
  8.46004E+03 -3.41496E+03  9.95806E+03  5.11418E+03  4.98592E+03 -1.07622E+04  9.38003E+03 -2.22785E+03
  1.61055E+04 -2.48701E+01  6.18398E+03  9.67145E+03 -4.54909E+03  1.77477E+04 -7.07716E+03  9.41660E+03
 -1.54075E+04 -2.47390E+03 -1.95891E+04 -1.25851E+04  3.88197E+02 -1.27147E+04  1.10958E+04 -1.77834E+04
  2.19295E+04 -9.84614E+02  1.82032E+04 -1.65056E+03  1.84526E+04  1.78207E+04 -4.21992E+03  1.86734E+04
 -1.94492E+04  1.61949E+04 -9.09264E+03  1.11469E+04 -8.04139E+03  4.32909E+03 -1.00327E+04 -2.87265E+03
 -1.82432E+03 -4.33330E+03 -3.89091E+03 -2.59740E+03 -1.35900E+04  5.39449E+03 -2.01011E+04 -2.73039E+03
 -7.76861E+03 -8.61051E+03 -5.84111E+02 -2.04086E+04  1.19074E+04 -1.94276E+04  2.96181E+04 -7.02648E+03
  2.01024E+04  1.19884E+04  8.24485E+03  2.00461E+04 -5.34724E+03  1.50247E+04 -9.91824E+03  1.24325E+04
 -2.23653E+04  4.79342E+03 -7.16572E+03 -1.03265E+04 -2.40159E+03 -1.45231E+04  1.37880E+04 -8.06862E+03
  6.65244E+03 -1.15726E+04  1.45993E+04  4.11813E+02  4.13841E+03  9.37185E+02  6.13357E+03  5.38289E+03
  8.11632E+03  7.59025E+02  4.03162E+03  3.01925E+03  3.06276E+03  1.12504E+04  8.64244E+03  1.12929E+04
  3.37840E+03  1.09031E+04 -1.06616E+04  9.46165E+03 -2.59308E+04  5.19309E+03 -1.27168E+04 -6.68793E+03
 -7.79341E+03 -1.90428E+04 -1.85299E+03 -2.15926E+04  1.58754E+04 -1.20864E+04  7.52859E+03 -9.53286E+03
  1.17056E+04  1.03079E+04  4.85713E+03  9.86746E+03 -9.37585E+03  1.44745E+04 -7.75483E+03  1.24389E+03
 -4.44910E+03 -9.57435E+03  2.20798E+03 -6.39541E+03  4.43137E+03 -1.09168E+04  3.44038E+03  1.65811E+03
  8.25221E+00  4.11259E+02  5.33413E+03 -1.69145E+02 -2.34185E+03 -9.67155E+02 -5.08384E+03 -2.13056E+03
  8.87807E+03 -8.17151E+03  5.21067E+03  7.88939E+02  1.79317E+03  6.22054E+03  9.46012E+02  1.98123E+04
 -6.95748E+03  1.53165E+04 -1.43602E+04  2.92386E+03 -2.25306E+03 -1.06993E+03 -9.96403E+03 -4.35493E+03
 -1.90637E+03 -6.00281E+03  9.95744E+02 -8.86414E+03  2.80356E+03  6.11648E+03 -6.52617E+03  9.91666E+03
 -1.28099E+04  4.39938E+03 -4.14642E+03 -4.31921E+03 -9.26052E+03 -9.12534E+03  8.78895E+02 -9.92959E+03
  9.58002E+03 -1.04175E+04  1.77357E+04 -1.50912E+03  8.31489E+03  9.11367E+03  8.97988E+03  4.01845E+03
  2.44797E+03  2.12080E+03 -5.05159E+03 -6.66971E+03 -2.51032E+03 -8.66172E+03  8.30266E+03 -1.08059E+04
  1.16011E+04  6.85287E+02  1.40846E+04  5.00239E+03  7.97178E+02  1.57581E+04 -5.95108E+03  1.76516E+04
 -8.55770E+03  3.64223E+03 -1.76256E+04 -8.14128E+03 -9.89499E+03 -9.89919E+03 -1.51669E+03 -1.30214E+04
  1.09351E+04 -3.86440E+03  9.00209E+03 -2.45638E+03  8.28704E+02  1.05741E+04 -4.47050E+03  1.20993E+04
 -6.82841E+03  3.40480E+02 -1.16766E+04  2.11921E+03 -6.81827E+03  2.14027E+03 -8.90161E+03  3.18020E+03
 -4.72963E+03  1.38901E+04 -7.28491E+03 -2.01781E+03 -2.01267E+04  4.21354E+03 -1.37692E+04 -9.57291E+03
 -2.24232E+03 -2.33245E+04  5.35144E+02 -2.23201E+04  4.89042E+03 -1.71725E+04  1.74419E+04 -5.02306E+03
  2.09593E+04  6.47400E+03  1.38157E+04  2.02439E+04  5.96290E+03  1.75706E+04 -1.16221E+04  8.99485E+03
 -8.85009E+03  5.56336E+03 -2.21821E+03 -8.39340E+02 -5.23286E+03 -4.86103E+03  3.56049E+01 -3.99041E+03
  3.02114E+03  5.56337E+03 -7.90647E+03  4.25040E+03 -6.04860E+03 -5.73766E+03  1.76501E+03 -7.23400E+03
  1.14958E+04 -1.17577E+03  1.38781E+04  5.65422E+02  5.60721E+03  4.68383E+03 -8.93236E+02  1.13030E+04
 -1.16026E+04  1.38048E+04 -1.52710E+04  1.59561E+04 -2.67085E+04 -4.02757E+03 -1.10334E+04 -1.22072E+04
  1.17119E+03 -1.86890E+04  3.98424E+03 -1.41317E+04  1.27907E+04 -7.43448E+03  1.26904E+04 -1.03918E+03
  1.15037E+04  5.32419E+03  4.01527E+03  3.46224E+03  6.65927E+03 -1.25558E+04  8.50533E+02 -3.59644E+03
  3.69048E+03 -3.11804E+01  4.55104E+03 -1.17401E+03  7.53206E+03  4.13521E+03 -1.00095E+03  5.95025E+03
 -1.08195E+04  1.17463E+03 -1.41789E+04  7.13631E+03 -9.86856E+03 -4.13482E+03 -1.44268E+03 -6.84186E+03
  1.11329E+04 -9.79687E+03  1.34780E+04 -3.72212E+03  9.32209E+03  8.71549E+03  8.60981E+03  6.01219E+03
  2.62526E+03  6.94499E+03 -3.24307E+03  8.12824E+03 -8.56233E+03  9.80790E+03 -1.05738E+04  2.87612E+02
 -4.36250E+03 -4.50779E+03 -4.61492E+03 -2.32977E+02 -1.27883E+04  2.57437E+03 -1.40453E+04 -1.96473E+03
 -4.66125E+03 -8.79849E+03  1.51701E+02 -1.15064E+04  3.23368E+03 -1.63446E+04  1.16218E+04 -5.31082E+02
  6.61977E+03  3.49894E+02  5.24775E+03  8.32335E+03 -1.54936E+03  7.42145E+03 -1.17806E+04  4.51896E+03
