 $NMID ID='MM_0lb_SNR50_14hz_g60_73.RAW', FMTDAT='(8E13.5)'
 TRAMP=1., VOLUME=1. $END
  3.06854E+05 -2.36603E+03  3.35664E+05  2.49765E+05  8.18888E+04  3.35921E+05 -1.31851E+05  2.48888E+05
 -1.89853E+05  8.26397E+04 -1.09937E+05 -3.65774E+04  4.88285E+03 -5.46298E+04  5.26801E+04  1.27317E+03
  3.38074E+04  5.56963E+04 -1.71846E+04  7.70886E+04 -5.55726E+04  6.29971E+04 -8.30427E+04  3.42739E+04
 -8.03662E+04 -1.19720E+04 -5.31865E+04 -5.50507E+04 -1.29544E+04 -7.40836E+04  2.62305E+04 -4.71741E+04
  4.18533E+04  3.63075E+03  1.34604E+04  4.90022E+04 -3.27641E+04  4.74830E+04 -6.72604E+04  7.59079E+02
 -5.63872E+04 -5.84706E+04 -1.12726E+04 -7.67960E+04  3.20702E+04 -5.62414E+04  4.94348E+04 -1.97937E+04
  4.41801E+04  8.39125E+03  3.33114E+04  2.43411E+04  1.40189E+04  3.28302E+04 -3.19977E+03  2.72829E+04
 -1.75594E+04  9.64881E+03 -1.94108E+04 -6.91246E+03  1.01769E+04 -1.17399E+04  2.14583E+04  1.14171E+04
  7.84024E+03  3.69528E+04 -3.60977E+04  3.98383E+04 -6.06982E+04  4.48745E+03 -5.65394E+04 -4.24355E+04
 -1.42737E+04 -6.71498E+04  4.19228E+04 -4.17607E+04  6.09452E+04 -4.04035E+03  3.29007E+04  3.57369E+04
 -4.95049E+03  3.52370E+04 -2.62053E+04  1.63210E+04 -3.24155E+04 -5.51432E+03 -1.84918E+04 -1.33518E+04
 -9.31764E+03 -1.03568E+04  6.97703E+02 -2.08578E+04  6.84481E+03 -2.58214E+04  1.54647E+04 -1.30455E+04
  1.90266E+04  6.01848E+03 -1.00208E+04  1.24105E+04 -1.81950E+04 -3.09636E+03 -7.33180E+03 -3.69902E+04
  2.90860E+04 -4.63318E+04  4.83720E+04 -1.70229E+04  4.52559E+04  1.85743E+04  1.93083E+04  4.49150E+04
 -1.29881E+04  3.27254E+04 -2.90074E+04  2.76931E+03 -1.00256E+04 -2.62679E+04  2.37815E+04 -3.27269E+04
  3.94534E+04 -9.89667E+03  3.48692E+04  2.20299E+04  1.77257E+04  4.22149E+04 -8.81521E+03  5.16960E+04
 -3.08480E+04  3.23775E+04 -4.40125E+04  7.79310E+03 -4.63698E+04 -1.68225E+04 -1.97483E+04 -3.76918E+04
  2.93479E+03 -3.46912E+04  3.31296E+04 -1.23933E+04  2.66026E+04  7.66302E+03  5.62280E+03  1.76033E+04
 -1.81999E+04  1.45220E+04 -1.27764E+04 -9.50723E+03  6.64738E+03 -8.55579E+03  1.60730E+04  7.74689E+03
  1.30680E+04  2.53176E+04 -8.87001E+03  2.31655E+04 -2.39714E+04  1.34074E+04 -2.87413E+04 -3.88027E+03
 -2.17055E+04 -1.65020E+04 -9.27715E+03 -1.93503E+04  1.09617E+04 -2.10658E+04  1.60083E+04 -2.27913E+04
  2.89361E+04 -1.27879E+04  2.96586E+04  6.85510E+03  2.44242E+04  1.52517E+04  6.87934E+03  4.17571E+04
 -2.00005E+04  3.12449E+04 -2.90691E+04  1.15157E+04 -2.13528E+04 -1.37832E+04 -5.58750E+03 -1.23407E+04
  3.06872E+03 -1.22809E+03 -3.56317E+03  7.04141E+03 -1.45491E+04  1.20230E+04 -2.05082E+04 -5.32970E+03
 -7.00298E+03 -1.59445E+04  2.08077E+03 -2.76999E+04  1.74347E+04 -1.80564E+04  1.67002E+04  9.49440E+02
  1.45214E+04  1.41953E+04  1.30316E+03  1.69914E+04 -1.31150E+04  8.56173E+03 -2.16573E+04 -3.04825E+03
 -1.74948E+04 -1.65745E+04  3.01916E+03 -3.02916E+04  1.39982E+04 -1.45507E+04  2.05863E+04 -1.27867E+04
  1.96844E+04 -1.18724E+03  1.31621E+04  7.27650E+03  7.41891E+03  3.37064E+03  6.78375E+03 -2.54307E+03
  1.79376E+04 -9.33854E+02  1.58703E+04  1.18298E+04  1.25893E+04  2.88359E+04 -5.71677E+03  3.60793E+04
 -2.15548E+04  2.83919E+04 -3.73145E+04  1.67124E+04 -3.78171E+04  2.74567E+03 -3.04760E+04 -1.70478E+04
 -9.88454E+03 -3.12216E+04  2.65665E+03 -3.28531E+04  2.18051E+04 -1.12059E+04  2.32354E+04  9.27299E+03
  6.22112E+03  1.46699E+04 -1.53271E+04  1.43777E+04 -1.40087E+04  1.46489E+03 -1.20570E+04 -9.08761E+03
  1.74309E+03 -1.47235E+04  4.81034E+03 -1.27200E+04  1.18548E+04 -1.87156E+03  2.85275E+03  9.37916E+03
 -1.15104E+04  5.50638E+03 -3.21542E+03 -4.59765E+03 -2.14155E+03 -9.77701E+03  1.25606E+04 -1.41517E+04
  1.85442E+04 -6.78230E+03  1.75305E+04  2.07489E+03  2.14327E+04  1.64335E+04  6.79827E+03  2.32343E+04
 -7.44842E+03  2.26839E+04 -1.18352E+04  9.65794E+03 -1.79062E+04  5.98056E+03 -1.12009E+04 -8.54534E+01
 -8.33426E+03 -8.45909E+03 -1.10562E+03 -3.17382E+03 -4.72095E+03  4.41954E+03  4.68143E+02  5.70250E+03
 -1.09206E+04 -5.67161E+02 -1.40171E+04 -8.31428E+03 -9.37277E+03 -1.98085E+04  2.11960E+03 -1.34143E+04
  8.82807E+03 -2.81442E+03  2.76493E+03  4.68253E+03 -2.35344E+03  6.54945E+03 -7.15139E+03 -2.39318E+02
 -4.45444E+03 -6.01624E+03 -1.49661E+02 -1.36144E+04  9.74534E+03 -1.18853E+04  1.51594E+04 -3.59678E+03
  2.12630E+04  3.96120E+03  9.46700E+03  1.10257E+04 -2.55673E+03  1.48633E+04 -1.00372E+04  8.59027E+03
 -7.78863E+03  3.96734E+03 -1.21490E+03 -5.14238E+02  6.55923E+02 -6.36087E+02  8.99253E+03 -2.42810E+02
  5.13888E+03  3.51835E+03  3.67501E+03  3.35455E+03 -7.37600E+03  3.21418E+03 -1.41130E+04  3.62372E+03
 -1.11944E+04 -6.59887E+03 -4.45694E+03 -1.15783E+04  7.12007E+03 -3.11856E+03  7.97869E+03  6.10038E+03
  5.70332E+02  8.44827E+03 -1.77747E+03  5.46450E+03 -7.42897E+03  9.59640E+02 -6.75433E+03 -5.66099E+02
 -8.94215E+02 -1.09243E+04  6.95457E+03 -1.73839E+04  9.62591E+03 -9.92043E+03  1.28484E+04  3.02925E+03
  6.69932E+03  9.03948E+03 -3.35698E+03  1.42034E+04 -6.33345E+03  3.87094E+03 -1.10714E+04  9.03756E+02
 -1.35243E+04 -6.83461E+03 -3.95044E+03 -8.15382E+03  2.89493E+03 -8.60144E+03  7.49183E+03 -4.15842E+03
  3.63836E+03  5.58339E+03 -2.41508E+03  2.44866E+03 -1.79826E+03  2.49367E+03  2.13153E+03 -7.14246E+03
  5.04473E+03 -2.78177E+03  8.58799E+03  8.96793E+03  7.82159E+03  4.02911E+03  1.19995E+04  1.09970E+04
 -3.04040E+03  1.98802E+04 -1.32153E+04  8.60594E+03 -2.03364E+04 -1.44204E+03 -1.78222E+04 -8.97103E+03
 -7.58075E+03 -1.23328E+04  1.55999E+03 -1.10289E+04  2.39248E+03 -7.42341E+03  5.52503E+03 -2.20212E+03
  3.39339E+03 -5.75600E+02  2.92624E+03 -2.14987E+03  2.71550E+03 -1.90150E+01  6.34535E+03  2.32850E+03
  8.81000E+03 -1.14694E+03  8.05311E+03  5.00873E+03 -1.04382E+03  8.33710E+03 -7.44511E+03  3.16933E+03
 -1.53726E+04 -1.78895E+03 -9.88170E+03 -7.25926E+03 -1.86671E+03 -1.33116E+04  4.64327E+03 -8.53894E+03
  1.45144E+04 -8.36771E+03  9.05198E+03  6.14188E+03  3.89709E+03  8.69009E+03  5.07215E+03  9.83930E+03
 -2.26955E+03  1.05287E+04 -4.47442E+03  9.47642E+03  7.15112E+02  3.00077E+03 -2.83507E+03 -1.22433E+03
 -8.78689E+01 -2.58718E+03  2.01914E+03  5.86868E+03 -2.29260E+03  1.99085E+03 -5.56407E+03 -6.89948E+03
 -1.14044E+03 -6.06698E+03 -2.86401E+03 -1.00196E+04  4.56216E+03 -6.84797E+03  1.29666E+04 -1.98031E+02
  7.75509E+03  8.27179E+03  4.38921E+03  6.77620E+03 -1.94753E+03  1.51080E+04 -9.80212E+03  1.01315E+04
 -8.38264E+03  5.50233E+03 -6.92169E+03 -5.37649E+03 -2.47715E+03 -8.47517E+02  2.50530E+03 -7.44081E+03
  5.79943E+03  2.58847E+03  5.65585E+03 -1.06712E+02  7.00982E+01 -1.09306E+02 -3.27009E+02  6.68251E+02
  2.59144E+03 -3.87751E+03 -3.26907E+03  4.07906E+03 -8.44996E+02  6.19559E+03  1.22668E+03  6.12491E+03
 -2.63567E+03  8.46000E+03 -9.55130E+03  8.06182E+03 -5.92057E+03 -6.01758E+03 -9.58384E+03  2.11918E+02
 -3.25198E+03 -8.49324E+03  2.18504E+03 -9.70779E+03  2.42185E+03 -4.48502E+03  2.26401E+03 -5.03355E+03
  1.82629E+03  3.63581E+03  2.23512E+03  2.67863E+03 -9.24020E+03  5.60245E+03 -5.66709E+02 -1.34008E+03
  3.04785E+03 -5.62522E+03  7.20410E+03 -5.02720E+03  2.14284E+03  8.93865E+02  3.13237E+03 -1.89275E+03
 -9.41685E+02  2.30341E+03 -2.35582E+03  1.94206E+03 -3.22846E+02  5.43278E+03  7.28311E+01  6.84490E+02
 -9.32521E+02 -1.62694E+03  3.85094E+03  2.25799E+03  2.99556E+03  1.22544E+03 -1.32234E+03  5.22377E+03
 -6.00475E+03  3.93205E+03 -4.70998E+03  2.64381E+03 -5.67714E+03 -3.61105E+03  3.69255E+02 -3.94760E+03
  6.18606E+02 -3.06837E+03  3.16333E+03  9.32266E+02 -6.27281E+02 -1.35935E+02 -4.52039E+03  7.33885E+03
 -2.91472E+03  4.66269E+03 -2.35587E+03 -2.39714E+03 -1.41302E+03 -7.87739E+03 -2.28679E+03 -3.80947E+03
  3.70794E+03 -3.18078E+03  5.00016E+03 -2.31657E+02  3.25024E+02 -1.17091E+03  1.26616E+03  2.14470E+03
 -1.07640E+03  7.07411E+02 -5.79451E+03  1.69788E+03 -1.75757E+03 -5.03838E+01  5.60414E+03  1.39632E+03
  2.37769E+03  4.72702E+03  3.29924E+03  6.10975E+03  2.23731E+03  5.40867E+03 -2.93751E+03  5.30507E+03
 -3.46405E+03 -3.75261E+03 -4.72543E+03 -2.93743E+03 -9.43673E+02 -2.69098E+03 -3.31646E+03 -1.41318E+03
  6.96625E+03 -1.81546E+03  2.98112E+03  5.63502E+03 -8.59431E+02  3.13113E+03  1.07561E+03  4.21903E+03
 -2.33390E+02  2.37360E+03 -5.86351E+03  2.12776E+02 -2.70364E+03  6.50053E+02 -2.26767E+03  1.14255E+03
  9.23598E+02  3.24540E+03 -4.28487E+03 -3.86188E+03 -4.56473E+03 -8.05831E+02 -8.44786E+03  1.00177E+02
 -3.19981E+03 -5.29657E+03  4.80061E+03 -8.54678E+03  5.36778E+03 -7.64113E+03  9.93490E+03  1.25046E+03
 -3.04116E+03  1.34584E+03  3.77045E+03  8.99657E+03  3.44368E+02  6.94400E+03 -2.00212E+03  3.06733E+03
 -4.04264E+03  2.34552E+02  2.93633E+03  1.90339E+03 -7.42995E+02 -1.52983E+03  8.81047E+01 -4.47344E+03
 -7.00585E+01  6.51405E+02  3.94241E+03  3.05336E+03 -2.69325E+03 -4.47998E+03  2.87504E+03  1.98212E+03
  2.03119E+03  4.74959E+02 -7.38771E+02 -1.44098E+03  1.18638E+04  7.34108E+03  1.21421E+03  5.13275E+03
 -3.11769E+03  2.27530E+03 -1.11476E+03  3.79806E+03 -4.35922E+03  2.40127E+03 -1.88133E+03 -5.21518E+03
 -1.95118E+03 -2.06025E+03  1.98302E+03 -8.77617E+03  2.89922E+03 -2.91877E+03  9.73785E+01  1.41872E+03
  3.77846E+03 -1.66988E+03  3.35359E+03  2.13453E+03  1.80695E+02 -3.48605E+03  2.21229E+03  1.57833E+03
 -3.91147E+03  2.57287E+03  3.37510E+03  6.45996E+03 -2.47487E+03  1.17770E+03 -2.46867E+02  8.19128E+02
  7.63003E+03  3.80412E+03 -6.25838E+03 -4.40948E+03 -5.25517E+03  1.03654E+02 -1.55942E+03 -6.76079E+03
  8.34734E+02  1.92109E+03  1.21498E+03 -1.67347E+03  4.17447E+03 -3.45878E+03  2.72061E+03  6.29463E+02
  1.18959E+02  1.82844E+03 -6.39150E+02  1.14170E+03 -6.96902E+02  3.12376E+03 -1.75156E+03  8.27384E+02
  2.41991E+02 -3.00163E+03  2.42427E+03  1.23349E+03  1.22210E+03 -9.26096E+02 -4.46595E+02 -1.20745E+02
 -4.02933E+03  5.49150E+02  2.02418E+02 -6.33462E+03  1.55885E+03  6.26953E+02  1.29856E+03  8.59409E+02
  3.73412E+03 -3.27025E+03  7.02797E+03  4.12514E+03  1.57030E+03  4.97174E+03 -2.96124E+03 -1.31322E+02
