 $NMID ID='MM_0lb_SNR50_12hz_g50_93.RAW', FMTDAT='(8E13.5)'
 TRAMP=1., VOLUME=1. $END
  3.07069E+05 -4.48743E+03  3.41058E+05  2.52671E+05  8.70876E+04  3.39374E+05 -1.31387E+05  2.50708E+05
 -1.90054E+05  8.55783E+04 -1.14769E+05 -3.23493E+04  1.26814E+03 -4.72119E+04  5.87616E+04  1.41528E+03
  3.83737E+04  4.85432E+04 -1.37863E+04  7.54230E+04 -5.72028E+04  5.97813E+04 -8.04095E+04  3.44983E+04
 -8.41544E+04 -1.52591E+04 -5.81962E+04 -5.08805E+04 -1.77336E+04 -7.17806E+04  2.41989E+04 -4.71742E+04
  3.73696E+04  1.87907E+03  1.93298E+04  5.13548E+04 -3.56623E+04  4.94244E+04 -6.54387E+04 -5.26263E+01
 -5.60292E+04 -5.95746E+04 -7.06221E+03 -7.83676E+04  3.63414E+04 -5.81148E+04  5.06510E+04 -1.90084E+04
  4.57700E+04  8.10869E+03  3.48847E+04  2.29525E+04  1.95021E+04  2.95444E+04  2.68485E+02  3.20257E+04
 -1.91546E+04  1.50834E+04 -1.56618E+04 -3.98788E+03  3.61720E+03 -6.67211E+03  2.17717E+04  1.43764E+04
  4.67603E+03  3.77825E+04 -3.16920E+04  3.49147E+04 -6.48117E+04  2.29436E+03 -5.86826E+04 -4.44872E+04
 -7.63961E+03 -6.25666E+04  4.56997E+04 -4.36373E+04  5.62756E+04 -9.24862E+02  3.50859E+04  3.43367E+04
 -7.09663E+02  3.54453E+04 -2.68931E+04  1.39197E+04 -2.94842E+04 -9.39644E+03 -2.19922E+04 -1.50231E+04
 -6.37702E+03 -1.41575E+04  2.55776E+03 -1.65614E+04  4.61497E+03 -2.31702E+04  2.21962E+04 -8.15323E+03
  1.37326E+04  7.61886E+03 -7.30856E+03  1.06494E+04 -1.63621E+04 -8.54141E+03 -9.17340E+03 -3.62632E+04
  2.60538E+04 -4.23533E+04  4.98930E+04 -2.09140E+04  5.21840E+04  2.60410E+04  1.61844E+04  4.64697E+04
 -1.65048E+04  3.51957E+04 -2.32776E+04 -1.08346E+03 -8.95534E+03 -3.43751E+04  1.72482E+04 -2.98014E+04
  4.06849E+04 -1.16856E+04  3.67384E+04  1.57466E+04  1.85798E+04  5.30565E+04 -5.21151E+03  5.03100E+04
 -2.88764E+04  3.55087E+04 -4.59989E+04  5.15912E+03 -4.14873E+04 -1.71617E+04 -2.89383E+04 -3.46273E+04
  8.27404E+03 -3.96936E+04  2.52934E+04 -1.62984E+04  2.68766E+04  1.10461E+04  4.20209E+03  2.13415E+04
 -1.14398E+04  1.33255E+04 -1.36340E+04 -6.71759E+03  5.77221E+03 -1.22754E+04  1.47537E+04  8.39419E+03
  1.30447E+04  2.11394E+04 -1.20893E+04  2.56744E+04 -2.47394E+04  1.45567E+04 -2.70213E+04 -2.68193E+03
 -2.31930E+04 -1.87124E+04 -5.63525E+03 -2.32776E+04  8.79363E+03 -2.24707E+04  1.11806E+04 -1.45083E+04
  2.43003E+04 -1.54422E+04  3.41029E+04  5.64685E+03  2.84644E+04  1.75453E+04  1.30972E+03  4.09059E+04
 -1.88827E+04  3.55350E+04 -3.09976E+04  9.87782E+03 -2.08116E+04 -1.14359E+04 -9.43523E+03 -1.12384E+04
  2.69815E+03 -4.48565E+03 -5.25110E+03  8.52185E+03 -1.44695E+04  1.03914E+03 -1.48498E+04 -1.19636E+04
 -1.32161E+04 -2.57316E+04  7.66620E+03 -2.67811E+04  1.34064E+04 -1.64588E+04  1.81829E+04 -5.27801E+03
  1.22001E+04  1.24405E+04  5.72180E+02  2.26554E+04 -1.64355E+04  1.62427E+04 -1.65632E+04 -2.54415E+03
 -1.46656E+04 -1.68245E+04 -3.35891E+03 -2.64559E+04  1.01603E+04 -3.01803E+04  2.17451E+04 -8.59837E+03
  1.68388E+04 -9.21995E+02  1.28289E+04  5.54258E+03  5.81507E+03  2.27338E+03  1.09715E+04 -5.98461E+03
  2.36159E+04  3.22604E+03  1.85786E+04  1.73365E+04  1.88785E+04  3.27820E+04  1.78671E+00  3.92043E+04
 -1.70605E+04  3.69591E+04 -3.51280E+04  1.78864E+04 -4.02872E+04 -5.92442E+03 -3.02436E+04 -2.02270E+04
 -1.18592E+04 -2.68539E+04  9.13059E+03 -2.34738E+04  2.27650E+04 -1.40423E+04  2.06815E+04  7.87723E+03
  7.94294E+03  1.96627E+04 -1.52160E+03  1.30930E+04 -1.69322E+04  2.43859E+03 -1.04868E+04 -1.54579E+04
 -5.30766E+03 -1.73067E+04  8.68545E+03 -1.18711E+04  8.87861E+03  7.77326E+02  3.35151E+03  7.05365E+03
 -7.74849E+03  2.54203E+03 -7.06241E+03 -6.18616E+03 -6.62557E+02 -1.69682E+04  1.34481E+04 -1.25881E+04
  2.37017E+04 -1.55331E+04  2.19111E+04  9.46207E+03  1.67625E+04  1.88251E+04  1.08062E+04  2.36329E+04
 -4.25453E+03  2.65350E+04 -1.62356E+04  1.69121E+04 -1.79678E+04  9.19187E+03 -1.36334E+04 -6.05212E+03
 -1.58117E+03 -2.97258E+03  9.34302E+02 -8.38609E+02 -6.03801E+03 -4.28588E+02 -6.50360E+03  3.33420E+03
 -1.15107E+04  2.29011E+03 -1.74731E+04 -9.45566E+03 -9.25555E+03 -1.72524E+04  8.34419E+03 -1.18324E+04
  7.02643E+03 -7.19639E+03  7.13957E+03  3.17888E+03  2.02697E+03  7.23940E+03 -1.19825E+04  1.12834E+03
 -7.93594E+03 -6.64165E+03  9.52884E+02 -9.74076E+03  9.08039E+03 -1.61370E+04  1.54108E+04 -1.51778E+04
  1.50593E+04 -5.20366E+03  1.15078E+04  1.11953E+04  7.40107E+02  1.51911E+04 -8.73228E+03  1.51769E+04
 -4.27968E+03  7.18781E+03 -5.72186E+03 -1.64983E+03 -9.44268E+02 -3.55435E+03  8.30877E+03 -2.11685E+03
  6.43136E+03  5.24281E+03  4.13813E+03  1.36232E+04 -2.07537E+03  6.01249E+03 -1.38616E+04 -2.33468E+03
 -9.10219E+03 -1.77641E+04 -4.68285E+03 -1.18112E+04  8.46156E+03 -7.78813E+03  1.04545E+04  9.04365E+02
 -2.45097E+03  1.33526E+04 -7.53050E+03  1.02942E+04 -9.64377E+03  4.43782E+03 -1.09905E+04 -2.68860E+03
 -1.11533E+04 -1.30505E+04  9.08644E+01 -1.51973E+04  1.40350E+04 -1.41113E+03  2.69817E+03 -2.08718E+01
  8.10013E+03  1.14664E+04  3.59913E+03  1.29971E+04 -1.00917E+04  8.43555E+03 -9.78424E+03 -1.60425E+03
 -8.24534E+03 -8.87919E+03  1.47761E+03 -4.36449E+03  4.31453E+03 -1.27445E+04  5.10913E+03 -3.55871E+03
  1.61244E+03  3.54130E+03 -1.27835E+03  2.73231E+03 -1.48589E+03 -5.29000E+03 -8.16675E+02 -1.53418E+03
  3.88265E+03 -4.72836E+01  1.06733E+04 -4.82634E+03  9.06110E+03  1.39084E+04  9.46745E+03  1.46068E+04
 -3.76812E+03  1.90755E+04 -1.53629E+04  1.16899E+04 -2.14354E+04  7.94730E+03 -1.60625E+04 -4.86634E+03
 -9.86346E+03 -9.60888E+03 -3.58252E+02 -9.72717E+03  3.36382E+03 -2.63467E+03  6.22729E+03 -3.31163E+03
 -5.43358E+02  1.40000E+03  7.05974E+03  2.09172E+03 -2.89879E+02 -6.94495E+03 -1.48737E+03 -1.78854E+03
  1.01751E+04  3.66458E+02 -1.61785E+03  8.23708E+03 -3.00061E+03  6.51574E+03 -8.36487E+03  5.65393E+03
 -1.11980E+04 -2.17897E+03 -8.87957E+03 -6.88485E+03  7.91958E+02 -1.36353E+04  1.24460E+04 -1.22803E+04
  1.44847E+04 -6.11574E+03  1.40213E+04  3.62434E+03  1.05565E+04  4.44869E+03  3.81613E+03  1.06363E+04
 -5.58339E+03  1.52662E+04 -1.21425E+04  4.51641E+03 -4.19085E+03  2.47993E+02  1.87398E+03 -1.07084E+02
  4.64280E+02  2.71420E+03 -3.21407E+03  4.52232E+03 -5.71740E+02 -2.20875E+03 -1.19250E+04  3.94699E+03
 -6.36769E+03 -5.39007E+03 -3.67624E+02 -7.12771E+03  3.23416E+03 -4.95806E+03  8.85808E+03 -2.08239E+03
  1.24054E+04  5.98370E+03  6.45337E+03  7.68524E+03 -2.05100E+03  1.40085E+04 -7.64356E+03  3.65047E+03
 -1.00455E+04  2.94209E+03 -9.45133E+03 -7.47589E+03 -4.26728E+02 -5.66102E+03  2.66389E+03 -8.19839E+03
  5.20721E+03 -6.72672E+03  4.76229E+03  7.97947E+03  2.76804E+03  3.67107E+03  1.39438E+03  4.54306E+02
  4.85344E+02 -2.59304E+03  3.22309E+03 -2.03834E+02  4.47575E+03  2.53891E+03  6.24981E+03  5.89792E+03
 -2.11847E+03  2.71501E+03 -6.37714E+03  1.57269E+03 -6.19526E+03 -1.98122E+03 -4.83676E+03 -1.53824E+03
 -1.54261E+03 -6.25480E+03  3.14908E+03 -1.25030E+04  3.00558E+03 -4.88180E+03  1.10809E+04 -2.42887E+03
  5.88151E+03  4.48194E+03  3.29263E+03  5.19780E+03 -2.57468E+03  7.92419E+03 -3.19995E+03 -1.78799E+03
 -4.29942E+03 -6.01699E+03  9.44768E+01 -3.12956E+03  8.91532E+02 -5.59631E+03  7.59673E+03 -1.41389E+03
 -5.88511E+02  7.06487E+02 -1.10820E+02  3.54461E+03  2.44629E+03  5.61185E+03 -5.31176E+02 -2.11102E+02
  6.30807E+02 -1.77894E+03  3.78526E+03 -4.56349E+02 -2.44562E+03  4.58042E+03 -1.65030E+03  4.95783E+03
 -6.03740E+03  3.53598E+03 -9.22675E+03 -1.26799E+03 -6.12880E+03 -5.14533E+03 -4.32293E+03 -9.73326E+03
  7.05042E+03 -8.43706E+03  6.01598E+03 -1.76314E+03  4.44549E+03  2.04186E+03  1.84354E+03  1.65515E+02
 -9.24704E+03  2.73344E+03 -5.03858E+03 -3.22294E+03 -3.14236E+03 -3.62672E+03  1.23365E+03 -6.65445E+03
 -1.24079E+03 -5.04810E+03  1.86452E+03 -1.29094E+03 -2.17118E+03 -1.51866E+03  3.83223E+03  4.63442E+03
  1.59424E+03  3.30050E+03  1.71155E+02 -1.63508E+03  2.34945E+03 -4.57708E+03  1.33977E+03  3.63422E+00
  4.05750E+03  3.04519E+03  5.78230E+03  5.26054E+03  3.79050E+03  1.26217E+04  1.36968E+03  1.10623E+04
 -5.74229E+03  1.73882E+02 -6.28744E+03 -1.32891E+03 -4.30370E+03 -3.17027E+03  1.88085E+03 -2.36127E+03
  3.13384E+03 -2.03451E+03  8.77174E+03  3.98675E+03 -3.49234E+02  8.54870E+03 -1.95218E+03  5.38225E+03
 -4.76048E+03  8.41560E+02 -8.62034E+03 -3.01856E+03  1.28147E+03  3.11394E+03 -5.55156E+03  3.40340E+02
 -6.48310E+02  5.25276E+03 -4.51553E+03  4.54185E+03 -7.54936E+03 -4.66664E+03 -8.16628E+03 -2.56413E+03
  1.62039E+02 -7.12204E+03  3.95288E+02 -9.40844E+03  7.01169E+03 -1.23762E+04  8.17825E+03 -2.72970E+03
  7.43507E+03  1.63510E+03  2.82160E+03  8.31675E+03 -1.97823E+03  1.14129E+04 -1.69713E+03  1.74541E+03
 -5.09807E+03  1.46534E+03  1.73020E+03 -2.27888E+03 -6.87100E+02  1.71795E+03 -1.73286E+02  8.00708E+02
 -3.60003E+03 -3.97463E+03 -2.75610E+03 -1.91062E+03 -3.24898E+03  2.03803E+01 -3.59258E+03 -1.15039E+03
  2.74457E+03 -1.77259E+03  1.30696E+03 -3.02515E+01  4.01190E+03  2.78989E+03 -1.15999E+03  5.48135E+03
 -1.77929E+03  2.75260E+03 -9.21941E+03  3.58138E+03 -1.26014E+04 -2.52325E+03 -6.27655E+03  2.90885E+03
 -4.57576E+03 -8.80043E+03  4.89386E+03 -7.24446E+03  6.07514E+03 -5.72084E+03  2.50797E+03  3.15919E+02
  4.92574E+03 -8.04294E+02 -3.49538E+03 -1.61555E+03 -3.94302E+03  7.36021E+02  2.39207E+03 -2.47334E+03
  2.59531E+03 -1.70433E+02  4.82543E+03 -2.98026E+03  1.80225E+03  2.55066E+03  1.68381E+03  9.31702E+02
 -2.53670E+03  1.72860E+03 -1.13432E+03  1.14383E+03 -3.36621E+03 -5.82639E+01  2.11097E+03 -6.05654E+03
  6.90272E+03 -3.98151E+03  2.75278E+03 -5.95373E+03  6.37881E+03  2.09550E+03 -1.91991E+03 -4.57385E+02
 -1.53477E+03  1.38411E+03 -1.51085E+03  2.25383E+03 -1.43572E+03  1.93296E+03 -2.34225E+03 -3.58579E+03
 -1.30949E+03  6.73993E+03 -5.23315E+03 -4.54781E+03  7.13912E+02 -4.41746E+03 -6.85984E+03 -8.47839E+02
 -7.52589E+03 -2.16078E+03  1.51903E+03 -4.91194E+03 -2.70532E+03 -1.66913E+03 -5.58952E+02 -7.74473E+03
  5.63938E+03 -7.78960E+02  6.20087E+03 -2.82157E+03  5.86557E+03  3.98854E+03 -2.80770E+03  9.25811E+02
