 $NMID ID='MM_0lb_SNR50_14hz_g40_13.RAW', FMTDAT='(8E13.5)'
 TRAMP=1., VOLUME=1. $END
  3.06092E+05  3.17813E+03  3.35790E+05  2.52480E+05  8.32717E+04  3.37889E+05 -1.32063E+05  2.50162E+05
 -1.90697E+05  8.24530E+04 -1.09018E+05 -2.96804E+04 -2.90514E+03 -4.81082E+04  4.90007E+04  4.71643E+03
  3.63948E+04  5.26698E+04 -1.81413E+04  7.35620E+04 -6.48859E+04  6.77588E+04 -8.65374E+04  3.14602E+04
 -8.16877E+04 -1.10050E+04 -5.59360E+04 -5.25573E+04 -1.84806E+04 -6.90266E+04  2.91388E+04 -4.68723E+04
  4.60381E+04  5.20941E+03  1.29366E+04  4.30298E+04 -3.60373E+04  4.78866E+04 -6.88854E+04 -4.30588E+03
 -5.58079E+04 -5.73766E+04 -7.49752E+03 -7.00708E+04  3.42357E+04 -5.54734E+04  5.03164E+04 -1.55929E+04
  4.09339E+04  1.04091E+04  3.40367E+04  2.39944E+04  1.48745E+04  3.44184E+04 -7.30891E+03  2.87735E+04
 -2.56417E+04  1.13608E+04 -2.11063E+04 -1.16418E+03  7.50845E+03 -1.99719E+03  2.55188E+04  1.28304E+04
  1.07491E+04  3.58025E+04 -2.77583E+04  3.58465E+04 -6.30615E+04  5.93748E+03 -6.20311E+04 -4.42324E+04
 -1.16836E+04 -6.24257E+04  3.57999E+04 -4.73919E+04  5.67693E+04 -1.87686E+03  3.18753E+04  3.16804E+04
 -1.00695E+04  3.51940E+04 -3.47028E+04  1.74904E+04 -2.87206E+04 -8.69410E+03 -9.49668E+03 -1.37395E+04
 -7.27691E+03 -1.24459E+04  7.95551E+02 -2.00223E+04  6.60265E+03 -2.15516E+04  1.35192E+04 -9.40504E+03
  1.41921E+04  8.28122E+03 -3.13517E+03  9.90155E+03 -2.44302E+04 -3.38398E+03 -7.58227E+03 -3.17499E+04
  2.17009E+04 -4.48477E+04  4.47959E+04 -1.98358E+04  4.61492E+04  2.18103E+04  1.36119E+04  4.13538E+04
 -1.74048E+04  3.37623E+04 -2.63757E+04  1.56606E+02 -1.09235E+04 -2.76038E+04  2.09329E+04 -3.05556E+04
  4.24851E+04 -1.00403E+04  3.87157E+04  2.11179E+04  1.79087E+04  4.47755E+04 -1.04078E+04  4.72189E+04
 -3.52145E+04  3.24729E+04 -3.97551E+04  1.27437E+04 -3.73814E+04 -1.62669E+04 -2.50701E+04 -3.71071E+04
  7.00527E+03 -3.77762E+04  3.08844E+04 -1.69608E+04  3.24408E+04  9.59187E+03  4.33079E+03  2.07902E+04
 -1.45188E+04  5.47050E+03 -1.00204E+04 -6.45535E+03  3.01852E+03 -1.35415E+04  1.72353E+04  8.88137E+03
  1.32875E+04  1.84083E+04 -4.19282E+03  2.48433E+04 -2.23628E+04  8.76946E+03 -3.14864E+04 -7.68491E+03
 -1.99889E+04 -1.33117E+04 -6.27853E+03 -2.00192E+04  3.60950E+03 -1.54997E+04  1.34845E+04 -1.45585E+04
  2.26474E+04 -1.74815E+04  3.62776E+04 -1.85511E+03  2.15038E+04  2.21015E+04 -2.09319E+03  3.89197E+04
 -1.50374E+04  2.94796E+04 -2.37749E+04  9.28106E+03 -2.45166E+04 -1.30763E+04 -2.94697E+03 -9.08238E+03
  1.85450E+03 -2.48403E+02 -4.34774E+03  4.36598E+03 -1.33928E+04  2.41059E+03 -1.76607E+04 -3.59180E+03
 -6.09351E+03 -2.06517E+04  4.03217E+03 -2.18805E+04  1.73704E+04 -1.72265E+04  1.52393E+04  1.14265E+02
  1.03312E+04  6.39131E+03 -6.83157E+02  1.66989E+04 -1.39462E+04  1.19828E+04 -1.76057E+04 -2.42373E+03
 -1.33532E+04 -1.80667E+04 -3.04396E+03 -2.32484E+04  1.20659E+04 -1.72899E+04  1.82400E+04 -1.12663E+04
  1.34568E+04  2.56348E+03  1.78809E+04  9.51560E+03  7.08403E+03 -1.68085E+03  1.30509E+04 -4.90236E+01
  1.58754E+04  4.63885E+02  1.85280E+04  1.54162E+04  1.06684E+04  2.71222E+04 -4.99105E+03  2.63318E+04
 -1.44948E+04  2.55508E+04 -3.02063E+04  1.39806E+04 -3.69195E+04 -2.94161E+03 -2.68819E+04 -1.51032E+04
 -9.87527E+03 -2.54461E+04  1.08720E+04 -2.52044E+04  2.03882E+04 -1.40115E+04  1.69103E+04  1.77248E+03
  8.87089E+03  9.57227E+03 -8.53630E+03  1.47793E+04 -1.63226E+04  6.29247E+03 -1.13672E+04 -1.37882E+04
  6.15148E+03 -1.88021E+04  4.78234E+03 -8.90132E+03  5.44794E+03 -1.24037E+03  4.52591E+03  7.43248E+02
 -6.96507E+01 -1.39928E+03 -4.56871E+03 -4.95407E+03 -8.59745E+01 -1.04673E+04  1.16548E+04 -1.41636E+04
  1.63148E+04 -1.05773E+04  1.67064E+04  4.98695E+03  1.94653E+04  1.05744E+04  2.85173E+03  1.44148E+04
 -2.55554E+03  2.76848E+04 -1.23277E+04  9.13801E+03 -1.47991E+04  6.55422E+03 -1.01644E+04 -1.64625E+03
 -2.05995E+03 -4.01455E+03  8.71619E+02 -1.25049E+02 -1.20719E+03  4.08926E+03  2.04509E+03  6.89563E+03
 -1.08159E+04 -3.71214E+03 -8.45285E+03 -6.95255E+03 -8.96918E+03 -1.62878E+04  3.83054E+03 -7.78949E+03
  9.99866E+03 -8.12309E+03  2.27314E+03  5.39013E+03  6.40002E+02  5.10696E+03 -4.28458E+03 -3.07823E+03
 -3.96052E+03 -3.19046E+03 -3.29191E+03 -1.46996E+04  7.94531E+03 -1.40396E+04  9.92563E+03 -3.88309E+03
  1.59362E+04  5.36273E+03  9.81975E+03  1.13232E+04  2.85945E+03  1.39626E+04 -2.79710E+03  1.04689E+04
 -5.34999E+03  4.75101E+03 -7.18094E+03 -3.57584E+03  4.97251E+03 -3.22146E+03  1.19049E+04 -2.93303E+01
  5.59232E+03  3.26640E+03 -7.73395E+01  5.32068E+03 -2.83690E+03  8.36506E+03 -1.11092E+04  1.37955E+03
 -7.59574E+03 -4.67174E+03 -5.06992E+02 -8.29819E+03  1.05343E+04 -2.92892E+03  4.97508E+03 -7.13659E+02
 -5.88898E+02  7.60454E+03 -7.00635E+03  7.66037E+03 -5.69744E+03  3.60286E+03 -6.18884E+03 -4.41731E+03
 -2.68417E+03 -8.49660E+03  6.38545E+03 -1.13367E+04  5.43013E+03 -5.86055E+03  1.27487E+04  3.82354E+03
  8.49376E+03  9.55837E+03 -2.10183E+03  1.03350E+04 -3.33662E+03  7.53201E+03 -4.08887E+03  9.33754E+02
 -1.12230E+04 -5.67294E+03 -1.35381E+03 -9.53584E+03  2.90090E+02 -5.19127E+03  6.78802E+03 -4.97166E+03
 -5.37615E+01  2.26383E+03 -2.09215E+03  1.42573E+03 -8.49486E+02 -5.47641E+03  1.39062E+03 -4.08223E+03
  4.61613E+03  3.04594E+03  5.99210E+03  3.05772E+03  6.65227E+03  3.82001E+03  3.59667E+03  1.37402E+04
 -5.27467E+03  1.10341E+04 -1.37849E+04  9.74588E+03 -1.80988E+04 -8.55318E+02 -8.40219E+03 -9.24923E+03
 -6.96125E+03 -1.34257E+04  1.31745E+01 -3.59702E+03  5.62022E+03 -5.02612E+03  1.87356E+03 -3.26507E+03
  8.23866E+02 -9.54608E+02  3.72875E+03 -2.67338E+02  6.79781E+03 -4.38160E+03 -4.19715E+02  2.54466E+03
  7.32634E+03  2.19977E+03  1.00345E+02  7.11575E+03 -2.13968E+03  1.92477E+03 -7.89524E+03  6.21942E+03
 -7.16862E+03 -4.99597E+02 -6.10918E+03 -5.79695E+03 -7.21526E+03 -7.32364E+03  3.28440E+03 -6.07446E+03
  8.05702E+03 -4.02976E+02  6.65625E+03  8.16739E+03  8.97006E+03  7.70521E+03  5.08177E+03  1.20752E+04
 -2.81019E+03  6.37938E+03 -6.18616E+03 -5.31472E+02 -1.59198E+03 -6.40702E+03  1.97447E+03  1.57908E+03
 -2.10948E+03  4.60896E+03  3.82832E+02  2.32496E+03 -3.93995E+03  2.26515E+03 -6.52765E+03  1.12391E+02
 -2.80904E+03 -9.62124E+03  5.80029E+03 -1.08278E+04  7.76423E+03 -4.13112E+03  6.58766E+03 -9.51536E+03
  8.88573E+03  1.35312E+03  2.74957E+03  2.40976E+03 -1.54549E+02  1.08463E+04 -8.98625E+03  2.20395E+03
 -6.38077E+03  1.84533E+03 -5.94403E+03 -2.25434E+02  2.75359E+03 -5.00361E+03  7.22724E+02 -2.53483E+03
  7.92762E+03 -2.71043E+03  8.01885E+02  5.42262E+03 -4.63768E+02 -1.38519E+03 -3.62657E+03  3.64805E+03
  5.16474E+03 -2.48236E+03 -2.98368E+03  3.43424E+03 -7.77560E+01  1.22950E+03  2.59830E+03  4.17355E+03
  3.29166E+02  8.75337E+03 -6.76098E+03  7.07499E+03 -1.69120E+03  2.93891E+03 -9.98389E+03 -2.16742E+03
  8.28570E+02 -8.33549E+03 -2.53054E+03 -5.63742E+03  7.68979E+03 -9.46549E+03  6.30748E+03 -4.47095E+03
  8.57980E+03  6.34941E+03  2.45241E+03  5.90187E+03 -6.17285E+03  4.46424E+03 -6.03215E+03  1.24180E+03
 -1.73972E+03 -6.17423E+03  1.78737E+03 -2.10634E+03  3.46806E+03 -1.59175E+03  1.01730E+03 -3.22732E+03
  8.49990E+02 -2.72584E+03 -2.81397E+02  2.10084E+03  1.02725E+03  1.84689E+03  2.69953E+03  1.17478E+03
  4.06906E+02  9.87004E+02  2.77790E+02  2.84018E+03  1.35136E+03  3.36503E+03 -7.57138E+03  6.74408E+03
 -5.64866E+03  3.52500E+03 -4.26580E+03 -1.33843E+03 -1.57178E+03 -2.81554E+03 -3.32787E+03 -7.67711E+02
  3.94982E+02 -3.49035E+03  5.99964E+03  4.88384E+03  3.52624E+03  3.00786E+03 -5.18827E+03  1.24970E+03
 -3.04411E+03  2.05288E+03 -4.85344E+03 -2.76032E+03 -2.73971E+03 -2.19045E+03 -9.46209E+02 -2.04845E+03
  1.69616E+03  8.31896E+02  7.55142E+02 -6.91264E+03  2.18384E+03  1.49510E+03 -7.68529E+02  1.29071E+03
  1.94486E+03 -2.91211E+03 -7.58647E+02 -7.07477E+02  1.09518E+03 -4.02241E+03  6.18315E+03 -6.41389E+02
  8.23679E+02  2.24765E+03  4.08511E+03  3.83213E+03  9.95686E+02  8.30106E+03  1.63946E+03  3.80378E+03
 -2.67355E+03 -1.85986E+03 -2.70421E+03  1.93542E+03 -4.07544E+02 -1.33805E+03  4.75698E+03  2.19233E+03
  2.56145E+03 -2.55593E+03  7.73028E+02  4.22919E+03  5.85191E+03  4.63934E+03  2.20723E+03  2.21929E+03
  2.12593E+02 -2.27508E+03 -2.43868E+03  5.32805E+03  1.28437E+03  2.63216E+03  2.61727E+03  3.38837E+03
 -3.61519E+03  2.37020E+03 -4.92393E+03 -2.20590E+03 -5.46565E+03  9.60023E+02 -1.44885E+03 -4.28218E+03
 -8.60371E+03 -6.78049E+03  4.28819E+03 -2.07143E+03  6.09915E+03 -8.49851E+03  4.46022E+03 -4.26761E+03
  9.07888E+03  8.06958E+02  4.47092E+03 -1.65635E+03  2.33440E+03  4.35305E+03 -1.91497E+03  1.39978E+03
 -3.31898E+02  1.49035E+03  1.28447E+03  1.23579E+03 -8.47675E+02  2.70078E+03 -4.13601E+03 -9.57390E+02
 -5.36133E+02  7.53807E+02 -4.49985E+03 -1.15338E+03 -3.09007E+02 -2.25653E+03 -4.38948E+03 -2.56511E+03
  3.09117E+03 -4.66743E+03  1.45079E+03 -4.94349E+03  9.02485E+02  5.83070E+03 -4.21865E+01  6.71880E+02
 -5.12244E+03  6.38460E+03 -1.42002E+03  3.23081E+03 -1.30191E+03  4.57886E+01  6.80539E+02 -6.90566E+03
 -2.20748E+03 -4.57640E+03 -1.19274E+03  7.18832E+02  2.75406E+03  5.81685E+01  3.39822E+03 -4.26834E+03
 -4.63946E+02  4.36462E+03 -3.04717E+03  1.12674E+03 -5.49738E+03  1.90790E+03  1.37099E+03  4.71636E+02
 -1.00293E+03  4.92699E+03  5.19349E+02 -1.55236E+03  6.89998E+03 -2.15368E+03  9.35840E+01  2.67663E+03
  1.17891E+03  2.97791E+03 -3.64716E+03 -1.45670E+03  4.17317E+03 -4.43121E+03 -2.39391E+03  1.23176E+03
 -2.05192E+03 -8.22102E+02  1.95243E+03  2.02611E+03 -9.93475E+02 -4.18088E+01  6.76385E+02  4.37492E+03
  2.70675E+02  1.57593E+03 -6.21509E+03 -1.01065E+03 -4.71325E+03  4.95752E+03  1.64882E+03  1.37726E+03
 -4.25844E+03 -3.68580E+03 -5.91145E+02  3.53721E+02 -5.50694E+03 -6.85719E+02 -4.52331E+03  2.52708E+02
 -2.34836E+03  2.74497E+03 -4.01753E+03 -1.84143E+02 -1.90405E+03 -6.53745E+02  2.34512E+03 -3.10543E+03
 -8.20647E+02 -6.48472E+02 -4.15848E+03  4.53358E+03 -5.67866E+02 -5.20928E+03  5.31035E+02 -4.65372E+03
