 $NMID ID='MM_0lb_SNR50_12hz_g55_28.RAW', FMTDAT='(8E13.5)'
 TRAMP=1., VOLUME=1. $END
  3.12299E+05  4.14534E+03  3.34091E+05  2.46265E+05  8.62614E+04  3.36572E+05 -1.37846E+05  2.47213E+05
 -1.93540E+05  8.37432E+04 -1.15600E+05 -2.88586E+04  2.40189E+03 -5.31311E+04  5.14837E+04  1.08381E+03
  3.54566E+04  5.17361E+04 -1.44943E+04  7.35944E+04 -5.54924E+04  6.03414E+04 -8.64094E+04  2.97330E+04
 -8.10842E+04 -1.63798E+04 -5.45237E+04 -4.93695E+04 -2.06408E+04 -6.78254E+04  2.90568E+04 -4.74743E+04
  4.35349E+04 -1.79251E+03  1.49550E+04  4.97092E+04 -2.82966E+04  4.65193E+04 -6.28861E+04 -3.12908E+03
 -5.29904E+04 -5.97545E+04 -1.56615E+04 -7.69695E+04  3.43917E+04 -5.89738E+04  5.10309E+04 -1.84370E+04
  3.98616E+04  7.27108E+03  3.25004E+04  2.94576E+04  1.90515E+04  2.80492E+04  8.52348E+02  2.86553E+04
 -2.12339E+04  1.23081E+04 -2.05753E+04 -5.97906E+03  7.32264E+03 -7.43034E+03  1.96623E+04  1.22266E+04
  4.39885E+03  3.45353E+04 -3.37821E+04  3.29825E+04 -6.12261E+04  4.54682E+03 -6.00550E+04 -3.96494E+04
 -1.02249E+04 -6.56125E+04  3.40423E+04 -4.22870E+04  6.33033E+04 -7.87383E+03  3.66823E+04  2.79402E+04
 -5.01384E+03  3.76436E+04 -3.20226E+04  1.63369E+04 -2.93598E+04 -2.64839E+03 -1.72907E+04 -1.36290E+04
 -1.48875E+04 -1.85493E+04 -3.62373E+03 -2.60590E+04 -9.87031E+02 -2.17559E+04  1.58092E+04 -1.21809E+04
  1.24637E+04  7.35925E+03 -1.17726E+04  1.45411E+04 -2.10374E+04 -4.01649E+03 -1.15255E+04 -3.57258E+04
  2.88126E+04 -4.60402E+04  5.28410E+04 -1.87184E+04  4.47835E+04  2.81249E+04  1.31584E+04  4.79007E+04
 -1.24684E+04  3.40642E+04 -2.39801E+04  3.41949E+03 -7.08343E+03 -2.28559E+04  2.35228E+04 -3.20017E+04
  4.50309E+04 -1.13873E+04  3.64163E+04  2.29814E+04  1.81083E+04  4.86134E+04 -1.06722E+04  5.47800E+04
 -3.18156E+04  4.10913E+04 -4.18899E+04  5.02229E+03 -4.40697E+04 -1.30959E+04 -2.15185E+04 -3.86250E+04
  6.87403E+03 -4.25291E+04  3.10826E+04 -1.46407E+04  3.38669E+04  1.07515E+04  6.42987E+03  1.59229E+04
 -1.53531E+04  1.29163E+04 -1.32619E+04 -1.04676E+04  1.00505E+03 -1.34324E+04  2.03748E+04  4.60157E+03
  1.80054E+04  2.68019E+04 -5.25592E+03  3.10554E+04 -1.74468E+04  9.60725E+03 -2.39706E+04 -7.43805E+03
 -2.17962E+04 -1.28318E+04 -1.39422E+04 -2.40900E+04  5.70015E+03 -2.60315E+04  2.28903E+04 -1.98647E+04
  2.64063E+04 -1.26401E+04  3.66940E+04  3.26936E+03  2.39107E+04  2.58630E+04  4.42161E+03  3.84633E+04
 -2.19244E+04  3.32496E+04 -3.05735E+04  4.74631E+03 -1.90109E+04 -7.91341E+03  2.00525E+03 -1.22193E+04
  2.19326E+03 -5.89142E+03 -1.36862E+03  6.50199E+03 -1.93705E+04  1.85946E+03 -1.72431E+04 -4.63084E+03
 -1.14349E+04 -2.38583E+04  8.41506E+03 -2.55454E+04  1.98296E+04 -1.82433E+04  1.93328E+04 -2.36819E+03
  1.14806E+04  1.71867E+04  1.43207E+03  2.08699E+04 -1.33751E+04  1.51306E+04 -2.22240E+04 -2.38244E+03
 -1.52898E+04 -1.77364E+04 -2.23679E+02 -2.61892E+04  1.20039E+04 -2.08985E+04  1.91473E+04 -1.59851E+04
  2.32351E+04 -3.54430E+03  1.50411E+04  2.71646E+03  7.83418E+03  4.20685E+02  1.10636E+04 -1.03068E+03
  2.83571E+04  2.24610E+03  2.07767E+04  1.66070E+04  1.90153E+04  3.28536E+04 -2.40833E+03  3.92019E+04
 -1.70272E+04  3.15672E+04 -3.25307E+04  1.69389E+04 -4.34059E+04 -3.02325E+03 -3.71347E+04 -2.33001E+04
 -1.84655E+04 -3.42022E+04  1.43196E+04 -2.58551E+04  2.79957E+04 -1.66429E+04  2.35018E+04  4.57407E+03
  9.59261E+03  1.59190E+04 -1.35249E+04  1.04548E+04 -2.70443E+04  7.24145E+03 -1.19065E+04 -1.25837E+04
 -2.40787E+03 -1.69658E+04  9.68040E+03 -7.57824E+03  1.28446E+04 -4.66686E+03  3.59904E+03  2.67551E+03
 -8.18497E+03 -4.02623E+02 -5.75243E+03 -8.95722E+03 -1.11692E+03 -2.03382E+04  7.53157E+03 -1.86110E+04
  1.73582E+04 -7.91930E+03  1.90900E+04  1.79120E+03  2.18168E+04  1.67828E+04  1.13320E+04  2.55500E+04
 -4.30288E+03  2.53754E+04 -2.08249E+04  1.59907E+04 -1.95087E+04  5.57121E+03 -9.92116E+03 -4.84994E+03
 -5.77081E+03 -2.31669E+03 -3.57174E+03 -1.29113E+03 -2.84085E+03  2.15383E+03 -4.60923E+03  5.79712E+03
 -1.16015E+04 -2.86773E+03 -1.32593E+04 -1.16475E+04 -4.71837E+03 -1.74093E+04  5.33662E+03 -8.89529E+03
  1.11155E+04 -6.76813E+03  1.35338E+04  4.21783E+03  2.36356E+03  2.27946E+03 -4.97634E+03  1.73622E+02
 -8.30923E+03 -9.64422E+03  2.91192E+02 -1.30907E+04  3.42813E+03 -1.57670E+04  1.29303E+04 -1.47526E+03
  1.55623E+04 -5.76909E+03  1.73704E+04  1.18891E+04  5.76035E+03  1.50209E+04 -1.06129E+04  1.25141E+04
 -1.17529E+04  1.07957E+04 -4.52411E+03 -2.27661E+03 -9.08750E+02 -9.09247E+03  8.80353E+03 -2.17150E+03
  8.98860E+03  6.79555E+03 -1.26516E+03  8.72184E+03 -1.00984E+04  7.52258E+03 -1.51487E+04 -8.42868E+02
 -1.06893E+04 -9.82088E+03  2.71565E+03 -8.45597E+03  8.68808E+03 -9.78577E+03  6.46804E+03  5.41525E+03
  9.57311E+02  9.44484E+03 -5.83396E+03  1.07468E+04 -9.80020E+03  6.78126E+02 -9.52392E+03 -8.07479E+02
 -7.42475E+03 -1.28129E+04  8.69033E+03 -1.47819E+04  1.35708E+04 -7.33948E+03  1.91445E+04  1.83072E+03
  1.38236E+04  8.09383E+03  9.98520E+01  1.06759E+04 -9.84839E+03  2.61611E+03 -1.09355E+04 -5.87228E+03
 -5.97185E+03 -7.16262E+03 -3.54670E+03 -1.18819E+04  4.39389E+03 -1.20750E+04  6.27139E+03  1.70961E+03
  2.17500E+03  1.40265E+03 -2.18183E+03  1.32622E+03  2.74965E+03 -5.21123E+03 -1.17376E+03 -2.59359E+03
 -3.20333E+02 -3.05081E+03  1.66294E+04 -8.35146E+02  1.06753E+04  9.72278E+03  1.07557E+04  1.53400E+04
 -3.90875E+03  1.52974E+04 -1.04798E+04  1.03081E+04 -1.78701E+04 -1.26621E+03 -2.10856E+04 -8.40618E+03
 -7.09898E+03 -1.73113E+04 -1.12423E+03 -1.14080E+04  3.66106E+03 -7.87680E+03  1.83472E+03 -5.51234E+03
  2.89623E+03 -2.03789E+03  7.59626E+03 -6.34229E+03  7.14848E+03 -4.26067E+03  7.42048E+03  5.32197E+02
  1.35895E+04  4.74222E+03  7.67094E+03  6.19768E+03 -3.85294E+03  6.06302E+03 -5.12600E+03  8.47068E+03
 -9.35971E+03 -1.14871E+03 -7.32119E+03 -7.69599E+03  4.46002E+03 -1.52801E+04  2.96260E+03 -1.01656E+04
  1.44138E+04 -2.06458E+03  8.93477E+03  4.19573E+03  1.63140E+04  1.13030E+04 -1.50655E+03  1.22653E+04
 -7.92142E+03  8.05985E+03 -3.66581E+03 -1.97243E+03 -5.72465E+03 -1.81700E+03 -7.10203E+03  2.28310E+03
  6.42351E+02  2.47577E+02 -6.22686E+03  4.71743E+03 -3.81665E+03 -4.02159E+03 -4.95506E+03 -2.11410E+03
 -5.21723E+03 -4.87395E+03  8.80281E+02 -1.12310E+04  7.78356E+03 -1.39652E+04  1.28187E+04 -1.45637E+03
  1.04515E+04  3.55254E+03 -1.09700E+03  9.40450E+03  2.61207E+03  1.00618E+04 -6.14185E+03  7.98445E+03
 -1.45560E+04 -5.48268E+03 -1.05348E+04 -7.20232E+03 -2.45746E+03 -8.21392E+03  2.67107E+03 -9.68873E+03
  4.40177E+03  2.05531E+03  7.24588E+03 -1.95222E+01  5.86902E+02  2.65224E+03 -5.08896E+03  8.67508E+02
  1.05238E+02  5.49715E+03  3.77143E+02 -5.00743E+03  5.49687E+03 -1.82915E+02  1.99405E+03  7.94002E+03
  2.43603E+03  8.90945E+03 -9.16985E+03  1.31200E+04 -1.09419E+04 -2.15740E+02 -1.32557E+04  9.99211E+01
 -7.25461E+03 -1.13062E+04  7.16265E+03 -1.04528E+04  4.15888E+03 -8.32245E+03  8.80542E+03 -5.92814E+03
  6.03410E+02  3.77681E+03 -2.90463E+03  8.98828E+03 -1.54149E+03  5.01939E+03 -5.92888E+03  1.12238E+03
 -1.25410E+03 -9.32940E+02 -7.18837E+02 -9.43573E+03  4.28397E+03  1.93285E+03 -4.31351E+03  6.10672E+03
  6.01052E+03 -7.77368E+02  9.98784E+01  4.06809E+03 -2.05794E+03  8.68194E+03 -8.13540E+03  8.51197E+02
 -3.86960E+03  2.71604E+03  4.89713E+03  2.47226E+03  5.54102E+03  6.49785E+03 -4.39540E+03  7.28202E+03
 -7.51754E+03  8.72868E+03 -1.87961E+03  3.61538E+03 -6.15731E+03  5.94460E+01 -3.55481E+03  3.49449E+03
 -1.73854E+03 -4.08265E+03  6.62171E+03 -7.63499E+03 -4.52360E+02 -1.09593E+03 -7.37391E+02  2.97834E+03
 -4.47203E+03  3.10239E+03 -3.95723E+03 -1.48468E+03 -4.99514E+03 -3.91314E+03 -2.90463E+03 -7.54308E+03
  7.39100E+03 -7.21038E+03  1.64247E+03  4.85889E+01  6.73332E+03  1.98998E+03  3.48575E+03 -6.86651E+02
  1.39905E+03  5.31640E+03 -2.18596E+03 -6.08887E+03  2.11516E+03  3.75063E+03  9.45218E+03 -4.15076E+03
  7.05952E+03 -7.32696E+02  9.14223E+03  4.86974E+03  2.73997E+02  9.51319E+03  6.26741E+02  5.61922E+03
 -1.45602E+02 -3.51782E+03 -1.56944E+03 -6.07560E+02 -2.68203E+03 -2.69923E+03  4.28812E+03 -3.01713E+03
  9.75646E+02 -1.62377E+02  4.16087E+02  3.92826E+03  2.23532E+03  5.61965E+03 -2.39676E+02  5.24199E+03
 -3.51557E+03  8.43607E+02 -4.62151E+03 -1.16531E+03  2.93731E+03 -2.46832E+01 -5.22189E+03  9.06633E+02
 -4.59483E+01  8.17024E+03 -4.59006E+03 -1.67985E+03 -1.20434E+04  1.90230E+03 -8.85000E+03 -6.06836E+03
 -1.50491E+03 -1.31701E+04  2.58359E+03 -7.57728E+03  6.76290E+03 -7.01738E+03  5.20389E+03 -7.45716E+03
  3.61609E+03  7.38907E+03  5.96282E+03  2.64094E+03 -9.81037E+02  4.84555E+03  1.19656E+02  8.59341E+03
  2.33788E+03  1.06854E+03 -3.05810E+03  9.13757E+03  1.33610E+03 -2.61471E+02 -1.99034E+02  3.90688E+03
  4.60591E+02 -4.04337E+03 -1.63353E+03  8.54051E+02 -4.68017E+03 -7.25216E+03  1.42556E+03 -2.74320E+03
  1.59466E+03 -9.97725E+02  3.87572E+03 -3.46978E+03  9.28031E+03  1.43870E+03  1.15203E+02  7.33979E+03
 -4.32699E+03  8.22551E+03 -4.70804E+03  3.90806E+02 -1.16397E+04  8.96908E+02 -7.44335E+03 -4.43898E+03
 -4.49370E+02 -9.08472E+03  5.36347E+03 -1.03591E+04  5.05677E+03 -6.53749E+03  1.90906E+03  2.98457E+03
  2.32501E+03  5.86102E+03 -1.34251E+03  2.04902E+03 -5.33110E+03 -8.39742E+02  1.92311E+03  2.71455E+03
  3.25993E+02  9.28153E+02 -4.69287E+02  2.84529E+03  1.14504E+03  4.21693E+03 -1.07840E+03  2.35763E+03
  3.00204E+03  9.81358E+03  1.75598E+02  1.33103E+03 -4.83122E+02 -1.58475E+03 -3.24269E+03 -7.79350E+02
  4.44698E+03  1.78590E+02  4.26288E+03 -3.37799E+03  1.16390E+04  5.68254E+03  1.57063E+03  1.52818E+03
  4.60372E+03  3.30007E+03  2.45134E+03  3.90046E+02 -1.66487E+02  2.39155E+03 -4.37085E+03  6.03462E+03
 -2.32647E+03  2.20063E+03  2.51714E+02  3.12679E+03 -5.24853E+03 -2.88406E+03 -7.14903E+03  4.46640E+03
 -2.59877E+03 -6.44541E+02  1.75680E+03 -5.98043E+03  5.64510E+03 -5.08323E+03  7.13840E+01  4.96724E+02
 -2.18510E+03  2.26328E+03  4.62061E+03  5.32017E+03 -5.26602E+02  5.63701E+03 -3.15743E+02  7.16030E+03
