 $NMID ID='MM_0lb_SNR50_18hz_g40_10.RAW', FMTDAT='(8E13.5)'
 TRAMP=1., VOLUME=1. $END
  3.08451E+05 -4.21728E+03  3.36384E+05  2.50825E+05  8.52525E+04  3.36162E+05 -1.32591E+05  2.51559E+05
 -1.88141E+05  8.29637E+04 -1.13366E+05 -3.44986E+04 -8.80253E+02 -4.90420E+04  5.40007E+04  5.03045E+02
  3.42020E+04  5.23954E+04 -1.70773E+04  6.92520E+04 -5.78901E+04  6.48584E+04 -8.02169E+04  3.07543E+04
 -7.85906E+04 -1.20052E+04 -6.02584E+04 -4.89887E+04 -1.52241E+04 -6.72869E+04  2.52366E+04 -4.69105E+04
  4.05910E+04  2.18552E+03  1.79673E+04  4.60021E+04 -3.69495E+04  4.78031E+04 -6.43665E+04  3.56256E+02
 -5.30409E+04 -5.60720E+04 -4.11639E+03 -6.95330E+04  3.30131E+04 -5.02282E+04  4.83519E+04 -1.80190E+04
  4.32278E+04  1.06607E+04  2.72599E+04  2.31545E+04  1.32230E+04  3.06807E+04 -2.98607E+03  2.60711E+04
 -2.08913E+04  1.13833E+04 -2.13324E+04 -5.65860E+03 -3.01925E+02 -6.42397E+03  2.42019E+04  9.22293E+03
  1.03152E+04  3.17407E+04 -2.80529E+04  3.10271E+04 -5.90784E+04  4.71197E+03 -5.50053E+04 -4.21254E+04
 -1.26527E+04 -6.06167E+04  4.15202E+04 -4.01665E+04  5.14384E+04  2.25310E+03  3.41045E+04  3.09671E+04
 -5.66065E+03  3.31938E+04 -2.58222E+04  9.03954E+03 -3.15529E+04 -2.54944E+03 -1.34186E+04 -1.06370E+04
 -8.91803E+03 -9.46326E+03 -3.01908E+03 -1.92631E+04  8.19649E+03 -1.58179E+04  1.90886E+04 -1.37056E+04
  1.02126E+04  2.95216E+03 -5.60562E+03  1.34204E+04 -1.96210E+04 -1.17174E+03 -7.20512E+03 -2.99659E+04
  2.45307E+04 -3.71793E+04  4.36020E+04 -1.69279E+04  4.31401E+04  1.74464E+04  1.16040E+04  4.38389E+04
 -1.41231E+04  2.78531E+04 -2.10662E+04  2.39836E+03 -1.11109E+04 -2.61387E+04  1.99325E+04 -3.16824E+04
  3.63947E+04 -4.82024E+03  3.29317E+04  2.51858E+04  1.29430E+04  4.14762E+04 -7.85014E+03  4.03694E+04
 -2.69673E+04  3.08631E+04 -3.72468E+04  8.65304E+03 -3.47840E+04 -1.50136E+04 -2.03104E+04 -3.62638E+04
  1.18576E+04 -3.83982E+04  2.36030E+04 -7.36432E+03  2.36970E+04  7.40153E+03  6.07384E+03  1.96063E+04
 -1.40522E+04  7.81940E+03 -1.14781E+04 -6.32440E+03  4.63975E+03 -1.10135E+04  2.07529E+04  6.59390E+03
  1.79399E+04  2.10026E+04 -1.01795E+04  2.46782E+04 -1.68863E+04  1.10207E+04 -2.37868E+04 -9.23310E+03
 -1.89239E+04 -1.86590E+04 -4.94730E+03 -1.47562E+04  5.77062E+03 -1.22135E+04  1.34423E+04 -1.12001E+04
  2.12300E+04 -1.06381E+04  3.34100E+04 -7.15364E+02  2.15116E+04  1.57796E+04  5.44616E+03  3.10301E+04
 -2.30145E+04  2.73580E+04 -2.29659E+04  8.40440E+03 -1.66412E+04 -1.05808E+04 -2.91454E+03 -1.27867E+04
  8.33376E+03  8.19864E+02 -2.49752E+03  6.89583E+03 -1.55166E+04  6.09414E+03 -1.19777E+04 -6.15291E+03
 -1.05549E+04 -1.46998E+04  2.65035E+03 -1.98933E+04  1.54310E+04 -1.69205E+04  1.24226E+04 -4.05611E+03
  5.63065E+03  8.53647E+03 -5.27037E+03  1.23112E+04 -9.05481E+03  7.23196E+03 -1.70921E+04 -4.27788E+03
 -1.10677E+04 -1.29703E+04 -2.80566E+03 -2.21048E+04  9.67145E+03 -1.69847E+04  1.68574E+04 -5.18060E+03
  1.46692E+04  1.16944E+03  7.60837E+03  4.35853E+03  3.21854E+03  8.28332E+02  1.00681E+04 -4.04310E+02
  1.27041E+04 -1.58807E+03  1.05387E+04  1.46559E+04  7.91016E+03  2.70530E+04  4.60247E+01  2.88622E+04
 -1.57381E+04  2.18569E+04 -2.40336E+04  9.44154E+03 -2.22388E+04 -4.74608E+03 -1.74323E+04 -1.23089E+04
 -8.48567E+03 -2.00996E+04  6.31066E+03 -1.44848E+04  1.21720E+04 -1.03343E+04  1.21563E+04  1.78034E+03
  1.01162E+04  1.03539E+04 -3.99567E+03  1.19162E+04 -1.21231E+04  2.25353E+03 -1.14219E+04 -5.50553E+03
  1.91616E+03 -1.24479E+04  1.02240E+04 -1.21977E+04  7.33032E+03  7.28131E+02  1.41173E+03  6.22167E+03
 -9.09703E+03 -7.09356E+02  3.27385E+03 -4.28740E+03 -1.82296E+01 -1.47218E+04  7.34019E+03 -9.09278E+03
  1.56388E+04 -2.44499E+03  1.11370E+04  5.30523E+03  7.70287E+03  8.52319E+03  5.52958E+03  1.53017E+04
 -3.23095E+03  1.52848E+04 -7.37672E+03  8.06647E+03 -1.40262E+04  4.63023E+03 -1.33218E+04 -7.19204E+02
 -6.49895E+03  4.05436E+02  2.10254E+03 -1.55566E+03 -1.32741E+03  8.35657E+03  3.20173E+03  3.99788E+03
 -9.73419E+03  3.08862E+03 -7.15486E+03 -5.61257E+03 -4.10128E+03 -1.10369E+04  1.34238E+03 -3.33783E+03
  1.14452E+04 -3.54317E+03  6.97633E+03  2.46698E+03  3.24447E+03  5.47059E+03 -6.60544E+03  2.49858E+03
 -9.58615E+02 -3.42375E+03 -9.41888E+02 -5.76564E+03  3.32543E+03 -9.61812E+03  9.14845E+03 -4.88195E+03
  9.91353E+03  2.29351E+03  6.66037E+03  7.31006E+03  7.89498E+03  1.32646E+04 -3.66194E+03  1.12828E+04
 -1.04509E+04  1.86275E+03 -3.23579E+03 -1.43782E+03 -1.57243E+03 -6.53557E+02  8.42716E+03  2.41056E+03
  3.64516E+03  6.37534E+03 -1.06616E+03  3.31237E+03 -5.39651E+03  8.00208E+03 -5.34224E+03  3.63370E+02
 -2.40667E+03 -5.22954E+03  1.22517E+03 -1.02179E+04  6.96777E+03 -3.83617E+03  5.26372E+03  2.33099E+03
  2.72428E+02  3.12256E+03 -6.13341E+03  2.80390E+03 -7.50899E+03 -9.90270E+02 -4.19526E+03 -4.23144E+03
 -2.05972E+03 -8.20400E+03  1.99687E+03 -7.20495E+03  4.91753E+03 -4.40737E+03  1.10147E+04  5.91399E+03
  5.14371E+03  3.92616E+03  6.38338E+01  7.60582E+03 -2.83738E+03  4.19950E+03 -6.47917E+03 -2.42927E+03
 -2.58640E+03 -5.32568E+03 -8.32354E+02 -2.79797E+03  4.64871E+03 -9.17339E+03 -9.85875E+02 -1.67834E+03
 -3.25990E+03  2.11577E+02 -8.64322E+02  2.63912E+03  2.23312E+02 -5.53505E+02 -2.68336E+01 -2.92873E+03
  1.30215E+03 -3.25842E+03  5.65611E+03 -3.34993E+03  2.36364E+03  4.80857E+03  6.20757E+03  8.91939E+03
 -4.87185E+02  5.24067E+03 -5.22138E+03 -1.51327E+03 -8.70790E+03  1.57267E+03 -7.42497E+03 -1.72247E+03
 -6.28415E+03 -9.30057E+03 -2.43000E+03 -2.79835E+03  2.23225E+03 -3.06300E+03 -2.36717E+03 -4.79362E+03
  4.77079E+03 -5.06463E+03  4.66144E+03 -3.06213E+03  1.01850E+03 -3.78426E+02  6.57676E+03 -2.38197E+02
  6.92613E+03 -2.53226E+03 -1.62122E+03 -3.70650E+03 -2.92846E+03 -3.98279E+01 -8.91625E+03  2.35245E+03
 -4.01160E+03  1.75425E+03 -1.21506E+03 -1.77467E+03 -3.74690E+03 -7.84610E+03  5.10258E+03 -4.02903E+03
  3.53964E+03 -4.78981E+03  4.25167E+03  1.78922E+03  4.72086E+03  4.87728E+03 -1.64700E+03  7.67306E+03
 -4.17007E+02  3.40745E+03 -4.33663E+03  2.30651E+03  6.94357E+02 -8.31750E+03 -1.46307E+03 -9.81433E+02
 -7.51311E+02 -3.32529E+03  2.67149E+03  3.85601E+03 -9.73403E+02 -5.61222E+02 -4.01838E+03  1.23695E+03
  3.15310E+01 -4.41750E+03  3.20998E+03 -5.50845E+03  4.05261E+03 -6.31019E+03  6.03788E+03 -1.99334E+02
  5.41991E+03  2.23741E+03  1.03771E+03  2.99974E+03  8.32347E+02  4.17201E+03 -3.82336E+03  1.00742E+03
 -5.76217E+03  3.21065E+03 -4.62626E+03 -1.32184E+03  1.39539E+03 -3.26096E+03  4.25981E+03 -1.82809E+03
  3.89916E+03  1.15568E+03  4.11463E+02  1.78695E+03  7.24244E+03  7.01133E+03  6.06702E+02  2.27502E+03
 -1.82353E+03 -1.27028E+02  6.20365E+02 -3.89911E+02  1.24457E+03 -1.61152E+03  1.75129E+03  4.88166E+02
 -1.00887E+03 -9.53987E+02 -9.60768E+02  2.28784E+03 -1.00004E+03  1.51800E+03 -6.16920E+03  1.61403E+02
 -1.78584E+01 -3.84994E+03  2.66299E+03 -5.94342E+03  3.11703E+03  1.43605E+03  7.26652E+02  1.06920E+03
  4.00714E+03  3.71510E+03  2.39393E+03  2.76382E+03 -2.07740E+03  1.44791E+02 -3.07521E+03 -1.06839E+03
 -3.15187E+03 -9.10920E+02  2.93936E+03  9.15451E+02  2.82567E+03  5.20906E+01  2.20215E+03 -1.19285E+03
 -1.35449E+03  2.46853E+01  2.48662E+03 -9.09052E+02  7.01384E+02 -4.06494E+03  3.12908E+03 -3.59440E+03
  1.71701E+02 -2.43785E+03  1.92503E+03 -5.94653E+01  1.59829E+03  5.22555E+03 -2.98560E+03  1.32584E+03
  1.14003E+03  2.03269E+03 -1.88930E+01  2.08288E+03 -4.85680E+03 -1.28043E+03  1.86513E+03  9.69564E+02
  9.16701E+02 -2.99740E+03  8.57300E+01 -1.54744E+03  2.31549E+02  3.42456E+02 -1.70543E+03  8.51346E+02
 -1.54246E+03 -9.94067E+02 -2.42778E+03 -2.79361E+03 -3.97790E+03 -3.69554E+03  5.27134E+02 -5.03031E+03
  2.78129E+03  5.49674E+02 -2.81327E+03  4.06230E+03  2.40929E+03  2.65041E+03  2.79668E+03 -3.11827E+03
  2.73507E+03 -2.55153E+03 -7.81854E+02 -1.29784E+03  4.70583E+02 -3.44156E+03  1.62257E+03 -9.06464E+02
  1.75454E+01 -4.58156E+02  1.97161E+03 -6.11462E+02 -1.78810E+02 -1.56337E+03 -5.08593E+02  1.20344E+03
 -9.90837E+02  2.24352E+02  2.34320E+02  7.69160E+02 -1.97504E+03  2.41841E+03  5.72515E+03 -1.25459E+03
  1.92103E+03  3.41726E+03  4.64288E+02  1.39426E+03 -1.76707E+03  3.49511E+03 -2.20234E+02 -7.69416E+02
  8.95038E+02 -1.18543E+03  1.29018E+03  2.30253E+03  3.12212E+03  2.50099E+03 -1.36025E+03  2.26078E+03
  9.39256E+02  3.86941E+03  1.39117E+02  3.16168E+02 -4.67283E+03 -2.34142E+03 -5.53788E+03 -3.38250E+03
 -3.66444E+03 -3.78512E+03  2.53446E+03 -2.63239E+03  2.51683E+03 -2.25108E+03  3.86377E+03 -3.11890E+03
  2.55476E+03 -9.87845E+02 -1.09080E+03  4.75052E+03  2.45446E+03  3.09131E+03 -5.05130E+02 -3.02167E+03
 -2.13615E+03 -2.06568E+03 -1.41044E+03 -3.56938E+03 -4.93449E+02  2.12700E+03 -2.07454E+03  2.01082E+03
 -6.44228E+03 -3.12524E+03  8.67752E+02  1.18877E+03  5.35437E+02 -1.91589E+02  3.24495E+03  2.75401E+02
  7.37607E+03 -5.03524E+03  1.26666E+03 -3.39122E+02  1.60287E+03 -1.89552E+03 -3.80345E+02  1.99853E+03
  2.25882E+02  2.13681E+03 -1.47283E+03 -2.96012E+03 -2.47023E+03 -8.72533E+02 -2.47053E+03 -9.60023E+02
  2.14226E+03 -1.89526E+03  2.55007E+02 -3.25072E+03  8.85208E+02  2.28342E+03  1.82156E+03 -2.79684E+02
  7.13761E+02 -3.59319E+03  1.05487E+03  5.85895E+03 -8.66895E+02  3.10922E+03  4.25809E+02 -5.86427E+02
  4.62484E+03  2.68668E+03  3.12856E+03  3.29314E+03  2.29179E+03 -3.15854E+02  2.51276E+03  7.55190E+02
  2.98730E+03  2.46350E+02  3.50814E+02 -2.52686E+03  1.82668E+03 -4.00290E+03  6.37742E+02  2.98935E+03
  6.19223E+03 -2.51359E+02 -5.38223E+02  6.72424E+02 -1.06200E+03 -9.04876E+02 -1.05658E+03  2.41968E+03
  3.59914E+03  5.97678E+02 -4.94925E+03  2.20770E+03 -6.87737E+02  1.35785E+03  1.12644E+03 -4.07551E+03
  1.70214E+02 -1.06062E+03 -1.16086E+03  1.31372E+03 -3.61464E+03  2.26466E+03  1.10101E+03  1.44523E+03
 -2.28690E+02 -6.94337E+02  5.17257E+02 -5.15884E+03  4.02155E+03 -1.41055E+03  1.18671E+03 -1.23527E+03
  9.38001E+02  1.31874E+03  3.27050E+03  6.26942E+02  4.44276E+02  4.60408E+03  1.30722E+03  2.13932E+03
