 $NMID ID='MM_0lb_SNR50_9hz_g50_24.RAW', FMTDAT='(8E13.5)'
 TRAMP=1., VOLUME=1. $END
  3.08330E+05  6.67735E+03  3.36225E+05  2.56558E+05  8.59195E+04  3.30781E+05 -1.30744E+05  2.53130E+05
 -1.89604E+05  8.23479E+04 -1.14993E+05 -3.18458E+04  1.23506E+03 -4.67500E+04  5.05907E+04 -1.58302E+03
  3.77157E+04  5.22713E+04 -2.09108E+04  7.40005E+04 -5.53909E+04  5.85684E+04 -8.27701E+04  3.64033E+04
 -8.39509E+04 -1.25275E+04 -5.47736E+04 -5.10768E+04 -1.37264E+04 -6.93565E+04  2.68669E+04 -5.09626E+04
  4.11518E+04  7.14149E+03  1.50071E+04  4.84560E+04 -3.50287E+04  5.77139E+04 -6.79327E+04  3.20604E+03
 -5.25998E+04 -6.18476E+04 -1.21772E+04 -8.22433E+04  3.38419E+04 -6.27943E+04  5.09819E+04 -2.04801E+04
  4.79332E+04  1.73635E+04  3.19736E+04  3.09588E+04  1.92076E+04  2.83206E+04 -8.96229E+03  2.67355E+04
 -2.41482E+04  1.57790E+04 -2.01850E+04 -6.51199E+03  1.01996E+04 -8.62400E+03  2.71417E+04  1.60188E+04
  5.00073E+03  3.44219E+04 -3.40700E+04  3.66689E+04 -6.91036E+04  8.05525E+03 -5.92680E+04 -4.35965E+04
 -1.13710E+04 -6.89229E+04  3.81201E+04 -5.09180E+04  6.53269E+04 -1.23369E+03  3.35232E+04  3.32378E+04
 -3.65676E+03  4.00549E+04 -3.24271E+04  1.91009E+04 -3.36501E+04 -5.69115E+03 -1.73729E+04 -1.52397E+04
 -2.00012E+04 -1.40667E+04 -5.04620E+03 -2.03171E+04  1.36644E+04 -2.81446E+04  1.58223E+04 -1.43647E+04
  1.53697E+04  5.42978E+03 -1.80806E+04  1.23879E+04 -2.54934E+04 -1.90968E+03 -1.29536E+04 -3.81727E+04
  2.17824E+04 -4.84604E+04  6.16132E+04 -2.66105E+04  4.27598E+04  2.03946E+04  2.34424E+04  5.00754E+04
 -8.89355E+03  3.86549E+04 -1.86082E+04  3.45403E+03 -1.57007E+04 -2.74898E+04  2.48560E+04 -3.34436E+04
  4.41662E+04 -8.37913E+03  4.85952E+04  2.80757E+04  1.88041E+04  4.83192E+04 -1.00608E+04  5.92378E+04
 -3.74463E+04  4.38009E+04 -4.86344E+04  1.08415E+04 -4.76260E+04 -2.43094E+04 -2.90016E+04 -4.25624E+04
  5.29074E+03 -3.81629E+04  3.75677E+04 -1.88290E+04  3.22583E+04  1.18582E+04  7.26995E+03  2.20990E+04
 -1.14701E+04  1.15457E+04 -8.73299E+03 -8.27027E+03  2.51923E+03 -9.41677E+03  2.37957E+04  4.04031E+03
  1.67114E+04  2.06263E+04 -7.91709E+03  3.03503E+04 -1.71206E+04  1.29019E+04 -2.95262E+04  3.94726E+03
 -2.90514E+04 -2.04469E+04 -1.25295E+04 -2.80945E+04  5.97702E+03 -3.01451E+04  2.39948E+04 -2.17156E+04
  3.26469E+04 -1.72177E+04  3.83663E+04  2.16165E+03  2.13482E+04  2.35277E+04  4.79964E+03  4.04690E+04
 -1.49432E+04  3.14280E+04 -2.75998E+04  1.39155E+04 -1.39889E+04 -6.30424E+03 -2.86412E+03 -1.97501E+04
  3.51076E+03 -3.21353E+03 -9.85137E+03  5.91806E+03 -1.72258E+04  5.50903E+03 -1.82122E+04 -8.80665E+03
 -1.15017E+04 -2.02445E+04  8.87404E+03 -2.37202E+04  2.23007E+04 -2.23528E+04  2.68944E+04 -6.51280E+03
  1.80939E+04  1.43091E+04  2.20053E+03  1.96808E+04 -1.31255E+04  1.73068E+04 -2.27145E+04 -1.64041E+03
 -1.69625E+04 -1.80724E+04 -1.07012E+03 -2.61207E+04  1.19531E+04 -2.33564E+04  2.69188E+04 -1.28741E+04
  3.00173E+04  4.17910E+02  1.34655E+04  5.69600E+03  4.94677E+03  6.12744E+03  2.04419E+04 -3.45470E+03
  1.74082E+04 -1.14280E+03  2.68052E+04  2.24555E+04  1.75982E+04  3.97718E+04 -4.07006E+03  4.04569E+04
 -2.52834E+04  3.59010E+04 -3.32621E+04  1.90399E+04 -4.38329E+04 -9.85249E+03 -3.70697E+04 -2.24557E+04
 -1.32920E+04 -3.50379E+04  1.25028E+04 -3.22119E+04  2.39247E+04 -1.50051E+04  2.02632E+04  1.29055E+04
  2.59228E+03  1.56055E+04 -1.38837E+04  1.21879E+04 -1.66092E+04  8.35182E+03 -1.92636E+04 -1.44184E+04
  4.28688E+03 -2.02221E+04  1.46038E+04 -1.08720E+04  8.66877E+03  4.15746E+03  9.63063E+03  5.39158E+03
 -4.11016E+03  7.43756E+03 -1.51005E+04 -9.94195E+03  7.36121E+03 -1.86645E+04  1.29722E+04 -2.12240E+04
  2.79430E+04 -1.92466E+04  3.02768E+04  2.60657E+03  2.45464E+04  1.71386E+04  1.35073E+04  3.02399E+04
 -5.75977E+03  3.60899E+04 -2.49699E+04  1.87297E+04 -2.48839E+04  4.60659E+03 -1.87654E+04 -5.07634E+03
 -5.20002E+03 -2.43028E+03  3.52352E+03  9.24011E+02  7.03502E+03  4.88434E+03 -6.14046E+03  3.73070E+03
 -1.85160E+04 -5.28398E+03 -1.24216E+04 -1.13421E+04 -4.60055E+03 -3.01894E+04  1.15298E+04 -1.60617E+04
  1.67525E+04 -5.78592E+03  4.12238E+03  1.49557E+03  8.81320E+01  6.03867E+03 -5.36849E+03  1.54670E+03
 -1.12964E+04 -5.91291E+03  6.14774E+02 -1.22342E+04  6.70395E+03 -2.10901E+04  2.47931E+04 -9.46264E+03
  2.27074E+04  3.85731E+03  1.76048E+04  1.83783E+04  7.38379E+03  1.93064E+04 -1.19963E+04  1.25716E+04
 -1.11553E+04  8.12364E+01 -1.51176E+04 -6.66264E+02  3.61255E+03 -1.91245E+03  1.10528E+04 -5.45561E+03
  4.34925E+03  5.36661E+03  6.43639E+03  9.41074E+03 -5.98361E+03  9.32755E+03 -1.60111E+04  1.70473E+03
 -8.49866E+03 -1.12894E+04  5.78816E+03 -1.56412E+04  9.45451E+03 -9.16050E+03  1.35474E+04  4.91382E+03
 -2.38424E+03  1.08106E+04 -9.83077E+03  1.27291E+04 -1.39483E+04  2.80847E+03 -1.23430E+04 -3.55061E+03
 -8.70491E+03 -1.33176E+04  3.31955E+03 -2.56449E+04  1.29205E+04 -1.33842E+04  1.08923E+04  1.01550E+03
  1.35332E+04  1.46829E+04  1.50735E+03  2.14504E+04 -1.47636E+04  9.20013E+03 -1.52840E+04 -1.08661E+03
 -7.49908E+03 -1.02344E+04 -3.90745E+03 -1.77482E+04  7.07387E+03 -1.55183E+04  9.89449E+03 -9.03940E+03
  8.65326E+03  8.43293E+03  5.68689E+03 -8.62803E+02  4.75981E+03 -2.61289E+03  1.37589E+03 -8.58559E+03
  1.53909E+04 -7.14214E+03  1.36784E+04  1.77285E+03  1.52668E+04  1.27399E+04  1.36678E+04  1.95272E+04
 -4.93938E+03  1.64055E+04 -2.36257E+04  1.78459E+04 -2.94955E+04  2.36573E+03 -1.85924E+04 -1.25888E+04
 -1.14543E+04 -1.84594E+04  7.79679E+03 -1.77183E+04  6.32759E+03 -7.23582E+03  6.32716E+03 -1.25666E+04
  3.52149E+03 -5.50005E+03  5.38841E+03 -3.42416E+03  4.87230E+03  2.51595E+02  5.60979E+03 -2.89589E+03
  1.15750E+04  5.44883E+03 -2.41567E+01  9.02128E+03  2.82915E+03  1.04243E+04 -9.80807E+03  3.27247E+03
 -1.45243E+04  2.69732E+03 -8.31861E+03 -9.10943E+03  2.17776E+03 -1.42414E+04  9.43537E+03 -1.79005E+04
  1.40322E+04 -1.85346E+03  1.84307E+04  1.78060E+03  1.38373E+04  1.03521E+04 -1.46429E+03  1.14373E+04
 -2.40408E+03  1.27841E+04 -5.55324E+03  1.82002E+03 -9.82792E+03 -1.38521E+03 -7.64300E+03 -9.71342E+02
 -1.72731E+03  2.80444E+03 -2.35970E+03 -1.26658E+03 -8.42723E+03  5.80366E+03 -1.60021E+04 -9.02698E+03
 -2.22072E+03 -1.20604E+04  1.02257E+03 -1.85192E+04  1.36400E+04 -1.40743E+04  1.11013E+04 -3.16605E+03
  1.85426E+04  5.33002E+03  1.05880E+04  1.27758E+04  2.33057E+02  1.20247E+04 -8.49287E+03  1.31339E+04
 -1.05231E+04  6.15939E+03 -1.69777E+04 -4.97793E+03  1.23329E+03 -1.42283E+04  3.01551E+03 -4.58400E+03
  5.83202E+03 -8.14018E+03  5.69852E+03  1.01470E+04  6.07993E+03  9.22881E+03  8.07817E+03 -3.79110E+03
  2.42545E+03  3.82725E+03  8.92817E+03  3.99724E+03  1.00068E+04  6.66540E+03  5.77190E+03  4.08475E+03
  1.38637E+03  1.19811E+04 -1.04857E+04  1.05089E+04 -2.47750E+04  1.49139E+02 -1.68998E+04 -1.38064E+04
 -5.28398E+03 -1.68299E+04 -3.51186E+02 -1.89340E+04  9.85635E+03 -6.97611E+03  1.09097E+04 -6.86206E+03
  9.58999E+03  4.06871E+03  2.65014E+03  9.79831E+03 -2.88545E+03  2.90490E+03 -7.68930E+03 -1.84592E+03
 -3.34123E+03 -5.33177E+03  6.78022E+03 -1.04309E+04  6.48534E+03 -7.07431E+02  3.59358E+03  5.36335E+03
 -2.66390E+03  5.30510E+02 -2.01489E+03  1.01305E+03 -2.99480E+03 -4.05822E+03 -2.80832E+03 -6.88305E+03
 -4.24304E+03 -5.22700E+03  2.35908E+03  4.28343E+03  6.10038E+03  1.16255E+04 -5.24415E+03  9.11353E+03
 -1.01194E+04  9.84045E+03 -8.90454E+03  2.86436E+03 -1.23730E+04 -6.15777E+03 -4.87776E+03 -5.81035E+03
 -2.62324E+03 -8.05361E+03  9.38313E+03  2.61118E+03  7.81559E+03 -2.86394E+02  3.11997E+03  5.68592E+03
 -6.43848E+03  4.80830E+03 -8.51886E+03 -3.53778E+03 -1.74735E+02 -9.03978E+03  4.43674E+03 -8.99360E+03
  8.00639E+03 -4.38278E+03  8.17145E+03 -4.75077E+03  3.39936E+03  2.40123E+03 -3.27532E+03  1.02903E+04
  5.54915E+02 -4.25812E+03 -2.71651E+03 -3.27267E+03  8.04290E+02 -1.21136E+03  1.33471E+04 -2.91912E+03
  1.28705E+04  2.57368E+02  1.00838E+04  2.74652E+03  4.59222E+03  1.36640E+04 -5.79335E+02  5.54672E+03
 -1.19523E+04  7.72178E+02 -1.34636E+04  5.10892E+03 -4.06736E+03 -8.00759E+03 -2.09752E+03 -6.55853E+02
  6.84027E+03 -4.44065E+03  8.35755E+03  9.45107E+03  1.49777E+03  3.08796E+03  7.40776E+02 -5.58035E+02
  8.19746E+02  2.87909E+03  7.49866E+02 -2.93561E+03 -2.22948E+03  2.30898E+03  3.66693E+02  3.23170E+03
  2.31907E+02  1.32835E+03 -9.52577E+03  3.94525E+03 -1.29825E+04 -4.13743E+02 -9.04344E+03 -7.13207E+03
 -4.50244E+03 -1.42693E+04  1.11635E+04 -1.56161E+04  1.22726E+04 -1.13363E+04  1.27116E+04 -5.04964E+03
  1.85591E+04  6.87178E+03  6.37353E+03  9.50047E+03 -3.70317E+02  1.16123E+04 -8.43516E+03  1.55928E+04
 -8.47252E+03  2.74132E+03  1.28743E+03  1.62382E+03 -2.47587E+03  1.19568E+03  1.93015E+03  3.67015E+03
 -2.11431E+03  1.39080E+03 -1.97292E+03 -2.98076E+03 -8.23288E+02 -7.11440E+03 -2.72125E+03 -1.36125E+03
  5.74601E+03 -5.37807E+03  6.31656E+03  2.01038E+03  1.40052E+04  7.81787E+03  7.03637E+03  7.15040E+03
 -2.84025E+03  4.89657E+03 -6.18006E+03  3.64340E+03 -1.44696E+04 -3.63841E+03 -1.33133E+04 -1.30179E+04
  2.99452E+02 -1.02421E+04  3.64369E+03 -6.57062E+03  5.02815E+03 -4.91922E+03  2.22575E+03 -7.82432E+02
  3.09840E+03  6.28353E+02  8.11089E+02  4.01368E+03  8.87475E+02  1.56563E+03 -5.14140E+03 -4.99389E+03
  3.56316E+03 -3.77776E+03  7.48064E+03 -3.93331E+02 -1.91099E+03  1.44608E+03  5.81715E+03  1.02903E+04
 -3.57953E+03  5.95469E+03 -8.64598E+03 -2.49812E+03 -5.53319E+03 -7.23630E+03 -7.06387E+03 -4.14496E+03
  3.76202E+03 -7.06577E+03  8.30824E+03 -5.83707E+03  7.61984E+03  5.38848E+03  1.54483E+03  7.11576E+03
  1.86649E+03  3.01668E+03 -6.47847E+02  8.37865E+03 -5.42308E+03  3.54631E+03 -3.24226E+03 -1.70707E+03
 -4.07092E+03  2.89196E+03 -4.37080E+03  2.60375E+03 -1.22549E+03  2.22276E+03 -1.65333E+03 -6.10992E+03
 -1.17331E+04 -1.99999E+03 -6.50440E+03 -1.30829E+04  9.00142E+02 -5.46465E+03  5.78262E+03 -2.52190E+03
  4.06239E+03 -4.57146E+02  4.58117E+03  4.42060E+03  1.36440E+03  1.01080E+04 -3.83000E+03  4.30738E+03
