 $NMID ID='MM_0lb_SNR50_20hz_g50_48.RAW', FMTDAT='(8E13.5)'
 TRAMP=1., VOLUME=1. $END
  3.06862E+05  2.05951E+03  3.40594E+05  2.49600E+05  8.40095E+04  3.35271E+05 -1.33107E+05  2.51451E+05
 -1.92351E+05  8.69908E+04 -1.11305E+05 -3.35379E+04  2.72689E+03 -5.14029E+04  5.92769E+04  2.37842E+03
  3.67103E+04  5.29714E+04 -1.67838E+04  7.39431E+04 -5.59455E+04  6.32742E+04 -8.27537E+04  3.26993E+04
 -7.94937E+04 -1.28388E+04 -5.46401E+04 -4.87166E+04 -1.51747E+04 -6.91689E+04  2.76478E+04 -4.43868E+04
  3.97304E+04  7.81324E+03  1.43525E+04  4.68039E+04 -3.61304E+04  4.44661E+04 -6.35360E+04  2.04755E+03
 -5.29910E+04 -5.81091E+04 -6.42264E+03 -7.52954E+04  2.80375E+04 -5.28045E+04  4.21031E+04 -1.49176E+04
  4.29053E+04  1.27861E+04  2.76017E+04  2.38655E+04  1.54876E+04  2.78241E+04 -6.87074E+03  3.09025E+04
 -2.08229E+04  1.17716E+04 -2.02477E+04 -3.64769E+03  2.59905E+03 -3.79197E+03  1.96728E+04  1.24277E+04
  6.28333E+03  3.34245E+04 -3.50286E+04  3.57942E+04 -6.49197E+04  1.69069E+03 -5.61548E+04 -4.38525E+04
 -1.06686E+04 -6.17200E+04  3.76716E+04 -3.93996E+04  5.37024E+04 -2.03590E+03  3.12272E+04  3.05445E+04
 -7.50180E+03  3.36275E+04 -2.60795E+04  1.09056E+04 -2.84599E+04 -4.08318E+03 -1.37139E+04 -1.13541E+04
 -6.40811E+03 -1.38974E+04  1.50825E+03 -1.12078E+04  8.17094E+03 -2.03897E+04  1.70515E+04 -1.23244E+04
  9.61309E+03  4.61380E+03 -6.91862E+03  1.39567E+04 -1.66516E+04 -3.31314E+02 -1.00027E+04 -2.55984E+04
  1.76844E+04 -4.41002E+04  4.72881E+04 -1.77548E+04  4.47225E+04  1.70750E+04  1.28163E+04  4.27966E+04
 -1.81788E+04  3.18231E+04 -2.33237E+04  1.86129E+02 -6.11819E+03 -2.21560E+04  1.97493E+04 -3.17412E+04
  3.88945E+04 -4.58723E+03  3.19060E+04  2.24141E+04  1.77985E+04  4.18397E+04 -7.60195E+03  4.15536E+04
 -3.16719E+04  2.84361E+04 -3.55975E+04  1.02868E+04 -3.90592E+04 -1.50599E+04 -2.08748E+04 -3.52775E+04
 -1.05627E+03 -3.21046E+04  2.81647E+04 -1.23274E+04  2.31026E+04  1.15517E+04  5.82335E+03  1.59103E+04
 -1.08063E+04  4.97684E+03 -1.34033E+04 -4.35248E+03  5.58788E+03 -7.13855E+03  1.91954E+04  1.18974E+04
  1.58977E+04  2.02105E+04 -7.84178E+03  2.30078E+04 -2.01347E+04  9.35581E+03 -2.78840E+04 -6.82086E+03
 -1.55484E+04 -1.42503E+04 -4.73317E+03 -1.41072E+04  3.54462E+02 -1.79870E+04  1.25412E+04 -1.70058E+04
  2.01382E+04 -1.50795E+04  2.71171E+04  3.52644E+03  2.19966E+04  1.02888E+04 -5.25558E+01  2.56713E+04
 -1.58732E+04  2.76952E+04 -2.70762E+04  9.52649E+03 -1.58335E+04 -1.14403E+04 -2.44944E+03 -1.01822E+04
  2.21503E+03 -6.42249E+03  7.32243E+02  6.74296E+03 -1.08585E+04  7.34436E+02 -1.30447E+04 -6.16162E+03
 -7.96940E+03 -1.12947E+04  2.34330E+03 -1.80187E+04  1.33273E+04 -1.48047E+04  1.40566E+04  5.19913E+02
  6.38204E+03  9.91730E+03  2.02973E+03  1.51442E+04 -1.27089E+04  9.02629E+03 -1.53135E+04 -2.53526E+03
 -1.38054E+04 -1.24486E+04 -5.27436E+02 -1.97654E+04  4.95296E+03 -1.45501E+04  1.48558E+04 -8.40296E+03
  1.43704E+04  1.78113E+03  8.28182E+03  1.83887E+03  3.07588E+03  2.50189E+03  6.12824E+03 -1.96909E+03
  1.29545E+04  4.03604E+03  1.53952E+04  8.01496E+03  8.15563E+03  2.33686E+04 -1.85014E+03  2.08280E+04
 -1.43028E+04  2.05884E+04 -2.44785E+04  8.47480E+03 -2.21019E+04  1.68501E+03 -1.53375E+04 -1.35533E+04
 -9.14578E+03 -1.98957E+04  5.62815E+02 -2.13644E+04  1.16200E+04 -9.74615E+03  1.71057E+04  1.71287E+03
  9.06570E+03  9.74847E+03 -6.75572E+03  1.33256E+04 -1.61232E+04  6.30231E+03 -8.95222E+03 -8.80919E+03
 -2.17127E+03 -1.02346E+04  5.85040E+03 -1.00806E+04  5.62604E+03 -4.01478E+03 -6.36439E+00  7.17891E+03
 -2.42833E+03  1.48638E+03 -7.76218E+03 -2.05828E+03  2.25189E+03 -1.14748E+04  4.70169E+03 -9.47612E+03
  1.15723E+04 -1.56840E+03  1.05832E+04  2.66293E+03  9.31053E+03  5.93947E+03  3.79417E+03  1.48110E+04
 -4.47353E+03  1.65777E+04 -6.73744E+03  7.27786E+03 -1.12544E+04  5.87752E+03 -9.87084E+03 -1.80765E+03
 -8.17209E+03 -5.22334E+03 -3.00104E+03 -5.74929E+02  3.39504E+02  5.35061E+03 -6.67333E+03  4.04331E+03
 -5.34348E+03 -5.56738E+03 -8.36254E+03 -5.33673E+03 -4.14519E+03 -1.19724E+04  1.70586E+03 -8.05146E+03
  6.63385E+03 -3.99700E+03  5.80212E+03  5.86821E+03 -7.18710E+02 -6.55667E+02 -3.48916E+03  5.13509E+02
 -1.82851E+03 -6.20707E+03 -1.04652E+03 -7.47029E+03  1.75175E+03 -1.13099E+04  9.66409E+03 -8.93046E+02
  1.19711E+04 -3.47034E+03  8.45668E+03  3.68691E+03  7.06317E+03  6.48136E+03 -3.93379E+03  6.55861E+03
 -5.84750E+03  2.92876E+03 -4.92214E+03  1.53284E+03  1.51629E+03 -9.59537E+02 -7.09979E+02 -2.71235E+03
  5.04729E+03  3.99638E+03  5.46336E+03  4.22349E+03 -1.80918E+03  9.85207E+03 -7.93778E+03  4.47003E+03
 -3.95102E+03 -2.29694E+03 -9.37637E+02 -6.76728E+03  4.95318E+03 -3.89496E+03  1.54261E+03 -1.84485E+03
 -6.04467E+02  7.61497E+03 -1.11275E+03  4.19572E+03 -4.86123E+03  2.67021E+03 -3.24708E+03 -1.33295E+02
 -2.33901E+03 -3.40602E+03  3.57030E+03 -2.31911E+03  1.64293E+03 -6.59458E+03  4.01290E+03 -1.67568E+03
  4.00298E+03  2.04238E+03 -6.50939E+02  6.98615E+03 -5.16681E+03  2.68755E+03 -8.38355E+03  4.42369E+03
 -6.48311E+03 -3.85346E+03  3.30779E+01 -4.82160E+03  3.21797E+02 -5.48718E+03  4.27265E+03 -4.99966E+03
  5.07762E+03 -1.46933E+03  8.82827E+02  1.57803E+03 -4.11560E+03  2.08536E+03 -5.02128E+03 -1.10745E+03
  1.18695E+03  9.65012E+02  4.55900E+03 -1.57062E+03  2.57320E+03  6.16438E+03  4.20208E+03  9.56587E+03
 -4.41933E+02  9.33308E+03 -6.80468E+03  4.09397E+03 -5.48513E+03 -1.41121E+03 -8.35790E+03 -4.68384E+03
 -3.70725E+02 -6.90441E+03 -1.65474E+03 -2.21326E+03 -2.36974E+02 -1.66910E+03 -1.22005E+03 -2.28192E+03
  1.54860E+03 -3.86149E+03  2.91732E+02 -8.05938E+03 -7.43962E+01  1.70316E+02  6.56597E+03  2.79118E+03
  5.05996E+03  4.26865E+03  2.10420E+03  1.63389E+03 -2.71561E+03 -1.39612E+03 -1.83792E+03  4.94371E+03
  7.10265E+02  2.27564E+03  1.22532E+01 -5.86445E+03  1.22672E+03  1.51356E+03 -2.16156E+02 -3.40330E+03
  4.17502E+03  1.33834E+02  5.00216E+03  2.84277E+03  5.26654E+03  4.45964E+03  1.19551E+03  5.13597E+03
 -4.02502E+03  5.77439E+03 -6.31087E+03 -8.38780E+02  3.41377E+02 -4.73937E+03 -2.05975E+03 -1.82017E+03
 -4.82687E+02  8.53981E+02 -1.55466E+02  2.68612E+03 -3.59744E+03  3.34820E+03 -3.99339E+03 -2.65353E+03
 -2.07125E+03 -4.65618E+03  5.93682E+02 -5.63637E+03  4.29203E+03 -5.94925E+03  6.51928E+03  1.54818E+03
  4.28608E+03  1.77218E+02  4.76709E+03  2.33877E+03 -1.63433E+03  1.66187E+03 -1.65574E+03 -3.04821E+03
 -3.53308E+03  1.59744E+03 -4.67362E+03  1.27106E+03  5.51086E+02 -5.45281E+03  3.66863E+02 -4.41480E+03
  2.64459E+03  1.97771E+02  3.17257E+03 -1.69158E+03  9.38744E+02  4.93512E+03  4.67873E+03  2.06779E+03
  2.99399E+03 -3.43099E+03  6.80683E+02  2.33414E+03 -5.46751E+01  2.00091E+03  3.10153E+02  1.82847E+03
 -4.84310E+03  2.03458E+03 -7.60136E+03  3.97491E+03  1.70260E+03 -1.96992E+03  3.74118E+02 -9.89972E+01
  1.32848E+03 -4.69012E+03  1.94435E+03 -3.49488E+03  2.50915E+03 -3.77939E+03  4.59432E+03  2.03948E+03
  2.27734E+03  5.59375E+03 -4.40064E+02 -3.29514E+03  2.28693E+03  2.27933E+03  1.27790E+03 -2.65496E+03
  2.42426E+03 -4.88379E+02  1.60703E+03  4.24929E+02 -2.82260E+02 -8.42765E+02  7.57291E+02 -9.07753E+02
  1.57532E+03  3.86026E+03  2.77105E+02 -2.91375E+03 -1.98198E+03  2.35762E+02  8.61937E+02  2.78710E+02
 -7.12382E+02  3.76991E+03  4.98806E+03  9.21258E+02  2.01334E+03  2.59261E+03  2.33343E+03  3.17912E+03
  1.88854E+03  4.61902E+03  4.69216E+02  4.17050E+02  1.77784E+03 -2.19389E+03  4.39484E+03  1.50432E+02
 -2.37621E+03  3.95070E+03  2.38179E+03 -3.63848E+02  1.40865E+03  7.69359E+03  5.95077E+02 -1.23246E+03
 -2.44250E+03  4.44782E+02 -1.30748E+03  1.49303E+03 -4.92519E+03 -1.72425E+03  1.98205E+03 -2.80356E+03
 -1.94669E+03  2.50200E+02  1.09942E+03 -2.74866E+02  2.97250E+03  4.30934E+02  8.56812E+02  4.77172E+02
 -2.68754E+03 -2.79857E+02 -3.57170E+03 -1.12441E+02 -3.94778E+03  2.27647E+03  3.44704E+03 -6.46167E+02
  3.45214E+03 -4.52605E+02  3.21155E+02  5.82542E+02  2.21594E+03 -7.25123E+01 -6.06153E+02 -4.92862E+02
 -1.68941E+03 -3.21169E+03  1.41226E+03  1.74012E+03 -8.45305E+02 -2.03980E+03 -3.31464E+03 -1.91440E+03
  1.23906E+03 -4.70994E+03 -2.08408E+03  4.14750E+03 -9.10468E+02  6.54556E+03 -2.58817E+03 -2.44128E+03
 -2.98745E+03 -3.89838E+03 -3.89346E+03 -2.50852E+03 -1.81824E+03  2.41662E+03  2.72118E+03  4.37403E+03
  2.86870E+03  1.82495E+03 -4.97894E+03  3.26699E+02 -4.45408E+03 -1.47853E+03 -2.94059E+03 -1.59167E+03
 -2.71553E+03 -2.17226E+03 -3.87864E+03 -1.31829E+03 -1.21860E+03 -2.32632E+03  1.64099E+03  7.50783E+02
  1.48832E+03 -1.38438E+03 -2.24843E+03 -1.39931E+03 -1.83614E+03 -9.22838E+02 -9.00088E+02  6.82224E+02
  4.23266E+03  2.35314E+02 -1.72198E+03  1.37799E+02  3.36341E+03 -1.39877E+03  4.10672E+03  6.54620E+02
 -1.66271E+03 -2.04132E+03 -1.60586E+03  1.96433E+03 -2.36941E+03  3.92394E+03  2.23237E+03 -4.69842E+02
  3.37439E+03  2.79773E+02  2.05045E+03  8.89614E+02 -2.33786E+03  2.67273E+02 -7.34959E+02 -5.18258E+02
  1.62133E+03 -1.00050E+03  3.59738E+03  3.19333E+03 -2.33359E+03 -6.33492E+02 -1.32371E+03  1.89154E+01
  5.27385E+02 -2.12038E+03  1.31290E+03 -2.09345E+02  3.66043E+03  1.92234E+03 -1.61002E+03 -4.79002E+02
  1.97453E+02  1.06391E+03  6.28834E+02 -3.94550E+02 -2.15836E+03 -3.96202E+03 -1.05000E+01  9.61069E+02
  1.32984E+03  6.24838E+02  2.25752E+03 -2.10017E+03  3.43003E+02 -8.70460E+02 -7.87315E+02 -2.62573E+03
 -1.64942E+03 -9.79985E+02 -3.02718E+03  7.80725E+01 -1.83559E+02  2.98535E+03 -4.16027E+02 -6.59842E+02
  4.32923E+02 -1.33912E+02 -9.16042E+02  6.14290E+02 -1.72614E+02 -2.74069E+03 -3.10254E+03  4.21688E+02
  8.14338E+01 -1.06761E+03 -1.48197E+02  1.07686E+03 -1.82419E+03  2.04889E+03  4.84113E+03  3.39438E+03
 -1.10154E+03 -3.95280E+02  1.34000E+03 -1.14922E+03  3.79669E+03 -4.66367E+02 -1.57559E+03 -1.01555E+03
  2.51244E+03 -3.61515E+02 -2.49716E+02 -2.91677E+03  3.02976E+03  6.48446E+02  4.38141E+02  5.40638E+02
  6.08335E+02  2.03322E+03  3.52920E+03 -2.73919E+03  5.84676E+02  3.03073E+03 -6.14633E+02 -1.13210E+03
