 $NMID ID='MM_0lb_SNR50_12hz_g40_14.RAW', FMTDAT='(8E13.5)'
 TRAMP=1., VOLUME=1. $END
  3.09269E+05  1.90251E+03  3.34538E+05  2.47420E+05  8.17865E+04  3.40325E+05 -1.35360E+05  2.52549E+05
 -1.80923E+05  7.94875E+04 -1.08344E+05 -3.79247E+04 -2.64588E+02 -5.28691E+04  4.67577E+04 -4.02513E+03
  3.89990E+04  5.24472E+04 -1.83602E+04  7.92334E+04 -6.45408E+04  6.79973E+04 -8.32353E+04  3.21189E+04
 -8.04223E+04 -1.51440E+04 -5.96395E+04 -5.28601E+04 -1.86939E+04 -6.65465E+04  2.79321E+04 -4.45204E+04
  3.62618E+04  6.56112E+03  2.12539E+04  4.95027E+04 -3.73447E+04  4.42665E+04 -6.62363E+04  3.48628E+03
 -5.56169E+04 -5.81584E+04 -6.60047E+03 -7.99692E+04  3.00842E+04 -5.72998E+04  4.60869E+04 -2.17176E+04
  4.23286E+04  1.26585E+04  3.65530E+04  2.39254E+04  1.47441E+04  2.95342E+04 -8.39673E+03  2.49739E+04
 -1.84637E+04  8.50271E+03 -2.04581E+04 -6.24982E+02  5.24404E+03 -4.57473E+03  2.36818E+04  1.70473E+04
  8.09550E+03  3.80924E+04 -3.10219E+04  3.83727E+04 -6.44969E+04 -9.06590E+02 -5.65519E+04 -4.56073E+04
 -1.43752E+04 -6.23448E+04  4.10139E+04 -4.91588E+04  5.74329E+04 -5.57733E+03  3.55352E+04  3.06096E+04
 -5.96633E+03  3.52739E+04 -2.72610E+04  1.50026E+04 -3.02181E+04 -8.55628E+03 -1.61751E+04 -1.08711E+04
 -6.08710E+03 -1.57721E+04 -4.03219E+03 -2.03556E+04  5.73194E+03 -2.46761E+04  1.38361E+04 -1.46467E+04
  1.24888E+04  1.28312E+04 -6.49294E+03  1.20420E+04 -2.18546E+04 -3.64482E+03 -8.02585E+03 -3.61745E+04
  1.81011E+04 -4.31271E+04  4.37477E+04 -2.38812E+04  4.21594E+04  2.10629E+04  1.93562E+04  4.02001E+04
 -1.41208E+04  3.39764E+04 -2.65506E+04  2.64075E+03 -9.06766E+03 -3.07023E+04  2.03813E+04 -3.66605E+04
  3.60186E+04 -1.15273E+04  3.53986E+04  2.35593E+04  2.00694E+04  4.75575E+04 -8.45451E+03  5.00301E+04
 -3.52491E+04  3.42926E+04 -3.95261E+04  9.13235E+03 -4.20734E+04 -1.30037E+04 -2.38601E+04 -3.99388E+04
  4.81086E+03 -3.66839E+04  3.46556E+04 -1.21613E+04  2.89708E+04  1.16041E+04  3.82887E+03  2.39330E+04
 -1.50693E+04  7.59114E+03 -1.34992E+04 -1.59578E+03  8.26848E+03 -1.22066E+04  1.74026E+04  7.09891E+03
  1.69787E+04  2.11161E+04 -5.90401E+03  2.17449E+04 -1.96974E+04  1.34073E+04 -3.50166E+04 -5.23867E+03
 -2.33754E+04 -1.36648E+04 -1.04887E+04 -1.80005E+04  9.54882E+03 -2.31817E+04  1.72675E+04 -2.10864E+04
  2.40049E+04 -1.34343E+04  3.48397E+04  9.16447E+03  1.95069E+04  2.21428E+04  6.63883E+03  3.85841E+04
 -1.20705E+04  3.44571E+04 -2.87795E+04  9.66342E+03 -2.65938E+04 -1.03712E+04 -2.82383E+03 -1.48157E+04
  4.17587E+03 -5.85391E+03 -6.21548E+03  9.93610E+03 -1.94511E+04  6.49937E+03 -1.90002E+04 -8.42872E+03
 -1.01270E+04 -1.77680E+04  2.88117E+03 -2.01665E+04  1.71806E+04 -1.81360E+04  2.13013E+04 -3.30978E+03
  9.91997E+03  2.52339E+04 -4.40821E+03  1.88359E+04 -1.89276E+04  7.06075E+03 -1.82066E+04 -7.70005E+03
 -1.73362E+04 -1.98227E+04 -2.16713E+03 -2.47619E+04  8.62341E+03 -1.93266E+04  1.79923E+04 -9.44013E+03
  2.24158E+04  1.71116E+02  9.26409E+03  2.99335E+03  4.28290E+03 -6.26615E+02  8.30482E+03  2.72241E+03
  1.87078E+04  3.06373E+03  1.92716E+04  1.54746E+04  1.08413E+04  3.15118E+04 -6.12315E+03  3.53634E+04
 -1.79583E+04  2.89758E+04 -3.50363E+04  1.43830E+04 -3.64541E+04  1.63002E+03 -2.57655E+04 -1.88894E+04
 -1.32049E+04 -3.47631E+04  9.62424E+03 -2.37748E+04  1.64972E+04 -1.50465E+04  1.65387E+04  9.14327E+02
  1.04975E+04  2.05689E+04 -9.81146E+03  1.18876E+04 -1.61300E+04  1.73227E+03 -1.26938E+04 -7.85480E+03
 -2.08677E+03 -1.45448E+04  5.19693E+03 -1.85260E+04  7.62553E+03 -1.61403E+03  3.19636E+03  3.04393E+03
 -9.45218E+03  5.82418E+03 -5.85505E+03 -1.22854E+04  1.18861E+03 -8.21193E+03  1.64894E+04 -1.55237E+04
  1.33171E+04 -6.66030E+03  2.09247E+04  3.22504E+03  1.92035E+04  1.32956E+04  6.89567E+03  2.10484E+04
 -3.82277E+03  2.85227E+04 -1.45269E+04  1.09584E+04 -1.42279E+04  2.24787E+03 -1.02373E+04 -4.48285E+03
 -4.96059E+03 -7.61830E+03  1.16399E+03  1.46855E+03  1.19838E+02  1.15350E+03 -3.85478E+03  2.27381E+03
 -1.44554E+04 -6.24512E+02 -9.50818E+03 -1.23799E+04 -9.50101E+03 -1.35000E+04  2.70830E+03 -1.26806E+04
  5.53726E+03 -1.45803E+03  7.13797E+03 -1.14695E+02 -2.34343E+03  7.15742E+03 -7.23240E+03  5.06136E+03
 -5.39800E+03 -1.12467E+04 -3.25721E+03 -1.11996E+04  5.65347E+03 -1.01868E+04  1.49751E+04 -7.67695E+03
  2.42977E+04 -3.17793E+03  8.75001E+03  4.84847E+03  2.71664E+03  1.34794E+04 -8.21584E+03  1.01543E+04
 -9.79077E+03  3.64571E+03 -1.46544E+04 -6.48488E+03 -7.61662E+01 -3.97741E+03  9.34060E+03 -4.65231E+03
  5.54829E+03  8.10209E+03  4.08499E+03  9.36316E+03 -6.62816E+03  5.88888E+03 -1.16207E+04  3.15426E+03
 -6.05712E+03 -6.04420E+03  6.89321E+02 -7.24435E+03  8.67654E+03 -5.85226E+03  2.59154E+03  3.05379E+03
  2.54300E+03  6.64907E+03 -1.26634E+03  9.22447E+03 -8.38469E+03  4.28020E+03 -1.41190E+04 -4.56978E+03
 -7.74332E+03 -1.03271E+04 -4.25264E+02 -1.23789E+04  7.50807E+03 -9.17735E+03  6.67397E+03  5.70840E+03
  7.25978E+03  1.01301E+04 -1.59781E+03  1.02927E+04 -8.36335E+03  6.45740E+03 -1.01588E+04 -3.04103E+03
 -5.43056E+03 -4.89061E+03 -2.53336E+03 -1.11143E+04  5.83921E+03 -3.57616E+03  8.73610E+03 -2.40740E+03
  2.92505E+03  9.44988E+02  2.12552E+03  4.02544E+03  3.25971E+03 -2.40111E+02  1.22769E+03 -7.02958E+02
  4.59374E+03  1.40879E+03  5.28140E+03 -2.06048E+02  1.24885E+04  7.51846E+03  3.56791E+03  1.35940E+04
  3.74723E+03  1.00232E+04 -1.88693E+04  1.43758E+04 -1.85387E+04  6.93069E+02 -1.53752E+04 -5.24671E+03
 -6.39434E+03 -6.64758E+03 -1.81104E+02 -8.74974E+03  2.64583E+03 -8.10986E+03  4.88981E+03 -4.75649E+03
  2.99582E+03  5.74396E+03  7.13932E+02 -3.03037E+03  2.17228E+03 -3.13549E+03  5.70167E+02  6.63265E+02
  1.07223E+04  3.79663E+03  5.73433E+03  7.40691E+03 -1.08637E+04  5.81422E+03 -4.55810E+03  1.06664E+04
 -1.37592E+04  3.96391E+03 -8.01022E+03 -7.46498E+03  2.65068E+03 -1.35551E+04  5.17526E+03 -1.25955E+04
  1.16756E+04 -5.96062E+03  1.28156E+04  5.25886E+02  1.26652E+04  5.91426E+03  1.15322E+03  1.04384E+04
 -1.23227E+03  6.06327E+03 -7.16022E+02  5.82319E+03 -2.55880E+03 -2.59079E+03 -5.52970E+03  2.41376E+03
 -2.80045E+03  3.64303E+02  1.22526E+03 -8.43100E+01 -1.32754E+03  6.19034E+03 -5.28047E+03 -3.69394E+02
 -4.27313E+03 -1.07267E+04 -2.46363E+03 -1.63577E+04  3.73161E+03 -7.39727E+03  8.71269E+03 -3.01208E+03
  4.44076E+03  1.99746E+03  1.06562E+03  1.09766E+04  2.34351E+03  9.20677E+03 -9.90610E+03  3.62232E+03
 -9.61518E+03  4.16820E+03 -3.95680E+03  4.69648E+02 -2.20859E+03 -3.03254E+03  2.09318E+03 -4.85271E+03
  7.61442E+03 -7.41137E+03  1.36836E+03 -2.76816E+03  1.69346E+03  3.58200E+03  9.11768E+01  4.03781E+03
  5.80279E+03  9.42935E+02  6.67641E+03  2.56290E+03 -1.44815E+03  1.58866E+03  1.01584E+03  3.02630E+03
 -1.46288E+03  1.19014E+04 -8.58543E+03  7.87129E+03 -7.48902E+03  5.13830E+03 -9.03661E+03 -7.77400E+03
 -6.11104E+03 -7.98455E+03  9.21009E+03 -7.66930E+03  5.11074E+03 -3.45429E+03  6.38256E+03  4.45517E+01
  4.74925E+03  3.92723E+03 -6.68389E+01  4.18888E+03 -3.81345E+03  5.56600E+03 -4.13891E+03  1.09545E+03
  1.50706E+03 -6.50351E+03  4.47217E+03 -4.41354E+03  2.30417E+03 -6.68334E+03  7.64766E+03  1.81747E+03
  3.79814E+03  2.18317E+03  2.27628E+03  1.06430E+03  1.87992E+03  2.91578E+03 -2.15107E+03  5.61579E+03
  4.85074E+03  9.50045E+01  4.83450E+03  4.13167E+03  4.04408E+03  1.45796E+03  6.03944E+02  5.49410E+03
  6.59130E+02  2.36163E+03 -7.10066E+03 -8.37584E+01 -5.77151E+03 -3.44523E+03 -3.06590E+03 -2.78781E+03
  2.02430E+03 -2.63965E+03  3.25918E+02  1.07598E+03  4.86596E+03  2.40801E+03  5.57115E+02  5.88012E+03
 -2.62614E+03  4.55486E+03 -5.57363E+03 -1.40123E+03 -4.98752E+03 -2.52927E+02  5.09462E+03 -2.10799E+03
  2.22488E+03 -7.88116E+03  4.97123E+03 -3.35429E+03  2.78954E+03  4.14665E+03  4.00670E+03  6.79048E+03
 -4.29795E+02 -3.99313E+03 -3.38606E+03  3.99724E+02  1.42125E+03 -5.30938E+03  2.52544E+03  1.21808E+03
  4.59762E+03 -5.69960E+02  9.43467E+03  6.65225E+02 -6.88734E+03  5.16005E+03 -3.88200E+03  6.57501E+02
 -5.65197E+02  1.26544E+03  1.58542E+03  1.44015E+03 -1.22470E+03 -3.66463E+03 -1.02452E+03 -8.35620E+03
  9.33811E+03 -2.27613E+03  3.94561E+03 -3.40328E+03  8.58674E+02  2.29519E+03  3.53661E+03  2.57579E+03
  6.33700E+00  1.22873E+03  1.05369E+03  3.68762E+03 -2.13834E+03 -2.18945E+03 -6.49774E+02  9.98258E+02
  2.75930E+03  4.29642E+03 -3.06381E+01  5.03022E+03 -3.99131E+03 -3.27600E+03 -5.07185E+03 -9.69138E+03
 -8.09921E+03 -4.55150E+03  4.33240E+03 -7.90282E+03  1.15628E+04 -8.89173E+03  1.00818E+04 -5.45124E+03
  1.38812E+03 -3.03456E+03  1.91774E+03  4.06599E+03 -3.98601E+03  6.16208E+03 -1.99278E+03  4.16461E+03
 -4.11077E+02  2.26528E+03 -2.64465E+03  1.26259E+03  5.79704E+03  4.14643E+03 -5.47637E+02 -3.41295E+03
  5.85071E+03 -4.22384E+02 -3.83763E+03  2.53549E+03 -1.62120E+03 -9.27842E+02  1.78116E+03  1.86413E+03
  8.66713E+03 -1.22235E+02  2.06763E+03 -4.34688E+03 -2.00883E+03  4.33089E+03  4.23150E+03  8.23151E+03
 -4.47952E+03  6.72736E+03 -5.96831E+03  6.05929E+03 -8.73495E+03 -8.06939E+02 -3.58199E+03 -1.22360E+02
 -2.52179E+03 -5.35197E+03 -9.90572E+02 -9.14118E+03  4.68020E+03 -5.74478E+03  6.30047E+03 -8.83734E+02
  1.56532E+02  2.32299E+03 -3.76730E+03  2.88509E+02 -4.55925E+03 -2.13724E+03 -2.73384E+03 -2.47637E+03
 -1.80227E+03 -5.03354E+03 -1.72741E+03  6.07998E+02  5.09748E+03  4.63355E+02  4.02911E+03 -1.47627E+03
 -2.65952E+03 -1.41267E+03 -9.16525E+02  4.33644E+03 -8.66361E+02 -6.76092E+03  1.13301E+03 -7.05707E+03
  1.48292E+03 -4.57761E+03 -8.13876E+02 -3.95070E+03  2.53565E+03  4.72013E+02  9.92604E+03 -2.57611E+03
  3.10232E+02  3.52442E+03  2.56379E+01  5.14243E+03 -5.92974E+03  3.45285E+03 -3.00859E+03  1.86451E+03
  9.44191E+02 -6.27527E+03 -4.98640E+03 -1.75358E+03 -3.11482E+03  4.18609E+03 -2.45454E+03 -8.16591E+02
 -5.29614E+03  6.00190E+01 -4.06866E+03  3.91735E+02  4.88535E+03 -4.55496E+03 -4.77506E+02 -4.72044E+03
  1.89419E+03  1.63103E+03  9.35104E+02  4.27615E+03  3.90778E+03  4.98338E+03  1.08421E+03 -3.04499E+02
