 $NMID ID='MM_0lb_SNR50_19hz_g40_1.RAW', FMTDAT='(8E13.5)'
 TRAMP=1., VOLUME=1. $END
  3.06956E+05  2.70085E+03  3.40529E+05  2.49417E+05  8.35936E+04  3.38506E+05 -1.31860E+05  2.49452E+05
 -1.88001E+05  8.68069E+04 -1.12568E+05 -3.38846E+04  3.42065E+03 -4.95344E+04  5.77627E+04 -5.20159E+02
  3.37347E+04  5.42044E+04 -1.62879E+04  7.49352E+04 -5.92077E+04  6.51596E+04 -8.25736E+04  2.95349E+04
 -7.76533E+04 -9.09276E+03 -5.37314E+04 -5.04468E+04 -1.18689E+04 -6.90390E+04  2.16574E+04 -4.24414E+04
  3.75348E+04  4.86363E+03  1.62568E+04  4.50802E+04 -3.35020E+04  4.71663E+04 -6.78698E+04  1.64813E+03
 -4.49080E+04 -5.33781E+04 -5.76212E+03 -7.61949E+04  3.19074E+04 -5.40990E+04  4.94125E+04 -1.65674E+04
  4.27718E+04  1.28311E+04  2.96035E+04  2.78479E+04  1.49873E+04  2.81374E+04 -4.53699E+03  2.71471E+04
 -2.51045E+04  1.72554E+04 -1.94491E+04 -5.09183E+03  2.21310E+03 -5.20889E+03  2.07590E+04  9.73506E+03
  7.70200E+03  3.43943E+04 -2.64461E+04  3.35163E+04 -6.13161E+04  5.03088E+02 -5.70514E+04 -4.15075E+04
 -1.29614E+04 -5.82166E+04  4.25454E+04 -4.59141E+04  5.74586E+04 -5.50489E+02  3.24160E+04  2.94999E+04
 -1.11628E+04  3.52619E+04 -2.77900E+04  1.24209E+04 -2.51773E+04 -7.31192E+03 -1.14549E+04 -1.23231E+04
 -3.91687E+03 -1.48132E+04 -1.82854E+03 -1.58127E+04  9.86807E+03 -2.45889E+04  1.44696E+04 -1.25841E+04
  1.02314E+04  3.74080E+03 -9.08125E+03  1.53810E+04 -1.56483E+04 -5.71591E+03 -9.89573E+03 -2.98239E+04
  1.74883E+04 -3.98363E+04  4.36492E+04 -1.97311E+04  4.39970E+04  1.73420E+04  1.22722E+04  4.14286E+04
 -1.44212E+04  3.01235E+04 -2.21873E+04  2.48596E+03 -9.60724E+03 -2.62293E+04  2.12475E+04 -2.93369E+04
  3.83437E+04 -8.53763E+03  3.52255E+04  2.23691E+04  1.39639E+04  4.58986E+04 -4.80265E+03  4.32838E+04
 -3.08396E+04  3.03282E+04 -3.71215E+04  1.00973E+04 -3.54326E+04 -1.82929E+04 -2.79599E+04 -3.54428E+04
  7.71386E+03 -3.60236E+04  2.73096E+04 -8.69461E+03  2.58254E+04  8.03455E+03  3.02039E+03  1.40378E+04
 -1.22936E+04  7.89590E+03 -1.16925E+04 -1.01293E+04  9.66909E+03 -7.07874E+03  1.26949E+04  8.89378E+03
  1.04184E+04  1.93377E+04 -5.85335E+03  2.37614E+04 -2.21056E+04  1.19148E+04 -2.44015E+04 -5.02613E+03
 -1.62358E+04 -1.43149E+04 -3.26227E+03 -1.64275E+04  3.45819E+03 -1.72034E+04  1.25198E+04 -1.46688E+04
  1.90566E+04 -9.54029E+03  3.07399E+04 -6.44726E+02  2.01133E+04  1.65255E+04  3.30557E+03  2.96791E+04
 -1.57990E+04  2.54556E+04 -2.97690E+04  7.52974E+03 -1.99080E+04 -9.46024E+03 -6.05195E+03 -1.46671E+04
  5.76486E+03 -3.87178E+03 -1.16253E+03  4.70253E+03 -1.18455E+04  3.40430E+03 -1.01904E+04 -5.61115E+03
 -1.01005E+04 -1.76033E+04  6.44058E+03 -1.89588E+04  1.24981E+04 -1.06097E+04  1.56389E+04 -4.22706E+03
  4.67132E+03  1.37625E+04  3.28996E+02  1.96845E+04 -8.64446E+03  8.01748E+03 -1.64758E+04 -1.44650E+03
 -1.19571E+04 -9.54000E+03 -1.55847E+03 -1.61175E+04  7.54314E+03 -1.35096E+04  1.45874E+04 -5.63109E+03
  1.57314E+04 -2.43412E+03  9.41915E+03  3.21585E+03  4.68230E+03 -9.45704E+02  6.90990E+03  9.07831E+02
  1.03586E+04  1.98707E+03  1.17317E+04  1.29467E+04  1.09338E+04  2.57326E+04  1.24647E+03  2.36729E+04
 -1.20349E+04  1.92222E+04 -2.05136E+04  8.19308E+03 -2.40364E+04  2.27777E+03 -1.64642E+04 -1.32998E+04
 -8.05409E+03 -1.93654E+04  6.13854E+03 -1.78343E+04  1.65790E+04 -1.23120E+04  1.13225E+04  2.78921E+03
  2.23622E+03  1.02139E+04 -9.28952E+03  9.84574E+03 -1.53787E+04  4.27890E+02 -1.18538E+04 -1.04222E+04
  1.25285E+03 -8.02089E+03  7.35964E+03 -1.04056E+04  7.64071E+03 -3.87053E+03  3.46146E+03 -1.24908E+02
 -2.96416E+03  7.36897E+02 -5.50566E+03 -3.88463E+03 -5.60456E+02 -8.16625E+03  7.87842E+03 -8.51180E+03
  1.27211E+04 -4.69355E+03  1.25685E+04  3.98497E+03  9.32624E+03  8.02707E+03  2.01548E+03  1.21417E+04
  2.33902E+02  1.58909E+04 -7.11041E+03  9.72774E+03 -1.18775E+04  4.66316E+03 -9.90172E+03 -1.88496E+03
 -5.38407E+03 -2.48631E+03 -1.01712E+03 -9.96563E+02 -1.08268E+03 -1.08758E+03 -2.95056E+03  4.04924E+03
 -7.31838E+03  4.91365E+02 -9.92002E+03 -9.63341E+03 -6.84105E+03 -1.51161E+04  7.50519E+03 -7.91782E+03
  3.18471E+03 -1.89287E+03  4.25426E+03  1.61972E+03  1.21256E+03  7.34291E+03 -1.97210E+03 -7.05139E+02
 -1.20071E+03 -7.41138E+03  1.15091E+03 -7.63729E+03  2.56537E+03 -5.17617E+03  3.84883E+03 -9.20778E+03
  1.09736E+04  2.00250E+03  9.68939E+03  4.78092E+03  7.79770E+02  8.90840E+03 -2.82204E+03  5.57389E+03
 -5.99717E+03  1.32437E+03 -2.49728E+03 -1.57984E+03  3.68651E+02 -2.71241E+03  6.31146E+03 -1.41474E+03
  3.95921E+03 -2.32747E+03  3.04348E+03  6.66017E+03 -2.02712E+03  9.55889E+03 -7.18856E+03  4.18816E+03
 -4.79938E+03 -6.50225E+03  2.06539E+03 -7.25483E+03  4.20423E+03  2.11133E+03 -3.77228E+02 -2.97146E+03
  3.11802E+03  7.00918E+02 -4.00406E+03  5.25303E+03 -5.51644E+03  3.79582E+03 -4.17921E+03 -3.94778E+03
 -2.08955E+02 -6.34135E+03  3.16684E+03 -8.29939E+03  5.69016E+03 -3.78515E+03  4.76827E+03 -3.30971E+03
  3.33338E+03  5.99751E+03  2.65203E+03  1.12668E+04 -7.83502E+03  2.13228E+03 -1.90579E+03 -4.09954E+03
 -5.10624E+03 -3.33394E+03 -3.39767E+03 -3.93919E+03  2.17276E+03 -2.53318E+03  6.58489E+03 -1.99845E+03
  2.43531E+03 -2.74422E+02  2.80564E+03  2.69936E+03 -1.81545E+03 -2.15754E+03 -3.21212E+03 -1.70755E+03
  5.30740E+03 -2.20906E+03  7.09087E+03 -3.03558E+03  1.56637E+03  1.24608E+03  4.95490E+03  3.92206E+03
  1.40365E+02  7.04123E+03 -5.48469E+03  7.56362E+03 -9.03096E+03 -1.13658E+03 -6.33456E+03 -4.65445E+03
 -3.78134E+03 -1.09227E+04  4.57091E+03 -1.27235E+04  1.68762E+03 -3.71199E+03  4.04129E+03 -8.29688E+02
  5.14477E+03 -4.69145E+03  2.76304E+03 -3.01107E+03  3.92854E+03 -1.29673E+03  7.37783E+02 -4.50633E+03
  4.61565E+03  1.88666E+03  4.52215E+03  5.10235E+03 -5.32143E+03  7.56821E+02 -4.70793E+03 -3.02382E+03
 -2.59586E+03 -1.40408E+03  1.23869E+02 -8.97322E+01 -7.46448E+01 -4.80854E+03  4.58549E+03 -6.86891E+03
  7.32191E+03 -2.05481E+03  2.32229E+03 -1.15623E+03  4.47449E+03  4.32203E+03 -3.55905E+03  4.41201E+03
 -1.32383E+03  6.50036E+03 -6.08556E+03  1.93563E+03 -2.41341E+03  3.22820E+03 -8.39758E+02  1.56211E+03
 -4.48587E+02 -2.29783E+03  1.14193E+03  1.42029E+03 -2.68653E+02 -1.37307E+03 -4.84196E+03 -2.76039E+03
 -5.07462E+03 -5.19043E+03  7.92049E+02 -7.16004E+03  4.26693E+03 -5.60456E+03  1.16147E+03 -1.26457E+03
  6.69427E+03  5.20078E+02 -1.13869E+03  4.04250E+03 -1.95033E+03  5.42614E+03 -2.36580E+03  9.26862E+02
 -3.44242E+03 -8.30453E+02 -3.14990E+02 -1.57961E+03  1.67932E+03 -2.47602E+03  3.45585E+03 -3.31534E+03
  5.26727E+03 -6.65305E+02 -4.68181E+01  7.38761E+02  7.07548E+02  1.99251E+03  1.18526E+03  1.28520E+03
 -9.61182E+02  1.88523E+03  3.11088E+03 -7.28435E+02  3.31041E+03  5.88066E+02 -3.68738E+02 -8.33289E+02
  1.12588E+03 -5.84283E+02 -5.24467E+03  1.15195E+04  1.72891E+02 -5.75263E+02 -3.91634E+03  1.08520E+03
 -1.73961E+03 -2.07330E+03  1.95847E+03 -5.81790E+03  2.16899E+03 -3.91171E+03  5.64772E+03 -1.07861E+03
  1.03257E+04  1.52805E+03  3.00535E+03  1.88108E+03 -2.89697E+03  1.91907E+03 -9.38991E+02  1.73427E+03
 -1.60416E+03  2.41715E+03  3.78185E+02  3.71610E+03 -1.12658E+03 -4.08358E+03 -2.13649E+02 -2.30322E+01
  7.60474E+02  7.16793E+02 -1.88179E+03  2.27131E+03 -1.73112E+03  3.20486E+02 -2.08670E+03 -6.47689E+01
 -2.52119E+03  1.50380E+03  1.97979E+03  5.61182E+02 -1.98394E+02  3.38722E+03 -8.88816E+02  3.11517E+03
 -2.02654E+03  6.22047E+03 -1.94033E+03  6.22818E+02 -2.00225E+03 -1.35946E+03 -2.98795E+03  2.37249E+03
 -5.47252E+02  2.16673E+03  4.15259E+03  1.26548E+03 -6.23142E+02 -5.38179E+02 -1.15823E+03 -9.84816E+00
 -3.35324E+02 -1.82062E+03 -3.85438E+03 -2.82315E+03  6.47782E+03 -5.18150E+03  1.83058E+03 -7.03054E+02
 -4.25958E+02 -3.81553E+03  1.04922E+03 -1.98923E+03 -4.70992E+02  2.46226E+03 -5.78380E+02 -5.25311E+02
  2.36004E+03 -1.95273E+03 -9.08518E+02  5.56737E+03  4.49316E+03 -6.17539E+03  2.14102E+03 -1.09107E+03
  3.71349E+03  1.99495E+03  6.33222E+03  2.37953E+03  2.28458E+03 -1.16513E+03  2.20102E+02  3.23406E+02
  6.67980E+02  6.63051E+02 -2.56783E+03  4.47813E+03  2.68629E+03  1.83867E+03  3.90919E+03 -2.31582E+03
  1.05434E+03 -3.63496E+03  6.95607E+03  1.84972E+03 -8.75101E+02  3.34322E+03  3.30685E+02  3.19041E+03
 -7.43669E+02  9.21771E+02 -2.55605E+03  2.86999E+02 -2.51741E+03  2.37110E+02 -1.53358E+03  4.97927E+03
 -4.95039E+03  9.22757E+02 -3.76548E+03 -1.13492E+02 -3.10006E+03 -1.98584E+03 -6.84887E+03 -4.48684E+03
 -3.07771E+03 -6.10026E+02  2.20742E+03 -5.70798E+02  6.95043E+02 -1.56317E+03  9.58196E+02  3.02617E+02
  2.96686E+03  5.81566E+02 -1.98640E+03 -1.08159E+03 -6.85430E+02 -1.60047E+03 -1.48031E+03 -1.53978E+03
  3.73500E+03  2.03369E+03  1.75878E+03  3.73392E+03  2.37596E+03  1.99349E+03 -1.49314E+03  1.54113E+03
  6.66446E+02 -1.16307E+03 -1.32629E+03  3.13925E+03  4.29041E+02 -2.46975E+03 -9.19173E+02 -2.96313E+03
  1.28713E+02  8.20629E+02  2.94745E+03 -1.93555E+03 -5.16790E+03  4.23005E+03 -2.84777E+03  3.12611E+03
  2.81874E+03  2.69524E+03 -5.21252E+00  6.86524E+03 -5.98899E+03 -6.81880E+01  1.40472E+03 -5.69922E+01
 -2.66953E+03 -3.61341E+03  9.15388E+02  2.15517E+03  2.27782E+03 -1.85863E+03  2.11502E+03 -1.95902E+03
  2.91755E+03 -1.70015E+03  1.00712E+03 -1.29671E+03 -1.51291E+02  1.48351E+03  2.04362E+03 -6.71647E+02
 -1.26230E+03  1.59254E+03  1.22181E+03 -3.46600E+02  1.47967E+02  7.16391E+02  5.52351E+03  4.81613E+02
 -1.96723E+03  5.19635E+02  1.50031E+03  3.14830E+02  8.46456E+02  3.74596E+01 -2.02098E+03 -5.63421E+03
 -2.08218E+02  4.18737E+03  1.74660E+03 -1.06446E+03  2.55308E+02  4.04628E+03 -4.05592E+03 -6.12271E+02
  3.06521E+03 -2.07605E+03 -3.32650E+02  2.96580E+03 -3.04574E+03  9.06211E+02  7.18995E+03 -6.94244E+02
  2.13319E+03 -1.15421E+03  1.54839E+03  4.29209E+03 -4.45632E+03  7.13284E+02  1.45273E+02 -5.35119E+03
  2.66693E+02  1.08336E+03 -1.39173E+03 -5.74443E+02 -3.98120E+03  3.10274E+03 -1.36639E+03 -7.39531E+02
  4.94554E+03 -2.74376E+02 -3.48606E+03 -6.87573E+02  2.49796E+03 -6.48170E+01  2.25626E+03  1.67709E+03
