 $NMID ID='MM_0lb_SNR50_19hz_g55_56.RAW', FMTDAT='(8E13.5)'
 TRAMP=1., VOLUME=1. $END
  3.10119E+05 -1.86707E+03  3.37486E+05  2.50100E+05  8.22485E+04  3.38722E+05 -1.31615E+05  2.49342E+05
 -1.92138E+05  8.36015E+04 -1.07008E+05 -3.09056E+04 -9.37712E+02 -5.06142E+04  5.54757E+04  8.19210E+01
  3.21702E+04  5.00555E+04 -1.83073E+04  7.14030E+04 -6.32548E+04  6.38920E+04 -8.32060E+04  3.43770E+04
 -8.06768E+04 -1.13555E+04 -5.70552E+04 -5.10925E+04 -1.49279E+04 -6.85567E+04  2.72274E+04 -4.43995E+04
  4.01144E+04  4.94581E+03  1.27323E+04  5.05633E+04 -3.44405E+04  4.90361E+04 -6.45645E+04  2.34796E+03
 -5.62302E+04 -5.56652E+04 -6.12637E+03 -7.18672E+04  3.45650E+04 -5.32092E+04  4.20145E+04 -1.67723E+04
  3.89995E+04  1.21837E+04  2.64069E+04  3.00592E+04  1.51014E+04  3.01467E+04 -4.58517E+03  2.57831E+04
 -1.91148E+04  1.10445E+04 -1.76744E+04 -4.27572E+03  7.67146E+03 -7.59894E+03  2.45256E+04  1.10358E+04
  8.82381E+03  3.11989E+04 -3.05653E+04  3.72934E+04 -5.92608E+04  5.60464E+03 -5.34365E+04 -4.17854E+04
 -1.23684E+04 -6.21467E+04  3.69884E+04 -4.38272E+04  6.03214E+04  1.00695E+03  3.14828E+04  3.44819E+04
 -7.24754E+03  3.54389E+04 -2.59067E+04  1.16716E+04 -3.05539E+04 -6.05572E+03 -1.59473E+04 -9.76020E+03
 -7.13287E+03 -1.34194E+04 -1.67727E+03 -1.82779E+04  7.47007E+03 -2.25967E+04  1.35680E+04 -1.21762E+04
  1.17018E+04  4.85117E+03 -4.59890E+03  1.42700E+04 -1.43110E+04 -5.00280E+03 -8.31829E+03 -3.35917E+04
  2.19011E+04 -3.94007E+04  4.32094E+04 -1.40318E+04  3.89537E+04  1.66647E+04  1.48738E+04  4.07808E+04
 -1.44876E+04  2.67965E+04 -2.51611E+04 -6.34163E+02 -4.93566E+03 -2.97548E+04  2.07947E+04 -3.00417E+04
  3.85919E+04 -9.70387E+03  3.35667E+04  2.39157E+04  1.43381E+04  4.29467E+04 -8.07312E+03  4.09111E+04
 -3.02120E+04  3.16167E+04 -3.67193E+04  1.43204E+04 -3.93712E+04 -1.49242E+04 -1.57558E+04 -3.67933E+04
  7.02636E+03 -3.59351E+04  3.38190E+04 -1.11787E+04  2.82333E+04  1.20737E+04  5.05716E+03  1.77200E+04
 -1.38006E+04  9.00722E+03 -8.86733E+03 -7.85096E+03  6.74783E+03 -1.31993E+04  1.94783E+04  6.46207E+03
  9.10839E+03  2.12601E+04 -6.38533E+03  2.32838E+04 -2.11734E+04  1.07339E+04 -2.71444E+04 -3.65596E+03
 -1.34389E+04 -1.45972E+04 -5.63656E+03 -1.54916E+04  1.46263E+03 -1.50309E+04  1.13904E+04 -1.45216E+04
  2.08073E+04 -9.68341E+03  3.06280E+04 -5.38395E+03  2.07527E+04  1.53317E+04  2.27565E+03  2.99919E+04
 -1.48637E+04  2.51444E+04 -2.48233E+04  1.01270E+04 -1.59938E+04 -7.14826E+03 -7.16525E+03 -1.25287E+04
  6.07262E+03 -2.79322E+03 -4.20677E+03  3.87089E+03 -9.55073E+03  4.84492E+03 -1.83213E+04 -2.58088E+03
 -1.04974E+04 -1.93636E+04  4.76303E+03 -2.01772E+04  1.27591E+04 -1.45147E+04  1.87210E+04 -2.08571E+03
  6.55921E+03  1.12006E+04 -1.87962E+03  2.16246E+04 -1.21876E+04  1.02280E+04 -1.52828E+04 -5.38736E+03
 -1.18687E+04 -1.88449E+04 -5.13343E+03 -1.99692E+04  5.11927E+03 -1.45927E+04  1.67296E+04 -7.68466E+03
  1.78045E+04  6.50828E+02  1.04319E+04  3.66981E+03  2.15712E+03  1.92268E+03  6.29796E+03  3.70337E+03
  1.34349E+04  5.90871E+01  1.33894E+04  1.15855E+04  7.28141E+03  2.06122E+04 -1.04208E+03  2.90307E+04
 -1.43932E+04  2.30200E+04 -2.21404E+04  1.16319E+04 -2.53515E+04 -2.37311E+03 -2.18138E+04 -1.56423E+04
 -1.35672E+04 -1.88505E+04  5.81938E+03 -2.15667E+04  1.65755E+04 -8.77170E+03  1.75405E+04  3.03280E+03
  6.03217E+03  1.11502E+04 -6.56432E+03  6.95025E+03 -1.57608E+04  2.89660E+03 -1.24891E+04 -6.51398E+03
 -1.91659E+03 -1.38904E+04  2.73818E+03 -1.02256E+04  6.38223E+03 -2.29607E+03  6.28632E+01  3.48288E+03
 -2.16276E+03  4.04306E+03 -2.92856E+03 -5.08195E+03  3.56084E+02 -4.79754E+03  8.05928E+03 -1.28297E+04
  1.11670E+04 -4.84486E+03  1.45690E+04  5.76466E+03  1.15017E+04  7.07806E+03  3.96085E+03  6.90480E+03
 -2.06567E+03  1.71941E+04 -7.81584E+03  7.52716E+03 -1.02899E+04  3.49598E+03 -1.22680E+04 -3.02634E+03
 -6.24814E+03 -2.92740E+03  5.55255E+02 -5.52988E+02 -2.44801E+03  9.06824E+02 -7.20912E+03  4.96202E+03
 -8.33372E+03 -5.14639E+03 -9.07222E+03 -8.24757E+03 -6.60886E+03 -9.84795E+03  5.53533E+03 -1.14841E+04
  1.18928E+04 -5.79555E+03  1.07568E+04  3.88410E+03 -3.87762E+03  2.98974E+03  6.65198E+02 -8.21794E+02
 -5.41617E+03 -4.81204E+03 -4.90686E+02 -7.57201E+03  9.02530E+02 -9.60689E+03  1.38417E+04 -3.35569E+03
  1.51296E+04  2.42157E+03  9.14067E+03  6.53905E+03 -4.87973E+03  6.30586E+03 -3.65212E+03  2.52649E+03
 -8.50372E+03  5.21898E+03 -1.91454E+03 -1.38820E+03  3.71157E+03 -4.02770E+03  7.74400E+03 -4.29507E+03
  9.75589E+02  3.91883E+03  3.66700E+03  5.55884E+03 -5.28069E+03  6.62762E+03 -8.61932E+03  3.56130E+03
 -2.34262E+03 -5.14745E+03  1.25919E+03 -6.69524E+03  1.75874E+03 -3.97231E+03  3.71639E+03  4.62312E+03
 -5.03628E+01  3.22911E+03 -6.33364E+03  5.10615E+03 -1.33555E+03  3.41294E+03 -1.52207E+03 -5.75143E+02
 -8.29010E+02 -4.78022E+03  2.76595E+03 -7.40360E+03  8.95710E+03 -8.28900E+03  7.10276E+03 -4.05084E+03
  2.45719E+03  9.05907E+03  3.42017E+03  1.10008E+04 -8.96503E+03  4.19061E+03 -2.63060E+03 -1.11802E+03
 -1.12605E+04 -9.89560E+03 -3.96997E+03 -3.34378E+03  2.17608E+03 -2.04473E+03  2.54782E+03 -2.14554E+03
  4.69069E+03  2.01768E+03 -6.04293E+02  1.20674E+03 -3.60094E+02 -1.27840E+03  1.09888E+03 -3.00465E+03
  3.85458E+03 -3.47402E+03  4.67701E+03 -2.60003E+03  5.53998E+03  5.41364E+03  3.75590E+03  4.19408E+03
  1.34862E+03  1.15969E+04 -2.52751E+03  5.15710E+03 -7.46947E+03 -5.05413E+03 -6.51136E+03 -4.32320E+03
 -6.21286E+03 -7.18251E+03 -1.26427E+03 -3.80438E+02 -1.91271E+03 -1.16053E+03  2.10142E+03  5.62792E+02
  3.75337E+03 -3.24686E+03  4.56083E+02 -2.77286E+03  5.90395E+03 -2.08034E+03  4.80795E+03  7.03016E+01
 -8.43375E+02  1.22984E+03 -3.21488E+03  4.26897E+03 -7.13338E+01  4.80821E+03 -2.92174E+03  4.31173E+03
 -2.90959E+03  4.90713E+02 -1.37270E+03 -6.32224E+03  3.15952E+03 -6.47577E+03  3.80440E+02 -7.52757E+03
  6.01478E+03 -1.80659E+03  8.38904E+03 -3.12311E+03  6.34086E+03  4.39662E+02 -1.20888E+00  4.86121E+03
 -2.68545E+03  3.81058E+03 -2.94341E+03  3.20559E+03  4.56005E+03  7.08571E+02  2.99432E+02  3.78371E+03
 -3.23267E+03 -1.37232E+03  2.50461E+03  3.61179E+03 -1.02577E+03  1.78015E+03 -8.74305E+03  2.08175E+03
 -4.82509E+02 -2.78934E+03  6.38486E+02 -5.03244E+03  2.84312E+03 -5.35253E+03  2.32236E+03  4.84350E+03
  5.47940E+03  2.64665E+03 -7.78327E+02  2.72756E+03 -3.37339E+03  6.86657E+03 -3.87163E+03  6.30354E+03
 -3.20801E+03 -1.83958E+03 -1.23174E+03 -3.18958E+03 -9.80650E+02 -1.58680E+03  4.92562E+03 -1.48579E+03
  2.96342E+03 -1.01167E+03 -1.03296E+03  1.83796E+03 -2.76466E+03  4.18285E+03  7.28652E+03  7.74250E+02
  1.46089E+03 -3.40552E+03  9.19221E+02  1.37585E+03  1.53168E+03  3.42268E+03 -4.05334E+03  8.89514E+02
 -4.31016E+03  1.72503E+03 -3.36270E+03  4.12189E+03 -1.03193E+03 -1.95777E+03 -3.86856E+03 -2.11869E+03
 -3.12894E+03 -4.47715E+03 -3.94412E+03 -7.56747E+03 -1.04873E+03 -7.31811E+02  4.80674E+03 -3.64748E+03
  2.62852E+03  5.28809E+02  3.61713E+03  6.36545E+03 -2.49881E+03 -4.30046E+02 -1.18771E+03 -7.68698E+02
  1.77828E+03 -3.75674E+03 -1.34048E+03  1.56255E+03  1.87612E+03  7.03098E+02  8.53100E+02 -3.93654E+02
 -4.12622E+02 -3.20438E+03 -3.06916E+02 -1.67144E+03  3.71863E+02 -3.54839E+02  1.73174E+03  5.47104E+02
 -1.35317E+03 -1.36302E+03  1.63160E+03  1.19066E+03 -2.21124E+03 -2.52262E+03  9.70245E+02  1.61529E+03
 -3.10622E+03  2.96475E+03 -5.21065E+03  1.03314E+03 -2.14647E+03 -1.18972E+03  2.48213E+03 -4.18415E+03
  7.80855E+02 -2.24498E+03 -3.97917E+03 -3.94462E+02 -4.40060E+02 -4.06130E+03  3.82645E+03  3.29000E+03
 -5.14460E+03  7.65621E+02 -3.91603E+03  1.86553E+03 -2.06962E+03 -6.58608E+03 -2.65381E+02  9.01844E+02
 -2.25944E+03  8.80029E+02 -3.59045E+03 -2.65504E+03  7.34093E+02 -2.10479E+03 -3.20503E+03  2.22981E+03
  3.88949E+03 -3.73634E+03  1.78114E+03  2.23951E+03  5.85320E+02 -4.98910E+03  4.93280E+03  1.77267E+03
  5.46226E+02 -4.54414E+02  3.74659E+03  1.33837E+03  4.69933E+02  4.79520E+03  1.70138E+03 -1.17917E+03
 -2.50820E+03  1.29259E+03 -2.37538E+03  1.17870E+03 -3.04397E+03 -3.74703E+03 -3.08340E+02  8.85618E+02
  4.15402E+03  5.83269E+02 -4.62174E+02  7.22991E+03  4.02911E+03  2.38727E+03  3.81801E+02  1.42538E+02
  2.05287E+03  2.22136E+03 -2.59208E+03 -2.65435E+03 -9.51975E+01  1.93426E+03 -1.68964E+03 -1.91347E+03
  2.88241E+03  7.15873E+02  1.74715E+03  4.42526E+03  1.57404E+03 -1.92139E+03 -1.95679E+03  8.75741E+02
  2.94541E+02 -4.11712E+03 -6.60036E+02 -4.33112E+03  4.39920E+03  1.20250E+03  4.00913E+03  2.01833E+03
  3.79917E+03 -2.05295E+02  3.48478E+03 -1.14578E+03 -3.71568E+03  3.43033E+03  8.07023E+02  3.84410E+03
 -3.69087E+03  2.65077E+03 -5.99697E+02 -5.55650E+02 -2.14459E+03 -2.32227E+03 -1.25433E+03 -1.31984E+03
  1.52821E+03 -8.27741E+02 -2.53501E+03  2.94817E+03  2.80613E+02 -2.89959E+03 -1.52124E+03  3.90293E+02
  4.28233E+02  1.60148E+03  1.49558E+03  2.33217E+03  2.49534E+03  3.25693E+03 -4.12433E+02  5.79823E+01
 -2.35916E+03  4.11503E+03 -3.02514E+03 -3.62843E+03 -1.64912E+03 -5.25701E+01 -2.14846E+02 -3.87619E+03
  7.93439E+02 -3.84248E+03  9.98675E+02 -3.55723E+02  6.50246E+02  6.18673E+03  9.28061E+02 -1.05708E+03
  2.62400E+03  4.04204E+03 -2.52945E+03  4.47222E+02 -7.89438E+02  4.21213E+02 -1.69723E+02 -3.33706E+03
 -8.84985E+02  1.92012E+03  3.50065E+03  1.25156E+03  2.15265E+03  1.88425E+03  2.92505E+03  1.36439E+03
 -3.91845E+03  1.58177E+02 -5.55124E+01 -4.96515E+01 -3.59386E+01  2.88673E+03 -1.57464E+03 -3.52702E+03
  3.99575E+02 -5.02795E+02  1.28323E+03  5.22027E+02  4.04635E+03  1.94600E+02 -4.89857E+03 -3.71246E+03
  1.49163E+02  1.32782E+03  3.63632E+03  1.70866E+03 -4.90523E+02 -5.59597E+02 -1.08775E+03  1.04912E+03
  2.71538E+03 -6.39282E+02  5.27028E+02 -3.38913E+03 -7.87816E+02  5.85797E+03  6.92856E+02 -4.62513E+02
  4.37942E+03  7.50964E+02 -5.69716E+02 -2.59920E+03 -3.10937E+03 -4.32095E+02 -6.01037E+02 -2.82096E+03
  4.50989E+03 -1.17393E+02 -2.43521E+02 -4.42014E+03  7.83202E+01  3.09875E+03 -1.76884E+03 -1.05296E+03
