 $NMID ID='MM_0lb_SNR50_20hz_g40_43.RAW', FMTDAT='(8E13.5)'
 TRAMP=1., VOLUME=1. $END
  3.10718E+05  1.55661E+03  3.39854E+05  2.49659E+05  8.62836E+04  3.39025E+05 -1.32606E+05  2.52887E+05
 -1.89761E+05  8.33904E+04 -1.09122E+05 -3.06141E+04  3.76829E+03 -5.06003E+04  5.34314E+04 -4.35164E+03
  3.57769E+04  5.44803E+04 -1.93286E+04  7.79023E+04 -6.04653E+04  6.40480E+04 -7.96119E+04  3.59980E+04
 -7.92417E+04 -1.29209E+04 -5.73467E+04 -4.89863E+04 -1.68172E+04 -6.89337E+04  2.49643E+04 -4.42817E+04
  3.88723E+04  5.54674E+03  1.71538E+04  4.37372E+04 -3.61722E+04  4.53266E+04 -6.62228E+04 -6.66516E+02
 -4.88408E+04 -5.71795E+04 -8.89612E+03 -7.47054E+04  3.43271E+04 -5.30016E+04  4.63821E+04 -1.21090E+04
  3.63276E+04  8.82503E+03  2.71106E+04  2.27198E+04  1.29625E+04  2.89967E+04 -5.45213E+03  2.72232E+04
 -2.03824E+04  1.50630E+04 -2.01321E+04 -4.03622E+03  4.13359E+03 -9.68111E+03  1.80787E+04  8.87570E+03
  8.48344E+03  3.41856E+04 -2.73310E+04  3.54951E+04 -5.84130E+04  3.77012E+03 -5.30955E+04 -4.17130E+04
 -1.38150E+04 -5.31121E+04  4.00723E+04 -4.22843E+04  5.23536E+04 -2.31836E+03  3.11284E+04  2.56691E+04
 -6.84328E+03  3.17005E+04 -2.84824E+04  1.00854E+04 -2.91311E+04 -6.85451E+03 -1.28616E+04 -9.78920E+03
 -7.19209E+03 -1.55039E+04 -9.37212E+01 -1.41904E+04  7.56127E+03 -2.21621E+04  1.88157E+04 -1.24978E+04
  1.44539E+04  5.48293E+03 -3.64055E+03  1.91502E+04 -1.98150E+04 -2.95470E+03 -6.19369E+03 -2.84464E+04
  1.92941E+04 -4.07607E+04  4.40171E+04 -1.82765E+04  3.86163E+04  1.60152E+04  1.47828E+04  4.08574E+04
 -1.51197E+04  2.43085E+04 -2.68285E+04  3.64706E+03 -7.09202E+03 -2.37410E+04  1.91444E+04 -3.11875E+04
  3.50379E+04 -8.30105E+03  2.91781E+04  2.54035E+04  1.31765E+04  4.33075E+04 -9.12921E+03  4.13412E+04
 -2.67901E+04  2.93145E+04 -3.62261E+04  4.94312E+03 -3.64413E+04 -1.52246E+04 -2.15094E+04 -3.06450E+04
  6.60519E+03 -3.05983E+04  3.17668E+04 -9.92787E+03  2.67372E+04  8.74896E+03  5.47418E+03  1.50041E+04
 -1.20754E+04  7.47191E+03 -9.58694E+03 -8.41982E+03  2.32415E+03 -1.09481E+04  1.62938E+04  6.57103E+03
  1.19309E+04  2.05129E+04 -2.89587E+03  2.08723E+04 -2.03096E+04  7.16455E+03 -2.18141E+04 -9.48293E+03
 -1.67194E+04 -1.62978E+04 -9.54676E+02 -1.38479E+04 -1.12829E+03 -1.44484E+04  1.02092E+04 -1.20894E+04
  2.04473E+04 -1.15006E+04  2.67492E+04  3.58002E+02  2.19032E+04  1.52704E+04  4.18187E+03  3.19060E+04
 -1.61848E+04  2.22107E+04 -2.42867E+04  8.19938E+03 -1.78850E+04 -1.04869E+04 -1.45857E+03 -1.74097E+04
 -9.95015E+02 -5.34101E+03  9.53881E+02  4.84930E+03 -1.23737E+04  8.69605E+03 -1.08195E+04 -4.21913E+03
 -1.11767E+04 -1.24075E+04  4.97453E+03 -2.08112E+04  1.39318E+04 -1.34771E+04  1.27723E+04 -4.75167E+03
  9.99927E+03  1.16228E+04 -4.39332E+02  1.62597E+04 -8.02168E+03  6.08154E+03 -1.41597E+04 -2.84798E+03
 -1.10224E+04 -1.56001E+04  1.90424E+03 -1.84481E+04  6.77078E+03 -1.92738E+04  1.87970E+04 -1.68728E+03
  1.21354E+04  1.37435E+03  9.43146E+03  6.14568E+03  3.01749E+03 -1.01482E+03  1.06880E+04  1.99402E+03
  1.04493E+04  2.03376E+03  1.10358E+04  1.24440E+04  1.18193E+04  2.17229E+04 -3.35215E+03  2.13262E+04
 -1.54282E+04  1.80287E+04 -2.45376E+04  8.81364E+03 -1.90324E+04  8.56521E+02 -1.72649E+04 -1.65159E+04
 -7.42528E+03 -1.72810E+04  4.32879E+03 -1.70807E+04  1.87575E+04 -7.46149E+03  1.28412E+04  3.42503E+03
  6.29626E+03  9.63837E+03 -4.73637E+03  1.32851E+04 -1.21023E+04 -1.74108E+03 -7.51702E+03 -7.97496E+03
  1.52404E+03 -1.14587E+04  3.82800E+03 -6.03070E+03  9.73072E+03 -3.45275E+03 -4.74044E+02  4.63605E+03
 -2.06602E+03  1.01760E+03 -3.38887E+03 -2.05263E+03  2.08573E+03 -8.09612E+03  1.04410E+04 -1.08357E+04
  8.86545E+03 -2.82393E+03  1.20566E+04 -9.88938E+02  9.34661E+03  7.63050E+03  4.02047E+03  1.16218E+04
 -1.92316E+02  1.19112E+04 -1.20947E+04  9.34838E+03 -9.37561E+03  3.08625E+03 -8.81978E+03 -3.47319E+03
 -4.31918E+03 -1.14949E+03 -4.95703E+02  2.35178E+03 -4.96937E+03  1.11254E+03 -1.30260E+03  4.52103E+03
 -7.66781E+03 -2.32188E+03 -5.50014E+03 -3.81493E+03 -3.50821E+03 -1.16671E+04  1.95235E+03 -8.82712E+03
  8.36598E+03  1.71708E+03  3.25238E+03  1.30316E+03 -9.39353E+01  4.87418E+03  8.77393E+02  2.61832E+03
  2.42604E+02 -1.57633E+03  1.20045E+03 -5.58635E+03 -9.86067E+01 -1.19483E+04  9.32697E+03 -3.66799E+03
  1.07334E+04  2.06470E+03  6.31728E+03  9.34604E+03  1.34697E+03  9.12109E+03 -5.31861E+02  7.13834E+03
 -3.53411E+03  1.38429E+03  1.37199E+03 -6.11168E+02  2.34924E+03 -7.20911E+02  3.23080E+03 -1.03891E+03
 -5.74528E+02  3.77464E+03  1.36310E+03  4.80255E+03 -4.94969E+03  8.11246E+03 -8.07397E+03  2.94319E+03
 -2.86708E+03 -3.09729E+03 -8.53238E+02 -7.96769E+03  5.54830E+03 -3.42019E+03  4.28852E+03  1.99243E+03
 -3.98605E+03  2.56844E+03 -1.70244E+03  5.80828E+03 -1.98888E+03  2.79400E+03 -8.83790E+02 -1.50745E+02
 -1.91703E+03 -4.99591E+03 -1.39023E+03 -3.04552E+03  6.08649E+03 -7.75089E+02  6.80591E+03  1.67858E+02
  1.28301E+03  7.35854E+03  2.15339E+03  6.36153E+03 -3.48449E+03  2.46868E+03 -2.75978E+03 -8.82946E+01
 -1.01937E+04 -5.64644E+03  1.36139E+03 -5.91578E+03  2.10744E+03 -5.67254E+03  2.74563E+03  1.30408E+03
  2.55935E+03 -1.75095E+03 -2.68841E+03  6.08399E+02  2.43199E+03  1.25923E+03  5.75197E+03 -1.14549E+03
  1.27070E+03 -5.79007E+02  5.01736E+03 -3.51292E+02  9.24778E+02  3.79750E+03  4.88431E+03  5.00601E+03
 -2.18355E+03  4.22840E+03 -6.83858E+03  7.99547E+03 -4.95487E+03 -2.73988E+03 -4.82680E+03 -9.75504E+02
 -4.66932E+03 -4.34252E+03 -4.18029E+02 -3.01279E+03 -1.80206E+03 -2.89288E+03 -1.60029E+03 -2.38623E+03
  2.63386E+03  1.69111E+02 -2.24143E+02 -1.02770E+03  4.04336E+03 -1.71526E+03  7.40813E+03 -6.98358E+02
  7.54257E+03 -1.75160E+03  2.44793E+03  2.76700E+03 -9.17159E+02 -5.90936E+02 -6.14675E+03  3.51404E+03
 -3.87536E+03 -1.09230E+03 -3.47439E+03 -2.10629E+03  2.95265E+02 -4.32758E+03  1.24024E+03  2.83779E+02
  5.05790E+03 -2.80887E+03  4.26224E+03 -2.92910E+03  6.01456E+03  3.73356E+03  3.45856E+03  1.78758E+03
  1.90466E+03  2.52733E+03 -6.46325E+03 -1.07233E+03 -3.79929E+03 -3.84605E+03  1.01502E+03 -5.96913E+01
 -4.02739E+03 -3.02822E+03 -3.36593E+03  3.50642E+03 -4.81612E+03 -3.38955E+03  3.03346E+01 -1.10867E+03
 -3.21631E+03 -6.64489E+03 -4.54679E+02 -4.85084E+03  2.57035E+03 -4.13517E+03  9.06015E+02 -7.25502E+02
  6.80268E+03 -3.30716E+03  2.11643E+03  3.25845E+03  3.00229E+03  3.27872E+03  9.97897E+02  4.39815E+03
 -4.16931E+03  1.07887E+02 -2.01775E+03  1.51415E+03 -2.94859E+03 -2.59683E+03  2.65369E+03 -1.17747E+03
  1.91913E+03  3.79855E+03 -1.22070E+03  3.69005E+03  4.51001E+03  5.41785E+03 -6.40606E+01 -1.25960E+03
  1.48909E+03 -9.09166E+02  2.95929E+03 -1.75326E+03 -2.13400E+03  2.33937E+03 -9.67328E+02  9.47506E+02
 -1.00149E+03  1.87168E+03 -2.88568E+03  4.70691E+03 -4.11263E+03  2.80362E+03 -6.55652E+03 -1.16294E+03
  9.34922E+02 -2.66512E+03 -5.84242E+02 -3.06565E+03 -2.38659E+03 -5.45678E+03  7.46112E+02 -1.77909E+03
  4.73656E+03 -1.42929E+03  1.71942E+03 -4.98575E+02 -1.46827E+03  5.61554E+02 -1.03811E+03  7.85539E+02
  2.00237E+02 -4.42367E+03 -7.81814E+02  8.25701E+01  3.49979E+03 -2.17558E+03 -1.91715E+03 -3.14376E+03
 -2.77124E+03  2.85542E+03  1.79101E+03  8.53283E+02 -2.55887E+03  3.92415E+03  1.25270E+03 -2.61791E+03
 -2.11518E+03  3.01998E+03  1.42494E+03  3.49487E+03  2.76041E+03  3.91776E+03  1.16410E+03 -2.35042E+03
 -1.94096E+03 -4.86897E+02  4.13196E+02 -3.68146E+02 -2.85722E+03 -2.22261E+03 -2.30281E+02  7.42855E+02
  7.09025E+02 -8.43239E+02 -1.52348E+03 -2.17869E+03  1.20962E+03  3.42349E+02 -4.48785E+01 -2.32060E+03
  8.60193E+02  6.97567E+02  1.83920E+03 -2.40127E+03 -5.80827E+03  1.41043E+03  3.76307E+03 -4.23269E+03
  4.42632E+02 -4.33828E+03 -1.28078E+03  3.62489E+02  8.74202E+02 -6.31493E+02  1.55923E+02  5.87466E+02
 -4.27724E+03 -1.20487E+03  2.02278E+03  2.02833E+03  2.48138E+03 -2.77236E+03  1.19106E+03 -7.93289E+02
 -1.49807E+03  1.53373E+03  4.96007E+03  3.74709E+03  1.07632E+03  1.03917E+03 -3.93552E+03  2.17356E+03
 -1.28572E+03 -6.59980E+02  2.63471E+03 -2.66961E+03 -1.17704E+03 -9.18989E+02  1.49055E+03 -2.41046E+02
  2.90205E+03 -2.23609E+03  1.85392E+03  7.72523E+02  7.07982E+02  2.32586E+03  1.89715E+03 -1.58148E+03
  1.06745E+03  5.22761E+03 -1.16105E+03 -1.87574E+03 -1.02578E+03 -1.63363E+02 -1.09224E+03 -2.53750E+03
 -6.22557E+02  8.86071E+02 -2.50401E+03  4.46765E+02 -2.12920E+03  1.94187E+03 -6.19149E+03  2.13693E+02
 -4.19518E+03 -2.58559E+03  3.35195E+03 -2.22877E+03 -2.50933E+03 -2.02741E+01  3.95226E+03 -1.86986E+03
 -2.37821E+03 -1.49716E+03 -9.43306E+02  1.47824E+03  5.80804E+02  1.01297E+02 -1.43829E+03 -8.74405E+02
 -3.05735E+03  3.06685E+03  1.77967E+03  1.19023E+03 -1.55541E+03 -2.72476E+03  1.00685E+03  6.89663E+03
 -2.51011E+03 -7.97353E+01  1.22665E+03  2.98263E+03  7.19034E+02  4.14023E+03 -6.64969E+01 -4.44716E+03
  1.06113E+02  1.95714E+02  8.75980E+02  9.12135E+02 -8.47394E+02  2.16956E+03 -1.66633E+02  2.25831E+03
 -5.12462E+03  1.42441E+03 -2.97871E+03  1.35327E+03 -1.48261E+03 -3.09276E+03 -4.03128E+03 -9.71290E+02
  3.04118E+03 -2.20901E+03  2.79174E+03 -4.22388E+03 -2.11820E+03 -4.08897E+03 -1.70180E+03  1.00470E+03
  6.51617E+02 -1.21285E+02 -1.56126E+03  4.06462E+03 -1.41728E+03  8.70566E+02 -5.47272E+02 -2.07454E+03
 -1.34413E+03  8.03924E+02 -4.12945E+02  1.18039E+03  1.58914E+03  1.09801E+02  1.71941E+03  1.25237E+03
 -3.76004E+03 -2.30580E+02  5.60959E+03 -1.40339E+03  1.52795E+03 -3.15074E+02  1.39003E+03 -2.39049E+03
  1.20883E+03  3.31720E+03 -1.53278E+03 -3.96064E+02  8.87052E+02 -2.32681E+02  3.32304E+03  1.58565E+03
 -8.45239E+02  4.34682E+03  2.02342E+03  7.26051E+02 -1.50480E+03 -2.13158E+03  2.46422E+02 -1.77342E+03
 -1.10283E+03  7.97684E+02 -3.10216E+03 -3.11654E+02 -9.72461E+02 -5.41667E+02  2.03403E+03  9.88097E+02
 -1.73501E+03  1.00653E+03  1.46065E+03  1.48002E+03  3.51775E+02 -1.17295E+03  9.66454E+02  2.09901E+03
 -1.26200E+03  1.85224E+02 -1.30673E+03 -2.67144E+03 -3.57713E+03 -9.47341E+02 -1.48612E+02  3.44131E+02
