 $NMID ID='MM_0lb_SNR50_9hz_g45_94.RAW', FMTDAT='(8E13.5)'
 TRAMP=1., VOLUME=1. $END
  3.11455E+05  2.21158E+03  3.40445E+05  2.55395E+05  8.79158E+04  3.37269E+05 -1.35810E+05  2.55857E+05
 -1.84827E+05  8.44848E+04 -1.12020E+05 -3.39012E+04  6.84140E+03 -5.22809E+04  5.40941E+04  4.79326E+03
  3.53249E+04  5.42813E+04 -1.49238E+04  7.36963E+04 -5.88507E+04  6.34925E+04 -8.08586E+04  3.69486E+04
 -8.11010E+04 -1.37105E+04 -5.76466E+04 -5.18759E+04 -1.64786E+04 -6.90291E+04  3.00011E+04 -4.71481E+04
  4.00227E+04  2.88154E+03  1.98900E+04  4.93737E+04 -3.33554E+04  4.94267E+04 -6.59924E+04  2.55858E+03
 -5.60506E+04 -6.11782E+04 -1.62137E+04 -7.67244E+04  3.72037E+04 -5.19913E+04  5.13412E+04 -1.57156E+04
  4.59723E+04  4.35948E+03  3.15048E+04  2.39917E+04  1.93303E+04  3.26853E+04 -7.75166E+03  2.99276E+04
 -2.13381E+04  7.83417E+03 -1.69182E+04 -5.44605E+03  8.97193E+03 -3.04346E+03  1.86794E+04  2.13813E+04
  1.03280E+04  3.50423E+04 -3.14830E+04  3.60899E+04 -7.04277E+04  1.51999E+03 -5.75731E+04 -4.77164E+04
 -1.48668E+04 -7.32307E+04  4.27013E+04 -4.96464E+04  6.58236E+04 -1.93768E+03  3.30589E+04  3.79315E+04
 -1.18426E+03  3.25917E+04 -3.64794E+04  2.39143E+04 -3.11819E+04 -7.15975E+03 -1.84093E+04 -1.35874E+04
 -4.11529E+03 -8.52312E+03  4.08354E+02 -2.17707E+04  3.04042E+03 -1.65068E+04  1.37138E+04 -1.10742E+04
  1.45614E+04  6.33339E+03 -1.47025E+04  1.10205E+04 -3.26608E+04 -5.32009E+03 -8.46444E+03 -3.46931E+04
  2.82097E+04 -4.71820E+04  5.76081E+04 -2.00009E+04  4.39475E+04  2.22881E+04  1.03475E+04  4.85204E+04
 -1.15020E+04  3.03552E+04 -2.92569E+04  2.50121E+03 -7.78852E+03 -3.19376E+04  2.71386E+04 -3.79039E+04
  3.64505E+04 -1.31012E+04  4.17209E+04  2.78822E+04  2.00239E+04  4.85078E+04 -5.73043E+03  5.36272E+04
 -3.98038E+04  4.61712E+04 -4.85808E+04  1.24686E+04 -4.52801E+04 -2.34897E+04 -2.56311E+04 -4.09147E+04
  9.72992E+03 -4.08278E+04  3.16332E+04 -1.87914E+04  3.36668E+04  7.51148E+03  2.75794E+03  2.51727E+04
 -1.83898E+04  1.02808E+04 -1.78955E+04 -3.67349E+03 -3.50276E+03 -1.34912E+04  1.92943E+04  7.21981E+03
  1.80029E+04  2.34470E+04 -1.52226E+03  2.94534E+04 -2.51685E+04  1.63652E+04 -2.88965E+04 -7.12242E+02
 -2.05971E+04 -1.97309E+04 -4.81970E+03 -2.88791E+04  9.17669E+03 -2.34191E+04  1.98679E+04 -2.21397E+04
  3.22605E+04 -1.77132E+04  4.03337E+04  3.13117E+03  2.37856E+04  2.46330E+04  2.54031E+03  4.39095E+04
 -2.14613E+04  3.64673E+04 -3.23122E+04  9.08573E+03 -2.44893E+04 -7.67143E+03 -2.88951E+03 -1.49625E+04
 -5.87721E+02 -4.89476E+03 -3.08730E+03  1.23241E+04 -2.41739E+04  3.09094E+03 -2.33013E+04 -2.66888E+03
 -1.08575E+04 -1.85458E+04  5.32327E+03 -2.90871E+04  1.67455E+04 -1.12524E+04  2.49318E+04 -2.29454E+03
  1.83011E+04  1.77903E+04  2.33694E+03  2.93654E+04 -1.29118E+04  1.36190E+04 -2.45115E+04 -7.04511E+03
 -1.56150E+04 -2.43422E+04 -2.93867E+02 -2.79065E+04  8.86440E+03 -2.53679E+04  1.92045E+04 -4.57635E+03
  2.11939E+04  5.25888E+03  1.54589E+04  6.03239E+03  8.35214E+03 -1.70642E+03  1.31837E+04 -6.49488E+03
  1.81209E+04 -1.02623E+03  2.86049E+04  1.75921E+04  1.35631E+04  3.75159E+04 -3.37734E+03  4.57578E+04
 -2.57644E+04  3.22396E+04 -4.25158E+04  2.20491E+04 -4.35384E+04  2.51716E+03 -3.89436E+04 -2.57939E+04
 -1.27247E+04 -3.98170E+04  1.11094E+04 -3.48370E+04  2.85932E+04 -1.12534E+04  2.12773E+04  7.80204E+03
  7.28791E+03  1.54470E+04 -7.28950E+03  2.42714E+04 -1.45080E+04  2.93939E+03 -1.77622E+04 -9.51052E+03
 -4.26183E+02 -1.68043E+04  6.77214E+03 -1.40647E+04  7.50348E+03 -9.37924E+00 -3.00471E+03  4.42638E+03
 -9.48885E+03  6.25795E+03 -6.90826E+03 -1.09440E+04  4.70108E+02 -1.48314E+04  1.70390E+04 -1.40058E+04
  2.23690E+04 -1.47990E+04  2.82518E+04 -2.57071E+02  1.99706E+04  2.11498E+04  1.61279E+04  2.90092E+04
 -9.82267E+03  2.67963E+04 -2.60413E+04  1.27573E+04 -1.82101E+04  1.25149E+04 -1.19782E+04  7.47190E+02
 -1.27673E+04 -8.55757E+03  2.35861E+03 -7.69084E+03 -5.54082E+03  1.15903E+03 -9.87208E+03  7.08828E+03
 -1.42832E+04 -4.94267E+03 -1.33527E+04 -3.13601E+03 -1.33045E+04 -1.49521E+04  1.91490E+03 -1.77927E+04
  1.35787E+04 -7.01191E+03  8.34771E+03  1.73897E+03 -1.45927E+03  7.49627E+03 -1.11701E+04  4.63180E+01
 -1.37835E+04 -1.61158E+04  4.92244E+03 -1.79264E+04  6.28098E+03 -1.36106E+04  1.98822E+04 -7.76433E+03
  1.78155E+04  4.51751E+03  1.74533E+04  1.30972E+04  1.90256E+03  1.94333E+04 -1.16770E+04  1.00295E+04
 -8.42122E+03  7.88127E+03 -6.49107E+03  8.72811E+02  7.68499E+03 -3.14057E+03  6.48272E+03  5.70704E+03
  6.13652E+03  7.94325E+03 -1.34241E+03  8.64838E+03 -6.30902E+03  1.01664E+04 -1.43508E+04  3.21764E+03
 -7.62699E+03 -1.43745E+04  7.37198E+02 -1.89493E+04  7.96145E+03 -4.36593E+03  1.09632E+04  2.98670E+03
  6.04879E+03  1.08740E+04 -6.18169E+03  1.44971E+04 -1.51395E+04  4.01505E+03 -1.15231E+04 -5.51491E+03
 -7.10677E+03 -9.89720E+03  1.26063E+03 -1.43550E+04  1.35337E+04 -8.38254E+03  1.44728E+04  3.69833E+02
  5.75745E+03  1.98667E+04  3.52552E+03  8.52303E+03 -1.44393E+04  8.57040E+03 -1.29214E+04 -2.95820E+03
 -8.85573E+03 -1.18756E+04 -2.64385E+03 -1.18527E+04  1.75447E+03 -1.15973E+04  8.16915E+03  3.99396E+02
  8.66357E+03 -2.21754E+03  1.28125E+03  6.46723E+02 -6.68223E+03  2.55870E+03  3.05903E+03 -6.31675E+03
  9.93010E+03 -1.35989E+03  1.43379E+04  2.43548E+03  1.81842E+04  1.68921E+04  1.18174E+04  1.36265E+04
 -1.43300E+03  2.54369E+04 -1.96604E+04  1.50107E+04 -2.81449E+04 -1.40792E+02 -1.32150E+04 -4.64731E+03
 -1.47078E+04 -1.34625E+04  1.67027E+03 -1.35831E+04  2.48538E+03 -2.35398E+03  2.06503E+03 -8.04544E+03
  7.91468E+03  1.42210E+03  9.66779E+02 -8.51116E+02  6.93581E+03 -5.55084E+03  1.29145E+04  1.38365E+03
  1.08731E+04 -1.13736E+03  4.55451E+03  9.56079E+03 -5.62153E+03  7.88097E+03 -9.93328E+03  4.35753E+03
 -2.60671E+04 -3.09892E+03 -8.55096E+03 -9.51089E+03  1.81253E+03 -1.88888E+04  2.67914E+03 -1.84705E+04
  1.48503E+04 -7.16097E+03  1.73335E+04  2.25648E+03  9.05708E+03  8.27875E+03  5.46092E+03  1.53286E+04
 -1.17038E+04  1.15944E+04 -1.35839E+04 -1.58219E+01 -3.47518E+03 -1.31029E+03 -5.34812E+03 -5.44248E+03
 -3.07607E+02 -3.35745E+03  1.31514E+03  1.03226E+04 -6.58581E+03  7.69003E+03 -1.15781E+04 -3.63552E+03
 -8.11782E+03 -5.81253E+03  3.96292E+03 -1.37405E+04  1.41065E+04 -1.00337E+04  1.82817E+04  3.20085E+02
  1.90222E+04  4.05464E+03  2.98939E+03  1.45039E+04 -9.59177E+03  1.53268E+04 -6.91307E+03  1.13734E+04
 -1.69103E+04 -3.00320E+03 -9.54855E+03 -1.88909E+03 -3.01948E+03 -5.51948E+03  5.77683E+03 -1.33675E+04
  2.27228E+03 -9.87934E+02  9.08087E+03  3.81776E+03  4.81471E+03  2.35151E+03  7.27108E+03 -3.01490E+03
  8.84192E+02  2.54978E+03  5.74360E+03 -1.48992E+03  6.83726E+03  6.08395E+03  5.56752E+03  7.54354E+03
  6.03208E+03  1.27479E+04 -1.53748E+04  1.32090E+04 -1.13412E+04  8.98459E+03 -2.52050E+04 -9.89267E+03
 -9.96127E+03 -1.59544E+04  4.94253E+03 -1.44521E+04  9.99116E+03 -1.12284E+04  8.26286E+03  5.11178E+01
  1.45089E+04  4.87084E+03 -3.29517E+03  8.04436E+03 -7.32218E+03  5.50251E+03 -3.25119E+03 -3.64681E+02
 -4.52130E+03 -4.36427E+03  1.05168E+04  3.65654E+03  4.12254E+03 -4.61829E+03  1.83520E+03 -2.43130E+03
  4.57695E+03  1.25694E+03  3.83721E+03  4.51304E+03  3.12906E+03  3.92965E+03  2.96436E+02 -1.09602E+03
  4.74310E+02 -9.66400E+02  5.56064E+03 -7.94215E+02  9.29036E+03  9.45935E+03  2.90280E+02  8.71187E+03
 -8.70632E+03  8.30330E+03 -1.73712E+03  1.85965E+03 -4.75291E+03 -6.60450E+03 -6.34932E+03 -3.45170E+03
  1.46138E+03 -2.70442E+03  5.44401E+03 -1.21009E+03  7.90469E+02 -1.04600E+03 -6.29331E+03  1.11649E+04
 -2.93622E+03  4.63743E+03 -7.83171E+02 -1.38577E+03 -3.24887E+03 -8.07651E+03 -4.00928E+03 -8.61478E+03
 -3.67085E+03 -8.24404E+03  9.86118E+03  3.13103E+02  3.63315E+03 -3.01700E+02  1.72516E+03  4.96316E+03
 -5.68388E+03  3.67677E+03 -6.52493E+03  2.91050E+03 -3.49456E+03 -8.37272E+03  6.79191E+03 -7.16861E+03
  1.08358E+04  7.64353E+03  9.26211E+03  1.07812E+03  6.13270E+03  1.28271E+04 -1.13104E+03  1.00082E+04
 -5.03419E+03  7.30252E+03 -1.24273E+04 -5.53113E+03 -8.00959E+02 -7.96150E+03  1.26644E+04 -2.56760E+03
  7.07652E+03 -1.30587E+02  5.79298E+03  7.76691E+03  7.30013E+03  9.71935E+03  6.87778E+03  7.13636E+02
 -1.38820E+03  1.97004E+03 -1.03162E+04 -2.36797E+03  4.68462E+03  7.58188E+03 -9.01499E+03  6.99469E+03
 -5.24849E+03  5.93501E+03 -3.66794E+03 -6.32171E+02 -1.04887E+04 -2.33773E+03 -1.35728E+04 -9.46759E+03
 -7.47444E+03 -1.15496E+04  3.77149E+03 -1.06154E+04  8.37146E+03 -1.30640E+04  1.06057E+04 -4.86005E+03
  1.43288E+04  1.02763E+04  1.09336E+04  1.34213E+04 -3.62284E+03  9.12695E+03 -1.34251E+03  5.72119E+03
 -1.36276E+03  1.08623E+03 -3.08438E+03  2.89235E+02  1.16469E+03 -9.30609E+02  6.30666E+02  2.46290E+03
  2.38364E+03 -6.58135E+03 -7.80631E+02 -8.18070E+02 -2.15195E+03  3.06940E+03 -5.77348E+03 -2.79658E+03
  3.79956E+03 -2.22939E+03  6.38881E+03 -4.95634E+02  1.00378E+04 -2.31574E+03  5.72295E+03  1.32197E+04
 -3.80474E+03  1.36639E+04 -1.39008E+04  1.05930E+04 -1.32559E+04 -4.26791E+03 -4.35053E+03 -1.50014E+04
 -1.09870E+03 -1.58249E+04  1.79396E+03 -1.03935E+04  5.32864E+03  7.52326E+02  9.30997E+03  4.12422E+03
  6.47738E+03  2.91181E+03 -1.24399E+03  6.59022E+03  1.49363E+02 -7.42140E+02 -9.37122E+02 -1.66725E+03
 -2.37599E+02  5.69991E+03  8.33425E+02  4.52165E+03  2.77459E+03  5.64621E+03 -4.30659E+03  3.12076E+03
  2.35556E+03  9.82747E+02 -6.79931E+03  3.54230E+03 -4.18140E+03 -9.53104E+03  4.62078E+03 -1.26236E+04
  5.75236E+03 -9.72917E+03  1.20289E+04  1.30639E+03  9.36587E+03  1.31894E+03  2.41742E+03  2.38181E+03
 -3.83465E+03  1.94155E+03 -9.92471E+02  8.99139E+02  2.66259E+03  5.34771E+03  4.40297E+03 -7.46619E+03
 -7.82761E+03  1.52411E+03 -4.04781E+03  5.30526E+03 -4.85468E+03  1.42127E+03 -5.38405E+03  6.73117E+03
 -3.41415E+03  1.10705E+03 -2.29314E+02 -6.17141E+03  9.25828E+03 -6.32619E+03  9.61723E+03 -2.41976E+03
  6.77063E+03 -4.43566E+02  3.09611E+03  5.93289E+03  1.70806E+01  3.76536E+03 -3.29428E+03  4.85940E+03
