 $NMID ID='MM_0lb_SNR50_7hz_g40_41.RAW', FMTDAT='(8E13.5)'
 TRAMP=1., VOLUME=1. $END
  3.16483E+05 -6.22146E+03  3.27217E+05  2.48671E+05  8.87851E+04  3.37937E+05 -1.34727E+05  2.53317E+05
 -1.90784E+05  8.45770E+04 -1.18704E+05 -2.97018E+04 -4.01950E+02 -5.09592E+04  5.69962E+04  4.57898E+03
  3.44738E+04  5.16296E+04 -1.23190E+04  7.84770E+04 -6.47883E+04  6.81707E+04 -8.35984E+04  3.66763E+04
 -8.93516E+04 -1.20833E+04 -6.35134E+04 -5.43278E+04 -1.16824E+04 -6.56332E+04  2.90741E+04 -4.84939E+04
  3.80712E+04  1.47835E+03  9.93371E+03  5.02166E+04 -3.49167E+04  4.99862E+04 -6.61935E+04  2.07792E+03
 -5.59370E+04 -5.69154E+04 -6.98659E+03 -7.01408E+04  3.56027E+04 -5.46852E+04  5.56833E+04 -2.41886E+04
  4.29289E+04  1.93947E+04  3.37623E+04  2.69428E+04  1.18972E+04  3.15680E+04 -2.51431E+03  2.03657E+04
 -2.91251E+04  1.01922E+04 -1.53961E+04 -1.06508E+04  6.70246E+03 -5.78645E+03  2.33949E+04  1.11332E+04
  9.25026E+03  4.06068E+04 -2.98242E+04  3.98793E+04 -6.76644E+04 -5.53844E+03 -6.27975E+04 -5.17753E+04
 -1.92983E+04 -6.98762E+04  4.33778E+04 -4.86601E+04  6.07733E+04 -1.33943E+03  3.95455E+04  3.14525E+04
 -9.70036E+03  4.09211E+04 -3.49538E+04  1.60721E+04 -3.51847E+04 -1.85359E+03 -2.06631E+04 -1.39727E+04
 -1.71354E+04 -9.38887E+03  6.14069E+03 -2.46400E+04  3.02364E+03 -2.42771E+04  1.70745E+04 -1.94619E+04
  1.35238E+04  4.88852E+03 -1.87993E+04  1.71605E+04 -2.92074E+04 -1.09663E+04 -1.18364E+04 -4.58668E+04
  2.02784E+04 -4.37127E+04  5.27836E+04 -1.83886E+04  5.14272E+04  1.90287E+04  1.93629E+04  4.51037E+04
 -9.76651E+03  4.17901E+04 -2.73489E+04  4.33371E+03 -5.44978E+03 -3.52132E+04  1.77577E+04 -3.04227E+04
  4.27147E+04 -6.34852E+03  3.91537E+04  3.46047E+04  2.42287E+04  5.58109E+04 -4.54365E+03  6.12442E+04
 -3.77746E+04  3.19410E+04 -4.63451E+04  1.91295E+04 -5.11341E+04 -1.55502E+04 -2.27518E+04 -4.38318E+04
  1.05310E+04 -4.49516E+04  3.53230E+04 -1.51511E+04  2.82051E+04  1.01590E+04  1.21787E+04  2.64808E+04
 -1.01173E+04  1.68736E+04 -9.65593E+03 -6.34787E+03  6.44681E+02 -8.14925E+03  1.34192E+04  5.83290E+03
  1.62058E+04  2.42135E+04  2.73580E+03  2.15872E+04 -2.46635E+04  1.28699E+04 -3.01666E+04 -6.97375E+03
 -3.39881E+04 -2.04353E+04 -1.25524E+04 -3.30248E+04  1.31902E+03 -2.45352E+04  1.74907E+04 -2.65809E+04
  3.04546E+04 -1.56728E+04  3.49833E+04  1.02645E+04  2.45502E+04  2.35649E+04  3.41884E+03  4.44207E+04
 -1.88566E+04  3.72391E+04 -2.90582E+04  1.34089E+04 -2.10871E+04 -2.97485E+03 -5.59557E+03 -1.61855E+04
 -1.51363E+02 -6.92029E+02 -1.32538E+04  6.89902E+03 -2.10084E+04  1.08816E+04 -2.75008E+04 -9.17484E+03
 -5.47483E+03 -2.83613E+04  4.27028E+03 -3.01945E+04  1.62594E+04 -2.19065E+04  2.46691E+04 -6.32858E+02
  1.40911E+04  7.62944E+03  3.22784E+02  1.87151E+04 -1.32307E+04  1.04382E+04 -2.41668E+04 -7.46445E+03
 -1.85164E+04 -2.10969E+04 -6.80978E+03 -3.38676E+04  1.51687E+04 -2.01659E+04  2.37388E+04 -1.51159E+04
  2.40335E+04 -6.79974E+03  1.52541E+04  4.37885E+03  6.26693E+03 -5.98282E+02  1.41735E+04  7.19317E+03
  1.85095E+04  2.35769E+03  2.63507E+04  2.61420E+04  2.20628E+04  2.99153E+04 -4.99920E+03  5.03527E+04
 -3.00015E+04  3.95707E+04 -4.27218E+04  1.68809E+04 -4.19233E+04 -2.67862E+03 -3.34375E+04 -2.81500E+04
 -1.25569E+04 -4.10278E+04  1.91258E+04 -3.58834E+04  3.41581E+04 -2.01446E+04  2.85874E+04  3.34739E+02
  1.26652E+04  2.15046E+04 -1.96854E+04  1.64009E+04 -2.42297E+04  5.95139E+03 -1.44268E+04 -1.01865E+04
 -6.45741E+03 -2.29189E+04  1.42537E+04 -2.33819E+04  1.11903E+04  2.07174E+03 -3.29303E+03  1.02018E+04
 -2.58133E+03  2.08087E+03 -5.65294E+03 -8.99389E+03  2.79475E+02 -2.02306E+04  2.17191E+04 -2.62483E+04
  2.25508E+04 -1.16250E+04  3.56610E+04  6.83439E+02  2.87695E+04  2.30569E+04  1.02631E+04  3.43587E+04
  1.21696E+03  3.57548E+04 -2.38739E+04  1.81399E+04 -2.90517E+04  1.11235E+03 -1.72802E+04 -9.48547E+03
 -8.58894E+03 -4.44400E+03 -6.82579E+02  8.88321E+03 -1.28650E+03 -4.52739E+03 -6.11818E+03 -1.66020E+03
 -1.14811E+04  8.21727E+02 -1.61387E+04 -2.24015E+04 -7.83812E+03 -2.38782E+04  9.60501E+03 -2.06243E+04
  1.13824E+04 -3.06610E+03  1.26856E+04  6.96746E+03  2.55296E+03  7.10530E+03 -1.18929E+04  4.76478E+03
 -7.57119E+03 -1.33608E+04 -1.78747E+03 -1.60800E+04  9.16958E+03 -2.05842E+04  2.47419E+04 -4.86256E+03
  2.12584E+04  5.28980E+03  2.25384E+04  5.45496E+03  5.80263E+03  2.69650E+04 -9.22818E+03  1.47780E+04
 -1.93903E+04  1.06265E+03 -4.88442E+03  3.39732E+02  7.03261E+03 -5.71670E+03  1.96591E+04 -1.41922E+03
  1.11262E+04  8.01179E+03  2.14964E+03  1.25571E+04 -1.13822E+04  9.90084E+03 -1.74828E+04  1.02093E+03
 -1.33561E+04 -1.28635E+04 -1.20158E+03 -1.54569E+04  1.09205E+04 -9.36964E+03  9.06523E+03 -1.33937E+03
  4.06445E+03  1.33057E+04 -7.91960E+03  1.16283E+04 -1.32469E+04  3.73548E+03 -1.32250E+04 -8.69801E+03
 -1.09285E+04 -1.90720E+04  1.00210E+04 -2.61364E+04  2.13259E+04 -1.15597E+04  2.09720E+04  1.96022E+02
  1.14714E+04  1.03661E+04 -6.74171E+03  2.20303E+04 -1.74973E+04  1.06593E+04 -1.88193E+04  5.83641E+01
 -1.78950E+04 -6.29596E+03 -5.96847E+03 -7.97375E+03  1.26594E+04 -1.44387E+04  5.91860E+03 -9.26991E+03
  5.79166E+03  5.30523E+03 -2.26336E+03  2.72291E+03  2.77551E+03 -7.53721E+02  4.63454E+03 -8.67529E+03
  6.25492E+03 -6.95902E+03  1.42064E+04 -6.47302E+03  1.76164E+04  1.22654E+04  9.23703E+03  2.23237E+04
 -2.11189E+03  2.50523E+04 -2.29448E+04  1.94979E+04 -2.91810E+04  2.10429E+03 -1.99066E+04 -1.58115E+04
 -1.85766E+04 -2.62405E+04  6.53580E+02 -1.52975E+04  6.52711E+03 -1.19218E+04  4.00339E+03 -5.30745E+03
  5.54555E+03 -1.29381E+03  6.67739E+03 -4.52329E+03  1.55238E+04  1.48173E+03  1.65131E+04 -5.52623E+02
  6.15364E+03  2.93340E+03  5.00510E+03  1.24725E+04 -2.29643E+03  1.22001E+04 -1.43041E+04  8.92746E+03
 -1.83962E+04 -5.94073E+03 -1.95889E+04 -1.70426E+04 -5.71387E+03 -1.76289E+04  5.21529E+03 -1.61316E+04
  1.80855E+04 -9.22593E+03  2.12831E+04  6.65218E+03  1.60073E+04  1.94214E+04  8.86550E+03  2.32300E+04
 -5.96695E+03  2.07064E+04 -2.16117E+04 -1.80234E+02 -8.61051E+03  3.53174E+03 -3.30524E+03  6.37330E+03
 -3.07500E+03  2.66864E+03 -4.24586E+03  7.84439E+03  9.07799E+01  3.19561E+03 -9.53652E+03  1.51353E+03
 -9.06748E+03 -1.11473E+04  7.62720E+02 -1.48362E+04  1.51357E+04 -1.48316E+04  1.73232E+04 -8.22369E+03
  9.74273E+03  9.36670E+03  9.00372E+03  1.25352E+04 -9.80421E+03  1.70399E+04 -1.12140E+04  9.01524E+03
 -2.07875E+04 -5.29541E+02 -1.86828E+04 -3.69515E+03 -1.10660E+03 -2.09781E+04  1.03419E+04 -9.79392E+03
  7.37844E+03 -8.41043E+02  1.04807E+04  9.92410E+03  3.07121E+02  1.55865E+04  2.06410E+03 -1.78006E+03
  2.19207E+02 -2.78455E+03  2.33971E+03  6.95163E+02  2.80877E+03  6.17715E+03 -4.01126E+03  9.50991E+03
  1.25721E+02  1.53234E+04 -1.83434E+04  2.10058E+04 -1.22303E+04  5.11473E+03 -1.91616E+04 -1.22652E+04
 -1.27975E+04 -1.49358E+04  1.87142E+03 -2.44107E+04  1.52890E+04 -1.31261E+04  1.04152E+04 -2.47145E+03
  1.28535E+04  5.76074E+03 -3.96732E+03  6.02974E+03 -4.69937E+03  2.07045E+03 -8.96315E+03  4.91781E+02
  5.65981E+03 -7.82140E+03  4.05142E+02 -9.90500E+03  8.09585E+03 -2.13521E+03  3.76505E+03  5.00143E+03
  7.32201E+03  9.70669E+03  2.80632E+03  3.47033E+03  1.99904E+03  5.86941E+03  7.96485E+03 -5.98415E+03
  7.03942E+03  1.42840E+02  8.66527E+03  5.87243E+03 -1.18372E+03  1.32000E+04 -1.24838E+03  1.45515E+04
 -8.61253E+03  8.30913E+03 -4.18294E+03  1.25335E+03 -6.43326E+03 -6.22971E+03 -4.90346E+03 -1.33366E+04
 -2.64120E+02 -7.09771E+03  1.96834E+02 -2.19911E+03  3.28508E+03  8.59809E+02  1.34097E+03  7.55110E+03
 -7.39815E+03  5.96975E+03 -1.24996E+04  5.94310E+03  5.99631E+02 -1.04807E+04 -1.10010E+01 -3.12376E+03
  3.91225E+03 -1.33119E+04  8.99084E+03 -2.10669E+03  5.42516E+03  2.52222E+03  4.99930E+03  8.34582E+03
 -3.29826E+03 -3.25988E+03  6.51044E+03 -8.70089E+03  1.80991E+03 -6.58326E+03  1.57182E+04 -6.70753E+03
  1.77224E+04 -4.66496E+02  1.20952E+04  8.09253E+03  6.13253E+03  4.11104E+03  4.03270E+03  1.19751E+04
 -1.35938E+04  2.28301E+03 -1.39033E+04  4.89730E+03 -1.06477E+04 -9.78212E+03  3.84221E+03 -4.12828E+03
  1.29821E+04 -5.55259E+03  8.92014E+03  2.77900E+03  2.53569E+03  8.48598E+03  2.27872E+03  5.28585E+03
 -2.97404E+03 -3.19277E+03 -9.31251E+03  1.42470E+03 -5.12124E+03 -7.31249E+02 -9.00426E+02  4.88696E+03
 -2.92454E+03  6.76684E+03 -5.07205E+03  3.46211E+03 -5.26311E+03  3.78961E+02 -1.26768E+04 -9.74051E+03
 -3.17636E+03 -1.51853E+04 -2.30380E+03 -2.16998E+04  1.62879E+04 -1.33616E+04  1.82852E+04 -9.07273E+03
  1.98147E+04  1.12580E+04  1.20252E+04  1.20874E+04  4.56412E+03  1.04893E+04 -3.59465E+03  7.57565E+03
 -5.91665E+03  7.20435E+03 -6.77935E+03 -1.02613E+04 -1.41031E+03 -3.19521E+02 -5.35409E+03  8.81662E+02
  1.97883E+02  9.83098E+02 -2.74664E+03  6.12745E+03 -5.68043E+03 -5.47900E+03  5.67142E+03  3.84617E+02
  1.45324E+04 -8.49831E+03  1.57386E+04  2.57330E+03  8.80392E+03  8.53965E+03 -1.78762E+02  1.40309E+04
 -2.54639E+03  1.91304E+04 -1.66842E+04  6.10427E+03 -1.96998E+04 -9.01026E+03 -6.70035E+03 -1.06186E+04
 -2.85164E+03 -9.04901E+03  7.39044E+03 -1.26127E+04  5.40328E+03 -6.78257E+03  1.02194E+04  4.48827E+03
 -4.43135E+03  5.91972E+03 -3.14020E+03  2.40733E+03 -6.30816E+03  3.46207E+02 -3.22756E+03 -6.02013E+03
 -2.41335E+03  4.49689E+03  1.22841E+04  6.86897E+03  2.25674E+03 -1.58720E+03  1.53546E+03  9.17402E+03
 -9.57675E+03  1.01836E+04 -1.33970E+04  9.23416E+02 -2.90330E+03 -1.19025E+04  1.41400E+03 -7.69667E+03
  4.58537E+03 -1.11842E+04  9.39492E+03 -4.06676E+03  7.14066E+03 -2.16885E+02  1.01134E+04  4.12919E+03
 -3.40708E+03  1.14029E+04 -3.63922E+03  1.27958E+04 -6.76629E+03  6.74133E+03 -9.04310E+02  3.86448E+03
 -9.23420E+02  3.23087E+03 -7.88400E+03  5.10566E+03 -6.82256E+03  2.30210E+03 -1.01396E+04  1.68863E+03
 -8.88633E+03 -3.32439E+03 -4.68846E+01 -4.01343E+03  4.77014E+03 -6.71723E+03  1.45560E+04 -5.21158E+03
  7.81095E+03  6.25031E+03  8.62121E+03  1.11878E+04  4.32745E+03  6.49212E+03 -8.17132E+03  9.32874E+03
