 $NMID ID='MM_0lb_SNR50_9hz_g45_53.RAW', FMTDAT='(8E13.5)'
 TRAMP=1., VOLUME=1. $END
  3.04784E+05  4.93760E+03  3.47185E+05  2.50563E+05  7.87255E+04  3.38384E+05 -1.37701E+05  2.55066E+05
 -1.86337E+05  8.37521E+04 -1.14269E+05 -3.67074E+04 -5.31261E+03 -5.36802E+04  4.86120E+04 -5.17022E+02
  3.56670E+04  5.33476E+04 -1.77840E+04  7.40710E+04 -6.20472E+04  6.27501E+04 -8.67267E+04  3.07494E+04
 -8.78942E+04 -1.15919E+04 -5.73891E+04 -4.88612E+04 -9.72361E+03 -6.23506E+04  3.11700E+04 -4.44159E+04
  4.31765E+04 -7.44311E+02  2.03743E+04  4.63461E+04 -3.24970E+04  4.96924E+04 -7.14134E+04 -2.49563E+03
 -5.93987E+04 -5.74602E+04 -4.57241E+02 -7.34955E+04  3.66255E+04 -5.63819E+04  4.70569E+04 -2.08029E+04
  4.38625E+04  9.13854E+03  3.15219E+04  2.79736E+04  1.27905E+04  3.07361E+04 -8.02167E+03  2.85151E+04
 -2.52042E+04  1.22513E+04 -1.66957E+04 -4.51271E+03  8.11682E+03 -1.09552E+04  1.88570E+04  1.06392E+04
  8.77549E+03  3.69083E+04 -3.38688E+04  3.39000E+04 -7.14007E+04  3.80367E+03 -5.84883E+04 -4.01702E+04
 -1.37921E+04 -6.27583E+04  4.50409E+04 -4.91498E+04  5.86360E+04  3.12977E+03  3.49047E+04  3.04064E+04
 -9.16625E+03  4.14380E+04 -3.54221E+04  2.28844E+04 -3.00438E+04 -3.77542E+03 -2.84124E+04 -1.07308E+04
 -8.19253E+03 -1.61484E+04 -1.83252E+03 -2.31234E+04  1.40774E+04 -3.01055E+04  1.33370E+04 -1.36106E+04
  1.31941E+04  1.97666E+03 -6.71247E+03  1.52297E+04 -2.02145E+04 -7.45370E+03 -6.80219E+03 -2.84652E+04
  2.57233E+04 -4.71132E+04  5.17473E+04 -2.27175E+04  4.99892E+04  2.05893E+04  1.78893E+04  4.46840E+04
 -1.48071E+04  3.52340E+04 -3.02654E+04  1.08276E+04 -1.46127E+04 -3.11939E+04  2.80555E+04 -3.78953E+04
  3.52059E+04 -1.26866E+04  4.63156E+04  2.29105E+04  1.65927E+04  4.44411E+04 -3.22788E+03  5.60529E+04
 -3.51190E+04  4.30941E+04 -4.57448E+04  9.61243E+03 -4.81992E+04 -1.54509E+04 -3.48508E+04 -4.37055E+04
  4.07178E+03 -3.83337E+04  3.21243E+04 -1.60402E+04  2.95911E+04  1.08117E+04  9.34192E+03  2.09876E+04
 -1.35728E+04  1.53296E+04 -9.99194E+03 -1.03459E+04 -2.29641E+03 -1.27882E+04  2.08357E+04 -6.64146E+02
  1.10560E+04  1.35509E+04 -5.39493E+03  2.41299E+04 -2.92213E+04  1.14375E+04 -2.98386E+04  3.43615E+03
 -2.08657E+04 -1.64831E+04 -1.56173E+04 -2.65646E+04  5.39835E+03 -2.80139E+04  1.94172E+04 -1.94827E+04
  3.03047E+04 -8.68508E+03  3.79235E+04  1.50552E+04  2.64215E+04  2.08894E+04 -2.06109E+01  4.38462E+04
 -1.41960E+04  3.59114E+04 -2.53558E+04  1.68876E+04 -2.22750E+04 -1.37020E+04 -6.52390E+03 -1.02077E+04
  2.88387E+03 -9.45284E+02 -3.66258E+03  3.00442E+03 -1.72903E+04 -1.19471E+02 -1.46435E+04 -8.66371E+03
 -1.14133E+04 -2.52600E+04  4.58421E+03 -3.01083E+04  1.88891E+04 -2.28510E+04  2.22826E+04  1.12274E+03
  5.82624E+03  1.49199E+04 -8.35399E+02  2.12799E+04 -1.79010E+04  1.18912E+04 -2.68761E+04 -5.62895E+03
 -2.28364E+04 -2.04667E+04 -1.42483E+03 -2.81943E+04  9.53813E+03 -2.52162E+04  2.86048E+04 -1.10890E+04
  2.32280E+04  6.50589E+03  1.39953E+04  7.89632E+03  7.65377E+03 -1.41106E+02  7.30852E+03 -2.55686E+03
  2.47203E+04  6.44674E+03  1.63258E+04  1.31310E+04  1.75051E+04  3.37820E+04 -2.03041E+03  4.42329E+04
 -2.21882E+04  3.68536E+04 -3.82644E+04  1.49573E+04 -4.57392E+04 -8.36395E+03 -3.61212E+04 -1.63232E+04
 -1.29381E+04 -4.04757E+04  9.32717E+03 -2.90594E+04  2.67868E+04 -1.34157E+04  2.05956E+04  7.07556E+03
  1.03663E+04  1.65867E+04 -7.27653E+03  1.33065E+04 -1.98729E+04  5.41624E+03 -1.43130E+04 -1.01192E+04
  5.98318E+00 -2.07382E+04  1.00062E+04 -1.49722E+04  1.51038E+04  6.25601E+02 -1.21703E+03  9.98251E+03
 -7.94228E+03  3.03791E+03 -4.51156E+03 -4.07145E+03 -4.95270E+03 -1.15709E+04  9.88492E+03 -2.06925E+04
  1.73014E+04 -7.52810E+03  2.88326E+04  1.04258E+04  2.21180E+04  2.20681E+04  1.61078E+04  3.23972E+04
 -2.42234E+03  3.48407E+04 -1.75160E+04  1.88110E+04 -1.80595E+04  6.41807E+03 -1.39448E+04 -8.76072E+03
 -1.14277E+04 -1.34802E+04  3.86451E+02  4.39202E+01 -3.03515E+03 -1.74578E+03 -1.06262E+04  6.77856E+03
 -1.61243E+04  2.34645E+03 -1.57576E+04 -1.17747E+04 -1.53047E+04 -1.28489E+04  7.80146E+03 -1.55604E+04
  1.06258E+04 -1.68291E+02  6.49028E+03  4.96623E+03 -1.52261E+03  6.98771E+03 -6.10846E+03  5.00616E+03
 -1.01827E+04 -9.78914E+03 -9.97764E+01 -1.13177E+04  1.06162E+04 -1.76809E+04  2.12600E+04 -7.18409E+03
  1.95336E+04  2.90179E+03  1.96159E+04  1.43335E+04  4.65692E+03  1.79302E+04 -1.44984E+04  1.37699E+04
 -7.20316E+03  7.76547E+03 -5.31233E+03 -2.32279E+03  2.44648E+03 -7.86165E+02  6.51057E+03 -7.48124E+02
  1.35855E+04  1.26400E+04 -5.86688E+03  1.59173E+04 -7.39708E+03  1.12518E+04 -1.50132E+04  3.95290E+03
 -1.59190E+04 -6.82407E+03 -4.06838E+02 -1.26892E+04  8.77302E+03 -5.26598E+03  4.90790E+03  3.24706E+03
 -2.88802E+03  1.04117E+04 -4.69538E+03  1.16639E+04 -1.14032E+04  6.58655E+03 -1.07279E+04 -4.14294E+03
 -7.41358E+03 -1.44083E+04  3.63249E+03 -2.10139E+04  1.98512E+04 -1.36423E+04  1.91446E+04  3.49430E+03
  1.03663E+04  1.21564E+04 -2.15880E+03  1.11620E+04 -1.05956E+04  9.60070E+03 -1.52842E+04 -7.26596E+03
 -1.31681E+04 -1.29803E+04 -2.94627E+03 -5.70319E+03  6.66945E+03 -1.19351E+04  6.40736E+03 -2.59542E+03
  7.81153E+03  4.51133E+03  2.09238E+02 -4.71847E+02  5.79554E+03 -3.08111E+03 -4.10063E+03 -6.12240E+03
  6.02159E+03 -7.28681E+02  1.42654E+04  6.04188E+02  1.47132E+04 -3.68876E+03  9.94194E+03  1.71405E+04
 -9.70047E+02  2.12083E+04 -2.08387E+04  1.50513E+04 -1.95233E+04  7.88066E+03 -1.65049E+04 -1.39950E+04
 -3.67481E+03 -2.60385E+04 -1.38885E+03 -1.71733E+04  4.17439E+03 -3.62426E+03  2.51629E+03 -6.03622E+03
  7.85271E+03  7.72112E+02  5.43762E+03 -9.09267E+03  2.50959E+03 -2.33021E+02  8.54306E+03 -7.85571E+03
  8.31135E+03  1.88988E+02  1.67577E+03  1.11978E+04 -7.39681E+03  1.55509E+04 -7.28005E+03  8.68925E+03
 -1.03235E+04 -4.14499E+03 -1.26217E+04 -9.90507E+03 -1.89959E+03 -1.57291E+04  1.12266E+04 -1.38113E+04
  1.19189E+04 -1.55085E+04  1.54320E+04  3.05041E+03  1.02105E+04  1.28638E+04  4.83426E+02  1.53390E+04
 -1.21247E+04  1.88633E+04 -1.26570E+04  4.63123E+03 -5.12374E+03 -2.26997E+03 -1.56642E+03 -1.92451E+03
  2.69590E+02  4.19133E+03 -3.09541E+03  1.66397E+03 -4.07273E+03  2.34418E+03 -1.26998E+04 -9.01512E+02
 -1.25241E+04 -1.21071E+04  1.08861E+03 -9.56194E+03  1.13375E+04 -1.68658E+04  1.23649E+04 -3.35917E+03
  2.08013E+04  4.35501E+03  7.81639E+03  1.03066E+04  9.74791E+02  1.02615E+04 -1.62747E+04  1.16195E+04
 -1.51941E+04 -1.48562E+03 -7.50435E+03 -7.18138E+03 -7.36892E+03 -6.66145E+03  6.39956E+03 -1.18932E+04
  1.16112E+04 -6.36479E+03  1.31746E+03  4.46999E+03  5.98526E+02  6.99821E+03  3.60848E+03  2.05521E+03
 -1.21984E+03 -1.27112E+02  2.57880E+03  3.41718E+03  4.04817E+03  4.28953E+03  4.05275E+03  3.93323E+03
  7.84561E+02  1.50484E+04 -1.14480E+04  1.34686E+04 -1.59731E+04 -2.31757E+03 -1.52881E+04 -9.19484E+03
 -6.89467E+03 -1.75368E+04  6.48073E+03 -1.78815E+04  6.82801E+03 -1.07292E+04  1.06776E+04 -6.06729E+03
  3.20731E+03  8.07858E+03  5.07900E+00  5.60229E+03 -2.79117E+03  1.05121E+04 -5.72752E+03  5.87823E+03
 -5.97776E+03 -5.01063E+03  8.40906E+03 -1.08105E+04  3.67307E+03  2.73730E+03  5.05762E+02 -3.24766E+03
  3.62236E+03 -3.32852E+02  2.56100E+03  4.47307E+03 -1.06544E+03  1.78504E+03 -4.36207E+03  4.41367E+02
  2.68014E+03  5.23287E+03 -2.32477E+02  5.10114E+03 -6.17395E+03  1.34599E+04 -4.11093E+03  1.48328E+04
 -3.01712E+03  4.70787E+03 -2.49488E+03 -2.57401E+02 -1.36209E+04 -1.48184E+02 -2.02877E+03 -3.43739E+03
  1.39357E+03 -1.01332E+04  4.83548E+03 -7.68317E+03  5.86243E+01  3.58417E+03  1.41815E+03  8.22190E+03
 -2.89595E+03  4.47892E+03 -1.15270E+04  3.12029E+01 -1.49935E+03 -1.06261E+04  9.20528E+02 -1.86681E+04
  7.53956E+02 -1.79978E+03  6.30510E+03 -3.08681E+03  4.87645E+03  1.83891E+03 -3.83032E+03 -7.87780E+02
 -1.61241E+03 -3.97164E+03 -3.07455E+03 -3.74566E+03  7.60528E+03 -9.69275E+03  6.07292E+03 -2.50440E+03
  8.60377E+03 -1.35565E+03  9.52190E+03  1.16850E+04  2.38422E+03  6.31546E+03 -9.58672E+03  9.08355E+03
 -9.22678E+03  2.49968E+03 -7.44077E+03  1.11650E+03 -1.79474E+03 -9.57402E+03  1.71045E+03 -6.28939E+03
  8.28728E+03 -2.13147E+03  4.40336E+03  5.80139E+03  1.95339E+03  4.14147E+03  3.03170E+03  9.18671E+03
 -1.76065E+03  2.91137E+03  1.08312E+02  2.53799E+03 -8.42595E+02  4.15552E+03  1.73065E+02  3.19424E+03
 -3.74503E+03  1.91705E+03 -3.12006E+03  4.12822E+03 -9.70070E+03 -4.46840E+03 -8.10125E+03 -8.44738E+03
 -1.67616E+03 -1.39486E+04  5.35480E+03 -1.41790E+04  1.54626E+04 -1.08330E+04  1.19503E+04  1.22686E+03
  1.75436E+04  3.54222E+03  1.08620E+04  2.60926E+02  2.01962E+03  7.20132E+03 -7.11491E+03  8.10043E+03
 -5.37580E+03  8.30655E+03 -6.31242E+03  1.91394E+03  5.39189E+03 -4.88489E+03 -8.62716E+03 -1.96789E+02
 -4.05711E+03 -2.16373E+02 -7.09768E+02  1.18140E+02  4.14584E+03 -4.52361E+03  3.78890E+03 -4.45742E+03
  9.38420E+02 -8.15888E+03  3.02575E+03 -4.74451E+03  8.21967E+03  2.58722E+03  6.00350E+02  1.05236E+04
 -8.02788E+03  1.30496E+04 -7.71869E+03  1.63325E+03 -1.13087E+04  2.42253E+02 -9.30407E+03 -9.76360E+03
 -2.90926E+03 -7.13730E+03 -3.36657E+03 -9.51564E+03  9.56137E+03 -6.67648E+03  9.25649E+03  1.74014E+03
  3.73976E+03  8.15422E+03  2.81581E+03  7.69171E+03 -4.30439E+03 -4.49953E+03  4.47680E+02  1.02393E+03
  2.59575E+03 -4.08308E+03  2.05886E+03  1.87702E+03  8.62567E+03  4.50259E+03  7.36560E+02 -7.42773E+02
 -3.48020E+03  6.50834E+03 -1.21889E+04 -7.07318E+03 -3.49994E+03 -3.95011E+03 -5.03087E+03 -9.47522E+03
  4.55932E+03 -6.36012E+03  6.89238E+03 -3.99252E+03  2.84493E+03  4.12008E+03  8.71752E+03 -3.09300E+03
 -1.96736E+03  3.29321E+03  6.42569E+03  3.31185E+03  8.59101E+02  2.04905E+03 -3.74465E+03  1.59668E+03
 -9.15810E+03 -3.59746E+02 -5.64448E+03 -3.72742E+02 -2.60278E+03 -3.26900E+03 -9.38728E+03 -9.94389E+02
 -1.02514E+04  6.89343E+02  3.39480E+02 -1.15101E+04  4.80103E+03 -6.05637E+03  1.94976E+03  2.25852E+03
  7.28464E+03  2.04764E+03  2.95390E+03 -6.47387E+01  4.03286E+03  4.46877E+03 -3.03579E+03  1.57775E+03
