 $NMID ID='MM_0lb_SNR50_8hz_g60_61.RAW', FMTDAT='(8E13.5)'
 TRAMP=1., VOLUME=1. $END
  3.02622E+05 -6.13532E+03  3.37590E+05  2.46805E+05  8.10165E+04  3.39812E+05 -1.36008E+05  2.52477E+05
 -1.91280E+05  8.25781E+04 -1.22225E+05 -2.92390E+04  1.84535E+03 -5.03699E+04  5.36808E+04 -1.39142E+03
  3.56587E+04  5.38504E+04 -8.58526E+03  8.15400E+04 -6.29054E+04  6.01783E+04 -8.67338E+04  3.43896E+04
 -8.11802E+04 -1.23126E+04 -5.74977E+04 -5.30132E+04 -1.88832E+04 -7.41492E+04  3.28005E+04 -4.62703E+04
  3.67365E+04  4.34889E+03  2.01365E+04  5.49677E+04 -3.24175E+04  4.69033E+04 -7.23467E+04 -5.56395E+03
 -5.57064E+04 -5.71060E+04 -1.45166E+03 -7.65809E+04  3.08881E+04 -5.49259E+04  5.38209E+04 -1.49464E+04
  4.45745E+04  3.56428E+03  2.61150E+04  2.49323E+04  1.83872E+04  3.09726E+04 -3.71348E+02  3.07727E+04
 -2.19827E+04  1.57149E+04 -1.54908E+04 -6.84596E+03  4.43855E+03 -6.30458E+03  2.10988E+04  1.87855E+04
  6.37284E+03  4.42297E+04 -3.66815E+04  3.47468E+04 -7.00658E+04 -2.33745E+03 -6.00111E+04 -4.03760E+04
 -1.08564E+04 -7.36837E+04  4.23435E+04 -3.57835E+04  6.49635E+04 -6.89368E+03  3.67028E+04  3.69636E+04
 -5.56583E+03  3.73071E+04 -3.45384E+04  2.09286E+04 -3.05020E+04 -7.16195E+03 -2.44271E+04 -1.23873E+04
 -7.39614E+03 -2.15387E+04  4.15726E+03 -2.11311E+04  9.27642E+03 -2.19870E+04  2.48769E+04 -1.24756E+04
  7.70617E+03  6.47017E+03 -5.04581E+03  1.07735E+04 -2.35794E+04 -6.21103E+03 -9.92552E+03 -3.73183E+04
  2.22622E+04 -4.19764E+04  5.69503E+04 -1.84258E+04  4.91173E+04  2.09908E+04  1.70634E+04  5.16844E+04
 -1.89505E+04  3.84637E+04 -2.84218E+04  4.38842E+03 -1.23880E+04 -2.80111E+04  1.42700E+04 -3.82759E+04
  4.43114E+04 -1.15960E+04  4.40544E+04  3.19119E+04  1.88294E+04  5.83134E+04 -1.00872E+04  5.55775E+04
 -4.13731E+04  4.23071E+04 -4.49616E+04  1.63626E+04 -5.27433E+04 -2.32239E+04 -1.87421E+04 -4.27413E+04
  5.87531E+03 -4.03783E+04  3.21419E+04 -1.81947E+04  3.96681E+04  9.01240E+03  2.87326E+03  2.13766E+04
 -7.22559E+03  1.72639E+04 -6.64635E+03 -3.45262E+03 -3.00635E+03 -1.68501E+04  2.04187E+04  6.48512E+03
  1.79283E+04  2.96393E+04 -7.77219E+03  3.58619E+04 -2.34921E+04  1.39131E+04 -2.80635E+04 -2.21223E+03
 -2.99418E+04 -1.81247E+04 -1.39162E+04 -1.91693E+04  5.27233E+03 -2.97544E+04  2.00502E+04 -2.71198E+04
  3.42331E+04 -1.31432E+04  3.87791E+04  8.61286E+03  3.33058E+04  2.51145E+04  7.82208E+03  4.02573E+04
 -1.53844E+04  2.83323E+04 -3.35771E+04  1.08358E+04 -3.05177E+04 -1.01330E+04 -1.67265E+03 -1.05032E+04
  8.07150E+02  9.46117E+02 -1.40096E+04  5.30166E+03 -2.76941E+04  2.58924E+03 -2.41205E+04 -1.18575E+04
 -1.55819E+04 -2.97540E+04  6.76642E+03 -2.81870E+04  2.16145E+04 -1.80675E+04  2.26714E+04 -8.23617E+03
  1.87898E+04  1.54769E+04  3.48197E+03  2.52970E+04 -2.37105E+04  2.00893E+04 -3.67424E+04 -5.23531E+03
 -1.56782E+04 -2.30818E+04  1.68569E+03 -2.85482E+04  1.10463E+04 -2.22442E+04  2.65933E+04 -1.59308E+04
  1.75254E+04 -1.05517E+03  1.84127E+04  3.32008E+03  8.67417E+03  1.88522E+03  8.87760E+03 -7.38081E+03
  2.49769E+04  7.50909E+03  3.14427E+04  1.60906E+04  2.33716E+04  4.86229E+04 -1.32262E+03  5.05420E+04
 -1.51884E+04  3.81410E+04 -4.45160E+04  1.47594E+04 -4.81838E+04 -3.05885E+03 -3.57750E+04 -3.06914E+04
 -1.61535E+04 -3.95820E+04  8.51936E+03 -2.84784E+04  2.63224E+04 -1.39809E+04  2.63591E+04  1.02518E+04
  5.85576E+03  1.46719E+04 -1.49005E+04  1.79402E+04 -2.01967E+04  2.03226E+03 -2.02949E+04 -1.36165E+04
  3.24958E+03 -1.47856E+04  1.08966E+04 -2.12236E+04  2.05533E+04  1.39383E+03  3.21408E+03  1.36196E+04
 -3.92791E+03  6.90969E+03 -8.99115E+03 -1.27805E+04 -1.54391E+03 -2.24990E+04  1.63443E+04 -1.72216E+04
  2.53682E+04 -1.30577E+04  2.72829E+04 -1.57393E+03  2.65390E+04  1.63807E+04  8.17403E+03  3.16478E+04
 -2.95817E+03  3.32697E+04 -2.24012E+04  2.72153E+04 -3.32217E+04  2.20978E+03 -2.13421E+04 -1.25538E+03
 -9.67520E+03 -1.34879E+04  3.13648E+03 -1.71286E+03 -6.39327E+03  5.54395E+03 -5.25545E+03  5.29755E+03
 -1.90501E+04 -2.28122E+03 -1.59928E+04 -1.46949E+04 -3.67648E+03 -1.56506E+04  6.95293E+03 -2.00249E+04
  1.61660E+04 -7.48532E+03  8.55947E+03  8.30458E+03  1.79429E+03  1.30718E+04 -6.64710E+03  3.95001E+03
 -8.84731E+03 -1.21324E+04 -1.04366E+04 -1.73369E+04  8.50657E+03 -1.86897E+04  2.16469E+04 -6.89062E+03
  2.81876E+04  4.31908E+03  1.94602E+04  2.25831E+04  7.68132E+03  2.36324E+04 -8.83908E+03  1.73566E+04
 -1.18133E+04  2.63031E+03 -4.44145E+03 -7.45755E+03  5.37008E+03 -4.33971E+03  8.30581E+03  3.89240E+03
  1.15470E+04  1.66191E+04  2.73256E+03  1.39438E+04 -1.18922E+04  1.40854E+04 -1.30868E+04  6.14765E+03
 -1.09777E+04 -1.43904E+04  6.66244E+03 -1.79230E+04  1.52549E+04 -4.84058E+03  1.56115E+04  4.84885E+03
  4.97276E+02  1.00562E+04 -2.97909E+03  1.60997E+04 -1.42815E+04  5.61337E+03 -1.36284E+04 -9.82879E+03
 -4.05230E+03 -1.86179E+04  2.74875E+03 -1.95544E+04  1.19996E+04 -1.02843E+04  2.20705E+04  7.58295E+03
  8.42782E+03  1.28519E+04 -7.74956E+03  1.82388E+04 -7.64934E+03  1.24494E+04 -1.56644E+04  7.94455E+00
 -1.57104E+04 -1.91468E+04 -1.95727E+03 -1.23352E+04  3.08127E+03 -1.42362E+04  8.74809E+03 -4.15012E+03
  1.45775E+04  4.49554E+03  5.08119E+03 -4.37163E+03 -4.52469E+02 -6.50561E+03  4.09906E+02 -1.12245E+04
  1.03633E+04 -8.08619E+03  1.82740E+04 -1.65105E+03  1.89276E+04  1.22897E+04  1.11225E+04  2.71377E+04
 -5.14806E+03  2.39222E+04 -2.36881E+04  2.41683E+04 -2.29835E+04 -1.34214E+02 -2.06248E+04 -6.77593E+03
 -9.09022E+03 -1.84245E+04 -2.62455E+03 -1.58873E+04  4.52547E+03 -1.20107E+04  6.54706E+03 -4.42175E+03
  8.96673E+03 -8.08731E+03  4.96460E+03  4.00089E+03  9.16038E+03 -5.91785E+03  1.14390E+04 -3.32629E+03
  1.26322E+04  2.65443E+03  5.59815E+03  2.04828E+04 -3.99732E+03  8.83806E+03 -1.50411E+04  5.25360E+03
 -1.60041E+04  5.72165E+03 -4.56803E+03 -6.96706E+03 -9.04803E+02 -1.52814E+04  1.13225E+04 -2.10695E+04
  1.74653E+04 -8.97243E+03  1.95579E+04  7.46634E+03  1.83106E+04  1.72808E+04  9.64431E+03  2.17396E+04
 -7.62193E+03  1.66222E+04 -1.45392E+04  9.87291E+02 -5.37936E+03 -2.77225E+03 -6.87476E+03  1.83891E+03
 -1.45484E+03  5.60787E+03 -2.58750E+03  4.12556E+03 -6.47198E+03  1.07240E+03 -1.51191E+04 -3.20081E+03
 -3.97854E+03 -7.37373E+03  4.58331E+03 -1.24874E+04  1.20014E+04 -1.36325E+04  1.53997E+04 -6.59864E+03
  1.22912E+04  1.14807E+04  1.00174E+04  1.54596E+04  3.13358E+03  1.79678E+04 -4.08406E+03  1.56463E+04
 -1.35100E+04 -4.87079E+03 -1.24820E+04 -1.51555E+04 -7.26092E+03 -1.41901E+04  9.70666E+03 -1.14665E+04
  3.75807E+03 -5.19316E+03  1.06567E+04  6.80143E+03  5.90116E+03 -3.92223E+02  2.36938E+03 -1.38864E+03
  4.77096E+03  8.68789E+03  3.45539E+03  3.17405E+01 -5.07120E+02  9.97320E+03  3.77235E+03  1.44812E+03
 -4.80387E+03  4.73537E+03 -5.53217E+03  1.51828E+04 -2.56384E+04  7.61262E+03 -1.59364E+04 -4.92944E+03
 -1.20346E+04 -1.75756E+04  2.86735E+03 -2.48565E+04  1.26489E+04 -1.82915E+04  1.67040E+04 -3.00562E+03
  1.75438E+04 -1.58926E+03  4.53711E+03  1.15315E+04 -1.43983E+03 -1.26507E+03 -1.31809E+04  1.49322E+03
 -8.17968E+03 -7.81762E+03  3.29420E+03 -5.90125E+03  1.12214E+04 -8.53293E+02  1.26723E+04 -3.12451E+03
  2.29929E+03  8.39116E+03  2.19215E+03  5.91737E+03  5.86179E+03  3.46961E+03  2.77035E+03 -2.62291E+03
  6.94444E+03 -2.50266E+03  6.19158E+03  5.40388E+03  7.29740E+03  5.67145E+03 -5.43762E+03  1.91274E+04
 -7.72961E+03  9.69869E+03 -9.28963E+03 -2.42190E+03 -7.82299E+03 -7.20637E+03 -5.74397E+03 -1.23053E+04
  1.69998E+03 -5.79965E+03  1.10796E+03 -1.86215E+03 -6.18351E+02  1.39287E+04 -2.43105E+03  2.38043E+03
 -1.23999E+04 -3.13875E+03 -1.05700E+04 -9.32625E+02 -8.54214E+03 -1.18387E+04  4.79579E+03 -1.12194E+04
 -2.29071E+03 -1.91488E+03  8.57638E+03  3.53023E+03  5.05979E+03  1.78587E+03  2.22325E+03 -3.28947E+03
 -9.03707E+02  4.66805E+03 -9.31423E+03 -7.05008E+03  5.61072E+03 -5.38429E+03  1.19900E+04 -9.45722E+03
  4.66776E+03 -3.56355E+02  1.06046E+04  8.33437E+03  3.58479E+03  1.40986E+04 -5.30553E+03  1.21855E+04
 -6.97040E+03  1.25748E+04 -1.34585E+04 -5.16618E+03 -8.12017E+03 -1.30257E+04  7.29321E+03 -5.93774E+03
  7.32808E+03  1.24179E+03  8.66386E+03 -1.81106E+03  3.07343E+03  6.43458E+03 -6.90684E+03  2.32952E+03
 -6.97871E+03  4.03745E+03 -8.87463E+02  6.06708E+03 -2.41564E+03  3.55547E+03 -4.46910E+03  4.18450E+03
  4.08836E+03  8.97036E+03 -3.70195E+03 -2.57011E+03 -1.37554E+04  1.60133E+03 -1.41491E+04 -8.21099E+03
 -4.80351E+03 -1.64419E+04  2.82741E+03 -1.94524E+04  2.32566E+04 -1.51272E+04  1.85331E+04 -7.19381E+03
  1.79667E+04  1.06280E+03  8.42741E+03  1.51122E+04  1.18467E+03  1.28387E+04 -2.29257E+03  1.22322E+04
 -1.18050E+04  4.34141E+03 -5.06609E+03 -2.90144E+03  4.19960E+03  2.03469E+03 -1.49295E+03 -4.23616E+03
  2.25482E+03  1.36439E+03 -2.80580E+03 -2.07163E+03  2.63670E+03 -6.45963E+03  5.55965E+02 -4.22900E+03
  1.07449E+04 -8.93843E+03  9.20846E+03  1.42035E+03  8.62157E+03  3.19516E+03  9.05192E+03  1.90282E+04
 -7.40053E+03  1.79302E+04 -1.27183E+04  1.36593E+04 -1.41732E+04 -5.13412E+03 -1.51710E+04 -4.38670E+03
  5.39464E+02 -6.54014E+03  8.05672E+03 -1.09621E+04  9.60485E+03 -8.73680E+03  7.24602E+03  2.92320E+03
  1.08846E+03  5.96964E+03 -3.19323E+03 -4.52533E+03  9.99108E+02  1.73170E+03  3.61234E+02 -5.32357E+03
  3.96741E+03 -5.62428E+03  7.09374E+03 -1.47661E+03 -5.61640E+03  1.01468E+04 -1.11932E+03  9.95221E+03
  1.84237E+03  5.88023E+03 -8.11984E+03  9.41177E+02 -6.06605E+03 -4.59364E+03 -2.18673E+03 -1.02490E+04
  5.46643E+03 -8.06047E+03  1.21710E+04  1.91215E+03  6.81042E+03  1.17859E+03  2.84218E+03  7.30055E+03
 -7.40656E+03  1.71948E+04  6.59764E+02  7.96043E+03 -5.55479E+03  3.02247E+02  3.58385E+03  3.32327E+03
 -2.27793E+01  7.74159E+02  3.15369E+03 -2.55522E+03 -1.51676E+03  2.18199E+03 -1.04485E+03  1.04606E+04
 -7.57895E+03 -5.73110E+03 -1.01272E+04 -1.17774E+04 -2.57214E+03 -1.43633E+04  1.18326E+04 -4.56090E+03
  1.17452E+04  2.25139E+03  7.60834E+03  8.92154E+03 -9.93403E+02  9.99384E+03 -1.15792E+04  6.41420E+03
