 $NMID ID='MM_0lb_SNR50_20hz_g50_83.RAW', FMTDAT='(8E13.5)'
 TRAMP=1., VOLUME=1. $END
  3.11004E+05  5.42237E+02  3.35073E+05  2.49060E+05  8.65413E+04  3.38138E+05 -1.32527E+05  2.50113E+05
 -1.83819E+05  8.05008E+04 -1.09764E+05 -3.20708E+04  1.65148E+03 -5.44296E+04  5.21592E+04  2.74840E+03
  3.36088E+04  4.89566E+04 -1.56358E+04  7.33641E+04 -6.43159E+04  6.29577E+04 -7.88175E+04  3.11676E+04
 -8.16830E+04 -1.14159E+04 -5.16115E+04 -4.68645E+04 -1.47327E+04 -6.58731E+04  2.60332E+04 -4.30032E+04
  4.17120E+04  3.26579E+03  2.14475E+04  4.38020E+04 -3.27071E+04  3.94349E+04 -6.59243E+04  3.56468E+03
 -5.34806E+04 -5.60129E+04 -8.80628E+03 -7.58582E+04  3.29521E+04 -5.39811E+04  4.09804E+04 -1.71324E+04
  3.98107E+04  1.18221E+04  3.30978E+04  2.37933E+04  1.96627E+04  2.96798E+04 -4.04022E+03  2.75467E+04
 -2.53592E+04  1.07018E+04 -2.08821E+04 -3.97149E+03  5.83569E+03 -7.09439E+03  2.28143E+04  1.40234E+04
  6.67224E+03  3.14667E+04 -3.03351E+04  3.30472E+04 -6.10814E+04  1.63674E+03 -5.57289E+04 -4.20021E+04
 -1.26376E+04 -5.45071E+04  4.04642E+04 -4.35200E+04  5.39644E+04 -4.12128E+03  3.35850E+04  2.61721E+04
 -1.08448E+04  3.42984E+04 -2.73702E+04  1.05797E+04 -2.29801E+04 -8.33365E+03 -1.05345E+04 -8.57495E+03
 -8.80809E+03 -1.30901E+04 -1.07550E+03 -1.61408E+04  4.90645E+03 -2.24893E+04  1.27003E+04 -1.25639E+04
  1.48274E+04  4.05602E+03 -1.77986E+03  1.58826E+04 -1.91764E+04 -5.37908E+03 -7.59462E+03 -3.05390E+04
  2.13216E+04 -3.80697E+04  4.23426E+04 -2.12692E+04  3.91716E+04  1.75308E+04  1.40547E+04  4.31180E+04
 -1.47891E+04  3.00781E+04 -1.97416E+04 -1.80335E+03 -1.15180E+04 -2.60645E+04  1.71618E+04 -3.42334E+04
  3.86458E+04 -7.52251E+03  3.03188E+04  2.18249E+04  1.48856E+04  4.19349E+04 -6.61232E+03  4.33346E+04
 -2.86911E+04  3.11764E+04 -3.65872E+04  8.54718E+03 -3.30440E+04 -1.57801E+04 -2.18422E+04 -3.20937E+04
  4.05306E+03 -3.50228E+04  2.51652E+04 -9.28325E+03  2.44638E+04  1.13753E+04  3.49076E+03  1.56396E+04
 -1.01857E+04  9.78139E+03 -7.82489E+03 -7.46812E+03  7.02104E+03 -1.02217E+04  1.68675E+04  7.96235E+03
  1.05583E+04  2.18458E+04 -8.18110E+03  2.22556E+04 -2.22064E+04  1.18116E+04 -2.26883E+04 -6.56263E+03
 -1.66109E+04 -1.42706E+04 -5.43929E+03 -1.67038E+04  4.40556E+03 -1.40253E+04  1.34542E+04 -1.28451E+04
  2.23409E+04 -1.21577E+04  2.75294E+04  4.64636E+03  2.20642E+04  1.32467E+04  6.01003E+03  3.29901E+04
 -1.88688E+04  2.57183E+04 -2.33767E+04  6.33800E+03 -1.69134E+04 -1.36995E+04 -4.21675E+03 -1.18471E+04
  4.64363E+03 -4.86452E+03 -3.92360E+03  9.83670E+03 -1.02074E+04  7.07275E+03 -1.19632E+04 -4.83042E+03
 -1.14630E+04 -1.90330E+04  7.12966E+03 -2.13146E+04  1.08001E+04 -1.14576E+04  1.31535E+04 -2.96938E+02
  8.95537E+03  8.05672E+03 -1.84027E+03  1.48774E+04 -1.14326E+04  9.57707E+03 -1.52624E+04 -3.72888E+03
 -9.98839E+03 -8.79140E+03  3.47327E+03 -1.93052E+04  6.17409E+03 -1.61768E+04  1.49452E+04 -9.33803E+03
  1.65551E+04  1.58319E+02  6.96232E+03  4.57915E+03  4.55834E+03 -3.69258E+03  6.36917E+03  4.54844E+03
  1.69445E+04  2.06695E+03  1.38113E+04  1.54617E+04  8.03223E+03  2.21350E+04 -4.49844E+03  2.04740E+04
 -1.33905E+04  2.12414E+04 -2.44733E+04  5.13705E+03 -2.05063E+04  5.97460E+01 -1.78599E+04 -1.00731E+04
 -7.19602E+03 -2.06633E+04  7.79401E+03 -1.42891E+04  1.26770E+04 -1.09503E+04  1.26660E+04  4.42449E+03
  6.57990E+03  1.11829E+04 -7.65631E+03  9.20909E+03 -1.23176E+04  1.68913E+02 -9.72157E+03 -1.03282E+04
  1.08200E+03 -8.51720E+03  2.44871E+03 -1.07599E+04  3.65403E+03  1.04502E+03  3.51002E+03  8.32337E+03
 -3.66754E+03  4.16836E+03  4.89244E+02 -1.60307E+03  4.08487E+03 -5.05142E+03  6.76682E+03 -6.64839E+03
  1.09888E+04 -3.06000E+03  9.09756E+03  5.01736E+03  8.17064E+03  5.45265E+03  5.09176E+03  6.54856E+03
 -5.44313E+03  1.57217E+04 -6.49976E+03  6.30272E+03 -1.04260E+04  1.44528E+03 -7.52865E+03 -1.13693E+03
  1.66437E+02 -1.54735E+03 -8.44154E+02  1.16289E+03 -2.34456E+03  6.87775E+03 -6.79741E+03  3.19249E+03
 -9.64904E+03 -9.20947E+02 -1.29049E+04 -3.73278E+03 -3.73690E+03 -1.11700E+04  6.00835E+02 -8.74293E+03
  6.07045E+03 -9.78573E+03  5.09434E+03  2.82553E+03 -4.42442E+02  2.91721E+03  1.91830E+03  1.60603E+03
 -1.68732E+02 -6.01989E+03  1.63758E+03 -1.00505E+04  8.97993E+03 -9.61816E+03  1.22791E+04 -4.37679E+03
  8.90219E+03  1.70518E+03  4.41290E+03  1.82383E+03 -2.98659E+03  9.60709E+03  1.85000E+01  1.62952E+03
 -8.08582E+03  3.23638E+03 -2.93548E+03 -8.32736E+02  1.30469E+03 -3.02367E+03  5.61342E+03 -5.26697E+03
  3.81973E+03  5.16355E+03  2.54093E+03  3.80971E+03 -3.17674E+03  7.25770E+03 -9.87655E+03  3.68991E+03
 -5.45819E+03 -5.44174E+03  2.00028E+02 -3.28525E+03  3.98567E+02 -5.00954E+03  4.40711E+03  4.28350E+02
  1.55291E+03  6.35036E+03 -5.44036E+03  5.06136E+02 -3.44218E+03  3.39676E+03 -7.36014E+03 -1.59874E+03
 -2.76450E+03 -7.69093E+03  1.49307E+03 -6.57180E+03  5.25906E+03 -7.30244E+03  2.83969E+03 -3.13743E+03
  2.33273E+03  1.70519E+03  2.20805E+03  7.78333E+03 -6.16959E+03  1.58978E+03  2.59937E+02  2.52393E+03
 -3.84672E+03 -6.80136E+03  8.70069E+02 -3.28136E+03  3.35165E+03 -2.15987E+03  4.47318E+03 -6.24338E+02
  2.66157E+03  1.69272E+03  4.40218E+03 -4.56339E+02 -1.38766E+03  3.70055E+03 -4.01838E+03  5.57526E+02
  3.25927E+03  1.25902E+03  6.11474E+03  1.39994E+02  7.14009E+03  4.80348E+03  4.32408E+03  1.12481E+04
 -1.38258E+03  6.93704E+03 -9.07188E+03  1.20151E+03 -5.69602E+03  9.87864E+01 -7.09775E+03 -1.29079E+03
 -4.62182E+03 -4.92677E+03 -3.00070E+03 -7.06761E+03  3.04389E+03 -2.96115E+03 -1.11746E+03  1.12800E+03
  1.24991E+02 -2.82476E+03  3.20368E+03 -3.50479E+03  6.81685E+03  6.53729E+02  2.65810E+03 -1.14745E+02
  7.14597E+03 -2.17575E+03 -2.15672E+03  5.10379E+03 -4.04990E+03  2.26550E+03 -1.25251E+03  1.45279E+03
 -1.11112E+03 -9.25231E+02  9.58518E+02 -2.59430E+02  2.06101E+03 -3.23433E+03  9.28181E+02 -3.45603E+03
  5.34184E+03 -4.82833E+03  7.04988E+03 -1.82280E+03 -1.02954E+03  2.28606E+03 -2.32238E+03  9.55799E+03
  3.18816E+02  5.00884E+03 -2.68073E+03  2.17479E+03 -1.95496E+03  2.78308E+03  8.66235E+00  1.09043E+03
 -1.99453E+03  5.03031E+03  6.63202E+02  1.57420E+03 -3.33095E+03  1.52356E+03 -6.02789E+03 -4.44519E+03
 -1.12287E+03 -3.94312E+03  5.65257E+03 -8.28564E+03  1.23371E+03 -4.76090E+03  2.53458E+03 -1.42535E+03
  4.86037E+03  7.16372E+03  7.12587E+02  4.29727E+03 -2.69207E+03  4.50309E+03 -5.05578E+03  2.94252E+03
 -3.89462E+03  3.27473E+02 -9.06303E+02 -3.63562E+03 -2.17768E+03 -1.50357E+03  1.74031E+03 -2.58389E+03
 -1.11652E+03 -2.45538E+03  4.49452E+03 -2.63726E+02  3.51651E+03  1.74618E+03  6.25801E+02  1.47372E+03
  2.19069E+03  2.29239E+03 -1.05507E+03  1.80311E+02 -5.09360E+02  2.14276E+03  1.67018E+03  4.84267E+03
 -5.54651E+02  2.20517E+03 -2.25133E+03  1.30733E+03 -3.46725E+03 -5.54898E+02 -5.09189E+03  4.17510E+03
 -2.43857E+03 -4.24091E+03  9.52284E+02 -3.79538E+03  5.10788E+03 -2.41105E+03  3.52055E+03 -2.09015E+03
  3.36945E+03  3.12431E+03  2.28491E+02  1.40588E+03 -2.69935E+03  1.35732E+03  3.85905E+03  1.61740E+03
 -1.80012E+02 -2.85357E+03 -1.66868E+03 -1.24223E+03  4.12130E+03 -9.07682E+02  4.98344E+03  5.42552E+02
  9.08731E+02  2.73621E+03  2.03137E+03 -1.39703E+03 -2.58054E+03  6.30084E+02  2.50939E+03 -4.38735E+03
 -2.08415E+03 -9.22245E+01  1.53646E+03 -1.15262E+03  1.35628E+03 -1.51796E+02 -6.56907E+01  2.45758E+03
 -1.10221E+03  4.63155E+03  5.19501E+02  3.75902E+02 -1.41260E+03 -2.49477E+03  3.62787E+03  1.28828E+02
  2.57725E+03 -8.98437E+02  3.44070E+02  1.99935E+03  2.34624E+03  2.47544E+03  4.19509E+03 -2.10249E+03
 -4.48110E+01  3.27853E+03  2.37258E+03 -1.03061E+03  2.51878E+03 -2.38148E+03  3.82139E+01 -2.13335E+03
 -2.67707E+03  2.94055E+02 -6.23364E+03 -2.37864E+01 -1.43102E+03  3.48484E+03  3.05918E+03  1.79846E+03
 -5.04373E+03 -2.72986E+03 -1.19617E+03 -1.30279E+03 -3.50381E+03 -3.38121E+03  3.39610E+02  2.09183E+03
  3.78071E+02 -1.17076E+03  1.40841E+03  7.99348E+02 -1.50392E+03  6.30932E+02 -1.03436E+03  3.48825E+03
 -1.20306E+03  1.20316E+03 -2.84875E+03  2.68277E+03 -9.22028E+02  5.58771E+02 -2.35805E+03 -2.48804E+03
 -2.23421E+03  1.86489E+03  8.07995E+02 -1.84051E+03 -2.85769E+01  3.59042E+03 -2.67440E+03 -2.55025E+01
 -1.18609E+03 -9.57278E+02  2.87069E+03 -1.21101E+03  6.13533E+02  2.44623E+03  4.70794E+02  1.65498E+03
  3.81299E+02 -1.19430E+03 -6.94871E+03 -4.73176E+01  5.42942E+00  1.84267E+03 -1.74949E+03 -3.40418E+03
 -3.97901E+03 -4.06102E+03 -4.78338E+03 -2.46205E+03 -8.42371E+03 -8.28430E+02  4.46402E+03 -8.83671E+02
 -5.21172E+02 -3.64096E+03  1.52972E+02  3.02033E+02 -2.02070E+03  6.48294E+03  1.05470E+03  1.05935E+03
 -9.72582E+02 -9.76667E+02  5.16919E+02  1.63119E+03  4.44612E+03  1.96810E+03  4.11346E+02 -1.91767E+03
 -2.58985E+03  1.11303E+03 -1.68902E+03 -2.49500E+03  3.97291E+01 -1.80590E+02 -1.56330E+02  2.58012E+03
 -3.70944E+03  2.56137E+01 -1.46592E+02 -3.89734E+03 -1.93864E+03 -4.68119E+01 -2.60316E+03 -9.88850E+02
  7.20073E+02  4.58675E+03  2.13671E+03  5.77023E+03 -1.59985E+03 -5.27502E+03 -1.27067E+03 -2.30657E+02
 -1.16421E+03 -5.43436E+02 -1.87403E+03 -4.21556E+03 -5.40245E+02  1.70791E+03 -3.16016E+03  3.17659E+03
  4.51126E+02  2.10680E+03  4.47071E+03  1.90609E+03 -1.63102E+03  2.99134E+03 -1.35784E+03  2.43659E+03
  2.48722E+02  4.81897E+03  2.47625E+03  1.02006E+03 -8.23284E+02 -3.57824E+03  2.13691E+03  3.66793E+02
  2.03011E+03  2.96238E+03 -2.31241E+02  1.49159E+03 -5.06873E+03  1.92466E+03  3.18123E+03  2.26334E+02
  7.56979E+02 -1.95805E+03  2.48321E+03  1.72016E+02  4.93573E+03  1.63542E+03 -4.91982E+02  1.63059E+03
  1.24287E+03 -1.35524E+03 -1.77481E+02  8.80081E+02  2.39060E+02  3.87509E+02  2.53890E+03 -7.97686E+02
 -3.26527E+03  1.77936E+03 -2.13813E+03 -9.03655E+02 -4.00652E+03 -5.52021E+02  9.23212E+02 -5.68431E+03
 -4.06134E+03 -3.03989E+03  2.50382E+03 -2.08851E+03  2.57707E+03 -4.45943E+03  2.62550E+03  2.50726E+03
  1.67752E+03 -2.46981E+03  2.37712E+03 -2.99522E+02 -9.34890E+02  2.52975E+03 -2.05219E+03  1.32151E+03
