 $NMID ID='MM_0lb_SNR50_18hz_g50_23.RAW', FMTDAT='(8E13.5)'
 TRAMP=1., VOLUME=1. $END
  3.06069E+05  8.96012E+02  3.42249E+05  2.50428E+05  8.28651E+04  3.38125E+05 -1.33053E+05  2.48936E+05
 -1.89025E+05  8.35264E+04 -1.08964E+05 -3.23344E+04 -2.56154E+03 -4.94558E+04  5.26712E+04  2.22829E+03
  4.06411E+04  5.11843E+04 -2.03864E+04  7.42212E+04 -6.10436E+04  6.02245E+04 -7.78782E+04  2.86345E+04
 -8.18969E+04 -1.49522E+04 -5.44828E+04 -5.39269E+04 -1.73088E+04 -7.07247E+04  2.48006E+04 -4.34004E+04
  3.82543E+04  4.66750E+03  1.78020E+04  4.81226E+04 -3.49426E+04  5.07542E+04 -6.69935E+04  2.95204E+03
 -5.11546E+04 -5.71133E+04 -6.91600E+03 -7.75215E+04  3.29394E+04 -5.30755E+04  4.51823E+04 -1.94909E+04
  4.37682E+04  1.32433E+04  3.17425E+04  2.10058E+04  1.72282E+04  3.22311E+04 -3.46429E+03  3.19143E+04
 -2.24041E+04  1.18559E+04 -2.04868E+04 -3.46206E+03  2.97603E+03 -9.92433E+03  2.08626E+04  1.03877E+04
  6.54909E+03  3.40021E+04 -3.33331E+04  3.26550E+04 -6.36878E+04  1.38899E+02 -5.61300E+04 -4.15898E+04
 -1.51932E+04 -6.38052E+04  4.04617E+04 -4.91223E+04  5.68620E+04  2.42012E+03  3.12437E+04  3.12928E+04
 -6.95097E+03  3.50485E+04 -2.89174E+04  1.35574E+04 -2.69742E+04 -1.16314E+03 -1.31960E+04 -5.28356E+03
 -5.68771E+03 -9.63747E+03  4.41432E+02 -2.05878E+04  5.63688E+03 -2.35035E+04  1.70763E+04 -1.39951E+04
  7.15881E+03  2.76747E+03 -1.05597E+04  1.14865E+04 -2.34129E+04 -8.81790E+02 -6.12710E+03 -3.22122E+04
  1.95947E+04 -4.61443E+04  4.58582E+04 -1.58196E+04  4.26243E+04  1.70263E+04  1.37673E+04  3.99317E+04
 -1.74369E+04  3.20281E+04 -2.28337E+04  2.30691E+03 -5.96894E+03 -2.56271E+04  1.60312E+04 -3.39078E+04
  4.10573E+04 -8.40777E+03  3.10983E+04  2.26891E+04  1.48316E+04  4.64137E+04 -7.25465E+03  4.66465E+04
 -2.96289E+04  3.01600E+04 -3.35606E+04  5.77439E+03 -3.92145E+04 -1.52273E+04 -2.05374E+04 -3.51932E+04
  6.82569E+03 -3.57515E+04  3.29483E+04 -1.48824E+04  2.95756E+04  1.52353E+04  2.90676E+03  2.19460E+04
 -1.18681E+04  1.10622E+04 -6.11510E+03 -1.25855E+04  7.57018E+03 -1.44113E+04  1.56483E+04  1.02744E+04
  2.03820E+04  1.91097E+04 -7.69575E+03  1.95322E+04 -2.13473E+04  6.95037E+03 -2.47308E+04 -5.09706E+03
 -1.98921E+04 -1.50610E+04 -4.97532E+03 -1.65071E+04 -3.95545E+03 -1.85046E+04  5.88950E+03 -1.45004E+04
  2.23257E+04 -1.40906E+04  2.65035E+04 -1.28456E+03  2.25929E+04  1.58908E+04  5.06671E+03  3.65705E+04
 -1.70167E+04  2.59902E+04 -2.16418E+04  1.20884E+04 -1.91889E+04 -9.26494E+03 -8.08988E+03 -8.14349E+03
  5.60124E+03 -6.97063E+02 -2.39513E+03  4.95937E+03 -1.56953E+04  6.87197E+03 -1.32920E+04 -2.96533E+03
 -6.57542E+03 -1.81660E+04  8.31324E+03 -1.80959E+04  1.13083E+04 -1.05438E+04  1.16242E+04 -1.61535E+02
  1.14211E+04  1.10259E+04 -1.06085E+03  1.92498E+04 -1.14754E+04  7.82115E+03 -1.48850E+04 -2.87583E+03
 -1.30065E+04 -1.33123E+04 -1.92948E+03 -1.70713E+04  7.86398E+03 -1.72706E+04  1.62676E+04 -7.87947E+03
  1.36807E+04 -9.23120E+01  1.23184E+04  7.77267E+02  7.98555E+03  2.29206E+03  6.19355E+03 -8.42178E+02
  1.72853E+04 -1.85606E+03  2.01326E+04  1.18781E+04  5.10088E+03  2.94265E+04 -3.89190E+03  2.58296E+04
 -1.07892E+04  1.85923E+04 -2.60798E+04  8.14045E+03 -2.54780E+04  3.78441E+03 -1.90913E+04 -1.77820E+04
 -1.01020E+04 -2.01844E+04  9.40233E+03 -2.01296E+04  2.08418E+04 -1.32428E+04  1.22629E+04  2.87733E+03
  4.95354E+03  1.00407E+04 -6.19016E+03  1.41084E+04 -1.88449E+04  8.01606E+03 -1.00290E+04 -8.90214E+03
  4.57109E+03 -2.01968E+04  5.29064E+03 -8.93812E+03  9.67666E+03 -3.58876E+03  9.32876E+02  4.29577E+03
 -7.56630E+03  2.32723E+03 -5.58104E+02 -4.73161E+03 -3.15019E+03 -8.71569E+03  7.52764E+03 -1.46485E+04
  1.48725E+04 -3.93152E+03  1.37715E+04  4.16674E+03  1.29053E+04  8.45107E+03  2.17169E+03  1.21822E+04
 -4.45657E+03  1.71071E+04 -1.30860E+04  8.99432E+03 -1.20238E+04  2.68501E+03 -7.90491E+03 -5.50744E+03
 -2.00892E+03  1.33106E+03  1.34168E+02  5.37007E+02 -3.31355E+03  1.83790E+03 -7.36061E+03  3.42037E+03
 -8.02532E+03 -2.07812E+03 -1.02739E+04 -9.41573E+03 -2.68334E+03 -1.65535E+04  5.53419E+03 -8.22205E+03
  7.44704E+03 -6.83893E+03  6.60029E+03  1.46963E+03 -9.54288E+02  5.31875E+03 -1.59385E+03  8.44773E+02
 -7.83032E+03 -6.75514E+03 -1.92189E+03 -7.13027E+03  4.12549E+03 -9.19286E+03  9.56081E+03 -3.90890E+03
  1.40364E+04  3.46747E+03  1.11337E+04  6.49425E+03 -1.82050E+03  8.67349E+03 -3.81462E+03  8.99525E+03
 -7.23782E+03  6.69193E+03 -5.92722E+01 -1.49302E+03  4.77317E+02 -8.27089E+03  6.52912E+03  1.31634E+03
  9.96808E+03  2.84981E+03  1.98332E+03  6.11051E+03 -2.04370E+03  9.16933E+03 -8.54216E+03  4.98713E+03
 -3.99605E+03 -9.85432E+02  1.03363E+03 -9.37881E+03  3.07049E+03 -3.56741E+03  2.19659E+03 -1.64187E+02
 -1.77764E+03  3.89810E+03 -3.68636E+03  4.33562E+03 -6.58761E+03 -6.10456E+02 -4.24146E+03  3.37976E+02
 -3.01931E+03 -9.34895E+03 -2.42647E+02 -9.25151E+03  8.44065E+03 -2.96547E+03  3.72346E+03  3.71349E+02
  2.39048E+03  4.98535E+03  2.75606E+03  5.57640E+03 -8.25181E+03  5.43548E+03 -3.89774E+03 -1.70589E+03
 -1.12223E+04 -4.81348E+03 -5.64858E+03 -4.74380E+03  3.95944E+03 -6.80138E+03  8.15240E+02 -4.21561E+03
  3.42521E+03  1.99625E+03 -1.16782E+03  4.09297E+03 -1.16150E+03 -1.40538E+03  4.04906E+03 -1.17761E+03
  5.12928E+03  1.06693E+02  5.11346E+03 -2.72090E+03  5.48247E+03  1.38064E+03  3.99920E+03  7.74334E+03
  1.85646E+03  9.09488E+03 -8.04091E+03  7.71951E+03 -6.70129E+03  4.07303E+03 -1.14398E+04 -5.87015E+03
 -5.03327E+03 -9.12957E+03  1.36697E+03 -6.17044E+03  1.48082E+03 -2.36533E+03  1.89532E+03  2.89062E+03
  2.36361E+03 -6.77079E+01  1.58358E+03  1.25793E+03  1.90972E+03 -1.01779E+03  7.32004E+03 -4.14464E+03
  6.50598E+03 -5.39168E+02  8.05152E+02 -2.64496E+02 -4.62887E+03  4.47712E+03 -4.49042E+03 -5.82072E+02
 -3.40534E+03  2.65482E+03 -2.70160E+03 -6.23638E+03 -3.66510E+03 -8.17062E+03  6.52073E+03 -7.64479E+03
  5.26094E+03 -2.93442E+03  8.93662E+03 -1.61448E+02  9.54757E+03  3.55749E+03 -7.85261E+02  5.98311E+03
 -1.23808E+03  4.77931E+03 -7.25353E+03  4.04088E+03 -3.94633E+03 -3.28632E+03 -3.40395E+03 -2.15062E+03
 -2.23106E+03 -2.58934E+03 -1.39956E+03  8.26312E+01 -3.42482E+03 -2.20055E+03 -4.63135E+03 -1.91797E+03
 -1.81477E+03 -2.52039E+03 -9.48037E+03 -3.69982E+03  5.12594E+03 -3.39456E+03  4.68471E+03 -7.32254E+03
  7.24948E+02  2.70928E+02 -1.92781E+03  4.08967E+03 -3.36521E+03  3.93508E+03 -1.51205E+03  3.67429E+01
 -1.28208E+03  1.50740E+03 -3.78187E+02 -3.44632E+03 -2.21600E+03 -4.38532E+03 -5.12332E+01  1.12082E+03
  2.35960E+03 -2.83608E+03  7.66552E+03  2.72975E+03  3.68905E+02  1.55064E+03  3.29188E+03 -7.04153E+02
  6.27158E+03  4.87440E+02  4.53664E+03  8.42802E+02 -1.13520E+03  3.17527E+03  4.31075E+03  1.63622E+03
 -5.31151E+03  2.61756E+03 -1.99112E+03  7.16665E+03  2.12671E+03  2.28502E+03 -1.75486E+03  3.36635E+03
 -1.42073E+03 -6.15229E+03 -2.89384E+03 -3.16118E+03 -8.88730E+02  5.95719E+02  3.29577E+03 -3.72861E+03
  1.18084E+02 -2.63778E+03  3.00553E+03  4.00275E+03 -5.71914E+00  8.70793E+01 -5.80171E+02  2.44049E+03
  4.16525E+02 -3.64814E+03  2.37687E+03 -3.71393E+03  4.98202E+03 -4.34597E+03 -1.25982E+03 -1.33183E+03
  1.29373E+03  1.70812E+03 -2.06722E+03 -1.37311E+03  1.16630E+02 -3.27591E+03  3.56044E+03  2.72555E+03
  3.80858E+02  4.59855E+03  3.27919E+03  5.19366E+03  2.27216E+03  5.23736E+03  1.61094E+03 -3.70856E+02
 -3.70021E+03  7.28765E+02  1.40280E+03 -2.60682E+03 -4.26459E+03 -1.63208E+03 -1.82241E+03 -4.33983E+03
 -3.25993E+03 -4.11195E+03 -6.75306E+02  6.13323E+02  2.77821E+03  2.04474E+03 -3.57549E+03  1.38261E+03
  4.03087E+03 -1.24370E+03 -3.06681E+02  6.57398E+02 -2.01108E+03  5.85864E+02 -1.96303E+02 -1.86795E+03
  1.21102E+03  2.63597E+03  1.55892E+03 -3.08826E+02  1.92531E+03  2.40308E+03  4.22909E+03  2.22836E+03
  1.14645E+03  5.63821E+02 -2.84144E+03  1.45838E+03 -5.38604E+01 -2.49832E+03 -6.40550E+03 -4.01837E+03
  1.96000E+03  2.49361E+03  7.39007E+03 -1.97012E+03 -3.84648E+02 -5.29243E+02  7.27258E+01  1.53015E+03
 -2.64628E+03 -7.89383E+02  1.56679E+01  1.51966E+03  4.80235E+02 -2.26492E+03 -4.45811E+01  1.24824E+03
 -2.64824E+03 -8.85330E+02  1.36889E+03 -1.74857E+02 -2.70847E+03 -8.01964E+02  4.93451E+03  8.30221E+03
 -9.03950E+02  1.66084E+03 -3.00999E+03  2.71747E+03 -4.54865E+02  1.36951E+03  1.88709E+03 -2.07707E+03
 -2.88897E+03  1.27815E+03 -5.06518E+03  2.46146E+03  2.53383E+03 -1.81503E+03 -1.71035E+02 -7.04806E+02
 -1.64291E+03  2.40330E+02  7.09142E+02 -4.75258E+03 -1.54284E+03  2.07162E+03  3.47076E+03  6.59309E+01
  2.17043E+03 -7.43455E+02 -1.75583E+03  1.74491E+02  1.24702E+03 -3.55090E+03 -2.52438E+03 -1.85574E+03
 -2.87589E+03  1.72242E+03  5.39111E+02 -4.87822E+02 -3.81763E+03 -3.60573E+03 -7.06624E+02 -2.07452E+03
 -2.45610E+03  4.74225E+03 -8.45832E+02 -3.65082E+03 -1.65436E+02 -8.11599E+02  3.87882E+03 -1.70495E+03
  2.25723E+03 -1.86956E+02 -2.37978E+03  1.51318E+03 -8.88295E+02 -7.25653E+02  2.97225E+03 -5.44890E+02
 -1.33406E+03  3.01641E+03 -3.61503E+03  1.48589E+01 -1.67226E+03  7.37102E+02 -3.02029E+03 -2.79345E+03
 -1.71855E+03  7.69086E+02 -1.41376E+03 -1.11677E+03  6.88895E+02 -2.80291E+03 -4.98958E+02 -2.37719E+03
  6.20036E+02 -1.86295E+03 -1.53338E+02  1.02449E+03  8.48371E+00  7.12612E+03  1.98086E+03  2.15181E+03
 -9.78460E+01  7.04698E+02  9.53482E+01  4.71404E+02 -1.38700E+03  3.53815E+03  2.77232E+02  2.63745E+03
 -6.15136E+02  9.55864E+02 -4.00787E+03 -6.81746E+02 -7.42956E+00 -1.70442E+03  3.76930E+02  1.57171E+03
  2.30835E+03  2.52598E+01  1.68045E+03 -4.67602E+03  3.75373E+03  2.90715E+03  2.08291E+03 -5.20898E+02
 -3.49589E+02  1.69911E+03  4.42509E+03 -9.11395E+02 -2.56483E+03  1.56939E+03 -1.16191E+03  2.35907E+03
  3.39678E+03  2.23927E+03 -4.08274E+02 -6.85060E+01 -2.04859E+03  1.13441E+03  2.88890E+03  4.34665E+03
 -3.00662E+02 -3.12677E+02 -1.21898E+03 -1.98867E+02 -1.77847E+03 -7.40503E+02  1.02762E+02  4.29498E+02
 -8.26466E+02 -7.01728E+02  2.17737E+03 -1.21294E+03  3.24988E+03  2.16650E+03  2.21062E+03  3.87978E+03
