 $NMID ID='MM_0lb_SNR50_19hz_g60_19.RAW', FMTDAT='(8E13.5)'
 TRAMP=1., VOLUME=1. $END
  3.13640E+05  1.06454E+03  3.34189E+05  2.52661E+05  8.57188E+04  3.43505E+05 -1.37729E+05  2.48264E+05
 -1.90412E+05  8.00248E+04 -1.09330E+05 -3.42597E+04  3.39110E+03 -5.13611E+04  5.39908E+04 -2.58509E+02
  3.33914E+04  5.35683E+04 -1.81213E+04  7.17700E+04 -5.74760E+04  6.20019E+04 -8.33527E+04  3.40138E+04
 -8.03027E+04 -1.40966E+04 -5.94416E+04 -5.00089E+04 -1.51771E+04 -6.99244E+04  2.54811E+04 -4.57912E+04
  4.01843E+04  5.28728E+03  1.97081E+04  4.61756E+04 -3.13773E+04  4.48050E+04 -6.86360E+04 -1.52938E+03
 -5.04685E+04 -5.71660E+04 -5.89010E+03 -8.04706E+04  3.48588E+04 -5.19661E+04  4.91673E+04 -1.30984E+04
  3.96284E+04  1.34949E+04  3.23148E+04  2.69440E+04  1.23176E+04  3.09651E+04 -3.55255E+03  2.34624E+04
 -2.26913E+04  1.15803E+04 -1.61501E+04 -2.49704E+03  8.38005E+03 -6.68962E+03  2.00004E+04  1.11333E+04
  9.02701E+03  3.72471E+04 -3.37848E+04  3.50756E+04 -6.42525E+04  4.43149E+03 -5.59161E+04 -4.00071E+04
 -1.52304E+04 -6.44712E+04  3.91501E+04 -4.39260E+04  5.66946E+04  5.51939E+03  3.49187E+04  3.11428E+04
 -5.95978E+03  3.61161E+04 -2.44929E+04  1.53461E+04 -2.95810E+04 -8.53210E+03 -1.65059E+04 -9.48944E+03
 -5.97471E+03 -1.17039E+04 -3.09080E+03 -2.05607E+04  1.46107E+04 -2.39002E+04  1.36727E+04 -1.28530E+04
  1.46464E+04  1.05055E+03 -8.89035E+03  1.17517E+04 -1.81242E+04 -2.90588E+03 -8.71216E+03 -2.81730E+04
  2.13050E+04 -4.15503E+04  4.68551E+04 -1.97917E+04  4.20461E+04  1.60928E+04  1.63930E+04  4.09848E+04
 -1.87961E+04  2.92370E+04 -1.96048E+04 -3.31282E+02 -9.23457E+03 -2.76344E+04  2.57500E+04 -3.03243E+04
  3.57120E+04 -3.53051E+03  3.01646E+04  2.46607E+04  1.54534E+04  4.52779E+04 -8.23880E+03  5.04454E+04
 -2.39814E+04  3.00588E+04 -3.91488E+04  9.05539E+03 -4.21963E+04 -1.69580E+04 -2.35545E+04 -4.12172E+04
  7.95214E+03 -3.78592E+04  2.78879E+04 -1.03591E+04  2.85433E+04  1.15375E+04 -7.48398E+02  1.53239E+04
 -1.31639E+04  8.38761E+03 -1.21682E+04 -5.04685E+03  6.87672E+03 -1.02775E+04  1.48607E+04  5.72179E+03
  1.52728E+04  1.85724E+04 -3.04385E+03  2.00936E+04 -1.83052E+04  9.92203E+03 -2.62351E+04 -1.79883E+03
 -1.89191E+04 -1.29317E+04 -6.97440E+03 -1.61921E+04  2.10755E+03 -1.50943E+04  1.30077E+04 -1.38536E+04
  1.88313E+04 -1.08384E+04  3.12811E+04  5.58782E+03  2.06136E+04  1.75632E+04  2.90961E+02  3.36138E+04
 -1.50301E+04  2.70657E+04 -2.09720E+04  8.88664E+03 -2.42671E+04 -1.18158E+04 -8.83823E+03 -1.13024E+04
  4.62934E+03 -2.02149E+03 -5.29577E+03  6.49007E+03 -1.34821E+04  7.79079E+03 -1.48560E+04 -8.94833E+03
 -1.01294E+04 -1.41269E+04  4.96560E+03 -2.02259E+04  1.81427E+04 -1.75837E+04  1.50512E+04  5.89632E+01
  7.39961E+03  1.39914E+04 -1.69694E+03  1.81903E+04 -7.84256E+03  7.03812E+03 -1.48406E+04 -2.06483E+03
 -1.11913E+04 -1.60613E+04 -3.47398E+03 -2.07241E+04  1.12851E+04 -1.69205E+04  1.50708E+04 -1.10167E+04
  2.03499E+04 -9.63847E+02  1.32255E+04 -2.04654E+02  3.40393E+03  1.02086E+03  5.10234E+03 -2.83713E+03
  1.33138E+04 -8.97343E+02  1.54272E+04  1.28382E+04  8.18884E+03  2.53213E+04 -5.84582E+03  2.99546E+04
 -1.80207E+04  1.85264E+04 -2.63265E+04  9.62278E+03 -2.66423E+04 -3.48037E+03 -2.14847E+04 -1.22700E+04
 -9.47286E+03 -2.32657E+04  6.51975E+03 -2.06508E+04  1.64734E+04 -1.07581E+04  1.61535E+04  1.94892E+03
  6.35496E+03  9.01007E+03 -9.67634E+03  1.48708E+04 -1.39712E+04 -1.86745E+02 -1.27182E+04 -6.20691E+03
  9.26198E+02 -1.12201E+04  7.29617E+03 -5.51538E+03  1.04585E+04  1.54537E+03  1.78763E+03  9.39011E+03
 -6.71765E+03  7.99694E+02 -8.61011E+02 -5.50964E+03 -2.62618E+03 -9.79718E+03  6.25912E+03 -1.33462E+04
  1.21476E+04 -6.84417E+03  9.41723E+03 -6.34319E+02  1.32531E+04  7.91719E+03  3.47989E+03  1.53497E+04
  7.68035E+02  1.80656E+04 -1.01755E+04  8.89060E+03 -1.43934E+04  2.87685E+03 -1.04080E+04  9.37115E+02
 -3.98229E+03 -5.40167E+03  2.87673E+03  1.82969E+03 -2.18299E+03  3.70335E+03 -2.95708E+03  5.19485E+03
 -8.27183E+03  3.76885E+02 -8.72281E+03 -7.74855E+03 -3.79981E+03 -1.39758E+04  5.74889E+03 -7.92560E+03
  1.07118E+04 -4.24351E+02  3.30952E+03  1.33784E+02  2.51512E+03  3.78261E+03 -4.51076E+03  2.87524E+02
 -2.68244E+03 -4.41064E+03 -5.78601E+03 -1.26696E+04  6.01912E+03 -4.39969E+03  7.54631E+03 -4.89108E+03
  1.08646E+04  2.93530E+03  9.84025E+03  7.37902E+03  1.60583E+02  4.15454E+03 -8.75333E+03  7.68633E+03
 -6.89709E+03  4.72337E+03 -9.15991E+03 -9.90874E+02  4.58879E+03 -1.44491E+03  5.61321E+03  1.05689E+03
  6.30029E+03  4.04913E+03  2.04742E+03  6.11761E+03 -2.94894E+03  7.15430E+03 -7.96788E+03  4.02825E+03
 -7.81068E+03 -4.72415E+03  1.89758E+02 -6.20544E+03  4.52183E+03 -3.76329E+03  9.14879E+02  2.64996E+03
  3.62302E+03  3.28186E+03 -6.99601E+03  1.24859E+03 -2.54851E+03  3.96173E+02 -1.02715E+04 -1.34907E+02
 -5.32136E+03 -3.74778E+03  3.18339E+03 -3.95979E+03  4.23086E+03 -2.76684E+02  4.87311E+03  3.09348E+03
  1.71445E+03  1.01976E+04  3.31809E+03  9.24850E+03 -7.30561E+03  6.25597E+03 -5.54809E+03  4.34441E+03
 -9.45581E+02 -1.15564E+04  1.34849E+03 -4.78742E+03  6.25824E+03 -3.07994E+03  6.04117E+03 -4.02917E+03
  1.02049E+03 -5.50610E+03 -1.59381E+03 -1.28923E+03 -3.06989E+03  2.12971E+03  2.66612E+03 -6.28354E+03
  6.32786E+03 -1.47717E+03  5.64546E+03  5.32683E+01  7.71367E+03  1.40076E+03  2.73621E+03  5.64769E+03
  2.45453E+03  7.29865E+03 -1.02987E+04  5.70679E+03 -1.12078E+04  4.14593E+03 -8.81161E+03 -5.16558E+03
 -6.87042E+03 -9.72958E+03 -2.62553E+03 -3.19307E+03  7.60915E+02 -2.28831E+03  1.86930E+02 -4.37228E+03
  1.86516E+03 -3.15163E+03  7.32499E+02 -4.68684E+03  5.03649E+03 -5.55219E+02  6.82633E+02 -1.72225E+03
  2.10292E+03  1.44885E+02  9.15905E+02  1.06678E+03 -4.20804E+03  6.79101E+03 -6.50034E+02 -1.62345E+03
 -4.85951E+03 -3.08064E+03  4.00078E+02 -8.24938E+03 -1.93364E+03 -8.28630E+03  3.01645E+03 -3.90187E+03
  4.05406E+03  5.61013E+02  7.18429E+03  2.58346E+03  4.63504E+03  9.46104E+02  5.89512E+03  7.13660E+03
 -6.78241E+03  5.87628E+03 -3.10054E+03  6.79941E+03 -1.60760E+03 -3.27332E+03  2.95796E+03 -1.04713E+03
  9.24053E+02  1.61986E+03 -1.70712E+03  3.95530E+03 -4.31039E+03  2.02751E+03 -6.57932E+03 -1.34856E+03
  9.66219E+02 -5.82073E+03  4.42764E+03 -3.28925E+03  6.32373E+03 -3.17025E+03  7.34419E+03 -2.33489E+03
  3.58127E+03  1.70847E+03  1.53476E+03  3.68994E+03 -4.27277E+03  2.50225E+03 -4.43482E+03 -6.26669E+02
 -7.90875E+03 -2.33806E+03 -1.55607E+03 -9.74844E+02 -1.72331E+03 -2.69132E+03  2.13866E+03 -1.93643E+03
  6.51292E+03 -2.38717E+03  5.05651E+03  1.90702E+03 -3.07412E+03  4.49680E+03  3.01133E+03  1.34397E+03
  2.14557E+03 -4.38435E+02 -2.51623E+03 -3.06405E+02 -9.82888E+02 -1.50022E+03  4.13772E+03  5.67403E+03
 -6.50767E+02  1.02435E+02 -6.72922E+03  6.14949E+02 -1.26023E+03  4.36978E+03 -3.38529E+03  6.63333E+02
  1.67426E+02 -3.85960E+03  1.88669E+03 -3.15550E+03  1.21939E+03 -5.94584E+03  7.04334E+03 -4.39042E+02
  2.65186E+03  6.72923E+02 -7.60774E+02  4.84608E+03 -4.33964E+03  4.45646E+03  2.29587E+03  1.54570E+03
 -1.30749E+03 -1.32079E+03  1.09489E+03  6.34986E+02  3.33929E+03 -2.87805E+03  3.34451E+03  3.32540E+03
 -1.14912E+03 -2.37815E+03  7.01677E+02 -5.97563E+02 -2.85693E+03 -4.73863E+03 -1.84660E+03  5.39686E+01
 -2.65482E+03 -9.75282E+02  3.91345E+03  4.73444E+03  1.17032E+03  4.25594E+03  8.21098E+02 -1.95809E+03
 -8.75555E+02  2.62051E+03 -5.18734E+03  1.43390E+03 -3.99713E+03 -2.25807E+03 -1.21664E+03 -7.53069E+03
 -2.01051E+03  3.21843E+03 -5.07436E+02  1.49322E+03  2.08379E+03  1.69995E+03 -5.32078E+02 -9.47124E+01
 -7.72509E+03 -1.49869E+01  2.94174E+03 -6.71989E+03  2.63492E+03  2.05081E+03  5.40394E+01 -1.10395E+03
  2.35755E+03 -3.48578E+03 -9.87317E+02  1.97619E+03  1.07907E+03 -6.13580E+03  1.99456E+03  3.56965E+03
  9.56748E+02 -3.04596E+03  1.10995E+03 -5.08777E+02 -8.75809E+02  1.44898E+03  2.37714E+03 -2.11572E+03
  1.62405E+03  2.66799E+03  3.83987E+03 -1.79917E+03 -1.97842E+02  3.17723E+03  7.86052E+03 -2.42092E+02
 -3.22637E+03 -2.07878E+03  3.12369E+02 -7.49886E+01 -1.58101E+03  3.35293E+03 -1.66221E+03  1.89789E+03
  1.01846E+03  1.85037E+03  6.51416E+02  7.92355E+02  2.27906E+03  4.43043E+03  2.66824E+02 -9.37458E+02
 -4.13855E+03  4.28016E+03 -5.08006E+03 -5.57429E+02 -2.05971E+03  4.39060E+03 -3.12146E+02  1.64800E+03
  3.43987E+03  4.52968E+03 -6.03936E+02  1.52755E+03  1.84120E+03 -2.66369E+03  1.52926E+03 -2.82853E+03
 -2.67212E+03 -7.10668E+03  3.77849E+03  3.36688E+03  2.81631E+03 -3.08955E+03  6.26035E+03 -1.47328E+03
 -4.04169E+02 -1.09385E+03 -1.54760E+03  4.67126E+03  4.59803E+02  2.43610E+03  1.28913E+03  6.04360E+03
  1.43783E+03  2.51074E+03 -1.04844E+03 -6.00872E+02  1.24871E+03  2.67830E+03 -4.86588E+02 -5.11223E+01
 -3.26286E+03 -2.58839E+02 -2.17452E+03  1.61793E+03  1.24398E+03  2.07516E+03 -2.37462E+02 -1.29844E+03
 -1.04659E+03 -3.97316E+03  3.94888E+03  2.33149E+03  1.42995E+02 -1.81123E+02  2.73494E+03  9.82691E+02
 -3.90217E+03  1.71014E+03 -2.43678E+03 -1.54295E+03 -2.12186E+03  4.31160E+03 -4.24249E+02 -1.14725E+03
 -2.95530E+03  2.32097E+03  4.06851E+03 -2.59586E+03 -4.11019E+03 -1.92039E+03 -1.89682E+02 -3.18619E+03
 -1.97792E+03  5.75237E+03  7.27493E+02  3.23614E+03  4.06070E+03 -3.37314E+03  3.01141E+03 -2.25388E+03
  1.00459E+03  3.79032E+03  1.72715E+03  1.77622E+03  2.38607E+03  6.44518E+02 -5.68432E+02 -4.81244E+02
  1.73482E+03  7.61227E+02  2.45495E+03  5.30767E+03 -3.35670E+03 -8.51389E+02  1.89284E+03 -3.10221E+03
 -1.14258E+03  3.13562E+03  2.31823E+03 -5.87151E+03 -2.51294E+02  1.83766E+03  2.12447E+03 -2.95142E+02
  1.10628E+03  3.83950E+03 -1.27486E+03 -1.55236E+03 -4.05804E+02  8.26781E+02 -2.50658E+03  1.36030E+03
  1.18435E+03  4.99885E+02  2.36602E+03 -4.70509E+02  1.74284E+03  4.13583E+03 -3.94827E+03  3.97940E+02
 -1.29568E+03  3.66452E+02 -3.34384E+03  1.03645E+02  2.85793E+03 -1.15931E+03  1.17230E+03  6.86202E+02
 -2.68302E+03 -1.88307E+03  1.39543E+02 -2.11952E+03  5.40905E+02 -3.96495E+02 -1.55309E+03 -2.75378E+03
