 $NMID ID='MM_0lb_SNR50_18hz_g45_36.RAW', FMTDAT='(8E13.5)'
 TRAMP=1., VOLUME=1. $END
  3.06271E+05 -2.98413E+03  3.36873E+05  2.46715E+05  8.68192E+04  3.34420E+05 -1.35621E+05  2.48135E+05
 -1.92009E+05  7.78235E+04 -1.12703E+05 -3.30042E+04  3.69581E+03 -4.49873E+04  5.31385E+04  6.64724E+02
  3.32076E+04  5.85792E+04 -1.97324E+04  7.44239E+04 -6.09335E+04  6.23624E+04 -8.77048E+04  3.24171E+04
 -8.04541E+04 -1.24566E+04 -5.98231E+04 -5.21021E+04 -1.67325E+04 -6.69283E+04  2.64875E+04 -4.09805E+04
  3.96793E+04  2.23277E+03  1.52270E+04  5.19794E+04 -3.57736E+04  4.64879E+04 -7.25142E+04 -2.38940E+03
 -4.81871E+04 -5.95861E+04 -6.92679E+03 -7.67504E+04  3.52058E+04 -5.04918E+04  4.57739E+04 -1.84035E+04
  3.83101E+04  9.20779E+03  2.80621E+04  2.32968E+04  1.70883E+04  2.83945E+04 -5.29107E+03  2.50359E+04
 -2.04079E+04  1.31049E+04 -2.06136E+04 -4.04730E+03  6.71553E+03 -8.17152E+03  2.06354E+04  9.05643E+03
  1.12613E+04  2.93601E+04 -3.26823E+04  3.81495E+04 -6.33026E+04  4.97555E+03 -5.57630E+04 -4.25703E+04
 -1.38992E+04 -5.93708E+04  3.60957E+04 -4.82584E+04  5.87312E+04  1.36041E+03  3.09501E+04  3.04658E+04
 -6.42473E+03  2.90328E+04 -2.55660E+04  1.33146E+04 -2.71638E+04 -3.27164E+03 -1.27468E+04 -1.18059E+04
 -8.93284E+03 -1.55803E+04  7.58110E+01 -1.29033E+04  3.92942E+03 -2.02441E+04  1.11186E+04 -1.55512E+04
  7.44421E+03  5.80372E+03 -6.29028E+03  1.14217E+04 -1.93306E+04 -2.57965E+03 -1.23481E+04 -3.16030E+04
  2.10578E+04 -4.57060E+04  4.49796E+04 -1.75686E+04  4.07541E+04  1.36738E+04  1.77568E+04  4.43028E+04
 -1.66987E+04  3.11937E+04 -2.05817E+04 -1.28894E+03 -9.24134E+03 -2.65552E+04  2.34257E+04 -3.11408E+04
  3.48927E+04 -7.56843E+03  3.25254E+04  2.22743E+04  1.40237E+04  4.19504E+04 -5.14130E+03  4.41486E+04
 -2.70423E+04  2.93540E+04 -3.94393E+04  8.98615E+03 -3.52907E+04 -1.26210E+04 -2.01605E+04 -3.50002E+04
  5.92671E+03 -3.10469E+04  2.90245E+04 -1.63751E+04  2.53641E+04  9.82274E+03  3.48891E+03  1.95011E+04
 -1.48753E+04  8.07392E+03 -8.88099E+03 -7.97363E+03  9.63974E+03 -1.08199E+04  2.02366E+04  6.42887E+03
  1.25210E+04  2.16020E+04 -4.98905E+03  2.33547E+04 -1.91548E+04  1.13419E+04 -2.26466E+04 -6.31596E+03
 -1.45809E+04 -1.51302E+04 -3.46914E+03 -2.25202E+04  1.88147E+03 -1.37267E+04  1.34455E+04 -1.54589E+04
  2.48356E+04 -1.14628E+04  3.08362E+04  7.19947E+02  2.54949E+04  1.60296E+04  3.95434E+03  3.43454E+04
 -1.65110E+04  2.68200E+04 -2.79559E+04  1.10335E+04 -1.93285E+04 -1.48141E+04 -5.82095E+03 -1.71150E+04
  4.48137E+03 -6.42148E+03 -2.16894E+03  4.61668E+03 -1.26420E+04  2.17529E+03 -1.22126E+04 -4.15839E+03
 -8.43358E+03 -1.19088E+04  2.35215E+03 -2.27099E+04  1.33384E+04 -1.52468E+04  1.36098E+04 -2.75288E+03
  7.78976E+03  8.58238E+03  4.83060E+03  1.42415E+04 -1.08895E+04  1.01449E+04 -1.47643E+04 -4.18268E+03
 -1.45409E+04 -1.45652E+04 -6.94359E+03 -1.91562E+04  9.49886E+03 -1.30629E+04  1.99401E+04 -8.41540E+03
  1.19791E+04 -1.85220E+03  9.79639E+03  2.90982E+03  7.86796E+03 -3.71671E+03  4.85679E+03 -5.42847E+03
  2.13892E+04  1.25708E+03  1.30433E+04  1.37056E+04  1.15438E+04  2.27456E+04 -4.71566E+03  2.47712E+04
 -1.33771E+04  2.19094E+04 -2.49626E+04  6.55277E+03 -2.40544E+04 -1.12145E+02 -1.66679E+04 -1.42653E+04
 -9.81174E+03 -2.20896E+04  8.60877E+03 -1.45525E+04  1.48448E+04 -1.47681E+04  1.64001E+04  9.55008E+03
  6.79569E+03  1.07046E+04 -8.07875E+03  1.00143E+04 -1.54381E+04  3.35319E+01 -1.27185E+04 -5.61692E+03
  7.71458E+02 -1.31800E+04  8.16204E+03 -1.20167E+04  9.83211E+03 -2.02436E+03  5.13909E+03  5.36744E+03
 -5.27231E+03  2.04372E+03 -5.03641E+03 -3.15891E+03  5.39577E+02 -9.40859E+03  5.07576E+03 -1.09378E+04
  1.13087E+04 -8.09010E+03  9.70173E+03  5.43110E+03  9.02649E+03  1.03815E+04  3.47620E+03  1.39459E+04
 -1.82349E+03  1.56402E+04 -1.02462E+04  1.19317E+04 -1.15521E+04  1.04559E+03 -2.62632E+03  1.78745E+03
 -4.40835E+03 -5.70639E+03 -1.58131E+03  5.64868E+03  1.91514E+03  1.35176E+03 -2.90094E+03  3.46876E+03
 -6.20924E+03  1.91599E+03 -1.05566E+04 -8.87587E+03 -1.40285E+03 -1.15637E+04  1.46856E+02 -6.94927E+03
  5.95363E+03 -4.81214E+03  4.64360E+03  3.02385E+03  3.04116E+03  4.07745E+03 -3.73797E+03  4.42777E+01
 -4.51462E+03 -6.64481E+03  2.61153E+02 -1.26885E+04  5.53649E+03 -6.14299E+03  5.91588E+03 -4.20290E+03
  1.07105E+04 -1.46043E+03  1.13582E+04  5.07021E+03  4.46744E+03  7.29613E+03 -5.52594E+03  1.06815E+04
 -1.02575E+04 -3.34664E+00 -4.41429E+03 -5.85644E+02  4.56410E+03 -1.22424E+03  5.03753E+03 -4.08608E+03
  5.29162E+03  4.95270E+03  7.58205E+01  7.63282E+03 -3.66843E+03  5.51485E+03 -1.06832E+04 -5.60840E+02
 -5.28110E+03 -3.15408E+03 -3.28399E+03 -9.14409E+03  1.34035E+03 -1.64193E+03  6.08529E+03 -4.69306E+02
  1.85035E+03  3.78865E+03 -6.75464E+03  3.26618E+03 -3.16379E+03  3.35022E+03 -7.66791E+03  7.16871E+02
 -6.71281E+03 -7.30598E+03  2.37062E+03 -7.43196E+03  5.04016E+03 -1.91794E+03  7.62217E+03 -3.39462E+03
  6.70177E+03  7.61647E+03  9.18248E+02  6.91215E+03 -6.65361E+03  4.64533E+03 -1.03850E+04 -1.19021E+03
 -6.06940E+03 -8.12669E+02 -1.10972E+03 -9.03263E+03  2.92341E+03 -1.20956E+03  3.31302E+03 -3.14401E+03
  3.66354E+03 -5.05354E+03  5.26552E+02  1.57281E+03  8.71039E+02  2.01830E+03  9.18943E+02  4.05345E+02
  5.79654E+03 -2.28646E+03  7.70023E+03 -3.43226E+02  5.53875E+03  4.81879E+03  5.42905E+03  7.04412E+03
  9.85958E+02  8.10489E+03 -8.15073E+03  8.44540E+03 -6.36860E+03  3.21945E+03 -1.25195E+04 -3.55852E+03
 -3.45698E+03 -4.11448E+03  4.69184E+02 -2.87770E+03  3.30448E+03 -2.34128E+03  3.13623E+03 -1.15241E+03
  1.64646E+03  2.02008E+03  5.67957E+03 -4.17757E+03  3.55972E+03 -2.24878E+03  2.83795E+03  1.47470E+03
  9.72768E+03  2.71151E+03 -6.31479E+02  3.86644E+03 -1.43644E+03  6.11911E+02 -3.73836E+03  2.30979E+03
 -4.88789E+03  3.64486E+02 -2.95010E+03 -3.45646E+03 -5.02723E+02 -3.85498E+03  6.76624E+03 -6.54088E+03
  6.99902E+03 -3.76186E+03  5.91107E+03 -1.96795E+03  5.05691E+03  7.68993E+03  4.20160E+03  7.49904E+03
 -8.25336E+01  6.68989E+03 -2.39426E+03  5.31179E+03 -1.20396E+03 -3.26658E+03 -7.48750E+01  3.72255E+03
 -1.56887E+03 -6.11149E+02  2.04306E+03  4.99961E+03 -5.45113E+03  1.31881E+03 -5.55974E+03 -2.01289E+03
 -1.10868E+03 -3.42865E+03  5.17123E+02 -9.69745E+03  2.64324E+03 -3.79565E+03  5.51855E+03 -2.45081E+03
  2.52914E+03  5.03429E+03  3.53920E+03  2.94146E+03 -2.24784E+03  1.66556E+03 -3.27926E+03 -5.70801E+02
 -2.12875E+03  1.66718E+03 -6.09752E+02 -6.23784E+03  2.67496E+03 -5.75629E+03  2.85268E+03 -4.65708E+03
  6.89759E+03  1.50921E+02  4.60531E+03 -3.17172E+02 -3.23286E+03  2.27731E+03  3.19985E+03  1.75902E+03
  5.68068E+03  3.41386E+02  5.04540E+03  6.26571E+02  1.37107E+03  1.86950E+03 -1.12977E+03  3.06930E+03
  2.90910E+03  3.95062E+03 -1.09286E+03  4.42490E+03 -3.66954E+03  1.06286E+03 -1.97935E+03 -2.90461E+03
 -2.65431E+03 -6.84313E+03  2.60270E+02 -7.92001E+03 -2.15636E+03 -6.88505E+02  4.66258E+03  8.71804E+02
 -5.09346E+02  2.14114E+03  1.19069E+03  1.84870E+03  1.01071E+01  1.69960E+03  1.09078E+02 -5.62600E+02
 -1.64559E+03 -4.40806E+03  1.84588E+03 -5.27680E+03 -3.01212E+02 -3.26544E+03 -7.66212E+02 -2.49013E+03
  4.00379E+03  6.36701E+02  1.35723E+03  1.40774E+03  2.89914E+02  3.60167E+01 -1.52998E+03  1.58675E+03
  4.16266E+03 -1.68921E+03  3.78345E+03  1.14964E+03 -1.26756E+03  2.10118E+03  3.48013E+03  5.05619E+03
  6.55867E+02 -2.55154E+03 -1.65258E+03 -3.48663E+03 -3.84026E+03 -2.36132E+03  4.02087E+03 -9.15152E+02
  1.35713E+02 -2.13763E+03 -2.73715E+03 -3.40539E+02 -1.09113E+03 -2.10114E+03 -8.08086E+02  2.97727E+03
 -1.18002E+03  2.88771E+03  2.24694E+03 -7.41800E+02  3.29819E+03 -6.37766E+03  1.20417E+03 -1.65808E+03
  4.97165E+03 -3.12162E+03  2.28926E+03  1.60007E+03  4.43763E+03 -3.31858E+02 -8.50535E+02  8.02550E+02
  8.75514E+02  3.50128E+02 -1.01042E+03 -4.42867E+03  1.97709E+03 -1.55200E+03  1.34112E+03  3.30031E+03
 -1.06935E+03 -1.67623E+03  2.39537E+03  1.87521E+03  4.96849E+03  4.26669E+03  9.37037E+02  1.06736E+03
  6.01586E+02 -1.30679E+02 -1.14998E+03 -3.78575E+02 -2.06602E+02 -2.48912E+03  1.92568E+03  5.76940E+02
 -2.15357E+02 -1.66418E+03  2.86401E+03  1.72262E+03  1.23595E+02 -2.83658E+03 -3.84553E+03 -2.28328E+03
 -4.74332E+03 -4.53643E+03 -1.22185E+03  1.17829E+03 -3.94832E+03  1.60698E+03 -1.56175E+02 -3.40595E+03
  4.01238E+03  1.53981E+03 -9.24475E+02 -3.85940E+01 -2.48979E+03 -3.87231E+03 -3.46776E+03 -2.35386E+02
 -3.16993E+02 -3.65105E+03 -1.58301E+03 -6.51140E+02  2.93877E+03 -5.87028E+03  4.98594E+03 -2.03816E+03
  6.76955E+03 -6.85351E+01  4.15882E+03 -8.67072E+02 -4.08177E+02  2.77797E+03 -1.90933E+03  2.60840E+03
  2.00553E+03 -4.54693E+02  1.24619E+03 -8.67431E+02 -3.29112E+03  1.14480E+03 -3.53060E+02  9.37888E+02
  8.87798E+02 -9.73937E+02  3.07957E+02  2.55589E+03 -3.58602E+03  1.49216E+03  1.79877E+03 -7.04254E+00
  2.44745E+03 -3.50054E+03 -5.73635E+03 -1.17215E+03  1.30955E+02 -1.30541E+03  4.41235E+03  6.04389E+03
  1.27403E+02  3.30809E+03 -3.09198E+03 -2.15193E+03  3.96890E+01 -4.39717E+02 -3.26347E+02 -2.62140E+03
 -1.46000E+03 -1.62957E+02 -4.79322E+01 -4.19238E+03  4.60052E+03  2.52145E+03 -1.34957E+03  4.80192E+03
 -2.31571E+03 -5.02253E+03  4.46420E+03  1.93166E+03 -2.88811E+03 -3.06425E+03 -1.28301E+03 -1.58838E+03
 -8.96690E+02  8.58731E+02 -3.32836E+02 -1.88188E+03 -5.34212E+02 -3.22838E+03  1.04730E+03 -1.19377E+03
  2.92805E+03 -1.26137E+03  8.65822E+02 -4.58742E+03 -4.04702E+03  8.09585E+02  1.08409E+03 -1.27045E+03
 -1.69891E+02 -5.41700E+03  1.30667E+03 -1.77755E+03  1.26060E+03  4.09782E+02  1.82115E+03  1.35742E+03
  3.08444E+03  3.20163E+03 -3.88972E+02 -2.12532E+03  4.93694E+02  4.11381E+03 -4.78919E+03  4.05720E+02
  9.13894E+01  2.61847E+03 -1.85880E+03 -2.05038E+03  3.40364E+03 -3.06747E+02 -2.85983E+03  2.09435E+03
  4.17975E+03  1.73139E+03  1.19260E+03 -1.59436E+03 -6.91667E+01  2.14508E+01  4.25632E+02  9.61774E+02
 -1.29228E+03  1.60917E+03 -1.04026E+03 -2.47366E+03  2.36097E+03  2.44020E+03 -5.54062E+02  1.42506E+03
