 $NMID ID='MM_0lb_SNR50_17hz_g60_23.RAW', FMTDAT='(8E13.5)'
 TRAMP=1., VOLUME=1. $END
  3.13731E+05  1.58413E+03  3.37321E+05  2.50440E+05  8.57966E+04  3.31104E+05 -1.33821E+05  2.51388E+05
 -1.92010E+05  8.53714E+04 -1.11540E+05 -2.96148E+04 -2.27847E+03 -5.20603E+04  5.27425E+04 -3.73062E+03
  3.49257E+04  5.57280E+04 -1.87015E+04  7.42176E+04 -6.08733E+04  6.42772E+04 -8.08648E+04  2.99823E+04
 -8.07312E+04 -7.36549E+03 -5.92192E+04 -4.70332E+04 -1.12860E+04 -6.87154E+04  2.51405E+04 -4.20240E+04
  4.16846E+04  3.85715E+03  1.35814E+04  4.63743E+04 -3.95952E+04  4.63073E+04 -6.68658E+04 -9.93569E+02
 -5.35845E+04 -5.16071E+04 -7.20213E+03 -8.05945E+04  3.61939E+04 -5.00388E+04  5.56965E+04 -1.86106E+04
  4.49078E+04  1.30758E+04  3.37211E+04  2.10359E+04  1.37876E+04  2.72508E+04 -4.89500E+03  2.66496E+04
 -2.62249E+04  1.54703E+04 -2.13152E+04 -7.59422E+03  7.09163E+03 -7.82314E+03  2.42460E+04  1.07943E+04
  1.27556E+04  3.56937E+04 -3.13789E+04  3.82139E+04 -6.44247E+04 -3.48976E+02 -5.48239E+04 -4.26016E+04
 -1.08364E+04 -6.20126E+04  4.09301E+04 -4.34077E+04  6.12469E+04 -5.52072E+02  3.13802E+04  2.52470E+04
 -7.71483E+03  3.54122E+04 -2.77518E+04  2.16144E+04 -2.93295E+04 -3.31816E+03 -1.95824E+04 -1.04639E+04
 -5.16053E+03 -1.21524E+04 -2.98040E+03 -1.90716E+04  7.92513E+03 -1.98573E+04  1.53328E+04 -1.13615E+04
  7.11618E+03  1.27671E+03 -5.39254E+03  1.17340E+04 -2.18376E+04 -7.24677E+03 -8.77646E+03 -3.37203E+04
  1.90182E+04 -4.18399E+04  4.38844E+04 -1.79745E+04  4.29177E+04  1.98754E+04  1.36365E+04  4.15488E+04
 -1.66135E+04  3.25278E+04 -2.39091E+04  5.75095E+03 -1.35111E+04 -2.93445E+04  2.02846E+04 -2.85635E+04
  3.89069E+04 -8.72303E+03  3.29648E+04  2.28097E+04  2.01610E+04  4.39247E+04 -6.02148E+03  4.81644E+04
 -2.97765E+04  3.49856E+04 -3.53004E+04  1.14918E+04 -3.85307E+04 -1.06192E+04 -2.17304E+04 -3.72672E+04
  4.97316E+03 -3.72531E+04  2.87795E+04 -1.28927E+04  2.79370E+04  1.18437E+04  7.71953E+03  1.20758E+04
 -1.53984E+04  6.57599E+03 -7.12281E+03 -1.26159E+04  8.65873E+03 -1.06463E+04  1.58971E+04  4.29820E+03
  1.79147E+04  1.65900E+04 -3.99607E+03  2.22117E+04 -2.72385E+04  9.14469E+03 -3.04562E+04 -4.81070E+03
 -2.02180E+04 -1.43308E+04 -1.06984E+04 -2.27262E+04  7.27124E+03 -1.98494E+04  1.48044E+04 -1.95796E+04
  2.32767E+04 -1.50318E+04  2.56156E+04  3.13103E+03  2.49023E+04  2.01514E+04  4.37645E+03  3.08315E+04
 -1.59232E+04  2.91088E+04 -3.15681E+04  1.16144E+04 -2.39095E+04 -4.99759E+03 -3.50117E+03 -1.24389E+04
 -2.61010E+02 -6.44930E+03 -2.59983E+03  8.21557E+03 -1.82319E+04  8.47569E+03 -1.52967E+04 -9.47763E+03
 -1.16388E+04 -1.85804E+04  2.67145E+03 -2.19922E+04  1.61608E+04 -1.84783E+04  2.11037E+04  2.53612E+03
  1.11448E+04  1.45579E+04 -3.13474E+03  1.90033E+04 -1.10513E+04  7.72789E+03 -1.82364E+04 -4.30843E+02
 -1.30226E+04 -1.44589E+04  2.02208E+03 -1.71860E+04  1.18396E+04 -1.41892E+04  1.70570E+04 -1.00579E+04
  1.65673E+04 -1.32062E+03  1.13254E+04  7.90123E+03  2.37442E+03 -7.12946E+02  8.57012E+03  2.90387E+03
  1.52807E+04  6.02596E+03  1.66058E+04  1.75293E+04  1.04507E+04  2.93327E+04  3.44703E+02  2.75337E+04
 -2.05293E+04  2.69268E+04 -2.94641E+04  1.48447E+04 -3.28365E+04  6.79661E+03 -2.73165E+04 -1.61296E+04
 -1.04371E+04 -2.95772E+04  1.00553E+04 -2.33501E+04  2.25945E+04 -1.18587E+04  1.44572E+04  3.13725E+03
  7.56545E+03  1.30752E+04 -9.39360E+03  1.26570E+04 -1.71569E+04  3.41834E+03 -1.17100E+04 -5.61899E+03
  7.50416E+02 -6.09494E+03  8.87527E+03 -1.35219E+04  1.09318E+04 -1.20387E+03  2.82602E+03  4.24139E+03
 -2.95562E+03  4.00657E+03  5.01946E+02 -2.73483E+03  3.36071E+03 -1.37106E+04  9.18743E+03 -1.61023E+04
  1.36028E+04 -7.36208E+03  1.68569E+04  4.69560E+03  1.22384E+04  1.21278E+04  7.85483E+03  1.59391E+04
 -1.73139E+03  1.85773E+04 -9.54365E+03  1.67096E+04 -1.38090E+04 -3.77424E+02 -1.25471E+04  7.96091E+02
 -8.62206E+03 -7.47015E+02 -1.43452E+03  6.45035E+03  3.84042E+03  2.71784E+03 -8.02485E+03 -1.05351E+03
 -9.12697E+03 -3.52348E+03 -6.96887E+03 -5.50814E+03 -1.22823E+03 -1.24747E+04  6.97444E+03 -1.09394E+04
  9.22527E+03 -9.38935E+03  3.94855E+03  6.58089E+03 -8.87667E+02  3.09606E+03 -2.11373E+03 -1.97882E+03
 -9.47732E+02 -2.57841E+03  4.79199E+03 -7.73558E+03  4.10581E+03 -1.03086E+04  1.33962E+04 -4.52804E+03
  1.41114E+04 -2.08171E+03  1.27852E+04  5.09791E+03  6.78697E+03  1.14054E+04 -4.46045E+03  1.01755E+04
 -4.81333E+03  5.75309E+02 -4.14084E+03 -4.35261E+03 -1.08594E+03 -2.28727E+03 -2.71363E+02  1.97179E+02
  5.63818E+03  2.47053E+03  1.26396E+03  7.81835E+03 -6.48771E+03  5.46543E+03 -9.20196E+03  1.26639E+03
 -2.45094E+03 -5.80185E+03  2.08399E+03 -1.24618E+04  3.85059E+03 -3.23370E+03  2.36740E+02  3.19443E+03
  1.38933E+03  5.58556E+03 -3.02842E+03  8.30429E+03 -5.64305E+03  6.59883E+03 -5.98495E+03 -2.03966E+03
 -3.90089E+03 -1.22759E+04 -2.29155E+03 -1.01175E+04  9.16708E+03 -7.96459E+03  8.27499E+03 -2.11269E+03
 -1.59062E+03  8.19070E+03 -7.50180E+02  1.00554E+04 -4.65825E+03  7.33293E+03 -6.33449E+03 -1.95266E+03
 -6.55765E+03 -5.81342E+03  3.43611E+03 -5.62427E+03  2.12207E+03 -4.18475E+03  6.85798E+03 -2.72947E+03
  3.51587E+03  1.56643E+03  5.05629E+02 -2.04705E+01  2.69062E+03 -2.04156E+03 -2.80006E+03 -4.94096E+03
  2.61158E+03 -6.43912E+02  7.99270E+03  1.19818E+02  4.84973E+03  3.51898E+03  8.84025E+03  9.61583E+03
  1.64155E+03  7.48670E+03 -7.87583E+03  7.76522E+03 -1.67196E+04  2.43599E+03 -1.31580E+04 -7.00214E+03
 -5.36883E+03 -1.00792E+04 -1.84748E+03 -6.91873E+03  4.86596E+03 -5.71143E+03  4.86739E+02 -1.12104E+03
  3.12930E+03 -1.00660E+03  5.09422E+02 -6.94049E+03  3.74180E+03 -5.75363E+02  6.38405E+03 -2.45848E+03
  9.41397E+03  2.36711E+03  6.44036E+02  5.64632E+03  2.38186E+03  6.72507E+02 -8.64371E+03  4.36012E+03
 -7.00704E+03  1.46856E+03 -2.29178E+03 -5.35260E+03 -2.49089E+03 -9.25314E+03  7.18525E+03 -4.32709E+03
  7.67131E+03 -5.31400E+03  5.05157E+03 -7.04409E+02  2.39742E+03  7.51294E+03  1.97561E+03  1.12652E+04
 -1.95971E+03  2.04723E+03 -8.06393E+03  9.17381E+02 -4.52760E+02  1.05618E+03 -2.17765E+03 -5.69731E+02
 -4.51249E+03  5.55025E+03  1.88081E+03  5.08154E+03 -2.35774E+03  2.48445E+03 -6.47805E+03  1.56659E+03
 -3.49420E+03 -6.02252E+03  1.75418E+03 -7.04430E+03  6.21446E+03 -6.28346E+03  4.07150E+03 -8.52382E+02
  6.04195E+03  4.40437E+03  2.27877E+03  8.66712E+03 -2.42003E+03  6.99532E+03 -6.85289E+03  3.70096E+03
 -6.57838E+03  1.72153E+03 -1.81124E+03 -2.89244E+03 -3.05356E+03 -6.25726E+03  5.35790E+03 -4.70161E+03
  3.27814E+03 -5.47492E+03  5.62317E+03 -2.70518E+03  1.81219E+03  2.78699E+03 -4.02189E+03  2.76173E+03
  1.41407E+02  1.88147E+03  1.88442E+03  3.09878E+03 -4.79102E+02  1.26409E+02  4.64585E+03  1.98291E+03
 -1.93140E+03  3.81405E+03  1.69801E+03  1.33405E+02 -4.82280E+03 -8.52776E+02 -7.33198E+03 -4.19225E+03
 -3.22837E+03 -3.91044E+03 -2.88751E+02 -8.95390E+03  2.66723E+03 -4.11389E+03  5.94491E+03 -2.82738E+03
  2.92699E+02 -2.77730E+03  4.69984E+03  5.18560E+03 -4.89393E+01 -1.31225E+03  1.26374E+03 -2.07286E+03
  1.27800E+03 -1.59412E+03 -2.11679E+03 -1.21262E+03  2.15571E+03 -1.35810E+03 -4.18006E+03 -2.29085E+03
  1.46918E+02  3.68756E+03  4.87699E+03  1.33271E+02  1.74244E+02 -4.23822E+02  4.81151E+02  1.61313E+03
  5.06188E+02  2.57923E+03  2.04749E+03  2.10732E+03  6.46351E+03  4.78043E+03  1.00361E+03  3.96877E+03
 -1.92114E+03 -5.32098E+02 -6.90201E+03  4.18325E+03 -7.38003E+03  1.66184E+03  4.25051E+03 -2.68414E+03
  2.98328E+03 -1.56559E+03 -4.20631E+02 -1.31616E+03 -6.57946E+02 -6.20869E+01 -3.17321E+02  3.23216E+01
  1.50819E+03 -9.94830E+02  6.57543E+02 -1.34283E+03 -1.84420E+03 -2.83030E+03  8.37859E+02 -1.31734E+03
 -3.91596E+02 -1.79706E+03  7.13571E+03 -3.87963E+03  1.96010E+03 -7.07129E+02  1.43191E+03  2.83058E+03
 -2.27723E+03 -1.57532E+03 -3.30248E+02 -4.35046E+03 -1.76394E+03  1.37846E+03  1.10527E+03 -3.54448E+03
  5.49011E+03  2.78082E+03  6.62267E+03 -5.35049E+01  3.25252E+03  1.66815E+03 -2.89309E+03  3.95588E+03
 -1.77772E+03 -1.83917E+03 -2.84500E+03 -5.47866E+03 -3.11978E+02  1.14704E+03  1.92437E+02 -9.75375E+02
  1.42989E+03  1.72068E+03 -3.06459E+03 -4.47618E+03 -7.34715E+03  3.08713E+03  1.46787E+03 -2.15033E+03
 -1.50016E+01 -2.26114E+03  2.79391E+02  2.93661E+02  3.01148E+03  2.70218E+03  3.43153E+03  1.77877E+03
  1.54273E+03 -9.88731E+02 -4.85571E+02  1.76611E+03 -2.06313E+03 -1.15117E+03 -2.24477E+03 -3.16006E+03
 -3.08576E+03 -1.62911E+03  1.29971E+03 -3.66887E+03  2.63208E+03 -2.74674E+03 -3.43521E+02 -1.52691E+03
  3.31602E+03 -4.17286E+03  5.12112E+03  1.44879E+03 -3.86204E+03 -7.56124E+01 -1.85373E+03  7.14167E+03
 -3.18999E+03 -2.91223E+03 -3.89890E+03 -2.58190E+03 -2.47367E+02 -1.84601E+02  1.72641E+03 -1.92826E+03
  1.33764E+03  3.16212E+03  1.50295E+03  3.60137E+03 -1.65302E+03 -6.92869E+02 -7.09186E+02 -2.22989E+03
 -1.29627E+02 -8.63914E+02  6.92702E+02 -2.46980E+03 -1.08718E+03  3.56313E+03 -2.00082E+03 -1.54262E+03
  2.89446E+02  6.63567E+03 -3.41702E+03  1.14157E+03 -5.97456E+03 -1.06812E+03 -5.02763E+03 -2.23418E+03
 -1.23825E+03 -4.96051E+03  9.83669E+02 -5.23566E+02 -1.33313E+03 -4.67770E+03 -1.25240E+03  4.04683E+02
  2.19901E+03  2.98535E+03  1.21520E+03 -4.09420E+03 -5.10345E+02  3.01238E+03  1.39432E+03 -2.20203E+03
 -4.59523E+03 -1.15235E+03  7.46660E+03  4.27336E+02 -3.15060E+02  1.31484E+03 -2.40497E+03 -2.96940E+03
 -1.23398E+03  2.29761E+03 -2.97181E+03 -1.56973E+03 -3.28653E+03 -3.97210E+03  4.38704E+03  2.31735E+03
  3.89934E+03 -4.08595E+03 -3.60612E+03  2.32994E+03  1.33508E+03 -2.12793E+03  1.70313E+03  1.46165E+02
  9.10212E+02 -4.09385E+03 -1.88808E+03 -1.55377E+03 -3.16381E+03  1.13878E+03  3.25729E+03  8.43312E+02
  4.99937E+01 -4.00275E+03 -1.13722E+03  3.39908E+03  2.29267E+03 -3.97447E+03 -2.04090E+03  2.41326E+03
  1.40209E+03 -5.43780E+03  1.34024E+03  3.10581E+02  5.39649E+03 -1.74010E+03  9.71352E+02  4.79757E+02
 -8.36764E+02  3.26585E+02 -2.75787E+03  2.62664E+03 -6.90069E+02 -6.40413E+02  2.85960E+01  2.69761E+03
