 $NMID ID='MM_0lb_SNR50_20hz_g55_98.RAW', FMTDAT='(8E13.5)'
 TRAMP=1., VOLUME=1. $END
  3.08546E+05  6.12298E+02  3.37656E+05  2.51739E+05  8.58990E+04  3.36095E+05 -1.34781E+05  2.50928E+05
 -1.89465E+05  8.12656E+04 -1.13775E+05 -3.34304E+04  5.05657E+03 -5.07411E+04  5.47960E+04  1.35391E+02
  3.10147E+04  5.54684E+04 -1.68042E+04  7.49614E+04 -5.97089E+04  6.29096E+04 -8.24613E+04  3.18673E+04
 -7.94991E+04 -1.05179E+04 -5.39804E+04 -5.11367E+04 -1.50488E+04 -6.39898E+04  2.66317E+04 -4.05204E+04
  3.78082E+04  2.93007E+03  1.45643E+04  4.38502E+04 -3.68867E+04  4.72390E+04 -6.60700E+04  7.97894E+02
 -5.36553E+04 -5.62867E+04 -8.28088E+03 -7.43040E+04  3.30496E+04 -5.01235E+04  4.27723E+04 -1.80265E+04
  4.01386E+04  1.51116E+04  3.29085E+04  2.68468E+04  1.34164E+04  2.51152E+04 -2.65254E+03  2.23985E+04
 -2.27110E+04  1.09427E+04 -1.86453E+04 -6.82250E+03  2.14482E+02 -8.16480E+03  2.54118E+04  1.00797E+04
  6.25355E+03  2.86875E+04 -2.95204E+04  3.52252E+04 -6.17012E+04  7.63975E+02 -5.82917E+04 -4.25454E+04
 -1.22507E+04 -6.17648E+04  3.98600E+04 -4.39006E+04  5.34890E+04 -6.51588E+02  3.26834E+04  3.28459E+04
 -6.07148E+03  3.43881E+04 -2.57903E+04  1.38454E+04 -2.69174E+04 -2.88598E+03 -1.25857E+04 -8.51659E+03
 -9.56440E+02 -1.24817E+04 -1.61030E+03 -1.97617E+04  5.79865E+03 -2.48169E+04  1.28814E+04 -1.02491E+04
  8.61362E+03  3.33741E+03 -6.75789E+03  9.43773E+03 -2.03888E+04 -1.99311E+03 -7.47184E+03 -3.25533E+04
  1.76249E+04 -4.43484E+04  4.69233E+04 -2.05320E+04  4.12183E+04  2.04602E+04  1.53805E+04  4.61144E+04
 -1.54764E+04  3.10838E+04 -2.43071E+04  3.00686E+03 -4.93282E+03 -2.29835E+04  1.77429E+04 -3.08171E+04
  3.39926E+04 -9.22536E+03  3.53355E+04  2.45897E+04  1.62192E+04  4.11177E+04 -6.96978E+03  4.62400E+04
 -2.76788E+04  2.84013E+04 -3.73669E+04  8.12351E+03 -4.02026E+04 -1.48224E+04 -2.23484E+04 -3.52942E+04
  2.83890E+03 -3.10104E+04  2.74204E+04 -1.27399E+04  2.56095E+04  1.07376E+04  8.47422E+03  1.96703E+04
 -1.84034E+04  1.11549E+04 -6.91504E+03 -8.63947E+03  1.01559E+04 -1.30321E+04  1.73811E+04  5.39478E+03
  1.67031E+04  2.09639E+04 -7.06658E+03  2.19830E+04 -2.29614E+04  1.24567E+04 -2.43783E+04 -3.49948E+03
 -1.91660E+04 -1.89082E+04 -5.94940E+03 -1.82236E+04  3.12252E+03 -1.96612E+04  1.17357E+04 -1.27999E+04
  1.90981E+04 -1.32978E+04  2.65767E+04  1.66769E+03  1.97471E+04  1.33140E+04  1.95832E+03  3.39111E+04
 -1.33506E+04  2.42760E+04 -2.38881E+04  1.23537E+04 -2.29220E+04 -9.95973E+03 -5.47080E+03 -1.76216E+04
  3.09887E+03 -4.15845E+03 -3.96299E+03  6.49101E+03 -1.23625E+04  4.34531E+03 -1.29061E+04 -4.78554E+03
 -1.10544E+04 -2.09302E+04  5.55698E+03 -1.83821E+04  1.48665E+04 -1.36680E+04  1.68017E+04 -1.02003E+03
  6.54550E+03  1.02715E+04 -4.04915E+03  1.17575E+04 -9.23875E+03  7.02484E+03 -1.15920E+04 -7.36424E+03
 -1.17199E+04 -1.48177E+04 -2.58347E+03 -1.82802E+04  8.60032E+03 -1.31145E+04  1.45647E+04 -3.72409E+03
  1.58647E+04  1.15273E+03  4.95800E+03  4.31215E+03  4.07534E+03  2.84537E+03  6.22227E+03  2.60455E+02
  1.51709E+04  1.36776E+03  1.72972E+04  1.03216E+04  7.78264E+03  2.69756E+04 -2.89937E+03  2.17168E+04
 -1.77069E+04  2.12509E+04 -2.59571E+04  1.00175E+04 -3.07815E+04 -7.24169E+02 -2.20368E+04 -1.44537E+04
 -9.51205E+03 -1.86344E+04  3.53793E+03 -1.86352E+04  1.64348E+04 -1.09723E+04  1.00541E+04  2.01235E+03
  8.89998E+03  9.67083E+03 -6.30518E+03  1.10616E+04 -1.48704E+04  4.34768E+03 -1.10758E+04 -1.18047E+04
 -2.62480E+03 -1.37365E+04  8.04606E+03 -1.26371E+04  1.00736E+04 -1.99243E+03 -2.93656E+02  6.41019E+03
 -2.82323E+03 -2.15179E+03 -4.39178E+03 -1.91445E+03  1.18244E+03 -1.08751E+04  8.56151E+03 -7.60794E+03
  9.95594E+03 -3.88415E+03  1.35129E+04  5.19745E+03  8.26971E+03  1.17362E+04  2.90152E+03  1.24258E+04
  3.12669E+03  1.56091E+04 -1.25496E+04  1.18274E+04 -1.07463E+04  5.40155E+03 -8.16684E+03  2.60723E+02
 -2.87145E+03 -2.49905E+03 -1.33487E+03  2.88868E+02 -7.46849E+03  4.52488E+03 -1.26590E+03  5.28272E+03
 -5.16892E+03 -3.24400E+03 -5.73929E+03 -5.80235E+03 -2.38119E+03 -9.40635E+03  1.25701E+03 -1.12399E+04
  2.43041E+03 -5.09031E+03  4.82344E+03  2.69288E+03  3.52790E+03  6.31623E+02 -6.02061E+03  2.44745E+03
 -1.71149E+02 -1.76865E+03 -1.57547E+03 -9.43470E+03  2.20167E+03 -7.85385E+03  8.66440E+03 -4.66543E+03
  1.31811E+04 -5.72740E+03  9.44306E+03  6.41779E+03  3.46663E+03  9.83983E+03 -4.40873E+03  9.08303E+03
 -3.22931E+03  9.85001E+02 -2.36155E+03 -2.45043E+03  2.76823E+03  2.55768E+03  4.79919E+03 -1.46996E+01
  7.01458E+03  6.77832E+02  1.08539E+03  5.61949E+03 -3.95758E+03  7.17821E+03 -6.78705E+03  4.19203E+03
 -4.01667E+03 -5.59003E+03 -1.90863E+03 -2.86202E+03  4.09562E+03 -1.83672E+03  9.00821E+03  4.34320E+02
  3.86167E+02  2.02170E+02 -5.85332E+03  1.13086E+03 -3.68339E+03 -3.59539E+03 -1.52082E+03 -2.03051E+03
 -4.99072E+03 -2.24873E+03  6.66868E+02 -3.44814E+03  4.99338E+03 -4.10829E+03  5.98860E+03 -3.17368E+03
  5.21309E+03  3.41714E+03 -2.17438E+02  5.09469E+03 -6.08522E+03  5.67431E+03 -7.12276E+03 -3.42472E+03
 -2.34039E+03 -6.21526E+03 -1.50301E+03 -4.79210E+03  4.26598E+03  1.77038E+03  2.61897E+03 -3.12943E+03
  1.07970E+03  1.10491E+03  1.73267E+02 -4.33133E+02  6.43071E+02 -5.31266E+03 -1.61171E+03 -9.98911E+02
  1.87195E+03 -3.83786E+02  9.91370E+03  2.09869E+03  5.32511E+02  5.01436E+03  3.06633E+03  3.52536E+03
 -2.57239E+03  7.34681E+03 -1.00131E+04  8.07861E+03 -1.13169E+04 -2.94209E+02 -9.30202E+02 -3.27942E+02
 -6.24072E+03 -5.68320E+03 -1.16335E+03 -2.31673E+03 -1.03848E+02 -3.38561E+03  2.12304E+03 -2.68512E+03
  8.19785E+02 -1.52935E+03  4.17702E+03 -1.95283E+03  6.99858E+02  5.98667E+02  5.88540E+03  6.23124E+02
  9.08225E+03  1.19949E+03  8.87099E+02  4.64878E+03 -5.28282E+02  1.69366E+02 -4.49380E+03  6.80584E+03
 -3.07591E+03 -2.37912E+03  2.38579E+03 -7.29776E+03  3.97008E+02 -7.82935E+03  2.05668E+03 -4.26150E+03
  5.29525E+03 -1.99487E+03  8.73018E+03  8.76421E+02  2.44468E+03  6.12750E+03  2.06615E+03  7.60072E+03
 -7.87066E+02  4.46160E+03 -5.01573E+03  7.62252E+02 -4.44612E+02  2.62268E+02 -3.64563E+02  2.25240E+03
 -3.84354E+02  2.02193E+03 -1.43264E+03  5.13972E+03 -2.11773E+03 -2.01197E+03 -2.61323E+03  2.78742E+03
 -3.54112E+03 -8.92149E+03  3.28832E+03 -6.32655E+03  5.05025E+03 -7.86627E+02  1.86003E+03  7.76024E+02
  2.49916E+03  3.12238E+03  7.66624E+02  4.28164E+03 -8.70897E+02  5.91795E+03 -3.07976E+03  5.96868E+03
 -4.80713E+03 -1.62983E+03 -5.59063E+03 -4.14248E+03 -2.97044E+03 -4.18315E+03  5.67731E+02 -5.90619E+02
  4.02906E+03  1.24024E+03 -1.06060E+03 -2.03238E+03 -4.61760E+03  1.91570E+03 -5.45133E+02 -4.30909E+02
  6.69498E+02  3.66387E+03 -5.53261E+02  7.78266E+03 -4.60607E+02 -9.22016E+02 -4.54556E+02  2.17645E+03
  3.43769E+03  4.66991E+03 -2.05649E+03  1.04833E+03 -3.28801E+03  2.81579E+03 -3.17919E+03 -2.00557E+03
 -2.93027E+03 -3.45039E+03  1.27527E+03 -1.82763E+03  3.69582E+03 -2.89406E+01  3.77066E+03 -2.14042E+03
  1.15126E+03 -2.28494E+03  1.38348E+03  2.44351E+03  4.66741E+02 -2.11450E+03 -1.04446E+03  1.15656E+03
 -2.47286E+03 -1.68413E+02  8.79141E+02 -1.31401E+03  4.13848E+03  3.15305E+03  5.37575E+03 -3.41231E+03
  3.42030E+03 -5.56534E+02 -2.20953E+03 -2.18871E+03 -4.16829E+03 -7.34242E+01  2.90581E+03 -7.46415E-01
  9.80353E+02 -9.10813E+02  1.02110E+03  1.30580E+02 -1.98761E+03  3.82090E+03 -4.58190E+03  9.59518E+02
  9.61996E+02  1.43595E+03 -1.29328E+03 -2.40461E+03 -4.55088E+03  7.39438E+02  1.09122E+03 -4.23917E+03
  2.55973E+03  2.88083E+03  1.95686E+03  5.74650E+03 -4.64529E+02  5.33433E+03  1.49783E+03 -2.36882E+03
 -8.68161E+02 -1.33064E+03  2.10170E+03 -5.68354E+03  2.07463E+03 -1.46236E+02  1.39840E+03 -3.08680E+03
  2.71391E+03  6.76344E+02  3.44015E+02  9.52790E+02  3.10889E+03  1.52510E+02 -2.34573E+03 -5.94681E+02
 -4.84853E+02 -6.53491E+01 -1.16544E+03  4.41095E+03  2.94523E+02  2.01403E+03  1.80674E+03  9.83742E+02
  3.27817E+02 -8.67916E+02 -2.00280E+03 -9.22153E+02 -5.73109E+02  1.83550E+03  2.05871E+03  3.15968E+03
 -2.59680E+03  1.27425E+03  1.96273E+03 -7.57807E+02  2.79490E+03 -2.19493E+03  4.21958E+02  3.53785E+03
  7.74249E+02 -1.00198E+03 -4.98511E+02  4.88809E+02  8.83448E+02  1.92426E+03  3.83617E+02  3.37513E+03
  3.01772E+03  2.14650E+01 -5.27345E+02 -8.20320E+02  2.12726E+03 -1.79339E+03  3.74260E+02  1.25890E+03
  1.37822E+03  2.78477E+03  1.28538E+02 -2.60506E+02  1.36506E+03 -1.68118E+03 -5.98742E+03  1.00606E+03
 -2.51086E+03 -1.50688E+03 -2.48456E+03 -7.38967E+03 -2.96351E+03  9.42254E+02  9.44764E+02 -3.49869E+03
  2.30167E+03 -2.94640E+02  2.46793E+03  4.40468E+03 -3.76855E+02 -7.71338E+02  2.65869E+03  4.99118E+03
 -7.86581E+02  1.39785E+03  1.21416E+03  1.64643E+03  2.68014E+03  6.78094E+01 -2.38893E+02 -1.79282E+03
 -2.49581E+02 -3.74997E+02  4.51747E+02  3.42894E+03  1.38501E+03 -3.26203E+02 -1.97489E+03 -1.02243E+03
  1.08615E+03  3.31557E+03  5.25803E+02 -2.53372E+03  5.08889E+03  2.95552E+03 -4.44226E+03  3.38561E+03
  3.30203E+03 -8.09213E+02  1.63418E+02 -7.14896E+02 -2.12403E+03  4.61309E+03 -1.68953E+01  5.39562E+02
  1.10950E+03  3.66244E+02 -3.28779E+03  2.46701E+03  9.71755E+02  3.74592E+03 -4.42218E+03 -4.27784E+03
  1.27592E+03 -3.46136E+02  3.09513E+03  2.88951E+03  2.97330E+03  1.78683E+03 -2.45870E+03  2.28436E+03
 -2.12434E+03  3.50223E+03 -9.88617E+02  2.39647E+03  1.85652E+03  7.70878E+03  2.80397E+03 -3.68097E+03
 -1.93725E+02  2.32811E+03  1.58869E+03 -1.16457E+03  2.01639E+03 -9.61251E+02  1.95813E+03 -1.90042E+02
  2.38492E+03  1.64517E+03  2.49264E+03 -2.01094E+03  2.26213E+03  3.54466E+03  7.99632E+02 -1.76825E+03
  5.94805E+01  6.35510E+02  3.11249E+03 -2.12126E+03  1.97816E+03 -1.46191E+02 -7.70475E+02 -2.93007E+03
 -2.59742E+03 -1.36928E+03 -2.80904E+03  5.02956E+03 -1.38730E+03  4.89199E+03 -9.40619E+02 -3.34839E+03
 -1.18587E+02  7.20157E+02 -1.72419E+03 -3.67380E+02 -7.50879E+02 -5.97371E+02  2.00142E+03 -1.68543E+03
  2.28635E+03 -1.04680E+03 -1.46159E+03 -1.28440E+03 -1.58651E+03 -8.30794E+02 -2.76386E+03 -2.77022E+02
