 $NMID ID='MM_0lb_SNR50_9hz_g50_98.RAW', FMTDAT='(8E13.5)'
 TRAMP=1., VOLUME=1. $END
  3.15701E+05  2.36545E+03  3.37386E+05  2.50728E+05  7.83110E+04  3.38919E+05 -1.30491E+05  2.47734E+05
 -1.86061E+05  8.24061E+04 -1.14210E+05 -2.67415E+04  5.89128E+03 -4.86244E+04  5.67908E+04 -2.98768E+03
  3.62054E+04  5.46148E+04 -1.41134E+04  7.46069E+04 -6.19655E+04  6.32478E+04 -8.41808E+04  3.22063E+04
 -7.88000E+04 -1.11406E+04 -6.23220E+04 -5.11270E+04 -1.94306E+04 -7.38273E+04  3.42763E+04 -4.48101E+04
  4.00204E+04  6.82560E+03  1.29642E+04  4.74047E+04 -3.11188E+04  4.79560E+04 -6.72823E+04 -2.16376E+03
 -5.76461E+04 -5.38207E+04 -6.95832E+03 -8.17719E+04  3.33374E+04 -5.38862E+04  5.69401E+04 -1.80868E+04
  4.09192E+04  1.10965E+04  3.38925E+04  2.30865E+04  1.72299E+04  2.78209E+04 -1.11903E+04  3.33426E+04
 -2.21995E+04  1.11120E+04 -1.75579E+04 -8.82174E+03  9.09776E+03 -6.24230E+03  2.42122E+04  1.47149E+04
  3.51260E+03  3.56834E+04 -3.92091E+04  3.64570E+04 -6.62008E+04  8.73342E+03 -6.37755E+04 -4.07903E+04
 -1.56654E+04 -6.22625E+04  4.04069E+04 -5.25516E+04  6.35078E+04 -3.73628E+03  3.46936E+04  3.19991E+04
 -6.71346E+03  3.11004E+04 -3.47173E+04  2.17801E+04 -4.35876E+04 -4.47637E+03 -1.81892E+04 -1.06835E+04
 -8.12469E+03 -1.45452E+04  7.82582E+03 -1.55922E+04  3.52779E+03 -2.33604E+04  1.52178E+04 -1.66531E+04
  1.26528E+04  8.60449E+03 -5.42581E+03  1.42376E+04 -2.30492E+04 -1.19183E+04 -6.82815E+03 -4.15916E+04
  1.82885E+04 -5.26160E+04  5.65584E+04 -2.17892E+04  4.71925E+04  2.03046E+04  1.56977E+04  4.35005E+04
 -1.23603E+04  3.21115E+04 -3.10129E+04  6.39023E+03 -1.32486E+04 -2.55484E+04  1.75218E+04 -4.12801E+04
  4.15232E+04 -1.12970E+04  4.62067E+04  3.23337E+04  1.64636E+04  4.75050E+04 -5.75812E+02  5.39811E+04
 -3.07728E+04  3.57727E+04 -4.44905E+04  1.48893E+04 -4.82830E+04 -1.66210E+04 -2.65661E+04 -4.02947E+04
  4.95645E+03 -4.18567E+04  3.62421E+04 -2.15510E+04  2.67241E+04  9.91023E+03  5.70852E+03  2.20910E+04
 -1.58118E+04  1.40163E+04 -1.54793E+04 -7.37624E+03  4.09706E+03 -5.96496E+03  1.75126E+04  1.16290E+04
  1.25652E+04  2.42720E+04  5.92343E+02  3.09671E+04 -2.23740E+04  1.30517E+04 -3.38475E+04 -1.34481E+04
 -2.63266E+04 -1.79253E+04 -8.19764E+03 -2.34753E+04  3.11154E+03 -2.80609E+04  1.44881E+04 -1.80767E+04
  3.16715E+04 -1.70759E+04  3.99252E+04  7.02733E+03  2.41110E+04  2.24754E+04  3.60447E+03  4.38498E+04
 -1.27342E+04  3.13314E+04 -2.62005E+04  1.48768E+04 -1.94912E+04 -1.06778E+04 -7.05718E+03 -1.32021E+04
 -9.75341E+02 -1.42968E+03 -1.39210E+04  1.41986E+03 -1.73191E+04  2.79457E+03 -2.04520E+04 -1.22649E+04
 -1.18630E+04 -2.21079E+04  3.81400E+03 -3.05422E+04  1.69113E+04 -2.50806E+04  2.16757E+04  2.01328E+03
  1.23942E+04  1.15653E+04 -1.95315E+03  2.65079E+04 -1.31600E+04  1.52389E+04 -3.26817E+04 -1.13081E+04
 -1.75060E+04 -2.17491E+04 -3.26668E+02 -2.68793E+04  1.41678E+04 -1.87347E+04  2.40226E+04 -4.42199E+03
  2.42128E+04 -1.45070E+03  1.57486E+04  1.14233E+04  7.29986E+03 -3.85671E+03  5.25183E+03 -1.81345E+03
  2.45682E+04  6.57921E+03  2.54771E+04  1.86017E+04  1.93566E+04  3.95485E+04 -4.15694E+03  4.09631E+04
 -2.07934E+04  4.25578E+04 -4.18409E+04  2.43092E+04 -4.51990E+04 -2.32403E+03 -3.51428E+04 -3.05643E+04
 -1.21991E+04 -4.23502E+04  1.30180E+04 -3.32175E+04  3.03221E+04 -1.58729E+04  2.26510E+04  5.84816E+03
  7.71504E+03  1.77396E+04 -1.68159E+04  1.67812E+04 -1.49558E+04  6.79762E+03 -1.77431E+04 -1.19244E+04
  7.02693E+02 -1.80578E+04  1.15823E+04 -1.55636E+04  1.41546E+04 -3.60157E+03 -1.67463E+03  7.94633E+03
 -9.39840E+03  5.54990E+03 -6.72862E+03 -8.86536E+03 -2.27078E+03 -1.68305E+04  9.82143E+03 -2.38445E+04
  2.44684E+04 -7.16427E+03  2.65153E+04  7.25701E+03  2.59256E+04  1.85578E+04  1.11808E+04  2.80253E+04
 -1.13352E+04  3.16886E+04 -1.90790E+04  2.00380E+04 -2.60981E+04  1.50311E+03 -1.42653E+04 -6.09271E+03
 -5.51574E+03 -1.13519E+04  2.85898E+02 -3.07482E+03  7.62713E+02  7.20513E+03 -9.67144E+03  5.97151E+03
 -1.52037E+04  3.06835E+03 -1.92278E+04 -1.38627E+04 -7.62898E+03 -1.24207E+04  7.26865E+03 -1.13233E+04
  1.13398E+04 -4.45182E+03  8.36812E+03  4.76255E+03  1.22705E+03  2.13400E+03 -1.15085E+04 -9.35225E+02
 -1.03090E+04 -7.72188E+03  2.90960E+03 -9.76995E+03  1.32693E+04 -2.09720E+04  1.90868E+04 -3.74466E+03
  2.30631E+04  3.16554E+03  1.04024E+04  1.31976E+04  5.22996E+03  2.13444E+04 -1.23406E+04  1.48822E+04
 -1.60479E+04  1.23954E+04 -3.92409E+03 -2.60767E+02  5.21492E+03 -1.84780E+03  9.71351E+03  2.61669E+03
  1.04397E+04  5.07019E+03  1.55322E+02  1.05308E+04 -1.21300E+04  6.89257E+03 -1.69935E+04 -3.58963E+02
 -7.75087E+03 -9.17701E+03  2.14303E+03 -1.55461E+04  1.23130E+04 -3.44207E+03  7.54837E+03  1.11934E+04
  9.05615E+02  9.74325E+03 -6.17632E+03  1.26735E+04 -1.50373E+04  9.10266E+03 -1.44644E+04 -1.61207E+03
 -8.93483E+03 -1.77468E+04  2.93035E+03 -1.93963E+04  1.73160E+04 -1.03129E+04  1.89366E+04  7.30021E+03
  9.41476E+03  1.50980E+04 -1.15535E+03  1.90209E+04 -1.38667E+04  5.92604E+03 -1.41028E+04 -2.29208E+03
 -6.08501E+03 -1.15613E+04 -6.33489E+03 -1.93129E+04  8.04633E+03 -1.70771E+04  6.38516E+03 -1.58472E+03
  1.07604E+04 -1.45471E+02 -1.57500E+03  5.66859E+03  1.73130E+03 -5.57721E+03 -2.48163E+02 -6.74248E+02
  1.17245E+04 -2.35803E+03  1.68865E+04 -3.34217E+03  1.93940E+04  1.48085E+04  7.70938E+03  2.07974E+04
 -5.71149E+03  2.58998E+04 -1.88163E+04  1.62884E+04 -2.56653E+04  6.22874E+03 -2.17885E+04 -1.05422E+04
 -1.13926E+04 -2.04295E+04 -1.92442E+03 -1.34312E+04  1.61758E+03 -9.27433E+03  6.49115E+03 -4.44598E+03
 -4.84588E+02  2.80379E+03 -1.24576E+03 -8.15513E+03  1.12705E+04  2.18386E+02  6.10090E+03 -4.82149E+03
  1.27239E+04  4.69115E+03  2.88840E+03  7.74653E+03 -1.70452E+03  1.04376E+04 -8.27587E+03  5.52365E+03
 -1.44055E+04  2.30447E+03 -1.72421E+04 -9.02341E+03 -6.82920E+03 -1.37173E+04  7.86970E+02 -1.13955E+04
  1.69112E+04 -1.02515E+04  1.44105E+04 -4.52949E+03  1.58008E+04  1.44434E+04  4.57797E+03  1.88613E+04
 -1.08919E+03  1.76840E+04 -1.68235E+04  4.90218E+03 -1.70496E+04 -2.73568E+03  5.24439E+03 -3.12454E+03
 -5.09491E+03 -2.76736E+03 -6.31039E+03  2.86969E+03 -1.79482E+03  1.41508E+03 -1.37749E+04  2.92812E+03
 -8.40272E+03 -8.69400E+03  7.11073E+02 -1.35922E+04  1.09891E+04 -1.84481E+04  1.75796E+04 -4.15213E+03
  1.56950E+04  9.52768E+03  9.38939E+03  1.41054E+04 -4.87711E+03  1.29083E+04 -1.51827E+04  1.07257E+04
 -1.25879E+04  1.45506E+03 -1.07962E+04 -8.62614E+03 -4.10583E+03 -1.12017E+04  1.39745E+02 -7.11075E+03
  1.30646E+04  1.72891E+03  3.92742E+03  2.48124E+03  3.55608E+03  1.49377E+02  2.14833E+02  6.33959E+03
  1.19445E+03 -4.42469E+03  2.28699E+03  3.12160E+03  6.24756E+03  7.23389E+03  1.32010E+03  1.37494E+04
  3.83984E+02  1.49130E+04 -1.31075E+04  1.52276E+04 -1.79426E+04  5.21807E+03 -2.04684E+04 -1.26516E+04
 -1.16774E+04 -1.44145E+04 -2.46265E+03 -1.29175E+04  5.99406E+03 -1.04142E+04  1.55431E+04 -9.65947E+02
  1.18882E+04  2.98925E+03  4.95549E+03  7.99605E+03  1.30878E+03  4.56005E+03 -9.13105E+03 -7.29915E+01
 -1.93779E+03 -2.44060E+03  4.67973E+03 -5.17771E+03  7.27208E+03 -7.59612E+03  6.52618E+03 -2.53664E+03
  3.12689E+03  4.01108E+03  6.06322E+03  4.27528E+03 -4.10336E+03 -2.40151E+03  5.37034E+03  4.09828E+03
 -9.01520E+03 -8.27853E+02  2.10057E+03  5.06415E+03  2.59286E+03  7.19188E+03 -3.17723E+03  1.42898E+04
  2.95474E+02  9.38574E+03 -1.51970E+04  1.93861E+02 -1.10167E+04 -2.32384E+03  5.10271E+03 -3.61873E+03
 -5.65473E+02 -6.79330E+03  5.51591E+03  8.41587E+01  5.83735E+03  2.20452E+03  1.29072E+03  1.29209E+04
 -1.79983E+04  4.06117E+03 -5.24475E+03  6.69767E+03 -6.14511E+03 -2.87003E+03 -4.41651E+03 -8.74672E+03
  9.87043E+02 -5.03116E+03  3.23441E+03 -1.58190E+03  5.17959E+03  1.12854E+04 -3.67852E+03  4.84188E+03
 -1.15741E+03 -1.06067E+03  2.40603E+03 -2.44336E+03 -1.54610E+03 -3.01428E+03  1.12050E+04 -1.82922E+03
  1.24731E+04 -3.33005E+03  1.32373E+04  4.81171E+03  1.21198E+03  7.97704E+03 -5.54616E+03  8.27339E+03
 -1.09611E+04  7.38833E+03 -1.30771E+04 -5.24423E+01 -5.11379E+03 -5.11343E+03  4.01043E+03 -1.29573E+04
  5.38770E+03 -6.37715E+03  1.86350E+03  7.43341E+03  3.57840E+03  1.24722E+04 -4.54291E+03  4.64649E+03
 -6.78755E+03 -1.40655E+03  3.20127E+03 -1.76898E+03  2.18884E+03  6.94256E+03 -5.17961E+03  3.38259E+03
 -4.75382E+03 -1.24781E+03 -5.49358E+03  2.87623E+02 -5.59555E+03 -1.91099E+03 -8.99236E+03 -7.91722E+03
 -8.76988E+03 -1.17092E+04  6.60435E+03 -1.68053E+04  1.31053E+04 -1.26506E+04  7.57972E+03 -5.46541E+03
  1.95688E+04  1.03837E+03  4.95560E+03  1.02202E+04  4.40142E+03  1.37173E+04 -9.40486E+03  8.38358E+03
  1.45741E+03  4.88191E+02  1.10871E+02 -4.74483E+03 -3.50740E+02 -2.41646E+02 -7.42137E+03  1.18875E+03
 -1.64446E+03  1.92569E+03  8.75025E+02 -2.17275E+03 -1.13315E+03 -3.60451E+03  1.07777E+03 -3.43690E+02
  6.32061E+03 -6.74131E+03  2.34879E+03  4.18361E+03  1.86822E+03  6.77539E+03  6.42100E+03  1.24437E+04
 -8.27875E+03  7.38066E+03 -8.83577E+03  1.77605E+03 -1.22936E+04 -7.32277E+02 -5.58220E+03 -3.67488E+03
 -2.45807E+03 -9.53347E+03  1.74750E+03 -7.82431E+03  1.10189E+04 -6.82582E+03  4.18964E+03  3.01124E+03
  3.58001E+03  3.11842E+03 -2.52801E+03  3.74285E+03 -3.79715E+03  4.84154E+03  9.57848E+02  7.89869E+02
  3.07078E+02  1.29331E+03  3.72877E+03  5.51580E+03  6.20156E+03  6.88713E+03  9.23986E+03  6.28516E+03
 -3.18087E+03  8.13168E+03 -2.65162E+03  2.67023E+03 -1.78397E+04 -2.51515E+03 -7.56057E+03 -1.15945E+04
  1.19144E+04 -9.65399E+03  6.58613E+03 -1.81952E+03  9.34817E+03  1.62739E+03  1.13156E+04  6.27977E+03
 -2.53010E+02  1.26772E+04 -4.85421E+02  6.88193E+03 -3.27632E+03 -2.71138E+03 -7.37846E+03  2.85367E+03
 -8.79937E+02 -3.69866E+03 -1.04651E+03 -2.85710E+03 -8.05500E+03  2.06866E+03 -9.13938E+03  3.14787E+03
 -8.08321E+03 -2.34738E+03  1.83216E+03 -8.73371E+03  9.82152E+02 -5.85581E+03  1.11484E+04 -9.41186E+03
  9.95186E+03  5.06914E+03 -1.58776E+03  3.35481E+03  1.71740E+03  1.71230E+04 -6.65193E+03  2.94842E+03
