 $NMID ID='MM_0lb_SNR50_20hz_g55_45.RAW', FMTDAT='(8E13.5)'
 TRAMP=1., VOLUME=1. $END
  3.08760E+05  1.32584E+03  3.37630E+05  2.55151E+05  8.60097E+04  3.38560E+05 -1.30150E+05  2.51036E+05
 -1.89872E+05  8.66303E+04 -1.12345E+05 -3.04987E+04  9.87126E+02 -5.33735E+04  5.44287E+04 -3.10856E+03
  3.38979E+04  5.44736E+04 -1.76758E+04  7.78142E+04 -5.76613E+04  6.07861E+04 -8.25422E+04  3.17727E+04
 -8.06959E+04 -9.93233E+03 -5.74248E+04 -5.20579E+04 -1.32450E+04 -6.78454E+04  2.96827E+04 -4.44029E+04
  3.51949E+04  5.32239E+02  1.55076E+04  4.91723E+04 -3.10598E+04  4.99531E+04 -6.44995E+04  4.28031E+03
 -5.23916E+04 -5.62703E+04 -3.60157E+03 -7.51899E+04  3.25654E+04 -5.18772E+04  4.81811E+04 -1.40342E+04
  4.05316E+04  1.00241E+04  3.53758E+04  2.95799E+04  1.86230E+04  3.13920E+04 -6.65837E+03  2.70027E+04
 -2.23384E+04  1.52704E+04 -1.65326E+04 -6.27076E+03  7.74422E+02 -9.81358E+03  2.45914E+04  1.34213E+04
  7.85204E+03  3.77988E+04 -2.92260E+04  2.99559E+04 -6.09519E+04  2.73786E+03 -5.67804E+04 -4.12259E+04
 -1.06173E+04 -6.10846E+04  3.65000E+04 -4.56504E+04  5.95369E+04 -8.82355E+02  3.42921E+04  3.12619E+04
 -9.18603E+03  3.33984E+04 -2.13632E+04  1.10230E+04 -2.80447E+04 -5.51195E+03 -8.96058E+03 -1.22513E+04
 -8.62232E+03 -9.51865E+03 -1.56221E+03 -2.00270E+04  8.78026E+03 -2.18273E+04  1.26763E+04 -1.16536E+04
  1.28119E+04  4.84425E+03 -5.48721E+03  1.03821E+04 -2.17046E+04 -2.39276E+03 -7.56430E+03 -3.00743E+04
  1.76321E+04 -4.08734E+04  4.87297E+04 -1.93682E+04  4.79581E+04  2.13412E+04  9.83064E+03  4.39402E+04
 -1.31635E+04  2.82223E+04 -2.25833E+04  4.89749E+02 -5.63778E+03 -2.42165E+04  2.12514E+04 -3.17896E+04
  3.81695E+04 -7.51098E+03  2.96369E+04  2.07490E+04  1.39903E+04  4.29764E+04 -6.43677E+03  4.43838E+04
 -2.81589E+04  2.65001E+04 -3.62160E+04  8.35563E+03 -3.92227E+04 -1.60411E+04 -2.01701E+04 -3.39043E+04
  7.54361E+03 -3.03068E+04  2.81804E+04 -1.26087E+04  2.52356E+04  1.48197E+04  5.05286E+03  1.67345E+04
 -1.76922E+04  2.34098E+03 -6.97724E+03 -6.96994E+03  9.50713E+03 -1.26023E+04  1.71962E+04  5.94092E+03
  1.07859E+04  1.93376E+04 -3.90274E+03  2.29672E+04 -1.96501E+04  5.68713E+03 -2.38864E+04 -5.63161E+03
 -1.69121E+04 -1.63254E+04 -3.76632E+03 -1.62908E+04  4.53827E+03 -1.53925E+04  1.07686E+04 -8.43282E+03
  2.22936E+04 -1.55204E+04  2.63722E+04  3.11863E+03  2.27634E+04  1.76216E+04  6.09706E+03  3.27320E+04
 -1.33441E+04  2.88180E+04 -2.35010E+04  9.53696E+03 -2.19812E+04 -1.34521E+04 -7.00904E+03 -1.38060E+04
 -7.30042E+01 -2.50449E+03 -1.98427E+02  9.14048E+03 -1.64164E+04  5.74498E+03 -1.28291E+04 -2.87666E+03
 -1.09574E+04 -1.80404E+04  8.69698E+03 -1.87806E+04  9.17575E+03 -1.66471E+04  1.71070E+04 -1.78953E+03
  1.01995E+04  9.70437E+03 -3.09458E+03  1.57579E+04 -9.34685E+03  9.43818E+03 -1.74882E+04 -2.49986E+03
 -9.49427E+03 -1.56217E+04  1.09239E+03 -2.25480E+04  1.32788E+04 -1.54530E+04  1.29046E+04 -9.70005E+03
  1.81377E+04  1.23160E+03  7.85527E+03  2.89253E+03  3.41308E+03  1.84556E+03  9.41946E+03  3.32545E+02
  1.17999E+04  9.87898E+03  1.37149E+04  1.27895E+04  6.62520E+03  2.86887E+04 -3.47930E+03  2.31406E+04
 -1.42618E+04  2.11892E+04 -2.43534E+04  7.67108E+03 -2.10003E+04 -3.81852E+03 -2.01145E+04 -1.15975E+04
 -3.30429E+03 -2.20281E+04  9.21496E+03 -2.02339E+04  1.78696E+04 -6.74783E+03  1.73210E+04  5.28450E+03
  3.99970E+03  1.31041E+04 -7.45129E+03  1.01983E+04 -1.48005E+04  3.92339E+03 -1.27405E+04 -3.97672E+03
 -8.20366E+02 -8.43677E+03  2.58511E+03 -6.66964E+03  8.65578E+03 -4.64992E+03  1.85412E+03  5.45171E+03
 -5.96850E+03  4.08863E+03  3.83993E+02 -4.17838E+03  6.04044E+02 -6.72463E+03  7.74893E+03 -7.87142E+03
  9.77304E+03 -4.05229E+03  1.02832E+04 -8.18681E+02  1.05129E+04  1.11191E+04  7.43707E+03  1.39793E+04
 -2.02929E+03  1.32896E+04 -8.85242E+03  1.08082E+04 -8.49239E+03  7.29435E+03 -3.87063E+03 -6.70961E+03
 -2.55587E+03 -2.59834E+03  3.26898E+02  5.12898E+02 -5.61518E+03  5.31224E+03 -4.90113E+03 -2.16615E+03
 -7.88798E+03 -1.84286E+03 -7.41720E+03 -8.12679E+03  1.47683E+03 -1.03302E+04  1.81825E+03 -8.24729E+03
  3.95867E+03 -4.42854E+03  5.11808E+03  2.48798E+03  2.19539E+02  2.46824E+03  1.01714E+03  1.56462E+03
 -4.82517E+03 -8.61948E+03 -1.48900E+03 -8.85845E+03  2.13156E+03 -7.55680E+03  1.13402E+04 -4.39072E+03
  1.13287E+04 -1.97021E+02  8.82280E+03  4.71359E+03  3.41433E+02  7.14861E+03 -6.09532E+03  8.68413E+03
 -5.24527E+03  3.65962E+03 -3.88360E+03 -1.08029E+03  9.24985E+02 -3.18271E+03  7.11418E+03 -4.05515E+03
  6.86836E+03  3.61700E+03 -7.45140E+02  6.49575E+03 -5.88834E+03  5.59213E+03 -3.97064E+03  8.04922E+02
 -2.75269E+03 -5.25604E+03 -3.63259E+02 -6.85080E+03  2.51469E+03 -5.26940E+03  1.96866E+02  6.09615E+02
 -2.23436E+03  4.13704E+03 -2.05083E+03  5.03541E+03 -4.23086E+03  2.16917E+03 -8.41800E+03 -2.96186E+03
 -3.33390E+03 -7.27649E+03  3.98813E+03 -5.87056E+03  2.14876E+03 -5.66709E+03  6.47371E+03  2.33583E+02
  7.13305E+03  7.09938E+03 -1.37711E+03  8.22826E+03 -4.21031E+03  1.95297E+03 -7.84409E+03  3.91861E+02
 -2.94836E+03 -4.56547E+03 -2.33402E+03 -5.99559E+03  4.68636E+03 -3.32925E+03  1.90553E+03 -4.55844E+03
 -9.77264E+01  2.23692E+03  3.81351E+03  3.49257E+03 -3.09965E+03 -1.57724E+03 -5.81002E+02  6.57935E+02
  5.56427E+03  3.80489E+03  8.98020E+02 -6.45046E+02  5.43327E+03  1.46478E+03  2.82115E+03  8.38495E+03
 -6.61282E+02  9.62115E+03 -7.62331E+03  5.62374E+03 -1.09694E+04 -3.15191E+03 -4.65925E+03 -2.79786E+03
 -6.06307E+03 -8.17654E+03 -6.14250E+03 -4.40171E+03  2.73892E+03 -1.32912E+03  2.53818E+03 -5.83169E+02
  3.36935E+03 -2.73143E+03  3.11057E+03 -4.34648E+03  3.61504E+03 -1.56337E+03  1.93227E+03 -2.07222E+03
  6.17286E+03 -2.07072E+03  3.25545E+03  2.80604E+03 -3.30446E+03  9.26695E+02 -3.13437E+03 -5.79952E+02
 -4.48000E+03 -4.00111E+03 -2.31230E+03 -6.26383E+03 -1.62146E+03 -5.03260E+03  4.30608E+03 -4.19379E+03
  3.22830E+03  7.94023E+02  3.18978E+03  4.19496E+03  4.75946E+03  6.28568E+03  5.28535E+02  7.01998E+03
 -2.99341E+03  6.26216E+03 -5.52383E+03 -2.38350E+03 -1.44280E+03  3.84106E+03 -8.15555E+02 -2.70699E+03
  4.45439E+02 -1.29960E+03  2.94574E+03 -2.83466E+03 -5.18526E+03  2.91476E+03 -6.85271E+03  2.86177E+03
 -2.38926E+03 -5.16536E+03  1.60552E+03 -5.09457E+03  1.90257E+03 -1.34612E+03  1.57517E+03 -5.28636E+03
  6.54112E+03  1.69737E+03 -1.33997E+03  2.74259E+03  8.87981E+02  3.05572E+03 -7.66036E+03  1.15028E+03
 -7.90885E+03  1.85842E+03 -6.98540E+03 -2.36120E+03 -6.41013E+03 -2.51711E+03 -1.63776E+03 -7.60584E+02
  3.54382E+03  4.26217E+03 -1.66256E+02 -2.11445E+03  2.00703E+00  1.91682E+03  7.78045E+02 -3.10162E+03
  2.30632E+03 -3.95867E+01  4.44132E+03  1.19135E+03 -3.84234E+02 -1.17891E+03  8.78148E+02 -4.27763E+03
 -2.87841E+03  5.71104E+03  2.83434E+02  3.20084E+03  1.59777E+03 -5.40015E+02 -1.33653E+03  1.51690E+02
  7.08427E+02 -1.87580E+03  2.70838E+03 -1.46339E+03 -9.68245E+01 -1.37572E+03 -9.05530E+01 -1.40851E+03
  1.81938E+03  4.23893E+03 -3.03263E+03  1.44170E+03 -3.54537E+03 -1.94797E+03  2.62778E+03 -2.76699E+03
 -3.68311E+03  1.07380E+03 -1.04807E+03 -6.96081E+02  1.67376E+03  3.45105E+02  3.35122E+03 -3.79210E+03
 -2.28763E+03 -2.99125E+03 -2.95389E+03  9.06284E+02 -2.92744E+03  3.26116E+02  1.12385E+03  2.94461E+03
  3.17167E+02  3.09111E+03 -9.12205E+02  3.33853E+03 -2.25752E+03 -1.29615E+03 -2.65526E+03  1.48401E+03
 -3.86099E+03 -1.09647E+03  1.44901E+03  3.08893E+03  1.80953E+02  2.09986E+03 -6.29686E+02 -2.46592E+03
 -2.81388E+03  2.13276E+03 -2.60819E+02  6.02642E+02  1.88293E+03  2.38744E+03 -8.45817E+02  3.98572E+02
  2.02686E+02 -3.73859E+03 -4.31347E+02 -8.63633E+02 -3.23148E+03  5.79240E+02 -2.30599E+03 -2.00424E+03
  3.02233E+03  7.78336E+02  2.25418E+03 -4.58233E+02 -4.89398E+02 -3.24721E+03 -3.12766E+03 -1.21630E+03
 -8.95942E+02 -4.96787E+02 -3.34064E+03  5.39890E+02 -1.07535E+03 -2.15483E+03  2.64022E+03 -1.08050E+03
 -1.25284E+03  1.88095E+02  6.20715E+02  1.08921E+03 -2.30336E+03 -4.34783E+02  5.90497E+02  7.06354E+02
 -2.05897E+03  2.08894E+03 -5.86980E+03  5.05062E+03 -8.23566E+02  3.67808E+03 -1.78952E+03 -1.00443E+03
  8.55113E+02 -4.38175E+03 -1.39516E+03 -9.38709E+01  1.07415E+03  1.51730E+03 -6.21570E+02 -3.65250E+02
  1.36662E+03  3.25762E+03  6.74287E+02 -6.71359E+02 -2.66931E+03 -2.42750E+03 -2.97621E+03  1.13710E+03
  2.60370E+03  1.10952E+02 -4.15268E+03 -5.68592E+02 -1.04957E+03 -1.28117E+03 -2.81401E+01 -5.37865E+03
 -3.23236E+03 -1.10785E+03 -1.78394E+03 -1.97142E+03  8.67289E+02 -9.87490E+02  1.49785E+03 -3.97601E+03
  3.83604E+03 -5.67474E+03  6.23611E+02  4.12673E+02  1.60134E+03 -1.03974E+03 -3.23204E+03 -1.24799E+03
 -3.87832E+03  2.02807E+03  3.25708E+03  3.22961E+03 -8.50499E+02  4.81134E+02 -3.42635E+03  6.23832E+03
  6.35265E+02 -1.28335E+03 -4.94271E+03  4.84117E+02  7.60407E+02  2.55069E+03 -3.88174E+03  5.37011E+02
  3.12241E+03 -1.82623E+01  3.94621E+03 -9.55797E+02  1.56710E+03 -1.07133E+02 -1.72767E+03  2.32750E+02
  1.51624E+03  9.97528E+02 -2.16101E+03 -1.65918E+03 -3.00256E+03 -3.20245E+02 -1.83780E+03 -2.65505E+03
  2.61843E+03  4.55047E+03  1.87799E+03 -2.85954E+02  1.21149E+03  4.75811E+02 -3.37404E+03  1.60393E+03
  2.09312E+03  3.11478E+03 -1.05413E+03  3.30611E+03  3.00966E+03 -3.71622E+02  6.82678E+02 -3.84434E+03
  3.64794E+03 -2.21232E+03  4.50083E+02  1.31528E+03 -6.62330E+02 -9.06596E+02  2.58874E+03  1.86887E+02
 -1.40864E+03 -2.78421E+03  1.60008E+03  3.53910E+03 -2.07288E+03 -3.98435E+02 -5.78840E+03  2.17780E+03
 -2.20815E+03 -2.24397E+03 -3.79969E+02  1.76367E+02 -6.76903E+02  8.07588E+02 -6.77636E+03  8.95169E+02
 -8.69587E+01 -1.81716E+03  5.69700E+02  2.45876E+03  2.58412E+03 -1.05581E+03  1.79586E+03  1.71817E+03
  2.80273E+03 -2.30222E+03 -2.70747E+03 -2.14948E+03  1.04403E+03  2.48535E+03 -2.40302E+03 -4.75612E+02
 -1.43285E+03 -4.17476E+03 -8.51851E+03 -1.16687E+03 -4.72546E+02 -1.47672E+03  2.00483E+03 -3.83025E+03
 -2.31862E+03  8.85583E+02 -3.50357E+03  4.82928E+02 -8.94672E+02  3.35595E+03 -2.48226E+03  9.23964E+02
