 $NMID ID='MM_0lb_SNR50_20hz_g60_57.RAW', FMTDAT='(8E13.5)'
 TRAMP=1., VOLUME=1. $END
  3.14548E+05  2.21871E+03  3.39578E+05  2.51005E+05  8.19612E+04  3.36026E+05 -1.31712E+05  2.47455E+05
 -1.90035E+05  7.92397E+04 -1.13503E+05 -3.64295E+04  3.09838E+03 -5.09454E+04  5.54680E+04 -2.36001E+03
  3.75602E+04  5.37162E+04 -1.96352E+04  7.54035E+04 -6.10392E+04  6.22363E+04 -8.18284E+04  3.51421E+04
 -8.05023E+04 -6.93336E+03 -6.29814E+04 -5.32615E+04 -1.55137E+04 -7.13377E+04  2.47965E+04 -4.54171E+04
  3.81149E+04  3.24312E+03  1.89791E+04  4.61269E+04 -3.07543E+04  4.78902E+04 -6.60641E+04  6.70362E+02
 -5.55341E+04 -5.32121E+04 -8.07341E+03 -7.61766E+04  3.13591E+04 -5.49963E+04  4.65289E+04 -1.20675E+04
  4.08994E+04  1.02823E+04  2.99687E+04  2.36396E+04  1.74271E+04  2.94063E+04 -1.28302E+03  3.00551E+04
 -2.40259E+04  1.52211E+04 -1.97006E+04 -2.02709E+03  4.50226E+03 -6.36791E+03  2.08730E+04  1.05554E+04
  1.04080E+04  3.14391E+04 -3.32119E+04  3.15682E+04 -5.95572E+04  1.33761E+02 -5.56796E+04 -4.45790E+04
 -1.40596E+04 -6.22933E+04  3.71643E+04 -4.40423E+04  5.59369E+04 -4.76076E+03  2.78888E+04  3.17194E+04
 -6.86712E+03  3.42677E+04 -2.89766E+04  1.85464E+04 -2.57952E+04 -8.55087E+03 -1.66188E+04 -1.31350E+04
 -8.92736E+03 -1.18048E+04 -4.05959E+03 -1.81745E+04  4.10019E+03 -2.40789E+04  1.61646E+04 -1.34112E+04
  1.45683E+04  5.33053E+03 -5.56885E+03  1.19441E+04 -2.11327E+04 -1.19911E+03 -5.48236E+03 -3.29248E+04
  2.28955E+04 -4.28580E+04  4.69999E+04 -1.78045E+04  4.37467E+04  1.61245E+04  1.66643E+04  4.41892E+04
 -1.35884E+04  2.66140E+04 -2.61703E+04  1.79313E+03 -8.97341E+03 -2.67744E+04  2.00998E+04 -3.03151E+04
  3.58435E+04 -6.34730E+03  3.60094E+04  2.11617E+04  1.19819E+04  4.06485E+04 -9.83587E+03  4.87514E+04
 -2.97799E+04  3.12632E+04 -3.96650E+04  4.46010E+03 -3.65038E+04 -1.82765E+04 -2.47920E+04 -3.41871E+04
  5.53221E+03 -3.08249E+04  2.84355E+04 -1.61295E+04  2.54046E+04  1.27710E+04  2.67395E+03  1.89994E+04
 -1.55473E+04  5.93955E+03 -1.03022E+04 -1.18968E+04  2.34160E+03 -1.31311E+04  1.83129E+04  4.93711E+03
  1.34163E+04  1.97314E+04 -6.30746E+03  2.60113E+04 -2.24896E+04  1.20900E+04 -2.58895E+04 -4.94899E+03
 -1.78319E+04 -1.77130E+04 -4.37282E+03 -1.46417E+04  5.34985E+03 -1.64408E+04  1.40818E+04 -1.65172E+04
  1.78725E+04 -1.13173E+04  3.05601E+04  4.07987E+01  2.15250E+04  1.14887E+04  2.81353E+03  3.35734E+04
 -1.26290E+04  2.42571E+04 -2.55702E+04  9.70011E+03 -2.00564E+04 -1.44906E+04 -6.17679E+03 -1.61616E+04
  5.25522E+03 -4.48214E+03 -6.68161E+03  9.43000E+03 -9.27712E+03  5.55123E+03 -1.00382E+04 -7.03096E+03
 -1.13741E+04 -1.48162E+04  5.08111E+03 -1.70615E+04  1.64948E+04 -1.39020E+04  1.76843E+04  2.91187E+03
  5.89666E+03  1.20601E+04 -8.03691E+02  1.20987E+04 -1.09675E+04  8.15474E+03 -1.65661E+04 -3.91834E+03
 -9.38053E+03 -1.44580E+04  1.48881E+01 -1.61821E+04  8.57974E+03 -1.05656E+04  1.98944E+04 -8.11954E+03
  1.35968E+04  3.41074E+02  1.36971E+04  3.97861E+03  5.28688E+03  8.64184E+02  9.34770E+03 -4.28559E+03
  1.41557E+04  5.98145E+03  1.99645E+04  1.29200E+04  1.11789E+04  1.90310E+04 -3.51565E+03  3.05312E+04
 -1.89160E+04  2.08531E+04 -2.53690E+04  1.17914E+04 -2.38789E+04 -4.10986E+03 -1.91021E+04 -1.68506E+04
 -7.58888E+03 -2.15017E+04  9.46292E+03 -1.89299E+04  2.11565E+04 -1.01486E+04  1.55895E+04  4.26605E+03
  4.67489E+03  9.31724E+03 -6.87210E+03  1.25055E+04 -1.40842E+04  5.23117E+03 -7.77142E+03 -7.25356E+03
 -9.58824E+02 -7.24958E+03  4.26699E+03 -8.96274E+03  1.43424E+04 -1.38776E+03  1.66020E+03  6.75805E+03
 -6.50639E+03 -1.81468E+02 -3.33031E+03  2.96241E+02 -3.21049E+03 -8.21899E+03  5.90283E+03 -1.22860E+04
  1.71785E+04 -6.39379E+02  9.45010E+03 -2.45832E+03  1.26538E+04  1.22404E+04  6.86746E+03  1.30697E+04
 -2.17222E+03  1.21502E+04 -1.15176E+04  9.40646E+03 -1.41099E+04  1.86831E+03 -7.61031E+03 -2.05643E+03
 -4.25181E+03 -5.09511E+03  2.06888E+03 -3.07558E+03 -4.73564E+03  5.44529E+01 -1.97887E+03  3.95688E+03
 -4.98559E+03  9.57606E+02 -7.24267E+03 -3.59216E+03 -5.65086E+03 -1.21087E+04  2.85469E+03 -1.01485E+04
  2.31964E+03 -5.42354E+03  6.07775E+03  2.29816E+03 -7.47089E+02  2.63379E+03  3.03334E+02 -1.02109E+03
 -2.31519E+02 -2.02479E+03 -4.54154E+03 -8.31148E+03  2.84352E+03 -8.11386E+03  9.22125E+03 -3.94245E+03
  9.50155E+03 -7.66333E+02  8.39874E+03  8.37327E+03  2.21154E+03  7.40989E+03 -7.69428E+03  1.40256E+04
 -5.40602E+03  3.96134E+03 -1.21647E+03 -3.22331E+03 -3.83495E+02 -3.64469E+03  2.89418E+03  1.91973E+02
  8.39484E+03 -1.72129E+02  1.42139E+03  2.97410E+03 -1.28264E+03  8.15580E+03 -7.09244E+03  5.35663E+01
 -7.81126E+03 -1.50353E+03 -2.06118E+03 -5.10211E+03  2.41016E+03 -2.86888E+03  2.26075E+03  9.01011E+02
 -1.98010E+03  5.83860E+03 -2.80077E+03  6.66836E+02 -3.00614E+03  9.05462E+02 -1.32835E+03 -2.65626E+03
 -3.26221E+03 -1.81698E+03  6.90344E+02 -7.45713E+03  1.85540E+02 -7.04239E+03  4.22199E+03  9.69850E+02
  1.36942E+03  1.93439E+03 -3.87868E+03  4.98449E+03 -3.68210E+03  5.77649E+03 -6.54426E+03  1.97669E+02
 -6.37427E+03 -4.19867E+03  1.26911E+02 -8.64473E+03  4.26544E+03 -5.51696E+03  3.73192E+03 -2.45144E+03
  3.66288E+03  2.70462E+03 -3.74198E+01  1.24129E+03 -9.87293E+02  1.47877E+03 -1.16217E+03 -3.09374E+03
  5.64979E+03 -2.10926E+03  8.26682E+03  6.56359E+02  1.43862E+03  3.09510E+03  5.26220E+03  5.00140E+03
 -1.84900E+03  1.12753E+04 -6.90645E+03  4.20916E+03 -6.76632E+03  3.87574E+03 -8.96496E+03  3.70095E+03
 -5.56498E+03 -5.23013E+03  2.97267E+03 -8.31404E+03  7.07884E+03 -4.45051E+03  2.99548E+02 -1.10534E+03
  4.40902E+01  1.56499E+03  2.81348E+03 -1.06969E+03  5.83912E+03 -5.56517E+03  1.10213E+03  3.95367E+03
  7.62684E+03  8.74812E+02  2.51084E+02  6.94077E+03 -6.47755E+02  3.27083E+03 -2.63865E+03  1.78517E+03
 -3.74133E+03 -1.39265E+03 -4.45438E+03 -1.29641E+03  3.42080E+03 -5.61631E+03  1.74823E+03 -5.96976E+03
  2.93033E+03  1.28623E+03  4.98292E+03 -1.29070E+03  5.74223E+03  1.73135E+03 -1.96337E+03  4.94091E+03
 -4.17490E+03  2.26358E+03 -5.20453E+03 -5.09909E+02 -2.55167E+03 -3.10260E+03  2.20406E+03 -6.89536E+03
 -3.17511E+03 -2.04506E+03  3.78464E+02  2.21726E+03 -2.19181E+03 -1.56562E+03 -1.18505E+03  9.96101E+02
  6.90832E+02 -4.15995E+02 -3.08021E+03 -4.31572E+02  3.87395E+03 -5.51315E+03 -2.03197E+03 -1.40483E+03
  4.11678E+03 -1.53447E+03  3.45631E+03  2.04645E+03  4.25383E+02  1.02728E+04 -2.96381E+03  4.56817E+03
  1.39211E+03 -4.78137E+03 -3.11544E+03  2.05951E+03 -1.34196E+03 -2.58596E+03 -1.35276E+03 -1.94560E+03
  3.34389E+03 -1.19588E+03  2.75516E+03 -6.24472E+01 -1.01816E+03  4.61634E+03  2.95920E+02  1.93953E+03
  4.42769E+03 -1.43335E+03 -8.77488E+02  1.01958E+03  2.62752E+03  8.98091E+02  3.17019E+03 -4.14116E+01
  1.75466E+03  2.03936E+03 -4.71498E+03  2.77825E+03 -1.45698E+03  4.60674E+02 -2.10680E+03 -3.36407E+02
 -1.41821E+03 -4.69722E+03 -4.70683E+02 -4.19557E+03  8.54453E+03 -1.47043E+03  3.15234E+03 -2.94732E+03
  1.32093E+03  3.82608E+03 -3.55772E+03  6.51545E+02 -4.70366E+03 -1.33526E+03 -1.58988E+03 -8.71983E+02
  1.26277E+02 -1.48300E+03  1.18221E+03 -4.02736E+03  9.29633E+02 -1.73444E+03 -5.88907E+02 -5.27740E+02
  1.19139E+03 -2.28184E+03 -3.07855E+03  2.38890E+03  3.02711E+03  2.60751E+03  3.31853E+03  2.35290E+03
  4.42549E+02  1.97322E+03 -1.45437E+03  8.34479E+02 -1.26333E+03  1.68118E+03  1.32261E+03  2.82754E+03
 -4.23344E+03 -3.86448E+02 -3.49638E+03  4.61797E+02  2.63672E+03 -3.14196E+03 -2.20629E+03  6.41363E+01
 -1.24372E+03  4.49302E+02 -8.96834E+02  4.23910E+03  1.42429E+03 -2.30702E+03 -3.33215E+03 -1.38404E+03
 -2.34809E+03 -1.75391E+02 -2.21517E+03 -4.69725E+03  7.37763E+02  2.38164E+03  6.56028E+02 -2.23980E+03
  2.30648E+03 -2.80723E+03 -1.47094E+03 -4.17982E+02  2.02792E+02  1.60668E+03  1.66301E+03 -1.04959E+03
  3.78086E+03 -2.86930E+02  2.76867E+03  2.96163E+03 -3.61052E+02  1.15335E+03  4.88190E+03 -6.77003E+02
 -6.33609E+02 -1.55791E+03  5.70412E+03 -9.15611E+02  3.31818E+03  2.35299E+03 -1.05807E+02  4.64613E+02
 -3.12874E+03 -4.43351E+01  1.37257E+03 -1.01413E+03  2.30134E+03 -2.24620E+03  2.42342E+03 -7.96123E+02
 -1.02827E+03  1.83729E+03  3.03832E+03  1.70306E+03  1.78083E+02  3.71545E+03  1.70112E+03  2.37563E+03
  4.45287E+02 -1.08938E+03  2.00961E+03 -2.55778E+03 -4.54530E+03 -2.22735E+03 -1.98449E+03  4.57821E+02
 -6.09394E+01  1.13272E+03  3.53439E+02 -1.47143E+03 -6.26692E+02 -2.30141E+03 -2.04321E+03  1.46653E+03
 -2.10597E+03 -3.15458E+03 -4.07971E+03  1.21950E+03  2.20057E+03 -3.23043E+03  5.37442E+03  1.33011E+03
 -1.98790E+03  1.19126E+03 -3.91371E+03  2.42233E+02  2.65939E+03 -8.35687E+02 -3.92408E+03  9.33396E+01
  2.70278E+02  3.05895E+03 -4.10064E+03  2.13721E+03 -1.84057E+03  3.19201E+03 -3.98458E+03  3.44593E+02
 -4.63669E+02  1.11186E+03  1.51609E+03 -1.11704E+03 -9.88225E+02  3.51792E+03  2.26051E+03 -2.03068E+03
  3.82170E+03 -6.59194E+02 -5.80150E+02  1.95489E+03  2.55399E+03 -1.74393E+01 -3.90454E+01 -2.84885E+03
 -7.36365E+02  2.49694E+03  2.15961E+03  1.42246E+03 -2.85484E+03 -4.00382E+03  6.59571E+02 -6.91965E+02
 -1.42941E+03 -6.90822E+02  3.62401E+03 -3.57993E+03  1.54773E+03  1.11939E+03  6.15567E+02 -2.23377E+03
  2.74712E+03 -1.08681E+03  1.85665E+03 -4.27272E+02 -2.92526E+03  2.02456E+03  1.93162E+03  5.86406E+02
  3.07545E+03 -2.03954E+03 -1.17552E+03 -1.80111E+03  1.41398E+03  6.91860E+02  2.95710E+03  3.73574E+03
  3.36277E+03  1.33704E+03 -2.78053E+03  1.10510E+03  1.23302E+03  1.53376E+03  1.66604E+03  3.05361E+03
 -6.04805E-01  1.20875E+03  5.66765E+02  3.86045E+03 -1.59869E+03  3.80745E+03  2.73040E+03  2.09938E+03
  2.62351E+03  5.19223E+02  1.11833E+03  6.74639E+03  3.28634E+03  4.85762E+02  2.09555E+03 -1.72682E+03
 -5.73335E+03 -3.22125E+03 -2.39770E+03 -3.21868E+03 -3.52975E+03 -3.45796E+03 -1.61709E+03  1.20820E+01
 -1.91751E+03 -2.58026E+03 -3.84229E+03 -1.57251E+03 -4.27641E+01 -1.96405E+03 -2.99626E+03  7.56750E+02
 -5.30192E+02  2.70575E+03 -9.68604E+02 -1.16520E+03 -1.69080E+03  1.93148E+01 -8.29908E+02  2.92738E+03
