 $NMID ID='MM_0lb_SNR50_20hz_g50_79.RAW', FMTDAT='(8E13.5)'
 TRAMP=1., VOLUME=1. $END
  3.06424E+05 -4.43490E+03  3.36180E+05  2.50318E+05  8.24885E+04  3.39544E+05 -1.33846E+05  2.52625E+05
 -1.87710E+05  7.90890E+04 -1.05071E+05 -2.90708E+04  2.63380E+03 -4.82529E+04  5.38546E+04  7.28651E+02
  3.53328E+04  5.16786E+04 -1.47158E+04  7.72840E+04 -5.88675E+04  6.15552E+04 -8.47557E+04  3.04190E+04
 -7.92399E+04 -1.07095E+04 -5.58856E+04 -4.91406E+04 -1.90669E+04 -6.91894E+04  2.55489E+04 -4.23280E+04
  3.90130E+04  2.98705E+03  1.36429E+04  4.42006E+04 -3.20658E+04  4.19199E+04 -6.62041E+04 -1.37615E+02
 -5.37951E+04 -5.74858E+04 -8.17271E+03 -7.63996E+04  3.05715E+04 -4.97371E+04  4.39149E+04 -1.87913E+04
  3.93486E+04  1.12269E+04  2.99692E+04  2.27095E+04  1.99233E+04  2.56731E+04 -4.24982E+03  2.80819E+04
 -1.95509E+04  1.16591E+04 -2.15836E+04 -1.01955E+03  3.50267E+03 -1.02297E+04  1.79982E+04  1.22494E+04
  7.84361E+03  3.19499E+04 -2.68127E+04  3.31914E+04 -6.07840E+04  6.16157E+02 -5.49629E+04 -4.11212E+04
 -1.05775E+04 -5.48122E+04  3.91864E+04 -4.48462E+04  5.36490E+04 -2.12423E+03  3.25033E+04  3.19102E+04
 -2.32715E+03  3.17659E+04 -3.05766E+04  1.22459E+04 -2.67115E+04 -4.88515E+03 -1.27640E+04 -8.81191E+03
 -7.97666E+03 -9.25768E+03 -5.19465E+02 -1.76787E+04  6.91816E+03 -2.17362E+04  1.51513E+04 -9.17296E+03
  1.17168E+04  5.61491E+03 -7.08997E+03  1.40885E+04 -2.02476E+04  1.53984E+03 -1.05808E+04 -3.06411E+04
  2.36284E+04 -3.86212E+04  3.93613E+04 -2.07466E+04  4.46716E+04  1.59593E+04  1.55962E+04  3.72031E+04
 -2.01479E+04  3.07181E+04 -2.34687E+04  1.12318E+03 -9.34349E+03 -3.03690E+04  1.71206E+04 -3.61009E+04
  3.76667E+04 -8.37796E+03  3.14716E+04  2.25659E+04  1.44623E+04  4.20277E+04 -7.42835E+03  4.26474E+04
 -2.83370E+04  3.26285E+04 -3.63092E+04  4.59513E+03 -4.02783E+04 -1.40557E+04 -1.84335E+04 -3.36746E+04
  4.87620E+03 -3.29839E+04  2.69747E+04 -1.60796E+04  2.58246E+04  1.09501E+04  4.89757E+03  1.87627E+04
 -1.35596E+04  7.97140E+03 -1.02217E+04 -9.55053E+03  9.51338E+03 -1.09827E+04  1.30381E+04  7.78683E+03
  1.40522E+04  2.11809E+04 -4.41543E+03  2.21147E+04 -2.29066E+04  6.97446E+03 -2.81449E+04 -6.16027E+03
 -1.54005E+04 -1.43554E+04 -7.18452E+03 -1.74977E+04  9.21475E+01 -1.75905E+04  1.40611E+04 -1.37759E+04
  1.62394E+04 -1.21909E+04  2.64640E+04 -3.66399E+03  2.00466E+04  1.60554E+04  6.22192E+03  2.96188E+04
 -1.35868E+04  2.47337E+04 -2.25506E+04  5.18014E+03 -1.86519E+04 -1.41230E+04 -3.48737E+03 -1.64673E+04
  7.54986E+03 -6.43003E+03 -2.86433E+03  4.36021E+03 -1.27441E+04  2.32579E+03 -1.61193E+04 -3.74636E+03
 -1.14553E+04 -1.40521E+04  4.78365E+03 -1.84888E+04  1.28605E+04 -1.15989E+04  1.55660E+04  3.00348E+02
  8.74697E+03  7.61907E+03 -2.13470E+03  1.37920E+04 -8.23387E+03  8.88364E+03 -1.77642E+04 -4.83997E+03
 -1.18670E+04 -1.05415E+04 -4.18714E+03 -2.03602E+04  8.98006E+03 -1.36286E+04  1.34350E+04 -6.57534E+03
  1.63016E+04  1.04849E+03  1.25851E+04  3.30662E+03  5.41548E+03  4.61012E+03  1.02409E+04  1.08775E+03
  9.25464E+03 -3.21968E+02  1.13731E+04  1.22306E+04  9.88942E+03  2.90419E+04 -5.09540E+03  2.06632E+04
 -1.61582E+04  1.93647E+04 -2.30392E+04  1.02866E+04 -2.03673E+04 -3.90508E+02 -1.79101E+04 -1.25030E+04
 -7.41451E+03 -1.70735E+04  5.91588E+03 -1.95349E+04  1.47712E+04 -1.46530E+04  1.50170E+04  2.71628E+03
  2.79990E+03  1.28164E+04 -6.44639E+03  7.44229E+03 -9.40394E+03  4.49457E+03 -1.23641E+04 -7.39133E+03
  1.96328E+03 -9.48062E+03  8.11720E+03 -9.75580E+03  1.00182E+04 -7.98380E+02 -1.54290E+03  4.67885E+03
 -8.54300E+03  2.57123E+03  3.26470E+03 -2.97935E+03 -1.87436E+03 -4.50157E+03  8.10495E+03 -1.07721E+04
  1.28747E+04 -3.50516E+03  7.76826E+03  2.21840E+03  1.24547E+04  9.40252E+03  3.93006E+03  1.43067E+04
 -1.28418E+03  1.49940E+04 -1.09602E+04  9.80337E+03 -9.61318E+03  5.01390E+03 -5.08617E+03 -4.72380E+02
 -1.62543E+03 -3.95684E+03 -3.96296E+03  4.93935E+03 -9.00015E+02  2.21379E+03 -2.60966E+03  1.98976E+03
 -7.27003E+03 -2.47015E+03 -1.12502E+04 -6.24165E+03 -4.76481E+03 -1.15738E+04  1.23494E+03 -1.04556E+04
  6.44496E+03 -1.96361E+03  3.62710E+03  7.38684E+03  2.08775E+03  3.17414E+03 -4.04623E+03 -2.15243E+02
 -2.19620E+03 -5.23632E+03 -9.59414E+02 -6.40708E+03  2.12950E+03 -5.90119E+03  1.05796E+04 -2.96899E+03
  1.11791E+04  1.84117E+03  8.95612E+03  5.20477E+03  2.10565E+03  8.15209E+03 -2.41737E+03  8.01689E+03
 -4.68435E+03  1.79913E+03 -6.93551E+03  2.34352E+03  4.51672E+03 -1.52021E+03  4.18182E+03  5.09873E+03
  3.79984E+03  7.18122E+03  2.31944E+03  9.56272E+03 -2.93586E+03  1.05084E+04 -6.54640E+03 -1.51270E+03
 -4.56361E+03 -3.08519E+03 -3.03942E+03 -8.85699E+03  4.05080E+03  3.43084E+03  1.44666E+03  3.37815E+03
 -1.08097E+03  2.23319E+03 -1.53320E+03  4.72028E+03 -4.87725E+03  7.94249E+02 -4.51791E+03 -1.75725E+03
 -6.02736E+03 -5.85833E+03 -8.53513E+02 -7.81910E+03  4.56841E+03 -4.43331E+03  8.93983E+03 -1.14878E+03
  5.15176E+03  3.68358E+03 -6.48603E+02  5.16984E+03 -4.61352E+03  4.77374E+03 -4.49528E+03  1.23799E+03
 -1.95594E+03 -1.68440E+03 -1.56685E+03 -3.37297E+03  3.28571E+03 -1.51167E+03 -1.60695E+03 -2.19275E+03
 -1.50007E+03 -4.22337E+03 -2.81976E+03 -5.28226E+02  2.68314E+02  6.42514E+02 -4.91623E+03 -2.36936E+03
  3.87237E+03 -2.71429E+03  4.85458E+03 -4.52592E+03  3.30437E+03  4.80226E+03  4.53765E+03  1.14182E+04
 -2.12576E+03  6.94963E+03 -5.25358E+03  8.68291E+03 -8.35570E+03  5.02900E+03 -6.96699E+03 -3.41656E+03
 -4.86450E+03 -7.94942E+03  2.81336E+03 -4.86915E+03  2.45789E+03 -3.85592E+03  1.52902E+02 -1.20318E+03
 -1.48925E+03 -2.33822E+03  1.16733E+03 -2.42335E+03  2.37107E+03 -2.56437E+03  3.59697E+03  3.87916E+03
  4.30983E+03  3.91526E+03 -4.90441E+02  4.44710E+03 -5.15114E+02  6.61269E+02 -5.80396E+03  4.30091E+02
 -3.67952E+03 -1.06866E+03  2.17376E+03 -3.70209E+03  6.56856E+02 -6.21670E+03  2.72836E+03 -1.96299E+03
  3.51498E+03 -2.89664E+03  6.78652E+03 -6.32468E+02  2.46206E+03 -4.34317E+02  2.84591E+03  2.86482E+03
 -2.72631E+03  6.18614E+03 -1.53299E+03  1.76931E+03 -3.36500E+03 -1.59885E+03 -2.89204E+02 -3.71064E+02
  4.53375E+03  3.71697E+03  1.09302E+03  4.44379E+03 -1.74420E+03 -4.59362E+03 -5.37039E+03 -3.30492E+03
 -3.73135E+02 -5.49727E+03 -4.27649E+03 -2.89941E+03  8.41598E+02 -3.65948E+03  4.89762E+03 -4.22680E+03
  2.85327E+03 -9.05973E+02  1.27929E+02  2.80819E+03 -5.73545E+03  3.05008E+03 -2.93287E+02  3.52995E+03
 -6.65492E+03  4.67604E+02 -2.52485E+03  8.16072E+02  8.14715E+02 -3.04585E+03  2.82366E+03 -1.66395E+03
  4.54801E+03 -2.26556E+03  6.47340E+02 -1.87878E+03  1.55814E+03  5.43857E+03 -1.48250E+03  2.46612E+03
  2.86863E+03  1.44335E+03  1.40213E+03 -8.04057E+02 -2.71134E+03  1.51418E+03  1.16397E+03 -1.26364E+03
 -1.59103E+03  4.86332E+02 -1.35795E+03  3.97701E+03 -2.55592E+03 -1.16460E+02 -5.29506E+03  6.66694E+01
 -3.24633E+03 -3.83624E+03  1.16790E+03 -1.66290E+03  1.43953E+02 -3.01291E+03  7.07575E+03  6.78290E+02
 -6.11067E+02  1.89398E+03 -1.48966E+03  2.07954E+03 -1.38632E+02 -1.27463E+03  2.46940E+03  2.36023E+03
  1.91171E+03 -3.33363E+03  3.77111E+03 -2.90727E+03  2.48288E+03 -3.38294E+03  3.98179E+03 -1.93084E+03
 -6.29283E+02 -1.33764E+03  1.57126E+03 -2.14115E+03  7.64514E+02  3.31577E+03  1.59427E+03 -9.03783E+01
 -4.88743E+03 -1.88547E+03  2.28107E+03  1.14070E+03  6.30519E+01  1.39553E+03  1.97767E+00  4.67047E+02
 -5.20706E+02  1.59235E+03 -3.76469E+03  8.08394E+02 -3.02219E+03  7.86363E+02  1.95894E+03  2.82507E+02
  8.34884E+02 -2.60427E+03  2.45656E+03  2.33809E+02  2.07842E+02 -2.50236E+03 -3.04044E+03  2.46105E+03
 -2.84666E+02  5.19772E+02 -3.29255E+03 -2.28565E+03  1.69902E+03 -1.10509E+03  1.94016E+03  3.63303E+02
  1.46080E+03 -1.22627E+03  1.26129E+03 -2.55207E+03 -2.12911E+02 -2.89365E+03 -1.20185E+03  1.28240E+03
 -2.62823E+03 -1.22369E+03  4.35335E+03  1.89356E+03  3.65189E+02  1.23805E+03  2.41345E+03 -4.88575E+02
 -7.28058E+02 -9.77739E+02  5.25158E+03 -7.54675E+02  6.13116E+03  6.49125E+02 -2.73119E+03  2.36265E+03
 -3.09539E+03 -1.84419E+03  3.59208E+02 -5.38924E+02 -2.45634E+03 -4.61392E+03 -5.19292E+01  1.45101E+03
  1.20005E+03 -1.76552E+03  1.81251E+03  3.48497E+03 -1.29107E+03  3.59457E+03  1.07370E+03  1.29139E+03
  2.15379E+03  5.70309E+02 -3.08941E+03  1.41439E+03 -4.09163E+02 -2.73909E+02 -1.51296E+03  1.54156E+03
 -2.04229E+03  5.10344E+03 -1.43111E+03 -9.02432E+02 -5.61915E+02  4.67923E+02 -1.39884E+03 -2.40532E+03
 -1.37568E+03  3.58175E+03 -2.13719E+02 -5.31563E+03  3.00710E+02 -2.17712E+03  3.27971E+02 -9.08968E+02
  2.07249E+03 -1.06502E+02 -3.01555E+03  1.38230E+03  1.19898E+03  2.92829E+03 -4.90078E+03  1.54406E+03
 -3.12270E+03 -4.52528E+02  2.16682E+02 -2.03196E+03 -4.19364E+03 -6.55746E+02  1.16194E+03 -3.06984E+03
  2.41189E+03  7.39603E+01  1.62966E+03 -1.36297E+03 -1.55757E+03  2.29419E+03  3.31218E+03  5.29073E+02
  4.12894E+03  1.08353E+03 -3.23881E+03  7.23694E+02  2.19447E+03  3.71513E+03 -4.53030E+03  1.98187E+03
 -3.39223E+03  3.61024E+03 -1.24970E+03  1.98146E+03  1.66596E+03  5.58578E+03 -1.44119E+03 -1.16341E+03
  6.56785E+02  5.88960E+02  7.50745E+02  1.59773E+03  8.32489E+02 -3.87812E+03 -1.22613E+03  3.70076E+01
  8.41133E+02  1.46365E+03  3.24742E+02 -2.21257E+03  2.90519E+03  6.16748E+02  2.53019E+03 -1.35603E+02
  1.36655E+02 -1.42344E+03 -1.79482E+03 -1.03342E+03 -1.96547E+03 -1.27350E+02  2.79067E+03  1.60877E+03
  2.53175E+03  1.98713E+03 -2.25114E+03  4.05385E+03  2.32323E+02 -3.63653E+03 -1.01171E+02  5.96095E+02
 -1.07646E+03  7.13130E+02  1.65037E+03  1.65996E+03  1.71131E+03 -1.70487E+03  4.77240E+02 -3.86666E+02
 -2.62058E+03 -3.40020E+03 -3.33680E+00  2.70610E+03  3.11118E+03  9.28279E+02 -3.38533E+03 -5.80950E+02
  1.25420E+03 -2.20734E+03 -2.63790E+03 -2.04687E+03  1.70119E+03  1.01919E+03 -7.23786E+02 -1.58175E+03
 -3.16378E+03  1.15042E+03 -1.50072E+03  3.49411E+03 -1.70754E+03  5.99512E+01  3.28151E+02  2.83167E+03
 -1.57756E+03  3.85268E+03  8.37393E+01 -1.90318E+03  4.41590E+02  2.84713E+03 -1.73953E+03  2.10549E+03
