 $NMID ID='MM_0lb_SNR50_11hz_g45_86.RAW', FMTDAT='(8E13.5)'
 TRAMP=1., VOLUME=1. $END
  3.11601E+05 -5.23531E+03  3.39791E+05  2.57619E+05  8.03658E+04  3.43058E+05 -1.33361E+05  2.54851E+05
 -1.89110E+05  8.22162E+04 -1.09954E+05 -3.41314E+04  1.69291E+03 -5.13657E+04  5.96695E+04 -2.38889E+03
  3.32793E+04  4.90016E+04 -1.74906E+04  7.30447E+04 -5.97726E+04  6.36728E+04 -8.68341E+04  3.38733E+04
 -8.14668E+04 -9.56114E+03 -5.74954E+04 -4.95603E+04 -1.34195E+04 -6.87560E+04  2.46049E+04 -4.56962E+04
  4.31447E+04  5.52558E+03  1.70104E+04  4.99616E+04 -3.11428E+04  5.49711E+04 -6.53815E+04  1.19141E+03
 -6.44369E+04 -5.38052E+04 -6.81936E+03 -8.32355E+04  3.33504E+04 -5.04253E+04  4.80281E+04 -1.82044E+04
  4.35932E+04  1.20768E+04  3.65917E+04  2.53310E+04  1.32554E+04  2.76776E+04 -4.58413E+03  3.21244E+04
 -2.18887E+04  1.43724E+04 -2.21134E+04 -3.49652E+03  5.63537E+03 -8.96681E+03  2.42694E+04  1.21951E+04
  9.19315E+03  3.77320E+04 -3.09674E+04  3.93672E+04 -6.58212E+04  5.18982E+03 -5.45404E+04 -4.50600E+04
 -1.49738E+04 -6.12638E+04  4.29268E+04 -4.66821E+04  6.65454E+04  2.38689E+02  2.96534E+04  3.69168E+04
 -1.83235E+03  3.73321E+04 -3.05741E+04  1.52290E+04 -3.25094E+04 -9.42976E+03 -2.18677E+04 -1.47790E+04
 -1.83505E+04 -1.74825E+04 -1.77751E+03 -2.02808E+04  9.50048E+03 -2.39523E+04  1.41716E+04 -1.28011E+04
  1.15522E+04  9.54743E+03 -5.62177E+03  9.48184E+03 -2.39973E+04 -3.00091E+03 -1.05547E+03 -3.51209E+04
  1.93257E+04 -4.71720E+04  5.17852E+04 -1.88192E+04  5.04720E+04  1.81048E+04  1.70226E+04  4.64487E+04
 -2.06138E+04  3.43286E+04 -2.86304E+04  5.70993E+03 -1.13846E+04 -3.11391E+04  2.41719E+04 -3.66454E+04
  4.27989E+04 -8.10230E+03  3.65631E+04  2.99019E+04  1.92095E+04  4.86408E+04 -1.75215E+03  5.06226E+04
 -3.58653E+04  3.73316E+04 -3.86519E+04  1.13341E+04 -4.52364E+04 -1.79007E+04 -2.29032E+04 -3.78741E+04
  3.61079E+03 -4.10598E+04  3.18266E+04 -1.45296E+04  3.04710E+04  7.99155E+03  9.95163E+03  1.80842E+04
 -7.90570E+03  1.20451E+04 -1.58093E+04 -7.73616E+03  6.35813E+03 -9.72117E+03  1.35944E+04  7.77144E+03
  1.87419E+04  2.23073E+04 -6.68531E+03  2.72069E+04 -2.44169E+04  1.48613E+04 -2.94553E+04 -7.74156E+03
 -2.36222E+04 -1.91129E+04 -9.06621E+03 -2.57971E+04  8.66464E+03 -2.45877E+04  1.53186E+04 -2.25707E+04
  2.91309E+04 -1.44545E+04  3.49560E+04 -1.34903E+03  3.16689E+04  2.03931E+04  1.11513E+04  3.68998E+04
 -1.60407E+04  3.15252E+04 -2.81642E+04  1.28209E+04 -1.94202E+04 -1.23970E+04 -6.25501E+03 -1.36651E+04
 -1.92080E+03  2.46215E+03 -5.20839E+03  8.08556E+03 -1.73790E+04  1.01882E+04 -1.67742E+04 -6.48640E+03
 -1.06163E+04 -1.75416E+04  9.74795E+03 -2.43031E+04  1.53141E+04 -2.06409E+04  1.87772E+04 -1.26719E+03
  1.54247E+04  1.58019E+04  1.26497E+03  2.22454E+04 -1.70929E+04  1.36734E+04 -2.20263E+04 -2.89719E+03
 -1.61153E+04 -1.59598E+04 -1.09939E+04 -2.12802E+04  1.19411E+04 -1.96956E+04  2.47315E+04 -6.16715E+03
  2.15370E+04 -1.79944E+03  1.54685E+04  1.70660E+03  8.78373E+03 -1.40993E+03  1.56801E+04 -6.86246E+03
  1.84385E+04  4.18854E+03  2.18652E+04  1.22502E+04  1.45173E+04  3.42847E+04 -9.81028E+02  4.29214E+04
 -1.85432E+04  3.57807E+04 -3.04640E+04  2.12386E+04 -4.00297E+04 -6.33233E+03 -3.12800E+04 -1.93578E+04
 -1.61554E+04 -3.30351E+04  1.55926E+04 -3.26587E+04  2.80941E+04 -1.21278E+04  2.46799E+04 -2.43809E+02
  8.56925E+03  1.72163E+04 -9.00472E+03  1.29870E+04 -1.53324E+04 -2.68725E+03 -1.78919E+04 -1.31380E+04
 -1.37488E+03 -1.54287E+04  8.11812E+03 -1.27481E+04  1.34187E+04 -4.28759E+02  5.52000E+03  1.14176E+04
 -1.25844E+04  2.43740E+03 -4.13966E+03 -7.78305E+02  1.96817E+03 -2.02483E+04  9.91329E+03 -2.37692E+04
  1.46244E+04 -1.05052E+04  2.10003E+04 -1.16546E+03  1.82306E+04  1.30967E+04  9.04889E+03  2.65388E+04
 -3.48118E+03  2.55928E+04 -1.10761E+04  1.48005E+04 -2.23745E+04  9.29081E+03 -1.14939E+04 -8.19566E+03
 -4.95506E+03 -7.39333E+03  7.30546E+02  8.42789E+01 -4.02510E+03 -3.19529E+03 -6.87728E+03  6.78443E+03
 -1.11171E+04  6.91381E+02 -1.32179E+04 -1.45605E+04 -1.48987E+03 -1.54828E+04  1.03000E+04 -1.66051E+04
  6.03341E+03  5.97132E+02  1.05210E+04  3.40129E+03  9.02609E+02  4.50839E+03 -7.01583E+03  1.26950E+03
 -8.15744E+03 -1.35666E+04  7.46952E+03 -1.17780E+04  4.71649E+03 -1.12457E+04  1.73255E+04 -7.42113E+03
  1.88812E+04  1.06854E+03  2.09900E+04  1.38288E+04  4.17773E+03  1.07227E+04 -1.09595E+04  1.40764E+04
 -7.63375E+03  1.92857E+03 -2.95167E+03 -9.72160E+02  2.52115E+03 -4.03660E+03  6.06226E+03  2.88369E+02
  5.03336E+03  2.82557E+03  1.15269E+02  8.32016E+03 -9.55406E+03  8.56901E+03 -1.73680E+04  3.93426E+03
 -1.25463E+03 -9.78371E+03 -1.05678E+04 -1.18015E+04  1.08057E+04 -6.44709E+03  1.20298E+04  1.09727E+03
  2.56426E+03 -3.36089E+03 -5.10561E+03  8.55735E+03 -8.41299E+03  4.67710E+03 -5.68132E+03 -5.60876E+03
 -7.86986E+03 -8.68190E+03  9.16644E+01 -8.20381E+03  8.05436E+03 -7.87008E+03  1.37288E+04 -1.97317E+02
  9.01015E+03  1.40600E+04 -5.71254E+03  1.34080E+04 -1.10578E+04 -2.96226E+03 -7.92562E+03  4.89191E+03
 -8.92130E+03 -8.88720E+02 -3.28901E+03 -7.16537E+03  5.18372E+03 -6.82643E+03  8.04249E+03 -3.66173E+03
  8.61591E+03  3.11744E+03 -5.39949E+03 -3.47749E+02  6.56708E+02  5.79866E+01  5.99327E+03 -6.02247E+03
  8.85652E+03 -3.96693E+03  9.95186E+03  3.48989E+03  1.31550E+04  8.66651E+03  9.94889E+03  1.60030E+04
 -3.82702E+03  1.84233E+04 -1.39136E+04  1.46480E+04 -1.64821E+04  1.74198E+03 -1.59105E+04 -8.49633E+03
 -9.20225E+03 -1.44925E+04 -7.43654E+03 -1.17678E+04  9.09031E+03 -1.94759E+03  3.25339E+03 -4.64169E+03
  1.47567E+03  6.50983E+03  3.82843E+02 -5.64609E+03  5.57745E+03 -2.29886E+03  1.12127E+04  1.92607E+03
  4.39755E+03  1.98947E+03  9.44622E+03  7.75963E+03 -4.25242E+02  1.14909E+04 -1.08175E+04  8.20848E+03
 -9.80825E+03 -6.19562E+02 -7.43453E+03 -5.07031E+03 -1.93497E+03 -7.66703E+03  1.31238E+04 -7.99114E+03
  1.74306E+04 -7.11511E+03  2.16265E+04  1.16536E+03  9.15667E+03  1.37916E+04  5.46321E+03  1.90060E+04
 -5.55796E+03  1.60644E+04 -1.58464E+03  5.30076E+03 -1.37475E+03 -8.06726E+03 -1.40183E+03  2.58735E+03
 -7.79555E+00  1.54415E+03 -2.54710E+03 -4.54931E+03 -1.03016E+03 -6.04269E+02 -6.71410E+03 -5.54134E+03
 -1.38508E+04 -1.12500E+04  6.24505E+02 -1.29647E+04  1.08664E+04 -8.44354E+03  7.07427E+03 -4.84392E+03
  1.42286E+04  3.41851E+03  4.44433E+03  5.25157E+03  2.39613E+03  7.84648E+03 -1.28754E+04  1.05583E+04
 -8.74826E+03  4.32606E+03 -8.10177E+03 -1.00860E+04 -5.25674E+03 -8.36957E+03  6.63962E+03 -1.06423E+04
  6.98741E+03 -5.27704E+03  5.15322E+03 -1.42077E+03  3.16943E+03  8.62700E+03  1.05061E+03  2.44094E+03
  3.69997E+03 -3.32501E+03  3.45029E+03  5.52024E+03  2.87726E+03  2.59337E+03  5.20249E+02  1.31290E+04
 -6.21733E+03  9.09601E+03 -9.32729E+03  8.52406E+03 -1.43058E+04  5.51294E+03 -1.13661E+04 -4.18963E+03
 -5.28356E+03 -1.48084E+04  1.18549E+03 -1.15513E+04  6.85949E+03 -1.02337E+04  1.42307E+04  2.43834E+03
  1.30607E+04  9.74735E+02  4.90007E+02  7.77526E+03 -7.87834E+03  2.19516E+03 -5.01696E+03  2.72796E+03
 -6.34058E+03 -8.71579E+03  5.39810E+03 -6.19790E+02  3.08812E+02 -4.81116E+03  9.96589E+03 -2.86629E+03
 -4.66729E+02  1.34482E+03 -1.05936E+03 -1.32274E+03  1.59951E+03  2.14381E+02  6.93269E+03  9.77286E+02
  2.11917E+03 -4.22397E+03 -1.20215E+03  3.60571E+02  2.60113E+03  1.08428E+04 -5.03956E+03  3.08297E+03
 -3.08197E+03  6.43682E+03 -5.59857E+03 -5.94532E+02 -4.87323E+03  2.06603E+03 -3.09299E+03 -5.45534E+03
  3.50768E+03 -6.60151E+03  1.67939E+03  2.08223E+03  3.35394E+01  2.97853E+03 -4.23699E+03  6.14244E+03
 -2.69317E+03  5.00083E+03  4.00685E+03 -5.18228E+02  2.51426E+03 -1.12565E+04  3.75904E+03 -2.04799E+03
  1.88374E+03 -3.67097E+03  6.21205E+03 -1.58891E+03  5.65218E+03  4.12798E+02 -7.22036E+02  3.57526E+03
  9.41760E+02 -1.10512E+03  2.23918E+03  6.41286E+02  6.19645E+03 -3.48097E+03  5.21221E+03 -4.51406E+03
  7.18506E+03  2.00458E+03  1.07308E+04  3.52632E+03  7.08327E+02  7.16063E+03 -1.57710E+03  2.42243E+03
 -4.11742E+03  5.70859E+02 -4.21333E+03  2.36674E+03 -4.10045E+03 -6.86918E+03  1.27060E+03 -5.52516E+03
  4.87897E+03  2.75020E+03  2.84692E+03 -1.26061E+03 -2.08247E+03  6.93994E+03 -1.47453E+03 -5.00655E+02
 -3.85316E+03  2.31715E+03 -2.53532E+03 -3.81615E+03 -1.45441E+03  6.04092E+02 -5.79289E+03  1.20855E+03
 -2.39415E+03  5.69913E+03 -1.26555E+03  3.41927E+03 -5.10842E+03 -6.28097E+02 -1.18698E+04 -5.28077E+03
 -7.04470E+02 -6.34975E+03 -8.57656E+02 -1.10447E+04  8.32780E+03 -7.65806E+03  1.51063E+04 -5.71569E+03
  1.08896E+04 -2.48287E+03  3.37411E+03  1.03438E+04 -1.60028E+03  9.62774E+03 -5.67424E+03  5.45815E+03
 -1.59745E+03 -5.43195E+02 -4.39525E+03 -5.29924E+03 -8.57111E+02  3.71253E+03 -9.80714E+02  9.95623E+02
 -1.54848E+03 -4.58723E+01  8.62490E+02 -4.68284E+02  3.07314E+03 -1.58221E+03 -3.34897E+03 -5.62325E+03
  1.26604E+03 -3.10762E+03  4.95387E+03  4.14346E+03  6.68363E+03  3.42555E+03  6.53975E+02  1.07364E+04
 -4.99113E+03  7.78540E+03 -3.56787E+03  5.47539E+03 -1.44712E+04 -8.37350E+02 -6.61833E+03 -7.40530E+03
 -6.37623E+02 -3.56971E+03  6.67551E+03 -8.64015E+03  5.37922E+03 -4.28022E+03  3.07980E+03 -2.63501E+03
 -1.49765E+02  8.99187E+03  7.18178E+02  6.44216E+03 -1.41170E+03  1.30832E+02  4.23090E+03  2.02077E+03
  2.45653E+03 -1.48615E+03  1.95689E+03 -1.10491E+03  4.89927E+03  2.46841E+03  1.75911E+02  8.05716E+03
 -4.08589E+03  4.68092E+03 -8.09620E+02  4.42441E+03 -2.80459E+03 -6.97360E+03  1.11096E+03 -5.37235E+03
  4.65760E+03 -5.47621E+03  9.60310E+03  2.99106E+01 -1.28286E+03  8.91939E+02  2.48109E+02  5.66657E+03
 -1.70245E+03  3.04328E+03  1.35701E+03 -8.25042E+02 -1.67095E+03  4.15950E+03 -1.61760E+03  2.06436E+03
 -3.79289E+03 -3.01296E+02 -1.60239E+03  4.82003E+03  2.93797E+03  5.03266E+03 -4.75679E+03 -3.72808E+03
 -4.62898E+03 -3.72870E+02 -9.23871E+02 -4.72281E+03  4.22262E+03 -4.70658E+03  6.85404E+03 -1.44934E+03
  2.70604E+03  1.53407E+03 -4.44512E+02  2.60096E+03 -4.88450E+02  5.43215E+03 -4.17490E+03  2.50853E+03
