 $NMID ID='MM_0lb_SNR50_15hz_g50_100.RAW', FMTDAT='(8E13.5)'
 TRAMP=1., VOLUME=1. $END
  3.12986E+05 -3.14695E+03  3.39694E+05  2.53580E+05  8.49954E+04  3.36298E+05 -1.38132E+05  2.51453E+05
 -1.87429E+05  8.20748E+04 -1.11459E+05 -3.38271E+04  4.38259E+03 -5.39812E+04  5.38660E+04  3.94841E+03
  3.76307E+04  4.91482E+04 -1.80901E+04  7.64982E+04 -5.51956E+04  6.41994E+04 -8.14564E+04  3.06114E+04
 -7.51386E+04 -9.07101E+03 -5.99283E+04 -5.21515E+04 -1.21577E+04 -7.10183E+04  2.74110E+04 -4.40339E+04
  3.97209E+04  1.83372E+03  1.49083E+04  4.84092E+04 -3.95448E+04  4.97581E+04 -6.48369E+04 -2.20748E+03
 -5.46487E+04 -5.63324E+04 -3.63329E+03 -7.66316E+04  3.12377E+04 -5.31600E+04  4.90461E+04 -1.86270E+04
  4.34795E+04  1.17649E+04  3.35885E+04  2.65935E+04  1.45980E+04  3.11007E+04 -6.82331E+03  2.82246E+04
 -1.97492E+04  1.09860E+04 -1.83406E+04 -8.79427E+03  9.12523E+03 -7.77561E+03  2.08606E+04  1.52310E+04
  9.62922E+03  3.08922E+04 -3.28086E+04  3.38758E+04 -6.09488E+04  2.94254E+03 -5.90809E+04 -4.06374E+04
 -1.16096E+04 -6.37761E+04  3.82150E+04 -4.23372E+04  5.59397E+04 -3.26028E+03  3.05090E+04  3.33060E+04
 -2.64967E+03  3.68370E+04 -2.88077E+04  1.26176E+04 -2.61985E+04 -7.05137E+03 -1.48193E+04 -1.01783E+04
 -1.11868E+04 -9.10834E+03 -1.47796E+03 -2.09384E+04  6.58309E+03 -2.73058E+04  1.46358E+04 -1.02427E+04
  1.12115E+04  3.55631E+03 -9.74783E+03  1.38756E+04 -2.24996E+04 -2.61943E+03 -9.10832E+03 -3.54553E+04
  2.28979E+04 -4.00975E+04  4.57976E+04 -2.40436E+04  4.35416E+04  2.03414E+04  1.70261E+04  3.99557E+04
 -2.09326E+04  3.44561E+04 -2.32163E+04  1.47795E+03 -1.13938E+04 -2.31995E+04  2.21849E+04 -4.39704E+04
  3.74797E+04 -7.43469E+03  3.01652E+04  2.30311E+04  1.71214E+04  4.82913E+04 -9.52483E+03  5.08756E+04
 -2.90802E+04  3.29353E+04 -4.38085E+04  1.43578E+04 -4.00361E+04 -1.30879E+04 -1.53145E+04 -3.79187E+04
  7.31093E+03 -3.85032E+04  3.06578E+04 -1.69273E+04  2.42644E+04  7.87882E+03  6.76659E+03  1.80454E+04
 -8.94967E+03  1.03862E+04 -1.10646E+04 -9.13199E+03  1.29952E+04 -9.82192E+03  1.72332E+04  3.74780E+03
  1.33973E+04  2.33584E+04 -3.82240E+03  2.69918E+04 -2.34448E+04  1.00240E+04 -2.81372E+04 -2.81977E+03
 -1.59491E+04 -1.80630E+04 -8.36922E+03 -1.70508E+04  9.86867E+03 -1.93231E+04  1.41740E+04 -1.45380E+04
  2.48077E+04 -1.14910E+04  3.14917E+04 -9.16506E+01  2.50277E+04  1.86376E+04  1.38551E+03  3.35087E+04
 -2.14885E+04  2.93553E+04 -2.81315E+04  7.95388E+03 -2.04454E+04 -1.23700E+04 -1.09785E+02 -1.37324E+04
  1.84648E+02 -2.95573E+03 -3.69926E+03  6.04410E+03 -1.53937E+04  9.53320E+03 -1.66726E+04 -3.86912E+03
 -8.86067E+03 -2.09561E+04  3.95498E+03 -2.22223E+04  1.80039E+04 -1.21148E+04  1.96941E+04 -7.63454E+02
  1.19203E+04  8.42900E+03 -3.62768E+03  1.56763E+04 -1.12614E+04  9.49855E+03 -1.35261E+04 -8.49263E+03
 -1.02610E+04 -1.43097E+04 -2.37718E+03 -2.34377E+04  9.46168E+03 -1.61853E+04  1.80877E+04 -1.05152E+04
  1.51336E+04 -1.03291E+03  1.31139E+04  9.93229E+02  5.22895E+03  1.41611E+03  9.41449E+03 -3.69982E+03
  1.51462E+04  3.76225E+03  1.91704E+04  1.68538E+04  1.26684E+04  2.88581E+04 -5.07776E+03  3.34585E+04
 -2.43590E+04  2.69007E+04 -3.37766E+04  1.44360E+04 -2.93272E+04 -2.64561E+03 -2.69072E+04 -1.86409E+04
 -1.11840E+04 -2.74072E+04  1.33256E+04 -2.14217E+04  1.72845E+04 -4.22496E+03  1.66405E+04  5.51166E+03
  1.06414E+04  1.25286E+04 -4.10815E+03  7.74718E+03 -1.76084E+04  1.64736E+03 -9.31742E+03 -1.46955E+04
  2.71511E+03 -1.26799E+04  7.49331E+03 -1.43262E+04  1.03928E+04  1.58682E+02  2.38817E+03  5.84003E+03
 -6.28552E+03  2.39387E+03 -6.50493E+03 -6.24150E+03 -2.93351E+03 -8.50418E+03  7.46048E+03 -1.73416E+04
  1.87917E+04 -4.18644E+03  1.29791E+04  6.06411E+03  1.44794E+04  8.87455E+03  8.03633E+03  2.71746E+04
 -3.32496E+03  2.22997E+04 -1.57905E+04  1.43625E+04 -1.21292E+04  4.31975E+03 -1.39675E+04  9.98216E+02
 -4.21815E+03 -1.11623E+04  1.29996E+03 -4.24198E+03  4.77196E+01  2.18219E+03 -7.96210E+03  3.34761E+03
 -1.09562E+04  2.34973E+03 -1.33300E+04 -6.12589E+03 -9.35017E+03 -9.65867E+03  7.52596E+03 -7.70895E+03
  1.09740E+04 -2.37843E+02  6.23513E+03  9.18345E+02  2.77846E+03  3.39625E+03 -7.03551E+03 -1.87544E+02
 -7.55737E+03 -6.21584E+03 -2.99390E+02 -8.95177E+03  3.18232E+03 -7.81950E+03  1.15785E+04 -5.91012E+03
  1.56661E+04  1.15095E+03  8.69378E+03  8.55525E+03 -1.17550E+03  1.11397E+04 -3.29956E+03  1.12642E+04
 -6.90435E+03  9.20277E+02 -8.90433E+03 -1.59217E+03  5.46085E+02 -6.83293E+03  6.19153E+03 -7.28306E+02
  5.46236E+03  4.59338E+03 -1.94222E+03  1.22408E+04 -7.86854E+03  9.93738E+03 -9.55549E+03  7.63652E+02
 -2.63623E+03 -4.27224E+03 -9.80436E+02 -9.60334E+03  1.24931E+04 -6.94519E+03 -1.10704E+03  2.70971E+02
 -3.46231E+03  8.38718E+03 -4.59123E+03  5.81715E+03 -5.01131E+03  5.26216E+03 -6.78692E+02 -1.70293E+03
 -4.59175E+03 -8.82526E+03 -1.63676E+03 -1.05002E+04  9.29030E+03 -8.33551E+03  1.01856E+04  1.47920E+03
  6.26467E+02  7.58276E+03 -7.57601E+02  1.37156E+04 -2.93741E+03  3.08080E+03 -7.49172E+03  1.23465E+03
 -5.10189E+03 -5.83170E+03 -1.65178E+03 -7.85720E+03  4.88062E+02 -1.04708E+04  2.34664E+03 -4.55046E+03
 -7.25718E+02  3.59176E+03  7.79267E+02 -4.04564E+03 -7.21456E+02  1.80311E+03  4.55618E+03 -3.97194E+03
  2.49134E+03 -8.07713E+02  7.83145E+03  1.44376E+03  1.28665E+04  5.60510E+03  4.48290E+03  1.33764E+04
 -4.00812E+03  1.38981E+04 -1.20139E+04  7.58264E+03 -1.24437E+04  2.59936E+03 -1.02968E+04 -4.48264E+03
 -3.55930E+03 -1.10206E+04  3.34422E+01 -6.25748E+03  3.78806E+03 -1.19149E+03 -3.78693E+03 -5.89925E+03
 -7.03675E+02 -3.00194E+03 -3.43244E+03 -4.43724E+03  2.99469E+03  1.45675E+03 -9.45389E+02  1.29652E+03
  5.69394E+03  6.99616E+03  1.29941E+03  8.05854E+03 -5.04295E+02  1.90004E+03 -4.26788E+03  2.60626E+03
 -8.16062E+03 -6.62780E+02 -4.41328E+03 -3.44611E+03  2.85021E+02 -7.57720E+03  6.20839E+03 -1.18060E+04
  6.57337E+03 -9.02743E+03  5.62641E+03  1.51656E+03  9.51456E+03  8.30642E+03 -1.13849E+03  8.84718E+03
 -3.00088E+03  1.05250E+04 -7.54284E+03  3.02386E+03 -3.32321E+03 -2.80438E+03  1.07831E+02 -8.90367E+02
 -3.69460E+03 -1.61562E+03 -4.42550E+03  3.07791E+02 -2.48046E+03  1.33683E+03 -4.65687E+03 -3.20302E+03
 -1.96947E+03 -1.07702E+04  5.86906E+03 -5.25745E+03  5.55987E+03 -4.08820E+03  3.49959E+03 -4.12228E+03
  7.19004E+03  4.58585E+03  6.18540E+02  5.17308E+03 -1.19250E+03  2.45091E+03 -5.25999E+03  6.35566E+03
 -8.01587E+03 -5.90847E+03 -3.51192E+03 -3.89581E+03 -2.12456E+03 -1.21689E+04  8.92821E+03 -7.38601E+03
  7.58758E+03  1.03233E+03  7.89021E+03 -1.18014E+03 -4.20019E+03  1.73487E+03 -4.96061E+02 -2.07984E+03
  2.96775E+03  3.95849E+03  4.37032E+03  7.48219E+03 -1.80275E+03  2.24038E+03  3.13739E+03  7.47586E+03
 -2.75713E+03  3.27343E+03 -1.53524E+03  7.72636E+03 -4.43030E+03 -1.09376E+03 -6.51922E+03 -2.61572E+03
 -3.90191E+03 -3.67127E+03 -7.50490E+02 -4.24137E+03  1.37345E+03 -8.36652E+02  5.62264E+03 -2.84444E+03
  4.05669E+03 -1.55351E+03 -1.65649E+03  2.31445E+03 -1.93443E+03  2.59634E+03 -5.27326E+03 -1.89558E+02
 -7.17514E+01 -1.40447E+03  9.56346E+02 -2.28549E+03  1.19653E+03  3.77775E+03  6.94401E+03  3.07055E+03
 -4.12691E+02 -7.75218E+02  5.81955E+02 -5.35074E+03 -2.78582E+03 -4.50263E+03  2.76574E+03  2.14188E+03
  4.35167E+03 -4.71638E+03  3.34731E+03  4.48777E+03 -1.09339E+03  4.53028E+03  2.97140E+03  2.11849E+03
 -1.45945E+03  3.21166E+02 -4.29333E+03  3.94941E+03 -3.66524E+03  1.41400E+03 -4.91567E+03 -5.98047E+03
 -1.65379E+03 -4.14160E+03 -1.41990E+03  4.13445E+03  3.40385E+03  8.30364E+03 -1.42982E+03 -1.81699E+03
 -1.65088E+03  1.51609E+03  1.12949E+03 -3.96523E+03  3.51080E+02 -8.62295E+03  8.81387E+02 -1.11583E+03
  6.09284E+03  8.14217E+02 -1.33364E+02  1.16137E+03  3.35870E+03 -1.37472E+03  8.21956E+02  5.59231E+02
 -4.57753E+03  7.12168E+03  4.74397E+03 -3.86900E+03  3.54581E+03 -1.75043E+03  5.72072E+03 -8.04201E+02
 -1.40660E+03  1.65528E+02  9.77001E+02  5.96449E+03  2.65953E+03  3.11976E+03 -2.35140E+03  9.52357E+03
 -3.22207E+03  5.32347E+03 -4.24667E+03 -2.51754E+03 -1.93185E+03 -6.01205E+03  2.25561E+03 -1.01804E+03
  2.94970E+03 -3.71491E+03  2.09826E+03 -8.65016E+02 -1.60236E+03  6.83484E+03  6.98433E+00  8.67932E+02
  3.37646E+03  5.00803E+03  1.74248E+03 -4.95325E+02  2.06680E+03  1.88596E+03 -1.83820E+03  6.81325E+02
 -1.20406E+03  2.67963E+03 -1.85509E+03 -6.81839E+02 -4.46177E+03  1.51194E+03  8.88658E+02  1.45994E+03
 -3.75347E+03 -3.01399E+03 -2.88389E+03 -5.38378E+03  2.62102E+03 -5.82458E+02  3.98246E+03 -1.35454E+03
  2.37524E+03 -1.19701E+03 -1.60597E+03  3.91088E+03  5.22015E+02  6.49066E+03  3.29028E+02  2.97821E+03
  2.71614E+02 -5.17256E+02  1.27139E+03 -4.00890E+03 -2.79860E+03 -1.15918E+02  4.60779E+02 -2.01646E+03
  1.85780E+03 -3.15194E+03 -1.30726E+03  7.36960E+03 -3.27543E+03  3.84000E+03 -1.00374E+03 -6.40837E+03
  6.07428E+02 -1.26856E+03  8.99855E+02 -8.86373E+02  2.20424E+03  2.76613E+01  1.97296E+03  3.83955E+03
 -2.10655E+03 -6.45807E+02 -8.21311E+02  4.25041E+03 -4.61103E+02 -7.78158E+02 -3.84905E+03 -5.69596E+03
  4.01036E+02 -1.41144E+03  7.80509E+02 -3.16634E+03 -7.13642E+02  4.32060E+02  6.44831E+02 -7.02811E+02
 -1.21420E+02  1.54626E+03 -1.51851E+03 -4.83372E+02 -1.47731E+03 -2.63851E+03 -2.32705E+03 -5.33637E+02
  1.35217E+03  2.36553E+03  2.78813E+03  8.72169E+02  4.68313E+01  2.59226E+03  1.76582E+03 -6.48359E+02
 -3.01480E+03  9.47825E+02  1.14133E+03  3.86160E+03 -2.61983E+03 -3.24135E+03 -1.72689E+03 -6.80839E+02
  1.16864E+03 -7.47497E+02  1.85361E+03 -3.75699E+03 -2.50973E+02  9.09128E+02  5.18543E+03  1.30444E+03
  4.56753E+03  5.62952E+02  1.75741E+02  4.49917E+03  6.46934E+03  3.60136E+03 -1.79489E+03 -3.30356E+03
 -3.01898E+03 -2.62447E+03  5.54733E+02  6.45984E+03  1.37437E+02  7.51115E+02 -6.51148E+02  2.52554E+03
  4.85729E+02 -2.35886E+03 -2.10364E+03  3.51008E+03  1.81247E+03 -2.86570E+03 -6.82753E+02  3.31590E+02
  2.65909E+03 -7.85936E+02  2.12477E+03  4.30817E+03 -5.62319E+02 -9.96035E+02 -7.03161E+03  1.97923E+03
