 $NMID ID='MM_0lb_SNR50_12hz_g60_94.RAW', FMTDAT='(8E13.5)'
 TRAMP=1., VOLUME=1. $END
  3.10806E+05  2.65422E+03  3.35747E+05  2.46850E+05  8.70636E+04  3.36772E+05 -1.32583E+05  2.51383E+05
 -1.93165E+05  7.84249E+04 -1.13818E+05 -2.98809E+04  4.84534E+02 -4.88573E+04  5.20410E+04 -5.82972E+03
  3.45139E+04  5.44865E+04 -1.88980E+04  7.67895E+04 -6.58355E+04  6.40193E+04 -8.97687E+04  3.67348E+04
 -8.02429E+04 -9.52125E+03 -5.90769E+04 -5.04439E+04 -1.11733E+04 -6.98968E+04  2.73425E+04 -4.49992E+04
  4.48010E+04 -9.71504E+02  1.44631E+04  4.75848E+04 -3.18442E+04  4.56927E+04 -6.84691E+04 -3.14653E+03
 -5.71998E+04 -6.22443E+04 -3.47858E+03 -8.15650E+04  3.56809E+04 -5.87560E+04  5.19277E+04 -1.54557E+04
  4.78340E+04  1.46891E+04  2.91239E+04  2.02608E+04  1.43891E+04  2.97173E+04 -5.70209E+03  3.34967E+04
 -2.48456E+04  1.26479E+04 -1.38208E+04 -6.84892E+03  2.63629E+03 -1.58733E+03  2.27627E+04  1.49521E+04
  5.82646E+03  4.29795E+04 -3.38498E+04  3.67954E+04 -6.24156E+04  3.94444E+03 -6.11585E+04 -4.10337E+04
 -2.14384E+04 -6.40833E+04  4.08511E+04 -4.42241E+04  5.64756E+04 -7.00094E+03  3.93790E+04  3.21719E+04
 -3.24817E+03  3.56743E+04 -3.25820E+04  1.88526E+04 -2.91193E+04 -1.27258E+04 -1.54995E+04 -1.17069E+04
 -7.89547E+03 -1.73037E+04  1.96576E+03 -1.49091E+04  8.38821E+03 -1.97202E+04  1.32348E+04 -1.22234E+04
  1.45717E+04  2.52000E+03 -5.98903E+03  1.87646E+04 -2.19695E+04 -6.17862E+03 -5.94649E+03 -3.88274E+04
  2.20491E+04 -5.09719E+04  4.82000E+04 -2.11017E+04  4.90128E+04  2.10294E+04  9.79180E+03  5.05128E+04
 -1.22698E+04  3.36272E+04 -2.75447E+04 -4.31221E+03 -8.42532E+03 -2.73542E+04  1.93085E+04 -2.99711E+04
  4.54283E+04 -9.21709E+03  3.69094E+04  1.96501E+04  2.20761E+04  4.74458E+04 -4.07801E+03  5.28523E+04
 -3.26809E+04  3.38542E+04 -5.20826E+04  1.18557E+04 -4.27365E+04 -1.98135E+04 -2.71992E+04 -3.96535E+04
  6.22532E+03 -3.96013E+04  2.86363E+04 -2.18849E+04  2.96049E+04  1.25260E+04  9.78476E+03  2.26531E+04
 -1.49218E+04  1.40566E+04 -1.38823E+04 -3.40390E+03  8.04259E+03 -1.40696E+04  2.10726E+04  6.61135E+03
  2.32510E+04  2.72077E+04 -2.77831E+03  2.67389E+04 -2.69028E+04  1.04255E+04 -3.19614E+04 -6.67860E+03
 -2.03861E+04 -2.03620E+04 -1.06911E+04 -2.53725E+04  3.94407E+03 -2.19412E+04  1.98216E+04 -1.70493E+04
  3.16743E+04 -1.11747E+04  3.11510E+04  8.31355E+03  2.38213E+04  2.42346E+04  1.32258E+03  3.92262E+04
 -1.69026E+04  2.61905E+04 -2.73631E+04  1.60184E+04 -1.72361E+04 -6.44641E+03 -5.38082E+03 -1.23527E+04
 -2.26253E+03  2.19922E+03 -5.78482E+03  1.05058E+04 -2.09712E+04 -6.33627E+02 -1.96102E+04 -1.00926E+04
 -9.27435E+03 -1.96486E+04  7.78584E+03 -3.18095E+04  1.96963E+04 -1.87857E+04  1.80291E+04 -4.68985E+03
  1.46138E+04  1.52822E+04  1.87822E+03  2.31218E+04 -1.67500E+04  7.34503E+03 -2.55236E+04 -4.24186E+03
 -1.17825E+04 -2.10740E+04 -4.12751E+03 -2.29529E+04  9.81819E+03 -2.67349E+04  2.23860E+04 -9.00467E+03
  2.32901E+04 -2.29563E+03  8.11496E+03  8.23053E+03  1.17579E+04  3.07055E+03  8.34440E+03 -2.55618E+03
  1.67780E+04  4.26437E+03  1.96908E+04  1.65709E+04  1.46254E+04  3.43044E+04 -5.12972E+03  4.76254E+04
 -2.72568E+04  3.46202E+04 -3.71069E+04  1.83263E+04 -3.75304E+04  2.42693E+02 -3.27878E+04 -2.52090E+04
 -1.07417E+04 -3.97611E+04  6.53734E+03 -2.78460E+04  2.26001E+04 -1.32372E+04  1.75042E+04  7.61333E+03
  5.78317E+03  1.87705E+04 -1.46242E+04  1.33845E+04 -2.11091E+04  5.29624E+03 -1.45773E+04 -1.26109E+04
  6.04897E+03 -2.02650E+04  6.49528E+03 -1.62100E+04  1.52210E+04 -8.00945E+03  3.09146E+03  9.82384E+03
 -4.52644E+03  2.42862E+03 -8.01319E+03 -8.10466E+03 -1.96845E+03 -1.05898E+04  1.27872E+04 -1.85196E+04
  2.32334E+04 -1.33063E+04  2.33981E+04  8.21250E+02  1.70951E+04  1.66539E+04  9.92897E+03  3.19030E+04
 -2.87109E+03  2.97657E+04 -1.68723E+04  2.04151E+04 -2.26868E+04  3.69055E+03 -1.38046E+04 -4.66108E+03
 -9.18863E+03 -2.02601E+03 -2.77382E+03 -6.76562E+02 -1.64397E+03 -8.50937E+02 -9.10480E+03  1.97577E+03
 -1.58256E+04 -8.77639E+02 -1.42187E+04 -1.31349E+04 -4.11452E+03 -1.38030E+04  7.30818E+03 -1.03865E+04
  1.20640E+04 -8.99833E+03  8.64876E+03  8.29644E+03 -7.20999E+02  7.03454E+03 -3.44774E+03 -1.61887E+03
 -1.45676E+03 -9.70095E+03 -5.31963E+03 -1.61261E+04  3.77154E+03 -1.24970E+04  1.60989E+04 -8.88667E+03
  2.63044E+04 -1.24076E+02  1.42181E+04  1.08111E+04  2.25955E+03  1.91546E+04 -1.49741E+04  1.02756E+04
 -1.10370E+04  1.16264E+04 -7.95602E+02 -3.00704E+03  2.66233E+03 -4.78858E+03  6.14915E+03  8.47641E+02
  1.05375E+04  1.05239E+04  1.63061E+03  8.14864E+03 -7.05643E+03  9.85732E+03 -1.46725E+04  1.33514E+03
 -9.58185E+03 -8.87381E+03 -7.93626E+02 -1.17129E+04  5.29882E+03 -6.39290E+03  9.42080E+03  1.24131E+03
  2.68066E+02  1.12000E+04 -9.35508E+03  1.02754E+04 -1.31261E+04  6.43331E+03 -1.16792E+04 -3.41985E+03
 -5.50650E+03 -1.28723E+04  4.14004E+03 -1.63996E+04  1.63583E+04 -1.06756E+04  1.33556E+04  1.20085E+03
  1.01948E+04  8.70334E+03  6.28995E+03  5.54541E+03 -9.42566E+03  8.75267E+03 -1.22951E+04 -8.84429E+01
 -1.13847E+04 -5.15773E+03 -2.22619E+03 -8.67654E+03  6.52534E+03 -5.75111E+03 -1.56378E+02  2.15145E+03
 -1.12306E+02  1.66021E+03 -2.43097E+03  3.07978E+03  2.84460E+03 -1.40985E+03  4.08454E+03 -8.55116E+03
 -6.11312E+02 -5.17840E+03  1.12707E+04  3.72007E+03  1.63631E+04  1.23272E+04  2.92798E+03  2.05683E+04
 -4.72459E+03  1.83136E+04 -1.70809E+04  1.38559E+04 -1.64409E+04 -1.99723E+02 -2.16167E+04 -1.00634E+04
 -7.96303E+03 -1.72683E+04 -1.00801E+03 -1.29637E+04  1.43509E+03 -5.40239E+03  3.19005E+03 -6.63759E+03
  4.72898E+03  1.14109E+03 -1.90273E+03  1.15794E+03  3.28492E+03 -8.06142E+03  6.66030E+03 -4.01537E+03
  7.91057E+03  5.44691E+03  4.25280E+03  1.06540E+04 -2.82952E+03  1.04838E+04 -1.20462E+04  2.49287E+03
 -9.36647E+03 -2.34732E+03 -6.55306E+03 -5.58285E+03 -5.81928E+02 -1.21857E+04  2.39002E+03 -8.74373E+03
  9.70352E+03 -9.13249E+03  1.42109E+04  3.18154E+01  1.03530E+04  9.20016E+03  3.20044E+03  1.52886E+04
 -2.29092E+03  9.69910E+03 -1.33443E+04  6.67267E+03 -1.71525E+03 -5.82524E+03  8.19699E+02  6.98605E+02
  1.07892E+03  1.78795E+03 -3.51253E+03  4.55802E+03 -3.97236E+03  7.79156E+02 -1.21714E+04  2.22783E+03
 -7.93657E+03 -3.68638E+03  1.07656E+03 -8.71852E+03  4.76422E+03 -5.40372E+03  9.98658E+03 -5.85681E+03
  7.37414E+03  5.76885E+03  9.73803E+03  1.35038E+04 -3.08795E+03  1.22968E+04 -1.32788E+04  9.03404E+03
 -9.03694E+03 -7.44580E+02 -9.08177E+03 -9.98873E+03 -1.23165E+03 -1.21731E+04  7.57685E+03 -5.16470E+03
  8.50094E+03  1.68525E+03  5.04395E+02 -2.27124E+03  3.08994E+02  2.48929E+02 -1.02620E+03 -9.99915E+02
  3.35543E+03 -2.97434E+03  3.18272E+03  2.95084E+03  3.32913E+03  3.84482E+03  2.98520E+03  7.99674E+03
 -6.18005E+02  1.59504E+04 -8.77204E+03  3.86706E+03 -1.11336E+04 -1.37498E+02 -1.17300E+04 -4.78549E+03
 -3.96162E+03 -1.17663E+04  3.11778E+03 -1.74103E+04  8.51275E+03 -8.12021E+03  1.10381E+04  2.58392E+03
  9.09129E+03  3.74411E+02  4.61890E+03  1.06160E+04  4.07955E+02  2.63706E+03  3.60059E+03 -2.08860E+03
 -2.93883E+03 -7.01340E+03  1.77569E+03 -5.37281E+03  6.28587E+03 -7.35657E+02  3.79996E+03  7.20035E+02
  1.84720E+03  1.43248E+02  2.09473E+03  6.46587E+02 -4.42898E+03  3.98892E+03 -6.01114E+02  4.51992E+03
 -5.02576E+00  1.99353E+03  4.45890E+03  1.86996E+03  9.56356E+02  9.84916E+03 -3.20568E+03  5.32268E+03
 -3.76764E+03  5.59301E+03 -6.70628E+03  3.15276E+03 -6.47377E+03  1.19788E+03 -5.50371E+03 -7.13209E+03
  1.82889E+03 -7.14480E+03  1.77255E+02 -1.01765E+03 -2.16504E+03  5.44831E+03  1.03038E+03  1.34331E+03
 -7.08788E+03  5.94996E+03 -5.28451E+03 -8.91597E+03 -1.34587E+03 -5.26052E+03 -6.10756E+03 -7.23270E+03
  1.10300E+03 -1.45716E+03  4.94270E+03  8.64133E+02  4.30027E+03  6.15781E+03  2.00998E+03 -6.38052E+02
 -2.39741E+03 -4.05995E+02 -2.95053E+03 -2.55377E+02 -4.18254E+03 -3.85309E+03  1.15951E+03 -6.14494E+03
  7.93539E+03 -2.08499E+03  2.83351E+03  2.99323E+03  2.35280E+03  4.75934E+03 -2.64253E+03  4.97383E+03
 -3.17082E+03  3.91962E+03 -5.85112E+03  3.85564E+03 -4.20929E+03 -4.10231E+03  4.12600E+03 -1.72496E+03
  5.61186E+03 -7.52226E+03  2.40954E+03 -4.14217E+03 -5.78538E+03  6.81635E+03 -4.58559E+02  3.90754E+03
 -2.01210E+03  4.79200E+03  1.07934E+03  2.68804E+03 -2.83746E+03  6.62530E+03 -8.20842E+02  4.94239E+03
 -7.05483E+03  6.84344E+02 -3.16296E+03  6.44697E+03 -1.20380E+04 -4.01306E+03 -3.25703E+03 -2.44169E+03
 -3.80393E+03 -8.53133E+03  5.14329E+03 -4.55548E+03  1.56349E+03 -7.71409E+03  6.27903E+03 -2.33365E+02
  1.18541E+04 -3.10916E+03  8.88844E+03  9.73757E+03 -2.11666E+03 -6.20475E+01  3.56585E+01  2.37406E+03
 -5.62425E+03 -2.04378E+03 -6.22564E+03 -2.40554E+03 -2.26542E+03  1.92833E+03  5.17034E+02 -4.58974E+02
 -7.46327E+03 -6.46715E+02 -1.41705E+03  1.87048E+03 -3.66452E+03  4.21291E+03 -5.30837E+03 -1.78496E+03
  1.46208E+02  2.17339E+03  3.75868E+03 -1.59802E+03  2.73193E+03  5.17209E+03  3.55406E+03  3.04946E+03
 -8.69603E+02  4.57250E+03 -4.34768E+03  3.93143E+03 -8.51267E+03  1.32253E+01 -6.31824E+03 -6.65831E+03
 -8.44472E+03 -6.32159E+03  4.84005E+03 -3.04853E+03  1.00015E+03  1.84591E+03  3.35694E+03 -2.87714E+03
  1.25932E+02  3.20020E+03  4.02222E+03  2.53658E+03  2.08224E+03  2.44018E+03  2.03362E+03 -1.14731E+03
  1.52164E+03 -4.65002E+03  1.35108E+03  2.83956E+03 -1.69234E+03  1.86461E+03  7.67356E+02  1.88566E+02
 -5.33639E+03  4.09827E+03 -5.74410E+03  5.02909E+03 -2.54601E+03 -8.24097E+03  8.05264E+01 -1.46060E+03
 -4.52020E+03 -1.71276E+03 -1.03868E+03 -4.51559E+03  1.41412E+03 -2.20247E+02  7.48217E+02  7.22909E+03
 -5.51293E+03  1.19813E+04 -7.80934E+02  1.45871E+03 -1.02321E+03 -1.15696E+03 -3.74221E+03 -9.29277E+02
  2.78961E+03  3.07555E+02  2.64511E+03  3.50194E+03 -3.92235E+03  2.59745E+03 -4.82270E+03  1.41896E+03
 -2.38467E+03 -1.55670E+03  1.53310E+03 -2.15312E+03  4.67357E+03  1.14501E+03 -1.45395E+03  2.37476E+03
  3.75161E+03 -1.35989E+03  1.16494E+03  3.99102E+03  3.36249E+03  4.35857E+03 -5.99042E+03  8.83315E+03
