 $NMID ID='MM_0lb_SNR50_19hz_g55_43.RAW', FMTDAT='(8E13.5)'
 TRAMP=1., VOLUME=1. $END
  3.11397E+05 -6.93762E+01  3.38748E+05  2.51850E+05  8.37024E+04  3.36385E+05 -1.30094E+05  2.53025E+05
 -1.89625E+05  8.05969E+04 -1.10199E+05 -3.26217E+04  4.38686E+03 -5.40126E+04  5.55549E+04  3.17239E+02
  3.48202E+04  5.50312E+04 -1.66562E+04  7.21767E+04 -5.94407E+04  6.23557E+04 -7.97695E+04  2.97481E+04
 -7.52009E+04 -1.36345E+04 -5.62034E+04 -5.11638E+04 -1.81022E+04 -6.76576E+04  2.51318E+04 -4.15359E+04
  4.27028E+04  3.17101E+03  1.18309E+04  4.94805E+04 -3.48216E+04  4.63382E+04 -6.62230E+04 -2.42209E+03
 -4.74297E+04 -5.58521E+04 -5.11274E+03 -7.46483E+04  3.74720E+04 -5.56748E+04  4.63939E+04 -1.66301E+04
  4.49865E+04  1.11485E+04  3.01972E+04  2.22779E+04  1.29575E+04  3.21086E+04 -6.86035E+03  2.62165E+04
 -2.32047E+04  1.41858E+04 -1.86480E+04 -6.95317E+03  1.12642E+03 -7.64766E+03  2.08773E+04  8.97644E+03
  7.04381E+03  3.87871E+04 -3.19899E+04  3.41493E+04 -6.22368E+04  6.68455E+03 -5.41507E+04 -4.17569E+04
 -1.24011E+04 -5.89076E+04  3.87577E+04 -4.72594E+04  5.76107E+04 -3.71581E+03  3.23621E+04  2.80736E+04
 -8.75300E+03  3.20398E+04 -2.91135E+04  1.15754E+04 -2.58654E+04 -6.47825E+03 -1.65557E+04 -8.82308E+03
 -5.88098E+03 -1.42505E+04 -1.07489E+03 -1.29667E+04  9.10063E+03 -2.31693E+04  1.51733E+04 -1.47531E+04
  8.50878E+03  6.50066E+02 -7.84771E+03  1.16757E+04 -1.64145E+04  4.00167E+03 -9.50437E+03 -3.50988E+04
  2.30761E+04 -4.23353E+04  4.21559E+04 -2.21619E+04  3.84722E+04  1.78395E+04  1.47723E+04  4.21013E+04
 -1.53096E+04  3.37815E+04 -2.67355E+04  1.37661E+03 -5.99566E+03 -3.01349E+04  2.06588E+04 -3.04484E+04
  3.46035E+04 -9.34780E+03  3.53492E+04  2.21063E+04  1.70901E+04  4.56932E+04 -8.41827E+03  4.31069E+04
 -2.80507E+04  2.99936E+04 -4.13096E+04  7.17061E+03 -3.58879E+04 -1.74865E+04 -1.84799E+04 -3.11129E+04
  9.97890E+03 -3.51500E+04  3.19701E+04 -1.41806E+04  3.12909E+04  1.56076E+04  3.51168E+03  1.79542E+04
 -1.69459E+04  1.05913E+04 -9.68960E+03 -4.37625E+03  6.97516E+03 -1.16997E+04  2.17760E+04  6.01014E+03
  1.24553E+04  2.35105E+04 -7.16117E+03  2.18944E+04 -2.40742E+04  1.42024E+04 -2.51966E+04 -9.12760E+03
 -1.77470E+04 -1.28262E+04 -8.26186E+03 -1.73715E+04  6.94519E+03 -1.30781E+04  1.50616E+04 -1.45131E+04
  2.10320E+04 -1.09321E+04  2.99143E+04  2.80099E+03  2.44661E+04  2.21578E+04  3.23201E+03  3.43566E+04
 -1.69465E+04  2.85975E+04 -2.53853E+04  1.13818E+04 -2.36178E+04 -1.18632E+04 -6.49885E+03 -1.30202E+04
  2.57431E+03 -6.23196E+03 -5.59813E+03  8.00850E+03 -1.27860E+04  4.04992E+03 -1.33250E+04 -5.05415E+03
 -5.76889E+03 -1.50051E+04  3.17966E+03 -1.61493E+04  1.30040E+04 -1.61160E+04  1.56457E+04  1.14628E+03
  6.73819E+03  1.10402E+04 -4.58460E+03  2.17771E+04 -1.09166E+04  1.22849E+04 -1.53823E+04 -4.21103E+03
 -1.08718E+04 -1.14392E+04 -3.09039E+03 -2.13754E+04  1.06844E+04 -1.76327E+04  1.74628E+04 -7.87722E+03
  1.35313E+04  2.05254E+03  9.40508E+03  4.97493E+03 -1.20957E+03  5.94401E+02  6.69585E+03 -6.24611E+02
  1.46484E+04  3.40171E+03  1.31943E+04  1.32095E+04  9.96341E+03  2.53296E+04 -3.42058E+03  2.59083E+04
 -1.60301E+04  1.79090E+04 -2.45066E+04  1.13929E+04 -2.50074E+04 -3.26047E+02 -1.65957E+04 -1.23322E+04
 -6.09165E+03 -1.95594E+04  3.12007E+03 -2.05284E+04  1.48186E+04 -8.04352E+03  1.70634E+04  1.99000E+03
  7.75639E+03  1.31453E+04 -7.12093E+03  1.12650E+04 -1.31513E+04  3.54453E+02 -1.05666E+04 -1.02246E+04
 -5.39480E+03 -1.32606E+04  4.46353E+03 -9.69896E+03  1.11846E+04 -8.03040E+02  1.50888E+03  6.82973E+03
 -4.21863E+03 -1.61785E+03 -3.61813E+03 -2.69826E+02  3.71245E+03 -9.94522E+03  7.96839E+03 -1.20872E+04
  1.29860E+04 -4.45619E+03  1.25477E+04  1.00355E+04  1.10896E+04  7.77586E+03  3.67412E+03  1.48835E+04
 -5.74131E+02  1.86571E+04 -6.91378E+03  1.11112E+04 -1.07444E+04  5.87669E+02 -9.94602E+03 -4.42936E+03
 -6.35857E+03 -3.87855E+03  2.51580E+03 -1.42757E+03 -4.09558E+03 -6.31910E+02 -6.70402E+03  3.18432E+03
 -6.49578E+03 -3.38158E+03 -4.13139E+03 -4.52152E+03 -3.63352E+03 -8.57822E+03 -1.77474E+03 -6.99416E+03
  1.04587E+04 -5.09145E+03  5.42441E+03 -1.81006E+03  5.82405E+03 -1.30454E+01 -4.63036E+03  1.79800E+03
 -5.13468E+03 -6.71079E+03 -2.37123E+03 -1.02397E+04  5.79549E+03 -6.66182E+03  1.39677E+04 -3.95390E+03
  5.31629E+03  2.84306E+03  7.76460E+03  5.44627E+03  1.27455E+03  7.17008E+03 -4.68552E+03  8.93147E+03
 -8.43372E+03  2.91634E+03  5.77528E+02  1.88451E+03  5.63133E+03 -1.85621E+03  8.95219E+03 -2.79524E+03
  6.35038E+03  5.44262E+03  2.10639E+03  6.68320E+03 -3.40518E+03  4.61656E+03 -5.58821E+03  2.57096E+03
 -6.85911E+03 -1.77591E+03  4.52636E+03 -7.74917E+03  3.90248E+03 -3.86407E+03  4.50745E+03 -2.21083E+03
  4.65091E+01 -1.35519E+03 -4.41500E+03  8.32983E+03 -5.99387E+03  1.61198E+03 -4.36989E+03  1.55900E+03
  1.68820E+03 -4.16223E+03  9.56215E+02 -8.50757E+03  7.48330E+03 -5.12379E+03  9.42029E+03  2.88974E+03
  3.85501E+03  4.78788E+03  2.64522E+02  7.54447E+03 -2.05156E+03  4.01625E+03 -2.12677E+03 -2.92476E+03
 -6.26954E+03 -8.27598E+03 -5.52368E+03 -9.89785E+02  1.21582E+03 -5.29065E+03  5.39602E+03 -3.26981E+03
  9.16995E+02 -7.52417E+02 -2.85360E+03  3.10181E+03  3.60119E+03 -9.11743E+02 -4.28902E+02 -3.33499E+03
  5.06862E+03  7.38489E+01  8.92699E+03  4.53156E+03  5.59816E+03  5.00407E+03  5.29172E+03  9.40220E+03
  1.20247E+03  5.06058E+03 -8.50240E+03  9.92690E+03 -9.26393E+03  1.91782E+03 -7.55616E+03 -3.40459E+03
 -8.87609E+03 -5.60054E+03  4.58503E+02 -1.46127E+03  4.83604E+03 -5.47914E+03  2.06024E+03 -3.70351E+03
  3.92332E+03  8.69579E+02  4.64958E+02 -4.94720E+03  8.40164E+03 -2.32088E+03  2.23993E+03  3.70764E+03
 -8.56388E+02  2.38873E+03  8.19609E+02  3.57038E+03  4.26200E+01  1.57020E+03 -8.48258E+03  3.28739E+03
 -7.25659E+03 -3.47624E+02 -1.01924E+03  7.54914E+02 -9.83655E+02 -6.80669E+03  5.02871E+03 -5.35583E+03
  3.45864E+03 -3.17625E+03  6.11126E+03 -2.59371E+03  6.49212E+03  3.45465E+03 -9.46881E+02  3.71663E+03
 -4.92034E+03  6.61246E+03 -1.56610E+03  3.87195E+03  1.13014E+03  2.20310E+03  1.33759E+02  2.68295E+03
  2.22847E+03  2.82892E+03  3.72183E+03  3.21266E+03 -5.61280E+03  3.75275E+02 -3.05557E+02 -3.90389E+02
  3.62192E+03 -7.89701E+03  1.27267E+03 -3.02435E+03  7.35714E+03 -3.12443E+03  4.30326E+03  3.58299E+02
  3.92401E+03  2.50907E+03  4.84747E+03  6.44019E+03  1.96583E+02  5.71161E+03 -9.30005E+02  3.70429E+03
 -4.02030E+03 -1.91230E+03 -1.90072E+03 -2.44993E+03 -2.18660E+03 -3.49244E+03  3.23495E+03 -2.37229E+03
  3.54578E+03 -1.80571E+03  1.89868E+03 -4.68404E+02 -2.89374E+03  4.22582E+03  6.16869E+02  1.70719E+03
  1.59192E+03  4.08178E+03  4.17298E+03  5.96674E+02  1.15643E+02  1.41684E+03  1.43022E+03  3.27437E+03
 -2.67429E+03  2.45786E+03 -1.81922E+03  4.59060E+03 -2.42157E+03 -5.29290E+03 -2.84873E+03 -3.45807E+03
 -3.51655E+03 -5.48831E+03 -5.74986E+02 -3.76977E+03  4.81953E+03 -2.87030E+03  3.78055E+03  3.42548E+02
  6.95198E+03  7.08907E+02 -1.04253E+03  2.04243E+03  1.62987E+03  3.20926E+03 -7.42617E+02  8.32242E+02
 -6.29613E+02 -3.05429E+03  4.48295E+03 -3.91788E+03  3.68250E+03  4.86801E+02 -1.86739E+03  1.77678E+03
  1.52735E+03 -1.21351E+01 -9.80432E+02  3.00921E+03 -2.30283E+03 -1.87562E+03  5.82760E+03  7.29838E+02
  1.83017E+03  2.74815E+03 -6.47058E+02 -4.13966E+03 -5.65480E+02  7.22604E+03  4.28246E+02  3.68262E+03
 -6.72613E+02  1.11147E+03 -1.61633E+03 -2.22548E+03 -3.60350E+03  5.10189E+02 -2.29385E+03 -3.02248E+03
  2.58267E+03 -2.00815E+03 -5.42623E+02 -1.97747E+03  1.72168E+03  2.56689E+03 -6.35256E+03  2.55047E+02
 -1.65779E+03 -1.70469E+02 -2.88137E+03 -1.98550E+03 -4.80408E+03 -2.26633E+03 -1.36398E+03 -2.44195E+03
 -1.85389E+03 -9.23521E+02 -9.07035E+01  1.13753E+03  1.44075E+03  4.50349E+02  2.95251E+03  1.70710E+03
  1.00149E+03 -1.53392E+03  3.11927E+03  1.73340E+03 -3.94195E+02  4.78562E+02 -3.08244E+02 -2.31155E+03
  2.58123E+03 -5.32965E+03  2.81662E+03 -2.22063E+03  1.98383E+03  4.09347E+02 -2.16723E+02  1.45195E+03
 -3.45925E+03 -2.58219E+03  1.00823E+02 -1.18591E+03 -4.19643E+03 -2.97022E+03 -3.69734E+03  2.18670E+03
 -5.60346E+02 -4.14440E+03  3.51395E+01 -5.04648E+03  1.13217E+03 -9.52591E+02  2.73833E+03  2.39159E+02
  2.02971E+02  1.63336E+03  1.98534E+03  2.31701E+03  1.82728E+03 -5.37993E+03 -2.15618E+03  2.10417E+03
  4.94829E+03  9.65154E+02 -2.86066E+03  2.10049E+03 -4.41427E+03 -1.22694E+03 -6.39068E+03 -2.26463E+03
 -3.70545E+03 -2.67972E+03  6.06927E+02 -4.13969E+03  5.36876E+02 -1.21505E+03  8.58265E+02 -4.77095E+02
 -9.56944E+02 -2.14722E+03 -1.49998E+03  3.36808E+03  6.28677E+02  4.87705E+02 -7.11987E+02  5.83712E+03
  6.15954E+02 -2.44176E+03  8.30784E+02 -2.79301E+03  2.36835E+03 -1.61542E+03  1.99483E+03  4.53144E+03
 -7.44676E+02 -2.96731E+03  3.56472E+03  5.05944E+03  1.97996E+03  4.45055E+02 -7.05795E+02  1.13996E+03
 -1.12867E+03 -5.22223E+02  1.91255E+03 -9.62555E+02  1.21060E+03  2.90663E+03 -2.97520E+03  2.29679E+03
 -1.88935E+03  2.00291E+03 -2.25954E+03  6.75832E+03 -3.50884E+03 -1.54207E+03 -4.56332E+03 -6.55189E+02
 -6.37748E+03 -1.40604E+03  1.97157E+02 -3.05152E+03 -4.05043E+02 -2.96758E+03  5.02783E+02  3.88387E+03
  3.32310E+03 -1.74403E+03 -3.57184E+03 -1.26745E+03 -1.29374E+03  5.18598E+03  8.52330E+01  8.61897E+02
 -5.88140E+02  4.34776E+03 -2.89614E+03  9.00651E+02 -7.30661E+02 -4.01396E+03 -8.65516E+02 -1.87527E+03
 -1.92065E+03 -2.26339E+03  2.51163E+03 -2.75849E+01 -9.55640E+02 -2.67726E+02 -1.04222E+03 -3.67715E+03
  1.24584E+03  2.40582E+03  1.20875E+02  2.95717E+03 -6.84476E+02 -1.47198E+03  2.17681E+02  9.72882E+02
  2.59567E+03 -1.84403E+02 -4.00851E+03  5.21860E+03  1.00724E+03 -1.03906E+03 -1.77270E+03  1.51375E+03
  2.68293E+03  9.18840E+02 -5.66874E+03 -3.72121E+03  9.99354E+02 -1.58897E+03 -3.65658E+03 -2.64050E+03
  1.55206E+03 -8.81558E+02  1.16318E+03  8.94168E+02  1.42036E+03 -4.68342E+03  2.84992E+03 -2.03290E+03
  1.59791E+02  1.52468E+03  4.79524E+01  2.27395E+01 -3.53158E+03  2.33473E+03 -2.45830E+03  3.04953E+03
