 $NMID ID='MM_0lb_SNR50_17hz_g60_89.RAW', FMTDAT='(8E13.5)'
 TRAMP=1., VOLUME=1. $END
  3.13223E+05  1.18854E+03  3.33805E+05  2.49118E+05  8.25755E+04  3.40252E+05 -1.34085E+05  2.51574E+05
 -1.88799E+05  8.18898E+04 -1.12850E+05 -3.18121E+04  1.01878E+03 -4.74667E+04  5.20824E+04 -4.44349E+03
  3.88379E+04  5.21935E+04 -2.01634E+04  7.82367E+04 -5.93656E+04  6.23916E+04 -8.23597E+04  3.45334E+04
 -8.17286E+04 -1.03532E+04 -5.99709E+04 -5.01153E+04 -1.24387E+04 -7.04506E+04  2.82112E+04 -4.39516E+04
  3.74010E+04  5.85469E+03  1.57158E+04  4.73231E+04 -3.54658E+04  4.74264E+04 -6.69526E+04 -4.02648E+03
 -5.59161E+04 -5.60906E+04 -3.97061E+03 -7.22146E+04  3.23097E+04 -5.53481E+04  4.75722E+04 -1.61908E+04
  4.11591E+04  8.51970E+03  3.41561E+04  2.37209E+04  1.73709E+04  3.04459E+04 -3.77980E+03  2.89702E+04
 -2.33322E+04  1.22494E+04 -1.87473E+04 -1.93965E+03  4.53874E+03 -6.74827E+03  2.09705E+04  1.18837E+04
  6.25007E+03  3.47497E+04 -3.43917E+04  3.67106E+04 -5.68619E+04 -8.76527E+02 -5.50803E+04 -3.63965E+04
 -1.16576E+04 -6.01788E+04  4.42578E+04 -4.49462E+04  5.91844E+04 -6.49852E+03  3.28561E+04  2.84847E+04
 -4.66230E+03  3.77936E+04 -2.96902E+04  1.63984E+04 -2.88920E+04 -7.65517E+03 -1.28208E+04 -1.01620E+04
 -9.48451E+03 -1.23174E+04  9.39734E+02 -1.71861E+04  5.22361E+03 -2.22754E+04  1.38806E+04 -1.49370E+04
  1.02470E+04  4.98652E+03 -4.93900E+03  1.03018E+04 -1.85726E+04 -6.03007E+03 -9.35612E+03 -3.75064E+04
  2.51542E+04 -4.66974E+04  4.71899E+04 -2.25825E+04  4.29059E+04  1.78452E+04  1.65899E+04  4.28575E+04
 -1.47965E+04  3.87710E+04 -2.47202E+04 -8.70230E+02 -9.84826E+03 -2.67734E+04  2.14409E+04 -3.39320E+04
  4.22537E+04 -9.17562E+03  3.45555E+04  2.22959E+04  1.72252E+04  4.26729E+04 -3.99409E+03  5.24021E+04
 -2.77470E+04  3.12220E+04 -3.95854E+04  9.72999E+03 -3.78783E+04 -1.54498E+04 -2.45029E+04 -3.60352E+04
  5.41597E+03 -3.67898E+04  3.20902E+04 -1.71888E+04  3.12028E+04  8.64497E+03  4.35635E+03  1.98613E+04
 -1.62164E+04  1.01109E+04 -7.85114E+03 -5.58261E+03  3.02940E+03 -7.62170E+03  1.66502E+04  2.09297E+03
  9.19499E+03  2.57719E+04 -4.10072E+03  2.49963E+04 -2.19957E+04  1.66916E+04 -3.04804E+04 -1.00743E+04
 -2.09093E+04 -1.41146E+04 -1.07462E+04 -1.75192E+04  3.25624E+03 -1.79476E+04  1.39741E+04 -1.42689E+04
  2.72675E+04 -1.01872E+04  3.35116E+04  1.97885E+03  2.16739E+04  1.69594E+04  1.45749E+03  3.81391E+04
 -1.65062E+04  3.18656E+04 -2.64431E+04  7.55843E+03 -2.52099E+04 -9.05953E+03 -4.81185E+03 -1.13948E+04
 -6.64298E+02 -6.50110E+03 -6.75845E+03  2.68510E+03 -1.50151E+04  6.03379E+03 -1.55226E+04 -8.37467E+03
 -1.06687E+04 -1.84997E+04  5.15849E+03 -2.24982E+04  1.54761E+04 -1.03084E+04  1.94430E+04 -1.11422E+03
  9.46029E+03  1.29154E+04  2.25367E+03  1.73602E+04 -1.18951E+04  6.70982E+03 -1.82853E+04 -1.31845E+03
 -1.39750E+04 -1.37059E+04 -1.36799E+02 -2.12823E+04  1.04529E+04 -1.62857E+04  2.12713E+04 -8.69060E+03
  1.77667E+04 -2.27512E+03  1.41091E+04  3.19851E+02  9.31964E+03  5.54004E+03  4.22925E+03  8.58683E+01
  1.57961E+04 -3.92753E+02  2.58439E+04  1.83932E+04  1.15132E+04  2.67686E+04 -3.70791E+03  3.03080E+04
 -1.94193E+04  2.36525E+04 -2.65918E+04  9.45057E+03 -3.23405E+04 -1.67085E+03 -2.64586E+04 -2.12213E+04
 -1.09331E+04 -3.04307E+04  9.93160E+03 -1.95144E+04  1.91498E+04 -7.52336E+03  1.81800E+04  5.99556E+03
  7.34893E+03  1.00602E+04 -8.07910E+03  1.22478E+04 -1.70219E+04  3.38300E+03 -6.12712E+03 -7.53796E+03
 -1.60202E+03 -1.44534E+04  7.42949E+03 -1.14367E+04  9.51874E+03  1.10352E+03  5.73732E+03  5.45149E+03
 -4.41148E+03 -1.96329E+03 -8.96345E+03 -5.43698E+03 -3.61283E+03 -8.34004E+03  1.01494E+04 -1.05110E+04
  1.14957E+04 -5.95040E+03  2.00647E+04  1.75667E+03  6.22363E+03  1.31307E+04  7.80903E+03  1.65439E+04
 -4.31966E+03  1.77520E+04 -1.54947E+04  1.34447E+04 -1.25171E+04  4.98214E+03 -2.98108E+03  8.17317E+02
 -7.20110E+03 -6.84518E+03 -1.14140E+03  5.64468E+03  9.61473E+02 -5.20729E+02 -4.22517E+03  3.78662E+03
 -8.61973E+03 -8.88146E+03 -8.02073E+03 -1.04805E+04 -3.88743E+03 -1.54874E+04  4.67135E+03 -1.17628E+04
  6.47145E+03 -2.52844E+03  4.00330E+03 -3.80043E+01  1.32933E+03  2.57636E+03  7.39183E+02 -2.90523E+01
  3.02902E+02 -9.54149E+03  9.40374E+02 -5.44863E+03  1.97636E+03 -1.26304E+04  1.15919E+04 -3.70443E+03
  1.59155E+04  2.15935E+02  1.38696E+04  6.53234E+03  4.68580E+03  8.96361E+03 -7.98476E+03  1.36632E+04
 -1.23312E+04  3.81802E+03 -2.55903E+03 -3.02555E+03  4.23537E+03 -3.99508E+03  9.22869E+03  3.17882E+03
  8.79879E+03  2.43184E+02 -2.78515E+02  6.90009E+03 -3.48912E+03  6.98957E+03 -2.78841E+03 -4.75440E+03
 -5.38066E+03 -5.34058E+03  4.00894E+03 -1.35386E+04  6.65610E+03 -1.82119E+03  6.25794E+02  2.90671E+03
 -1.50363E+03  3.59627E+03 -2.43127E+03  2.82484E+03 -7.59974E+03  6.39181E+03 -5.08606E+03 -2.55103E+02
 -2.55982E+02 -8.27327E+03  3.28826E+03 -8.03741E+03  4.97480E+03 -7.54362E+03  5.41024E+03 -9.81368E+02
  1.01365E+04  5.66156E+03  3.39211E+03  7.21361E+03 -5.07952E+03  5.10543E+03 -6.72038E+03 -1.50214E+03
 -5.12511E+03 -4.78863E+03  1.53527E+03 -3.74798E+03  3.31611E+03 -5.84917E+03  5.21375E+03 -2.60562E+03
 -1.12635E+03  4.07543E+03  2.19717E+03  6.62364E+02  5.20683E+02 -1.55671E+03 -6.51953E+01 -3.31146E+03
  7.34415E+03 -1.77740E+03  7.17454E+03 -2.20887E+03  7.56653E+03  2.69150E+02  8.40335E+03  9.25379E+03
 -3.93478E+03  9.26861E+03 -8.00274E+03  8.27012E+03 -1.18972E+04  7.57154E+02 -6.48793E+03 -3.56495E+03
 -5.84727E+03 -9.30861E+03 -3.72817E+01 -1.87998E+03  2.46039E+03  2.68422E+02  4.24148E+02 -5.34853E+02
  2.06989E+03  4.07651E+03  1.75681E+03 -1.76891E+03  1.44051E+03  4.18093E+03  5.26425E+03  2.33347E+03
  5.36360E+03  1.28081E+03  2.06447E+03  3.88197E+03 -1.12826E+03  4.48187E+03 -5.58138E+03  2.80766E+03
 -1.00532E+04 -6.30594E+03  1.08634E+02 -5.84895E+03  1.94398E+02 -4.49478E+03  5.62343E+03 -9.39519E+03
  3.22130E+03 -4.02936E+03  8.81646E+03 -2.14641E+03  3.64691E+03  7.58702E+03 -3.85889E+03  7.06316E+03
 -3.36719E+03  6.14537E+03 -1.53319E+03 -3.10303E+02  8.04644E+02 -1.42877E+03  1.65442E+03 -3.91933E+03
 -4.36923E+03 -3.12531E+03 -5.50937E+03  4.61711E+03 -3.87734E+03 -3.90939E+02 -3.94417E+03  2.07022E+03
 -7.78605E+03 -4.29091E+03  1.60252E+03 -2.43636E+03  2.62773E+03 -5.93708E+03  3.55596E+03  1.34032E+03
  8.45399E+03 -2.86912E+03  4.63861E+03 -1.36110E+03 -2.83666E+03  5.73210E+03 -2.81289E+03  5.03377E+03
 -4.92126E+03  2.22515E+03 -5.72072E+03 -3.46246E+03  1.65609E+03 -5.07163E+03  4.68197E+03 -5.80350E+03
 -5.12606E+02  4.44218E+02  2.64342E+03 -9.81014E+01  1.14318E+03  8.32078E+02 -3.37145E+03 -2.60115E+02
  9.70764E+02 -2.33290E+02  1.02166E+03  7.48374E+02  2.06135E+02  7.59193E+02  2.65144E+03 -1.31591E+02
 -2.15468E+03  4.14718E+03 -4.12146E+02  4.31280E+03 -1.01990E+04  1.17922E+03 -3.52509E+03 -3.15681E+03
 -2.47126E+03 -8.78121E+03  8.59044E+03 -8.13026E+03  7.38537E+03  1.82674E+03  3.12152E+03  1.86967E+03
  9.62561E+02  4.96663E+03  8.84202E+02  3.48807E+03 -3.22324E+03 -3.30189E+03 -1.07227E+03  2.15777E+03
 -1.11301E+03 -2.69987E+03  1.94793E+03 -4.52222E+03 -4.99114E+02 -9.74988E+02  3.00952E+03  4.93674E+02
 -1.08072E+03 -3.88560E+03 -9.57315E+02 -1.08299E+03  3.29820E+03 -1.09305E+03 -1.85066E+03  2.09511E+03
  2.16682E+03 -1.20705E+03  4.16178E+03 -1.60374E+03 -5.90645E+03  1.83110E+03  1.22134E+03  6.02354E+03
 -1.45377E+02  2.62078E+03  1.59680E+03  2.93831E+02 -6.32626E+03 -4.82499E+03  1.31004E+03 -6.70739E+03
  2.79190E+03 -1.51999E+03 -7.70511E+03 -4.79186E+02  7.82401E+01  2.83016E+03  2.69618E+03  4.10025E+03
 -2.28691E+03  5.25532E+02 -1.07213E+03 -1.69403E+03 -7.13014E+03 -2.28701E+03 -7.13654E+02 -3.54646E+03
  4.81251E+02  1.25695E+03  2.30970E+03  6.01301E+02 -1.41304E+03  1.50768E+03  1.37355E+03  3.01321E+03
 -9.29965E+02 -2.88719E+03  2.44095E+03 -8.96035E+02 -1.77036E+02 -5.36148E+03  1.29533E+03 -6.90486E+03
  2.46898E+03 -1.58479E+03  6.96065E+03  4.11230E+03 -8.65956E+02  4.37687E+03 -5.38238E+02 -3.80604E+03
 -3.95410E+03  2.80536E+03 -2.78224E+03  6.69356E+02 -5.74089E+03 -2.21434E+03 -7.83689E+02  3.46526E+03
 -2.54672E+03 -1.26240E+03  3.17672E+03 -2.32208E+02 -9.80667E+02  9.32500E+02  3.00092E+03  5.57719E+03
  1.72323E+03  3.16368E+01  1.76108E+02  2.99679E+03  2.29331E+03  3.88027E+03 -7.64324E+02 -5.57940E+00
 -1.19674E+03 -2.24000E+03  2.74616E+03  4.27838E+02  2.33949E+03  4.14087E+03 -1.50810E+03 -9.28217E+01
 -5.02947E+03 -3.66939E+03  4.84047E+03 -1.66384E+03 -7.47269E+02 -1.41498E+03  4.89286E+03 -2.65629E+03
 -2.31234E+02  8.31012E+02 -3.35583E+03  4.17984E+03  1.49213E+03  8.43948E+03  2.19431E+03  3.99260E+03
  1.10558E+03  2.04071E+03 -2.61511E+02 -3.79889E+02 -2.11538E+03 -3.15590E+03  8.06440E+01  8.87541E+01
  1.41210E+03 -6.58192E+02  2.46281E+03 -3.53773E+02 -2.27798E+03  1.10195E+03  2.12976E+03  3.79262E+03
  4.59229E+03 -7.03577E+03  3.06582E+03  2.01232E+03  5.43971E+02 -1.33654E+03  3.07209E+03  1.56305E+03
 -1.85463E+03  1.94208E+03  1.62618E+03 -4.41079E+03  2.75772E+02  3.63365E+02 -6.37855E+03 -2.45858E+03
 -2.93316E+03 -2.73875E+03  2.16343E+03 -2.98600E+03  3.54572E+03 -3.33290E+02 -5.35533E+02  1.10229E+02
 -3.77160E+02  6.41488E+02 -6.71442E+02  1.17581E+02  4.57145E+01 -1.42557E+03 -2.40112E+02 -2.26221E+01
  2.25854E+03 -1.29741E+03 -1.27677E+03  2.37428E+03 -1.88174E+03 -1.00648E+03  1.13177E+03  4.32106E+03
 -5.26617E+03 -1.13433E+03 -1.80738E+03 -3.14310E+03  4.49785E+03 -3.38590E+03 -6.00257E+03 -6.23498E+03
  6.39808E+03 -6.30978E+03  3.04829E+03  1.52279E+03  5.89673E+02 -4.32126E+03 -4.23829E+02  2.74185E+03
  8.21494E+03  2.89324E+03  1.44489E+03  5.88072E+03 -4.10157E+03 -4.16260E+03  6.94498E+02 -1.02357E+03
 -7.71037E+01  4.79920E+03  5.54054E+03 -1.00697E+03 -4.35100E+03  2.53526E+03  1.81653E+03 -1.14465E+03
  4.09084E+03 -7.00574E+03  9.57170E+02 -1.68999E+03  3.30942E+03  3.94177E+02 -5.62735E+02  6.24542E+03
 -2.50889E+02 -2.31259E+01  2.30593E+02 -4.11571E+03 -2.41169E+03  2.33559E+03 -1.69531E+03  4.17764E+03
