 $NMID ID='MM_0lb_SNR50_19hz_g40_88.RAW', FMTDAT='(8E13.5)'
 TRAMP=1., VOLUME=1. $END
  3.05783E+05 -1.92020E+03  3.36662E+05  2.49962E+05  8.56983E+04  3.37235E+05 -1.31986E+05  2.47641E+05
 -1.90014E+05  8.14352E+04 -1.11820E+05 -3.03006E+04 -2.69249E+03 -4.93354E+04  5.81332E+04 -4.46283E+03
  3.55396E+04  4.87265E+04 -1.41716E+04  7.25571E+04 -5.84616E+04  6.31032E+04 -8.31005E+04  3.43036E+04
 -7.99321E+04 -9.38107E+03 -5.53027E+04 -4.77249E+04 -1.19141E+04 -6.74890E+04  2.62733E+04 -4.46264E+04
  3.77800E+04  7.16401E+03  1.72109E+04  4.82925E+04 -3.03795E+04  4.74400E+04 -6.72759E+04  4.99562E+02
 -5.21497E+04 -5.31330E+04 -6.36671E+03 -7.58677E+04  3.69390E+04 -5.07042E+04  4.57793E+04 -1.73088E+04
  3.98498E+04  1.16615E+04  2.94043E+04  2.17569E+04  1.30695E+04  2.66046E+04 -2.00105E+03  2.45539E+04
 -2.05208E+04  1.06472E+04 -2.15822E+04 -5.78295E+03  4.96427E+03 -7.00846E+03  2.20100E+04  8.95888E+03
  6.45240E+03  2.70254E+04 -2.47533E+04  3.35061E+04 -6.38801E+04  2.90887E+03 -5.26186E+04 -3.87208E+04
 -1.01852E+04 -6.24295E+04  3.73705E+04 -4.57490E+04  6.10055E+04 -1.66729E+03  3.07648E+04  3.25916E+04
 -6.82565E+03  3.24721E+04 -2.74539E+04  1.28015E+04 -3.05619E+04 -8.87856E+03 -1.22944E+04 -6.31171E+03
 -1.32940E+04 -1.14049E+04 -3.68210E+03 -1.46449E+04  6.58234E+03 -2.34436E+04  1.59173E+04 -1.13893E+04
  1.21459E+04  2.93442E+03 -7.40242E+03  1.33305E+04 -1.71931E+04  2.68773E+03 -9.52320E+03 -3.17410E+04
  2.23174E+04 -3.62048E+04  4.38607E+04 -1.64402E+04  4.40423E+04  1.79514E+04  1.28530E+04  3.92746E+04
 -1.41137E+04  3.02764E+04 -2.19930E+04 -6.17316E+02 -1.04299E+04 -2.36113E+04  2.13753E+04 -3.05789E+04
  3.92027E+04 -8.34027E+03  2.90996E+04  2.31395E+04  1.17298E+04  3.94849E+04 -7.25621E+03  4.40828E+04
 -2.91799E+04  3.18979E+04 -3.70953E+04  6.79055E+03 -3.88894E+04 -1.26652E+04 -2.02669E+04 -3.15337E+04
  2.74632E+03 -3.46333E+04  2.94016E+04 -1.58353E+04  2.52917E+04  1.43842E+04  3.43875E+03  1.98550E+04
 -1.02388E+04  5.87891E+03 -1.11343E+04 -8.84813E+03  2.93950E+03 -1.12570E+04  1.64749E+04  3.14078E+03
  1.43834E+04  1.80059E+04 -1.89146E+03  2.28914E+04 -2.23853E+04  6.05868E+03 -2.26072E+04 -6.05751E+03
 -1.83329E+04 -1.54414E+04 -5.61173E+03 -1.26998E+04  6.44834E+03 -1.30015E+04  1.16764E+04 -1.59108E+04
  1.79300E+04 -9.56058E+03  2.71666E+04  3.04787E+03  1.98924E+04  1.56224E+04  4.52573E+03  3.14819E+04
 -1.49774E+04  2.36648E+04 -2.57180E+04  9.57102E+03 -1.80965E+04 -9.89001E+03 -8.28396E+02 -1.33501E+04
  2.37509E+03 -6.25494E+03 -9.23429E+02  2.56655E+03 -1.38512E+04  6.48193E+03 -1.33574E+04 -4.89436E+03
 -8.10060E+03 -1.22354E+04  7.76245E+03 -1.57304E+04  8.56081E+03 -1.04478E+04  1.64868E+04 -1.39946E+03
  5.03470E+03  6.53419E+03  5.44440E+02  1.70113E+04 -7.57539E+03  8.51474E+03 -1.62572E+04 -2.89822E+03
 -9.74477E+03 -1.53272E+04  1.98493E+02 -1.46227E+04  7.02268E+03 -1.74491E+04  1.59036E+04 -8.92155E+03
  1.13301E+04 -2.23953E+03  6.18511E+03  5.80934E+03  3.97715E+03  3.16198E+03  7.86542E+03 -4.04840E+03
  1.27929E+04  4.71310E+02  1.06499E+04  1.39612E+04  1.11408E+04  2.74294E+04 -4.94165E+03  2.55874E+04
 -1.06584E+04  2.19764E+04 -2.39194E+04  8.55478E+03 -2.55199E+04 -8.34592E+02 -2.10708E+04 -1.77391E+04
 -1.11751E+04 -1.89993E+04  7.36833E+03 -1.65310E+04  1.91949E+04 -1.02328E+04  1.12104E+04  4.37732E+03
  1.09148E+04  9.13623E+03 -7.81024E+03  8.06478E+03 -9.60677E+03  3.15597E+03 -1.08948E+04 -5.58167E+03
 -3.08098E+02 -1.08877E+04  7.47662E+03 -1.02320E+04  9.41768E+03 -1.13186E+03  3.69094E+02  1.60396E+02
 -9.92696E+03  1.37348E+03 -3.46549E+03 -1.09031E+03  6.62063E+02 -8.31831E+03  5.34088E+03 -6.08904E+03
  9.89995E+03 -5.00402E+03  1.05040E+04  4.32673E+03  1.23127E+04  1.06684E+04  5.52614E+03  1.08983E+04
  9.76266E+02  1.67530E+04 -9.91663E+03  1.05398E+04 -8.32612E+03  2.84314E+03 -7.02568E+03 -5.21604E+03
 -2.70137E+03 -6.26931E+03 -5.55763E+02  2.19568E+02 -2.79570E+02  2.26392E+03 -4.08316E+03  1.79252E+03
 -8.56019E+03 -8.22434E+02 -4.59918E+03 -1.13907E+04 -4.18944E+03 -1.31513E+04  2.11197E+03 -4.93910E+03
  8.88765E+03 -3.92350E+03  1.42439E+03 -6.55780E+02 -3.48846E+03  3.49754E+03 -5.65194E+03 -3.03950E+03
 -5.35795E+03 -6.93938E+03 -9.57122E+02 -7.45355E+03  3.68552E+03 -5.87706E+03  1.21649E+04 -1.56186E+03
  9.22210E+03 -4.76838E+01  5.93937E+03  2.68629E+03  2.63571E+03  7.45642E+03 -1.83621E+03  2.23853E+03
 -8.58763E+03  1.96079E+03 -7.21467E+03 -1.28726E+03  2.04416E+03 -5.10590E+02  1.59956E+03  1.77745E+03
  2.42098E+03  3.75879E+03  4.28657E+02  4.54066E+03 -6.12186E+03  3.32416E+03 -5.71933E+03  2.49418E+03
 -5.41294E+03 -3.19069E+03  2.91934E+03 -8.55654E+03  2.38162E+03 -1.85306E+03  5.17354E+03 -2.91349E+03
  1.23480E+03  3.16639E+03 -2.20889E+03  3.65711E+03 -6.21281E+03  3.03178E+03 -6.79398E+03  5.30559E+02
 -1.40610E+03 -5.39272E+03  4.48996E+03 -4.20008E+03  7.70874E+03 -7.22889E+03  3.29479E+03  3.87412E+03
  9.16329E+03  1.01918E+04  2.29753E+03  7.50616E+03 -5.73677E+03  4.25696E+03 -5.55014E+03  1.13883E+03
 -3.41843E+03 -4.14434E+03 -1.98233E+03 -6.09946E+03  4.83218E+03 -2.98440E+03 -3.32668E+02 -1.78359E+03
  3.60325E+03  6.78826E+02 -1.57749E+03 -2.49854E+02  3.28427E+03  4.31644E+02  1.92337E+03 -3.58190E+02
  4.18686E+03  1.15869E+03  4.04945E+03  1.23804E+03  1.62285E+03  1.89000E+03  8.19231E+03  6.79051E+03
 -7.05968E+02  8.28353E+03 -5.19790E+03  4.51286E+03 -1.11171E+04 -2.39777E+03 -5.51759E+03 -1.63771E+03
 -4.06257E+03 -6.49205E+03 -2.34512E+03 -3.62050E+03  3.65830E+03 -2.02511E+03  2.99195E+03  6.36227E+02
  3.35649E+03 -6.26395E+03  1.02850E+03 -4.95398E+03  6.37043E+03  2.02380E+03  3.28559E+03  2.87820E+03
  2.31909E+03  8.78851E+02  1.61958E+02  3.29350E+03 -5.04552E+03  2.38728E+03 -3.07034E+03  3.47435E+03
 -1.05189E+04 -2.54012E+03  2.07187E+03 -4.02845E+03  2.85564E+03 -2.27381E+03  1.91102E+03 -5.34070E+03
  6.98923E+03 -2.22729E+03  5.11842E+03 -2.42401E+02  1.49225E+03  3.20534E+03  2.85809E+03  8.99398E+03
 -2.60819E+03  6.80741E+03 -2.46615E+03 -2.06011E+02 -8.63428E+00 -8.70488E+02  3.08232E+02 -2.71791E+03
 -4.87862E+03  1.38035E+03  5.69365E+01  2.16697E+03 -2.04258E+03  4.33050E+03 -6.19145E+03 -2.62767E+02
  1.14202E+03 -6.54912E+03 -8.34975E+02 -7.29559E+03  1.04968E+03 -6.58637E+01  5.28188E+03  1.16206E+03
  2.77827E+03 -1.28627E+02  1.89503E+03  4.04553E+03 -3.41641E+03  2.94985E+03 -5.97396E+03  5.85755E+03
 -2.32907E+03  1.49495E+03 -5.43339E+03 -5.61511E+03  2.88936E+03 -4.81374E+03  5.62350E+03 -1.04489E+03
  3.51987E+03 -7.51061E+03 -2.64670E+02 -2.24601E+03 -2.87803E+03  1.01987E+03 -5.03899E+00  1.35929E+03
  2.72055E+03  2.08215E+01 -1.11538E+02  3.52525E+03  4.47027E+02 -2.92411E+03  1.65479E+03 -1.65478E+03
  2.75660E+02  1.04672E+03 -3.23444E+03 -4.92537E+02 -2.78445E+03  6.29674E+03 -7.23797E+03  9.38553E+02
  1.07705E+03 -1.21460E+03  7.77875E+02 -4.23066E+03  2.43775E+03  2.85661E+03 -1.36014E+03  7.65558E+02
  2.63726E+03  1.43903E+02  2.08869E+03  4.89292E+02  1.97370E+03 -1.70119E+03  3.07104E+03 -5.55224E+03
  2.38882E+03 -3.96553E+03  2.90759E+03  1.74427E+03  8.59007E+02 -2.43780E+03  2.72782E+03  2.55199E+03
  2.00470E+03 -3.34345E+01 -6.16429E+02 -2.07714E+02 -2.56224E+03 -2.39776E+03  2.29047E+03 -2.80163E+02
  5.14438E+02 -3.15342E+03  7.45044E+03 -8.71428E+02 -4.49305E+02  6.23526E+03  9.82993E+02  4.66202E+03
  2.59981E+03  4.13856E+03 -1.24024E+03 -2.19774E+03 -3.38571E+03  2.93803E+03 -1.68297E+03 -2.61809E+02
 -2.08726E+03 -1.62114E+03  1.08009E+02  1.83560E+03  2.33978E+03 -2.55013E+03 -2.76091E+03  1.61647E+03
 -1.95197E+03 -1.90836E+03 -5.71086E+02 -6.82038E+02 -1.72168E+03  1.66148E+03 -4.38221E+02 -3.46034E+03
  2.44118E+03 -7.30221E+02  3.89379E+03  3.08299E+03  2.40286E+03  3.91557E+02  1.28388E+03  2.46392E+03
  1.50246E+02  1.88610E+03  4.69582E+02  1.12714E+03 -7.71487E+02 -1.24270E+03  3.54884E+02 -1.26883E+03
 -2.58117E+03 -4.36985E+03  1.38817E+03  1.53235E+03  9.56450E+02  4.54681E+03  2.87645E+03  2.96225E+03
 -2.19141E+03  1.61415E+03 -1.40878E+03  2.02423E+03 -2.22578E+03  4.44416E+02 -2.94439E+03 -2.11442E+03
  2.68420E+03 -3.09685E+03  1.10378E+03  6.33889E+02 -2.44853E+03  1.03749E+02  3.00033E+03 -9.31502E+00
 -7.38793E+02 -2.80572E+03 -2.81420E+03  1.08273E+03  7.29089E+02  8.66936E+02  3.03778E+03 -2.29719E+03
 -1.52211E+03  1.67522E+03 -1.35258E+03 -2.45322E+03 -4.17096E+03 -2.53499E+03 -5.32292E+03 -1.51390E+03
 -2.84765E+03 -2.94102E+03  3.31283E+03  1.28523E+02  2.33806E+03 -2.61867E+03  2.23642E+03 -4.46308E+03
  2.74143E+03 -7.08896E+03  2.67381E+03  6.51897E+02  1.21435E+02  7.28165E+02  1.69374E+03  4.54094E+02
  2.78624E+03  4.51389E+02  1.60669E+02  2.99401E+03  1.90526E+03  6.62279E+02 -5.56048E+03  3.04371E+03
 -1.20432E+03  2.86963E+03 -2.69280E+03 -7.37094E+02  2.17535E+03 -1.22065E+03 -2.69262E+03 -1.01239E+03
  1.77563E+03 -3.74154E+03  2.84517E+03 -3.03142E+03 -6.77060E+00 -1.46548E+02  1.78510E+03  2.47069E+03
 -1.54078E+03  5.87460E+03  1.32952E+03  4.29407E+03  5.32857E+01  3.37381E+03 -1.13030E+03 -2.34508E+03
  8.68566E+02 -2.04806E+03  1.82273E+03 -3.97420E+03 -6.55791E+02  1.85291E+03 -5.14495E+03  3.59397E+03
  4.64406E+02  1.70583E+03  5.18946E+02  1.63855E+03  2.96485E+02 -4.77565E+02  1.96196E+03 -3.21971E+03
 -9.34846E+02  1.41869E+03  1.48817E+03 -1.04531E+03  7.24076E+02  2.64216E+03  1.95272E+03  8.24586E+02
  7.89157E+02  1.06863E+03  5.02156E+02 -4.95072E+03 -4.04601E+03  1.29068E+02  3.00374E+02 -6.48161E+02
  2.21080E+03 -3.27273E+03 -3.34202E+03  1.18719E+03 -1.58104E+03  2.60040E+03 -2.23112E+03  2.51891E+02
  4.91442E+03  6.97861E+02  1.73009E+02  1.10458E+03 -7.11609E+02  2.77513E+03  2.15662E+03  9.53631E+02
  1.67837E+03 -1.83837E+03 -2.62503E+01  2.76129E+03  2.99481E+03 -9.21321E+02 -5.00569E+03  4.73755E+02
 -4.27607E+03 -1.95942E+03  5.01735E+02 -4.26673E+01  4.13188E+03  8.42066E+02 -2.34623E+03  9.69165E+02
  9.40379E+02  2.23617E+03  2.31844E+03  5.06003E+03  3.00201E+03  2.13195E+02  2.23754E+03  2.04076E+02
