 $NMID ID='MM_0lb_SNR50_9hz_g40_72.RAW', FMTDAT='(8E13.5)'
 TRAMP=1., VOLUME=1. $END
  3.11826E+05 -2.19284E+03  3.36660E+05  2.52308E+05  8.29210E+04  3.31788E+05 -1.30578E+05  2.54922E+05
 -1.94779E+05  8.44030E+04 -1.11196E+05 -4.08116E+04 -6.94115E+02 -4.42492E+04  4.49653E+04 -8.27409E+02
  4.13693E+04  5.52471E+04 -1.88425E+04  7.65623E+04 -5.63663E+04  6.51733E+04 -8.39152E+04  3.22609E+04
 -8.24146E+04 -9.43010E+03 -6.03146E+04 -5.32052E+04 -1.85325E+04 -7.07954E+04  3.48504E+04 -4.22611E+04
  3.55903E+04  4.57911E+03  2.03529E+04  5.36510E+04 -3.99265E+04  5.29540E+04 -7.09832E+04 -3.39734E+03
 -5.52268E+04 -6.15694E+04 -7.03363E+03 -7.64917E+04  3.75051E+04 -5.15466E+04  4.20584E+04 -1.40372E+04
  4.27321E+04  1.05350E+04  3.01969E+04  2.76424E+04  1.85499E+04  2.96738E+04 -9.09329E+03  2.88608E+04
 -2.51541E+04  9.42941E+03 -1.53256E+04 -4.29688E+03  5.22399E+03 -1.35465E+04  2.02008E+04  1.42947E+04
  6.63407E+03  3.65124E+04 -3.00888E+04  3.32745E+04 -6.31640E+04  5.23160E+03 -6.37783E+04 -4.03700E+04
 -9.43665E+03 -6.49683E+04  4.12781E+04 -4.62234E+04  5.47946E+04 -5.16523E+03  3.37582E+04  4.35959E+04
 -6.02028E+03  4.10982E+04 -3.64903E+04  2.08160E+04 -3.52003E+04 -4.65422E+03 -2.21438E+04 -8.08742E+03
 -8.34753E+03 -1.78673E+04  1.89457E+03 -1.83638E+04  1.74951E+04 -2.53075E+04  1.41914E+04 -1.23182E+04
  6.04441E+03  5.12186E+03 -1.14804E+04  5.83194E+03 -2.19732E+04 -8.25420E+03 -1.54772E+04 -3.44365E+04
  2.41138E+04 -4.17043E+04  4.51154E+04 -2.38140E+04  4.43659E+04  1.93385E+04  2.09361E+04  4.83357E+04
 -1.37701E+04  3.42919E+04 -2.82871E+04 -1.41111E+03 -1.55474E+04 -3.16503E+04  1.63372E+04 -3.74072E+04
  4.47614E+04 -8.90326E+03  4.05832E+04  2.49861E+04  1.99361E+04  4.86369E+04 -1.00171E+04  5.67269E+04
 -3.35715E+04  3.46926E+04 -4.72671E+04  4.16309E+03 -4.42810E+04 -1.80699E+04 -1.94617E+04 -3.50961E+04
  1.10615E+04 -4.70897E+04  3.44346E+04 -1.81909E+04  3.76627E+04  1.49874E+04  5.19839E+03  2.00567E+04
 -1.32856E+04  1.20827E+04 -7.79828E+03 -1.31231E+04  5.44942E+03 -1.28048E+04  2.42510E+04  6.38158E+03
  9.76183E+03  2.10270E+04 -6.66357E+03  2.76521E+04 -2.65389E+04  1.06336E+04 -2.92148E+04 -8.33052E+03
 -2.34702E+04 -1.61006E+04 -9.10463E+03 -2.30774E+04  2.97531E+03 -2.13226E+04  1.47565E+04 -2.05580E+04
  3.47562E+04 -1.63932E+04  3.53248E+04 -3.02615E+03  2.49015E+04  2.49664E+04  5.28336E+03  3.71358E+04
 -1.61720E+04  3.17856E+04 -2.74421E+04  1.36752E+04 -1.93319E+04 -6.32762E+03 -7.31980E+03 -1.66711E+04
  4.99901E+03  2.70491E+01 -3.65346E+03  9.63547E+03 -1.24054E+04 -1.49038E+02 -1.49387E+04 -2.84563E+03
 -1.36773E+04 -2.37081E+04  4.83586E+03 -2.96754E+04  1.47956E+04 -1.62401E+04  2.42386E+04  1.10101E+03
  2.06823E+04  1.88352E+04 -1.60971E+03  2.31809E+04 -1.31385E+04  1.81552E+04 -1.84484E+04 -4.37732E+03
 -1.37772E+04 -2.13078E+04 -2.24293E+03 -2.20437E+04  1.50952E+04 -1.89400E+04  2.53706E+04 -1.68667E+04
  1.67477E+04  1.89279E+03  1.75533E+04  2.86219E+03  1.52200E+04 -5.82144E+02  1.38221E+04 -3.57665E+03
  2.15207E+04  2.45367E+03  1.95920E+04  1.70450E+04  7.80775E+03  3.48597E+04 -8.91771E+02  4.11936E+04
 -2.58856E+04  3.84713E+04 -4.09045E+04  1.92314E+04 -4.41277E+04  8.92760E+02 -4.16861E+04 -2.46933E+04
 -1.39470E+04 -3.54554E+04  1.31844E+04 -2.94808E+04  2.59883E+04 -1.53979E+04  2.08897E+04  7.31590E+03
  6.08134E+03  1.75375E+04 -1.00332E+04  1.16226E+04 -2.43561E+04  2.70059E+03 -2.00067E+04 -6.91748E+03
 -8.73842E+02 -1.61866E+04  9.58208E+03 -1.74725E+04  8.34373E+03 -1.60351E+03  4.58709E+03  5.81225E+03
 -1.32902E+04  9.90204E+03 -5.28314E+03 -7.96573E+02  2.58928E+03 -2.11882E+04  6.56713E+03 -2.54092E+04
  1.40799E+04 -1.03050E+04  3.37637E+04  2.92965E+03  1.74388E+04  2.20582E+04  5.06304E+03  2.37129E+04
 -6.56130E+03  2.87638E+04 -1.99179E+04  1.40474E+04 -3.31007E+04 -4.92742E+02 -1.14895E+04 -8.38643E+03
 -5.42056E+03 -9.93948E+03 -1.10001E+03 -2.64654E+03  5.77470E+03  2.52085E+03 -7.92907E+03  5.19580E+03
 -1.32932E+04 -6.21628E+03 -1.52083E+04 -6.80250E+03 -1.04754E+04 -2.91900E+04  4.81578E+03 -1.29119E+04
  1.17230E+04 -5.70511E+03  7.00870E+03  8.83119E+03  2.79175E+03  7.29379E+03 -5.75352E+03  1.65292E+03
 -8.47585E+03 -3.25905E+03 -1.03558E+03 -1.57474E+04  1.41173E+04 -1.16376E+04  2.37097E+04 -3.57474E+03
  1.69320E+04  1.42496E+03  1.79122E+04  1.43836E+04  3.29610E+03  1.21016E+04 -9.44216E+03  1.41625E+04
 -1.60245E+04  3.80045E+03 -6.45301E+03 -5.16850E+03  3.39471E+03 -6.71914E+03  7.73406E+03 -6.63618E+02
  7.82631E+03  6.32145E+03 -1.61737E+03  6.17313E+03 -9.39981E+03  8.80097E+03 -1.44539E+04  3.74987E+03
 -1.05608E+04 -1.02700E+04  2.73962E+03 -1.31387E+04  3.27866E+03 -7.42737E+03  7.17240E+03  3.53049E+03
  4.11928E+03  1.18372E+04 -7.20360E+03  7.91746E+03 -1.73262E+04  6.30159E+03 -1.09251E+04  4.28876E+03
 -1.08060E+04 -1.25560E+04  5.71760E+03 -1.56818E+04  1.95627E+04 -6.38069E+03  1.18289E+04  1.66207E+03
  1.25513E+04  1.64839E+04 -2.77807E+03  1.82113E+04 -8.76716E+03  6.28266E+03 -1.40773E+04 -8.24619E+03
 -5.24063E+03 -1.00569E+04 -6.55738E+01 -3.74542E+03 -1.15783E+03 -4.88615E+03  1.35597E+04 -1.32134E+04
  1.64930E+03  1.91406E+03 -4.41381E+03  1.80653E+03 -5.81561E+03 -3.12274E+03 -6.17654E+02 -7.26351E+03
  1.19367E+04  1.07214E+03  1.14116E+04  4.16961E+03  7.45550E+03  1.05115E+04  6.81308E+03  2.10051E+04
 -1.52110E+04  2.84189E+04 -1.89273E+04  2.06696E+04 -2.37814E+04 -1.82784E+03 -2.29769E+04 -1.00481E+04
 -6.65003E+03 -1.67520E+04 -3.24487E+03 -1.52059E+04  7.82665E+03 -7.33443E+03  2.28335E+03 -9.99428E+03
  5.93144E+03 -6.90469E+03  4.79732E+02  1.44781E+03  1.33361E+04  1.06640E+03  1.02461E+04 -1.51572E+03
  8.57152E+03 -1.56675E+03  1.12368E+04  4.99360E+03  2.51439E+03  1.01685E+04 -1.22555E+04  3.00605E+03
 -1.04811E+04 -1.83142E+03 -9.12830E+03 -1.45264E+04 -8.12773E+02 -1.90276E+04  8.34895E+03 -1.36420E+04
  1.53990E+04 -8.58675E+03  1.67721E+04  1.72314E+03  1.44676E+04  1.37321E+04  2.24446E+03  1.26518E+04
 -9.38867E+03  1.40655E+04 -9.03038E+03  6.98086E+03 -9.72535E+03 -4.88886E+03  1.37244E+03 -3.31658E+03
 -3.70873E+02 -6.53983E+02 -1.86936E+03  3.00246E+03 -5.51911E+03 -2.33969E+03 -1.08185E+04  2.29088E+03
 -7.92140E+03 -6.39752E+03 -2.00393E+03 -6.03658E+03  8.26151E+03 -1.43709E+04  1.25950E+04 -5.69285E+02
  1.31352E+04  4.28361E+03  7.63310E+03  1.05604E+04 -2.28720E+03  1.29501E+04 -7.61399E+03  1.24755E+04
 -1.43350E+04 -2.68708E+03 -8.88344E+03 -1.10900E+04 -4.12833E+02 -6.31625E+03  8.31494E+03 -1.03576E+04
  9.90037E+03  9.43768E+02  1.17646E+04 -5.14059E+01  4.88616E+02  9.99820E+03  4.47660E+03 -3.52285E+02
  1.97068E+03  3.22400E+02 -2.79605E+01  1.37447E+03  1.41971E+03  8.43870E+03  7.73690E+03  9.87939E+03
 -4.32607E+03  1.10285E+04 -6.13506E+03  9.12571E+03 -1.30976E+04  5.61352E+03 -1.55105E+04 -7.39030E+03
 -2.73637E+03 -1.77001E+04  6.58924E+03 -1.68849E+04  8.07603E+03 -1.24697E+04  1.13303E+04  9.12674E+02
  1.03188E+04  6.26198E+03  4.13267E+03  5.63118E+03 -2.14040E+03  5.48940E+03 -6.31814E+03  4.05533E+02
 -5.93198E+01 -5.96932E+03  6.76467E+03 -1.01576E+04  1.10204E+04 -3.38976E+02  2.50697E+03  5.47326E+03
  6.98896E+03  1.18997E+03  2.56526E+03  5.83842E+03 -1.93283E+03  3.11855E+02  1.03671E+03  2.47901E+02
  7.36427E+03 -1.17305E+03  7.66467E+03  5.40734E+03  8.00065E+03  5.29326E+03 -1.65045E+03  1.17400E+04
 -1.22808E+04  7.09033E+03 -3.58507E+03  9.97831E+02 -9.18865E+03 -1.30442E+03  8.34726E+02 -8.78957E+03
  1.98792E+03 -3.43064E+03 -9.15610E+02  8.38600E+01 -3.26462E+03  4.62245E+03 -6.66760E+02  2.40301E+02
 -5.21576E+03  3.33764E+03 -3.42141E+03  2.21695E+01  4.53689E+03 -9.57939E+03  3.70759E+03 -2.35315E+03
  9.31478E+03 -2.20561E+03  6.87315E+03  1.95607E+03  1.22752E+03  1.94557E+03  1.79623E+03  2.84684E+03
 -1.33114E+04  4.99365E+03 -9.08998E+02 -2.86643E+03 -5.73741E+02 -5.50670E+03  3.66796E+03 -2.50504E+03
  9.05345E+03  2.16151E+02  8.23409E+03  1.99104E+03  4.68760E+03  1.22440E+04  3.01747E+02  7.44744E+03
 -9.27742E+03  3.81974E+03 -6.97521E+03 -1.62047E+03 -3.92438E+03 -7.69021E+03  1.20147E+03 -5.77559E+03
  4.17181E+03  2.54178E+02  8.01720E+03  6.74335E+03  4.15095E+03  9.93345E+03  6.08193E+03  2.00170E+03
 -7.56767E+03  4.65539E+03 -3.17989E+03  3.04159E+03  1.13240E+03 -5.10073E+02 -7.40496E+03 -5.86631E+03
  8.95142E+02  2.29100E+03 -5.26604E+03  2.10104E+03 -3.42581E+03 -4.56286E+03 -7.64742E+03 -2.90415E+03
 -5.88707E+03 -1.49534E+04  1.84850E+03 -1.74416E+04  1.02077E+04 -1.06646E+04  1.39722E+04 -8.82273E+03
  1.36575E+04  7.64325E+03  2.05307E+03  1.59694E+04 -1.98713E+03  7.54613E+03 -5.01802E+03  1.36661E+04
  4.50344E+01  1.47161E+03 -3.28240E+03 -2.19518E+03  2.04105E+03 -4.42197E+03 -5.48668E+01 -2.10701E+03
  1.45875E+01  4.71442E+03 -1.60726E+03 -5.69194E+03 -4.67230E+03  4.97096E+03  4.76974E+03 -1.47565E+03
  7.50548E+03 -9.79687E+02  1.19861E+04 -3.76264E+03  1.07560E+04  4.11638E+03  6.32860E+03  7.70068E+03
 -8.40267E+03  1.27874E+04 -1.16860E+04  8.69590E+03 -1.30221E+04  4.05898E+03 -3.90046E+03 -7.33441E+03
 -3.87096E+03 -1.01612E+04 -3.84635E+03 -1.41063E+04  4.24904E+03 -2.00554E+03  6.75392E+03  6.56791E+03
  9.02465E+03  8.92241E+02 -1.60689E+03  4.00513E+03 -4.79630E+03 -3.19734E+03  1.49199E+03 -7.04280E+03
  2.39316E+03 -3.87770E+02  7.32855E+02 -3.29207E+02  4.87957E+02  2.47245E+03 -2.68322E+03  2.45498E+03
 -3.39535E+03  1.99829E+03 -6.69122E+03  5.90644E+03 -3.33173E+03  6.18812E+02  4.04020E+02 -2.79846E+03
  6.85555E+03 -7.58937E+03  1.79051E+03 -1.43310E+03  1.31834E+04 -1.91655E+03  5.46278E+03  1.07631E+04
  1.50555E+03  6.70989E+03 -6.59355E+03  3.35073E+03  2.27216E+02  1.54382E+03 -2.49811E+03  4.25455E+02
 -1.17953E+03 -5.78986E+03 -2.70441E+03 -6.92481E+02 -3.05451E+03 -3.45236E+03 -2.39940E+03 -1.53780E+03
 -4.79204E+03 -6.34781E+03  9.80034E+02 -1.21535E+04 -4.97669E+03 -5.34479E+03  4.02951E+03 -3.15672E+03
  4.56986E+03 -3.41946E+03  4.87369E+03  6.58041E+03 -1.67081E+03  6.59677E+03 -8.41202E+03  6.22125E+03
