 $NMID ID='MM_0lb_SNR50_20hz_g45_51.RAW', FMTDAT='(8E13.5)'
 TRAMP=1., VOLUME=1. $END
  3.07689E+05  1.79121E+03  3.35889E+05  2.49104E+05  8.24650E+04  3.37744E+05 -1.32504E+05  2.51909E+05
 -1.93019E+05  7.82819E+04 -1.10868E+05 -3.36301E+04  5.45966E+03 -4.88969E+04  5.03584E+04 -1.68535E+03
  3.65570E+04  5.37863E+04 -1.52631E+04  7.38893E+04 -6.34269E+04  6.03104E+04 -7.89231E+04  3.50672E+04
 -7.97852E+04 -1.17085E+04 -5.74485E+04 -5.23091E+04 -1.07780E+04 -7.13115E+04  2.35093E+04 -4.18777E+04
  3.95422E+04  2.87263E+02  1.67429E+04  4.78526E+04 -3.11726E+04  4.39724E+04 -6.17607E+04 -4.23834E+03
 -5.12861E+04 -5.66935E+04 -8.64203E+03 -7.77860E+04  3.44082E+04 -4.81755E+04  4.62478E+04 -1.84534E+04
  3.88627E+04  1.05979E+04  2.83134E+04  2.23452E+04  1.48066E+04  3.01417E+04 -1.32756E+03  3.05751E+04
 -2.31340E+04  8.83591E+03 -1.75593E+04 -1.55859E+03  5.80601E+03 -1.18740E+04  2.50677E+04  1.11921E+04
  4.74493E+03  2.77378E+04 -3.10291E+04  3.44129E+04 -6.09455E+04  3.07476E+03 -5.60278E+04 -4.18859E+04
 -9.77782E+03 -6.58614E+04  3.67474E+04 -4.02471E+04  5.37085E+04 -2.33971E+03  2.83304E+04  3.24543E+04
 -7.61042E+03  3.07136E+04 -2.82907E+04  1.51639E+04 -2.88719E+04 -5.74842E+03 -1.20112E+04 -1.29237E+04
 -7.17697E+03 -5.72509E+03 -2.62517E+03 -1.90602E+04  3.36028E+03 -1.89876E+04  1.56825E+04 -9.89546E+03
  1.28022E+04  5.18954E+03 -4.77980E+03  1.23359E+04 -2.20458E+04 -2.25937E+03 -9.82325E+03 -3.48828E+04
  1.86679E+04 -3.67694E+04  4.22498E+04 -1.68024E+04  3.86376E+04  1.79032E+04  1.13569E+04  3.89428E+04
 -1.58040E+04  2.80656E+04 -2.34650E+04 -2.75014E+03 -9.50513E+03 -2.83766E+04  1.88754E+04 -3.38949E+04
  3.48902E+04 -7.09744E+03  3.21585E+04  2.67957E+04  1.62585E+04  3.90170E+04 -8.19182E+03  4.41351E+04
 -3.15439E+04  2.84539E+04 -3.90856E+04  6.37509E+03 -3.34022E+04 -1.21906E+04 -1.97720E+04 -3.11451E+04
  5.38563E+03 -3.37098E+04  2.91036E+04 -8.49144E+03  2.88102E+04  1.06243E+04  2.45558E+03  1.57057E+04
 -1.19707E+04  4.47120E+03 -6.37636E+03 -1.03221E+04  8.00653E+03 -1.18689E+04  1.43993E+04  5.78827E+03
  1.13789E+04  2.13860E+04 -3.76257E+03  2.11581E+04 -1.71554E+04  1.16647E+04 -2.37097E+04 -7.60841E+03
 -1.06234E+04 -1.58453E+04 -4.83584E+03 -1.23204E+04  2.29871E+03 -1.25828E+04  1.10595E+04 -1.55349E+04
  1.85681E+04 -1.49314E+04  2.79377E+04  2.78649E+03  1.99653E+04  9.74505E+03  4.86109E+03  2.99274E+04
 -2.02958E+04  2.77520E+04 -2.17000E+04  8.77460E+03 -2.00498E+04 -8.23015E+03 -4.10713E+03 -1.75064E+04
  2.22375E+03 -5.50043E+03  1.00970E+03  9.27101E+03 -1.31511E+04  1.36580E+03 -1.36271E+04 -6.56452E+03
 -4.68300E+03 -1.32130E+04  2.77678E+03 -1.95021E+04  1.10147E+04 -1.39297E+04  1.12553E+04 -4.37290E+03
  6.89384E+03  1.03041E+04 -5.55633E+02  1.21371E+04 -9.31698E+03  9.64396E+03 -1.42962E+04 -3.74507E+03
 -9.90536E+03 -1.06487E+04 -2.81902E+03 -1.84338E+04  8.80891E+03 -1.40371E+04  1.54707E+04 -1.01029E+04
  1.07660E+04  2.53433E+03  1.07826E+04  5.31875E+03  1.88864E+03 -1.12324E+03  6.04317E+03 -8.70803E+02
  9.23566E+03  3.46318E+03  1.05831E+04  1.39710E+04  9.99464E+03  2.15521E+04 -1.58581E+03  2.45540E+04
 -1.44508E+04  2.08048E+04 -2.06418E+04  8.28210E+03 -2.45228E+04 -4.13843E+03 -1.39506E+04 -1.27981E+04
 -5.90544E+03 -1.12911E+04  4.64684E+03 -1.62126E+04  1.76636E+04 -8.39284E+03  1.50464E+04  2.22437E+03
  6.63651E+03  1.16402E+04 -1.07267E+04  6.58113E+03 -1.40484E+04  8.80852E+02 -7.93743E+03 -9.13898E+03
  2.81474E+03 -1.14099E+04  4.73353E+03 -2.65271E+03  2.29384E+03 -6.22458E+03 -1.37509E+03  4.36761E+03
 -5.17776E+03  2.95388E+03 -2.69078E+03 -5.35043E+03 -8.35528E+02 -1.27424E+04  8.15686E+03 -1.11365E+04
  9.63593E+03 -3.83351E+02  1.00618E+04 -2.45025E+02  9.67051E+03  9.66543E+03  6.27445E+03  1.00154E+04
 -1.24716E+02  1.39261E+04 -8.31412E+03  7.93144E+03 -9.72532E+03  3.00894E+03 -6.02800E+03 -3.60585E+03
 -2.97959E+03 -7.66247E+03 -1.26081E+03  5.40764E+02 -1.74546E+03  1.06906E+03 -2.64055E+03  1.44741E+02
 -8.12721E+03 -3.96486E+03 -6.42640E+03 -6.30331E+03 -4.43577E+03 -1.43084E+04  1.64309E+03 -5.13634E+03
  6.85136E+03 -2.26419E+03  6.92690E+03  2.66748E+03  3.53667E+03  3.91205E+03  1.10558E+03 -3.52659E+03
 -6.39731E+03 -2.31117E+03 -2.21261E+03 -1.05010E+04  1.38670E+03 -9.35162E+03  5.29599E+03 -2.59253E+03
  1.23455E+04  1.02281E+03  2.54800E+03  5.44216E+03  2.43851E+03  8.92333E+03 -7.18689E+03  1.00869E+04
 -1.02565E+04  2.96149E+03 -3.46468E+03 -3.96835E+03  1.00525E+02 -2.68892E+03  3.84231E+03 -1.43896E+03
  6.16352E+03  4.77755E+02 -5.60493E+02  8.67190E+03 -6.65348E+03  2.19396E+03 -9.00739E+03  3.66159E+02
 -2.83757E+03 -7.06718E+03  1.33290E+03 -7.62018E+03  1.16477E+01 -6.66487E+02 -3.01832E+02  1.07078E+03
 -1.04908E+02  1.52133E+03 -3.35344E+03  2.57696E+03 -2.63597E+03  1.22174E+03 -4.09075E+03  8.29241E+02
 -2.79711E+03 -6.40918E+03 -3.04551E+02 -4.39365E+03  4.14808E+03 -2.29395E+03  7.18953E+03 -3.66656E+03
 -2.31911E+03  6.20969E+03  1.97327E+03  6.38622E+03 -3.02682E+03  6.76764E+02 -6.14795E+03  1.82617E+02
 -2.21155E+03 -3.82305E+02 -4.39908E+03 -8.49778E+03  2.00160E+03 -5.35038E+03  1.08334E+03 -3.07790E+03
  5.50312E+03  2.09638E+02  2.98393E+03 -1.69477E+03 -1.07991E+02 -9.57661E+02  3.05070E+03 -1.01423E+03
  3.27948E+03  2.64952E+03  3.50065E+03 -7.96878E+02  5.61431E+03  5.77848E+03  4.07273E+03  5.58172E+03
 -1.99728E+03  5.12671E+03 -7.29829E+03  5.79137E+03 -7.66209E+03 -4.62365E+02 -7.78080E+03 -1.17446E+03
 -2.07264E+03 -8.67347E+03 -1.89582E+03 -4.54406E+03  6.61063E+03 -5.22032E+03  3.50716E+02 -3.97384E+03
 -5.05398E+03 -6.88274E+02  4.26768E+03 -1.36963E+03  7.21951E+03  1.71017E+03  3.30213E+03  1.12174E+03
  4.65909E+03 -1.45240E+03  3.01341E+03  3.35379E+03  2.04973E+03  4.66981E+03 -4.69024E+03  1.16054E+02
 -5.23200E+03  9.06074E+02 -2.81649E+03 -1.00763E+03  1.18243E+03 -3.94302E+03  8.44432E+02 -2.46102E+03
  2.56468E+03 -3.71121E+03  7.33307E+03 -2.92811E+03  9.53322E+02  2.94604E+03  9.35883E+02  1.78616E+03
 -3.21106E+03  4.87436E+03 -2.36726E+03 -2.99290E+03 -1.34895E+03 -2.08017E+03  6.39251E+02 -5.30098E+03
 -1.65776E+03  2.30596E+03 -4.14332E+03  1.45924E+03 -1.69472E+03  2.72513E+03 -2.65958E+03  2.25066E+01
  5.05826E+03 -2.82350E+03  3.19507E+03 -5.43500E+03  3.45497E+03 -4.89734E+03  2.80730E+03 -2.32995E+03
 -1.10898E+03  5.45239E+02  2.49844E+03  8.76419E+02 -1.77879E+03  1.58152E+03 -8.33939E+03  1.90384E+03
  3.57044E+03  3.54790E+02 -2.07014E+03 -2.16786E+03 -3.78905E+03  1.92343E+03  1.48391E+03 -2.97015E+03
  4.84130E+03  1.04418E+03 -2.01795E+03 -1.36630E+03  3.59506E+03  1.63829E+03  1.26174E+02 -4.77782E+02
  2.92702E+03  2.22359E+03  2.84143E+03 -1.15031E+02  2.35213E+03 -9.32451E+01 -2.89893E+03  6.36819E+03
 -9.52549E+02  4.79943E+03 -8.65860E+02  3.15739E+03 -2.88301E+03  4.38485E+03 -1.90012E+03 -8.59079E+02
  3.08901E+03 -1.02933E+03  1.21460E+03 -8.11930E+03  1.77409E+03  7.44106E+02  5.47532E+03 -2.26975E+02
 -2.76288E+02  1.41374E+03 -2.06235E+02  6.46652E+03 -2.01631E+02  2.33714E+03  2.29274E+03  1.44907E+03
  1.57261E+03 -1.88958E+03 -2.67954E+03 -1.10211E+03  3.81058E+01 -3.22667E+03  5.47011E+02 -4.57904E+03
  2.69206E+03 -5.42953E+02  3.33913E+03  1.72719E+03  1.42868E+03 -2.87597E+03  3.25790E+03  7.54530E+02
 -1.93568E+03  3.37908E+03  1.63638E+03  2.18493E+03 -2.33020E+03  4.39897E+03 -1.43585E+03  4.58258E+03
 -1.04103E+03  3.47190E+02 -3.35535E+03 -1.11985E+03 -1.34923E+03 -2.01085E+03 -6.77293E+02  2.03407E+03
 -3.02006E+02 -2.94139E+03  4.77057E+03 -1.70399E+03  3.07772E+03  1.48628E+03  2.55147E+02 -1.96428E+03
 -1.90554E+03 -2.16001E+03 -4.21136E+02 -1.83241E+03  2.27533E+03  3.36690E+03 -8.25467E+02  2.39342E+02
  1.75054E+03  1.88217E+03  3.13100E+03  3.24297E+03 -1.33934E+03  1.75352E+03  4.37804E+03  6.99836E+03
  1.35509E+03 -1.49904E+03 -6.68763E+02  2.22134E+03 -2.49853E+03  2.13291E+03  4.08151E+03 -6.48868E+01
  1.28679E+03  3.62508E+03  1.62935E+03 -1.82106E+03 -2.11598E+02  2.97637E+03  2.06976E+03 -1.00909E+03
 -2.31296E+03 -3.53485E+03  1.59770E+03 -2.25011E+02  1.29820E+03  2.52590E+03  6.28017E+02  4.73549E+02
  8.32949E+02 -4.79778E+02  3.47274E+03 -1.29350E+03  1.92185E+03  8.24063E+02  8.98464E+02 -4.76999E+03
 -3.39848E+03  3.57206E+03 -3.43500E+03  2.35350E+03 -1.49239E+03  1.96374E+03 -2.46283E+03  1.48198E+03
 -3.49072E+03  4.09824E+03 -3.77124E+03 -8.12652E+02 -3.33026E+03  3.95481E+02 -4.51630E+03 -3.37005E+03
  4.66913E+03 -3.42281E+03  1.13987E+03 -1.82534E+03  4.30141E+03 -3.81589E+03  4.38255E+03 -4.33737E+02
  2.37668E+03 -1.28215E+03  7.06583E+02 -7.37209E+02 -7.73035E+02  3.75765E+03  4.60116E+02  2.13613E+03
 -1.66905E+03  2.20464E+01  3.51611E+03  3.62989E+03 -1.54951E+03  8.66127E+02  2.82923E+03 -7.86735E+02
  2.73889E+02  5.56951E+02 -2.81417E+03 -2.49121E+03 -1.81726E+03  1.21777E+01 -3.23641E+03 -3.52058E+02
  4.85755E+02 -1.32808E+03 -1.07975E+03 -1.26811E+03  7.46576E+02 -4.01288E+03  5.47981E+02  3.74267E+03
 -1.77001E+03  2.42234E+03  6.00107E+03  1.78927E+03 -5.75733E+03  1.28695E+03 -1.09842E+03  5.24904E+02
  2.26381E+03 -1.34291E+03  3.10482E+03  2.06549E+03 -1.40739E+02 -3.02187E+03 -6.02004E+02 -3.90381E+02
 -1.91164E+02  1.47103E+03 -1.80583E+03  2.45234E+03 -1.05754E+03  1.62509E+03  2.79071E+03 -9.08565E+02
  2.98810E+02  1.72784E+03  7.33372E+02 -1.41875E+03 -2.78274E+03  1.32530E+02  1.93048E+02 -3.04250E+03
  3.90613E+02 -8.82447E+02 -7.78133E+02 -2.10822E+03  1.03105E+03  9.71029E+02  1.15691E+03 -4.89069E+03
 -5.13978E+02 -3.46984E+03  1.62218E+03 -4.88830E+02 -2.05853E+03 -9.04534E+02 -2.13731E+03  2.62163E+03
  1.34819E+03  1.49813E+03 -3.05683E+03  1.10125E+03 -9.39972E+01  2.50080E+03  8.77040E+01  3.08555E+03
  1.25728E+03 -3.85308E+03 -1.00406E+03  5.79865E+02 -6.83794E+02  6.61992E+02 -1.87789E+03 -1.36923E+03
 -1.22578E+03  3.96672E+03 -1.17515E+03 -6.71786E+02 -1.18008E+03  1.73262E+02 -2.37040E+03 -1.20198E+03
  1.24670E+02  2.42297E+03 -1.04570E+03 -2.27806E+03  2.23155E+03  9.13089E+02  7.47873E+02  1.59622E+03
