 $NMID ID='MM_0lb_SNR50_11hz_g55_25.RAW', FMTDAT='(8E13.5)'
 TRAMP=1., VOLUME=1. $END
  3.04709E+05  1.23233E+03  3.35300E+05  2.49219E+05  8.64057E+04  3.40217E+05 -1.31445E+05  2.49009E+05
 -1.93703E+05  8.17247E+04 -1.12687E+05 -3.00300E+04 -5.33821E+03 -5.38189E+04  5.41028E+04  5.36918E+03
  3.19267E+04  5.28049E+04 -2.01522E+04  7.88945E+04 -5.55837E+04  6.60041E+04 -8.72133E+04  3.12198E+04
 -8.59035E+04 -1.01058E+04 -5.50467E+04 -5.29737E+04 -1.36218E+04 -7.51966E+04  2.62282E+04 -4.81392E+04
  4.27580E+04  2.64088E+03  1.93299E+04  3.83509E+04 -3.21270E+04  4.74217E+04 -6.73729E+04  4.42636E+03
 -5.68502E+04 -6.05601E+04 -5.57546E+03 -7.92175E+04  3.62924E+04 -5.56192E+04  5.16974E+04 -2.19652E+04
  4.12184E+04  1.23156E+04  3.05667E+04  2.67881E+04  1.07580E+04  2.83596E+04 -9.88849E+03  2.84499E+04
 -2.61833E+04  7.87461E+02 -1.77808E+04 -7.21511E+03  4.03969E+03 -6.30662E+03  2.21297E+04  9.70790E+03
  6.50929E+02  3.56999E+04 -3.20878E+04  3.90872E+04 -6.05237E+04 -2.21282E+03 -6.05531E+04 -4.56870E+04
 -7.39965E+03 -6.16968E+04  3.97952E+04 -4.53225E+04  6.27357E+04 -6.43280E+03  4.24849E+04  3.59584E+04
 -4.34891E+03  3.85541E+04 -3.56627E+04  1.41824E+04 -3.59778E+04 -5.69643E+03 -2.28015E+04 -1.31828E+04
 -6.40969E+03 -1.75696E+04  4.57980E+03 -2.35486E+04  9.62128E+03 -2.76252E+04  1.45496E+04 -8.80376E+03
  9.89667E+03  5.64095E+03 -9.64106E+03  8.98643E+03 -2.10229E+04 -4.04598E+03 -3.91933E+03 -3.60160E+04
  2.78093E+04 -4.79466E+04  5.50380E+04 -2.48412E+04  4.87242E+04  2.20847E+04  1.38752E+04  4.94029E+04
 -1.38607E+04  3.62942E+04 -2.84048E+04 -4.74463E+02 -1.18267E+04 -2.65946E+04  2.00564E+04 -3.26374E+04
  4.03438E+04 -1.05607E+04  4.06979E+04  2.55904E+04  1.97074E+04  4.85437E+04 -7.65832E+03  5.25447E+04
 -3.97058E+04  3.09364E+04 -4.15079E+04  1.39937E+04 -4.11794E+04 -1.37594E+04 -1.70655E+04 -4.04484E+04
  7.64610E+03 -3.58225E+04  3.75869E+04 -1.76150E+04  3.11601E+04  1.31841E+04  6.95873E+03  2.74862E+04
 -1.56458E+04  4.20083E+03 -1.01822E+04 -5.14150E+03  4.63690E+03 -1.09196E+04  1.45648E+04  8.05330E+03
  1.88280E+04  1.99875E+04 -4.07298E+03  2.81190E+04 -2.07140E+04  1.25589E+04 -2.82307E+04 -3.97279E+03
 -2.32994E+04 -1.97658E+04 -1.00898E+04 -2.32607E+04  4.83743E+03 -2.41149E+04  1.59569E+04 -1.37320E+04
  2.88577E+04 -1.17837E+04  3.55286E+04  2.29755E+03  3.17020E+04  1.84405E+04  7.28507E+03  4.01874E+04
 -1.70144E+04  3.10912E+04 -3.43204E+04  1.47604E+04 -1.72281E+04 -9.70384E+03 -3.09537E+03 -1.45734E+04
  2.95621E+03  6.70754E+02 -1.32559E+04  1.34692E+03 -2.04651E+04  6.58260E+03 -1.76411E+04 -2.27560E+03
 -1.27477E+04 -2.64088E+04  5.26918E+03 -2.83433E+04  1.71842E+04 -2.03260E+04  2.33371E+04 -1.04818E+03
  1.74601E+04  1.76495E+04 -7.46467E+02  2.66725E+04 -1.51867E+04  1.33792E+04 -1.64108E+04 -8.86335E+03
 -1.50546E+04 -1.98000E+04  8.99012E+02 -2.79363E+04  9.58147E+03 -2.33743E+04  2.69411E+04 -1.29428E+04
  2.17777E+04 -3.58053E+03  1.47914E+04  2.35821E+03  5.28681E+03  2.85946E+03  1.40108E+04 -9.33951E+02
  1.74528E+04  7.33070E+03  2.19588E+04  2.14499E+04  1.77621E+04  3.66120E+04  2.38806E+03  3.93270E+04
 -2.04010E+04  3.81415E+04 -4.24625E+04  1.44489E+04 -4.63819E+04 -7.59523E+03 -3.30528E+04 -2.50305E+04
 -8.97946E+03 -3.65727E+04  7.72892E+03 -3.17536E+04  2.66498E+04 -1.61108E+04  2.75231E+04  8.03924E+03
  8.65932E+03  1.77821E+04 -6.55134E+03  1.46884E+04 -1.21713E+04  5.51266E+03 -1.49697E+04 -1.86213E+04
  9.77910E+02 -1.60547E+04  1.19899E+04 -7.95863E+03  1.08384E+04  4.64838E+03 -9.39110E+02  6.00772E+03
 -1.32361E+04  5.78188E+03 -1.34921E+04 -5.29608E+03 -4.38720E+03 -2.24823E+04  1.45569E+04 -2.15838E+04
  2.36903E+04 -1.56930E+04  2.25628E+04  5.85189E+03  1.98731E+04  1.47640E+04  7.26363E+03  2.96916E+04
 -2.16954E+03  2.64064E+04 -2.20987E+04  1.89722E+04 -2.06061E+04  8.05143E+03 -1.03947E+04 -7.14041E+01
 -5.75044E+03 -3.85364E+03 -3.98551E+03  4.98921E+02 -3.26710E+03  2.73557E+03 -7.92543E+03  3.14245E+03
 -1.67754E+04 -1.69222E+03 -1.87410E+04 -1.20689E+04 -6.85516E+03 -2.53306E+04  7.37041E+03 -1.56470E+04
  9.51295E+03 -1.01027E+04  1.11933E+04  8.21794E+02  2.78777E+03  2.06285E+03 -9.74153E+03  3.63309E+03
 -4.66862E+03 -5.27122E+03 -6.47276E+02 -1.33654E+04  5.90331E+03 -1.46392E+04  1.65235E+04 -1.11728E+04
  1.83021E+04  7.60745E+03  1.47674E+04  5.38064E+03  3.45029E+03  1.65512E+04 -8.66508E+03  1.62197E+04
 -8.37652E+03  4.81091E+03 -1.33749E+04  8.65581E+02  3.70534E+03 -4.18274E+03  2.73023E+03 -1.04509E+03
 -1.38356E+02  1.15750E+04 -3.11904E+02  8.96562E+03 -9.19338E+03  1.19619E+04 -1.62991E+04  5.16308E+03
 -6.29082E+03 -5.31198E+03 -1.62815E+03 -1.54665E+04  8.88356E+03 -8.16691E+03  5.31536E+03  4.06686E+03
  3.57542E+03  1.36563E+04 -8.78413E+03  1.12932E+04 -6.91768E+03  8.29080E+03 -9.50692E+03 -2.49607E+03
 -1.10592E+04 -1.36850E+04  4.33809E+03 -1.74016E+04  1.53310E+04 -1.25550E+04  1.31629E+04  2.49514E+03
  1.17980E+04  9.44182E+03  1.73960E+03  6.92206E+03 -8.11689E+03  4.47525E+03 -1.76257E+04 -2.19401E+03
 -9.40808E+03 -1.19219E+04 -3.63492E+03 -1.06784E+04  5.68792E+03 -3.85810E+03  5.16219E+03 -8.96531E+03
  1.61284E+03 -1.90929E+03  2.89911E+03  1.07051E+03 -6.22478E+02  5.50133E+03  3.49384E+03 -5.40635E+03
  4.77220E+03 -5.26744E+03  1.18138E+04  8.22413E+03  1.53421E+04  9.66556E+03  5.55392E+03  1.57762E+04
 -1.04697E+04  2.03791E+04 -1.70747E+04  1.64089E+04 -2.14687E+04  6.30126E+03 -2.02200E+04 -8.79170E+03
 -7.68647E+03 -1.47925E+04 -2.28862E+02 -1.30659E+04  1.00222E+04 -4.06682E+03 -3.69527E+03 -1.19457E+04
  5.68399E+02 -3.78471E+03  2.67023E+03 -8.38661E+03  5.19159E+03  9.25620E+02  6.56814E+03  2.76332E+03
  1.57261E+04  9.53658E+02  6.72016E+03  8.92548E+03 -5.42779E+03  4.16313E+03 -8.34814E+03  1.23609E+04
 -1.72668E+04 -7.22371E+03 -1.03665E+04 -5.49539E+03 -3.79717E+03 -1.37651E+04  4.39012E+03 -1.69371E+04
  1.35392E+04 -5.25583E+03  1.70692E+04  2.72909E+03  8.08338E+03  1.31240E+04 -2.49963E+02  1.88829E+04
 -1.68967E+03  1.10796E+04 -5.61797E+03  4.42069E+03 -5.87079E+03 -2.93800E+03 -6.25077E+02 -6.29629E+02
 -3.84335E+03 -1.68872E+03  1.18532E+03  1.07887E+03 -6.37046E+03  2.07833E+03 -8.49176E+03 -4.33429E+03
 -3.30139E+03 -3.91000E+03 -1.99386E+03 -8.93877E+03  5.84508E+03 -9.25951E+03  1.34111E+04 -5.63369E+03
  7.83444E+03  8.96424E+03  8.52421E+03  1.05427E+04  7.77584E+02  1.04131E+04 -8.43594E+03  6.87331E+03
 -1.52328E+04 -2.32655E+03 -1.55309E+04 -1.07592E+04 -3.26226E+02 -1.15636E+04  3.27523E+03 -5.81070E+03
  1.17606E+04 -6.23678E+03  6.54876E+03 -2.48039E+02 -1.76948E+03  5.81971E+03 -2.24786E+03 -2.48034E+02
  7.04205E+03  3.01543E+03  3.11446E+03 -5.66752E+03  4.98814E+03  5.60949E+03  1.35960E+03  7.52285E+03
 -4.10857E+03  9.96891E+03 -1.23894E+04  7.33188E+03 -1.48912E+04  5.84860E+01 -1.29343E+04 -4.95547E+03
 -8.42228E+03 -1.41302E+04  1.50181E+03 -1.38606E+04  6.53950E+03 -6.72726E+03  8.48953E+03 -2.00208E+03
  1.14020E+04  3.09222E+03 -7.43499E+02  5.64036E+03 -3.90659E+03  2.02071E+03 -6.09860E+03 -5.62561E+02
 -2.83904E+03 -4.87678E+03  1.79917E+03 -1.09873E+04  3.14457E+03 -1.83454E+03  1.43645E+03  8.08943E+03
  4.06580E+03  6.37329E+03  7.17171E+03  1.29989E+03  4.39017E+02  4.19388E+03  4.95002E+03  3.32155E+03
 -5.25255E+03 -4.81593E+03  2.91610E+03  2.58265E+03  3.67354E+02  1.25782E+03 -7.11456E+01  8.71838E+03
 -6.95103E+03  1.15606E+04 -7.35159E+03 -1.26319E+03 -7.89254E+03  4.22877E+03 -3.71806E+03 -6.82195E+03
  2.84012E+03 -9.89541E+02 -1.82711E+03 -6.80395E+03  4.28893E+03  2.39592E+03 -2.44179E+03  5.72030E+03
 -8.86578E+03 -6.70950E+02 -5.89350E+03 -2.32661E+03  2.23013E+02 -7.52294E+03  3.48343E+03 -1.11797E+04
  1.26121E+03  1.55527E+03  4.90964E+03 -5.29269E+03  2.92281E+03  2.13318E+03  4.40710E+03  8.32100E+01
 -7.63282E+03  1.80433E+03 -3.87818E+03 -1.43734E+03  6.35223E+03 -3.83301E+03  7.17201E+03 -3.26573E+03
  6.26439E+03  3.39391E+03  8.26680E+03  5.54641E+03  3.45909E+03  5.57646E+03 -4.79450E+03  5.34616E+03
 -7.01928E+03  2.90715E+03 -1.23843E+04  2.47099E+03 -4.08096E+03 -4.43330E+03 -7.81775E+03 -2.52261E+02
  7.65760E+03  1.20848E+03  2.35281E+03  5.40829E+03  1.43589E+03  6.81972E+03 -3.58862E+03 -1.13615E+03
  2.13925E+02  9.29338E+03 -4.60103E+03  2.14200E+03 -1.39390E+02 -8.47761E+02 -1.66953E+03  2.43297E+03
 -4.67665E+03  5.33263E+03 -9.34079E+03  3.27254E+03 -1.22142E+04  9.37305E+03 -7.49591E+03 -5.68682E+03
 -3.35171E+03 -1.00088E+04  6.96361E+03 -1.02796E+04  7.48818E+03 -8.49284E+03  9.11188E+03 -5.57053E+03
  6.80114E+03  3.91514E+02  5.99164E+03  7.77721E+03 -2.66171E+02  7.19618E+03 -3.80044E+03  7.47377E+03
 -2.51552E+03  2.71265E+03 -1.41870E+03  4.32750E+02 -4.16731E+03 -4.24598E+03 -3.59137E+02 -3.80886E+02
 -4.74121E+03  1.88611E+03 -2.46087E+03 -1.72776E+03 -1.46636E+02  9.57183E+02 -6.04808E+02  4.94783E+02
  1.16599E+03 -9.50984E+02  6.74987E+02 -2.31313E+03  6.11481E+03 -6.03312E+02 -6.00081E+03  1.03891E+04
 -1.72141E+03  7.61520E+03 -6.24997E+03  6.01078E+03 -1.26428E+04 -3.34103E+03 -8.75827E+02 -9.52002E+03
 -4.93857E+03 -1.11746E+04  1.70512E+03 -5.76299E+03 -1.25963E+03 -2.16510E+03  2.65763E+03  4.81004E+03
  2.95430E+03  4.29505E+03 -2.44004E+03  5.34652E+03  3.75275E+03  1.26948E+03 -4.50303E+03 -1.12851E+03
  2.74446E+03 -3.50283E+03 -1.47181E+03 -1.88766E+02  3.66049E+03  4.00771E+03  1.92628E+03  6.64205E+03
 -5.07516E+03  6.92901E+03 -8.13636E+03 -2.80757E+03 -8.16947E+03 -9.04418E+03 -4.25407E+03 -3.90321E+03
  1.60505E+02 -6.56976E+03  1.11078E+04 -4.18786E+03  2.22851E+03  2.34248E+02 -1.79864E+03  3.05576E+02
 -1.20804E+03  4.17475E+02 -6.11152E+03  4.63595E+03 -2.24397E+03 -3.09711E+03 -4.64639E+03  3.56543E+03
 -3.33221E+03 -2.36255E+03  6.95230E+02 -1.33558E+03 -4.93861E+03 -5.16316E+02 -4.58849E+03  1.20895E+03
 -7.08345E+03 -7.73165E+03 -3.15612E+03 -7.12789E+03 -1.80911E+03 -2.02506E+03  1.52118E+03 -4.66321E+02
 -4.18997E+02  4.17619E+03  2.53257E+03  5.87495E+03 -8.72088E+02  5.01385E+03 -5.36043E+03  4.40926E+03
