 $NMID ID='MM_0lb_SNR50_18hz_g40_83.RAW', FMTDAT='(8E13.5)'
 TRAMP=1., VOLUME=1. $END
  3.07649E+05  3.77571E+03  3.33700E+05  2.51193E+05  8.37909E+04  3.35597E+05 -1.30514E+05  2.49826E+05
 -1.87858E+05  8.02142E+04 -1.12752E+05 -3.31239E+04 -1.08771E+03 -5.02193E+04  5.33011E+04  1.57136E+03
  3.63584E+04  5.18730E+04 -1.77818E+04  7.33816E+04 -5.77883E+04  6.20194E+04 -7.94581E+04  3.20759E+04
 -8.03980E+04 -1.08030E+04 -5.83406E+04 -4.94991E+04 -1.48455E+04 -6.95019E+04  3.00631E+04 -4.48198E+04
  4.01581E+04  5.06999E+03  1.36557E+04  4.96233E+04 -3.48454E+04  4.44850E+04 -6.60342E+04 -9.80648E+02
 -5.09493E+04 -5.39232E+04 -9.15610E+03 -7.82117E+04  3.35001E+04 -5.23451E+04  4.65809E+04 -1.76863E+04
  3.83714E+04  1.29901E+04  3.00696E+04  2.59732E+04  1.37828E+04  2.53608E+04 -7.63398E+03  2.70965E+04
 -1.65685E+04  1.21664E+04 -1.65962E+04 -4.88648E+03  9.29746E+03 -6.66616E+03  2.25080E+04  1.13118E+04
  9.13599E+03  3.48693E+04 -3.35190E+04  3.25718E+04 -6.23888E+04  7.92605E+03 -5.31692E+04 -4.26537E+04
 -8.10952E+03 -6.35546E+04  3.76458E+04 -4.23834E+04  5.74522E+04 -8.44167E+02  3.12835E+04  2.52290E+04
 -6.13140E+03  3.36760E+04 -2.19989E+04  1.23564E+04 -2.74852E+04 -1.03683E+04 -1.12010E+04 -8.61805E+03
 -7.85513E+03 -1.35812E+04 -9.30139E+02 -1.45301E+04  8.51150E+03 -2.24215E+04  1.33673E+04 -1.61715E+04
  1.44540E+04  2.65603E+03 -8.36119E+03  1.47453E+04 -1.50933E+04 -1.29311E+03 -1.26635E+04 -2.84980E+04
  1.85128E+04 -3.92925E+04  4.39279E+04 -1.73484E+04  4.46134E+04  2.25584E+04  1.42091E+04  4.23004E+04
 -9.55109E+03  2.99718E+04 -2.38501E+04 -1.58783E+03 -7.32731E+03 -2.39978E+04  2.02298E+04 -3.22502E+04
  3.89576E+04 -1.01344E+04  3.09715E+04  2.24468E+04  1.69856E+04  4.56887E+04 -3.96460E+03  4.25330E+04
 -2.58661E+04  2.89578E+04 -3.84392E+04  7.57774E+03 -3.79201E+04 -1.65884E+04 -2.05292E+04 -3.49027E+04
  1.09658E+04 -2.79083E+04  2.96983E+04 -1.16932E+04  2.13961E+04  1.23219E+04  5.22453E+03  1.90461E+04
 -1.10701E+04  4.39444E+03 -7.13382E+03 -7.31787E+03  4.53172E+03 -8.33527E+03  1.94516E+04  4.46854E+02
  1.78935E+04  2.19956E+04 -7.78451E+03  1.99504E+04 -2.08334E+04  8.38131E+03 -2.44014E+04 -3.81771E+03
 -1.67914E+04 -1.66805E+04 -8.76563E+03 -1.80769E+04  8.52916E+03 -1.14764E+04  1.36005E+04 -1.42168E+04
  2.34155E+04 -1.12854E+04  2.82258E+04  6.81224E+01  1.95042E+04  1.77213E+04  4.75935E+03  2.86100E+04
 -1.82971E+04  2.96264E+04 -2.49851E+04  9.99139E+03 -2.18903E+04 -1.47763E+04 -1.03091E+04 -1.54053E+04
 -5.99270E+02 -1.83708E+03 -2.58006E+03  5.27393E+03 -1.14109E+04  4.13614E+03 -1.08991E+04 -4.80149E+03
 -1.06447E+04 -1.34141E+04  1.45204E+03 -1.88796E+04  7.56962E+03 -1.40617E+04  1.70299E+04 -5.81098E+03
  6.59193E+03  1.38491E+04 -2.22463E+03  1.68268E+04 -9.94626E+03  7.26207E+03 -1.63332E+04 -3.29081E+03
 -1.01139E+04 -1.05409E+04 -1.39458E+03 -1.70194E+04  1.12148E+04 -1.61761E+04  1.55645E+04 -7.29822E+03
  1.25700E+04  5.05074E+03  9.54185E+03  1.42867E+03  1.85761E+03  1.41572E+03  5.51381E+03 -2.03591E+03
  1.50591E+04  4.89170E+03  1.58958E+04  1.25195E+04  1.04236E+04  2.68338E+04  1.21554E+03  2.65306E+04
 -1.76865E+04  1.70455E+04 -2.58501E+04  7.67920E+03 -2.41844E+04 -2.41366E+03 -1.98866E+04 -1.58392E+04
 -8.50644E+03 -1.88320E+04  4.70129E+03 -1.82661E+04  1.86366E+04 -1.20679E+04  1.61650E+04  2.20758E+03
  5.86118E+03  1.21603E+04 -4.06092E+03  1.00833E+04 -1.52906E+04  2.62861E+03 -9.00974E+03 -5.18758E+03
 -4.80759E+03 -1.32676E+04  5.10364E+03 -7.95566E+03  3.11994E+03 -3.90541E+03  5.83952E+02  4.80939E+03
 -8.88914E+03 -1.99542E+02  8.33369E+01  1.24921E+03 -3.43824E+03 -1.06360E+04  1.26786E+04 -1.34192E+04
  1.38075E+04 -3.62553E+03  1.09849E+04 -3.37004E+03  8.79855E+03  1.12868E+04  5.98948E+03  1.35569E+04
 -4.35793E+03  1.17853E+04 -7.71237E+03  8.34973E+03 -1.26768E+04  3.76735E+03 -1.05859E+04 -1.57464E+03
 -4.01787E+03 -3.19242E+03  2.69638E+03  4.80556E+03 -1.56250E+03  2.45447E+03 -1.03746E+04  3.71942E+03
 -1.01768E+04 -1.83619E+02 -8.14081E+03 -7.22564E+03 -4.32208E+03 -1.12989E+04  4.45842E+03 -6.53483E+03
  4.15529E+03 -5.71623E+03  1.92747E+03  1.84101E+02  5.94053E+03  9.22458E+02 -3.61923E+03  1.65490E+02
 -3.36984E+03 -2.43883E+03  6.08912E+02 -9.79719E+03  3.27086E+03 -8.94623E+03  1.10179E+04 -4.83437E+03
  1.22450E+04 -1.03219E+03  9.52843E+03  4.49433E+03  8.58476E+02  1.17375E+04 -6.77355E+03  7.66232E+03
 -3.97332E+03  1.84207E+03 -1.90938E+03 -7.37947E+02  3.91621E+03 -5.94350E+03  3.09774E+03  1.35684E+03
  2.67292E+02  2.83829E+03  1.11154E+03  4.87364E+03 -1.67607E+03  5.06235E+03 -7.86415E+03  2.18307E+03
 -5.06710E+02 -6.05243E+03  3.47339E+01 -5.50800E+03  3.18327E+03 -4.34248E+03  2.66338E+03 -3.00141E+03
  5.73216E+02  3.88802E+03 -8.24528E+03  4.64466E+03 -2.26815E+03 -2.02828E+03 -4.03039E+03 -1.47070E+03
 -2.22880E+03 -2.71073E+03  5.45640E+03 -3.52503E+03 -3.85908E+02  8.35510E+02  6.84103E+03  2.90450E+02
  2.80331E+03  3.65125E+03 -5.69718E+02  3.41103E+03 -1.27581E+03  4.18502E+03 -6.57078E+03  1.41290E+03
 -7.42109E+03 -5.31686E+03 -3.16046E+01 -4.38317E+03  1.48166E+03 -4.31683E+03  5.31176E+03 -2.14225E+03
  3.24738E+03  6.87231E+02 -8.21919E+02  2.58634E+03  1.37266E+03  6.73469E+02  2.18947E+03 -6.16748E+02
  4.46174E+03 -1.18986E+03  2.47690E+03  6.13186E+02  7.21422E+03  3.68499E+03  6.49752E+03  9.07065E+03
  3.25308E+03  7.65542E+03 -8.56699E+03  6.98603E+03 -8.13704E+03 -1.18381E+02 -7.31115E+03 -1.25419E+03
 -6.48242E+03 -9.59196E+03  1.70785E+03 -5.25868E+03  1.14907E+03 -2.34671E+03 -6.44423E+02  3.69372E+02
 -7.28514E+01  4.48806E+02  1.63130E+03 -1.29155E+03  1.67680E+03  7.10843E+02  6.25836E+03  2.96022E+03
  3.86256E+03 -3.47178E+02 -3.70162E+03  1.47282E+03  1.05770E+02  6.56389E+03 -4.02840E+03  9.28986E+02
 -4.28440E+03 -2.30695E+03 -2.50940E+03 -5.61566E+03  3.10679E+03 -6.81806E+03  2.14249E+03 -3.52799E+03
  3.26166E+03 -3.52965E+03  4.67826E+03 -9.40842E+02  2.81070E+03  2.90142E+03  4.39299E+03  3.84005E+03
 -3.15563E+03  3.28273E+03 -6.70666E+03 -1.92429E+02 -5.38232E+03  1.88753E+03 -2.36935E+03  9.59234E+02
 -7.25942E+02  1.49245E+03 -4.18997E+03  4.74218E+03 -4.36538E+03  2.56939E+03 -4.73496E+03  4.33922E+02
 -1.57460E+03 -6.79417E+03  5.19177E+02 -1.27586E+03  6.82672E+03 -2.91448E+03  4.19546E+03 -2.75225E+02
  6.26831E+03  4.32613E+03  2.06373E+03  4.30568E+03  3.78051E+03  9.50493E+02 -6.00288E+03  2.69122E+03
 -4.37847E+03  3.06465E+03 -1.44660E+03 -1.92407E+03 -1.13631E+03 -1.85012E+03  2.42891E+03 -3.19061E+03
  4.67414E+03 -1.10344E+03  1.36047E+03  4.13873E+02  3.19894E+03 -2.12510E+03  3.06241E+02 -2.72094E+03
 -9.18910E+01 -1.93341E+03  2.24391E+03  1.61142E+03  4.23167E+03 -2.31648E+03  8.29590E+02  2.28273E+03
  5.54514E+02  6.02975E+03 -3.88067E+03 -1.73633E+01 -3.94880E+03  4.18120E+03 -2.72437E+03 -1.20077E+03
 -8.83399E+02 -3.56112E+03  7.74698E+02 -4.82270E+03  4.04245E+03 -1.83099E+03  4.26955E+03 -1.13486E+03
  6.17495E+03  2.72469E+02 -7.45067E+02  7.57010E+02 -8.16845E+02  9.19099E+02  2.17500E+03  2.79588E+03
 -2.68731E+03 -9.86021E+02  4.51141E+03 -1.82594E+03  3.78708E+03 -2.75889E+03  8.44833E+02  1.57071E+03
  1.16237E+03  4.13984E+03  2.51559E+03  3.84180E+03 -7.41418E+02 -3.18250E+02 -1.90311E+03 -3.06281E+03
 -2.90598E+03 -1.05479E+03  2.98983E+03 -2.18411E+03 -1.55073E+03  3.43033E+03 -1.53050E+02  3.88646E+03
 -1.22638E+03  2.04143E+03  3.12099E+03 -1.00140E+03  2.50601E+03  3.83971E+03 -1.11912E+03 -2.32955E+03
 -7.89905E+02 -2.20404E+02 -5.52291E+02 -2.75294E+03  1.52154E+03  3.28887E+03 -1.27567E+03 -5.30008E+02
 -4.81626E+03  1.09562E+03 -1.34110E+03 -3.05889E+03 -4.74872E+03 -3.01544E+03 -1.36829E+03 -3.24647E+03
 -1.37613E+03  4.87067E+03  2.84731E+03 -4.92992E+03  4.17924E+03  1.50952E+03  3.50528E+03 -1.33421E+03
  1.48396E+03  9.23488E+02 -5.32062E+02 -2.11000E+01  1.01927E+03 -4.12442E+03 -3.15481E+03 -2.13336E+03
  8.02909E+02 -1.40399E+03  2.24532E+03 -3.44447E+03  2.75038E+03  2.75841E+03  6.84924E+02  2.65995E+03
 -8.99641E+02 -1.50878E+03 -4.88703E+03 -1.25886E+03  4.86116E+02 -2.28115E+03  2.26941E+03 -7.90376E+02
 -4.55667E+02 -3.38437E+03 -1.56061E+03 -6.85405E+02 -1.33050E+03  4.48707E+03 -5.23352E+03  5.74708E+03
 -2.00274E+03  3.80932E+03  3.18336E+02  1.47607E+03  2.71902E+03 -2.65455E+03  6.67639E+02 -3.34725E+03
  2.03213E+01  1.13958E+03 -2.97887E+03  6.89921E+03  1.54833E+03  2.75159E+03 -3.18191E+03 -4.38800E+03
 -3.17946E+03 -4.16749E+03  1.29293E+03 -3.15433E+03  3.88374E+03 -1.05516E+04  2.27411E+03  3.27706E+03
  2.64768E+03  6.01187E+03  7.19819E+01 -2.62246E+03 -2.90527E+03  2.75487E+03 -2.95631E+03  5.30400E+03
  2.82435E+03  7.21189E+02 -3.63044E+03  1.06531E+03 -3.78419E+03  3.66820E+03  7.19899E+02 -9.83800E+02
 -5.65718E+03 -2.15012E+03 -1.20264E+03 -6.64186E+02 -2.79371E+02 -4.64339E+02 -4.34066E+02 -2.40571E+03
  6.24196E+03 -3.44321E+03  1.16125E+03  5.37200E+03 -1.02831E+03  9.78774E+02  1.39673E+03 -3.94041E+02
  2.43506E+03  5.03766E+03 -4.49506E+03  4.40348E+03 -4.38417E+02 -3.27791E+03 -3.63568E+03 -2.84112E+02
 -2.77044E+03  1.51273E+02  3.68597E+03  1.18258E+02 -4.32433E+02  2.73364E+03  1.75756E+03 -1.48716E+03
  3.58545E+01 -2.06361E+03 -5.09528E+03  3.45330E+03 -2.59136E+03  2.68978E+02 -2.05442E+03 -2.88074E+03
  3.38905E+03  1.18927E+03 -9.19289E+02 -1.35364E+03 -1.16890E+03  6.19932E+02  8.82108E+02 -3.36895E+03
 -4.54308E+03 -2.33987E+03 -5.02826E+03  3.91967E+03  9.50163E+02 -5.14555E+03  9.20765E+02 -3.65576E+02
  6.63523E+03 -3.87690E+03  2.72625E+03  1.68350E+03  2.85564E+03 -9.25250E+02 -5.48130E+01 -2.20941E+03
  2.14218E+03  1.74944E+03 -1.75021E+03  1.33040E+03 -4.87262E+03  6.42206E+02  1.69332E+02 -6.52414E+02
 -6.04946E+02  4.22155E+02 -4.97492E+02 -5.10576E+02  2.82023E+03 -1.53852E+03 -1.08458E+02  3.09677E+02
 -9.49126E+02 -3.24287E+03 -7.15162E+02  3.19834E+03  1.76726E+03 -5.07047E+03  5.37681E+02 -3.05023E+03
  5.93840E+03  5.89740E+01 -4.57046E+03 -1.07902E+03 -6.21227E+03  1.97275E+03 -3.96077E+03 -4.54383E+03
