 $NMID ID='MM_0lb_SNR50_18hz_g60_18.RAW', FMTDAT='(8E13.5)'
 TRAMP=1., VOLUME=1. $END
  3.11047E+05  2.12394E+03  3.37353E+05  2.53236E+05  8.31251E+04  3.37727E+05 -1.35960E+05  2.49467E+05
 -1.87073E+05  8.22093E+04 -1.08012E+05 -3.34797E+04 -1.43790E+03 -5.01090E+04  5.09321E+04  2.64479E+03
  3.62286E+04  5.06225E+04 -1.51738E+04  7.98180E+04 -5.86210E+04  6.25180E+04 -8.46088E+04  3.18467E+04
 -8.33739E+04 -1.20070E+04 -5.45769E+04 -5.41561E+04 -1.33760E+04 -7.03886E+04  1.81972E+04 -4.57962E+04
  4.04483E+04  3.39787E+03  1.53445E+04  4.70463E+04 -3.61866E+04  4.63720E+04 -6.66680E+04 -1.59486E+03
 -5.15805E+04 -5.70151E+04 -1.14824E+04 -7.45141E+04  3.44308E+04 -5.38415E+04  4.84124E+04 -1.61873E+04
  4.11641E+04  1.40789E+04  3.30345E+04  2.26044E+04  1.43277E+04  2.55824E+04 -6.11184E+03  2.44774E+04
 -2.27050E+04  1.41441E+04 -1.89489E+04 -6.62696E+03  9.89769E+03 -1.04104E+04  2.23746E+04  1.25579E+04
  5.99687E+03  3.47011E+04 -2.82476E+04  3.53796E+04 -5.97924E+04  4.49163E+03 -5.52237E+04 -3.93475E+04
 -1.59617E+04 -6.26880E+04  3.84557E+04 -4.38748E+04  5.73097E+04 -3.07097E+03  3.20161E+04  3.04598E+04
 -9.59052E+03  3.47281E+04 -3.09804E+04  1.41867E+04 -3.32039E+04 -3.53928E+03 -1.31750E+04 -1.26140E+04
 -5.26556E+03 -1.00840E+04 -2.50543E+03 -1.99692E+04  1.01300E+04 -2.12152E+04  2.03451E+04 -1.14829E+04
  1.06778E+04  4.37746E+03 -5.28913E+03  7.88661E+03 -2.04294E+04 -1.92326E+03 -6.70954E+03 -3.09851E+04
  2.12912E+04 -4.37072E+04  4.61178E+04 -1.92656E+04  4.55329E+04  1.57413E+04  1.48562E+04  4.56179E+04
 -1.68034E+04  3.31671E+04 -2.29839E+04  4.32831E+02 -6.04235E+03 -2.67020E+04  1.85011E+04 -2.91104E+04
  4.12344E+04 -1.09283E+04  3.25503E+04  1.98483E+04  1.79244E+04  4.85236E+04 -5.32637E+03  5.26457E+04
 -2.62753E+04  3.28394E+04 -3.68048E+04  1.05336E+04 -4.06289E+04 -1.64276E+04 -2.28567E+04 -3.44211E+04
  9.24223E+03 -3.80173E+04  3.37571E+04 -1.30207E+04  2.43836E+04  8.31221E+03  7.91796E+02  1.71067E+04
 -7.23529E+03  9.97056E+03 -1.00177E+04 -8.97702E+03  6.24564E+03 -8.81699E+03  1.64170E+04  9.56404E+03
  1.48635E+04  2.05234E+04 -3.51724E+03  2.14561E+04 -2.76835E+04  1.14755E+04 -2.86846E+04 -4.21401E+03
 -2.06877E+04 -1.59977E+04 -4.08084E+03 -1.48326E+04  5.66767E+03 -1.67987E+04  1.52595E+04 -1.31387E+04
  2.56323E+04 -1.01086E+04  3.22256E+04 -8.07736E+02  2.03120E+04  1.82070E+04  1.35697E+03  3.52383E+04
 -1.92721E+04  2.96276E+04 -2.53843E+04  9.85427E+03 -1.83565E+04 -5.78214E+03 -4.98431E+03 -1.67399E+04
  3.34745E+03 -5.05376E+03 -6.37918E+02  4.48903E+03 -1.21961E+04  2.37788E+03 -1.20953E+04 -3.67743E+03
 -1.15604E+04 -1.77846E+04  8.12590E+03 -2.04483E+04  1.28915E+04 -1.47693E+04  1.80544E+04 -2.14688E+03
  9.52227E+03  6.82965E+03 -2.72312E+03  1.86529E+04 -1.49001E+04  1.21790E+04 -1.53301E+04 -1.86579E+03
 -1.32739E+04 -1.95636E+04 -3.45948E+02 -2.15067E+04  1.06802E+04 -1.90285E+04  1.96346E+04 -1.07997E+04
  1.40872E+04 -1.21979E+03  1.12085E+04  3.36281E+03  1.99303E+03 -3.21369E+02  8.85050E+03 -3.48076E+03
  1.65594E+04  6.17867E+03  1.89381E+04  1.23903E+04  1.21341E+04  2.56442E+04 -1.00670E+03  3.10211E+04
 -1.85597E+04  2.58603E+04 -2.78080E+04  1.19211E+04 -2.88073E+04 -9.50823E+02 -2.42672E+04 -1.82500E+04
 -1.15364E+04 -2.25815E+04  4.86315E+03 -2.34878E+04  1.83773E+04 -9.72351E+03  1.89718E+04  3.63891E+03
  2.78300E+03  1.04018E+04 -9.53108E+03  1.08199E+04 -1.27964E+04  3.97081E+03 -1.01534E+04 -7.90885E+03
  2.66115E+02 -1.70290E+04  3.81624E+03 -1.25684E+04  9.52652E+03 -1.19581E+03 -1.84736E+02  6.70082E+03
 -5.71417E+03  2.70086E+03 -2.06681E+03 -3.18227E+03 -2.47435E+03 -9.51260E+03  1.11105E+04 -1.50956E+04
  1.25082E+04 -7.12718E+03  1.42160E+04  4.10093E+03  1.57367E+04  1.48899E+04  5.82061E+03  1.77535E+04
 -2.89001E+03  1.82606E+04 -1.13009E+04  1.15998E+04 -7.89981E+03  4.45906E+03 -8.72691E+03 -4.72304E+03
 -6.85994E+03 -3.27349E+03 -2.49938E+03 -2.05713E+03 -1.10200E+03  3.31163E+03 -6.06614E+03  2.70919E+03
 -1.45547E+04 -5.91119E+03 -1.36415E+04 -3.34731E+03 -2.77154E+03 -1.18529E+04  3.25225E+03 -1.10620E+04
  9.12390E+03 -1.66089E+03  6.63297E+03  5.95180E+03  5.37621E+02  5.95819E+03 -8.32275E+03 -1.07931E+03
 -4.13803E+03 -9.63216E+03 -9.04508E+01 -1.03057E+04  9.17031E+03 -7.85796E+03  7.78254E+03 -3.05155E+03
  1.35785E+04 -3.74290E+03  1.11569E+04  4.41107E+03  5.71509E+02  1.54820E+04 -5.46870E+03  1.04223E+04
 -7.67991E+03  3.95993E+02 -2.08112E+03 -3.93828E+03  5.25165E+01 -4.21770E+03  5.42126E+03 -1.80941E+03
  9.14952E+03  3.55613E+03  4.22845E+02  5.47223E+03 -6.54713E+03  6.63030E+03 -9.14749E+03 -1.00798E+03
 -8.08682E+03 -4.15656E+03 -4.29047E+03 -7.62976E+03  4.37327E+03 -1.08871E+03  5.29997E+03  4.06068E+02
 -4.72159E+02  4.76915E+03 -7.25197E+03  1.17068E+03 -5.79020E+03  2.97790E+03 -5.78563E+03  1.45428E+03
 -7.04183E+03 -3.16184E+03  2.28592E+03 -5.67566E+03  6.65092E+03 -4.51552E+03  9.83680E+03  3.33678E+03
  6.70026E+03  4.23683E+03 -2.25829E+03  8.66740E+03 -1.06086E+04  3.39589E+03 -4.57877E+03 -3.02950E+02
 -3.29518E+03 -5.06452E+03 -1.17400E+03 -6.22512E+03  6.81692E+02 -5.72641E+03  2.51336E+02 -3.62091E+03
  2.41345E+03 -3.95569E+03  3.45371E+03  5.32442E+03  6.80449E+02  3.03644E+03  2.72356E+03 -1.15657E+03
  6.94415E+03 -3.99823E+03  9.40139E+03  4.96883E+03  4.91603E+03  6.19782E+03  7.25360E+03  1.00126E+04
 -7.41608E+02  8.59804E+03 -3.76600E+03  7.79349E+03 -1.40005E+04  5.10421E+03 -1.20610E+04 -2.92888E+03
 -3.27474E+03 -8.06203E+03 -1.45486E+03 -8.31087E+03  3.04283E+03  2.37233E+03 -3.73560E+03  1.00997E+03
  4.22081E+03 -1.04217E+03  4.13067E+03 -5.03948E+03  4.86471E+03 -2.78703E+03  2.56825E+03  3.05308E+03
  5.58705E+03 -2.95589E+03  4.09282E+03  4.17638E+03 -5.22937E+03  1.92051E+03 -4.34972E+03 -1.52311E+03
 -6.04808E+03  1.46710E+03 -2.94934E+03  6.41130E+02 -2.75094E+03 -5.44127E+03  4.41393E+03 -6.91335E+03
  7.33969E+03 -2.46420E+03  7.12409E+03 -1.24389E+03  5.24729E+03  9.00843E+03  1.33865E+03  5.95426E+03
 -2.02913E+03  4.32631E+03 -3.42102E+03  1.35605E+03  2.35872E+03  9.62086E+02 -2.80405E+03  3.61717E+03
  2.22380E+03  6.44373E+03 -2.37863E+03  1.72662E+03 -3.80356E+03  2.55719E+03 -1.98895E+03 -9.67870E+01
 -1.69833E+03 -3.86168E+03  1.75517E+03 -7.07139E+03  6.47451E+03 -8.48315E+00  2.37342E+03 -2.65380E+03
  3.63783E+03  6.75416E+03  3.57499E+03  4.41828E+03 -1.34361E+03  5.03304E+03  3.39866E+03  3.43952E+03
 -6.87958E+03 -9.37774E+02 -2.55839E+03 -3.08749E+03  2.35262E+03 -1.51148E+03 -2.00142E+03 -5.66658E+03
  1.92492E+03 -2.77546E+03  3.57098E+03  1.87685E+03 -1.27882E+02  1.65381E+03  2.08716E+03  2.03083E+03
  3.06408E+03  3.52419E+03  1.06721E+03 -2.47646E+03  4.60198E+03  2.17727E+03 -1.75747E+03 -2.69573E+03
 -1.44968E+03  2.42152E+03 -5.04386E+03  5.91075E+03 -1.44581E+03 -7.98307E+02 -5.10270E+03  6.16496E+02
 -1.65107E+03 -6.55564E+03  2.58045E+03 -4.40579E+03  4.11076E+03 -4.95650E+03  4.58476E+03 -3.96669E+03
  1.63822E+03  3.09397E+03 -1.68464E+03  4.49595E+03 -3.22024E+03  5.55983E+03 -6.73236E+03  2.55560E+03
 -2.88150E+02  2.63272E+03  9.62267E+02 -2.80096E+03 -2.12991E+03  1.12188E+02  2.92542E+03  3.29471E+03
  5.70908E+02  6.81301E+02 -8.38479E+02 -2.23037E+03 -1.14975E+03  1.34302E+03  4.98402E+02  1.06207E+03
  5.00117E+02 -2.60007E+03 -1.07274E+03 -2.72952E+03  8.32293E+02  3.36761E+03 -1.82079E+03  6.18121E+03
 -2.21739E+03  6.36459E+02  1.07772E+03  2.00084E+03 -3.12994E+03  2.27904E+03  2.05732E+03  1.28296E+03
  5.72041E+02 -5.41481E+03 -3.66251E+02 -1.11091E+03  1.37441E+03 -6.54473E+02  1.67251E+03  1.14983E+03
 -4.34262E+03  1.33749E+03 -4.15222E+03 -4.50878E+03 -9.12916E+02 -3.08012E+03 -1.53725E+02  6.51855E+02
  1.76879E+03 -5.07430E+03 -1.82399E+03  2.91068E+03 -1.54961E+03  2.40666E+03 -6.82704E+03  8.18852E+03
  9.38257E+02  9.65786E+02 -7.65516E+03 -1.63666E+03  8.70539E+02 -1.62600E+03  3.04058E+03 -1.53640E+03
  2.65374E+03  4.63283E+03 -2.00804E+03 -2.54554E+03 -1.47071E+03  3.20417E+03 -6.67002E+03 -1.96097E+03
  3.70569E+03 -4.48477E+03 -2.31072E+03 -3.93829E+02 -2.61766E+01 -1.89755E+03 -9.64239E+02 -1.51814E+03
  2.38005E+03 -1.71176E+02  5.69615E+03  2.35263E+03 -1.16769E+03  1.83704E+03  4.69340E+02 -1.92039E+02
  2.48021E+02  4.71541E+03 -2.18159E+03 -8.20350E+02 -1.55287E+03  1.04872E+03 -1.47379E+03  1.76866E+03
 -2.73986E+03 -6.19957E+03 -9.87559E+02  1.32105E+03 -2.74243E+03  5.96852E+02  4.78204E+02 -8.44363E+02
 -2.81443E+03 -2.55753E+03  5.19619E+02 -4.31036E+03  2.99927E+02 -2.16752E+03  5.86542E+02  1.96272E+03
  3.62405E+03  1.86069E+03  4.21751E+01  1.24486E+03  2.60596E+03  1.02117E+03  3.06160E+03  3.34784E+03
  2.09905E+03 -1.42207E+03 -2.49000E+03  7.77575E+02  3.28984E+03  8.97026E+01 -1.41059E+03  3.39236E+03
 -6.62544E+02  4.32181E+03 -1.44700E+03 -1.37808E+02 -9.71506E+02 -2.87588E+01 -6.89572E+03 -2.68128E+03
  2.56306E+03 -2.72019E+03 -1.13911E+03 -1.54360E+03 -3.63583E+02  3.93770E+03 -4.58689E+03  2.77085E+03
 -4.13695E+03  4.76224E+02 -1.61604E+02  9.58898E+02  1.79782E+02 -9.53387E+02  1.28910E+03  8.64672E+03
 -1.43243E+03 -3.90179E+03  4.31282E+03 -3.49555E+03 -1.86681E+03  2.41989E+03  1.60597E+03 -1.53311E+03
  5.19146E+02 -1.51321E+03 -3.56161E+02  1.95746E+02  1.07633E+03 -2.92185E+03 -1.69642E+03  8.28865E+02
 -3.74875E+03 -6.62690E+02  4.61318E+03  3.59044E+03  4.73101E+02 -3.90887E+01 -3.95423E+03  2.06386E+03
  1.15667E+03 -1.30094E+03  1.19066E+02  2.95802E+03 -3.68646E+03 -3.47440E+02  1.27183E+03 -1.13946E+03
 -3.34276E+03  1.91116E+03 -2.10647E+03  1.91447E+02  1.18536E+03 -6.16358E+02 -1.35498E+03  2.56192E+03
  3.93142E+03  9.04956E+02 -8.00395E+02  1.71739E+03  1.31010E+03  4.75172E+01 -1.13712E+03 -7.54241E+02
 -2.84383E+03 -6.59126E+02 -6.92180E+02 -3.85125E+03 -2.27750E+03  7.04346E+02 -2.13626E+03 -5.57894E+03
  1.60901E+03  1.19408E+03  1.75280E+03  3.67647E+02 -2.17975E+03  2.52001E+02 -1.96368E+03 -3.26535E+02
  2.25140E+03  1.87854E+03  3.78058E+03 -4.38116E+02  2.87656E+02 -3.67883E+02  2.77812E+03 -1.81518E+03
