 $NMID ID='MM_0lb_SNR50_13hz_g60_69.RAW', FMTDAT='(8E13.5)'
 TRAMP=1., VOLUME=1. $END
  3.05950E+05  1.79570E+03  3.40384E+05  2.53051E+05  8.48825E+04  3.39041E+05 -1.37351E+05  2.50461E+05
 -1.88302E+05  8.24146E+04 -1.12451E+05 -2.77565E+04 -3.01894E+03 -5.17606E+04  5.41114E+04 -1.05572E+03
  3.44171E+04  5.17599E+04 -1.84247E+04  7.83196E+04 -6.35291E+04  6.52565E+04 -8.10182E+04  3.15813E+04
 -8.13483E+04 -1.45763E+04 -5.86419E+04 -4.73960E+04 -1.32475E+04 -7.29027E+04  3.04045E+04 -4.30859E+04
  4.10440E+04  3.33436E+03  1.53127E+04  4.74344E+04 -3.42007E+04  4.75237E+04 -6.70616E+04 -3.46331E+03
 -6.12370E+04 -4.95927E+04 -4.14021E+03 -7.54583E+04  3.55147E+04 -5.86652E+04  5.11556E+04 -2.26376E+04
  4.18238E+04  8.22520E+03  4.33386E+04  2.42874E+04  1.63944E+04  3.15231E+04 -6.48626E+03  2.97914E+04
 -1.56584E+04  8.41003E+03 -1.76000E+04 -5.82996E+03  4.61620E+03 -4.02311E+03  2.66215E+04  1.16919E+04
  1.16943E+04  3.89896E+04 -3.54053E+04  3.59546E+04 -6.61787E+04  4.74095E+02 -6.22240E+04 -4.64824E+04
 -1.75308E+04 -6.30655E+04  4.48609E+04 -4.57978E+04  5.73047E+04  1.53715E+03  3.29131E+04  3.62050E+04
 -7.18440E+03  3.75561E+04 -3.15459E+04  1.87738E+04 -3.16776E+04 -5.89747E+03 -2.21308E+04 -1.39976E+04
 -1.18637E+04 -1.80534E+04 -8.26945E+02 -2.05587E+04  1.04210E+04 -2.20193E+04  1.57060E+04 -1.20362E+04
  1.13557E+04  5.54564E+03 -7.07535E+03  1.18009E+04 -1.85652E+04 -6.59487E+03 -8.86891E+03 -3.38086E+04
  2.56725E+04 -4.69332E+04  5.00333E+04 -2.11935E+04  4.53052E+04  2.03588E+04  1.99123E+04  4.09438E+04
 -1.86355E+04  3.72115E+04 -2.53712E+04 -1.68163E+03 -1.36798E+04 -3.01537E+04  2.46746E+04 -4.27817E+04
  4.09000E+04 -7.26193E+03  3.79203E+04  2.60485E+04  2.12396E+04  4.92229E+04 -1.10340E+04  5.33757E+04
 -3.04434E+04  3.64733E+04 -4.33015E+04  1.72896E+04 -3.98390E+04 -1.65384E+04 -1.76432E+04 -4.21777E+04
  3.87366E+03 -3.96203E+04  3.46178E+04 -2.21362E+04  3.05485E+04  8.71027E+03  3.52835E+03  1.99237E+04
 -1.84595E+04  8.74528E+03 -1.00717E+04 -1.44678E+03  1.08201E+04 -8.62656E+03  1.36186E+04  5.45203E+03
  1.88120E+04  2.26072E+04 -4.63044E+03  2.87935E+04 -2.36507E+04  1.82993E+04 -3.34787E+04 -1.49815E+03
 -2.43590E+04 -1.22088E+04 -1.22419E+04 -2.30168E+04  4.10640E+03 -2.56190E+04  1.77653E+04 -1.78244E+04
  2.91112E+04 -1.74225E+04  3.74271E+04  8.80035E+03  2.26219E+04  2.17494E+04  1.78439E+03  3.61970E+04
 -2.04810E+04  3.40476E+04 -3.01389E+04  1.05090E+04 -2.49218E+04 -8.26921E+03 -4.40228E+03 -1.45258E+04
 -7.29105E+02 -6.14202E+03 -7.53895E+03  8.67883E+03 -1.87157E+04  7.63122E+03 -1.98231E+04 -9.51616E+03
 -1.11220E+04 -1.73488E+04  1.05556E+04 -2.32552E+04  1.78010E+04 -1.64473E+04  2.03632E+04  2.04823E+03
  1.37334E+04  1.56444E+04 -7.09211E+03  1.95114E+04 -1.29550E+04  9.24336E+03 -2.54019E+04 -7.43995E+03
 -1.91011E+04 -1.95063E+04  9.29124E+02 -2.75547E+04  1.15001E+04 -2.13970E+04  1.95849E+04 -1.39966E+04
  1.85826E+04  2.60306E+03  1.39863E+04  1.76379E+03  5.97501E+03  8.40521E+02  1.14877E+04  2.62537E+02
  1.56931E+04  4.76151E+02  2.56523E+04  1.89245E+04  1.72018E+04  3.13922E+04 -4.27190E+03  3.63674E+04
 -2.50064E+04  3.28935E+04 -3.50447E+04  1.56903E+04 -3.77128E+04 -5.21658E+03 -3.27887E+04 -2.22497E+04
 -1.43528E+04 -3.37508E+04  1.49460E+04 -2.85893E+04  2.71603E+04 -1.33747E+04  1.98329E+04  9.94134E+03
  8.67340E+03  1.71888E+04 -1.11860E+04  1.65049E+04 -2.03322E+04  2.24582E+03 -1.63125E+04 -1.54030E+04
 -1.24897E+03 -1.55383E+04  7.87777E+03 -1.88262E+04  1.51524E+04  3.49936E+03  1.02295E+03  8.09188E+03
 -8.58943E+03  5.84283E+03 -2.62991E+03 -6.06748E+03 -1.45364E+03 -2.13135E+04  7.42135E+03 -1.46011E+04
  2.08079E+04 -1.00442E+04  1.92487E+04  2.75692E+03  2.09174E+04  1.57872E+04  9.69752E+03  2.33920E+04
 -2.41643E+03  2.57581E+04 -1.78459E+04  1.74641E+04 -2.23054E+04  2.19744E+03 -1.05736E+04 -4.89738E+03
 -5.92617E+03 -7.35686E+03 -2.31541E+03  2.76485E+03  3.89944E+02 -3.60864E+03 -7.40766E+03  8.28661E+03
 -1.22144E+04  4.30432E+02 -1.22776E+04 -8.97695E+03 -4.29786E+03 -1.71692E+04  5.65513E+03 -1.41079E+04
  1.04551E+04 -3.99763E+03  8.66154E+03  1.77306E+03  2.12807E+03  4.46161E+03 -5.72806E+03 -1.19007E+03
 -6.07428E+03 -1.10990E+04  6.16283E+02 -1.13031E+04  1.36114E+04 -7.87780E+03  1.86203E+04 -4.14355E+03
  2.01434E+04  2.80725E+03  1.64545E+04  1.42295E+04  4.90898E+03  9.58836E+03 -1.27037E+04  1.39149E+04
 -1.09580E+04  5.20002E+03  2.54784E+03 -5.46072E+03  7.95036E+02 -2.56296E+03  6.96527E+03 -4.17851E+03
  7.23379E+03  4.43987E+03  2.14004E+03  1.40263E+04 -3.73145E+03  1.00598E+04 -1.57164E+04  1.54233E+03
 -1.05087E+04 -3.15189E+03  1.15799E+03 -9.37387E+03  7.01254E+03 -5.68366E+03  9.18090E+03  1.59207E+03
 -4.76340E+02  2.46854E+03 -4.70458E+03  1.07039E+04 -1.86137E+04  2.69560E+03 -5.07428E+03 -5.15155E+03
 -8.18840E+03 -1.24208E+04 -1.21394E+02 -1.19224E+04  5.97220E+03 -4.60053E+03  8.81776E+03 -3.34917E+02
  8.29206E+03  7.10313E+03  1.11905E+03  1.23784E+04 -9.39266E+03  6.73380E+03 -1.15177E+04 -1.75112E+02
 -8.61901E+03 -5.04191E+03  6.75758E+02 -1.17148E+04  6.72149E+03 -8.70736E+03  6.16140E+03 -3.39184E+03
  6.31036E+03 -2.33149E+03 -3.29640E+03 -2.09801E+03  1.97657E+03  3.71641E+03  4.05883E+03 -5.68536E+03
  5.39959E+03 -4.50244E+03  1.50329E+04  6.10920E+02  1.11991E+04  7.15731E+03  9.12826E+03  1.53153E+04
 -4.25144E+03  1.55528E+04 -1.50595E+04  1.12142E+04 -1.82553E+04  2.25906E+03 -1.65332E+04 -7.64029E+03
 -5.20694E+03 -6.94558E+03  4.39927E+02 -1.09668E+04  8.51879E+03 -8.99237E+03  4.55080E+03 -2.56263E+03
  1.87296E+03 -1.24165E+03  4.93420E+03 -4.03667E+03  6.98270E+03  4.20639E+03  8.03563E+03 -3.49708E+03
  6.42633E+03  4.93571E+02  1.96752E+03  6.07801E+03 -1.07054E+03  4.54263E+03 -1.22202E+04  1.03067E+04
 -1.00015E+04 -5.81372E+03 -4.69117E+03 -6.31583E+03 -4.00562E+03 -1.19053E+04  3.89351E+03 -1.12907E+04
  1.02563E+04 -4.38557E+03  2.18723E+04 -1.59665E+03  8.77358E+03  7.75609E+03 -1.46635E+03  1.11732E+04
 -3.03834E+03  1.22492E+04 -1.07451E+04  5.19693E+03 -7.25309E+03 -8.22171E+02 -1.23542E+03  1.73879E+03
 -5.40450E+03 -1.39554E+02 -2.55054E+03  1.20044E+03 -6.25427E+03  3.41245E+02 -9.33156E+03 -8.00067E+02
 -2.91977E+03 -1.35048E+04  1.44447E+03 -7.94327E+03  7.81181E+03 -7.27571E+03  8.01601E+03  5.39639E+03
  1.19973E+04  6.66388E+03  5.40962E+03  4.86468E+03  1.37859E+03  1.04890E+04 -4.20820E+03  7.93062E+03
 -6.73266E+03 -3.32976E+03 -1.04168E+04 -1.97042E+03 -7.36809E+02 -1.31547E+04  4.13577E+03 -4.54803E+03
  6.56097E+03 -3.00029E+03  3.42224E+03  3.28542E+03  3.94170E+03 -2.24446E+03  1.40387E+03 -2.12680E+03
  4.19643E+03  7.97439E+02  4.72828E+03 -2.75143E+03  4.27390E+03  1.54992E+03  4.81845E+02  2.16743E+03
 -3.15551E+03  2.44392E+03 -1.04658E+04  1.21109E+04 -6.23901E+03 -1.20999E+02 -8.14700E+03 -1.11981E+02
 -6.16820E+03 -1.61342E+04 -3.87573E+03 -7.76847E+03  2.47443E+03 -7.64929E+03  1.03432E+04  3.74811E+03
  8.51010E+03  8.55435E+03 -1.10829E+03  8.66056E+03  3.05062E+03  3.35902E+03 -3.63372E+03 -1.92379E+03
 -1.53455E+03 -4.13695E+03  1.23360E+03 -4.31061E+03  3.79001E+02 -9.77031E+02  1.18245E+03  2.41607E+03
  3.93544E+03  8.56232E+03 -2.28073E+03  6.73374E+03 -1.39929E+03 -2.53345E+03 -3.00104E+03 -3.87288E+03
  1.23182E+03 -2.05413E+01  4.48518E+03  2.50127E+03  1.96768E+03  2.15103E+03 -4.87595E+03  9.09404E+03
 -6.35515E+02  9.92484E+01 -9.59130E+03  8.77231E+02 -1.00456E+04 -6.59304E+03 -1.05773E+01 -5.24702E+03
  1.17892E+03 -5.66761E+03 -4.11871E+02 -1.96436E+03  4.30087E+02  9.37901E+03 -1.85285E+03  4.76549E+03
 -5.50658E+03  4.30658E+03 -3.24855E+03 -1.35399E+03 -1.94083E+03 -7.55443E+03  2.91258E+03 -1.45824E+03
  6.41880E+03 -1.07463E+03  2.19627E+03  2.84191E+03  5.99673E+02 -1.82332E+03  2.57363E+02  5.42723E+03
 -9.48259E+02 -3.03876E+03 -8.75970E+03 -4.69910E+02  1.46298E+03 -4.85804E+03  3.93170E+03 -5.88037E+03
  5.62063E+03 -1.67766E+03  5.89208E+03  4.22874E+03 -5.59597E+02  6.02937E+03 -8.74920E+03 -6.37389E+02
 -5.55390E+03  8.63914E+02 -2.27162E+03  3.41332E+03 -4.46669E+03 -3.58959E+03  2.74814E+03 -1.17763E+03
  4.45457E+03 -5.03659E+03  3.17623E+03 -1.82021E+03 -3.55587E+03  4.31524E+03 -2.35782E+03  3.51909E+03
 -2.50092E+03 -8.66398E+02 -1.22768E+02  3.35658E+03 -4.16947E+03  1.67580E+03 -3.17934E+03  2.53780E+03
  2.39492E+03  5.63223E+03 -5.52465E+03 -3.71342E+02 -3.95168E+03 -5.67160E+02 -9.19526E+03 -5.31562E+03
 -6.57848E+03 -6.53179E+03  6.84495E+03 -6.48897E+03  1.07812E+04 -5.65757E+03  2.67462E+03  2.29906E+01
  8.23418E+03 -2.59536E+03  4.85364E+03  4.83508E+03  1.99310E+03  2.81003E+03 -1.66331E+03  1.85053E+03
 -1.74862E+03  6.04989E+03 -2.34752E+03 -2.61330E+02 -3.25830E+03  7.15450E+02 -2.37735E+03  2.59284E+03
 -5.68108E+03  4.83526E+03 -1.92842E+03  1.48316E+02 -2.17907E+03 -2.08482E+03 -2.08140E+02 -2.43223E+03
  3.66816E+03 -3.25499E+03  4.79442E+03 -2.67454E+02  7.53292E+02  3.28487E+03  2.24237E+03  4.55323E+03
 -4.81688E+03 -9.78437E+02 -1.33757E+03  3.29639E+03 -8.01796E+03 -1.08786E+03 -5.11845E+03 -1.40249E+02
 -4.81861E+03 -5.39805E+03  4.29434E+03 -5.97350E+03  1.40754E+03 -5.77894E+03 -1.73825E+03 -1.53383E+03
  4.43240E+02  2.89258E+03  3.87379E+03 -2.58687E+03 -3.27464E+03 -3.58200E+03 -4.94885E+03  2.00545E+01
  3.98709E+03  8.56141E+02  2.91036E+03 -1.06938E+03  1.92588E+03  8.04674E+02 -8.09960E+02 -4.71332E+01
 -8.47655E+02  3.52690E+03 -2.69088E+03 -1.19056E+03 -4.47684E+03 -1.56306E+03 -1.78904E+03 -4.98608E+03
  9.21889E+02 -3.09385E+03  3.81663E+03  1.72079E+03  6.19208E+03  1.12523E+03  4.84853E+02 -1.74605E+03
  1.01480E+03  3.58043E+03 -1.40753E+03  2.25542E+03  9.51103E+02  6.34006E+02 -5.82125E+01  1.92302E+03
 -3.03534E+02 -1.33752E+03 -5.81549E+03 -5.81017E+02  1.67922E+03  5.61925E+03  2.28542E+03 -5.56671E+03
 -8.07198E+03 -4.85875E+03 -4.33525E+03 -5.45873E+03 -3.56483E+02 -7.24054E+03  4.60815E+03 -4.07098E+03
  9.92271E+02 -5.90357E+03  4.20335E+03  4.23415E+03  1.64322E+03  5.23213E+03  2.19106E+03 -2.47840E+03
