 $NMID ID='MM_0lb_SNR50_7hz_g55_72.RAW', FMTDAT='(8E13.5)'
 TRAMP=1., VOLUME=1. $END
  3.11904E+05  6.28093E+03  3.37647E+05  2.47431E+05  8.30523E+04  3.41783E+05 -1.38966E+05  2.47212E+05
 -1.85772E+05  8.09741E+04 -1.13336E+05 -3.31880E+04 -6.14842E+03 -5.03483E+04  5.51370E+04  5.72184E+03
  3.83325E+04  5.12443E+04 -1.17646E+04  7.64972E+04 -6.77860E+04  6.31345E+04 -8.60562E+04  3.16685E+04
 -8.20629E+04 -1.40227E+04 -5.24586E+04 -5.23703E+04 -1.47382E+04 -6.33475E+04  2.16914E+04 -5.09689E+04
  4.22240E+04  1.05557E+03  1.19387E+04  5.23285E+04 -2.90266E+04  3.83366E+04 -7.08791E+04 -1.66295E+03
 -5.47959E+04 -5.88881E+04 -9.65255E+03 -7.80351E+04  4.23168E+04 -5.95341E+04  5.01564E+04 -1.83826E+04
  4.62803E+04  9.39218E+03  3.88080E+04  3.00808E+04  1.67288E+04  2.97945E+04 -7.75960E+03  3.35952E+04
 -2.21866E+04  1.40542E+04 -1.54268E+04 -5.15666E+03  8.54647E+03 -1.11456E+04  1.73109E+04  1.22938E+04
  9.31229E+03  3.24494E+04 -3.23476E+04  3.67225E+04 -6.87736E+04 -6.94934E+03 -6.12836E+04 -4.92087E+04
 -8.32830E+03 -6.29681E+04  4.28601E+04 -5.48781E+04  6.16068E+04 -8.85960E+02  4.16562E+04  3.19339E+04
 -5.02824E+03  3.89517E+04 -3.18444E+04  2.64112E+04 -3.91132E+04 -8.88177E+03 -1.48946E+04 -1.34519E+04
 -1.25600E+04 -1.47110E+04 -2.12990E+03 -1.87984E+04  1.27180E+04 -2.35922E+04  2.02642E+04 -8.51402E+03
  6.86592E+03  7.58750E+03 -1.01501E+04  1.59835E+04 -2.65245E+04 -4.74802E+03 -1.22608E+04 -3.93513E+04
  3.32754E+04 -5.05671E+04  5.31623E+04 -1.78961E+04  5.21199E+04  2.34768E+04  1.78256E+04  5.03021E+04
 -1.85998E+04  4.08683E+04 -3.44069E+04 -6.79920E+03 -1.13866E+04 -3.01416E+04  2.65204E+04 -3.97979E+04
  4.18683E+04 -7.75070E+03  4.71638E+04  3.23715E+04  2.37080E+04  5.40867E+04 -6.21395E+03  6.34344E+04
 -3.56216E+04  4.62295E+04 -5.34116E+04  5.28507E+03 -4.63696E+04 -1.59755E+04 -3.22832E+04 -4.45314E+04
  1.13534E+04 -5.49722E+04  3.93282E+04 -1.65272E+04  3.91043E+04  7.38360E+03  9.60463E+03  2.14293E+04
 -1.03535E+04  1.04979E+04 -6.76570E+03 -1.38381E+04 -8.73956E+02 -1.29771E+04  1.20614E+04  6.94331E+03
  2.28484E+04  2.32752E+04 -3.28592E+03  2.45942E+04 -3.51068E+04  1.26537E+04 -3.40524E+04 -5.70643E+03
 -3.15601E+04 -2.23064E+04 -1.19338E+04 -1.89118E+04  6.21614E+03 -2.73290E+04  2.61710E+04 -2.28104E+04
  3.34574E+04 -1.56032E+04  4.89273E+04  6.42763E+03  2.99974E+04  3.54444E+04  1.87024E+03  4.11775E+04
 -2.39672E+04  3.52551E+04 -3.49605E+04  8.46486E+03 -2.35904E+04 -7.79540E+03 -8.05105E+03 -5.82080E+03
  1.36510E+03  6.35839E+03 -1.42197E+03  1.16759E+04 -2.63395E+04  6.71953E+03 -2.00312E+04 -1.69665E+04
 -1.36257E+04 -2.55413E+04  3.29762E+03 -3.04516E+04  1.79410E+04 -1.88380E+04  2.95268E+04  3.61320E+03
  1.25484E+04  1.40817E+04 -9.56066E+03  2.82224E+04 -2.42991E+04  1.44967E+04 -3.20784E+04 -1.08691E+04
 -1.65296E+04 -2.05422E+04 -3.88366E+03 -2.19367E+04  1.40418E+04 -2.63979E+04  2.76167E+04 -1.42797E+04
  3.18083E+04  2.56934E+03  2.13389E+04  4.28130E+02  8.96702E+03 -5.66728E+02  1.33590E+04 -7.65379E+02
  2.40183E+04  4.26180E+03  2.61209E+04  1.84056E+04  1.82964E+04  4.67105E+04 -2.80688E+03  4.88767E+04
 -3.10660E+04  3.73079E+04 -4.52848E+04  2.02328E+04 -4.50017E+04 -3.45251E+03 -4.29580E+04 -2.93134E+04
 -1.07746E+04 -4.46486E+04  1.87541E+04 -3.75655E+04  1.77631E+04 -1.49682E+04  2.23279E+04  1.30402E+04
  8.47911E+03  1.83289E+04 -1.54039E+04  1.33730E+04 -2.23366E+04  5.99846E+03 -1.45939E+04 -2.02676E+04
  2.63561E+03 -2.67511E+04  1.83161E+04 -1.57572E+04  1.53422E+04 -3.92632E+03 -1.08234E+02  8.37960E+03
 -3.66131E+03  1.41264E+03 -1.17167E+04 -1.03096E+03  1.18356E+03 -2.06599E+04  1.65390E+04 -2.64392E+04
  1.94006E+04 -1.34717E+04  3.11119E+04 -2.52223E+02  2.86539E+04  2.90696E+04  1.61407E+04  2.60187E+04
 -3.12564E+03  3.52273E+04 -2.59649E+04  2.51600E+04 -2.37161E+04 -2.53497E+03 -1.31962E+04 -8.96142E+03
 -7.32362E+02 -5.93040E+03 -8.89534E+03  2.73502E+03  5.18072E+03  2.13228E+03 -5.88212E+03 -2.17452E+03
 -1.69373E+04 -8.02249E+03 -1.32781E+04 -1.45344E+04 -4.58992E+03 -2.25111E+04  5.90762E+03 -1.69188E+04
  1.54356E+04 -1.53382E+04  1.08321E+04  6.31613E+02 -7.37777E+03  6.21635E+03 -1.57332E+04  8.93530E+02
 -1.18295E+04 -5.59754E+03  2.73096E+03 -1.38697E+04  6.42333E+03 -1.76523E+04  2.65735E+04 -1.08255E+04
  3.45017E+04  4.87678E+03  2.71128E+04  1.78262E+04  3.01708E+02  2.27100E+04 -6.65665E+03  1.69908E+04
 -1.55016E+04 -1.34521E+02 -2.46802E+03  7.80172E+02  3.22250E+03 -3.62809E+03  1.39582E+04 -3.28373E+03
  5.88547E+03  1.18384E+04  5.73642E+03  1.98913E+04 -1.41441E+04  7.29627E+03 -1.55092E+04  2.94816E+03
 -1.02305E+04 -1.43433E+04  5.98803E+03 -1.95754E+04  1.66661E+04 -1.24246E+04  1.20714E+04  8.86527E+03
  7.64006E+03  8.80591E+03 -7.21192E+03  1.85170E+04 -1.92680E+04  4.39771E+03 -2.51143E+04 -2.29256E+03
 -8.86964E+03 -1.53780E+04  4.00665E+03 -1.77953E+04  1.19966E+04 -1.66597E+04  2.58298E+04  7.03098E+03
  1.43245E+04  2.28883E+04 -5.40413E+02  1.60305E+04 -2.14284E+04  6.89181E+03 -5.61317E+03 -4.10110E+03
 -1.56991E+04 -8.63346E+03 -6.68480E+03 -1.46440E+04  1.06203E+04 -1.53477E+04  6.93574E+03  2.90334E+03
  8.54170E+03  4.11192E+03 -2.85216E+03  4.34115E+03 -2.30556E+03 -6.62109E+03 -4.22828E+03 -1.42978E+04
  1.29071E+04 -7.86985E+03  1.80828E+04  4.26829E+03  2.18608E+04  1.60288E+04  1.08081E+04  2.90144E+04
 -7.66736E+03  2.86664E+04 -2.73990E+04  1.75770E+04 -2.85956E+04  1.09316E+04 -2.46598E+04 -1.38692E+04
 -1.28666E+04 -2.60765E+04 -1.07778E+03 -2.16909E+04 -1.32219E+03 -1.43895E+04  5.85083E+03 -8.84881E+03
  2.92421E+03 -1.00421E+03  1.33635E+04 -3.45337E+03  5.59665E+03 -6.44039E+03  9.89416E+03 -1.60112E+03
  1.62200E+04  3.94064E+03  1.08527E+04  1.70242E+04 -6.15310E+03  1.66359E+04 -1.51833E+04  6.76191E+03
 -2.20616E+04  2.45785E+00 -1.33382E+04 -1.36221E+04 -1.87404E+03 -1.69912E+04  7.76625E+03 -2.95789E+04
  2.19039E+04 -1.59139E+04  2.79495E+04  4.17780E+03  1.89371E+04  1.53829E+04  6.52399E+03  1.55424E+04
 -9.59234E+03  1.39441E+04 -1.15342E+04  3.33844E+03 -1.24159E+04 -1.98643E+03 -1.97474E+04 -4.27881E+03
 -2.82573E+03  2.04992E+03 -9.25581E+03  4.96475E+03 -6.36273E+03  3.45611E+03 -7.54012E+03  8.79479E+02
 -9.83817E+03 -1.33346E+04 -2.25764E+03 -1.35480E+04  1.57958E+04 -1.25894E+04  1.97064E+04 -8.20305E+03
  2.41736E+04  1.30555E+04  6.01284E+03  1.26596E+04 -8.31055E+02  1.96832E+04 -1.20238E+04  8.81874E+03
 -2.29702E+04 -2.30881E+03 -1.59444E+04 -1.09590E+04 -2.99094E+03 -1.93817E+04  1.23566E+04 -1.84852E+04
  7.32924E+03 -3.53190E+03  6.59171E+03  1.74763E+03  1.02972E+04  9.20005E+03 -2.33122E+01  1.81562E+03
 -2.47100E+02 -2.28742E+03  5.84929E+03  4.81848E+03  4.79646E+03  1.28460E+03  4.66842E+03  1.55997E+04
  2.00134E+02  1.94712E+04 -1.46160E+04  1.36444E+04 -2.42429E+04  2.67990E+03 -1.86338E+04 -6.12220E+03
 -8.64584E+03 -1.41607E+04  5.40233E+03 -2.19306E+04  1.10424E+04 -1.39581E+04  1.60616E+04  1.42566E+03
  1.46899E+04  1.37981E+04 -2.79504E+03  1.63150E+04 -1.07227E+04  1.05509E+04 -7.17740E+03 -1.14697E+03
 -1.39828E+03 -1.27821E+04 -1.76584E+02 -1.06862E+04  1.21608E+04  3.27801E+03  8.10643E+03  5.27166E+03
  3.68782E+03  7.67774E+02 -5.64223E+02  1.17618E+03 -3.14790E+03  5.44817E+03  4.65495E+02  7.65252E+02
  5.24107E+03  7.97267E+03  8.32635E+03  8.63326E+03  6.09771E+03  9.86217E+03 -7.93080E+03  1.46629E+04
 -1.01296E+04  1.33612E+04 -1.18774E+04  3.24445E+03 -1.15520E+04 -4.10549E+03 -1.20989E+03 -1.15214E+04
  7.78892E+02 -9.61772E+03  5.56846E+03 -5.87600E+03  2.17130E+02  7.95759E+03 -3.84860E+03  9.86913E+03
 -3.03359E+02  3.51006E+02 -7.62351E+03 -2.37308E+03 -3.27079E+03 -9.80385E+03  3.78767E+03 -1.48175E+04
  1.27812E+04 -8.45564E+03  9.53573E+03  3.86987E+03  8.71991E+03  5.33859E+03  2.55080E+03  9.07973E+03
 -7.06784E+03  3.23804E+03 -3.62387E+03  1.99251E+02  5.34691E+03 -1.00580E+04  6.60849E+03 -8.74581E+03
  8.54530E+03  8.96350E+03  1.16383E+04  1.43325E+04  3.81159E+03  1.48832E+04 -2.24381E+03  1.33932E+04
 -1.43100E+04  1.29330E+04 -1.44733E+04 -9.92865E+03 -2.23353E+03 -5.43542E+03  9.22920E+02 -5.79039E+03
  3.06660E+03 -5.14759E+02 -7.74358E+02  8.01558E+03 -5.04501E+03  9.84102E+03  1.74362E+03  4.56117E+03
 -3.35013E+03  7.76303E+03 -1.14142E+04 -4.50635E+03  6.92479E+03  2.15702E+03  1.06639E+03  8.47151E+03
 -1.89229E+03  6.92583E+03 -4.21386E+03  1.14178E+04 -1.08583E+04  4.48498E+03 -1.50697E+04 -1.15994E+04
 -1.53719E+04 -2.48073E+04  1.89550E+04 -2.37428E+04  2.32570E+04 -2.44944E+04  2.84255E+04 -1.35991E+04
  2.17850E+04  2.77624E+03  1.16758E+04  8.49867E+03 -1.51740E+03  1.05482E+04 -7.75228E+03  7.16669E+03
 -4.95812E+03  5.04243E+03 -7.88290E+03 -5.33890E+03 -4.65654E+03 -6.10217E+03 -3.83050E+03 -1.62015E+03
  5.19910E+03 -6.41803E+03 -8.35198E+03  4.04587E+03 -1.52165E+02  5.98531E+03  7.33189E+03 -1.08113E+04
 -3.48793E+02 -2.63894E+03  9.06607E+03  4.13566E+03  1.59697E+04  1.21734E+04 -1.96620E+03  1.37602E+04
 -6.20536E+03  9.97858E+03 -1.42535E+04  8.39981E+03 -2.01212E+04 -4.60657E+03 -2.04872E+04 -8.91835E+03
 -3.04592E+03 -1.63250E+04  3.04639E+03 -1.78151E+04  9.27749E+03 -5.04267E+03  1.09072E+04 -4.74799E+01
  6.51719E+03  4.35240E+03  6.20863E+02  7.99936E+03 -9.03156E+03 -7.29388E+02 -4.81164E+03  4.27621E+03
  5.18396E+03 -2.19440E+03  8.83774E+03 -7.79886E+03  1.97106E+01  1.11678E+04  4.67891E+03  5.45343E+03
 -9.91407E+03  3.78291E+03 -2.05605E+04  5.72684E+03 -9.42222E+02 -8.76011E+03  7.60948E+02 -1.52546E+04
  9.28686E+03 -1.89758E+04  2.58346E+04  2.05184E+02  1.05964E+04  7.05143E+03  4.67538E+03  5.43396E+03
  1.51546E+03  4.04412E+03 -2.89766E+03  1.51899E+04 -9.18408E+03  8.63239E+03 -3.13457E+03  4.66635E+02
 -3.39282E+03  2.51730E+03 -5.49025E+03 -7.41639E+01 -6.48625E+03  1.03366E+03 -2.57016E+03 -2.70644E+03
 -9.10138E+03 -1.10002E+04 -6.54037E+03 -1.08824E+04  8.95171E+03 -5.70047E+03  1.41859E+04 -1.04591E+04
  1.26562E+04 -1.29465E+03  6.04615E+03  8.58488E+03 -1.19600E+03  8.77735E+03 -8.19833E+03  1.21848E+04
