 $NMID ID='MM_0lb_SNR50_19hz_g40_97.RAW', FMTDAT='(8E13.5)'
 TRAMP=1., VOLUME=1. $END
  3.06838E+05  6.25538E+02  3.38156E+05  2.50731E+05  8.30647E+04  3.34153E+05 -1.34962E+05  2.52377E+05
 -1.88078E+05  8.58637E+04 -1.10628E+05 -3.22296E+04  5.60897E+03 -5.03407E+04  5.34014E+04 -6.18367E+03
  3.66891E+04  5.41198E+04 -1.61710E+04  7.47423E+04 -6.34913E+04  6.54947E+04 -8.50926E+04  3.07932E+04
 -7.75368E+04 -8.54220E+03 -5.26440E+04 -4.85896E+04 -1.64150E+04 -6.80720E+04  2.24560E+04 -4.72179E+04
  3.48814E+04  5.07810E+03  1.97635E+04  4.68117E+04 -3.51804E+04  4.67073E+04 -6.16237E+04 -1.10574E+03
 -5.26938E+04 -5.43279E+04 -4.67929E+03 -7.09172E+04  3.26218E+04 -5.56113E+04  4.89128E+04 -1.71667E+04
  3.81868E+04  1.15177E+04  2.76739E+04  2.07008E+04  1.56673E+04  2.60336E+04 -1.26053E+03  2.69664E+04
 -2.04180E+04  1.01877E+04 -1.75091E+04 -2.05201E+03  7.12205E+03 -8.38898E+03  1.92512E+04  8.39330E+03
  9.00108E+03  3.11256E+04 -2.69805E+04  3.24474E+04 -5.95777E+04  3.62635E+03 -5.30018E+04 -4.00281E+04
 -1.30174E+04 -6.12739E+04  3.58646E+04 -3.77955E+04  5.82616E+04  2.49388E+03  3.15203E+04  2.89415E+04
 -7.29876E+03  2.83803E+04 -2.65675E+04  1.57753E+04 -2.56365E+04 -7.83211E+03 -1.47494E+04 -8.13255E+03
 -6.99684E+03 -8.91106E+03 -2.48460E+02 -1.44413E+04  5.94835E+03 -2.06684E+04  1.39057E+04 -1.32398E+04
  1.48267E+04  3.26341E+03 -6.89578E+03  1.02566E+04 -2.31004E+04 -4.57388E+03 -6.09024E+03 -2.72587E+04
  2.18590E+04 -4.31170E+04  4.28617E+04 -2.05713E+04  4.11152E+04  1.93220E+04  1.22700E+04  4.21679E+04
 -1.57666E+04  2.43915E+04 -1.90306E+04  3.78415E+03 -8.20018E+03 -2.66645E+04  1.90447E+04 -2.91196E+04
  3.82174E+04 -5.81952E+03  3.08708E+04  1.80987E+04  1.44432E+04  4.22169E+04 -6.67335E+03  4.30107E+04
 -2.85833E+04  3.15942E+04 -3.48795E+04  9.72394E+03 -3.78958E+04 -1.56285E+04 -2.44145E+04 -3.47199E+04
  2.40442E+03 -3.17135E+04  2.81111E+04 -1.25046E+04  2.42555E+04  1.12669E+04 -3.32961E+02  1.85283E+04
 -1.35479E+04  9.55769E+03 -7.35925E+03 -6.60638E+03  7.34302E+03 -1.08084E+04  1.82442E+04  1.72893E+02
  1.06494E+04  2.07724E+04 -3.32569E+03  2.47401E+04 -2.00433E+04  1.24191E+04 -2.60980E+04 -9.02449E+03
 -1.68967E+04 -1.16259E+04 -3.36877E+03 -1.52655E+04  2.26809E+03 -1.04805E+04  1.27644E+04 -1.39701E+04
  2.00166E+04 -1.39362E+04  2.68183E+04 -3.62266E+03  2.26627E+04  1.81944E+04  1.51036E+03  2.76619E+04
 -1.50140E+04  2.32807E+04 -2.38698E+04  1.02029E+04 -2.18767E+04 -1.18288E+04 -4.57309E+03 -1.45525E+04
  2.83036E+03 -2.23835E+03 -6.85860E+02  7.95871E+03 -8.92829E+03  8.73963E+03 -9.60024E+03 -2.16446E+03
 -6.86107E+03 -1.40363E+04  5.78496E+03 -2.11264E+04  1.18111E+04 -1.39862E+04  1.46170E+04  3.51883E+03
  5.69867E+03  6.69992E+03 -2.97364E+03  1.42092E+04 -5.68631E+03  8.23173E+03 -1.58914E+04 -4.09739E+03
 -1.08600E+04 -1.54571E+04 -2.98592E+03 -2.03372E+04  8.83293E+03 -1.44205E+04  1.64680E+04 -5.43144E+03
  1.20584E+04  1.49063E+02  8.15819E+03  6.37662E+03  3.86506E+03  4.52752E+02  4.37626E+03  6.92296E+02
  1.01054E+04  6.51626E+03  1.62542E+04  1.18021E+04  8.29931E+03  2.22093E+04 -1.83328E+03  2.29921E+04
 -1.42000E+04  1.84411E+04 -2.12626E+04  1.18029E+04 -2.46580E+04 -5.92312E+02 -1.95094E+04 -1.25874E+04
 -9.58924E+03 -1.80784E+04  5.09659E+03 -1.79702E+04  1.68549E+04 -5.71726E+03  1.53403E+04  2.15337E+02
  4.66117E+03  1.22780E+04 -4.69741E+03  8.67776E+03 -1.12604E+04  1.61556E+03 -9.90842E+03 -9.96598E+03
  5.77610E+03 -1.23335E+04  4.74763E+03 -6.48262E+03  4.78066E+03 -4.93085E+03  4.46834E+02  4.56213E+03
 -7.85614E+03  3.40130E+03 -1.40087E+03 -2.41682E+03  3.14390E+03 -6.74617E+03  9.30472E+03 -1.20535E+04
  1.11477E+04 -2.75705E+03  1.30281E+04  2.29823E+03  1.22344E+04  6.11220E+03  3.90153E+03  1.24974E+04
 -6.77197E+03  1.79872E+04 -8.03884E+03  9.21682E+03 -1.39413E+04  4.42363E+03 -8.64752E+03 -3.93072E+03
 -4.69492E+03 -1.87301E+02 -1.02248E+03  2.06317E+03 -3.71589E+03  6.14107E+02 -7.05801E+03 -3.43123E+02
 -5.10096E+03 -2.57241E+03 -4.56529E+03 -1.02543E+04 -3.04691E+03 -1.58025E+04  1.98886E+03 -9.28099E+03
  5.87849E+03 -2.26644E+03  8.81230E+03  2.74258E+03  2.41120E+03  3.36335E+03  1.77970E+03 -2.13811E+03
 -5.24744E+02 -5.87424E+03 -2.60382E+03 -7.98183E+03  4.70678E+03 -7.74942E+03  8.40653E+03 -6.56491E+03
  1.04169E+04  2.51746E+03  9.38339E+03  6.38002E+03  1.74472E+03  7.40617E+03 -4.08974E+03  4.54654E+03
 -4.48817E+03 -9.87817E+02 -1.11567E+03 -2.53369E+03  1.86527E+03 -1.67202E+03  1.39510E+03  2.00990E+03
  5.51977E+03  1.44943E+03  1.32574E+03  7.21133E+03 -3.63177E+03  6.06773E+03 -5.55731E+03  6.62221E+03
 -2.48158E+03 -4.01342E+03 -1.30716E+03 -7.94109E+03  3.32306E+03 -4.40830E+03  2.65303E+03 -5.04420E+02
  2.69001E+03  1.73570E+03 -4.14268E+03  3.95756E+03 -7.21506E+03  7.23023E+03 -4.65929E+03 -2.46626E+03
 -2.85505E+03 -5.95229E+03  4.25858E+03 -5.93847E+03  2.55305E+03 -6.24423E+03  6.23399E+03  5.32214E+03
 -6.44415E+02  3.38926E+02 -8.58007E+01  8.43869E+03 -4.75845E+03  7.60876E+03 -6.78666E+03  1.25159E+03
 -3.02490E+03 -5.44553E+03  6.68857E+00 -3.97114E+03  1.73716E+03 -1.15555E+03  2.00919E+03 -3.03755E+03
  3.89701E+03  1.48991E+03  9.41283E+02  3.04043E+03  2.03162E+03 -2.25915E+03  7.98124E+02 -3.89904E+03
  4.06339E+03 -3.75427E+01  3.28675E+03 -1.69342E+03  6.38046E+03  1.66100E+03  4.71067E+03  7.79664E+03
  1.82628E+03  1.23626E+04 -8.92552E+03  6.42172E+03 -7.06928E+03 -8.77879E+00 -7.68950E+03  3.19597E+02
 -3.96219E+03 -7.35052E+03 -3.08418E+03 -6.03965E+03  5.21885E+03 -1.90053E+03 -1.21484E+03 -7.51560E+03
  3.13962E+03  1.22525E+03 -1.28762E+03 -4.50764E+03  8.32710E+02 -3.13105E+03  1.79736E+03  2.64742E+03
  3.49139E+03  1.09021E+03  2.53222E+03  7.40862E+03 -1.71410E+03  9.47013E+02 -5.76027E+03 -2.61348E+03
 -3.10603E+03 -5.70758E+03 -3.71515E+03 -2.86163E+03 -2.84038E+03 -6.26360E+03  2.63446E+03 -5.24390E+03
  5.30765E+03 -3.51273E+03  7.39547E+03 -2.30049E+03  7.56669E+03  4.11695E+03  4.08163E+02  8.24789E+03
 -3.64430E+03  3.71318E+03 -8.30090E+03  2.73777E+03 -2.86797E+03  1.62076E+03 -1.25356E+03  7.17425E+02
  5.73411E+02 -3.28695E+03  2.76343E+03  5.46197E+03 -5.48117E+03 -1.97444E+03 -1.79807E+03 -9.04809E+02
  9.28934E+02 -7.84234E+03  3.62085E+02 -4.54114E+03  3.57161E+03 -6.96358E+03 -2.37373E+01  1.01236E+03
  4.17381E+03  4.42137E+03  9.85145E+02 -2.12961E+03 -5.94958E+01  8.17209E+03 -6.38336E+02  2.79841E+03
 -6.93323E+03 -3.85492E+03 -1.41523E+03 -1.48114E+03  8.59202E+02 -2.39896E+03  6.22774E+03 -1.86687E+03
  2.87426E+03 -2.39794E+03  1.51617E+03  2.10062E+03 -1.52595E+03 -7.83282E+02  1.20177E+03  2.51551E+03
  3.21790E+03  9.94145E+01  1.23423E+03 -1.00560E+03  2.09758E+03  4.40868E+03  4.74892E+03  3.29557E+02
 -1.98837E+03  3.83232E+03  2.92411E+03  2.99474E+03  1.22733E+03 -3.63573E+03 -2.00379E+03  2.11621E+03
 -3.83248E+02 -2.02579E+03  2.51063E+03 -2.79506E+03  4.98009E+03 -1.91065E+03  9.95881E+02  8.15075E+02
  5.00659E+03  1.50274E+03 -1.20292E+03  1.84779E+03  8.06408E+02 -1.82358E+03 -4.88541E+03  8.60686E+01
  6.92660E+02 -3.40994E+02  3.03044E+03  2.56369E+03 -3.41918E+03 -3.35551E+03 -2.16299E+03 -3.21721E+03
  1.32461E+03  5.46560E+02  2.13764E+02 -4.57244E+03  6.48800E+01  4.42628E+02  2.06017E+03 -1.92818E+03
 -5.01030E+02 -3.54384E+03  9.75843E+02 -3.37615E+03  3.79205E+02  3.53104E+03  9.67900E+01  2.79310E+03
 -8.87174E+01  3.70893E+03  7.82464E+02 -3.02771E+03 -6.87425E+02 -1.08192E+03 -3.42013E+03 -1.39303E+03
  2.35295E+03 -6.62397E+02 -2.22559E+02  2.24833E+03 -3.72985E+02  6.31182E+03  2.49073E+03 -8.20423E+02
 -2.68712E+03 -2.21577E+03 -6.21511E+03 -2.54278E+02 -2.49358E+03 -1.44502E+03  1.07421E+03 -3.19784E+02
 -3.33827E+03  1.79111E+02 -1.25232E+03 -5.84885E+02  2.42798E+03  2.83796E+02  1.18188E+03  5.58780E+03
 -1.41862E+03  4.80674E+03 -4.83228E+03 -4.99691E+02  1.15090E+03 -7.77671E+02 -7.59643E+02 -9.32924E+02
 -8.85055E+02 -1.46739E+03  2.48507E+03 -2.41182E+03  9.51882E+02  1.61896E+03 -4.97726E+03  3.39247E+03
 -1.72212E+03 -3.15258E+03 -1.92525E+03 -1.55961E+02  8.66774E+02 -4.67102E+03 -2.58397E+03 -4.02386E+03
  1.22702E+02 -4.36790E+03  3.50921E+03 -2.19156E+03 -5.14609E+02  3.65689E+03  7.25322E+02  3.94453E+03
  2.72535E+02  3.18806E+03  1.75902E+03  1.37414E+03  1.78766E+03  7.84599E+02 -2.59512E+03  2.32431E+03
  9.47807E+01  1.12021E+03  1.19327E+03  3.09470E+03 -1.30043E+03  2.17996E+03  7.98560E+02  1.05602E+03
 -5.15636E+03 -1.36051E+03  2.82311E+02 -4.16086E+03  1.85883E+03 -3.33829E+03  4.89605E+03  1.27991E+03
  3.76984E+03  3.53117E+03 -4.43808E+03  5.90850E+03  1.61608E+03  5.29528E+03 -5.12317E+02  4.69667E+03
  4.34116E+03  1.64298E+03  2.22815E+03 -3.18265E+03 -8.81153E+02  4.59057E+03  2.76609E+03  4.07448E+02
 -1.85266E+02 -1.09092E+03 -4.46869E+03 -2.70586E+03 -1.01226E+02 -2.50522E+03  8.22419E+02  1.24398E+03
  7.96467E+02  9.66667E+02 -1.07620E+03 -6.84615E+02  2.04603E+03  4.56309E+02  5.37161E+02  1.76636E+03
  1.00065E+03  2.05510E+03 -3.52135E+03  1.74603E+03 -1.88996E+03 -3.86494E+02  1.18463E+02 -1.75025E+03
 -2.16367E+03 -6.07197E+03  2.65481E+03 -1.97273E+03  2.51589E+03  4.33622E+03 -4.82616E+01 -5.16790E+02
  2.65771E+03  1.30053E+03  1.47843E+03  9.52267E+01 -3.61616E+02 -5.44896E+03 -4.28746E+03  6.59377E+01
  3.07117E+03 -4.58255E+03 -2.88400E+03  3.03290E+02 -6.75156E+02  7.06792E+02  1.00626E+03  1.86664E+03
 -8.78772E+02 -6.72376E+02 -3.04691E+03 -1.93959E+03 -2.16281E+02  4.96428E+03 -2.77636E+03 -4.44503E+03
 -1.14062E+03 -1.19087E+03 -1.00824E+03 -4.54718E+03 -3.92480E+03 -3.29902E+03  1.10861E+03 -9.03835E+02
 -7.57811E+02  4.84387E+03  1.08683E+03 -1.42698E+03 -2.08352E+03 -3.88755E+02 -3.64434E+03  9.86181E+02
 -2.88328E+03 -3.14769E+02 -2.04019E+03  3.57549E+03  2.63386E+03  1.68020E+02 -4.43978E+02 -1.14708E+03
  1.12603E+03  1.13327E+03 -3.38169E+03 -1.38461E+03 -5.22764E+02 -4.60017E+03 -1.66385E+03 -8.26825E+02
  7.71147E+02 -1.17324E+03 -1.78488E+02 -1.26551E+03 -4.94753E+02 -1.18742E+02 -1.34551E+03 -2.86632E+02
