 $NMID ID='MM_0lb_SNR50_8hz_g45_85.RAW', FMTDAT='(8E13.5)'
 TRAMP=1., VOLUME=1. $END
  3.12763E+05  7.09260E+03  3.28270E+05  2.50367E+05  7.91520E+04  3.40254E+05 -1.37669E+05  2.50688E+05
 -1.96062E+05  7.51932E+04 -1.12981E+05 -3.72738E+04  1.33564E+03 -5.23420E+04  5.56832E+04 -2.90633E+03
  3.63002E+04  5.32934E+04 -1.51303E+04  7.31761E+04 -6.11568E+04  6.66077E+04 -8.55402E+04  3.35968E+04
 -7.99996E+04 -8.70488E+03 -6.39360E+04 -5.20336E+04 -1.64370E+04 -6.59303E+04  3.01495E+04 -4.78535E+04
  3.98498E+04  7.03829E+03  9.31225E+03  4.49495E+04 -4.02707E+04  4.62132E+04 -6.32622E+04 -4.82908E+03
 -4.86282E+04 -5.62957E+04 -5.71673E+03 -8.25399E+04  3.54176E+04 -5.49099E+04  5.96506E+04 -1.71406E+04
  4.31268E+04  8.48829E+03  3.25498E+04  2.65863E+04  1.35340E+04  3.21234E+04 -9.50234E+03  3.09569E+04
 -2.42158E+04  9.92522E+02 -1.60582E+04 -5.55282E+03  1.42818E+04 -2.11263E+03  2.42784E+04  8.38055E+03
  8.40470E+03  3.96828E+04 -3.09332E+04  3.41754E+04 -6.23211E+04 -2.79370E+03 -5.69995E+04 -4.37066E+04
 -1.26455E+04 -6.41979E+04  4.67828E+04 -5.11904E+04  5.33473E+04 -1.51265E+03  3.90045E+04  3.66424E+04
 -7.94527E+03  3.76770E+04 -3.07492E+04  1.72341E+04 -2.95316E+04 -6.61590E+01 -1.73612E+04 -1.39158E+04
 -2.72405E+03 -2.10128E+04  1.82437E+03 -2.48172E+04  4.41451E+03 -1.90099E+04  1.80597E+04 -8.18555E+03
  4.21819E+03  8.19277E+03 -1.20739E+04  1.38736E+04 -2.71887E+04 -8.30454E+03 -8.25075E+03 -3.87975E+04
  3.14331E+04 -4.65737E+04  5.35268E+04 -1.66912E+04  4.61689E+04  2.03698E+04  1.88913E+04  4.98567E+04
 -1.87953E+04  3.32399E+04 -2.71853E+04 -4.58254E+01 -1.60240E+04 -3.22295E+04  1.82444E+04 -4.23171E+04
  4.26871E+04 -5.90695E+03  3.80868E+04  2.46817E+04  1.89023E+04  4.91724E+04 -5.55619E+03  6.39532E+04
 -3.83361E+04  4.20532E+04 -5.02653E+04  8.32741E+03 -4.25930E+04 -1.86802E+04 -2.42772E+04 -3.70234E+04
  9.33456E+03 -4.05748E+04  4.13926E+04 -2.33845E+04  3.38440E+04  1.46145E+04 -2.59149E+03  2.19239E+04
 -1.54491E+04  6.71477E+03 -1.67897E+04 -5.15347E+03  5.24197E+03 -7.51515E+03  1.56907E+04  3.08705E+03
  1.31431E+04  2.39283E+04 -8.05040E+03  2.86963E+04 -2.11062E+04  7.65907E+03 -3.12732E+04  2.36969E+03
 -2.85502E+04 -1.85030E+04 -9.44221E+03 -2.35030E+04  2.29043E+02 -2.75449E+04  1.58639E+04 -2.13090E+04
  3.00433E+04 -1.60058E+04  4.37434E+04 -1.16812E+03  2.73217E+04  2.64502E+04  1.98915E+03  4.12470E+04
 -1.60978E+04  2.76453E+04 -2.75184E+04  1.44515E+04 -1.36756E+04 -1.16540E+04 -1.07916E+04 -1.11914E+04
 -9.86461E+02  2.20543E+03 -9.90073E+03  1.00381E+04 -2.56658E+04  7.48177E+03 -1.69961E+04 -4.58416E+03
 -2.45437E+03 -2.00922E+04  6.48696E+03 -3.27904E+04  1.96431E+04 -2.19204E+04  2.50591E+04  7.44697E+02
  2.02257E+04  1.91758E+04  1.82276E+03  2.36094E+04 -1.06309E+04  1.05402E+04 -1.92603E+04  5.56228E+02
 -2.00350E+04 -2.44256E+04 -7.74795E+03 -3.08244E+04  1.37453E+04 -2.53544E+04  2.82748E+04 -1.75035E+04
  2.60208E+04 -4.51125E+03  1.23117E+04  1.76610E+03  1.07353E+04 -4.47520E+03  9.34093E+03 -3.77978E+03
  2.01990E+04  4.35423E+03  2.74148E+04  1.70073E+04  1.89877E+04  4.08694E+04 -3.49708E+02  4.96098E+04
 -2.61768E+04  3.99620E+04 -4.95253E+04  1.60611E+04 -4.43701E+04 -1.62428E+03 -3.88080E+04 -2.44167E+04
 -1.57203E+04 -3.91998E+04  1.17171E+04 -3.86929E+04  3.05289E+04 -1.79477E+04  2.57322E+04  9.01801E+03
  9.44157E+03  1.57077E+04 -1.55217E+04  1.71334E+04 -1.85061E+04  6.96238E+03 -6.73864E+03 -8.03498E+03
  3.20215E+03 -1.92544E+04  8.12704E+03 -1.91554E+04  7.58531E+03  5.52575E+03 -2.72562E+03  8.02810E+03
 -6.14833E+03  6.82346E+03 -8.62488E+03 -5.38984E+02 -4.07860E+03 -1.66531E+04  1.40752E+04 -2.48676E+04
  2.53000E+04 -1.32389E+04  2.99769E+04 -3.51632E+03  2.03232E+04  2.33464E+04  7.30401E+03  2.78698E+04
 -3.64894E+03  3.24423E+04 -1.62767E+04  2.00191E+04 -2.33811E+04  3.59203E+03 -8.24560E+03 -8.16848E+03
 -4.56582E+03 -4.73306E+03 -5.00126E+03  1.23229E+03 -6.10937E+03 -3.53706E+03 -9.24155E+03  7.21329E+03
 -1.81678E+04  2.23324E+03 -2.02450E+04 -8.79554E+03 -3.66454E+03 -2.21907E+04  3.49325E+03 -1.99902E+04
  5.28502E+03 -3.11475E+03  1.27501E+04  1.13567E+03 -4.68209E+03  1.04392E+04 -7.88623E+03 -1.02176E+04
 -1.24258E+04 -1.28897E+04  2.33774E+03 -1.71204E+04  1.57506E+04 -2.76771E+04  2.28950E+04 -1.39763E+04
  2.44234E+04  3.49132E+03  1.52997E+04  1.78536E+04  1.19619E+04  2.83877E+04 -1.28948E+04  2.10808E+04
 -1.59772E+04  5.27248E+03 -1.44627E+04 -1.24043E+03 -3.58722E+03 -6.50760E+03  7.43889E+03 -6.12577E+03
  6.08362E+03  3.66157E+03  1.43417E+03  1.52278E+04 -8.72170E+03  1.02560E+04 -1.87231E+04  3.13074E+03
 -8.66386E+03 -8.89324E+03  4.19106E+03 -1.06714E+04  5.79392E+03 -7.02693E+03  8.30086E+03  2.00428E+02
  2.30280E+03  1.38580E+04 -7.66891E+03  1.93688E+04 -1.10264E+04  8.88556E+03 -1.26872E+04 -7.73661E+03
 -9.88212E+03 -1.65102E+04  3.30290E+02 -1.38342E+04  1.60189E+04 -8.03632E+03  2.18128E+04  1.04186E+04
  1.35701E+04  1.74941E+04 -2.51406E+03  1.42185E+04 -1.08110E+04  1.89785E+03 -1.88262E+04 -2.56454E+03
 -1.34166E+04 -1.29908E+04 -3.40551E+03 -1.06110E+04  4.62517E+03 -1.05072E+04  7.49289E+03 -3.17549E+03
  1.01147E+04  7.87123E+03 -4.54697E+03  2.69512E+03 -5.24740E+03  4.33365E+03  3.20134E+03 -1.62523E+04
  1.47589E+04 -8.18420E+03  1.05575E+04 -2.07223E+03  1.16300E+04  1.43952E+04  1.41074E+04  1.89185E+04
  7.34982E+02  2.00186E+04 -2.33521E+04  2.56187E+04 -3.13070E+04  3.38299E+03 -2.24331E+04 -1.23387E+04
 -1.13999E+04 -1.66339E+04 -5.26811E+03 -1.21517E+04  6.83354E+03 -6.02193E+03  1.08551E+04 -3.07667E+03
  3.43101E+02 -7.20924E+03  1.59788E+03  2.99798E+03  5.85547E+03 -7.37307E+03  7.92680E+03 -2.41796E+03
  1.34852E+04  5.92038E+03  5.87176E+03  1.27810E+04 -3.83049E+03  1.60113E+04 -4.39964E+03  1.48338E+04
 -1.41428E+04 -7.79082E+02 -1.40436E+04 -1.64885E+04 -5.76833E+03 -8.02288E+03  9.85031E+03 -2.52954E+04
  1.32350E+04 -6.27891E+03  1.96369E+04  4.00492E+03  1.60781E+04  2.12511E+04  6.44424E+03  1.49732E+04
 -7.15162E+03  1.35255E+04 -1.67365E+04 -9.74596E+02 -4.73545E+03 -3.19934E+03  1.30028E+03 -1.14639E+03
 -5.22541E+03  2.17728E+03 -2.44872E+03  4.10998E+03 -8.90041E+03 -2.17939E+03 -1.93958E+04 -5.90797E+03
 -9.82036E+03 -9.28842E+03 -4.22479E+03 -1.40159E+04  5.06784E+03 -1.30119E+04  1.49488E+04 -3.51793E+03
  1.43004E+04  1.01642E+04  8.78251E+03  1.90281E+04 -3.53663E+03  2.08017E+04 -1.43490E+04  1.10316E+04
 -1.52126E+04 -4.80046E+02 -1.02399E+04 -7.54503E+03  4.51226E+02 -1.45729E+04  7.57835E+03 -9.10732E+03
  1.09095E+04 -5.03201E+03  5.00306E+03  7.23909E+03  3.30852E+03  9.86713E+03  9.58724E+02  1.37175E+04
  5.75421E+03  7.45212E+03  3.35340E+03 -3.92402E+03  4.61208E+03  1.01828E+04  2.24003E+03  5.26092E+03
 -4.35117E+03  1.84176E+04 -1.53902E+04  8.47774E+03 -1.90401E+04 -6.26669E+03 -1.68382E+04 -2.19740E+03
 -1.36169E+04 -2.29983E+04  3.07118E+03 -2.61096E+04  9.47541E+03 -1.07951E+04  8.37260E+03 -7.10401E+03
  1.25265E+04  1.13383E+04  3.03278E+03  9.04306E+03 -7.92428E+03 -4.54636E+02 -6.18027E+03 -2.68538E+03
 -1.27554E+03 -8.16325E+03 -1.16658E+02 -4.32565E+03  6.11687E+03 -6.54202E+03  4.40455E+03  3.30135E+03
  1.51445E+03  2.64833E+03 -2.85674E+03  6.53594E+03 -6.62835E+03  1.28608E+02  3.77177E+03  2.58415E+03
  5.12724E+03  3.86421E+03  2.03843E+03  1.98744E+03  6.28646E+03  1.09770E+04  2.26811E+03  9.42440E+03
 -1.09674E+04  9.00731E+03 -8.14848E+03  3.24079E+03 -1.13180E+04 -7.92494E+03 -7.10533E+03  1.81229E+03
 -1.50941E+03 -2.09166E+03  4.96989E+03 -3.33852E+03  4.47413E+03  5.77313E+03 -5.84623E+03  5.72384E+03
 -2.20473E+03  2.04532E+03 -1.00069E+04 -7.42168E+03 -5.42079E+03 -2.16324E+03  4.02027E+03 -5.47173E+03
  7.37299E+03 -4.07601E+03  9.96280E+03 -3.23266E+03  9.22605E+03  3.83009E+03  3.43685E+03 -5.59436E+03
 -4.44418E+03  4.93865E+02 -4.14266E+03 -1.71621E+03  1.85147E+03 -6.43664E+03  5.10961E+03 -1.47818E+04
  1.16212E+04  5.25837E+03  7.24017E+03  5.18472E+03  8.45881E+02  1.12094E+04  1.25082E+03  1.29248E+04
 -5.92986E+03  4.18165E+03 -1.46839E+04 -1.91601E+03 -1.02944E+04 -3.14084E+03  8.60212E+03 -4.00607E+03
  4.17429E+03 -2.23098E+03  6.29291E+03  3.91185E+03 -3.51649E+03  4.45290E+03 -3.16853E+03  8.32579E+03
 -4.83709E+03  1.02090E+04  5.51120E+03  4.22472E+03  7.13330E+03 -6.11079E+03 -3.26327E+03  3.27085E+03
 -6.20726E+03 -1.10440E+03 -1.48499E+04  1.07090E+03 -1.24595E+04  3.42469E+03 -1.99696E+04 -5.68745E+03
 -5.25536E+03 -1.51333E+04  2.27458E+03 -2.28891E+04  8.45081E+03 -2.61051E+04  1.68195E+04 -1.06693E+04
  1.32716E+04  3.83445E+03  1.27878E+04  1.49441E+04 -1.16942E+02  1.49697E+04 -4.88355E+03  7.74595E+03
  2.51523E+03  9.20423E+03 -7.10269E+03 -4.07035E+03 -4.17311E+03 -7.00673E+03 -3.42222E+02  2.19375E+03
 -1.47597E+03  9.66517E+02 -3.00679E+03  3.31136E+03 -2.42629E+03 -2.20546E+03  2.99054E+03 -7.03961E+02
  7.80409E+03 -2.32139E+03  1.09764E+04  3.65172E+03  3.53267E+03  2.85023E+03 -4.23034E+03  1.12445E+04
 -1.45873E+03  1.63856E+04 -1.26234E+04  8.32728E+03 -1.66478E+04 -4.78582E+03 -7.21015E+03 -1.06793E+04
  4.02220E+02 -1.73740E+04  3.18807E+03 -1.09448E+04  9.10984E+03 -7.15182E+03  7.95833E+03  5.68286E+03
  3.84001E+03  5.02730E+03 -2.75848E+02  4.85436E+03 -2.78991E+03  3.49872E+03 -3.58489E+03  1.60767E+03
 -5.44455E+02 -2.24181E+03  1.83342E+03 -1.72008E+03  3.17802E+03  6.14538E+03  2.97168E+03  8.18295E+03
 -4.04059E+03  2.64589E+03 -1.43303E+04  1.00518E+03 -4.70369E+03 -1.17478E+04 -3.46152E+03 -1.42272E+04
  3.76400E+03 -6.90574E+03  1.37651E+02  5.27222E+02  1.45373E+04  2.21412E+03  7.70055E+03  9.80332E+03
  6.06317E+03  9.43646E+03  3.15985E+03  8.72961E+03 -5.42017E+03  3.42110E+02 -3.45094E+02  2.74415E+03
 -4.14328E+03 -1.19995E+03  8.52514E+02  9.24881E+03  7.95850E+02  1.61328E+03 -1.09482E+04 -1.76492E+03
 -6.64503E+03 -1.13759E+04 -3.71943E+03 -1.10870E+04  1.00079E+04 -1.50050E+04  8.09524E+03 -6.11115E+03
  9.45345E+03 -2.14598E+03  7.48807E+03  7.43563E+03 -4.62472E+03  1.53808E+04 -1.05201E+03  3.21858E+03
