 $NMID ID='MM_0lb_SNR50_10hz_g60_57.RAW', FMTDAT='(8E13.5)'
 TRAMP=1., VOLUME=1. $END
  3.07699E+05  2.31173E+03  3.33257E+05  2.51892E+05  8.26445E+04  3.37116E+05 -1.27405E+05  2.53381E+05
 -1.93146E+05  7.77722E+04 -1.11522E+05 -3.63249E+04 -3.48697E+03 -5.28105E+04  5.34116E+04  3.31383E+02
  3.51814E+04  5.22590E+04 -1.31219E+04  7.76926E+04 -6.61145E+04  6.81061E+04 -8.39701E+04  2.85915E+04
 -7.77699E+04 -1.14740E+04 -6.11384E+04 -5.92782E+04 -1.44605E+04 -6.74600E+04  2.74645E+04 -4.90722E+04
  4.15148E+04  5.65504E+03  1.03900E+04  5.32200E+04 -3.12829E+04  4.34164E+04 -7.03120E+04 -3.25002E+02
 -6.07120E+04 -6.07557E+04 -8.45175E+03 -8.06894E+04  3.17008E+04 -5.48528E+04  4.62921E+04 -1.62406E+04
  4.44435E+04  1.03869E+04  3.15786E+04  2.83422E+04  1.47604E+04  2.87795E+04 -6.14809E+03  3.23605E+04
 -2.30888E+04  9.87619E+03 -1.72130E+04 -5.65247E+03  5.97182E+03 -5.91541E+03  2.44092E+04  1.40727E+04
  8.16771E+03  4.18202E+04 -3.95621E+04  4.24915E+04 -5.68951E+04 -2.87630E+02 -5.84928E+04 -4.68244E+04
 -1.47578E+04 -6.49018E+04  4.73877E+04 -4.67087E+04  5.69071E+04 -6.16995E+03  4.11969E+04  3.58013E+04
 -5.70848E+03  4.04597E+04 -3.24567E+04  1.68912E+04 -3.61270E+04  2.59759E+01 -1.17619E+04 -1.57289E+04
 -3.84477E+03 -2.10471E+04  1.72447E+03 -1.84640E+04  9.79680E+03 -2.52309E+04  1.16071E+04 -1.61842E+04
  9.53320E+03  2.86212E+03 -1.26049E+04  1.04231E+04 -2.88140E+04 -4.21560E+03 -9.67172E+03 -4.40958E+04
  2.35563E+04 -4.98740E+04  5.41190E+04 -2.55843E+04  4.84633E+04  2.14437E+04  1.80126E+04  4.95161E+04
 -1.97458E+04  3.59691E+04 -3.11205E+04  7.50695E+03 -1.24272E+04 -2.96728E+04  2.47028E+04 -3.41417E+04
  4.17853E+04 -1.11224E+04  4.49290E+04  2.32543E+04  2.07568E+04  5.59992E+04 -1.31457E+04  6.16696E+04
 -3.73794E+04  4.37068E+04 -4.51631E+04  9.32910E+03 -4.80448E+04 -2.20071E+04 -2.57797E+04 -4.53344E+04
  7.38185E+03 -3.89215E+04  3.65809E+04 -1.75181E+04  3.21414E+04  1.24505E+04  5.52251E+03  1.72025E+04
 -8.54470E+03  4.95329E+03 -5.61997E+03 -1.15276E+04  6.27016E+03 -4.23771E+03  1.66571E+04  1.53541E+03
  1.39645E+04  1.97190E+04  1.08684E+03  2.53123E+04 -2.79801E+04  1.43593E+04 -3.39636E+04 -1.41476E+03
 -3.07827E+04 -1.63806E+04 -1.91977E+04 -2.26078E+04 -1.21979E+03 -2.62465E+04  2.51864E+04 -1.67550E+04
  2.93058E+04 -1.35356E+04  3.34556E+04  1.07952E+04  2.98332E+04  2.50070E+04  2.54515E+03  3.87724E+04
 -1.92705E+04  2.88850E+04 -3.17815E+04  1.33653E+04 -1.82972E+04 -1.64343E+04 -2.31786E+03 -1.10370E+04
  2.82363E+03  2.06101E+03 -3.90496E+03  1.11908E+04 -1.91907E+04  5.97495E+03 -2.91119E+04 -1.04711E+04
 -2.02081E+04 -2.69563E+04  8.31987E+03 -2.84541E+04  1.65032E+04 -1.67394E+04  2.91619E+04 -3.97034E+03
  1.61287E+04  1.71721E+04 -2.36664E+03  1.75172E+04 -2.31170E+04  8.63730E+03 -2.36404E+04 -4.07945E+03
 -2.28679E+04 -1.72999E+04 -2.97461E+03 -3.50980E+04  1.14044E+04 -1.82594E+04  1.90775E+04 -8.60059E+03
  2.06896E+04  1.20018E+03  2.07515E+04  1.02938E+04  5.87994E+03  4.46538E+02  1.16069E+04  3.65335E+03
  2.16187E+04  5.44934E+03  2.27566E+04  1.54568E+04  1.78813E+04  4.06842E+04 -6.43917E+03  4.24312E+04
 -2.42563E+04  3.34600E+04 -4.26647E+04  2.09334E+04 -4.46578E+04 -8.01366E+03 -2.98825E+04 -3.27268E+04
 -1.43059E+04 -3.47563E+04  1.07536E+04 -3.52149E+04  2.69413E+04 -1.67655E+04  2.61700E+04  6.57713E+03
  6.44904E+03  2.49074E+04 -1.43508E+04  1.82240E+04 -1.91879E+04  1.32056E+03 -1.35635E+04 -1.72232E+04
  3.12292E+03 -2.20845E+04  1.00064E+04 -1.29729E+04  1.39484E+04 -2.04404E+03  6.01820E+03  6.79892E+03
 -8.83173E+03  6.80250E+03 -8.34394E+03 -9.48642E+03 -7.92839E+02 -1.57461E+04  8.81627E+03 -1.76079E+04
  2.39978E+04 -1.45142E+04  2.78794E+04 -3.79482E+03  2.35334E+04  1.89360E+04  8.58598E+03  2.58744E+04
 -1.28687E+03  2.97988E+04 -1.90815E+04  2.10301E+04 -2.13030E+04  5.89027E+03 -6.35220E+03 -5.04696E+03
 -5.53718E+03 -8.93512E+03  1.82585E+03  3.84914E+03 -3.50200E+03  5.10818E+03 -7.72025E+03  1.02846E+04
 -1.11432E+04 -1.30444E+03 -1.26747E+04 -9.38527E+03 -4.70603E+03 -2.11007E+04  8.75073E+03 -1.02923E+04
  1.38503E+04 -4.92345E+03  1.10478E+04 -2.98762E+03  5.18231E+03  9.95641E+03  1.58915E+03 -3.84127E+03
 -7.32070E+03 -1.06858E+04 -4.94287E+03 -8.85034E+03  1.66146E+04 -1.33001E+04  2.07144E+04 -8.45368E+03
  2.35210E+04  3.52897E+03  1.34876E+04  1.17290E+04  3.82978E+03  1.52562E+04 -1.40305E+04  1.33092E+04
 -1.27519E+04  1.03781E+04 -8.67799E+03 -2.40704E+03 -2.75560E+03 -5.92655E+03  7.13210E+03 -3.28802E+03
  3.32302E+03  5.82750E+03  2.94206E+03  7.01239E+03 -5.75663E+03  1.47376E+04 -1.63917E+04 -3.92001E+03
 -1.79052E+04 -2.47352E+03 -4.64933E+03 -1.11059E+04  2.88426E+03 -6.81657E+03  7.98788E+03 -2.70819E+03
  1.38295E+03  8.88327E+03 -1.22595E+04  1.30983E+04 -1.77366E+04  1.05354E+03 -1.30168E+04 -1.12890E+04
 -9.00515E+03 -9.96605E+03  4.32412E+03 -2.26649E+04  1.38205E+04 -1.16778E+04  1.50951E+04  3.96032E+03
  9.28931E+03  1.86470E+04 -4.00256E+03  1.44643E+04 -7.07641E+03  7.29113E+03 -8.84582E+03 -5.28717E+03
 -8.54988E+03 -1.46704E+04 -1.72943E+03 -1.21721E+04  9.50963E+03 -1.02909E+04  1.02576E+04 -2.08512E+03
  2.90543E+03  9.86561E+02 -4.44155E+03  5.25323E+03 -5.28922E+03 -2.55723E+03 -1.07689E+03 -8.12830E+03
  1.14429E+04 -1.04456E+04  1.77192E+04  1.71394E+03  1.46137E+04  1.69760E+04  9.69341E+03  2.44209E+04
 -6.74213E+03  2.73994E+04 -1.72953E+04  1.31332E+04 -2.22932E+04  1.87077E+03 -2.61599E+04 -9.27043E+03
 -1.33308E+04 -1.85957E+04 -7.08674E+03 -1.81565E+04  7.43833E+03 -1.39056E+04  8.18409E+03 -2.21232E+03
  1.57735E+02 -6.47541E+03 -7.92573E+02 -5.81273E+03  3.38633E+03 -3.33102E+03  1.18662E+04  3.81959E+03
  1.10549E+04  6.78967E+03  1.31622E+04  1.05565E+04 -4.33589E+02  1.58502E+04 -9.86652E+03  9.56141E+03
 -1.42614E+04  1.08799E+03 -1.63766E+04 -5.46920E+03  4.00398E+03 -9.86652E+03  3.05313E+03 -1.92639E+04
  1.37413E+04 -1.21998E+04  2.09453E+04  4.73466E+03  1.62551E+04  1.45732E+04  3.83423E+03  1.16925E+04
 -4.82576E+03  1.20854E+04 -4.42203E+03  4.79863E+03 -1.06599E+04 -3.00214E+03  8.91585E+02 -2.38703E+03
 -2.98034E+03 -3.66717E+03 -4.13972E+02  1.83641E+03 -5.61072E+03  3.69817E+03 -9.07632E+03  1.31775E+03
 -4.65764E+03 -1.12541E+04 -3.42260E+02 -1.52026E+04  8.01058E+03 -1.26417E+04  1.80175E+04 -3.31314E+03
  9.73221E+03  6.97852E+03  1.90529E+03  1.28988E+04 -5.61478E+03  1.74656E+04 -5.90124E+03  8.00529E+03
 -1.00546E+04 -3.39582E+03 -7.28350E+03 -5.54955E+03  3.48727E+03 -7.10347E+03  4.82381E+03 -1.51958E+04
  8.17293E+03 -1.30594E+03  9.06411E+03 -1.61325E+03  4.05817E+03  3.60506E+03  1.53165E+03  8.94200E+03
  1.11182E+03  5.31651E+03  5.20339E+03 -8.85664E+02  4.84224E+03  2.66239E+03 -3.32464E+03  8.97497E+03
 -2.35612E+03  1.72374E+04 -1.49183E+04  2.02228E+04 -1.36415E+04  2.49557E+03 -1.90648E+04 -1.25818E+03
 -1.57388E+04 -1.74069E+04 -2.31320E+03 -7.42014E+03  1.03068E+04 -5.00594E+03  1.02591E+04 -9.21992E+03
  1.17890E+04  3.69618E+03  3.24935E+03  9.32361E+03 -1.56414E+03  4.37396E+03 -1.09065E+03 -1.91991E+03
 -5.88885E+03 -1.33709E+04  4.65403E+03 -5.70416E+03  1.08689E+04 -1.07416E+04  3.43274E+03  5.10626E+03
  5.84484E+03  1.20690E+03  4.87312E+03  6.10739E+03  1.11306E+03  5.03020E+03 -4.77285E+03 -7.35459E+01
  1.26178E+03 -1.12405E+03  3.14175E+03  5.80711E+03  2.51196E+03  1.33819E+04  8.19489E+02  1.21840E+04
 -7.09158E+03  6.30168E+03 -1.11637E+04  4.30538E+03 -9.12062E+03 -7.65870E+03 -2.72173E+03 -1.14381E+04
 -1.63193E+03 -8.46888E+03 -2.63853E+02 -3.32531E+03  2.81285E+03  2.20221E+03 -3.50886E+02  7.45328E+03
 -6.73428E+03 -2.55085E+03 -9.22578E+02  4.14797E+02 -1.03891E+04 -8.26347E+03  5.52947E+02 -9.45853E+03
  1.14828E+03 -2.59913E+03  5.48759E+03 -8.92355E+02  2.60832E+03 -6.06830E+03 -8.09830E+02  7.33968E+03
  5.26245E+03  5.29903E+03  4.53625E+03 -6.09002E+03 -2.89539E+03 -2.99596E+03  6.60311E+02 -7.16251E+03
  9.17639E+03 -4.59811E+03  8.97508E+03  8.90257E+03  3.94925E+03  8.32147E+03  2.14875E+03  6.02595E+03
 -8.07020E+03  3.80019E+03 -9.39925E+03  4.92645E+03 -3.17974E+03 -3.78512E+03  6.56075E+03 -1.06801E+04
  4.39656E+03 -5.45636E+03  9.50971E+03  4.01064E+03  6.20985E+02  4.83061E+03 -1.82973E+03  3.01281E+03
 -1.91741E+03  2.62563E+03 -1.52251E+03 -1.92085E+03 -2.49067E+03 -7.88040E+03  2.42529E+03  3.81108E+03
  4.13961E+03  5.05013E+02 -6.63115E+03  6.67676E+03 -1.00290E+04  3.54599E+03 -1.07013E+04 -9.25798E+03
 -1.32444E+04 -1.32732E+04  7.01236E+03 -1.91007E+04  7.21871E+03 -1.68428E+04  1.56114E+04 -4.34394E+02
  1.15194E+04  8.94694E+02  1.23539E+04  8.88656E+03 -1.72774E+02  5.58350E+03 -5.05971E+03  1.29689E+04
 -9.41029E+03  2.16584E+03 -4.51248E+03 -5.66578E+03 -1.43271E+03 -2.00883E+03 -4.01567E+03 -3.75609E+03
 -3.38033E+03 -1.18229E+03 -4.96646E+03 -1.37431E+03  4.90751E+03 -1.90532E+03  3.67319E+03 -1.71957E+03
  5.66602E+03  5.62405E+02  3.60633E+03  2.79229E+03  9.92582E+03 -2.33107E+03 -4.91663E+03  7.14774E+03
 -2.82071E+03  1.24532E+04 -8.28231E+03  3.95648E+03 -1.02611E+04 -3.76686E+03 -1.15776E+04 -6.67553E+03
 -3.91617E+02 -1.24571E+04  1.76495E+03 -1.47073E+04  2.73327E+03 -3.00677E+03  4.35392E+03 -3.13275E+03
  3.25973E+02  6.27246E+03 -9.44862E+01  2.68615E+03 -1.81646E+02  2.95446E+03 -1.14588E+03 -3.61107E+03
  4.44613E+03  2.73351E+03  4.57049E+03 -1.75675E+03  5.57687E+03  5.48866E+03 -9.13358E+02  8.55119E+03
 -2.49198E+03  5.48618E+03 -4.42816E+03  3.19363E+03 -2.88710E+03 -3.60638E+03 -3.44940E+03 -5.69228E+03
  1.07040E+04 -5.03332E+03  2.19674E+03 -5.09861E+03  3.44683E+03 -1.63052E+03  9.15322E+03  5.70785E+03
 -6.42166E+02  4.14802E+03 -1.27941E+04  5.84935E+03 -4.33701E+03  7.70797E+03  3.65255E+03 -7.70127E+02
  1.05978E+03  6.44113E+03 -1.91982E+03  5.50913E+03 -2.83358E+03  5.30440E+01 -5.79487E+03  3.01925E+03
  2.67524E+02 -2.70591E+03 -2.32442E+03 -4.04118E+03  6.97278E+03 -3.68198E+03  9.31374E+03 -6.79409E+03
  7.12961E+03  2.97669E+03  7.87190E+03 -2.31434E+03 -3.50445E+03  2.98188E+03 -8.36146E+02  3.40389E+03
