 $NMID ID='MM_0lb_SNR50_15hz_g40_91.RAW', FMTDAT='(8E13.5)'
 TRAMP=1., VOLUME=1. $END
  3.09485E+05  9.77799E+02  3.39156E+05  2.49785E+05  8.26873E+04  3.31190E+05 -1.31573E+05  2.47127E+05
 -1.90381E+05  8.80792E+04 -1.08148E+05 -3.14647E+04  3.96694E+03 -4.74726E+04  5.49232E+04  1.49125E+02
  3.47081E+04  4.95466E+04 -1.71567E+04  7.61097E+04 -6.17606E+04  6.21669E+04 -8.37765E+04  3.42449E+04
 -7.84261E+04 -9.50632E+03 -5.80373E+04 -5.09812E+04 -1.95846E+04 -6.52862E+04  2.16144E+04 -5.16403E+04
  4.05626E+04  7.37192E+03  1.07363E+04  5.25049E+04 -3.70596E+04  4.46360E+04 -6.66837E+04  2.58302E+02
 -5.87471E+04 -5.31691E+04 -7.92965E+03 -7.62318E+04  3.11922E+04 -5.17747E+04  4.96978E+04 -1.64066E+04
  3.96018E+04  8.28387E+03  2.83894E+04  1.94395E+04  1.65849E+04  3.09987E+04 -5.87467E+03  2.93276E+04
 -2.13827E+04  1.53989E+04 -1.66776E+04 -1.97197E+03  2.96185E+03 -5.94057E+03  2.24065E+04  1.06012E+04
  1.10495E+04  3.67661E+04 -3.09369E+04  3.53262E+04 -6.14553E+04  2.97778E+02 -5.36531E+04 -4.04552E+04
 -1.24323E+04 -6.18923E+04  3.94075E+04 -4.38183E+04  5.20844E+04 -2.57135E+03  3.56831E+04  3.10938E+04
 -4.15856E+03  3.84488E+04 -2.67915E+04  1.90482E+04 -2.81913E+04 -6.21524E+03 -1.99526E+04 -1.10113E+04
 -7.81230E+03 -1.27409E+04 -3.55335E+03 -1.56102E+04  8.90976E+03 -1.72619E+04  1.70250E+04 -1.31048E+04
  1.32057E+04  8.30710E+03 -7.25598E+03  1.22496E+04 -2.06733E+04 -5.32695E+03 -5.30317E+03 -3.16906E+04
  2.37427E+04 -4.75931E+04  4.51510E+04 -1.74599E+04  4.73347E+04  1.48108E+04  1.48446E+04  4.46043E+04
 -1.66896E+04  3.38361E+04 -2.33067E+04  1.25239E+03 -1.33555E+04 -3.09735E+04  1.78552E+04 -3.25052E+04
  4.07724E+04 -5.07973E+03  3.77780E+04  2.48107E+04  1.71365E+04  4.35091E+04 -6.20915E+03  4.85712E+04
 -2.40609E+04  3.27016E+04 -3.95828E+04  8.50864E+03 -4.23773E+04 -1.60506E+04 -2.30051E+04 -3.88535E+04
  9.55736E+03 -3.70418E+04  3.01723E+04 -1.59278E+04  3.09385E+04  1.18084E+04  5.02603E+03  1.48314E+04
 -1.35494E+04  1.09867E+04 -7.96606E+03 -4.38342E+03  5.51619E+03 -2.55053E+03  2.17263E+04  8.60370E+03
  1.30035E+04  1.97882E+04 -5.98946E+03  2.62065E+04 -2.13150E+04  1.28165E+04 -2.25279E+04 -1.20989E+03
 -2.05750E+04 -1.70264E+04 -3.70684E+03 -2.12122E+04  5.06928E+03 -1.34688E+04  8.23065E+03 -1.55036E+04
  2.32900E+04 -9.88324E+03  3.06244E+04 -5.65070E+02  2.25456E+04  1.96738E+04  2.70378E+03  3.26622E+04
 -1.87278E+04  3.16289E+04 -2.70495E+04  1.24701E+04 -2.37071E+04 -7.01254E+03 -1.65604E+03 -1.84577E+04
  2.49708E+03 -8.15921E+02 -2.89947E+03  8.16177E+03 -1.57743E+04  4.12977E+03 -1.54285E+04 -1.02823E+04
 -9.85275E+03 -1.99870E+04  4.71977E+03 -2.40394E+04  1.32105E+04 -1.68880E+04  1.78850E+04  6.25555E+02
  1.17957E+04  1.06453E+04  7.65733E+01  1.69931E+04 -9.77178E+03  5.24647E+03 -1.27508E+04 -7.18674E+03
 -1.30800E+04 -1.39278E+04  1.13542E+03 -2.28655E+04  9.11685E+03 -1.47220E+04  1.65308E+04 -1.01475E+04
  2.06150E+04  7.08528E+02  9.18289E+03  8.54272E+03  2.28897E+03 -5.46409E+02  6.39351E+03 -3.71438E+03
  1.49813E+04  2.17669E+03  1.60641E+04  1.69547E+04  1.18674E+04  2.74614E+04 -5.79996E+03  3.02145E+04
 -1.52335E+04  2.31071E+04 -2.77070E+04  1.47973E+04 -3.26333E+04 -4.08996E+03 -2.80091E+04 -1.98279E+04
 -1.15094E+04 -2.48035E+04  1.14491E+04 -2.38497E+04  2.04399E+04 -9.99860E+03  1.98362E+04  7.50789E+03
  8.41569E+03  1.57056E+04 -2.93380E+03  9.22312E+03 -1.55607E+04  1.98660E+02 -1.16832E+04 -9.91156E+03
 -1.64839E+03 -1.31489E+04  7.10392E+03 -8.77943E+03  1.35002E+04 -7.06221E+02  1.74236E+03  7.86038E+03
 -1.07261E+04  3.67240E+02 -5.35180E+03 -3.54664E+03 -1.50512E+03 -1.50995E+04  8.80037E+03 -1.16016E+04
  1.69534E+04 -5.94838E+03  1.29244E+04 -5.55406E+02  1.39848E+04  1.19395E+04  5.98031E+03  1.73452E+04
 -3.45023E+03  1.43058E+04 -1.17649E+04  1.12999E+04 -2.03814E+04 -3.05489E+03 -4.48781E+03 -3.41478E+03
  2.58097E+03 -4.22903E+02  1.39876E+03  9.29853E+02  6.79342E+02  4.75009E+03 -7.56541E+03  8.58524E+03
 -1.22936E+04 -5.38939E+03 -1.00229E+04 -3.36286E+03 -1.31188E+03 -1.36498E+04  6.66580E+03 -6.47294E+03
  5.09711E+03  2.40316E+01  9.01615E+03 -4.30997E+03  5.74928E+02  5.41009E+03 -2.31652E+03 -1.92677E+03
 -3.92618E+03 -1.00748E+04 -6.87509E+03 -1.24251E+04  2.61898E+03 -9.74390E+03  1.15319E+04 -6.77982E+03
  1.63462E+04  8.74728E+02  1.72085E+04  7.35663E+03  3.16266E+03  9.57093E+03 -5.87892E+03  9.13146E+03
 -5.77128E+03 -4.92670E+02 -8.00159E+03 -4.51364E+02  7.14110E+03  1.81670E+03  4.21280E+03 -1.30095E+03
  7.91887E+03  1.05043E+04 -2.12208E+03  1.03609E+04 -7.94821E+03  1.29943E+04 -1.25170E+04  5.58695E+03
 -1.18757E+04 -9.97453E+03  8.47561E+02 -1.04076E+04  8.13483E+03 -8.56627E+03  6.68319E+03  2.46106E+02
  1.43423E+03  5.78783E+03 -8.70458E+03  1.13946E+04 -3.75724E+03  2.09118E+03 -5.34737E+03 -3.50816E+03
 -7.18998E+03 -1.07779E+04 -2.79253E+03 -7.40247E+03  6.60709E+03 -7.49984E+03  6.21642E+03  2.69760E+03
  6.59821E+03  5.30969E+03 -4.51612E+01  9.82996E+03 -7.64295E+03  4.27541E+03 -6.97136E+03 -2.11880E+03
 -4.70091E+03 -2.88652E+03 -1.44352E+03 -4.16881E+03  6.50536E+02 -8.41768E+03  7.02660E+03 -1.75962E+03
  5.99449E+03  4.23982E+03  2.56259E+02 -1.84567E+03 -3.50939E+02 -3.19769E+03 -2.98084E+03 -2.15701E+03
  3.85072E+03 -6.39199E+02  5.01095E+03  4.56216E+03  5.34831E+03  8.17140E+03  6.43267E+03  1.04627E+04
 -1.29272E+03  1.26033E+04 -1.24780E+04  4.74283E+03 -1.34978E+04  5.09087E+03 -9.23185E+03 -5.23397E+03
 -6.02933E+03 -1.41650E+04 -1.99593E+03 -1.00148E+04  2.34570E+03 -2.99462E+03  3.81146E+03 -6.81515E+02
  8.71813E+02  2.94839E+03  1.13831E+03 -1.57112E+03  1.75010E+03 -9.09231E+03  3.95118E+03 -3.95931E+02
  8.48431E+03  2.85561E+03  6.76477E+03  7.52303E+03  1.78365E+03  6.76566E+03 -4.67206E+03  5.34223E+03
 -6.71982E+03 -3.41592E+02 -2.84927E+03 -5.52868E+03  2.67294E+03 -9.15385E+03  2.59603E+03 -9.28121E+03
  7.04960E+03 -1.68894E+03  1.01032E+04 -2.89553E+03  6.46811E+03  5.09497E+03  4.14966E+03  8.19452E+03
 -7.45013E+03  4.06453E+03 -6.51001E+03  3.93277E+03 -1.12310E+03 -4.20015E+03  4.05089E+01  1.33995E+03
 -1.37500E+03  2.31802E+02 -4.82521E+03  1.22931E+03 -3.44857E+03  7.47861E+02 -3.77294E+03  6.43388E+02
 -4.06988E+03 -2.82078E+03 -9.30960E+02 -3.74057E+03  4.08689E+03 -4.74738E+03  8.92509E+03 -1.73054E+03
  4.97876E+03  3.24980E+03  2.36843E+03  6.88277E+03  7.14695E+01  3.47074E+03 -1.06546E+03  1.52281E+03
 -3.87271E+03  1.21940E+03 -1.63374E+03 -4.48770E+03  9.45602E+02 -6.56270E+03  3.28104E+03 -5.41479E+03
  4.88170E+03 -3.54946E+03  2.48141E+03  9.20714E+02 -9.36242E+02 -1.01291E+03  1.68322E+03  1.19083E+03
  4.88856E+03 -1.01973E+03  1.70879E+03  1.45032E+03  2.05579E+03  4.16953E+03 -2.80169E+02 -4.93879E+02
 -4.57195E+03  5.46613E+03 -2.13335E+03  5.79034E+03 -7.26256E+03  2.93322E+03 -2.96597E+03 -3.04534E+03
 -1.28981E+03 -3.78540E+03  3.02173E+03 -9.95388E+03  2.40769E+03 -5.75386E+03  8.92500E+02 -3.10225E+03
  2.29427E+03  5.09513E+03  2.37183E+03  4.32821E+03 -2.82488E+03  1.10580E+02 -4.37001E+03 -4.02373E+03
 -4.45456E+03 -6.00467E+02  4.99811E+03  1.84302E+03 -6.95021E+02 -4.13680E+03  1.23858E+03  4.29584E+03
  3.53777E+03 -3.37134E+02 -2.36487E+02  9.57685E+01  2.23647E+03 -8.47789E+02 -8.32199E+02 -2.11400E+03
  1.93259E+03 -1.98950E+03 -8.32741E+00  2.74983E+03  4.45741E+03  2.34587E+03  1.51198E+02  5.72327E+03
 -4.37435E+03 -1.68558E+03 -8.67985E+03  3.92849E+03 -3.05681E+03 -2.82494E+03 -1.16215E+02 -2.33556E+03
 -3.36587E+03  9.48929E+02  2.52882E+03 -8.62813E+02  8.13358E+03  2.93163E+03  3.98528E+03  2.84273E+03
 -5.92909E+02 -1.75778E+02  4.30464E+03 -1.95016E+03  4.77420E+02 -2.61421E+03 -1.89580E+03 -4.81678E+03
  1.40790E+03 -9.53200E+02  2.82132E+03  3.44678E+03 -6.16119E+02  3.89064E+02  3.07582E+03  1.41223E+03
  1.50302E+03 -7.40475E+02 -1.69587E+03 -3.33412E+03 -1.11277E+03 -3.49431E+03  3.23352E+03 -6.53817E+03
  2.60581E+03 -1.00149E+02  5.44283E+03  1.25368E+03 -1.50615E+03  2.86199E+03 -3.41670E+03  2.26026E+03
 -3.75903E+03  1.44099E+03 -7.64059E+02 -2.18284E+03 -2.50483E+03 -3.03054E+03 -2.23202E+03 -2.44978E+03
  2.02179E+03 -2.68537E+03  4.03518E+03 -5.10725E+03 -3.17272E+03  2.36159E+03  2.27491E+03 -5.06709E+02
 -5.94542E+03 -2.47622E+03 -6.95399E+03 -4.00787E+03 -3.18345E+03 -5.02469E+02 -2.95178E+03 -9.98255E+01
 -4.59150E+03  1.98895E+03  3.06884E+03  1.73418E+03 -5.36034E+03  3.63403E+03 -4.21907E+03 -1.06233E+03
  1.05746E+03 -2.34498E+03 -3.58274E+03 -7.27642E+03 -9.30123E+02 -6.66575E+03  9.35363E+03 -6.26448E+02
  9.36885E+03  3.65948E+03  2.22529E+03  2.06692E+03 -6.01527E+03  1.20661E+03 -3.89249E+03  2.29486E+03
  2.73127E+02  1.35581E+03  8.38173E+02 -1.02857E+03 -1.81666E+03  3.20846E+03 -2.37880E+03 -7.82749E+02
 -1.02896E+03  9.96496E+01 -2.58109E+03 -4.39649E+03  1.59152E+03  2.68887E+03  1.24851E+03 -1.63804E+03
  2.88291E+03 -3.28592E+03  2.77780E+03  1.41195E+02  8.09203E+02 -1.12888E+03 -8.34090E+02  1.42831E+03
 -1.79134E+03  5.84781E+03 -4.26413E+03  1.83705E+03 -8.72716E+03 -1.67241E+03 -3.41212E+03 -1.30292E+02
  2.10539E+02 -5.37861E+03  4.36255E+03 -6.49559E+03  5.33154E+03 -3.96672E+03  3.57964E+03  1.07129E+03
  7.06795E+02  4.67267E+02 -4.85808E+02 -3.59274E+02 -2.89487E+03  6.18259E+03 -1.18460E+03 -2.47934E+03
 -1.15613E+03  1.93275E+03  6.60292E+02  1.67901E+03  5.93991E+02 -3.88510E+02 -6.00148E+02 -1.71341E+03
 -1.91681E+03  1.93343E+01 -2.23679E+03 -2.90692E+03  3.03363E+02 -1.98215E+03 -6.03097E+02 -1.37277E+03
  2.01033E+03 -6.62750E+03  2.16010E+03  6.65421E+02  4.26681E+03  2.43117E+03  1.86366E+03  2.12310E+03
  2.91448E+03 -2.34283E+03 -7.85116E+02 -2.32182E+03  3.11026E+03  9.42347E+02 -2.07348E+03  4.47833E+02
  5.05178E+02  1.62741E+02 -1.93099E+03  5.71085E+02 -2.54003E+03  1.26716E+03 -2.90052E+03  3.07580E+03
  1.87853E+03 -3.10763E+03  7.33723E+03  4.67171E+02 -2.46740E+02  3.45235E+02  3.20954E+03  1.06589E+03
  2.49339E+03  1.61424E+03 -9.43486E+02  4.74065E+03  6.92151E+02  6.38824E+03 -3.93634E+02  1.30057E+03
