 $NMID ID='MM_0lb_SNR50_11hz_g60_79.RAW', FMTDAT='(8E13.5)'
 TRAMP=1., VOLUME=1. $END
  3.07966E+05 -3.43687E+03  3.40073E+05  2.47180E+05  8.70832E+04  3.36638E+05 -1.29706E+05  2.57683E+05
 -1.92324E+05  8.50512E+04 -1.09477E+05 -2.93750E+04  3.88686E+03 -5.17556E+04  5.58202E+04 -2.71447E+03
  3.70909E+04  4.97606E+04 -1.89405E+04  7.60839E+04 -5.86735E+04  6.67978E+04 -8.24265E+04  2.86067E+04
 -8.58357E+04 -8.02376E+03 -5.74029E+04 -5.63220E+04 -1.20838E+04 -7.14626E+04  2.37581E+04 -5.00505E+04
  4.12817E+04  2.34946E+03  1.59805E+04  4.41435E+04 -3.64482E+04  4.81695E+04 -6.43109E+04  2.77284E+02
 -5.96400E+04 -5.88264E+04 -1.19386E+04 -7.69039E+04  2.99895E+04 -5.94952E+04  4.86523E+04 -2.43782E+04
  3.97814E+04  1.22566E+04  2.83069E+04  2.11724E+04  1.35911E+04  3.36054E+04 -4.97820E+03  2.32155E+04
 -2.33115E+04  1.41393E+04 -1.59205E+04 -4.78151E+03  5.42671E+03 -5.00291E+03  2.11944E+04  1.59804E+04
  4.89626E+03  3.41767E+04 -3.15631E+04  3.77497E+04 -6.31450E+04  1.72826E+03 -6.37797E+04 -4.64747E+04
 -1.03954E+04 -6.84337E+04  4.46520E+04 -4.60758E+04  5.89754E+04 -2.69085E+03  3.15350E+04  3.97930E+04
 -7.99057E+03  4.40700E+04 -3.53626E+04  1.58286E+04 -3.46379E+04 -8.04979E+03 -1.46624E+04 -1.03771E+04
 -6.05967E+03 -1.54340E+04 -2.11800E+03 -2.39428E+04  8.67925E+03 -2.44134E+04  1.80434E+04 -1.21825E+04
  1.21177E+04  8.45649E+03 -1.49578E+04  1.99599E+04 -2.12511E+04 -1.13610E+03 -1.15266E+04 -3.98503E+04
  2.60755E+04 -5.48576E+04  4.38058E+04 -2.57391E+04  4.91932E+04  2.51392E+04  1.77061E+04  4.27995E+04
 -1.07405E+04  4.10247E+04 -2.79371E+04  5.70987E+02 -1.53103E+04 -2.48573E+04  2.20150E+04 -4.32298E+04
  4.73614E+04 -1.19806E+04  3.92137E+04  1.79400E+04  1.39470E+04  5.47057E+04 -2.64940E+03  5.38432E+04
 -3.24078E+04  3.73571E+04 -4.65393E+04  9.26957E+03 -5.26852E+04 -2.09612E+04 -3.14435E+04 -4.05937E+04
  3.06894E+03 -4.06581E+04  2.98680E+04 -1.71541E+04  2.66492E+04  7.54302E+03  6.25046E+03  2.38844E+04
 -1.02000E+04  9.32373E+03 -9.36829E+03 -1.08396E+04  1.84487E+03 -5.47044E+03  1.53272E+04  4.50964E+03
  1.31740E+04  2.49694E+04 -1.08443E+03  3.21288E+04 -2.45910E+04  1.42031E+04 -3.27052E+04 -3.08803E+03
 -2.91963E+04 -2.05333E+04 -8.52990E+03 -2.33178E+04  7.81482E+02 -2.41428E+04  1.74536E+04 -2.24849E+04
  2.77955E+04 -1.21816E+04  3.49586E+04  8.64223E+03  2.65610E+04  2.65778E+04  5.79830E+03  4.36731E+04
 -1.93411E+04  3.25005E+04 -3.12011E+04  1.57925E+04 -2.06110E+04 -6.70191E+03 -1.01600E+04 -1.44933E+04
 -5.50146E+03  4.62124E+03 -1.32010E+04  6.56201E+03 -1.90671E+04  6.22026E+03 -1.37642E+04 -1.07825E+04
 -9.79381E+03 -1.79493E+04  3.57126E+03 -2.18536E+04  1.66367E+04 -1.88025E+04  2.72957E+04 -3.37099E+03
  1.22824E+04  1.92140E+04 -5.95864E+02  2.71891E+04 -1.69484E+04  1.11445E+04 -2.65568E+04 -1.53287E+03
 -2.37672E+04 -1.81267E+04  6.40152E+03 -2.91611E+04  9.87696E+03 -2.13805E+04  2.35077E+04 -1.14027E+04
  1.94092E+04 -4.02577E+03  6.03631E+03  7.25160E+03  7.75930E+03  5.86633E+03  9.41227E+03 -4.11260E+03
  1.89275E+04  2.53060E+03  2.20555E+04  1.76609E+04  1.04890E+04  3.21075E+04  1.53034E+03  4.30567E+04
 -2.15703E+04  3.08300E+04 -3.83286E+04  2.35475E+04 -3.88232E+04 -1.35927E+03 -2.91104E+04 -2.41583E+04
 -1.38670E+04 -3.26722E+04  9.33678E+03 -2.91264E+04  2.78376E+04 -1.82780E+04  2.38028E+04  7.99089E+03
  9.82840E+03  1.92514E+04 -1.01652E+04  8.91329E+03 -1.90878E+04 -4.77625E+03 -1.30482E+04 -1.12763E+04
 -4.35939E+03 -1.89329E+04  1.15649E+04 -9.06233E+03  9.20783E+03  1.19169E+03  6.14717E+03  7.84989E+03
 -7.39765E+03  6.22830E+03 -9.72001E+03 -1.13028E+04  8.01778E+03 -1.89355E+04  5.84555E+03 -1.13709E+04
  2.35021E+04 -1.20613E+04  2.92968E+04  4.72881E+03  2.60827E+04  1.83223E+04  8.46278E+03  3.02419E+04
 -4.26734E+03  3.53739E+04 -2.36052E+04  1.80745E+04 -2.48336E+04  2.42023E+03 -1.45366E+04 -4.36142E+03
 -6.57044E+03 -3.63854E+02 -3.34725E+02  1.23411E+03 -6.35044E+02  3.28801E+03 -7.08114E+03  3.12911E+03
 -1.64280E+04 -6.30959E+03 -1.28895E+04 -7.89412E+03 -6.73803E+03 -1.85621E+04  2.06092E+03 -9.01002E+03
  9.58453E+03 -1.03009E+04  8.74315E+03  5.10242E+03  3.71775E+03  3.03508E+03 -1.22760E+04 -3.44284E+03
 -1.00010E+04 -3.45833E+03 -3.47026E+03 -1.16038E+04  7.70279E+03 -1.11098E+04  1.20707E+04 -8.16394E+03
  1.76359E+04  1.80629E+03  1.97505E+04  1.21453E+04  9.54027E+02  1.79313E+04 -1.11174E+04  1.72318E+04
 -8.02733E+03 -3.03624E+03 -3.08932E+03 -5.14837E+03 -4.61168E+03 -1.63787E+03  1.16673E+04 -6.08493E+03
  7.43083E+03  1.05620E+04  1.82036E+03  1.10402E+04 -9.72184E+03  1.58267E+04 -1.84785E+04 -5.87422E+02
 -1.42640E+04 -6.13358E+03  1.43808E+01 -1.99207E+04  1.21513E+04 -4.96058E+03  9.32176E+03  9.41733E+03
  2.20630E+03  1.19553E+04 -1.23064E+04  7.98693E+03 -1.66482E+04  8.27134E+03 -8.22177E+03 -3.04337E+03
 -8.50248E+03 -1.18030E+04  6.02134E+03 -1.73242E+04  1.81773E+04 -1.13638E+04  1.68208E+04  2.32344E+03
  1.13719E+04  1.63921E+04 -1.84783E+03  1.36482E+04 -8.70378E+03  4.88717E+03 -1.23750E+04  2.24553E+03
 -1.42896E+04 -1.17303E+04 -6.14450E+03 -1.41945E+04  6.63494E+03 -1.43481E+04  4.80516E+03 -3.26847E+03
  5.44187E+03  1.10899E+03 -2.34441E+02 -2.43149E+03  4.92133E+02 -3.36404E+03  1.01823E+04 -1.05150E+04
  1.55944E+04 -1.26861E+03  1.05197E+04  5.51624E+03  1.42765E+04  1.19698E+04  1.03705E+04  2.39976E+04
 -5.44235E+03  1.94022E+04 -1.29284E+04  1.54349E+04 -2.15261E+04  2.29208E+03 -1.94541E+04 -1.08542E+04
 -1.21355E+04 -1.40304E+04 -4.39285E+03 -7.36613E+03  1.26105E+03 -2.96519E+03 -1.55531E+03 -7.76104E+02
  3.15012E+03 -5.96742E+03  5.86439E+03 -2.17885E+03  4.26676E+03 -3.13247E+03  2.13912E+03  7.09152E+02
  1.49238E+04  2.76373E+03  7.44125E+03  1.23485E+04 -3.23972E+03  1.09728E+04 -9.05187E+03  1.17389E+04
 -1.29330E+04 -4.27117E+02 -9.04471E+03 -1.31491E+04 -4.62855E+03 -1.04372E+04 -2.54601E+03 -1.58567E+04
  8.65459E+03 -4.71790E+03  1.57652E+04 -3.64903E+03  1.14187E+04  1.82011E+04  2.92839E+03  1.48385E+04
 -1.04894E+04  1.36626E+04 -5.84851E+03  6.93584E+03 -9.71629E+03 -1.14783E+03  4.18578E+03 -4.65223E+03
 -2.69054E+03 -6.97676E+03 -2.01104E+03  8.02798E+03  5.59906E+03 -1.41913E+03 -1.01962E+04 -6.32524E+03
 -2.18508E+03 -8.50296E+03 -1.17614E+03 -9.33167E+03  6.94526E+03 -1.22944E+04  1.47248E+04 -5.75364E+03
  9.53094E+03  7.68622E+03  1.11649E+04  9.63343E+03  2.28348E+03  1.02999E+04 -1.13946E+04 -1.55532E+03
 -1.37393E+04  8.34880E+02 -5.00051E+03 -1.15830E+04  4.17645E+01 -6.12871E+03  5.19334E+03 -8.33535E+03
  6.45205E+03 -8.71730E+02  5.00626E+03 -2.36466E+02  1.12194E+03  1.79671E+03  3.06181E+03 -1.25885E+03
  9.49812E+03 -5.64077E+02  3.43614E+03  6.48502E+02  2.80391E+03 -3.17567E+02  1.59307E+03  4.75060E+03
  1.11118E+03  1.52605E+04 -8.54824E+03  9.70322E+03 -1.32248E+04 -8.40660E+02 -2.11079E+04 -6.76029E+03
 -2.51170E+03 -1.37240E+04  1.48258E+03 -1.38940E+04  8.44902E+03 -6.65260E+03  1.26335E+04 -7.53436E+03
  7.82560E+03  5.16232E+03  6.04798E+02  7.10660E+03 -1.88969E+03  7.91106E+03 -5.28659E+03  9.06595E+02
  2.47847E+03  7.23281E+02 -1.72124E+03 -3.36562E+03  8.79399E+03 -2.56626E+03 -2.09941E+03  5.33754E+03
  1.59318E+03  1.00321E+03  6.62223E+02 -1.35270E+03  8.92845E+02  1.70788E+03  2.38035E+03  5.17945E+03
  6.87606E+02  7.73499E+02  6.84268E+03  1.88703E+03  2.97887E+03  8.71989E+03  1.50791E+03  1.06437E+04
 -7.00149E+03  7.35739E+03 -4.91339E+03  2.70038E+03 -1.15512E+04 -1.35324E+03 -1.78482E+03 -4.89855E+03
  1.02666E+03 -1.09294E+04  1.52452E+02 -2.89429E+03 -4.99674E+02  1.29225E+03  2.21752E+03  2.61355E+03
 -2.92626E+03  2.74419E+03 -5.46442E+03 -4.54794E+03 -1.60127E+03 -1.40190E+04 -2.88950E+03 -6.16788E+03
  8.88924E+03 -4.09381E+03  1.00076E+04 -3.37842E+03  4.21203E+03  7.03900E+03 -8.64743E+02  3.07172E+03
 -7.48039E+03 -8.47250E+02 -2.34564E+03 -6.48811E+03  1.77998E+03 -1.14763E+03  5.58013E+03 -4.26679E+03
 -4.69862E+02  8.92145E+02  9.33058E+03  1.28015E+03  2.92021E+03  9.34935E+03 -6.10806E+03  8.46266E+03
 -7.19577E+03  5.50487E+03 -1.72135E+04  6.15666E+02  5.28844E+03 -1.43862E+04  8.75046E+02 -2.06855E+03
  4.19681E+03 -9.08082E+02  3.89550E+03 -3.10352E+03  4.20722E+03  3.73469E+03 -8.79417E+02  4.50726E+03
  1.34242E+02 -8.07210E+02  7.84405E+02  1.28665E+03  1.28845E+03 -9.34196E+02  3.80740E+03 -9.21563E+02
  8.19732E+02  5.09505E+03 -3.44536E+03 -1.38618E+03 -3.73346E+03  4.69119E+03 -1.46973E+04 -7.45856E+03
 -6.20439E+03 -9.65909E+03  8.01765E+02 -1.30477E+04  5.28416E+03 -5.38778E+03  1.01318E+04 -8.06226E+03
  1.61006E+04  5.32757E+02  2.16167E+03  2.07437E+03  1.11566E+03  1.27616E+04 -5.69161E+03  3.63699E+03
  1.55603E+03  1.30836E+03 -6.40938E+03  1.17840E+03 -3.97861E+03  3.27410E+03  2.82139E+03  7.31822E+02
 -8.78999E+03  6.17811E+03  3.63048E+03  4.78162E+02  6.45617E+03 -9.18274E+02 -3.89212E+03 -2.48070E+01
  2.54120E+03 -8.46028E+03  3.75451E+03 -6.82926E+03 -3.78432E+03  3.26621E+02  1.12618E+03  7.33568E+03
 -7.88140E+03  5.83152E+03 -8.63259E+03  5.81503E+03 -5.46218E+03 -4.27209E+03 -1.05102E+04  8.50876E+02
  1.01716E+02 -5.97880E+03 -2.35943E+03 -9.24168E+03  3.61798E+03  3.08881E+02  3.31442E+03 -2.58476E+02
 -6.51649E+00  4.33885E+03  7.32136E+01  7.98801E+03 -7.06955E+02 -6.78067E+03  4.84049E+02  4.53451E+03
  3.95098E+03 -3.66562E+03  1.79869E+03  3.76945E+03  8.01356E+03  2.86008E+03  1.76669E+03 -1.81566E+03
  2.74877E+03 -1.64426E+03 -4.09185E+03 -4.20257E+03 -6.72383E+03 -6.79461E+02 -2.90578E+03 -5.00672E+03
 -3.46252E+02 -4.68180E+03  7.77019E+03 -5.86760E+03  3.31480E+03  6.98558E+02  6.87577E+02  6.34049E+03
 -2.03440E+03  3.16195E+03 -5.06880E+03  5.89534E+03 -1.47424E+03  3.07903E+03  9.80536E+02  6.34465E+02
  8.55730E+02 -1.37807E+03 -4.24553E+03  5.34757E+03 -7.92553E+03  1.39154E+03 -6.81593E+03 -5.55842E+03
 -1.02871E+04 -2.50080E+03 -3.58571E+03 -4.53830E+03  2.66941E+03 -5.73992E+03  9.10470E+02  2.97049E+03
  8.88405E+03  5.74473E+03  6.85296E+03  1.53863E+03 -5.58146E+03  8.76089E+03 -4.46797E+03  2.61049E+02
