 $NMID ID='MM_0lb_SNR50_7hz_g60_90.RAW', FMTDAT='(8E13.5)'
 TRAMP=1., VOLUME=1. $END
  3.08528E+05  1.20640E+03  3.41460E+05  2.51867E+05  8.62745E+04  3.32213E+05 -1.29621E+05  2.59874E+05
 -1.87832E+05  8.96400E+04 -1.14630E+05 -3.44334E+04 -7.08838E+02 -5.02192E+04  5.41447E+04 -6.65655E+03
  3.38061E+04  5.03631E+04 -1.60425E+04  8.11972E+04 -5.77766E+04  6.27909E+04 -8.35382E+04  2.58580E+04
 -7.92800E+04 -1.63450E+04 -5.81413E+04 -5.31629E+04 -1.29588E+04 -6.80577E+04  2.33199E+04 -4.71458E+04
  4.94383E+04  3.53729E+03  1.48694E+04  4.26050E+04 -3.86086E+04  4.51962E+04 -7.00289E+04  4.96797E+03
 -6.23470E+04 -5.91551E+04 -3.86301E+02 -8.13088E+04  4.40496E+04 -5.52551E+04  5.01315E+04 -1.61905E+04
  4.54842E+04  1.01118E+04  3.46094E+04  2.87542E+04  1.39948E+04  3.10439E+04 -4.65080E+03  2.67219E+04
 -2.71300E+04  6.98346E+03 -1.65727E+04 -1.00064E+04  4.41580E+03 -5.28123E+03  2.48434E+04  1.85892E+04
  7.89921E+03  4.56909E+04 -4.25617E+04  4.28163E+04 -6.34459E+04  6.05790E+03 -6.56834E+04 -5.21500E+04
 -1.75447E+04 -6.74712E+04  3.83610E+04 -4.76975E+04  7.06649E+04 -7.67129E+03  3.79762E+04  3.03979E+04
 -8.72001E+03  3.69776E+04 -3.41299E+04  2.30796E+04 -3.71742E+04  9.42041E+02 -2.04631E+04 -1.90694E+04
 -8.40087E+03 -1.92326E+04 -3.83201E+03 -2.20033E+04  4.05628E+03 -1.78005E+04  1.90189E+04 -1.49366E+04
  2.36436E+04  3.58272E+03 -9.50168E+03  2.28933E+04 -2.52256E+04 -2.28662E+03 -7.61860E+03 -4.81674E+04
  2.54759E+04 -4.89969E+04  5.69926E+04 -2.20984E+04  4.99160E+04  1.95308E+04  1.61003E+04  5.40745E+04
 -1.98975E+04  3.74211E+04 -2.75516E+04 -1.88649E+02 -1.42960E+04 -3.52277E+04  3.08744E+04 -3.51906E+04
  4.41706E+04 -9.44005E+03  3.57797E+04  2.49241E+04  2.81326E+04  5.22351E+04 -4.57550E+03  6.62921E+04
 -3.62549E+04  4.74302E+04 -4.42857E+04  1.04072E+04 -5.33085E+04 -1.54521E+04 -2.89364E+04 -4.17882E+04
  9.17739E+03 -3.67864E+04  2.10840E+04 -1.93905E+04  3.62887E+04  9.44345E+03  4.66956E+03  1.84306E+04
 -8.43723E+03  1.37390E+04 -1.02002E+04 -7.52909E+03  4.55141E+03 -8.22137E+03  2.46912E+04  9.64525E+03
  1.97429E+04  2.08891E+04 -5.51619E+03  2.88514E+04 -2.19591E+04  2.15279E+04 -3.49947E+04  2.55769E+03
 -2.96209E+04 -7.85730E+03 -1.42360E+04 -2.98030E+04  8.36826E+03 -2.57992E+04  1.92999E+04 -3.49583E+04
  3.65336E+04 -1.03011E+04  4.60481E+04  2.63823E+03  3.08759E+04  2.71936E+04  3.84214E+03  4.00316E+04
 -1.92423E+04  3.44691E+04 -3.26288E+04  1.54842E+04 -2.36234E+04 -9.98931E+03 -1.06968E+04 -8.03205E+03
  2.47718E+03  2.40951E+03 -9.38602E+03  8.03696E+03 -1.84485E+04  4.84096E+03 -2.18656E+04 -1.00074E+04
 -9.77689E+03 -2.68649E+04  7.19907E+03 -3.54239E+04  2.34639E+04 -1.57998E+04  2.31672E+04 -4.83397E+03
  1.41585E+04  1.93474E+04  1.42432E+03  2.82091E+04 -2.49786E+04  1.38983E+04 -2.35656E+04 -6.52801E+03
 -1.87952E+04 -2.30391E+04 -7.44188E+02 -2.58198E+04  1.28091E+04 -2.40115E+04  3.26820E+04 -9.82815E+03
  1.91534E+04  5.71924E+03  1.46752E+04  4.53212E+03  3.14499E+03  5.58892E+03  1.43845E+04 -6.71163E+03
  2.56009E+04  3.95206E+03  2.49614E+04  2.11955E+04  1.97639E+04  4.03739E+04  1.37377E+03  4.42861E+04
 -3.01421E+04  4.38260E+04 -5.36951E+04  1.69089E+04 -4.80557E+04 -2.36490E+03 -4.52050E+04 -3.00946E+04
 -9.76286E+03 -4.09194E+04  1.48058E+04 -3.43539E+04  3.49087E+04 -1.89950E+04  1.84167E+04  9.15718E+03
  4.46127E+03  1.89423E+04 -1.31823E+04  1.29686E+04 -2.60176E+04  2.59684E+03 -1.39181E+04 -8.60041E+03
 -3.60628E+03 -2.42341E+04  9.87679E+03 -1.59349E+04  1.17162E+04 -5.99040E+03  3.94054E+03  6.25301E+03
 -4.68679E+03  2.28977E+03 -5.42212E+03 -7.90878E+03 -9.31190E+02 -2.49976E+04  1.37524E+04 -2.86225E+04
  2.80834E+04 -1.47436E+04  3.41745E+04  3.60705E+03  3.09418E+04  1.59767E+04  6.87020E+03  3.84054E+04
 -5.87250E+03  4.76745E+04 -2.51177E+04  2.67092E+04 -2.68177E+04  9.05022E+02 -1.91802E+04 -6.00201E+03
 -1.39881E+04 -7.96292E+03  2.25034E+03 -9.39456E+02  4.39240E+03  2.62779E+03  2.01456E+03  5.70124E+03
 -1.74720E+04 -2.19445E+03 -1.40594E+04 -8.14663E+03 -4.93796E+03 -1.47221E+04  6.37628E+03 -1.68108E+04
  1.75562E+04  7.84742E+02  9.11470E+03  3.13688E+03  2.70539E+02  1.68067E+03 -2.81134E+03 -6.32212E+03
 -3.48771E+03 -7.35730E+03 -1.58296E+03 -2.22079E+04  6.96693E+03 -1.72426E+04  1.66480E+04 -8.21656E+03
  2.89448E+04  1.25475E+03  1.85105E+04  2.35239E+04  3.16391E+03  1.89188E+04 -2.10336E+04  1.88321E+04
 -1.38699E+04  1.25525E+03 -7.20728E+03 -1.86591E+03 -4.74637E+02 -2.76824E+03  1.02702E+04  1.29793E+03
  1.12118E+04  7.54708E+03 -6.93366E+03  1.35829E+04 -9.13898E+03  1.80214E+04 -1.76823E+04  5.67242E+03
 -1.41238E+04 -9.85273E+03  1.80607E+03 -2.15301E+04  1.66801E+04 -9.04869E+03  2.38220E+04  1.41835E+03
  7.30335E+03  1.29275E+04 -3.55031E+03  1.15076E+04 -1.74749E+04 -8.82781E+01 -2.07988E+04 -1.17352E+04
 -9.34844E+03 -1.49643E+04  1.17325E+04 -2.55322E+04  1.94109E+04 -1.34692E+04  2.23557E+04  3.94425E+03
  8.09219E+03  1.97419E+04  6.86131E+01  1.68820E+04 -1.72990E+04  1.11324E+04 -1.81591E+04  1.20933E+03
 -9.08461E+03 -1.19748E+04  1.27067E+03 -1.24384E+04  5.57053E+03 -9.43343E+03  8.71399E+03 -1.84622E+03
  2.79832E+03 -4.03862E+03 -4.01653E+02 -9.30030E+03  2.93145E+03 -2.32406E+03  4.05517E+03 -1.10862E+04
  1.18865E+04 -4.68219E+03  2.04660E+04 -3.87142E+03  1.96863E+04  1.31084E+04  1.16624E+04  2.23639E+04
  2.66794E+03  3.69970E+04 -2.83936E+04  1.26183E+04 -3.66401E+04 -3.82345E+03 -3.18720E+04 -3.42460E+03
 -1.38806E+04 -1.18908E+04  5.63644E+03 -2.06795E+04  1.21531E+04 -1.34112E+04  4.39605E+03 -7.10343E+03
  5.84216E+03 -7.94647E+02 -8.07446E+01 -2.57680E+03  8.64825E+03 -7.66260E+03  7.95488E+03 -5.69699E+02
  1.23183E+04  2.18246E+03  4.85594E+03  9.33951E+03 -3.38749E+03  1.01560E+04 -1.05686E+04  8.60891E+03
 -2.13394E+04 -7.83259E+03 -1.46243E+04 -1.62206E+04 -3.09135E+03 -1.80342E+04  1.53284E+04 -1.75289E+04
  1.97158E+04 -1.05583E+04  3.12082E+04  1.33739E+03  1.49994E+04  2.20561E+04 -2.22440E+03  2.32485E+04
 -6.58791E+03  1.81731E+04 -1.23960E+04  1.03116E+04 -1.49448E+04 -5.94132E+03 -3.74554E+03 -2.93600E+03
 -1.04984E+04 -3.60413E+03 -5.35178E+03 -1.88085E+03 -5.23130E+03  3.04476E+03 -1.33401E+04 -5.03533E+03
 -6.50513E+03 -1.54815E+04 -3.40366E+03 -2.56066E+04  1.74461E+04 -1.86213E+04  2.25539E+04 -9.50175E+02
  1.50247E+04  5.00713E+03  9.05084E+03  1.57626E+04 -4.50608E+03  1.48765E+04 -1.24362E+04  1.67960E+04
 -1.78526E+04  5.96417E+03 -5.82584E+03 -1.14051E+04  5.78249E+03 -1.57311E+04  8.72901E+03 -1.20608E+04
  1.21925E+04 -1.15108E+04  1.27415E+04 -3.92458E+03 -8.20016E+02  9.62380E+03 -2.90908E+03  1.52618E+03
 -2.36748E+02  8.21709E+03  6.92461E+02  5.27845E+03  2.55807E+03  7.30395E+03 -8.92665E+01  1.31903E+04
 -2.45650E+03  1.95768E+04 -2.12432E+04  1.93200E+04 -2.30002E+04  1.82622E+03 -2.37928E+04 -1.49871E+04
 -7.57353E+03 -1.94796E+04  6.03033E+03 -2.14391E+04  1.54596E+04 -1.51846E+04  2.60020E+04  2.53631E+03
  1.20013E+04  4.81237E+03  4.51371E+03  1.48280E+04 -4.25001E+03  2.45530E+03 -1.76804E+04 -8.44736E+03
 -2.65031E+03 -7.90903E+03  7.24923E+03 -1.00675E+04  8.45153E+03 -7.02988E+03  1.36989E+04  4.37381E+03
  4.17922E+03  7.29309E+01  1.45988E+03  6.49659E+03  1.85913E+03  1.14658E+03  2.46207E+03  1.68798E+03
  2.20225E+03 -6.28980E+03  6.87717E+03 -4.74787E+03  9.68375E+03  4.39809E+03  1.95023E+03  1.21868E+04
 -1.22091E+04  1.42522E+04 -1.12658E+04  3.91389E+03 -1.27029E+04 -5.50722E+02 -5.06352E+03 -1.00559E+04
  5.22056E+03 -1.55945E+04  2.91354E+03 -1.19091E+04  3.30480E+03  3.69036E+03  5.80178E+02  7.79742E+03
 -3.08946E+03  5.97234E+03 -5.95726E+03 -5.10435E+03 -1.78681E+03 -9.77179E+03 -7.75981E+02 -1.52258E+04
  8.74316E+03 -6.32402E+03  1.09052E+04 -8.81740E+03  8.57699E+03  2.98434E+03  5.14196E+02  4.59023E+03
 -5.93070E+03  6.11962E+03 -1.12168E+04 -1.19066E+03 -1.78318E+03 -1.03180E+04  8.43017E+03 -6.65719E+03
  1.30066E+04  3.70146E+03  2.41233E+04  1.25800E+04  4.89695E+03  1.54573E+04 -9.64958E+02  7.33876E+03
 -6.89615E+03  2.46090E+03 -1.16049E+04 -1.86922E+03 -6.80214E+02 -1.38578E+04 -1.05107E+03 -5.06869E+03
 -1.26715E+03 -1.05394E+04 -6.71617E+02 -1.88130E+03  1.60894E+02  1.22280E+04  3.11151E+03 -1.25012E+03
 -2.11335E+02  4.94491E+03  1.76143E+03 -1.14791E+03  7.11486E+03 -1.57409E+03 -1.23734E+04 -1.29294E+03
 -2.24093E+03  9.04307E+03 -7.40253E+03  8.10085E+03 -1.96085E+04  1.43384E+03 -1.67326E+04 -1.02193E+04
 -5.32635E+03 -2.15391E+04  4.45184E+03 -2.70030E+04  1.60184E+04 -2.12114E+04  2.07473E+04 -6.53905E+03
  1.36453E+04  1.00726E+04  1.77034E+04  5.25977E+03  2.89882E+03  1.69518E+04  1.09057E+02  1.25351E+04
 -7.84754E+03  2.91058E+03 -5.25778E+03  7.58184E+03 -1.95880E+03 -3.33391E+02  5.62826E+03 -4.51444E+02
 -4.12502E+03  3.86143E+03  3.57751E+03  2.75181E+03 -3.87918E+03 -8.26394E+03 -3.34909E+03 -3.65956E+03
  8.51240E+03 -4.04987E+03  1.65955E+04  6.66315E+00  7.76766E+03  1.10997E+04 -5.51459E+00  1.91623E+04
 -3.21510E+03  1.91864E+04 -1.69903E+04  1.25564E+04 -2.73403E+04  9.89315E+02 -1.33895E+04 -9.81979E+03
 -2.81725E+03 -1.48332E+04  1.55244E+03 -1.55967E+04  8.38838E+03 -1.43460E+04  6.50815E+03  3.11972E+03
  5.69383E+03  7.21746E+03  3.96487E+03  3.25930E+03 -2.09731E+03 -9.57977E+03  1.01624E+03 -7.40272E+03
  9.30827E+03 -2.04771E+02  6.15169E+03 -1.90765E+03  1.02761E+04  7.06027E+03  1.36079E+03  4.20085E+03
 -3.49318E+03  1.07943E+04 -1.46032E+04  5.83152E+03 -5.92355E+03 -9.39015E+03 -4.56162E+03 -1.24306E+04
  1.54696E+04 -1.24358E+04  7.88133E+03 -2.35254E+03  1.84872E+04  2.52074E+03  1.09953E+04  1.04017E+04
 -1.50357E+02  1.10571E+04 -3.57649E+03  1.69828E+04 -9.25812E+03  5.38842E+03 -6.16620E+03 -1.86203E+03
  2.01424E+03 -1.29929E+03 -9.39551E+03  1.27539E+03 -1.08043E+04  5.82564E+02 -1.45353E+04  1.44906E+02
 -1.00820E+04 -1.24259E+03 -2.33701E+03 -1.93042E+04  7.42671E+03 -6.24825E+03  9.60950E+03 -9.71311E+03
  2.10678E+04 -3.86579E+03  8.52635E+03 -1.04058E+03 -1.95628E+03  7.84426E+03 -8.64352E+03  5.04964E+03
