 $NMID ID='MM_0lb_SNR50_11hz_g50_97.RAW', FMTDAT='(8E13.5)'
 TRAMP=1., VOLUME=1. $END
  3.07163E+05 -4.02256E+03  3.39115E+05  2.51815E+05  7.75219E+04  3.35891E+05 -1.35504E+05  2.52854E+05
 -1.87137E+05  8.29141E+04 -1.15072E+05 -3.26359E+04  2.96156E+03 -5.31197E+04  5.06858E+04  1.24924E+03
  3.32129E+04  5.30373E+04 -1.83763E+04  8.16621E+04 -5.83682E+04  6.65507E+04 -8.60839E+04  2.95898E+04
 -8.28258E+04 -1.09358E+04 -5.78553E+04 -5.70330E+04 -1.70812E+04 -7.01984E+04  2.77768E+04 -4.47249E+04
  4.27612E+04  3.23213E+03  1.65055E+04  4.53666E+04 -3.81221E+04  3.98808E+04 -6.59576E+04  2.80684E+03
 -6.06147E+04 -6.03027E+04 -5.56026E+03 -7.82900E+04  3.57169E+04 -5.61004E+04  4.56039E+04 -1.95389E+04
  4.41093E+04  7.39528E+03  3.85727E+04  2.99959E+04  1.65167E+04  3.05582E+04 -1.05945E+04  3.12763E+04
 -1.82319E+04  1.29195E+04 -1.73773E+04 -3.25887E+03  4.18305E+03 -8.92349E+03  2.53911E+04  1.01625E+04
  6.37965E+03  4.04357E+04 -3.54537E+04  3.46393E+04 -6.30855E+04  4.24694E+03 -6.48902E+04 -4.04020E+04
 -1.56001E+04 -6.59568E+04  4.10973E+04 -4.75013E+04  5.83464E+04 -2.82470E+03  3.62337E+04  3.49108E+04
 -4.68176E+03  3.94395E+04 -2.67297E+04  1.68626E+04 -3.22337E+04 -6.32751E+03 -1.49175E+04 -1.02222E+04
 -1.24144E+04 -1.65197E+04  5.02133E+03 -1.55492E+04  1.02902E+04 -2.67535E+04  1.82793E+04 -1.62605E+04
  8.59458E+03  2.50687E+03 -1.62513E+04  1.21489E+04 -2.12581E+04 -2.55045E+03 -1.10931E+04 -3.39754E+04
  2.49428E+04 -4.24897E+04  4.79488E+04 -2.26142E+04  4.68378E+04  2.43238E+04  1.55663E+04  4.82974E+04
 -1.50820E+04  3.80260E+04 -3.00276E+04  3.25003E+03 -1.99828E+04 -3.30954E+04  2.05344E+04 -3.70190E+04
  4.02991E+04 -8.40251E+03  3.95717E+04  2.60012E+04  2.06190E+04  5.10534E+04 -8.76868E+03  4.99602E+04
 -3.33520E+04  3.07978E+04 -4.99081E+04  6.56668E+03 -4.71769E+04 -1.96660E+04 -2.17789E+04 -4.17572E+04
  1.73299E+03 -3.64843E+04  3.15527E+04 -1.22036E+04  3.50790E+04  9.35651E+03  6.53864E+02  2.18480E+04
 -1.82404E+04  5.82913E+03 -4.22392E+03 -7.29406E+03  5.55375E+03 -6.40864E+03  1.81569E+04  7.74666E+03
  1.31624E+04  2.60852E+04 -5.11856E+03  2.73353E+04 -2.26063E+04  2.16081E+04 -3.02603E+04 -1.10634E+03
 -2.33009E+04 -1.85058E+04 -8.14466E+03 -1.91341E+04  1.40974E+03 -2.19798E+04  2.12726E+04 -1.94753E+04
  2.95512E+04 -1.01648E+04  3.18449E+04  6.04760E+03  2.55498E+04  2.02580E+04  3.21391E+03  3.90446E+04
 -1.74345E+04  2.99823E+04 -3.53171E+04  1.26000E+04 -2.39846E+04 -1.29489E+04 -4.98027E+03 -1.91553E+04
 -7.30678E+03 -5.02899E+03 -4.32692E+03  1.03784E+04 -1.69674E+04  7.04451E+03 -1.83374E+04 -3.60935E+03
 -3.20645E+03 -2.09819E+04  8.91494E+02 -2.73158E+04  1.65184E+04 -1.63934E+04  2.11272E+04 -2.85703E+02
  1.98001E+04  1.74839E+04 -5.60227E+03  2.06341E+04 -1.44803E+04  1.16891E+04 -2.62173E+04 -8.04071E+03
 -1.44813E+04 -1.83553E+04 -1.69103E+03 -2.73693E+04  1.64465E+04 -2.30370E+04  2.45560E+04 -1.12926E+04
  1.96102E+04  1.12664E+03  1.75321E+04  6.18696E+03  8.09672E+03  4.79754E+03  1.10377E+04  7.91442E+02
  2.56221E+04  5.82821E+03  2.09267E+04  1.19094E+04  1.94801E+04  3.80062E+04 -5.75949E+03  4.48536E+04
 -1.91166E+04  2.70606E+04 -3.56566E+04  1.57858E+04 -3.43112E+04  1.89202E+03 -2.92262E+04 -2.68727E+04
 -1.29079E+04 -3.48342E+04  1.13472E+04 -2.97218E+04  2.96549E+04 -1.98639E+04  2.26356E+04  4.99004E+03
  2.12062E+03  1.39251E+04 -8.44881E+03  1.00958E+04 -1.44967E+04  7.71325E+03 -1.13773E+04 -9.76859E+03
  2.72708E+02 -1.69336E+04  8.24811E+03 -1.84825E+04  1.19836E+04  3.71235E+03  4.70317E+03  7.37760E+03
 -5.43453E+02  4.48400E+03 -4.55317E+03 -3.16092E+03 -3.41521E+03 -2.04375E+04  1.43443E+04 -1.56911E+04
  2.84664E+04 -5.75376E+03  2.29881E+04  2.21352E+03  2.07163E+04  1.45451E+04  1.17283E+04  2.20740E+04
 -4.25563E+03  3.05955E+04 -1.94665E+04  2.13805E+04 -2.14948E+04  4.94499E+03 -1.46048E+04 -8.71064E+03
 -1.04748E+04 -1.47762E+04 -5.08451E+03  9.03988E+02  5.12417E+03 -3.63500E+02 -7.75518E+03  4.36707E+03
 -1.22672E+04 -7.33433E+02 -1.37284E+04 -8.32554E+03 -4.48312E+03 -2.31060E+04  8.78341E+03 -1.95901E+04
  8.63901E+03 -7.38944E+03  7.60854E+03  8.47050E+03  8.66442E+02  2.19146E+03 -1.24399E+04 -2.20601E+03
 -6.01870E+03 -7.25618E+03 -5.78016E+02 -1.58352E+04  5.92126E+03 -1.68388E+04  1.21753E+04 -5.89485E+03
  2.19251E+04  5.07819E+03  1.41813E+04  1.29580E+04  2.08692E+03  7.65194E+03 -3.10042E+03  1.55414E+04
 -1.33748E+04  9.56239E+03 -5.39464E+03 -3.59612E+03 -1.49669E+03  2.86362E+03  9.45306E+03  1.31883E+01
 -8.08992E+02  6.90541E+03 -1.11621E+03  1.57609E+04 -6.00521E+03  7.66761E+03 -1.66629E+04  4.67676E+02
 -2.07078E+03 -6.46360E+03  2.12454E+03 -1.50478E+04  3.66288E+03 -8.51831E+03  2.65675E+03  1.73294E+03
 -1.07422E+03  7.39032E+03 -4.27747E+03  9.83651E+03 -1.07231E+04  2.01861E+03 -1.38427E+04 -3.71531E+03
  1.27543E+03 -1.56762E+04 -2.02831E+03 -1.62344E+04  1.64615E+04 -1.68334E+04  1.49011E+04 -5.47987E+02
  1.03709E+04  1.28516E+04 -7.95685E+03  1.24529E+04 -1.24297E+04  1.03166E+04 -9.36323E+03 -6.32985E+03
 -1.09180E+04 -1.51608E+04 -3.68489E+03 -8.20066E+03  7.60171E+03 -9.38908E+03  6.51959E+03 -4.31491E+03
  4.28258E+03  2.37352E+03 -1.10574E+03  4.56120E+03  4.42905E+03 -8.03550E+03 -1.36654E+03 -9.05890E+03
  8.10688E+03 -5.86052E+03  8.84245E+03 -6.56286E+02  1.58977E+04  1.19292E+04  6.22570E+03  1.75419E+04
 -4.08675E+03  1.85950E+04 -1.63287E+04  9.08809E+03 -1.92036E+04  2.14182E+03 -1.49377E+04 -1.07612E+04
 -8.82768E+03 -1.24567E+04  3.87169E+02 -1.17148E+04  3.86476E+02 -8.30562E+03  3.85401E+03 -8.83074E+03
  5.08664E+03 -3.94434E+03  4.17719E+03 -5.85887E+00  6.55402E+03 -4.21884E+03  1.81285E+03 -1.30449E+03
  8.39413E+03  4.29260E+03  3.57306E+03  1.04033E+04 -2.66692E+03  1.04856E+04 -6.50211E+03  2.95444E+03
 -1.37006E+04 -1.74363E+02 -5.79279E+03 -8.01453E+03  1.83033E+03 -1.29396E+04  4.99231E+03 -1.50442E+04
  1.43752E+04 -4.91684E+03  1.17026E+04 -1.47935E+03  1.36438E+04  1.19186E+04 -1.02053E+03  1.95966E+04
 -7.98846E+03  1.37907E+04 -1.07265E+04 -1.18501E+03 -1.01004E+04 -4.65301E+03 -3.06877E+03 -1.32657E+02
 -2.03209E+03 -4.60353E+03  1.23804E+03  4.11297E+03 -3.79000E+03 -2.60074E+03 -8.64403E+03 -2.88777E+02
 -2.50678E+03 -5.37695E+03  3.88817E+03 -1.20050E+04  8.32203E+03 -1.06492E+04  1.23101E+04  5.94605E+02
  1.30285E+04  5.11384E+03  3.26457E+03  8.61215E+03 -4.84385E+03  1.24823E+04 -1.07045E+04  3.61938E+03
 -9.54016E+03 -3.66009E+03 -9.93499E+03 -9.69908E+03  7.83258E+03 -1.01446E+04  6.52889E+03 -4.36590E+03
  3.86802E+03 -2.59047E+03 -2.24709E+03  1.49678E+03 -1.56578E+03  6.32571E+03  4.15096E+03  1.51227E+03
 -3.55718E+03 -1.15284E+03  1.20290E+04  2.15824E+03  4.99424E+02  4.91894E+03  1.16647E+02  8.91085E+02
 -7.56711E+03  5.16950E+03 -5.96451E+03  1.31832E+04 -1.01802E+04  2.87062E+03 -1.26322E+04 -5.36066E+03
 -6.43950E+03 -1.62992E+04  4.28184E+02 -1.33779E+04 -3.56878E+01 -1.19006E+04  1.46107E+04 -3.60494E+03
  1.16394E+04 -2.12102E+03  7.49357E+03  7.69215E+03 -5.12763E+03  4.62138E+03 -5.02875E+03 -2.06319E+03
 -2.68205E+03 -6.59883E+03  2.68866E+03 -6.82390E+03  3.60727E+03  4.24379E+03  8.76261E+03  3.76006E+02
  3.70869E+03  3.57741E+03 -1.60301E+03  7.03400E+03  3.00058E+03 -1.83986E+03  9.89631E+02 -7.03673E+03
  5.25055E+03  2.40065E+03 -2.49935E+03 -7.61872E+02  4.76192E+03  5.11405E+03 -2.85045E+02  9.61656E+03
 -5.75477E+03  8.29240E+03 -7.64740E+03 -3.16938E+03 -1.00335E+04 -2.76362E+03 -1.33686E+02  1.80944E+03
  2.33393E+03 -1.15818E+04  2.77191E+03 -6.76818E+03  3.27962E+03  1.85603E+02 -1.50938E+03  8.24712E+02
 -5.20290E+03  5.35862E+03 -5.67615E+03 -7.93965E+02 -2.18191E+03 -9.30384E+03  3.86418E+02 -1.25521E+04
  3.64919E+03 -4.84579E+03  7.91503E+02  3.39592E+03  4.25130E+03 -9.96248E+02 -5.20411E+02  3.81103E+03
 -6.21259E+03  3.01781E+03 -4.82720E+03 -1.60706E+03 -4.25992E+02 -6.16391E+03  2.49391E+03 -6.74708E+03
  1.20702E+04  6.02035E+03  5.69055E+03  7.44079E+03  4.89629E+03  9.18537E+03 -7.21253E+03  2.40813E+03
 -5.41073E+03  3.31346E+03 -9.53168E+02  9.32500E+02 -2.48142E+03 -2.12991E+03 -1.71050E+02  1.51452E+03
  6.60225E+03  7.99294E+01  3.18283E+03  1.48342E+03  5.13604E+02 -1.15863E+02  6.95687E+03  9.01125E+03
 -7.14691E+01  5.25151E+03  3.87248E+03  2.07636E+03  8.61664E+02  5.52264E+03  1.97851E+03  6.23918E+03
  1.02470E+03 -3.40671E+03 -8.28483E+03  2.09857E+03 -4.11735E+03  1.06715E+03 -2.00940E+03 -1.89807E+03
 -8.88825E+03 -1.42994E+04  4.52011E+02 -1.21505E+04  6.56632E+03 -1.48765E+04  7.48712E+03  1.67876E+02
  6.63611E+03  5.05973E+03  1.60860E+03  9.92350E+03 -8.37344E+02  6.14425E+03  3.17036E+02  5.38767E+03
 -6.43365E+03  5.64903E+02 -2.39814E+03 -1.92089E+03  4.73103E+03  3.91194E+03  2.89371E+03  1.48398E+03
 -4.46853E+03 -1.91481E+03 -2.93814E+03 -3.16111E+03 -1.18316E+03 -5.61610E+02  2.28052E+03  7.43846E+02
 -1.11778E+03 -2.50684E+03  3.02705E+03 -2.67347E+02  4.35930E+03  7.03104E+03  7.10843E+03  8.09065E+03
 -7.76160E+03  9.63414E+03 -6.64556E+03  3.79220E+03 -7.44471E+03 -3.56425E+03 -3.86903E+03 -7.40195E+03
 -3.78440E+03 -1.03618E+04 -3.44154E+02 -8.30375E+03 -5.77156E+03  2.68975E+02  3.86052E+03 -3.52815E+03
  5.22810E+03  2.32806E+03  2.72105E+03  2.93279E+02 -1.83677E+03 -1.88570E+03  3.18681E+01 -2.82556E+03
 -1.86151E+03 -4.82784E+03  4.61265E+03  2.09246E+03  4.75732E+03  1.95732E+03 -1.18477E+03 -2.18222E+03
 -3.07275E+03  4.54414E+03 -9.45266E+02  5.12857E+03 -2.21838E+03 -6.36441E+03  1.96513E+03 -6.92124E+03
 -5.84908E+02 -2.73429E+03  9.82403E+03 -4.76912E+03  8.46501E+03  1.66492E+03  2.94557E+03  6.02741E+02
  4.19651E+03  2.93417E+03 -2.08540E+03  1.74073E+03 -2.37468E+03 -1.42965E+03  1.43018E+03  3.58931E+03
  2.05719E+03 -8.50336E+02 -2.94131E+03  3.48343E+03 -8.27702E+03  2.95631E+03 -3.66893E+03  1.45099E+03
  6.21271E+02 -7.18763E+02  6.98834E+02 -7.26265E+03  3.33715E+03 -7.11598E+03  6.10196E+03 -1.60992E+03
  6.31214E+03 -5.49956E+03  1.16351E+04  4.04872E+03 -2.73876E+03  3.81124E+03  1.01021E+03  1.36912E+01
