 $NMID ID='MM_0lb_SNR50_11hz_g50_23.RAW', FMTDAT='(8E13.5)'
 TRAMP=1., VOLUME=1. $END
  3.10660E+05  9.99332E+02  3.39330E+05  2.49960E+05  8.27090E+04  3.36210E+05 -1.29032E+05  2.51725E+05
 -1.92235E+05  8.05300E+04 -1.10976E+05 -2.81772E+04  4.34427E+03 -5.32515E+04  5.29238E+04  1.21683E+03
  3.13185E+04  4.69649E+04 -1.59347E+04  7.35085E+04 -6.19432E+04  6.07160E+04 -9.05311E+04  2.98264E+04
 -8.32836E+04 -1.68015E+04 -6.05404E+04 -5.17598E+04 -1.26651E+04 -7.24971E+04  2.95617E+04 -4.77852E+04
  3.71764E+04  9.93396E+02  1.38460E+04  4.70591E+04 -4.00693E+04  4.76995E+04 -6.24880E+04 -4.95901E+03
 -5.68376E+04 -5.49674E+04 -5.71697E+03 -7.77051E+04  3.79390E+04 -5.56206E+04  5.08352E+04 -1.91669E+04
  5.00278E+04  5.38664E+03  3.36651E+04  1.98223E+04  1.39393E+04  2.43905E+04 -7.00891E+03  2.45639E+04
 -2.93116E+04  7.54643E+03 -1.98220E+04 -8.91964E+03  5.55821E+03 -4.09378E+03  2.29287E+04  1.05355E+04
  1.11417E+04  3.06574E+04 -3.45938E+04  3.19357E+04 -6.22371E+04  1.51131E+03 -5.41865E+04 -4.66975E+04
 -1.96833E+04 -6.23224E+04  4.32758E+04 -5.06144E+04  5.91309E+04  1.44708E+03  3.78713E+04  3.32434E+04
 -4.72206E+03  3.94827E+04 -3.18025E+04  1.81564E+04 -3.03918E+04  1.72364E+03 -1.53453E+04 -1.42108E+04
 -9.78791E+03 -2.08832E+04  2.32666E+02 -1.85102E+04  9.20806E+03 -2.89519E+04  1.11721E+04 -1.54088E+04
  7.81132E+03  7.37080E+03 -7.11356E+03  1.14755E+04 -2.25843E+04 -8.23074E+03 -5.47909E+03 -4.24652E+04
  2.52996E+04 -4.49964E+04  4.57399E+04 -2.11302E+04  4.71688E+04  1.63727E+04  1.78214E+04  5.34218E+04
 -2.07448E+04  3.37827E+04 -2.95308E+04  1.74063E+03 -1.26588E+04 -3.44605E+04  2.36862E+04 -3.45442E+04
  4.27389E+04 -1.20998E+04  3.35727E+04  2.43572E+04  1.98655E+04  4.50583E+04 -8.84617E+03  5.36694E+04
 -3.25803E+04  3.75885E+04 -4.19661E+04  9.71686E+03 -4.57391E+04 -1.69045E+04 -2.66929E+04 -4.63186E+04
  7.63321E+03 -4.10667E+04  3.24391E+04 -2.20737E+04  3.54117E+04  1.78552E+04  6.36126E+03  1.88159E+04
 -1.64868E+04  8.73298E+03 -8.31895E+03 -7.35020E+03  7.46347E+03 -1.53923E+04  2.34939E+04  2.31229E+03
  1.86315E+04  2.71824E+04 -1.02626E+04  2.83042E+04 -2.33311E+04  1.64039E+04 -3.43427E+04 -3.45587E+03
 -2.69819E+04 -2.26123E+04 -1.20510E+04 -2.75396E+04  1.97858E+03 -2.47991E+04  1.95009E+04 -2.19105E+04
  2.78026E+04 -1.63854E+04  3.41422E+04  5.15135E+02  2.59726E+04  2.08473E+04  4.90307E+03  3.64740E+04
 -1.92912E+04  2.82124E+04 -2.49173E+04  1.05030E+04 -2.39867E+04 -9.98756E+03 -9.22159E+03 -1.41148E+04
  4.81958E+03 -5.42784E+03 -3.70320E+03  8.50822E+03 -1.13264E+04 -1.31570E+02 -2.06989E+04 -5.36426E+03
 -1.24197E+04 -2.21604E+04  1.25195E+03 -2.97669E+04  1.81384E+04 -1.51699E+04  2.16296E+04 -5.01337E+03
  9.76173E+03  1.65364E+04 -1.34043E+03  1.68540E+04 -1.41711E+04  1.38582E+04 -2.07406E+04 -7.51198E+03
 -1.26343E+04 -2.27146E+04  9.64047E+02 -2.33240E+04  1.03033E+04 -2.01736E+04  1.76484E+04 -1.30087E+04
  1.57849E+04  1.61612E+03  1.27838E+04  5.25499E+03  7.26345E+03 -1.18323E+03  1.28328E+04 -3.25407E+03
  1.58300E+04  5.61803E+02  1.64705E+04  9.28157E+03  2.03426E+04  3.45788E+04 -7.77247E+03  4.11817E+04
 -1.66098E+04  3.49723E+04 -3.60330E+04  2.21976E+04 -3.80452E+04 -5.60549E+03 -3.54003E+04 -2.47732E+04
 -1.21001E+04 -3.24655E+04  1.15742E+04 -2.54246E+04  2.30557E+04 -1.19661E+04  2.50901E+04  4.58430E+03
  3.36451E+03  1.23104E+04 -1.18351E+04  2.05711E+04 -1.04082E+04 -1.41538E+03 -1.55254E+04 -1.30928E+04
 -2.49744E+03 -1.95837E+04  4.90833E+03 -1.14951E+04  9.15931E+03 -6.23676E+03  4.31844E+03  4.48637E+03
 -8.42724E+03  1.70438E+03 -8.02124E+03 -7.79121E+03 -1.54569E+03 -1.70461E+04  8.24249E+03 -2.01396E+04
  1.95234E+04 -1.16866E+04  2.10316E+04 -2.10092E+02  1.81930E+04  2.45623E+04  8.10215E+03  2.78273E+04
 -1.53111E+03  2.77055E+04 -2.17367E+04  1.60137E+04 -1.98334E+04  6.16715E+03 -1.27559E+04 -9.27089E+03
 -6.57106E+03 -7.41156E+03  8.41291E+02 -2.38033E+03 -8.43813E+03  1.04587E+03 -3.10169E+03  5.47072E+03
 -1.55215E+04 -2.48773E+03 -1.11040E+04 -8.75077E+03 -3.90441E+03 -1.98201E+04  1.03657E+04 -1.61951E+04
  1.03615E+04 -1.35303E+04  7.83156E+03  1.04479E+04  2.41780E+03  9.72391E+03 -3.83231E+03 -1.98135E+03
 -9.29025E+03 -7.99694E+03  2.42640E+03 -1.40341E+04  5.84075E+03 -1.80838E+04  1.59819E+04 -1.36425E+04
  1.42777E+04 -2.33925E+03  1.58141E+04  1.51628E+04  3.33627E+03  1.82158E+04 -5.99060E+03  1.26179E+04
 -1.43534E+04  8.31070E+03 -9.03633E+03 -1.72878E+03  1.03590E+03 -7.40377E+03  7.00506E+03 -1.08771E+03
  4.17241E+03  1.14917E+04  1.05502E+03  8.34911E+03 -6.16220E+03  1.09081E+04 -1.13336E+04  4.81364E+03
 -8.51649E+03 -4.54130E+03 -2.36065E+03 -1.79306E+04  1.36859E+04 -9.34944E+02  8.73678E+03  1.05608E+03
 -1.79071E+03  6.90882E+03 -5.47500E+03  1.50803E+04 -8.56247E+03  1.21287E+03 -1.33713E+04 -7.73736E+03
 -6.09992E+03 -1.25319E+04 -3.51298E+02 -1.19679E+04  8.80555E+03 -5.25872E+03  1.52098E+04  3.98591E+03
  6.03373E+03  9.68877E+03 -4.71428E+03  1.36704E+04 -1.57490E+04  3.21881E+03 -9.05770E+03 -1.42316E+03
 -8.99048E+03 -1.41243E+04 -1.17351E+03 -9.60142E+03  4.68394E+03 -8.67116E+03  1.11841E+04 -3.88117E+03
  5.00263E+03  5.22608E+03 -3.66063E+03 -3.34669E+03  2.04872E+03 -2.67064E+03  6.28480E+02 -5.02148E+03
  1.26560E+04  2.68626E+02  1.45464E+04  3.72324E+03  1.41447E+04  4.78391E+03  6.35907E+03  1.66128E+04
  3.38664E+03  2.34803E+04 -1.90049E+04  1.20368E+04 -1.40268E+04  5.12378E+03 -1.96338E+04 -9.83577E+03
 -4.57120E+03 -1.20060E+04  3.56544E+02 -8.35951E+03  8.74214E+03 -1.44360E+04  4.57609E+01 -7.29727E+03
  1.24838E+02  3.52309E+02  3.43556E+03  3.49443E+03  3.38872E+03 -3.97906E+03  1.05538E+04 -2.49845E+03
  1.04900E+04 -3.25607E+02  3.21880E+03  7.01987E+03 -3.20909E+03  8.46856E+03 -6.27993E+03  5.83362E+03
 -1.26182E+04 -3.47994E+02 -1.10021E+04 -6.93314E+03  2.49917E+03 -1.44690E+04  7.02115E+03 -1.36662E+04
  1.66222E+04 -7.70970E+03  1.71425E+04  6.11969E+03  1.06661E+04  8.24607E+03  2.46594E+03  1.99509E+04
 -6.07496E+03  1.19707E+04 -7.40229E+03  4.51453E+03 -5.25869E+03 -2.62895E+03 -6.41451E+03  6.75521E+03
  2.15580E+03  2.20843E+03 -7.76465E+03  2.79141E+03 -6.73570E+03  5.17914E+03 -7.54792E+03 -2.33058E+03
 -5.94048E+03 -8.59238E+03 -3.82953E+01 -1.17974E+04  4.77797E+03 -1.04657E+04  5.00018E+03 -5.13276E+03
  1.34132E+04  4.72972E+03  3.69722E+03  1.04175E+04  1.72371E+03  1.37824E+04 -1.18419E+04  4.12949E+03
 -7.45834E+03  2.86184E+03 -7.06865E+03 -4.27481E+03 -1.39821E+02 -7.33349E+03  2.65482E+03 -7.12291E+03
  7.37893E+02 -2.32598E+02  2.58155E+03 -1.64855E+03 -2.78407E+02  1.02189E+03 -4.48843E+03  1.97203E+03
 -1.70056E+02  1.52055E+03  7.64402E+03  2.45468E+03  5.48051E+03  8.52862E+03 -5.15269E+02  7.36618E+03
 -4.90768E+03  1.41372E+04 -1.46651E+04  7.79095E+03 -1.51545E+04 -3.98765E+03 -1.41189E+04 -8.91022E+03
 -5.40235E+03 -8.97759E+03  7.38742E+03 -1.23546E+04  7.36045E+03 -7.61212E+03  9.15918E+03 -1.89200E+03
  1.00329E+04  7.10109E+03  6.62139E+03  8.42855E+03 -1.00514E+04  4.04798E+02 -3.62019E+03 -8.52353E+03
 -5.44122E+02 -3.46780E+02  7.16099E+03 -5.45655E+03  3.74327E+03  3.42309E+02  2.08528E+03  3.52691E+02
  7.79807E+03  3.89849E+03  3.41800E+03 -1.42160E+03 -5.57042E+03  6.85544E+02  5.00354E+02 -5.19310E+03
  3.83317E+03 -5.27370E+03  8.53332E+03 -7.19000E+02  2.92755E+02  8.91209E+03 -1.31675E+03  7.70922E+03
 -5.75521E+03  8.09033E+03 -2.09531E+03  3.19871E+03 -9.12260E+03 -3.00145E+03  2.16148E+03 -1.55968E+03
 -4.87670E+02 -5.53281E+03  5.30914E+03  5.83072E+02  6.09666E+03 -9.09762E+02 -4.92389E+03  2.87421E+03
 -4.45200E+03 -4.14351E+03 -5.35204E+03 -5.28552E+03 -2.10999E+03 -8.40290E+03  4.16784E+03 -7.14066E+03
  1.50389E+03 -6.73847E+03  4.84098E+03  5.01217E+02  1.26606E+02  4.60867E+03  8.57177E+03 -9.46646E+02
 -4.72448E+03  5.17079E+03  1.72477E+03  1.85785E+03  3.86193E+03 -6.94673E+03  7.77232E+03 -8.88853E+03
  6.41596E+03 -1.26001E+03  7.86092E+03  5.97058E+03  5.82680E+02  7.05808E+03 -4.43503E+03  5.75870E+03
 -3.10297E+03  8.25696E+02 -6.82257E+03 -2.79233E+03 -3.82542E+03 -7.46229E+03  3.35669E+03 -4.63372E+03
  6.30495E+03 -1.56751E+03  4.76319E+03  3.90608E+03  4.91904E+03 -2.27408E+01 -4.39956E+03  6.65688E+03
 -6.95337E+03  2.49143E+03 -6.49668E+03 -5.01130E+03 -3.46937E+03 -1.91211E+03 -6.95099E+03 -9.09077E+02
  1.34662E+03 -4.51574E+03 -7.40279E+03  1.26048E+03 -3.80423E+03 -5.15103E+03 -6.63431E+03 -4.72723E+03
 -8.31837E+03 -7.70010E+03  7.96728E+03 -5.42013E+03  1.11959E+03 -1.24904E+04  1.08391E+04 -3.11151E+01
  8.92810E+03  3.56360E+03  6.22761E+03  5.85825E+02  6.37224E+03  1.13740E+04 -3.61522E+03  5.61063E+03
 -6.45537E+03  2.01128E+03 -8.38926E+03  3.43387E+03 -1.07308E+04  2.15788E+03 -2.74645E+03 -1.28413E+03
 -6.18520E+03  3.39227E+03  3.25303E+02  2.10332E+03 -2.98819E+02 -6.30913E+02  5.88956E+03 -1.95004E+03
  6.38201E+03 -4.36991E+03  5.34911E+03 -2.80352E+02  5.98148E+03  3.15009E+03  2.73257E+03  1.03268E+04
 -1.48101E+02  8.02473E+03 -7.65762E+03  6.97866E+03 -4.63912E+03 -3.18073E+03 -8.85980E+03 -5.81609E+03
  2.01471E+02 -3.67905E+03 -1.32017E+03 -7.60775E+03  8.47455E+03 -5.42742E+02  5.81145E+03  2.26819E+03
  3.00244E+03  1.02309E+04 -1.02604E+03 -5.83081E+02  2.22795E+03 -2.09331E+03  3.43233E+03 -1.35040E+03
  4.59499E+03 -7.59868E+02  5.17097E+02  1.60627E+03  1.37732E+03  2.81230E+03 -3.69156E+03  1.00031E+03
  1.57658E+03  2.69032E+03 -7.24753E+03 -6.28058E+03 -8.32259E+03 -4.90292E+03  1.13295E+03 -6.39537E+03
  6.02741E+03 -1.67581E+03  8.32383E+03  2.56270E+03  1.14247E+04 -2.44949E+03  2.83548E+03  7.82481E+03
  2.43908E+03  4.73619E+03 -9.27580E+02 -3.59148E+03 -2.27144E+03  1.37289E+03  5.70088E+02 -1.83366E+03
 -8.98865E+03 -1.86697E+03 -2.35389E+03  1.67625E+03 -5.44628E+03  4.70639E+03 -4.99752E+03 -6.20495E+03
 -4.98490E+03 -3.80842E+03  2.14053E+03 -2.92807E+03  3.64359E+03  2.06361E+03  2.33014E+03 -2.50558E+03
  6.59651E+03 -6.92238E+02  6.86839E+02 -1.81014E+03 -3.75841E+03  9.36045E+03 -1.70597E+03  1.45912E+03
