 $NMID ID='MM_0lb_SNR50_15hz_g50_25.RAW', FMTDAT='(8E13.5)'
 TRAMP=1., VOLUME=1. $END
  3.09974E+05 -6.44164E+02  3.31777E+05  2.47336E+05  8.81889E+04  3.40637E+05 -1.32375E+05  2.52312E+05
 -1.87238E+05  8.78786E+04 -1.09072E+05 -3.42169E+04  2.82567E+03 -5.16632E+04  5.88648E+04 -1.74674E+03
  3.58552E+04  4.76020E+04 -2.20234E+04  7.67753E+04 -6.07108E+04  6.09641E+04 -8.75071E+04  3.05749E+04
 -8.17763E+04 -1.08074E+04 -5.88803E+04 -5.02647E+04 -1.53935E+04 -6.69360E+04  2.95012E+04 -4.65558E+04
  3.88533E+04  1.19140E+03  1.78038E+04  4.92829E+04 -3.40997E+04  4.21275E+04 -6.75484E+04 -1.38212E+03
 -5.39813E+04 -5.74157E+04 -8.17802E+03 -7.83719E+04  2.96852E+04 -5.24709E+04  5.22366E+04 -1.71287E+04
  4.34753E+04  7.55445E+03  3.07066E+04  2.90028E+04  1.56348E+04  2.81746E+04 -1.55567E+03  2.15308E+04
 -2.77496E+04  1.27924E+04 -1.90138E+04 -3.80027E+01  4.76268E+03 -9.26810E+03  2.28232E+04  1.12332E+04
  2.60274E+03  2.94209E+04 -3.31859E+04  3.57347E+04 -5.73530E+04  7.46622E+03 -5.68434E+04 -4.02620E+04
 -1.44811E+04 -5.91227E+04  3.87766E+04 -4.59801E+04  5.58908E+04 -2.71695E+03  3.51084E+04  3.17700E+04
 -9.34058E+03  3.82858E+04 -2.81288E+04  1.24646E+04 -2.77855E+04 -4.65916E+02 -2.09647E+04 -7.83723E+03
 -6.93272E+03 -1.12579E+04 -6.85358E+03 -2.15499E+04  4.04050E+03 -2.11670E+04  1.34672E+04 -1.83620E+04
  9.82716E+03  1.92929E+03 -5.71460E+03  1.67936E+04 -1.94680E+04 -4.26498E+03 -1.19072E+04 -3.43152E+04
  2.22566E+04 -4.30649E+04  4.82114E+04 -1.92576E+04  4.58135E+04  1.86843E+04  1.73763E+04  4.57582E+04
 -1.19427E+04  3.35347E+04 -2.50507E+04 -1.30411E+03 -9.93165E+03 -2.81380E+04  2.25242E+04 -3.33358E+04
  3.83770E+04 -1.00250E+04  3.26869E+04  2.41882E+04  1.58060E+04  4.59697E+04 -1.22707E+04  5.11654E+04
 -3.38018E+04  3.31852E+04 -3.93870E+04  1.02289E+04 -4.13944E+04 -1.56219E+04 -2.17816E+04 -3.32500E+04
  5.88468E+03 -3.27224E+04  3.35675E+04 -1.88851E+04  2.52930E+04  1.59201E+04  8.05023E+03  2.27971E+04
 -1.42775E+04  4.30129E+03 -8.04154E+03 -8.58846E+03  5.09969E+03 -1.03031E+04  1.88087E+04  3.28591E+02
  1.24545E+04  1.90569E+04 -1.10281E+04  2.71679E+04 -2.24921E+04  1.14641E+04 -2.96429E+04 -5.34515E+03
 -2.15960E+04 -1.65378E+04 -9.66914E+03 -1.72972E+04  1.21665E+03 -2.22383E+04  1.37862E+04 -1.53238E+04
  2.60011E+04 -1.22322E+04  3.19943E+04  4.29293E+03  2.63180E+04  2.06890E+04 -3.88639E+02  3.64043E+04
 -1.62872E+04  3.38032E+04 -2.60936E+04  1.16348E+04 -2.03293E+04 -9.08087E+03 -5.82004E+03 -1.34301E+04
  2.42096E+03 -5.72748E+03 -8.90454E+02  6.97420E+03 -1.69031E+04  5.04010E+03 -1.12409E+04 -1.85801E+03
 -1.16502E+04 -1.42335E+04  6.71183E+03 -1.92553E+04  1.33644E+04 -1.77230E+04  1.79627E+04 -4.38883E+03
  1.19668E+04  1.03379E+04  1.04688E+01  1.96896E+04 -1.43192E+04  1.05184E+04 -2.16364E+04 -2.44497E+03
 -1.60318E+04 -1.47924E+04 -1.71221E+03 -2.30075E+04  1.27250E+04 -2.12203E+04  1.87444E+04 -1.02258E+04
  1.80310E+04 -2.49428E+03  6.71605E+03  8.04119E+03  5.84218E+03  2.56983E+02  7.52552E+03  1.57803E+03
  1.22504E+04  2.79920E+03  1.33989E+04  1.38964E+04  9.60686E+03  2.11378E+04 -1.23613E+03  3.00269E+04
 -2.48928E+04  2.73136E+04 -2.57133E+04  1.41445E+04 -3.37403E+04 -5.10639E+02 -2.78578E+04 -1.73820E+04
 -9.42899E+03 -2.70528E+04  8.74258E+03 -2.31512E+04  2.26881E+04 -1.98426E+04  1.98891E+04  5.28502E+03
  3.26502E+03  1.32866E+04 -9.00099E+03  1.09600E+04 -1.23103E+04  6.29406E+03 -1.72498E+04 -1.17416E+04
 -2.49318E+03 -1.42317E+04  7.06003E+03 -1.25440E+04  1.03374E+04 -2.63290E+03  2.25626E+03  5.76822E+03
 -1.00687E+04  4.42308E+03 -1.09188E+04 -5.65544E+03  1.21927E+03 -1.63000E+04  4.04136E+03 -1.25071E+04
  1.91149E+04 -4.55498E+03  1.63774E+04  1.59810E+03  1.27380E+04  9.64969E+03  8.63752E+03  2.14365E+04
 -1.35633E+03  2.40172E+04 -1.73035E+04  1.41909E+04 -1.84342E+04  7.32615E+03 -9.67338E+03 -7.11680E+03
  7.00835E+01 -4.43814E+03 -1.42531E+03  9.34376E+02 -3.28592E+03 -9.72791E+01 -3.43976E+03  6.76785E+03
 -1.14040E+04  2.67469E+03 -1.48132E+04 -1.10003E+04 -1.89040E+03 -9.55346E+03  3.57217E+03 -9.18556E+03
  9.07163E+03 -1.30187E+03  6.68521E+03  6.47612E+03  2.76771E+03  1.58118E+03 -3.48853E+03 -2.86715E+03
 -1.18212E+03 -2.68170E+03 -2.36625E+03 -1.23561E+04  8.03536E+03 -6.40480E+03  1.40950E+04 -5.76354E+03
  1.58670E+04  1.48807E+03  1.43828E+04  6.84924E+03  1.05275E+03  1.26153E+04 -6.51332E+03  8.57492E+03
 -1.39555E+04  5.73908E+03 -3.23073E+03  5.13296E+02  2.29018E+03 -2.20765E+03  7.48716E+03 -4.03703E+03
  5.21845E+03  5.14174E+03 -1.34845E+03  1.03587E+04  4.83437E+02  1.20490E+04 -1.02179E+04 -8.34091E+02
 -6.52891E+03 -9.04659E+02  2.44045E+02 -1.03391E+04  7.36238E+03 -4.75655E+03  2.67329E+03  1.04532E+03
  2.76675E+02  9.32052E+03 -6.42244E+03  7.83532E+03 -8.69160E+03  7.69791E+03 -7.38749E+03 -5.35776E+03
 -4.17035E+03 -8.47651E+03 -2.55729E+03 -6.43755E+03  1.04813E+04 -4.13391E+03  1.01962E+04  2.66479E+03
  8.49944E+03  8.10739E+03  6.50350E+02  1.31345E+04 -5.34768E+03  8.49270E+03 -9.25394E+03 -8.17947E+02
 -9.58630E+03 -1.24294E+04 -1.87016E+03 -9.55892E+03 -7.90028E+02 -1.08695E+04  7.98928E+03 -2.90109E+03
  5.31487E+03  2.07580E+03 -2.24060E+03  3.97076E+03 -9.64274E+02  1.19127E+03 -2.07010E+02 -1.84619E+03
  5.49998E+03 -2.74450E+03  5.81556E+03  6.81974E+03  2.26891E+03  6.26128E+03  4.94470E+03  1.06420E+04
 -3.03674E+03  1.26128E+04 -1.20166E+04  9.25121E+03 -1.60854E+04  6.46514E+03 -1.37098E+04 -1.36141E+03
 -6.76861E+03 -8.16427E+03  3.89170E+03 -9.36246E+03 -3.38157E+01 -5.80354E+03 -1.90324E+02 -2.09535E+03
 -2.52992E+03 -3.91593E+03  7.78934E+02 -1.84737E+03  2.80622E+03 -5.43498E+03  6.60500E+03 -2.78320E+03
  6.55406E+03  2.68132E+03 -5.03780E+02  5.05767E+03 -3.29746E+03  4.44678E+03 -2.39717E+03  1.98002E+03
 -7.65742E+03  8.37262E+02  8.64133E+02 -3.10376E+03  2.67520E+03 -5.19250E+02  6.79884E+03 -4.44882E+03
  6.91840E+03 -5.60826E+03  1.06456E+04 -3.40014E+03  7.08965E+03  4.66354E+03  4.40920E+03  1.03353E+04
 -5.20066E+03  9.10866E+03 -8.01940E+03  3.36688E+03 -3.07578E+03  3.12758E+02  1.71731E+03  1.54290E+03
  6.06272E+02  5.48342E+01 -4.85127E+03  3.79972E+03 -4.84422E+03  3.88617E+03 -5.57824E+03  1.89917E+03
  5.40944E+02 -4.05642E+03 -5.15745E+03 -5.83314E+03  2.63427E+03 -7.48958E+03  4.05996E+03  1.52894E+03
  2.46646E+03  3.33181E+03  4.12271E+03  1.56284E+03 -4.73774E+03  5.69026E+03 -1.13248E+04  5.79261E+03
 -5.43289E+03 -1.23920E+03 -4.52893E+03 -1.42137E+03 -2.66842E+03 -8.36734E+03  6.10694E+03 -3.68768E+03
 -1.17310E+02 -9.42754E+02  2.71556E+03 -2.50639E+03  1.70535E+03  1.50838E+03  1.23708E+03  1.21095E+02
 -1.90796E+02  8.83268E+02  4.29824E+03 -1.86280E+03 -1.53316E+03 -3.49812E+03  6.52455E+02  2.99956E+03
 -1.43920E+03  2.14672E+03 -5.75152E+03  9.82792E+03 -8.56241E+03 -1.88287E+03 -5.36462E+03  4.00790E+03
 -4.42591E+03 -6.79567E+03 -2.94545E+03 -1.05370E+04 -1.27288E+03 -1.37321E+03  7.30666E+03  3.35432E+03
  3.24195E+03 -1.91728E+03  2.67270E+03  6.18201E+03 -1.79359E+03 -2.09923E+03 -2.70161E+03 -2.06575E+03
 -2.09173E+03 -6.03611E+03 -1.50729E+03 -7.40017E+02 -1.85261E+03  3.15127E+03  1.10106E+03  2.47373E+03
  4.12774E+03 -3.50845E+03  3.31514E+02  6.10448E+03 -3.41594E+03  3.64526E+03 -2.47665E+03 -1.77120E+03
  5.09667E+01  3.48397E+03  1.03934E+04  2.11402E+03 -2.50479E+03  1.00944E+03 -2.81976E+03  6.42425E+03
 -4.20264E+03  1.42266E+03 -3.96973E+03  1.37734E+03 -9.50076E+02  4.57987E+03 -4.34228E+03 -1.31453E+03
  4.77541E+02 -3.28885E+03  4.67055E+03  4.85471E+02  3.04747E+03  6.66120E+02  1.47999E+03 -1.69547E+03
 -8.64976E+03 -2.40623E-01 -2.34031E+03 -5.16880E+02  2.77473E+03 -7.27178E+02  2.46773E+03 -6.72249E+03
 -4.26261E+02 -8.52460E+03  1.51110E+03  1.68804E+03 -8.51247E+02  3.06589E+03 -4.28714E+03  5.60379E+03
 -4.86227E+03  3.89399E+03 -1.95854E+03 -1.89899E+03  2.11205E+03 -5.74203E+03  6.82974E+03 -3.61989E+03
  2.65446E+03  1.41331E+03  4.85764E+03 -1.10743E+03  5.38703E+02  1.74368E+03 -2.11473E+03  1.20901E+03
 -3.35895E+03 -7.56894E+02 -6.47256E+03  1.86420E+03 -7.45559E+03 -2.72822E+03  1.48449E+03  7.39831E+02
 -7.48256E+02 -2.78157E+03  6.37586E+03 -2.97941E+03 -1.01832E+03  1.26420E+03 -8.29339E+02  2.87952E+03
  1.28864E+03 -3.12134E+03 -2.51369E+03  6.88736E+03 -1.79531E+03  6.10411E+02 -8.69778E+02  4.02311E+03
 -1.48451E+03  3.63958E+03 -3.17269E+02  3.29779E+03 -5.06282E+03 -1.44339E+02 -6.90852E+03 -4.46164E+03
 -5.01281E+03 -4.30690E+03 -1.24900E+03 -1.51112E+03  5.60013E+03 -5.83064E+03  3.22825E+03  3.85675E+03
  1.38033E+03 -1.53213E+03  3.45842E+03  4.05549E+03 -4.24929E+03 -1.12821E+02 -2.12945E+03 -1.07342E+03
 -2.21285E+03  2.04771E+03  1.46021E+03  3.21646E+03 -1.31739E+03  8.82538E+02 -2.32901E+03 -1.35309E+03
  1.32170E+03  3.16640E+03  1.74351E+03  1.84044E+03 -2.57273E+03 -8.51093E+02 -4.78027E+03 -4.43975E+03
  1.47874E+03 -5.20513E+03  4.97363E+03  3.63487E+03  6.29591E+03  2.96924E+03 -3.63309E+02  1.09848E+04
 -1.97447E+03  6.67498E+03 -5.53236E+03  4.85573E+03 -6.16327E+03  2.26739E+02 -3.27302E+03 -2.10815E+03
 -3.15632E+03 -3.55748E+03 -8.83273E-01 -1.66706E+03  4.19430E+03 -1.96476E+03 -5.27262E+02 -4.17882E+02
  9.71981E+02  2.38502E+03  5.19772E+03  3.03959E+03  1.36129E+02 -1.39933E+02  4.07086E+02 -1.12730E+03
 -9.91817E+02  2.77954E+03  7.91446E+02 -2.91412E+03 -3.02739E+03 -1.91351E+02  5.44853E+02 -4.21511E+03
 -7.15328E+01  1.51357E+02  1.55158E+03  1.08336E+03  2.36106E+03 -6.51385E+02  2.36109E+03 -1.89843E+03
  1.32645E+03 -2.30226E+03  2.78415E+03  3.95110E+03  1.69969E+03 -2.56627E+03  5.36095E+02  5.20253E+03
 -1.68795E+03  2.29990E+03 -1.85980E+03  3.74589E+03  2.60566E+03 -6.49246E+02 -2.91347E+03  2.93923E+03
 -2.70885E+02 -3.91711E+03  1.61627E+03 -3.93678E+03 -5.58202E+02 -7.12942E+02 -2.30612E+03 -7.84112E+02
 -2.74304E+02  2.42475E+03 -2.26885E+03 -3.94423E+03  4.12904E+02 -6.18901E+03  5.08073E+03  2.18506E+02
 -2.96634E+03  1.25704E+03  3.05168E+03 -5.74843E+02 -1.08787E+02 -3.61448E+02  1.81917E+02 -6.24211E+02
