 $NMID ID='MM_0lb_SNR50_7hz_g40_45.RAW', FMTDAT='(8E13.5)'
 TRAMP=1., VOLUME=1. $END
  3.07710E+05  3.76492E+03  3.36792E+05  2.53147E+05  8.82135E+04  3.38759E+05 -1.26898E+05  2.48310E+05
 -1.94509E+05  8.52924E+04 -1.13301E+05 -2.70651E+04 -3.00860E+03 -4.30556E+04  5.69255E+04  2.13894E+03
  2.74527E+04  5.85557E+04 -1.42560E+04  7.23825E+04 -6.47915E+04  6.03685E+04 -8.52790E+04  2.35249E+04
 -9.27298E+04 -1.44723E+04 -5.86152E+04 -5.51399E+04 -1.27685E+04 -7.86507E+04  2.56282E+04 -4.66724E+04
  4.39336E+04  2.53152E+03  2.82745E+04  4.67876E+04 -2.95101E+04  4.85203E+04 -7.31449E+04 -3.26364E+03
 -5.75318E+04 -6.05574E+04 -1.26314E+04 -8.58103E+04  3.52783E+04 -6.28178E+04  5.34098E+04 -1.77563E+04
  4.84562E+04  1.41598E+04  2.92854E+04  2.54120E+04  1.97518E+04  3.15632E+04 -1.33657E+04  2.88763E+04
 -2.02452E+04  1.48932E+04 -2.53247E+04 -1.00700E+04  9.39142E+03 -9.07543E+03  2.51528E+04  1.32667E+04
  9.37350E+03  3.84375E+04 -3.62837E+04  3.84285E+04 -6.79979E+04  5.18509E+03 -6.06283E+04 -4.54811E+04
 -5.89029E+03 -6.11796E+04  4.80450E+04 -4.05926E+04  6.28736E+04  2.34659E+03  2.96604E+04  3.39816E+04
 -3.19394E+03  4.59091E+04 -3.62019E+04  2.51786E+04 -3.00188E+04 -5.31051E+03 -2.12725E+04 -1.36731E+04
 -1.28992E+04 -1.28142E+04 -9.24965E+03 -2.46051E+04  2.96751E+03 -2.20786E+04  1.87149E+04 -1.20188E+04
  6.90483E+03  7.70151E+03 -1.15372E+04  1.61974E+04 -2.35867E+04 -1.36237E+04 -8.96904E+03 -3.88766E+04
  2.38196E+04 -5.17664E+04  4.95738E+04 -2.43883E+04  5.20674E+04  2.18024E+04  2.01772E+04  4.81838E+04
 -2.49151E+04  3.49309E+04 -3.03917E+04  7.47169E+03 -5.80384E+03 -2.93332E+04  2.46621E+04 -3.48024E+04
  4.24042E+04 -1.33456E+04  3.83662E+04  2.40888E+04  2.62659E+04  5.57473E+04 -4.42482E+03  5.79290E+04
 -4.38769E+04  3.63766E+04 -4.46972E+04  1.58652E+04 -4.19378E+04 -1.68157E+04 -2.61380E+04 -3.96690E+04
 -2.38258E+03 -4.67836E+04  3.04905E+04 -1.06639E+04  3.06124E+04  1.36423E+04  4.40121E+03  2.13050E+04
 -1.95830E+04  1.20304E+04 -7.59144E+03 -5.94980E+03  1.40496E+04 -1.42313E+04  1.73496E+04  8.43885E+03
  1.73845E+04  2.38642E+04  1.20923E+03  3.03360E+04 -2.46384E+04  1.13321E+04 -3.35716E+04 -1.39571E+04
 -2.87835E+04 -1.14634E+04 -1.11264E+04 -2.80826E+04  6.05095E+03 -2.72179E+04  1.78812E+04 -2.21842E+04
  4.13149E+04 -1.22386E+04  3.99755E+04  4.83353E+03  3.02152E+04  2.31498E+04  6.31212E+03  4.19421E+04
 -2.38225E+04  3.60015E+04 -3.21603E+04  1.37221E+04 -2.32579E+04 -8.72905E+03 -6.50291E+02 -1.16647E+04
  2.55524E+03 -4.73418E+03 -7.94909E+03  1.09177E+04 -1.85486E+04  6.05165E+03 -2.44027E+04 -1.23318E+04
 -1.38805E+04 -2.57548E+04  9.80181E+03 -2.96811E+04  2.06194E+04 -1.92359E+04  1.67238E+04 -3.15097E+03
  1.92321E+04  1.61052E+04 -1.33961E+03  2.38218E+04 -1.52894E+04  1.89642E+04 -2.33819E+04 -7.09381E+03
 -1.71996E+04 -1.94844E+04 -5.44888E+03 -3.01454E+04  9.46521E+03 -2.75731E+04  2.21528E+04 -1.24876E+04
  2.34395E+04 -1.92940E+02  1.88297E+04  8.97620E+03  9.84633E+03  2.72613E+03  5.10209E+03 -5.23427E+03
  2.12327E+04  2.65098E+03  2.77480E+04  2.16091E+04  1.53770E+04  3.42508E+04 -5.18350E+03  4.77205E+04
 -3.57050E+04  4.22774E+04 -4.50874E+04  2.63348E+04 -5.03404E+04 -4.47657E+03 -3.20661E+04 -2.03218E+04
 -1.96769E+04 -4.15582E+04  1.54884E+04 -4.05439E+04  3.23167E+04 -5.46912E+03  2.08790E+04  6.07808E+03
  5.10085E+03  2.28871E+04 -6.88301E+03  1.48176E+04 -2.55661E+04  6.34681E+03 -2.22651E+04 -1.44007E+04
 -7.53634E+03 -2.00449E+04  1.58930E+04 -8.50701E+03  2.34397E+04 -8.40662E+03  6.71755E+03  8.24510E+03
 -1.33844E+04  2.05420E+03 -4.94484E+03 -7.53922E+03  4.20425E+03 -2.91500E+04  1.26797E+04 -2.47669E+04
  2.90046E+04 -9.57735E+03  3.19862E+04  3.36052E+03  3.14584E+04  2.04471E+04  1.41810E+04  3.18517E+04
 -1.20644E+04  3.18802E+04 -3.28593E+04  2.17459E+04 -2.70441E+04  7.88238E+03 -2.08265E+04 -8.77829E+03
 -5.29503E+03 -1.10838E+04  7.96956E+02  1.87081E+03 -7.68479E+03  3.88445E+03 -1.01601E+04  8.52386E+03
 -1.12451E+04 -9.51176E+03 -1.02280E+04 -1.16315E+04 -1.25253E+03 -1.93119E+04  7.85544E+03 -2.02085E+04
  6.45044E+03 -2.39065E+02  2.28800E+02  2.43033E+03 -1.42639E+02 -6.90149E+02 -9.27472E+03 -1.99996E+03
 -4.57220E+03 -1.52709E+04  2.44148E+03 -1.54643E+04  7.71611E+03 -1.19820E+04  2.18182E+04 -1.90435E+04
  3.11494E+04  3.17517E+03  1.51663E+04  7.44142E+03  4.75245E+03  2.26100E+04 -7.06123E+03  1.21623E+04
 -1.89512E+04  9.34739E+03 -8.68847E+03 -7.32012E+03  3.34091E+03 -9.64306E+03  1.19934E+04 -6.81132E+03
  7.10300E+03  1.42637E+03  1.84420E+02  1.35846E+04 -5.67484E+03  8.84968E+03 -1.32815E+04  4.74107E+03
 -1.58698E+04 -1.17037E+04 -2.91131E+03 -1.35526E+04  8.76993E+03 -6.60495E+03  6.60612E+03  3.87406E+03
  1.60699E+03  1.93330E+04 -7.75776E+03  9.38683E+03 -2.10741E+04  1.51466E+03 -1.55337E+04 -4.77100E+03
 -3.98832E+03 -2.36683E+04  2.86069E+03 -2.30040E+04  1.71626E+04 -1.23553E+04  2.67263E+04 -1.09512E+03
  1.00835E+04  1.00764E+04 -4.54141E+03  1.62866E+04 -9.89813E+03  9.64459E+03 -9.88978E+03 -3.96366E+03
 -1.57483E+04 -1.24443E+04 -4.29384E+03 -1.42296E+04  1.00592E+04 -1.18576E+04  1.45487E+04 -9.51663E+03
  9.47838E+03  4.50255E+03  5.58467E+02 -1.31943E+03 -2.33503E+03 -6.18827E+03  9.58030E+03 -4.74197E+03
  1.98256E+04 -9.75564E+02  2.35416E+04 -5.78066E+03  1.96789E+04  1.16412E+04  1.13835E+04  2.62723E+04
 -8.37639E+03  2.50006E+04 -1.67918E+04  2.74266E+04 -3.28979E+04 -2.07445E+03 -2.25761E+04 -1.46045E+04
 -2.15509E+04 -2.18049E+04 -4.91249E+03 -1.28164E+04  7.23506E+03 -7.86366E+03  1.81968E+04 -6.16934E+03
  1.59288E+03 -6.32836E+03  5.27461E+03 -1.30437E+04  2.78436E+03 -9.96346E+02  7.23276E+03 -6.52011E+03
  1.38600E+04  6.17433E+03  2.49533E+03  9.09643E+03 -6.02579E+03  1.03456E+04 -1.78902E+04  5.95288E+03
 -1.73710E+04 -4.01906E+03 -1.69989E+04 -1.19534E+04 -6.23905E+03 -1.81503E+04  8.51653E+03 -2.11579E+04
  2.01710E+04 -1.09582E+04  2.76265E+04  7.84120E+03  5.49703E+03  1.32776E+04  5.23383E+03  1.87157E+04
 -1.10964E+04  1.68934E+04 -1.58626E+04  5.50995E+03 -1.21928E+04  1.77528E+03 -3.04851E+03 -2.73610E+03
 -3.75589E+03  5.78022E+03  2.13274E+03  1.45838E+03 -5.39467E+03  6.14830E+02 -5.84824E+03 -7.30843E+03
 -8.79053E+03 -1.30326E+04 -2.80415E+03 -2.32661E+04  9.43327E+03 -1.52745E+04  1.70098E+04 -6.95114E+03
  1.39027E+04  4.14400E+03  8.52588E+03  1.80532E+04 -5.95759E+03  1.43277E+04 -1.48862E+04  9.81777E+03
 -1.70938E+04  4.22714E+02 -1.28846E+04 -2.04491E+04  4.32847E+03 -1.56699E+04  5.68288E+03 -1.24068E+04
  8.23961E+03 -5.35841E+03  1.05379E+04  2.22573E+02  2.38081E+02  1.19662E+03  3.25427E+03  6.19628E+03
  5.39823E+03  5.80495E+03  5.16626E+02 -1.12518E+03  2.15212E+03  1.04092E+04  4.31187E+03  1.11887E+04
 -1.22695E+04  1.00437E+04 -1.06638E+04  2.04016E+04 -1.42214E+04  6.93899E+03 -2.49805E+04 -1.45002E+04
 -9.11231E+03 -1.55713E+04  5.28830E+03 -1.79252E+04  1.62223E+04 -1.10496E+04  1.11907E+04  2.93329E+03
  1.31024E+04  5.48889E+03  1.70138E+03  1.34146E+04 -5.27166E+03  1.38655E+04 -4.58376E+03 -5.06293E+03
  2.40138E+03 -1.00602E+04  3.03147E+03 -1.56018E+04  7.70673E+03 -5.67689E+03  1.40232E+03  1.52045E+02
  3.62646E+03  3.20201E+03  5.69762E+03  3.40892E+03 -3.48513E+03 -2.79470E+03  4.44070E+03 -6.10971E+02
  1.68079E+03  5.95827E+03  8.99280E+03  4.68816E+03  8.02543E+02  1.13954E+04 -3.32534E+03  1.50220E+04
 -9.20241E+02  7.19773E+03 -1.67623E+04 -1.00277E+03 -1.20613E+04 -4.13845E+03 -8.09812E+03 -1.02312E+04
  1.90592E+03 -5.78682E+03  1.78223E+03 -9.07721E+02  7.01226E+03  2.52293E+03  2.56199E+03  7.56155E+03
 -6.86378E+03  1.07699E+04 -7.50222E+03  3.23572E+03 -9.60806E+03 -7.22540E+03  4.24347E+03 -1.19536E+04
  8.80454E+03 -4.68515E+03  9.01998E+03 -2.68349E+03  6.17724E+03 -3.25536E+02 -6.43205E+02  4.42237E+03
 -5.28167E+03  1.20464E+04 -2.01397E+03 -8.06303E+03 -3.01333E+03 -1.92191E+03  1.22616E+04 -1.28353E+04
  1.31465E+04  5.16560E+03  1.59443E+04  1.51149E+04  9.75593E+03  1.52431E+04 -7.70254E+03  1.41745E+04
 -9.40581E+03  4.41217E+03 -2.78595E+03  2.26069E+03 -5.45506E+03 -1.36626E+04  9.33572E+02 -1.78741E+04
  1.24471E+04 -7.54843E+03  6.48813E+03  5.20230E+02  2.08034E+01  6.43350E+02  4.24022E+03  9.80338E+03
 -5.83107E+03  5.00372E+03 -6.38687E+03 -6.98316E+03  9.85049E+02 -3.85229E+02  1.24059E+03  5.68919E+03
  3.91297E+03 -6.64504E+02 -8.16175E+03  3.35090E+03 -9.50393E+03 -1.32849E+03 -7.28186E+03 -1.28539E+04
 -8.30334E+03 -2.15627E+04  1.19781E+04 -2.21739E+04  1.02803E+04 -1.25366E+04  1.33542E+04 -5.79136E+03
  2.31945E+04  3.75116E+02  1.00936E+04  1.17262E+04  6.12929E+03  1.08442E+04 -7.88358E+03  7.17561E+03
 -9.96262E+03 -4.84693E+03 -5.73846E+03  9.04029E+03 -2.55174E+03  2.99360E+03 -1.13993E+03 -8.26485E+03
 -7.58971E+03  5.78219E+03 -7.84334E+02 -2.42704E+03 -4.88857E+03 -4.76058E+03  4.10476E+03 -3.81375E+03
  9.15785E+03 -7.28909E+03  4.31858E+03 -2.10447E+03  1.74678E+04  2.62482E+03  4.96078E+03  1.50001E+04
 -8.47154E+03  1.24855E+04 -1.73599E+04  1.32045E+04 -2.26699E+04  3.02925E+02 -1.06682E+04 -1.11975E+03
  1.76767E+03 -1.66131E+04  1.21989E+03 -1.05936E+04  8.24319E+03 -9.47900E+03  7.63461E+03 -6.21204E+03
  5.05353E+03  7.23478E+03 -6.37392E+02  6.44856E+03 -2.87690E+03 -4.13359E+03 -4.55517E+02 -2.29728E+03
  4.00198E+03  7.78103E+02  4.01833E+03  5.83083E+03  4.99837E+03  8.29645E+03 -4.66026E+03  5.43031E+03
 -1.57728E+04 -8.58517E+02 -6.68370E+03  2.43671E+03 -8.21151E+03 -1.04329E+04  1.26482E+03 -1.46393E+04
  5.85969E+03 -8.10022E+03  1.29858E+04 -9.13407E+03  1.78139E+04  8.89640E+03  6.24703E+03  1.03286E+04
 -3.55879E+03  9.70417E+03 -8.44161E+03  8.27656E+03 -1.35713E+03 -1.41954E+03 -4.60881E+03  4.41532E+02
 -1.41219E+03  7.34508E+03 -7.82098E+03  4.06550E+03 -3.79647E+03  1.67489E+03 -7.08146E+03 -2.66006E+03
 -5.44221E+03 -9.19242E+03  9.55536E+02 -1.68359E+04  7.00704E+02 -1.36711E+04  1.03523E+04  7.29768E+02
  1.22187E+04  1.10431E+03  4.52780E+03  7.42013E+03 -1.84122E+03  1.46360E+04 -1.07890E+04  4.82409E+03
