 $NMID ID='MM_0lb_SNR50_19hz_g40_23.RAW', FMTDAT='(8E13.5)'
 TRAMP=1., VOLUME=1. $END
  3.06501E+05 -1.58656E+03  3.37540E+05  2.49737E+05  8.05351E+04  3.38217E+05 -1.36412E+05  2.51847E+05
 -1.92110E+05  7.85376E+04 -1.08386E+05 -3.09731E+04  1.43320E+03 -5.13496E+04  5.28305E+04  3.92832E+03
  3.66858E+04  5.25184E+04 -1.83342E+04  7.62823E+04 -6.21668E+04  6.10891E+04 -8.06806E+04  3.14244E+04
 -7.96627E+04 -8.00870E+03 -5.70552E+04 -4.66928E+04 -1.46371E+04 -6.61627E+04  2.96152E+04 -4.40428E+04
  3.64994E+04  6.11498E+02  1.33562E+04  4.53032E+04 -3.33402E+04  4.64078E+04 -6.49084E+04 -1.41488E+03
 -5.16159E+04 -4.96805E+04 -5.96486E+03 -7.46942E+04  3.42385E+04 -4.87280E+04  4.88834E+04 -1.34753E+04
  3.77792E+04  9.80875E+03  2.81694E+04  2.05171E+04  1.71050E+04  2.43971E+04 -3.12665E+03  2.83617E+04
 -2.24813E+04  9.66133E+03 -1.88143E+04 -2.10557E+03  4.46863E+03 -2.92020E+03  2.13498E+04  1.10783E+04
  9.31830E+03  3.08530E+04 -3.06805E+04  3.47693E+04 -5.92709E+04  3.85961E+03 -5.81473E+04 -3.73644E+04
 -1.08733E+04 -6.20538E+04  3.68444E+04 -4.23654E+04  5.20907E+04 -1.62225E+03  3.22481E+04  3.28504E+04
 -9.28647E+03  3.16705E+04 -2.93558E+04  1.53875E+04 -2.90497E+04 -7.97423E+03 -1.32548E+04 -1.49377E+04
 -6.10946E+03 -1.06046E+04 -4.34918E+03 -1.47700E+04  5.79947E+03 -2.39153E+04  1.48950E+04 -1.59817E+04
  1.35831E+04  3.94086E+03 -3.98280E+03  1.29473E+04 -2.08455E+04 -3.66997E+03 -1.03039E+04 -3.32595E+04
  1.79574E+04 -4.00432E+04  4.79344E+04 -1.69155E+04  4.15440E+04  1.78256E+04  1.39111E+04  4.14918E+04
 -1.45081E+04  3.08622E+04 -2.13532E+04  1.36929E+03 -8.44331E+03 -2.76018E+04  2.17707E+04 -3.23616E+04
  3.85223E+04 -6.47707E+03  2.88207E+04  2.16688E+04  1.22118E+04  4.18435E+04 -1.13804E+04  4.50186E+04
 -2.60415E+04  2.63657E+04 -3.68703E+04  5.50397E+03 -3.93431E+04 -1.47804E+04 -1.91584E+04 -3.56537E+04
  9.33781E+03 -3.09256E+04  2.83374E+04 -1.08893E+04  2.69237E+04  1.55019E+04  4.44546E+03  1.31906E+04
 -1.35108E+04  4.08773E+03 -6.69351E+03 -6.28068E+03  8.01429E+03 -1.35676E+04  1.81646E+04  1.02844E+04
  1.73369E+04  2.45630E+04 -5.10909E+03  2.46252E+04 -1.98513E+04  6.96299E+03 -2.65383E+04 -9.51084E+03
 -1.45852E+04 -1.90606E+04 -3.57006E+03 -1.75325E+04  2.64510E+03 -1.44163E+04  1.14057E+04 -1.52761E+04
  2.24641E+04 -1.20083E+04  3.13824E+04  2.57616E+03  2.62851E+04  1.73827E+04  8.91797E+02  2.89432E+04
 -1.54255E+04  2.76794E+04 -2.92726E+04  9.13366E+03 -2.12924E+04 -1.04767E+04 -4.18542E+03 -1.16173E+04
  5.49487E+02 -3.82320E+03 -2.12366E+03  2.76531E+03 -1.19827E+04  8.64698E+03 -1.23233E+04 -6.10894E+03
 -8.01228E+03 -1.39351E+04  4.27456E+03 -1.53806E+04  1.31931E+04 -1.35159E+04  1.41315E+04 -2.46508E+03
  1.16932E+04  1.43688E+04 -7.10810E+01  1.42496E+04 -9.25789E+03  9.26152E+03 -1.42026E+04 -1.69108E+03
 -9.32202E+03 -1.37928E+04  4.58287E+02 -1.81595E+04  7.10726E+03 -1.46231E+04  1.45753E+04 -7.05561E+03
  1.57162E+04  5.41229E+03  9.29288E+03  5.85173E+03  4.02462E+03 -1.31304E+03  8.56016E+03 -5.66356E+02
  1.19558E+04  5.74995E+03  1.59456E+04  9.98657E+03  3.40380E+03  2.34833E+04 -3.82933E+03  2.83479E+04
 -1.51906E+04  1.95636E+04 -1.77637E+04  8.75276E+03 -2.23553E+04 -6.36518E+02 -2.31448E+04 -9.76589E+03
 -1.08809E+04 -1.26281E+04  8.03759E+03 -1.95539E+04  1.60937E+04 -9.36991E+03  1.08957E+04 -1.08194E+02
  5.04406E+03  9.60493E+03 -9.87702E+03  8.60228E+03 -1.47248E+04  5.67573E+03 -8.33714E+03 -8.59283E+03
  4.88232E+02 -1.24076E+04  5.85593E+03 -1.02944E+04  6.71351E+03 -5.36578E+03  6.02340E+02  2.97541E+03
 -1.28220E+03  2.72392E+03  7.71866E+02 -4.42355E+03  1.91879E+02 -6.68256E+03  6.01496E+03 -6.23928E+03
  1.14639E+04 -3.41884E+03  1.47302E+04  2.73745E+03  9.70964E+03  6.76242E+03  1.33135E+03  1.12269E+04
 -3.96987E+03  1.05192E+04 -1.01085E+04  8.69685E+03 -1.22291E+04  4.93273E+03 -8.01870E+03 -1.99210E+03
  1.20932E+03 -9.05518E+02 -9.91184E+02  5.32783E+01 -2.80005E+03  2.74737E+03 -2.37497E+03  4.93088E+03
 -4.23950E+03 -4.76275E+03 -6.06122E+03 -3.41731E+03 -9.50483E+02 -1.25885E+04  2.14609E+03 -6.55703E+03
  1.01238E+04 -2.06919E+03  7.48750E+03  3.71256E+03 -4.88011E+02  5.97196E+03 -4.27508E+03 -4.77109E+02
 -1.77318E+03 -7.77249E+03  8.29180E+02 -2.97364E+03 -1.69028E+03 -7.32821E+03  8.77761E+03 -3.17854E+03
  1.13863E+04  2.60904E+03  8.98572E+03  9.31846E+03  3.23140E+03  5.40662E+03 -9.56363E+03  9.08332E+03
 -9.36997E+03  3.88488E+03 -3.68040E+03 -1.09311E+03  2.37205E+02 -7.95324E+02  4.14462E+03  2.02855E+03
  8.75227E+03  3.53064E+03  2.24027E+03  8.90144E+03 -5.19986E+03  9.52632E+03 -7.24727E+03  1.72285E+03
 -5.87817E+03 -6.75877E+03 -1.76228E+03 -2.34894E+03 -7.01414E+02 -2.20348E+03  2.53214E+03  3.99349E+03
 -1.18585E+03  2.91887E+03 -3.33863E+03  2.94095E+03 -3.16022E+03 -6.22973E+02 -4.71501E+03 -2.34148E+03
 -8.89051E+02 -4.34454E+03  2.93001E+03 -8.27402E+03  7.86912E+03 -8.84757E+03  7.69804E+03  2.50297E+02
  3.04322E+03  7.85857E+03 -2.52774E+03  1.19316E+04 -3.27328E+03  2.09644E+03 -8.44781E+03 -3.23354E+03
 -6.04431E+03 -1.25005E+03 -8.18415E+02 -3.01576E+03 -8.68483E+02 -3.58844E+03  2.53380E+02 -4.11965E+03
  3.93565E+03 -1.12092E+03  5.66583E+02  3.73997E+03  3.64175E+03 -4.28863E+03  3.39052E+02 -2.30599E+03
  5.01158E+03  2.27218E+03  8.14118E+03  2.61875E+02  3.13493E+03  1.34708E+03  7.15161E+03  7.64269E+03
  1.57630E+03  3.07534E+03 -5.85689E+03  7.93377E+03 -6.44624E+03  6.11312E+01 -8.50761E+03 -9.64089E+02
 -5.46554E+03 -3.90279E+03  5.21097E+03 -7.11700E+03 -3.70424E+02 -1.86897E+03  2.37607E+03 -6.59572E+03
 -9.48470E+02 -2.34521E+03 -2.32206E+03 -2.54246E+03  7.41298E+01 -2.71210E+03 -1.28979E+03 -1.52926E+03
  7.26339E+03  2.48570E+03  8.03646E+03  2.34466E+02  2.83406E+02 -1.36609E+03 -9.37909E+02  5.50793E+03
 -6.55698E+03  1.35965E+03 -2.73086E+03 -7.51660E+02  2.38841E+02 -5.26752E+03  2.31781E+03 -2.48611E+03
  2.11477E+03  1.07798E+03  1.38459E+04  2.09835E+03  4.03108E+03  4.79739E+03  3.71025E+03  7.88989E+03
 -1.27292E+02  7.16051E+03 -9.34819E+02  2.33739E+03 -1.86780E+03 -3.97050E+03 -4.56890E+03  3.97587E+03
 -1.10860E+02  3.70187E+02  1.35471E+03  1.86003E+02 -2.86912E+03  2.23135E+03 -5.14404E+03 -7.50132E+02
  2.72903E+03 -5.66251E+03  2.88275E+03 -6.31687E+03  8.72625E+03 -6.83750E+03  4.48644E+03 -5.95288E+02
  5.58376E+03  3.04271E+03  3.50297E+03 -8.18455E+01  1.56673E+03  2.43213E+03 -3.04280E+01  4.01495E+03
 -2.27502E+03 -1.33858E+03 -5.56377E+03  4.01444E+03 -3.24676E+03 -1.58407E+02  2.23537E+03 -2.47931E+03
  2.87946E+03  1.11781E+03 -1.73010E+03  1.27588E+03  5.52792E+02  2.99650E+03  2.25077E+03  2.74740E+03
  1.90478E+03  3.02543E+03 -4.12350E+02  5.29484E+03 -1.05112E+03  2.43805E+03  4.65749E+03  3.24779E+03
 -4.86065E+03  7.07504E+03 -2.06339E+03  1.79849E+03 -4.50892E+03  3.15541E+03 -2.14576E+03  1.34077E+03
 -1.22806E+03  8.54130E+02  2.16430E+03 -4.56301E+03  1.78988E+02  1.16063E+03  5.92129E+03 -1.72019E+03
  2.67871E+03  3.08959E+03 -8.00418E+02  8.12892E+01 -1.54391E+03  1.21761E+03 -1.65930E+03 -2.96959E+03
 -4.05290E+03 -1.17560E+03  4.40713E+02 -5.62966E+03  7.37529E+02 -3.92648E+03  5.29970E+03  2.54964E+03
  1.11343E+03 -2.26479E+03  1.05923E+03 -6.12507E+02  3.40804E+03 -2.30208E+03  2.93365E+03 -7.47570E+02
 -1.76747E+02  3.08825E+03  2.77920E+03 -2.93411E+03  2.68476E+02  1.14283E+03  4.81004E+02  1.09673E+03
  1.90080E+03 -1.87970E+03 -3.73176E+03 -1.27648E+03  2.89505E+03  1.82214E+03 -1.87653E+03  4.50159E+03
 -1.55215E+03 -3.43563E+02  1.83323E+03 -6.74204E+02 -1.42996E+03 -1.21030E+03  3.31504E+02 -3.16601E+03
  3.56167E+02 -2.69121E+03 -1.65921E+03 -5.47111E+03 -3.24759E+03 -1.99809E+03 -1.85759E+02 -4.59148E+03
 -2.53939E+03 -2.43604E+02  2.77734E+01  3.96902E+03 -1.02264E+03 -1.48334E+02 -7.70810E+02 -1.39195E+02
 -1.22257E+03  2.73006E+03  2.13528E+02  1.56191E+03  7.60789E+02 -2.68944E+03  2.51623E+03  6.45957E+02
  2.85649E+03  5.63776E+03 -6.87914E+02 -1.17890E+03 -6.53960E+02 -1.44505E+03  2.23852E+03  3.33074E+03
 -1.63892E+03  1.18790E+03 -2.33497E+03 -3.53254E+03  6.54070E+01 -8.67929E+02  1.59176E+03 -1.52088E+03
  4.42382E+03  3.16169E+02 -5.98204E+02  7.16954E+02 -1.29350E+03  1.17658E+03  1.66213E+03  2.39814E+03
  1.12158E+01  2.44328E+03  1.20244E+03  1.13661E+03 -2.06702E+03  3.80151E+02 -4.22826E+02 -4.53189E+03
  1.63264E+03  3.38914E+03 -1.66623E+03 -5.49433E+02  6.27645E+02  1.94683E+03 -3.75318E+03 -2.68830E+03
  1.94969E+03 -2.81678E+03  3.21363E+03 -5.18688E+03  2.73530E+03  5.44596E+02  2.78648E+03 -3.50727E+03
 -1.89991E+03 -1.82501E+03  1.93367E+03  1.97780E+03 -1.95372E+03  2.24388E+03 -3.92354E+02 -2.79332E+01
 -2.43793E+03 -1.10901E+03 -1.98714E+03 -5.99272E+03  4.71088E+02  1.82918E+03 -8.44863E+02  1.45224E+03
 -3.25718E+03 -1.66335E+03  4.91345E+02  2.57337E+03 -6.45105E+02 -3.35425E+03  5.45593E+02 -2.23763E+03
 -6.32239E+02 -1.34697E+03  2.36069E+03  2.44401E+03  5.56477E+03  5.25141E+02 -3.24669E+03 -5.56075E+02
 -5.52866E+03  2.91656E+03  4.60054E+02  4.31988E+03 -8.47494E+02  1.73451E+03 -3.56570E+03  1.63755E+03
 -2.12284E+03 -3.66569E+02 -8.19977E+02 -2.40916E+03  1.06167E+02  9.26171E+02  1.44080E+03  1.80947E+02
  3.23901E+01  1.03937E+03  4.60528E+03 -1.72725E+03  9.78459E+02 -8.55465E+02 -2.67219E+03  3.68993E+03
 -5.32097E+00  4.08064E+03 -1.75803E+03 -2.70602E+03  2.60427E+03  1.37142E+03  3.75439E+03  3.37590E+02
 -3.89283E+02  2.07303E+02 -6.32665E+02  7.97728E+02 -7.54684E+02  2.50096E+02  3.82060E+03  4.04274E+02
  4.18001E+02 -3.41998E+03 -4.71840E+02  5.15361E+03  1.44232E+03 -2.86796E+03  4.11966E+02  1.16722E+03
  4.19772E+03 -1.00403E+02  1.76418E+03  5.68757E+02 -4.07223E+02 -3.54660E+03 -7.78984E+02 -1.82288E+03
 -1.99292E+02 -4.11888E+03  2.60616E+03 -4.49559E+02  3.01566E+03  1.34637E+03 -4.40244E+03 -1.64711E+02
  2.71573E+02  7.00762E+02  1.48481E+02  2.55982E+03  4.07672E+02  1.67105E+03  7.45369E+02 -4.80621E+02
  5.31452E+02 -7.80493E+03  1.06557E+03 -5.87319E+02  1.10183E+02  1.53320E+03 -1.80676E+03 -2.19206E+02
