 $NMID ID='MM_0lb_SNR50_19hz_g50_93.RAW', FMTDAT='(8E13.5)'
 TRAMP=1., VOLUME=1. $END
  3.12427E+05 -3.82584E+03  3.35321E+05  2.49326E+05  8.64144E+04  3.35242E+05 -1.36243E+05  2.49486E+05
 -1.90794E+05  8.43366E+04 -1.14437E+05 -3.42605E+04  3.51863E+02 -4.89726E+04  5.68686E+04  3.30154E+03
  3.70520E+04  5.24275E+04 -1.45833E+04  7.60867E+04 -5.53126E+04  5.93539E+04 -8.42732E+04  3.10336E+04
 -7.99757E+04 -1.15858E+04 -5.96456E+04 -4.98533E+04 -1.49726E+04 -6.65413E+04  2.74895E+04 -4.28251E+04
  3.94574E+04  6.05877E+03  1.53501E+04  4.41413E+04 -3.21564E+04  4.72644E+04 -6.36908E+04  1.29971E+03
 -5.59350E+04 -5.78484E+04 -4.64265E+03 -7.78342E+04  3.13977E+04 -5.30636E+04  4.46894E+04 -1.86510E+04
  4.05358E+04  1.15719E+04  2.82685E+04  2.65738E+04  1.74781E+04  3.00340E+04 -5.46238E+03  2.80043E+04
 -2.33186E+04  1.11008E+04 -1.75024E+04 -4.24199E+03 -4.79338E+02 -6.59023E+03  2.10863E+04  9.18910E+03
  6.71722E+03  3.12260E+04 -3.25403E+04  3.88457E+04 -6.12283E+04  4.27872E+03 -5.24102E+04 -4.18936E+04
 -1.38825E+04 -6.33379E+04  3.80094E+04 -4.27345E+04  5.13384E+04 -4.45027E+03  3.09341E+04  3.16816E+04
 -8.57537E+03  3.26331E+04 -3.19179E+04  9.72765E+03 -2.95966E+04 -1.46601E+03 -1.57837E+04 -7.87975E+03
 -8.47913E+03 -1.09805E+04  1.05176E+01 -1.94491E+04  3.57966E+03 -1.87244E+04  1.45762E+04 -1.29839E+04
  9.22600E+03  4.44417E+03 -5.81172E+03  1.36365E+04 -1.65753E+04  2.35317E+03 -8.97778E+03 -3.17717E+04
  1.62597E+04 -3.94967E+04  4.48531E+04 -1.47366E+04  4.30822E+04  1.88929E+04  1.66715E+04  3.94198E+04
 -1.75741E+04  2.81241E+04 -2.86572E+04  1.81548E+03 -1.27117E+04 -2.91480E+04  2.20277E+04 -2.98816E+04
  3.92578E+04 -6.73689E+03  2.94233E+04  2.01388E+04  1.42655E+04  4.24760E+04 -6.75302E+03  4.51313E+04
 -3.12882E+04  2.93129E+04 -3.88795E+04  6.40595E+03 -3.93565E+04 -1.55143E+04 -2.07451E+04 -3.68092E+04
  6.92059E+03 -3.75765E+04  3.06742E+04 -1.30182E+04  2.78698E+04  1.21281E+04  8.06912E+02  1.55749E+04
 -1.38099E+04  1.15965E+04 -1.31148E+04 -6.78789E+03  8.58997E+03 -1.33144E+04  1.68646E+04  4.55296E+03
  9.59934E+03  2.02450E+04 -7.01874E+03  2.10747E+04 -2.09793E+04  1.15669E+04 -1.98232E+04  7.08429E+02
 -1.78736E+04 -1.94977E+04 -7.98388E+03 -1.45527E+04  4.92071E+03 -1.68369E+04  1.25140E+04 -1.38580E+04
  1.77007E+04 -1.53426E+04  2.55584E+04 -3.04324E+03  1.89016E+04  1.53303E+04  3.75643E+03  3.41542E+04
 -1.54120E+04  2.81479E+04 -2.90272E+04  4.92205E+03 -1.93734E+04 -1.26842E+04 -4.61233E+03 -1.17915E+04
 -9.41201E+01 -3.09797E+02 -5.33159E+03  1.15427E+04 -1.25478E+04  4.21178E+03 -1.25231E+04 -7.66341E+03
 -5.11364E+03 -1.60320E+04  6.42434E+03 -1.97824E+04  1.14195E+04 -1.82204E+04  1.44114E+04 -1.05200E+03
  9.33445E+03  9.73840E+03 -3.54359E+03  1.55215E+04 -5.60278E+03  8.58266E+03 -1.24723E+04 -3.87450E+03
 -8.66605E+03 -1.42253E+04 -7.22388E+02 -2.01185E+04  8.68583E+03 -1.55816E+04  1.44002E+04 -9.41185E+03
  1.89566E+04  6.59413E+03  1.21399E+04  1.25146E+03  7.97718E+03  9.48539E+02  1.14336E+04  2.26719E+03
  1.24050E+04  1.15901E+03  1.60839E+04  1.00346E+04  9.03594E+03  2.41319E+04 -2.15486E+03  3.23787E+04
 -1.33010E+04  1.83883E+04 -2.21706E+04  1.12069E+04 -2.74690E+04 -1.18476E+03 -1.92015E+04 -1.21082E+04
 -1.36691E+04 -2.05631E+04  7.15489E+03 -2.48354E+04  1.41091E+04 -1.48941E+04  1.58416E+04  4.68960E+02
  6.13360E+03  1.49257E+04 -1.09785E+04  1.47390E+04 -1.49117E+04  4.17901E+03 -7.68173E+03 -7.15891E+03
  1.15748E+03 -1.17495E+04  1.57276E+03 -8.04262E+03  1.02232E+04 -1.95897E+03  3.24109E+02  3.63654E+03
 -6.25800E+03  1.42274E+02 -6.37947E+03 -6.08825E+03 -1.87029E+02 -8.78297E+03  5.45745E+03 -9.32028E+03
  1.44930E+04 -4.42830E+03  1.33031E+04  1.39446E+03  1.37965E+04  1.38855E+04  3.77798E+03  1.25697E+04
 -4.50319E+03  1.66565E+04 -7.43276E+03  6.55258E+03 -1.17884E+04 -1.07954E+03 -3.98623E+03 -2.15640E+03
 -5.90652E+03 -2.89007E+03 -2.57906E+03  4.57990E+03 -1.10534E+03  3.45696E+03 -7.90716E+03  9.88558E+02
 -9.42488E+03 -3.36562E+03 -6.89024E+03 -6.66065E+03 -3.30955E+03 -1.10306E+04  9.53523E+02 -9.22716E+03
  7.92896E+03 -1.61716E+02  2.60972E+03  6.02716E+03  2.75852E+03  5.81941E+03 -6.02422E+03 -2.42487E+03
 -5.53053E+03 -4.57924E+03  1.96287E+03 -8.08057E+03  3.62223E+03 -8.36266E+03  8.07722E+03 -5.33548E+03
  1.15795E+04 -2.80347E+03  1.04590E+04  9.86758E+03  1.57244E+03  7.57056E+03 -4.79744E+03  4.11504E+03
 -3.71487E+03  3.83272E+03 -5.78781E+03 -3.82392E+03 -3.25190E+03 -2.26151E+03  5.90091E+03  9.11511E+02
  5.94955E+03  4.09928E+03  1.63264E+03  2.78988E+03 -7.64504E+03  7.54608E+03 -8.35757E+03  4.98602E+03
 -1.44984E+03 -7.93160E+03 -8.81809E+02 -6.55867E+03  5.80394E+03 -6.77697E+03 -2.67862E+03 -1.93539E+03
  1.36448E+03 -2.66381E+03 -6.45410E+03  2.56502E+03 -1.04357E+03  1.64297E+02 -4.70587E+03 -1.72815E+03
 -1.32108E+03 -7.45050E+03  2.41213E+02 -7.42327E+03  1.05805E+04 -2.57980E+03  7.67794E+03  2.54944E+03
  9.92814E+03  3.69692E+03 -3.87873E+03  7.11274E+03 -5.36352E+03  6.69753E+03 -4.16986E+03  1.24604E+03
 -6.58043E+03 -7.62963E+03 -1.17862E+03 -5.81391E+03  2.18358E+03 -6.45623E+03 -6.99373E+02 -3.19735E+03
  1.95311E+03 -1.50239E+03  4.82427E+03  1.58338E+03 -1.08756E+03 -8.40414E+02  3.46760E+03  1.34775E+03
  3.92449E+03 -3.12496E+03  5.34415E+02  2.30977E+03  5.72512E+03  5.09663E+03  6.20837E+03  6.44392E+03
 -4.92099E+03  7.41881E+03 -1.17675E+04  7.41937E+03 -8.60306E+03  3.85822E+02 -7.01015E+03  1.68748E+03
 -7.59520E+03 -9.36813E+03 -1.73261E+03 -5.71741E+03  5.81034E+03 -3.86357E+03  3.94839E+03  1.16827E+03
  3.69399E+03 -4.01384E+03  5.63770E+03 -7.90086E+02  2.25196E+03 -2.92535E+02  6.21628E+03  3.00333E+02
  4.48707E+03  3.26128E+02 -9.06971E+02  4.25418E+03 -4.21624E+02  5.05948E+03 -4.59481E+03  3.79305E+03
 -3.21068E+03  8.23635E+02 -3.82990E+03  3.50540E+02  8.34582E+02 -5.52138E+02  4.60573E+03 -6.18093E+03
  6.48052E+03 -3.51626E+03  6.33537E+03  8.20072E+02  7.97444E+03  7.27943E+03 -1.69677E+03  7.56109E+03
 -9.48798E+02  2.17389E+03 -4.20062E+03 -2.90739E+03 -2.01485E+03  5.00962E+02  1.12838E+03 -1.47986E+03
 -2.26198E+03  2.40918E+03 -3.64472E+03  3.59332E+02 -3.35252E+03  8.92986E+02 -1.47022E+03  2.60029E+03
 -3.60999E+03 -2.63007E+03 -2.13163E+01 -2.41690E+03  6.58898E+03 -1.50882E+03 -2.87080E+02  9.51477E+02
  3.70033E+03  2.72156E+03  6.31560E+03  2.55512E+03 -3.54863E+03  4.23820E+03 -2.71902E+03  2.63977E+03
 -3.87447E+03  6.44722E+02 -3.54638E+03 -9.28136E+02  1.77141E+03 -1.78979E+03 -2.40076E+03 -6.02548E+03
  7.05260E+03 -2.44053E+03  2.26328E+02 -9.57300E+02  3.38335E+03  1.17226E+03  2.61875E+03  3.87364E+03
  8.28736E+03 -1.38241E+03  2.01918E+03  4.81221E+02 -2.75326E+03 -8.98337E+02 -8.65887E+02  1.47941E+03
  9.84223E+02  3.89327E+03 -1.90786E+03  6.80805E+03 -1.41766E+03  4.43554E+03 -8.35507E+03 -3.63892E+03
  2.70291E+02 -3.19846E+03 -1.21504E+02 -6.75861E+03  1.42773E+03 -1.85714E+01  3.55184E+03 -2.28026E+03
  3.95586E+03  1.77599E+03  2.54930E+03  7.85431E+03 -1.87561E+03  1.09427E+03 -3.18739E+03  3.76007E+03
 -4.21684E+02 -1.04794E+03  3.28929E+03  1.58615E+03 -4.14002E+03 -2.09568E+03  1.62444E+03  2.47723E+02
  3.52684E+03 -1.18125E+03  1.59774E+03 -5.28143E+03  2.10186E+03  1.10916E+03  1.71476E+03 -3.71356E+03
 -5.58323E+03 -1.65797E+03  5.53588E+03  5.54624E+02  5.29079E+02  2.22995E+03  1.58193E+03  4.50053E+03
 -1.55086E+03  1.95568E+03  3.13625E+03  6.07601E+02 -5.83569E+03 -3.97850E+03  2.74407E+03  6.48718E+02
  3.74438E+03  1.86810E+03 -1.39480E+03  9.77902E+02 -8.58921E+02  3.98543E+03  1.25931E+03  1.42557E+03
 -2.81100E+03 -1.77065E+03  1.80024E+02  7.06862E+02 -9.24551E+01 -3.82072E+03 -3.85361E+03 -3.30997E+03
 -1.74535E+02 -4.94048E+02 -4.28705E+03 -2.93506E+01 -1.54732E+03 -1.86620E+02  1.75253E+02 -1.72484E+03
  1.98465E+02  4.94549E+02 -4.19408E+03 -3.06880E+03  4.65073E+03 -3.16964E+03  3.49611E+03 -3.66921E+03
  3.39424E+03  2.59531E+02  3.04214E+03 -3.95978E+02  1.62252E+03  3.68372E+03 -1.95680E+03  3.02619E+02
 -9.25984E+02 -6.52421E+02 -4.59193E+03  3.75685E+03 -2.75200E+03 -2.53666E+03 -2.02295E+03 -1.60157E+03
 -6.23795E+02  1.70365E+03  4.47195E+02 -2.52739E+03  8.02702E+02 -4.77909E+03 -9.43817E+02  5.66229E+02
 -2.65864E+03  1.64102E+02  6.22159E+02 -3.57291E+03 -3.17343E+03 -7.12617E+02 -2.41840E+03  4.69953E+03
 -2.87829E+03  2.70610E+03 -1.95513E+03  7.10040E+03 -1.53411E+03 -2.69598E+03 -1.97570E+03  3.76640E+03
  2.85387E+03 -6.27152E+03  1.29811E+02 -2.77639E+03  1.17820E+03 -5.78993E+03  1.61029E+03  1.32062E+03
  3.33959E+03  3.78581E+03 -2.22792E+03  2.26500E+03 -3.20893E+03  2.86243E+03 -9.61453E+02 -1.85404E+03
  1.06782E+03  9.18276E+02 -4.15351E+03  2.01398E+02  2.67025E+03 -1.60151E+03  1.34633E+03 -3.01173E+03
  1.87358E+03 -2.24062E+03  1.44056E+03  1.32118E+03  4.77844E+02  4.59288E+03  1.16692E+03 -3.45439E+03
  2.17770E+03 -2.32936E+03 -2.13430E+01  8.61662E+01  4.07503E+03  3.92157E+02 -5.92454E+02 -2.31785E+03
 -5.28649E+01  5.28417E+03 -3.40735E+01  2.46555E+03  1.04451E+03  2.48405E+03  2.30515E+02 -1.47424E+03
 -1.16472E+03 -1.75164E+02  2.00364E+03  1.20758E+03 -2.14461E+02  1.31328E+03 -2.67944E+02 -1.79767E+03
 -2.06082E+03  3.02739E+03 -3.79682E+03 -6.26072E+02 -2.31666E+03 -6.11142E+02 -1.94878E+03  3.27342E+03
 -1.51066E+03 -9.83851E+02  1.27212E+03  1.43846E+02  1.48350E+03  1.46350E+03  1.77389E+03  1.26314E+03
 -1.15226E+03 -3.82539E+02 -2.11724E+03 -1.62860E+03 -2.51423E+03 -1.15435E+03 -1.65088E+03 -4.24257E+03
  5.38846E+02  1.70567E+03  2.21346E+03  3.11236E+03  7.69221E+02  2.42989E+03  4.24461E+03  1.05405E+03
  5.73892E+02 -2.15383E+03 -8.01424E+02 -8.29163E+02 -3.33502E+03 -1.40278E+02  7.87159E+02  6.09045E+02
  9.93948E+02  7.40396E+01 -3.93051E+02  1.48856E+03 -3.55479E+03  3.06812E+03 -2.91223E+03 -4.12759E+03
  2.05485E+02  3.41697E+03  3.58865E+03 -3.02967E+03  4.85921E+02  1.60533E+03  8.00749E+02  2.92974E+02
  1.53820E+02  2.73334E+03  2.95224E+03  3.30392E+03 -6.35412E+02  2.38613E+03 -5.87143E+02  7.05957E+02
