 $NMID ID='MM_0lb_SNR50_13hz_g50_48.RAW', FMTDAT='(8E13.5)'
 TRAMP=1., VOLUME=1. $END
  3.09162E+05 -6.29694E+03  3.38940E+05  2.46801E+05  8.21921E+04  3.38168E+05 -1.29113E+05  2.50144E+05
 -1.89168E+05  7.93354E+04 -1.07162E+05 -3.12792E+04  5.75971E+03 -5.09922E+04  5.51153E+04 -3.77917E+02
  4.04682E+04  5.68579E+04 -1.69117E+04  7.39165E+04 -5.85069E+04  6.33143E+04 -7.73223E+04  3.62344E+04
 -8.36505E+04 -1.34290E+04 -6.00916E+04 -5.39529E+04 -1.07701E+04 -6.91082E+04  2.61812E+04 -4.63710E+04
  3.94646E+04  5.90637E+03  2.31140E+04  5.25129E+04 -3.54424E+04  4.99091E+04 -7.05886E+04  1.36641E+03
 -5.51111E+04 -5.42929E+04 -7.12070E+03 -7.41598E+04  3.58018E+04 -6.13131E+04  4.86605E+04 -2.10969E+04
  4.79920E+04  9.02535E+03  2.84233E+04  2.78771E+04  1.96767E+04  2.75490E+04 -6.72640E+03  2.69296E+04
 -1.99103E+04  1.36958E+04 -1.87349E+04 -2.55915E+03  6.70726E+03 -5.69654E+03  2.44794E+04  1.26626E+04
  1.63470E+03  3.62650E+04 -3.17529E+04  3.62163E+04 -6.73272E+04  2.84549E+03 -5.74585E+04 -4.17409E+04
 -1.52105E+04 -5.87621E+04  3.52123E+04 -4.74403E+04  5.42398E+04 -6.37088E+03  3.73139E+04  3.02336E+04
 -9.62212E+03  2.95778E+04 -2.94670E+04  1.40746E+04 -2.96010E+04 -2.61362E+03 -2.27649E+04 -6.94104E+03
 -1.13118E+04 -1.24454E+04 -2.68109E+03 -2.29189E+04  4.68904E+03 -2.68642E+04  1.54478E+04 -1.27942E+04
  6.22431E+03  1.14980E+03 -1.10096E+04  1.00967E+04 -1.79791E+04 -8.83347E+03 -1.03522E+04 -3.67848E+04
  2.38616E+04 -3.92511E+04  4.78348E+04 -2.02462E+04  4.15842E+04  1.95528E+04  1.73490E+04  4.20083E+04
 -1.38299E+04  3.41832E+04 -2.83234E+04  2.91246E+03 -1.54990E+04 -2.50313E+04  1.77287E+04 -3.09174E+04
  4.00608E+04 -6.82898E+03  3.79592E+04  2.32892E+04  2.18286E+04  4.71348E+04 -2.51723E+03  5.60613E+04
 -3.48252E+04  3.96186E+04 -4.09973E+04  8.64928E+03 -4.26564E+04 -2.14877E+04 -2.45284E+04 -3.64094E+04
  8.25323E+03 -4.21164E+04  2.93336E+04 -1.64647E+04  3.03573E+04  4.41549E+03  5.84552E+03  1.98300E+04
 -9.94564E+03  1.17033E+04 -1.27294E+04 -8.90975E+03  5.51665E+03 -9.95929E+03  1.50561E+04  5.44336E+03
  1.32489E+04  2.26414E+04 -2.99684E+03  2.63518E+04 -2.34364E+04  6.68466E+03 -3.30850E+04 -3.22271E+03
 -2.18446E+04 -2.11952E+04 -9.33558E+03 -2.56714E+04  7.52183E+03 -2.47865E+04  1.42948E+04 -1.85627E+04
  2.68822E+04 -1.51215E+04  3.23346E+04 -1.95340E+02  3.03958E+04  1.93239E+04  3.15115E+03  3.64860E+04
 -1.79377E+04  3.09679E+04 -2.90996E+04  8.25719E+03 -2.08746E+04 -5.54999E+03 -4.17816E+03 -1.22061E+04
  1.09401E+03 -1.34968E+03 -9.40194E+03  5.71459E+03 -1.35270E+04  5.03434E+03 -2.33957E+04 -6.45784E+03
 -1.47774E+04 -2.02863E+04  4.41423E+03 -2.16499E+04  1.18927E+04 -2.20294E+04  1.98012E+04 -4.65485E+03
  1.47613E+04  1.13519E+04  1.02870E+02  2.67035E+04 -1.56043E+04  1.41434E+04 -1.45111E+04 -6.18100E+03
 -1.89076E+04 -1.59779E+04 -4.82543E+03 -3.00199E+04  8.34935E+03 -1.62847E+04  1.92964E+04 -1.30280E+04
  2.00683E+04 -3.26743E+03  1.31414E+04  5.31077E+03  2.85250E+03  1.29894E+03  9.15487E+03 -1.91946E+03
  1.00558E+04  5.12356E+03  2.06131E+04  1.47832E+04  1.24885E+04  3.53581E+04 -4.35134E+03  3.57658E+04
 -2.28601E+04  2.98762E+04 -3.42120E+04  1.86631E+04 -3.38879E+04  2.91575E+03 -3.25646E+04 -2.22393E+04
 -1.10971E+04 -3.22463E+04  9.94194E+03 -2.56583E+04  2.25217E+04 -1.48886E+04  1.58511E+04  5.66239E+03
  1.17398E+04  1.61759E+04 -9.21239E+03  9.99613E+03 -2.25622E+04 -1.19381E+03 -1.60716E+04 -8.50567E+03
 -6.30396E+03 -1.83240E+04  1.08709E+04 -1.33249E+04  7.56150E+03 -6.01031E+03 -2.67126E+03  8.77821E+03
 -1.89017E+03  1.98660E+03 -9.49972E+03 -2.94844E+03  1.28017E+03 -8.06206E+03  1.15332E+04 -1.63740E+04
  1.87333E+04 -1.31272E+04  1.88696E+04  5.77025E+03  2.02722E+04  1.86966E+04  7.42838E+03  2.30814E+04
 -6.62505E+02  2.83919E+04 -1.58677E+04  1.55846E+04 -2.17288E+04  4.78213E+03 -1.14059E+04 -2.54561E+03
 -9.39371E+03 -5.37764E+03 -1.92779E+03 -2.23750E+03 -7.08835E+03  1.40133E+03 -4.39603E+03  4.33132E+03
 -7.39145E+03 -2.20714E+03 -1.47631E+04 -5.80379E+03 -7.87643E+03 -1.68155E+04  3.42300E+03 -9.02112E+03
  1.18064E+04 -4.60993E+03  6.41355E+03  3.16817E+03  8.98686E+02  5.88219E+03 -2.12556E+03  8.00490E+02
 -9.95354E+03 -1.18596E+04 -2.62085E+02 -6.29697E+03  6.52303E+03 -1.35247E+04  1.35278E+04 -1.00370E+04
  2.42626E+04  3.90258E+03  1.28240E+04  1.05419E+04  2.19391E+03  9.44344E+03 -1.90990E+03  1.24001E+04
 -1.30026E+04  2.94644E+03 -1.46813E+03  1.62554E+03 -7.99728E+02 -9.29783E+02  4.19500E+03 -2.19853E+03
  5.39731E+03  2.30367E+03  4.32649E+03  1.14042E+04 -8.27338E+03  2.16319E+03 -6.74514E+03  1.58249E+03
 -1.10341E+04 -3.34859E+03  1.96004E+03 -1.10557E+04  5.46412E+03 -2.92082E+03  6.14303E+03  3.28863E+03
  4.90747E+03  9.23432E+03 -4.21289E+03  5.45845E+03 -9.58917E+03  6.49123E+03 -5.63419E+03  2.15609E+03
 -3.69010E+03 -1.06115E+04  4.59391E+03 -1.11781E+04  1.36939E+04 -5.38633E+03  1.12973E+04 -1.19012E+03
  8.44529E+03  4.49268E+03 -4.07123E+03  1.27533E+04 -9.99132E+03  6.55660E+03 -1.02855E+04 -1.82518E+03
 -9.60653E+03 -9.93047E+03  1.20714E+03 -9.56305E+03  4.69894E+03 -8.57564E+03  5.19119E+03 -2.14838E+03
  4.65193E+03 -1.12866E+03 -3.63134E+03  3.65258E+03 -1.72225E+03 -1.13331E+03  1.58776E+03 -6.48087E+03
  9.30716E+03 -1.24013E+03  1.47722E+04  6.24610E+02  7.95588E+03  4.36089E+03  6.34132E+03  1.73014E+04
 -1.83960E+03  1.85957E+04 -7.99838E+03  1.31669E+04 -2.30392E+04  5.65622E+03 -1.62438E+04 -9.12643E+03
 -5.26261E+03 -9.40114E+03  5.41123E+03 -1.30056E+04  5.19190E+03 -5.01275E+03 -6.46014E+02 -5.73231E+03
  2.01709E+03 -4.54645E+03  2.15413E+03  8.46322E+01  6.39610E+03 -6.64013E+03  4.60571E+03  4.62886E+02
  7.59661E+03  1.47231E+03  3.27023E+03  8.68699E+03 -2.43397E+03  7.98517E+03 -8.37357E+03  8.65271E+03
 -9.67163E+03 -5.17432E+03 -5.77871E+03 -3.40843E+03 -1.06429E+03 -1.36840E+04  5.00121E+03 -1.47292E+04
  1.22849E+04 -1.73278E+03  1.38890E+04  4.83520E+02  6.43700E+03  4.86894E+03  2.34536E+03  1.19981E+04
 -5.25991E+03  1.36897E+04 -1.49666E+03  7.10313E+03 -8.53793E+03  1.02888E+03  2.68923E+03 -8.02292E+03
  3.15441E+03 -1.91428E+03 -1.06615E+02  4.13032E+03 -7.80612E+03  3.16035E+03 -7.12224E+03  4.36835E+03
 -6.86064E+03 -9.22460E+03  3.57270E+03 -8.47897E+03  1.61524E+03 -5.56482E+03  6.31723E+03 -2.43927E+03
  9.30534E+03  2.13791E+03  6.08434E+03  8.56583E+03 -2.99110E+03  1.19495E+04 -8.26628E+03  2.29085E+03
  1.86067E+03  2.33962E+03 -1.05973E+04 -4.70334E+03 -1.45750E+03  1.20775E+03  8.03548E+03 -2.96862E+03
  5.20273E+03 -8.93500E+03 -2.10241E+02  2.61747E+03  1.97222E+03  4.65797E+03  3.20432E+03 -1.69349E+03
  2.34089E+03  1.61946E+03  2.94906E+03  9.05960E+03  2.18877E+03 -2.14229E+03 -1.01358E+03  6.20580E+03
  2.03571E+03  4.47690E+03 -3.49164E+03  1.02052E+04 -6.75931E+03  5.83883E+03 -6.82771E+03 -4.97330E+03
  1.09971E+03 -1.34500E+04  8.54562E+02 -1.22265E+04  3.74684E+03 -4.31029E+03  3.64694E+03 -3.28855E+03
  4.78437E+03  1.96005E+03 -1.21658E+03  4.91034E+03 -6.60447E+02  5.00200E+03 -1.21065E+03 -5.15235E+03
 -4.44774E+03 -4.72648E+03 -1.21634E+03 -3.30362E+03  2.29389E+03 -3.81522E+03  5.30158E+03  3.04683E+03
  6.56212E+03 -1.63079E+03 -1.42950E+03  4.54981E+02 -1.74579E+03  3.46499E+02  7.54972E+03 -7.20867E+02
 -2.81840E+03 -6.81486E+02  4.44515E+03 -3.19706E+03  2.34566E+02  4.76823E+03 -3.59834E+02  3.13980E+03
 -5.02089E+03  7.08941E+03 -6.13398E+03  4.93161E+03 -2.70539E+03 -2.37373E+03 -3.32457E+03 -5.39906E+03
 -1.88180E+03 -1.21250E+02 -7.02457E+03 -1.95538E+03  2.77688E+02  1.01921E+03 -2.79596E+03 -3.68698E+02
  1.30408E+02 -3.48311E+01 -3.94861E+03  1.85743E+03 -4.47840E+03 -8.10303E+03  1.36597E+03 -4.22790E+03
  1.11798E+03 -2.27610E+03  4.70183E+03  2.73457E+03  7.50667E+02  7.54256E+03 -2.22644E+01  3.18387E+03
 -2.65132E+03  1.99421E+03 -5.36488E+03 -3.28123E+02  3.78682E+03 -2.21188E+03  4.78056E+03 -7.28446E+03
  6.75925E+03 -4.61830E+03  5.86564E+03  3.08997E+03 -7.02022E+02  4.59006E+03 -7.19859E+01  8.96783E+03
 -4.44439E+03  3.46778E+03 -1.11008E+03 -1.89589E+03 -5.36622E+03 -4.17620E+03  7.28237E+02 -2.59826E+03
  5.40224E+03  4.23063E+02  4.03529E+03  4.09497E+03  3.98163E+03  3.82211E+03  1.69376E+02  1.97480E+03
 -4.90941E+03 -2.68600E+03 -4.42577E+03 -2.96827E+03 -1.55651E+03 -9.89698E+02  3.59725E+03 -5.02582E+02
 -1.67978E+03 -2.91643E+03 -2.24356E+03  5.18941E+02 -7.33035E+03  5.66615E+02 -7.88524E+03 -5.65300E+03
 -5.64477E+03 -6.30314E+02  6.14722E+02 -4.64136E+03  1.35364E+03 -8.61636E+03  7.25246E+03 -2.66949E+03
  5.51564E+03  7.36984E+03 -1.66438E+02  1.01935E+03  6.02246E+03  1.92824E+03 -3.66664E+03  1.94766E+03
 -7.58293E+03  6.83851E+03 -4.76830E+03 -2.12289E+03 -1.60036E+03 -4.00502E+03 -7.37912E+03  5.11497E+02
 -1.90507E+03 -1.97771E+03 -1.53840E+03 -2.94590E+03 -2.99819E+02  2.88422E+03 -2.72191E+03 -7.07865E+03
  4.06441E+03 -1.76585E+03  2.88853E+03 -2.33452E+02  4.35393E+03  4.29776E+03  5.33657E+02  9.82626E+03
  5.28949E+02  5.10134E+03 -4.54317E+03  4.25207E+03 -3.72891E+03  3.87394E+02 -4.28471E+03 -1.77844E+03
 -3.30900E+03 -3.85013E+03  2.33961E+03 -3.16271E+02  3.10327E+03 -4.55016E+03  1.28789E+03 -2.64723E+03
  2.04337E+03  5.89951E+03 -4.14286E+03  3.42633E+03 -2.48357E+03  1.68917E+02 -1.55695E+03 -9.17635E+02
  5.32722E+03  9.94901E+02 -1.77357E+03 -3.62050E+03 -6.51336E+03  9.04589E+02  2.37535E+03  4.11978E+03
 -4.34057E+02  2.15954E+03 -4.69202E+03  1.69313E+03 -2.34793E+03 -1.64473E+02  1.26596E+03 -2.73874E+03
  6.93033E+03 -4.42999E+03  2.81750E+03  1.32411E+02  5.08037E+03 -9.63811E+02  5.13660E+03  3.31388E+03
  2.42181E+03  3.21813E+03 -1.98280E+03  2.50326E+03  5.68977E+02  1.89516E+03  1.69314E+03 -1.80351E+02
  8.90711E+01  6.37119E+03 -7.27583E+02 -1.14605E+03 -6.40830E+03  4.57289E+02 -4.61847E+03 -2.99698E+03
  8.62994E+02 -2.56702E+03 -6.96624E+02 -2.95342E+03  6.48204E+03 -9.84446E+03  3.21736E+03  2.30411E+03
  1.99427E+03 -4.57238E+03  5.37628E+03  1.88853E+03 -1.12963E+03  5.73768E+03  8.79716E+02  3.81330E+03
