 $NMID ID='MM_0lb_SNR50_11hz_g50_75.RAW', FMTDAT='(8E13.5)'
 TRAMP=1., VOLUME=1. $END
  3.11576E+05  2.43074E+03  3.35809E+05  2.50667E+05  7.62645E+04  3.34080E+05 -1.33255E+05  2.51659E+05
 -1.94896E+05  8.01758E+04 -1.15504E+05 -3.07247E+04  7.22282E+03 -4.80032E+04  5.11742E+04  1.23592E+03
  3.18285E+04  5.10329E+04 -1.53086E+04  7.51927E+04 -6.46078E+04  6.47865E+04 -8.67739E+04  3.11767E+04
 -7.98604E+04 -9.74566E+03 -5.55231E+04 -5.02669E+04 -1.57741E+04 -6.88950E+04  3.25564E+04 -4.32668E+04
  4.21751E+04  1.63794E+03  1.88891E+04  5.48319E+04 -3.79784E+04  4.71922E+04 -6.91415E+04 -2.40148E+03
 -5.99729E+04 -5.62945E+04 -1.02594E+04 -8.42924E+04  3.47313E+04 -5.77085E+04  5.63449E+04 -1.99837E+04
  4.28159E+04  5.70124E+03  3.70772E+04  3.05780E+04  1.23254E+04  3.37922E+04 -4.84257E+03  2.74260E+04
 -1.84988E+04  1.34184E+04 -1.88602E+04 -4.18857E+03  8.02752E+03 -9.64368E+03  1.79413E+04  9.70822E+03
  6.21121E+03  3.48397E+04 -3.77673E+04  3.80870E+04 -6.84198E+04 -1.03938E+03 -5.65655E+04 -4.08150E+04
 -1.23048E+04 -6.53645E+04  4.07960E+04 -4.67484E+04  5.74257E+04 -6.84380E+03  3.23258E+04  3.11776E+04
 -7.72940E+03  4.18616E+04 -3.25812E+04  1.84325E+04 -3.63942E+04 -1.09558E+03 -2.19119E+04 -7.55962E+03
 -7.96557E+03 -1.35278E+04 -6.72244E+03 -1.81690E+04  4.05211E+03 -2.57592E+04  1.87328E+04 -1.49917E+04
  8.85046E+03  5.94386E+03 -1.36864E+04  1.40118E+04 -2.32672E+04 -6.18402E+03 -5.94034E+03 -3.39873E+04
  2.55668E+04 -5.36758E+04  4.88308E+04 -2.05314E+04  4.42091E+04  2.09599E+04  2.10570E+04  4.14648E+04
 -1.54967E+04  3.45787E+04 -2.89430E+04 -1.57853E+03 -9.12426E+03 -3.13595E+04  2.09024E+04 -3.49480E+04
  3.95094E+04 -1.18884E+04  3.91559E+04  2.56365E+04  1.90547E+04  4.54508E+04 -1.11074E+04  5.70888E+04
 -3.78967E+04  3.55704E+04 -4.97021E+04  9.57355E+03 -4.47865E+04 -1.48893E+04 -2.70226E+04 -3.75895E+04
  7.00283E+03 -3.52102E+04  3.04846E+04 -1.60375E+04  3.24958E+04  5.30216E+03  7.30973E+03  1.98559E+04
 -1.22518E+04  1.19938E+04 -1.23082E+04 -1.04331E+04  3.71359E+03 -1.38510E+04  1.62495E+04  8.11297E+03
  1.13364E+04  2.75269E+04 -3.32285E+03  2.57852E+04 -2.23253E+04  5.42241E+03 -3.47742E+04 -2.12538E+03
 -2.61731E+04 -1.37323E+04 -1.23478E+04 -2.24661E+04  5.68315E+03 -2.28221E+04  1.61436E+04 -1.95804E+04
  2.95700E+04 -1.46186E+04  3.17664E+04  5.37123E+03  2.28547E+04  1.90465E+04  4.39235E+03  3.80200E+04
 -1.90084E+04  3.75285E+04 -2.72103E+04  1.02576E+04 -2.14928E+04 -1.29407E+04 -5.06389E+03 -1.03398E+04
  3.72594E+03 -1.43786E+03 -9.42317E+03  7.52566E+03 -2.53661E+04  4.89059E+03 -1.76640E+04 -1.07225E+04
 -1.02840E+04 -1.65179E+04  4.03303E+03 -2.30796E+04  2.19789E+04 -1.23794E+04  2.06939E+04 -7.57647E+02
  1.30700E+04  1.65231E+04 -1.15550E+03  1.79744E+04 -1.41794E+04  1.19937E+04 -1.99589E+04 -5.67478E+03
 -9.04367E+03 -2.10059E+04 -6.15098E+02 -2.87502E+04  1.31054E+04 -2.51884E+04  2.04374E+04 -1.75760E+04
  2.62487E+04  3.86427E+03  1.47235E+04  2.12568E+03  8.97487E+03  3.33483E+03  1.32668E+04  1.10389E+03
  2.15995E+04 -5.13273E+03  2.32646E+04  1.44266E+04  1.62069E+04  3.40250E+04 -8.60680E+03  4.17315E+04
 -2.55730E+04  3.29023E+04 -3.51556E+04  1.52341E+04 -4.16562E+04 -2.73540E+03 -3.44117E+04 -2.22024E+04
 -1.28169E+04 -3.62630E+04  1.07745E+04 -3.16393E+04  2.36420E+04 -1.56955E+04  2.31700E+04  2.54725E+03
  8.54452E+03  1.67312E+04 -1.24665E+04  7.89862E+03 -2.00530E+04  3.87444E+03 -1.53200E+04 -1.10472E+04
 -2.30409E+03 -1.50278E+04  9.16827E+03 -1.17419E+04  1.05761E+04  3.54875E+03  4.56888E+03  1.12505E+04
 -6.70533E+03 -3.31450E+03 -9.27417E+03 -5.71383E+03 -4.21958E+03 -1.11207E+04  1.24124E+04 -1.52663E+04
  1.47538E+04 -1.15541E+04  2.17284E+04  5.54106E+03  2.05261E+04  1.94456E+04  5.41636E+03  1.95599E+04
  2.39457E+03  2.52563E+04 -1.07809E+04  1.23488E+04 -2.24584E+04  4.15413E+03 -1.50637E+04 -5.63052E+03
 -1.16992E+04 -6.48302E+03 -1.45842E+03 -1.56329E+03 -4.93142E+03  2.34073E+03 -9.23112E+03  1.06762E+04
 -8.28205E+03  1.70659E+03 -9.92792E+03 -1.20306E+04 -7.38050E+03 -1.26280E+04  4.35754E+03 -1.90292E+04
  9.38245E+03 -1.35793E+04  8.23973E+03  1.11960E+03  2.93130E+03  4.40637E+03 -9.01195E+03  1.11406E+03
 -7.73940E+02 -7.66591E+03  2.62528E+03 -1.39927E+04  6.02038E+03 -1.34505E+04  1.88039E+04 -9.11490E+03
  2.02169E+04 -2.31332E+03  1.37431E+04  1.11598E+04  8.51737E+01  1.41081E+04 -7.49149E+03  1.22307E+04
 -1.83333E+04  3.64427E+03 -9.45641E+02  1.22751E+02  3.15851E+03  3.94819E+03  9.39626E+03 -8.96165E+01
  9.21466E+03  1.21006E+04  3.49341E+03  1.14076E+04 -1.41003E+04  1.07819E+04 -1.56586E+04  4.54424E+03
 -5.45557E+03 -7.15282E+03  8.98636E+02 -1.23330E+04  7.31254E+03 -2.88340E+03  7.93997E+03 -2.26313E+03
 -4.44493E+02  9.42867E+03 -9.69325E+03  1.19294E+04 -8.93137E+03  5.11644E+03 -7.23768E+03 -4.76121E+03
 -4.91428E+03 -1.41739E+04  1.74393E+03 -1.76653E+04  1.44275E+04 -1.12324E+04  1.65894E+04 -9.10651E+02
  1.26503E+04  9.15062E+03  3.43801E+03  1.61124E+04 -5.02267E+03  3.41029E+03 -1.12053E+04 -2.50648E+03
 -4.42616E+03 -1.10334E+04 -1.82025E+03 -7.45152E+03  9.41677E+02 -5.29143E+03 -2.21184E+03 -4.05433E+03
  5.28070E+03  5.90542E+03  5.33219E+03 -1.62823E+03 -1.99291E+03  4.29111E+02  1.82965E+03 -5.02963E+03
  5.05415E+03 -7.63501E+03  1.78008E+04  3.12775E+03  1.44296E+04  4.21315E+03  1.11586E+04  1.65992E+04
 -9.51427E+03  1.68126E+04 -1.43241E+04  1.20807E+04 -2.10097E+04  7.04517E+03 -8.79796E+03 -1.31884E+04
 -7.14054E+03 -1.14976E+04 -4.10386E+02 -1.43467E+04  7.15138E+03 -2.01675E+03  8.71206E+03 -6.35268E+03
  3.76206E+03 -1.97941E+03  1.71191E+02 -5.24259E+03  5.82777E+03 -3.40423E+03  6.82890E+03 -6.18834E+02
  9.95670E+03 -2.36791E+03  8.94913E+03  1.16290E+04  1.02556E+03  9.92076E+03 -6.97450E+03  9.31362E+03
 -1.31642E+04 -8.05418E+03 -4.65863E+03 -6.67071E+03 -1.55488E+03 -8.25074E+03  6.18502E+03 -1.34488E+04
  1.16758E+04 -5.87225E+03  1.61876E+04  4.98762E+03  1.25921E+04  1.59782E+04  7.43232E+03  1.20222E+04
 -4.33532E+03  1.50016E+04 -6.27815E+03  3.62784E+03 -7.83180E+03 -4.53340E+03  3.44170E+03  3.47965E+03
 -4.07806E+03  3.96995E+03 -3.87790E+03  7.15600E+03 -4.74994E+03  6.58102E+03 -7.52696E+03 -3.72461E+03
 -2.10927E+03 -1.22204E+04 -7.90757E+02 -1.55526E+04  9.61192E+03 -9.77182E+03  1.02671E+04 -9.59337E+02
  1.68231E+04  5.13785E+03  6.72160E+03  1.21418E+04 -7.13138E+03  1.54142E+04 -7.47352E+03  8.79124E+03
 -1.26365E+04 -4.29481E+03 -3.90178E+03 -5.37587E+03  1.71278E+03 -7.65363E+03  4.47217E+03 -1.08656E+04
  8.23783E+03 -3.58380E+03  3.06519E+03 -3.57939E+03 -2.84912E+03  5.11562E+03  1.07803E+03  2.52848E+03
  7.99227E+03  1.20262E+03 -8.29730E+02  5.50267E+03  4.06765E+03  2.08040E+03  8.15293E+03  4.19218E+03
 -1.81693E+03  9.77144E+03 -4.73997E+03  8.40281E+03 -9.91366E+03  6.22248E+03 -1.23939E+04 -1.35952E+03
 -1.50352E+03 -1.12176E+04  1.69021E+03 -1.14443E+04  9.64612E+03 -7.21506E+03  1.44055E+04 -1.10297E+03
  6.23344E+03  9.68407E+03  4.85135E+03  9.89506E+03 -1.35265E+04  2.53823E+03 -2.93069E+03 -3.34500E+03
 -4.24310E+03 -2.08649E+03  4.44242E+03 -4.35106E+03  1.51665E+03 -7.85718E+03  3.21256E+03 -7.41405E+02
  2.84158E+03  5.46892E+03  5.38979E+02  3.11144E+02  2.32731E+02  3.01129E+03  7.31418E+03 -6.40847E+03
 -1.21476E+03  4.65709E+03  4.85443E+03  5.37798E+03  6.35608E+03  7.18310E+03 -6.25647E+03  6.40184E+03
 -4.24502E+03  5.86852E+03 -9.17984E+03  8.52772E+03 -7.20614E+03 -3.40845E+03 -2.68644E+03 -7.02575E+03
  4.59809E+03 -2.70998E+03 -9.39307E+01 -3.13278E+03  1.29591E+03  6.79029E+02 -4.64897E+03  5.45357E+03
 -3.79702E+03  1.30147E+03 -9.16903E+03  1.52972E+03 -2.55138E+02 -6.50227E+03 -2.73792E+02 -5.95442E+03
  4.55624E+02 -9.62679E+02  7.18997E+03 -5.76563E+03  5.45022E+03  6.32994E+03 -4.66970E+03  6.52729E+03
  1.48285E+03 -3.28483E+03  3.37807E+03 -6.44817E+03 -2.31749E+03 -6.80908E+03  3.88040E+03 -5.95982E+03
  9.79581E+03 -8.29229E+02  1.73003E+04 -1.86292E+03  5.24613E+03  8.09231E+03 -6.86535E+03  1.02362E+04
 -1.45872E+03  1.06869E+04 -5.28240E+03 -3.00612E+02 -1.47315E+03 -6.54519E+03  2.13626E+02 -7.59516E+03
  7.59761E+03 -9.01171E+02  5.18904E+03  1.71779E+03  2.12012E+03  6.95490E+03 -2.62306E+03 -1.44514E+03
  7.45146E+02  2.64493E+03  1.88956E+03  1.06745E+03  4.47672E+03  2.41565E+03 -3.15387E+03  1.00499E+03
 -4.77822E+03  8.79031E+03 -7.80674E+03  2.45794E+03 -7.33710E+03  6.67091E+03 -5.67199E+03 -6.70439E+03
 -4.51257E+03 -4.71457E+03  1.24008E+03 -8.87455E+03  2.85981E+03 -8.78934E+03  1.61529E+04 -4.01580E+03
  1.31382E+04 -1.45911E+03  1.99666E+03  8.83104E+03  5.06623E+03  4.65876E+03  1.03426E+02  3.78757E+03
 -9.12047E+03  3.08629E+03 -8.23206E+02  1.36512E+02 -6.75216E+03 -3.77250E+03  5.16865E+03 -8.09717E+02
  3.67232E+02  2.85601E+03 -1.59493E+03 -5.26595E+03 -1.04649E+03 -6.99140E+02  1.96314E+02 -4.28180E+03
  5.13602E+03 -2.17052E+03  3.37286E+03  1.74945E+03  4.83525E+03  1.57120E+03  1.57324E+02  4.41581E+03
 -2.69271E+03  5.73800E+03 -1.18916E+04  9.72720E+03 -8.59369E+03 -8.51296E+03 -6.35385E+03 -2.63857E+03
 -2.66140E+03 -7.77404E+03  5.67668E+03 -6.21310E+03  3.77600E+03 -1.05066E+04  9.74340E+03 -6.16816E+02
  1.54414E+03  3.40120E+03 -4.02216E+03 -1.20874E+03  9.19982E+02 -4.47280E+03 -1.15299E+03 -2.25505E+02
  1.34175E+03  1.85622E+03  3.94936E+03  1.63383E+03  1.64484E+03 -1.91306E+03 -2.08205E+03  5.28803E+03
 -7.58183E+02  5.54503E+02  1.07910E+03  3.25015E+03 -3.96113E+03  2.10371E+03 -4.40951E+02 -2.01908E+03
  1.81236E+03 -9.20973E+03  3.48965E+03  1.59579E+03  8.00099E+03  3.61229E+03  2.97890E+03 -2.14785E+03
 -2.13769E+03  3.38332E+03 -7.11900E+02  2.26477E+02 -2.98457E+03 -5.43270E+03  2.79662E+03  6.47828E+03
  1.74939E+03  1.44818E+03  4.43303E+03  4.48796E+03 -2.91749E+03  3.14587E+03 -7.01523E+03 -2.86240E+02
 -7.00812E+03 -2.90968E+02 -2.40932E+03 -1.31959E+03  2.39552E+02 -7.27931E+03  2.39428E+03 -1.63633E+03
  1.19545E+03  1.13613E+03 -1.39958E+03  1.95032E+03  9.38519E+02  9.66039E+03 -4.08035E+03  6.27378E+03
