 $NMID ID='MM_0lb_SNR50_17hz_g55_93.RAW', FMTDAT='(8E13.5)'
 TRAMP=1., VOLUME=1. $END
  3.07637E+05  7.77363E+02  3.33974E+05  2.47737E+05  8.35699E+04  3.36682E+05 -1.32113E+05  2.55816E+05
 -1.89959E+05  8.64227E+04 -1.10535E+05 -3.17257E+04  2.56460E+03 -5.20369E+04  5.51574E+04 -1.54596E+03
  3.44904E+04  5.29917E+04 -1.91699E+04  7.17404E+04 -5.90693E+04  6.19022E+04 -7.93669E+04  3.31950E+04
 -7.89554E+04 -1.02293E+04 -5.93233E+04 -4.74772E+04 -1.22223E+04 -6.77921E+04  2.95346E+04 -4.57459E+04
  3.50064E+04  8.39782E+03  1.65951E+04  4.70242E+04 -3.26699E+04  4.88244E+04 -6.26732E+04  7.81883E+02
 -5.12277E+04 -5.88503E+04 -7.92388E+03 -7.07097E+04  3.23580E+04 -5.34693E+04  4.52446E+04 -2.27469E+04
  4.17176E+04  1.21849E+04  2.93760E+04  2.92358E+04  1.00927E+04  2.91915E+04 -5.33325E+03  3.08197E+04
 -1.69751E+04  8.96518E+03 -1.93632E+04 -2.22403E+03  3.89599E+03 -6.59742E+03  2.11503E+04  1.55777E+04
  3.56377E+03  3.35188E+04 -2.76831E+04  3.24749E+04 -6.48774E+04 -8.53305E+02 -5.65349E+04 -4.01557E+04
 -1.29743E+04 -6.53333E+04  4.39837E+04 -4.39505E+04  5.79019E+04 -4.56531E+02  3.48384E+04  3.46562E+04
 -4.00066E+03  3.63220E+04 -2.90698E+04  1.55136E+04 -3.07079E+04 -4.50689E+03 -1.59844E+04 -1.07131E+04
 -1.02870E+04 -1.13813E+04 -8.87802E+02 -1.84065E+04  9.18276E+03 -2.65497E+04  1.25662E+04 -1.47458E+04
  1.49901E+04  3.65737E+03 -1.08158E+04  1.70832E+04 -2.16474E+04 -6.90228E+03 -9.66633E+03 -3.22811E+04
  2.39757E+04 -3.90458E+04  4.67818E+04 -2.11500E+04  4.59142E+04  1.55595E+04  1.63228E+04  4.32824E+04
 -1.53053E+04  3.22788E+04 -2.38025E+04  4.29835E+03 -1.04138E+04 -2.77013E+04  2.41911E+04 -3.47728E+04
  4.45863E+04 -6.55459E+03  3.00644E+04  1.94112E+04  1.54717E+04  4.70115E+04 -2.68418E+03  4.47820E+04
 -2.79134E+04  3.80109E+04 -3.77320E+04  6.08280E+03 -4.16527E+04 -1.68957E+04 -2.11437E+04 -3.60876E+04
  5.36651E+03 -3.28693E+04  3.38117E+04 -1.16851E+04  2.83400E+04  1.10796E+04 -2.20926E+03  1.98024E+04
 -1.09845E+04  1.08530E+04 -4.47208E+03 -6.41785E+03  1.04834E+04 -9.83541E+03  2.07038E+04  7.68303E+03
  8.67694E+03  2.33230E+04 -3.86259E+03  2.25445E+04 -2.14273E+04  7.26277E+03 -2.34583E+04 -7.73403E+03
 -1.95201E+04 -1.69245E+04 -4.87276E+03 -1.65987E+04  5.53926E+03 -1.69198E+04  1.92691E+04 -1.83471E+04
  2.37389E+04 -9.61069E+03  3.00697E+04  8.97329E+02  2.48632E+04  1.85182E+04  6.21278E+03  3.64629E+04
 -1.81101E+04  2.71742E+04 -2.70913E+04  1.48763E+04 -2.07676E+04 -1.18790E+04 -6.77919E+03 -1.44155E+04
  8.23362E+02 -7.38940E+03 -1.05615E+03  3.92777E+03 -1.62245E+04  9.94918E+02 -1.77973E+04 -1.15728E+04
 -1.34107E+04 -1.70210E+04  8.60664E+03 -2.37771E+04  1.61440E+04 -2.20294E+04  2.00021E+04 -3.50978E+03
  7.45045E+03  1.19170E+04 -2.52073E+03  1.83958E+04 -1.03557E+04  1.15894E+04 -1.57909E+04 -4.28780E+03
 -1.12904E+04 -1.10992E+04 -9.64897E+03 -1.66140E+04  9.13706E+03 -1.43633E+04  1.68223E+04 -9.97269E+03
  1.70416E+04 -1.50134E+03  1.05437E+04  5.31014E+03  7.42403E+03  4.01989E+03  9.21116E+03 -4.46593E+03
  1.95228E+04  5.49064E+03  1.34080E+04  1.48435E+04  9.95127E+03  2.28030E+04 -4.36889E+03  2.99472E+04
 -1.91815E+04  2.34529E+04 -3.06181E+04  1.17460E+04 -2.79365E+04 -2.67110E+03 -2.19852E+04 -1.63599E+04
 -1.39544E+04 -2.14776E+04  1.03266E+04 -2.14645E+04  1.91638E+04 -1.44946E+04  1.68796E+04  4.78930E+03
  4.73789E+03  1.20663E+04 -5.77583E+03  7.89702E+03 -1.75544E+04  1.03572E+03 -1.08904E+04 -1.08291E+04
  2.12210E+03 -1.38164E+04  6.49471E+03 -6.61750E+03  4.47665E+03 -1.53471E+03 -9.60001E+02  6.14156E+02
 -5.46066E+03  1.78357E+03 -6.42349E+03 -1.19716E+03 -1.52825E+03 -1.24795E+04  9.80869E+03 -1.20993E+04
  1.68940E+04 -7.64410E+03  1.10848E+04  4.06585E+03  8.59848E+03  1.08497E+04  2.59358E+03  1.37576E+04
  6.44422E+02  1.86678E+04 -1.39280E+04  9.96196E+03 -1.24955E+04  3.42771E+02 -1.16781E+04  2.53453E+03
 -3.39086E+03 -2.30715E+03  1.19557E+01  2.20514E+03  6.46219E+02 -8.09092E+02 -1.66783E+03  4.42194E+03
 -9.71227E+03 -1.70494E+03 -6.28486E+03 -6.52224E+03  1.08541E+03 -9.49138E+03  2.88310E+03 -1.17796E+04
  1.12452E+04 -4.24577E+03  2.93922E+03  1.25084E+03  2.15131E+03 -2.23707E+03 -5.05979E+03  3.80320E+02
 -7.33803E+03 -8.28439E+03 -2.65838E+03 -1.25682E+04  2.50970E+03 -5.06009E+03  1.00133E+04 -2.67930E+03
  1.61733E+04 -3.83004E+03  7.60763E+03  7.83422E+03  2.41283E+02  8.24247E+03 -6.72220E+03  9.46158E+03
 -8.74370E+03  4.32261E+03 -3.95427E+03 -2.04481E+03 -1.32796E+03 -4.83740E+03  3.44059E+03 -2.80740E+03
  7.35676E+03  5.36050E+02 -1.15344E+03  7.63051E+03 -5.83469E+03  8.18096E+03 -1.25131E+04  6.30893E+03
 -4.60598E+03 -5.45878E+03 -2.56757E+03 -1.01531E+04  9.50670E+03 -4.27782E+03  4.55019E+03  2.01640E+03
 -1.57853E+03  4.34973E+03 -7.07042E+03  3.65411E+03 -6.73191E+03  2.07980E+03 -7.07259E+03  3.48442E+03
 -5.56221E+03 -6.78030E+03  4.32207E+03 -1.08291E+04  4.64292E+03 -2.34107E+03  6.65107E+03  2.44144E+03
  8.73961E+03  1.06417E+04  3.29246E+02  7.07811E+03 -1.39828E+03  8.86769E+03 -6.07264E+03 -6.80568E+03
 -3.88645E+03 -5.40708E+03 -2.73813E+03 -6.77478E+03  6.45270E+03 -5.98775E+03  9.54685E+02 -1.21272E+03
  6.58685E+02 -3.26340E+03  1.14024E+03  3.46855E+03 -6.20779E+02 -1.37292E+03  2.89832E+03 -3.79330E+03
  2.84927E+03 -9.03978E+02  5.34514E+03  2.99018E+01  9.13034E+03  1.84843E+03  6.72232E+03  7.65456E+03
 -2.44534E+03  1.24983E+04 -9.95246E+03  7.64831E+03 -1.88636E+04  2.48470E+03 -1.14768E+04 -1.27061E+03
 -5.73762E+03 -1.01119E+04 -5.79998E+03 -3.75510E+03  3.66915E+03 -5.46506E+03  3.50927E+03 -2.87928E+02
 -4.31059E+03 -3.27364E+03  4.70057E+03 -1.67738E+03  2.69098E+03 -2.84379E+03  2.54931E+03  2.08950E+03
  4.56738E+03  6.19362E+02 -1.11793E+03  3.63742E+03 -1.69673E+03  3.75376E+03 -4.06843E+03  1.88265E+03
 -4.12143E+03 -2.14078E+03 -2.54960E+02 -7.39651E+03  5.69192E+03 -6.15503E+03  3.95963E+03 -4.05287E+03
  1.03978E+04 -5.10966E+03  6.37162E+03 -2.83923E+03  1.08457E+04  8.27439E+03  2.89499E+02  1.16165E+04
  2.85299E+03  3.50221E+03  3.41575E+00  4.09858E+02 -4.23109E+03 -1.54597E+03 -2.05605E+03  6.27499E+02
  2.81743E+03 -3.16757E+02  1.31648E+03  1.87625E+03  1.06157E+03 -1.18997E+03 -6.25412E+03  1.07835E+03
 -8.66129E+02 -4.11946E+03 -1.58466E+03 -5.09088E+03  3.94316E+03 -2.38157E+03  4.57718E+03 -3.71682E+03
  6.78716E+03  1.68683E+02  2.14505E+03  2.10402E+03 -4.59109E+03  7.82727E+03 -6.85223E+03 -1.25256E+03
 -4.29314E+03  1.03970E+03 -7.67700E+03 -3.33281E+03 -3.76302E+03 -5.12243E+03  3.94533E+03 -6.50264E+03
  3.12492E+03 -2.25495E+03 -2.24750E+03  5.57766E+03  2.66411E+03  4.69200E+03 -7.54011E+02  1.65756E+03
  7.65348E+02  1.47982E+03  4.91592E+02  2.95452E+03 -9.14687E+02  1.86163E+03  1.10629E+03  3.74999E+03
  2.78307E+03 -9.27339E+01 -4.10950E+03  7.14459E+03 -5.67021E+03 -1.84378E+02 -5.89276E+03 -4.30252E+02
 -2.43038E+03 -8.16214E+03  6.38615E+03 -1.79427E+03  5.11831E+03 -3.37324E+03  2.83810E+03  8.91504E+02
  1.07144E+03  1.56785E+03  1.25860E+03  2.05804E+03 -1.53955E+03  1.10584E+03 -3.50701E+03  3.48006E+02
  1.52818E+03  1.78833E+03 -4.68682E+02  1.11589E+03 -4.09509E+03 -2.91991E+03  1.54870E+03  1.39831E+03
  6.43429E+03  6.64373E+02  8.77238E+02 -1.84664E+00 -5.23114E+02  2.79626E+02  4.06129E+03 -3.50323E+03
  4.38865E+03 -2.03715E+03  3.50232E+03  2.26812E+03  2.37714E+03  6.46575E+03  1.78730E+03  7.46347E+03
 -3.78701E+03  4.69425E+03 -5.00771E+03  2.20338E+03  3.50728E+02 -2.32735E+03  1.68129E+03  1.26697E+03
  4.37514E+03  2.44236E+03 -2.85346E+02 -7.37499E+02  1.25749E+03 -4.42959E+02  2.25844E+02 -2.56495E+02
  3.70851E+03 -2.69918E+03 -5.00707E+03  1.86092E+03  2.82961E+02 -1.74730E+03 -7.91626E+02 -4.49601E+03
  2.47937E+03  2.84627E+03  1.21617E+03 -3.25676E+03  4.80051E+02 -7.19204E+02  3.47994E+03 -1.74581E+03
 -4.83231E+03 -8.11382E+02 -2.14892E+03  3.57572E+02 -2.74883E+02  4.50073E+03  1.00842E+02  2.63572E+02
  1.08870E+03 -5.18135E+02  4.56028E+03  1.41405E+03  3.35037E+03  3.89944E+03  1.18042E+03  2.32358E+03
 -7.08504E+03  1.06703E+03 -3.05405E+03 -1.38580E+03  3.20655E+01  1.58220E+03  2.93740E+03  6.63206E+02
  5.10080E+03 -1.12562E+03  2.61533E+03 -1.88671E+03  8.86391E+02  6.84818E+03  3.29862E+03  7.94818E+03
  9.47810E+01  9.45817E+02  1.74639E+03 -1.10573E+03  4.72080E+02  1.57991E+03 -2.43388E+03  4.17636E+03
 -1.03987E+03  2.73623E+03 -4.65646E+03 -6.88574E+02 -3.74969E+03  4.59765E+03 -1.73685E+03 -6.55016E+03
 -4.83709E+03 -2.34944E+03 -5.02196E+03 -5.98078E+03  2.42302E+03  3.24310E+02  1.03304E+02 -2.14594E+03
  3.39409E+03 -1.90945E+03  4.69621E+03  3.41164E+03  1.82382E+03  1.53068E+03 -6.15164E+03 -5.36489E+02
  3.75450E+03  2.00906E+03  3.74179E+03 -3.52916E+01  7.40549E+02  2.02337E+03  2.85265E+03 -1.29315E+03
  1.59026E+03 -4.04714E+03  7.25716E+02  1.91328E+03  5.20219E+02 -3.97005E+03 -9.83492E+02  1.01674E+03
  4.31431E+03  1.65796E+03 -6.15695E+02 -1.38304E+03  1.41076E+03  4.49702E+03  4.69520E+02  3.40623E+03
  2.50047E+03  2.84765E+03  5.57774E+02  2.40612E+03  1.81446E+03  6.39827E+02 -1.59243E+03 -1.88746E+03
 -4.19848E+03 -2.84126E+03 -7.81723E+02 -5.75624E+03  1.01591E+03 -2.26023E+03  2.01898E+03  1.00431E+03
  5.58160E+02  4.15581E+03 -1.03745E+03 -8.67245E+02 -9.40978E+03  1.03184E+03  4.75126E+03 -8.52672E+02
  6.76849E+02  4.63673E+03  1.06390E+03  1.36411E+03  7.23902E+02  1.92326E+03 -4.82451E+02 -1.79909E+03
 -2.47902E+03 -6.42811E+02 -1.00953E+03  2.02926E+03  7.90532E+02 -1.01993E+03 -2.62471E+03 -2.93052E+03
 -3.45940E+03 -3.09887E+03  2.58196E+03 -4.45245E+03  1.92104E+02 -1.02575E+03 -1.27176E+03 -5.92004E+02
 -3.35832E+03  1.84352E+03 -6.09303E+02  1.39031E+03  2.72248E+03  2.40135E+03 -4.60392E+03  9.48740E+02
  1.34808E+03 -2.87807E+03  1.05856E+03  3.06234E+03  1.97856E+03 -2.01267E+03 -2.53984E+03 -1.63202E+03
 -2.38101E+03 -1.34234E+03 -1.64784E+03 -8.74700E+02  2.37509E+03 -3.93214E+03  2.31153E+03 -1.49430E+03
  6.94460E+02  4.38036E+02 -2.66130E+03 -2.48131E+03 -5.06670E+03  2.26429E+03 -1.78373E+03  1.60402E+03
