 $NMID ID='MM_0lb_SNR50_12hz_g40_89.RAW', FMTDAT='(8E13.5)'
 TRAMP=1., VOLUME=1. $END
  3.09229E+05 -2.91547E+03  3.38085E+05  2.59052E+05  8.37454E+04  3.41199E+05 -1.36377E+05  2.52164E+05
 -1.91943E+05  8.61169E+04 -1.14372E+05 -3.22372E+04 -8.22414E+02 -5.43021E+04  5.71645E+04  1.93299E+03
  3.48266E+04  5.44012E+04 -1.61505E+04  7.68439E+04 -5.39237E+04  6.73193E+04 -8.36449E+04  3.40728E+04
 -8.31599E+04 -1.79674E+04 -5.74986E+04 -5.23109E+04 -1.41435E+04 -6.94061E+04  2.67187E+04 -4.71948E+04
  3.98455E+04  2.63491E+03  1.45058E+04  4.92743E+04 -2.92645E+04  4.85269E+04 -6.98280E+04 -1.16991E+03
 -5.21528E+04 -5.79918E+04 -9.82065E+03 -7.66353E+04  3.28504E+04 -5.15073E+04  4.72906E+04 -1.34781E+04
  4.44393E+04  1.61977E+04  3.15342E+04  2.57124E+04  1.62336E+04  2.55218E+04 -2.00412E+03  3.04818E+04
 -2.37966E+04  9.53590E+03 -1.98878E+04 -4.08304E+03  2.36724E+03 -7.97606E+03  1.93601E+04  1.84547E+04
  7.78430E+03  3.18077E+04 -3.55777E+04  3.74425E+04 -6.67263E+04  5.76610E+02 -5.55357E+04 -3.88221E+04
 -1.39505E+04 -6.42559E+04  4.04538E+04 -4.44196E+04  6.09703E+04 -2.85258E+03  4.01987E+04  2.97017E+04
 -3.75737E+03  3.43653E+04 -3.60531E+04  1.12604E+04 -3.10826E+04 -5.63496E+03 -2.18013E+04 -9.82487E+03
 -1.10395E+04 -1.04760E+04  3.14209E+03 -2.10219E+04  5.77103E+03 -2.61454E+04  1.67225E+04 -1.09831E+04
  9.01779E+03  3.07509E+03 -9.16811E+03  1.21985E+04 -2.01198E+04 -5.74146E+03 -4.80049E+03 -3.74563E+04
  2.45404E+04 -4.45774E+04  5.07522E+04 -1.70557E+04  5.03718E+04  2.22246E+04  1.63617E+04  4.55075E+04
 -1.66590E+04  3.39296E+04 -2.97264E+04  3.82981E+03 -1.36694E+04 -2.55123E+04  1.79069E+04 -3.02883E+04
  3.97693E+04 -1.06361E+04  3.65903E+04  2.42755E+04  1.88903E+04  4.59476E+04 -1.15181E+04  5.59265E+04
 -2.93709E+04  3.77644E+04 -4.02710E+04  7.21288E+03 -4.78547E+04 -1.79542E+04 -2.70235E+04 -4.19251E+04
  4.83598E+03 -3.87224E+04  3.25650E+04 -1.29915E+04  2.93756E+04  1.66749E+04  4.95700E+03  1.93188E+04
 -1.76062E+04  6.38688E+03 -9.79592E+03 -8.04772E+03  5.60858E+03 -6.36558E+03  2.15662E+04  8.48153E+03
  1.76489E+04  2.00940E+04 -7.86760E+03  1.96264E+04 -2.74900E+04  1.63395E+04 -3.35471E+04  5.61300E+02
 -2.25586E+04 -1.87512E+04 -1.17625E+04 -1.69662E+04  2.03549E+03 -2.53125E+04  1.19239E+04 -2.04532E+04
  3.35132E+04 -1.58765E+04  3.83303E+04  1.62609E+03  2.48432E+04  2.24260E+04 -3.00922E+03  3.85197E+04
 -1.99549E+04  3.36189E+04 -3.24209E+04  1.03302E+04 -2.66552E+04 -1.40089E+04 -5.60789E+03 -1.81066E+04
  4.83246E+03 -9.59716E+02 -6.19956E+03  7.54575E+03 -1.58931E+04 -1.26413E+03 -1.74545E+04 -4.07507E+03
 -1.19403E+04 -1.92422E+04  5.07705E+03 -2.17514E+04  1.42386E+04 -1.73065E+04  1.99413E+04  1.41167E+03
  1.17312E+04  1.42974E+04  6.11975E+02  2.45346E+04 -1.48888E+04  1.04695E+04 -1.61102E+04 -5.58306E+03
 -1.12037E+04 -1.87691E+04 -7.06353E+03 -1.81519E+04  1.27713E+04 -2.38171E+04  2.12342E+04 -8.63870E+03
  1.98803E+04 -7.08889E+02  1.23434E+04  2.92149E+03  1.02415E+04  1.62762E+03  8.68823E+03  1.53459E+03
  1.92795E+04  5.82129E+03  2.63385E+04  1.84789E+04  1.01029E+04  3.57836E+04 -3.66182E+03  3.70252E+04
 -2.45172E+04  2.51257E+04 -3.42386E+04  1.93463E+04 -3.89653E+04  1.69671E+03 -3.46544E+04 -2.09314E+04
 -1.39335E+04 -3.16381E+04  1.26971E+04 -2.47969E+04  2.27514E+04 -1.08601E+04  2.25303E+04  9.30108E+03
  1.42924E+04  2.38063E+04 -6.91910E+03  1.47654E+04 -1.35028E+04  2.33940E+03 -1.56545E+04 -1.60200E+04
 -1.31917E+03 -1.46591E+04  1.25982E+04 -1.50441E+04  1.05632E+04 -3.64102E+03  7.01770E+03  5.31668E+03
 -8.97350E+03  6.23181E+03 -7.02543E+03 -2.11068E+03  2.86291E+03 -1.66520E+04  7.75013E+03 -1.99776E+04
  1.69474E+04 -1.09764E+04  1.87650E+04  3.03008E+03  1.65375E+04  1.16902E+04  9.27561E+03  2.31403E+04
 -2.41088E+03  2.64869E+04 -1.95971E+04  1.66639E+04 -1.23997E+04 -1.20968E+03 -1.41112E+04 -4.51303E+03
 -8.24431E+03 -3.68752E+03 -8.57965E+02  3.62428E+03 -1.57923E+03 -5.51068E+02 -7.96700E+03  6.12695E+03
 -9.21310E+03 -6.87237E+02 -1.62747E+04 -1.19262E+04 -9.32724E+03 -1.78386E+04  4.71036E+03 -1.44937E+04
  1.07968E+04 -4.18183E+03  7.27036E+03 -2.53878E+03  2.71022E+03  4.26306E+03 -7.22128E+03  6.58291E+02
  3.84017E+02 -5.37246E+03  2.19003E+03 -1.53130E+04  6.77514E+03 -1.13868E+04  2.20440E+04 -9.79206E+03
  1.36632E+04 -1.57962E+03  1.48722E+04  1.41503E+04  4.23980E+03  1.00147E+04 -7.24087E+03  1.46836E+04
 -6.00543E+03 -2.86721E+02 -2.38600E+03 -1.19088E+03  9.29095E+02 -6.43195E+03  1.02078E+04 -3.60784E+03
 -5.58255E+01  3.66621E+03 -3.55721E+02  1.58944E+04 -1.20848E+03  5.84801E+03 -1.20982E+04  7.34176E+03
 -8.96793E+03 -8.75022E+03  3.03493E+03 -8.52827E+03  4.03613E+03 -5.88781E+03  1.00271E+04  2.07788E+03
  4.70248E+03  2.92153E+03 -1.13129E+04  1.29488E+04 -1.14917E+04  1.93779E+03 -1.52597E+04 -8.68657E+03
 -8.17683E+03 -1.01869E+04 -1.81524E+02 -1.76579E+04  8.67166E+03 -3.19849E+03  1.01608E+04  7.25661E+03
  5.64823E+03  1.09658E+04 -2.36070E+03  9.42108E+03 -6.53183E+03  5.97750E+03 -9.72517E+03  1.43653E+02
 -4.19573E+03 -8.24983E+03 -1.04561E+03 -2.11931E+03  6.96329E+03 -7.61380E+03  5.55576E+03 -2.99382E+03
  6.53130E+03 -2.85210E+03 -2.20664E+03  1.64570E+03  3.30346E+03 -4.99473E+03  3.29777E+03 -4.93466E+03
  1.00213E+04 -2.15038E+03  5.87236E+03 -4.28200E+03  9.88111E+03  7.21150E+03  5.79183E+03  1.90030E+04
 -3.47375E+03  1.79928E+04 -1.26851E+04  1.09162E+04 -1.94589E+04  5.87311E+02 -8.86075E+03 -7.58558E+03
 -5.33217E+03 -1.12759E+04 -3.66349E+02 -1.53766E+04  2.86268E+03 -7.05401E+03  1.28053E+03 -2.36098E+02
  2.29250E+03 -3.31254E+03 -9.92770E+02  4.19435E+03  6.41799E+03  1.40053E+01  2.97542E+03 -2.55579E+03
  1.08964E+04  1.63192E+03  5.40072E+03  5.62087E+03 -3.56470E-01  2.48415E+03 -1.10676E+04  6.50658E+03
 -3.88164E+03 -3.36076E+03 -7.23330E+03 -6.32136E+03 -3.92349E+03 -8.09243E+03  6.82228E+03 -1.29750E+04
  1.04609E+04 -7.84650E+03  1.63118E+04  1.73899E+03  1.14243E+04  1.37013E+04  9.04778E+02  6.17736E+03
 -8.44154E+03  1.21161E+04 -3.71490E+03  5.09200E+02 -6.56139E+03 -1.33196E+03 -3.54498E+03 -8.49200E+02
 -4.45199E+03 -2.09173E+03 -3.40141E+03  1.14492E+03 -4.91098E+03  7.14884E+02 -3.01139E+03 -4.46630E+03
 -4.16994E+03 -8.38443E+03 -8.04514E+02 -1.32006E+04  4.13967E+03 -1.39132E+04  5.67231E+03 -2.55190E+03
  1.12607E+04  7.27608E+03 -1.47258E+03  4.70864E+03 -3.71733E+03  6.88138E+03 -5.20764E+03  5.15948E+03
 -1.27189E+04 -1.84167E+03 -7.98387E+03 -7.67864E+03 -2.64265E+03 -1.16553E+04  1.97349E+03 -8.22286E+03
  7.88033E+03 -2.95531E+03  3.70328E+03  9.08538E+02  4.84652E+03  1.24881E+03  7.99635E+02  3.62901E+03
  1.34288E+03  9.72813E+02 -3.41340E+03 -1.29230E+03  8.35397E+02  3.63565E+03  4.62727E+03  3.90479E+03
 -3.40388E+03  1.04078E+04 -6.10206E+03  5.29840E+03 -8.03284E+03 -7.03427E+02 -1.05752E+04 -1.23328E+03
 -1.90370E+03 -1.20558E+04  5.18203E+03 -8.97540E+03  5.31955E+03 -1.21409E+04  1.10647E+04 -3.59947E+03
  2.36493E+03  6.65564E+03  2.78940E+03  4.99670E+03 -2.31164E+03  5.84065E+03 -2.44727E+03 -5.95771E+02
 -4.61572E+03  2.68726E+03  3.25933E+03 -6.81517E+03  5.35871E+03 -4.76537E+03  1.76974E+03  2.63590E+02
  6.34804E+02  3.93379E+03 -7.67574E+03 -2.75713E+03  7.70466E+02  6.87393E+02  2.87705E+03 -3.15306E+02
  3.13955E+02 -4.60209E+03  2.83770E+03  3.99974E+03  5.09240E+02  6.63536E+03  5.95007E+03  1.00577E+04
 -1.47250E+03 -5.52842E+02 -5.16260E+03 -2.55908E+03 -3.50495E+03 -4.69740E+03 -1.51049E+03 -5.47092E+02
  3.74024E+03 -3.55754E+03  1.46031E+03 -4.37758E+02  7.40311E+03  7.28967E+03  1.52322E+03  8.04067E+03
  1.48520E+03 -1.45451E+03 -4.35156E+03  5.54209E+02 -4.70873E+03 -3.94021E+03  1.43094E+03 -3.08981E+03
  3.98883E+03 -2.79841E+03  5.93391E+03 -1.24931E+03  4.24253E+03 -1.53707E+02 -1.48989E+03  6.26350E+03
 -8.29845E+02  6.29055E+02 -6.43500E+03 -3.94250E+03  3.64729E+03 -1.94408E+03  9.87914E+03 -4.79032E+03
  8.79965E+03 -6.42341E+03  6.98144E+03  6.26860E+03 -4.84115E+03  4.09571E+03 -5.54348E+03  7.45228E+03
 -3.31577E+03  4.86621E+03 -2.46857E+03 -1.16381E+03 -2.63433E+03 -1.91708E+03  1.00530E+02 -2.50664E+03
  4.17465E+03 -3.29174E+03  3.51677E+03 -5.00676E+03 -4.06766E+01  3.01258E+03  3.66649E+03  8.25986E+03
 -1.23355E+03 -8.32486E+02  2.18106E+03  4.92639E+03 -7.04453E+03 -5.24024E+03  1.26373E+03 -5.67168E+02
 -8.80489E+01  5.76739E+03 -6.99883E+03 -1.48177E+03 -3.82533E+03 -2.46790E+02 -1.28868E+04 -1.87389E+03
 -5.17645E+03 -6.69250E+03 -2.21823E+03 -3.88590E+03  4.40745E+03 -5.76529E+03  9.70062E+03  2.72323E+03
  2.30962E+03 -5.71687E+03  3.09866E+03  3.79082E+03  3.11465E+03  8.25564E+03 -4.10781E+03  5.95215E+03
 -1.64379E+01 -2.64011E+03 -2.12779E+03 -2.52968E+02  1.58299E+03 -3.49526E+03 -4.24134E+03  8.50883E+02
 -3.54568E+03 -5.39909E+02 -2.73438E+03  2.16522E+03  3.86149E+03 -1.11354E+03  4.79621E+03 -6.83779E+03
  2.66976E+03 -2.21178E+03  5.18028E+03  1.13134E+03  3.41108E+03  4.56486E+01 -1.88031E+03  1.28796E+03
 -1.79355E+03  3.86553E+03 -1.12510E+04  2.41425E+03 -4.58348E+03 -3.80203E+03 -5.96306E+03 -2.01750E+03
 -7.13911E+03 -2.50208E+03  1.83883E+03  1.67574E+03  5.65469E+03 -8.77770E+03  1.01050E+04  2.01019E+03
  2.11890E+03  3.35962E+03 -1.03792E+03  6.24899E+00 -1.43978E+03 -1.40523E+03 -5.66232E+02 -2.82757E+03
  2.34683E+03 -5.52545E+03  3.17873E+03  2.75602E+03  1.65669E+03  5.46709E+03  5.55336E+03  4.36446E+03
  7.10045E+02 -1.34541E+03 -8.32361E+03  1.73438E+02 -3.55484E+03 -2.20481E+03 -2.06350E+03 -4.41297E+03
 -9.16939E+02 -4.86546E+03  8.13257E+02 -3.66521E+03  2.47653E+03  1.04726E+03  6.45116E+02  6.91033E+03
 -1.43020E+03  1.79460E+03 -6.73110E+03  5.30445E+03  3.66478E+02 -2.31070E+02 -2.22857E+03  2.86919E+03
  1.80887E+03 -9.58119E+02  6.04462E+02 -7.87633E+02 -1.03114E+03  8.18146E+03 -1.51867E+03  1.87790E+02
 -7.38682E+02 -2.95147E+03 -2.19730E+03 -1.63488E+03  1.63196E+03  9.84555E+02 -7.58027E+02  3.13475E+03
  1.02579E+03 -2.89013E+03  8.37869E+02  1.99132E+03 -1.43903E+03  3.97846E+03  1.57088E+03  7.06113E+03
