 $NMID ID='MM_0lb_SNR50_7hz_g60_97.RAW', FMTDAT='(8E13.5)'
 TRAMP=1., VOLUME=1. $END
  3.15298E+05  4.50198E+03  3.44345E+05  2.44456E+05  8.77799E+04  3.42690E+05 -1.37445E+05  2.49320E+05
 -1.86724E+05  8.65234E+04 -1.04950E+05 -3.28528E+04 -2.88296E+03 -4.82837E+04  5.14494E+04 -1.42195E+02
  4.13680E+04  5.39284E+04 -1.91761E+04  7.88906E+04 -6.60019E+04  6.57619E+04 -8.23820E+04  3.47480E+04
 -8.52071E+04 -1.07546E+04 -6.03256E+04 -5.08838E+04 -1.12626E+04 -6.25908E+04  2.83332E+04 -4.40888E+04
  4.01563E+04  5.16651E+03  1.14403E+04  4.06804E+04 -3.82869E+04  5.15625E+04 -6.45214E+04 -1.07603E+03
 -4.90049E+04 -6.56609E+04 -9.32524E+03 -8.89918E+04  3.21892E+04 -5.48615E+04  4.76930E+04 -1.66818E+04
  3.71480E+04  1.20732E+04  2.69422E+04  2.03270E+04  1.60054E+04  2.58240E+04 -5.55195E+03  3.01688E+04
 -2.53558E+04  1.78975E+04 -1.65819E+04 -2.02885E+03  8.65003E+03 -5.86593E+03  2.94802E+04  2.28728E+04
  1.15755E+04  4.74389E+04 -3.99130E+04  4.34371E+04 -6.86058E+04  7.58349E+03 -5.44805E+04 -4.91676E+04
 -1.52801E+04 -6.33934E+04  4.36566E+04 -4.15414E+04  6.34183E+04 -3.65538E+03  3.65906E+04  2.69693E+04
 -2.44571E+03  4.28978E+04 -3.35058E+04  2.32400E+04 -3.03017E+04 -4.69147E+03 -1.77602E+04 -1.66393E+04
 -1.32894E+04 -9.62413E+03 -2.48524E+03 -2.01805E+04  7.96153E+03 -2.84476E+04  1.72851E+04 -1.89886E+04
  4.85265E+03  2.01266E+02 -3.53121E+02  2.48003E+04 -2.18030E+04 -1.28409E+04 -1.32113E+04 -3.55883E+04
  3.05399E+04 -4.96770E+04  5.13898E+04 -1.99961E+04  4.50426E+04  2.54267E+04  1.99871E+04  3.78283E+04
 -1.74709E+04  3.46379E+04 -2.75510E+04  6.43708E+03 -1.76379E+04 -3.24136E+04  2.45689E+04 -3.92390E+04
  5.61312E+04 -1.27521E+04  4.56715E+04  2.82734E+04  2.15712E+04  5.29552E+04 -1.75056E+04  5.43326E+04
 -3.28169E+04  3.98611E+04 -5.06192E+04  1.20761E+04 -4.77823E+04 -2.25584E+04 -3.49330E+04 -4.65585E+04
  1.46966E+04 -3.83437E+04  3.84121E+04 -2.75150E+04  3.35814E+04  1.01733E+04  2.62489E+03  2.05096E+04
 -1.95812E+04  1.04514E+04 -1.03683E+04 -1.19851E+04  7.14504E+03 -1.92153E+04  1.15723E+04  1.13916E+04
  1.28162E+04  2.52096E+04 -3.68436E+03  3.05450E+04 -2.40495E+04  1.99204E+04 -3.01018E+04 -4.97871E+03
 -2.77970E+04 -1.77981E+04 -1.00581E+04 -1.92616E+04  1.31619E+03 -3.07307E+04  2.57138E+04 -3.32765E+04
  2.80723E+04 -1.75210E+04  4.18308E+04  1.49306E+04  3.63848E+04  2.72669E+04  1.54945E+04  4.58216E+04
 -1.83911E+04  3.76360E+04 -3.12175E+04  1.75955E+04 -1.77235E+04 -1.04964E+04 -7.85029E+03 -1.56614E+04
  5.12213E+03 -5.65387E+03 -6.36988E+03  1.26219E+04 -2.19114E+04  5.11517E+03 -2.02575E+04 -7.34450E+03
 -1.51544E+04 -2.28655E+04  1.90918E+03 -2.99125E+04  1.48195E+04 -2.15113E+04  2.85536E+04 -5.08130E+03
  1.95241E+04  2.02661E+04 -2.81836E+03  1.84063E+04 -1.61584E+04  1.48609E+04 -3.03994E+04 -3.52931E+03
 -2.11553E+04 -2.48723E+04 -1.09310E+04 -3.01714E+04  1.85912E+04 -2.81433E+04  3.53048E+04 -1.05305E+04
  2.31705E+04  1.43821E+03  2.09761E+04 -2.84878E+03  1.06223E+04 -2.06762E+02  1.76730E+04  4.96368E+03
  2.83214E+04 -3.53864E+02  2.23663E+04  1.81326E+04  2.21384E+04  3.93263E+04 -9.09174E+03  4.54778E+04
 -2.30431E+04  4.31323E+04 -4.64139E+04  2.82104E+04 -5.20236E+04 -3.85975E+03 -4.46045E+04 -3.11634E+04
 -1.73938E+04 -3.22347E+04  1.16622E+04 -3.92184E+04  2.89170E+04 -2.23776E+04  2.27764E+04  7.68922E+03
  8.39215E+03  2.52147E+04 -1.19369E+04  2.09364E+04 -2.56575E+04  1.93630E+03 -1.25248E+04 -1.92511E+04
  1.83141E+03 -2.10740E+04  1.57310E+04 -1.95922E+04  1.55683E+04 -2.97115E+03  2.82627E+03  1.84665E+04
 -7.47916E+03  1.99880E+03 -1.19873E+04 -5.97565E+03 -1.21299E+03 -2.74028E+04  5.88410E+03 -1.88798E+04
  2.93791E+04 -1.43537E+04  3.37596E+04 -1.00622E+03  2.95709E+04  2.18876E+04  1.78130E+04  3.48656E+04
 -1.23002E+04  3.15409E+04 -2.06410E+04  2.90212E+04 -2.52770E+04 -1.22298E+03 -1.51912E+04 -1.29418E+04
 -8.12017E+03 -1.23037E+04 -7.11651E+03  1.22846E+03 -1.37146E+03  6.83551E+03 -2.47457E+04  5.42872E+03
 -1.36322E+04 -5.74907E+02 -1.38156E+04 -1.47452E+04 -3.39899E+03 -2.02486E+04  1.22134E+04 -1.79737E+04
  1.19638E+04 -4.26580E+03  1.53715E+04  3.44153E+03 -6.19041E+03  4.87941E+03 -1.27609E+04  4.05617E+01
 -1.11619E+04 -1.28512E+04 -1.82723E+03 -2.11819E+04  1.48001E+04 -1.99500E+04  2.96574E+04 -1.23246E+04
  3.37233E+04  5.75125E+03  1.50272E+04  1.59194E+04  4.63515E+03  2.18592E+04 -8.67275E+03  2.09856E+04
 -1.58336E+04  8.07482E+03 -4.58121E+03 -1.49008E+02 -2.74277E+03  1.62286E+03  9.37858E+03  5.51996E+03
  1.20392E+04  1.36048E+04  4.33242E+02  1.69778E+04 -7.31718E+03  1.14872E+04 -1.93872E+04 -1.44531E+03
 -1.49258E+04 -7.49380E+03  9.03326E+03 -1.11304E+04  1.04675E+04 -4.42563E+03  1.64472E+04  4.05060E+03
  8.18853E+03  2.26342E+04 -6.77657E+03  1.20836E+04 -5.47932E+03  8.92601E+03 -2.02799E+04 -7.84685E+03
 -6.85994E+03 -1.37027E+04  5.75175E+03 -2.33403E+04  1.86198E+04 -1.97839E+04  2.11780E+04  5.15437E+03
  1.78789E+04  1.95861E+04 -6.45701E+03  1.89959E+04 -9.10051E+03  7.84991E+03 -1.65786E+04 -4.05531E+03
 -1.52288E+04 -7.72816E+03 -3.63503E+03 -1.08120E+04  5.44326E+03 -1.38164E+04  4.85209E+03  1.46862E+02
  3.80272E+03  5.07975E+01  8.15839E+03  2.39068E+03  9.01935E+02 -3.44357E+03  6.94472E+03 -1.11425E+04
  1.71836E+04 -7.79795E+03  2.71888E+04  5.78476E+03  2.18647E+04  1.58418E+04  1.35780E+04  2.69429E+04
 -2.33203E+03  3.63107E+04 -2.04634E+04  1.48441E+04 -3.65676E+04 -1.77815E+03 -3.27286E+04 -1.43853E+04
 -1.49597E+04 -2.69253E+04  3.77261E+03 -1.75755E+04  8.79004E+03 -8.43116E+03  9.80831E+03 -7.69239E+03
  1.62438E+03 -1.19017E+04  2.48648E+03 -3.52869E+03  1.20872E+04  6.55599E+02  1.66330E+04 -1.13675E+03
  1.00349E+04  3.51494E+03  1.01525E+04  1.60513E+04 -5.85545E+03  1.52821E+04 -1.61732E+04  5.36602E+03
 -1.67281E+04  2.86268E+03 -1.62246E+04 -1.84119E+04  4.63253E+03 -2.07577E+04  9.94262E+03 -1.66130E+04
  2.19691E+04 -1.36066E+04  3.02184E+04  1.91067E+03  1.89686E+04  2.69064E+04 -5.00697E+03  2.36667E+04
 -8.89472E+03  2.03423E+04 -1.42721E+04  1.05169E+04 -1.82207E+04 -2.48628E+03 -4.21994E+03 -3.75602E+03
 -6.29153E+03  1.78540E+03 -4.55437E+03 -1.31867E+03 -5.88097E+03  1.30493E+03 -8.96085E+03 -5.74747E+02
 -2.03602E+04 -6.45150E+03  4.06702E+03 -2.40385E+04  1.60675E+04 -1.90277E+04  1.85709E+04 -2.85063E+03
  1.40201E+04  1.02320E+04  1.39222E+04  1.85428E+04 -8.78421E+03  1.77330E+04 -1.44829E+04  1.53060E+04
 -1.91108E+04 -3.23314E+03 -1.94283E+04 -1.17671E+04 -1.87808E+03 -1.18049E+04 -3.94114E+03  3.79218E+03
  1.71782E+04 -3.97531E+03  1.16367E+04  2.30483E+03  6.30793E+02  2.77882E+03  2.99011E+03  3.15599E+03
 -7.76808E+03 -4.50466E+02  1.34920E+03  6.82424E+03  7.68316E+03  2.06095E+03  7.96743E+03  6.25080E+03
 -2.44449E+03  1.89983E+04 -7.90556E+03  1.44617E+04 -1.26142E+04  5.86078E+03 -1.26949E+04 -9.44053E+03
 -1.49869E+04 -2.11898E+04  4.38759E+03 -2.26774E+04  6.99278E+03 -1.60716E+04  2.16603E+04 -4.18776E+03
  1.75643E+04  7.70539E+03  5.95259E+03  1.03528E+04 -9.47386E+03 -9.38891E+02 -1.24916E+04 -3.80278E+03
 -2.44135E+03 -4.22146E+03  1.43724E+04 -1.02978E+04  1.19474E+04 -9.10158E+03  1.36040E+04  9.04169E+02
  4.20329E+03  2.79765E+03  9.66539E+03  8.73249E+03  1.14691E+03  1.49696E+03  1.88918E+03 -5.89521E+02
  2.23567E+03  2.83673E+03  1.06817E+04 -3.03678E+03 -2.78747E+03  1.54155E+04  2.09681E+03  1.38235E+04
 -1.00702E+04  7.73417E+03 -1.41827E+04  6.19285E+03 -1.99860E+04 -7.02081E+03 -5.48212E+03 -1.24858E+04
  6.76110E+03 -1.31393E+04  5.26733E+03 -3.35773E+03  6.56414E+03  7.81803E+03  5.90584E+03  5.79285E+03
 -4.46349E+03  4.29926E+03 -1.09824E+04 -3.89061E+03 -2.41487E+03 -1.27265E+04  1.05003E+03 -1.26067E+04
  1.06228E+04 -2.21034E+03  6.33554E+03 -1.67727E+03  1.40552E+03  8.78496E+03 -7.06904E+02  1.57581E+04
  4.64942E+03 -3.51993E+03  8.37604E+03 -7.59451E+03  5.56963E+03 -5.87838E+03  6.34776E+03 -9.53786E+02
  1.34195E+04  1.32592E+03  1.09054E+04  8.09732E+03  2.02356E+03  2.03123E+04 -8.13135E+03  1.38865E+04
 -1.30151E+04  3.91108E+03 -1.38458E+04 -2.27158E+03 -9.93230E+03 -5.98691E+03  6.76472E+01 -1.73907E+04
  1.69624E+04 -5.44167E+03  9.03727E+03  2.96756E+03 -1.01428E+03  9.81224E+03 -5.80818E+03  2.05076E+03
 -5.35626E+03  4.30562E+03 -1.83135E+03 -1.26276E+03 -1.08115E+04 -1.89029E+03 -2.93703E+03 -6.98763E+02
  4.14176E+02  2.00473E+03 -6.95803E+03  1.65092E+03 -1.31232E+04 -3.37099E+03 -2.76660E+04 -1.08184E+04
 -6.16518E+03 -2.43881E+04  6.16008E+03 -2.96094E+04  1.04464E+04 -2.31245E+04  2.95961E+04 -8.37779E+03
  2.32146E+04 -1.05254E+03  1.75207E+04  1.96931E+04  2.60398E+03  1.03054E+04  4.25279E+03  1.23139E+04
 -1.14435E+04  5.84751E+03 -1.11792E+04 -2.84492E+02  2.36230E+03  3.43838E+03 -8.59399E+03  4.57500E+03
 -7.14653E+03  3.81683E+03 -1.44093E+04  3.55008E+03 -3.94725E+03  1.03085E+03 -5.78885E+03 -5.08958E+03
  1.17081E+04 -5.85571E+03  1.21800E+04 -6.60705E+02  1.45819E+04  6.16323E+03  2.91188E+03  1.15964E+04
 -1.06944E+04  2.13143E+04 -1.68435E+04  2.02366E+03 -2.02039E+04 -3.29164E+02 -1.63241E+04 -1.64410E+04
 -4.86090E+03 -1.56322E+04  3.61651E+03 -1.77476E+04  1.20416E+04 -6.57532E+03  1.84383E+04 -5.25629E+03
  7.55125E+03  2.95132E+02 -2.21410E+03  2.23746E+02  1.05444E+03 -1.08384E+03  7.36556E+02 -1.20176E+04
  8.98062E+03 -1.62943E+03  5.02368E+03  6.83330E+02 -4.40186E+03  1.31010E+04  4.98504E+03  1.14517E+04
 -6.92003E+03  9.52748E+03 -1.76169E+04 -2.77942E+03 -1.60290E+04 -1.14558E+04  9.23125E+02 -1.75215E+04
  1.04206E+04 -1.43835E+04  1.46252E+04 -1.88407E+03  9.90295E+03  5.85423E+02  9.67709E+03  8.12010E+03
  1.75311E+03  9.69941E+03 -7.85576E+03  5.70195E+03 -1.04754E+03  5.40954E+03 -8.90220E+03  5.62225E+03
 -1.96457E+03  1.86399E+03  6.66068E+03  7.40898E+02 -4.65738E+03 -4.79754E+02 -6.68156E+03 -3.14772E+03
 -3.26693E+03 -5.42638E+03 -1.88403E+03 -1.09760E+04  7.69264E+03 -1.28494E+04  1.74895E+04 -3.67886E+03
  1.61818E+04  2.38604E+03  1.06748E+04  9.70563E+03 -1.99858E+03  8.73762E+03 -1.11655E+04  6.42885E+03
