 $NMID ID='MM_0lb_SNR50_14hz_g45_93.RAW', FMTDAT='(8E13.5)'
 TRAMP=1., VOLUME=1. $END
  3.06198E+05 -2.27771E+03  3.35898E+05  2.45709E+05  8.86659E+04  3.37212E+05 -1.35518E+05  2.42401E+05
 -1.88840E+05  8.20803E+04 -1.14254E+05 -3.57231E+04 -2.79684E+03 -4.75226E+04  5.38673E+04 -5.17355E+02
  3.46580E+04  5.28029E+04 -1.41457E+04  6.97316E+04 -6.22215E+04  6.80074E+04 -9.26410E+04  3.20450E+04
 -7.84086E+04 -8.42344E+03 -5.77475E+04 -4.96541E+04 -1.46048E+04 -6.88982E+04  2.78959E+04 -4.24528E+04
  4.16904E+04  1.83503E+03  1.77780E+04  4.58776E+04 -3.22182E+04  4.94379E+04 -6.53342E+04 -1.06602E+03
 -5.52848E+04 -5.85815E+04 -5.82887E+03 -7.83630E+04  3.57927E+04 -5.07753E+04  5.06601E+04 -1.90510E+04
  4.60119E+04  1.31513E+04  3.35694E+04  2.86842E+04  1.06414E+04  3.29921E+04 -5.93659E+03  3.08120E+04
 -1.66442E+04  1.29321E+04 -1.59767E+04 -4.30773E+03  6.31719E+03 -8.50075E+02  1.99592E+04  1.28239E+04
  6.65263E+03  3.43067E+04 -3.64524E+04  3.36356E+04 -6.67300E+04 -3.10307E+03 -5.49058E+04 -3.83551E+04
 -1.53400E+04 -5.64147E+04  4.02097E+04 -4.42008E+04  5.99678E+04 -3.98772E+03  3.29326E+04  3.44943E+04
 -5.43443E+03  3.35642E+04 -2.87170E+04  1.38755E+04 -3.27691E+04 -5.34216E+03 -1.66289E+04 -1.33056E+04
 -8.42477E+03 -1.14618E+04 -6.30736E+03 -1.73824E+04  1.09368E+04 -2.03871E+04  1.41446E+04 -1.38638E+04
  8.47574E+03  4.85278E+02 -6.13471E+03  1.22207E+04 -2.52861E+04 -8.61836E+03 -8.28311E+03 -4.08634E+04
  2.06174E+04 -4.45721E+04  4.83447E+04 -2.41433E+04  4.90853E+04  2.64636E+04  1.75806E+04  4.40311E+04
 -1.34540E+04  3.49766E+04 -2.11190E+04  4.90781E+03 -6.68706E+03 -3.17683E+04  2.25716E+04 -3.43704E+04
  4.71013E+04 -1.06161E+04  3.29732E+04  2.67980E+04  1.63031E+04  4.11794E+04 -1.19238E+04  4.83200E+04
 -2.89710E+04  3.37888E+04 -4.09520E+04  6.92198E+03 -4.15885E+04 -2.03749E+04 -2.05716E+04 -3.23528E+04
  3.22044E+03 -3.45631E+04  3.52593E+04 -1.60686E+04  2.55169E+04  1.33160E+04  1.68935E+03  1.74246E+04
 -1.84093E+04  7.84052E+03 -6.97035E+03 -2.71764E+03  8.27437E+03 -1.08162E+04  1.89310E+04  3.81741E+03
  9.48918E+03  2.17208E+04 -6.25268E+03  2.22483E+04 -2.67627E+04  1.02786E+04 -2.41794E+04 -8.56889E+03
 -2.11932E+04 -1.71438E+04 -6.25231E+03 -2.23140E+04  8.12444E+03 -2.44233E+04  2.11396E+04 -1.49386E+04
  2.50878E+04 -9.73451E+03  2.69944E+04  3.95410E+03  2.35175E+04  1.69254E+04  2.52437E+03  3.45037E+04
 -1.72589E+04  2.32228E+04 -2.72022E+04  8.43456E+03 -2.26449E+04 -7.67864E+03 -2.77452E+03 -1.17066E+04
  1.79443E+02 -2.12609E+03 -2.73499E+03  5.41227E+03 -1.74094E+04  6.71176E+03 -1.27409E+04 -8.28886E+03
 -1.38852E+04 -1.92944E+04  1.15187E+04 -2.22552E+04  1.46359E+04 -1.30633E+04  1.83032E+04 -1.78202E+03
  1.26528E+04  1.26614E+04 -1.61548E+03  1.95643E+04 -1.28333E+04  1.17163E+04 -1.84896E+04 -4.91857E+03
 -1.64653E+04 -1.87365E+04  1.72830E+03 -2.36253E+04  1.04700E+04 -2.28485E+04  1.47339E+04 -1.23394E+04
  1.65616E+04  3.01228E+03  1.10758E+04 -1.65565E+02  9.70218E+03  2.01071E+03  1.22254E+04 -2.26524E+03
  1.85164E+04  5.02192E+03  1.70592E+04  1.47068E+04  1.06164E+04  2.58372E+04 -3.26057E+03  3.21307E+04
 -1.86338E+04  2.51848E+04 -3.17128E+04  1.17614E+04 -3.14966E+04 -2.55276E+03 -2.42562E+04 -1.67731E+04
 -1.28770E+04 -2.88266E+04  1.11180E+04 -1.91167E+04  2.22793E+04 -1.24784E+04  1.29003E+04  4.56263E+03
  6.45924E+03  1.31154E+04 -1.06259E+04  1.72964E+04 -1.59735E+04  3.83536E+03 -1.31953E+04 -6.24652E+03
 -1.76798E+03 -1.86355E+04  6.57042E+03 -9.00137E+03  9.44909E+03 -2.59491E+03  1.12050E+03  9.42478E+03
 -6.19342E+03  4.72721E+02  2.26968E+02 -5.10199E+03  5.66943E+03 -1.82965E+04  1.22664E+04 -1.14245E+04
  1.49374E+04 -3.05414E+03  1.91888E+04  4.27685E+02  1.80178E+04  7.02878E+03  3.90810E+03  1.71731E+04
 -6.55788E+03  1.98384E+04 -1.36658E+04  1.69469E+04 -1.78813E+04 -2.91315E+03 -1.11839E+04 -4.24781E+03
 -3.77559E+03 -8.49961E+03 -5.62297E+01  4.72361E+03 -4.76102E+03  3.00557E+03 -7.29660E+02  1.41104E+03
 -1.23789E+04 -4.26816E+03 -2.18888E+04 -8.39375E+03 -7.79172E+03 -1.59557E+04  8.17237E+03 -1.68479E+04
  7.55059E+03 -3.20914E+03  5.00376E+03  5.80532E+03 -4.16038E+03  3.60480E+02 -6.31967E+03  1.36894E+03
 -5.19668E+03 -7.31642E+03  5.96021E+02 -1.26956E+04  7.79960E+03 -1.04484E+04  1.26547E+04 -8.67595E+03
  1.57067E+04  2.77828E+03  1.70639E+04  1.22598E+04  4.83515E+02  1.29259E+04 -7.25186E+03  1.18227E+04
 -6.40415E+03  4.11848E+03 -4.10816E+03 -1.26347E+03 -5.84256E+02 -1.76634E+03  4.26174E+03  1.00843E+03
  6.46518E+03  6.73020E+02  1.97478E+03  5.98004E+03 -8.86432E+03  4.60686E+03 -8.66501E+03 -3.68166E+03
 -4.49496E+03 -1.33662E+03  2.03938E+03 -3.88579E+03  9.73923E+03 -7.73406E+03  9.37254E+03  5.70083E+03
 -2.12531E+03  4.06017E+03 -7.03284E+03  6.43420E+03 -7.15305E+03  5.98472E+03 -7.89453E+03 -1.25945E+03
 -6.95540E+03 -9.60025E+03 -1.01412E+03 -1.27608E+04  4.61345E+03 -9.90755E+03  8.11297E+03  1.26181E+03
  8.91072E+03  6.46119E+03  1.34212E+03  1.55300E+04 -8.47422E+03  1.19315E+03 -7.92074E+03 -3.09099E+03
 -6.59677E+03 -1.33337E+04 -5.53579E+03 -8.43592E+03  3.80876E+03 -5.90826E+03  7.64619E+03 -4.14054E+03
  6.89390E+03 -3.35119E+03 -1.57776E+02 -1.00754E+03  2.63545E+03 -4.58696E+03  5.75871E+03 -5.80074E+03
  4.33020E+03 -5.27302E+03  9.46711E+03  2.72548E+03  1.37512E+04  5.33075E+03  4.36015E+03  1.24818E+04
 -2.85876E+03  1.62408E+04 -9.46010E+03  1.07220E+04 -1.60526E+04 -1.52539E+03 -1.16986E+04 -7.65761E+03
 -4.83509E+03 -7.41940E+03 -7.98001E+02 -7.53967E+03  5.83755E+03 -6.16556E+03  4.86949E+03 -3.85944E+03
  1.32027E+03 -4.45915E+03  5.06128E+03 -4.11542E+03  2.82880E+03 -3.48840E+03  7.58958E+03  1.91246E+03
  9.69095E+03  1.94396E+03 -5.06435E+03  7.78353E+03 -5.13848E+03 -1.28000E+02 -7.45735E+03  6.68535E+03
 -4.74095E+03 -2.85125E+03 -7.51554E+03 -7.00033E+03 -3.00222E+03 -5.61118E+03  6.25582E+03 -7.89318E+03
  3.81336E+03 -8.83384E+03  8.52688E+03 -3.10594E+03  6.42988E+03  6.04519E+03  4.27944E+03  1.06000E+04
 -7.18895E+02  1.07590E+04 -6.15698E+03  1.53434E+03 -1.57232E+03 -6.19685E+03 -3.70542E+03 -6.00906E+03
 -1.34634E+03  1.63884E+03 -5.62623E+03  3.03532E+03 -1.25387E+03  8.85191E+02 -6.61863E+03 -7.46126E+02
  7.89222E+02 -6.52359E+03 -9.53767E+02 -7.19288E+03  5.25227E+03 -1.00447E+04  3.24230E+03 -3.45248E+03
  1.16324E+04  3.78492E+03  4.01773E+03  5.46863E+03 -3.18887E+02  8.57951E+03 -6.22013E+03  5.65331E+03
 -1.13789E+04  1.50026E+03 -8.91802E+03 -3.53757E+03  1.59560E+03 -8.48548E+03 -1.39470E+02 -3.57916E+03
  2.20515E+03  1.37014E+03  7.05736E+03  3.18141E+03 -5.18204E+02  6.37188E+02  3.20621E+03 -1.20175E+03
 -3.29604E+03 -1.61206E+01  2.98097E+03  1.30002E+03 -1.39997E+03  1.23205E+03  3.10625E+03  5.31960E+03
 -1.87687E+03  5.25458E+03 -1.13388E+03  4.96972E+03 -7.44378E+03 -1.42967E+03 -9.01514E+03  5.25379E+02
 -4.90435E+03 -8.04203E+03  3.92066E+03 -7.64043E+03  1.03673E+02  8.56847E+02  2.63451E+03  7.91684E+02
  3.08583E+03  5.22920E+03  2.92535E+03  4.03937E+03 -3.65731E+03  4.48550E+02 -1.39684E+03 -9.29928E+02
  2.20112E+03 -2.50760E+03 -7.16428E+02  1.68130E+02 -9.03793E+02 -5.04117E+03  2.10558E+03  6.26050E+02
 -2.76820E+03  2.46366E+03  2.20828E+02 -1.58569E+02  2.17720E+03  5.15768E+03  1.22846E+03  1.13199E+03
  5.58404E+03 -4.09589E+03  1.56579E+03  1.71491E+03  1.73703E+03  2.19227E+03  3.09212E+03  4.65549E+03
 -8.58596E+03  7.02823E+03 -9.74764E+03  4.99656E+02 -7.93617E+03 -2.78324E+03 -6.13095E+03 -7.75711E+03
 -2.90314E+03  1.42614E+03  7.34819E+03 -3.10526E+03  2.32534E+03 -1.75982E+03  2.41335E+03  3.34387E+03
 -3.20742E+02  1.92582E+03 -4.08162E+03 -2.92435E+03 -2.46954E+02 -1.81218E+03  1.01571E+03  1.84106E+02
 -1.89978E+03  1.31840E+03  3.50945E+03 -2.21747E+03  3.81378E+03  3.69874E+03 -9.70908E+02  8.00623E+03
 -2.81757E+03  3.74096E+03 -1.01933E+03 -1.21896E+03 -2.03090E+02 -3.52213E+03 -1.59964E+03 -1.63690E+03
  9.41820E+02  2.10738E+03  6.69495E+03  2.15033E+03  1.17688E+02  2.25502E+03 -5.16600E+03  6.37696E+03
 -4.05980E+03  1.59298E+03 -6.23662E+02 -2.07009E+03 -9.82914E+02 -1.60458E+03 -3.59090E+02  2.50230E+03
 -2.11196E+02  1.75142E+03  3.71242E+03  3.29762E+03 -1.27688E+03 -9.39291E+02  5.59635E+01  3.52319E+03
 -1.61686E+03 -3.37200E+03 -1.50559E+03 -2.86365E+02  3.29249E+02  8.70269E+02 -5.74270E+03  3.96291E+03
 -2.11488E+03  1.77915E+03 -3.28666E+03  8.44118E+02 -1.55952E+03 -1.46953E+03  1.07884E+02 -8.62012E+03
 -2.18808E+03  2.71359E+02  3.48384E+03 -1.01370E+04  2.34240E+03 -1.01885E+04  2.48396E+03 -6.89852E+03
  4.69557E+03 -5.99463E+02  5.17967E+03  4.26629E+03 -4.86938E+02  8.39437E+03  3.76517E+02  3.89081E+03
 -2.20206E+03  2.87623E+03 -5.19385E+03 -2.61519E+03 -1.82269E+03  1.54722E+03 -2.69884E+03 -2.11255E+03
  1.40754E+03 -6.73424E+03 -3.19443E+01  1.52561E+03  4.81713E+02 -3.54886E+03 -5.32550E+02 -4.63514E+03
  2.85965E+03 -3.45349E+03 -2.62786E+03  2.34752E+03  1.73896E+03  2.33019E+03 -5.57892E+03  3.00523E+03
 -2.98872E+03  9.66609E+03 -4.99756E+03  6.54859E+03 -7.51089E+03 -1.17170E+03 -2.95445E+03 -7.62998E+03
 -9.79405E+02 -7.99852E+03  4.19771E+02 -6.41780E+03  1.06773E+03  8.46259E+02 -1.47388E+03  6.77334E+02
  3.16282E+03  7.20848E+02  4.98678E+03 -2.12292E+02 -4.69661E+03  1.63285E+03 -1.36541E+02  3.58643E+02
 -1.16614E+03 -1.29319E+03 -4.09408E+03 -2.73311E+03 -1.10795E+03 -1.15721E+03 -3.29234E+03  3.50601E+03
 -7.08364E+02  4.34204E+03 -1.44128E+03  5.36812E+03 -2.56320E+03  2.17355E+02 -1.93631E+03 -3.43178E+03
  6.16594E+02 -1.55204E+03  5.66782E+03  1.57343E+03 -1.48455E+03 -2.38632E+02  1.33665E+03  1.72131E+03
 -4.12574E+03  4.29525E+03  3.79513E+03 -1.27182E+03  2.67787E+03  4.55534E+03 -5.44374E+03 -1.91780E+03
 -1.04648E+03  1.15026E+03 -5.53767E+03 -2.88808E+03  6.78327E+03  3.25392E+03 -7.66145E+03 -2.55599E+03
 -2.72397E+03  1.53777E+03  4.77281E+03 -5.02707E+03  1.66876E+03 -6.51832E+03  3.82945E+03 -4.10329E+03
  2.02329E+03 -4.24624E+01  2.14559E+03  1.59279E+03  4.91828E+02  3.11578E+02 -6.10604E+03  2.76190E+03
