 $NMID ID='MM_0lb_SNR50_20hz_g55_37.RAW', FMTDAT='(8E13.5)'
 TRAMP=1., VOLUME=1. $END
  3.11773E+05 -1.59617E+03  3.36359E+05  2.48646E+05  8.34039E+04  3.39119E+05 -1.30454E+05  2.48402E+05
 -1.86251E+05  8.16876E+04 -1.13267E+05 -3.37132E+04 -4.59056E+02 -5.39204E+04  5.18605E+04 -4.72395E+02
  3.65614E+04  5.05105E+04 -2.05843E+04  7.23696E+04 -6.10964E+04  6.10692E+04 -8.71301E+04  2.86188E+04
 -7.83713E+04 -1.40260E+04 -5.17882E+04 -4.86682E+04 -1.41509E+04 -6.98405E+04  2.91423E+04 -4.61482E+04
  4.38272E+04  5.88555E+03  1.61466E+04  4.99237E+04 -3.46604E+04  4.87367E+04 -6.68508E+04  2.05598E+02
 -5.44834E+04 -5.68136E+04 -5.13603E+03 -7.61747E+04  3.52885E+04 -5.56583E+04  4.64719E+04 -1.87859E+04
  4.14952E+04  9.67090E+03  3.47202E+04  2.20405E+04  1.56621E+04  2.96380E+04 -6.71672E+03  2.27952E+04
 -1.84324E+04  1.15204E+04 -2.16588E+04 -1.59695E+03  2.30802E+03 -9.18203E+03  2.17372E+04  8.89605E+03
  7.58588E+03  3.24407E+04 -3.22052E+04  3.26205E+04 -6.13139E+04  2.23990E+03 -5.38036E+04 -4.49555E+04
 -1.04754E+04 -6.15252E+04  3.89420E+04 -4.27036E+04  5.88485E+04  1.05698E+03  2.89455E+04  3.04256E+04
 -6.00679E+03  3.23260E+04 -2.97007E+04  8.56169E+03 -3.03892E+04 -6.04197E+03 -1.65646E+04 -1.17268E+04
 -6.38593E+03 -7.97087E+03 -2.65973E+02 -1.42543E+04  1.08977E+04 -2.22198E+04  1.16831E+04 -1.43365E+04
  1.55242E+04  1.04862E+04 -5.62022E+03  1.05337E+04 -1.46582E+04 -2.70945E+03 -8.56440E+03 -2.85043E+04
  2.13329E+04 -4.28883E+04  4.16120E+04 -1.79125E+04  4.65246E+04  1.68954E+04  1.35822E+04  4.20087E+04
 -1.71883E+04  3.28871E+04 -2.37006E+04  2.38197E+03 -9.52472E+03 -2.51559E+04  2.18599E+04 -3.02488E+04
  3.53378E+04 -1.16281E+04  3.01493E+04  2.44638E+04  1.59416E+04  3.93163E+04 -6.33917E+03  4.03878E+04
 -2.84597E+04  2.74477E+04 -3.83654E+04  9.65536E+03 -4.19244E+04 -1.73887E+04 -2.22288E+04 -3.49493E+04
  1.03234E+04 -3.43560E+04  3.20909E+04 -1.32862E+04  2.73058E+04  9.93330E+03  4.77467E+03  1.91764E+04
 -1.25290E+04  5.52597E+03 -8.54739E+03 -1.18049E+04  6.23685E+03 -8.02260E+03  1.41007E+04  4.69790E+03
  1.77516E+04  2.36627E+04 -5.27550E+03  2.62406E+04 -2.00251E+04  6.19500E+03 -2.94442E+04 -3.02458E+03
 -1.65699E+04 -1.52389E+04 -7.61354E+03 -1.44916E+04  4.05687E+03 -9.95354E+03  1.25319E+04 -1.72970E+04
  2.06199E+04 -1.06326E+04  3.01222E+04  2.05601E+03  2.08327E+04  1.65576E+04  2.83685E+03  3.26875E+04
 -1.61869E+04  3.04318E+04 -2.78185E+04  6.20442E+03 -1.96659E+04 -9.47494E+03 -4.39709E+03 -1.96924E+04
  5.69730E+03 -4.51951E+03 -4.63784E+03  6.79927E+03 -1.43317E+04  5.88462E+03 -1.56604E+04 -3.89034E+03
 -4.69923E+03 -1.41708E+04  5.42914E+03 -2.09208E+04  7.50151E+03 -1.52852E+04  1.49438E+04 -1.22321E+03
  1.15415E+04  1.02145E+04  2.43081E+02  1.54943E+04 -1.16221E+04  9.70392E+03 -1.03720E+04 -2.48019E+02
 -1.72454E+04 -1.78632E+04 -2.60263E+03 -1.37301E+04  6.32354E+03 -1.67702E+04  1.62940E+04 -6.29790E+03
  1.22071E+04 -2.87150E+03  1.03671E+04  5.60060E+03  3.92323E+03  1.74607E+03  4.61154E+03  6.57772E+01
  1.42633E+04  2.04594E+03  1.10481E+04  1.14003E+04  5.08180E+03  2.16432E+04 -1.97264E+03  2.67333E+04
 -1.21707E+04  1.80759E+04 -2.31448E+04  1.05770E+04 -2.37205E+04 -1.80304E+03 -2.00213E+04 -1.41235E+04
 -3.89011E+03 -1.80110E+04  6.40597E+03 -1.74145E+04  1.47792E+04 -1.17167E+04  1.23665E+04 -9.34792E+02
  4.24403E+03  7.19141E+03 -7.25096E+03  1.14045E+04 -1.25779E+04  3.21656E+03 -7.46756E+03 -6.96110E+03
  1.04383E+03 -1.26009E+04  7.63874E+03 -8.45821E+03  8.51779E+03  3.23953E+02  5.74063E+02  4.23926E+03
 -3.33895E+03  2.78509E+03 -3.95767E+03 -1.76139E+03  1.88365E+03 -1.13661E+04  3.33987E+03 -7.39659E+03
  1.14600E+04 -1.82722E+03  8.36302E+03  1.20469E+03  7.99848E+03  8.58889E+03  1.32506E+03  1.41100E+04
  2.33086E+03  1.44791E+04 -7.76904E+03  1.16777E+04 -1.23195E+04  4.85211E+03 -1.60467E+03 -1.53879E+03
 -3.90345E+03 -5.80125E+03 -2.61260E+03  2.89653E+03 -3.32017E+03  2.52601E+03 -6.55053E+03  4.38713E+03
 -9.21810E+03 -5.82892E+02 -1.17975E+04 -8.66712E+03 -6.95161E+03 -1.07719E+04  1.38771E+02 -9.55494E+03
  1.07085E+04 -3.81757E+03  1.10053E+04  8.24797E+03 -8.85902E+02  2.82417E+03 -5.17102E+03 -1.07616E+03
 -3.33949E+03 -3.52321E+03  2.67351E+02 -1.25360E+03  3.33912E+03 -7.65288E+03  1.02857E+04 -9.04694E+03
  1.49752E+04 -2.74574E+02  6.70841E+03  7.58618E+03 -3.73004E+02  5.31827E+03 -3.29228E+03  5.97207E+03
 -9.32033E+03  2.99885E+03 -3.39080E+03 -1.74104E+03 -6.34908E+01 -3.54191E+03  3.87771E+03 -4.75494E+03
  5.08115E+03  4.78420E+03 -4.88977E+02  1.12739E+04 -4.10410E+03  6.40945E+03 -9.07149E+03  3.26543E+03
 -6.92485E+03 -6.13078E+03 -6.16883E+02 -3.90310E+03  2.28630E+03 -4.82779E+03  2.59870E+03  3.13739E+02
  4.59406E+02  1.15689E+03 -6.68053E+03  4.87185E+03 -6.07937E+03  4.31943E+03 -4.90873E+03  2.34812E+03
 -4.32644E+03 -9.38189E+03  3.57364E+03 -3.37259E+03  7.77290E+03 -5.67388E+03  4.21741E+03  3.10039E+03
  6.08848E+03  6.09047E+03 -4.31359E+02  1.02788E+04 -1.89294E+03  9.96096E+02 -5.45638E+03 -3.93828E+03
 -6.27009E+03 -5.35019E+03 -1.74318E+03 -1.05140E+03  3.65006E+03 -4.76862E+03  1.61739E+03 -2.60119E+03
  8.01418E+02 -1.64171E+03  3.34212E+03 -3.84553E+02  2.38384E+03 -9.98471E+01  2.45529E+03  2.27709E+03
  4.34970E+03  2.05507E+03  1.73109E+03  3.23822E+02  6.73366E+03  2.44145E+03  7.56485E+03  3.24465E+03
  1.64172E+03  8.39807E+03 -6.87258E+03  1.12944E+04 -7.89577E+03 -6.60548E+02 -5.70184E+03 -1.43623E+02
 -5.37206E+03 -7.41409E+03  1.60888E+02 -6.66635E+03  4.55690E+03 -4.34154E+03  9.77855E+02 -2.43797E+03
  1.95218E+02 -2.31292E+03  1.81581E+03 -3.70739E+03  2.71124E+03 -2.11529E+02  8.94916E+03 -2.74112E+03
  7.35958E+03  5.93873E+02  3.30648E+03  3.28006E+03 -2.85353E+01  3.64557E+03 -5.10298E+03  4.78224E+03
 -4.34443E+03  7.42596E+01 -1.28995E+03 -5.24279E+02  2.14029E+03 -6.27737E+03  1.98720E+03 -5.68978E+03
  5.01428E+03 -2.79874E+03  7.22826E+03  1.95670E+03  7.24831E+03  3.02299E+03  1.17271E+03  3.28126E+03
 -1.04507E+03  4.96417E+03 -1.83626E+03  3.63852E+03 -2.31981E+03 -1.29983E+03  6.61797E+02  4.49506E+01
  3.38745E+02  1.18177E+03 -3.75768E+03  4.53132E+03 -6.85086E+03 -2.66358E+02 -5.76186E+02 -1.78172E+02
 -4.23936E+03 -2.26986E+03  3.28470E+03 -4.62260E+03  4.97621E+02 -2.92963E+03  3.87269E+03 -2.78840E+02
  6.36484E+03  3.15594E+02  3.46022E+03  3.82562E+03  3.13959E+03  5.51484E+03 -1.10520E+03  1.54651E+03
 -3.90924E+03 -1.29892E+03  1.06184E+02  2.19944E+03  2.10769E+03  4.56111E+02  3.33254E+03 -7.10633E+02
  1.99143E+03  2.45061E+03  2.85074E+03  5.66897E+02  9.63373E+02  4.28855E+03  8.39841E+02 -1.47069E+03
  7.92471E+03 -1.76577E+03  2.00141E+01  1.05265E+03 -5.66468E+02  5.66132E+02 -7.70300E+02  1.38621E+03
  1.54195E+03  3.89903E+03 -3.13710E+03  1.65464E+03  7.20464E+01  1.30770E+03  7.15821E+01  7.55999E+01
 -1.88440E+03 -3.31049E+03  1.56311E+03 -4.98764E+03  4.37904E+03 -5.76363E+02  1.77683E+03  1.01445E+01
 -1.99580E+03  2.78910E+03  7.08920E+03 -2.40280E+03 -3.75762E+02  4.62387E+03 -3.17244E+03  8.45470E+02
 -2.45665E+03 -5.62848E+03  5.32903E+02 -5.54030E+03  1.69151E+02  7.73610E+02  1.34610E+02 -1.57996E+03
 -2.33979E+02  1.29343E+03 -1.04046E+03 -1.18985E+03 -3.87390E+03  1.78123E+03  1.13536E+03 -2.53957E+03
 -2.27701E+03 -2.59092E+02  9.75480E+02  6.10012E+03 -2.26114E+03  3.56776E+03  2.47228E+03  3.27841E+02
 -3.46833E+03 -1.90351E+03 -9.07285E+02  4.37706E+03  1.83046E+03 -7.19303E+03  8.76152E+02 -2.48984E+03
 -2.65517E+03 -2.17208E+03 -2.73266E+03  1.60503E+03 -4.04836E+03 -1.58008E+03 -1.86623E+03  1.16548E+03
 -5.10588E+02 -4.66056E+02  1.66524E+03  1.24879E+03 -2.54352E+03  2.30484E+02  2.83456E+03 -2.82638E+03
 -4.78579E+03 -1.48632E+03  1.70725E+02  1.66231E+03  4.12961E+03  9.76437E+02  1.61349E+03  2.15982E+03
 -4.19343E+03 -2.66840E+03  6.02896E+02 -3.36648E+03  1.01364E+03 -7.11414E+02 -1.88239E+02 -1.60505E+03
  2.78904E+03  2.08007E+03  9.59189E+02  1.65806E+03  7.35673E+02 -4.41152E+02  4.80944E+02  1.91612E+03
 -7.41539E+02 -1.92439E+03 -4.46927E+03 -2.74684E+03  1.92568E+02 -1.25524E+03 -9.78848E+02 -3.64216E+03
  8.00735E+02 -2.13469E+03  4.45463E+02 -1.48586E+02  1.55404E+03  1.75568E+03  2.76890E+03 -1.31173E+03
 -3.28784E+02  2.62378E+03  3.73943E+02  1.15232E+03 -2.15390E+03  1.70669E+03 -1.45711E+03  2.14236E+03
  2.07520E+03  1.29491E+03 -2.67055E+03  1.57879E+03 -3.33329E+03  1.82742E+03 -9.01395E+02  3.14017E+03
 -3.47153E+03 -4.25748E+01  6.26935E+02 -1.34425E+01  4.74879E+03 -4.82968E+03  5.73021E+03 -4.50745E+03
 -2.00679E+03  7.76886E+02  9.28842E+02 -5.23006E+02 -7.02005E+03  2.58462E+03 -4.28233E+02 -2.05576E+02
 -3.63440E+03  1.11626E+02 -4.73397E+03 -9.74767E+01  1.08625E+03  1.12448E+03  1.19626E+03 -4.85919E+02
 -2.16564E+03  1.75261E+03 -3.98722E+03 -4.88285E+03  1.74241E+02 -2.08597E+03 -1.02175E+03  1.33599E+03
 -1.44534E+03 -9.73752E+02  4.76481E+03 -3.10393E+03  3.30192E+02  3.68679E+03 -2.47479E+03  8.63560E+02
  8.43431E+02  4.13096E+03 -3.05390E+03  4.87737E+03 -3.71560E+03 -9.85411E+02 -1.56788E+03 -7.79405E+02
 -1.58417E+03  2.60469E+02  3.67489E+03 -1.20554E+02 -9.06701E+02 -3.65698E+02  1.25687E+03 -4.82511E+02
 -5.76283E+01  3.40364E+03  1.06829E+03 -4.95015E+02  2.81000E+02 -7.20205E+02  3.55704E+03 -1.82407E+02
 -1.52872E+03 -4.10958E+03 -3.29984E+03  3.77914E+02 -2.77311E+03 -3.45588E+02  4.78025E+03  3.25814E+03
  2.97228E+02 -2.04635E+03 -8.47368E+02 -1.46353E+03 -1.53749E+03  3.11901E+03  7.92161E+02 -3.04852E+03
  1.80474E+03  1.69080E+03  2.33182E+03 -2.60579E+03 -8.68644E+02 -1.91882E+03  6.79170E+02  3.47004E+03
  3.24270E+03  1.08036E+03 -3.91843E+03 -2.63875E+03  2.66570E+03 -2.15799E+03  4.71950E+02 -3.71644E+03
 -9.01308E+02 -4.06975E+03 -2.90989E+03  7.72102E+01 -1.24525E+03  1.37529E+03 -2.38064E+03 -4.28021E+03
 -2.95016E+03  1.09243E+03  2.02387E+03  1.74400E+03  6.07162E+02 -5.25911E+03 -1.00780E+03  8.79081E+02
 -9.60564E+02 -1.35556E+03 -3.13368E+03  6.00303E+03  2.01129E+03  6.67147E+02 -1.30806E+03  8.16682E+02
