 $NMID ID='MM_0lb_SNR50_14hz_g50_68.RAW', FMTDAT='(8E13.5)'
 TRAMP=1., VOLUME=1. $END
  3.09243E+05  2.86706E+03  3.36725E+05  2.48867E+05  8.62560E+04  3.37573E+05 -1.33309E+05  2.52752E+05
 -1.91026E+05  8.21281E+04 -1.09565E+05 -3.20613E+04  2.54224E+03 -4.79515E+04  5.60286E+04  3.00748E+03
  3.87865E+04  5.67337E+04 -1.49421E+04  7.59650E+04 -5.92724E+04  6.57975E+04 -8.60710E+04  2.72856E+04
 -8.04008E+04 -1.45687E+04 -5.19717E+04 -5.15968E+04 -1.94187E+04 -7.21287E+04  2.84602E+04 -4.72597E+04
  4.07024E+04  6.76035E+03  1.73765E+04  4.24302E+04 -3.42675E+04  4.82129E+04 -6.80270E+04  2.48964E+03
 -5.38905E+04 -5.74326E+04 -7.72648E+03 -7.69999E+04  3.43486E+04 -5.72685E+04  4.95104E+04 -1.38157E+04
  4.35854E+04  1.35672E+04  3.70226E+04  2.41637E+04  1.34269E+04  3.16453E+04 -6.15139E+03  3.20719E+04
 -2.30469E+04  1.11216E+04 -1.42997E+04 -4.71138E+03  2.00207E+03 -2.39761E+03  2.43930E+04  1.62624E+04
  6.21023E+03  3.52691E+04 -3.58731E+04  3.95452E+04 -6.44916E+04  5.39458E+03 -6.20492E+04 -4.30524E+04
 -1.20760E+04 -6.46205E+04  4.09000E+04 -4.32361E+04  5.90210E+04 -1.44597E+03  3.55649E+04  3.02218E+04
 -3.27859E+03  3.56085E+04 -3.46575E+04  1.13767E+04 -3.11576E+04 -7.91438E+03 -1.93560E+04 -1.24575E+04
 -7.85221E+03 -9.54983E+03 -1.68428E+03 -1.42693E+04  6.39193E+03 -2.59510E+04  1.67740E+04 -1.39158E+04
  8.91793E+03  5.31728E+03 -5.97362E+03  1.03826E+04 -2.42064E+04 -6.76902E+03 -8.58431E+03 -3.22272E+04
  2.27213E+04 -4.32931E+04  4.93645E+04 -1.35930E+04  4.23754E+04  2.14455E+04  1.91066E+04  4.24296E+04
 -1.34521E+04  3.00971E+04 -2.58297E+04  1.25298E+03 -5.87606E+03 -2.88326E+04  2.03253E+04 -3.59067E+04
  4.51349E+04 -8.64499E+03  3.63093E+04  2.46079E+04  1.50568E+04  4.62453E+04 -4.76892E+03  4.87842E+04
 -3.15675E+04  3.63413E+04 -4.22450E+04  5.41175E+03 -4.38466E+04 -1.91613E+04 -2.18863E+04 -3.87403E+04
  8.54332E+03 -3.92014E+04  2.94516E+04 -1.76225E+04  3.42769E+04  7.88498E+03  6.77397E+03  1.71960E+04
 -9.29659E+03  8.36306E+03 -8.66832E+03 -6.49719E+03  6.69863E+03 -1.08305E+04  1.61337E+04  3.60017E+03
  8.40246E+03  2.38198E+04 -9.97873E+03  2.57807E+04 -1.98247E+04  9.87527E+03 -2.82167E+04 -1.50727E+03
 -1.59082E+04 -1.35152E+04 -1.08425E+04 -1.77957E+04  4.77758E+03 -1.70041E+04  1.41034E+04 -1.68930E+04
  2.51254E+04 -1.34245E+04  3.16713E+04  4.18936E+03  1.97217E+04  2.08961E+04  3.50971E+03  3.72634E+04
 -1.83927E+04  2.92578E+04 -2.36886E+04  1.18914E+04 -2.31741E+04 -5.90510E+03 -6.94539E+03 -1.19273E+04
 -5.83321E+03  4.43610E+03 -4.85306E+03  8.98730E+03 -2.23327E+04  5.09456E+03 -1.53468E+04 -1.17698E+04
 -8.30936E+03 -1.73400E+04  1.14321E+04 -2.02279E+04  1.52188E+04 -1.42827E+04  1.48714E+04 -4.99819E+02
  1.01536E+04  1.55837E+04  6.23778E+03  1.47124E+04 -1.18596E+04  9.41901E+03 -1.57627E+04  1.20135E+03
 -1.42331E+04 -1.62632E+04  4.12972E+01 -2.53070E+04  1.39563E+04 -1.99248E+04  2.05265E+04 -7.00224E+03
  1.82232E+04  3.85699E+03  1.07056E+04  2.33449E+03  9.78251E+03  5.93306E+03  1.15032E+04 -1.54219E+03
  1.97430E+04  3.22243E+03  1.72871E+04  2.06412E+04  9.38389E+03  2.72218E+04  4.70397E+03  3.42861E+04
 -1.80252E+04  2.99295E+04 -3.35276E+04  1.02126E+04 -4.02256E+04 -5.88464E+03 -2.87006E+04 -1.96039E+04
 -1.18951E+04 -2.80687E+04  1.21891E+04 -2.64170E+04  2.64432E+04 -1.02414E+04  1.63587E+04  2.43617E+03
  4.45075E+03  1.25036E+04 -9.08798E+03  1.45115E+04 -1.89356E+04  6.10703E+03 -1.24278E+04 -1.25851E+04
 -1.96441E+03 -1.95576E+04  9.00771E+03 -1.53472E+04  9.97887E+03 -3.82670E+03 -9.79514E+02  3.61532E+03
 -9.29761E+02  3.65828E+03 -8.62033E+03 -1.55062E+03  1.39232E+02 -1.44339E+04  8.14534E+03 -1.31547E+04
  1.34820E+04 -6.89820E+03  2.16695E+04  4.78502E+03  1.62432E+04  1.37434E+04  8.03581E+03  2.19229E+04
 -4.07346E+03  2.06794E+04 -9.46712E+03  1.42541E+04 -1.63028E+04  3.22938E+03 -9.88556E+03 -6.32694E+03
 -4.92414E+03 -7.82169E+03  3.62488E+03 -9.31251E+02 -5.78238E+03 -5.41245E+02 -1.09979E+03  1.04761E+04
 -1.61297E+04 -1.32560E+03 -1.15088E+04 -1.12590E+04 -2.54558E+03 -1.30419E+04  9.34745E+03 -1.44134E+04
  1.32198E+04 -6.00359E+03  6.89794E+03  6.01097E+03  4.12823E+03  6.13585E+03 -8.27750E+03  2.42007E+03
 -7.02436E+03 -9.26659E+03  3.91292E+03 -8.40367E+03  5.67192E+03 -1.04750E+04  1.47564E+04 -4.53956E+03
  1.43343E+04 -1.15344E+03  8.79085E+03  7.88582E+03 -9.56500E+02  1.07812E+04 -5.46803E+03  9.38375E+03
 -6.69940E+03  3.08803E+03 -5.40723E+03 -1.12606E+02  3.81412E+03 -5.01444E+02  1.35220E+03  1.55967E+03
  5.99580E+03  5.35865E+03  3.61014E+03  8.37087E+03 -6.16204E+03  8.41846E+03 -1.15378E+04  1.66708E+03
 -1.95959E+03 -2.99202E+03 -5.19401E+02 -1.32707E+04  4.09932E+03 -3.82964E+03  4.58007E+03  3.34437E+03
 -3.46296E+02  9.71350E+03 -6.16161E+03  6.68106E+03 -1.40781E+04  3.97317E+02 -2.44943E+03 -4.45307E+03
 -5.71247E+03 -9.49859E+03  2.34571E+03 -1.29608E+04  1.08530E+04 -8.27925E+03  9.57477E+03  1.44363E+03
  6.59423E+03  7.37341E+03 -5.23254E+03  8.15507E+03 -7.17207E+03  3.79081E+03 -8.51788E+03  1.39543E+02
 -5.66780E+03 -8.13229E+03 -8.14742E+02 -6.22284E+03  1.06595E+03 -8.38110E+03  6.97189E+03 -2.45901E+02
  5.65123E+03  4.53083E+03  2.38128E+03  3.80355E+03  4.27869E+02  2.78859E+03  3.94556E+03 -8.48671E+03
  7.03917E+03 -1.21222E+03  8.96357E+03  3.37886E+03  8.27396E+03  5.39836E+03  1.01344E+04  1.46342E+04
 -1.16348E+03  1.97230E+04 -7.83528E+03  1.31374E+04 -1.81237E+04  6.41308E+03 -1.29728E+04 -6.18232E+03
 -1.27268E+04 -6.86129E+03  1.93631E+03 -1.13181E+04  4.74702E+03 -7.12243E+03 -4.46113E+03 -4.82676E+03
  3.86015E+03 -7.03107E+03  6.20661E+03 -9.43012E+03  6.85570E+03 -6.24952E+03  7.35500E+03 -3.24212E+03
  9.50586E+03  4.29853E+03 -2.19677E+02  5.87442E+03 -2.06147E+03  6.59458E+03 -7.22750E+03  4.52401E+03
 -7.33046E+03 -3.80149E+03 -5.24065E+03 -6.76547E+03 -1.28147E+03 -5.69765E+03  6.59277E+03 -9.67622E+03
  8.39403E+03 -5.09154E+03  9.80118E+03  3.38066E+03  6.51874E+03  1.06473E+04  3.17454E+03  9.66728E+03
 -3.80362E+03  1.01981E+04 -1.17177E+04 -2.27484E+03 -2.00462E+03  5.05907E+02  2.01905E+03 -2.52038E+03
 -3.99814E+03  4.87446E+03 -8.56022E+02  2.92687E+03 -4.78270E+03  5.94792E+03 -4.11275E+03  3.38813E+02
 -7.98337E+02 -3.27916E+03 -1.54968E+03 -7.70554E+03  2.97481E+03 -6.40029E+03  5.57867E+03 -3.43847E+03
  9.53259E+03  4.55901E+03  5.29304E+03  6.73363E+03 -2.48759E+03  8.01172E+03 -7.83803E+03  8.63922E+03
 -1.00907E+04  4.53829E+03 -4.37899E+03 -7.14486E+03 -3.54978E+03 -8.40055E+03 -3.48469E+03 -4.35650E+03
  4.70021E+03 -2.92156E+03  1.44725E+03  5.54348E+03  2.31040E+03  4.38515E+03 -2.51122E+03 -5.54050E+01
  6.12619E+03 -2.11417E+03  3.66644E+03  1.30785E+02  8.11210E+02  3.71135E+03  1.17923E+03  1.19867E+03
 -3.66806E+03  6.89616E+03 -4.91170E+03  7.38727E+03 -1.36801E+04  3.04917E+03 -1.36433E+04 -3.40013E+03
 -5.07873E+03 -1.33940E+04  8.58127E+01 -1.34928E+04  6.04388E+03 -6.44001E+03  1.05879E+03 -2.73943E+03
  5.97414E+03  1.45049E+03  3.71684E+03  5.19725E+03  1.62825E+03  5.47906E+02 -2.19364E+03  5.24405E+03
  1.45969E+03 -4.45456E+03  5.03462E+03 -3.82882E+03  6.89355E+03 -5.62143E+03  6.75631E+02  1.03552E+03
  2.62228E+03 -5.07654E+03 -2.29712E+03  2.67118E+03 -4.57282E+02  7.05474E+01  8.00496E+03 -1.27893E+03
  3.40598E+03 -4.53156E+03  4.61118E+03  1.87664E+03  3.58040E+03  3.38065E+03  1.45556E+03  6.61845E+03
 -1.08821E+03  1.87231E+03 -3.04994E+03 -2.12186E+03 -1.57698E+03  1.07905E+03  2.52192E+03 -1.60275E+03
 -8.00659E+03 -1.13587E+03  2.77598E+03 -1.25259E+03  3.33966E+03  5.87984E+03  3.05174E+02  5.88175E+03
 -5.69631E+03 -9.21756E+02 -2.93552E+03 -1.70733E+03 -5.38288E+03 -9.45405E+02  1.54228E+03 -3.38452E+03
  3.58787E+03 -1.38701E+03  1.63291E+03 -3.61728E+03  7.47001E+03 -2.20295E+03 -9.10244E+02  1.81020E+03
  1.62249E+03 -1.34835E+03 -1.26035E+03 -5.31153E+02  1.04650E+03 -8.13339E+03  3.18729E+02 -3.40906E+03
  2.43396E+03  2.24449E+03  9.55782E+03  6.89526E+03  4.01569E+02  5.03331E+02 -3.69396E+03  3.41934E+03
 -4.13353E+03  1.28631E+03  4.62057E+02 -2.84463E+03 -4.39752E+03 -2.42895E+03  1.76616E+03 -5.00659E+03
  3.26743E+03 -3.75051E+03  4.93825E+02 -4.68520E+02  6.79445E+02  1.33366E+03 -6.66125E+01  4.17472E+03
 -4.95733E+03  7.16792E+03  2.07927E+03  6.42692E+03  1.05243E+03  1.20693E+03 -6.01436E+02  3.19360E+03
 -9.34424E+02  3.17204E+03  2.88271E+03 -2.45658E+02 -3.53522E+03 -2.25390E+03 -5.09999E+03 -8.93738E+02
 -3.66168E+03 -9.40762E+03  1.16929E+03 -5.31009E+03  6.95067E+03 -2.19390E+03 -1.74116E+02 -3.16929E+03
  9.47752E+03  4.58034E+03 -2.23350E+03  1.29886E+03 -2.16093E+03  1.26996E+03 -4.10787E+03  4.75541E+03
 -4.28039E+03  1.70083E+03  1.99578E+03  2.55018E+03 -5.91226E+02 -1.06968E+03 -5.36948E+02 -3.37568E+03
 -1.89010E+03  4.21131E+03 -1.25271E+03  5.28566E+03 -4.16854E+02  1.82546E+03 -1.14140E+03 -6.69340E+03
  7.34221E+02 -2.32943E+03  1.89968E+03 -1.83655E+03  1.81155E+03  9.18610E+01  1.46069E+03  9.05611E+03
 -3.56955E+03  1.94683E+03 -2.48040E+03  5.10945E+03 -5.80246E+03  9.15377E+02 -3.41435E+03 -3.95006E+03
 -1.88391E+03 -2.96783E+03 -2.37710E+02 -4.59703E+03  6.70675E+03  1.15147E+03  5.37020E+03 -7.07934E+03
  7.77627E+02 -5.55071E+02  6.52614E+03 -3.20251E+02 -2.67774E+03 -1.37706E+03 -2.93061E+03  3.03802E+03
 -3.75713E+02 -4.50236E+03  9.50170E+02  2.02077E+03  2.63650E+03  4.93396E+03 -1.58992E+03  4.40026E+03
 -5.97006E+02  1.35203E+03  8.45034E+02 -5.32288E+02  1.01069E+02 -2.18206E+03 -9.63264E+02 -1.15847E+03
  3.42551E+03  9.98072E+02 -2.33532E+03  4.45210E+03  7.02821E+02 -4.36613E+03 -3.73765E+03 -7.34224E+01
  5.56536E+02  3.01170E+03 -3.71101E+03 -6.41578E+02  8.38675E+02  5.15857E+03  1.96060E+03 -2.66615E+02
 -4.26546E+03 -3.66302E+03 -3.43245E+03  2.00099E+03  2.97523E+02  9.20995E+02  1.44429E+03 -1.61344E+03
 -6.61076E+02 -3.97873E+02 -4.91448E+03 -7.56828E+02  3.19381E+03 -3.08013E+03  7.62488E+02 -8.34657E+02
  3.10184E+03  1.27226E+02  5.98628E-01 -3.06583E+03 -3.30310E+02  3.90862E+03 -5.71637E+02 -2.96878E+02
