 $NMID ID='MM_0lb_SNR50_17hz_g55_14.RAW', FMTDAT='(8E13.5)'
 TRAMP=1., VOLUME=1. $END
  3.08331E+05  1.95912E+03  3.35810E+05  2.48531E+05  8.46159E+04  3.41869E+05 -1.32005E+05  2.50974E+05
 -1.87314E+05  7.69931E+04 -1.11118E+05 -3.20897E+04 -2.07766E+03 -4.38312E+04  5.67736E+04 -2.18438E+03
  4.20073E+04  5.49863E+04 -1.89059E+04  7.34867E+04 -5.88308E+04  6.48852E+04 -8.81217E+04  3.00415E+04
 -7.95779E+04 -9.94590E+03 -5.41970E+04 -4.88684E+04 -1.38150E+04 -7.11536E+04  2.75790E+04 -4.59579E+04
  4.35275E+04  9.17299E+03  1.88545E+04  4.69408E+04 -3.80622E+04  4.90649E+04 -6.94850E+04  4.33036E+03
 -5.06323E+04 -5.58365E+04 -5.49271E+03 -7.42735E+04  3.43581E+04 -5.19922E+04  4.44622E+04 -1.47022E+04
  4.65777E+04  1.15980E+04  2.87738E+04  2.46505E+04  1.76078E+04  2.49569E+04 -5.36386E+03  2.67521E+04
 -2.48408E+04  1.38762E+04 -2.13312E+04 -4.11595E+03  1.18322E+04 -7.25331E+03  2.00060E+04  9.58150E+03
  4.01951E+02  3.66254E+04 -3.41876E+04  3.16628E+04 -5.91330E+04  5.82108E+03 -5.91298E+04 -4.03984E+04
 -1.49207E+04 -6.13072E+04  3.84058E+04 -4.68780E+04  6.26822E+04 -3.55054E+03  3.11889E+04  3.39560E+04
 -5.68603E+03  3.46755E+04 -3.27666E+04  1.43586E+04 -2.47369E+04 -6.30875E+03 -1.72825E+04 -1.02078E+04
 -9.96215E+03 -8.56734E+03 -6.14127E+03 -1.62544E+04  6.82836E+03 -2.22201E+04  1.85783E+04 -1.49591E+04
  1.50008E+04  3.23931E+03 -6.25769E+03  1.18663E+04 -2.27672E+04 -3.89437E+03 -5.34945E+03 -3.69282E+04
  2.25179E+04 -4.53999E+04  4.73586E+04 -1.94459E+04  4.41046E+04  1.32448E+04  1.45931E+04  4.06480E+04
 -1.69142E+04  3.29065E+04 -2.98346E+04  2.90899E+03 -1.34892E+04 -3.18705E+04  1.75186E+04 -2.96729E+04
  4.24028E+04 -6.69994E+03  3.23953E+04  2.32876E+04  1.55368E+04  4.35241E+04 -1.05648E+04  4.95559E+04
 -2.90596E+04  3.01647E+04 -4.25371E+04  8.43467E+03 -3.89935E+04 -1.44334E+04 -2.22662E+04 -3.36547E+04
  6.31743E+03 -3.29293E+04  3.17859E+04 -1.31505E+04  2.86859E+04  1.19537E+04  4.59866E+02  2.00575E+04
 -1.62277E+04  3.75307E+03 -9.99651E+03 -8.00328E+03  5.89487E+03 -1.16262E+04  2.13028E+04  5.01213E+03
  1.25546E+04  2.31533E+04 -4.95952E+03  2.46363E+04 -2.02403E+04  8.04703E+03 -2.42867E+04 -5.70988E+03
 -2.18622E+04 -1.61446E+04 -7.53864E+03 -2.17222E+04  4.65663E+03 -1.47248E+04  1.50915E+04 -1.30743E+04
  2.55016E+04 -1.54436E+04  3.10440E+04  3.17041E+03  2.02059E+04  1.88768E+04  3.15383E+03  3.60514E+04
 -1.73253E+04  3.16882E+04 -2.28040E+04  1.03549E+04 -2.04727E+04 -1.11283E+04 -4.75678E+03 -1.01917E+04
  2.50887E+03 -1.04043E+03 -8.06006E+03  6.23503E+03 -1.43429E+04  2.02630E+03 -1.45906E+04 -5.38177E+03
 -6.12665E+03 -1.88711E+04  7.52045E+03 -2.20035E+04  1.64633E+04 -1.26440E+04  1.62778E+04  3.07866E+02
  1.08128E+04  9.39957E+03 -8.10110E+02  1.37718E+04 -1.24411E+04  1.02069E+04 -1.48990E+04  1.58329E+03
 -1.34654E+04 -1.69212E+04 -4.48995E+03 -2.16287E+04  6.52164E+03 -1.84685E+04  1.71716E+04 -1.17291E+04
  1.42908E+04 -1.74709E+03  1.39323E+04  7.98567E+03  8.81960E+02  1.22167E+03  8.05921E+03 -1.76826E+03
  1.38760E+04  3.89070E+03  1.34026E+04  1.08576E+04  9.70581E+03  2.43472E+04 -3.70417E+03  3.25057E+04
 -1.75938E+04  2.71461E+04 -2.93365E+04  6.28227E+03 -2.93977E+04 -3.77535E+03 -2.11124E+04 -1.56326E+04
 -8.22276E+03 -2.32984E+04  6.65439E+03 -2.08153E+04  1.88841E+04 -1.07935E+04  1.43333E+04  8.20321E+03
  9.17508E+03  1.11226E+04 -1.23471E+04  1.26231E+04 -1.65351E+04  4.84556E+03 -1.34024E+04 -8.84836E+03
 -2.93045E+03 -1.31790E+04  7.24644E+03 -1.04972E+04  6.54947E+03 -1.30954E+03  2.56216E+03  3.41581E+03
 -2.65006E+03  3.41363E+03 -4.00589E+03 -5.70979E+03  6.26848E+03 -1.10986E+04  1.08043E+04 -1.29089E+04
  1.52417E+04 -9.57234E+03  1.50160E+04  4.57684E+03  1.15177E+04  1.94094E+04  8.81653E+03  1.59870E+04
  4.25218E+02  2.01921E+04 -1.16571E+04  1.21072E+04 -1.13706E+04  6.03549E+03 -1.11916E+04 -2.65103E+03
 -2.20696E+03 -2.10991E+03  2.91335E+02 -1.89000E+02  6.11934E+02  9.39183E+02 -6.22820E+02 -1.27490E+02
 -9.50478E+03  1.54061E+02 -1.41174E+04 -7.26691E+03 -3.90596E+03 -1.34018E+04  5.84429E+02 -1.12667E+04
  8.83285E+03 -5.65677E+03  5.06955E+03  1.07874E+03 -1.16267E+03  6.28040E+03 -6.62381E+03 -1.48069E+03
 -6.56704E+03 -7.00787E+03  8.21274E+02 -8.61055E+03  5.95928E+03 -1.19463E+04  1.45150E+04 -9.81635E+03
  1.83803E+04 -6.37796E+02  1.30582E+04  7.71204E+03  1.61620E+03  9.81516E+03 -3.61182E+03  1.23419E+04
 -1.16420E+04  5.30229E+03 -3.88364E+03 -2.01595E+03  4.71200E+03  1.48203E+03  6.65106E+03 -2.07379E+03
  2.22336E+03  3.90718E+03  4.84575E+03  3.08960E+03 -5.93263E+03  5.42762E+03 -1.12659E+04  6.29203E+03
 -8.07361E+03 -9.99657E+02 -1.19944E+02 -9.12135E+03  6.99551E+03 -2.47957E+03  2.50250E+03 -1.11326E+03
  1.49980E+03  2.55717E+03 -9.87677E+02  5.74245E+03 -6.13409E+03  2.46060E+03 -3.92975E+03 -4.22277E+03
 -6.64350E+02 -8.73141E+03 -3.13609E+03 -9.43637E+03  5.09532E+03 -7.37080E+03  3.65274E+03  3.53809E+03
  2.85489E+03  8.74087E+03 -7.89983E+03  9.93491E+03 -8.91036E+02  4.69984E+03 -5.97444E+03 -5.38015E+03
 -7.82913E+03 -4.84949E+03 -9.67042E+02 -1.05762E+04  5.75617E+03 -6.57464E+03  4.43459E+03 -4.72788E+03
 -9.35621E+02 -3.35963E+03  1.95867E+03  6.17827E+03  8.15675E+02  1.45186E+03  3.44150E+03 -3.67123E+03
  3.51963E+03 -1.69371E+03  4.18607E+03 -3.08326E+03  7.10744E+03  7.84575E+03  9.44044E+03  9.42583E+03
 -3.06496E+03  9.04417E+03 -9.59070E+03  6.60445E+03 -1.13917E+04  2.02621E+03 -8.74382E+03 -2.10600E+03
 -1.08510E+04 -3.37035E+03  1.61940E+03 -5.17614E+03  2.84773E+03 -1.02522E+04  1.10108E+03 -9.12140E+02
  7.45251E+02 -2.15301E+03  1.04741E+03 -2.19715E+03 -1.04425E+03 -4.76462E+03  5.76604E+03  3.51362E+03
  5.34824E+03 -1.12454E+03  1.37168E+03  3.87054E+03 -1.57091E+03  7.80372E+03 -7.38651E+03 -2.78564E+03
 -4.15353E+03 -1.86958E+02 -1.08025E+03 -6.88046E+03  3.82452E+03 -7.94756E+03  6.13103E+03 -4.62198E+03
  2.62549E+03 -4.18577E+03  8.13627E+03 -2.08508E+03  5.57851E+03  6.76194E+03  3.67015E+03  1.05939E+04
 -6.07305E+03  3.58313E+03 -7.90419E+03  3.89579E+03 -5.20030E+03 -1.84914E+03 -1.23074E+03 -9.24389E+01
 -3.51149E+03  6.44998E+02  1.31893E+03  4.05322E+03 -3.78245E+03  2.78741E+03 -2.91081E+03 -6.02281E+03
 -2.62587E+03 -4.95865E+03  5.06741E+03 -5.73866E+03  3.30973E+03 -6.28934E+03  3.52752E+03  3.26958E+02
  8.44787E+02  2.24587E+03  8.12596E+03  1.21000E+03 -2.93069E+03  3.20051E+03  6.22747E+02  4.00123E+03
 -6.92350E+03  3.71297E+03 -1.63597E+03 -1.37980E+03  1.64529E+03 -2.95656E+03  1.16742E+03 -3.00616E+03
  2.59463E+03 -4.53300E+03  2.51140E+03  1.05013E+03 -1.76300E+02  1.40608E+03  3.15720E+03  2.04036E+03
  2.56491E+03 -1.31790E+03  2.01545E+03  2.02962E+03  3.74296E+03  1.84987E+03 -1.08374E+03  2.84990E+03
 -6.16216E+03  6.92584E+03 -5.35125E+03  4.78992E+03 -3.21647E+03  3.12368E+03 -2.98800E+03 -1.90097E+03
 -5.64636E+02 -3.64998E+03 -1.92312E+03 -9.44856E+03  2.09039E+03 -2.39516E+03  1.57644E+03 -4.48813E+03
  4.36891E+03  5.03360E+02  8.07362E+02  2.90226E+03  9.25263E+02  1.13353E+03  1.57436E+03 -4.27282E+03
 -2.71574E+03  1.47979E+03  1.30736E+03 -1.78568E+03 -3.78812E+02 -3.31490E+03  3.25642E+03  1.23260E+03
  7.01116E+02 -2.05718E+03  1.00893E+04 -3.55263E+03 -9.53606E+02 -4.77868E+02  2.89765E+03 -1.80041E+03
 -2.65225E+03  1.05779E+03  5.29602E+03  2.06749E+03  4.58364E+03 -5.61185E+00 -4.30077E+03  3.20097E+03
 -5.05023E+03 -1.27139E+03 -8.84163E+02 -1.81780E+03 -4.49049E+03 -6.99841E+02 -1.16913E+03 -9.08218E+02
  2.92061E+02 -9.20291E+02  4.09480E+03  4.71821E+03  1.61066E+03  1.74111E+03  3.28535E+03  5.48624E+03
  7.61937E+02  1.97300E+03 -2.48042E+03 -2.21389E+03 -6.88073E+02  1.30805E+03 -8.50858E+02 -3.84630E+03
  1.96185E+03 -1.71591E+03 -9.75432E+02 -5.56975E+03  3.21947E+03  3.93165E+03  8.78573E+02  2.08543E+03
 -1.54479E+03  3.49802E+02  4.33837E+03  2.72305E+03 -2.20429E+03 -3.70651E+03  7.33158E+02  2.54978E+03
  6.71397E+03 -1.68470E+03  3.01395E+03  7.44032E+02 -2.89125E+03 -5.27097E+02  6.61543E+02  4.25394E+03
 -7.96829E+03  2.39744E+03 -2.09483E+03 -1.33642E+03 -2.62744E+03  2.58865E+03  1.29976E+03 -3.47053E+03
  2.32178E+03 -7.63635E+03  2.79660E+03  2.42083E+03  1.88522E+03 -1.89497E+03  3.54750E+03  1.66850E+03
  2.48544E+02  5.24519E+01 -4.81614E+03  1.30590E+02 -3.39503E+03  2.88169E+03  1.27749E+03  2.14919E+03
 -1.22526E+03 -4.41031E+03 -3.99587E+03  2.98691E+03 -1.31425E+03  2.06630E+03 -4.93432E+02 -3.71468E+03
  1.60265E+03 -1.60522E+03  8.17866E+02 -6.09059E+03  2.97083E+03 -3.99755E+03  4.23046E+03 -8.19549E+01
  2.79685E+03  1.21235E+03  3.42450E+03  3.82320E+03  2.07818E+03  5.34146E+03  2.63252E+02  2.93833E+03
  4.11708E+02  2.03908E+02 -2.19445E+03 -2.19846E+03  1.13600E+03  1.59934E+03  1.67252E+03  9.85122E+02
  7.31500E+02  3.99295E+03  3.49054E+02 -5.02707E+02 -3.24450E+02 -8.35291E+02  2.22411E+03 -1.87168E+03
  3.14040E+03 -2.32960E+03 -2.88364E+03  1.37918E+03 -1.36904E+03  2.23138E+03 -2.33151E+03  6.84049E+02
 -4.85625E+03  1.68595E+03 -5.84645E+03  5.97148E+03 -9.45282E+02 -6.61618E+02 -4.19408E+03  3.25903E+03
 -2.48098E+03 -1.75459E+03  3.78133E+01 -5.87085E+03  2.72089E+03 -2.08855E+03 -2.99837E+02 -5.82062E+03
  2.51434E+03 -7.14941E+01  7.36350E+02  5.73608E+03 -1.42793E+03  1.77800E+03 -1.81603E+03  4.35119E+03
  2.80570E+03  5.57035E+02  8.29411E+03  3.87146E+01  2.36568E+03  1.36358E+03  3.83112E+03  5.24569E+03
 -3.99059E+03 -2.48202E+03 -8.85420E+02  1.50542E+03  2.90036E+03 -1.02091E+02  1.54789E+03  1.99698E+03
  3.86042E+03 -7.58882E+00  3.46907E+03 -1.88172E+01  2.79990E+03  2.15801E+03 -8.45293E+02  3.73363E+02
 -2.16063E+03  1.95672E+03 -2.87992E+02  1.07287E+03  2.45427E+03  8.73245E+02 -5.03407E+02  1.93461E+02
 -1.99494E+03  8.69047E+02 -1.31651E+03 -1.28027E+03 -1.60242E+03 -2.78534E+03 -1.19168E+03 -5.11257E+02
 -5.30625E+03 -9.33075E+02  1.18464E+03  2.75294E+03 -2.89763E+03 -6.36875E+03  2.38557E+03  5.07252E+03
  7.18796E+02  4.63038E+03  4.21966E+03 -3.85146E+02 -1.06786E+02 -2.33288E+03 -3.77094E+03 -2.58924E+03
