 $NMID ID='MM_0lb_SNR50_19hz_g50_90.RAW', FMTDAT='(8E13.5)'
 TRAMP=1., VOLUME=1. $END
  3.09281E+05  9.69079E+01  3.33611E+05  2.48620E+05  8.41072E+04  3.39425E+05 -1.31592E+05  2.51301E+05
 -1.88824E+05  7.98986E+04 -1.09432E+05 -3.11838E+04  3.42131E+03 -5.34173E+04  5.32760E+04  2.19043E+03
  2.77621E+04  5.82305E+04 -1.49539E+04  7.77291E+04 -6.27989E+04  6.28081E+04 -8.75077E+04  3.01062E+04
 -7.52036E+04 -1.04284E+04 -5.65756E+04 -5.12782E+04 -1.18392E+04 -6.92013E+04  2.64590E+04 -4.25434E+04
  3.61866E+04  8.84535E+03  1.62121E+04  4.54784E+04 -3.23991E+04  4.52697E+04 -6.59411E+04 -4.49729E+01
 -4.90101E+04 -5.04473E+04 -7.08763E+03 -7.44242E+04  3.23727E+04 -5.62291E+04  4.71136E+04 -1.72198E+04
  3.90600E+04  1.26929E+04  2.56126E+04  2.60090E+04  1.46316E+04  3.20384E+04 -2.33797E+03  2.67097E+04
 -2.09553E+04  1.54184E+04 -2.25694E+04 -3.50062E+03  5.07348E+03 -7.32626E+03  2.19960E+04  9.72566E+03
  1.01119E+04  3.71493E+04 -3.20491E+04  3.35848E+04 -6.10887E+04  8.69059E+02 -5.52892E+04 -4.63206E+04
 -1.33974E+04 -5.94898E+04  4.08087E+04 -3.95338E+04  5.66996E+04 -1.55654E+03  3.49349E+04  3.32125E+04
 -8.04868E+03  3.25360E+04 -2.75118E+04  1.06017E+04 -2.70910E+04 -4.67477E+03 -1.45425E+04 -8.47874E+03
 -1.07470E+04 -9.96726E+03  8.13985E+02 -1.40384E+04  7.02001E+03 -1.99785E+04  1.55375E+04 -1.46080E+04
  1.31643E+04  3.70423E+03 -6.62784E+03  8.38592E+03 -1.75250E+04  1.82467E+03 -4.44587E+03 -3.36672E+04
  1.65179E+04 -4.03322E+04  4.30941E+04 -2.13140E+04  4.30143E+04  2.25771E+04  1.63351E+04  4.03106E+04
 -1.51411E+04  3.27134E+04 -2.31388E+04  3.15620E+03 -5.95508E+03 -2.66243E+04  2.18814E+04 -3.11658E+04
  3.67299E+04 -6.64316E+03  3.50432E+04  2.09776E+04  1.91556E+04  3.85149E+04 -7.64030E+03  4.50807E+04
 -2.67506E+04  2.76471E+04 -3.57976E+04  6.42366E+03 -3.40215E+04 -1.50752E+04 -2.02563E+04 -3.17791E+04
  3.77155E+03 -3.79460E+04  2.90534E+04 -1.18393E+04  2.40360E+04  1.17985E+04  4.91582E+03  1.80967E+04
 -1.66638E+04  7.00743E+03 -9.45281E+03 -3.68633E+03  7.59041E+03 -6.28087E+03  2.00597E+04  8.91781E+03
  1.02572E+04  2.42642E+04 -6.43166E+03  2.63004E+04 -2.13871E+04  7.43162E+03 -2.91919E+04 -3.64193E+03
 -1.50512E+04 -1.48912E+04 -1.21656E+04 -1.48740E+04  5.95650E+03 -1.25491E+04  1.28409E+04 -1.65573E+04
  2.37454E+04 -1.07111E+04  2.80736E+04  2.23289E+03  2.07056E+04  1.63487E+04  5.83266E+03  3.44449E+04
 -1.48202E+04  3.02011E+04 -2.51405E+04  9.81784E+03 -1.87568E+04 -5.44406E+03 -7.22569E+03 -1.47552E+04
  4.39729E+03 -3.93008E+03 -5.52834E+03  5.60394E+03 -1.38356E+04  5.27414E+03 -1.31889E+04 -1.85172E+03
 -8.55504E+03 -1.44829E+04  4.71362E+03 -2.16936E+04  8.89997E+03 -1.58087E+04  1.75764E+04 -3.14902E+03
  8.95406E+03  1.09001E+04  2.71415E+03  1.45890E+04 -1.07000E+04  6.32433E+03 -1.36629E+04 -5.01068E+03
 -1.08740E+04 -1.42023E+04 -5.29027E+03 -1.98822E+04  6.50515E+03 -1.60695E+04  1.85310E+04 -7.84267E+03
  1.26217E+04 -2.35281E+03  1.06255E+04  7.30685E+03  9.20042E+03 -1.41046E+03  7.55735E+03 -6.65780E+03
  1.37917E+04  2.99828E+02  1.60765E+04  1.04507E+04  1.28204E+04  2.50126E+04 -3.65381E+03  2.01441E+04
 -1.71066E+04  1.34256E+04 -2.42308E+04  1.24675E+04 -2.48079E+04  6.67777E+02 -2.51054E+04 -1.45037E+04
 -1.01422E+04 -2.08447E+04  9.55374E+03 -1.81608E+04  1.25614E+04 -8.07200E+03  1.79054E+04  3.87345E+03
  7.82586E+03  1.41605E+04 -5.09278E+03  1.11817E+04 -1.12032E+04  3.72620E+03 -1.18614E+04 -6.97836E+03
  1.86004E+03 -1.43331E+04  3.43558E+03 -8.15943E+03  9.41997E+03  1.18648E+03  1.08512E+01  7.54264E+03
 -3.16524E+03  3.42449E+03 -6.04663E+03 -3.52770E+03 -3.37948E+03 -6.45778E+03  7.61366E+03 -9.97531E+03
  1.28200E+04 -7.98790E+03  1.09200E+04  1.66002E+03  1.28766E+04  8.78141E+03  2.06902E+03  1.36359E+04
 -4.65354E+03  1.52406E+04 -1.08007E+04  1.19082E+04 -9.84973E+03  4.37274E+03 -6.27668E+03 -3.06779E+03
 -2.46991E+03 -1.99574E+03 -4.55982E+03  2.84041E+03  2.21941E+03  6.29823E+03 -6.27685E+03  8.25227E+02
 -6.16057E+03 -1.95568E+02 -1.10916E+04 -7.09719E+03 -3.46592E+03 -1.56716E+04  1.58858E+03 -8.69689E+03
  7.95027E+03 -5.97575E+03  4.61920E+03  2.31774E+03  3.68314E+03  7.45957E+03 -5.05518E+03 -1.15030E+03
 -5.80285E+03 -7.21555E+03 -2.76396E+03 -1.04044E+04  7.64138E+03 -1.07972E+04  1.13969E+04 -7.33180E+03
  1.08236E+04 -1.16094E+03  3.00112E+03  9.18952E+03 -1.56043E+03  9.57554E+03 -6.13410E+03  4.80798E+03
 -3.16551E+03  2.46588E+02 -1.50680E+02 -5.10982E+03  2.47494E+03 -1.97672E+03  3.84297E+03  6.66760E+02
  4.34145E+03  5.93311E+03  3.88335E+03  4.70075E+03 -1.70581E+02  7.67436E+03 -2.06419E+03  2.02370E+02
 -8.00883E+03 -3.57150E+03  5.22811E+03 -5.83447E+03  1.12370E+03 -1.19458E+03  5.53188E+03  7.20647E+02
 -4.60167E+03  2.58375E+03 -5.57799E+03  4.45115E+03 -7.03690E+03  8.47319E+02 -4.39219E+03 -1.81010E+03
 -3.04463E+03 -6.01217E+03 -1.66615E+03 -3.75054E+03  7.99178E+03 -7.06737E+02  4.98942E+03 -9.65097E+02
  1.74743E+03  7.44188E+03 -1.06801E+03  8.45994E+03 -7.89567E+03  5.21546E+03 -9.27112E+03 -1.96808E+03
 -1.14334E+03 -4.53813E+03 -2.86657E+03 -9.28169E+03  5.41022E+03 -4.21932E+03 -4.71801E+03 -9.14723E+01
  1.38999E+02 -9.29595E+02  8.84208E+02  7.63491E+02 -1.38127E+03 -3.27811E+03 -2.75274E+03  4.49242E+01
 -2.31991E+03 -5.02965E+03  6.42200E+03 -8.00534E+02  4.53397E+03 -1.36297E+03  6.28682E+03  4.44307E+03
 -2.41532E+03  5.11056E+03 -4.51481E+03  4.15501E+03 -7.77765E+03  3.91926E+03 -8.07569E+03 -1.49394E+02
  2.42345E+03 -7.93514E+03 -2.33873E+03 -2.29339E+03  2.87491E+03 -2.95426E+02 -1.76834E+03 -4.14713E+03
 -9.61992E+02 -5.13542E+03  1.05542E+03 -3.01348E+03 -3.59738E+02 -1.53487E+03  4.52499E+03  1.08747E+03
  5.52744E+03  3.79398E+03 -6.80118E+02  4.45637E+03  1.00845E+03  5.73852E+03 -7.31038E+03  1.57507E+03
 -5.49088E+03 -1.99383E+03 -4.36796E+03 -2.02355E+03  2.49610E+03 -3.62500E+03 -2.98319E+03 -4.52666E+03
  3.64289E+03 -4.08105E+03  4.44818E+03 -3.10473E+02  1.11737E+04  7.36991E+03  7.80929E+02  6.54151E+03
  7.68042E+02  6.87652E+03 -6.18954E+03  4.79645E+03 -3.88816E+03 -1.63234E+03  5.42352E+02  4.47872E+01
  3.83303E+02 -2.31875E+03 -1.10628E+02  4.13753E+03 -2.73540E+03  2.69824E+03 -3.66234E+03  3.94677E+02
 -3.74074E+03 -1.27594E+03 -4.20090E+02 -1.27793E+02  3.80559E+03 -4.84128E+03  1.05818E+01  4.24371E+02
  7.00344E+03 -6.23987E+02  6.67494E+02  3.76766E+03 -3.17951E+03  8.36738E+02 -2.99190E+03  4.42758E+03
 -6.54495E+03  1.60824E+03 -6.70039E+03 -3.26253E+03  1.68279E+03  3.81478E+02  2.58297E+03 -1.57032E+03
  6.31833E+02 -1.07528E+02 -8.73389E+02 -3.75630E+03 -1.18665E+02  3.38406E+03 -3.54083E+02  8.49911E+02
  8.78749E+02  6.66897E+02 -2.36918E+03  7.84918E+02  7.11396E+03  3.62028E+02 -2.00799E+03  9.60442E+02
 -2.46430E+03  1.48378E+03 -4.64595E+03  3.64648E+03 -6.33587E+03  6.51984E+02 -9.26129E+03  1.73388E+03
 -5.51293E+02 -1.57076E+03  1.50530E+03 -3.15953E+03  2.88150E+03 -3.82204E+03 -9.90425E+02 -2.42472E+03
 -1.47319E+03  8.97110E+01 -1.25312E+03 -4.81237E+02  4.30571E+03 -3.59091E+02 -6.50609E+02  2.72285E+02
 -2.64941E+03  4.68790E+02  2.19469E+03  1.61493E+03 -4.70314E+03 -6.89405E+02 -8.06934E+02  7.02264E+02
 -2.52047E+03 -2.30006E+03  3.60672E+03 -1.18742E+03 -5.38084E+02  4.62540E+03  8.60290E+02  2.69858E+02
 -9.15888E+02  2.46940E+03 -8.64151E+02  7.59229E+02 -1.10041E+03  4.44729E+03 -1.88134E+03  5.63990E+03
 -7.90624E+02  3.91139E+03 -2.29631E+02 -1.15933E+01 -1.27908E+03 -1.87171E+03  3.05330E+03 -3.31455E+02
  3.76454E+03 -4.66100E+03  2.19766E+03  8.64235E+02  1.90370E+03  1.79463E+03 -1.65822E+03  2.12509E+03
 -3.26362E+03  1.02999E+03 -1.24823E+03 -1.86883E+03 -1.36528E+03 -3.33855E+03  1.53062E+02 -3.50220E+03
 -6.92914E+03  3.18810E+03  1.72358E+03  4.15651E+01  2.60315E+03  5.93214E+02  1.27163E+03 -9.82001E+02
  9.89084E+02  2.69667E+02 -2.23943E+03  2.26876E+03  1.76960E+03 -2.46141E+03  2.28776E+03  2.16871E+03
  1.41561E+03  8.94550E+02  1.08391E+03 -2.40511E+03 -8.14099E+02 -2.24092E+03  1.31566E+03  2.71168E+03
  8.91134E+02 -3.23403E+03 -1.79307E+03 -7.88687E+02  7.92926E+02 -2.05465E+03 -3.52513E+03 -1.27712E+03
  3.71623E+03  6.00489E+02  3.89943E+03  5.22075E+03  2.01351E+02  6.33285E+02 -6.38280E+02  2.69016E+03
  5.89886E+02 -2.24319E+03 -5.84636E+03 -3.74315E+03  3.49479E+03  8.94725E+02  4.06858E+02 -9.37806E+02
  2.45656E+02  3.20808E+03 -2.19154E+03  3.33254E+03 -4.80278E+03 -3.33873E+03 -3.50807E+03 -9.44726E+02
 -1.46837E+03 -1.55974E+02  7.57949E+02 -3.82500E+03  3.12925E+02 -7.60634E+03  5.74999E+02 -5.02678E+02
  1.94326E+03 -9.07854E+03  2.80480E+03  3.69227E+03 -2.47267E+02  1.36645E+03 -2.43562E+03  2.90613E+03
 -2.92328E+03  1.52730E+03 -7.00516E+02  1.88534E+03 -1.00022E+02  1.99531E+03 -7.75501E+02  2.70746E+03
  6.85813E+02 -8.32937E+02 -1.00080E+03 -2.37254E+03 -3.32008E+03 -1.07233E+02  2.87229E+03 -2.93723E+03
 -1.48447E+03  1.04160E+03 -3.08244E+03  5.12420E+02  4.14820E+03 -1.19294E+03 -2.68397E+03  2.50791E+03
  6.49345E+02  3.38763E+03 -4.49351E+03  1.50848E+03  1.13000E+03  3.00502E+03 -8.21632E+02 -3.90771E+03
  3.62076E+03 -3.85747E+03 -3.82096E+03 -1.43921E+03  4.13193E+03 -3.21579E+03  3.35262E+03 -1.81651E+03
 -3.87194E+03  6.23241E+03 -1.72437E+03  1.98597E+03 -7.24060E+02  5.21003E+02 -7.60229E+02 -6.88842E+02
 -1.85080E+03  1.92981E+03  1.01830E+03  5.31760E+02 -2.91114E+03  1.14041E+03  1.74354E+03  1.67815E+03
 -3.55202E+03 -2.55480E+02 -1.15020E+03  1.32468E+03  2.04329E+03 -1.93385E+03  1.15289E+03  2.30517E+03
 -1.09212E+03 -1.61975E+03  3.21577E+03 -5.58452E+02  1.79624E+02 -3.36398E+03 -3.49248E+03  3.26035E+03
  1.67796E+03 -2.48525E+03 -2.45185E+02  4.36916E+03  2.64177E+03 -1.95787E+03  9.11534E+02  2.55686E+02
 -2.20829E+03  2.24518E+03 -3.28155E+03 -3.44894E+03 -2.46980E+03 -1.85734E+03 -2.99172E+03  1.69017E+02
 -2.45232E+03 -3.63128E+03 -1.70357E+03  3.17782E+03 -3.88204E+03 -1.74206E+03  3.49029E+03  2.66477E+03
 -1.39789E+03  1.70232E+03  2.26847E+03  4.70866E+02 -4.31361E+03 -1.98371E+03 -3.86198E+03 -2.79649E+02
