 $NMID ID='MM_0lb_SNR50_15hz_g60_56.RAW', FMTDAT='(8E13.5)'
 TRAMP=1., VOLUME=1. $END
  3.07717E+05  2.18126E+03  3.38976E+05  2.48905E+05  8.59759E+04  3.37702E+05 -1.30033E+05  2.52104E+05
 -1.94513E+05  8.18030E+04 -1.10455E+05 -2.73871E+04 -2.25651E+03 -4.85161E+04  5.31715E+04 -1.47819E+03
  3.77603E+04  5.16508E+04 -2.09074E+04  7.12702E+04 -5.98950E+04  6.32259E+04 -8.26325E+04  3.07359E+04
 -7.98657E+04 -6.73369E+03 -5.80355E+04 -5.50213E+04 -1.11365E+04 -6.72487E+04  2.17537E+04 -4.69426E+04
  4.16666E+04  5.78057E+03  1.70568E+04  5.07267E+04 -3.56136E+04  4.94650E+04 -6.21476E+04 -1.58575E+03
 -5.38581E+04 -5.83855E+04 -9.51595E+03 -7.34007E+04  3.96038E+04 -5.14730E+04  5.25478E+04 -1.62672E+04
  3.95320E+04  9.96951E+03  2.92662E+04  2.85863E+04  1.35258E+04  2.28764E+04 -7.06528E+03  2.93218E+04
 -1.86216E+04  1.46841E+04 -1.50900E+04 -8.10154E+03  4.75569E+03 -9.50332E+03  1.96545E+04  1.51480E+04
  6.02374E+03  3.25497E+04 -3.35927E+04  3.15029E+04 -6.02165E+04 -9.97960E+01 -5.65733E+04 -4.29658E+04
 -1.29523E+04 -6.21146E+04  3.76255E+04 -4.50328E+04  6.23636E+04 -3.47723E+03  3.00333E+04  3.14663E+04
 -6.15048E+03  3.53787E+04 -3.21842E+04  1.78641E+04 -2.64659E+04 -5.54335E+03 -2.29353E+04 -1.43765E+04
 -6.02243E+03 -1.28308E+04  1.03977E+02 -1.70679E+04  9.53353E+03 -2.27667E+04  1.51937E+04 -1.18316E+04
  1.43007E+04  6.94501E+03 -9.15750E+03  1.14335E+04 -2.18002E+04 -4.75666E+02 -5.78573E+03 -3.57163E+04
  2.04669E+04 -4.42819E+04  5.02201E+04 -1.98523E+04  4.63643E+04  1.70743E+04  1.46053E+04  5.11540E+04
 -1.92183E+04  3.50377E+04 -2.37606E+04 -2.68592E+02 -8.68991E+03 -2.34708E+04  1.98616E+04 -3.62824E+04
  4.31772E+04 -8.47863E+03  3.37947E+04  2.40113E+04  1.66760E+04  4.50738E+04 -7.48270E+03  5.45635E+04
 -3.13166E+04  3.29660E+04 -4.39810E+04  7.81200E+03 -4.26878E+04 -1.79851E+04 -2.42888E+04 -3.36478E+04
  4.29727E+03 -3.64846E+04  3.03414E+04 -1.32481E+04  3.58812E+04  6.11667E+03  4.69998E+03  2.25236E+04
 -1.22747E+04  5.28703E+03 -1.43414E+04 -6.54880E+03  2.87754E+03 -1.15879E+04  1.88897E+04  4.85112E+03
  1.86197E+04  2.09530E+04 -6.45976E+03  1.96180E+04 -2.09902E+04  1.35675E+04 -2.59649E+04 -4.39734E+03
 -2.30498E+04 -1.41551E+04 -9.33791E+03 -2.40980E+04  6.22224E+03 -1.75575E+04  1.53084E+04 -1.67127E+04
  2.98143E+04 -9.66055E+03  3.24970E+04  2.35048E+03  2.16013E+04  1.88031E+04  5.32600E+03  3.73141E+04
 -1.48868E+04  2.91408E+04 -2.77345E+04  1.02072E+04 -2.53333E+04 -1.19593E+04  1.02308E+03 -8.94414E+03
  3.71931E+03 -8.16203E+02 -2.55913E+03  7.56561E+03 -1.28886E+04  5.86020E+03 -1.90631E+04 -4.37560E+03
 -1.28809E+04 -2.42409E+04  7.88707E+03 -2.50674E+04  1.92098E+04 -1.12675E+04  2.06517E+04 -3.98224E+03
  1.21978E+04  1.22007E+04 -1.75802E+03  1.96612E+04 -1.41394E+04  9.37885E+03 -1.64659E+04 -2.94129E+03
 -1.24834E+04 -2.00073E+04  5.67158E+03 -2.41802E+04  1.13628E+04 -1.73542E+04  1.77217E+04 -5.60891E+03
  1.56962E+04 -2.01982E+03  1.21160E+04  5.05872E+03  1.10625E+04  6.72828E+02  8.91850E+03 -4.47982E+03
  1.76968E+04  6.82962E+03  1.79065E+04  1.96353E+04  1.17743E+04  2.94466E+04 -3.32014E+03  3.61310E+04
 -1.69995E+04  2.98169E+04 -3.04177E+04  1.34204E+04 -3.24555E+04 -3.08296E+03 -2.57622E+04 -2.20577E+04
 -1.35753E+04 -2.91053E+04  8.57559E+03 -2.64903E+04  2.66449E+04 -9.60226E+03  2.01829E+04  2.86112E+03
  7.89144E+03  8.83803E+03 -8.36849E+03  1.49966E+04 -2.02718E+04  3.32121E+03 -1.48282E+04 -7.94553E+03
  9.91407E+02 -1.66016E+04  8.67867E+03 -1.17780E+04  9.59888E+03 -2.06583E+03  2.39913E+03  8.70965E+03
 -7.30661E+03 -3.27896E+03 -4.61698E+03 -3.81450E+03 -1.16853E+03 -7.62228E+03  1.66104E+04 -1.29443E+04
  1.53167E+04 -3.82472E+03  1.87467E+04 -4.35929E+03  1.65408E+04  1.49916E+04  6.93575E+03  1.77750E+04
 -4.98322E+03  2.09992E+04 -1.38190E+04  1.47512E+04 -1.64786E+04  2.60922E+03 -1.28883E+04 -6.63014E+03
 -8.72839E+02  3.41047E+03 -1.64825E+03  2.34700E+03 -1.10686E+03  4.12580E+03 -6.07002E+03  3.96349E+02
 -1.41585E+04  1.97845E+03 -1.38140E+04 -9.57224E+03 -6.06811E+03 -1.43198E+04  2.77583E+03 -1.25835E+04
  9.27126E+03 -1.10334E+04  1.05260E+04  3.58415E+03  5.59965E+03  4.68129E+03 -3.90029E+03 -3.56841E+03
 -8.91872E+03 -7.12647E+03 -1.16924E+03 -4.88390E+03  4.07288E+03 -1.43066E+04  1.31527E+04 -3.45441E+03
  1.57349E+04  2.30138E+03  1.22527E+04  5.61216E+03  7.28110E+03  1.45221E+04 -4.99540E+03  1.05529E+04
 -1.21119E+04  5.51838E+03 -5.72384E+03 -1.96717E+03  3.44043E+02  3.71347E+03  6.23572E+03  2.14530E+03
  6.90621E+03  4.73304E+03  1.79244E+03  9.35141E+03 -1.13761E+04  1.17261E+04 -1.32116E+04  3.59939E+03
 -7.77709E+03 -8.77245E+03 -4.51130E+03 -1.17616E+04  5.81490E+03 -5.08956E+03  8.71645E+03 -2.93552E+03
  3.45209E+03  8.69915E+03 -8.11849E+03  1.03909E+04 -3.27620E+03  9.90609E+02 -5.69893E+03 -4.46771E+03
 -7.70628E+03 -9.64572E+03  5.29781E+03 -1.76989E+04  6.20620E+03 -6.44189E+03  5.40489E+03  3.55396E+03
  1.06243E+04  8.82138E+03 -4.59624E+03  1.23232E+04 -8.55854E+03  2.15979E+03 -8.42984E+03  7.42374E+02
 -9.19281E+03 -1.07496E+04 -5.18162E+03 -4.13112E+03  4.42804E+03 -1.06900E+03  2.25203E+03 -2.53706E+03
  1.85459E+03  2.19028E+03 -2.73943E+03  1.94112E+03  1.21721E+03 -4.09954E+03 -5.37047E+03 -3.43792E+03
  5.23570E+03 -2.99676E+03  1.06122E+04  9.49675E+02  1.42484E+04  6.16726E+03  8.58687E+03  1.13763E+04
  6.93265E+02  1.54379E+04 -1.55198E+04  1.47421E+04 -1.13931E+04  3.56262E+03 -1.00931E+04 -2.35134E+03
 -5.58518E+03 -7.91251E+03 -1.24745E+02 -1.13425E+04  2.09215E+03 -9.37816E+03  4.45151E+03 -2.64992E+03
  2.38286E+03 -1.89430E+03  2.96688E+03  9.74942E+02  4.60766E+03  1.99892E+01 -2.27413E+02  3.37721E+03
  8.70791E+03  1.85303E+03  7.05643E+03  9.14666E+03 -3.29008E+03  4.23238E+03 -9.56302E+03  3.32806E+03
 -9.90554E+03 -1.08440E+03 -3.68261E+03 -2.46340E+03  1.55079E+03 -7.75065E+03  2.98590E+03 -8.22505E+03
  7.14895E+03 -7.67046E+03  9.01495E+03  1.29209E+03  2.93492E+03  6.53436E+03  3.54965E+03  1.25417E+04
 -7.68529E+03  9.93433E+03 -4.58314E+03  1.83028E+03 -3.74024E+03 -3.99240E+02  7.81763E+02 -2.76543E+03
 -1.30854E+03 -6.67982E+02 -4.10857E+03  1.77812E+03 -4.73703E+03  1.65752E+03 -6.60001E+03 -4.66234E+03
 -3.31195E+03  1.60264E+03 -3.79662E+03 -1.01158E+04  8.40802E+02 -4.27191E+03  2.31358E+03 -4.15582E+03
  8.15535E+03  4.40980E+03  2.49050E+03  1.49412E+03  5.41900E+03  4.22696E+03 -3.41542E+03  4.75192E+03
 -1.05583E+04  1.03562E+03 -3.31121E+03 -3.26105E+03 -1.61423E+02 -7.93744E+03  3.35548E+03 -6.39973E+03
  5.77090E+03  1.04495E+03  5.48729E+03  9.85687E+02 -2.66521E+03  1.35331E+03  2.30448E+03 -3.62944E+03
  2.37532E+03  4.28978E+03 -2.81749E+02 -1.75251E+02  2.79156E+03  4.02567E+03  3.08912E+03  9.21825E+03
 -3.46170E+03  3.54971E+03 -6.64045E+03 -7.81546E+02 -9.26855E+03  5.20189E+03 -1.35150E+04 -2.94577E+02
 -2.97406E+03 -1.26016E+04  1.54634E+03 -5.01302E+03  5.77855E+03 -1.28084E+03  7.19602E+03  2.39801E+03
  7.05110E+03  2.08105E+02 -6.54331E+02 -3.93528E+02 -8.09492E+03  3.39163E+03 -6.09490E+03 -6.77764E+03
 -9.27951E+02 -3.37866E+03  6.35575E+03 -2.78684E+03  5.19209E+03 -2.43189E+03  4.96276E+03  2.85707E+03
 -5.13826E+02  4.61909E+03 -3.51949E+03 -1.08955E+03  3.41591E+03 -1.27203E+03 -2.21807E+02  6.52806E+03
 -5.02970E+02 -3.84866E+01  2.00445E+02 -1.16228E+03 -3.82372E+03  5.01771E+03 -2.92098E+03  6.79143E+03
 -2.85172E+03  2.40080E+03  6.83770E+02 -7.23752E+02 -1.50096E+03 -1.44172E+03  2.32599E+03  2.18399E+02
  3.77465E+03 -7.45232E+02  2.19740E+03 -2.79112E+03  2.83296E+03 -1.49006E+02 -3.49193E+03  1.20114E+03
  1.01070E+03  1.13095E+03  4.35577E+02 -9.32819E+02 -2.37991E+03 -2.49309E+03 -4.12985E+03 -6.06825E+03
  3.69476E+02 -2.99268E+02  3.90646E+03  3.10304E+02  4.03805E+03 -1.49793E+03  3.56012E+03  3.27778E+03
 -3.88340E+03  2.02491E+02 -2.99961E+03  1.41703E+03 -3.96104E+03 -1.86667E+03  3.75635E+03  3.19492E+02
  4.41133E+03 -5.90699E+03  5.13733E+03  6.81225E+02 -5.45070E+02  2.74450E+01 -4.96730E+03  3.19040E+03
 -4.05052E+03 -5.51459E+03 -1.58221E+02 -1.95565E+03 -1.25883E+03 -6.70379E+03 -3.24793E+02 -5.39176E+03
  5.51217E+03  3.26696E+03  1.48046E+03  8.92094E+02 -5.23284E+02  1.24070E+03  3.36230E+03  5.08346E+02
 -9.13003E+02  1.83211E+03  2.00777E+03  3.77832E+03 -3.00270E+03  6.90167E+02 -1.78748E+03 -1.30631E+03
 -5.59310E+03  1.94396E+03 -5.87514E+03 -6.58278E+02 -4.91939E+03 -9.82756E+02 -4.47780E+03  3.22125E+03
 -5.90864E+02 -9.49215E+01  3.01723E+01 -4.58308E+03  2.44321E+03 -3.15206E+03  9.13692E+01  2.73785E+03
  2.56087E+03 -2.01536E+03 -2.59660E+03  3.89118E+03 -1.35168E+03  1.05070E+04 -2.76159E+03 -1.58895E+03
 -3.06628E+02  3.78295E+03  1.26629E+03 -6.25648E+03 -1.47295E+03 -4.05982E+03 -6.19030E+03  2.67546E+03
 -3.53842E+03  9.68937E+02 -3.46795E+03 -5.77903E+02 -1.58210E+03 -1.15002E+03 -3.49144E+02  2.68869E+03
  3.93737E+02 -1.39743E+03  3.62959E+03 -2.05228E+03  2.44083E+03  3.51085E+03  2.68161E+03  7.33562E+01
 -4.82961E+03 -9.06580E+01  3.50744E+02  6.54810E+03 -3.59526E+03  1.62172E+03 -1.58705E+03  2.30032E+03
  1.71176E+03  2.53131E+03  4.16794E+03  1.09531E+03  2.09090E+03 -5.56159E+03  8.02309E+03  3.96127E+03
  4.12286E+03  2.39470E+03 -3.02517E+02  1.57422E+03 -2.42161E+03 -5.98971E+03 -8.86368E+02 -4.63217E+03
  3.03941E+03 -8.13856E+02 -3.08718E+03  2.27598E+03  3.80841E+03  1.63182E+03  3.38778E+01  2.12030E+03
  2.14521E+03  3.89732E+03 -1.14665E+03 -1.44119E+03 -1.93609E+03 -2.40588E+03 -6.06499E+02  2.07328E+03
  2.16248E+03 -1.21801E+03 -5.05521E+02 -3.78065E+02  2.14789E+03  1.98978E+03 -3.36355E+02  2.96827E+03
  1.61366E+02  3.15070E+03  5.11821E+03 -1.65805E+03  1.36495E+03  1.82724E+03 -3.85401E+03 -3.13742E+03
 -5.39089E+02  3.26593E+03  4.53905E+02  3.11690E+02 -2.23317E+03 -3.37058E+03 -1.01586E+02  2.84122E+03
  5.80979E+02 -4.25891E+03 -1.65673E+03 -4.22026E+02  2.53416E+03 -1.67852E+03 -1.00445E+03 -1.63902E+03
  3.19185E+03 -3.71774E+03 -2.57037E+03 -6.57130E+03 -5.16767E+03 -1.59195E+03  1.57429E+03  4.78732E+03
