 $NMID ID='MM_0lb_SNR50_18hz_g50_28.RAW', FMTDAT='(8E13.5)'
 TRAMP=1., VOLUME=1. $END
  3.10787E+05  1.09661E+02  3.36592E+05  2.52449E+05  8.63541E+04  3.34327E+05 -1.32927E+05  2.51039E+05
 -1.93704E+05  8.23304E+04 -1.11535E+05 -3.33528E+04  1.30840E+03 -4.92086E+04  5.11552E+04  4.72758E+03
  3.62291E+04  5.08980E+04 -1.62469E+04  7.56562E+04 -5.83832E+04  6.62662E+04 -8.18742E+04  2.66489E+04
 -8.24613E+04 -1.13949E+04 -5.63614E+04 -5.22252E+04 -1.29141E+04 -6.71535E+04  2.84383E+04 -4.58317E+04
  4.29393E+04  7.55731E+03  1.43285E+04  4.49054E+04 -3.09463E+04  4.75555E+04 -6.73054E+04  5.70849E+00
 -4.99219E+04 -5.94502E+04 -1.08922E+04 -7.78317E+04  2.89473E+04 -5.30365E+04  4.38814E+04 -1.41088E+04
  4.37167E+04  1.15302E+04  3.29843E+04  2.79088E+04  1.38238E+04  2.78352E+04 -4.70077E+03  2.47114E+04
 -2.29608E+04  1.37933E+04 -1.71447E+04 -1.01426E+04  8.17049E+03 -7.98432E+03  1.82283E+04  8.77102E+03
  3.41217E+03  3.59758E+04 -3.39109E+04  3.76651E+04 -6.75483E+04  5.90338E+03 -6.18890E+04 -4.45205E+04
 -8.94243E+03 -6.07128E+04  4.03962E+04 -4.54914E+04  5.88294E+04  2.66665E+03  3.35852E+04  2.80411E+04
 -7.35539E+03  3.04831E+04 -2.67463E+04  1.38505E+04 -2.53220E+04 -8.35424E+03 -1.49409E+04 -9.06264E+03
 -2.72051E+03 -1.18076E+04  2.22852E+02 -1.57219E+04  6.08622E+03 -2.41669E+04  1.36939E+04 -2.05634E+04
  1.72411E+04  2.12021E+03 -6.28368E+03  1.93455E+04 -1.98220E+04 -7.44969E+03 -7.25145E+03 -3.21915E+04
  1.93498E+04 -4.14167E+04  4.53181E+04 -2.22313E+04  4.26349E+04  1.70098E+04  1.39174E+04  4.55473E+04
 -1.75427E+04  3.04766E+04 -2.21716E+04  4.72957E+03 -6.84763E+03 -2.95078E+04  2.18437E+04 -3.21733E+04
  3.83055E+04 -5.70952E+03  3.08533E+04  2.12669E+04  1.89905E+04  4.33791E+04 -7.81276E+03  4.44977E+04
 -2.70392E+04  3.08879E+04 -3.49859E+04  9.66352E+03 -4.21573E+04 -1.59742E+04 -1.99389E+04 -3.57177E+04
  8.13608E+03 -3.29356E+04  2.69759E+04 -1.62242E+04  3.05959E+04  1.38969E+04  9.19626E+01  1.93529E+04
 -1.30400E+04  8.38112E+03 -1.17303E+04 -8.83397E+03  4.09306E+03 -7.47101E+03  1.92918E+04  6.11268E+03
  1.20636E+04  2.19071E+04 -1.35745E+04  2.36191E+04 -2.49231E+04  9.69906E+03 -2.57983E+04 -5.53488E+03
 -1.62163E+04 -1.82240E+04 -3.87169E+03 -1.24412E+04  3.62399E+03 -2.28722E+04  1.04169E+04 -1.15316E+04
  2.36279E+04 -1.19611E+04  2.92274E+04  2.92654E+03  2.24694E+04  1.93359E+04 -7.50650E+02  3.39819E+04
 -1.25217E+04  2.63264E+04 -2.72184E+04  1.06763E+04 -1.99310E+04 -7.84367E+03 -1.31328E+03 -1.14899E+04
  4.97564E+03 -4.60274E+03 -2.40994E+03  3.69798E+03 -1.51611E+04  5.09033E+03 -1.40595E+04 -5.95305E+03
 -9.90625E+03 -2.06003E+04  4.52822E+03 -2.34005E+04  1.55146E+04 -1.31816E+04  1.51517E+04  5.89683E+01
  1.09943E+04  9.25849E+03 -2.29112E+03  1.62352E+04 -1.29276E+04  7.50979E+03 -1.35381E+04 -3.02584E+03
 -1.13031E+04 -1.66940E+04  2.24484E+03 -1.63711E+04  9.73529E+03 -8.95245E+03  1.67977E+04 -6.83749E+03
  1.58059E+04  3.03035E+03  1.28066E+04  6.55612E+02  9.87295E+03 -5.16912E+01  1.27312E+04  1.63103E+03
  1.40690E+04  6.14135E+03  1.87507E+04  1.32333E+04  8.92608E+03  2.38027E+04  5.60105E+02  2.67555E+04
 -1.81098E+04  2.49314E+04 -2.61820E+04  9.04784E+03 -2.49264E+04 -9.65240E+02 -2.43210E+04 -1.68412E+04
 -8.67081E+03 -2.45469E+04  8.96774E+03 -2.05393E+04  1.75906E+04 -7.14164E+03  1.63953E+04  3.94094E+03
  4.09304E+03  1.01074E+04 -4.58970E+03  1.02525E+04 -1.12519E+04  5.66013E+03 -1.06186E+04 -1.05188E+04
 -7.16393E+02 -2.07235E+04  7.30717E+03 -1.21501E+04  8.77062E+03 -1.31308E+03 -1.30035E+02  4.12175E+03
 -5.17315E+03  2.21379E+03 -5.56027E+03 -6.78120E+03  3.17886E+03 -1.23162E+04  9.24989E+03 -1.20453E+04
  1.15014E+04 -6.05576E+03  1.43860E+04 -1.31274E+03  1.02246E+04  9.39586E+03  8.43220E+03  1.36622E+04
 -3.40323E+03  1.60521E+04 -1.14526E+04  1.18065E+04 -1.29462E+04  3.12440E+03 -1.00666E+04  2.09504E+03
 -1.52081E+03 -4.00782E+03  2.00175E+03  2.43952E+03 -3.68458E+02  2.06278E+03 -1.93101E+03  1.00608E+03
 -5.59954E+03 -3.54009E+03 -7.92307E+03 -8.71490E+03 -2.25523E+03 -1.39811E+04  1.68752E+03 -9.52033E+03
  8.42213E+03 -5.89961E+03  1.12192E+04 -1.97192E+03 -3.47584E+03  2.96084E+02 -1.46975E+03 -9.84695E+02
 -2.25624E+03 -4.00690E+03 -1.48393E+03 -1.10788E+04  4.09209E+03 -1.00464E+04  6.14776E+03 -7.81694E+03
  1.14871E+04  3.62863E+03  9.02339E+03  9.76512E+03  3.73348E+03  5.73648E+03 -5.62304E+03  1.36617E+04
 -6.73607E+03  4.76004E+03 -4.76136E+03 -6.89298E+02  2.91282E+03 -3.11699E+03  4.61058E+03 -5.19551E+03
  7.64091E+03  1.03615E+03 -2.83162E+03  6.60242E+03 -8.47912E+03  2.07316E+03 -2.78278E+03  6.06963E+03
 -6.61501E+03 -7.79176E+03  2.64185E+02 -1.09972E+04  4.37066E+03 -6.21172E+02  6.34738E+03 -9.93067E+02
 -2.91677E+03  4.53796E+03 -4.37661E+03  5.95179E+03 -4.31548E+03 -6.86674E+02 -7.61559E+03  4.24020E+03
 -7.73410E+02 -6.00722E+03  5.08887E+03 -5.75706E+03  4.37382E+03 -2.98691E+03  7.62352E+03 -3.48246E+03
  5.67550E+03  3.69316E+03  3.90283E+03  1.14349E+04 -5.97030E+03  8.19505E+03 -6.77367E+03  9.51570E+02
 -6.78068E+03 -2.28523E+03  4.16823E+03 -7.34827E+03  9.86381E+02 -4.29052E+03  4.52646E+03 -1.00645E+03
  1.31182E+03 -2.62973E+03 -1.24493E+03  5.92298E+03  3.02044E+03 -9.86802E+02 -3.15069E+03 -1.83889E+03
  2.93876E+03 -1.99189E+03  7.07019E+03  3.12419E+02  8.74501E+03  6.79549E+03  5.14153E+03  5.65930E+03
  5.31173E+02  9.20500E+03 -6.30846E+03  3.40825E+03 -1.07372E+04  3.42062E+03 -7.73059E+03 -3.08783E+03
 -3.68764E+03 -5.03507E+03 -1.07980E+03 -2.75936E+03  4.46049E+03 -4.49096E+03  4.51619E+02 -2.53503E+03
  1.56789E+03  2.49765E+03  2.42307E+03  8.45874E+02  3.27837E+03 -4.09552E+03  2.89439E+03 -6.39165E+02
  3.38602E+03  1.62489E+03  1.62990E+03  3.29192E+03 -3.62708E+03  3.83185E+03 -2.80214E+03  2.08438E+03
 -2.17028E+03 -3.51078E+02  1.01013E+03  1.24432E+03  2.88563E+03 -4.77970E+03 -2.18079E+03 -5.66720E+03
  4.86646E+03 -6.43069E+03  6.21311E+03  1.12833E+03  5.17553E+03  3.65800E+03  3.78063E+02  4.98299E+03
 -4.97818E+03  9.12181E+03 -1.04030E+04  6.68815E+02  8.51082E+01 -6.49093E+02  2.00705E+03  2.52269E+03
  6.16177E+02 -3.66394E+03 -4.41951E+03  3.14254E+03 -1.67509E+03 -1.63862E+03 -3.50506E+03 -2.21460E+03
 -3.37102E+03 -6.48960E+03  9.61513E+02 -3.75230E+03  7.92223E+03 -5.81187E+03  3.10141E+03  5.43744E-01
  1.30535E+03  4.05862E+03  3.19451E+03  4.65725E+03 -5.46945E+03  6.92237E+03 -1.92453E+03  4.24459E+03
 -7.71549E+02  1.13051E+03 -6.95972E+03 -8.64830E+03 -1.25164E+02 -1.81124E+03 -8.25119E+02 -2.12018E+03
 -8.52642E+02  1.88848E+03  5.96956E+02  8.33179E+02 -2.43699E+03  3.02958E+03 -5.16628E+02  2.61800E+03
 -2.91703E+03  1.35332E+03  5.42303E+03  1.54426E+03  1.69795E+03  8.81765E+03 -2.19247E+03  3.81699E+03
  4.23713E+03  4.11069E+03 -4.42338E+03  2.93938E+03 -2.96004E+03  1.15271E+03 -4.03036E+03  5.14201E+02
  1.97781E+02 -1.53777E+03 -4.89158E+01 -3.86199E+03  2.46101E+03 -2.36892E+03  1.12095E+03  2.53560E+03
  5.07572E+03  3.72091E+03  3.27918E+02  3.43738E+03 -2.96449E+03 -5.28896E+02 -1.42935E+03 -9.55429E+01
  1.81553E+03 -1.44676E+03  4.17879E+03 -2.20948E+03  1.87668E+03 -2.64375E+03  2.76828E+03  3.74018E+03
 -1.61170E+03  2.21717E+03 -3.26435E+02 -4.86489E+03 -2.29570E+03  7.09186E+03  5.93487E+03  1.58375E+03
  1.84838E+03 -2.77184E+03  1.73492E+03  9.66047E+02 -3.13145E+02  2.34708E+03  3.86397E+03  4.59497E+03
 -2.40759E+03 -2.13187E+03 -8.22588E+03  3.32227E+03 -3.68872E+03 -2.69817E+03 -9.90351E+02 -9.58744E+02
 -3.15825E+03 -4.81869E+03 -2.42838E+02 -1.11437E+03  1.27631E+03 -7.75311E+02 -2.87308E+03 -1.71431E+03
 -1.84845E+03  7.08239E+02  5.05447E+02 -3.62534E+03 -9.75327E+02 -2.46078E+03  2.74991E+03 -3.03360E+03
 -1.00963E+03 -1.17115E+03  1.81660E+03 -1.70393E+03 -1.32101E+03 -1.19078E+03 -3.87936E+03  1.86569E+03
 -2.84280E+03 -3.54752E+02  2.00971E+03  2.34077E+02 -2.18679E+03  1.43951E+02  4.49913E+02  4.96863E+02
 -4.74505E+02  2.18552E+03  5.86520E+02  4.84146E+03  4.55540E+02 -2.87654E+01 -1.39550E+03  1.11200E+03
 -1.04742E+03 -1.49555E+03 -4.99756E+03 -6.10459E+03 -1.89162E+03  3.26646E+03  6.08628E+02 -6.12775E+02
  2.65228E+03  4.37029E+03 -2.35812E+03  6.80332E+02  2.83628E+03  7.60134E+03 -5.25942E+03  9.10986E+02
  5.18951E+02 -8.97211E+01 -2.58463E+02  1.74677E+03  2.41862E+03 -4.66146E+01  2.06677E+03 -6.17718E+03
 -1.14759E+03 -3.24594E+03 -1.90447E+03 -3.59933E+02 -8.30083E+02  1.73154E+03 -5.23465E+03 -1.11314E+03
 -5.37033E+03 -4.31118E+02 -1.92411E+02 -3.58471E+03  5.07272E+03 -9.90683E+02  7.36100E+03 -2.24070E+02
  4.06692E+03 -1.18684E+03 -1.63996E+03  1.42414E+03 -1.36948E+03  2.72073E+03 -5.03181E+03  2.18616E+03
 -2.56485E+03  1.30738E+03  2.56966E+03 -4.97692E+03  1.51469E+03 -4.73660E+02  1.53180E+03  4.51027E+00
 -5.69560E+03 -2.84644E+03  1.81747E+03 -1.53878E+02  2.99392E+03 -2.06679E+03  5.02954E+02 -3.26689E+03
  2.73359E+03 -3.34409E+03  8.40615E+02  4.64232E+03 -2.09111E+03  3.03773E+03  2.39644E+03  1.53615E+03
  1.68398E+03  3.43588E+03 -2.66549E+03  6.93886E+02  1.92179E+03  7.57265E+02 -2.88055E+03 -9.72855E+02
  2.15095E+03  7.32836E+02  1.84694E+03 -4.06487E+03  1.85502E+03  2.22638E+03  8.28097E+02  1.66643E+03
 -2.20192E+03 -2.36666E+02  2.52755E+03  2.51065E+03  2.43163E+03 -2.74304E+02 -4.22629E+03 -4.83520E+03
  1.36984E+03 -1.91079E+03 -4.00757E+02  1.41449E+03 -2.05027E+03  6.99118E+02  1.08427E+03 -1.79697E+03
 -6.34066E+02 -1.09688E+03 -1.86491E+03  8.82844E+01 -5.96885E+02 -3.71579E+02  2.26290E+03 -1.54407E+03
 -9.76139E+02  1.30722E+03  4.84920E+02  1.77484E+03  7.07250E+02 -2.21566E+03  5.25310E+01 -6.36124E+02
  1.06242E+03  1.33204E+02 -9.43112E+02  1.74667E+03 -3.23138E+02  2.86829E+03 -1.45043E+03  3.81824E+03
 -1.22581E+03  3.16422E+02 -6.25405E+02 -7.71312E+02 -2.80597E+03 -2.42415E+03 -2.98196E+03  6.18284E+02
 -2.22612E+01  1.32495E+03  3.26360E+01 -2.29280E+03  3.27940E+02 -2.95327E+03  5.50055E+03 -3.44994E+03
 -8.85512E+02 -9.03325E+02  4.46361E+02  1.76595E+03  3.89114E+03  2.31560E+03 -1.52022E+03  1.13267E+03
