 $NMID ID='MM_0lb_SNR50_18hz_g55_19.RAW', FMTDAT='(8E13.5)'
 TRAMP=1., VOLUME=1. $END
  3.08014E+05  1.56510E+03  3.36611E+05  2.44008E+05  8.39155E+04  3.39805E+05 -1.27592E+05  2.49011E+05
 -1.92142E+05  8.39434E+04 -1.08965E+05 -3.26341E+04  5.40347E+03 -5.08415E+04  5.41090E+04 -2.53998E+03
  3.60645E+04  5.11563E+04 -1.51938E+04  7.82774E+04 -5.60963E+04  6.11539E+04 -8.51702E+04  3.06384E+04
 -7.76683E+04 -1.80894E+04 -5.59059E+04 -4.96461E+04 -1.36953E+04 -6.85164E+04  3.15676E+04 -4.28238E+04
  3.92734E+04  2.77767E+03  1.22267E+04  4.51931E+04 -3.42007E+04  4.54100E+04 -6.90933E+04 -6.04215E+03
 -5.41113E+04 -5.53789E+04 -8.79666E+03 -7.91947E+04  3.13786E+04 -5.58118E+04  4.60798E+04 -1.45536E+04
  4.13639E+04  1.16599E+04  3.41859E+04  2.43959E+04  1.70184E+04  2.47977E+04 -3.17726E+03  2.50660E+04
 -1.90735E+04  1.30472E+04 -1.83343E+04 -3.53567E+03  2.55557E+03 -9.86038E+03  2.14948E+04  1.03621E+04
  4.85974E+03  3.25729E+04 -2.78841E+04  3.38354E+04 -6.16384E+04  9.44122E+02 -4.98585E+04 -4.04434E+04
 -1.28409E+04 -6.47642E+04  3.93365E+04 -4.96317E+04  5.64532E+04 -2.91807E+03  3.07945E+04  2.86066E+04
 -3.64943E+03  3.94692E+04 -2.64578E+04  1.77546E+04 -2.79802E+04 -5.96336E+03 -1.89618E+04 -6.95084E+03
 -1.01715E+04 -1.66462E+04 -3.00265E+02 -1.19494E+04  3.62257E+03 -2.37642E+04  1.81104E+04 -1.21513E+04
  1.53662E+04  8.67977E+02 -4.56776E+03  1.22598E+04 -1.97610E+04 -2.27595E+03 -7.94727E+03 -3.18929E+04
  2.14903E+04 -4.22100E+04  4.59012E+04 -1.95714E+04  4.62676E+04  1.70758E+04  1.85707E+04  4.33674E+04
 -1.33288E+04  3.40691E+04 -2.44058E+04  2.92241E+03 -8.95835E+03 -2.58981E+04  2.26827E+04 -3.27667E+04
  3.43616E+04 -1.07001E+04  3.14409E+04  2.49294E+04  1.52871E+04  4.28288E+04 -1.09198E+04  4.83042E+04
 -2.98482E+04  2.58776E+04 -3.92948E+04  1.15087E+04 -4.25519E+04 -1.29820E+04 -2.37803E+04 -3.64467E+04
  1.05511E+04 -3.80149E+04  2.79457E+04 -1.79068E+04  2.99862E+04  1.40733E+04  1.90613E+03  1.55205E+04
 -1.17642E+04  5.89928E+03 -8.13485E+03 -7.30568E+03  9.52108E+03 -8.51328E+03  1.90996E+04  6.49111E+03
  1.31999E+04  2.33315E+04 -5.15014E+03  2.42375E+04 -2.11509E+04  1.04310E+04 -2.25267E+04 -5.39079E+03
 -2.14422E+04 -1.66760E+04 -9.52420E+03 -2.23032E+04  3.47809E+03 -1.54442E+04  1.14105E+04 -1.46439E+04
  2.53729E+04 -1.20962E+04  3.20602E+04  2.95453E+03  2.58464E+04  2.13816E+04  5.87994E+03  3.67507E+04
 -1.51658E+04  3.12339E+04 -2.38583E+04  1.51711E+04 -1.65447E+04 -1.17461E+04 -6.97837E+03 -1.31811E+04
  4.34153E+03 -4.69717E+03 -4.26143E+03  8.93266E+03 -1.28235E+04  3.68116E+03 -2.14357E+04 -1.31345E+03
 -9.27167E+03 -1.77120E+04  8.47987E+03 -2.16469E+04  1.32839E+04 -1.45954E+04  1.57378E+04 -2.13939E+03
  8.31942E+03  8.32515E+03 -2.15124E+03  1.72711E+04 -7.36934E+03  9.99818E+03 -1.72396E+04 -3.42443E+03
 -1.16286E+04 -1.02176E+04  3.14475E+02 -2.19076E+04  1.24755E+04 -1.78866E+04  1.71653E+04 -6.48024E+03
  1.80267E+04  1.77012E+03  1.09349E+04 -1.35331E+03  6.23183E+03  4.37102E+02  9.69003E+03  4.25465E+02
  1.29507E+04  7.01494E+03  1.80462E+04  1.06277E+04  1.10760E+04  2.83318E+04 -2.99835E+03  3.02641E+04
 -1.55190E+04  2.24002E+04 -2.55637E+04  1.23129E+04 -2.76932E+04  5.53652E+02 -2.03049E+04 -1.53495E+04
 -1.33403E+04 -1.70069E+04  5.71516E+03 -2.26958E+04  1.50625E+04 -7.01304E+03  1.85774E+04  6.05291E+03
  7.30756E+03  9.62230E+03 -9.09004E+03  8.19488E+03 -1.30337E+04  3.13298E+02 -9.69897E+03 -1.21194E+04
 -2.24159E+03 -1.42692E+04  6.13215E+03 -1.13997E+04  7.93749E+03  1.59831E+03  2.40095E+03  6.22951E+03
 -5.11550E+03  2.07644E+03 -5.57581E+03 -5.53950E+03  2.75644E+03 -9.30243E+03  6.10508E+03 -1.00367E+04
  1.29201E+04 -7.47214E+03  1.18612E+04  1.13010E+03  1.16417E+04  1.08547E+04  6.05264E+02  1.22931E+04
 -4.79133E+03  1.74193E+04 -1.05957E+04  9.42882E+03 -9.42385E+03  1.86777E+03 -8.11020E+03 -1.68804E+03
 -7.86990E+03 -5.42599E+03 -1.56965E+03  5.86354E+03  6.66993E+02 -2.13926E+03 -3.52889E+03  3.16005E+03
 -1.24093E+04  2.67002E+03 -1.10505E+04 -8.95734E+03  3.97265E+02 -1.32912E+04  8.41675E+02 -1.11290E+04
  1.00569E+04 -3.96118E+03  5.22242E+03  3.00349E+03  8.56347E+01  2.90671E+03 -1.57412E+03 -2.69077E+03
 -4.95340E+03 -8.36303E+03 -6.78401E+03 -8.64828E+03  3.00609E+03 -7.62039E+03  1.32258E+04 -7.35748E+03
  1.53632E+04 -2.27799E+03  1.06995E+04  8.58096E+03  2.10467E+03  1.09238E+04 -6.72725E+03  8.22129E+03
 -8.93630E+03  1.99400E+03 -5.79118E+03 -3.30197E+03  3.32804E+03 -5.99391E+03  5.00831E+03 -1.32394E+03
  1.68293E+03  5.86269E+03 -1.54463E+03  3.88427E+03 -4.90178E+03  1.13782E+04 -1.04366E+04  2.97590E+03
 -5.10228E+03 -3.46765E+03 -2.70900E+03 -1.19419E+04  5.40500E+03 -3.77996E+03  7.63314E+03  1.42204E+03
 -7.57422E+02  2.25679E+03 -6.86156E+03  8.41969E+03 -4.22845E+03  4.73968E+03 -5.98732E+03 -3.56828E+03
 -6.63233E+03 -7.16832E+03  3.46044E+03 -7.76230E+03  4.01091E+03 -3.78043E+03  1.19073E+04  2.73217E+03
  1.92780E+03  6.77030E+03 -1.94572E+03  1.00909E+04 -6.97525E+03  7.06095E+03 -5.34237E+03 -3.44243E+03
 -3.44072E+03 -1.53929E+03 -3.36912E+03 -5.14382E+03  4.42930E+03 -3.31290E+03  5.17643E+03 -8.30307E+03
  4.27957E+03 -2.62210E+03 -3.55435E+02  5.65182E+02  4.57520E+02 -9.05116E+02  1.04335E+03 -1.59965E+03
  6.88465E+03 -6.10253E+02  3.38233E+03 -2.54975E+03  3.86337E+03  6.24326E+03  2.12830E+03  6.99305E+03
  1.83794E+03  7.43086E+03 -2.76714E+03  1.04594E+04 -7.71650E+03  2.90591E+03 -1.44134E+04 -2.69024E+03
 -9.95958E+03 -3.98123E+03 -2.69088E+03 -7.00473E+03  2.12841E+03 -4.43424E+03  1.43788E+03 -3.85075E+03
  1.31609E+03 -4.91606E+03  2.25645E+03  1.03262E+02  2.58576E+02  2.55881E+02  4.82896E+03  2.01870E+03
  4.78834E+03 -2.93127E+03  1.70498E+03  7.62620E+03 -4.87263E+03  1.59173E+03 -2.56801E+03  1.95047E+03
 -4.38800E+03 -1.43029E+03 -1.89697E+03 -5.95374E+03 -1.12904E+03 -7.91913E+03  3.50580E+03 -4.35763E+03
  5.74807E+03 -5.69098E+03  5.54104E+03  3.76309E+02  1.24871E+04  4.17292E+01 -8.51416E+01  7.26654E+03
 -1.17494E+03  8.11912E+03 -3.82072E+03 -3.47180E+02 -1.24040E+02 -1.87694E+03 -1.13658E+03  2.00892E+03
 -2.62860E+03  1.97913E+02 -2.62959E+03  2.57140E+02 -5.28100E+03  1.63127E+03 -5.91572E+03 -3.10076E+03
 -4.33301E+03 -6.62473E+03 -1.21134E+03 -5.12004E+03  1.96194E+03 -6.36444E+03  1.70266E+03  1.42166E+03
  4.42251E+02  5.29038E+03  5.76636E+02  2.52868E+03 -2.19785E+02  4.46746E+03 -1.44733E+03  6.47978E+03
 -3.05494E+03  1.14778E+03 -3.45350E+03 -4.64883E+03 -1.16378E+03 -4.65248E+03  3.24283E+03 -4.43123E+03
 -2.02138E+03  1.18616E+03  7.45636E+03  2.20581E+03 -1.81017E+03  9.73759E+02  2.40672E+03  3.59843E+03
  2.25569E+03  2.67496E+03  3.77022E+02 -2.39904E+03  8.59812E+02  1.78041E+03  3.68698E+03 -7.31483E+02
 -2.02402E+02  9.45632E+02 -5.18424E+03  3.81912E+03 -2.17671E+03  1.56647E+03 -5.60562E+03  2.41375E+03
 -1.84895E+03 -1.61652E+03  1.47493E+03 -4.43358E+03  4.28208E+03 -7.69068E+02  5.35564E+03  2.40374E+03
  3.40963E+03 -3.41325E+03  8.08240E+02  3.60164E+03 -4.39365E+03  3.57101E+03 -2.87032E+03  2.47860E+03
 -3.73530E+03  5.68939E+02  1.28822E+02 -2.17280E+03  6.83535E+02 -1.82258E+03  8.27034E+02 -2.89037E+03
 -1.45747E+02 -2.05984E+03  1.12193E+03 -2.81652E+03  9.35760E+02  2.23745E+03 -2.36793E+03 -3.55174E+03
  1.68535E+03  1.81442E+03  4.98596E+03  3.80449E+03  2.33728E+03  1.60968E+03 -7.19637E+02  3.31982E+03
 -1.19411E+03  7.56445E+02 -1.97469E+03 -1.32446E+03 -7.03246E+03 -5.11233E+02  4.74641E+02 -1.94620E+03
 -1.10483E+03  7.98452E+01  6.13874E+02 -5.15099E+03  1.34357E+03 -1.58695E+03 -2.89759E+03  6.95069E+03
 -1.97489E+03  2.00499E+02  5.92801E+02  5.19260E+02 -8.62277E+02 -1.68114E+03 -3.49822E+03  7.38833E+02
 -7.49403E+01 -1.80451E+01  9.89222E+02  2.91419E+03  2.12094E+03  1.11354E+03  2.40753E+03  5.15456E+03
 -1.48726E+03  1.71982E+03  4.04381E+02 -3.68348E+03 -1.03650E+03  2.33861E+03  8.85915E+02 -9.75319E+02
 -1.65245E+03  8.89727E+02  2.23717E+03  3.31632E+03 -1.69482E+03  1.03798E+03 -2.95827E+03 -7.19188E+02
  1.84885E+03  3.84865E+03  3.24983E+02  9.28137E+02 -4.00206E+03 -1.02248E+03  1.31532E+03  4.11256E+02
  3.20117E+03 -2.22600E+03 -2.42885E+03 -7.06233E+02 -1.49061E+03 -4.34137E+02 -2.37626E+03  2.24556E+02
  2.25248E+03  1.68460E+03  4.27502E+03 -3.80429E+03 -1.49399E+03  1.75038E+03  4.18311E+02  3.18915E+03
  2.77731E+02  2.46592E+02  6.93368E+02  4.13707E+03  6.02721E+01 -7.06190E+02 -5.50130E+03  1.65790E+02
  5.67964E+02 -8.81987E+02 -1.53064E+03 -4.12655E+03 -2.15559E+03 -3.28906E+03  1.98556E+03 -1.67115E+03
 -1.30452E+02 -2.69016E+03 -1.08778E+02  3.32156E+03  6.53656E+02  3.23063E+03 -3.92977E+03  3.44041E+01
 -2.48292E+03 -3.00743E+02  2.81943E+02 -1.67393E+03 -1.40890E+03  2.74956E+03 -4.04075E+03 -1.40739E+03
 -1.68106E+03  2.51506E+03  6.44769E+02 -2.28909E+03  6.04485E+03 -1.76247E+03 -5.23147E+03 -1.36754E+03
 -1.03000E+03  2.40144E+03  1.10235E+03  4.50123E+02 -2.51169E+03  1.64355E+03 -2.49811E+03  4.00875E+03
  3.11422E+03  2.80882E+03 -1.08856E+03  3.19935E+03 -2.36732E+03 -3.59864E+03  9.77210E+02 -2.40884E+03
 -4.35104E+02  1.55418E+03 -1.40988E+02 -4.69836E+01  4.15812E+02 -2.90796E+03 -1.69528E+03  3.83809E+03
  6.13247E+02  7.07838E+02 -3.70388E+03 -4.89960E+03 -1.14571E+03 -4.27683E+02  1.25558E+03 -2.31846E+03
  2.09076E+03  2.50599E+02 -3.81820E+03 -1.86739E+02  1.49428E+03 -1.59330E+03  4.94516E+03  3.65866E+02
 -3.86115E+03 -1.42045E+03  2.63605E+02  3.39263E+03 -1.74224E+03 -1.84042E+03  3.48971E+02 -3.50184E+03
 -8.48695E+02 -4.13431E+03  1.01736E+00  5.45419E+03  5.49352E+03 -4.76526E+03 -1.01430E+03  2.58191E+01
 -4.21151E+03  8.63339E+00  7.38207E+02 -1.30216E+03  1.97391E+03 -6.90423E+02  5.04050E+03 -2.53432E+03
  2.78708E+02  2.34309E+03  2.05268E+03  1.84752E+03  6.24369E+01  4.58919E+03 -2.19517E+03 -1.50441E+03
 -3.51982E+03 -6.86660E+02 -5.78711E+03 -1.62371E+03  1.10576E+03 -3.22216E+03 -3.52240E+03  1.60976E+03
 -1.41970E+03 -4.00151E+03 -3.55402E+03  2.35641E+02  5.32570E+03 -7.30945E+02  7.47781E+02  1.82211E+03
