 $NMID ID='MM_0lb_SNR50_10hz_g60_39.RAW', FMTDAT='(8E13.5)'
 TRAMP=1., VOLUME=1. $END
  3.12223E+05  4.46603E+03  3.37138E+05  2.51623E+05  8.76953E+04  3.35002E+05 -1.39961E+05  2.49702E+05
 -1.86293E+05  8.37033E+04 -1.06503E+05 -2.99218E+04  1.19943E+03 -4.89613E+04  5.23191E+04 -1.86163E+02
  3.56582E+04  5.09914E+04 -2.11696E+04  8.11545E+04 -5.94807E+04  6.36898E+04 -8.20229E+04  3.53322E+04
 -8.26690E+04 -1.23424E+04 -5.67350E+04 -4.80407E+04 -1.68479E+04 -7.52427E+04  2.55061E+04 -4.82229E+04
  3.72227E+04  8.62901E+03  2.04443E+04  4.97575E+04 -3.18395E+04  4.46876E+04 -6.22792E+04 -1.38300E+03
 -5.18933E+04 -5.75397E+04 -5.07661E+03 -7.56165E+04  3.10020E+04 -5.97300E+04  4.72099E+04 -1.76455E+04
  4.31913E+04  1.32871E+04  2.82414E+04  2.71309E+04  1.11737E+04  3.25231E+04 -9.97368E+03  2.60138E+04
 -2.02550E+04  9.10245E+03 -1.73103E+04 -7.33638E+03  1.38824E+03 -8.26841E+03  1.89061E+04  1.65098E+04
  3.98676E+03  3.38793E+04 -2.75877E+04  3.85625E+04 -6.52273E+04  4.68623E+03 -5.54317E+04 -4.63071E+04
 -1.18701E+04 -6.29543E+04  3.89110E+04 -4.36969E+04  5.95930E+04  4.40582E+03  3.84158E+04  3.46211E+04
 -1.59771E+03  3.69271E+04 -2.74373E+04  2.39399E+04 -3.08031E+04 -5.25832E+03 -2.07897E+04 -1.87924E+04
 -6.72036E+03 -2.47627E+04 -1.52891E+03 -1.59116E+04  7.75646E+03 -2.29851E+04  2.33822E+04 -1.73656E+04
  8.80189E+03  6.50010E+03 -1.16006E+04  1.22338E+04 -2.64767E+04 -5.93331E+03 -1.09531E+04 -4.02597E+04
  2.77869E+04 -4.12186E+04  5.10058E+04 -2.33147E+04  5.28699E+04  2.38291E+04  1.97497E+04  4.47751E+04
 -1.92106E+04  4.06977E+04 -2.35583E+04  6.06911E+03 -1.70367E+04 -2.95451E+04  1.81468E+04 -4.44149E+04
  4.03478E+04 -3.44906E+03  4.29000E+04  2.07602E+04  2.35137E+04  5.68555E+04 -9.19548E+03  5.50906E+04
 -3.64102E+04  3.61075E+04 -5.05914E+04  4.11649E+03 -4.51338E+04 -2.03552E+04 -2.27835E+04 -4.95280E+04
  4.79451E+03 -4.61747E+04  3.61099E+04 -1.98775E+04  3.14802E+04  8.23109E+03  3.38345E+03  2.01167E+04
 -1.70946E+04  1.00297E+04 -1.17927E+04 -3.65381E+03  7.08188E+03 -1.09127E+04  1.58410E+04  2.27783E+03
  1.18675E+04  2.02986E+04 -2.74592E+03  2.28253E+04 -2.55031E+04  1.32023E+04 -3.20085E+04 -4.92371E+03
 -2.42779E+04 -2.14974E+04 -1.21246E+04 -2.28316E+04  6.18258E+03 -3.07851E+04  1.53855E+04 -2.18926E+04
  2.72245E+04 -1.31697E+04  3.03902E+04  1.04016E+04  2.74081E+04  2.80030E+04  3.15536E+03  4.42195E+04
 -2.24416E+04  3.53825E+04 -3.33565E+04  9.58157E+03 -1.86360E+04 -6.58673E+03 -5.19138E+03 -1.46492E+04
  3.71998E+02 -4.74911E+03 -1.08229E+04  1.09449E+04 -2.25292E+04  9.33539E+03 -2.23939E+04 -1.69492E+03
 -3.10872E+03 -2.23350E+04  7.08818E+03 -2.61818E+04  2.19926E+04 -1.49616E+04  2.31445E+04 -1.35499E+03
  2.05530E+04  1.37964E+04 -1.47529E+03  2.80207E+04 -2.13279E+04  1.33334E+04 -2.53660E+04 -2.12870E+03
 -1.30128E+04 -1.93316E+04 -1.93787E+03 -3.10355E+04  1.32195E+04 -2.06318E+04  2.38048E+04 -7.18024E+03
  2.55265E+04 -8.37753E+02  1.40469E+04  3.70694E+03  9.87876E+03 -3.11240E+01  1.06587E+04 -7.31331E+03
  2.71225E+04  4.23268E+03  2.97820E+04  1.68722E+04  1.55918E+04  4.00167E+04 -3.99224E+03  4.75484E+04
 -2.65348E+04  3.04661E+04 -4.29257E+04  2.23957E+04 -5.02270E+04  1.78185E+03 -3.62704E+04 -2.50971E+04
 -8.64333E+03 -3.87447E+04  1.56760E+04 -3.37649E+04  2.40948E+04 -1.80650E+04  2.32476E+04  1.58916E+03
  1.12967E+04  1.19204E+04 -9.60061E+03  1.66701E+04 -1.99021E+04 -2.54552E+03 -1.34315E+04 -1.35545E+04
  4.30790E+03 -1.48280E+04  1.15179E+04 -1.70833E+04  1.58273E+04 -2.28430E+03  6.61155E+03  1.14872E+04
 -8.53565E+03  7.58610E+03 -1.46426E+04 -7.24660E+03 -4.74555E+03 -2.49884E+04  1.62419E+04 -1.37145E+04
  2.79423E+04 -1.48165E+04  2.08938E+04  1.44683E+03  1.98304E+04  2.30434E+04  9.94444E+03  2.59493E+04
  1.71678E+03  2.75153E+04 -1.87867E+04  2.19146E+04 -2.01917E+04  2.71380E+03 -1.26896E+04 -5.52016E+03
 -2.22100E+03 -5.44123E+03  6.21391E+03 -3.94596E+03 -1.32685E+03 -3.77785E+03 -8.62555E+03 -4.00854E+03
 -1.70108E+04  5.32992E+03 -1.82792E+04 -1.39419E+04 -8.20201E+03 -1.10645E+04  1.02059E+04 -1.57250E+04
  1.73206E+04 -7.36251E+03  7.58873E+03  1.03411E+04 -2.61175E+03  1.08434E+04 -1.44193E+04 -1.83034E+03
 -5.80092E+03 -1.19877E+04  1.07528E+02 -8.57116E+03  8.11575E+03 -1.46517E+04  2.42340E+04 -1.21509E+04
  2.01879E+04  4.67015E+03  1.54497E+04  1.59035E+04  1.19223E+03  1.89805E+04 -7.60090E+03  1.03976E+04
 -1.13365E+04  8.41972E+03 -8.97068E+03 -1.03939E+03  1.71657E+02 -6.78143E+03  5.61773E+03 -5.39262E+03
  5.89043E+03 -2.37229E+03  6.13413E+03  1.25760E+04 -1.11212E+04  1.36363E+04 -1.36518E+04  2.25329E+03
 -7.60192E+03 -1.33354E+04  1.21190E+03 -1.37514E+04  7.20922E+03 -5.24697E+03  1.07031E+04  6.26000E+03
 -7.04916E+02  1.46373E+04 -1.25573E+04  1.71333E+04 -2.09713E+04  1.84723E+03 -1.56826E+04 -2.79621E+03
 -5.78923E+03 -1.83104E+04  8.77118E+03 -2.34158E+04  1.48515E+04 -1.38045E+04  1.50317E+04  5.39294E+03
  5.49070E+03  1.25839E+04  5.11174E+03  1.34281E+04 -9.18770E+03  2.15548E+03 -1.21792E+04 -5.17848E+03
 -1.21241E+04 -1.13928E+04 -1.02755E+03 -7.20792E+03  5.87525E+03 -4.94797E+03  1.05449E+04 -2.30343E+03
  1.03395E+04  7.87093E+02 -2.22422E+02 -5.39076E+03  6.87621E+01 -6.35900E+03  5.60773E+03 -9.61901E+03
  8.24272E+03 -7.76126E+03  1.69813E+04  3.51847E+03  1.38528E+04  1.42215E+04  1.00895E+04  2.15751E+04
 -6.82342E+03  2.30295E+04 -1.72368E+04  1.56213E+04 -2.31038E+04  6.70522E+03 -2.16559E+04 -2.12109E+03
 -8.23901E+03 -1.27040E+04 -3.21523E+03 -1.77672E+04  2.64805E+01 -1.20637E+04  4.41178E+02 -1.03524E+04
  7.50580E+03 -3.76683E+03  1.23910E+03 -5.22949E+03  9.68116E+03 -2.16980E+03  7.40786E+03  4.83452E+02
  9.41354E+03 -1.25035E+03  7.10620E+03  1.21681E+04 -5.63479E+03  1.49010E+04 -1.24392E+04  9.98430E+03
 -1.19166E+04 -4.87900E+03 -7.29324E+03 -6.86156E+03 -6.48162E+02 -1.43301E+04  9.86453E+03 -1.36794E+04
  1.87904E+04 -9.41813E+03  1.94699E+04 -1.69783E+03  1.20925E+04  1.74019E+04 -9.24432E+02  1.80616E+04
 -9.71435E+03  1.18264E+04 -1.41414E+04 -1.07357E+03 -5.70158E+03 -2.32679E+03  1.01690E+03 -1.00040E+03
 -2.79313E+03 -5.73757E+03  2.28511E+03  1.72732E+03 -1.09695E+04  3.81851E+03 -6.51184E+03  2.66692E+03
 -1.11622E+04 -8.99745E+03 -1.51791E+03 -9.11623E+03  6.47803E+03 -1.51972E+04  1.25601E+04 -4.08732E+03
  8.89547E+03  1.37379E+04  1.07779E+04  1.08150E+04 -3.10883E+02  1.52069E+04 -1.08160E+04  9.65916E+03
 -1.86668E+04 -1.98230E+03 -1.30802E+04 -5.37053E+03  2.88158E+03 -1.02505E+04  4.10626E+03 -7.92328E+03
  1.06296E+04 -3.36578E+03  3.51364E+03  3.27839E+03  3.50954E+03  5.84961E+03  4.30778E+03  4.83216E+03
 -6.67501E+02  5.20230E+02  8.26560E+02  3.54104E+03  1.54158E+02  2.47707E+03 -1.46727E+03  8.70890E+03
  4.68855E+03  1.27445E+04 -6.89143E+03  8.35373E+03 -1.68453E+04  8.94860E+02 -1.55286E+04 -3.36070E+03
 -3.51022E+03 -1.08934E+04 -1.96710E+03 -2.01389E+04  1.11063E+04 -8.01788E+03  1.43672E+04 -2.80027E+03
  7.15195E+03  9.85878E+03  3.22394E+03  6.71696E+03 -2.64053E+03  2.22878E+03 -5.35942E+03 -8.12988E+03
  3.01326E+03 -1.88666E+03 -1.28128E+01 -6.12875E+03  1.02268E+04 -2.35447E+03  4.31976E+03 -2.24901E+03
  1.63894E+04 -2.86898E+02  4.93437E+02  1.52245E+03  1.04541E+03 -4.96450E+03 -3.77600E+02  6.27038E+03
  6.10855E+03 -4.14974E+03  6.02642E+03  4.07229E+03  3.79253E+03  2.03875E+03 -1.99936E+03  1.00028E+04
 -8.74896E+01  1.05109E+04 -4.04762E+03 -2.59312E+03  1.78683E+03  8.02689E+02 -2.38347E+02 -1.12215E+04
  1.16895E+03 -6.88559E+03  1.04388E+04 -6.27638E+03  3.49247E+03  2.61227E+03 -2.00886E+03  8.60936E+03
 -1.06361E+04 -1.68355E+03 -5.63362E+03  2.60696E+03 -2.53882E+03 -8.70300E+03  5.37876E+03 -5.80728E+03
  7.15349E+03 -1.08303E+03  5.98710E+03 -1.11220E+03  5.44020E+03  4.09198E+03 -5.28579E+02  8.02752E+03
 -5.31936E+01  5.50374E+03  3.46135E+03  2.27825E+01 -7.61363E+02 -4.07665E+03  2.78985E+03 -5.33576E+03
  6.35147E+03 -2.21611E+03  3.28160E+03  8.76998E+03  6.96535E+02  9.03295E+03 -1.94643E+03  8.63620E+03
 -8.79702E+03  2.19658E+03 -1.05812E+04 -1.73876E+02  1.58936E+03 -1.03135E+04  8.72987E+02 -1.09360E+04
  4.69013E+03 -2.29232E+03  8.54289E+03 -7.91900E+02  1.81475E+03  1.20528E+04  5.52775E+03  3.68709E+03
 -4.36279E+01 -2.59864E+03 -6.45680E+03  2.22188E+03 -2.64768E+03  3.07549E+03 -3.97535E+03  1.55469E+03
 -2.85651E+03  8.61532E+03 -9.81021E+03  3.82338E+03 -7.58921E+03 -2.39530E+03 -9.14870E+03 -9.58647E+03
 -4.11128E+03 -1.93358E+04  2.05116E+03 -1.24432E+04  8.70324E+03 -1.61518E+04  1.07780E+04 -4.50380E+03
  9.22805E+03  3.45723E+03  6.74326E+03  6.43367E+03 -3.28319E+03 -6.14601E+01 -6.64844E+03  1.29019E+04
 -4.66410E+03 -3.01407E+03  1.81959E+03 -9.56433E+02 -8.42635E+03 -1.46986E+03 -1.06146E+03  8.97368E+02
  6.25243E+03  8.13385E+02 -2.10480E+03  4.39915E+03 -2.90557E+03 -1.91364E+03 -3.22073E+03 -3.45898E+03
  5.62331E+03 -4.42373E+03  1.31442E+04  4.94586E+03  6.96577E+03  8.27020E+02  4.97162E+03  5.89391E+03
 -5.20767E+03  8.01036E+03 -1.29349E+04  8.09786E+03 -1.32559E+04  3.97905E+02 -1.00109E+04 -7.57396E+03
 -3.64273E+02 -8.86337E+03  5.31448E+02 -9.17542E+03  4.53426E+03 -4.97479E+03  8.69007E+03  2.16146E+03
  5.11428E+03  8.66803E+02 -3.63366E+03 -1.63755E+03 -5.84798E+03  1.86094E+03 -1.32678E+03 -3.13690E+03
  3.78149E+03  4.19618E+03  3.50898E+03  7.25845E+02  1.51199E+03  1.73446E+03  5.15880E+03 -1.92992E+03
 -3.26479E+03  1.33110E+03 -4.84408E+03 -1.91268E+03 -1.46189E+04 -1.12758E+04 -3.50689E+03 -1.27296E+04
  5.75571E+03 -8.60563E+00  6.66089E+03 -3.67012E+03  9.16251E+03 -1.41080E+03  7.63000E+03  8.11273E+03
  8.85000E+02  5.91640E+03 -3.08142E+03  7.56570E+03 -2.72768E+03  1.51203E+03 -4.14473E+02  2.96878E+03
 -3.22245E+03 -2.46970E+03 -2.93408E+03 -2.31033E+02 -3.45325E+03 -3.58450E+03 -5.82485E+03  5.30279E+03
 -1.08367E+04 -6.75911E+02 -4.64462E+03 -2.77113E+03  9.68027E+02 -6.58942E+02  1.03827E+04 -1.15872E+03
  3.52299E+03  1.88343E+03 -1.32991E+03  5.82765E+03  2.39949E+03  6.01707E+03 -9.00055E+03  2.58362E+03
