 $NMID ID='MM_0lb_SNR50_13hz_g40_5.RAW', FMTDAT='(8E13.5)'
 TRAMP=1., VOLUME=1. $END
  3.07113E+05 -2.50202E+03  3.36125E+05  2.45869E+05  8.28645E+04  3.39891E+05 -1.29419E+05  2.47700E+05
 -1.89557E+05  8.44495E+04 -1.13539E+05 -2.91368E+04  1.33931E+03 -5.68696E+04  5.58531E+04 -1.48148E+03
  3.57926E+04  5.72829E+04 -1.54755E+04  7.27143E+04 -5.81619E+04  6.66064E+04 -8.66651E+04  3.35225E+04
 -7.88360E+04 -7.25210E+03 -5.73214E+04 -5.22600E+04 -1.50107E+04 -6.96436E+04  2.76450E+04 -5.06757E+04
  4.12227E+04  4.85218E+03  1.90339E+04  4.77683E+04 -3.68878E+04  4.68114E+04 -6.78403E+04 -2.38182E+03
 -5.35369E+04 -5.66202E+04 -8.52686E+03 -7.74777E+04  3.39322E+04 -5.21726E+04  4.64673E+04 -1.97699E+04
  4.84374E+04  1.44014E+04  2.91804E+04  2.71177E+04  1.75101E+04  2.92165E+04 -3.07712E+03  2.87783E+04
 -2.26826E+04  1.18052E+04 -2.05767E+04 -3.73736E+03  2.70696E+03 -5.55335E+03  2.35000E+04  1.56694E+04
  6.61865E+03  3.39036E+04 -3.23216E+04  3.82202E+04 -6.48365E+04  2.73719E+03 -5.73763E+04 -3.92656E+04
 -1.23474E+04 -5.77532E+04  4.12805E+04 -4.66352E+04  6.32960E+04 -1.29781E+03  3.23579E+04  2.83789E+04
 -3.25067E+03  3.70784E+04 -2.77317E+04  1.76402E+04 -2.95906E+04 -4.47584E+03 -1.70524E+04 -1.07989E+04
 -8.27463E+03 -1.07263E+04  6.14642E+00 -1.89744E+04  7.79880E+03 -2.84898E+04  1.29738E+04 -1.50872E+04
  1.59516E+04  4.69535E+03 -8.11211E+03  1.34044E+04 -1.74922E+04 -7.25331E+03 -6.97749E+03 -3.56501E+04
  2.31109E+04 -4.19428E+04  5.15349E+04 -2.32879E+04  4.52946E+04  1.98055E+04  1.23729E+04  4.34135E+04
 -1.85879E+04  2.71257E+04 -2.23907E+04  1.14517E+03 -1.38972E+04 -2.85966E+04  2.27082E+04 -3.51427E+04
  3.91088E+04 -1.02921E+04  3.09073E+04  2.43892E+04  1.83564E+04  4.28588E+04 -9.96166E+03  5.02580E+04
 -3.50658E+04  3.14481E+04 -3.89817E+04  1.06155E+04 -4.45681E+04 -1.38310E+04 -2.05984E+04 -3.34249E+04
  9.59212E+03 -4.12389E+04  2.57723E+04 -1.56241E+04  3.05682E+04  8.95783E+03  2.35751E+03  2.38366E+04
 -1.36701E+04  3.98105E+03 -1.18670E+04 -9.42330E+03  3.61760E+03 -1.16710E+04  1.97654E+04  4.60304E+03
  1.23535E+04  2.31898E+04 -5.59986E+03  2.51639E+04 -2.37382E+04  1.14743E+04 -2.82428E+04 -1.90445E+03
 -1.61448E+04 -2.21888E+04 -9.14144E+03 -1.92259E+04  3.52704E+03 -1.93204E+04  1.55792E+04 -2.05844E+04
  2.80144E+04 -1.78530E+04  3.40726E+04  7.38868E+03  2.54159E+04  2.28021E+04 -1.93397E+02  3.76349E+04
 -1.81104E+04  3.40775E+04 -2.90071E+04  6.06304E+03 -2.44619E+04 -1.31254E+04 -5.37301E+03 -1.71401E+04
  3.15531E+03 -5.03339E+03 -3.40830E+03  6.49840E+03 -1.35136E+04  5.15855E+03 -1.45538E+04 -8.80110E+03
 -1.07165E+04 -2.09628E+04  1.54806E+03 -2.34695E+04  1.97594E+04 -1.62647E+04  1.82924E+04 -2.83181E+03
  9.98487E+03  1.15008E+04 -5.70589E+03  2.06593E+04 -1.39365E+04  1.81308E+04 -2.36545E+04 -1.08192E+02
 -1.49227E+04 -2.42100E+04 -2.12587E+02 -1.99161E+04  1.15103E+04 -2.22357E+04  1.62424E+04 -7.90398E+03
  1.68460E+04  2.89667E+03  1.73338E+04  7.14355E+03  1.18845E+04  3.15033E+03  7.58494E+03 -2.84261E+03
  1.64610E+04  4.15776E+03  1.40973E+04  1.28283E+04  1.85745E+04  3.20495E+04 -3.91954E+03  3.30870E+04
 -1.74068E+04  2.48203E+04 -3.77232E+04  1.10029E+04 -3.33018E+04 -2.85555E+03 -2.33126E+04 -1.64723E+04
 -1.15142E+04 -3.04420E+04  1.29958E+04 -2.71844E+04  1.93400E+04 -1.35623E+04  2.09933E+04  7.33693E+03
  1.01570E+04  1.96559E+04 -9.79224E+03  1.20796E+04 -1.61022E+04  5.23984E+03 -1.21431E+04 -4.99830E+03
 -2.16500E+03 -1.90958E+04  7.45601E+03 -1.12910E+04  5.56565E+03 -6.43929E+02  2.75952E+03  6.35136E+03
 -1.05270E+04  5.41017E+03 -5.19978E+03  2.37458E+03  1.87913E+03 -1.44644E+04  1.12800E+04 -1.32202E+04
  1.76886E+04 -2.92188E+03  1.54527E+04  1.35612E+03  1.50317E+04  1.83228E+04  7.12008E+03  2.25733E+04
 -4.51185E+03  1.88286E+04 -1.29911E+04  1.36275E+04 -1.74283E+04  5.63805E+03 -1.00444E+04 -6.82805E+03
 -8.80076E+03 -4.50636E+03 -3.17812E+03  3.96377E+02 -1.13755E+03  2.98737E+03 -3.25308E+03  2.78829E+03
 -1.19389E+04  1.53189E+03 -9.17281E+03 -1.17410E+04 -3.45441E+03 -1.66512E+04  5.13056E+03 -1.16373E+04
  8.66588E+03 -9.94593E+03  4.53174E+02 -1.14320E+02  4.52083E+03  3.23085E+03  4.06092E+02 -8.91961E+01
 -4.40735E+03 -9.76004E+03  5.05425E+03 -5.08413E+03  7.30016E+03 -1.40537E+04  1.03323E+04 -1.55304E+04
  1.58952E+04 -1.32217E+03  1.52143E+04  1.51027E+04  3.62326E+03  1.69631E+04 -3.53310E+03  9.71072E+03
 -1.17935E+04 -1.19985E+03 -7.97083E+03 -3.71950E+03  7.89950E+01  1.74585E+03  5.90539E+03 -1.68744E+03
  4.47382E+03  4.36213E+03 -2.43868E+02  7.06011E+03 -7.04134E+03  9.00920E+03 -1.54244E+04  2.38604E+03
 -3.80956E+03 -1.01859E+04 -1.33531E+03 -7.26578E+03  3.10625E+03 -9.25542E+03  4.24321E+03  5.02004E+03
  6.18809E+02  9.31134E+03 -6.47900E+03  1.08834E+04 -1.24498E+04  4.00997E+02  1.74261E+02 -2.54132E+03
 -8.53704E+02 -1.09995E+04  2.04562E+03 -1.35080E+04  1.23948E+04 -7.01010E+03  7.18199E+03  3.58303E+03
  1.07616E+04  9.74490E+03  1.48625E+03  1.11834E+04 -1.08718E+04  7.87325E+03 -5.69787E+03  5.17187E+03
 -9.40800E+03 -2.52942E+03 -4.67118E+03 -1.31725E+04  4.60789E+03 -9.72263E+03  6.84713E+03 -5.35875E+03
  7.69816E+03 -3.14204E+03 -1.57102E+02  2.03851E+03 -8.48236E+02 -4.33504E+03 -1.51285E+03 -3.59367E+03
  9.02958E+03 -3.90243E+03  9.37124E+03  1.44904E+03  6.65808E+03  4.19392E+03  6.38380E+03  8.87347E+03
  4.28157E+02  1.34273E+04 -1.45993E+04  7.38157E+03 -1.63790E+04  6.35118E+03 -1.72671E+04 -4.73394E+03
 -6.53440E+03 -9.87266E+03 -1.48298E+03 -2.55564E+03  1.05888E+03 -4.73740E+03  9.33741E+03 -2.25743E+03
 -4.05325E+01  2.60851E+03  9.32847E+02 -4.02000E+03  2.30577E+03 -5.94718E+03  7.03502E+03  1.04400E+03
  4.93984E+03 -1.15212E+03  2.84714E+03  3.43709E+03  1.42565E+03  3.56365E+03 -6.15406E+03  6.05687E+03
 -9.97817E+03 -7.91136E+02 -5.72403E+03 -1.03494E+04 -4.93465E+03 -6.11507E+03  9.02296E+03 -1.06033E+04
  1.24065E+04 -7.99800E+03  8.85497E+03  2.50909E+03  6.50017E+03  8.48730E+03  2.33260E+03  1.21017E+04
 -1.41736E+03  9.83752E+03 -4.49003E+03  8.13599E+03 -8.21938E+03 -7.34005E+02 -3.32234E+03  1.74266E+03
 -2.77230E+03 -1.33726E+03 -1.18096E+03  2.30340E+03 -6.90141E+02  5.57945E+03 -6.44364E+03 -4.03459E+03
 -3.96529E+03 -1.74804E+03  1.40850E+03 -4.91014E+03  5.13596E+03 -8.76300E+03  8.26077E+03  1.23812E+03
  8.86441E+03  6.61050E+02  3.85587E+03  5.71680E+03  1.52515E+03  6.50278E+03 -5.47674E+03 -9.65877E+02
 -3.03212E+03  1.62097E+03 -1.01263E+04 -7.79360E+03 -1.80001E+03 -5.72639E+03  4.01600E+03 -1.57492E+03
  2.70179E+02 -8.36866E+02  3.10922E+03 -2.02161E+02  3.47585E+03  5.06108E+03 -2.04868E+02  3.99975E+03
  4.17131E+03  9.98159E+02 -6.02694E+02 -3.15343E+03 -1.91157E+03  1.70608E+03  5.53802E+03  3.65148E+03
 -2.05073E+03  4.00607E+03 -6.15713E+03  6.74114E+03 -1.01749E+04  6.29038E+02 -7.99322E+03 -2.82919E+03
  1.56626E+03 -9.98024E+03  1.50091E+03 -1.14440E+04  3.17943E+03 -7.74478E+03  5.70756E+03 -5.55983E+03
  5.47918E+03  7.77494E+03  6.37939E+02  6.63404E+03 -2.48365E+03  2.54635E+03 -2.82245E+03  2.87232E+03
 -6.83259E+03 -4.05865E+03  2.79282E+02 -4.29888E+03  7.48313E+03 -5.05800E+03  2.55410E+03 -6.57896E+02
  4.38023E+03 -3.19934E+03 -4.12134E+02  9.00969E+02 -2.41115E+03  5.75869E+02  2.44077E+03 -3.16649E+03
  2.84442E+03  1.03190E+03  4.52563E+03  5.81050E+03  6.63692E+02  1.01068E+03  3.98111E+03  2.12520E+03
 -9.76733E+02  9.84428E+02 -2.56062E+03  3.69734E+02 -1.93159E+03 -1.73235E+03  7.78391E+02 -1.68463E+03
 -3.26055E+03 -3.45398E+03  6.53383E+03 -1.69188E+03  7.60926E+02 -4.37012E+02 -1.21069E+03  5.56675E+03
 -3.80276E+03 -6.42527E+03 -8.94975E+03 -6.73297E+02 -2.18076E+03 -3.51519E+03  2.82020E+03 -3.48512E+03
  3.69336E+03  7.95140E+02  3.75840E+03  4.68973E+03 -8.33119E+02 -4.56777E+02  1.67708E+03  2.20952E+03
 -2.98055E+02 -3.60384E+02 -2.13487E+03 -2.16801E+03  1.78449E+03 -3.15752E+03  7.06207E+03 -4.29836E+03
  8.95441E+03  2.63474E+03  4.04908E+03  4.49193E+03  5.31923E+02  4.42372E+03 -3.08905E+03  1.66566E+03
 -4.26238E+03 -2.05737E+03 -8.59982E+03 -3.03695E+03  1.51931E+03 -3.07275E+03  1.10084E+02 -4.59975E+02
  1.24482E+03 -1.05891E+01  5.23415E+02  6.26347E+03 -3.43641E+02  8.48551E+03  1.21696E+03 -2.22939E+02
  1.32683E+03  7.88825E+03  1.29121E+03 -1.61234E+03  7.46210E+02  3.72483E+03  5.62310E+02 -2.10132E+03
  5.85602E+03  5.80621E+03 -1.49165E+03 -8.21926E+02 -6.11956E+03 -4.25933E+03 -1.94932E+03 -6.06038E+03
 -3.74286E+03 -9.07269E+03  7.51928E+02 -8.60616E+03  3.93579E+02 -5.62138E+03  3.73698E+03  5.99053E+02
  7.26482E+03  1.51743E+03 -1.61022E+02  6.51364E+03 -4.08869E+03  7.85320E+03 -4.08574E+03  3.91552E+03
 -3.14271E+03 -3.60331E+03 -3.57407E+03  1.38646E+03 -1.15239E+03 -2.06995E+02  9.27964E+02  1.03152E+03
  2.15897E+03 -1.77288E+03  2.99235E+03  2.03867E+02  2.26388E+03 -6.42370E+03  5.50634E+02 -3.37339E+03
  1.10260E+03  2.04571E+03 -1.34933E+03 -5.68791E+03  4.10637E+03  2.96769E+03  3.57055E+02  2.39258E+03
 -1.04146E+03  8.22729E+03 -7.36176E+03  3.05115E+03 -5.73079E+03  5.66626E+02 -5.00846E+03 -8.22198E+02
 -2.76416E+03 -1.80039E+03  1.42652E+03 -5.05816E+03  5.37309E+03 -2.23447E+03 -1.84262E+03  1.79547E+03
 -2.83314E+02  1.93224E+02  2.16992E+03  2.58713E+03 -3.52040E+02 -2.01499E+03  7.45361E+03  7.05700E+03
  3.55855E+03  1.26772E+02 -2.38911E+03  1.15800E+03 -1.18030E+03  4.29630E+03 -3.00577E+03 -1.72856E+03
 -3.56608E+03  1.27200E+03 -6.83222E+03  6.08198E+03 -4.35490E+03 -2.50488E+03 -2.62453E+03 -4.09497E+03
 -1.00934E+03  1.06311E+03 -3.01041E+02 -5.34146E+02  4.20243E+02  1.57776E+03  4.06049E+03  3.79939E+03
  4.27922E+01  3.97871E+03  3.13885E+02  7.04587E+03 -1.25520E+03  3.76365E+03 -6.67365E+02 -1.01300E+03
 -7.73645E+02 -1.32452E+03 -4.22444E+03 -1.58424E+03 -5.13041E+03 -2.17751E+03 -7.75845E+02 -1.32982E+03
  1.51112E+03  3.27282E+03  3.37143E+02 -2.55571E+03 -1.17284E+03 -4.37270E+03 -4.37794E+02  3.31214E+03
  5.46380E+03  1.25711E+03  7.77846E+03  8.26428E+02 -2.50152E+03  3.34580E+03 -5.77619E+03  2.09646E+03
