 $NMID ID='MM_0lb_SNR50_18hz_g55_56.RAW', FMTDAT='(8E13.5)'
 TRAMP=1., VOLUME=1. $END
  3.11295E+05 -6.30938E+02  3.39858E+05  2.50555E+05  8.39860E+04  3.36783E+05 -1.29016E+05  2.53114E+05
 -1.88341E+05  8.21972E+04 -1.13670E+05 -3.09323E+04  6.23981E+02 -4.83032E+04  5.35626E+04 -7.01577E+02
  3.25538E+04  5.37112E+04 -2.09109E+04  7.50523E+04 -5.65696E+04  6.26398E+04 -8.15829E+04  3.54217E+04
 -7.88562E+04 -1.28502E+04 -5.97325E+04 -5.13469E+04 -1.24453E+04 -6.94803E+04  2.88208E+04 -4.61258E+04
  3.98266E+04  5.29262E+03  2.13431E+04  4.96052E+04 -3.16780E+04  4.66597E+04 -6.55693E+04 -4.00504E+03
 -4.90960E+04 -5.67097E+04 -9.35720E+03 -7.85509E+04  3.62464E+04 -5.16390E+04  4.27190E+04 -1.79312E+04
  4.84467E+04  1.23032E+04  3.33490E+04  2.47887E+04  1.46570E+04  3.16833E+04 -5.46326E+03  2.52321E+04
 -2.45681E+04  1.45054E+04 -2.43441E+04 -1.81495E+03  6.92167E+03 -1.07589E+04  2.08621E+04  1.20480E+04
  6.98489E+03  3.79422E+04 -3.26285E+04  3.34339E+04 -6.12635E+04  5.24946E+03 -5.82822E+04 -4.57071E+04
 -1.08662E+04 -5.89027E+04  4.08858E+04 -4.42352E+04  5.96383E+04 -6.66522E+03  2.93827E+04  2.85323E+04
 -8.14005E+03  3.21859E+04 -2.95014E+04  1.28671E+04 -2.84439E+04 -4.12089E+03 -1.25618E+04 -9.23828E+03
 -8.46644E+03 -1.52058E+04  2.72748E+03 -1.62102E+04  6.69810E+03 -2.22704E+04  1.61868E+04 -1.62359E+04
  1.43305E+04  1.34951E+03 -8.40233E+03  7.52223E+03 -1.98266E+04 -5.67966E+03 -1.21049E+04 -3.31787E+04
  2.27585E+04 -4.15984E+04  4.70812E+04 -2.07734E+04  4.24482E+04  1.88531E+04  1.31386E+04  4.02858E+04
 -1.68573E+04  3.63899E+04 -2.38635E+04  6.34262E+02 -9.81802E+03 -2.84786E+04  2.10503E+04 -2.89634E+04
  3.93326E+04 -9.44741E+03  3.55245E+04  1.95070E+04  1.78467E+04  4.37591E+04 -6.21443E+03  4.96430E+04
 -3.10006E+04  3.26145E+04 -4.13014E+04  1.12228E+04 -3.78204E+04 -1.72862E+04 -1.66382E+04 -3.30517E+04
  7.52303E+03 -3.88168E+04  2.71419E+04 -1.31978E+04  2.82642E+04  1.22245E+04  4.18348E+03  1.90859E+04
 -1.52593E+04  1.04634E+04 -8.06444E+03 -6.49413E+03  8.30068E+03 -1.07167E+04  1.77392E+04  9.95197E+03
  1.35278E+04  2.26504E+04 -3.85488E+03  2.42872E+04 -2.12165E+04  1.18561E+04 -2.47600E+04 -7.00123E+03
 -1.76359E+04 -1.59482E+04 -3.76074E+03 -1.95575E+04  3.64245E+03 -1.49282E+04  1.36434E+04 -1.15930E+04
  1.76693E+04 -1.47585E+04  3.10188E+04  3.55120E+03  2.28812E+04  1.90046E+04  5.16799E+03  3.07476E+04
 -1.69001E+04  2.23957E+04 -2.71262E+04  1.05953E+04 -2.08606E+04 -1.09515E+04 -3.34986E+03 -1.44105E+04
  1.57339E+02 -1.85037E+03 -3.45161E+03  9.81460E+03 -1.35425E+04  3.92201E+03 -1.65754E+04 -6.88796E+03
 -1.12971E+04 -1.85470E+04  3.41215E+03 -2.33328E+04  7.60213E+03 -1.11508E+04  1.91259E+04  3.11561E+03
  5.91695E+03  9.92506E+03  8.14817E+02  2.08357E+04 -1.36838E+04  1.25290E+04 -1.56173E+04 -4.59451E+03
 -1.08228E+04 -1.35675E+04 -2.40882E+03 -2.21527E+04  1.02931E+04 -1.82013E+04  1.65705E+04 -4.66126E+03
  1.60057E+04  2.31885E+03  1.40321E+04  2.81498E+03  7.49180E+03  4.85731E+02  9.35456E+03 -5.32798E+03
  1.84069E+04  5.69373E+03  2.03322E+04  1.54783E+04  1.05091E+04  2.31684E+04 -1.70858E+03  3.21802E+04
 -1.85813E+04  2.30205E+04 -2.69106E+04  1.37431E+04 -2.61106E+04 -1.63421E+03 -2.29893E+04 -1.72358E+04
 -1.14160E+04 -2.23752E+04  4.98181E+03 -1.79563E+04  1.45702E+04 -1.02975E+04  1.47689E+04  6.03177E+03
  7.83257E+03  1.25051E+04 -7.06502E+03  1.12004E+04 -1.64249E+04  6.81774E+03 -6.85917E+03 -9.59665E+03
 -1.12234E+03 -1.64413E+04  8.06824E+03 -9.36721E+03  6.79716E+03  1.46034E+03 -5.65234E+02  6.43743E+03
 -5.60917E+03 -1.57266E+03 -6.56712E+03 -4.95243E+03  1.86198E+03 -1.10277E+04  1.10005E+04 -1.08396E+04
  1.13784E+04 -2.12397E+03  1.74489E+04  8.97714E+02  1.69879E+04  1.13123E+04  4.11405E+03  1.56132E+04
 -4.17531E+03  1.51488E+04 -1.23938E+04  1.13008E+04 -9.88300E+03  2.88465E+03 -1.01215E+04 -2.22124E+03
  9.31018E+02 -7.08778E+03 -4.31574E+03  1.79789E+03 -1.33028E+03 -3.64528E+03 -1.91147E+03  4.98279E+03
 -1.02614E+04 -4.04119E+03 -1.02282E+04 -1.13989E+04 -3.56627E+03 -1.73102E+04  6.48975E+03 -1.40540E+04
  4.99659E+03 -5.37387E+03  4.16972E+03  5.48987E+03  2.55776E+03  2.45229E+03 -4.39107E+03  5.55092E+02
 -5.02603E+03 -2.80452E+03  3.64917E+03 -7.82916E+03  1.97587E+03 -8.32316E+03  1.48093E+04 -6.13349E+03
  1.26903E+04  3.51978E+03  1.17380E+04  7.37230E+03  2.53715E+03  1.00605E+04 -6.61964E+03  6.16179E+03
 -9.44818E+03  5.65675E+03 -6.36447E+03 -1.73652E+03 -1.37637E+03  2.17864E+03  7.04041E+03  3.22609E+02
  5.10368E+02 -1.15417E+03  1.98622E+03  8.26881E+03 -3.80281E+03  6.99307E+03 -9.15504E+03  5.05393E+03
 -4.70805E+03 -1.92162E+03 -2.46723E+03 -4.58248E+03  2.33003E+03 -3.51176E+03  1.86413E+03  5.05976E+03
 -4.95215E+03 -8.35534E+02 -2.64284E+03  9.06210E+03 -7.19804E+03  2.33150E+02 -4.38055E+03 -1.74293E+03
 -4.08075E+03 -7.78242E+03  1.89067E+03 -5.62443E+03  4.56248E+03 -8.82624E+03  7.34024E+03  5.39464E+03
  3.37416E+03  6.53255E+03 -1.94845E+03  6.13655E+03 -3.37896E+03  3.41591E+03 -5.98054E+03 -2.23357E+03
 -3.95842E+03 -9.69315E+03 -4.26789E+03 -5.49527E+03  4.77006E+03 -6.20412E+03  5.18388E+03 -1.52753E+02
  1.28629E+03  5.47926E+02 -2.16546E+03 -4.77773E+02 -2.63925E+03 -5.46746E+03 -7.07409E+03 -4.66870E+03
  5.41957E+03  2.47677E+03  8.16526E+03  1.47852E+03  2.78668E+03  9.17317E+03  5.41404E+03  7.05740E+03
 -3.07753E+03  9.26468E+03 -7.24187E+03  5.99457E+03 -1.45388E+04 -5.94702E+02 -6.81831E+03 -3.18390E+03
 -9.56178E+03 -9.27719E+03  5.26750E+03 -4.09348E+03  2.28082E+03 -1.30276E+03  4.06043E+03 -2.41057E+03
  2.19645E+03  2.36055E+02  7.67752E+03 -3.48861E+03  6.56065E+03 -2.40626E+03  2.71431E+03 -7.73072E+02
  1.17601E+04 -1.56353E+03  2.39898E+03  2.23681E+03 -1.29721E+03  2.56170E+03 -2.01771E+03  4.39191E+03
 -5.33700E+03  3.76032E+02 -4.69962E+03 -5.92403E+03 -1.69253E+03 -5.06085E+03  2.47115E+02 -5.33958E+03
  9.28813E+03 -7.66385E+03  8.57019E+03  8.52900E+02  6.55711E+03  3.64248E+03  3.61084E+03  5.97805E+03
 -5.34718E+03  6.02283E+03 -3.31750E+03  2.87665E+03 -2.35897E+03 -2.43165E+03  1.69541E+02 -5.02624E+03
 -1.17298E+03 -5.69429E+02  3.35326E+03  3.01500E+03 -3.94921E+03  7.92191E+02 -5.78888E+03 -6.54454E+02
 -4.10453E+02 -5.90624E+03  5.64168E+03 -8.06542E+02  1.64571E+03 -6.10353E+03  1.47533E+03  2.51744E+03
  3.98759E+03  9.24071E+02  5.99427E+03  5.88282E+03 -1.82524E+03  5.63723E+03 -5.18501E+03  6.34467E+02
 -4.85441E+03  2.59162E+03 -1.86451E+03 -4.98578E+03 -4.96446E+03 -6.07988E+03  5.78453E+02  7.23857E+02
  1.57427E+03 -4.99223E+02  5.29141E+03  2.70897E+03  2.04153E+03  1.72382E+03 -3.70029E+02 -5.40178E+02
  5.68875E+03  3.48289E+03  2.00897E+03  3.02172E+03  4.23725E+02  4.34619E+03  4.18969E+02  4.56651E+03
 -3.37131E+03  5.77220E+03 -2.49590E+03  7.05108E+03 -1.94479E+03 -2.00761E+03 -2.44392E+03  1.69619E+03
 -9.63948E+02 -6.63302E+03  4.88789E+02 -5.00595E+03  4.08825E+02 -2.77041E+03  4.26136E+03 -1.43462E+03
  8.00958E+03  5.36858E+02 -1.99922E+03  4.62750E+03 -9.31245E+02 -5.37708E+02 -4.19634E+03  4.82698E+03
 -6.03031E+03  7.30462E+02 -2.01776E+03 -3.94837E+03 -1.93831E+03 -2.37652E+02 -1.81587E+03  1.45588E+03
 -1.55376E+03  2.86658E+03  3.58152E+03 -2.93486E+03 -3.62988E+03  1.23370E+03 -6.03277E+02  3.15733E+02
  1.08425E+03  3.13434E+03  1.18954E+03 -3.03073E+03 -3.46884E+02  2.44646E+03 -3.07803E+03  1.49834E+03
  1.26020E+03 -2.25753E+03 -1.76326E+03 -3.14526E+02 -1.80381E+02 -1.21353E+02  1.42911E+03  2.00397E+03
  3.85644E+00 -2.12616E+03  6.66922E+03 -4.52779E+03  5.53673E+03 -1.23700E+03 -2.83410E+02  3.09223E+03
 -2.96023E+03 -1.54022E+03  3.31563E+03 -3.20731E+03  6.59238E+01 -1.08120E+03  2.71356E+03 -1.83251E+03
  1.43186E+03  1.99909E+03  3.34545E+03 -9.24341E+02  1.38562E+03  1.43127E+03 -1.16967E+03  2.04064E+02
 -1.71615E+03 -1.46614E+03  1.73009E+03 -2.26214E+03  2.98792E+03 -1.45919E+03  1.26726E+03 -6.51010E+03
 -8.22688E+02 -1.34929E+02  8.89881E+02  4.51868E+03  8.08696E+01  8.70064E+01  9.97618E+02  5.96537E+03
 -3.87198E+03  2.75258E+02 -4.18671E+02 -5.04642E+03 -2.12528E+02 -3.63170E+02 -1.23555E+03 -1.21464E+03
  6.00555E+03  5.32639E+03 -7.21249E+01  2.92267E+02  6.89907E+02  3.09723E+03 -4.65591E+03 -9.83429E+02
 -5.51798E+03  3.19349E+02  2.22265E+03  1.50755E+03  1.55465E+03  1.24347E+03 -9.58651E+02  3.29609E+03
 -2.59044E+03  3.74579E+03  1.43491E+03 -2.70074E+02 -3.14581E+02 -7.17977E+02 -3.00793E+03 -3.08298E+03
 -2.18418E+03 -2.50346E+03  1.47456E+03 -1.94208E+03 -3.52886E+03  2.14024E+03 -2.04975E+03  3.55705E+03
  1.22400E+03  4.16171E+03  1.91943E+03  1.34877E+03 -3.71030E+01  3.51264E+03  1.20263E+03  8.64883E+02
 -7.35272E+02  2.15421E+03 -1.90449E+03  3.14390E+02 -2.78296E+03  3.39386E+03 -6.78867E+03  1.82860E+03
 -3.86720E+03 -1.91078E+03  5.98489E+02  1.33275E+03  2.07749E+03 -2.45535E+02  4.14475E+03 -1.44552E+03
 -8.90023E+02  3.86279E+02 -1.18201E+02 -9.39152E+02  5.12294E+02  5.22586E+01  3.43944E+03  2.52522E+03
 -3.16120E+03  2.51909E+03 -3.55234E+03 -1.14685E+03  1.78943E+03  2.50187E+03 -9.04074E+02  1.25355E+02
 -2.38492E+03  1.61267E+03 -1.03533E+03 -1.24831E+03  2.61064E+02 -2.97514E+03 -1.68384E+02 -2.71915E+03
  3.14907E+03 -2.56492E+03  5.83507E+03 -1.75009E+02 -9.39118E+02  2.61450E+03  8.02961E+02  6.75260E+02
  2.92759E+03 -2.49801E+03  2.64136E+03 -1.44247E+03  3.65761E+03 -2.45244E+03  8.05758E+02  1.22488E+03
 -3.04277E+03  2.10362E+03 -4.95091E+02 -5.61444E+02 -2.68649E+03 -3.03967E+03  5.28485E+03  1.02568E+03
  4.39919E+03  8.56122E+02  1.36474E+03 -1.49647E+03  2.38940E+02 -7.03268E+02 -1.64390E+03 -2.76134E+02
  4.13674E+03  1.80733E+03  8.36253E+02 -7.35910E+02  1.18150E+03 -4.96500E+02 -1.24759E+03 -6.13238E+02
  2.93885E+02  1.22429E+03 -1.01472E+03  3.31448E+02  5.79956E+02  9.68574E+02  5.42284E+03 -2.90752E+03
 -2.58785E+03  4.37693E+03  2.10311E+03  3.35825E+03  1.77888E+03 -4.76447E+03  2.63311E+03 -9.56273E+02
  2.67022E+03  2.72742E+02 -2.01278E+03  2.34654E+03  2.20480E+03  3.24231E+03  2.71660E+03  3.27477E+03
