 $NMID ID='MM_0lb_SNR50_12hz_g55_50.RAW', FMTDAT='(8E13.5)'
 TRAMP=1., VOLUME=1. $END
  3.12059E+05 -2.54611E+02  3.31622E+05  2.58981E+05  8.13059E+04  3.37294E+05 -1.40902E+05  2.51319E+05
 -1.88541E+05  8.48051E+04 -1.14919E+05 -3.10128E+04  6.84701E+03 -5.11636E+04  5.25335E+04  3.33529E+03
  3.55910E+04  5.40450E+04 -1.77945E+04  7.56335E+04 -6.12006E+04  6.62638E+04 -8.64490E+04  2.83911E+04
 -8.35840E+04 -1.84053E+04 -5.73637E+04 -4.71843E+04 -1.45681E+04 -7.25492E+04  3.20179E+04 -5.05718E+04
  4.21212E+04  1.04819E+03  1.62140E+04  4.88583E+04 -3.45790E+04  4.85208E+04 -6.81869E+04 -1.93305E+03
 -5.32427E+04 -5.94392E+04 -1.00657E+04 -7.93633E+04  3.90269E+04 -5.59163E+04  4.93148E+04 -1.56791E+04
  4.45989E+04  1.11267E+04  3.22778E+04  2.39760E+04  1.55715E+04  3.27704E+04 -6.68380E+03  2.72916E+04
 -2.27677E+04  1.30579E+04 -1.84819E+04 -9.87394E+03  7.71752E+03 -8.62639E+03  2.51080E+04  1.54952E+04
  8.64860E+03  3.36583E+04 -3.84815E+04  3.74264E+04 -6.91402E+04  4.62630E+03 -5.84685E+04 -4.46455E+04
 -1.21032E+04 -6.81204E+04  4.31666E+04 -4.27039E+04  5.80992E+04  7.97634E+02  3.65527E+04  3.51442E+04
 -4.35629E+03  4.22870E+04 -2.59923E+04  2.20146E+04 -3.61561E+04 -8.63183E+03 -2.04241E+04 -1.51414E+04
 -8.75532E+03 -1.70036E+04 -5.12134E+03 -1.82707E+04  9.83128E+03 -2.37226E+04  1.57887E+04 -1.17839E+04
  9.92687E+03  4.18018E+03 -7.32407E+03  1.07538E+04 -1.95438E+04 -2.01122E+03 -7.31151E+03 -3.43391E+04
  2.34078E+04 -4.82334E+04  5.42189E+04 -2.36772E+04  4.86731E+04  2.26853E+04  1.75226E+04  4.38901E+04
 -1.66537E+04  3.16622E+04 -2.66053E+04  3.38578E+03 -7.10424E+03 -2.94406E+04  2.42417E+04 -3.66432E+04
  4.41972E+04 -1.06043E+04  3.11311E+04  1.77310E+04  2.30013E+04  4.64414E+04 -1.26958E+04  5.55243E+04
 -2.99868E+04  3.33483E+04 -4.53635E+04  8.29612E+03 -4.75516E+04 -1.69798E+04 -2.39402E+04 -4.22867E+04
  9.46643E+03 -3.77744E+04  3.13404E+04 -1.17812E+04  2.55528E+04  1.25518E+04  4.47265E+03  2.05470E+04
 -1.17105E+04  9.35815E+03 -1.01625E+04 -9.19399E+03  5.18233E+03 -1.07499E+04  1.63727E+04  6.61444E+03
  1.34558E+04  2.58462E+04 -9.47675E+03  2.56506E+04 -2.83206E+04  1.08535E+04 -2.16640E+04 -2.08875E+03
 -1.96247E+04 -2.00368E+04 -1.04773E+04 -2.37211E+04  5.22134E+03 -2.59628E+04  1.70810E+04 -2.15129E+04
  2.94932E+04 -1.01935E+04  3.74957E+04  6.20796E+03  2.65586E+04  2.75474E+04 -5.48126E+02  4.30324E+04
 -1.74069E+04  3.22975E+04 -3.29230E+04  1.60608E+04 -1.99710E+04 -8.59960E+03 -7.59902E+03 -1.53479E+04
  2.55681E+03 -4.03087E+03 -3.21525E+03  5.21838E+03 -1.18792E+04  7.72336E+03 -2.16405E+04 -6.11088E+03
 -1.17640E+04 -2.24612E+04  3.76212E+03 -2.31734E+04  1.91365E+04 -1.48900E+04  1.65970E+04  2.01982E+03
  1.57265E+04  1.63368E+04 -1.35577E+02  1.97933E+04 -1.27292E+04  1.48002E+04 -2.42933E+04 -1.00391E+03
 -1.50586E+04 -2.10510E+04 -1.42977E+03 -2.46883E+04  1.31801E+04 -1.79989E+04  1.81774E+04 -1.25782E+04
  2.21023E+04 -3.41066E+03  1.64961E+04  4.08484E+03  1.10023E+04  7.39822E+02  1.11022E+04 -2.56614E+03
  2.23381E+04  1.43748E+03  1.99058E+04  1.61496E+04  1.94404E+04  2.97781E+04 -5.80811E+03  4.02307E+04
 -1.66059E+04  2.60787E+04 -3.98532E+04  1.66685E+04 -3.88372E+04 -1.81090E+03 -3.17710E+04 -2.41338E+04
 -1.07853E+04 -2.97596E+04  9.41901E+03 -2.53938E+04  2.43895E+04 -1.18685E+04  2.47073E+04  4.83236E+03
  5.87872E+03  1.47611E+04 -6.23041E+03  1.60386E+04 -2.06676E+04  2.43661E+03 -1.39185E+04 -1.46581E+04
 -4.48523E+03 -2.12031E+04  1.42068E+04 -1.45018E+04  1.27592E+04  3.42230E+03  3.77871E+03  3.37048E+03
 -8.68907E+03  9.69782E+02 -6.78782E+03 -9.74632E+03  2.18644E+03 -1.29379E+04  6.09051E+03 -2.09125E+04
  1.47215E+04 -1.03113E+04  2.57692E+04  3.25333E+03  2.26378E+04  1.55843E+04  8.78708E+03  2.17845E+04
  1.01922E+03  2.90782E+04 -1.94385E+04  1.34025E+04 -2.22008E+04 -3.05176E+03 -1.34386E+04 -2.95242E+03
 -3.78253E+03  1.12628E+03 -1.03453E+03  2.94124E+03 -4.11259E+03  2.43486E+03 -4.53404E+03  5.43750E+03
 -1.18580E+04 -3.27386E+03 -1.15067E+04 -9.36722E+03 -6.01142E+03 -2.04132E+04  2.61650E+03 -1.65236E+04
  1.39467E+04  2.67222E+03  1.23169E+04  2.79863E+03 -9.05150E+02  6.63308E+03 -1.04927E+04  1.30664E+03
 -8.00890E+03 -9.74479E+03 -4.31964E+03 -1.37289E+04  1.32219E+04 -1.37427E+04  1.76766E+04 -8.69444E+03
  1.65929E+04 -5.69783E+03  1.47360E+04  1.64195E+04 -2.30228E+02  1.91190E+04 -1.05209E+04  8.43121E+03
 -1.88678E+04  3.10915E+03 -8.20485E+03 -1.72855E+03 -3.67506E+03 -4.34086E+03  2.48507E+03 -3.26854E+03
  1.07021E+04  5.34775E+03  9.41899E+00  1.28215E+04 -6.92150E+03  6.77356E+03 -1.57535E+04  5.99406E+03
 -6.25903E+03 -1.16126E+04  2.53875E+03 -7.48523E+03  5.45201E+03 -6.21681E+03  8.16153E+03 -1.08437E+03
  5.32389E+03  1.02293E+04 -1.00357E+04  4.92102E+03 -1.35722E+04  7.39578E+03 -8.77759E+03 -2.00923E+03
 -7.72398E+03 -1.10027E+04 -9.43386E+02 -1.46235E+04  1.21822E+04 -9.51562E+03  1.29550E+04 -3.78094E+02
  1.22306E+04  9.55183E+03 -7.22499E+02  1.11289E+04 -1.28850E+04  7.26649E+03 -1.29889E+04 -4.75516E+03
 -1.46398E+04 -8.37762E+03 -3.99226E+03 -1.14647E+04  6.14412E+03 -7.51793E+03  7.25171E+03 -2.96706E+03
  7.90133E+03  3.73737E+03 -7.25320E+03  1.55880E+03 -6.32430E+03 -3.82332E+03  6.67201E+03 -1.18968E+03
  9.10331E+03 -3.75132E+02  1.05979E+04  2.82191E+03  1.06956E+04  1.28781E+04  7.14287E+03  1.72377E+04
 -5.65943E+02  1.42972E+04 -1.34622E+04  1.20038E+04 -1.86022E+04  1.26648E+02 -1.52228E+04 -3.31933E+03
 -5.97577E+03 -7.17244E+03 -1.25259E+03 -9.15242E+03  3.56597E+03 -9.67453E+03 -9.19945E+02 -5.13389E+03
  1.68747E+03 -1.89880E+03  1.04887E+03 -2.34802E+03  4.64626E+03 -5.58813E+02  7.77405E+03  8.77133E+03
  8.61230E+03 -3.99686E+03  4.68264E+03  7.53316E+03 -2.78918E+03  1.10283E+04 -1.25081E+04  6.65302E+03
 -1.11673E+04  1.75808E+03 -4.21780E+03 -8.75051E+03 -2.10938E+03 -1.60691E+04  3.86069E+03 -1.40741E+04
  1.38523E+04 -8.42700E+03  1.76980E+04  1.38623E+03  8.44636E+03  9.58005E+03 -6.06497E+02  1.12920E+04
 -2.17768E+03  8.30751E+03 -9.75051E+03  2.50327E+03 -4.34220E+03 -5.53604E+03 -2.50929E+03 -2.64248E+03
 -1.28043E+02 -4.41053E+03 -2.26405E+03 -1.71845E+03 -5.67607E+02  3.18699E+03 -7.12616E+03  1.55555E+03
 -5.40210E+03 -7.79088E+03  3.88398E+03 -9.81245E+03  6.71175E+03 -1.09372E+04  7.52619E+03 -8.73609E+02
  1.51838E+04  1.17435E+04  4.44237E+03  8.80026E+03 -1.48559E+03  1.40866E+04 -7.61029E+03  6.39226E+03
 -1.19042E+04 -1.14547E+03 -6.05594E+03 -7.48861E+03 -4.20619E+03 -1.02027E+04  4.59145E+03 -5.98030E+03
  2.64764E+03 -4.46315E+03  5.11100E+03  1.60434E+03  1.84716E+03  2.92025E+03  1.55098E+02 -1.22239E+03
 -3.32507E+03 -5.50838E+03  5.45984E+03  3.10940E+03 -5.13886E+03  5.48007E+03  6.44132E+03  5.02001E+03
  3.26228E+02  1.31290E+04 -1.04334E+03  1.10966E+04 -1.21139E+04  5.83450E+03 -1.07392E+04 -2.91379E+03
 -1.08403E+04 -1.24428E+04 -1.37053E+03 -9.37433E+03  7.56265E+03 -1.12407E+04  9.61591E+03 -4.53380E+03
  1.05253E+04  4.66127E+03  7.40205E+03  6.11097E+02 -2.08503E+03 -2.36493E+03 -7.95468E+03  1.66126E+03
  3.10231E+03 -5.02952E+03 -2.77802E+02 -7.44845E+03  2.23730E+03  3.44158E+03  9.58099E+03  5.40664E+03
  7.49376E+03  3.04460E+03  5.09611E+03  4.07616E+03 -3.15255E+03 -5.84257E+02  9.25952E+02 -3.29328E+03
 -2.00878E+03 -1.73985E+02  4.51227E+02  3.58706E+03  2.07043E+03  8.97351E+03 -3.07240E+03  1.79453E+03
 -3.38210E+03  5.70712E+03 -2.54993E+03 -7.43401E+02 -9.58235E+03 -2.02224E+03 -3.89498E+02 -5.58926E+03
 -6.19115E+02  4.78108E+02  1.34631E+03 -2.67343E+03  1.70672E+02  2.97824E+03  1.81116E+03  3.75432E+03
 -5.16453E+03  4.84327E+03 -4.03305E+03  6.48878E+02 -7.40420E+03 -1.39150E+04  2.87125E+03 -7.19873E+03
 -1.07098E+03  6.07499E+01  1.06074E+04 -1.84185E+03  6.22613E+03  8.82610E+02  1.02674E+03  4.32043E+03
 -6.16877E+03  1.76900E+03  3.12059E+00 -1.46811E+03  2.18014E+03 -2.12301E+03  2.25376E+03 -5.49082E+02
  2.63178E+03  8.72414E+02  6.99900E+03  4.30372E+03 -6.22034E+02  7.28790E+03 -3.46211E+03  1.11447E+04
 -7.44646E+03 -8.91986E+02 -4.43563E+03 -5.68004E+03 -2.75824E+03 -2.14142E+03 -2.14122E+02  1.20641E+03
  8.54393E+03 -5.57366E+03  9.33183E+01  2.55001E+02  4.45071E+03 -3.27655E+03 -3.12731E+02  5.60475E+03
  4.11152E+03  6.26110E+03  1.13179E+03  9.47265E+02  3.78742E+03 -1.14262E+03 -4.44271E+03  2.81352E+03
 -4.25260E+03  6.92792E+02 -7.62809E+03  2.08709E+03  7.34678E+02  5.17956E+03 -1.25405E+04 -4.51026E+03
 -5.62286E+03 -7.34502E+03 -1.29731E+03 -1.50412E+04  4.42439E+03 -2.63128E+03  1.02766E+04 -1.14536E+03
  3.06915E+03  2.19996E+03  6.32054E+03  5.79042E+03 -5.69676E+03  7.05195E+03 -2.05689E+03  4.19524E+03
 -8.51690E+02  5.34962E+03 -1.98870E+03 -3.35557E+03 -2.25954E+03  3.63348E+03  3.16395E+03  2.99698E+03
 -1.39239E+03 -3.99790E+03 -5.21139E+02 -5.23647E+03  5.75451E+03 -4.69942E+03  2.41752E+02 -2.29603E+03
  2.04576E+02 -5.30011E+03  4.14231E+03 -3.50133E+02  4.01344E+03  1.90603E+03  4.77925E+03  3.67018E+03
 -3.90142E+03  1.10318E+04 -3.80534E+03  1.96994E+03 -1.19400E+04  6.27753E+02 -1.41623E+03 -8.65105E+03
  7.80488E+02 -5.04578E+03  1.40589E+03 -5.34601E+03  6.22370E+02 -7.31854E+03  4.08233E+03 -4.65429E+03
  1.11289E+02 -2.85930E+03 -2.12255E+03  1.71933E+03  3.19600E+02 -5.68880E+02 -1.00049E+03  2.69007E+03
  2.52596E+03  1.81694E+03 -1.97295E+03  2.39321E+03  5.78403E+03  2.37316E+03  1.43772E+03  6.84322E+03
  1.58894E+03 -2.78348E+02  4.00552E+03  6.52407E+03 -2.89704E+03 -5.87310E+03  1.49044E+03 -4.87946E+03
  3.65254E+03 -2.42375E+03  5.70746E+03 -3.59842E+03  1.05475E+03  1.75021E+03  2.50277E+03  4.31709E+03
  3.30381E+03  1.74559E+03  1.65213E+03  5.78599E+03 -3.61194E+03 -5.04658E+02 -4.65233E+03  6.16405E+03
 -9.68037E+02  4.16682E+03 -9.02601E+02  5.39875E+03  9.78575E+02  2.64085E+03 -2.87351E+03 -6.63517E+03
 -5.31686E+03 -5.36349E+03 -2.56672E+03 -1.82310E+03 -3.19838E+03 -2.91395E+03  8.47755E+01  5.43939E+02
  7.63054E+03  4.96072E+03  1.07451E+03  7.65171E+03 -3.65791E+03  8.85857E+03 -7.15521E+03  9.67967E+02
