 $NMID ID='MM_0lb_SNR50_18hz_g55_53.RAW', FMTDAT='(8E13.5)'
 TRAMP=1., VOLUME=1. $END
  3.09798E+05 -2.14872E+03  3.39014E+05  2.51033E+05  8.67057E+04  3.36817E+05 -1.34185E+05  2.49485E+05
 -1.93389E+05  7.92961E+04 -1.13386E+05 -3.15203E+04  3.16385E+03 -4.84502E+04  5.53853E+04  1.48810E+03
  3.12133E+04  5.50211E+04 -1.60885E+04  7.78012E+04 -6.34612E+04  6.36042E+04 -8.25780E+04  3.51215E+04
 -7.70374E+04 -1.18597E+04 -5.70358E+04 -5.13381E+04 -1.28567E+04 -7.13823E+04  2.53940E+04 -4.39904E+04
  4.11520E+04  1.72288E+03  1.64623E+04  4.75232E+04 -3.68596E+04  4.62927E+04 -6.68282E+04 -2.17040E+02
 -5.37034E+04 -5.71625E+04 -9.31446E+03 -7.54426E+04  3.70764E+04 -5.42731E+04  4.53023E+04 -1.83318E+04
  4.53805E+04  1.05738E+04  3.25496E+04  2.16208E+04  1.10839E+04  2.61500E+04 -4.18227E+03  2.63796E+04
 -2.33939E+04  9.97789E+03 -1.49907E+04 -4.42608E+03  2.71527E+03 -7.41155E+03  2.39737E+04  9.18632E+03
  6.00552E+03  3.36351E+04 -2.76093E+04  3.47710E+04 -5.96821E+04  1.10460E+03 -5.60279E+04 -4.28537E+04
 -1.34176E+04 -6.23561E+04  3.95165E+04 -4.36534E+04  5.47633E+04  1.59427E+03  3.14268E+04  2.81414E+04
 -7.06650E+03  3.36429E+04 -3.01070E+04  1.40659E+04 -2.48353E+04 -5.13882E+03 -1.94927E+04 -1.18633E+04
 -8.99371E+03 -1.59644E+04 -5.74920E+01 -1.53031E+04  8.84336E+03 -2.27814E+04  1.31813E+04 -1.18303E+04
  1.31355E+04  4.73156E+03 -6.21877E+03  1.50925E+04 -2.22352E+04 -3.10163E+03 -7.77533E+03 -3.34030E+04
  1.89896E+04 -4.09649E+04  4.49388E+04 -2.01993E+04  4.09123E+04  2.09957E+04  1.23303E+04  4.41309E+04
 -1.67399E+04  3.09543E+04 -2.36136E+04 -2.22627E+03 -9.14970E+03 -2.31384E+04  1.53090E+04 -3.52816E+04
  3.72161E+04 -7.18431E+03  3.36682E+04  2.18896E+04  1.74107E+04  4.11341E+04 -6.72419E+03  5.01865E+04
 -3.10038E+04  2.88526E+04 -4.06985E+04  5.82662E+03 -3.97827E+04 -1.55962E+04 -2.34277E+04 -3.71189E+04
  6.59569E+03 -3.27832E+04  2.55816E+04 -1.56170E+04  2.61069E+04  1.13398E+04  3.41857E+03  1.95719E+04
 -1.47281E+04  4.83203E+03 -1.30170E+04 -7.44020E+03  4.87598E+03 -9.60793E+03  1.54853E+04  4.99490E+03
  1.40899E+04  2.12720E+04 -6.39179E+03  2.30491E+04 -2.65504E+04  6.04536E+03 -2.72029E+04 -6.87929E+03
 -1.90203E+04 -1.50055E+04 -4.27739E+03 -1.66479E+04  2.04149E+03 -1.40697E+04  1.38793E+04 -1.04464E+04
  2.27790E+04 -9.90515E+03  2.99026E+04  3.04065E+03  2.70145E+04  2.04799E+04  3.23064E+03  3.55240E+04
 -1.93931E+04  3.10520E+04 -2.55063E+04  5.48882E+03 -1.72335E+04 -1.03299E+04  5.70624E+01 -1.39351E+04
 -1.32474E+03  1.74062E+03 -3.23348E+03  4.39799E+03 -1.37000E+04  9.10243E+03 -1.18475E+04 -4.92377E+03
 -1.24488E+04 -1.31997E+04  2.65234E+03 -1.90911E+04  1.51978E+04 -1.45168E+04  1.52715E+04 -1.39945E+03
  1.32659E+04  1.25549E+04 -1.74163E+03  1.60556E+04 -1.64569E+04  8.72927E+03 -2.03749E+04 -3.84455E+03
 -1.59053E+04 -1.44717E+04 -1.16260E+03 -2.30124E+04  9.76238E+03 -1.70596E+04  1.70208E+04 -9.52657E+03
  2.24506E+04  8.13781E+02  1.11499E+04  2.65871E+03  4.31579E+03 -1.12449E+02  1.25638E+04 -7.70737E+02
  1.62100E+04  6.20903E+03  1.47474E+04  1.47370E+04  1.08987E+04  2.75368E+04 -5.15929E+03  3.01328E+04
 -1.50327E+04  2.57904E+04 -2.79818E+04  9.24608E+03 -2.59840E+04  1.12760E+03 -2.11146E+04 -1.04656E+04
 -9.88180E+03 -2.14841E+04  4.68947E+03 -2.22258E+04  1.54478E+04 -1.17360E+04  1.38696E+04  1.20432E+02
  9.43640E+03  1.29605E+04 -9.73588E+03  1.05313E+04 -1.26722E+04  2.31406E+03 -1.34045E+04 -5.98202E+03
 -7.31888E+02 -1.64324E+04  8.99127E+03 -1.36875E+04  1.14190E+04 -6.74873E+03 -1.40649E+03  6.55176E+03
 -6.11033E+03  5.06518E+02 -3.54745E+03 -5.63569E+03 -3.63479E+02 -1.57006E+04  1.35540E+04 -7.84725E+03
  8.11942E+03 -8.22022E+03  9.51617E+03  5.41706E+03  1.16996E+04  1.04378E+04  8.16451E+03  1.75024E+04
 -1.90560E+03  2.17900E+04 -8.36117E+03  7.26769E+03 -9.18071E+03  3.50748E+03 -8.63923E+03 -4.16298E+03
 -2.44641E+03 -7.59636E+03  3.61300E+03  5.84131E+03  2.52645E+03 -3.53090E+02  1.20028E+03  4.27814E+03
 -7.78989E+03 -3.30695E+03 -3.65349E+03 -1.20854E+04 -5.22627E+03 -1.44279E+04  4.34962E+03 -9.71272E+03
  7.26098E+03 -2.91401E+03  6.88491E+03 -4.40262E+03 -1.41502E+03  2.94154E+03 -3.82730E+03  2.41325E+03
 -1.11748E+03 -3.48287E+03  1.96562E+03 -1.00494E+04  1.43537E+03 -1.05508E+04  1.35771E+04 -4.76565E+03
  1.46757E+04 -1.49790E+03  8.93632E+03  5.76279E+03  9.22754E+02  8.57105E+03 -6.94151E+01  9.90916E+03
 -6.10599E+03  1.58945E+03 -5.01591E+03  2.51944E+02  3.35767E+03 -1.99052E+03  3.46829E+03  4.04934E+02
  2.25307E+03  6.10723E+03  2.00835E+02  8.84589E+03 -4.37073E+03  7.37990E+03 -8.75145E+03 -4.38822E+03
 -8.35116E+03 -4.01997E+03 -1.49165E+03 -6.27403E+03  4.37835E+03 -6.45205E+03  1.95279E+03  1.11565E+03
  7.65518E+02  2.38020E+03 -1.60267E+02  5.68904E+03 -6.05160E+03  5.36860E+03 -7.95434E+03 -1.58261E+03
 -5.18563E+03 -2.06639E+03  1.27610E+02 -6.28872E+03  5.16236E+03 -1.07043E+03  5.74042E+03 -2.12575E+02
  6.20722E+03  7.71414E+03 -1.11245E+03  5.99311E+03 -1.63212E+03  7.72504E+03 -8.34660E+03 -5.45730E+03
  5.42285E+02 -7.50709E+03 -2.27385E+03 -2.06983E+03  1.17281E+03 -5.26665E+03  3.16364E+03 -2.43394E+03
  1.47252E+03 -1.67207E+03 -3.88011E+03  2.95985E+03 -6.88123E+01 -6.82413E+03  3.11720E+03  9.67564E+02
  6.09577E+03  1.66044E+02  5.09395E+03  1.99299E+02  1.04573E+04  2.56023E+03  5.53367E+03  7.87493E+03
 -1.21337E+03  9.59067E+03 -9.36476E+03  1.38882E+04 -1.34324E+04 -5.84518E+03 -6.77771E+03 -2.29850E+03
 -8.25955E+03 -8.77019E+03 -2.23004E+03 -4.64118E+03  4.73756E+03  7.85724E+02  9.06524E+02  4.19487E+02
 -3.47244E+02 -3.69721E+03  4.97750E+03 -2.25889E+03  3.45284E+03  2.93809E+02  6.34381E+03 -1.06619E+03
  1.82820E+03  1.24536E+03  3.33077E+03  3.47086E+03 -4.11620E+03  5.27609E+03 -5.24446E+03  3.90685E+03
 -6.23634E+03 -2.58753E+03  6.14754E+02 -5.70505E+02 -1.80103E+03 -8.65668E+03  2.52608E+03 -7.54145E+03
  2.88764E+03 -1.94486E+03  7.56375E+03  3.76499E+02  4.89144E+03  4.91143E+03  1.65331E+02  6.20486E+03
 -2.09631E+03  3.77030E+03 -1.89380E+03  3.76801E+03 -8.72374E+02 -7.31232E+02  2.93352E+03 -2.83146E+03
  2.16463E+03 -2.76957E+03  4.55271E+01  3.68612E+03 -2.93514E+03 -9.88177E+02  2.91525E+02 -1.82884E+03
  4.67812E+02 -2.30172E+03  1.74149E+03 -4.58127E+03  6.00003E+03 -5.79781E+03  5.06464E+03  5.83556E+02
  4.32690E+03  3.85342E+03  3.56840E+02  2.83809E+03 -2.47324E+03  1.05835E+03 -8.15311E+03  1.54586E+03
 -7.89022E+03 -2.63121E+03 -3.63625E+03 -1.20003E+03  3.30263E+03 -2.27432E+03  9.36830E+02 -1.17270E+03
  1.06370E+03 -1.51029E+03 -8.82792E+02 -1.13992E+03  3.65061E+03 -2.23851E+03  3.52738E+03  4.27565E+02
  2.95982E+03  1.90063E+03 -4.56494E+02  5.42900E+03  1.41480E+03  4.45013E+03  6.10819E+03  3.04694E+02
 -2.94804E+03  4.66119E+03 -2.02738E+03  3.39376E+03 -1.50809E+03 -4.06200E+02 -7.87868E+03 -3.22253E+03
 -3.30615E+03 -4.12231E+03  5.56092E+02 -7.11532E+03  4.80264E+03 -4.91852E+03  4.17348E+03  2.62736E+03
  1.44286E+03  1.23701E+03  3.86233E+02  5.73867E+02 -4.39008E+02 -4.90178E+02 -1.23113E+03 -5.89854E+02
  3.53282E+02  7.95795E+02  5.50955E+03  7.73896E+02  2.62726E+03  2.30569E+03 -3.07653E+02 -4.98848E+03
  1.72303E+03  6.83330E+03  2.33316E+01  1.79149E+03  1.31464E+02  7.63341E+03  2.80731E+03 -2.94124E+03
  1.22881E+02  5.66131E+03 -2.82683E+02 -3.46089E+01 -1.13551E+03  6.36755E+03 -1.99522E+03  1.32238E+03
  5.27250E+02  6.27619E+02 -6.20228E+03  1.56136E+03  1.10270E+03 -4.19957E+02 -2.16200E+03 -4.61369E+03
  1.38436E+03 -7.83201E+01  1.46028E+01  4.85461E+02  2.28299E+03 -3.95125E+02 -2.30079E+03  2.94033E+03
 -4.35646E+03 -5.22077E+02 -1.69896E+03 -2.25084E+02 -2.81770E+03  1.18062E+03 -1.07296E+03  5.86494E+02
  9.99301E+02  1.01748E+03 -2.00647E+03 -2.07162E+03 -1.59024E+03  1.09260E+03 -1.21952E+03  1.73486E+03
  1.12869E+02 -3.96515E+02 -2.70108E+03 -9.55875E+02  1.62209E+03 -1.07762E+03  3.74989E+03 -6.67515E+02
  4.97855E+03 -4.45207E+03  4.19539E+03 -3.50358E+03 -8.70574E+02 -5.05954E+03  2.60635E+03  2.47374E+03
 -1.44330E+02  6.89563E+03 -2.88473E+03  1.14240E+03 -2.03867E+03 -3.60004E+03  2.51479E+03 -2.82942E+03
  7.29814E+02  1.11526E+03 -1.07266E+03  7.87378E+02  2.60192E+03  2.71665E+03  2.39642E+02  1.23370E+03
 -2.51188E+03  2.20737E+03 -5.32864E+03  1.75885E+03 -3.03540E+03 -2.84955E+03 -3.61364E+03  6.04886E+02
 -2.46254E+03  1.87865E+03 -4.57891E+03  6.26128E+02 -1.09225E+03  1.58050E+02 -6.38087E+02 -3.84559E+02
 -2.48910E+03 -4.96940E+03  8.04790E+02  8.57024E+02  3.04124E+03 -3.39481E+03  2.04419E+03 -3.86651E+03
  2.39425E+02  2.98526E+03 -8.53070E+02  4.77073E+03 -2.19000E+03  3.07949E+03 -2.68784E+03  8.24700E+03
 -3.44626E+02  3.95013E+01 -4.71346E+03  7.09848E+02  5.11371E+02  2.21068E+03 -1.19038E+03  1.68984E+03
 -2.70583E+03  3.97621E+03 -1.40367E+03  2.35581E+03 -1.39389E+03  4.37878E+03  2.06438E+03 -1.81979E+03
 -2.84659E+02 -5.37195E+03 -2.65889E+03  8.44402E+02  3.73807E+03  2.72011E+03 -1.43788E+03  6.58955E+03
  4.60719E+03  9.63489E+02 -2.09590E+03 -1.14743E+03 -5.87360E+03 -4.60091E+02  1.69391E+03 -2.71360E+03
  1.14367E+03 -3.12973E+03 -6.97987E+02 -2.00496E+03 -2.74793E+03  1.06058E+03 -2.58294E+02  4.26757E+03
 -2.77507E+03 -8.28667E+02 -9.23215E+02  3.05523E+03 -1.49872E+03  2.70006E+03  3.59639E+02 -4.14612E+03
 -3.48134E+02  1.59761E+03  4.37218E+03 -2.54618E+03  1.57773E+03  2.83652E+03  8.48067E+01 -5.07647E+03
 -4.41816E+03  4.46587E+03 -2.02236E+03 -9.40382E+02 -3.22926E+03  2.68428E+03 -3.04549E+03 -1.20597E+03
  2.43559E+03  1.80745E+03  3.58794E+03 -1.00440E+03 -2.60646E+03 -3.16900E+03  3.52471E+03 -6.01629E+02
  2.87731E+03 -4.06227E+03 -2.13800E+03  1.77389E+03 -2.20437E+03  3.40403E+02 -4.09208E+03  1.52028E+03
  3.29586E+03 -2.34148E+03  1.13330E+03 -4.51332E+03 -1.22356E+03  4.93228E+02 -1.10332E+03 -1.89390E+03
  9.75063E+02 -9.65550E+02  1.91694E+03 -2.03973E+03  2.27186E+02 -1.65390E+03 -3.74593E+02 -1.96041E+02
 -1.01861E+03  1.21380E+03 -2.53120E+03  2.43276E+03 -6.89361E+02  4.19230E+03  6.88455E+02 -2.72678E+03
