 $NMID ID='MM_0lb_SNR50_15hz_g55_53.RAW', FMTDAT='(8E13.5)'
 TRAMP=1., VOLUME=1. $END
  3.09855E+05 -2.04640E+03  3.35090E+05  2.52926E+05  8.17806E+04  3.39823E+05 -1.34469E+05  2.51095E+05
 -1.91033E+05  8.27062E+04 -1.09469E+05 -3.15572E+04 -2.86265E+03 -4.99720E+04  5.94349E+04  1.13577E+03
  3.57321E+04  5.08482E+04 -1.65532E+04  7.55540E+04 -6.26656E+04  6.23303E+04 -8.46260E+04  2.72949E+04
 -7.96399E+04 -1.21436E+04 -5.69999E+04 -5.11717E+04 -1.29195E+04 -7.34996E+04  2.77220E+04 -4.84061E+04
  4.22927E+04  5.78247E+03  2.21757E+04  4.54033E+04 -3.43733E+04  4.64195E+04 -5.99132E+04  3.44088E+03
 -5.53336E+04 -5.47544E+04 -6.08574E+02 -7.00864E+04  3.38058E+04 -5.74873E+04  4.71411E+04 -1.53699E+04
  4.62642E+04  6.04246E+03  3.08402E+04  2.38607E+04  1.97968E+04  3.04709E+04 -9.35659E+03  2.58783E+04
 -3.16719E+04  1.45296E+04 -2.24346E+04 -2.98978E+03  5.23783E+03 -6.44989E+03  2.21970E+04  8.91191E+03
  3.43952E+03  3.72000E+04 -3.32869E+04  3.58767E+04 -6.21968E+04  3.33716E+03 -5.63743E+04 -4.12154E+04
 -1.34323E+04 -6.47054E+04  3.98305E+04 -4.32148E+04  5.79735E+04 -2.31825E+03  3.69424E+04  3.38159E+04
 -2.30297E+03  3.45884E+04 -3.26153E+04  1.39058E+04 -3.10163E+04 -5.36776E+03 -1.45109E+04 -1.42225E+04
 -1.50947E+03 -1.38370E+04 -2.11023E+03 -2.17295E+04  6.67872E+03 -1.92735E+04  1.48745E+04 -1.13219E+04
  1.43013E+04  6.93774E+03 -7.40071E+03  1.68352E+04 -2.12330E+04 -6.39333E+03 -5.88209E+03 -3.23054E+04
  2.25716E+04 -5.25950E+04  4.73424E+04 -1.91255E+04  4.54149E+04  2.11271E+04  1.60046E+04  4.34154E+04
 -1.47410E+04  3.42092E+04 -2.80487E+04  2.40105E+03 -8.12565E+03 -2.98097E+04  2.37359E+04 -3.41683E+04
  3.89440E+04 -9.56918E+03  3.64718E+04  2.05201E+04  2.36535E+04  4.31084E+04 -9.36783E+03  4.98949E+04
 -3.29473E+04  3.41119E+04 -3.58945E+04  1.02587E+04 -4.54015E+04 -1.34129E+04 -2.70159E+04 -3.89570E+04
  1.61993E+04 -3.82241E+04  3.00561E+04 -1.13242E+04  2.72025E+04  1.52995E+04  2.55151E+03  1.81618E+04
 -1.33196E+04  3.81423E+03 -1.15103E+04 -1.07482E+04  6.64222E+03 -1.30931E+04  1.07506E+04  4.78205E+03
  1.04359E+04  1.82679E+04 -3.92044E+03  2.23171E+04 -2.19984E+04  1.00107E+04 -2.98308E+04 -5.13521E+03
 -1.70737E+04 -2.09054E+04 -1.20886E+04 -1.87256E+04  4.16807E+03 -2.38045E+04  1.86886E+04 -2.34241E+04
  2.62193E+04 -8.39506E+03  2.96460E+04  3.41903E+03  2.72135E+04  2.34253E+04  4.54777E+03  3.45398E+04
 -2.24094E+04  3.74954E+04 -2.32286E+04  1.81055E+04 -2.38763E+04 -1.36671E+04  8.55343E+02 -1.06026E+04
  4.53806E+03 -2.13371E+03 -1.33222E+03  8.08117E+03 -1.29776E+04  5.83481E+03 -1.46296E+04 -7.56333E+03
 -1.10461E+04 -2.29212E+04  4.94597E+03 -2.04771E+04  9.52277E+03 -1.50806E+04  1.91711E+04 -4.13110E+03
  1.03401E+04  1.37761E+04  2.40510E+03  1.75199E+04 -1.54469E+04  1.27237E+04 -2.09597E+04 -4.28808E+03
 -8.84842E+03 -1.65523E+04 -2.29897E+03 -1.93434E+04  1.37881E+04 -1.72152E+04  1.93978E+04 -1.57645E+04
  2.06327E+04  7.85086E+03  1.11529E+04  5.60269E+03  4.96654E+03 -5.08983E+02  8.31885E+03  8.69674E+02
  1.86398E+04 -1.34411E+03  2.09009E+04  1.74299E+04  1.21767E+04  3.16067E+04  1.72041E+03  3.55450E+04
 -1.81509E+04  2.74034E+04 -3.36561E+04  1.15140E+04 -3.70451E+04  2.94398E+03 -2.67506E+04 -2.15235E+04
 -1.43843E+04 -2.62661E+04  8.66350E+03 -2.57491E+04  2.00467E+04 -1.21758E+04  2.21787E+04  9.63129E+03
  9.09126E+03  1.02581E+04 -6.62134E+03  1.04974E+04 -1.45748E+04  4.57600E+03 -1.27728E+04 -1.06217E+04
 -7.61214E+02 -1.30303E+04  8.24034E+03 -1.50566E+04  9.59892E+03  1.59342E+03  4.63033E+03  3.06390E+03
 -4.76128E+03 -4.56629E+03 -9.74908E+03 -5.25215E+03 -5.05490E+02 -1.15498E+04  8.66668E+03 -1.75567E+04
  1.59457E+04 -7.32241E+03  2.17588E+04 -4.05651E+03  1.32008E+04  1.50349E+04  1.39212E+04  2.53163E+04
  1.68949E+03  2.24304E+04 -1.32927E+04  1.55408E+04 -1.89760E+04  1.10990E+03 -9.61504E+03 -1.39438E+03
  6.69153E+02 -1.93865E+03  7.35477E+02 -5.87729E+02 -7.57610E+03  5.52639E+03 -2.38115E+03  5.53041E+03
 -7.62633E+03 -3.82624E+03 -6.80059E+03 -8.03153E+03 -4.32172E+03 -1.54238E+04  3.38751E+03 -8.51532E+03
  9.55195E+03 -3.79318E+03  4.67601E+03  4.27134E+03  1.90438E+03  4.24085E+03 -8.11619E+03 -1.01530E+03
 -2.97044E+03 -7.57746E+03 -1.05984E+03 -1.42009E+04  4.88940E+03 -1.25107E+04  1.44061E+04 -9.00451E+03
  1.37834E+04  4.14655E+02  1.00499E+04  3.80327E+03  6.65005E+02  1.04990E+04 -4.74817E+03  1.64510E+04
 -6.03279E+03  4.17026E+03 -8.72463E+03 -5.46162E+03 -2.09835E+02 -2.83128E+03  8.93701E+03 -5.17088E+02
  1.10804E+04  5.82143E+03  3.84254E+03  7.34872E+03 -4.74225E+03  9.71793E+03 -1.09880E+04  1.53658E+03
 -6.74973E+03 -4.19811E+03  1.44218E+03 -9.74502E+03  6.99810E+03 -8.60551E+03  4.89318E+03  3.27496E+02
  2.33304E+03  7.59661E+03 -3.51943E+03  4.80277E+03 -1.02738E+04  3.06869E+03 -6.04781E+03 -2.05926E+03
 -5.29956E+03 -1.33109E+04  2.80381E+03 -1.05892E+04  8.92726E+03 -5.17379E+03  6.78979E+03 -2.60236E+02
  2.64234E+03  1.34766E+04 -3.16666E+03  8.70503E+03 -3.56418E+03  3.01717E+03 -1.25169E+04  2.15274E+03
 -1.02292E+04 -1.60746E+02 -9.09538E+03 -3.72608E+03  2.62885E+03 -4.30002E+03  1.72063E+03 -1.99493E+03
  1.98098E+03 -1.84769E+03 -3.60556E+03  1.44897E+03 -7.60396E+02  4.80920E+02  4.56152E+02 -5.76847E+03
  8.34457E+03 -3.59854E+03  7.87961E+03  2.83943E+03  7.40427E+03  2.14285E+03  8.16078E+03  1.15794E+04
 -2.71308E+03  1.70292E+04 -1.01962E+04  6.48603E+03 -1.49359E+04 -1.12245E+03 -9.46623E+03 -2.62814E+03
 -3.72865E+03 -6.78615E+03 -3.45943E+02 -9.62610E+03  6.15164E+03 -7.12625E+03 -2.85715E+03 -9.11151E+02
  3.63909E+03  3.03177E+03  1.16811E+03 -7.96820E+02  5.21354E+03 -5.89889E+03 -1.61614E+03 -1.68679E+03
  8.05918E+03  4.79150E+03  1.32472E+03  5.95807E+03  4.48314E+02  6.35430E+03 -5.65920E+03  4.75366E+03
 -9.09816E+03 -1.85800E+02  7.76117E+02 -6.70304E+03 -1.87644E+03 -1.04133E+04  4.99783E+03 -8.85110E+03
  7.70822E+03 -7.05285E+03  1.14270E+04  1.68300E+03  6.98541E+03  6.13339E+03  3.05867E+03  1.15692E+04
 -3.59684E+03  1.16119E+03 -4.39331E+03  2.57533E+03 -2.25285E+03 -2.79532E+03 -8.82001E+02 -2.15774E+03
 -2.57252E+03  4.22510E+03 -3.03963E+03  7.23804E+02 -8.61490E+03 -1.68901E+03 -8.68940E+03 -4.44788E+03
 -3.18897E+03 -4.39707E+03 -2.61482E+03 -5.65354E+03  1.00755E+04 -4.87765E+02  1.29310E+04 -4.16866E+03
  7.04872E+03  5.91934E+03  5.73120E+03  1.31142E+04 -1.00774E+03  4.36933E+03 -6.93467E+03  1.11327E+04
 -3.83041E+02  1.05726E+03 -6.07003E+03 -7.99548E+03 -5.02593E+01 -8.53994E+03  5.71625E+02 -8.88415E+03
  5.24201E+03  1.17902E+03  4.10755E+03  1.61661E+03  4.83333E+01  2.28809E+03  1.24883E+03  1.39564E+03
 -1.25471E+03 -1.89311E+03  3.82902E+03 -5.75239E+02  1.98322E+03  3.89590E+03 -6.68840E+02  5.95598E+03
 -2.76181E+03  4.88122E+03 -7.82929E+03  8.70401E+03 -6.37640E+03  1.09634E+03 -7.71478E+03 -5.63194E+03
 -9.65765E+02  4.48697E+02  2.90376E+03 -2.96579E+03  3.85844E+03 -7.04288E+03  3.96203E+03 -5.36540E+02
  1.11212E+03  9.57579E+03  1.28850E+03  5.44418E+03  2.34847E+03  4.99064E+03 -2.13624E+03 -3.47231E+03
 -3.82543E+03  2.89116E+02  1.97745E+02  1.02051E+03  1.34126E+03  2.09734E+03  4.39172E+03  3.29330E+03
 -4.37544E+03  3.34129E+02 -1.05872E+03  3.27108E+02 -1.76300E+03 -1.99244E+03  9.89229E+02 -5.91982E+02
 -1.08338E+03  1.87869E+03 -1.18705E+03  3.23827E+03  1.58702E+03  3.30916E+03  3.07825E+02  8.14054E+03
 -5.78233E+02 -2.70259E+03 -3.86096E+02 -5.78974E+02 -3.11433E+03  9.75058E+02 -1.14902E+03 -9.52957E+03
  2.27785E+03 -4.11664E+03  1.69502E+03 -4.82784E+02 -9.84856E+02 -2.76009E+03  3.38409E+02  5.25995E+03
 -3.54333E+03  2.96169E+01 -2.26345E+03 -4.84896E+02 -1.74842E+03 -2.72506E+03  3.02380E+03 -2.78499E+03
  3.44918E+02 -5.15973E+02  1.58152E+03  2.13317E+03  2.20777E+03  3.81170E+03  5.50465E+03  7.02653E+03
 -2.71453E+03 -2.64330E+03  2.11454E+02 -3.30459E+03 -8.76002E+02 -2.75018E+03  1.67369E+03  1.16298E+03
  3.80309E+03  2.49431E+03 -2.29332E+03  2.72973E+03  2.12574E+03  2.24455E+03  1.32407E+02  3.91567E+03
  1.70103E+02 -5.12870E+01 -1.14009E+04 -1.13158E+03  1.36842E+03  3.82230E+02 -2.76193E+03 -3.29030E+03
  3.83447E+03  6.14849E+01  2.12633E+03  4.06895E+03  5.11422E+02  5.75268E+03  1.95265E+03 -9.12937E+02
  2.09194E+03  8.00341E+02 -5.89346E+01  2.80936E+02  5.77151E+02 -1.50048E+03 -7.87006E+02 -6.10214E+02
 -3.96027E+03  2.77942E+03 -2.81469E+03  3.03727E+03  5.72665E+02  1.25230E+03 -5.23048E+03 -3.11082E+03
 -2.23843E+03 -4.63025E+03  3.80009E+03 -8.22628E+03  2.69812E+03 -6.06976E+03  5.88861E+03 -3.54137E+03
  1.07308E+04  2.59654E+03  3.88054E+03  1.98476E+03 -7.19767E+02  6.50767E+03  5.78702E+01  4.95227E+03
  1.42878E+03  2.84343E+02 -2.66389E+03 -2.12965E+03 -1.28500E+03  2.94455E+03  6.77458E+02 -3.38868E+03
 -3.68461E+03  7.35159E+02  1.50832E+03 -4.23008E+02 -5.91453E+02  1.88185E+03  1.72308E+03  2.00519E+03
  1.61698E+03 -1.76536E+03 -4.15118E+03  2.40358E+03  4.93279E+02  8.92622E+02 -4.86867E+02  3.38737E+03
  1.95592E+03  2.68991E+03 -1.74499E+03  7.46419E+03 -2.28682E+03 -1.18683E+03  2.43630E+03 -6.57638E+02
  2.09007E+03 -5.27079E+03  4.85704E+03 -3.58159E+03  1.60926E+03  8.96293E+02  1.98349E+03 -1.32866E+03
  3.87846E+03 -4.41006E+03  2.13549E+02 -2.98026E+03  4.38553E+02 -2.03493E+03 -5.21574E+03  2.04081E+03
  1.09700E+03 -6.80519E+02  7.79137E+01  2.15125E+03  2.41856E+02 -8.44849E+02  2.03097E+03 -8.13914E+02
  8.33817E+02  3.13815E+03 -6.63095E+03  2.36054E+03  3.59459E+03  1.89637E+03  3.13482E+03  3.07875E+03
  7.11206E+03  9.85440E+01  3.23204E+03 -2.20518E+03  1.96660E+03 -4.46203E+03  1.49323E+03 -1.80728E+03
  6.37666E+03 -1.58272E+03 -9.89923E+02  2.46462E+03 -2.77040E+03  1.34871E+03 -2.95802E+03  3.62728E+03
 -1.59836E+03  5.20690E+02 -1.82512E+03 -2.21310E+03  3.50965E+03  2.42605E+03 -6.26261E+03 -2.75517E+03
 -3.24106E+03  4.51357E+02 -3.06498E+03 -1.12801E+03 -1.60891E+02  5.03132E+03  1.87948E+03  1.03630E+03
  3.66231E+03  7.50144E+02  9.43893E+02  5.45528E+03 -4.74814E+03 -4.84862E+03 -3.28615E+03  2.90726E+03
