 $NMID ID='MM_0lb_SNR50_14hz_g40_9.RAW', FMTDAT='(8E13.5)'
 TRAMP=1., VOLUME=1. $END
  3.07942E+05  2.00965E+03  3.39198E+05  2.51154E+05  7.93717E+04  3.36409E+05 -1.32013E+05  2.46297E+05
 -1.88424E+05  8.53242E+04 -1.16765E+05 -3.37259E+04 -2.75500E+02 -5.31827E+04  5.77284E+04  4.25155E+02
  3.80657E+04  5.57327E+04 -1.80847E+04  7.22962E+04 -6.27326E+04  6.24010E+04 -8.22496E+04  2.96767E+04
 -8.22892E+04 -1.08336E+04 -5.69735E+04 -5.26838E+04 -1.34600E+04 -7.00088E+04  2.80291E+04 -4.36773E+04
  3.99141E+04  6.23128E+03  1.84798E+04  4.50575E+04 -3.28117E+04  4.73560E+04 -6.54201E+04  2.89610E+03
 -5.53300E+04 -5.67368E+04 -4.11802E+03 -7.91805E+04  3.33903E+04 -5.54067E+04  4.43514E+04 -1.90064E+04
  4.09774E+04  7.96574E+03  3.07200E+04  2.81207E+04  1.76801E+04  3.16984E+04 -7.77375E+03  2.70986E+04
 -2.19443E+04  1.34987E+04 -1.62124E+04  1.02897E+03  9.92707E+03 -5.79478E+03  1.90267E+04  1.04892E+04
  7.03726E+03  3.38232E+04 -2.99413E+04  3.21254E+04 -6.07402E+04  5.21515E+03 -5.44246E+04 -4.59676E+04
 -1.76925E+04 -6.80351E+04  3.91578E+04 -4.68134E+04  5.91432E+04 -4.01597E+03  3.52297E+04  3.04143E+04
 -5.29441E+03  3.58940E+04 -3.10683E+04  1.23430E+04 -2.92489E+04 -1.77974E+03 -1.71059E+04 -8.35650E+03
 -4.45053E+03 -1.12461E+04 -1.46838E+03 -1.82594E+04  6.82976E+03 -2.47817E+04  1.27261E+04 -1.06014E+04
  9.79106E+03  6.39514E+02 -5.66673E+03  9.79497E+03 -2.18656E+04 -3.77078E+03 -8.25960E+03 -3.42876E+04
  2.09611E+04 -4.32438E+04  4.59282E+04 -1.77151E+04  4.32447E+04  1.63893E+04  1.73062E+04  4.15910E+04
 -1.53788E+04  2.87653E+04 -3.13938E+04  5.37459E+03 -7.63806E+03 -2.51356E+04  2.44817E+04 -3.18446E+04
  3.90468E+04 -1.14106E+04  3.86490E+04  2.24757E+04  1.27280E+04  4.82237E+04 -1.01798E+04  5.29341E+04
 -2.94661E+04  2.98438E+04 -4.09272E+04  7.23427E+03 -3.73352E+04 -1.74432E+04 -2.04617E+04 -3.32759E+04
  8.38847E+03 -3.68451E+04  3.51804E+04 -1.37722E+04  3.49128E+04  1.01510E+04 -3.76224E+02  2.34589E+04
 -1.51697E+04  9.81186E+03 -1.16688E+04 -6.89996E+03  5.65793E+03 -8.74896E+03  1.42945E+04  9.29266E+03
  1.60366E+04  2.26742E+04 -8.31026E+03  2.98216E+04 -2.49875E+04  8.82645E+03 -2.82504E+04 -2.97122E+03
 -1.60222E+04 -1.84340E+04 -1.03909E+04 -2.18955E+04  4.76032E+03 -2.08103E+04  1.74567E+04 -1.51666E+04
  3.00136E+04 -1.62846E+04  3.46899E+04  2.07500E+03  2.71130E+04  1.72094E+04  4.31964E+03  3.33713E+04
 -1.92534E+04  3.56010E+04 -2.78677E+04  9.78550E+03 -1.88238E+04 -7.91157E+03 -8.72516E+02 -1.46072E+04
  3.37226E+03 -4.66852E+03 -4.52039E+03  4.86437E+03 -1.11788E+04  1.70542E+03 -1.70182E+04 -7.15053E+03
 -1.02453E+04 -1.95258E+04  4.68016E+03 -1.97223E+04  1.51220E+04 -1.83255E+04  1.50501E+04 -6.75236E+03
  8.15908E+03  9.61823E+03  2.90787E+03  1.33671E+04 -1.40346E+04  1.39049E+04 -1.88717E+04 -3.66108E+03
 -1.24859E+04 -1.63462E+04 -1.96547E+03 -2.27620E+04  6.10959E+03 -2.14397E+04  1.74861E+04 -1.30172E+04
  2.10224E+04 -2.63120E+03  1.16292E+04  6.18114E+03  6.70099E+03  3.15577E+03  8.69640E+03 -5.69106E+03
  1.55931E+04 -1.52211E+03  2.22859E+04  1.23763E+04  9.23627E+03  2.95537E+04 -3.93767E+03  3.18915E+04
 -1.88065E+04  2.72052E+04 -3.20443E+04  1.37232E+04 -3.20480E+04 -1.81942E+03 -3.25352E+04 -1.74797E+04
 -1.43569E+04 -2.84606E+04  1.26737E+04 -2.15664E+04  1.98288E+04 -1.35705E+04  1.57674E+04  6.15052E+03
  1.24346E+04  1.42973E+04 -7.30459E+03  1.59796E+04 -1.59463E+04 -1.83754E+03 -1.13147E+04 -7.42719E+03
 -2.93462E+03 -1.49691E+04  5.42841E+03 -1.30886E+04  9.44130E+03  6.93784E+02 -2.39490E+03  5.56267E+03
 -8.09507E+03  1.42165E+03 -3.84481E+03 -9.45606E+03  3.09539E+03 -1.13505E+04  1.17278E+04 -1.35365E+04
  1.22423E+04 -4.09958E+03  1.62381E+04  3.10471E+03  1.24589E+04  1.58095E+04  1.01746E+04  1.24299E+04
 -7.11611E+03  1.77322E+04 -1.00953E+04  1.41322E+04 -1.65278E+04  6.12315E+03 -6.53543E+03 -4.23722E+03
 -6.34819E+03 -2.91675E+02 -2.65842E+03  1.13251E+03 -2.77382E+03  4.15706E+02 -3.62541E+03  2.90361E+03
 -1.06671E+04 -1.26528E+03 -1.21240E+04 -5.71165E+03 -3.09198E+03 -1.04059E+04  7.43648E+03 -7.95596E+03
  1.07390E+04 -2.07810E+03  6.02512E+03  1.80196E+03  1.07177E+02  1.66092E+03 -6.35444E+03 -4.08250E+03
 -1.05806E+04 -9.27815E+03  1.77680E+03 -1.18658E+04  5.39399E+03 -6.88931E+03  1.54857E+04 -5.55770E+03
  9.99239E+03  1.68759E+03  1.25689E+04  1.05937E+04 -1.12427E+03  9.40981E+03 -3.86765E+03  1.15349E+04
 -8.97118E+03  3.73646E+03 -5.10782E+03 -1.14163E+04 -1.40238E+02 -9.54560E+03  5.43877E+03 -3.44072E+03
  2.95648E+03  7.03366E+01 -4.58623E+03  1.34708E+04 -5.38602E+03  9.90721E+03 -9.91387E+03  2.39991E+03
 -3.32640E+03 -5.09914E+02 -2.70168E+02 -9.88303E+03  7.64840E+03 -5.57463E+03  5.77265E+03  3.73481E+02
  9.63062E+02  2.51002E+03 -2.95348E+03  1.17321E+04 -8.83271E+03  5.20165E+03 -1.05535E+04 -7.91387E+03
 -5.16056E+03 -6.12886E+03 -4.48722E+02 -1.30524E+04  8.77768E+03 -7.15475E+03  1.16044E+04 -1.34742E+03
  4.74069E+03  5.36376E+03 -2.31370E+03  1.18547E+04 -6.25123E+03  1.02682E+04 -9.71838E+03  1.35535E+03
 -1.31940E+04 -1.54542E+03 -2.49404E+03 -8.12796E+03  9.57368E+03 -7.93074E+03  2.38798E+03 -2.23732E+03
  3.19442E+03  5.46898E+02  1.26441E+03 -6.77079E+03 -1.31490E+03 -1.02303E+04  2.39477E+03 -1.09378E+01
  9.05943E+03  3.29216E+03  8.46198E+03 -1.15315E+03  8.20531E+03  9.26384E+03  2.99791E+03  8.49111E+03
 -5.53197E+03  1.58502E+04 -1.28056E+04  7.55785E+03 -1.52180E+04  1.87214E+03 -1.05757E+04 -4.04081E+03
 -3.81293E+03 -7.76195E+03  4.01270E+03 -6.19363E+03  1.35898E+03 -7.59004E+03  8.91529E+03  1.98469E+03
  9.27927E+03 -4.25471E+03  9.19259E+02 -5.68413E+03  7.42601E+03 -3.84892E+03  7.10854E+03 -7.10747E+02
  7.70460E+03  5.75742E+02  1.19164E+03  7.54919E+03 -4.45696E+03  2.22766E+03 -5.58791E+03  3.86661E+03
 -7.34067E+03 -7.04943E+03  5.26621E+02 -4.22779E+03  1.11598E+03 -1.04849E+04  1.02465E+04 -9.69187E+03
  9.39054E+03 -5.90984E+03  3.51056E+03 -1.73622E+03  8.98938E+03  1.33008E+04  1.78714E+03  1.10527E+04
 -4.69212E+03  5.19991E+03 -4.29105E+03 -8.60456E+02 -5.04574E+03  3.13312E+03 -4.29257E+03 -3.12580E+03
  1.34400E+03  5.29597E+03  2.99614E+02  6.36747E+03 -4.57306E+03  6.25151E+03 -4.67722E+03 -1.53704E+03
 -3.44987E+03 -7.76557E+03  1.12178E+03 -7.44043E+03  7.26381E+03 -3.89611E+03  5.88237E+03  2.67417E+00
  4.29399E+03 -1.81943E+03 -1.28098E+03  1.44973E+03 -3.93042E+03  9.60725E+03 -4.58386E+02 -6.44640E+01
 -4.47400E+03 -1.88028E+02 -3.83791E+03 -3.74346E+03 -6.69311E+03 -5.82248E+03  5.91494E+03 -2.36045E+03
  8.15206E+03 -3.08825E+03 -2.14567E+03 -1.99021E+01  3.46822E+03 -1.91117E+03  4.30536E+03  2.32553E+03
  4.87692E+03  2.72234E+03  3.44484E+03  1.61695E+03 -5.63001E+03  3.38795E+03 -1.99936E+02  4.20788E+03
 -5.16987E+03  5.27868E+03 -3.39160E+03  8.25954E+03 -5.38714E+03  8.00819E+03 -5.52650E+03  5.23632E+01
 -6.89096E+03 -6.19996E+03  4.82942E+03 -9.30922E+03  5.13664E+03 -8.46449E+02  9.62729E+03  1.17030E+03
  7.28650E+03  3.86569E+03 -3.93324E+03  2.74564E+03 -1.91504E+03  4.53637E+03 -6.56136E+03  3.52917E+03
  1.32542E+02 -2.82718E+03  6.43081E+03 -2.86208E+03  3.07808E+03  7.21286E+02  2.51742E+03  2.10056E+03
 -5.13505E+02  4.92120E+03 -1.16332E+03 -3.23419E+03 -3.33872E+03  3.66049E+03  8.60935E+02 -1.59761E+03
  3.18604E+03  8.49447E+01  4.91316E+03 -3.43084E+03  2.37715E+03  1.03671E+04 -6.25257E+03  2.75980E+01
 -3.73743E+03  8.98959E+02  4.67439E+03 -6.75291E+02  3.43780E+02 -1.26098E+03  2.78606E+03  3.14932E+02
  4.77816E+03  6.53123E+02  9.10701E+01 -2.23911E+03  3.76765E+03  3.16652E+03 -1.10823E+03  2.29299E+03
 -1.04216E+03  4.26561E+03 -3.23658E+03 -3.26808E+03 -3.71266E+03 -6.68587E+03  8.58496E+03 -4.80833E+03
  1.71678E+03 -3.90068E+03  1.78535E+03  1.46167E+03  5.92728E+03  1.05542E+02 -1.18802E+03  5.08692E+03
  4.70695E+03 -1.23092E+02 -2.01132E+03 -3.36938E+03  3.35823E+03 -3.55410E+03 -1.03177E+03 -4.34732E+03
  3.56403E+03 -9.44446E+02  9.58930E+03  1.01111E+03  4.43186E+03  4.95816E+03  1.36513E+03 -8.97050E+02
 -5.49642E+03  2.13157E+03  9.35125E+02  2.80981E+03 -2.95419E+03 -3.52106E+03  1.74641E+03 -3.78610E+02
 -4.09227E+02  2.47128E+02  1.97976E+03 -8.53427E+02 -6.52493E+02  1.68121E+03 -4.36597E+03 -2.85876E+02
  6.03606E+02  2.27137E+03 -2.22208E+03  7.77905E+01 -4.54486E+03  1.33097E+03 -1.39301E+03 -6.29415E+03
 -1.97485E+03  4.54195E+03 -3.29821E+03 -2.24365E+03 -6.20368E+03  1.25130E+03 -4.02047E+03 -1.64429E+03
  4.66765E+03  1.00879E+03  1.33362E+02 -9.46626E+03 -6.53495E+02 -7.76854E+03  6.86331E+03 -9.90535E+03
  9.37132E+03  1.37508E+03  4.01076E+03  2.81149E+03 -6.69851E+02  2.20089E+03 -3.14676E+03  3.22152E+03
  3.02584E+03  1.14577E+03  7.28486E+02  3.09432E+03 -2.17672E+02  1.46113E+02  2.13036E+03 -2.40113E+03
  3.54547E+03  1.54118E+03  2.33509E+03 -2.56750E+03 -3.92787E+03 -4.81934E+03 -2.06523E+03 -1.67400E+03
  3.25048E+03 -3.68725E+03  4.74465E+03  6.73711E+02  4.60533E+03  4.42697E+02 -4.01449E+02  4.56247E+03
 -2.53373E+03  1.06570E+04  4.10471E+02  4.54335E+03 -5.46139E+03 -3.03329E+02  1.32379E+03 -4.83801E+02
  3.77604E+03 -2.94163E+03 -2.22894E+03 -3.91280E+03  3.08385E+03 -1.62438E+03  5.12812E+03 -4.17134E+03
 -3.94041E+02 -4.58112E+03 -5.29528E+02 -2.26163E+03  1.88232E+03 -2.66460E+02 -7.00241E+02 -2.26972E+03
  7.80080E+02 -2.19703E+03 -1.21833E+03 -3.38313E+03 -3.27418E+03 -2.16415E+03 -5.28231E+03 -2.25533E+03
 -4.99835E+03  2.94923E+03 -1.97724E+03  9.79445E+02 -1.00334E+03 -2.26402E+03 -8.93932E+02  1.70018E+03
  3.30427E+03 -5.57674E+03  8.62890E+02 -2.57841E+03  4.33187E+03  9.83267E+01  2.68335E+03  1.21564E+03
 -6.89919E+02  1.71448E+03 -4.03729E+03  3.60220E+00 -7.55173E+02 -4.11569E+03  1.05359E+03 -4.09843E+03
 -2.69694E+03 -2.47424E+03  2.24844E+02  7.97534E+02 -1.96349E+03 -5.07384E+03 -6.87918E+03 -5.13212E+03
 -1.75889E+03  2.00033E+02  4.81614E+03 -2.48009E+03  2.26673E+03 -2.28738E+03  2.47014E+03 -5.72991E+02
  6.34079E+03  4.09591E+01  3.76173E+02  3.78378E+02 -3.26125E+02  3.50784E+03  2.11067E+03  9.78929E+02
