 $NMID ID='MM_0lb_SNR50_16hz_g40_46.RAW', FMTDAT='(8E13.5)'
 TRAMP=1., VOLUME=1. $END
  3.10924E+05 -1.92136E+03  3.38269E+05  2.49491E+05  8.77522E+04  3.37098E+05 -1.32632E+05  2.49759E+05
 -1.85569E+05  8.60962E+04 -1.14243E+05 -2.70453E+04 -2.71289E+02 -4.78469E+04  5.35365E+04  4.01285E+03
  3.37640E+04  5.40322E+04 -2.07054E+04  7.68163E+04 -5.80895E+04  6.51201E+04 -8.30380E+04  3.17579E+04
 -8.06477E+04 -9.04581E+03 -5.56679E+04 -5.15735E+04 -1.25280E+04 -6.49192E+04  2.72768E+04 -4.33279E+04
  3.69815E+04  6.59519E+03  1.67892E+04  4.74723E+04 -3.62833E+04  4.55071E+04 -5.98316E+04  2.88944E+03
 -4.91867E+04 -5.87556E+04 -2.63129E+03 -7.91374E+04  3.17086E+04 -5.72818E+04  4.90884E+04 -1.47129E+04
  4.16930E+04  1.35581E+04  3.58840E+04  2.52251E+04  2.03837E+04  2.58890E+04 -4.28271E+03  2.78639E+04
 -2.32904E+04  1.27748E+04 -1.87097E+04 -5.86545E+03  3.92812E+03 -8.35783E+03  2.10316E+04  1.39517E+04
  8.62565E+03  3.25770E+04 -2.60955E+04  2.88477E+04 -6.52247E+04  7.81633E+03 -5.55030E+04 -4.10166E+04
 -9.62356E+03 -5.59709E+04  3.89420E+04 -4.94736E+04  5.30058E+04 -5.07733E+03  2.89002E+04  2.95801E+04
 -3.76591E+03  2.97437E+04 -2.89948E+04  1.33381E+04 -3.11422E+04 -8.56379E+03 -1.39215E+04 -9.67936E+03
 -7.05645E+03 -9.91218E+03 -1.56629E+02 -1.77413E+04  8.88037E+03 -2.49733E+04  1.68007E+04 -1.47869E+04
  7.97867E+03  1.86158E+03 -6.68453E+03  1.46631E+04 -1.89359E+04 -1.86259E+03 -7.70039E+03 -2.77225E+04
  2.54142E+04 -4.36221E+04  4.43357E+04 -1.57402E+04  4.22806E+04  1.59531E+04  1.22995E+04  4.51501E+04
 -1.47986E+04  2.78692E+04 -2.21045E+04  4.15755E+03 -7.91099E+03 -2.30438E+04  1.87011E+04 -3.42404E+04
  3.58097E+04 -5.17897E+03  3.06943E+04  2.25774E+04  1.39150E+04  4.31667E+04 -1.01452E+04  5.17468E+04
 -3.52589E+04  3.21818E+04 -3.55728E+04  6.40152E+03 -4.05626E+04 -1.59228E+04 -2.20053E+04 -3.18711E+04
  8.07890E+03 -3.64993E+04  2.45753E+04 -1.47490E+04  2.80094E+04  9.61517E+03  2.27443E+03  2.07172E+04
 -1.60763E+04  3.69129E+03 -7.87662E+03 -9.03095E+03  1.06675E+04 -1.13326E+04  1.75038E+04  8.17197E+03
  8.69735E+03  2.01398E+04 -8.88355E+03  2.47342E+04 -2.06484E+04  1.12876E+04 -2.43071E+04 -6.90808E+03
 -1.55337E+04 -1.86635E+04 -5.10804E+03 -2.05946E+04  5.35367E+03 -1.72395E+04  1.31509E+04 -1.97403E+04
  2.90771E+04 -9.64673E+03  2.77650E+04  2.40798E+03  2.09085E+04  1.60384E+04  2.84985E+03  3.23117E+04
 -1.75933E+04  2.82333E+04 -2.29191E+04  9.72386E+03 -2.31596E+04 -8.88078E+03 -1.74232E+03 -1.50117E+04
  2.35570E+03 -5.00236E+03  8.84016E+02  8.67571E+03 -1.65314E+04  6.55884E+03 -1.59478E+04 -2.01765E+03
 -3.43916E+03 -1.88817E+04  5.66188E+03 -2.01855E+04  1.00822E+04 -1.27320E+04  1.67795E+04 -4.80517E+03
  9.38366E+03  1.15458E+04 -3.15931E+03  1.54939E+04 -1.08411E+04  9.87848E+03 -1.48233E+04 -1.82748E+03
 -1.57635E+04 -1.27033E+04  1.32093E+03 -2.27808E+04  1.18677E+04 -1.54754E+04  1.92577E+04 -1.07550E+04
  1.66137E+04  1.49776E+03  1.66147E+04  7.49178E+03  7.34464E+03 -2.84370E+03  8.77857E+03 -3.83883E+03
  1.25786E+04 -1.93879E+03  1.51206E+04  1.10008E+04  1.04928E+04  2.53502E+04 -2.07184E+03  3.00504E+04
 -1.73162E+04  2.19055E+04 -2.16816E+04  8.89510E+03 -2.73596E+04 -4.53409E+03 -2.28654E+04 -1.04199E+04
 -1.29068E+04 -2.38614E+04  3.20840E+03 -1.92229E+04  1.92247E+04 -8.40508E+03  1.60250E+04  8.74957E+03
  1.17624E+02  1.82645E+04 -1.83684E+04  1.02642E+04 -1.70131E+04  4.25024E+03 -1.03536E+04 -5.18080E+03
 -2.62225E+03 -1.47144E+04  3.74041E+03 -1.13555E+04  6.19953E+03 -1.06832E+03  4.74256E+02  2.46837E+03
 -5.47009E+03  7.62743E+02 -6.30505E+03 -6.54365E+03 -2.64665E+03 -1.13758E+04  1.29952E+04 -1.13276E+04
  1.39075E+04 -8.54087E+03  1.17925E+04  5.09011E+01  1.25055E+04  9.73683E+03  8.11153E+03  1.62362E+04
 -3.30236E+03  1.97958E+04 -1.25445E+04  9.10424E+03 -8.22841E+03  2.58242E+03 -5.44060E+03  4.02171E+02
 -5.57883E+03 -4.08981E+03  5.22775E+01  3.34100E+03 -4.92319E+03  2.03296E+03 -4.41775E+03  2.26773E+03
 -5.54519E+03 -1.55336E+03 -9.32345E+03 -3.50935E+03 -6.13625E+03 -1.30343E+04  6.27952E+03 -1.24393E+04
  8.04090E+03 -1.47865E+03  7.98913E+03 -4.20507E+01  1.51956E+03  5.99773E+03 -3.17489E+03  2.68183E+03
 -1.80273E+03 -2.99553E+03  3.48650E+03 -5.64800E+03  8.91423E+03 -8.63384E+03  1.25987E+04 -4.63339E+03
  1.15469E+04  3.17290E+02  8.56637E+03  1.12618E+04  1.23950E+03  1.27643E+04 -5.39115E+03  1.38764E+04
 -8.26321E+03  3.55524E+03 -2.30074E+03 -4.86431E+02 -2.07047E+03 -5.50969E+03  5.52468E+03 -8.22103E+02
  5.31207E+03  6.79737E+03  3.73834E+03  6.83585E+03 -6.11258E+03  1.15341E+04 -9.81845E+03  2.75514E+03
 -7.95163E+03 -2.69257E+03  9.81080E+02 -9.95300E+03  3.31572E+03 -8.53925E+02  3.70870E+03  5.73084E+03
  1.85875E+03  6.95325E+03 -4.39741E+03  6.61073E+03 -3.86081E+03  2.98994E+03 -6.92485E+03  1.70890E+03
 -2.10731E+03 -5.62980E+03 -1.15446E+03 -1.36395E+04  8.84121E+03 -6.19394E+03  9.84179E+03 -1.49609E+03
  5.05195E+03  3.72578E+03  3.98774E+03  3.85706E+03 -5.18079E+03  1.93145E+03 -7.62454E+03  4.67258E+02
 -5.18084E+03 -8.93311E+03  2.79275E+02 -8.23000E+03  6.05530E+03 -2.86149E+03  4.91249E+03 -4.49339E+03
  4.00025E+03  4.15121E+03  1.21117E+03  5.94797E+02  3.36550E+03  7.74703E+02 -1.45336E+03 -9.24074E+02
  5.81511E+03 -3.84336E+01  1.54585E+03  2.91308E+03  1.16965E+04  1.04201E+04  6.56659E+03  1.16460E+04
 -4.57315E+03  5.07453E+03 -1.30174E+04  7.92817E+03 -1.21318E+04  5.32339E+02 -1.14254E+04 -1.14026E+03
 -7.30174E+03 -1.07504E+04 -3.39963E+03 -6.42261E+03  3.62878E+03 -1.82551E+03  3.98787E+02 -2.17853E+03
  7.41771E+03 -7.79650E+03  4.14400E+03 -4.05573E+03  4.58463E+03 -1.17359E+03  1.35369E+03  1.66679E+03
  2.95652E+03  3.61777E+02 -1.58543E+03  2.24714E+03 -1.48822E+03  2.37955E+02 -4.97509E+02  2.55660E+03
 -5.68337E+03  3.39303E+03 -2.71200E+03 -7.66300E+03 -2.32018E+03 -5.27146E+03  7.51137E+03 -6.34293E+03
  9.01895E+03 -2.14928E+03  1.03907E+04  1.77247E+03  9.35094E+03  9.54155E+03  4.10683E+02  1.03658E+04
 -1.06152E+03  4.61045E+03 -3.75251E+03  4.02734E+03 -4.74349E+03 -4.61320E+03  1.35307E+03 -1.72055E+02
 -3.31673E+02  4.50660E+03 -2.80968E+03 -9.93640E+02 -2.17382E+03  2.32394E+03 -1.30077E+04  1.69251E+02
 -4.46365E+03 -1.35270E+03  9.37431E+02 -5.62920E+03  7.87359E+01 -9.93273E+02  4.36503E+03 -5.55267E+03
  1.14156E+04  2.00701E+03  5.12568E+03  7.80542E+03 -8.86596E+02  6.36025E+03 -6.07233E+03  6.27220E+02
 -5.36901E+03 -1.30094E+03 -3.68414E+03 -5.04443E+03  1.86355E+03 -5.99092E+03  1.84159E+03 -4.23491E+03
  3.13900E+03 -4.06029E+03  2.11177E+03  2.45393E+03  2.37751E+03 -2.11532E+03  1.07904E+03  3.10487E+03
  1.60420E+03 -1.69063E+02  3.08841E+03  3.42282E+03  3.24632E+03  4.70430E+03 -1.37454E+02  2.34712E+03
 -1.73689E+03  6.03075E+03 -4.18542E+03  4.73380E+03 -4.98907E+03 -9.18792E+02 -5.75428E+03 -8.58485E+02
 -7.35870E+03 -7.21643E+03 -2.30094E+03 -3.86648E+03  3.94670E+03  1.04961E+03  6.21379E+03 -3.44097E+03
  4.34494E+03  1.95691E+03 -2.00033E+03 -2.13047E+03 -4.08680E+02  4.82726E+03 -3.13235E+03 -1.30721E+03
  2.17107E+03 -4.52065E+03  3.75037E+02 -4.95488E+03  8.45402E+02  1.02282E+03  3.25675E+03  1.88268E+03
 -1.54315E+02  4.12915E+03 -6.27869E+02  6.56401E+02 -5.00817E+03  2.51379E+03  6.36074E+02 -9.03224E+02
  1.21214E+03  4.57017E+01  5.82547E+03 -7.48821E+02  1.63685E+03 -1.37642E+03 -1.33308E+03  3.08276E+03
 -7.91381E+03  2.09402E+03 -7.07657E+03  4.02191E+03 -2.39183E+03 -3.66990E+02  1.96961E+03 -2.39209E+03
 -2.16576E+03 -1.82194E+03  1.49316E+03 -1.89511E+03 -1.63561E+03 -1.36006E+03 -3.01583E+03 -6.75351E+02
 -8.74518E+02 -5.28299E+02 -2.28606E+03 -2.03342E+03 -4.06032E+03 -6.27814E+03  3.79670E+03 -5.24404E+03
  2.62401E+03 -1.31898E+03  6.56379E+03  2.66802E+02  3.44699E+03 -1.10563E+03 -3.95054E+02  1.17154E+03
 -1.08647E+03 -4.32171E+03 -4.61553E+03  7.23003E+02 -3.83239E+02 -2.98552E+03  5.73232E+03 -6.77484E+01
  4.60536E+03  1.43644E+03  2.73525E+03  5.31494E+03 -3.51120E+03  3.29077E+03 -3.54043E+03  4.16902E+03
 -4.53133E+03 -9.06723E+01 -3.88764E+03  4.12967E+03  1.04203E+03 -1.68222E+03 -1.62098E+03 -2.54329E+03
  4.78684E+02  1.30922E+03 -6.27402E+02 -2.39609E+03 -6.00938E+02  8.55139E+00  1.88694E+03  4.16148E+03
  8.22785E+02  2.90847E+03 -3.31695E+03  9.11518E+02  2.46417E+03 -6.49652E+02 -1.15758E+03 -3.10287E+03
 -7.22231E+02  3.00439E+03 -5.93724E+03 -3.55965E+03 -2.48057E+03  9.73423E+02 -4.55739E+03  1.17436E+03
  2.58287E+02 -1.74489E+03  7.09844E+02 -3.19408E+03 -2.21274E+03 -2.58328E+03  3.01620E+03 -1.24794E+03
  7.00765E+03 -1.01701E+03  8.01089E+02 -1.35194E+02 -7.77111E+02  4.08213E+03 -8.21186E+02 -8.14128E+02
  2.81693E+03  2.50079E+02 -2.76158E+03 -3.48243E+03 -7.92306E+01 -2.27717E+03 -1.16662E+03 -1.28940E+03
  1.70746E+02 -4.72279E+03 -4.31929E+02 -2.16989E+03  1.86056E+03 -4.63088E+03  2.84361E+03 -3.92329E+03
  5.53436E+03 -6.89410E+02  1.89593E+02  2.27380E+03 -3.92846E+02  2.54016E+03 -1.96760E+03 -9.61863E+02
 -2.12833E+02  1.99855E+03 -6.79462E+01  3.55076E+03 -5.85064E+03 -4.99519E+02 -1.59750E+03 -3.75306E+03
 -8.43726E+02 -2.81307E+03 -4.23125E+02 -5.20318E+02  3.27717E+03  3.87976E+03  5.43936E+03 -2.01589E+03
  4.20024E+03  2.50560E+03  1.98428E+03 -2.41503E+03 -4.70855E+03  9.82391E+01 -2.08592E+03 -3.72353E+03
  2.80250E+03  1.27009E+03 -2.43963E+03 -1.32347E+02  2.43683E+03 -1.69745E+03  1.10733E+03  2.42978E+03
 -6.26007E+03 -6.43772E+03 -3.55745E+03 -2.74401E+03 -1.65285E+03  2.55224E+03  1.26316E+03 -4.14870E+03
 -1.41282E+03 -3.87656E+02  2.69071E+03 -1.34530E+02  1.03250E+03  3.87856E+03 -3.16546E+03  2.76158E+03
 -1.02757E+03 -3.88653E+03  3.67497E+01  2.86603E+03  3.39221E+02  1.33426E+03  3.20092E+02 -4.14211E+03
  2.61724E+03  4.06081E+03 -1.88952E+03 -1.04471E+03 -5.73993E+01  1.61303E+03 -3.58213E+03 -2.17879E+03
 -5.94553E+03  2.06339E+03 -7.72824E+02 -8.41558E+02  6.12122E+03 -8.28908E+03 -1.35809E+03 -2.65677E+03
  1.48309E+03 -2.85595E+03 -4.33915E+03  4.39900E+03 -3.43182E+03  1.35222E+03  6.56360E+00 -4.15630E+02
