 $NMID ID='MM_0lb_SNR50_10hz_g60_74.RAW', FMTDAT='(8E13.5)'
 TRAMP=1., VOLUME=1. $END
  3.09530E+05 -6.77992E+02  3.36187E+05  2.50895E+05  8.20255E+04  3.39019E+05 -1.33045E+05  2.46430E+05
 -1.92080E+05  8.32476E+04 -1.11924E+05 -2.59948E+04 -7.11190E+02 -5.64264E+04  6.10289E+04 -1.69084E+02
  4.08419E+04  5.00786E+04 -1.83993E+04  7.59119E+04 -5.74751E+04  6.58640E+04 -8.27712E+04  3.71687E+04
 -7.95800E+04 -1.50796E+04 -5.11992E+04 -5.45553E+04 -1.98001E+04 -7.06418E+04  2.77229E+04 -4.38089E+04
  3.78288E+04  3.36440E+03  1.74094E+04  5.22616E+04 -3.43560E+04  5.02323E+04 -6.31460E+04 -3.26349E+03
 -5.34534E+04 -6.07908E+04 -9.62085E+03 -8.86199E+04  3.27381E+04 -5.18135E+04  4.49013E+04 -2.15353E+04
  4.84778E+04  9.15574E+03  2.94988E+04  2.46874E+04  1.44993E+04  3.32280E+04 -8.93417E+03  2.81665E+04
 -2.40638E+04  1.04989E+04 -1.81579E+04 -1.14494E+04  7.02404E+03 -4.74086E+03  1.90951E+04  1.18076E+04
  8.93613E+03  3.67790E+04 -3.18115E+04  3.59309E+04 -6.18365E+04  7.13082E+03 -5.74297E+04 -4.46691E+04
 -1.10677E+04 -6.68420E+04  4.33677E+04 -4.29621E+04  6.05422E+04 -2.37203E+03  2.92463E+04  3.33483E+04
 -1.13584E+04  4.01592E+04 -3.13965E+04  1.95310E+04 -3.24631E+04 -7.60470E+02 -1.96451E+04 -1.30729E+04
 -1.31789E+04 -1.73439E+04 -2.86171E+03 -2.23098E+04  9.66282E+03 -2.43908E+04  1.56702E+04 -1.22750E+04
  1.46731E+04  8.91468E+03 -1.13253E+04  1.12991E+04 -1.99715E+04 -1.26907E+04 -7.18379E+03 -3.31250E+04
  2.53110E+04 -4.80292E+04  5.54188E+04 -1.95807E+04  4.44715E+04  2.23267E+04  1.55867E+04  5.03827E+04
 -1.79082E+04  3.34906E+04 -2.32235E+04  2.54537E+03 -1.38204E+04 -2.75903E+04  2.20165E+04 -4.38703E+04
  4.75207E+04 -7.23322E+03  4.23089E+04  2.34743E+04  1.88551E+04  5.17463E+04 -7.24048E+03  5.83387E+04
 -3.83689E+04  3.54768E+04 -4.60494E+04  9.22622E+03 -4.90963E+04 -2.58331E+04 -2.39961E+04 -3.55204E+04
  7.62513E+03 -4.51717E+04  2.69675E+04 -1.55441E+04  3.05850E+04  1.50080E+04  8.95881E+03  1.95755E+04
 -1.40951E+04  7.28877E+03 -8.94076E+03 -9.11221E+03  5.52515E+03 -1.13100E+04  1.62009E+04  3.81181E+03
  1.59403E+04  2.35151E+04 -5.60410E+03  2.35756E+04 -2.13713E+04  9.70003E+03 -3.06549E+04 -2.20373E+03
 -3.22511E+04 -1.46684E+04 -8.12416E+03 -2.96702E+04  1.32858E+03 -3.29479E+04  2.51287E+04 -2.20880E+04
  3.35438E+04 -1.73395E+04  3.66504E+04  2.93387E+03  2.29840E+04  3.07104E+04  3.62228E+03  3.83911E+04
 -1.48490E+04  3.66055E+04 -2.89496E+04  1.20729E+04 -2.18599E+04 -1.43088E+04 -9.40679E+03 -1.43746E+04
  2.79976E+03 -8.57566E+03 -7.36569E+03  1.07935E+04 -2.05660E+04  7.95689E+03 -2.15082E+04 -6.22455E+03
 -1.28181E+04 -2.41344E+04  8.10301E+03 -2.60024E+04  1.33351E+04 -1.77917E+04  1.84478E+04 -2.24581E+03
  5.99252E+03  1.36864E+04 -7.21697E+03  2.18884E+04 -1.37799E+04  1.76586E+04 -1.84597E+04 -5.94540E+03
 -1.30223E+04 -2.27618E+04 -3.56650E+03 -2.72343E+04  1.00507E+04 -2.17780E+04  2.32994E+04 -1.41859E+04
  1.69143E+04  1.91698E+03  1.69675E+04  4.71947E+03  1.01741E+04  1.08230E+04  1.49534E+04  3.05732E+03
  2.41933E+04  2.08772E+02  2.05446E+04  2.28675E+04  1.37470E+04  3.37208E+04 -4.50400E+03  4.42870E+04
 -3.25179E+04  3.97788E+04 -3.69375E+04  1.95725E+04 -4.66637E+04 -6.51522E+03 -3.46425E+04 -2.02735E+04
 -1.04690E+04 -3.49810E+04  8.94789E+03 -3.18834E+04  3.12322E+04 -1.48787E+04  2.40997E+04  6.24258E+03
  3.67312E+03  1.87454E+04 -8.15815E+03  2.44878E+04 -2.23835E+04  6.65326E+03 -1.44277E+04 -1.00526E+04
  1.00321E+03 -1.67104E+04  1.35860E+04 -2.15532E+04  9.60807E+03 -9.01243E+02 -3.96329E+03  1.44714E+04
 -9.91591E+03  1.21660E+03 -1.32969E+04 -1.19904E+04 -3.24630E+03 -1.52778E+04  8.47168E+03 -1.72602E+04
  2.29260E+04 -1.46772E+04  2.50212E+04  8.65413E+03  2.59148E+04  1.42784E+04  1.74896E+04  2.67410E+04
 -8.76531E+03  3.56332E+04 -1.56742E+04  1.90487E+04 -1.44506E+04 -1.25936E+03 -1.41428E+04 -8.07796E+03
 -1.67442E+04 -3.36474E+03  1.71972E+03  1.55824E+02 -6.01824E+03  2.39628E+03 -9.00520E+03  3.92948E+03
 -1.66576E+04 -7.97393E+02 -1.09869E+04 -1.22899E+04 -5.55233E+03 -2.05543E+04  1.04226E+04 -1.92445E+04
  1.18507E+04 -4.05891E+03  1.57612E+04 -6.46606E+03 -3.85160E+03  5.94605E+03 -8.29354E+03 -1.82824E+03
 -1.23936E+04 -6.81554E+03 -3.63019E+03 -1.35688E+04  7.61264E+03 -1.59173E+04  2.11116E+04 -1.26607E+04
  2.22954E+04  2.70923E+03  1.53583E+04  1.39648E+04  1.05794E+04  1.77061E+04 -1.08930E+04  1.54105E+04
 -1.37776E+04  7.69760E+03 -5.91417E+03 -4.21803E+03  2.51297E+03 -1.03449E+04  3.09771E+03 -5.14443E+03
  6.25158E+03  1.29533E+04  2.14758E+03  1.26463E+04 -1.41211E+04  1.63934E+04 -1.50165E+04  2.90465E+03
 -1.03063E+04 -1.21254E+04 -1.19395E+03 -1.21270E+04  8.19525E+03 -7.86857E+03  1.40491E+04  4.79866E+03
 -2.93505E+03  7.86341E+03 -5.98855E+03  1.87280E+04 -1.67045E+04  1.33937E+04 -1.32972E+04 -5.01374E+03
 -4.60523E+03 -2.13310E+04  2.49037E+03 -2.12264E+04  1.17722E+04 -1.68661E+04  1.32695E+04  2.83721E+03
  1.56545E+04  1.36293E+04 -1.59192E+03  1.80646E+04 -1.72489E+04  9.94367E+03 -1.33083E+04  9.62491E+03
 -7.49272E+03 -1.31296E+04  1.99197E+03 -1.48370E+04  2.03698E+03 -1.29252E+04  9.01791E+03 -1.49521E+02
  1.90050E+03  1.76286E+03  6.06276E+02 -1.60380E+03 -9.92168E+03  3.60189E+03  1.74515E+03 -9.83852E+03
  1.67414E+04 -1.98265E+02  1.76744E+04  1.93988E+03  1.44636E+04  7.61557E+03  1.73358E+04  2.20527E+04
 -3.57229E+03  2.97538E+04 -2.57995E+04  1.84094E+04 -2.83687E+04  5.82026E+03 -2.18898E+04 -8.93818E+03
 -8.74700E+03 -1.63096E+04  4.50772E+03 -1.91453E+04  4.29779E+03 -7.55283E+03 -4.91904E+03 -7.08507E+03
  6.96301E+03 -6.73686E+02  6.60917E+03 -3.60770E+03 -2.63570E+02 -1.37820E+02  1.25719E+04  4.83451E+03
  1.52113E+04  5.20678E+03 -1.27736E+03  1.12595E+04 -4.71429E+03  1.22307E+04 -1.16317E+04  3.03800E+03
 -8.63729E+03  2.21984E+02 -1.17668E+04 -1.14155E+04 -8.74181E+03 -1.06863E+04  7.19015E+03 -1.56324E+04
  1.29318E+04 -1.02824E+04  1.97529E+04 -1.93326E+03  9.12788E+03  1.08184E+04 -4.64611E+03  1.86840E+04
 -9.95173E+03  1.54023E+04 -1.01285E+04 -2.51512E+03 -7.29086E+03 -7.56076E+02 -3.84232E+03 -3.26036E+03
 -3.93176E+03  4.59137E+02 -3.22713E+03  3.43482E+03 -9.23781E+03  2.69387E+03 -6.30850E+03 -4.40858E+03
 -8.62416E+03 -1.15266E+04 -4.43542E+03 -1.07102E+04  7.73299E+03 -1.60208E+04  1.89906E+04 -8.90110E+03
  1.01119E+04  7.78156E+03  6.26270E+03  1.01169E+04 -1.23428E+03  1.24834E+04 -9.73778E+03  7.50538E+03
 -1.00131E+04 -2.90844E+03 -1.02953E+04 -7.24607E+03 -1.72240E+03 -1.28491E+04  7.21805E+03 -4.61737E+03
  1.38194E+04  1.47921E+03  7.02225E+03  5.28137E+03 -1.90331E+03  2.96371E+03  1.01532E+03 -2.19921E+03
  2.64181E+03  6.09968E+03  6.15526E+03  6.73272E+03  7.92808E+03  4.88044E+02  4.47497E+03  8.60678E+03
 -6.86964E+03  5.78568E+03 -6.32345E+03  1.45308E+04 -1.48176E+04  3.41295E+03 -9.71982E+03 -9.59513E+03
 -1.15592E+04 -1.77902E+04  5.91509E+03 -1.49956E+04  8.25329E+03 -1.32889E+04  1.27667E+04 -4.17804E+03
  8.21094E+03  1.12016E+04  1.13739E+01  5.01903E+03 -6.66252E+03 -8.21983E+02 -1.33408E+03  2.53629E+02
 -4.37731E+03 -1.56610E+03  7.71695E+03 -4.08415E+03  4.10947E+03 -7.53694E+00  4.08423E+03 -4.53560E+03
  3.08764E+03  3.42213E+03  4.50582E+03  1.54512E+03  4.43441E+02  7.67058E+03  2.86309E+03 -4.93263E+03
  3.02855E+03  4.57239E+02  1.02190E+04  3.43261E+03  8.10114E+03  7.97090E+03 -7.31480E+03  1.24061E+04
 -5.58659E+03  7.24923E+03 -4.20883E+03  9.76717E+02 -8.51514E+03 -6.72342E+03 -3.03562E+02 -7.07483E+03
  3.72650E+03 -4.26790E+03  5.83449E+03 -1.44631E+03 -2.20188E+03  7.25650E+03 -4.85827E+02  3.71570E+03
 -4.72594E+03  9.03621E+02 -6.77495E+03 -1.67735E+03 -4.34934E+03 -5.49378E+03  5.74222E+03 -6.11523E+03
  1.19807E+03 -9.41439E+03 -1.47993E+03 -4.63817E+03  3.96936E+03 -2.39265E+03 -1.35912E+03  4.47699E+03
  3.22775E+03  2.41865E+03 -2.50302E+03 -2.60147E+03  1.47900E+03 -5.22525E+03 -1.23321E+02 -4.62448E+03
  6.73037E+03  2.80770E+03  5.65202E+03  9.76493E+03  2.23348E+03  1.46747E+04 -1.62650E+03  8.16188E+03
 -5.79759E+03  7.15023E+03 -5.98179E+03 -5.10211E+03 -2.52847E+03 -5.84117E+03  8.95588E+01 -6.96470E+03
  5.33897E+03 -3.63442E+03  9.01066E+03  7.10461E+03  2.58030E+03  4.44072E+03  2.66033E+03  3.35603E+03
 -2.20017E+03  3.65546E+03 -1.15579E+02 -1.20388E+03  2.93883E+03  4.86102E+03 -2.71754E+03  2.16782E+03
 -4.54525E+03 -4.92543E+02 -9.51332E+03  9.21271E+03 -1.13951E+04  5.02320E+03 -1.11536E+04 -2.00059E+03
 -4.40801E+03 -5.72505E+03  4.77144E+03 -1.98344E+04  4.76708E+03 -9.45939E+03  1.51791E+04 -6.80295E+03
  9.39843E+03 -3.09296E+03  1.03051E+04  9.06269E+03 -3.54037E+03  8.17292E+03  6.89123E+02  1.50513E+04
 -7.74166E+03  4.11087E+03 -7.08995E+03  3.39331E+03 -3.81417E+03 -1.50002E+03 -2.73745E+03 -2.65123E+03
  3.81577E+03  1.41276E+03  1.28469E+03  5.91307E+03  1.67315E+03 -8.75763E+03  4.03328E+02 -4.32109E+02
 -2.61339E+01 -1.41424E+03  4.64478E+03 -2.52545E+03  1.31643E+04  1.23847E+04  2.99374E+03  6.55305E+03
  3.52283E+02  1.04322E+04 -1.05753E+04  3.63736E+03 -5.59549E+03  2.83795E+03 -8.11747E+03 -4.11805E+03
 -4.16648E+03 -1.11612E+04 -4.10162E+03 -3.80559E+03  7.54651E+03 -2.65572E+03  5.40421E+03  3.19869E+03
  6.72592E+03  4.13401E+03  4.26792E+02 -4.39055E+03 -9.76973E+02  3.18713E+03 -9.28708E+03  9.00383E+02
  3.73530E+02  4.72107E+03  5.46383E+03  4.41563E+03  6.33725E+03  4.81561E+03 -2.84027E+03  6.99783E+03
 -2.11166E+03  3.59065E+03 -8.57938E+03  5.92026E+03 -6.44883E+03 -6.16646E+03  4.17001E+02 -9.31057E+03
  1.54327E+03 -8.19109E+03  1.04176E+04 -3.85308E+03  5.04220E+03  5.12896E+03  3.56634E+03  3.02395E+03
  7.57310E+03  5.40432E+03 -3.79937E+03  5.88166E+03 -2.24071E+03  2.69416E+03 -5.50657E+03 -7.12618E+02
 -4.43734E+03  1.61132E+02 -6.07252E+03 -1.61481E+03 -8.32693E+03  1.27059E+03 -7.31606E+03  3.25774E+03
 -5.77930E+03 -6.16573E+03 -3.31399E+03 -2.78285E+03  1.60000E+02 -6.11444E+03  1.84667E+02 -3.46575E+03
  3.76257E+03 -3.79397E+03  6.32433E+03  6.28136E+03  3.17694E+03  4.81901E+03 -4.57047E+03  2.73095E+01
