 $NMID ID='MM_0lb_SNR50_9hz_g45_19.RAW', FMTDAT='(8E13.5)'
 TRAMP=1., VOLUME=1. $END
  3.09305E+05 -4.54839E+02  3.37367E+05  2.47761E+05  8.44994E+04  3.38197E+05 -1.27767E+05  2.50642E+05
 -1.90675E+05  8.44666E+04 -1.13481E+05 -3.81349E+04  1.85624E+03 -4.93965E+04  4.89905E+04  6.75649E+02
  3.37551E+04  5.61680E+04 -1.17563E+04  8.03459E+04 -6.75297E+04  6.23669E+04 -8.07123E+04  3.26981E+04
 -8.17158E+04 -8.48322E+03 -6.01019E+04 -5.54954E+04 -1.06829E+04 -6.94510E+04  2.31074E+04 -4.67732E+04
  4.21726E+04  2.44701E+03  1.20287E+04  4.92630E+04 -3.95826E+04  4.47918E+04 -6.84225E+04  8.59720E+01
 -4.87328E+04 -6.13972E+04 -5.22148E+03 -8.04375E+04  3.16024E+04 -4.97976E+04  4.58873E+04 -2.14799E+04
  4.39683E+04  9.81930E+03  3.51719E+04  2.25791E+04  2.26255E+04  2.65958E+04 -3.75502E+03  3.20343E+04
 -2.86349E+04  1.52100E+04 -2.37640E+04 -9.01052E+03  7.01278E+03 -9.79176E+03  1.73858E+04  1.62216E+04
  2.90993E+03  3.52430E+04 -3.53582E+04  3.62153E+04 -6.26131E+04 -3.37585E+03 -5.89116E+04 -4.42989E+04
 -1.33161E+04 -5.69806E+04  4.66179E+04 -4.28858E+04  6.16653E+04 -6.57541E+03  3.55081E+04  3.17208E+04
 -1.09062E+04  4.08160E+04 -2.97300E+04  1.82777E+04 -3.93691E+04  2.66506E+03 -1.92777E+04 -1.07808E+04
 -1.01014E+04 -1.99042E+04 -1.36371E+02 -1.60493E+04  5.23663E+03 -2.52982E+04  1.43491E+04 -7.47159E+03
  1.14583E+04  7.09849E+03 -8.93443E+03  1.67957E+04 -2.49553E+04 -4.68126E+03 -1.07622E+04 -4.03664E+04
  2.54950E+04 -4.15508E+04  4.73178E+04 -2.17130E+04  4.67714E+04  2.01945E+04  1.63126E+04  4.85907E+04
 -2.41077E+04  3.95944E+04 -2.98305E+04  1.16067E+03 -9.55220E+03 -2.76868E+04  1.66644E+04 -3.48768E+04
  4.15593E+04 -1.01349E+04  4.09076E+04  1.90880E+04  2.44333E+04  4.81577E+04 -8.82666E+03  5.78933E+04
 -3.30739E+04  3.53639E+04 -4.14259E+04  7.73462E+03 -5.31112E+04 -1.98238E+04 -3.15778E+04 -4.42732E+04
  5.91868E+03 -5.09550E+04  3.64008E+04 -1.46046E+04  2.86910E+04  1.53987E+04  8.36547E+03  2.23809E+04
 -1.21171E+04  1.23539E+04 -1.13834E+04 -6.18870E+03  1.00041E+04 -1.30433E+04  1.65097E+04  6.86530E+03
  1.20571E+04  2.29972E+04  3.82527E+03  2.64130E+04 -2.20750E+04  7.67357E+03 -2.71258E+04  3.12217E+03
 -2.25985E+04 -2.01949E+04 -1.19014E+04 -2.50328E+04  2.45215E+02 -2.63138E+04  1.88794E+04 -2.70964E+04
  2.80769E+04 -1.29156E+04  3.58590E+04 -3.59657E+02  2.87443E+04  2.30045E+04  3.12198E+03  4.12622E+04
 -2.15845E+04  3.70911E+04 -2.77152E+04  1.09699E+04 -2.46566E+04 -8.80846E+03 -1.04202E+04 -1.25318E+04
  2.31025E+02  2.12362E+03 -6.94945E+03  8.42836E+03 -2.41349E+04  7.90241E+03 -1.97264E+04 -9.99483E+03
 -1.22827E+04 -1.88247E+04  5.74446E+03 -2.84474E+04  1.51339E+04 -1.52753E+04  1.75725E+04 -4.48643E+03
  1.93494E+04  1.93079E+04 -1.46308E+03  2.09677E+04 -1.67875E+04  5.79771E+03 -1.80807E+04 -3.54974E+03
 -1.90785E+04 -1.51795E+04 -7.40174E+03 -3.08802E+04  6.72073E+03 -2.23703E+04  2.26402E+04 -1.02091E+04
  1.76708E+04 -4.51063E+03  9.83071E+03  1.99759E+03  1.10631E+04  1.85120E+03  1.22004E+04 -6.00122E+03
  2.22348E+04  6.49321E+03  2.70277E+04  2.17683E+04  1.82864E+04  3.28052E+04  4.33628E+03  4.22478E+04
 -2.43287E+04  4.05491E+04 -4.17406E+04  1.72805E+04 -4.34269E+04 -3.56964E+03 -3.63419E+04 -1.96573E+04
 -1.45183E+04 -3.84899E+04  1.26795E+04 -3.40322E+04  2.31434E+04 -1.65499E+04  2.08025E+04  8.36958E+03
  8.28038E+03  1.19187E+04 -1.11164E+04  1.53968E+04 -2.29068E+04  6.08019E+03 -1.67353E+04 -1.42359E+04
  3.79801E+03 -1.47094E+04  1.10179E+04 -1.73799E+04  1.56608E+04 -4.95214E+03  1.15933E+03  1.11021E+04
 -7.19727E+03  1.35098E+03 -1.27615E+04 -4.62257E+03 -3.00438E+03 -1.61073E+04  1.07117E+04 -2.25401E+04
  2.36567E+04 -7.33016E+03  2.37957E+04 -3.36211E+03  1.89419E+04  1.49847E+04  1.25328E+04  2.83995E+04
 -5.36414E+03  2.85943E+04 -2.24347E+04  1.89369E+04 -2.10982E+04  9.30417E+03 -1.32774E+04 -7.79740E+02
 -6.42793E+03 -1.01010E+03 -3.54281E+03  3.28475E+03 -7.86590E+03  3.05081E+03 -1.51973E+04  4.71261E+03
 -1.23083E+04 -4.08195E+03 -1.33672E+04 -8.96438E+03 -4.37553E+03 -2.50014E+04  1.09919E+04 -1.21843E+04
  1.59407E+04 -8.06971E+03  1.19496E+04  1.28103E+04 -3.41240E+03  7.57226E+03 -6.26756E+03  5.32335E+03
 -1.05220E+04 -4.54794E+03 -4.90432E+03 -2.06583E+04  6.61843E+03 -1.59304E+04  2.17564E+04 -2.93572E+03
  2.37087E+04  7.43554E+03  1.95284E+04  3.73983E+03  5.16697E+03  1.60291E+04 -1.47006E+04  1.55563E+04
 -1.23600E+04  3.33919E+03 -6.32510E+03 -3.36666E+03  1.17614E+04 -7.73063E+03  9.83817E+03  5.24277E+02
  8.11473E+03  4.82113E+03  5.20389E+02  1.66083E+04 -8.33025E+03  7.74178E+03 -1.93356E+04  2.68819E+03
 -9.22524E+03 -9.52244E+03 -5.14583E+02 -1.07105E+04  7.71153E+03 -6.78337E+03  8.56795E+03  6.72585E+03
  2.51344E+03  1.00163E+04 -5.02412E+03  5.55671E+03 -1.84834E+04  5.45200E+03 -1.17123E+04 -6.28157E+03
 -9.12620E+03 -1.44134E+04  2.91959E+03 -1.82173E+04  1.23309E+04 -4.03942E+03  2.04995E+04  3.05691E+03
  5.47383E+03  1.51791E+04 -1.71786E+03  1.95967E+04 -1.46266E+04  6.58963E+03 -6.86614E+03 -8.27249E+03
 -1.55596E+04 -1.17994E+04 -3.33029E+03 -7.23312E+03  5.21059E+03 -1.22621E+04  2.39276E+03 -8.09800E+03
  5.28579E+03  3.56608E+03 -3.68689E+03  8.48443E+03  2.45591E+03 -6.98320E+03  5.97364E+03 -7.79341E+03
  9.02884E+03 -3.13610E+03  1.33615E+04 -1.24803E+03  1.39569E+04  1.16816E+04  3.57109E+03  1.75796E+04
 -5.51241E+03  2.12291E+04 -2.16875E+04  1.88694E+04 -2.41756E+04  2.29501E+03 -2.36108E+04 -7.82182E+03
 -1.18745E+04 -1.59090E+04  3.29708E+03 -1.33246E+04  6.54229E+03 -8.41314E+03  7.97163E+03 -4.63283E+03
 -8.71436E+02 -8.65858E+03  5.53945E+02 -6.73904E+03  9.79025E+03 -1.04149E+03  1.05407E+04  2.08736E+03
  7.37360E+03  8.24594E+02  6.41058E+03  7.66046E+03 -8.14948E+03  9.38438E+03 -1.30967E+04  7.85621E+03
 -1.98923E+04 -4.21933E+03 -4.32598E+03 -6.66019E+03 -1.02279E+03 -6.13857E+03  7.21402E+03 -1.36901E+04
  2.00001E+04 -8.41330E+03  2.64202E+04  3.52936E+02  1.99775E+04  1.01950E+04  4.19444E+03  2.22698E+04
 -1.70587E+04  4.03300E+03 -1.62121E+04  2.33551E+03 -5.71964E+03  9.44798E+02 -2.72437E+03  8.47420E+02
 -4.37777E+03  4.47094E+03  3.43300E+03  3.30515E+03 -2.48023E+03  7.12327E+02 -1.33829E+04  3.76375E+02
 -1.11343E+04 -1.29028E+04 -4.42563E+03 -1.41495E+04  8.41036E+03 -1.05553E+04  1.53092E+04 -3.82052E+03
  1.05388E+04  7.84959E+03  7.31081E+03  1.11970E+04 -2.73335E+03  1.21783E+04 -1.08299E+04  4.88426E+03
 -1.14187E+04  5.15278E+03 -1.51282E+04 -1.15858E+04 -5.03033E+03 -1.07561E+04  1.25505E+03 -4.13678E+03
  1.03793E+04 -1.90904E+03  9.28882E+03 -3.05556E+03  3.26216E+02  1.77232E+03 -3.18686E+03 -2.79420E+03
  6.97008E+03  5.43296E+03  4.01405E+03  2.79299E+03 -1.91116E+02  6.06949E+03  3.94441E+03  9.57130E+03
  3.70595E+02  1.76235E+04 -9.66599E+03  8.84407E+03 -1.74137E+04  7.91777E+02 -1.31162E+04 -9.75047E+03
 -5.92606E+03 -2.35967E+04  1.67823E+03 -1.10977E+04  5.04567E+03 -1.41594E+04  1.36307E+04 -9.04495E+03
  1.38036E+04  6.72750E+03 -1.15328E+02  6.71955E+03 -6.61564E+03  6.17049E+03 -5.38986E+03  3.04458E+03
 -3.73509E+02 -1.00097E+04  1.35564E+03 -5.65176E+03  1.15737E+04 -4.48437E+03  2.71904E+03 -2.92085E+03
  1.25644E+03  2.90687E+03  6.69989E+02  5.03292E+03  3.05470E+03 -6.50300E+02  3.52747E+03 -2.48784E+03
  4.19089E+03  2.38150E+03  4.86039E+03  1.98724E+03  7.95895E+03  1.08202E+04 -6.61164E+03  8.29190E+03
 -1.00153E+04  7.15514E+03 -1.31180E+04  2.18157E+02 -1.24369E+04 -4.77827E+03 -4.95237E+03 -4.26741E+03
  1.86864E+03 -5.34884E+03  2.90571E+03 -1.51699E+03  1.93783E+02  2.53308E+03  6.56764E+02  4.41799E+03
 -9.22671E+03  3.43851E+03 -2.11674E+03 -2.75296E+03 -5.47737E+03 -1.02405E+04  4.64884E+02 -1.24580E+04
  9.02864E+03 -5.77412E+03  5.32558E+03  3.83790E+03  4.99243E+03  1.82538E+03  7.39905E+02  9.43317E+03
  4.60634E+03 -5.07200E+03 -2.51334E+03 -2.13777E+03  5.47693E+02 -4.26358E+03  1.06899E+04  1.24236E+02
  5.84485E+03  3.45760E+03  9.97872E+03 -2.39996E+03  6.72324E+03  6.36095E+03  1.06349E+03  3.21199E+03
 -1.51040E+04  8.07256E+03 -9.59458E+03 -2.90533E+03 -1.21765E+04 -4.02043E+03  4.77938E+03 -5.01338E+03
  2.64839E+03 -3.51714E+03  1.91215E+03 -2.86949E+03 -2.66092E+03  6.19732E+03  3.08251E+03  9.57796E+03
  8.39126E+02  6.37256E+03  2.92441E+02 -2.43873E+03 -7.20004E+03  3.63884E+03 -7.20829E+03  1.64143E+03
 -7.37572E+02  4.47193E+03 -5.39060E+03 -3.81260E+03 -7.30972E+03  6.20530E+02 -1.71916E+04 -8.99779E+03
 -6.30900E+03 -1.25565E+04  1.14739E+03 -1.42620E+04  6.21524E+03 -1.16399E+04  1.29464E+04 -4.22593E+03
  1.37531E+04  4.74820E+03  4.71826E+03  4.04965E+03  2.77872E+03  1.16613E+04 -2.28995E+01  5.08630E+03
 -8.34662E+03  1.42899E+02 -2.61661E+03 -9.69400E+02 -3.79906E+03 -1.05853E+03 -2.61355E+00  1.67858E+02
 -6.22716E+03 -2.53941E+03 -2.30495E+03 -2.48149E+03  3.11920E+02  8.46646E+01 -1.09691E+03 -5.57285E+03
  8.12082E+03 -7.69351E+03  5.63256E+03  4.29467E+03  6.51765E+03  4.30553E+03  7.56375E+02  1.05157E+04
 -1.58046E+03  1.05603E+04 -1.32776E+04  2.79967E+03 -9.65392E+03 -4.23432E+03 -9.66541E+03 -1.37892E+04
 -3.13812E+03 -1.17224E+04  5.87800E+03 -9.53190E+03  8.55215E+03  1.27843E+03  1.15007E+04  2.25124E+02
  5.24683E+03  2.30947E+02 -2.41711E+03  1.16882E+02 -4.26935E+03 -2.30457E+03  4.73634E+03 -2.66817E+03
  3.09855E+03 -9.80458E+02 -3.29153E+02 -3.72411E+02 -1.20784E+03  3.59562E+03  4.00424E+02  5.19678E+03
 -8.13179E+03  1.52227E+04 -8.57139E+03  6.56699E+03 -2.53558E+03 -6.98001E+03 -4.94398E+03 -5.17290E+03
  4.05247E+03 -2.99006E+03  3.56259E+03  1.53873E+03  1.35138E+04 -1.24309E+03  1.32836E+03  3.75054E+03
  5.70537E+03  7.23199E+03 -1.79366E+03  6.19803E+03 -7.99601E+03  3.82842E+02 -1.52599E+03  4.43950E+03
  1.27111E+03 -6.34470E+02 -6.15531E+01 -8.79574E+01  4.10718E+02  3.48902E+03 -6.57302E+02  1.09609E+02
 -1.98276E+03 -3.58578E+03 -1.68311E+03 -9.43308E+03  1.86724E+03 -3.11836E+03  6.09017E+03 -1.36820E+04
  9.34261E+03  4.85069E+03  9.72139E+03  2.77338E+03  2.92083E+03  9.99617E+03 -4.52455E+03  2.16115E+03
