 $NMID ID='MM_0lb_SNR50_13hz_g50_55.RAW', FMTDAT='(8E13.5)'
 TRAMP=1., VOLUME=1. $END
  3.08828E+05  1.40777E+03  3.38812E+05  2.51374E+05  8.70160E+04  3.38235E+05 -1.29670E+05  2.50213E+05
 -1.94146E+05  8.21782E+04 -1.06660E+05 -3.40220E+04  3.75559E+03 -5.07678E+04  5.63691E+04 -3.50991E+03
  3.53180E+04  5.62074E+04 -1.85347E+04  7.72019E+04 -5.74609E+04  6.64562E+04 -8.46620E+04  2.94307E+04
 -8.41441E+04 -1.13112E+04 -5.89731E+04 -5.33609E+04 -1.55795E+04 -6.75342E+04  2.47479E+04 -4.84496E+04
  4.11914E+04  6.10638E+03  1.29945E+04  4.84474E+04 -3.90011E+04  4.66674E+04 -6.85215E+04 -2.94926E+03
 -5.16311E+04 -6.07050E+04 -5.53114E+03 -8.23878E+04  3.15079E+04 -5.28996E+04  4.74739E+04 -1.55279E+04
  4.59570E+04  1.19211E+04  2.82028E+04  2.31612E+04  1.54379E+04  3.01261E+04 -7.89729E+03  2.61065E+04
 -2.26353E+04  1.38525E+04 -1.69426E+04 -1.21443E+03  2.94407E+03 -5.08949E+03  2.19543E+04  1.12767E+04
  8.53083E+03  3.27249E+04 -3.10164E+04  3.67261E+04 -6.81440E+04  6.75009E+02 -5.19503E+04 -4.12499E+04
 -7.43545E+03 -6.29432E+04  4.03678E+04 -4.57640E+04  5.68283E+04  1.46009E+03  4.14070E+04  3.62051E+04
 -6.52088E+03  3.71199E+04 -2.78106E+04  1.63933E+04 -2.89014E+04 -1.12795E+03 -1.54982E+04 -1.26432E+04
 -6.04398E+03 -1.51015E+04  3.95495E+02 -2.09531E+04  8.35790E+03 -2.96974E+04  1.47933E+04 -1.16601E+04
  1.14192E+04  4.96164E+03 -9.26666E+03  1.29876E+04 -2.15566E+04 -6.47646E+03 -4.40025E+03 -3.28963E+04
  2.74718E+04 -4.82913E+04  4.77167E+04 -1.80871E+04  4.78271E+04  1.96994E+04  1.44156E+04  4.70350E+04
 -2.01365E+04  3.04329E+04 -2.55410E+04  6.44402E+02 -6.91408E+03 -2.92079E+04  2.39579E+04 -3.78702E+04
  4.12757E+04 -4.47445E+03  3.34734E+04  2.86432E+04  1.62400E+04  4.30965E+04 -6.76356E+03  4.91170E+04
 -3.17555E+04  3.48416E+04 -4.11701E+04  1.07094E+04 -4.97686E+04 -1.54724E+04 -2.69287E+04 -3.68098E+04
  8.17980E+03 -4.21298E+04  3.44677E+04 -1.79395E+04  2.99334E+04  1.30597E+04  2.42211E+03  1.73902E+04
 -1.72376E+04  9.61172E+03 -1.12751E+04 -8.97397E+03  8.53294E+03 -1.57228E+04  1.90296E+04  5.92328E+03
  1.58684E+04  2.05833E+04 -1.44502E+03  2.48645E+04 -1.99593E+04  1.41521E+04 -2.45255E+04 -5.72554E+03
 -2.23826E+04 -1.60679E+04 -1.88328E+04 -2.59251E+04  4.10126E+03 -1.73753E+04  1.89055E+04 -1.91201E+04
  2.79657E+04 -1.10406E+04  3.07223E+04  2.53592E+03  2.81993E+04  2.34322E+04  8.71995E+02  3.81524E+04
 -2.48965E+04  3.54705E+04 -3.03907E+04  1.12537E+04 -1.71668E+04 -7.32975E+03 -5.14819E+03 -1.84298E+04
 -1.62611E+03 -2.67407E+01 -5.13366E+03  6.82631E+03 -1.81408E+04  8.37620E+03 -1.55100E+04 -4.02783E+03
 -8.70631E+03 -1.96132E+04  6.84213E+03 -2.45350E+04  1.43021E+04 -1.33226E+04  2.02088E+04 -4.42154E+03
  1.07265E+04  1.85448E+04  1.15153E+03  2.05220E+04 -1.60088E+04  8.73468E+03 -2.00055E+04 -5.06811E+03
 -1.70269E+04 -2.22378E+04 -2.21371E+03 -2.53398E+04  1.41396E+04 -1.79871E+04  1.55114E+04 -1.36163E+04
  2.02370E+04  2.38123E+03  1.06008E+04  4.10145E+03  1.00565E+04  1.01105E+03  9.74426E+03 -6.92877E+03
  2.57856E+04  3.42780E+03  2.06933E+04  1.21804E+04  1.07394E+04  3.01824E+04 -8.17746E+03  3.55804E+04
 -2.06482E+04  2.71013E+04 -3.62072E+04  1.54058E+04 -3.59271E+04 -2.43245E+03 -3.07853E+04 -1.46808E+04
 -9.17205E+03 -2.82797E+04  1.17885E+04 -2.76459E+04  2.06411E+04 -1.24735E+04  1.53050E+04  6.26263E+03
  7.60244E+03  1.21380E+04 -1.06066E+04  1.49338E+04 -1.77130E+04  3.98206E+03 -1.58335E+04 -1.02126E+04
 -2.33066E+03 -1.60523E+04  1.09562E+04 -1.21067E+04  1.34265E+04 -3.24527E+03  3.53308E+03  9.35083E+03
 -7.65759E+03 -1.53716E+03 -9.50793E+03 -7.50034E+03  1.79056E+03 -9.52759E+03  1.17514E+04 -1.68324E+04
  1.80656E+04 -1.16677E+04  2.37683E+04  3.83176E+03  1.44338E+04  1.62431E+04  6.65938E+03  2.63271E+04
 -3.52748E+03  2.89439E+04 -1.20154E+04  1.25017E+04 -1.82593E+04  2.19177E+03 -1.36166E+04 -1.52242E+03
 -2.78153E+03 -4.56874E+03 -2.66426E+03 -2.19933E+03 -1.36751E+03  2.63584E+03 -6.51815E+03  4.88876E+03
 -1.01931E+04  1.74361E+03 -9.11293E+03 -1.02237E+04 -2.30218E+00 -1.92225E+04  8.99725E+03 -1.35896E+04
  1.28926E+04 -2.57360E+03  9.27016E+03  8.45614E+03  7.30735E+03  4.62580E+03 -5.70126E+03 -3.19011E+03
 -1.47349E+03 -1.40685E+04 -2.60882E+03 -1.22382E+04  1.04128E+04 -5.85994E+03  1.38435E+04 -5.77015E+03
  1.73060E+04 -1.16479E+02  1.34510E+04  1.31601E+04  3.17867E+03  1.20934E+04 -1.00936E+04  1.02103E+04
 -5.68843E+03  3.29451E+03 -5.54269E+03  2.82473E+03  1.12930E+03  1.73796E+03  3.91144E+03 -2.39487E+03
  6.74625E+03  9.31885E+03  4.27021E+03  4.01330E+03 -5.95278E+03  6.69042E+03 -6.32490E+03  3.89944E+03
 -4.46702E+03 -7.09975E+03  1.65027E+03 -1.52073E+04  1.12324E+04 -4.38415E+03  6.66178E+03  1.66820E+03
 -8.60610E+02  8.23311E+03 -6.02453E+03  6.59715E+03 -9.58825E+03  2.61854E+03 -8.05762E+03 -1.95211E+03
  1.17101E+03 -1.08811E+04  4.44256E+02 -1.09880E+04  1.44315E+04 -4.07828E+03  1.00023E+04  3.28718E+03
  7.61791E+03  8.98463E+03 -3.48601E+02  1.00680E+04 -7.87576E+03  8.71910E+03 -5.77664E+03 -6.29518E+02
 -1.12167E+04 -5.15759E+03  2.67396E+02 -1.15310E+03  3.28868E+03 -1.12241E+04  5.10596E+03 -2.99053E+03
  7.04104E+03  9.98893E+02 -3.75713E+03  6.36762E+03 -5.73300E+03 -5.10442E+03  1.19129E+00 -5.22306E+03
  8.64574E+03 -7.15911E+03  9.70180E+03  3.97817E+03  1.03296E+04  8.68596E+03  6.15847E+02  1.40999E+04
 -3.13599E+03  1.99492E+04 -1.41030E+04  1.24268E+04 -1.94545E+04 -6.51604E+02 -8.20722E+03 -1.15617E+04
 -9.74397E+03 -1.09428E+04  2.59138E+01 -9.49516E+03  7.42155E+03 -4.26806E+03 -4.42893E+02 -4.39086E+03
  6.39542E+03 -8.01950E+03  5.80850E+02 -4.37259E+03  5.52080E+03 -6.91479E+03  8.66376E+03  4.84045E+03
  6.49911E+03  3.36144E+03  1.68471E+03  3.95056E+03 -4.05328E+03  6.94748E+03 -6.10446E+03  3.71579E+03
 -8.60352E+03 -2.08946E+03 -5.80830E+03 -7.76989E+03 -2.08328E+02 -1.24612E+04  1.11263E+04 -1.64834E+04
  1.62688E+04 -5.55782E+03  1.59831E+04  2.64760E+03  8.14253E+03  1.24141E+04  3.31487E+03  1.11656E+04
 -1.12784E+03  7.18864E+03 -9.95304E+03 -3.08018E+03 -3.41783E+03 -2.26201E+03  1.55276E+03  1.64106E+03
  1.70839E+03 -3.58096E+03  2.85326E+03  5.26722E+03 -6.83549E+03 -1.07002E+03 -9.31753E+03  2.12471E+02
 -7.85091E+03 -1.20164E+04  2.07197E+03 -9.95907E+03  4.75099E+03 -6.95434E+03  9.57873E+03 -2.36996E+03
  1.11683E+04  1.19273E+04  4.28996E+03  6.39439E+03 -1.10603E+03  8.82492E+03 -7.38479E+03  1.03630E+04
 -6.04105E+03  4.86553E+02 -6.30742E+03 -4.81944E+03 -3.92849E+03 -1.08093E+04 -8.60244E+02 -1.03476E+03
  1.06758E+03 -1.17174E+03  5.27361E+03 -1.09214E+03 -1.15000E+03  9.59679E+03 -1.26904E+03  3.59561E+02
  1.40324E+03  3.93143E+03  6.65142E+02 -9.06673E+02  9.51402E+02  2.19625E+03  5.74413E+03  3.81024E+03
 -5.08319E+03  7.22416E+03 -1.21352E+04  1.14084E+04 -1.29146E+04  5.01605E+03 -8.71824E+03 -3.64041E+03
 -4.86285E+03 -8.95049E+03 -7.96311E+02 -1.13963E+04  7.81775E+03 -6.28255E+03  6.14524E+03 -4.82512E+02
  3.44018E+03  5.38353E+03 -2.01396E+03  5.61274E+03  4.23182E+03 -3.98258E+02 -1.81532E+03 -1.73231E+03
 -4.94744E+03  5.87303E+02  4.80176E+03 -1.46742E+03  6.48790E+03 -8.92784E+03  1.62913E+03 -4.21571E+03
 -2.85739E+02  6.23518E+02  3.39899E+03  1.56452E+03 -8.41093E+02 -2.02492E+03  1.41348E+03  2.57508E+03
 -1.53960E+03 -3.11154E+03  3.34103E+03 -2.08636E+03 -4.89572E+03  1.96189E+03 -5.41743E+03  2.65724E+03
 -1.57065E+03  2.57828E+03 -2.91055E+03  3.35297E+03 -6.84399E+03  3.68639E+02 -3.91869E+03 -3.72359E+03
 -6.19951E+02 -7.18297E+03  2.79604E+02 -5.14036E+03 -1.49726E+03  4.69757E+03 -3.91764E+03  2.81237E+03
 -8.91580E+03 -2.26224E+03 -2.18628E+03 -2.59256E+03 -4.64453E+03 -5.26237E+03  3.77942E+03 -6.92826E+03
  4.78463E+03 -2.57839E+03  5.63724E+03  6.11951E+02  6.83965E+03  4.81249E+03  4.27908E+02  2.46658E+03
  9.65383E+02  4.37865E+02 -1.94094E+03  6.71606E+02  3.49936E+03 -1.47303E+03 -1.44820E+03 -5.01746E+03
  1.96046E+03  2.44046E+02  5.93857E+03  2.89497E+03  4.60999E+03  8.85800E+03 -4.44362E+03  5.90599E+03
 -8.09742E+03  7.51008E+03 -6.26497E+03 -2.64160E+03  2.44487E+02 -1.44406E+03 -2.39923E+03 -6.23555E+03
  3.89566E+02 -2.90814E+02  4.47176E+03  4.50840E+03 -8.92740E+01 -1.59367E+03  7.10232E+03  2.24616E+03
 -2.54186E+03  6.30807E+02 -1.20579E+03 -2.52020E+03  1.43949E+03  1.42053E+03 -3.71907E+03  2.75491E+03
 -1.67240E+03  2.48050E+02 -5.86746E+03 -2.12268E+03 -3.83494E+03  2.01502E+03 -9.04451E+03 -4.65601E+03
  1.42775E+03 -1.17089E+04 -9.45016E+02 -8.78202E+03  1.02114E+04 -7.64573E+03  7.35137E+03  6.09357E+02
  4.83535E+03  1.48585E+03  5.06882E+03  5.57594E+02 -5.01520E+03  8.17502E+03  9.40228E+02  7.30884E+03
 -3.93383E+03  7.52603E+03 -6.19319E+03 -1.75913E+03  2.82004E+03 -2.65930E+03 -5.41047E+02 -3.54979E+02
 -7.27052E+03 -3.71505E+03  9.33293E+02 -1.83414E+03  1.06008E+03 -1.62960E+03  5.29382E+02 -2.30741E+03
  6.46570E+02 -1.34401E+03 -5.56817E+02  3.34368E+03 -6.48877E+02  7.50059E+03  5.15204E+03  6.52058E+03
 -3.98643E+01  4.24153E+03 -5.54111E+03  2.78349E+03 -7.18766E+03 -1.10704E+03 -7.41945E+03  6.33003E+02
 -4.98861E+03 -5.48952E+03  2.93972E+02 -3.38649E+03 -4.35596E+03 -3.46021E+02  4.98862E+03 -2.19451E+03
 -2.93085E+03 -1.16178E+03 -1.14833E+03  4.70274E+02 -3.98839E+03 -3.75200E+03 -1.93683E+03 -4.89295E+03
  2.58113E+03 -5.59377E+03  9.04652E+02  3.43095E+03 -5.63592E+03  4.53974E+03 -3.96688E+03  4.27461E+03
 -5.73307E+03  4.68330E+02 -9.01299E+03 -2.54089E+03 -5.13827E+03  1.23257E+03  5.68347E+03 -9.76928E+03
  5.74049E+03 -3.19300E+03  1.05620E+04 -4.38899E+03  4.75593E+03 -3.96586E+03  1.79467E+03  5.92828E+03
  4.33499E+03  5.67586E+03  3.82416E+03  2.83072E+02  1.04495E+03  2.24135E+03 -2.61822E+03  3.65589E+03
  2.17357E+03 -2.36557E+03 -4.35327E+02  4.70288E+03 -1.14339E+03 -7.73243E+02 -4.63566E+03 -1.56682E+03
  7.57733E+02 -1.84081E+03 -5.15128E+03 -5.59551E+03 -2.29397E+02 -3.20777E+03  1.58625E+03 -5.70643E+03
  5.61380E+03 -3.82486E+03  3.31208E+03  6.76702E+02 -2.71943E+03  1.55879E+03 -4.41844E+03  1.44837E+03
