 $NMID ID='MM_0lb_SNR50_9hz_g60_51.RAW', FMTDAT='(8E13.5)'
 TRAMP=1., VOLUME=1. $END
  3.07525E+05  2.01986E+03  3.35654E+05  2.46160E+05  8.07822E+04  3.36179E+05 -1.33414E+05  2.50432E+05
 -1.89424E+05  8.02778E+04 -1.10766E+05 -2.81502E+04 -7.98213E+02 -4.40937E+04  4.87412E+04 -2.38673E+03
  2.84721E+04  5.16178E+04 -1.55481E+04  7.83619E+04 -5.64045E+04  6.68362E+04 -8.91656E+04  3.76146E+04
 -8.47375E+04 -1.11172E+04 -5.59001E+04 -5.84458E+04 -8.93616E+03 -7.58657E+04  2.78961E+04 -4.39640E+04
  4.30221E+04  1.12983E+03  1.27711E+04  5.54870E+04 -3.63123E+04  4.59223E+04 -7.09406E+04 -1.18775E+03
 -4.82621E+04 -6.63315E+04 -9.50237E+03 -7.91395E+04  3.84355E+04 -5.76170E+04  5.12913E+04 -1.48734E+04
  5.45695E+04  2.77132E+03  3.89692E+04  2.95506E+04  1.60226E+04  3.46326E+04 -4.93191E+03  2.66068E+04
 -2.09781E+04  1.30105E+04 -2.33798E+04 -1.14700E+04  2.62310E+03 -1.64404E+04  2.42400E+04  1.26255E+04
 -2.69775E+02  4.24594E+04 -3.13405E+04  3.97507E+04 -6.61693E+04  4.23234E+03 -6.01151E+04 -4.90974E+04
 -1.46792E+04 -6.33500E+04  3.85267E+04 -4.56489E+04  6.60329E+04 -2.60901E+03  4.00280E+04  3.82359E+04
 -4.50901E+03  4.28104E+04 -3.60345E+04  1.94621E+04 -3.71146E+04  6.81556E+02 -1.62659E+04 -1.27515E+04
 -9.46479E+03 -1.10917E+04 -9.21349E+02 -2.01268E+04  8.18572E+03 -2.75756E+04  1.45612E+04 -1.51143E+04
  1.32375E+04  9.80088E+03 -1.26156E+04  1.03663E+04 -2.67992E+04 -7.31381E+03 -8.23161E+03 -4.15027E+04
  3.17484E+04 -5.20346E+04  5.16644E+04 -2.14357E+04  4.45890E+04  1.83264E+04  1.74392E+04  4.16856E+04
 -1.65882E+04  3.60891E+04 -2.86399E+04 -6.64486E+02 -1.00836E+04 -2.80845E+04  2.49488E+04 -4.24559E+04
  4.78571E+04 -1.15619E+04  4.72669E+04  2.45850E+04  2.02267E+04  4.72570E+04 -8.43213E+03  5.63916E+04
 -4.63997E+04  4.58702E+04 -4.71661E+04  1.10194E+04 -4.66613E+04 -1.80389E+04 -3.15675E+04 -3.91898E+04
  9.81664E+03 -4.24783E+04  3.68095E+04 -1.91122E+04  3.58688E+04  1.05707E+04 -8.42917E+02  1.74429E+04
 -1.27786E+04  1.27084E+04 -1.06453E+04 -6.59260E+03  6.77981E+03 -1.04593E+04  2.24886E+04  8.19302E+03
  1.54006E+04  2.44611E+04 -2.37985E+03  2.72589E+04 -2.03973E+04  1.54946E+04 -3.02914E+04 -2.93570E+03
 -2.42255E+04 -2.01651E+04 -1.45710E+04 -2.72507E+04  5.78834E+03 -2.78675E+04  2.69882E+04 -1.61613E+04
  3.07780E+04 -1.36924E+04  3.78704E+04  4.30835E+03  3.15935E+04  3.14179E+04  4.75975E+03  4.27381E+04
 -2.41360E+04  3.14800E+04 -3.14784E+04  8.75938E+03 -2.13194E+04 -9.43680E+03 -3.34725E+03 -1.08521E+04
  5.59589E+03  4.88475E+03 -9.09549E+03  5.22050E+03 -2.24456E+04  3.86933E+03 -2.12511E+04 -1.19514E+04
 -1.16902E+04 -2.11719E+04  4.17541E+03 -3.05442E+04  2.25187E+04 -2.03314E+04  2.49703E+04 -2.97718E+03
  1.61246E+04  1.45171E+04 -4.75284E+03  2.42454E+04 -2.00097E+04  1.24794E+04 -2.69404E+04 -8.16655E+03
 -2.55140E+04 -2.43454E+04 -5.48415E+03 -2.80104E+04  1.74476E+04 -2.31494E+04  2.15803E+04 -1.13250E+04
  2.29042E+04  4.39818E+03  1.83562E+04  6.86070E+03  1.26972E+04  1.36059E+03  1.48976E+04 -2.44392E+03
  1.76459E+04 -2.24581E+02  2.95262E+04  1.89386E+04  2.31379E+04  4.35548E+04 -2.37974E+03  4.20728E+04
 -2.80458E+04  4.45838E+04 -4.80575E+04  1.73634E+04 -5.20716E+04 -8.34877E+03 -3.99692E+04 -3.34884E+04
 -9.52536E+03 -4.27131E+04  1.31006E+04 -3.44467E+04  3.44135E+04 -2.60189E+04  2.29858E+04  1.06103E+04
  8.58823E+03  2.32420E+04 -5.27026E+03  1.38708E+04 -1.70986E+04  3.12517E+03 -1.10156E+04 -1.55309E+04
  7.55948E+03 -1.75839E+04  1.38988E+04 -2.00423E+04  1.39938E+04  1.04329E+02  9.47256E+03  8.39008E+03
 -8.24887E+03  1.36270E+04 -6.54487E+03 -2.88878E+03 -5.26047E+03 -2.07365E+04  1.45706E+04 -2.20354E+04
  2.46301E+04 -9.59229E+03  2.96377E+04  5.73048E+03  2.73500E+04  2.31046E+04  1.54476E+04  2.62063E+04
 -1.10676E+04  3.30145E+04 -1.66737E+04  1.46160E+04 -1.91213E+04  2.68595E+03 -1.46532E+04 -3.87993E+03
 -1.06925E+04 -2.48791E+03 -6.85649E+02  1.12157E+03 -4.71585E+03  7.46946E+03 -6.13308E+03  4.47308E+03
 -1.21588E+04  3.18734E+03 -2.12351E+04 -1.24534E+04 -6.63503E+03 -2.24876E+04  7.31186E+03 -1.78226E+04
  8.26627E+03 -3.53365E+03  8.61431E+03  8.52098E+03  4.69263E+03  8.97139E+03 -9.85564E+03 -1.22854E+03
 -8.25479E+03 -1.25120E+04 -3.91961E+02 -1.48652E+04  1.46292E+04 -1.47451E+04  2.06800E+04 -8.37117E+03
  2.88327E+04  4.41130E+03  2.27959E+04  9.58271E+03  8.06860E+03  1.69410E+04 -5.28241E+03  2.70300E+04
 -1.31533E+04  7.90889E+03 -7.38497E+03  3.99222E+03  7.07019E+03 -6.93938E+03  4.27501E+03  3.66903E+03
  1.00964E+04  7.18678E+03 -4.19033E+03  1.36406E+04 -2.87499E+03  1.83155E+04 -1.87524E+04  4.40229E+03
 -1.25802E+04 -1.39563E+04 -8.45120E+03 -1.36363E+04  8.59339E+03 -5.85160E+03  1.34145E+04  3.70958E+03
  3.27789E+03  1.19197E+04 -5.53042E+03  1.25985E+04 -1.58649E+04  7.28306E+03 -1.75436E+04 -6.72715E+03
 -6.86201E+03 -1.20433E+04  5.64960E+03 -1.82420E+04  1.60627E+04 -1.47868E+04  1.60885E+04  2.08739E+03
  1.15737E+04  1.95817E+04  6.53597E+02  9.97933E+03 -6.87240E+03  8.39161E+03 -9.85096E+03  4.11357E+03
 -1.16194E+04 -9.59798E+03 -2.42854E+03 -1.47272E+04  3.73356E+03 -6.52889E+03  7.17497E+03 -6.82552E+03
  9.84829E+03  1.49782E+03 -6.27633E+03  5.69264E+03  7.50621E+03 -2.99217E+03  6.42887E+03 -6.55771E+03
  1.94195E+04 -5.92890E+03  1.29389E+04  8.10218E+03  1.49962E+04  1.60674E+04  1.09400E+04  2.24341E+04
 -3.68045E+03  2.94261E+04 -2.70742E+04  1.33405E+04 -2.85593E+04  4.11579E+03 -2.01886E+04 -1.10966E+04
 -9.13170E+03 -1.38933E+04 -4.81811E+03 -1.20652E+04  6.31107E+03 -6.94821E+03  5.05126E+03 -5.00945E+03
  1.06556E+04 -1.84754E+03  9.13323E+02 -2.34248E+03  2.35776E+03 -8.21565E+03  1.20398E+04 -6.90594E+03
  1.35214E+04  1.61489E+03  2.79643E+03  8.97883E+03  7.71936E+02  9.62636E+03 -1.63147E+04  9.21319E+03
 -1.79136E+04 -1.52282E+03 -1.14715E+04 -1.14951E+04  8.74934E+02 -2.35655E+04  8.26110E+03 -2.24928E+04
  2.00594E+04 -9.93966E+03  1.57790E+04 -9.98689E+02  1.08251E+04  1.50406E+04  3.52668E+03  2.00366E+04
 -1.64029E+04  1.13665E+04 -1.17207E+04  1.15906E+04 -8.11588E+03 -3.25067E+03  5.23109E+03 -6.95729E+03
  6.07878E+02 -2.25159E+02 -4.47509E+03 -6.59697E+02 -7.64456E+03  8.58709E+03 -1.17775E+04 -4.09144E+03
 -7.72087E+03 -3.29819E+03 -6.27324E+03 -9.04750E+03  7.17706E+03 -2.05443E+04  1.85586E+04 -5.32986E+03
  2.32371E+04  8.25740E+03  1.30968E+04  1.63262E+04 -7.71267E+03  1.62398E+04 -1.55070E+04  1.28498E+04
 -1.19547E+04  2.39262E+03 -1.17262E+04 -9.20015E+03 -2.18032E+01 -1.72379E+04  1.05400E+04 -1.08811E+04
  2.83189E+03 -3.88813E+02  2.60981E+03  6.98356E+03 -3.48193E+03  3.36729E+03 -1.93205E+03  5.77380E+03
  4.65913E+03  6.08506E+03  5.17612E+03 -2.08598E+03  4.28727E+03  1.04049E+04  5.45296E+03  8.31277E+03
 -2.13589E+03  1.00354E+04 -1.28869E+04  1.23638E+04 -1.75834E+04  2.16950E+03 -1.96394E+04  2.83023E+02
 -7.58147E+03 -1.34709E+04  3.76127E+03 -1.05434E+04  1.18367E+04 -8.71810E+03  8.13207E+03 -7.46591E+02
  1.03492E+04  6.22474E+03  5.83197E+03  1.54691E+04 -2.38443E+03  4.07239E+03 -4.80029E+03  3.27443E+02
 -5.16770E+03 -9.72206E+03  3.51962E+03 -7.06415E+03  9.74694E+03 -3.79702E+03  6.06819E+03  2.15561E+02
  1.03061E+04  4.85136E+03 -4.28921E+03 -1.99806E+03  9.64764E+02 -1.57167E+03  2.66575E+02 -2.17784E+03
  8.04983E+03 -3.55685E+03  7.13774E+03  5.59926E+03  3.57916E+02  1.15354E+04  1.94945E+03  1.09049E+04
 -5.50783E+03  8.49208E+03 -1.27415E+04  9.21992E+02 -7.44758E+03 -3.04938E+02 -2.11047E+03 -1.01025E+04
  5.27424E+03 -2.34355E+03  7.90890E+03 -4.29584E+03  2.88473E+03  3.43010E+03  2.67487E+03  9.21513E+02
 -8.13316E+03 -1.15993E+03 -8.47640E+03 -1.56357E+03 -1.40953E+03 -1.24947E+04  1.08912E+04 -1.17456E+04
  6.33414E+03 -2.84622E+03  4.72576E+03  3.09909E+03  1.26258E+03  4.65436E+03  7.02363E+03  6.92092E+03
 -5.96964E+03  4.70358E+03 -7.21642E+03 -3.50924E+03  9.61029E+02 -1.17440E+04  5.92864E+03 -7.96721E+03
  8.39261E+03  2.86284E+03  6.16301E+03  8.51944E+03  3.14111E+03  9.84302E+03  8.86429E+03  1.05353E+04
 -1.09861E+04  1.07190E+03 -6.58933E+03 -9.03257E+03  3.69432E+03 -8.41032E+03  1.25250E+03 -1.04875E+04
  1.52200E+03 -1.80343E+03  6.17095E+03  6.01168E+03  3.97587E+02  9.88361E+03  4.01994E+03  5.97672E+03
 -1.93058E+03  2.74009E+03 -4.60173E+03 -4.53344E+02 -7.05544E+03  1.29290E+03 -6.99801E+03  9.51504E+02
 -4.35348E+02  8.80080E+03 -4.36958E+03  2.21809E+03 -1.32682E+04  3.51229E+03 -1.23544E+04 -1.27556E+03
 -1.13598E+04 -1.40569E+04  2.51765E+03 -1.25026E+04  1.42369E+04 -1.67087E+04  1.47093E+04 -4.00820E+03
  2.18618E+04  4.53662E+03  8.73686E+03  7.08885E+03 -5.21987E+02  1.52186E+04 -4.03385E+03  1.03548E+04
 -7.77306E+03  4.64595E+03 -4.25883E+03 -2.30221E+03  6.61967E+03 -3.19804E+03  1.15651E+03 -7.04841E+03
  1.50973E+03  2.94984E+03 -2.37766E+03  4.91859E+03  1.10140E+03 -6.34473E+03  2.69087E+02 -7.40320E+03
  5.54787E+03 -1.86379E+03  7.36226E+03 -2.46638E+03  1.53663E+04 -7.71433E+02  3.81692E+03  3.33279E+03
 -4.92690E+03  1.07025E+04 -7.79691E+03  1.01252E+04 -7.29097E+03 -4.06872E+03 -1.18502E+04 -1.69881E+04
 -4.49250E+03 -1.68663E+04 -3.35703E+02 -7.82636E+03  1.14087E+04 -4.32248E+03  5.65019E+03  2.43197E+03
  6.77270E+03  1.30672E+04  8.36870E+02 -2.17001E+02 -4.79372E+02 -1.69606E+02 -8.13036E+03  1.74247E+03
  1.10007E+03  9.20810E+02  1.00399E+04  3.88591E+03  2.16659E+03  6.65868E+03  4.36055E+03  1.17453E+04
 -7.61859E+02  3.08513E+03 -7.54434E+03 -1.37612E+02 -7.07347E+03 -9.32181E+02 -5.45845E+03 -1.11127E+04
  8.20214E+03 -1.02705E+04  9.75569E+03  2.60921E+01  4.62102E+03  2.77572E+03  1.07936E+03  1.13785E+04
  1.19157E+03  5.59032E+03 -6.74618E+03  3.39006E+03 -2.50727E+03  7.44348E+02 -4.86740E+03  7.39241E+03
 -4.71052E+03 -3.17514E+03 -3.94170E+03  1.93430E+02 -4.64573E+03  3.13751E+02  8.96473E+02 -1.03915E+03
 -5.83758E+03 -3.38322E+02 -1.61271E+03 -3.38328E+03 -2.40332E+02 -6.93668E+03  9.71465E+03 -3.92450E+03
  5.42332E+03 -1.64293E+03  1.25283E+04  5.80266E+03  2.36751E+03  5.16768E+03 -3.35807E+03  5.19864E+03
