 $NMID ID='MM_0lb_SNR50_11hz_g50_83.RAW', FMTDAT='(8E13.5)'
 TRAMP=1., VOLUME=1. $END
  3.08351E+05 -4.09876E+03  3.40839E+05  2.52533E+05  8.75482E+04  3.35726E+05 -1.32737E+05  2.56575E+05
 -1.96798E+05  8.52900E+04 -1.13255E+05 -3.76180E+04 -3.26093E+02 -4.36592E+04  5.78788E+04  1.38873E+03
  3.63742E+04  5.65177E+04 -1.44951E+04  7.22929E+04 -5.75850E+04  6.74982E+04 -8.62937E+04  3.69088E+04
 -7.79821E+04 -1.50256E+04 -5.84122E+04 -5.38118E+04 -2.06199E+04 -6.95779E+04  2.38307E+04 -4.19124E+04
  4.15436E+04  1.81087E+03  2.28431E+04  4.57725E+04 -3.57326E+04  4.64574E+04 -6.55111E+04 -2.32541E+03
 -5.19111E+04 -5.70733E+04 -7.84534E+03 -7.76139E+04  3.13131E+04 -5.55788E+04  4.48133E+04 -1.78924E+04
  4.32013E+04  1.21357E+04  3.28606E+04  2.52677E+04  1.52884E+04  3.55212E+04 -5.25901E+03  2.47518E+04
 -2.32205E+04  9.51793E+03 -1.93964E+04 -5.39215E+03  1.00106E+04 -1.09348E+04  2.35433E+04  1.70750E+04
  7.67283E+03  3.98219E+04 -3.05092E+04  3.95162E+04 -7.26875E+04  1.18901E+03 -5.15906E+04 -4.68732E+04
 -1.14517E+04 -6.65877E+04  4.29949E+04 -4.33385E+04  5.76982E+04 -5.82598E+03  3.87993E+04  3.13804E+04
 -4.90687E+02  3.99115E+04 -3.36790E+04  1.70695E+04 -3.79553E+04 -2.39603E+03 -1.59928E+04 -1.61884E+04
 -1.14401E+04 -1.67781E+04 -9.47383E+02 -1.66986E+04  5.52325E+03 -2.39132E+04  1.38472E+04 -1.12264E+04
  1.13899E+04  8.09616E+03 -4.08424E+03  1.64188E+04 -2.18907E+04 -1.02555E+04 -1.08437E+04 -3.66856E+04
  2.01816E+04 -4.51032E+04  5.12511E+04 -1.73856E+04  5.01669E+04  1.57643E+04  1.56182E+04  4.22062E+04
 -1.99407E+04  3.32349E+04 -2.26697E+04  4.15593E+02 -1.30528E+04 -2.61291E+04  2.51940E+04 -3.60643E+04
  4.00151E+04 -1.27121E+04  3.63663E+04  3.10016E+04  2.30376E+04  4.42549E+04 -1.16705E+04  6.13206E+04
 -3.03144E+04  3.68851E+04 -4.55114E+04  1.21247E+04 -4.20679E+04 -1.68191E+04 -2.52024E+04 -3.75058E+04
  1.13062E+04 -3.80215E+04  3.11356E+04 -1.94647E+04  2.76476E+04  1.31058E+04  9.67596E+03  2.16351E+04
 -1.23696E+04  9.56767E+03 -1.07864E+04 -8.73624E+03  7.10040E+03 -2.24462E+03  2.17300E+04 -1.63620E+03
  1.34457E+04  1.88249E+04 -7.61001E+03  2.55802E+04 -2.42169E+04  1.19927E+04 -2.77938E+04 -3.06486E+03
 -2.50119E+04 -1.66078E+04 -9.82102E+03 -2.68653E+04  4.13759E+03 -2.88148E+04  1.76778E+04 -2.57321E+04
  2.96706E+04 -1.75872E+04  3.22504E+04  4.26478E+03  2.71396E+04  2.22658E+04  2.14382E+03  3.62453E+04
 -2.27948E+04  3.32587E+04 -3.40386E+04  1.14780E+04 -2.11682E+04 -1.10624E+04 -5.66204E+03 -1.23330E+04
  7.00668E+03 -7.49572E+02 -2.24941E+03  6.39932E+03 -2.13021E+04  7.06495E+03 -1.70074E+04 -9.46115E+03
 -8.21795E+03 -2.10061E+04  9.55966E+03 -2.43715E+04  1.36997E+04 -1.41135E+04  2.17982E+04 -3.83487E+03
  1.39636E+04  1.91474E+04  1.92135E+03  1.95258E+04 -1.38198E+04  1.12458E+04 -2.17684E+04 -6.87479E+03
 -1.88288E+04 -1.72343E+04 -5.84738E+02 -2.44466E+04  1.29060E+04 -2.65498E+04  1.78280E+04 -1.36594E+04
  2.13216E+04 -1.36522E+03  1.02289E+04  7.39257E+03  8.14782E+03  4.40654E+03  9.86453E+03 -1.86413E+03
  2.15185E+04 -1.12091E+03  2.15858E+04  1.52461E+04  1.83849E+04  3.24937E+04 -8.54616E+02  3.86957E+04
 -2.27399E+04  3.65389E+04 -3.83641E+04  1.76047E+04 -4.25953E+04 -2.17107E+03 -3.33910E+04 -2.74322E+04
 -1.66625E+04 -3.12896E+04  5.16142E+03 -2.79091E+04  3.15913E+04 -1.94572E+04  1.90328E+04  1.19622E+04
  6.39051E+03  1.67883E+04 -1.24324E+04  1.62888E+04 -2.14325E+04  4.41223E+03 -1.66384E+04 -1.07906E+04
  2.82062E+03 -2.08599E+04  1.03333E+04 -1.47830E+04  1.37457E+04 -1.03985E+03  1.94850E+03  1.12626E+04
 -5.36838E+03  2.78053E+03 -7.71896E+03 -3.30593E+03 -5.72521E+02 -1.72774E+04  1.19594E+04 -1.98306E+04
  2.26849E+04 -6.22437E+03  1.64969E+04  3.96148E+03  2.41030E+04  1.25493E+04  6.95446E+03  2.16361E+04
 -1.98049E+03  2.36838E+04 -1.82108E+04  2.24729E+04 -2.19985E+04  1.89334E+03 -1.38671E+04 -2.82852E+03
 -3.23464E+03 -5.57966E+03 -6.35649E+03  2.78940E+02 -8.56565E+03  8.09633E+03 -1.11004E+04  4.40316E+03
 -1.27597E+04 -3.17001E+03 -1.19372E+04 -1.16637E+04 -8.26847E+03 -1.32121E+04  1.14440E+04 -1.09634E+04
  1.38837E+04 -6.75227E+03  1.24739E+04 -2.91511E+03  4.28434E+02  1.05843E+04 -1.58156E+03 -1.53414E+03
 -5.40296E+03 -8.46979E+03 -5.79015E+03 -8.16532E+03  1.18542E+04 -1.42234E+04  1.68772E+04 -5.49739E+03
  2.09559E+04  1.27274E+03  1.42927E+04  9.79197E+03  7.13398E+03  1.38982E+04 -9.27771E+03  9.06501E+03
 -1.41515E+04  7.59096E+03 -4.16469E+03 -6.02103E+03  8.09952E+03 -8.58340E+03  8.79271E+03  3.61188E+02
  4.27616E+03  1.12647E+04  7.62288E+03  8.64788E+03 -2.71239E+03  9.00038E+03 -1.21530E+04 -1.30707E+03
 -6.82080E+03 -4.62948E+03  3.75194E+03 -1.13128E+04  6.59001E+03 -7.26637E+03  1.00500E+04 -2.49925E+03
  2.12230E+03  1.01519E+04 -7.74576E+03  1.27211E+04 -1.38255E+04  8.52574E+03 -1.54403E+04 -1.19271E+04
 -1.13667E+04 -1.79542E+04  7.61661E+03 -1.24199E+04  1.33085E+04 -1.23029E+04  1.42140E+04  4.17195E+03
  9.63939E+03  1.05093E+04  8.27422E+03  1.46506E+04 -7.24011E+03  6.91644E+03 -9.79731E+03 -1.72572E+03
 -1.47406E+04 -1.10733E+04 -1.92351E+02 -1.04193E+04  2.02790E+01 -9.40471E+03  7.74139E+03 -1.82531E+03
  1.68439E+03  3.83835E+03 -3.44237E+02  8.58168E+03 -2.19583E+03 -4.65499E+03  2.17373E+03 -8.29225E+03
  5.14892E+03 -1.72997E+02  1.31279E+04 -2.88902E+03  6.75160E+03  1.10785E+04  1.35447E+04  1.65026E+04
 -2.22815E+03  1.76426E+04 -1.68649E+04  1.38401E+04 -1.60103E+04  4.34119E+03 -1.57413E+04 -4.97473E+03
 -4.08918E+03 -1.39655E+04 -1.80461E+03 -1.85586E+04  4.48949E+03 -7.03834E+03  2.23550E+03 -5.17084E+03
  9.94907E+02 -3.88704E+03  1.10977E+03 -4.37886E+03  4.31806E+03 -5.42571E+03  7.80615E+03 -6.50668E+03
  8.38379E+03 -1.22862E+03 -7.06120E+01  8.67943E+03 -2.43271E+03  9.63005E+03 -1.06101E+04  7.97956E+03
 -1.34786E+04  3.56349E+03 -1.18602E+04 -5.66568E+03  8.51752E+02 -1.64748E+04  1.09300E+04 -1.74164E+04
  1.38008E+04 -4.33874E+03  2.23973E+04  3.24903E+03  1.10690E+04  8.43666E+03  4.78668E+03  1.26560E+04
 -3.81004E+03  1.02729E+04 -1.00530E+04  2.58580E+03 -9.61097E+03 -4.95826E+03 -2.80825E+03 -2.27967E+03
  1.72320E+03 -4.30331E+03 -3.62705E+03  4.63183E+03 -8.01656E+00 -1.49261E+03 -1.41864E+04 -7.25839E+03
 -8.18837E+03 -3.78137E+03  2.83935E+03 -1.03101E+04  9.86155E+03 -1.16011E+04  1.15943E+04  2.30605E+03
  1.05339E+04  8.03211E+03  3.55647E+03  1.42633E+04 -4.45951E+03  1.20658E+04 -1.01299E+04  8.91660E+03
 -1.36424E+04  2.47044E+03 -1.17845E+04 -2.76964E+03  5.23195E+03 -1.00510E+04  3.08699E+03 -5.98544E+03
  8.32358E+03 -5.02872E+02  7.25238E+03  1.42222E+03  2.05174E+03 -1.13768E+03  5.16835E+03  7.55292E+03
  2.61017E+03 -2.52736E+03  3.45851E+03 -5.75078E+02  4.96357E+03  5.91603E+03  2.30135E+03  1.90981E+03
 -9.04868E+03  9.97061E+03 -9.16897E+03  6.31653E+03 -1.60622E+04  1.13447E+03 -1.05690E+04 -1.19043E+03
 -4.02547E+03 -7.67656E+03  4.37778E+03 -1.22514E+04  2.72116E+03 -7.37335E+03  7.30108E+03 -2.83407E+03
  5.32629E+03 -2.44994E+02  1.35402E+03  3.80858E+03 -1.15601E+03  3.62273E+03 -4.81273E+03 -1.73306E+03
 -2.75175E+03 -4.88400E+03  1.18681E+03 -6.24872E+03  6.91827E+03 -7.58780E+03  3.22762E+02 -6.10427E+02
  4.02140E+03  8.53677E+02 -7.82299E+02  1.06102E+03  2.64284E+03 -1.92669E+02  2.07407E+03  2.25596E+03
  4.66502E+03  2.20000E+03  9.75810E+02  1.88984E+03 -4.09506E+03  8.34581E+03  4.39628E+03  5.78556E+03
  6.84004E+02  7.87904E+03 -8.52181E+03  7.11193E+03 -1.07091E+04 -2.97204E+03 -3.21383E+03 -6.08164E+03
  1.56320E+03 -5.85233E+03 -4.40983E+02 -1.90263E+03  2.49932E+03  7.39195E+02  2.39884E+02  5.98927E+03
 -6.35976E+03  1.05766E+02 -9.35939E+03 -2.83483E+03  1.48677E+03 -3.42920E+03  2.92386E+03 -9.44632E+03
  4.97912E+03  8.31880E+02  4.07413E+03 -4.23326E+03 -1.99051E+03  8.41482E+03 -6.77927E+03  5.74270E+03
  1.41804E+03  2.97265E+03 -4.43445E+03 -2.63544E+03 -1.84352E+03 -2.21647E+03  6.58174E+02 -4.20320E+03
  4.40916E+03  1.01896E+03  4.91710E+03  3.51797E+03  7.74239E+03  5.76099E+03 -5.05796E+03  7.58510E+03
 -2.78955E+03  3.48100E+02 -6.82655E+03 -6.36448E+02 -6.04476E+03 -7.93826E+03  1.98200E+03 -6.41035E+03
  3.68113E+03 -3.60970E+03 -1.62493E+03  6.95917E+03  2.95021E+03 -4.69239E+02 -3.05201E+03  4.62216E+03
 -1.87129E+02  6.44450E+03 -2.44440E+03  2.03670E+03  3.72594E+03  9.28666E+02 -6.07034E+03  4.53506E+03
 -1.59807E+03  1.36324E+03 -4.24474E+03  3.31111E+03 -1.08704E+04  1.85230E+03 -9.56377E+01 -6.63606E+03
 -1.92801E+03 -4.91350E+03  1.95084E+03 -1.21886E+04  1.01117E+04 -1.51764E+04  1.03398E+04  1.20525E+03
  1.56159E+04  5.46969E+02  4.17530E+03  4.16276E+03  4.55788E+02  8.23789E+03 -3.41375E+03  3.85297E+03
 -4.04081E+02  9.09696E+03 -2.47562E+03  5.43574E+01 -2.92504E+03 -3.43298E+02 -2.38666E+03  5.80093E+03
 -2.06242E+02 -3.30963E+03 -2.08722E+03  1.01030E+03 -2.57463E+03 -6.73321E+02 -1.03088E+03 -5.52766E+03
  5.35117E+02 -1.57367E+03  3.01817E+02  2.77138E+02  7.61524E+03  5.48494E+03  2.92460E+03  6.85040E+03
  1.85308E+03  1.37013E+04 -7.63101E+03  2.73558E+03 -9.22862E+03  1.75849E+03 -2.69153E+03 -1.07082E+04
 -6.92738E+03 -1.47517E+04  2.57626E+03  1.84683E+03  1.20641E+04 -2.95502E+03  1.16151E+04  4.60080E+01
  3.67551E+03  2.69904E+03  3.07457E+03  1.13244E+03 -1.06233E+03  6.76426E+02  1.43456E+03  4.07072E+03
  3.09574E+03  3.27110E+03  2.50677E+03  2.32125E+03  1.74802E+03 -2.30014E+03 -1.40384E+02  4.25584E+03
 -5.33278E+03 -2.78920E+02 -7.63381E+03  3.15297E+03 -4.66655E+03 -6.17020E+02 -1.66515E+03 -4.45590E+03
  8.43562E+03 -7.81038E+03  6.09481E+03 -2.64934E+03  7.50023E+03  6.20276E+03  2.14275E+02  3.32751E+03
  4.82349E+03  8.75512E+03 -3.32267E+03  4.72387E+03 -3.27094E+02  4.19613E+03 -8.07459E+03  3.63015E+03
 -2.49959E+03 -6.67916E+02 -4.43662E+03 -2.44830E+03  5.05041E+02 -4.67568E+02 -5.90883E+03 -1.09819E+03
 -4.54704E+03 -6.55735E+03 -1.52039E+03 -2.47226E+03  9.16482E+02 -1.80295E+03 -6.14456E+02 -6.74398E+01
  6.33830E+03  4.90151E+02  5.13428E+02  3.09309E+03 -1.47835E+03  4.48350E+03 -5.43481E+03  5.47940E+03
