 $NMID ID='MM_0lb_SNR50_20hz_g55_4.RAW', FMTDAT='(8E13.5)'
 TRAMP=1., VOLUME=1. $END
  3.07639E+05  2.54686E+03  3.39622E+05  2.52759E+05  8.18598E+04  3.36486E+05 -1.31343E+05  2.51579E+05
 -1.91377E+05  8.25828E+04 -1.09039E+05 -3.31797E+04  4.32062E+03 -4.94042E+04  5.62742E+04 -4.13830E+03
  3.36041E+04  5.21268E+04 -1.34238E+04  7.35116E+04 -6.08994E+04  6.11347E+04 -8.65474E+04  2.85701E+04
 -8.04933E+04 -1.01078E+04 -6.21063E+04 -4.85783E+04 -1.33632E+04 -6.85133E+04  2.23522E+04 -4.61317E+04
  4.03855E+04  3.03028E+03  1.24394E+04  4.24179E+04 -3.34331E+04  4.63420E+04 -6.95450E+04 -5.24724E+03
 -5.09962E+04 -5.63810E+04 -7.56837E+03 -7.32889E+04  3.13823E+04 -5.23183E+04  4.93157E+04 -1.33711E+04
  3.95845E+04  1.15938E+04  3.13466E+04  2.59831E+04  1.53286E+04  2.95212E+04 -1.77988E+02  2.70348E+04
 -2.46553E+04  1.46305E+04 -1.42738E+04 -3.49059E+03  4.28142E+03 -9.64050E+03  1.88509E+04  1.24410E+04
  9.10568E+03  3.42888E+04 -2.66153E+04  3.37594E+04 -6.36706E+04  4.14290E+03 -5.66270E+04 -4.00622E+04
 -1.13763E+04 -6.05148E+04  4.02842E+04 -4.34483E+04  6.00029E+04 -1.32568E+03  3.46136E+04  2.96525E+04
 -2.10825E+03  3.82392E+04 -2.99452E+04  1.47119E+04 -2.65250E+04 -6.98977E+03 -1.36506E+04 -8.67217E+03
 -6.97252E+03 -1.19781E+04 -2.39730E+03 -1.81797E+04  5.38829E+03 -2.49378E+04  1.70337E+04 -1.59588E+04
  1.42699E+04  2.04219E+03 -7.20418E+03  1.31230E+04 -2.07470E+04 -4.68838E+03 -2.52637E+03 -3.19661E+04
  2.10439E+04 -3.85153E+04  4.31244E+04 -1.88889E+04  4.28249E+04  1.56225E+04  1.49067E+04  3.72884E+04
 -1.31829E+04  3.23961E+04 -2.34832E+04  9.43981E+02 -9.13601E+03 -2.53477E+04  1.81605E+04 -3.59620E+04
  3.60662E+04 -6.81817E+03  3.03244E+04  2.48827E+04  1.82426E+04  4.13837E+04 -1.23501E+04  4.93436E+04
 -2.87418E+04  2.95230E+04 -3.68828E+04  9.50755E+03 -3.68636E+04 -1.78478E+04 -2.04790E+04 -3.52987E+04
  6.33355E+03 -3.02889E+04  3.68636E+04 -1.02658E+04  2.94642E+04  9.99420E+03  1.81938E+03  1.64800E+04
 -1.43284E+04  6.40187E+03 -9.45865E+03 -8.77813E+03  5.93349E+03 -1.21368E+04  2.16362E+04  6.37896E+03
  9.30440E+03  2.55602E+04 -3.40124E+03  2.41380E+04 -2.44954E+04  9.22618E+03 -2.93613E+04 -5.98988E+03
 -2.04939E+04 -1.79359E+04 -7.55626E+03 -1.59867E+04  5.72640E+03 -1.11824E+04  1.66655E+04 -1.69205E+04
  2.41314E+04 -1.42671E+04  3.23452E+04  3.36464E+02  2.49039E+04  1.56709E+04  1.89109E+03  3.09251E+04
 -1.63801E+04  2.66357E+04 -2.53556E+04  1.03093E+04 -1.55934E+04 -9.74585E+03 -1.12986E+03 -1.22497E+04
  3.76390E+02 -2.77085E+03 -2.90306E+03  6.07536E+03 -8.72306E+03  3.23715E+03 -1.65084E+04 -5.89721E+03
 -7.32385E+03 -1.88478E+04  8.43565E+03 -1.85971E+04  1.51335E+04 -1.24576E+04  8.13385E+03 -9.43751E+02
  5.46016E+03  5.86424E+03  2.57827E+02  1.27819E+04 -1.03654E+04  1.06927E+04 -1.04982E+04 -2.51247E+03
 -1.24892E+04 -1.30755E+04 -2.53774E+03 -2.09397E+04  1.17449E+04 -1.52056E+04  1.16424E+04 -5.35081E+03
  1.58703E+04  4.05206E+03  1.08309E+04  2.51533E+03  4.42195E+03 -1.98194E+03  1.08590E+04 -6.47025E+03
  1.63161E+04  6.60318E+03  1.07597E+04  1.35731E+04  7.52706E+03  2.43663E+04 -2.29215E+03  2.87175E+04
 -1.60527E+04  1.99146E+04 -2.21327E+04  1.30640E+04 -2.28173E+04 -8.94894E+02 -1.75663E+04 -1.16417E+04
 -1.41925E+04 -2.08569E+04  4.79260E+03 -1.74877E+04  1.51304E+04 -1.24258E+04  1.09167E+04  4.12451E+03
  4.55039E+03  1.25074E+04 -6.89460E+03  9.53162E+03 -1.30333E+04  4.78132E+03 -1.00532E+04 -9.23000E+03
  2.28555E+03 -1.20328E+04  3.07031E+03 -9.49031E+03  3.62262E+03 -4.94956E+03  2.11034E+03  3.46063E+03
 -6.01620E+03 -4.33943E+03 -3.35971E+03 -6.91823E+03 -7.42252E+02 -8.96007E+03  9.07769E+03 -7.17460E+03
  1.11814E+04 -5.56356E+03  1.11100E+04 -1.60567E+02  1.37251E+04  1.17869E+04  9.46822E+03  1.19763E+04
 -3.00760E+03  1.37861E+04 -1.20928E+04  4.78742E+03 -1.18748E+04  1.15022E+03 -7.30774E+03 -4.81625E+03
 -1.41832E+03  2.20890E+03 -6.52555E+02  2.45346E+03  2.95872E+03 -1.32654E+03 -2.78194E+03  3.27184E+03
 -7.92247E+03  6.93263E+02 -1.00128E+04 -5.41537E+03 -5.37086E+03 -1.03260E+04  6.50604E+03 -5.95399E+03
  6.47495E+03 -3.62463E+03  2.17809E+03  4.35153E+03  1.06348E+02  3.88795E+03 -9.33345E+02 -1.67772E+03
 -3.16871E+03 -4.39701E+03 -6.19569E+03 -9.09440E+03  4.25372E+03 -7.24838E+03  5.06179E+03  3.01974E+02
  1.15224E+04 -1.57059E+03  1.13859E+04  2.75278E+03  2.98413E+03  1.18417E+04 -2.39374E+03  3.08633E+03
 -1.13687E+04  6.58703E+03 -4.51154E+03 -4.65396E+03 -5.60505E+03 -1.71790E+03  4.06264E+03 -2.78400E+03
  5.05751E+03  3.16076E+02 -6.01575E+02  8.92156E+03 -2.14157E+03  1.01649E+04 -8.61583E+03 -1.21277E+02
 -3.66074E+03 -2.42155E+03  8.23710E+02 -1.01713E+03  4.75518E+03 -8.45586E+02  4.45612E+03  9.67774E+02
  1.42659E+03  1.10590E+03 -2.28371E+03  2.78136E+03 -8.85827E+03  6.70517E+03 -5.26779E+03  2.40303E+01
 -6.22099E+03 -4.07509E+03  6.55447E+02 -3.03358E+03  3.31041E+03 -3.16827E+03  9.07414E+03 -2.98722E+03
  6.51166E+03  2.95204E+03 -2.69618E+03  2.33644E+03 -5.36728E+03  2.63672E+03 -4.51212E+03  4.95281E+03
 -5.18669E+03 -5.82857E+03 -5.26107E+03 -4.17935E+03 -2.55040E+03 -2.31566E+03  3.54790E+03 -9.87118E+02
  3.53065E+03  2.48455E+03  1.67639E+03  3.50279E+02 -3.90804E+03 -1.96498E+03 -4.14029E+03 -1.27535E+02
  1.26750E+02  9.69212E+02  1.19690E+03 -5.17349E+02  2.89701E+03  5.30217E+03  3.32704E+03  5.81991E+03
  2.79691E+03  9.25989E+03 -6.67917E+03  7.49220E+03 -1.28566E+04 -2.26216E+03 -5.89638E+03 -4.52877E+03
 -4.46457E+03 -5.40235E+03 -5.35528E+03 -2.04530E+03  3.97811E+03  3.01140E+02  1.60808E+03 -6.05449E+03
  4.41752E+03 -1.02719E+03  5.38805E+02 -2.46093E+03  5.55318E+03 -9.34191E+02  4.55275E+03  1.38212E+03
  5.18002E+03  3.18425E+03  6.07659E+02  1.05770E+03 -9.92552E+02  7.20171E+03 -4.62857E+03  4.96384E+03
  8.40967E+02 -1.74025E+03 -1.41556E+03  1.36430E+02 -4.07538E+03 -2.28841E+03  3.26773E+03 -6.92060E+03
  4.60662E+03 -2.89878E+03  1.74254E+03 -7.70542E+02  4.46467E+03  7.82946E+02  3.60168E+03  2.35813E+03
 -9.54329E+02  6.35150E+03 -6.71168E+03 -7.00216E+02 -1.95280E+03  2.08344E+03 -1.11878E+02 -6.43772E+02
  5.97395E+02  4.21005E+03 -1.61819E+03  2.76635E+03 -3.10809E+03 -1.19460E+03 -4.11413E+03 -3.06891E+03
  7.89512E+01 -3.25934E+03 -1.40780E+03 -5.12424E+03  3.93826E+02 -4.36780E+03  3.64013E+01 -6.26591E+03
  9.36517E+03  1.33438E+03  5.68673E+02  2.76496E+03 -2.98921E+01  9.22417E+03 -3.57645E+03  3.70932E+03
 -4.20116E+03  1.43227E+03 -2.94656E+03  6.54290E+02 -1.20256E+03 -5.13645E+03  5.81625E+02 -4.19157E+03
  5.13522E+02 -2.40033E+03  5.43745E+02  1.54619E+02  3.40477E+03  1.20790E+03  8.24849E+02 -2.08311E+03
  3.93018E+03  2.05214E+03  3.06674E+03  2.96625E+03  2.17190E+03  6.53020E+03  3.20257E+03  1.80106E+03
  1.49784E+02  2.33272E+03 -1.24437E+03  5.86091E+03  7.49495E+02  4.03072E+03 -1.55020E+03 -2.38379E+03
 -1.77029E+03 -8.42689E+03 -1.01097E+03 -2.57512E+03  5.55586E+03  8.81784E+01 -9.33515E+02  2.00082E+03
  1.59541E+03  2.84379E+03  3.66137E+03 -3.79828E+02 -3.35170E+03  2.47835E+03  3.91582E+03  1.36801E+02
 -1.81566E+03 -5.18781E+02 -1.94056E+03 -4.07891E+03  7.83211E+02 -3.52396E+03  1.30946E+03  4.40911E+03
  1.76067E+03 -5.31822E+02  1.48849E+03 -8.74792E+02 -9.68699E+02  3.82862E+03 -6.65649E+02 -3.10404E+03
 -1.02937E+03  3.05410E+02  2.06274E+02  3.73781E+03 -4.41083E+03  2.98960E+03  5.18940E+03  4.25662E+03
 -2.84786E+03 -1.36846E+03  1.31650E+03 -1.84767E+03 -8.11842E+03  4.67774E+03 -3.72317E+03 -3.85169E+03
  1.12376E+03 -7.35996E+02 -4.11412E+03 -3.75756E+02  1.90742E+03 -8.87461E+02  2.21645E+02  3.83030E+02
 -3.54147E+03  9.76094E+02  1.70414E+03 -2.45968E+03 -1.89210E+03 -3.05056E+02  3.61620E+03  1.07557E+03
 -1.14621E+03  1.99687E+03  3.74317E+03  3.23163E+03  4.82389E+02  1.68231E+03 -8.74261E+02  7.75584E+02
 -5.44251E+03 -3.00887E+03 -2.37120E+03 -1.94630E+03  6.75710E+02 -2.51268E+02 -1.72317E+03 -1.18786E+03
  3.56877E+03  1.34562E+03  1.75426E+03  5.83876E+02  1.37732E+03  1.78969E+03 -9.25528E+02 -1.17658E+03
  5.97520E+01  5.36575E+03 -1.19687E+03  7.15921E+02 -9.26503E+02 -1.92092E+03 -2.31979E+02  6.52332E+02
  7.79342E+02  8.15165E+01 -8.51102E+02  1.87271E+03 -1.79293E+02 -8.24052E+02  1.80935E+03 -2.93355E+03
 -1.18759E+03  2.53025E+03 -3.39530E+02  2.06834E+02  1.82480E+03  3.59670E+03 -5.24431E+03  5.60587E+02
 -1.52755E+03 -3.37347E+03 -1.82913E+03  4.52209E+02  1.30542E+03 -3.24738E+03 -6.45620E+03 -1.08989E+03
 -4.82868E+02 -1.18417E+03  2.62132E+02 -3.57160E+03  1.36294E+03  1.19869E+02  1.14048E+03  3.36480E+03
  5.50911E+03  1.00076E+03  2.44949E+03  4.02051E+03  1.30977E+03  6.88692E+03  2.82447E+03  1.96614E+02
  1.17184E+03 -3.04816E+03  2.05949E+03 -3.62021E+03 -1.34559E+03  3.32605E+03 -5.90083E+03  4.70719E+02
  2.92235E+03 -3.33751E+03  1.08677E+03  1.76869E+03  3.38174E+03  2.02170E+03 -1.37162E+03  2.51872E+03
  4.76480E+02  3.44805E+03  1.36167E+02  5.60438E+02  2.80556E+02  2.00512E+03  2.26678E+03 -2.23094E+01
  2.55440E+03  3.76414E+03  4.02528E+02 -1.34448E+03 -8.34368E+02  2.46546E+03  7.30199E+02 -1.71733E+03
 -9.68645E+02 -4.43090E+03  5.48581E+02  2.44688E+03 -9.47760E+02 -1.37538E+03  4.07227E+03 -2.19809E+03
 -2.30402E+03 -3.56608E+03 -8.93615E+02  3.19524E+03 -4.21564E+03  4.16761E+03  2.05745E+03 -1.11833E+03
 -1.26070E+03  3.86038E+03 -3.58660E+03 -1.29259E+03  9.16226E+01  1.81191E+00  3.91638E+03  5.43682E+03
  2.00227E+03  2.03440E+03  1.58479E+03 -1.82015E+03 -1.15443E+03  3.78964E+02 -6.61019E+02 -1.50022E+03
  1.55084E+02  7.17875E+02 -3.58515E+03 -4.47831E+01  2.44967E+02  1.36105E+03  2.24520E+03 -1.45947E+02
  1.16746E+03  4.36474E+03 -1.86234E+03  2.05661E+03  1.42029E+03 -1.05631E+03 -1.65646E+03 -1.58137E+03
  4.65105E+03  1.33850E+03 -4.87943E+03  8.76890E+02  3.58608E+02  9.59358E+02  8.96127E+01 -2.79644E+03
  1.41043E+03 -8.80123E+02 -1.55696E+03 -9.68145E+02 -2.02654E+03 -2.04701E+03 -2.28868E+02 -3.11934E+03
 -2.56235E+03  1.64958E+02 -1.39094E+03  8.16114E+03 -4.01482E+02 -4.54286E+03 -1.22225E+03 -1.36977E+03
