 $NMID ID='MM_0lb_SNR50_7hz_g45_82.RAW', FMTDAT='(8E13.5)'
 TRAMP=1., VOLUME=1. $END
  3.12441E+05  4.56848E+03  3.42331E+05  2.52712E+05  8.17013E+04  3.41891E+05 -1.31912E+05  2.54355E+05
 -1.84961E+05  8.87919E+04 -1.12171E+05 -3.00880E+04  3.06197E+03 -5.31594E+04  5.30482E+04  7.51483E+03
  3.10780E+04  5.53331E+04 -1.92276E+04  7.85451E+04 -6.54792E+04  6.05849E+04 -9.14490E+04  4.11005E+04
 -8.56937E+04 -1.16864E+04 -6.26080E+04 -5.80316E+04 -2.11095E+04 -7.48157E+04  3.15095E+04 -5.58101E+04
  3.95232E+04  5.32907E+03  2.18699E+04  5.32549E+04 -3.22747E+04  4.51283E+04 -6.81196E+04  3.34106E+03
 -5.70366E+04 -6.11615E+04 -1.78473E+03 -8.95257E+04  3.37487E+04 -5.49711E+04  5.27435E+04 -1.55502E+04
  4.38515E+04  8.76067E+03  3.96290E+04  2.63194E+04  1.94074E+04  3.21706E+04 -5.56102E+03  2.29278E+04
 -2.22041E+04  1.47246E+04 -1.49157E+04 -7.29907E+03  2.19620E+03 -5.94164E+03  1.94016E+04  9.34219E+03
  2.76410E+03  3.97855E+04 -3.24125E+04  3.49819E+04 -5.91862E+04  2.44859E+03 -6.05168E+04 -5.14844E+04
 -1.81042E+04 -6.54584E+04  4.41062E+04 -4.67634E+04  6.47054E+04  1.06598E+04  3.75745E+04  3.75368E+04
 -7.36235E+03  4.11083E+04 -2.80962E+04  2.05271E+04 -3.86306E+04  4.74392E+02 -1.98006E+04 -1.63286E+04
 -1.13874E+04 -2.28387E+04  4.33574E+03 -1.90962E+04  6.31379E+03 -2.26842E+04  1.10858E+04 -9.60146E+03
  1.56596E+04 -1.31842E+03 -8.36187E+03  1.31838E+04 -2.03584E+04 -1.41020E+04 -1.22178E+04 -3.38761E+04
  2.47403E+04 -4.62302E+04  5.09837E+04 -1.96957E+04  5.54550E+04  2.23845E+04  1.71516E+04  5.04103E+04
 -1.61488E+04  4.49948E+04 -2.63114E+04  9.42711E+03 -1.23296E+04 -2.42268E+04  2.00539E+04 -3.66403E+04
  4.69974E+04 -1.22125E+04  4.17169E+04  2.19689E+04  2.63052E+04  5.27812E+04 -7.38388E+03  5.23288E+04
 -3.71739E+04  4.46098E+04 -4.44731E+04  1.24583E+04 -5.99018E+04 -2.27540E+04 -2.93159E+04 -3.88407E+04
  1.21127E+04 -4.31948E+04  3.88913E+04 -1.96137E+04  2.49236E+04  1.20444E+04  8.58788E+03  1.88064E+04
 -1.40783E+04  1.27121E+04 -8.44681E+03 -4.50852E+03  1.44181E+03 -1.26299E+04  2.26031E+04  3.52386E+03
  1.25938E+04  2.20520E+04 -7.35592E+03  2.68218E+04 -2.30501E+04  1.30401E+04 -3.78259E+04 -6.40733E+03
 -3.02927E+04 -2.05175E+04 -8.30437E+03 -2.39835E+04  5.64885E+03 -2.73091E+04  2.90315E+04 -2.66291E+04
  3.32881E+04 -1.71976E+04  4.80341E+04  9.64881E+03  2.40027E+04  3.10388E+04  6.71126E+03  4.06086E+04
 -2.09006E+04  4.29493E+04 -3.47763E+04  1.76854E+04 -2.86505E+04 -1.13401E+04 -7.37326E+03 -1.01514E+04
  2.85181E+03 -5.63008E+03 -5.86371E+03  7.71658E+03 -2.77146E+04  4.44424E+03 -2.20433E+04 -9.64402E+03
 -2.00740E+04 -2.49301E+04  6.68485E+03 -2.52906E+04  1.61686E+04 -2.83517E+04  3.01706E+04  1.13686E+03
  2.15506E+04  2.33886E+04  4.94051E+03  2.68007E+04 -9.27883E+03  1.36844E+04 -2.61721E+04 -4.96473E+03
 -2.11409E+04 -1.89819E+04 -9.12007E+03 -2.98455E+04  1.48954E+04 -2.34536E+04  2.70081E+04 -1.09467E+04
  2.78684E+04  4.23199E+03  6.35945E+03  5.52700E+03  8.78064E+03  6.39411E+03  1.77652E+04  8.51266E+03
  2.56951E+04  5.02064E+03  1.78125E+04  1.78384E+04  2.44939E+04  3.76416E+04 -4.50709E+03  4.94057E+04
 -2.92172E+04  3.67793E+04 -5.78551E+04  1.85105E+04 -4.48106E+04 -4.34105E+03 -4.43439E+04 -3.06890E+04
 -1.61929E+04 -4.02251E+04  1.16326E+04 -4.02992E+04  3.80094E+04 -1.24815E+04  3.27097E+04  1.11491E+04
  1.11295E+04  2.37209E+04 -4.42993E+03  2.04429E+04 -1.95670E+04  8.46424E+03 -1.11373E+04 -1.21783E+04
 -4.26739E+03 -2.37596E+04  9.35886E+03 -1.63699E+04  1.84892E+04 -1.17131E+03 -2.21259E+03  9.74505E+03
 -4.91191E+03  7.81206E+03 -8.29463E+03 -4.01328E+03 -6.24929E+03 -2.39787E+04  1.25385E+04 -2.98030E+04
  2.89400E+04 -1.67710E+04  3.15332E+04  4.82065E+03  2.17141E+04  1.86902E+04  1.02471E+04  3.40921E+04
 -9.01616E+03  3.11806E+04 -2.54789E+04  2.12389E+04 -2.95444E+04 -1.72270E+03 -1.43601E+04 -3.74941E+03
 -1.05062E+04 -8.56011E+03  3.13831E+03 -3.08362E+03 -3.86717E+03 -2.73028E+03 -1.09478E+04  1.06705E+04
 -1.82940E+04  3.92804E+03 -1.45203E+04 -8.25638E+03 -6.76426E+03 -1.84888E+04  7.86195E+03 -1.80142E+04
  1.76545E+04 -5.25325E+03  1.33815E+04  1.82661E+03 -4.42490E+03  9.98888E+03 -1.69195E+03 -1.82505E+03
 -7.08052E+03 -1.51835E+04  1.22434E+03 -1.52643E+04  1.14563E+04 -1.64702E+04  2.70541E+04 -5.48959E+03
  2.00590E+04 -1.40930E+03  1.52578E+04  1.32318E+04  1.35425E+04  2.14457E+04 -1.95454E+04  2.22577E+04
 -1.00572E+04  2.55690E+02 -2.81971E+03 -1.55410E+03  1.87363E+03 -8.27065E+03  5.94005E+03 -8.05428E+03
  7.54164E+03  7.43923E+03  4.94317E+03  8.34075E+03 -7.35850E+03  9.56989E+03 -2.20409E+04  1.74608E+03
 -1.19141E+04 -7.68688E+03  1.87353E+03 -1.41946E+04  2.03303E+04 -1.19305E+04  7.55726E+03 -2.94264E+02
  3.88883E+03  1.12791E+04 -1.58633E+04  1.26940E+04 -1.12778E+04 -3.46146E+03 -1.28629E+04 -8.62821E+03
 -6.74432E+03 -1.23293E+04  2.38628E+03 -2.59878E+04  1.45463E+04 -1.48679E+04  1.73126E+04  9.49160E+03
  1.73844E+04  1.60705E+04 -1.29176E+03  1.20558E+04 -1.89053E+04  1.35647E+04 -1.58369E+04 -7.52459E+03
 -1.25628E+04 -8.49067E+03 -1.64441E+03 -1.70756E+04  2.25238E+03 -8.95067E+03  1.09109E+04 -5.61806E+03
  5.19249E+03  3.35146E+03 -3.00353E+03 -2.60426E+03  3.59462E+03 -4.09567E+03 -5.82937E+03 -1.08709E+04
  1.36720E+04 -4.79893E+03  2.38969E+04  5.46965E+03  1.58457E+04  8.06544E+03  1.85788E+04  1.96782E+04
 -8.44090E+03  2.69417E+04 -3.21987E+04  2.29006E+04 -3.02156E+04  2.69621E+03 -2.30346E+04 -1.59123E+04
 -1.57035E+04 -2.48146E+04  4.41024E+03 -1.78275E+04  5.81251E+03 -1.69965E+04  3.60785E+03 -1.57670E+04
  3.64768E+03 -2.84005E+03  1.80269E+03 -7.35745E+03  6.63023E+03  8.07663E+02  1.17142E+04 -7.46780E+03
  1.69642E+04 -5.13617E+02  1.25311E+03  4.88019E+03  1.80294E+03  1.32320E+04 -1.42032E+04  1.23238E+04
 -2.03708E+04 -3.16431E+03 -1.16329E+04 -1.09127E+04  2.72340E+03 -1.51641E+04  4.50861E+03 -1.10958E+04
  2.36105E+04 -1.16603E+04  3.26097E+04  5.97448E+03  1.74427E+04  1.05920E+04 -9.74158E+02  3.00729E+04
 -1.18441E+04  1.03494E+04 -1.25761E+04  8.69159E+03 -8.86376E+03  6.96168E+02 -6.96057E+02 -1.01910E+03
 -1.84871E+03  2.70259E+03 -4.39825E+03  2.18948E+03 -9.63562E+03  3.02008E+02 -1.57038E+04 -6.67397E+03
 -1.71033E+04 -2.03324E+04 -4.10227E+01 -4.37879E+03  5.74326E+03 -1.58641E+04  2.49448E+04 -8.94043E+03
  2.32488E+04  1.09531E+04  7.90826E+03  2.13380E+04 -9.27501E+03  2.34596E+04 -1.26015E+04  1.70725E+04
 -2.19422E+04 -2.09145E+03 -1.60968E+04 -1.56858E+04 -5.81801E+03 -1.95620E+04  5.18024E+03 -1.64084E+04
  1.27379E+04 -2.69041E+03  1.00870E+04  1.43415E+04  8.08849E+03  3.50181E+03  6.83049E+02  3.20625E+03
  6.72263E+03 -7.19411E+01  2.87293E+03  1.20994E+03  2.32008E+03  5.82117E+03  5.34029E+03  5.15796E+03
  6.35229E+03  1.41541E+04 -9.10795E+03  2.05965E+04 -1.62724E+04  5.34094E+03 -1.67786E+04 -5.60147E+03
 -4.01752E+03 -2.12813E+04  4.62188E+03 -2.32374E+04  1.39134E+04 -1.10825E+04  1.09783E+04 -1.48085E+04
  6.08087E+03  1.31004E+04  7.38004E+03  1.45988E+04 -5.45573E+03  8.19487E+03 -6.94347E+03 -8.49608E+03
 -1.02759E+03 -1.21849E+04 -1.19819E+03 -7.16756E+03  9.26669E+03 -6.80085E+03  7.72918E+03  3.34669E+03
  4.28065E+03  4.41066E+03  4.47440E+03  1.23799E+03  5.10812E+02 -2.61574E+02  7.35292E+03  2.92661E+03
  5.49915E+03  3.99298E+03  3.10610E+03  9.52272E+03  3.92921E+03  9.85075E+03 -2.99699E+02  1.93498E+04
 -1.18514E+04  7.05339E+02 -6.70695E+03  7.94287E+03 -1.78494E+04  6.73079E+02 -5.42474E+03 -5.51740E+03
 -8.14740E+02 -1.11172E+04  7.58237E+03 -4.29382E+03  5.91755E+03  5.04290E+03  4.34927E+03  9.36004E+03
 -1.85903E+04  3.97011E+02 -1.30909E+04 -2.09275E+03 -6.43898E+03 -1.12702E+04  5.41999E+03 -8.54471E+03
  1.37621E+04 -4.15785E+03  9.84379E+03 -1.29245E+03  7.43196E+03  7.11570E+03  1.63421E+03  9.37691E+03
 -8.34976E+03  4.18984E+03 -4.20104E+03 -6.01673E+03 -4.13153E+03 -6.31933E+03  1.28441E+04 -8.48582E+03
  1.98672E+04 -2.44089E+03  8.93382E+03  1.11338E+04  9.85144E+03  1.82080E+04 -1.11923E+04  1.55835E+04
 -1.25761E+04 -2.43509E+03 -1.11068E+04 -5.83777E+03 -5.52626E+03 -1.12133E+04  5.77280E+01 -4.96519E+03
  2.70510E+03  7.96761E+02  1.04740E+04  5.92669E+03  2.08354E+03  7.68172E+03 -1.72398E+03  1.27129E+04
 -5.87988E+03 -3.79799E+03 -2.25632E+03 -2.92851E+03 -1.93100E+03  2.91347E+03 -2.68627E+03 -8.52229E+02
 -3.90373E+03  8.39236E+03 -4.23617E+03  4.01478E+03 -1.05233E+04 -1.97474E+03 -1.39881E+04 -1.10946E+04
 -1.13613E+04 -1.89286E+04  1.91470E+03 -1.69621E+04  1.23165E+04 -1.58207E+04  1.54386E+04 -4.07013E+03
  2.48093E+04  3.55451E+03  9.20016E+03  7.24574E+03  2.19937E+03  1.70141E+04  2.16930E+03  1.49339E+04
 -1.21342E+04  4.21496E+03 -8.01192E+03 -4.12060E+03  3.88290E+03 -3.95171E+03 -2.12539E+03  4.86247E+03
 -2.26341E+03 -1.85229E+02 -8.82505E+03 -5.25167E+03  6.71646E+02 -7.38528E+03 -6.24120E+03 -2.97305E+03
  8.46716E+03 -7.94141E+03  1.49597E+04 -6.97557E+03  1.68669E+04  1.31689E+04  2.11542E+03  1.70156E+04
 -7.14197E+03  1.72313E+04 -2.01680E+04  1.28070E+04 -1.48059E+04  3.13745E+02 -3.43495E+03 -1.38584E+04
 -8.07571E+03 -1.68484E+04  4.10453E+03 -8.55906E+03  1.04965E+04 -9.03958E+03  4.02257E+03 -6.95949E+03
  9.67646E+03  5.54408E+03 -3.01071E+03  4.78658E+03 -9.99175E+02  1.71252E+03  1.27049E+03  2.30478E+03
  2.12022E+03  1.03248E+03  1.04694E+04 -2.01310E+03  2.47205E+03  8.44397E+03  7.02883E+03  1.21934E+04
 -5.46945E+03  9.98876E+03 -1.97954E+03 -2.14894E+03 -1.45699E+04 -1.58546E+03  2.82500E+03 -8.62735E+03
  7.98357E+03 -1.28665E+04  1.31579E+04 -3.57414E+03  1.58380E+04  9.36073E+03  2.09728E+03  1.02644E+04
 -5.50622E+03  5.13964E+03 -3.82479E+03  8.02211E+03 -1.33938E+04  1.37508E+03 -3.50369E+03 -8.07103E+00
  3.22882E+03 -9.27639E+03 -2.97156E+03  1.90313E+01 -6.91203E+03 -4.63476E+03 -4.07943E+03  1.45889E+03
 -7.80629E+03 -7.15732E+02 -2.43140E+03 -1.53621E+04  5.72512E+03 -8.12730E+03  6.21619E+03 -8.86815E+03
  1.43657E+04  9.40008E+02  9.34986E+03  5.47745E+03  1.35621E+03  1.53233E+04 -7.85927E+03  1.05940E+04
