 $NMID ID='MM_0lb_SNR50_20hz_g55_17.RAW', FMTDAT='(8E13.5)'
 TRAMP=1., VOLUME=1. $END
  3.08678E+05 -6.48858E+02  3.39052E+05  2.49258E+05  8.81058E+04  3.32686E+05 -1.34770E+05  2.50063E+05
 -1.89338E+05  8.34878E+04 -1.12069E+05 -3.06684E+04  7.02428E+02 -5.40534E+04  5.41108E+04  1.81463E+03
  3.76168E+04  5.62528E+04 -1.28463E+04  7.08780E+04 -6.12228E+04  5.99695E+04 -7.97205E+04  3.27066E+04
 -7.95042E+04 -1.12555E+04 -5.73772E+04 -4.80080E+04 -1.29643E+04 -6.79248E+04  2.84724E+04 -4.68838E+04
  4.14848E+04  5.53640E+03  1.44420E+04  4.88522E+04 -3.09981E+04  4.63037E+04 -6.17444E+04 -8.83242E+02
 -5.03614E+04 -6.43829E+04 -8.92270E+03 -7.77407E+04  3.24473E+04 -4.98034E+04  4.73739E+04 -1.99038E+04
  4.03884E+04  1.30296E+04  3.06151E+04  2.49488E+04  1.50295E+04  3.06438E+04 -5.73030E+03  2.35869E+04
 -2.31606E+04  1.18802E+04 -2.18565E+04  6.31225E+02  3.81329E+03 -2.36459E+03  1.76168E+04  9.25445E+03
  1.01701E+04  3.22176E+04 -3.15890E+04  3.45374E+04 -6.16891E+04  5.52135E+03 -5.58970E+04 -4.31441E+04
 -1.21045E+04 -5.85964E+04  4.09982E+04 -4.41684E+04  5.00625E+04 -4.01746E+03  3.09487E+04  3.32572E+04
 -6.11812E+03  2.97841E+04 -2.95643E+04  1.54184E+04 -2.65891E+04 -3.36943E+03 -1.49585E+04 -7.70040E+03
 -6.21067E+03 -6.96641E+03 -5.80056E+03 -1.55859E+04  7.79134E+03 -2.43364E+04  1.83434E+04 -1.42120E+04
  1.25608E+04  5.77311E+03 -7.27602E+03  1.48814E+04 -1.89676E+04 -4.24228E+03 -1.20523E+04 -3.02790E+04
  2.01538E+04 -4.24843E+04  4.75210E+04 -1.71230E+04  4.05292E+04  2.02727E+04  1.69435E+04  4.36333E+04
 -1.33680E+04  3.45139E+04 -2.35700E+04  6.27751E+03 -9.13531E+03 -2.74101E+04  1.85747E+04 -2.85449E+04
  3.64916E+04 -4.13366E+03  3.22199E+04  2.24669E+04  1.16446E+04  4.07138E+04 -1.20454E+04  4.57025E+04
 -3.09227E+04  3.11336E+04 -3.64705E+04  7.50457E+03 -3.50287E+04 -1.80395E+04 -2.36069E+04 -3.55171E+04
  5.06133E+03 -2.97020E+04  2.56328E+04 -1.45527E+04  2.63066E+04  1.33180E+04  3.15245E+02  2.04269E+04
 -1.32039E+04  6.77609E+03 -6.04717E+03 -8.57062E+03  7.22447E+03 -1.04572E+04  1.56293E+04  3.87665E+03
  1.10805E+04  2.21060E+04 -9.70193E+03  2.00866E+04 -2.41444E+04  9.98746E+03 -2.73176E+04 -5.01704E+03
 -2.23552E+04 -2.09489E+04 -6.46887E+03 -1.77836E+04  2.20786E+03 -1.56718E+04  9.71016E+03 -1.85785E+04
  2.37545E+04 -1.20262E+04  2.77514E+04  1.99489E+03  2.28085E+04  1.36631E+04  7.20556E+03  3.30169E+04
 -1.49390E+04  3.39656E+04 -2.54330E+04  9.99951E+03 -2.20390E+04 -1.10352E+04 -5.00782E+03 -1.16486E+04
 -2.57546E+03 -4.73349E+03 -3.21637E+03  6.23278E+03 -1.10985E+04  9.42046E+03 -1.13093E+04 -1.50466E+03
 -3.00109E+03 -1.58009E+04  1.08783E+04 -1.80193E+04  1.40868E+04 -1.80315E+04  1.47628E+04 -1.43968E+03
  7.06297E+03  8.12786E+03 -2.67894E+03  1.89725E+04 -6.58692E+03  1.42886E+04 -1.58301E+04 -1.89644E+03
 -1.36595E+04 -1.25677E+04 -4.39814E+03 -2.04327E+04  7.51369E+03 -1.71362E+04  1.68369E+04 -3.12314E+03
  1.53100E+04  4.01069E+03  1.00295E+04  3.19808E+03  6.35451E+03 -2.59047E+03  5.21372E+03 -1.29448E+03
  1.21864E+04  3.28351E+02  1.69309E+04  1.34035E+04  8.99357E+03  2.45698E+04  3.37444E+03  2.50008E+04
 -1.13730E+04  1.93553E+04 -2.57346E+04  1.05122E+04 -2.34487E+04 -2.43362E+03 -1.92928E+04 -1.20330E+04
 -8.70598E+03 -1.68866E+04  5.32738E+03 -2.01611E+04  1.87492E+04 -1.10021E+04  1.82015E+04  4.92662E+02
  7.20125E+03  1.15789E+04 -6.26954E+03  1.09156E+04 -1.40472E+04  1.49634E+03 -9.99404E+03 -7.81363E+03
 -3.39909E+02 -7.72485E+03  5.55231E+03 -7.41653E+03  9.74986E+03 -3.35198E+03  7.04569E+02  2.52615E+03
 -4.32032E+03 -2.18115E+03 -1.72928E+03 -3.83012E+03  2.14539E+03 -1.35230E+04  7.30601E+03 -1.58139E+04
  8.33827E+03 -5.68513E+03  1.39789E+04  1.24078E+02  1.07612E+04  5.88298E+03  4.84595E+03  1.58890E+04
  3.78814E+03  2.16410E+04 -9.72601E+03  1.24799E+04 -9.96020E+03  3.95593E+03 -6.16831E+03 -5.21574E+03
 -1.53702E+03 -7.97244E+03 -6.12067E+02  3.44810E+03 -3.60927E+03  1.92284E+03 -1.59993E+03  1.41264E+03
 -4.89798E+03  1.77431E+03 -1.51167E+04 -5.12478E+03 -2.05517E+03 -8.88055E+03  2.02994E+03 -8.68072E+03
  6.21401E+03 -6.68724E+03  7.48803E+03  4.27199E+03  1.27529E+03  5.02700E+03 -5.39690E+01  5.84889E+02
 -2.69136E+03  3.20320E+02  9.06030E+02 -7.77624E+03  5.10277E+03 -8.70737E+03  8.80163E+03 -2.61596E+03
  1.33179E+04  1.25194E+03  5.97048E+03  9.43838E+03  1.28013E+03  6.35851E+03 -7.40573E+03  5.54658E+03
 -1.07261E+04  4.57709E+03 -1.43641E+03  1.06294E+03  9.38762E+02 -2.80641E+03  6.49748E+03 -3.63569E+03
  2.00793E+03 -3.52010E+02  2.22062E+03  2.72815E+03 -4.51742E+03  1.02697E+04 -5.53719E+03  5.58311E+02
 -4.58237E+03 -2.54046E+03 -2.10108E+03 -5.92862E+03  1.29535E+03 -2.81310E+03  2.16897E+03  1.33265E+03
 -2.18380E+03  6.35690E+02 -7.96782E+03  3.02418E+03 -2.03577E+03  4.34424E+03 -2.17604E+03 -3.32150E+03
 -3.50676E+03 -6.65430E+03  1.28256E+03 -6.46352E+03  7.97044E+03  7.39889E+02  2.72159E+03 -3.38513E+03
  3.72306E+03  3.51968E+03 -1.44966E+03  8.19731E+03 -1.81944E+03  3.54626E+03 -5.77621E+03 -4.17323E+03
 -3.02794E+03 -7.55220E+02 -4.63382E+02 -5.94709E+03  3.69153E+03 -4.40433E+03  2.67895E+03 -2.99049E+03
  3.56538E+03  3.22116E+03 -1.61389E+03  1.78684E+03 -2.71056E+03  2.43471E+03  1.67505E+03  5.59083E+02
  3.41034E+03 -4.12504E+03  5.02959E+03  5.66387E+02  5.33566E+03  1.13881E+03  7.03962E+03  6.83142E+03
  8.36343E+02  1.15224E+04 -7.94973E+03  7.27193E+03 -1.28102E+04  3.47470E+03 -2.26233E+03 -1.11967E+03
 -1.98387E+03 -3.19137E+03 -1.99446E+03 -3.17493E+03 -6.10059E+01 -4.03197E+01 -1.40446E+02 -1.66539E+03
  1.70399E+03 -4.40320E+03  5.76533E+03 -2.84915E+03  4.26338E+03 -2.78156E+03  3.77516E+03  6.16189E+02
  7.57552E+03  3.43016E+03 -9.69505E+02  5.18286E+03 -8.94438E+02  2.31789E+03 -1.84943E+03  2.87611E+03
 -5.72122E+03 -7.22896E+02 -8.76226E+02 -2.98899E+03 -2.02684E+03  7.28531E+02 -7.57146E+02 -3.17458E+03
  1.16320E+03 -5.21947E+03  1.27055E+04 -3.50622E+03  2.55752E+03  3.39976E+03  2.57172E+03  8.78005E+03
  1.66283E+03  7.56615E+03  1.16010E+03 -1.92682E+03 -1.35853E+03  1.20080E+03 -7.27515E+02  1.34918E+03
  6.23994E+03 -1.83468E+03 -3.10500E+03  5.55029E+03 -6.26354E+03  2.87121E+03 -4.13637E+03 -1.26787E+02
  5.83974E+02 -3.30584E+03  3.93045E+02 -9.86151E+03  2.02593E+03 -2.40618E+03  3.59502E+03  3.69555E+02
  8.97376E+03  5.29536E+03  3.25912E+03  6.22302E+02  2.36378E+01  1.43119E+02 -2.83896E+03  1.53430E+03
 -2.80782E+03 -4.98319E+03 -1.49498E+03 -2.90621E+03  4.12965E+03 -2.01510E+03 -4.05190E+02 -3.42142E+03
  1.14372E+03 -1.25568E+03  2.96778E+03  5.85149E+02  2.62579E+03  5.46416E+02 -2.79021E+03 -1.75381E+03
 -6.89894E+02  3.73570E+03  8.23249E+01 -1.97023E+03  2.95904E+03  3.37826E+01  3.79575E+03  2.18600E+03
 -6.11211E+03  4.39458E+02  3.22464E+02  4.01020E+03 -1.07808E+03  1.76235E+03  9.45684E+02 -1.43417E+03
 -1.47822E+03 -3.71778E+02  1.47443E+03 -3.01176E+03  1.44275E+03 -3.21528E+03  2.96184E+03  1.63959E+03
  3.00799E+03 -1.21310E+03 -6.17529E+02  3.05413E+03  1.35357E+03  5.61888E+03 -8.42166E+02 -1.55007E+03
 -2.70799E+02 -2.03670E+02  4.28885E+02 -2.92172E+03 -1.71116E+03 -2.88691E+03 -4.11472E+02  1.16271E+03
 -1.02552E+03  1.95891E+03 -7.33346E+02 -3.52322E+02  2.31205E+03 -1.64320E+03  3.89351E+03 -1.91876E+03
 -4.28310E+03 -9.81066E+02  1.85795E+03  5.73325E+03 -9.73031E+02  3.05287E+03  1.95012E+03  1.24343E+03
  1.21611E+03  7.70854E+02 -4.70501E+03 -2.08819E+03  2.65615E+03 -4.41885E+02  1.84994E+03 -1.99718E+03
  2.41251E+03  3.07738E+03 -7.04877E+00  7.84931E+02  1.12737E+03  3.11059E+03  1.74440E+03 -8.48534E+02
  1.49409E+03 -1.25374E+03  4.44646E+03  6.31333E+02  1.96918E+03 -8.71649E+02  2.75514E+03 -5.08739E+03
  6.73578E+02 -5.99592E+02  8.13097E+02  1.88043E+03  1.73441E+03 -2.56880E+02  1.66810E+03  3.11149E+03
 -5.12500E+03 -2.03241E+03  4.31233E+02 -6.07804E+03 -1.82370E+03  2.15321E+03  3.16255E+03 -4.54241E+02
 -3.82529E+03 -2.19965E+02  6.54572E+03  4.16758E+03 -7.45009E+02  1.86732E+03 -6.28379E+02  6.16183E+02
 -2.17227E+03 -2.35852E+03 -5.10365E+02  2.03285E+03  3.20466E+02 -1.76876E+03 -5.53574E+03  1.99470E+03
  4.21451E+03 -9.05287E+01  5.05083E+02 -3.07060E+03  3.99316E+03  4.07051E+02 -2.17079E+03  1.21217E+03
 -6.48644E+02  9.03455E+02 -2.24617E+03  4.07416E+03 -2.90538E+03  2.78937E+03 -9.88298E+02 -6.53826E+02
  4.38207E+02  1.82802E+03 -2.39009E+03 -2.33727E+02 -1.78170E+03 -1.89920E+03 -2.01752E+03 -5.86922E+03
 -1.48514E+03 -5.77181E+03  2.69158E+03 -6.79324E+03 -2.76373E+03 -3.02045E+03  7.36921E+02 -6.55916E+02
  1.23642E+02 -5.60491E+02  1.54637E+03  2.99535E+03 -2.05530E+03 -5.04218E+02 -1.12591E+03  2.59837E+02
  2.51296E+03 -1.48471E+03 -1.10881E+03  4.52246E+03  2.07967E+03  3.11246E+02 -1.99275E+03  8.45886E+02
 -3.19960E+03  6.78860E+02 -9.03279E+01  4.15090E+02 -1.79510E+03 -3.06645E+02  8.38144E+02  1.42922E+03
 -1.48431E+03 -2.50031E+02 -1.95439E+03  7.28048E+02  8.06013E+02  2.71751E+02 -3.78443E+03  5.38814E+03
  9.05730E+02 -2.64453E+03 -1.75123E+03 -2.47218E+02 -2.90716E+03 -1.32474E+03  3.92570E+03 -2.02701E+03
 -3.30144E+03  1.26616E+03 -2.80784E+03 -2.77958E+03 -5.14147E+02 -1.44041E+03  7.28454E+02  1.22117E+03
  6.72512E+02 -2.50821E+03  2.86431E+03 -1.45711E+03 -7.46151E+02 -1.84847E+03  3.31882E+03  3.73230E+02
 -3.52345E+02 -2.56440E+02  2.80128E+03  4.97605E+02  2.50570E+03 -6.10089E+02 -1.46433E+03  1.10507E+03
  2.37997E+03 -1.33658E+03  9.57640E+01 -5.01157E+03 -1.70787E+03  2.52349E+03  1.29265E+02  4.07958E+02
  1.04253E+03 -3.34960E+03  5.95023E+02  3.94396E+02  8.60845E+02  3.76338E+03  1.61596E+03  1.60831E+03
  5.90512E+02 -1.63319E+03  2.01927E+03 -5.51283E+03 -1.46469E+03 -2.31359E+03 -1.17122E+03  2.84658E+03
 -1.36067E+03 -1.93219E+02 -5.57837E+02  2.55299E+03  2.39288E+03  1.08071E+03 -9.21777E+02  2.36358E+03
  6.53851E+02  9.02470E+02 -2.20693E+03 -1.30449E+03  9.45911E+01 -3.00216E+03  7.66084E+02  2.96516E+03
  2.46761E+03  9.73928E+02 -8.09277E+01  1.06892E+03  1.60700E+03 -3.71176E+03  2.14842E+03 -4.50395E+03
