 $NMID ID='MM_0lb_SNR50_17hz_g55_61.RAW', FMTDAT='(8E13.5)'
 TRAMP=1., VOLUME=1. $END
  3.07604E+05  3.09972E+03  3.36897E+05  2.50701E+05  7.87435E+04  3.38472E+05 -1.28970E+05  2.45770E+05
 -1.93649E+05  8.26880E+04 -1.07697E+05 -3.38051E+04  2.25276E+03 -4.71567E+04  5.36074E+04 -4.97402E+03
  3.62205E+04  5.59623E+04 -1.80492E+04  7.74199E+04 -6.09454E+04  6.32078E+04 -8.17899E+04  3.14153E+04
 -8.09392E+04 -1.13685E+04 -6.05208E+04 -4.79261E+04 -1.92757E+04 -6.78627E+04  2.94469E+04 -4.44621E+04
  3.56101E+04  2.61088E+03  2.03750E+04  4.86667E+04 -3.51269E+04  4.64662E+04 -6.29913E+04  1.21398E+03
 -5.05352E+04 -5.90054E+04 -9.98016E+03 -7.79154E+04  3.00953E+04 -5.37773E+04  4.69698E+04 -1.57267E+04
  4.11879E+04  1.43451E+04  2.88193E+04  2.39219E+04  1.26544E+04  2.83697E+04 -8.27153E+03  2.50861E+04
 -2.20614E+04  1.18102E+04 -1.81155E+04 -3.53580E+03  6.02878E+03 -4.89766E+03  2.42772E+04  1.28630E+04
  8.78706E+03  3.53227E+04 -3.15506E+04  3.41765E+04 -6.25557E+04  5.43088E+02 -5.73966E+04 -3.97996E+04
 -1.47389E+04 -6.49613E+04  3.80162E+04 -4.23534E+04  5.84078E+04  2.72564E+03  3.62857E+04  2.97580E+04
 -1.00139E+04  3.28414E+04 -3.58219E+04  1.37684E+04 -3.06475E+04 -7.25972E+03 -1.27717E+04 -1.19857E+04
 -9.13700E+02 -1.30024E+04 -3.04753E+03 -1.77089E+04  5.99919E+03 -2.35879E+04  1.65497E+04 -1.24307E+04
  1.32759E+04  3.91701E+03 -7.59575E+03  1.57347E+04 -1.84822E+04 -3.02497E+03 -7.86173E+03 -3.15727E+04
  2.45013E+04 -3.63183E+04  4.42383E+04 -1.90595E+04  4.26108E+04  1.99351E+04  1.10467E+04  4.27772E+04
 -1.47357E+04  2.93415E+04 -2.64756E+04  2.86473E+02 -9.68534E+03 -3.02189E+04  2.54352E+04 -3.53037E+04
  3.92817E+04 -9.03878E+03  3.04607E+04  2.12795E+04  1.64138E+04  4.52333E+04 -1.12535E+04  4.99108E+04
 -3.08886E+04  3.18494E+04 -3.70520E+04  6.54523E+03 -4.20898E+04 -1.69914E+04 -2.26824E+04 -3.91019E+04
  2.89940E+03 -3.39831E+04  3.18572E+04 -1.56649E+04  2.57685E+04  6.18459E+03  6.91714E+03  1.49300E+04
 -9.96269E+03  8.47669E+03 -9.41565E+03 -7.72844E+03  1.00612E+04 -9.43287E+03  1.74357E+04  1.09833E+04
  1.29454E+04  2.66869E+04 -6.09573E+03  2.54698E+04 -1.70491E+04  7.55151E+03 -2.40307E+04 -7.73006E+03
 -1.65604E+04 -1.63785E+04 -7.12615E+03 -2.15776E+04  4.47128E+03 -2.04871E+04  1.73509E+04 -1.60931E+04
  2.43164E+04 -1.41755E+04  3.24519E+04  3.00992E+03  2.36127E+04  2.00884E+04  5.20769E+03  3.09489E+04
 -1.87296E+04  2.65286E+04 -2.16980E+04  7.98514E+03 -2.61347E+04 -1.30419E+04 -3.52219E+03 -1.12279E+04
  5.92209E+03 -8.10027E+03 -3.58070E+03  5.84062E+03 -1.37605E+04  8.64870E+03 -1.28581E+04 -4.27931E+03
 -1.03990E+04 -1.55928E+04  3.99668E+03 -2.25425E+04  1.85087E+04 -1.43969E+04  1.67843E+04 -2.84833E+03
  8.28251E+03  1.31076E+04 -3.64855E+03  1.94675E+04 -1.08699E+04  1.08686E+04 -1.83776E+04 -2.14417E+03
 -1.13889E+04 -1.82084E+04  7.26383E+02 -1.94173E+04  7.34679E+03 -1.56452E+04  1.71358E+04 -9.53197E+03
  1.06004E+04  1.55953E+03  1.65113E+04  4.20104E+03  9.27439E+03  2.68099E+03  7.59067E+03  3.95933E+03
  1.58651E+04 -1.08762E+03  1.83762E+04  1.69962E+04  1.11374E+04  2.54551E+04 -4.75356E+03  3.57960E+04
 -1.58481E+04  2.23412E+04 -3.12348E+04  6.33339E+03 -3.30268E+04 -5.64905E+03 -3.00347E+04 -1.45269E+04
 -1.26234E+04 -3.03763E+04  9.66893E+03 -2.49640E+04  1.59819E+04 -1.49837E+04  1.56238E+04  5.99828E+03
  5.27526E+03  1.34452E+04 -8.20471E+03  1.52028E+04 -1.38439E+04  1.96050E+03 -1.34079E+04 -5.74872E+03
  9.94190E+02 -9.89479E+03  8.06698E+03 -1.11738E+04  6.88326E+03  1.96397E+03  1.15989E+03  5.19441E+03
 -7.38509E+03  1.46622E+03 -7.27020E+03 -3.25288E+03 -1.27379E+02 -1.48946E+04  5.40988E+03 -1.52050E+04
  1.43683E+04 -6.37719E+03  1.65846E+04  3.25218E+03  1.21621E+04  1.31700E+04  5.67071E+03  1.41162E+04
 -3.33487E+03  1.74235E+04 -1.10390E+04  1.60917E+04 -1.30998E+04  3.79008E+03 -9.75873E+03  2.96614E+03
 -7.23864E+03 -3.70042E+02  3.65202E+03  3.59136E+03 -3.89965E+03 -1.28107E+03 -3.14299E+03  3.12670E+03
 -1.68481E+03  2.42847E+03 -1.00868E+04 -7.91863E+03 -2.51626E+03 -1.12000E+04  7.40972E+03 -8.83941E+03
  4.89534E+03 -2.82506E+03  7.10392E+03  1.02418E+02 -7.43815E+02  6.64981E+03 -1.39528E+03 -1.64461E+03
 -6.92011E+03 -8.54455E+03 -1.17296E+03 -7.59948E+03  8.88762E+03 -8.79970E+03  1.34911E+04 -4.91736E+03
  1.37819E+04  1.69770E+03  1.35930E+04  1.15094E+04  2.45112E+03  1.09428E+04 -5.62913E+03  1.30303E+04
 -1.17498E+04  2.73539E+03 -5.16177E+03 -5.33065E+03 -5.03950E+02 -1.45778E+03  6.25857E+03 -1.23554E+03
  1.06139E+04  2.80543E+03  1.75279E+03  6.36638E+03 -5.86547E+03  1.21978E+04 -1.05478E+04  4.70791E+01
 -3.86422E+03 -5.09604E+03  4.21883E+02 -1.21785E+04  1.87362E+03 -4.51268E+03  6.23828E+03  5.39796E+02
 -2.87485E+03  4.63915E+03 -5.81752E+03  6.47505E+03 -5.47687E+03  2.51294E+03 -8.13092E+03 -2.12010E+03
 -6.30976E+03 -8.88359E+03  5.79191E+03 -8.82585E+03  8.11409E+03 -9.76343E+03  8.00858E+03 -2.18289E+03
  7.78445E+03  8.79314E+03 -6.35410E+02  1.18479E+04 -7.67950E+03  5.50135E+03 -7.33227E+03  1.71210E+03
 -5.02262E+03 -3.02344E+03 -1.26098E+03 -9.14360E+03  2.38231E+03 -6.69346E+03  5.02496E+03 -6.55616E+03
  2.01780E+01 -2.01486E+01 -4.09357E+03  2.50172E+03  2.91192E+03  1.19333E+03 -7.60333E+02 -6.53031E+03
  9.03283E+02 -3.60792E+03  8.87741E+03  1.23847E+03  5.77452E+03 -2.00316E+02  3.59774E+03  1.01415E+04
 -5.67186E+03  1.43571E+04 -1.03408E+04  8.04782E+03 -1.02559E+04  2.79930E+03 -9.16389E+03 -6.98642E+03
 -4.24149E+03 -8.15853E+03 -2.36591E+02 -5.56840E+03  6.33177E+03  3.60754E+02  1.62873E+03 -4.48011E+02
  3.72543E+03 -4.24445E+02  6.05710E+03  1.95828E+03  4.71820E+03 -3.49821E+03  2.69552E+03 -2.26462E+03
  4.75006E+03  4.75389E+02  2.46344E+03  2.23377E+03  1.78521E+03  7.27782E+03 -3.53664E+03  2.21268E+03
 -6.55048E+03 -1.22732E+03 -5.81215E+02 -3.04770E+02 -1.69194E+03 -3.03036E+03  2.81419E+03 -7.07434E+03
  8.57865E+03 -1.64040E+03  1.17449E+04  3.43768E+03  3.31417E+03  4.47382E+03  3.44859E+03  9.03135E+03
 -4.63495E+03  1.10671E+04 -3.09134E+02 -5.94119E+02 -3.88701E+02 -2.54750E+03  1.38399E+03 -2.44110E+03
 -8.06618E+02  1.51595E+03  1.22304E+03  7.14327E+03 -4.79642E+03 -1.00500E+03 -3.62258E+03 -3.59192E+01
 -5.36655E+03 -5.26364E+03  3.82004E+02 -4.50246E+02  6.06007E+02 -6.12369E+03  2.16781E+03 -3.21775E+02
  8.08441E+03  3.31523E+03  6.00320E+02  2.28633E+03 -1.66824E+03  7.17249E+03  1.95635E+03  3.66792E+03
 -5.75243E+03 -1.87006E+03 -6.80968E+03 -4.25785E+03 -1.93085E+01 -2.49398E+03 -1.39044E+03 -1.85237E+03
  8.00825E+03 -2.44958E+03  4.88617E+03 -7.17043E+02  3.56799E+03  2.94726E+03 -1.19222E+03  2.39595E+03
 -1.98665E+03  1.79832E+03  9.88967E+02  8.10288E+03 -1.22811E+03 -1.46252E+03 -7.55257E+02 -1.11829E+03
 -3.04459E+03  6.62583E+03 -5.54934E+03  2.78290E+03 -8.29070E+03  9.00615E+02 -7.03997E+03 -1.58321E+03
 -4.12732E+03 -3.76657E+03 -5.63544E+02 -3.11946E+03  1.41381E+03 -1.21124E+04  3.52442E+03  8.73124E+02
  3.25320E+03 -3.74599E+03  1.57266E+03  4.60701E+03 -2.99168E+02 -1.27385E+02 -3.38550E+03 -7.89362E+02
 -2.29325E+03 -3.05163E+03  8.74611E+02  3.26521E+03  5.94287E+02 -2.30090E+03  2.89490E+03 -2.29397E+03
  1.14152E+03 -2.90700E+02  3.35424E+03  1.90735E+03  3.43148E+03  2.44201E+03  4.43809E+03  1.14232E+03
 -1.18791E+03  8.68007E+02 -1.91714E+03 -2.25241E+03 -2.56518E+03  2.53540E+03 -2.12293E+03  5.91518E+03
  3.90616E+02  1.41968E+03 -6.23640E+02  2.69949E+03 -3.41500E+03 -3.34852E+03 -5.64431E+03 -4.69188E+03
 -5.18949E+01  6.88107E+02  3.30113E+03 -1.05921E+03  5.36947E+03  2.90115E+03 -2.90570E+03 -3.45663E+02
  7.77999E+01  6.00682E+03 -3.29856E+03 -3.10039E+03  8.38757E+02 -2.16629E+03 -1.89596E+03 -1.02624E+03
 -2.46824E+03  4.99402E+02  7.60263E+02 -2.47049E+03 -3.11463E+03  4.56328E+03  4.37997E+03  2.48356E+03
 -1.79283E+03 -1.03755E+03 -2.46700E+03  1.69691E+03  1.04737E+03 -6.44931E+02  3.82225E+03 -2.95970E+03
 -1.65773E+02 -2.79614E+03  9.95563E+02  1.74299E+03  3.62339E+03  2.16591E+03  2.11002E+03  2.83326E+03
 -9.21072E+02 -2.36669E+03 -3.84862E+03  1.16191E+03 -1.56750E+03 -1.51781E+03  5.44939E+02 -9.66826E+02
  2.31689E+03 -1.61016E+03 -3.23863E+03 -5.79282E+02 -4.44978E+03  5.85649E+03 -1.31956E+03  6.02699E+03
  9.00367E+02  3.92721E+03  3.52178E+02  2.44277E+02 -5.20881E+03  5.33702E+03 -2.61569E+03  3.22172E+03
 -3.76171E+03 -4.73688E+02 -3.83249E+03  1.64612E+03 -5.49767E+02  1.92453E+03 -2.29278E+03 -3.09035E+02
  5.59037E+02 -5.69893E+03  2.42722E+03  3.25581E+02  6.16273E+03 -4.89626E+03  3.40509E+03 -2.65585E+03
  2.78293E+03 -1.10711E+03  1.87363E+03  2.86785E+03  4.68508E+02 -9.14475E+02 -1.90388E+01  3.18421E+03
 -2.15516E+03  2.82458E+03 -1.85919E+03  3.81671E+02  9.38743E+02  1.64356E+03  1.96351E+03 -5.32679E+03
 -4.34094E+03 -1.91175E+03  2.74276E+03  8.10956E+03 -5.84213E+02  4.33603E+02 -3.28918E+03 -5.84801E+03
  7.90829E+02  2.58464E+03 -1.96626E+03  1.71173E+03  3.55532E+03  2.10211E+03  1.77684E+03  2.29437E+03
  1.48697E+03  5.94103E+03 -4.77957E+03  1.57728E+03 -4.51907E+03  3.05863E+03  5.76232E+02 -1.96987E+02
  2.46201E+03 -4.73143E+03  1.18535E+03 -2.95332E+03  6.80909E+02  8.73808E+02 -2.70420E+03 -5.95777E+03
  5.58419E+02  2.80924E+03 -4.20693E+03  3.53220E+02  1.50099E+02  3.62103E+02  9.46797E+02 -3.08176E+03
  2.48843E+03 -6.36056E+02 -3.29034E+03  4.49346E+02  3.61309E+03  3.30156E+03  3.08655E+03  9.75291E+02
  9.74131E+02  5.09749E+02 -2.67553E+03 -3.08888E+01 -1.96565E+03 -3.48282E+03 -2.19834E+03 -3.18470E+02
 -1.17065E+03 -3.44363E+03 -1.30534E+03  1.00882E+03 -1.91974E+03 -1.37072E+03 -1.47368E+03  2.26507E+03
 -2.59982E+03 -2.07515E+03  2.26770E+03  1.21710E+03 -1.61838E+03  5.95572E+02  3.08457E+03  3.21796E+03
 -4.48701E+01 -6.84655E+02  3.41371E+03 -9.85704E+02 -1.75735E+02  7.14120E+01 -2.42975E+03 -1.08056E+03
 -6.08094E+02  4.86689E+03  5.21455E+03 -3.53460E+03  5.16634E+03  5.83791E+02  9.65014E+02  2.96772E+03
  1.33326E+03 -7.37657E+03  3.16648E+02 -1.44374E+03  5.10015E+02  2.23107E+03  2.48570E+03  2.70485E+03
