 $NMID ID='MM_0lb_SNR50_8hz_g55_57.RAW', FMTDAT='(8E13.5)'
 TRAMP=1., VOLUME=1. $END
  3.07669E+05 -4.88659E+03  3.41189E+05  2.52479E+05  8.10723E+04  3.36198E+05 -1.28096E+05  2.55166E+05
 -1.88058E+05  8.41329E+04 -1.08753E+05 -3.34921E+04 -4.34746E+02 -5.22216E+04  5.59449E+04 -5.01076E+02
  3.03294E+04  5.43050E+04 -1.58458E+04  7.27486E+04 -6.27672E+04  6.76641E+04 -8.32247E+04  2.88886E+04
 -8.62999E+04 -1.08568E+04 -5.96481E+04 -5.23794E+04 -1.97621E+04 -7.34871E+04  3.04275E+04 -4.58385E+04
  4.28279E+04  1.85884E+03  9.77442E+03  4.48725E+04 -2.98634E+04  4.89694E+04 -6.64606E+04 -9.26311E+03
 -5.51868E+04 -5.25175E+04 -3.90376E+03 -8.16230E+04  3.52183E+04 -6.04681E+04  5.14265E+04 -1.95445E+04
  4.32273E+04  5.46637E+03  3.28858E+04  2.85731E+04  1.80816E+04  2.94968E+04 -1.48848E+04  3.05055E+04
 -1.73467E+04  9.53762E+03 -1.77927E+04 -5.85740E+03  4.96062E+03 -1.17147E+04  2.66777E+04  1.43038E+04
  2.98165E+03  3.58006E+04 -3.73351E+04  3.81785E+04 -6.24078E+04 -5.64266E+02 -5.85579E+04 -4.30286E+04
 -8.62204E+03 -6.80921E+04  3.96362E+04 -4.23193E+04  6.25212E+04 -1.39230E+03  3.37590E+04  3.08158E+04
 -4.58049E+03  4.31639E+04 -2.36644E+04  1.66847E+04 -2.81975E+04 -3.08034E+03 -1.43452E+04 -7.95172E+03
 -7.73017E+03 -1.54208E+04  8.69411E+02 -2.13688E+04  1.68164E+03 -2.38135E+04  2.07706E+04 -7.05107E+03
  4.73240E+03  3.35378E+03 -1.23003E+04  1.55195E+04 -2.18937E+04 -9.79359E+03 -4.13414E+03 -3.94112E+04
  2.89454E+04 -5.56560E+04  5.35668E+04 -1.69589E+04  5.56663E+04  1.88775E+04  1.75941E+04  4.68692E+04
 -2.00687E+04  3.68342E+04 -3.43244E+04  2.34286E+03 -9.39789E+03 -2.48219E+04  2.08877E+04 -3.94534E+04
  4.44283E+04 -2.15444E+04  3.94322E+04  2.14605E+04  2.48064E+04  5.22690E+04 -6.71227E+03  5.33865E+04
 -3.25150E+04  4.41606E+04 -4.58983E+04  1.57309E+04 -4.74254E+04 -2.33094E+04 -2.82921E+04 -4.68636E+04
  1.12116E+04 -4.31440E+04  3.44422E+04 -1.55436E+04  3.36302E+04  1.36598E+04  2.79165E+02  2.61022E+04
 -9.89172E+03  1.58809E+04 -8.54406E+03 -1.22756E+04  8.76004E+03 -7.86293E+03  1.97448E+04  8.16978E+03
  1.64508E+04  2.01078E+04 -3.97983E+03  3.52206E+04 -1.68276E+04  1.90254E+04 -3.53156E+04 -1.41889E+03
 -2.83067E+04 -1.89003E+04 -1.30806E+04 -2.77006E+04  2.48047E+03 -2.65376E+04  1.72151E+04 -2.67959E+04
  3.52538E+04 -1.02506E+04  3.43149E+04  5.85431E+03  2.82662E+04  2.42556E+04  8.28151E+03  4.19373E+04
 -2.31739E+04  3.28321E+04 -3.17798E+04  9.15874E+03 -2.71939E+04 -1.26693E+04 -9.14071E+03 -1.38568E+04
  2.71758E+03 -4.47794E+03 -3.18161E+03  1.24333E+04 -1.43768E+04  5.38687E+03 -2.11333E+04 -1.67047E+04
 -1.64653E+04 -1.23653E+04  3.09245E+03 -2.84937E+04  1.93422E+04 -1.72829E+04  2.01779E+04  7.97305E+03
  9.59546E+03  1.68440E+04 -3.82930E+02  2.81482E+04 -1.62432E+04  1.59126E+04 -2.07549E+04 -3.61949E+03
 -1.76712E+04 -2.10498E+04  1.80452E+03 -3.03311E+04  1.57894E+04 -2.39584E+04  2.32625E+04 -1.92729E+04
  1.94743E+04 -9.09423E+02  1.46966E+04  6.53834E+03  9.04007E+03  9.64608E+01  1.24012E+04 -4.20279E+02
  3.06201E+04 -1.88641E+03  2.67439E+04  2.28015E+04  2.74579E+04  4.34505E+04 -4.95231E+03  4.55656E+04
 -2.48061E+04  4.65234E+04 -4.03716E+04  1.69720E+04 -5.28238E+04 -3.82097E+03 -3.02613E+04 -3.04846E+04
 -1.25223E+04 -3.71177E+04  1.64509E+04 -3.28342E+04  3.06283E+04 -1.72873E+04  2.50126E+04  1.03268E+04
  2.54520E+03  2.08734E+04 -1.32190E+04  2.19923E+04 -2.97794E+04  2.86409E+03 -8.67648E+03 -1.51872E+04
 -4.89479E+03 -2.06345E+04  1.58313E+04 -2.17760E+04  1.22471E+04 -3.28684E+03  2.34687E+03  6.82969E+03
 -1.46196E+04  5.96184E+03 -1.06282E+04 -7.60251E+03 -5.64056E+03 -1.61296E+04  9.10264E+03 -1.60138E+04
  2.57837E+04 -1.00399E+04  3.49363E+04  1.09752E+04  2.31802E+04  1.26780E+04  3.20045E+03  3.24440E+04
 -4.36635E+03  3.07740E+04 -1.94349E+04  1.71524E+04 -2.20375E+04  8.32458E+03 -2.40990E+04 -9.67628E+03
 -2.96861E+03 -7.84545E+03  3.85997E+03  4.89543E+03  2.16893E+03 -9.46309E+02 -9.98168E+03  4.76993E+03
 -1.45045E+04 -6.16652E+03 -1.44284E+04 -1.80426E+04 -9.24514E+02 -2.23915E+04  5.13628E+03 -1.14876E+04
  1.53051E+04 -1.26739E+04  1.42453E+04  2.65604E+03 -6.58686E+02  2.69861E+03 -7.57204E+03  2.02473E+03
 -3.01671E+03 -4.66661E+03  3.02102E+02 -1.79116E+04  1.20617E+04 -1.59339E+04  2.72988E+04 -1.06574E+04
  2.96945E+04 -1.12719E+03  1.95973E+04  1.99784E+04  7.74789E+03  2.18022E+04 -1.09101E+04  1.68285E+04
 -1.32837E+04  1.04978E+04 -7.99047E+03 -4.30240E+03  3.00405E+03 -5.40932E+03  8.50680E+03 -7.15339E+03
  6.76813E+03  7.04057E+03 -9.61939E+02  1.35616E+04 -7.04034E+03  7.69940E+03 -1.52731E+04  6.35427E+03
 -6.20543E+03 -1.19483E+04 -2.81935E+02 -1.45254E+04  2.78721E+03 -9.20957E+03  8.90483E+03  1.00076E+04
  1.86032E+03  1.31775E+04 -8.09296E+03  3.16023E+03 -1.78810E+04  7.91383E+03 -8.49237E+03 -7.22901E+03
 -1.20443E+04 -1.90860E+04  4.87939E+03 -2.00448E+04  1.67550E+04 -9.04184E+03  1.94265E+04  2.99626E+03
  6.03272E+03  1.61567E+04  2.30230E+03  1.25123E+04 -1.15662E+04  3.47333E+03 -1.53465E+04  2.55212E+03
 -1.05211E+04 -1.91496E+04 -3.03386E+03 -1.18124E+04  9.40334E+03 -5.80356E+03  1.22245E+04 -7.53773E+02
  1.21904E+04  3.33328E+03  3.27048E+03  1.12614E+02 -5.92891E+03 -2.51796E+03  5.52871E+03 -5.20476E+03
  1.15436E+04 -4.58719E+03  1.92493E+04  1.33635E+03  1.34119E+04  8.69350E+03  9.57166E+03  2.37001E+04
 -6.88725E+03  2.63133E+04 -1.78977E+04  1.90217E+04 -3.06733E+04  6.54286E+03 -2.44687E+04 -8.71037E+03
 -1.38585E+04 -2.17329E+04  7.09258E+02 -9.68097E+03  7.90206E+03 -1.39778E+04 -1.37962E+03 -3.68151E+03
  2.97293E+03 -3.48828E+03  8.73304E+03  7.61116E+02  8.25722E+03 -9.28265E+03  1.48299E+04  4.37003E+03
  2.94446E+03 -1.76322E+03  4.75410E+03  1.15937E+04  4.21267E+03  8.72112E+03 -1.21076E+04  9.59611E+03
 -7.35268E+03 -1.39374E+03 -7.91628E+03 -1.09021E+04 -3.37416E+03 -1.73412E+04  1.54583E+04 -1.75532E+04
  2.22462E+04 -1.64112E+04  2.45859E+04  8.31639E+03  1.41462E+04  2.19347E+04 -1.90389E+03  1.77482E+04
 -7.31971E+03  2.09056E+04 -1.22476E+04  8.59844E+03 -6.96145E+03 -1.08051E+04  4.25556E+03  8.93133E+03
  7.06840E+02 -7.57588E+02  9.15632E+01  2.15397E+03 -9.93279E+03  4.04960E+03 -1.13629E+04 -2.82188E+03
 -1.27956E+04 -5.54858E+03  1.13580E+03 -1.59806E+04  8.16284E+03 -9.54621E+03  2.09185E+04 -8.73131E+03
  1.95354E+04  7.21244E+03  1.17934E+04  1.68596E+04 -4.49187E+02  1.45032E+04 -1.40104E+04  1.16879E+04
 -1.35634E+04  6.81771E+03 -1.22473E+04 -9.07836E+03  5.27525E+03 -1.13582E+04  3.24398E+03 -1.18857E+04
  5.16731E+03  5.72182E+02  7.13384E+03 -1.22892E+02  7.54056E+03  4.73540E+03  1.94158E+03  4.64085E+03
  5.98040E+03 -2.19927E+03 -1.58011E+03  6.31256E+03  7.02100E+03  5.36401E+03  3.95060E+03  7.19301E+03
 -3.41948E+03  1.34034E+04 -1.12929E+04  1.38207E+04 -1.95276E+04  2.43161E+02 -1.63181E+04 -1.16672E+04
 -1.11881E+04 -1.68029E+04  7.90905E+03 -1.78357E+04  2.09524E+04 -1.37869E+04  1.44965E+04 -4.18533E+03
  1.10112E+04  1.00045E+04  3.47574E+03  9.21502E+03 -3.54746E+03  7.73786E+03 -7.21202E+00  3.76585E+03
 -3.68456E+03 -7.96414E+03  1.28217E+03 -1.03383E+04  1.07535E+04 -4.69789E+03  5.73403E+03  8.14178E+02
  1.83112E+03  1.34610E+03 -1.99302E+03  6.15069E+02 -3.71615E+03  5.32690E+03 -8.35499E+02 -3.96449E+01
  1.20922E+03 -6.84603E+03  5.81722E+03 -2.37481E+03  4.17474E+02  1.25697E+04 -2.56180E+03  1.05905E+04
 -8.81148E+03  3.77699E+03 -1.51775E+04  1.38592E+03 -1.70465E+04 -2.54524E+03 -2.91152E+03 -9.61799E+03
  6.45996E+03 -9.56529E+03  6.08698E+03 -2.08709E+03  1.45759E+03  5.48248E+03 -3.69404E+03  6.83616E+03
 -9.08790E+02 -2.50121E+01 -8.60725E+03 -7.21495E+03 -1.20314E+03 -7.19516E+03 -1.37821E+03 -1.31599E+04
  8.72652E+03 -4.70360E+03  1.32774E+04  1.38629E+03  6.48987E+03  1.87028E+03  4.42889E+03  1.13818E+04
 -4.26802E+03  1.38521E+03 -4.72131E+03 -3.37598E+03  2.96612E+03 -4.75367E+03  1.25638E+03 -3.74891E+03
  1.31381E+04 -2.81568E+03  9.18377E+03  9.01497E+03  2.95664E+03  6.25305E+03 -2.37628E+03  1.17166E+04
 -1.30310E+04  1.08349E+04 -1.41251E+04 -1.18978E+02 -7.91944E+03 -9.36774E+03  3.10524E+03 -8.62928E+03
  1.05601E+04  1.35684E+03  7.99828E+03  1.02172E+04  2.57154E+03  7.36125E+03 -9.98956E+01  4.66746E+03
 -9.39909E+03 -4.24901E+03 -5.42180E+03  1.42797E+03 -8.03371E+02  6.98720E+02 -3.24440E+03 -3.98960E+03
 -8.65752E+02  5.08098E+03 -1.05218E+04  4.06821E+03 -1.43415E+04  3.96546E+03 -1.15637E+04 -1.17497E+04
 -8.25815E+03 -1.53217E+04  5.93306E+03 -1.91023E+04  9.20119E+03 -1.65135E+04  1.95165E+04 -7.05154E+03
  1.16872E+04  4.42707E+03  9.83292E+03  1.37866E+04  3.67475E+03  9.94336E+03  6.81333E+02  1.28366E+04
 -1.04171E+04  2.58182E+03 -3.37109E+03 -2.92924E+02 -1.63181E+03 -4.45833E+03  4.21445E+03 -2.18299E+03
 -1.69048E+03 -6.18081E+02 -1.96129E+03 -3.16612E+03 -1.61189E+03 -4.47501E+03  1.47322E+03 -9.52492E+03
 -1.52108E+02 -1.33687E+02  9.37049E+03 -3.59986E+03  1.00946E+04  6.12522E+03  7.20324E+03  1.56435E+04
 -1.80182E+03  1.42562E+04 -1.10056E+04  7.36748E+03 -1.93539E+04 -3.43041E+03 -6.96638E+03 -1.17737E+04
 -2.48719E+03 -1.82581E+04 -2.60072E+03 -1.73612E+04  1.07286E+04 -6.59658E+03  4.64653E+03  4.98578E+03
  5.03970E+03  9.16638E+03 -5.40829E+03  5.22664E+03 -4.56586E+03 -8.46925E+03 -2.52171E+03 -8.18744E+03
  9.50808E+03 -4.19455E+03  7.54850E+03 -2.48181E+03  4.69824E+03  5.13624E+03 -1.44609E+03  6.18448E+03
 -7.70629E+03  6.29011E+03 -7.28653E+03  2.99532E+03 -8.83941E+03 -1.03167E+04 -4.85958E+03 -7.09957E+03
  2.36947E+03 -1.16808E+04  1.02899E+04  3.59260E+03  7.47530E+03  1.55726E+02  6.58427E+03  9.09071E+03
  4.85574E+03  9.23375E+03 -1.18520E+04  9.63712E+03 -6.29570E+03  8.07135E+03 -7.36258E+03 -1.04208E+03
 -3.58134E+03 -3.33840E+03 -4.04258E+03 -2.20178E+02 -3.55643E+03  2.79575E+03 -5.46681E+03  2.79182E+02
 -7.18813E+03 -7.41583E+00  5.85225E+02 -1.06010E+04  1.25231E+04 -1.38246E+04  5.32059E+03 -4.57932E+03
  1.70284E+04 -1.62868E+03  5.16176E+03  6.46307E+03  2.03917E+03  1.09270E+04 -9.88962E+03  8.76841E+03
