 $NMID ID='MM_0lb_SNR50_18hz_g60_79.RAW', FMTDAT='(8E13.5)'
 TRAMP=1., VOLUME=1. $END
  3.12429E+05  4.37353E+03  3.32754E+05  2.48731E+05  8.14269E+04  3.36268E+05 -1.30927E+05  2.52225E+05
 -1.92268E+05  8.19764E+04 -1.04917E+05 -3.15269E+04 -1.47905E+03 -5.20842E+04  5.10301E+04 -3.20719E+03
  3.29539E+04  5.36513E+04 -1.56390E+04  7.52369E+04 -6.18949E+04  6.31667E+04 -8.45890E+04  3.16205E+04
 -7.91398E+04 -1.25103E+04 -6.05663E+04 -5.38143E+04 -1.79367E+04 -6.49845E+04  2.59503E+04 -4.76275E+04
  3.97508E+04  1.11514E+03  1.51912E+04  4.36560E+04 -2.71987E+04  4.27408E+04 -7.15632E+04 -4.10921E+02
 -5.11247E+04 -5.76603E+04 -5.66112E+03 -7.50830E+04  2.83193E+04 -5.20040E+04  4.69859E+04 -1.79403E+04
  4.15053E+04  8.60589E+03  3.55956E+04  2.35776E+04  1.53859E+04  2.62703E+04 -7.63456E+03  3.13268E+04
 -1.98958E+04  1.15775E+04 -1.80064E+04 -6.73719E+03  5.78989E+03 -5.00635E+03  2.23327E+04  1.29514E+04
  7.35213E+03  3.53225E+04 -2.96031E+04  3.39246E+04 -6.16286E+04  1.73632E+03 -5.66428E+04 -4.30455E+04
 -1.08417E+04 -6.34251E+04  4.05829E+04 -4.25083E+04  5.83640E+04  2.77727E+03  3.60700E+04  3.16648E+04
 -6.78632E+03  3.75534E+04 -3.20996E+04  1.30745E+04 -2.82254E+04 -4.19847E+03 -2.36992E+04 -1.07297E+04
 -1.12012E+04 -1.12764E+04 -1.22546E+03 -2.07747E+04  8.72219E+03 -2.75476E+04  1.74042E+04 -1.19572E+04
  1.15413E+04  1.42363E+03 -9.10421E+03  1.15928E+04 -2.46885E+04 -1.53190E+03 -1.21237E+04 -3.16418E+04
  2.25922E+04 -4.39938E+04  4.48116E+04 -1.97648E+04  4.05300E+04  1.50539E+04  1.83025E+04  4.10287E+04
 -1.90611E+04  3.14523E+04 -2.35303E+04  3.38609E+03 -8.94736E+03 -2.28003E+04  2.21363E+04 -3.17212E+04
  4.04196E+04 -7.90211E+03  3.82332E+04  2.47912E+04  1.95875E+04  4.39625E+04 -8.52348E+03  4.62325E+04
 -2.94703E+04  3.26981E+04 -3.48720E+04  1.00783E+04 -3.94258E+04 -1.54484E+04 -2.14758E+04 -4.17363E+04
  8.23510E+03 -3.95338E+04  3.04308E+04 -1.65730E+04  2.98011E+04  7.82752E+03  1.88331E+03  2.09785E+04
 -1.48667E+04  4.13869E+03 -8.32789E+03 -5.65716E+03  5.28191E+03 -8.73939E+03  2.21378E+04  7.14765E+03
  1.56382E+04  2.19998E+04 -7.51245E+03  3.07256E+04 -2.05128E+04  8.77442E+03 -2.31394E+04 -4.11323E+03
 -2.14092E+04 -1.94762E+04 -8.07026E+03 -2.29183E+04  4.18853E+03 -1.83056E+04  1.73060E+04 -1.11745E+04
  2.54348E+04 -1.00943E+04  3.28836E+04  4.19289E+03  2.12578E+04  1.43738E+04  4.27806E+03  3.61857E+04
 -1.59838E+04  2.63770E+04 -2.88522E+04  1.11963E+04 -1.92627E+04 -8.24908E+03 -4.11981E+03 -1.62025E+04
  4.34916E+03 -3.13847E+03 -2.49799E+03  5.74316E+03 -1.38299E+04  7.22589E+03 -1.79263E+04 -8.00081E+03
 -7.73537E+03 -2.07071E+04  4.11909E+03 -1.94166E+04  1.30942E+04 -1.84894E+04  1.77926E+04 -1.93519E+03
  9.23670E+03  8.88800E+03 -1.99236E+02  1.89810E+04 -5.35467E+03  1.17156E+04 -1.93932E+04 -4.96408E+03
 -1.46276E+04 -1.55911E+04  8.52395E+02 -1.68699E+04  6.93935E+03 -1.78265E+04  1.65351E+04 -1.22516E+04
  1.29984E+04  3.65523E+03  9.72199E+03  3.81657E+03  4.60208E+03 -1.23463E+03  7.38525E+03 -1.32503E+03
  1.33421E+04  9.52621E+02  1.40876E+04  1.36686E+04  1.03691E+04  2.65176E+04 -1.72547E+03  2.89632E+04
 -1.68579E+04  2.21518E+04 -2.35281E+04  5.89164E+03 -3.27968E+04 -2.63334E+03 -2.73021E+04 -2.12224E+04
 -6.17178E+03 -2.53807E+04  1.15326E+04 -2.33041E+04  1.82038E+04 -1.21442E+04  1.69402E+04  6.36984E+03
  6.97119E+03  1.00602E+04 -4.14070E+03  1.06932E+04 -1.79182E+04  3.31640E+03 -1.56055E+04 -6.37468E+03
 -8.77491E+02 -1.17148E+04  9.61722E+03 -1.11119E+04  9.24106E+03 -3.23520E+03  2.55983E+03  7.02320E+03
 -6.22176E+03  2.45980E+02 -1.23062E+03 -2.08374E+03 -2.38202E+01 -9.58705E+03  7.16952E+03 -1.04699E+04
  1.50932E+04 -3.08545E+03  1.27830E+04  2.65862E+03  1.20015E+04  1.31470E+04  6.17276E+03  1.87102E+04
 -6.98711E+03  1.89776E+04 -1.01921E+04  1.33044E+04 -1.03991E+04  3.55355E+03 -8.99469E+03 -4.01211E+03
 -6.34370E+03 -8.23859E+03  3.22676E+02 -5.41216E+02 -8.29099E+02 -2.66975E+03 -3.80091E+03  5.73916E+03
 -3.79602E+03  3.65933E+02 -1.14912E+04 -1.03676E+04 -2.59622E+02 -1.45515E+04  1.54138E+03 -4.89772E+03
  3.03787E+03 -4.20478E+03  1.16321E+04  6.45801E+03 -9.76768E+02  3.89910E+03 -1.55973E+03 -2.57070E+02
 -6.90606E+03 -4.89903E+03 -4.62884E+03 -8.97300E+03  6.74585E+03 -1.05117E+04  1.40356E+04 -4.44700E+03
  1.73779E+04 -3.42961E+02  8.53632E+03  1.12319E+04  6.39563E+03  8.38313E+03 -4.44275E+03  7.48701E+03
 -7.55761E+03  3.28760E+03 -5.62136E+03 -4.83668E+03  3.38558E+02 -2.03445E+03  2.91519E+03 -3.41320E+03
  3.31247E+03  5.00920E+03  1.80088E+02  1.01847E+04 -2.70099E+03  4.01783E+03 -1.16698E+04  4.12661E+03
 -8.88118E+03 -8.21112E+03  4.92805E+03 -7.41526E+03  8.90730E+03 -5.67020E+03  9.06934E+03  2.89590E+03
 -1.45006E+03  1.24492E+03 -1.97639E+03  5.34498E+03 -5.95164E+03  3.25100E+03 -7.00356E+03 -4.16065E+03
 -7.26757E+03 -5.03455E+03  1.00011E+03 -7.95733E+03  3.14116E+03 -6.28579E+03  7.87403E+03  1.13852E+03
  4.54605E+03  7.46228E+03  1.29789E+03  1.10913E+04 -9.51566E+03  2.94466E+03 -9.62137E+03 -1.14342E+03
 -7.64997E+03 -7.39086E+03  2.62811E+02 -6.54068E+03  2.67341E+03 -3.80699E+03  1.38603E+03 -2.11282E+03
  2.79973E+03 -6.91609E+02 -4.06378E+03  1.58160E+03  2.85106E+03 -3.70232E+03  2.80896E+03 -6.60494E+03
  5.29403E+03 -5.06931E+03  2.05440E+03 -5.32460E+02  6.12248E+03  4.54056E+03  7.12734E+03  1.14108E+04
 -3.15668E+03  7.86756E+03 -6.00322E+03  8.98437E+03 -1.10645E+04  1.80753E+03 -4.90329E+03 -4.06016E+03
 -1.76749E+03 -6.82564E+03 -1.49451E+03 -5.72539E+03  1.24334E+03 -3.50430E+03  3.56952E+02  1.07588E+01
 -4.50059E+03  7.95968E+00  3.80213E+03  4.90570E+02  7.14515E+03 -1.99678E+03  6.26468E+03  7.31477E+03
  3.12291E+03 -1.87918E+03  7.87527E+02  5.25022E+03 -9.53483E+02  1.36400E+03 -5.29630E+03  6.27586E+03
 -3.32929E+03 -2.64845E+03 -4.28431E+03  2.21001E+03  6.24586E+02 -6.39043E+03  1.68771E+03 -6.07500E+03
  4.99621E+03 -5.93297E+03  9.88053E+03 -9.55840E+02  5.62313E+03  8.88050E+03  9.09036E+02  6.14969E+03
  1.67701E+03  7.04580E+03 -2.30751E+03  3.23551E+02 -3.25733E+03  3.23155E+02  2.79073E+03 -2.58084E+03
  8.34668E+02 -1.50814E+03 -4.89299E+02  6.49876E+03 -4.63219E+03  1.56555E+03 -6.03494E+03 -2.98695E+03
 -1.88610E+03 -6.96696E+03  1.82986E+03 -1.15875E+04  4.81531E+03 -3.88215E+02  1.94001E+03 -4.91263E+03
  2.47383E+03 -6.89621E+02 -1.43193E+03  4.85251E+03 -1.15464E+03  2.52196E+03 -1.91163E+03  2.80307E+03
 -3.05950E+03 -1.69645E+03 -4.99434E+03  7.21685E+02  2.47057E+03 -2.39099E+03 -9.78460E+01 -4.09503E+03
  4.76461E+03  5.30690E+02  8.97378E+02  1.57295E+03 -1.23869E+03  3.35502E+03 -4.06013E+02 -4.15865E+02
 -1.02582E+02  3.99575E+03  1.79290E+02  5.28031E+02 -1.36461E+03  6.04377E+03  2.92790E+03 -8.36417E+02
 -3.24585E+03 -1.28885E+02  2.83607E+01  5.97702E+03 -3.33603E+03 -2.44522E+03 -5.73991E+03 -2.46924E+03
 -5.92050E+02 -4.97137E+03 -3.69687E+03 -7.67682E+03 -1.47230E+03  1.60100E+03  5.19066E+03 -1.11527E+03
 -5.05622E+02  2.89819E+03 -3.10577E+03  1.83442E+03 -6.12850E+03 -3.32069E+02 -2.38743E+03  9.59182E+02
 -3.66620E+02 -2.83720E+03 -1.90547E+03 -5.97089E+02  2.37004E+03 -5.99967E+02  5.69520E+02  2.27644E+03
 -2.59285E+03  1.18131E+03  2.08165E+03 -6.17650E+02 -6.68582E+03  3.54683E+03  4.69006E+03 -4.05423E+03
 -5.90873E+02 -1.68895E+03 -2.81891E+03  2.92676E+03 -2.10383E+03 -3.73545E+03  3.06156E+03  6.38156E+03
  1.42042E+03  3.99516E+03 -4.74999E+03  4.85055E+03 -3.22876E+03 -5.21282E+03 -1.00540E+03  2.43302E+03
  4.24629E+03  1.08733E+02  3.34245E+03 -1.20346E+03 -1.56505E+03  4.61735E+03 -6.96810E+02 -9.14497E+02
 -2.85866E+03  2.23477E+03 -5.43645E+03 -1.24893E+03  2.67371E+02  1.23273E+03  4.09184E+03  1.13161E+03
 -1.21547E+03 -3.63123E+03 -3.87395E+03  3.84197E+02 -3.42863E+03 -1.26925E+03 -1.11459E+03  1.14763E+03
  2.98838E+03  4.76275E+02  4.31288E+03 -1.51726E+03 -3.32147E+02  2.51090E+03  4.24477E+03 -1.47076E+03
  1.33808E+03  1.82707E+03  2.04633E+03 -7.02035E+02 -2.13283E+03  3.32130E+03  8.22245E+02  2.03997E+03
 -1.25408E+02  3.43983E+01 -1.65065E+02  6.24527E+02 -1.64908E+03 -2.63350E+03  3.69749E+02 -1.25972E+03
  3.04732E+03  1.72647E+03 -8.91169E+02  2.12244E+03  7.85690E+02 -5.02529E+01 -2.43593E+01  2.76709E+03
  4.01377E+02  1.92470E+02 -3.86450E+02  1.35529E+03  1.56864E+03 -2.46927E+02  1.88760E+03 -3.53363E+03
  3.16081E+03 -1.46989E+03 -2.03408E+03 -3.75303E+03 -1.04852E+03 -2.04232E+02 -5.75321E+03  2.81242E+03
  3.18440E+03 -6.42352E+03  1.61746E+03 -3.62441E+03 -1.34748E+03 -1.95770E+03  2.95390E+03  1.61804E+03
  2.90449E+03 -6.63322E+02 -4.47511E+03 -2.85326E+03 -2.06799E+03  3.49474E+02  9.71490E+02  1.45017E+03
 -8.72201E+01  2.58616E+02 -4.04264E+03 -1.25177E+02 -1.79123E+02  1.82639E+03 -1.36720E+03  2.94294E+03
 -1.42544E+03 -3.07400E+03  1.86596E+03  1.53745E+03 -8.09298E+02 -3.52113E+03 -1.94425E+03 -4.00140E+02
  1.79187E+03  1.88369E+02  8.69549E+02 -3.29154E+03 -2.29364E+03 -3.61568E+02  1.15479E+03  4.50366E+02
 -1.43743E+03 -2.70536E+03 -3.68489E+03  2.69964E+03 -8.65472E+02  1.59396E+03 -1.87563E+03  6.36323E+02
  2.13695E+03 -3.22747E+02  3.65320E+03 -5.16238E+03  3.16293E+03 -5.28620E+02 -2.37674E+03  3.30839E+03
  3.26071E+01 -1.50380E+03 -1.85020E+03 -3.88542E+03 -4.25137E+03  1.14256E+03 -3.91606E+03  4.24416E+03
 -7.31410E+02  2.27263E+03  7.34021E+03 -2.46123E+03 -2.68512E+02  1.32938E+03  2.19917E+03 -4.07956E+03
 -2.62839E+03 -4.49027E+03  2.37106E+03 -2.64896E+03 -4.88343E+03 -5.52778E+02 -2.58414E+03 -1.80058E+03
 -2.14582E+03 -8.39426E+02 -3.80724E+03 -3.36956E+03  2.70243E+03  1.00982E+03 -8.08883E+02 -2.23247E+03
  2.11796E+03 -2.77194E+03  2.22180E+03 -5.12983E+02 -4.78263E+02 -2.05100E+03  4.68293E+03  4.62865E+03
 -2.16756E+03  6.74780E+03  1.26788E+02 -2.79933E+03 -2.09387E+03 -7.61358E+02 -2.00126E+03  1.08229E+03
  1.37706E+03  1.19181E+03  2.03400E+03  4.61064E+03  1.62375E+03 -3.56704E+03  3.58224E+03 -1.68847E+03
  3.50845E+03  1.16312E+03  3.06082E+03  4.93096E+02  3.31785E+03  5.62631E+02  1.06617E+03 -8.20401E+02
