 $NMID ID='MM_0lb_SNR50_19hz_g40_22.RAW', FMTDAT='(8E13.5)'
 TRAMP=1., VOLUME=1. $END
  3.08276E+05 -1.27013E+03  3.36041E+05  2.53921E+05  8.70277E+04  3.38914E+05 -1.38011E+05  2.48538E+05
 -1.94317E+05  8.11776E+04 -1.11155E+05 -3.45886E+04 -2.11480E+03 -5.27979E+04  5.54071E+04  1.28149E+03
  3.00690E+04  5.24248E+04 -1.72909E+04  7.77320E+04 -5.71123E+04  6.25750E+04 -7.96548E+04  3.57732E+04
 -7.97884E+04 -1.06105E+04 -5.41697E+04 -5.18977E+04 -1.27502E+04 -6.74270E+04  2.21907E+04 -4.53645E+04
  4.31635E+04  6.99661E+03  1.13265E+04  4.65102E+04 -3.23182E+04  4.74687E+04 -6.29311E+04 -2.21844E+03
 -5.22438E+04 -5.69032E+04 -8.93152E+03 -7.10689E+04  3.34403E+04 -5.08098E+04  4.54253E+04 -1.71919E+04
  4.63547E+04  1.10167E+04  2.90734E+04  2.30878E+04  1.64918E+04  3.02605E+04 -9.12016E+03  2.63626E+04
 -2.21540E+04  1.44032E+04 -1.97884E+04 -1.71068E+03  8.57229E+03 -9.69572E+03  1.96773E+04  1.27557E+04
  9.11264E+03  3.24008E+04 -2.74732E+04  3.58083E+04 -6.22117E+04  4.91386E+03 -5.49660E+04 -3.90484E+04
 -1.13738E+04 -6.25126E+04  3.86515E+04 -4.40830E+04  5.36098E+04 -5.52727E+03  3.07278E+04  3.30948E+04
 -1.16034E+04  3.36826E+04 -2.56797E+04  1.08029E+04 -2.19027E+04 -1.36353E+03 -1.26102E+04 -1.47824E+04
 -7.25275E+03 -1.10251E+04 -1.51103E+03 -1.37948E+04  3.49366E+03 -1.87754E+04  1.66393E+04 -1.44511E+04
  1.28742E+04  1.93229E+03 -6.14808E+03  1.51454E+04 -1.72703E+04  1.62490E+03 -9.89230E+03 -3.11367E+04
  2.09046E+04 -3.63952E+04  4.47811E+04 -1.58024E+04  4.00059E+04  1.89768E+04  1.03983E+04  4.14308E+04
 -1.54071E+04  2.85661E+04 -2.38137E+04  2.45703E+03 -7.38408E+03 -2.58342E+04  1.90389E+04 -3.27342E+04
  4.05279E+04 -6.26262E+03  2.83642E+04  1.80314E+04  1.44623E+04  4.21289E+04 -8.68078E+03  4.50287E+04
 -2.86469E+04  2.54140E+04 -3.53196E+04  4.97464E+03 -3.81200E+04 -1.40121E+04 -2.40478E+04 -3.56386E+04
  2.52695E+03 -3.24458E+04  2.79977E+04 -1.42102E+04  2.49553E+04  1.08597E+04  4.46553E+03  1.45079E+04
 -1.22513E+04  4.38498E+03 -7.20099E+03 -7.83397E+03  8.81478E+03 -1.21792E+04  1.63069E+04  8.85547E+03
  1.15786E+04  2.45881E+04 -6.48038E+03  2.27605E+04 -2.05871E+04  1.12827E+04 -2.23718E+04 -3.79353E+03
 -1.44811E+04 -1.26927E+04 -6.02254E+03 -1.78912E+04  1.48601E+03 -1.61242E+04  1.12933E+04 -1.51350E+04
  2.20873E+04 -1.37335E+04  3.04229E+04  6.10461E+02  2.41797E+04  1.51828E+04  4.44225E+02  2.91337E+04
 -1.46707E+04  2.33562E+04 -2.59291E+04  1.12073E+04 -2.11328E+04 -1.31932E+04 -3.88039E+03 -1.26876E+04
  2.52876E+03 -5.13509E+03  2.32593E+03  6.94926E+03 -1.24841E+04  6.94724E+03 -1.54550E+04 -2.44274E+03
 -7.33041E+03 -1.21569E+04  5.63282E+03 -1.82952E+04  1.40354E+04 -1.32202E+04  1.15925E+04  5.90701E+02
  1.10165E+04  9.85018E+03  1.48014E+03  1.43850E+04 -7.08778E+03  9.58882E+03 -1.71778E+04 -2.59184E+03
 -1.05457E+04 -1.18710E+04 -9.26433E+02 -1.79206E+04  7.93231E+03 -1.41212E+04  1.33657E+04 -4.03090E+03
  1.01593E+04 -1.11177E+03  7.07007E+03  6.19814E+03  5.59069E+03  1.25596E+03  4.86940E+03  1.05435E+03
  1.46582E+04  2.04625E+03  1.59117E+04  1.27438E+04  7.40987E+03  2.38143E+04 -3.59032E+03  2.48151E+04
 -1.78418E+04  1.50855E+04 -2.29691E+04  8.47201E+03 -2.10762E+04 -2.37471E+03 -1.78264E+04 -1.30420E+04
 -9.41077E+03 -1.88574E+04  7.62253E+03 -1.84928E+04  1.55274E+04 -3.42685E+03  1.50944E+04  3.75238E+03
  6.82385E+03  8.47737E+03 -7.41230E+03  1.18199E+04 -9.88708E+03 -1.05052E+03 -4.14550E+03 -5.11670E+03
  2.76923E+03 -1.02416E+04  7.89152E+03 -7.29286E+03  6.04834E+03  4.77796E+03 -1.75064E+03  2.91023E+03
 -3.69420E+03  3.24334E+02 -2.39046E+03 -4.02928E+03 -2.92854E+03 -9.17640E+03  8.15043E+03 -1.03048E+04
  1.30060E+04 -3.68363E+03  9.29206E+03  4.99742E+03  7.92943E+03  9.70076E+03  4.01543E+03  1.51031E+04
 -1.58329E+03  1.19780E+04 -6.22823E+03  7.81672E+03 -1.03546E+04  4.16715E+03 -1.01180E+04 -6.22391E+03
 -6.85513E+03  4.21665E+02  6.32640E+03 -2.31293E+03 -3.89955E+03  1.78876E+03 -3.86177E+03  4.28711E+03
 -6.84412E+03  1.88668E+02 -1.07355E+04 -9.47798E+03 -3.81612E+03 -9.98876E+03 -3.18897E+02 -7.91545E+03
  7.60509E+03 -3.86364E+03  7.40981E+03  2.54877E+03 -3.65360E+02 -1.51132E+03 -5.18506E+03  3.14569E+03
 -3.99519E+03 -5.13770E+03  3.41396E+03 -8.59052E+03  4.50717E+03 -7.85463E+03  9.39692E+03 -2.69950E+03
  1.17721E+04 -1.55546E+03  9.58614E+03  6.63538E+03  3.68913E+02  6.61380E+03 -3.74079E+03  2.88989E+03
 -9.38788E+03  4.47559E+02 -1.35299E+03 -1.29173E+03  2.78317E+03  1.72869E+03  2.28770E+03 -2.53719E+03
  5.70956E+03  3.84644E+03 -1.09826E+03  4.96788E+03 -1.41937E+03  7.05414E+03 -7.83816E+03  3.71114E+03
 -7.76374E+03 -2.91635E+03  3.85995E+03 -5.12547E+03  4.79642E+03 -2.88869E+03  2.22125E+03  2.63078E+03
  2.23010E+03  4.16208E+03 -4.26133E+03  3.65801E+03 -7.15013E+03  2.42226E+03 -5.01712E+03  5.67145E+02
 -7.94750E+03 -1.25256E+03  1.45276E+03 -2.58184E+03  8.89592E+03 -7.28477E+03  5.02537E+03 -1.36932E+03
  5.93561E+03  4.05707E+03  1.74087E+03  6.14477E+03 -4.76554E+03  6.45661E+03 -8.42602E+03  9.95697E+02
 -6.66492E+03 -4.70921E+03 -2.37706E+03 -3.26326E+03  3.67549E+03  7.84478E+02  2.87426E+03 -2.40449E+03
  4.15057E+03  1.92076E+03 -2.69319E+03  5.20513E+03  1.26796E+03 -1.20185E+03 -3.56936E+03  2.13835E+03
  4.78914E+03 -4.01274E+02  1.36940E+03 -1.91114E+03  6.80336E+03  1.91032E+03  2.60081E+03  4.49161E+03
  5.93665E+02  6.23410E+03 -3.63245E+03  5.83395E+03 -6.43587E+03  9.07398E+02 -9.98622E+03 -6.11910E+02
  1.70617E+03 -9.09182E+03 -3.00177E+03 -7.13901E+03  3.75900E+03 -5.40374E+02  2.28573E+03 -4.60486E+03
  9.42823E+02  1.92504E+02  2.49136E+03 -5.10207E+03  4.32298E+03  7.92166E+02  3.11893E+03  3.72314E+03
  5.27396E+03  3.45729E+03  4.44045E+03 -4.79634E+02  2.27245E+03  3.82081E+03 -2.55199E+03  7.10072E+02
 -5.60001E+03  1.90594E+02 -1.81805E+03 -3.04683E+03  2.16327E+03 -7.31052E+03  2.00036E+03 -5.51366E+03
  5.81192E+03  1.38462E+03  7.31240E+03 -1.93665E+02  4.93767E+03  1.95295E+03  1.54671E+03  7.43360E+03
  1.17312E+01  4.64637E+03 -4.74683E+03  3.31829E+03 -4.32778E+03 -3.18804E+03 -9.18204E+02 -3.00132E+03
 -1.16312E+03  1.09272E+03 -5.16733E+03  2.66525E+03 -1.98839E+03  1.28479E+03 -3.23867E+03  3.77694E+03
 -4.25902E+03  1.77827E+03  1.55961E+03 -4.70252E+03  2.07018E+03 -2.67363E+03  4.33409E+03 -1.55360E+03
  2.34878E+03  2.51201E+03  2.64540E+02  9.19136E+02 -6.29960E+01  4.76161E+03 -5.55997E+03  3.40216E+03
 -2.95149E+03  5.86841E+03 -1.08844E+03  4.56928E+02 -1.13812E+03 -1.06146E+03  2.40119E+03 -3.51726E+03
  4.62442E+03  4.28380E+02  1.79854E+03 -1.84237E+02  1.85775E+03  2.55449E+03  3.28765E+03 -1.02567E+03
  3.92753E+03 -9.88027E+02 -3.60257E+03 -9.16880E+02  1.29327E+03  4.22584E+03  2.68222E+03 -6.43835E+02
 -1.11126E+03  5.27969E+03 -2.67986E+02  7.28817E+03 -4.81202E+03  2.22534E+02 -5.40597E+03 -1.49553E+03
 -2.18133E+03 -2.26100E+03  4.98827E+02 -5.46363E+03  1.13636E+03 -3.58873E+03  2.00361E+03 -2.71421E+03
  4.77135E+02 -3.14077E+03 -2.32056E+03 -4.15066E+03 -5.49888E+03  2.01473E+03  1.24840E+03 -2.27942E+03
  8.87247E+02 -1.28817E+03  1.78555E+03  3.37184E+03  2.32787E+03  7.61652E+02  6.25884E+03 -1.22689E+03
  1.06848E+03  6.45798E+02 -2.87478E+03 -3.32222E+02  1.16072E+03  3.33286E+03 -1.63491E+03 -1.91783E+03
  9.33385E+02 -2.65495E+03  2.74226E+03  1.87233E+03  3.40709E+03  3.69981E+03  1.36882E+03  4.02117E+03
 -8.18910E+02  1.36841E+03 -2.62493E+03  2.45896E+03  1.94042E+02  6.76171E+02 -1.79106E+03 -7.27729E+02
  3.67435E+02 -2.32578E+03  3.71948E+03 -5.00076E+03 -7.50029E+02  1.97276E+03  6.06357E+02  7.47958E+02
 -1.50093E+03 -1.64120E+03 -1.51582E+03 -4.71722E+03 -2.36980E+03 -3.23289E+03 -1.06576E+03 -2.87001E+03
  1.84906E+03 -2.06465E+02 -2.15296E+03  2.05637E+03  1.18891E+03 -2.25873E+03  1.71731E+03  2.50892E+02
 -2.02037E+03 -1.28797E+03 -3.87001E+03 -3.11286E+03  2.34159E+03 -3.09725E+03 -1.39383E+03 -8.94357E+01
  2.26654E+03 -2.11435E+03  2.55766E+03 -1.84060E+03 -2.68498E+03  1.30577E+03  4.36391E+02 -4.34061E+03
 -9.31222E+02 -1.65876E+03 -2.29447E+03  3.36379E+03  2.46554E+03 -3.57098E+03 -1.67177E+03  9.97086E+02
  2.96649E+03 -3.60734E+03  2.08226E+03  3.31353E+02  2.75368E+02  1.39950E+03  8.46942E+02  1.58096E+03
  2.44673E+03  2.91449E+03 -5.93319E+01  2.13587E+03  2.41747E+02 -1.29729E+03  7.58545E+02  3.70951E+03
 -1.46108E+03  3.34040E+02  2.05571E+03 -3.65745E+03 -2.22613E+03 -1.59894E+03  6.16330E+02 -2.06947E+03
 -5.54696E+02 -2.15994E+03  2.58122E+03 -6.94039E+03  2.61250E+03 -1.54707E+03  1.31885E+03 -7.00290E+01
  6.22153E+02 -2.34156E+03  1.47034E+03  2.25556E+03 -1.26983E+03  2.17851E+03 -5.99844E+03  1.23414E+02
 -3.93496E+03  2.49321E+02 -1.43727E+02  2.73421E+03  2.79806E+03 -7.64237E+02  8.16309E+02  4.18485E+03
  7.83323E+02  3.01647E+03 -1.73195E+03 -2.19577E+03  4.90012E+02  6.05016E+03  4.69499E+03 -1.38687E+03
  2.09369E+03 -1.18389E+03 -3.47481E+03 -8.71270E+02  3.00437E+02 -1.40841E+03  1.90677E+03  7.68601E+02
 -1.97413E+03  5.56038E+03 -4.47302E+03  2.29467E+03  1.41495E+03 -2.97727E+02 -1.61100E+03 -1.41605E+03
 -3.45370E+03  2.05576E+03  1.21550E+03 -3.57001E+03 -1.88178E+03  1.14381E+03  1.83319E+03  3.35692E+03
 -2.18353E+03 -1.11239E+02 -5.09271E+03 -5.38682E+02  2.21561E+03  2.25238E+03 -1.20726E+03 -3.76913E+03
 -1.52866E+03  1.31489E+03 -1.87034E+02 -6.48817E+02 -3.62108E+03  2.58699E+03  5.03370E+02  2.32260E+03
 -4.14813E+03 -3.28721E+02  2.85104E+03 -9.01208E+02 -5.10853E+03  1.91420E+02  1.82593E+02 -2.35198E+03
  3.11697E+03 -1.11843E+03  4.68429E+02 -3.59778E+03  1.03016E+03  1.00807E+03  5.73882E+02  6.19478E+02
 -7.27428E+01 -2.10551E+02 -1.33447E+03  5.66535E+02 -7.36184E+01 -2.35893E+03  2.55935E+03 -4.47304E+03
  2.15343E+03  2.46777E+03  2.91888E+03  9.64745E+02  1.74149E+03  1.76236E+03 -3.44584E+03 -1.45731E+03
 -3.80091E+03 -1.43913E+02  3.29314E+03  2.02661E+03  8.81996E+02 -2.55622E+03 -8.40636E+02  1.90877E+03
  1.55748E+03 -4.63098E+02  3.08152E+03 -4.89482E+02 -1.81244E+03 -5.18704E+03  2.45408E+03 -1.84702E+03
