 $NMID ID='MM_0lb_SNR50_11hz_g60_7.RAW', FMTDAT='(8E13.5)'
 TRAMP=1., VOLUME=1. $END
  3.10922E+05  4.30097E+03  3.36680E+05  2.48916E+05  8.28768E+04  3.39526E+05 -1.31086E+05  2.47989E+05
 -1.92679E+05  9.04623E+04 -1.10295E+05 -2.90510E+04  3.63915E+03 -5.77500E+04  5.13183E+04  3.89676E+03
  3.43766E+04  4.94385E+04 -1.36571E+04  7.21642E+04 -6.04152E+04  6.51944E+04 -8.59545E+04  2.87661E+04
 -7.75878E+04 -1.49614E+04 -6.35641E+04 -5.11365E+04 -1.62117E+04 -6.90474E+04  2.41612E+04 -4.74025E+04
  4.80339E+04  4.53348E+03  9.76161E+03  4.57510E+04 -3.33500E+04  4.61487E+04 -6.37302E+04  7.23757E+03
 -6.00134E+04 -5.36400E+04 -7.38862E+03 -7.64766E+04  3.74603E+04 -6.19775E+04  5.11522E+04 -1.88246E+04
  4.13975E+04  1.30787E+04  3.70553E+04  3.42616E+04  1.43326E+04  3.01487E+04  4.26963E+01  2.80469E+04
 -2.23549E+04  1.64253E+04 -2.31838E+04 -5.91779E+03  4.61740E+03 -3.59836E+03  3.02014E+04  7.25048E+03
  9.79035E+03  3.57262E+04 -3.72760E+04  3.71564E+04 -6.95724E+04 -9.17237E+02 -6.06307E+04 -5.14823E+04
 -1.36229E+04 -6.21734E+04  4.27947E+04 -4.51388E+04  6.53442E+04  5.20257E+03  3.23240E+04  3.80789E+04
 -5.07553E+03  3.81482E+04 -3.16726E+04  1.02642E+04 -3.73742E+04 -9.63487E+03 -1.58348E+04 -1.59927E+04
 -1.09964E+04 -1.60716E+04 -6.08560E+03 -2.88162E+04  8.92010E+03 -2.10853E+04  1.24415E+04 -6.91119E+03
  1.08882E+04  7.24824E+03 -7.32608E+03  1.18038E+04 -2.59013E+04 -1.02114E+04 -6.39759E+03 -4.48820E+04
  2.25692E+04 -4.56361E+04  5.08870E+04 -1.94906E+04  4.66632E+04  1.96609E+04  1.83243E+04  4.70806E+04
 -1.42073E+04  3.88811E+04 -2.19524E+04  3.07077E+03 -1.35830E+04 -3.51466E+04  1.82772E+04 -3.57119E+04
  4.09659E+04 -1.23913E+04  4.32250E+04  2.08074E+04  2.20197E+04  4.96735E+04 -8.20791E+03  6.15126E+04
 -3.28577E+04  3.69766E+04 -4.43613E+04  9.86198E+03 -4.20347E+04 -1.96579E+04 -2.34403E+04 -3.82391E+04
  3.99290E+03 -4.00356E+04  3.34579E+04 -1.93303E+04  3.31493E+04  8.74112E+03  5.51204E+03  2.41470E+04
 -1.63503E+04  1.14502E+04 -9.83714E+03 -5.91207E+03  7.37792E+03 -9.11461E+03  1.87663E+04  5.14160E+03
  1.07050E+04  1.83589E+04 -1.01275E+03  2.82547E+04 -2.65911E+04  1.80644E+04 -2.76156E+04 -6.11473E+02
 -2.46269E+04 -1.87669E+04 -1.31334E+04 -2.28328E+04  4.44771E+03 -2.54707E+04  1.29922E+04 -1.67841E+04
  3.01264E+04 -1.80725E+04  3.35808E+04  5.73869E+03  2.91606E+04  2.41146E+04  5.02231E+03  4.17399E+04
 -2.27954E+04  3.50283E+04 -3.08346E+04  1.22495E+04 -2.02656E+04 -8.12543E+03 -6.69971E+03 -1.48329E+04
  1.19372E+03 -2.62266E+03 -9.64094E+03  1.41069E+04 -2.03839E+04  1.01713E+04 -1.62864E+04 -8.95122E+03
 -1.06999E+04 -2.31785E+04  7.88924E+03 -2.09401E+04  1.82449E+04 -1.85387E+04  1.86358E+04 -3.35482E+03
  1.85353E+04  1.69060E+04 -2.38398E+03  2.57541E+04 -1.61889E+04  1.10302E+04 -2.19033E+04 -6.36360E+03
 -1.21034E+04 -1.97095E+04 -2.90844E+03 -3.23376E+04  5.00341E+03 -2.21986E+04  1.96774E+04 -1.13871E+04
  2.24911E+04  4.83955E+03  1.13835E+04 -2.14287E+03  1.00722E+04  7.35744E+02  1.07827E+04  4.38956E+03
  2.51007E+04  5.23200E+03  2.44098E+04  1.07003E+04  1.00384E+04  3.13537E+04 -5.58328E+03  4.09337E+04
 -2.49020E+04  3.56728E+04 -3.90469E+04  1.49811E+04 -4.37201E+04 -1.27118E+03 -3.71332E+04 -2.55080E+04
 -1.40523E+04 -3.28342E+04  1.18049E+04 -3.38886E+04  2.47070E+04 -1.21568E+04  2.51177E+04  8.34140E+03
  3.79199E+03  1.83511E+04 -7.95592E+03  1.33192E+04 -1.44435E+04  1.39289E+03 -1.13388E+04 -1.88569E+04
 -2.54032E+03 -1.49408E+04  1.37726E+04 -1.47053E+04  1.56886E+04  1.93432E+03  5.85389E+03  5.13982E+03
 -7.30807E+03  5.04145E+03 -8.86921E+03 -1.28899E+04 -2.37300E+02 -2.14747E+04  1.31817E+04 -2.26637E+04
  2.79491E+04 -1.03387E+04  2.49289E+04  2.52478E+03  2.22532E+04  2.07300E+04  9.19208E+03  2.88280E+04
 -4.59858E+03  3.29411E+04 -1.39495E+04  1.61142E+04 -2.27971E+04  1.05556E+03 -8.31752E+03  3.55279E+02
 -4.62764E+03 -6.99848E+03  2.02814E+03 -2.67886E+03 -5.26040E+03 -2.24587E+02 -5.67660E+03  4.53772E+03
 -1.45457E+04 -1.54494E+03 -1.00509E+04 -9.20232E+03 -3.67355E+03 -2.07264E+04  7.43915E+03 -1.43505E+04
  1.50052E+04 -6.59282E+03  8.50511E+03  4.56173E+03  2.42705E+03  8.96417E+03 -7.27061E+03 -4.98479E+03
 -4.45713E+03 -7.05841E+03 -2.93131E+03 -1.56752E+04  1.05291E+04 -1.23996E+04  1.87452E+04 -2.10602E+03
  1.86589E+04  9.47202E+02  1.69653E+04  1.85744E+04  3.48091E+03  1.87332E+04 -7.22619E+03  1.62027E+04
 -1.45628E+04  4.31959E+03 -1.04014E+04 -2.69550E+03  1.43683E+03 -3.28443E+03  1.03202E+04  1.21533E+02
  6.38038E+03  6.63466E+03  1.53108E+03  1.44689E+04 -1.18840E+04  1.01395E+04 -1.20991E+04  1.55451E+03
 -1.19316E+04 -9.43516E+03 -1.49028E+02 -1.50578E+04  4.54768E+03 -5.43180E+03  5.13044E+03  5.81442E+03
  3.10245E+03  6.93088E+03 -9.90929E+03  1.07507E+04 -1.36425E+04  6.16403E+03 -1.37600E+04 -4.06236E+03
 -5.22604E+03 -1.55437E+04  1.14297E+03 -2.30817E+04  1.15184E+04 -1.31487E+04  1.61328E+04 -2.65664E+03
  8.40394E+03  9.15327E+03 -2.53293E+03  1.19369E+04 -1.05247E+04  9.52274E+03 -9.35580E+03 -1.26565E+03
 -7.64531E+03 -6.65498E+03 -6.52655E+03 -1.10942E+04  5.38057E+03 -1.03437E+04  6.00181E+02 -3.01884E+03
  4.42222E+03  3.49250E+03 -6.76929E+02  7.55490E+03 -4.53822E+03 -2.40900E+02  2.57351E+03 -6.27874E+03
  5.80912E+03 -1.01655E+03  1.11719E+04  7.16473E+03  1.66164E+04  1.20609E+04  1.00916E+04  2.78059E+04
 -2.93353E+03  2.21913E+04 -2.21615E+04  1.52539E+04 -2.32979E+04  4.25101E+02 -1.62651E+04 -8.77699E+03
 -1.48967E+04 -1.55967E+04 -4.23278E+02 -1.36479E+04  4.45624E+03 -1.01506E+04  1.23453E+03 -1.94522E+03
  2.68471E+03 -4.25871E+03  1.69870E+03 -1.73219E+03  8.56647E+03 -7.42322E+03  7.65861E+03 -1.19075E+04
  9.41002E+03 -2.34402E+03  2.85873E+03  9.48411E+03 -5.08613E+03  8.41092E+03 -1.56513E+04  9.86186E+03
 -1.09672E+04 -6.75161E+02 -5.25074E+02 -1.18264E+04 -2.94416E+03 -6.45484E+03  5.98097E+03 -1.04479E+04
  1.62325E+04 -7.00476E+03  1.78041E+04  5.45473E+03  8.29865E+03  1.22359E+04 -2.50795E+03  1.87747E+04
 -9.73163E+03  1.13127E+04 -1.96210E+03  3.31851E+03 -7.65596E+03 -3.91501E+03 -1.75980E+02 -1.66475E+02
 -2.26384E+03  2.17958E+03 -6.44034E+03  2.38960E+03 -4.77533E+03  2.34500E+03 -8.53829E+03 -2.92865E+03
 -8.70642E+03 -6.41376E+03  2.32966E+03 -8.24032E+03  6.90818E+03 -1.23929E+04  1.40003E+04 -4.70060E+03
  6.78791E+03  7.95540E+03  4.09258E+03  1.05358E+04 -6.98760E+03  1.10068E+04 -1.19145E+04  8.65137E+03
 -1.29242E+04  6.49056E+03 -7.58946E+03 -1.59151E+04 -3.92126E+03 -1.11234E+04  4.72540E+03 -4.67455E+03
  3.50245E+03 -7.30461E+03  8.29325E+02  2.95723E+03  1.00662E+04  2.90924E+03 -7.71909E+02 -1.59149E+02
  7.45390E+02 -7.32573E+02  2.79865E+03  2.77862E+03  9.42189E+03  3.99127E+03  4.15816E+03  6.99189E+03
 -2.78260E+03  8.84450E+03 -4.59293E+03  1.05816E+04 -1.35877E+04  3.68713E+03 -1.44417E+04 -2.00831E+03
 -7.05272E+03 -1.23949E+04  2.73459E+03 -1.82976E+04  7.44838E+03 -6.16712E+03  8.05713E+03  1.03234E+03
  8.49166E+03  1.86194E+03  4.42712E+03  8.87074E+03  4.55668E+02  4.17446E+03 -4.53256E+03 -2.41200E+03
 -1.65239E+03 -4.31180E+03  7.84082E+03 -7.93685E+03  4.15441E+03 -5.21051E+03  5.70690E+03  2.87982E+03
  3.71101E+03 -2.65892E+03  4.17100E+03  2.85143E+02 -2.32900E+03  8.35038E+02  5.55827E+03 -3.78788E+03
  1.92740E+03  1.78140E+02  4.37650E+03  4.27784E+03  2.60171E+03  7.84746E+03  2.26548E+02  9.46632E+03
 -1.00117E+04  5.22639E+03 -7.77470E+03  6.24731E+03 -8.13935E+03 -1.71497E+03 -4.97958E+03 -9.12561E+03
  1.87474E+03 -7.55619E+03  2.51789E+03 -1.60445E+03  5.78892E+03 -3.42827E+03  2.36336E+03  4.50883E+03
 -5.54941E+03  1.19925E+03 -3.28484E+03 -1.08125E+03 -4.24326E+03 -6.77810E+03  5.77003E+03 -5.75590E+03
  3.51655E+03 -9.95265E+03  2.50899E+03 -4.13402E+03  7.02283E+03 -1.57864E+03  7.25912E+03 -3.10507E+03
 -2.41930E+03  3.15713E+03 -5.80887E+03 -4.18759E+03  8.61432E+02 -5.91138E+03  4.56955E+03 -2.16551E+03
  1.18198E+04 -1.44974E+03  8.15512E+03  3.10576E+03  5.94904E+03  5.45426E+03 -6.27699E+03  8.49908E+03
 -9.62414E+03  2.44803E+03 -5.78987E+03 -1.15853E+03 -3.48899E+03 -6.18584E+03 -3.75684E+02 -4.40095E+03
  4.68704E+03 -4.12735E+03  4.05474E+03 -5.29089E+02  3.09069E+03  3.89160E+03 -3.31155E+03  5.26133E+03
 -5.61549E+03  6.61366E+03  1.94655E+03 -8.03871E+02 -2.99670E+02  4.20964E+03 -1.07370E+04  6.37122E+02
 -1.03152E+03  5.76811E+03 -1.03421E+04  2.64349E+03 -7.97020E+03 -2.09255E+03 -9.69600E+03 -8.07744E+03
 -4.72357E+03 -1.33356E+04 -3.36566E+02 -8.42354E+03  1.42977E+03 -7.20398E+03  7.69080E+03  5.81052E+02
  7.32009E+03  8.04572E+02  1.52198E+03  6.70873E+03  2.69746E+03  9.15054E+03 -2.88488E+03  4.32382E+03
 -4.57852E+03 -6.11722E+02 -1.81342E+01 -5.07519E+03 -8.85897E+02 -9.42938E+02  2.73804E+03  1.85470E+03
 -5.38282E+03 -4.48965E+03  2.03570E+03 -2.71377E+03  9.88731E+02 -5.65059E+03 -4.24385E+03 -2.63028E+03
  1.12662E+04 -4.96301E+03  4.26261E+03 -2.36582E+03  8.81546E+03  7.03089E+03  3.65537E+03  1.55361E+04
 -4.32069E+03  1.03240E+04 -1.44765E+04  4.37693E+03 -1.17305E+04 -4.86486E+03 -5.79639E+03 -5.63494E+03
  3.45884E+03 -1.26771E+04  9.73154E+02 -7.90655E+03  5.25815E+03 -5.10339E+03  7.78748E+03  5.85197E+03
  2.66491E+03 -8.07493E+02  2.23127E+03  6.65518E+03 -3.57011E+03 -4.20187E+03 -1.45001E+03 -3.57059E+02
  1.36895E+03  3.40920E+03  1.09533E+04  3.24030E+03  2.13924E+03 -1.44731E+02 -5.86732E+03  1.07674E+03
  2.98285E+03  1.67399E+03 -6.24389E+03 -5.49718E+02 -5.66017E+03 -1.65168E+03 -1.33651E+03 -7.88921E+03
  6.64046E+03 -2.85518E+03  2.06679E+03 -3.62288E+03  4.09747E+03 -4.60562E+03  1.98079E+03  4.18190E+03
 -2.83431E+03  7.02627E+03 -2.74018E+03  3.73669E+03  8.04286E+02  1.22285E+03  2.08313E+03 -1.66972E+03
 -2.90838E+03  2.38087E+03  3.20031E+03 -3.49296E+03  2.42831E+03 -5.24885E+03 -6.78806E+03  2.67078E+03
 -5.69761E+02 -3.73810E+03 -3.55058E+03 -3.56577E+03  2.82646E+03  2.52275E+03 -5.19122E+02  9.76589E+02
  7.59965E+02 -5.14280E+03  6.04804E+03  5.45736E+03  5.91514E+02  9.20803E+03 -4.73147E+03 -2.48490E+03
