 $NMID ID='MM_0lb_SNR50_7hz_g50_22.RAW', FMTDAT='(8E13.5)'
 TRAMP=1., VOLUME=1. $END
  3.13294E+05 -4.39420E+03  3.35409E+05  2.53690E+05  8.64694E+04  3.34840E+05 -1.34361E+05  2.53440E+05
 -1.87181E+05  8.63203E+04 -1.09674E+05 -3.52200E+04  4.27885E+03 -5.01615E+04  5.67795E+04 -8.60591E+03
  3.63820E+04  5.24485E+04 -1.44482E+04  7.88831E+04 -6.00139E+04  6.30155E+04 -8.78857E+04  3.35530E+04
 -7.83785E+04 -9.97725E+03 -5.37793E+04 -5.06623E+04 -1.48994E+04 -7.45278E+04  3.22993E+04 -5.24822E+04
  3.90823E+04  2.05698E+03  1.80484E+04  5.75798E+04 -3.27312E+04  4.84397E+04 -6.65726E+04  5.55142E+03
 -5.16023E+04 -5.66326E+04 -8.40390E+03 -7.86706E+04  3.07177E+04 -5.91860E+04  5.13862E+04 -1.75667E+04
  4.83514E+04  1.66818E+04  3.12230E+04  2.60136E+04  1.72912E+04  3.66807E+04 -5.73829E+03  2.51009E+04
 -2.32814E+04  1.46457E+04 -1.37233E+04 -5.10509E+03  2.81538E+03 -2.69872E+03  1.74833E+04  1.97791E+04
 -1.74877E+03  4.38730E+04 -3.52832E+04  3.64235E+04 -6.14084E+04 -8.15351E+02 -6.02259E+04 -4.23526E+04
 -1.43720E+04 -6.99665E+04  5.08906E+04 -5.23585E+04  6.27771E+04 -7.32599E+03  3.89254E+04  3.47603E+04
 -6.26988E+03  4.54735E+04 -3.25562E+04  1.99372E+04 -3.74513E+04 -3.23552E+01 -1.94215E+04 -9.08056E+03
 -6.18492E+03 -1.70428E+04 -3.82636E+03 -2.30179E+04  1.36815E+04 -2.12109E+04  1.50395E+04 -1.63161E+04
  1.09051E+04  7.62241E+03 -9.53964E+03  1.56698E+04 -2.28138E+04 -7.65831E+03 -3.46553E+03 -4.04445E+04
  3.06567E+04 -5.11934E+04  4.79051E+04 -2.74132E+04  5.06754E+04  1.93055E+04  1.63557E+04  5.15539E+04
 -2.08196E+04  3.84875E+04 -2.93712E+04 -1.68539E+03 -1.60802E+04 -3.29580E+04  2.14221E+04 -3.73689E+04
  4.87799E+04 -7.96051E+03  3.90050E+04  2.85070E+04  2.07038E+04  5.91155E+04 -5.38184E+03  5.35534E+04
 -3.50023E+04  3.96362E+04 -4.81251E+04  1.63440E+04 -4.81575E+04 -1.98096E+04 -2.47305E+04 -3.62351E+04
  1.68568E+04 -4.11844E+04  4.19305E+04 -2.48527E+04  3.75468E+04  2.20620E+03  9.67578E+02  2.22724E+04
 -1.19308E+04  1.17347E+04 -1.23093E+04 -2.61819E+03  6.21633E+03 -5.77718E+03  2.18263E+04  6.01212E+03
  1.80395E+04  3.03951E+04 -3.16494E+03  2.28280E+04 -2.85810E+04  1.45907E+04 -3.39372E+04 -1.85462E+03
 -3.18930E+04 -1.80439E+04 -2.03008E+04 -3.20896E+04  1.24645E+04 -3.14893E+04  1.53635E+04 -2.31345E+04
  3.39535E+04 -1.54971E+04  3.35371E+04  8.25841E+03  2.88558E+04  2.75498E+04  5.59623E+03  4.16272E+04
 -1.78602E+04  3.61412E+04 -3.93332E+04  5.71629E+03 -2.41249E+04 -1.13716E+04  1.27420E+02 -1.36534E+04
 -8.53350E+03 -4.60276E+03 -1.10816E+04  8.37068E+03 -2.19476E+04  8.42080E+03 -2.13683E+04 -1.49402E+04
 -5.85662E+03 -2.34068E+04 -2.15975E+03 -2.95440E+04  1.75728E+04 -1.39136E+04  1.89900E+04 -3.08881E+03
  1.75735E+04  1.20285E+04 -4.13688E+03  2.07144E+04 -1.27588E+04  1.73614E+04 -2.62680E+04 -3.25916E+03
 -2.55663E+04 -2.59820E+04 -2.29790E+03 -3.47517E+04  1.09958E+04 -2.86668E+04  2.03979E+04 -8.58982E+03
  2.36672E+04  3.45072E+01  1.52003E+04  1.12716E+04  8.65448E+03  3.29740E+03  1.37189E+04  6.60413E+02
  2.39279E+04  1.66208E+03  2.91494E+04  1.88802E+04  2.15152E+04  4.09791E+04  2.03411E+03  4.30107E+04
 -1.96703E+04  4.24979E+04 -4.79370E+04  2.34110E+04 -4.99665E+04 -7.46646E+03 -4.04148E+04 -2.15291E+04
 -1.26044E+04 -4.11712E+04  1.83876E+04 -3.35854E+04  3.77123E+04 -1.48799E+04  2.54526E+04  4.80346E+03
  1.69304E+03  1.55950E+04 -1.14054E+04  1.18821E+04 -2.59224E+04  1.05053E+04 -2.11082E+04 -2.07247E+04
 -4.15305E+03 -1.45388E+04  8.70764E+03 -1.99716E+04  9.76477E+03 -1.87727E+03 -1.16185E+03  1.06533E+04
 -1.30563E+04 -1.79462E+03 -4.81667E+03 -1.28705E+03 -4.62469E+03 -1.52010E+04  8.75908E+03 -3.25134E+04
  2.37464E+04 -1.33854E+04  3.22802E+04  5.58731E+03  2.56418E+04  2.63229E+04  9.96257E+03  2.74941E+04
 -4.72985E+03  3.80375E+04 -2.82433E+04  2.26744E+04 -2.38179E+04  4.51295E+03 -1.17177E+04 -3.27195E+03
 -1.77876E+03 -1.30366E+04 -6.76014E+02  2.02135E+03 -4.28497E+03  2.09089E+03 -1.40618E+04  3.50247E+03
 -2.05706E+04 -6.50077E+03 -2.31764E+04 -1.27713E+04 -4.87308E+03 -2.12347E+04  7.93028E+03 -1.85605E+04
  1.47226E+04 -8.73946E+03  2.96194E+03  1.37187E+03 -5.11474E+03  2.54132E+03 -3.44620E+03 -2.15273E+03
 -5.28320E+03 -5.29601E+03  7.56760E+03 -1.67293E+04  6.36038E+03 -1.79507E+04  2.14358E+04 -1.09135E+04
  3.19970E+04 -1.99373E+03  1.15146E+04  2.24109E+04 -8.08026E+03  2.70916E+04 -8.95163E+03  2.17654E+04
 -1.27122E+04  1.04980E+04 -3.79242E+03 -1.13810E+04 -4.60982E+02 -2.52411E+03  1.33131E+04  6.64248E+02
  2.33234E+03  2.68902E+03 -3.15874E+01  1.45221E+04 -1.23078E+03  1.08087E+04 -1.59448E+04  4.90875E+03
  5.93028E+02 -6.53470E+03  5.91951E+03 -8.79506E+03 -1.96342E+03 -1.74977E+04  1.27731E+04  7.90385E+03
  4.04615E+03  1.14134E+04 -8.56173E+03  1.20121E+04 -1.66804E+04  6.53292E+03 -1.57289E+04 -7.44995E+03
 -6.35632E+03 -2.48368E+04  4.33221E+03 -1.82222E+04  2.09659E+04 -7.78422E+03  1.56718E+04  6.17264E+03
  1.11864E+04  1.14066E+04 -3.70305E+03  2.09198E+04 -7.66083E+03  1.21701E+04 -1.92412E+04 -4.25074E+03
 -4.07569E+03 -9.69183E+03  4.35239E+03 -6.70719E+03  6.68634E+03 -1.31920E+04  1.40939E+04 -5.05491E+03
  7.69960E+03  3.08891E+03 -3.47868E+03  4.06607E+03  8.02627E+03  3.24180E+03  6.84869E+03 -1.61139E+04
  2.01401E+04 -2.36689E+03  1.69283E+04  1.42292E+02  2.38734E+04  1.18627E+04  8.64284E+03  2.81613E+04
 -3.41185E+03  3.11163E+04 -2.70894E+04  1.81030E+04 -2.97622E+04 -6.71710E+03 -3.24711E+04 -1.26525E+04
 -1.43310E+04 -2.66031E+04  1.25328E+03 -1.45908E+04  6.62146E+03 -4.99117E+03  1.04141E+04 -7.18746E+03
  6.22485E+03 -7.17348E+03  8.41620E+03 -1.66789E+03  5.32001E+03 -6.93532E+03  9.26782E+03  3.22074E+03
  1.09914E+04  1.72590E+03  2.07346E+03  1.12977E+04  7.09996E+02  1.48503E+04 -1.57060E+04  1.63946E+04
 -1.63425E+04  3.80359E+03 -1.33475E+04 -1.84304E+04 -6.27718E+03 -1.85081E+04  1.10374E+04 -1.92374E+04
  1.55031E+04 -1.21720E+04  2.55648E+04  8.91385E+03  1.82892E+04  2.16452E+04  3.26308E+02  1.76014E+04
 -1.20459E+04  1.76819E+04 -1.60622E+04 -1.71974E+03 -1.58840E+04 -3.97599E+03 -7.07554E+02 -1.36729E+03
  4.32211E+03  1.41830E+03 -9.06566E+03  1.08658E+04 -6.55160E+03  1.41536E+03 -1.55830E+04 -3.78505E+03
 -8.93597E+03 -1.49309E+04 -1.39931E+03 -1.93785E+04  9.95455E+03 -1.44783E+04  1.65234E+04 -4.54394E+03
  2.21356E+04  5.12368E+03  1.34774E+04  1.50155E+04 -2.28842E+03  1.60872E+04 -7.05252E+03  1.05208E+04
 -2.44657E+04  8.70423E+03 -1.68532E+04 -1.41492E+04 -4.76136E+02 -2.35463E+04  7.19454E+03 -1.90521E+04
  1.07554E+04 -9.19842E+02  9.33748E+03  8.00346E+03  2.87145E+03  7.59043E+03  2.61477E+03  2.53226E+03
  7.31576E+03 -7.62172E+03  8.28473E+02  5.49271E+03 -4.78633E+03  1.29846E+04  2.33313E+03  4.45039E+03
 -4.81728E+03  1.46729E+04 -1.09545E+04  8.75917E+03 -1.84388E+04  1.08466E+04 -1.53508E+04 -9.88629E+02
 -8.15859E+03 -2.75324E+04 -2.33703E+03 -2.61507E+04  1.43031E+04 -1.03243E+04  1.59544E+04 -3.55045E+03
  1.93413E+03 -2.62944E+02  3.70894E+03  1.35045E+04 -2.33105E+03  3.19334E+03 -1.07230E+04  6.94857E+01
  1.86493E+02 -7.46517E+03  1.53458E+02 -3.73760E+03  6.54362E+03 -1.20013E+04  1.13703E+04  7.20844E+03
  2.92690E+03 -1.70694E+03  5.56551E+03  1.26657E+03  7.38696E+03 -2.33876E+03 -2.58879E+03  6.69146E+01
 -4.12006E+02 -1.48626E+03  3.40480E+03 -8.63620E+02  6.56829E+03  5.13000E+03  2.05181E+03  1.47338E+04
 -7.35380E+03  4.34539E+03 -1.20502E+04 -3.78360E+02 -9.76039E+03 -1.20401E+03 -6.00972E+03 -1.27680E+04
  3.75451E+03 -1.16619E+04  9.56618E+03 -5.95252E+02  7.51569E+03  9.39202E+03 -7.14111E+02  1.06929E+04
 -5.18636E+03 -1.29447E+03 -7.42209E+03 -1.38297E+04 -2.23696E+03 -5.43902E+03 -2.74624E+03 -1.56951E+04
  8.14824E+03 -6.32160E+03  5.30022E+03 -4.26143E+03  7.53252E+03  3.15836E+03  8.51971E+02  1.27330E+03
 -8.84410E+03  7.19689E+03 -9.01444E+01 -2.77464E+03  3.90992E+03 -1.07085E+04  4.98367E+03 -4.42398E+03
  1.51365E+04  7.72390E+03  1.47436E+04  1.14985E+04  6.90959E+03  1.76651E+04 -9.54934E+03  1.55289E+04
 -8.86553E+03  1.02234E+04 -1.20824E+04  1.51501E+03 -7.37728E+03 -1.17841E+04  6.21595E+03 -2.57667E+03
  7.85647E+03 -2.55156E+03  3.51719E+03  3.29980E+03 -4.17805E+03  1.58558E+04  2.99272E+03  7.04814E+03
 -9.17271E+03  2.00665E+03 -1.02289E+04 -6.19778E+02  1.11035E+03 -3.13163E+03 -6.77709E+03  4.89756E+03
 -2.79565E+03  5.15651E+03 -8.03501E+03  9.46752E+03 -6.13870E+03 -4.10994E+03 -1.32900E+04 -7.03099E+03
 -8.47594E+03 -2.01425E+04  4.51751E+03 -1.35043E+04  1.16046E+04 -2.04350E+04  2.15764E+04 -7.46170E+03
  2.38666E+04  6.46938E+03  5.66049E+03  1.79957E+04  8.47804E+03  1.73368E+04 -1.18793E+04  1.32720E+04
 -1.43144E+04 -6.84388E+02 -2.03500E+03 -5.37000E+03 -2.74260E+03  3.48055E+03  3.94787E+03 -3.24411E+03
 -3.91240E+03 -3.14122E+03 -1.15036E+04 -6.08829E+03  1.04055E+03 -1.46806E+03  2.14093E+03 -1.77742E+03
  1.11793E+04 -4.78902E+03  1.56917E+04  4.60600E+02  1.10336E+04  8.00664E+03  1.84141E+03  1.79574E+04
 -1.46382E+04  2.01951E+04 -1.26614E+04  2.99900E+03 -1.88350E+04 -1.60977E+03 -2.43433E+04 -1.78950E+04
 -8.55433E+03 -1.46956E+04 -2.31911E+03 -1.20742E+04  1.22900E+04 -9.50705E+03  1.24050E+04 -1.15807E+04
 -8.92950E+02 -5.35328E+03  4.76434E+03  2.14122E+03 -3.19629E+02  8.00283E+03  4.41864E+03 -5.82168E+03
  6.27264E+03 -8.47826E+03  4.95491E+03  3.10329E+03  6.92249E+03  4.75533E+03 -7.18584E+02  1.02332E+04
 -7.77262E+03  2.08184E+03 -6.52375E+03 -5.37051E+02 -1.08324E+04 -5.42583E+03  5.13557E+03 -1.00510E+04
  2.96020E+03 -1.33964E+04  7.75055E+03 -8.23878E+03  6.36869E+03  5.17668E+03  8.53401E+03  3.91207E+03
  5.22862E+03  1.06959E+04 -4.09495E+03  1.49949E+04 -4.01548E+03  2.78411E+03 -4.30010E+03  5.16786E+03
 -2.80601E+03 -7.70022E+03 -2.91758E+03 -3.16055E+03 -3.10176E+02  8.95568E+03 -7.72269E+03  1.12303E+03
 -8.08144E+03 -2.94605E+02 -2.56252E+02 -8.58359E+03  5.93460E+02 -1.47224E+04  6.94845E+03 -1.90553E+03
  3.75896E+03 -6.07382E+03  5.74441E+03  1.14603E+04 -5.70622E+03  8.34867E+03 -7.01377E+03  2.88129E+03
