 $NMID ID='MM_0lb_SNR50_12hz_g60_63.RAW', FMTDAT='(8E13.5)'
 TRAMP=1., VOLUME=1. $END
  3.06673E+05 -3.21785E+02  3.38495E+05  2.54199E+05  8.72408E+04  3.38693E+05 -1.22747E+05  2.53651E+05
 -1.92349E+05  7.99464E+04 -1.11048E+05 -3.70782E+04  1.21961E+03 -5.27928E+04  5.29777E+04  2.80500E+03
  3.42788E+04  4.95338E+04 -1.48013E+04  7.89941E+04 -6.25065E+04  6.41991E+04 -8.49259E+04  3.07568E+04
 -8.34707E+04 -1.47169E+04 -5.63267E+04 -5.01614E+04 -1.44495E+04 -6.61085E+04  3.20354E+04 -5.32278E+04
  3.93042E+04 -2.10592E+03  1.15396E+04  4.18381E+04 -3.52458E+04  5.04136E+04 -6.97410E+04  3.36319E+03
 -5.08846E+04 -5.21444E+04 -7.30127E+03 -7.73608E+04  3.59123E+04 -5.51258E+04  4.65906E+04 -1.78710E+04
  4.73566E+04  1.20795E+04  3.44240E+04  2.38228E+04  1.61740E+04  2.73849E+04 -8.97338E+03  2.48090E+04
 -2.23951E+04  1.17103E+04 -2.23985E+04 -5.63761E+03  8.48749E+03 -2.92257E+03  2.42126E+04  1.97225E+04
  4.86222E+03  3.37152E+04 -3.48695E+04  3.71078E+04 -6.53441E+04  1.59881E+03 -6.12531E+04 -4.11565E+04
 -1.43885E+04 -6.75539E+04  3.75846E+04 -4.64369E+04  5.95321E+04 -4.02351E+03  3.26433E+04  3.54094E+04
 -7.68085E+03  3.65380E+04 -3.14084E+04  2.06460E+04 -2.76721E+04 -7.64292E+03 -1.68193E+04 -1.09612E+04
 -6.83179E+03 -1.78207E+04  1.16334E+03 -1.94824E+04  1.25688E+04 -2.39616E+04  1.83772E+04 -1.10400E+04
  1.05343E+04  1.03795E+04 -1.11156E+04  1.20268E+04 -2.44571E+04 -6.37106E+03 -4.04938E+03 -3.77199E+04
  2.19293E+04 -4.15856E+04  5.20915E+04 -2.20373E+04  4.63808E+04  2.10739E+04  1.82599E+04  4.59620E+04
 -1.97928E+04  3.77890E+04 -2.49381E+04  6.97280E+02 -1.01341E+04 -2.81063E+04  1.99711E+04 -3.76523E+04
  3.95802E+04 -1.02149E+04  4.02576E+04  2.94450E+04  1.76830E+04  5.12678E+04 -1.18974E+04  5.33570E+04
 -3.70772E+04  3.64083E+04 -4.56701E+04  6.82442E+03 -4.53899E+04 -1.93121E+04 -2.75410E+04 -4.37182E+04
  1.10910E+04 -3.97666E+04  3.09646E+04 -2.06650E+04  3.38455E+04  1.84624E+04  4.14018E+03  2.31800E+04
 -1.46413E+04  1.43841E+04 -1.13374E+04 -1.09973E+04  7.37204E+03 -4.39832E+03  1.84011E+04  6.04251E+03
  1.35073E+04  2.73493E+04 -3.97889E+03  2.33829E+04 -2.10276E+04  1.23632E+04 -3.12336E+04 -1.61383E+03
 -2.35614E+04 -1.78432E+04 -4.69086E+03 -2.82273E+04  4.41636E+03 -2.05101E+04  2.13198E+04 -2.37824E+04
  3.20493E+04 -1.31034E+04  3.84509E+04  5.25038E+03  2.29345E+04  1.92985E+04  8.85951E+03  4.31544E+04
 -2.45582E+04  3.15377E+04 -3.22437E+04  1.17860E+04 -2.15241E+04 -1.78028E+04 -5.84562E+03 -1.35856E+04
  5.22718E+03  9.04500E+02 -9.97925E+02  5.67538E+03 -1.35381E+04  5.40357E+03 -2.14049E+04 -9.78713E+03
 -9.78289E+03 -2.30021E+04  5.75524E+03 -2.77516E+04  2.24788E+04 -2.09293E+04  2.36207E+04  8.12574E+03
  6.66187E+03  1.55787E+04 -3.29928E+03  2.07906E+04 -1.62064E+04  1.10625E+04 -1.68643E+04 -4.69591E+03
 -1.69866E+04 -1.90402E+04 -1.88868E+03 -2.43477E+04  1.66169E+04 -2.47092E+04  2.44333E+04 -1.37167E+04
  1.92481E+04 -1.28090E+03  1.77078E+04  3.85429E+03  1.01296E+04  1.66562E+02  1.67332E+04 -2.21616E+03
  1.92802E+04  4.28903E+03  2.60927E+04  1.40935E+04  1.79471E+04  3.13904E+04 -3.02301E+03  3.69831E+04
 -2.07267E+04  3.35528E+04 -3.79922E+04  1.83362E+04 -4.18496E+04 -3.66865E+03 -3.75209E+04 -2.80618E+04
 -1.47499E+04 -3.43255E+04  1.04055E+04 -3.50967E+04  2.31940E+04 -1.52279E+04  2.52766E+04  6.26779E+03
  4.72871E+03  1.61960E+04 -1.15004E+04  1.64558E+04 -1.98417E+04  2.79604E+02 -1.45336E+04 -8.38733E+03
 -1.22135E+03 -1.74051E+04  1.37771E+04 -1.24448E+04  1.77457E+04 -1.27826E+03 -1.40335E+03  7.13880E+03
 -7.54199E+03  4.19702E+03 -8.21211E+03 -5.39450E+03 -4.48746E+03 -1.72267E+04  1.54486E+04 -1.71134E+04
  2.31266E+04 -5.61101E+03  2.25066E+04  6.18980E+03  2.16838E+04  1.88206E+04  1.23661E+04  2.18147E+04
 -6.04750E+03  2.88361E+04 -2.36761E+04  1.40229E+04 -1.83922E+04  3.82962E+03 -1.40765E+04 -7.13274E+03
 -6.46714E+03 -5.92903E+03  3.03284E+03 -9.24150E+03 -6.48162E+02  3.01697E+03 -9.90142E+03  5.00468E+03
 -1.26015E+04 -2.69459E+03 -1.47693E+04 -1.16782E+04 -1.74827E+03 -1.79753E+04  8.06376E+03 -1.61974E+04
  9.40301E+03 -2.94186E+03  7.56413E+03  7.25755E+03  1.26637E+03  4.84733E+03 -6.22536E+03 -2.02953E+03
 -1.99309E+03 -6.11606E+03 -1.13330E+03 -9.62676E+03  4.44883E+03 -1.74475E+04  1.63383E+04 -7.12682E+03
  2.48052E+04  7.78290E+03  1.93764E+04  1.63995E+04  2.42127E+03  1.20351E+04 -6.48823E+03  8.67034E+03
 -1.09058E+04  6.47085E+03 -8.99796E+03 -3.45020E+03  2.88053E+03  1.83840E+03  8.52141E+03 -2.28072E+03
  1.29784E+04  6.11652E+03  7.59195E+02  1.40109E+04 -7.74850E+03  9.74153E+03 -1.29453E+04  5.13428E+03
 -1.37281E+04 -7.09781E+03 -7.29412E+02 -1.10956E+04  7.74583E+03 -1.08225E+04  8.78971E+03  6.81128E+03
  3.82311E+02  1.07630E+04 -7.48296E+03  8.11940E+03 -9.08764E+03  5.21942E+03 -1.15930E+04 -1.45578E+03
 -6.00398E+03 -1.19308E+04  6.93101E+03 -1.50217E+04  8.51615E+03 -1.02099E+04  1.35651E+04 -2.28080E+03
  1.08537E+04  1.13673E+04 -1.43199E+03  8.72879E+03 -7.61753E+03  6.23497E+03 -8.32372E+03 -1.53899E+03
 -1.11259E+04 -1.21599E+04  1.89961E+03 -9.76580E+03  5.88360E+03 -8.34473E+03  9.23568E+03 -1.18038E+03
  7.18031E+03 -5.30789E+03 -5.36689E+03 -5.17198E+02  5.70189E+01 -9.27529E+02  6.12029E+03 -4.83706E+03
  6.26533E+03  3.76723E+03  1.08663E+04  3.93175E+03  9.07427E+03  7.37019E+03  8.43460E+03  1.75777E+04
 -1.70317E+03  1.58817E+04 -1.83552E+04  1.73022E+04 -2.27515E+04  5.60817E+03 -1.43284E+04 -3.87356E+03
 -9.97105E+03 -1.76965E+04 -2.25788E+03 -1.10147E+04  7.91073E+03 -9.31560E+03  1.45558E+04 -2.51854E+03
  3.75651E+03  3.31492E+02  5.08404E+03  5.94185E+03 -3.25291E+02  2.99447E+03  5.06649E+03 -5.03384E+03
  1.15122E+04  2.34455E+03  3.90238E+03  1.06423E+04 -4.64827E+03  1.00095E+04 -1.08537E+04  7.70370E+03
 -1.69535E+04 -3.21920E+03 -1.15197E+04 -3.15938E+03  7.98101E+02 -1.80636E+04  7.14686E+03 -1.56017E+04
  1.53600E+04 -1.19620E+03  1.03394E+04  2.69166E+03  8.62837E+03  1.02207E+04  6.46048E+03  1.89459E+04
 -1.13623E+04  1.12657E+04 -3.68156E+03  3.32592E+03 -8.02906E+03 -2.66421E+03  1.01712E+03 -1.69129E+03
 -4.87995E+03 -4.40673E+03 -1.72126E+03 -1.03804E+03 -3.88669E+03 -1.61732E+03 -4.98824E+03  2.33422E+03
 -3.72839E+03 -5.50593E+03 -3.02460E+03 -8.39448E+03  2.70687E+03 -1.22649E+04  1.17827E+04 -3.39748E+02
  1.20807E+04  8.36603E+03  1.08710E+03  4.45676E+03 -3.19699E+03  1.15624E+04 -1.02019E+04  7.09479E+03
 -6.93143E+03 -3.80981E+02 -1.03963E+03 -7.20417E+03 -1.31776E+02 -9.67512E+03  2.74931E+03 -7.54015E+03
  1.62711E+03  7.43035E+02  3.57344E+03  7.02175E+03  5.18214E+03 -7.98830E+02 -4.65485E+03  7.86735E+02
 -3.05330E+03  4.68729E+02  4.08133E+03  1.08120E+03  6.62642E+03 -2.42091E+03  2.17517E+03  9.29494E+03
 -4.96610E+03  3.93370E+03 -1.07826E+04  1.11423E+04 -1.09400E+04  3.59157E+03 -1.35646E+04 -9.54259E+03
 -1.67086E+03 -1.41866E+04  4.31500E+03 -1.18471E+04 -5.15584E+02 -5.49954E+03  4.88826E+03 -1.10463E+04
  5.45965E+03  5.54894E+03  3.52317E+03  1.04777E+04 -2.88653E+02  5.08322E+03 -4.18482E+03 -5.94333E+02
 -5.04802E+03 -3.57302E+03 -2.00422E+01 -7.83039E+03  8.22287E+03  2.62092E+02  6.76375E+03  1.78104E+03
  4.71333E+03 -7.06133E+02 -4.62801E+02 -7.00279E+03 -4.84239E+03  2.20251E+03 -1.16115E+03 -9.59380E+02
  3.42463E+03  2.24269E+03  1.76629E+03  2.98241E+03 -1.74350E+03  4.11310E+03 -1.79358E+03  3.90883E+03
 -4.56648E+03  3.68485E+03 -1.04185E+04  7.83836E+02 -2.29082E+03 -1.52205E+03 -4.44908E+03 -3.47276E+03
 -3.47276E+03 -3.59374E+03 -4.30213E+03 -4.33179E+03  1.67505E+03 -7.69524E+02 -2.98933E+03  2.14122E+03
 -9.56751E+03  1.60968E+03 -2.47666E+03 -6.51279E+03 -2.41579E+03 -5.96762E+03  4.02893E+01 -7.64574E+03
  5.22897E+03 -2.29240E+03  3.22627E+03 -1.49322E+03  3.82047E+03  4.95432E+03  3.53794E+03  6.63881E+03
 -2.30309E+03  2.76730E+03 -3.80943E+03 -4.50448E+03 -1.96120E+03 -3.00560E+03  6.89000E+03 -1.86093E+03
  1.10581E+04 -1.32182E+03  1.96497E+03  2.38927E+03  1.66655E+03  9.76562E+03 -2.65331E+03  7.07034E+03
 -7.24475E+03  8.19678E+02 -1.06652E+04 -2.17577E+03  2.84420E+03 -6.03263E+03  4.07862E+03 -3.10343E+03
  3.68736E+03 -2.33940E+02  4.83497E+03  2.71557E+03  3.85201E+03 -3.84907E+02 -4.63789E+03  6.15380E+03
  3.46230E+03  4.71830E+03 -2.76040E+03 -1.35733E+03  3.26848E+02  3.98810E+03 -8.50281E+02  9.05657E+03
 -4.33512E+02 -3.71268E+03 -5.22490E+03  4.78882E+03 -1.24614E+04  4.87047E+03 -9.42711E+03 -6.79185E+03
 -7.11821E+03 -2.13373E+03  2.26695E+03 -6.98296E+03  5.25917E+03 -1.10976E+04  8.23878E+03 -8.38523E+02
  9.31899E+03  4.44130E+03  2.99076E+03  3.45211E+03 -2.45175E+03  4.36402E+03 -2.53906E+03  8.61208E+03
 -3.09569E+03  3.73133E+03 -2.51373E+03 -1.36516E+03 -2.11391E+03  3.59406E+02  5.49223E+02  1.02199E+03
 -8.55295E+02 -1.87118E+02 -5.98930E+03  9.87251E+02 -9.25661E+02 -5.51134E+03  5.60595E+03 -1.87961E+03
  3.26505E+03 -2.08034E+03  2.96766E+03 -2.45454E+03  6.73529E+03  5.21519E+03  1.22546E+03  5.28685E+03
 -1.56590E+03  3.70652E+03 -9.87954E+03  7.23450E+03 -4.88299E+03  2.34734E+03 -4.22178E+03 -2.17335E+03
 -1.38590E+03 -7.20560E+03 -3.20423E+03 -2.24067E+03 -2.71587E+03 -8.55403E+02  5.69240E+03 -3.71611E+02
 -3.47559E+03  9.14375E+02 -4.81121E+03  4.52144E+03  5.11910E+03 -2.49976E+03 -4.16604E+02  2.63152E+02
  3.56585E+03  6.83114E+02  9.22610E+03  2.28515E+03  4.76929E+02  4.06185E+03 -2.60634E+03  3.89281E+03
 -2.05392E+03  6.55647E+03 -5.76539E+03  1.28374E+03 -6.41576E+03 -1.48056E+03 -4.82933E+03 -6.78599E+03
  4.62454E+02 -5.64329E+03  1.20272E+02 -3.92849E+02  7.86994E+02  2.42114E+03  5.89104E+02  1.57287E+03
  2.21138E+03  4.91575E+03  1.13811E+02  7.76785E+03 -2.27611E+03 -1.13798E+02 -2.92908E+03 -3.14189E+03
 -3.60445E+03 -6.97256E+03 -6.21888E+03  3.13752E+03  4.85471E+03 -1.82822E+03  6.54138E+01 -4.00559E+03
 -3.76270E+03 -4.88790E+03 -1.05349E+03 -7.00125E+03  2.78656E+03 -1.99870E+03  4.53045E+03  3.47677E+02
  3.14491E+03 -5.37004E+03  3.59478E+03  1.24410E+03  1.94277E+02  7.65493E+02 -1.33998E+03  2.22797E+03
