 $NMID ID='MM_0lb_SNR50_17hz_g60_98.RAW', FMTDAT='(8E13.5)'
 TRAMP=1., VOLUME=1. $END
  3.04876E+05 -1.27146E+03  3.37200E+05  2.49096E+05  8.44815E+04  3.40089E+05 -1.35014E+05  2.49608E+05
 -1.93743E+05  8.47207E+04 -1.10290E+05 -3.42854E+04 -2.63727E+03 -5.12922E+04  5.57374E+04  5.09411E+01
  3.54345E+04  5.20276E+04 -1.76999E+04  7.59992E+04 -5.86933E+04  6.85106E+04 -8.31734E+04  3.64983E+04
 -8.40269E+04 -7.39737E+03 -5.53523E+04 -5.29906E+04 -1.30802E+04 -6.61502E+04  2.71553E+04 -4.97698E+04
  4.22101E+04  2.60853E+02  1.77401E+04  5.00364E+04 -2.97065E+04  5.05285E+04 -6.90418E+04 -3.41498E+03
 -5.18988E+04 -5.73944E+04 -9.36789E+03 -7.90320E+04  3.31781E+04 -5.49091E+04  4.67395E+04 -1.89106E+04
  4.44802E+04  1.50447E+04  3.17258E+04  2.57514E+04  1.81024E+04  2.61834E+04 -3.47448E+03  3.12859E+04
 -2.07521E+04  1.45132E+04 -2.35152E+04 -4.60155E+03  9.01154E+03 -1.05034E+04  2.34229E+04  1.01543E+04
  1.02773E+04  3.39283E+04 -3.24963E+04  3.64751E+04 -6.20695E+04 -2.01624E+02 -6.01679E+04 -4.74792E+04
 -1.26113E+04 -6.58258E+04  3.96882E+04 -4.43158E+04  6.10021E+04 -7.45769E+03  3.12531E+04  3.17202E+04
 -7.60871E+03  3.60468E+04 -3.12363E+04  1.25951E+04 -2.99548E+04 -3.91293E+03 -1.70922E+04 -7.92387E+03
 -8.32752E+03 -1.61086E+04 -2.54925E+03 -2.03137E+04  7.60738E+03 -1.85264E+04  1.51589E+04 -1.75532E+04
  7.88017E+03  3.51850E+03 -1.19237E+04  8.28809E+03 -2.17078E+04  1.71628E+03 -9.81495E+03 -3.11860E+04
  2.46264E+04 -4.27712E+04  4.56016E+04 -1.69871E+04  4.40269E+04  2.13909E+04  1.22954E+04  3.75513E+04
 -1.54758E+04  3.22499E+04 -2.53338E+04  2.31434E+03 -8.35355E+03 -2.33430E+04  2.16253E+04 -3.19924E+04
  3.55184E+04 -6.12579E+03  2.95861E+04  2.03965E+04  1.62147E+04  4.26951E+04 -7.13059E+03  4.38221E+04
 -2.86527E+04  3.22936E+04 -4.05479E+04  1.19182E+04 -4.02022E+04 -1.39762E+04 -2.36119E+04 -3.73706E+04
  5.68243E+03 -3.64979E+04  3.23618E+04 -1.19009E+04  2.56360E+04  1.07088E+04  2.24378E+03  2.05392E+04
 -1.22576E+04  5.17656E+03 -1.22896E+04 -5.77527E+03  4.39237E+03 -9.61427E+03  1.80544E+04  8.16653E+03
  1.58815E+04  2.43996E+04 -5.96923E+03  2.46427E+04 -2.48317E+04  1.27644E+04 -2.37704E+04 -7.87166E+03
 -2.22893E+04 -1.30739E+04 -6.32541E+03 -1.83634E+04  3.57575E+03 -2.08237E+04  1.88750E+04 -1.79400E+04
  2.47142E+04 -1.26567E+04  3.23961E+04  1.73791E+03  2.55937E+04  1.86583E+04  3.22094E+03  3.51303E+04
 -1.76263E+04  2.34335E+04 -2.75656E+04  1.05465E+04 -2.54142E+04 -1.32029E+04 -4.60951E+03 -1.26167E+04
  6.75135E+03 -2.50924E+03 -6.71830E+03  6.32964E+03 -1.06519E+04  9.89975E+03 -1.44662E+04 -2.60212E+03
 -8.39550E+03 -1.96958E+04  6.12595E+03 -2.19306E+04  1.36805E+04 -1.68324E+04  1.56188E+04 -1.11169E+03
  1.22735E+04  9.04717E+03 -6.82395E+02  1.81101E+04 -8.94437E+03  8.32740E+03 -2.32068E+04 -5.91937E+03
 -1.58138E+04 -1.84540E+04 -4.12724E+03 -1.99937E+04  1.31688E+04 -1.75040E+04  2.05564E+04 -5.38712E+03
  1.44525E+04  1.11841E+03  9.29287E+03  5.03546E+03  2.40825E+03  1.20801E+03  1.29254E+04 -2.25813E+03
  1.95818E+04  5.20978E+03  2.64094E+04  1.09224E+04  8.78125E+03  2.62002E+04 -4.62888E+03  2.85445E+04
 -1.79301E+04  2.59009E+04 -2.67902E+04  1.14570E+04 -2.90470E+04 -7.16048E+03 -2.70445E+04 -1.75100E+04
 -1.57605E+04 -2.73225E+04  4.97105E+03 -2.40938E+04  1.97905E+04 -1.01915E+04  1.70243E+04  5.84567E+03
  3.82464E+03  1.89521E+04 -5.53601E+03  9.56953E+03 -1.66141E+04 -1.24127E+03 -1.19618E+04 -1.31437E+04
  1.73170E+03 -1.12155E+04  6.28574E+03 -5.83292E+03  1.00528E+04  6.25891E+02 -2.46465E+02  4.89595E+03
 -5.94588E+03  2.72610E+02 -4.99933E+03 -4.55372E+03  6.70017E+03 -8.52855E+03  7.93598E+03 -1.32525E+04
  1.16249E+04 -4.16357E+03  1.69238E+04  2.40585E+03  1.55883E+04  1.19032E+04  8.99804E+03  1.84976E+04
  6.02385E+02  2.03705E+04 -1.22636E+04  1.26103E+04 -1.44581E+04  1.23858E+03 -7.88308E+03 -3.27628E+03
 -4.01765E+03 -3.70053E+03 -2.57667E+03  3.62892E+03 -1.48734E+03  6.24360E+03 -3.83332E+03  2.48458E+03
 -6.18051E+03 -6.21971E+03 -7.54267E+03 -7.11740E+03 -5.35938E+03 -1.15721E+04  3.57100E+03 -1.29504E+04
  5.43521E+03 -2.53982E+03  5.88557E+03  4.11199E+03 -1.18618E+03  6.50941E+02 -5.39079E+03 -1.65479E+03
 -1.72431E+03 -5.62728E+03  3.64762E+03 -8.58696E+03  4.34814E+02 -1.20655E+04  1.28897E+04 -5.51371E+03
  1.83921E+04 -2.26817E+03  1.07784E+04  4.61312E+03  1.46020E+03  8.04336E+03 -3.18795E+03  1.64509E+04
 -8.46975E+03  3.03011E+03 -8.47210E+03  1.31701E+03 -8.76945E+02 -3.49133E+03  4.14430E+03  2.51155E+03
  4.14940E+03  5.59381E+03  3.21595E+02  1.05063E+04  1.08203E+03  7.54488E+03 -9.31691E+03  2.69715E+03
 -2.60655E+03 -7.73052E+03  2.61466E+03 -9.20254E+03  2.02807E+03  7.95039E+02  5.40555E+03  1.85596E+03
  4.22535E+03  1.07471E+04 -3.37979E+03  9.57913E+03 -4.64910E+03  6.47412E+03 -7.88563E+03 -9.53592E+01
 -5.97289E+03 -1.11498E+04 -1.43737E+03 -7.00314E+03  8.53087E+03 -3.90751E+03  9.47226E+03  3.11177E+03
  6.21652E+03  7.76513E+03 -3.12899E+02  9.64117E+03 -8.38050E+03  1.17560E+04 -5.41192E+03  4.97478E+02
 -5.28279E+03 -9.15895E+03 -5.48063E+03 -4.33188E+03  7.97806E+03 -5.42624E+03  8.32176E+03 -6.16198E+03
  7.42627E+03  3.72488E+03 -4.71144E+03  1.85287E+03  1.56485E+03 -1.05023E+03  3.93675E+02 -1.65754E+03
  6.39244E+03 -1.79572E+03  7.18470E+03 -3.90851E+03  6.65814E+03  1.50059E+03  6.05896E+03  1.25229E+04
 -6.81743E+03  1.07266E+04 -6.29544E+03  6.32893E+03 -1.49487E+04  1.69353E+03 -9.45497E+03 -3.78930E+03
 -6.25938E+03 -8.33985E+03  3.85861E+03 -6.77423E+03  2.87879E+03  1.09198E+02  1.79196E+03 -1.14185E+03
 -3.64825E+03 -2.76125E+03  6.41473E+03  7.93252E+02 -4.25593E+01 -6.48559E+03  8.36968E+03 -1.65787E+03
  5.13506E+03 -4.08087E+03 -2.63693E+03  3.22313E+03 -1.66559E+03  2.43344E+03 -5.21641E+03  2.82271E+03
 -8.02196E+03 -1.79666E+03 -1.89367E+03 -4.08046E+03  9.27784E+02 -1.17448E+04  1.67831E+03 -4.31973E+03
  1.02770E+04 -6.10659E+03  7.59721E+03 -3.24061E+03  6.86966E+03  3.91195E+03  2.03283E+03  8.33197E+03
 -3.25949E+03  9.16580E+03 -4.03397E+03 -2.65349E+02 -2.49160E+03 -4.15860E+03 -2.97250E+03 -7.48511E+02
 -1.22435E+03  3.06135E+03 -9.88014E+02  9.89949E+03 -6.98826E+03  1.40335E+03 -6.26602E+03 -1.85482E+03
 -5.05138E+03 -6.74926E+03  1.32297E+03 -7.44922E+03  7.34469E+03 -5.47423E+03 -4.43761E+02 -1.88463E+03
  6.95852E+03  6.54368E+03  3.12795E+03  2.19085E+03  1.16637E+03  1.10446E+04 -5.16135E+03 -8.99065E+02
 -7.45045E+03  3.94633E+03 -5.85110E+03  1.03720E+03  7.92862E+02 -4.22121E+03  5.37894E+03 -2.18447E+03
  1.39511E+03 -2.66938E+03  3.16811E+03  9.38776E+01  3.41259E+03  3.52555E+02  2.10552E+03  4.41002E+02
  9.61239E+02 -3.22923E+02 -7.55277E+02 -3.08084E+03  2.19964E+03  2.13036E+03 -1.78377E+03  5.66400E+03
  4.64844E+02  4.01838E+03 -3.33734E+03  3.42939E+03 -1.68678E+03  3.76987E+03 -7.94948E+03 -2.05625E+03
 -5.51720E+03 -6.70452E+03  6.54668E+01 -2.35065E+03  5.08404E+03 -5.01445E+03  4.22066E+03  4.72404E+03
  3.20548E+03  2.50651E+03  2.06311E+03  5.51701E+03  7.89064E+02  4.59885E+03 -9.43891E+01 -6.79436E+02
 -2.99442E+03 -1.26354E+03  2.64353E+03 -4.67304E+03  5.47146E+03 -2.22477E+03  1.70164E+03 -3.71536E+03
  7.38073E+02  3.31478E+03  7.54367E+02  8.36258E+02 -5.11739E+02  4.69226E+02 -3.08519E+03  2.03984E+03
  1.15503E+03 -4.53877E+03  2.36981E+03  2.70875E+03 -1.43431E+03  2.87524E+03  1.84274E+03  3.26327E+03
 -3.52671E+03 -1.55614E+03 -1.61531E+03  2.94399E+03 -1.82314E+03  1.70808E+03 -2.26602E+03 -1.26243E+03
  1.53612E+03 -6.73286E+03 -1.77144E+03 -1.50751E+03 -2.15198E+03  8.34333E+02 -1.72069E+03  2.39720E+03
 -1.23482E+03  3.45568E+03  2.59688E+03 -6.71368E+03  2.19117E+02 -9.44548E+02 -1.97593E+03 -4.45900E+03
 -5.74834E+02 -1.87331E+03  1.76017E+03  1.66701E+03  5.04868E+03  1.06352E+03 -5.76174E+02  6.05466E+03
  2.48014E+03 -1.82064E+03  1.58256E+03 -5.66577E+03  7.22047E+03 -5.03465E+03 -6.17375E+02  3.25743E+01
  4.91242E+03 -7.66284E+02  3.98555E+03  4.53179E+02 -5.67914E+02  2.46850E+02 -2.70139E+03  3.60996E+03
 -1.61626E+03  9.96896E+01 -4.56322E+03 -2.32826E+03  4.06564E+03  3.71662E+03  5.04464E+03  6.07418E+02
  3.45581E+03 -1.84574E+03  1.94996E+03  1.89834E+03  1.93148E+03  2.00871E+03  2.19429E+03  2.57344E+03
 -3.63768E+03  9.58487E+02  2.56675E+03  1.08342E+03  1.97173E+03 -3.01708E+03  2.59155E+03  1.60037E+03
 -1.56478E+03 -8.70009E+02 -3.80790E+03 -1.34425E+03 -6.58619E+03 -7.44468E+02 -6.22464E+02  7.76887E+02
 -7.36167E+03 -4.17384E+03  3.53510E+02 -4.27247E+03  4.69642E+03 -5.47785E+03  3.85099E+03 -2.94342E+02
  3.76661E+03  3.27064E+03 -1.32523E+03  5.73390E+03  1.74228E+03  4.06657E+03 -1.57312E+03 -9.04800E+02
 -3.60372E+03 -2.81194E+03  1.20592E+03  6.31437E+02 -2.07117E+03  4.31896E+03 -8.57801E+02 -3.48501E+03
 -2.05007E+03 -1.38931E+01 -2.94432E+03  2.58820E+03  3.75065E+02  3.43303E+03  2.85467E+01 -2.99886E+03
  1.84140E+03  2.25269E+03  1.79079E+03  2.84003E+03 -7.24794E+02  1.35092E+03  5.04441E+00  3.68451E+03
 -1.47450E+03  7.03902E+03  1.12525E+03 -1.03445E+03 -1.22765E+03  1.39264E+03 -6.17406E+03 -4.35938E+03
 -2.57496E+03  8.27699E+02  1.26881E+03 -4.98687E+03  4.64478E+03  1.11269E+03  2.52023E+03 -1.07918E+03
  3.61376E+01  1.72774E+02 -7.84160E+02  3.16357E+02  9.18674E+02 -4.96630E+03 -4.67555E+03  1.23714E+03
 -4.16665E+03  2.12634E+03  2.58124E+03  2.86040E+03 -3.09893E+03  1.90869E+03  9.92318E+02 -4.56311E+03
 -2.85352E+03 -1.35208E+03 -1.64727E+03  2.77940E+02 -7.15211E+02  1.66603E+03 -1.77738E+02 -3.68807E+03
 -3.64473E+02 -5.16369E+03  1.13493E+02 -4.25282E+03  7.42808E+02  3.51968E+03 -6.71710E+02 -1.87986E+03
  5.28461E+01  4.11787E+03  2.51681E+03 -2.29733E+03 -3.96042E+02 -2.41895E+02 -5.47206E+02 -7.13972E+02
  2.52305E+03 -1.56469E+02 -2.91379E+03  4.12974E+03 -5.40569E+03 -2.52962E+02  4.43394E+03 -2.70582E+02
 -2.94440E+03 -2.14487E+03 -5.29336E+02 -1.56384E+03  1.21153E+03 -4.61452E+03  3.21569E+03 -1.05342E+03
 -4.16862E+03 -1.45937E+03  5.79405E+03  2.58804E+03  1.21288E+03 -4.98949E+02 -1.08830E+03  5.41268E+03
