 $NMID ID='MM_0lb_SNR50_20hz_g50_63.RAW', FMTDAT='(8E13.5)'
 TRAMP=1., VOLUME=1. $END
  3.07901E+05  1.44901E+03  3.34661E+05  2.48001E+05  8.39582E+04  3.34226E+05 -1.31953E+05  2.50367E+05
 -1.88375E+05  8.59918E+04 -1.11956E+05 -3.54442E+04 -2.64511E+02 -5.00641E+04  5.19272E+04  3.12220E+03
  3.36328E+04  5.16743E+04 -1.47742E+04  7.60768E+04 -6.18424E+04  6.22013E+04 -8.58284E+04  3.11029E+04
 -7.85833E+04 -1.46499E+04 -5.94608E+04 -5.05459E+04 -2.20362E+04 -6.74394E+04  2.33874E+04 -4.40367E+04
  3.75576E+04  9.00990E+01  1.38509E+04  4.52831E+04 -3.37308E+04  4.18031E+04 -6.44501E+04 -1.93790E+03
 -5.38144E+04 -5.33933E+04 -4.21652E+03 -7.49879E+04  3.12256E+04 -5.57713E+04  4.60277E+04 -1.44416E+04
  4.09216E+04  9.23638E+03  2.75307E+04  2.67092E+04  1.96847E+04  3.06139E+04 -4.22237E+03  2.50577E+04
 -2.23633E+04  1.21118E+04 -1.72136E+04 -7.68987E+03  8.31805E+03 -8.95167E+03  2.40746E+04  9.06548E+03
  8.93752E+03  3.51122E+04 -3.48145E+04  3.37248E+04 -5.98021E+04  3.99372E+02 -5.62748E+04 -4.28777E+04
 -1.22972E+04 -6.28249E+04  3.77007E+04 -4.89568E+04  5.78955E+04 -1.87022E+03  3.67579E+04  2.97774E+04
 -7.70253E+03  3.27252E+04 -2.83744E+04  1.15000E+04 -3.07665E+04 -1.76669E+03 -1.30365E+04 -7.09048E+03
 -6.85732E+03 -8.46645E+03 -2.25278E+03 -1.86317E+04  1.13527E+04 -2.29323E+04  1.62691E+04 -1.64772E+04
  1.25712E+04  4.15035E+03 -6.06557E+03  1.46989E+04 -2.29482E+04 -3.98479E+01 -9.67785E+03 -2.96079E+04
  1.84709E+04 -3.89253E+04  4.39928E+04 -1.80799E+04  3.90614E+04  1.96226E+04  1.42615E+04  4.03184E+04
 -1.52845E+04  2.69758E+04 -2.08378E+04 -1.79038E+03 -6.45667E+03 -2.57575E+04  1.91074E+04 -3.04895E+04
  3.63877E+04 -7.92249E+03  2.76334E+04  2.23720E+04  1.60244E+04  3.78896E+04 -5.10518E+03  4.68397E+04
 -2.56278E+04  2.93412E+04 -3.29792E+04  8.34488E+03 -3.67882E+04 -1.72767E+04 -2.20481E+04 -3.60438E+04
  5.32997E+03 -3.34127E+04  2.63258E+04 -1.33100E+04  2.67273E+04  9.95893E+03  5.79615E+03  1.26737E+04
 -1.17139E+04  6.64353E+03 -8.75040E+03 -7.30689E+03  4.60960E+03 -1.17464E+04  1.60589E+04  7.60003E+03
  1.53199E+04  2.21295E+04 -4.57174E+03  2.28006E+04 -2.21762E+04  1.03985E+04 -2.52729E+04 -7.54458E+03
 -2.08695E+04 -1.56233E+04 -4.69602E+03 -1.29500E+04  3.45370E+03 -1.39497E+04  1.00672E+04 -1.15469E+04
  2.01262E+04 -1.30684E+04  2.70939E+04  1.03264E+03  2.34535E+04  1.57754E+04  5.70868E+03  3.58014E+04
 -1.42323E+04  2.77041E+04 -2.61968E+04  8.09570E+03 -1.88180E+04 -1.33899E+04 -6.11422E+03 -1.18890E+04
  4.06707E+03 -7.43758E+03 -2.71902E+03  4.61451E+03 -9.45643E+03  7.17781E+03 -1.14634E+04 -6.96878E+03
 -1.07221E+04 -1.41788E+04  8.95254E+03 -1.93652E+04  1.46926E+04 -1.64830E+04  1.27675E+04 -2.86152E+03
  5.86353E+03  1.12602E+04  1.25548E+03  1.35575E+04 -8.49578E+03  1.18666E+04 -1.63350E+04 -5.54178E+03
 -1.21212E+04 -1.44228E+04 -2.50528E+03 -2.00217E+04  9.18363E+03 -1.40361E+04  1.74548E+04 -7.48836E+03
  1.55422E+04  1.84241E+03  1.02609E+04  8.61713E+03  6.86238E+03 -6.79721E+02  5.28912E+03 -1.78505E+02
  1.40897E+04  2.90422E+03  1.50668E+04  9.43187E+03  6.24555E+03  2.26920E+04 -2.53239E+03  2.53007E+04
 -1.34772E+04  1.56075E+04 -2.52605E+04  9.33216E+03 -2.32843E+04 -2.68065E+02 -2.20478E+04 -9.05188E+03
 -1.14695E+04 -1.88781E+04  4.74763E+03 -1.98790E+04  1.69015E+04 -8.97019E+03  1.61254E+04  1.31400E+03
  5.34957E+03  1.12917E+04 -8.96492E+03  8.86581E+03 -1.06178E+04  3.96404E+03 -1.06508E+04 -9.06616E+03
 -1.88279E+03 -1.11082E+04  1.96140E+03 -9.59819E+03  8.20678E+03 -3.18966E+03  3.79464E+03  3.37483E+03
 -4.96945E+03  1.05602E+03 -2.32579E+03 -1.77314E+03  8.69787E+02 -1.08628E+04  6.25535E+03 -7.96669E+03
  1.00355E+04 -3.86459E+03  1.29186E+04 -4.61939E+02  9.02707E+03  1.03199E+04  4.61610E+03  8.75867E+03
 -4.44318E+03  1.56245E+04 -7.55275E+03  1.47642E+04 -1.08702E+04  7.37829E+03 -1.10516E+04  9.71456E+02
 -3.29301E+03 -1.58848E+03 -5.94876E+02  5.32412E+03 -3.20881E+03  3.72597E+03 -1.69502E+03  3.28643E+03
 -1.05123E+04 -3.34829E+03 -6.98958E+03 -5.55889E+03 -7.42892E+03 -1.39799E+04  4.35435E+03 -1.09056E+04
  7.19130E+03 -6.84685E+03  5.80394E+03  4.11298E+03 -1.70141E+02  5.08353E+03 -5.35849E+03  3.55266E+02
 -4.86485E+03 -4.77520E+03 -2.61283E+03 -1.13522E+04  2.00027E+03 -9.85624E+03  7.60540E+03 -3.73322E+03
  1.23287E+04  1.18332E+03  6.58744E+03  8.78759E+03  1.90258E+03  1.03951E+04 -8.51634E+03  8.75134E+03
 -1.06156E+04  3.02498E+03 -2.97641E+03 -5.20097E+02 -1.15775E+03 -1.06589E+03  1.72930E+03 -1.01220E+03
  5.81568E+03  2.88503E+03  5.12034E+02  4.54832E+03 -3.15321E+03  7.04247E+03 -6.87289E+03  1.93512E+03
 -5.32956E+03 -5.68978E+03  1.77527E+02 -5.26537E+03  4.73765E+03 -2.93075E+03  4.40302E+03  4.23013E+02
  3.63913E+02  2.93728E+03 -3.89885E+03  2.41519E+03 -4.37153E+03  4.07111E+03 -7.56868E+02  2.41403E+03
 -2.97158E+03 -6.17259E+03  1.80503E+03 -8.10459E+03  2.02066E+03 -3.77552E+03  6.83870E+03  6.74494E+03
  1.14570E+03  6.80431E+03  9.93424E+02  5.48204E+03 -4.93926E+02  4.72387E+03 -9.97713E+03  3.29611E+03
 -9.81628E+03  2.44633E+01 -3.74150E+03 -9.47446E+03  3.41344E+03 -1.96977E+03  3.17292E+03 -3.79715E+03
  1.58761E+03 -4.50620E+03 -2.82571E+03 -1.33542E+03 -3.21566E+03 -6.73026E+02  1.16953E+03  9.32208E+02
  5.81671E+03  1.98376E+03  8.82808E+03  2.60156E+02  7.54423E+03  6.29760E+03 -2.15860E+03  6.69227E+03
 -5.79825E+02  6.67502E+03 -7.55198E+03  5.66988E+03 -8.40698E+03 -1.31021E+03 -7.67925E+03 -1.69534E+03
 -5.47820E+03 -5.85707E+03 -4.17837E+03 -5.22095E+03 -1.39763E+02  1.80163E+03  2.16621E+03 -9.64849E+02
  3.96644E+03  5.22014E+03  2.46157E+03  2.87574E+03  3.80999E+03 -1.66055E+03  2.86561E+03 -2.05752E+03
  1.06416E+03 -7.21348E+02 -1.40290E+03  6.05897E+03 -2.60875E+03  3.08983E+03 -5.73840E+03 -2.06634E+03
 -4.71349E+03  2.36365E+03  4.94448E+02 -7.52892E+03  3.12322E+03 -4.75368E+03  1.78615E+03 -4.21898E+03
  5.31460E+03  1.49922E+03  5.29479E+03 -3.42692E+03  2.68614E+03  2.08403E+03  1.53401E+03  7.91268E+03
 -4.44483E+03  3.36327E+03 -3.47535E+03  3.59515E+03 -2.37090E+03 -4.45944E+03 -1.13150E+03 -1.76139E+02
 -2.92288E+02 -7.97250E+02 -1.43547E+03 -2.89071E+03 -3.71863E+03  1.76362E+03 -5.78886E+03 -2.44294E+03
 -2.39119E+03 -3.53609E+03  1.45428E+03 -3.87796E+03 -1.90509E+03 -2.67501E+03  2.72868E+03 -1.46637E+03
  5.24573E+03  6.64027E+03  2.62552E+03  3.25698E+03 -3.36540E+03  5.16375E+03 -1.60353E+03  5.28441E+03
 -3.89481E+03 -1.26063E+03  1.69226E+03  3.14845E+02  1.40764E+03 -2.63831E+03  1.43717E+03  1.24097E+03
  3.18870E+03 -2.20475E+03 -1.10272E+03  2.69983E+03  2.87541E+03  1.09762E+03 -1.18708E+03  3.36673E+03
  4.27873E+03 -2.66900E+02  1.30827E+03 -1.92903E+03  1.25877E+03  6.74249E+03  4.02504E+02 -1.85862E+02
  2.95672E+03  4.20478E+03 -5.22321E+03  5.36868E+03  4.18464E+02  7.16135E+01 -7.72442E+02 -1.70388E+03
 -3.83328E+03 -2.00471E+03  4.04305E+03 -3.14438E+03  2.66209E+03 -2.11143E+03 -3.49040E+02 -4.80661E+03
  2.02388E+03  6.96232E+02  9.14895E+02 -1.38927E+03  1.16100E+03  3.27297E+03  3.04334E+03 -3.16497E+03
 -2.36705E+03  1.14088E+03  5.89611E+03 -2.81815E+03 -2.26024E+02  1.35333E+03  2.04241E+03  2.91324E+03
 -2.15797E+03 -4.17115E+03 -1.73577E+03 -5.56911E+02  3.25191E+03 -3.24623E+03  2.44111E+03 -4.70056E+03
  9.93968E+02 -2.78269E+03  2.62490E+02 -2.38010E+03  2.29870E+03 -9.81731E+02 -4.41519E+03  3.39693E+03
  1.59367E+02  8.42778E+02 -4.43312E+03  3.40323E+03 -1.34462E+03 -2.40575E+03 -2.50569E+02 -1.22936E+03
  8.77119E+02 -1.21529E+03  2.17485E+03 -4.70307E+03  8.05027E+02  2.00998E+03 -2.03384E+03  2.22327E+03
 -1.80749E+03  1.45330E+03 -2.25633E+03  1.25374E+02  6.72851E+02 -6.52812E+03  1.18953E+01 -1.01113E+02
 -4.60201E+03 -2.55736E+03  8.42193E+02 -1.68613E+03 -2.07709E+03  3.30207E+03  1.52005E+03  1.38722E+03
 -9.14120E+02 -1.01129E+02 -4.73424E+03 -1.05846E+03  1.19308E+03  2.56437E+03 -4.76276E+03  2.08057E+03
 -1.81555E+03 -2.84609E+03  2.49963E+03 -2.27762E+03  3.77566E+02 -5.35283E+02  3.27686E+03 -9.42786E+02
 -5.14309E+03 -2.80536E+03 -1.27268E+03 -2.60250E+03  2.90718E+03 -2.38116E+03 -6.25197E+02  3.55430E+03
  2.77777E+03  3.56599E+02  4.06454E+02  1.05204E+03 -9.87703E+02  2.95415E+03 -1.67498E+02  2.00010E+03
  3.29880E+02  3.61178E+03 -3.73973E+03  5.10684E+02  1.38801E+03 -1.44505E+03  6.22438E+02  1.98513E+03
  2.91647E+03 -9.83693E+02 -6.54919E+03  1.78964E+03 -1.02013E+03  4.84546E+02  1.07521E+03  2.42447E+03
 -1.01544E+03 -3.22790E+03 -2.12871E+03 -3.42889E+03  1.00841E+03  2.33525E+02 -1.55176E+02  5.72907E+02
  3.62721E+03 -1.60747E+03 -8.51260E+01 -1.30185E+03  3.73548E+03  2.40612E+02 -7.22898E+02  5.39518E+03
  3.69545E+02 -2.50942E+03 -4.78103E+02 -1.72597E+03 -2.54441E+03 -1.20727E+02 -6.99855E+02 -2.29442E+03
 -1.78865E+03  3.57789E+03 -8.78253E+02  6.06857E+02 -1.32990E+03 -1.65529E+03 -1.55316E+03  1.02715E+03
  1.23683E+03 -1.47027E+03 -1.29315E+03 -1.08062E+03  7.74143E+02  4.15928E+03  2.73170E+00  1.24642E+03
  5.66284E+03 -2.74889E+02 -4.47213E+03  8.53334E+02 -2.01876E+03 -2.46635E+03 -1.88983E+03  2.48860E+01
  3.14305E+02 -1.93461E+03 -1.78652E+03 -2.71332E+02  3.86334E+03  2.18502E+03 -2.35387E+03  2.08093E+03
  5.21435E+03 -3.04403E+03  2.06207E+03 -2.39585E+03  1.13933E+03 -7.46591E+03  2.61713E+03 -3.67851E+01
  1.30164E+03  3.79922E+03  1.09803E+03  2.30442E+03  8.61608E+01 -4.15403E+02 -2.97937E+03  1.53702E+03
  1.60694E+03  5.37794E+03  4.46356E+02 -2.68975E+00 -6.70870E+02 -7.97787E+02  1.77781E+03 -9.57302E+01
  1.92470E+03  2.05202E+03  1.95585E+03  6.27940E+03 -6.77094E+02  2.43113E+02 -5.97499E+02  2.89171E+03
  4.70845E+03  2.13374E+03 -3.92828E+03 -1.37694E+03 -5.95413E+02  1.79257E+03  3.12016E+03  1.30023E+02
  1.96164E+03  2.94802E+03 -8.02409E+02  2.16524E+03 -2.65888E+03  1.10734E+03 -2.48720E+03 -1.03085E+03
 -2.90093E+03  8.44842E+02  1.75569E+03  3.78231E+01  2.07875E+03 -1.10735E+03  2.21928E+03  1.74816E+03
  2.51628E+02 -1.45776E+03  3.13867E+02 -1.40692E+03  1.33377E+03  6.90635E+03 -1.52431E+03  5.08566E+02
