 $NMID ID='MM_0lb_SNR50_15hz_g40_3.RAW', FMTDAT='(8E13.5)'
 TRAMP=1., VOLUME=1. $END
  3.12904E+05  1.10841E+03  3.37532E+05  2.50149E+05  8.48713E+04  3.37881E+05 -1.32468E+05  2.47146E+05
 -1.90314E+05  8.41790E+04 -1.13861E+05 -3.24993E+04  1.94256E+03 -5.04229E+04  5.63912E+04  6.02340E+03
  3.79188E+04  4.84814E+04 -1.42649E+04  7.06817E+04 -5.83464E+04  6.50604E+04 -8.00987E+04  3.31970E+04
 -8.21567E+04 -9.93589E+03 -5.89908E+04 -4.83198E+04 -1.30436E+04 -6.94730E+04  2.80490E+04 -4.48859E+04
  3.66541E+04  2.98201E+03  1.44395E+04  4.77903E+04 -3.39390E+04  4.75963E+04 -6.77125E+04 -2.87034E+02
 -5.84623E+04 -6.27154E+04 -7.84339E+03 -7.66529E+04  3.29086E+04 -5.61457E+04  4.53290E+04 -1.14081E+04
  4.12515E+04  1.10896E+04  3.16405E+04  2.83331E+04  1.48509E+04  2.79930E+04 -8.41862E+03  2.68537E+04
 -1.83858E+04  1.22942E+04 -1.35520E+04 -3.70192E+03  4.31032E+03 -9.28240E+03  2.23285E+04  1.01539E+04
  1.22620E+04  3.11487E+04 -3.26881E+04  3.68458E+04 -6.07584E+04  8.98973E+03 -5.85275E+04 -4.17497E+04
 -1.23709E+04 -6.05781E+04  4.02262E+04 -4.43280E+04  6.05989E+04  1.53038E+03  3.45865E+04  3.34161E+04
 -1.56062E+03  3.64789E+04 -2.56065E+04  1.69421E+04 -3.06371E+04 -8.69468E+03 -1.62305E+04 -1.50152E+04
 -1.18211E+04 -1.10763E+04 -1.26594E+03 -1.56613E+04  8.62326E+03 -2.17883E+04  1.29040E+04 -1.20709E+04
  1.52496E+04  3.82032E+03 -8.82155E+03  1.34289E+04 -2.06896E+04 -3.34706E+03 -1.26632E+04 -3.00574E+04
  2.14127E+04 -4.25390E+04  4.92189E+04 -1.58045E+04  4.15783E+04  1.58903E+04  1.38806E+04  4.00770E+04
 -9.95957E+03  3.23333E+04 -2.38303E+04  2.96840E+03 -5.63508E+03 -2.70981E+04  2.27452E+04 -2.85331E+04
  4.05950E+04 -5.05452E+03  3.13040E+04  2.16152E+04  1.60365E+04  4.43723E+04 -9.80086E+03  4.84198E+04
 -2.90535E+04  3.46522E+04 -3.68004E+04  5.91342E+03 -3.49259E+04 -1.46776E+04 -2.02284E+04 -3.69995E+04
  8.57919E+03 -3.80918E+04  2.93201E+04 -1.66344E+04  2.63177E+04  1.33236E+04  3.32230E+03  1.97218E+04
 -1.35391E+04  1.23160E+04 -9.55522E+03 -8.41551E+03  4.96469E+03 -1.13774E+04  1.63998E+04  7.35453E+03
  1.21372E+04  2.04653E+04 -9.24819E+03  2.01884E+04 -2.37609E+04  8.63923E+03 -2.53103E+04 -5.39861E+03
 -1.88261E+04 -1.48990E+04 -8.26933E+03 -2.04885E+04  2.57624E+03 -1.94835E+04  1.40053E+04 -1.63932E+04
  1.78954E+04 -1.41121E+04  3.55447E+04 -2.74566E+03  2.65739E+04  2.14216E+04  3.61413E+03  3.96332E+04
 -1.57868E+04  2.85812E+04 -2.34265E+04  8.11025E+03 -2.00130E+04 -1.04431E+04 -3.19593E+03 -7.98127E+03
  1.80655E+03 -4.34137E+03 -5.11596E+03  5.07282E+03 -1.68264E+04  5.31160E+03 -1.87343E+04 -8.10596E+03
 -7.39075E+03 -1.79883E+04  4.07149E+03 -2.47847E+04  1.59876E+04 -1.48867E+04  1.63271E+04  1.67300E+03
  8.92499E+03  1.06197E+04 -1.86653E+03  1.02994E+04 -1.48778E+04  8.45671E+03 -1.55309E+04 -5.61860E+03
 -1.47983E+04 -1.33216E+04 -2.90238E+03 -2.27387E+04  7.48490E+03 -1.52286E+04  1.79259E+04 -6.33379E+03
  1.27529E+04 -1.53816E+03  8.01511E+03  7.39074E+03  4.10397E+03  8.24459E+02  7.80217E+03  2.34872E+03
  1.33216E+04  4.54651E+03  1.97578E+04  1.26452E+04  9.79801E+03  2.67234E+04 -2.03419E+03  3.25799E+04
 -1.74684E+04  2.61394E+04 -2.89951E+04  9.17549E+03 -3.05403E+04  1.64432E+03 -2.08408E+04 -1.73022E+04
 -1.04031E+04 -2.25918E+04  6.81720E+03 -2.13073E+04  1.43029E+04 -8.76246E+03  1.91685E+04  1.20874E+03
  7.94080E+03  1.24253E+04 -5.55315E+03  1.35701E+04 -1.47528E+04 -2.34538E+03 -1.65693E+04 -1.06279E+04
 -4.37970E+02 -1.44803E+04  3.89583E+03 -1.00942E+04  6.38526E+03 -3.67858E+03  3.16261E+03  5.89694E+03
 -7.08551E+03  1.87527E+03 -9.52656E+03 -2.99838E+03 -1.60312E+03 -9.85031E+03  3.90909E+03 -8.84078E+03
  1.39712E+04 -9.90529E+03  1.42421E+04 -2.28936E+03  1.26957E+04  9.30883E+03  5.21734E+03  1.33118E+04
 -5.47004E+03  1.58839E+04 -1.67820E+04  1.02564E+04 -1.37331E+04  1.93128E+03 -1.19990E+04 -1.46107E+03
 -1.05359E+03 -1.33061E+03  2.14449E+03 -1.20093E+03 -2.01360E+03 -7.05553E+01 -8.12661E+03  1.93131E+03
 -6.39003E+03 -6.29897E+03 -6.69177E+03 -9.93836E+03 -5.35320E+01 -1.20067E+04  4.08202E+03 -9.37748E+03
  9.10096E+03 -4.00504E+03  6.96845E+03  1.47821E+03 -5.35647E+03  5.90751E+02 -6.67436E+03  3.26932E+02
 -8.70039E+03 -5.85526E+03 -3.92866E+03 -1.06297E+04  2.64016E+03 -1.06294E+04  1.25606E+04 -4.01161E+03
  1.97740E+04 -1.97714E+03  1.02186E+04  8.05733E+03 -3.10065E+03  9.64364E+03 -2.93264E+03  1.27210E+04
 -1.17154E+04 -4.20505E+03  4.02287E+03  2.97162E+03  3.55583E+03 -3.59640E+03  3.70283E+03 -3.38760E+03
  1.24550E+03  4.87071E+03  6.97117E+03  1.32114E+04 -7.98396E+03  1.16478E+04 -8.80532E+03  2.40154E+03
 -7.83693E+03 -3.93991E+03 -3.46939E+03 -5.23707E+03 -1.45574E+02 -7.45329E+03  4.67885E+03 -9.39169E+02
  1.46768E+03  4.18543E+03 -4.39464E+03  4.15462E+03 -8.64336E+03  5.02133E+03 -3.05346E+03 -1.23439E+03
 -5.45832E+03 -1.17216E+04 -1.45797E+03 -7.63463E+03  8.20283E+03 -8.50388E+03  7.17040E+03  1.17017E+03
  2.44129E+03  1.06670E+04  1.24536E+03  4.82356E+03 -4.46011E+03  5.06951E+03 -1.12732E+04 -6.16954E+03
 -1.13381E+04 -7.61075E+03 -2.97814E+02 -5.44739E+03  4.17569E+03 -4.52228E+03  4.57760E+03 -1.46032E+03
  2.12258E+03  1.85153E+03 -1.64683E+03 -4.29337E+03 -3.46572E+03  2.83941E+03  3.68106E+03 -4.92671E+03
  6.39206E+03 -1.62364E+03  9.08408E+03 -4.69177E+02  9.55217E+03  9.86579E+03  8.30538E+03  1.13161E+04
 -2.55965E+03  1.25568E+04 -9.16489E+03  1.30005E+04 -1.45961E+04  2.03183E+03 -1.30099E+04 -4.60914E+03
 -1.16878E+03 -3.34366E+03 -4.53905E+03 -1.27507E+04  5.11065E+03 -1.21426E+03  2.68409E+03 -6.44814E+03
 -4.42954E+02 -4.46926E+03  2.38703E+03 -3.40011E+03  2.90644E+03 -4.30424E+03  6.23722E+03 -3.50283E+03
  8.23207E+03 -4.72166E+02 -2.64681E+03  3.27897E+03  4.66029E+02  2.74953E+03 -6.31042E+03  2.90102E+03
 -7.74931E+03 -2.81434E+03 -9.74283E+03 -6.91473E+02 -1.19543E+03 -4.62844E+03  2.82926E+03 -5.12101E+03
  7.49715E+03 -2.38217E+03  1.25800E+04 -1.44621E+02  9.84808E+03  4.72904E+03  3.29589E+03  1.00982E+04
 -6.76974E+03  4.76252E+03 -5.34664E+03  1.96200E+03 -5.81662E+03  5.39513E+02 -9.38468E+02 -2.63862E+03
 -3.21696E+02  1.99735E+03 -3.75624E+03  3.06716E+03 -2.14103E+03  2.89291E+03 -9.01590E+02  1.41063E+03
 -9.44095E+02 -4.14603E+03  2.41728E+03 -7.83901E+03  2.08530E+03 -8.93161E+03  4.03487E+03 -2.05062E+03
  1.41231E+04  5.33371E+03  6.93294E+03  8.79899E+03 -2.15255E+03  1.05670E+04 -1.12006E+03  3.82996E+03
 -9.51397E+03  3.37379E+03 -6.01020E+03 -1.84049E+02  1.76510E+03 -7.42238E+03  4.96581E+03 -2.30865E+03
  7.24998E+03 -3.03523E+03  3.40713E+03  5.19537E+03 -9.26044E+02  4.22818E+03  2.97080E+03  3.60190E+03
  5.14389E+03  4.02103E+03  2.33916E+03  1.84689E+03 -1.56118E+03  2.85074E+03  6.35355E+03  1.09958E+03
 -3.46606E+03  3.71263E+03 -6.26072E+03  4.76120E+03 -7.45649E+03  2.34378E+03 -4.68179E+03 -5.46244E+03
  2.55903E+03 -5.34399E+03  4.44790E+03 -6.53035E+03  2.62333E+03 -3.74703E+03  7.13108E+03 -2.31532E+03
  1.53682E+02 -1.48604E+01  4.41659E+03  4.78634E+03 -1.21608E+03 -7.09829E+02  3.67371E+03 -2.97727E+03
  2.13925E+03 -4.98064E+03  8.06268E+02 -2.30569E+03  4.70088E+03 -3.87746E+03  5.56475E+01  3.56898E+03
  2.52008E+02  1.15390E+03 -1.19690E+03  1.67141E+02  9.18137E+00 -1.97719E+03  3.08751E+02  4.92475E+03
 -8.51029E+02  4.66313E+02  3.44459E+03  1.61152E+03 -1.28511E+02  3.92744E+03  2.75249E+01 -1.24289E+03
 -4.92305E+03 -1.80175E+03 -6.55979E+03 -3.54025E+03 -2.48790E+03 -3.06033E+03  6.45863E+02 -8.71899E+02
  1.88527E+03 -1.34895E+03 -1.06013E+03 -6.04845E+03  3.03457E+03 -8.12388E+02  1.54777E+03  3.15372E+03
 -2.53050E+02 -2.06422E+03 -2.61274E+03 -4.15122E+03 -8.07478E+02 -6.19243E+03 -1.49707E+03 -3.63788E+02
 -1.39196E+03  7.31614E+02  4.06391E+03  7.11891E+03  6.63675E+03 -2.07650E+03 -3.80016E+03  1.08019E+03
 -2.53007E+03  5.10689E+02 -1.29764E+01 -1.88752E+03  3.49913E+02 -2.32053E+03  4.14656E+03 -1.08688E+03
  9.08043E+03  3.65304E+02 -3.34398E+02  2.19188E+03  1.73523E+03  4.13541E+03  7.43445E+02  4.30489E+03
 -6.81272E+03  5.39891E+03 -1.12960E+04 -2.57356E+02 -4.72864E+02 -5.45641E+01 -2.96172E+03 -3.57881E+03
  6.13117E+03 -8.79387E+02 -9.15069E+01  2.21695E+03 -7.67487E+02  4.67750E+03  6.84761E+02  5.06583E+03
 -2.65172E+03 -1.26187E+03 -2.60521E+03  2.30491E+03 -3.16079E+02  3.68840E+03 -3.41288E+03 -7.95004E+02
 -8.88242E+02  6.68558E+02 -5.71326E+03  2.41808E+03 -2.48508E+03  2.16865E+03 -4.35162E+03 -1.14721E+03
 -1.89636E+03 -2.56300E+03 -4.79040E+03 -9.13061E+03  5.13539E+03 -4.07762E+03  3.95932E+03  2.80954E+03
  2.26957E+03  2.27978E+03  2.99202E+02  7.75822E+03 -1.02804E+03  4.05156E+03 -1.32868E+03  1.76431E+03
 -1.37373E+03  7.32944E+03  3.53670E+03  3.68844E+03 -2.13535E+03  1.04284E+03 -3.10311E+03 -2.04947E+03
 -4.57010E+03  6.39101E+02 -4.19879E+03 -2.64686E+03  3.84343E+03  2.76481E+03 -2.12234E+03 -1.97049E+03
  5.10213E+02  2.71834E+03  2.41052E+03 -7.43265E+02  1.07713E+03  4.65804E+03 -9.23045E+02  4.00781E+03
  4.40566E+03  2.70937E+03 -5.44572E+03  2.57511E+03 -4.68758E+03  1.72329E+03 -6.40325E+03 -2.02707E+03
 -1.74833E+03 -7.50161E+03  5.81673E+03 -4.71995E+03  3.01486E+02 -2.04809E+03  5.08168E+03  8.67307E+02
  1.90811E+03  3.02531E+03  1.38649E+03 -9.95792E+02 -3.55342E+03 -2.44924E+03 -2.62389E+03 -3.66627E+03
  1.15383E+03 -4.63060E+02  3.74902E+03  1.12737E+03 -1.60660E+03 -1.35157E+03 -3.42640E+03  4.46948E+03
 -5.09563E+03  1.51637E+03 -6.74348E+03 -1.92986E+03 -1.74765E+03  2.44331E+03 -2.58272E+02 -3.41592E+03
  3.11135E+03 -2.41208E+03  7.08976E+03 -3.18850E+03  4.90451E+03 -1.55444E+03  2.79146E+03  5.93182E+02
  2.69932E+02  3.58676E+03  4.67266E+03  2.29430E+02  1.63008E+03 -1.69012E+03  8.63232E+02  2.78280E+02
 -1.93900E+03  1.78358E+02  5.22055E+02 -2.33750E+03 -8.75898E+03  1.28103E+01 -1.25610E+03 -5.83128E+03
  2.11297E+03 -5.31518E+02  1.97944E+03 -4.86957E+02  5.76528E+03 -3.66535E+03  6.08921E+03 -4.94256E+03
  3.31368E+03 -4.61229E+02 -4.41539E+03  2.93240E+03  2.21844E+02  3.71506E+03 -7.51633E+02  1.69166E+03
