 $NMID ID='MM_0lb_SNR50_7hz_g40_97.RAW', FMTDAT='(8E13.5)'
 TRAMP=1., VOLUME=1. $END
  3.06527E+05  3.07824E+03  3.36545E+05  2.51891E+05  9.32435E+04  3.35698E+05 -1.32407E+05  2.49998E+05
 -1.91351E+05  8.30301E+04 -1.12834E+05 -2.87182E+04  1.85174E+02 -5.00824E+04  5.42723E+04  2.28659E+02
  3.02881E+04  5.54140E+04 -1.28114E+04  7.79153E+04 -6.70624E+04  6.45733E+04 -8.84497E+04  3.70415E+04
 -8.26602E+04 -6.37127E+03 -5.79688E+04 -5.14400E+04 -1.62987E+04 -6.64090E+04  3.21752E+04 -4.33386E+04
  3.83947E+04  3.42385E+03  1.22660E+04  4.77509E+04 -3.42221E+04  5.04924E+04 -7.66788E+04  2.06449E+03
 -5.50407E+04 -6.26649E+04 -5.73695E+03 -7.94490E+04  3.07372E+04 -5.55684E+04  5.52744E+04 -1.51546E+04
  4.42370E+04  1.21334E+04  2.79479E+04  2.87059E+04  1.15616E+04  2.66220E+04 -2.07888E+03  3.19731E+04
 -2.73940E+04  1.30446E+04 -1.56809E+04 -1.18244E+04  9.59981E+03 -5.01962E+03  2.13443E+04  1.14818E+04
  4.82431E+03  3.63660E+04 -3.53995E+04  3.33132E+04 -6.27562E+04 -2.73915E+03 -5.81619E+04 -5.29428E+04
 -1.38620E+04 -6.05451E+04  4.26545E+04 -4.88102E+04  6.49167E+04 -7.86080E+03  3.41054E+04  3.31765E+04
 -8.74717E+03  4.21901E+04 -3.59911E+04  2.17875E+04 -3.12908E+04  2.73144E+03 -2.36631E+04 -1.14582E+04
 -1.11697E+04 -1.17376E+04 -5.40863E+03 -1.81939E+04  7.34705E+03 -2.23819E+04  1.93164E+04 -9.95742E+03
  8.66711E+03  2.45565E+03 -7.51653E+03  1.39279E+04 -2.20171E+04 -3.86812E+03 -1.15031E+04 -3.23457E+04
  3.16887E+04 -4.41055E+04  5.75372E+04 -2.54772E+04  4.70464E+04  1.41951E+04  1.73169E+04  4.93640E+04
 -1.31890E+04  3.80182E+04 -2.51865E+04  5.32247E+03 -7.33847E+03 -3.76560E+04  1.85320E+04 -4.35949E+04
  4.96647E+04 -1.14010E+04  3.93293E+04  2.96436E+04  1.49862E+04  5.18014E+04  9.87081E+02  5.98802E+04
 -3.39955E+04  4.14486E+04 -4.68221E+04  7.54670E+03 -5.00982E+04 -1.41277E+04 -2.93137E+04 -3.94679E+04
  1.34391E+04 -4.37641E+04  4.08514E+04 -1.67717E+04  2.71554E+04  2.11537E+04  5.41122E+03  2.30237E+04
 -1.15115E+04  5.34190E+03 -1.89730E+04 -7.26802E+03  1.11833E+04 -8.88844E+03  2.15761E+04  3.72058E+02
  1.31245E+04  2.38397E+04  1.98025E+03  2.88747E+04 -2.86965E+04  1.08323E+04 -3.25654E+04  6.26163E+03
 -2.63768E+04 -1.62050E+04 -9.65083E+03 -2.76492E+04 -2.38400E+03 -2.11471E+04  9.94405E+03 -2.25425E+04
  3.36648E+04 -1.24269E+04  4.26156E+04  4.36774E+03  2.98983E+04  3.15317E+04  4.47802E+03  4.58635E+04
 -2.85269E+04  3.52910E+04 -3.08635E+04  1.25376E+04 -2.72368E+04 -1.47728E+04 -7.00486E+03 -8.51939E+03
 -6.52672E+03 -1.77548E+02 -8.05716E+03  1.02848E+04 -2.38955E+04 -1.30384E+02 -1.83620E+04 -1.15981E+04
 -1.47915E+04 -2.09460E+04  5.22960E+03 -3.20900E+04  2.06911E+04 -2.26125E+04  2.31773E+04 -2.01826E+03
  1.08977E+04  1.88873E+04 -2.43971E+03  2.53790E+04 -2.22841E+04  1.49732E+04 -2.12470E+04 -6.28366E+03
 -2.38935E+04 -3.00057E+04  3.93321E+03 -2.83286E+04  1.31590E+04 -2.53590E+04  3.48927E+04 -1.88262E+04
  2.01000E+04  8.10144E+02  1.66356E+04  7.59305E+03  9.20492E+03 -7.30875E+02  1.54743E+04 -3.16832E+03
  1.92888E+04  8.75650E+02  2.44848E+04  2.14304E+04  1.47412E+04  4.08610E+04 -8.04319E+03  4.55004E+04
 -2.32314E+04  4.56690E+04 -4.83248E+04  2.79878E+04 -5.12976E+04 -2.21239E+03 -4.01562E+04 -2.52711E+04
 -1.63136E+04 -3.93531E+04  1.26629E+04 -3.78475E+04  2.64094E+04 -9.54278E+03  1.84478E+04  1.03991E+04
  1.01522E+04  1.81729E+04 -2.04210E+04  5.44111E+03 -2.67389E+04  4.35013E+03 -9.25227E+03 -1.11464E+04
  2.95656E+03 -1.62116E+04  7.65485E+03 -1.82830E+04  1.27832E+04 -1.39368E+03  4.95463E+03  1.54352E+04
 -1.10393E+04  1.99204E+03 -1.27737E+04 -9.72743E+03  6.18875E+02 -1.84444E+04  9.94351E+03 -1.49728E+04
  2.39118E+04 -6.94429E+03  3.26875E+04  1.45797E+03  3.39991E+04  1.63113E+04  1.12173E+04  2.10937E+04
  1.61458E+02  2.92432E+04 -1.90692E+04  2.41406E+04 -2.47641E+04  4.59845E+03 -9.49815E+03 -6.68200E+03
 -1.27610E+04 -3.09177E+03  3.69849E+03 -1.96602E+03 -3.74079E+03  3.31697E+03 -9.37897E+03  3.68068E+03
 -1.77542E+04 -1.22502E+03 -1.98076E+04 -1.16849E+04 -2.16970E+01 -1.65622E+04 -5.43256E+02 -1.66578E+04
  9.14513E+03 -8.86080E+03  1.52272E+04 -4.71637E+03  4.25333E+03  1.21032E+04 -8.48357E+03 -1.14095E+03
 -1.28865E+04 -9.95876E+03 -4.10498E+02 -2.10595E+04  1.43141E+04 -1.46424E+04  2.76271E+04 -1.15193E+04
  2.65170E+04  2.97871E+03  2.16207E+04  1.67389E+04  8.82874E+03  2.57529E+04 -7.90803E+03  1.49872E+04
 -1.34742E+04 -1.24610E+02 -7.61450E+03  1.02811E+02  7.89235E+02 -6.19311E+03  9.85827E+03  2.29346E+02
  6.32593E+02  1.52534E+04 -3.19974E+03  1.55973E+04 -1.63040E+04  1.82268E+04 -1.84980E+04  1.03131E+04
 -1.70168E+04 -9.44396E+03  3.90684E+03 -1.30076E+04  9.09939E+03 -3.22188E+03  8.79861E+03  1.31460E+03
  1.15851E+03  8.47789E+03 -1.11096E+04  1.37845E+04 -1.53735E+04  4.75244E+03 -1.93860E+04 -1.74499E+03
 -6.81566E+03 -1.51983E+04  8.06123E+03 -1.86173E+04  2.03866E+04 -1.23926E+04  2.33741E+04  8.44263E+03
  1.28118E+04  1.79757E+04 -4.97038E+03  2.64033E+04 -4.22441E+03  5.07405E+03 -1.82556E+04  5.32707E+03
 -9.03891E+03 -1.01303E+04  1.05480E+03 -9.60185E+03  4.69692E+03 -4.96949E+03  9.43060E+03 -6.18192E+03
  2.99141E+03  3.23864E+03 -3.31604E+03 -7.78347E+02  5.03188E+03 -6.44418E+03  6.66960E+03 -9.04391E+03
  1.75382E+04 -9.89783E+02  1.73730E+04 -1.08844E+03  2.27334E+04  7.16026E+03  1.98965E+04  2.70175E+04
 -4.24274E+03  2.66017E+04 -2.49781E+04  1.96480E+04 -2.89346E+04  5.70520E+03 -2.74794E+04 -1.10677E+04
 -1.10022E+04 -1.84089E+04  2.39000E+03 -1.53950E+04 -2.06464E+03 -1.13307E+04 -1.82004E+02 -4.19652E+03
  3.03574E+03 -5.23349E+03  1.87918E+03 -8.52746E+03  9.57199E+02 -4.62894E+01  9.01893E+03 -4.95135E+03
  1.64350E+04 -1.76611E+03  1.01959E+04  1.59341E+04 -5.38667E+03  1.18438E+04 -2.11448E+04  1.72536E+04
 -2.33199E+04 -5.81152E+03 -1.48293E+04 -7.54605E+03 -5.18334E+03 -1.28756E+04  2.04432E+04 -1.17097E+04
  1.14314E+04 -1.22412E+04  2.61818E+04  5.17766E+03  1.47715E+04  1.07852E+04  5.29493E+03  2.78036E+04
 -9.72390E+03  1.48246E+04 -1.68253E+04 -1.40984E+03 -4.55511E+03 -4.36863E+02 -5.21395E+03 -3.13058E+03
 -7.15409E+03 -3.37460E+03 -4.68748E+03  4.83627E+03 -8.26878E+03  6.90146E+03 -1.49600E+04 -5.97915E+03
 -9.83471E+03 -1.49517E+04  9.32010E+02 -1.77897E+04  1.07717E+04 -1.75210E+04  1.84274E+04 -9.93141E+03
  1.57857E+04  8.99618E+03  1.03133E+04  1.37126E+04 -2.25727E+03  1.83726E+04 -8.90316E+03  8.82080E+03
 -1.55566E+04  5.89237E+03 -1.42927E+04 -1.48544E+04  3.48566E+02 -1.19985E+04  6.72672E+03 -1.30726E+04
  6.09099E+03 -8.40081E+03 -4.38216E+02  4.86010E+03  6.82111E+03  6.64404E+03 -3.05150E+03  2.77931E+03
  5.12887E+03 -4.52075E+02  5.23320E+03  1.37432E+02  9.40250E+03 -1.10934E+03  7.00255E+03  8.84616E+03
 -4.52652E+03  6.34385E+03 -1.61236E+04  1.25232E+04 -1.67123E+04  3.44103E+02 -2.20544E+04 -8.54438E+03
 -6.67189E+03 -2.05041E+04  3.42175E+03 -1.94629E+04  1.09024E+04 -1.84975E+04  1.70095E+04 -1.01838E+04
  9.97632E+03  6.75179E+03  7.01571E+03  1.15121E+04 -4.29137E+03  1.02239E+04 -5.27813E+03 -2.86251E+02
 -9.78588E+03 -9.27972E+03  3.03357E+03 -6.04990E+03  9.67319E+03  1.22970E+03  1.21969E+04  3.53581E+03
  6.44084E+03 -1.73629E+03 -3.44366E+03  4.95934E+03 -2.67212E+03 -1.26468E+03  1.45216E+03 -4.24290E+03
  3.81706E+02 -4.96305E+03  5.72320E+03  8.53272E+03  5.88450E+03  1.20102E+04  5.16540E+03  1.39763E+04
 -6.39761E+03  1.45954E+04 -1.47039E+04  5.42834E+03 -1.24474E+04 -5.75699E+03  1.78386E+02 -7.94278E+03
  3.19501E+03 -4.86667E+03  6.57184E+03 -9.93227E+03  1.21486E+03  2.78236E+03 -3.03141E+03  7.37626E+03
 -6.50370E+03  7.07944E+03 -1.48079E+04  1.70024E+03 -1.05742E+04 -1.25616E+04  2.45866E+03 -8.85507E+03
  4.36100E+03 -4.80136E+03  5.80098E+03 -1.13049E+03  3.49064E+03  7.04286E+01 -3.44070E+03  4.72040E+03
 -1.58512E+03 -3.26238E+03 -6.12727E+03 -7.82963E+03 -1.45830E+03 -1.58155E+04  1.23769E+04  1.23291E+03
  1.70443E+04  4.25690E+03  1.07206E+04  1.17786E+04  3.95441E+03  9.72904E+03 -7.44801E+03  1.10762E+04
 -1.31108E+04  4.01481E+03 -1.86767E+04 -3.18491E+03 -6.90272E+03 -1.13339E+04  1.02310E+04 -6.79635E+03
  5.27837E+03 -1.07986E+03  7.67360E+03 -6.01953E+03  2.41847E+03  6.52547E+03 -7.92668E+02  2.36906E+03
 -6.79985E+03  8.36514E+03 -1.48294E+03 -5.90968E+02  2.28084E+03  3.60342E+03 -2.17381E+03  3.86039E+03
 -6.78268E+03  9.90404E+02 -1.08140E+04  1.16433E+02 -7.83953E+03  2.14953E+03 -1.63688E+04 -2.03868E+03
 -1.43994E+04 -1.72487E+04 -4.03523E+03 -1.00822E+04  7.82974E+03 -1.61138E+04  2.15127E+04 -7.32612E+03
  1.23561E+04 -1.31471E+03  1.23886E+04  1.08709E+04 -1.42890E+03  1.70770E+04 -6.86883E+03  6.68144E+03
 -4.95058E+03  6.26885E+03 -8.87326E+02 -1.43748E+03 -7.10310E+03 -4.03030E+03 -2.44222E+03 -1.11548E+03
  2.21296E+03  5.24903E+03  1.17011E+03  3.59882E+03  3.16063E+03  1.45486E+03  3.61320E+03 -9.84409E+03
  8.39828E+03 -9.15229E+03  1.43040E+04 -1.24591E+03  9.10626E+03  2.32270E+03  5.97816E+03  1.05732E+04
  3.89931E+03  1.61847E+04 -1.41336E+04  6.33294E+03 -9.36095E+03 -6.14578E+03 -1.32974E+04 -8.98612E+03
 -5.44687E+02 -1.50563E+04  5.35624E+03 -9.34053E+03  4.57371E+03 -7.54133E+03  3.73914E+03 -2.63845E+03
  4.58952E+03  4.47476E+03  9.62529E+02  2.53981E+03 -3.95781E+03 -6.35442E+02 -1.95297E+03 -3.24335E+03
  1.78624E+03  3.20488E+03 -1.37944E+02  2.21941E+03  1.76168E+02  8.53843E+03 -1.63623E+02  2.97558E+03
 -4.56618E+03  4.64495E+03 -1.08863E+04 -6.13515E+03 -9.54288E+03 -1.14849E+04 -4.02311E+03 -1.63412E+04
 -3.46333E+03 -3.12355E+03  1.54419E+04  1.73514E+03  1.12123E+04  1.10004E+03 -9.22370E+02  1.66838E+04
  4.35723E+03  1.06456E+04 -6.17350E+03  5.73164E+03 -1.29489E+04  8.63650E+02 -9.31798E+02 -6.44076E+03
 -2.32575E+03  3.67336E+03 -1.68925E+03 -5.32995E+03 -1.16910E+04  2.68444E+03 -1.67630E+04 -3.82169E+03
 -3.12264E+03 -3.97964E+03 -1.55566E+03 -8.74640E+03 -2.51019E+03 -6.51575E+03  1.20798E+04 -1.10559E+04
  1.47211E+04  5.23652E+03  8.93817E+03  5.97592E+03  1.87299E+03  1.32170E+04 -4.95792E+03 -1.25433E+03
