 $NMID ID='MM_0lb_SNR50_8hz_g55_46.RAW', FMTDAT='(8E13.5)'
 TRAMP=1., VOLUME=1. $END
  3.02059E+05 -4.97470E+03  3.39623E+05  2.52364E+05  8.23006E+04  3.45749E+05 -1.33035E+05  2.47690E+05
 -1.82852E+05  8.75449E+04 -1.10231E+05 -3.18424E+04  2.78484E+03 -4.97969E+04  5.78315E+04  2.05897E+02
  3.35989E+04  5.65270E+04 -1.63451E+04  7.69736E+04 -6.24640E+04  6.75303E+04 -8.49930E+04  3.04110E+04
 -8.26415E+04 -9.14662E+03 -6.58463E+04 -5.40524E+04 -1.83024E+04 -6.89257E+04  2.44216E+04 -4.59327E+04
  4.07492E+04  7.24078E+03  1.63179E+04  5.17101E+04 -4.10932E+04  5.07239E+04 -6.78506E+04  5.56396E+02
 -5.41112E+04 -5.61892E+04 -6.66849E+03 -7.83766E+04  3.93463E+04 -5.77149E+04  5.30230E+04 -2.04485E+04
  5.41322E+04  1.27258E+04  3.59602E+04  2.98859E+04  2.18139E+04  3.14706E+04 -6.40244E+03  2.33469E+04
 -2.54443E+04  1.77176E+04 -1.51939E+04 -7.12015E+03  9.14578E+03 -7.52294E+03  2.11986E+04  1.60218E+04
  2.81649E+03  3.69158E+04 -3.45073E+04  3.98587E+04 -6.56834E+04  1.50714E+03 -6.07546E+04 -4.66588E+04
 -1.72909E+04 -7.16747E+04  4.70280E+04 -4.54648E+04  6.43835E+04  2.55771E+03  3.49918E+04  3.81422E+04
 -8.78119E+03  3.70075E+04 -3.16210E+04  2.24421E+04 -4.02506E+04 -3.97232E+03 -2.74363E+04 -1.10630E+04
 -8.88106E+03 -1.09283E+04  1.16091E+03 -1.98113E+04  9.82892E+03 -2.56968E+04  2.00102E+04 -1.61045E+04
  8.77194E+03  8.91106E+03 -1.09530E+04  8.85001E+03 -2.44108E+04 -9.45308E+03  1.94794E+03 -4.14977E+04
  2.22191E+04 -4.73040E+04  5.08369E+04 -1.87465E+04  4.25701E+04  2.38904E+04  2.10187E+04  4.73199E+04
 -1.39974E+04  3.67087E+04 -3.64462E+04  3.04925E+03 -5.15439E+03 -3.57531E+04  2.68975E+04 -2.91059E+04
  4.87901E+04 -1.19849E+04  4.27437E+04  2.36886E+04  2.35814E+04  5.13245E+04 -7.08224E+03  5.61928E+04
 -3.87403E+04  3.78272E+04 -4.85111E+04  1.08575E+04 -5.15522E+04 -1.82932E+04 -2.19435E+04 -4.13812E+04
  1.21612E+04 -4.73960E+04  4.01606E+04 -2.28710E+04  3.73365E+04  1.46354E+04  7.47438E+03  2.60292E+04
 -1.51301E+04  4.08795E+03 -1.58860E+04 -7.96773E+03 -1.92274E+03 -7.42491E+02  2.54627E+04  4.57619E+03
  1.87332E+04  2.18897E+04 -5.13519E+03  3.35940E+04 -2.21817E+04  2.47725E+04 -3.59192E+04 -5.29598E+03
 -3.34668E+04 -2.08865E+04 -1.03555E+04 -2.46158E+04  2.42087E+03 -2.36305E+04  2.62156E+04 -2.55015E+04
  2.85631E+04 -9.15369E+03  3.75451E+04  7.78669E+03  2.46430E+04  2.57316E+04  1.11898E+04  4.22568E+04
 -2.48501E+04  3.85804E+04 -3.11444E+04  1.21335E+04 -2.47964E+04 -1.16258E+04 -1.21463E+03 -1.52761E+04
 -4.74132E+03 -5.89779E+02 -7.82991E+03  6.33948E+03 -2.05065E+04  4.38877E+03 -2.22824E+04 -1.36083E+04
 -9.01868E+03 -2.87219E+04  9.80537E+03 -3.22188E+04  2.17796E+04 -2.33740E+04  2.76323E+04 -2.99641E+02
  1.04859E+04  1.95218E+04 -3.41126E+03  2.68640E+04 -2.30655E+04  6.25882E+03 -2.34348E+04 -2.39303E+03
 -1.79566E+04 -2.15775E+04 -6.50050E+03 -2.61919E+04  9.17475E+03 -2.76935E+04  2.68389E+04 -1.23796E+04
  2.78376E+04 -2.73171E+03  1.68703E+04  9.65840E+03  8.17177E+03  7.77570E+03  2.10611E+04 -1.55602E+03
  2.39771E+04  3.54859E+03  2.89810E+04  2.04491E+04  2.50310E+04  3.29588E+04 -1.27593E+04  4.29750E+04
 -2.96671E+04  4.11287E+04 -3.68738E+04  1.78306E+04 -4.90042E+04 -4.40429E+03 -3.65755E+04 -2.88187E+04
 -1.93620E+04 -4.17886E+04  1.79886E+04 -3.40512E+04  2.78396E+04 -1.49387E+04  3.44393E+04  3.95487E+03
  8.16377E+03  1.71436E+04 -1.35917E+04  1.53940E+04 -1.79934E+04  3.18116E+03 -2.11712E+04 -8.86404E+03
  2.49481E+02 -1.72792E+04  1.39633E+04 -1.30011E+04  7.85969E+03 -3.68531E+03 -1.72788E+02  4.41997E+03
 -8.82628E+03  5.09209E+03 -7.91491E+03 -4.64523E+03  2.84431E+03 -2.20803E+04  1.32005E+04 -2.15726E+04
  3.38123E+04 -1.46596E+04  2.61677E+04  6.64260E+03  2.03787E+04  1.94906E+04  7.09362E+03  2.75154E+04
 -7.67274E+03  3.11611E+04 -2.36095E+04  1.64881E+04 -2.39455E+04  7.50680E+03 -1.74722E+04 -1.47109E+03
 -1.69518E+03 -1.10917E+04  2.70460E+03 -7.03564E+02 -1.42703E+03  5.35747E+03 -7.01762E+03  1.19396E+04
 -1.71085E+04 -2.07989E+03 -7.33612E+03 -1.38718E+04 -4.87923E+03 -2.03179E+04  9.47602E+03 -1.85985E+04
  9.65046E+03 -1.20437E+04  1.59233E+04  2.96280E+03 -5.84567E+02  9.81738E+03 -4.32594E+03  3.33187E+03
 -3.03898E+03 -7.28760E+03 -1.91539E+03 -1.18725E+04  1.01356E+04 -1.64553E+04  1.69393E+04 -7.58796E+03
  2.97824E+04 -3.61654E+03  1.49532E+04  1.70335E+04  2.98244E+03  2.00855E+04 -1.70494E+04  1.44378E+04
 -1.58021E+04  2.35225E+01 -3.93664E+03 -6.81190E+03  1.68999E+03 -8.18246E+03  7.30555E+03  1.69883E+02
  1.42079E+04  5.93159E+03  4.20625E+03  1.50199E+04 -1.02582E+04  1.20087E+04 -1.57252E+04 -3.67255E+01
 -8.25421E+03 -1.01586E+04  5.27085E+03 -1.56615E+04  8.33666E+03 -5.26339E+03  6.58863E+03  5.73927E+03
  2.95246E+03  1.47909E+04 -5.51928E+03  1.47151E+04 -1.76775E+04  3.53941E+02 -1.28602E+04 -7.19857E+03
 -1.11639E+04 -1.37451E+04  5.47067E+03 -2.41599E+04  2.41608E+04 -1.26786E+04  2.65136E+04  3.55441E+03
  1.09214E+04  1.77679E+04  3.70048E+02  1.77817E+04 -1.52163E+04  1.00180E+04 -8.86147E+03 -1.26458E+03
 -9.92860E+03 -1.37303E+04 -8.18761E+03 -1.51603E+04  1.30671E+04 -8.29597E+03  9.35044E+03 -5.16000E+03
  6.50746E+03 -2.10031E+03  4.07487E+02  4.42560E+03 -1.13546E+03 -1.02501E+04  2.75795E+03 -1.10660E+04
  1.48807E+04 -8.67017E+03  1.61287E+04 -5.08246E+03  1.33728E+04  9.79802E+03  1.01970E+04  2.44592E+04
 -5.70820E+03  2.89631E+04 -2.75341E+04  2.26174E+04 -2.79738E+04  2.27990E+03 -2.29594E+04 -1.30471E+04
 -2.23745E+04 -1.86254E+04 -3.64068E+03 -1.55940E+04  4.34242E+03 -7.53352E+03  1.10369E+04 -2.87215E+03
  7.85920E+03  2.33775E+03 -1.59346E+03  5.44927E+03  6.08691E+03 -4.08812E+03  1.35102E+04  1.84369E+03
  1.13236E+04 -5.37717E+02  1.22389E+04  1.29388E+04 -7.18371E+03  9.47456E+03 -1.40185E+04  1.46822E+04
 -1.44217E+04 -1.00860E+04 -1.26118E+04 -3.04883E+03 -3.43028E+03 -1.55157E+04  1.65889E+03 -1.58564E+04
  2.26255E+04 -7.38615E+03  2.16495E+04 -1.04800E+03  1.47854E+04  9.55391E+03  3.46800E+03  1.80381E+04
 -1.33484E+04  1.69938E+04 -1.71024E+04 -1.40672E+03 -6.56164E+03  5.45334E+03  1.31356E+03 -5.64727E+03
  2.37432E+03 -1.14065E+03 -2.18157E+03  6.63524E+03 -1.72428E+04  6.87494E+03 -8.70057E+03 -4.74588E+03
 -3.61104E+03 -1.33159E+04 -2.69352E+03 -1.95348E+04  8.77267E+03 -1.59384E+04  1.32734E+04 -4.40669E+03
  1.63006E+04  1.15395E+04  6.18933E+03  2.07708E+04 -2.86758E+03  2.90711E+04 -1.10990E+04  8.96729E+03
 -9.62924E+03  3.20055E+03 -1.71311E+04 -1.41759E+04 -5.97150E+03 -1.21070E+04  1.20049E+04 -1.42236E+04
  1.08150E+04 -3.42182E+03  1.51490E+04  6.02981E+03  7.78444E+02 -1.97605E+03 -3.45773E+03  7.22553E+03
  6.84271E+03 -2.40877E+02  3.87069E+03  4.98414E+03  1.39612E+04  3.27039E+03  1.47730E+03  1.44512E+04
 -1.59364E+03  8.63138E+03 -9.62691E+03  1.76956E+04 -1.80137E+04  8.58274E+02 -1.97801E+04 -8.30960E+03
 -1.03016E+04 -1.75649E+04  6.82528E+03 -2.13193E+04  7.72546E+03 -1.06995E+04  2.07600E+04  6.04261E+03
  1.56557E+04  1.87060E+03  4.16202E+03  5.53798E+03 -1.99200E+03  7.65233E+03 -5.62245E+03 -3.22493E+03
  2.70291E+03 -7.32212E+02  7.03709E+03 -4.93861E+03  5.03073E+03 -3.12174E+03  1.48342E+04  3.80038E+03
  6.26391E+02 -4.21837E+03  1.10718E+03  5.41286E+03 -8.29893E+03  3.18604E+03  7.63599E+03 -4.29889E+03
  2.74402E+03  1.41706E+03  1.07016E+04  5.48814E+03 -1.24526E+03  3.32050E+03  1.18263E+03  1.12665E+04
 -1.28979E+04  1.25554E+04 -9.14835E+03  8.44033E+03 -7.65531E+03 -1.05425E+04 -8.11982E+03 -1.99426E+03
 -5.06133E+03 -5.92276E+03 -5.82043E+02  2.83828E+03  5.68838E+03  2.92464E+03 -3.89461E+03  7.12958E+03
 -4.86379E+03  2.68761E+02 -1.31883E+04 -2.94731E+03 -1.16268E+04 -1.53055E+04  5.86236E+02 -1.76509E+03
  9.62721E+03 -2.04318E+03  1.18034E+04  1.17763E+03  1.72944E+03 -1.06984E+02  1.25263E+03  2.28830E+03
 -3.15805E+03  5.98822E+03 -5.01894E+03 -1.53386E+04  1.07858E+03 -1.32992E+04  3.06418E+03 -1.88391E+03
  6.90110E+03  5.08967E+03  1.09922E+04  4.17159E+03  5.69216E+02  1.50091E+04 -5.85051E+03  1.04960E+04
 -1.07973E+04  1.17368E+03 -1.38053E+04 -5.96805E+03 -1.53678E+04 -4.71823E+03 -1.27546E+03 -1.59375E+03
  7.93550E+03 -1.88666E+03  5.75085E+03  9.88490E+03 -5.37961E+03  9.65921E+03 -4.46134E+02  1.17858E+04
  2.45300E+02  3.92576E+03 -5.81749E+03 -1.95779E+03  1.13662E+03 -4.35316E+03 -5.77072E+03  3.44824E+03
 -9.06249E+03  9.32510E+03 -4.88636E+03  3.94899E+03 -1.25084E+04  8.57351E+02 -9.10707E+03 -7.40374E+03
 -9.99979E+03 -1.91386E+04  1.49037E+03 -1.33386E+04  9.70988E+03 -1.53894E+04  2.23771E+04 -1.09730E+04
  2.69551E+04  7.02972E+03  7.04707E+03  1.02815E+04  4.76478E+02  1.15159E+04 -6.26713E+03  7.52135E+03
 -9.74732E+03  6.67904E+03 -6.43305E+03  2.85647E+03  6.42856E+02 -3.65386E+03 -1.56024E+03 -3.95280E+03
 -6.42833E+03  5.01902E+03  2.64116E+02 -4.25082E+03  5.69085E+02 -1.54522E+03  4.33266E+03 -5.36264E+03
 -4.41457E+03 -1.63297E+03  7.67891E+03 -6.73943E+02  3.28986E+03  5.88308E+03  3.51963E+03  1.46772E+04
 -5.55799E+03  1.38157E+04 -1.19440E+04  4.07618E+03 -2.06275E+04  6.16994E+03 -1.98270E+04 -8.83285E+03
 -6.42175E+03 -1.33604E+04  5.63164E+03 -1.25374E+04  9.31993E+03 -9.51668E+03  7.46252E+03 -5.91336E+02
 -1.09078E+03  8.35127E+03  3.91035E+03  6.04451E+03 -9.97226E+02  1.19571E+03  9.67742E+02 -4.34985E+03
  5.37106E+03 -1.00152E+03  2.12601E+03  3.28073E+03  2.05080E+03  8.46055E+02 -3.62250E+03  7.97346E+03
 -1.34880E+04  1.39234E+04 -1.52688E+04  2.85514E+03 -7.44021E+03 -7.06634E+03 -6.82174E+03 -1.02951E+04
  5.95246E+03 -4.50015E+03  1.66003E+04 -4.71977E+03  5.13479E+03 -2.19186E+03  9.90261E+03  1.40014E+03
  3.78380E+03  1.17732E+04 -6.23461E+03  1.13115E+04 -1.68183E+03  8.89494E+02 -3.89678E+03 -4.20311E+03
  1.12424E+03 -1.11703E+03 -2.03480E+03 -1.42703E+02 -2.09469E+02  7.48844E+03 -7.66731E+03 -6.27581E+03
 -8.26140E+03 -4.89764E+03  4.81739E+02 -9.61626E+03  3.92033E+03 -6.72839E+03 -5.59020E+02 -5.81762E+03
  6.57411E+03 -2.25931E+03  7.54826E+03 -1.28223E+03 -7.64289E+03  9.33637E+03 -5.37171E+03  7.58557E+03
