 $NMID ID='MM_0lb_SNR50_14hz_g50_29.RAW', FMTDAT='(8E13.5)'
 TRAMP=1., VOLUME=1. $END
  3.16705E+05  2.54177E+03  3.30779E+05  2.45356E+05  8.60720E+04  3.37459E+05 -1.29306E+05  2.54150E+05
 -1.85894E+05  7.99095E+04 -1.10013E+05 -3.08817E+04  1.66458E+03 -5.11577E+04  5.49833E+04 -1.13936E+03
  2.96723E+04  5.22151E+04 -2.02536E+04  7.63378E+04 -6.18741E+04  6.21176E+04 -8.20548E+04  2.64965E+04
 -8.22951E+04 -6.77311E+03 -5.72801E+04 -5.31516E+04 -1.16085E+04 -7.01356E+04  2.86967E+04 -4.67663E+04
  3.71335E+04  4.82282E+03  1.55824E+04  4.35509E+04 -3.25558E+04  4.85394E+04 -6.99304E+04 -5.76742E+02
 -5.79990E+04 -4.98307E+04 -5.92935E+03 -7.25643E+04  3.45233E+04 -5.26462E+04  4.54946E+04 -1.92935E+04
  4.16520E+04  6.73281E+03  3.10868E+04  2.34808E+04  1.49987E+04  3.26816E+04 -1.81052E+03  2.49686E+04
 -2.18949E+04  1.66765E+04 -1.86653E+04 -2.71344E+03  1.02975E+04 -3.79106E+03  2.33396E+04  1.36852E+04
  5.36418E+03  3.73166E+04 -3.32084E+04  3.83250E+04 -6.28343E+04 -1.99185E+03 -5.73875E+04 -3.97110E+04
 -1.30859E+04 -6.26617E+04  3.74292E+04 -4.53305E+04  5.77349E+04 -2.97229E+02  3.52834E+04  2.95657E+04
 -2.15411E+03  3.19411E+04 -2.57384E+04  1.59901E+04 -3.48342E+04 -2.54497E+03 -1.42775E+04 -9.73872E+03
 -6.38929E+03 -1.68755E+04  2.41063E+02 -1.54631E+04  1.00094E+04 -2.40628E+04  1.66243E+04 -1.17934E+04
  8.38737E+03  4.17163E+03 -6.54990E+03  1.32723E+04 -1.65353E+04 -3.16955E+03 -7.39980E+03 -3.43262E+04
  2.17829E+04 -3.81141E+04  4.79311E+04 -1.89980E+04  4.23289E+04  2.37883E+04  1.32110E+04  4.41883E+04
 -1.52173E+04  3.08361E+04 -2.22766E+04  1.74393E+03 -1.09473E+04 -2.11862E+04  2.19249E+04 -3.21026E+04
  4.36693E+04 -7.93435E+03  3.67395E+04  2.65631E+04  1.32479E+04  4.78575E+04 -1.07887E+04  5.16398E+04
 -2.81017E+04  3.36670E+04 -4.43823E+04  1.07964E+04 -4.01403E+04 -1.56647E+04 -2.10899E+04 -3.48559E+04
  6.11269E+03 -3.69938E+04  3.02917E+04 -1.43302E+04  2.45174E+04  6.66372E+03  6.80143E+02  1.91346E+04
 -1.84881E+04  1.11700E+04 -9.46201E+03 -6.71190E+03  8.58796E+03 -1.13903E+04  1.89098E+04  4.55650E+03
  1.07241E+04  1.91356E+04 -3.00647E+03  2.42669E+04 -2.40425E+04  1.37572E+04 -2.90819E+04 -7.45222E+03
 -1.70671E+04 -1.88449E+04 -8.29917E+03 -1.80627E+04  5.41778E+02 -1.71754E+04  1.75455E+04 -2.29977E+04
  2.55449E+04 -1.22247E+04  3.66796E+04 -2.02909E+03  2.38564E+04  1.71089E+04  1.61913E+03  3.83666E+04
 -1.74954E+04  2.89160E+04 -3.19343E+04  1.47639E+04 -2.31627E+04 -5.51972E+03 -6.33254E+03 -1.68461E+04
 -5.73314E+03 -3.36528E+03 -1.05957E+03  6.72514E+03 -1.72747E+04  1.04058E+04 -1.71745E+04 -7.16844E+03
 -1.00117E+04 -2.03962E+04  5.47269E+03 -2.77800E+04  2.22615E+04 -1.62136E+04  1.72820E+04  6.03244E+02
  9.08190E+03  1.14827E+04  9.95497E+02  2.44723E+04 -1.30496E+04  1.25546E+04 -1.92239E+04 -2.53940E+03
 -1.14256E+04 -2.09647E+04  2.40130E+03 -2.33602E+04  1.02114E+04 -1.60281E+04  1.90539E+04 -8.85667E+03
  1.39516E+04  1.53662E+03  8.19799E+03  7.87392E+03 -5.05128E+01  3.33926E+03  1.31647E+04 -3.22722E+03
  1.41639E+04  2.38225E+03  2.00263E+04  1.06828E+04  1.47516E+04  2.25793E+04 -5.80193E+03  3.46976E+04
 -1.54928E+04  2.96607E+04 -3.30036E+04  1.42398E+04 -2.95146E+04 -3.76985E+02 -2.93078E+04 -2.17335E+04
 -1.05990E+04 -2.72930E+04  1.26430E+04 -2.29309E+04  2.21548E+04 -1.35988E+04  2.42961E+04  7.07760E+03
  7.21169E+03  1.50210E+04 -9.75947E+03  1.58869E+04 -1.63671E+04  5.52412E+02 -1.59664E+04 -7.08266E+03
  2.54596E+03 -1.41243E+04  1.11999E+04 -1.25745E+04  1.28362E+04 -4.64140E+02  3.42681E+02  3.11585E+03
 -8.33996E+03  5.99275E+03 -9.20443E+03 -3.82670E+03  3.00039E+02 -1.78605E+04  1.02626E+04 -1.50601E+04
  1.93417E+04 -9.48328E+03  1.70172E+04  7.12182E+03  1.71294E+04  1.12583E+04  2.72352E+03  1.71800E+04
  2.16910E+02  2.12979E+04 -1.35676E+04  1.16350E+04 -1.11640E+04  6.51955E+03 -9.13944E+03 -4.50888E+03
 -4.14989E+03 -5.08496E+03 -3.32587E+02  5.72505E+03 -9.26804E+02  1.26378E+03 -3.57521E+03  6.58472E+03
 -5.98629E+03  3.54920E+03 -1.38628E+04 -1.22349E+04 -4.41984E+03 -1.56423E+04  5.78408E+03 -1.83899E+04
  1.57128E+04 -5.30826E+03  8.80851E+03  1.62323E+03  7.04163E+02  8.04737E+03 -6.69331E+03 -1.38187E+03
 -5.12152E+03 -6.29508E+03  2.20170E+03 -1.00561E+04  4.47901E+03 -1.04385E+04  1.44564E+04 -8.01669E+03
  1.95358E+04 -7.58989E+02  1.24815E+04  1.11742E+04  3.62396E+03  1.59198E+04 -6.33261E+03  7.81596E+03
 -1.30228E+04  5.29371E+03 -4.98856E+03 -1.99541E+03 -5.67835E+02 -1.76524E+03  6.22994E+03  3.20115E+03
  6.75734E+03  4.85824E+03  1.78735E+03  1.09083E+04 -9.85230E+03  7.71292E+03 -9.33983E+03  1.93019E+02
 -5.12604E+03 -3.79109E+03  3.33656E+02 -8.55458E+03  6.53057E+03 -7.14501E+02  1.60276E+03  3.85313E+03
 -1.12065E+03  6.31774E+03 -7.77745E+03  3.07920E+03 -6.97233E+03  4.68351E+03 -1.09357E+04 -7.85621E+02
 -8.69330E+02 -6.15985E+03  1.97746E+03 -8.79154E+03  1.30124E+04 -9.91352E+03  9.71140E+03  3.33581E+03
  4.75168E+03  6.90531E+03 -4.48274E+03  1.40088E+04 -7.27045E+03  6.49272E+03 -3.71572E+03  2.76245E+03
 -1.49885E+04 -7.01728E+03 -4.52256E+03 -1.04701E+04  5.34371E+03 -8.73199E+03 -2.51516E+02 -6.54235E+03
  4.76990E+03 -2.46875E+03  2.31392E+03  5.18591E+02  2.57470E+03 -4.09406E+03 -2.68814E+02 -4.25094E+03
  8.56662E+03 -2.43662E+03  1.34411E+04  1.66174E+03  8.46182E+03  5.80188E+02  3.14874E+03  1.47098E+04
 -1.92555E+03  1.67592E+04 -9.56966E+03  1.21901E+04 -1.67669E+04  1.31564E+03 -1.26031E+04  7.82525E+02
 -6.14257E+02 -6.82663E+03  2.03203E+03 -8.64509E+03  1.23400E+03 -3.63609E+03  5.59220E+03 -1.32281E+03
  2.61729E+03 -2.66049E+03  6.12455E+03 -4.01031E+03  3.19854E+03 -4.02770E+03  3.41507E+03  6.85949E+02
  4.27063E+03 -2.51985E+03  5.72660E+03  1.45892E+03 -5.60650E+03  5.43143E+03 -1.21431E+04  2.14814E+03
 -9.03765E+03 -1.01235E+03 -4.16949E+03 -5.28815E+03  1.34228E+03 -5.77718E+03  1.94066E+03 -5.99676E+03
  9.95630E+03 -1.85667E+03  1.12940E+04 -3.05806E+03  7.71922E+03  8.42769E+03  5.68616E+03  3.29942E+03
 -5.12853E+03  5.49351E+03 -1.56732E+03  2.01045E+03 -3.03785E+03 -2.49897E+03 -5.92701E+03  3.38784E+02
  3.63055E+02  6.05241E+02  2.69499E+03  4.35784E+03  1.02105E+03 -1.47527E+02 -9.41664E+03 -1.99631E+03
  2.84449E+03 -9.49156E+03 -5.09519E+02 -7.88072E+03  3.29389E+03 -9.22583E+03  1.01629E+04  1.95556E+03
  7.33315E+03  2.70117E+03  1.00026E+04  4.28256E+03  7.52430E+02  1.14990E+04 -4.02218E+03  1.02447E+03
 -7.14949E+03 -4.95189E+02 -8.44873E+03 -1.67439E+03 -4.59911E+03 -3.84821E+03 -3.65156E+03 -3.81298E+03
  2.47701E+03  3.22153E+03  2.29384E+03  3.15278E+03  3.23774E+03  9.27136E+02 -1.72927E+02 -3.33934E+03
  1.61298E+03  4.75482E+03 -1.73103E+03  1.45949E+02 -1.44371E+02  5.63038E+03 -3.11352E+02 -4.34838E+02
 -7.86167E+03  4.69932E+03 -4.59224E+03  4.81837E+03 -4.96008E+03  1.58014E+03 -1.06015E+04 -3.17446E+03
 -1.34525E+03 -9.85872E+03  3.69350E+03 -1.20476E+04  1.63758E+03 -7.23329E+03  4.29974E+03 -1.83043E+02
  1.06326E+04 -2.27197E+03 -9.34200E+02  5.84385E+03 -7.14383E+03  1.66703E+02 -9.87806E+03  3.36078E+03
  1.79902E+03 -6.08169E+03  4.41851E+03 -3.22667E+03  5.83162E+03 -1.86627E+03  1.58168E+03  3.13356E+03
  3.34702E+03  1.02946E+03  3.55856E+02 -1.42030E+03  2.94276E+03  1.60581E+03 -7.03414E+02 -2.17455E+03
 -2.21488E+03 -5.51964E+02  7.20098E+03 -1.35990E+02 -2.13560E+03  7.18077E+03 -5.04713E+02  9.95887E+03
 -7.60285E+03 -5.52665E+03 -1.40918E+03  6.37673E+03 -1.54087E+03 -9.77783E+02 -5.10728E+01 -4.17442E+03
 -7.49524E+02 -3.79576E+02 -1.94693E+03 -2.53010E+03  5.24187E+03  2.10960E+03  3.35948E+02  3.18351E+03
 -1.63143E+03  1.51033E+03 -4.88607E+03  1.56613E+02  4.74790E+03 -1.64133E+03  1.11540E+03 -3.52415E+03
  2.58312E+03  1.36851E+03  3.87738E+03 -3.49361E+03  1.68777E+03  4.13542E+03  1.28660E+03  1.92441E+03
  8.31607E+02  1.61202E+02 -4.08049E+03 -2.53121E+03 -1.76520E+03  7.14396E+02  1.67312E+03  2.44464E+02
  7.00775E+03 -2.17438E+03  4.03859E+03  6.61224E+03 -1.24790E+03  5.37376E+03 -3.30489E+03  3.67291E+03
 -4.01157E+03  4.66135E+03 -8.88029E+02 -4.57262E+03 -1.51253E+03 -1.98101E+03 -4.98569E+03  4.01224E+03
  4.68998E+03 -3.38442E+03  6.90011E+02  1.98807E+03  7.04056E+02  3.32599E+03 -1.89787E+03  3.36419E+03
  4.32347E+02  8.62307E+02  1.48978E+03  2.61274E+03 -2.18320E+03  2.77628E+03 -3.93897E+03  2.84222E+03
 -9.97838E+02  7.13570E+03 -3.03411E+03 -1.99252E+03 -5.04594E+03 -7.92248E+02 -4.82340E+03 -4.13660E+03
 -1.36578E+03 -5.38362E+03  3.44250E+03 -2.70294E+03  3.90531E+03 -1.26686E+03  3.11146E+03  2.80306E+03
  8.03472E+03  3.29650E+03  4.45873E+03  1.39891E+03 -3.33703E+02  1.47987E+03 -3.23602E+03  4.07405E+03
 -4.38317E+03  4.79853E+02 -4.11466E+03 -1.76871E+03 -4.85143E+03  7.67204E+02  3.24452E+03  9.62513E+00
 -2.61935E+03  3.43422E+03 -8.97972E+02 -1.58395E+03  1.02699E+03 -4.91074E+03 -4.00033E+03 -8.02702E+02
  3.88380E+03 -1.25813E+03  2.83078E+03  4.30959E+03  6.11122E+03  2.56577E+03 -3.91288E+02  6.94818E+03
  1.06339E+03  9.13448E+03 -4.77538E+03  7.45564E+03 -8.02466E+03  1.11629E+03 -5.30139E+03 -4.04925E+03
  2.09891E+03 -4.49907E+03  2.73197E+03 -3.68034E+03  2.19680E+02 -3.83635E+02  4.23854E+02  2.39696E+03
  1.82129E+03  1.31105E+03 -3.72373E+03 -3.67460E+03 -2.91418E+03  6.48339E+03 -2.79951E+03  5.40567E+02
  4.25244E+03  1.75272E+03  4.70736E+03  2.80809E+03  3.88115E+02 -4.59660E+02  2.12520E+03  1.09329E+03
  3.37686E+01  5.28726E+03 -5.25073E+03  8.79664E+01 -3.84912E+03  2.58413E+03 -1.78891E+02 -4.03670E+03
  8.15469E+02 -3.26590E+03  1.03961E+02  2.34393E+03 -5.44721E+02 -8.62943E+02 -3.12595E+03  2.49277E+03
  9.93169E+01 -2.19076E+03 -9.39765E+02  2.89647E+03 -1.63020E+03 -1.45766E+03  6.16955E+02  2.79612E+03
 -6.71218E+03 -3.27679E+02 -4.86019E+03 -7.85866E+02 -2.49800E+02  4.22458E+03 -3.78548E+03 -2.42461E+02
 -4.29628E+02 -6.15134E+03 -4.82264E+03 -1.76348E+03  6.13254E+03  6.19958E+01 -3.85564E+03  3.31111E+03
  6.46472E+02 -2.44368E+03  1.75832E+02  1.69703E+03 -2.95094E+03  5.23617E+03 -3.71770E+03  4.07919E+03
