 $NMID ID='MM_0lb_SNR50_20hz_g45_80.RAW', FMTDAT='(8E13.5)'
 TRAMP=1., VOLUME=1. $END
  3.10187E+05 -1.22130E+03  3.36596E+05  2.49960E+05  8.49712E+04  3.36761E+05 -1.34198E+05  2.49840E+05
 -1.88068E+05  8.03281E+04 -1.15692E+05 -3.25792E+04  4.24766E+03 -4.90903E+04  5.56310E+04 -1.71369E+03
  3.14491E+04  5.14403E+04 -1.68816E+04  7.61426E+04 -6.16819E+04  5.99121E+04 -8.47733E+04  3.35309E+04
 -7.75815E+04 -1.05824E+04 -5.55704E+04 -4.93503E+04 -1.39684E+04 -6.68955E+04  2.34660E+04 -4.86632E+04
  4.19986E+04  4.10873E+03  1.70992E+04  4.60776E+04 -3.82021E+04  4.06039E+04 -6.69683E+04  3.44770E+03
 -5.12697E+04 -5.50492E+04 -7.94766E+03 -7.66325E+04  3.22503E+04 -5.25899E+04  4.82998E+04 -1.84894E+04
  4.09274E+04  1.08379E+04  2.88107E+04  2.20121E+04  1.40194E+04  2.73126E+04 -6.60551E+03  2.65554E+04
 -2.18260E+04  1.45882E+04 -1.85739E+04 -4.99793E+03 -2.75952E+03 -5.34586E+03  1.83093E+04  1.21113E+04
  6.57203E+03  3.45155E+04 -2.81051E+04  3.38168E+04 -6.31257E+04  3.98470E+02 -5.63903E+04 -3.69789E+04
 -1.28187E+04 -6.18275E+04  3.93225E+04 -4.25649E+04  5.31714E+04 -2.37404E+03  2.65007E+04  2.53818E+04
 -3.48743E+03  2.80600E+04 -2.63475E+04  1.43191E+04 -2.38625E+04 -5.66464E+03 -1.72640E+04 -1.45770E+04
 -7.48288E+03 -9.50277E+03 -8.63896E+02 -1.80676E+04  6.73099E+03 -2.04630E+04  1.44420E+04 -1.77880E+04
  1.60592E+04  3.52686E+03 -2.82991E+03  1.63876E+04 -1.95399E+04  2.22082E+02 -3.52855E+03 -2.79100E+04
  1.89062E+04 -4.01950E+04  4.36206E+04 -2.07602E+04  3.97662E+04  1.49869E+04  1.39565E+04  4.18163E+04
 -1.20336E+04  2.78557E+04 -2.17452E+04 -1.53202E+03 -1.10767E+04 -2.49242E+04  2.12836E+04 -3.11428E+04
  3.97176E+04 -9.45494E+03  3.12729E+04  2.48592E+04  1.47277E+04  4.49840E+04 -8.72130E+03  4.33810E+04
 -2.46892E+04  2.77316E+04 -3.39028E+04  1.15048E+04 -3.81981E+04 -1.44878E+04 -1.92118E+04 -3.65878E+04
  8.16992E+03 -3.14830E+04  2.75273E+04 -1.07251E+04  2.47103E+04  7.90387E+03  4.06519E+03  1.74976E+04
 -1.30476E+04  2.61284E+03 -8.79989E+03 -1.10838E+04 -7.70284E+02 -1.65013E+04  1.52936E+04  7.16784E+03
  1.45366E+04  2.39655E+04 -7.14391E+03  2.22742E+04 -1.89863E+04  1.10298E+04 -2.44835E+04 -6.16761E+03
 -1.94563E+04 -1.44648E+04 -7.22860E+03 -1.62213E+04  4.88619E+03 -1.22852E+04  9.47790E+03 -1.19463E+04
  2.14959E+04 -1.03637E+04  2.38708E+04  1.14776E+03  1.91563E+04  1.88755E+04  6.46323E+03  3.09541E+04
 -1.57815E+04  2.50022E+04 -2.80889E+04  9.46705E+03 -1.73927E+04 -5.35632E+03 -4.34575E+03 -8.98485E+03
  2.27412E+03 -8.88285E+03 -4.27941E+03  7.73217E+03 -1.45231E+04  8.06242E+03 -1.40578E+04 -3.88481E+03
 -4.89921E+03 -1.66529E+04  4.07374E+03 -1.88289E+04  9.39705E+03 -1.07681E+04  1.29679E+04 -4.30734E+03
  8.67907E+03  8.90059E+03 -7.74209E+02  1.40826E+04 -1.09752E+04  1.04571E+04 -1.41774E+04 -6.28335E+03
 -9.95070E+03 -1.42612E+04 -2.36972E+03 -1.84815E+04  8.59650E+03 -1.76711E+04  1.91869E+04 -5.25906E+03
  1.10569E+04  6.99648E+02  9.78258E+03  1.55025E+03  5.54865E+03  9.94084E+02  6.07669E+03  4.52584E+02
  7.81993E+03 -2.51023E+02  1.16347E+04  8.49891E+03  7.90349E+03  1.70898E+04 -3.63615E+03  2.44731E+04
 -1.43153E+04  2.13450E+04 -2.01195E+04  9.48237E+03 -2.43275E+04 -1.12176E+03 -1.92613E+04 -1.37252E+04
 -9.89339E+03 -1.80418E+04  5.40433E+03 -1.35266E+04  1.38697E+04 -9.69084E+03  1.77822E+04 -5.35334E+01
  4.51580E+03  1.02930E+04 -7.32705E+03  8.25666E+03 -1.11607E+04  2.38354E+03 -1.18583E+04 -6.25536E+03
  3.59276E+02 -1.18792E+04  5.72391E+03 -1.07260E+04  7.68723E+03 -1.90559E+03 -1.54386E+03  1.30168E+02
 -5.28403E+03  6.57064E+02 -3.31335E+03 -1.41805E+03  2.14947E+03 -1.20948E+04  6.86712E+03 -7.39129E+03
  1.22215E+04 -2.21443E+03  1.04162E+04  5.12843E+03  8.69593E+03  1.10897E+04  3.63676E+03  9.89601E+03
  1.24007E+02  1.55667E+04 -7.36410E+03  1.28333E+04 -9.10722E+03  3.88457E+03 -6.88966E+03  1.34809E+02
 -9.55317E+03 -2.79790E+03 -1.46170E+03  3.32688E+03 -3.62848E+03 -2.89508E+03 -1.10396E+03  1.04548E+03
 -8.50167E+03  1.33317E+03 -1.03866E+04 -6.26376E+03 -4.74269E+03 -1.29692E+04  7.15127E+03 -7.94918E+03
  8.05867E+03 -3.93631E+03  3.30560E+03  9.47211E+02  1.26264E+03  4.27485E+03 -4.43380E+03  5.80134E+00
 -2.33621E+03 -5.74510E+03 -2.62874E+03 -8.51340E+03  5.97812E+03 -5.74098E+03  1.01922E+04 -1.06203E+03
  1.19423E+04  3.21622E+03  4.88287E+03  5.10701E+03  1.24707E+02  8.20284E+03 -5.82649E+03  6.44577E+03
 -6.59263E+03  6.22267E+02 -2.32738E+03 -3.74038E+03 -1.56170E+02 -7.33306E+02  6.26144E+03 -1.80933E+03
  4.61684E+03  7.82933E+03  8.94136E+02  4.90802E+03 -5.42762E+03  8.14577E+03 -1.02698E+04  3.84482E+01
  4.80005E+02 -4.66412E+03  6.69672E+02 -6.37589E+03  2.32182E+03 -3.77155E+03  1.34407E+03  1.30033E+03
  1.18568E+03  1.85607E+03 -3.73817E+03  1.51370E+03 -3.38382E+03 -2.40581E+01 -3.78590E+03 -2.49471E+01
  2.02384E+03 -5.34285E+03 -2.79370E+03 -6.37449E+03  1.88237E+03 -2.97589E+03  8.11050E+03 -3.84014E+02
  7.02746E+03  6.95480E+03  2.25858E+03  5.00711E+03 -4.02526E+03  3.78358E+03 -3.64626E+03 -4.60709E+03
 -4.66303E+03 -3.89082E+03 -2.27046E+03 -8.21254E+03 -1.76181E+02 -1.53277E+03 -2.14000E+03 -3.50102E+03
  1.54731E+03 -1.59029E+03  1.11727E+03  5.87641E+02  3.54411E+02 -3.69857E+03 -2.29428E+03 -1.86297E+03
  4.71286E+03 -3.33532E+02  5.77447E+03  1.23827E+03  2.80086E+03  9.67050E+01  4.53820E+03  1.69463E+03
  1.69103E+03  7.32464E+03 -6.58486E+03  3.69892E+03 -7.85728E+03  6.90907E+02 -9.71604E+03  1.60483E+02
 -5.99048E+02 -7.24831E+03 -2.80421E+03 -5.06592E+03  3.31806E+03  8.70154E+02 -9.90145E+02 -2.25246E+03
  4.63134E+03 -5.16685E+02 -1.02600E+03 -2.27852E+03  4.48302E+03  1.32080E+03 -2.91542E+03 -3.05617E+03
  5.34184E+02 -2.92054E+03  2.70882E+03  1.73932E+03 -2.34097E+03  5.13072E+03 -2.68745E+03  1.63402E+03
 -5.36059E+03  2.79243E+03 -5.24277E+02 -6.63731E+03  3.48626E+03 -6.38910E+03  3.32071E+03 -3.45037E+03
  3.00615E+03 -3.03648E+03  7.41908E+03  3.01014E+03  9.38764E+03  2.24021E+03 -1.23903E+03  6.00809E+03
  7.70985E+02  5.13227E+03 -4.54715E+02  2.22670E+03 -7.52144E+02  4.06108E+02  1.49369E+02 -2.69710E+03
 -6.24837E+01 -1.09491E+03 -7.72445E+02  9.79011E+01  8.80667E+01 -4.34745E+02 -5.17110E+03 -1.72911E+03
  2.09759E+03 -2.52489E+03 -1.45868E+03 -6.81374E+03  1.67684E+03 -9.33721E+02  9.04137E+02 -3.10120E+03
  3.49557E+03  1.98309E+03  1.64657E+03  2.15894E+03 -1.29505E+03  3.56544E+03 -1.40881E+03  5.10586E+03
 -2.64708E+03  1.27189E+03 -6.13457E+02 -1.69898E+03  3.09744E+03 -2.82886E+03  4.38946E+03  1.97111E+03
  2.31159E+03  1.62509E+03 -1.49805E+03  3.15081E+03  6.46315E+03  4.31595E+02  4.01165E+03  6.44349E+02
  2.08540E+03  2.80818E+02 -2.69025E+01 -2.85245E+03  3.59396E+03  2.47355E+03  4.79388E+02 -4.08385E+03
 -1.33003E+03  4.72045E+03 -2.52257E+03  3.13106E+03 -4.82392E+03  7.40725E+03 -2.47383E+03  1.20740E+03
  2.20367E+03 -2.68683E+03  2.44968E+03 -5.18335E+03  3.83297E+03 -2.17258E+03  6.56930E+01 -1.50259E+03
 -1.74241E+03  1.63167E+03  2.25746E+03  5.04478E+03 -4.61980E+03  4.68113E+03  4.51779E+02 -1.80935E+02
  1.43938E+03 -1.49768E+02 -1.06666E+03 -8.49590E+02 -1.17056E+03 -2.30652E+03 -1.93849E+03  1.74406E+03
 -1.08483E+03  1.40238E+03  2.71393E+03  5.24104E+01  3.09650E+03 -2.74537E+03  2.96222E+03  1.83004E+03
  1.72687E+03  1.62702E+03 -4.54506E+02  5.11964E+02  7.38062E+02  2.12329E+03 -1.48394E+03  3.16245E+03
 -5.29330E+03  3.65903E+03 -2.13002E+03  2.18240E+03 -3.43129E+03  1.25400E+03 -3.49789E+01 -2.85381E+03
  1.01628E+03 -1.58361E+03 -2.48929E+03  9.30751E+02 -5.50995E+03  8.20905E+02 -2.67705E+02 -1.61885E+02
 -2.31825E+03  2.73598E+03 -1.38631E+03 -1.57606E+03 -4.64436E+03 -1.50884E+03  2.10024E+03  8.87068E+01
 -1.08132E+03  2.67524E+03  1.13595E+03 -2.14317E+03  2.92435E+03 -2.28199E+03  4.26527E+03 -1.25534E+03
 -3.27084E+02 -1.27904E+03  4.21787E+02  4.32151E+01  3.11480E+03  1.57052E+02  2.98439E+03 -4.53944E+03
 -2.82522E+03 -2.73950E+02  5.19488E+03 -1.36079E+03  1.61599E+03  2.46166E+03  2.23930E+02  1.17428E+02
 -9.51048E+02 -3.09283E+03 -1.62853E+03 -2.69209E+03 -3.14542E+03  3.23412E+03  3.29052E+03  1.11222E+03
  1.28831E+02  2.65758E+03  4.80405E+03 -2.09485E+03  2.30753E+02  1.63474E+03 -2.32223E+02  2.00787E+03
  3.35009E+02  3.94523E+03 -7.46150E+02  2.23367E+03  1.50913E+02  1.26479E+03  8.08218E+02 -2.45022E+02
  1.35406E+03 -2.11587E+03  9.59147E+02 -6.62806E+02 -1.62876E+03 -3.88009E+03 -3.05903E+03 -8.43799E+02
 -7.79620E+01  4.77558E+02  3.33665E+02 -1.77009E+03  4.88316E+03 -4.73724E+03 -1.19330E+02 -1.53928E+03
  7.22890E+02  4.08756E+03 -3.36476E+01  1.26997E+03 -5.71853E+02  1.05259E+03 -4.18522E+03 -6.64888E+02
  8.03689E+02 -3.48027E+03 -4.27754E+01  2.65970E+02 -1.63406E+02 -2.33186E+02 -5.60765E+02  1.69701E+03
  3.66673E+01  2.51957E+03  8.10766E+02  6.22773E+02 -3.95543E+01  5.49249E+02  7.88441E+01  1.46812E+03
 -1.96893E+03 -8.57183E+02 -3.69259E+02  2.51527E+03 -1.17514E+03  1.56483E+03 -3.77441E+02  3.14624E+03
 -1.96377E+03 -1.58234E+03  5.83987E+02  7.22608E+01 -5.89563E+03  1.77719E+03  4.69305E+03 -5.46079E+03
 -1.38414E+02  1.08884E+03 -2.68970E+03  1.95438E+03  4.28886E+02  1.47471E+03  2.75325E+03 -4.99833E+03
 -6.31648E+02  3.98728E+03 -8.85762E+02  8.92835E+02 -4.67414E+02  3.75184E+03  1.70617E+02 -7.08822E+02
  1.24514E+03 -2.63906E+02  1.04928E+03  2.11623E+03 -3.27373E+03  7.07157E+00  7.76468E+02  2.33274E+03
 -7.56801E+02 -1.03388E+03 -4.24813E+02  2.79121E+03 -1.71390E+03  3.52139E+03  1.46420E+03 -2.35057E+03
 -4.07508E+03 -1.03019E+03  3.70290E+03 -1.44890E+02 -1.72292E+03  4.70512E+03  2.18394E+02 -3.23642E+02
 -8.95895E+02  1.07356E+03 -3.86633E+03 -4.63582E+03 -6.03132E+03  8.89314E+02  3.69840E+03  1.63278E+03
 -9.29557E+02 -3.48945E+03  5.91359E+02 -1.87751E+02 -5.10508E+03 -1.31863E+03 -3.81535E+02  5.88533E+02
 -2.60688E+03 -7.11343E+03  5.30739E+02  5.61653E+00  1.66183E+03 -4.57659E+03 -1.64346E+03 -5.22639E+02
 -9.72710E+02 -1.89459E+03 -4.01741E+02 -2.45119E+02 -9.43845E+02  4.38536E+03  3.08131E+03  2.35875E+03
