 $NMID ID='MM_0lb_SNR50_7hz_g60_4.RAW', FMTDAT='(8E13.5)'
 TRAMP=1., VOLUME=1. $END
  3.14930E+05 -8.34153E+02  3.38478E+05  2.45941E+05  8.53450E+04  3.36930E+05 -1.36380E+05  2.56122E+05
 -1.88023E+05  8.19570E+04 -1.13018E+05 -3.21802E+04  4.07810E+02 -4.53077E+04  5.22754E+04  6.66470E+03
  3.40156E+04  5.44336E+04 -2.46252E+04  7.52971E+04 -6.55532E+04  6.42613E+04 -9.05285E+04  4.12585E+04
 -8.13729E+04 -1.55298E+04 -5.68871E+04 -4.94324E+04 -1.56149E+04 -6.47873E+04  2.20367E+04 -4.74944E+04
  4.26660E+04 -4.77014E+02  2.08371E+04  4.93946E+04 -3.61375E+04  4.98938E+04 -6.51598E+04  3.31085E+03
 -4.95608E+04 -5.43703E+04 -1.19739E+04 -7.35447E+04  3.33886E+04 -6.29897E+04  5.83589E+04 -1.68434E+04
  4.57582E+04  1.19060E+04  2.93534E+04  2.63852E+04  1.45067E+04  2.64332E+04 -9.03994E+03  3.11598E+04
 -2.35472E+04  1.68502E+04 -1.35884E+04 -2.45020E+03 -1.90891E+03 -1.14058E+04  2.28308E+04  1.16997E+04
  1.15013E+04  4.62377E+04 -3.64297E+04  3.61994E+04 -5.90175E+04  9.07289E+03 -5.81051E+04 -4.52243E+04
 -1.05893E+04 -6.79077E+04  4.66348E+04 -5.41447E+04  7.14655E+04 -1.00170E+04  3.67170E+04  3.92038E+04
 -5.32226E+03  4.68591E+04 -3.37180E+04  1.71285E+04 -3.05908E+04  2.74847E+03 -1.89063E+04 -7.65412E+03
 -1.09231E+04 -1.66437E+04 -4.21380E+03 -1.95911E+04  1.02610E+04 -2.21092E+04  1.89190E+04 -2.03051E+04
  6.98800E+03  3.79499E+03 -1.52673E+04  1.06612E+04 -1.37187E+04 -6.98784E+03 -8.14997E+03 -4.01569E+04
  2.78813E+04 -4.45632E+04  5.29540E+04 -2.43061E+04  5.68548E+04  2.67304E+04  1.98502E+04  4.88206E+04
 -1.68304E+04  4.01344E+04 -2.30879E+04  7.39461E+03 -1.56395E+04 -3.19162E+04  2.12486E+04 -4.33108E+04
  4.95255E+04 -1.60289E+04  3.97727E+04  2.06599E+04  2.13269E+04  5.52978E+04 -1.34787E+04  5.17579E+04
 -3.64094E+04  3.57133E+04 -4.59867E+04  8.71288E+03 -4.55062E+04 -2.43900E+04 -2.26664E+04 -5.10667E+04
  3.65203E+03 -5.10191E+04  3.71104E+04 -1.39007E+04  3.30791E+04  1.86278E+04  8.26017E+03  2.32970E+04
 -1.33755E+04  1.30342E+04 -1.39904E+04 -5.83998E+03  1.04378E+04 -1.70959E+04  2.23870E+04  4.66131E+03
  1.59297E+04  1.99427E+04  4.69344E+03  3.25131E+04 -1.52576E+04  9.90783E+03 -3.81691E+04 -4.84858E+02
 -3.55907E+04 -2.33151E+04 -1.22857E+04 -2.68615E+04  5.16927E+03 -2.69785E+04  2.50239E+04 -2.14212E+04
  4.21238E+04 -1.90261E+04  3.96133E+04  4.66241E+03  3.02478E+04  2.36089E+04  1.36977E+04  4.23137E+04
 -2.72716E+04  3.71615E+04 -3.54274E+04  8.58238E+03 -1.77496E+04 -7.23117E+03 -9.53526E+03 -1.13571E+04
  3.42054E+03  3.84159E+03 -4.67647E+03  1.00807E+04 -2.10409E+04 -5.64907E+03 -2.32145E+04 -1.00818E+04
 -1.22243E+04 -2.10736E+04  6.64946E+03 -2.82651E+04  2.33976E+04 -2.63927E+04  2.65350E+04  1.00717E+03
  8.07550E+03  1.88248E+04 -7.75081E+03  3.24491E+04 -2.40669E+04  1.76288E+04 -2.90231E+04 -6.80156E+03
 -1.79099E+04 -1.78944E+04 -7.73183E+03 -2.71171E+04  1.44842E+04 -1.89856E+04  2.89255E+04 -1.86869E+04
  2.22566E+04  1.24740E+03  1.68194E+04  4.74939E+03  1.24230E+04  3.29331E+03  1.18124E+04  4.75015E+02
  2.06159E+04 -5.73245E+03  2.75401E+04  1.66831E+04  2.15684E+04  4.19706E+04  4.83705E+03  5.59200E+04
 -2.93618E+04  4.58156E+04 -5.34018E+04  2.52022E+04 -4.62907E+04 -6.08163E+03 -4.97622E+04 -3.32566E+04
 -1.20866E+04 -3.49204E+04  1.81191E+04 -4.30044E+04  2.69771E+04 -2.15796E+04  2.67901E+04  5.96900E+03
  1.14242E+04  2.48447E+04 -2.16900E+04  2.19436E+04 -2.46968E+04  3.11696E+03 -1.65440E+04 -6.61832E+03
  1.18930E+03 -2.24351E+04  8.18804E+03 -1.26128E+04  1.59784E+04 -6.06050E+03 -2.52460E+03  4.29217E+03
 -1.54444E+04  3.25281E+03 -1.28192E+04 -1.85719E+03 -3.65772E+03 -1.82001E+04  1.66474E+04 -2.29556E+04
  3.21118E+04 -1.21226E+04  3.05351E+04  6.43951E+03  2.82979E+04  1.82862E+04  8.44276E+03  3.37910E+04
 -1.70513E+04  3.28380E+04 -2.32102E+04  3.15020E+04 -3.37622E+04  4.95451E+03 -2.03994E+04 -8.59845E+03
 -1.83574E+03 -1.89768E+03  6.98820E+02 -1.94225E+03 -5.59257E+03  6.92351E+03 -9.64091E+03  8.98508E+03
 -1.12777E+04 -1.50042E+03 -1.96990E+04 -1.89949E+04 -2.73442E+03 -2.66061E+04  7.88156E+03 -2.73747E+04
  1.40119E+04 -1.29711E+04  7.56761E+03  6.88760E+03 -5.24177E+03  1.76316E+04 -1.43038E+04  1.39227E+03
 -7.98922E+03 -1.00922E+04 -2.98806E+02 -1.84417E+04  1.66469E+04 -1.69841E+04  2.59881E+04 -1.41565E+04
  2.96013E+04 -9.28792E+02  2.36879E+04  2.30344E+04  5.53536E+03  2.60935E+04 -1.92731E+04  1.75974E+04
 -1.70660E+04  1.34076E+03 -1.46684E+04 -4.55492E+03 -2.69047E+02 -5.53064E+03 -2.04094E+03 -3.22479E+02
  1.00002E+04  3.49291E+03  3.29379E+03  1.47129E+04 -1.81861E+04  1.11267E+04 -2.06079E+04  1.16715E+04
 -2.00389E+04 -1.09260E+04 -4.15823E+03 -1.64970E+04  1.07415E+04  8.74760E+02  1.53636E+04 -4.41084E+03
  5.47169E+03  1.87766E+04 -8.69665E+03  1.25322E+04 -2.09581E+04  5.75154E+02 -2.14476E+04 -7.38569E+03
 -1.04715E+04 -1.99374E+04  6.32084E+03 -1.81369E+04  2.69573E+04 -1.63075E+04  1.71184E+04  7.80057E+03
  9.55572E+03  1.30562E+04  1.63697E+03  2.13940E+04 -1.79181E+04  1.16265E+04 -1.74486E+04 -5.54752E+02
 -1.52809E+04 -1.31540E+04  4.08105E+03 -1.50119E+04 -1.42122E+03 -1.12507E+04  1.19156E+04 -5.57638E+03
  3.09213E+03  5.45221E+03 -2.61470E+03  4.69183E+03 -7.32034E+03 -6.34257E+03  1.23424E+03 -1.01788E+04
  2.08494E+04 -6.53957E+03  1.96702E+04  7.23661E+03  2.20109E+04  1.30179E+04  9.46469E+03  3.11892E+04
 -8.31423E+03  3.40186E+04 -2.73930E+04  2.85960E+04 -3.51900E+04  9.78455E+03 -2.44436E+04 -9.52222E+03
 -1.42144E+04 -2.75156E+04 -1.54275E+03 -1.66959E+04  8.43406E+03 -9.50705E+03 -6.16568E+02 -3.67928E+03
  7.25410E+03 -4.39213E+03  3.73138E+03  3.53138E+03 -1.13193E+03 -6.09066E+03  3.24776E+03 -4.21095E+03
  1.23178E+04  2.40741E+03  5.13906E+03  1.03949E+04 -9.14722E+03  1.31194E+04 -1.58852E+04  8.24737E+03
 -1.96932E+04 -5.96279E+02 -1.51433E+04 -1.66022E+04  1.70546E+03 -2.71953E+04  1.66337E+04 -1.86770E+04
  2.00119E+04 -1.60015E+04  2.64976E+04  7.25598E+03  1.44831E+04  1.84283E+04 -1.60402E+03  2.71603E+04
 -9.06548E+03  1.93434E+04 -1.70580E+04  1.56905E+04 -9.63853E+03 -6.26672E+03 -2.37376E+03 -2.97585E+03
  3.49399E+03  5.01555E+03  4.41203E+03  1.84032E+03 -1.05539E+04  5.32593E+03 -1.00384E+04  1.44038E+01
 -9.33508E+03 -4.30003E+03  3.24615E+03 -1.80832E+04  1.16468E+04 -2.03195E+04  2.16036E+04 -7.80603E+03
  2.05517E+04  9.69815E+03  1.28415E+04  1.64756E+04 -9.83573E+03  1.87462E+04 -9.14121E+03  1.25898E+04
 -2.11927E+04 -3.33733E+03 -2.03040E+04 -1.14833E+04  2.62739E+03 -1.61748E+04  1.38303E+04 -9.43380E+03
  1.57755E+04 -7.78373E+03  1.10350E+04  2.67871E+02  1.39969E+04  8.33287E+03  7.12641E+02  6.93075E+03
  1.40179E+04 -5.99212E+02  8.52205E+03  1.25553E+03  5.93284E+03  7.18983E+03  4.90772E+03  9.63192E+03
 -3.98966E+03  1.25113E+04 -1.08067E+04  1.88814E+04 -1.67227E+04  1.03910E+04 -1.28148E+04 -3.74932E+03
 -1.17574E+04 -2.17044E+04 -9.72252E+02 -2.53272E+04  1.13488E+04 -1.93932E+04  1.92038E+04 -5.02380E+03
  9.22770E+03  6.01699E+03 -3.19492E+02  1.13757E+04 -1.04489E+04  1.11942E+04 -7.44261E+03  4.52701E+02
 -7.47548E+02 -1.55606E+04  5.95750E+03 -5.08948E+03  9.26526E+03 -4.16470E+03  1.46425E+04 -6.14152E+02
  1.29349E+04 -6.32622E+02  2.95509E+03 -1.68128E+03 -3.29489E+03  3.46043E+03 -4.33832E+03  8.38263E+02
  4.49717E+02  9.99766E+02  1.82039E+04  5.66810E+03  4.99080E+03  7.47540E+03 -5.42587E+02  2.11800E+04
 -1.43770E+04  2.84764E+03 -1.30527E+04  8.37878E+03 -1.59124E+04 -7.29422E+03 -1.08279E+04 -1.29030E+04
  2.04149E+03 -2.14059E+03  3.92419E+03 -5.60035E+03  4.68179E+03 -3.34214E+03  6.60506E+03  7.68189E+03
 -1.00482E+04  1.10012E+04 -1.73880E+04 -7.24004E+03 -6.34193E+03 -8.45514E+03 -7.12279E+02 -1.13497E+04
  6.15408E+03 -1.57844E+04  4.13511E+03 -4.49423E+03  5.08034E+03  4.11259E+03 -2.41598E+03  5.98748E+03
 -3.20876E+03  8.75315E+02 -5.26637E+03 -7.27190E+03 -3.73710E+03 -1.31818E+04  5.62726E+03 -5.25798E+03
  1.34127E+04  7.88132E+03  1.42645E+04  1.24825E+04  3.09423E+03  1.10685E+04 -8.69181E+03  1.54926E+04
 -1.02904E+04  5.68584E+03 -1.62016E+04 -4.11279E+03 -2.34654E+03 -3.21293E+03  1.07816E+04 -1.10966E+04
  2.07437E+04 -1.77659E+03  1.29465E+04  3.56770E+03  3.13777E+03  8.41416E+03 -5.66770E+03  6.08236E+03
  1.34381E+03  3.68030E+03  1.93308E+03 -1.00697E+03  1.15221E+02  4.67799E+03 -8.81995E+01  4.09262E+03
 -6.31078E+03 -3.23617E+03 -7.75075E+03  7.07106E+03 -2.02243E+04  8.79285E+01 -1.56985E+04 -4.27795E+03
 -6.29203E+03 -1.60924E+04  1.06093E+04 -2.89786E+04  9.38605E+03 -1.11444E+04  1.93259E+04  1.42806E+03
  1.81613E+04 -2.81617E+03  8.35865E+03  1.49990E+04  2.00972E+03  1.87126E+04 -7.79531E+03  9.44564E+03
 -3.00153E+03  7.47396E+03 -3.49262E+03  2.51682E+02  3.13940E+03 -6.14791E+03  1.77794E+03 -5.60964E+02
 -1.52792E+03 -1.39471E+03  8.86420E+02 -1.79354E+03  3.33136E+03  4.90004E+02  2.35231E+03 -1.31975E+04
  1.16472E+04 -8.39744E+03  1.13701E+04  1.82713E+03  1.65637E+04  1.24914E+03  1.36323E+03  1.38803E+04
 -4.34368E+03  9.69188E+03 -1.05244E+04  1.87785E+04 -1.92623E+04  1.26389E+03 -2.12142E+04 -2.87386E+03
 -5.22036E+03 -1.85748E+04  4.72538E+03 -1.98384E+04  2.03876E+04 -4.72756E+03  9.78404E+03  2.08458E+02
  6.24936E+03  5.95673E+03 -1.21741E+03  2.80673E+03 -2.13915E+03 -2.87344E+03  2.00945E+03 -7.69449E+03
  1.35837E+04 -2.82224E+03  5.25728E+03  4.89941E+03  1.98571E+03  8.34005E+03 -4.11239E+03  5.87174E+03
 -6.91426E+03  1.28120E+04 -1.19282E+04 -2.20153E+03 -4.82225E+03 -1.56244E+04 -2.28015E+03 -1.96149E+04
  6.92637E+03 -1.40000E+04  1.11077E+04 -2.28659E+03  1.07686E+04  8.48364E+03  9.24651E+03  1.24058E+04
 -8.66189E+03  1.03004E+04 -6.34433E+03  6.35270E+03 -6.08440E+03  6.90288E+03 -4.34052E+02  7.01470E+03
 -7.43012E+02 -5.81654E+03 -3.61404E+03  4.38759E+03 -8.63232E+03 -1.32589E+03 -1.13839E+04  3.42867E+03
 -1.28831E+04 -5.74523E+03  3.43133E+03 -5.38884E+03  3.10669E+03 -1.13954E+04  6.67861E+03 -7.09882E+03
  6.90225E+03  3.10874E+03  1.29833E+04  6.68239E+03 -1.09014E+04  6.53124E+03 -6.20157E+03  8.15315E+03
