 $NMID ID='MM_0lb_SNR50_15hz_g55_46.RAW', FMTDAT='(8E13.5)'
 TRAMP=1., VOLUME=1. $END
  3.12694E+05 -1.73944E+03  3.43111E+05  2.50985E+05  8.90569E+04  3.37145E+05 -1.34775E+05  2.46393E+05
 -1.85866E+05  8.15262E+04 -1.18272E+05 -3.07893E+04 -2.94321E+03 -4.67996E+04  5.32554E+04  5.92514E+02
  3.62511E+04  5.48782E+04 -1.61685E+04  7.36261E+04 -5.82315E+04  6.59392E+04 -8.11385E+04  3.66317E+04
 -8.14106E+04 -9.54470E+03 -5.61973E+04 -5.26593E+04 -1.26801E+04 -7.32144E+04  2.86408E+04 -4.62727E+04
  3.99413E+04  3.26493E+03  2.09478E+04  4.71196E+04 -3.53847E+04  5.11540E+04 -7.15489E+04  2.83825E+03
 -5.38701E+04 -5.39431E+04 -7.14350E+03 -7.90821E+04  3.19239E+04 -5.28048E+04  4.81310E+04 -1.32443E+04
  4.00517E+04  1.07576E+04  2.84593E+04  2.69076E+04  1.80838E+04  2.86998E+04 -1.88085E+03  2.73897E+04
 -2.39869E+04  1.41646E+04 -1.85889E+04 -2.48343E+02  5.06791E+03 -9.11224E+03  2.27870E+04  1.00449E+04
  8.60971E+03  3.02889E+04 -3.38204E+04  3.33690E+04 -6.47130E+04  4.51533E+03 -5.58927E+04 -4.38096E+04
 -1.21906E+04 -6.28944E+04  3.65445E+04 -4.35633E+04  5.32618E+04 -2.73802E+03  3.56791E+04  3.35113E+04
 -5.06275E+03  3.76636E+04 -3.18898E+04  1.81438E+04 -3.09312E+04 -4.91604E+03 -1.58055E+04 -1.03009E+04
 -1.18043E+04 -1.73741E+04  3.82683E+02 -1.75299E+04  8.06742E+03 -2.30604E+04  1.82582E+04 -1.31240E+04
  1.65434E+04  7.71450E+03 -5.08613E+03  1.57376E+04 -2.02679E+04 -8.95299E+03 -1.02535E+04 -3.43233E+04
  2.32730E+04 -4.44764E+04  4.45759E+04 -1.33030E+04  4.65299E+04  2.02393E+04  1.40600E+04  4.38531E+04
 -1.58127E+04  3.41316E+04 -1.86724E+04  2.34790E+03 -7.40817E+03 -2.76262E+04  2.12875E+04 -3.27590E+04
  4.26561E+04 -7.85369E+03  3.39902E+04  2.21270E+04  1.49583E+04  4.26481E+04 -6.25582E+03  4.79942E+04
 -3.32142E+04  3.67965E+04 -4.16777E+04  8.86079E+03 -4.55747E+04 -1.43341E+04 -2.45238E+04 -3.52471E+04
  3.99295E+03 -3.62129E+04  3.30035E+04 -1.63653E+04  3.43656E+04  9.58930E+03  4.79292E+03  1.76280E+04
 -1.26379E+04  1.13755E+04 -1.61803E+04 -6.58884E+03  5.67699E+03 -7.79910E+03  1.84808E+04  6.44514E+03
  1.41328E+04  1.84788E+04 -3.34620E+03  2.03127E+04 -2.43335E+04  1.22460E+04 -2.95465E+04 -3.25158E+03
 -1.82590E+04 -1.70435E+04 -5.39303E+03 -1.79347E+04  6.55766E+02 -2.00639E+04  1.44151E+04 -1.48048E+04
  2.69308E+04 -1.01436E+04  3.34668E+04  2.04307E+03  2.40716E+04  1.69011E+04  4.03813E+03  3.42675E+04
 -1.91913E+04  3.26161E+04 -2.90403E+04  5.98153E+03 -2.12849E+04 -1.12115E+04 -1.21980E+03 -1.07359E+04
  4.43679E+03 -3.68277E+03 -3.49665E+03  8.23544E+03 -1.51968E+04  5.80547E+03 -1.65429E+04 -5.31681E+03
 -8.93668E+03 -1.55567E+04  5.25497E+03 -2.40514E+04  1.72768E+04 -1.70419E+04  1.99447E+04  1.82711E+02
  1.47879E+04  1.40793E+04 -4.48094E+03  2.30895E+04 -1.54647E+04  9.19327E+03 -1.79000E+04 -5.78907E+02
 -1.40710E+04 -1.77368E+04 -3.65885E+03 -2.21249E+04  1.36168E+04 -2.06586E+04  2.23593E+04 -9.84523E+03
  1.74228E+04  6.52703E+03  1.19683E+04  3.93580E+03  2.63164E+03 -2.43919E+03  1.07448E+04 -2.86912E+02
  1.45650E+04  1.87445E+02  1.81205E+04  9.35846E+03  1.56742E+04  3.22444E+04 -3.67569E+02  3.44150E+04
 -1.81280E+04  3.33418E+04 -3.40600E+04  9.70660E+03 -3.03588E+04 -1.11423E+03 -2.87876E+04 -1.78246E+04
 -1.25616E+04 -2.67228E+04  1.32169E+04 -3.03821E+04  1.97169E+04 -1.30934E+04  1.74161E+04  7.30350E+03
  1.03821E+04  1.41712E+04 -4.36559E+03  1.93224E+04 -1.60944E+04 -4.56679E+02 -1.03227E+04 -1.38074E+04
  4.66272E+03 -1.75593E+04  1.04433E+04 -1.11034E+04  1.56883E+04  9.32291E+02  2.42973E+03  8.06265E+02
 -4.45866E+03 -3.03916E+02 -8.70837E+03 -6.40244E+03 -6.67428E+02 -1.38370E+04  1.23860E+04 -1.47842E+04
  1.68141E+04 -7.20866E+03  1.69116E+04 -2.28851E+03  1.23223E+04  1.24026E+04  9.05759E+03  2.19335E+04
 -3.29468E+03  2.12494E+04 -1.73559E+04  1.43977E+04 -1.34531E+04  4.82949E+03 -1.11785E+04 -5.02440E+03
 -9.76684E+03 -7.55207E+03 -1.08245E+03  3.41511E+03 -3.51092E+03  1.78338E+03 -5.65236E+03  9.40539E+03
 -1.10136E+04  1.51147E+03 -7.06982E+03 -6.06309E+03 -7.09526E+03 -2.03905E+04  2.05869E+03 -1.26060E+04
  1.12253E+04 -2.57539E+02  5.88703E+03  3.23742E+03 -2.28537E+03 -6.74456E+02 -6.45468E+03  1.15855E+03
 -7.68452E+03 -6.71528E+03 -1.53254E+02 -1.14925E+04  6.78699E+03 -7.27921E+03  1.18595E+04 -3.51162E+03
  1.79069E+04  1.65005E+03  1.29676E+04  1.46326E+04  2.19816E+03  1.26513E+04 -6.47543E+03  9.49330E+03
 -1.07844E+04  6.12899E+03 -9.66919E+03 -5.89275E+02 -2.24917E+03 -3.81282E+03  5.30652E+03  9.07329E+01
  7.09386E+03  8.99144E+03 -4.26462E+03  9.24600E+03 -5.99509E+03  6.46318E+03 -1.01369E+04  1.76178E+03
 -4.35462E+03 -7.49997E+02 -2.27290E+03 -1.04362E+04  2.78184E+03 -4.69078E+03  3.93197E+03  3.08493E+03
 -8.32893E+02  7.77809E+03 -1.35826E+04  1.04619E+04 -8.82510E+03  3.36955E+02 -5.07022E+03 -3.36050E+03
 -3.24502E+03 -1.16637E+04  1.07064E+03 -1.17485E+04  7.71774E+03 -8.32923E+03  8.56031E+03  1.62166E+03
  2.07161E+03  4.69362E+03  1.03081E+03  1.13874E+04 -7.15405E+03  3.16220E+03 -7.75620E+03 -1.43848E+03
 -7.59435E+03 -7.57806E+03  3.47868E+02 -7.46238E+03  3.60655E+03 -1.88962E+03  4.96751E+03 -5.61326E+03
 -1.30828E+03  3.97023E+03 -2.33536E+03  4.51841E+03 -3.87368E+02 -1.28309E+03 -1.98812E+02 -6.60584E+03
  6.16829E+03 -2.99728E+03  7.46057E+03  1.26230E+03  7.51154E+03  3.25461E+03  7.83551E+03  1.33252E+04
 -4.04667E+03  1.13747E+04 -9.49624E+03  9.77079E+03 -1.39350E+04  3.99550E+03 -1.35848E+04 -2.87202E+03
 -3.79503E+03 -9.99404E+03 -8.43056E+02 -8.10789E+03  3.02871E+03 -5.83285E+03  1.98066E+03 -2.12375E+02
  4.86626E+03 -3.03349E+02 -5.91087E+02 -2.92549E+03  9.35918E+03 -5.70119E+03  2.63220E+03 -1.45838E+03
  9.39620E+03  7.96929E+03  1.62172E+03  4.21790E+03 -5.70154E+03  5.02664E+03 -5.64938E+03  6.96487E+03
 -1.40779E+04 -8.37161E+02 -5.78302E+03 -1.90271E+03  3.94027E+03 -7.92429E+03  6.29672E+03 -6.12169E+03
  8.59799E+03 -7.98638E+03  1.17089E+04 -1.39493E+03  4.13947E+03  5.91715E+03  4.14922E+02  7.09290E+03
 -3.46782E+03  7.75975E+03 -4.40298E+03  4.65025E+03 -1.48513E+02 -3.32247E+03 -1.87456E+03 -1.52778E+03
 -1.56156E+03  1.73024E+03 -4.61446E+03  3.12919E+03 -5.00906E+03 -1.65774E+03 -7.34192E+03  4.50274E+02
 -1.02598E+03 -6.77549E+03 -3.77776E+02 -6.48502E+03  5.82521E+03 -6.64373E+03  5.08685E+03 -5.70975E+02
  6.05137E+03  1.52327E+03  5.21913E+03  4.56310E+03  8.72269E+02  9.86733E+03 -4.05737E+03  6.52475E+03
 -2.99207E+03  2.29336E+03 -3.36810E+03 -6.41327E+03  1.65047E+03 -3.30221E+03 -1.14614E+03 -5.36627E+03
  4.10324E+03  1.82937E+03  3.76237E+03  6.05267E+03 -4.97630E+02  1.31641E+03 -8.95449E+02  6.95530E+02
  1.29256E+03  1.47834E+03  3.60592E+03  2.17331E+03 -5.31261E+02  5.28934E+03  7.51885E+03  4.62917E+03
 -5.38646E+03  6.70586E+02 -1.99359E+03  7.37779E+03 -4.40806E+03  1.03826E+03 -3.28367E+03 -3.69732E+03
 -2.86658E+03 -6.56671E+03 -1.62107E+01 -9.10017E+03  2.99220E+03 -1.50342E+03  4.83561E+03  1.91049E+03
  4.57461E+02  6.60807E+02  5.42374E+02  6.64744E+03 -2.89396E+03  4.68931E+03 -2.29478E+03  1.86835E+01
 -4.16055E+03 -3.95936E+03 -6.39083E+02 -4.70180E+03  4.00831E+03 -7.80555E+02  7.69171E+03 -2.07676E+03
  4.10724E+03 -2.44865E+03  4.84600E+03  3.42907E+03  3.56827E+03 -1.47443E+02  2.90679E+03 -2.96300E+03
 -3.48908E+02  1.27061E+03  1.25519E+03 -7.29070E+02 -2.86917E+03  3.54358E+03 -4.83491E+03  7.02696E+03
 -2.39795E+03  2.18879E+02 -7.89890E+03  3.63737E+03 -7.76781E+03 -1.86013E+03 -2.28842E+03 -5.42953E+03
  2.28544E+03 -5.49602E+03  3.71501E+03  2.87310E+03 -2.01583E+03 -7.39483E+02 -3.02398E+03  1.59250E+03
 -1.23626E+03  1.86285E+03  3.24267E+03 -3.85655E+03 -3.37527E+03 -3.82239E+03  4.91821E+02 -3.94830E+03
 -2.44978E+03 -2.65769E+03  4.97971E+02  2.99558E+03  3.74437E+03 -2.75632E+02  5.10894E+02 -2.74284E+03
  1.07645E+03 -4.54916E+03 -5.76307E+01  2.32135E+03 -1.73547E+03 -4.33318E+03  7.66625E+03 -8.02481E+03
  2.54649E+03  1.32445E+03  6.44800E+03  5.11268E+03 -2.81149E+02  6.21367E+03 -4.62983E+03  1.68595E+03
 -2.72943E+03 -1.70431E+01  2.53859E+03 -6.76234E+03  6.12194E+02 -3.91139E+03  3.68459E+03 -8.63535E+02
  2.64750E+03 -3.87692E+03 -2.41654E+03  1.84285E+03 -2.93701E+03  3.67717E+03 -1.71863E+03  4.19852E+02
  2.00296E+01  4.02832E+02 -3.31814E+02  4.75128E+02  4.87682E+03  5.45614E+03 -3.54766E+01  3.09222E+03
 -2.79804E+03  3.18682E+03 -6.27965E+03 -6.15318E+02 -5.54742E+03 -1.91223E+03 -5.02278E+03 -1.79853E+03
 -7.10325E+03 -2.17534E+03  6.10748E+03 -7.09772E+03  4.05399E+03  1.44547E+03  3.11532E+03 -5.12436E+03
  3.39483E+03 -1.07954E+02  4.59450E+03 -1.64436E+03  5.24427E+03  6.06452E+03 -4.01163E+03  9.99229E+02
  6.48515E+02  9.29642E+02 -6.22838E+03  1.62818E+03 -1.04150E+03  9.22356E+02 -8.89736E+01  5.88665E+03
 -4.58225E+03 -7.69962E+03 -3.08928E+03  2.88396E+03 -1.42025E+03 -4.76303E+03  2.78144E+03  3.20144E+03
  2.77812E+03  2.68782E+02 -4.04863E+02  5.14562E+01  4.92833E+03  3.43318E+03 -7.59160E+01  5.46785E+03
 -7.87671E+02  5.61139E+03 -3.20572E+03  1.51742E+03  2.36773E+02 -1.11771E+03 -4.63971E+02 -3.17585E+03
 -2.44322E+03 -8.27805E+03  4.76806E+03 -2.25450E+03  3.66212E+03 -9.77750E+02  1.23404E+02 -5.00728E+03
  2.89938E+02  5.01143E+02 -2.51280E+03  4.30112E+03 -1.16617E+02 -8.52134E+02  3.41605E+03 -5.05276E+03
  1.43889E+02  3.38811E+03  4.16218E+02  3.44306E+03  3.25325E+03  2.34711E+03  5.18620E+03  2.27161E+02
  2.78020E+03 -1.49832E+03 -3.79698E+03 -3.23606E+03 -1.26224E+03 -7.00471E+02 -2.21021E+03  2.99282E+03
  8.27765E+03 -1.14150E+04 -1.45827E+02  1.65281E+03  2.45008E+03  1.25887E+03  6.17870E+02 -3.06427E+03
 -8.80455E+02  1.47402E+03  4.73154E+02  5.66571E+03 -2.82127E+03  3.26839E+03  2.82338E+03 -3.37771E+03
  1.56214E+02  1.07514E+02 -3.53645E+03  2.28414E+03 -3.22691E+03 -7.96537E+01  4.70041E+02 -2.97281E+03
 -5.05033E+03 -4.88111E+03 -5.31012E+01 -2.17585E+03  1.72658E+03  5.86682E+02  1.62877E+03 -7.82656E+02
 -3.16608E+03 -1.85683E+03 -1.09914E+03  2.48976E+03  2.72700E+03  3.91234E+03 -1.83796E+02 -7.45391E+02
