 $NMID ID='MM_0lb_SNR50_13hz_g55_55.RAW', FMTDAT='(8E13.5)'
 TRAMP=1., VOLUME=1. $END
  3.12817E+05  3.85704E+03  3.38994E+05  2.49059E+05  8.62505E+04  3.45890E+05 -1.35630E+05  2.51545E+05
 -1.93271E+05  8.20022E+04 -1.16029E+05 -3.57066E+04 -2.45609E+02 -4.43788E+04  5.49209E+04  5.11224E+03
  3.29464E+04  5.22178E+04 -1.67160E+04  7.73801E+04 -6.22528E+04  6.47251E+04 -8.32577E+04  2.98780E+04
 -8.14437E+04 -1.38468E+04 -5.37338E+04 -5.35769E+04 -1.34406E+04 -7.83193E+04  2.73693E+04 -4.15043E+04
  4.15626E+04 -9.76659E+02  2.13363E+04  4.00009E+04 -3.29145E+04  4.71145E+04 -7.06533E+04 -2.98073E+03
 -5.88212E+04 -5.16284E+04 -9.05431E+03 -7.49916E+04  3.47284E+04 -5.52090E+04  4.56396E+04 -1.85977E+04
  4.67274E+04  1.43240E+04  3.59758E+04  2.39985E+04  1.39875E+04  3.34656E+04 -7.76828E+03  3.03733E+04
 -2.32111E+04  7.75216E+03 -2.27598E+04 -7.74642E+03  5.05624E+03 -7.03298E+03  2.46458E+04  9.84857E+03
  6.28086E+03  3.54835E+04 -3.41352E+04  3.29210E+04 -5.96762E+04  1.05808E+04 -5.47279E+04 -4.36613E+04
 -1.41401E+04 -6.08432E+04  3.44196E+04 -4.78363E+04  5.72831E+04 -5.75987E+02  3.60158E+04  3.52325E+04
 -1.44490E+03  4.07285E+04 -2.94717E+04  1.20104E+04 -3.10360E+04 -5.64478E+03 -1.44409E+04 -1.36706E+04
 -3.25945E+03 -1.75234E+04  4.67322E+01 -1.88904E+04  1.00851E+04 -2.08796E+04  1.40844E+04 -1.19743E+04
  8.90615E+03  6.82710E+03 -9.35880E+03  1.46903E+04 -2.41748E+04 -4.29773E+02 -5.32125E+03 -3.62747E+04
  2.39377E+04 -4.23848E+04  4.80553E+04 -2.14440E+04  4.40894E+04  2.20691E+04  1.81098E+04  5.02419E+04
 -1.90871E+04  3.79774E+04 -2.19676E+04  5.30273E+03 -6.50600E+03 -3.17152E+04  2.25549E+04 -3.65946E+04
  4.49484E+04 -1.11187E+04  3.85277E+04  2.32612E+04  2.40877E+04  5.17634E+04 -1.21737E+04  5.24237E+04
 -3.25546E+04  3.98397E+04 -4.23991E+04  1.39024E+04 -4.57386E+04 -1.49157E+04 -1.95275E+04 -3.41923E+04
  8.55743E+03 -3.91384E+04  2.88421E+04 -1.47256E+04  3.40224E+04  1.54706E+04  3.01982E+03  1.56809E+04
 -1.44627E+04  1.09376E+04 -1.67419E+04 -1.19279E+04  4.25950E+03 -1.25388E+04  2.50953E+04  5.20244E+03
  1.31948E+04  1.98265E+04 -5.03432E+03  2.65440E+04 -2.38962E+04  1.58000E+04 -2.41145E+04 -9.78150E+03
 -2.36662E+04 -1.89491E+04 -7.55624E+03 -2.03638E+04 -3.26460E+02 -1.94601E+04  1.20950E+04 -1.91301E+04
  2.80316E+04 -2.10185E+04  3.46563E+04  6.59843E+03  2.77097E+04  2.54918E+04  3.65003E+02  4.20152E+04
 -1.63956E+04  3.58228E+04 -2.84418E+04  1.04894E+04 -2.08436E+04 -1.11226E+04 -8.22860E+03 -1.06164E+04
  7.38959E+02 -6.80017E+01 -5.40360E+03  5.57271E+03 -2.08202E+04  6.26085E+03 -1.63182E+04 -8.80239E+03
 -1.20116E+04 -2.12975E+04  1.07802E+04 -2.36504E+04  1.59292E+04 -1.55912E+04  1.52450E+04 -1.25247E+03
  1.50598E+04  1.72711E+04  3.32205E+03  2.01189E+04 -1.20691E+04  5.49318E+03 -1.86114E+04 -3.09743E+03
 -1.37291E+04 -2.18369E+04 -1.17860E+03 -2.29490E+04  1.40568E+04 -2.77550E+04  2.00657E+04 -1.37984E+04
  1.49988E+04  7.39915E+02  1.76669E+04  7.32607E+03  4.65774E+03 -6.43253E+02  9.41838E+03 -5.93481E+03
  2.02481E+04 -2.52584E+03  1.78922E+04  1.16329E+04  1.54620E+04  2.83007E+04 -1.15447E+03  3.58584E+04
 -2.15296E+04  2.93548E+04 -3.83258E+04  1.44813E+04 -3.28091E+04 -5.32118E+03 -3.48028E+04 -2.18123E+04
 -1.30688E+04 -3.00891E+04  1.09759E+04 -2.59804E+04  2.42002E+04 -1.30702E+04  2.30197E+04  6.33675E+03
  7.57730E+03  1.80885E+04 -1.02008E+04  1.43168E+04 -2.03992E+04  7.01028E+03 -1.04684E+04 -9.96785E+03
 -3.03868E+03 -1.61115E+04  9.49645E+03 -1.40414E+04  1.00783E+04 -1.96632E+01  1.91525E+02  1.27916E+04
 -6.46189E+03  2.18619E+03 -4.99741E+02 -8.18823E+03  2.65957E+02 -1.37357E+04  1.02513E+04 -1.69062E+04
  2.43746E+04 -7.89294E+03  2.00667E+04  1.07206E+04  1.82752E+04  1.33814E+04  7.84176E+03  2.23056E+04
 -1.57206E+03  3.08392E+04 -1.30024E+04  1.63959E+04 -1.49471E+04  1.05735E+03 -1.17751E+04 -1.11599E+04
 -3.72219E+03 -7.15925E+03 -3.20812E+02  3.17052E+03 -2.76313E+03  1.65640E+03 -9.53000E+03  1.66942E+03
 -9.10186E+03 -1.84837E+03 -1.20975E+04 -1.14698E+04 -4.71538E+03 -1.54766E+04  7.80068E+03 -1.36137E+04
  1.02366E+04 -2.39920E+03  3.83212E+03  3.15154E+03  4.48289E+03  3.73890E+03 -1.22859E+04 -4.79736E+03
 -1.00966E+04 -1.22411E+04 -4.60010E+03 -1.10632E+04  7.88313E+03 -1.22113E+04  1.63341E+04 -8.49146E+03
  1.67075E+04  3.78749E+03  4.30554E+03  1.05903E+04  1.65310E+03  1.26468E+04 -5.24285E+03  1.27805E+04
 -1.15266E+04  2.50339E+03 -3.60832E+03 -2.41910E+03 -6.56597E+02 -3.50265E+03  4.83252E+03  3.00265E+03
  4.65651E+03  7.01228E+03  3.40687E+03  7.78445E+03 -8.13097E+03  8.69885E+03 -1.47740E+04  7.39535E+02
 -1.10443E+04 -2.16574E+03 -5.30506E+03 -9.58370E+03  4.94499E+03 -8.22388E+03  5.44938E+03  5.43666E+03
 -7.69815E+02  7.95252E+03 -5.55081E+03  1.45606E+04 -4.75842E+03  6.01189E+03 -6.83806E+03  3.86076E+03
 -4.27418E+03 -1.37702E+04  2.73145E+03 -1.51998E+04  1.00222E+04 -1.26353E+04  1.76602E+04  8.02939E+03
  8.72409E+03  1.21868E+04 -2.13280E+03  9.30665E+03 -5.33206E+03  6.80776E+03 -7.12499E+03  1.17500E+03
 -1.59605E+04 -7.91926E+03  4.78795E+02 -1.09756E+04 -1.30814E+03 -2.38452E+03  7.60201E+03 -2.58473E+03
  6.71863E+03  3.85059E+03 -5.67904E+02  9.94732E+01 -5.65855E+03 -3.73392E+03  2.69639E+03 -5.80215E+03
  8.88293E+03 -4.69495E+03  1.02359E+04  7.29481E+03  1.23353E+04  7.86632E+03  1.25652E+04  1.74174E+04
 -6.93202E+03  1.52893E+04 -6.84737E+03  1.37005E+04 -1.87640E+04  7.47415E+02 -1.39978E+04 -4.09279E+03
 -6.47257E+03 -9.36875E+03  4.23171E+03 -4.36379E+03  7.67272E+03 -6.20061E+03  6.79509E+03 -6.43291E+02
 -4.08549E+03 -1.65855E+03  1.60171E+03 -2.14582E+03  3.03611E+03  3.05374E+03  2.16294E+03 -1.89148E+03
  6.13965E+03  2.68393E+03  4.06400E+03  6.65351E+03 -4.26727E+03  1.12743E+04 -3.47321E+03  9.64401E+03
 -1.40966E+04  5.55191E+02 -1.10034E+04 -1.17763E+04  2.94568E+02 -1.26246E+04  6.51856E+03 -9.33572E+03
  9.12536E+03 -3.86217E+03  2.00355E+04  5.06105E+03  8.95897E+03  8.39683E+03 -4.49822E+03  1.40878E+04
 -1.55695E+02  6.91388E+03 -8.30550E+03  9.69844E+02 -3.06944E+03  3.22468E+03 -1.83772E+03 -1.04617E+03
 -5.05093E+03  5.24316E+03  1.35853E+02  6.28032E+03 -1.20196E+03  5.21406E+02 -1.11218E+04 -2.10832E+03
 -6.42767E+03 -5.93345E+03 -3.48640E+03 -5.69387E+03  3.72937E+03 -8.07715E+03  9.05808E+03  7.40451E+02
  9.99471E+03  3.35328E+03  5.13811E+03  9.51905E+03 -6.36697E+03  9.34574E+03 -1.07088E+04  9.74391E+03
 -7.35538E+03 -3.82878E+03 -7.63500E+03 -4.96708E+03  7.45618E+02 -1.38993E+04 -6.35467E+02 -9.92428E+03
  7.08514E+03 -8.01068E+02  5.51194E+03  1.77218E+03  3.95181E+03  3.50211E+02  4.06263E+03  9.76846E+02
  1.59947E+01  2.27215E+03  4.94284E+03 -6.42827E+02 -1.65597E+03  2.46502E+02  4.02374E+03  4.77846E+03
 -4.13923E+03  3.89683E+03 -1.26640E+04  5.31418E+03 -9.56016E+03  2.81516E+03 -1.20970E+04 -3.74203E+03
 -8.73267E+03 -6.53835E+03 -3.65486E+03 -1.06112E+04  2.69407E+03 -7.56721E+03  1.08061E+04  1.02540E+03
  3.59008E+03  1.68154E+03  2.77814E+03  5.97109E+03 -8.27612E+02 -6.69254E+02 -7.49553E+03 -5.99819E+01
  1.71871E+02 -6.91152E+03  1.27663E+03 -3.60715E+03  3.31167E+03 -2.63282E+03  2.70149E+03  4.53959E+03
  9.65657E+03  2.90249E+03  4.07706E+03  3.22808E+03 -2.39717E+03  6.42511E+03  2.11374E+03 -1.04322E+03
  5.53088E+03 -2.92244E+03 -1.60552E+03 -2.59264E+02  3.01035E+03  6.11095E+03 -4.44574E+03  5.46607E+03
 -2.54185E+03  9.39390E+01 -3.67638E+03  5.69183E+02 -3.92312E+03 -3.05681E+03  7.77061E+02 -2.10541E+03
  4.69576E+03 -1.63605E+03  3.51083E+03 -4.96994E+03 -9.50246E+01  5.97088E+03 -3.27079E+03  2.70876E+03
 -4.33158E+03 -4.61507E+02 -7.04472E+03 -2.10992E+03 -3.08331E+03 -4.13818E+03 -4.83066E+02 -7.60555E+03
  2.00604E+02 -2.33338E+03  4.34678E+03 -3.01035E+03  3.94492E+03 -1.78691E+03  4.98791E+02  3.12657E+03
 -1.47733E+03 -2.68166E+03 -3.69846E+02 -5.86017E+03 -5.08661E+02 -4.40778E+03  8.70128E+03 -2.29421E+03
  4.89859E+03  3.33309E+03  8.94116E+03  1.46057E+03 -2.78822E+03  5.20726E+03  2.26526E+03  1.67846E+03
 -7.62502E+03  4.46805E+03 -5.47343E+03  4.38585E+03 -5.95718E+03 -5.29075E+03 -3.94466E+02 -9.69505E+02
  4.36544E+03 -4.63743E+03  1.52973E+03 -6.47862E+02  2.24705E+03  4.29802E+03 -7.15188E+01 -7.71952E+02
 -4.71727E+02  1.37628E+03 -1.68044E+03 -2.56237E+03 -3.58131E+03  3.76816E+03  1.42865E+03  6.47891E+03
  1.79081E+02  1.31624E+03 -3.17258E+00  1.61654E+02 -9.64156E+03 -7.70984E+02 -1.77057E+03 -5.45594E+03
 -3.42652E+03 -6.66355E+03 -3.25045E+03 -7.90487E+03  3.75053E+03 -6.34536E+03  3.63794E+03  2.21948E+03
  7.20736E+03  1.26658E+03  4.44749E+03  4.74921E+03 -5.88443E+03  3.35420E+02 -2.03965E+03  3.11794E+03
 -6.83487E+02  3.71927E+03 -1.17347E+03 -1.71760E+03  8.06237E+02 -9.23037E+02 -7.18440E+02  1.15652E+03
  5.43033E+03 -1.00873E+03  1.26829E+03 -2.48326E+03  5.46464E+02 -4.88635E+03  2.39188E+03 -3.03550E+03
  2.19677E+03 -2.62332E+03 -2.49667E+02 -1.21328E+03  5.66138E+03 -3.97667E+03  3.99782E+03  1.92938E+03
 -8.40774E+02  4.89727E+03 -7.79165E+03 -2.29099E+03 -6.30342E+03 -2.62314E+03 -7.71918E+03 -2.75460E+03
 -7.11788E+01 -6.89804E+02 -6.37183E+02 -4.61752E+03 -9.22580E+02 -2.43747E+03  2.39820E+03 -9.79487E+02
  1.32409E+02  2.80115E+03  2.42496E+02 -3.88208E+03  1.26841E+03 -1.45163E+03 -1.48856E+03  7.42368E+02
  1.00190E+03 -4.16868E+03  3.90375E+03  6.61783E+03  4.78434E+03  1.68231E+03 -4.33781E+03  4.67741E+03
 -3.19855E+03  3.10945E+03 -3.45745E+03  2.75791E+03 -6.88851E+03  1.88365E+03 -7.97792E+03 -1.11465E+04
  4.49192E+03 -9.21142E+03  3.66298E+03 -1.51555E+03  2.43369E+03  1.82116E+03  4.63897E+03  3.61908E+03
 -1.54850E+03  3.80455E+03  2.04846E+03  6.23451E+03  2.00361E+03  2.63139E+03 -5.66744E+02 -4.76172E+03
  4.93051E+00 -7.25552E+00 -2.83245E+03  1.88995E+03 -2.89601E+03 -3.42069E+02 -5.90888E+03  3.02629E+03
 -2.13889E+03 -2.07941E+03 -1.09896E+02 -1.92497E+03 -7.87006E+02 -1.48168E+03  6.39553E+03 -4.64430E+03
  9.99203E+03 -1.93155E+03  1.38643E+03  4.25339E+03 -4.16334E+02  5.28083E+03 -4.14586E+02  1.74922E+03
