 $NMID ID='MM_0lb_SNR50_12hz_g55_75.RAW', FMTDAT='(8E13.5)'
 TRAMP=1., VOLUME=1. $END
  3.09683E+05 -8.61819E+02  3.31758E+05  2.48290E+05  8.06223E+04  3.39090E+05 -1.34772E+05  2.53865E+05
 -1.87831E+05  8.19805E+04 -1.11905E+05 -3.63768E+04 -8.11984E+03 -4.81225E+04  5.07922E+04  2.64525E+03
  3.12479E+04  5.19988E+04 -1.15883E+04  7.81116E+04 -6.69160E+04  5.94904E+04 -8.49738E+04  3.05022E+04
 -8.30861E+04 -1.60266E+04 -5.42307E+04 -5.49415E+04 -1.60551E+04 -6.88693E+04  2.29247E+04 -4.78803E+04
  3.96124E+04 -8.67504E+02  2.40923E+04  4.40836E+04 -4.11413E+04  5.21958E+04 -6.80348E+04  4.76424E+02
 -5.43940E+04 -5.93501E+04 -9.74997E+03 -7.66930E+04  3.58390E+04 -5.53401E+04  4.82144E+04 -1.84088E+04
  4.66473E+04  9.35338E+03  3.36199E+04  2.45557E+04  1.88444E+04  2.85605E+04 -1.80155E+03  2.88677E+04
 -2.45441E+04  1.75927E+04 -2.19717E+04  9.75535E+02  2.01782E+03 -8.05857E+03  2.25979E+04  1.22303E+04
  4.92563E+03  4.17568E+04 -3.84901E+04  3.56216E+04 -6.11435E+04  3.21863E+02 -5.53726E+04 -4.02107E+04
 -1.06979E+04 -6.59185E+04  4.27618E+04 -4.77526E+04  5.68202E+04 -4.71840E+03  3.34170E+04  4.03961E+04
 -1.08096E+04  3.75932E+04 -2.84586E+04  1.80871E+04 -2.77934E+04 -1.70462E+03 -1.64406E+04 -1.25663E+04
 -9.80331E+03 -1.70115E+04  1.51106E+03 -1.75459E+04  5.52237E+03 -2.62720E+04  1.70666E+04 -7.16117E+03
  1.06539E+04  1.25420E+03 -8.98545E+03  1.18909E+04 -2.27632E+04 -3.70227E+03 -7.20125E+03 -3.57501E+04
  2.59270E+04 -4.60509E+04  5.36177E+04 -2.09037E+04  5.33292E+04  2.03770E+04  1.45869E+04  5.00319E+04
 -2.03776E+04  3.68649E+04 -2.82617E+04  7.63892E+03 -5.40922E+03 -2.90787E+04  2.71275E+04 -3.46572E+04
  4.36147E+04 -6.86975E+03  3.65396E+04  2.31968E+04  1.88106E+04  5.46995E+04 -1.23898E+04  5.24024E+04
 -3.03055E+04  3.61773E+04 -4.79916E+04  9.17220E+03 -4.47073E+04 -1.90850E+04 -2.58175E+04 -4.32440E+04
  5.40730E+03 -4.01721E+04  3.53306E+04 -1.07713E+04  3.20010E+04  1.23291E+04  6.27200E+03  2.15006E+04
 -6.54356E+03  5.94802E+03 -1.00425E+04 -1.13448E+04  5.08231E+03 -8.46829E+03  1.78009E+04  4.24328E+03
  1.44301E+04  2.26097E+04 -4.41729E+03  2.18419E+04 -2.00992E+04  1.52468E+04 -2.58418E+04 -5.69206E+03
 -2.46746E+04 -2.33925E+04 -1.42051E+04 -2.40126E+04  1.87146E+03 -1.91778E+04  1.96246E+04 -2.50559E+04
  2.85935E+04 -1.58152E+04  3.49104E+04  8.40790E+03  2.47257E+04  1.85071E+04  2.85710E+03  3.77120E+04
 -1.87230E+04  3.19060E+04 -2.59592E+04  1.07378E+04 -2.56102E+04 -9.95571E+03 -2.09231E+03 -1.34833E+04
  6.04498E+03  1.75465E+03 -5.56200E+03  1.18355E+04 -1.56363E+04  6.48235E+03 -1.74353E+04 -8.33219E+03
 -1.40775E+04 -1.87498E+04  2.89077E+03 -2.72102E+04  1.29133E+04 -1.88082E+04  1.89191E+04 -6.00475E+02
  7.61166E+03  1.32823E+04 -3.13007E+03  1.73361E+04 -1.49077E+04  1.34657E+04 -2.07159E+04 -4.16758E+03
 -1.52852E+04 -1.98879E+04 -2.63774E+03 -3.32597E+04  1.18531E+04 -2.63116E+04  2.05681E+04 -6.72251E+03
  1.94154E+04  1.96519E+03  1.71810E+04  8.50513E+02  1.02469E+04 -2.44803E+03  1.22374E+04 -2.32980E+03
  1.91265E+04  4.39214E+03  2.37193E+04  1.46844E+04  1.71700E+04  3.44813E+04 -6.30505E+03  3.85183E+04
 -2.41253E+04  2.87124E+04 -3.54924E+04  1.49562E+04 -3.95337E+04 -6.12853E+02 -2.95017E+04 -2.00279E+04
 -1.14589E+04 -2.40692E+04  1.15906E+04 -3.06291E+04  2.49162E+04 -1.47464E+04  2.57838E+04  9.08994E+03
  2.38768E+02  1.46901E+04 -1.34398E+04  1.95661E+04 -1.92408E+04  3.35934E+03 -1.37858E+04 -9.22673E+03
 -2.49653E+03 -1.44526E+04  1.17522E+04 -1.47016E+04  1.06198E+04  9.98289E+02  3.56954E+02  5.51324E+03
 -1.11443E+04  1.55592E+03 -8.98865E+03 -1.69527E+03  1.82436E+03 -2.07334E+04  8.50785E+03 -1.62590E+04
  1.34889E+04 -1.05089E+04  2.18554E+04  6.31002E+03  2.33250E+04  1.83042E+04  7.42961E+03  1.89479E+04
 -7.03190E+03  2.76854E+04 -1.88283E+04  2.00403E+04 -2.01008E+04  6.27815E+03 -1.57164E+04 -3.53648E+03
 -3.52606E+03 -1.73796E+03  3.48363E+03 -2.00526E+03  3.11789E+03  3.95125E+03 -3.18808E+03  6.16545E+03
 -9.41624E+03  1.60328E+03 -1.38500E+04 -1.04226E+04 -6.21311E+03 -2.20456E+04  6.50879E+03 -1.31088E+04
  6.44141E+03 -1.48804E+03  8.13686E+03  5.34775E+03 -2.64087E+03  5.02095E+03 -5.08635E+03  1.90934E+03
 -2.92874E+03 -7.20628E+03 -2.86162E+03 -1.07667E+04  5.12338E+03 -2.00720E+04  1.58047E+04 -1.53429E+03
  1.79686E+04  4.86402E+03  1.93362E+04  1.29465E+04  4.94332E+03  1.29022E+04 -8.65185E+03  1.48908E+04
 -1.44944E+04  1.00206E+03 -1.81784E+03 -7.75078E+03  3.18585E+03 -2.42633E+03  7.69106E+02 -3.75234E+03
  6.23057E+03  4.18712E+03 -4.84901E+03  1.29574E+04 -6.21050E+03  1.31605E+04 -1.15209E+04  4.86733E+03
 -6.86646E+03 -1.01878E+04  3.61466E+03 -1.03916E+04  2.24291E+03 -6.70600E+03  9.53362E+03  3.39881E+03
 -5.47359E+03  4.86389E+03 -5.72506E+03  7.68413E+03 -9.46399E+03  1.16034E+04 -6.39644E+03 -7.20740E+03
 -8.88922E+03 -1.00273E+04  3.22802E+03 -1.89711E+04  1.26537E+04 -1.07423E+04  1.12803E+04 -1.55434E+03
  1.12444E+04  1.09085E+04 -2.11682E+03  1.46395E+04 -1.12184E+04  6.06085E+03 -1.21115E+04  3.64110E+02
 -1.30482E+04 -7.40691E+03 -1.16505E+03 -1.00700E+04  1.03434E+04 -8.84766E+03  8.74092E+03  1.34509E+03
  6.72737E+03  2.39481E+03 -1.94497E+03  6.96403E+02  5.11729E+03 -4.94468E+03  4.85818E+03 -2.71546E+03
  1.41974E+04 -3.81220E+03  9.82759E+03  9.58682E+02  1.49155E+04  8.81132E+03  8.21440E+03  1.46016E+04
 -5.71897E+03  1.33720E+04 -1.52747E+04  1.28336E+04 -1.83416E+04  3.55643E+03 -1.19734E+04  4.91211E+02
 -8.05474E+03 -1.07295E+04  4.77975E+02 -1.30842E+04  6.15476E+03 -9.19656E+03  6.74710E+03  2.96876E+03
 -1.76560E+03 -1.96911E+03  5.67408E+03 -2.22364E+03 -3.47382E+03 -4.69252E+03  9.00783E+03  5.36507E+02
  8.33065E+03  1.03638E+03  8.28895E+02  1.40312E+04  2.11375E+03  1.15893E+04 -5.49540E+03  4.05005E+03
 -1.06898E+04  2.94043E+03  2.26743E+03 -6.28674E+03  1.55386E+03 -1.62415E+04  4.65110E+03 -1.39819E+04
  1.18816E+04 -5.23734E+03  1.33430E+04  1.71248E+03  1.14452E+04  8.77658E+03  1.76802E+03  9.53986E+03
 -3.45278E+03  1.60157E+04 -7.94270E+03  1.14527E+04 -5.14178E+03 -5.55721E+03 -4.52098E+03 -2.97124E+03
 -1.37913E+03 -5.28217E+03  1.16541E+03 -4.01682E+03 -8.47250E+03  5.38488E+03 -1.16412E+04  4.18827E+03
 -1.79985E+03 -5.48874E+03  5.64163E+03 -6.83025E+03  6.52388E+03 -9.77835E+03  7.46318E+03 -1.33285E+03
  7.81613E+03  5.87984E+03  8.67950E+03  1.15716E+04 -3.47909E+02  8.45115E+03 -7.89832E+03  9.05134E+03
 -6.76944E+03  9.04055E+02 -6.41908E+03 -5.93625E+03 -2.01813E+03 -1.36952E+03  2.24995E+02 -9.80002E+03
  1.32187E+04 -6.50888E+03  5.12213E+03  4.73369E+03 -4.13449E+03  2.46353E+03 -1.54158E+03 -3.84333E+03
  4.84497E+03  4.79572E+03  6.53298E+03  2.52884E+03 -6.96236E+02  2.53830E+03  2.39009E+02  1.67019E+03
 -7.12246E+03  1.06326E+03 -2.88170E+03  2.97015E+03 -1.19466E+04  3.98515E+03 -1.72497E+04 -1.37142E+03
 -8.66461E+03 -8.72258E+03 -3.71301E+02 -1.26809E+04  2.99723E+03 -2.10796E+03  7.89385E+03  3.26963E+03
  1.28971E+04  4.43316E+03 -8.99484E+02  1.21404E+04 -5.40454E+03  1.71770E+03 -5.60380E+03 -2.85161E+03
 -4.86598E+03 -3.00362E+03  2.16057E+03 -6.03907E+03  7.15660E+03 -2.27694E+03  4.11521E+03  1.43379E+03
  7.04293E+03  4.65633E+03 -1.38245E+03  1.78298E+03  2.68860E+03  9.57103E+02  2.86460E+03 -2.62315E+03
 -2.08000E+03 -2.00013E+03  1.88086E+02  2.01589E+03  1.73065E+03  1.20707E+03 -2.30858E+03  5.71195E+03
 -5.48724E+03  3.59009E+03 -2.42754E+03  7.53062E+01 -1.02710E+04 -7.17508E+03 -1.79842E+03 -2.07488E+03
  2.99592E+03  5.71517E+02  3.23556E+03 -3.79731E+03  2.39024E+03  1.90951E+03  1.28790E+03  5.07854E+03
  2.35607E+03  3.33777E+03 -3.09520E+03 -4.59719E+03 -2.57406E+02 -1.33316E+04  1.46152E+03 -7.55613E+03
  6.30482E+03 -1.65829E+03 -2.49693E+03  1.62841E+03  2.62840E+03 -2.98311E+02 -5.44620E+03  1.97018E+03
 -4.52127E+03 -2.37114E+03 -2.13739E+03 -1.65081E+03  3.28418E+03 -1.35422E+03  7.06023E+03 -3.54748E+03
  9.94554E+03 -1.90294E+03  1.63199E+03  6.55472E+03 -1.76592E+02  5.40148E+03 -5.52363E+02  7.53113E+03
 -4.78666E+03  5.16712E+03 -5.50878E+03  9.58585E+02 -6.74811E+02 -3.42853E+03  5.91857E+03 -6.17152E+03
 -2.27432E+03 -5.19910E+03  4.98410E+03  4.62220E+02 -2.49525E+03  3.61846E+02  3.13726E+03  8.32289E+03
 -3.76219E+03  1.80236E+03  3.33399E+03 -6.68329E+02  1.58587E+01 -3.06617E+03  1.67055E+03  9.45685E+02
  1.41214E+03  2.46664E+03 -4.35448E+03  9.09441E+02 -9.90862E+02  1.89853E+03 -1.11815E+04 -5.53663E+03
  4.11628E+02 -5.36089E+03  5.36084E+02 -3.18871E+03  2.53859E+03 -8.44750E+03  8.35223E+03  1.10981E+03
  1.58390E+04  1.06727E+02  7.66059E+03  5.98437E+02  2.93134E+03  6.68594E+03  1.55695E+03  1.65161E+03
 -8.47975E+02  1.75166E+03  3.48681E+03  3.26590E+03 -1.15160E+03  2.85024E+03 -9.32493E+02 -5.07695E+03
 -3.94413E+03 -1.31071E+03  6.21183E+02  5.81172E+03 -2.01642E+03 -4.73423E+03 -4.48936E+03 -9.56323E+03
  1.15349E+03 -2.07805E+03  2.49537E+03  6.14154E+01  3.53772E+03  1.06780E+03 -9.87165E+02  3.85071E+03
 -3.65051E+03  1.01848E+04 -1.82842E+03  1.30948E+03 -6.81110E+03  3.47222E+03 -1.08423E+04 -1.97963E+03
  2.52039E+03 -9.35952E+03  3.25346E+03 -5.68275E+03  7.41882E+02 -4.83233E+03 -1.49588E+03  2.07317E+03
  1.03920E+03  2.43210E+03  1.60289E+02  3.33963E+02 -1.58342E+03  1.07317E+03  9.43778E+02  1.66381E+03
  3.09363E+03  3.47214E+02  4.92215E+03  1.67062E+03  5.37550E+03  6.39130E+02  1.80309E+03 -1.78688E+03
 -5.10882E+03  7.32295E+03 -1.30991E+03  1.63035E+03 -1.16799E+03  1.68693E+03  1.47995E+03 -9.08105E+03
  1.32369E+03 -3.89829E+03  3.80119E+03 -5.61379E+03  5.40094E+03  4.02835E+03  4.08061E+03  4.54522E+03
  4.01937E+03  2.74169E+03 -3.97820E+03  2.82966E+03 -3.46358E+03 -2.07833E+03  1.11950E+03 -1.16941E+03
  8.58614E+02 -9.23131E+02 -4.34604E+03 -1.36202E+02 -4.98048E+03  2.76130E+03 -7.39499E+03  1.66451E+03
 -1.07424E+04 -6.99350E+03 -2.38664E+03 -2.63298E+03 -1.41601E+03 -3.61609E+03  7.37116E+03 -2.11859E+03
  3.21626E+03  5.83970E+03  1.40262E+03  5.27054E+03 -1.42718E+03  2.24701E+03 -4.78897E+03  4.30609E+03
