 $NMID ID='MM_0lb_SNR50_8hz_g45_13.RAW', FMTDAT='(8E13.5)'
 TRAMP=1., VOLUME=1. $END
  3.03912E+05 -3.07685E+03  3.36302E+05  2.52699E+05  8.44699E+04  3.40030E+05 -1.31668E+05  2.53998E+05
 -1.88540E+05  7.78452E+04 -1.18837E+05 -3.28860E+04  3.90262E+03 -5.37921E+04  5.49215E+04 -6.42243E+03
  4.09185E+04  5.39983E+04 -1.66542E+04  7.72723E+04 -6.28921E+04  6.47347E+04 -8.56793E+04  3.33646E+04
 -8.43021E+04 -1.17028E+04 -5.74291E+04 -5.29987E+04 -1.66014E+04 -6.51965E+04  2.76822E+04 -4.16445E+04
  4.79001E+04  8.68908E+03  1.15665E+04  4.86998E+04 -2.92911E+04  5.01175E+04 -7.17783E+04 -2.72982E+03
 -5.60723E+04 -6.43071E+04 -2.06301E+03 -7.44659E+04  3.59851E+04 -5.60938E+04  5.14388E+04 -2.29572E+04
  4.69327E+04  9.89571E+03  3.06752E+04  2.65937E+04  1.29598E+04  2.74644E+04 -1.10309E+04  2.66785E+04
 -2.47909E+04  8.27960E+03 -2.36746E+04 -6.78391E+03  6.45977E+03 -2.87082E+03  2.24288E+04  1.66010E+04
  8.60448E+03  3.55833E+04 -3.20163E+04  3.41332E+04 -6.54453E+04  2.24195E+03 -6.39635E+04 -4.74669E+04
 -1.44984E+04 -7.05987E+04  4.15911E+04 -4.75787E+04  6.28742E+04 -2.00304E+03  4.23570E+04  2.54063E+04
 -5.58259E+03  4.33058E+04 -2.66324E+04  1.92836E+04 -4.38759E+04 -3.12837E+03 -1.52816E+04 -1.28378E+04
 -9.64623E+03 -1.48371E+04 -3.19948E+03 -2.07822E+04  9.82248E+03 -2.92477E+04  1.12192E+04 -5.28029E+03
  6.44095E+03  4.83293E+02 -1.31105E+04  1.56251E+04 -2.80802E+04 -6.45385E+03 -3.41190E+03 -4.00857E+04
  2.30661E+04 -4.72165E+04  5.38870E+04 -2.13428E+04  4.60029E+04  1.68055E+04  1.85895E+04  4.82465E+04
 -1.67185E+04  4.28522E+04 -2.49526E+04  3.04908E+03 -1.60113E+04 -2.79201E+04  2.12475E+04 -3.34309E+04
  4.14346E+04 -4.42231E+03  3.93218E+04  2.18391E+04  1.24711E+04  5.34215E+04 -6.21764E+03  6.28816E+04
 -3.05206E+04  4.02785E+04 -4.99738E+04  1.33201E+04 -5.05173E+04 -2.12539E+04 -3.11308E+04 -3.76317E+04
  5.45319E+03 -3.86405E+04  3.19382E+04 -1.86786E+04  3.69622E+04  1.17047E+04  7.55392E+03  2.41722E+04
 -1.76525E+04  9.24902E+03 -1.43366E+04 -1.21896E+03  4.08013E+03 -1.36697E+04  1.92223E+04  1.27003E+04
  1.00235E+04  1.84049E+04 -9.65390E+03  2.10363E+04 -2.52868E+04  1.60599E+04 -3.03317E+04 -6.47505E+02
 -2.16155E+04 -2.32220E+04 -1.86561E+04 -3.52611E+04  4.57645E+03 -2.56906E+04  2.53295E+04 -1.17194E+04
  3.47329E+04 -1.86496E+04  3.55441E+04  1.00501E+04  2.26907E+04  2.98473E+04  1.02081E+04  3.98446E+04
 -2.90126E+04  3.60991E+04 -3.47800E+04  7.59602E+03 -2.60535E+04 -1.51360E+04 -4.72679E+03 -1.34273E+04
 -2.51267E+03 -4.10935E+03  1.54509E+03  1.06454E+04 -2.29754E+04  2.81490E+01 -2.24109E+04 -1.01798E+04
 -1.17335E+04 -2.32785E+04  4.91112E+03 -2.88983E+04  2.26923E+04 -2.11726E+04  2.58270E+04 -2.92713E+03
  6.47552E+03  1.19509E+04 -9.48500E+03  2.37778E+04 -1.80362E+04  1.88160E+04 -2.60401E+04 -5.29918E+03
 -1.70024E+04 -2.18944E+04 -1.42460E+03 -3.14358E+04  8.68920E+03 -2.74300E+04  2.22738E+04 -1.51368E+04
  2.19650E+04  2.46414E+03  1.54082E+04  1.06630E+03  3.22633E+03 -4.34988E+03  1.31516E+04 -6.79987E+03
  2.04668E+04  1.91577E+03  2.20082E+04  1.35077E+04  2.20809E+04  3.44069E+04 -5.73345E+03  4.87761E+04
 -2.75473E+04  4.28880E+04 -4.68175E+04  1.74769E+04 -4.73383E+04 -2.17518E+03 -3.93467E+04 -2.60957E+04
 -1.06113E+04 -4.03967E+04  1.72587E+04 -3.26443E+04  2.73511E+04 -2.30141E+04  3.07373E+04  6.51891E+03
  1.17992E+04  1.26114E+04 -5.20723E+03  1.72037E+04 -2.53856E+04  3.80061E+03 -1.35417E+04 -1.28625E+04
 -3.92232E+03 -2.04929E+04  1.43660E+04 -9.33289E+03  1.38928E+04 -6.98002E+03  9.52434E+03  7.09239E+03
 -1.10435E+04  1.04677E+04 -1.24962E+04 -1.08776E+04 -4.03664E+03 -1.59407E+04  9.90344E+03 -2.10891E+04
  2.24455E+04 -1.43310E+04  2.75063E+04  4.60313E+03  2.25033E+04  1.70175E+04  6.56568E+03  2.76024E+04
 -9.68111E+03  3.33517E+04 -1.86835E+04  2.49998E+04 -1.61332E+04  3.91610E+03 -1.95813E+04 -7.42261E+03
 -3.77680E+03 -6.20907E+03  4.35687E+03 -1.21101E+03 -8.06582E+03  1.02880E+04 -8.67766E+03  3.92419E+03
 -1.70847E+04  2.34128E+03 -1.62474E+04 -1.06685E+04 -8.34976E+02 -2.12601E+04 -4.35804E+02 -1.59375E+04
  2.17812E+04 -8.42644E+03  6.66171E+03  5.04705E+03 -2.24263E+02  1.12556E+04 -5.49234E+03 -1.20734E+03
 -4.34845E+03 -1.45156E+04 -6.65274E+03 -2.29233E+04  5.14064E+03 -1.56673E+04  3.11160E+04 -5.82184E+03
  2.41477E+04  7.68873E+03  1.08017E+04  1.87828E+04  2.00285E+03  2.26611E+04 -9.19376E+03  1.32828E+04
 -1.24778E+04  7.40800E+03 -3.67983E+03 -1.15548E+04  4.21783E+03  3.28907E+02  6.31702E+03  1.06905E+03
  1.06384E+04  5.15336E+03 -2.14681E+03  1.66122E+04 -1.08338E+04  1.69530E+04 -1.45739E+04  5.58343E+03
 -1.34752E+04 -7.76334E+03 -4.46837E+03 -1.21050E+04  1.08279E+04 -8.76884E+03  4.67154E+03 -1.27330E+03
  4.94460E+03  7.30560E+03 -7.09048E+03  1.16958E+04 -1.49832E+04  8.41667E+03 -7.99947E+03 -7.86315E+03
  1.92560E+02 -1.64009E+04  2.78893E+02 -1.80704E+04  1.55297E+04 -1.04783E+04  1.07980E+04  1.03998E+03
  1.71338E+04  1.47754E+04 -1.41761E+03  1.77608E+04 -1.08518E+04  1.19408E+04 -1.47105E+04 -2.06240E+03
 -1.74240E+04 -7.73939E+03  6.63655E+03 -1.19570E+04  1.73796E+03 -1.09776E+04  5.23916E+03 -3.54215E+03
  9.54014E+03  3.77417E+02 -2.44024E+03  5.23886E+03  1.33765E+03 -2.36250E+03  7.22142E+03 -1.12095E+04
  1.77215E+04 -8.23940E+03  1.80016E+04 -2.91128E+03  1.49002E+04  1.52658E+04  7.84492E+03  2.22241E+04
 -8.74195E+03  2.51394E+04 -2.73582E+04  1.76380E+04 -2.71700E+04  1.01211E+04 -2.72297E+04 -6.68082E+03
 -1.34836E+04 -1.88737E+04 -7.98399E+03 -1.86050E+04 -3.30195E+03 -9.88969E+03  6.85984E+03 -7.68186E+03
 -7.78197E+02 -3.11229E+03 -3.80684E+03 -8.22600E+03  1.16736E+04 -4.96210E+03  5.69896E+03  3.09332E+01
  8.37598E+03  5.47769E+03  6.90107E+03  1.20446E+04 -1.32645E+03  1.89576E+04 -5.61926E+03  8.08787E+03
 -1.79688E+04 -2.46322E+03 -7.32937E+03 -1.35464E+04 -2.09136E+03 -1.78052E+04  1.27859E+04 -2.36728E+04
  1.90563E+04 -4.71374E+03  1.84998E+04  6.79318E+03  1.38871E+04  1.32391E+04  3.42047E+03  1.53237E+04
 -1.05218E+04  1.15932E+04 -4.44895E+03  2.74753E+03 -9.23041E+03 -3.85743E+03  5.55689E+03 -3.59938E+03
  4.80681E+03 -2.39577E+03 -2.24745E+03  1.06777E+04 -2.48270E+03  5.05008E+03 -1.62496E+04 -1.33573E+03
 -5.34323E+03 -6.95190E+03  3.83422E+03 -5.77116E+03  8.99409E+03 -2.17635E+04  1.75780E+04 -1.13092E+04
  1.30619E+04  7.57365E+03  8.88669E+03  1.76237E+04 -5.68735E+03  1.60178E+04 -1.07261E+04  1.34937E+04
 -1.21357E+04  5.60881E+03 -9.22057E+03 -1.04422E+04 -7.37137E+03 -1.75737E+04  7.30584E+03 -7.64623E+03
  7.22909E+03  2.65794E+03  1.27785E+04  1.16322E+03  7.95161E+02 -2.78371E+03  2.33456E+03  2.20414E+03
  5.84038E+03 -6.99098E+03  4.49589E+03  3.82483E+03  5.33413E+03  1.05743E+04  2.91608E+03  9.67370E+03
 -4.51121E+03  1.91040E+04 -1.42718E+04  1.26440E+04 -2.32724E+04  6.61429E+03 -1.98310E+04 -8.12080E+03
 -5.58837E+03 -1.70999E+04 -1.11654E+03 -1.55512E+04  9.43497E+03 -8.48587E+03  1.50624E+04 -4.87385E+03
  9.19774E+03  9.60944E+03 -2.99247E+03  1.12851E+04 -3.76591E+03  1.51527E+04 -1.07989E+04 -8.36721E+02
 -7.51548E+03 -7.99530E+03  2.58486E+03 -1.13491E+04  1.00023E+04 -1.73653E+03  5.79185E+03  1.41634E+03
  9.36452E+03 -7.68791E+02  4.54726E+03  3.60774E+02  5.37190E+03 -1.59039E+02  5.30336E+03 -5.48941E+03
 -1.98562E+03  2.32582E+03  4.66802E+03 -3.55017E+02  1.83473E+03  1.24500E+04 -3.77283E+03  1.72280E+04
 -5.21142E+03 -1.89502E+03 -9.76669E+03  6.25004E+03 -6.90054E+03 -5.92854E+03 -6.04474E+03 -3.01031E+03
 -3.05381E+03 -6.54771E+03  2.13886E+03 -4.68593E+03  1.91413E+03  4.40514E+03 -9.63202E+02  6.49923E+03
 -5.93258E+03  9.03106E+03 -7.16492E+03 -4.24364E+03 -4.01716E+03 -9.10639E+03 -1.66925E+03 -1.22066E+04
  7.16859E+03 -5.58110E+03  4.69206E+03 -4.54995E+03  2.42365E+03  2.71652E+02  3.90482E+03  4.60990E+03
  1.14573E+03 -4.39175E+03 -1.01185E+04 -3.39943E+03  2.29882E+03 -5.98537E+03  9.62825E+03 -5.88845E+03
  1.47688E+04  7.42472E+03  6.06174E+03  3.63469E+03  3.02283E+03  1.17967E+04 -2.22113E+03  1.73485E+04
 -8.39616E+03  6.81211E+03 -7.26260E+03  4.23329E+03 -2.70621E+03 -1.08455E+04  1.23578E+04 -1.01593E+04
  5.09250E+03 -1.43141E+03  2.72136E+02  2.71865E+03 -1.79692E+03  1.00066E+04  4.33731E+03  6.29773E+03
 -1.49312E+03 -1.69089E+03 -1.48472E+03 -2.81312E+03 -9.55850E+03  3.77957E+03  2.60816E+03  7.40878E+03
 -1.04526E+04 -2.07974E+03 -4.55929E+03  3.86823E+03 -3.11877E+03  1.10439E+04 -9.44674E+03 -6.59406E+03
 -1.07819E+04 -2.31114E+04 -5.33479E+02 -2.35421E+04  1.41450E+04 -1.35295E+04  1.08559E+04 -3.81495E+03
  1.47141E+04 -1.31673E+02  9.66276E+03  8.39154E+03 -3.08454E+03  1.19963E+04 -5.62166E+03  1.06978E+04
 -9.44322E+03  1.29262E+04 -7.25216E+03  2.47239E+03  2.59215E+03  4.99586E+03  1.61542E+03  5.04901E+03
 -2.86903E+02 -5.56438E+03  2.75218E+02  1.05102E+03  2.76473E+03 -6.18346E+03  1.82556E+03 -4.16210E+03
  1.14531E+04 -5.19182E+03  9.19449E+03  7.45030E+02  1.08427E+04  6.10421E+03  1.00473E+04  2.06042E+04
 -8.49255E+03  1.21036E+04 -1.24992E+04  2.57702E+03 -1.46889E+04 -2.40804E+03 -7.61841E+03 -1.00763E+04
 -4.83623E+03 -1.09052E+04  1.74213E+03 -1.20668E+04 -9.04045E+01 -7.66393E+03  9.99873E+03  3.57735E+03
  1.25395E+04  6.83826E+03 -2.65767E+03  5.16676E+03 -9.96288E+03  3.86476E+03 -1.85325E+03 -8.01306E+03
  4.42378E+03  5.66637E+03  1.26171E+03  4.36726E+03  2.82544E+03  1.72066E+04 -2.40379E+03  6.42292E+03
 -7.12607E+03  6.62862E+03 -8.32391E+03  2.60907E+03 -6.80135E+03 -4.50608E+03  4.94541E+03 -1.19754E+04
  1.12054E+04 -8.72145E+03  1.40059E+04 -5.59057E+03  1.00369E+04  5.77957E+03  4.45661E+03  1.74859E+03
  2.39538E+03  1.24922E+04 -1.46327E+03  4.83967E+03 -1.43022E+04  1.29154E+03 -4.48651E+03  2.28517E+03
 -3.61084E+03  2.55731E+03 -3.01322E+03 -3.86504E+02  4.64886E+03 -1.00478E+02 -3.24865E+03 -2.36291E+03
 -9.19045E+03 -4.49281E+03  1.16410E+03 -1.17648E+04  4.44999E+03 -8.88324E+03  1.51274E+04 -6.91039E+03
  1.18383E+04  7.23980E+03  6.77024E+03  1.00898E+04  8.27492E+02  6.91812E+03 -9.03536E+03  8.22642E+03
