 $NMID ID='MM_0lb_SNR50_12hz_g50_11.RAW', FMTDAT='(8E13.5)'
 TRAMP=1., VOLUME=1. $END
  3.05031E+05  2.18771E+03  3.37006E+05  2.48692E+05  8.44032E+04  3.41654E+05 -1.34180E+05  2.47613E+05
 -1.85196E+05  7.79508E+04 -1.11817E+05 -3.16186E+04 -2.08335E+03 -5.25088E+04  5.15651E+04  3.75519E+02
  3.50798E+04  5.32071E+04 -1.99960E+04  7.67380E+04 -5.93416E+04  6.09740E+04 -8.78528E+04  3.74380E+04
 -8.21549E+04 -9.49466E+03 -5.63474E+04 -5.27343E+04 -1.85403E+04 -6.98102E+04  2.92027E+04 -4.63823E+04
  3.80264E+04  4.78097E+03  1.85879E+04  5.04640E+04 -3.30007E+04  5.71943E+04 -6.50612E+04 -7.85421E+02
 -5.55639E+04 -5.70563E+04 -9.73517E+03 -8.24473E+04  4.24944E+04 -5.87072E+04  5.17140E+04 -1.38112E+04
  4.78451E+04  8.51915E+03  3.49336E+04  2.28122E+04  1.90488E+04  2.99457E+04 -7.71202E+03  2.75790E+04
 -2.27061E+04  1.27213E+04 -1.37166E+04 -3.82115E+03  6.23306E+03 -7.70159E+03  2.39010E+04  8.24908E+03
  7.73550E+03  3.92585E+04 -2.49081E+04  3.85732E+04 -6.26481E+04  3.46154E+03 -6.31626E+04 -4.25887E+04
 -1.30469E+04 -6.01009E+04  4.24244E+04 -4.47322E+04  6.16961E+04  1.27365E+02  3.43974E+04  3.61780E+04
 -9.19166E+03  4.05593E+04 -3.27498E+04  1.39130E+04 -3.18991E+04  9.12097E+02 -2.00736E+04 -5.93394E+03
 -5.55047E+03 -9.35437E+03  2.98764E+03 -1.43908E+04  4.68335E+03 -2.24942E+04  1.86363E+04 -8.18417E+03
  1.65601E+04  7.19726E+03 -1.09302E+04  1.07775E+04 -2.43482E+04 -6.93348E+03 -3.99094E+03 -3.61398E+04
  2.16883E+04 -4.89654E+04  4.68015E+04 -1.52534E+04  4.41416E+04  1.95087E+04  1.31426E+04  4.36440E+04
 -1.80277E+04  3.61903E+04 -2.55456E+04  1.60021E+03 -8.02985E+03 -2.92934E+04  2.08892E+04 -3.80944E+04
  4.39755E+04 -7.27315E+03  4.17619E+04  2.64610E+04  1.92510E+04  5.12897E+04 -8.92977E+03  5.33465E+04
 -3.84552E+04  3.52371E+04 -4.61130E+04  1.70657E+04 -4.44265E+04 -1.38402E+04 -2.58909E+04 -3.94586E+04
  1.17394E+04 -4.51386E+04  3.10321E+04 -1.79101E+04  3.32117E+04  9.80961E+03  4.81406E+03  2.48342E+04
 -1.60195E+04  5.37618E+03 -8.33914E+03 -8.22147E+03  3.83483E+03 -1.14759E+04  1.92562E+04  5.95176E+03
  1.14430E+04  2.62756E+04 -6.12374E+03  2.73299E+04 -1.94842E+04  1.19236E+04 -3.30897E+04 -4.73473E+03
 -2.37371E+04 -1.30869E+04 -1.01383E+04 -2.18149E+04  5.58839E+03 -2.54523E+04  1.31655E+04 -1.57323E+04
  3.07549E+04 -1.22799E+04  3.44886E+04 -1.98663E+03  2.14702E+04  2.06588E+04  6.48912E+03  4.16022E+04
 -1.95833E+04  3.03869E+04 -2.72825E+04  1.05682E+04 -2.27223E+04 -1.11799E+04 -3.44835E+02 -1.64493E+04
  3.10858E+03 -1.43262E+03 -1.31259E+04  1.14965E+04 -1.62052E+04  2.38086E+03 -1.51886E+04 -1.06149E+04
 -1.01484E+04 -2.32530E+04  4.27916E+03 -2.37019E+04  1.05196E+04 -1.45517E+04  2.29397E+04 -3.24818E+03
  1.19554E+04  1.29482E+04 -7.74122E+03  2.01102E+04 -1.25218E+04  1.35996E+04 -1.83969E+04 -8.16438E+03
 -1.95256E+04 -1.70278E+04 -6.29314E+03 -3.06817E+04  1.17591E+04 -1.90692E+04  2.23099E+04 -1.00630E+04
  2.10760E+04 -6.25110E+02  1.37395E+04  7.28034E+03  8.22645E+03 -1.79833E+03  1.19941E+04  1.05565E+03
  2.06870E+04  1.75070E+03  2.41416E+04  1.62150E+04  1.54417E+04  3.81170E+04 -4.20364E+03  3.92095E+04
 -2.33541E+04  3.18455E+04 -3.92353E+04  1.14981E+04 -3.39928E+04 -3.18149E+03 -2.94998E+04 -2.74786E+04
 -1.20341E+04 -3.08044E+04  9.48177E+03 -2.90269E+04  2.29311E+04 -1.43754E+04  1.77434E+04  4.60294E+03
  4.62047E+03  1.71445E+04 -9.06584E+03  1.73911E+04 -1.42400E+04  4.95873E+03 -8.06760E+03 -1.12322E+04
 -2.62063E+03 -1.72165E+04  1.48653E+04 -9.33314E+03  9.99869E+03 -3.24769E+03  3.72648E+03  6.83308E+03
 -2.70325E+03  2.69139E+03 -4.27966E+03 -3.48394E+03 -1.52844E+03 -1.85880E+04  1.21427E+04 -1.84539E+04
  1.74105E+04 -7.58996E+03  2.73271E+04 -1.08578E+02  1.96109E+04  1.66587E+04  3.15020E+03  2.46881E+04
 -5.27816E+03  1.92823E+04 -1.62536E+04  1.16568E+04 -1.64916E+04 -1.52259E+03 -1.40129E+04  6.14464E+02
 -1.04977E+04 -7.61019E+03  9.83788E+02  7.50340E+03 -2.09519E+03  2.10686E+03 -6.41307E+03  3.40137E+03
 -1.41348E+04  6.63048E+02 -1.13396E+04 -5.13311E+03 -8.97137E+03 -1.85501E+04  9.69788E+03 -1.65890E+04
  1.28814E+04 -2.46166E+03  8.64740E+03  9.71123E+03 -2.50125E+03  2.32466E+03 -3.50860E+03  5.32187E+02
 -8.20292E+03 -1.28026E+04  4.94204E+02 -1.38890E+04  1.99653E+03 -1.55542E+04  1.76429E+04 -6.44582E+03
  2.11066E+04  6.77708E+03  1.40985E+04  7.82048E+03  4.02294E+03  1.91006E+04 -6.70335E+03  1.08826E+04
 -9.80392E+03  7.27891E+02 -5.21504E+03 -4.71727E+03 -2.48717E+03 -4.61164E+03  5.77245E+03  3.04655E+03
  5.16959E+03  3.75538E+03  3.91661E+03  1.23910E+04 -3.75575E+03  9.67169E+03 -1.28737E+04  6.68005E+00
 -7.73164E+03 -6.02696E+03 -1.84092E+03 -8.78989E+03  9.29262E+03 -6.96917E+03  4.47851E+03  2.89561E+03
  1.51445E+03  6.09322E+03 -2.71140E+03  9.52070E+03 -8.22181E+03  4.80885E+03 -4.91128E+03 -9.63010E+03
 -5.38117E+03 -9.47075E+03  2.56812E+03 -1.70898E+04  7.25506E+03 -1.17363E+04  1.92299E+04  6.02067E+03
  8.14738E+03  1.07723E+04 -3.47844E+03  1.58811E+04 -1.69076E+04  1.36996E+04 -1.13747E+04  7.59716E+02
 -9.08020E+03 -1.11866E+04 -3.97102E+03 -7.21420E+03  5.82168E+03 -7.43874E+03  5.65216E+03 -3.57425E+03
  6.07665E+03  2.12048E+03  4.41011E+02 -1.18528E+02 -1.36737E+03 -1.09741E+03 -4.73424E+02 -6.35245E+03
  1.34461E+04 -1.36199E+03  1.22624E+04  5.97311E+03  8.85775E+03  1.36670E+04  5.81257E+03  1.59652E+04
 -6.21371E+03  2.21402E+04 -1.57660E+04  1.52405E+04 -2.11478E+04  3.78849E+02 -1.32088E+04 -4.44982E+03
 -6.85904E+03 -1.63319E+04  4.01020E+03 -7.16300E+03  8.20496E+03 -7.28907E+03  8.32811E+02 -2.92159E+03
  4.76644E+03 -2.80624E+03  2.85284E+03 -5.26844E+03  9.68345E+03  1.49314E+03  1.07639E+04 -5.91968E+02
  6.32441E+03 -2.02989E+03  3.94926E+03  8.23036E+03  2.01815E+03  5.43099E+03 -4.06362E+03  6.49132E+03
 -1.08669E+04 -4.50592E+03 -4.27357E+03 -3.28637E+03 -5.00905E+02 -1.01999E+04  8.81205E+03 -1.44092E+04
  8.76898E+03 -8.98721E+03  8.49647E+03 -5.81055E+02  7.73333E+03  8.13662E+03 -2.02003E+03  2.00765E+04
 -1.88264E+03  1.07895E+04 -8.51577E+03  2.25970E+03 -1.10937E+04 -7.29130E+03  4.55282E+03 -7.00145E+03
 -1.10448E+03 -1.11792E+03 -3.60616E+03  2.93153E+03 -9.01496E+03  9.55517E+02 -1.13464E+04  1.82069E+03
 -4.32198E+03 -4.89855E+03  2.80543E+03 -1.30282E+04  5.39335E+03 -1.43237E+04  6.33755E+03 -2.39068E+03
  1.24149E+04  5.51097E+03  3.19950E+03  4.25436E+03 -8.66237E+02  6.67282E+03 -7.93498E+03  8.40008E+03
 -4.43437E+03  2.42460E+03 -9.41779E+03 -6.13825E+03 -5.25184E+03 -1.05025E+04  1.23562E+03 -7.15351E+03
  5.76756E+03 -3.25068E+03  3.74772E+03 -1.19893E+03  7.74551E+03  1.39442E+03  6.02835E+03  8.71097E+02
  3.18620E+03  2.16841E+03  4.46269E+03 -3.84153E+03  3.28573E+03  5.18705E+03 -3.60787E+03  1.39228E+03
 -3.17333E+03  1.03486E+04 -8.25557E+03  6.39491E+03 -8.21900E+03  5.03808E+03 -9.99117E+03 -2.15838E+03
 -6.34328E+03 -6.01459E+03  7.86639E+02 -1.61616E+04  7.24725E+03 -1.18402E+04  7.47709E+03  4.86542E+02
  4.15178E+03  2.80132E+03 -7.54716E+02  1.08585E+04 -3.14735E+03  3.29349E+03 -2.92471E+03 -2.80028E+03
 -7.84492E+03 -2.33852E+03  4.27306E+03 -4.08788E+03  2.01782E+03 -3.71073E+03  3.65934E+03  2.48719E+03
 -9.88374E+02 -2.41360E+03  6.39924E+03  3.50908E+03 -4.47998E+03  3.32998E+03  7.79683E+02 -1.88049E+03
  1.46300E+03 -1.10786E+03  1.28900E+03 -1.35853E+03  1.72879E+03  2.57957E+03 -1.38874E+03  4.66327E+03
 -7.18625E+03  2.93661E+02 -9.73844E+03  2.89078E+03 -1.08615E+04 -6.20107E+03 -1.88485E+03 -2.60392E+03
  1.24621E+03 -7.84541E+03 -1.04579E+03  8.23360E+02 -3.22141E+02 -2.01648E+03 -2.45418E+03  5.06715E+03
 -7.14210E+03  1.69788E+03 -5.55447E+03 -8.38758E+03 -7.09144E+03 -3.40827E+03  1.41970E+03 -6.07716E+03
 -1.65807E+03 -5.75134E+03  3.02816E+03  4.85510E+02  7.66278E+03  1.26896E+03 -2.53818E+03  3.95844E+03
 -4.84500E+03  1.56664E+03 -1.22994E+03  4.97286E+03 -1.26960E+02 -7.17132E+03  6.41646E+03 -7.16550E+03
  6.11070E+03 -1.57179E+02  5.94750E+03  3.78735E+03  4.53585E+03  5.58749E+03 -9.83613E+02  4.79522E+03
 -6.67758E+03  1.67234E+03 -5.70429E+03 -2.18497E+03 -8.71495E+03 -3.98273E+03 -3.01587E+03 -2.96330E+03
 -1.77729E+03 -1.90966E+03  1.42122E+03 -3.38560E+02 -1.33045E+03  3.05614E+03 -1.95142E+03  3.96616E+03
  1.68662E+03  2.69487E+03 -1.45413E+03  1.72817E+03  3.45126E+02  3.16829E+03 -5.74318E+02  3.68497E+03
 -2.92366E+03  4.88145E+03 -3.31505E+03  7.81296E+03 -7.06443E+03  8.70107E+03 -3.87755E+03 -5.60143E+03
 -4.13133E+03 -4.58731E+03  1.98363E+03 -6.14685E+03  8.14579E+02 -9.75025E+03  4.03377E+03 -1.80473E+03
  3.99569E+03 -4.76825E+03 -2.77209E+03  3.67675E+03 -3.00294E+03  4.28550E+03 -5.09365E+03  9.45833E+03
 -4.41744E+03  6.04678E+03  5.56588E+03  4.19653E+02 -2.95372E+01  5.23096E+03 -1.13113E+03  2.76418E+03
 -1.02956E+03 -8.44406E+02 -2.92742E+03 -1.56929E+03 -8.48387E+02 -1.68823E+03 -3.39646E+03  5.19138E+02
  1.82301E+03  4.83418E+02  2.08328E+02  4.04385E+03  4.37365E+03  1.49095E+03 -1.11085E+03  5.95448E+03
 -2.67751E+03  1.47663E+04 -1.07194E+04 -4.80315E+02 -6.87272E+03  1.55790E+03 -2.21778E+03 -6.33790E+03
 -3.38037E+03 -3.82297E+03 -1.49815E+03 -2.37672E+03  1.04524E+03 -4.84535E+03  7.08629E+03 -3.40973E+03
 -4.70189E+02 -5.49528E+03  9.46767E+03  3.44940E+03 -1.23750E+03  1.41629E+03 -2.68062E+03 -8.87310E+02
 -1.93407E+03  5.33671E+03  4.68177E+03 -1.44445E+03  6.20225E+03  4.43610E+03 -1.95329E+03 -2.74833E+03
 -1.48060E+03  8.34331E+02 -8.71340E+03 -1.48036E+03 -4.47487E+03  2.21400E+03 -1.17424E+03 -8.31022E+03
  3.67531E+03 -6.57787E+03  2.79102E+03  2.11400E+03  4.77568E+03 -1.47296E+02  5.08462E+03  1.49334E+03
 -3.33472E+03  4.72285E+03 -2.77484E+03  9.94107E+02  1.26982E+03  1.29306E+03  9.43170E+02 -1.89016E+03
  4.25605E+03 -1.54042E+03  2.35548E+03  1.47005E+03 -4.54980E+03  3.94966E+03 -6.42780E+03 -5.66185E+03
 -5.65119E+03 -2.45791E+03 -1.69159E+03 -2.14311E+03  7.59174E+03 -3.36346E+03 -1.04383E+03  1.80295E+03
 -3.10892E+03  2.75673E+03  1.57867E+03 -2.64668E+03  4.58095E+03  1.68016E+03 -3.30017E+03 -1.78330E+02
