 $NMID ID='MM_0lb_SNR50_7hz_g50_82.RAW', FMTDAT='(8E13.5)'
 TRAMP=1., VOLUME=1. $END
  3.09111E+05 -5.34058E+02  3.39357E+05  2.44096E+05  8.99146E+04  3.37071E+05 -1.29391E+05  2.49319E+05
 -1.91496E+05  8.57336E+04 -1.13638E+05 -3.66428E+04  2.96742E+02 -5.80312E+04  5.40726E+04 -8.56784E+02
  3.68678E+04  5.05491E+04 -1.16837E+04  7.50391E+04 -6.11850E+04  7.19396E+04 -8.22617E+04  3.16959E+04
 -8.17293E+04 -1.59532E+04 -6.00830E+04 -5.63493E+04 -1.87283E+04 -6.89676E+04  3.56097E+04 -5.11806E+04
  3.90508E+04  2.55267E+03  1.70262E+04  4.76104E+04 -3.50518E+04  5.20406E+04 -7.02259E+04  1.38510E+03
 -5.39567E+04 -5.83437E+04  1.77207E+03 -7.71098E+04  3.43384E+04 -6.18307E+04  4.53126E+04 -1.27857E+04
  3.96798E+04  1.33109E+04  3.12938E+04  2.52789E+04  1.67777E+04  3.12105E+04  1.43494E+03  2.63032E+04
 -3.33083E+04  1.46388E+04 -1.77516E+04 -1.18657E+04  9.66893E+03 -4.54877E+03  2.22130E+04  1.51097E+04
  1.17268E+04  4.55293E+04 -3.60507E+04  3.85742E+04 -5.75908E+04  1.44761E+03 -5.77614E+04 -4.79055E+04
 -1.35337E+04 -6.84215E+04  4.00097E+04 -4.69259E+04  6.32070E+04 -4.05781E+01  3.32700E+04  3.16517E+04
 -8.52373E+03  4.37767E+04 -3.53056E+04  2.94817E+04 -3.48292E+04  4.02242E+03 -2.47477E+04 -1.23500E+04
 -1.08013E+04 -1.11609E+04 -5.76494E+03 -2.07083E+04  3.43556E+03 -2.00412E+04  8.27381E+03 -1.05718E+04
  1.36566E+04  5.87492E+03 -1.17024E+04  1.25851E+04 -3.29127E+04 -7.61970E+03  6.50201E+02 -3.74601E+04
  2.43542E+04 -4.97578E+04  5.45872E+04 -2.17315E+04  5.11092E+04  1.89284E+04  1.57738E+04  4.58165E+04
 -1.77539E+04  2.96756E+04 -2.99743E+04  6.94984E+03 -1.09688E+04 -3.15732E+04  2.53290E+04 -3.59725E+04
  4.30586E+04 -1.47296E+04  4.06930E+04  1.51284E+04  1.82403E+04  5.06802E+04 -9.39058E+03  5.78250E+04
 -3.94909E+04  4.12052E+04 -5.15678E+04  1.46364E+04 -4.64495E+04 -1.43698E+04 -2.84431E+04 -4.11981E+04
  1.18615E+04 -3.79663E+04  3.58228E+04 -1.98859E+04  3.90343E+04  1.42207E+04  9.15203E+03  2.40117E+04
 -7.99781E+03  6.28841E+03 -5.91831E+03 -7.40555E+03  7.44444E+03 -1.29935E+04  2.18714E+04  4.95696E+03
  1.91812E+04  2.41520E+04 -7.52330E+03  2.87875E+04 -2.40399E+04  8.34772E+03 -3.27809E+04 -2.85327E+03
 -2.75629E+04 -2.10889E+04 -1.95598E+04 -2.60198E+04  8.84848E+03 -2.81300E+04  2.00273E+04 -2.55232E+04
  3.03405E+04 -6.79827E+03  3.98827E+04  3.21615E+03  2.64129E+04  1.78136E+04  5.27988E+03  4.13739E+04
 -2.17781E+04  3.88673E+04 -2.73780E+04  1.68891E+04 -2.36448E+04 -1.21844E+04 -7.14532E+03 -7.21304E+03
  8.72165E+03  1.93303E+03 -1.10157E+04  1.11121E+04 -2.20445E+04 -1.16429E+02 -2.81729E+04 -6.81058E+03
 -1.41622E+04 -2.03884E+04  3.77583E+02 -3.30295E+04  1.66816E+04 -1.75638E+04  2.84470E+04 -6.89111E+03
  1.12538E+04  2.03548E+04 -5.89477E+03  2.96198E+04 -1.44193E+04  1.08022E+04 -2.26035E+04 -9.02176E+03
 -2.10567E+04 -2.84864E+04 -8.65484E+02 -3.14066E+04  1.10305E+04 -2.67614E+04  2.81690E+04 -1.41401E+04
  2.46456E+04  4.22263E+02  1.64211E+04  1.28424E+04  1.48157E+04 -5.58344E+03  1.15895E+04 -3.19014E+03
  2.50479E+04  3.11591E+03  2.80262E+04  2.23432E+04  3.22914E+04  3.67506E+04 -3.09586E+03  4.82881E+04
 -2.34008E+04  4.20405E+04 -4.52285E+04  2.70643E+04 -5.33985E+04 -7.56764E+03 -3.31116E+04 -3.70778E+04
 -1.34833E+04 -3.53714E+04  1.25230E+04 -3.33370E+04  2.62959E+04 -1.05664E+04  2.05012E+04  1.15713E+04
  9.61440E+03  1.47513E+04 -1.25423E+04  2.13840E+04 -2.30546E+04  6.74749E+02 -2.16009E+04 -2.00538E+04
  8.05194E+02 -2.33215E+04  1.06856E+04 -1.65183E+04  7.67155E+03 -1.74287E+02  1.88480E+03  1.33345E+04
 -1.89063E+03  8.78080E+03 -1.28452E+04 -4.90979E+03 -2.52520E+03 -2.21699E+04  1.69529E+04 -1.71150E+04
  3.08120E+04 -1.07631E+04  2.40041E+04 -3.55220E+03  3.30537E+04  2.97532E+04  8.39710E+03  3.39204E+04
 -1.25813E+04  4.05180E+04 -3.14881E+04  2.17881E+04 -2.98203E+04 -9.14831E+02 -2.11990E+04 -1.13772E+04
 -4.86297E+03  2.01839E+02 -2.02909E+03  7.72771E+02 -2.95679E+02  8.96256E+03 -1.21492E+04  1.28751E+04
 -2.63149E+04 -9.98628E+02 -1.62278E+04 -1.75119E+04 -5.32249E+03 -1.82562E+04  7.46943E+03 -1.89413E+04
  1.53792E+04 -6.92684E+03  4.79576E+03  1.19355E+04 -2.16665E+03  1.08739E+04 -9.32458E+03 -7.23903E+03
 -1.20820E+04 -1.17078E+04 -2.24106E+01 -2.67921E+04  4.14380E+03 -1.71020E+04  2.65931E+04 -1.17081E+04
  3.36790E+04  9.10394E+03  2.04753E+04  2.08537E+04  9.20905E+03  2.25095E+04 -7.10292E+03  1.86679E+04
 -1.08926E+04 -2.46611E+03 -3.62792E+03 -2.58582E+03  2.37660E+03 -7.94535E+03  1.80180E+04  3.44800E+03
  4.57175E+03  7.75787E+03  1.75024E+03  1.56685E+04 -1.39272E+04  8.37220E+03 -2.33346E+04  4.03036E+03
 -1.66939E+04 -9.30936E+03 -1.33898E+03 -1.04601E+04  1.27031E+04 -6.57651E+03  9.58309E+03  5.37402E+03
  1.28357E+02  1.05471E+04 -7.36131E+03  1.70467E+04 -1.32465E+04  1.25206E+04 -2.11169E+04  2.21677E+03
 -1.51340E+04 -1.86966E+04  3.30931E+03 -1.24872E+04  2.45068E+04 -3.87920E+03  1.38254E+04  4.14588E+03
  1.62762E+04  1.85617E+04  8.55143E+02  1.52560E+04 -1.26184E+04  1.28705E+04 -1.78844E+04  6.49981E+03
 -2.07076E+04 -1.10136E+04 -8.51652E+03 -1.69917E+04  7.04596E+03 -7.57637E+03  1.20904E+04 -9.25976E+03
  6.13316E+03  6.31923E+03  4.90488E+03  3.49583E+03  1.05782E+03 -4.09990E+03  7.53444E+03 -4.08704E+03
  9.20449E+03 -4.81323E+03  2.04534E+04  1.28291E+03  2.85858E+04  1.48079E+04  1.34943E+04  2.53904E+04
 -5.96391E+03  3.12391E+04 -1.81567E+04  1.95858E+04 -2.65961E+04  5.88006E+03 -1.94940E+04 -1.04082E+04
 -1.57763E+04 -1.55136E+04 -5.78062E+03 -2.93068E+04  7.94303E+03 -1.47337E+04  4.08418E+03 -1.45644E+03
  2.49599E+03 -8.40330E+03 -1.38425E+03 -8.51343E+03  4.38939E+03 -7.39705E+03  1.07703E+04  2.73498E+03
  1.54431E+04 -1.30162E+03  8.80940E+03  1.22757E+04  1.54444E+03  1.45544E+04 -1.59190E+04  5.44843E+03
 -1.95052E+04 -5.54491E+02 -1.37162E+04 -8.92277E+03  1.19192E+03 -1.41078E+04  9.20394E+03 -1.81302E+04
  1.81225E+04 -7.01046E+03  2.55404E+04  3.39963E+03  1.79481E+04  1.71753E+04  1.98568E+02  2.84524E+04
 -1.55930E+04  1.25365E+04 -1.32812E+04  5.07434E+03 -1.16142E+04  3.54721E+03  2.97433E+03 -3.88418E+03
  3.46762E+03 -1.02635E+03 -8.25647E+02 -6.54638E+03 -8.31437E+03 -7.64413E+03 -1.40701E+04 -3.93784E+03
 -9.16016E+03 -1.11439E+04 -6.30916E+03 -2.23469E+04  9.32808E+03 -1.35043E+04  2.13276E+04 -1.26367E+04
  2.03447E+04  9.02871E+03  1.19281E+04  1.85392E+04 -5.33807E+03  2.00872E+04 -9.41220E+03  2.02601E+04
 -1.70138E+04 -3.72848E+03 -1.84160E+04 -1.05391E+04  1.20834E+03 -1.49733E+04  1.03398E+04 -9.09719E+03
  1.52330E+04 -8.46481E+03  1.27807E+04  5.34216E+03  5.56861E+03  1.94799E+03 -1.38613E+03  2.17986E+03
  2.79358E+03  6.44870E+03  5.27077E+03  1.18006E+03  6.86077E+03  5.19290E+03  1.13503E+04  1.11620E+04
 -1.14287E+03  1.80957E+04 -1.23232E+04  8.25586E+03 -2.49863E+04  5.36467E+03 -2.26806E+04 -9.94060E+03
 -1.02722E+04 -1.28518E+04 -6.92155E+02 -2.05437E+04  9.34163E+03 -6.03042E+03  1.69505E+04 -5.93283E+03
  1.63236E+04  8.74035E+03  8.30194E+03  2.07233E+04 -4.66022E+03  2.68001E+03 -6.89331E+03  6.44476E+02
  1.68249E+03 -1.15072E+04  3.43868E+03 -7.09566E+03  8.92050E+03  1.41060E+03 -2.07205E+03  1.36354E+03
  1.72324E+03  4.96918E+03  3.05772E+03  5.25059E+03 -9.70956E+03  1.36004E+03 -4.20663E+03  6.35704E+02
  9.36262E+03  1.32716E+03  1.12175E+04  1.05179E+03  1.00422E+04  8.73434E+03 -1.50818E+03  1.30663E+04
 -1.03772E+04  6.18050E+03 -1.42183E+04 -2.65058E+02 -9.59965E+03 -1.01375E+04 -8.81725E+03 -6.70966E+03
  3.67331E+03 -1.19223E+04  1.14645E+04 -3.98327E+03  5.85932E+03 -2.58719E+03 -2.75343E+03  1.01040E+03
 -1.56116E+04  3.25638E+03 -1.50701E+03 -5.11514E+03 -5.10240E+03 -6.92708E+03 -2.95286E+03 -9.79506E+03
  1.05215E+04  1.67463E+03  8.38924E+03 -1.85133E+03  7.22834E+03  5.88075E+03 -1.89356E+02  2.63321E+03
 -6.97547E+03 -3.71701E+03 -4.14576E+03  1.56243E+03  1.83861E+03 -4.07592E+03  1.24762E+04 -7.97899E+03
  1.94541E+04  2.07381E+03  1.04914E+04  6.66231E+03  8.77203E+03  2.79068E+04 -5.58530E+03  1.17911E+04
 -8.10007E+03  1.17707E+04 -1.54461E+04 -8.64338E+03 -1.19914E+04 -1.99609E+04 -1.27123E+03 -6.14987E+03
  5.77684E+03 -1.27790E+03  5.76000E+03  1.13197E+03  9.59902E+03  4.11084E+03 -4.40203E+03  8.92858E+03
 -4.21766E+03  1.12927E+04 -5.86319E+03  3.41988E+03 -8.02022E+02 -2.36012E+03  1.39075E+03  3.50280E+03
 -2.13212E+03  4.98115E+03 -7.34583E+03  8.21036E+03 -1.73311E+04 -9.15098E+02 -1.69475E+04 -6.21671E+03
 -6.42886E+03 -1.75709E+04  6.55318E+02 -2.46192E+04  1.94312E+04 -1.55322E+04  2.48395E+04 -8.28621E+03
  2.34869E+04  4.79389E+03  1.54154E+04  8.86030E+03 -1.72031E+03  1.81537E+04 -5.45678E+03  8.73168E+03
 -5.15656E+03  5.27448E+03 -1.11174E+04 -7.53931E+03 -2.17395E+03  2.77260E+03 -4.16655E+03 -1.67779E+03
 -1.20524E+03  3.86936E+02 -3.42189E+02 -7.96049E+03  8.65398E+03 -3.38640E+03 -3.43947E+02 -7.94049E+03
  1.36028E+04 -4.46425E+03  8.61055E+03 -2.73830E+03  1.04515E+04  6.80588E+03  1.42542E+02  1.24985E+04
 -7.43717E+03  2.32107E+04 -1.21148E+04  1.93985E+04 -1.24418E+04 -3.74735E+02 -2.30618E+04 -4.36964E+03
 -7.76367E+02 -1.72208E+04  6.97661E+03 -1.46387E+04  1.14267E+04 -3.15258E+03  5.17026E+03 -5.61634E+03
  1.26962E+03  6.77230E+03 -2.75001E+03  8.43884E+03  5.79855E+02  2.76004E+02  3.19278E+03 -2.92654E+03
  3.72625E+03 -4.40200E+03  2.86924E+03  2.24269E+03 -3.19281E+03  5.20870E+03 -2.93361E+03  9.83235E+03
 -7.65560E+02  1.20745E+04 -9.11325E+03 -1.66902E+03 -1.00081E+04  8.92791E+02  5.24737E+03 -1.00285E+04
  1.35173E+04 -1.36494E+04  9.31087E+03 -2.59077E+03  9.60901E+03  8.02588E+03  6.34693E+03  1.34802E+04
 -9.26857E+02  1.18353E+04 -9.00026E+03  9.74448E+03 -1.30267E+04  5.26754E+03 -1.31250E+04 -1.63277E+03
 -2.20586E+02 -2.78839E+03 -3.80839E+03  1.66963E+03 -3.60375E+03 -5.47906E+03 -9.32557E+03  1.35975E+03
 -1.15692E+04 -1.36497E+03 -4.90776E+03 -7.68516E+03 -9.85285E+02 -3.64135E+03  1.27416E+04 -3.62674E+03
  6.91347E+03  1.61047E+03  3.80393E+03  1.16304E+04 -7.96402E+02  9.14883E+03 -6.88153E+03  8.98634E+03
