 $NMID ID='MM_0lb_SNR50_10hz_g60_25.RAW', FMTDAT='(8E13.5)'
 TRAMP=1., VOLUME=1. $END
  3.12910E+05  3.75068E+03  3.38663E+05  2.56357E+05  8.36397E+04  3.42514E+05 -1.34564E+05  2.50560E+05
 -1.85737E+05  8.05301E+04 -1.14502E+05 -3.21832E+04 -5.83519E+02 -5.00045E+04  4.65334E+04  5.06287E+02
  3.48657E+04  5.54719E+04 -9.03557E+03  7.37350E+04 -6.47833E+04  6.39912E+04 -8.75664E+04  2.83363E+04
 -7.86344E+04 -1.27723E+04 -6.33354E+04 -5.23660E+04 -1.37323E+04 -7.02051E+04  2.34357E+04 -4.68263E+04
  4.95318E+04  5.89437E+03  1.70538E+04  5.03265E+04 -3.15333E+04  4.86846E+04 -6.23065E+04  1.61717E+03
 -5.11951E+04 -6.14942E+04 -4.77393E+03 -7.71573E+04  3.71448E+04 -5.64122E+04  5.51570E+04 -2.19305E+04
  4.66205E+04  1.14235E+04  3.06196E+04  2.26348E+04  1.97542E+04  3.20320E+04 -1.10057E+04  2.91183E+04
 -2.64845E+04  1.89082E+04 -2.20441E+04 -5.49438E+03  1.27521E+04 -9.25310E+03  2.33170E+04  1.25033E+04
  7.33415E+03  4.13867E+04 -3.59329E+04  3.69685E+04 -5.92339E+04  4.14659E+03 -5.30247E+04 -4.56865E+04
 -1.08291E+04 -6.60916E+04  4.03405E+04 -4.91091E+04  5.90919E+04 -5.13612E+03  4.63728E+04  3.39430E+04
 -4.14798E+02  4.13155E+04 -2.93064E+04  2.21774E+04 -3.04277E+04 -6.95525E+02 -1.90727E+04 -1.33501E+04
 -7.99081E+03 -1.22028E+04 -2.43525E+03 -1.85429E+04  9.31441E+03 -2.88279E+04  1.75047E+04 -1.38766E+04
  6.51597E+03  7.27690E+03 -1.16349E+04  1.12923E+04 -2.22628E+04 -1.42663E+04 -1.15199E+04 -3.54530E+04
  2.57799E+04 -4.78710E+04  5.14568E+04 -2.11146E+04  5.72851E+04  1.99725E+04  1.44044E+04  5.12128E+04
 -1.77474E+04  3.61598E+04 -2.93731E+04  4.17311E+03 -9.33298E+03 -2.53079E+04  2.58170E+04 -3.99891E+04
  4.24694E+04 -1.19431E+04  3.92719E+04  1.81454E+04  1.49357E+04  4.56653E+04 -1.13292E+04  6.41113E+04
 -3.96966E+04  3.80092E+04 -5.00819E+04  1.61567E+04 -4.82368E+04 -2.20193E+04 -2.69528E+04 -3.99379E+04
  4.94427E+03 -3.72343E+04  2.80323E+04 -2.05080E+04  3.15842E+04  1.33198E+04  3.51551E+03  2.03336E+04
 -1.83057E+04  8.12647E+03 -1.13879E+04 -9.10291E+03  6.75324E+03 -1.13033E+04  1.93407E+04  5.84959E+03
  1.43086E+04  1.92764E+04 -5.79295E+03  2.93061E+04 -2.86903E+04  1.23527E+04 -3.40676E+04 -5.24972E+03
 -3.21598E+04 -1.83226E+04 -1.22198E+04 -2.58886E+04  3.98758E+03 -2.45212E+04  1.78440E+04 -1.71186E+04
  3.14657E+04 -1.52594E+04  3.53366E+04  1.08405E+04  2.65774E+04  2.83798E+04  7.61337E+03  4.29672E+04
 -2.05561E+04  3.17448E+04 -3.47061E+04  1.11903E+04 -2.23285E+04 -6.21578E+03 -1.98919E+03 -9.02680E+03
 -2.71629E+03 -4.04056E+03 -4.33496E+03  3.59661E+02 -2.23317E+04  3.73935E+03 -1.80961E+04 -1.05057E+04
 -1.02623E+04 -2.19502E+04  4.96906E+03 -2.52959E+04  1.65261E+04 -1.90500E+04  1.54710E+04  5.43805E+03
  1.48988E+04  1.84556E+04  4.89419E+03  1.78784E+04 -1.74472E+04  1.11406E+04 -1.76961E+04 -4.04467E+03
 -1.51260E+04 -2.81686E+04  3.45656E+03 -2.85261E+04  1.08661E+04 -2.77635E+04  2.21665E+04 -4.19807E+03
  2.14563E+04 -1.88719E+03  1.50987E+04  9.39506E+03  1.05457E+04  3.59288E+03  1.32104E+04 -7.43410E+03
  2.54069E+04 -4.78598E+02  2.92031E+04  2.37014E+04  2.42005E+04  4.01591E+04 -3.05254E+03  4.70940E+04
 -2.28514E+04  3.80207E+04 -4.77930E+04  1.32041E+04 -4.48125E+04  4.15836E+02 -3.85376E+04 -2.95294E+04
 -9.34039E+03 -3.85698E+04  7.46144E+03 -2.88875E+04  2.79659E+04 -2.02046E+04  2.85688E+04  7.30871E+03
  8.11823E+03  2.22799E+04 -1.12233E+04  1.11418E+04 -2.27430E+04  2.37279E+03 -1.32877E+04 -1.42949E+04
  3.61038E+02 -2.55249E+04  1.14758E+04 -1.14758E+04  1.49770E+04  5.77450E+03  5.12123E+03  1.01065E+04
 -9.69950E+03  2.32605E+03 -9.77061E+03 -1.07924E+04  3.29876E+03 -1.76458E+04  1.19443E+04 -2.04730E+04
  2.40396E+04 -1.67999E+04  3.02355E+04  3.71280E+03  2.20628E+04  1.62380E+04  1.30635E+04  3.33278E+04
 -2.53727E+03  3.42353E+04 -2.06228E+04  1.99093E+04 -2.47024E+04  1.14471E+04 -1.83802E+04 -8.82352E+03
 -3.71329E+03 -1.13596E+04  2.36195E+03  3.28954E+03 -5.80837E+03  4.84470E+03 -1.05811E+04  8.86600E+03
 -1.74760E+04 -3.67584E+03 -1.72046E+04 -1.03399E+04 -7.66411E+02 -2.20153E+04  3.65637E+03 -1.58918E+04
  1.42311E+04 -1.14746E+04  1.08675E+04  3.09192E+03  4.73490E+03  9.84243E+03 -8.75976E+03  3.07578E+02
 -1.34046E+04 -1.02688E+04  1.61290E+03 -2.43371E+04  1.12872E+04 -1.36263E+04  1.86385E+04 -1.99784E+03
  2.50323E+04  4.41325E+03  2.02500E+04  1.21488E+04  6.35353E+03  2.62137E+04 -7.35652E+03  1.86483E+04
 -7.28620E+03  8.74795E+03 -8.66903E+03 -5.72555E+03  1.97063E+03 -4.68618E+03  4.45450E+03  9.15792E+02
  8.44690E+03  8.70037E+03  1.38889E+03  1.28282E+04 -7.16058E+03  9.41173E+03 -9.11350E+03 -3.06719E+03
 -1.49040E+04 -5.87931E+03  2.04705E+03 -2.03254E+04  1.55305E+04 -7.74155E+03  7.36460E+03  2.20715E+03
  1.09866E+04  9.22381E+03 -1.24935E+04  1.04211E+04 -1.32896E+04  3.57098E+03 -1.16302E+04 -5.20037E+03
 -4.59298E+03 -2.26102E+04  1.11910E+04 -1.49306E+04  1.42559E+04 -1.16806E+04  1.02835E+04 -1.93950E+03
  9.69701E+03  1.32636E+04 -2.97692E+03  1.32275E+04 -7.64550E+03  1.09703E+03 -1.41585E+04  1.47643E+03
 -1.19524E+04 -1.49291E+04 -6.40059E+03 -1.04038E+04  1.63869E+03 -4.25330E+03  9.55795E+03 -3.87137E+03
  3.61760E+03  3.04253E+03 -6.52898E+03 -8.39891E+02  1.51614E+03 -3.77273E+03  1.21248E+03 -6.62464E+03
  7.06026E+03 -1.08688E+04  1.85613E+04 -2.15499E+02  1.46097E+04  5.22934E+03  7.43169E+03  1.24665E+04
 -8.32533E+03  1.93636E+04 -1.92248E+04  2.79002E+04 -2.69772E+04  8.22140E+03 -2.08730E+04 -1.25169E+04
 -8.56545E+03 -1.36692E+04 -4.44190E+03 -1.04588E+04  4.95805E+03 -1.03578E+04  1.25100E+03 -2.11104E+03
  5.20901E+03 -6.28527E+03  4.64309E+03 -2.26103E+03  7.01839E+03 -7.63451E+03  1.34617E+04  2.42929E+03
  1.40828E+04  1.04806E+03  1.88190E+02  1.02916E+04 -1.62963E+03  9.47073E+03 -1.13685E+04  4.30809E+03
 -1.49305E+04 -3.79423E+03 -8.45435E+03 -1.00810E+04  1.60763E+03 -1.73421E+04  1.10201E+04 -1.09666E+04
  1.61835E+04 -7.11118E+03  1.27420E+04  4.36966E+03  1.17785E+04  1.77500E+04 -1.71279E+02  2.22213E+04
 -1.12850E+04  1.39358E+04 -1.54133E+04  7.08691E+03 -3.83275E+03 -1.24058E+03 -3.09145E+02 -2.80857E+03
  1.18174E+03  1.81351E+02  9.38864E+02  6.10086E+03 -4.62022E+03  2.06584E+03 -1.68282E+04 -8.78563E+02
 -5.13082E+03 -7.38761E+03 -2.06648E+03 -1.03377E+04  9.61137E+03 -1.10241E+04  1.58963E+04 -6.20107E+03
  1.62395E+04  1.79726E+03  5.91002E+03  1.27395E+04 -2.98235E+03  1.49746E+04 -1.03647E+04  1.13689E+04
 -1.08516E+04  6.10584E+02 -1.03987E+04 -1.30793E+04  5.21841E+02 -1.84947E+04  4.16775E+03 -9.17329E+03
  3.82223E+02 -2.02654E+03  5.21678E+03 -2.78171E+03  1.13334E+03  3.33611E+03 -1.12530E+03  1.85626E+03
 -1.74793E+03 -8.37765E+02  4.21019E+02  1.43284E+03  8.63195E+03 -1.86362E+03  2.79589E+03  8.38033E+03
 -9.12552E+03  4.78728E+03 -1.43870E+04  9.48120E+03 -1.42165E+04  1.47206E+03 -1.20637E+04 -1.09082E+04
 -5.25456E+03 -1.51435E+04  1.11585E+03 -1.42888E+04  1.37375E+04 -1.58679E+04  1.38143E+04 -3.78678E+03
  8.32706E+03  4.18521E+03  2.85919E+03 -1.57909E+03  4.07573E+02  8.10848E+03 -5.48978E+03 -2.29356E+03
 -4.41506E+03 -4.89984E+03  7.21839E+03 -5.60519E+03  4.09866E+03 -7.02626E+03  4.44420E+03  3.78984E+02
  5.06730E+03  3.08302E+03  8.23380E+02  4.29570E+03 -3.27471E+03  4.03890E+03  5.06264E+03  3.78609E+03
 -9.76351E+02 -1.24775E+03 -3.66657E+03  3.52537E+03  3.44005E+03  9.13007E+03  1.31234E+03  1.11558E+04
 -2.27782E+03  5.58304E+03 -7.87505E+03  9.64179E+02 -7.04319E+03 -2.98167E+03 -2.13002E+03 -6.76937E+03
  3.43393E+03 -4.82511E+03  5.39239E+03 -3.34312E+03 -9.85066E+02 -4.87855E+01  1.61127E+03  2.98269E+03
 -2.42713E+03  8.10354E+02 -5.70257E+03 -4.40835E+03  2.72825E+03 -1.24111E+04  7.09407E+03 -1.07934E+04
  6.69440E+03 -2.34787E+03  6.44481E+03 -2.17977E+03  3.86725E+03  1.91114E+03  9.87705E+02  6.30472E+03
 -2.05129E+03  1.28790E+03 -2.10552E+03 -2.35987E+03 -9.19390E+02 -7.77011E+03  6.00160E+03 -9.08658E+03
  1.25237E+04 -1.60408E+03  9.81652E+03  8.76288E+03  6.45350E+03  8.39216E+03 -4.49947E+03  1.38169E+04
 -1.25095E+04  1.01829E+03 -3.27545E+03 -6.75956E+03  1.23542E+03 -6.96313E+03  5.72446E+02 -4.32811E+03
  6.94388E+03 -3.05646E+03 -4.47844E+01  5.43273E+03  1.35463E+03  6.84549E+03  2.47122E+03  1.53293E+02
 -3.31163E+03  1.88065E+03  3.32872E+03  2.67560E+03  2.44340E+03  3.80403E+03  4.81955E+03  4.71542E+03
 -3.37985E+03  8.23900E+03 -4.72502E+03  6.99813E+03 -8.76348E+03 -3.07277E+03 -1.00883E+04 -6.43445E+03
 -1.14899E+03 -7.48027E+03  4.49068E+03 -1.60980E+04  4.09085E+03 -1.09192E+04  1.39608E+04 -1.10712E+03
  1.78823E+04  3.28251E+03  5.30493E+03  6.13549E+03  1.59868E+02  8.74667E+03 -2.99727E+03  8.08576E+03
 -7.08905E+03 -2.55220E+03 -7.17399E+03 -1.55162E+03  1.48214E+03 -3.71163E+03 -1.11198E+03 -2.36331E+03
 -3.90952E+03  6.31275E+03 -5.80244E+03 -4.06619E+03  2.94279E+02 -2.31354E+02  9.79095E+02 -2.23526E+03
  6.81430E+03  3.60695E+01  8.63985E+03  1.13237E+03  7.68610E+03  1.10089E+04  2.65909E+03  6.30181E+03
 -3.44624E+03  8.20102E+03 -7.80161E+03  7.82293E+03 -5.75834E+03 -6.79945E+03 -6.58664E+03 -4.34443E+02
 -5.00708E+02 -1.13712E+04  1.91085E+03 -4.59434E+03  6.82660E+03 -5.51088E+03  5.30889E+03 -4.34942E+02
 -8.06628E+02  1.73992E+03  3.35448E+03 -5.56263E+02  2.72641E+03 -2.51048E+03  1.88252E+03 -6.79532E+03
  7.35806E+03  2.06008E+03  1.67521E+03  2.74730E+02  2.68021E+03  6.93657E+03 -4.24618E+03  1.00984E+04
 -2.92862E+03  1.02385E+04 -5.51756E+03  9.74894E+02 -3.90449E+03 -4.06219E+03 -2.01175E+02 -1.12025E+04
  5.08529E+03 -6.52888E+03  7.41127E+03 -2.99715E+03  6.69150E+03  9.87018E+00  7.26837E+03  9.74421E+03
  2.98906E+03  9.58648E+03 -4.01511E+03  1.68188E+02 -1.83671E+03 -9.53995E+02 -9.35649E+03 -2.18931E+02
 -2.45735E+03 -9.57702E+02 -4.17553E+03 -8.76023E+02 -6.30823E+03 -4.43233E+03 -1.05145E+04  1.63501E+03
 -1.80375E+02  1.68035E+03 -3.30741E+03 -2.57508E+01  4.86525E+03 -5.69644E+03  6.85524E+03 -1.42638E+03
  3.55124E+03  1.11500E+03  2.57963E+03  3.09888E+03 -8.06342E+03  1.09972E+04 -1.19573E+04  5.69781E+02
