 $NMID ID='MM_0lb_SNR50_9hz_g45_90.RAW', FMTDAT='(8E13.5)'
 TRAMP=1., VOLUME=1. $END
  3.09449E+05  3.58167E+03  3.38323E+05  2.49283E+05  8.51191E+04  3.36809E+05 -1.21170E+05  2.53819E+05
 -1.86174E+05  8.32135E+04 -1.09919E+05 -2.86043E+04 -4.45611E+03 -5.05152E+04  5.25360E+04 -8.72838E+02
  3.10886E+04  5.71379E+04 -1.62764E+04  6.80590E+04 -6.24894E+04  6.47999E+04 -8.32668E+04  2.67357E+04
 -8.79791E+04 -1.21014E+04 -5.05419E+04 -5.01132E+04 -1.25258E+04 -6.94190E+04  2.88783E+04 -4.27560E+04
  4.33496E+04  1.00970E+04  2.15762E+04  4.92433E+04 -3.30629E+04  4.84478E+04 -6.33639E+04 -2.46339E+03
 -5.46432E+04 -5.89631E+04 -9.79953E+03 -8.50280E+04  3.04675E+04 -5.45288E+04  4.47251E+04 -2.02424E+04
  4.54893E+04  1.24687E+04  3.21477E+04  2.90176E+04  1.23808E+04  3.27279E+04 -6.64698E+03  2.47466E+04
 -2.68713E+04  1.31704E+04 -2.29557E+04 -7.61656E+02  4.59539E+03 -4.54412E+03  2.66370E+04  8.65159E+03
  6.35776E+03  4.12359E+04 -3.62488E+04  3.95877E+04 -6.62377E+04 -5.48048E+02 -6.01037E+04 -4.06704E+04
 -1.65121E+04 -6.93371E+04  3.50628E+04 -4.75308E+04  5.47514E+04  8.17469E+02  3.98014E+04  3.69327E+04
 -5.94368E+03  4.25722E+04 -3.40541E+04  1.54542E+04 -3.33666E+04 -1.71319E+03 -2.48772E+04 -1.09920E+04
 -6.61589E+03 -1.33866E+04 -2.81032E+03 -1.94556E+04  5.55008E+03 -2.61729E+04  1.68014E+04 -1.13959E+04
  6.48502E+03  4.49814E+03 -1.03433E+04  1.60749E+04 -2.49203E+04 -6.93448E+03 -6.14819E+03 -3.39263E+04
  2.65848E+04 -4.37620E+04  5.01796E+04 -1.99960E+04  4.87686E+04  1.67243E+04  1.68091E+04  4.84037E+04
 -1.65701E+04  4.00183E+04 -2.76171E+04  7.83981E+02 -1.31468E+04 -2.56968E+04  2.89414E+04 -3.96486E+04
  4.43496E+04 -8.55846E+03  3.68950E+04  2.42881E+04  1.95086E+04  5.31271E+04 -9.18798E+03  5.53361E+04
 -3.75164E+04  3.28490E+04 -5.01733E+04  1.20525E+04 -4.64965E+04 -1.95365E+04 -2.29827E+04 -3.43408E+04
  5.50203E+03 -3.82066E+04  3.06315E+04 -2.45965E+04  3.17980E+04  1.22524E+04  6.82604E+03  2.38022E+04
 -1.26501E+04  6.63403E+03 -1.15263E+04 -1.34131E+04  8.36983E+03 -1.64526E+04  1.98619E+04  4.19098E+02
  1.34915E+04  2.42391E+04  4.96833E+03  2.59568E+04 -2.03355E+04  1.67385E+04 -2.91804E+04 -8.88972E+03
 -2.45806E+04 -1.50594E+04 -9.85907E+03 -2.30081E+04  4.90475E+03 -2.45490E+04  2.21705E+04 -2.11851E+04
  3.18345E+04 -1.18380E+04  3.96788E+04 -3.05594E+03  2.90723E+04  2.16901E+04  1.48027E+03  4.31098E+04
 -2.13322E+04  3.71830E+04 -2.93863E+04  8.26847E+03 -2.55179E+04 -9.89826E+03 -7.43613E+02 -1.25368E+04
  5.69345E+02 -5.52707E+03 -1.02908E+04  3.76873E+03 -2.12088E+04  4.02739E+01 -1.74969E+04 -4.20539E+03
 -1.75755E+04 -1.64703E+04  5.25624E+03 -3.51195E+04  2.19444E+04 -2.57413E+04  1.84146E+04  2.47894E+03
  1.12897E+04  2.00842E+04 -4.21878E+03  2.36312E+04 -1.79844E+04  1.40974E+04 -2.34742E+04 -8.38620E+03
 -2.02371E+04 -2.39384E+04 -1.02408E+02 -2.98260E+04  1.70902E+04 -2.12923E+04  2.26412E+04 -1.23779E+04
  2.37514E+04  2.47876E+03  2.09061E+04  1.01441E+03  6.07334E+03  2.95030E+03  1.54289E+04  2.41232E+03
  2.19547E+04  3.36670E+03  3.03701E+04  1.32292E+04  1.61305E+04  3.15727E+04 -3.37093E+03  3.84956E+04
 -3.14772E+04  3.35973E+04 -4.11182E+04  2.42394E+04 -4.38372E+04 -1.22587E+03 -3.55069E+04 -2.92307E+04
 -2.09861E+04 -3.42159E+04  1.22076E+04 -3.24186E+04  2.93613E+04 -1.93116E+04  2.67053E+04  7.28063E+03
  1.47391E+04  2.07857E+04 -1.39176E+04  1.73227E+04 -1.71693E+04  4.48895E+03 -1.24249E+04 -9.19615E+03
  7.46892E+02 -1.51309E+04  1.21038E+04 -1.73637E+04  1.15500E+04  2.00019E+03  4.70192E+03  5.98474E+03
 -9.91589E+03  7.57688E+03 -3.55176E+03 -6.14247E+03 -4.81125E+03 -1.33594E+04  7.77836E+03 -1.65602E+04
  1.99198E+04 -1.00093E+04  2.51972E+04  4.17781E+03  2.29655E+04  2.18616E+04  5.31998E+03  3.53158E+04
 -6.08270E+03  3.14268E+04 -1.85430E+04  1.63703E+04 -2.49794E+04  1.66938E+03 -2.07572E+04 -5.17262E+03
 -2.62614E+03 -6.83261E+03  1.19356E+03  4.93963E+03 -3.15192E+03  8.77976E+03 -1.27772E+03  1.37549E+04
 -1.15221E+04  6.65669E+02 -1.47570E+04 -1.15010E+04 -4.15630E+03 -1.51834E+04  6.06226E+03 -1.56291E+04
  1.16309E+04 -6.56631E+03  1.09455E+04  9.52440E+03  4.74801E+02  5.00431E+03 -6.88428E+03 -2.35240E+03
 -6.99219E+03 -1.20695E+04  2.45753E+03 -1.09119E+04  1.00649E+04 -1.59841E+04  1.85698E+04 -1.10865E+04
  2.59110E+04  1.14541E+04  1.39286E+04  1.37918E+04  4.46371E+03  2.03022E+04 -5.24182E+03  1.62701E+04
 -1.03308E+04  3.65645E+03 -3.70341E+03 -6.12836E+03  5.90720E+03 -8.80214E+03  8.27545E+03 -9.94120E+02
  8.88186E+03  4.26558E+03  6.49042E+03  1.00797E+04 -1.33244E+04  1.19490E+04 -1.83117E+04  3.36957E+03
 -1.38814E+04 -1.04507E+04  1.22482E+03 -1.18458E+04  1.23953E+04 -8.31655E+03  1.11470E+04  4.95227E+03
  3.98017E+03  9.42263E+03 -9.49032E+03  1.53448E+04 -1.04995E+04  9.07347E+03 -1.80990E+04 -6.31133E+03
 -1.27594E+04 -1.07560E+04  5.37769E+03 -2.03227E+04  1.41744E+04 -1.11132E+04  2.09255E+04  9.92717E+02
  9.66092E+03  1.13951E+04  4.45408E+03  9.82952E+03 -1.17343E+04  1.17358E+04 -1.54479E+04  1.52049E+03
 -1.10621E+04 -1.24691E+04  1.57278E+03 -9.39473E+03  1.33089E+04 -9.83983E+03  1.10366E+03 -1.65634E+03
  6.38253E+03  4.88513E+03 -2.76996E+03  2.93238E+01 -1.55905E+03 -5.02854E+03  5.90740E+03 -7.07450E+03
  1.05394E+04 -2.82136E+03  1.65598E+04  7.82712E+02  1.61443E+04  1.45846E+04  9.44624E+03  2.13517E+04
 -1.90281E+03  2.39143E+04 -1.33135E+04  1.87212E+04 -2.43295E+04  5.43726E+03 -2.42484E+04 -7.82492E+03
 -1.26540E+04 -2.02934E+04 -1.94484E+03 -1.69035E+04  2.84877E+03 -1.54139E+04  9.41369E+03 -3.52965E+03
 -1.56800E+03 -9.25972E+02  9.94426E+03 -5.37732E+03  5.81758E+03 -7.52789E+03  1.00993E+04  1.45488E+01
  1.37594E+04  5.28329E+03  9.88815E+03  7.50575E+03 -3.34002E+03  1.32711E+04 -5.57581E+03  1.40273E+04
 -1.69344E+04 -8.75531E+03 -1.01722E+04 -8.36885E+03 -6.23539E+02 -1.31013E+04  7.83158E+03 -1.24720E+04
  1.71021E+04 -8.80694E+03  1.69832E+04  2.27106E+03  1.43652E+04  1.81161E+04  3.35641E+03  1.74736E+04
 -4.98604E+03  1.22568E+04 -1.05458E+04  4.00408E+03 -5.89053E+03 -2.86792E+03 -7.83543E+03 -8.17474E+03
 -4.36967E+03  6.06758E+02 -1.69856E+03  1.25021E+04 -9.00824E+03  1.52493E+02 -9.72654E+03 -1.60851E+03
 -8.34300E+03 -9.01707E+03  3.03024E+03 -1.43358E+04  1.35192E+04 -9.34319E+03  1.25380E+04 -5.57704E+03
  1.29423E+04  7.30282E+03  5.47569E+03  7.00215E+03 -2.02460E+03  1.92785E+04 -1.17647E+04  1.01316E+04
 -1.31214E+04  1.73188E+02 -1.34713E+04 -1.13625E+04 -4.75135E+03 -9.06919E+03  3.32854E+03 -1.05188E+03
  4.74773E+03  8.09527E+02  7.75940E+03  3.44805E+03  3.04376E+02  6.36412E+03 -1.41155E+03  2.68770E+03
  8.07661E+03 -1.76554E+03  2.72924E+02  2.18779E+03  6.86353E+03  7.32589E+03  2.60518E+03  5.61298E+03
 -5.22269E+03  1.64196E+04 -1.28183E+04  1.35325E+04 -1.60667E+04  5.17722E+03 -2.19096E+04 -4.57977E+03
 -8.71496E+03 -1.44431E+04  3.23253E+03 -2.32238E+04  7.60166E+03 -3.55225E+03  1.53274E+04 -1.53803E+02
  2.95773E+03  4.49315E+03  5.78365E+02  4.62220E+03 -4.10815E+03  1.65276E+03 -4.64645E+03 -2.84066E+03
  1.21420E+03 -5.63978E+03  3.74332E+03 -9.34401E+03  6.83322E+03 -2.92481E+03  7.85265E+03 -2.04609E+03
  4.10563E+03  5.09212E+03  1.61792E+03  2.58237E+03 -2.93000E+03 -5.35713E+03 -1.29053E+03  1.83146E+02
  3.53847E+03 -7.01417E+03  7.51394E+03  7.79600E+03  7.33745E+03  7.50949E+03  1.92405E+03  1.50868E+04
 -6.59343E+03  1.11951E+04 -1.48544E+04  6.25121E+03 -6.78807E+03 -2.54971E+02  2.34495E+03  2.40129E+03
  1.23371E+02 -9.43712E+03  6.42492E+03 -1.03836E+04  8.62186E+03  4.84680E+03 -3.44258E+03  1.03782E+04
 -8.19403E+03  9.69037E+02 -1.35822E+04  3.47775E+03 -4.13071E+03 -9.23713E+03 -5.46124E+03 -4.26892E+03
  7.55053E+03 -1.64044E+03  1.47654E+03  1.84795E+03  7.25696E+03  5.01190E+03  4.37146E+03 -9.83736E+02
  1.66841E+03  3.14145E+02 -2.37717E+03  6.97084E+03  8.17840E+03 -1.03071E+04  1.18745E+04 -4.33827E+03
  9.56073E+03  3.41007E+02  1.21565E+04  1.32050E+04  2.33629E+02  9.98497E+03 -1.27459E+03  1.18869E+04
 -7.63660E+03  1.09634E+04 -5.13278E+03 -3.16515E+03 -4.52892E+03 -5.26051E+03  6.93545E+03 -6.44784E+03
  8.46200E+03 -3.53364E+03  2.25726E+03  7.75161E+03  1.36165E+03  7.30362E+03  1.27824E+03  6.93727E+03
  3.71113E+02  5.12577E+03  8.62245E+02 -4.14891E+03 -1.34023E+03  3.30565E+03 -7.49234E+02  5.89258E+02
 -2.44255E+03  3.66561E+03 -4.90101E+03 -3.27938E+03 -1.16757E+04 -7.63932E+03 -1.27369E+04 -4.26564E+03
 -4.97071E+03 -1.92115E+04 -3.05039E+03 -1.37257E+04  5.65358E+03 -1.21884E+04  1.48938E+04  2.96559E+03
  1.28536E+04  4.50526E+03  5.91577E+03  7.98270E+03 -9.71152E+02  1.08804E+04 -6.91752E+03  3.05250E+03
 -4.56209E+03  7.03158E+02  2.67744E+03 -3.02877E+03 -3.50818E+03 -8.35518E+03 -1.04287E+03  5.63301E+03
 -5.39303E+02  3.64522E+03 -7.91100E+02 -3.59192E+03 -7.06644E+02  3.13150E+03  1.84774E+03 -5.75775E+02
  7.43859E+03 -5.93639E+03  6.62322E+03 -2.63430E+03  1.13306E+04  2.07887E+03  1.78903E+03  5.23155E+03
 -8.81917E+03  8.83434E+03 -1.03218E+04  1.16063E+04 -1.38718E+04  2.28856E+03 -1.21448E+04 -6.27777E+03
 -3.04323E+03 -1.11728E+04 -3.16154E+03 -9.35461E+03  1.22782E+04  1.15891E+02  5.83330E+03 -3.76695E+02
  2.43876E+03  1.81036E+03 -3.02730E+03  5.43268E+03 -9.94221E+02 -1.48362E+03 -2.21064E+03 -7.69893E+03
  2.99825E+03 -2.04044E+03  7.65233E+03  3.80772E+03  9.50700E+03  3.43227E+03 -4.27081E+03  1.03280E+04
 -3.38812E+02  4.56196E+03 -8.51533E+03  2.09365E+03 -7.27780E+03  1.83154E+03  2.39875E+02 -1.23145E+04
  1.07111E+04 -5.54262E+03  1.16961E+04  6.27951E+03  5.76262E+03  2.35787E+03  8.91032E+03  9.55174E+03
 -3.04776E+03  1.11846E+04 -8.13982E+02  6.09135E+03 -5.13089E+03 -8.10640E+02 -8.64995E+03  2.47695E+03
  1.15306E+03 -7.91627E+02 -4.75193E+02  1.78908E+03 -9.58584E+03  3.85646E+03 -5.28427E+03  4.39037E+00
 -2.34027E+03 -1.09475E+04 -8.00469E+03 -8.16504E+03  2.31579E+03 -6.92870E+03  6.41334E+03 -3.77285E+03
  5.82571E+02  6.42357E+03  4.37647E+03  2.95359E+03 -1.69421E+03  7.27245E+03 -2.45400E+02  1.84931E+03
