 $NMID ID='MM_0lb_SNR50_14hz_g40_11.RAW', FMTDAT='(8E13.5)'
 TRAMP=1., VOLUME=1. $END
  3.12711E+05 -6.06747E+02  3.37628E+05  2.49048E+05  8.09732E+04  3.37901E+05 -1.30522E+05  2.53911E+05
 -1.89275E+05  7.91615E+04 -1.07675E+05 -3.30720E+04  2.99651E+03 -5.08494E+04  5.56459E+04 -3.12618E+03
  3.97537E+04  5.53509E+04 -1.05653E+04  7.17373E+04 -6.47798E+04  6.25776E+04 -8.50319E+04  2.94894E+04
 -8.60297E+04 -8.24840E+03 -5.60773E+04 -4.94099E+04 -1.54737E+04 -7.00353E+04  2.89150E+04 -4.87489E+04
  3.99542E+04 -3.78121E+02  1.71588E+04  4.72682E+04 -3.65745E+04  4.15946E+04 -6.40366E+04 -1.09537E+03
 -5.33598E+04 -5.40286E+04 -5.88144E+03 -7.66217E+04  3.25011E+04 -5.53367E+04  4.93291E+04 -1.30914E+04
  4.36346E+04  1.17847E+04  3.03843E+04  3.13856E+04  1.67757E+04  3.09373E+04 -4.28894E+03  2.54721E+04
 -2.00250E+04  1.47409E+04 -2.19929E+04 -2.30936E+03  1.07702E+03 -9.41513E+03  2.18508E+04  1.26595E+04
  4.54460E+03  3.46315E+04 -3.52457E+04  3.60927E+04 -6.31174E+04 -2.23277E+02 -6.00822E+04 -4.12907E+04
 -1.19833E+04 -6.07085E+04  3.90399E+04 -4.80658E+04  5.35094E+04 -2.48901E+03  3.83488E+04  3.43761E+04
 -8.15183E+03  3.82720E+04 -3.10748E+04  1.29330E+04 -2.88644E+04 -6.39466E+03 -1.03437E+04 -1.10634E+04
 -1.17234E+04 -1.41355E+04  6.25986E+02 -1.88002E+04  4.94701E+03 -2.04279E+04  1.55157E+04 -1.34668E+04
  1.15437E+04  2.50585E+03 -6.54191E+03  1.05890E+04 -1.91083E+04 -3.52220E+03 -6.37618E+03 -2.62271E+04
  2.16880E+04 -3.98781E+04  5.12553E+04 -1.69509E+04  4.69922E+04  1.91775E+04  1.65714E+04  4.31200E+04
 -1.86402E+04  2.97052E+04 -2.35311E+04  3.63653E+03 -7.04333E+03 -2.40823E+04  1.93490E+04 -3.46681E+04
  4.39256E+04 -9.95390E+03  3.27209E+04  2.44146E+04  1.40697E+04  4.39031E+04 -8.35212E+03  5.16890E+04
 -2.35966E+04  3.84528E+04 -3.90448E+04  6.30832E+03 -4.29234E+04 -1.71697E+04 -1.60279E+04 -3.90076E+04
  7.39712E+03 -3.86188E+04  3.04368E+04 -9.88343E+03  2.49273E+04  7.10423E+03 -3.62397E+03  1.95002E+04
 -1.22209E+04  7.69852E+03 -8.07306E+03 -7.13617E+03  8.75054E+03 -8.92059E+03  1.90775E+04  2.32429E+03
  1.39876E+04  2.08486E+04 -6.11467E+03  1.81412E+04 -1.92942E+04  1.01517E+04 -2.24371E+04 -3.55277E+03
 -1.82496E+04 -1.38694E+04 -1.08820E+04 -2.32355E+04  6.12650E+03 -2.32103E+04  1.42219E+04 -1.74262E+04
  2.52799E+04 -1.09288E+04  3.19066E+04  6.67929E+03  2.41076E+04  2.17198E+04  7.55641E+03  2.80679E+04
 -1.35545E+04  2.98765E+04 -3.09462E+04  1.13440E+04 -1.82235E+04 -7.12312E+03 -2.77317E+03 -1.05660E+04
  5.34318E+02  7.70245E+02 -5.29747E+03  2.93976E+03 -1.47236E+04  5.07268E+03 -1.89820E+04 -5.46610E+03
 -8.01550E+03 -2.02529E+04  7.53035E+03 -2.28081E+04  1.16110E+04 -1.36632E+04  1.70820E+04  1.98177E+03
  1.31835E+04  1.19776E+04 -2.40308E+03  2.25216E+04 -1.16714E+04  9.47843E+03 -1.51102E+04 -1.71891E+03
 -1.18210E+04 -1.79271E+04 -1.20845E+03 -1.80960E+04  7.59353E+03 -1.39371E+04  1.67017E+04 -1.35645E+04
  1.92339E+04 -1.12804E+03  1.35973E+04  1.10099E+04  8.09240E+03 -5.78685E+03  1.11897E+04  3.63712E+03
  1.69123E+04  1.44501E+03  2.07549E+04  1.71188E+04  1.19966E+04  2.84562E+04 -3.00224E+03  2.95067E+04
 -1.67848E+04  2.93212E+04 -2.95863E+04  1.05729E+04 -2.71593E+04 -4.57508E+03 -2.90622E+04 -1.81956E+04
 -1.10569E+04 -2.50537E+04  9.60314E+03 -2.16172E+04  2.52398E+04 -1.43177E+04  1.56582E+04  5.50646E+02
  7.10976E+03  1.71570E+04 -1.02562E+04  1.43067E+04 -1.46409E+04  4.30668E+03 -6.65608E+03 -9.49698E+03
  1.30807E+02 -1.03074E+04  4.28292E+03 -1.11398E+04  8.52340E+03  1.05790E+02  1.87404E+03  4.73722E+03
 -3.94470E+03 -4.64626E+02 -6.31283E+03 -6.82532E+03 -1.93020E+03 -1.67765E+04  6.81942E+03 -1.39010E+04
  2.21508E+04 -9.86324E+03  1.31631E+04  3.04868E+03  1.50022E+04  1.26011E+04  1.17661E+04  2.03021E+04
 -1.37577E+03  2.31756E+04 -1.46091E+04  1.05138E+04 -1.39390E+04  2.21533E+03 -1.05502E+04 -1.86038E+03
 -5.09596E+03 -1.01027E+04 -7.46636E+02 -3.90133E+02 -1.08366E+04  5.78678E+03 -3.72596E+03  4.88782E+03
 -1.14726E+04 -4.12799E+03 -7.52982E+03 -8.09735E+03 -7.17599E+03 -9.88319E+03  1.08814E+04 -1.06317E+04
  9.32177E+03 -7.07676E+03  9.72436E+03  1.16878E+03  3.44265E+03  6.64705E+03 -7.56767E+03 -2.24906E+02
 -6.35408E+03 -7.38865E+03 -6.02133E+03 -7.86072E+03  6.75907E+03 -1.13253E+04  1.07832E+04 -4.16633E+03
  1.67446E+04  1.33737E+03  1.27031E+04  8.77815E+03  5.11812E+03  1.39062E+04 -5.68873E+03  1.09154E+04
 -1.27271E+04  5.71326E+03 -6.41552E+03  1.68212E+03  6.63218E+03 -2.68042E+03  3.08441E+03 -2.34739E+03
  6.26315E+03 -2.39931E+02  3.86628E+03  9.18021E+03 -5.60645E+02  1.17128E+04 -1.24970E+04  3.41205E+03
 -2.89994E+03 -5.99692E+03  4.66682E+02 -1.02151E+04  4.79594E+03  1.99099E+02  7.91978E+03  2.04921E+03
  2.35857E+03  3.39682E+03 -8.54363E+03  9.82167E+03 -8.18864E+03  6.26360E+03 -9.39038E+03 -1.79582E+03
 -2.79182E+03 -3.25021E+03  4.95602E+03 -5.89567E+03  1.07589E+04 -7.53801E+03  5.54567E+03  7.92181E+02
  7.66920E+03  8.79304E+03  1.69086E+03  1.30087E+04 -1.05996E+04  4.68580E+03 -1.13587E+04  1.40363E+03
 -7.28055E+03 -7.00199E+03 -1.18736E+03 -6.98537E+03  4.51839E+03 -3.75639E+03 -3.02816E+03  1.00306E+03
  4.59391E+03 -9.51494E+02  7.59703E+01 -8.40266E+02 -2.56304E+03 -3.38079E+03  3.12032E+03  1.58181E+02
  6.93635E+03 -1.54307E+03  1.08377E+04  3.03724E+03  8.94681E+03  5.35014E+03  1.36299E+03  1.39178E+04
 -6.93049E+03  1.22689E+04 -1.05542E+04  1.35691E+04 -1.40766E+04 -1.95726E+03 -1.11228E+04 -4.78392E+03
 -8.71859E+00 -1.02405E+04 -4.39368E+02 -7.95140E+03 -2.50057E+02 -5.58517E+03  3.64199E+03 -5.05855E+03
 -3.79621E+01 -2.16157E+03  5.43952E+03 -2.50706E+03  5.97963E+03 -2.18398E+03  4.58414E+03  3.73372E+02
  5.31747E+03 -4.08197E+02  6.15870E+03  6.25796E+03 -1.81227E+03  2.82486E+03 -4.57244E+03  5.69209E+03
 -8.11128E+03  7.48702E+02 -6.15751E+03 -5.31973E+03  4.88445E+01 -8.79816E+03 -1.23145E+03 -7.92594E+03
  1.32150E+04 -3.96124E+03  6.56232E+03 -7.95047E+02  4.71937E+03  5.05807E+03  4.71756E+03  1.16605E+04
 -3.33858E+03  8.45211E+03 -2.56780E+03  3.87613E+03 -9.76820E+03  2.57211E+03  2.96295E+03 -5.06660E+03
 -2.30853E+03 -2.45023E+03 -1.13685E+03  2.76467E+03 -2.02925E+03  3.00542E+03 -1.77439E+03 -5.56878E+03
 -2.73228E+03 -3.69327E+03  3.51512E+03 -9.11320E+03  6.50346E+03 -2.79866E+03  5.51505E+03 -3.53068E+02
  1.13658E+04  5.29780E+02  6.14781E+03  1.91237E+03  8.46870E+02  5.71398E+03 -6.05266E+03  7.57298E+03
 -8.70845E+03 -2.22149E+03 -9.43275E+03 -4.48006E+03  8.57755E+02 -6.69027E+03  4.02798E+03 -3.49814E+03
  4.77728E+03 -4.51949E+03  4.15629E+03 -3.31234E+02 -2.67939E+03  3.59411E+03 -2.15042E+02  3.43868E+03
  1.71838E+03  4.53737E+03  3.68953E+03 -2.93065E+02  4.07472E+03  4.61201E+03  3.84455E+03  2.44528E+03
 -3.55929E+03  2.48092E+03 -9.26797E+03  5.73032E+03 -6.62500E+03  2.77575E+03 -1.14756E+04  1.62829E+03
 -2.39024E+03 -3.44865E+03 -2.13291E+03 -1.07959E+04  2.20686E+03 -3.03650E+03  1.20071E+03 -1.68293E+03
 -3.23150E+03  3.63330E+03 -5.16292E+03  1.03956E+04  1.92853E+03 -8.44446E+02 -1.21930E+02  2.13140E+03
  8.64682E+02  1.51541E+03  1.64456E+03 -4.61191E+02  5.91299E+03  2.12453E+02  3.97018E+03  5.97095E+02
 -5.50242E+02  3.93857E+03  2.73419E+03 -1.53097E+03  5.96592E+03  3.89171E+03  5.67124E+03  3.05658E+03
 -3.16422E+03 -2.18174E+03  6.15395E+03 -1.96706E+03 -1.58468E+03  6.67972E+03 -1.25549E+03  4.16873E+03
 -2.64903E+03  2.86484E+02 -4.54270E+03  3.18899E+03 -1.90169E+03  1.51259E+02 -4.21802E+03 -1.74574E+02
  4.27148E+03  2.79124E+03  2.56433E+03 -1.15633E+03  2.29947E+03 -2.63950E+03 -2.96283E+01  5.61807E+02
 -2.04373E+03  3.12685E+03  1.56750E+03 -1.01910E+03 -1.43506E+03 -3.51358E+03 -2.00564E+02 -4.16782E+03
 -1.06057E+03 -2.28467E+03  2.15760E+03 -2.16703E+03  1.07872E+03  2.51086E+03  2.31537E+03  3.09455E+03
 -1.83951E+01  4.06518E+03 -6.84676E+02 -3.10257E+03  2.21124E+03 -2.10352E+03  4.63836E+03 -7.22957E+03
  2.18162E+03  2.00168E+03  1.72744E+03 -1.28655E+03 -1.01081E+03  2.04813E+03 -3.94781E+03  4.20081E+03
 -9.11783E+03 -1.43110E+02 -4.04569E+03 -5.14646E+02 -6.19169E+01 -3.06832E+03 -8.84892E+02 -8.38525E+02
  4.13888E+03 -8.36089E+02 -3.16873E+03 -1.09756E+03  1.18248E+02  2.04294E+02 -9.25547E+02 -8.59837E+02
 -1.47690E+03 -3.49034E+03 -6.94530E+02  2.52736E+03  6.02825E+02  2.39112E+02  7.13963E+02 -7.76793E+01
 -2.93847E+03  4.94965E+03 -1.53038E+03  4.46326E+03 -3.71819E+03  2.60827E+03 -1.14444E+04  1.99772E+02
 -5.36976E+03 -6.91176E+03 -9.40610E+02 -8.22509E+03  3.54794E+03 -4.48110E+03  4.22185E+03 -3.89887E+01
  6.06584E+03  4.01912E+03 -2.58824E+03  6.30413E+03 -4.34474E+03  2.29386E+02 -3.58874E+03  5.90131E+03
  1.26914E+03 -9.29546E+02  4.32784E+02  1.12296E+03 -2.97447E+03  6.28505E+02 -1.64172E+03  1.81719E+03
  6.40308E+02  1.81659E+03 -1.49298E+03  2.16571E+03  2.68915E+03 -5.74786E+03  1.77467E+03  1.41455E+03
  6.19626E+03 -5.76515E+03 -9.12290E+02 -5.89024E+03 -4.52093E+02  2.78322E+03 -2.86582E+03  4.02099E+03
 -4.39276E+03  8.22680E+03 -6.45070E+03 -6.02193E+02 -1.29898E+04 -1.63490E+03 -5.56739E+02 -2.11432E+03
 -2.65658E+03 -4.04590E+03  2.61187E+03 -6.47414E+03 -3.65063E+01 -1.75525E+03  5.29886E+03  8.47026E+02
 -5.50296E+02 -8.51684E+00 -1.71941E+03  3.96832E+03 -1.57289E+01 -9.54601E+02 -9.75228E+01  3.44879E+01
 -2.20416E+03  1.51689E+03 -1.46245E+03  2.34205E+03  3.54593E+03  1.72769E+02 -3.03561E+03 -2.44513E+02
 -1.91362E+03 -9.73443E+02 -4.14121E+03 -1.22296E+03 -3.72524E+03 -4.21079E+03  1.95220E+02  6.11341E+02
 -4.20077E+01 -2.71453E+03 -1.48181E+03 -4.75060E+03  3.66337E+03 -3.72926E+03  2.59886E+03  5.40977E+03
  1.62751E+03  3.52064E+03 -2.48238E+03  4.74978E+03 -1.25245E+03  2.38684E+03 -5.82106E+03  9.53953E+02
  6.95920E+00 -2.59029E+03 -5.02485E+03  5.12791E+03 -1.49538E+03  1.49001E+03  2.37359E+03 -3.44728E+03
 -1.04288E+02 -3.48493E+03 -3.91878E+02 -2.79589E+03  1.22780E+02 -3.71296E+03  1.40065E+03 -2.10596E+03
  2.92002E+03  1.14491E+03  1.34440E+02 -7.56302E+02  9.97035E+02 -2.37573E+02 -4.53868E+03 -4.07976E+03
