 $NMID ID='MM_0lb_SNR50_12hz_g55_1.RAW', FMTDAT='(8E13.5)'
 TRAMP=1., VOLUME=1. $END
  3.12135E+05  7.42048E+03  3.34667E+05  2.52673E+05  8.37432E+04  3.38939E+05 -1.36480E+05  2.53744E+05
 -1.94272E+05  8.15664E+04 -1.07610E+05 -3.39211E+04  2.72444E+03 -4.67312E+04  4.84797E+04 -1.40318E+03
  3.07873E+04  5.12969E+04 -2.34181E+04  7.33026E+04 -6.48474E+04  6.45329E+04 -8.35202E+04  3.25429E+04
 -8.10071E+04 -1.07199E+04 -5.47987E+04 -5.23082E+04 -1.32233E+04 -6.73495E+04  2.97985E+04 -4.39976E+04
  3.43663E+04  3.24046E+03  6.40356E+03  4.58895E+04 -3.68583E+04  4.66420E+04 -7.21055E+04 -3.20330E+03
 -5.14912E+04 -5.98118E+04 -1.35425E+04 -7.95766E+04  3.66828E+04 -5.77806E+04  4.47058E+04 -1.85560E+04
  4.36617E+04  7.90053E+03  3.22323E+04  2.14997E+04  1.45172E+04  2.55590E+04 -3.38353E+03  3.08298E+04
 -2.75966E+04  8.98028E+03 -2.42405E+04 -6.42655E+03  2.78571E+03 -8.01447E+03  2.65747E+04  1.06362E+04
  6.96149E+03  3.73506E+04 -3.80583E+04  4.12708E+04 -7.26692E+04  3.18610E+03 -6.04328E+04 -3.79014E+04
 -1.81711E+04 -6.67349E+04  4.26061E+04 -4.44842E+04  5.75624E+04 -2.97400E+03  3.90271E+04  4.05044E+04
 -7.68455E+03  4.22174E+04 -2.40937E+04  1.76726E+04 -3.15350E+04 -6.44339E+03 -2.25947E+04 -6.55549E+03
 -8.48221E+03 -2.20080E+04 -2.46028E+03 -1.53969E+04  8.60752E+03 -2.29041E+04  7.01555E+03 -1.52758E+04
  6.60454E+03  7.86631E+03 -1.06327E+04  9.48767E+03 -2.49697E+04 -1.12879E+03 -5.90739E+03 -3.33945E+04
  2.74974E+04 -4.95450E+04  5.32524E+04 -2.17050E+04  4.53300E+04  2.11635E+04  1.06997E+04  4.79453E+04
 -1.80075E+04  3.25620E+04 -2.76012E+04  2.53613E+03 -1.16026E+04 -2.93667E+04  2.15599E+04 -3.64982E+04
  4.34670E+04 -1.25470E+04  4.14120E+04  2.41529E+04  1.98489E+04  4.88565E+04 -8.71944E+03  4.98339E+04
 -3.79217E+04  3.27941E+04 -4.19278E+04  1.00990E+04 -4.50895E+04 -1.38660E+04 -2.19299E+04 -4.23324E+04
  7.46626E+03 -4.15918E+04  3.40032E+04 -1.28831E+04  2.64183E+04  1.47207E+04  5.44711E+03  1.97609E+04
 -1.12709E+04  6.21744E+03 -1.40502E+04 -6.45381E+03  8.01031E+03 -1.49149E+04  1.61918E+04  5.43170E+03
  1.48398E+04  2.43141E+04 -3.55913E+03  2.26705E+04 -2.40162E+04  1.17318E+04 -3.42132E+04 -3.62467E+03
 -2.01033E+04 -1.99630E+04 -6.17276E+03 -2.49034E+04  6.82507E+03 -2.33983E+04  1.69290E+04 -2.35614E+04
  3.45165E+04 -1.85475E+04  4.14375E+04  3.57348E+03  2.53744E+04  2.19103E+04  5.97576E+03  4.11079E+04
 -1.82812E+04  3.07237E+04 -2.37320E+04  8.53128E+03 -2.21495E+04 -3.26791E+03 -6.47178E+03 -1.20107E+04
  5.51554E+03 -2.08642E+03 -9.69228E+03  8.07458E+03 -2.12003E+04  4.24514E+03 -1.25160E+04 -7.73959E+03
 -7.51384E+03 -1.55495E+04  8.52376E+03 -2.69966E+04  1.55715E+04 -1.92823E+04  1.62465E+04 -4.51719E+03
  1.41149E+04  1.42791E+04 -3.68726E+03  2.28954E+04 -1.01135E+04  9.09249E+03 -1.97552E+04 -6.08651E+03
 -2.24788E+04 -1.44049E+04  4.07952E+02 -2.73741E+04  6.49950E+03 -1.85791E+04  2.47145E+04 -7.71214E+03
  1.18878E+04 -3.08017E+03  1.10126E+04  4.40232E+03  1.02986E+04  4.26115E+02  1.84000E+04 -3.68258E+03
  2.43527E+04  4.47063E+03  2.49030E+04  1.84990E+04  1.41487E+04  2.79657E+04 -3.47155E+03  3.72550E+04
 -2.35691E+04  3.48082E+04 -3.36350E+04  1.70835E+04 -3.78580E+04 -3.62454E+03 -3.05564E+04 -2.69295E+04
 -1.18040E+04 -3.63298E+04  9.05505E+03 -2.71627E+04  2.96546E+04 -1.93016E+04  1.99301E+04  1.30960E+03
  8.53864E+03  1.74775E+04 -1.03111E+04  1.54625E+04 -2.24824E+04  7.17343E+03 -1.39258E+04 -1.28545E+04
  1.36045E+03 -1.49566E+04  1.41693E+04 -1.59716E+04  1.25304E+04 -8.52038E+01 -4.40089E+01  8.36482E+03
 -5.55069E+03  2.35868E+02 -1.01028E+04 -1.15582E+04 -3.75289E+03 -1.25080E+04  7.74921E+03 -1.54833E+04
  1.76787E+04 -8.22543E+03  2.39137E+04  8.17677E+03  1.81715E+04  1.28879E+04  6.73494E+03  2.67839E+04
 -1.41936E+02  2.59633E+04 -1.66567E+04  9.09845E+03 -1.75095E+04  4.19235E+03 -1.40946E+04 -5.09422E+03
 -9.18672E+03 -4.43338E+03 -4.39059E+03 -7.51406E+03 -2.69166E+03  8.32863E+03 -8.14381E+03  9.91397E+03
 -1.22378E+04  1.01660E+03 -1.96071E+04 -6.41985E+03 -1.58272E+03 -2.08251E+04  1.30137E+04 -8.74180E+03
  1.23734E+04 -5.39130E+03  1.08351E+04 -2.34316E+03 -8.36730E+02  1.57526E+03 -6.11137E+03  5.18941E+03
 -5.78420E+03 -7.45025E+03  3.47022E+03 -1.27567E+04  2.64058E+03 -1.36627E+04  2.06227E+04 -9.00334E+03
  2.04953E+04  7.48060E+02  1.70807E+04  1.63601E+04  1.18739E+03  1.65247E+04 -7.42511E+03  1.21369E+04
 -1.26943E+04  6.66672E+03 -1.53382E+03 -6.80857E+03  5.49087E+03 -1.78503E+03  5.98263E+03  5.69075E+03
  1.03113E+04  2.96677E+03  4.53101E+03  1.38837E+04 -7.99254E+03  1.44388E+04 -1.52128E+04  1.40642E+03
 -1.25314E+04 -1.06923E+04 -1.08847E+03 -1.38868E+04  6.80713E+03 -8.93521E+02  4.27696E+03  4.64424E+03
  1.43340E+03  1.03511E+04 -7.92834E+03  1.14515E+04 -1.19690E+04 -5.27147E+02 -9.11068E+03 -5.59644E+03
 -6.08963E+03 -1.01217E+04  6.34765E+03 -1.96792E+04  1.34964E+04 -1.10846E+04  1.21969E+04  1.55431E+03
  6.82608E+03  1.33724E+04 -2.10475E+03  1.24358E+04 -8.43364E+03  8.65606E+03 -6.82023E+03 -1.58860E+03
 -1.09823E+04 -6.63138E+03 -4.09412E+03 -5.33706E+03  3.79314E+03 -6.02403E+03  4.58893E+03 -1.16913E+04
 -3.54696E+01  3.75705E+03 -2.85922E+02  5.60540E+03  4.30005E+03 -3.10179E+03  4.93808E+03 -2.84703E+03
  1.37017E+04 -5.73385E+03  1.35944E+04  2.69484E+03  1.37599E+04  6.98675E+03  1.15288E+04  1.76264E+04
 -6.19399E+03  1.34482E+04 -1.73542E+04  1.18387E+04 -2.05294E+04  4.73836E+03 -1.52443E+04 -6.24086E+03
 -7.52609E+03 -8.90053E+03  1.57620E+03 -6.48755E+03  6.05999E+03 -4.51582E+03  6.79006E+03 -2.34174E+03
  3.83857E+03 -5.21109E+03  4.98348E+03  6.12715E+02  2.98659E+03 -6.97085E+03  5.58316E+03  1.72024E+03
  5.26731E+03  4.96649E+03  4.97494E+03  1.30015E+04 -1.11678E+03  1.03343E+04 -9.36196E+03  4.67446E+03
 -2.16727E+04 -2.47099E+03 -8.55915E+03 -8.53336E+03 -1.18704E+03 -1.35746E+04  4.12577E+03 -1.28769E+04
  1.50158E+04 -5.42731E+03  1.73152E+04  2.92882E+03  9.86608E+03  9.20783E+03  1.62661E+02  1.18477E+04
 -1.11883E+04  1.04626E+04 -1.18743E+04  5.01839E+03 -4.08515E+03  1.18568E+03 -1.86279E+03 -1.67004E+03
 -3.01044E+03 -6.70536E+02 -7.44864E+03  8.89846E+03 -5.36254E+03  4.61602E+03 -6.62625E+03  1.25065E+03
 -3.67380E+03 -1.30708E+04 -3.35885E+03 -1.04246E+04  8.31173E+03 -6.31472E+03  1.33979E+04 -2.07145E+03
  9.87495E+03  3.10861E+03  1.12059E+03  1.33864E+03  3.81920E+03  7.81522E+03 -4.34249E+03  7.52066E+03
 -1.20782E+04  1.12441E+03 -7.76422E+03 -7.02200E+03 -5.94703E+02 -1.03832E+04  1.80198E+03 -1.09918E+04
  3.10309E+03  1.48531E+03  5.33653E+03  4.41672E+03  4.55705E+03  6.47131E+03  5.85538E+03 -8.43803E+02
  1.22484E+03 -2.63897E+02  3.59003E+03 -5.96629E+03  6.36984E+02  3.77153E+02  1.74441E+03  4.97212E+03
 -2.52391E+03  3.79244E+03 -8.71804E+03  6.03505E+03 -8.09625E+03  5.41501E+03 -1.41237E+04 -5.03892E+03
 -1.04391E+04 -1.15680E+04 -4.72591E+03 -1.23389E+04  1.13446E+04 -5.33039E+03  5.33054E+03  2.50920E+03
  1.84787E+03  2.06022E+03 -1.65430E+03  5.36212E+03 -4.07349E+03  2.74904E+03 -7.60465E+01 -2.49363E+03
  4.18774E+03 -2.11381E+03 -3.27523E+03 -2.81999E+03  3.31304E+03 -1.99690E+03  5.38149E+03 -1.70505E+03
  3.71523E+03  6.72381E+03 -2.03837E+03  2.49427E+03 -1.99073E+03 -2.00909E+03 -4.17578E+03 -1.18517E+03
  5.43323E+03  1.62809E+03  4.06409E+03 -9.86204E+02  5.93051E+03 -2.12277E+03  2.07162E+03  7.30367E+03
 -7.12072E+03  5.37449E+03 -1.47703E+04  9.85465E+01 -4.59987E+03 -2.51231E+03 -9.83916E+02 -5.04617E+03
  1.13692E+03  1.42712E+01  6.85990E+02 -3.55145E+03  4.62815E+03  2.65123E+02 -2.90486E+03  1.18291E+03
 -1.27423E+04  4.47799E+03 -6.14692E+03 -4.92465E+03 -2.13834E+03 -9.75302E+03  1.49636E+03 -6.31972E+03
  2.15933E+03 -1.12566E+03  7.47715E+03  3.37225E+03  6.04004E+03  7.64012E+01  2.69373E+03  2.15378E+03
 -1.50110E+03 -3.34696E+03 -9.34016E+03  1.54370E+02  9.71567E+03 -7.25677E+03  6.07249E+02 -3.23905E+03
  4.54333E+03  1.60148E+03  3.52607E+03  4.66612E+03  2.79045E+03  6.47219E+03  1.94507E+03  3.78942E+03
 -4.53632E+03 -1.23951E+03 -3.47482E+03 -2.87639E+02 -5.03285E+03 -2.38133E+03  3.64974E+03  8.99766E+02
  2.76601E+02 -2.43970E+02 -3.34874E+01 -2.81494E+03  2.91667E+03  4.12291E+03  5.53277E+03  2.39112E+03
 -3.00612E+03 -1.84232E+03 -6.89150E+03  1.04240E+03  6.89260E+02 -6.30462E+02 -8.01056E+03  4.75812E+03
  5.58633E+02  4.09166E+03 -6.49380E+03 -1.92842E+03 -9.18768E+03 -4.84432E+03 -3.69471E+03 -9.03828E+03
 -9.96333E+03 -9.88772E+03  6.46034E+03 -1.04096E+04  4.29127E+03 -7.72346E+03  9.13796E+03 -5.22884E+03
  8.89421E+03  2.60332E+03  3.52112E+03  3.96913E+03  1.61674E+03  6.53628E+03 -5.87767E+03  5.40744E+03
 -7.76071E+03  2.46217E+03 -8.10722E+03 -6.44628E+02  6.67602E+02  1.16118E+03 -3.91615E+03 -4.22143E+02
 -8.50209E+03  3.65461E+03  6.39740E+02 -7.03732E+02  1.82691E+02 -6.20358E+03  2.33252E+03 -4.73385E+03
 -2.61523E+03 -6.43802E+03  3.84847E+02  7.57937E+02  6.54681E+03  5.97627E+03  1.47166E+03  9.17453E+03
 -2.22597E+03  2.38633E+03 -9.60046E+03  1.23540E+03 -8.51384E+03 -1.04401E+03 -3.39488E+03 -6.18110E+03
 -5.17797E+03 -5.80418E+03  1.78224E+03 -5.83293E+03  2.91220E+03 -3.34522E+03  2.41869E+03 -2.90438E+03
  3.79207E+03  1.59664E+03 -2.70152E+03  6.16974E+02 -1.23008E+03 -7.99681E+02  2.48783E+03 -1.00290E+03
  2.40139E+03  6.74024E+02  5.88647E+03  2.86399E+03  6.39184E+03  7.11179E+03 -1.35000E+03  2.85041E+03
 -3.73241E+03  8.54428E+02 -7.32433E+03 -6.54662E+02 -6.08950E+03 -5.56556E+03  1.87523E+02 -5.91442E+03
  1.75350E+03 -4.21786E+03  1.71242E+03 -9.20690E+02  6.51549E+03 -5.31986E+03  3.86703E+03  5.57515E+03
  6.20021E+02  4.55151E+03 -9.63008E+02 -7.02060E+02 -1.91874E+03  9.00997E+02 -7.45543E+03 -4.79169E+03
 -1.80064E+03 -1.51922E+03 -5.35433E+03  1.34357E+03  1.14036E+03  1.51043E+03 -7.32250E+03 -1.17445E+03
 -6.81986E+03 -6.78491E+03 -3.94650E+03 -8.46647E+03  2.66946E+03 -6.41059E+03  2.06155E+03  2.80697E+03
  1.55771E+02  1.57091E+03  1.26752E+03  1.13846E+03 -8.22929E+02  2.79433E+03  3.75720E+02  6.70768E+03
