 $NMID ID='MM_0lb_SNR50_11hz_g50_15.RAW', FMTDAT='(8E13.5)'
 TRAMP=1., VOLUME=1. $END
  3.02481E+05  3.40648E+02  3.37731E+05  2.51333E+05  8.75030E+04  3.37121E+05 -1.30771E+05  2.50623E+05
 -1.92903E+05  8.58405E+04 -1.10140E+05 -3.19454E+04 -2.62157E+03 -4.99913E+04  6.03685E+04 -5.43322E+03
  4.01743E+04  5.03165E+04 -1.56442E+04  7.04962E+04 -6.67956E+04  6.68186E+04 -8.50552E+04  2.83331E+04
 -8.56720E+04 -1.66279E+04 -5.67547E+04 -5.25418E+04 -1.64961E+04 -7.42062E+04  2.96074E+04 -4.65420E+04
  4.39602E+04  4.73318E+03  1.08827E+04  4.47467E+04 -3.30096E+04  4.95320E+04 -7.38578E+04 -2.75388E+03
 -4.87030E+04 -5.71815E+04 -7.43737E+03 -7.97077E+04  3.19682E+04 -5.48012E+04  5.11387E+04 -1.97791E+04
  4.27516E+04  9.00448E+03  3.71485E+04  2.63785E+04  1.80604E+04  3.09115E+04 -7.25184E+03  2.62835E+04
 -2.29852E+04  1.40638E+04 -1.90001E+04 -4.53808E+03  2.85629E+03 -2.68501E+03  2.03680E+04  8.27429E+03
  5.77928E+02  3.65148E+04 -3.39958E+04  3.56804E+04 -6.32090E+04 -1.00024E+02 -6.04967E+04 -4.46294E+04
 -1.77766E+04 -6.55824E+04  4.12035E+04 -4.70603E+04  5.87117E+04  7.72137E+02  3.57123E+04  3.35934E+04
 -2.41189E+03  3.97570E+04 -3.01928E+04  1.50074E+04 -3.41050E+04  3.28304E+02 -1.92909E+04 -7.74897E+03
 -4.99727E+03 -1.12647E+04 -2.39432E+03 -2.05290E+04  2.49787E+03 -2.31826E+04  1.36704E+04 -8.81323E+03
  1.42443E+04  4.21550E+03 -1.09537E+04  9.42636E+03 -2.52656E+04 -3.56508E+03 -9.21441E+03 -4.01509E+04
  2.64351E+04 -4.42229E+04  4.55435E+04 -2.42324E+04  4.56803E+04  1.76676E+04  1.87432E+04  4.83199E+04
 -1.21586E+04  3.34930E+04 -2.92283E+04 -6.48089E+02 -1.68229E+04 -2.63478E+04  2.29025E+04 -3.00395E+04
  4.04475E+04 -5.22722E+03  3.77636E+04  2.63692E+04  2.43389E+04  5.16837E+04 -8.48234E+03  5.36480E+04
 -3.38363E+04  3.12466E+04 -4.98484E+04  1.21007E+04 -4.84232E+04 -1.90987E+04 -2.94710E+04 -3.97402E+04
  1.15114E+04 -4.01980E+04  3.24913E+04 -1.36312E+04  3.04866E+04  7.73873E+03  9.70373E+03  2.19330E+04
 -1.72800E+04  6.46839E+03 -9.91935E+03 -4.97397E+03  9.23187E+03 -1.00814E+04  1.85241E+04  3.57282E+03
  1.47794E+04  2.03575E+04 -5.69835E+03  2.90795E+04 -1.51162E+04  1.21918E+04 -2.85960E+04 -5.96644E+03
 -2.01442E+04 -2.13355E+04 -9.88216E+03 -2.09108E+04  6.02558E+03 -2.22611E+04  2.19076E+04 -1.99005E+04
  2.88930E+04 -1.42165E+04  3.65666E+04  8.67562E+03  2.52432E+04  2.17721E+04  2.70273E+03  3.95549E+04
 -1.42452E+04  3.49881E+04 -3.47074E+04  1.28161E+04 -1.91579E+04 -5.55063E+03 -8.88759E+03 -1.13704E+04
  7.94917E+02  8.12248E+02 -7.81574E+03  8.74526E+03 -1.79090E+04 -4.59448E+02 -1.83759E+04 -4.70742E+03
 -1.27673E+04 -1.67802E+04  1.03477E+03 -2.60706E+04  1.73811E+04 -1.57536E+04  2.20936E+04 -6.47577E+02
  1.61396E+04  1.40321E+04 -4.33201E+03  2.20629E+04 -1.03223E+04  1.34122E+04 -2.14299E+04 -4.10413E+03
 -1.71412E+04 -2.04184E+04 -2.61289E+03 -2.96733E+04  8.53774E+03 -2.48866E+04  2.46308E+04 -1.33674E+04
  2.13176E+04  5.36229E+02  1.18070E+04  2.60448E+02  8.56751E+03 -2.61839E+03  8.70129E+03 -1.94133E+03
  2.05879E+04 -1.17041E+03  2.20868E+04  2.25003E+04  1.50439E+04  3.89340E+04  2.24231E+02  4.11323E+04
 -2.48585E+04  3.01850E+04 -3.45270E+04  1.69239E+04 -3.51359E+04 -9.25618E+02 -3.19986E+04 -2.07042E+04
 -1.82275E+04 -3.45051E+04  1.18591E+04 -3.16297E+04  2.23911E+04 -1.34325E+04  1.73615E+04  2.62860E+03
  5.52023E+03  1.54472E+04 -1.14968E+04  1.34156E+04 -2.12091E+04  4.76932E+03 -9.23152E+03 -4.11352E+03
 -3.04683E+03 -1.59204E+04  1.15427E+04 -1.41755E+04  1.19019E+04 -2.22946E+03  4.35779E+03  5.47358E+03
 -8.71702E+03  8.29121E+03 -6.13191E+03 -3.04229E+03 -1.70722E+03 -1.57036E+04  8.87910E+03 -1.81462E+04
  2.23102E+04 -1.64998E+04  2.48576E+04  2.47625E+03  1.30859E+04  1.55686E+04  1.05318E+04  2.36354E+04
 -5.92650E+03  2.93978E+04 -2.18837E+04  1.71835E+04 -1.49176E+04  3.03257E+03 -1.09790E+04 -7.19617E+03
 -5.57562E+03 -4.47743E+03 -7.98339E+02 -4.73767E+02 -5.38368E+03  7.28388E+03 -5.16074E+03  4.68019E+03
 -1.48459E+04 -2.84362E+03 -1.77267E+04 -5.98973E+03 -4.78188E+03 -1.58607E+04  3.39198E+03 -1.29821E+04
  1.47071E+04 -4.19820E+03  8.09413E+03 -1.15294E+03 -6.79673E+02  5.11852E+03 -4.47722E+01 -2.81506E+03
 -8.20205E+03 -2.01006E+03 -1.27310E+03 -1.17413E+04  9.44355E+03 -1.62732E+04  1.83176E+04 -3.11858E+03
  1.59056E+04  1.22188E+03  1.65603E+04  1.65788E+04  8.51266E+03  1.60028E+04 -9.68479E+03  1.64237E+04
 -9.23505E+03  4.16673E+03 -3.51560E+03 -1.60882E+03  4.73464E+03 -3.94197E+02  7.46548E+03 -4.78127E+03
  5.91915E+03  4.49568E+03  1.16261E+03  4.58600E+03 -2.34929E+03  8.99869E+03 -8.86302E+03  3.69817E+02
 -7.98214E+03 -5.15797E+03  1.39876E+03 -1.12451E+04  1.18847E+04 -4.47827E+02  3.10398E+02  4.81623E+03
  3.11318E+01  1.42907E+04 -1.29394E+04  1.33682E+04 -1.05360E+04  5.89246E+03 -6.82946E+03 -1.04535E+03
 -6.04657E+03 -1.11253E+04  2.31776E+03 -1.70698E+04  1.52403E+04 -1.11409E+04  1.86972E+04  6.34110E+03
  1.09028E+04  1.63003E+04  1.38213E+03  1.57108E+04 -7.81084E+03  5.94780E+03 -1.23917E+04  7.37307E+03
 -6.31135E+03 -1.05637E+04 -4.80414E+03 -1.09430E+04  8.27901E+03 -1.08299E+04  6.30182E+03 -2.29247E+03
  6.19446E+03  5.58544E+03 -1.84959E+03 -5.90937E+02 -5.84990E+03 -5.71621E+03  3.61335E+03 -4.45262E+03
  9.69152E+03 -4.04554E+03  1.36801E+04 -2.57363E+03  1.17805E+04  8.42031E+03  4.77353E+03  1.40444E+04
 -3.44733E+03  1.83201E+04 -1.77701E+04  1.60333E+04 -2.50711E+04  6.96575E+03 -1.32677E+04 -7.51393E+03
 -6.25109E+03 -1.46163E+04  1.48518E+02 -8.74834E+03  1.81659E+02 -4.67893E+03  4.49804E+03 -7.43744E+03
 -1.35083E+03 -4.25821E+02 -3.32184E+01 -3.78334E+03  3.74193E+03 -2.76098E+03  6.96751E+03 -2.57846E+03
  8.40251E+03  2.99920E+03  6.51715E+02  1.12913E+04 -6.94210E+03  1.20459E+04 -7.26529E+03  7.31793E+03
 -1.49976E+04  3.12267E+02 -1.00204E+04 -8.97103E+03 -7.83265E+02 -8.81887E+03  4.32425E+03 -7.58916E+03
  1.14751E+04 -4.46204E+03  1.74859E+04  4.62502E+03  1.62323E+04  8.72059E+03  7.05983E+03  1.40065E+04
 -7.58016E+03  1.25070E+04 -5.88500E+03  5.31952E+02 -5.43357E+03 -1.11920E+02 -4.13098E+03 -4.47279E+03
 -4.13860E+02  1.39671E+03 -2.49137E+03  2.21663E+03  4.53645E+02 -1.37362E+03 -1.20216E+03  4.34015E+03
 -2.24460E+03 -7.83813E+03 -3.39195E+02 -1.15338E+04  4.13586E+03 -7.52967E+03  1.57923E+04 -2.77674E+03
  9.59911E+03  8.92286E+03  4.16090E+03  1.23176E+04 -1.55915E+03  9.76483E+03 -1.04333E+04  8.93539E+03
 -6.42436E+03  2.58540E+03 -9.12864E+03 -1.47235E+03 -6.20781E+03 -9.86746E+03  1.01692E+04 -1.02660E+04
  7.88204E+03  1.00201E+03  7.18750E+03  3.47032E+02  3.41701E+03  3.02775E+03  1.44645E+03 -4.55640E+02
  1.45248E+03 -1.82290E+03  1.05676E+04  4.06741E+03  4.21142E+03  1.10378E+04  4.39082E+03  1.10993E+04
 -7.69197E+02  1.48093E+03 -8.73072E+03  6.65924E+03 -1.30632E+04  4.52543E+02 -1.80440E+04 -1.00223E+04
 -7.43215E+03 -1.07257E+04  3.49333E+03 -1.61725E+04  1.16228E+04 -1.04666E+04  4.65230E+03 -3.04527E+03
  3.43734E+03  2.61415E+03  7.38354E+02  5.03769E+03 -6.21861E+03  8.75695E+02 -9.04877E+03  3.79051E+03
 -2.37593E+03 -5.14784E+03  3.66937E+03 -7.84258E+03  5.24371E+03 -4.00343E+03  1.10471E+04  5.42695E+02
 -4.65977E+03  4.69033E+03  5.91972E+03  2.85247E+03  1.78453E+02  3.68841E+03  3.42087E+03 -8.28475E+02
  5.25097E+03  4.19566E+03  3.99705E+03  8.24061E+03  7.09442E+03  8.05434E+03  1.90448E+03  1.30252E+04
 -3.92221E+03  2.61686E+03 -8.39893E+03  4.28706E+03 -2.67841E+03 -4.34472E+03 -7.10298E+03 -3.71449E+03
  3.52158E+03 -5.77940E+03  2.84156E+03 -6.15775E+02  1.91878E+03  3.88399E+03 -2.96924E+03  1.03322E+04
 -7.30935E+03  5.89779E+03 -8.41933E+03 -3.18993E+03 -3.89559E+02 -7.17825E+03  2.91012E+03 -9.05932E+02
  5.68974E+03 -7.50994E+03  5.57300E+03  3.43142E+03  3.57701E+03 -3.91527E+03 -3.14639E+03  3.07621E+03
  1.98641E+03  3.60466E+03 -1.00974E+03  6.81957E+03  8.76228E+03 -2.26196E+03  4.74390E+03 -3.28087E+03
  3.53605E+03 -6.77948E+02  1.26986E+04  6.42760E+03  2.72328E+03  1.08880E+04 -7.84530E+02  6.95515E+03
 -8.37036E+03 -3.35914E+03 -1.15451E+04 -3.91450E+03  1.05618E+03 -6.22297E+03 -2.57067E+03 -8.29232E+03
  1.10699E+04 -4.99318E+03  8.30215E+02  2.69468E+03  1.70747E+03  6.72573E+03 -5.42311E+01  3.13265E+03
 -4.47817E+03  2.73225E+03 -5.76123E+02  4.09278E+03  1.19062E+03 -2.23088E+03  1.04679E+03 -1.81938E+03
 -9.49072E+03 -1.42639E+03 -6.02479E+03  2.46677E+03 -2.53070E+03 -5.63059E+02 -4.67327E+03 -7.53656E+03
 -7.12711E+02 -1.25270E+04  7.79014E+03 -1.38666E+04  8.12797E+03 -2.74673E+03  3.24398E+03  3.12045E+02
  5.40994E+03  2.38916E+03  5.08585E+03  8.06508E+03 -3.26564E+02  1.04638E+04 -5.14063E+03  9.15969E+03
 -4.05143E+03  2.23614E+03 -7.17488E+02  8.15797E+03 -3.08090E+03 -1.71396E+03 -1.82002E+03  3.85489E+03
 -1.71482E+02 -3.30472E+03 -9.27703E+02 -4.23962E+02  1.78286E+01  1.89071E+02 -5.92915E+02 -3.67122E+03
  5.50438E+03  4.00203E+02  4.32717E+03  5.38989E+03  2.46601E+03  4.25705E+03  2.49308E+03  4.27846E+03
 -3.59732E+03  9.65608E+03 -3.24313E+03  2.76224E+03 -7.41904E+03  2.06432E+03 -4.62032E+03 -1.44500E+03
 -4.92777E+03 -1.16633E+04  1.46519E+03 -3.75824E+03  6.74711E+03 -1.17015E+04  5.47897E+03 -3.32582E+03
 -2.31183E+01  8.63270E+03  6.43291E+02 -3.95074E+03 -2.67329E+03 -1.28217E+03 -1.62463E+03 -6.77809E+03
  5.73228E+03 -3.01458E+03  3.28511E+03 -1.68164E+03  7.61590E+03  4.23292E+03 -3.42071E+03  2.91141E+03
 -2.99621E+03  7.10995E+03  2.54482E+03  9.96501E+02 -4.26841E+03 -4.67960E+03 -8.04805E+02 -6.19333E+03
  3.81227E+03 -6.98452E+03  3.43742E+03 -4.47514E+03 -4.87197E+02 -1.18241E+03  6.49927E+03  7.34575E+03
 -3.69974E+03  6.51957E+03  4.15186E+02  6.27680E+03 -1.56194E+03 -2.33658E+01 -2.71621E+03  3.64374E+03
 -1.62127E+03 -1.29531E+03 -7.01777E+02  2.40765E+03  1.62179E+03  3.87457E+03  1.56211E+03  3.86514E+03
 -7.15606E+03 -4.38074E+03 -4.05650E+03 -4.21859E+03 -4.95098E+02 -3.30562E+03  4.56554E+03 -3.61424E+02
  8.23261E+03  8.01519E+02  2.75047E+03  4.04364E+03 -3.20881E+03  3.68525E+03 -7.79768E+03  4.18527E+03
