 $NMID ID='MM_0lb_SNR50_9hz_g60_73.RAW', FMTDAT='(8E13.5)'
 TRAMP=1., VOLUME=1. $END
  3.08916E+05 -4.02367E+03  3.43257E+05  2.49621E+05  9.16374E+04  3.38700E+05 -1.32587E+05  2.57030E+05
 -1.89902E+05  8.35032E+04 -1.08648E+05 -2.67010E+04  1.74636E+03 -4.66182E+04  5.28537E+04 -1.10295E+03
  3.16478E+04  5.21841E+04 -1.40565E+04  7.80589E+04 -6.00359E+04  6.17206E+04 -8.74068E+04  3.56284E+04
 -8.92505E+04 -1.22339E+04 -5.74677E+04 -5.34997E+04 -1.32252E+04 -7.12732E+04  2.88972E+04 -4.54954E+04
  3.81655E+04  6.01205E+02  1.82069E+04  4.63418E+04 -3.56830E+04  4.39195E+04 -6.59947E+04  3.59576E+02
 -5.49048E+04 -6.01616E+04 -8.09150E+03 -7.34926E+04  4.24030E+04 -5.47771E+04  4.96549E+04 -1.45583E+04
  4.42084E+04  6.94252E+03  4.29927E+04  3.18321E+04  1.64928E+04  3.63069E+04 -5.63531E+03  2.50502E+04
 -1.99973E+04  1.03157E+04 -1.73154E+04 -2.67474E+03  9.82527E+03 -9.42494E+03  1.97639E+04  9.73336E+03
  1.81558E+03  4.39867E+04 -3.23765E+04  3.60270E+04 -5.90322E+04  7.88005E+03 -5.90786E+04 -4.66797E+04
 -9.23036E+03 -5.92086E+04  3.69657E+04 -5.01710E+04  6.44592E+04  1.90341E+03  3.87752E+04  3.25536E+04
 -5.25924E+03  3.66750E+04 -3.13965E+04  1.64768E+04 -3.52719E+04 -5.70290E+03 -2.48359E+04 -1.52061E+04
 -1.02436E+04 -1.09033E+04 -2.49017E+02 -2.43547E+04  8.20494E+03 -1.71714E+04  1.88483E+04 -8.16065E+03
  1.15915E+04  6.93301E+03 -1.74502E+04  1.02755E+04 -2.44190E+04 -1.09582E+04 -1.36705E+04 -3.75964E+04
  1.61388E+04 -5.11662E+04  5.75329E+04 -1.91598E+04  4.03125E+04  1.58012E+04  2.21645E+04  5.23134E+04
 -1.40413E+04  3.76713E+04 -2.64171E+04 -6.04137E+03 -5.08562E+03 -2.70042E+04  2.21530E+04 -3.94896E+04
  5.23504E+04 -8.48310E+03  4.39381E+04  3.33810E+04  2.22918E+04  5.24864E+04 -6.81376E+03  5.78309E+04
 -3.82368E+04  3.80607E+04 -4.89368E+04  7.51649E+03 -4.58308E+04 -2.25801E+04 -2.96763E+04 -4.34458E+04
  1.40221E+04 -4.04322E+04  3.48323E+04 -1.70363E+04  3.84333E+04  1.23981E+04  6.40750E+03  2.15952E+04
 -1.31396E+04  1.53795E+04 -2.25677E+04 -6.50992E+03  5.91727E+03 -8.93015E+03  1.76985E+04 -2.37619E+02
  2.01630E+04  2.39118E+04 -1.13241E+04  3.00707E+04 -1.77245E+04  1.43202E+04 -3.22625E+04 -4.97662E+02
 -2.54890E+04 -2.41263E+04 -1.44731E+04 -2.71554E+04  4.28602E+03 -2.58003E+04  1.87909E+04 -2.57007E+04
  2.98504E+04 -1.36751E+04  3.86251E+04 -1.24687E+03  3.19550E+04  2.13900E+04  5.76671E+03  4.84544E+04
 -2.64706E+04  3.98683E+04 -3.57199E+04  2.52391E+03 -1.97764E+04 -1.11045E+04 -6.69492E+03 -1.30645E+04
 -4.09790E+03  3.48288E+03 -8.68250E+03  9.26468E+03 -2.29040E+04  3.36707E+03 -2.22622E+04 -9.41167E+03
 -1.22661E+04 -2.76045E+04  1.30214E+04 -1.92669E+04  1.53987E+04 -1.84942E+04  2.12190E+04  1.46183E+03
  1.14971E+04  1.65132E+04  8.52664E+03  2.32694E+04 -9.84299E+03  8.31054E+03 -2.44217E+04 -4.08516E+03
 -1.97827E+04 -2.07736E+04 -2.09330E+03 -3.36915E+04  1.71205E+04 -2.41297E+04  2.45109E+04 -1.26768E+04
  2.60711E+04 -3.59548E+03  1.02300E+04  6.89907E+03  5.67232E+03  1.72322E+03  5.38173E+03 -5.03369E+03
  2.02803E+04  1.78374E+03  2.77609E+04  1.63916E+04  1.58633E+04  3.45811E+04  5.12737E+03  5.56086E+04
 -3.23481E+04  3.94070E+04 -4.02139E+04  1.00659E+04 -4.70365E+04 -7.45507E+03 -3.67412E+04 -2.76037E+04
 -1.55255E+04 -3.81578E+04  1.84608E+04 -3.24606E+04  2.93528E+04 -1.71255E+04  2.75175E+04  3.68526E+03
  5.57537E+03  2.13666E+04 -8.63701E+03  1.56265E+04 -2.32005E+04  2.33158E+03 -1.78434E+04 -1.16232E+04
  9.09034E+02 -1.60057E+04  8.34663E+03 -8.65977E+03  1.16232E+04 -2.53076E+03  4.67224E+03  1.23012E+04
 -9.72607E+03  1.48308E+03 -8.83653E+03 -1.31357E+04  6.28452E+03 -2.30714E+04  1.33077E+04 -1.52696E+04
  2.51773E+04 -1.43058E+04  2.33568E+04 -1.17317E+02  2.43885E+04  2.05657E+04  1.33726E+04  3.20397E+04
  8.89880E+02  3.18873E+04 -2.32406E+04  1.79568E+04 -2.34605E+04 -7.62159E+02 -2.30847E+04 -8.94479E+03
 -9.96666E+03 -6.94371E+03 -8.10925E+03  1.03242E+03  1.65200E+03  3.41574E+03 -6.68916E+03  4.65727E+03
 -1.92102E+04  3.74835E+03 -2.26002E+04 -9.98429E+03 -1.11220E+04 -2.07859E+04  8.35455E+03 -1.70646E+04
  1.45038E+04  5.16539E+02  1.28270E+04  5.72870E+02 -5.15712E+03  8.07893E+02 -8.05407E+00  6.70557E+02
 -3.54185E+03 -1.24061E+04  1.77278E+03 -1.27456E+04  9.54191E+03 -2.06783E+04  1.73639E+04 -1.14765E+04
  2.53914E+04  6.16830E+03  2.09639E+04  1.71747E+04  8.93928E+03  2.51682E+04 -1.11847E+04  1.26932E+04
 -1.27178E+04 -1.83525E+03 -6.87045E+02 -4.07467E+03  2.25009E+03 -1.68380E+03  1.35573E+04  4.99527E+03
  1.19307E+04  9.39133E+03  8.30761E+02  1.05897E+04 -1.39729E+04  7.16791E+03 -1.95079E+04 -1.04510E+03
 -1.05571E+04 -4.95864E+03  4.07745E+03 -8.38513E+03  1.12228E+04 -1.16953E+03  8.99927E+03  3.42875E+03
  1.71139E+03  8.64187E+03 -9.56669E+03  1.36250E+04 -9.62382E+03  1.37043E+04 -9.45986E+03 -8.64444E+03
 -5.38873E+03 -1.29940E+04 -1.24877E+03 -2.08578E+04  1.97038E+04 -1.02118E+04  1.55380E+04 -1.47267E+03
  1.53959E+04  1.40481E+04 -4.67885E+03  2.34511E+04 -7.15060E+03  7.33398E+03 -1.65177E+04 -2.87125E+03
 -8.92605E+03 -5.42054E+03  2.04114E+03 -5.92129E+03 -6.22343E+01 -1.51995E+04  1.53656E+04 -4.85075E+03
  9.92369E+03  4.41205E+03 -1.63559E+03 -5.64485E+02 -5.02848E+03 -2.45520E+03  1.77124E+03 -1.42761E+04
  1.57975E+04 -7.07292E+02  2.00315E+04  7.45462E+03  1.26108E+04  1.12579E+04  1.06484E+04  2.38604E+04
 -1.15456E+04  2.57835E+04 -2.33167E+04  2.07124E+04 -3.46658E+04  4.21616E+02 -1.93576E+04 -1.04478E+04
 -1.17162E+04 -2.05555E+04  1.97839E+03 -1.94487E+04  1.76841E+03 -1.55655E+04  6.76819E+03 -2.05594E+03
  4.53850E+03 -4.94275E+03  9.77348E+03 -2.03620E+03  4.08405E+03 -5.72289E+03  1.15968E+04 -9.89569E+01
  1.22564E+04 -1.10532E+02  7.35865E+03  9.57087E+03 -1.13598E+03  1.72754E+04 -1.37311E+04  1.72620E+04
 -1.33576E+04 -7.44599E+03 -8.33317E+03 -1.73850E+04 -1.67479E+03 -1.47608E+04  5.27428E+03 -2.29276E+04
  1.79508E+04 -1.11256E+04  1.30430E+04  1.84140E+03  9.59370E+03  1.74214E+04 -2.47059E+03  1.63961E+04
 -3.84213E+03  1.60588E+04 -1.22110E+04  4.72355E+03 -4.88881E+03 -3.04015E+03 -5.22933E+03 -5.33869E+02
 -2.43706E+03  7.52052E+02 -1.65869E+03  1.15978E+04 -6.75692E+03  8.83509E+03 -8.99620E+03 -8.74564E+03
 -8.27503E+03 -4.77475E+03  1.84423E+02 -1.64996E+04  3.85008E+03 -1.18669E+04  1.38975E+04 -4.81545E+03
  1.80972E+04  7.13118E+03  5.66750E+03  1.37587E+04 -4.69867E+03  1.27746E+04 -1.72710E+04  1.46445E+04
 -9.59767E+03 -5.49185E+03 -9.84028E+03 -1.54783E+04 -4.43386E+03 -1.38778E+04  6.14417E+03 -9.87788E+03
  5.07930E+03 -3.90064E+03  7.74289E+03 -3.91636E+03  3.41960E+03  4.70344E+03  1.28410E+03  3.59120E+03
  4.80646E+02 -2.62162E+02  1.26612E+04  6.92676E+03  6.75230E+03  1.39642E+03 -7.83875E+02  8.65450E+03
 -1.02162E+04  1.39866E+04 -1.72930E+04  1.44609E+04 -1.40092E+04  4.76991E+03 -1.44162E+04 -1.22250E+03
 -2.07858E+03 -1.74213E+04  6.30994E+03 -1.67114E+04  9.34728E+02 -1.43647E+04  9.95881E+03 -7.22278E+03
  8.41213E+03  7.86354E+03  2.62036E+03  8.19829E+03 -7.19200E+03  8.92949E+03 -1.01703E+04 -3.60603E+02
 -2.55377E+02 -1.16739E+04  3.83979E+03 -3.78300E+03  8.10744E+03 -4.34613E+03  4.89131E+03  3.61234E+02
  4.17914E+03 -1.01136E+03 -3.12385E+03  1.69458E+03  3.69853E+03  3.37376E+03  2.98486E+03 -7.54197E+03
  5.98865E+03 -6.23155E+03  9.47614E+03  3.86311E+03  8.94668E+03  1.26649E+04 -2.25986E+01  8.63214E+03
 -7.06696E+03 -2.93142E+02 -1.09179E+04 -3.59821E+03 -1.19114E+04 -6.36156E+03 -4.57468E+03 -8.34447E+03
  2.09653E+03 -8.56078E+03  7.86124E+03 -4.34240E+03  4.12802E+03  1.04978E+04 -3.28436E+02  4.62351E+01
 -8.95463E+03  2.69222E+03 -1.49710E+04 -2.21980E+03  9.31496E+02 -8.53083E+03 -1.93014E+03 -1.10372E+04
  7.93998E+03 -1.04256E+04  3.47249E+03  6.17552E+02  5.37024E+03  5.52405E+03  4.28711E+03  6.30438E+03
  1.69930E+03 -7.70158E+03 -6.67216E+02 -5.92346E+03  7.41301E+03 -9.73993E+03  6.35733E+03 -2.88605E+02
  1.11156E+04  1.02784E+04  1.01840E+04  1.01212E+04  1.76272E+03  1.61330E+04 -8.09568E+03  9.48519E+03
 -8.29154E+03  3.42080E+03 -5.91439E+03 -8.81234E+03 -2.26972E+03 -1.34252E+04  6.74517E+03 -5.79552E+03
  5.85163E+03 -9.03304E+03  8.93148E+03  5.51349E+03  5.17186E+03  9.07978E+03 -4.17819E+03 -1.01041E+03
  5.81752E+02  1.57287E+03 -5.82390E+03 -1.30336E+03 -3.72612E+03 -1.12988E+03 -6.55314E+03  1.43094E+03
 -3.90895E+03  4.44113E+03 -7.68586E+03 -2.03007E+03 -7.52645E+03  5.02942E+03 -1.46958E+04 -5.07505E+03
 -4.53526E+03 -1.66971E+04 -6.24035E+02 -2.02390E+04  1.18999E+04 -1.37020E+04  1.46492E+04 -3.25895E+03
  1.80900E+04  3.05322E+03  1.00880E+04  1.24771E+04 -4.48224E+03  7.58991E+03 -4.48825E+03  4.76857E+03
 -2.48801E+03  2.12569E+02 -6.40824E+03  2.70014E+03  5.12717E+03 -1.40249E+02 -2.33441E+03  8.45402E+02
 -1.02107E+02 -8.51513E+02 -8.72769E+03 -3.49978E+02 -3.12428E+03  9.98962E+02 -5.22038E+03 -6.97651E+03
  4.34543E+03 -4.73862E+03  6.26109E+03  3.48363E+03 -9.70248E+02  9.35014E+02  8.05575E+03  1.68682E+04
 -5.00335E+03  8.85593E+03 -1.67433E+04  8.83491E+03 -1.20214E+04  3.95510E+02 -1.64193E+04 -8.96793E+03
 -4.38134E+03 -1.14434E+04 -2.31097E+03 -1.25569E+04  2.94472E+03 -1.21011E+04  4.25197E+03 -5.64304E+03
  2.32895E+03  2.47646E+03  5.27453E+03 -7.47707E+01 -4.13527E+03  1.24392E+03 -3.03986E+03 -3.12812E+03
  6.22975E+02 -9.89781E+01  3.86812E+03 -6.66103E+02  1.74815E+03  4.02727E+03 -2.31568E+03  6.73289E+03
 -4.37840E+02  3.79460E+03 -6.89850E+03 -2.20578E+03 -5.13262E+02 -6.94955E+03 -6.89297E+03 -1.12010E+04
  4.48999E+02 -7.14495E+03  1.62029E+04  4.50040E+02  1.14400E+04 -2.84207E+03  7.94312E+03 -1.88673E+02
  6.00991E+03  4.12483E+03 -6.79372E+03  1.76220E+03 -7.94792E+03  4.50636E+03 -1.87046E+03 -2.15597E+02
 -5.94611E+03  1.55588E+03 -8.95235E+03 -2.33378E+03  1.24855E+03 -9.36795E+02 -9.66651E+03 -5.27929E+03
 -1.12769E+02 -1.58079E+03 -3.20360E+03 -1.06610E+04  3.01135E+03 -4.01788E+03  1.05817E+04 -9.20517E+02
  8.69425E+03  4.47251E+02  1.15508E+04 -1.35034E+02  2.08616E+03  4.86132E+03 -9.39291E+01  1.11151E+02
