 $NMID ID='MM_0lb_SNR50_8hz_g60_19.RAW', FMTDAT='(8E13.5)'
 TRAMP=1., VOLUME=1. $END
  3.08349E+05 -1.09304E+03  3.38208E+05  2.49037E+05  8.45161E+04  3.35984E+05 -1.27095E+05  2.56414E+05
 -1.86429E+05  8.39696E+04 -1.17309E+05 -3.28365E+04 -4.01992E+03 -5.16880E+04  5.65096E+04 -5.83700E+03
  3.38442E+04  5.66651E+04 -1.72244E+04  7.89958E+04 -6.74608E+04  6.21428E+04 -8.57292E+04  3.36572E+04
 -7.76496E+04 -1.28653E+04 -5.79230E+04 -5.28942E+04 -1.79861E+04 -7.13895E+04  2.30554E+04 -4.77444E+04
  3.90673E+04  4.03177E+03  2.87306E+04  4.16144E+04 -3.81776E+04  4.87387E+04 -7.35575E+04 -7.73299E+03
 -5.78201E+04 -5.95749E+04 -6.84185E+03 -8.01448E+04  3.41948E+04 -5.32132E+04  5.15079E+04 -2.16056E+04
  4.94092E+04  7.01545E+03  3.81304E+04  3.26413E+04  1.34190E+04  3.34569E+04  2.64529E+02  3.75369E+04
 -1.78486E+04  1.37091E+04 -1.07778E+04 -3.89040E+03  5.10256E+03 -6.03660E+03  2.28609E+04  1.42401E+04
  1.45183E+04  3.61688E+04 -3.80671E+04  4.39159E+04 -6.51639E+04  8.52026E+03 -5.54488E+04 -4.00140E+04
 -7.38521E+03 -6.28093E+04  4.77857E+04 -4.18173E+04  6.18919E+04 -1.01472E+04  3.38923E+04  3.72892E+04
 -5.55880E+03  4.52794E+04 -2.86631E+04  2.03114E+04 -3.05893E+04 -2.43879E+03 -2.32510E+04 -1.19593E+04
 -7.19053E+03 -2.08870E+04 -1.89556E+03 -1.91910E+04  5.25166E+03 -2.16717E+04  1.31245E+04 -1.06039E+04
  5.02164E+03  6.73821E+03 -9.51857E+03  1.86179E+04 -3.11156E+04 -1.05964E+04 -7.09409E+03 -3.91802E+04
  2.90441E+04 -4.45062E+04  4.66186E+04 -2.55960E+04  4.70047E+04  2.55507E+04  1.75744E+04  4.75874E+04
 -1.94093E+04  3.94052E+04 -2.77109E+04  3.08034E+03 -1.44020E+04 -3.02541E+04  2.09720E+04 -4.03885E+04
  4.26919E+04 -1.38857E+04  4.33095E+04  3.11904E+04  1.41486E+04  5.28091E+04 -8.98879E+03  6.25040E+04
 -3.69994E+04  3.87415E+04 -5.90390E+04  1.14727E+04 -4.68961E+04 -2.27318E+04 -2.66968E+04 -4.38251E+04
  8.41103E+03 -4.63594E+04  3.31676E+04 -1.83527E+04  3.35341E+04  8.15407E+03  3.77953E+03  2.53855E+04
 -8.82229E+03  1.04718E+04 -1.12561E+04 -5.48621E+03  5.43003E+03 -1.10543E+04  2.00035E+04  4.42870E+03
  1.70456E+04  2.40497E+04 -7.63363E+03  1.81845E+04 -2.47985E+04  1.25537E+04 -3.46094E+04 -3.80473E+03
 -2.36863E+04 -1.74087E+04 -1.63401E+04 -3.15283E+04  4.71869E+03 -2.58031E+04  2.59129E+04 -2.45714E+04
  3.07051E+04 -1.18221E+04  4.53097E+04  1.76227E+03  3.29540E+04  3.01610E+04  5.67560E+03  4.51914E+04
 -2.29243E+04  3.51451E+04 -2.97126E+04  1.77393E+04 -2.43593E+04 -1.34152E+04 -6.65767E+03 -1.36588E+04
 -4.12575E+03 -4.12204E+03  1.30639E+02  9.17516E+03 -1.84218E+04  2.05080E+03 -2.18945E+04 -9.26596E+03
 -1.98358E+04 -2.53685E+04  1.54911E+03 -2.47025E+04  1.26076E+04 -2.33307E+04  2.45711E+04 -3.88579E+03
  1.24445E+04  1.69548E+04 -4.67656E+03  2.75173E+04 -1.20397E+04  2.10714E+04 -2.77836E+04 -4.01503E+03
 -1.79435E+04 -2.14017E+04 -1.03102E+04 -3.04870E+04  1.26061E+04 -2.73358E+04  2.66675E+04 -1.39852E+04
  1.93241E+04 -6.74243E+02  1.74559E+04  6.82292E+03  1.17986E+03  4.46915E+03  8.19566E+03 -4.96579E+03
  2.43444E+04 -6.06932E+03  2.35287E+04  2.11252E+04  1.59321E+04  4.18399E+04  4.24332E+03  5.03339E+04
 -2.73896E+04  4.57958E+04 -4.63362E+04  1.90629E+04 -4.27907E+04 -1.71316E+03 -3.44325E+04 -3.50042E+04
 -1.53429E+04 -3.96550E+04  1.82026E+04 -3.04076E+04  3.69021E+04 -1.92963E+04  2.99934E+04  7.89593E+03
  9.11616E+03  1.65581E+04 -7.83921E+03  1.34014E+04 -2.10428E+04  8.50846E+03 -1.93521E+04 -1.31470E+04
 -8.61565E+02 -1.94798E+04  4.64063E+03 -2.03308E+04  2.14770E+04  1.61455E+03  8.27006E+03  1.10799E+04
 -1.25468E+04  6.77102E+03 -1.41275E+04 -1.81592E+04 -3.38305E+03 -2.30733E+04  1.28259E+04 -2.11380E+04
  2.70108E+04 -7.13884E+03  2.80349E+04  8.59223E+03  2.65726E+04  2.46043E+04  1.29202E+04  2.85986E+04
  3.23920E+03  3.44389E+04 -2.96786E+04  1.43712E+04 -2.21015E+04  4.09926E+03 -1.77270E+04 -4.43422E+03
 -4.29056E+03 -8.96951E+03  5.57988E+03 -2.72399E+03 -4.59331E+03  5.19825E+03 -7.27660E+03  1.13458E+04
 -1.92593E+04  1.22441E+03 -1.52758E+04 -1.24015E+04 -3.49377E+03 -2.03370E+04  6.35506E+03 -1.88688E+04
  1.47162E+04 -4.82774E+03  1.10310E+04  8.50386E+02  6.35721E+03  8.60670E+03 -6.71643E+03 -5.15304E+03
 -1.13764E+04 -1.03275E+04  6.04933E+03 -1.10580E+04  1.81085E+04 -1.71692E+04  2.60693E+04 -8.65327E+03
  2.98601E+04 -2.40095E+03  1.86618E+04  8.15404E+03  3.82063E+03  2.05317E+04 -1.02656E+04  9.41804E+03
 -2.09111E+04  1.10602E+04 -1.06167E+04 -6.03260E+03  6.22870E+03 -7.85767E+03  1.02087E+04 -6.41717E+03
  5.13871E+03  2.56032E+03  9.99054E+02  9.12259E+03 -7.00773E+03  1.08682E+04 -2.24196E+04  1.90773E+03
 -8.54830E+03 -1.28007E+04  2.53143E+03 -1.96022E+04  2.54291E+03 -2.20164E+03  1.42941E+04  7.08774E+02
 -7.43406E+02  5.38119E+03 -1.40597E+04  1.23322E+04 -8.39612E+03  3.98303E+03 -1.46667E+04 -6.56447E+03
 -4.77803E+03 -2.53208E+04 -1.20899E+03 -1.76900E+04  2.09389E+04 -1.20475E+04  2.05008E+04  8.51830E+03
  1.20586E+04  2.06805E+04 -1.53382E+02  1.41510E+04 -1.21816E+04  1.18581E+04 -3.19404E+03 -4.59736E+03
 -7.57108E+03 -1.19332E+04 -3.39424E+03 -8.11160E+03  6.56816E+03 -1.38186E+04  8.53818E+03 -2.73569E+03
  3.09417E+03 -2.95160E+03 -3.01307E+03  5.00319E+03  2.78717E+03 -6.02816E+03 -2.41140E+02 -1.57844E+04
  1.15946E+04 -7.58489E+03  1.42888E+04  2.38606E+02  2.76740E+04  1.55824E+04  1.24342E+04  2.29358E+04
 -8.48631E+03  2.61019E+04 -1.97632E+04  2.29602E+04 -3.12780E+04  2.09647E+03 -2.40741E+04 -9.02984E+03
 -1.53685E+04 -1.88081E+04  5.38518E+03 -2.21442E+04  9.06323E+03 -1.31563E+04  6.30429E+03 -1.28324E+04
  2.38539E+03  3.44785E+02  8.80913E+02  1.74747E+03  1.60280E+04 -9.40154E+03  3.95823E+03 -1.70933E+03
  1.01428E+04 -3.31296E+03  1.04673E+04  1.26195E+04  5.01907E+03  1.41810E+04 -1.22837E+04  1.75919E+04
 -2.07056E+04 -1.09365E+03 -1.24478E+04 -1.23413E+04 -5.69838E+03 -1.85988E+04  6.51931E+03 -2.72012E+04
  1.59303E+04 -1.32902E+04  2.86309E+04  6.16445E+03  1.77925E+04  1.46206E+04  4.58589E+03  2.75620E+04
 -1.05057E+04  1.08162E+04 -1.46447E+04  4.39706E+03 -8.05861E+03  3.34383E+03 -9.97163E+03 -1.10903E+04
  2.08230E+03 -3.13066E+03 -6.21968E+03 -3.46303E+03 -1.39386E+04 -4.10795E+03 -1.81453E+04 -3.60146E+03
 -5.97607E+03 -1.22158E+04  7.05323E+02 -1.32670E+04  1.01975E+04 -2.65687E+04  2.04253E+04 -2.17358E+03
  1.70760E+04  5.78153E+03  5.78383E+03  1.17187E+04 -2.02516E+02  2.29918E+04 -1.27183E+04  7.50386E+03
 -1.23143E+04  5.97372E+03 -1.28319E+04 -1.23920E+04  6.77263E+02 -8.00911E+03  9.93690E+03 -1.32204E+04
  9.13103E+03 -1.22947E+04  4.89212E+03  5.87142E+03  6.65499E+03  5.21160E+03  3.67860E+03  5.92252E+03
  9.85146E+03  3.49315E+03 -1.63250E+03 -6.16751E+01 -1.82662E+02  6.36290E+03 -3.23252E+03  1.36320E+04
 -3.97006E+03  1.06722E+04 -1.55666E+04  1.72172E+04 -1.95881E+04  9.70264E+02 -2.04204E+04 -1.20178E+04
 -8.76199E+02 -2.25230E+04  5.89676E+03 -2.46925E+04  1.46567E+04 -1.27025E+04  2.15029E+04  7.33150E+01
  1.24879E+04  1.24757E+04  6.72969E+03  1.11920E+04 -5.54597E+03  9.59674E+03 -6.66539E+03 -7.54393E+02
 -7.44563E+03 -7.42290E+03  4.54074E+03 -4.83322E+03  4.63735E+03 -1.48249E+03  7.32022E+03 -5.64710E+03
  2.63948E+03 -2.60868E+03 -2.29442E+03  1.44669E+03 -2.53663E+03  2.38713E+03  8.07422E+03 -1.28802E+03
  6.26817E+03 -5.09204E+03  9.11718E+03  1.23737E+03  6.08632E+03  1.00393E+04 -2.37344E+03  2.06219E+04
 -1.01485E+04  1.35987E+04 -1.97516E+04  4.61877E+03 -1.68029E+04  5.91847E+03 -5.76915E+03 -4.68165E+03
  3.51300E+03 -1.32638E+04  5.69938E+03 -3.12137E+03  4.95546E+03 -3.65254E+03 -2.75541E+03 -2.65235E+03
 -4.97353E+03 -6.63762E+02 -8.45231E+03 -4.80330E+02 -8.89400E+03 -5.34031E+03 -8.38717E+03 -1.13502E+04
  2.73652E+03 -9.52884E+03  1.01937E+04  2.95891E+03  5.19522E+03 -1.09693E+03  3.96059E+02  3.92528E+03
 -4.97920E+03  7.36590E+03 -7.31106E+03 -4.41701E+03 -6.38766E+03 -3.85442E+03  1.45360E+03 -6.70283E+03
  9.78869E+03 -1.25885E+03  8.76865E+03  4.75234E+03  8.48102E+02  8.07547E+03 -9.23839E+03  1.23350E+04
 -1.08901E+04 -8.24466E+02 -1.78622E+04 -8.88341E+03 -6.62222E+03 -1.25551E+04  1.09566E+03  4.95807E+02
  6.53035E+03 -5.43569E+03  3.24930E+03  1.26886E+04  3.96712E+03  9.56790E+03  6.42824E+03  9.68906E+03
 -7.19906E+03  6.34681E+03 -2.34243E+02 -2.62417E+03  3.13478E+03 -2.84820E+03  5.22368E+02  8.75280E+03
 -4.37587E+03  3.45402E+03 -1.00549E+04  2.36121E+03 -1.28459E+04  2.18185E+03 -1.62697E+04 -1.08113E+04
 -8.36390E+03 -1.79125E+04  5.67802E+03 -1.67777E+04  1.16568E+04 -1.50684E+04  2.04005E+04 -8.44846E+03
  1.93597E+04  9.37564E+03  1.63383E+04  1.37994E+04 -1.65478E+03  1.56886E+04 -2.05648E+03  1.92264E+04
 -1.20149E+04  6.82792E+03 -6.39310E+03 -3.28768E+03 -5.17985E+03  3.07115E+03  1.85728E+03 -5.98419E+03
 -8.12585E+02  5.85840E+03  5.98485E+03 -1.12051E+03  4.25444E+03 -7.25184E+03 -1.27648E+04  1.08378E+03
  6.70619E+03 -1.14195E+03  6.97764E+03  3.23013E+03  1.53434E+04  5.22505E+03  2.91527E+03  1.53215E+04
 -2.61440E+03  8.78115E+03 -9.75700E+03  6.89879E+03 -5.16200E+03 -6.97664E+03 -1.51690E+04 -6.87600E+03
  4.74403E+03 -1.26461E+04  6.75506E+03 -1.58009E+04  2.29826E+03 -3.66937E+03  1.54327E+04 -5.44676E+03
  1.09570E+04  1.04053E+04 -1.64883E+03  3.03041E+03 -4.30586E+03 -2.00653E+03 -6.78417E+03 -5.52159E+03
  1.24701E+03  1.10361E+03  1.23609E+04  1.09668E+04  1.77873E+03  4.56088E+01 -2.42717E+03  5.45248E+03
 -7.60727E+02  4.82541E+03 -2.51854E+03 -5.18374E+03 -7.37877E+03 -6.69320E+03  4.33235E+03 -2.36833E+03
  8.05303E+03 -8.52906E+03  1.25367E+04 -2.93152E+03  8.10013E+03  3.45559E+03  1.82647E+03  1.24552E+04
  2.36214E+02  9.81680E+03 -3.81175E+03  1.08344E+04 -3.59677E+03  4.63260E+02 -9.84077E+03 -1.01068E+04
 -3.62443E+03 -4.61304E+03 -3.19651E+03  2.97056E+03 -1.86924E+03 -1.71878E+03 -8.24672E+03 -3.30015E+03
 -1.11999E+04 -1.79492E+03 -2.78069E+03 -7.57681E+03  3.45131E+03 -9.25871E+03  1.25332E+04  1.53509E+03
  4.26766E+03 -2.42210E+03  9.82415E+03  5.91808E+03 -2.17969E+03  8.31609E+03 -1.06307E+04  3.77971E+03
