 $NMID ID='MM_0lb_SNR50_19hz_g45_11.RAW', FMTDAT='(8E13.5)'
 TRAMP=1., VOLUME=1. $END
  3.11207E+05  1.09396E+03  3.38882E+05  2.49003E+05  8.36398E+04  3.35712E+05 -1.31335E+05  2.48819E+05
 -1.86481E+05  8.28385E+04 -1.14190E+05 -3.67812E+04  1.24806E+03 -5.48282E+04  5.52357E+04  7.88089E+02
  3.41754E+04  5.52882E+04 -1.36011E+04  7.32005E+04 -6.46419E+04  6.36672E+04 -8.21543E+04  2.86709E+04
 -7.96762E+04 -1.22523E+04 -6.04194E+04 -5.14250E+04 -1.23786E+04 -6.64109E+04  2.69223E+04 -4.64557E+04
  3.93317E+04  5.24665E+03  1.50839E+04  4.76650E+04 -3.44388E+04  4.67747E+04 -6.68024E+04 -3.05958E+03
 -4.98620E+04 -5.57123E+04 -1.66174E+03 -7.63707E+04  3.52867E+04 -5.49380E+04  4.65460E+04 -1.47336E+04
  4.40860E+04  1.15113E+04  3.35263E+04  3.03451E+04  1.45367E+04  2.97165E+04 -2.86490E+03  2.57635E+04
 -1.92915E+04  1.19525E+04 -2.25250E+04 -1.65917E+03  7.83300E+02 -1.48732E+03  2.36060E+04  9.41354E+03
  7.72037E+03  3.44893E+04 -2.86749E+04  3.19505E+04 -6.18737E+04  4.14899E+03 -5.50405E+04 -4.12619E+04
 -1.04001E+04 -5.72516E+04  3.80632E+04 -4.13696E+04  5.25340E+04 -6.24102E+03  2.91502E+04  3.11086E+04
 -5.03298E+03  3.43222E+04 -2.53239E+04  1.17672E+04 -2.79053E+04 -6.40842E+03 -1.61029E+04 -7.70751E+03
 -8.49958E+03 -1.11727E+04  1.18110E+03 -2.12081E+04  2.45164E+03 -2.27197E+04  1.46214E+04 -9.14186E+03
  1.56157E+04  4.19644E+03 -7.26388E+03  1.34825E+04 -1.85157E+04  3.35360E+02 -1.15199E+04 -3.04411E+04
  1.67292E+04 -4.09432E+04  4.28457E+04 -1.90666E+04  4.13478E+04  2.19249E+04  1.30385E+04  4.46713E+04
 -1.56076E+04  3.01042E+04 -2.00315E+04 -2.30479E+03 -8.52823E+03 -2.46903E+04  2.19527E+04 -3.40734E+04
  3.75546E+04 -4.90863E+03  3.08016E+04  2.22788E+04  1.33405E+04  4.45620E+04 -1.00762E+04  4.43537E+04
 -2.85056E+04  2.96838E+04 -3.96753E+04  1.18445E+04 -3.60181E+04 -1.45878E+04 -2.47139E+04 -3.78291E+04
  1.01356E+04 -3.04521E+04  3.12153E+04 -1.45591E+04  2.55944E+04  9.89413E+03  5.52263E+03  1.58560E+04
 -1.48192E+04  6.42564E+03 -6.31237E+03 -7.59155E+03  3.59878E+03 -1.02170E+04  1.19824E+04  7.22380E+03
  1.46995E+04  2.43590E+04 -3.96470E+03  2.48924E+04 -2.33490E+04  7.67063E+03 -2.12059E+04 -7.95790E+03
 -1.53963E+04 -1.95299E+04 -6.07360E+03 -1.71958E+04  7.96256E+03 -1.58213E+04  1.53522E+04 -1.16784E+04
  1.99983E+04 -8.99624E+03  2.57802E+04  8.05872E+02  1.58567E+04  1.74675E+04  1.81185E+03  2.93054E+04
 -1.48719E+04  2.82763E+04 -2.76283E+04  8.45430E+03 -1.94075E+04 -9.54179E+03 -5.21751E+03 -1.16320E+04
 -9.47539E+01 -9.52543E+02 -2.88971E+03  3.49899E+03 -1.57914E+04  8.72294E+03 -1.25593E+04 -5.55259E+03
 -9.42560E+03 -1.40597E+04  2.56801E+03 -1.98958E+04  1.38491E+04 -1.46258E+04  9.53328E+03 -4.21561E+02
  6.11552E+03  1.12139E+04 -3.09340E+02  1.42467E+04 -1.13324E+04  7.72696E+03 -1.47674E+04 -4.29403E+03
 -1.13740E+04 -1.14208E+04 -1.98799E+03 -1.72783E+04  8.79926E+03 -9.72716E+03  1.71050E+04 -1.11477E+04
  1.18558E+04  8.40267E+02  1.05092E+04  6.26321E+03  5.82551E+03  1.14270E+03  1.03915E+04 -2.64934E+03
  1.47720E+04  2.08651E+03  1.31320E+04  1.01652E+04  1.00529E+04  1.97365E+04 -5.58631E+03  2.87659E+04
 -1.89463E+04  1.75667E+04 -2.59320E+04  7.78138E+03 -2.44155E+04 -1.97580E+03 -2.27651E+04 -1.41798E+04
 -9.71433E+03 -1.74293E+04  5.39262E+03 -1.80686E+04  1.29973E+04 -1.35584E+04  1.87673E+04  4.62389E+03
  6.22437E+03  1.06695E+04 -6.47721E+03  1.22483E+04 -1.12761E+04  2.87792E+03 -9.49088E+03 -9.71252E+03
 -3.38085E+03 -8.68606E+03  5.00493E+03 -7.09420E+03  8.32001E+03 -2.31160E+03 -2.37144E+03 -9.39017E+01
 -5.58619E+03  1.76391E+03 -4.26999E+03 -5.66508E+03 -1.16886E+03 -1.01324E+04  7.84561E+03 -7.98863E+03
  9.32474E+03 -3.56865E+03  8.61677E+03  6.03067E+01  6.60255E+03  1.06669E+04  2.95915E+03  1.53595E+04
  2.03367E+02  1.22907E+04 -7.99081E+03  9.92450E+03 -7.61092E+03  1.89267E+03 -8.37932E+03 -1.98972E+03
 -3.95352E+03 -3.20074E+03 -1.76301E+03  7.97128E+02 -7.79821E+02  2.68123E+02 -2.28917E+03  3.39071E+03
 -4.16015E+03  6.81974E+02 -1.04411E+04 -4.44559E+03 -4.69732E+03 -1.19003E+04  3.90016E+03 -9.24727E+03
  3.31730E+03 -2.46081E+03  3.40635E+03 -4.06359E+02  4.32779E+03  4.83137E+03 -2.12893E+03 -5.19509E+02
 -6.06595E+03 -5.08378E+03 -1.93972E+03 -5.83677E+03  1.24468E+03 -7.67560E+03  7.97995E+03 -2.71145E+03
  8.18853E+03  4.08953E+03  3.24157E+03  7.30566E+03  7.65677E+03  1.07617E+04 -8.08249E+03  6.47798E+03
 -1.12549E+02 -1.65578E+03 -2.99769E+03  3.37051E+02 -4.41154E+02  8.89525E+02  3.12550E+03 -3.04132E+03
  4.86724E+03  7.52120E+03 -5.83715E+03  5.29479E+03  4.59724E+02  9.17176E+03 -5.80705E+03  4.52347E+03
 -6.67716E+03 -3.22311E+03  4.99877E+03 -4.72815E+03  8.07395E+02 -3.12522E+03  3.83936E+03 -2.85448E+03
  2.33336E+03  3.18395E+03  1.92699E+02  6.09422E+03 -6.38590E+03  5.69519E+03 -2.81248E+03 -3.66341E+03
 -4.88942E+03 -3.66699E+03 -1.26179E+03 -1.03980E+04  6.46276E+03 -3.70165E+03  4.28940E+03  1.06599E+03
  5.84940E+03  2.92614E+03  8.41671E+02  6.44622E+03 -7.08630E+03  4.17546E+03 -7.97789E+03  3.86707E+02
 -3.36804E+03 -1.67157E+03  1.08827E+03 -4.76259E+03  9.33176E+02 -4.93471E+03  4.36379E+03 -2.03543E+02
  6.85084E+03  4.68817E+03  1.98619E+03 -4.59912E+02  6.97801E+02 -1.09712E+03  6.83857E+02 -1.61135E+03
  2.17602E+03  3.21031E+03  8.42255E+03  2.11830E+03  6.05823E+03  1.16397E+03  6.70896E+03  4.66960E+03
 -7.85771E+02  1.02598E+04 -6.46398E+03  7.54108E+03 -1.08263E+04  1.80852E+02 -7.80129E+03  7.61144E+02
 -3.33417E+03 -5.79858E+03  9.70738E+02 -8.12367E+03  2.26116E+03 -3.14681E+02  2.91865E+03 -2.09109E+03
  7.22169E+02 -2.24055E+03 -2.38898E+03 -3.53113E+03  3.30213E+03 -2.16757E+03  3.06881E+03  7.53558E+02
  4.05204E+03  2.22149E+03 -2.48922E+03  9.37045E+02 -3.97511E+03  3.06884E+03  6.54505E+02  6.83972E+02
 -4.00695E+03  1.70803E+03 -1.70919E+03 -2.49157E+03 -2.95095E+03 -4.12989E+03  4.40675E+03 -5.96662E+03
  3.51149E+03 -2.52724E+03  3.12373E+03  2.32650E+03  5.48518E+03  5.59504E+02  3.32546E+03  5.17107E+03
 -2.52907E+03  6.50560E+03 -6.08479E+03 -1.15912E+02 -4.60460E+03 -2.36787E+03 -1.84498E+03  1.71096E+03
 -2.55467E+03 -5.31571E+02  8.94348E+02  4.84477E+02 -3.17235E+03 -1.89456E+03 -5.41113E+03  2.12019E+03
 -7.13686E+02 -5.53505E+03  2.32206E+03 -7.63982E+03  3.63888E+03 -5.03162E+03  3.48599E+03 -4.92840E+02
  5.29921E+03  2.24440E+03  3.81335E+03  3.94908E+03 -3.75138E+03  2.14448E+03  1.89650E+03 -3.02708E+02
 -4.06488E+03  1.45579E+03 -1.69980E+03 -2.62316E+03  1.94555E+02 -2.75347E+03  1.88941E+03 -6.51829E+03
 -1.10506E+03 -5.85573E+02  5.13839E+03  1.09086E+03 -2.44475E+03  1.89001E+03 -6.66997E+02 -6.71357E+02
  2.41049E+03  2.40579E+03  4.23615E+03  1.62544E+03 -4.87376E+02  2.50075E+03  1.78000E+03  2.85638E+03
  4.89689E+02  1.87314E+03 -3.96571E+03  5.09969E+03 -4.16898E+03  5.31266E+03  1.82465E+03 -3.11478E+03
  5.63005E+02 -3.25358E+03  2.47005E+03 -1.00067E+04  2.04031E+03 -1.54571E+03  2.83497E+03  1.37346E+03
 -1.45338E+03  3.99721E+03  9.93309E+01 -1.32038E+02  5.03512E+03 -3.53670E+03  2.19482E+03 -4.19236E+03
 -1.63822E+03  8.10028E+02  3.18542E+03 -4.72002E+03  4.12620E+03  1.40067E+03  2.22253E+03  1.48662E+03
  2.50329E+03 -2.49592E+03 -1.20705E+03 -3.85564E+02  4.73561E+02  1.70475E+03  3.05198E+03  1.96432E+03
 -2.98397E+02 -3.65102E+03  1.56166E+03 -1.25275E+03  2.77562E+03  8.94182E+02  3.13668E+03  3.77151E+02
  4.30085E+02  2.79163E+03  4.63310E+03 -2.09156E+03 -1.53914E+03 -2.68845E+03  4.60907E+02 -3.74505E+03
  2.73430E+02 -3.53788E+03 -8.87175E+02  1.23350E+03  6.38931E+02  2.71546E+03  1.41754E+03  2.07427E+03
 -5.41549E+02  8.21609E+01 -8.94376E+02 -4.45548E+03  3.01920E+03  6.07165E+02 -6.18723E+02 -5.20223E+03
  1.50526E+03 -2.14948E+03  2.59382E+03  3.50493E+03 -1.92789E+03  7.07485E+01  1.25972E+03  6.64441E+02
  2.18037E+02  1.63622E+03  1.89422E+03  2.08579E+03 -2.46965E+03 -4.54308E+02  2.89263E+03 -1.38811E+03
  4.23604E+03 -1.73603E+03 -1.68473E+03  1.97999E+03  8.91963E+02 -1.84203E+02  5.17684E+03  8.72100E+02
 -6.98204E+01 -2.04472E+02 -2.61673E+03  9.26245E+02 -1.29741E+03 -1.17114E+03  6.02884E+03 -3.80532E+03
 -1.77308E+02  1.33671E+03 -3.96630E+02  9.25771E+01  5.26418E+03  1.31742E+03 -1.42107E+03  1.48444E+03
  1.59927E+03  5.32920E+03 -5.30494E+02 -2.25895E+03 -2.66539E+03 -3.57682E+02  1.30172E+03 -3.83114E+03
 -1.41256E+03 -1.57055E+03 -3.53262E+03  3.99978E+03 -5.83036E+03  4.01282E+03  4.17772E+03  1.02930E+03
 -2.53953E+02 -5.58499E+03  8.11559E+02 -1.12636E+03 -2.05137E+03 -2.82148E+03  5.00874E+03  9.53958E+01
  4.27407E+03 -3.00984E+03 -5.74340E+02  4.22881E+03 -3.02485E+03  5.24993E+03 -4.06939E+03  3.29884E+03
 -2.94836E+03 -1.90209E+03 -2.26436E+03 -4.17147E+03 -3.33209E+03 -6.05341E+02 -6.50200E+02 -3.49280E+03
  6.74453E+02 -2.44572E+02 -4.74039E+03  4.20187E+02  1.83604E+03  3.03990E+03  3.31527E+02 -2.94277E+03
  4.70370E+03  2.06147E+03  2.16149E+03 -7.46744E+02  2.18369E+03  1.64424E+02  3.67455E+03  4.84473E+03
 -4.85287E+03  9.93378E+02 -1.77355E+03  1.88831E+03  3.80845E+03  1.34163E+03 -1.52856E+03 -1.52840E+03
 -5.29782E+03 -1.15325E+03  7.03248E+02 -5.10606E+03 -3.83385E+02 -1.59563E+03  2.91707E+03 -3.01666E+03
 -3.30795E+02  2.99726E+03 -1.16913E+03 -6.00174E+02 -3.01820E+03 -2.65466E+03 -1.35940E+03  2.40373E+03
  6.26154E+02  2.62915E+03 -1.51972E+03  3.11987E+02 -4.70845E+03  2.51470E+03  2.96923E+03 -1.61436E+03
  1.29850E+03 -1.86696E+03 -1.44068E+03  2.39746E+03 -4.11746E+03  4.29583E+03  1.98386E+03 -7.09254E+03
  2.10662E+03 -2.66043E+03  1.20351E+03 -2.47660E+03  1.72049E+03 -2.77620E+03  8.80350E+02 -4.15343E+02
  6.31531E+02 -7.65284E+02 -6.06326E+03  6.02055E+02  2.97854E+03 -8.47981E+02  1.26416E+03  2.35141E+03
  1.36793E+03 -1.98755E+03  1.60453E+03 -8.90919E+02  6.84845E+01  1.86034E+03  8.88331E+02  1.90250E+03
 -3.80859E+03  2.99288E+03  9.58727E+02 -2.80029E+03 -1.08498E+03 -3.40391E+03  2.68154E+03 -5.19132E+01
 -1.66490E+03 -2.23340E+03 -5.32426E+03  7.96366E+02 -3.38429E+03  1.18127E+03  1.57336E+03 -1.85266E+03
