 $NMID ID='MM_0lb_SNR50_8hz_g45_36.RAW', FMTDAT='(8E13.5)'
 TRAMP=1., VOLUME=1. $END
  3.05945E+05  2.10636E+03  3.32202E+05  2.47628E+05  7.98231E+04  3.46101E+05 -1.27516E+05  2.58864E+05
 -1.95551E+05  8.04446E+04 -1.10984E+05 -2.71161E+04  5.84122E+03 -4.56561E+04  4.90529E+04 -2.79834E+03
  3.69775E+04  5.07360E+04 -1.53715E+04  7.63002E+04 -6.14902E+04  6.33714E+04 -7.75544E+04  3.34229E+04
 -7.91037E+04 -1.21530E+04 -6.05684E+04 -5.16260E+04 -1.84490E+04 -7.41320E+04  2.84074E+04 -5.38508E+04
  3.88240E+04  1.05350E+04  1.40482E+04  5.18827E+04 -3.33605E+04  4.98488E+04 -7.09237E+04 -1.46446E+03
 -4.90294E+04 -6.15085E+04 -6.70501E+03 -7.47675E+04  3.90644E+04 -5.34882E+04  5.48673E+04 -1.62883E+04
  4.05630E+04  1.69499E+04  3.17262E+04  2.85782E+04  2.28065E+04  3.35030E+04 -2.09584E+03  3.11078E+04
 -2.45935E+04  7.68740E+03 -2.23940E+04  3.13936E+02  9.27581E+03 -8.51758E+03  2.41310E+04  1.04016E+04
  8.66283E+02  3.89459E+04 -3.34282E+04  3.98895E+04 -7.01991E+04  1.39726E+03 -5.06142E+04 -4.88178E+04
 -1.55189E+04 -6.46779E+04  4.70239E+04 -4.34554E+04  6.33185E+04  1.92733E+03  3.76583E+04  3.58804E+04
 -1.02301E+04  4.35385E+04 -3.25682E+04  1.53392E+04 -3.28695E+04 -3.14006E+03 -1.93976E+04 -5.83381E+03
 -6.01051E+03 -1.98830E+04 -1.54223E+03 -2.04492E+04  8.58265E+03 -2.37869E+04  1.37399E+04 -1.19146E+04
  1.53392E+04  6.17305E+03 -6.04765E+02  1.94140E+04 -2.33190E+04 -1.03775E+04 -1.51632E+04 -4.31898E+04
  3.00457E+04 -4.72353E+04  5.52953E+04 -2.70607E+04  5.30859E+04  1.70836E+04  2.06077E+04  4.80519E+04
 -2.25596E+04  3.26189E+04 -2.23093E+04  5.80777E+03 -1.31173E+04 -2.65040E+04  2.80309E+04 -3.87857E+04
  4.03778E+04 -1.50350E+04  4.14754E+04  3.29685E+04  1.67478E+04  5.36098E+04 -3.83868E+03  5.78523E+04
 -3.85419E+04  3.75841E+04 -4.65059E+04  9.64774E+03 -4.42082E+04 -2.41717E+04 -2.73632E+04 -4.52188E+04
  2.13845E+03 -4.56175E+04  3.97361E+04 -1.59222E+04  3.42018E+04  8.37031E+03  1.26408E+04  1.89050E+04
 -1.19551E+04  1.22245E+04 -8.63798E+03 -9.03052E+03  2.31551E+03 -3.05448E+03  2.13982E+04  2.09109E+03
  1.46119E+04  2.10778E+04 -3.07598E+03  2.72217E+04 -3.11436E+04  1.62957E+04 -3.17817E+04 -5.67843E+03
 -2.18002E+04 -1.55411E+04 -1.18655E+04 -2.68650E+04  2.91060E+03 -2.81609E+04  1.90025E+04 -1.88655E+04
  2.63386E+04 -1.42615E+04  3.42665E+04  9.14206E+03  3.13153E+04  2.08378E+04  6.94376E+03  4.09814E+04
 -1.56631E+04  3.52435E+04 -3.01722E+04  1.34874E+04 -2.50345E+04 -7.43647E+03 -1.48949E+04 -6.17656E+03
 -2.91039E+03 -9.20849E+03 -1.17582E+04  1.30332E+04 -2.03883E+04 -2.69691E+02 -2.03374E+04 -1.20378E+04
 -1.11952E+04 -2.78303E+04  4.12638E+03 -2.88831E+04  2.05070E+04 -2.21419E+04  2.16868E+04 -4.76558E+03
  1.55339E+04  1.25696E+04 -3.60303E+03  2.27803E+04 -1.79706E+04  1.41998E+04 -2.07143E+04 -4.45816E+03
 -1.64770E+04 -1.92380E+04 -3.15758E+03 -3.12591E+04  1.22120E+04 -2.27988E+04  2.01153E+04 -1.72104E+04
  1.76506E+04 -2.98920E+03  1.35087E+04  6.40718E+02  8.22525E+03  3.73374E+03  9.62456E+03 -4.07027E+03
  1.82233E+04  6.20871E+03  1.94843E+04  1.63842E+04  1.76117E+04  4.05025E+04 -4.62785E+02  4.60999E+04
 -3.02840E+04  3.43868E+04 -4.59277E+04  1.97294E+04 -4.69385E+04 -1.08729E+04 -4.37600E+04 -2.57721E+04
 -2.20442E+04 -3.46084E+04  1.43693E+04 -3.87845E+04  2.64940E+04 -1.39909E+04  2.03422E+04  1.09243E+04
  5.30721E+03  1.98280E+04 -1.32293E+04  2.02893E+04 -2.75513E+04 -3.57765E+03 -1.66553E+04 -7.99966E+03
 -1.80975E+02 -1.63059E+04  6.98130E+03 -1.72084E+04  1.21822E+04 -4.20835E+03  2.80152E+03  7.50458E+03
 -9.25810E+03  5.60176E+03 -9.99625E+03 -7.68145E+03 -3.89182E+03 -2.12543E+04  7.12132E+03 -2.11809E+04
  1.90496E+04 -1.17536E+04  2.95944E+04  6.21571E+03  2.95316E+04  2.55022E+04  1.13829E+04  2.64975E+04
 -9.87365E+03  2.57440E+04 -2.07006E+04  1.91327E+04 -1.69018E+04  3.76959E+03 -1.74703E+04 -1.01793E+04
 -1.67552E+03 -1.47048E+03 -3.18963E+03  1.45343E+02 -6.67268E+03 -1.48847E+03 -7.28105E+03 -3.31765E+02
 -1.46062E+04  2.00285E+03 -1.69256E+04 -1.44950E+04 -8.01393E+03 -2.16268E+04  2.79138E+03 -9.10892E+03
  1.71862E+04 -3.41897E+03  1.13914E+04  1.92667E+03 -3.32599E+03 -5.29506E+02 -6.12922E+03  2.75062E+02
 -2.57865E+03 -6.84880E+03 -1.20946E+03 -1.47624E+04  9.24331E+03 -1.63514E+04  1.92300E+04 -1.19426E+04
  1.98607E+04  9.08517E+02  1.56556E+04  1.82159E+04  2.68794E+03  1.01628E+04 -1.00712E+04  1.69508E+04
 -2.04237E+04  6.87009E+03 -6.81272E+03 -8.37860E+03 -2.32232E+03 -4.32417E+03  7.82962E+03 -7.23950E+03
  1.23441E+04  1.68595E+03  2.16680E+03  1.08586E+04 -1.28404E+04  1.11941E+04 -7.13884E+03  3.24017E+03
 -1.58383E+04 -1.02425E+04 -7.14806E+02 -1.44188E+04  7.50852E+03 -9.80764E+03  5.16003E+03  5.10700E+03
  3.87878E+03  8.50905E+03 -5.50557E+03  1.79353E+04 -1.87428E+04  6.72671E+03 -1.35382E+04 -8.25046E+02
 -1.36101E+04 -1.48222E+04  5.52385E+03 -2.69571E+04  2.22161E+04 -1.05018E+04  1.29208E+04  1.33361E+04
  8.55547E+03  1.00023E+04 -5.24107E+03  9.63524E+03 -1.14949E+04  1.52108E+04 -1.68148E+04 -3.00842E+03
 -1.02876E+04 -7.92414E+03 -1.71079E+03 -1.22060E+04  7.46652E+03 -3.82578E+03  4.55870E+03 -4.99493E+03
  3.00570E+03  3.64678E+03  1.40776E+03  1.67999E+03  4.82248E+03 -3.00171E+03  2.92875E+02 -1.35162E+04
  1.26591E+04  2.02576E+03  1.45372E+04  3.26686E+03  1.42615E+04  1.32592E+04  6.48449E+03  2.44724E+04
 -6.61124E+03  2.42350E+04 -1.48102E+04  1.30297E+04 -2.67027E+04  6.43344E+03 -1.84006E+04 -1.30938E+04
 -1.01976E+04 -2.15407E+04  6.05704E+03 -1.00245E+04  6.03239E+03 -9.85390E+03  5.11477E+03 -4.58192E+03
  3.46851E+03 -3.24647E+03  3.46264E+03 -9.51226E+03 -7.05106E+02 -1.60394E+02  9.06662E+03 -1.24403E+02
  1.35951E+04  6.39885E+03  4.38634E+03  1.71144E+04 -3.05556E+03  1.19299E+04 -1.13816E+04  9.02232E+03
 -8.60221E+03 -1.85178E+02 -2.87310E+03 -1.26988E+04  5.22160E+03 -1.61309E+04  2.88437E+03 -1.33545E+04
  1.96100E+04 -9.40920E+03  1.81724E+04  5.60117E+03  1.60555E+04  1.58359E+04  5.97298E+02  2.11664E+04
 -4.44745E+03  2.00954E+04 -5.37722E+03  3.70382E+03 -7.67507E+03 -1.10503E+04 -3.14001E+03 -3.60351E+03
 -2.80778E+03 -1.93458E+03  3.47436E+03  1.90069E+03 -8.68986E+03  4.55593E+03 -1.48044E+04  4.95685E+03
 -4.79007E+03 -1.56341E+04  1.94762E+03 -6.80639E+03  1.08112E+04 -1.24379E+04  1.22117E+04 -8.10379E+03
  1.61856E+04  1.16181E+04  9.47124E+03  1.26487E+04  5.30612E+02  1.21846E+04 -9.87832E+03  1.44975E+04
 -8.29189E+03 -1.16191E+03 -1.04172E+04 -1.31975E+04 -2.01501E+03 -1.52894E+04  1.31560E+04 -9.83267E+03
  1.50781E+04 -6.58426E+03  6.59893E+03  2.69433E+03 -3.66684E+03  4.59770E+03 -5.37262E+02  5.39573E+03
  6.85420E+03  3.60489E+03  2.82158E+03  2.36371E+03  9.70306E+03  9.64047E+03  3.07767E+03  1.31143E+04
 -6.31953E+03  1.37613E+04 -1.77665E+04  1.63833E+04 -1.92457E+04 -3.43115E+02 -1.70838E+04 -1.07683E+04
 -7.67055E+03 -1.63456E+04  3.32538E+03 -1.42178E+04  8.08998E+03 -1.63765E+04  1.12342E+04  3.19395E+03
  1.08268E+04  1.51147E+04  3.07553E+03  9.85454E+03 -2.06926E+01  4.45782E+03 -6.21626E+03 -4.39310E+03
  3.58592E+03 -4.03992E+03  3.48280E+03 -9.31360E+03  1.22285E+03 -4.17005E+03 -5.29692E+02  1.91106E+03
  9.56411E+03  2.69923E+03 -2.57998E+03  6.02398E+03 -5.21938E+03  2.00044E+03  6.22282E+03  3.10234E+03
 -9.63609E+02  1.83514E+03  4.51437E+02  7.06191E+03  4.55399E+03  1.11663E+04  2.85346E+03  1.07207E+04
 -1.00600E+04  8.85463E+03 -1.60774E+04  2.14767E+03 -1.35963E+04 -2.35759E+02 -7.58598E+03 -1.95929E+03
 -3.20473E+03 -1.36461E+03  8.53416E+03 -5.80203E+03  8.57468E+03  9.11842E+02 -1.75244E+03  5.64184E+03
  4.17474E+02  3.32610E+03 -7.92654E+03 -6.66396E+03 -6.78038E+03 -5.33905E+03  7.28168E+03 -7.63037E+03
  1.38167E+04 -5.93120E+03  9.57984E+02 -7.29567E+02 -4.54765E+03  1.79256E+03  4.38755E+03  1.97357E+03
 -7.22286E+03  4.84582E+03 -8.10979E+03 -1.09438E+04 -1.07891E+03 -1.46059E+04  1.10982E+04 -4.93434E+03
  8.66940E+03  7.64069E+02  1.36109E+04  6.46955E+03  6.80084E+02  9.20793E+03 -2.60212E+02  1.61608E+04
 -8.01044E+03  5.92951E+03 -7.23139E+03 -1.11015E+02 -7.57996E+03 -1.00894E+04 -6.56962E+03 -8.16152E+03
  3.79401E+03 -8.33524E+03 -3.58120E+03  1.94135E+03  3.86829E+03  1.20268E+04  2.34967E+03  2.32997E+02
 -1.82909E+03  7.43255E+03 -3.75033E+03  5.31330E+03 -7.88896E+02 -2.62402E+02 -2.30243E+03  5.19956E+03
 -4.20805E+03  1.14370E+03 -3.76096E+03  4.22594E+03 -1.39379E+04  1.32626E+03 -1.16163E+04 -7.21539E+03
 -5.23182E+03 -1.38401E+04  1.64659E+03 -2.23008E+04  1.30698E+04 -1.56839E+04  2.06688E+04  5.23428E+02
  1.21061E+04  7.28820E+03  6.61126E+03  1.36145E+04  1.10936E+03  1.12429E+04 -5.54480E+03  6.20807E+03
 -4.39343E+03  4.83707E+03 -1.13906E+04 -2.92628E+03  1.27209E+03 -6.07855E+03 -1.02574E+03  8.47286E+02
  4.07945E+03 -2.60889E+03 -6.56619E+02  1.55872E+01 -4.93291E+03 -2.17877E+03  1.16423E+03 -1.67292E+03
  4.32383E+03 -2.77607E+03  6.97187E+03  3.30098E+03  3.20388E+03  4.62775E+03  6.84001E+03  1.41700E+04
 -7.81740E+02  1.78084E+04 -9.39118E+03  8.11298E+03 -1.58165E+04 -1.49396E+03 -4.06785E+03 -4.02374E+03
 -5.50575E+03 -1.32733E+04  3.55049E+03 -5.75176E+03  4.45153E+03 -5.10415E+03  5.45705E+03  9.09082E+02
  4.70653E+03  6.48969E+03 -3.02832E+03  4.63982E+03 -5.22830E+03  1.54950E+03 -3.69515E+02  9.57984E+02
  2.74273E+03  8.30162E+02  1.17284E+03  8.34711E+03  1.00511E+04  3.58334E+02 -2.21358E+03  4.66961E+03
 -1.95812E+03  4.72390E+03 -7.95019E+03  1.99237E+03 -2.21158E+03 -6.94282E+03 -2.75503E+03 -8.19723E+03
  5.92651E+03 -4.43725E+03  9.96874E+03 -5.05890E+03  8.59603E+03  1.92612E+03  7.76953E+03  9.86059E+03
  6.41044E+03  1.08264E+04 -1.33758E+03  2.95553E+03 -4.32866E+03 -2.05080E+03 -2.64578E+02  2.21955E+03
 -5.86358E+02  1.21562E+03 -3.29040E+03  1.08775E+03 -1.11044E+03 -2.14196E+03 -5.61885E+03 -1.76024E+03
 -8.11882E+03 -9.15641E+03 -3.42196E+03 -6.28357E+03  6.80831E+03 -8.60885E+03  9.93565E+03 -7.29800E+03
  5.53622E+03  3.97545E+02  4.59426E+03  6.30089E+03 -1.92179E+03  4.80276E+03 -5.29196E+03  1.05630E+04
