 $NMID ID='MM_0lb_SNR50_7hz_g45_56.RAW', FMTDAT='(8E13.5)'
 TRAMP=1., VOLUME=1. $END
  3.10219E+05  3.32138E+03  3.38605E+05  2.50409E+05  8.16473E+04  3.34104E+05 -1.27368E+05  2.56411E+05
 -1.92210E+05  8.80147E+04 -1.13750E+05 -3.81108E+04  4.22708E+03 -4.85163E+04  5.35115E+04 -2.83921E+03
  3.54189E+04  5.66620E+04 -2.36639E+04  7.20264E+04 -6.67493E+04  5.84123E+04 -8.26798E+04  3.15894E+04
 -7.66044E+04 -1.69954E+04 -6.17011E+04 -5.96617E+04 -1.29149E+04 -7.60164E+04  3.72213E+04 -5.39181E+04
  4.63800E+04  4.17563E+03  1.94356E+04  4.77018E+04 -3.12121E+04  5.00133E+04 -6.48037E+04  5.33571E+03
 -5.61855E+04 -6.49441E+04 -3.70039E+03 -8.21774E+04  3.08054E+04 -6.08081E+04  6.01615E+04 -2.00720E+04
  4.34989E+04  6.58851E+03  4.01897E+04  2.71947E+04  1.95143E+04  3.06433E+04 -8.01580E+03  2.28179E+04
 -2.34551E+04  9.52567E+03 -1.60395E+04 -6.62615E+03  1.43832E+03 -5.87734E+03  2.23872E+04  1.29669E+04
  9.19687E+03  3.88295E+04 -3.57811E+04  3.55747E+04 -6.01119E+04  4.23836E+01 -5.22254E+04 -4.12897E+04
 -2.34365E+04 -7.35309E+04  4.74798E+04 -4.64736E+04  6.17304E+04  1.81379E+03  3.81253E+04  3.06598E+04
 -1.08489E+04  4.11628E+04 -2.83952E+04  2.16718E+04 -3.59610E+04 -4.06130E+03 -2.57541E+04 -1.30852E+04
 -3.24894E+03 -8.43979E+03  1.09453E+03 -2.01280E+04  1.02453E+04 -2.13671E+04  1.52804E+04 -7.11531E+03
  1.65250E+04  5.80177E+03 -6.82915E+03  2.17127E+04 -2.78393E+04 -1.03019E+04 -3.27046E+03 -3.49458E+04
  2.50651E+04 -5.17463E+04  5.82594E+04 -2.04476E+04  4.44504E+04  1.96522E+04  1.30761E+04  4.45821E+04
 -1.33075E+04  3.70472E+04 -3.08799E+04  1.54391E+03 -1.32472E+04 -3.56068E+04  1.26365E+04 -4.06252E+04
  4.27205E+04 -1.61343E+04  4.83192E+04  2.83246E+04  2.87491E+04  5.11799E+04 -1.16960E+04  5.16952E+04
 -4.24042E+04  3.63631E+04 -4.67834E+04  1.69838E+04 -4.67888E+04 -1.48977E+04 -2.97118E+04 -4.25440E+04
  9.93203E+03 -4.49865E+04  3.17847E+04 -1.46562E+04  2.82171E+04  9.31859E+03  5.74896E+03  1.60823E+04
 -1.11015E+04  5.25749E+03 -8.29397E+03 -7.36514E+03  7.82479E+03 -9.58743E+03  1.76428E+04  8.83401E+03
  1.48441E+04  2.21186E+04 -5.57716E+03  2.91431E+04 -1.74504E+04  1.67867E+04 -3.71919E+04  2.75452E+03
 -2.35264E+04 -4.74966E+03 -1.96273E+04 -2.18199E+04  7.36676E+03 -2.69884E+04  1.73938E+04 -2.55276E+04
  3.04738E+04 -1.03575E+04  3.85576E+04  1.21772E+04  3.43341E+04  2.32306E+04  3.20935E+03  4.23203E+04
 -1.98183E+04  3.35703E+04 -2.41267E+04  1.27831E+04 -2.36060E+04 -1.15325E+04 -1.17370E+04 -1.11741E+04
  6.61984E+01  2.22345E+02 -1.23651E+04  7.09320E+03 -1.20254E+04 -7.63053E+02 -2.01703E+04 -1.59169E+04
 -1.67353E+04 -2.23265E+04  8.79261E+03 -2.99434E+04  1.75136E+04 -1.91782E+04  2.80514E+04 -3.01402E+03
  1.34914E+04  2.16789E+04  6.83511E+03  2.52639E+04 -2.31799E+04  1.11977E+04 -2.45315E+04 -6.48541E+03
 -1.49179E+04 -1.55180E+04 -1.18588E+04 -2.69175E+04  2.28506E+04 -2.58559E+04  2.91979E+04 -1.47195E+04
  2.46923E+04 -2.59008E+03  2.08448E+04  8.79532E+03  2.03476E+04  1.92943E+03  1.43973E+04 -2.45446E+03
  2.97556E+04  2.96455E+03  3.21743E+04  1.15886E+04  2.21277E+04  4.07574E+04  6.97363E+03  4.76241E+04
 -2.63755E+04  3.53043E+04 -4.86491E+04  1.60038E+04 -4.64341E+04 -6.16366E+03 -3.88111E+04 -2.78968E+04
 -1.41258E+04 -4.31187E+04  1.72705E+04 -4.19087E+04  3.48922E+04 -2.09097E+04  2.57534E+04  1.44828E+04
  8.28456E+03  2.66177E+04 -1.56514E+04  1.77097E+04 -2.38931E+04  1.51169E+03 -2.15978E+04 -1.29003E+04
 -4.97413E+03 -2.84232E+04  1.01792E+04 -1.90561E+04  2.03020E+04 -2.28438E+03  4.05984E+03  1.58003E+04
 -6.56304E+03  3.52289E+03 -8.67552E+03 -6.34045E+03  5.54514E+02 -1.51085E+04  4.25382E+03 -1.68585E+04
  3.03572E+04 -1.23261E+04  3.25727E+04  6.96963E+03  2.72205E+04  1.94397E+04  1.11512E+04  3.40290E+04
 -8.15638E+03  2.97249E+04 -2.68939E+04  2.37001E+04 -2.29084E+04  9.38885E+03 -5.49073E+03 -8.64384E+03
 -7.18362E+03 -3.68435E+03 -2.58855E+02 -4.50699E+03 -1.16860E+03 -8.79485E+02  5.22746E+01  1.13726E+04
 -1.84644E+04 -4.60359E+02 -2.35113E+04 -1.67273E+04 -1.30642E+04 -2.12724E+04  3.58616E+03 -1.46191E+04
  1.58335E+04 -3.54669E+03  1.83617E+04  4.50931E+03 -1.52807E+03  6.64965E+03 -1.10312E+04  5.77294E+03
 -3.10657E+03 -1.82449E+04  2.33113E+03 -1.55500E+04  4.44875E+03 -1.58819E+04  2.38878E+04 -1.16391E+04
  2.77243E+04  6.50831E+03  1.99374E+04  1.89940E+04  8.18137E+03  2.89418E+04 -1.11017E+04  1.18030E+04
 -1.43502E+04  9.86559E+03 -4.70768E+03 -4.06111E+03  7.46642E+02 -8.09280E+03  1.16834E+04  2.87051E+03
  4.65097E+03  1.19583E+04  7.81740E+03  6.48190E+03 -7.39634E+03  1.73865E+04 -2.01425E+04  5.43151E+03
 -8.68122E+03 -1.12345E+04  1.00545E+04 -2.29118E+04  7.84341E+03 -1.28853E+04  2.66414E+02  5.83222E+03
  9.33305E+03  1.41227E+04 -1.26510E+04  1.62458E+04 -1.64780E+04  9.59087E+03 -2.27450E+04 -2.88906E+03
 -1.02658E+04 -1.23012E+04 -2.55955E+03 -2.03501E+04  2.06197E+04 -1.67907E+04  1.67585E+04  5.03287E+03
  1.12605E+04  9.91736E+03 -2.39091E+03  1.75497E+04 -9.94019E+03  1.30504E+04 -1.26024E+04 -1.27383E+03
 -1.49620E+04 -8.30585E+03 -4.27826E+03 -1.59204E+04  6.98433E+03 -8.81316E+03  9.38996E+03 -8.75743E+03
  8.28977E+02  6.79963E+02 -1.36655E+03 -8.56615E+02 -1.79730E+03 -5.77249E+03 -1.07037E+03 -2.41860E+03
  1.07827E+04 -5.87115E+03  1.64793E+04 -1.58403E+02  2.26350E+04  1.28283E+04  1.25824E+04  2.68791E+04
 -3.70210E+03  2.60404E+04 -1.99754E+04  9.15221E+03 -3.05469E+04  3.48903E+03 -2.28510E+04 -1.68594E+04
 -1.54710E+04 -1.26732E+04 -5.77185E+03 -1.01403E+04  7.35124E+03 -2.58104E+03  7.44192E+03 -6.11062E+03
 -1.45207E+03 -4.47531E+03  2.82938E+03  9.94448E+02  1.02003E+04 -1.00641E+02  1.28098E+04 -4.46802E+03
  8.89868E+03  5.44666E+03  5.59845E+03  3.28795E+03 -4.55160E+01  1.18714E+04 -1.59213E+04  1.52606E+04
 -2.25735E+04  1.89572E+03 -1.23211E+04 -9.60760E+03 -3.79720E+03 -2.51213E+04  1.82614E+04 -2.15246E+04
  2.59435E+04 -9.82784E+03  2.57707E+04  4.86834E+03  2.34912E+04  2.16329E+04  1.72435E+03  1.48417E+04
 -7.06452E+03  1.64048E+04 -2.06015E+04  3.84340E+03 -5.04924E+03 -5.54166E+03  2.68723E+03  1.19852E+03
  3.66509E+03  4.89023E+02 -4.18645E+03 -2.53705E+02 -1.21171E+04  2.63357E+03 -8.67796E+03  4.01097E+02
 -4.89220E+03 -1.06507E+04 -3.18283E+03 -2.26874E+04  9.71447E+03 -1.55472E+04  1.82133E+04 -3.43631E+03
  1.34693E+04 -1.52978E+03  1.40375E+04  1.76043E+04 -4.24734E+02  1.66651E+04 -1.98866E+04  6.46316E+03
 -2.69333E+04  3.87527E+03 -9.34646E+03 -1.42416E+04 -1.95966E+03 -1.41860E+04  5.54189E+03 -1.69003E+04
  1.37137E+04 -1.20874E+04  5.59096E+02  6.52334E+03  2.40417E+03  5.43951E+03 -4.92847E+03  2.96148E+03
  8.10291E+03  1.58440E+03  4.58075E+00 -1.87539E+03  1.97339E+03  5.24882E+03  7.94368E+03  7.62494E+03
  2.17522E+03  2.55144E+04 -1.20690E+04  1.54005E+04 -2.12913E+04  1.88563E+03 -2.34203E+04 -9.20335E+03
 -7.35100E+03 -1.58294E+04  2.17686E+03 -2.96105E+04  6.17566E+03 -1.10418E+04  1.65945E+04 -7.06998E+03
  1.43354E+04  3.68030E+03  1.49093E+03  1.13461E+04 -6.95168E+03  4.28350E+03 -1.17383E+04 -2.93178E+03
 -1.41269E+03 -8.80416E+03  2.99399E+03 -5.60768E+03  1.03280E+04 -9.03465E+03  1.59264E+04 -4.44201E+03
 -3.98719E+03  1.50448E+03  8.27179E+02  1.31917E+03  9.63342E+02  2.42182E+03  3.23356E+03  1.69125E+02
 -4.06165E+03  2.51725E+02  4.58097E+03  1.88940E+03  9.63666E+03  1.18955E+04 -9.10137E+03  1.53224E+04
 -6.03333E+03  2.02373E+04 -1.22291E+04  1.34706E+03 -7.18377E+03 -9.34207E+03 -4.78591E+03 -7.93091E+03
  1.86956E+03  5.56681E+02  5.67244E+03 -1.87149E+02  2.31800E+03  7.73658E+03 -1.43418E+03  3.35820E+03
 -5.31338E+03  6.20800E+03 -8.01533E+03 -7.01373E+03 -8.73713E+03 -1.21708E+04  7.47306E+03 -8.98976E+03
  3.03281E+03 -2.52585E+03  3.11463E+03  6.77538E+03  9.66040E+02  2.66947E+03  2.09092E+02  4.80689E+03
  5.25384E+02  4.92404E+03  1.72595E+02 -4.73621E+03  6.37517E+03 -9.05299E+03  1.00826E+04  5.44468E+03
  1.05108E+04 -5.07151E+03  1.31603E+04  5.99670E+03 -3.80414E+03  1.37512E+04 -6.37862E+03  1.67788E+04
 -9.36903E+03  3.50633E+03 -1.21126E+04 -2.21093E+03 -1.08332E+03 -6.15384E+03  6.45705E+03 -1.62004E+04
  6.16425E+03 -1.28988E+04  1.13555E+04 -4.97129E+02  4.80380E+03  7.45633E+03  1.67097E+02  5.03628E+03
 -1.81850E+03  6.44987E+03  1.78323E+03 -1.75095E+03  5.95840E+03  4.83372E+03  2.42951E+03  2.50980E+03
  2.19114E+03  1.96508E+03 -4.87705E+03  6.28125E+03 -1.74937E+04  2.71754E+03 -1.66532E+04 -1.18133E+04
 -1.44974E+04 -1.71962E+04 -4.20729E+03 -2.28133E+04  2.05327E+04 -1.65309E+04  1.17990E+04 -4.71536E+03
  1.55883E+04 -6.69525E+03  6.35781E+03  8.45850E+03  3.19494E+03  1.37150E+04 -2.22582E+03  1.36917E+04
 -2.62731E+03  6.11148E+03 -1.88421E+03 -2.12678E+03 -1.01725E+03 -1.69328E+03  2.58051E+03  1.43169E+02
 -1.32803E+03 -3.02113E+02 -3.39129E+03  3.67403E+03  4.56971E+03 -1.05367E+04 -1.39389E+03 -5.38913E+03
 -6.87955E+02 -9.92098E+03  1.23157E+04 -1.33949E+03  1.14796E+04  8.85831E+03  3.27595E+02  1.59426E+04
 -2.95729E+03  1.02311E+04 -1.55044E+04  3.45237E+03 -1.88930E+04 -7.97596E+02 -1.18577E+04 -1.17841E+04
 -8.51605E+03 -1.55877E+04  2.94847E+03 -1.03889E+04  1.61873E+04 -3.09418E+03  3.36980E+03 -5.30333E+03
  1.05356E+04  3.97810E+03  1.36357E+03  7.96779E+03 -2.73791E+03 -2.49534E+03 -2.82823E+03 -3.31855E+03
  3.19199E+03 -8.01287E+03 -5.54633E+01  3.73133E+03 -5.81646E+03  6.86624E+03 -7.66203E+02  5.64130E+03
 -5.98049E+03  8.68445E+03 -1.03368E+04 -1.70077E+03 -1.13598E+04 -7.49960E+03 -8.32164E+02 -1.90449E+04
  7.48261E+03 -1.28471E+04  1.07939E+04 -7.41223E+03  1.49229E+04  1.07008E+04  7.03352E+03  4.39698E+03
  6.07485E+02  1.66769E+03 -5.10810E+03  1.19034E+04 -8.59078E+03  5.01533E+03 -3.34766E+03  4.86046E+02
 -2.09208E+03  2.45193E+03 -7.31286E+02  5.14855E+03 -8.85916E+03  3.68366E+03 -2.38990E+03  1.19848E+03
 -9.65789E+03 -3.62415E+03  1.61323E+03 -8.53834E+03  8.55862E+03 -1.24206E+04  1.20945E+04 -6.01675E+03
  7.52933E+03 -8.98766E+03  9.40232E+03  1.04969E+03 -3.35018E+03  1.29587E+04 -4.52592E+03  4.93930E+03
