 $NMID ID='MM_0lb_SNR50_10hz_g55_53.RAW', FMTDAT='(8E13.5)'
 TRAMP=1., VOLUME=1. $END
  3.11576E+05 -5.62212E+03  3.35158E+05  2.53554E+05  8.43063E+04  3.39835E+05 -1.30437E+05  2.48509E+05
 -1.89038E+05  8.84469E+04 -1.05575E+05 -3.48051E+04  1.19480E+03 -4.98667E+04  5.44037E+04 -8.48989E+02
  3.82058E+04  5.38261E+04 -1.20896E+04  7.76652E+04 -6.08095E+04  6.69008E+04 -8.02262E+04  3.75518E+04
 -8.29714E+04 -6.27978E+03 -5.73976E+04 -5.18276E+04 -1.55064E+04 -7.64828E+04  2.32559E+04 -4.85140E+04
  4.27836E+04  6.88126E+03  1.34728E+04  4.65866E+04 -2.93213E+04  4.85849E+04 -6.52553E+04  3.31412E+03
 -5.68830E+04 -5.63027E+04 -1.36874E+04 -8.13955E+04  4.13995E+04 -6.35086E+04  4.89736E+04 -1.78009E+04
  4.21367E+04  1.31775E+04  3.18926E+04  3.05909E+04  2.17000E+04  3.54311E+04 -1.08205E+04  2.33865E+04
 -2.09316E+04  8.09509E+03 -1.99472E+04 -8.94326E+03  1.05834E+04 -8.26871E+03  1.72538E+04  1.85338E+04
  3.21162E+03  3.83264E+04 -3.27134E+04  3.28781E+04 -6.81420E+04  4.57539E+02 -5.91216E+04 -4.60914E+04
 -1.16902E+04 -6.70589E+04  4.32819E+04 -5.15077E+04  6.64996E+04  6.11089E+02  3.33298E+04  3.31210E+04
  2.75517E+03  4.81266E+04 -3.51166E+04  1.72107E+04 -3.63379E+04 -8.52507E+03 -1.95590E+04 -2.66491E+03
 -1.07241E+04 -1.35681E+04 -6.72367E+03 -1.38330E+04  7.02653E+03 -1.98413E+04  1.31565E+04 -1.25064E+04
  1.26260E+04  4.16527E+03 -9.08045E+03  1.95262E+04 -2.57251E+04 -8.88022E+03 -6.51305E+03 -3.73458E+04
  2.92154E+04 -4.72013E+04  5.02357E+04 -1.73856E+04  5.19420E+04  1.91471E+04  1.69927E+04  5.12683E+04
 -1.60595E+04  4.22120E+04 -2.32909E+04 -1.02827E+03 -1.19090E+04 -2.71222E+04  2.30286E+04 -2.74236E+04
  4.94295E+04 -1.04437E+04  3.91984E+04  2.68058E+04  1.95245E+04  5.65296E+04 -7.61598E+03  4.76706E+04
 -3.56856E+04  4.03490E+04 -4.77148E+04  7.53179E+03 -4.72450E+04 -2.55083E+04 -2.44352E+04 -4.61256E+04
  1.11818E+04 -4.52932E+04  3.62726E+04 -8.68794E+03  3.03272E+04  1.02216E+04  5.03462E+03  1.70110E+04
 -1.22147E+04  5.96190E+03 -1.06679E+04 -4.24336E+02  6.96021E+03 -1.05299E+04  2.37925E+04  4.11846E+03
  1.41350E+04  2.16807E+04 -3.82955E+03  2.26912E+04 -2.10451E+04  1.67218E+04 -3.22068E+04 -4.15688E+03
 -2.89997E+04 -2.30568E+04 -1.23681E+04 -2.60198E+04  1.03094E+03 -2.29721E+04  1.72495E+04 -2.00741E+04
  2.52608E+04 -1.60591E+04  4.02455E+04  2.83071E+03  2.59766E+04  2.96948E+04 -4.10164E+03  3.58514E+04
 -1.75685E+04  3.03369E+04 -2.69425E+04  1.00851E+04 -2.40124E+04 -8.39726E+03 -8.15473E+03 -1.05959E+04
  7.02359E+02 -6.19487E+03 -9.29845E+03  1.01655E+04 -1.89600E+04  1.14066E+03 -2.49626E+04 -9.80371E+03
 -1.23620E+04 -2.43995E+04  9.24544E+03 -2.97359E+04  2.09821E+04 -1.76933E+04  2.40857E+04  3.91529E+03
  1.63334E+04  1.92281E+04 -3.83275E+03  2.03754E+04 -2.08658E+04  1.52364E+04 -2.11307E+04 -9.84755E+03
 -1.58626E+04 -2.64248E+04 -2.55101E+03 -3.00951E+04  1.39352E+04 -2.26625E+04  2.27370E+04 -1.20940E+04
  2.76824E+04 -3.91319E+03  1.67616E+04  6.02719E+03  1.09697E+04 -4.49679E+03  1.02397E+04 -3.70082E+03
  1.74033E+04  1.60815E+03  2.55463E+04  1.32161E+04  1.76149E+04  3.78823E+04  3.54533E+03  4.76198E+04
 -2.28301E+04  3.35163E+04 -4.04918E+04  2.17679E+04 -4.38260E+04 -5.08998E+03 -3.48796E+04 -2.36511E+04
 -1.58826E+04 -4.08934E+04  1.09136E+04 -2.96905E+04  2.88317E+04 -1.14782E+04  2.22844E+04  9.11078E+03
  5.39413E+03  1.51287E+04 -7.10474E+03  1.03884E+04 -1.71414E+04  5.39557E+03 -1.54916E+04 -1.67565E+04
 -3.21392E+03 -1.83183E+04  1.51474E+04 -1.39359E+04  8.20187E+03 -2.04301E+03 -2.76044E+03  8.08563E+03
 -6.23504E+03  4.02508E+03 -9.49712E+03 -1.07230E+04 -5.38341E+03 -1.97647E+04  1.65235E+04 -2.10557E+04
  2.54713E+04 -9.84384E+03  2.12317E+04  3.36643E+03  1.72069E+04  1.81967E+04  8.28281E+03  2.72027E+04
 -7.62558E+03  2.08044E+04 -1.82995E+04  1.68690E+04 -1.94034E+04  7.83242E+03 -1.84790E+04 -5.23035E+03
 -1.29772E+04 -8.58368E+03  1.80891E+03  1.19869E+03 -2.24186E+03 -1.31474E+03 -9.53002E+03  4.03871E+03
 -1.65271E+04  6.37385E+03 -1.28595E+04 -1.09055E+04 -8.72848E+03 -2.93050E+04  6.77706E+03 -1.42056E+04
  1.35586E+04 -3.84182E+03  8.90084E+03 -3.71794E+03  4.53515E+03  4.38786E+03 -6.67785E+03 -1.69610E+03
 -7.38533E+03 -1.00799E+04 -4.10744E+02 -1.74766E+04  7.19547E+03 -1.61429E+04  1.72098E+04 -1.14195E+04
  2.00342E+04  3.99945E+03  1.84244E+04  1.70636E+04  5.27852E+03  2.10537E+04 -7.03282E+03  1.63961E+04
 -1.19367E+04  9.25780E+03 -6.88026E+03 -4.07060E+03  4.29120E+02 -8.84094E+03  9.68434E+03 -8.23437E+02
  7.80897E+03  3.42769E+03  5.63851E+02  1.16350E+04 -5.32662E+03  9.40690E+03 -1.63994E+04 -1.31757E+03
 -6.17367E+03 -1.52638E+03 -1.27470E+03 -1.41880E+04  8.92252E+03 -5.79161E+03  1.53913E+04 -1.73161E+03
  3.95895E+03  1.16270E+04 -5.28383E+03  1.70162E+04 -1.05572E+04  8.29263E+03 -1.67477E+04 -4.06682E+03
 -2.95167E+03 -1.35399E+04 -5.07165E+02 -1.72345E+04  1.02148E+04 -2.00825E+04  1.70985E+04  6.04702E+03
  1.60335E+04  1.32209E+04 -3.30421E+03  1.73644E+04 -8.94109E+03  9.45467E+03 -1.05930E+04 -5.21766E+03
 -1.47636E+04 -9.74274E+03 -3.19421E+03 -1.03853E+04  5.50815E+03 -1.17803E+04  9.55721E+03 -5.35200E+03
  2.41794E+02  7.31307E+03 -3.49042E+03 -1.65877E+03 -2.92119E+03 -3.90915E+03  3.44336E+03 -8.67103E+03
  1.32414E+04 -6.07990E+03  1.53304E+04  1.89408E+03  1.30327E+04  1.47925E+04  6.80218E+03  1.70767E+04
 -1.94112E+03  2.69735E+04 -2.25801E+04  1.55805E+04 -2.11262E+04  6.56466E+03 -2.01699E+04 -1.12417E+04
 -6.87386E+03 -1.91753E+04 -4.73565E+03 -1.01223E+04  3.04595E+03 -7.78382E+03  6.39714E+03 -2.52633E+03
 -3.57517E+03 -7.79226E+03  3.99858E+03 -4.67439E+03  5.70391E+03 -5.04168E+03  6.49313E+03 -3.23282E+03
  1.14020E+04  5.10866E+03  4.03692E+03  1.21166E+04  4.87853E+03  1.15373E+04 -1.25830E+04  4.77271E+03
 -1.13538E+04 -1.67546E+03 -5.35455E+03 -4.05452E+03  1.28875E+03 -1.30890E+04  5.61614E+03 -1.71480E+04
  1.62861E+04 -1.09337E+04  2.40616E+04 -4.46161E+03  9.72740E+03  2.06707E+04  4.41760E+02  1.65705E+04
 -6.10453E+03  1.74956E+04 -1.21125E+04  6.50195E+03 -5.04228E+03 -4.08232E+02 -8.65732E+02 -5.23180E+03
  3.32899E+03  5.24558E+01 -8.02967E+02  5.11251E+03 -1.00311E+04  7.24730E+03 -1.13818E+04 -6.63307E+03
 -4.21759E+03 -1.30939E+04  4.87644E+03 -1.06038E+04  7.58857E+03 -1.36889E+04  1.37179E+04 -4.02368E+03
  1.78235E+04  3.26504E+03  3.96023E+03  1.71295E+04 -6.36741E+03  1.27526E+04 -9.14449E+03  5.95503E+03
 -1.14659E+04 -1.08598E+03 -2.40745E+03 -6.45229E+03  4.44061E+03 -1.27108E+04  2.31310E+03 -8.98597E+03
  1.03103E+04 -2.06654E+03  8.41254E+03  1.58250E+03  3.31846E+03  6.51744E+03 -7.34801E+03 -1.32922E+03
  4.75600E+03  5.01137E+03  3.15986E+03  2.16588E+03  4.40252E+03  5.49834E+03  5.29744E+03  6.12298E+03
  2.60607E+03  9.95962E+03 -9.53495E+03  4.77633E+03 -1.38168E+04  3.91985E+03 -1.89178E+04 -3.15617E+03
 -7.20670E+03 -1.18372E+04 -4.09693E+03 -2.04362E+04  1.05239E+04 -9.31188E+03  4.38871E+03  2.62002E+02
  1.08191E+04  9.13638E+02  3.10646E+03  1.16202E+04 -6.66203E+03  6.14122E+03 -1.09055E+04 -4.76346E+03
 -5.68924E+03 -3.59387E+03  3.63500E+03 -7.47565E+03  6.33224E+03 -1.06592E+02 -3.91000E+03  3.63696E+03
  6.81195E+03  3.56858E+02  2.72856E+03  6.14844E+02 -6.03655E+03 -1.13420E+03 -1.56983E+03 -1.97528E+03
  7.24884E+03 -1.81911E+03  1.00318E+04  3.72779E+03  4.84187E+03  9.83950E+03 -2.54872E+02  7.34387E+03
 -8.47668E+03  5.07623E+03 -1.33312E+04 -1.83325E+03 -7.08268E+03 -1.83970E+03 -4.51878E+03 -5.88026E+03
 -3.13506E+03 -2.01833E+02  4.81154E+03  1.30606E+03  8.35915E+03  4.71172E+03 -3.59176E+03  2.16230E+03
 -4.21644E+02  5.22069E+03 -7.37384E+03 -3.69158E+03 -3.20014E+03 -8.39243E+03  2.47129E+03 -9.32192E+03
 -1.00501E+03 -9.45377E+02  3.43211E+03 -2.35783E+02  6.07435E+03  2.12339E+03  8.75781E+03  4.47442E+03
  1.02711E+02 -9.66332E+02 -9.48679E+02  2.37986E+03 -5.11795E+02 -5.94222E+03  5.11979E+03 -3.29101E+03
  9.11960E+03  4.08541E+03  1.08870E+04  7.91353E+03  9.88542E+03  6.87402E+03 -2.09436E+03  6.44700E+03
 -1.08295E+04  3.41165E+03 -6.44007E+03 -5.27995E+02 -8.56904E+03 -7.00991E+03  1.37411E+03 -1.99785E+03
  3.35999E+03 -9.16591E+03  3.05394E+03  4.58001E+03 -4.46469E+03  3.13175E+03  9.63039E+02  4.26987E+03
 -3.23598E+03  3.21013E+03 -1.68131E+03  4.20555E+03  2.25558E+02  3.52716E+03 -3.25396E+03  1.56835E+02
 -5.29493E+03  3.83482E+00 -1.00807E+04  6.38758E+03 -7.05753E+03  5.06286E+02 -1.05727E+04 -7.23083E+03
 -2.85386E+03 -1.05983E+04 -2.12364E+03 -1.74706E+04  6.43605E+03 -1.30226E+04  1.65222E+04 -1.99960E+03
  5.89208E+03  5.12195E+03  8.17769E+03  7.44814E+03 -5.93679E+03  1.35377E+04 -1.49451E+03  4.65082E+03
 -5.26035E+03  1.46332E+03 -6.41649E+02 -2.73722E+03 -9.16617E+02 -1.18222E+03  1.92830E+03  8.05100E+02
  7.97284E+01 -6.22680E+02 -7.94448E+02 -3.30006E+03  3.04557E+02  4.14218E+02  2.47140E+03 -1.51019E+03
  3.12840E+03 -3.23666E+03  3.76732E+03  5.93226E+03  7.63799E+03  9.03104E+03  4.62921E+02  8.42734E+03
 -2.75388E+03  1.11454E+04 -4.96498E+03  6.45462E+03 -1.23477E+04 -3.95865E+03 -6.21428E+03 -1.21009E+04
  1.84268E+01 -6.41319E+03  7.48523E+03 -1.12974E+04  4.55976E+03 -3.79923E+03  1.96120E+03 -1.93611E+03
  9.81298E+02  1.71153E+03 -7.08852E+03 -5.41898E+03 -3.93705E+03  4.20343E+03 -5.54699E+03  1.70581E+03
  8.18254E+02 -3.18317E+03  8.13683E+03  2.00791E+03  6.38785E+03  6.27033E+03  8.55963E+02  4.02690E+03
 -5.03265E+03  3.71102E+03 -6.97904E+03  2.03872E+03 -6.31088E+03  2.92481E+03  1.04796E+03 -8.09172E+03
  4.38284E+03 -2.49737E+03  6.16817E+03 -6.03462E+02  1.17054E+04  3.85349E+02  4.21684E+03  1.12092E+04
  1.31203E+03  1.83775E+03  2.07034E+03  7.30103E+03 -6.11377E+03  2.96749E+03  2.10740E+03 -1.53130E+03
 -3.32330E+03  4.46995E+02 -2.88112E+03  1.00490E+03  4.14787E+03  1.46244E+03 -6.93971E+03 -2.59917E+03
 -2.70056E+03  1.85614E+03 -1.42683E+03 -2.19519E+03 -1.56482E+02 -7.36070E+03  8.42030E+03 -1.99072E+03
  7.03065E+03 -7.80180E+02  6.92304E+03  1.09444E+04 -1.30789E+04  1.29538E+04 -1.78811E+03 -1.13865E+03
