 $NMID ID='MM_0lb_SNR50_17hz_g55_35.RAW', FMTDAT='(8E13.5)'
 TRAMP=1., VOLUME=1. $END
  3.08997E+05  2.53642E+03  3.40163E+05  2.48030E+05  8.18473E+04  3.37432E+05 -1.31339E+05  2.48052E+05
 -1.89839E+05  8.27232E+04 -1.10709E+05 -2.89339E+04  4.95648E+03 -5.17313E+04  5.29424E+04  6.80178E+02
  3.32082E+04  5.39714E+04 -1.47191E+04  7.56294E+04 -6.09892E+04  5.90751E+04 -8.45151E+04  3.62072E+04
 -8.47927E+04 -1.00513E+04 -5.63950E+04 -5.41396E+04 -1.73869E+04 -6.80287E+04  2.28962E+04 -4.42226E+04
  4.25002E+04  4.51010E+03  1.85369E+04  4.76780E+04 -3.57103E+04  4.73526E+04 -6.70198E+04 -3.41725E+03
 -5.25690E+04 -5.46981E+04 -5.01830E+03 -7.28444E+04  3.48193E+04 -5.46962E+04  3.84114E+04 -1.55246E+04
  4.36882E+04  1.26009E+04  2.80405E+04  2.72585E+04  1.29652E+04  2.55466E+04 -4.40627E+03  2.22812E+04
 -1.74310E+04  1.66684E+04 -2.04334E+04 -8.86193E+03  5.31991E+03 -8.23852E+03  2.27482E+04  7.72641E+03
  2.02312E+03  3.79645E+04 -3.10828E+04  3.58078E+04 -6.64139E+04  3.37602E+02 -5.71403E+04 -3.77497E+04
 -1.33856E+04 -6.30208E+04  3.77579E+04 -4.65507E+04  6.10911E+04 -1.81753E+03  3.60661E+04  3.59969E+04
 -5.97734E+03  3.48490E+04 -2.99359E+04  1.32812E+04 -2.98976E+04 -8.13902E+03 -2.04311E+04 -1.03237E+04
 -1.16509E+04 -1.16880E+04 -1.32085E+03 -1.91447E+04  7.56359E+03 -2.44471E+04  1.56087E+04 -1.74754E+04
  9.51212E+03  4.69671E+03 -2.77610E+03  1.44250E+04 -2.50929E+04 -8.55587E+03 -1.38867E+04 -2.69630E+04
  2.16771E+04 -3.96137E+04  4.74799E+04 -1.90294E+04  4.20497E+04  1.87876E+04  1.32183E+04  4.27191E+04
 -1.56740E+04  2.91536E+04 -2.32511E+04 -9.55258E+02 -1.08468E+04 -2.80892E+04  2.09958E+04 -3.45120E+04
  4.07041E+04 -1.21269E+04  3.25856E+04  1.88631E+04  1.83265E+04  4.27497E+04 -4.40566E+03  4.85024E+04
 -2.85553E+04  2.95402E+04 -3.81598E+04  6.76935E+03 -4.09362E+04 -1.66276E+04 -2.39313E+04 -3.57562E+04
  3.87179E+03 -3.19793E+04  2.85614E+04 -1.17293E+04  2.66698E+04  1.20481E+04  8.09088E+03  1.83371E+04
 -9.21786E+03  1.14256E+04 -8.00631E+03 -1.06867E+04  4.54218E+03 -1.32335E+04  2.01189E+04  6.64944E+03
  1.12518E+04  1.72569E+04 -2.40082E+03  2.34000E+04 -2.40345E+04  1.19664E+04 -2.95460E+04 -3.92648E+03
 -1.60938E+04 -1.70679E+04 -7.40561E+03 -2.01191E+04  6.43495E+03 -1.52877E+04  1.37178E+04 -1.57897E+04
  2.37706E+04 -1.26327E+04  3.02987E+04  1.92640E+03  1.80647E+04  1.74201E+04  2.95820E+03  3.55778E+04
 -1.74049E+04  3.13347E+04 -2.97743E+04  8.04807E+03 -1.80727E+04 -1.48112E+04 -1.81082E+03 -8.91621E+03
 -1.10934E+03 -9.63752E+02 -7.42099E+03  4.40740E+03 -1.27598E+04  3.06582E+03 -1.67627E+04 -1.08994E+04
 -9.69529E+03 -1.69001E+04  4.05280E+03 -2.05597E+04  1.35569E+04 -1.94733E+04  1.55565E+04 -9.28649E+02
  6.98317E+03  1.42461E+04 -1.98435E+03  1.52536E+04 -9.98632E+03  1.06172E+04 -1.62051E+04  4.72758E+02
 -1.63244E+04 -1.68622E+04 -3.66720E+02 -1.97989E+04  7.33440E+03 -2.19540E+04  1.81588E+04 -9.99592E+03
  1.82195E+04  5.35496E+03  1.08744E+04  8.21100E+03  2.92990E+03 -1.74454E+03  7.33453E+03 -1.35109E+02
  1.94501E+04  1.03338E+04  1.66758E+04  1.27919E+04  6.78036E+03  2.72742E+04 -1.17405E+03  2.95682E+04
 -1.90984E+04  2.72001E+04 -2.64173E+04  7.12131E+03 -2.87276E+04  9.18953E+02 -2.43695E+04 -1.55424E+04
 -1.24038E+04 -2.47680E+04  9.91453E+03 -2.03802E+04  2.27613E+04 -5.12157E+03  1.93124E+04 -2.18688E+03
  7.25651E+03  1.15017E+04 -1.20946E+04  1.16131E+04 -1.66057E+04 -3.38475E+02 -1.19421E+04 -7.58971E+03
 -2.44754E+03 -1.69715E+04  7.96340E+03 -1.28167E+04  8.48222E+03  2.34341E+03  4.44184E+03  7.65123E+03
 -1.16060E+04  7.08928E+02 -9.24044E+03 -4.58533E+03  2.20578E+03 -1.74328E+04  1.15617E+04 -1.08020E+04
  1.44454E+04 -5.87990E+03  1.88148E+04  2.23306E+03  8.45713E+03  1.08758E+04  3.61027E+03  1.72808E+04
  2.19608E+02  1.41809E+04 -1.08645E+04  1.05773E+04 -1.37384E+04  5.05456E+03 -1.27133E+04 -6.68848E+03
 -7.68848E+03 -2.70708E+03 -3.86814E+03 -1.83881E+02  1.74937E+03 -4.49818E+02 -4.05392E+02  2.70141E+03
 -1.30404E+04  5.01922E+03 -7.19816E+03 -7.04562E+03 -7.21390E+03 -1.13933E+04  9.90122E+03 -1.32944E+04
  9.27094E+03 -9.02805E+03  5.12067E+03  4.61058E+03  5.14030E+02  4.64652E+03 -6.35133E+03 -1.41548E+03
 -3.17705E+03 -2.66607E+03 -9.88245E+02 -1.04177E+04  6.01239E+03 -4.59188E+03  1.03276E+04 -6.36870E+03
  1.72277E+04  1.52421E+03  1.03306E+04  8.51266E+03  3.67104E+02  1.26753E+04 -5.69207E+03  7.75844E+03
 -3.76867E+03  3.60622E+03 -7.10686E+03 -2.37360E+03  5.18156E+03 -6.88238E+03  7.20759E+03 -2.18940E+03
  6.69722E+03  1.68572E+03  1.53669E+03  5.84432E+03 -5.01284E+03  7.16136E+03 -1.33797E+04 -6.94676E+02
 -7.60039E+03 -5.52777E+03  2.08157E+01 -6.69186E+03  4.75946E+03 -1.73522E+03  3.61028E+03  1.19226E+03
  3.59561E+03  2.65838E+03 -2.70526E+03  6.93305E+03 -5.78912E+03  7.08428E+02 -5.02998E+03 -6.20818E+03
 -6.75301E+02 -4.20646E+03  1.28500E+03 -1.12607E+04  3.25069E+03 -5.06344E+03  6.33007E+03  1.76417E+01
  2.98063E+03  3.49263E+03 -1.53625E+03  4.39773E+03 -1.70585E+03  5.21127E+03 -6.02321E+03  1.85835E+03
 -5.72896E+03 -8.35394E+03 -5.09503E+03 -3.06784E+03  2.61306E+03 -6.10637E+03  4.79174E+03 -3.49379E+03
 -8.79455E+02 -1.47623E+03 -4.44831E+02 -3.46114E+02 -3.08249E+03  1.54222E+03  2.82986E+03 -6.09658E+03
  3.77450E+03 -2.63877E+03  4.00365E+03  2.84992E+03  1.06741E+04  7.31339E+03  4.44430E+03  7.10607E+03
 -1.77286E+03  1.29802E+04 -8.45432E+03  8.73472E+03 -1.06418E+04  2.35776E+03 -6.97587E+03 -8.03662E+03
 -3.02759E+03 -1.06832E+04  1.53205E+03 -6.94763E+03  2.74909E+03 -1.64593E+03  1.11366E+02 -7.35690E+03
  1.86909E+03 -4.18764E+03  3.69442E+03 -2.75529E+03  4.23808E+03 -7.08281E+02  2.92163E+03  1.13136E+03
  1.00880E+04  2.85132E+03  4.39984E+03  2.81511E+03  1.57880E+03  7.15096E+03 -9.80685E+03  7.74714E+03
 -6.64969E+03 -3.62249E+03 -7.50765E+02 -5.96777E+03 -1.34035E+03 -5.80187E+03  7.53908E+03 -7.50284E+03
  8.41256E+03 -8.82203E+03  4.95494E+03  3.44827E+03  3.65107E+03  7.13717E+03  1.11364E+03  1.06519E+04
 -2.19465E+03  4.76209E+03 -3.83806E+03 -8.35208E+02 -4.11798E+03 -1.69209E+03 -2.20699E+03 -2.75033E+03
  1.10074E+03  2.58270E+03 -5.14567E+03  5.26588E+03 -4.87802E+03  2.32033E+03 -4.32750E+03  8.36213E+01
 -2.05265E+03 -4.55653E+03  6.18648E+02 -9.92550E+03  4.74063E+03 -5.23753E+03 -2.72597E+03 -2.57455E+03
  4.17349E+03  2.00076E+03  3.38045E+03  1.55691E+03 -2.58029E+03  2.52955E+03  2.93606E+03  5.03009E+03
 -6.06976E+03 -6.24655E+03 -3.67819E+03 -1.81445E+02  4.82392E+02 -1.79679E+03  3.96124E+03 -1.11594E+03
  5.11025E+03 -1.58164E+02  1.35070E+03  1.21237E+03  1.73018E+03  2.30070E+03  6.30884E+02  2.06386E+03
  9.46104E+02  1.38011E+03  5.97761E+02  1.48509E+03  9.25142E+02  4.73013E+03  2.98617E+03  7.68876E+03
 -5.64865E+03  3.81375E+03 -3.96999E+03  2.09612E+03 -4.02512E+03  6.46901E+02 -3.15369E+03 -1.15751E+03
 -3.17774E+03 -3.35147E+03  2.62548E+02 -6.20974E+03  1.97882E+03 -2.66489E+03  3.22322E+03  1.36483E+03
  1.12114E+03  2.75245E+03  9.46464E+02  7.95016E+03  1.95635E+02 -4.30249E+02 -7.52606E+02 -1.16601E+03
 -2.15263E+03  2.66469E+02  4.07639E+03 -3.16127E+02  1.12712E+03 -6.79692E+02  7.92090E+02 -6.92186E+02
 -1.02139E+03  5.52340E+03  3.98107E+02  5.00736E+03 -5.06762E+03 -1.25959E+03  5.47667E+03  1.67316E+03
  1.87914E+03  2.09664E+03  7.60832E+02 -3.64282E+03  2.87780E+03  2.97720E+03 -6.45932E+02  8.91999E+02
  8.60938E+01 -4.95620E+03 -1.56947E+03  1.62901E+03 -1.47377E+01  2.47275E+03  1.29427E+03 -2.84302E+03
  1.96555E+03 -3.93587E+03  2.41546E+03 -2.32579E+03 -2.86224E+02  1.41614E+03  1.04226E+02  1.73548E+03
 -4.50793E+03 -1.44636E+03  2.43283E+02 -3.77128E+03  3.84633E+02 -2.08450E+03 -1.74943E+03 -3.03068E+03
 -1.34183E+03 -2.25340E+03 -1.81616E+03  1.64716E+03  6.71208E+02 -3.02760E+03 -1.25273E+03 -2.74818E+03
  5.25518E+03 -2.55106E+03 -3.14298E+03 -2.47926E+02 -1.06921E+03  2.57514E+03  3.15611E+03 -1.64241E+03
  1.14850E+03  3.34723E+03  1.00604E+03 -7.16006E+02  3.40307E+03 -8.42341E+02  9.19919E+02  3.16271E+03
 -4.17415E+02 -1.42967E+03 -8.43063E+01  2.29292E+02 -9.79458E+02 -2.95454E+03 -1.55792E+03 -2.56015E+03
  1.18011E+03 -7.56469E+03  2.77982E+03  2.62827E+03  3.00991E+03  1.57126E+03  4.89569E+03 -8.50209E+02
 -3.99933E+03  2.36268E+03  1.82887E+03 -9.82652E+01 -2.38177E+03  5.60651E+02 -5.03832E+02  6.84924E+02
  1.44470E+03  5.23289E+03 -7.88255E+02 -3.62250E+03 -2.14061E+03  1.62159E+03 -2.06644E+03  2.16149E+02
 -7.10053E+03 -1.90939E+03 -1.72272E+03 -8.05309E+03  2.58190E+02 -2.02373E+03  4.71881E+03 -5.07707E+03
  3.56649E+03 -1.49723E+03  2.06681E+03  3.26510E+02 -1.38845E+03  6.39476E+03 -2.73079E+03 -8.43648E+02
 -2.67661E+03  1.22069E+03  1.33418E+03  2.99854E+03  4.55873E+02 -1.42809E+03 -5.26184E+03  2.92251E+03
 -4.63969E+03 -4.52252E+02 -2.34221E+03  1.87461E+03  4.62742E+03 -3.37089E+03 -5.26094E+03 -1.83030E+03
  1.47203E+03 -2.83347E+03  3.78525E+03  1.57568E+03  1.25190E+03 -1.42590E+03  1.63024E+03  3.23954E+03
  2.54863E+03  5.39861E+03 -2.44626E+02 -1.07822E+03 -1.47920E+03 -4.44863E+02  3.60644E+03 -1.63071E+03
 -1.28427E+03 -9.84484E+02  1.11237E+03 -2.39297E+03 -4.82357E+02  1.06060E+01  1.74085E+03 -1.00963E+03
  2.90444E+03  2.13753E+03 -2.00333E+03 -1.61875E+03 -2.29203E+03 -3.72698E+03 -8.11487E+02  1.65801E+03
  5.09987E+03 -1.68893E+03  1.71043E+03  4.77580E+03 -3.97559E+03  6.25500E+02 -2.42304E+02 -4.21509E+03
  4.88681E+02 -2.72683E+03 -2.11169E+03  3.30503E+03 -7.18156E+02 -2.04499E+02  4.20972E+02 -2.82660E+03
 -7.61667E+02 -2.43248E+03  4.89411E+02 -6.41539E+03  8.52835E+02 -5.67202E+02 -2.35757E+03  3.19685E+03
 -7.93770E+02  4.70678E+03  4.05624E+03  2.43669E+03  2.80729E+03  8.00838E+02  4.96683E+02 -2.28036E+03
  2.57002E+03  1.80389E+03 -5.67867E+03 -1.46359E+03  4.86959E+03 -5.97530E+03 -8.87854E+02  3.57891E+03
 -6.96281E+03 -1.03963E+03 -2.46175E+03  8.62839E+02  3.02607E+03 -1.96952E+03  2.47848E+03 -2.14111E+03
  6.18321E+03  1.55240E+03  3.28607E+03 -5.80282E+02 -4.58088E+03 -6.51634E+02  2.58314E+02 -2.16979E+03
