 $NMID ID='MM_0lb_SNR50_15hz_g45_20.RAW', FMTDAT='(8E13.5)'
 TRAMP=1., VOLUME=1. $END
  3.12103E+05 -2.00445E+03  3.36753E+05  2.47113E+05  8.42142E+04  3.40924E+05 -1.29303E+05  2.47112E+05
 -1.89382E+05  8.35465E+04 -1.13321E+05 -3.20014E+04 -1.91295E+02 -5.47068E+04  5.84489E+04 -4.90808E+02
  3.33295E+04  5.54245E+04 -1.54253E+04  7.47070E+04 -6.28015E+04  5.99821E+04 -8.41180E+04  3.43451E+04
 -8.66409E+04 -1.59119E+04 -5.99981E+04 -5.82803E+04 -1.74187E+04 -6.89396E+04  2.37845E+04 -4.63939E+04
  3.69879E+04  6.04125E+03  1.99492E+04  5.03353E+04 -3.13484E+04  4.59921E+04 -6.70223E+04  1.25075E+03
 -5.53596E+04 -5.65276E+04 -6.35059E+03 -7.75497E+04  3.44971E+04 -5.37592E+04  4.93322E+04 -1.92960E+04
  4.48708E+04  1.32632E+04  2.95692E+04  2.90885E+04  1.56484E+04  2.93553E+04 -7.26299E+03  2.79050E+04
 -2.37739E+04  9.11680E+03 -2.31654E+04 -3.64389E+03  7.89670E+03 -6.33153E+03  2.49482E+04  1.07971E+04
  8.29650E+03  3.78683E+04 -3.62825E+04  3.77525E+04 -6.34839E+04  8.28644E+02 -5.93200E+04 -4.48174E+04
 -1.34339E+04 -6.06793E+04  3.87169E+04 -4.51790E+04  6.06479E+04 -1.50958E+03  3.62231E+04  3.27199E+04
 -4.00717E+03  3.62794E+04 -2.71258E+04  1.62030E+04 -2.92004E+04 -3.82484E+03 -1.96513E+04 -1.08588E+04
 -5.01964E+03 -1.46673E+04 -1.80114E+03 -2.19205E+04  1.16964E+04 -2.31896E+04  2.04515E+04 -1.28468E+04
  1.17854E+04  1.46446E+03 -8.47338E+03  1.34063E+04 -2.12165E+04 -4.24860E+03 -5.80835E+03 -3.58205E+04
  2.93297E+04 -4.30931E+04  4.72529E+04 -2.05187E+04  4.59513E+04  1.97150E+04  1.39190E+04  4.65414E+04
 -1.58432E+04  3.34870E+04 -2.68079E+04  3.12175E+03 -4.50085E+03 -2.50651E+04  2.47095E+04 -3.18677E+04
  3.97323E+04 -1.25690E+04  3.51302E+04  2.32111E+04  1.86897E+04  4.51323E+04 -9.79824E+03  4.29789E+04
 -3.13100E+04  2.94364E+04 -3.96070E+04  7.26476E+03 -4.14145E+04 -1.13115E+04 -2.04651E+04 -3.55525E+04
  1.03639E+04 -4.08657E+04  2.92777E+04 -1.21799E+04  2.77874E+04  1.12722E+04  9.72454E+02  2.37028E+04
 -1.14927E+04  5.40659E+03 -9.46505E+03 -1.07415E+04  8.46810E+03 -8.12089E+03  1.80765E+04  1.00088E+04
  1.09365E+04  2.29490E+04 -2.74784E+03  2.14673E+04 -2.11332E+04  9.50208E+03 -2.55375E+04 -6.43490E+03
 -2.20488E+04 -2.03315E+04 -1.38797E+04 -1.82652E+04  4.55521E+03 -1.69789E+04  1.42343E+04 -1.62266E+04
  2.19942E+04 -1.57250E+04  3.15022E+04  1.90320E+03  2.04874E+04  1.80162E+04 -3.02589E+02  3.61125E+04
 -1.66530E+04  2.72831E+04 -3.27577E+04  1.16042E+04 -1.62712E+04 -4.36934E+03 -5.05513E+03 -1.66578E+04
  1.89470E+03 -6.97519E+03 -6.74767E+02  2.48182E+03 -1.68061E+04  7.95867E+03 -1.37746E+04 -1.29854E+04
 -7.45963E+03 -1.77619E+04  4.06235E+03 -1.93761E+04  1.27166E+04 -1.69797E+04  1.54973E+04 -1.01947E+03
  1.16091E+04  1.00086E+04 -9.31871E+02  1.89048E+04 -1.08055E+04  1.13229E+04 -1.52735E+04 -7.17922E+03
 -1.42192E+04 -1.82834E+04 -2.36736E+02 -1.62336E+04  9.21492E+03 -1.91094E+04  1.74527E+04 -8.33285E+03
  1.42850E+04 -4.70833E+02  7.42579E+03  4.22981E+03  7.24795E+03 -1.78351E+03  8.01747E+03 -4.63461E+03
  1.14646E+04  9.51398E+02  1.73084E+04  1.41184E+04  7.25662E+03  2.98945E+04  6.21471E+01  2.80137E+04
 -1.52335E+04  2.36866E+04 -3.11533E+04  1.44064E+04 -3.05665E+04  4.14512E+02 -2.38042E+04 -1.37008E+04
 -8.31514E+03 -2.33927E+04  1.03604E+04 -2.51096E+04  1.84925E+04 -1.36375E+04  1.81082E+04  7.34354E+03
  6.78700E+03  1.42687E+04 -8.86874E+03  1.47582E+04 -1.85518E+04  6.36172E+03 -1.41024E+04 -9.61230E+03
 -1.74990E+03 -1.55357E+04  7.45761E+03 -1.08564E+04  1.24735E+04 -1.59183E+03  4.17760E+03  8.69887E+03
 -5.34322E+03  3.45392E+03 -3.43633E+03  1.13943E+03 -1.24210E+02 -9.11234E+03  9.91710E+03 -8.10921E+03
  2.01684E+04 -3.68687E+03  1.06382E+04  3.30186E+03  1.64662E+04  1.20965E+04  2.66399E+03  1.85976E+04
 -6.68909E+03  2.32710E+04 -8.97602E+03  9.63721E+03 -1.52459E+04 -2.82221E+03 -1.11377E+04  1.20057E+03
 -1.23116E+04 -2.41461E+03  1.99784E+03 -7.21296E+02 -2.64663E+03  4.91144E+03 -3.73291E+03  6.75085E+03
 -1.19565E+04 -2.57573E+03 -1.16298E+04 -7.73150E+03 -2.48716E+03 -1.06435E+04  1.16766E+03 -8.29187E+03
  9.48999E+03 -3.33043E+03  9.85215E+03  2.71448E+02 -4.50992E+02 -1.53622E+03 -8.33470E+03 -2.43422E+03
 -6.30475E+03 -2.36914E+03 -5.41670E+02 -6.97542E+03  6.93117E+03 -1.34711E+04  1.42059E+04  9.16656E+02
  1.12431E+04 -3.31077E+02  1.02282E+04  1.20228E+04  7.90169E+02  1.25347E+04 -1.31166E+03  1.19408E+04
 -9.07359E+03  5.33679E+03 -7.62959E+03 -7.30854E+03  6.58627E+03 -3.26082E+03  2.05469E+03  1.30600E+03
  3.94102E+03  7.04082E+03  2.27489E+03  1.12900E+04 -6.15570E+03  8.41724E+03 -7.23430E+03  3.18794E+03
 -7.37939E+03 -3.22154E+03  1.84073E+03 -7.98815E+03  3.69702E+03 -1.73668E+03  4.64082E+03 -2.30560E+02
  2.68591E+03  5.30938E+03 -4.49703E+03  5.69202E+03 -4.19905E+03  3.11128E+03 -4.03950E+03 -1.45500E+03
 -3.95103E+03 -7.53592E+03  1.56186E+03 -5.71305E+03  8.04422E+03 -5.97056E+03  8.26673E+03  1.26511E+03
  8.65024E+03  9.57063E+03 -1.15084E+03  6.17345E+03 -2.21852E+02  3.07291E+03 -1.00429E+04 -8.19448E+02
 -3.80038E+03 -1.03770E+04 -1.23729E+03 -4.27160E+03  3.15302E+03 -1.78161E+03  4.06847E+03 -1.28579E+03
  8.24937E+03 -5.76619E+02  1.04329E+03  1.22615E+03  2.97613E+03 -1.62247E+03  4.87547E+03 -1.64342E+03
  7.77373E+03  9.79813E+02  7.01568E+03  3.90770E+03  6.85844E+03  6.66750E+03  9.79054E+03  1.16826E+04
 -1.90065E+03  1.52005E+04 -9.38394E+03  1.20268E+04 -1.17952E+04  2.13494E+03 -1.25365E+04 -7.74753E+03
 -5.93637E+03 -9.46271E+03  1.95902E+03 -6.01652E+03  5.35147E+03 -2.17767E+03 -1.85505E+02  1.53878E+03
  3.08728E+03 -1.25102E+03  3.30488E+03 -9.23642E+02  9.58719E+03  1.73274E+03  5.82183E+03  3.71810E+03
  7.77838E+03 -3.50426E+03  5.02041E+03  5.29192E+03 -5.00086E+03  6.50770E+03 -6.74014E+03  5.71498E+03
 -3.34532E+03 -1.64602E+03  3.19678E+03  8.55252E+02 -4.82785E+02 -8.92168E+03  8.20460E+03 -7.81078E+03
  9.98018E+03 -5.45609E+03  1.22682E+04  7.22813E+02  4.67510E+03  2.84696E+03 -4.64426E+02  6.20361E+03
 -4.00166E+03  4.86818E+03 -7.25025E+03  3.81314E+03 -6.98404E+03 -2.13786E+03 -3.09946E+03  2.22260E+03
 -2.90309E+03  2.19496E+03  2.15345E+03  3.41140E+03 -5.34945E+03 -2.14328E+02 -6.64757E+03 -3.95424E+02
  1.68374E+02 -3.47065E+03  4.88453E+03 -1.08267E+04  7.08645E+03 -7.89362E+03  9.33537E+03 -5.39395E+03
  6.72543E+03  6.20001E+03  6.63910E+03  1.54977E+03  4.14236E+02  9.21187E+03 -5.08299E+03  3.32695E+03
 -6.76853E+03  3.88443E+03 -3.59418E+03 -5.41725E+03 -5.59943E+03 -4.59658E+03  3.78211E+03 -1.07050E+04
  6.13565E+03  1.64935E+03  1.87444E+03  2.39568E+03  2.85238E+03  1.83017E+03 -1.61002E+03 -2.43177E+03
  5.36674E+03 -1.48185E+03  7.22212E+03  1.85717E+02  5.99292E+03  3.09659E+03  3.32043E+03  3.40536E+03
  1.41462E+03  6.03653E+03 -2.72622E+03  6.83808E+03 -3.62455E+03  1.32454E+03 -5.50147E+03 -6.39643E+03
 -5.41279E+03 -1.16651E+04  3.06023E+02 -5.40342E+03  3.31736E+03 -6.80359E+03 -1.09036E+02 -1.74997E+03
  6.96361E+03  4.37054E+03  3.09152E+03  4.91368E+03 -3.62127E+03  4.44654E+03 -3.01744E+03 -6.65275E+02
 -2.51631E+03 -5.31342E+03  5.22643E+03 -5.97084E+03  4.47268E+03 -4.50002E+03  2.08370E+03  2.22901E+03
 -3.05603E+03 -2.05654E+03  1.64988E+03  2.16255E+03  5.09032E+03  4.04536E+02  1.14383E+03 -1.80573E+03
  2.93321E+01  1.04645E+03  2.09555E+03  7.39414E+03 -1.04640E+03  6.63284E+03  1.04183E+03  4.58802E+03
 -7.48351E+03 -2.60233E+02 -1.00875E+03 -3.65427E+02 -3.37150E+03 -2.06935E+03  3.39426E+03 -4.11803E+03
 -1.68116E+03  1.78338E+03  2.78204E+03 -5.38629E+03 -3.71587E+03  1.23782E+03 -3.33277E+03  7.46958E+03
  4.48846E+03 -3.30263E+02  3.14685E+02  4.73793E+01 -6.23788E+03 -4.36680E+03  7.41637E+02 -2.76428E+03
  5.99240E+03 -2.41811E+03 -3.32771E+03 -7.59242E+02  3.05866E+03  1.48794E+03  5.25520E+00  1.99340E+03
 -1.52870E+02 -2.44703E+03 -1.57015E+03 -2.45268E+03 -4.50356E+03  1.13273E+03 -4.68444E+03 -1.62750E+02
  5.96929E+03  4.20771E+02  1.79441E+02 -1.34643E+03  9.61397E+02 -6.91973E+01  2.11671E+03  1.72426E+03
 -5.16454E+03 -3.24329E+03 -2.72265E+02  1.23301E+03 -3.24553E+01 -1.51714E+03  3.57635E+01  1.82486E+03
  5.16322E+02  6.75862E+02  6.91147E+02  6.70923E+02 -2.18739E+03  1.43366E+03 -4.38741E+02  3.39720E+03
 -3.01822E+03  3.50614E+03  1.27286E+03  1.40351E+03  2.41124E+03  8.10802E+01  3.36141E+03  3.12969E+03
 -9.60936E+02 -9.74164E+02 -1.42013E+03 -1.73600E+03  9.93048E+01  5.36299E+02 -4.67470E+03 -1.30547E+03
 -3.65860E+03 -3.23702E+03  9.91837E+02 -6.43452E+03 -1.02956E+03 -4.08253E+03  4.45134E+03  2.07790E+03
  6.86535E+03  1.61435E+03 -1.33614E+03  2.60258E+03 -3.98000E+03  3.88997E+03 -6.46194E+03 -6.27348E+03
 -3.01293E+03  2.41741E+03 -1.67493E+03 -2.81557E+03 -4.32016E+03 -6.26627E+03 -9.79369E+02  3.62321E+02
  1.37131E+03 -3.39475E+03 -1.31135E+03  2.67681E+03  6.09076E+03  2.24861E+03  2.53160E+01 -3.40386E+03
  4.64495E+03 -5.39418E+03  2.20251E+03  1.33772E+03  7.05401E+03  1.39926E+03  3.07687E+02  6.89192E+03
 -1.72833E+03  8.61430E+03 -3.81395E+03  1.32591E+03 -3.60592E+03  2.70793E+02 -5.23605E+03 -1.57223E+03
 -3.45723E+03 -9.08370E+02  5.04554E+03 -4.50808E+03  3.71821E+03 -5.80613E+02  2.98237E+03 -4.40419E+03
 -8.09968E+02 -3.47164E+03 -2.22579E+03  7.97962E+02  5.21558E+02 -4.15777E+02 -4.27486E+03 -1.01688E+03
  2.10430E+03  1.94064E+03 -2.72578E+02  3.32060E+03  4.04624E+02  1.29743E+03  1.16724E+03  3.30123E+03
  5.10005E+03 -1.25494E+03 -4.36696E+03 -7.15930E+02  2.60366E+03  8.04184E+02  5.08588E+03 -8.78283E+03
  9.85384E+02  2.15706E+03  1.99118E+03  1.08366E+03  4.01781E+03 -3.01884E+03  1.46407E+03 -4.07814E+01
  1.60773E+03  2.69017E+03  4.48948E+02  9.02069E+02 -2.29228E+02  2.59600E+03  9.45551E+02  6.88119E+02
 -1.38045E+03  3.84825E+03  4.10789E+01  2.49949E+03 -1.82492E+03 -3.12588E+03 -1.51458E+02  3.48193E+03
 -3.99504E+03 -1.35514E+03 -1.61139E+03 -2.44458E+03  4.29724E+03 -3.87464E+03  4.71319E+03 -2.77269E+03
  8.28618E+02  9.79301E+02  1.89726E+03  2.89662E+03  3.12066E+03 -1.44073E+01 -3.60316E+03  2.91618E+03
