 $NMID ID='MM_0lb_SNR50_19hz_g60_97.RAW', FMTDAT='(8E13.5)'
 TRAMP=1., VOLUME=1. $END
  3.07607E+05 -1.43548E+02  3.38971E+05  2.52495E+05  8.12533E+04  3.36302E+05 -1.33741E+05  2.49669E+05
 -1.86478E+05  8.69016E+04 -1.13513E+05 -2.81520E+04  1.71562E+03 -5.33406E+04  5.12207E+04  3.12866E+03
  3.53230E+04  5.63347E+04 -1.47175E+04  7.47971E+04 -5.85023E+04  6.30732E+04 -8.89640E+04  3.44884E+04
 -7.97887E+04 -7.55052E+03 -5.86705E+04 -5.16474E+04 -1.12150E+04 -6.95464E+04  2.96841E+04 -4.31620E+04
  4.07722E+04  6.58709E+03  1.23756E+04  4.82892E+04 -3.73322E+04  4.46300E+04 -6.24999E+04  3.83864E+03
 -5.12774E+04 -5.49866E+04 -8.01200E+03 -7.82639E+04  3.58075E+04 -5.32097E+04  4.80604E+04 -1.95942E+04
  3.92135E+04  1.08170E+04  3.35580E+04  2.20399E+04  1.80500E+04  2.93884E+04 -8.78185E+03  2.60729E+04
 -1.86617E+04  1.28696E+04 -2.11376E+04 -8.91086E+03  3.96942E+03 -1.15472E+04  2.27877E+04  1.38966E+04
  9.08199E+03  3.37911E+04 -3.04144E+04  3.38804E+04 -6.26656E+04  4.05417E+03 -5.82604E+04 -3.97701E+04
 -1.27979E+04 -6.12131E+04  4.13995E+04 -4.34078E+04  5.56145E+04 -5.61216E+03  3.18799E+04  3.28496E+04
 -6.54068E+03  3.44056E+04 -3.09425E+04  1.39104E+04 -3.18302E+04 -1.40387E+03 -1.56766E+04 -1.47088E+04
 -9.48247E+03 -8.11777E+03 -5.56357E+03 -1.68214E+04  5.08876E+03 -2.35686E+04  1.58993E+04 -8.84173E+03
  1.29523E+04  6.15951E+03 -3.99697E+03  1.61177E+04 -2.01928E+04 -4.36110E+03 -3.71784E+03 -3.11850E+04
  2.11858E+04 -4.35548E+04  4.39097E+04 -1.85357E+04  4.31305E+04  2.12251E+04  1.29404E+04  4.08321E+04
 -1.63365E+04  3.23984E+04 -2.39385E+04  5.73694E+01 -1.01353E+04 -3.05841E+04  1.87763E+04 -3.17588E+04
  3.68109E+04 -1.03541E+04  3.41901E+04  2.23250E+04  1.42728E+04  4.98925E+04 -1.20379E+04  4.82698E+04
 -2.57814E+04  3.21512E+04 -3.99504E+04  1.37546E+04 -3.77808E+04 -1.27472E+04 -2.01972E+04 -3.60151E+04
  7.69706E+03 -4.01723E+04  3.05508E+04 -1.76257E+04  2.91056E+04  1.15531E+04  6.99791E+03  1.85842E+04
 -1.45024E+04  7.88523E+03 -8.83199E+03 -6.21725E+03  5.86655E+03 -9.18470E+03  1.54206E+04  3.88517E+03
  1.41397E+04  2.16208E+04 -5.58808E+03  2.63184E+04 -1.92619E+04  9.53680E+03 -2.41317E+04 -8.85479E+03
 -1.66583E+04 -1.66485E+04 -5.26542E+03 -1.52109E+04  6.84718E+03 -1.35820E+04  1.28212E+04 -1.44167E+04
  2.26430E+04 -8.32031E+03  3.30841E+04  3.84301E+03  1.79049E+04  1.78964E+04  6.74612E+03  2.84160E+04
 -1.67485E+04  2.46467E+04 -2.63169E+04  9.54179E+03 -1.74595E+04 -1.50983E+04 -6.54946E+03 -1.49570E+04
 -4.54162E+02 -7.33313E+03 -5.25135E+03  6.51980E+03 -1.04016E+04  2.97021E+03 -1.49729E+04 -2.07449E+03
 -6.28247E+03 -1.47934E+04  5.52488E+03 -2.10502E+04  1.75538E+04 -1.32529E+04  1.46610E+04 -2.22392E+03
  8.66215E+03  1.11539E+04 -2.78167E+03  1.67463E+04 -1.15173E+04  1.29099E+04 -1.21561E+04 -1.85993E+03
 -1.15285E+04 -1.07392E+04  2.30704E+03 -2.26489E+04  1.10858E+04 -1.28622E+04  1.56078E+04 -1.07642E+04
  1.53471E+04  4.90107E+02  8.77222E+03  9.41832E+03  8.43986E+03 -1.54550E+03  9.10442E+03  1.28920E+03
  1.62093E+04  3.71273E+03  1.59392E+04  1.26745E+04  7.15078E+03  2.85771E+04 -7.12280E+03  3.19509E+04
 -1.38764E+04  2.31548E+04 -2.60379E+04  1.02000E+04 -2.30651E+04  7.87397E+02 -2.39653E+04 -1.80407E+04
 -9.99511E+03 -2.45408E+04  8.30886E+03 -2.15125E+04  1.61336E+04 -1.04886E+04  1.98493E+04  6.08248E+03
  6.22614E+03  1.67214E+04 -6.74604E+03  1.31368E+04 -1.57696E+04 -1.07672E+03 -1.17733E+04 -1.21368E+04
 -1.58211E+03 -1.35680E+04  6.15573E+03 -7.18031E+03  5.62355E+03  1.34697E+03  3.61504E+03  2.84407E+03
 -1.00530E+04 -1.21608E+03 -1.77298E+03 -7.06048E+03  4.14237E+03 -9.25058E+03  7.12338E+03 -8.15440E+03
  1.52371E+04 -6.80572E+03  1.32508E+04  3.37730E+03  1.06917E+04  1.03582E+04  4.17972E+03  1.30585E+04
 -1.21366E+03  1.95941E+04 -7.80218E+03  1.41222E+04 -1.39070E+04  4.04131E+03 -6.75067E+03 -3.97884E+03
 -4.31086E+03 -8.72558E+03  3.30573E+03  1.52845E+03 -7.67712E+02  1.72600E+03 -7.26682E+02  2.93697E+03
 -6.87104E+03 -1.47064E+03 -1.22511E+04 -1.12419E+04  4.23039E+02 -1.14552E+04  2.53701E+03 -5.97203E+03
  1.04400E+04 -1.05408E+03  8.52984E+03  4.38040E+03  4.53500E+03  4.01483E+03 -6.12829E+03  4.57077E+02
  7.88543E+02 -2.40785E+03 -1.47961E+03 -2.92886E+03  4.76914E+03 -4.03183E+03  8.42853E+03  9.63625E+02
  1.41261E+04  3.04836E+02  8.19859E+03  8.88765E+03  2.49882E+03  7.46677E+03 -1.27226E+03  1.29984E+04
 -3.28720E+03  2.38392E+03 -3.60850E+03 -1.89517E+03  1.47113E+03  1.46499E+03  1.14104E+03 -4.19844E+03
  4.15963E+03  5.38536E+03 -2.34590E+03  3.03559E+03 -9.06922E+03  6.05531E+03 -9.67383E+03  3.06686E+03
 -3.14225E+03 -5.60825E+03  2.14730E+03 -7.62296E+03  1.41186E+03 -6.60912E+03  3.87983E+03  3.97777E+03
 -8.91672E+02  6.32649E+03 -6.11943E+03  4.70250E+03 -3.89542E+03 -1.49659E+03 -3.61671E+03 -1.88850E+03
 -4.32096E+03 -6.62899E+03  2.19862E+02 -1.21633E+04  4.70944E+03 -3.94883E+03  6.45851E+03  1.48985E+03
  5.74127E+03  7.16149E+03  1.57867E+03  4.42312E+03 -1.20089E+03  2.77566E+03 -3.96036E+03 -1.05511E+03
 -4.92137E+03 -2.25586E+03 -5.98190E+03 -4.94481E+03  2.80430E+03 -5.22798E+03  4.91901E+03 -5.86651E+03
  1.48409E+03  4.30442E+02 -1.47156E+03  3.13207E+03  2.95334E+03 -1.56423E+03 -2.35034E+01 -6.73544E+03
  6.93153E+03 -1.57117E+03  3.47456E+03 -5.93677E+02  4.48863E+03  6.93139E+03  6.02982E+03  5.16151E+03
  1.95359E+02  1.18327E+04 -8.04608E+03  5.36303E+03 -6.74189E+03  1.65034E+03 -8.79117E+03 -3.24890E+03
 -7.14863E+03 -4.95375E+03  3.03124E+03 -3.01232E+03  4.45819E+03 -7.11658E+03  1.57519E+03 -5.17363E+02
  4.75891E+02 -5.04628E+03  4.44171E+03 -2.06400E+03  4.84634E+03 -3.28267E+03  7.89110E+03  4.10658E+03
  7.39363E+03  6.16990E+03  2.56185E+03  2.16512E+03 -1.82584E+03  1.89490E+03 -4.50414E+03  7.11249E+03
 -3.71582E+03 -3.88239E+03 -5.75189E+02 -1.91627E+03 -1.27635E+03 -2.81080E+03  1.21713E+03 -5.62006E+03
  2.06310E+03 -4.63977E+03  7.47142E+03 -3.12562E+03  6.28281E+03  1.25907E+03  2.31595E+03  4.82932E+03
 -3.62155E+03  8.59396E+03 -4.02272E+03  6.21118E+03 -2.59906E+03  5.49843E+02  2.97828E+03  7.81940E+02
  1.57954E+03 -4.52145E+02 -1.41058E+03  3.67408E+03 -1.62895E+03  2.32634E+02 -2.00036E+03  1.50045E+03
 -2.12560E+02 -5.23055E+03  1.72913E+03 -4.81328E+03  9.84898E+03 -4.05302E+03  5.46257E+03  2.76870E+02
 -1.00371E+03  4.89454E+03 -3.52553E+02  3.86105E+03 -1.25624E+03  4.43671E+02  1.82313E+03  3.41061E+03
 -4.50035E+03 -6.68970E+02 -5.30198E+03  1.71837E+03 -1.58883E+03 -1.64935E+03  1.03079E+02 -6.76351E+03
  4.46082E+03 -1.48094E+03  4.45662E+03 -4.70035E+02 -3.85318E+02 -9.26699E+02  3.38576E+03  3.93123E+03
  4.75886E+03  5.09708E+03  1.33059E+03 -1.90944E+02 -3.62455E+02  4.01366E+03  2.47644E+03  2.27658E+03
 -5.16279E+03  9.57657E+02 -4.01384E+03  3.17698E+03 -6.24234E+03  1.11913E+03 -4.78232E+03 -5.48456E+02
 -1.28354E+03 -1.74300E+03 -8.43513E+02 -6.34857E+03 -5.88152E+03 -1.91086E+03 -1.73357E+03 -9.86130E+01
 -1.98933E+02  2.86187E+03 -1.37663E+03  1.37868E+03  5.28213E+01 -5.97030E+02 -3.16639E+02 -8.54682E+02
 -1.47183E+03 -8.90902E+02  2.07082E+03  8.39937E+02  2.99302E+03  2.09167E+03 -2.50496E+03  3.14717E+03
  2.99517E+03 -3.42777E+03 -5.27915E+02  2.96425E+03 -2.84574E+03  1.93740E+03 -2.42677E+03  2.00472E+03
  2.34889E+03 -1.93516E+03  4.32133E+03  2.82490E+03 -1.03972E+03  1.85212E+03  4.42323E+02  4.89084E+03
 -5.51253E+03  2.85567E+03 -2.50112E+03  9.92124E+02 -2.17698E+03  2.59011E+02 -1.63458E+02 -3.84757E+02
  9.31078E+02  2.18393E+03  2.61930E+03 -1.28594E+03  1.56489E+03  2.67269E+03  1.18368E+03  2.13270E+03
 -1.83860E+03  3.12317E+03 -4.18691E+03 -8.11279E+03  2.52215E+03  4.70836E+02  1.14885E+03 -7.38948E+03
 -1.30682E+02 -2.90609E+03  4.03338E+03 -5.42180E+03 -9.54914E+02  2.41087E+03  1.24863E+03 -7.30714E+02
 -3.98061E+03 -8.72973E+02 -4.54746E+03  2.24356E+03 -1.12305E+03 -1.29805E+03  2.33339E+03 -1.85911E+02
  1.05266E+03 -2.80261E+03  2.93354E+03  5.02880E+02 -6.62131E+02  8.49981E+02 -4.34591E+03  1.88538E+03
 -5.40079E+02 -1.12187E+03  1.40796E+02 -3.34871E+03  1.28864E+03 -3.92951E+03  7.80771E+02 -1.47090E+03
  3.72803E+02  2.46475E+03 -1.75735E+03 -3.76246E+03 -1.16721E+03  1.88216E+03  4.72922E+03 -1.99724E+03
 -2.55074E+03  2.94805E+03 -4.44936E+03  4.60054E+03  2.80623E+02 -2.98343E+03 -1.96612E+03  1.66352E+03
  1.05216E+03  2.55932E+02 -6.76710E+02  4.84973E+02 -8.12245E+02  1.61134E+03 -1.40168E+03  2.07800E+01
 -2.75569E+03 -5.73232E+03  4.61786E+03 -6.38282E+03  4.47241E+03  3.90226E+03  4.37420E+03  2.36923E+03
  2.87591E+03  2.45790E+03  3.82851E+03  1.36604E+03 -1.49257E+03  3.22913E+03 -2.72852E+03 -1.55670E+03
 -5.54800E+02  3.56063E+03 -2.17972E+03 -2.16874E+03 -1.59557E+03  2.33829E+02  4.38853E+03 -4.19225E+01
 -5.92168E+03 -6.88437E+03  4.99044E+02 -5.00246E+02 -3.60891E+03  4.36300E+03 -9.97882E+01  1.35062E+03
  2.24868E+03 -4.34395E+03  1.27518E+03 -2.19399E+03  4.18797E+01  2.40058E+03 -3.07845E+03  1.08115E+03
 -1.76523E+01 -1.08294E+03 -1.73988E+03  4.83877E+03 -2.03521E+03 -5.19276E+03 -1.99632E+03 -2.57278E+03
 -5.51101E+02 -7.81590E+02 -1.15860E+03 -2.96402E+03  2.17201E+03 -1.10205E+03  3.18036E+03  4.00412E+02
 -9.10338E+02 -2.93369E+03  2.41656E+03 -1.27269E+03 -1.74081E+02  3.30288E+03  9.64988E+02 -4.11501E+02
  7.44963E+02 -3.29723E+03 -2.54021E+03  4.73106E+03 -4.50241E+03 -1.99642E+03 -1.21005E+03 -2.21265E+03
 -4.58511E+02  2.55403E+03  5.50588E+02 -1.22689E+03 -7.95400E+02 -5.69943E+03  4.69335E+03 -7.56373E+02
  1.29921E+03  3.55590E+03  3.90362E+03  4.32113E+02  1.50804E+03 -1.09242E+03  1.86087E+03  2.25367E+03
  3.31894E+02  2.49474E+03  3.92620E+03  1.77448E+03 -1.20326E+03  2.21533E+03 -2.34142E+03 -8.25664E+01
 -5.07136E+02  2.91768E+02 -3.65270E+03 -1.54873E+03 -2.10311E+03 -9.54427E+02  1.90858E+03  2.20802E+03
  8.14783E+02 -1.96002E+03 -3.85056E+02  3.13017E+03 -2.29053E+03 -3.22592E+01  6.69264E+02 -2.82108E+03
 -1.09783E+03  3.39290E+03 -2.02641E+03 -2.34644E+03 -8.32942E+01 -5.47896E+03 -5.39760E+03  1.38112E+03
