 $NMID ID='MM_0lb_SNR50_19hz_g40_92.RAW', FMTDAT='(8E13.5)'
 TRAMP=1., VOLUME=1. $END
  3.08211E+05 -2.47581E+03  3.41490E+05  2.49939E+05  8.84271E+04  3.35087E+05 -1.30592E+05  2.51798E+05
 -1.88891E+05  8.21481E+04 -1.08990E+05 -3.16577E+04  2.43690E+03 -5.05140E+04  5.02084E+04  4.02099E+03
  3.74558E+04  5.12186E+04 -1.86839E+04  7.87013E+04 -5.86626E+04  6.13325E+04 -8.76829E+04  3.25203E+04
 -7.62863E+04 -1.20781E+04 -5.36320E+04 -5.03765E+04 -1.23763E+04 -6.85778E+04  2.94762E+04 -4.43022E+04
  3.86982E+04  2.65852E+03  1.39471E+04  4.96793E+04 -3.58255E+04  4.39281E+04 -6.93362E+04 -3.22658E+03
 -4.98614E+04 -5.48260E+04 -2.98909E+03 -7.03409E+04  3.68562E+04 -5.29585E+04  4.92445E+04 -1.43145E+04
  4.17499E+04  1.22643E+04  2.66642E+04  2.70219E+04  1.75889E+04  3.00990E+04 -2.57375E+03  2.37381E+04
 -1.71967E+04  1.33146E+04 -1.83308E+04 -3.73878E+03  7.51317E+03 -1.06577E+04  2.13167E+04  1.09068E+04
  6.24457E+03  2.93286E+04 -2.98767E+04  3.56327E+04 -6.08194E+04  1.61741E+03 -5.97370E+04 -4.30705E+04
 -1.19467E+04 -5.76853E+04  3.86751E+04 -4.02043E+04  5.37249E+04 -9.87794E+02  3.52865E+04  2.87833E+04
 -6.21645E+03  3.09063E+04 -2.84323E+04  1.35607E+04 -2.81996E+04 -4.92962E+03 -1.21337E+04 -1.46999E+04
 -4.29529E+03 -1.39679E+04 -2.12156E+02 -1.88220E+04  6.07855E+03 -2.43195E+04  1.65294E+04 -2.06902E+04
  1.57917E+04  9.78684E+03 -7.29164E+03  9.96468E+03 -1.95386E+04 -3.80613E+02 -9.73711E+03 -3.23728E+04
  1.96460E+04 -3.92222E+04  4.37935E+04 -1.69989E+04  4.06556E+04  1.72779E+04  9.27518E+03  4.07879E+04
 -1.65121E+04  3.25461E+04 -1.81076E+04 -3.32207E+03 -7.36760E+03 -2.43554E+04  2.05106E+04 -2.73590E+04
  3.75792E+04 -6.81937E+03  3.31689E+04  1.82785E+04  1.54915E+04  3.96118E+04 -9.66677E+03  3.94596E+04
 -3.22608E+04  2.97915E+04 -3.76340E+04  5.91178E+03 -3.60185E+04 -1.16468E+04 -2.21499E+04 -3.24873E+04
  6.17836E+03 -3.22143E+04  2.66421E+04 -1.01264E+04  2.64151E+04  1.12522E+04  3.04381E+03  1.65406E+04
 -1.38544E+04  4.46454E+03 -6.32385E+03 -7.64337E+03  6.61899E+03 -8.80304E+03  1.41426E+04  5.72862E+03
  1.77794E+04  2.10591E+04 -5.26523E+03  2.19335E+04 -1.75410E+04  9.41776E+03 -2.48041E+04 -7.64856E+03
 -1.50323E+04 -1.91873E+04 -4.98048E+03 -1.44851E+04  5.08397E+03 -8.45957E+03  1.41561E+04 -1.13412E+04
  2.01458E+04 -1.19332E+04  2.73205E+04  2.46306E+03  2.09625E+04  1.80293E+04  3.92819E+03  3.67139E+04
 -2.08728E+04  2.72023E+04 -2.71999E+04  8.15186E+03 -2.34231E+04 -1.22045E+04 -4.72844E+03 -1.98375E+04
  6.18846E+02 -6.62575E+03 -2.53848E+03  6.58254E+03 -9.73491E+03  4.08173E+03 -1.56976E+04 -3.70108E+03
 -4.51205E+03 -8.75858E+03  7.28274E+03 -1.36625E+04  1.10600E+04 -8.97140E+03  1.66394E+04 -1.50785E+03
  8.52077E+03  1.06303E+04 -2.02634E+03  1.57779E+04 -9.38580E+03  1.17845E+04 -1.50205E+04 -1.27249E+03
 -1.14473E+04 -1.41526E+04 -2.83310E+03 -2.04733E+04  8.61989E+03 -1.21130E+04  1.44822E+04 -6.50262E+03
  1.48864E+04 -2.45547E+03  9.72160E+03  5.15719E+03  2.22383E+03 -1.59345E+03  7.86101E+03 -8.70124E+02
  1.56304E+04  8.87723E+02  1.18176E+04  9.10549E+03  6.31007E+03  2.37188E+04 -4.44622E+03  2.21790E+04
 -1.31062E+04  2.17062E+04 -2.29931E+04  9.54008E+03 -2.32322E+04 -3.15940E+03 -1.75042E+04 -1.25356E+04
 -1.15104E+04 -1.89801E+04  4.59807E+03 -2.00872E+04  1.26670E+04 -8.80633E+03  1.65304E+04  1.45333E+03
  7.47613E+03  1.11934E+04 -4.39686E+03  1.06508E+04 -1.29943E+04  5.59197E+03 -1.03964E+04 -1.06914E+04
 -2.47396E+03 -1.02773E+04  6.12672E+03 -6.07874E+03  9.99957E+03  1.38485E+02 -2.32642E+03  1.40165E+03
 -3.17470E+03  6.66287E+03 -1.04664E+03 -2.33155E+03 -3.30054E+03 -1.17655E+04  3.68256E+03 -6.79141E+03
  8.60471E+03 -5.61218E+03  1.40558E+04  7.03447E+02  8.42920E+03  1.44874E+04  8.08531E+03  1.12973E+04
 -1.02362E+03  1.28037E+04 -9.04503E+03  9.63608E+03 -1.00254E+04  7.14038E+03 -1.15633E+04 -2.84858E+03
 -5.29299E+03 -4.33828E+03 -1.63778E+03  1.13649E+03 -6.41395E+03  1.31584E+03 -3.32567E+01  2.40505E+03
 -1.04842E+04 -2.66835E+03 -6.85752E+03 -6.67175E+03 -5.63614E+03 -1.17523E+04  1.44203E+03 -5.06108E+03
  5.14521E+03 -3.62820E+03  3.59342E+03  2.70911E+03 -4.02334E+03  4.72088E+03 -3.13721E+03  3.61950E+02
 -2.33158E+03 -7.74128E+03  1.43902E+03 -3.83770E+03  5.88757E+03 -5.27177E+03  3.78515E+03 -5.01749E+03
  1.15509E+04  9.05357E+02  9.48026E+03  4.37859E+03  4.46769E+03  4.01711E+03 -4.86021E+03  6.94809E+03
 -6.92098E+03  3.77931E+03  3.15553E+02 -3.70857E+03  3.71169E+03 -2.44343E+02  5.44526E+03 -3.06408E+03
  5.42799E+03  3.51351E+03 -9.05180E+02  4.63680E+03 -6.04345E+03  8.67859E+03 -8.51748E+03  1.62080E+03
 -4.73785E+03 -9.38204E+03 -1.12911E+01 -6.49024E+03  4.53249E+03 -1.98610E+03  4.99237E+03  2.38263E+03
  3.26405E+02  9.60496E+02 -6.11045E+03  3.54905E+03 -7.39170E+03  5.08452E+02 -7.78137E+03  9.34471E+02
 -3.52694E+03 -5.83479E+03 -2.66329E+02 -6.08621E+03  6.60237E+03 -5.06162E+03  6.71964E+03  1.13881E+03
  3.61185E+03  3.20158E+03 -2.66148E+03  7.55752E+03 -5.38879E+03  6.22242E+03 -6.69639E+03  1.11948E+03
 -3.10454E+03 -4.70491E+03 -2.97879E+03 -4.51079E+03 -6.65599E+02 -4.28606E+03  2.59411E+03  7.27989E+02
  6.16548E+03  1.33420E+03  2.62412E+03  2.62280E+03 -8.22617E+02 -1.85738E+03 -5.60783E+02 -2.33016E+01
  9.89754E+02 -1.01423E+03  2.34773E+03  3.06412E+03  4.87213E+03  6.24336E+03  3.79425E+03  6.39263E+03
 -2.68411E+03  5.71161E+03 -9.42244E+03  5.50470E+03 -4.18756E+03  1.57233E+02 -5.47397E+03  9.84130E+02
 -3.45458E+03 -4.83980E+03 -4.40983E+02 -5.17110E+03  5.43513E+03 -8.92243E+02  4.11941E+02 -1.25271E+03
 -1.31255E+03 -2.68003E+03 -1.45972E+03 -5.11000E+03 -6.28877E+02 -2.16038E+03  1.73297E+03  1.35936E+03
  7.62101E+03 -2.58577E+03  4.97634E+01  1.17232E+03 -5.13961E+03  4.86008E+03 -4.34741E+03 -1.50825E+03
 -1.57332E+03 -2.30400E+03 -1.71981E+03 -3.20739E+03 -1.88077E+03 -1.11130E+03  1.58538E+03 -3.36140E+03
  2.86290E+03 -5.72026E+02  5.20900E+03 -3.79184E+03  1.98537E+03  4.18735E+03  5.95052E+02  8.80226E+03
 -3.11590E+03  8.39517E+03 -6.05793E+03 -5.18913E+01 -4.38481E+03 -2.28984E+03  2.45070E+03 -3.91451E+03
  2.79567E+03  7.15812E+01 -9.68413E+02 -1.79967E+03 -2.91475E+03 -8.44532E+02 -1.91371E+03 -1.03460E+03
  2.82566E+03 -4.26693E+03  2.75591E+03 -3.56371E+03  4.33700E+03 -1.28907E+03  7.80296E+02 -2.25768E+03
  1.20384E+03  7.43971E+02  1.00138E+02  1.30092E+03 -3.50563E+03  1.22700E+04 -3.77346E+03  2.52391E+03
  4.88964E+02  1.30005E+02  7.74702E+02 -6.04374E+02 -8.22856E+02 -2.88795E+03  2.19127E+03  2.13790E+03
  4.75133E+02 -4.55128E+02  3.13102E+03 -2.72000E+03 -2.12443E+03  5.42243E+03 -3.47394E+03  5.03101E+03
  6.36860E+03 -8.04459E+02  1.29368E+03 -9.76329E+02  1.31762E+03  7.98184E+02 -3.84642E+03  2.59423E+03
 -2.83036E+03  2.61280E+03  1.51897E+02  4.70483E+03 -2.58633E+03  1.76764E+03 -1.80844E+03 -7.90466E+02
 -2.06822E+03 -4.39464E+03  4.56819E+03 -4.98922E+02 -3.00406E+03 -5.26926E+03  4.50789E+03  2.97701E+02
  1.46678E+02  2.73401E+03  2.35038E+03 -8.11037E+02  3.03708E+03 -1.00784E+03  2.69420E+02  1.41323E+03
  3.14868E+03 -3.69739E+03 -2.93495E+03 -2.61465E+03  1.40719E+03  9.16104E+02  2.39769E+03  1.48727E+03
  4.77481E+03 -1.38569E+03 -1.27629E+03  2.87441E+03  1.03959E+03  1.11397E+03  8.50938E+02  1.39145E+03
  1.28025E+03  2.16021E+03 -4.55394E+02  2.31115E+03 -3.75330E+03  8.96888E+02  2.01041E+03  5.15443E+03
  4.92658E+02  3.85954E+03 -2.11676E+03 -1.39205E+01 -3.06089E+03  3.71223E+03 -8.15379E+02 -4.36949E+03
 -1.42258E+03  2.40846E+02  1.88691E+03 -2.32620E+03 -2.17338E+03  1.48635E+03 -9.96042E+02 -6.12555E+02
 -1.88730E+03 -5.33967E+02  1.19464E+03 -2.50354E+03 -9.20253E+02 -1.84553E+03  4.87536E+02 -1.98231E+03
  2.62878E+03  7.73978E+02  4.01805E+03  6.32928E+02 -3.59877E+02  1.22864E+03  2.56259E+03  2.44738E+03
 -2.54169E+01  5.05294E+02 -3.05811E+03  7.73721E+02 -3.48455E+03 -6.75712E+02  1.04111E+03 -2.17656E+03
 -2.03648E+03  5.54443E+02  2.50474E+03  1.58069E+03  2.73571E+02  7.42910E+03  8.61811E+02  1.10568E+03
 -3.07525E+03 -1.37934E+03 -2.87239E+03 -3.22404E+03  1.10831E+03 -4.85550E+03 -2.75759E+03  2.53032E+03
 -1.44502E+03 -3.97229E+03 -5.80404E+02 -8.94988E+02 -7.50884E+01 -1.62199E+03  9.66555E+02  5.63798E+03
 -4.09140E+02  4.18771E+03 -1.91290E+03 -4.89620E+03  3.32003E+02  8.79274E+02  2.56984E+03 -1.75871E+03
 -1.53649E+03  5.63961E+03 -1.13587E+03  7.16388E+02 -1.70793E+03  3.02431E+03 -2.98441E+03  2.54543E+03
 -1.70467E+03 -2.95844E+03 -4.83725E+03 -6.30729E+02 -1.14431E+03  1.79668E+03  5.42537E+03 -3.82033E+03
  7.67133E+03 -6.13437E+02 -6.70276E+02  1.47400E+03 -8.20266E+02  1.10445E+03 -2.74357E+03  1.16910E+03
 -5.20228E+02  1.33623E+03  1.66819E+03 -3.31123E+03 -4.41810E+02  2.13519E+02 -4.48844E+02  8.50635E+02
 -2.74806E+03  1.64551E+03  1.85435E+03  1.96939E+03 -1.84064E+03  7.92721E+02 -3.39512E+02 -2.22821E+03
  1.59821E+03 -3.74006E+03  1.77391E+03  1.44523E+02 -3.17830E+03  2.51535E+03  9.66374E+02 -4.52343E+02
  1.09821E+03  5.53650E+02 -3.35519E+03  6.27536E+03 -1.13506E+03 -4.01864E+02 -3.81094E+03 -3.19310E+03
  5.77304E+02  3.75480E+03  1.00533E+02  1.21411E+03 -5.05451E+02  3.12010E+03  4.73867E+03 -7.17955E+02
 -1.59862E+03  6.18457E+02  2.05910E+03  2.75703E+01 -2.05311E+03 -4.89176E+02 -3.19685E+03  1.79664E+03
  3.33692E+03  2.08217E+03 -1.25598E+03 -1.48391E+03 -3.52571E+03 -2.03984E+03  1.08558E+03  1.12799E+03
  1.71015E+03 -1.32949E+03  4.76361E+02 -1.31257E+03  1.26550E+03 -2.07031E+03 -2.72759E+03 -2.79160E+03
 -2.02864E+03  2.55624E+03 -3.04360E+03 -6.13816E+03 -1.18111E+03 -3.51213E+02 -2.28626E+03  1.77823E+03
 -1.83867E+03 -2.36804E+03 -2.37009E+03  1.81532E+03 -6.52035E+03 -2.15271E+03  6.09826E+03 -7.21716E+02
  3.30502E+03  3.04094E+03 -3.21992E+02  3.59185E+03  2.73904E+02  1.49477E+03  2.25414E+03  1.73203E+03
 -4.04015E+03  4.96619E+02  5.39594E+02 -4.44294E+03 -3.06346E+02 -1.88185E+03  2.86007E+02  2.23306E+03
 -4.70581E+02  2.33958E+03  1.06512E+03 -2.91668E+02 -2.87872E+03  4.04221E+03 -1.53480E+03  3.84450E+03
