 $NMID ID='MM_0lb_SNR50_14hz_g55_25.RAW', FMTDAT='(8E13.5)'
 TRAMP=1., VOLUME=1. $END
  3.10601E+05  6.70498E+01  3.33970E+05  2.49402E+05  8.71383E+04  3.32592E+05 -1.30999E+05  2.49583E+05
 -1.96103E+05  8.26858E+04 -1.09491E+05 -3.60869E+04 -9.63220E+02 -5.06112E+04  5.10811E+04  6.06286E+02
  3.46863E+04  5.06570E+04 -1.40343E+04  7.63908E+04 -6.08212E+04  5.93001E+04 -8.49885E+04  3.10992E+04
 -8.11815E+04 -9.16968E+03 -6.05379E+04 -5.30829E+04 -1.25301E+04 -7.29667E+04  2.41697E+04 -4.29609E+04
  4.11082E+04  9.94161E+03  1.71936E+04  4.64007E+04 -3.92387E+04  4.57624E+04 -6.70279E+04 -2.69076E+03
 -5.04997E+04 -5.56597E+04 -6.51891E+03 -7.49249E+04  3.23557E+04 -5.30409E+04  4.91201E+04 -1.37460E+04
  4.62106E+04  5.99629E+03  3.41285E+04  1.97488E+04  1.37029E+04  2.75631E+04 -5.02983E+03  2.65345E+04
 -2.39120E+04  1.69565E+04 -2.18780E+04 -6.56479E+03  6.88834E+03 -6.59987E+03  1.95079E+04  1.49330E+04
  3.27689E+03  3.42990E+04 -3.13454E+04  3.42247E+04 -6.50272E+04 -7.39124E+02 -5.85404E+04 -4.45823E+04
 -1.26015E+04 -6.40655E+04  4.06419E+04 -4.21656E+04  5.85808E+04 -2.85231E+03  3.76485E+04  3.57415E+04
 -5.86835E+03  3.69165E+04 -3.21705E+04  1.42211E+04 -3.60170E+04 -2.87166E+03 -1.61932E+04 -1.19765E+04
 -5.50257E+03 -1.05624E+04 -1.44438E+03 -2.15373E+04  5.17949E+03 -2.40470E+04  1.95055E+04 -1.50477E+04
  1.25924E+04  4.31921E+03 -9.15530E+03  1.43606E+04 -2.01312E+04 -1.81338E+03 -1.20610E+04 -3.42182E+04
  2.48531E+04 -4.03565E+04  5.20906E+04 -1.93529E+04  4.84167E+04  1.62002E+04  1.30995E+04  4.73556E+04
 -1.96014E+04  3.38700E+04 -2.87390E+04  1.90084E+02 -1.36452E+04 -2.93759E+04  2.17184E+04 -3.84983E+04
  4.43390E+04 -9.91637E+03  3.84520E+04  2.33751E+04  2.33718E+04  4.97459E+04 -2.38726E+03  5.62530E+04
 -3.46407E+04  3.68651E+04 -4.33697E+04  4.16360E+03 -4.15771E+04 -1.81248E+04 -2.16549E+04 -3.81243E+04
  3.12773E+03 -3.90993E+04  3.10668E+04 -1.43825E+04  2.93621E+04  8.32967E+03  2.74520E+03  2.27698E+04
 -1.06544E+04  6.82929E+03 -8.66975E+03 -7.15312E+03  2.61321E+03 -1.01051E+04  1.69944E+04  2.87096E+03
  1.67008E+04  1.97706E+04 -6.05662E+03  2.47990E+04 -2.16000E+04  9.50127E+03 -3.01066E+04 -2.33420E+03
 -2.41950E+04 -1.37474E+04 -5.65187E+03 -2.43884E+04  5.26999E+03 -1.97599E+04  1.07466E+04 -2.07099E+04
  2.79009E+04 -1.58254E+04  3.43197E+04  8.40998E+02  2.58630E+04  2.09481E+04  2.49697E+03  3.58849E+04
 -1.69154E+04  3.46889E+04 -3.13379E+04  1.33427E+04 -2.18395E+04 -1.01172E+04 -4.52146E+03 -1.24068E+04
  3.38314E+03  2.25478E+03 -4.02458E+03  5.55261E+03 -1.67569E+04  4.01982E+03 -2.20831E+04 -1.01497E+04
 -6.46310E+03 -2.02718E+04  4.74049E+03 -2.42665E+04  1.40896E+04 -1.55602E+04  1.95507E+04  5.74816E+02
  1.42679E+04  7.98745E+03  1.28565E+03  1.84987E+04 -1.46481E+04  1.29058E+04 -2.02080E+04 -5.24299E+03
 -1.49779E+04 -1.52477E+04 -7.52338E+02 -2.34472E+04  4.95794E+03 -1.98580E+04  1.67495E+04 -5.53255E+03
  1.99181E+04  3.34272E+03  1.04839E+04  2.05984E+03  8.96993E+03  4.60295E+03  1.02263E+04 -1.37853E+03
  1.53025E+04  4.98864E+02  2.24580E+04  1.83099E+04  8.58580E+03  2.52914E+04 -8.04159E+03  3.65539E+04
 -1.96028E+04  2.31820E+04 -3.15674E+04  1.56201E+04 -3.31225E+04 -2.59805E+03 -3.03170E+04 -1.85949E+04
 -1.07748E+04 -3.28082E+04  1.37896E+04 -2.42419E+04  2.05991E+04 -1.60469E+04  2.12106E+04  5.34556E+03
  6.51713E+03  1.72376E+04 -5.30467E+03  9.52457E+03 -1.56221E+04  4.08444E+03 -1.68947E+04 -8.40306E+03
  6.54099E+03 -1.33531E+04  1.17001E+04 -1.00899E+04  4.23378E+03 -6.23283E+03 -3.58204E+02  6.20081E+03
 -8.69739E+03  5.13123E+03 -6.31504E+03 -6.89168E+03 -4.60077E+02 -9.01741E+03  6.78360E+03 -1.84712E+04
  1.85891E+04 -7.74407E+03  1.77791E+04  4.64014E+03  1.09823E+04  1.67817E+04  6.96038E+02  2.17821E+04
 -7.46787E+03  2.20596E+04 -1.35552E+04  1.30785E+04 -1.71991E+04  3.67421E+03 -9.02950E+03 -5.03511E+03
 -3.35970E+03  2.24914E+02 -5.42508E+03 -1.97947E+03 -1.62576E+03 -1.38718E+03 -8.65241E+03 -2.27598E+03
 -1.01025E+04 -7.35764E+02 -1.22180E+04 -6.81649E+03 -9.12932E+03 -1.61925E+04  4.27940E+03 -1.23504E+04
  1.05147E+04 -1.03881E+04  3.95965E+03 -4.57263E+02  7.02677E+02  6.38881E+03 -3.59123E+03 -3.53975E+03
 -3.50946E+03 -9.78393E+03 -5.11819E+03 -1.07427E+04  5.73136E+03 -7.61192E+03  1.66543E+04 -5.60657E+03
  1.88468E+04  3.40735E+03  9.24489E+03  9.51037E+03  7.43289E+03  1.32490E+04 -4.12735E+03  1.28458E+04
 -1.11959E+04  8.47057E+03 -1.34143E+03 -2.90424E+03 -1.24283E+03 -8.16567E+03  9.45929E+03  9.34531E+02
  4.90189E+03  5.15567E+03 -1.47013E+03  1.05364E+04 -8.69088E+03  1.17757E+04 -1.64119E+04  7.00779E+02
 -8.59851E+03 -1.83730E+02  1.27101E+03 -1.40355E+04  2.12034E+03 -6.81726E+03  7.05814E+03 -4.66279E+03
  7.04173E+02  1.84440E+03 -7.66702E+03  9.25272E+03 -6.30517E+03  8.26063E+03 -1.17616E+04 -4.06770E+03
 -5.87455E+03 -9.80269E+03 -2.16588E+03 -1.43003E+04  1.31901E+04 -8.93598E+03  1.19453E+04  1.72484E+03
  1.05944E+04  9.27976E+03  2.27165E+03  1.00862E+04 -6.06083E+03  2.47854E+03 -7.89478E+03 -3.53479E+03
 -3.45855E+03 -5.81283E+03 -3.74990E+03 -6.45487E+03  4.82835E+03 -6.18349E+03  7.46428E+03  7.24259E+02
  2.77377E+03  1.58058E+03 -1.22998E+03  1.51633E+03  2.20634E+03 -7.58794E+03 -2.38584E+03  3.80996E+02
  1.10402E+04 -7.42663E+03  8.89790E+03  2.95671E+03  8.05804E+03  8.88143E+03  9.18949E+03  1.23745E+04
 -2.85681E+02  1.77633E+04 -8.19023E+03  1.49212E+04 -1.70723E+04  3.86067E+03 -7.81550E+03 -3.14280E+03
 -3.37064E+03 -1.32922E+04 -1.83521E+03 -6.49867E+03  1.29759E+03 -5.95971E+03  2.78825E+03  2.52568E+02
  5.97859E+03  9.38531E+02  2.25744E+03 -5.15572E+03  3.86061E+03 -1.72153E+03  4.93776E+03 -1.41092E+03
  9.62378E+03  2.87329E+02  2.53416E+03  1.69613E+03 -2.44062E+03  1.11314E+03 -7.91797E+03  3.27703E+03
 -9.44604E+03 -4.53959E+03 -5.04458E+03 -7.83335E+03  7.96330E+01 -6.65829E+03  1.86601E+03 -4.97880E+03
  1.27652E+04 -1.11142E+04  1.02871E+04 -1.94089E+03  9.15261E+03  7.03887E+03  7.50047E+02  1.20473E+04
 -3.30428E+03  1.01579E+04 -5.55798E+03  5.16609E+03 -5.02736E+03 -4.95642E+03 -4.40407E+03 -9.07665E+02
 -1.44831E+03  1.44863E+03 -4.52661E+03  4.18577E+03 -2.53045E+03  6.88424E+02 -4.65477E+03  1.48735E+02
 -3.56726E+03 -5.04770E+03 -2.65714E+03 -5.96103E+03  5.65597E+03 -6.31064E+03  1.70442E+03 -2.34104E+03
  8.57491E+03  4.82062E+03  1.40894E+03  5.08227E+03 -3.84905E+03  1.11568E+04 -5.04105E+03  4.40016E+03
 -3.50650E+03  3.37614E+02 -6.68373E+03 -3.73278E+03  3.30210E+03 -6.57987E+03  5.59166E+03 -6.16594E+03
  6.27390E+03 -2.28559E+03  6.15190E+03  2.57502E+02  3.80681E+03  2.01716E+03 -1.34767E+03  3.22003E+03
  3.90503E+02 -8.73106E+02  2.94540E+03  6.36410E+03 -3.25799E+02  2.56277E+03 -2.83607E+03  2.26984E+03
 -4.51722E+03  6.48667E+03 -4.22248E+03  8.10497E+03 -8.50038E+03  6.75383E+02 -1.13661E+04 -1.45623E+03
 -7.59341E+03 -7.71262E+03  2.03818E+02 -9.81087E+03  6.36833E+03 -5.24595E+03  4.81465E+03 -2.30414E+03
  6.98894E+03  6.86898E+03  6.45498E+03  3.80510E+03 -4.27058E+03  6.85031E+03 -3.34625E+03 -1.61453E+03
 -3.06487E+02 -5.64610E+03  4.79662E+03 -2.39989E+03  2.74991E+03 -1.75428E+03 -2.92122E+00 -3.44205E+03
  1.77799E+03  5.97069E+03 -6.91770E+02  3.19095E+03 -1.47066E+03  3.94455E+02  2.42390E+03  5.05198E+03
  2.24257E+03 -2.31481E+03  5.45067E+03 -1.87024E+03 -2.82551E+03  4.17360E+03 -1.48891E+03  3.02183E+03
 -5.63400E+03  3.70255E+03 -2.03033E+03  2.96651E+03 -2.87462E+03 -6.71064E+03 -6.68096E+03 -3.21516E+03
 -8.92404E+02  3.11802E+03  6.10836E+03 -8.87078E+03  9.60944E+02  4.09759E+03 -3.29969E+03 -3.04999E+03
 -7.30669E+03  1.79490E+03  4.21358E+03 -5.72275E+03  1.70140E+03 -5.12906E+03  2.00902E+03 -6.52016E+03
  3.39399E+03  2.34328E+03  4.03010E+03  7.48387E+03  4.20865E+03 -1.73838E+03  5.61366E+03 -8.26088E+02
 -1.67254E+03 -3.76014E+01 -1.33780E+02  1.70678E+03  4.21463E+03  1.21227E+03  5.91920E+03  5.61885E+02
  1.17988E+03  8.05156E+02  5.45073E+03  2.63407E+03  5.59112E+03  3.83293E+03 -5.67502E+03  4.99020E+03
 -3.34765E+03  1.56975E+03 -3.19190E+03 -3.91190E+03 -3.37828E+03 -2.62909E+03  4.92255E+03 -4.34216E+02
  1.24972E+03 -2.27179E+03  1.04933E+03  2.02626E+03  4.07416E+03  1.37772E+03  4.52954E+03 -3.08842E+03
 -5.89102E+02  1.55794E+03 -4.04948E+03  3.67774E+03 -3.02524E+03 -1.38104E+03 -3.87759E+03  1.96250E+03
 -1.30799E+03  4.08389E+02 -5.07001E+03  2.00435E+03 -3.77112E+01 -3.47411E+03 -3.61174E+03  3.35026E+02
 -5.71656E+03 -1.84189E+03  3.73932E+02 -3.88469E+03  2.73267E+03 -9.52603E+03  2.58387E+03  1.44586E+03
  1.27575E+04  4.84961E+03  3.11243E+03  4.57715E+03 -2.87690E+03  6.00007E+03  2.03683E+03  1.52820E+03
 -3.40716E+03  2.92562E+03  3.93027E+03  2.65364E+02 -2.11651E+03  5.07000E+03 -2.52039E+03 -1.91909E+03
 -3.26146E+03 -6.51007E+01 -2.16949E+03  2.03914E+03 -3.94184E+03 -2.69187E+03 -1.89844E+03  4.28435E+03
  4.30153E+03 -1.53991E+03  4.34035E+03 -1.07008E+03  1.21986E+03  4.61225E+03 -1.12475E+03  2.46550E+03
 -2.01416E+03  1.21024E+03 -5.13939E+03  3.48149E+02 -4.44010E+03 -6.46643E+03 -3.03907E+03 -4.33193E+03
 -7.12982E+02 -4.82111E+03  4.57133E+03 -3.08832E+03  4.52940E+02 -3.52247E+03  3.19124E+03  3.66765E+03
 -2.19156E+02  2.56057E+03 -5.41096E+03 -5.79336E+02  2.59609E+02  4.06489E+03  2.32412E+03  1.27105E+03
 -5.86170E+03 -2.68697E+03  5.34563E+03 -8.05318E+02 -2.63925E+03 -3.57604E+02 -1.06940E+03  5.29712E+03
 -4.81004E+03  7.78024E+02  2.43581E+03  7.18319E+02 -3.27189E+03  5.60677E+02  6.40523E+03 -2.50456E+03
  7.91942E+02 -2.49267E+02  2.91737E+03 -1.45524E+03  3.36614E+03  5.20006E+03  2.68677E+03  2.28811E+03
  1.77330E+02  6.64937E+02  7.98545E+02 -1.31005E+03 -1.67345E+03 -4.21910E+03 -3.29230E+02  4.71957E+03
 -1.43691E+03 -1.34748E+02 -5.72276E+03 -1.36202E+03 -8.84727E+03  3.63298E+03 -2.54958E+03 -1.24427E+03
 -7.03687E+03  4.00965E+03  7.82222E+02 -5.59485E+03  7.46424E+01 -5.33356E+03  1.42535E+03 -5.85825E+02
  4.00419E+03 -1.22473E+03  2.89723E+03  8.11054E+00 -2.56695E+03  2.60359E+03 -2.29921E+03 -2.31920E+03
