 $NMID ID='MM_0lb_SNR50_14hz_g45_3.RAW', FMTDAT='(8E13.5)'
 TRAMP=1., VOLUME=1. $END
  3.08664E+05 -4.66019E+01  3.38943E+05  2.52859E+05  8.58915E+04  3.38957E+05 -1.35794E+05  2.52692E+05
 -1.86701E+05  8.80435E+04 -1.10305E+05 -3.44286E+04  2.49259E+03 -5.20765E+04  5.26928E+04 -1.42685E+03
  3.72180E+04  4.94351E+04 -1.61734E+04  7.28320E+04 -6.54452E+04  6.65960E+04 -8.17902E+04  2.80179E+04
 -8.53165E+04 -1.37933E+04 -6.20597E+04 -5.34326E+04 -1.07247E+04 -6.98195E+04  2.68208E+04 -4.69365E+04
  4.06367E+04  3.01335E+03  1.32139E+04  4.85490E+04 -3.64630E+04  5.09111E+04 -7.24008E+04 -8.23187E+02
 -6.18096E+04 -6.13852E+04 -5.99240E+03 -7.84030E+04  3.28086E+04 -5.74804E+04  4.62485E+04 -1.45273E+04
  4.13829E+04  9.55291E+03  3.20846E+04  2.51335E+04  1.63785E+04  3.06125E+04 -5.25334E+03  2.46799E+04
 -2.09288E+04  8.34964E+03 -1.82630E+04  6.37156E+02  5.41768E+03 -1.14587E+04  2.33407E+04  1.17460E+04
  9.55368E+03  3.68703E+04 -2.82472E+04  3.49136E+04 -6.48064E+04  1.94212E+03 -4.81426E+04 -4.12609E+04
 -1.43800E+04 -6.35930E+04  3.62194E+04 -4.62346E+04  5.79898E+04 -2.04347E+03  3.50867E+04  3.36355E+04
 -3.37151E+03  3.74619E+04 -2.80205E+04  1.08034E+04 -3.09816E+04 -1.13082E+03 -1.80951E+04 -1.01292E+04
 -1.25591E+04 -1.37532E+04 -4.49285E+01 -1.60043E+04  5.12704E+03 -2.30942E+04  1.39112E+04 -8.50655E+03
  1.11059E+04  6.58682E+03 -6.38747E+03  1.74167E+04 -1.64164E+04 -4.88421E+03 -8.76683E+03 -3.58816E+04
  1.87031E+04 -3.96747E+04  5.45562E+04 -2.04029E+04  3.77919E+04  2.30634E+04  1.87029E+04  4.47894E+04
 -1.16106E+04  3.31188E+04 -2.19352E+04  5.87326E+02 -8.64069E+03 -2.49288E+04  2.11923E+04 -3.58588E+04
  4.01048E+04 -1.14102E+04  3.51595E+04  2.58565E+04  1.79607E+04  4.51743E+04 -1.17893E+04  4.58573E+04
 -3.66937E+04  3.86173E+04 -3.93931E+04  9.91861E+03 -3.99638E+04 -1.41446E+04 -2.07916E+04 -3.86522E+04
  8.77262E+03 -3.31632E+04  2.60871E+04 -1.78946E+04  2.49425E+04  1.63584E+04  1.63728E+03  1.91646E+04
 -1.42606E+04  3.49737E+03 -6.98359E+03 -1.17447E+04  4.20247E+03 -1.26290E+04  1.68372E+04  8.28101E+03
  1.22467E+04  2.49676E+04 -1.54909E+03  2.54015E+04 -2.20298E+04  1.45751E+04 -2.66100E+04 -7.50483E+03
 -1.94687E+04 -1.89590E+04 -9.84533E+03 -1.92515E+04  6.66912E+03 -1.67342E+04  1.31206E+04 -1.49371E+04
  2.55918E+04 -8.92382E+03  2.99044E+04 -7.32343E+02  2.08482E+04  1.64452E+04  5.06725E+03  3.91196E+04
 -1.91786E+04  2.84660E+04 -3.08672E+04  6.89727E+03 -2.35342E+04 -6.61840E+03 -3.32546E+03 -1.26171E+04
  4.11416E+03 -3.42027E+03 -3.13295E+03  8.86520E+03 -2.14919E+04  6.46367E+03 -1.77267E+04 -8.83161E+03
 -9.20658E+03 -1.48472E+04  4.44941E+03 -2.34307E+04  1.46575E+04 -1.44807E+04  1.90636E+04 -2.74159E+03
  1.73906E+04  1.23641E+04 -4.31988E+03  1.49297E+04 -1.36936E+04  7.06413E+03 -2.39346E+04 -3.48355E+03
 -1.63938E+04 -1.74843E+04 -1.35651E+03 -1.26487E+04  1.07909E+04 -1.35962E+04  1.91934E+04 -1.06979E+04
  1.83855E+04 -3.05334E+03  1.32866E+04  3.90140E+03  7.20823E+03  2.28935E+03  1.04931E+04  3.69156E+03
  1.73713E+04  6.36067E+03  1.55859E+04  1.75444E+04  1.03682E+04  3.15837E+04 -4.10747E+02  2.97736E+04
 -1.97362E+04  2.76002E+04 -3.43112E+04  1.65355E+04 -3.25196E+04 -1.17145E+03 -2.54298E+04 -1.60009E+04
 -1.01767E+04 -2.82988E+04  8.83918E+03 -2.37667E+04  1.69618E+04 -8.49819E+03  1.73265E+04  5.36352E+03
  2.97858E+03  1.77401E+04 -7.40077E+03  1.07831E+04 -1.19634E+04  2.12702E+03 -1.30263E+04 -8.91659E+03
  1.26365E+03 -1.67387E+04  5.99190E+03 -1.39979E+04  9.53280E+03  1.74456E+03  7.25545E+03 -9.39731E+02
 -5.10640E+03  1.64834E+03 -4.99135E+03 -6.91164E+03 -9.56470E+02 -1.67805E+04  5.61682E+03 -1.71875E+04
  1.27707E+04 -5.17170E+03  1.23670E+04  2.16455E+03  1.23783E+04  1.39387E+04  9.39086E+03  1.82066E+04
 -2.01579E+03  1.86238E+04 -1.83807E+04  1.31599E+04 -1.72540E+04  2.37469E+03 -1.05829E+04 -2.81259E+03
 -5.16430E+03 -7.88019E+03 -4.33239E+03  1.60786E+03 -2.51558E+03  2.90839E+01 -6.78300E+03  6.61640E+03
 -4.59322E+03 -4.46853E+03 -1.70151E+04 -8.90861E+03 -6.29784E+03 -1.70430E+04  3.35066E+03 -8.89957E+03
  1.08097E+04 -5.16841E+03  9.73363E+03  5.80401E+03 -1.13374E+03  4.87725E+03 -7.27842E+03  6.62727E+02
 -4.76698E+03 -5.91780E+03 -1.62276E+03 -9.43071E+03  6.04903E+02 -6.17661E+03  1.45487E+04 -1.07830E+04
  1.82744E+04  1.95253E+03  1.16687E+04  9.27946E+03  2.69030E+03  8.94665E+03 -6.13182E+03  9.97696E+03
 -1.37671E+04  7.26415E+03 -8.52368E+03 -3.27619E+03  3.17828E+03 -6.81427E+03  3.40622E+03 -4.77125E+01
  2.20049E+03  1.64911E+03  2.32667E+03  1.00563E+04 -4.42606E+03  7.73024E+03 -1.06609E+04  1.22598E+03
 -9.09510E+03 -8.50345E+03  3.73490E+02 -7.78935E+03  9.25030E+03 -7.29760E+03  3.80741E+03  4.76118E+03
  2.62246E+03  6.51724E+03 -6.26107E+03  1.37214E+04 -7.72707E+03  2.70339E+03 -9.12268E+03 -5.42140E+02
 -4.44889E+03 -9.60211E+03  1.09568E+04 -6.98104E+03  9.84256E+03 -6.62282E+03  7.22611E+03  1.02865E+03
  4.51508E+03  5.02337E+03  1.41592E+03  1.31512E+04 -6.92724E+03  2.07139E+03 -1.19640E+04  1.46593E+03
 -1.06173E+04 -2.27289E+03  2.01035E+03 -6.53936E+03  7.57366E+03 -6.50755E+03  5.47744E+03 -2.85869E+03
  3.77775E+03  8.83752E+02  1.46312E+03  2.64062E+03 -1.73492E+03 -3.57441E+03 -2.05953E+03 -2.77595E+03
  7.08939E+03 -3.42225E+03  6.94244E+03 -6.32878E+02  1.14348E+04  3.95804E+03  1.36170E+04  1.73168E+04
 -2.17832E+03  1.43615E+04 -7.99942E+03  8.07270E+03 -1.84094E+04  1.32475E+03 -1.48250E+04 -1.57174E+03
 -1.55657E+03 -1.08656E+04 -3.78752E+03 -1.05117E+04  4.14904E+03 -5.61208E+03  5.16800E+02  1.99204E+02
  6.88850E+03 -2.58340E+03  4.51417E+03 -2.76965E+03  4.32640E+03  1.51692E+03  4.95173E+03  1.00813E+03
  5.59513E+03  2.25106E+03 -1.68930E+03  4.84091E+03 -1.23508E+03  5.36127E+03 -8.46066E+03  7.73562E+03
 -7.44392E+03 -4.32366E+03 -3.77807E+03 -5.61882E+03  4.31173E+02 -9.25082E+03  6.84534E+03 -1.45743E+04
  8.66185E+03 -7.38461E+03  1.74250E+04  7.83842E+02  8.86642E+03  6.86037E+03 -5.00517E+01  8.55661E+03
 -2.20562E+03  9.43728E+03 -8.71842E+03  1.46360E+03 -3.13256E+03 -2.70575E+03 -4.27484E+03  3.32177E+02
  2.64991E+03 -3.97312E+03  2.32252E+03 -2.82900E+03 -5.04738E+03  6.04331E+03 -5.67567E+03  6.22357E+02
 -9.65549E+03 -4.31043E+03  2.59926E+01 -9.79449E+03  6.24384E+03 -6.07244E+03  1.81594E+03 -1.25138E+03
  5.99024E+03  9.10977E+03  3.21416E+03  3.71638E+03  7.46257E+02  8.13980E+03 -1.04792E+04  3.14100E+03
 -6.80546E+03  3.18921E+03 -5.48199E+03 -2.25685E+03 -3.37825E+03 -3.85099E+03  1.77577E+03  7.03248E+02
  3.79213E+03 -2.76222E+03  5.21953E+03  2.88835E+03  3.90253E+03  5.08682E+03 -3.57428E+03 -1.64197E+03
  2.60430E+03  2.74822E+03  1.71578E+03  2.59939E+03  3.95894E+03  6.65693E+03  2.10825E+03  7.15688E+02
 -5.00678E+03  5.49380E+03 -2.87698E+03  1.14162E+04 -4.61454E+03 -8.46702E+02 -5.19056E+03 -4.31928E+03
 -2.57628E+03 -7.38893E+03 -3.00833E+03 -8.12211E+03  2.57759E+02 -1.69796E+03  9.11431E+03  2.72197E+03
  7.13345E+03  8.09375E+03  1.11061E+03  5.85760E+03 -5.33024E+03  6.18756E+03 -7.41248E+03 -1.68499E+02
 -7.71250E+03 -2.29663E+03  8.59372E+03 -4.97832E+01  3.31217E+03 -2.04017E+03  6.69503E+03  3.94758E+03
  2.99986E+03 -1.68859E+03 -4.71672E+02 -4.55384E+02  4.11850E+02 -1.05006E+03 -5.59305E+03  3.71023E+03
 -3.61899E+02 -1.47453E+02  5.04192E+03  3.08419E+03 -7.36450E+02  8.85404E+03 -7.33284E+03  8.62759E+03
 -4.25522E+03  6.26155E+03 -4.24725E+03  1.73308E+03 -5.11556E+03 -3.13395E+03 -3.00690E+03 -3.25454E+03
 -3.46385E+02 -4.76836E+03  3.80812E+03  1.62921E+03 -3.06409E+02  1.21026E+03  3.06232E+02  9.61809E+03
 -3.43275E+03  2.88503E+03 -2.55703E+03 -1.76285E+03 -1.72874E+03 -1.13456E+03  4.38662E+03 -5.30430E+03
 -1.00260E+03 -3.02360E+03  1.57297E+03  9.13281E+02  5.58197E+03 -1.24690E+02  8.61655E+02  3.36158E+02
 -2.30588E+03  5.76233E+03 -5.47446E+03  1.57066E+03  1.78356E+03 -1.92160E+03  9.55723E+03 -3.44565E+03
  2.23150E+03  2.80298E+03  5.07781E+03  4.36475E+03  2.11690E+03  1.20729E+03  7.68534E+01  7.66633E+03
 -3.07868E+03  4.91429E+03 -6.65687E+03  3.22789E+02 -5.12985E+03 -5.57593E+03  5.06450E+02 -5.36012E+03
  1.90365E+03 -1.53769E+03  2.60375E+03  9.70812E+03  1.70515E+03  8.04250E+03 -5.10655E+02  2.11795E+03
  3.62350E+03 -6.25976E+02 -3.47625E+02  1.60135E+03 -2.05084E+03  1.47210E+03 -1.78515E+02  4.28089E+03
 -2.81665E+03  4.39072E+03 -3.58740E+03  3.87108E+02 -2.02329E+03 -1.87975E+03 -1.63223E+03  2.42872E+03
 -6.28602E+03 -5.61905E+02  5.49781E+03 -6.56987E+03  3.22161E+03 -5.47651E+03  3.70358E+03 -1.59178E+03
  7.30814E+03 -2.04109E+03  3.63126E+03  3.68988E+03  1.42360E+03  5.11824E+03 -8.69616E+02 -4.39644E+03
 -5.70970E+02  1.55275E+03 -2.11564E+03 -2.54938E+03  3.60301E+03  5.52909E+03 -1.39972E+03  1.00062E+03
  1.50078E+03 -1.28863E+03 -2.73454E+03  1.07759E+03  9.35490E+02  1.78785E+03 -1.51718E+03 -2.85219E+03
  1.51935E+03  4.22425E+03  6.89521E+03  2.04420E+02  4.57893E+03  1.57166E+03 -3.34579E+03  5.83993E+03
 -2.62971E+03 -5.79370E+02 -7.26587E+03  7.69509E+03 -2.94104E+03 -4.90475E+03 -6.51885E+03 -3.45187E+03
  2.71422E+03  2.41065E+02  2.81592E+03  1.38839E+03  2.78294E+03 -3.02276E+03 -5.76538E+03 -8.45894E+02
  6.12795E+03 -3.16753E+03  1.55556E+03  2.56608E+03 -2.38066E+03 -6.31206E+02 -2.46365E+02 -3.27226E+03
  5.66865E+03 -3.19481E+03  2.36321E+03 -2.99753E+03 -1.64675E+03 -3.57547E+03 -1.64854E+03 -1.46127E+03
  2.07663E+03 -5.08569E+02 -4.58754E+03  2.11151E+03 -5.14124E+03 -4.94888E+03  5.82536E+03 -5.35735E+03
  8.24267E+02 -6.32790E+03 -5.13044E+02 -1.66434E+03 -9.57450E+00  3.76896E+03 -5.09739E+02 -3.60163E+02
  1.58210E+03  2.39127E+03 -3.50406E+03 -1.61610E+03 -5.42223E+03 -5.03031E+03  6.17922E+03 -1.14438E+03
 -1.65475E+03 -7.24062E+03 -5.11192E+01  2.32589E+03 -3.03717E+03 -2.27737E+03  5.92367E+03 -2.13677E+03
 -2.37380E+03 -1.52555E+03  4.55763E+03 -2.48877E+03 -1.44705E+03 -5.08699E+03  1.10562E+03 -1.43896E+03
  2.69607E+03 -2.24322E+03  1.07190E+03  2.91972E+03 -1.96126E+02 -1.09941E+03 -3.44265E+03 -1.81208E+03
