 $NMID ID='MM_0lb_SNR50_13hz_g45_72.RAW', FMTDAT='(8E13.5)'
 TRAMP=1., VOLUME=1. $END
  3.09537E+05  1.10030E+03  3.37342E+05  2.47599E+05  8.45468E+04  3.40248E+05 -1.30738E+05  2.47722E+05
 -1.87950E+05  8.10058E+04 -1.08841E+05 -3.56273E+04  2.33203E+03 -5.46731E+04  5.52472E+04  1.09140E+03
  3.20349E+04  4.87208E+04 -9.64465E+03  8.08763E+04 -5.62875E+04  6.35079E+04 -8.53101E+04  3.32531E+04
 -8.11371E+04 -1.01331E+04 -5.92322E+04 -5.03071E+04 -8.26016E+03 -6.83636E+04  2.75502E+04 -4.30640E+04
  4.31496E+04  4.44557E+03  1.63973E+04  4.76013E+04 -3.01464E+04  5.03843E+04 -6.65880E+04  4.28892E+03
 -4.89674E+04 -5.84236E+04 -4.68219E+03 -7.70055E+04  2.89207E+04 -5.32854E+04  4.92780E+04 -1.57492E+04
  4.17688E+04  1.00166E+04  2.69690E+04  2.35822E+04  1.53842E+04  3.03148E+04 -3.45332E+03  2.77209E+04
 -2.10902E+04  5.53815E+03 -1.95738E+04 -4.77665E+02  7.40154E+03 -3.80128E+03  2.21512E+04  1.48724E+04
  6.79610E+03  3.92090E+04 -3.23602E+04  3.40542E+04 -6.64542E+04  6.73490E+03 -5.60082E+04 -4.47124E+04
 -1.53974E+04 -6.56983E+04  4.03033E+04 -4.74884E+04  5.76680E+04  7.91820E+02  3.64741E+04  3.55824E+04
 -1.00767E+04  3.51603E+04 -3.18558E+04  1.50219E+04 -2.61167E+04 -2.15623E+03 -1.92581E+04 -1.19359E+04
 -7.33997E+03 -1.36528E+04  3.23352E+03 -1.69032E+04  9.66344E+03 -2.35665E+04  1.57333E+04 -1.13023E+04
  1.13639E+04  5.81460E+03 -4.63500E+03  1.12352E+04 -2.09408E+04 -1.96417E+03 -9.25376E+03 -3.46547E+04
  1.95647E+04 -4.50550E+04  4.91162E+04 -2.10006E+04  4.97851E+04  2.23923E+04  1.91843E+04  4.80484E+04
 -1.94222E+04  3.27083E+04 -2.30930E+04  4.76624E+03 -5.09087E+03 -2.88129E+04  2.10955E+04 -3.85553E+04
  4.56667E+04 -1.30232E+04  3.58649E+04  2.49373E+04  1.59367E+04  4.33374E+04 -6.10942E+03  5.17328E+04
 -3.17709E+04  3.05230E+04 -4.80091E+04  1.05302E+04 -4.33500E+04 -1.44738E+04 -2.10502E+04 -3.82589E+04
  1.16703E+04 -4.24522E+04  3.42526E+04 -1.40478E+04  2.93264E+04  5.17696E+03  1.53571E+03  1.86068E+04
 -1.47273E+04  5.81315E+03 -1.24593E+04 -1.01282E+04  5.71605E+03 -1.15589E+04  1.78087E+04  4.51686E+03
  1.78080E+04  1.99545E+04 -8.26770E+03  2.59684E+04 -1.65458E+04  1.35467E+04 -3.02674E+04 -1.75774E+03
 -2.24834E+04 -1.74412E+04 -8.37674E+03 -2.38171E+04 -4.59982E+02 -2.08926E+04  2.12267E+04 -2.31045E+04
  3.04716E+04 -1.47176E+04  3.38733E+04  8.02166E+03  2.56292E+04  1.67420E+04  4.88300E+03  3.92178E+04
 -1.27171E+04  3.70856E+04 -3.46161E+04  1.33702E+04 -1.89326E+04 -1.03931E+04 -3.10788E+03 -1.47567E+04
 -1.38684E+03 -1.98960E+03 -4.27371E+03  3.56107E+03 -1.66260E+04  9.70104E+03 -1.69008E+04 -6.82759E+03
 -1.06345E+04 -1.51577E+04  2.99465E+03 -2.13311E+04  1.60982E+04 -1.85186E+04  1.45288E+04 -3.54472E+02
  1.43836E+04  7.34927E+03 -4.71697E+03  1.71410E+04 -1.40849E+04  5.46870E+03 -2.18505E+04 -4.67842E+03
 -1.69156E+04 -1.74981E+04 -3.17574E+03 -2.33526E+04  9.75844E+03 -1.98894E+04  1.68457E+04 -7.70279E+03
  1.49682E+04 -1.01004E+03  1.29347E+04  3.24431E+03  4.63892E+03  3.82127E+03  8.32458E+03 -6.44115E+03
  2.19510E+04  2.73152E+03  1.71091E+04  1.61447E+04  1.48442E+04  2.99170E+04  3.62594E+03  3.26230E+04
 -2.15053E+04  2.97843E+04 -2.39541E+04  1.33901E+04 -3.37589E+04  6.89889E+01 -2.42230E+04 -2.23325E+04
 -1.27197E+04 -2.95982E+04  1.12204E+04 -2.08820E+04  2.69947E+04 -1.33014E+04  2.39613E+04  3.87949E+03
  2.61430E+03  1.55903E+04 -1.07183E+04  9.78262E+03 -1.76109E+04  7.08897E+03 -1.55337E+04 -1.23118E+04
 -1.95404E+03 -1.71472E+04  7.68572E+03 -1.33609E+04  6.66749E+03  4.61545E+02  4.76450E+03  8.45029E+03
 -7.30793E+03 -1.91045E+03 -7.39089E+03 -3.89049E+03 -1.61714E+03 -1.00236E+04  8.24549E+03 -1.70688E+04
  1.57324E+04 -1.24055E+03  2.68730E+04  2.91558E+03  1.67762E+04  1.22645E+04  6.21966E+03  2.20316E+04
 -4.20398E+03  1.87188E+04 -1.89651E+04  1.44367E+04 -1.41408E+04  1.32758E+03 -1.48493E+04 -4.67111E+03
 -4.53517E+03 -6.28501E+03  2.43318E+02  2.88136E+03 -2.88573E+03  7.24384E+02 -5.85379E+03  5.65753E+03
 -5.80582E+03  7.91335E+02 -1.00534E+04 -1.44827E+04 -4.58481E+03 -1.20396E+04  5.71638E+03 -8.21208E+03
  8.12876E+03 -4.45308E+03  2.88246E+03  1.63128E+03  5.30249E+03  7.25009E+03 -5.31091E+03  7.58574E+02
 -4.73448E+03 -6.80486E+03 -5.45165E+02 -1.24541E+04  5.54212E+03 -9.64745E+03  1.65891E+04 -2.80915E+03
  1.40469E+04  7.41098E+03  1.08500E+04  1.05521E+04  8.17280E+02  1.56703E+04 -7.40578E+03  1.01966E+04
 -1.13652E+04  4.82564E+03 -8.19736E+03 -5.92355E+03 -8.85083E+02 -3.76703E+03  5.22961E+03  2.58455E+03
  6.24671E+03  5.61668E+03  4.39746E+02  9.36637E+03 -6.16557E+03  6.59116E+03 -1.20974E+04  8.64241E+02
 -8.99359E+03 -1.17584E+04 -2.18831E+02 -9.25323E+03  7.36862E+03 -4.00984E+03  6.96286E+03  1.99543E+03
 -4.14473E+02  9.08451E+03 -1.35411E+03  9.23662E+03 -1.45522E+04  4.58210E+03 -1.06505E+04 -4.01400E+03
 -5.41171E+03 -8.73684E+03  5.22157E+03 -1.08473E+04  1.46030E+04 -1.06444E+04  8.39620E+03 -3.02312E+03
  1.21315E+04  1.04551E+04  2.18127E+03  1.44946E+04 -6.88592E+03  1.05007E+04 -8.32018E+03  4.22898E+03
 -1.11217E+04 -9.26893E+03 -4.64638E+03 -6.76991E+03  2.85259E+03 -4.22819E+03  7.36898E+03 -8.58583E+02
  3.81806E+03 -4.96135E+03  6.77076E+02 -1.22901E+02 -2.95777E+03 -1.57217E+03  1.13479E+03 -4.85391E+03
  3.20101E+03  3.69677E+03  1.29569E+04  3.72493E+03  6.64492E+03  6.93642E+03  7.68704E+03  1.17019E+04
 -2.31922E+03  1.15791E+04 -1.34941E+04  5.88134E+03 -1.57248E+04  4.16200E+03 -1.14982E+04  3.30713E+02
 -5.24312E+03 -1.46609E+04 -6.09586E+02 -1.42519E+04  1.25555E+03 -6.26871E+03  2.98815E+03 -4.97109E+03
  2.08804E+03  1.10302E+03  3.65615E+03 -4.43332E+03 -4.97368E+02 -3.54905E+03  5.20311E+03  2.68952E+03
  6.64282E+03 -8.91520E+03  2.92312E+03  6.16155E+03 -4.17770E+03  4.01440E+03 -5.31155E+03  6.74890E+03
 -8.14496E+03 -1.29251E+03 -2.34886E+03 -6.18783E+03  4.99011E+02 -5.46692E+03  6.54333E+02 -9.78956E+03
  5.36426E+03 -6.45765E+03  1.02547E+04  1.60357E+03  8.00334E+03  9.91926E+03 -4.11265E+01  1.55684E+04
 -5.45834E+03  1.34188E+04 -1.10408E+04 -1.95187E+02 -4.77361E+03 -4.32595E+03 -2.31580E+03 -1.80211E+03
 -9.08149E+01 -2.09205E+02 -3.89168E+03  4.74067E+03 -5.93988E+03 -4.76734E+03 -3.24335E+03  1.39892E+03
 -4.70021E+03 -1.13174E+04  2.69748E+03 -8.49614E+03  5.26599E+03 -6.55651E+03  1.38514E+04 -7.86842E+03
  8.95203E+03  6.75272E+03  3.91987E+03  8.14657E+03 -2.69642E+03  9.04377E+03 -7.55616E+03  6.90193E+03
 -6.44595E+03 -1.42403E+03 -1.03223E+04 -5.43337E+03  7.33284E+02 -6.75266E+03  6.55717E+03 -4.44530E+03
  2.14783E+03 -3.33671E+02  2.92001E+03 -1.57015E+03  5.18292E+03 -4.57783E+02 -2.94341E+03 -3.02660E+02
  1.54559E+03 -3.52650E+03  8.77898E+03  1.35116E+03  1.55251E+03  2.87118E+03 -2.23117E+03  5.40543E+03
 -5.49711E+02  6.66910E+03 -1.93314E+03  3.59981E+03 -8.07505E+03  1.33984E+03 -8.19749E+03 -1.68185E+03
 -9.03393E+03 -1.08079E+04  1.42781E+02 -1.14208E+04  3.74760E+03 -7.34888E+03  5.68751E+03 -8.16250E+02
  3.69812E+03 -1.80467E+03  1.86609E+03  2.26591E+03 -4.42714E+03  6.99538E+03 -1.66208E+03 -1.14466E+03
 -3.61945E+03 -1.36797E+03  7.50799E+03 -4.18215E+03  4.28708E+03 -6.41350E+02  7.45798E+03 -4.12600E+03
  1.83114E+03  4.36690E+03  4.11137E+03  2.22982E+03 -7.18316E+02  3.05166E+03 -9.97568E+02 -3.27556E+03
  2.05150E+03  8.83642E+02  3.91061E+03  3.66623E+03  8.69505E+03  2.16031E+03  5.08327E+02  3.32143E+03
 -2.69860E+03  1.95894E+03 -1.70076E+03 -1.02518E+03  5.02965E+02 -4.39760E+03  4.35972E+02 -2.02646E+03
  4.14716E+03 -3.52412E+03  3.16829E+03 -3.14982E+03  5.57556E+02  9.14243E+02 -1.99062E+03  4.38382E+03
 -6.64373E+02  2.25833E+03 -5.73200E+03 -3.69623E+03 -1.24439E+03 -4.22906E+03 -4.13704E+03  3.57653E+02
  8.75604E+02 -2.47996E+03  6.11818E+03  1.38566E+03  5.15263E+03  4.54560E+03  2.70641E+03 -4.71317E+03
  3.51853E+03 -2.60113E+03 -2.41006E+03  2.01741E+03 -6.01673E+02 -8.14224E+03  3.85868E+03 -4.51628E+03
  9.11633E+03  1.45132E+03  9.04403E+03  7.85692E+02  2.87308E+03  3.48271E+03 -1.69669E+03  5.72341E+03
 -5.32513E+03  4.57431E+02  7.90440E+02  3.70188E+03  1.08003E+03 -1.31592E+03  2.69447E+03  4.31915E+03
  3.59283E+03 -6.25034E+03  6.64380E+01  8.33188E+02  3.82388E+03  3.02815E+03  9.39670E+02  3.57053E+03
 -1.04623E+03  7.05939E+03  2.31155E+03  1.48160E+03 -1.81672E+03 -3.37647E+03 -9.79050E+02  1.88787E+03
 -1.28537E+03  5.22921E+02 -7.54098E+03  1.14067E+03 -1.67281E+03 -6.81911E+02 -3.75040E+03 -3.14001E+03
  3.72489E+03 -4.78403E+03  9.57562E+03 -2.00740E+03  3.52317E+03 -6.65129E+03  5.88508E+03 -7.35423E+03
  1.24556E+03 -2.76756E+03  4.37285E+03  6.91229E+03 -7.52706E+01  8.92246E+03 -1.13680E+03  3.40571E+03
 -1.47013E+03  6.39184E+03 -2.77430E+02 -9.08008E+02  4.78769E+03  2.93427E+02 -9.76730E+01  1.51737E+02
 -3.46245E+03  3.16078E+03 -2.75189E+03  3.32631E+03  1.95791E+03 -2.14036E+03  2.29902E+03 -2.71509E+03
  6.40248E+03  2.47203E+02  2.45979E+03 -1.25632E+03  5.50352E+03  6.82772E+03  5.88799E+02  4.15626E+03
 -4.37319E+02  2.68170E+03 -5.60128E+03  2.47654E+03 -4.49256E+03 -8.78737E+02 -3.30074E+03 -6.53123E+03
 -6.88283E+03 -5.77045E+03  4.29817E+02 -1.08862E+03  2.48713E+03  2.61506E+03  3.71461E+03  8.04171E+02
  3.06970E+03  3.22976E+02  2.15658E+03 -2.09810E+03  4.18616E+03 -2.50873E+02 -2.93335E+03 -4.21186E+03
 -1.47704E+03  1.39600E+03  2.05409E+03  4.08614E+01  2.65040E+03 -2.21393E+02 -3.94533E+03 -4.15391E+02
 -4.35865E+03  2.81953E+03 -1.25647E+03 -6.32877E+02 -2.43248E+02  2.49750E+03 -1.59877E+03 -6.89351E+03
  2.14472E+03  2.13000E+02  1.16378E+01 -1.67428E+03 -2.42009E+03 -6.09876E+03  1.45965E+03  2.91860E+03
  1.07557E+03  7.14417E+03 -2.60908E+03  2.80700E+03 -5.75678E+03  3.41831E+03 -1.87330E+03  1.31104E+03
  7.37919E+02 -8.54106E+02  2.60547E+03  9.10571E+01 -3.00431E+03  2.28113E+03 -3.25078E+03  8.15043E+02
 -1.90603E+03 -1.56744E+03  4.23965E+03 -1.82690E+03  1.71618E+03 -4.42009E+03  3.18985E+03  3.74616E+03
  8.15063E+03  1.85647E+03 -1.51956E+03  3.38197E+03 -2.59351E+02  4.95859E+03  1.05721E+03 -1.92242E+03
