 $NMID ID='MM_0lb_SNR50_17hz_g60_82.RAW', FMTDAT='(8E13.5)'
 TRAMP=1., VOLUME=1. $END
  3.13375E+05 -1.24498E+03  3.39526E+05  2.51737E+05  8.83068E+04  3.37825E+05 -1.33492E+05  2.56086E+05
 -1.89718E+05  8.36614E+04 -1.11735E+05 -3.07282E+04 -1.85298E+03 -4.77026E+04  4.85570E+04  3.95357E+03
  3.49004E+04  5.79520E+04 -1.62596E+04  7.85408E+04 -6.14380E+04  6.59189E+04 -8.80830E+04  3.17430E+04
 -8.33044E+04 -1.42013E+04 -5.83849E+04 -5.22155E+04 -1.95548E+04 -6.92265E+04  2.84044E+04 -4.76607E+04
  4.11104E+04  2.06603E+03  2.13675E+04  4.93443E+04 -3.59659E+04  4.55327E+04 -6.84423E+04  1.88760E+02
 -6.04989E+04 -5.37249E+04 -2.23092E+03 -7.58917E+04  3.31300E+04 -5.31823E+04  4.38502E+04 -1.41463E+04
  4.14332E+04  7.84249E+03  3.17004E+04  2.77250E+04  1.59893E+04  2.44363E+04 -6.10709E+03  2.60081E+04
 -2.08643E+04  1.06321E+04 -2.29782E+04 -7.24649E+03  6.02878E+03 -5.03422E+03  2.10667E+04  1.66930E+04
  4.51219E+03  3.63489E+04 -3.00881E+04  3.44222E+04 -6.19796E+04  3.15820E+03 -5.32622E+04 -4.10524E+04
 -1.21480E+04 -6.49014E+04  3.90880E+04 -4.75278E+04  5.85943E+04 -2.70351E+03  3.23338E+04  2.95836E+04
 -3.39681E+03  3.69235E+04 -2.59234E+04  1.80425E+04 -2.98572E+04 -5.75311E+03 -1.76780E+04 -1.19225E+04
 -8.65211E+03 -1.90496E+04  1.26613E+03 -1.87589E+04  5.41098E+03 -2.19990E+04  1.38569E+04 -1.54497E+04
  8.02386E+03  7.53740E+03 -7.78192E+03  1.22259E+04 -2.05645E+04 -1.11467E+03 -9.02249E+03 -3.57163E+04
  1.84983E+04 -3.87327E+04  4.60395E+04 -1.97938E+04  4.15901E+04  1.80546E+04  1.01587E+04  4.48238E+04
 -1.64570E+04  3.32945E+04 -2.72562E+04  1.09407E+03 -7.84411E+03 -2.94552E+04  2.13855E+04 -3.30746E+04
  4.14903E+04 -1.19918E+04  3.74350E+04  2.96872E+04  1.56098E+04  4.58027E+04 -6.86174E+03  5.24427E+04
 -3.06528E+04  3.08804E+04 -4.00185E+04  1.26632E+04 -3.94363E+04 -1.40762E+04 -2.48737E+04 -3.83920E+04
  6.07559E+03 -3.99452E+04  3.14905E+04 -1.40612E+04  2.89820E+04  1.29823E+04  6.84843E+02  1.67887E+04
 -1.51882E+04  7.68582E+03 -7.83029E+03 -1.21403E+04  4.07903E+03 -6.03768E+03  1.74120E+04  4.69639E+03
  8.13579E+03  2.04388E+04 -2.82773E+03  2.42625E+04 -1.91184E+04  1.06591E+04 -2.79924E+04 -4.75353E+03
 -2.02500E+04 -1.54370E+04 -1.02729E+04 -2.01461E+04  4.78846E+03 -1.75778E+04  1.48930E+04 -2.05058E+04
  2.20856E+04 -9.05280E+03  3.32932E+04  9.75445E+02  2.57752E+04  1.90758E+04  9.08719E+03  3.98172E+04
 -1.55124E+04  3.16335E+04 -2.86771E+04  1.37149E+04 -2.25047E+04 -1.45367E+04 -1.90825E+03 -1.56096E+04
  3.08722E+03 -2.87811E+03 -2.10800E+03  3.07800E+03 -1.84825E+04  4.04040E+02 -1.83894E+04 -7.51314E+03
 -1.01045E+04 -1.65953E+04  5.39421E+03 -2.12704E+04  1.36015E+04 -1.52183E+04  1.42053E+04 -4.88618E+02
  6.88946E+03  1.44879E+04 -5.50837E+03  1.89615E+04 -9.56500E+03  8.26604E+03 -1.84687E+04 -5.70443E+03
 -1.30316E+04 -2.40743E+04 -1.10814E+03 -2.12944E+04  8.59263E+03 -1.70181E+04  1.75225E+04 -9.84788E+03
  1.76106E+04  1.29871E+03  1.16601E+04  1.09446E+02  9.34557E+03 -9.77178E+02  9.60596E+03 -3.03364E+03
  1.56740E+04 -1.53948E+03  1.57042E+04  1.41972E+04  1.25397E+04  3.01998E+04 -1.94569E+03  3.29244E+04
 -2.28994E+04  2.46942E+04 -3.42548E+04  1.19573E+04 -2.96704E+04 -3.94976E+02 -2.56132E+04 -1.73856E+04
 -6.27547E+03 -2.31979E+04  5.28724E+03 -2.42490E+04  1.78966E+04 -9.63400E+03  2.15724E+04  7.17648E+03
  8.88776E+03  9.98599E+03 -7.46672E+03  8.76931E+03 -1.48608E+04 -8.39095E+02 -1.31663E+04 -4.18450E+03
  1.69150E+03 -1.43060E+04  6.45198E+03 -9.00355E+03  8.54235E+03  2.78123E+03  2.92449E+03  4.84644E+03
 -7.05325E+03  1.82333E+03 -2.31176E+03 -7.80247E+03  3.24410E+03 -1.15262E+04  1.15681E+04 -1.35296E+04
  1.52028E+04 -1.88078E+03  2.07512E+04  1.36962E+03  1.16108E+04  1.17021E+04  1.79486E+03  1.28297E+04
 -5.88897E+03  2.06330E+04 -9.85058E+03  1.73348E+04 -1.52435E+04  4.37713E+03 -1.24810E+04 -1.09330E+03
 -6.62240E+03 -4.93982E+03 -4.93671E+02  3.48401E+03 -5.27789E+03  3.61567E+03 -9.54103E+03  5.01668E+03
 -6.67118E+03  1.43607E+03 -1.25524E+04 -8.57176E+03 -5.06548E+03 -1.49893E+04  4.58361E+03 -8.33613E+03
  1.17742E+04 -5.75972E+03  6.80858E+03  1.26033E+03  3.86735E+03  7.16560E+01 -4.16589E+03  3.43976E+03
 -4.00367E+03 -5.99290E+03 -3.41373E+03 -1.23165E+04  5.19183E+03 -7.97701E+03  1.41475E+04 -5.79948E+03
  1.39243E+04  9.67868E+02  1.77042E+04  8.55053E+03  3.88983E+03  1.02976E+04 -5.03876E+03  1.22230E+04
 -7.02892E+03  1.84938E+03 -1.22778E+03 -3.98180E+03  3.09075E+03 -3.86079E+03  5.95758E+03  2.22462E+03
  2.93867E+03  3.44981E+03  3.49808E+03  5.88008E+03 -3.44333E+03  6.86997E+03 -9.58744E+03  3.39339E+03
 -2.88672E+03 -2.73066E+03  8.31595E+02 -7.52858E+03  5.76753E+03 -2.05749E+03  7.92242E+03  5.87749E+02
  3.88556E+03  2.34648E+03 -9.32018E+01  4.43289E+03 -1.09469E+04  1.19049E+03 -4.92710E+03 -7.40085E+03
 -5.35309E+03 -7.58578E+03  8.99133E+01 -7.58177E+03  6.79652E+03 -8.03105E+03  9.65971E+03  1.42049E+03
  7.50592E+03  4.52117E+03 -2.04415E+03  9.73083E+03 -1.67212E+03  7.32625E+03 -4.14936E+03 -8.16715E+02
 -7.70868E+03 -6.62622E+03 -5.85609E+03 -7.79949E+03  6.55616E+03 -8.28252E+03  4.52185E+03 -1.09954E+03
  6.54679E+03  1.76018E+03 -4.67944E+02 -1.36640E+03  3.02916E+03  8.84652E+02  1.77218E+02 -2.08862E+03
  9.82892E+03 -3.21353E+03  7.54201E+03  2.28012E+03  4.45001E+03  6.84774E+03  9.17192E+03  5.77485E+03
 -1.82199E+03  1.10264E+04 -1.16341E+04  1.68560E+04 -1.21813E+04  2.84436E+03 -1.15989E+04 -2.32052E+03
 -7.86221E+03 -8.00137E+03 -2.30816E+03 -7.33853E+03  2.25172E+03 -1.71751E+03  8.43058E+02 -2.79532E+03
  3.27123E+03 -3.27674E+03  2.17325E+03 -2.54552E+03  3.48983E+03 -7.81534E+02  2.25118E+03  1.93069E+03
  6.76031E+03 -3.57353E+03  4.00683E+03  3.49404E+03 -4.15260E+03  1.14623E+03 -4.19442E+03  3.01815E+03
 -9.78142E+03  1.60700E+03 -1.04488E+03 -7.29568E+03  1.18037E+03 -3.07427E+03  2.19650E+03 -7.34553E+03
  8.41533E+03 -3.36813E+03  7.23860E+03 -2.14292E+03  4.70092E+03  1.20294E+03  2.43472E+03  1.07978E+04
 -7.59862E+03  9.51584E+03 -5.22859E+03  3.06784E+03 -2.11134E+03  1.99195E+03  4.14472E+02 -1.00560E+02
 -4.07268E+02  2.08289E+03 -2.38938E+02  5.09769E+03 -5.37483E+03  1.41976E+03 -5.87638E+03  2.45462E+03
 -7.58988E+03 -3.03783E+03  3.20007E+03 -6.51253E+03  1.59305E+03 -5.56886E+03  7.11081E+03  5.44827E+02
  5.26980E+03  2.11098E+03  4.65545E+03  4.96323E+03 -2.50347E+02  8.57218E+03  2.44392E+02  2.99222E+03
 -8.04924E+03  1.64940E+03 -7.63500E+03 -4.29083E+03  2.91321E+02 -3.71097E+03  5.79678E+03 -7.25819E+02
  9.55171E+03  1.17467E+03  2.75131E+03  3.05097E+03 -8.95246E+01  2.34556E+03 -2.08729E+03 -1.95427E+03
 -4.07674E+03  7.56511E+02  3.68042E+03  6.79767E+03  1.12240E+03  4.31831E+03 -2.27735E+03  7.19582E+03
 -1.31754E+03  4.78132E+03 -6.50289E+03  1.16290E+04 -3.38588E+03  5.75074E+02 -4.81108E+03 -1.24503E+03
 -6.14844E+03 -6.07604E+03  2.54141E+03 -4.41988E+03  1.51997E+02 -2.81013E+03  3.31505E+03  2.71782E+03
  6.68712E+03  8.42635E+03  1.77333E+03  4.45111E+03 -7.67683E+02  4.59919E+03 -3.53322E+03 -1.82680E+03
 -4.15710E+02 -4.97237E+03  4.67725E+03 -1.85244E+03  2.80452E+03 -3.41907E+03  2.56436E+03 -3.46291E+01
 -2.16628E+03  1.30687E+03 -1.83238E+03 -1.08834E+03 -3.36249E+02 -3.44924E+02  4.26002E+03 -3.77918E+02
  3.90568E+03 -6.40584E+03  4.31554E+03  3.78031E+03  9.46649E+02  2.33487E+03 -6.06956E+03  1.18852E+03
 -1.68284E+03  3.39807E+03 -2.45464E+03  2.52510E+03 -2.07680E+03 -2.53899E+03  2.10295E+03 -1.24871E+03
  3.75045E+03 -3.67155E+03 -2.04036E+03 -3.25991E+03 -3.41991E+03 -3.10140E+03 -3.83676E+03  2.11498E+03
 -1.52515E+03  8.36540E+03 -2.25336E+03 -1.35963E+03  9.60739E+02 -3.79796E+03 -2.77487E+03 -3.19949E+03
  4.02266E+02  1.92252E+03  4.90606E+03  1.02056E+03  1.55527E+02  1.34137E+03  1.93139E+03  1.77028E+03
 -1.23688E+03 -1.57412E+02 -1.58826E+03 -1.58657E+03  2.16692E+02 -8.50223E+02  4.93786E+03  1.27621E+03
  1.75807E+03  4.41489E+03  4.17483E+03  1.75730E+03  6.10022E+03  3.55616E+03 -3.13057E+03  1.13014E+03
  6.61842E+02 -2.41900E+03 -3.78123E+03 -3.78923E+03 -5.36614E+02  2.14812E+03 -2.36263E+03  1.42877E+03
  3.83661E+03  9.54228E+02  4.21994E+03 -3.71445E+03 -2.08645E+03  5.04667E+03 -3.35342E+02 -4.28770E+02
 -1.71530E+03  1.91891E+03 -2.89448E+03  3.22585E+03  9.01813E+03  1.84078E+03  2.08451E+03 -6.43048E+02
 -6.09154E+03  2.01115E+03 -8.10440E+02  6.22850E+02 -1.76446E+03  2.42400E+03 -1.82199E+03 -1.85994E+03
 -1.57979E+03 -8.07267E+02  8.96752E+02 -5.30099E+03  1.46759E+03 -4.14711E+03  4.32800E+03 -5.76367E+03
  1.03743E+03  1.63942E+03 -2.60235E+03  1.05354E+03  1.33372E+02  1.95159E+03  4.96142E+03  7.36274E+02
 -5.34985E+03  2.00407E+03 -1.50014E+03  1.97190E+02 -3.19565E+02  3.46929E+02 -4.16462E+03 -4.80589E+03
 -2.40691E+03  2.27271E+03 -6.90283E+03  1.13930E+03 -1.47391E+03 -2.30954E+03  2.37511E+03  2.48519E+03
  3.87299E+03  3.96739E+03  1.75232E+03 -1.95328E+03  2.10968E+03  2.34313E+03  1.39651E+03  3.11384E+03
 -3.08781E+03  5.18369E+03 -3.37398E+03  5.11712E+03 -5.37930E+03 -1.98985E+03 -3.16546E+03  3.38434E+03
  8.12946E+02  4.84727E+02 -9.83389E+02 -7.56285E+03 -3.32565E+02 -5.96103E+02 -1.06600E+02 -3.62215E+02
  4.99871E+02 -4.23153E+02 -1.36622E+03  3.77794E+03 -3.06129E+03  1.37446E+03  7.38119E+02  2.10229E+03
  2.19948E+03 -1.75621E+03 -1.54995E+03  3.63331E+03  2.86169E+03  3.20454E+03  3.98479E+03  1.98060E+03
  2.17309E+03 -6.51247E+02 -2.17660E+03 -2.94814E+02 -2.58293E+03 -1.55571E+03  5.93710E+03 -1.45459E+02
  4.49290E+03 -7.65965E+03  9.88343E+02  7.04716E+02 -1.14238E+03  2.85556E+03  5.49312E+02  2.07649E+03
  5.75522E+03 -6.43642E+02  1.91321E+03  1.83644E+03 -1.48268E+03 -9.92440E+02 -1.86739E+03  5.48350E+03
 -2.57073E+03  5.97503E+03 -2.61991E+03 -1.98063E+03  1.33963E+03  2.43481E+03 -1.52233E+03  2.04710E+03
  3.46525E+03  6.01142E+02  8.63223E+02 -4.53706E+03 -8.71096E+02 -2.23382E+03  8.58629E+02 -4.49896E+03
  2.72395E+02 -2.35901E+03  8.70828E+02 -2.46457E+03 -1.75188E+03 -1.21391E+03 -3.90027E+03 -1.06736E+03
