 $NMID ID='MM_0lb_SNR50_18hz_g45_7.RAW', FMTDAT='(8E13.5)'
 TRAMP=1., VOLUME=1. $END
  3.10873E+05 -5.08429E+02  3.39119E+05  2.50906E+05  8.24135E+04  3.42153E+05 -1.34575E+05  2.52955E+05
 -1.86994E+05  8.39574E+04 -1.10986E+05 -2.89740E+04  6.67731E+02 -5.02946E+04  5.24006E+04  2.64465E+03
  3.49595E+04  5.34714E+04 -1.37460E+04  7.54911E+04 -5.99092E+04  6.29481E+04 -8.50182E+04  3.32983E+04
 -8.10790E+04 -1.08788E+04 -5.23153E+04 -5.24960E+04 -1.60046E+04 -6.82673E+04  2.58900E+04 -4.11875E+04
  4.11866E+04  6.59522E+03  1.70775E+04  4.34369E+04 -3.37336E+04  4.25307E+04 -6.54532E+04 -1.46819E+03
 -4.95360E+04 -5.58661E+04 -5.56685E+03 -7.52203E+04  3.16010E+04 -5.04155E+04  4.82632E+04 -1.39053E+04
  4.33090E+04  1.13032E+04  3.17251E+04  2.48592E+04  1.98128E+04  3.04355E+04 -1.97757E+03  2.61364E+04
 -2.18051E+04  1.11486E+04 -1.70292E+04 -4.67110E+03  6.17296E+03 -5.91901E+03  2.04202E+04  7.91465E+03
  8.06438E+03  2.97280E+04 -2.84087E+04  3.74016E+04 -6.20446E+04  2.60048E+03 -5.32608E+04 -4.54186E+04
 -1.20643E+04 -6.24266E+04  3.41850E+04 -4.58780E+04  5.46529E+04 -1.29379E+03  2.89460E+04  3.19848E+04
 -1.09831E+04  3.59737E+04 -2.59949E+04  1.67026E+04 -2.55639E+04 -6.63361E+03 -1.35248E+04 -1.10561E+04
 -1.07914E+04 -1.33868E+04 -1.28197E+03 -1.51325E+04  9.07643E+03 -2.35248E+04  1.69379E+04 -1.49606E+04
  1.15877E+04  1.07969E+03 -8.40755E+03  1.29960E+04 -1.76267E+04 -4.55325E+03 -4.77725E+03 -3.22023E+04
  2.20743E+04 -3.85763E+04  4.81129E+04 -2.04413E+04  4.33662E+04  1.73684E+04  1.08229E+04  3.93849E+04
 -1.84313E+04  3.10770E+04 -2.09644E+04  1.28666E+02 -1.09757E+04 -2.66236E+04  1.81381E+04 -3.02342E+04
  4.02015E+04 -4.36247E+03  3.45391E+04  2.41097E+04  1.62404E+04  4.13557E+04 -1.08672E+04  4.60551E+04
 -2.56785E+04  2.83555E+04 -3.40863E+04  7.27615E+03 -3.90246E+04 -1.51521E+04 -1.76715E+04 -3.12881E+04
  8.40947E+03 -3.79861E+04  2.98544E+04 -1.37785E+04  2.81520E+04  6.86030E+03  1.01875E+03  1.91306E+04
 -1.03792E+04  6.04775E+03 -1.20726E+04 -7.87176E+03  6.94639E+03 -1.20151E+04  1.88118E+04  1.01401E+04
  1.45951E+04  2.14887E+04 -5.34768E+03  2.32204E+04 -2.53347E+04  9.18761E+03 -2.41676E+04 -4.99421E+03
 -1.74571E+04 -1.70016E+04 -5.50909E+03 -1.67367E+04  5.15884E+03 -1.17783E+04  1.20856E+04 -1.65572E+04
  2.13859E+04 -1.16283E+04  3.12425E+04 -2.58149E+02  2.76754E+04  2.05523E+04  6.98667E+03  3.54898E+04
 -1.52775E+04  2.61286E+04 -2.53951E+04  1.19193E+04 -1.99664E+04 -1.24001E+04 -2.44929E+03 -1.74042E+04
  3.91940E+03 -3.27003E+03 -4.04850E+03  7.80633E+03 -1.67261E+04  2.27250E+03 -8.74481E+03 -5.42952E+03
 -7.32335E+03 -1.88351E+04  9.40492E+03 -2.04890E+04  1.63207E+04 -1.32790E+04  1.49748E+04  4.34802E+02
  8.79255E+03  1.32572E+04 -2.25317E+03  1.24848E+04 -9.28860E+03  1.18302E+04 -1.81186E+04 -4.33327E+03
 -1.24638E+04 -1.27987E+04 -5.02514E+03 -2.09478E+04  1.30919E+04 -1.81912E+04  1.68980E+04 -6.33766E+03
  1.57346E+04 -2.21961E+03  8.52634E+03  2.03347E+03  7.72646E+03 -3.01472E+02  5.00577E+03  8.80532E+02
  1.63084E+04  2.00981E+03  1.76359E+04  1.25046E+04  8.67796E+03  2.82206E+04 -1.88112E+03  2.66714E+04
 -1.31976E+04  1.87375E+04 -2.49505E+04  6.85463E+03 -2.50614E+04  4.85967E+02 -2.19758E+04 -1.73804E+04
 -9.83888E+03 -2.41332E+04  5.09245E+03 -1.94653E+04  1.85350E+04 -9.26488E+03  1.49530E+04  6.24016E+03
  2.84725E+03  7.84343E+03 -3.89491E+03  1.00340E+04 -1.03597E+04  5.50514E+03 -1.22636E+04 -8.29103E+03
  2.40076E+03 -1.43731E+04  8.85185E+02 -9.95595E+03  6.37799E+03 -1.07676E+03  1.50866E+03  4.17439E+03
 -5.71520E+03  1.77507E+03 -9.01548E+03 -4.41428E+03 -1.62681E+03 -7.35599E+03  3.98168E+03 -1.25288E+04
  1.26211E+04 -6.75227E+03  1.00710E+04  7.81727E+03  1.09237E+04  7.79292E+03  4.91047E+03  1.57582E+04
 -5.26782E+02  1.31015E+04 -1.41467E+04  3.40483E+03 -1.05199E+04  1.83773E+03 -7.73304E+03 -2.78020E+03
 -5.50254E+03 -2.08486E+02 -2.31389E+03  1.02276E+03  9.73991E+00  1.08629E+03 -5.78283E+03  2.53672E+03
 -6.83596E+03  1.59761E+03 -7.17268E+03 -5.57343E+03 -1.89041E+03 -1.20699E+04 -5.77840E+02 -9.05405E+03
  8.89156E+03 -3.92781E+03  6.39082E+03  4.45238E+03  3.64579E+03  3.45518E+03 -3.91589E+03 -1.24679E+03
 -4.64386E+03 -7.68107E+02 -3.07320E+02 -8.10152E+03  4.85762E+03 -6.10493E+03  1.08290E+04 -4.10964E+03
  1.55249E+04  3.27386E+03  8.95315E+03  6.48656E+03 -3.09010E+02  6.87051E+03 -2.22842E+03  6.52431E+03
 -5.91795E+03  7.91525E+03 -1.44128E+03 -9.72761E+03  2.26034E+03 -2.31421E+03  8.72212E+03 -4.16387E+02
  5.46238E+03  5.40224E+03  1.26209E+03  5.92141E+03 -4.90548E+03  7.59995E+03 -4.13654E+03  1.88439E+03
 -3.61952E+03 -3.06376E+03  3.24430E+03 -3.73639E+03  4.43874E+03 -7.79239E+03  1.40871E+03  7.85062E+02
  4.74448E+03  6.80412E+03 -2.12078E+03  6.01963E+03 -4.45950E+03 -2.36826E+03 -6.67355E+03  8.88412E+02
 -3.71616E+03 -6.54059E+03  5.98157E+03 -5.03798E+03  2.31223E+03 -3.84595E+03  9.09882E+03  9.44735E+02
  2.40011E+03  2.14479E+03  9.50639E+01  6.99946E+03 -6.99906E+03  6.29424E+03 -9.37360E+03  3.24756E+02
 -6.34416E+03 -4.82327E+03  1.12977E+03 -6.88614E+03  2.23212E+03 -5.66907E+03  1.95993E+03 -5.54017E+03
  5.21925E+03 -2.39521E+03  9.93918E+02 -1.37724E+03 -6.65160E+02  1.91348E+03  2.97083E+03 -2.90168E+03
 -5.72443E+02 -2.79852E+03  6.62903E+03 -1.08117E+03  1.20088E+04  2.34707E+03  5.10855E+03  7.45599E+03
  1.40299E+03  9.83038E+03 -6.33010E+03  8.38765E+03 -6.89973E+03  5.49093E+03 -4.67731E+03 -9.92404E+02
 -4.93536E+03 -6.70242E+03 -7.39286E+02 -3.20454E+03  7.92926E+03 -5.08408E+03  9.73025E+02 -1.45582E+03
 -8.98277E+02 -1.23263E+03 -5.48158E+02 -3.47529E+03  9.10670E+02 -2.44399E+03  1.48910E+03  3.73045E+03
  6.01388E+03  1.90468E+03  2.74029E+03  3.43899E+03 -3.47618E+03  6.85772E+02 -5.07728E+03  4.29954E+03
 -4.62153E+03 -1.67495E+03 -1.47074E+03 -3.17001E+03 -9.03323E+02 -3.64235E+03  3.15624E+03 -6.03851E+03
  6.52144E+03 -2.88260E+03  4.50721E+03  4.53062E+02  3.23703E+03  1.19155E+03  2.35700E+03  4.49342E+03
 -7.86843E+02  9.39630E+03 -1.75517E+03  1.57405E+03 -9.15895E+02  1.11541E+03 -2.16231E+03 -2.05221E+03
 -9.91688E+02 -1.51052E+03 -3.38549E+03  4.83334E+03 -5.84207E+01  2.03504E+03 -8.94720E+03 -5.39178E+03
 -6.05430E+02 -4.92587E+03 -2.98991E+03 -6.62796E+03 -1.22190E+02 -6.58487E+03  5.38647E+03 -6.69321E+03
  5.47921E+03 -5.88929E+02  2.07428E+03  1.23963E+03 -3.61321E+03  5.03872E+03 -2.03915E+03  2.43703E+03
 -1.40178E+03  4.18254E+03 -8.72459E+03 -2.36892E+03 -3.25829E+03 -3.51652E+03  4.69976E+03 -2.88665E+03
  5.14963E+03 -6.33376E+01  5.01513E+02 -9.68017E+02  4.66570E+02  3.18999E+03 -2.05691E+03 -2.70935E+03
  7.96601E+03 -6.24708E+02 -2.37348E+02  2.24017E+03  2.43958E+03  5.54978E+03  5.44240E+03  1.25538E+03
  8.84032E+02  9.17279E+03  5.39847E+02  5.64557E+03 -3.96777E+03  6.67386E+02 -8.92368E+03  1.44215E+03
 -5.21637E+03 -2.68813E+03 -3.10790E+03 -8.51938E+02  2.12428E+03 -4.93885E+03  3.45931E+03 -3.28209E+03
  4.01196E+03  6.58927E+00 -1.14083E+03  1.61410E+03 -2.39329E+03  2.58653E+03  1.73799E+03 -2.99817E+02
  9.85889E+02 -5.64847E+02 -2.40692E+03 -1.93759E+03 -1.16424E+01  4.46662E+03 -2.23196E+03  4.39096E+03
  2.71789E+03  3.40035E+02  1.65155E+03 -2.07805E+03  1.54042E+03  4.18072E+03 -1.53039E+03 -1.09796E+03
  2.12865E+02  1.81371E+03  6.74409E+02 -2.65863E+03  3.05756E+03 -2.79011E+02 -9.33428E+02  1.58972E+03
 -2.92708E+03  2.04454E+03 -4.11847E+03 -1.44306E+03 -1.65114E+03 -2.88926E+03 -2.16961E+03 -4.98673E+03
 -5.06935E+02  2.55689E+03 -5.11497E+02 -4.00185E+03  1.24101E+03 -3.36761E+03 -7.58251E+02  4.34861E+03
 -4.79359E+03  1.89208E+03  3.24320E+02 -1.86854E+02 -4.00517E+03 -3.73030E+03  2.51582E+03  6.35662E+03
 -4.40117E+03 -3.81735E+03  2.09291E+03 -4.09422E+03  4.48100E+03  4.31917E+03 -4.69206E+01  1.56066E+01
 -1.85106E+03  8.60409E+02  1.24321E+03 -1.87623E+03 -2.05731E+03 -6.66073E+02  3.35769E+03  1.43492E+03
  3.01043E+03  2.21614E+03  6.99533E+03  3.67055E+03  7.99768E+02  5.86300E+03  6.53583E+03  1.67553E+03
  4.11922E+03 -2.53935E+03 -3.25247E+03  1.46845E+03 -4.91729E+02 -4.84525E+03  3.00079E+03 -5.34336E+03
  1.84342E+03 -9.29944E+02  1.60950E+03  4.03007E+03 -1.11772E+03  2.85110E+03 -3.40902E+03  1.91660E+03
  2.11769E+02  1.28414E+03  2.37363E+03  2.65277E+03 -1.54770E+03 -6.03769E+03  2.34202E+02 -1.58127E+03
 -3.21634E+03  4.17466E+02 -2.31365E+03  5.32910E+03 -4.16153E+03 -1.68033E+03 -2.06154E+03 -1.69680E+03
 -3.19674E+03 -4.04207E+03  2.54597E+02  5.19571E+02 -1.26798E+03  2.25915E+03  7.35690E+01 -2.59004E+03
 -1.84412E+01  1.54730E+03  7.67079E+03  2.51173E+03 -1.64028E+03  3.17824E+03 -3.52613E+03  1.12074E+03
 -3.64574E+03  1.50544E+03 -6.94880E+03  1.92777E+03 -9.74146E+02 -1.61080E+02 -1.12004E+03 -1.94758E+03
 -3.81910E+03 -1.78503E+03 -3.98491E+03 -7.57386E+02 -4.86738E+02  3.54093E+03 -4.95126E+03 -1.21883E+03
  5.74864E+02  1.82300E+03 -1.24636E+03  1.22286E+02  1.48573E+03  8.93791E+02  3.30317E+03  4.58446E+03
 -2.91369E+02  2.80837E+03 -4.54310E+03 -1.94706E+03  3.24902E+03 -1.85813E+03  3.50511E+03 -2.12602E+03
 -2.50148E+03  2.21318E+03 -7.57339E+02  2.22403E+03  5.57063E+03 -4.15772E+03 -9.34806E+02 -1.99218E+03
 -1.12125E+03  2.20072E+03  2.88589E+03  3.88878E+03  5.05513E+02 -1.31132E+03 -9.21671E+02 -8.31243E+02
  2.66564E+03 -2.47061E+03 -1.45912E+03 -4.56535E+03 -9.94573E+02  5.22254E+03 -4.28186E+03  7.72141E+02
 -1.41780E+03  4.93470E+03 -4.66284E+03 -7.43586E+02 -2.13248E+03 -1.07699E+03  2.92826E+03 -1.53544E+02
  8.48355E+02 -5.68324E+02 -2.74402E+03 -6.54884E+02  2.99535E+03  3.98046E+03 -1.02267E+03  2.19076E+03
  2.78177E+02 -1.91731E+03 -6.75735E+02  3.09187E+03  1.53963E+03  1.30591E+02 -4.02556E+03  4.38168E+02
  4.15152E+02  2.26246E+02 -1.11537E+03  2.41200E+02  1.46694E+03 -1.89968E+03 -4.41590E+03 -7.91166E+02
 -9.29710E+02  8.56298E+01  7.72330E+02 -2.94337E+03 -5.11098E+02 -2.19062E+03  1.47280E+03  3.12094E+02
  1.69987E+01 -1.15850E+03  9.33949E+02  1.38519E+03 -3.61468E+03  1.05056E+03 -6.95707E+02  3.01391E+03
