 $NMID ID='MM_0lb_SNR50_18hz_g55_21.RAW', FMTDAT='(8E13.5)'
 TRAMP=1., VOLUME=1. $END
  3.09800E+05 -2.11389E+02  3.36640E+05  2.51298E+05  8.33312E+04  3.37886E+05 -1.34934E+05  2.52701E+05
 -1.92645E+05  8.32889E+04 -1.10283E+05 -3.59811E+04 -1.05492E+03 -5.35546E+04  5.24556E+04 -1.39462E+03
  3.56915E+04  5.70200E+04 -1.41797E+04  7.18744E+04 -5.82427E+04  6.22492E+04 -7.80095E+04  2.96109E+04
 -8.01203E+04 -9.06166E+03 -5.17051E+04 -5.09035E+04 -1.31443E+04 -7.14618E+04  2.59117E+04 -4.61816E+04
  3.90630E+04  2.30119E+03  1.61106E+04  4.82583E+04 -3.57949E+04  4.61638E+04 -6.27991E+04 -3.12309E+03
 -5.34395E+04 -5.63929E+04 -3.83044E+03 -7.37591E+04  3.09817E+04 -5.63483E+04  4.44385E+04 -1.77509E+04
  4.07686E+04  1.32322E+04  2.87550E+04  2.61685E+04  2.03304E+04  2.92884E+04 -2.47452E+03  2.53299E+04
 -2.34755E+04  1.25145E+04 -2.18534E+04 -5.06505E+03  3.28849E+03 -1.02287E+04  1.88500E+04  1.28828E+04
  7.00959E+03  3.62015E+04 -2.71136E+04  3.89000E+04 -6.34656E+04  5.22333E+03 -5.86228E+04 -4.29813E+04
 -1.52779E+04 -5.96965E+04  3.62068E+04 -4.85404E+04  5.88302E+04 -1.38579E+03  3.23449E+04  3.28509E+04
 -5.49589E+03  3.50676E+04 -3.25855E+04  9.87840E+03 -2.88251E+04 -4.96496E+03 -1.84465E+04 -4.45575E+03
 -4.11311E+03 -1.22107E+04  1.66934E+03 -2.12660E+04  6.27696E+03 -2.64702E+04  1.79374E+04 -1.26435E+04
  1.35682E+04  4.92408E+03 -1.17238E+04  9.50788E+03 -1.65012E+04 -2.35185E+03 -1.05443E+04 -3.18963E+04
  2.04877E+04 -4.00348E+04  4.58983E+04 -2.07850E+04  4.52660E+04  2.55232E+04  1.04791E+04  4.13099E+04
 -1.36843E+04  3.17241E+04 -1.96237E+04 -2.97144E+03 -1.01362E+04 -2.63144E+04  2.44286E+04 -3.44617E+04
  3.78512E+04 -1.27490E+04  3.11427E+04  2.36204E+04  2.10910E+04  4.32881E+04 -8.78507E+03  5.31783E+04
 -2.26998E+04  3.25699E+04 -3.93491E+04  7.21086E+03 -3.79770E+04 -1.60303E+04 -2.19566E+04 -3.44817E+04
  4.37351E+03 -3.70120E+04  2.54244E+04 -1.24744E+04  2.98760E+04  1.33015E+04  2.92080E+03  2.35196E+04
 -1.25232E+04  4.64265E+03 -9.12107E+03 -1.09085E+04  8.23591E+03 -1.03832E+04  2.12808E+04  4.14673E+03
  1.20918E+04  1.66931E+04 -3.74826E+03  2.15190E+04 -2.32016E+04  1.20221E+04 -2.50073E+04 -2.12659E+03
 -1.67052E+04 -2.15364E+04 -1.18561E+03 -2.03337E+04  5.00563E+03 -1.92637E+04  1.64181E+04 -1.60952E+04
  2.80948E+04 -1.27264E+04  3.01048E+04  1.90874E+03  2.47981E+04  1.64027E+04  1.75582E+03  3.48110E+04
 -1.50349E+04  2.84810E+04 -2.79988E+04  1.15313E+04 -2.47797E+04 -1.31234E+04 -5.80141E+03 -1.00643E+04
 -1.70690E+03 -9.74749E+02 -4.03095E+02  2.81192E+03 -1.15101E+04  6.23448E+03 -1.00184E+04 -5.75826E+03
 -9.12904E+03 -1.98517E+04  6.68436E+03 -1.88736E+04  1.32984E+04 -1.32279E+04  1.51014E+04  4.80961E+03
  7.11929E+03  9.27698E+03 -1.14381E+03  2.06728E+04 -1.06429E+04  1.30168E+04 -1.79764E+04 -7.87176E+03
 -1.34520E+04 -1.59228E+04  2.61308E+03 -1.65422E+04  1.24794E+04 -1.38885E+04  1.54081E+04 -3.87925E+03
  1.29738E+04  3.88647E+03  1.23192E+04  1.63203E+03  7.92691E+03  3.38522E+03  8.99026E+03 -3.14366E+03
  1.44063E+04  2.36944E+03  1.77109E+04  1.50841E+04  1.12023E+04  2.84203E+04 -1.84732E+03  3.11515E+04
 -1.39454E+04  2.20419E+04 -2.40930E+04  1.13505E+04 -2.43692E+04 -1.27545E+03 -2.17576E+04 -1.16638E+04
 -1.03511E+04 -2.56826E+04  1.08787E+04 -2.14160E+04  2.05015E+04 -1.39930E+04  1.79068E+04  6.52046E+03
  5.48554E+03  9.78831E+03 -1.05229E+04  1.19131E+04 -1.75039E+04  1.22418E+03 -1.26382E+04 -5.46896E+03
  2.45736E+03 -1.01384E+04  9.81050E+03 -1.16065E+04  1.12751E+04 -4.97607E+02  1.57509E+03  8.13383E+03
 -6.03049E+03  3.88468E+02 -7.56839E+03 -4.71281E+03  9.24434E+02 -1.16104E+04  6.85953E+03 -1.14702E+04
  1.91154E+04 -4.73784E+03  1.50487E+04 -5.06102E+01  1.20597E+04  1.00575E+04  4.65349E+03  1.92552E+04
 -1.01921E+03  1.73291E+04 -1.01361E+04  1.04068E+04 -1.67718E+04  4.73911E+03 -5.34882E+03 -6.73740E+03
 -3.94794E+03 -3.97950E+03 -3.56807E+01  2.76422E+03 -8.19150E+02  2.33871E+03 -1.08437E+03 -6.78048E+02
 -7.06246E+03  3.92660E+02 -1.13107E+04 -8.57798E+03 -4.17557E+03 -1.21035E+04  3.85088E+03 -4.52893E+03
  9.36003E+03 -1.92033E+03  6.39694E+03  3.02385E+03 -3.31464E+02  2.44517E+02 -4.41997E+03 -3.80459E+03
 -5.03995E+03 -4.61532E+03 -4.34676E+02 -9.78195E+03  5.34114E+02 -1.08377E+04  8.13424E+03 -3.26115E+03
  1.77204E+04 -2.81886E+03  8.53951E+03  8.94600E+03  2.81338E+03  1.06856E+04 -9.92122E+02  7.70647E+03
 -1.11826E+04  2.47175E+01  9.41775E+02  8.30731E+02 -7.17208E+02 -2.19767E+03  5.72754E+03 -2.98556E+03
  4.45439E+03  2.11370E+03  2.74811E+02  6.90512E+03 -1.72952E+03  6.29193E+03 -1.11290E+04  2.39938E+03
  1.72152E+03 -5.13131E+03 -1.30850E+03 -3.74602E+03  3.34547E+03 -3.20543E+03  3.80231E+03  7.75341E+02
 -1.96076E+03  2.53828E+03 -8.26777E+03  8.55450E+03 -2.27541E+03  1.90292E+03 -5.77928E+03 -1.39599E+03
 -6.20986E+03 -6.82836E+03 -2.24629E+02 -1.05189E+04  7.20335E+03 -3.72248E+03  6.21233E+03  1.82795E+03
  7.94353E+03  2.38929E+03  1.12500E+03  7.95999E+03 -7.34037E+03  1.43895E+03 -4.66035E+03 -2.23278E+02
 -2.77870E+03 -7.28938E+03 -1.01021E+03 -3.76292E+03 -3.44872E+03 -3.11816E+03  6.39380E+03 -3.25741E+03
  4.68926E+03 -2.16157E+03  5.36929E+02 -1.96726E+03  2.37934E+03 -3.69339E+03  4.80741E+02 -4.33535E+03
  5.62445E+03  8.40713E+01  4.21920E+03  1.11093E+03  1.23198E+04  3.37545E+03  7.67567E+03  1.07263E+04
 -4.65104E+03  9.78859E+03 -3.84804E+03  7.07952E+03 -7.33896E+03  6.10896E+03 -1.32065E+04 -8.59284E+02
 -4.50879E+03 -9.20080E+03 -4.36077E+01 -1.03872E+04  4.54393E+03 -3.66969E+03 -7.70416E+02  1.12717E+03
  4.18449E+03 -1.08477E+03 -7.22165E+02 -2.69187E+03  9.36038E+03  7.57227E+01  3.87416E+03  2.83327E+03
  2.73615E+03  6.25063E+03  9.71181E+02  3.55224E+03 -5.13649E+02  6.77401E+03 -1.94613E+03  7.59693E+03
 -2.21694E+03 -1.56072E+03 -4.69961E+03 -9.84667E+02  1.18516E+02 -8.28304E+03  4.36474E+03 -3.28150E+03
  5.57350E+03 -7.90907E+02  7.89434E+03 -9.22693E+02  6.20500E+03  8.09834E+03  3.17997E+03  6.04200E+03
 -3.48250E+03  5.26079E+03 -5.52261E+03  5.40432E+03 -3.00858E+03  2.69327E+03  5.09842E+02  6.81667E+02
  1.86389E+02 -4.19749E+02  1.35040E+02  1.88525E+03 -1.44858E+03 -1.25154E+03 -2.26151E+03 -1.09034E+03
  9.47731E+02 -1.61900E+03  3.15296E+03 -2.95864E+03  2.18471E+03 -1.01877E+04  6.06672E+03 -3.92544E+03
  6.44808E+03  5.05453E+03  1.69087E+02  2.56177E+03 -7.45148E+02  4.39852E+03  1.78816E+03  8.41943E+02
 -2.41722E+03 -6.93596E+02 -8.76901E+03 -7.44061E+02 -1.11958E+03 -5.93243E+03 -4.56165E+02 -4.62905E+03
 -8.74142E+02 -4.03207E+03  1.43229E+03  3.73501E+03  1.73543E+03 -1.04279E+02 -3.38954E+02 -2.30952E+03
  1.65160E+03  9.74618E+02  3.37470E+03  9.54429E+02 -1.54776E+03  2.09774E+03  8.75253E+02  3.11771E+03
 -2.92481E+02  7.69326E+03 -3.66269E+03  5.31147E+03 -2.13533E+03 -1.22789E+03 -4.64225E+03  7.69803E+01
 -5.88343E+03 -3.11559E+03  2.52229E+03 -4.08891E+03  7.67969E+02 -1.83965E+02  3.84560E+03 -2.55370E+03
 -1.15845E+03  3.17711E+03 -1.44173E+03  3.14103E+03 -4.75786E+03  6.90071E+03 -3.16648E+03  8.94589E+02
  5.05653E+02 -5.89078E+02 -4.18859E+02 -1.80192E+02  4.27547E+01 -6.36297E+02 -8.35664E+02  2.32166E+03
 -1.29023E+02 -9.41023E+01  2.26255E+03  1.27099E+02 -6.92624E+02 -6.25357E+02  2.14560E+03  2.70237E+03
  2.33211E+02 -8.56398E+02  5.70422E+03  1.64509E+03 -4.03735E+01  1.17146E+03 -3.18791E+03  2.61007E+03
  1.72609E+03  4.57695E+02 -7.54814E+03  5.64107E+03 -3.96713E-01  6.42106E+03 -1.18666E+03  2.79148E+03
  2.36912E+03 -2.70578E+03 -6.67929E+02  1.15850E+02 -2.68141E+03  1.85665E+03 -2.72961E+03 -2.37152E+03
 -1.38642E+03  5.60825E+03  2.16208E+03  2.97541E+03  7.25013E+02  4.36776E+02 -2.50593E+03  8.85955E+02
  7.22339E+02  5.75236E+00  2.62529E+03  1.24635E+03  2.94619E+03 -1.65353E+02  3.55678E+03  4.57231E+03
  3.22691E+03 -2.37430E+03  1.03158E+03 -1.48004E+03 -4.80147E+02 -2.79303E+03  8.78616E+03  1.66865E+03
 -1.23520E+03 -2.29709E+03  2.10939E+03 -2.37354E+02  1.68301E+03 -2.55912E+03  3.54083E+03 -6.18849E+02
 -2.40851E+03  1.38215E+03 -1.65400E+03  6.83997E+03 -2.65988E+03 -2.18607E+03  5.15689E+03 -1.33761E+03
 -2.75791E+03 -3.45318E+03  4.21767E+03  9.15734E+02  1.37033E+03 -3.81112E+03 -1.04639E+03  1.07660E+03
  1.53354E+03  2.19225E+03  6.20571E+02 -1.30200E+02 -1.53385E+03  9.10048E+02  1.58713E+03 -1.62561E+02
 -4.19786E+03  3.32840E+03 -4.44888E+03 -1.45498E+03 -4.90019E+02 -3.22769E+03 -8.12146E+02  4.86257E+02
 -4.70187E+03 -6.97282E+02 -2.18831E+03 -3.67788E+03  4.59765E+02 -3.11907E+03  1.67623E+03  7.79267E+02
 -2.55583E+03  1.72471E+03  6.83348E+02  2.16426E+03 -6.31491E+02  4.73568E+03  1.39492E+03 -2.58838E+03
 -7.16547E+02 -1.87611E+03 -1.47596E+03  4.75004E+02  1.29145E+03 -9.87287E+02 -6.19437E+02 -6.28560E+00
 -7.24994E+02  4.10301E+03  1.10872E+03 -2.70607E+03  5.80703E+02 -4.18887E+03 -5.79703E+03 -3.70491E+03
 -4.42257E+03 -3.20503E+03  2.82221E+02 -1.71623E+03 -8.25059E+02  7.85146E+02  2.01226E+03  6.41453E+01
 -7.14448E+03  1.53278E+03  2.69427E+03  7.81948E+02 -3.66972E+03 -3.37044E+03 -2.90848E+03 -3.68979E+03
  6.60837E+03 -8.06441E+02 -2.21776E+03  1.59782E+03  7.08892E+02  1.06140E+03 -2.78039E+03  1.50239E+03
  3.29228E+03  3.73302E+03 -3.07940E+03  3.69966E+03  1.32415E+03 -4.18628E+03  3.74954E+03 -1.31465E+03
  1.25822E+03 -2.98926E+02  1.42908E+03 -8.70968E+02  2.70435E+02  3.65685E+03 -3.52126E+03  6.45404E+02
 -3.67881E+03  2.83716E+03  8.90440E+01 -9.28037E+02  3.60101E+02  1.22772E+02  2.15145E+03 -4.10690E+03
 -3.32155E+03 -1.76904E+03 -4.84664E+03  3.58699E+03 -2.77005E+03 -3.02035E+03 -2.11620E+03 -2.97442E+03
 -3.38238E+03 -2.98630E+01  5.36210E+01 -2.11538E+03 -3.95903E+03  1.55463E+03  6.42029E+02 -1.26785E+03
  4.71775E+03  1.75092E+03  3.79971E+03  6.89126E+03 -1.74352E+03 -2.06816E+02  3.75303E+03  3.58619E+03
 -4.94914E+02  2.93670E+03 -1.11321E+03  5.39458E+02  1.25927E+03 -1.47692E+03 -1.53994E+03 -7.39338E+02
 -1.62171E+03 -2.23827E+03 -7.54937E+02 -1.50976E+03  2.68745E+03  2.04087E+03  2.54896E+03  3.62473E+02
