 $NMID ID='MM_0lb_SNR50_19hz_g45_2.RAW', FMTDAT='(8E13.5)'
 TRAMP=1., VOLUME=1. $END
  3.14491E+05 -1.17669E+03  3.39661E+05  2.48890E+05  8.47753E+04  3.36949E+05 -1.34727E+05  2.54897E+05
 -1.90411E+05  8.49772E+04 -1.12293E+05 -3.20047E+04  1.98353E+03 -4.91262E+04  5.38884E+04 -1.46361E+03
  3.19186E+04  5.46226E+04 -1.62563E+04  7.10775E+04 -6.38514E+04  6.05259E+04 -8.23828E+04  3.12495E+04
 -7.77931E+04 -9.30019E+03 -5.65008E+04 -4.66155E+04 -1.19324E+04 -6.82248E+04  2.74541E+04 -4.57614E+04
  3.70546E+04  5.69114E+03  1.74676E+04  4.62288E+04 -3.14754E+04  4.39718E+04 -6.59610E+04 -2.11572E+03
 -5.46897E+04 -5.61373E+04 -9.83332E+03 -7.33873E+04  3.27205E+04 -5.79153E+04  4.33645E+04 -1.51838E+04
  4.15612E+04  1.07160E+04  3.21079E+04  2.53032E+04  1.31119E+04  2.72433E+04 -3.93760E+03  2.44541E+04
 -2.24678E+04  1.37896E+04 -2.61991E+04 -2.61606E+03  3.29760E+03 -1.12128E+04  2.16372E+04  1.21252E+04
  5.74812E+03  3.46825E+04 -3.21601E+04  3.28023E+04 -6.00731E+04  4.10019E+03 -5.69489E+04 -3.97915E+04
 -1.13589E+04 -5.65337E+04  3.80116E+04 -4.29503E+04  5.30062E+04  1.89534E+03  3.06262E+04  2.99962E+04
 -6.62435E+03  3.22182E+04 -2.89809E+04  1.38173E+04 -2.70347E+04 -8.13528E+03 -1.47503E+04 -1.03086E+04
 -5.95962E+03 -1.27508E+04 -3.90370E+03 -1.61046E+04  5.70034E+03 -2.28456E+04  1.48300E+04 -1.32876E+04
  1.05805E+04  2.23959E+03 -6.05852E+03  8.55506E+03 -1.62320E+04 -2.52491E+03 -7.36401E+03 -2.79241E+04
  2.13863E+04 -3.80476E+04  4.26518E+04 -1.62881E+04  3.91912E+04  1.71837E+04  1.31041E+04  3.91274E+04
 -1.67207E+04  3.09228E+04 -2.47568E+04  2.48373E+02 -6.48069E+03 -2.45624E+04  2.38053E+04 -3.21403E+04
  3.72514E+04 -6.18693E+03  3.38849E+04  1.90655E+04  1.83214E+04  4.34328E+04 -8.56599E+03  4.19134E+04
 -2.70550E+04  3.30085E+04 -3.11289E+04  9.12818E+03 -3.70205E+04 -1.74703E+04 -2.07345E+04 -3.66916E+04
  6.69770E+03 -3.29787E+04  2.91703E+04 -1.37622E+04  2.67888E+04  1.35797E+04  1.51669E+03  1.66467E+04
 -1.61083E+04  6.62682E+03 -1.05712E+04 -7.18018E+03  7.56467E+03 -1.05405E+04  1.10531E+04  6.77836E+03
  1.65041E+04  2.59659E+04 -7.13761E+03  2.48602E+04 -1.96063E+04  6.65046E+03 -2.36064E+04 -5.64677E+03
 -1.40044E+04 -1.51058E+04 -5.54940E+03 -1.94968E+04 -6.24938E+02 -1.22317E+04  1.11937E+04 -1.51109E+04
  2.04049E+04 -1.07596E+04  2.54529E+04 -1.38201E+02  2.36072E+04  1.05812E+04  5.34570E+03  2.83659E+04
 -1.23734E+04  2.87906E+04 -2.51609E+04  1.30030E+04 -2.06934E+04 -6.93724E+03 -3.91951E+03 -1.48034E+04
  3.57897E+03 -2.66293E+03 -2.62267E+03  2.60232E+03 -1.21373E+04  3.77847E+03 -1.08127E+04 -3.97454E+03
 -6.93416E+03 -1.27514E+04  6.37055E+03 -1.83705E+04  1.30797E+04 -1.26311E+04  1.49716E+04  2.63734E+01
  1.19817E+04  1.14918E+04 -3.46266E+03  1.09700E+04 -1.00271E+04  7.91406E+03 -1.33448E+04 -3.30945E+03
 -7.15011E+03 -1.22433E+04  1.20011E+03 -1.58457E+04  5.80906E+03 -1.80691E+04  1.81724E+04 -8.12742E+03
  1.55717E+04 -1.37546E+03  1.03542E+04  3.88306E+03  6.19543E+03 -2.85478E+03  1.36543E+04  5.06693E+02
  1.24625E+04  3.07373E+03  1.35489E+04  1.45661E+04  8.30823E+03  1.66359E+04 -2.10209E+03  2.94382E+04
 -1.82392E+04  1.35244E+04 -1.84839E+04  1.06241E+04 -2.66201E+04 -6.79186E+02 -2.31179E+04 -1.61300E+04
 -7.29368E+03 -2.24515E+04  3.77213E+03 -1.86368E+04  1.61839E+04 -1.32462E+04  1.39661E+04  7.64799E+03
  5.19095E+03  8.99929E+03 -6.36895E+03  1.10912E+04 -1.45598E+04  3.55308E+03 -1.22012E+04 -8.98016E+03
  3.55681E+03 -1.36196E+04  4.46107E+03 -1.05546E+04  9.64956E+03 -1.48891E+03 -1.47071E+03  3.65525E+03
 -5.93561E+03  2.59119E+03 -1.56735E+03 -3.39372E+03  2.38381E+03 -9.87122E+03  9.64713E+03 -1.00189E+04
  1.37975E+04 -6.24094E+03  7.81590E+03  4.69554E+03  1.14032E+04  8.56657E+03  3.18528E+03  1.15759E+04
 -3.92877E+03  1.24059E+04 -8.76307E+03  1.15308E+04 -6.86457E+03  4.59741E+03 -8.74256E+03 -3.38400E+03
 -2.35752E+03 -4.02031E+03  3.13285E+03  2.63005E+03 -1.95770E+03  3.84679E+03 -8.63077E+01  1.37287E+03
 -8.87901E+03 -1.48695E+03 -1.01808E+04 -8.77881E+03  1.36057E+03 -1.18795E+04  5.08323E+03 -8.84730E+03
  6.46248E+03 -1.35085E+02  9.45866E+03  4.12266E+03  4.13719E+03 -7.54872E+02  1.54373E+03  6.82473E+02
 -3.84530E+03 -6.79298E+03  1.84152E+03 -6.08811E+03  1.79530E+03 -6.80140E+03  1.85964E+03 -5.28889E+03
  8.77559E+03  2.95080E+03  8.83694E+03  5.20475E+03  2.84420E+03  1.13246E+04 -6.83780E+03  5.46190E+03
 -2.56897E+03  9.47562E+02 -8.15905E+03 -2.60543E+03  8.01458E+02 -2.94622E+03  5.84819E+03  1.03938E+03
  1.38975E+03  5.76788E+03  2.87935E+03  2.64082E+03 -5.57607E+03  1.01104E+03 -5.68702E+03  6.49982E+02
 -4.54394E+03 -1.67827E+03 -2.60970E+02 -8.66531E+03  9.52553E+03 -5.19654E+03 -4.20784E+02  3.84472E+03
  1.40529E+02  4.24038E+03 -4.66158E+03  4.35875E+03 -5.00120E+03  6.94159E+02 -4.58258E+03  1.11818E+03
 -5.03437E+03 -3.76989E+03  6.95515E+03 -8.40638E+03  6.20931E+03 -3.49784E+03  1.90125E+03 -4.70548E+02
  6.55200E+03  4.71225E+02  2.39165E+03  2.30668E+03 -7.77773E+03  5.74038E+03 -6.35716E+03  3.75842E+02
 -7.62020E+03 -3.15756E+03 -1.96986E+03 -4.53136E+03  2.27498E+03  2.23921E+02  4.56286E+03  9.14029E+02
  5.29096E+03 -3.24177E+03 -1.01797E+03 -2.64833E+03  5.16256E+03 -2.04879E+03  4.27695E+03 -1.26072E+03
  2.76888E+03 -3.63829E+03  1.30485E+03  6.37622E+03  8.28772E+03  4.46433E+03  3.19073E+03  4.85678E+03
 -4.83826E+03  5.97129E+03 -9.84056E+03  8.00604E+03 -6.81846E+03  1.93399E+03 -4.50751E+03 -3.99803E+03
 -2.00509E+03 -4.69934E+03 -1.15313E+03 -6.15069E+03  4.97116E+03 -1.74652E+02  7.28371E+02 -5.09387E+02
 -1.05006E+03 -4.56806E+01  3.60299E+03 -2.00046E+02  1.81690E+03 -2.19164E+03  1.86128E+03  1.31170E+03
  1.86554E+03  5.48481E+02 -2.20535E+03 -1.19187E+03  6.31246E+02  2.52727E+03 -5.86614E+03  5.54396E+02
 -3.48616E+03 -2.05334E+03 -2.59475E+03  2.62680E+02  5.38702E+02 -1.95185E+03  4.15074E+03 -7.99610E+03
  3.87354E+03 -1.50646E+03  5.96057E+03 -4.64212E+02  6.11402E+03  4.75733E+03 -1.85224E+03  4.56279E+03
 -2.49312E+03  4.83974E+03 -3.39824E+03 -1.18897E+03 -5.93132E+03 -2.70734E+03 -2.31144E+03  1.60220E+03
 -1.65746E+03  7.92101E+02  1.24473E+03  5.07304E+02 -1.27502E+03  2.73093E+03 -9.66019E+02 -2.09748E+03
 -2.73928E+03 -7.63580E+03  1.43816E+03 -3.74382E+03  5.10915E+03 -5.12496E+03  4.34228E+03  1.06077E+03
  8.57027E+03  5.00667E+02  3.05727E+03  1.42098E+03 -3.59104E+03  4.41865E+03 -4.47587E+03  5.59288E+03
 -1.96784E+03 -2.80510E+03 -3.33099E+03 -1.00093E+03  1.28059E+03 -2.27419E+03  4.48044E+03 -7.89802E+02
  2.93228E+03  7.73040E+02 -4.60301E+02  1.73727E+03  1.48084E+03  2.31633E+03 -2.89629E+03 -3.56620E+02
  2.73409E+02  3.85760E+03  7.11498E+01  3.42514E+03  3.47582E+03  7.37085E+02  9.80345E+02  4.80690E+02
  4.90692E+02  1.48353E+03 -6.40394E+03  4.49899E+03 -1.40084E+02  2.87876E+03 -1.36698E+03 -2.90208E+02
 -8.70084E+02 -3.31764E+03  3.30709E+03 -4.95406E+03  1.43355E+03 -3.38222E+02  1.99731E+03 -1.75018E+03
  4.70253E+03  4.29347E+02 -6.02234E+02  1.70834E+03 -4.02579E+03  2.26349E+03 -5.13425E+03  9.69212E+02
 -2.24252E+03  3.61174E+02  5.69404E+03 -2.09568E+03  3.65107E+02  1.75248E+01  1.06411E+03 -9.73460E+02
  1.83464E+03 -1.10290E+03 -1.60988E+03 -2.09786E+03  3.36188E+03  1.86053E+03  4.23976E+03  1.89046E+03
 -5.86429E+01 -5.89413E+02  5.64387E+02  1.95208E+03 -3.69712E+02  3.84659E+03 -2.16351E+03  5.16087E+03
 -3.02765E+03  1.82986E+03 -2.07659E+02 -3.03734E+03 -3.04276E+03  1.33687E+03  3.85069E+03 -2.72190E+03
 -4.57894E+03 -3.66025E+03 -8.32157E+02 -1.49993E+03 -1.67210E+03  2.28818E+03  6.27716E+02  3.30352E+03
  1.05280E+02 -1.61424E+03  2.91920E+03 -1.50178E+03 -4.24919E+03 -3.14428E+03 -2.63016E+03  1.06629E+03
  2.51801E+03 -2.35262E+03 -1.36840E+03 -2.96231E+03 -3.66168E+03  1.29115E+03  3.86894E+03  1.88865E+03
 -4.53042E+03  1.94094E+03 -1.99373E+03 -5.57107E+02  3.19921E+03 -1.37399E+03  5.54329E+03 -3.58143E+02
 -7.09322E+02 -1.97592E+03  1.75595E+03 -3.72693E+02  1.51055E+03 -3.23957E+03  3.24682E+02  2.12016E+03
  1.58054E+03 -3.56894E+01  5.08497E+03 -6.99145E+02  2.66977E+03  1.47861E+03 -9.58668E+02  1.00055E+03
 -2.68803E+03 -6.41769E+02  4.27907E+02  3.89207E+03 -1.01427E+02  1.25611E+03  2.79145E+03 -3.69367E+01
  3.86593E+02 -4.85932E+02 -2.95786E+03 -1.33215E+02  2.24361E+03  9.47659E+02  3.28815E+02 -1.52990E+03
  2.49560E+03  1.58449E+02 -3.20662E+03  9.89574E+01 -2.26816E+03 -4.16878E+03  5.01594E+02 -1.63251E+03
  1.53712E+03 -2.81169E+03  5.26833E+03 -1.11509E+03 -3.73414E+00 -5.54112E+03  2.61496E+03 -1.46476E+03
  2.02524E+03 -1.78544E+03  3.36834E+03  2.33715E+03  1.49157E+03  1.25326E+03 -8.74150E+02  2.60332E+02
  3.49019E+03 -9.88076E+02 -2.99789E+03  2.41528E+03 -1.02658E+03  3.28271E+02  1.38407E+03  1.94409E+03
 -1.72869E+03  1.23903E+03 -2.34540E+03  3.57801E+03 -1.13980E+03  8.89201E+02  5.47842E+02 -8.07887E+02
  3.62576E+03 -2.60689E+02  5.09182E+02  2.21595E+03 -1.49572E+03 -3.61046E+02  9.04957E+02 -3.44274E+02
 -2.94300E+02  1.82469E+03  1.28882E+03  1.17523E+03 -2.34868E+03 -4.38753E+02 -1.29818E+03  3.29399E+03
 -1.23350E+03 -3.76053E+03 -2.41504E+03 -3.38819E+03 -1.45444E+03 -1.41956E+03  2.52734E+03 -3.77196E+02
  7.31437E+02 -8.57272E+02  5.75970E+02 -2.49468E+03  1.72321E+03 -4.21613E+03  8.39601E+02  2.46903E+03
 -1.04373E+03  1.09142E+03 -2.44674E+02  9.03674E+02  1.00925E+03 -5.03923E+01  3.43953E+03 -3.37122E+03
 -1.86438E+03 -3.79514E+02 -4.03335E+02 -3.46934E+02  1.50068E+03 -3.47278E+03  4.52757E+03 -9.47511E+01
  2.67027E+02 -1.33200E+03  1.41673E+03  2.29323E+03  1.83656E+03 -3.76447E+02  3.51733E+03  2.57983E+03
  8.93044E+02  1.09006E+03  7.90444E+02 -8.91636E+02  1.93280E+03 -6.80195E+02  2.38502E+03 -4.30530E+03
 -1.45261E+03  1.05460E+03  2.01295E+03  5.86147E+03 -4.34758E+03 -1.58141E+03 -1.20783E+03 -3.63746E+03
 -1.56980E+03  3.72461E+03 -3.58205E+02 -1.84255E+03  5.25064E+02 -6.83634E+03 -4.10649E+02 -7.13561E+03
  3.77114E+03  3.84169E+03 -1.56275E+03 -1.14881E+03  2.40964E+03  1.18976E+03 -5.09691E+03  2.14482E+03
