 $NMID ID='MM_0lb_SNR50_18hz_g45_29.RAW', FMTDAT='(8E13.5)'
 TRAMP=1., VOLUME=1. $END
  3.08512E+05 -1.54389E+03  3.36824E+05  2.48337E+05  8.28891E+04  3.36182E+05 -1.32252E+05  2.50991E+05
 -1.87791E+05  8.55638E+04 -1.15022E+05 -3.42508E+04  1.86027E+03 -5.17100E+04  5.81372E+04 -1.52634E+03
  3.86277E+04  5.19312E+04 -1.72203E+04  7.37723E+04 -5.87145E+04  6.16102E+04 -8.41663E+04  3.10015E+04
 -7.86416E+04 -1.43987E+04 -5.46819E+04 -4.89845E+04 -1.80591E+04 -6.55078E+04  2.31311E+04 -4.79784E+04
  4.20491E+04  5.05851E+03  1.73517E+04  4.63936E+04 -3.45230E+04  4.71927E+04 -6.80079E+04 -4.44578E+01
 -5.42186E+04 -5.53635E+04 -9.38562E+03 -7.30221E+04  3.15734E+04 -5.39742E+04  4.62710E+04 -1.51443E+04
  4.34916E+04  1.05466E+04  3.01148E+04  2.13901E+04  1.62817E+04  2.78357E+04 -7.13270E+03  2.65421E+04
 -2.21788E+04  1.54811E+04 -2.22694E+04 -7.84314E+03  5.52313E+03 -4.80045E+03  2.07183E+04  7.33702E+03
  6.55069E+03  3.59076E+04 -2.96843E+04  3.02783E+04 -6.00864E+04  2.08314E+03 -5.78897E+04 -4.48720E+04
 -1.19237E+04 -6.18691E+04  3.83951E+04 -3.84524E+04  5.50549E+04 -5.01612E+03  3.16027E+04  3.00405E+04
 -2.57067E+03  3.33350E+04 -2.93183E+04  1.50498E+04 -2.98374E+04 -5.43784E+03 -1.24322E+04 -8.21452E+03
 -7.60586E+03 -1.59335E+04 -3.86502E+03 -1.53743E+04  1.26896E+04 -1.98557E+04  1.51278E+04 -1.20324E+04
  1.12410E+04  6.43007E+03 -5.74590E+03  9.56740E+03 -2.05214E+04 -2.06094E+03 -7.49779E+03 -3.39119E+04
  2.00604E+04 -4.40835E+04  4.42677E+04 -1.81579E+04  4.30737E+04  2.07801E+04  1.64622E+04  4.07372E+04
 -1.73763E+04  3.24002E+04 -2.36626E+04  3.39245E+03 -8.20045E+03 -2.73019E+04  1.74471E+04 -3.27665E+04
  3.50267E+04 -9.56988E+03  3.07522E+04  2.08516E+04  1.47977E+04  4.18777E+04 -6.76723E+03  4.64327E+04
 -2.93471E+04  3.12306E+04 -3.87491E+04  9.11083E+03 -4.14489E+04 -1.82394E+04 -2.36162E+04 -3.23113E+04
  8.12280E+03 -3.48529E+04  2.98594E+04 -1.13992E+04  2.73714E+04  7.41215E+03  1.35000E+03  1.59007E+04
 -1.10325E+04  8.48864E+03 -1.39930E+04 -9.10150E+03  5.49893E+03 -1.13509E+04  1.72515E+04  2.46661E+03
  1.21772E+04  2.16993E+04 -2.55918E+03  2.49630E+04 -2.09060E+04  7.42279E+03 -2.67463E+04 -8.30965E+03
 -1.75534E+04 -1.51450E+04 -7.17060E+03 -1.52027E+04  1.22381E+03 -1.43706E+04  1.34672E+04 -1.39619E+04
  1.69397E+04 -1.14544E+04  2.86956E+04  5.26528E+03  2.00333E+04  1.69958E+04  4.71751E+03  2.89565E+04
 -1.90302E+04  2.90166E+04 -2.84835E+04  8.51849E+03 -1.58502E+04 -8.99487E+03 -4.56745E+03 -1.58282E+04
  1.99654E+03 -8.92890E+02 -2.89500E+03  7.45335E+03 -9.59426E+03  4.77497E+03 -1.57698E+04 -6.99647E+03
 -1.15069E+04 -1.48626E+04  4.75423E+03 -1.98255E+04  1.12979E+04 -1.27272E+04  1.54171E+04  1.23784E+03
  8.72667E+03  6.10114E+03  1.54085E+03  1.47794E+04 -8.97983E+03  6.29989E+03 -1.59698E+04 -8.31607E+03
 -1.18484E+04 -1.03546E+04 -1.12317E+03 -1.71744E+04  1.02607E+04 -1.46316E+04  1.54133E+04 -8.35966E+03
  1.29083E+04  9.09066E+01  9.88925E+03  3.97464E+03  6.39723E+03  1.37406E+03  7.31242E+03 -1.60759E+02
  1.56838E+04  3.10802E+03  1.50172E+04  1.28464E+04  9.96243E+03  2.71788E+04 -3.45013E+03  2.65587E+04
 -1.92794E+04  1.88523E+04 -2.84477E+04  5.70013E+03 -2.41958E+04 -6.71706E+03 -2.71376E+04 -1.60647E+04
 -1.28231E+04 -1.89122E+04  9.83995E+03 -1.81211E+04  1.46846E+04 -1.58430E+04  1.73981E+04  6.08121E+03
  4.88479E+03  1.02094E+04 -9.13978E+03  1.31407E+04 -1.53757E+04  3.72103E+03 -1.51335E+04 -6.09973E+03
  3.37706E+03 -1.29899E+04  4.18981E+03 -8.74002E+03  5.76430E+03 -4.90414E+03 -2.70526E+03  8.14712E+03
 -4.57574E+03  1.46509E+03 -8.29416E+03 -2.43069E+03  5.16361E+03 -9.22663E+03  1.05302E+04 -1.05393E+04
  8.00437E+03 -7.46141E+03  1.80624E+04 -1.87281E+03  1.19918E+04  1.14752E+04  5.34334E+03  1.09696E+04
 -9.68658E+01  1.93175E+04 -9.59975E+03  1.39007E+04 -1.08742E+04  2.21233E+03 -1.13285E+04 -7.92538E+02
 -3.71496E+03 -4.91435E+03 -1.68003E+03  1.97281E+02 -3.76642E+03 -3.48230E+03 -7.78051E+03  2.74163E+03
 -9.67831E+03 -2.03672E+03 -1.14400E+04 -9.06882E+03 -3.28062E+03 -1.22753E+04  3.91942E+03 -1.15627E+04
  7.78506E+03 -4.41007E+03  7.03500E+03  5.98818E+03 -2.79959E+03  4.38798E+03 -2.49952E+03  1.82938E+02
 -2.85091E+03 -3.04045E+01 -5.62656E+03 -8.22607E+03  6.29145E+02 -7.66508E+03  7.49185E+03 -3.59840E+03
  8.62786E+03  1.77616E+03  1.00225E+04  3.72728E+03 -1.75845E+03  5.33644E+03 -1.13022E+03  8.24794E+03
 -7.05981E+03  1.87117E+03 -4.86861E+03 -1.81047E+03  4.54357E+03 -1.41966E+03  3.19130E+03 -2.82796E+03
  6.56450E+03 -1.02865E+03 -4.39106E+02  4.05205E+03 -4.05230E+03  6.61699E+03 -6.57075E+03  3.21844E+03
 -6.17221E+03 -6.08378E+03 -1.95961E+03 -7.50054E+03  3.97039E+03 -2.31246E+03  2.70903E+03 -1.71444E+02
  2.12742E+02  6.29088E+03  5.00243E+02  7.75219E+03 -6.42110E+03 -2.80149E+03 -2.31087E+03  2.28077E+03
 -6.80804E+03 -7.54625E+03 -6.53521E+02 -8.82520E+03  5.01785E+03 -1.28696E+03  6.34318E+03  4.37500E+03
  2.77943E+02  5.50740E+03 -5.14743E+03  8.79059E+03 -1.08130E+04  2.86232E+03 -3.00996E+03 -9.33451E+02
 -2.35145E+03 -2.16777E+02 -3.50101E+03 -1.87994E+03  4.18531E+03 -4.00216E+03  3.01219E+03 -3.16677E+03
  2.91733E+03  1.33079E+03 -2.95742E+02 -2.86485E+03  5.28441E+03 -8.19319E+00  1.15702E+03 -9.17149E+02
  4.78623E+03 -2.95184E+02  4.63195E+03  3.64234E+03  5.24098E+03  2.15767E+03  5.80762E+03  6.77782E+03
 -2.66311E+03  1.09455E+04 -7.45647E+03  6.17517E+03 -1.15324E+04  5.02033E+03 -4.34187E+03 -5.45806E+03
 -3.47379E+03 -4.39634E+03  2.11185E+02 -6.56440E+03 -2.41381E+03 -9.59428E+01  1.48831E+03 -1.40246E+03
  8.18313E+02  1.34094E+03  3.09035E+03 -5.55738E+01  5.85994E+02 -3.63352E+03  6.13526E+03  1.84266E+03
  3.39970E+03 -2.36700E+03  5.49900E+03  6.64568E+03 -7.70022E+03  7.40304E+02 -4.92402E+03 -3.21896E+03
 -7.20220E+03 -1.99723E+03 -2.93576E+02 -6.56184E+03 -2.29043E+02 -6.67233E+03  2.15215E+03 -6.21043E+03
  9.00118E+03 -7.65610E+03  6.20735E+03  3.81391E+03  4.24929E+03 -3.16575E+02  2.13158E+01  4.97736E+03
 -4.60164E+03  6.17225E+03 -2.64315E+03  1.71014E+03 -3.77604E+03  1.57493E+02 -3.89214E+02  7.96290E+02
  2.73096E+03 -2.24287E+03  1.40473E+03  5.11592E+03 -4.35760E+02  4.31198E+02 -2.09074E+03  2.29299E+03
  6.73462E+02 -3.95570E+03  3.09735E+03 -4.55575E+03  1.41630E+03 -4.51170E+03  9.71504E+03 -5.11738E+03
  1.39701E+03  2.66980E+03  1.57986E+03  6.97930E+02  1.57809E+03  2.53091E+03 -5.94804E+03  4.41095E+03
 -4.44599E+03  1.52099E+03 -3.26641E+03 -3.63950E+03  1.04569E+03 -3.44159E+03  6.69080E+03 -3.89556E+03
  3.62946E+03 -3.65618E+03 -8.87800E+02 -3.24875E+02  1.35211E+03  4.57234E+03  6.80807E+03  1.52987E+03
  8.22968E+02  3.78762E+02  2.05807E+03  4.10461E+02 -1.27145E+01  4.84315E+03 -1.58504E+03  2.99147E+03
  1.95568E+03  2.97315E+03 -3.20487E+03  5.71958E+03  5.24586E+02  1.42604E+03 -7.39129E+03  3.69198E+02
 -3.28361E+03 -1.10076E+03  4.24806E+03 -4.15981E+03  2.99638E+03 -7.28930E+03  3.36991E+03  6.21502E+02
  5.13956E+03  2.10813E+03 -5.11511E+02  1.31711E+03  4.37084E+02  1.17045E+02 -3.96784E+03 -3.36660E+02
 -6.67725E+02  7.10761E+02 -1.43400E+03 -4.31888E+03 -5.41846E+02  6.69822E+00  1.90361E+02  3.96542E+03
  1.64425E+03  2.35092E+03 -9.57259E+02 -1.78724E+03  7.76512E+02  2.80326E+03  1.26238E+03  2.98492E+02
  1.32129E+03 -5.61451E+03  1.81449E+03 -4.51545E+02 -2.06766E+02  1.30061E+03  3.83994E+03  3.91402E+03
 -4.51108E+03  3.33768E+02  2.72131E+03  7.71851E+01 -3.22659E+03 -8.35203E+02 -3.65404E+03  1.30640E+03
  2.24592E+03 -1.48017E+03 -2.19728E+03  1.65951E+03  5.65920E+02  1.03286E+03 -5.90374E+02  2.05568E+03
 -2.89433E+03  6.06927E+02 -1.33897E+03 -2.86945E+03 -1.27905E+03 -3.72091E+03  1.25785E+03 -1.72174E+02
  5.93554E+02  2.99977E+03 -1.17980E+03  2.53661E+03  2.63594E+03 -8.66407E+02  2.30434E+03  2.81543E+03
  4.06891E+03 -9.32234E+02 -7.92935E+02 -2.48789E+03  7.73793E+02  6.88466E+02  2.99345E+03 -1.20397E+03
  3.43104E+03  7.96984E+02  2.77256E+03  3.84067E+03  3.44305E+02  4.97023E+03  6.78260E+02  3.23317E+03
 -1.43503E+03  8.04708E+02  2.96442E+03 -5.44944E+02  1.21835E+03 -7.50252E+02  4.59025E+03 -2.49656E+03
  2.58908E+03 -3.04711E+02 -5.54841E+02  1.15258E+01 -1.10723E+03  1.05386E+03  2.85902E+03 -3.43624E+03
  3.52659E+03 -1.84216E+03 -1.64199E+03  2.21189E+03 -1.23370E+03  6.67609E+01 -1.50748E+03  2.06216E+03
  2.01624E+03  1.40594E+03 -3.94793E+03  1.37312E+03 -5.94716E+03  5.21983E+03 -1.44524E+03  2.50371E+02
  2.70905E+03 -5.44790E+03  3.13788E+03 -7.37782E+03 -2.77959E+03 -4.35254E+03  3.94693E+03 -1.86119E+03
  2.16971E+03 -1.90947E+03 -5.44970E+02  4.40766E+03  5.33558E+02  6.40507E+02 -1.65100E+03 -1.02415E+02
 -1.52059E+03  1.55389E+03  1.46803E+03 -2.27192E+03  8.79665E+02 -4.29886E+02 -1.33843E+03 -4.18036E+03
 -1.86396E+03 -3.39789E+02  3.25400E+02  8.20890E+02  3.33954E+03 -4.03489E+03 -1.22013E+03 -2.44433E+03
 -1.54330E+01 -4.39982E+03  2.89243E+03  1.18694E+03  3.79653E+03  1.63688E+03  1.90549E+03  3.80812E+03
 -1.29758E+03  1.64805E+03 -2.69601E+03 -5.90480E+02 -4.09116E+03  1.67602E+03 -3.15134E+03 -1.07293E+03
  9.62541E+02 -1.09232E+03 -2.56470E+03 -3.81450E+03 -4.10517E+02 -2.95726E+03  7.14801E+02  2.85470E+03
 -1.30038E+02  2.65803E+03 -1.85078E+03  4.85528E+02 -6.44595E+01  2.20852E+03 -1.37195E+03  1.16042E+03
 -1.43199E+03  1.24381E+03  2.77137E+03  1.11804E+03 -4.85237E+02 -3.37822E+02 -9.60697E+02  1.20844E+03
 -1.52490E+03 -2.33602E+03  1.18336E+02  6.37436E+02 -2.89967E+03  2.43632E+03  2.11322E+03 -3.63803E+02
  4.18963E+03  4.05289E+03  2.21307E+03 -4.70353E+02 -8.94503E+02  1.60079E+02 -5.66162E+02  4.10946E+03
 -6.00644E+02  9.71498E+02  2.85853E+03  1.08588E+03 -2.98037E+03  1.29287E+03  6.48370E+03  3.41108E+03
 -2.50955E+03  6.25233E+02  3.49710E+03 -1.28783E+03 -5.28936E+02 -2.20182E+02  2.02500E+03  2.10103E+01
 -5.19073E+02  1.77097E+02  5.63099E+03  8.20915E+02  1.64546E+03 -2.78187E+03  4.98274E+03  1.27409E+02
 -6.77610E+03 -1.00834E+03 -2.05981E+03  5.03152E+03  3.65813E+00  4.62208E+03 -5.47268E+03  7.28344E+01
