 $NMID ID='MM_0lb_SNR50_15hz_g45_37.RAW', FMTDAT='(8E13.5)'
 TRAMP=1., VOLUME=1. $END
  3.10407E+05  1.91559E+03  3.36896E+05  2.50105E+05  8.51298E+04  3.34470E+05 -1.35061E+05  2.50864E+05
 -1.93376E+05  8.28675E+04 -1.11124E+05 -3.62082E+04 -8.90650E+02 -4.88101E+04  5.17151E+04  9.08004E+02
  3.50464E+04  5.36604E+04 -1.29690E+04  7.62649E+04 -5.64236E+04  6.20520E+04 -8.10189E+04  3.46149E+04
 -8.11008E+04 -7.25577E+03 -5.85010E+04 -4.95052E+04 -1.39403E+04 -6.88665E+04  2.70128E+04 -4.48640E+04
  3.88593E+04  5.88941E+03  1.71436E+04  4.88417E+04 -2.92232E+04  4.78615E+04 -6.78962E+04 -2.41265E+02
 -5.10209E+04 -6.30708E+04 -8.26712E+03 -7.37904E+04  3.07567E+04 -5.72037E+04  4.62099E+04 -1.52788E+04
  3.92082E+04  1.15691E+04  3.24052E+04  2.20776E+04  1.22301E+04  3.18665E+04 -1.98384E+03  2.42686E+04
 -2.60981E+04  1.41166E+04 -1.66133E+04 -6.13249E+03  6.32168E+03 -6.92198E+03  2.62403E+04  9.43125E+03
  8.89202E+03  3.51346E+04 -3.00073E+04  3.82908E+04 -6.64885E+04  3.07638E+03 -5.53598E+04 -4.03874E+04
 -1.85203E+04 -5.88965E+04  3.86860E+04 -4.27338E+04  5.13863E+04 -3.97452E+02  3.31813E+04  2.80311E+04
 -5.11437E+03  3.66266E+04 -3.04205E+04  1.42328E+04 -2.55996E+04 -5.48819E+03 -1.92760E+04 -1.01840E+04
 -1.69605E+04 -1.94354E+04 -3.87364E+03 -1.30552E+04  1.28273E+04 -2.47716E+04  1.60819E+04 -1.00846E+04
  1.38414E+04  6.27013E+03 -8.48705E+03  8.28662E+03 -2.10693E+04 -8.18745E+03 -8.78085E+03 -2.94156E+04
  2.24274E+04 -4.63525E+04  4.94004E+04 -1.82898E+04  4.62103E+04  2.03745E+04  1.31895E+04  4.72358E+04
 -1.50272E+04  3.28477E+04 -2.17581E+04  4.20076E+03 -7.28641E+03 -2.86031E+04  2.53005E+04 -3.49389E+04
  3.77511E+04 -6.95253E+03  3.44849E+04  2.37200E+04  2.25485E+04  4.72451E+04 -9.42394E+03  5.07269E+04
 -3.05848E+04  3.52529E+04 -4.74286E+04  7.84762E+03 -3.76284E+04 -1.86089E+04 -2.19728E+04 -3.55844E+04
  7.03307E+03 -3.52589E+04  3.21840E+04 -1.41291E+04  3.12748E+04  1.15557E+04  1.77855E+03  1.61725E+04
 -1.33627E+04  2.39548E+03 -7.14681E+03 -6.62638E+03  3.18148E+03 -8.15392E+03  1.71818E+04  8.98268E+03
  1.36593E+04  2.07426E+04 -3.41948E+03  2.10924E+04 -2.61885E+04  1.32015E+04 -2.49522E+04 -3.15122E+03
 -1.70278E+04 -1.74707E+04 -6.65911E+03 -1.95247E+04  1.82198E+02 -1.77197E+04  1.61980E+04 -2.17670E+04
  2.07071E+04 -1.00845E+04  3.39305E+04  3.92176E+03  2.21997E+04  1.69284E+04  4.82225E+03  3.99567E+04
 -1.90078E+04  3.14381E+04 -2.67506E+04  1.33102E+04 -1.57302E+04 -1.13741E+04 -2.29004E+03 -1.65824E+04
  2.17238E+03  2.46691E+02 -4.42102E+03  6.86987E+03 -1.57499E+04  9.81235E+02 -1.53096E+04 -5.30576E+03
 -6.90045E+03 -2.21889E+04  4.94594E+03 -1.81200E+04  1.33394E+04 -1.65816E+04  1.77602E+04 -9.29091E+02
  1.27050E+04  1.65049E+04  2.92166E+02  2.00671E+04 -1.31842E+04  7.47281E+03 -1.61279E+04 -1.08407E+03
 -1.14787E+04 -1.45512E+04  2.14594E+03 -2.01331E+04  1.04973E+04 -1.34369E+04  2.31617E+04 -9.90522E+03
  1.95022E+04  5.73151E+03  8.44224E+03  2.72410E+03  7.67053E+03  2.42883E+03  9.66728E+03 -3.88034E+03
  1.63260E+04 -3.87492E+03  1.89901E+04  1.05974E+04  1.35982E+04  2.75341E+04 -3.80592E+03  3.02925E+04
 -1.84135E+04  2.12451E+04 -3.13438E+04  1.04435E+04 -3.20990E+04 -1.91556E+03 -2.94480E+04 -1.72476E+04
 -9.33614E+03 -2.75190E+04  5.11544E+03 -2.35252E+04  1.79315E+04 -9.66186E+03  1.51873E+04  5.11545E+03
  5.86225E+03  1.10995E+04 -5.08055E+03  1.18295E+04 -1.69215E+04  4.38136E+03 -9.76922E+03 -8.79127E+03
  4.71802E+03 -1.60480E+04  7.44597E+03 -7.26510E+03  8.48575E+03  1.57813E+03  1.62875E+03  3.35708E+03
 -2.38617E+03  1.00018E+03 -3.29779E+03 -3.47045E+03 -9.65183E+01 -1.12776E+04  7.47369E+03 -1.39830E+04
  1.68619E+04 -6.25769E+03  1.28589E+04  5.88835E+01  9.21970E+03  1.34076E+04  6.66104E+03  1.87062E+04
 -1.62623E+03  1.63388E+04 -9.37497E+03  1.56132E+04 -1.76922E+04 -9.34675E+02 -1.35449E+04 -9.98872E+01
 -4.83202E+03 -5.51696E+03 -3.95458E+03 -2.56949E+03 -2.18779E+03  2.88608E+03 -4.67768E+03 -9.38912E+02
 -8.46000E+03  2.65433E+03 -7.36373E+03 -1.00212E+04 -6.50472E+03 -1.25003E+04  5.44660E+03 -1.17487E+04
  1.00103E+04 -5.33631E+03  5.05407E+03  1.17974E+03  2.71837E+03  4.45393E+03 -6.01532E+03  1.75727E+02
 -8.39995E+03 -5.73586E+03 -2.25646E+03 -8.66865E+03  6.32283E+03 -1.14547E+04  1.52852E+04 -8.66629E+03
  1.17514E+04  2.38561E+03  9.51390E+03  7.51331E+03  3.04950E+03  1.24766E+04 -3.91386E+03  9.10943E+03
 -9.83190E+03  3.17556E+03 -9.43457E+03 -2.78036E+03  3.34797E+03 -3.74362E+03  6.99753E+03  2.12314E+03
  2.99444E+03  7.36238E+03 -2.83411E+03  9.30779E+03 -8.54015E+03  7.75182E+03 -1.09757E+04 -1.08084E+02
 -1.89201E+03 -8.62121E+03 -1.13877E+03 -9.00045E+03  6.29173E+03 -3.12998E+03  2.04067E+03  2.49010E+03
  7.15464E+01  6.47272E+03 -1.63011E+03  5.91107E+03 -2.62651E+03  2.60102E+03 -8.10982E+03  1.53487E+03
 -5.64932E+03 -5.27332E+03  3.34558E+03 -1.21868E+04  7.91781E+03 -7.83322E+03  1.13168E+04  1.43296E+03
  8.89724E+03  9.39291E+03  3.65843E+03  1.26729E+04 -8.00244E+03  6.38869E+03 -9.07996E+03  4.18939E+02
 -1.18676E+04 -4.17563E+03 -4.36439E+03 -2.80381E+03  1.84805E+03 -5.58061E+03 -8.91760E+02 -6.06510E+03
  2.62986E+03  1.58177E+03  1.02886E+03  5.76195E+03 -3.80337E+03 -4.45593E+03 -3.32353E+02 -3.73663E+03
  8.53100E+03 -4.95921E+03  3.94288E+03  5.64790E+03  1.00929E+04  5.91319E+03  5.87661E+02  1.31733E+04
 -3.11909E+03  1.36644E+04 -1.23748E+04  8.34525E+03 -1.49435E+04  3.65890E+02 -9.84654E+03 -9.49405E+03
 -5.51404E+03 -9.07243E+03 -3.75524E+02 -1.40199E+04  5.74818E+02 -2.54294E+03  1.05003E+03 -3.36754E+03
 -1.50179E+03 -9.49427E+03  4.53621E+02 -5.66052E+03  5.38151E+03  1.01466E+02  1.00532E+03 -2.71389E+03
  6.48449E+03  2.26439E+03 -6.77168E+01  5.74650E+03 -6.03740E+03  6.52070E+03 -8.01090E+03  4.85362E+03
 -5.95421E+03 -1.15492E+03 -2.99844E+02 -8.15156E+03 -1.51569E+03 -8.87506E+03  5.59978E+03 -1.12087E+04
  5.20835E+03 -5.02059E+03  1.16336E+04 -2.77486E+02  1.03585E+04  3.42552E+03 -3.51986E+03  1.15509E+04
 -5.63674E+03  1.03327E+04 -7.70173E+02  2.06528E+03 -6.85549E+02 -4.05307E+03  3.26487E+02  7.38505E+02
 -5.45727E+02  3.43141E+03  1.13212E+03  5.21560E+03 -5.32410E+03 -1.30203E+03 -7.17536E+03 -1.27183E+03
 -7.74970E+03 -5.27543E+03  3.14658E+03 -1.25527E+04  4.23996E+03 -9.80238E+03  5.07345E+03 -5.79965E+02
  5.64719E+03  5.12277E+03  1.92673E+03  4.87508E+03  9.40162E+02  5.04390E+03 -4.91791E+03  1.21556E+03
 -6.91196E+03 -1.70893E+03 -3.28806E+03 -3.53454E+03 -4.76713E+03 -8.32542E+02  7.86490E+03 -1.86062E+03
  2.42032E+03  2.81463E+03  4.72078E+02 -3.99710E+03  4.32780E+02  3.50571E+03  2.79219E+03 -1.93536E+02
  2.81799E+03 -4.76515E+02  1.46549E+03  4.13158E+03  6.55273E+03  2.66981E+03 -5.92814E+02  5.85898E+02
 -9.48859E+02  2.36957E+03 -8.27014E+03  8.20733E+03 -3.40953E+03  5.97448E+02 -5.88592E+03 -9.86351E+02
 -1.40910E+03 -8.10098E+03 -3.26411E+03 -9.44762E+03  3.95977E+03 -4.39072E+03  8.67272E+03 -1.75246E+03
  7.23118E+03  1.30425E+02  4.63043E+03  2.51656E+03 -3.22671E+03 -6.16496E+02 -1.53346E+03 -8.47537E+02
 -1.10308E+02  1.12596E+03  2.47583E+03  2.68713E+03  4.13850E+03 -5.03584E+03  1.76644E+03 -2.73691E+03
  2.70445E+03 -2.90435E+03  1.53528E+03 -5.76686E+02 -3.59593E+03 -6.49940E+02 -1.47312E+03  1.81716E+03
  5.76076E+03  1.06829E+03  4.49242E+02  5.30149E+03  1.17720E+03  7.46302E+02 -1.39760E+03  4.47134E+03
 -4.28704E+03 -3.32872E+02  2.96668E+03 -2.58570E+03 -1.88465E+03 -3.08739E+03 -3.91129E+03 -6.93428E+02
 -1.95008E+03 -1.76493E+02  8.10329E+00 -3.27945E+03  5.95411E+03  1.47521E+03 -1.83946E+03  2.84876E+03
 -6.68084E+02  2.18722E+03  5.49757E+02 -1.79721E+03 -6.16294E+03  1.84866E+03  2.12214E+03  1.37845E+02
 -8.57400E+02 -2.30901E+03 -2.71180E+02 -1.65438E+03  1.72766E+03 -2.56839E+03 -1.18204E+03  3.91286E+03
 -2.85669E+03 -1.10305E+03  8.80290E+02 -1.32562E+03 -2.37940E+03 -2.07705E+03  2.59503E+02  3.95609E+03
  2.71513E+03  1.70399E+03  3.35854E+03  5.36700E+03 -3.33485E+03  2.31635E+03  2.05895E+03  4.47233E+03
  1.84318E+02  2.85872E+03 -2.49216E+03 -2.75683E+02 -1.24698E+03  5.51035E+02  1.83586E+02 -7.51253E+03
  6.66613E+03 -1.62057E+03  4.40360E+03  5.61949E+02 -2.65113E+03  3.54544E+03  1.69980E+03  2.19953E+03
 -2.07019E+03  5.93852E+03 -3.51629E+03  2.25465E+03 -6.06313E+02 -5.69539E+03 -4.78487E+02 -5.40311E+02
  2.54044E+03  6.84029E+03 -2.48001E+03 -1.15374E+03 -3.47722E+03  1.63051E+03 -2.51141E+03 -4.73043E+03
  9.31806E+02 -7.48701E+03 -2.73245E+03 -2.70014E+03  1.24340E+03 -5.16734E+03  3.19136E+03  3.22909E+03
 -1.17714E+02  2.41374E+03  4.67368E+03  5.63554E+03 -3.93580E+03 -1.21337E+03 -9.35765E+02  5.00941E+03
  1.39206E+03  2.70107E+03 -1.29734E+03  2.82378E+02 -3.13187E+03 -1.61656E+03  2.70645E+03 -2.34011E+03
 -1.15616E+03 -3.03222E+03  1.10877E+03 -1.74143E+03  3.33827E+03 -1.15561E+03 -2.14417E+03 -4.00651E+02
  1.40046E+03  2.07811E+03 -4.41914E+02 -3.77423E+03  8.83606E+02  6.83518E+03 -1.40331E+03  3.02450E+03
 -2.33597E+03  6.70017E+03 -1.01607E+03  3.46851E+03 -6.05866E+03  1.23850E+03 -4.10176E+03  1.20068E+03
 -1.81466E+03 -9.92943E+02  1.57858E+03 -4.44586E+03  3.23704E+03 -1.65735E+03 -1.72488E+03  3.02749E+03
 -3.09305E+03  1.53181E+03 -2.34522E+03  4.12542E+03 -3.43999E+02  1.74415E+03 -4.34247E+03 -1.76092E+03
 -1.91108E+03  1.93066E+03  1.87356E+03  3.28877E+03 -3.92398E+03  3.41541E+03  7.14204E+02  3.23687E+02
 -2.80864E+03 -3.69188E+03 -2.06934E+03  4.91897E+03 -4.37866E+03  4.60484E+02  2.69383E+03 -2.35183E+03
  4.32063E+02 -1.45524E+03  4.34848E+03 -2.49890E+02  2.12135E+03  1.89983E+03 -5.43533E+02  3.73025E+03
  5.23927E+03 -1.97404E+03  3.26514E+03  4.48454E+03 -2.09436E+03  2.24087E+02  1.12340E+03  3.05044E+02
  1.15988E+03  1.70128E+03  2.19733E+01  7.20768E+02 -2.90344E+03  9.75042E+02 -6.02865E+03  3.49491E+02
  3.61554E+03 -2.34354E+02 -8.59691E+02 -5.46927E+03  1.30281E+02 -7.92627E+02  8.12547E+02  9.85763E+01
  3.37743E+03  7.04060E+02  6.62566E+02  3.18471E+03 -1.26355E+03  2.20695E+03 -4.36227E+03  2.62263E+03
