 $NMID ID='MM_0lb_SNR50_19hz_g40_31.RAW', FMTDAT='(8E13.5)'
 TRAMP=1., VOLUME=1. $END
  3.09627E+05  4.58577E+03  3.35942E+05  2.51463E+05  8.07379E+04  3.37894E+05 -1.32438E+05  2.53033E+05
 -1.89663E+05  8.37693E+04 -1.10491E+05 -3.32564E+04  3.23491E+03 -4.85702E+04  5.23043E+04 -2.09534E+02
  3.20519E+04  5.19268E+04 -1.62803E+04  7.09851E+04 -5.85154E+04  6.00511E+04 -7.97189E+04  3.60671E+04
 -8.01331E+04 -9.31476E+03 -5.70223E+04 -5.05305E+04 -1.21536E+04 -6.55918E+04  2.56193E+04 -4.45069E+04
  3.43775E+04  4.58779E+03  1.62322E+04  4.62366E+04 -3.42622E+04  4.44709E+04 -6.83402E+04 -2.08636E+03
 -5.07786E+04 -5.61806E+04 -7.75700E+03 -7.22944E+04  3.22736E+04 -5.34417E+04  4.88357E+04 -1.49474E+04
  4.08708E+04  6.67049E+03  3.15283E+04  2.31550E+04  1.88761E+04  3.03813E+04 -6.05717E+03  2.42020E+04
 -2.29219E+04  1.75137E+04 -2.10527E+04 -5.58987E+03  2.18237E+03 -5.37414E+03  2.27894E+04  1.15873E+04
  8.58153E+03  3.27899E+04 -3.11017E+04  3.24909E+04 -6.13545E+04  2.85460E+03 -5.04997E+04 -3.87527E+04
 -1.08735E+04 -6.22827E+04  3.91026E+04 -4.08020E+04  5.58956E+04  9.37618E+02  2.76366E+04  3.37506E+04
 -8.85940E+03  2.88576E+04 -2.77639E+04  1.43597E+04 -2.62589E+04 -4.97530E+01 -1.11449E+04 -9.67854E+03
 -9.81804E+03 -1.07819E+04  9.28987E+02 -1.56479E+04  6.11279E+03 -2.19603E+04  1.46657E+04 -1.76956E+04
  1.44465E+04  1.97055E+03 -4.41144E+03  1.40948E+04 -1.64909E+04 -5.14741E+02 -4.68911E+03 -2.55982E+04
  1.96580E+04 -3.87334E+04  4.10981E+04 -2.34525E+04  3.57528E+04  1.71602E+04  1.82359E+04  4.22758E+04
 -1.24029E+04  3.04935E+04 -1.80918E+04  2.53760E+03 -7.93897E+03 -2.31759E+04  1.78587E+04 -2.55824E+04
  3.79332E+04 -9.38795E+03  3.08750E+04  2.48352E+04  1.07919E+04  3.98067E+04 -1.04435E+04  4.25725E+04
 -2.58435E+04  3.34818E+04 -3.93497E+04  7.72126E+03 -3.58176E+04 -1.38225E+04 -2.31899E+04 -3.23720E+04
  6.18677E+03 -3.66978E+04  3.06251E+04 -1.18516E+04  2.68587E+04  1.37464E+04  6.82235E+03  1.77685E+04
 -1.20472E+04  7.88917E+03 -7.96203E+03 -8.50473E+03  4.38255E+03 -1.09340E+04  1.77855E+04  8.84954E+03
  8.46945E+03  2.24132E+04 -1.05738E+04  1.85771E+04 -1.80778E+04  7.57036E+03 -2.23203E+04 -9.30147E+03
 -1.39122E+04 -1.21613E+04 -6.78702E+03 -1.40627E+04 -9.99172E+02 -1.60152E+04  9.66563E+03 -1.83314E+04
  1.99185E+04 -1.46100E+04  2.61288E+04 -1.87743E+03  2.16555E+04  1.64962E+04  4.18040E+02  3.03255E+04
 -1.73857E+04  2.26972E+04 -2.18774E+04  6.25530E+03 -2.39476E+04 -1.14336E+04 -5.00574E+03 -1.10697E+04
  4.23589E+03 -4.49783E+03 -2.58457E+03  5.22566E+03 -9.08718E+03  5.94670E+03 -9.54836E+03 -4.89339E+03
 -1.08552E+04 -1.31515E+04  5.08578E+03 -2.10676E+04  1.30620E+04 -1.22359E+04  1.26136E+04 -2.24477E+03
  7.67252E+03  1.36717E+04  2.94391E+03  1.61083E+04 -1.20087E+04  6.82006E+03 -1.31327E+04 -5.48771E+03
 -1.20729E+04 -1.53596E+04  1.12041E+03 -1.61309E+04  2.79584E+03 -1.56094E+04  1.51602E+04 -6.29956E+03
  1.34334E+04  2.62879E+03  8.37011E+03  8.76053E+02  2.79075E+03  8.73395E+01  6.81981E+03  1.93605E+03
  1.13707E+04  3.44478E+03  1.67141E+04  1.26722E+04  1.08192E+04  2.83490E+04 -6.46391E+03  2.62962E+04
 -1.43540E+04  1.98897E+04 -2.51146E+04  1.09364E+04 -1.69834E+04 -1.47598E+03 -1.99006E+04 -9.25478E+03
 -9.91742E+03 -1.66485E+04  3.95237E+03 -1.98347E+04  1.60380E+04 -6.08696E+03  1.20860E+04  8.47963E+03
  7.20693E+03  1.04001E+04 -5.16199E+03  8.57885E+03 -1.30544E+04  3.54638E+03 -1.08706E+04 -6.45013E+03
  2.19603E+03 -1.25529E+04  5.58268E+03 -1.20770E+04  5.29121E+03 -1.29072E+03 -1.26565E+03  6.86697E+03
 -6.26804E+03  1.57111E+03 -4.41623E+03 -7.33716E+02  7.76139E+03 -1.02827E+04  6.10262E+03 -9.24838E+03
  9.93199E+03 -2.41078E+03  1.06682E+04  1.80088E+03  9.35874E+03  1.31473E+04  6.39052E+03  1.25233E+04
  8.88690E+02  1.90938E+04 -1.12044E+04  1.07295E+04 -9.43908E+03  9.77818E+02 -9.17757E+03 -1.71431E+03
 -2.35359E+03 -3.68439E+03 -3.41665E+03  1.10643E+03  1.55908E+03 -2.12817E+02  3.79502E+02  2.50350E+03
 -6.31672E+03  4.69142E+03 -9.10862E+03 -7.31491E+03 -8.16140E+03 -1.04854E+04 -1.29293E+03 -8.13295E+03
  8.88921E+03  7.72690E+02  5.01041E+03 -2.16174E+02 -1.02377E+03  5.62297E+02 -6.49516E+03  3.22616E+03
 -5.01939E+01 -4.24398E+03 -3.56626E+02 -6.02026E+03 -2.44759E+03 -1.03035E+04  1.11292E+04 -4.96722E+03
  9.40909E+03  1.20067E+03  8.46482E+03  5.73457E+03  4.09601E+03  4.90573E+03 -5.82469E+03  5.65103E+03
 -4.59487E+03  2.43450E+03 -3.93481E+03 -4.95724E+03 -3.91087E+02 -1.65088E+03  6.07753E+03 -3.97296E+03
  6.83599E+03  4.19941E+03 -1.37772E+03  5.98771E+03 -2.44728E+03  9.03574E+03 -7.39689E+03  1.11719E+03
 -3.32199E+03 -5.70848E+03  2.22156E+03 -6.46422E+03  3.19728E+03  6.25662E+01  1.33929E+03  1.16744E+02
  3.81506E+03  1.01814E+03 -3.77924E+03  6.06894E+03 -6.03947E+03  4.09265E+03 -5.92688E+03 -2.32880E+03
 -2.73631E+03 -3.29106E+03  2.71320E+03 -7.04053E+03  2.16536E+03 -4.60376E+03  9.04677E+03  1.00467E+02
  7.04170E+03  4.11696E+03  1.57472E+03  9.20174E+03 -9.77197E+03  3.57394E+03 -3.72557E+03  5.25281E+02
 -8.56253E+03 -6.11130E+03  5.19499E+02 -3.75971E+03  1.82554E+03 -5.64554E+03  5.92046E+03 -5.33620E+03
  5.34757E+03 -8.67126E+02  1.55781E+03  7.24050E+02  4.89347E+03  1.73624E+03  6.17569E+02  1.95178E+03
  4.41658E+03  2.91998E+03  4.18646E+03 -7.15822E+02  5.52353E+03 -6.55852E+02  6.50509E+02  7.04589E+03
 -2.22050E+03  4.48748E+03 -4.17384E+03  6.67752E+03 -1.05351E+04  1.01786E+02 -1.15954E+04 -3.27047E+03
 -5.09028E+03 -1.45979E+03  4.78908E+03 -7.97977E+03 -3.87714E+03 -1.35959E+03  7.64801E+02  2.54058E+03
  3.25480E+03  1.45336E+03  5.64176E+02 -3.41798E+03  3.18157E+03  1.18513E+03  4.72560E+03  7.16248E+02
  5.85210E+03  3.94386E+03  6.06151E+02  5.11138E+03 -3.24251E+03  2.21725E+03 -9.83434E+03  2.58870E+03
 -5.18245E+03 -7.65521E+02  1.44041E+03 -4.64764E+03  1.65244E+03 -3.15242E+02  3.72239E+03 -4.13065E+03
  6.63120E+03 -4.98671E+03  7.91234E+03 -9.11917E+02  5.42588E+03  9.21361E+03  2.86828E+02  6.05003E+03
 -2.34868E+03  4.10798E+03 -5.19752E+03  1.91559E+03 -3.48247E+03 -2.74070E+03  6.19513E+02 -3.11101E+03
 -3.44486E+03  3.69992E+03  4.01423E+03  1.83967E+03 -9.76767E+02 -1.26788E+03 -1.88434E+03  2.10746E+03
 -6.92731E+02 -5.16385E+03 -6.10481E+02 -1.97200E+03  6.86500E+03 -4.20822E+03  5.06712E+03 -3.00545E+02
  5.07678E+03  3.29266E+03  8.74931E+03 -2.46480E+03 -5.06628E+02  4.31431E+03 -1.50918E+02  7.77365E+03
 -2.66755E+03 -8.30899E+02 -2.10596E+03 -2.10657E+02  1.05949E+03 -3.02928E+03  2.41003E+03 -1.19396E+03
  7.27053E+01 -3.17420E+03 -1.34975E+03  1.55951E+03 -1.69686E+03 -1.93887E+03  3.23140E+02 -2.27919E+03
  5.54381E+03  2.43343E+03 -2.25706E+03 -9.61236E+02  2.84268E+03  2.93375E+03  1.72448E+03  2.10311E+03
  9.55327E+02  5.61338E+03 -3.84822E+03  5.41823E+03 -1.71281E+03  5.17182E+02 -5.31520E+03 -1.36748E+02
 -1.60429E+03 -8.97107E+02  1.53870E+03 -4.42356E+03 -1.09365E+03 -1.23686E+03  8.69221E+02  3.16351E+03
 -3.29371E+03  3.77029E+03 -2.82028E+03  2.19470E+03 -3.57624E+03  4.98490E+02 -7.79787E+03 -2.62120E+03
  1.11767E+03 -4.77678E+03  2.13801E+03 -1.13054E+03  2.65248E+03 -1.42588E+03  5.11139E+03  3.02370E+03
 -4.18083E+03 -2.54940E+03 -1.27992E+03 -2.07845E+03  9.62550E+02  1.57908E+03  3.81211E+03  3.03471E+03
  2.29973E+03 -3.30922E+03  3.95189E+03  9.09293E+02 -3.76212E+03  2.46171E+03 -1.05179E+03 -2.73635E+02
 -1.08266E+03  6.54177E+02 -3.76479E+03  6.04778E+02  1.08817E+03 -1.90243E+03 -3.04583E+02  1.29729E+03
  1.73226E+03 -3.00569E+02  4.20832E+02 -7.20045E+01 -3.71393E+03  1.09170E+03 -5.00939E+03  2.60301E+03
 -4.38509E+03 -1.00673E+03  4.05500E+02 -1.24499E+03 -3.26514E+03 -3.47921E+03  2.34439E+03 -4.05555E+03
 -2.78406E+03  4.13699E+03 -1.11151E+03  2.92888E+03 -7.95128E+02  3.62003E+03  2.91963E+03  1.86048E+03
 -2.31361E+02  1.33724E+02 -3.54927E+03  6.41878E+02  1.33583E+03 -5.54570E+03  2.86930E+03 -4.23631E+03
  1.68134E+03  2.76993E+03  8.51509E+03 -2.54301E+03  5.47402E+03  5.96450E+02 -2.59009E+02  3.48081E+03
 -2.41663E+02 -3.14367E+02 -4.62819E+03 -2.85669E+02 -1.30629E+03  9.64433E+02 -2.09283E+03  3.32048E+03
  2.79371E+03 -2.46529E+03  1.87149E+03 -1.01721E+03  4.03636E+03  1.06399E+03  1.06737E+02 -1.83631E+02
  2.04286E+03  3.40163E+03  1.65532E+03 -1.92854E+03 -1.68664E+03 -1.02767E+03 -1.94221E+03 -2.56411E+03
  1.16549E+02 -2.62770E+03 -2.98572E+01  4.93316E+03 -1.31432E+03 -3.14957E+03 -6.02428E+02 -2.09449E+03
  2.08729E+02 -2.99776E+03  5.66477E+02 -3.05989E+03 -1.43534E+03 -2.09651E+03  2.83765E+03 -2.09341E+03
 -2.29214E+02 -5.27108E+02 -2.06288E+01  1.37113E+03  2.03773E+03  2.84869E+03  4.80299E+02  2.40174E+03
  1.04151E+03  2.99546E+03 -2.55763E+03 -4.28949E+03 -2.71820E+03  1.09361E+02  2.52596E+03  5.90291E+02
 -4.74617E+03 -9.33539E+02 -4.21393E+03  8.69466E+02  3.18704E+03 -3.42473E+03 -7.13588E+02  1.94962E+02
  5.90468E+02  1.11702E+03  4.33806E+03  1.63591E+03  3.11266E+03  1.00621E+03 -2.06359E+03 -3.94444E+03
 -1.48922E+03  3.65897E+03 -1.98961E+03  1.38649E+03  2.13661E+03  1.43852E+02 -1.38382E+02 -4.87545E+03
 -1.19590E+03 -1.21177E+03  3.41949E+03 -1.03270E+03 -1.27191E+03 -1.00272E+03  2.48860E+03  2.96339E+02
  7.60916E+02  2.10478E+03 -3.28205E+03  1.60093E+03 -3.08976E+03  1.94361E+03 -2.23741E+03 -1.26290E+03
 -5.06907E+03  3.99616E+03 -1.21687E+03  1.67215E+03  2.30942E+02 -9.11482E+02 -3.03710E+03  4.63575E+03
  3.90187E+03  7.48110E+02 -4.66884E+02  1.04358E+03 -2.48051E+03 -1.71949E+01  2.37441E+03  4.92144E+01
  1.41972E+03 -1.17034E+03  2.72693E+03  2.57094E+03  1.25518E+03 -2.24236E+03 -1.45738E+02  2.19140E+03
  9.00149E+02 -1.76239E+02  1.69644E+03 -9.53712E+02  1.07807E+03 -1.74349E+03 -5.64700E+02 -2.61136E+02
  5.63543E+02  1.50140E+03 -1.88778E+03  4.25100E+03  2.18027E+03 -2.71055E+03 -3.56596E+03  3.80985E+03
 -4.35863E+03 -4.36864E+03  4.99541E+03 -1.65544E+03  4.25405E+02  2.13793E+03  1.44715E+03  3.76558E+03
 -4.43321E+03  9.91186E+02 -3.19138E+02  1.99884E+03  5.78371E+02 -3.45669E+03  6.59541E+01  1.12428E+03
