 $NMID ID='MM_0lb_SNR50_9hz_g45_18.RAW', FMTDAT='(8E13.5)'
 TRAMP=1., VOLUME=1. $END
  3.10752E+05 -2.72599E+03  3.41250E+05  2.47579E+05  8.44088E+04  3.33641E+05 -1.27182E+05  2.52559E+05
 -1.97713E+05  8.54496E+04 -1.08003E+05 -3.48618E+04 -1.77323E+03 -5.17340E+04  5.39523E+04 -2.87397E+03
  3.51397E+04  5.66747E+04 -2.25723E+04  6.91526E+04 -5.80553E+04  6.33494E+04 -8.20507E+04  3.10901E+04
 -8.49989E+04 -1.44830E+04 -6.05534E+04 -5.31220E+04 -1.60753E+04 -6.80791E+04  2.56118E+04 -5.23071E+04
  3.83180E+04  1.84095E+03  2.25124E+04  4.74332E+04 -3.66422E+04  4.32408E+04 -6.90666E+04  3.61876E+03
 -5.72993E+04 -5.18040E+04 -4.42449E+03 -8.13963E+04  3.51322E+04 -5.62884E+04  4.85700E+04 -2.44395E+04
  4.75005E+04  1.44443E+04  3.18360E+04  2.68551E+04  1.62031E+04  3.21352E+04 -9.36708E+03  2.63534E+04
 -1.94425E+04  1.40598E+04 -1.80714E+04 -1.57031E+03  5.30813E+03 -4.90880E+03  1.98829E+04  1.48216E+04
  2.07715E+03  4.78110E+04 -3.63263E+04  3.59882E+04 -6.17744E+04 -1.09421E+03 -6.19659E+04 -3.86959E+04
 -1.47912E+04 -7.56194E+04  3.40569E+04 -4.41130E+04  6.37440E+04 -4.92114E+03  3.17170E+04  3.50339E+04
 -5.75100E+03  3.70055E+04 -3.43757E+04  1.86242E+04 -2.83211E+04 -9.57369E+03 -1.96665E+04 -1.27644E+04
 -1.14676E+04 -1.46969E+04  3.16635E+02 -1.63486E+04  1.11380E+04 -2.38394E+04  1.31235E+04 -1.17524E+04
  1.74248E+04  4.91306E+03 -1.06624E+04  1.64837E+04 -2.28801E+04 -1.19074E+04 -4.44598E+03 -3.19459E+04
  2.46503E+04 -5.03789E+04  5.20914E+04 -2.14751E+04  4.30676E+04  2.23638E+04  1.44499E+04  4.72233E+04
 -1.40595E+04  3.51871E+04 -2.62703E+04  6.02291E+03 -1.27332E+04 -2.59536E+04  2.38509E+04 -3.62314E+04
  4.16844E+04 -1.50871E+04  3.83009E+04  2.97971E+04  2.22779E+04  5.08071E+04 -1.07089E+04  5.97571E+04
 -3.39268E+04  4.00653E+04 -4.86808E+04  1.21005E+04 -5.11295E+04 -1.00956E+04 -3.17826E+04 -4.25868E+04
  4.70456E+03 -4.30292E+04  3.16611E+04 -1.31271E+04  2.83088E+04  1.21673E+04  1.11377E+04  2.06601E+04
 -1.25946E+04  9.63266E+03 -1.50732E+04 -5.36489E+03  7.62142E+01 -1.43968E+04  1.70579E+04  1.17152E+04
  1.07953E+04  2.77558E+04 -4.34773E+03  2.54058E+04 -2.16327E+04  1.00158E+04 -3.15223E+04 -3.34843E+03
 -2.76824E+04 -1.42397E+04 -1.69036E+04 -2.15674E+04  8.04281E+03 -2.48661E+04  1.75353E+04 -1.77350E+04
  2.65836E+04 -1.48763E+04  3.87301E+04  9.46973E+03  2.47161E+04  2.37266E+04 -2.82727E+03  4.35616E+04
 -2.51271E+04  3.28469E+04 -3.22589E+04  1.33376E+04 -1.68982E+04 -1.28269E+04 -2.91591E+03 -1.51859E+04
 -1.59256E+03  2.68578E+03 -8.70107E+03  8.40586E+03 -1.49458E+04  6.77776E+03 -1.88315E+04 -1.27492E+04
 -6.85580E+03 -2.01404E+04  9.78281E+03 -2.59234E+04  9.83074E+03 -2.19122E+04  2.36912E+04 -2.64222E+03
  1.24723E+04  1.08428E+04  2.64078E+02  2.53634E+04 -1.67987E+04  1.11586E+04 -2.82506E+04 -6.08821E+02
 -2.00647E+04 -2.16792E+04 -9.27540E+02 -2.55119E+04  7.22171E+03 -2.37921E+04  2.43486E+04 -1.19405E+04
  2.38861E+04 -3.18830E+01  1.59806E+04  5.50695E+03  3.59283E+02  3.31626E+03  1.64862E+04 -9.35101E+02
  1.87632E+04  5.58055E+03  2.92122E+04  1.33103E+04  1.66362E+04  3.51666E+04 -5.37167E+02  4.38764E+04
 -2.06701E+04  3.31439E+04 -4.60966E+04  2.25012E+04 -4.65908E+04  2.61103E+03 -3.37910E+04 -2.72223E+04
 -1.58892E+04 -3.60768E+04  1.29945E+04 -3.28759E+04  2.96323E+04 -1.04930E+04  2.08661E+04  7.19625E+03
  3.38483E+03  2.01717E+04 -1.36650E+04  1.40869E+04 -1.54761E+04  1.93126E+03 -1.68606E+04 -1.80693E+04
 -2.11686E+03 -1.69656E+04  8.11705E+03 -1.63083E+04  1.13810E+04 -2.51110E+03  1.89104E+03  1.26343E+04
 -3.06883E+03  5.49664E+03 -8.68668E+03 -6.65015E+03 -6.54585E+02 -1.58731E+04  1.38241E+04 -2.05728E+04
  3.09958E+04 -1.24481E+04  2.32454E+04  6.26177E+03  2.29013E+04  2.05026E+04  1.13692E+04  2.84008E+04
 -3.15872E+03  2.61017E+04 -1.33658E+04  1.76802E+04 -2.18113E+04  9.28358E+03 -1.59686E+04 -3.90367E+02
 -8.73664E+03 -1.35835E+04  2.27108E+02 -2.92770E+02 -4.00564E+03  3.61901E+03 -1.00886E+04  8.53098E+03
 -1.06718E+04 -8.73182E+02 -1.13703E+04 -9.80041E+03 -7.91194E+03 -1.45695E+04  2.36276E+03 -1.02411E+04
  1.19378E+04 -8.12999E+03  1.58507E+04  3.06850E+03 -1.64758E+03  3.99977E+03 -9.98737E+03  1.49748E+03
 -7.71925E+03 -8.11941E+03  1.82475E+03 -2.13768E+04  1.15078E+04 -1.55073E+04  1.62420E+04 -7.88344E+03
  1.74531E+04  3.67023E+03  1.89151E+04  1.30272E+04  2.38821E+03  1.56434E+04 -9.75560E+03  1.27698E+04
 -2.04603E+04  9.21875E+03 -3.59084E+03  8.13635E+02  2.87583E+02  1.40322E+03  6.56132E+03  2.53228E+03
  9.40679E+03  9.33541E+02 -3.21276E+03  1.25919E+04 -1.19110E+04  1.75601E+04 -1.68009E+04  7.55871E+03
 -4.79577E+03 -1.58592E+04 -2.27262E+03 -1.49946E+04  1.02291E+04 -1.00378E+04  7.91307E+03 -7.20602E+02
 -5.64269E+03  5.84608E+03 -1.43035E+04  1.39798E+04 -1.60801E+04  6.22282E+02 -1.90294E+04 -4.75181E+03
 -6.90649E+03 -1.19031E+04  2.26799E+03 -1.60458E+04  9.60961E+03 -1.56763E+04  2.33793E+04  1.94715E+03
  8.48294E+03  1.00150E+04  3.54792E+03  1.57340E+04 -1.62111E+04  9.49152E+03 -1.78578E+04 -1.70763E+03
 -9.22351E+03 -1.00570E+04 -3.14067E+03 -8.78928E+03  1.86420E+03 -1.19998E+04  7.40303E+03  6.27446E+03
  4.91050E+03  3.52694E+03 -2.43938E+03  5.27752E+03  3.96360E+03 -1.10599E+03  3.62119E+03 -5.18883E+03
  1.61939E+04 -4.14226E+03  1.01743E+04  2.48465E+03  1.88179E+04  9.60820E+03  6.31060E+03  2.22906E+04
 -3.70736E+03  1.91904E+04 -1.44060E+04  1.55889E+04 -2.56336E+04  2.58174E+03 -2.47303E+04 -1.21109E+04
 -7.22300E+03 -1.52941E+04 -1.32167E+03 -2.07448E+04  1.85759E+03 -4.01248E+02  1.06869E+04 -4.03425E+03
  7.17727E+03 -1.11713E+04  2.95870E+03 -5.71077E+03  4.73817E+03  3.89316E+02  8.88641E+03 -2.33349E+03
  1.57339E+04 -1.46537E+03  4.53748E+03  9.99037E+03 -1.16033E+03  9.83047E+03 -1.19952E+04  9.19483E+03
 -9.51881E+03 -3.84520E+03 -6.64272E+03 -1.39833E+04 -6.87054E+03 -1.34982E+04  7.30705E+03 -1.46168E+04
  1.87712E+04 -2.39543E+03  8.92194E+03  7.46061E+03  1.61610E+04  5.49629E+03 -6.73213E+01  1.95326E+04
 -2.70278E+03  1.68250E+04 -1.04035E+04  4.93296E+03 -7.83178E+03 -1.27728E+03 -1.38096E+03 -5.91718E+03
 -4.17001E+03 -3.33048E+03  2.67739E+03  4.16472E+03 -3.26305E+03  2.08827E+03 -1.04053E+04 -1.10717E+03
 -7.45609E+03 -9.85322E+03 -2.87513E+03 -1.78789E+04  3.13448E+03 -1.67349E+04  1.66852E+04 -1.13751E+03
  1.64311E+04  1.06424E+04  3.00872E+03  1.59395E+04 -6.30121E+03  1.17276E+04 -1.46136E+04  1.13430E+04
 -1.02192E+04 -1.21146E+03 -9.58935E+03 -4.90028E+03  3.75257E+03 -1.32038E+04  1.01931E+04 -1.05654E+04
  6.83811E+03 -8.60157E+03  9.75580E+03 -8.35316E+02  6.69795E+03  4.95062E+03  1.05809E+03  8.71986E+03
  9.42256E+03 -1.18965E+03  4.60666E+03  5.24862E+02  5.01483E+03  7.14536E+03  1.06162E+03  1.02172E+04
 -6.46082E+03  1.35223E+04 -1.10681E+04  7.58226E+03 -2.03112E+04  4.85236E+03 -1.63356E+04 -7.40957E+03
 -7.44753E+03 -1.73152E+04  8.58051E+02 -2.10264E+04  1.33128E+04 -7.89408E+03  1.55159E+04 -5.56429E+03
  1.07301E+04  1.16243E+01  3.74965E+03  8.41435E+03  2.51633E+03  7.86758E+03 -7.66499E+03  3.66189E+03
  2.54190E+03 -2.48761E+03  4.75976E+03 -2.38598E+03  6.92087E+03 -4.49661E+03  5.07562E+03 -6.22480E+02
  3.82891E+03  7.96610E+03 -4.96800E+03  5.10584E+01  1.58113E+03  4.41382E+03 -8.86697E+02 -2.70929E+03
  1.45475E+03 -1.21870E+03  5.31855E+03  8.13557E+02 -6.00339E+01  5.09854E+03  3.49383E+02  1.33434E+04
 -6.95174E+03  5.28526E+03 -1.41165E+04 -1.11852E+03 -7.86084E+03  2.97095E+03 -1.06618E+04  6.87742E+02
  2.40283E+02 -7.56834E+03  3.91806E+03 -4.68403E+03  5.43214E+03  8.49515E+03  1.62491E+03  3.08082E+03
 -5.70579E+03  3.21445E+03 -1.69532E+04 -4.45013E+03 -1.74537E+03 -9.22299E+03  5.91938E+03 -1.26257E+04
 -1.07179E+03 -5.69732E+03  5.45538E+02 -6.86061E+03  5.90052E+03  3.26074E+03 -3.70105E+03  5.40615E+03
 -1.03302E+04 -3.78320E+02 -5.77841E+03 -8.92968E+03 -1.62193E+03  5.37155E+02  3.82254E+03 -1.40637E+04
  1.30304E+04  6.33941E+03  6.22918E+03  1.28511E+04  7.49425E+03  7.63764E+03  1.00318E+03  5.34502E+03
 -7.52475E+03  1.96490E+03 -7.07644E+03 -3.95639E+03 -2.52115E+03 -7.74519E+03  2.47499E+03 -2.40549E+03
  7.48760E+03  2.45868E+03  1.34755E+03  5.51122E+03  4.49667E+03  9.00008E+03 -6.56593E+03  3.29244E+03
 -4.48715E+03 -4.98745E+03 -5.78908E+03  9.68383E+01  2.09387E+02  8.92920E+02 -3.23967E+03  5.30489E+03
 -1.00067E+02  6.14534E+03 -7.48819E+03  2.28537E+03 -6.20138E+03  6.00178E+03 -1.25250E+04 -5.18078E+03
 -7.59808E+03 -1.77191E+04  7.05280E+03 -1.29711E+04  8.18587E+03 -1.26069E+04  1.51259E+04 -3.52513E+03
  1.98376E+04  1.15837E+04  3.14016E+03  6.69808E+03 -3.06314E+03  1.36282E+04  2.85813E+02  3.77938E+03
 -8.80024E+03  6.47703E+02 -1.56376E+03  1.09159E+02  2.67051E+03  9.16241E+02 -8.41250E+02 -1.91714E+03
 -2.32064E+03 -8.46622E+03 -3.84192E+03  1.63443E+03  1.98549E+03 -2.22158E+03 -5.98642E+03  1.94932E+02
  8.91971E+03 -7.46778E+03  9.36337E+03 -4.24366E+03  4.37886E+03  6.61124E+03  3.58953E+03  1.22897E+04
 -8.22289E+03  1.77208E+04 -1.25113E+04  4.14849E+03 -1.92555E+04 -1.78793E+03 -3.31333E+03 -4.45613E+03
 -1.95170E+03 -7.89572E+03  2.43328E+03 -7.87708E+03  2.51398E+03 -7.28046E+03  1.27774E+04 -1.29103E+02
 -5.54611E+03  1.01068E+04  9.82391E+02  2.29183E+03 -1.54555E+02  7.31925E+03 -1.24875E+02 -1.42570E+03
  7.43476E+03 -2.72056E+03  8.88336E+03  5.19725E+03  5.30849E+03  7.08071E+03  1.49731E+03  4.65241E+03
 -8.33842E+03  4.77442E+03 -1.01991E+04  1.24252E+02 -9.28936E+03 -1.38001E+03  1.27299E+03 -2.48896E+03
 -5.57909E+02 -1.40630E+04  7.46562E+03 -5.35694E+03  7.41061E+03  3.14073E+02  1.15059E+04  1.29322E+04
  3.44216E+02  9.61094E+03  3.38382E+03  1.04774E+03 -5.55548E+03  7.18440E+03 -5.82175E+03 -4.27754E+03
  3.07918E+03 -7.92985E+02  8.12160E+03  4.19614E+03 -4.53601E+03 -2.56235E+03 -5.72418E+03  4.33793E+03
 -9.74557E+03  7.12781E+02 -2.45972E+03 -8.31222E+03  1.01876E+03  6.89931E+02  5.28293E+03 -8.77770E+03
  8.96980E+03 -1.86532E+03  7.54524E+03  8.15622E+03  1.41842E+03  2.99723E+03  2.52523E+03  3.70427E+03
