 $NMID ID='MM_0lb_SNR50_14hz_g45_38.RAW', FMTDAT='(8E13.5)'
 TRAMP=1., VOLUME=1. $END
  3.15071E+05 -9.15841E+02  3.38070E+05  2.49206E+05  8.89923E+04  3.38241E+05 -1.30867E+05  2.54300E+05
 -1.85260E+05  8.15688E+04 -1.06567E+05 -3.18023E+04  8.11606E+02 -5.25621E+04  5.61911E+04 -3.84846E+03
  4.00221E+04  5.44760E+04 -2.09540E+04  7.74124E+04 -5.86337E+04  6.70065E+04 -8.08945E+04  3.12315E+04
 -8.28135E+04 -1.08036E+04 -5.64745E+04 -4.92039E+04 -1.48804E+04 -6.51011E+04  2.86404E+04 -4.12883E+04
  4.05682E+04  1.00357E+03  1.91556E+04  4.84660E+04 -3.44223E+04  4.91039E+04 -6.30429E+04 -4.90863E+02
 -5.78522E+04 -6.13467E+04 -6.86813E+03 -7.62337E+04  3.42990E+04 -4.99296E+04  4.88795E+04 -1.61642E+04
  4.31340E+04  1.33829E+04  3.37005E+04  2.82155E+04  1.43266E+04  2.97490E+04 -5.52734E+03  2.60948E+04
 -2.16129E+04  1.14484E+04 -2.08674E+04 -6.11116E+03  7.27910E+03 -1.01485E+04  2.55968E+04  1.09339E+04
  6.59552E+03  3.46543E+04 -2.60713E+04  3.92807E+04 -6.59949E+04  8.06426E+03 -5.81957E+04 -4.49520E+04
 -1.17500E+04 -6.28064E+04  4.23246E+04 -4.28497E+04  5.53573E+04 -9.06733E+02  2.63993E+04  3.24721E+04
 -3.64958E+03  3.54759E+04 -2.74855E+04  1.56861E+04 -2.95862E+04 -5.25107E+03 -1.89303E+04 -1.26890E+04
 -8.74424E+03 -1.11668E+04 -5.09708E+03 -1.59621E+04  9.02496E+03 -3.00277E+04  1.21048E+04 -1.27881E+04
  1.08535E+04  2.75496E+03 -9.49630E+03  9.88391E+03 -1.83322E+04 -4.75725E+03 -6.89212E+03 -3.00419E+04
  2.12900E+04 -3.90228E+04  4.83015E+04 -1.53961E+04  3.79492E+04  2.12915E+04  1.81211E+04  4.34806E+04
 -1.71982E+04  3.31444E+04 -2.81494E+04 -3.99544E+03 -1.13449E+04 -2.69803E+04  2.10875E+04 -3.07645E+04
  4.22296E+04 -1.04959E+04  3.44004E+04  1.87330E+04  1.98060E+04  4.64703E+04 -1.38572E+04  4.96752E+04
 -3.14999E+04  3.46073E+04 -4.41459E+04  9.54090E+03 -3.78281E+04 -1.77515E+04 -2.17639E+04 -3.84389E+04
  6.95097E+03 -3.45999E+04  3.10033E+04 -1.76766E+04  2.99854E+04  1.39296E+04  3.34418E+03  1.85290E+04
 -1.69876E+04  3.70068E+03 -9.05303E+03 -4.57018E+03  1.09098E+04 -9.94275E+03  2.14877E+04  1.80387E+03
  1.48827E+04  1.47671E+04 -5.02118E+03  2.38448E+04 -2.33703E+04  1.29981E+04 -3.26527E+04 -1.95167E+03
 -2.27681E+04 -2.08512E+04 -4.58571E+03 -1.96651E+04  1.89424E+03 -1.79933E+04  1.68001E+04 -2.02145E+04
  2.59518E+04 -1.42213E+04  3.14046E+04  5.11456E+03  2.31017E+04  2.32996E+04  3.41003E+03  3.83800E+04
 -1.34644E+04  3.07791E+04 -2.89935E+04  1.19864E+04 -1.42393E+04 -4.55563E+03 -5.71248E+03 -1.15635E+04
  7.58550E+02 -2.37721E+03  3.24780E+02  5.27860E+03 -1.63902E+04  8.32653E+03 -1.61267E+04 -2.24148E+03
 -7.43551E+03 -1.98523E+04  3.48109E+03 -2.37428E+04  1.88269E+04 -1.48763E+04  2.16954E+04  1.13068E+03
  1.29553E+04  1.23654E+04  1.24588E+03  1.68292E+04 -1.10298E+04  1.35686E+04 -1.97183E+04  1.10818E+03
 -9.81103E+03 -1.86129E+04 -5.21816E+02 -2.23939E+04  9.81334E+03 -1.80670E+04  2.17241E+04 -9.50313E+03
  1.51396E+04  7.32443E+02  1.27986E+04  5.69594E+03  5.92953E+03 -2.31736E+02  6.90221E+03 -3.99576E+03
  1.59730E+04  7.49515E+02  1.62172E+04  2.17250E+04  9.51028E+03  2.67971E+04 -8.04128E+02  3.51145E+04
 -1.81312E+04  2.84178E+04 -3.27534E+04  1.49869E+04 -3.46295E+04 -3.69063E+03 -2.52108E+04 -1.88681E+04
 -1.33207E+04 -2.39597E+04  1.32624E+04 -2.14488E+04  2.68041E+04 -5.42449E+03  1.75800E+04  2.60645E+03
  8.72600E+03  1.56754E+04 -8.50243E+03  1.69302E+04 -1.84439E+04  4.44679E+03 -1.17350E+04 -1.05671E+04
 -2.81245E+03 -1.21587E+04  1.23379E+04 -1.07342E+04  6.98846E+03 -4.65619E+03  5.12973E+02  7.46142E+03
 -6.88528E+03 -7.43394E+02 -1.60064E+03 -3.82717E+03 -1.21894E+03 -1.35294E+04  9.29375E+03 -1.18859E+04
  1.83401E+04 -6.99434E+03  1.62373E+04 -1.08263E+03  1.57941E+04  1.00476E+04  8.14408E+03  2.11976E+04
  2.36845E+03  2.23964E+04 -1.30256E+04  1.07713E+04 -1.87316E+04  3.22014E+03 -1.14530E+04 -1.79796E+03
 -4.59891E+03 -5.85474E+03  3.88808E+02  3.57979E+03  2.46057E+03  3.58851E+03 -5.26204E+03  4.27999E+03
 -4.74958E+03  1.04303E+03 -1.19684E+04 -1.11998E+04 -3.41558E+03 -1.24306E+04 -3.23112E+02 -1.13229E+04
  8.23684E+03 -3.50303E+03  2.92310E+03  4.04535E+03  3.75061E+03  4.44508E+03 -9.47144E+03 -1.04920E+03
 -3.28647E+03 -5.78724E+03 -2.24814E+03 -1.21152E+04  4.67325E+03 -1.14897E+04  1.03471E+04 -9.13947E+03
  1.17317E+04 -1.68611E+03  1.43068E+04  5.25612E+03  1.00055E+03  1.54452E+04 -1.25001E+04  9.96743E+03
 -9.00057E+03  3.76346E+03 -3.36364E+03  4.67603E+03 -2.55368E+03 -5.90137E+03  4.72074E+03 -4.77970E+03
  5.21875E+03  4.74766E+03  1.95137E+03  1.16086E+04 -3.69445E+03  8.02546E+03 -8.40241E+03  1.65446E+03
 -1.03791E+04 -5.76983E+03  5.19088E+03 -1.20113E+04  5.52520E+03 -2.68524E+03  5.87510E+03 -4.77229E+03
  5.19443E+03  3.02722E+03 -3.95097E+03  7.98875E+03 -5.15291E+03 -4.72191E+02 -8.14053E+03 -2.44797E+03
 -7.09449E+02 -7.62198E+03  4.12724E+03 -1.16010E+04  8.57266E+03 -8.72933E+03  1.14524E+04  4.12205E+03
  7.23765E+03  7.32546E+03 -1.53703E+03  1.28987E+04 -7.66524E+03  5.65251E+03 -5.82111E+03  3.87494E+03
 -8.40663E+03 -1.24573E+04 -5.38067E+03 -9.51588E+03  7.70406E+03 -3.40539E+03  3.35008E+03 -8.54122E+03
  1.56189E+03  5.80939E+02  9.89002E+02  2.65625E+03 -3.79322E+03  2.40485E+03 -2.70004E+02 -6.21520E+03
  7.71921E+03 -1.30160E+03  8.66956E+03  1.01617E+03  1.04993E+04  5.78893E+03  6.66599E+03  1.40195E+04
 -1.41336E+03  1.86582E+04 -1.34531E+04  8.78637E+03 -1.38685E+04 -1.20728E+03 -1.11427E+04 -9.64873E+03
 -1.07193E+04 -8.58979E+03  9.80085E+02 -9.43961E+03  2.24680E+03 -1.09688E+03  6.72999E+03 -4.73964E+03
  5.84170E+03 -1.46450E+03  1.54878E+03 -3.20557E+03  4.16308E+03 -3.94038E+03  8.82727E+03  1.85446E+03
  4.60196E+03  8.89046E+02 -3.53772E+03  6.07594E+03  3.53129E+02  2.09378E+03 -1.01792E+04  5.81786E+03
 -6.14864E+03 -3.22225E+02 -7.18594E+03 -4.54539E+03 -3.69982E+03 -6.30856E+03  6.68909E+03 -9.33513E+03
  7.67648E+03 -4.36463E+03  1.19333E+04  4.52892E+03  5.65377E+03  9.07619E+03  2.20855E+03  7.09364E+03
 -2.61017E+03  5.37793E+03 -5.00262E+03  5.04316E+03 -9.80191E+03 -5.47355E+03 -4.25008E+03 -1.25897E+03
  1.74336E+02 -5.30099E+02 -3.35684E+02  2.88818E+03 -3.10656E+03 -3.14490E+03 -6.03825E+03  4.22280E+02
 -1.33345E+03 -3.61150E+03  2.59125E+03 -6.38759E+03  4.10501E+03 -1.13332E+04  4.09338E+03 -2.43494E+03
  7.62781E+03 -2.93063E+02  1.27835E+03  6.74238E+03 -2.40865E+03  1.13942E+04 -9.04468E+03  3.10708E+03
 -8.45956E+03  3.16251E+03 -7.27330E+03 -2.47152E+03 -5.22431E+02 -4.52188E+03  7.46322E+03 -2.94662E+03
  1.80632E+03 -3.54496E+03  7.29061E+02  2.87682E+03  4.28437E+03  9.03546E+01  3.86491E+03  9.07182E+02
  2.92152E+03 -2.15072E+03  1.04972E+03 -1.41267E+03  1.02270E+03  1.55374E+03 -1.24244E+03  6.90265E+03
 -5.66515E+03  6.76340E+03 -9.00466E+03  6.92286E+03 -6.45349E+03  3.48977E+03 -9.91715E+03 -1.67416E+02
 -5.21589E+03 -1.10167E+04  8.04255E+02 -8.58693E+03  3.29566E+03 -8.74453E+03  6.35708E+03  1.36724E+03
  6.18318E+03  5.30762E+03 -4.35682E+03  7.40713E+03 -5.90437E+02  1.25916E+02  4.39927E+02  2.74819E+02
 -2.34591E+03 -3.42393E+03  4.72320E+03  1.56733E+03  1.48068E+03 -5.06014E+02  7.97862E+03  2.59294E+02
 -2.47549E+02  5.08594E+03 -1.69932E+03 -1.56708E+03 -3.16877E+03  7.32866E+02 -1.18317E+03 -1.47702E+03
 -2.26384E+03  7.24993E+03  2.24316E+03 -3.43180E+03  3.64925E+03  1.54799E+03 -7.91328E+03  7.10119E+03
 -4.04639E+03  6.29117E+03 -6.72753E+03  2.84041E+03 -3.90561E+03 -5.43186E+03 -1.24693E+03 -2.77870E+03
  5.53074E+03 -2.66110E+02  4.44610E+03 -2.60761E+03  4.59635E+03  8.64618E+01 -3.04576E+03  7.16880E+03
 -5.58632E+03  2.79729E+02  1.93218E+03 -2.68122E+03 -2.27656E+03 -4.33723E+03  2.55061E+03 -6.06687E+03
  4.11515E+03  1.83368E+03 -2.28760E+02  1.33805E+03  4.17399E+03 -1.71576E+03 -7.85191E+02  4.69168E+03
 -1.57557E+03  1.95623E+03 -1.37445E+03 -3.93309E+03  6.60520E+02 -2.28926E+03 -1.73971E+03  3.29438E+03
  3.00287E+02  1.47823E+03  5.25812E+03  4.03832E+03  8.04377E+02  5.30654E+03  1.40716E+03  4.09377E+03
  1.18739E+03  2.64002E+03 -3.31072E+03 -3.70698E+03 -1.29726E+03 -3.90378E+03 -1.91874E+03 -1.96097E+03
  4.19800E+03 -6.37000E+03 -1.42945E+03  1.20169E+03 -1.00935E+03  3.13410E+03  7.06195E+02  3.59511E+03
  1.88813E+02  1.32981E+03 -2.64349E+03 -1.12646E+03 -2.36104E+03  3.15631E+02  5.38797E+01  4.13149E+03
  3.64739E+02 -3.35314E+03 -3.14042E+03  5.92658E+02 -6.66882E+03  1.92579E+03 -3.16392E+03 -3.43413E+03
 -5.77742E+03 -9.03994E+02 -4.14496E+03 -3.83392E+03  4.62602E+03 -3.62269E+03  1.85607E+03  3.56143E+03
  4.99083E+03  2.57154E+03  7.01485E+02  5.77921E+03  1.16515E+03  2.63336E+03 -1.39375E+03  6.84704E+03
 -4.24438E+02  4.49507E+03 -4.30411E+03  1.67043E+03  8.34811E+00 -3.47049E+03 -2.26189E+03 -2.16314E+03
 -1.36797E+03  2.01084E+03  2.08629E+02  4.20742E+03 -4.26290E+03 -1.35143E+03 -4.41169E+02 -1.22971E+03
 -5.76359E+02  2.07975E+03  3.07480E+03  1.33225E+03  7.11607E+03  1.81778E+03 -2.58262E+03  2.44486E+03
 -1.98456E+03  4.73172E+03 -6.21008E+03  4.06786E+03 -7.82114E+03  5.16697E+02 -5.08822E+03 -3.59018E+02
  2.45478E+02 -1.51750E+03 -1.09108E+02 -5.20028E+03 -1.49138E+03  2.90709E+03 -7.78416E+02 -7.43646E+01
  2.19310E+03  4.25313E+03 -1.82258E+02 -2.49922E+03 -2.39497E+03  6.66099E+03 -2.19265E+03 -4.96872E+03
 -4.63283E+02 -2.40666E+03  1.16947E+03 -2.12567E+03  1.91723E+03  3.02423E+02 -1.66862E+03 -2.59905E+03
 -4.79894E+02  1.58148E+03 -3.70754E+03  1.70202E+02  6.74093E+02  3.37780E+03 -4.77741E+03 -2.80885E+03
  4.33215E+03 -2.21131E+03  2.65043E+03  4.60048E+01  2.63222E+03  7.03017E+02  7.41884E+02  1.43363E+03
  2.05960E+03  6.74493E+02 -1.12729E+03  2.57131E+03 -3.70754E+03 -8.25596E+02 -2.89180E+03 -3.28015E+03
 -2.05453E+03  1.22089E+02 -5.18401E+03 -1.60286E+03 -4.34730E+03  5.47898E+02 -1.49343E+03 -3.85965E+03
 -2.70055E+02 -5.77988E+02 -1.11432E+03 -1.69599E+03  2.27573E+03 -1.74009E+03  3.36844E+03 -1.88808E+02
  3.25601E+03  1.22765E+03  1.60589E+03 -3.36457E+02  1.01432E+03  1.23103E+03  4.86580E+02  2.07377E+03
