 $NMID ID='MM_0lb_SNR50_16hz_g60_60.RAW', FMTDAT='(8E13.5)'
 TRAMP=1., VOLUME=1. $END
  3.13483E+05  3.25129E+03  3.40039E+05  2.50263E+05  8.66065E+04  3.42099E+05 -1.32682E+05  2.51036E+05
 -1.92174E+05  8.61733E+04 -1.11647E+05 -3.54841E+04  1.47088E+03 -5.03628E+04  5.07142E+04 -5.56361E+01
  3.30804E+04  5.22915E+04 -1.90645E+04  7.50372E+04 -5.75900E+04  6.39091E+04 -8.56228E+04  3.19963E+04
 -8.33980E+04 -1.28264E+04 -5.33865E+04 -4.96074E+04 -1.63499E+04 -7.09936E+04  3.11448E+04 -4.37528E+04
  3.60852E+04 -9.81550E+01  1.35316E+04  4.97506E+04 -3.03422E+04  5.21964E+04 -6.70478E+04 -2.03217E+03
 -4.86194E+04 -5.81915E+04 -4.71485E+03 -7.41574E+04  3.56344E+04 -5.64773E+04  5.43025E+04 -1.88094E+04
  4.43637E+04  1.69397E+04  3.07459E+04  2.67298E+04  1.10635E+04  2.61945E+04 -5.42249E+03  3.21184E+04
 -2.47677E+04  1.17981E+04 -1.62367E+04 -9.06964E+03  3.77320E+03 -4.86601E+03  2.53343E+04  1.14059E+04
  6.90824E+03  3.38313E+04 -3.42958E+04  3.61484E+04 -6.20284E+04  7.17762E+00 -5.50352E+04 -4.19661E+04
 -1.18036E+04 -6.06567E+04  4.34572E+04 -4.37661E+04  5.76416E+04  3.04968E+03  3.53397E+04  3.58467E+04
 -6.65458E+03  3.85764E+04 -3.01862E+04  1.98326E+04 -2.93667E+04 -8.37230E+03 -1.66297E+04 -9.91182E+03
 -9.70363E+03 -1.26442E+04 -3.42173E+03 -1.68047E+04  2.45675E+03 -2.00385E+04  1.59571E+04 -2.02648E+04
  1.15104E+04  6.12531E+03 -1.07562E+04  1.28476E+04 -1.91714E+04 -5.71957E+03 -5.82680E+03 -3.63864E+04
  2.33326E+04 -4.63347E+04  4.60874E+04 -1.91400E+04  4.05140E+04  1.61988E+04  1.13153E+04  4.21695E+04
 -1.55566E+04  3.38147E+04 -2.41974E+04  2.22781E+03 -7.12983E+03 -2.69253E+04  1.66773E+04 -3.30033E+04
  4.14018E+04 -8.21186E+03  3.82936E+04  2.34277E+04  1.78346E+04  4.21807E+04 -7.58625E+03  5.05099E+04
 -3.18736E+04  3.68669E+04 -3.73149E+04  1.30306E+04 -4.39713E+04 -1.54594E+04 -2.45052E+04 -3.13862E+04
  2.52665E+03 -3.93013E+04  3.27405E+04 -1.45462E+04  2.92079E+04  1.14170E+04  5.70101E+03  1.58287E+04
 -1.54825E+04  6.05118E+03 -1.48084E+04 -5.83324E+03  6.11412E+03 -7.50931E+03  1.72509E+04  6.16020E+03
  6.95134E+03  1.95064E+04 -9.01708E+03  2.21728E+04 -2.06848E+04  1.46308E+04 -3.17666E+04 -8.87372E+03
 -2.03375E+04 -1.53639E+04 -7.94649E+03 -2.03270E+04  4.40392E+03 -1.69853E+04  1.58827E+04 -1.97989E+04
  2.68014E+04 -9.30763E+03  3.25421E+04  3.57479E+03  1.84151E+04  1.75153E+04  7.44183E+03  3.75961E+04
 -1.86807E+04  3.06835E+04 -2.85118E+04  1.31250E+04 -2.37317E+04 -1.17242E+04 -4.26111E+03 -1.65668E+04
 -1.46613E+03 -2.31344E+03 -2.62553E+03  1.83222E+03 -1.72511E+04  5.65921E+03 -1.72699E+04 -5.26094E+03
 -1.76029E+04 -2.04149E+04  4.21000E+03 -2.17675E+04  1.23141E+04 -1.41659E+04  2.13681E+04  5.30851E+02
  7.86731E+03  1.29096E+04  3.48932E+03  2.05789E+04 -1.52065E+04  1.04136E+04 -9.86572E+03  2.84542E+02
 -2.04336E+04 -1.42789E+04 -3.34755E+03 -2.30294E+04  8.37586E+03 -1.99721E+04  2.13056E+04 -8.03298E+03
  1.68708E+04  2.69317E+03  1.29901E+04  5.00103E+03  9.15368E+03  2.94534E+02  1.29985E+04 -1.46833E+03
  1.79362E+04  5.24184E+03  1.55604E+04  1.74694E+04  1.24649E+04  3.16500E+04 -6.24907E+03  3.71606E+04
 -1.79317E+04  2.43469E+04 -3.26434E+04  1.02503E+04 -3.36403E+04 -4.83042E+03 -2.65624E+04 -2.11794E+04
 -1.05436E+04 -3.20785E+04  9.70426E+03 -2.28588E+04  1.89695E+04 -1.38764E+04  1.40166E+04  8.74870E+03
  7.05588E+03  1.86214E+04 -9.12434E+03  1.42283E+04 -2.03084E+04  1.70069E+03 -1.10509E+04 -1.40547E+04
 -4.80348E+03 -1.59960E+04  9.08557E+03 -6.05410E+03  1.25228E+04 -3.75530E+03  2.35530E+03  2.73835E+03
 -5.61303E+03  4.55474E+03 -6.58340E+03 -4.19579E+03  2.85565E+02 -8.49446E+03  1.00646E+04 -1.50693E+04
  1.44802E+04 -6.27589E+03  1.85214E+04  4.65434E+03  1.27393E+04  1.09128E+04  7.78489E+03  1.88594E+04
 -3.56505E+03  2.20026E+04 -9.93825E+03  1.44322E+04 -1.88186E+04  6.28715E+03 -1.53802E+04  1.02698E+03
 -5.26860E+03 -7.67487E+03 -2.94369E+03 -2.30733E+03 -7.58048E+02  6.47423E+03 -2.95202E+03  5.38083E+03
 -1.22634E+04 -2.37799E+03 -1.46855E+04 -6.50395E+03 -4.32437E+03 -1.59995E+04  6.14704E+03 -8.31770E+03
  9.94037E+03 -8.46693E+03  6.07668E+03  3.08908E+02 -3.66063E+03  4.26938E+03 -4.17111E+03 -2.39726E+03
 -5.77322E+03 -7.97590E+03  1.95627E+03 -1.43379E+04  6.50257E+03 -1.02544E+04  1.01802E+04 -4.50384E+03
  1.32636E+04 -1.12226E+03  1.01276E+04  8.28598E+03  5.21933E+03  7.81471E+03 -3.89070E+03  1.14537E+04
 -1.22721E+04  8.53206E+03 -5.39945E+03 -2.51489E+03 -4.19591E+02 -8.07201E+02  7.41201E+03 -7.40131E+03
  3.25612E+03  6.31804E+03  5.96775E+02  2.20423E+03 -6.46093E+03  6.93743E+03 -1.35622E+04 -1.78667E+03
 -1.12622E+04 -5.19771E+03 -3.63885E+03 -5.30550E+03  5.31689E+03 -8.30137E+03  7.46424E+03  5.19989E+03
 -4.34782E+03  9.43997E+03 -5.60177E+03  6.53122E+03 -7.52469E+03  9.45815E+03 -4.90175E+03 -5.00257E+03
  2.33429E+03 -1.05403E+04 -9.68566E+02 -1.06898E+04  8.09024E+03 -6.64693E+03  1.20867E+04  4.00685E+03
  2.81338E+03  7.77392E+03  5.80469E+01  1.00946E+04 -2.51949E+03  8.37484E+03 -5.19602E+03 -1.64568E+03
 -1.21578E+04 -6.16422E+03 -2.25332E+03 -8.12050E+03  2.73271E+03 -5.59762E+03  3.30309E+03 -4.00790E+03
  3.52291E+03 -2.22972E+02 -3.82797E+03  4.17725E+03  1.18105E+03 -1.78634E+03  1.45445E+02 -1.04528E+03
  8.44551E+03  3.28981E+03  4.45210E+03  3.26632E+03  1.22126E+04  5.86531E+03  8.76371E+03  1.00132E+04
  6.76630E+02  1.15156E+04 -7.73692E+03  1.32141E+04 -1.38425E+04  3.61649E+03 -8.22986E+03 -5.31988E+03
 -7.85415E+03 -8.12738E+03 -3.70491E+03 -1.20872E+04  4.94588E+03 -5.80618E+03  4.68874E+03 -2.37036E+03
  4.60899E+03 -2.57187E+03  2.06728E+03 -1.54403E+03  5.80285E+03  7.57431E+02  5.45092E+03  8.32732E+02
  1.08961E+04  1.20060E+03 -3.10533E+03  2.15406E+03 -4.90595E+02  9.33996E+03 -6.74014E+03  5.82144E+03
 -1.07226E+04  9.19847E+02 -1.31301E+03  8.47487E+02  1.78266E+03 -6.68871E+03  2.10505E+03 -8.97374E+03
  1.14769E+04 -2.85613E+03  8.89368E+03  1.77144E+03  1.43468E+03  7.19314E+03 -6.85576E+02  6.29368E+03
 -5.30851E+02  9.95740E+03 -4.44336E+03  5.49593E+03 -7.63918E+03  3.03270E+03 -6.63558E+02 -4.95502E+03
 -1.47796E+03  2.17078E+03 -5.15870E+03  4.79188E+03 -4.18302E+03  8.42818E+02 -4.72475E+03 -2.62300E+02
 -8.13678E+03 -6.77687E+03  1.84402E+03 -7.14047E+03  3.76587E+03 -5.34647E+03  2.25302E+03 -1.86733E+03
  1.01223E+04  6.02847E+02  1.93751E+03  4.42203E+03  1.15424E+03  4.95652E+03 -7.75134E+03  3.91423E+03
 -4.84522E+03  1.59649E+03 -3.97419E+03 -6.27102E+03 -6.22018E+01 -4.48738E+03  1.91796E+03  2.04957E+02
  5.14897E+03 -4.30602E+03  2.55539E+03 -4.50576E+03  3.18303E+03  4.04840E+03  9.40415E+01  3.23558E+03
  8.59006E+02  3.98875E+03 -2.75072E+02  4.30481E+02 -1.37155E+03  1.82287E+03  6.25230E+03  5.91096E+03
  4.67936E+02  7.86657E+03 -3.31327E+03  1.21079E+04 -6.43055E+03  2.07095E+03 -7.51637E+03  1.29541E+03
 -2.80674E+03 -2.58381E+03 -1.17465E+03 -4.88538E+03  1.60630E+03 -1.73430E+03  2.62056E+03 -2.79291E+03
  6.02999E+03  1.55368E+03  5.54779E+02  2.79113E+03 -7.80887E+03  3.69802E+03 -4.03273E+03  1.77118E+03
 -5.29742E+03 -4.29619E+03  1.07374E+03 -9.87915E+00  2.57615E+03 -3.79869E+03  2.34285E+02 -1.22026E+03
  4.06107E+03 -1.89405E+03  5.44448E+03  2.72187E+03 -2.99137E+03  4.83834E+02  6.89650E+03  2.21563E+03
  7.47212E+02  4.75952E+02  4.89192E+03 -4.15776E+02  6.18734E+03  4.83368E+03  7.29931E+02  4.68883E+03
 -2.02130E+03 -3.54725E+02 -3.87840E+03  1.67450E+03 -2.66949E+03 -5.21691E+03 -1.35078E+03 -6.57157E+03
  3.17948E+03 -1.00132E+03 -1.03609E+02 -2.73117E+03  2.69788E+03 -7.43567E+02 -5.75676E+03  3.28038E+03
 -3.52447E+03  1.75032E+03 -1.35868E+03  2.30155E+03 -5.38184E+03  3.36749E+02  9.12257E+02 -3.00845E+03
  4.94600E+03 -4.18920E+02  2.22343E+03 -3.39017E+02  2.91106E+03  1.94829E+03  3.53111E+02  2.69592E+02
 -2.03392E+03  2.35494E+03 -3.74481E+03 -5.02711E+03  1.81088E+03 -5.32709E+03  3.75111E+03 -2.04741E+03
 -1.33564E+03  6.37777E+03  3.54800E+03 -4.77378E+02  2.52648E+03  1.41244E+03 -1.83702E+02  5.05882E+03
 -2.05884E+03  3.34370E+03 -2.28451E+03 -8.20562E+02 -2.33959E+02 -4.74992E+03 -3.48678E+03 -1.26823E+03
  2.43768E+03  1.09387E+03  4.25340E+03  2.84257E+03 -4.34191E+02  1.95808E+03 -1.82219E+03 -5.65510E+02
 -7.12632E+03 -3.23564E+03 -3.06581E+03 -4.12224E+02 -1.74080E+03  2.47679E+03 -1.07413E+03  2.91790E+03
  8.13477E+01  3.67385E+03 -8.32715E+02  1.43780E+02 -1.37358E+03 -2.28302E+03 -3.32162E+03  1.61614E+03
 -2.16912E+03 -5.19738E+03  3.98375E+03 -3.56897E+03  3.26748E+03 -2.17978E+03  3.38172E+03 -3.99482E+03
  7.60311E+02 -2.85862E+03  7.62655E+02  3.84393E+03  4.57245E+03  1.14459E+03 -6.26941E+03  1.55126E+03
  2.81234E+03 -1.24151E+02  4.08173E+03 -4.35777E+03 -2.85234E+03 -5.43700E+03  3.86367E+03 -2.47789E+03
  4.99436E+02 -4.49688E+03 -1.35291E+03  2.60511E+03 -3.52877E+03 -4.68552E+03  8.94451E+02 -5.45649E+02
  3.77397E+03 -6.02817E+02 -3.03445E+02  9.78895E+02 -6.47326E+01 -7.35944E+02 -1.58177E+03  1.04200E+03
 -3.65721E+02  1.67960E+03 -3.72549E+03  4.08960E+03 -8.77466E+02  2.34621E+03 -1.94818E+03 -3.52976E+03
 -5.41983E+03 -7.91146E+03  4.45189E+03  2.14893E+03  1.07633E+03 -3.33697E+03  2.76574E+03  3.14251E+03
 -2.73083E+03 -3.43133E+03 -1.09119E+03 -2.45192E+03 -1.04472E+03 -3.54364E+02  1.17276E+03  2.96020E+02
  3.81186E+02 -2.13504E+03  5.43331E+02  4.49751E+03  1.50956E+03 -3.28516E+02  1.92677E+03  4.15115E+03
  8.04035E+02  1.64451E+03  2.16615E+02 -4.05375E+02  1.52959E+03 -4.61784E+03 -1.43325E+03 -2.93990E+03
 -2.01616E+03 -2.31633E+03  2.15214E+03 -5.42094E+03  6.31366E+03  4.60947E+02 -1.89301E+03  5.57075E+02
  4.12918E+03  4.39002E+02  3.30556E+03  4.99429E+03  4.20961E+02  4.33309E+03 -1.63952E+03 -1.41457E+02
  5.07448E+02 -5.03441E+03  3.23602E+03  2.67440E+02 -2.17976E+03 -3.93984E+02  2.45939E+03 -2.36316E+03
  1.41468E+03  1.75425E+03  3.17461E+03 -2.79850E+03  2.73526E+03 -7.64257E+02  4.46045E+02 -2.59290E+03
 -2.18482E+03  2.37410E+02 -1.13622E+03  1.24684E+03 -1.96067E+03  4.11598E+03  2.43882E+03  3.27289E+03
