 $NMID ID='MM_0lb_SNR50_17hz_g45_44.RAW', FMTDAT='(8E13.5)'
 TRAMP=1., VOLUME=1. $END
  3.07244E+05 -2.70717E+03  3.38846E+05  2.50187E+05  8.51965E+04  3.38694E+05 -1.34248E+05  2.49894E+05
 -1.87221E+05  8.22451E+04 -1.09075E+05 -3.19603E+04  1.22165E+02 -5.13425E+04  5.20798E+04  8.72090E+02
  3.55616E+04  4.96682E+04 -1.58792E+04  7.18258E+04 -5.96925E+04  6.19988E+04 -8.07316E+04  3.11027E+04
 -8.11325E+04 -9.41600E+03 -5.73550E+04 -5.14561E+04 -1.42332E+04 -6.59136E+04  2.63045E+04 -4.66890E+04
  4.13281E+04  5.04469E+03  2.00774E+04  4.66713E+04 -3.58606E+04  5.05799E+04 -6.19717E+04 -1.81385E+03
 -5.33865E+04 -5.91854E+04 -3.87590E+03 -7.50940E+04  3.29445E+04 -5.52109E+04  4.70675E+04 -2.04358E+04
  4.31672E+04  1.44987E+04  2.82096E+04  2.23706E+04  1.59766E+04  2.42168E+04 -8.04572E+03  2.70695E+04
 -2.51822E+04  1.55204E+04 -1.74397E+04 -7.27108E+03 -3.65211E+02 -1.17517E+04  2.06452E+04  1.19160E+04
  4.97679E+03  3.42623E+04 -3.00337E+04  3.67135E+04 -6.36094E+04  1.94428E+03 -5.74387E+04 -4.00013E+04
 -1.09387E+04 -6.22806E+04  3.94528E+04 -4.13758E+04  5.53479E+04  6.95050E+02  3.34326E+04  2.83744E+04
 -5.78672E+03  3.70001E+04 -2.84211E+04  1.61009E+04 -2.63876E+04 -5.18260E+03 -1.52279E+04 -1.05370E+04
 -9.27760E+03 -4.75237E+03 -1.19459E+03 -1.42406E+04  7.20245E+03 -2.03559E+04  1.19542E+04 -6.51837E+03
  1.40007E+04  3.84370E+03 -7.88086E+03  1.52801E+04 -1.59836E+04 -2.02620E+03 -1.04849E+04 -3.19537E+04
  1.82910E+04 -3.92075E+04  4.68218E+04 -2.01192E+04  4.23104E+04  1.75844E+04  1.42645E+04  3.96281E+04
 -1.55452E+04  2.56746E+04 -2.22305E+04 -5.14193E+02 -1.17288E+04 -2.29776E+04  2.16986E+04 -2.89679E+04
  3.51660E+04 -1.05456E+04  3.03455E+04  2.44827E+04  1.90801E+04  4.32201E+04 -1.03501E+04  4.77935E+04
 -3.20465E+04  2.95557E+04 -4.20709E+04  7.88241E+03 -3.99259E+04 -1.50696E+04 -2.14425E+04 -3.51468E+04
  9.23759E+03 -3.14355E+04  2.88423E+04 -1.15212E+04  2.61188E+04  1.11148E+04 -5.26949E+00  1.74642E+04
 -1.46154E+04  1.22286E+04 -9.48905E+03 -7.88071E+03  7.07221E+03 -1.15424E+04  1.34447E+04  3.33014E+03
  1.40840E+04  2.10344E+04 -5.83004E+03  2.71217E+04 -2.10998E+04  9.75423E+03 -2.47580E+04 -7.84425E+03
 -1.80443E+04 -1.09224E+04 -4.43597E+03 -1.69303E+04  4.24975E+03 -1.81488E+04  1.13391E+04 -1.18506E+04
  1.94309E+04 -1.12961E+04  2.53304E+04  6.12585E+02  1.95100E+04  1.46658E+04  1.05225E+04  3.05221E+04
 -1.31051E+04  2.40520E+04 -2.47291E+04  9.25174E+03 -2.15709E+04 -8.37434E+03 -3.47593E+03 -1.44690E+04
  3.82129E+03 -6.23128E+03 -4.06715E+03  5.95695E+03 -1.66838E+04  8.75530E+03 -1.30665E+04 -2.61921E+03
 -1.24771E+04 -1.98520E+04  2.98288E+03 -2.24057E+04  1.83297E+04 -1.68968E+04  1.49757E+04 -8.36420E+02
  9.35144E+03  1.32524E+04 -6.05116E+02  1.50709E+04 -1.03969E+04  1.00697E+04 -1.37975E+04 -1.52710E+03
 -1.34723E+04 -1.31120E+04 -2.70288E+03 -1.98036E+04  2.96618E+03 -1.71731E+04  1.43818E+04 -1.13932E+04
  1.56629E+04 -8.08879E+02  1.45769E+04  7.07603E+03  9.42788E+03  2.58617E+03  8.99353E+03 -1.43707E+03
  1.31502E+04  3.15035E+03  1.54436E+04  1.02647E+04  8.02648E+03  2.26470E+04 -6.41551E+03  2.76387E+04
 -1.66877E+04  2.27638E+04 -2.59830E+04  9.39929E+03 -2.75614E+04 -4.81882E+03 -2.09601E+04 -1.34099E+04
 -1.20652E+04 -2.43827E+04  8.39544E+03 -1.91809E+04  2.09670E+04 -1.09782E+04  1.68372E+04  8.05377E+03
  6.28417E+03  1.07245E+04 -8.69400E+03  1.10153E+04 -1.79839E+04  2.63169E+03 -6.41464E+03 -1.01677E+04
  1.46653E+03 -1.45165E+04  9.49693E+03 -1.00714E+04  8.70152E+03 -2.07002E+03  1.54817E+03  4.32420E+03
 -3.99772E+03  5.43857E+03 -2.93691E+03 -4.21834E+03  4.14321E+03 -1.46848E+04  5.06381E+03 -9.63473E+03
  1.65374E+04 -6.12349E+03  1.84103E+04  5.74840E+03  9.84425E+03  1.09352E+04  2.06157E+03  1.81520E+04
 -2.14976E+03  1.93966E+04 -1.16610E+04  7.09890E+03 -9.77491E+03  1.48058E+03 -1.30932E+04 -3.60402E+03
 -1.78764E+03  8.21711E+02 -8.62461E+02 -3.35893E+03 -4.63308E+03  2.69054E+02 -7.25356E+03  2.29985E+03
 -1.16237E+04 -1.44742E+03 -9.13649E+03 -7.14151E+03 -7.12402E+02 -1.27527E+04  3.08995E+03 -1.29988E+04
  4.28744E+03 -4.12880E+03  1.61873E+03  3.23872E+03  3.92783E+02  5.07237E+03 -1.72269E+03  4.92632E+03
 -3.95693E+03 -6.77358E+03 -3.64691E+03 -1.02777E+04  8.07351E+03 -1.11931E+04  1.00801E+04 -2.91960E+03
  1.37196E+04  1.73180E+03  7.95090E+03  6.87537E+03  3.42301E+03  9.46301E+03 -7.16092E+03  1.02847E+04
 -9.70020E+03 -1.29813E+03 -6.86264E+03 -1.11874E+03  7.18302E+02 -2.69979E+03  5.22689E+03 -3.26832E+03
 -1.08564E+03  7.45509E+03  3.95782E+03  7.19246E+03 -3.50554E+03  7.66799E+03 -5.18997E+03 -7.60725E+02
 -1.30215E+03 -4.19799E+03  1.72268E+03 -1.08860E+04  4.40361E+03 -3.21341E+03  2.55740E+03  8.52611E+02
 -1.88098E+03  3.27271E+03 -3.17255E+03  8.25076E+03 -5.34612E+03 -1.71651E+03 -9.78016E+03  1.41973E+03
  9.09213E+02 -9.54712E+03  1.89962E+03 -8.48447E+03  5.02587E+03 -5.10687E+03  1.06176E+04  2.99758E+03
  8.38145E+03  6.36365E+03 -2.04697E+03  6.45602E+03 -4.00108E+03  4.73355E+03 -1.19319E+04  6.69604E+02
 -2.73793E+03 -7.87017E+03 -3.95779E+02 -5.00202E+03  6.07608E+03 -6.06481E+03  5.47622E+03 -8.81905E+03
  2.50872E+03 -7.83717E+02  2.64847E+03  2.56612E+03 -9.23538E+00 -8.18616E+02  1.40401E+03 -1.15139E+03
  4.65595E+03 -2.02695E+03  8.89087E+03 -5.82286E+02  5.95551E+03  3.64496E+03  6.21503E+03  8.27983E+03
  1.30746E+03  9.72896E+03 -1.01283E+04  1.10439E+04 -1.01052E+04  4.41370E+03 -8.70883E+03 -6.51226E+03
 -2.61241E+03 -1.01081E+04 -6.55343E+02 -5.94766E+03  5.25354E+03 -4.15604E+03  1.54092E+03 -3.30285E+03
 -1.86810E+03 -1.76244E+03  2.34544E+03 -6.83774E+03  5.56703E+03  1.34430E+03  8.96950E+03 -3.32538E+03
  9.74239E+02 -2.81590E+02 -3.19055E+02  1.00302E+04  1.00009E+03  9.25683E+02 -6.37828E+03  3.37788E+03
 -6.76558E+03 -1.36653E+03  3.96293E+02 -5.14989E+03  4.52440E+02 -6.44559E+03  2.37023E+03 -6.17353E+03
  3.34598E+03 -7.47126E+02  6.91916E+03  2.35010E+03  8.10594E+03  3.10413E+03 -5.99869E+02  4.69756E+03
 -1.74485E+03  6.82229E+03 -4.39162E+02  1.24495E+03 -3.92788E+03  9.05832E+02 -3.38972E+02  8.55909E+01
  1.90119E+03 -9.02367E+02 -1.01420E+03  2.29422E+03 -3.42534E+03  3.49989E+03 -4.55462E+03  2.12460E+03
 -2.42836E+03 -9.37618E+03  3.56613E+03 -2.40616E+03  1.55759E+03 -6.54014E+03  4.86550E+03 -1.58495E+03
  5.16768E+03  6.00106E+03  1.50819E+03  3.09007E+02 -1.77706E+03  9.16713E+03 -2.86083E+03  1.50047E+03
 -2.03562E+03 -3.91479E+03 -6.70590E+03 -4.68771E+03 -2.74548E+03 -3.62681E+03  2.99609E+03  3.36465E+02
  5.52794E+03  1.04075E+03  4.68253E+03  2.23246E+03  1.38143E+03  5.07155E+03 -1.04680E+03 -3.42892E+03
 -1.07037E+03  4.02573E+03  5.63631E+03 -9.60150E+02 -1.23922E+03  5.27421E+03  2.49765E+02  5.77939E+02
 -1.60896E+03  3.36893E+03 -2.06007E+03  6.19504E+03 -3.42101E+03  3.95596E+03 -4.10259E+03 -6.25651E+02
 -2.69830E+03 -2.08959E+03  2.79932E+03 -7.84306E+03  4.16117E+03 -4.85980E+03  8.97023E+03 -3.17694E+03
  3.67950E+03  3.77780E+03 -1.89238E+03  8.75278E+02 -1.16749E+03  4.98992E+03 -9.70792E+02  5.50649E+02
 -9.36548E+02 -3.60966E+03  4.82736E+03 -1.78261E+03  3.25417E+03 -1.64920E+03  9.07487E+02  5.12430E+02
  2.06372E+03  2.83163E+02 -2.27821E+03  3.39462E+03 -4.65080E+02  2.92838E+03  5.40428E+03 -1.83212E+03
 -3.30490E+03 -4.81489E+03  8.07006E+02  7.72137E+02  7.06662E+02  2.40442E+03  6.76281E+02  7.25206E+03
 -2.52990E+03  3.97083E+03 -2.63179E+03  3.71530E+03 -3.91305E+03  1.25305E+03 -3.23861E+03 -3.96835E+03
  7.46062E+02 -1.95298E+03  4.81339E+03 -8.79205E+00 -3.96525E+02  4.00140E+03  2.56541E+02  4.21930E+03
 -5.76485E+03 -7.07784E+02  2.15286E+03  1.00121E+02 -1.74973E+03 -5.09304E+03 -2.13872E+02 -2.17255E+03
  2.05292E+03  1.16609E+03  1.62415E+03 -1.03493E+03  4.73488E+03 -4.94973E+02  5.88803E+01  9.65527E+02
  7.04554E+01 -8.64902E+02  1.63263E+03 -4.69004E+03 -5.27628E+03 -2.59219E+03  2.96432E+03 -1.83675E+03
  1.01249E+01 -2.18949E+03  6.87341E+03 -7.26056E+01 -1.49624E+03  6.40148E+02  1.35015E+03  3.86278E+03
  1.61716E+03  1.24912E+03 -4.61539E+03 -1.11129E+03 -7.41627E+03 -7.37480E+03 -4.12368E+03  7.33599E+02
  5.78330E+02  3.88666E+02  1.82373E+03 -3.77901E+02  2.83396E+03 -1.23806E+03 -3.42720E+03  2.76880E+03
 -3.07057E+03 -6.94895E+02 -3.83055E+03  2.04834E+03  2.41261E+03 -3.35624E+01 -1.25190E+03  1.40166E+03
  2.01319E+01 -1.31937E+03 -4.33926E+03 -4.97384E+03 -8.33959E+02  2.91893E+03 -7.04435E+02 -3.00606E+03
 -3.37081E+03 -3.43611E+03  1.72359E+03 -1.87796E+03  4.46783E+02 -5.24493E+03  6.85301E+03 -4.89283E+02
  1.81139E+03 -8.45562E+02  2.61627E+03  7.11860E+03  1.36328E+02  5.59679E+03 -3.96786E+03  4.99762E+02
 -5.16171E+02  2.56477E+02 -1.17168E+03  1.05613E+03  1.11584E+02  5.07209E+03 -7.31707E+03 -1.28892E+03
 -1.36483E+03 -6.20486E+02  8.22277E+02 -1.17962E+03 -5.36681E+02  2.31390E+03  2.33645E+03 -4.79671E+03
 -1.93947E+03 -1.53663E+02  3.30805E+03 -1.80015E+03  2.82436E+03  1.96119E+03 -8.96988E+02  4.63269E+03
 -4.19692E+03 -3.49046E+03 -7.60633E+03  9.00728E+02  1.18753E+03 -1.42874E+03 -2.28524E+02 -3.92920E+03
 -4.74176E+03 -7.11358E+02 -1.79534E+02 -2.34425E+03  2.11849E+02  4.43199E+02  2.72384E+02  1.94039E+03
  1.71258E+03  1.30369E+03  1.94386E+03 -1.76360E+03  6.04430E+02 -8.28706E+02 -7.04503E+01 -2.88318E+03
  1.23706E+03 -2.30243E+03  1.75913E+03 -2.96988E+03  4.42127E+01  3.74643E+03 -1.88013E+03  3.13302E+03
  1.22575E+03  3.01194E+03  2.19507E+03 -6.69087E+02  1.05165E+02 -2.55763E+03  2.32771E+03 -5.67764E+03
  5.36787E+03 -2.02465E+03 -4.04454E+03 -4.83640E+02 -7.18731E+02 -5.50725E+02 -7.18103E+02  2.01762E+03
 -6.84713E+02 -3.10854E+03 -2.50864E+02  4.99708E+03 -3.91061E+03 -3.93308E+03  2.89699E+03 -2.66467E+02
 -2.15533E+03 -2.53718E+03  1.88311E+03  2.85249E+03  3.78152E+02  5.41794E+03 -3.83421E+02  3.05847E+03
 -4.10415E+03 -5.82277E+01  1.88050E+03 -3.00886E+03  5.11987E+03  1.79262E+03  9.83617E+02 -3.67814E+03
 -2.42565E+03  9.62584E+02  1.68081E+03  1.57245E+03 -3.27358E+03 -4.26252E+02  4.80414E+02  1.78452E+02
