 $NMID ID='MM_0lb_SNR50_19hz_g55_82.RAW', FMTDAT='(8E13.5)'
 TRAMP=1., VOLUME=1. $END
  3.08132E+05 -8.12392E+02  3.42877E+05  2.51773E+05  8.43857E+04  3.35518E+05 -1.33073E+05  2.50134E+05
 -1.86088E+05  8.57127E+04 -1.08558E+05 -3.27655E+04  1.43852E+03 -4.86901E+04  5.24613E+04 -8.53216E+02
  3.73132E+04  5.28540E+04 -1.79889E+04  7.77375E+04 -6.01653E+04  6.36599E+04 -7.90504E+04  3.13860E+04
 -8.09341E+04 -1.31845E+04 -5.55154E+04 -5.29455E+04 -1.86744E+04 -7.33374E+04  2.56923E+04 -4.37125E+04
  4.07532E+04  4.73406E+03  1.48637E+04  4.26829E+04 -3.51029E+04  4.68967E+04 -6.82598E+04  1.55826E+03
 -5.20746E+04 -5.69259E+04 -2.90951E+03 -7.42746E+04  3.70603E+04 -5.60833E+04  4.50317E+04 -1.54947E+04
  4.32105E+04  1.29036E+04  3.20845E+04  2.28727E+04  2.00705E+04  2.66725E+04 -6.06496E+03  2.66814E+04
 -1.98586E+04  1.04739E+04 -2.19138E+04 -4.14071E+03  4.57238E+03 -6.44205E+03  1.49803E+04  9.77895E+03
  8.25039E+03  3.17946E+04 -3.03802E+04  3.44711E+04 -5.72576E+04  2.18565E+03 -5.11990E+04 -4.31162E+04
 -1.67296E+04 -6.17899E+04  3.33672E+04 -4.31767E+04  5.79670E+04 -4.57670E+03  3.19362E+04  3.35911E+04
 -3.81656E+03  3.12895E+04 -3.17414E+04  1.41482E+04 -2.79405E+04 -5.15869E+03 -1.30096E+04 -7.32175E+03
 -9.44524E+03 -1.28629E+04  5.57140E+02 -1.59871E+04  6.76844E+03 -2.48219E+04  1.85126E+04 -1.25104E+04
  1.58294E+04  2.29141E+03 -6.67376E+03  1.24196E+04 -1.84424E+04 -1.32301E+03 -8.12654E+03 -3.28739E+04
  1.93793E+04 -3.97620E+04  4.34274E+04 -1.90181E+04  4.45297E+04  2.22150E+04  1.55920E+04  4.46385E+04
 -1.48226E+04  3.20489E+04 -3.03112E+04  5.38482E+01 -1.08217E+04 -2.24507E+04  2.11814E+04 -3.23603E+04
  3.82441E+04 -7.10035E+03  3.81057E+04  2.32777E+04  1.76904E+04  4.21832E+04 -8.81453E+03  5.03510E+04
 -2.89933E+04  3.26945E+04 -3.23984E+04  7.46725E+03 -3.64769E+04 -1.43166E+04 -1.75044E+04 -3.11479E+04
  6.42081E+03 -3.65825E+04  3.40750E+04 -1.57681E+04  2.41473E+04  7.67916E+03 -6.39116E+02  1.52657E+04
 -1.52057E+04  6.73945E+03 -8.97897E+03 -7.68525E+03  9.26831E+03 -1.34033E+04  1.53826E+04  2.16221E+03
  1.56666E+04  2.01727E+04 -1.03011E+04  2.48001E+04 -2.06802E+04  1.15657E+04 -3.13443E+04 -3.26288E+03
 -1.69675E+04 -1.37468E+04 -4.73301E+03 -1.93968E+04  2.80597E+03 -1.32926E+04  1.33720E+04 -1.75682E+04
  1.75694E+04 -1.17178E+04  2.90275E+04 -1.40835E+03  2.24882E+04  1.81059E+04  2.20410E+03  3.64801E+04
 -1.42428E+04  2.75119E+04 -2.39422E+04  9.96864E+03 -1.83583E+04 -7.35517E+03 -2.86948E+03 -9.57180E+03
  2.62656E+03 -6.66244E+03 -2.55020E+03  7.29117E+03 -1.21083E+04  5.73054E+03 -1.38258E+04 -5.72737E+03
 -6.55840E+03 -1.47893E+04  5.12081E+03 -1.88793E+04  1.29720E+04 -1.45300E+04  1.53584E+04  4.10712E+03
  9.17146E+03  1.43717E+04  4.20732E+03  1.41958E+04 -8.94494E+03  6.65831E+03 -1.70662E+04 -7.18666E+03
 -9.53465E+03 -1.70490E+04 -3.17149E+03 -1.76503E+04  9.18625E+03 -1.39642E+04  1.72136E+04 -6.19542E+03
  1.26188E+04  1.67564E+03  6.98704E+03  6.52397E+03  5.05274E+03 -9.74397E+02  1.07697E+04 -1.65282E+03
  1.40912E+04  6.63072E+03  1.53458E+04  1.22075E+04  4.16733E+03  2.39494E+04 -1.41506E+03  2.76025E+04
 -1.55290E+04  1.97195E+04 -2.86831E+04  6.14591E+03 -2.66931E+04 -3.58270E+03 -2.46226E+04 -1.90997E+04
 -1.08864E+04 -2.25481E+04  6.16036E+03 -1.80216E+04  1.54796E+04 -1.32639E+04  1.50557E+04  6.49449E+03
  7.05288E+03  9.11679E+03 -8.49376E+03  1.19767E+04 -1.00736E+04  4.21009E+03 -9.85344E+03 -6.34746E+03
 -1.67571E+03 -4.35331E+03  4.04535E+03 -1.01484E+04  5.73005E+03 -6.78375E+02  3.69128E+02  4.12468E+03
 -4.54787E+03  3.46712E+03 -2.46032E+03 -9.21593E+01 -7.48845E+02 -8.89155E+03  1.02460E+04 -1.37708E+04
  8.71028E+03 -3.49260E+03  1.11069E+04 -1.52581E+03  7.60062E+03  8.83614E+03  3.97379E+03  1.83249E+04
  4.32710E+03  1.50559E+04 -1.09431E+04  8.76261E+03 -1.27282E+04  7.08268E+02 -3.41516E+03 -4.91278E+03
 -6.60865E+03 -2.42645E+03 -3.29198E+03 -8.65477E+02 -6.46007E+02  8.74356E+02 -3.16865E+03  3.06643E+03
 -9.49754E+03  1.93797E+03 -1.39915E+04 -6.32800E+03 -2.43778E+02 -6.10871E+03  6.77886E+03 -7.44643E+03
  5.93091E+03 -2.69365E+03  4.78506E+03  2.96295E+03 -2.18172E+03 -3.95041E+03 -2.61058E+03  5.81443E+02
 -1.52860E+03 -5.97499E+03 -1.18866E+03 -4.38753E+03  9.77468E+02 -6.57629E+03  9.94900E+03  1.84434E+02
  1.15510E+04  1.32203E+03  1.23985E+04  4.21810E+03 -3.76483E+02  6.12170E+03 -2.65201E+03  9.89082E+03
 -6.98024E+03  3.02793E+03 -3.92624E+03 -7.31690E+02  3.33226E+03  3.24806E+01  8.33413E+03 -1.03121E+03
  3.35816E+03  2.77676E+03  1.60591E+03  4.80232E+03 -5.58263E+03  4.71699E+03 -9.33810E+03  3.73281E+02
 -1.62575E+03 -5.13517E+03  2.63703E+03 -6.49736E+03  3.85533E+03 -7.08827E+03  5.80390E+03  6.11876E+02
  2.26806E+03  3.04861E+03 -3.32368E+03  8.68690E+03 -3.94806E+03  2.26710E+03 -1.73536E+03 -1.99363E+03
 -4.63215E+03 -6.67236E+03 -8.15820E+02 -1.02515E+04  5.49611E+03 -9.74041E+02  6.45929E+03  1.57745E+03
  3.03935E+03  6.15014E+03 -1.04812E+03  8.88326E+03 -4.87764E+03  2.35496E+03 -5.22520E+03 -3.83403E+02
 -7.56325E+03 -4.17523E+03 -1.05529E+03 -3.77989E+03  2.22759E+03 -8.83814E+03  9.90035E+02  2.02900E+02
  3.75094E+03  4.53288E+03 -1.07857E+03 -1.53366E+03 -1.34251E+03 -2.14286E+02  2.26100E+03  3.40019E+03
 -1.10580E+02 -3.28249E+03  2.74065E+03  2.03067E+03  7.47623E+03 -1.31075E+03  5.77886E+03  7.71405E+03
 -4.49598E+03  6.92721E+03 -3.42689E+03  9.78227E+03 -5.69096E+03  5.82169E+02 -6.47773E+03  6.98240E+02
 -2.31688E+03 -6.63918E+03 -8.40625E+02 -2.79899E+03  2.94504E+03 -3.36390E+03 -9.98551E+02 -1.85436E+03
 -2.09672E+02 -1.95244E+02  3.50879E+03 -5.07341E+03  1.17110E+03 -2.25548E+03  4.00421E+03 -3.29081E+03
  4.13103E+03  7.46664E+01  2.36388E+03  2.44582E+03 -1.73721E+03  4.13397E+03 -5.15298E+03  3.29810E+03
 -8.10956E+03  8.70994E+02 -1.10524E+03 -4.46594E+03  1.56931E+03 -4.79093E+03  2.01641E+03 -7.40904E+03
  3.92892E+03 -2.60925E+03  7.19558E+03 -2.64626E+03  4.18967E+03  4.48491E+03  7.24079E+02  7.16056E+03
 -3.52863E+03 -7.16032E+02 -3.29014E+03  6.16036E+02 -8.59626E+02 -3.78301E+03 -4.23628E+03 -9.43281E+02
  4.35430E+02  1.27891E+03  1.26404E+02  1.92034E+03 -4.98765E+03 -9.40742E+02 -3.98392E+03  5.20230E+02
  3.88988E+03 -1.64723E+03 -2.66777E+02 -4.30653E+03  1.77222E+03 -4.16663E+03  5.09975E+03 -1.78548E+03
  6.06612E+03 -6.54763E+02  2.13108E+03  3.21444E+03 -3.93946E+02  6.95666E+03 -3.81157E+03  7.67429E+02
 -4.98334E+03 -2.00413E+03 -2.22289E+03 -2.59557E+03  4.93808E+03 -5.89885E+03  2.68324E+02 -6.04277E+03
  1.26993E+03 -3.84595E+02  5.01409E+02  2.06569E+03  2.22983E+03  1.90509E+03  2.86877E+03 -7.33393E+02
 -5.46427E+02  8.94059E+02  2.42477E+03  4.23100E+03  3.18932E+03  2.70722E+03  1.66635E+03  1.88602E+03
 -1.88586E+03  3.28579E+03 -4.30096E+03  3.37708E+01 -4.12292E+03  6.35626E+03 -4.43741E+03 -3.30773E+03
  5.81487E+02 -2.01125E+03  5.76975E+02 -3.38179E+03 -5.62700E+02 -4.49743E+03 -1.43268E+02 -2.62592E+03
  5.31305E+03 -1.50190E+02 -1.31745E+02 -6.02924E+02  9.86575E+02 -1.01847E+03  8.80811E+02  1.35417E+03
 -1.27456E+03 -3.66046E+02  2.63860E+02 -2.22568E+03 -2.89087E+03  1.60233E+03  2.13961E+03 -2.26699E+02
 -1.23559E+03 -3.85595E+03 -2.52662E+02 -1.79631E+03  1.21907E+03  8.76063E+02 -5.68355E+02  2.07761E+03
  3.36378E+03  3.33199E+03  4.92813E+03 -4.96956E+03 -1.72291E+02  4.04450E+03  2.26971E+02  5.35117E+03
 -2.03207E+03 -2.14272E+02 -3.83347E+03  7.45495E+03 -1.29320E+02  1.49098E+03 -1.67560E+03  2.34956E+03
 -1.52303E+03 -2.29510E+03  1.76180E+03 -1.47893E+03  1.43925E+03 -2.05848E+01 -2.66563E+03 -2.77216E+03
 -2.40595E+03  3.24416E+03 -2.78386E+03 -1.76150E+02 -2.00802E+03 -1.53542E+03 -5.73774E+03 -1.22964E+03
  1.31265E+02 -1.08583E+03  2.55952E+03  1.67796E+03  9.26675E+02  1.21339E+03  2.02847E+02  2.66528E+03
  5.35224E+02 -8.95787E+02  1.03366E+03  1.94092E+01  3.60437E+03  5.95756E+02  6.81718E+03 -4.16085E+03
  1.09751E+03  1.11082E+03 -1.80958E+03  1.22681E+03  5.80054E+03  2.50856E+02  2.51342E+02  4.18737E+03
 -1.24028E+03 -1.40252E+03 -3.56174E+03 -1.72576E+02 -2.42022E+03  1.26239E+03  3.13132E+03 -3.40930E+03
  1.63102E+03 -1.34056E+03  2.03461E+03 -2.33256E+03  2.76828E+03 -3.93088E+02  2.11405E+03 -1.13567E+03
 -6.11215E+02  1.87504E+03  1.04770E+03 -1.19267E+03  2.31255E+03 -9.37352E+02 -2.32461E+03 -4.56763E+02
  9.42887E+02  1.14386E+03 -1.81673E+03  4.36578E+03 -1.49594E+03 -3.12250E+03 -1.61419E+03  1.68263E+03
 -6.54409E+02 -1.75655E+03  3.73869E+03 -5.20254E+03  2.42330E+03 -6.09560E+03  2.89171E+03  2.09534E+02
  4.43942E+03 -2.71642E+03  3.04218E+03  4.09067E+03  2.24901E+03 -1.55133E+03  2.74795E+03  1.00945E+03
 -1.03452E+02  7.11512E+02  1.82879E+03 -5.58345E+03 -4.66575E+02 -1.44019E+03 -4.05443E+03 -5.83667E+02
 -9.25338E+02  2.50568E+03 -8.30030E+02 -1.79584E+03  2.43769E+03  9.92192E+02 -4.99801E+02  3.04255E+03
  1.14929E+03 -2.77562E+02  9.44722E+02  6.04096E+02  7.92470E+02  7.08907E+02 -1.74937E+03  1.89157E+03
  4.92717E+03  1.49139E+03 -3.20705E+03  3.85577E+03 -2.68228E+02  1.05839E+02 -1.91546E+03 -2.78613E+03
 -2.10676E+02  5.21084E+03 -2.98161E+03 -3.41196E+03  2.50505E+03 -5.81369E+02  2.26657E+03  2.47956E+03
  1.20730E+03  2.06125E+03  1.03316E+03  1.84090E+02  3.40440E+03 -5.94369E+03 -4.24143E+02 -1.10665E+03
  5.85702E+01  4.22840E+01  3.38238E+03  3.50027E+03 -7.14508E+02 -2.91136E+03 -2.93782E+03 -6.71173E+02
 -1.79301E+02  3.41130E+02 -2.10587E+03  3.07472E+02 -1.00509E+03  3.07820E+03 -7.49804E+02 -7.75495E+02
  2.66581E+03 -4.82563E+02  7.48583E+02  2.89549E+03  1.54348E+03 -1.99227E+03  2.30228E+03 -3.52734E+02
  3.67899E+03  3.62115E+03 -2.38435E+03  4.45910E+03 -8.84762E+02 -2.40654E+03  3.64825E+03  2.70623E+03
  2.13470E+03 -1.68608E+03 -1.74345E+03  3.48720E+03 -2.24648E+03  2.46262E+03 -2.16270E+03  2.93805E+03
 -5.21127E+03 -3.13858E+03  6.61053E+02 -1.35971E+03  3.80975E+03  1.94395E+03  3.28318E+03  3.47554E+03
  5.11518E+02 -2.77096E+03 -9.73809E+02  1.12109E+03 -2.62445E+02 -1.21614E+03  1.41798E+03  3.41129E+03
