 $NMID ID='MM_0lb_SNR50_12hz_g55_19.RAW', FMTDAT='(8E13.5)'
 TRAMP=1., VOLUME=1. $END
  3.03505E+05  4.85759E+03  3.34113E+05  2.49687E+05  7.57071E+04  3.44211E+05 -1.28788E+05  2.49673E+05
 -1.89822E+05  8.12408E+04 -1.10013E+05 -3.44397E+04  1.82445E+02 -5.16623E+04  5.27665E+04  1.41560E+03
  3.31360E+04  5.23867E+04 -1.87023E+04  7.30624E+04 -6.43211E+04  6.14594E+04 -8.48209E+04  3.14487E+04
 -7.64095E+04 -5.50404E+03 -5.57378E+04 -5.33443E+04 -1.93616E+04 -6.98310E+04  2.92565E+04 -4.54729E+04
  4.35582E+04  3.71913E+03  1.30984E+04  4.93780E+04 -3.07385E+04  4.63660E+04 -6.35430E+04 -9.00355E+02
 -5.34445E+04 -5.55928E+04 -9.24076E+03 -7.66163E+04  3.30286E+04 -5.87259E+04  4.95448E+04 -1.45384E+04
  4.48875E+04  1.02477E+04  3.53333E+04  2.39789E+04  1.74989E+04  2.30819E+04 -7.85092E+03  2.69361E+04
 -2.01585E+04  1.40087E+04 -1.21780E+04 -2.74025E+03  1.08353E+04 -7.23105E+03  2.18682E+04  1.16605E+04
  1.00062E+04  3.21705E+04 -3.31030E+04  3.68041E+04 -6.18792E+04  2.99980E+03 -5.83690E+04 -4.41359E+04
 -1.33843E+04 -6.37769E+04  4.48308E+04 -4.41383E+04  5.38467E+04  3.09902E+02  3.63243E+04  2.97630E+04
 -2.08491E+03  3.65085E+04 -3.01949E+04  1.97017E+04 -3.63068E+04 -2.32947E+03 -1.63447E+04 -1.05478E+04
 -8.60068E+03 -9.56562E+03 -8.17992E+02 -1.90672E+04  6.45420E+03 -2.33393E+04  1.52207E+04 -1.39778E+04
  9.16852E+03 -1.33801E+02 -8.47662E+03  1.29259E+04 -2.16911E+04 -6.93605E+03 -2.69287E+03 -3.80159E+04
  2.37168E+04 -5.06583E+04  4.64254E+04 -2.23052E+04  4.65468E+04  2.07364E+04  1.98702E+04  5.13210E+04
 -1.76709E+04  3.23037E+04 -2.11139E+04 -1.27501E+03 -9.01748E+03 -2.92194E+04  2.16575E+04 -3.88060E+04
  4.52640E+04 -8.10334E+03  4.20598E+04  2.50347E+04  2.11175E+04  4.52431E+04 -6.90808E+03  5.51442E+04
 -3.91918E+04  3.77642E+04 -4.83683E+04  1.36528E+04 -4.73592E+04 -2.07712E+04 -2.87501E+04 -4.49173E+04
  1.09416E+04 -3.79550E+04  3.94811E+04 -1.78835E+04  3.13889E+04  1.00456E+04  6.04987E+03  1.90358E+04
 -1.28694E+04  7.21098E+03 -1.52242E+04 -2.18194E+03  5.34664E+03 -9.24562E+03  1.29947E+04  3.07227E+03
  1.80340E+04  2.19506E+04 -7.23782E+03  3.05513E+04 -2.32837E+04  1.68679E+04 -3.33470E+04 -3.13326E+03
 -3.17181E+04 -1.82212E+04 -1.30918E+04 -1.93420E+04  5.36256E+03 -1.92017E+04  1.45511E+04 -1.94547E+04
  3.15246E+04 -1.42949E+04  3.54016E+04  4.40567E+03  2.42184E+04  1.96028E+04  6.19308E+03  3.64334E+04
 -2.18761E+04  3.00330E+04 -2.81288E+04  9.32978E+03 -2.03961E+04 -8.26437E+03 -9.77800E+02 -8.62806E+03
  9.67559E+02 -2.80538E+03 -8.26902E+03  9.44041E+03 -1.89259E+04  3.91571E+03 -1.73581E+04 -9.47982E+03
 -1.34742E+04 -2.50425E+04  2.25477E+03 -2.90317E+04  2.03152E+04 -1.32508E+04  1.63158E+04 -2.94717E+03
  1.58109E+04  1.44647E+04 -1.58262E+03  2.04971E+04 -1.50285E+04  1.38850E+04 -2.37546E+04 -9.97290E+03
 -1.39196E+04 -2.15964E+04 -4.52790E+03 -2.55967E+04  1.04362E+04 -2.08381E+04  1.70223E+04 -5.35047E+03
  1.92633E+04 -1.88997E+02  1.60700E+04  1.67893E+03  1.28120E+04  3.44718E+03  9.05423E+03 -4.57683E+03
  2.15219E+04 -5.38501E+02  2.08967E+04  1.56201E+04  1.81761E+04  3.74650E+04 -8.07657E+03  3.53454E+04
 -2.32088E+04  3.21906E+04 -3.37889E+04  1.23316E+04 -3.28629E+04 -5.31302E+03 -2.95992E+04 -2.12905E+04
 -1.44490E+04 -3.50319E+04  6.82533E+03 -2.63553E+04  2.64815E+04 -1.05674E+04  2.05721E+04  4.16447E+03
  6.27264E+03  1.51769E+04 -1.21453E+04  7.68317E+03 -1.82117E+04  4.15643E+03 -1.66456E+04 -1.43996E+04
  3.59180E+02 -1.36510E+04  9.64066E+03 -1.29193E+04  1.04241E+04  5.02338E+03  2.35882E+03  7.56821E+03
 -1.00030E+04  7.01055E+03 -6.37590E+03 -7.69618E+02  1.08749E+03 -1.54028E+04  5.50723E+03 -1.24743E+04
  2.23247E+04 -1.18632E+04  2.46966E+04  6.32698E+02  2.13636E+04  9.72413E+03  5.98058E+03  2.18992E+04
 -1.19915E+03  2.32901E+04 -1.97761E+04  1.42790E+04 -1.55972E+04  3.11654E+03 -1.07179E+04 -6.39376E+03
 -3.54456E+03 -9.67933E+03 -9.30768E+02 -4.73843E+02 -4.07554E+03  3.84233E+03 -8.85903E+03 -2.43038E+03
 -1.73981E+04  2.82788E+03 -1.11275E+04 -1.18119E+04 -7.79517E+03 -1.49355E+04 -2.34972E+03 -1.43400E+04
  1.16354E+04 -1.12718E+04  1.22082E+04  6.93836E+03  2.16226E+03  6.01860E+03 -2.74733E+03  6.95309E+02
 -1.11225E+04 -1.14767E+04 -6.03685E+03 -1.33552E+04  5.21561E+03 -1.43873E+04  1.82897E+04 -1.13765E+04
  2.22577E+04 -2.30657E+03  1.23229E+04  1.32019E+04  4.96392E+03  1.49296E+04 -1.14955E+04  1.48049E+04
 -9.91291E+03  9.96073E+03 -6.30144E+03 -2.58644E+03  1.32797E+03 -6.90654E+03  9.74576E+03 -6.61713E+03
  9.51827E+03  7.54814E+03  7.69189E+03  7.75241E+03 -1.05803E+04  1.62223E+04 -1.20478E+04  1.74130E+03
 -1.02796E+04 -9.86770E+03  1.99934E+03 -4.59176E+03  4.27974E+03 -7.44826E+03  6.68406E+03  5.23578E+03
  8.59035E+02  7.68122E+03 -1.26798E+04  9.79432E+03 -1.13487E+04 -9.14526E+01 -1.12345E+04 -2.65072E+03
 -6.21003E+03 -1.04368E+04  1.75135E+03 -1.62966E+04  1.25042E+04 -8.01754E+03  1.23231E+04  3.82577E+02
  3.81635E+03  2.87204E+03  3.37119E+03  1.28878E+04 -1.02242E+04  6.30730E+03 -1.27809E+04 -2.63908E+03
 -8.60663E+03 -1.18687E+04 -5.72869E+03 -1.43830E+04  9.70940E+03 -8.29392E+03  7.53662E+03 -5.20306E+03
  5.97290E+03 -1.61931E+02  1.27853E+03  2.21861E+03 -1.25372E+03 -2.16091E+03  2.21901E+03 -1.95694E+03
  8.07839E+03  5.77648E+02  1.04298E+04  4.81064E+03  8.72302E+03  5.84907E+03  9.48459E+03  1.21062E+04
 -9.15095E+03  1.71270E+04 -1.74249E+04  1.29602E+04 -2.22677E+04  4.11053E+03 -1.77262E+04 -1.25173E+03
 -1.29248E+04 -1.28837E+04  2.29633E+03 -1.27570E+04 -1.17799E+03 -1.06703E+04  4.57500E+03 -1.51140E+03
  4.17182E+03 -4.56252E+03 -5.01747E+02 -6.81311E+03  3.72246E+03 -2.64358E+03  6.02857E+03  2.56179E+01
  3.88521E+03  7.45276E+03  2.59987E+03  1.19248E+04 -3.72225E+03  5.59449E+03 -6.16172E+03  3.50779E+03
 -7.55478E+03  2.84901E+03 -7.27227E+03 -3.44076E+03 -2.83662E+03 -1.84811E+04  7.70412E+03 -7.67189E+03
  1.55059E+04 -3.74398E+03  2.00438E+04  2.67531E+03  7.14383E+03  1.47716E+04  4.45901E+03  1.16879E+04
 -1.24391E+03  7.53922E+03 -3.87356E+03  7.82927E+03 -2.53842E+03 -1.62870E+03  2.67729E+02 -2.56551E+03
 -4.49776E+03 -2.25258E+03  2.22756E+03  2.18228E+03 -2.51048E+03  2.79122E+03 -7.66423E+03 -4.45260E+02
 -5.05803E+03 -9.27924E+03  2.93027E+03 -1.12333E+04  6.41177E+03 -1.04670E+04  1.04705E+04 -2.53207E+03
  1.09073E+04 -4.04273E+02  8.69652E+03  1.16407E+04 -1.73720E+03  9.78125E+03 -1.20133E+04  9.59752E+03
 -7.83590E+03  2.72431E+03 -7.74910E+03 -3.13290E+03 -2.78241E+02 -7.63130E+03  9.37128E+03 -4.69303E+03
  5.10679E+03 -4.15149E+03  7.47933E+03  4.25634E+03 -4.84419E+02 -3.08179E+03  1.94685E+03  3.29213E+03
  4.38606E+03  4.92869E+03 -3.08405E+03  2.98995E+03  4.62036E+03  6.02515E+03  1.46925E+03  6.29884E+03
 -2.04921E+03  4.33832E+03 -8.32061E+03  7.71618E+03 -7.97660E+03  5.15374E+03 -1.14808E+04 -6.08917E+03
 -5.65312E+03 -9.36970E+03 -4.68227E+03 -1.19940E+04  2.24916E+03 -1.32671E+03  1.58876E+04 -3.21405E+03
  9.52739E+03  3.98179E+03  1.49902E+03  9.95684E+03 -3.89961E+03  8.06735E+03  1.11364E+03  1.96793E+02
 -1.86116E+03 -4.11552E+03  4.43990E+03 -1.08034E+04 -8.51042E+02 -1.62063E+03  9.36370E+02  2.08366E+03
 -4.49145E+03 -6.21859E+02 -1.29542E+03  2.31852E+03  2.97795E+03 -3.17645E+03 -2.32761E+03 -3.66334E+03
 -1.20034E+03 -8.15568E+03  8.53027E+02  1.94199E+03  1.68970E+03  6.33589E+03 -1.40515E+03  3.97806E+03
 -6.11891E+03  7.07305E+03 -5.01923E+03 -6.94061E+02 -1.71678E+03 -2.02633E+03 -2.24158E+03  3.11639E+02
 -8.38901E+02 -4.61459E+03  8.32551E+02 -2.55848E+03 -4.52757E+02  3.23944E+03 -5.21596E+03  4.98680E+02
 -1.65789E+03  2.58856E+03 -1.79577E+03 -3.01929E+03 -1.23652E+03 -7.74136E+03  6.52213E+02 -2.22130E+00
  4.02053E+03 -4.42485E+03  2.56567E+03  1.39355E+03  6.79135E+03  8.73485E+02  3.12275E+03 -1.94112E+03
 -3.56228E+03  4.26159E+03 -4.91425E+03 -4.52719E+03  6.26533E+03 -5.40661E+03  3.24576E+03 -6.40024E+03
  1.04348E+04  3.21461E+03  4.21433E+03  5.55882E+03  1.79286E+03  7.22490E+03 -1.90762E+03  6.37871E+03
 -9.27483E+03  1.00743E+04 -5.86753E+03 -3.53959E+03 -3.69012E+03 -2.86161E+03  6.19923E+03 -1.04866E+03
  2.36347E+03 -3.89236E+03  6.08771E+03  3.85866E+03  4.25231E+02  3.69004E+03  1.81526E+03  5.42121E+03
  5.06263E+02  3.35307E+03  1.43570E+03  7.44613E+01 -2.72415E+03 -1.19387E+03 -5.80618E+03  2.86089E+03
 -8.51012E+02  3.96608E+03  4.22709E+03 -4.15113E+02 -4.55314E+03 -4.73398E+02 -3.29534E+03 -5.18840E+03
 -2.41973E+03 -7.06524E+03  9.66462E+03 -8.92408E+03  4.61221E+03 -9.69613E+03  5.85273E+03 -1.81158E+03
  8.15640E+03 -5.41804E+03  6.30847E+03  1.97651E+03 -3.23270E+03  1.11263E+04 -3.75690E+03  5.32085E+03
 -5.65330E+03  5.09403E+03  5.16660E+02 -3.60663E+03 -2.28916E+03  7.14008E+02  1.36265E+03 -8.31927E+02
  1.69571E+03 -2.59219E+03 -4.18415E+03  3.65436E+03 -2.38864E+03 -1.03750E+03  3.18299E+03 -7.78375E+03
  1.55868E+02 -6.97969E+03  5.04500E+03  4.84518E+03  7.18390E+03  2.93570E+03  1.41015E+03  9.26539E+03
 -7.03434E+03  8.92881E+03 -6.61243E+03  3.61237E+03 -8.73627E+03 -4.31634E+03 -2.74762E+03 -3.85629E+03
 -2.80177E+03 -8.55521E+03  5.40652E+03 -2.78990E+03  4.20566E+03 -2.71226E+03  4.20917E+03  3.84239E+03
 -6.96368E+02 -3.40886E+02  6.24461E+01  2.46827E+03  5.82326E+02 -4.80433E+03  8.47009E+02 -2.18677E+03
  4.54951E+03 -5.56155E+03  6.73770E+03  2.35832E+03 -5.42391E+02  5.12291E+03 -1.20540E+03  3.09747E+03
 -4.17358E+03  5.10270E+03 -7.72675E+03 -1.50456E+03 -6.88029E+03 -6.80883E+03 -1.52811E+02 -6.68180E+03
  3.96374E+03 -9.92944E+02  3.49276E+03 -2.75562E+03  2.52824E+03  7.36250E+02  7.27818E+02  6.09004E+03
  1.18465E+03  5.50321E+03 -2.65942E+03  2.52729E+03 -1.97165E+03  2.06344E+03 -2.47873E+02  2.59833E+03
 -7.08916E+03  1.84581E+03  2.08708E+03 -4.99339E+02  1.71861E+03  3.87917E+03 -5.00240E+03 -1.55248E+03
 -3.52729E+03 -3.25090E+02 -1.00765E+03 -7.06803E+03  4.57220E+03 -7.92910E+03  2.42972E+03 -6.78686E+03
  8.18984E+03 -7.57290E+02  1.31925E+03  3.23739E+03 -2.08817E+01  5.85795E+03 -5.07336E+03  2.21833E+03
