 $NMID ID='MM_0lb_SNR50_16hz_g50_43.RAW', FMTDAT='(8E13.5)'
 TRAMP=1., VOLUME=1. $END
  3.10490E+05  2.51046E+03  3.35712E+05  2.51364E+05  8.34912E+04  3.33334E+05 -1.31462E+05  2.48493E+05
 -1.91776E+05  7.84889E+04 -1.08622E+05 -3.43518E+04  6.31807E+02 -4.86196E+04  5.45387E+04 -3.56959E+03
  3.99707E+04  5.16788E+04 -1.78666E+04  7.66455E+04 -6.04159E+04  5.78761E+04 -8.57530E+04  3.00179E+04
 -8.17663E+04 -1.27181E+04 -5.53595E+04 -5.08912E+04 -1.47427E+04 -7.12661E+04  3.25771E+04 -4.77777E+04
  4.22214E+04  6.48130E+03  1.77839E+04  4.47476E+04 -3.15597E+04  4.82140E+04 -6.91532E+04  2.42076E+03
 -5.72828E+04 -5.17024E+04 -8.37323E+03 -7.80577E+04  3.15305E+04 -5.45622E+04  4.84936E+04 -2.06336E+04
  4.39795E+04  1.16121E+04  2.85591E+04  2.62550E+04  2.03554E+04  3.12156E+04 -6.74097E+03  2.33046E+04
 -2.23996E+04  1.59692E+04 -2.09743E+04 -3.18138E+03  7.15087E+03 -4.72917E+03  2.07411E+04  1.05173E+04
  1.06225E+04  3.19522E+04 -3.47074E+04  3.34931E+04 -6.08199E+04 -5.61119E+02 -5.55745E+04 -4.57706E+04
 -9.79625E+03 -6.41606E+04  3.70829E+04 -4.32033E+04  5.55640E+04 -3.66087E+03  3.46989E+04  3.45746E+04
 -1.46885E+03  2.99471E+04 -3.22461E+04  1.70169E+04 -2.87392E+04  9.40990E+02 -1.50288E+04 -8.98054E+03
 -6.16735E+03 -1.57548E+04  4.98915E+02 -1.48163E+04  8.48310E+03 -1.96446E+04  1.37368E+04 -1.41450E+04
  1.42411E+04  7.93884E+03 -1.02483E+04  1.10454E+04 -2.08979E+04 -8.94388E+02 -8.33019E+03 -3.20902E+04
  1.93908E+04 -4.27442E+04  4.35639E+04 -2.23618E+04  4.10211E+04  1.96632E+04  1.76328E+04  4.07135E+04
 -1.11249E+04  3.05228E+04 -2.31752E+04  1.76781E+03 -9.15880E+03 -2.78795E+04  2.53194E+04 -2.75259E+04
  3.90920E+04 -5.13518E+03  2.73493E+04  2.23816E+04  1.92598E+04  4.66753E+04 -1.13326E+04  4.63640E+04
 -2.93519E+04  3.30180E+04 -4.20156E+04  5.97561E+03 -3.90245E+04 -1.65214E+04 -2.27852E+04 -4.02012E+04
  8.74030E+03 -3.85849E+04  2.88325E+04 -1.25776E+04  2.84141E+04  7.16599E+03  4.07954E+03  1.85006E+04
 -1.55632E+04  7.57655E+03 -9.43535E+03 -8.06687E+03  4.15983E+03 -5.81187E+03  1.84264E+04  7.22937E+03
  1.13959E+04  2.22106E+04 -7.32568E+03  2.45029E+04 -2.02941E+04  1.26672E+04 -2.51469E+04 -1.69846E+03
 -1.58616E+04 -2.08838E+04 -9.41869E+03 -1.62033E+04  6.40301E+03 -1.52827E+04  1.37484E+04 -1.46153E+04
  2.18016E+04 -1.23259E+04  2.84854E+04  3.99134E+03  2.71376E+04  2.18997E+04  2.36830E+03  3.30113E+04
 -1.15943E+04  3.35595E+04 -2.49380E+04  1.25170E+04 -2.04012E+04 -1.24107E+04 -6.78054E+02 -1.32039E+04
  1.96930E+03 -3.63846E+03 -1.05258E+03  7.04459E+03 -1.29027E+04  5.20578E+03 -9.38052E+03 -7.06963E+03
 -9.79560E+03 -1.82942E+04  2.58370E+02 -2.18361E+04  1.62429E+04 -1.91112E+04  1.79775E+04 -1.07133E+03
  9.91038E+03  1.23492E+04 -4.18245E+03  2.05585E+04 -8.86765E+03  9.90703E+03 -1.52871E+04 -3.05113E+03
 -9.47742E+03 -1.63498E+04 -6.18171E+02 -2.17566E+04  1.02084E+04 -1.59845E+04  2.34112E+04 -1.31616E+04
  1.55266E+04  3.74073E+03  1.24850E+04  2.91096E+03  1.01818E+04  1.00073E+03  6.15209E+03 -2.34153E+03
  1.72166E+04  8.03512E+02  1.65594E+04  1.34777E+04  1.28821E+04  2.92539E+04 -3.11751E+03  3.13072E+04
 -1.98680E+04  2.73380E+04 -2.73349E+04  1.81305E+04 -3.49762E+04 -5.09010E+03 -2.10884E+04 -1.51592E+04
 -6.78078E+03 -2.56517E+04  5.16396E+03 -2.26605E+04  1.80499E+04 -1.12491E+04  2.05923E+04  4.23654E+03
  9.92136E+03  1.38917E+04 -5.22794E+03  9.48120E+03 -1.23833E+04 -2.71412E+03 -1.31943E+04 -8.85529E+03
 -3.68232E+03 -1.57227E+04  5.11704E+03 -8.22556E+03  9.08401E+03 -1.33913E+03 -2.30407E+03  4.76219E+03
 -5.58359E+03  1.98988E+03 -6.11189E+03 -7.22373E+03 -3.82790E+03 -5.79256E+03  7.57950E+03 -1.54459E+04
  1.54092E+04 -3.11608E+03  1.46377E+04 -3.99841E+02  1.29417E+04  1.06750E+04  5.95736E+03  1.73003E+04
  2.41358E+02  2.24284E+04 -1.38162E+04  1.16768E+04 -1.24257E+04  4.19278E+03 -1.25515E+04 -7.24983E+03
 -3.77261E+03 -3.86818E+03 -2.28452E+03 -7.91198E+02 -3.17802E+03 -3.07193E+03 -4.19841E+03  6.72158E+03
 -7.29118E+03 -1.91491E+03 -1.22085E+04 -5.60050E+03 -2.24535E+03 -1.16770E+04  5.88951E+03 -8.14773E+03
  7.13362E+03 -4.07040E+03  6.13404E+03  3.11692E+03  1.13346E+02  1.68452E+03 -7.56718E+03  6.61915E+01
 -4.53157E+03 -7.42840E+03  2.15119E+03 -1.14811E+04  4.08119E+03 -8.44046E+03  1.33257E+04 -8.80896E+03
  1.51989E+04  3.69546E+03  9.58994E+03  8.25899E+03  2.91285E+03  1.18551E+04 -5.34746E+03  9.96687E+03
 -6.56724E+03  7.15908E+03 -3.14345E+03 -1.58645E+03  1.36614E+03 -2.71139E+03  4.55101E+03  1.28926E+03
  2.22389E+03  2.32169E+03  6.97178E+03  1.10880E+04 -9.50841E+03  7.39640E+03 -8.39044E+03  4.31393E+03
 -3.02268E+03 -4.10073E+03  2.40270E+03 -9.29822E+03  4.05218E+03 -6.82202E+03  7.75783E+03  3.99864E+03
 -4.28789E+01  4.20671E+03 -5.99106E+03  3.26887E+03 -4.61422E+03  1.70893E+03 -6.48454E+03  3.49906E+03
  6.64808E+02 -8.56294E+03  2.39428E+03 -8.34489E+03  4.31809E+03 -2.32301E+03  6.08503E+03  5.47099E+03
  9.67257E+03  1.24484E+04  4.46063E+03  8.70311E+03 -3.93185E+03  8.87235E+03 -7.00271E+03 -6.96006E+03
 -5.67879E+03 -8.12031E+03 -1.84295E+03 -1.84913E+03  4.89146E+03 -3.34012E+03  1.05166E+03  2.22946E+03
  5.35994E+03  1.42640E+03  1.79487E+03  5.97894E+02  1.69306E+03  5.79626E+02 -2.55139E+02 -3.31381E+03
  6.57874E+03 -9.26072E+02  6.51324E+03  6.53099E+02  5.04353E+03  8.92485E+03  7.24703E+03  1.19855E+04
 -1.23049E+03  1.22143E+04 -1.05478E+04  1.15299E+04 -1.37726E+04  2.96290E+02 -1.33299E+04 -5.40610E+03
 -4.36343E+03 -8.55598E+03  2.94202E+03 -1.06742E+04  7.57969E+03  1.83670E+02  2.26201E+03 -6.55287E+03
  5.95440E+03 -9.63618E+02  4.00826E+03 -2.76354E+03  4.85176E+03 -4.28012E+03  7.11561E+03  4.05376E+03
  6.32216E+03  4.01375E+02  5.20367E+03  6.75031E+03 -1.21076E+03  6.54175E+03 -4.82897E+03  3.03067E+03
 -6.22748E+03 -4.88753E+02 -4.04492E+03  5.83645E+02 -1.70881E+03 -4.32586E+03  5.87959E+03 -8.68482E+03
  7.39929E+03 -3.04738E+03  1.76506E+03  1.19435E+03  7.58343E+03  3.75711E+03  3.13176E+03  8.75795E+03
 -1.94568E+03  1.07039E+04 -5.86717E+03  3.94721E+03 -1.26545E+03 -2.88051E+03 -3.47791E+03  8.85045E+01
  9.37095E+02  4.95144E+03 -1.34540E+03  4.24924E+03 -4.54686E+03  8.43427E+02 -5.02748E+03  1.43321E+03
 -4.36555E+03 -5.96280E+03  1.66994E+03 -4.20814E+03  5.19421E+03 -3.54217E+03  7.25082E+03 -4.08745E+03
  6.67455E+03  2.52201E+03  4.67304E+02  5.55984E+03 -3.80548E+03  5.20033E+03 -1.99506E+03  2.56104E+03
 -6.58211E+03  1.26735E+03 -5.49836E+03 -2.60351E+03  1.04188E+03 -7.08153E+03 -5.81642E+02  1.32075E+03
  2.39301E+03 -3.71278E+03  3.61537E+03  1.49798E+03  4.86963E+03 -4.07271E+02  5.64661E+03 -3.49552E+03
  3.28297E+03 -3.43329E+02  4.03177E+02  4.65116E+03  1.86264E+03  3.31866E+03 -8.59983E+02  5.68921E+03
 -1.72634E+03  9.19281E+03 -3.11318E+03  9.38942E+03 -8.26803E+03 -9.37997E+02 -6.12814E+03  5.36469E+03
 -3.50240E+03 -3.36257E+03 -9.44563E+02 -4.91102E+03  3.07934E+03 -6.39815E+03  3.00874E+03  1.47474E+01
  3.61905E+03  4.68597E+03 -2.42125E+03  5.35162E+03  2.57468E+02  3.71356E+03  1.77845E+03  4.56253E+03
  7.91722E+02 -4.26123E+03  4.14542E+03 -6.07459E+03  8.51470E+03  1.69418E+03  4.05350E+03  1.83909E+03
  3.60399E+03  1.54982E+03 -1.52515E+03 -6.83161E+02  1.94464E+03  4.68049E+03  7.32458E+02  7.94247E+02
  4.97636E+03 -1.55576E+03  6.28924E+03 -7.67169E+02  1.30384E+02  9.63682E+03 -1.63968E+03  5.01666E+03
 -1.18188E+03  4.97518E+03 -2.59816E+03 -9.69557E+02 -1.38882E+03 -3.13377E+03 -1.21775E+03 -3.15243E+03
 -2.37504E+03  2.50962E+03  2.91480E+02 -2.54146E+03  4.05942E+03  2.46275E+03 -6.49186E+02  3.35417E+03
 -2.67777E+03  2.82164E+02 -1.87606E+03 -7.48286E+03  3.52368E+02 -1.50527E+03 -9.30461E+02  4.03396E+01
  7.22271E+02 -6.12844E+03  5.74995E+03 -1.58886E+03  3.48880E+03 -8.93026E+02  1.94551E+03  6.96990E+02
 -6.06084E+02 -8.78346E+02  3.30326E+03 -1.10579E+03  2.13749E+03 -3.85022E+03  2.58096E+03 -1.55989E+03
  4.40757E+03  4.85426E+03  3.01586E+03  2.77875E+03  4.15340E+03 -5.34652E+02 -2.01686E+02  2.98425E+03
 -6.39959E+03  3.52205E+03 -3.18898E+03  1.17697E+03 -3.34032E+03  1.95089E+03 -1.33141E+03 -2.80340E+03
 -1.38046E+03 -2.03047E+03  3.59327E+03 -1.15366E+03  2.71872E+02  2.22985E+03  3.84288E+03  6.21210E+03
 -9.96282E+02  4.90859E+02 -4.30662E+03  2.07627E+03 -4.66471E+03  7.74934E+02 -1.79820E+03 -1.62785E+03
  1.82783E+03  3.63258E+03 -3.10764E+03  2.14692E+03 -1.98815E+03  1.19660E+03 -5.32707E+03 -4.38789E+03
  1.27816E+03 -4.59397E+03  3.22725E+03 -2.44520E+03  5.86647E+03 -5.49958E+03  4.83340E+03  3.62584E+03
  2.90587E+03  3.24435E+03  2.67514E+03  3.00574E+03  1.13754E+02  5.44763E+03 -7.69955E+02  6.91347E+02
 -4.51773E+02 -8.39238E+02 -6.26075E+03 -1.93390E+03 -2.80164E+03 -3.73204E+03  1.67027E+03  8.07663E+02
 -2.01621E+01  2.86921E+01  2.23836E+03  4.02280E+01  1.38355E+03 -3.63268E+03 -4.07979E+03 -1.21572E+03
  4.31836E+03 -5.44907E+00  1.03579E+03  5.31177E+01  2.13991E+03 -1.90058E+03  1.70169E+02  4.63063E+03
 -2.34932E+03  3.22822E+02 -2.78839E+03  5.49131E+03 -2.62128E+03  5.95656E+02 -3.09858E+03 -2.20190E+02
 -1.66783E+03 -4.09944E+03  3.22108E+03 -2.67789E+03 -2.79730E+02 -1.04656E+03 -1.73822E+02  3.01781E+03
  1.97687E+03  7.51629E+02 -2.24312E+03 -5.73926E+03 -2.59624E+03  3.24034E+03 -4.32151E+03 -6.61977E+01
  9.18743E+02  2.75141E+01 -2.80947E+03  5.64111E+02  1.28904E+02 -2.73954E+02  8.80552E+02  1.31479E+03
 -5.27906E+03  1.02706E+03 -1.32277E+02 -9.37819E+02 -2.21316E+02 -1.21918E+03  7.57601E+02 -3.30691E+03
  1.92845E+03  7.54877E+02  2.07713E+03 -3.72033E+03  3.46421E+03 -1.38005E+03  2.56623E+02  5.07759E+03
  3.21167E+03  3.65997E+03 -8.32366E+02  2.30044E+03  7.28165E+02 -2.09774E+03  1.14041E+03  2.27703E+03
 -3.50433E+03  6.28477E+02  1.28027E+03  2.45552E+03  8.93606E+02  9.91293E+02 -2.04872E+03 -4.62752E+03
 -3.49958E+03 -1.54665E+03 -1.35817E+03 -5.89252E+02 -6.89988E+02 -2.66051E+03  3.97293E+03 -1.29036E+02
 -3.21365E+03 -5.33376E+03 -4.02708E+03 -9.55429E+02 -4.26692E+03  4.42229E+03 -8.00256E+02  1.94818E+03
