 $NMID ID='MM_0lb_SNR50_10hz_g45_74.RAW', FMTDAT='(8E13.5)'
 TRAMP=1., VOLUME=1. $END
  3.14020E+05 -9.57060E+02  3.38489E+05  2.46165E+05  8.43634E+04  3.30343E+05 -1.34769E+05  2.52852E+05
 -1.94672E+05  8.09461E+04 -1.10087E+05 -3.75536E+04 -4.85665E+03 -5.01645E+04  4.84279E+04  4.82238E+02
  3.37806E+04  5.43141E+04 -1.90073E+04  7.86159E+04 -6.27254E+04  6.20729E+04 -8.32739E+04  3.17692E+04
 -7.16079E+04 -1.94047E+04 -6.04278E+04 -4.88156E+04 -1.35878E+04 -7.00311E+04  2.96721E+04 -4.49696E+04
  3.88817E+04  6.41949E+03  9.50391E+03  4.68856E+04 -3.47887E+04  4.93932E+04 -7.08506E+04 -7.36515E+02
 -5.55233E+04 -5.84334E+04 -1.11257E+04 -7.54722E+04  3.63563E+04 -5.57664E+04  5.17571E+04 -1.76576E+04
  4.92511E+04  8.85808E+03  3.09702E+04  2.49256E+04  1.71915E+04  3.06256E+04 -6.11077E+03  2.35581E+04
 -2.38736E+04  1.19350E+04 -2.38770E+04 -9.72496E+02  9.13036E+03 -2.78310E+03  2.14263E+04  1.86414E+04
  6.93058E+03  3.58266E+04 -3.43757E+04  3.17549E+04 -6.60908E+04  7.36315E+03 -6.28936E+04 -3.90615E+04
 -1.60420E+04 -6.95822E+04  4.14524E+04 -4.68006E+04  5.91892E+04 -3.43295E+01  3.58448E+04  3.70542E+04
 -2.04991E+03  4.01120E+04 -3.18833E+04  2.19627E+04 -3.44872E+04 -2.24065E+03 -1.81361E+04 -5.85709E+03
 -6.85520E+03 -1.57956E+04  4.65021E+03 -2.05375E+04  4.77305E+03 -2.13337E+04  1.27326E+04 -1.96495E+04
  7.86789E+03  1.28031E+04 -8.42824E+03  1.19338E+04 -2.04264E+04 -6.53606E+03  1.08546E+03 -3.74948E+04
  2.38037E+04 -4.37938E+04  4.57984E+04 -2.24776E+04  4.60769E+04  1.69685E+04  1.62000E+04  4.97167E+04
 -2.45960E+04  3.18790E+04 -2.09818E+04  5.18246E+03 -1.26557E+04 -2.81277E+04  2.26951E+04 -3.67928E+04
  4.33119E+04 -3.32166E+03  3.72372E+04  2.94303E+04  2.61295E+04  4.68903E+04 -1.10791E+04  5.51583E+04
 -3.64649E+04  3.80117E+04 -4.33415E+04  1.29969E+04 -4.89935E+04 -2.14825E+04 -2.71954E+04 -3.61423E+04
  1.39471E+04 -4.48200E+04  3.51976E+04 -2.44185E+04  3.29628E+04  1.12927E+04  6.15517E+03  2.16712E+04
 -1.78137E+04  1.25375E+04 -7.14861E+03 -5.26503E+03  8.34619E+03 -1.70361E+04  1.78760E+04  3.93964E+03
  1.15306E+04  2.13869E+04 -6.24295E+03  2.83579E+04 -2.09513E+04  1.28516E+04 -2.47907E+04 -1.12559E+04
 -2.56350E+04 -2.20941E+04 -1.22121E+04 -2.60763E+04  1.68136E+03 -2.12687E+04  1.81336E+04 -1.97093E+04
  2.76271E+04 -1.35968E+04  3.55417E+04  2.39186E+03  2.96150E+04  2.19599E+04  2.48211E+03  3.47469E+04
 -1.80933E+04  3.69041E+04 -2.94141E+04  6.59276E+03 -2.08508E+04 -5.01418E+03 -5.67235E+02 -1.38790E+04
 -2.25022E+03 -5.91991E+03 -9.84605E+03  5.68002E+03 -1.54122E+04  7.38439E+03 -1.81862E+04 -1.00974E+04
 -1.56587E+04 -2.69775E+04  5.22184E+03 -2.65553E+04  1.38183E+04 -2.30870E+04  2.46580E+04  6.07086E+02
  1.44516E+04  2.31370E+04 -6.61376E+02  2.23754E+04 -1.66118E+04  1.63255E+04 -2.37320E+04 -1.74430E+03
 -1.32038E+04 -1.76729E+04 -4.44124E+03 -2.51521E+04  8.45323E+03 -2.59627E+04  2.13941E+04 -5.07905E+03
  1.87445E+04 -8.39407E+03  1.69673E+04  2.74915E+03  3.88582E+03  6.98429E+03  1.25881E+04 -9.99184E+02
  2.20965E+04  6.77702E+03  2.21066E+04  2.17089E+04  1.97079E+04  3.73509E+04 -7.57498E+02  4.41378E+04
 -2.22196E+04  3.50925E+04 -4.13493E+04  1.91470E+04 -4.14109E+04 -2.71414E+03 -3.19895E+04 -2.53350E+04
 -1.73625E+04 -3.37741E+04  1.43454E+04 -3.17620E+04  2.58147E+04 -1.30056E+04  2.52196E+04  1.22160E+04
  9.57925E+03  2.34815E+04 -8.06792E+03  1.04860E+04 -1.30389E+04  1.90620E+03 -1.66978E+04 -1.44292E+04
  4.54323E+03 -2.48622E+04  1.32119E+04 -1.50069E+04  1.26568E+04 -3.89729E+03  1.10606E+03  1.08160E+04
 -3.17190E+03  2.31497E+03 -1.62960E+04 -6.35819E+03 -3.43411E+03 -2.01747E+04  1.73690E+04 -1.48856E+04
  2.12158E+04 -1.17417E+04  1.77552E+04  3.27318E+03  1.68993E+04  1.56555E+04  6.77793E+03  2.70113E+04
 -1.02622E+04  3.04710E+04 -2.08865E+04  1.70841E+04 -2.47135E+04  6.80368E+03 -1.63209E+04  9.39907E+02
 -7.26958E+03 -1.07380E+04  3.79489E+03  2.33821E+03 -1.49467E+03  4.42720E+03 -1.57826E+03  4.61772E+03
 -1.21270E+04  3.16428E+03 -9.52382E+03 -5.33462E+03 -5.19827E+03 -1.85644E+04  9.77229E+03 -9.23086E+03
  1.15809E+04 -3.25956E+03  7.33331E+03  4.34361E+03 -1.50344E+03  8.75717E+03 -5.51284E+03  5.73373E+03
 -1.58334E+03 -1.22656E+04 -5.33031E+03 -1.21771E+04  7.27859E+03 -1.12691E+04  2.13784E+04 -9.32194E+03
  2.22125E+04 -1.02753E+03  1.82873E+04  1.50062E+04 -2.31965E+03  1.83126E+04 -2.04922E+02  1.89259E+04
 -1.02405E+04  6.12652E+03 -6.65660E+03 -4.68096E+03 -3.04374E+03 -8.06888E+03  1.41420E+04  3.99470E+02
  8.70818E+03  5.53029E+03 -5.38710E+03  8.43536E+03 -1.37557E+04  1.06335E+04 -1.31661E+04  2.17233E+03
 -9.66435E+03 -5.93910E+03  8.02398E+03 -1.56814E+04  4.93383E+03 -4.16747E+03  2.19982E+03 -8.17565E+02
  3.22229E+03  4.61665E+03 -2.91944E+03  1.44666E+04 -1.63088E+04  1.67163E+03 -1.18350E+04 -4.61282E+03
 -5.60486E+03 -1.32183E+04  4.52693E+03 -1.71909E+04  7.83417E+03 -6.74840E+03  1.41152E+04  1.94546E+03
  6.54831E+03  6.53174E+03  2.03095E+03  1.11595E+04 -1.49081E+04  3.88238E+03 -1.23862E+04  1.78218E+02
 -1.14501E+04 -8.07404E+03  2.14655E+03 -1.20425E+04  3.88805E+03 -3.12422E+03  7.02130E+03 -5.43016E+03
 -5.02508E+03  9.01164E+02  1.64899E+01  2.80872E+03 -2.70796E+03 -3.64124E+03 -3.41080E+03 -8.87716E+03
  1.11516E+04 -5.98479E+03  1.74784E+04  1.18326E+03  1.13564E+04  7.89322E+03  1.22726E+04  2.62557E+04
 -1.92042E+03  2.02253E+04 -1.83445E+04  1.35581E+04 -2.25301E+04 -3.66899E+03 -1.76007E+04 -1.37190E+04
 -8.20203E+03 -9.71948E+03  1.06410E+03 -6.71500E+03  6.30231E+02 -1.05831E+04  3.35366E+02 -8.73518E+03
  1.51630E+03 -2.08812E+02  8.61853E+03 -9.11062E+03  5.40338E+02 -5.61320E+03  8.99236E+03  1.81745E+03
  1.22909E+04 -3.81611E+03  4.91246E+03  8.85741E+03 -3.85747E+03  1.14143E+04 -1.27554E+04  6.19891E+03
 -1.19639E+04 -3.14591E+03 -1.00883E+04 -8.06898E+03 -1.56162E+03 -1.09103E+04  7.66503E+03 -1.04291E+04
  1.24570E+04 -4.17931E+03  1.44660E+04 -2.96310E+03  7.19076E+03  1.26725E+04 -8.42878E+03  1.48621E+04
 -6.78084E+03  1.22241E+04 -7.81881E+03  5.03485E+03 -7.45657E+03  5.29477E+03 -5.52816E+03  2.12016E+03
 -6.42168E+02  5.93085E+03 -3.49265E+03  2.90698E+03 -2.45263E+03 -1.34731E+03 -9.32690E+03 -1.67054E+03
 -9.65070E+03 -2.02935E+03  4.56769E+03 -1.12222E+04  5.60826E+03 -1.25650E+04  1.32699E+04 -3.40682E+03
  9.27621E+03  4.33760E+03  3.67617E+03  1.60835E+04 -5.65610E+03  1.75500E+04 -1.21146E+04  1.12720E+04
 -7.70459E+03 -3.17050E+03 -8.78582E+03 -1.24451E+04  1.16679E+03 -1.52917E+04  7.56384E+03 -2.73986E+03
  9.87381E+03 -5.08891E+03  8.09664E+02  5.60045E+03  5.98612E+03 -1.29366E+03  9.06444E+03  2.04760E+03
  4.86433E+03 -4.23620E+02  4.29663E+03 -1.40526E+03  5.78072E+03  3.59938E+03  2.95505E+03  8.01341E+03
 -7.21762E+03  6.96051E+03 -9.22845E+03  1.12012E+04 -1.09000E+04 -4.13767E+03 -1.43633E+04 -2.91283E+03
 -1.07640E+04 -8.33637E+03 -1.68797E+02 -1.88302E+04  7.55091E+03 -6.45442E+03  1.76545E+04 -2.28242E+03
  1.53083E+04  2.65877E+03  2.31916E+03  3.39751E+03 -4.14851E+03  1.16884E+03  1.65032E+03  4.15352E+03
 -8.43487E+03 -4.71998E+03 -9.73616E+01 -6.20754E+03  7.69542E+03 -1.29510E+03  5.26924E+03  5.70960E+03
  7.38031E+03  4.50124E+02  4.19938E+03  6.27163E+02  1.71878E+02  3.50686E+03 -2.60260E+03  3.43264E+02
 -1.58914E+03  2.13759E+03 -1.33992E+03  3.37148E+03  5.38233E+03  7.08993E+03 -1.86652E+03  1.09263E+04
 -6.39977E+03  6.84986E+02 -1.18838E+04  3.83128E+01 -1.34734E+04 -3.89005E+03  1.05019E+03 -4.37394E+03
  3.10767E+03 -8.87548E+03  8.42447E+03 -4.20394E+03  4.53261E+03  5.94924E+03  2.34703E+03  3.13176E+03
 -6.88854E+03  8.48674E+03 -7.58149E+03 -4.69364E+03 -2.57904E+03 -5.76563E+03  1.03540E+03 -8.28514E+03
  1.95122E+03  7.57724E+02  7.76122E+03 -9.72825E+02  6.35508E+03  5.54712E+03  6.04594E+02  6.54613E+03
 -4.64319E+03 -2.21554E+02 -1.82558E+03 -5.92835E+01  1.48547E+03 -4.65975E+03  6.38010E+03 -5.16144E+03
  1.10847E+04  2.56210E+03  8.22449E+03  9.18214E+03  4.01113E+03  8.48740E+03 -1.21834E+03  5.83996E+03
 -3.36610E+03  1.03382E+04 -1.43570E+04 -3.63593E+03 -3.52123E+03 -4.84558E+03 -2.71650E+03 -6.50068E+03
  4.10129E+03  6.26589E+02  1.77305E+03  1.41216E+03 -2.55861E+03  4.11142E+03 -4.53867E+03  3.29538E+03
  1.77774E+03 -2.77197E+03 -2.13457E+03  3.57169E+01  1.95677E+03 -1.59710E+03 -4.37896E+02  2.74698E+03
 -3.19646E+03  1.70266E+03 -7.97398E+03  8.83383E+03 -4.37436E+03 -3.29595E+03 -1.40760E+04 -7.18364E+03
 -6.19149E+03 -1.08522E+04  4.33023E+03 -1.12737E+04  9.25477E+03 -1.10509E+04  8.62018E+03 -7.40869E+03
  1.16638E+04 -1.16529E+03  6.11727E+03  1.16489E+04 -5.37110E+02  3.24805E+03  7.91645E+02  5.50896E+03
 -5.32418E+03 -2.58041E+03 -8.17173E+02 -1.50464E+03  1.79110E+03 -9.64651E+03  1.63178E+03 -5.11733E+02
 -3.99464E+03  5.08504E+02 -5.45641E+01 -2.02146E+03 -3.91768E+03  3.03304E+02  3.41262E+02 -6.93121E+03
  2.85335E+03 -6.27890E+03 -2.32530E+02 -1.39463E+03  1.17006E+04  2.74843E+03  2.63401E+02  9.91342E+03
 -3.54790E+03  6.52003E+03 -6.19714E+03  9.61789E+03 -1.20903E+04  1.42201E+03 -6.85620E+03 -2.00179E+03
 -7.50822E+03 -1.30207E+04  3.96749E+03 -3.52640E+03  6.15310E+03 -6.19273E+03  3.30924E+03 -5.50189E+02
  4.92920E+03 -6.07055E+01 -3.37902E+03  2.20826E+03 -6.25932E+02  2.36988E+03  1.94567E+03 -3.06708E+03
  7.25879E+03  1.66853E+03  9.97928E+03  3.66637E+03  5.85012E+03  3.28617E+03  7.28531E+03  4.14188E+03
 -3.74362E+03  5.32091E+03 -7.46758E+03  3.42962E+03 -2.88337E+03 -3.32255E+03 -7.84333E+03 -6.03944E+03
  6.68770E+03 -6.53297E+03  5.11750E+03  9.14193E+03  8.20398E+03 -3.82729E+03  3.57090E+03 -1.37365E+03
  3.68297E+03  4.82946E+02 -2.05497E+03  7.70830E+03 -1.09538E+03  1.00268E+03 -3.78763E+03 -1.00846E+03
  6.71042E+02  3.87584E+03  4.10028E+03  1.81964E+03 -8.12022E+03 -2.39837E+03 -3.35633E+03 -8.81716E+02
 -3.87006E+03 -1.13993E+03 -1.43473E+03 -5.23997E+03 -7.46666E+02 -8.41713E+03  1.53393E+03 -2.93172E+03
  2.30694E+03 -1.27672E+03  1.36648E+03  3.09014E+02  3.32499E+03  4.61395E+03 -1.10880E+01  4.50395E+03
