 $NMID ID='MM_0lb_SNR50_17hz_g60_19.RAW', FMTDAT='(8E13.5)'
 TRAMP=1., VOLUME=1. $END
  3.08728E+05 -1.88827E+03  3.38409E+05  2.53945E+05  8.38890E+04  3.37952E+05 -1.35322E+05  2.48498E+05
 -1.87465E+05  8.35033E+04 -1.10712E+05 -3.04402E+04  1.37370E+03 -5.28151E+04  5.47091E+04  1.57767E+03
  3.68728E+04  5.23407E+04 -1.37912E+04  7.58402E+04 -5.90498E+04  6.31676E+04 -8.03747E+04  3.09240E+04
 -8.10378E+04 -7.56186E+03 -5.51874E+04 -4.53651E+04 -1.63367E+04 -6.79162E+04  2.47843E+04 -4.60785E+04
  4.03852E+04 -3.98019E+03  1.56571E+04  4.29437E+04 -3.41698E+04  5.10212E+04 -6.09856E+04  5.57998E+03
 -5.55252E+04 -5.87301E+04 -8.18435E+03 -7.47546E+04  3.41125E+04 -5.55584E+04  4.90620E+04 -1.76646E+04
  4.14988E+04  1.39586E+04  3.29433E+04  2.75852E+04  1.40202E+04  2.86851E+04  1.58844E+03  2.50253E+04
 -2.13806E+04  1.62474E+04 -1.97815E+04 -6.53634E+03  4.24589E+03 -7.41106E+03  1.96998E+04  1.61197E+04
  4.37691E+03  3.39893E+04 -2.93838E+04  3.79586E+04 -6.12898E+04  6.06955E+03 -6.00529E+04 -4.42865E+04
 -1.40947E+04 -6.20771E+04  3.73657E+04 -3.95074E+04  5.63083E+04 -3.51659E+03  3.14117E+04  3.26125E+04
 -5.28508E+03  3.12584E+04 -3.05862E+04  1.67315E+04 -3.48365E+04 -8.93365E+03 -1.57964E+04 -1.06254E+04
 -1.11910E+04 -1.07399E+04  2.52015E+02 -1.61790E+04  9.48000E+03 -2.61838E+04  1.67184E+04 -1.50265E+04
  1.11346E+04  2.66261E+03 -8.60015E+03  1.42806E+04 -1.95885E+04 -1.06148E+03 -1.09737E+04 -3.34919E+04
  2.00551E+04 -4.50215E+04  5.27099E+04 -1.58217E+04  4.34159E+04  1.74630E+04  1.55498E+04  3.99496E+04
 -1.74277E+04  3.51586E+04 -2.20923E+04  1.11911E+03 -8.89859E+03 -2.97055E+04  1.84367E+04 -2.89679E+04
  4.04970E+04 -6.16987E+03  3.73763E+04  2.01225E+04  1.86794E+04  4.60670E+04 -6.91915E+03  4.65297E+04
 -3.35651E+04  3.49905E+04 -3.97986E+04  1.23323E+04 -3.76413E+04 -1.41995E+04 -2.69156E+04 -3.94932E+04
  7.30236E+03 -3.59803E+04  2.69155E+04 -1.26401E+04  2.73698E+04  1.10850E+04  3.51079E+03  2.05087E+04
 -1.59721E+04  1.22320E+04 -8.67647E+03 -9.74623E+03  6.31591E+03 -1.28361E+04  2.14169E+04  8.28841E+03
  1.32227E+04  1.52887E+04 -3.50476E+03  2.58250E+04 -2.00046E+04  9.65772E+03 -2.85368E+04 -2.52377E+03
 -1.98001E+04 -1.68784E+04 -1.29798E+04 -1.97015E+04  5.52101E+03 -1.40200E+04  1.47750E+04 -2.03995E+04
  2.50887E+04 -7.67023E+03  3.43527E+04  2.28029E+03  2.66487E+04  1.94113E+04  1.78796E+03  4.18815E+04
 -2.07533E+04  3.08472E+04 -2.73028E+04  1.02966E+04 -2.05091E+04 -1.24776E+04 -7.67041E+03 -1.12790E+04
  6.54835E+03  6.86685E+02 -1.47392E+03  5.01046E+03 -1.57366E+04  4.63274E+03 -2.23009E+04 -6.00039E+03
 -1.09915E+04 -2.06663E+04  8.14707E+03 -1.82238E+04  1.46312E+04 -1.69393E+04  1.56707E+04  4.44503E+02
  1.16380E+04  1.04559E+04 -2.99283E+03  1.70407E+04 -7.66525E+03  9.18394E+03 -1.43911E+04 -6.40089E+03
 -1.41129E+04 -1.49419E+04 -9.96729E+01 -2.05820E+04  9.86067E+03 -1.35861E+04  1.60337E+04 -3.29326E+03
  1.58676E+04  3.24864E+03  1.09569E+04  6.26054E+03  5.88516E+03 -2.05013E+03  8.43479E+03 -3.63597E+03
  1.88449E+04  2.70266E+02  1.53883E+04  1.30647E+04  1.67434E+04  2.87597E+04 -1.29681E+03  3.16888E+04
 -1.62114E+04  2.33652E+04 -3.14103E+04  1.58238E+04 -3.31919E+04 -2.21302E+03 -2.27826E+04 -1.61007E+04
 -1.15166E+04 -2.69135E+04  7.32031E+03 -2.20991E+04  1.90337E+04 -1.12426E+04  1.70799E+04  1.22883E+03
  3.97791E+03  1.04420E+04 -4.81109E+03  1.17426E+04 -1.60329E+04  4.01850E+03 -1.09867E+04 -6.77109E+03
 -4.90518E+03 -1.23825E+04  9.33126E+03 -1.79759E+04  9.36017E+03 -1.76567E+03  2.79632E+03  8.21404E+03
 -9.57017E+03  1.25742E+03 -5.62791E+03 -5.03772E+03 -1.37353E+03 -1.04246E+04  1.06708E+04 -1.24820E+04
  1.97418E+04 -7.00199E+03  1.13009E+04  5.24192E+03  1.11113E+04  5.90322E+03  6.63182E+03  1.91844E+04
 -1.56106E+03  2.04571E+04 -1.00377E+04  1.10266E+04 -1.47906E+04  3.88071E+03 -5.92064E+03 -5.76997E+03
 -1.17378E+03 -1.85717E+03  5.98109E+03  3.81426E+03 -1.74259E+03  5.64190E+03  2.47818E+02  3.99062E+03
 -1.12821E+04 -6.84405E+02 -9.54431E+03 -1.01367E+04 -5.94825E+03 -1.24604E+04  5.29254E+03 -1.30264E+04
  9.00739E+03 -5.02939E+03  7.89832E+03 -2.06202E+03 -5.54741E+03  3.13163E+03 -2.57053E+03 -5.32332E+02
 -2.68537E+03 -5.69825E+03  2.28463E+03 -6.73585E+03  2.90439E+03 -1.17446E+04  1.16917E+04 -5.00561E+03
  1.08831E+04  1.58648E+03  8.90709E+03  5.79569E+03  4.50701E+02  1.18278E+04 -5.60817E+03  9.44942E+03
 -6.34584E+03  4.05210E+03 -1.74450E+03 -3.36457E+03 -1.85631E+03 -2.96785E+03  4.24904E+03 -3.33268E+03
  2.45237E+02  7.36467E+03 -1.90928E+03  7.67650E+03 -6.73548E+03  1.09585E+04 -1.01069E+04  8.73039E+02
 -3.83789E+03  3.37699E+03 -7.26501E+02 -7.28667E+03  3.16459E+03 -5.30468E+03  5.31487E+03  1.29183E+03
  1.94178E+03  1.17647E+03 -6.51569E+03  7.53977E+03 -7.18941E+03  3.84286E+03 -3.91677E+03 -2.56034E+03
 -6.52033E+02 -5.46076E+03  2.90553E+03 -1.45481E+04  8.37359E+03 -3.83279E+03  7.71700E+03 -5.75835E+02
 -2.13890E+03  1.03249E+04  2.05461E+03  1.26882E+04 -3.23772E+03  1.98269E+03 -8.72148E+03 -2.44823E+02
 -8.19842E+03 -6.50681E+03 -7.40736E+02 -5.14078E+03  7.17446E+02 -5.17953E+03  3.60270E+03 -4.68575E+03
  2.07330E+03 -2.48689E+03  3.12971E+03  4.44189E+03 -4.56067E+03  2.22472E+03 -2.72223E+03 -6.58094E+03
  7.84523E+03 -6.82148E+03  8.64724E+03  1.99433E+03  9.10717E+03  1.30896E+03  9.40564E+03  1.11105E+04
 -2.65391E+03  9.71878E+03 -1.01512E+04  6.99445E+03 -1.36820E+04  2.54590E+02 -1.42401E+04 -1.48899E+03
 -6.93818E+03 -8.81754E+03  1.68936E+03 -5.47230E+03  3.52285E+03 -1.35987E+03  7.94167E+03 -6.09491E+02
 -7.54009E+02 -3.45199E+03  3.54406E+03  9.27908E+02  1.60069E+03  1.13129E+03 -3.08973E+03  1.73561E+03
  7.55671E+03  1.84700E+03  3.83556E+03  2.34060E+03 -1.19350E+03  3.07949E+03 -8.46942E+03  5.25151E+03
 -5.66669E+03  1.45413E+02 -6.62041E+03 -9.11473E+03  3.58188E+03 -8.90266E+03  4.19219E+03 -8.94222E+03
  9.44982E+03 -2.92656E+03  9.47148E+03  8.09605E+02  4.47524E+03  5.56771E+03  1.50342E+03  7.74745E+03
  2.27155E+03  9.55092E+03 -8.65122E+03  1.94064E+03 -4.44049E+03  1.23583E+02 -4.04280E+03 -2.02029E+03
 -3.27840E+03 -1.60809E+03 -3.91973E+03  2.52505E+03  4.16875E+02 -2.07726E+03 -7.23647E+03  3.44616E+03
 -1.06371E+04 -6.88630E+03  3.47511E+03 -7.47664E+03  4.01766E+03 -4.20011E+03  7.61342E+03  2.29303E+03
  5.89057E+03 -2.18086E+03  3.83474E+03 -9.73108E+02 -1.64704E+03  6.15053E+03 -4.95783E+03  2.33684E+03
 -6.84948E+03 -4.43111E+02 -6.96135E+03 -3.95512E+03  1.10581E+03  6.00038E+02  2.92320E+03 -2.77554E+03
 -1.28285E+03  5.06211E+02  4.16153E+03 -6.72584E+03  1.58243E+03  3.56741E+02  1.87353E+03 -1.40764E+03
 -1.31633E+03  1.54627E+03  2.20962E+03  5.94467E+02 -1.27355E+03  1.92910E+03  2.60117E+03  2.81502E+03
 -3.33904E+03 -2.63669E+01 -4.94540E+03  5.22534E+03 -3.86913E+03  2.59160E+03 -1.19850E+04 -1.80640E+03
 -2.82052E+03 -3.35062E+03 -1.18075E+03 -1.10661E+04  4.24720E+02 -5.44234E+03  5.23221E+03 -1.35532E+03
  5.09180E+03  4.50625E+03  1.64193E+03  4.64474E+03 -2.30466E+03  3.25642E+02 -6.23410E+03  4.35750E+01
  5.07849E+02 -5.56597E+02 -7.46513E+02  2.36852E+03  3.05849E+03  2.43231E+03  3.22088E+03 -1.60918E+03
 -1.10860E+02  1.33005E+03 -1.16465E+03 -3.23619E+02  1.01757E+03  2.64190E+03  3.59625E+03  2.82904E+02
  3.66770E+02  3.46394E+03  2.60896E+03  2.87348E+02  1.70025E+03  9.85185E+03 -3.14428E+03  6.93592E+03
 -7.03222E+03  1.98957E+03 -1.71959E+03 -4.89461E+03 -2.40160E+03 -3.85179E+02 -6.21652E+03 -3.93874E+03
 -2.99834E+03 -3.07645E+03 -5.16865E+02 -8.19886E+02  1.30527E+03 -4.92926E+02  1.94870E+03  1.60647E+03
 -1.34179E+03 -3.23259E+03 -5.37055E+03 -3.33414E+02 -1.33548E+03 -1.20031E+03  3.30834E+03 -3.57523E+03
  1.96391E+03  2.16659E+03  1.77592E+03  1.22720E+03  3.05671E+03  3.86288E+03 -6.98814E+02  2.20341E+03
  2.30121E+03 -4.02809E+03 -6.17959E+03  1.88114E+03 -3.41628E+03 -4.28292E+03 -5.49344E+02 -2.09373E+03
  2.04230E+03  4.24531E+03  8.37461E+03  6.79408E+02 -6.26924E+02  2.21102E+03  2.90106E+03  4.82372E+03
 -2.35073E+03  3.51683E+03  1.89856E+02  2.72459E+01 -3.62498E+03  3.40302E+03 -2.12090E+03  1.11782E+03
 -1.22551E+03  1.14242E+03  3.27593E+03  2.28371E+03  1.71041E+03  2.33700E+03  7.02524E+02  3.07631E+03
  2.33007E+03  3.36857E+03 -5.01511E+03  5.43632E+02  7.04273E+02  3.14662E+03 -4.15325E+03  3.21360E+03
  1.31465E+03  3.94924E+02 -8.88564E+02 -2.83886E+03 -1.56559E+03  2.19405E+02 -5.13685E+03 -1.63932E+03
 -2.75881E+03 -3.81453E+03  1.09935E+01 -3.14249E+03  5.15532E+02 -4.57515E+03  3.90069E+03  1.47417E+02
  9.01925E+03 -5.57140E+02  5.96803E+03 -5.85512E+02  3.19957E+03  6.09863E+03  1.90464E+02  2.55531E+03
 -3.11743E+03 -6.50137E+02 -2.92985E+02  2.54444E+02 -1.15483E+03 -9.80515E+02 -5.76649E+03 -3.08615E+02
 -4.08754E+03 -6.22155E+02 -6.51138E+01  1.20974E+03 -2.03023E+03  6.21663E+02  2.80629E+03 -1.43528E+03
 -7.19529E+02  2.62374E+03 -7.90244E+02  2.81037E+03  3.18967E+02  2.03732E+03  1.35479E+03 -1.31024E+03
 -1.73759E+03  1.09191E+03 -4.66305E+03  4.65190E+03  1.45266E+03 -1.88157E+03  2.09900E+03  3.56796E+01
  8.85416E+02  1.27076E+03 -6.44884E+03  6.34863E+02  1.19245E+03 -1.54729E+03 -7.38565E+02  1.52014E+03
  1.06375E+03  2.66733E+03  8.83602E+01 -1.37134E+03 -2.05336E+03  7.13622E+02  3.63793E+03 -5.57415E+01
 -5.43585E+02 -3.87872E+03 -2.81414E+03  4.61070E+03 -3.51765E+03 -1.67563E+03  1.47506E+03  1.20348E+02
  4.90749E+02  9.92787E+02 -3.44284E+03  2.31575E+03 -4.17151E+03 -1.44517E+03 -4.05788E+03 -4.23124E+03
 -4.04805E+03  1.02943E+03  9.66020E+02  4.83065E+02 -4.17068E+02 -7.74736E+02  1.90551E+03 -2.50704E+03
  2.70364E+03  4.26779E+03 -2.70900E+03 -2.01617E+03  1.34016E+03 -5.76777E+03  1.63528E+03 -8.30774E+02
 -4.12178E+03 -2.82704E+03 -2.10044E+02 -1.43953E+03 -1.84140E+03  1.49394E+03  3.16772E+03 -1.19393E+03
 -1.85610E+03 -1.32447E+03 -3.39250E+02 -3.33473E+03 -4.48948E+03 -5.60394E+03  2.44698E+03 -1.97595E+03
 -6.88943E+02  7.06615E+02 -1.10050E+03  5.38028E+03  1.96466E+03 -1.98169E+03  5.05861E+02  1.04603E+03
