 $NMID ID='MM_0lb_SNR50_17hz_g40_12.RAW', FMTDAT='(8E13.5)'
 TRAMP=1., VOLUME=1. $END
  3.10625E+05 -9.84703E+02  3.38449E+05  2.51591E+05  8.35868E+04  3.40922E+05 -1.35617E+05  2.50323E+05
 -1.89434E+05  7.94976E+04 -1.08722E+05 -3.56894E+04  8.51988E+02 -5.12473E+04  5.30196E+04  2.10238E+02
  3.44850E+04  5.45887E+04 -1.79465E+04  7.21398E+04 -5.92235E+04  6.76491E+04 -8.12792E+04  2.52526E+04
 -7.64483E+04 -9.94947E+03 -5.81202E+04 -5.06972E+04 -1.24182E+04 -6.62538E+04  3.08648E+04 -4.76024E+04
  4.08805E+04  3.95523E+03  1.88700E+04  4.51502E+04 -4.15022E+04  4.25060E+04 -6.70050E+04 -1.24772E+03
 -5.08493E+04 -5.92239E+04 -9.68345E+03 -7.32930E+04  3.17341E+04 -5.52566E+04  4.69715E+04 -1.91115E+04
  4.01371E+04  1.39122E+04  3.30863E+04  2.31348E+04  1.68195E+04  2.90943E+04 -5.95202E+03  2.91399E+04
 -1.94581E+04  1.64555E+04 -1.64046E+04  1.75025E+01  3.38907E+03 -1.13467E+04  1.74827E+04  5.64517E+03
  7.86655E+03  2.94518E+04 -2.83206E+04  3.33046E+04 -6.25598E+04 -2.25459E+03 -5.68485E+04 -4.17582E+04
 -1.27960E+04 -6.09276E+04  4.24891E+04 -4.58550E+04  5.27585E+04 -3.05939E+02  3.39939E+04  2.87411E+04
 -8.57268E+03  3.32028E+04 -2.64158E+04  1.35179E+04 -2.57710E+04 -2.15455E+03 -1.40818E+04 -5.45002E+03
 -9.77028E+03 -1.51092E+04 -2.44488E+02 -1.68035E+04  7.05681E+03 -2.18506E+04  1.35769E+04 -1.57692E+04
  9.42520E+03  5.77869E+03 -7.40128E+03  1.15627E+04 -1.94263E+04 -7.61663E+03 -1.02279E+04 -3.17085E+04
  2.17213E+04 -3.86610E+04  4.27850E+04 -1.84591E+04  3.93027E+04  1.91970E+04  1.60322E+04  4.30313E+04
 -1.60408E+04  2.74496E+04 -2.46015E+04  4.14535E+02 -9.64129E+02 -2.99488E+04  2.34124E+04 -3.24655E+04
  3.76068E+04 -8.21429E+03  3.15596E+04  2.08564E+04  1.30457E+04  4.26282E+04 -7.53265E+03  4.38834E+04
 -2.65380E+04  2.89464E+04 -3.81245E+04  7.99972E+03 -3.98240E+04 -1.23218E+04 -2.25063E+04 -3.25829E+04
  3.15976E+03 -3.30570E+04  2.99688E+04 -1.51550E+04  2.44530E+04  1.28908E+04  5.20377E+03  1.67920E+04
 -1.44267E+04  7.61434E+03 -8.88810E+03 -1.01945E+04  2.53277E+03 -9.35172E+03  1.69363E+04  3.58563E+03
  1.17684E+04  2.38968E+04 -8.78386E+03  2.45163E+04 -2.26741E+04  1.36450E+04 -2.99592E+04 -9.46216E+03
 -1.54104E+04 -1.45069E+04 -2.11095E+03 -1.30783E+04  4.09516E+03 -1.64908E+04  9.49726E+03 -1.62020E+04
  2.32280E+04 -1.19785E+04  3.29681E+04  1.54624E+03  2.32233E+04  1.58994E+04  6.59096E+03  3.34787E+04
 -1.72822E+04  2.67558E+04 -3.22667E+04  1.13059E+04 -2.11415E+04 -1.13619E+04 -7.28866E+02 -1.42858E+04
  3.28378E+03 -1.49735E+03 -1.86023E+03  2.65130E+03 -1.45408E+04  3.01344E+03 -1.52502E+04 -1.83675E+03
 -9.07904E+03 -1.67509E+04  4.50669E+03 -1.39706E+04  1.36861E+04 -1.47731E+04  1.64255E+04 -9.38263E+02
  1.35084E+04  1.21641E+04 -2.98663E+03  1.99455E+04 -9.77740E+03  9.97881E+03 -1.72556E+04 -1.76973E+03
 -1.01901E+04 -1.22912E+04 -1.95389E+02 -1.61896E+04  1.19318E+04 -1.35112E+04  1.59896E+04 -6.65878E+03
  1.41868E+04 -1.02470E+02  9.71072E+03  7.30047E+02  9.70488E+03 -5.66717E+01  1.27766E+04 -5.01945E+03
  1.04918E+04  6.95084E+03  1.41228E+04  1.43345E+04  1.17753E+04  2.65275E+04 -3.28333E+03  2.75014E+04
 -1.71436E+04  2.37306E+04 -2.67322E+04  9.73252E+03 -2.52377E+04 -3.10521E+03 -2.01244E+04 -1.82615E+04
 -1.07459E+04 -2.12362E+04  8.69443E+03 -1.82837E+04  2.26161E+04 -7.59279E+03  1.60011E+04  1.82525E+03
  2.07905E+03  1.40834E+04 -1.77473E+03  1.35569E+04 -1.30751E+04  2.84718E+03 -1.08322E+04 -8.91850E+03
  3.33058E+03 -1.20921E+04  6.39244E+03 -1.46530E+04  9.89092E+03 -2.36605E+03 -2.63491E+03  5.18814E+03
 -1.13854E+04 -2.73004E+03 -7.17968E+03 -2.22161E+03  3.13269E+03 -8.13112E+03  7.91753E+03 -1.21985E+04
  1.44123E+04 -6.10918E+03  1.08021E+04  3.44073E+03  6.03986E+03  5.46819E+03  6.75198E+03  1.69805E+04
 -3.96873E+03  1.84403E+04 -9.48973E+03  1.46664E+04 -1.05943E+04  2.44900E+03 -1.23115E+04 -1.85144E+03
 -7.34331E+03 -2.36668E+03 -1.91107E+03 -5.61316E+02 -3.03767E+03  3.17297E+03 -2.03955E+03  3.39224E+03
 -1.15886E+04 -1.60273E+02 -6.61131E+03 -5.28206E+03 -5.95686E+03 -1.06752E+04  1.95761E+03 -9.04656E+03
  5.45750E+03 -8.41248E+03  3.67103E+03  4.92114E+03 -4.22006E+03  1.61072E+03 -6.28980E+03 -1.26034E+03
 -3.58504E+03 -7.56624E+03 -7.04939E+02 -9.58612E+03  7.78604E+03 -8.53967E+03  1.55986E+04 -6.46149E+03
  1.35708E+04  2.59768E+03  7.78045E+03  9.36313E+03  1.62073E+03  1.04706E+04 -7.63860E+03  5.05212E+03
 -8.80337E+03 -1.80753E+03 -1.05718E+04 -1.94901E+03  2.18132E+03 -2.89868E+03  3.17286E+03 -2.63735E+03
  3.40604E+03  1.02293E+03  1.39351E+03  1.11887E+04 -4.26852E+03  5.42713E+03 -8.60816E+03  6.94737E+03
 -7.35545E+03 -4.48571E+02  1.23115E+03 -1.26480E+04  3.19995E+03 -1.94671E+03  3.79312E+03  2.45399E+03
  2.09439E+03  3.66747E+03 -8.73217E+03  7.39013E+03 -6.16185E+03  2.64182E+03 -5.67076E+03  3.07106E+03
 -1.15132E+03 -9.96812E+03  2.05771E+03 -6.67284E+03  1.06661E+04 -3.61660E+03  7.10324E+03  1.25781E+03
  3.38810E+03  9.19942E+03  1.12994E+03  7.82930E+03 -8.62355E+03  2.58341E+03 -4.27473E+03 -9.47011E+02
 -3.63742E+03 -3.86042E+03  3.05074E+01 -5.27711E+03  3.77755E+03 -5.98221E+03  4.57431E+03 -6.94896E+02
  5.42378E+03 -2.77957E+03 -3.77855E+03  3.51487E+03  2.61556E+03 -2.84777E+03 -8.42863E+02 -1.44683E+03
  5.89609E+03 -4.24082E+03  9.64699E+03  8.18878E+01  8.17150E+03  3.86441E+03  8.24477E+03  6.43576E+03
 -6.65283E+03  9.20602E+03 -8.33945E+03  7.17990E+03 -6.13842E+03 -1.43963E+03 -8.69049E+03 -4.51760E+03
 -2.95093E+03 -9.98020E+03 -2.52954E+02 -4.73896E+03  4.15297E+03 -7.09650E+03  4.38804E+03  6.30939E+02
  2.39432E+03 -2.48263E+03  1.66622E+03 -2.43709E+03  3.82053E+03 -3.40378E+02  6.09048E+02 -1.03364E+03
  6.95732E+03 -2.43150E+03  2.15933E+03  5.71071E+03  9.16028E+02 -2.29258E+03 -3.07392E+03  2.59514E+03
 -4.44379E+03 -2.57948E+03 -1.02582E+03  9.25199E+02  7.81122E+02 -1.70087E+03  4.65229E+03 -7.07488E+03
  8.14770E+03 -4.81452E+03  9.83753E+03 -8.01298E+01  4.62140E+02  2.20136E+03  2.60929E+03  7.16655E+03
 -5.61338E+03  6.11045E+01 -6.13779E+03  4.87371E+02  1.08625E+02  4.77243E+02  1.14169E+02  2.24479E+03
 -2.94997E+03 -1.83437E+03 -9.00035E+02  6.07071E+03 -9.87176E+01 -5.40514E+02 -2.09758E+03  1.39621E+03
 -3.49952E+03 -8.51349E+03  3.11521E+03 -3.38849E+03  7.98168E+02 -3.80957E+03  3.26818E+03  1.05118E+02
  4.90570E+03  4.79664E+03  2.65418E+03  6.60354E+03 -2.02682E+03  2.37143E+03  8.59424E+02  2.56216E+03
 -2.67489E+03  1.29963E+03 -7.36799E+03 -5.04047E+03 -2.18744E+03 -3.40130E+03  2.75109E+03 -7.83120E+03
  3.80533E+03 -5.07042E+02  1.56118E+03  2.54591E+02  5.44254E+03  3.62811E+03 -2.50222E+03  6.53984E+03
  4.38879E+02 -1.81811E+03  2.22518E+03  2.03361E+03 -3.63297E+02  2.61888E+03  9.98355E+02  1.23038E+03
  3.24211E+03  2.65113E+03 -4.69023E+03  1.27103E+03 -2.00425E+03  5.58692E+01 -5.29174E+03  1.64724E+02
 -2.38140E+03 -2.55796E+03 -2.20144E+03 -7.96614E+03 -2.65558E+02 -2.83454E+03  7.31567E+03 -2.82443E+03
  2.96089E+03  5.40143E+02  4.24193E+03  6.89584E+03 -5.95217E+03 -1.49542E+03  2.04456E+03  3.26675E+02
  3.69571E+03  4.56801E+03 -3.35314E+03 -1.38565E+02  3.93283E+03  3.09498E+03  3.75124E+03  1.82501E+03
  1.03956E+02 -1.43004E+03 -8.89126E+02  5.42361E+03  1.88426E+03  2.28536E+03  3.08798E+03  1.07242E+03
 -1.31276E+03 -2.90467E+03  3.45002E+03  6.67866E+02 -2.25429E+03  3.41141E+03 -2.31307E+02  2.22660E+03
 -6.95449E+03  1.92635E+03 -4.63301E+03  3.92825E+03 -1.87767E+03 -4.65512E+03 -4.54954E+03  1.29384E+03
 -1.07174E+03  2.35727E+03  5.19238E+03 -2.00567E+03  4.62276E+03  2.45351E+03  7.26405E+02  5.67024E+02
  3.70305E+03 -3.51416E+03 -8.54160E+02 -1.27449E+03 -2.08452E+03 -3.91784E+02  2.62333E+03 -1.38619E+03
  5.47121E+02 -3.35324E+03 -2.20636E+03 -1.01653E+03  1.81695E+03 -1.47350E+03 -2.75495E+02 -4.54080E+02
  1.44295E+03  4.33858E+03 -7.49503E+01  4.22647E+03  1.04326E+03  1.18064E+03  3.89206E+03 -1.59188E+03
  6.31925E+03  4.56434E+01  3.97871E+03 -1.55303E+02  2.52344E+03  1.15190E+03  2.19174E+03  1.72101E+03
 -4.21403E+03 -1.10852E+02  3.18046E+03  9.68547E+02 -6.36513E+02 -2.04746E+03  4.75648E+02 -1.59121E+03
 -7.58922E+02 -4.85556E+03 -4.06773E+03  1.15203E+03  3.59331E+03 -3.29556E+02 -2.27482E+02 -2.39693E+03
  8.07539E+01  2.07940E+03 -2.48607E+02 -4.11649E+03  1.38972E+03 -5.42549E+02 -1.40727E+03  3.60482E+03
 -4.80919E+03  3.12270E+03 -1.37471E+03  1.27215E+03 -1.51008E+03  4.35526E+03 -2.82597E+03  3.53220E+03
 -3.03013E+03  8.73334E+02 -3.01653E+02 -1.93261E+03  2.52626E+03 -5.32084E+03  2.65962E+03 -1.29734E+02
  3.41913E+03  2.88271E+03 -1.20366E+02 -3.47109E+02  9.02418E+02  3.82263E+03  2.47793E+03  2.03773E+03
 -1.06615E+03 -8.88056E+02  5.60662E+02  1.28307E+03 -9.43126E+02  1.14604E+03 -3.04772E+03 -4.70177E+03
 -1.28860E+03  3.75723E+03  4.57875E+02  1.91141E+03 -7.39172E+02 -1.82091E+03  1.30643E+02 -1.00892E+03
  7.37864E+02 -1.43395E+03  1.24150E+03  3.88424E+03  2.96110E+03 -4.79301E+02 -3.66719E+03  3.52110E+03
 -1.02739E+03  3.10303E+03 -2.03041E+03  1.99897E+03 -2.37544E+03  3.54609E+03  3.83508E+02  9.55202E+02
 -4.78455E+03 -4.41616E+03  2.17873E+03 -9.84380E+02 -4.07901E+02 -1.59913E+02  1.81451E+03  1.73097E+03
  1.67804E+03  8.76788E+02  1.99366E+02 -3.00323E+03 -1.56268E+02 -1.78084E+03 -1.39854E+03  4.19425E+03
  3.90133E+03 -4.25459E+03  3.00351E+03  7.52597E+02  2.37072E+03 -4.75399E+02  8.03899E+02 -3.21702E+03
 -1.00720E+03  3.13845E+03  2.44694E+02  1.85995E+03 -1.87596E+03 -1.85693E+03  1.03483E+03 -6.65237E+02
  9.94280E+02  3.11377E+03  2.05526E+03  2.01045E+03  4.91994E+03  2.37317E+03  2.74277E+03  1.03713E+03
 -1.89909E+03  1.53049E+03  6.87148E+02 -3.72757E+02 -2.93854E+03  1.40002E+03 -2.57586E+03 -3.10730E+03
 -4.35129E+03  3.07510E+03 -4.06900E+03 -3.59322E+03 -3.95017E+03  3.55985E+03 -1.41906E+03  1.79985E+03
 -1.92330E+03  5.49418E+03  2.81401E+03 -1.08675E+03 -5.82299E+02 -1.74938E+03  3.58772E+03 -1.35639E+03
 -3.06462E+02  3.27002E+03 -6.05592E+03 -2.14883E+01  2.59875E+03  3.58316E+03  3.08633E+03  3.81881E+03
