 $NMID ID='MM_0lb_SNR50_14hz_g50_50.RAW', FMTDAT='(8E13.5)'
 TRAMP=1., VOLUME=1. $END
  3.10374E+05  1.49472E+03  3.39512E+05  2.52641E+05  8.65685E+04  3.38449E+05 -1.33943E+05  2.50710E+05
 -1.88904E+05  8.17354E+04 -1.10304E+05 -3.13451E+04  3.29917E+03 -4.92032E+04  5.37803E+04  2.45355E+03
  4.23736E+04  4.99097E+04 -1.58237E+04  7.85378E+04 -5.94121E+04  6.33585E+04 -8.55715E+04  2.99055E+04
 -8.57961E+04 -1.58116E+04 -5.60854E+04 -5.26504E+04 -1.41136E+04 -7.26945E+04  2.49398E+04 -4.77221E+04
  3.78590E+04  2.84674E+03  1.72276E+04  4.83460E+04 -3.55094E+04  4.65739E+04 -7.19183E+04  1.32402E+03
 -5.47330E+04 -5.99764E+04 -1.00525E+04 -7.68046E+04  3.76781E+04 -5.54703E+04  4.56320E+04 -1.62309E+04
  4.37117E+04  1.12458E+04  3.04056E+04  2.92523E+04  1.33743E+04  2.61400E+04 -5.14113E+03  2.68955E+04
 -1.96677E+04  1.46738E+04 -1.40250E+04 -7.24745E+03  4.64765E+03 -7.93912E+03  2.57856E+04  1.34919E+04
  5.91490E+03  3.63159E+04 -3.30669E+04  3.16778E+04 -6.19131E+04 -3.82526E+02 -5.86461E+04 -4.25680E+04
 -1.57791E+04 -6.51570E+04  3.69923E+04 -4.45488E+04  5.86771E+04  2.11584E+03  3.41325E+04  2.94070E+04
 -1.04525E+04  3.78443E+04 -2.78599E+04  1.59590E+04 -2.84582E+04 -6.76241E+03 -1.76581E+04 -7.91884E+03
 -6.07046E+03 -1.32411E+04 -6.23931E+02 -2.09262E+04  3.53030E+02 -2.27475E+04  1.30938E+04 -1.31034E+04
  7.57941E+03  7.76721E+03 -9.44518E+03  1.24614E+04 -2.25534E+04 -4.14787E+03 -1.02298E+04 -3.28791E+04
  2.29168E+04 -4.61215E+04  4.91662E+04 -1.88262E+04  4.64345E+04  2.06679E+04  2.05015E+04  4.30215E+04
 -1.21116E+04  3.70544E+04 -2.54921E+04 -2.08745E+03 -1.29733E+04 -2.57614E+04  1.92716E+04 -3.62352E+04
  4.32178E+04 -7.64885E+03  3.64580E+04  2.26037E+04  1.70684E+04  5.03189E+04 -3.03082E+03  5.36142E+04
 -2.90981E+04  3.20454E+04 -3.83277E+04  7.76957E+03 -4.35271E+04 -1.61306E+04 -2.14532E+04 -3.82416E+04
  6.82213E+03 -3.92007E+04  2.75170E+04 -1.88672E+04  3.10173E+04  8.09587E+03  3.03090E+03  2.09790E+04
 -1.38590E+04  8.52789E+03 -1.04973E+04 -8.39625E+03  7.87168E+03 -8.99884E+03  1.77863E+04  3.66098E+03
  1.42798E+04  2.22780E+04 -4.40597E+03  2.29317E+04 -1.96523E+04  1.19579E+04 -2.95519E+04 -2.73183E+02
 -2.04220E+04 -1.82960E+04 -8.53147E+03 -1.62481E+04  5.48851E+03 -1.78372E+04  1.41043E+04 -1.89508E+04
  2.75469E+04 -1.20151E+04  2.99662E+04  5.02268E+03  2.65098E+04  1.69160E+04  5.52616E+03  3.60126E+04
 -1.60835E+04  3.34888E+04 -2.63146E+04  1.20962E+04 -2.26386E+04 -1.27424E+04 -9.88483E+03 -9.78256E+03
  8.24337E+02  2.20389E+02 -9.33696E+03  8.93562E+03 -1.58825E+04  5.21538E+03 -1.71155E+04 -8.32321E+03
 -7.88954E+03 -2.07594E+04  1.02939E+04 -1.86014E+04  1.44248E+04 -1.44539E+04  1.88710E+04 -5.23204E+02
  1.29396E+04  9.93668E+03 -4.02190E+03  1.95133E+04 -1.24673E+04  9.10513E+03 -1.49044E+04 -7.28521E+03
 -1.54481E+04 -2.10479E+04 -3.34573E+03 -2.03155E+04  1.09782E+04 -2.04114E+04  2.52461E+04 -1.31936E+04
  2.19105E+04 -1.77177E+03  1.19891E+04  6.89177E+03  8.24634E+03 -2.42710E+03  1.11193E+04  3.83951E+03
  1.78731E+04  1.76700E+03  2.17753E+04  1.59718E+04  1.67634E+04  3.07541E+04 -1.91116E+02  3.55764E+04
 -2.00876E+04  2.42672E+04 -3.51676E+04  9.60219E+03 -3.51607E+04 -1.00671E+04 -2.81332E+04 -1.58927E+04
 -1.30926E+04 -3.05208E+04  1.26330E+04 -2.68793E+04  2.03703E+04 -1.46824E+04  2.33609E+04  5.43194E+03
  4.63887E+03  1.39877E+04 -8.65749E+03  1.65980E+04 -1.46484E+04  9.15483E+02 -1.16706E+04 -7.13875E+03
  1.62036E+03 -1.55452E+04  8.94853E+03 -8.94293E+03  6.68728E+03 -1.55882E+02  1.23176E+03  1.00855E+04
 -4.17433E+03  2.28135E+03 -6.67667E+03 -5.96109E+03 -2.64464E+03 -1.58662E+04  6.89599E+03 -1.48748E+04
  1.76180E+04 -8.80172E+03  1.36698E+04 -1.35189E+03  1.56580E+04  1.16767E+04  4.89547E+03  1.83934E+04
 -1.93374E+03  1.91761E+04 -1.65881E+04  1.40990E+04 -1.64245E+04  7.50538E+03 -5.01372E+03 -6.91567E+03
 -1.20848E+04 -4.09431E+03  7.69326E+02  1.53826E+03 -1.67615E+03  3.91108E+03 -8.46524E+03  6.20241E+03
 -6.29239E+03 -5.82724E+02 -2.01095E+04 -1.21782E+04 -6.00942E+03 -1.51817E+04  1.82249E+04 -1.37176E+04
  9.35288E+03  4.63187E+02  5.81536E+03  4.32689E+03 -2.50859E+03  6.38666E+03 -5.72234E+02  1.15032E+03
 -4.17498E+03 -5.81351E+03 -1.28112E+03 -5.14112E+03  7.47951E+03 -1.12775E+04  1.45105E+04 -6.43254E+03
  1.84145E+04  1.75872E+03  1.48027E+04  6.01484E+03  4.77214E+03  1.39267E+04 -6.43183E+03  9.99785E+03
 -1.21326E+04  4.13796E+03 -3.29482E+03 -1.60772E+03  2.00830E+03  2.58850E+03  8.07688E+03  5.03715E+03
  6.93432E+03  6.32368E+03 -1.71552E+03  9.62782E+03 -5.69715E+03  9.16342E+03 -9.63258E+03  6.13489E+03
 -4.95018E+03 -9.22097E+03 -1.50087E+03 -6.71462E+03  7.10072E+03 -6.54931E+03  4.72354E+03  2.62049E+03
 -3.29204E+02  1.02825E+04 -3.21387E+03  3.45511E+03 -7.88728E+03  3.95508E+03 -1.03399E+04 -2.89969E+03
 -2.79707E+03 -4.09370E+03  4.10979E+03 -1.10490E+04  6.70193E+03 -7.01598E+03  1.52207E+04  5.36790E+03
  9.09270E+03  2.64611E+03 -2.27588E+01  1.03581E+04 -7.89911E+03  6.46860E+03 -8.20022E+03 -4.53778E+03
 -7.22494E+03 -6.42924E+03  5.10016E+03 -7.78803E+03  5.01823E+03 -7.68946E+03  2.83959E+03 -5.54046E+03
  3.20801E+03 -8.42912E+02 -2.04577E+03  3.59033E+03  4.55143E+03 -1.11747E+03  4.14417E+03 -1.93868E+03
  2.32149E+03  2.54050E+03  1.24492E+04  4.18328E+03  7.54961E+03  2.58897E+03  5.12143E+03  1.57441E+04
  2.42529E+02  1.66484E+04 -1.30299E+04  1.43511E+04 -1.70315E+04  6.06557E+03 -1.54161E+04 -5.10270E+03
 -5.46510E+03 -9.91121E+03 -2.26045E+03 -6.57370E+03  4.07752E+03 -6.63324E+03 -1.43102E+03 -4.89091E+03
 -3.67885E+03 -6.42957E+03 -2.52206E+03 -5.60485E+03  7.00939E+03 -1.48150E+03  4.26736E+03  1.05341E+03
  8.88085E+03  1.54097E+03  4.20321E+02  3.84864E+03  1.51949E+03  5.96543E+03 -1.14920E+04  5.14261E+03
 -8.82559E+03  5.39844E+03 -9.50586E+03 -4.49393E+03 -6.32046E+03 -6.89075E+03  3.79837E+03 -5.86298E+03
  1.46026E+04 -8.88195E+03  8.32170E+03 -3.22150E+03  6.70978E+03  1.18483E+04  4.16085E+03  8.54468E+03
 -1.91202E+03  1.16959E+04 -1.07328E+04 -7.75283E+02 -1.09665E+03 -2.73449E+03 -6.28113E+03 -6.08814E+03
 -1.70642E+03 -1.19369E+02  6.99091E+02 -2.25929E+03 -5.32564E+03  1.12734E+03 -3.72015E+03 -2.51740E+02
 -7.08286E+03 -7.85255E+03 -5.22407E+03 -1.04080E+04  3.62779E+03 -4.93065E+03  4.63838E+03 -5.85605E+03
  8.98138E+03  3.57084E+03  5.64826E+03  6.33261E+03 -8.43458E+02  1.03357E+04 -5.35191E+03  2.76780E+03
 -8.80224E+03  5.45092E+03 -4.72557E+03 -2.33038E+03 -2.86889E+03 -1.13446E+04  6.46556E+03 -8.91205E+03
  8.82350E+03  1.74205E+03  3.57714E+03 -1.85825E+03  1.69294E+03  6.99841E+03  5.30602E+03  1.65398E+03
  6.34433E+02  8.91092E+02  3.15211E+03 -7.73292E+02  3.83667E+02  1.91661E+03 -1.58504E+02  7.20060E+03
 -1.85098E+02  2.74091E+03 -5.75722E+01  7.26600E+03 -1.03462E+04  5.40377E+03 -8.81969E+03 -3.30026E+03
 -5.28825E+03 -1.34368E+04  2.90025E+03 -6.92798E+03  7.54773E+03 -7.62592E+03  5.64873E+03  1.34453E+03
  4.95281E+02  2.94517E+03  6.45045E+03 -4.34180E+02 -4.94577E+03  8.82003E+03 -2.08153E+03 -8.12684E+02
 -2.01833E+03 -9.87409E+02  6.31062E+03  1.83757E+02  4.01718E+03  3.79268E+03  4.62818E+03  4.45627E+03
  6.28169E+02 -1.83998E+03 -1.40680E+02  1.96849E+03 -1.55314E+03  5.62437E+03  1.65349E+03 -3.92857E+03
  4.39622E+03 -1.75530E+03  5.27829E+03  1.10807E+00 -3.17017E+03  3.63629E+03  3.02994E+02  6.20313E+03
 -6.31704E+03  3.34603E+03 -3.94466E+03 -3.41767E+03 -4.49134E+03 -2.25364E+03 -2.71078E+03 -4.46690E+03
  3.44134E+03 -2.64399E+03  5.74955E+03  1.57949E+03  1.92953E+03  4.22123E+03 -6.10488E+02  2.81981E+03
 -1.22232E+03 -6.42116E+02 -7.29633E+02 -2.09446E+03 -2.86018E+03 -3.58826E+03  3.71299E+03 -1.43172E+03
  1.32881E+03  1.39012E+03 -2.10976E+03 -2.16442E+03  4.02746E+03  4.37242E+02 -2.64505E+03  2.03089E+02
 -1.90393E+02  2.98585E+03 -7.25851E+03 -4.98890E+03  7.08253E+02  8.25469E+02  4.25435E+03 -2.24688E+03
 -2.84459E+03  3.37277E+03  5.28059E+03  1.77488E+03  4.32852E+03  3.83559E+03 -1.60935E+03  5.94177E+03
 -2.67917E+03 -1.46824E+03 -5.78269E+03  2.51448E+03 -2.30372E+02 -5.00134E+03  7.14169E+03 -2.04077E+03
  7.36825E+03 -8.03664E+03  4.11586E+03 -2.68426E+03 -2.25704E+03  2.26415E+02  1.91051E+03  2.26513E+03
 -1.74851E+03  5.15399E+03 -9.97204E+01  2.69298E+03 -1.53937E+03 -6.48486E+03 -7.94038E+02  2.17844E+03
  2.41153E+03  4.55238E+02 -6.17539E+02  2.60706E+03 -5.57842E+03  6.64404E+02 -8.13423E+03 -5.94444E+03
 -3.18300E+03 -2.69962E+03 -8.85097E+01 -5.20895E+03  6.29608E+03 -4.66528E+03  6.65683E+03 -2.25971E+03
  4.91354E+03  2.63987E+02  1.52329E+03  2.75599E+03 -5.16054E+02  5.99110E+03 -2.53647E+03 -1.62845E+02
 -5.60629E+03  5.29062E+03 -5.68592E+02  4.80810E+03  5.25594E+03 -3.58961E+02 -5.92694E+03  2.33333E+03
  8.33787E+01 -1.84764E+03 -1.52495E+03  7.34747E+02  2.18519E+03 -7.72572E+03 -4.36152E+03 -1.80656E+03
 -1.90027E+03 -1.93407E+03  2.49724E+03 -3.51842E+03  2.74705E+03  1.40871E+03  7.63188E+03  8.26559E+03
  5.83037E+02  1.07343E+04 -3.13346E+03 -4.96173E+02 -6.44039E+03 -5.28455E+03 -2.71159E+03 -3.59635E+03
 -6.28211E+03 -2.96013E+03 -4.90060E+03 -3.53460E+03 -3.25496E+02 -5.96147E+03  1.76102E+03 -6.34016E+02
 -5.32617E+03 -5.70205E+03 -4.36726E+03  3.09809E+03 -1.63671E+03 -4.89807E+03 -3.61922E+03 -1.37329E+03
 -2.31080E+03  2.98800E+02 -3.04415E+03  1.50609E+03  3.17003E+03  3.41558E+02  2.84885E+03  3.53818E+03
 -1.06257E+03  1.29205E+02 -3.94656E+03 -3.88418E+02 -8.43960E+03 -2.35416E+03 -7.03803E+01 -5.50317E+03
 -7.98592E+02 -4.95908E+03  5.93511E+03 -3.62307E+03 -1.12685E+03  1.85886E+03  1.76497E+03  3.06144E+03
 -1.29769E+03  9.85052E+02 -3.09261E+03  1.36309E+03  1.94084E+03  1.63950E+03  1.42893E+03 -6.07217E+01
  7.17884E+01  6.36108E+02 -7.49707E+02 -7.60830E+03  1.43011E+03 -1.90398E+03 -3.23024E+03  9.21696E+02
 -9.06035E+02  2.70589E+03 -2.27885E+02 -5.46329E+03  5.22841E+03 -3.82624E+03 -3.42569E+03 -3.05098E+03
  2.75657E+02  2.89506E+03 -4.67724E+03  6.83291E+03  3.02455E+03 -6.24076E+02  1.76237E+03  3.19305E+03
