 $NMID ID='MM_0lb_SNR50_19hz_g55_98.RAW', FMTDAT='(8E13.5)'
 TRAMP=1., VOLUME=1. $END
  3.12421E+05  1.92992E+03  3.36255E+05  2.51224E+05  8.29048E+04  3.36917E+05 -1.34196E+05  2.51550E+05
 -1.86908E+05  8.27616E+04 -1.13782E+05 -3.33902E+04  5.90225E+03 -4.53125E+04  5.63434E+04 -1.44970E+03
  3.38231E+04  5.36912E+04 -1.67640E+04  7.53380E+04 -6.17621E+04  6.35759E+04 -7.83365E+04  3.26534E+04
 -7.91784E+04 -9.24101E+03 -5.58070E+04 -5.54617E+04 -1.32027E+04 -6.26166E+04  2.30202E+04 -4.10739E+04
  4.42919E+04  2.40096E+03  1.99659E+04  4.45849E+04 -3.53372E+04  4.74693E+04 -6.63240E+04 -4.04988E+03
 -5.08371E+04 -5.91760E+04 -8.12028E+03 -7.29727E+04  3.48340E+04 -5.42653E+04  4.87936E+04 -1.55393E+04
  4.41546E+04  1.61489E+04  2.86734E+04  2.82027E+04  1.32568E+04  2.71864E+04 -6.23902E+03  2.87279E+04
 -2.13533E+04  1.78495E+04 -1.79484E+04 -8.01485E+03  7.92567E+03 -8.42569E+03  2.31658E+04  1.07192E+04
  9.46233E+03  3.28342E+04 -3.20638E+04  3.77399E+04 -6.02726E+04  5.92002E+02 -5.70903E+04 -3.78017E+04
 -1.25949E+04 -6.32923E+04  3.22764E+04 -4.55027E+04  5.81829E+04 -1.98916E+03  2.78534E+04  3.08966E+04
 -5.11770E+03  3.34685E+04 -3.01135E+04  1.39545E+04 -2.51882E+04 -1.94948E+03 -1.36300E+04 -1.00626E+04
 -9.48239E+03 -1.32145E+04 -6.09711E+03 -1.40563E+04  7.07595E+03 -2.68909E+04  1.88319E+04 -1.50943E+04
  1.12421E+04  6.01421E+03 -8.09716E+03  1.49085E+04 -2.35331E+04 -1.95985E+03 -9.61758E+03 -3.17356E+04
  1.82885E+04 -4.53562E+04  4.12700E+04 -2.25618E+04  4.84172E+04  1.79054E+04  1.19736E+04  4.00896E+04
 -1.57107E+04  3.30464E+04 -2.16442E+04 -3.05349E+03 -7.01928E+03 -2.92339E+04  2.10353E+04 -3.29523E+04
  4.02459E+04 -1.06503E+04  2.96957E+04  2.20450E+04  1.62920E+04  4.12128E+04 -9.32410E+03  4.69224E+04
 -2.95747E+04  3.11294E+04 -4.13580E+04  8.62668E+03 -3.78236E+04 -1.62001E+04 -2.24779E+04 -3.57077E+04
  6.06193E+03 -3.60755E+04  3.05322E+04 -1.51744E+04  2.63564E+04  1.16882E+04  2.90081E+03  2.26124E+04
 -1.17296E+04  7.48570E+03 -1.15229E+04 -4.97848E+03  8.38992E+03 -1.08235E+04  1.66710E+04  6.01924E+03
  1.37856E+04  1.86960E+04 -5.88654E+03  2.97881E+04 -1.99607E+04  1.50383E+04 -2.50733E+04 -7.20823E+03
 -1.62599E+04 -1.27462E+04 -5.45860E+03 -1.96932E+04  5.91939E+03 -1.37010E+04  1.62412E+04 -1.82789E+04
  1.89228E+04 -1.39540E+04  2.77057E+04 -3.92533E+03  2.09377E+04  1.62562E+04  8.44245E+03  3.07342E+04
 -1.60389E+04  3.02134E+04 -2.84830E+04  5.98360E+03 -1.98141E+04 -9.19206E+03 -7.53421E+02 -1.40538E+04
  2.63193E+03 -5.95569E+03 -3.89165E+03  8.60989E+03 -1.14448E+04  4.93498E+03 -1.63781E+04 -4.39507E+03
 -1.11637E+04 -1.62000E+04  2.58521E+03 -1.87275E+04  1.14082E+04 -9.75074E+03  1.62391E+04 -1.18616E+03
  7.45535E+03  6.56508E+03 -4.46754E+03  1.58238E+04 -1.33489E+04  1.06653E+04 -1.83971E+04 -1.09054E+03
 -1.41242E+04 -1.72846E+04 -1.86803E+03 -1.83698E+04  7.49706E+03 -1.76650E+04  1.66239E+04 -9.51026E+03
  1.48962E+04 -3.18712E+03  1.16310E+04  4.16272E+03  1.85110E+03 -3.56053E+03  1.24412E+04  1.74873E+03
  1.51833E+04 -6.87186E+02  1.66919E+04  1.34208E+04  7.13983E+03  2.17165E+04 -4.02399E+03  2.85628E+04
 -1.62868E+04  2.14311E+04 -2.54190E+04  8.05952E+03 -2.42310E+04 -4.36579E+03 -2.33143E+04 -1.54146E+04
 -8.82307E+03 -2.27768E+04  7.76113E+03 -1.85384E+04  1.50231E+04 -1.13996E+04  1.87584E+04  2.34543E+03
  1.51250E+04  8.47685E+03 -5.98777E+03  1.39041E+04 -1.11530E+04  2.63227E+03 -8.37447E+03 -8.47759E+03
 -4.08073E+03 -1.12812E+04  3.06802E+03 -1.07780E+04  7.09516E+03 -5.84615E+03  1.65865E+03  6.82186E+03
 -3.03271E+03  8.88916E+02 -6.50262E+03 -6.64238E+03  1.35180E+03 -1.28793E+04  3.50917E+03 -9.96453E+03
  1.21388E+04 -3.37097E+03  1.06141E+04  2.52515E+03  1.27064E+04  1.40413E+04  2.05648E+03  1.35178E+04
 -2.20731E+03  1.53767E+04 -1.03055E+04  1.11503E+04 -9.36268E+03  4.18316E+03 -1.24387E+04 -3.23578E+03
 -6.67362E+03 -5.87111E+03 -3.17817E+03  2.61913E+03  5.60174E+02  4.65284E+02 -2.24765E+03  3.39282E+03
 -9.79815E+03  2.32084E+02 -5.11795E+03 -8.58687E+03 -5.82482E+03 -1.56994E+04  4.24601E+03 -1.19658E+04
  3.51402E+03 -4.00846E+03  9.28282E+03  2.08982E+03  1.55699E+03  4.60061E+03 -3.23540E+03 -3.18461E+03
 -2.69995E+03 -8.44918E+03  1.51619E+03 -7.94354E+03  2.86698E+03 -8.50795E+03  1.07536E+04 -2.19117E+03
  1.02802E+04  1.05615E+03  7.72470E+03  5.58663E+03  1.99576E+03  6.10894E+03 -2.85775E+03  1.04631E+04
 -6.04241E+03 -7.30779E+02 -2.62056E+03  1.26215E+03  9.07868E+02 -3.10240E+03  5.09324E+03  1.96999E+03
  2.63563E+03  4.23880E+03  1.45146E+03  4.23644E+03 -6.86444E+03  1.26481E+03 -3.67666E+03  3.64127E+03
 -5.11339E+03 -4.28483E+03  5.23069E+03 -1.00124E+04  4.45325E+03 -5.00267E+03  4.24777E+03 -4.15544E+02
  2.61653E+03  1.84120E+03 -3.64907E+03  4.20590E+03 -4.78336E+03  5.61662E+02 -2.56305E+03  3.35660E+03
 -1.82167E+03 -3.63686E+03 -4.46006E+02 -5.29089E+03  2.60095E+03 -4.92097E+03  7.99445E+03  2.36023E+02
  2.07467E+03  4.05780E+03 -7.57881E+02  8.06223E+03 -7.12014E+03  5.37557E+03 -4.57006E+03  7.79374E+02
 -3.37067E+03 -8.91298E+03 -6.68184E+02 -9.25621E+03  7.28854E+03 -5.22241E+03  7.03906E+03 -3.47913E+03
  4.28293E+02  7.19858E+03 -1.72041E+03  2.45618E+03  8.71383E+02 -1.83338E+03 -1.92406E+03 -3.05456E+03
  3.32376E+02 -6.58556E+02  5.10873E+03  1.47226E+03  5.34293E+03  1.05755E+03  4.96041E+03  8.23349E+03
  1.22641E+03  3.89187E+03 -1.14336E+04  4.12094E+03 -9.72827E+03  1.33221E+03 -5.57735E+03 -4.77111E+03
 -8.15402E+03 -2.27845E+03  1.67548E+03 -3.98773E+03  6.07398E+03  7.30727E+02  2.61560E+03 -4.50632E+03
 -3.19003E+02 -8.56804E+02  3.94321E+03  1.12814E+03  3.96807E+02 -3.37511E+03  4.95650E+03 -6.12831E-01
  6.62695E+03 -3.16093E+03 -6.50769E+02  1.14432E+03  2.44695E+03  1.47514E+03 -8.05853E+03  5.55960E+03
 -4.16548E+03  1.14369E+03 -3.42422E+03 -1.87916E+02 -2.12384E+03 -8.48277E+03  5.20317E+03 -6.51844E+03
  2.03428E+03 -3.58596E+03  9.40224E+03 -1.30703E+03  9.01904E+03  2.85589E+03  5.01868E+03  1.86201E+03
 -4.15067E+03  6.09508E+03 -6.02859E+03  1.20602E+03 -4.06324E+02 -2.24606E+03 -1.45961E+03 -3.14691E+03
 -2.80191E+03 -2.61259E+02 -1.30554E+03  3.40262E+03  6.74789E+02  1.36375E+03 -3.51846E+03  1.44670E+03
 -4.10488E+03 -1.28530E+03 -5.04956E+03 -4.40418E+03 -2.81470E+01 -1.18422E+00  4.56225E+03 -3.73572E+03
  2.82828E+03  5.97674E+02  7.00729E+03  3.79673E+03  4.59282E+02  5.88040E+03 -5.61539E+03  3.81708E+03
 -9.02523E+03  1.98184E+03 -2.06502E+03 -5.40960E+03  4.66860E+02 -3.41924E+03  3.35940E+03 -1.52956E+03
  1.59555E+03 -5.52804E+03  3.04632E+03  2.19289E+03  3.32745E+03 -2.20854E+02 -6.62573E+02  3.06058E+03
  4.90532E+03 -3.32935E+02  4.62932E+03  5.02142E+02  2.55379E+03  3.83064E+03  1.05186E+03  8.80061E+03
 -2.25798E+03  5.28074E+03 -4.01082E+03  5.43602E+03 -7.18179E+02  1.01635E+03 -3.55833E+03 -2.30374E+03
 -3.01990E+03 -5.39312E+03 -2.03640E+03  4.75827E+02 -2.28077E+02  2.98481E+02  4.09255E+03 -5.51831E+03
  8.12527E+02 -5.51732E+01 -7.27599E+02  1.27689E+03 -1.14704E+03  3.42028E+03  1.88478E+03 -3.04357E+02
 -3.72903E+03 -7.38013E+03  2.52258E+03 -3.92061E+03  1.88792E+03 -3.32853E+03 -5.01164E+02  4.78137E+01
  5.95811E+03 -7.11239E+02  6.01076E+03 -1.42849E+03 -6.52296E+03  2.12675E+03 -2.49253E+03  5.71564E+03
  1.09087E+03 -5.50599E+02  1.96080E+03 -7.61168E+02 -1.29627E+03  1.62536E+03 -2.21011E+02  3.22840E+03
  4.16217E+02 -2.66620E+03 -7.29102E+02  1.25280E+03  3.45951E+02  1.06120E+02 -2.51526E+03 -1.69436E+03
 -4.61684E+02  3.78984E+03  2.74910E+03  1.11971E+03  3.71951E+03  3.67338E+03  2.32118E+03 -2.07538E+03
 -2.37033E+03  1.57680E+03 -6.88904E+01  2.42746E+03  1.36960E+03 -2.11570E+03  1.52258E+03  2.76119E+02
  3.31049E+03  4.73469E+03 -3.07796E+03 -7.78911E+02  4.42267E+03  6.91709E+02 -2.87388E+02  1.59348E+03
 -1.49124E+03  2.80952E+03 -4.74365E+02  2.20345E+03  1.32108E+03  7.74084E+02  3.67129E+03  1.43093E+03
  1.19962E+03  1.46376E+03  1.33265E+03 -3.13051E+02 -5.07395E+03  2.75804E+03  3.36564E+03  3.10298E+02
 -1.17376E+02  9.23790E+02 -4.61592E+03  1.74976E+03 -1.56773E+01 -1.21192E+03  1.12146E+03 -5.07520E+03
  2.40271E+03  1.54704E+01  3.45858E+03 -1.01012E+01  4.02051E+03  1.62464E+03 -2.34774E+03  1.60979E+03
  9.71576E+02  8.04024E+02 -2.94628E+03  2.15395E+02 -3.15667E+02  8.08885E+02  9.30360E+02 -1.49115E+03
 -2.36220E+03 -1.12105E+03 -1.44546E+03  9.04750E+02  9.81959E+01  2.08791E+03 -9.01193E+02  6.94726E+02
 -1.89949E+02 -2.30568E+03  2.37285E+03  6.43614E+02 -9.00057E+01  3.77023E+02  4.14501E+01  1.68766E+02
  3.86008E+03  8.54280E+02 -2.28194E+03  3.44223E+03 -5.10284E+02  3.84973E+03 -5.23470E+03  1.12576E+03
 -2.98057E+03  3.98703E+03 -3.32444E+03  3.95458E+02  7.91423E+02  5.17620E+03 -1.79308E+03 -5.86167E+02
 -1.66605E+03  8.87339E+02  6.93827E+02 -1.67776E+03  1.35381E+02 -1.99958E+03 -1.39824E+03 -8.66768E+02
  2.29189E+02 -2.74893E+03 -2.89043E+03 -3.35880E+03 -2.95795E+03  2.21656E+03  7.59395E+02  1.29885E+03
 -1.94663E+03  2.69427E+03 -2.00756E+03  1.61889E+03 -2.17165E+03 -2.31265E+03 -1.80957E+03 -2.87409E+03
  4.56087E+02 -3.66341E+03  3.41322E+03  1.37513E+03  3.01582E+03 -6.36139E+02 -3.48018E+03  8.27711E+02
  9.81663E+02 -1.02538E+03 -1.16876E+03 -1.20459E+03 -1.98099E+03  1.30877E+03  1.11554E+03  6.20714E+02
 -2.41791E+03 -1.44141E+03 -1.35704E+03  2.05243E+03 -2.31158E+03  3.66263E+03  1.06312E+03  9.16959E+02
 -4.49921E+02 -1.29651E+02  3.07346E+03  3.21861E+03  9.89551E+02  6.61569E+02  8.20642E+01 -5.77820E+02
 -2.69209E+02 -2.02315E+03 -1.94305E+03 -8.16542E+02  1.27678E+03 -3.42865E+02 -1.11929E+03 -4.87582E+02
 -2.32453E+03  1.18962E+02 -1.61706E+02 -1.48559E+03 -1.90037E+03  3.39486E+01  9.32794E+02  3.17890E+03
 -3.79045E+03 -3.44449E+03  8.02778E+02 -1.36791E+02 -1.39570E+02  1.66576E+03 -9.33366E+02 -2.55981E+03
  2.55664E+03 -2.09032E+03  9.98704E+01  1.53461E+03 -1.08489E+03  1.31943E+02  2.67169E+03  2.45037E+03
  1.13737E+02  6.11797E+02 -2.89147E+03 -1.58444E+03 -2.91603E+03  7.26011E+02  1.48470E+03 -1.53563E+03
