 $NMID ID='MM_0lb_SNR50_16hz_g55_97.RAW', FMTDAT='(8E13.5)'
 TRAMP=1., VOLUME=1. $END
  3.05519E+05  1.22571E+02  3.35909E+05  2.45942E+05  8.11920E+04  3.35672E+05 -1.31061E+05  2.53998E+05
 -1.88991E+05  7.64166E+04 -1.11816E+05 -3.37100E+04  2.99832E+02 -5.08773E+04  5.22201E+04 -6.05655E+01
  3.19421E+04  5.54866E+04 -1.33289E+04  7.68809E+04 -5.95134E+04  6.04862E+04 -8.50764E+04  3.22015E+04
 -7.94152E+04 -1.31636E+04 -5.14487E+04 -5.03534E+04 -2.21793E+04 -6.89871E+04  2.39636E+04 -4.49220E+04
  4.08614E+04  1.95232E+03  1.75229E+04  4.50395E+04 -3.30049E+04  4.76790E+04 -6.74325E+04  3.76699E+02
 -5.44624E+04 -5.89001E+04 -9.26881E+03 -7.39793E+04  3.38669E+04 -5.57153E+04  4.86146E+04 -1.69516E+04
  4.79170E+04  1.41352E+04  3.07948E+04  2.91341E+04  2.06541E+04  2.86097E+04 -8.84514E+03  2.31586E+04
 -1.65297E+04  9.17595E+03 -1.91826E+04 -9.35373E+03  3.40210E+03 -4.12131E+03  1.85629E+04  1.37445E+04
  7.20729E+03  3.24032E+04 -3.15949E+04  3.75806E+04 -6.46154E+04  2.46712E+03 -5.13529E+04 -4.36479E+04
 -1.31301E+04 -6.54522E+04  4.04630E+04 -4.57209E+04  5.86199E+04 -8.37440E+03  2.99754E+04  3.01331E+04
 -5.05250E+03  3.56444E+04 -2.87954E+04  1.41311E+04 -2.95748E+04 -9.93700E+03 -2.16905E+04 -1.13128E+04
 -1.09882E+04 -1.52001E+04 -2.59261E+03 -2.01199E+04  5.54281E+03 -1.88671E+04  1.40556E+04 -1.33395E+04
  1.39467E+04  1.12452E+03 -7.96904E+03  1.37161E+04 -1.71250E+04 -2.59186E+03 -4.85945E+03 -3.30868E+04
  2.25028E+04 -3.76512E+04  4.90340E+04 -1.99619E+04  4.16847E+04  1.82955E+04  1.57803E+04  4.44363E+04
 -1.78361E+04  3.41155E+04 -2.43312E+04  4.67644E+03 -7.98082E+03 -2.44396E+04  2.24834E+04 -3.98153E+04
  3.89028E+04 -1.04644E+04  3.54466E+04  2.73109E+04  1.58876E+04  4.71145E+04 -1.06709E+04  4.90118E+04
 -3.52180E+04  3.41125E+04 -4.18856E+04  1.14911E+04 -4.67278E+04 -1.60394E+04 -2.29594E+04 -3.60564E+04
  8.03737E+03 -3.88799E+04  3.08996E+04 -1.21937E+04  2.79404E+04  1.06586E+04  8.86084E+03  2.16860E+04
 -1.36289E+04  1.42978E+04 -1.22276E+04 -1.09461E+04  2.75955E+03 -1.07077E+04  1.53425E+04  9.53367E+03
  1.28810E+04  2.27039E+04 -5.62121E+03  2.57919E+04 -1.83962E+04  1.07900E+04 -2.95966E+04 -6.87702E+03
 -1.85693E+04 -1.80882E+04 -6.67039E+03 -2.07462E+04  5.93368E+03 -1.91268E+04  1.29857E+04 -1.50789E+04
  2.47957E+04 -8.09095E+03  3.41420E+04 -2.22147E+03  2.36334E+04  2.16521E+04  4.03046E+03  3.69288E+04
 -1.85731E+04  2.49509E+04 -2.59076E+04  1.04527E+04 -2.14334E+04 -9.42517E+03 -5.38633E+03 -1.34080E+04
  3.80665E+03 -3.57798E+03 -3.46653E+03  3.52223E+03 -1.53087E+04  4.55700E+03 -1.04949E+04 -2.53676E+03
 -1.32857E+04 -1.90290E+04  5.17452E+03 -2.24970E+04  1.57007E+04 -1.74381E+04  1.67004E+04 -1.51782E+03
  8.27816E+03  1.42244E+04 -2.06733E+03  1.80041E+04 -1.25692E+04  1.09579E+04 -1.73971E+04 -5.42981E+03
 -1.64626E+04 -1.79325E+04  1.32354E+02 -2.25655E+04  8.76240E+03 -1.74217E+04  1.87261E+04 -6.24530E+03
  1.74022E+04  1.94984E+03  9.15212E+03  3.86446E+03  9.53871E+03 -1.44000E+03  1.03851E+04 -4.22698E+03
  1.92295E+04  1.98306E+03  1.58178E+04  1.96627E+04  1.26710E+04  2.69163E+04 -1.29636E+03  3.64338E+04
 -2.48038E+04  2.28272E+04 -2.99619E+04  1.23453E+04 -3.32431E+04 -5.24712E+03 -2.43972E+04 -1.94084E+04
 -1.68196E+04 -2.71879E+04  1.15340E+04 -2.57347E+04  2.29769E+04 -1.66386E+04  2.14918E+04  4.83024E+03
  1.04222E+04  1.39490E+04 -9.15660E+03  1.30057E+04 -1.50786E+04 -2.29266E+03 -1.31535E+04 -9.28439E+03
 -6.24799E+02 -1.03384E+04  3.31816E+03 -6.63608E+03  1.38382E+04 -2.46828E+03 -8.30368E+02  3.03026E+03
 -1.22491E+04  3.13314E+03 -5.35315E+03 -9.05778E+02  1.36084E+02 -1.09384E+04  6.23692E+03 -1.18825E+04
  1.52041E+04 -5.22328E+03  1.77825E+04  8.81323E+03  1.25050E+04  1.47614E+04  9.91202E+03  1.76431E+04
 -8.08589E+03  2.33158E+04 -1.04889E+04  1.46796E+04 -1.46134E+04 -2.12900E+02 -7.26265E+03 -8.58222E+03
 -4.26440E+03 -1.57012E+03 -6.99157E+02 -2.99495E+03  3.17230E+03  4.10354E+03 -4.49625E+03  4.52658E+03
 -1.01984E+04 -2.13269E+03 -8.97872E+03 -1.16029E+04 -3.74984E+03 -8.53537E+03  5.00305E+03 -6.94756E+03
  9.71250E+03 -2.15519E+03  9.50508E+03  2.58186E+03  5.20205E+03  2.88018E+03 -2.40902E+03 -2.28175E+03
 -7.12833E+03 -7.10553E+03 -2.35101E+03 -1.10950E+04  7.07912E+03 -3.99965E+03  1.14407E+04 -2.39298E+03
  1.57808E+04 -2.29737E+02  1.01664E+04  5.87764E+03 -2.83743E+02  1.36370E+04 -6.55430E+03  9.93864E+03
 -1.33334E+04  9.00360E+03 -6.72512E+03 -2.49401E+03  3.35545E+03 -4.99725E+03  1.98025E+03 -3.41020E+03
  8.63311E+03  9.97019E+03  4.17165E+03  3.66581E+03 -8.70389E+03  6.84409E+03 -1.36067E+04  1.15806E+03
  6.83878E+02 -4.73524E+03  2.00771E+03 -5.25015E+03  2.69918E+03 -4.29340E+03  3.97050E+02  2.74453E+03
 -9.32203E+01  6.16345E+03 -2.26559E+03  1.05445E+04 -9.70161E+03  2.11543E+03 -8.80373E+03 -3.56173E+03
 -5.94078E+03 -1.63884E+04  3.95766E+03 -7.58863E+03  7.94271E+03 -4.49712E+03  7.74002E+03 -1.69377E+03
  6.74731E+03  5.03921E+03 -5.05004E+02  6.20144E+03 -6.67030E+03  7.35842E+03 -7.66684E+03 -1.59806E+03
 -7.94691E+03 -3.00977E+03 -2.29723E+03 -7.04322E+03  6.26121E+02 -1.05175E+04  4.51863E+03 -1.64906E+03
  6.10579E+03 -1.76691E+03  4.04022E+03 -1.89487E+03 -1.63080E+03 -9.71987E+02  3.32995E+03  1.66746E+03
  6.15062E+03 -3.12883E+03  3.74972E+03  6.70941E+02  6.46410E+03  8.73878E+03  7.36143E+03  7.34833E+03
 -4.68564E+03  1.48391E+04 -1.06866E+04  1.17321E+04 -1.35530E+04 -1.31541E+02 -8.01178E+03 -4.88039E+03
 -6.19115E+03 -7.99398E+03 -5.58991E+02 -8.04878E+03  2.89374E+03 -2.47581E+03  5.42620E+03 -1.69868E+03
  2.75021E+03 -2.57534E+03  1.97796E+03  5.19074E+02  6.11214E+03 -2.01107E+03  5.26778E+03 -3.82462E+03
  3.76841E+03  2.63201E+03 -6.73866E+02  4.79015E+03  9.50537E+01  3.88398E+03 -9.63254E+03  7.45910E+03
 -1.18584E+04 -2.24601E+03  7.26274E+02 -5.18442E+03 -9.38756E+02 -3.54864E+03  2.32265E+03 -8.36728E+03
  5.65335E+03 -6.08348E+03  6.02178E+03  1.71384E+03  7.70487E+03  6.90107E+03  5.51929E+03  1.61859E+04
 -6.63150E+03  5.30411E+03 -6.87929E+03 -3.88758E+02 -3.19769E+03  1.11140E+03 -2.80670E+02 -2.65001E+01
 -3.77503E+03 -2.37496E+03 -3.04987E+03 -2.51213E+03 -2.57661E+03  2.63192E+03 -6.36049E+03  3.16793E+03
  1.27575E+03 -7.73051E+03 -6.93122E+02 -2.65929E+03  5.64049E+03 -3.69522E+03  8.54137E+03  1.46766E+03
  7.60393E+03  4.63195E+03  6.31458E+03  2.86176E+03 -1.67772E+03  6.64036E+03 -1.93782E+03  7.71508E+03
 -3.79074E+03  1.34791E+02 -5.89539E+03 -4.38043E+03 -3.30728E+03 -6.92581E+03  3.96821E+02 -6.52912E+03
  3.65319E+03 -9.02373E+03  1.11930E+03 -1.41989E+03  2.78477E+03  2.77343E+03 -2.14089E+03  6.14502E+03
  4.14810E+02 -8.83566E+02  1.50941E+02 -5.87095E+02  3.08272E+03  4.34418E+03  3.45195E+03 -1.92957E+03
  3.50121E+03 -1.95486E+03 -5.69199E+03  4.34550E+03 -3.90575E+03 -8.55128E+02  1.15756E+03  3.97636E+02
  5.87519E+02 -5.47844E+03  1.52549E+03 -9.39682E+03 -1.72564E+03 -2.90723E+02  7.45974E+03 -5.17126E+03
  1.18626E+03  2.65812E+03 -1.05497E+03  4.76148E+03 -9.69372E+02  2.27670E+03 -6.75926E+03 -1.81508E+03
  1.60621E+03 -3.41262E+03 -2.32601E+03 -1.47676E+03  4.24331E+03  2.21130E+03  3.55541E+03  8.38004E+02
  4.77482E+03  1.43366E+03  2.10914E+03 -1.21936E+03  1.38698E+02  3.43620E+03  5.43618E+02 -1.30079E+03
 -8.50849E+02  1.39659E+02  1.40553E+03  1.71660E+02 -5.13642E+03  4.20169E+03 -4.43537E+03  4.97293E+03
 -1.81606E+03  6.89382E+02 -2.24302E+03  6.26514E+02 -2.50513E+02  3.00114E+03 -6.41082E+03 -3.85754E+03
 -3.25455E+03 -2.25513E+03  9.96643E+02  1.67150E+03 -1.73606E+02  6.48041E+02  8.47581E+02  4.56935E+03
 -3.29566E+03  9.76097E+02 -4.69432E+03 -1.48770E+03  1.43343E+03 -3.46965E+03  8.00020E+02 -3.46985E+03
 -1.16494E+03 -1.28949E+03  1.93320E+03 -5.03633E+03  1.90580E+03 -1.12038E+03  5.63776E+03  4.59991E+03
 -2.10913E+03 -1.15568E+02 -6.40046E+03 -8.80545E+02 -2.65350E+03 -1.93407E+03  7.05495E+03 -4.02189E+03
 -7.21343E+02 -8.48526E+01  7.06603E+03  3.45420E+03  6.77704E+03  3.18958E+03 -1.73042E+03  2.86352E+03
 -1.35676E+03 -4.10041E+03 -3.48880E+03 -2.00283E+03 -6.78561E+03 -1.82306E+03  3.13382E+03 -1.85355E+03
  3.34193E+02  2.55441E+03  5.11565E+02 -8.73909E+02  3.42871E+03  2.66716E+01  8.10246E+02  1.50569E+03
  5.02070E+03 -5.82180E+01  3.09751E+02 -2.41543E+03  8.11670E+02 -1.47902E+03 -2.01960E+03  8.06486E+02
 -6.22582E+03  2.46427E+03 -3.94650E+03 -1.74900E+03 -4.21655E+03  2.69660E+03 -4.11941E+03 -6.60401E+02
 -6.84879E+02  2.14517E+03 -2.35715E+03 -4.56339E+03 -2.62944E+03  1.12287E+02  4.51596E+03 -3.46154E+03
  5.34487E+03  4.12262E+03 -3.43981E+01  2.70400E+03 -4.99614E+03 -1.14749E+03 -1.74857E+03  5.53807E+03
  8.85123E+02  2.13174E+02  2.36374E+02 -1.50271E+03 -3.45098E+03  4.45403E+03  3.89094E+02  1.23824E+03
 -1.61304E+02  2.49407E+02 -1.80869E+03  1.61300E+03 -1.28362E+03 -2.69387E+03 -2.19461E+02  3.47653E+03
 -3.83787E+03  9.10548E+02  1.10744E+03 -4.64495E+03 -1.30761E+03  2.74761E+03  3.53612E+03 -2.79979E+02
  4.99116E+03 -1.18124E+03 -2.15951E+03  4.64341E+03 -1.73974E+03  3.09369E+03 -2.45125E+03 -1.61524E+03
 -1.29391E+03 -1.86409E+03 -4.39959E+03 -3.42954E+03 -4.14151E+02  3.15410E+03  2.23763E+02  6.37352E+03
  2.99047E+03 -4.12536E+02 -8.26683E+02  2.49295E+03  7.87412E+03  3.91197E+02 -3.02127E+03 -1.77045E+03
  1.73233E+03 -1.16726E+03 -1.51477E+03 -6.61116E+02  2.06154E+02 -5.61935E+02  4.44051E+03  1.68626E+03
  2.02004E+02  1.39272E+02 -2.83825E+03 -2.57961E+03 -1.80877E+03 -1.32345E+03 -9.19970E+02 -2.74722E+03
 -1.75655E+03 -2.30417E+03  1.08006E+02  7.56849E+02 -3.55461E+02  2.66805E+03  2.23675E+02 -7.86783E+02
  3.82967E+03  3.96295E+03 -2.97577E+03 -6.57403E+01 -7.56950E+02  1.67943E+03 -1.84780E+03  1.22926E+03
 -2.34830E+03  7.65791E+02  3.34815E+02  2.14416E+03  5.23727E+02  6.01592E+03  9.59713E+02  5.14263E+03
 -2.57340E+03  1.42042E+03 -1.43650E+03 -7.08293E+02  7.38379E+03  6.61111E+02  2.14783E+03 -3.64818E+03
  3.15915E+03  5.88339E+03 -1.38412E+03  9.00267E+02  2.52904E+02  1.87853E+03  6.93177E+02  2.68369E+03
