 $NMID ID='MM_0lb_SNR50_20hz_g55_20.RAW', FMTDAT='(8E13.5)'
 TRAMP=1., VOLUME=1. $END
  3.09832E+05 -2.31369E+02  3.41381E+05  2.48341E+05  8.30381E+04  3.37756E+05 -1.29934E+05  2.51182E+05
 -1.90125E+05  8.11050E+04 -1.09895E+05 -3.02083E+04  1.57379E+03 -5.21320E+04  5.17909E+04  4.60508E+02
  3.76173E+04  4.81659E+04 -1.73789E+04  7.72664E+04 -5.99499E+04  6.23339E+04 -8.38799E+04  3.21974E+04
 -7.81098E+04 -7.44645E+03 -5.53142E+04 -4.72546E+04 -1.45612E+04 -6.65420E+04  2.65965E+04 -4.44769E+04
  4.23036E+04  8.70742E+03  1.69509E+04  4.56785E+04 -3.24858E+04  4.31262E+04 -6.07528E+04  4.61217E+02
 -5.50461E+04 -5.37918E+04 -6.04144E+03 -7.52762E+04  3.18500E+04 -5.23590E+04  4.62598E+04 -1.63590E+04
  4.18982E+04  1.04905E+04  2.68084E+04  2.35417E+04  1.52247E+04  2.87235E+04 -4.15552E+03  2.60426E+04
 -2.11669E+04  1.22127E+04 -1.97194E+04 -2.06170E+03  4.41624E+03 -3.72783E+03  1.94168E+04  1.04675E+04
  7.59389E+03  3.33307E+04 -2.50797E+04  3.50461E+04 -6.09602E+04 -1.24137E+03 -5.83664E+04 -3.95892E+04
 -1.25946E+04 -6.00871E+04  3.62225E+04 -4.14822E+04  5.89336E+04 -3.36962E+03  3.41270E+04  2.91723E+04
 -5.21843E+03  3.63292E+04 -2.79203E+04  1.67009E+04 -2.99716E+04 -2.42211E+03 -1.55279E+04 -5.93982E+03
 -8.27166E+03 -1.46181E+04  2.52643E+01 -1.63769E+04  3.91640E+03 -2.01699E+04  1.64355E+04 -1.32315E+04
  1.28505E+04  6.16275E+03 -6.39541E+03  1.31614E+04 -2.45863E+04 -4.03093E+02 -1.16154E+04 -3.28589E+04
  2.29847E+04 -3.95885E+04  4.67237E+04 -1.31814E+04  4.41572E+04  1.49529E+04  1.05522E+04  4.33911E+04
 -1.40685E+04  3.33844E+04 -2.62159E+04  1.21082E+02 -1.06126E+04 -2.63352E+04  2.43507E+04 -3.20611E+04
  4.01805E+04 -6.29462E+03  3.36567E+04  2.06169E+04  1.71387E+04  4.40762E+04 -1.38922E+04  4.49610E+04
 -3.02010E+04  2.91062E+04 -3.55828E+04  8.33639E+03 -3.73793E+04 -1.43876E+04 -2.20875E+04 -3.69101E+04
  7.50218E+03 -3.41642E+04  2.67364E+04 -1.35276E+04  2.18912E+04  8.36718E+03  1.53131E+03  2.36213E+04
 -1.16521E+04  9.84321E+03 -3.82099E+03 -9.33814E+03  4.45008E+03 -8.17306E+03  1.30067E+04  6.61647E+03
  1.24540E+04  2.01139E+04 -9.24141E+03  2.21192E+04 -2.14518E+04  1.00390E+04 -2.52191E+04 -6.60734E+03
 -1.54307E+04 -1.58332E+04 -4.69938E+03 -1.76615E+04  3.54166E+03 -1.66173E+04  1.34600E+04 -1.50245E+04
  2.43963E+04 -1.13850E+04  3.07017E+04 -7.15657E+02  1.90209E+04  1.85714E+04  5.17525E+03  3.13105E+04
 -1.36305E+04  2.76442E+04 -2.56946E+04  1.40690E+04 -1.78135E+04 -9.79139E+03 -3.98402E+03 -1.74763E+04
  6.91934E+03 -2.80298E+03  3.29161E+03  5.79186E+03 -1.26384E+04  6.03907E+03 -1.38373E+04 -5.43594E+03
 -6.22107E+03 -1.65546E+04  3.26751E+03 -1.60246E+04  1.28066E+04 -1.52339E+04  1.25269E+04 -2.12254E+02
  8.24067E+03  7.68620E+03 -2.21967E+03  1.46005E+04 -9.40294E+03  3.38881E+03 -1.06124E+04 -3.47214E+03
 -7.67018E+03 -1.79400E+04 -4.03637E+02 -1.92433E+04  9.56673E+03 -1.25041E+04  1.56511E+04 -6.85533E+03
  1.37103E+04  1.44486E+03  1.05307E+04  7.81591E+02  5.94199E+03  6.87855E+02  6.93263E+03 -2.33834E+03
  1.08274E+04  2.60292E+03  1.36582E+04  1.46125E+04  1.16092E+04  2.73017E+04 -6.86241E+03  2.33355E+04
 -1.39530E+04  2.09488E+04 -1.97199E+04  7.02152E+03 -2.78737E+04 -3.84270E+03 -2.27684E+04 -1.13955E+04
 -1.01160E+04 -2.22325E+04  4.76847E+03 -1.67030E+04  1.62260E+04 -7.47038E+03  1.45275E+04  1.11039E+03
  7.35837E+03  1.35042E+04 -7.05823E+03  6.41603E+03 -1.08646E+04  1.09685E+03 -1.25998E+04 -7.58067E+03
  4.46448E+03 -1.59789E+04  3.52184E+03 -9.73823E+03  3.76495E+03 -1.86493E+03 -2.30736E+03  3.68844E+03
 -6.82672E+03  4.66198E+03 -4.05799E+02 -8.90203E+03 -2.68024E+03 -1.08945E+04  7.87303E+03 -8.73007E+03
  9.83282E+03 -8.73324E+03  1.26314E+04  4.14237E+03  8.56476E+03  1.38388E+04  3.88195E+03  1.48167E+04
 -2.92215E+03  1.53213E+04 -1.28663E+04  8.54602E+03 -1.31089E+04 -1.80789E+03 -7.99866E+03 -3.84481E+03
 -7.74122E+03 -5.73183E+03  3.66294E+03 -5.92164E+02 -3.96713E+03  4.20957E+03 -1.50955E+03  2.85366E+03
 -1.10462E+04  1.18916E+03 -8.71730E+03 -5.10941E+03 -4.58624E+03 -8.39379E+03  3.58890E+03 -9.44075E+03
  9.43414E+03  1.69201E+03  4.74824E+03 -1.06207E+02  5.35117E+03  7.13013E+03 -4.30182E+03 -3.74922E+03
  1.15333E+03  4.41410E+02 -7.54302E+02 -6.10853E+03  1.13770E+03 -6.28281E+03  1.24135E+04 -2.61241E+03
  1.19383E+04  1.02619E+03  9.19383E+03  1.51369E+03  2.30983E+03  6.64911E+03 -3.77714E+03  9.90214E+03
 -5.61446E+03  3.07673E+03 -2.73398E+03 -2.07181E+03  4.80331E+03 -3.17126E+03  5.42634E+03 -1.40014E+03
  4.75211E+03  3.99225E+03  2.29543E+03  1.57518E+03 -4.47889E+03  9.69013E+03 -3.94618E+03  1.19103E+03
 -3.38156E+03 -2.15324E+03 -4.19050E+03 -4.26128E+03  4.42840E+03  1.81297E+03  4.51252E+03 -1.26603E+03
 -2.02435E+03  4.60363E+03 -2.45895E+03  3.31754E+03 -6.28437E+03  3.82944E+03 -3.17959E+03  1.22161E+03
 -3.88197E+03 -7.12309E+03  1.97754E+02 -5.31815E+03  5.80716E+03 -5.57151E+03  7.54862E+03 -1.46471E+02
  3.63385E+03  3.39102E+03 -1.10978E+03  6.96148E+03 -5.76560E+03  7.00550E+03 -2.25421E+03 -3.53191E+03
 -6.31710E+03 -4.39736E+03  4.40049E+02 -6.30887E+03  3.77879E+03 -5.31952E+03  1.82530E+03 -3.21150E+03
  2.19376E+03  1.68748E+03 -6.98648E+02 -9.55789E+01  2.33044E+03  1.16885E+03 -2.67812E+03  6.86693E+02
  8.04813E+03  5.52907E+02  6.31958E+03  5.85668E+01  5.16533E+03  6.14733E+03  6.95440E+03  6.44173E+03
 -2.31898E+02  7.63895E+03 -4.32288E+03  6.45399E+03 -1.62464E+04 -4.24323E+03 -4.92925E+03  7.47188E+01
 -3.98393E+03 -7.05317E+03  2.39391E+02 -5.31171E+03  3.04920E+03 -4.61503E+03 -1.19779E+03 -6.76872E+02
 -2.29695E+03 -5.11713E+02 -2.39264E+03 -4.57682E+03  8.39371E+03  2.82731E+02  2.91170E+03  1.76720E+03
  2.50439E+03 -9.50436E+02  3.94906E+03  4.75488E+03 -1.37328E+03  6.60577E+02 -3.64434E+03  2.89878E+03
 -3.08840E+03  4.83298E+03 -1.04433E+03 -1.83152E+03 -1.68911E+02 -4.24854E+03  1.60654E+03 -6.02989E+03
  6.81307E+03 -2.29137E+03  3.33728E+03  2.65806E+03 -1.24422E+03  2.33815E+03  5.48085E+03  8.66216E+03
 -5.97347E+03  5.38247E+03  5.90518E+02  2.05622E+03 -1.60248E+03  4.08167E+03  4.39226E+02 -1.09073E+03
 -4.20747E+03  2.14190E+03 -1.87968E+03  1.30232E+03 -3.28024E+03  2.20102E+03 -6.15875E+03 -1.92887E+03
 -3.95190E+03 -6.30234E+03  3.08650E+03 -4.12935E+03  2.57918E+03 -6.44892E+03  5.02324E+03 -2.95013E+02
  3.50235E+03  2.02738E+03  2.69180E+03  4.04106E+03 -1.85266E+02  4.88194E+03  9.93130E+02  3.52969E+03
  5.41108E+02  1.37783E+03 -1.43155E+03 -1.35964E+03  1.76497E+03  3.39306E+03 -1.14659E+03 -1.01516E+03
  2.08108E+03  4.15869E+02  2.42032E+03  3.32076E+03 -6.37186E+02  1.93394E+03 -3.07573E+03  1.29558E+01
 -3.32030E+03 -2.88008E+03  3.87840E+03  4.92741E+03 -2.28774E+03  2.41961E+03  3.27102E+03  3.72155E+03
 -3.00686E+03  2.25769E+03 -1.11908E+03  6.33278E+03 -2.74819E+03  3.81791E+02 -2.26410E+03  2.71637E+03
 -2.81046E+03 -3.20725E+03 -1.14819E+02  1.22923E+03  3.26148E+03  1.32312E+03  2.35505E+03  8.05784E+02
  5.26889E+03 -1.45975E+03  3.50818E+03  1.32494E+03  4.49946E+03 -8.39725E+02 -1.13118E+03  7.29320E+02
 -4.12073E+03  2.07581E+03  1.71753E+03  3.76170E+02 -3.40978E+03  3.59166E+02 -1.12836E+03  3.22009E+03
  3.78468E+03  4.32247E+03  6.20737E+02  1.33822E+03  3.14770E+03  5.70261E+03  5.33119E+03  2.54102E+03
 -5.74331E+02  1.96921E+02  2.99186E+03  9.47265E+02 -4.03460E+03  4.16217E+03 -3.27009E+02  4.93567E+03
  1.13059E+03 -1.56686E+03 -9.48159E+02 -6.23396E+02 -5.12225E+02 -3.41268E+03 -3.67912E+02 -3.69207E+03
  2.68262E+03 -1.45968E+02  2.16103E+03  5.51273E+02  2.87151E+03  1.61385E+03 -1.72982E+03  8.49424E+02
 -2.85046E+02 -3.41871E+03 -3.79031E+03  7.02877E+02 -5.77287E+02 -1.08372E+03 -2.73689E+03 -9.55438E+02
  5.07404E+02 -3.16960E+03  9.15803E+02  3.86467E+03  4.02395E+03  2.08442E+02  6.32946E+02 -3.13768E+02
  3.44744E+02 -8.60256E+02 -1.95335E+03 -7.15299E+02 -3.56063E+03  6.40721E+02 -4.41557E+03  1.99042E+03
  5.64346E+03  3.59490E+03  7.13183E+02 -2.68821E+03  1.80366E+03 -6.79686E+02  4.11680E+03  1.45209E+02
 -1.11652E+03 -1.92449E+03 -4.66302E+03  5.69297E+02 -1.07541E+02 -4.27764E+03  2.18866E+03 -2.55724E+03
  3.01010E+03  7.71046E+02 -3.04236E+03  9.99547E+01  1.78891E+03  1.63046E+03  6.71303E+01  1.65300E+03
 -1.18524E+03  5.94756E+02 -9.76086E+02 -7.55419E+01  1.56350E+03  1.76240E+03 -3.17969E+03  2.11671E+03
 -2.31599E+03  9.25452E+02 -3.42378E+03  1.72260E+03  5.68927E+02  2.88100E+03  3.14039E+03  2.59773E+03
 -2.85875E+03 -1.14923E+03  1.07520E+03  1.42630E+03  3.82074E+02 -3.36980E+03  1.68478E+03 -9.02964E+02
 -9.07527E+02 -2.65119E+03  1.13813E+03  3.33188E+02 -1.55200E+03  1.63870E+03  2.64351E+03 -2.20681E+03
  1.05029E+02  3.35061E+03  1.73302E+03 -3.36917E+03 -1.80237E+03  4.67967E+02  1.65175E+03  3.54844E+03
 -4.71330E+02  2.48870E+03 -3.00682E+03  6.15972E+01 -1.23620E+03  9.27660E+02  5.69282E+02 -4.23811E+02
  1.53356E+03 -9.24031E+02  1.45666E+03  5.44440E+02  1.00773E+03  3.30294E+03  1.30411E+03  8.25073E+02
 -1.47213E+01 -2.73406E+03 -1.10366E+02  2.34206E+03 -4.87637E+02  1.41656E+03 -9.59412E+02  1.40011E+03
  5.40021E+02 -8.87198E+02 -5.01112E+02  1.31944E+03  1.37878E+03 -5.34144E+02 -5.95356E+03  1.98524E+03
 -6.02246E+02  2.42801E+03  1.93224E+03  2.06140E+03 -1.30873E+03  3.28297E+03  1.71980E+03 -3.01984E+03
 -2.37112E+03  5.75977E+02  6.75671E+01 -4.73742E+03  6.24260E+02 -1.70025E+03 -1.08837E+03 -2.38656E+03
 -1.13676E+03  1.98949E+03  2.73341E+03 -1.78861E+03  1.96438E+03  3.71758E+03 -2.39205E+03 -1.01862E+03
 -3.74707E+03 -1.27275E+03  4.64566E+02  1.70951E+03  1.72642E+03 -8.18210E+02 -2.02387E+03 -2.18147E+03
 -2.07212E+03  1.96341E+03  4.62708E+02 -1.80737E+03  2.22407E+02 -4.68119E+02 -6.40760E-01 -7.90932E+02
  2.46789E+03 -3.17977E+01  4.50638E+02  1.20706E+03 -3.09758E+03  6.99277E+02 -1.14928E+03  3.56257E+03
  3.57552E+02  3.48234E+03 -2.03415E+03 -1.59322E+03 -3.62176E+03  8.32464E+02  3.46230E+03 -2.83251E+02
 -2.39456E+03 -7.97699E+02  2.42254E+02  1.24233E+03 -1.50871E+03 -7.79483E+02 -1.46455E+03 -1.18666E+03
