 $NMID ID='MM_0lb_SNR50_19hz_g45_7.RAW', FMTDAT='(8E13.5)'
 TRAMP=1., VOLUME=1. $END
  3.10216E+05  8.24245E+02  3.34501E+05  2.49019E+05  8.52287E+04  3.37069E+05 -1.33539E+05  2.48534E+05
 -1.87123E+05  7.96316E+04 -1.06948E+05 -3.12400E+04 -1.43180E+02 -4.77021E+04  5.85369E+04  4.06974E+03
  3.34671E+04  5.42880E+04 -1.36221E+04  7.25021E+04 -5.87284E+04  6.36412E+04 -8.07558E+04  3.41415E+04
 -7.89339E+04 -1.41978E+04 -5.32696E+04 -5.11683E+04 -1.65857E+04 -6.72183E+04  2.41603E+04 -4.76061E+04
  3.43081E+04  1.69359E+03  1.75086E+04  4.55743E+04 -3.42695E+04  4.32762E+04 -6.75868E+04 -4.14473E+03
 -4.98966E+04 -6.20631E+04 -3.47241E+03 -7.38809E+04  3.32416E+04 -5.25045E+04  4.43422E+04 -1.61475E+04
  4.11312E+04  1.16063E+04  2.84679E+04  2.40122E+04  1.79885E+04  2.65020E+04 -3.97575E+03  2.83441E+04
 -2.48207E+04  1.45365E+04 -2.30458E+04 -3.59779E+03  4.42022E+03 -9.98071E+03  2.06793E+04  1.41569E+04
  4.11558E+03  3.38812E+04 -3.09945E+04  3.32380E+04 -6.18716E+04 -2.35841E+03 -5.11862E+04 -4.31735E+04
 -1.13049E+04 -5.76673E+04  3.92421E+04 -4.59766E+04  5.51343E+04  1.62671E+03  3.40043E+04  3.30961E+04
 -7.79118E+03  3.08617E+04 -2.85615E+04  8.31590E+03 -2.50987E+04 -7.07892E+03 -1.69218E+04 -9.11781E+03
 -6.87592E+03 -9.66335E+03 -3.08316E+03 -1.83977E+04  5.37092E+03 -2.59001E+04  1.54094E+04 -1.35966E+04
  1.46306E+04  8.98989E+03 -4.46606E+03  1.84065E+04 -1.69593E+04 -2.86981E+03 -8.36808E+03 -2.95193E+04
  2.11520E+04 -4.03135E+04  4.66460E+04 -1.43111E+04  4.32852E+04  1.52579E+04  1.76705E+04  4.22006E+04
 -1.94555E+04  2.45652E+04 -2.09483E+04  3.17760E+03 -1.11415E+04 -2.78094E+04  2.38960E+04 -3.09941E+04
  3.36829E+04 -7.12857E+03  3.40144E+04  2.12084E+04  1.48917E+04  4.16514E+04 -5.89641E+03  4.65907E+04
 -2.94423E+04  2.97018E+04 -3.92596E+04  7.93066E+03 -3.88161E+04 -1.34563E+04 -1.89980E+04 -3.26452E+04
  4.95061E+03 -2.94288E+04  2.57961E+04 -1.08631E+04  2.30199E+04  9.45510E+03 -2.54538E+03  1.93616E+04
 -1.61227E+04  4.55291E+03 -9.99478E+03 -1.06530E+04  8.90094E+03 -7.86259E+03  1.75478E+04  9.83186E+03
  1.08334E+04  1.90612E+04 -5.86658E+03  2.72488E+04 -1.93992E+04  1.11556E+04 -2.39707E+04 -5.42122E+03
 -1.35381E+04 -1.37273E+04 -3.96133E+03 -1.52054E+04  1.91321E+03 -1.08210E+04  1.28346E+04 -1.30353E+04
  1.98338E+04 -1.33249E+04  2.65005E+04  1.91337E+02  2.15885E+04  1.12257E+04  3.73395E+03  3.43455E+04
 -1.49906E+04  2.73196E+04 -2.51168E+04  7.15264E+03 -2.15802E+04 -1.18113E+04 -3.13488E+03 -1.83949E+04
  5.51129E+03 -5.09209E+03  3.12432E+03  3.84550E+03 -1.36728E+04  3.46129E+03 -1.40666E+04 -6.22354E+03
 -8.41555E+03 -1.26417E+04  4.97038E+03 -1.38618E+04  1.46982E+04 -1.47816E+04  1.44827E+04  1.37328E+03
  4.28780E+03  8.43595E+03 -8.46912E+02  1.35205E+04 -5.83963E+03  1.11785E+04 -1.32539E+04 -7.91102E+03
 -1.16185E+04 -1.36431E+04 -3.04870E+03 -1.91431E+04  9.25827E+03 -1.77205E+04  1.44380E+04 -3.89848E+03
  1.41628E+04  6.73624E+03  6.00934E+03  2.03118E+03  6.09592E+03 -2.62328E+03  9.03661E+03 -3.49185E+02
  1.23377E+04  2.23232E+03  1.55877E+04  1.16422E+04  1.15991E+04  2.45849E+04 -2.61150E+03  2.16472E+04
 -1.44172E+04  2.00111E+04 -2.23574E+04  1.09790E+04 -2.41588E+04  7.83673E+02 -1.85428E+04 -1.35271E+04
 -9.94905E+03 -2.09806E+04  4.43697E+03 -1.72366E+04  1.64050E+04 -1.22306E+04  1.55663E+04 -1.30687E+03
  5.40468E+03  1.14267E+04 -5.60324E+03  7.58384E+03 -1.59664E+04  1.02059E+03 -1.02275E+04 -4.82933E+03
 -1.48586E+03 -1.30248E+04  5.18425E+03 -7.22567E+03  5.78900E+03 -1.83229E+03 -8.44808E+02  6.25098E+03
 -5.17826E+03  1.10016E+03  4.93603E+02 -5.29569E+02 -1.65009E+02 -5.64960E+03  9.29961E+03 -8.33099E+03
  7.60627E+03 -3.62489E+03  1.14733E+04  2.81892E+03  8.96988E+03  1.39200E+04  3.27329E+03  1.34213E+04
 -2.34878E+03  1.48653E+04 -1.00318E+04  9.19484E+03 -1.26490E+04 -1.93718E+02 -6.18557E+03 -2.08132E+03
 -5.09176E+03 -5.38056E+02 -3.09738E+03  7.32040E+02 -1.60281E+02  5.54913E+03 -8.25076E+03  3.50829E+03
 -6.53697E+03 -4.67047E+02 -1.04416E+04 -9.80976E+02 -6.51601E+03 -1.13283E+04  3.09798E+03 -1.29032E+04
  7.79219E+03 -4.81885E+03  2.97681E+03 -2.34388E+03 -3.05041E+03  2.36452E+03 -4.20321E+03 -3.25168E+03
 -1.48180E+03 -8.69559E+03 -2.47055E+03 -5.19320E+03  2.03914E+03 -5.37146E+03  1.23344E+04 -1.41111E+03
  1.22625E+04  5.12221E+02  1.13720E+04  4.48467E+03  2.14651E+03  8.84847E+03 -2.62772E+03  7.66132E+03
 -3.71001E+03 -1.37095E+02 -7.25880E+03 -4.93682E+03 -7.05791E+02 -3.11513E+03  2.17632E+03  7.05441E+02
  3.19084E+03  5.85125E+03  5.76814E+03  4.99210E+03 -6.15670E+03  7.34751E+03 -7.97036E+03 -1.60562E+03
 -1.82209E+02 -4.39250E+03 -1.08672E+03 -4.88434E+03  1.16397E+03 -1.72736E+03  5.94599E+03 -3.28472E+03
 -9.81874E+02  1.10806E+03  7.19295E+02  4.21275E+03 -2.87476E+03  2.00464E+03 -7.06298E+03 -8.31848E+02
 -2.02003E+03 -9.79397E+03 -1.74833E+03 -7.05549E+03  7.14239E+03 -2.05536E+03  3.97081E+03  4.05818E+03
  4.94567E+03  9.44307E+03  5.58371E+02  4.06930E+03 -5.43204E+03  1.09140E+03 -5.88892E+03 -3.89406E+03
 -7.94463E+03 -5.38282E+03 -4.96146E+03 -7.21016E+03  7.77433E+03 -5.41581E+03  6.22000E+02 -3.13447E+03
  9.77059E+02 -1.34561E+03  2.32679E+03  3.75634E+03  4.92568E+03  4.05843E+01 -1.80856E+03 -8.44212E+02
  6.13602E+03  2.60407E+03  5.81726E+03  7.10290E+03  6.51056E+03 -5.03361E+02  4.65929E+03  5.30616E+03
 -2.27949E+03  3.86840E+03 -8.80078E+03  6.25241E+03 -1.20261E+04  3.22712E+03 -3.32102E+03 -3.18703E+03
 -4.80167E+03 -4.19990E+03 -3.53425E+03 -7.34277E+03 -6.37039E+02 -8.93849E+02 -2.58577E+03  1.89618E+03
  1.31177E+03 -4.63697E+03  1.06784E+03 -3.23708E+03  2.78997E+03 -9.77525E+02  4.36674E+03  2.87953E+03
  3.58307E+03  1.28717E+03  2.33542E+03  2.35490E+03 -2.75976E+03  4.16061E+03 -5.59155E+03  2.43486E+03
 -8.18523E+03 -1.83015E+03 -2.32507E+03 -2.62506E+02  7.05561E+02 -5.66373E+03  4.30087E+03 -5.31674E+03
  6.42448E+03 -5.74896E+03  1.10441E+04 -5.47235E+02  6.03054E+03  7.86407E+03 -2.59745E+03  3.86710E+03
 -3.99875E+03  4.71018E+03 -7.27868E+03  1.95820E+03 -2.12961E+03 -1.49180E+03 -1.13457E+03  2.15805E+03
 -2.43735E+03 -4.39242E+03  3.39759E+01  1.45337E+03 -3.21412E+03  3.24299E+02 -5.71855E+03  1.18394E+03
 -6.12211E+01 -9.10760E+02  3.97603E+02 -6.24143E+03  1.62676E+03 -6.20843E+03 -7.88434E+02  3.53733E+01
  3.31588E+03  1.85922E+03  3.11839E+03 -5.72486E+02 -2.99148E+03  5.09809E+03 -4.92393E+03  2.16174E+03
 -3.58625E+03  2.11669E+02 -3.48017E+03 -2.39879E+02 -2.26419E+03 -7.39722E+03  2.56702E+03 -4.82523E+03
  2.69278E+03 -7.73892E+02 -5.52921E+02  1.90227E+02  3.52560E+03 -2.00496E+03  6.20329E+03 -2.30631E+03
 -1.03684E+02  2.51495E+03  2.10718E+03 -5.55454E+02  1.92997E+03  3.91691E+03 -2.46693E+02 -2.31174E+03
 -6.81684E+02  1.40081E+03 -2.01962E+03  5.68256E+03 -3.49075E+03 -3.72526E+02 -2.87426E+03  1.39714E+03
 -3.73580E+02 -4.33801E+03  3.21088E+03 -4.91891E+03 -1.39459E+03 -2.78753E+03  2.88698E+03 -8.90153E+02
 -3.10134E+02  5.16672E+03  1.85605E+03 -5.51537E+02 -5.00791E+02 -8.12677E+02 -2.07293E+03 -2.27570E+02
 -2.67806E+03 -2.74008E+03  7.18605E+02 -1.49258E+03  3.35213E+03 -5.80249E+01  2.93605E+03  2.56629E+03
  4.21403E+01  2.45972E+00 -1.97186E+03 -5.27049E+03  2.00096E+03 -1.37875E+03  4.90400E+03 -7.84162E+02
  1.65828E+03  1.82644E+02  1.09849E+03  9.51318E+02 -2.85755E+03  9.69347E+02 -1.78856E+01 -2.99295E+03
 -2.02145E+03  3.01959E+03 -2.35639E+03  5.02420E+03 -7.22553E+02  2.64424E+02  5.27318E+02 -1.40849E+03
 -1.77513E+02  3.76499E+03  1.64611E+03 -1.56666E+03 -7.14290E+02 -2.95713E+03  4.16910E+02  4.91679E+03
 -5.52858E+03  2.39628E+03 -1.92273E+03  7.05888E+02  8.75346E+00  4.95164E+02 -1.43569E+03 -4.32356E+03
  1.32867E+02 -2.09962E+03  3.71543E+03  1.32366E+03 -2.52424E+03  4.31322E+03  2.74812E+03 -2.08239E+03
 -1.49874E+03  2.80429E+03 -5.15966E+03 -3.08094E+03  3.38208E+02 -1.21509E+03  1.37488E+03 -1.92527E+03
  6.47985E+02 -2.65468E+02  8.46511E+02 -5.23369E+02  2.73824E+03 -2.58304E+03 -8.29203E+02 -1.52516E+02
  2.54162E+03 -4.76883E+02 -1.13995E+03  6.35373E+02  2.99903E+03 -2.80860E+03  1.59457E+03 -5.77789E+03
  3.25637E+03 -2.96333E+03  1.29925E+03 -1.67258E+03 -1.77570E+02  1.77308E+03  1.53956E+03  2.04711E+03
  8.80417E+02 -4.78358E+02  3.68893E+03 -3.53210E+03  2.27619E+03 -1.57197E+03 -1.24351E+03  2.65951E+03
 -4.61448E+03  1.92264E+03 -3.67359E+03 -3.62866E+03 -3.58816E+02  1.00993E+03 -3.34269E+03 -1.20739E+03
  1.80583E+03 -4.92013E+03 -1.59495E+03 -7.94112E+03 -4.48369E+03 -2.60532E+02  2.38018E+03 -5.91768E+03
  3.98207E+03 -2.10612E+03  1.28270E+03 -2.20549E+03 -4.19179E+03 -2.28180E+03 -2.17958E+03  2.14740E+03
  4.85514E+03  1.87243E+03 -2.90236E+03 -1.03585E+02  1.82426E+03  1.80444E+02 -8.97734E+02 -9.73690E+02
  3.85141E+02  6.40792E+02 -5.48004E+02  8.30686E+01  1.08005E+03 -3.26719E+03 -2.75082E+03 -7.63631E+02
  1.74128E+03  1.21583E+03  5.71347E+02 -1.47801E+03  1.83920E+03 -2.80271E+02 -1.07389E+03  3.68355E+03
 -1.87706E+02  1.17903E+03 -5.36090E+03  7.16230E+01 -8.85053E+02 -4.05820E+02  2.49061E+03 -4.89555E+03
 -2.65414E+03 -1.59741E+03  2.93817E+03 -2.17321E+03 -6.60926E+02 -4.67460E+03 -1.48834E+03  6.74628E+02
 -9.66517E+02 -7.09518E+02  2.50158E+03  2.06339E+03 -2.31784E+03  7.30674E+02  1.39433E+03  1.64656E+03
  5.03796E+03 -2.50499E+03 -2.12669E+03  8.62331E+01 -1.39851E+03 -2.02210E+03 -2.59344E+03 -3.93152E+02
 -2.27741E+03  5.33402E+03 -4.47212E+03  1.43576E+03 -2.54624E+02  4.03973E+03 -1.26363E+03  1.93819E+03
 -1.78179E+03  1.03702E+03  9.21672E+02  1.18680E+03 -9.89059E+01 -9.14809E+02  2.29051E+03 -6.20518E+02
  1.50422E+03 -1.11997E+03 -1.44969E+02  4.30747E+02  1.01882E+03 -1.16619E+03 -3.00012E+03  1.05247E+03
  3.43003E+02 -1.78315E+03 -6.95534E+02  1.61801E+02 -2.77997E+03  3.48533E+03  1.72480E+03  1.40767E+03
  6.14246E+02  2.99651E+03 -3.51518E+03 -3.83335E+03 -1.67373E+03 -2.28380E+03 -1.01106E+03 -9.18337E+02
  5.51079E+03 -2.26006E+03 -9.60337E+02  9.28110E+01  3.23571E+03  1.83669E+02  1.85361E+03  7.55500E+02
