 $NMID ID='MM_0lb_SNR50_8hz_g60_71.RAW', FMTDAT='(8E13.5)'
 TRAMP=1., VOLUME=1. $END
  3.10189E+05  1.15441E+03  3.47364E+05  2.54745E+05  8.62312E+04  3.37213E+05 -1.29015E+05  2.52971E+05
 -1.91040E+05  8.43426E+04 -1.15093E+05 -3.66924E+04 -6.11203E+03 -4.80732E+04  5.44288E+04  9.59587E+01
  2.99675E+04  5.60609E+04 -1.25610E+04  7.50798E+04 -6.49024E+04  6.15417E+04 -8.21779E+04  2.93068E+04
 -8.17071E+04 -1.59012E+04 -5.81056E+04 -5.40795E+04 -1.28041E+04 -7.05291E+04  3.50632E+04 -5.10378E+04
  3.97917E+04 -3.03632E+02  1.28384E+04  4.91532E+04 -3.74957E+04  5.60677E+04 -6.37716E+04  9.36981E+03
 -5.66651E+04 -5.75294E+04 -8.27720E+03 -8.49986E+04  3.53939E+04 -5.91606E+04  5.80859E+04 -1.89105E+04
  5.30781E+04  1.37924E+04  3.36008E+04  2.84846E+04  1.71722E+04  3.95939E+04  1.65608E+03  2.76536E+04
 -1.95328E+04  4.10701E+03 -1.19584E+04 -1.26107E+03  7.67865E+03 -1.25921E+04  1.98713E+04  6.57666E+03
  8.84386E+03  4.01981E+04 -4.19381E+04  2.78719E+04 -6.15693E+04  1.67792E+03 -5.36855E+04 -4.59547E+04
 -2.04901E+04 -5.59731E+04  4.42543E+04 -5.77828E+04  5.53410E+04 -2.76140E+03  3.07270E+04  2.79435E+04
 -7.33634E+03  4.20699E+04 -2.75788E+04  2.00715E+04 -3.58706E+04 -3.34046E+03 -2.03306E+04 -1.30122E+04
 -1.52728E+04 -1.40831E+04  5.63721E+03 -2.26674E+04  5.80482E+03 -2.30395E+04  1.34604E+04 -1.07780E+04
  1.51244E+04  1.24448E+04 -6.68176E+03  1.26999E+04 -2.68967E+04 -6.38847E+03 -1.00701E+04 -4.28082E+04
  2.89500E+04 -4.97401E+04  6.41502E+04 -2.40835E+04  4.92141E+04  1.84784E+04  1.32358E+04  4.18020E+04
 -1.87301E+04  4.01354E+04 -3.16708E+04 -1.01508E+03 -2.13967E+04 -3.11085E+04  2.00996E+04 -3.49220E+04
  5.21249E+04 -1.51520E+04  4.93231E+04  2.61642E+04  2.35729E+04  5.16948E+04 -1.01188E+04  5.55139E+04
 -3.85930E+04  3.92512E+04 -4.87330E+04  7.75746E+03 -4.77342E+04 -2.59188E+04 -2.71298E+04 -4.57636E+04
  7.20798E+03 -4.66328E+04  3.88881E+04 -1.39470E+04  3.82137E+04  1.08871E+04  2.35350E+03  1.45174E+04
 -1.87107E+04  1.03837E+04 -1.30854E+04 -1.54326E+02  5.89685E+03 -1.53049E+04  2.51848E+04  5.11209E+03
  1.41380E+04  2.85910E+04 -3.81127E+03  2.68056E+04 -3.09800E+04  1.01972E+04 -3.29113E+04 -7.01174E+03
 -2.91281E+04 -1.49435E+04 -1.35127E+04 -2.32368E+04  6.03819E+03 -3.06900E+04  2.60117E+04 -2.89904E+04
  2.97815E+04 -1.65929E+04  4.43157E+04  1.03091E+04  3.37204E+04  2.70381E+04  2.07747E+03  3.80642E+04
 -1.70418E+04  3.28013E+04 -2.97881E+04  1.04839E+04 -2.21588E+04 -1.30777E+04 -6.30238E+03 -1.26274E+04
  6.59026E+03  2.22363E+03 -3.94061E+03  3.35293E+03 -2.28248E+04  5.29842E+03 -2.49771E+04 -1.40440E+04
 -1.56321E+04 -1.84109E+04  2.09436E+03 -2.92176E+04  2.04482E+04 -1.64585E+04  2.51332E+04 -8.97103E+02
  1.19299E+04  1.46175E+04  1.39408E+03  2.71523E+04 -1.72497E+04  1.34150E+04 -2.65559E+04 -3.12659E+03
 -1.95068E+04 -1.89001E+04 -5.35674E+03 -3.10634E+04  1.87879E+04 -3.28738E+04  2.87138E+04 -1.87740E+04
  2.86339E+04 -1.99814E+03  2.13822E+04  6.20668E+03  6.52735E+03 -5.25221E+03  1.13849E+04  2.08232E+03
  2.52210E+04  5.03590E+03  2.66015E+04  2.42980E+04  2.11375E+04  4.42186E+04 -3.47125E+02  5.37798E+04
 -2.53717E+04  4.37969E+04 -4.25727E+04  2.12101E+04 -4.64746E+04 -2.20791E+03 -4.18718E+04 -3.36725E+04
 -1.95205E+04 -4.03506E+04  1.45140E+04 -3.49096E+04  2.74448E+04 -1.63512E+04  2.47209E+04  8.35965E+03
  1.26551E+04  1.83129E+04 -8.61561E+03  1.14539E+04 -1.56995E+04  9.68375E+03 -1.12530E+04 -1.47244E+04
 -2.73423E+03 -2.07872E+04  5.88925E+03 -1.88369E+04  2.28270E+04  5.53522E+03  5.64328E+02  1.68451E+04
 -7.07445E+03  1.55716E+03 -1.33024E+04 -2.60983E+02  7.05515E+03 -2.22962E+04  9.91361E+03 -2.60333E+04
  2.40773E+04 -1.36862E+04  3.26440E+04  1.09088E+04  2.58885E+04  2.26983E+04  1.17612E+04  2.88778E+04
 -6.46818E+03  3.74233E+04 -2.28286E+04  1.81386E+04 -2.65483E+04  1.10447E+04 -1.95142E+04 -9.90704E+03
 -9.76832E+03 -1.68199E+04  2.34172E+03 -2.93104E+03 -3.65317E+03 -8.64674E+02 -7.47760E+03 -7.99933E+02
 -5.99526E+03  3.73193E+03 -1.67172E+04 -8.75572E+03 -1.01731E+04 -2.09870E+04  8.08226E+03 -1.39414E+04
  7.70815E+03 -9.66136E+03  1.03988E+04  5.89386E+03  6.14157E+02  3.58354E+03 -6.33518E+03  2.13817E+03
 -8.75362E+03 -1.46266E+04 -9.10498E+03 -1.91463E+04  1.48537E+04 -1.12272E+04  2.73954E+04 -1.26092E+04
  2.50681E+04  1.07693E+04  1.86690E+04  1.17089E+04  9.55106E+01  2.05439E+04 -1.07824E+04  2.33268E+04
 -1.66517E+04  5.00059E+03  2.32297E+03 -5.33796E+03  2.41115E+03 -3.89339E+03  8.46267E+03  1.36367E+03
  7.75051E+03  4.63738E+03 -1.94808E+03  1.54966E+04 -1.23138E+04  2.17099E+04 -1.74241E+04  6.45007E+03
 -8.03281E+03 -1.29440E+04  2.12977E+03 -1.63704E+04  1.57823E+04 -8.61575E+03  5.83574E+03  6.51538E+03
 -2.47848E+03  1.06515E+04 -1.00021E+04  1.52410E+04 -1.95533E+04  8.38296E+03 -1.30331E+04 -7.14890E+03
 -8.22892E+03 -1.74404E+04  5.61239E+03 -1.79415E+04  1.78543E+04 -1.00150E+04  2.29224E+04  6.31808E+03
  2.05983E+04  1.47542E+04 -3.59552E+03  1.77374E+04 -8.55109E+03  3.97597E+03 -1.31673E+04 -4.22736E+03
 -1.21945E+04 -9.12255E+03 -1.97888E+03 -1.08848E+04  1.20399E+04 -1.19000E+04  2.28622E+04 -2.48650E+03
  7.18224E+03  1.17762E+04 -5.07276E+03  3.08857E+03 -1.05507E+03 -1.30458E+04  1.53453E+03 -4.38973E+03
  1.73151E+04 -9.30968E+03  3.03389E+04  4.70114E+02  1.44959E+04  1.41157E+04  9.41003E+03  2.78522E+04
 -9.60948E+03  2.94177E+04 -2.37218E+04  1.93536E+04 -2.68925E+04  4.16062E+03 -2.66924E+04 -7.24797E+03
 -1.01400E+04 -2.05205E+04 -1.83483E+03 -6.92788E+03  1.05981E+04 -1.04588E+04  1.86564E+03 -6.77788E+03
  8.40661E+03 -4.34921E+02  6.78847E+03 -2.51612E+02  5.52756E+03 -1.52075E+03  1.52865E+04 -2.21484E+03
  1.49869E+04 -3.00432E+03  2.07665E+03  1.16189E+04 -2.11762E+03  2.09817E+04 -1.93665E+04  9.21533E+03
 -2.01646E+04 -1.27340E+02 -9.93754E+03 -8.17893E+03  1.56697E+03 -1.89367E+04  6.43586E+03 -1.54243E+04
  1.96065E+04 -6.61176E+03  2.91479E+04  1.84883E+03  1.71076E+04  2.13567E+04  3.01162E+03  1.77855E+04
 -9.96124E+03  2.19161E+04 -1.59258E+04  6.16240E+03 -4.91097E+03  2.23851E+03  1.36569E+02 -2.85219E+03
 -7.02943E+03 -9.84099E+03  5.52424E+03  8.81201E+03 -9.37322E+03  6.52197E+02 -1.21012E+04  1.51901E+03
 -8.11886E+03 -8.98896E+03  9.45239E+02 -1.75099E+04  7.51823E+03 -1.53695E+04  2.17328E+04 -4.63114E+03
  1.54409E+04  6.76991E+03  2.98309E+03  1.39771E+04 -3.14131E+03  1.62074E+04 -9.24909E+03  1.29022E+04
 -1.87099E+04 -2.91807E+03 -1.65696E+04 -5.00378E+03 -8.31546E+03 -1.74090E+04  1.19598E+02 -1.21012E+04
  1.42427E+04 -7.34539E+02  4.24358E+03 -7.46095E+03  1.23334E+03  3.76245E+03  4.92081E+03  3.71701E+02
  2.71953E+03  4.72053E+03  5.28787E+03  2.37568E+03  3.74766E+03  4.26778E+03  6.34458E+03  1.31733E+04
 -4.42792E+03  1.47597E+04 -1.37653E+04  1.33964E+04 -1.14986E+04 -3.84091E+03 -1.98796E+04 -5.43538E+03
 -1.30557E+04 -1.52945E+04  6.78226E+03 -2.30270E+04  7.69901E+03 -1.50586E+04  1.53237E+04 -1.88717E+03
  1.80006E+04  3.73462E+03  2.54107E+03  1.40444E+04 -6.00753E+03  7.11311E+03 -9.64589E+03 -6.28237E+03
 -4.02339E+03 -4.75610E+03  7.05821E+03 -4.74852E+03  9.71099E+03 -9.72482E+03  8.30499E+03  2.90661E+01
  2.12109E+03 -3.46326E+02 -2.41220E+03  5.40903E+03  3.13024E+03 -4.09939E+03  8.36184E+03  2.15342E+03
  5.69336E+03  5.15921E+03  1.34565E+04  1.24448E+04 -2.56475E+03  4.44450E+03  2.20829E+03  1.17534E+04
 -1.03677E+04  7.85173E+03 -9.74638E+03  8.03942E+03 -1.34642E+04  3.64755E+03 -6.81777E+03 -1.17635E+04
 -2.77135E+03 -9.29288E+03  9.86956E+02 -1.90888E+03  9.04186E+03 -1.32803E+03  1.87202E+03  9.46961E+03
 -9.80045E+01  8.93352E+03 -7.52045E+03 -1.09151E+04 -3.51279E+03 -2.78850E+03  5.00813E+03 -1.33282E+04
  6.69995E+02 -5.97638E+03  1.38064E+04  3.46815E+02  1.13918E+04  1.06122E+04 -1.40870E+03  5.02976E+03
 -2.42576E+03  4.03782E+03 -2.97378E+03 -6.68804E+02  3.43989E+03 -1.13531E+04  1.45011E+04 -1.37790E+04
  1.73941E+04 -7.36777E+03  1.09052E+04  1.02420E+04  1.95432E+03  1.33406E+04 -1.16249E+03  1.22113E+04
 -1.10741E+04  4.84793E+03 -1.04974E+04 -3.37721E+03 -4.33201E+03 -8.83424E+03  1.18427E+03 -7.28791E+03
  8.35112E+03  3.93301E+03  7.06201E+03  6.40723E+03  5.93733E+03  7.06554E+03  9.15089E+02  4.97076E+03
 -5.60530E+03  6.37268E+03 -5.69119E+03  1.75920E+03 -9.25758E+02  2.26322E+03  5.69761E+02  2.75444E+03
 -5.33220E+03  3.42507E+03 -8.69847E+03  1.15758E+04 -1.19447E+04 -5.33556E+03 -1.10295E+04 -1.21281E+04
  1.88076E+03 -1.67100E+04 -2.51378E+03 -1.63576E+04  1.21069E+04 -1.33994E+04  1.82463E+04 -1.64419E+04
  1.04884E+04  2.11708E+03  9.40667E+03  8.72571E+03  1.29082E+04  1.43813E+04 -1.18338E+04  6.99553E+03
 -8.05536E+03  7.58292E+03 -5.95459E+03  1.86431E+03 -1.57255E+03 -2.77273E+03  4.98096E+03  2.70722E+02
 -4.57848E+03  1.03259E+04 -1.32694E+04 -5.81306E+03  1.47130E+03 -9.19518E+03  3.42277E+03 -9.21594E+03
  9.89014E+03 -7.50190E+03  1.09780E+04 -2.07461E+03  7.35763E+03  1.86028E+04  6.21424E+02  1.64722E+04
 -8.37800E+03  1.43956E+04 -1.53000E+04  9.04243E+03 -9.27872E+03 -3.25579E+03 -9.44677E+03 -1.03999E+04
 -4.28197E+03 -1.57346E+04 -6.28850E+01 -1.35853E+04  6.61548E+03 -5.93057E+03  6.01934E+03  4.32357E+03
 -3.07531E+03  2.51742E+03 -3.62112E+03  5.46047E+03 -4.76995E+03 -3.05323E+03 -1.05722E+03 -3.75414E+02
  5.52756E+03 -1.27032E+04  8.12856E+03  4.72232E+03  7.12602E+03  6.64591E+03  5.17356E+02  2.43397E+02
 -8.03825E+03  5.26361E+03 -9.91136E+03  4.04074E+03 -9.44278E+03 -6.49775E+03  4.42060E+03 -2.08720E+04
  1.15895E+04 -1.78183E+04  8.15967E+03  5.54910E+02  1.55998E+04  8.38637E+03  4.69583E+03  7.91865E+03
  4.80573E+03  1.40159E+04  1.26854E+03  1.00359E+04 -2.04859E+02  6.10531E+03 -7.16774E+03  5.99117E+03
 -2.25528E+03  1.72814E+03 -6.39875E+03 -3.24746E+03 -3.40443E+03 -6.10129E+03 -5.89662E+03  1.94841E+03
 -1.05817E+04 -9.31108E+03 -5.39595E+03 -1.27778E+04  5.73053E+03 -6.11189E+03  8.75652E+03 -2.07250E+03
  1.02040E+04  6.95949E+03  2.31339E+02  5.80713E+03  3.38159E+03  9.34722E+03 -4.77928E+03  1.82245E+03
