 $NMID ID='MM_0lb_SNR50_14hz_g50_90.RAW', FMTDAT='(8E13.5)'
 TRAMP=1., VOLUME=1. $END
  3.10626E+05 -1.30375E+03  3.35753E+05  2.54251E+05  8.29915E+04  3.38950E+05 -1.29416E+05  2.46414E+05
 -1.91647E+05  8.13269E+04 -1.10873E+05 -3.17861E+04 -4.98562E+02 -4.59965E+04  5.04798E+04  8.89562E+03
  3.74362E+04  5.19307E+04 -1.72353E+04  7.66792E+04 -5.80281E+04  6.67440E+04 -8.64737E+04  3.55273E+04
 -8.62206E+04 -1.00557E+04 -5.76157E+04 -5.01122E+04 -1.35235E+04 -7.47847E+04  2.53560E+04 -4.45858E+04
  3.72850E+04  7.02399E+03  1.57775E+04  4.68382E+04 -3.16762E+04  4.74019E+04 -6.43388E+04  9.18355E+02
 -5.27780E+04 -5.45246E+04 -4.51497E+03 -7.49905E+04  2.96379E+04 -5.60057E+04  4.85231E+04 -2.04671E+04
  3.99190E+04  9.95692E+03  3.62732E+04  2.74217E+04  1.14709E+04  2.67771E+04 -3.68314E+03  2.73501E+04
 -1.90375E+04  1.20984E+04 -1.64954E+04 -2.63513E+03  3.70232E+03 -3.01187E+03  2.85591E+04  7.91744E+03
  3.85505E+03  3.61390E+04 -3.22379E+04  3.37005E+04 -6.19313E+04  1.12289E+03 -5.05660E+04 -4.40747E+04
 -2.18897E+04 -6.27698E+04  4.09893E+04 -4.26080E+04  5.78277E+04 -5.50887E+02  3.51852E+04  3.33109E+04
 -2.95788E+03  4.07653E+04 -2.78429E+04  1.18832E+04 -2.40866E+04 -3.12987E+03 -1.89757E+04 -6.85284E+03
 -5.48566E+03 -1.17677E+04 -1.28813E+03 -1.63340E+04  4.01417E+03 -2.13959E+04  1.82859E+04 -1.70536E+04
  7.87782E+03  4.08959E+03 -7.80531E+03  5.84732E+03 -1.96872E+04 -3.51248E+03 -7.76599E+03 -3.66023E+04
  2.14135E+04 -4.10840E+04  5.26829E+04 -2.11725E+04  4.11212E+04  1.98216E+04  1.45697E+04  4.07345E+04
 -1.20985E+04  3.35777E+04 -2.62272E+04  2.58653E+03 -5.87911E+03 -2.78805E+04  1.98651E+04 -3.54918E+04
  4.24024E+04 -7.12355E+03  3.69758E+04  2.56300E+04  1.62655E+04  4.76764E+04 -8.89134E+03  4.92350E+04
 -3.80373E+04  3.86310E+04 -4.20294E+04  5.90898E+03 -3.65071E+04 -1.62390E+04 -2.44398E+04 -3.79282E+04
  5.91961E+03 -3.43581E+04  2.61906E+04 -1.27430E+04  2.37162E+04  9.27353E+03  2.37969E+03  1.97121E+04
 -1.54551E+04  7.98287E+03 -6.57377E+03 -2.36335E+03  6.47773E+03 -1.16005E+04  1.96034E+04  5.04649E+03
  1.75069E+04  2.37106E+04 -6.89757E+03  2.46534E+04 -1.90977E+04  7.46966E+03 -2.85890E+04 -8.88931E+03
 -1.78629E+04 -1.39911E+04 -9.02188E+03 -1.78781E+04  4.51979E+03 -1.95531E+04  1.47943E+04 -2.27840E+04
  2.91165E+04 -1.59799E+04  2.99068E+04  1.05164E+03  2.60030E+04  2.13529E+04  6.80302E+03  3.47548E+04
 -1.49382E+04  2.47912E+04 -3.15297E+04  1.23396E+04 -2.07980E+04 -1.21209E+04  1.90001E+03 -1.79022E+04
  2.24805E+03 -1.18138E+03 -5.34317E+03  8.50994E+03 -1.64240E+04  6.24024E+03 -2.02617E+04 -6.69194E+03
 -7.59940E+03 -1.94699E+04  7.36298E+03 -2.45626E+04  1.48722E+04 -1.24023E+04  1.71774E+04 -2.34268E+03
  7.24684E+03  1.27811E+04  1.84075E+03  1.61082E+04 -9.04305E+03  1.07915E+04 -2.10847E+04 -2.95757E+03
 -1.30952E+04 -1.50915E+04 -4.59068E+03 -2.76519E+04  1.14567E+04 -1.56810E+04  2.03560E+04 -7.17409E+03
  1.90863E+04  5.43993E+03  1.38616E+04  2.98538E+03  5.35210E+03 -7.24246E+01  1.01193E+04 -1.24939E+03
  1.92293E+04  8.33386E+03  1.96695E+04  1.11118E+04  1.72960E+04  2.71901E+04 -1.15532E+03  3.27174E+04
 -1.61301E+04  2.83746E+04 -3.31295E+04  6.76649E+03 -3.67335E+04 -1.96524E+03 -3.14576E+04 -1.98864E+04
 -1.39291E+04 -2.52510E+04  1.21287E+04 -2.76135E+04  2.49468E+04 -1.50662E+04  2.39205E+04  9.44322E+03
  5.44214E+03  1.54585E+04 -7.32810E+03  1.27200E+04 -2.08920E+04  6.17712E+03 -7.48367E+03 -1.34461E+04
 -1.66024E+03 -2.07739E+04  6.24452E+03 -1.44238E+04  8.65550E+03  2.16209E+03  2.41994E+03  6.18792E+03
 -4.40143E+03 -8.43358E+02 -6.26401E+03 -9.09392E+03  3.09133E+03 -1.83499E+04  1.30101E+04 -1.04827E+04
  1.93432E+04 -3.20907E+03  2.15801E+04  2.36825E+03  2.07934E+04  1.19903E+04  4.57050E+03  2.27230E+04
 -1.05672E+03  2.09088E+04 -1.47728E+04  1.66497E+04 -1.55158E+04 -3.19619E+03 -1.57758E+04 -5.42926E+03
 -1.08816E+04 -4.30356E+03 -3.18963E+03 -4.96245E+02 -5.65880E+03 -1.63900E+02 -1.56795E+03  4.21162E+03
 -9.22394E+03  3.31319E+03 -1.15299E+04 -9.06084E+03 -2.67464E+03 -1.42081E+04  7.03750E+03 -1.45226E+04
  4.22200E+03 -6.53873E+03  3.09105E+03  1.57598E+03 -2.27809E+03  2.84583E+03 -5.30376E+03  5.76109E+03
 -4.31288E+03 -5.75457E+03  4.40881E+02 -1.14307E+04  8.89884E+03 -1.01326E+04  1.27201E+04 -9.13343E+03
  1.58652E+04  4.31542E+03  1.42359E+04  8.93160E+03  2.61009E+03  1.70378E+04 -7.02459E+03  9.85460E+03
 -9.56479E+03  3.59356E+03 -4.04203E+03 -2.81445E+03 -5.92542E+02 -9.29365E+03  8.62804E+03  3.31928E+03
  3.95504E+03  1.68051E+03 -6.74481E+02  1.14881E+04 -8.34362E+03  5.73051E+03 -1.46218E+04 -2.17683E+03
 -6.22317E+03 -6.74151E+03  7.58182E+03 -9.41132E+03  6.64469E+03 -3.33593E+03  5.16947E+02  3.58313E+03
 -2.07345E+03  6.88539E+03 -4.55843E+03  6.42481E+03 -8.02187E+03  5.84714E+03 -1.03692E+04 -5.42290E+03
 -1.70520E+03 -6.91796E+03  9.29818E+02 -1.14048E+04  9.05622E+03 -8.73384E+03  8.66589E+03  1.63388E+03
  6.90285E+03  8.90214E+03 -6.30546E+02  1.11918E+04 -9.97185E+03  5.71546E+03 -9.06374E+03  2.29052E+02
 -6.09113E+03 -1.24673E+04 -2.48128E+03 -6.65505E+03  4.45031E+03 -9.35816E+03  5.10388E+03 -5.40223E+03
  7.17397E+03  3.90767E+03 -2.10496E+03  3.40798E+03  6.27788E+03 -7.46164E+02  3.18319E+03 -1.79484E+03
  6.57141E+03 -4.55527E+03  7.56310E+03  1.35868E+03  1.09315E+04  6.50069E+03  6.08532E+03  6.56838E+03
 -3.69735E+03  1.77366E+04 -1.39677E+04  1.05788E+04 -1.44253E+04 -5.96497E+02 -1.41971E+04  3.27022E+03
 -6.06569E+03 -1.30441E+04  1.98431E+03 -7.84723E+03  4.52736E+03 -2.88103E+03  4.75286E+03 -1.57452E+03
  3.04031E+03 -5.94090E+02  1.77343E+03 -6.64707E+03  2.45578E+03 -3.42997E+03  5.05841E+03 -2.09089E+03
  1.18395E+04  2.25464E+03  3.63995E+03  7.80751E+03  4.46669E+02  4.74773E+03 -5.23115E+03  2.50969E+03
 -7.47325E+03 -2.46057E+03 -6.78509E+03  1.27667E+03 -3.01997E+03 -8.85600E+03  4.60222E+03 -1.02249E+04
  1.16059E+03 -4.64411E+03  1.16984E+04  1.72344E+03  7.98861E+03  4.89362E+03  7.85478E+02  5.40616E+03
 -2.44648E+03  1.00823E+04 -4.78152E+03  1.88785E+03 -1.01272E+03  9.14616E+02  2.86246E+02 -2.02413E+02
  1.00380E+03  2.77803E+03 -8.99387E+03 -2.81477E+03 -1.03259E+03  8.49294E+02 -8.95520E+03  2.63355E+03
 -5.19101E+03 -5.40616E+03  5.85157E+02 -1.05984E+04  8.37852E+03 -1.17122E+04  8.45804E+03 -4.86500E+03
  5.79222E+03  6.39264E+03  7.72561E+03  5.09078E+03 -2.98242E+03  6.59262E+03 -1.09124E+04  2.49566E+03
 -7.22668E+03 -2.19609E+03 -5.65832E+03 -2.52765E+03 -4.02500E+03 -3.30801E+03  2.87358E+03 -3.36211E+03
  2.45678E+03 -1.97819E+03  6.11583E+03  6.04439E+03  9.31545E+02  6.54182E+03  1.79594E+03  1.54525E+03
  3.61274E+03 -2.12797E+03  1.78951E+03  4.38250E+02  3.05379E+03  3.88426E+03 -5.66233E+02  4.24767E+03
  2.02447E+03  5.37461E+03 -4.62489E+03  8.66282E+03 -4.47855E+03 -3.51759E+02 -5.18399E+03 -2.69997E+03
 -4.32926E+03 -1.16088E+04  7.64057E+03 -6.81179E+03  1.51445E+03 -6.47532E+03  7.88115E+03 -3.78762E+03
  7.71950E+03  4.22156E+03 -1.59784E+02  5.39912E+03 -1.76568E+03  6.51621E+03 -6.28481E+03 -2.58617E+03
 -1.74289E+03  1.32710E+03  5.28145E+03  7.12371E+02  8.86084E+03 -4.00367E+03  1.51592E+03 -9.72110E+02
 -2.14918E+02  6.42363E+02  3.77521E+03 -8.18523E+02  1.51897E+03  1.20584E+03 -7.18844E+02  1.94599E+03
  5.05398E+03 -6.61878E+02  2.68480E+03  3.15743E+03  4.13971E+03  2.51670E+03 -3.21115E+02  4.33556E+03
 -9.32206E+02  6.08509E+03 -3.11518E+03  2.36639E+03 -3.46786E+03 -1.45610E+03 -1.98101E+03 -5.89951E+03
 -2.51856E+03 -5.32214E+03  6.73689E+02 -4.03776E+02  8.86033E+02 -4.94502E+02  1.90414E+03 -7.98518E+02
 -3.58242E+03  1.51921E+03 -3.02139E+03 -2.76679E+01  1.27956E+03 -1.58081E+03  9.21822E+02 -2.82194E+03
  6.34184E+02 -1.35033E+03  4.69597E+03 -4.73611E+02  7.71510E+02 -1.45283E+03 -1.62902E+03  3.90772E+02
 -3.80518E+03  7.68771E+03 -3.44230E+03 -4.45335E+02  2.77058E+02 -7.61809E+03  1.97068E+03 -2.77334E+03
  4.71921E+03  2.00739E+03  6.23889E+03 -1.55170E+03 -1.34015E+03  9.86615E+03  2.64518E+03  2.92062E+03
  6.54604E+02  2.36034E+03  2.08574E+03  1.53844E+03 -5.20043E+03 -7.00605E+03  6.07199E+03  2.88886E+03
  5.91431E+02 -2.68145E+03 -7.83428E+02  2.77395E+02  2.30156E+03  3.49034E+03 -1.83321E+03  5.59652E+02
 -5.19996E+03  4.48321E+03 -1.87015E+03  3.64775E+02 -5.62165E+03 -6.50013E+02  7.35714E+02 -3.93220E+02
 -6.61515E+03  2.24076E+03 -8.30255E+03  3.45242E+03 -1.56225E+03  7.08198E+02 -8.79792E+03  1.03106E+02
 -4.52389E+03 -3.62767E+03 -2.47627E+03 -1.02343E+04  2.66460E+03 -6.14486E+03  6.43837E+03  1.66785E+02
  8.29859E+03  8.56439E+02  3.24758E+03  1.66215E+03  2.89866E+03  1.04911E+03 -6.23953E+03  8.35598E+02
 -9.56122E+02  1.15787E+03 -1.41042E+03  2.21970E+02 -1.98464E+03 -4.76289E+03 -4.62766E+02  5.48804E+03
 -5.28705E+02 -1.82430E+03 -2.18130E+03 -3.66534E+03 -2.16994E+03 -3.07201E+03 -5.65815E+03 -8.14207E+02
 -1.55093E+03 -2.87537E+02  9.63313E+02  3.42318E+02  4.07454E+03  6.50621E+02  2.07196E+03  5.75519E+03
  4.63865E+02  2.77913E+03 -2.61269E+03  6.04153E+03 -5.39214E+03 -5.63896E+03 -9.95815E+02 -4.32448E+03
 -1.32083E+03 -6.15450E+02  1.81904E+03 -2.68978E+03  5.49766E+03 -2.72411E+03  4.84896E+03  1.72569E+03
 -1.43620E+03 -2.62667E+03 -1.09938E+03  1.60780E+03  5.45449E+02 -5.37423E+03  1.07214E+03 -8.51956E+02
  2.09300E+03  1.13479E+03 -5.25698E+02 -6.35429E+02 -1.57789E+03 -9.39452E+02 -1.44654E+03  1.49118E+03
 -1.89640E+03  2.69673E+03 -2.14924E+03 -5.39340E+01  2.49996E+02 -4.13148E+03  1.74369E+02 -2.56619E+03
  7.79102E+03 -4.89716E+03 -1.02439E+03  2.68805E+03 -1.70583E+03  3.54673E+03 -9.80512E+02  4.12592E+03
  2.86522E+03  1.28618E+03 -7.75894E+02 -2.47845E+03 -2.26868E+03  5.98039E+02 -4.08027E+03  2.17934E+03
 -8.40197E+02  3.41958E+03 -5.54171E+02  2.39779E+03 -5.02201E+03 -6.07197E+00 -3.57889E+03 -6.29583E+02
 -7.61784E+03 -6.05470E+03 -1.94668E+03 -3.72181E+03  1.90571E+03  1.49418E+03  1.25911E+03 -3.14372E+03
 -1.08594E+03  3.94965E+03  8.84717E+02  5.58843E+03  2.23305E+03  2.39726E+03 -1.34203E+03  3.16183E+03
