 $NMID ID='MM_0lb_SNR50_12hz_g50_70.RAW', FMTDAT='(8E13.5)'
 TRAMP=1., VOLUME=1. $END
  3.08083E+05  4.99905E+02  3.39396E+05  2.50057E+05  8.60441E+04  3.41382E+05 -1.30304E+05  2.49433E+05
 -1.90391E+05  8.61265E+04 -1.16848E+05 -3.15542E+04  7.97044E+02 -4.78912E+04  4.95638E+04 -2.00780E+03
  3.94222E+04  5.18394E+04 -1.90866E+04  7.67988E+04 -5.83297E+04  6.81016E+04 -8.59728E+04  3.12124E+04
 -7.90792E+04 -1.21575E+04 -5.40447E+04 -5.20782E+04 -1.51392E+04 -7.42428E+04  2.93098E+04 -4.61734E+04
  4.05441E+04  9.36898E+02  1.83960E+04  4.76946E+04 -3.71433E+04  4.91304E+04 -7.31725E+04 -5.03867E+03
 -5.34004E+04 -5.49237E+04 -9.04671E+03 -7.50752E+04  3.35502E+04 -6.02538E+04  4.97243E+04 -1.68293E+04
  4.02648E+04  1.18752E+04  3.46761E+04  3.21083E+04  1.70859E+04  2.77973E+04 -2.65634E+03  2.82196E+04
 -2.23446E+04  1.34787E+04 -1.67565E+04 -8.55196E+03  4.82978E+03 -3.03901E+03  1.80673E+04  8.94609E+03
  7.28564E+03  4.22739E+04 -3.22316E+04  3.55660E+04 -6.39918E+04 -1.12896E+03 -5.89384E+04 -4.33318E+04
 -1.05011E+04 -6.30744E+04  4.21363E+04 -4.61121E+04  6.01299E+04 -2.40536E+03  3.25617E+04  2.68534E+04
 -6.01199E+03  3.51141E+04 -3.35290E+04  1.63680E+04 -2.85192E+04 -1.90140E+03 -1.72536E+04 -9.68442E+03
 -5.53477E+03 -1.55542E+04 -1.50285E+03 -2.27337E+04  6.78722E+03 -2.28001E+04  1.54399E+04 -1.67553E+04
  1.35727E+04  4.58687E+03 -9.12169E+03  1.45778E+04 -2.34097E+04 -7.62148E+03 -2.83928E+03 -3.30038E+04
  2.52071E+04 -4.49867E+04  4.82513E+04 -2.46864E+04  4.76584E+04  1.94359E+04  1.43344E+04  4.49882E+04
 -1.56287E+04  3.36714E+04 -3.13499E+04  5.36657E+02 -1.35559E+04 -2.95888E+04  2.10946E+04 -3.75466E+04
  5.00504E+04 -6.94636E+03  3.94975E+04  2.46839E+04  1.36800E+04  4.67343E+04 -5.71013E+03  5.65254E+04
 -3.66313E+04  3.97843E+04 -4.37493E+04  1.27710E+04 -4.22977E+04 -1.84989E+04 -2.05179E+04 -3.50993E+04
  5.85607E+03 -3.89559E+04  3.30893E+04 -1.07003E+04  2.87501E+04  1.07548E+04  7.63492E+03  1.77344E+04
 -7.54629E+03  9.99404E+03 -1.14339E+04 -1.15668E+04  6.45783E+03 -1.22383E+04  2.01440E+04  7.95358E+03
  1.02298E+04  2.54089E+04 -3.13448E+03  2.99195E+04 -2.45112E+04  1.55392E+04 -3.13596E+04 -7.04633E+03
 -2.04244E+04 -2.31496E+04 -1.07334E+04 -2.04697E+04  8.34280E+02 -2.02751E+04  1.03164E+04 -2.01566E+04
  2.55115E+04 -1.21735E+04  3.43950E+04  5.64737E+03  2.95829E+04  1.75252E+04  5.83768E+03  3.61016E+04
 -1.93820E+04  3.47900E+04 -2.98449E+04  9.95406E+03 -2.32159E+04 -1.09079E+04 -3.62509E+03 -1.89668E+04
  5.58040E+03  5.97019E+02 -2.22591E+03  6.48065E+03 -1.79068E+04  2.97447E+03 -2.18900E+04 -7.32165E+03
 -1.34127E+04 -1.88614E+04  3.25850E+03 -2.60153E+04  1.61474E+04 -1.88197E+04  2.29776E+04  2.68446E+03
  2.06837E+04  1.72860E+04 -4.49707E+03  1.54603E+04 -1.08996E+04  1.48210E+04 -2.48894E+04 -8.17392E+03
 -1.78621E+04 -2.25253E+04 -2.21484E+03 -2.64922E+04  1.25276E+04 -1.76244E+04  1.83112E+04 -1.44964E+04
  2.49886E+04  3.18709E+03  1.97126E+04  8.01939E+03  9.13264E+03  2.03592E+02  8.85848E+03 -2.56756E+03
  1.32919E+04  7.84671E+03  2.52356E+04  1.52088E+04  1.73090E+04  3.31308E+04  2.03992E+03  3.63526E+04
 -1.94635E+04  3.04805E+04 -3.58600E+04  1.92687E+04 -4.35636E+04 -2.35118E+03 -3.01199E+04 -2.57673E+04
 -1.08196E+04 -2.91017E+04  1.35661E+04 -2.46235E+04  2.97890E+04 -1.86495E+04  2.23650E+04  6.36716E+03
  7.55481E+03  1.69600E+04 -7.46933E+03  7.89502E+03 -1.67824E+04  3.30703E+03 -1.17588E+04 -1.27322E+04
 -1.17397E+03 -1.92799E+04  1.02683E+04 -1.18021E+04  1.29777E+04 -4.42373E+03  9.60077E+03  4.52847E+03
 -9.04267E+03  3.31072E+03 -1.22889E+03 -4.26472E+03 -4.67868E+02 -1.27107E+04  9.56278E+03 -1.89775E+04
  2.00969E+04 -9.10017E+03  2.00392E+04  6.44888E+02  2.19642E+04  1.84483E+04  6.88146E+03  1.99545E+04
  2.00418E+03  2.20137E+04 -1.89790E+04  1.60762E+04 -1.93208E+04  5.49853E+03 -1.23845E+04 -4.43925E+03
 -5.69716E+03 -8.63534E+03 -1.00320E+03 -4.60936E+03 -3.32709E+03  6.30588E+03 -5.54605E+03  2.48663E+03
 -1.80365E+04  1.54460E+03 -6.58361E+03 -6.88387E+03 -1.01497E+04 -1.07199E+04  1.91747E+03 -1.34541E+04
  9.25571E+03 -4.09720E+03  9.28759E+03  5.56327E+03  2.32553E+03  2.02157E+03 -4.98956E+03 -5.26778E+03
 -7.09120E+03 -6.45854E+03  5.03998E+02 -8.12924E+03  5.48488E+03 -1.21517E+04  2.05588E+04 -4.45465E+03
  1.73626E+04  1.53247E+03  9.14592E+03  8.86328E+03  1.68817E+03  1.87782E+04 -9.38957E+03  1.45868E+04
 -9.75817E+03  6.58850E+03 -2.12993E+03  1.04751E+03  1.26089E+03 -3.90225E+03  1.08057E+04 -4.56525E+03
  6.16047E+03  6.31127E+03  9.41569E+02  8.25288E+03 -6.11618E+03  9.38927E+03 -1.52453E+04  7.92134E+03
 -8.40724E+03 -6.21400E+03  1.63546E+03 -1.02022E+04  1.07827E+04 -5.35300E+03  8.79771E+03  1.84822E+03
  5.17863E+03  8.82615E+03 -9.88534E+03  4.59960E+03 -7.96072E+03 -3.40732E+03 -1.25764E+04 -2.58053E+03
 -1.89885E+03 -1.11975E+04  4.88360E+03 -1.55848E+04  7.72749E+03 -4.85254E+03  1.13388E+04 -4.81788E+03
  8.43280E+03  5.59543E+03 -6.42682E+02  1.23448E+04 -5.63146E+03  7.33977E+03 -9.48824E+03 -2.00408E+03
 -1.21992E+04 -1.02760E+04 -3.36967E+03 -1.16687E+04  1.43149E+04 -4.51381E+03  3.16956E+03 -4.36433E+03
  2.63358E+03  6.22414E+03 -3.83379E+03  3.77943E+03  3.97518E+03  6.31148E+02  4.02742E+03 -7.33288E+03
  7.93665E+03 -8.38184E+03  1.51058E+04 -2.78694E+03  1.25973E+04  1.05055E+04  1.11428E+04  1.50039E+04
 -6.62775E+02  1.85379E+04 -1.53436E+04  7.26047E+03 -2.13538E+04  7.09032E+03 -1.55371E+04 -6.20411E+03
 -3.56309E+03 -1.37757E+04  8.93024E+02 -7.91279E+03  2.48095E+03 -5.95455E+03  6.77098E+03 -3.35368E+03
  4.59624E+03 -2.80956E+03  5.68790E+03 -6.37918E+02  5.70375E+03 -2.68005E+03  6.29784E+03  4.20105E+02
  5.86168E+03  1.34203E+01  7.35762E+03  9.36075E+03 -1.37250E+03  8.59794E+03 -4.62507E+03  5.77725E+03
 -9.44556E+03  9.40709E+02 -3.69342E+03 -6.81810E+03 -1.03237E+03 -9.76240E+03  9.62952E+03 -9.60381E+03
  1.29253E+04 -8.63324E+03  1.65863E+04  7.00526E+02  1.13197E+04  5.06228E+03  1.45911E+03  1.53141E+04
 -7.06731E+03  4.61472E+03 -7.73701E+03  1.00881E+03 -4.59557E+03 -5.06383E+03 -9.70809E+02  9.73534E+02
  2.77702E+03 -2.46787E+03 -2.25365E+03 -2.13311E+03 -5.09684E+03  7.98145E+03 -5.26934E+03 -6.57933E+03
 -3.59636E+03 -5.79753E+03 -4.69796E+03 -1.28773E+04  3.83746E+03 -1.20998E+04  7.74667E+03 -1.69032E+03
  8.32198E+03  1.03509E+04  8.21465E+03  3.80181E+03  1.34723E+03  5.87753E+03 -2.87648E+03  5.71502E+03
 -1.04705E+04  9.72294E+02 -1.01543E+04 -5.24107E+03 -1.19675E+03 -6.68565E+03  2.54609E+02 -7.89320E+03
  2.87484E+03 -1.69479E+03  4.79688E+03  1.40454E+03  4.10744E+03  7.26778E+03  5.46611E+03  6.85170E+03
  2.47505E+03  5.20624E+03 -7.05064E+01  1.48579E+02 -2.71521E+03  1.51867E+03 -9.60003E+02  9.19341E+03
  4.35377E+03  6.71596E+03 -4.82220E+03  1.32744E+04 -1.15851E+04 -3.94693E+03 -7.87405E+03 -1.04765E+04
 -1.01845E+04 -1.30334E+04  1.75255E+03 -6.18891E+03  7.02572E+03 -7.66822E+03  3.72241E+03 -3.28570E+03
  4.35830E+03  3.31050E+03  6.90913E+03  7.14286E+03 -6.80303E+03  8.27595E+03 -4.75687E+03 -1.17714E+03
 -5.04396E+02 -8.68817E+03 -5.19090E+02 -1.15635E+04 -2.43939E+02 -1.91064E+02 -2.62991E+02 -1.77428E+03
  3.77473E+03  3.83476E+03  1.17199E+03  2.09559E+02  1.30148E+03  1.46485E+03  2.01957E+02  1.35056E+03
 -2.30413E+03 -1.29279E+03  2.19177E+03  1.65001E+03  4.06298E+03  5.94800E+03 -2.53551E+03  2.20896E+03
 -6.31636E+03  3.13427E+03 -4.25566E+03  6.37116E+03 -7.34932E+03  4.16428E+03 -4.55225E+03 -7.61638E+03
 -4.28986E+02 -1.53973E+03 -3.51376E+02  2.78441E+03 -4.61843E+03  4.19539E+03 -5.53151E+03  6.91394E+03
 -6.77482E+03  3.43309E+03  1.61993E+03  1.04444E+03 -6.23143E+03 -6.54746E+03  4.91249E+03 -6.53061E+03
  1.12663E+03 -4.16422E+03  5.19577E+03  2.90784E+03  4.29204E+03  3.74885E+03  2.77371E+03  4.94315E+03
 -3.79525E+03  3.85972E+03 -5.07084E+03 -1.91993E+03  5.89227E+03 -5.74350E+03  1.58867E+03 -1.77668E+03
  2.81768E+03 -3.58475E+01  6.07947E+03 -2.08072E+03  2.77803E+03  9.20079E+03  1.17133E+03  3.31114E+03
 -7.16159E+03  2.04966E+03 -4.68880E+03 -4.24921E+03 -6.66431E+03 -2.00499E+02  1.03745E+03 -1.14156E+04
  3.48511E+03  7.33454E+02  8.32950E+03  5.60225E+03  3.77339E+03 -1.63036E+02  2.98491E+03  3.38145E+03
 -7.36135E+03  3.34367E+03 -1.64735E+03 -2.42588E+03 -5.12391E+03 -3.42377E+03 -5.14445E+03  3.36701E+02
 -3.93214E+03  7.06886E+02 -4.72105E+03  7.26507E+02 -3.65261E+03  4.44446E+03 -1.45508E+04 -5.00451E+03
 -4.36172E+02 -6.09967E+03 -8.29668E+02 -6.48149E+03  1.00208E+04 -7.95133E+03  8.89061E+03 -6.41383E+03
  7.91061E+03  5.01006E+03  1.49144E+03  6.27997E+03 -2.23876E+03  3.98450E+03 -3.17524E+03  1.99315E+03
 -2.07159E+02 -9.27100E+02 -4.82303E+03 -5.46948E+03 -1.98739E+03  2.33748E+03  3.36768E+03 -8.10690E+02
  2.37040E+02  1.59811E+03 -8.52092E+02  2.61494E+03  9.08090E+02  2.84549E+03  6.22196E+02 -1.96067E+03
 -2.84098E+03 -5.84875E+02  5.55503E+03 -4.52277E+03  3.38240E+03  4.89618E+03  3.30496E+02  1.12552E+04
 -5.96077E+03  1.13408E+04 -7.92090E+03  6.90300E+03 -4.80447E+03 -2.76265E+03  1.22237E+03 -5.86078E+03
 -3.23277E+03 -3.51165E+03  1.34840E+03  1.99236E+03  5.02971E+03 -5.99585E+03  4.40333E+03  3.83848E+02
  7.02188E+03  5.87628E+03  2.91352E+03  7.79077E+03  5.47190E+03 -3.27007E+02 -2.59428E+03 -4.38843E+03
  4.71585E+03 -2.06898E+03 -1.20537E+03  3.93024E+03  1.55430E+03  1.22284E+03  3.58086E+03  7.09677E+03
  2.13273E+02 -4.12207E+02 -5.18685E+03 -1.77479E+03 -2.83519E+03 -3.63523E+03 -7.65848E+03 -5.06582E+03
 -2.01885E+03 -2.27558E+03  3.30639E+03  2.47747E+02  4.75932E+03 -6.44370E+02  4.99939E+03  2.45034E+03
  2.53790E+03  7.34587E+03 -9.72547E+02  3.44298E+03  1.15569E+02 -3.54808E+03 -1.12342E+03  6.20179E+03
 -3.64129E+03 -1.98410E+03 -3.05896E+03  2.18384E+00 -3.65091E+02  9.86518E+03  1.24275E+03  1.88402E+02
 -3.32524E+03 -1.66066E+03 -2.31648E+03 -3.14362E+03  2.46102E+03 -5.34015E+03  3.44390E+03 -4.93948E+02
  4.89915E+03 -2.29819E+03  1.95818E+03  3.79236E+03 -4.06136E+03  5.86849E+03 -3.60119E+03  3.32015E+03
