 $NMID ID='MM_0lb_SNR50_17hz_g40_77.RAW', FMTDAT='(8E13.5)'
 TRAMP=1., VOLUME=1. $END
  3.11591E+05  1.69180E+03  3.35309E+05  2.49694E+05  8.44517E+04  3.40304E+05 -1.33959E+05  2.49721E+05
 -1.94327E+05  7.96464E+04 -1.09632E+05 -3.33779E+04  1.33405E+03 -5.35058E+04  5.52101E+04 -4.81151E+03
  3.39539E+04  5.16022E+04 -1.71397E+04  7.46610E+04 -5.87278E+04  5.95321E+04 -7.92655E+04  3.18011E+04
 -8.15481E+04 -7.46204E+03 -5.83653E+04 -5.21208E+04 -1.15076E+04 -7.11729E+04  2.57181E+04 -4.74679E+04
  3.86759E+04  2.76180E+03  1.40643E+04  4.76511E+04 -2.99736E+04  4.93324E+04 -6.47073E+04  5.71061E+02
 -5.39279E+04 -5.37197E+04 -4.56648E+03 -7.82599E+04  3.52622E+04 -5.04380E+04  4.66196E+04 -1.86777E+04
  4.21165E+04  1.16027E+04  3.21357E+04  2.42634E+04  1.42099E+04  2.57873E+04 -6.13261E+03  2.90796E+04
 -2.25466E+04  1.65313E+04 -2.09839E+04 -3.14941E+03  6.39844E+03 -1.11267E+04  1.79369E+04  1.35273E+04
  1.02770E+04  3.21441E+04 -3.28114E+04  3.67611E+04 -6.44164E+04  2.74915E+03 -5.34963E+04 -4.32637E+04
 -1.19512E+04 -6.47540E+04  4.01708E+04 -4.52420E+04  5.78607E+04 -7.78317E+02  3.48442E+04  3.45269E+04
 -8.25315E+03  3.49039E+04 -3.12863E+04  1.04611E+04 -2.48953E+04 -3.20803E+03 -1.28892E+04 -1.14753E+04
 -9.41045E+03 -9.73239E+03 -4.59702E+03 -1.87547E+04  5.96549E+03 -2.28455E+04  1.41470E+04 -1.56167E+04
  1.20097E+04  8.73362E+03 -9.02215E+03  1.62360E+04 -2.06571E+04 -1.91371E+03 -8.96479E+03 -3.21788E+04
  2.24748E+04 -4.06228E+04  4.42402E+04 -1.83987E+04  4.30082E+04  1.86316E+04  1.64148E+04  3.97357E+04
 -1.13447E+04  3.14981E+04 -2.60665E+04  2.25536E+03 -7.68720E+03 -2.63804E+04  2.03508E+04 -3.55971E+04
  3.79010E+04 -6.15024E+03  3.41098E+04  2.12079E+04  1.81274E+04  3.90493E+04 -8.10115E+03  4.34820E+04
 -2.74013E+04  3.00730E+04 -3.58452E+04  1.10436E+04 -3.52431E+04 -1.34018E+04 -2.49508E+04 -3.66071E+04
  6.40048E+03 -3.28503E+04  3.24493E+04 -1.08648E+04  2.52417E+04  1.20931E+04  3.38069E+03  1.88271E+04
 -9.88227E+03  4.65083E+03 -1.24618E+04 -9.76749E+03  7.64659E+03 -1.17293E+04  1.70410E+04  2.64597E+03
  1.38777E+04  2.01202E+04 -3.52216E+03  2.42961E+04 -2.43029E+04  1.18394E+04 -2.77752E+04 -6.74170E+03
 -1.79505E+04 -1.37599E+04 -7.94841E+03 -1.67002E+04  5.93919E+03 -1.54662E+04  1.35886E+04 -1.65898E+04
  2.31211E+04 -1.20046E+04  2.84935E+04  2.91403E+03  2.09769E+04  1.56456E+04  7.15203E+03  3.02929E+04
 -1.04937E+04  2.84786E+04 -2.42602E+04  9.62185E+03 -1.76959E+04 -1.35260E+04 -3.62453E+02 -1.35527E+04
  2.06479E+03 -7.92503E+03 -2.70956E+03  9.90106E+03 -2.09115E+04  4.35944E+03 -1.16688E+04 -8.40247E+03
 -1.05680E+04 -1.43199E+04  3.25396E+03 -1.97431E+04  1.65824E+04 -1.25408E+04  1.40191E+04 -1.47570E+03
  5.89883E+03  9.55594E+03 -3.68422E+03  1.64634E+04 -9.76618E+03  9.98252E+03 -1.61490E+04 -4.84588E+03
 -1.32348E+04 -1.55608E+04 -3.30097E+03 -1.82619E+04  8.13369E+03 -1.72277E+04  1.92288E+04 -6.60912E+03
  1.53978E+04  3.61894E+03  1.66060E+04  2.83733E+03  4.72589E+03 -2.06136E+03  4.76890E+03  3.27607E+03
  1.45830E+04  2.68528E+03  1.44340E+04  1.35969E+04  1.18971E+04  3.18051E+04 -3.79019E+03  2.77614E+04
 -1.66022E+04  1.99631E+04 -2.61422E+04  1.23864E+04 -2.92072E+04 -1.75940E+03 -2.48070E+04 -1.40820E+04
 -1.45244E+04 -1.97229E+04  8.83792E+03 -2.01368E+04  1.99686E+04 -8.40240E+03  1.38112E+04  2.70382E+03
  8.50280E+03  1.25876E+04 -1.07994E+04  1.55571E+04 -1.32782E+04  1.11267E+03 -1.21861E+04 -1.11771E+04
 -1.50946E+03 -1.85906E+04  8.04625E+03 -6.83620E+03  6.34614E+03 -5.28113E+03  4.21548E+02  8.77420E+03
 -4.43875E+03  9.92264E+02 -4.39715E+03 -4.48834E+03  6.54537E+02 -7.42697E+03  1.07889E+04 -1.01464E+04
  1.43820E+04 -5.40171E+03  1.25918E+04  2.91751E+03  1.69726E+04  9.23794E+03  2.82906E+03  1.62615E+04
 -3.76963E+03  1.59051E+04 -1.06322E+04  8.65108E+03 -1.01276E+04  1.68588E+03 -1.42163E+04 -3.79848E+03
 -2.53317E+03 -2.71626E+03  2.39013E+03 -2.43944E+03 -2.84602E+02  5.66927E+02 -1.50780E+03  4.06952E+03
 -9.72358E+03  2.82675E+02 -9.39173E+03 -1.16193E+04  7.92565E+02 -1.36794E+04  3.19244E+03 -1.50173E+04
  1.22649E+04 -2.78650E+03  3.88362E+03  1.39191E+03 -3.56328E+03  5.16467E+03 -4.34813E+03 -7.73411E+02
 -3.65402E+02 -9.13673E+03 -7.24593E+02 -1.06558E+04 -1.63292E+03 -9.76750E+03  8.62786E+03 -3.56596E+03
  8.17412E+03  2.01884E+03  6.20052E+03  5.84786E+03  4.92062E+03  9.22588E+03 -7.45876E+03  8.94788E+03
 -5.57710E+03  6.04966E+02 -3.53379E+03 -2.89766E+03  8.51877E+02 -4.89552E+03  4.89549E+03  3.94310E+02
  5.52332E+03  4.05998E+03  1.16913E+03  6.04185E+03 -5.41262E+03  5.49326E+03 -1.13735E+04  3.82540E+03
 -7.43340E+03 -1.75191E+03 -7.52417E+02 -8.18149E+03  8.73031E+02 -1.80428E+03  4.39360E+03 -3.25514E+03
 -9.44088E+02  1.85861E+03 -5.38828E+03  5.04259E+03 -5.16384E+03  3.22974E+03 -1.04120E+04 -2.07531E+03
 -4.64636E+03 -9.74671E+03  6.57911E+02 -6.81808E+03  7.16886E+03 -8.07186E+03  1.27190E+04  1.34570E+03
  7.48214E+03  5.37325E+03  4.38219E+03  6.28396E+03 -7.98729E+03  4.80079E+03 -4.06537E+03  1.01912E+03
 -7.66387E+03 -6.14220E+03  2.52938E+03 -7.12575E+03  3.78802E+03 -2.37633E+03  2.91465E+03 -3.75765E+03
  6.23780E+03 -1.16066E+03  1.59149E+03  4.55519E+02 -4.69582E+02  2.96625E+02  3.92610E+03 -4.32755E+03
  7.62053E+02 -3.45635E+03  1.05776E+04  7.15973E+02  7.63465E+03  1.91592E+03  3.27083E+03  9.15343E+03
  1.49302E+03  1.44952E+04 -6.61153E+03  7.20537E+03 -1.38927E+04  9.82438E+02 -4.32431E+03 -3.91059E+03
 -6.78106E+03 -7.13706E+03 -2.05997E+03 -5.46991E+03  1.24215E+03 -1.97758E+03 -1.33602E+03 -3.41744E+03
  4.91563E+03 -6.68478E+02  3.79864E+02 -6.71742E+03  1.45702E+03 -6.70345E+02  5.30323E+03  7.78515E+02
 -8.96977E+02  2.56824E+03  2.52189E+03  6.98896E+03 -3.06674E+03  6.02401E+03  2.59161E+03  1.05006E+03
 -6.66223E+03 -1.04872E+03 -3.44653E+03 -4.29795E+03 -2.87070E+03 -5.29910E+03 -3.77067E+02 -6.27101E+03
  2.15685E+03 -3.13545E+03  7.66312E+03  1.40924E+03  4.86967E+03  6.50577E+03  5.83587E+03  8.32402E+03
 -5.91055E+03  1.33057E+04  2.01615E+03  7.57288E+02 -1.04030E+03 -1.76632E+03 -1.42916E+03 -3.89805E+03
 -2.03130E+03  1.13198E+02 -1.78931E+03  2.05805E+03 -9.92066E+01  3.39508E+02 -1.08448E+04  1.21695E+03
 -3.76637E+03 -4.97778E+03  2.77808E+03 -7.75493E+03 -6.99014E+01 -9.78487E+02  8.14370E+03 -5.35365E+02
  1.11642E+04  6.31881E+03  9.43134E+01  5.27976E+03  3.97578E+02  5.33132E+03 -2.45884E+03  1.70249E+03
 -4.24086E+03 -6.56103E+02 -3.26163E+03 -1.01678E+04 -2.80494E+03 -5.18147E+03  5.17694E+03 -3.50183E+03
  4.85961E+03 -4.36594E+03  6.49159E+01 -3.60611E+03  2.84802E+03  4.33616E+03  6.16602E+03 -1.45779E+03
  6.79219E+02  1.12158E+03  1.88380E+03  4.05773E+03  3.16692E+03 -1.26279E+03  2.25078E+03  1.79692E+03
 -5.60433E+02  2.70362E+03 -7.66528E+02  4.96603E+03 -5.87604E+03 -1.85607E+02 -9.01828E+03  1.09900E+03
  6.73491E+02 -4.04255E+03 -1.36824E+03 -5.78371E+03  5.87608E+02  1.51191E+03  3.50644E+03  2.29122E+02
  7.32213E+03  2.26435E+03  5.41416E+02  1.91832E+03 -1.76379E+03  5.82459E+03 -1.23458E+03 -2.66127E+03
 -2.70912E+02  3.32100E+03 -5.42234E+02 -5.23637E+03  2.20127E+03 -9.60204E+02 -3.65591E+03 -9.38679E+02
  3.99846E+03  1.43504E+03  2.76698E+03 -5.79163E+03 -1.30079E+03 -1.69287E+03  1.95991E+02 -4.79154E+01
  1.11626E+03 -1.50672E+03  1.80645E+03 -2.63157E+03 -8.39572E+02  1.18372E+03 -1.90578E+03  4.39593E+03
 -6.08949E+03  1.18232E+03 -6.37774E+03 -2.03627E+02 -2.90451E+03 -1.91815E+03  2.05895E+03 -2.39834E+03
  2.78744E+03  1.10188E+02  2.39367E+02  1.99418E+03  1.52060E+03  2.44055E+03 -2.75142E+03  9.98161E+02
 -5.75549E+03 -2.90956E+03 -1.14910E+03 -3.12555E+03 -2.68208E+03 -1.43078E+03 -1.13401E+03 -5.05071E+03
 -5.17335E+02 -6.99292E+03  2.78807E+03  4.51992E+03  1.62556E+03  5.39984E+03 -1.34490E+03  2.14255E+03
 -2.86554E+03 -1.61730E+03 -7.10325E+02 -1.37718E+03  3.25004E+03 -2.36090E+03  5.20019E+03 -1.59092E+03
  6.89340E+03  2.05781E+03  1.96183E+03 -7.04712E+02  1.02455E+03  3.17183E+03 -1.72658E+03  2.53887E+02
 -1.80583E+03  4.88165E+02 -1.81639E+03 -1.89111E+03 -2.87170E+03 -3.80192E+03  1.98245E+03 -2.20120E+03
  3.12424E+03  2.81030E+03  3.94272E+03  9.86503E+02 -1.16306E+03  5.65123E+03  3.24321E+03 -1.23627E+03
 -6.03842E+02  1.42239E+03 -2.27827E+03 -6.31276E+02  2.15657E+03 -1.66638E+02 -1.26447E+03 -2.38076E+03
 -3.68915E+02  2.97015E+03  2.68413E+02  1.73219E+03 -1.62005E+03  1.01834E+02  4.12745E+02 -4.69964E+03
  6.05852E+01 -3.15122E+03 -2.12693E+03 -2.16906E+03  2.27679E+02 -7.60429E+03  1.82832E+03 -3.53082E+03
  3.59287E+03  1.92670E+03  4.86018E+03  2.84003E+03 -2.33693E+03  5.19341E+03 -1.99552E+03  5.40647E+03
  2.45309E+03 -4.88585E+03  2.07829E+03  2.26988E+03 -1.96876E+03 -4.45739E+03 -8.00309E+02  2.17847E+03
 -2.22531E+03  6.93340E+02 -9.32654E+02 -2.54533E+03  1.98439E+03 -1.74648E+03  9.40159E+02 -3.27085E+03
 -2.51850E+03 -1.97667E+03 -1.58615E+03 -9.45835E+02  1.53702E+02  8.34402E+02 -1.86106E+03  2.64724E+03
  3.21300E+03  3.18331E+03 -5.27362E+03 -2.11386E+03 -3.34705E+03  4.44184E+03 -2.69130E+03 -2.63945E+03
  1.92333E+02 -3.93413E+03 -3.88925E+03 -4.93041E+03  5.76270E+02  3.21792E+03  1.49495E+03 -3.60283E+02
  2.43533E+03 -1.76876E+03 -2.11295E+03  5.57538E+03 -2.06974E+03 -4.52503E+02 -2.26302E+03  2.68781E+03
  5.84150E+02 -3.10509E+02  7.31644E+02 -2.38576E+02 -3.49939E+03 -2.62520E+03 -1.15341E+03 -9.32422E+02
 -2.90220E+03  1.31669E+03 -4.35635E+03  2.48182E+03 -2.94847E+02 -2.83348E+03  6.31263E+00  1.30362E+03
 -4.10020E+02  1.09994E+03  6.74561E+03 -3.24413E+03 -1.19402E+03  1.68062E+03  1.43868E+02  2.47131E+03
  1.12022E+03 -7.56045E+02  1.75031E+02  8.23461E+02 -1.07246E+03  9.20433E+02  1.21503E+03 -2.01742E+03
 -8.93997E+02  4.12829E+03 -2.55247E+03 -1.15699E+03 -1.50635E+03 -1.90301E+03  2.20139E+03  6.17313E+03
 -1.16834E+03 -1.62410E+03 -6.07141E+03 -1.30465E+03 -1.40310E+03 -1.00838E+03 -4.41338E+03  2.10243E+03
 -3.02038E+03  4.68031E+03  1.33541E+03  7.17722E+02  4.18027E+02  3.98690E+03 -1.59592E+03  7.08458E+02
