 $NMID ID='MM_0lb_SNR50_14hz_g55_29.RAW', FMTDAT='(8E13.5)'
 TRAMP=1., VOLUME=1. $END
  3.09625E+05  1.70452E+02  3.37406E+05  2.47608E+05  8.51424E+04  3.39226E+05 -1.31848E+05  2.53410E+05
 -1.89440E+05  8.12022E+04 -1.10859E+05 -2.90915E+04  3.97781E+02 -4.80398E+04  5.40984E+04 -4.63610E+02
  3.44839E+04  5.33565E+04 -1.79995E+04  7.68065E+04 -6.05607E+04  6.60984E+04 -8.62956E+04  3.29683E+04
 -7.61403E+04 -8.21979E+03 -5.86119E+04 -4.69945E+04 -1.76498E+04 -7.62313E+04  3.09393E+04 -4.90285E+04
  4.23711E+04  5.48385E+03  1.72303E+04  5.12387E+04 -3.42260E+04  4.34916E+04 -6.40972E+04 -1.51691E+03
 -5.79469E+04 -5.73234E+04 -3.20604E+03 -7.94107E+04  3.44706E+04 -5.16185E+04  4.86636E+04 -1.46012E+04
  4.47926E+04  1.24067E+04  3.33868E+04  1.97641E+04  1.51198E+04  2.79246E+04 -6.76433E+03  2.84135E+04
 -2.56319E+04  1.80275E+04 -1.75196E+04 -9.45372E+03  3.58472E+03 -5.36423E+03  2.32721E+04  1.16044E+04
  3.85085E+03  3.39278E+04 -2.88236E+04  3.23103E+04 -6.28091E+04  7.79589E+02 -5.61037E+04 -4.30536E+04
 -1.08874E+04 -6.70431E+04  4.05531E+04 -4.10561E+04  6.25958E+04  2.27824E+03  3.20345E+04  3.08395E+04
 -3.89468E+03  3.54969E+04 -2.73045E+04  1.78633E+04 -3.26824E+04 -2.59757E+03 -1.58851E+04 -8.41149E+03
 -1.21653E+04 -1.27531E+04 -3.80756E+03 -2.38519E+04  8.96595E+03 -2.20025E+04  1.37023E+04 -1.13871E+04
  1.31269E+04  7.29724E+03 -1.30763E+04  1.24511E+04 -2.90892E+04 -1.07662E+04 -1.17851E+04 -3.63943E+04
  2.37303E+04 -4.23914E+04  5.02515E+04 -1.60061E+04  4.14568E+04  2.18325E+04  1.09960E+04  4.27245E+04
 -1.09232E+04  3.71205E+04 -2.84259E+04  5.01864E+03 -1.04297E+04 -2.62167E+04  2.29521E+04 -3.36150E+04
  4.07786E+04 -5.11898E+03  3.71739E+04  2.68081E+04  2.32847E+04  4.68354E+04 -4.90954E+03  5.26995E+04
 -3.21969E+04  3.42129E+04 -4.07469E+04  8.29488E+03 -4.63785E+04 -1.47738E+04 -1.84308E+04 -3.77884E+04
  4.94637E+03 -3.83785E+04  3.22843E+04 -1.33206E+04  3.40322E+04  8.88784E+03  2.64060E+03  2.15291E+04
 -1.14289E+04  7.71413E+03 -1.06340E+04 -1.38984E+04  6.30742E+03 -6.65632E+03  1.92667E+04  5.20495E+03
  1.27448E+04  1.81043E+04 -4.50979E+03  1.81297E+04 -2.32927E+04  8.29528E+03 -2.77904E+04 -3.83675E+03
 -2.75217E+04 -1.50965E+04 -5.19654E+03 -2.09218E+04  5.96390E+03 -1.57726E+04  1.56796E+04 -1.85662E+04
  3.05243E+04 -1.16102E+04  3.03560E+04  6.49561E+03  2.06476E+04  2.42018E+04  4.59100E+03  4.05116E+04
 -1.59681E+04  3.04622E+04 -2.61330E+04  1.00132E+04 -2.33880E+04 -1.00477E+04 -6.92988E+03 -1.33812E+04
  1.41272E+03 -2.87874E+02 -4.67820E+03  6.16008E+03 -2.04185E+04  1.49220E+02 -1.93287E+04 -8.81609E+03
 -1.14503E+04 -1.60952E+04  1.18027E+03 -2.64653E+04  1.30873E+04 -1.91700E+04  1.72306E+04 -2.37257E+03
  1.35855E+04  1.71231E+04 -3.57379E+03  1.81622E+04 -9.45153E+03  1.40412E+04 -2.16637E+04 -5.55538E+03
 -1.34718E+04 -1.85067E+04  5.76269E+02 -2.16811E+04  1.33321E+04 -2.32257E+04  1.76791E+04 -1.53167E+04
  1.63859E+04  1.97936E+03  1.32423E+04  5.71550E+03  5.67564E+03  9.33915E+02  5.95619E+03 -2.03047E+03
  1.58432E+04  6.07362E+03  2.26452E+04  1.23824E+04  1.23716E+04  3.06699E+04 -4.62631E+02  3.60789E+04
 -1.89937E+04  3.11681E+04 -3.79963E+04  1.42372E+04 -3.82321E+04 -1.54764E+03 -2.86380E+04 -1.91361E+04
 -6.91204E+03 -2.94687E+04  1.10135E+04 -2.61704E+04  2.23291E+04 -1.42030E+04  1.78744E+04  1.68750E+03
  8.48477E+03  1.20205E+04 -1.45298E+04  1.26581E+04 -1.94531E+04  9.49212E+02 -1.43403E+04 -8.29044E+03
  1.24533E+02 -2.00707E+04  1.26141E+04 -1.30249E+04  9.23096E+03  4.17282E+02  4.76145E+03 -5.11656E+02
 -6.10382E+03  2.55497E+03 -7.89658E+03 -6.78225E+03 -2.83579E+03 -1.40264E+04  1.15773E+04 -1.63487E+04
  1.69502E+04 -7.00733E+03  1.81133E+04  1.35739E+03  1.67678E+04  1.29809E+04  2.51338E+03  2.25763E+04
 -5.16055E+03  3.04839E+04 -1.73193E+04  1.50030E+04 -1.74556E+04 -1.10393E+03 -1.21069E+04 -4.88724E+03
 -5.91217E+03 -7.58413E+03 -3.81406E+03  4.16161E+02 -4.05396E+03  6.30366E+03 -3.44091E+03  4.25236E+03
 -1.51954E+04 -5.24300E+02 -1.58848E+04 -1.00966E+04 -5.90412E+03 -1.25201E+04  1.07336E+04 -1.35288E+04
  7.48819E+03 -6.72852E+03  6.30304E+03  6.44461E+03 -1.61289E+03  2.16156E+03 -9.05152E+03  9.13694E+02
 -1.80056E+03 -5.64160E+03 -2.96695E+03 -8.61036E+03  4.37819E+03 -1.21438E+04  1.45370E+04 -1.05063E+04
  1.28121E+04  2.47321E+03  1.72112E+04  1.18943E+04  2.73092E+03  1.41240E+04 -5.29812E+03  1.17946E+04
 -7.62911E+03 -2.07846E+03 -8.13824E+03 -6.68932E+03  1.84802E+02 -3.26374E+03  2.80820E+03 -4.84893E+03
  5.69418E+03  8.03789E+03  5.16423E+03  4.67397E+03 -9.45538E+03  6.34944E+03 -1.17585E+04 -1.40483E+03
 -7.33090E+03 -9.82597E+02 -3.94187E+03 -1.61781E+04  8.45617E+03 -9.64812E+03  4.09893E+03  1.74009E+03
  8.41146E+02  9.40425E+03 -1.87020E+03  1.43635E+04 -1.04403E+04  2.69301E+03 -5.82944E+03 -8.02354E+02
 -1.16493E+04 -1.40433E+04  3.55696E+03 -1.08387E+04  7.61846E+03 -9.16738E+03  1.23920E+04 -2.05553E+03
  8.58577E+03  8.64436E+03 -1.60677E+03  9.81861E+03 -7.86729E+03  1.35372E+04 -1.07626E+04 -2.59804E+03
 -8.82479E+03 -5.05627E+03 -1.12293E+03 -9.69414E+03  3.91075E+03 -6.01204E+03  6.46817E+03 -3.93534E+03
  1.30886E+03 -8.82066E+02 -2.93514E+03  5.51211E+02 -1.75196E+03 -2.32826E+03  3.74644E+03 -7.69658E+03
  1.07367E+04  2.14634E+03  1.18570E+04  7.84146E+03  1.12880E+04  8.67872E+03  5.34045E+03  1.18883E+04
 -4.90282E+03  1.89091E+04 -8.86755E+03  1.26689E+04 -1.39590E+04  9.19096E+03 -1.11963E+04 -2.58658E+03
 -6.81200E+03 -8.81116E+03  1.89183E+03 -6.31130E+03  5.54065E+02 -1.17435E+04  5.91805E+02 -6.60949E+03
  2.03249E+03 -4.26944E+03 -2.30622E+03  9.71746E+01  6.55009E+03 -3.46902E+03  7.14397E+03  5.09654E+03
  8.66696E+03  2.92605E+03  2.22457E+03  3.91418E+03  2.28381E+03  6.17612E+03 -1.14244E+04  3.13125E+02
 -9.13476E+03 -4.03625E+03 -8.43540E+03 -1.06873E+04 -3.69611E+02 -7.92049E+03  2.65225E+03 -9.87011E+03
  9.39710E+03 -7.53102E+02  1.22890E+04  1.85165E+03  1.37840E+04  8.71020E+03  4.36601E+02  9.85807E+03
 -1.88477E+03  1.09900E+04 -1.81733E+03  3.02756E+03 -3.29214E+03 -5.16175E+03 -5.69870E+02 -2.73116E+03
 -2.37753E+03  6.98753E+02 -6.03096E+02 -7.81767E+02 -5.62735E+01 -2.40789E+03 -4.79327E+03 -6.07704E+03
 -9.85145E+03 -1.30071E+04 -1.56901E+03 -9.52021E+03  5.73652E+03 -4.10434E+03  7.22190E+03 -1.70173E+02
  9.31652E+03  3.66773E+03 -8.09069E+02  5.71689E+03  5.75603E+02  4.87623E+03 -7.05288E+03  4.63583E+03
 -8.85982E+03  2.17744E+03 -7.79145E+03 -3.29234E+03 -4.29355E+03 -2.64723E+03  3.22428E+03 -4.43682E+03
  4.92878E+03 -2.31796E+03  9.13430E+02  1.89238E+03  6.44438E+02  7.29348E+03  1.17255E+03  7.56215E+02
  2.26420E+03  4.00452E+03  4.69650E+03  2.67421E+03  3.25207E+03 -7.56325E+01  3.55856E+03  1.40338E+02
 -3.43285E+03  1.60379E+03 -5.47072E+03  7.07447E+03 -9.97012E+03  3.06605E+03 -1.09452E+04 -1.08323E+04
 -2.27956E+02 -7.33373E+03 -1.62560E+03 -1.10432E+04  8.43000E+03 -4.48269E+03  5.42558E+03 -2.80497E+03
  3.11366E+03  4.23357E+03  1.88886E+03  5.68916E+03 -1.24073E+03  9.72669E+02 -4.52971E+03  1.58963E+03
  1.87848E+02 -3.01627E+03  1.08990E+03 -3.60248E+03  7.76313E+03 -3.80850E+03  4.14746E+02 -1.90449E+03
  9.08616E+02  4.97518E+03  4.55720E+02  1.16878E+03  2.55614E+03  9.88189E+02  5.48614E+03 -5.82319E+02
 -2.35741E+03  7.61028E+02  2.65536E+03  4.97738E+03 -5.53107E+02  7.20309E+02  3.79577E+03  8.93723E+03
 -6.03926E+03 -3.79484E+02 -7.52582E+03 -2.00191E+03 -6.59197E+03 -2.60926E+03  1.98663E+03 -4.15118E+02
  6.91621E+02  2.72490E+03  9.30593E+02 -2.20546E+03  2.71901E+03  4.75070E+03 -1.65155E+03  2.56713E+03
 -4.74718E+03  7.44777E+03 -1.55878E+02 -3.23067E+03 -5.08567E+03 -5.04215E+03 -3.76923E+03  3.00346E+02
  6.87292E+03 -2.37399E+03  2.14130E+03 -9.08700E+01 -2.07863E+03 -1.00913E+03  3.86774E+03  1.28188E+03
  6.71595E+02  3.65489E+03 -8.39401E+02 -3.25767E+02 -1.29419E+03 -2.22433E+03  5.34932E+03 -8.49537E+02
  6.80123E+02  8.34293E+02  4.33103E+03  4.76719E+03  8.43409E+02  6.44272E+03 -3.18801E+03  8.93691E+01
 -5.66958E+03 -2.21084E+03 -2.31822E+03  1.56084E+03 -3.44192E+03 -3.88831E+03 -5.73460E+02  1.15285E+03
  7.11858E+03 -3.79762E+02 -9.46326E+02  1.05143E+03  3.02859E+03  1.69891E+03  7.17852E+02  3.47736E+03
  3.10577E+02  1.06230E+03  1.12837E+03 -2.92740E+03 -2.76420E+03  6.27206E+03  5.28627E+02  7.26891E+02
 -4.41206E+03  6.59158E+03 -5.87884E+03  1.41058E+03 -9.05654E+02  1.00563E+01 -4.72633E+03  3.01149E+03
 -2.61852E+03 -5.96126E+03  1.97074E+03 -4.15243E+03  5.41401E+03 -2.76499E+03  4.97069E+03  1.15461E+03
  5.66582E+03 -3.21867E+02  5.98406E+03  1.58464E+03  1.64797E+03  4.11065E+03 -4.72990E+03  1.67546E+03
  4.92898E+02 -8.61568E+02 -2.81135E+03  1.18280E+03 -4.56119E+03 -5.39072E+03 -3.10243E+03 -4.68146E+03
  7.64817E+01 -2.52845E+03 -3.75500E+03  3.46996E+03  5.01585E+03 -4.41029E+03  1.61373E+03  1.81125E+02
  8.74775E+03  1.11115E+03  5.38541E+02  2.65071E+03  5.89913E+01  1.77350E+02  3.20386E+03  8.79626E+02
 -1.11385E+04  8.84785E+03 -4.56956E+03  1.67798E+03 -6.08139E+03 -1.79552E+03 -4.40690E+03 -2.43310E+03
  1.14891E+03 -2.17681E+03  5.41907E+03 -2.66571E+03  1.10368E+03 -2.01923E+03  1.65366E+03 -2.99823E+03
  3.51897E+03  1.91386E+03 -3.16751E+03  6.24483E+03 -3.35393E+03 -6.40159E+03  4.05399E+03 -8.53424E+02
 -1.41605E+03  1.00920E+03  4.28230E+03  1.25548E+03 -1.50458E+03  1.45149E+03 -2.06652E+03  6.97337E+03
 -9.20850E+03  3.31496E+03 -3.78370E+02 -4.49562E+03 -1.96282E+03 -4.72299E+03 -4.50131E+03 -3.01814E+03
  6.18972E+03 -2.85260E+03 -6.61613E+02  5.99828E+01  7.70303E+02 -3.53045E+03 -2.06695E+03  2.16265E+02
  1.07403E+03  2.72148E+03  6.13896E+02 -6.85559E+02 -2.45583E+03  1.89745E+03 -8.05399E+01 -3.97617E+03
 -8.55887E+02 -2.51290E+03 -3.82884E+03 -2.36849E+03 -2.21340E+03  2.71842E+03  1.30311E+03  3.98746E+03
 -4.26033E+03  2.37133E+03 -2.63043E+03 -1.86383E+03 -1.97680E+03 -4.02219E+03  8.44129E+02  2.84839E+03
 -2.91105E+02 -3.65715E+03 -2.97604E+03  2.40481E+03 -6.94470E+02  5.15520E+03 -4.21158E+03  4.58891E+03
