 $NMID ID='MM_0lb_SNR50_18hz_g45_70.RAW', FMTDAT='(8E13.5)'
 TRAMP=1., VOLUME=1. $END
  3.10461E+05 -4.85936E+03  3.38830E+05  2.49287E+05  8.59096E+04  3.38245E+05 -1.33619E+05  2.54319E+05
 -1.94446E+05  7.86466E+04 -1.14562E+05 -3.31702E+04 -1.89180E+03 -5.07151E+04  5.50192E+04 -3.01382E+02
  3.97014E+04  5.27627E+04 -1.63242E+04  7.39192E+04 -6.24996E+04  5.98491E+04 -8.42348E+04  2.89214E+04
 -8.02074E+04 -5.97580E+03 -5.91329E+04 -5.20398E+04 -1.39780E+04 -6.88561E+04  2.68122E+04 -4.17570E+04
  3.65063E+04  6.95619E+03  1.38605E+04  4.23370E+04 -3.61174E+04  4.77644E+04 -6.41714E+04  1.27261E+03
 -5.46224E+04 -5.59917E+04 -6.59632E+03 -7.91874E+04  3.27513E+04 -5.42448E+04  4.75022E+04 -1.67097E+04
  4.09509E+04  9.72690E+03  3.16189E+04  2.34160E+04  1.56954E+04  3.06031E+04 -4.05286E+03  2.71611E+04
 -2.14162E+04  1.31584E+04 -1.96787E+04 -3.00056E+03  6.20815E+03 -6.46112E+03  2.29506E+04  9.48408E+03
  6.60452E+03  2.91320E+04 -2.59514E+04  3.70117E+04 -6.10190E+04 -2.03876E+03 -5.65043E+04 -3.83567E+04
 -1.72105E+04 -6.13129E+04  3.69844E+04 -4.18297E+04  5.80249E+04 -7.29198E+03  3.59487E+04  2.97658E+04
 -7.91848E+03  3.45289E+04 -3.04738E+04  1.09727E+04 -2.94054E+04 -4.52214E+03 -1.57233E+04 -1.23382E+04
 -5.90330E+03 -1.22345E+04 -3.25827E+03 -1.73390E+04  8.25123E+03 -2.37144E+04  1.55732E+04 -1.41998E+04
  8.91923E+03  6.38224E+03 -9.95319E+03  1.29347E+04 -1.80826E+04 -2.78629E+03 -8.47987E+03 -2.83570E+04
  2.06557E+04 -4.18360E+04  4.37051E+04 -1.97324E+04  4.16774E+04  1.84159E+04  1.46454E+04  4.32621E+04
 -1.75500E+04  2.72795E+04 -2.27924E+04  5.49295E+02 -6.24568E+03 -2.52483E+04  2.37323E+04 -3.39718E+04
  3.60273E+04 -4.34020E+03  3.12858E+04  2.04190E+04  1.54914E+04  4.61675E+04 -7.09552E+03  4.24363E+04
 -2.65244E+04  3.12504E+04 -4.06694E+04  1.02492E+04 -4.49236E+04 -1.07974E+04 -2.52170E+04 -3.29046E+04
  7.31074E+03 -3.32118E+04  2.78573E+04 -1.49481E+04  2.20870E+04  1.15523E+04  5.80540E+03  1.72794E+04
 -1.57519E+04  7.55186E+03 -6.57409E+03 -8.68965E+03  4.02070E+03 -1.31691E+04  1.81515E+04  5.42696E+03
  1.24975E+04  2.21738E+04 -3.53324E+03  2.01911E+04 -2.16840E+04  9.48454E+03 -2.24221E+04 -1.04455E+04
 -1.46536E+04 -1.43386E+04 -8.60669E+03 -1.33798E+04  2.57858E+03 -1.61797E+04  9.60373E+03 -1.21998E+04
  1.69349E+04 -1.29235E+04  2.54301E+04  2.57310E+03  1.78373E+04  1.84150E+04  3.19925E+03  3.59330E+04
 -1.82086E+04  2.97940E+04 -2.70040E+04  6.60820E+03 -1.82163E+04 -8.21905E+03 -5.13672E+03 -1.46794E+04
  3.75495E+03 -5.32559E+03 -6.29101E+03  3.41778E+03 -1.11916E+04  5.33234E+03 -1.38878E+04 -6.52833E+03
 -6.82250E+03 -1.64030E+04  5.58064E+03 -1.90995E+04  1.48543E+04 -1.05309E+04  1.17476E+04  7.59883E+01
  4.40774E+03  8.58104E+03  1.51849E+03  1.62755E+04 -6.81325E+03  9.84635E+03 -1.54734E+04 -5.73200E+03
 -1.35717E+04 -1.76218E+04  5.08552E+02 -1.80536E+04  3.35444E+03 -1.99218E+04  1.84296E+04 -4.86777E+03
  1.27461E+04  1.60927E+03  8.91599E+03  5.19175E+03  9.69024E+03 -5.28812E+03  5.37751E+03 -3.76765E+03
  1.43419E+04  2.36967E+03  1.63530E+04  1.57301E+04  9.34193E+03  2.69471E+04 -5.71156E+03  2.39963E+04
 -1.30397E+04  2.79896E+04 -2.59649E+04  1.20162E+04 -2.70207E+04 -1.17112E+03 -2.36710E+04 -1.27502E+04
 -1.25127E+04 -1.96827E+04  6.27844E+03 -1.36288E+04  1.16483E+04 -1.29990E+04  1.68935E+04  5.93477E+03
  1.02523E+04  8.20826E+03 -4.19141E+03  1.09988E+04 -1.54993E+04  3.93565E+03 -9.42677E+03 -1.00878E+04
 -1.30646E+03 -1.42190E+04  4.95762E+03 -1.30968E+04  9.37027E+03 -3.54544E+03  8.47374E+02  9.47214E+03
 -5.29871E+03  7.11078E+02 -4.79628E+02 -6.15528E+03  4.02970E+01 -9.81286E+03  1.03391E+04 -8.25239E+03
  9.83803E+03 -6.37451E+03  1.56315E+04  2.54256E+03  9.18781E+03  1.08051E+04  3.55650E+03  1.77368E+04
 -7.94775E+01  1.86611E+04 -4.95666E+03  8.76042E+03 -6.43343E+03  2.69967E+03 -5.88315E+03  2.80688E+03
 -3.73793E+03 -1.82827E+03  2.96331E+01  2.33750E+03 -2.61519E+03  3.92888E+03 -9.83994E+02  3.90705E+03
 -8.64868E+03 -2.61944E+03 -1.05039E+04 -9.71325E+03 -7.57044E+03 -8.14032E+03  5.27225E+03 -6.14564E+03
  6.14829E+03 -2.64770E+03  5.47155E+03  2.99058E+03 -1.00748E+03  4.62608E+03 -1.96255E+03 -2.53354E+03
 -1.60908E+02 -4.12509E+03  2.52041E+03 -9.79602E+03  1.55817E+03 -9.34935E+03  1.22163E+04 -3.89559E+03
  9.49443E+03 -5.64037E+03  9.88234E+03  7.99460E+03  2.73037E+03  8.35089E+03 -3.80434E+03  8.42657E+03
 -7.27565E+03  5.95493E+03 -5.79785E+02 -2.63430E+03  2.26481E+03 -2.85381E+03  5.22550E+03 -2.15839E+03
  8.09435E+03  4.88366E+03 -2.77345E+03  1.19183E+04 -6.80784E+03  9.73524E+03 -7.87540E+03  2.22247E+03
 -5.66592E+03 -1.19779E+03  3.24004E+02 -7.47252E+03  7.28407E+03  3.08705E+03  4.42357E+03 -1.86948E+03
 -1.91978E+02  2.75794E+03 -2.82592E+03  5.09500E+03 -7.02003E+03  3.13974E+03 -4.08192E+03 -1.11634E+03
 -2.02049E+03 -5.27782E+03  5.61408E+02 -5.93135E+03  1.24809E+03 -5.35143E+03  3.63797E+03 -2.62224E+03
  5.31992E+03  7.53755E+03 -1.06186E+03  3.63438E+03 -5.43429E+03  8.80700E+03 -5.51078E+03 -4.34026E+03
 -5.98616E+03 -4.21778E+03  4.64959E+02 -5.33879E+03  1.88470E+03 -6.14046E+03  6.73820E+03 -5.36351E+03
  6.80084E+03 -1.50387E+02  8.41471E+01  2.55455E+03 -8.58596E+02 -2.14364E+03  1.46079E+03 -4.36943E+02
  5.19288E+03 -3.73781E+03  7.30112E+03  2.12440E+03  5.99900E+03  9.29662E+02  3.35862E+03  5.68168E+03
 -2.35335E+03  6.77269E+03 -8.54528E+03  8.55050E+03 -7.26568E+03  7.99574E+02 -8.13541E+03 -4.72021E+03
 -7.96578E+03 -3.76236E+03  4.08069E+02 -6.13599E+03  7.03197E+03 -5.54889E+02 -3.24432E+03 -2.69415E+03
  2.24522E+03 -6.62889E+01 -1.21697E+03 -1.61620E+03  4.34387E+03 -3.89705E+03  4.78297E+03  3.09231E+03
  6.75812E+03  1.22760E+03 -6.96007E+02  5.84484E+03 -3.40581E+03  7.31457E+03 -2.01275E+03 -1.28486E+03
 -7.57603E+03  2.08798E+03 -1.79721E+03 -2.54620E+03  1.92719E+03 -3.01138E+03 -1.17147E+03 -4.60661E+03
  5.26471E+03 -7.98399E+03  5.39224E+03  4.04067E+03  3.02689E+03  8.47676E+03 -5.74979E+02  4.96371E+03
  2.75201E+03  3.62547E+03 -7.09253E+03 -5.07112E+02  3.29855E+03  2.73032E+03 -1.11269E+03 -7.82405E+02
 -1.86519E+03 -3.75824E+03 -5.85141E+03  1.08592E+03 -3.48807E+03 -1.79226E+03 -6.20797E+03 -1.46489E+03
 -4.35545E+03  2.73081E+03 -4.23442E+03 -2.27810E+03  2.02668E+03 -3.64098E+03  4.51810E+03 -5.21350E+02
 -6.32053E+01  4.00574E+03  1.88884E+02  4.83024E+03 -5.56979E+02  7.71879E+02 -2.06077E+03  4.95431E+03
 -3.98997E+03 -2.38530E+03 -4.27096E+02 -4.27706E+03  4.18523E+03 -1.15313E+03  3.60449E+03 -3.05240E+02
  1.36510E+03 -3.01702E+02  4.81554E+03  8.98107E+02  5.57702E+02  2.59612E+03 -1.82757E+03 -2.65273E+03
  2.82953E+03  3.53478E+03  1.73257E+03  6.99892E+02 -1.42502E+02  6.37511E+03 -2.69147E+03  2.09123E+03
 -1.04561E+03  5.54495E+03 -1.41936E+03  6.85516E+03 -3.87071E+03 -4.40245E+02 -6.15510E+03 -2.08028E+03
 -1.66562E+03 -6.43365E+02 -2.76599E+03 -4.58287E+03  9.44860E+02 -3.89065E+03  4.12392E+03  1.67746E+03
 -7.79395E+02  3.21552E+03  3.75803E+03  3.22121E+03 -9.11499E+02  3.94454E+03 -4.71366E+03  3.42234E+03
 -1.81174E+03 -3.83786E+02  9.84878E+02 -1.91982E+03  1.91187E+03 -4.58430E+03 -5.38598E+02  3.27563E+02
  2.77887E+02  1.70571E+03  2.01154E+02  2.66340E+03 -1.69026E+03  4.00802E+03 -3.95589E+03 -1.34972E+03
  3.90474E+03 -2.73505E+03  3.12357E+02  4.70172E+03 -1.35672E+03  3.31064E+03  3.06271E+03  3.07005E+03
 -3.06833E+03 -5.31429E+02 -8.29719E+03 -3.76131E+03 -1.79053E+03 -2.97834E+03 -9.60217E+01  8.43397E+01
  3.20051E+03  1.50596E+03  3.14085E+03 -1.56876E+03 -4.92552E+02 -4.51372E+02 -2.70493E+03  3.96377E+02
 -6.58078E+03  1.64502E+03 -1.77126E+03 -1.76173E+02  1.97633E+03 -3.69303E+03  4.92816E+02  3.23745E+03
 -8.08096E+01  9.07276E+02 -9.52076E+02 -3.32042E+02  5.82410E+03 -1.09187E+03 -5.12580E+02  1.76459E+03
  2.16982E+03  3.52053E+03 -4.40038E+02 -1.78338E+03 -7.78886E+02 -3.57962E+03  2.70207E+03  2.82679E+03
 -1.61892E+03  2.50914E+03  5.03005E+03 -3.39533E+03  3.14462E+03  7.00973E+01 -7.01175E+02 -2.47740E+02
 -3.57091E+03 -2.35628E+02 -3.05132E+03 -3.55735E+03 -4.42440E+03  4.43226E+03  2.06839E+02  1.66904E+03
  3.22277E+03 -1.87026E+02  1.36248E+03 -5.75960E+02  2.41072E+03  7.43721E+03  9.00365E+01  4.64269E+02
 -4.65895E+03 -1.67961E+03 -3.52774E+03  1.13779E+03  2.90061E+02  2.07227E+03 -8.53469E+02 -1.15557E+03
 -3.11975E+03  3.94112E+03 -4.04798E+03 -2.55020E+02 -4.96103E+02  1.79865E+03 -1.81327E+03 -9.61158E+02
 -2.00823E+03 -1.03919E+02  2.44663E+03 -5.73345E+03  2.56580E+03 -1.96878E+03  1.85514E+03 -4.50846E+03
  3.21568E+03 -7.62908E+02  1.55484E+03  3.69128E+02 -4.35486E+03  2.68424E+02  8.68392E+02 -6.64275E+02
 -4.24994E+02  7.48931E+00  6.81400E+02  1.81090E+02  2.07071E+02 -4.19336E+02  2.85402E+03  2.20801E+03
 -3.81844E+02 -2.37822E+03  4.36928E+02 -2.86101E+03 -1.41755E+03  1.26031E+03  3.04751E+03  1.09488E+02
 -2.57360E+02 -2.70056E+03  4.65524E+03 -2.51795E+03  3.14650E+03 -1.57394E+02 -9.37276E+02  3.12516E+03
 -2.23430E+03  5.95326E+03  4.93219E+02 -9.44667E+01 -1.52876E+03  7.73707E+02 -4.43063E+03 -2.93425E+02
 -1.32095E+03 -1.26419E+03 -5.45441E+03 -5.24986E+03 -7.61250E+02 -3.51277E+03  1.18668E+03  2.43841E+03
  2.52686E+03 -3.14570E+01 -2.30346E+02  9.00978E+02 -9.23513E+02 -7.50646E+02  8.78277E+02  1.14353E+03
  2.93158E+03  7.11983E+01  3.64591E+03  2.38908E+03 -2.15548E+03 -2.54830E+03  1.09801E+03 -1.12826E+00
 -6.37315E+02  3.80876E+03 -1.86684E+03  4.97242E+03 -1.17381E+03  1.47937E+03 -3.69177E+03 -1.10927E+03
 -1.01584E+03 -2.53926E+03  9.95812E+02  1.07047E+03  7.16723E+02 -1.04390E+03 -1.37630E+03 -4.01581E+03
 -1.11209E+03  2.52265E+02  2.49405E+03  3.33314E+03 -2.10455E+03  8.79094E+02  1.14551E+03 -3.81799E+02
 -1.71960E+03  4.54196E+02  8.97218E+02  1.77148E+03  2.66690E+01  2.15562E+03 -4.15696E+03  8.16018E+02
 -1.28598E+03 -1.44781E+03  2.70513E+03 -5.87187E+02  6.98997E+02 -4.22292E+03  3.23149E+02  1.47192E+03
  6.00818E+02  4.31502E+02  1.52571E+03  1.68889E+03 -3.38012E+03  3.85069E+03  1.01851E+03  8.47146E+00
