 $NMID ID='MM_0lb_SNR50_7hz_g55_79.RAW', FMTDAT='(8E13.5)'
 TRAMP=1., VOLUME=1. $END
  3.09508E+05  6.07694E+03  3.41064E+05  2.49947E+05  9.22627E+04  3.38361E+05 -1.31599E+05  2.47617E+05
 -1.89783E+05  8.61012E+04 -1.12341E+05 -2.58625E+04  1.84653E+03 -5.82790E+04  5.19395E+04 -2.88460E+03
  2.87777E+04  5.44804E+04 -1.69028E+04  7.26544E+04 -6.29109E+04  6.02606E+04 -9.34260E+04  3.82344E+04
 -8.67963E+04 -1.41470E+04 -5.84587E+04 -4.29346E+04 -1.16410E+04 -6.47898E+04  2.61777E+04 -4.34438E+04
  4.25561E+04 -1.45395E+03  2.08727E+04  4.51819E+04 -3.02738E+04  5.19335E+04 -6.86625E+04  9.99483E+02
 -5.35408E+04 -5.16438E+04 -7.84893E+03 -8.58157E+04  3.78081E+04 -5.91127E+04  4.98338E+04 -1.74946E+04
  4.48201E+04  1.40004E+04  2.28243E+04  2.69242E+04  1.07114E+04  3.07162E+04 -1.99250E+02  2.05296E+04
 -2.86380E+04  2.05667E+04 -1.83154E+04 -4.34313E+03  7.45311E+03  8.18772E+02  2.81370E+04  1.85360E+04
  7.98831E+03  3.74032E+04 -3.67300E+04  3.66036E+04 -7.00897E+04  3.78325E+03 -6.26785E+04 -4.71444E+04
 -2.80611E+03 -6.37671E+04  3.67471E+04 -4.39023E+04  6.68128E+04 -4.66160E+03  3.38088E+04  3.63525E+04
  1.36645E+03  4.03665E+04 -3.46322E+04  3.03272E+04 -3.08296E+04 -4.27421E+03 -2.24683E+04 -4.56006E+03
 -9.02982E+03 -2.50928E+04  8.68869E+03 -1.88814E+04  7.20375E+03 -1.98086E+04  1.69547E+04 -9.79923E+03
  1.00575E+04  9.95860E+03 -7.41888E+03  1.79735E+04 -1.30452E+04 -1.14504E+04 -9.72026E+03 -3.94044E+04
  2.65883E+04 -5.01915E+04  5.03158E+04 -1.85585E+04  5.05032E+04  2.66638E+04  1.51230E+04  4.81232E+04
 -2.50845E+04  3.61883E+04 -2.47281E+04  5.02166E+03 -1.31457E+04 -3.23652E+04  2.52729E+04 -3.92927E+04
  4.80440E+04 -7.00636E+03  4.19630E+04  2.43712E+04  1.87930E+04  5.26078E+04 -1.32380E+04  5.47887E+04
 -2.95091E+04  3.82193E+04 -4.84059E+04  1.33717E+04 -5.35217E+04 -1.80685E+04 -3.05195E+04 -3.95541E+04
  7.07952E+03 -4.80014E+04  3.19215E+04 -1.82859E+04  3.46657E+04  1.47885E+04  3.08473E+03  2.54455E+04
 -1.04707E+04  1.02491E+04 -1.30457E+04 -3.51594E+03  8.78427E+03 -8.90703E+03  2.04539E+04  4.53134E+03
  1.92831E+04  1.77196E+04 -4.98676E+03  2.83833E+04 -2.16561E+04  1.28901E+04 -3.41195E+04 -2.58059E+03
 -3.34945E+04 -2.02714E+04 -1.20312E+04 -2.41699E+04  3.82623E+03 -2.30327E+04  2.28691E+04 -2.60894E+04
  3.69499E+04 -4.18529E+03  4.14516E+04  3.17130E+03  3.07280E+04  2.67805E+04  6.97260E+03  4.84842E+04
 -2.51420E+04  3.65422E+04 -3.17459E+04  1.91698E+04 -2.41708E+04 -9.46826E+03 -9.62253E+03 -1.70410E+04
 -3.88616E+03 -1.51543E+03 -1.06702E+04  7.34448E+03 -2.57554E+04  7.08059E+03 -1.84049E+04 -1.02729E+04
 -9.47598E+03 -2.73883E+04  8.14863E+03 -3.18231E+04  1.99559E+04 -3.70570E+04  2.82494E+04  4.62475E+03
  1.01726E+04  1.70021E+04  4.33432E+03  2.28582E+04 -1.78395E+04  1.59910E+04 -2.46644E+04  1.93916E+03
 -2.01602E+04 -2.41398E+04 -1.14518E+04 -3.52988E+04  5.14368E+03 -2.34600E+04  3.48104E+04 -1.05413E+04
  2.60169E+04 -4.66964E+03  1.62339E+04  8.39628E+03  1.44361E+04  3.04829E+03  1.57658E+04 -3.69668E+03
  2.16955E+04  4.76781E+03  3.01665E+04  2.51064E+04  1.87947E+04  4.69698E+04 -1.97807E+03  5.34354E+04
 -1.90465E+04  5.04372E+04 -4.83940E+04  1.88152E+04 -4.05913E+04  4.20231E+03 -3.86095E+04 -2.63495E+04
 -1.46854E+04 -4.66934E+04  1.79462E+04 -3.20195E+04  3.43691E+04 -2.58975E+04  2.41022E+04  1.31560E+04
  9.23837E+03  2.45905E+04 -2.21243E+03  1.65115E+04 -3.19445E+04  1.20505E+03 -1.76185E+04 -2.02363E+04
  7.34512E+03 -2.28518E+04  6.79777E+03 -1.87751E+04  1.02829E+04 -2.45798E+03  3.55053E+03  1.23321E+04
 -1.11389E+04  1.21566E+04 -8.01149E+03 -8.28093E+03 -4.19572E+03 -1.96244E+04  9.81342E+03 -2.23330E+04
  3.04282E+04 -7.97848E+03  2.66402E+04  7.35541E+03  2.74406E+04  1.80648E+04  1.10750E+04  3.20545E+04
 -8.82920E+03  3.40532E+04 -2.57433E+04  1.77630E+04 -2.53140E+04  7.08371E+03 -1.64756E+04 -8.25137E+03
 -6.92068E+03 -9.68462E+03 -6.42583E+02 -3.28297E+03 -3.58926E+03  5.96700E+03 -1.19061E+03  5.87039E+03
 -1.40166E+04 -3.57494E+03 -1.92444E+04 -1.67522E+04 -7.94359E+03 -2.74164E+04  3.29395E+03 -2.30534E+04
  2.61071E+04 -5.04143E+03  8.06527E+03  1.05702E+04 -4.03785E+03  6.49390E+03 -6.94753E+03 -7.80240E+02
 -4.55569E+03 -1.15201E+04 -5.54105E+03 -1.26923E+04  5.74385E+03 -1.99278E+04  2.72166E+04 -5.99258E+03
  2.98949E+04  1.87179E+03  2.69321E+04  1.09298E+04  1.35031E+03  2.88090E+04 -8.41322E+03  2.11162E+04
 -1.77915E+04  5.35955E+03 -1.19225E+04 -3.72267E+03 -2.94195E+03 -6.44537E+03  1.34046E+04 -1.49116E+03
  9.60337E+03  1.16722E+04  5.74795E+02  1.02277E+04 -1.04044E+04  1.77744E+04 -1.72056E+04  6.53370E+03
 -3.78092E+03 -1.07218E+04 -7.04795E+01 -1.23285E+04  1.43999E+04 -4.74485E+03  1.55762E+04 -4.61875E+03
  5.21345E+03  1.51777E+04 -5.65342E+03  1.67640E+04 -1.34981E+04  8.24444E+03 -1.40958E+04 -5.23932E+03
 -1.39712E+04 -1.51568E+04  8.95669E+03 -1.65203E+04  1.89967E+04 -1.49467E+04  2.19785E+04 -4.15211E+03
  1.24116E+04  3.91386E+03 -5.34790E+03  1.76369E+04 -8.48930E+03  1.29386E+04 -1.51942E+04 -2.27296E+03
 -7.91252E+03 -1.14267E+04  4.97739E+03 -1.40746E+04 -1.63536E+02 -3.75958E+03  8.05511E+03 -8.66851E+03
  1.79962E+04  7.70066E+03 -1.12011E+03 -2.10507E+02  3.34985E+03 -6.20000E+03  5.68043E+03 -9.58646E+03
  1.53079E+04 -9.55452E+03  2.09366E+04  4.02061E+03  1.90247E+04  1.12782E+04  8.94664E+03  2.76763E+04
 -1.06074E+04  4.10761E+04 -2.81655E+04  2.74708E+04 -3.11682E+04 -4.89144E+03 -3.03275E+04 -5.22277E+03
 -1.23030E+04 -1.99535E+04  1.15091E+03 -1.91059E+04  1.08185E+04 -1.56823E+04  1.07571E+04  7.36536E+02
  7.87002E+03 -7.04859E+03  1.25009E+04  4.85016E+03  8.74553E+02 -1.33966E+04  1.02560E+04 -2.45078E+02
  1.03498E+04  3.02840E+03  1.34398E+04  1.76676E+04 -7.22124E+03  1.97106E+04 -1.20435E+04  7.95111E+03
 -1.86788E+04 -6.12500E+03 -1.05387E+04 -1.54701E+04  7.11346E+02 -2.08003E+04  1.28205E+04 -2.25559E+04
  2.09484E+04 -1.61728E+04  2.26493E+04  7.66557E+03  1.75452E+04  1.58731E+04  5.80404E+03  1.68781E+04
 -6.54050E+03  2.39060E+04 -8.13379E+03  4.50291E+03 -2.06755E+04  2.64069E+02 -4.24426E+03 -4.56931E+03
 -3.49147E+03  1.33955E+03  1.69765E+03  1.25495E+04 -9.46790E+03 -1.13517E+04 -9.44537E+03 -3.92753E+03
 -2.25521E+03 -1.17095E+04 -5.10407E+03 -2.38253E+04  1.33353E+04 -2.18466E+04  1.70170E+04 -8.73832E+03
  1.72221E+04  9.83376E+03  1.12907E+04  1.35519E+04 -3.84464E+03  2.42082E+04 -1.34069E+04  1.97018E+04
 -1.69325E+04  2.66315E+03 -1.43662E+04 -4.82947E+03  3.98007E+01 -1.64972E+04  1.39511E+04 -1.10457E+04
  7.28889E+03 -2.56358E+03  1.51803E+04  3.89922E+03  8.08615E+02  2.09983E+02  6.93186E+03 -3.99385E+03
  5.99972E+03 -3.78337E+03  1.03514E+03  2.82116E+03  4.31448E+03  9.58890E+03 -5.61607E+02  7.23335E+03
 -5.29321E+03  1.37359E+04 -9.57120E+03  2.01178E+04 -1.10780E+04  5.08128E+03 -1.74615E+04 -7.86806E+03
 -9.77305E+03 -1.41435E+04  7.05030E+03 -1.65659E+04  1.78054E+04 -1.41053E+04  1.20950E+04 -1.13628E+04
  1.57317E+04  6.31129E+03 -1.18157E+01  4.87933E+03 -8.85573E+03  4.22415E+03 -9.80432E+03 -2.45727E+03
 -8.48068E+03 -1.28896E+04  1.82168E+04 -9.61515E+03  8.51664E+03 -5.40482E+03  1.35495E+04 -2.21835E+03
  3.63916E+03  1.96637E+03  2.11078E+03  6.45387E+02 -2.93596E+03 -9.93857E+02  7.39463E+03 -1.75776E+03
  7.63067E+03  1.73606E+03  1.92847E+04  6.55263E+03  2.39935E+03  9.87280E+03 -2.06215E+03  1.66207E+04
 -6.80227E+03  1.02565E+04 -1.07273E+04  3.10233E+03 -1.03137E+04  8.66481E+02  1.13895E+03 -1.63193E+03
  2.28069E+03 -1.62925E+04  1.43464E+04 -4.41355E+03  6.70761E+03  2.21500E+03  2.58032E+03  7.57341E+03
 -8.39146E+03  1.48837E+04 -5.85451E+03 -1.14208E+04 -8.60051E+03 -1.13986E+04 -4.37612E+03 -1.13929E+04
  6.63475E+03 -4.39792E+03  3.25065E+03 -5.97968E+02  1.12596E+04  5.94036E+03  3.22366E+03  1.18627E+04
 -2.69206E+03  3.11951E+03 -3.78069E+01 -6.06539E+03 -3.18515E+03 -8.28673E+03  4.90062E+03  4.73676E+03
  1.56155E+04 -5.36602E+03  1.37854E+04  6.08409E+03  7.02816E+03  1.91230E+04  5.22568E+02  1.44297E+04
 -8.96740E+03  6.43673E+03 -1.36599E+04  4.34440E+03 -4.27963E+03 -7.80511E+03  3.74472E+03 -7.59646E+03
  4.37298E+03 -5.59177E+03  1.18921E+04  9.86091E+03 -1.55813E+03  1.59657E+04 -4.19815E+03  4.44444E+03
 -2.29463E+03  3.95291E+03 -3.47499E+03  3.66038E+03 -1.11519E+03  8.73144E+03 -8.29802E+03 -5.44334E+03
 -3.44602E+03 -3.37020E+03 -9.89006E+03  1.19777E+03 -1.61663E+04  3.24808E+03 -1.45106E+04 -6.17941E+03
 -1.58154E+04 -2.25221E+04 -8.02691E+03 -1.80901E+04  1.42596E+04 -2.46130E+04  2.53618E+04 -5.52074E+03
  1.73547E+04  6.81832E+03  1.14428E+04  2.00735E+04  8.43238E+03  1.16632E+04 -8.68222E+03  1.13769E+04
 -8.19096E+03  1.67716E+03 -6.70204E+03  3.19273E+03 -4.74769E+03  6.21676E+02 -3.33568E+03 -1.62828E+02
  4.23074E+02 -3.30740E+03 -1.20093E+02 -2.57221E+03 -6.55997E+03  4.67940E+03 -6.05377E+03 -9.53860E+03
  1.39478E+04 -8.17812E+03  1.36378E+04 -3.40504E+03  1.41718E+04  8.14040E+03  2.96522E+03  1.81321E+04
 -5.65261E+03  1.35147E+04 -1.45380E+04  2.17766E+03 -1.91911E+04 -7.18319E+03 -1.51364E+04 -9.48526E+03
 -5.66975E+03 -1.10001E+04  2.90045E+03 -7.48355E+03  1.06606E+04 -8.58070E+03  1.25421E+04  4.21851E+02
  8.30088E+03  1.05768E+04 -4.51518E+03  3.41143E+03 -7.71058E+02 -1.54782E+03 -7.60581E+02 -9.60069E+02
  3.49516E+03 -7.58999E+03  7.85499E+03  6.44152E+03  2.23373E+03  1.60847E+03  8.87541E+02  1.19396E+04
 -8.19412E+03  9.62633E+03 -1.06884E+04 -4.70965E+03 -4.64121E+03 -5.09052E+03 -9.34484E+03 -9.70070E+03
  7.11238E+03 -1.46313E+04  1.14720E+04  1.06958E+03  1.31795E+04  1.72491E+03  7.67150E+03  1.04503E+04
  4.21653E+02  7.38669E+03 -1.15115E+03  4.73188E+03 -1.34975E+04  6.35173E+03 -3.78386E+02 -9.19421E+02
 -1.12666E+03 -5.30320E+03 -4.37354E+03  2.45087E+03 -7.54586E+03 -4.87193E+03 -1.23936E+04 -2.63032E+02
 -6.11305E+03 -6.42393E+03  2.54868E+03 -1.63476E+04  3.49783E+03 -1.31375E+04  1.54306E+04 -5.13770E+03
  8.53978E+03 -2.81803E+03  1.01003E+04  8.74793E+03  5.30247E+03  1.42590E+03 -4.21981E+03  6.18771E+03
