 $NMID ID='MM_0lb_SNR50_15hz_g50_74.RAW', FMTDAT='(8E13.5)'
 TRAMP=1., VOLUME=1. $END
  3.08281E+05  9.79922E+02  3.31984E+05  2.48899E+05  8.37661E+04  3.39237E+05 -1.28133E+05  2.52946E+05
 -1.91084E+05  7.91344E+04 -1.11566E+05 -3.00413E+04  3.00197E+02 -4.85393E+04  5.15518E+04  1.71509E+02
  3.96828E+04  5.63841E+04 -1.70223E+04  7.92503E+04 -5.64121E+04  6.39392E+04 -8.61816E+04  3.12440E+04
 -8.01160E+04 -1.15711E+04 -5.55241E+04 -5.24157E+04 -1.33142E+04 -6.71631E+04  2.17947E+04 -5.05355E+04
  4.16554E+04  7.85878E+02  1.34577E+04  4.65558E+04 -3.34585E+04  4.73257E+04 -6.27198E+04 -1.78529E+03
 -5.41961E+04 -5.62146E+04 -9.25782E+03 -7.61432E+04  3.62965E+04 -5.41184E+04  4.38958E+04 -1.98103E+04
  4.64875E+04  8.74394E+03  3.86757E+04  2.33613E+04  1.07807E+04  3.10421E+04 -6.70416E+03  2.60730E+04
 -1.53709E+04  1.11515E+04 -1.94042E+04 -4.18359E+03  5.18484E+03 -2.51990E+03  2.13770E+04  8.76938E+03
  1.30727E+04  3.23749E+04 -3.52259E+04  3.50322E+04 -6.65788E+04  2.05486E+03 -5.76672E+04 -4.37767E+04
 -1.62358E+04 -6.34178E+04  4.13720E+04 -4.77951E+04  5.68411E+04 -2.71357E+03  3.29916E+04  3.50567E+04
 -7.60729E+03  3.46475E+04 -3.14933E+04  1.56740E+04 -3.13331E+04 -4.51799E+03 -2.05783E+04 -8.68233E+03
 -5.01097E+03 -1.21984E+04  1.65088E+03 -1.43142E+04  8.98909E+03 -2.53833E+04  1.88802E+04 -1.73254E+04
  6.54443E+03  2.42768E+03 -7.04276E+03  7.66690E+03 -1.73303E+04 -4.94730E+03 -8.49375E+03 -3.39058E+04
  2.18634E+04 -4.08552E+04  4.54090E+04 -2.41031E+04  4.54391E+04  2.28364E+04  1.34534E+04  4.47959E+04
 -1.14849E+04  3.09780E+04 -2.92418E+04  3.08042E+03 -8.13562E+03 -3.10514E+04  2.45964E+04 -3.74044E+04
  4.16161E+04 -7.96365E+03  3.51198E+04  2.25506E+04  1.67485E+04  4.53584E+04 -2.47596E+03  5.09783E+04
 -2.93417E+04  2.97478E+04 -4.52206E+04  8.87899E+03 -4.73082E+04 -1.43077E+04 -2.16768E+04 -3.43849E+04
  9.38075E+03 -3.60532E+04  3.03385E+04 -1.38140E+04  2.76402E+04  8.83709E+03  5.53037E+03  1.50056E+04
 -1.99734E+04  9.31640E+03 -6.39723E+03 -8.72817E+03  4.27549E+03 -8.28612E+03  1.73863E+04  6.59275E+03
  1.48941E+04  2.66639E+04 -6.31519E+03  2.62538E+04 -2.13521E+04  1.05354E+04 -2.67178E+04 -7.19701E+03
 -2.24483E+04 -1.80877E+04 -5.89500E+03 -1.36816E+04  9.90966E+02 -1.95497E+04  1.51022E+04 -1.72174E+04
  2.92852E+04 -1.61761E+04  3.28167E+04  2.59173E+03  2.54726E+04  1.67785E+04  3.78768E+03  3.37342E+04
 -1.87310E+04  3.43763E+04 -2.70174E+04  1.22027E+04 -1.69715E+04 -5.95976E+03 -6.98848E+03 -1.29158E+04
  2.98598E+03 -4.13353E+03 -2.94490E+03  6.95536E+03 -1.48576E+04  4.34223E+03 -1.83356E+04 -5.99229E+03
 -1.15836E+04 -1.53139E+04  2.41221E+03 -2.22127E+04  1.68002E+04 -1.82236E+04  1.44924E+04  3.85532E+02
  1.40747E+04  1.42629E+04  2.30436E+03  1.75195E+04 -7.42267E+03  1.13828E+04 -1.83436E+04 -7.20786E+02
 -1.85807E+04 -1.84801E+04 -2.31943E+03 -2.29487E+04  7.82874E+03 -2.09319E+04  2.39961E+04 -1.11962E+04
  1.38926E+04  3.54388E+03  9.56100E+03  4.51462E+03  9.56774E+03  3.12377E+03  7.09520E+03 -1.97928E+03
  1.23999E+04  2.70074E+03  2.07054E+04  1.34334E+04  1.09504E+04  2.83434E+04 -7.13240E+02  3.69099E+04
 -2.23403E+04  2.47982E+04 -2.86322E+04  1.41383E+04 -3.41310E+04 -1.39944E+03 -2.49749E+04 -1.60303E+04
 -1.37119E+04 -2.43051E+04  1.15139E+04 -2.27186E+04  2.14798E+04 -1.76405E+04  1.46112E+04  2.59897E+03
  5.62677E+03  9.58273E+03 -6.28651E+03  1.28117E+04 -1.36599E+04  4.12255E+03 -9.96922E+03 -7.77279E+03
 -4.43211E+01 -1.16225E+04  9.29931E+03 -8.44587E+03  9.70877E+03  2.80542E+02 -1.16831E+03  1.12068E+04
 -7.03697E+03  3.50516E+03 -3.52570E+03 -6.37144E+03 -1.86198E+03 -1.18772E+04  1.12728E+04 -1.70720E+04
  2.10058E+04 -6.71855E+03  1.72464E+04  4.11863E+03  1.12972E+04  8.93364E+03  8.75444E+03  2.15718E+04
 -3.25989E+03  1.70708E+04 -6.51777E+03  1.57095E+04 -1.48205E+04  2.07151E+03 -1.11724E+04 -1.83394E+03
 -2.95216E+03 -6.37259E+03 -6.63447E+03  3.85329E+03 -1.67239E+03  5.55659E+03 -5.42301E+03  6.79652E+03
 -1.39313E+04 -5.66629E+02 -1.34600E+04 -9.86977E+03 -9.17901E+03 -1.03300E+04  2.53444E+03 -7.09323E+03
  7.93674E+03 -6.36953E+03  7.02433E+03  7.53391E+03 -5.36415E+03  1.11434E+03 -6.42109E+03 -2.25687E+03
 -2.76910E+03 -7.28200E+03 -2.03250E+03 -1.10790E+04  1.17444E+03 -1.04704E+04  1.30614E+04 -5.96344E+03
  1.48924E+04  2.80306E+03  1.21850E+04  1.03895E+04  5.31494E+03  1.40142E+04 -8.13729E+03  8.12235E+03
 -9.81957E+03  4.57656E+03 -6.84347E+03 -3.15325E+03  1.54656E+03 -3.25527E+03  2.75659E+03 -2.38945E+03
  1.09995E+04  7.47842E+03  3.02550E+03  5.84974E+03 -6.09810E+03  1.15523E+04 -7.68994E+03  1.18240E+03
 -1.16027E+04 -2.73163E+03 -5.17204E+01 -1.16881E+04  8.21194E+03 -7.48391E+03  1.76943E+03  3.70076E+03
 -3.02147E+02  3.36533E+03 -6.48878E+03  4.45836E+03 -9.33707E+03  4.52713E+03 -1.05793E+04  2.02537E+03
 -2.99558E+03 -8.42280E+03  3.09618E+03 -7.94377E+03  9.49349E+03 -4.86760E+03  8.96816E+03  5.57207E+03
  8.20873E+03  9.64572E+03  8.00977E+02  7.22595E+03 -6.35319E+03  2.52804E+03 -7.70022E+03  2.34941E+03
 -1.00348E+04 -7.83021E+03  6.70824E+02 -7.33643E+03 -7.23719E+02 -6.12836E+03 -1.85106E+03 -3.70633E+03
  2.65209E+03 -4.92366E+03 -1.01553E+03 -3.40137E+03  7.05315E+02 -2.26116E+03 -1.60272E+02 -1.08911E+02
  6.30398E+03 -3.54100E+03  4.90895E+03  2.83854E+03  7.58137E+03  8.58764E+03  6.40523E+03  4.78341E+03
  2.07948E+03  1.63977E+04 -1.01980E+04  1.07133E+04 -1.64662E+04  6.05402E+02 -1.11348E+04 -5.34332E+02
 -8.45139E+03 -8.10984E+03 -4.36645E+02 -5.38183E+03  1.14370E+03  1.60437E+03  4.91530E+03 -4.52412E+03
  4.95305E+03 -3.03407E+03  1.24806E+03 -5.74201E+03  3.62244E+03 -8.36984E+02  5.35573E+03  3.98521E+02
  7.98617E+03  5.60177E+03  6.10900E+01  7.40479E+03 -2.53268E+03  8.95308E+03 -7.49023E+03  3.91453E+03
 -5.59888E+03  3.83715E+03 -5.54690E+03 -2.23285E+03 -7.18583E+02 -1.36638E+04  8.21734E+03 -6.39998E+03
  7.41038E+03 -3.00216E+03  1.13493E+04  4.25276E+03  5.45319E+03  6.95203E+03  3.21479E+03  1.06020E+04
 -7.30162E+03  1.05057E+04 -3.68717E+03  2.84772E+03 -1.71238E+03 -4.41201E+03 -4.26093E+03 -6.89225E+02
 -1.64922E+03  4.18164E+02  3.92940E+02  3.91034E+03 -4.95011E+03  6.47723E+03 -4.59522E+03 -3.16205E+03
 -2.32546E+03 -6.16336E+03  2.35722E+03 -9.00073E+03  5.85254E+03 -8.87812E+03  5.09813E+03 -3.55411E+03
  4.90636E+03  7.30162E+03  4.70008E+03  5.31569E+03  1.05518E+03  3.05594E+02 -4.83488E+03  6.32488E+03
 -9.10008E+03 -5.17571E+02 -3.69852E+03 -7.36853E+03 -7.64121E+02 -6.31424E+03 -1.26276E+03 -1.58210E+03
  4.48469E+03  1.99480E+03  3.92638E+03  1.56823E+03 -2.03716E+02 -2.35873E+01 -1.24626E+03 -3.48488E+02
  2.83637E+03  2.89934E+03  2.00230E+02 -2.73334E+03  6.23381E+03  3.07896E+03  3.83884E+03  1.05316E+04
  4.73637E+02  6.59773E+03 -4.93931E+03  3.00557E+03 -1.56401E+03  1.24181E+03 -8.56780E+03  2.29109E+03
 -1.04641E+03 -9.52440E+03  2.70793E+02 -5.74940E+03  1.38194E+03 -4.03576E+03  1.01408E+04 -6.86451E+03
  3.88593E+03  1.01334E+03 -1.95383E+03  4.43700E+03 -4.12895E+03 -8.82866E+02 -3.18127E+01  3.10377E+03
 -2.20321E+03 -3.70892E+03  2.63366E+03  7.07630E+02  5.18806E+03 -2.40150E+03  5.60819E+03  3.14894E+03
 -1.62933E+03 -3.55743E+01  3.84692E+03  1.39924E+03 -3.62072E+03  1.12185E+03  6.51700E+03  1.19748E+03
 -6.11227E+02  5.37440E+03 -2.14977E+03  4.11082E+03  6.92296E+02  1.32685E+02 -2.27782E+03  3.30462E+03
  8.60503E+02 -1.13362E+03 -4.43510E+03 -5.79632E+03 -5.77802E+03 -1.57178E+03 -6.97405E+03 -7.83483E+01
  3.17844E+03 -1.29105E+03  3.55731E+03  2.13488E+03  3.18934E+03  3.11152E+03 -2.23216E+03 -1.09312E+03
 -2.69559E+03 -1.48570E+02 -4.87755E+03  2.59362E+02  9.99395E+02 -5.44482E+03  4.52700E+03 -1.78094E+03
 -2.96108E+03 -4.44946E+02  1.33032E+03  2.27122E+03  1.54171E+03 -1.84628E+02  1.86851E+03 -4.84491E+03
 -1.46001E+03 -8.12146E+02 -3.03672E+02  9.34084E+02  5.21425E+03 -2.87885E+01  1.28064E+03 -4.13521E+03
  4.12872E+03 -2.51549E+02  4.26312E+02  1.83421E+03  9.28709E+02  5.35617E+03  1.23905E+03  5.31627E+03
  5.18784E+02 -6.00102E+02  2.44865E+01 -2.35279E+03 -1.41050E+03  2.24345E+03 -1.45458E+03 -1.03088E+03
  4.67717E+03  1.21601E+02  4.67659E+02 -1.19669E+03 -2.21033E+03 -9.09712E+02  1.20902E+03  2.31281E+03
 -2.68268E+03  2.20136E+03  2.33154E+03  2.03987E+03  2.63822E+03 -1.62118E+03 -9.02851E+01  3.55878E+03
 -1.22415E+01  1.44120E+03 -3.04187E+03  4.61887E+03 -2.79702E+02  1.87634E+03 -1.79270E+02 -6.40857E+03
 -5.91934E+03 -4.24280E+03  1.61044E+03 -4.76043E+03  5.24439E+03 -3.98809E+03  3.75142E+03 -1.75614E+02
  2.39522E+02  2.77067E+03  2.16249E+03  3.86292E+02  3.44412E+03  4.27784E+03  1.11229E+03  3.18005E+03
  2.93613E+03  2.66298E+03  3.70027E+03 -3.81091E+03  1.87049E+03 -7.55719E+02 -2.68769E+03 -7.35046E+02
 -5.29171E+03  1.07230E+03 -7.84634E+02 -3.90360E+03  2.04347E+03 -3.31646E+02  4.24416E+03  1.54698E+03
  7.90463E+02  8.65505E+01  2.85353E+03  3.87381E+02 -2.38547E+02  2.46345E+03  2.68665E+03  2.16423E+03
  1.46176E+03  7.12149E+03  3.11578E+03  5.92312E+03  2.67546E+01 -3.37207E+03 -2.59450E+03 -5.25693E+03
 -3.07247E+03 -3.40605E+03 -2.26956E+03  4.74718E+02  1.25501E+03 -5.75118E+03  3.13382E+03  3.96419E+03
 -3.45456E+03  9.98697E+02  3.12197E+03  1.41463E+03 -2.36249E+03 -4.33719E+03  2.43678E+03 -2.93868E+03
 -1.64463E+03 -1.27967E+03  1.86116E+03  2.42986E+02 -8.91096E+02  1.54796E+03  2.30428E+03  3.69258E+02
  1.95194E+00  1.23412E+02  3.17239E+02 -2.44519E+03 -3.40796E+03  5.73732E+02 -1.37765E+03 -3.49651E+03
 -2.08716E+03 -2.42492E+03 -8.32823E+02 -4.28575E+03  3.04936E+03  2.58917E+03  2.85677E+02 -9.91832E+02
 -1.25020E+03  4.67716E+03  3.47799E+03 -5.65933E+01  1.00027E+03 -2.05245E+03 -1.49066E+03 -1.51117E+03
 -3.38856E+03  2.05013E+03 -2.12082E+03  6.99772E+00  3.63586E+03  4.56276E+02 -6.49243E+01 -3.65577E+02
  9.23547E+02  1.00645E+03 -2.29594E+02  3.68870E+03  2.24126E+03 -9.26201E+02  3.74753E+03  2.08986E+03
  5.27098E+03 -2.33014E+03  2.24595E+03  3.89916E+02  4.06522E+02  2.50514E+03 -2.27410E+03  2.23719E+02
