 $NMID ID='MM_0lb_SNR50_11hz_g45_31.RAW', FMTDAT='(8E13.5)'
 TRAMP=1., VOLUME=1. $END
  3.13116E+05 -6.96853E+02  3.35010E+05  2.46752E+05  8.76491E+04  3.35347E+05 -1.30128E+05  2.51904E+05
 -1.87143E+05  7.73255E+04 -1.10135E+05 -3.05509E+04 -3.73651E+03 -5.18329E+04  4.98433E+04  1.88663E+03
  3.62449E+04  5.30072E+04 -1.19785E+04  7.31129E+04 -6.08508E+04  6.26030E+04 -8.65980E+04  2.99392E+04
 -8.26495E+04 -1.29716E+04 -5.56550E+04 -5.10692E+04 -1.10413E+04 -7.32823E+04  2.75405E+04 -5.83875E+04
  3.89402E+04  5.68612E+03  1.51934E+04  5.18682E+04 -2.80387E+04  5.24389E+04 -6.92099E+04  2.65657E+03
 -5.52647E+04 -5.63049E+04 -1.31140E+04 -7.81627E+04  3.95567E+04 -5.63636E+04  4.74289E+04 -2.39332E+04
  4.90930E+04  1.12117E+04  3.70838E+04  2.38482E+04  1.72298E+04  2.50412E+04 -8.24788E+03  2.71927E+04
 -2.47370E+04  1.32783E+04 -1.80348E+04 -5.34653E+03  1.04585E+04 -6.25575E+03  2.49863E+04  1.17723E+04
  7.16368E+03  3.26239E+04 -3.44453E+04  3.90283E+04 -6.22857E+04  2.47326E+03 -5.99313E+04 -4.67743E+04
 -1.59707E+04 -6.37309E+04  3.83673E+04 -4.55452E+04  5.96685E+04 -3.12933E+03  3.29187E+04  3.26700E+04
 -3.44419E+03  3.62045E+04 -2.52878E+04  1.80305E+04 -2.83728E+04 -6.06761E+03 -1.88267E+04 -1.29512E+04
 -3.28693E+02 -1.20411E+04 -1.47020E+03 -2.17671E+04  6.06230E+03 -2.80803E+04  2.02416E+04 -1.18063E+04
  8.18957E+03  1.14380E+04 -1.46820E+04  1.30994E+04 -2.69603E+04 -5.77535E+03 -1.19255E+04 -3.30717E+04
  2.41213E+04 -4.74752E+04  4.58450E+04 -2.02883E+04  4.41602E+04  1.63928E+04  1.11590E+04  5.43435E+04
 -1.39981E+04  3.37016E+04 -2.97850E+04  2.72527E+03 -7.79503E+03 -2.76893E+04  1.76626E+04 -3.78273E+04
  4.12722E+04 -9.64847E+03  3.88540E+04  2.71103E+04  1.98571E+04  4.86574E+04 -7.09354E+03  5.11987E+04
 -3.68151E+04  3.95268E+04 -4.70711E+04  7.29019E+03 -4.48504E+04 -1.70218E+04 -2.19986E+04 -3.82427E+04
  8.23398E+03 -4.62774E+04  3.06695E+04 -1.36944E+04  2.96011E+04  1.49756E+04  4.01366E+03  1.76363E+04
 -1.53344E+04  8.57817E+03 -1.11246E+04 -7.17864E+03  3.48554E+03 -1.63065E+04  1.96176E+04  1.09480E+04
  1.87052E+04  2.17769E+04 -5.74340E+03  2.67116E+04 -1.80975E+04  1.11638E+04 -3.08984E+04 -6.43470E+02
 -2.21378E+04 -1.50315E+04 -1.38881E+04 -2.04893E+04  3.93132E+03 -2.14301E+04  1.63560E+04 -1.86501E+04
  2.53205E+04 -1.35758E+04  3.36378E+04  5.26300E+03  2.26180E+04  2.36371E+04  2.75182E+03  3.41632E+04
 -2.06939E+04  3.44143E+04 -3.04341E+04  6.59810E+03 -2.14854E+04 -9.42784E+03 -2.17734E+03 -1.43768E+04
  1.97965E+03 -4.00206E+02 -2.12895E+03  7.88915E+03 -2.31334E+04  2.89627E+03 -1.80675E+04 -2.62420E+03
 -1.03814E+04 -2.15407E+04  5.89610E+03 -1.93099E+04  1.59338E+04 -1.76613E+04  1.94105E+04  7.58008E+02
  8.85937E+03  1.02151E+04 -3.42153E+02  2.31889E+04 -1.83424E+04  1.15461E+04 -1.84410E+04 -1.04570E+04
 -1.35865E+04 -1.58398E+04 -1.37333E+03 -2.91389E+04  1.40937E+04 -1.71492E+04  2.01840E+04 -7.23055E+03
  1.82847E+04  5.99687E+03  2.01427E+04  8.26892E+03  1.16214E+04  1.20317E+03  9.76265E+03 -1.96357E+03
  2.50907E+04  1.77987E+03  2.85973E+04  1.26461E+04  1.66368E+04  3.10326E+04 -4.55835E+03  4.05193E+04
 -2.53485E+04  3.20283E+04 -3.66623E+04  1.67529E+04 -3.82192E+04 -2.39064E+03 -2.95259E+04 -2.27707E+04
 -1.23077E+04 -3.09712E+04  1.73139E+04 -3.37957E+04  2.22835E+04 -1.36320E+04  2.35436E+04  8.97030E+03
  8.27779E+03  1.80715E+04 -9.42221E+03  1.88787E+04 -9.22865E+03  2.70527E+03 -1.29470E+04 -9.41934E+03
 -3.61674E+03 -1.51712E+04  7.69963E+03 -1.24951E+04  1.48201E+04  2.67535E+02 -2.61432E+02  6.67190E+03
 -3.92264E+03  9.94559E+02 -5.90293E+03 -1.00998E+04  5.12602E+03 -2.12315E+04  1.95817E+04 -1.80978E+04
  1.59734E+04 -5.05561E+03  2.12103E+04  4.85368E+03  1.73625E+04  1.38192E+04  4.55240E+03  2.21042E+04
 -3.64302E+03  2.04534E+04 -1.82937E+04  1.74773E+04 -1.74112E+04  6.90571E+03 -1.44795E+04 -4.95970E+03
 -6.24865E+03 -1.11174E+04 -3.25034E+01  3.62008E+02 -1.69757E+03  9.14914E+03 -1.11504E+04  1.30772E+03
 -1.61839E+04 -6.85929E+02 -8.77282E+03 -9.82276E+03  1.60614E+03 -1.81076E+04  7.27791E+03 -1.44953E+04
  1.32310E+04 -7.28450E+03  8.50283E+03  6.48388E+03  9.80670E+02  4.91666E+03 -2.83005E+03 -4.56719E+03
 -8.54308E+03 -1.03991E+04  1.77078E+03 -1.19858E+04  6.16306E+03 -1.43257E+04  1.92826E+04 -6.60707E+03
  1.73668E+04  4.39655E+03  1.58011E+04  9.14947E+03  4.63120E+03  1.06776E+04 -1.17280E+04  8.86307E+03
 -8.66295E+03  6.39733E+03 -7.72741E+03 -4.58320E+03  3.55304E+03 -6.88282E+02  4.21124E+03 -7.39407E+02
  8.16782E+03  6.50159E+03 -2.35563E+03  1.58508E+04 -4.98944E+03  8.96881E+03 -1.90263E+04  1.76045E+03
 -1.26222E+04 -6.14243E+03 -1.11443E+03 -1.43055E+04  2.89426E+03 -1.31718E+04  8.02321E+03  2.38152E+03
  2.12217E+02  7.38013E+03 -1.47928E+04  1.39506E+04 -1.43792E+04  7.53844E+03 -1.64631E+04 -1.80708E+03
 -1.07389E+04 -1.73559E+04 -2.01637E+03 -1.87329E+04  1.42353E+04 -4.84863E+03  1.59439E+04 -2.53296E+03
  9.35590E+03  1.15590E+04  1.11437E+03  1.32328E+04 -1.29835E+04  1.06448E+04 -1.11383E+04 -2.26625E+03
 -7.77129E+03 -8.79214E+03  3.22216E+03 -4.80642E+03 -9.04478E+02 -1.26177E+04  5.82042E+03  6.55599E+00
  5.39814E+03  9.99791E+02 -3.80538E+03  3.45941E+03  1.81489E+01 -4.88794E+03  2.61477E+03 -6.08589E+03
  4.34260E+03  2.34341E+03  1.55536E+04  5.95967E+02  9.29300E+03  5.56545E+03  7.96251E+03  1.69389E+04
 -7.96197E+03  2.08376E+04 -1.35330E+04  1.16813E+04 -2.16818E+04 -2.06035E+03 -1.51667E+04 -6.34562E+03
 -1.21162E+04 -1.13363E+04  5.33258E+02 -8.60080E+03  1.01346E+04 -9.70914E+03  3.79748E+03 -6.02587E+03
  1.94280E+03 -6.17170E+03  1.73094E+03 -3.18461E+03  7.01690E+03 -3.23736E+03  6.19159E+02 -4.61248E+03
  6.53085E+03 -6.73618E+02  7.60819E+02  4.50637E+03  7.37439E+03  6.62470E+03 -1.42302E+04  1.14134E+04
 -6.27096E+03  1.05777E+02 -1.02607E+04 -1.05693E+04 -7.52897E+02 -8.52294E+03  5.76734E+03 -9.74145E+03
  8.65620E+03 -2.34188E+03  1.55249E+04  3.62070E+03  8.60751E+03  1.89668E+04  2.37498E+03  1.41383E+04
 -4.73716E+03  1.23036E+04 -9.22384E+03  6.03575E+03 -4.04891E+03 -3.64011E+03  2.49047E+03 -3.18715E+02
 -2.89000E+03 -1.67109E+03 -2.55735E+03  1.62209E+03 -5.12477E+03  8.35973E+02 -9.59347E+03 -3.03407E+03
 -7.14645E+03 -7.46005E+03 -1.21254E+03 -1.20839E+04  4.00751E+03 -7.59611E+03  9.73254E+03 -1.67015E+03
  8.85557E+03  4.67397E+03  2.21386E+03  6.21344E+03 -3.07435E+03  1.47695E+04 -7.75924E+03  1.09089E+04
 -1.31931E+04  2.64763E+03 -1.03879E+04 -2.31423E+03  3.02825E+01 -7.91419E+03  9.43478E+03 -1.25249E+04
  3.71096E+03  1.39060E+03  5.45314E+03  2.31845E+03  1.89672E+03 -6.96578E+03  7.25798E+02 -2.64075E+03
 -1.52184E+03 -2.66928E+03  6.61354E+02  3.56111E+02  6.61235E+02  1.86118E+03  3.64522E+03  7.53483E+03
  1.56439E+03  3.15320E+03 -3.39768E+03  3.52571E+03 -1.34627E+04  1.93275E+03 -1.17947E+04 -4.12736E+03
 -5.62487E+03 -1.21709E+04  3.70569E+03 -1.73088E+04  1.03237E+04 -7.50017E+03  6.15468E+03  1.01988E+03
  9.80266E+03  1.02986E+04  1.98010E+03  1.37372E+03 -4.54065E+03 -5.64805E+01 -1.26452E+03  2.84998E+02
 -5.53084E+03 -9.87756E+03  2.26364E+03 -4.19370E+03  7.56901E+03 -1.73910E+02  9.64716E+03 -4.77422E+02
  6.41361E+03  1.43229E+03 -4.01347E+02  5.97841E+03  3.66781E+03  4.16990E+03  1.91689E+02 -6.70319E+03
  2.10798E+02 -9.99961E+02  5.04461E+03  2.36346E+03 -1.56115E+03  3.39010E+03 -3.12886E+03  1.07391E+04
 -1.42131E+03  1.18169E+03 -6.13788E+03 -3.31190E+02 -4.50159E+03 -1.82461E+02 -7.13379E+03 -2.39753E+03
  4.59128E+03 -9.24271E+03  7.67534E+03 -2.19172E+03  8.19574E+02  4.60256E+03 -5.44837E+03  6.00548E+03
  1.29551E+03 -2.00704E+03 -2.45603E+03 -2.26695E+03 -4.32033E+03 -1.04931E+04 -6.35203E+02  1.50514E+03
  3.92938E+03 -3.57369E+03  5.99650E+03  1.26491E+03  3.24546E+03 -2.91454E+03 -2.13283E+03 -1.77777E+00
 -3.26728E+03  1.49188E+03 -3.84277E+03  2.27191E+01 -9.97338E+02 -1.04426E+03  5.01326E+03 -4.59183E+02
  8.98545E+03 -1.43456E+03  1.51007E+03  5.02916E+03 -1.64261E+03  6.70509E+03 -2.19481E+03  1.04171E+04
 -6.16925E+03  2.84494E+03 -5.38294E+03 -1.80838E+03 -1.31993E+03 -6.14652E+03 -1.63470E+02 -2.50642E+03
 -5.47565E+00 -4.68501E+03  4.71749E+03  6.86290E+03 -2.62428E+03  5.93705E+03 -1.04111E+03  3.54532E+03
 -6.00256E+03  7.96958E+02 -9.37708E+03 -1.24032E+03  5.04125E+03  2.24954E+03  3.42642E+03  2.78522E+03
  1.02990E+03  5.58828E+03 -7.21004E+03  6.13203E+03 -4.91693E+03  1.64830E+03 -1.04546E+04 -4.66933E+03
 -3.86456E+03 -1.27910E+04  2.61349E+03 -1.29869E+04  5.16396E+03 -8.45351E+03  7.29561E+03 -4.08908E+03
  7.47408E+03  3.87732E+03  1.01353E+04  8.67241E+03 -2.21145E+03  4.00576E+03 -7.67971E+03  6.46777E+03
 -2.38293E+03  2.32812E+03  7.92775E+02  3.96372E+02 -4.08896E+03  4.32267E+03  1.72355E+03  2.64281E+03
 -1.44657E+03  2.72439E+03 -5.88280E+03  6.11320E+02  5.79911E+03 -1.63919E+03  3.98612E+03 -1.02511E+03
  3.15137E+03 -1.12162E+03  2.29208E+02  2.24267E+03  3.27338E+03  7.84430E+03 -5.28220E+01  6.95184E+03
 -1.60621E+03  1.07345E+04 -4.91932E+03  6.87336E+03 -8.88715E+03 -4.49524E+02 -4.23503E+03 -4.26337E+03
 -5.18138E+03 -5.83130E+03  6.77310E+03 -3.16745E+03  3.41642E+03 -8.97993E+03  5.83808E+03 -6.33296E+03
  3.13729E+03  5.31801E+03  8.00623E+01  3.87704E+03 -3.80408E+03  2.67425E+03 -8.87289E+02 -2.80063E+03
  4.57595E+03 -7.65724E+02 -2.13750E+03 -5.05888E+02  8.08464E+03 -4.01470E+03  3.57968E+03  3.22136E+03
 -4.58136E+03  1.81326E+03 -9.13676E+03 -3.21970E+03 -2.92882E+03 -7.72118E+03 -4.09525E+03 -9.07019E+03
 -4.11378E+02 -9.15298E+03  1.06846E+04 -8.06704E+02  2.32214E+03  3.10171E+03  1.30624E+03  2.03715E+03
 -2.24028E+03  5.95935E+03 -8.23746E+02  8.21121E+03 -5.76874E+03  4.65675E+03 -8.54862E+03  1.61049E+02
  1.59591E+03 -3.10630E+03 -2.88415E+03  5.30893E+02 -2.55996E+03  1.27803E+03 -3.42060E+03 -1.52933E+03
 -8.42811E+03 -2.08025E+03 -2.73151E+02 -9.21405E+03  1.86742E+03 -1.16718E+04  4.57152E+03 -3.70702E+03
  1.21923E+04  5.34785E+02  3.79617E+03  2.52786E+03  1.18758E+03  6.22154E+03 -6.14246E+02  7.92866E+03
