 $NMID ID='MM_0lb_SNR50_20hz_g55_1.RAW', FMTDAT='(8E13.5)'
 TRAMP=1., VOLUME=1. $END
  3.09964E+05  5.66934E+02  3.36636E+05  2.49762E+05  8.75868E+04  3.40632E+05 -1.32565E+05  2.52197E+05
 -1.90786E+05  8.53993E+04 -1.14794E+05 -3.50373E+04 -4.31704E+03 -5.13550E+04  5.92096E+04 -3.79614E+03
  3.61958E+04  5.34886E+04 -1.83919E+04  7.71349E+04 -6.12928E+04  6.26620E+04 -8.22052E+04  3.25286E+04
 -7.97275E+04 -1.48840E+04 -5.58397E+04 -5.15405E+04 -1.82698E+04 -6.43512E+04  2.39423E+04 -4.65249E+04
  3.67623E+04  4.25625E+02  1.33976E+04  5.03680E+04 -3.21507E+04  4.65160E+04 -6.33086E+04 -2.12596E+02
 -4.98029E+04 -5.25702E+04 -1.07543E+04 -7.18126E+04  3.03040E+04 -5.35648E+04  4.61219E+04 -1.52097E+04
  4.24550E+04  8.95148E+03  3.42646E+04  2.05184E+04  1.66342E+04  2.64030E+04 -6.87922E+03  2.38004E+04
 -2.41426E+04  1.11232E+04 -1.76095E+04 -3.39615E+03  6.43689E+03 -8.71107E+03  1.99223E+04  1.09765E+04
  4.80061E+03  3.59679E+04 -3.02791E+04  3.08777E+04 -5.61181E+04 -4.30630E+02 -5.31559E+04 -4.21517E+04
 -5.99105E+03 -6.38991E+04  3.84416E+04 -4.25164E+04  5.46754E+04 -3.61098E+02  3.15955E+04  2.91292E+04
 -1.02794E+03  3.68716E+04 -2.50450E+04  9.57362E+03 -2.90270E+04 -3.02936E+03 -1.56405E+04 -1.08590E+04
 -6.27181E+03 -1.43366E+04 -3.06333E+03 -1.32916E+04  7.46063E+03 -2.44549E+04  1.47243E+04 -1.61706E+04
  1.28471E+04  4.66152E+03 -6.71067E+03  1.48715E+04 -1.72666E+04 -2.09270E+03 -1.24758E+04 -3.03426E+04
  2.11124E+04 -4.02314E+04  4.55367E+04 -2.13832E+04  4.42583E+04  1.43701E+04  1.68722E+04  4.67527E+04
 -1.57649E+04  3.34374E+04 -2.11996E+04  1.48420E+03 -9.82249E+03 -2.70648E+04  2.12255E+04 -3.07783E+04
  3.83142E+04 -2.82410E+03  2.72394E+04  2.18204E+04  1.39614E+04  4.13664E+04 -1.06861E+04  4.71496E+04
 -2.56357E+04  2.84469E+04 -3.64309E+04  9.01934E+03 -4.05054E+04 -1.52407E+04 -2.10923E+04 -3.14413E+04
  8.72600E+03 -2.95371E+04  2.34958E+04 -1.18991E+04  2.47372E+04  1.36949E+04  5.65988E+03  2.18339E+04
 -1.70678E+04  3.21700E+03 -6.94236E+03 -5.84827E+03  1.88170E+03 -1.13299E+04  2.26636E+04  5.76116E+03
  1.21944E+04  2.10140E+04 -1.23042E+04  2.48262E+04 -1.98254E+04  1.20065E+04 -2.12689E+04 -6.25072E+03
 -1.79449E+04 -1.50314E+04 -2.33020E+03 -1.51959E+04  5.46135E+01 -1.16349E+04  1.45004E+04 -1.25146E+04
  2.26083E+04 -1.16688E+04  2.89191E+04 -3.09729E+02  2.06011E+04  1.44668E+04  3.87958E+03  3.07185E+04
 -1.56157E+04  2.92450E+04 -2.32517E+04  1.23216E+04 -1.90672E+04 -1.05107E+04 -4.13438E+03 -1.36097E+04
  3.34773E+03 -6.62314E+03 -5.76188E+03  8.32490E+03 -1.38518E+04  8.91696E+03 -1.15312E+04 -4.21445E+03
 -7.31720E+03 -1.70323E+04  6.93650E+03 -1.97212E+04  1.39814E+04 -1.02194E+04  1.65611E+04  2.43462E+03
  7.83124E+03  1.08673E+04 -1.44760E+03  1.59668E+04 -9.47172E+03  1.13396E+04 -1.33429E+04 -5.23300E+03
 -1.04942E+04 -1.36554E+04  2.45014E+02 -1.95626E+04  1.03332E+04 -1.51236E+04  1.71940E+04 -8.40839E+03
  1.25849E+04  1.99472E+02  1.37839E+04  4.67960E+03  3.68525E+03  1.09973E+03  8.67511E+03  9.05948E+02
  1.01753E+04  3.30605E+03  1.17503E+04  1.28763E+04  7.03457E+03  2.20648E+04 -3.30032E+03  2.58338E+04
 -1.51421E+04  2.02496E+04 -2.39885E+04  8.31282E+03 -2.39249E+04  1.32966E+03 -2.02034E+04 -1.31905E+04
 -1.06871E+04 -2.35336E+04  6.56697E+03 -1.79779E+04  1.81723E+04 -8.59880E+03  1.32312E+04  1.77755E+03
  6.12610E+03  8.16944E+03 -8.82159E+03  8.22635E+03 -1.26459E+04  1.63499E+03 -1.39825E+04 -7.44484E+03
  3.78600E+03 -1.48678E+04  4.72908E+03 -8.01698E+03  7.03448E+03  3.55952E+03  2.64523E+03  8.40568E+03
 -3.91045E+03  4.91306E+02 -8.70389E+03 -5.69082E+03  9.67303E+02 -7.21948E+03  9.38973E+03 -7.69441E+03
  1.38465E+04  4.54477E+02  1.23619E+04  1.28060E+03  9.47658E+03  1.24842E+04  3.72820E+03  1.76858E+04
  7.34664E+02  1.24270E+04 -7.74090E+03  8.57452E+03 -9.10872E+03 -1.48206E+01 -7.14680E+03  1.90562E+02
 -5.04063E+03 -2.01941E+03 -5.56059E+03  4.64087E+03 -2.56206E+03  1.01947E+03 -7.20001E+03  2.30630E+03
 -7.09318E+03  1.27658E+03 -6.54010E+03 -7.18208E+03 -7.21768E+02 -1.38035E+04  6.04544E+03 -5.93681E+03
  9.60813E+03 -2.70315E+03  5.10561E+03 -1.52229E+03  3.20114E+02  2.42482E+03 -2.23845E+03 -3.93124E+03
 -3.21224E+03 -8.43256E+02 -5.26283E+02 -1.08920E+04  2.78159E+03 -1.08093E+04  7.33756E+03 -4.10501E+03
  1.37240E+04 -1.51056E+03  6.37818E+03  6.54261E+03  3.49655E+03  9.23156E+03 -9.33754E+02  6.02977E+03
 -1.38729E+03  7.81571E+02 -4.39128E+03 -4.36139E+03 -1.21470E+03 -3.00564E+03  3.84238E+03 -4.27497E+03
  1.52257E+03  4.16958E+03  4.53053E+03  6.39268E+03 -5.52700E+03  5.00572E+03 -9.22805E+03 -7.84504E+02
 -3.39890E+03 -5.20098E+03 -1.19259E+03 -6.76982E+03 -5.92939E+02 -5.55895E+03  3.31655E+03  2.20488E+03
  7.83257E+02  7.19549E+03 -1.96886E+03  5.45588E+03 -3.17697E+03 -1.82877E+02 -2.11489E+03  4.32461E+02
 -2.71387E+03 -6.82167E+03  3.30163E+03 -1.02192E+04  1.04383E+04 -5.68717E+03  7.65908E+03 -2.41815E+03
  3.08035E+03  7.70584E+03 -1.31628E+03  1.15460E+04 -3.57173E+02  9.54567E+03 -3.72174E+03  9.31980E+02
 -7.76391E+03 -7.20018E+03  4.16623E+02 -3.05227E+03  2.70274E+03  7.33290E+01  3.45322E+03 -5.23876E+03
  1.98940E+03  1.86410E+03 -1.10718E+03  5.90264E+02  2.39289E+03  3.23428E+03  4.99814E+03  1.26207E+02
  2.87434E+03  1.61221E+03  1.01418E+03  1.79276E+03  4.49901E+02  1.21627E+03  8.56899E+03  2.59671E+03
  1.53115E+02  1.03572E+04 -5.20641E+03  4.10572E+03 -9.43901E+03 -6.35184E+02 -8.26521E+03 -2.36208E+03
  3.73122E+02 -4.63738E+03 -1.56297E+03 -4.00088E+03  8.52581E+03 -1.51079E+03  1.46426E+03 -1.76514E+03
  1.60693E+03 -2.17324E+03  6.65788E+02 -4.63347E+01  3.02241E+03 -5.50004E+03  9.82500E+02  2.49134E+03
  2.78276E+03  1.10156E+03 -1.12119E+03  4.56396E+03 -1.82639E+03 -2.45383E+02 -4.54361E+03 -1.32370E+02
 -2.21310E+03  3.69296E+03 -5.63664E+03 -5.61889E+03  3.53405E+03 -1.56205E+03  3.68981E+03 -6.57153E+03
  6.30994E+02 -2.61428E+02  8.89040E+03  9.60540E+02  4.83374E+03  6.00020E+03 -7.47936E+02  1.05831E+04
 -2.45799E+03  4.81492E+03 -5.92016E+03  2.61793E+03 -3.94339E+02 -4.63734E+02 -2.82037E+02  1.48951E+03
 -4.16368E+02  3.57677E+03 -1.65948E+03  1.94809E+03 -3.43305E+03  2.52587E+03 -6.01114E+03  6.72109E+02
 -7.48137E+02 -5.95779E+03 -2.94212E+03 -1.80928E+03 -2.89827E+02 -4.62441E+03  3.10981E+03 -1.70367E+03
  4.12044E+03  2.18517E+03  7.66589E+02  4.88375E+03  2.33066E+03  1.19714E+03 -2.60725E+03  3.91178E+03
 -1.74585E+03  6.53527E+02 -5.83560E+03  1.13580E+03  2.00799E+03 -4.83345E+03  7.40437E+03  4.54755E+03
  5.13785E+03 -3.06009E+03  1.94370E+03  6.75297E+02 -2.25486E+03  3.16696E+02 -1.20863E+03  1.50748E+03
  2.64233E+03 -1.09336E+03  2.39127E+03 -4.24008E+03 -8.13420E+02  4.84065E+02  4.42746E+03 -1.09029E+03
 -5.88307E+02  5.21777E+03 -3.27622E+03 -1.35558E+03 -5.71376E+03  4.36211E+02 -5.61231E+03  3.60498E+03
  1.61076E+03 -5.98858E+03  1.93170E+02 -8.01374E+03 -6.65974E+02 -1.60084E+03  3.00244E+03 -7.35955E+02
  2.81967E+03  1.98058E+03  7.89023E+02  4.48420E+03 -3.86016E+03  3.52555E+03 -3.37211E+03 -1.95494E+03
 -3.70009E+03 -1.71155E+03  3.04567E+02 -1.41658E+03  1.81221E+03 -1.87032E+03 -1.63139E+03  6.75956E+02
  5.93196E+02 -7.64687E+01  8.65084E+02 -3.07392E+02 -1.48156E+03 -2.09384E+01  3.42932E+03  6.31402E+02
  1.87956E+03 -1.78987E+03 -4.94015E+02 -1.72209E+03 -3.89438E+03  3.76113E+03  1.13741E+03  2.50677E+03
 -2.80906E+03 -2.54787E+03 -1.39687E+03  1.11164E+03 -3.44663E+03 -2.63770E+03  3.89653E+03 -2.08241E+03
  2.60977E+03  4.45038E+02  1.79976E+03 -2.93489E+03  1.95541E+03 -2.99206E+02  2.45493E+03 -5.76029E+02
  3.85829E+01  3.31837E+03  1.06578E+03 -7.44677E+02  6.40246E+02 -1.72795E+03 -1.27554E+03 -2.16740E+02
  4.14724E+03  1.35049E+02  1.34516E+03 -3.26540E+03 -1.60071E+02  1.31037E+03 -1.84830E+03  1.80753E+03
 -1.27801E+03 -2.53060E+03  1.84612E+03  2.19025E+03 -1.00081E+03 -3.21832E+03  1.25971E+03  4.40499E+03
 -3.56106E+03 -3.66216E+02  4.23608E+03  6.64266E+01  1.55920E+03  2.21835E+02  6.81944E+02  4.29295E+03
  4.35931E+03  9.21689E+02 -3.53462E+03  1.40897E+03 -1.27595E+03  1.03634E+03  8.29140E+01  5.43276E+02
  1.60062E+03  7.51746E+02 -3.68037E+02  1.03801E+03  1.44241E+03  1.66299E+03  3.08725E+02 -1.33794E+03
  3.37214E+03  5.98062E+03  2.17029E+03  1.64889E+03 -5.13199E+03 -3.39838E+03  1.61020E+03  2.02243E+02
 -1.66878E+03 -1.62616E+03  4.15758E+00 -2.33730E+03  1.13774E+02 -5.11641E+02  1.03678E+03 -3.81133E+03
 -6.45372E+02  1.77153E+03 -1.62150E+03 -2.95742E+03  4.96078E+02 -3.13208E+03  4.37084E+03 -6.94265E+02
  2.84725E+03  4.81639E+02  1.16652E+03 -1.34766E+03 -3.22377E+01  9.72689E+02  8.78974E+02 -2.76130E+03
  1.32979E+03  1.64406E+03  1.09618E+03 -3.83046E+03  6.44605E+03  1.04164E+03  4.46687E+02  2.10812E+03
  4.18225E+02  1.04647E+03  7.30943E+02  2.51109E+03 -2.23802E+02 -1.75216E+03  2.08185E+03 -3.38424E+02
  7.06900E+02 -2.51190E+03 -1.99792E+03  1.56955E+03 -7.52336E+02 -4.50472E+02 -2.13021E+03  1.07907E+03
 -2.50556E+03 -2.47027E+03  1.04187E+03  7.21821E+02  2.08498E+03  2.77586E+03  2.80359E+02  2.17256E+03
 -5.32546E+02 -1.76393E+03 -3.04278E+03  1.99669E+03  4.68704E+03 -5.03721E+03 -4.19518E+02 -1.92097E+03
  3.35247E+03 -1.82652E+03  3.52104E+02 -3.98521E+03 -1.00649E+03  7.01448E+02  1.26272E+03  4.33730E+03
 -2.25739E+03 -1.60058E+03 -4.16279E+03  7.13474E+02 -1.63913E+02  2.79172E+02 -2.02773E+03 -5.28069E+02
 -2.00847E+03  1.83677E+03 -1.24156E+03  1.05468E+03  1.24236E+03  3.86620E+02  3.55737E+01  5.30764E+02
 -1.82418E+03 -3.01861E+03  1.16190E+03  2.76291E+02 -4.54340E+03  3.90647E+02 -5.49163E+01 -3.05194E+03
  5.48881E+02 -1.61828E+03 -1.45938E+03 -3.90301E+03  2.49713E+02  1.08429E+03 -6.09616E+02  7.32464E+02
 -2.85836E+03 -3.67938E+03  2.04057E+03  4.87291E+02  3.34700E+03 -2.01417E+03 -4.58175E+03 -1.20031E+03
 -3.58255E+03 -8.42412E+02 -7.48589E+02  2.44046E+03  7.05787E+02 -1.79280E+03  4.46115E+02  4.04054E+02
  2.30614E+03 -2.72852E+02 -4.67959E+00  2.15453E+02 -8.98238E+02 -1.26596E+01 -2.94332E+02  1.79720E+03
