 $NMID ID='MM_0lb_SNR50_7hz_g60_79.RAW', FMTDAT='(8E13.5)'
 TRAMP=1., VOLUME=1. $END
  3.10952E+05  1.60144E+03  3.33007E+05  2.52447E+05  8.81919E+04  3.39439E+05 -1.23998E+05  2.54130E+05
 -1.93034E+05  7.68022E+04 -1.16165E+05 -3.74868E+04  2.71597E+03 -4.99484E+04  5.04560E+04  1.06256E+02
  3.40182E+04  5.40741E+04 -2.15628E+04  7.82157E+04 -5.96284E+04  6.46241E+04 -7.86951E+04  4.16593E+04
 -8.77686E+04 -1.39037E+04 -6.09842E+04 -5.38233E+04 -1.39995E+04 -8.34510E+04  3.03109E+04 -5.33078E+04
  4.58964E+04  6.54141E+02  1.81495E+04  4.56533E+04 -3.69020E+04  4.58508E+04 -6.95151E+04 -2.36159E+03
 -5.44677E+04 -5.62121E+04 -4.65200E+03 -7.69488E+04  4.25649E+04 -6.04771E+04  5.17494E+04 -1.67892E+04
  4.45120E+04  3.87076E+03  3.85553E+04  2.41722E+04  1.27850E+04  3.86106E+04 -4.50362E+03  1.79205E+04
 -2.99755E+04  1.38501E+04 -8.88196E+03 -7.45733E+03  1.32863E+04 -1.20909E+04  1.70686E+04  1.53625E+04
  1.26617E+04  3.74155E+04 -3.38117E+04  4.16734E+04 -6.93786E+04  3.57165E+03 -5.64543E+04 -4.45794E+04
 -1.59735E+04 -6.43960E+04  4.16551E+04 -5.19715E+04  6.72852E+04  1.77502E+03  3.56644E+04  2.70530E+04
 -4.64065E+03  4.11590E+04 -3.04308E+04  2.01656E+04 -3.23814E+04 -2.44498E+03 -2.42597E+04 -1.25983E+04
 -3.77294E+03 -1.07722E+04 -3.58355E+03 -1.83711E+04  9.61371E+03 -2.15782E+04  1.57914E+04 -1.86460E+04
  1.45155E+04  1.04523E+04 -1.15560E+04  1.40498E+04 -2.78084E+04 -2.01567E+03 -8.71776E+03 -3.53900E+04
  2.62058E+04 -4.35486E+04  4.87328E+04 -2.62446E+04  4.58466E+04  2.76972E+04  1.55173E+04  5.12080E+04
 -7.27961E+03  4.50562E+04 -3.33092E+04 -1.06831E+04 -1.28898E+04 -2.87366E+04  2.51203E+04 -4.02641E+04
  4.62574E+04 -1.06306E+04  4.91350E+04  2.97169E+04  2.21949E+04  5.57722E+04 -1.56361E+04  5.86756E+04
 -3.94118E+04  3.69401E+04 -5.21170E+04  1.35422E+04 -5.60179E+04 -2.21424E+04 -2.37763E+04 -4.24008E+04
  1.00354E+04 -4.59186E+04  3.27189E+04 -2.30755E+04  3.32898E+04  6.81451E+03  1.94545E+03  2.10007E+04
 -1.82521E+04  1.06286E+04 -4.28533E+03 -1.09099E+04  1.64869E+03 -1.54827E+04  2.08697E+04  6.48524E+03
  1.84735E+04  1.81128E+04 -7.49648E+03  2.92642E+04 -2.85037E+04  2.11665E+04 -3.38106E+04  4.23832E+03
 -3.05864E+04 -2.03034E+04 -1.30304E+04 -2.97553E+04  5.62260E+03 -3.47787E+04  2.23899E+04 -1.69475E+04
  3.40521E+04 -2.24882E+04  3.27328E+04  3.53206E+03  3.08321E+04  2.18229E+04  9.36996E+03  3.96978E+04
 -2.19382E+04  3.10694E+04 -3.20639E+04  1.47984E+04 -2.26129E+04 -1.08736E+04 -1.37685E+04 -7.67272E+02
  2.26964E+03 -1.23032E+03 -4.05644E+03  2.94616E+03 -2.30770E+04  4.71705E+03 -1.98836E+04 -1.29155E+04
 -1.51411E+04 -2.47235E+04 -1.46318E+03 -2.40538E+04  2.38170E+04 -2.07750E+04  2.20593E+04  4.19840E+03
  1.20637E+04  1.43342E+04 -5.35710E+03  2.70442E+04 -2.54411E+04  1.13901E+04 -2.68976E+04 -1.11549E+04
 -2.75717E+04 -2.88874E+04 -2.14099E+03 -3.61026E+04  1.26020E+04 -2.71204E+04  2.55427E+04 -1.28487E+04
  2.63006E+04 -2.25158E+02  1.37406E+04  1.35530E+03  1.23410E+04  8.24477E+03  1.85828E+04 -5.88694E+03
  2.99122E+04  1.23109E+03  2.58363E+04  1.87219E+04  1.87187E+04  3.34322E+04 -1.37995E+03  5.84469E+04
 -2.55519E+04  4.50094E+04 -5.19093E+04  2.62625E+04 -5.45525E+04 -6.88831E+03 -3.57433E+04 -2.38301E+04
 -1.42596E+04 -4.49605E+04  1.12596E+04 -3.24657E+04  2.67832E+04 -2.28951E+04  2.61117E+04  1.36328E+04
  9.05600E+02  2.27522E+04 -9.78075E+03  1.66604E+04 -2.27373E+04  2.37993E+03 -1.04546E+04 -1.41864E+04
 -4.43488E+03 -1.94880E+04  1.38963E+04 -1.61818E+04  1.37894E+04 -2.29593E+03  2.21776E+03  3.51616E+03
 -5.06461E+03  3.62124E+03 -1.92201E+04 -8.11787E+03 -9.38911E+03 -2.02463E+04  2.39160E+04 -1.49199E+04
  2.79618E+04 -1.29261E+04  2.91338E+04  3.11476E+03  2.97160E+04  2.11924E+04  1.31129E+04  3.64249E+04
 -1.33207E+03  4.24590E+04 -2.20575E+04  2.22182E+04 -2.48506E+04  1.04381E+04 -1.04385E+04 -9.63254E+03
 -1.04974E+04 -2.00884E+04  3.58152E+03  6.34212E+03  3.41486E+02  7.69952E+03 -6.13851E+03  7.42231E+03
 -1.42863E+04 -7.66672E+03 -1.26058E+04 -1.80504E+04  3.48219E+03 -2.14725E+04  1.39136E+04 -1.75085E+04
  1.42369E+04 -1.37960E+04 -1.55127E+03  8.47156E+03  4.22355E+03  4.89430E+03 -1.08606E+04 -2.24273E+03
 -1.35021E+04 -6.63226E+03  1.69955E+03 -2.01270E+04  1.01896E+04 -1.32779E+04  1.81165E+04 -8.16518E+03
  2.68335E+04  2.14142E+03  2.10022E+04  2.67788E+04  7.02700E+03  1.75517E+04 -1.64515E+04  1.96962E+04
 -1.92255E+04  8.48914E+03 -5.62393E+03 -1.91951E+03  4.79356E+03 -5.73335E+03  1.25507E+04  4.90949E+03
  1.92063E+03  6.01555E+03  1.45149E+03  1.20177E+04 -7.41010E+03  1.65938E+04 -2.04911E+04 -2.47735E+03
 -4.82940E+03 -1.18892E+04  1.17181E+04 -2.05414E+04  1.67560E+04 -1.21721E+04  1.05451E+04  8.70833E+03
 -2.18905E+02  1.29085E+04 -1.02886E+04  1.06730E+04 -1.42955E+04  1.82437E+03 -1.62957E+04 -1.74126E+02
 -1.40367E+04 -1.93912E+04  1.80097E+03 -1.97629E+04  1.16068E+04 -1.54612E+04  1.89457E+04  2.25168E+03
  1.09638E+04  1.75284E+04 -5.86325E+03  2.13862E+04 -1.78070E+04  2.25353E+04 -2.01292E+04  7.84031E+02
 -1.01783E+04 -1.19345E+04  2.60874E+03 -1.07001E+04  5.66272E+03 -1.39512E+04  1.57111E+04  2.16107E+03
  6.30439E+03  5.55129E+03  1.38321E+01  3.95479E+03 -4.02611E+03 -1.05570E+04 -3.22207E+03 -1.15192E+04
  1.76203E+04 -1.17744E+04  2.39021E+04  4.19602E+03  2.53800E+04  4.46381E+02  1.06327E+04  2.70874E+04
 -6.62294E+03  2.77769E+04 -2.81616E+04  1.83168E+04 -3.56405E+04  1.35131E+03 -2.77614E+04 -9.15949E+03
 -9.12155E+03 -2.00357E+04  1.05954E+04 -2.72818E+04  8.68868E+03 -1.35432E+04  7.74087E+03  5.83767E+02
  4.20567E+03  7.86388E+01  1.70965E+04 -3.05835E+03  4.33902E+03 -7.33961E+03  8.00742E+03 -4.24413E+03
  1.27110E+04  3.23609E+03  1.31187E+04  1.29048E+04  1.71506E+03  2.11910E+04 -1.45964E+04  1.34715E+04
 -2.52098E+04 -4.70990E+03 -3.51060E+03 -1.46548E+04 -6.23031E+03 -2.08992E+04  1.07785E+04 -2.61749E+04
  2.47216E+04 -9.48316E+03  2.86597E+04  9.35400E+03  1.44140E+04  2.46176E+04 -1.11904E+03  2.63951E+04
 -1.13622E+04  1.69284E+04 -1.51069E+04  4.72592E+03 -1.58331E+04 -3.47019E+03 -3.38318E+03 -8.59643E+02
 -1.14244E+03  6.61257E+03 -3.09760E+03  2.18152E+03 -8.25039E+03  2.25231E+03 -1.61575E+04 -9.36715E+02
 -3.84030E+03 -6.62099E+03 -1.88378E+03 -2.43595E+04  2.07019E+04 -2.22032E+04  1.40353E+04 -2.71253E+03
  2.74748E+04  1.19757E+04  5.12923E+03  1.74278E+04 -7.46653E+03  1.48662E+04 -1.05916E+04  1.33491E+04
 -2.87187E+04  4.49036E+03 -1.97701E+04 -9.75262E+03 -4.49405E+03 -2.00241E+04  1.05988E+04 -1.47905E+04
  1.79867E+04 -3.59243E+03  1.09533E+04  1.27443E+04  5.87638E+03  4.78226E+03  3.44310E+03  3.78369E+03
  6.52933E+03  5.75997E+03  1.04097E+04  3.53746E+02  9.97972E+03  1.08076E+04  8.65870E+03  9.14969E+03
 -9.09917E+03  1.65235E+04 -1.90728E+04  1.61483E+04 -2.80347E+04  7.90480E+01 -1.88846E+04 -1.29261E+04
 -2.69460E+03 -1.87678E+04  1.18119E+04 -2.60809E+04  1.62955E+04 -1.86986E+04  1.07543E+04 -2.18682E+03
  5.07313E+03  2.05575E+03  3.83519E+03  2.10413E+04 -3.36632E+03  1.12671E+04 -1.27121E+04 -8.04157E+03
 -8.43638E+03 -1.05421E+04  3.97907E+03 -8.19468E+03  8.43078E+03 -4.96579E+03  7.60377E+03  4.23360E+03
  5.96999E+03  2.52015E+03  6.07520E+03  8.08377E+03  8.12673E+02  2.31570E+03 -1.43584E+03 -7.80164E+03
 -4.14188E+03 -3.33879E+03  5.78904E+03  7.12092E+03  8.79406E+03  1.48535E+04 -4.63094E+03  1.86250E+04
 -6.20165E+03  1.64120E+04 -1.34290E+04  4.26423E+03 -6.17554E+03 -9.29618E+03 -3.42591E+03 -3.08255E+03
  6.11259E+03 -5.14814E+03  8.74476E+03  9.83072E+02  2.48281E+02 -1.41335E+03 -1.67483E+03  4.48720E+03
 -1.53541E+03  4.18905E+03 -6.05273E+03 -1.66399E+04 -6.10874E+03 -1.01367E+04  9.04897E+03 -1.51706E+04
  5.94714E+03 -6.46644E+02  9.64987E+03 -6.74687E+03 -3.39081E+03 -1.11969E+03  5.27852E+03  4.70432E+03
 -3.57057E+03  3.46127E+03 -4.13332E+03 -9.56218E+02 -4.96256E+03 -3.62958E+03  8.59699E+03 -4.76554E+03
  1.09206E+04  7.66774E+02  9.37421E+03  1.51100E+04  8.93585E+03  1.83080E+04 -1.05620E+04  1.81724E+04
 -1.03677E+04 -2.85999E+03 -1.56992E+04  1.51121E+03 -8.77977E+03 -8.32388E+03  1.13869E+02 -5.30389E+03
  1.01507E+04 -1.98805E+03  6.92777E+03  1.61898E+04 -2.79522E+03  5.29654E+03  4.86562E+03  9.95121E+03
  1.40720E+03  7.53070E+03  3.03291E+02  2.42065E+03 -2.87629E+03 -2.96146E+02  1.08459E+03 -8.23845E+03
  3.24668E+03  2.44038E+03 -6.51727E+03  6.13510E+03 -1.41638E+04  5.35079E+03 -1.61104E+04 -1.39108E+04
 -1.09260E+04 -1.96070E+04  4.15113E+03 -1.38967E+04  1.34167E+04 -1.51198E+04  1.99506E+04 -6.72227E+03
  1.66612E+04  5.66737E+03  1.94349E+04  1.67554E+04  3.53290E+03  1.62677E+04  7.37890E+01  1.39210E+04
 -4.59300E+03  4.06426E+03 -9.24760E+02  1.71479E+03  1.51336E+03 -7.66709E+03  1.34037E+03  3.23735E+03
 -2.97185E+03 -1.14559E+03 -8.20724E+03 -7.52681E+03 -1.01325E+02 -2.43295E+03  4.48947E+03 -3.77734E+03
  4.73363E+03 -1.65213E+02  8.25513E+03 -8.29703E+02  1.35341E+04  1.14013E+04  8.04854E+02  1.54729E+04
 -8.98222E+03  1.37154E+04 -1.84335E+04  1.05815E+04 -1.63635E+04 -1.98087E+03 -2.01085E+04 -1.44660E+04
 -4.95174E+03 -1.17491E+04  6.15005E+03 -1.93625E+04  1.63358E+04 -5.81522E+03  1.30216E+04  5.24312E+02
  1.25563E+04  9.63080E+03  9.70712E+02  4.16900E+03 -6.39928E+03  7.02112E+03  1.26797E+03 -8.20554E+03
 -3.62181E+03 -2.43463E+03  2.45885E+03  5.04957E+03  7.94951E+03  8.97848E+03 -3.10515E+03  5.94304E+03
 -1.17951E+04  4.74543E+03 -8.13187E+03  8.70837E+02 -1.22268E+04 -3.39085E+03  4.87953E+03 -1.72362E+04
  1.04793E+04 -1.08411E+04  1.14687E+04 -1.79427E+03  1.31476E+04  5.88430E+03  3.39699E+03  1.26274E+04
  2.96655E+03  1.60306E+04  4.63672E+03  1.58479E+04 -5.79532E+03  4.27793E+03 -1.17155E+04  2.34904E+03
 -6.99399E+02 -6.12827E+02 -7.25108E+03  8.22942E+02 -2.37417E+03  2.64499E+03 -9.17105E+03  2.09139E+03
 -5.59375E+03 -1.24166E+03  1.58886E+03 -1.37452E+04  5.62636E+03 -5.74060E+03  1.23492E+04 -7.72555E+03
  8.47886E+03 -3.52753E+02  1.17222E+04  1.05075E+04 -1.09806E+03  1.58343E+04 -1.03687E+04  4.16727E+03
