 $NMID ID='MM_0lb_SNR50_18hz_g55_81.RAW', FMTDAT='(8E13.5)'
 TRAMP=1., VOLUME=1. $END
  3.13777E+05  4.31364E+02  3.38866E+05  2.49182E+05  8.04281E+04  3.39302E+05 -1.33334E+05  2.47345E+05
 -1.86499E+05  8.71762E+04 -1.08685E+05 -3.28002E+04  5.46445E+03 -5.18285E+04  5.37418E+04  8.90554E+01
  3.45827E+04  5.22603E+04 -1.91177E+04  7.37404E+04 -6.53836E+04  6.45203E+04 -8.25055E+04  3.25896E+04
 -7.77320E+04 -1.11284E+04 -5.27340E+04 -5.38511E+04 -1.46725E+04 -7.14700E+04  2.64062E+04 -4.45122E+04
  3.75045E+04  3.38986E+03  1.83148E+04  4.84619E+04 -3.55695E+04  4.67645E+04 -6.57231E+04  1.29994E+03
 -4.96515E+04 -5.61504E+04 -5.87992E+03 -7.30157E+04  3.18872E+04 -5.20045E+04  4.58036E+04 -1.52396E+04
  3.87453E+04  1.18084E+04  2.77512E+04  2.38787E+04  1.49048E+04  3.02019E+04 -3.84726E+03  2.64703E+04
 -1.96695E+04  1.34111E+04 -1.34759E+04 -2.50170E+03  6.12673E+03 -1.33299E+04  2.04479E+04  1.10342E+04
  4.62192E+03  3.23265E+04 -3.27629E+04  3.38795E+04 -6.30637E+04  1.08749E+03 -5.80160E+04 -4.22122E+04
 -1.10809E+04 -6.57239E+04  4.14709E+04 -4.29694E+04  5.78546E+04  2.18253E+03  3.66845E+04  2.92142E+04
 -6.43118E+02  3.20786E+04 -2.79151E+04  1.85352E+04 -2.90599E+04 -5.87251E+03 -1.64531E+04 -1.01682E+04
 -5.03933E+03 -1.25422E+04 -1.86380E+03 -2.26093E+04  7.76788E+03 -2.51199E+04  1.36176E+04 -1.31850E+04
  1.46541E+04  7.51051E+03 -4.10913E+03  1.21610E+04 -2.07955E+04 -1.53319E+03 -7.75546E+03 -3.42621E+04
  2.64054E+04 -3.88413E+04  4.08944E+04 -1.97781E+04  4.30508E+04  2.41743E+04  1.25766E+04  4.43656E+04
 -2.06376E+04  2.77751E+04 -2.52535E+04  1.38644E+03 -1.12738E+04 -2.77990E+04  2.24298E+04 -3.09386E+04
  3.69359E+04 -9.17457E+03  2.92124E+04  2.38629E+04  1.78013E+04  4.42499E+04 -8.26996E+03  4.97043E+04
 -2.96283E+04  3.30149E+04 -4.11745E+04  1.34354E+04 -4.32312E+04 -1.24937E+04 -2.31018E+04 -3.67142E+04
  7.26177E+03 -3.43627E+04  2.86138E+04 -1.59192E+04  2.63534E+04  1.38799E+04 -1.09928E+03  1.43516E+04
 -1.52160E+04  3.74252E+03 -1.01702E+04 -1.36181E+04  5.84837E+03 -1.12753E+04  1.60735E+04  1.01971E+04
  1.23028E+04  2.26191E+04 -8.09328E+03  2.10927E+04 -1.94989E+04  6.29034E+03 -2.62868E+04 -3.14913E+03
 -2.10023E+04 -1.84681E+04 -6.13512E+03 -1.65046E+04  3.96451E+03 -1.98752E+04  1.22980E+04 -1.54466E+04
  1.94335E+04 -6.68543E+03  3.13102E+04 -5.81433E+02  2.03590E+04  2.02133E+04  4.02123E+03  3.67484E+04
 -1.89641E+04  2.81060E+04 -3.29474E+04  7.28701E+03 -2.34837E+04 -1.02564E+04 -8.49325E+02 -1.60697E+04
  6.49612E+03 -2.62457E+03 -1.03244E+03  6.85847E+03 -1.72376E+04  2.76369E+03 -1.43079E+04 -9.99085E+03
 -9.98060E+03 -1.55010E+04 -9.50023E+02 -1.87831E+04  1.74793E+04 -1.30322E+04  1.36130E+04 -3.09550E+02
  5.06967E+03  8.18744E+03 -3.15525E+02  1.51271E+04 -1.13809E+04  6.29848E+03 -1.13205E+04 -5.24169E+03
 -1.28865E+04 -1.39685E+04 -1.69655E+02 -1.98486E+04  1.03516E+04 -1.65799E+04  1.61957E+04 -6.79133E+03
  1.40927E+04  5.21451E+03  1.07505E+04  4.50471E+03  7.15598E+03 -3.31498E+03  7.16441E+03 -2.61229E+03
  1.47340E+04  1.16414E+03  1.27635E+04  8.87466E+03  1.57009E+04  2.62921E+04  1.00342E+03  2.83971E+04
 -1.57697E+04  2.10829E+04 -2.38204E+04  1.24570E+04 -2.39930E+04  3.54328E+02 -2.28717E+04 -1.52209E+04
 -1.00017E+04 -2.65653E+04  6.31335E+03 -1.97997E+04  1.93417E+04 -1.51173E+04  2.01862E+04  7.80998E+03
  1.09991E+04  1.14033E+04 -7.56181E+03  1.40367E+04 -1.17331E+04  2.11682E+03 -1.52909E+04 -1.09636E+04
  2.69028E+03 -1.71142E+04  3.15535E+03 -1.20875E+04  7.04320E+03 -4.16171E+03  1.79963E+03  3.89877E+03
 -9.37967E+03  1.89707E+03 -6.12314E+03  2.77890E+02 -3.06704E+03 -1.30325E+04  4.78874E+03 -9.85507E+03
  1.39345E+04 -7.30432E+03  1.27752E+04  3.62094E+03  1.16206E+04  1.49442E+04  7.31762E+03  1.28752E+04
  7.10258E+02  1.40180E+04 -1.49398E+04  6.35119E+03 -1.72796E+04  1.33791E+03 -1.08098E+04 -1.77389E+03
 -8.10261E+03 -6.95955E+03  2.26442E+03  3.25911E+03 -2.07725E+03  3.45438E+03 -6.27847E+03  3.66852E+03
 -1.23485E+04  2.11750E+03 -7.88129E+03 -4.39261E+03 -4.76943E+03 -1.59836E+04  8.38392E+03 -6.95847E+03
  8.16821E+03 -8.58676E+03  7.89190E+03 -8.89725E+02 -6.61879E+02  4.46740E+03 -2.61047E+03  2.78214E+03
 -3.51283E+03 -2.88055E+03  3.43886E+02 -9.16847E+03  4.08244E+03 -8.04082E+03  7.96238E+03  8.70105E+02
  1.15601E+04  4.48296E+02  9.24760E+03  9.51134E+03  2.65252E+03  1.09080E+04 -7.64449E+03  1.00510E+04
 -8.26808E+03  5.06743E+03 -4.14519E+03 -2.69890E+03 -6.31473E+02 -3.28734E+03  6.89835E+03  1.87196E+03
  8.09135E+03  2.68286E+03 -1.82049E+03  1.45083E+04 -5.35419E+03  1.15400E+04 -1.02867E+04  4.56884E+03
 -7.49598E+03 -6.63164E+02  7.86449E+02 -7.46972E+03  3.96478E+03 -5.69852E+03  3.65436E+03  3.68867E+03
  4.01747E+02  2.38077E+03 -5.63334E+03  6.93616E+03 -8.37240E+03  1.10856E+03 -3.20680E+03 -1.25089E+03
 -1.46619E+03 -4.01308E+03  4.57165E+03 -8.82079E+03  4.03998E+03 -2.67612E+03  1.23823E+04 -2.34763E+02
  6.84023E+03  4.99139E+03  6.21546E+02  4.88310E+03 -5.29248E+03  3.97987E+03 -4.02491E+03  1.51975E+03
 -3.91887E+03 -3.01183E+03 -1.96536E+03 -2.73037E+03  5.09795E+03 -6.27029E+03  4.72622E+03 -6.08401E+03
  1.17369E+03 -3.95300E+03 -1.82018E+03  2.37307E+03  1.67434E+02  1.04117E+03  6.43413E+02 -3.85972E+03
  6.97587E+03  2.17105E+03  6.69689E+03 -2.58219E+03  1.04085E+04  2.24122E+03  5.86436E+03  1.00880E+04
 -1.47658E+03  9.84426E+03 -1.05847E+04  9.64702E+02 -7.12417E+03  2.50947E+03 -1.08821E+04 -1.49085E+03
 -3.25106E+03 -4.72689E+03  9.62364E+02 -9.76144E+03  6.46627E+03 -6.49534E+03  5.89883E+03 -3.37854E+03
  3.22428E+02 -6.13554E+03  1.17752E+02 -2.23506E+03  1.18601E+03 -1.31608E+03  5.80992E+03  6.24146E+03
  4.52240E+03  2.14339E+03  1.71963E+03  5.51368E+03 -1.28599E+03  1.81391E+03 -3.08651E+03  3.30804E+03
 -1.16050E+04  3.36598E+03  6.61266E+02 -1.04028E+04  2.32557E+02 -3.92125E+03  3.59301E+03 -4.66702E+03
  3.06207E+03 -1.27379E+03  6.91273E+03  1.30275E+03  6.47397E+03  5.22427E+03  8.68892E+02  8.54812E+03
  2.14615E+03  3.57027E+03 -1.83373E+03 -2.61061E+03 -3.27568E+03 -2.58276E+03 -8.23446E+02 -1.96001E+03
  3.35134E+02 -1.35152E+03 -3.93398E+03  6.16658E+02  1.05032E+03  3.68781E+03 -4.95291E+03  1.58695E+02
 -3.75538E+03 -4.19461E+03  2.25131E+03 -3.32195E+03  2.11410E+03 -4.13479E+03  2.60955E+03 -5.26332E+03
  1.95574E+03  3.51566E+03 -2.34574E+02  4.30737E+03 -2.54006E+03  6.71230E+03 -1.00605E+03  4.81920E+03
 -6.20870E+03  1.31381E+02 -1.52029E+03 -5.00767E+03 -2.23122E+03 -5.89720E+03  1.58554E+03 -1.71121E+03
  6.42475E+02  1.88538E+03  8.44343E+02  2.52707E+03  2.05134E+03  7.03183E+02  2.06052E+03  5.21617E+03
  6.34480E+03  2.44617E+03 -2.82948E+03  6.58694E+02  3.06525E+03  3.84917E+03 -2.31915E+03 -2.39326E+01
  6.54726E+02  1.40123E+03 -1.85419E+03  5.35566E+03 -5.47643E+03  1.07219E+03 -7.53873E+03  5.87220E+03
  3.93606E+03 -1.87747E+03 -1.93773E+03 -3.93595E+03 -9.12245E+02 -2.88278E+03 -2.24107E+02 -2.85757E+03
  2.58232E+03 -1.49893E+03  3.54687E+03  3.64127E+02  8.65782E+02  6.54300E+02 -1.04015E+03  9.18293E+02
 -6.13710E+03 -1.36369E+02  2.68776E+03 -3.22916E+03  9.39521E+02 -3.40370E+03  4.35963E+03  1.09513E+03
  2.25848E+03  1.79436E+03  5.00899E+03 -6.37190E+03  1.75218E+03  3.46155E+03 -5.55830E+02 -4.21175E+03
  6.02874E+01 -5.75330E+03  5.88522E+03 -1.42234E+03  2.87689E+03  2.35354E+03  5.34192E+01  4.77728E+03
 -1.91901E+03  1.38674E+03 -4.89555E+03  2.03036E+03 -2.71153E+03  4.46940E+02 -4.83375E+03 -5.98535E+03
 -9.25579E+02 -1.66726E+03  5.51353E+02  1.23638E+03  2.92923E+02 -2.06252E+03  3.41988E+03  7.31593E+02
  3.37162E+02 -9.05873E+02  3.66821E+02 -1.30625E+03 -6.03600E+02 -3.80433E+03  3.74465E+03  1.20804E+03
  1.56571E+03  5.92257E+02  1.66315E+03  3.24711E+03 -2.44475E+03  4.03347E+03  1.47217E+03  2.36952E+03
 -2.36513E+03 -4.14513E+02 -3.45267E+03  4.70662E+02 -2.13754E+03 -4.84598E+03  6.63996E+03 -2.07859E+03
  5.89847E+03  7.51307E+02  3.49087E+03  7.64571E+03 -2.06442E+03  7.13893E+02  3.20922E+03 -1.38002E+03
 -4.89126E+03  4.41537E+03 -6.67166E+03 -5.59410E+01 -2.45519E+03  3.10842E+03  8.22677E+02  1.65003E+03
  1.92789E+03 -4.19473E+03  4.71832E+03  2.03957E+03 -2.60294E+03  3.87243E+03  2.83847E+03  1.09212E+03
  7.94259E+01 -1.78422E+02 -1.53346E+03 -1.41939E+03  1.60309E+03  2.06421E+03  2.40741E+03 -2.94765E+03
 -5.56322E+02 -2.02338E+03 -1.32081E+03  4.94162E+03  1.30205E+03 -3.03196E+02  7.89824E+02 -3.83737E+03
 -5.19705E+03 -3.90277E+03 -2.20419E+03 -7.48848E+03  1.17452E+03  3.79897E+02  4.27266E+02  2.02790E+03
 -1.72152E+03 -6.36719E+02  9.86187E+02  1.82653E+03 -2.79136E+03 -1.54237E+02  1.51128E+03  3.80553E+03
  9.63958E+02 -3.42727E+03  3.07602E+03 -1.66800E+03 -2.58025E+03 -5.27865E+03 -1.49074E+03 -4.99354E+03
  2.30520E+02 -1.20121E+03 -5.26069E+02 -3.81814E+03 -1.74840E+03  9.20913E+02 -3.17323E+03  3.09679E+02
 -6.92803E+02  1.63029E+03  5.44840E+02  1.09514E+03  4.33882E+03  2.35654E+03 -2.69627E+03  4.56003E+03
 -1.03542E+03  2.48385E+03 -1.85899E+03  1.98662E+02 -2.69980E+03  4.10204E+03 -4.84689E+03  5.00152E+01
 -1.00907E+03 -3.41324E+02  6.74167E+02 -2.12613E+03  7.56107E+02  1.36714E+03  1.19498E+03  1.03515E+03
 -3.42010E+03 -1.21570E+03 -3.07996E+02 -8.32681E+02  8.84215E+01  8.47566E+02 -3.86068E+02  1.85955E+03
  1.64924E+03  2.61457E+03 -1.37273E+03 -2.14186E+02  2.74588E+03 -1.76344E+03 -2.44825E+03  2.74307E+02
  3.41901E+03 -1.59907E+03 -2.17607E+03 -3.21372E+02 -4.29317E+03 -1.48680E+03  1.24221E+03 -6.10192E+03
  6.50512E+02  1.12068E+03 -1.94556E+03  1.00525E+03  9.44369E+02 -2.49681E+03  2.15446E+03 -1.84078E+03
  2.69573E+03  3.15463E+03  2.01949E+02  1.93932E+03 -4.64073E+03  4.99817E+02 -1.11174E+03  4.38752E+02
 -1.58305E+03 -2.78558E+03 -1.50421E+03  8.62777E+02 -2.60957E+03  1.72263E+03 -1.33877E+03 -1.66455E+03
 -1.47517E+03 -7.36170E+02  1.11531E+03 -8.20591E+02 -2.68248E+03 -1.90854E+03  3.19431E+03  4.26816E+03
 -1.20653E+03 -3.14217E+03  9.55032E+02 -1.46370E+03  1.80443E+03  5.75436E+03 -4.52110E+02 -3.06282E+03
