 $NMID ID='MM_0lb_SNR50_13hz_g45_61.RAW', FMTDAT='(8E13.5)'
 TRAMP=1., VOLUME=1. $END
  3.07654E+05 -2.14306E+03  3.33902E+05  2.49099E+05  8.39997E+04  3.39971E+05 -1.33571E+05  2.50468E+05
 -1.88185E+05  8.81182E+04 -1.14333E+05 -3.38776E+04 -2.51037E+03 -4.97638E+04  5.00963E+04 -3.96215E+03
  3.31464E+04  5.39221E+04 -1.68368E+04  7.55432E+04 -5.98488E+04  6.35579E+04 -8.10542E+04  3.15282E+04
 -8.33682E+04 -1.51761E+04 -5.66790E+04 -4.98087E+04 -1.68228E+04 -7.41194E+04  3.14566E+04 -4.53715E+04
  4.25811E+04 -5.28437E+03  9.66853E+03  5.05295E+04 -3.47984E+04  4.80526E+04 -6.63187E+04 -5.73321E+02
 -5.17913E+04 -5.39945E+04 -5.71545E+03 -7.96330E+04  3.45519E+04 -5.33477E+04  4.61793E+04 -1.42892E+04
  4.32934E+04  7.50271E+03  3.34587E+04  2.75552E+04  1.69192E+04  3.30172E+04 -3.85781E+03  2.51732E+04
 -2.69738E+04  1.56360E+04 -1.60011E+04 -3.82961E+03  9.18162E+03 -5.28947E+03  2.43399E+04  1.26842E+04
  4.37080E+03  3.36752E+04 -2.83338E+04  3.56586E+04 -6.75327E+04  5.57827E+03 -5.61325E+04 -4.54119E+04
 -1.53100E+04 -6.24683E+04  4.19561E+04 -4.06689E+04  6.16287E+04  1.31609E+03  3.77012E+04  2.51493E+04
 -1.05227E+04  4.27387E+04 -2.69530E+04  1.72462E+04 -2.57990E+04 -4.97688E+03 -1.94150E+04 -1.59124E+04
 -7.49143E+03 -1.54864E+04  3.05845E+02 -1.87205E+04  1.23451E+04 -2.66596E+04  1.67508E+04 -1.57827E+04
  1.46121E+04  3.24842E+03 -1.01533E+04  1.18338E+04 -1.73670E+04 -8.71919E+03 -3.66010E+03 -3.38681E+04
  2.33891E+04 -5.04273E+04  4.69341E+04 -2.56200E+04  4.48911E+04  1.89595E+04  1.64655E+04  3.72662E+04
 -1.99489E+04  3.56988E+04 -2.45842E+04  2.08400E+03 -9.54690E+03 -2.62960E+04  2.04096E+04 -3.11325E+04
  4.78129E+04 -1.00152E+04  3.10452E+04  2.25407E+04  1.50239E+04  4.16504E+04 -4.46941E+03  5.11094E+04
 -2.99831E+04  3.75183E+04 -4.28088E+04  4.51603E+03 -4.08695E+04 -1.85322E+04 -2.25001E+04 -3.99415E+04
  7.10750E+03 -4.19028E+04  3.03845E+04 -1.91929E+04  2.72226E+04  5.56453E+03  5.58554E+03  1.72776E+04
 -1.64535E+04  1.11169E+04 -9.08937E+03 -7.97987E+03  9.98640E+03 -1.43132E+04  1.87206E+04  4.07898E+03
  1.17663E+04  2.22780E+04 -4.24476E+03  2.97798E+04 -2.47361E+04  5.21247E+03 -3.26599E+04 -4.83665E+03
 -2.22047E+04 -1.46876E+04 -9.03517E+03 -2.40377E+04  4.48212E+03 -1.82881E+04  1.69509E+04 -1.68667E+04
  3.06358E+04 -1.41163E+04  3.41088E+04  3.58455E+03  2.48222E+04  1.80237E+04  3.63042E+03  3.67822E+04
 -1.84163E+04  3.04291E+04 -2.44998E+04  1.14119E+04 -2.47034E+04 -8.58294E+03 -1.07268E+04 -1.39571E+04
  3.21830E+03 -3.25270E+03 -3.42649E+03  4.84888E+03 -1.75347E+04  5.51351E+03 -1.34259E+04 -5.26353E+03
 -1.09806E+04 -2.29414E+04  7.11055E+03 -2.49210E+04  1.54166E+04 -1.93437E+04  1.96395E+04 -2.32805E+03
  9.98688E+03  1.06344E+04  1.32682E+03  2.01319E+04 -1.52494E+04  1.67412E+04 -1.54166E+04 -2.95079E+03
 -1.72502E+04 -2.26198E+04  2.17867E+02 -2.06202E+04  1.28328E+04 -2.16539E+04  1.94796E+04 -9.09704E+03
  2.14081E+04  4.42454E+03  1.30434E+04  3.34713E+03  4.42174E+03  1.37103E+03  9.28026E+03  3.05820E+03
  2.13104E+04  8.12058E+02  2.14889E+04  1.85117E+04  1.27821E+04  3.40915E+04 -1.62456E+03  3.51357E+04
 -1.72393E+04  2.50230E+04 -3.14528E+04  1.41574E+04 -3.57393E+04 -5.15006E+03 -2.82843E+04 -1.72352E+04
 -1.31202E+04 -2.85906E+04  7.78286E+03 -2.46352E+04  2.07817E+04 -4.45537E+03  1.86970E+04  4.97422E+03
  1.02920E+04  1.63330E+04 -8.39067E+03  1.24863E+04 -1.90972E+04  2.66351E+03 -1.86669E+04 -9.58712E+03
 -4.90376E+02 -1.83485E+04  6.24711E+03 -1.50939E+04  9.25274E+03 -8.57078E+01 -2.91350E+03  8.36663E+03
 -4.62332E+03  1.07282E+03 -8.30112E+03 -6.90267E+03  6.31666E+02 -1.32888E+04  1.27008E+04 -1.44607E+04
  1.47972E+04 -9.69921E+03  1.80661E+04  5.08932E+02  1.82093E+04  1.25857E+04  1.24634E+04  2.48054E+04
 -2.70973E+03  2.46361E+04 -1.25138E+04  1.34111E+04 -1.74039E+04  1.90781E+03 -7.69297E+03 -3.47589E+03
 -6.87155E+03 -6.14059E+03  1.15471E+03  3.09854E+02  3.46050E+03  1.46460E+03 -7.07163E+03  2.78560E+03
 -8.22103E+03  8.66442E+02 -1.17625E+04 -8.09417E+03 -4.38890E+03 -1.24485E+04  5.10459E+03 -9.54656E+03
  1.40879E+04 -4.64740E+02  1.97232E+03  1.17822E+02  7.78937E+02  6.52580E+03 -6.94464E+03 -1.38597E+03
 -7.28506E+03 -1.03476E+04 -7.33477E+03 -8.24273E+03  8.66455E+03 -6.57119E+03  1.77100E+04 -7.76169E+03
  1.72472E+04  3.57228E+03  1.35682E+04  7.09676E+03  2.58198E+03  1.54973E+04 -4.94009E+03  1.04318E+04
 -8.90282E+03  1.75210E+03 -6.87305E+03 -4.90436E+03 -1.55785E+03 -4.44751E+03  4.29851E+03  7.32954E+02
  1.05005E+04  6.50506E+03  5.90409E+03  8.88174E+03 -5.88765E+03  8.20982E+03 -1.54119E+04  2.66878E+03
 -9.87242E+03 -6.31654E+03 -2.18432E+03 -1.64008E+04  9.36750E+03 -3.90553E+03  8.05316E+03 -1.37041E+02
 -1.66343E+03  4.93005E+03 -6.23484E+03  8.53734E+03 -7.24357E+03  6.53432E+03 -5.23018E+03  1.48805E+02
 -2.52426E+03 -5.48319E+03  4.47174E+03 -1.03675E+04  8.97485E+03 -8.05060E+03  1.17725E+04  4.60419E+03
  1.00094E+04  1.72721E+04 -3.71493E+03  9.87445E+03 -9.46515E+03  6.52131E+03 -7.20784E+03  1.29688E+01
 -1.03077E+04 -5.82273E+03 -8.59790E+03 -1.42193E+04  8.22470E+03 -5.64882E+03  2.59845E+03 -3.14001E+03
  1.56779E+03  2.61722E+03  6.40581E+02  1.29001E+03 -5.23774E+03 -2.81098E+03  3.80213E+02 -1.22888E+04
  7.49228E+03 -3.26278E+03  1.34616E+04 -1.34701E+02  1.04754E+04  7.51817E+03  8.43627E+03  1.03697E+04
  1.51640E+02  1.67103E+04 -1.55966E+04  1.18901E+04 -1.15472E+04  2.02202E+03 -1.10952E+04 -8.89423E+03
 -9.13820E+03 -1.30650E+04  5.35752E+02 -6.97398E+03 -2.10797E+03 -4.09765E+03  4.24736E+03 -6.49622E+03
  5.40753E+03 -1.89453E+03  5.42115E+03 -1.75895E+02  5.84903E+03 -1.48289E+03  1.05624E+04  5.33072E+02
  6.02392E+03  2.47419E+03  7.86506E+03  8.24940E+03 -1.59910E+03  1.81099E+03 -6.59076E+03  5.44953E+03
 -1.14023E+04  2.46013E+03 -4.67580E+03 -3.79800E+03  2.89787E+03 -1.09449E+04  5.30186E+03 -1.20841E+04
  1.03909E+04 -6.39745E+03  1.55799E+04  5.65661E+03  5.61326E+03  9.54380E+03  5.23121E+03  1.53457E+04
 -2.23186E+03  8.65834E+03 -6.74892E+03  8.22968E+03 -5.98492E+03 -3.41409E+03 -1.95625E+02 -2.00080E+03
 -1.79833E+03 -2.11482E+03 -6.45435E+03  4.74725E+03  2.63920E+03  5.45788E+03 -6.45129E+03 -8.88025E+02
 -4.58152E+03 -1.15382E+04 -6.84370E+02 -1.14884E+04  5.79947E+03 -1.13237E+04  8.04115E+03 -1.34758E+03
  8.43520E+03  1.70231E+03  2.17234E+03  7.02527E+03 -2.50633E+03  9.58746E+03 -6.85695E+03  2.93975E+03
 -5.85479E+03  2.05914E+03 -2.40107E+03 -8.03252E+03  7.25586E+02 -5.22745E+03  1.21717E+03 -4.50398E+03
  6.01555E+03  8.38132E+01  2.21481E+03  1.66832E+03 -1.04693E+03 -5.07209E+02  1.29854E+03 -1.44284E+03
  4.74642E+03 -7.39329E+02  5.24485E+03  2.21782E+03  1.62604E+03  2.30101E+03  4.09451E+03  1.49706E+03
  9.59230E+02  8.35634E+03 -7.28111E+03  9.02548E+03 -7.59531E+03  6.10895E+03 -1.17746E+04 -5.98891E+03
 -7.11874E+03 -1.15763E+04  5.55360E+02 -9.90945E+03  8.43950E+03 -2.59433E+03  9.07619E+03 -2.54068E+03
  7.48065E+03  5.14591E+03  3.84773E+03  1.00592E+04 -6.49158E+02  4.20949E+03 -2.69647E+03 -3.60121E+02
 -5.31815E+02 -2.04730E+03  5.45059E+03 -6.32467E+03  4.58165E+03  1.89251E+02  7.53145E+02  4.37944E+03
  1.56299E+03  2.62804E+03  2.30240E+03  7.04470E+02 -1.19524E+03  4.03059E+03  4.12562E+03  1.67848E+03
  2.15216E+03  3.32485E+03 -1.98505E+03  4.20424E+01  1.46951E+03  5.12071E+03 -5.19976E+03  5.00220E+03
 -4.70385E+03  6.84287E+03 -8.95895E+03 -1.90741E+02 -2.50365E+03 -6.50792E+03 -4.50327E+03 -5.58454E+03
 -5.78680E+02 -1.24329E+03  7.06325E+02 -6.74725E+03 -3.85729E+03  1.82406E+03 -5.46846E+03  1.69329E+01
 -6.73435E+02  8.38059E+03 -5.90674E+02 -2.41521E+03  1.96180E+03 -1.22007E+03  3.57725E+03 -2.71876E+03
  1.82323E+03 -4.29027E+03  8.29792E+03 -1.92102E+02 -1.24614E+03  2.52872E+02 -6.07412E+03  1.29090E+03
 -2.55868E+03  2.14368E+02  4.31160E+02 -6.86118E+03  4.50920E+03 -5.33404E+03  4.74087E+03 -4.61192E+03
  3.01550E+03  5.08614E+03  3.63467E+03 -6.94544E+02  6.81202E+03  4.75633E+03  8.09712E+02  3.43454E+03
 -1.23985E+03  1.77468E+03 -6.11113E+03 -2.88679E+03 -8.95543E+02 -8.21835E+03 -1.57831E+03  4.84286E+02
  5.09075E+03 -5.42158E+02  2.13827E+03  1.91841E+02  1.73419E+03  6.25486E+03 -1.13399E+03  5.88248E+03
  9.61404E+02  1.86363E+03  3.30143E+03  6.59080E+02  1.10273E+03  6.28920E+01 -2.07186E+03  6.11115E+02
 -1.16027E+03 -1.81362E+03 -3.38423E+03  4.46580E+03 -3.06553E+03  1.94732E+03 -4.61561E+03 -4.08364E+03
 -5.36184E+03 -1.34702E+04  1.51299E+03 -1.19614E+04  6.85419E+03 -4.87190E+03  8.55444E+03 -1.08990E+03
  7.36677E+03  2.03400E+03  1.04242E+03  6.99035E+03  1.68523E+03  1.39135E+03  2.06725E+03  4.17757E+03
 -6.10727E+03  2.56966E+03 -2.37461E+03 -5.63287E+02 -4.37775E+03 -8.04859E+03 -2.64930E+03 -1.91605E+03
 -2.16961E+03  4.78561E+03 -3.82431E+03 -1.87092E+03 -2.85204E+02 -7.35061E+03 -5.06603E+03 -1.35198E+03
 -2.66066E+03 -6.54535E+03  2.95598E+02 -8.41663E+02 -7.88102E+02  5.79105E+03  5.51090E+02  6.27730E+03
 -1.11265E+03  1.02962E+04 -8.21181E+03 -3.45923E+02 -6.30529E+01 -2.00353E+03 -6.49874E+02 -1.79088E+03
  1.28024E+03  5.38593E+02 -1.87134E+03 -4.90263E+03  2.57068E+03 -2.30932E+03  2.07798E+03 -1.95824E+03
 -9.79466E+02  3.16089E+03 -1.87967E+03  4.29007E+03 -4.66377E+03 -3.46565E+03 -1.56222E+02 -2.92811E+03
 -3.54515E+03 -1.38397E+03  1.29578E+03  4.02688E+03  7.52990E+00 -3.40689E+03 -1.94913E+03  4.00754E+03
 -4.82539E+03  1.35464E+03 -7.93554E+03  1.91776E+03 -6.72828E+03 -3.43986E+03 -3.31643E+03 -6.12840E+03
  3.78981E+03 -1.05678E+04 -2.56114E+03  5.74032E+03  1.52941E+03  7.79902E+02  4.88827E+03  2.63617E+03
  4.62254E+03  1.57542E+03  2.80793E+03  2.00509E+03 -7.12482E+02  2.00416E+03  2.55218E+03 -2.30444E+03
 -1.93169E+03  2.76787E+03 -3.15605E+02  5.91987E+02 -3.97720E+02 -1.09837E+02  4.74872E+03 -3.67879E+03
  1.40485E+03  1.43127E+03  6.51030E+03 -3.67472E+03  1.13517E+03 -2.83726E+03  1.37943E+03 -6.78893E+02
 -5.00271E+02  6.75084E+02  3.35575E+03  1.12628E+03 -2.77263E+03  1.49627E+03 -4.03465E+03  2.43982E+03
