 $NMID ID='MM_0lb_SNR50_16hz_g55_44.RAW', FMTDAT='(8E13.5)'
 TRAMP=1., VOLUME=1. $END
  3.10252E+05 -3.49912E+03  3.40203E+05  2.46504E+05  8.32546E+04  3.40430E+05 -1.33372E+05  2.53281E+05
 -1.87197E+05  8.23347E+04 -1.14210E+05 -3.02941E+04 -2.34308E+03 -4.88156E+04  5.57105E+04  8.84951E+02
  3.52330E+04  5.41964E+04 -1.89701E+04  7.54668E+04 -6.11013E+04  6.47891E+04 -8.31849E+04  3.60772E+04
 -8.22501E+04 -1.17629E+04 -5.43351E+04 -4.71626E+04 -1.18319E+04 -6.91657E+04  2.82095E+04 -4.65716E+04
  4.24327E+04  2.16790E+03  1.59118E+04  4.75424E+04 -3.43746E+04  5.01230E+04 -6.61967E+04  2.67214E+03
 -5.02120E+04 -5.67960E+04 -7.53155E+03 -7.18143E+04  3.28198E+04 -5.27722E+04  4.94826E+04 -1.49665E+04
  4.85168E+04  1.28892E+04  3.15035E+04  2.86997E+04  1.52348E+04  3.39028E+04 -7.56127E+03  2.42435E+04
 -2.68248E+04  1.32440E+04 -1.92582E+04 -2.00550E+03  5.10387E+03 -5.21627E+03  2.22964E+04  1.32645E+04
  6.26043E+03  3.52227E+04 -3.39403E+04  3.97256E+04 -6.42417E+04 -1.24125E+03 -5.73994E+04 -4.24931E+04
 -1.41424E+04 -6.14224E+04  3.71560E+04 -4.47848E+04  5.85841E+04  2.74782E+03  3.50474E+04  3.71026E+04
 -8.19500E+03  3.47931E+04 -3.18398E+04  1.22964E+04 -2.72705E+04 -5.84128E+03 -1.63408E+04 -7.03663E+03
 -1.54847E+03 -1.46709E+04 -6.82586E+03 -1.91220E+04  5.96631E+03 -1.92412E+04  1.64211E+04 -1.34938E+04
  1.09799E+04  2.82868E+03 -9.43621E+03  1.31558E+04 -1.99954E+04 -1.02372E+04 -3.37126E+03 -3.10139E+04
  2.36746E+04 -4.55870E+04  4.63449E+04 -2.00201E+04  4.61445E+04  1.98070E+04  1.61332E+04  4.38765E+04
 -1.77586E+04  3.23006E+04 -2.50917E+04  2.90990E+02 -9.66531E+03 -3.22745E+04  2.43275E+04 -3.33205E+04
  3.81813E+04 -3.62459E+03  3.32705E+04  2.34811E+04  2.28571E+04  4.15601E+04 -5.53324E+03  4.66121E+04
 -3.05249E+04  3.21542E+04 -3.93742E+04  8.49712E+03 -4.07104E+04 -1.57358E+04 -1.57067E+04 -3.78370E+04
  8.72904E+03 -3.81768E+04  3.19757E+04 -1.76877E+04  3.08917E+04  7.12395E+03  3.91947E+03  1.46284E+04
 -1.86985E+04  7.80027E+03 -1.10836E+04 -7.86705E+03  6.55097E+03 -6.62840E+03  1.78465E+04  3.31818E+03
  1.55985E+04  2.07134E+04 -7.13582E+03  2.08877E+04 -1.81141E+04  1.43306E+04 -2.40329E+04 -5.05688E+03
 -2.01244E+04 -1.59804E+04 -5.99256E+03 -2.37512E+04  4.65148E+03 -1.62781E+04  1.14709E+04 -2.32218E+04
  2.70356E+04 -1.44925E+04  3.33842E+04 -1.97763E+02  2.46764E+04  1.67446E+04  4.94084E+03  3.50712E+04
 -1.50113E+04  3.12842E+04 -2.87467E+04  5.57467E+03 -2.29468E+04 -1.29085E+04 -4.32779E+03 -1.11847E+04
  1.90290E+03 -3.70708E+03 -3.38173E+03  1.01564E+04 -1.44840E+04  3.22481E+03 -1.35689E+04 -9.01537E+03
 -1.51300E+04 -1.90662E+04  5.40749E+03 -2.40961E+04  1.45216E+04 -1.63682E+04  1.42540E+04 -1.37941E+03
  1.13751E+04  1.27986E+04  2.07647E+03  1.89697E+04 -1.26556E+04  8.38120E+03 -2.04216E+04 -1.95534E+03
 -1.34084E+04 -1.63368E+04  1.84536E+03 -2.49643E+04  1.05041E+04 -1.59829E+04  1.69161E+04 -6.54735E+03
  9.59596E+03  1.23057E+03  1.34987E+04  2.21519E+03  7.30208E+03 -3.05779E+03  1.20262E+04  2.17542E+02
  7.93340E+03  2.70242E+03  1.80677E+04  1.56696E+04  1.34624E+04  2.47469E+04 -5.20226E+03  3.30190E+04
 -2.05803E+04  2.66076E+04 -2.68699E+04  1.32863E+04 -3.35821E+04 -3.44554E+03 -2.73030E+04 -1.97456E+04
 -1.03407E+04 -2.57043E+04  6.36608E+03 -2.10574E+04  1.85173E+04 -1.15984E+04  2.02332E+04  3.11841E+03
  5.05838E+03  1.38296E+04 -7.80845E+03  1.43005E+04 -1.42824E+04  1.59728E+03 -1.28876E+04 -7.43511E+03
  1.04401E+03 -8.88780E+03  8.56234E+03 -8.75471E+03  8.43886E+03  8.63781E+02 -6.08827E+03  5.41016E+03
 -4.11413E+03  8.20603E+02 -2.94119E+03 -6.86152E+03  1.15132E+03 -1.49663E+04  8.37710E+03 -1.51976E+04
  1.26671E+04 -6.25131E+03  1.50405E+04  6.75382E+03  1.31649E+04  1.67928E+04  1.26874E+04  1.74219E+04
 -1.63958E+03  1.91824E+04 -1.18901E+04  1.68145E+04 -1.34489E+04  1.96124E+03 -9.06031E+03 -6.13925E+03
 -5.91054E+03 -5.54416E+03 -1.15316E+03 -5.70961E+02  7.75948E+02 -9.01533E+02 -6.32273E+03  1.53203E+03
 -1.17370E+04 -2.63249E+03 -7.96115E+03 -5.56406E+03 -5.42560E+03 -1.24640E+04  5.22774E+03 -1.08544E+04
  6.80445E+03 -5.15395E+02  4.03112E+03  4.00636E+03  3.74551E+03  6.65571E+03 -6.28945E+03 -1.49435E+02
 -3.83633E+03 -1.07178E+04 -1.19820E+03 -8.96085E+03  6.55368E+03 -1.22029E+04  1.52987E+04 -3.83917E+03
  1.26222E+04  6.05701E+02  1.47795E+04  2.61774E+03  1.63546E+02  1.04773E+04 -4.90646E+03  9.83793E+03
 -6.46025E+03  1.66383E+03 -4.68013E+03 -4.18589E+03  4.83868E+02 -2.51225E+03  4.54637E+03 -4.14088E+03
  2.86739E+03  6.20385E+03  7.61724E+02  1.28899E+04 -4.40358E+03  1.01875E+04 -7.06785E+03  6.80619E+03
 -2.95157E+03 -6.20421E+03 -3.38133E+03 -1.17021E+04  6.52380E+03 -7.47524E+03 -1.87187E+03  2.10616E+03
  6.08074E+02  2.52061E+03 -2.93558E+03  7.09960E+03 -2.98983E+03  8.13230E+02 -4.90730E+03 -1.17964E+02
 -6.61450E+03 -1.10114E+04  3.67609E+03 -1.11478E+04  1.21871E+04 -6.65714E+03  5.66627E+03 -4.40768E+03
  3.76899E+03  9.33682E+03 -1.20470E+03  8.80433E+03 -1.60962E+03  5.32887E+03 -7.91538E+02  4.44907E+02
 -7.73454E+03 -2.17859E+03 -2.92440E+02 -7.76649E+03  4.37607E+03 -3.51040E+03  2.46775E+03 -1.12769E+03
 -3.71755E+03  6.81696E+02  2.70637E+03  2.44675E+03  3.78989E+03  4.98279E+01  2.49813E+03 -4.97978E+03
  1.03807E+03 -3.76001E+03  6.89667E+03  1.98505E+03  8.16497E+03  5.56340E+03  5.03416E+03  9.91221E+03
 -1.22658E+03  1.24120E+04 -9.50452E+03  6.52225E+03 -1.71654E+04 -4.15468E+02 -1.19377E+04 -1.80716E+03
 -4.19301E+03 -1.03843E+04 -8.75021E+02 -1.13985E+04  3.57098E+03 -8.14290E+03  2.32500E+03  1.92617E+02
 -1.11642E+03 -2.89871E+01  4.74841E+03  1.72814E+03  4.31195E+03 -5.36045E+02  6.19183E+03 -4.25419E+03
  5.25490E+03  3.30791E+03  3.23098E+03  5.80145E+03  7.42778E+01  3.73408E+03 -2.64536E+03  3.74493E+03
 -5.06888E+03  1.47341E+03 -2.18414E+03 -5.05676E+03 -2.36083E+03 -8.19963E+03  1.74337E+03 -9.96950E+03
  1.20037E+04 -3.04487E+03  8.68047E+03 -2.20556E+02  5.49775E+03  4.20870E+03  3.35581E+03  1.03371E+04
 -5.75392E+03  4.23758E+03 -2.77034E+03  3.03636E+03 -2.35291E+03 -1.39123E+03  3.31747E+03 -1.26516E+03
 -1.21437E+03  1.34430E+03 -1.00258E+03  9.16612E+02 -2.54788E+02  3.53775E+03 -3.98171E+03 -1.19381E+03
 -6.00043E+03 -5.18896E+03 -2.65938E+03 -8.54112E+03  1.12952E+03 -7.37227E+03  7.52439E+03  2.17777E+03
  5.42668E+03  1.19520E+03  5.86027E+03  8.04376E+03 -1.10416E+03  5.27637E+03 -2.79337E+03  9.09135E+03
 -7.52336E+03 -1.74479E+03 -3.15230E+03 -5.39549E+03 -8.17620E+00 -8.81032E+02  6.89372E+02 -2.15828E+03
  6.19537E+03 -3.86602E+03 -2.59721E+03 -3.58624E+02  1.69470E+03  1.16332E+03  4.65861E+03  3.30705E+03
  2.91848E+02 -3.90886E+03  3.35043E+03  3.38542E+03  1.11941E+03  6.23531E+03  5.07216E+03 -3.58321E+02
  2.77460E+02  2.46664E+03 -1.38501E+03  1.16175E+03 -4.77903E+03  3.38432E+03 -9.14414E+03 -1.28976E+03
  4.69912E+03 -4.47748E+03  4.20204E+02 -8.64094E+03  5.72580E+03 -5.92834E+03  3.72151E+03  6.54725E+03
  1.53630E+03 -3.69209E+02 -6.26215E+02  6.76357E+03 -6.39830E+03 -1.01877E+03 -1.63599E+03  3.21582E+03
 -1.70411E+03 -5.22488E+03 -3.10540E+03  2.78141E+03  2.84594E+03 -2.31573E+03 -1.21596E+03 -2.59383E+03
  2.80500E+03 -3.51164E+02  7.35689E+02 -1.42630E+03 -8.11196E+02 -1.97598E+03 -1.38086E+03  4.33037E+03
 -3.01780E+03  2.99617E+03  5.41690E+03  2.72308E+03  2.02547E+03  4.43919E+03 -1.61603E+03  2.27471E+03
 -1.29175E+03 -8.56392E+01 -6.63436E+03 -2.44324E+03 -4.59458E+03  9.50434E+02 -1.45893E+03 -4.47376E+03
 -2.82548E+03 -3.28731E+03  4.39401E+03  1.21663E+03  2.77360E+03  4.32715E+03 -1.71620E+03  3.85951E+03
  3.82858E+01  1.13385E+03 -5.53184E+03 -4.48323E+03  5.59849E+02 -7.99956E+03 -4.36894E+02 -3.57071E+03
  2.36803E+03 -1.37470E+03  9.69710E+02  2.77957E+03  2.15255E+03  1.54050E+02  2.35422E+02  3.82541E+03
 -3.39166E+03 -1.36651E+03 -2.60735E+03 -3.13275E+03  2.53002E+03 -4.68481E+02  2.84830E+03  3.06293E+02
  6.04260E+03 -3.04127E+03  5.57722E+03  2.96125E+03  2.89881E+03  2.53771E+03 -1.43475E+03  2.41425E+03
  6.64106E+02 -1.67489E+03 -2.68976E+03  9.89856E+02 -5.64121E+02  1.60902E+03  1.21569E+03 -4.58007E+03
  1.50662E+03  4.38010E+02  1.11832E+03 -1.11371E+02  2.65865E+02  5.07002E+03  2.01741E+03 -6.02610E+02
 -2.75333E+03  9.89632E+02 -8.78000E+02  2.45005E+02 -9.18802E+02 -4.06320E+03  5.88444E+02  8.75734E+02
 -7.29789E+02  1.02216E+03 -4.15752E+03  4.13539E+03  2.52867E+03 -4.03365E+03 -3.39831E+03 -8.04550E+02
 -4.42130E+03 -7.24558E+03  3.72457E+03 -1.52173E+03  1.72893E+03 -1.85267E+03 -3.43336E+02 -1.45017E+03
  9.73334E+01 -2.71029E+03 -1.51296E+02  1.78440E+03 -4.39624E+03  2.75057E+02 -3.05237E+03  4.74690E+03
 -1.06310E+03 -2.83324E+03 -4.85596E+03 -1.94426E+03 -2.29563E+03 -6.53938E+03 -2.33368E+02 -1.42196E+03
 -1.56163E+02  2.03065E+02 -2.45159E+03  9.64422E+02 -1.81751E+03 -1.39755E+03  4.04918E+03  1.12761E+03
  1.84753E+03 -4.98590E+03  2.63367E+03  1.14474E+03  4.02460E+03  3.75661E+03 -9.46565E+02  3.84042E+02
 -4.47227E+03  7.39749E+03  5.94164E+02 -4.75270E+02 -4.92158E+03 -6.74177E+02 -1.45678E+03 -2.30358E+03
 -6.97553E+03 -5.79300E+03  1.59768E+02 -9.63291E+02 -1.76423E+03 -4.26745E+03  4.60406E+03 -7.57451E+02
  3.69669E+03  3.37522E+03 -1.58384E+03 -4.78989E+03  2.97027E+03  3.31307E+03  3.41381E+03  7.96036E+02
  1.90131E+03 -3.89682E+02  1.95927E+03  1.39082E+03 -3.01133E+03 -7.94266E+02 -1.02091E+03 -2.53614E+03
  2.23105E+03  1.97788E+03  3.00814E+02  4.95649E+03  1.49327E+03  1.20895E+03  5.78058E+02  3.03591E+03
 -5.22648E+02  3.79908E+03 -9.08773E+02  1.72523E+02 -3.52898E+03 -2.25861E+03  6.34093E+02  5.65787E+01
 -3.82840E+02 -9.93953E+01 -1.05262E+03  1.37576E+03  7.88254E+02  1.94395E+03 -1.05724E+03 -1.29890E+03
  4.11180E+02 -1.34005E+03 -1.17969E+03  3.66977E+03  1.23127E+03 -3.72107E+03 -8.90322E+02 -3.92246E+02
 -6.58577E+03 -5.08637E+02 -1.86177E+03 -8.09047E+03 -9.77413E+02 -2.49934E+03  2.58703E+03  2.40899E+03
  5.71207E+02 -1.79957E+03 -9.33267E+02 -2.63594E+03  4.75456E+02  2.61192E+03 -5.16084E+03  7.58860E+03
