 $NMID ID='MM_0lb_SNR50_17hz_g55_17.RAW', FMTDAT='(8E13.5)'
 TRAMP=1., VOLUME=1. $END
  3.07815E+05 -2.77366E+03  3.40166E+05  2.48295E+05  8.79936E+04  3.34517E+05 -1.28760E+05  2.52040E+05
 -1.95624E+05  8.06389E+04 -1.11137E+05 -3.38730E+04  1.48813E+03 -4.85484E+04  5.65523E+04 -1.45062E+03
  3.84086E+04  4.99033E+04 -1.33924E+04  7.60319E+04 -6.06303E+04  6.38149E+04 -8.46639E+04  3.10842E+04
 -7.98359E+04 -1.12712E+04 -5.85872E+04 -5.25622E+04 -1.45881E+04 -6.70563E+04  2.44280E+04 -4.55387E+04
  4.10814E+04  7.12243E+03  1.35841E+04  4.74039E+04 -3.47173E+04  4.89317E+04 -6.67374E+04 -1.44824E+03
 -5.44657E+04 -5.73804E+04 -5.71290E+03 -8.01024E+04  3.53804E+04 -5.15610E+04  4.80818E+04 -1.69817E+04
  4.29018E+04  6.88985E+03  3.04093E+04  1.86637E+04  1.25958E+04  3.25370E+04 -4.49587E+03  2.56245E+04
 -2.49174E+04  1.24894E+04 -2.18099E+04 -4.69007E+03  4.00564E+03 -7.86658E+03  2.32209E+04  1.36992E+04
  2.98826E+03  3.52512E+04 -3.66609E+04  3.62125E+04 -6.28866E+04  3.84682E+03 -5.67768E+04 -4.27871E+04
 -7.55627E+03 -6.05571E+04  3.52716E+04 -4.61108E+04  5.84290E+04  6.17207E+02  2.93178E+04  3.15177E+04
 -5.16479E+03  3.24542E+04 -3.21452E+04  1.40930E+04 -2.81500E+04 -2.47739E+03 -1.62581E+04 -9.12435E+03
 -4.85982E+03 -1.15694E+04  1.17499E+03 -1.50197E+04  5.26928E+03 -2.40652E+04  1.49096E+04 -1.43530E+04
  6.77462E+03  8.27007E+03 -1.17585E+04  9.80984E+03 -1.79237E+04 -4.67337E+02 -9.95643E+03 -2.83438E+04
  2.23399E+04 -3.89883E+04  4.31620E+04 -1.93754E+04  4.21514E+04  2.19660E+04  1.17870E+04  4.09227E+04
 -1.37259E+04  3.52495E+04 -2.85669E+04  3.28410E+03 -1.25038E+04 -2.73682E+04  2.31719E+04 -3.03932E+04
  4.08722E+04 -5.83131E+03  3.34564E+04  2.36193E+04  1.74029E+04  4.52495E+04 -6.34262E+03  4.84143E+04
 -2.71815E+04  3.21287E+04 -4.03239E+04  8.09034E+03 -3.53085E+04 -1.76781E+04 -2.74737E+04 -3.41089E+04
  2.26268E+03 -3.37841E+04  2.72127E+04 -1.17349E+04  3.01664E+04  9.95246E+03  5.39808E+03  2.03647E+04
 -1.02506E+04  7.52608E+03 -1.10234E+04 -8.20563E+03  4.33748E+03 -9.92909E+03  2.09903E+04  6.46428E+03
  1.31017E+04  2.34041E+04 -5.53239E+03  2.51102E+04 -2.24388E+04  1.00705E+04 -2.72484E+04 -8.49224E+03
 -1.75351E+04 -1.97842E+04 -5.21829E+03 -1.83791E+04  9.73397E+03 -1.59589E+04  1.91073E+04 -1.44550E+04
  2.34925E+04 -1.19509E+04  3.10151E+04  7.65088E+03  2.65258E+04  2.02913E+04  3.80800E+03  3.61382E+04
 -1.66096E+04  3.01956E+04 -2.75492E+04  1.05239E+04 -1.96762E+04 -1.25603E+04 -2.43099E+03 -1.51094E+04
  2.26573E+03 -6.38018E+02 -3.23840E+03  7.05445E+03 -1.14660E+04  4.79212E+03 -1.45784E+04 -4.19572E+03
 -1.00566E+04 -1.48006E+04  5.79769E+03 -1.92306E+04  1.76097E+04 -1.50537E+04  1.21624E+04 -2.33533E+03
  1.27613E+04  1.35880E+04  4.93929E+02  1.71696E+04 -1.33712E+04  8.25766E+03 -1.90310E+04 -3.92773E+03
 -1.48229E+04 -1.47722E+04 -3.97881E+03 -2.30584E+04  8.01618E+03 -1.96377E+04  1.83358E+04 -1.09907E+04
  1.74090E+04  1.07646E+03  1.39336E+04  3.91268E+03  5.92143E+03  8.14023E+01  1.00396E+04 -2.55383E+03
  1.69053E+04  3.67208E+03  1.58840E+04  1.57853E+04  1.19527E+04  3.01053E+04 -6.74705E+03  3.05111E+04
 -2.06843E+04  2.30599E+04 -2.81964E+04  1.31788E+04 -3.18206E+04 -5.03215E+02 -1.96533E+04 -1.80115E+04
 -1.01789E+04 -2.65203E+04  9.99942E+03 -2.26709E+04  1.76265E+04 -1.20536E+04  1.77163E+04  3.94660E+03
  1.40713E+04  1.37985E+04 -1.15853E+04  8.30868E+03 -1.78115E+04  1.06665E+03 -1.29806E+04 -1.09736E+04
 -1.52727E+03 -8.83084E+03  9.80673E+03 -6.61125E+03  7.51604E+03 -2.48269E+03  4.90496E+03  8.32888E+03
 -4.14240E+03 -2.74466E+03  1.67165E+02 -5.87097E+03 -1.22072E+03 -1.01584E+04  1.32263E+04 -1.32901E+04
  1.47424E+04 -6.75733E+03  1.50455E+04  6.08159E+03  1.30692E+04  1.30449E+04  2.72789E+03  1.84474E+04
  8.27033E+02  1.81704E+04 -1.41005E+04  1.07424E+04 -1.57581E+04  7.63742E+03 -1.16784E+04 -2.60781E+03
 -4.73270E+03 -7.06238E+03 -4.27316E+03  2.83335E+02 -3.92560E+02  9.55680E+02 -8.58150E+03  1.35884E+03
 -1.20440E+04 -1.83215E+03 -1.02403E+04 -8.48344E+03 -1.53766E+03 -1.13958E+04  2.63273E+03 -6.97625E+03
  5.42043E+03 -1.78360E+03  4.55552E+03  2.89830E+02 -8.04803E+02  2.21776E+03 -4.09264E+03  4.70666E+01
 -3.65361E+03 -2.37082E+03 -4.19518E+03 -6.69553E+03  5.89524E+03 -1.36713E+04  9.16158E+03 -3.10966E+03
  7.58037E+03  3.65751E+03  8.52797E+03  6.48475E+03 -3.57167E+03  6.65453E+03 -8.51160E+03  1.26848E+04
 -7.87604E+03  5.41399E+03 -5.05506E+03 -9.01199E+02  4.79446E+00 -3.76382E+03  1.77942E+03  3.88954E+02
  2.98996E+03  7.21626E+03 -1.01808E+03  5.83293E+03 -6.99093E+03  6.21775E+03 -8.25392E+03  2.79163E+03
 -8.91782E+03 -9.37837E+03  6.29418E+02 -7.16107E+03  5.32415E+03 -5.85146E+02  2.01940E+03 -3.21682E+03
  4.15172E+03  1.68777E+03 -3.92289E+03  8.44131E+03 -5.62839E+03  2.62386E+03 -3.68419E+03 -1.86351E+03
 -1.75250E+03 -7.94661E+03  4.63952E+02 -9.83600E+03  8.78892E+03 -5.97384E+03  7.83463E+03  4.35363E+03
  3.44547E+03  8.16337E+03 -2.74902E+03  7.67018E+03 -7.41475E+03  2.86794E+03 -5.31508E+03 -5.33261E+02
 -6.15845E+03 -6.40368E+03 -4.90047E+03 -2.67421E+03  3.84106E+03  3.42815E+01  2.60427E+03 -1.00311E+04
  7.20604E-01  1.73815E+02  2.56987E+02  1.27012E+03 -7.67922E+02 -1.72227E+03 -1.12632E+03 -4.85556E+03
  5.63678E+03 -3.30653E+03  7.36542E+03  4.29727E+03  1.06749E+04  2.18324E+03  5.90228E+03  1.19146E+04
 -3.82180E+03  1.27515E+04 -6.47700E+03  8.37429E+03 -1.35376E+04  3.02937E+02 -1.02827E+04 -2.85098E+02
 -4.07355E+03 -9.54314E+03 -2.94220E+03 -5.96386E+03  5.09857E+03 -7.42302E+03  1.29954E+03 -3.16556E+03
  3.47700E+03 -5.22394E+03  1.23256E+03  3.92998E+03  5.52267E+03 -1.83852E+03  4.12667E+03  6.33345E+02
  6.54104E+03 -2.28765E+03 -1.42485E+03  2.36935E+03 -8.31551E+02  6.08812E+03 -3.47380E+03  3.62342E+03
 -5.51531E+03 -1.29337E+03 -5.38809E+03  3.96163E+02 -6.48725E+02 -5.64273E+03  1.26628E+03 -6.11702E+03
  6.37718E+03 -4.58063E+03  1.47574E+04  1.27863E+03  8.84011E+03  5.05651E+03  3.78498E+03  6.48243E+02
 -8.88128E+01  9.08170E+03 -5.79210E+03  9.84246E+02 -6.33729E+03 -1.40227E+03 -7.84736E+02 -2.75061E+02
 -3.02883E+03  8.80070E+02 -8.00041E+02  3.41578E+03 -4.30238E+03  7.04757E+02 -6.89536E+03 -2.44373E+03
 -2.67361E+03 -1.23107E+02  2.48309E+03 -7.84706E+02  7.20677E+03 -6.16198E+03  4.03346E+03 -1.61936E+03
  5.65300E+03  2.61341E+03  2.08570E+03  1.03477E+04  1.03613E+03  8.20740E+03 -1.35892E+02  3.51613E+03
 -5.31754E+03  1.98301E+03 -6.96570E+03  2.55071E+03 -2.45500E+03 -5.60532E+03  2.26449E+03 -5.43747E+03
  2.75221E+03 -2.00412E+03  6.05768E+03 -3.08129E+03  2.24413E+03  5.76726E+03  1.19706E+03  3.78374E+03
  3.14962E+02 -1.68922E+03  2.83298E+03 -3.00878E+03 -2.79408E+03  3.58607E+03 -2.15127E+03  1.39150E+03
 -3.06436E+03  4.12165E+01 -4.72035E+03  4.44561E+03 -6.75933E+03 -4.14454E+02 -5.18009E+03  1.10289E+03
 -1.41398E+03 -6.59500E+03  6.77596E+02 -1.15721E+04  2.96312E+03 -6.61780E+03  4.95198E+03 -1.49121E+03
  2.82393E+03  4.18366E+03 -3.31877E+02  2.35988E+03  9.77360E+02  1.43778E+03  1.19868E+03 -1.20133E+03
  1.36707E+03  2.28608E+03 -2.05104E+03 -2.68644E+03 -1.88542E+03 -4.81759E+02  1.21599E+03  1.03899E+03
  1.70158E+03  4.27263E+03  3.40843E+03 -1.67616E+03 -9.26609E+02  5.47540E+02  1.91529E+03 -1.57218E+03
  1.12729E+03 -4.76329E+03  5.58560E+03 -4.10108E+03  1.10143E+03 -1.19889E+03 -6.23324E+03  5.30830E+03
  5.41569E+02  2.16007E+03 -1.01066E+02  2.93105E+03  1.57305E+03  8.43885E+02  9.28990E+02 -9.11190E+02
 -1.61224E+03 -1.39902E+03 -1.03039E+03  1.04480E+03  1.01350E+03  5.19378E+03 -7.54953E+02 -2.42752E+02
  3.42852E+03  1.46417E+03 -7.98620E+02  1.30546E+03 -3.99536E+03 -4.83541E+03 -1.84246E+03 -2.44524E+03
  7.98298E+02  2.75720E+03 -5.38770E+02  8.46809E+02 -3.83002E+02 -1.78580E+03  3.71606E+03  3.13995E+02
  3.92156E+02 -1.47364E+03 -9.73452E+02 -1.73863E+03 -4.13968E+02  2.44012E+03  5.61899E+03 -4.33435E+02
 -1.08215E+02  1.07107E+03  2.03761E+03  3.20407E+03 -9.75695E+02  2.32031E+03 -3.68042E+02  1.48508E+03
 -3.72675E+03  8.97623E+02 -3.07799E+03  3.20581E+03 -1.07955E+03  1.09366E+03 -9.64536E+01  2.57797E+03
  1.46382E+03 -2.04026E+03  4.77529E+03 -3.48428E+02 -2.34504E+03 -7.17455E+02 -4.94577E+03  3.48658E+03
 -1.71120E+03  1.11476E+03 -3.12855E+03  1.64647E+03 -2.65623E+03 -1.17511E+03 -1.52962E+03  1.63936E+03
 -2.27273E+03 -1.01401E+03 -5.32523E+03  7.82312E+02 -4.21714E+02 -5.40815E+02 -8.06819E+01 -2.08681E+03
 -1.75399E+03 -2.59770E+03 -5.00565E+02 -5.12891E+03 -2.31167E+03 -2.84277E+03  6.29647E+03 -8.50783E+02
  1.38768E+03 -1.46062E+03  1.80197E+03  1.04139E+03 -4.06449E+03  1.26558E+03 -2.01661E+03  1.29424E+02
 -2.74771E+03  7.11231E+02  8.06109E+02 -1.28139E+03 -6.65425E+02  2.42495E+03  3.35889E+02  4.34304E+03
 -2.63784E+03 -3.27166E+03  1.14340E+03 -4.44588E+02  2.62018E+03 -2.69129E+03 -1.80658E+03 -2.05921E+01
  1.40847E+03 -5.78042E+03  1.87024E+03  1.33912E+03  3.37324E+03  3.92534E+02 -1.18171E+03  2.72254E+03
 -1.60336E+03  6.71350E+03  8.83578E+02 -1.59100E+03 -5.32590E+03 -2.88201E+03  2.13966E+03 -1.69028E+02
  2.13921E+03 -2.72907E+02 -1.59588E+03 -2.07920E+03 -1.53278E+02  3.50399E+02  1.50246E+03  3.45826E+03
 -2.34818E+03 -2.77404E+02  2.98240E+03  2.79345E+01  3.38387E+01  4.63200E+03 -5.22385E+02 -6.85507E+01
 -9.73111E+02  2.37869E+03 -4.71239E+02  1.01618E+03  1.60609E+03 -2.01759E+03  2.34802E+03 -8.28275E+02
 -2.82679E+03 -3.17036E+03 -1.10637E+03  1.64055E+03 -7.41031E+03  2.37121E+03 -2.88902E+03  2.65685E+03
  1.89785E+02 -3.10935E+03  5.95737E+03  4.35615E+03  2.90448E+02 -5.12118E+03  2.65171E+03  2.08890E+03
  3.82043E+03 -2.95677E+03 -3.56316E+03  5.44109E+00 -3.39921E+03  1.83192E+02  2.15624E+03  3.90048E+03
  3.71338E+01  5.96254E+02 -1.66253E+03  1.16457E+03 -1.95026E+03  1.57574E+03 -1.68809E+03 -6.49825E+03
 -1.85720E+03 -1.73145E+03 -4.54214E+03  1.62661E+03 -1.95756E+03 -3.53357E+03  5.36812E+03  3.14089E+03
  1.63412E+03  1.64117E+03  7.75066E+02 -1.26840E+03 -3.52982E+03 -3.03443E+03 -1.08834E+03  6.28437E+02
