 $NMID ID='MM_0lb_SNR50_13hz_g60_94.RAW', FMTDAT='(8E13.5)'
 TRAMP=1., VOLUME=1. $END
  3.06414E+05 -1.51602E+03  3.38017E+05  2.52888E+05  8.36841E+04  3.38836E+05 -1.31605E+05  2.49282E+05
 -1.94744E+05  8.37646E+04 -1.12955E+05 -2.98102E+04 -3.70789E+03 -5.30362E+04  5.28802E+04 -4.72864E+03
  2.95927E+04  5.43163E+04 -1.17930E+04  7.77683E+04 -6.70082E+04  5.97177E+04 -9.02549E+04  3.17791E+04
 -8.12018E+04 -1.17229E+04 -5.92779E+04 -5.28612E+04 -1.42935E+04 -6.90026E+04  2.39919E+04 -4.80398E+04
  4.26646E+04 -1.43877E+03  2.17821E+04  4.72572E+04 -3.72533E+04  4.32302E+04 -6.47097E+04 -4.30706E+03
 -5.23718E+04 -5.84545E+04 -2.72070E+03 -8.10455E+04  3.64159E+04 -5.29915E+04  4.91296E+04 -1.76986E+04
  4.49310E+04  9.98901E+03  2.82187E+04  2.88469E+04  1.48619E+04  3.11243E+04 -4.07508E+03  2.92563E+04
 -2.49093E+04  6.83180E+03 -1.60280E+04 -7.76669E+03  5.72349E+03 -1.12642E+04  2.03691E+04  1.41266E+04
  1.19905E+04  3.86600E+04 -4.05758E+04  3.59972E+04 -6.23099E+04  3.08857E+03 -5.43975E+04 -4.43057E+04
 -1.00655E+04 -6.82633E+04  4.03320E+04 -4.52114E+04  5.92058E+04 -5.71997E+03  3.58474E+04  3.10524E+04
 -3.39896E+03  4.02985E+04 -3.11416E+04  1.42550E+04 -3.07919E+04 -4.97586E+03 -1.77900E+04 -1.23246E+04
 -6.45582E+03 -2.06436E+04 -2.57956E+03 -1.60461E+04  7.10844E+03 -2.71353E+04  1.70031E+04 -1.54655E+04
  8.57048E+03  7.58355E+03 -4.66540E+03  1.74244E+04 -2.44742E+04 -3.81220E+03 -8.59971E+03 -3.41382E+04
  2.52382E+04 -4.09037E+04  4.46807E+04 -2.35739E+04  4.85682E+04  2.28491E+04  1.92559E+04  4.55169E+04
 -1.17352E+04  3.64906E+04 -2.07140E+04 -1.74239E+03 -7.96221E+03 -2.38515E+04  1.67458E+04 -3.53823E+04
  3.85060E+04 -5.88144E+03  3.41237E+04  2.35479E+04  2.32180E+04  4.95977E+04 -7.15226E+03  5.38972E+04
 -3.77634E+04  3.88040E+04 -4.85278E+04  5.11222E+03 -4.27631E+04 -1.84698E+04 -2.28210E+04 -4.09487E+04
  5.44268E+03 -3.93968E+04  3.75967E+04 -1.25625E+04  3.19303E+04  1.57867E+04  2.20927E+03  2.23735E+04
 -1.69610E+04  1.32315E+04 -1.07493E+04 -3.41803E+03  6.95223E+03 -9.71297E+03  1.81586E+04  9.02859E+03
  1.26997E+04  1.95672E+04 -5.63782E+03  2.15796E+04 -2.10440E+04  1.62529E+04 -2.75698E+04 -1.26323E+03
 -2.36951E+04 -1.61407E+04 -1.05458E+04 -2.25029E+04  3.15067E+03 -2.19949E+04  1.75258E+04 -1.80249E+04
  2.74608E+04 -1.30145E+04  4.03688E+04  2.95211E+03  2.47500E+04  2.51826E+04  9.36291E+03  4.12423E+04
 -1.69456E+04  3.56983E+04 -2.51240E+04  9.62247E+03 -1.56026E+04 -6.54323E+03  6.92062E+02 -1.24571E+04
 -4.74826E+03  1.01291E+03 -1.00160E+04  7.15012E+03 -1.92752E+04  6.75696E+03 -1.54818E+04 -4.53369E+03
 -9.54418E+03 -1.77303E+04  6.12756E+03 -2.84026E+04  2.03330E+04 -2.19074E+04  1.64135E+04 -3.15979E+03
  1.60356E+04  1.13850E+04 -3.92374E+03  2.79580E+04 -1.38625E+04  1.59168E+04 -1.91965E+04 -8.74848E+02
 -1.69479E+04 -1.84629E+04  1.47761E+03 -2.84191E+04  9.59087E+03 -2.54261E+04  2.08562E+04 -1.48042E+04
  2.02431E+04  3.17913E+03  1.45404E+04  3.30665E+03  8.89137E+03  1.42679E+03  1.33247E+04 -2.86215E+03
  1.82087E+04  3.68928E+03  1.98034E+04  1.53021E+04  9.03491E+03  3.43608E+04 -6.14891E+03  3.64204E+04
 -2.68236E+04  3.20864E+04 -3.72562E+04  1.47070E+04 -4.28766E+04 -1.51680E+03 -2.76400E+04 -2.48009E+04
 -1.23457E+04 -2.48240E+04  1.18874E+04 -2.81762E+04  1.89112E+04 -1.42110E+04  1.65765E+04  6.80685E+03
  7.95033E+03  1.45202E+04 -5.12406E+03  1.17045E+04 -1.36306E+04  4.49500E+03 -1.53254E+04 -4.91366E+03
  2.02298E+03 -1.46247E+04  4.20250E+03 -1.60054E+04  1.81445E+04 -3.22154E+03  1.70842E+03  4.30602E+03
 -3.29671E+03  3.65640E+03 -9.35437E+03 -9.44214E+03 -6.06000E+03 -1.74366E+04  1.18118E+04 -1.73572E+04
  2.42374E+04 -9.08858E+03  1.98763E+04  1.33996E+03  2.35591E+04  1.43117E+04  5.69933E+03  2.43763E+04
 -4.81857E+03  2.94103E+04 -1.79722E+04  1.80106E+04 -2.03274E+04 -3.28977E+02 -1.44883E+04 -3.88029E+03
 -4.31779E+03 -9.23967E+03  5.48104E+02  7.04023E+02 -2.03275E+03  4.80652E+03 -6.83672E+03  1.23648E+03
 -1.58701E+04  9.75773E+02 -1.74072E+04 -1.14263E+04 -8.19505E+03 -1.42564E+04  7.48355E+03 -1.13514E+04
  1.24172E+04 -7.66001E+03  3.49776E+03  4.30124E+03 -1.75231E+03  7.09323E+03 -1.10530E+04 -2.01282E+03
 -6.69371E+03 -3.93097E+03  1.06083E+03 -9.66587E+03  7.57540E+03 -1.30275E+04  1.34584E+04 -2.49983E+03
  2.10903E+04 -2.29253E+02  1.79436E+04  1.72053E+04  4.42805E+02  1.56747E+04 -9.71519E+03  1.74929E+04
 -8.25072E+03  5.74426E+03 -1.24601E+04 -3.93374E+03 -2.51533E+03 -6.84552E+03  6.01166E+03 -8.18419E+02
  3.94597E+02  1.54365E+03  2.95468E+03  7.36610E+03 -9.88595E+03  1.00784E+04 -1.01569E+04  8.86344E+03
 -7.55518E+03 -6.12586E+03  1.15822E+03 -8.24266E+03  6.95196E+03 -6.15640E+03  9.05267E+03 -4.12113E+02
 -3.98252E+03  1.27358E+04 -4.91237E+03  9.39458E+03 -1.32761E+04  4.11344E+03 -7.94516E+03 -1.47902E+03
 -9.92418E+03 -1.38099E+04  1.60129E+03 -1.53852E+04  1.23544E+04 -1.04651E+04  1.70885E+04 -4.17957E+03
  4.82500E+03  5.90220E+03 -4.09743E+03  1.34140E+04 -1.22335E+04  9.31181E+03 -7.43835E+03 -2.92771E+03
 -1.01338E+04 -2.08893E+03 -3.10653E+03 -1.30744E+04  1.61564E+03 -5.84099E+03  4.77459E+03 -5.81238E+03
  4.44089E+03  3.11888E+03  1.41605E+03  1.81309E+03 -1.36682E+03 -2.71518E+03  2.74300E+03  1.28031E+03
  2.73705E+03 -3.08955E+03  1.45604E+04 -3.34559E+03  7.30587E+03  7.16783E+03  3.42673E+03  1.65985E+04
 -1.61257E+03  1.95563E+04 -1.27814E+04  1.61988E+04 -2.04713E+04  1.40251E+03 -1.37892E+04 -3.79996E+03
 -6.15553E+03 -1.60714E+04  1.22420E+03 -7.13392E+03  4.43633E+03 -6.25493E+03  4.44261E+03 -3.25870E+03
 -6.37227E+02 -3.21071E+02  3.48467E+03 -3.53612E+03  2.41485E+03 -2.61942E+03  7.38929E+03 -1.95250E+03
  1.25972E+04 -1.35437E+03  2.40885E+02  1.19533E+04 -4.09653E+03  1.13631E+04 -4.85538E+03  7.10082E+03
 -1.14211E+04 -4.00513E+03 -1.07736E+04 -7.54836E+03  1.94565E+03 -1.24174E+04  6.98643E+03 -1.11597E+04
  1.48455E+04 -6.19047E+03  1.56569E+04  1.72952E+03  7.86995E+03  8.76437E+03  2.32884E+03  1.27781E+04
 -5.30648E+03  7.47930E+03 -6.42378E+03  1.28548E+03 -7.51352E+03 -3.05177E+03  2.80337E+03  7.30081E+01
  2.01247E+03  3.46857E+03 -3.37194E+03  4.75061E+02 -8.60619E+02 -9.93626E+02 -9.02892E+03  1.11447E+03
 -4.81842E+03 -6.38343E+03  2.06981E+03 -8.92772E+03  1.00538E+04 -1.35673E+04  8.23796E+03 -2.11072E+03
  1.31094E+04  9.46104E+03  3.11915E+03  6.64624E+03 -1.88762E+03  7.60230E+03 -7.14784E+03  1.07438E+04
 -1.42223E+04  2.49914E+03 -9.66876E+03 -6.79747E+03  3.92522E+02 -8.69354E+03  5.82178E+03 -3.12278E+03
  6.08474E+03 -1.56547E+03  4.11322E+03  4.76734E+03  1.60741E+03  2.18805E+03  5.52871E+02  6.15325E+03
  2.78020E+03  6.18938E+03  4.70719E+03  4.68982E+03  7.87042E+01  2.59568E+03  4.31810E+02  8.50779E+03
  1.19561E+03  3.13644E+03 -7.90784E+03  7.89224E+03 -1.07328E+04 -6.44752E+02 -1.15605E+04 -5.72086E+03
 -8.75041E+03 -1.14538E+04  3.93128E+03 -1.29944E+04  9.52802E+03 -4.65444E+03  7.75212E+03 -1.57559E+03
  7.38785E+03 -2.57242E+03 -1.06727E+02  3.92556E+03  1.89951E+03  2.85830E+03 -4.89511E+03 -5.82819E+02
 -1.30795E+03 -1.76565E+03  6.03320E+03 -1.13264E+04  2.17102E+03 -4.66651E+03  3.36489E+03  6.03856E+03
 -1.00020E+02  1.21267E+03  6.25457E+03  7.42076E+02  6.58373E+03 -3.29610E+03  2.07115E+03  2.96038E+03
  2.17622E+03 -2.21829E+03  7.86887E+03  2.36300E+03  8.23193E+03  4.85733E+03 -2.22222E+03  2.67045E+03
 -1.86687E+03  5.23159E+03 -6.63984E+03 -1.80306E+03 -6.73986E+03 -6.03438E+03 -2.25364E+03 -2.11050E+03
  1.36469E+03 -4.59090E+03  3.95058E+03 -1.83660E+03  1.36228E+03  4.53001E+03 -3.47839E+02  3.22774E+03
 -2.36802E+03  1.48573E+03 -3.62129E+03 -2.77585E+03 -3.34922E+03 -5.34098E+03  6.38055E+03 -1.11136E+04
  2.39427E+03 -8.61862E+03  2.32622E+03  1.54831E+03  4.24874E+03  1.22298E+03  3.54712E+03  3.62422E+03
  1.02918E+03 -4.16868E+03 -6.65072E+02 -5.05196E+03 -1.79584E+03 -1.83836E+03  2.00802E+03 -2.59896E+03
  5.70315E+03 -2.37008E+03  3.65077E+03 -1.98229E+03 -1.66906E+03  2.98472E+03 -4.69698E+03  9.97113E+03
 -7.28597E+02  3.26606E+02 -7.97334E+03 -5.81576E+01 -3.86766E+03 -2.16143E+03 -4.55035E+03  1.60557E+03
  5.15057E+03  1.32134E+03  8.72996E+02  1.64210E+03 -4.07930E+02  5.52200E+03  8.63792E+01  1.79159E+03
 -2.44375E+03  1.03434E+03 -4.70431E+03  4.71333E+03  5.75107E+02 -1.85947E+03 -4.22461E+03  6.06571E+03
  1.43934E+01 -4.10648E+02 -1.73916E+03 -2.79176E+03 -2.64859E+03  2.70802E+03 -7.07843E+03 -5.54016E+03
 -3.09442E+03 -6.07776E+03  2.53138E+03 -1.23096E+04  9.24874E+03 -9.00851E+03  5.70456E+03 -4.02200E+03
  5.49606E+03  4.50399E+03  5.46684E+03  7.36616E+03  1.69240E+03  9.49698E+03  3.90296E+02  4.46805E+02
 -4.42002E+03 -4.27671E+03 -4.27997E+03 -1.42365E+03  2.48574E+03  5.07286E+03 -1.07481E+03  1.97384E+03
 -3.18201E+03  2.12500E+02 -6.29527E+03 -1.22399E+03 -4.30479E+02 -4.13073E+03  6.77218E+02 -2.26494E+03
  4.87103E+03 -1.32062E+03  7.69670E+03 -2.98324E+03  5.29465E+03  3.14657E+03 -3.45280E+02  6.70527E+03
 -6.21267E+03  1.16129E+04 -7.97877E+03  6.09776E+03 -8.84672E+03 -1.87166E+03 -6.43632E+03 -1.97972E+03
 -8.70952E+02 -4.31299E+03  5.21843E+03 -3.38588E+03  4.35822E+02 -4.05519E+03  3.62617E+03 -3.08099E+02
  8.64025E+03 -1.45239E+03  1.10245E+03  2.01844E+03  6.95457E+02  1.58898E+03  5.11065E+02 -4.61924E+03
 -3.15716E+02  1.44076E+03  6.40190E+03  2.98066E+03 -6.23308E+03  2.83634E+03  3.47229E+03  4.46657E+03
 -2.67150E+03 -4.05785E+03 -2.94899E+03  3.56075E+03 -3.77120E+03 -3.17572E+03  1.52778E+03 -3.72662E+03
  5.46121E+03 -1.20389E+03  2.99426E+03  1.15431E+03  6.77749E+03 -3.13189E+03  1.86185E+03  2.61265E+03
 -1.04303E+03  5.53256E+03  2.74221E+03  1.07112E+03 -2.96227E+03 -2.60879E+03  1.89913E+03  4.37838E+02
 -2.74010E+03  3.26654E+02 -4.83583E+02  1.39611E+03 -2.84141E+03  9.29277E+02 -3.21977E+03 -7.33554E+02
 -6.30922E+03 -1.14766E+03  1.00172E+03 -3.44338E+03 -1.94141E+03  4.82230E+00  2.54114E+03  1.82626E+03
  2.32349E+03 -3.68780E+03 -1.08333E+03 -5.33122E+02  1.07248E+03  4.57711E+03  1.12221E+03 -2.66511E+03
