 $NMID ID='MM_0lb_SNR50_18hz_g60_65.RAW', FMTDAT='(8E13.5)'
 TRAMP=1., VOLUME=1. $END
  3.11511E+05  9.08849E+02  3.38511E+05  2.50692E+05  8.60448E+04  3.37482E+05 -1.31773E+05  2.56157E+05
 -1.86751E+05  8.14305E+04 -1.11674E+05 -3.38203E+04  4.80190E+03 -5.14874E+04  5.33578E+04  1.42234E+03
  3.05513E+04  5.32179E+04 -1.53605E+04  7.37405E+04 -5.70611E+04  6.52121E+04 -8.49952E+04  3.02754E+04
 -8.22033E+04 -1.30775E+04 -6.07034E+04 -5.48468E+04 -1.68373E+04 -6.73967E+04  2.28874E+04 -4.62232E+04
  4.08060E+04  2.81022E+03  1.51836E+04  4.70257E+04 -3.82335E+04  5.26490E+04 -6.13326E+04  1.63002E+03
 -5.16290E+04 -5.79364E+04 -5.14041E+03 -7.79804E+04  3.27954E+04 -5.48660E+04  4.70924E+04 -1.89693E+04
  4.71819E+04  1.01422E+04  3.19549E+04  2.44825E+04  1.44889E+04  2.98276E+04 -6.76622E+02  2.69420E+04
 -2.23384E+04  1.25084E+04 -1.37838E+04 -5.88624E+03  1.60007E+03 -5.63602E+03  2.06644E+04  1.44249E+04
  4.91823E+03  3.08303E+04 -3.02769E+04  3.60686E+04 -6.37176E+04  2.65277E+03 -6.05236E+04 -3.98354E+04
 -8.32893E+03 -6.35560E+04  4.17520E+04 -4.66804E+04  6.09585E+04  6.65036E+02  2.85233E+04  3.24632E+04
 -4.27343E+03  3.20792E+04 -2.66629E+04  9.64062E+03 -2.94237E+04 -1.47478E+02 -1.61527E+04 -9.80068E+03
 -1.24880E+04 -1.02967E+04 -1.18121E+03 -1.91076E+04  6.12574E+03 -2.16180E+04  1.66803E+04 -1.65454E+04
  1.70175E+04  6.24692E+03 -3.54282E+03  1.18002E+04 -1.47114E+04 -1.62905E+03 -1.22103E+04 -3.18349E+04
  2.34678E+04 -4.25593E+04  4.55616E+04 -1.83012E+04  4.73391E+04  2.56628E+04  1.22039E+04  4.36672E+04
 -1.66278E+04  3.59061E+04 -2.89021E+04  2.07393E+03 -9.81309E+03 -3.06486E+04  2.22636E+04 -3.50108E+04
  4.25148E+04 -1.45116E+04  3.33811E+04  2.09955E+04  1.54209E+04  4.60645E+04 -7.29361E+03  4.46523E+04
 -2.71761E+04  3.17018E+04 -3.82217E+04  1.06134E+04 -4.00205E+04 -1.39463E+04 -2.37033E+04 -3.87624E+04
  4.86211E+03 -3.67426E+04  2.93134E+04 -1.37734E+04  3.04691E+04  1.46842E+04  5.94345E+03  1.74709E+04
 -8.88447E+03  1.10748E+04 -1.09803E+04 -5.81180E+03  4.45172E+03 -8.67953E+03  1.33165E+04  7.55635E+03
  8.59434E+03  2.06881E+04 -5.31660E+03  2.44100E+04 -2.06211E+04  1.36445E+04 -2.81380E+04 -3.50672E+03
 -2.11198E+04 -1.99144E+04 -6.78266E+03 -1.38948E+04  4.56203E+03 -1.11550E+04  1.34269E+04 -1.74807E+04
  2.85945E+04 -8.83392E+03  2.70632E+04  4.34023E+03  2.33036E+04  1.84769E+04  4.38063E+03  3.38381E+04
 -1.59424E+04  2.75736E+04 -3.11396E+04  1.13991E+04 -1.82231E+04 -1.12713E+04 -9.12217E+02 -1.38139E+04
  1.91183E+03 -9.53910E+03 -4.63278E+03  5.41732E+03 -1.45473E+04  5.42636E+03 -1.49408E+04 -6.60984E+03
 -8.08080E+03 -2.12620E+04  1.53197E+03 -2.03520E+04  1.27326E+04 -1.48923E+04  1.24638E+04 -9.45162E+02
  1.17616E+04  1.36364E+04 -2.14924E+03  2.01390E+04 -1.36714E+04  8.50691E+03 -1.59085E+04 -4.48597E+02
 -1.01526E+04 -1.69698E+04 -3.70152E+03 -1.96268E+04  8.49896E+03 -1.78961E+04  1.66463E+04 -9.49653E+03
  1.24577E+04  1.33893E+03  1.40631E+04  6.85872E+02  3.49666E+03 -1.20728E+03  6.61303E+03 -6.80581E+03
  1.21886E+04 -2.23240E+02  1.87447E+04  1.43044E+04  8.11044E+03  2.82964E+04 -4.81399E+03  2.68908E+04
 -1.80278E+04  2.53289E+04 -2.98664E+04  1.23700E+04 -2.51697E+04 -4.72923E+02 -2.34676E+04 -1.91846E+04
 -1.47404E+04 -2.15535E+04  7.24331E+03 -2.33501E+04  2.16194E+04 -1.52978E+04  1.45972E+04  3.48629E+03
  5.86779E+03  1.45350E+04 -5.57515E+03  9.89204E+03 -1.69073E+04  2.67912E+03 -1.12282E+04 -5.99465E+03
 -8.55646E+02 -1.16533E+04  5.54625E+03 -9.40949E+03  9.16734E+03  1.07105E+02  3.85346E+03  2.82286E+03
 -6.48894E+03 -1.59574E+03 -4.39756E+03 -5.88567E+03  2.46974E+02 -1.46311E+04  1.15811E+04 -1.26005E+04
  1.00985E+04 -6.72500E+03  1.35947E+04  1.50651E+03  1.21489E+04  1.34128E+04  5.90134E+03  1.78385E+04
 -3.05187E+02  2.18079E+04 -1.01342E+04  9.66500E+03 -1.47794E+04  6.63837E+02 -7.77148E+03 -3.42461E+03
 -4.42469E+03 -2.40832E+03 -1.08231E+03  1.06025E+03 -2.30731E+03  7.31976E+03 -5.25608E+03  1.72308E+03
 -7.42856E+03 -9.11214E+02 -7.86751E+03 -6.50126E+03 -3.40711E+03 -1.37766E+04  1.20361E+03 -9.22422E+03
  5.35023E+03 -1.19370E+03  2.82220E+03  4.36241E+03 -3.03831E+03  3.90889E+03 -4.00902E+03  1.25977E+03
 -6.67264E+03 -3.11351E+03  6.55275E+02 -1.35239E+04  5.97365E+03 -1.22102E+04  1.37288E+04 -2.41060E+03
  1.05762E+04  4.97989E+03  4.93810E+03  1.04557E+04  2.50167E+03  4.93448E+03 -4.48857E+03  8.19427E+03
 -3.09200E+03  4.17719E+03 -4.64588E+03 -4.92376E+03  4.83261E+03 -1.49097E+03  3.00880E+03 -2.41507E+03
  6.47723E+03  1.08716E+03  1.90148E+03  8.33338E+03 -6.89022E+03  3.26497E+03 -1.11240E+04  5.58311E+03
 -6.56009E+03 -2.59147E+03  1.30643E+03 -7.91983E+03  3.41790E+03 -3.29581E+03  1.19430E+03  3.10569E+03
 -3.90757E+02  2.92459E+03 -6.56510E+03  3.54795E+03 -8.50936E+03  9.53159E+03 -4.74247E+03 -1.47789E+02
 -2.36210E+03 -5.39099E+03 -3.25873E+03 -1.07664E+04  5.65624E+03 -3.98734E+03  4.33471E+03  2.13524E+03
  7.23432E+03  5.32272E+03  2.42789E+03  1.20825E+04 -6.58232E+03  6.24635E+03 -7.18616E+03  1.94756E+03
 -5.80328E+03 -4.05152E+03 -5.88647E+02 -1.19387E+04  4.01990E+03 -3.07970E+03  4.93272E+03  7.25642E+01
  4.72612E+03 -1.16464E+03 -6.09039E+03  9.77999E+01  1.49932E+03  4.53454E+03  1.01333E+03 -6.70672E+03
  5.97132E+03 -2.49549E+02  1.15400E+04  3.09124E+03  5.69536E+03  1.74025E+03  7.46981E+03  1.16158E+04
 -2.66463E+03  1.22812E+04 -7.97408E+03  5.27543E+03 -1.01557E+04  1.21598E+03 -5.77674E+03 -4.37723E+03
  6.49039E+02 -6.07900E+03 -8.04118E+02 -5.92812E+03 -1.03706E+02  1.61941E+03 -3.24288E+02 -4.79747E+03
  3.49520E+03 -1.76807E+03  1.06412E+03 -1.80264E+02  1.57068E+03  8.45284E+02  7.83217E+03 -4.21613E+03
  4.98396E+03  2.40012E+03  6.50408E+02  4.08364E+03  1.88758E+03  2.36146E+03 -3.76011E+03  5.41390E+03
 -5.58981E+03 -1.17266E+03 -2.98700E+03 -2.76340E+03  7.64168E+02 -5.58549E+03  3.06107E+03 -3.77974E+03
  8.24637E+03 -4.75903E+03  9.01762E+03 -1.35926E+03  8.40794E+03  6.10939E+03 -9.65593E+01  3.70634E+03
 -3.70664E+03  9.01836E+03  1.41221E+03  3.15724E+03 -3.80118E+03  2.12703E+03  1.65472E+03  5.64308E+02
 -9.80149E+01  2.80590E+02 -2.22890E+03 -1.23332E+03 -2.95625E+03  2.49612E+03 -1.75562E+03 -3.04942E+03
 -2.68932E+03 -8.03920E+03 -3.21684E+03 -6.37182E+03  1.94839E+03 -9.30944E+03  4.60386E+03  3.95631E+02
  2.74927E+03  4.31657E+03  3.82099E+03  1.15560E+02 -4.84919E+02  5.20854E+03 -6.59486E+03  2.27496E+03
 -2.04422E+03 -1.24762E+03 -5.92814E+03 -5.93467E+03  2.28947E+03 -4.45096E+03 -1.29009E+02 -8.31594E+03
  2.55674E+03 -4.59233E+03  9.12129E+02  4.84132E+03 -9.62035E+02  3.87964E+03 -1.77280E+03  1.29242E+03
  1.01354E+03  2.34898E+03  1.35186E+03  1.68705E+03  2.47055E+03  7.96194E+02 -7.32179E+02  6.23618E+03
 -1.74182E+03  1.08236E+03 -7.51467E+01  4.25705E+03 -3.50611E+03  1.32648E+03 -8.39464E+03  3.57862E+03
  4.73388E+02 -3.39932E+03  1.92603E+03 -1.35449E+03  1.11933E+03  2.41651E+03  6.21719E+03 -7.60631E+02
  5.71771E+03  3.00843E+03 -3.28851E+02 -2.63077E+02 -4.54017E+02  3.40574E+02 -1.95331E+02 -4.27216E+03
  4.27781E+03 -2.50727E+03 -3.67577E+03  3.15272E+03  3.40335E+03 -2.86355E+02 -1.95879E+03 -1.29760E+03
 -3.60404E+03 -5.01772E+03  2.16600E+03  5.59809E+03 -2.56581E+03  2.77033E+01  3.38784E+03  1.59542E+02
  3.09808E+03  1.21692E+03  1.99035E+03 -4.81066E+03  3.66330E+03  4.86481E+03 -4.93261E+03 -3.81019E+02
 -3.24653E+03  2.34370E+03 -1.44981E+03  3.71125E+02  8.40292E+02  6.29131E+02 -1.49963E+03 -2.19893E+03
  1.75640E+03 -1.93280E+02 -4.11654E+02 -1.67087E+03  3.28881E+03 -4.53230E+03  1.28309E+03 -3.92768E+02
  2.18947E+03 -2.26129E+03 -4.54306E+03 -7.83651E+02  1.80881E+03 -4.05822E+03  5.33739E+02 -2.84745E+03
 -1.59777E+03  8.43528E+02 -5.85216E-01  1.61488E+03  1.36384E+03  5.95986E+02 -1.30505E+03 -1.42474E+03
 -1.57106E+01  1.21770E+03 -9.86939E+02 -9.41981E+02  1.02383E+03 -1.55518E+03  8.29100E+02 -3.53883E+03
  2.04236E+03 -8.49271E+00 -2.06573E+03 -5.56301E+02  1.10033E+03  1.17973E+03 -1.70809E+03  1.58049E+03
 -5.97847E+02 -1.54174E+02 -3.27943E+03 -3.17776E+03  2.68130E+02  1.32803E+03  8.02256E+02  3.43605E+03
  4.89221E+03 -4.30023E+03  3.57463E+03 -2.07633E+03  1.50991E+03  1.48824E+02  1.02256E+03  1.16967E+03
  1.79010E+03  3.97436E+03 -1.92528E+03 -1.70273E+03  2.62575E+03  4.44033E+03 -2.02407E+03  2.11069E+03
 -2.07418E+03  1.35676E+03 -1.69007E+03 -2.05908E+03  1.99025E+03  5.61970E+02  1.76523E+03 -2.91893E+03
  3.26330E+03 -4.91630E+03 -2.96858E+03 -5.07398E+03 -4.62846E+02 -5.90384E+03  1.32665E+03 -2.20928E+03
  5.92684E+03  2.29392E+03  1.02308E+03  7.48631E+03  5.91945E+02 -2.27973E+03 -2.52796E+03 -3.66834E+03
 -2.78999E+03  6.76213E+02 -3.36780E+03 -1.48955E+03  5.27709E+03 -2.78625E+02  6.82385E+03 -1.65630E+03
 -2.77832E+03 -1.12438E+01 -9.52156E+02 -3.25849E+03  9.48548E+02  1.71386E+03 -3.94902E+02  4.43680E+03
  2.26682E+02  8.17832E+02 -1.29106E+02  3.64721E+03  6.43577E+02  6.97550E+02 -2.00552E+03  7.95313E+01
  1.42714E+03 -1.82678E+03  1.05160E+03 -2.42329E+03 -2.49118E+03  9.72041E+02  1.38837E+02 -3.25611E+03
 -3.32409E+03  1.93744E+03 -4.05671E+03 -1.47087E+03  1.28302E+03 -1.58838E+03  2.98174E+03  3.25453E+03
  5.64781E+02  8.95481E+02 -4.84012E+01  2.77615E+03  1.25304E+03  1.12693E+03  4.79740E+03 -1.84261E+03
  6.75543E+02 -1.78560E+03 -7.08196E+02  2.97455E+03  3.48114E+03 -2.84770E+03 -4.32327E+02 -3.21539E+02
 -2.31582E+03  3.15365E+03 -2.92588E+03 -4.49010E+03 -5.90376E+03 -4.65584E+03 -1.17121E+03 -1.58476E+03
  4.03357E+03 -1.66489E+03 -3.05090E+02 -3.90662E+03 -3.77753E+03 -3.78750E+03 -1.88391E+02  2.28477E+03
 -3.53072E+03  3.13026E+03  2.09345E+03 -1.86397E+03 -1.80184E+03 -1.23475E+03 -1.61928E+00 -3.53464E+03
  4.96088E+02 -2.31346E+03  7.21100E+02 -5.40843E+02 -4.25144E+03 -5.11440E+00 -2.56878E+02  1.54075E+03
 -6.90639E+03 -7.49300E+02 -6.45464E+03  1.66507E+03  7.69025E+00  1.37081E+03 -2.86648E+01  7.45526E+02
  1.30605E+03 -3.74169E+02  2.68532E+03 -7.17415E+02  1.58610E+03 -6.58309E+01 -1.19000E+03  3.14020E+03
