 $NMID ID='MM_0lb_SNR50_11hz_g60_12.RAW', FMTDAT='(8E13.5)'
 TRAMP=1., VOLUME=1. $END
  3.10496E+05 -2.21980E+03  3.36147E+05  2.50411E+05  8.16188E+04  3.36921E+05 -1.30651E+05  2.50433E+05
 -1.90689E+05  8.03803E+04 -1.14578E+05 -2.91478E+04  3.87842E+03 -5.27106E+04  5.23990E+04 -4.58949E+03
  3.72599E+04  5.68110E+04 -1.87558E+04  6.80359E+04 -6.27375E+04  6.45710E+04 -8.21499E+04  3.00002E+04
 -8.31013E+04 -1.10487E+04 -6.22032E+04 -5.63168E+04 -1.47581E+04 -6.94156E+04  3.28507E+04 -4.70011E+04
  3.92593E+04  2.14686E+03  1.92206E+04  4.91220E+04 -4.02065E+04  5.20897E+04 -6.92528E+04 -3.38422E+03
 -6.41730E+04 -5.63852E+04 -2.89515E+03 -7.77358E+04  3.29207E+04 -6.26132E+04  4.65390E+04 -1.68706E+04
  4.40574E+04  8.75244E+03  3.40185E+04  2.54375E+04  1.21099E+04  2.38444E+04 -4.52623E+03  2.48849E+04
 -1.83226E+04  9.09461E+03 -1.36526E+04 -6.52464E+03  1.36559E+04 -6.14137E+03  2.25527E+04  1.49678E+04
  3.29528E+03  3.60735E+04 -3.18774E+04  3.81026E+04 -7.13724E+04  6.82961E+03 -5.76722E+04 -4.93136E+04
 -1.25304E+04 -6.84504E+04  3.81734E+04 -4.76950E+04  6.63969E+04 -9.29562E+03  3.42247E+04  2.79079E+04
 -1.74749E+02  3.85687E+04 -3.03144E+04  1.72728E+04 -3.37398E+04 -5.67009E+03 -2.00784E+04 -1.47229E+04
 -7.91555E+03 -1.79672E+04  1.14028E+03 -1.82190E+04  1.09782E+04 -2.01506E+04  1.62130E+04 -1.34320E+04
  8.59152E+03  5.82447E+03 -6.06162E+03  1.26122E+04 -2.60373E+04 -4.67093E+03 -3.15949E+03 -3.39476E+04
  2.40848E+04 -4.80742E+04  5.57479E+04 -1.98390E+04  4.96519E+04  1.79740E+04  1.93659E+04  4.65455E+04
 -1.90502E+04  3.52163E+04 -2.98887E+04  3.38503E+03 -9.29227E+03 -2.47157E+04  1.69393E+04 -3.57148E+04
  4.54361E+04 -1.01178E+04  4.14981E+04  2.32414E+04  1.92457E+04  4.91662E+04 -1.55072E+04  5.34899E+04
 -3.74119E+04  3.51425E+04 -4.83643E+04  4.33877E+03 -4.66675E+04 -1.78380E+04 -3.12719E+04 -3.88008E+04
  8.91884E+03 -4.08532E+04  3.84094E+04 -1.17016E+04  3.18318E+04  1.42906E+04  7.82170E+03  2.00295E+04
 -1.35671E+04  9.68689E+03 -1.68158E+04 -1.01593E+04  8.25701E+03 -1.38366E+04  1.78748E+04  8.51216E+03
  2.09141E+04  2.06344E+04 -1.07447E+04  3.07811E+04 -2.43507E+04  1.27080E+04 -2.45109E+04  3.46546E+03
 -2.70291E+04 -2.54003E+04 -1.34749E+04 -2.46805E+04  4.43423E+03 -2.01281E+04  1.91777E+04 -1.97793E+04
  3.21456E+04 -1.39964E+04  3.98147E+04  6.37889E+03  2.54901E+04  2.11553E+04  1.09262E+04  4.08523E+04
 -2.37782E+04  3.59678E+04 -3.31135E+04  1.30047E+04 -2.59049E+04 -1.24666E+04 -1.89867E+03 -1.44026E+04
 -6.32856E+02  1.02170E+03 -7.78056E+03  4.59712E+03 -2.22602E+04  2.58888E+03 -2.42380E+04 -6.81527E+03
 -1.27384E+04 -2.37331E+04  6.61395E+03 -2.19150E+04  1.37050E+04 -1.99180E+04  2.07082E+04  9.42274E+00
  1.43826E+04  1.64811E+04  1.85614E+02  2.34092E+04 -1.39706E+04  1.35730E+04 -2.03179E+04 -2.04023E+03
 -1.50300E+04 -1.87170E+04 -5.76355E+03 -2.93414E+04  1.46767E+04 -2.12406E+04  2.28562E+04 -1.09591E+04
  2.58922E+04 -6.63928E+02  1.51674E+04 -7.66664E+02  1.01090E+04 -2.09271E+03  6.89927E+03 -7.04755E+02
  1.98182E+04  1.76374E+03  2.70040E+04  2.08742E+04  1.69211E+04  3.82791E+04 -5.74315E+03  4.77056E+04
 -3.05867E+04  3.45246E+04 -4.06314E+04  1.30449E+04 -4.48538E+04 -4.61943E+03 -3.43211E+04 -2.28513E+04
 -1.22705E+04 -3.98873E+04  1.71061E+04 -2.80074E+04  2.75318E+04 -8.67270E+03  2.19935E+04  4.67744E+03
  1.06148E+04  2.16537E+04 -1.70580E+04  1.59852E+04 -2.09624E+04  1.35156E+02 -1.65061E+04 -1.39812E+04
  4.01898E+03 -1.61795E+04  1.04341E+04 -1.38432E+04  1.17599E+04  6.31540E+02  1.75268E+03  4.08246E+03
 -8.89910E+03  4.83500E+03 -6.73577E+03 -8.25157E+03 -3.13024E+03 -1.89227E+04  4.73426E+03 -2.00094E+04
  2.54119E+04 -1.35437E+04  2.28925E+04 -7.48050E+02  2.50651E+04  2.54712E+04  1.17450E+04  2.79878E+04
 -5.37700E+03  2.64888E+04 -1.65127E+04  1.95512E+04 -1.67662E+04  5.74193E+03 -1.32002E+04 -7.26206E+03
 -9.71404E+03 -4.91807E+03 -1.40268E+03  8.50372E+03 -5.50727E+03  9.75055E+02  1.40741E+03  1.39907E+02
 -1.27173E+04 -2.08725E+03 -1.56071E+04 -1.22989E+04 -4.05676E+03 -1.71718E+04  1.05874E+04 -1.35701E+04
  1.25896E+04 -6.49632E+03  4.33710E+03 -3.17574E+02 -1.60898E+03  1.05155E+04 -4.97336E+03  1.13754E+03
 -1.14926E+04 -4.95257E+03  3.55986E+03 -1.33492E+04  1.14666E+04 -9.11752E+03  2.51819E+04 -5.97127E+03
  2.21098E+04  3.12472E+02  1.05493E+04  1.04345E+04  1.92693E+03  1.60756E+04 -1.95136E+03  1.59527E+04
 -1.64785E+04  1.90079E+03 -4.30530E+03  9.47009E+02 -4.36657E+02 -8.00887E+03  1.00350E+04  6.88359E+02
  8.36100E+03  4.04966E+03  4.22256E+03  1.61300E+04 -9.47185E+03  9.38834E+03 -1.27952E+04 -1.74494E+03
 -8.89331E+03 -1.83184E+03  4.70644E+02 -1.16269E+04  2.19447E+03 -5.75478E+03  1.12985E+04  3.37044E+03
  3.66907E+03  8.05230E+03 -3.26654E+03  1.10381E+04 -1.40625E+04  3.32886E+03 -8.61767E+03 -8.54464E+03
 -1.15118E+04 -8.58732E+03 -1.52316E+02 -2.11632E+04  1.32602E+04 -1.28257E+04  7.78586E+03  3.65061E+03
  6.54137E+03  1.23208E+04  3.89160E+03  1.10254E+04 -1.12607E+04  3.75542E+03 -1.64621E+04 -2.21939E+03
 -6.68869E+03 -1.14769E+04 -1.42548E+03 -1.37208E+04  8.23172E+03 -1.39859E+04  8.95999E+03 -1.45339E+03
  3.22490E+03 -3.70221E+01  8.92878E+03  6.62001E+03 -8.21624E+02 -5.47357E+03  2.22958E+03 -2.87983E+03
  1.35004E+04 -3.19610E+03  1.86261E+04  5.47564E+02  1.31069E+04  8.69701E+03  8.15609E+03  1.55663E+04
 -8.30669E+03  2.22375E+04 -1.52751E+04  1.83820E+04 -2.42834E+04  8.02861E+03 -2.07974E+04 -2.45842E+03
 -9.12225E+03 -1.62586E+04 -5.68432E+02 -1.25580E+04 -1.23883E+03 -5.92955E+03  7.15709E+03 -5.16522E+03
  3.39208E+03 -9.59578E+03  5.57910E+03 -7.52803E+03  2.68563E+03 -1.17669E+04  4.83835E+03  3.43483E+03
  7.44487E+03  1.64186E+02  7.93194E+03  8.23669E+03  1.48463E+03  1.31857E+04 -7.29279E+03  1.30972E+04
 -9.86352E+03  9.23921E+02 -8.69927E+03 -7.11912E+03 -1.08945E+03 -1.80539E+04  1.01355E+04 -1.72252E+04
  1.33626E+04 -1.00041E+04  1.86624E+04  5.02006E+03  1.06053E+04  1.19248E+04  1.11006E+03  2.03065E+04
 -1.11214E+04  1.53997E+04 -1.03949E+04  3.53168E+03 -9.83052E+03 -2.82067E+03  9.15181E+02  1.18434E+03
 -9.04366E+02 -1.36253E+03 -6.64133E+03  3.63474E+01 -8.60871E+03 -1.08138E+03 -1.28167E+04  1.38268E+03
 -6.48442E+03 -9.37716E+03 -5.28751E+03 -1.19387E+04  7.01273E+03 -1.06471E+04  1.33590E+04 -5.22011E+03
  1.52603E+04  4.42473E+03  2.96618E+03  1.75509E+04 -1.97323E+02  1.10152E+04 -7.08600E+03  2.09190E+03
 -8.33691E+03 -1.36308E+03 -4.03773E+03 -8.90572E+03  3.09818E+03 -1.26996E+04  4.72979E+03 -6.99604E+03
  1.05328E+03 -1.68159E+03  6.24256E+03 -5.50962E+03  2.90882E+03  2.47196E+03  5.72607E+03  7.55951E+03
  4.04938E+02  3.86301E+03  9.98210E+03 -1.52323E+03  3.55302E+03  3.56262E+03 -1.01323E+03  6.89746E+03
 -8.43009E+03  8.59211E+03 -7.03599E+03  1.04312E+04 -8.60244E+03  3.04663E+03 -1.20872E+04 -7.77632E+03
 -8.98891E+03 -9.68103E+03  5.66673E+03 -1.82070E+04  9.16457E+03 -1.14056E+04  1.20893E+04 -4.81315E+03
  1.08554E+04  9.65113E+03  8.03107E+03  7.87187E+03 -8.96521E+02  4.03672E+03 -2.52834E+03 -4.95257E+03
 -6.52841E+03 -7.84537E+03  2.53291E+03 -9.19502E+03  9.69569E+03 -1.73070E+03  4.92514E+02  5.37742E+03
  5.32121E+03  1.95772E+03 -1.59949E+02 -3.71306E+03 -2.50357E+03  2.03510E+02  1.86248E+03 -5.37877E+01
  2.88121E+03 -2.81624E+03  6.09781E+03  3.52802E+01  2.13210E+03  5.23529E+03 -3.74212E+03  3.69165E+03
 -4.69057E+03  1.24498E+04 -4.05211E+03  5.91782E+02 -9.22975E+03 -5.73867E+02  1.97094E+03 -7.80636E+03
  2.04375E+03 -6.44262E+03  3.64350E+03  2.84192E+02  4.05383E+03 -1.27005E+03 -3.12476E+03 -1.41197E+03
 -4.22632E+03 -2.81336E+03 -3.93436E+03 -4.31912E+03 -5.07219E+02 -2.84129E+03  3.08422E+03 -1.11493E+04
  3.45972E+03  5.72222E+02  4.76669E+03 -2.22805E+03  9.12847E+03  3.14166E+03  3.93144E+03 -8.74321E+02
 -4.26067E+02  3.31971E+03 -5.39374E+03  4.66526E+03  5.40816E+03 -8.93832E+03  1.74028E+03 -6.80234E+03
  8.14615E+03 -8.92420E+01  1.15817E+04  2.56877E+01  2.62015E+03  6.66006E+03 -1.03066E+03  5.86023E+03
 -8.52532E+03  3.26278E+03 -8.31718E+03 -1.24752E+03 -6.02887E+03 -2.42473E+02  6.11287E+03 -7.22333E+03
  9.29812E+02 -4.85141E+03  7.22901E+03 -1.32723E+03  6.54667E+03  7.34847E+01 -1.79405E+03  3.78061E+03
 -1.43909E+03  1.51506E+03 -3.08776E+03 -1.06759E+03  3.50116E+02 -4.56122E+03 -7.42154E+03 -5.90840E+02
 -9.54377E+02  2.45362E+03 -7.16888E+03  2.16572E+02 -1.39607E+04  3.92580E+03 -8.82158E+03 -4.89721E+03
 -4.16786E+03 -5.86148E+03  8.49508E+03 -1.81928E+04  6.03365E+03 -9.45921E+03  8.34045E+03 -8.15813E+02
  8.35151E+03  1.31163E+03  9.71510E+03  7.20781E+03 -3.09535E+02  9.54068E+03 -8.29423E+03  4.89851E+03
 -4.30210E+03  3.54170E+03 -5.35101E+03 -4.81621E+03  7.70962E+02  3.10045E+02  7.53045E+02  1.74686E+03
 -3.51061E+03  1.74826E+03  3.98875E+03 -5.32277E+02 -2.70123E+03 -2.87223E+03 -1.34262E+03 -5.82378E+03
  5.44621E+03 -3.89136E+03 -9.27983E+02  3.14296E+01  5.28182E+02  7.49895E+03  7.73963E+02  1.18967E+04
 -1.71153E+03  7.67552E+03 -3.74189E+03  8.91434E+03 -5.12862E+03  4.66475E+03 -5.00948E+03 -6.33345E+03
 -1.80835E+03 -9.41141E+03  4.09266E+03 -8.66358E+03  7.94344E+03 -5.39038E+03  5.92979E+03  4.16566E+03
  4.53548E+03 -9.22844E+02 -2.32855E+02 -1.37715E+03  6.75258E+02  2.33587E+03  1.34059E+03 -1.37670E+03
 -2.79033E+03 -5.08380E+03 -7.95886E+02  2.45132E+03  2.75147E+03  6.42199E+03  1.44021E+03 -6.26047E+02
 -1.97736E+03  3.76784E+03 -6.72429E+03 -9.06007E+02 -3.49636E+03 -5.84348E+02  3.90497E+03 -6.56469E+03
  1.80812E+03 -8.62396E+03  7.34038E+03 -1.30169E+03  3.78593E+03 -1.29579E+03  5.89940E+03  5.56804E+03
 -3.80374E+03  1.42910E+03 -2.21421E+03  5.97786E+03 -5.01297E+03 -1.49265E+03  2.57993E+03  2.02961E+03
  1.27709E+03  3.21014E+03 -6.97460E+03 -4.48508E+03 -1.12495E+03  2.32800E+02 -3.86881E+03  2.18049E+03
 -4.21073E+03 -5.93860E+03 -1.58565E+03 -4.60623E+03  3.80716E+02 -8.28635E+03 -1.45414E+03 -4.86019E+02
  1.66445E+03  6.59422E+03  7.42544E+02  6.34750E+03  2.40088E+03  7.94106E+03 -8.12018E+03  1.07390E+04
