 $NMID ID='MM_0lb_SNR50_16hz_g60_71.RAW', FMTDAT='(8E13.5)'
 TRAMP=1., VOLUME=1. $END
  3.08812E+05  2.89152E+02  3.40416E+05  2.50349E+05  8.58727E+04  3.38059E+05 -1.28986E+05  2.54748E+05
 -1.87735E+05  8.23109E+04 -1.11417E+05 -3.02118E+04 -7.63841E+02 -4.99909E+04  5.49905E+04 -1.44578E+03
  3.69327E+04  5.27535E+04 -1.41256E+04  7.59133E+04 -5.56238E+04  5.98799E+04 -7.86287E+04  3.17154E+04
 -8.64610E+04 -1.06737E+04 -5.72510E+04 -5.26958E+04 -1.95655E+04 -6.90891E+04  3.17045E+04 -4.83722E+04
  3.90464E+04  4.12020E+03  1.72537E+04  4.68140E+04 -3.31284E+04  5.06650E+04 -6.55398E+04 -2.94478E+03
 -4.93879E+04 -5.87491E+04 -4.99301E+03 -7.64051E+04  3.64309E+04 -5.43617E+04  4.89561E+04 -1.48593E+04
  4.40920E+04  1.07316E+04  2.87859E+04  2.53148E+04  1.80678E+04  3.10850E+04 -4.55530E+03  2.82464E+04
 -1.44699E+04  1.02566E+04 -1.95188E+04 -3.61849E+03  6.12787E+03 -9.89900E+03  2.67938E+04  1.50354E+04
  2.71193E+03  3.74163E+04 -3.39491E+04  3.36905E+04 -5.82738E+04  3.78617E+03 -5.79068E+04 -4.33915E+04
 -1.38122E+04 -5.84047E+04  3.95281E+04 -4.39363E+04  5.91944E+04 -1.42644E+03  3.10974E+04  3.14543E+04
 -5.17942E+03  3.64494E+04 -2.50157E+04  1.69665E+04 -3.05863E+04 -3.11032E+03 -1.82299E+04 -1.13467E+04
 -9.76695E+03 -1.49824E+04 -7.27293E+01 -2.02428E+04  6.50162E+03 -2.58311E+04  2.19442E+04 -1.60541E+04
  1.37672E+04  4.51748E+03 -8.81820E+03  1.51223E+04 -2.08673E+04 -5.68221E+03 -9.66982E+03 -3.59540E+04
  2.31155E+04 -4.79116E+04  4.47753E+04 -1.91994E+04  4.59431E+04  1.77528E+04  1.44656E+04  4.67096E+04
 -1.42934E+04  2.99626E+04 -2.65415E+04 -1.81983E+03 -8.51191E+03 -3.00875E+04  2.46557E+04 -3.43596E+04
  4.44599E+04 -5.32911E+03  3.38114E+04  2.65289E+04  1.73831E+04  4.82326E+04 -8.17197E+03  5.31533E+04
 -3.00328E+04  3.84149E+04 -3.80363E+04  9.98656E+03 -4.63923E+04 -1.45129E+04 -2.03759E+04 -4.02236E+04
  7.65110E+03 -3.88631E+04  3.67037E+04 -1.80866E+04  2.88827E+04  9.81839E+03  8.58050E+03  1.86780E+04
 -1.54338E+04  8.29829E+03 -1.02977E+04 -8.12927E+03  3.13888E+03 -9.83895E+03  1.76655E+04  8.22524E+03
  1.21887E+04  2.15031E+04 -7.47347E+03  2.32075E+04 -2.05705E+04  1.00822E+04 -2.85660E+04 -3.71225E+03
 -2.18372E+04 -1.92535E+04 -8.07793E+03 -2.00595E+04  5.78065E+03 -2.11167E+04  1.39189E+04 -1.81723E+04
  2.30879E+04 -1.24333E+04  3.26112E+04  4.38906E+03  2.41645E+04  2.00389E+04  4.74563E+03  3.87893E+04
 -1.64226E+04  3.36297E+04 -2.75362E+04  8.61940E+03 -2.06902E+04 -1.22477E+04 -5.87529E+03 -1.48779E+04
  1.94927E+03 -1.97519E+03 -3.51518E+03  6.54491E+03 -1.62911E+04  6.08347E+03 -1.47614E+04 -4.77125E+03
 -8.85311E+03 -1.84882E+04  9.69912E+03 -1.99251E+04  1.15342E+04 -1.29388E+04  1.63191E+04 -6.28952E+03
  1.36965E+04  1.74164E+04 -4.37665E+02  2.20675E+04 -1.63379E+04  1.29158E+04 -1.94592E+04 -3.45595E+03
 -8.21384E+03 -1.68446E+04 -7.40499E+03 -2.40992E+04  1.19277E+04 -2.13895E+04  2.27585E+04 -6.34567E+03
  1.93361E+04 -4.24365E+03  1.68246E+04  1.17895E+03  5.73964E+03  2.62681E+03  5.38334E+03 -3.16982E+03
  1.29751E+04 -5.39858E+02  2.05829E+04  1.62924E+04  1.32570E+04  3.00500E+04 -3.94006E+03  3.02642E+04
 -2.02832E+04  2.61398E+04 -3.52218E+04  1.06117E+04 -3.11151E+04 -1.67923E+03 -2.82266E+04 -1.84264E+04
 -8.39385E+03 -2.89527E+04  1.07758E+04 -2.43535E+04  1.65570E+04 -1.32070E+04  1.28164E+04  5.94760E+03
  2.54372E+03  1.55339E+04 -9.24495E+03  1.08460E+04 -1.44720E+04  4.79662E+03 -1.40604E+04 -7.50925E+03
 -1.62909E+03 -2.04161E+04  8.05338E+03 -1.35960E+04  1.21447E+04 -3.63452E+03  1.90216E+03  5.72127E+03
 -7.22649E+03  2.77723E+03 -5.22676E+03 -5.05156E+03 -4.36525E+03 -1.21738E+04  7.30796E+03 -1.21380E+04
  1.25144E+04 -7.36351E+03  1.30946E+04  1.95823E+03  1.13656E+04  9.54755E+03  5.58157E+03  2.04883E+04
 -1.04930E+03  2.29661E+04 -1.55133E+04  1.33516E+04 -1.55862E+04  3.66494E+03 -1.20399E+04 -5.61619E+03
 -2.95857E+03 -5.60717E+03  2.06858E+03 -1.43018E+03  4.81645E+02 -1.11431E+03 -3.95447E+03  6.59717E+03
 -8.69527E+03 -6.62499E+02 -7.95402E+03 -6.80935E+03 -7.92449E+03 -1.30551E+04  6.51252E+03 -8.37102E+03
  6.25963E+03 -2.18942E+03  1.95797E+03  5.97541E+02  3.53036E+03  3.68512E+03 -7.53309E+03 -1.23715E+03
 -9.98348E+03 -5.43215E+03 -5.15532E+03 -9.77285E+03  2.66097E+03 -8.52942E+03  1.73068E+04 -1.05394E+04
  1.63757E+04  2.66468E+03  1.63907E+04  7.75762E+03  3.45062E+03  9.03280E+03 -6.32479E+01  1.07056E+04
 -8.53853E+03  2.47682E+03 -6.64302E+03 -5.79620E+03  2.17886E+03 -1.76531E+03  7.06911E+03  3.77252E+03
  8.26548E+03  7.79361E+03  9.32015E+02  5.52892E+03 -5.16288E+03  4.52016E+03 -9.07906E+03  7.05361E+03
 -5.94198E+03 -3.73758E+03 -1.75650E+03 -9.73242E+03  8.31909E+03 -2.26993E+03  3.08468E+03 -9.13574E+02
  5.80310E+03  3.59968E+03 -5.02432E+03  5.87034E+03 -1.21360E+04  5.65463E+03 -7.43270E+03  9.07934E+01
 -4.33064E+02 -6.09193E+03  2.93729E+03 -9.66563E+03  4.66185E+03 -3.18845E+03  1.19100E+04 -2.65652E+03
  4.46937E+03  7.49308E+03 -2.47561E+03  7.62372E+03 -7.42816E+03  9.59977E+03 -8.93379E+03 -6.47792E+02
 -9.30076E+03 -7.61882E+03 -1.78674E+03 -8.46967E+03  3.19735E+03 -6.91048E+03  5.69805E+03 -2.01357E+03
  3.73490E+03  3.59736E+03  3.71036E+02  3.35616E+03  4.97540E+02 -3.78594E+03  3.48866E+03 -1.94609E+03
  2.92671E+01 -3.99780E+03  8.64848E+03  2.15948E+03  9.00940E+03  1.52493E+03  7.05140E+03  7.31350E+03
 -2.43139E+03  1.35009E+04 -1.08687E+04  7.51233E+03 -1.12200E+04  4.16016E+03 -1.42259E+04  7.19090E+02
 -7.61839E+03 -8.58809E+03 -7.13858E+02 -1.04221E+04 -7.53009E+02  2.07231E+03  4.80416E+03 -2.14389E+02
  1.99572E+03 -3.31278E+03  2.47332E+03 -1.85094E+03  4.53888E+03  8.60730E+02  6.43124E+03 -2.69507E+03
  3.58708E+03  4.18990E+03  2.05465E+03  3.50335E+03 -1.63113E+03  7.40895E+03 -9.22357E+03  4.51411E+03
 -6.32180E+03  1.47740E+03 -4.07146E+03 -1.75135E+03 -1.89489E+03 -9.90763E+03  5.64825E+03 -3.91572E+03
  7.24976E+03  1.28503E+03  1.30259E+04  6.44902E+03  7.51807E+03  6.67471E+03  3.92419E+03  1.06539E+04
 -1.34130E+03  7.24031E+03 -7.28324E+03  6.42789E+02 -4.16652E+03 -6.19848E+02  1.73216E+03 -1.23229E+03
 -4.85031E+03  1.02942E+02 -3.92770E+03  7.73926E+03 -3.41672E+02  5.81212E+03 -7.21024E+03 -3.27350E+02
 -3.91306E+03 -5.69623E+03  1.99527E+03 -9.71884E+03  8.40747E+03 -4.99844E+03  6.59693E+03 -5.09520E+03
  4.01409E+03  6.94024E+03  2.92840E+03  8.68191E+03  3.21673E+03  5.06083E+03 -6.23230E+03  6.35789E+03
 -5.60749E+03 -2.16813E+03 -5.00418E+03 -3.82425E+03 -6.21397E+02 -6.83796E+03  6.89747E+03 -6.07080E+03
  6.60123E+03 -2.12773E+02 -2.14031E+02  2.43426E+03  1.75809E+03  1.67512E+03  3.68814E+03  7.72101E+02
  3.04821E+03 -3.18836E+03  1.74401E+03 -8.09630E+02  3.78459E+03  2.12921E+03  5.75075E+02 -1.00053E+03
 -6.28071E+03  3.35989E+03 -7.80369E+03  6.29556E+03 -3.97872E+03  3.56861E+03 -5.89671E+03 -4.26445E+03
  4.26867E+02 -8.04751E+03  1.25707E+03 -1.45667E+03  4.77945E+03 -9.96123E+03  4.23627E+03  1.62378E+02
  3.90647E+03  3.18094E+03  1.69138E+03  3.36364E+03  2.52456E+03  8.31555E+02 -6.24095E+02  1.11366E+03
 -1.67264E+03  1.77092E+03 -8.90552E+01 -4.46891E+02  2.02591E+03 -2.88892E+03  1.66747E+03  5.51435E+02
 -3.48872E+03 -2.38385E+03  1.78624E+03 -6.57429E+02  5.50289E+02  1.91682E+03  1.32492E+03  2.73333E+02
  2.10456E+03 -3.76385E+03  5.97317E+03  4.38975E+03 -6.17696E+02  5.69246E+03  8.05566E+02  6.46925E+03
 -3.16231E+03  2.48146E+03 -3.17435E+02  2.56925E+03 -3.93059E+03  3.85842E+03  1.26365E+03 -8.19685E+03
  1.06467E+03 -4.77501E+03  2.28238E+03 -3.08703E+03  8.93061E+02  1.59934E+03  1.66672E+03  1.14959E+03
 -3.52341E+03  4.01737E+03 -6.57656E+03  1.87160E+03 -4.68191E+02 -5.78973E+03  1.94470E+03 -4.00640E+03
 -1.71609E+03 -3.74417E+03 -8.04641E+02  3.14039E+02  3.61685E+03  2.97049E+03  1.15350E+01  2.19213E+03
 -2.04445E+03  2.99906E+03 -2.75478E+03  1.90966E+02  2.23935E+03  2.00591E+03  6.25340E+03 -3.81329E+02
  3.14291E+03  2.92353E+03 -4.44601E+03 -9.20987E+02  9.77090E+02  1.98436E+03  1.53632E+03  2.60906E+03
  1.05813E+03  5.12482E+03 -4.89987E+02  1.12541E+03 -3.24003E+03  1.42144E+02 -1.57564E+03  3.08681E+03
  3.83975E+03  2.98399E+03  1.26012E+03 -1.54985E+03 -4.52836E+03  2.96501E+03  4.62362E+03 -7.20271E+02
  5.06005E+03  1.48113E+03 -3.59371E+02  7.34658E+02  2.10154E+03  2.36809E+03 -8.42435E+02  3.46753E+03
 -1.49267E+03 -5.24943E+03 -2.42586E+02  2.05931E+03 -4.03644E+03 -1.86297E+03 -1.29552E+03 -6.07428E+03
 -1.61460E+03 -4.12590E+03 -1.37426E+03 -5.09956E+03  7.68222E+02 -4.77880E+03  1.78134E+03 -9.59321E+02
  2.71011E+03  9.25346E+02  3.97846E+03  2.18401E+03  1.27286E+03  2.41271E+03 -4.86308E+03  1.25620E+03
 -5.72545E+03  1.04260E+03 -1.01493E+03 -6.49505E+03  9.15302E+02 -3.68164E+02 -4.89736E+03  1.04737E+03
 -1.27585E+03 -4.50536E+03  5.48838E+01 -1.04060E+03  2.70075E+03 -5.72493E+01  2.33815E+03 -2.74855E+03
  2.50486E+03 -2.89229E+03  6.89675E+03  1.56296E+03 -3.28386E+03  4.04632E+03  2.30938E+03 -5.21396E+02
  6.44239E+02  5.45171E+03 -2.93959E+03 -9.83035E+02 -2.82559E+03 -1.52382E+03 -9.16018E+02 -4.04473E+03
 -5.35831E+03 -2.07920E+03  1.89720E+03 -1.19890E+02  2.35351E+03  1.88632E+02  3.96406E+02  3.16664E+03
  6.06800E+02 -3.50533E+03 -2.04011E+03 -5.65013E+02 -3.22160E+03  6.96687E+02  2.32851E+03 -6.58941E+02
 -1.41715E+03 -5.60684E+03 -8.00585E+02  1.07162E+02 -3.42204E+03  4.70833E+03  9.24711E+02 -6.99857E+02
  2.93710E+03  8.28219E+02 -1.02528E+03  2.75806E+02  2.12122E+03 -3.26147E+03 -9.33188E+01 -3.27007E+03
  5.34666E+02 -2.07655E+03 -7.59807E+01  1.74523E+03  1.99027E+03  1.08082E+03 -3.91088E+03  4.13832E+03
  4.25311E+03  2.66194E+03 -9.94938E+02  2.91585E+03 -9.91115E+03  1.23386E+03  2.36576E+03 -2.36456E+02
 -6.65502E+02  4.93972E+02 -3.14291E+03 -3.20349E+03 -2.43054E+02  2.22140E+03 -3.87303E+03 -3.57436E+03
 -1.79120E+03 -1.07781E+02  2.60439E+02 -2.70465E+03 -1.46227E+03 -6.94970E+02  6.15073E+03 -3.04632E+03
  1.12939E+03  2.45710E+03  2.20170E+03  2.76008E+03 -1.01888E+03 -2.76444E+03 -6.49503E+02  3.93633E+03
