 $NMID ID='MM_0lb_SNR50_16hz_g45_39.RAW', FMTDAT='(8E13.5)'
 TRAMP=1., VOLUME=1. $END
  3.10355E+05  1.56597E+03  3.36445E+05  2.55803E+05  8.12061E+04  3.41708E+05 -1.33574E+05  2.50715E+05
 -1.92337E+05  8.24907E+04 -1.12330E+05 -3.39924E+04 -1.44588E+01 -4.94125E+04  5.54983E+04  2.77362E+02
  3.52121E+04  5.92431E+04 -2.05490E+04  7.99059E+04 -5.98443E+04  6.36552E+04 -8.43933E+04  3.12513E+04
 -8.02133E+04 -1.16299E+04 -5.99517E+04 -5.40721E+04 -1.71946E+04 -6.70819E+04  3.00243E+04 -4.53521E+04
  4.22487E+04  2.46294E+03  1.29939E+04  4.59778E+04 -3.65713E+04  4.84597E+04 -6.42764E+04 -2.12779E+03
 -5.08604E+04 -5.70202E+04 -9.27300E+03 -7.37170E+04  3.25932E+04 -5.47326E+04  4.35099E+04 -1.45301E+04
  3.89845E+04  1.02770E+04  3.47822E+04  2.05693E+04  1.33737E+04  3.16537E+04 -7.44199E+03  2.86072E+04
 -2.34577E+04  1.93496E+04 -2.17980E+04 -2.75265E+03  7.48963E+03 -8.33180E+03  2.19576E+04  9.91351E+03
  9.67504E+03  3.51030E+04 -3.44498E+04  3.44246E+04 -5.99312E+04  4.12037E+03 -6.00891E+04 -4.53940E+04
 -9.35579E+03 -6.14666E+04  4.25582E+04 -4.16635E+04  5.46815E+04 -1.93262E+03  3.01153E+04  3.28386E+04
 -8.87158E+03  3.19187E+04 -2.84589E+04  1.40400E+04 -3.00884E+04 -7.04918E+03 -1.15336E+04 -1.01045E+04
 -6.90308E+03 -9.07287E+03 -1.41526E+03 -1.91658E+04  8.53089E+03 -2.33619E+04  1.24977E+04 -1.11665E+04
  1.34123E+04  5.68896E+03 -7.13640E+03  1.44432E+04 -2.29234E+04 -5.98901E+03 -9.70266E+03 -3.36815E+04
  2.24455E+04 -4.33871E+04  4.37778E+04 -1.41471E+04  4.15642E+04  1.87277E+04  1.74329E+04  4.64756E+04
 -1.67092E+04  3.31957E+04 -2.87481E+04  2.76861E+03 -9.84507E+03 -2.91144E+04  2.14061E+04 -3.27504E+04
  4.27757E+04 -5.81598E+03  3.27715E+04  2.06381E+04  1.37675E+04  4.41247E+04 -1.23873E+04  4.86164E+04
 -3.11563E+04  3.16087E+04 -3.49005E+04  9.02064E+03 -4.09749E+04 -1.99991E+04 -2.84481E+04 -3.67821E+04
  1.01964E+04 -3.56189E+04  2.90895E+04 -1.23224E+04  2.68108E+04  9.56071E+03  8.52886E+03  1.29402E+04
 -1.57223E+04  9.69849E+03 -1.11081E+04 -4.69954E+03  6.86430E+03 -8.24211E+03  1.54140E+04  8.20272E+03
  1.55672E+04  2.86816E+04 -5.55309E+03  2.56479E+04 -2.02665E+04  6.60856E+03 -2.80679E+04 -3.57502E+03
 -1.69482E+04 -1.45896E+04 -8.08421E+03 -2.05725E+04  7.19034E+03 -2.18797E+04  1.51626E+04 -1.98845E+04
  1.96366E+04 -1.34891E+04  3.58418E+04  2.46831E+03  2.31746E+04  1.82425E+04  1.71283E+03  3.19128E+04
 -1.97065E+04  2.54172E+04 -2.53731E+04  6.90978E+03 -2.13934E+04 -7.66730E+03 -7.00287E+03 -1.45103E+04
  1.40787E+03 -6.10593E+03 -3.76634E+03 -2.69843E+02 -1.58612E+04  8.60123E+03 -1.72569E+04 -5.29246E+03
 -7.52289E+03 -1.59900E+04  9.21906E+03 -2.17552E+04  1.64551E+04 -9.64227E+03  1.99179E+04 -5.60024E+03
  1.20966E+04  5.29792E+03 -5.63843E+03  1.42216E+04 -1.24069E+04  9.54291E+03 -1.44926E+04 -7.68004E+03
 -1.05051E+04 -1.24233E+04 -2.26361E+02 -2.31821E+04  5.88847E+03 -1.42979E+04  1.96531E+04 -7.43733E+03
  1.35879E+04  2.70076E+03  1.03685E+04  3.46081E+03  9.61799E+03  3.51358E+03  7.11104E+03 -1.21160E+03
  1.46386E+04  2.25207E+03  1.61553E+04  1.35039E+04  1.05015E+04  3.00482E+04 -3.50380E+03  3.21397E+04
 -1.36520E+04  2.22118E+04 -2.35701E+04  1.57163E+04 -3.00075E+04 -2.11839E+03 -2.76093E+04 -1.38695E+04
 -1.14968E+04 -2.11537E+04  8.75670E+03 -2.37981E+04  1.79628E+04 -1.28555E+04  1.99470E+04  3.60216E+03
  9.07547E+03  1.02316E+04 -1.27825E+04  1.05800E+04 -1.86402E+04  9.60580E+03 -1.39154E+04 -3.54589E+03
  1.46367E+02 -1.40339E+04  1.04400E+04 -1.09037E+04  1.13674E+04  4.04458E+01  2.04965E+03  7.39352E+03
 -8.48270E+03  7.09374E+03 -5.27982E+03 -8.27493E+03 -7.39274E+02 -8.71781E+03  9.47081E+03 -1.36940E+04
  1.59641E+04 -8.04726E+03  1.80190E+04  4.55141E+03  1.03924E+04  1.56402E+04  2.74953E+03  1.34610E+04
 -2.92189E+03  2.07967E+04 -1.39161E+04  1.09335E+04 -1.69973E+04  5.10603E+03 -8.34491E+03 -4.65364E+03
 -4.21085E+03 -3.27998E+02  1.04809E+03 -3.52262E+02 -1.87262E+03 -5.04044E+02 -3.53658E+03  2.18052E+03
 -5.69306E+03  2.34496E+03 -9.50069E+03 -8.89167E+03 -4.38678E+03 -8.20849E+03  3.13376E+03 -7.81647E+03
  5.47767E+03 -4.31967E+03  8.54738E+03  4.51091E+03 -1.10925E+03  6.37353E+03 -5.21259E+03 -2.51150E+03
 -6.72894E+03 -4.83635E+03 -4.16496E+03 -5.35073E+03  5.57951E+03 -7.09089E+03  1.06185E+04 -4.93637E+03
  1.65399E+04  2.11932E+03  9.33237E+03  7.69772E+03 -1.87262E+02  1.39440E+04 -4.61692E+03  1.16047E+04
 -7.84640E+03  2.89969E+03  3.91453E+02  1.29121E+02  1.80564E+03 -2.66341E+03  3.13345E+03 -3.70251E+03
  2.83845E+03  5.02275E+03  1.26417E+03  8.33563E+03 -1.17829E+04  6.87513E+03 -1.26975E+04 -3.37657E+02
 -7.72563E+03 -3.54196E+03 -1.84345E+03 -8.52668E+03  3.92342E+03 -4.24178E+03  5.92068E+03  3.75307E+03
 -1.00486E+03  1.02275E+03 -6.02896E+03  1.01790E+04 -2.91550E+03  4.16638E+03 -5.98197E+03  4.00879E+02
 -4.89921E+03 -7.56143E+03  3.00681E+03 -7.40588E+03  9.86379E+03 -5.13815E+03  8.37809E+03  2.93080E+03
  4.73697E+03  1.01492E+04 -1.47321E+03  8.22064E+03 -6.40388E+03  7.97070E+03 -3.66479E+03 -8.26008E+02
 -5.78433E+03 -6.68029E+03 -5.62520E+01 -6.61962E+03  5.18959E+03 -7.41199E+03  3.41444E+03 -7.20962E+03
  1.35498E+03 -5.82234E+02 -4.59335E+02  3.21684E+03  2.29926E+03 -7.24937E+03 -2.38161E+03  1.58927E+03
  8.28716E+03  1.21362E+03  5.86231E+03  1.51442E+03  3.87035E+03  8.60965E+03  3.65840E+03  7.73572E+03
 -1.38909E+03  1.23886E+04 -1.16660E+04  8.51823E+03 -1.48243E+04  3.72945E+03 -1.09282E+04 -5.93466E+03
 -6.12872E+03 -9.06570E+03 -3.14834E+02 -1.02341E+04  6.15991E+03 -3.06165E+03  3.44529E+03 -1.11322E+03
  3.06536E+03 -2.07639E+03  4.12713E+03 -2.84213E+03  6.39923E+03 -2.56651E+03  4.39906E+03 -1.49534E+03
  4.86327E+03 -2.34251E+03  5.91912E+03  2.64713E+03 -2.62617E+03  3.74852E+03 -3.37373E+03  4.49182E+03
 -8.53306E+03  2.51886E+03 -7.66477E+03 -4.40598E+03 -2.24099E+03 -4.49127E+03  2.49863E+03 -5.74829E+03
  8.62972E+03 -5.07969E+03  3.54267E+03 -2.18089E+03  7.82955E+03  3.04541E+03  8.58174E+02  7.24179E+03
 -4.63694E+03  6.69013E+03 -3.43170E+03 -5.67145E+02 -4.71453E+03 -1.78689E+02 -2.85458E+02  7.04065E+02
 -1.34086E+02  4.94779E+02 -3.74167E+02  4.05368E+03 -1.77028E+03  1.17702E+03 -3.89414E+03 -3.02199E+03
 -2.27579E+03 -5.57714E+03  1.01087E+03 -8.76400E+03  1.18558E+03 -4.74308E+03  4.58798E+03 -1.95856E+03
  7.28778E+03  1.70354E+03 -1.86454E+03 -4.08482E+02 -2.86108E+03  9.15088E+03 -1.98321E+03  1.25707E+02
 -7.46881E+03  2.20760E+03 -5.33706E+03 -3.09021E+03 -6.44314E+02 -6.44688E+03  5.55191E+03 -6.00278E+03
  1.79413E+03  2.50698E+03  6.15816E+02 -8.86304E+02  6.58381E+02  5.30439E+03  1.36918E+02  2.72926E+02
  1.49059E+03  7.85958E+02 -4.42773E+02  3.86465E+03  3.53943E+03 -2.49608E+03  2.78739E+03  3.92203E+03
 -2.37963E+03  3.14035E+03 -9.96838E+02  3.16523E+03 -5.75213E+03  8.12377E+03 -6.49405E+03  8.09781E+02
 -7.22394E+02 -6.11521E+03  1.88969E+03 -4.08803E+03  3.01929E+02 -5.65203E+03  7.38214E+03 -9.35195E+02
  3.20908E+03  7.80841E+02  6.20389E+02  5.40723E+03  2.06776E+03  6.55133E+03 -2.93837E+03 -1.04356E+03
 -1.17075E+03 -1.54873E+03  1.85359E+03 -1.17392E+03 -3.48008E+02  6.06097E+02  3.64382E+03 -1.27472E+03
 -1.67208E+03  1.15946E+03  2.47401E+03 -1.46039E+03  9.70516E+02  2.22401E+03  3.26292E+03  5.21562E+02
 -2.67050E+02 -2.92230E+03 -1.80306E+03 -6.31839E+02 -1.86214E+03  2.46480E+03  5.88023E+03  2.72616E+03
 -2.95012E+02  2.77937E+03 -5.09484E+03 -2.11118E+03 -6.34547E+03 -7.34064E+02 -2.59732E+03 -2.44784E+03
  1.39242E+03 -2.30218E+02  2.00220E+03 -2.84575E+03 -1.78844E+03  1.07328E+03 -3.82226E+03  1.55815E+03
 -3.73192E+03  5.93957E+03 -1.18439E+03 -3.99957E+03  2.18852E+02 -1.47563E+03  3.95108E+03 -3.46348E+03
 -3.21408E+02  1.70395E+03  6.55386E+02 -4.94056E+03  2.54681E+03 -7.16665E+02  3.33727E+03  1.55044E+03
  3.68601E+00  4.33612E+02 -1.73265E+03  3.53606E+02  1.70950E+03  1.18317E+03  7.36173E+02 -2.13446E+03
 -3.01533E+03 -4.78377E+02  5.86578E+03 -7.34118E+02 -1.70968E+03 -3.29373E+03 -3.85497E+03  1.87508E+03
 -1.77759E+02  2.19824E+03 -7.12501E+02  1.32192E+03 -3.07215E+03 -3.51171E+03 -1.68414E+03 -1.52162E+03
  4.45184E+03  6.97860E+03  2.37995E+03  2.94186E+02  1.99560E+03 -5.17392E+02 -1.35742E+03  3.42080E+03
 -1.11653E+03  3.54649E+03  3.96100E+02 -2.03663E+03  1.54562E+03 -3.03952E+03  6.87446E+02  1.18180E+03
 -1.52714E+03 -9.81182E+02  1.06832E+03  2.93169E+03  2.55061E+03  5.39553E+03 -5.17816E+03 -3.54817E+03
 -1.12838E+03 -6.58362E+03 -2.63152E+03 -6.32777E+03 -7.09752E+02 -4.63264E+03  7.13675E+03 -3.15342E+03
  6.76480E+03  5.04249E+03  1.69936E+03  2.75968E+02  1.01551E+03 -1.16597E+03 -4.30763E+03  4.97019E+03
 -4.39653E+03  1.15430E+03  8.00694E+02  4.62133E+03 -1.54406E+03  2.46711E+03 -2.57498E+01 -5.00059E+03
  2.06481E+03  1.21311E+03 -4.01655E+03 -1.38579E+03 -1.07531E+03 -3.94584E+03 -1.63172E+02 -6.74427E+02
  4.92627E+03 -3.73166E+03 -3.13264E+02  2.26442E+02  1.83974E+03 -4.51620E+02  4.91578E+03  1.91399E+03
 -3.04507E+03  3.03751E+03 -3.55111E+03  3.06788E+03 -6.23653E+03  1.00818E+03 -4.78691E+03 -2.32072E+03
 -6.33879E+02 -7.95431E+02  2.92951E+03 -2.38057E+03 -2.11215E+03 -1.96183E+03  3.79321E+03 -3.09456E+03
  4.66309E+03  2.63155E+03  2.35133E+03 -7.16947E+03 -2.38519E+03  5.07990E+03  8.70580E+02  2.84898E+03
  1.00144E+03  7.62038E+02  1.35226E+03 -4.18905E+03  3.21975E+03 -4.25063E+03  3.07137E+03  3.76843E+03
 -5.01017E+01  3.21678E+03 -2.79343E+03 -1.97366E+03 -3.15056E+03 -6.52885E+02 -3.82817E+01 -3.09639E+03
  2.05640E+03 -2.11293E+03  2.35660E+03  1.06651E+03  4.82998E+03 -1.27423E+03  1.80939E+03  2.29850E+03
  1.57113E+02  9.42531E+02 -2.22816E+02  1.53576E+03 -4.57251E+03  3.28464E+03 -1.05547E+01  5.85582E+03
 -1.40207E+02  3.85365E+03 -5.00906E+03  1.73103E+03  4.64882E+02  1.06948E+03 -4.24150E+03  1.59792E+03
  6.47470E+01 -2.95875E+03  9.88840E+02 -2.99640E+03  4.21134E+03  4.87738E+03  1.01563E+03  1.34679E+03
  7.48977E+02 -2.25658E+03 -1.40855E+03  4.90568E+02 -1.78617E+03  4.86282E+03 -1.37815E+03 -2.64899E+03
