 $NMID ID='MM_0lb_SNR50_20hz_g45_66.RAW', FMTDAT='(8E13.5)'
 TRAMP=1., VOLUME=1. $END
  3.09408E+05 -3.76337E+02  3.36970E+05  2.51888E+05  8.37261E+04  3.33898E+05 -1.30524E+05  2.47738E+05
 -1.89257E+05  8.28075E+04 -1.09363E+05 -3.00965E+04  8.22262E+01 -4.86028E+04  5.46988E+04 -1.42070E+02
  3.56181E+04  4.87147E+04 -1.57021E+04  7.57758E+04 -6.02710E+04  6.08593E+04 -7.90513E+04  3.14489E+04
 -8.21329E+04 -7.61130E+03 -5.45127E+04 -4.89446E+04 -1.54837E+04 -6.91410E+04  2.72333E+04 -4.66044E+04
  4.15313E+04  2.00731E+03  1.32523E+04  4.13611E+04 -3.30895E+04  4.44534E+04 -6.70862E+04 -1.68567E+03
 -5.39224E+04 -5.32056E+04 -6.94033E+03 -7.30168E+04  3.29683E+04 -5.63171E+04  4.32990E+04 -1.59744E+04
  4.33490E+04  1.00002E+04  2.99173E+04  2.32827E+04  1.87225E+04  2.47140E+04 -4.18427E+03  2.87914E+04
 -2.23723E+04  1.05297E+04 -1.79295E+04 -4.22942E+03  4.25317E+03 -7.69478E+03  2.32308E+04  9.49903E+03
  6.23707E+03  3.11996E+04 -3.21177E+04  3.25269E+04 -5.98043E+04  3.99550E+03 -5.44704E+04 -3.70927E+04
 -1.12057E+04 -6.00951E+04  3.88979E+04 -4.26993E+04  5.51069E+04 -5.23618E+03  3.27865E+04  3.17475E+04
 -8.33815E+03  3.15660E+04 -2.84940E+04  1.58594E+04 -2.90399E+04 -8.11805E+03 -1.26942E+04 -1.25387E+04
 -6.46677E+03 -8.46992E+03 -2.83196E+02 -1.33985E+04  3.59197E+03 -2.21870E+04  1.23485E+04 -1.50160E+04
  9.94962E+03  2.30637E+03 -5.39487E+03  1.40094E+04 -1.63151E+04 -4.48578E+02 -7.50913E+03 -2.87038E+04
  1.64851E+04 -3.98907E+04  4.53093E+04 -1.76796E+04  3.87669E+04  1.91630E+04  1.47446E+04  4.33921E+04
 -1.65239E+04  2.87722E+04 -2.61113E+04  3.22196E+03 -1.05889E+04 -2.22416E+04  1.75814E+04 -2.75198E+04
  3.87509E+04 -9.77661E+03  3.00519E+04  2.38309E+04  1.73268E+04  4.10526E+04 -8.34694E+03  4.19982E+04
 -2.50911E+04  2.96883E+04 -3.68616E+04  6.72992E+03 -3.66201E+04 -1.43563E+04 -2.05660E+04 -3.21119E+04
  4.96784E+03 -3.49252E+04  2.54738E+04 -9.86661E+03  2.30871E+04  8.95006E+03  8.74826E+02  1.91498E+04
 -1.23261E+04  6.05808E+03 -7.84382E+03 -6.40574E+03  5.08801E+03 -7.02046E+03  1.82483E+04  9.13689E+03
  1.69241E+04  1.82828E+04 -9.06331E+03  2.48369E+04 -2.02476E+04  1.34997E+04 -2.42147E+04 -3.71539E+03
 -1.89445E+04 -1.31861E+04 -3.23529E+03 -1.30942E+04  5.50193E+03 -1.14176E+04  1.09872E+04 -1.45122E+04
  2.08303E+04 -1.44348E+04  2.74968E+04  3.59630E+03  2.37144E+04  1.53149E+04  4.60061E+03  2.67675E+04
 -1.34749E+04  2.35774E+04 -2.67889E+04  1.22616E+04 -2.26791E+04 -1.15980E+04 -5.42602E+03 -1.45036E+04
  7.09691E+02 -6.04518E+03 -7.16262E+03  4.78975E+03 -1.11024E+04  8.71045E+03 -1.02186E+04 -4.96275E+03
 -5.94373E+03 -1.08084E+04  3.84608E+03 -1.86940E+04  1.37955E+04 -1.09797E+04  1.45601E+04 -9.90613E+02
  7.53425E+03  1.31687E+04 -4.00815E+02  1.48743E+04 -7.68441E+03  9.52895E+03 -1.48950E+04 -4.56798E+03
 -1.36891E+04 -1.34636E+04 -7.49302E+02 -1.83187E+04  9.14821E+03 -1.34401E+04  1.87447E+04 -1.29637E+04
  1.13414E+04 -2.98880E+03  7.16776E+03  3.47323E+03  3.55517E+03 -1.19395E+03  6.92277E+03  6.75213E+02
  1.16595E+04  3.72584E+03  1.31629E+04  1.32842E+04  9.60239E+03  1.90266E+04 -1.08448E+03  1.92035E+04
 -1.38592E+04  1.89739E+04 -2.42156E+04  7.30820E+03 -2.32694E+04  3.43827E+02 -1.80041E+04 -1.07214E+04
 -1.22070E+04 -1.50100E+04  8.70138E+03 -1.63464E+04  1.89408E+04 -1.02440E+04  1.50051E+04  2.83814E+03
  5.21079E+03  1.00955E+04 -6.25625E+03  9.47565E+03 -1.50131E+04  1.36088E+02 -9.15030E+03 -5.51589E+03
  2.06004E+02 -1.08483E+04  7.66002E+03 -9.80170E+03  7.33849E+03  2.32823E+03 -3.08548E+03  4.61050E+03
 -1.52340E+03  1.20315E+03 -3.48789E+03 -3.71902E+02 -3.69110E+03 -1.01162E+04  7.22724E+03 -9.26287E+03
  1.37274E+04 -4.68995E+03  1.02909E+04  2.22030E+03  1.10361E+04  7.74388E+03  2.18565E+03  1.23799E+04
  1.68513E+03  1.88705E+04 -7.46312E+03  8.53204E+03 -1.25947E+04  6.48217E+03 -6.05693E+03 -5.23035E+03
 -5.36695E+03 -8.73377E+02 -2.26293E+03  4.40717E+03 -1.90888E+03  9.17554E+02 -4.34369E+03  2.39373E+03
 -9.42298E+03 -4.56846E+02 -1.02090E+04 -7.50612E+03 -1.27358E+03 -1.02392E+04  5.22445E+03 -5.83758E+03
  3.99174E+03 -7.56787E+03  3.76231E+03  6.85601E+02 -1.27178E+03  2.02107E+03 -3.66754E+03 -4.80618E+02
 -2.26243E+03 -4.68896E+03 -6.59281E+02 -2.35379E+03  5.03182E+03 -2.84326E+03  9.26526E+03 -6.69640E+03
  1.28984E+04  3.32695E+03  7.79404E+03  5.33752E+03  6.53282E+02  5.02120E+03 -2.82355E+03  8.25588E+03
 -9.77692E+03 -2.17012E+03 -5.58795E+03 -7.12225E+02 -1.08097E+02 -3.16651E+03  3.68297E+03  2.02304E+03
  4.36603E+03  5.05693E+03  2.87144E+02  6.73817E+03 -3.84243E+03  4.95030E+03 -6.74389E+03  5.48209E+02
 -1.53043E+03 -4.85799E+03  1.01696E+02 -8.42826E+03  7.51501E+03 -4.01127E+03  5.24977E+03 -1.46366E+03
 -4.42500E+03 -7.36751E+02 -3.46145E+03  6.44502E+03 -4.84917E+03  1.57953E+03 -1.80248E+03 -4.42980E+03
  1.38888E+03 -7.09502E+03  4.30716E+03 -4.52984E+03  2.85393E+03 -1.63719E+03  9.04165E+03 -7.90081E+03
  2.91055E+03  4.68618E+03 -1.52800E+02  5.51221E+03  1.12744E+03 -1.76604E+02 -6.60350E+03  3.38581E+03
 -9.11758E+03 -5.36823E+03 -5.97698E+02 -5.04732E+03  1.58860E+02 -1.13125E+03  4.37457E+03 -2.33600E+03
  5.43354E+02 -2.42607E+03  1.85957E+03 -1.41905E+03 -1.73898E+03 -2.94486E+03  4.75416E+02 -2.97274E+03
  2.74177E+03  2.71156E+03  2.17140E+03 -3.62882E+03  2.63727E+03  2.86190E+03  6.65597E+03  4.15050E+03
 -1.21926E+03  3.31470E+03 -5.68444E+03  6.24014E+03 -1.23202E+04  7.05070E+02 -7.65025E+03 -1.58504E+02
 -6.42880E+03 -6.41663E+03 -1.45454E+03 -4.21391E+03  1.37406E+03 -5.67294E+03  4.11488E+03  1.15801E+03
  3.67930E+03 -2.27166E+03  1.79729E+03 -2.04820E+02  4.38505E+03 -3.93893E+03  6.19441E+03  3.45911E+03
  4.89472E+03  4.28302E+02 -3.78158E+03  8.57226E+02 -3.88840E+03 -2.96777E+03 -1.57394E+03 -1.58611E+03
 -1.55029E+03 -4.47658E+02 -3.52831E+03 -2.26065E+02  2.55226E+03 -1.70092E+03 -1.50260E+03 -2.74669E+03
  7.89317E+02 -2.05664E+03  2.57744E+03 -3.58245E+03  8.66566E+03  1.63761E+03 -1.16715E+03  2.43401E+03
 -1.42701E+03  4.48731E+03  9.31272E+02  1.38301E+03  2.28244E+02 -1.25323E+03  2.24072E+03 -1.81652E+03
 -2.40155E+03 -1.95273E+02  1.20651E+02  3.58219E+02 -5.14708E+03  1.41711E+01 -2.80847E+03  1.00984E+03
 -8.65638E+01 -2.40142E+03 -1.85077E+02 -2.12025E+03  4.96055E+03 -7.73150E+02  1.03336E+03  2.10362E+03
  6.98162E+03 -1.36775E+03  3.96411E+02  1.93137E+03  7.80219E+02  5.57376E+03 -3.03383E+03  2.84881E+03
  4.70914E+02 -3.90030E+03 -4.11423E+03 -1.39962E+03 -2.05656E+03 -3.16900E+03 -7.81068E+02 -5.78957E+02
  4.49699E+03  2.65997E+03  4.63069E+03 -1.61044E+03 -5.12712E+03 -4.92421E+03  7.74426E+02 -1.20041E+03
 -2.58030E+03  2.56802E+03 -5.97606E+03  2.11587E+03 -4.08444E+02  1.80145E+03  4.01152E+02  2.89350E+03
  3.35641E+03  6.10119E+03 -1.79280E+03  1.13832E+03 -5.04000E+03  7.39126E+02 -4.85680E+03 -1.41484E+03
 -3.65505E+03 -4.81245E+03 -7.54310E+02 -4.27448E+03  6.52488E+02 -1.69589E+03  3.73770E+01 -7.65214E+02
  1.96804E+03  4.60816E+02 -1.25751E+03 -4.72133E+02  7.21369E+02 -1.76577E+03 -7.74285E+02 -1.54535E+03
 -1.19003E+03  1.44982E+03  2.32459E+03  1.29612E+03  5.47771E+02  2.94427E+02  5.11203E+03 -1.02741E+03
  5.04406E+03  1.93549E+03 -1.97027E+03  1.89864E+02 -9.23923E+02  2.46410E+03  1.19954E+03 -3.48729E+02
  2.34392E+03 -2.24945E+03  4.26602E+03  1.86463E+03  2.53511E+03  2.89213E+03 -1.63887E+03  2.09488E+03
 -1.41236E+03  3.60929E+03  1.51217E+03  2.92415E+03  5.24555E+02 -1.57422E+03 -3.51948E+03 -2.64938E+03
 -1.71171E+03 -2.96064E+03  6.43388E+02 -3.38513E+03 -2.62193E+03  2.29463E+03 -4.40624E+03 -2.95492E+02
 -3.83866E+03  6.24956E+02 -1.28805E+03  3.03083E+03 -2.60966E+03 -4.18258E+03  1.91565E+03  1.09006E+03
 -1.11380E+03  4.76708E+01 -5.77299E+02 -1.53716E+03  2.59300E+03  4.18328E+03  4.19676E+03  2.01368E+03
 -6.39581E+02 -1.64310E+03  1.47596E+03 -1.03669E+03 -9.30324E+02 -4.77634E+02  2.37478E+03 -3.71093E+03
 -4.51215E+02  4.01518E+03  5.53630E+03  5.62530E+02  4.91028E+03  1.37809E+03 -1.39045E+03  4.08129E+03
 -3.60545E+03  1.02399E+03  4.22722E+01  1.26290E+03 -1.40837E+03 -2.76891E+03  1.97791E+03 -1.93913E+03
  5.08883E+03 -1.19791E+03  2.70644E+03  2.03359E+03 -1.67081E+00  1.56882E+03 -1.19935E+03 -1.08849E+03
  3.35052E+03 -4.26321E+01  2.62055E+03  1.15260E+02  1.80888E+03  2.36338E+03  2.11028E+03  3.51165E+03
  2.05964E+03  1.32807E+03 -4.64335E+03  1.48313E+03 -1.08355E+03  1.03674E+03 -3.81206E+03 -2.62287E+03
 -2.28597E+03 -2.41972E+02 -1.28095E+03 -4.14061E+03  3.03960E+03 -3.05177E+03  3.01921E+03 -2.58293E+03
  1.61106E+03  5.08423E+02 -2.31250E+03 -2.12842E+03 -2.22058E+03  1.66643E+03  5.16098E+02  4.99322E+02
 -3.40798E+03  3.31879E+03  1.33611E+03  2.50953E+03  1.85919E+02 -1.83448E+03  1.31888E+03  3.22461E+03
  3.29746E+03  2.19139E+03  3.75112E+03 -2.00909E+03 -9.87856E+02 -7.01435E+03  2.17062E+03 -3.58300E+02
 -3.72398E+03  1.71838E+03 -9.46171E+02  1.90978E+03  4.20540E+03 -3.85653E+01  2.14816E+02 -1.86771E+03
 -4.57934E+02  1.42120E+02 -2.85232E+03  7.64120E+02  9.12809E+02 -2.90785E+03  3.32445E+02 -4.17970E+03
 -1.17965E+03 -2.36342E+03  2.10994E+03 -2.20909E+03 -1.33370E+03 -5.91098E+02  2.31792E+03 -1.31074E+02
  1.72658E+02 -1.45889E+03  2.32176E+03  1.17623E+03 -4.85169E+02 -2.23729E+03  7.65397E+02  1.58988E+03
 -5.51650E+02  8.57840E+02 -3.41601E+03  7.38905E+02 -2.41700E+03  1.20025E+03  2.41306E+03  8.40944E+02
 -1.14621E+03 -1.22298E+03 -3.48380E+03 -3.40014E+03 -4.27906E+00 -1.11382E+03 -4.38774E+03  8.97565E+02
 -1.67044E+03  1.66914E+03 -2.25207E+01  4.26026E+01 -1.07924E+03  1.85872E+03  1.38268E+03  2.88523E+03
 -1.09783E+03 -2.40977E+03 -3.38391E+03  9.96653E+02  1.15748E+03  9.60876E+02 -1.68193E+03  1.22354E+03
 -1.26206E+03  1.65023E+03  5.55035E+02  1.74435E+03 -5.03023E+02 -2.33322E+03 -1.79558E+03 -1.40025E+03
 -1.70397E+03 -2.56322E+03  2.22420E+02 -3.49484E+03 -3.27176E+02 -2.16580E+03  5.91636E+02 -2.00896E+03
 -2.95565E+03  5.68905E+03 -2.08860E+03 -2.03144E+02  5.09004E+02  3.99842E+02  1.59741E+03 -2.88676E+02
