 $NMID ID='MM_0lb_SNR50_14hz_g50_30.RAW', FMTDAT='(8E13.5)'
 TRAMP=1., VOLUME=1. $END
  3.06838E+05 -3.03449E+03  3.34228E+05  2.51529E+05  8.01912E+04  3.36228E+05 -1.28533E+05  2.47481E+05
 -1.91499E+05  8.19488E+04 -1.13003E+05 -3.39067E+04  2.32429E+03 -4.77796E+04  4.82553E+04 -2.48647E+03
  3.80740E+04  5.33639E+04 -1.04070E+04  7.80056E+04 -6.15836E+04  6.20364E+04 -8.35325E+04  3.00227E+04
 -8.21287E+04 -1.02658E+04 -5.52874E+04 -5.14112E+04 -1.41728E+04 -6.36967E+04  2.58817E+04 -5.19797E+04
  3.53401E+04  9.40609E+03  1.30455E+04  4.96029E+04 -3.47880E+04  4.72033E+04 -6.68836E+04  1.29440E+03
 -5.62814E+04 -5.60884E+04 -6.72726E+03 -7.25660E+04  3.07738E+04 -5.71406E+04  4.80331E+04 -2.23879E+04
  4.47763E+04  1.37636E+04  3.13885E+04  2.48598E+04  1.24030E+04  2.35299E+04 -3.83261E+03  2.77285E+04
 -2.24568E+04  1.59482E+04 -1.40951E+04 -1.74888E+03  5.69572E+03 -6.32391E+03  1.78440E+04  1.15003E+04
  5.32358E+03  3.16692E+04 -2.98821E+04  3.67921E+04 -5.84812E+04  3.74598E+03 -5.62699E+04 -4.94405E+04
 -1.27423E+04 -5.80038E+04  4.34612E+04 -4.72646E+04  5.29154E+04 -2.96105E+03  3.02078E+04  2.94405E+04
 -4.65637E+03  3.74270E+04 -2.69522E+04  1.12119E+04 -3.00341E+04  2.35457E+03 -1.43264E+04 -8.52428E+03
 -6.22420E+03 -1.03448E+04  2.59242E+03 -2.37324E+04  8.79238E+03 -2.34114E+04  1.37095E+04 -1.28661E+04
  1.03392E+04  2.44009E+03 -1.13798E+04  1.23822E+04 -2.60954E+04 -5.06085E+03 -9.47132E+03 -3.70318E+04
  2.77662E+04 -3.85469E+04  4.50810E+04 -1.78297E+04  4.46105E+04  1.78144E+04  1.77367E+04  4.15598E+04
 -1.60370E+04  3.63562E+04 -2.56195E+04 -9.50476E+02 -6.30836E+03 -2.56657E+04  2.15146E+04 -3.33534E+04
  4.30874E+04 -8.83944E+03  3.91125E+04  2.27768E+04  2.02996E+04  4.07683E+04 -8.81724E+03  4.97930E+04
 -3.01013E+04  3.51372E+04 -4.18703E+04  8.36873E+03 -3.80620E+04 -1.53599E+04 -2.72662E+04 -3.42542E+04
  1.27578E+03 -4.10543E+04  3.45874E+04 -1.46524E+04  2.88188E+04  1.10237E+04 -3.33226E+02  2.17880E+04
 -1.51685E+04  1.10083E+04 -9.90887E+03 -1.17605E+04  5.52744E+03 -1.09180E+04  1.76467E+04  1.88712E+03
  1.47206E+04  2.33340E+04 -4.03226E+03  2.44929E+04 -1.79110E+04  1.54657E+04 -2.63949E+04 -7.45585E+03
 -1.98273E+04 -1.48044E+04 -7.88692E+03 -2.24763E+04  3.47107E+03 -2.27951E+04  1.80449E+04 -2.02197E+04
  2.53448E+04 -1.00394E+04  3.16740E+04  6.26259E+02  2.43186E+04  1.52211E+04 -7.87729E+02  3.48506E+04
 -1.86145E+04  3.23771E+04 -2.54534E+04  1.22156E+04 -2.40533E+04 -1.73898E+04 -4.71932E+03 -1.83982E+04
 -2.07328E+02 -2.60888E+02 -6.42819E+03  3.19533E+03 -1.70784E+04  7.62084E+03 -1.68211E+04 -5.97202E+03
 -1.63136E+04 -1.93867E+04  4.16438E+03 -1.90216E+04  1.30015E+04 -1.42311E+04  1.81595E+04 -5.64757E+03
  7.11609E+03  1.53186E+04 -1.72317E+03  1.89932E+04 -1.62685E+04  1.12234E+04 -1.89726E+04 -1.64645E+03
 -1.81885E+04 -1.94804E+04 -3.98285E+03 -2.37246E+04  8.99365E+03 -1.78408E+04  2.22958E+04 -1.43721E+04
  2.07896E+04  3.12739E+03  1.27778E+04  4.46785E+03  8.11500E+03  2.30035E+03  8.77270E+03 -1.71803E+03
  1.33114E+04  1.92737E+03  2.02148E+04  1.63818E+04  1.23772E+04  2.80491E+04 -1.38344E+03  3.35293E+04
 -1.64378E+04  2.53089E+04 -3.25876E+04  1.24163E+04 -3.08200E+04 -6.93308E+02 -2.60152E+04 -2.14541E+04
 -9.80450E+03 -2.90999E+04  4.33127E+03 -2.36909E+04  2.40589E+04 -1.29571E+04  1.95376E+04  1.20409E+04
  9.00225E+03  1.18405E+04 -8.69730E+03  1.23806E+04 -1.74359E+04  5.99901E+03 -1.03045E+04 -8.36668E+03
 -5.24508E+03 -2.16855E+04  9.50211E+03 -8.53782E+03  1.23631E+04  3.46102E+02  6.14569E+03  1.20912E+04
 -5.58768E+03  2.13356E+03 -5.58631E+03 -6.29391E+03 -1.76988E+03 -1.40216E+04  9.93787E+03 -1.49001E+04
  1.20708E+04 -1.89315E+03  2.14268E+04  5.92370E+03  1.48209E+04  1.44752E+04  7.01126E+03  2.16171E+04
 -7.20700E+03  2.35139E+04 -1.62619E+04  1.24102E+04 -1.78921E+04  7.16344E+03 -1.20117E+04 -3.27895E+03
 -6.63518E+03 -5.56791E+02 -2.69618E+03  2.32640E+03 -1.82219E+03  2.70474E+03 -4.80349E+03  9.32026E+03
 -1.07693E+04 -3.48278E+03 -7.82570E+03 -6.22808E+03 -2.54341E+03 -1.82610E+04  7.30673E+03 -1.10063E+04
  1.01134E+04 -5.16728E+03  9.86617E+03  7.11971E+03 -3.34133E+03  5.50200E+03 -5.50865E+03 -1.66590E+03
 -4.08328E+03 -8.65403E+03 -2.85175E+03 -7.81719E+03  3.11475E+03 -1.51232E+04  1.50781E+04 -7.20463E+03
  2.14728E+04  1.25087E+03  1.53880E+04  1.10970E+04 -1.36474E+03  1.13175E+04 -1.50117E+03  1.43020E+04
 -1.07399E+04  3.73952E+03 -8.22931E+03 -5.04616E+03 -5.19442E+02 -5.19032E+03  5.08734E+03  3.41973E+03
  9.26596E+03  9.23379E+03 -1.89276E+03  1.04498E+04 -7.26820E+03  7.78934E+03 -1.48957E+04  2.06159E+03
 -9.21792E+03 -3.99691E+03 -2.16380E+03 -1.01984E+04  7.33305E+03 -2.19596E+03  1.10412E+04  5.12871E+03
  1.60434E+03  9.32677E+03 -4.57467E+03  9.49869E+03 -4.37650E+03  1.02349E+04 -8.88001E+03 -1.00928E+03
 -4.38041E+03 -1.11831E+04  8.30154E+03 -1.37627E+04  1.06086E+04 -6.58814E+03  1.13258E+04  2.88131E+03
  4.76792E+03  1.15569E+04  1.61033E+03  8.05725E+03 -2.79690E+03  7.04053E+03 -7.63333E+03 -4.69433E+03
 -7.12691E+03 -9.42255E+03 -3.37277E+03 -1.25741E+04  7.11134E+03 -8.79598E+03  3.10730E+03  4.23815E+03
  3.95812E+03 -1.87195E+03 -2.58476E+03 -2.40114E+03  9.15998E+02 -6.33721E+03 -3.83489E+02 -6.80805E+03
  2.82557E+03  1.44751E+03  8.37915E+03 -9.96887E+02  1.53097E+04  8.44761E+03  9.90796E+03  1.59400E+04
 -2.43815E+03  1.12738E+04 -1.00954E+04  1.03876E+04 -1.54886E+04  1.56633E+03 -7.14301E+03 -1.59797E+03
 -1.17302E+04 -9.77411E+03 -8.75342E+03 -6.41561E+03 -8.82464E+02 -3.95768E+03  9.37909E+03 -3.95505E+03
  4.63323E+02 -4.63306E+03  6.86158E+03 -5.42188E+03  4.72823E+03 -1.69773E+03  1.84105E+03  4.74540E+03
  3.95198E+03 -3.50519E+03  2.68144E+03  8.49381E+03  4.10517E+03  9.04231E+03 -1.07447E+04  5.80115E+03
 -4.13497E+03  1.53771E+03 -2.17263E+02 -5.30808E+03  6.04671E+02 -1.07272E+04  2.18045E+03 -1.10315E+04
  1.14602E+04 -2.12259E+03  1.16654E+04  2.18165E+02  8.66107E+03  7.62393E+03 -4.61887E+02  9.68644E+03
 -1.06884E+04  8.41124E+03 -4.30458E+03  6.70622E+03 -2.72247E+03  2.92008E+03  2.98843E+03  8.78791E+03
  7.79193E+02  1.84819E+03 -1.66483E+03  4.70217E+03 -1.20837E+02 -1.36093E+03 -7.81420E+03 -4.76566E+00
 -7.99580E+02 -6.68076E+03 -3.56735E+02 -4.71048E+03  1.66518E+03 -3.51659E+03  6.49487E+03 -4.26666E+02
  7.83349E+03  5.05348E+03  2.84383E+03  6.71502E+03 -2.46810E+03  4.26982E+03 -5.68377E+03  4.08041E+03
 -6.40194E+03  1.27553E+03 -6.82672E+03 -5.31322E+03 -5.40129E+03 -4.81187E+03  4.83818E+02 -3.82102E+03
  4.13837E+03 -8.07328E+03  5.80420E+03  2.35230E+03  3.82829E+03  7.82650E+03  2.91286E+03  3.81879E+03
  5.52973E+03 -3.40291E+03  6.60102E+02  3.49086E+02  7.77304E+02  1.52656E+03  7.81224E+02  3.23983E+03
 -3.90131E+03  8.59456E+03 -8.68741E+03  6.76675E+03 -2.82369E+03  2.28698E+03 -6.93106E+03 -2.14116E+03
 -4.33177E+02 -7.85158E+03 -9.21843E+02 -8.28988E+03  5.13813E+03 -4.10864E+03  5.92980E+03 -1.56825E+02
  3.27064E+03  5.37904E+03  1.21378E+03  3.91223E+03 -5.22177E+03  8.70960E+02 -2.64829E+03  6.18371E+01
 -4.39628E+03 -6.39996E+03 -1.12169E+03 -7.39151E+03 -1.28154E+03 -2.40123E+03 -1.56958E+03  1.24097E+03
  1.64733E+03  1.89882E+03  3.74658E+03  5.60095E+03  3.15755E+01  7.24350E+03  4.31835E+03  7.24085E+01
 -2.25315E+03 -4.70703E+03  5.39595E+03 -1.10081E+02 -5.96767E+02  5.69354E+03  1.25292E+03  6.29907E+03
 -3.47953E+03  9.46396E+02 -2.45718E+03  7.74423E+03 -2.44665E+03 -2.97399E+03 -6.93466E+03 -6.41303E+03
 -4.97101E+02 -5.39978E+03  4.30421E+03 -2.09981E+03 -1.05586E+03  9.98430E+02 -2.64853E+03 -5.07666E+00
 -1.72454E+03 -1.33952E+03 -3.58376E+03 -2.30420E+03 -9.64756E+02  9.34900E+02  9.56078E+02 -3.75866E+03
  4.24372E+03  9.84238E+02 -2.27075E+03 -1.23221E+03 -7.89574E+02 -3.31058E+03 -1.00643E+03  1.65320E+03
 -1.13733E+03 -5.18163E+03 -6.31877E+03 -7.38589E+02 -6.84838E+02 -3.46884E+03  4.01528E+03  3.76351E+02
  6.88003E+03  9.44971E+02  1.59359E+03  3.44673E+03 -7.34566E+02 -1.14800E+03  2.38909E+03  8.57949E+02
 -5.70423E+02  5.03997E+03 -3.46041E+03 -5.53619E+03 -3.36197E+03 -6.97281E+03  2.94217E+02  9.92733E+02
  1.68266E+03 -5.74068E+03  7.23104E+03 -6.85549E+02 -2.66346E+03  3.52307E+03 -4.54859E+02  2.35515E+02
 -5.27378E+03  9.66560E+02 -4.84793E+02 -1.50430E+03 -8.20749E+02  3.47388E+01  3.36762E+02  1.32179E+03
 -1.28594E+03 -5.09943E+02 -7.24408E+02  6.53804E+02 -3.47414E+03 -1.32223E+03 -8.63864E+03  8.82841E+02
 -1.31492E+03 -5.00718E+03  1.99328E+03 -6.09392E+03  9.40954E+02 -4.82356E+03  6.36240E+03 -3.55532E+03
  6.40634E+03  5.39388E+03  5.29044E+03  3.63730E+03 -6.04853E+02  4.57422E+03 -2.91712E+03 -4.04905E+02
  3.66646E+03 -3.73122E+03 -1.15529E+03 -1.46116E+03 -3.84274E+01 -2.88406E+03 -2.05006E+03 -7.97690E+02
 -1.83275E+02 -1.89817E+03 -3.78170E+03  1.16861E+03  3.22186E+03  5.25373E+03  1.99991E+03  2.65704E+01
  1.84627E+03 -5.07975E+03  1.27971E+02 -1.41997E+03  2.51531E+03 -8.03072E+02 -3.44857E+03  3.13161E+03
 -3.96732E+03  7.99175E+03 -3.69044E+03  3.83470E+02 -5.03400E+03  1.84628E+03 -3.89740E+03 -5.48297E+03
 -5.17116E+02 -7.82964E+03  3.25049E-01 -1.77943E+03  3.29179E+03  2.03621E+03  3.98069E+02 -1.50736E+02
  5.00105E+03  3.24067E+03  6.28041E+03  1.98837E+03 -3.56435E+03 -1.19973E+03  5.11605E+03 -7.36041E+03
  6.57921E+02 -1.19009E+02  2.00966E+03  2.27831E+02  3.13780E+03  1.21008E+03 -3.17065E+03  4.58565E+02
 -4.67557E+03 -5.07779E+02 -5.40560E+03  8.53280E+02 -4.63794E+03 -5.05557E+03 -1.45629E+03 -4.17198E+03
 -2.26550E+03 -8.68200E+02  3.36759E+03  1.59524E+03  4.50227E+03 -2.50386E+03 -1.09214E+03  3.32297E+03
  4.04275E+03  5.70364E+03  2.96232E+02  2.62963E+03  6.95441E+02 -1.71848E+03 -5.97057E+03 -4.71799E+03
 -1.72234E+03 -2.98252E+03  5.79879E+00  3.66716E+03  4.41443E+02  8.13195E+02  2.83079E+03 -2.37708E+03
  1.14890E+03 -7.52826E+02  1.88829E+03 -1.57782E+03  7.60908E+03 -3.59345E+03 -9.66744E+02 -4.98375E+02
  1.93359E+03  1.33976E+03  3.65060E+02  2.30408E+03  1.79207E+03  3.41899E+03 -2.52920E+03  2.86644E+03
