 $NMID ID='MM_0lb_SNR50_13hz_g55_51.RAW', FMTDAT='(8E13.5)'
 TRAMP=1., VOLUME=1. $END
  3.08077E+05  6.81512E+02  3.33887E+05  2.50205E+05  8.28968E+04  3.42640E+05 -1.35248E+05  2.50436E+05
 -1.93507E+05  8.48250E+04 -1.10440E+05 -3.18867E+04  1.24491E+03 -5.14975E+04  5.35297E+04 -6.04462E+02
  3.39228E+04  5.58243E+04 -1.62176E+04  6.74514E+04 -6.24358E+04  5.56083E+04 -8.24628E+04  3.10881E+04
 -8.75002E+04 -1.23624E+04 -5.67769E+04 -4.93520E+04 -1.51614E+04 -7.18308E+04  2.69122E+04 -4.84184E+04
  3.91774E+04  5.13544E+03  1.41353E+04  5.22511E+04 -3.84232E+04  5.07884E+04 -6.35484E+04  1.11773E+03
 -5.41679E+04 -5.54620E+04 -2.69458E+03 -7.20508E+04  3.23568E+04 -4.94286E+04  5.15431E+04 -1.95830E+04
  3.94083E+04  6.85214E+03  3.40477E+04  2.56343E+04  1.53291E+04  2.96964E+04 -8.87030E+03  2.92229E+04
 -2.68185E+04  1.05943E+04 -1.77818E+04 -5.82423E+03  5.86977E+03 -1.23672E+04  1.71825E+04  8.57420E+03
  7.52352E+03  3.90157E+04 -3.16503E+04  3.86323E+04 -6.68063E+04 -3.55961E+03 -5.38189E+04 -4.63659E+04
 -1.67754E+04 -6.58766E+04  4.73439E+04 -4.31254E+04  5.74585E+04 -3.42552E+03  2.93670E+04  2.98047E+04
 -3.85544E+03  3.69837E+04 -3.01527E+04  1.54650E+04 -3.30755E+04 -3.68944E+03 -1.73957E+04 -1.32271E+04
 -8.14221E+03 -1.40169E+04 -4.93949E+01 -1.91577E+04  1.29171E+04 -2.59633E+04  1.72542E+04 -1.79290E+04
  1.03270E+04  1.79936E+03 -8.04727E+03  1.45275E+04 -1.35735E+04 -5.11836E+03 -7.43479E+03 -3.65351E+04
  2.19067E+04 -4.35833E+04  4.71537E+04 -1.88514E+04  4.60226E+04  2.66752E+04  1.48639E+04  4.56321E+04
 -1.84896E+04  3.08768E+04 -3.20878E+04  3.96083E+03 -3.68862E+03 -3.35286E+04  2.25647E+04 -3.53726E+04
  3.72646E+04 -7.81282E+03  3.77371E+04  2.25780E+04  1.87926E+04  5.07825E+04 -1.14604E+04  5.13676E+04
 -3.20056E+04  3.17778E+04 -4.76822E+04  1.29125E+04 -4.15776E+04 -1.79426E+04 -1.89361E+04 -3.57197E+04
  9.35145E+03 -3.80516E+04  2.41680E+04 -1.47558E+04  2.61390E+04  5.42482E+03  1.13808E+04  1.80746E+04
 -9.11085E+03  6.20198E+03 -1.15215E+04 -7.53871E+03  4.89582E+03 -8.27912E+03  1.42802E+04  5.81254E+03
  1.64485E+04  1.96834E+04 -4.85038E+03  2.96596E+04 -2.10168E+04  1.56938E+04 -3.00565E+04  8.38466E+02
 -2.13791E+04 -1.28154E+04 -1.14865E+04 -2.22293E+04  3.93018E+03 -2.33952E+04  1.39031E+04 -2.47426E+04
  2.70326E+04 -1.55425E+04  3.44201E+04  4.71539E+03  2.56918E+04  2.53444E+04  9.66975E+03  3.59752E+04
 -1.61713E+04  3.18643E+04 -2.94362E+04  8.84354E+03 -2.00982E+04 -9.35761E+03 -6.67167E+03 -1.10823E+04
 -2.44637E+03 -2.00336E+03 -5.87507E+03  6.06290E+03 -1.74883E+04  1.08687E+04 -1.81115E+04 -1.03391E+04
 -1.15857E+04 -1.94235E+04  1.87540E+03 -1.82716E+04  1.31819E+04 -1.66748E+04  1.48115E+04  3.23801E+03
  8.94343E+03  5.87619E+03 -6.59681E+03  2.12607E+04 -9.01157E+03  7.52148E+03 -2.17682E+04 -3.81192E+03
 -1.20946E+04 -2.13569E+04  1.89256E+03 -2.20620E+04  1.83154E+04 -1.79350E+04  2.22570E+04 -1.10322E+04
  2.20636E+04  5.30965E+03  7.31442E+03  3.32528E+03  6.99390E+03  2.98495E+03  6.22469E+03  1.27628E+03
  1.95959E+04  2.99285E+03  2.34754E+04  1.76574E+04  1.24677E+04  3.07352E+04 -3.09001E+03  3.33470E+04
 -1.77994E+04  3.18848E+04 -3.28965E+04  1.97574E+04 -3.87153E+04 -3.88751E+03 -3.50294E+04 -2.49559E+04
 -9.18812E+03 -2.79969E+04  8.25129E+03 -2.73013E+04  2.33627E+04 -1.40733E+04  1.99409E+04  5.42922E+03
  9.25952E+03  2.23028E+04 -1.23793E+04  1.13570E+04 -1.94922E+04  4.69220E+03 -1.03352E+04 -1.05597E+04
  1.52806E+02 -1.79151E+04  6.84570E+03 -1.12975E+04  7.51741E+03 -1.82418E+03  4.54919E+03  3.85178E+03
 -1.08341E+04  4.35771E+03 -4.69246E+03 -1.16343E+02 -5.85762E+02 -1.60196E+04  1.28028E+04 -1.08127E+04
  2.10752E+04 -1.05880E+04  1.31237E+04  5.70824E+03  2.13897E+04  1.88286E+04  4.86994E+03  2.24253E+04
 -7.56830E+03  2.19804E+04 -1.82980E+04  1.79184E+04 -2.24287E+04 -2.97738E+03 -1.27268E+04 -6.48360E+03
 -9.69512E+03 -4.22523E+03 -4.08989E+03  1.70026E+03 -8.37866E+02 -1.28602E+01 -8.94541E+03  4.88548E+03
 -1.03789E+04 -3.91736E+03 -1.54417E+04 -1.30869E+04 -5.26044E+03 -1.25508E+04  1.00537E+04 -1.22803E+04
  7.62823E+03 -2.47003E+02  8.91166E+03  3.87786E+03  2.67170E+03  2.52408E+03 -5.45995E+03 -6.97435E+02
 -4.01409E+03 -3.34124E+03 -5.71202E+03 -1.26926E+04  7.21154E+03 -1.51149E+04  1.63061E+04 -9.82188E+03
  1.82356E+04 -2.05465E+02  7.91076E+03  8.94391E+03  8.30334E+02  1.30946E+04 -9.38684E+03  1.19163E+04
 -1.42057E+04  7.18134E+03 -7.67057E+03 -1.59133E+03  6.44994E+03 -3.99796E+03  4.49125E+03 -7.47862E+03
  4.13913E+03  7.08454E+03 -2.49006E+03  1.08469E+04 -9.44260E+03  5.50874E+03 -1.12248E+04  3.24351E+03
 -1.12577E+04 -6.90811E+03 -1.80706E+03 -8.78042E+03  1.72848E+03 -7.92531E+03  7.23707E+03 -1.43054E+03
  1.70194E+03  5.65051E+03 -5.92523E+03  9.01307E+03 -6.97295E+03  7.58104E+03 -1.23298E+04 -4.24038E+03
 -6.91886E+03 -1.26825E+04  3.27015E+03 -1.59517E+04  1.65346E+04 -6.58655E+03  1.16880E+04  1.09307E+03
  5.44313E+03  7.79070E+03 -4.86310E+03  1.41480E+04 -6.54780E+03  1.43191E+04 -1.35115E+04 -3.14290E+03
 -1.29210E+04 -1.55114E+03 -7.55216E+03 -9.60902E+03  8.38969E+03 -6.50983E+03  2.61568E+03 -1.24549E+03
 -4.44748E+01 -1.89750E+03 -9.09430E+02 -4.63333E+02 -2.40484E+03  4.00946E+02  7.06844E+03 -3.28811E+03
  6.76609E+03 -2.20188E+03  1.28265E+04  3.22826E+03  8.37016E+03  4.15744E+03  9.50030E+03  1.75557E+04
 -3.06082E+03  1.59276E+04 -1.52995E+04  1.28357E+04 -2.04217E+04  3.98823E+03 -1.20882E+04 -1.93887E+03
 -1.62363E+04 -1.11673E+04 -5.65662E+02 -1.17385E+04  2.31482E+03 -7.25476E+03  3.92937E+03 -6.64448E+03
  5.43223E+03 -2.36835E+03 -1.57395E+03 -6.72611E+03 -1.18566E+03 -2.25808E+02  7.68592E+03  1.58457E+03
  7.43494E+03 -2.86454E+02  7.42898E+03  7.43068E+03 -1.25085E+03  2.55586E+03 -4.19879E+03  5.45608E+03
 -1.46486E+04 -2.56434E+03 -7.92199E+03 -5.09829E+03 -1.63759E+03 -1.23671E+04  7.01462E+03 -1.12445E+04
  1.42112E+04 -1.26392E+04  1.36815E+04  1.93854E+03  6.11382E+03  8.34402E+03 -3.16925E+03  1.25182E+04
 -7.04944E+03  1.06995E+04 -1.14943E+04  2.40908E+03 -1.14017E+04 -4.56255E+03 -1.96342E+03 -4.00270E+03
 -1.37458E+03 -1.99629E+03  4.84950E+03  1.35394E+03 -2.71714E+03  2.08304E+03 -9.80299E+03 -5.62459E+03
 -3.65644E+03 -4.56506E+03  5.76184E+02 -1.13014E+04  5.44226E+02 -1.39521E+04  1.22576E+04 -2.72808E+03
  1.46000E+04  7.91487E+03  3.69843E+03  1.12636E+04 -1.40574E+03  1.01307E+04 -7.61780E+03  7.73901E+03
 -1.15065E+04  1.90061E+03 -7.01293E+03 -7.30355E+03 -1.04752E+03 -1.04456E+04  6.20925E+03 -8.56722E+03
  8.59931E+03 -1.65100E+03  4.25791E+03 -2.37948E+03  9.55244E+02  3.57136E+03  1.49756E+03  4.10914E+03
  1.43743E+03  3.08645E+03 -8.54064E+02  7.97585E+02  5.56508E+03  2.53685E+03  6.31023E+03  5.26372E+03
 -5.77747E+03  6.74005E+03 -7.86692E+03  8.50512E+03 -1.09779E+04  2.53520E+03 -7.85876E+03 -2.10664E+03
 -5.27545E+03 -9.31864E+03  3.72317E+03 -1.08477E+04  2.11625E+03 -4.71783E+03  1.19110E+04  4.23723E+03
  5.39176E+03  6.08919E+03 -2.11480E+03  9.16014E+03 -2.77802E+03  2.34560E+03 -5.31805E+01 -2.01114E+03
 -5.54580E+03 -5.86171E+03  5.17910E+03 -7.05638E+03  7.03510E+03 -5.60131E+03  3.98275E+03 -7.03952E+02
  4.60720E+03 -3.21827E+03  3.54021E+03  2.65358E+03  2.04439E+03 -2.66037E+02  2.62620E+03  1.11401E+03
 -3.68693E+03 -4.57569E+03  2.47318E+03 -4.46016E+01  2.26934E+03  5.86545E+03 -6.04930E+01  7.70896E+03
 -8.25729E+03  1.05260E+04 -7.96653E+03  8.87843E+02 -2.49117E+03 -2.98680E+03 -3.15552E+03 -4.37688E+03
  3.30369E+03 -3.14503E+03 -1.65462E+03 -4.24554E+02 -5.12593E+03 -1.68212E+03  1.40457E+03  3.75313E+03
 -5.57107E+03  5.03998E+03 -7.69432E+03 -2.85621E+03 -5.14757E+03 -7.93082E+03  1.72729E+03 -4.92887E+03
  4.99163E+03 -1.31756E+03  1.26122E+03 -2.70532E+03 -3.21791E+02  4.82008E+02 -3.94539E+03 -4.37651E+03
 -3.14263E+03 -4.43776E+03 -4.88775E+03 -3.65114E+03  2.74341E+03 -6.70937E+03  3.95417E+03 -7.75328E+03
  4.62892E+02  2.35564E+02  1.07186E+04  5.69522E+03 -9.53656E+02  1.87848E+02 -4.96072E+02  4.37333E+03
 -1.06808E+04 -7.09809E+01 -1.94626E+02  2.48163E+02 -2.06682E+03 -9.04197E+03  6.76072E+03 -2.72746E+02
  2.89769E+03 -1.01167E+03  2.38839E+03  1.46544E+03  6.14209E+03 -7.62682E+02 -6.51571E+03 -5.52074E+01
 -7.94965E+02  4.75689E+02  2.35780E+03 -3.88382E+03  3.52022E+02 -1.88155E+03 -3.10779E+03 -9.64578E+02
  3.74814E+03  4.54647E+03 -2.91807E+03 -4.76891E+03 -5.64505E+03  5.26908E+03 -9.10036E+03  2.68783E+01
 -4.24788E+02 -1.55095E+03  4.41650E+03 -4.72217E+03  9.64391E+02 -1.48674E+03  5.90434E+03 -2.72525E+02
  7.61871E+03 -1.29101E+03  3.95574E+03  4.75979E+03  1.11622E+03  4.96058E+03 -2.89586E+03  3.50349E+03
 -2.25672E+02  2.33815E+03  1.82315E+03 -5.08990E+03 -3.03395E+03  4.27030E+03 -8.26664E+02  1.74895E+03
 -6.50882E+02  6.16852E+03 -1.26804E+03 -3.33255E+03 -3.30363E+03  6.29400E+03 -3.29799E+03 -4.40260E+03
  9.53437E+02 -3.33189E+03  6.14132E+03 -3.00374E+03  4.20739E+03  2.62962E+03 -4.99607E+03  3.93472E+03
  5.77257E+02  1.20882E+04 -7.96254E+03  1.17653E+03 -6.88004E+03  2.04100E+03 -4.00850E+03 -2.61771E+03
 -6.35918E+03 -5.86361E+03  5.22224E+02 -8.70601E+01  3.21500E+03 -1.24311E+03  2.12501E+03 -6.02381E+03
  3.19151E+03  1.96153E+03 -1.44572E+03  2.60865E+03  1.02125E+03  2.94466E+03 -1.50046E+03 -2.89439E+03
  4.61643E+03 -4.55128E+03  1.71376E+02 -2.24244E+03  4.97758E+03  3.25213E+03  2.94011E+03 -4.61198E+03
 -3.78321E+02  1.83761E+03  2.36942E+03 -7.20099E+03 -4.39457E+03 -1.30777E+03 -2.06007E+03 -6.44085E+03
  4.70210E+02 -7.49425E+03  9.18250E+03  3.45206E+03  1.14464E+03 -2.55106E+03  4.22477E+03  2.19133E+03
  1.63048E+03  5.78074E+03  2.67050E+03  2.45995E+03 -2.17180E+03 -4.42792E+03  3.69365E+03  4.07349E+03
 -3.36685E+03 -1.57361E+03 -4.72351E+03  4.11665E+03 -4.60236E+03  2.48990E+03 -5.95571E+03 -5.63829E+02
 -1.13438E+03 -2.83947E+03 -4.76178E+03 -3.56534E+03  4.20666E+03 -8.70807E+03  6.57727E+03 -4.93762E+02
  2.36837E+03 -1.28579E+03  2.88157E+03  1.80285E+03 -1.85335E+03  1.60256E+03 -1.86983E+03  9.00914E+02
