 $NMID ID='MM_0lb_SNR50_11hz_g55_47.RAW', FMTDAT='(8E13.5)'
 TRAMP=1., VOLUME=1. $END
  3.11073E+05  5.64888E+02  3.45442E+05  2.50668E+05  8.24883E+04  3.40814E+05 -1.35154E+05  2.52933E+05
 -1.89754E+05  8.48115E+04 -1.11070E+05 -3.13314E+04  2.71214E+03 -5.08113E+04  6.23213E+04 -1.93345E+03
  3.40507E+04  5.69598E+04 -1.51084E+04  7.51822E+04 -6.76011E+04  6.51566E+04 -8.56369E+04  3.24102E+04
 -8.60374E+04 -9.86488E+03 -5.25961E+04 -5.56830E+04 -1.93298E+04 -7.46747E+04  2.95049E+04 -5.39318E+04
  4.32292E+04  3.92682E+03  1.84387E+04  4.45575E+04 -3.84358E+04  4.74770E+04 -7.18153E+04 -3.45873E+03
 -4.92596E+04 -5.64893E+04 -6.49545E+03 -7.86928E+04  3.27687E+04 -5.75342E+04  5.15322E+04 -1.25909E+04
  3.83492E+04  1.18865E+04  3.34459E+04  2.56755E+04  1.40281E+04  3.14283E+04 -9.47076E+03  3.28078E+04
 -2.46784E+04  1.22723E+04 -1.43187E+04 -7.63305E+03  1.07157E+04  9.79541E+02  2.37638E+04  1.17714E+04
  7.77528E+03  3.60512E+04 -3.62908E+04  4.34785E+04 -6.42060E+04  1.56911E+03 -6.07999E+04 -4.01564E+04
 -9.88478E+03 -6.46129E+04  4.50387E+04 -4.93836E+04  6.12270E+04  1.21195E+03  3.71773E+04  3.32747E+04
 -8.97545E+03  3.88746E+04 -2.75548E+04  2.02316E+04 -2.77124E+04 -5.09135E+03 -1.81745E+04 -1.71177E+04
 -4.79252E+03 -1.03002E+04 -8.46947E+03 -1.30280E+04  1.00224E+04 -2.19081E+04  1.45318E+04 -1.50028E+04
  1.20441E+04  5.30073E+03 -1.08440E+04  1.47950E+04 -2.17586E+04 -4.72735E+02 -8.39156E+03 -3.86592E+04
  1.94215E+04 -5.06731E+04  4.79325E+04 -2.27241E+04  4.54022E+04  1.86957E+04  1.73754E+04  4.42548E+04
 -1.91030E+04  2.98783E+04 -2.54856E+04 -1.61899E+03 -1.26498E+04 -2.86389E+04  2.14290E+04 -3.79992E+04
  3.78274E+04 -1.39023E+04  3.96903E+04  2.68089E+04  1.96533E+04  5.27100E+04 -1.46902E+04  5.46445E+04
 -3.09737E+04  3.21391E+04 -4.38998E+04  7.37130E+03 -4.72934E+04 -1.43399E+04 -2.28521E+04 -3.81880E+04
  7.83949E+03 -4.44179E+04  3.53600E+04 -1.25573E+04  3.22544E+04  1.24417E+04  3.83980E+03  2.07405E+04
 -1.14551E+04  8.39877E+03 -1.06575E+04 -8.22811E+03  5.56392E+03 -8.79173E+03  1.67744E+04  7.15800E+03
  1.24062E+04  2.74389E+04 -2.19584E+03  3.04852E+04 -2.77822E+04  1.37265E+04 -3.30014E+04 -1.40977E+03
 -2.93047E+04 -1.62082E+04 -9.27224E+03 -2.02203E+04  2.89656E+03 -2.39603E+04  1.50833E+04 -1.51552E+04
  2.80325E+04 -1.57752E+04  3.32704E+04  3.87736E+03  2.10982E+04  2.55035E+04  2.74404E+03  4.16891E+04
 -2.20564E+04  2.88399E+04 -3.14730E+04  1.25448E+04 -1.58942E+04 -1.15749E+04  1.36933E+03 -1.03363E+04
  7.72986E+03 -7.10979E+03 -3.47976E+03  7.32630E+03 -2.34591E+04  8.15757E+03 -1.75344E+04 -1.11828E+04
 -1.51057E+04 -1.88224E+04  5.17425E+03 -2.85041E+04  1.86710E+04 -2.07561E+04  1.91955E+04  1.28684E+03
  1.21554E+04  1.90343E+04  4.18369E+02  2.01578E+04 -1.54689E+04  1.42548E+04 -2.31072E+04 -7.91736E+03
 -1.77729E+04 -1.35835E+04  1.17802E+03 -2.87818E+04  1.01586E+04 -2.05195E+04  1.96367E+04 -9.67281E+03
  2.06774E+04  5.25224E+03  1.42773E+04  5.53975E+03  6.91766E+03  3.26621E+03  1.93428E+04 -1.31028E+03
  1.60731E+04 -2.38631E+03  2.68283E+04  1.86113E+04  1.72833E+04  3.72144E+04 -1.68648E+03  4.13541E+04
 -2.63593E+04  3.03889E+04 -3.86151E+04  1.98189E+04 -3.55493E+04 -3.90548E+03 -2.83874E+04 -2.68971E+04
 -1.20978E+04 -3.21919E+04  1.53196E+04 -2.54113E+04  2.43057E+04 -1.34659E+04  2.10681E+04  2.76200E+03
  8.49821E+03  1.51044E+04 -1.30020E+04  1.23497E+04 -2.40063E+04  6.12499E+03 -1.48823E+04 -1.44655E+04
 -2.74397E+03 -2.60096E+04  8.39755E+03 -1.32545E+04  1.37689E+04  4.92438E+03  2.55564E+03  6.90462E+03
 -1.54812E+04  3.61039E+03 -1.07555E+04 -1.66399E+04 -3.48807E+03 -1.37712E+04  1.41799E+04 -1.91229E+04
  1.61468E+04 -7.98299E+03  2.77212E+04  2.03235E+03  1.90018E+04  2.21976E+04  1.03852E+04  2.63237E+04
 -1.26155E+03  2.63760E+04 -1.99182E+04  1.97082E+04 -2.47992E+04 -8.18968E+02 -1.36623E+04 -6.91826E+03
 -8.12250E+03 -1.03596E+04 -2.01436E+03  1.84725E+03 -2.70853E+03  1.42459E+03 -9.23558E+03  4.46630E+03
 -1.02599E+04  1.86605E+03 -1.04106E+04 -1.16686E+04 -1.82215E+03 -2.33736E+04  7.23140E+03 -7.52622E+03
  1.26218E+04 -6.95026E+03  1.08233E+04  3.17065E+03  1.68010E+03  4.15977E+03 -2.56024E+03  6.35676E+02
 -8.96001E+03 -1.09876E+04 -1.75462E+03 -1.18308E+04  9.58711E+03 -1.18826E+04  1.75440E+04 -4.66323E+03
  2.07079E+04 -2.17878E+03  1.24845E+04  1.03580E+04 -2.95076E+03  1.53192E+04 -6.05427E+03  2.08102E+04
 -1.49363E+04  8.14517E+03 -1.12718E+04  6.19055E+03  6.05229E+02 -4.60931E+03  9.36414E+03 -1.00340E+03
  8.72687E+03  9.59344E+03  2.46846E+03  1.50887E+04 -9.14771E+03  1.30021E+04 -1.32679E+04  4.09980E+03
 -6.52468E+03 -6.66714E+03  2.58577E+03 -1.14979E+04  2.99689E+03 -6.72087E+03  9.99113E+03  4.10051E+03
  3.42132E+03  1.04955E+04 -4.06498E+03  7.79324E+03 -1.47710E+04  3.64811E+03 -1.44811E+04 -5.52954E+03
 -3.65186E+03 -1.45689E+04  4.26650E+03 -1.59515E+04  1.66031E+04 -1.14637E+04  1.30259E+04 -2.32382E+03
  8.33385E+03  1.31160E+04  6.40339E+02  1.44877E+04 -1.31649E+04  4.22041E+03 -1.12685E+04 -1.70157E+03
 -8.35181E+03 -6.23433E+03  1.26258E+03 -8.35010E+03  5.85434E+03 -8.07072E+03  8.10403E+03 -3.87838E+03
  4.63434E+03  6.77881E+03 -6.43493E+03 -1.16227E+03  4.33139E+03 -8.14483E+03  6.60518E+03 -1.03884E+04
  9.05720E+03 -1.65768E+03  1.15756E+04 -5.48806E+03  7.57418E+03  1.17346E+04  7.79854E+03  1.98358E+04
 -1.40710E+03  1.99064E+04 -1.94364E+04  1.63885E+04 -2.83106E+04  5.13453E+03 -1.99289E+04 -3.03619E+03
 -1.72052E+04 -1.44732E+04 -2.93951E+03 -9.40977E+03  1.37601E+03 -2.35076E+03  3.55411E+03 -5.55700E+03
  3.56763E+03 -2.78529E+03 -2.65486E+03 -3.08814E+03  8.12747E+03 -3.35500E+03  5.47522E+03 -2.97849E+03
  1.02901E+04 -4.38194E+03  4.55628E+03  5.99048E+03 -3.42169E+03  6.88562E+03 -7.20036E+03  7.37742E+03
 -1.23820E+04  1.90272E+03 -9.08267E+03 -8.43418E+03  3.48738E+03 -1.63290E+04  1.06059E+04 -1.05103E+04
  1.29579E+04 -1.24905E+04  1.21203E+04  1.25734E+04  1.38440E+04  1.12834E+04 -1.36127E+03  1.37174E+04
 -1.07166E+04  9.64483E+03 -8.28825E+03  7.79293E+03 -7.80119E+03 -5.01174E+02  1.48212E+03 -2.84150E+03
 -2.53143E+03  4.24366E+03  1.64032E+03  4.53106E+03 -4.53834E+03  1.90933E+03 -8.14894E+03  1.79806E+03
 -9.64990E+03 -8.68283E+03  5.07909E+02 -1.76217E+04  3.68738E+03 -1.09502E+04  9.34534E+03  3.06198E+03
  1.33510E+04  4.38363E+03  7.59605E+03  1.16043E+04 -1.44333E+03  1.58479E+04 -1.23665E+04  6.55697E+03
 -1.48581E+04 -3.00953E+03 -1.04050E+04 -8.82132E+03 -5.04945E+02 -1.11915E+04  3.43810E+03 -6.08758E+03
  9.11178E+03 -4.11240E+03  8.46779E+03  4.55109E+03 -4.16618E+02  1.10495E+04  2.33193E+03  8.98357E+03
  5.72617E+03  5.09584E+03  2.32524E+03 -1.56636E+03  2.17020E+03  4.78065E+03  1.21386E+03  1.01726E+04
  2.09933E+03  9.17010E+03 -9.10138E+03  1.32676E+04 -9.74912E+03  5.49155E+03 -1.35122E+04 -5.63083E+03
 -9.96386E+03 -1.18640E+04  4.89930E+01 -9.60230E+03  2.68060E+03 -7.54418E+03  2.75450E+03 -3.32376E+03
  1.05140E+04  4.11914E+03 -2.89700E+03  3.89411E+03 -5.53834E+03  1.31466E+03 -4.69991E+03 -1.74446E+03
  7.19254E+02 -3.26840E+03 -1.78400E+02 -1.79266E+03  9.54820E+02  4.75917E+01  9.69423E+02 -4.08921E+03
  1.28080E+03  6.11955E+03  5.28072E+03 -5.97434E+02 -3.39676E+03 -4.12345E+02  3.55456E+03  6.19570E+02
 -8.58519E+02  2.23275E+03  6.44564E+03  3.02066E+03  9.94692E+03  4.05626E+03  1.60320E+03  9.16213E+03
 -3.16306E+03  2.37340E+03 -7.09683E+03 -3.07070E+03 -9.49372E+03  2.47587E+03 -2.62096E+03 -1.35314E+04
  3.12343E+02 -7.21490E+03  3.66235E+03  2.59202E+02  7.54764E+03  3.15518E+03 -1.53346E+03  7.16178E+03
 -7.36167E+02 -5.68680E+01 -5.62053E+03  3.43617E+02 -6.47556E+03 -1.64862E+03 -9.60524E+02 -7.73851E+03
  1.04183E+03 -2.08459E+03 -8.21515E+02 -6.70129E+02  8.68881E+02 -4.17537E+03 -4.19759E+03  4.09327E+03
 -4.39391E+02  5.66984E+03 -4.28918E+03 -2.34346E+03  2.60600E+03 -5.10309E+03 -1.65008E+03 -4.92548E+03
  1.83969E+03  2.52595E+03  4.05758E+03  4.14022E+03  1.33707E+03  4.95198E+03 -2.06328E+03  4.50726E+03
 -5.64575E+03  4.75807E+03 -6.82778E+03  2.24683E+02 -5.60979E+03 -8.21316E+03 -1.49095E+03 -4.90562E+03
  4.55631E+03 -7.28524E+03  4.23465E+03 -1.39475E+03 -1.05055E+03  3.07966E+03  2.42449E+02  9.99912E+03
 -7.39774E+03  4.12282E+03  3.95888E+03  1.32394E+03 -3.37301E+02 -2.48363E+03 -2.30434E+03  5.01157E+03
  1.44898E+03  8.07018E+03 -1.11321E+04  3.78742E+03 -6.67568E+03 -2.17507E+03 -1.04297E+04 -9.30291E+03
 -4.63877E+03 -1.19314E+04  5.00235E+03 -1.46736E+04 -1.39550E+03 -3.98503E+02  8.17198E+03 -3.85613E+03
  1.00448E+04  2.48338E+03  6.68682E+03 -1.08112E+03 -2.11050E+03  6.99705E+03 -5.09912E+03  7.72005E+03
 -8.58197E+03 -2.35654E+03 -4.87014E+03 -6.41046E+03 -7.01449E+03  3.80626E+03  7.87475E+02  3.09490E+03
  2.38512E+03 -1.84127E+03 -1.42180E+03 -3.50858E+03  3.07131E+03 -1.68347E+03 -7.49936E+02 -6.73902E+03
 -1.29323E+01 -5.27179E+03  5.36453E+03 -8.54452E+02  1.52023E+04  3.56171E+03  4.01315E+02  8.59464E+03
 -8.61372E+03  9.47542E+03 -1.05631E+04  8.96611E+03 -1.24459E+04  4.10390E+03 -5.31973E+03 -5.33326E+03
  1.60711E+03 -9.58508E+03 -2.92687E+03 -1.38619E+04  3.76982E+03 -3.45372E+03  4.68245E+03 -2.08996E+03
  3.78130E+03  1.62881E+03 -5.37394E+03 -3.14666E+03 -8.17462E+02 -5.08606E+02  1.91783E+02 -1.05354E+04
  2.55710E+03 -1.18648E+03  4.90967E+03  2.59310E+03 -2.60325E+01  3.20836E+03  3.65777E+03  4.77025E+03
 -3.20743E+03  1.80886E+03 -6.41541E+03 -1.30738E+03 -4.01873E+03  1.18186E+03  3.99954E+03 -6.98585E+03
  6.67832E+03 -6.86874E+03  3.67221E+03 -2.41577E+03  2.11126E+03  4.86364E+03  8.84051E+03  5.60106E+03
  2.14280E+03 -6.17707E+03  1.25579E+03  8.51096E+03 -6.29877E+03 -1.07564E+03 -5.34450E+03  4.53988E+03
 -4.87012E+03 -1.88563E+03 -1.02150E+03 -3.67961E+03 -3.11152E+03  5.05231E+03 -1.73548E+03  3.29044E+03
 -4.51050E+03  1.25713E+03  1.69365E+03 -6.50482E+03  3.32189E+03 -7.12340E+03  4.88137E+03 -5.72758E+03
  4.21777E+03  5.67957E+03  7.16869E+03  1.04840E+03 -6.83078E+03  5.71745E+03 -6.04386E+03  6.46609E+03
