 $NMID ID='MM_0lb_SNR50_9hz_g50_50.RAW', FMTDAT='(8E13.5)'
 TRAMP=1., VOLUME=1. $END
  3.09843E+05  5.88169E+02  3.36430E+05  2.50888E+05  8.45767E+04  3.38293E+05 -1.33143E+05  2.48379E+05
 -1.98141E+05  8.10954E+04 -1.11161E+05 -3.63697E+04 -4.95860E+03 -4.40518E+04  5.59398E+04 -6.25783E+03
  3.53941E+04  5.20242E+04 -2.10131E+04  7.41633E+04 -6.05899E+04  6.34903E+04 -8.93370E+04  3.57689E+04
 -8.17902E+04 -7.71731E+03 -5.93856E+04 -5.75747E+04 -2.22555E+04 -7.55500E+04  3.19710E+04 -4.58356E+04
  4.42065E+04  3.84047E+03  1.81555E+04  4.37192E+04 -3.64738E+04  4.40974E+04 -6.15691E+04  1.34695E+03
 -5.36470E+04 -6.05839E+04 -2.06442E+03 -8.52581E+04  3.32729E+04 -5.54716E+04  5.42322E+04 -2.16092E+04
  4.72151E+04  1.21908E+04  2.66498E+04  2.35878E+04  1.11850E+04  3.00177E+04 -4.86076E+03  2.52925E+04
 -2.18618E+04  1.25169E+04 -2.22154E+04 -9.96290E+03  2.81698E+03 -8.08597E+03  2.78780E+04  1.70529E+04
  4.26063E+03  3.70794E+04 -3.13163E+04  3.38750E+04 -7.29533E+04  5.96837E+03 -6.41735E+04 -4.93922E+04
 -7.78267E+03 -6.52693E+04  4.25317E+04 -5.09492E+04  6.02025E+04 -6.52731E+03  2.93923E+04  3.74582E+04
 -5.94368E+03  3.42828E+04 -3.21508E+04  1.48499E+04 -3.24709E+04 -4.17551E+03 -1.79686E+04 -1.12510E+04
 -1.05073E+04 -1.03520E+04 -2.57400E+02 -2.32199E+04  8.98880E+03 -2.70120E+04  1.76215E+04 -7.60182E+03
  6.83729E+03  8.31235E+03 -6.99557E+03  1.41008E+04 -1.85803E+04 -1.38089E+04 -8.13299E+03 -4.06161E+04
  2.98899E+04 -5.05930E+04  4.98315E+04 -1.76853E+04  4.56287E+04  2.50801E+04  1.19088E+04  4.84878E+04
 -1.71917E+04  3.83816E+04 -2.76600E+04  1.55613E+03 -1.46680E+04 -3.28133E+04  2.88123E+04 -3.57857E+04
  4.39483E+04 -1.25164E+04  3.69947E+04  2.36461E+04  2.31465E+04  5.45612E+04 -1.13140E+04  5.67511E+04
 -3.90405E+04  3.69112E+04 -4.46032E+04  1.38600E+04 -4.86907E+04 -2.22583E+04 -2.36919E+04 -4.65250E+04
  6.56071E+03 -3.93518E+04  3.32776E+04 -1.41631E+04  3.29399E+04  6.70534E+03 -2.45706E+02  2.65688E+04
 -1.97377E+04  1.17357E+04 -1.23037E+04 -3.89776E+03  4.38226E+03 -9.82123E+03  1.65488E+04  5.11109E+03
  1.66684E+04  2.21681E+04 -2.81658E+03  3.19304E+04 -2.35480E+04  1.93641E+04 -3.19979E+04 -5.59329E+03
 -2.22100E+04 -1.69057E+04 -7.30588E+03 -2.08569E+04  4.02219E+03 -2.86412E+04  1.74249E+04 -2.08581E+04
  3.07025E+04 -1.90913E+04  3.59999E+04  6.35066E+03  2.86634E+04  2.41121E+04  8.45874E+02  4.19563E+04
 -1.14599E+04  3.61443E+04 -3.19745E+04  1.10028E+04 -2.18538E+04 -9.33259E+03 -4.39668E+03 -1.02209E+04
 -1.13296E+04 -5.78794E+03 -1.13859E+04  1.36959E+04 -2.19169E+04  7.38115E+03 -1.88949E+04 -9.25377E+03
 -8.65021E+03 -2.49617E+04  5.98720E+03 -2.28648E+04  1.50318E+04 -2.22102E+04  2.24172E+04 -3.79951E+03
  1.55953E+04  1.79969E+04 -7.16467E+03  2.41461E+04 -1.41118E+04  9.24886E+03 -2.52732E+04 -8.01653E+03
 -2.20248E+04 -2.63994E+04  4.35509E+03 -2.76407E+04  1.48139E+04 -1.47326E+04  1.82126E+04 -1.30696E+04
  2.10321E+04 -4.10828E+02  1.76968E+04  5.85784E+03  7.47337E+03  1.70201E+03  6.11900E+03 -6.14242E+03
  2.47866E+04  3.39381E+03  2.77134E+04  2.44384E+04  1.31469E+04  4.05855E+04  3.20681E+03  4.45487E+04
 -2.35258E+04  4.12048E+04 -3.46502E+04  2.04610E+04 -5.26728E+04 -1.65660E+03 -3.59801E+04 -2.94321E+04
 -1.19212E+04 -4.09888E+04  1.43754E+04 -2.89139E+04  2.45014E+04 -1.11542E+04  2.72144E+04  1.72360E+04
  7.86678E+03  1.83489E+04 -1.21461E+04  1.54531E+04 -1.45455E+04 -1.08149E+03 -1.10308E+04 -1.19721E+04
  2.88876E+03 -1.70356E+04  4.88001E+03 -1.41456E+04  1.72597E+04  8.41654E+02  2.42089E+03  4.52578E+03
 -7.67583E+03  3.81196E+03 -1.02890E+04 -3.11249E+03 -8.69528E+03 -2.22679E+04  1.34267E+04 -1.90500E+04
  2.51861E+04 -1.23420E+04  2.36924E+04  1.16951E+04  2.49671E+04  2.00235E+04  6.31799E+03  2.59931E+04
 -6.57822E+03  3.17861E+04 -1.78661E+04  2.46916E+04 -1.95747E+04 -7.06915E+02 -2.28202E+04 -2.11652E+03
 -1.95220E+03 -2.60397E+03  2.15129E+03 -3.37160E+03  6.81919E+03  3.39025E+03 -1.01854E+04  8.45952E+03
 -1.76242E+04  3.65052E+03 -2.02692E+04 -1.16519E+04 -7.87420E+03 -1.81615E+04  4.73331E+03 -1.31583E+04
  1.30766E+04 -5.29580E+03  1.17575E+04  8.02262E+03  8.34625E+02  7.72651E+03 -4.97678E+03 -4.77540E+03
 -1.24579E+03 -1.63395E+04 -2.29374E+03 -1.42451E+04  1.21138E+04 -2.14105E+04  2.40105E+04 -9.05594E+03
  1.91605E+04  5.42090E+03  1.80881E+04  1.94994E+04  7.14200E+03  2.04341E+04 -7.59886E+03  1.69255E+04
 -1.58365E+04  3.37285E+03 -8.45309E+03 -2.32511E+02  2.04343E+03 -6.82874E+03  9.23905E+03  2.61874E+03
  7.05909E+03  1.23693E+04 -1.89857E+03  1.37190E+04 -1.28367E+04  5.69996E+03 -8.31420E+03  6.48076E+03
 -1.18219E+04 -2.62980E+03  4.61348E+02 -5.26724E+03  6.74272E+03 -7.84252E+03  1.28275E+04  7.46404E+03
  1.09977E+03  6.05967E+03 -1.18771E+04  7.72382E+03 -1.56940E+04  8.89467E+02 -1.78205E+04 -7.90775E+03
 -1.57589E+03 -9.82176E+03  6.31173E+03 -2.35942E+04  1.22950E+04 -1.00402E+04  2.37214E+04  8.96760E+03
  9.68166E+03  1.58182E+04 -1.10538E+03  1.34121E+04 -1.22103E+04  1.60148E+04 -1.24944E+04  1.31034E+03
 -1.18640E+04 -1.32295E+04 -1.91362E+03 -8.63387E+03  1.75277E+03 -1.24109E+04  6.89977E+03 -5.76624E+03
  3.84850E+03  7.13878E+03  5.86611E+03  4.20683E+02 -4.25576E+03 -2.27941E+03 -3.50120E+03 -2.68329E+03
  1.48719E+04 -4.89482E+03  1.49357E+04  1.50450E+03  8.91373E+03  8.29330E+03  1.19238E+04  2.31869E+04
 -5.74119E+03  2.38451E+04 -2.43001E+04  1.95519E+04 -2.78408E+04  6.39230E+03 -1.91136E+04 -7.73103E+03
 -9.37818E+03 -2.12879E+04 -5.34992E+03 -1.50339E+04  4.99835E+03 -3.75145E+03 -8.43139E+02 -1.21669E+04
  5.18256E+03 -7.43984E+03  4.33368E+03 -6.03128E+02  6.61977E+03 -6.32663E+01  1.02251E+04 -2.86122E+03
  1.14504E+04  2.85135E+03  9.05545E+03  2.55375E+03 -4.91590E+03  1.85869E+04 -7.48258E+03  3.93001E+03
 -1.88943E+04  1.12183E+03 -8.96021E+03 -1.46149E+04 -2.09886E+02 -1.61014E+04  5.73686E+03 -1.93144E+04
  1.59479E+04 -3.05540E+03  1.23505E+04  2.17527E+03  1.82442E+04  1.69285E+04  1.83440E+03  2.45798E+04
 -7.27741E+03  1.92047E+04 -1.56851E+04  7.86124E+03 -3.01907E+03 -2.61352E+03 -4.74551E+03  7.51054E+01
 -6.09662E+03  1.95625E+03 -8.90519E+03  4.35431E+03 -4.77973E+03  4.56429E+03 -9.92132E+03 -5.29627E+03
 -7.76964E+03 -1.15328E+04 -1.26099E+03 -1.27994E+04  6.18311E+03 -1.57345E+04  8.15275E+03 -8.15850E+01
  1.60752E+04  7.91825E+03  4.33613E+03  1.41818E+04 -5.15815E+03  1.81631E+04 -1.32273E+04  4.87446E+03
 -1.11296E+04  3.36085E+03 -1.12943E+04 -1.43088E+04 -2.10832E+03 -1.75965E+04  1.10241E+04 -1.53983E+04
  9.56444E+03 -6.36190E+03  6.84144E+03  1.69352E+03  2.58514E+03 -1.03326E+03  3.29234E+03  6.47763E+02
  7.79669E+01  1.60087E+03 -1.24483E+03  2.29699E+03  5.46143E+03  2.23559E+03  1.81909E+03  9.77592E+03
  1.02661E+03  1.17069E+04 -1.63780E+04  8.44075E+03 -1.73065E+04 -5.64619E+02 -1.50422E+04 -1.22707E+04
 -1.39042E+04 -1.84319E+04  4.30328E+03 -1.72997E+04  1.10007E+04 -1.49812E+04  4.69570E+03 -4.77399E+03
  6.72648E+03  6.76360E+03  4.54472E+03  4.90167E+03 -3.24405E+03 -7.35046E+03 -6.38520E+03 -3.79139E+02
 -7.05918E+03 -6.36774E+03  2.56632E+03 -3.77481E+03  6.22347E+03  9.32137E+01  5.31541E+03  4.69462E+03
  2.04064E+03 -3.05618E+03  3.26907E+02 -5.25387E+03 -4.73659E+02  2.19202E+03  7.35853E+03 -2.47343E+03
  9.86688E+03  2.88084E+03  5.86496E+03  6.20848E+03  2.24321E+03  6.05415E+03 -1.21217E+03  7.73489E+03
 -8.75012E+03  4.89004E+03 -8.22325E+03  3.48437E+03 -1.45290E+04  3.01738E+03 -3.91346E+03 -7.20977E+03
  3.36315E+03 -1.08144E+04  3.06486E+03 -5.13632E+03  7.37147E+03  2.75267E+02 -7.94732E+03  1.08031E+04
 -6.63555E+03 -1.64619E+03 -1.06411E+04 -2.70353E+03 -2.36753E+03 -4.30067E+02  1.30810E+03 -8.92560E+03
  1.01842E+03 -1.94536E+03  3.94813E+03  1.56925E+03  4.51881E+03  5.57500E+03  6.48350E+03  5.98708E+03
 -6.77232E+03 -3.26340E+03 -8.61650E+03 -3.43831E+03  1.43146E+03 -1.09808E+03 -2.38458E+02 -1.02630E+04
  1.39508E+04  4.46456E+03  1.11554E+04  5.49147E+03  6.55228E+03  1.65693E+04 -7.49441E+03  1.03653E+04
 -8.35002E+03  1.93533E+03 -8.92458E+03 -9.69890E+02 -4.97717E+03 -4.43966E+03 -3.07122E+02 -6.60941E+03
  1.10848E+04 -9.35965E+03  6.74647E+03  8.06074E+03  1.38550E+03  1.27976E+04 -2.46234E+03  6.39769E+03
 -3.86392E+03  7.23470E+03 -2.16628E+03  4.42241E+03  2.32263E+02 -1.46173E+03 -1.25230E+03  2.24454E+03
  5.72975E+03  2.53189E+03 -8.44142E+03  4.41752E+02 -1.24804E+04  1.19691E+03 -1.38532E+04 -6.72997E+03
 -8.63815E+03 -1.07049E+04  2.64610E+03 -9.56031E+03  8.98548E+03 -1.38461E+04  1.22594E+04 -3.87279E+03
  1.23205E+04  4.61820E+03  3.93283E+03  9.65097E+03  1.29566E+03  3.22525E+03 -7.57897E+03  9.54756E+03
 -4.92254E+03  2.89076E+03 -5.16626E+03  3.48499E+03 -5.10259E+03  1.88447E+02 -3.00558E+03 -3.41299E+03
 -2.38031E+03 -2.31732E+03 -5.05946E+03  1.16782E+03 -1.94272E+03 -3.40328E+03 -6.90430E+02 -4.99993E+03
  1.13582E+04 -2.44752E+03  6.56606E+03  4.81958E+03  6.42833E+03  4.89542E+03 -1.37618E+03  1.27002E+04
 -6.52448E+03  1.08571E+04 -1.39703E+04  5.36999E+03 -1.56914E+04  5.28561E+02 -5.74703E+03 -4.15237E+03
 -5.77532E+03 -1.67401E+04  1.11943E+03 -6.88811E+03  7.00922E+03 -1.26503E+04  8.27358E+03 -3.59464E+02
 -1.97067E+03  2.85400E+03  3.77749E+03  1.06551E+03 -1.53199E+03  2.50341E+03  8.67745E+01 -1.83301E+02
 -2.00595E+03 -2.11822E+03  5.60148E+03  1.13001E+03  4.57500E+02  4.60346E+03  4.89315E+03  1.92965E+03
 -3.68504E+03  1.09385E+04 -6.66948E+03 -2.04560E+03 -2.94488E+03 -6.05898E+03 -1.56602E+03 -3.38914E+03
  3.91236E+03 -8.25084E+03  8.72278E+03 -1.84855E+02  5.49396E+03 -1.67122E+03  4.58546E+03 -9.38921E+02
  5.11114E+03 -2.47221E+02 -1.51808E+03  6.06371E+03 -1.06592E+03  7.06311E+03 -6.66631E+03  7.38909E+02
 -2.80739E+03 -1.34212E+03  1.17773E+03 -1.91212E+02 -2.08422E+03  1.95012E+03 -1.51785E+03  1.20790E+03
 -7.54655E+03 -6.24142E+03  7.15229E+03 -5.01240E+02  9.44931E+03 -1.06175E+04  8.10097E+03  3.36906E+03
  4.79292E+03  1.17135E+03  2.12184E+03  7.25907E+03 -1.32928E+03  7.27180E+03 -3.28062E+03  9.70519E+03
