 $NMID ID='MM_0lb_SNR50_15hz_g45_31.RAW', FMTDAT='(8E13.5)'
 TRAMP=1., VOLUME=1. $END
  3.12053E+05  1.16090E+01  3.35966E+05  2.51992E+05  8.18883E+04  3.33650E+05 -1.27145E+05  2.54733E+05
 -1.88800E+05  8.46738E+04 -1.12545E+05 -3.05975E+04 -1.09314E+03 -4.78033E+04  5.08502E+04  8.36375E+02
  3.04466E+04  5.12188E+04 -1.86873E+04  7.44633E+04 -5.85711E+04  6.29119E+04 -8.50426E+04  3.67346E+04
 -7.77581E+04 -6.75550E+03 -5.23012E+04 -5.06732E+04 -2.10273E+04 -6.51637E+04  2.44843E+04 -4.10697E+04
  3.38835E+04  2.72596E+03  1.45168E+04  4.71717E+04 -3.33509E+04  4.43295E+04 -6.67675E+04 -4.06154E+03
 -5.15647E+04 -5.55903E+04 -6.57737E+03 -7.65831E+04  3.72937E+04 -5.14847E+04  4.96244E+04 -1.50458E+04
  4.13342E+04  1.08293E+04  3.06375E+04  2.69332E+04  1.70312E+04  2.77702E+04 -4.92143E+03  2.80476E+04
 -2.29883E+04  1.18490E+04 -1.79169E+04 -5.43334E+03  5.45895E+03 -6.48223E+03  2.41045E+04  1.00480E+04
  1.28867E+04  3.52824E+04 -3.33588E+04  3.47201E+04 -5.98636E+04  1.86981E+03 -5.57624E+04 -4.14559E+04
 -1.44549E+04 -5.95009E+04  3.65453E+04 -4.52815E+04  5.55309E+04 -3.31126E+03  3.34065E+04  3.52279E+04
 -3.09760E+02  3.55316E+04 -2.62640E+04  1.65137E+04 -2.62362E+04 -6.69744E+03 -1.76277E+04 -1.02210E+04
 -1.31464E+04 -1.24933E+04 -1.55244E+03 -1.92242E+04  3.62267E+03 -2.95049E+04  1.29153E+04 -1.33171E+04
  1.48429E+04  3.16464E+03 -7.06605E+03  1.14918E+04 -1.96016E+04 -4.28997E+03 -8.03107E+03 -3.06821E+04
  2.29710E+04 -3.95968E+04  4.58569E+04 -1.94460E+04  4.40340E+04  1.94311E+04  1.68365E+04  4.23630E+04
 -1.59862E+04  3.37340E+04 -2.39323E+04  4.63716E+03 -8.96456E+03 -2.53953E+04  1.65430E+04 -3.26800E+04
  4.07914E+04 -7.84557E+03  3.20797E+04  2.26176E+04  1.33635E+04  4.55797E+04 -8.00644E+03  5.04123E+04
 -2.97168E+04  3.09685E+04 -4.09217E+04  1.14079E+04 -3.88868E+04 -1.28522E+04 -2.16240E+04 -3.77898E+04
  8.50899E+03 -3.81073E+04  3.21177E+04 -1.46098E+04  2.46251E+04  1.22336E+04  1.86305E+03  1.72466E+04
 -1.07652E+04  8.04504E+03 -1.27783E+04 -1.08237E+04  3.25345E+02 -6.57778E+03  2.42338E+04  8.55410E+03
  1.54976E+04  2.18675E+04 -1.65048E+03  2.41211E+04 -2.55175E+04  7.31220E+03 -2.72764E+04 -6.43655E+03
 -2.28975E+04 -1.58775E+04 -1.36328E+04 -1.72851E+04  3.64981E+03 -1.87274E+04  1.32222E+04 -1.88464E+04
  2.42098E+04 -1.06613E+04  3.36004E+04  2.35975E+03  2.21833E+04  2.33735E+04  3.45270E+02  3.48969E+04
 -1.59065E+04  2.83210E+04 -2.55716E+04  1.22354E+04 -2.17092E+04 -1.38078E+04 -1.95825E+03 -1.23755E+04
  1.56360E+03 -6.86883E+03 -5.26691E+03  3.91068E+03 -6.30860E+03  2.71946E+03 -1.52239E+04 -7.42215E+03
 -9.33775E+03 -1.76770E+04  3.45905E+03 -2.41641E+04  1.06399E+04 -1.72438E+04  1.73282E+04  4.16919E+03
  1.40247E+04  1.03474E+04 -7.46093E+02  1.92049E+04 -1.21096E+04  1.16290E+04 -1.88434E+04  2.19306E+03
 -1.18693E+04 -1.55952E+04  2.72102E+03 -2.16067E+04  1.11984E+04 -2.13542E+04  2.18999E+04 -7.28167E+03
  1.49023E+04  6.94897E+02  1.45689E+04  5.66994E+03  4.36206E+03  4.94997E+03  8.92704E+03  3.62430E+02
  1.70051E+04  5.18532E+03  2.18979E+04  1.49691E+04  1.02597E+04  3.09041E+04 -3.78021E+03  3.26387E+04
 -2.10461E+04  2.68672E+04 -2.96013E+04  1.20777E+04 -2.92841E+04 -2.22814E+03 -2.85820E+04 -1.50152E+04
 -1.60264E+04 -2.52184E+04  1.34889E+04 -2.21361E+04  2.23349E+04 -5.66159E+03  1.99081E+04  1.61830E+03
  9.27073E+03  1.40443E+04 -1.08254E+04  1.13659E+04 -1.86172E+04  4.30521E+03 -9.87164E+03 -1.07201E+04
  4.80950E+03 -1.20077E+04  5.13570E+03 -1.00887E+04  8.61860E+03 -1.67496E+03  9.45531E+02  7.11384E+03
 -4.07855E+03  3.37722E+03 -2.54995E+03 -1.80003E+03  1.44958E+03 -1.28745E+04  7.13339E+03 -1.19154E+04
  1.65376E+04 -5.16642E+03  1.50215E+04  4.07573E+03  1.50310E+04  7.79249E+03  7.31636E+03  1.36311E+04
  3.64615E+03  1.82674E+04 -1.66645E+04  1.31542E+04 -2.22421E+04  4.83905E+03 -8.11202E+03 -6.62063E+03
 -1.06200E+04 -6.48814E+03 -1.17555E+03 -2.89456E+03 -1.88315E+03  1.35244E+03 -3.85158E+03  4.93413E+03
 -7.06310E+03  3.18264E+03 -1.57536E+04 -9.73517E+03 -6.34511E+03 -1.27705E+04  2.53750E+03 -1.53062E+04
  9.55013E+03 -6.40807E+03  8.82446E+03  2.25800E+03 -6.03587E+02  4.44130E+03 -4.68571E+03 -2.46024E+03
 -4.28279E+03 -1.14083E+04 -1.93236E+03 -1.42044E+04  8.67986E+03 -3.45280E+03  9.34644E+03 -5.02487E+03
  1.25482E+04  5.76993E+03  1.14639E+04  1.10002E+04  6.00672E+03  1.11159E+04 -6.48086E+03  6.90499E+03
 -9.62932E+03  1.49696E+03 -5.24530E+03 -4.14328E+03  1.78522E+03 -8.12185E+03  7.99119E+03  8.28291E+02
  3.43072E+03  8.44038E+03  2.88194E+03  7.31073E+03 -6.45436E+03  1.24682E+04 -8.26525E+03  4.21056E+03
 -6.42853E+03  9.15533E+02  4.56864E+03 -5.39629E+03  2.92348E+03 -5.77623E+03  4.22815E+03  5.30991E+03
 -1.86958E+03  3.35842E+03  7.67354E+02  7.30686E+03 -1.10640E+04 -4.65576E+02 -6.78967E+03 -3.51049E+03
  1.17326E+03 -8.31267E+03  1.09582E+03 -1.10344E+04  1.16745E+04 -4.06390E+03  4.86760E+03 -3.17550E+03
  3.32439E+03  7.41148E+03 -2.78288E+03  8.85049E+03 -1.18371E+04  5.49349E+03 -1.12227E+04  3.59914E+03
 -7.22868E+03 -6.20654E+03 -1.45828E+03 -4.71821E+03  3.63900E+03 -8.44757E+03  7.80162E+03 -8.00449E+03
  3.51680E+02 -1.01232E+03 -8.89963E+02  5.69274E+03 -1.16704E+03 -2.32579E+03  1.78362E+03 -5.01520E+03
  2.34627E+03 -5.43708E+02  6.94353E+03  7.57508E+02  5.67271E+03 -7.76794E+02  1.39312E+03  1.45980E+04
  1.95071E+01  8.57689E+03 -1.01373E+04  1.11094E+04 -1.23082E+04  1.15681E+03 -8.18410E+03 -6.48605E+03
 -8.11269E+03 -1.14898E+04  3.13712E+03 -1.08727E+04  1.22530E+03 -2.13833E+03 -2.32548E+03 -2.67561E+03
  3.16681E+03 -6.53999E+03  3.77410E+03 -4.42951E+03  3.69391E+03  1.24618E+01  6.76263E+03 -2.09318E+03
  5.71440E+03  1.11008E+03  2.36524E+03  2.32274E+03  2.31518E+02  5.19244E+03 -7.41618E+03  7.33473E+03
 -7.46445E+03 -1.25164E+02 -4.79816E+03 -6.66362E+03  2.93242E+03 -7.29522E+03  1.97277E+03 -9.35907E+03
  6.91990E+03 -4.55684E+03  5.88667E+03  2.96614E+03  2.72921E+03  7.24187E+03  5.77625E+03  1.19844E+04
 -3.61027E+03  9.68403E+03 -1.82743E+03  4.23842E+03 -3.10803E+03 -6.27881E+03 -3.89001E+03  8.39639E+02
  4.17460E+03 -3.44849E+03 -3.93803E+03  5.59836E+03 -6.19425E+03 -4.88354E+02 -2.88791E+03 -1.99394E+03
 -5.38839E+03 -9.23805E+03  5.58951E+02 -1.50382E+04 -1.30433E+02 -2.72200E+03  7.57679E+03 -4.65449E+02
  7.46091E+03  2.77552E+03  7.06858E+03  4.78140E+03  3.30734E+03  6.72928E+03 -3.33596E+03  5.88304E+03
 -3.92066E+03 -1.63520E+03 -5.82570E+03 -3.33106E+03  6.06349E+02 -5.99217E+03 -4.68748E+03 -2.36420E+03
  2.50453E+03 -5.02419E+03  1.22518E+03 -3.54718E+03  4.63684E+03  9.67762E+03 -2.60110E+03  2.33159E+03
  1.74603E+03  3.52533E+03  4.49532E+03  9.88411E+02  4.19249E+03 -1.17471E+03  3.80276E+03  5.75392E+03
 -2.32008E+02  3.11762E+03 -2.03990E+03  6.86272E+03 -2.09869E+03  5.27790E+03 -2.68705E+03 -7.24429E+03
  2.83579E+03 -7.26066E+03 -2.64781E+02 -9.39797E+03  5.88452E+03 -6.12916E+03  5.04910E+03  8.41754E+02
  7.28825E+03  3.18998E+03  4.03464E+02  3.26759E+03 -6.73662E+03  1.25433E+03 -4.19002E+03  5.01613E+03
  4.70483E+03 -3.06916E+03  5.29403E+02 -1.28797E+03  3.79073E+03 -6.29626E+02  5.11847E+03  2.26480E+01
  5.15610E+03  2.77258E+03  3.10736E+02 -1.75629E+03  1.68136E+03  1.34788E+03  1.01906E+03  7.93276E+02
 -1.48979E+02 -1.04941E+03  7.89180E+03  1.05722E+03 -1.20905E+03  2.85070E+03 -7.57046E+00  3.17600E+03
 -1.69685E+03  1.78871E+03  9.06036E+02  3.79245E+03 -6.50940E+02 -2.95715E+03 -1.14014E+03 -4.94634E+03
  4.77410E+02 -5.84669E+03  1.06715E+03 -1.43367E+03 -1.15993E+01 -4.60697E+02 -1.86396E+03  4.40758E+03
 -3.66126E+03  2.27759E+03 -4.52100E+03 -1.67302E+03 -4.36685E+03 -4.23680E+03  1.85142E+03 -4.02572E+03
  5.99132E+03  6.45138E+02 -1.45581E+03  1.68352E+03  4.07011E+02  1.91715E+03  4.18880E+03  1.02652E+03
 -5.61882E+03 -1.24423E+03  2.47207E+02  1.10075E+03  3.25249E+03 -1.62571E+03  8.12544E+03 -7.21340E+02
  7.00421E+03  1.49642E+03  2.66702E+03  2.07607E+03  2.98705E+03  4.39116E+03 -3.75917E+02  6.72759E+03
 -5.77367E+03  4.01787E+03  9.96428E+02 -6.97658E+03 -2.82940E+03 -1.04732E+03 -1.49100E+03  6.73982E+02
  1.82980E+03 -4.00208E+03  4.06149E+03 -3.43394E+02  1.50367E+03  5.10802E+02  1.19471E+03  1.17971E+03
 -3.23876E+03  2.96913E+02 -3.19255E+03 -1.53849E+03  2.28194E+03  1.45197E+03 -3.42582E+03  3.57485E+03
 -4.15051E+03  2.17906E+03  2.61370E+03  2.71047E+03 -5.87199E+03  6.01955E+02 -2.35505E+03 -4.72653E+03
  3.22229E+03 -6.96272E+03 -2.15418E+02 -4.35760E+03  2.25746E+03 -3.55500E+03  3.89205E+03  5.51843E+02
  8.97650E+03 -2.93574E+02  4.58475E+03 -3.87800E+03 -3.86239E+02  1.70975E+03 -1.61147E+03  9.04509E+03
  6.45321E+02  4.48822E+01  2.51552E+02  9.18166E+02 -1.81453E+03 -4.47021E+03 -6.79968E+03  6.58868E+02
 -3.88854E+03  2.38424E+03 -2.05515E+03 -2.05909E+02 -3.41164E+03 -3.91263E+03  5.84392E+02 -4.65485E+03
  3.22441E+03  2.23271E+03  1.84814E+03 -3.90312E+03  1.99458E+03 -1.67146E+03  1.21929E+03  8.29395E+03
 -2.82294E+03  1.59422E+03 -5.41211E+03 -2.12596E+02  4.61526E+01 -2.63310E+03 -2.40192E+03 -3.34569E+03
  3.13985E+03 -4.66534E+03 -1.61421E+03 -4.54714E+03  2.83133E+02 -4.16803E+03  5.41272E+03 -2.90207E+03
  3.43683E+03  2.14570E+03  1.49052E+03  2.01980E+03 -1.11334E+03  1.86305E+03 -8.04644E+02  1.29915E+03
  4.15710E+03  4.71264E+03  2.75544E+03  3.90855E+03 -1.59652E+03  5.97570E+03  6.74994E+02 -4.35324E+03
  9.45330E+01 -2.35293E+03 -2.68117E+02 -1.26122E+03 -4.24839E+03 -5.69085E+03  2.61495E+02 -5.00490E+03
  1.14453E+03  1.04826E+02 -3.72536E+03 -4.73984E+03  4.20234E+03  3.23492E+03  3.25885E+03  4.03807E+03
  4.08536E+03  1.44291E+03 -5.38305E+02 -7.28572E+02  1.52345E+03  3.07812E+02  2.91110E+03 -6.84982E+02
 -2.06901E+03  3.59113E+03 -6.14920E+03  2.24185E+03 -5.17170E+02 -1.15131E+03 -1.79637E+03  1.80804E+03
 -8.21262E+02 -6.57162E+02 -1.76563E+03 -5.93386E+03 -6.22758E+03 -2.84981E+03  3.71195E+03 -3.42044E+03
  6.89855E+02  3.15258E+03  3.75203E+03  1.02885E+03  1.43653E+03  3.82079E+03 -3.67744E+03  1.25080E+03
