 $NMID ID='MM_0lb_SNR50_7hz_g55_75.RAW', FMTDAT='(8E13.5)'
 TRAMP=1., VOLUME=1. $END
  3.05995E+05 -3.77591E+03  3.41866E+05  2.53603E+05  8.57323E+04  3.39600E+05 -1.32597E+05  2.46456E+05
 -1.88912E+05  8.73339E+04 -1.19565E+05 -3.28345E+04  4.90397E+03 -5.19543E+04  5.27360E+04  2.19294E+03
  3.56556E+04  5.42148E+04 -2.01076E+04  7.31731E+04 -6.80524E+04  6.38440E+04 -8.63472E+04  3.12405E+04
 -7.82976E+04 -1.61275E+04 -5.96560E+04 -5.09510E+04 -1.55576E+04 -6.58765E+04  3.40432E+04 -5.44892E+04
  4.66236E+04  7.26305E+03  2.11632E+04  4.04621E+04 -3.52096E+04  5.32405E+04 -6.72226E+04  9.90204E+03
 -6.01988E+04 -6.36655E+04 -6.13166E+03 -7.30658E+04  2.63863E+04 -5.63324E+04  5.23156E+04 -1.68323E+04
  4.69298E+04  1.76589E+04  3.22082E+04  2.63028E+04  9.50675E+03  3.44200E+04 -4.88683E+03  2.67367E+04
 -2.26821E+04  9.76351E+03 -1.65010E+04  2.94477E+03  8.08231E+03 -1.18602E+04  1.83352E+04  7.71864E+03
  6.30611E+03  4.36506E+04 -3.56231E+04  3.99470E+04 -6.50826E+04  8.21391E+03 -6.11030E+04 -4.89004E+04
 -1.12427E+04 -7.31275E+04  3.61313E+04 -5.14040E+04  6.13722E+04 -7.36246E+03  3.49664E+04  2.99835E+04
 -2.88990E+03  3.79068E+04 -3.52641E+04  2.53485E+04 -3.60983E+04  1.25973E+03 -1.77690E+04 -7.09731E+03
 -1.85492E+04 -2.40509E+04 -1.37408E+03 -2.05002E+04  9.43072E+03 -2.53237E+04  6.95791E+03 -7.69519E+03
  1.06878E+04  4.16434E+03 -1.37327E+04  2.14915E+04 -1.89890E+04 -1.24351E+04 -1.14637E+04 -3.44385E+04
  1.95160E+04 -5.84850E+04  5.48310E+04 -2.35953E+04  5.00376E+04  1.50144E+04  1.50051E+04  4.65779E+04
 -1.41360E+04  3.38631E+04 -2.90920E+04  1.56857E+03 -8.55350E+03 -2.55502E+04  2.24380E+04 -3.97157E+04
  4.39193E+04 -1.44721E+04  4.70997E+04  2.32153E+04  1.77688E+04  5.76500E+04 -1.05548E+04  5.38017E+04
 -3.13945E+04  4.28687E+04 -4.75824E+04  1.39020E+04 -4.77281E+04 -1.80017E+04 -2.46955E+04 -4.75534E+04
  1.17527E+04 -4.08313E+04  3.95966E+04 -1.69651E+04  3.16727E+04  1.61974E+04  1.27164E+04  1.92951E+04
 -1.28957E+04  6.13488E+03 -1.23351E+04  4.22086E+02  5.88500E+03 -1.19282E+04  1.23236E+04  8.05229E+03
  1.29191E+04  2.13614E+04 -1.55333E+03  2.96880E+04 -2.15468E+04  1.80910E+04 -3.52422E+04 -4.77296E+03
 -2.79828E+04 -2.35047E+04 -1.10311E+04 -2.48226E+04  3.55171E+03 -2.61054E+04  2.15366E+04 -3.26807E+04
  2.88793E+04 -1.59807E+04  3.48991E+04  1.09043E+04  2.38618E+04  2.69881E+04 -5.26990E+03  5.37116E+04
 -1.76537E+04  4.00417E+04 -3.12036E+04  1.57049E+04 -2.68196E+04 -1.15743E+04  1.44664E+03 -1.11656E+04
  4.46229E+03 -3.80605E+03 -4.88297E+03  1.10776E+04 -1.41267E+04 -2.64233E+02 -2.85745E+04 -1.16327E+04
 -1.47305E+03 -2.79307E+04  7.15300E+03 -2.99435E+04  2.44138E+04 -1.83395E+04  2.46015E+04  4.60742E+03
  1.03407E+04  2.16867E+04 -6.49773E+03  2.14031E+04 -1.64103E+04  1.06137E+04 -2.48089E+04 -1.16332E+04
 -1.57236E+04 -2.79294E+04 -8.67056E+03 -2.67005E+04  1.69478E+04 -2.56690E+04  2.60152E+04 -1.42266E+04
  1.98300E+04  2.22728E+02  2.40611E+04  7.00174E+03  7.66579E+03  4.95365E+03  1.01257E+04  1.83630E+03
  2.75566E+04  3.34766E+03  3.46117E+04  2.58721E+04  2.87631E+04  4.46032E+04 -3.50596E+03  4.81385E+04
 -3.30257E+04  4.93164E+04 -4.61778E+04  2.26794E+04 -5.28196E+04 -1.09716E+04 -3.76036E+04 -3.50668E+04
 -1.28706E+04 -5.18670E+04  2.06550E+04 -3.39841E+04  3.70119E+04 -1.97674E+04  2.19262E+04  1.22717E+04
  1.76167E+04  2.16855E+04 -1.34950E+04  1.18871E+04 -1.23240E+04 -5.42873E+03 -1.60764E+04 -1.27265E+04
 -5.36941E+03 -1.63541E+04  1.25288E+04 -1.48435E+04  1.60648E+04 -3.74900E+03 -2.47437E+03  7.48699E+03
 -1.55884E+04  1.18776E+04 -7.54245E+03 -2.85403E+03 -1.75944E+03 -2.28098E+04  1.18426E+04 -2.70351E+04
  2.86385E+04 -9.75053E+03  2.92916E+04  6.27042E+03  2.77565E+04  2.30054E+04  3.70029E+03  3.03867E+04
 -3.06152E+02  4.22816E+04 -2.35018E+04  2.69828E+04 -2.24280E+04  3.36001E+03 -1.82836E+04 -1.03317E+04
 -6.38881E+03 -8.14860E+03 -1.86845E+03 -6.45529E+02 -5.14818E+03  3.46615E+03 -7.47124E+03  2.42036E+03
 -1.75094E+04  1.23635E+03 -2.37426E+04 -1.20352E+04 -5.02734E+03 -2.76899E+04  9.97477E+03 -2.46921E+04
  1.19907E+04 -8.65769E+03  1.20374E+04  3.26190E+03 -7.35850E+02  8.25029E+03 -6.16515E+03  4.64866E+02
 -1.27470E+04 -1.17538E+04 -1.12369E+04 -1.78240E+04  1.00401E+04 -2.19490E+04  3.08086E+04 -8.12546E+03
  3.04385E+04  1.46143E+03  1.92390E+04  1.21789E+04  9.41675E+03  2.31733E+04 -9.17128E+03  2.22227E+04
 -1.48225E+04  5.30979E+03 -4.12094E+03 -3.99854E+03  4.59787E+03 -5.68888E+03  5.72279E+03  3.35475E+03
  9.21263E+03  9.44118E+03  5.64101E+02  1.27179E+04 -1.63667E+04  1.22998E+04 -2.46538E+04  1.15290E+04
 -1.59500E+04 -5.81839E+03 -2.73253E+03 -2.15976E+04  1.12282E+04 -2.08094E+03  1.12771E+04  6.76894E+03
 -3.45374E+03  1.72071E+04 -6.37351E+03  1.77174E+04 -1.45429E+04  7.73015E+03 -1.83463E+04 -8.37460E+03
 -1.01336E+04 -1.71349E+04  3.34938E+03 -2.49600E+04  1.67354E+04 -1.10957E+04  2.55350E+04 -2.13127E+03
  1.58249E+04  6.47928E+03 -3.55004E+03  1.94697E+04 -1.49670E+04  9.75566E+03 -1.30695E+04  1.21795E+03
 -1.32144E+04 -1.19963E+04  7.30218E+03 -9.90265E+03  3.42168E+03 -4.81966E+03  6.84950E+03  2.27120E+03
  1.44279E+04  1.57936E+03 -8.29112E+03  8.99634E+03  1.68882E+03 -5.40617E+03  8.25681E+03 -1.31671E+04
  1.02852E+04 -2.78257E+02  1.88317E+04  2.01398E+03  1.83394E+04  8.70562E+03  8.10446E+03  2.58002E+04
 -5.31388E+03  2.30311E+04 -2.35939E+04  2.46027E+04 -3.17052E+04  5.30912E+03 -2.41883E+04 -1.05762E+04
 -1.19899E+04 -2.63568E+04 -1.96296E+03 -1.73716E+04  1.66830E+03 -2.13533E+03  2.98454E+03 -8.65206E+03
  5.88670E+03 -5.93549E+03  3.89051E+03 -3.22886E+03  6.50021E+03 -6.64198E+03  1.15170E+04  4.80517E+03
  1.70011E+04 -1.05080E+03 -3.41374E+02  1.20773E+04 -5.74111E+03  1.47354E+04 -1.42812E+04  1.08879E+04
 -1.86128E+04  7.83297E+02 -1.45234E+04 -1.65389E+04 -3.48408E+03 -1.76166E+04  1.34073E+04 -1.29192E+04
  2.06126E+04 -1.99620E+04  1.59372E+04  4.40896E+03  1.29984E+04  1.18723E+04  1.09203E+03  1.94837E+04
 -2.36879E+03  1.73338E+04 -9.94467E+03  7.65647E+03 -1.11339E+04 -6.57326E+03 -9.69624E+03 -5.45828E+03
  1.05624E+03  4.53375E+03 -5.92240E+03  6.20418E+03 -3.96800E+03  4.39770E+03 -1.23204E+04  3.79432E+03
 -6.48157E+03 -7.07181E+03 -5.71060E+03 -1.29706E+04  1.25340E+04 -1.23139E+04  1.87150E+04 -6.43179E+03
  1.75330E+04  1.69796E+03  1.37276E+04  1.89852E+04 -7.36956E+02  1.58535E+04 -1.14532E+04  4.39520E+03
 -2.34698E+04  6.20702E+03 -1.47692E+04 -7.36448E+03  6.00446E+03 -1.12397E+04  5.67820E+03 -1.10613E+04
  1.40260E+04 -4.75573E+03  8.80330E+03  4.79459E+03  5.73846E+03  1.03071E+04  1.14944E+03  4.36850E+03
  5.29192E+03 -8.64143E+02  1.00361E+04  1.86577E+03  1.12276E+04 -1.28080E+03  1.08009E+04  5.87201E+03
 -2.46760E+02  1.92517E+04 -1.45380E+04  1.16737E+04 -1.78548E+04  6.09959E+03 -2.18208E+04 -8.60646E+03
 -1.23119E+04 -2.51941E+04  2.86364E+03 -2.31963E+04  1.32868E+04 -1.15173E+04  1.48751E+04  3.70137E+03
  9.59400E+03  7.60340E+03  1.22170E+04  5.51158E+03 -1.15494E+04  1.32652E+04 -1.17692E+04 -4.28434E+03
 -5.75978E+03 -6.53280E+03  2.43113E+03 -7.75351E+03  6.16631E+03 -5.51412E+03  1.33412E+04 -2.81416E+03
  9.62633E+03  9.74590E+03 -1.67911E+03  3.37726E+03  5.06260E+03  6.28415E+03 -6.24405E+03  6.84552E+03
  1.12079E+04 -1.96478E+03  6.83021E+03  8.26262E+03  1.21584E+04  1.37168E+04 -5.10394E+03  1.19515E+04
 -4.94157E+03  1.01536E+04 -7.04326E+03  4.13953E+03 -1.25570E+04 -9.48933E+03 -3.28830E+03 -9.73059E+03
 -6.66460E+02 -1.21632E+04  4.72051E+03 -4.55516E+03  2.88712E+03  1.90746E+03 -2.20950E+03  5.27626E+03
 -1.05437E+04  7.80239E+03 -9.76736E+03 -1.26812E+04 -8.11622E+03 -1.38398E+04  1.93701E+02 -1.38393E+04
  1.70462E+04 -1.04356E+04  1.66056E+04  2.34636E+03  5.12291E+03  3.20013E+03 -2.45182E+03  7.65441E+03
  3.00210E+03  2.77097E+03 -1.24433E+04  6.00147E+01  5.36052E+03 -4.97701E+03  1.46882E+04 -4.05680E+03
  2.12645E+04 -9.71508E+02  8.25312E+03  1.06194E+04 -2.17166E+03  1.59998E+04 -1.99358E+03  1.44184E+04
 -1.32844E+04  8.18118E+03 -1.13017E+04 -3.79030E+03  5.44228E+02 -1.25776E+04  2.86590E+03 -1.08934E+04
  1.54910E+03 -7.20756E+02  3.86910E+03  5.06334E+03  4.34364E+03  3.54335E+03  2.18290E+03  3.08785E+03
 -3.64000E+03  2.48275E+03 -8.10917E+02 -5.51101E+03 -2.38098E+02 -5.01361E+02 -1.97011E+03  5.87650E+03
 -9.72028E+03  5.39452E+03 -1.47314E+04  5.71344E+03 -2.03315E+04  2.96589E+03 -8.56414E+03 -1.21954E+04
 -3.06269E+03 -2.52206E+04  8.73487E+03 -1.63971E+04  1.42197E+04 -1.74122E+04  2.79109E+04 -8.21794E+03
  1.47750E+04  1.56195E+03  1.28657E+04  9.95149E+03  4.00968E+03  1.97950E+04 -3.32487E+03  1.15509E+04
 -2.36416E+03  1.51662E+03 -3.73732E+03 -6.33055E+03 -3.56822E+03 -5.85388E+03 -5.75680E+03 -1.74418E+03
 -1.64771E+02 -2.69795E+02 -6.02715E+03 -1.26012E+02 -7.55222E+02 -1.40638E+03  6.16160E+03 -8.23632E+03
  9.37114E+03 -8.44635E+03  3.84887E+03 -6.48680E+03  1.12987E+04  4.45870E+03  6.41667E+03  1.53289E+04
 -1.49648E+04  1.39214E+04 -1.19965E+04  1.65790E+04 -2.53177E+04 -4.17724E+03 -1.02468E+04 -1.00840E+04
 -5.66545E+03 -6.77046E+03  7.48601E+03 -1.87975E+04  1.16827E+04 -5.55021E+03  1.33238E+04 -2.76598E+03
 -1.98664E+03  3.77740E+03 -3.25308E+03  5.31365E+03 -1.83235E+03  2.98238E+03  9.62959E+02  2.86644E+02
  6.84259E+03 -3.27006E+03  9.83783E+03 -4.97900E+02  7.18598E+03  2.83712E+03  7.54561E+03  8.38254E+03
 -7.01981E+03  1.12116E+04 -1.42384E+04  4.11243E+03 -3.81699E+03 -1.11237E+04 -2.97815E+03 -1.74343E+04
  4.52746E+03 -1.16204E+04  6.52569E+03 -6.89494E+03  1.95212E+04  5.34837E+02  9.37155E+03  8.88131E+03
  5.41990E+03  1.02344E+04  6.66888E+02  9.06751E+03  7.39913E+02  7.14630E+02 -5.22022E+03  1.04711E+04
 -7.43942E+03  5.52450E+03 -1.10995E+03  5.26157E+03 -7.15689E+03  3.69547E+03 -1.28662E+04  1.00166E+03
 -7.00840E+03 -5.06697E+03 -3.00139E+03 -3.37624E+03  7.92794E+03 -8.65540E+03  1.03422E+03 -4.43456E+03
  1.05893E+04 -3.89677E+03  7.57916E+03  5.12868E+03 -1.66445E+03  1.20626E+04 -6.60730E+03  1.41861E+04
