 $NMID ID='MM_0lb_SNR50_17hz_g60_64.RAW', FMTDAT='(8E13.5)'
 TRAMP=1., VOLUME=1. $END
  3.10429E+05  5.13957E+03  3.37008E+05  2.50172E+05  8.64696E+04  3.35521E+05 -1.29618E+05  2.51081E+05
 -1.85604E+05  8.43387E+04 -1.13016E+05 -3.51449E+04  8.59772E+02 -4.91196E+04  5.41751E+04 -2.54316E+02
  3.82870E+04  5.29922E+04 -1.39523E+04  7.35436E+04 -5.84541E+04  6.39570E+04 -8.34056E+04  2.80129E+04
 -7.96245E+04 -8.76525E+03 -5.32652E+04 -5.09314E+04 -1.80920E+04 -6.99975E+04  3.20306E+04 -5.02100E+04
  4.19394E+04  5.28112E+03  1.89703E+04  4.96627E+04 -3.53988E+04  4.79490E+04 -6.37303E+04 -2.29756E+03
 -4.99009E+04 -5.38578E+04 -1.28808E+02 -7.35921E+04  3.50759E+04 -5.08062E+04  5.10018E+04 -1.73917E+04
  4.12223E+04  1.35490E+04  3.24485E+04  2.76801E+04  9.57320E+03  2.93346E+04 -1.00503E+04  2.25539E+04
 -2.08698E+04  1.10239E+04 -1.64282E+04 -7.39370E+03  5.65828E+03 -1.01992E+04  2.42023E+04  1.15859E+04
  4.23334E+03  3.54379E+04 -3.17612E+04  3.80579E+04 -6.11756E+04  2.68226E+03 -6.01603E+04 -4.12525E+04
 -1.08753E+04 -6.08018E+04  4.01549E+04 -4.46995E+04  6.04197E+04 -7.74142E+03  2.72009E+04  3.45522E+04
 -9.51690E+03  3.69352E+04 -3.10438E+04  1.61539E+04 -3.23293E+04 -3.29065E+03 -1.81584E+04 -1.25915E+04
 -8.28995E+03 -1.29197E+04 -4.61044E+03 -2.07600E+04  4.94088E+03 -2.45440E+04  9.65955E+03 -1.45835E+04
  1.21648E+04  7.02596E+03 -8.79178E+03  9.35563E+03 -2.36487E+04 -5.21280E+03 -2.72802E+03 -3.13520E+04
  2.25874E+04 -4.37480E+04  5.19768E+04 -2.02187E+04  4.49376E+04  1.97911E+04  1.50624E+04  4.28792E+04
 -1.45471E+04  3.66079E+04 -2.45924E+04 -2.17244E+02 -9.98771E+03 -2.93660E+04  1.29575E+04 -3.31794E+04
  4.44630E+04 -1.25255E+04  3.31833E+04  2.58961E+04  1.60257E+04  4.37570E+04 -2.10999E+03  5.09097E+04
 -3.18379E+04  3.39564E+04 -3.81509E+04  1.11392E+04 -4.74642E+04 -1.97206E+04 -2.07053E+04 -3.59833E+04
  4.72488E+03 -3.61507E+04  2.84523E+04 -1.30723E+04  2.49571E+04  1.50203E+04  7.75659E+03  2.00492E+04
 -1.73337E+04  1.23680E+04 -1.08111E+04 -2.64457E+03  6.29811E+03 -1.19707E+04  1.55200E+04  9.97661E+02
  1.06609E+04  1.97959E+04 -7.31371E+03  2.86671E+04 -2.28085E+04  9.60638E+03 -2.66872E+04 -5.71775E+03
 -2.02522E+04 -1.95026E+04 -1.27095E+04 -1.71299E+04  3.66209E+03 -1.91695E+04  1.43021E+04 -1.47178E+04
  2.49179E+04 -1.43898E+04  3.15634E+04  1.07065E+03  2.56558E+04  2.13186E+04  2.63209E+03  3.68185E+04
 -1.82201E+04  2.89775E+04 -2.27843E+04  1.15826E+04 -1.79203E+04 -1.42105E+04 -7.66794E+03 -1.23438E+04
  4.06941E+03 -1.99070E+03 -3.53231E+03  1.10248E+04 -1.71020E+04  9.48590E+03 -1.60595E+04 -5.01666E+03
 -7.08413E+03 -1.52760E+04  3.99507E+03 -2.34807E+04  1.94553E+04 -1.28848E+04  1.81895E+04 -2.04580E+03
  8.95634E+03  9.10879E+03 -3.48498E+03  1.99697E+04 -9.80881E+03  1.10093E+04 -1.78021E+04 -3.45662E+03
 -1.51779E+04 -1.41679E+04 -2.39003E+03 -2.02567E+04  9.55851E+03 -1.60428E+04  2.06287E+04 -8.66471E+03
  1.83025E+04 -2.08175E+02  1.35696E+04  2.21783E+03  6.75914E+03 -9.02302E+02  9.46834E+03 -1.29658E+03
  1.57443E+04  2.74003E+03  1.57776E+04  6.64689E+03  8.28916E+03  2.76294E+04 -4.57834E+03  2.80792E+04
 -1.54479E+04  2.94360E+04 -2.70292E+04  1.09924E+04 -2.81923E+04  7.53724E+02 -2.35486E+04 -1.51384E+04
 -1.13449E+04 -2.46927E+04  6.95074E+03 -2.05875E+04  1.24764E+04 -1.50618E+04  2.04080E+04  5.42021E+03
  1.10055E+04  1.41894E+04 -1.06558E+04  1.21152E+04 -1.74560E+04 -7.42619E+02 -1.34340E+04 -8.19161E+03
  1.09968E+03 -9.15960E+03  8.86098E+03 -1.15832E+04  8.55746E+03  2.96021E+02  2.06235E+03  8.33662E+03
 -4.95781E+03 -5.66608E+01 -4.51794E+03 -4.49329E+03  1.03799E+03 -1.14436E+04  5.36364E+03 -1.26136E+04
  1.10575E+04 -5.12453E+03  1.54051E+04  1.66880E+03  1.35940E+04  1.15291E+04  5.25904E+03  1.66490E+04
 -4.47806E+03  1.97287E+04 -1.45676E+04  1.25568E+04 -1.34039E+04  5.77103E+03 -8.64093E+03  1.35399E+03
 -3.92429E+03 -4.93520E+03 -4.03951E+03  1.00255E+03 -3.51873E+02  3.30211E+02 -4.52760E+02  5.94894E+03
 -1.20363E+04  3.46958E+03 -9.24450E+03 -7.68426E+03 -5.34503E+03 -9.87871E+03  3.64981E+03 -1.15975E+04
  1.02884E+04 -2.19298E+03  5.23158E+03  1.13512E+03  3.51728E+02  2.48175E+03 -5.46118E+03 -2.74696E+03
 -1.06855E+04 -3.23948E+03  2.27690E+03 -9.90507E+03  8.70514E+03 -1.35999E+04  1.32656E+04 -4.73118E+03
  1.02697E+04  2.69126E+03  1.11540E+04  6.71106E+03  3.30942E+03  9.73271E+03 -4.62139E+03  1.10193E+04
 -1.34641E+04  7.15607E+02 -7.45803E+02 -3.03512E+03  1.96945E+02 -1.99924E+03  6.88104E+03 -1.23601E+03
  9.00893E+02  8.29593E+03  1.39643E+03  8.40263E+03 -4.11479E+03  9.25345E+03 -1.10816E+04  2.31026E+03
 -7.47183E+03 -5.49953E+03  2.34277E+03 -9.52303E+03  3.28749E+03 -1.38446E+03  7.10008E+03  1.16527E+03
  1.46277E+03  6.45480E+03 -6.10295E+03  5.20017E+03 -9.74871E+03 -9.87683E+02 -9.22406E+03 -1.17238E+02
 -4.67484E+03 -7.39372E+03  2.75927E+03 -1.05146E+04  8.74660E+03 -4.83338E+03  1.03424E+04  2.36985E+03
  5.24398E+03  6.53549E+03 -6.85488E+03  8.04050E+03 -2.94785E+03  5.86785E+03 -7.37485E+03 -2.17094E+03
 -5.41104E+03 -4.38370E+03  1.07363E+03 -7.04780E+03  2.35401E+03 -8.58876E+03  2.73847E+03 -2.79333E+03
  2.19161E+03 -3.16711E+03  2.32008E+03  6.41851E+03  9.45342E+02 -2.08458E+03  1.90663E+03 -1.93634E+03
  3.83900E+03 -7.72271E+02  7.06539E+03 -8.33622E+02  8.81111E+03  3.10562E+03  2.25286E+03  7.64777E+03
  2.38904E+03  1.01530E+04 -7.71972E+03  8.06699E+03 -1.04759E+04  3.44330E+02 -7.87254E+03 -6.63941E+03
 -6.51772E+03 -1.43813E+04  2.14752E+03 -5.55700E+03  1.88932E+03 -4.06266E+03  2.12280E+03 -4.78333E+03
  2.05901E+03 -2.76804E+03  1.46368E+03 -2.28676E+03  2.38514E+03 -5.82511E+03  3.42531E+03  1.36353E+03
  2.98207E+03  2.52361E+03  4.03980E+03  6.61221E+03 -4.62846E+03  5.05931E+03 -6.45163E+03  5.54765E+03
 -6.29052E+03  4.32039E+02  6.60136E+01 -9.71881E+02  3.45304E+03 -5.64080E+03  2.52450E+03 -1.24931E+04
  7.67008E+03 -8.74449E+03  6.74345E+03  7.09464E+02  4.35911E+03  8.41217E+03 -2.72579E+03  4.35978E+03
 -1.63042E+03  6.69016E+03  8.47210E+02  1.23635E+03 -3.27927E+03  1.32851E+03  2.81343E+03  1.31000E+03
  3.54182E+02 -2.79009E+02 -2.74565E+03  4.40162E+03  1.09130E+03 -5.59017E+02 -6.05876E+03 -3.31603E+03
 -1.27450E+03 -7.21188E+03  2.42227E+02 -5.44570E+03  1.77459E+03 -7.33539E+03  5.34935E+03 -1.87681E+03
  6.27177E+03  4.08746E+03  1.67462E+03  4.14327E+03 -2.41053E+03  5.33219E+03 -3.41438E+03 -1.50174E+03
 -5.42132E+03  2.25523E+03 -7.37531E+03 -5.87090E+03  2.68012E+03 -5.29206E+03  4.29818E+02 -5.06254E+03
  1.00753E+04 -3.32041E+03  1.00303E+03 -7.94764E+02  2.13881E+02  3.33039E+03 -9.21297E+02  9.97188E+02
  3.36159E+03 -1.50097E+03  2.65233E+02 -2.55671E+02 -1.90438E+03  5.03040E+03  3.05218E+02  1.39514E+03
 -2.97320E+02  7.91418E+03 -3.57903E+03  1.03859E+04 -6.37721E+03 -1.98360E+03 -8.20873E+03 -3.78891E+03
 -1.83997E+03 -7.51649E+03 -6.04483E+02 -6.33989E+02  5.60164E+03 -2.40058E+03  2.90337E+03 -4.77642E+02
  7.79829E+03  3.02341E+03 -5.15116E+02  4.24055E+03 -2.04912E+03  2.45125E+03  1.57257E+03  1.20115E+03
 -9.73312E+02  4.14067E+02 -2.13176E+03  5.38746E+02  3.14159E+03 -7.21570E+02 -2.39557E+03  9.88199E+02
  2.20041E+03 -1.63828E+02 -5.51635E+03 -7.38343E+02  5.03274E+03 -4.04155E+03  2.08551E+02 -1.20094E+03
 -6.04011E+02 -1.72457E+03  4.70965E+03  8.19164E+02  8.92777E+01  1.47654E+03 -1.14171E+03  3.53515E+03
  4.10301E+02 -1.95000E+03 -8.72180E+02 -7.79133E+02 -2.32580E+03  1.18308E+03  2.52346E+03  1.40372E+03
  4.89795E+03 -9.49090E+03  2.22691E+03  1.61265E+03  5.86635E+03 -7.04409E+02 -3.97287E+03 -1.52072E+03
 -1.87695E+03 -9.91889E+00 -6.72108E+03 -6.55997E+03 -2.89487E+03 -4.06953E+02 -1.96331E+03 -1.74510E+03
  8.99408E+02  1.71671E+03  5.15726E+02  4.89465E+02  2.14354E+03  3.17085E+03 -1.10169E+02  6.35950E+02
 -4.32034E+03 -5.32080E+03  4.64557E+02 -3.60326E+02  1.15388E+03  6.28652E+02 -4.18457E+02 -2.02992E+03
  3.05291E+03 -1.93269E+03 -3.57391E+02  3.56207E+03  2.14303E+03  4.34137E+03 -2.89375E+03  6.50396E+03
 -3.35055E+03  1.52288E+03 -5.15882E+03 -1.30821E+03 -2.06442E+03 -1.08012E+04  2.08415E+03  1.99387E+03
 -6.07205E+02  9.83322E+02  1.71080E+03  1.06348E+03  1.77872E+03  1.49890E+03  1.37971E+03 -2.99750E+02
 -3.81903E+03  3.03934E+03  1.59518E+03 -3.46911E+03 -1.05053E+03  1.79762E+03 -7.83200E+02  5.58132E+03
 -9.02942E+02  2.86095E+03 -1.90963E+03 -1.42603E+03 -1.53067E+03 -2.68921E+03  2.95314E+02 -2.35118E+03
 -4.86849E+03 -3.54602E+03  3.14728E+03 -1.63226E+03  1.10358E+03 -4.04885E+03  3.50030E+03  8.29871E+02
  6.74196E+03 -2.09158E+03  1.00543E+03  5.04430E+03 -1.67463E+03  7.62074E+02  1.92037E+02  6.35166E+03
 -3.36512E+03  1.18022E+03 -3.11724E+03 -2.14222E+03  1.29213E+03  1.89055E+03  6.83034E+02 -2.99095E+02
 -3.20835E+03 -4.08442E+03 -3.42459E+03  1.12363E+03 -2.01305E+03 -1.50604E+03  4.21471E+02 -2.74737E+03
 -1.06049E+02 -7.53627E+02 -2.62157E+03 -3.91951E+02  3.91670E+03 -1.28732E+02 -4.59237E+02 -1.76698E+03
  7.42319E+01  3.23855E+03 -6.10521E+02  3.03065E+03 -2.85586E+03  3.67119E+02 -4.41692E+03 -4.99878E+03
 -4.33620E+02  3.60964E+02 -5.25854E+02 -3.17330E+03  1.72349E+03 -2.00137E+03 -2.62308E+03  6.67738E+02
  3.69321E+03  2.15740E+03 -4.72165E+03  6.11627E+02  4.77081E+02  2.20324E+03  1.97928E+03 -3.60813E+03
 -2.22901E+03 -8.11630E+02  2.15479E+02 -9.16936E+02 -1.29318E+03 -8.70898E+02  5.10801E+02 -2.71828E+03
 -1.22084E+03  2.42273E+03 -2.45100E+03  3.31509E+03 -3.47965E+03 -2.27891E+03 -5.26360E+02  9.66812E+02
  3.18553E+03 -4.20096E+03 -3.32307E+03  1.51266E+03  1.24595E+03 -3.30713E+03  4.05337E+03  1.42561E+03
  3.59117E+03  2.61069E+01  1.72820E+03  2.94048E+02 -2.02585E+03 -1.26296E+03 -7.57107E+02  4.33253E+01
 -1.53733E+03 -5.99452E+03 -1.00516E+03  1.66610E+03  1.81975E+03 -1.11876E+03  1.37071E+03 -2.77657E+03
  1.88729E+02 -1.84447E+03 -2.44389E+03 -2.91177E+03 -1.66785E+03 -5.00941E+03  2.74253E+03  7.35588E+02
 -3.39996E+03 -5.08119E+03  1.53486E+03  2.36170E+03  2.35748E+03  2.34972E+03 -1.63399E+03  1.88753E+03
