 $NMID ID='MM_0lb_SNR50_19hz_g45_27.RAW', FMTDAT='(8E13.5)'
 TRAMP=1., VOLUME=1. $END
  3.06665E+05 -2.07777E+02  3.34154E+05  2.49134E+05  8.83330E+04  3.39527E+05 -1.34060E+05  2.48608E+05
 -1.93581E+05  8.45233E+04 -1.13465E+05 -3.11656E+04 -1.96170E+03 -5.33872E+04  5.30936E+04 -5.54409E+03
  3.20319E+04  4.77608E+04 -1.86051E+04  7.47573E+04 -6.07194E+04  6.14588E+04 -8.60255E+04  3.17865E+04
 -7.91144E+04 -1.16090E+04 -5.47243E+04 -5.42119E+04 -1.62296E+04 -6.51941E+04  2.97529E+04 -4.63840E+04
  4.09711E+04  4.71739E+03  2.05462E+04  4.43632E+04 -3.32054E+04  4.35966E+04 -6.49541E+04 -2.29273E+03
 -4.98368E+04 -5.96662E+04 -7.84121E+03 -7.37130E+04  3.38124E+04 -5.33414E+04  4.59768E+04 -1.35097E+04
  4.34735E+04  6.70531E+03  3.09219E+04  2.52075E+04  1.52977E+04  2.74387E+04 -4.72976E+03  2.69106E+04
 -2.70801E+04  8.47897E+03 -1.55248E+04 -1.96040E+03  4.07233E+03 -6.58472E+03  1.69886E+04  9.61919E+03
  9.01526E+03  3.67292E+04 -2.78096E+04  2.98335E+04 -6.24258E+04  2.84470E+03 -5.29692E+04 -4.05797E+04
 -1.34845E+04 -5.98015E+04  4.10304E+04 -4.14688E+04  5.41473E+04  1.21209E+03  2.77332E+04  3.47536E+04
 -6.28787E+03  3.60084E+04 -2.56527E+04  8.67718E+03 -2.79071E+04 -5.82971E+03 -1.56352E+04 -6.45340E+03
 -5.35141E+03 -7.49673E+03  1.90963E+03 -1.86568E+04  5.79545E+03 -2.60903E+04  1.23187E+04 -1.50817E+04
  1.63147E+04  1.04836E+02 -7.21410E+03  1.33813E+04 -1.72413E+04 -8.64929E+03 -8.86098E+03 -3.34513E+04
  1.96339E+04 -3.72651E+04  4.06677E+04 -1.59108E+04  4.14647E+04  1.79620E+04  1.05088E+04  4.13956E+04
 -1.85918E+04  3.14743E+04 -2.19001E+04  1.42704E+02 -1.18421E+04 -2.73152E+04  1.98045E+04 -2.79239E+04
  3.41559E+04 -7.52461E+03  2.85553E+04  2.57338E+04  1.82080E+04  3.91440E+04 -1.05841E+04  4.55968E+04
 -2.99193E+04  2.68778E+04 -3.82712E+04  8.52626E+03 -4.26476E+04 -1.84984E+04 -2.32790E+04 -3.36337E+04
  5.75087E+03 -3.77449E+04  3.07472E+04 -1.30671E+04  2.70041E+04  8.90628E+03 -4.27107E+02  1.30868E+04
 -2.06195E+04  8.54039E+03 -8.81401E+03 -7.85039E+03  3.20971E+03 -1.10451E+04  1.75956E+04  4.41810E+03
  8.47060E+03  1.70933E+04 -9.15403E+03  2.24244E+04 -2.02709E+04  4.52928E+03 -2.03693E+04 -4.43269E+03
 -1.61112E+04 -1.79009E+04 -3.38099E+03 -1.20109E+04  5.59295E+03 -1.36147E+04  1.32389E+04 -1.42636E+04
  2.32932E+04 -1.35655E+04  2.37238E+04 -1.65463E+03  2.35256E+04  1.64211E+04  5.99880E+03  2.95311E+04
 -1.64895E+04  2.90749E+04 -2.59242E+04  7.57543E+03 -1.88607E+04 -9.60552E+03 -5.85249E+03 -1.32064E+04
  5.40129E+03 -1.93796E+03 -4.13974E+03  4.06762E+03 -1.12891E+04  4.62952E+03 -1.22154E+04 -6.33682E+03
 -1.21951E+04 -1.83501E+04  4.47236E+03 -1.64570E+04  1.38240E+04 -1.59178E+04  1.58562E+04  2.66563E+03
  8.96503E+03  1.00072E+04  3.72000E+02  1.83470E+04 -5.94229E+03  9.46663E+03 -1.57727E+04  1.58582E+03
 -1.11134E+04 -1.47570E+04 -3.69056E+03 -2.02663E+04  9.12235E+03 -1.36121E+04  1.42961E+04 -9.38330E+03
  1.49606E+04  3.30797E+03  5.66931E+03  1.32278E+03  3.32638E+03 -1.34608E+03  8.08486E+03 -6.63033E+03
  1.51172E+04  5.89339E+03  1.79618E+04  9.41888E+03  1.45077E+04  1.99440E+04 -4.58134E+03  2.32187E+04
 -1.38224E+04  2.00597E+04 -2.08332E+04  1.10687E+04 -2.21529E+04  1.35915E+03 -2.42038E+04 -1.00081E+04
 -1.20920E+04 -1.87983E+04  9.75309E+03 -1.71518E+04  1.58307E+04 -9.87159E+03  1.43815E+04 -2.55897E+03
  5.77666E+03  5.90031E+03 -2.54967E+03  1.08753E+04 -1.20276E+04  5.39867E+03 -1.66214E+04 -1.08945E+04
  2.14465E+02 -1.15201E+04  7.77692E+03 -8.45423E+03  6.91486E+03 -2.35679E+03  2.81053E+03  7.79718E+03
 -4.69540E+03  3.07970E+03 -3.92842E+03 -1.07063E+03  2.51686E+03 -1.24175E+04  8.27401E+03 -9.51391E+03
  7.81316E+03 -2.58258E+03  9.62191E+03 -1.07032E+03  1.10074E+04  1.03686E+04  3.37316E+03  1.43780E+04
  4.17485E+02  1.91775E+04 -1.29966E+04  7.92019E+03 -9.70403E+03  5.22373E+03 -5.62870E+03 -3.47570E+03
 -2.55093E+03  2.48475E+03  2.73591E+03  5.99367E+02 -5.81980E+03  4.99557E+03 -5.42304E+03  5.45386E+03
 -7.98521E+03  3.50754E+03 -8.06568E+03 -7.79084E+03 -2.53366E+03 -1.04914E+04  1.73957E+03 -6.04599E+03
  8.15978E+03 -5.74378E+03  4.86614E+03  6.07726E+03  2.83790E+02  5.70624E+03 -2.48864E+03  6.62838E+02
 -2.48343E+03 -4.81741E+03  1.56782E+03 -8.47926E+03  3.29534E+03 -9.84219E+03  6.53210E+03 -2.92458E+03
  1.14658E+04 -1.31725E+03  3.75326E+03  8.70770E+03  1.45831E+03  5.22274E+03 -5.01956E+03  8.29476E+03
 -5.62575E+03 -5.78723E+01 -2.94886E+03 -1.08369E+03  4.79008E+03 -6.15066E+02  6.11368E+03 -1.97368E+03
  9.75811E+03  1.91931E+03  7.76880E+01  7.02124E+03 -7.72899E+03  7.02683E+03 -5.39970E+03  8.18476E+02
 -2.09979E+03 -7.33872E+03  2.04485E+03 -4.13684E+03  2.02045E+03 -2.34270E+03  2.47884E+03  4.26292E+03
  3.31343E+03  4.89301E+02 -2.81123E+03  5.15649E+03 -5.87153E+03  6.69951E+03 -3.43019E+03 -2.93051E+03
  5.92135E+02 -8.77542E+03 -4.07323E+03 -4.85395E+02  3.87832E+03 -6.10655E+03  7.22354E+03  3.91387E+03
  6.33520E+03  7.65203E+03 -3.17437E+02  1.01403E+04 -4.83555E+03  4.76072E+03 -3.90178E+03 -2.25511E+03
 -2.54486E+03 -3.65302E+03 -2.70140E+03 -3.33325E+03 -1.62802E+02 -7.27802E+03  1.45404E+02 -4.01088E+03
  2.24400E+03 -1.39897E+03  1.40355E+03 -4.37169E+03  3.06072E+03  1.61205E+02 -3.67430E+02 -8.40302E+02
  5.05150E+03 -1.50554E+03  6.16956E+03  3.10032E+03  5.61640E+03  3.61863E+03  1.30700E+03  8.39065E+03
 -3.51484E+03  5.82704E+03 -4.96904E+03  1.03094E+04 -7.56873E+03  4.06741E+03 -3.13558E+03 -3.70794E+03
 -4.02373E+03 -7.73300E+03 -3.24193E+03 -3.72883E+03 -1.37752E+03 -2.12681E+03 -2.55129E+02 -2.91545E+03
  6.20417E+02 -2.22909E+03  2.70021E+03 -4.44057E+03  1.48057E+03 -2.56775E+03  1.40984E+03 -6.69580E+02
  3.87772E+03  1.94928E+03  2.00559E+03  1.33137E+03 -4.45784E+03  2.61305E+03 -6.72913E+03  1.88986E+03
 -5.07852E+03  3.05048E+02  1.36318E+03 -3.20330E+03  6.75865E+02 -3.29915E+03  3.39877E+03 -3.24515E+03
  5.68741E+03 -9.61058E-01  5.30789E+03  1.57848E+03  1.02294E+03  4.24638E+03  2.81327E+03  8.55874E+03
  8.58783E+02  2.62816E+03 -2.89789E+03  1.40381E+03 -9.58900E+02  8.01414E+02 -2.26890E+03 -3.20542E+03
 -8.97233E+01 -6.90875E+02 -6.18442E+03 -3.39696E+02  9.67425E+01  3.92838E+02 -2.01244E+03 -2.79568E+03
 -2.82752E+03 -5.71035E+03  8.25310E+00 -1.90138E+03  3.92431E+03 -4.25094E+03 -6.24575E+02 -1.30756E+03
 -5.96474E+02  2.52349E+03  4.79828E+03  3.63325E+03 -1.67898E+03  8.53971E+03 -2.39314E+03 -3.43007E+03
 -1.27852E+03  2.52182E+03 -1.92107E+03 -3.91859E+03 -3.22193E+03 -8.36812E+03 -2.35263E+03  6.64842E+02
 -2.41957E+02 -3.25406E+03  3.51204E+03 -1.02199E+03  3.99395E+02 -4.56249E+02  3.69694E+03  3.68078E+03
  6.46737E+02  3.14125E+03  7.13509E+02  3.81881E+03  8.47547E+01  2.60123E+03 -3.38443E+03  1.84525E+03
 -2.42376E+03  6.43635E+03 -3.64293E+02  7.26233E+03 -7.11944E+02  4.51270E+02 -6.81959E+03  1.11479E+02
  1.32148E+03 -5.79320E+03  1.83312E+03 -4.47779E+03  7.70606E+02 -4.18858E+03  6.90979E+03  4.93999E+02
  1.51812E+03 -8.59163E+02  9.56447E+02  2.04791E+03 -3.16301E+03 -7.19561E+02 -1.90431E+02  2.04547E+03
 -1.85570E+03  2.60454E+03 -1.09034E+02 -3.29901E+02  2.83091E+03 -1.59969E+03 -6.42327E+02 -3.13878E+03
  4.50717E+03  1.51357E+03 -1.74236E+03 -1.66242E+03  1.73634E+03  3.72519E+03  1.39284E+03 -3.71287E+03
 -7.61944E+01  6.45023E+02  2.25224E+03 -5.10583E+02 -9.76646E+02  2.31971E+03  5.65925E+02 -9.01617E+02
 -3.03162E+03  4.16123E+03  4.57552E+02 -2.23384E+03 -3.86490E+03 -3.73929E+03  1.17912E+03 -3.99300E+03
 -4.82820E+02  1.54905E+03 -1.09860E+03  2.17028E+03  2.79670E+03 -1.93700E+03  3.94189E+03 -1.01732E+03
 -8.27655E+02 -1.38943E+03 -6.25946E+02  4.04740E+02  1.88984E+03 -4.39195E+03  1.45588E+02 -1.06545E+03
  8.55640E+01 -3.78325E+02  8.97035E+02  2.19991E+03  2.63128E+03  3.39912E+03  1.32900E+03  2.19320E+03
  1.83561E+03 -2.60252E+03  1.60918E+03 -1.43610E+03  3.97165E+03 -5.55107E+02  3.27703E+03  9.88797E+02
  3.91206E+03  2.91085E+03  3.26391E+03 -5.09568E+01  4.18318E+02 -1.20628E+02  1.64912E+03  3.18719E+03
 -2.28347E+03 -3.17071E+03 -4.42677E+02 -3.35777E+03  7.80488E+02 -9.78550E+02  2.44773E+03  2.11645E+03
  7.67321E+02  3.92098E+02 -1.15479E+03  1.19777E+03  2.75427E+03 -4.54691E+03 -2.12548E+03  3.52696E+03
 -8.84550E+02  1.94309E+03 -1.93716E+03  3.33295E+03 -4.12869E+02 -1.72099E+03 -3.44548E+02 -8.95757E+02
 -2.14525E+02 -1.44184E+03 -6.45877E+03 -2.39186E+02 -7.44375E+02 -2.31341E+02 -3.53571E+03  4.59322E+02
 -1.13553E+03 -2.44651E+01  3.37219E+03 -2.23575E+03 -2.28569E+02  5.92895E+01  6.69421E+03 -3.83819E+03
  4.17415E+03  2.76020E+03  1.27770E+03 -3.79013E+02 -2.34904E+03 -1.15226E+03 -3.67464E+02  6.71039E+02
  4.39923E+03 -2.50777E+02  8.34248E+02  5.36531E+02  3.42336E+02  3.45075E+03 -4.88254E+01  3.26236E+02
  1.98593E+03 -3.83509E+03 -1.05400E+03  3.40061E+01  1.78611E+03  4.98810E+02 -2.27068E+03 -4.58671E+02
  6.18609E+02  3.61544E+03  2.88633E+03  4.35579E+03 -1.29519E+03  1.29163E+03  4.37215E+01  1.07004E+03
 -1.03327E+03  1.96721E+03 -6.02573E+03 -8.07812E+02 -3.69131E+03  1.27731E+02 -3.76820E+03 -1.04664E+03
  1.11929E+03 -2.59048E+03 -1.35803E+03 -1.17870E+03  4.37481E+03 -6.69307E+02  3.02660E+03 -2.33656E+03
 -1.34937E+02 -6.14731E+02 -2.30098E+03  1.52810E+03 -2.75087E+03  5.30426E+02  1.36944E+02  1.47190E+03
 -1.18176E+03  3.73220E+03 -2.32969E+02  1.90497E+03  3.73885E+03 -3.85498E+02  1.98353E+03  2.44483E+03
  2.14436E+03 -1.14507E+03 -5.74976E+02 -2.88308E+02  7.48870E+02  3.28085E+03 -2.02106E+03 -1.47475E+03
 -1.21562E+03 -1.42899E+03  3.65553E+03  1.62581E+03  6.70451E+02  1.70086E+02 -2.56760E+03 -1.60004E+03
 -5.45510E+02  1.83556E+03  2.26258E+03 -7.13906E+02  2.03765E+03 -8.10315E+02  1.56450E+03  6.64561E+02
 -3.04607E+03 -6.07602E+01 -4.58655E+03 -2.46387E+03 -1.15986E+03 -3.96317E+02  1.25850E+03 -3.36690E+03
  1.05980E+03  4.19047E+03 -8.27272E+02 -2.21174E+03  9.31637E+02 -3.82511E+03 -1.49735E+02 -3.26721E+03
 -4.83034E+03 -3.08348E+03  1.78683E+02 -9.85387E+02  4.07832E+03 -3.70825E+03  2.95523E+03 -9.18748E+02
