 $NMID ID='MM_0lb_SNR50_9hz_g60_54.RAW', FMTDAT='(8E13.5)'
 TRAMP=1., VOLUME=1. $END
  3.09312E+05 -3.22333E+03  3.42189E+05  2.48258E+05  8.59756E+04  3.40127E+05 -1.28325E+05  2.50767E+05
 -1.89483E+05  7.97617E+04 -1.07281E+05 -3.09983E+04 -1.76442E+03 -5.64324E+04  5.13280E+04 -6.23681E+02
  3.40978E+04  5.34622E+04 -2.30723E+04  7.77807E+04 -6.45885E+04  6.68720E+04 -9.01348E+04  3.47516E+04
 -8.42382E+04 -1.26951E+04 -6.14656E+04 -5.21446E+04 -1.97634E+04 -6.86110E+04  2.47092E+04 -4.74128E+04
  4.20091E+04 -4.21507E+02  1.54165E+04  5.06076E+04 -3.77129E+04  4.97664E+04 -6.48556E+04 -4.72838E+02
 -5.50850E+04 -5.70045E+04 -5.49433E+03 -7.97947E+04  4.03445E+04 -5.43031E+04  5.64257E+04 -1.84182E+04
  4.21219E+04  1.25217E+04  3.20469E+04  2.79630E+04  1.54532E+04  3.05884E+04  6.84412E+01  2.34989E+04
 -2.00151E+04  9.77072E+03 -1.63476E+04 -2.97185E+03  7.00449E+03 -1.34902E+04  1.58361E+04  1.19283E+04
  3.75179E+03  3.29938E+04 -3.47300E+04  3.39412E+04 -6.55018E+04 -1.85659E+03 -6.10426E+04 -4.51331E+04
 -1.09297E+04 -7.78348E+04  3.85858E+04 -3.79345E+04  5.55909E+04 -1.17066E+03  3.77019E+04  4.09277E+04
 -6.84447E+03  4.40255E+04 -2.80258E+04  2.42503E+04 -3.31811E+04 -2.12645E+03 -1.87115E+04 -1.17028E+04
 -1.10353E+04 -1.85773E+04 -9.33203E+03 -1.52136E+04  1.08856E+04 -2.36165E+04  1.39950E+04 -1.37476E+04
  1.01755E+04  4.88937E+02 -1.55455E+04  1.05813E+04 -2.28330E+04 -2.88835E+03 -7.48681E+03 -4.75717E+04
  2.72177E+04 -5.03250E+04  4.83008E+04 -2.25094E+04  5.58896E+04  1.82806E+04  1.34650E+04  4.65107E+04
 -1.19726E+04  3.62968E+04 -3.42210E+04  4.87877E+02 -1.23855E+04 -3.18711E+04  1.93480E+04 -3.88626E+04
  4.26729E+04 -1.14646E+04  3.96532E+04  2.40773E+04  1.58431E+04  5.35468E+04 -8.48206E+03  5.30159E+04
 -3.87128E+04  4.18067E+04 -5.18636E+04  3.56578E+03 -5.09693E+04 -2.53679E+04 -2.95058E+04 -3.88697E+04
  4.26976E+03 -4.46578E+04  3.61449E+04 -2.03395E+04  3.64187E+04  1.12290E+04 -2.35997E+03  2.24152E+04
 -1.49078E+04  1.04510E+04 -1.07050E+04 -4.18097E+03  7.60101E+03 -6.88293E+03  2.75403E+04  1.66879E+03
  1.36242E+04  1.92599E+04 -4.39523E+02  3.20935E+04 -2.15224E+04  1.63352E+04 -3.35502E+04 -4.19804E+03
 -1.95182E+04 -1.70637E+04 -8.53329E+03 -2.81789E+04  7.91535E+03 -2.57757E+04  2.17222E+04 -3.38842E+04
  3.38507E+04 -1.86345E+04  3.21864E+04  1.76594E+03  3.03798E+04  3.12220E+04  6.39328E+03  3.97897E+04
 -2.21346E+04  3.37262E+04 -2.91526E+04  1.37463E+04 -2.38753E+04 -8.85665E+03 -1.75484E+03 -1.09864E+04
  5.64554E+03  1.89755E+03 -1.48809E+04  1.36824E+04 -2.09309E+04  1.39287E+04 -1.69569E+04 -8.39739E+03
 -1.19475E+04 -2.33817E+04  1.30973E+04 -2.17380E+04  2.19640E+04 -1.20673E+04  2.08446E+04  1.25256E+03
  1.39008E+04  1.59087E+04 -2.09422E+03  2.79496E+04 -1.64160E+04  1.82171E+04 -2.59735E+04 -4.58003E+03
 -2.19827E+04 -2.04604E+04 -9.62706E+02 -3.01206E+04  1.11824E+04 -2.91967E+04  1.64709E+04 -1.38841E+04
  2.53262E+04 -8.45573E+03  2.14620E+04  1.15766E+04  2.41808E+03  4.48853E+03  1.52405E+04 -3.44909E+02
  2.38118E+04 -1.30137E+03  2.51520E+04  1.77711E+04  1.27387E+04  3.90292E+04 -7.45049E+03  4.26985E+04
 -2.01719E+04  4.17661E+04 -4.23896E+04  1.39948E+04 -5.25569E+04 -5.60494E+03 -3.97027E+04 -3.15495E+04
 -1.47439E+04 -3.80215E+04  1.42227E+04 -3.00614E+04  3.02004E+04 -1.62737E+04  2.36873E+04  1.05635E+04
  7.17579E+03  1.78868E+04 -7.60967E+03  1.28355E+04 -2.37249E+04  2.77804E+03 -1.60302E+04 -1.20025E+04
  2.65119E+03 -2.53040E+04  1.39418E+04 -1.50364E+04  4.43208E+03  2.58861E+03  3.43923E+03  4.55088E+03
 -3.25953E+03  6.18232E+03 -1.00974E+04 -8.89154E+03 -1.64334E+03 -1.48264E+04  1.14928E+04 -2.16493E+04
  2.59956E+04 -1.57087E+04  2.95784E+04 -1.95375E+02  2.44816E+04  1.52166E+04  1.71390E+04  3.05359E+04
 -5.37823E+03  3.82569E+04 -2.55479E+04  2.44894E+04 -1.89570E+04  3.33486E+03 -1.83062E+04 -6.24830E+03
 -6.42894E+02 -1.11583E+04  6.75235E+03 -5.77564E+03 -7.54787E+03  2.89086E+03 -7.44799E+03  3.46551E+03
 -7.30690E+03  6.26918E+02 -1.20068E+04 -9.99846E+03 -1.38981E+04 -2.19538E+04  1.59597E+04 -1.16318E+04
  1.82811E+04 -8.75481E+02  1.32147E+04  2.36892E+03  3.96462E+03  8.11799E+03 -1.08817E+04  3.00709E+03
 -7.97997E+03 -1.11882E+04 -8.11728E+02 -1.81030E+04  5.69919E+03 -2.35994E+04  2.66763E+04 -9.30537E+02
  2.93578E+04  4.33423E+03  1.79396E+04  2.11035E+04  1.01350E+04  1.69893E+04 -8.97799E+03  1.83775E+04
 -1.13673E+04  7.81858E+03 -7.81850E+03  1.57762E+03 -2.40810E+03 -6.47608E+03  9.30392E+03 -2.40680E+02
  3.97081E+03  7.63404E+03  3.72594E+03  1.07244E+04 -1.03371E+04  1.06100E+04 -1.73756E+04  6.84989E+03
 -1.57243E+04 -9.42327E+03  7.00837E+03 -1.48056E+04  6.45337E+03 -1.02075E+04  1.43692E+04  2.28542E+03
 -2.47667E+03  1.31362E+04 -1.27290E+03  5.42434E+03 -1.33481E+04  1.81119E+03 -1.08180E+04 -6.69555E+03
 -9.76535E+03 -1.12578E+04  1.21583E+04 -1.85165E+04  1.41499E+04 -7.78066E+03  1.99606E+04  7.14972E+03
  2.05487E+04  2.26301E+04 -5.54499E+03  1.58794E+04 -1.12867E+04  3.87205E+03 -9.03538E+03 -7.53936E+03
 -1.19166E+04 -1.30983E+04  1.05399E+03 -1.39926E+04  3.84185E+03 -1.41671E+04  7.66040E+03 -6.39832E+03
  5.33167E+03  2.91639E+03 -3.21263E+03 -1.84662E+03  1.40082E+03 -5.24577E+02  7.81967E+03 -5.23927E+03
  9.88323E+03 -6.34770E+03  1.15631E+04 -3.44816E+03  1.25864E+04  1.48503E+04  1.43547E+04  2.21986E+04
  1.21516E+02  2.99484E+04 -1.86208E+04  1.95325E+04 -2.94202E+04  7.00294E+03 -2.55748E+04 -7.31376E+03
 -1.35356E+04 -1.19552E+04 -1.01057E+03 -1.29334E+04  1.06777E+04 -1.10310E+04  1.36134E+04 -3.72864E+03
 -2.46973E+03 -2.41292E+02  1.37985E+03 -1.94055E+03  1.12345E+04 -2.20141E+03  7.88547E+03 -3.73224E+03
  1.32190E+04 -2.60120E+03  7.63416E+03  1.17792E+04 -2.99309E+03  1.12301E+04 -1.31685E+04  6.75647E+03
 -2.02317E+04 -2.32458E+03 -1.27399E+04 -1.52249E+04  4.02540E+03 -1.80752E+04  7.71498E+03 -1.29145E+04
  2.45936E+04 -9.08830E+03  1.75161E+04  3.54525E+03  1.16208E+04  1.15548E+04 -2.92917E+03  1.90685E+04
 -7.13463E+03  1.28189E+04 -1.11083E+04 -4.55785E+03 -7.58796E+03  6.50371E+03 -5.76316E+03  4.35618E+02
 -1.33036E+03  4.03497E+03  5.09555E+03  6.99719E+03 -8.06365E+03  4.78932E+03 -7.40198E+03 -5.32428E+03
 -5.15073E+03 -1.40738E+04 -2.20613E+03 -2.03016E+04  1.01910E+04 -1.35144E+04  2.08313E+04 -9.50817E+02
  1.80737E+04  3.39233E+03  1.07289E+04  1.33439E+04 -3.40610E+03  1.28412E+04 -1.03850E+04  4.56284E+03
 -1.30323E+04 -4.24971E+03 -1.44514E+04 -1.38688E+04 -3.96171E+03 -1.26251E+04  8.58538E+03 -6.15868E+03
  1.12144E+04 -2.99248E+03  9.06358E+03  6.81000E+03  2.99047E+03  5.54742E+03  2.40590E+03  7.21565E+03
  4.42656E+03  3.41130E+03  4.76951E+03  3.20995E+03 -2.00308E+03  5.15269E+03  6.99264E+03  6.64034E+03
  3.49871E+03  1.53278E+04 -9.71856E+01  1.53765E+04 -1.55762E+04  1.66225E+03 -2.22698E+04 -2.13585E+03
 -7.97378E+03 -1.19422E+04  1.82850E+03 -2.15733E+04  1.21825E+04 -7.48065E+03  1.45804E+04  2.24227E+03
  1.00277E+04  1.03551E+04  5.97062E+03  1.06450E+04 -4.61309E+03  8.10720E+03 -8.39786E+03  2.23269E+03
 -2.27561E+03 -4.72998E+03  1.04384E+04 -7.44928E+03  1.08221E+04 -1.87576E+03  2.57847E+03 -1.86743E+03
  2.48719E+03  6.53393E+03  1.68188E+03  4.07684E+03  9.08378E+02  4.43018E+03 -2.15745E+03  8.90776E+02
 -1.35259E+03  1.23772E+03  7.75571E+03  2.74128E+03  1.01257E+03  4.01220E+03  1.88571E+03  1.70859E+04
 -4.12667E+03  5.31738E+03 -8.33353E+03 -5.35549E+03 -5.45115E+03 -6.17051E+03 -1.47252E+03 -5.90592E+03
 -9.86604E+01 -1.26849E+04 -1.20672E+03 -1.05643E+03  6.68470E+03  9.50858E+03 -5.44620E+03  3.83399E+03
 -6.14590E+03 -2.47486E+03 -6.22548E+03 -2.83282E+03 -3.38486E+03 -5.72132E+03  2.92647E+03 -1.05919E+04
  7.51827E+03 -3.66854E+03  4.38393E+03 -5.39674E+03  4.91557E+03  7.81289E+03  2.41180E+03  5.75166E+02
 -2.42228E+03 -1.38479E+03 -7.94701E+03 -5.46163E+03 -6.31196E+02 -8.04733E+03  3.83952E+03 -6.66858E+03
  4.25473E+03  5.21219E+03  8.81909E+03  2.54340E+03 -1.37474E+03  1.63464E+04  8.48150E+02  1.11280E+04
 -4.72766E+03  5.68346E+03 -1.65058E+04 -4.39416E+03 -7.54208E+03 -3.92895E+03  3.85247E+03 -7.89777E+03
  8.66492E+03  3.25532E+03  2.72004E+03  2.70653E+03 -2.58593E+03  8.80843E+03 -1.29324E+03  4.05266E+03
 -3.42462E+03  4.03588E+03  7.42987E+02  8.58593E+03  2.56605E+03 -2.23534E+03 -1.00944E+03  5.02668E+02
 -4.68628E+03  4.52309E+03 -7.47513E+03  2.39874E+03 -1.14131E+04 -7.68703E+02 -1.03875E+04 -7.82212E+03
 -1.00671E+04 -1.21338E+04  3.04680E+03 -1.87654E+04  1.03550E+04 -1.24755E+04  1.46293E+04 -3.09287E+03
  1.19212E+04  7.70332E+03  1.41901E+04  7.98242E+03  8.48768E+02  1.76294E+04 -6.37286E+03  1.17319E+04
 -5.54443E+03 -4.08987E+02 -1.69557E+03 -6.69309E+03  1.74285E+03 -4.92556E+03  4.15613E+03  3.53269E+03
 -2.38263E+03 -4.61274E+03 -3.33516E+03  4.45127E+02 -1.79195E+03  3.94544E+03 -3.85452E+02 -2.07753E+03
  3.39508E+03 -3.22197E+03  4.70495E+03  6.32067E+02  7.87422E+03  3.28731E+02  1.17280E+03  9.36505E+03
 -5.99472E+03  1.38683E+04 -1.37911E+04  1.64124E+04 -1.53777E+04 -1.22211E+04 -4.60952E+03 -1.08535E+04
 -6.68860E+03 -5.87151E+03  6.62176E+03 -1.07917E+04  1.00284E+04 -1.73117E+03  9.54712E+03  2.57123E+03
  9.62074E+03  5.28187E+03 -3.20975E+03  1.07808E+03  6.53981E+02 -4.48215E+03 -3.12826E+03  9.93759E+02
  8.78788E+03 -1.70498E+03  5.03530E+03  1.31670E+03  8.23318E+03 -3.22467E+02  1.67631E+03  4.08578E+03
 -9.88526E+03  7.57386E+03 -8.65081E+03  5.99288E+03 -9.99529E+03 -3.49227E+03  6.11985E+02 -7.72143E+03
  4.73439E+03 -1.15399E+04  1.10840E+04 -2.64461E+03  3.25056E+03 -6.22815E+02  5.62012E+03  1.57976E+04
 -1.18520E+03  4.94108E+03 -3.14411E+03  8.62195E+03 -4.28653E+03  3.78006E+03 -3.07322E+03  2.45003E+03
 -1.65756E+03 -1.34121E+03 -1.02744E+03  2.88974E+03 -4.93619E+03  7.00063E+03 -5.88294E+03 -3.22553E+03
 -5.13667E+03 -4.10773E+03 -1.96683E+03 -4.93935E+03  4.93376E+03 -1.07877E+04  1.12376E+04 -5.37740E+03
  5.87530E+03 -1.54272E+03  1.15804E+04  7.01332E+03 -1.68353E+03  7.13205E+03 -5.99927E+03  8.56092E+02
