 $NMID ID='MM_0lb_SNR50_10hz_g60_69.RAW', FMTDAT='(8E13.5)'
 TRAMP=1., VOLUME=1. $END
  3.10142E+05  1.35874E+03  3.41977E+05  2.54486E+05  7.97731E+04  3.44132E+05 -1.32561E+05  2.53480E+05
 -1.85800E+05  8.17338E+04 -1.13237E+05 -3.01841E+04 -1.72566E+03 -5.47195E+04  5.37758E+04 -1.95470E+03
  3.62954E+04  5.09947E+04 -1.74184E+04  7.28263E+04 -6.06551E+04  5.57559E+04 -8.31993E+04  3.44770E+04
 -7.86881E+04 -1.10458E+04 -6.10085E+04 -5.87337E+04 -1.34118E+04 -6.83659E+04  2.88427E+04 -5.04802E+04
  4.39728E+04  1.43075E+03  1.80935E+04  5.22557E+04 -3.23952E+04  5.15837E+04 -7.26217E+04 -1.57491E+03
 -5.20669E+04 -5.85358E+04 -5.52060E+03 -8.08040E+04  3.10875E+04 -5.58688E+04  5.12390E+04 -2.11536E+04
  4.09749E+04  1.06441E+04  3.91264E+04  2.99539E+04  1.45901E+04  2.53845E+04 -7.41996E+03  3.43456E+04
 -2.37068E+04  1.21692E+04 -1.29926E+04 -2.17074E+03  4.96440E+03 -4.82658E+03  3.14237E+04  9.23172E+03
  1.02490E+04  3.61622E+04 -2.97138E+04  3.91728E+04 -6.74185E+04  2.03170E+03 -5.61476E+04 -4.75332E+04
 -1.34138E+04 -6.49797E+04  4.12052E+04 -3.94907E+04  6.07398E+04 -3.34336E+03  3.71834E+04  3.65175E+04
 -9.33984E+03  3.80360E+04 -3.45587E+04  1.49253E+04 -3.68752E+04 -4.39178E+03 -2.00958E+04 -4.62316E+03
 -1.49385E+04 -1.69846E+04  3.89440E+03 -2.07559E+04  9.53322E+03 -2.46508E+04  1.30423E+04 -1.66311E+04
  1.02284E+04  6.33965E+03 -1.33964E+04  1.35662E+04 -2.41107E+04 -8.13329E+03 -4.59072E+03 -3.62765E+04
  3.22848E+04 -4.73267E+04  4.96078E+04 -2.06657E+04  4.95988E+04  2.07119E+04  1.69210E+04  4.07669E+04
 -1.61717E+04  3.48966E+04 -3.12473E+04  7.89329E+03 -1.25183E+04 -3.07852E+04  2.35179E+04 -4.14474E+04
  4.02689E+04 -1.15694E+04  4.25679E+04  2.65834E+04  1.62997E+04  5.95131E+04 -1.25439E+04  5.67454E+04
 -3.51919E+04  3.03653E+04 -4.71528E+04  8.95832E+03 -4.61719E+04 -1.82064E+04 -3.36443E+04 -4.41517E+04
  9.73798E+03 -4.53753E+04  3.46325E+04 -2.66812E+04  3.20233E+04  1.19934E+04  6.78631E+03  2.33649E+04
 -1.26949E+04  1.13557E+04 -6.55653E+03 -1.13911E+04  7.52368E+03 -8.43174E+03  2.06007E+04  2.62374E+03
  1.28869E+04  2.25993E+04 -2.62912E+03  2.68420E+04 -2.85188E+04  1.08310E+04 -2.90880E+04 -5.41872E+03
 -2.79711E+04 -1.89184E+04 -1.11483E+04 -2.74245E+04 -3.50903E+03 -2.45613E+04  2.13930E+04 -2.67029E+04
  3.17333E+04 -1.08050E+04  3.80604E+04  1.72419E+03  2.17291E+04  2.67977E+04  4.22186E+03  4.14893E+04
 -2.38216E+04  3.47773E+04 -2.91365E+04  9.98683E+03 -2.79581E+04 -5.09935E+03 -7.02122E+03 -1.33773E+04
 -9.37848E+02  5.48267E+03 -5.82792E+03  9.26971E+03 -2.12741E+04  7.71796E+02 -1.71147E+04 -8.82951E+03
 -7.10560E+03 -2.00179E+04  2.80253E+03 -3.16495E+04  2.10994E+04 -1.75854E+04  2.51770E+04 -2.56993E+03
  1.32551E+04  1.85864E+04 -6.96669E+03  2.27781E+04 -1.32699E+04  1.49802E+04 -3.05424E+04 -7.96619E+03
 -1.61311E+04 -2.14167E+04  4.22042E+02 -2.99251E+04  1.78178E+04 -2.56731E+04  2.56621E+04 -1.29326E+04
  2.38442E+04 -1.80395E+03  1.31705E+04  1.59781E+03  1.28225E+04  1.78699E+03  1.76541E+04 -8.46714E+03
  2.11952E+04  8.04066E+03  2.57596E+04  1.96330E+04  1.55500E+04  3.75269E+04 -5.20133E+03  4.87746E+04
 -3.08893E+04  3.96215E+04 -4.28374E+04  2.49542E+04 -4.64393E+04 -4.50475E+03 -3.53850E+04 -3.07450E+04
 -1.34470E+04 -3.59569E+04  1.73184E+04 -3.39710E+04  2.68644E+04 -1.61887E+04  2.50272E+04  5.59264E+03
  8.22907E+03  2.44742E+04 -1.36547E+04  1.92198E+04 -2.63848E+04  7.50846E+02 -2.15879E+04 -1.39737E+04
  1.37275E+03 -1.59342E+04  1.37639E+04 -8.00101E+03  1.56401E+04 -2.10386E+03  3.88390E+03  9.37942E+03
 -7.48112E+03  4.09142E+03 -1.67700E+03 -5.82052E+03 -1.80286E+03 -1.42799E+04  8.69232E+03 -1.64891E+04
  2.64007E+04 -1.17015E+04  2.85911E+04  3.26072E+03  2.03872E+04  2.83073E+04  1.17404E+04  2.69943E+04
 -9.13228E+03  2.78389E+04 -2.66427E+04  2.23387E+04 -2.26333E+04  2.37629E+03 -1.44483E+04 -5.15522E+03
 -4.95069E+03  1.60241E+03 -4.89236E+03 -3.68000E+03 -2.58243E+03  1.48271E+03 -1.15582E+04  3.16424E+02
 -1.94927E+04  5.13560E+03 -8.32487E+03 -9.57983E+03 -4.04701E+03 -2.73581E+04  1.11802E+04 -2.50724E+04
  1.49646E+04 -4.40157E+03  2.73469E+03  1.57060E+03  1.04244E+03  9.34275E+03 -9.80886E+03 -6.32829E+03
 -1.38916E+04 -1.11601E+04 -2.68527E+03 -1.16745E+04  6.84666E+03 -1.34799E+04  2.26123E+04 -7.19326E+03
  2.57574E+04 -2.96174E+03  2.13781E+04  2.54731E+04  9.40794E+03  2.07808E+04 -1.31141E+04  1.20127E+04
 -1.80473E+04  3.31753E+03 -5.28830E+03 -3.29314E+03  1.41155E+03 -3.99565E+03  8.15779E+03 -3.04606E+03
  8.57969E+03  6.79588E+03 -2.91086E+03  5.88861E+03 -1.55802E+04  1.44976E+04 -1.84467E+04  2.47051E+03
 -8.75959E+03 -1.13902E+04 -1.26020E+03 -1.15089E+04  8.17123E+03 -6.19696E+03  1.35466E+04  3.15316E+03
 -1.28871E+03  1.17124E+04 -1.03053E+04  1.02297E+04 -1.14544E+04  6.31917E+03 -1.13826E+04 -6.88942E+03
 -5.97456E+03 -1.79893E+04  5.11750E+03 -2.12788E+04  1.41520E+04 -6.03029E+03  1.63225E+04  9.31971E+02
  6.39841E+03  1.47060E+04  3.83750E+03  1.57857E+04 -7.85315E+03  5.93806E+03 -7.34711E+03  1.67871E+03
 -1.47299E+03 -5.34102E+03 -3.27353E+03 -1.06701E+04  4.87010E+03 -7.32049E+03  1.21066E+04 -1.09112E+03
 -1.69296E+03 -5.28772E+02 -2.25116E+03  1.78773E+03 -1.80839E+03 -1.73424E+03  1.46787E+03 -1.17207E+03
  8.49987E+03 -4.56063E+03  2.44282E+04 -8.62535E+02  1.37237E+04  7.05538E+03  1.43761E+04  1.81764E+04
 -5.45030E+03  1.96089E+04 -2.27540E+04  1.94735E+04 -3.25516E+04  3.30477E+02 -1.86175E+04 -1.68089E+04
 -1.31500E+04 -1.79484E+04 -2.07899E+03 -1.49460E+04  4.00020E+03 -7.90947E+03  1.37625E+04 -5.98521E+03
 -4.87438E+03 -3.47899E+03 -1.53596E+02 -4.27561E+03  5.04275E+03  1.92311E+03  8.89650E+03 -3.14180E+03
  6.45884E+03  1.38898E+03  7.72996E+03  6.48380E+03 -4.38893E+03  8.47773E+03 -8.11288E+03  7.37354E+03
 -1.09795E+04 -3.97807E+03 -1.03700E+04 -9.77120E+03 -2.37175E+03 -1.82085E+04  1.19494E+04 -1.53032E+04
  2.06915E+04 -9.00916E+03  1.23199E+04  2.53469E+03  1.68794E+04  1.43650E+04 -5.51995E+02  1.44509E+04
 -8.56789E+03  1.45434E+04 -9.25089E+03  2.65827E+03 -8.67614E+03 -7.17593E+02 -1.95609E+03 -1.78921E+03
 -2.36449E+03 -2.88638E+03  1.28183E+03  5.90574E+02 -6.04763E+03  2.02886E+03 -1.06958E+04 -2.59192E+03
 -9.97308E+02 -6.68959E+03 -2.75754E+02 -1.25533E+04  4.27988E+03 -9.47070E+03  1.05876E+04 -3.60610E+03
  1.31873E+04  3.85235E+03  1.29170E+04  8.40626E+03 -3.41191E+03  1.77537E+04 -1.14679E+04  7.07974E+03
 -2.00884E+04  5.59419E+03 -1.22721E+04 -8.14635E+03 -4.82803E+03 -1.27072E+04  6.50889E+03 -6.73932E+03
 -1.58447E+03  8.52301E+02  4.35706E+03  6.36910E+03  9.76533E+02  8.95642E+02 -5.25542E+03  2.26857E+03
  3.56678E+03  4.35688E+03  4.45690E+03 -1.49063E+02  2.78022E+02  5.62238E+03  6.90591E+03  1.17565E+04
 -2.91357E+03  1.32574E+04 -1.57448E+04  1.35817E+04 -1.65264E+04  4.22770E+03 -2.18357E+04 -2.25182E+03
 -1.10264E+04 -1.40154E+04  6.31309E+03 -1.20320E+04  1.26238E+04 -1.37931E+04  1.01101E+04 -8.14685E+03
  2.81071E+03  4.74575E+03 -3.89875E+02  9.52607E+03 -9.92363E+03 -1.32912E+03 -2.50027E+03 -3.31374E+03
  1.63331E+03 -3.91380E+03 -3.65357E+03 -1.16722E+04  3.44385E+03 -4.80666E+03  5.83676E+03 -3.84244E+03
  2.83828E+03  5.56594E+03  1.56246E+03  9.26069E+03  1.72153E+03 -1.21260E+03 -3.70418E+03 -9.66749E+02
 -9.14223E+02 -6.22590E+03  2.98778E+03  4.97225E+03  4.55903E+03  6.83193E+03 -1.04089E+03  1.41989E+04
 -4.76950E+03  5.29104E+03 -6.91934E+03 -2.56871E+03 -5.85121E+03  8.59827E+02  3.30558E+03 -8.71686E+03
  1.88018E+03 -6.53192E+03  3.84593E+03 -5.11655E+03  7.81381E+03  3.41729E+03 -1.94138E+03  6.14051E+03
 -8.87094E+03  2.05766E+03 -1.07232E+04 -3.45074E+03 -5.20196E+03 -1.08187E+04  2.54775E+03 -1.40325E+04
 -1.18344E+03  2.08961E+03  5.04686E+03 -3.83651E+02  3.36299E+03  3.00262E+03  5.96858E+03  1.41554E+03
 -6.18684E+03  3.06965E+03 -5.50323E+03 -1.78668E+03 -3.66708E+03 -6.80942E+03  1.11513E+04 -7.60684E+03
  5.19211E+03 -8.52041E+02  7.89034E+03  4.94001E+03  3.72444E+03  1.02520E+04 -3.26407E+03  1.00034E+04
 -3.06950E+03  2.63254E+03 -9.17252E+03  1.95646E+03 -3.66147E+03 -2.02779E+03  2.34173E+03 -1.86322E+03
  6.04684E+03 -1.91955E+03  4.83814E+03  1.61606E+03  6.48318E+03  1.69057E+03 -3.01350E+02  4.48840E+03
  1.58736E+03  1.42238E+03 -1.39425E+04  4.82689E+03 -2.86219E+03  9.63121E+02 -2.28467E+03  9.25057E+02
 -4.55042E+03  7.18372E+03 -3.33123E+03  1.11167E+04 -1.09760E+04  7.70329E+02 -1.03625E+04  3.41846E+03
 -1.70639E+03 -1.05589E+04  1.47255E+03 -1.28199E+04  1.10792E+04 -1.09946E+04  1.40559E+04 -1.15646E+04
  1.44775E+04  4.99604E+03  6.39135E+03  7.18616E+03  8.68817E+02  1.25144E+04 -1.82296E+03  6.36009E+03
 -4.84442E+03  1.12098E+03 -8.10026E+02  3.99511E+02 -1.34371E+02  4.13748E+03 -2.03715E+03  2.79581E+03
 -6.21160E+03  3.65236E+03 -5.42218E+03  1.00336E+03 -2.12002E+03 -5.84811E+03  3.39962E+03 -2.06246E+02
  5.70157E+02 -7.59314E+03  5.97838E+03  8.96204E+03  1.22177E+04  3.83692E+03  3.38657E+03  4.29315E+03
 -2.05785E+03  9.63357E+03 -1.57213E+04  3.44173E+03 -1.40836E+04 -4.46130E+03 -4.70938E+03 -1.25993E+04
 -5.61054E+03 -7.74826E+03  4.98876E+03 -5.85585E+03  2.79322E+03 -3.19884E+03  5.57484E+03 -2.52642E+02
 -2.90508E+03  4.06170E+03  2.58865E+03 -5.06966E+03 -4.53642E+03  1.98310E+02 -3.16065E+03 -6.78668E+03
 -1.71642E+03 -3.82037E+03  6.35704E+03  2.11373E+03  8.47279E+02  5.73684E+03 -5.47634E+03  9.23039E+03
 -7.19237E+03  4.29261E+03 -9.43438E+03 -9.42975E+02 -1.05430E+04 -3.03270E+03 -5.97508E+03 -7.77799E+03
  5.26060E+03 -7.08775E+03  5.80651E+03 -3.79417E+03  5.23360E+03  6.71932E+03  1.94141E+03  1.58898E+03
  8.70608E+03  6.61934E+03 -4.46785E+03  3.50272E+03 -1.17045E+04  5.66045E+02 -2.63862E+03  6.39392E+03
  6.03275E+03  1.49115E+03  1.05461E+03  2.77394E+03 -2.26875E+03 -2.41422E+03 -9.65431E+03  2.33873E+03
 -4.47751E+03 -2.73947E+03 -2.66886E+03 -8.77432E+03  5.96822E+03 -1.77642E+03  9.17298E+03 -3.59303E+03
  4.72510E+03  2.57001E+03 -9.96652E+02  5.92211E+03 -2.70331E+03  1.19049E+04 -3.09936E+01  8.06668E+02
