 $NMID ID='MM_0lb_SNR50_19hz_g55_95.RAW', FMTDAT='(8E13.5)'
 TRAMP=1., VOLUME=1. $END
  3.07638E+05  2.64090E+03  3.40481E+05  2.48933E+05  8.22949E+04  3.36610E+05 -1.35654E+05  2.48182E+05
 -1.88931E+05  8.15249E+04 -1.12345E+05 -3.33597E+04 -9.31325E+02 -5.34261E+04  5.29325E+04  2.30493E+02
  3.34403E+04  5.12733E+04 -1.60077E+04  7.49123E+04 -5.80416E+04  6.96697E+04 -8.15025E+04  2.61741E+04
 -7.88385E+04 -1.08930E+04 -5.67421E+04 -5.05017E+04 -1.31898E+04 -7.19019E+04  2.62461E+04 -4.48447E+04
  4.06650E+04  7.00462E+01  1.48916E+04  4.79558E+04 -3.53131E+04  4.42143E+04 -6.59198E+04  2.01265E+03
 -5.33719E+04 -5.84655E+04 -9.07614E+03 -8.08392E+04  3.38413E+04 -4.86868E+04  5.09917E+04 -1.79284E+04
  4.24127E+04  1.08108E+04  3.20332E+04  2.67382E+04  1.43285E+04  2.77548E+04 -5.07095E+03  2.61679E+04
 -1.92044E+04  1.51648E+04 -1.83170E+04 -7.15051E+02  1.01831E+03 -4.80564E+03  1.91087E+04  9.12933E+03
  6.24343E+03  3.51953E+04 -3.08187E+04  3.62494E+04 -6.38301E+04  5.23311E+03 -5.75249E+04 -4.33713E+04
 -1.69450E+04 -6.40539E+04  4.12032E+04 -4.62717E+04  5.49051E+04 -2.97143E+03  3.08740E+04  3.35784E+04
 -1.08480E+04  3.32137E+04 -2.88834E+04  1.34822E+04 -2.95701E+04 -5.33170E+03 -1.35769E+04 -7.66359E+03
 -5.61745E+03 -1.22251E+04 -8.07727E+02 -1.71381E+04  7.18210E+03 -2.43844E+04  1.46147E+04 -1.66681E+04
  1.28388E+04  4.20770E+03 -4.37998E+03  1.13631E+04 -1.74550E+04 -1.71949E+03 -1.26826E+04 -2.84386E+04
  2.60951E+04 -4.59970E+04  4.20984E+04 -2.13386E+04  4.22340E+04  2.01527E+04  1.79880E+04  4.41466E+04
 -1.28206E+04  3.38009E+04 -2.37873E+04 -4.10488E+02 -5.50009E+03 -2.54257E+04  2.25239E+04 -3.01415E+04
  3.90597E+04 -9.68846E+03  3.21425E+04  2.27567E+04  1.50019E+04  4.17790E+04 -5.99819E+03  5.12788E+04
 -2.24347E+04  2.70786E+04 -4.28802E+04  7.35938E+03 -4.15137E+04 -1.47366E+04 -2.42569E+04 -3.46257E+04
  8.00296E+03 -3.79481E+04  3.36074E+04 -1.07457E+04  2.83404E+04  8.90904E+03  5.35407E+03  1.77334E+04
 -1.71192E+04  7.45772E+03 -9.29088E+03 -1.12297E+04  5.56766E+03 -1.13528E+04  1.87447E+04  5.93279E+03
  1.33325E+04  2.32294E+04 -6.54978E+03  1.74793E+04 -2.71057E+04  7.80731E+03 -2.71451E+04 -4.49464E+03
 -1.85449E+04 -1.64064E+04 -7.51541E+03 -1.58888E+04  4.04322E+02 -1.71195E+04  1.52401E+04 -1.79091E+04
  2.20408E+04 -1.33354E+04  2.74294E+04 -5.50903E+03  2.22962E+04  1.65075E+04  5.24751E+03  3.12878E+04
 -1.97216E+04  2.86803E+04 -2.74461E+04  1.50681E+04 -2.38529E+04 -6.59697E+03 -3.08562E+03 -1.36799E+04
  3.38376E+03 -5.59727E+03 -4.73536E+03  5.00107E+03 -1.52415E+04  8.49588E+03 -1.11431E+04 -3.31186E+03
 -1.50645E+03 -1.30590E+04  4.08702E+03 -2.13927E+04  1.22764E+04 -2.09371E+04  1.60810E+04  3.78451E+03
  7.32539E+03  1.12529E+04 -2.21555E+03  1.93214E+04 -1.23513E+04  6.68795E+03 -1.11495E+04  2.46525E+02
 -9.85452E+03 -1.04826E+04 -1.55915E+03 -2.10172E+04  9.68846E+03 -1.90276E+04  1.73273E+04 -7.97217E+03
  1.29876E+04 -6.12623E+02  7.05038E+03  4.16253E+03  6.50407E+03 -3.32060E+03  8.17906E+03 -4.32939E+03
  1.83451E+04  8.12133E+02  1.64785E+04  1.14662E+04  1.03397E+04  2.50243E+04 -4.95096E+03  2.12403E+04
 -1.68338E+04  1.69425E+04 -3.12813E+04  9.76018E+03 -2.74200E+04 -1.16346E+03 -2.65093E+04 -1.86911E+04
 -1.40737E+04 -2.26219E+04  7.18928E+03 -1.91165E+04  1.87825E+04 -1.31803E+04  1.78179E+04  6.51750E+02
  9.70648E+03  1.61392E+04 -7.45572E+03  1.33774E+04 -1.20736E+04  5.86176E+02 -1.50195E+04 -9.67049E+03
 -6.21510E+02 -1.14384E+04  5.52000E+03 -9.67068E+03  7.76352E+03 -3.46499E+03  2.23917E+03  6.58352E+03
 -7.10445E+03  1.59162E+03 -1.07932E+03 -3.08254E+03  1.11237E+03 -1.01077E+04  7.59481E+03 -6.38447E+03
  1.50817E+04 -4.92436E+03  1.26232E+04 -1.53328E+03  1.23802E+04  1.26498E+04 -1.03361E+02  1.14725E+04
  1.86859E+03  2.01288E+04 -5.54839E+03  8.43421E+03 -8.74331E+03  5.75794E+03 -9.32383E+03  1.22049E+02
 -6.76306E+03 -6.49977E+03 -5.02202E+03  1.28186E+03 -1.65535E+03 -1.06015E+03 -5.11875E+02  4.55883E+03
 -8.42949E+03 -3.40046E+03 -1.27439E+04 -1.01869E+04 -2.42432E+03 -1.38002E+04  1.84340E+03 -8.91675E+03
  5.60879E+03 -5.12841E+03  5.55045E+03  2.70735E+03  1.87903E+03  3.94128E+03 -4.66193E+03 -2.00174E+03
 -1.28077E+03 -4.59740E+03  1.39045E+03 -4.12623E+03  5.23764E+03 -8.04691E+03  1.02206E+04 -3.42293E+03
  1.21831E+04 -6.55116E+02  1.22826E+04  6.47797E+03  4.49797E+03  8.83813E+03 -2.24249E+03  4.05014E+03
 -7.28858E+03  4.83277E+03 -7.74484E+03 -3.31719E+03 -4.59083E+03 -1.49062E+03  4.35501E+03 -8.23509E+01
  3.84639E+03  1.18711E+03  1.66477E+03  7.63644E+03 -7.18679E+03  6.91777E+03 -9.19837E+03 -1.91551E+03
 -6.35512E+03 -3.61248E+03 -2.48143E+03 -6.62749E+03  4.30852E+03 -6.70599E+03  5.20357E+03 -3.22216E+02
  5.63390E+02  1.50179E+03 -3.31572E+03  9.67554E+03 -5.03348E+03  5.10371E+03 -6.96803E+03 -3.33365E+03
 -1.76975E+03 -3.91826E+03  3.89111E+02 -9.10116E+03  6.61362E+03 -4.09284E+03  6.22381E+03 -2.58304E+03
  5.40481E+03  2.57134E+03  2.18011E+03  7.46725E+03 -2.22879E+02 -1.30348E+03  2.16089E+03  2.72812E+03
 -5.29884E+03 -8.55201E+03 -4.57380E+02 -7.91814E+03 -1.75098E+03 -8.78217E+03  4.57961E+03 -5.39678E+03
  9.62196E+02  9.15954E+02  4.67915E+03 -1.00789E+03  3.57027E+03  9.94646E+02  4.39205E+02 -1.26768E+03
  6.01701E+03 -1.76940E+03  8.02990E+03  1.88518E+03  2.47722E+03  3.54002E+03  2.87438E+03  6.55513E+03
 -3.77862E+03  1.06813E+04 -1.04223E+04  4.38245E+03 -6.68497E+03  1.05481E+03 -6.84662E+03  1.42104E+02
 -4.34750E+03 -6.94601E+03  1.31130E+03 -2.09938E+03  4.50984E+03 -1.10263E+03  6.92177E+03  2.53773E+03
  9.16734E+00  1.45554E+03  5.89239E+02 -3.30313E+03  3.89509E+03 -1.13188E+03  3.75242E+03 -1.72395E+03
  4.87372E+03 -2.10036E+03  2.83042E+03  1.78500E+03 -5.47093E+02  3.32164E+03 -8.75873E+02  2.72807E+03
 -5.47278E+03 -1.67151E+03 -3.19041E+03 -9.75106E+02  1.48256E+03 -3.71790E+03  6.53090E+03 -3.92659E+03
  6.92836E+03 -4.84321E+03  5.85329E+03  5.60654E+02  2.97823E+03  1.36461E+03  3.59260E+03  6.52074E+03
 -3.43042E+03  3.26913E+03  4.50110E+02  6.21263E+03 -1.21207E+03  4.63500E+02  2.76289E+03 -2.28275E+03
 -6.22751E+00  6.00704E+02 -1.73042E+02  2.76798E+03 -1.79130E+03  3.25784E+03 -1.98791E+03  2.30265E+03
  9.35313E+02 -2.94435E+03 -2.85008E+02 -4.16899E+03  2.65819E+03 -7.86568E+03  6.97845E+03  1.38013E+03
  4.28764E+03  1.48971E+02  3.36825E+02  5.22323E+03 -1.35651E+03  8.25859E+03 -1.71978E+03  1.73850E+03
 -6.59690E+03  1.36881E+02 -4.39061E+03 -2.44063E+03 -2.27398E+03 -3.95029E+03  7.38453E+02 -2.40246E+03
  2.65607E+03 -1.04446E+03  1.59758E+03  2.84791E+03  1.10838E+03  2.18337E+03  7.58803E+03  4.18470E+03
  7.27690E+03 -2.07558E+03  2.19240E+03  1.25274E+03 -8.89385E+02  1.56840E+03 -3.29759E+03 -4.89283E+02
  1.70136E+03 -8.37008E+01 -1.35180E+03  4.92554E+03 -1.55393E+02  1.02167E+02 -4.25258E+03 -2.04351E+03
 -4.12277E+03 -5.79959E+03  4.73625E+02 -2.16114E+03  6.01380E+02 -4.17861E+03  1.76757E+03 -3.03511E+03
 -5.80412E+02 -8.13351E+01 -3.10440E+03  2.64013E+03 -4.18073E+03  2.01585E+03  1.18831E+03 -4.57053E+02
  2.99051E+03 -2.39330E+03  5.52115E+03 -7.51164E+03 -3.71124E+03 -3.42792E+03 -7.15874E+02 -7.39331E+01
 -2.31730E+03 -3.15159E+02  1.72613E+03 -2.37888E+02  1.05254E+02 -2.54379E+03  4.69145E+02  9.82391E+02
 -2.47458E+03 -2.64294E+03  5.89855E+02 -2.03036E+03  3.94967E+02 -1.07685E+02 -2.71211E+03  3.11183E+02
 -8.08758E+01  2.51137E+03  4.92568E+02  1.26297E+03 -2.48283E+03  1.04615E+03 -2.58018E+02  2.94193E+02
 -7.28624E+02  1.45027E+03 -1.62700E+03 -3.14862E+03  1.08827E+03  2.23980E+03  9.54137E+02  2.99091E+03
 -3.81018E+03 -2.52572E+03 -2.67278E+03 -4.29660E+03  4.17674E+02 -3.91162E+03 -1.95093E+03  2.90369E+02
  1.71029E+03  2.42652E+03 -9.63125E+02 -5.10643E+03  2.38084E+03  1.80076E+03 -6.64314E+02 -2.47383E+03
 -1.10099E+02 -3.48367E+03 -1.01733E+02  1.39071E+03 -1.94283E+03  1.94367E+03  2.28493E+03 -2.53300E+03
 -1.18642E+03 -1.48036E+03  1.61361E+02  2.64657E+02 -9.53225E+02  3.62404E+01  1.69913E+03  1.67079E+03
  4.59723E+02 -2.25363E+03 -3.79593E+03 -8.69137E+02  2.81322E+03 -4.59819E+03  3.88936E+03 -5.57801E+03
  2.65562E+03 -5.24136E+03 -1.59752E+02  1.28355E+03  1.61309E+03  1.24263E+02  1.81210E+02  1.47176E+02
 -1.91025E+03  3.18311E+03  4.08480E+02 -4.09109E+03  1.86011E+03 -3.08022E+03  6.66000E+02 -7.49098E+02
  6.04785E+02  8.28220E+02  1.70510E+03  1.28814E+01  3.33203E+02 -1.73339E+03 -1.28867E+03 -2.37757E+03
 -1.43518E+03 -2.47727E+03 -1.86013E+03 -2.03989E+03  5.27343E+03 -2.10761E+03  1.34499E+03 -9.55938E+01
  1.78148E+03 -2.28548E+03  2.27014E+02  2.33447E+03  1.27637E+03  1.60520E+03 -2.10954E+03  7.12709E+02
  2.01026E+03  5.06878E+03 -3.86601E+03 -9.28074E+02  8.59099E+02 -1.77200E+03  7.39137E+02 -3.27199E+02
 -2.38782E+03 -1.82061E+03  6.50778E+03  5.39565E+03  8.21587E+02 -8.97765E+02 -1.16466E+03  2.32268E+03
  4.03256E+03  4.96615E+03  8.86018E+02 -7.97682E+02  2.89301E+03 -8.95004E+02  7.07990E+02  1.16206E+03
 -4.41200E+03  2.71530E+03  1.24061E+03 -1.24440E+03 -5.82193E+02  3.26763E+03 -7.34911E+02  1.98325E+03
 -3.51968E+03 -2.42690E+02 -1.32935E+03 -1.81794E+03 -4.15849E+03  2.29513E+03 -1.10507E+03 -5.12101E+03
 -1.27220E+03  1.79017E+03 -4.18581E+03  2.67708E+03 -7.32789E+00 -6.37405E+02  2.67486E+03  1.65753E+03
 -2.95673E+02 -2.47490E+03  9.53938E+02  4.94971E+03 -2.26319E+02  1.16136E+03  9.67563E+02  3.83158E+03
 -2.79036E+03 -1.14934E+03 -3.23372E+03 -2.77454E+03 -3.01000E+02 -1.83660E+03 -5.61131E+03 -6.39393E+03
 -5.10793E+02  8.54427E+02 -2.88639E+03 -4.79336E+02 -1.32514E+03  2.24343E+03 -4.49668E+03  3.32233E+03
 -1.48153E+03 -1.73627E+03  1.48377E+03 -3.36507E+03 -3.24821E+03  2.42317E+03  1.70780E+02 -3.25433E+02
 -3.66396E+03  5.17050E+02  2.31646E+03 -6.48486E+02  1.42283E+03  8.31294E+02  3.71937E+03  1.87741E+03
  8.63966E+02  2.45579E+03 -9.10797E+02  6.90213E+02  3.14158E+02 -2.90007E+03  1.47352E+03  4.03146E+03
  2.26882E+03 -4.96207E+03  1.63724E+03  4.06571E+02 -2.96270E+03 -5.50276E+02 -4.59821E+02 -2.57651E+02
