 $NMID ID='MM_0lb_SNR50_10hz_g45_84.RAW', FMTDAT='(8E13.5)'
 TRAMP=1., VOLUME=1. $END
  3.11526E+05  1.73119E+03  3.38153E+05  2.49915E+05  8.32344E+04  3.43653E+05 -1.34531E+05  2.55413E+05
 -1.90006E+05  8.29612E+04 -1.11734E+05 -3.37038E+04 -1.22948E+03 -5.04646E+04  5.51126E+04 -7.95605E+03
  2.98333E+04  5.72484E+04 -1.40249E+04  7.64254E+04 -6.24893E+04  6.50475E+04 -8.44856E+04  2.99925E+04
 -8.21398E+04 -1.42463E+04 -5.46950E+04 -5.21681E+04 -1.46671E+04 -7.49822E+04  2.32477E+04 -4.92477E+04
  4.06121E+04  5.87386E+03  1.95452E+04  4.91394E+04 -3.57173E+04  4.61175E+04 -6.67465E+04  3.73337E+03
 -5.80820E+04 -6.00542E+04 -5.25943E+03 -7.78535E+04  3.39185E+04 -5.48508E+04  4.51361E+04 -2.30481E+04
  4.89956E+04  1.57572E+04  3.13986E+04  2.61149E+04  1.47804E+04  3.12788E+04 -7.74045E+03  2.96860E+04
 -2.32849E+04  8.26576E+03 -1.45212E+04 -5.64795E+03  5.99023E+03 -7.48902E+03  2.31454E+04  1.65940E+04
  9.53194E+03  3.47683E+04 -3.45738E+04  3.72347E+04 -6.31158E+04  5.08939E+03 -5.98265E+04 -4.45548E+04
 -1.09216E+04 -6.67623E+04  3.49542E+04 -4.68104E+04  5.36260E+04 -3.45647E+03  3.62822E+04  3.62089E+04
  8.71780E+02  4.56793E+04 -3.65133E+04  1.69854E+04 -3.45000E+04 -1.52654E+03 -2.27495E+04 -9.73639E+03
 -1.08792E+04 -1.23483E+04  2.98312E+03 -1.58845E+04  8.69143E+03 -2.72481E+04  1.54781E+04 -1.66541E+04
  1.13679E+04  7.71953E+03 -9.42478E+03  8.83461E+03 -2.28217E+04 -3.19297E+03 -9.89871E+03 -3.50490E+04
  2.06963E+04 -4.80915E+04  5.02706E+04 -1.95872E+04  4.74682E+04  2.33045E+04  1.72781E+04  4.60369E+04
 -1.06624E+04  3.87865E+04 -2.42408E+04  6.65087E+03 -1.29609E+04 -2.60798E+04  2.26511E+04 -3.04147E+04
  3.63198E+04 -1.07844E+04  4.32760E+04  2.71826E+04  2.17130E+04  4.52288E+04 -5.68941E+03  5.42289E+04
 -3.22386E+04  3.55431E+04 -4.39057E+04  1.48208E+04 -4.62098E+04 -1.94902E+04 -2.15587E+04 -4.34351E+04
  8.36042E+03 -4.78233E+04  3.18621E+04 -1.04357E+04  3.11655E+04  1.21666E+04  6.22053E+03  2.64319E+04
 -1.79191E+04  1.10287E+04 -9.40842E+03 -7.78556E+03  5.88937E+03 -1.46625E+04  2.42890E+04  8.60552E+03
  9.95999E+03  2.18593E+04 -4.03219E+03  2.92868E+04 -2.21213E+04  5.79482E+03 -2.79761E+04  3.83036E+01
 -2.31153E+04 -1.39148E+04 -1.12580E+04 -1.59667E+04  7.10033E+03 -2.08693E+04  1.24558E+04 -1.94785E+04
  3.00833E+04 -1.66274E+04  2.65374E+04  1.04671E+04  2.28557E+04  2.64494E+04  1.38484E+03  4.17705E+04
 -1.19628E+04  3.73825E+04 -3.70870E+04  6.99797E+03 -2.31844E+04 -1.41820E+04 -6.30654E+02 -8.00482E+03
 -4.65295E+03 -3.09672E+03 -8.86841E+03  8.37545E+03 -2.09581E+04  6.70624E+03 -1.45255E+04 -9.39845E+03
 -1.06358E+04 -3.15317E+04 -2.77091E+02 -2.35298E+04  1.98470E+04 -1.60865E+04  1.88210E+04  5.05931E+03
  1.80194E+04  1.87536E+04  2.28351E+02  2.42282E+04 -1.15043E+04  1.20109E+04 -2.10948E+04  1.72264E+02
 -1.41472E+04 -2.06385E+04 -2.50469E+02 -3.11155E+04  1.59375E+04 -2.65975E+04  2.59026E+04 -1.18368E+04
  2.10781E+04 -3.18880E+03  9.57136E+03  4.68810E+03  1.19634E+04 -3.92465E+02  9.58476E+03 -6.09292E+03
  1.94963E+04  3.64269E+03  2.49984E+04  1.50549E+04  1.51355E+04  3.20850E+04 -1.84154E+02  3.83723E+04
 -2.19518E+04  3.27137E+04 -4.13506E+04  2.04124E+04 -4.05019E+04 -6.32597E+03 -3.30882E+04 -2.02430E+04
 -1.21842E+04 -2.94918E+04  1.17059E+04 -3.47463E+04  2.20563E+04 -1.41664E+04  1.56298E+04  4.97605E+03
  1.20801E+04  1.72533E+04 -8.39402E+03  7.01030E+03 -2.70184E+04  6.02752E+03 -1.18808E+04 -8.30843E+03
  1.88670E+02 -2.09870E+04  5.72530E+03 -1.28973E+04  1.14153E+04  2.87063E+03 -1.15244E+03  8.31729E+03
 -7.18396E+03  6.05564E+03 -1.14726E+04 -5.80913E+03 -2.93413E+03 -1.51835E+04  1.29540E+04 -1.77668E+04
  2.49284E+04 -7.48544E+03  2.75469E+04  4.62962E+03  1.58383E+04  2.05612E+04  7.84951E+03  3.26139E+04
 -1.95406E+03  2.44231E+04 -1.97837E+04  7.94410E+03 -1.71629E+04 -6.37993E+02 -1.86250E+04 -9.83018E+03
 -1.03408E+04 -9.29210E+03 -4.24908E+02 -1.20761E+03 -8.00429E+03  3.13080E+03 -7.63088E+03  6.77827E+03
 -1.46362E+04 -5.04590E+02 -1.67152E+04 -1.10806E+04  9.32677E+02 -1.78475E+04  5.76632E+03 -1.28642E+04
  1.02436E+04 -3.95889E+03  4.37682E+03 -4.18974E+02 -3.12717E+03  8.19124E+03 -1.30708E+04  3.69560E+02
 -4.85330E+03 -4.36445E+03 -3.79189E+03 -1.46039E+04  7.76779E+03 -1.65692E+04  1.63247E+04 -4.49817E+03
  2.59430E+04  1.96012E+03  1.70399E+04  1.32085E+04  7.84619E+02  1.55272E+04 -1.01929E+04  1.08303E+04
 -1.33257E+04  1.06727E+04 -3.19772E+03 -9.72143E+03  7.31267E+03 -5.19817E+03  9.68041E+03  6.01425E+02
  8.65928E+03  4.22262E+03 -1.55811E+03  7.59920E+03 -1.25660E+04  1.50468E+04 -1.70162E+04  6.05976E+03
 -6.14104E+03 -3.79223E+03  1.58573E+03 -9.79883E+03  6.55714E+03 -4.04194E+03  1.18957E+04  4.19617E+03
  1.02350E+03  7.80418E+03 -1.01651E+04  7.76494E+03 -1.43956E+04 -3.12163E+02 -9.86780E+03 -4.30425E+03
 -8.17939E+03 -1.43669E+04 -1.26493E+03 -1.92100E+04  1.32364E+04 -1.42733E+04  1.36336E+04  1.46441E+03
  1.03327E+04  1.02866E+04 -1.51553E+03  1.42978E+04 -1.08503E+04  1.38353E+04 -1.50722E+04 -3.36039E+03
 -8.50889E+03 -1.29545E+04 -2.42233E+03 -1.22023E+04  6.53970E+03 -6.35810E+03  1.00641E+03 -4.68776E+03
  2.22545E+03  3.06334E+03 -6.54067E+02  6.23200E+03  2.82658E+03 -1.69420E+03  3.74685E+03  5.70560E+02
  8.47669E+03  2.87113E+02  1.43658E+04 -2.08940E+03  1.03830E+04  7.62772E+03  1.10835E+04  1.62110E+04
 -4.89399E+03  1.37597E+04 -1.80162E+04  1.08612E+04 -2.37479E+04  6.80609E+03 -1.62912E+04 -1.21894E+04
 -6.86795E+03 -1.21204E+04  4.17371E+03 -1.25327E+04  5.54057E+03 -6.98357E+03  1.04658E+04 -6.81914E+03
  6.23615E+03  9.43146E+02  2.09767E+03 -3.31363E+03  4.66635E+03 -9.79244E+02  7.10724E+03  1.65257E+03
  6.28499E+03  3.86060E+01  2.27090E+03  9.68840E+03  2.01712E+03  1.05339E+04 -8.35988E+03  6.75777E+03
 -7.44726E+03  3.86104E+03 -9.95933E+03 -7.76524E+03 -1.77424E+03 -1.58543E+04  4.26566E+03 -1.62585E+04
  1.40196E+04 -1.08823E+04  2.07968E+04  2.68239E+03  3.38407E+03  1.43236E+04  1.32112E+03  1.93971E+04
 -8.08322E+03  1.35703E+04 -1.00109E+04  7.48828E+03 -4.72413E+03 -5.46841E+03  3.58667E+02 -3.06476E+03
 -6.28647E+03 -5.17609E+03  2.39752E+02  2.23018E+03 -1.08833E+04  2.30684E+03 -3.25140E+03 -2.20197E+03
 -9.95382E+03 -1.15003E+04  3.00452E+03 -1.47807E+04  1.22673E+04 -8.50634E+03  1.59300E+04 -5.48408E+03
  1.70861E+04  6.17139E+03  5.35903E+02  7.72971E+03 -2.65852E+03  1.45004E+04 -6.44154E+03  1.10732E+04
 -1.53154E+04 -1.82519E+02 -7.31684E+03 -6.56010E+03 -4.19176E+03 -1.09297E+04  8.53481E+03 -7.21026E+03
  1.37949E+04 -3.03802E+03  6.82645E+03 -3.35312E+03 -4.01038E+03  4.41483E+03 -3.43996E+03  1.36923E+03
  2.80827E+03 -7.03206E+03  2.02301E+03  1.40683E+03  6.82079E+02  5.57162E+03  6.21446E+03  4.22259E+03
 -5.32818E+03  7.42414E+03 -3.05685E+03  1.25424E+04 -1.47187E+04  4.41247E+03 -1.38035E+04 -7.00502E+03
 -1.50885E+03 -1.11228E+04  1.48421E+03 -1.21552E+04  9.80975E+03 -9.31914E+03  7.97167E+03 -2.04448E+03
  4.76770E+03  5.39506E+03 -1.32846E+03  1.41113E+04  2.71147E+03  4.68366E+03 -1.42410E+03 -8.39119E+03
 -4.56137E+03 -5.74079E+03 -6.72011E+02 -1.22415E+04  8.51081E+03 -3.92074E+03  1.06629E+04  6.70075E+03
 -5.60190E+02  2.02377E+03  5.00803E+03  4.88308E+03 -9.15421E+03 -1.00746E+03  1.79999E+03 -3.74962E+03
 -2.96352E+03  4.03354E+03  7.11501E+03  6.48217E+03 -3.43126E+02  9.21135E+03 -1.15711E+03  1.26790E+04
  3.30080E+03  1.11980E+03 -7.32918E+03 -3.63875E+03 -2.33774E+03  4.83732E+02 -2.94167E+03 -6.50081E+03
  9.79535E+02 -1.13958E+04  4.16834E+03  1.26473E+03  5.75797E+03  3.13749E+03 -1.39819E+03  6.44634E+03
 -8.25334E+03 -9.96251E+01 -6.46238E+03 -8.88156E+02 -2.26988E+03 -1.52024E+04  2.63958E+03 -2.76465E+03
 -2.64896E+03  1.99167E+03  9.18446E+03 -1.63668E+03  4.10674E+03  4.55827E+03  3.90409E+03  5.39714E+03
 -3.46072E+03 -3.52510E+03 -2.87348E+03 -6.03008E+02  9.03458E+03 -5.17844E+03  1.11412E+04 -8.98543E+03
  5.52288E+03  9.55187E+01  7.26433E+03  4.90975E+03  7.25262E+03  4.59055E+03 -3.33064E+03  5.79989E+03
 -1.04249E+04  6.76928E+03 -7.09821E+03 -1.58769E+03 -1.32587E+03 -2.63113E+03 -4.92999E+02 -1.05771E+04
  1.11106E+04 -6.44050E+03  2.79877E+03  5.53159E+02  4.47146E+03  2.59657E+03 -5.28383E+03  4.88751E+03
  1.14859E+03  6.43875E+03 -1.12488E+03 -1.81176E+02  2.32043E+02  3.41771E+03  1.26455E+03  1.26904E+03
  2.79546E+00  4.12693E+02 -1.72217E+03  1.60130E+03 -1.20799E+04 -5.93444E+03 -1.16602E+04 -1.02736E+02
 -6.41648E+03 -1.18410E+04  4.26203E+03 -1.42277E+04  9.15666E+03 -1.23513E+04  1.06950E+04  2.58981E+03
  1.03228E+04  1.28537E+03  1.15247E+04  5.69756E+03  5.90858E+03  5.78657E+03 -5.27721E+03  2.24186E+03
 -5.50621E+03  3.82497E+03 -3.72467E+02  2.93121E+03 -1.30067E+03 -7.95329E+02 -4.07424E+03  5.36756E+03
 -2.37914E+03 -4.51190E+03  3.03446E+03  3.93578E+03 -5.00722E+03  2.76546E+03  5.68440E+02 -7.97520E+03
 -1.57567E+03 -2.08440E+03  4.79578E+02 -9.97335E+02  6.35063E+03  2.87467E+03  5.00862E+03  6.95450E+03
 -4.10039E+03  7.44533E+03 -1.15084E+04  2.57776E+03 -1.09790E+04 -1.10544E+03 -9.40306E+03 -8.22334E+03
  3.65439E+02 -9.47643E+03 -6.43051E+03 -6.17219E+03  1.03597E+04  2.74067E+03  6.00507E+03  1.07352E+03
  1.68282E+03  6.37376E+03 -1.77178E+03  8.11996E+03 -1.20186E+03 -1.06266E+02 -2.15309E+03 -5.25549E+03
 -1.30158E+02 -3.13514E+03  6.67343E+03  2.61966E+03  7.82790E+03  5.50748E+03  1.08384E+03  6.48741E+03
  3.49371E+02 -5.98082E+02 -7.13660E+03  5.70707E+03 -1.43342E+03 -2.46305E+03  2.34018E+03 -6.22095E+03
  7.00090E+03 -7.37166E+03  1.11124E+04 -3.89203E+03  5.31845E+03  1.20780E+03 -5.16602E+01  5.21064E+03
  4.67172E+02  5.16930E+03 -6.81418E+03  2.51830E+03  2.64530E+02  1.54493E+03 -4.65447E+03  7.62385E+02
 -5.10202E+03 -3.25868E+03 -7.36410E+02 -1.74726E+03 -2.48329E+03 -2.05573E+03 -4.37902E+03 -1.70225E+03
 -5.97002E+03 -2.58819E+02 -4.16400E+03 -3.84250E+03  1.40465E+03 -4.53379E+03  2.73698E+03 -1.09164E+03
 -5.59926E+02  7.65926E+02  7.62450E+03  3.57452E+03  5.13538E+03  5.27908E+03 -1.13016E+03  3.58718E+03
