 $NMID ID='MM_0lb_SNR50_10hz_g55_84.RAW', FMTDAT='(8E13.5)'
 TRAMP=1., VOLUME=1. $END
  3.12177E+05 -3.15897E+02  3.42369E+05  2.51154E+05  8.29763E+04  3.41824E+05 -1.32915E+05  2.49139E+05
 -1.83321E+05  8.04482E+04 -1.11558E+05 -3.48846E+04 -4.14392E+02 -5.12443E+04  5.59510E+04 -5.14174E+02
  3.26108E+04  5.46721E+04 -2.02076E+04  7.32992E+04 -6.24845E+04  6.71087E+04 -8.41339E+04  3.15361E+04
 -8.64012E+04 -1.25508E+04 -6.35596E+04 -5.37855E+04 -1.48958E+04 -6.72459E+04  2.61029E+04 -4.74614E+04
  3.86941E+04 -1.86372E+03  1.42571E+04  5.18526E+04 -3.22063E+04  4.69679E+04 -7.21602E+04  1.65896E+03
 -5.41360E+04 -6.18052E+04 -5.95533E+03 -7.85574E+04  2.94591E+04 -5.76620E+04  5.01712E+04 -1.98602E+04
  4.64416E+04  7.78395E+03  2.90857E+04  2.51827E+04  1.28176E+04  3.69606E+04 -4.38770E+03  3.46599E+04
 -2.01904E+04  1.03342E+04 -1.92177E+04 -5.90949E+03  1.10686E+04 -8.32333E+03  2.25742E+04  1.28547E+04
  6.59779E+03  4.25922E+04 -3.56993E+04  3.96566E+04 -6.77781E+04 -3.55223E+02 -5.56147E+04 -5.12662E+04
 -1.69699E+04 -6.79823E+04  4.74568E+04 -4.58820E+04  6.24144E+04 -5.51149E+02  3.06263E+04  4.04790E+04
 -7.13225E+03  3.32991E+04 -2.87547E+04  1.86052E+04 -3.22001E+04 -6.99936E+02 -1.88371E+04 -1.19091E+04
 -9.63722E+03 -1.43515E+04 -7.38981E+03 -1.92418E+04  6.99392E+03 -2.72008E+04  1.20817E+04 -1.25655E+04
  1.15383E+04  6.78199E+03 -9.81931E+03  7.83116E+03 -2.38099E+04 -2.02754E+03 -4.23545E+03 -3.29335E+04
  2.40294E+04 -4.87561E+04  5.56274E+04 -2.40576E+04  4.51104E+04  1.89151E+04  1.71626E+04  4.47092E+04
 -1.33672E+04  3.84070E+04 -2.52687E+04  5.55782E+03 -1.10408E+04 -2.41470E+04  1.52412E+04 -3.92280E+04
  4.46274E+04 -1.11004E+04  3.93592E+04  2.65601E+04  2.13221E+04  5.45964E+04 -9.32096E+03  5.77635E+04
 -3.11427E+04  3.97024E+04 -4.32287E+04  9.35217E+03 -4.48469E+04 -2.31049E+04 -2.58682E+04 -4.26476E+04
  1.24305E+04 -4.09377E+04  3.69570E+04 -2.23726E+04  3.12941E+04  1.43123E+04  8.52012E+03  2.11178E+04
 -6.58425E+03  2.45532E+03 -1.09300E+04 -4.29208E+03  5.15251E+03 -9.53152E+03  1.87068E+04  6.26795E+03
  1.49937E+04  2.92135E+04 -8.23911E+03  2.27653E+04 -1.76829E+04  1.31670E+04 -3.01502E+04 -2.99590E+03
 -2.00668E+04 -2.14305E+04 -1.21417E+04 -2.03932E+04  5.11424E+03 -2.77614E+04  1.70872E+04 -2.17657E+04
  3.56014E+04 -1.53946E+04  3.71191E+04  4.37591E+03  2.40820E+04  2.79719E+04  1.16951E+03  4.57866E+04
 -2.04651E+04  3.16672E+04 -3.51243E+04  1.16328E+04 -2.11160E+04 -8.16420E+03 -9.06135E+03 -7.10983E+03
  1.72785E+03 -1.25771E+03 -8.06933E+03  9.41686E+03 -2.19940E+04  9.14810E+03 -1.73161E+04 -3.83066E+03
 -1.14160E+04 -2.12993E+04  4.39250E+03 -3.15656E+04  1.58700E+04 -1.38227E+04  2.42597E+04 -4.45801E+03
  1.43338E+04  1.62330E+04 -1.14943E+04  1.55113E+04 -1.32468E+04  8.73715E+03 -2.17893E+04 -2.89314E+03
 -1.87465E+04 -2.25571E+04 -6.34706E+03 -3.15223E+04  1.45522E+04 -2.68887E+04  2.67758E+04 -1.11764E+04
  2.55515E+04 -1.33255E+03  1.75965E+04  1.56253E+03  5.72095E+03 -5.54698E+02  1.30592E+04 -2.47094E+03
  2.37744E+04  3.77419E+02  2.34720E+04  2.05795E+04  1.89578E+04  3.94720E+04 -6.57049E+03  4.34648E+04
 -1.98603E+04  3.95516E+04 -4.03894E+04  1.76419E+04 -3.81153E+04 -5.29659E+03 -3.35704E+04 -2.53826E+04
 -1.70820E+04 -3.90099E+04  1.57634E+04 -3.33314E+04  2.86960E+04 -1.64143E+04  2.40356E+04  2.74358E+03
  7.24019E+03  1.56813E+04 -9.40713E+03  1.50716E+04 -2.23638E+04  6.00969E+03 -1.26807E+04 -1.47509E+04
 -2.94838E+02 -1.80204E+04  1.25731E+04 -1.34573E+04  1.31662E+04  1.21518E+03  5.83208E+03  7.48287E+03
 -6.32253E+03  2.46345E+03 -1.43389E+04 -5.57293E+03  1.86935E+03 -2.42757E+04  1.90282E+04 -1.98872E+04
  2.33743E+04 -1.44428E+04  2.56462E+04  7.33415E+03  2.02047E+04  1.51970E+04  9.44797E+03  2.33883E+04
 -3.42475E+03  3.17135E+04 -2.18685E+04  1.22933E+04 -2.38473E+04  8.54021E+03 -1.19978E+04 -7.61517E+03
 -6.55750E+03 -1.06836E+04 -3.79243E+03  7.84892E+03 -5.13849E+03  1.61107E+03 -5.98479E+03 -4.49824E+02
 -7.52559E+03 -3.87428E+03 -1.06446E+04 -1.15172E+04 -1.36420E+04 -2.04001E+04  4.13339E+03 -1.03058E+04
  1.32729E+04 -1.28395E+04  3.96078E+03  3.67207E+03 -7.52929E+03  4.24534E+03 -1.09506E+04  8.06480E+02
 -2.63672E+03 -1.07271E+04  4.72307E+03 -1.78364E+04  7.65206E+03 -2.14532E+04  1.95880E+04 -1.50969E+04
  2.22847E+04  2.73815E+02  1.83471E+04  1.08079E+04  2.16334E+03  1.80397E+04 -8.16050E+03  1.51590E+04
 -1.17302E+04 -1.10581E+03 -6.55124E+03 -3.66684E+03 -1.01007E+03 -8.21512E+03  9.86145E+03 -9.24748E+03
  8.29363E+03  9.03573E+03  2.43193E+03  1.63244E+04 -2.45302E+03  7.32416E+03 -9.72986E+03 -1.93059E+03
 -1.18411E+04 -6.19213E+03  6.69707E+03 -1.76740E+04  7.21027E+03 -7.47742E+03  6.85908E+03  2.48512E+03
  3.77501E+03  1.11437E+04 -6.53841E+03  1.11226E+04 -1.31594E+04  8.89663E+03 -1.39811E+04 -6.32871E+03
 -6.63700E+03 -1.80468E+04  1.11875E+03 -2.09766E+04  1.87548E+04 -7.81637E+03  1.56732E+04  6.32449E+03
  1.46786E+04  1.16335E+04 -4.64469E+03  1.65221E+04 -1.80288E+04  1.23648E+04 -1.58269E+04 -1.54946E+03
 -1.30235E+04 -8.60809E+03 -5.54927E+03 -1.03476E+04  4.42450E+03 -1.06359E+04 -8.92837E+01 -4.71756E+03
  3.78975E+03  2.13573E+03 -3.96957E+03  3.50045E+03  6.73104E+02 -2.15573E+03  8.94880E+03 -9.89826E+02
  1.37162E+04 -5.59686E+03  1.19264E+04 -3.49238E+03  1.41812E+04  1.04779E+04  6.01075E+03  2.07557E+04
 -4.80788E+03  2.44885E+04 -2.11232E+04  1.58585E+04 -1.85423E+04  2.68571E+03 -1.93248E+04 -5.77375E+03
 -4.83525E+03 -1.99099E+04  8.89322E+03 -1.51697E+04  7.13360E+03 -4.35488E+03  7.16695E+03 -6.26801E+03
 -2.85332E+02  3.03048E+02  4.81989E+03 -1.03012E+04  2.11687E+03 -8.11828E+03  1.08564E+04 -3.25744E+03
  1.17757E+04  4.80258E+03  8.53051E+03  1.28774E+04  2.24829E+03  1.35947E+04 -1.32560E+04  8.62438E+03
 -1.58992E+04  1.57354E+03 -2.61740E+03 -9.54449E+03  4.37409E+03 -1.47596E+04  8.83062E+03 -9.87861E+03
  9.19908E+03 -4.34782E+03  2.06664E+04  3.27043E+03  5.84449E+03  1.65846E+04  2.77883E+03  1.36910E+04
 -1.15783E+04  1.78836E+04 -9.89749E+03 -5.94814E+02  1.99641E+02  7.24410E+02 -3.07966E+03 -4.13577E+03
 -3.38206E+03  4.18928E+03 -5.32863E+03  1.15704E+03 -5.07490E+03 -6.33071E+02 -1.58102E+04 -9.09268E-01
 -5.62378E+03 -1.39974E+04  3.98349E+03 -9.28334E+03  5.92924E+03 -1.66105E+04  1.57363E+04 -1.58943E+03
  1.22241E+04  6.61314E+03  6.61768E+03  9.92291E+03 -1.53688E+03  9.93813E+03 -5.89447E+03  6.90528E+03
 -1.60176E+04  3.02386E+03 -1.44500E+04 -8.47566E+03 -2.74720E+03 -6.22806E+03  1.21390E+02 -5.40335E+03
  1.24902E+04 -5.96795E+03  5.82771E+03  2.87556E+02 -2.32831E+03  2.70893E+03  1.82344E+03 -2.87799E+01
  1.51366E+03  8.22405E+02  9.86127E+03 -5.99179E+02  4.86967E+03  5.74871E+03  5.17360E+02  7.75104E+03
 -2.16534E+03  6.57491E+03 -1.19549E+04  9.38534E+03 -1.87453E+04  5.00282E+03 -1.70384E+04 -3.73408E+03
 -5.22388E+03 -1.01938E+04  4.60786E+03 -1.09295E+04  4.05084E+03 -7.06848E+03  9.16488E+03 -3.55966E+03
  5.14663E+03  9.79406E+03  4.37335E+03  6.81102E+03 -8.05451E+03  7.75211E+03 -2.02889E+03 -3.81905E+03
 -6.94632E+02 -3.36983E+03  3.60149E+03 -6.50823E+03  3.32192E+02 -9.41204E+03  9.25872E+03  2.35979E+03
  5.26591E+02  8.63450E+03  6.66321E+03  6.63387E+03 -5.83129E+03  4.29598E+03  4.56462E+03 -8.22495E+03
  6.52210E+03  2.01981E+03  6.39418E+03 -3.65416E+02  1.47255E+03  1.26543E+04 -1.10913E+03  1.25693E+04
 -6.60955E+03  1.01218E+04 -7.24808E+03 -1.32235E+03 -6.50455E+03 -6.07505E+03 -3.21139E+02 -1.25538E+04
 -5.85278E+03 -1.64695E+03  5.79913E+03 -4.36955E+03  2.57458E+03  6.24993E+02 -2.19453E+03 -2.79711E+03
 -5.14416E+03  2.23667E+03 -1.09210E+04 -4.53911E+03 -4.43718E+03 -7.12077E+03  1.03397E+04 -7.78286E+03
  1.17204E+04 -9.13977E+03  4.85258E+03 -3.12609E+03 -2.21656E+02  4.00627E+03 -5.24529E+03  1.75813E+03
  5.88926E+03 -3.69416E+03 -3.82265E+03 -2.81066E+03  1.90637E+03 -4.85933E+03  6.14072E+03 -8.80814E+03
  1.13699E+04 -4.12671E+03  9.01645E+03  5.17823E+03 -2.59885E+03  4.76887E+03 -3.29974E+03  9.86900E+03
 -1.68515E+03  5.55411E+03 -7.24541E+03 -2.93217E+03 -7.48786E+02 -7.32866E+03 -3.93450E+03 -6.99906E+03
  2.41443E+03  4.65430E+03  6.91306E+03  8.24513E+02  1.51643E+03  5.97164E+03  2.63815E+02 -9.22309E+01
 -5.52439E+03  1.67310E+03 -1.90004E+03  3.84838E+03 -3.70624E+03  4.18196E+03 -6.38089E+03  6.33518E+03
 -4.33896E+03  6.08565E+03 -7.15619E+03  3.11639E+03 -1.37510E+04 -5.91392E+02 -6.99371E+03 -9.77945E+03
 -5.99000E+03 -6.51369E+03  8.12084E+02 -1.78479E+04  6.92910E+03 -8.65368E+03  1.07865E+04 -5.66338E+03
  1.12330E+04 -4.31603E+02  6.89974E+03  7.25909E+03  2.37118E+02  3.84236E+03 -5.64669E+03  7.91633E+03
 -5.31850E+02  3.82884E+03  4.30039E+03 -6.07390E+03 -9.27994E+02 -3.16035E+03 -3.50520E+03 -1.87650E+03
 -3.63603E+03  5.89000E+02 -2.88238E+03  3.46596E+03  6.18411E+02 -3.84506E+03  2.04907E+02 -3.10806E+03
  3.24387E+03 -3.47459E+03  7.16869E+03 -7.41962E+02  6.91233E+03  6.51980E+03  3.03152E+03  1.22293E+04
  5.78708E+02  1.07060E+04 -1.55293E+04 -7.61402E+02 -1.24708E+04 -2.88728E+03 -9.46358E+03 -1.69548E+03
 -5.21181E+03 -9.90896E+03  9.01305E+03 -3.73963E+03  6.12848E+03 -1.63480E+03  1.30933E+04 -1.12509E+03
  3.29578E+03  3.26206E+03  7.07189E+01  2.17431E+03 -1.70430E+03 -7.26314E+03 -1.53736E+03 -4.60957E+02
  1.76434E+03 -4.03973E+03  4.18433E+03  3.86624E+03  6.49801E+03  4.45749E+03  1.36038E+03  3.08573E+03
 -6.59074E+03  6.04411E+03 -1.57838E+03  1.46173E+03 -2.13178E+03 -4.22273E+03  2.07671E+03 -1.08192E+04
  3.21756E+03 -3.74328E+03  1.78393E+04  1.33260E+03  9.68049E+03  4.19952E+03 -6.24149E+02  8.59990E+03
  4.57233E+03  1.80003E+03 -3.44203E+03  5.72064E+03 -3.17525E+03  3.57111E+03 -1.50417E+03 -2.09082E+03
  1.03298E+03 -3.72839E+03 -5.10698E+03 -2.35011E+03 -5.20732E+03  1.46214E+03 -8.21258E+03 -3.98003E+03
 -2.47038E+03 -2.11060E+03 -3.27592E+03 -1.29317E+04  4.11816E+03 -5.55495E+03  9.28226E+03 -7.72723E+03
  8.76049E+03  6.42827E+03  1.16211E+03  2.54005E+03 -6.89274E+03  3.96805E+03 -7.23699E+03  3.44198E+03
