 $NMID ID='MM_0lb_SNR50_9hz_g50_39.RAW', FMTDAT='(8E13.5)'
 TRAMP=1., VOLUME=1. $END
  3.14218E+05  9.16211E+02  3.40295E+05  2.50240E+05  8.56981E+04  3.38201E+05 -1.35046E+05  2.50959E+05
 -1.91347E+05  8.34939E+04 -1.11007E+05 -3.55072E+04 -2.48371E+03 -4.84139E+04  5.04680E+04 -1.87411E+03
  3.05742E+04  5.97626E+04 -1.77722E+04  7.64071E+04 -6.17579E+04  6.69595E+04 -8.25455E+04  2.96918E+04
 -7.81481E+04 -8.26790E+03 -5.53475E+04 -5.55662E+04 -1.10745E+04 -7.29092E+04  2.82995E+04 -4.61197E+04
  3.70281E+04  3.78710E+02  1.51730E+04  4.72732E+04 -3.95728E+04  4.92384E+04 -7.07426E+04 -2.58692E+03
 -5.45885E+04 -5.82019E+04 -7.77849E+03 -7.68783E+04  4.35803E+04 -5.69170E+04  5.08386E+04 -2.12223E+04
  4.01102E+04  1.58897E+04  3.48612E+04  2.52570E+04  1.01865E+04  3.04551E+04 -1.28684E+04  2.47481E+04
 -2.05756E+04  9.08152E+03 -1.70022E+04 -6.97469E+03  4.27533E+03 -1.21095E+04  2.46340E+04  2.08897E+04
  5.28562E+03  3.40425E+04 -3.69875E+04  3.27191E+04 -5.94788E+04  3.44300E+02 -5.89722E+04 -3.99438E+04
 -1.33916E+04 -6.90276E+04  4.07843E+04 -4.95168E+04  5.55250E+04 -5.70149E+03  3.47900E+04  3.71076E+04
 -6.21616E+03  4.37206E+04 -3.57453E+04  2.48422E+04 -3.24768E+04 -7.84999E+03 -2.12671E+04 -1.26081E+04
 -6.57236E+03 -1.16430E+04 -3.43846E+03 -1.82063E+04  9.67012E+03 -2.44898E+04  1.95945E+04 -1.05636E+04
  9.36527E+03  7.41909E+03 -6.48268E+03  1.06660E+04 -2.18531E+04 -1.12573E+04 -8.89096E+03 -3.86110E+04
  2.52848E+04 -4.19507E+04  4.52685E+04 -1.91106E+04  4.50265E+04  2.20940E+04  2.33180E+04  4.89722E+04
 -1.56125E+04  3.91559E+04 -2.72199E+04 -2.06974E+03 -1.30903E+04 -2.42001E+04  2.45211E+04 -3.46510E+04
  4.85981E+04 -1.29093E+04  3.81105E+04  2.84795E+04  2.30696E+04  5.01547E+04 -7.82357E+03  6.11675E+04
 -4.04962E+04  3.66614E+04 -4.78340E+04  3.95274E+03 -4.44409E+04 -1.77002E+04 -2.68499E+04 -3.86020E+04
  3.61825E+03 -4.20935E+04  3.20814E+04 -2.23596E+04  3.09095E+04  1.69007E+04  1.13250E+03  2.44115E+04
 -1.99793E+04  1.25710E+04 -7.40671E+03 -1.23322E+04  8.24743E+03 -1.20427E+04  1.98429E+04  6.33558E+03
  1.72417E+04  2.54324E+04 -9.37977E+03  2.85415E+04 -1.73280E+04  2.11745E+04 -3.27188E+04 -4.82078E+03
 -2.52244E+04 -2.42034E+04 -9.98756E+03 -2.22549E+04  6.25084E+03 -2.49250E+04  1.52605E+04 -2.19679E+04
  3.04642E+04 -1.62865E+04  3.50487E+04  8.48614E+03  2.95666E+04  2.99388E+04  8.19819E+03  4.48940E+04
 -1.72266E+04  3.94632E+04 -3.20881E+04  9.52980E+03 -2.19839E+04 -1.06481E+04 -7.18197E+02 -1.39003E+04
  2.29024E+03  5.98246E+03 -6.72934E+03  9.17706E+03 -2.17151E+04  3.48660E+03 -2.16775E+04 -8.30221E+03
 -6.92180E+03 -2.24495E+04  5.19255E+03 -2.44941E+04  1.32842E+04 -2.44733E+04  2.17162E+04 -3.31018E+03
  1.56322E+04  1.88907E+04  1.40297E+03  2.62949E+04 -1.20718E+04  1.54483E+04 -1.71312E+04 -6.01310E+03
 -1.67831E+04 -2.11752E+04 -8.30305E+03 -3.66027E+04  1.17958E+04 -2.74593E+04  1.96795E+04 -8.73268E+03
  2.08418E+04  3.50262E+03  1.59986E+04  1.81087E+03  1.59973E+04  1.34457E+03  1.15172E+04 -2.13216E+03
  2.36470E+04  5.44807E+03  2.39509E+04  1.74964E+04  1.46723E+04  3.62539E+04 -4.60597E+03  5.02185E+04
 -3.21646E+04  3.46697E+04 -4.60232E+04  1.87894E+04 -4.59041E+04  1.01428E+01 -3.77177E+04 -2.66815E+04
 -1.43023E+04 -4.26404E+04  1.15445E+04 -3.61538E+04  2.42705E+04 -1.42411E+04  2.71938E+04  9.87666E+03
  9.36311E+03  1.38161E+04 -1.25069E+04  1.24454E+04 -2.16701E+04  6.70432E+03 -1.79423E+04 -1.09285E+04
  2.41310E+03 -2.46407E+04  1.25077E+04 -1.15729E+04  1.78491E+04 -3.81862E+02  4.61307E+03  1.46464E+04
 -1.37551E+04  6.40471E+03 -1.18374E+04 -3.07859E+03 -6.45655E+03 -2.49308E+04  8.75672E+03 -1.82060E+04
  1.89339E+04 -1.13483E+04  2.74178E+04 -3.01179E+02  2.19700E+04  1.80011E+04  1.12158E+04  3.02805E+04
 -3.26473E+03  2.81405E+04 -1.58198E+04  2.19544E+04 -2.15478E+04  1.47143E+03 -1.49056E+04 -2.75123E+03
 -8.15420E+03 -1.62283E+04 -6.07512E+03 -1.77539E+02  4.53695E+03  3.96646E+03 -7.83518E+03  4.29073E+03
 -1.41369E+04 -2.89023E+03 -1.34161E+04 -1.12186E+04 -4.52617E+03 -2.14008E+04  7.65426E+03 -1.04595E+04
  1.24708E+04 -5.56984E+03  1.58961E+03  6.87976E+03 -1.25082E+03  5.38515E+03  3.19104E+02  1.27623E+02
 -2.84613E+03 -7.38408E+03 -1.24785E+03 -1.73253E+04  8.35913E+03 -1.54593E+04  2.26730E+04 -1.24302E+04
  2.78070E+04  2.60612E+03  2.14201E+04  9.10146E+03  1.08396E+04  1.89156E+04 -9.64492E+03  1.30679E+04
 -1.64920E+04  3.60960E+03 -7.32906E+03  2.83972E+02  5.04553E+03 -3.11100E+03  4.86866E+03  5.46118E+03
  9.31584E+03  2.07031E+03  9.00428E+03  1.64613E+04 -5.47570E+03  6.84622E+03 -1.29561E+04  2.15371E+03
 -1.09023E+04 -1.06639E+04  5.00432E+01 -1.76592E+04  2.15702E+04 -1.06460E+04  1.27861E+04  4.62105E+03
  2.55415E+03  1.40403E+03 -4.14072E+03  1.22343E+04 -1.78679E+04  4.49142E+03 -1.55313E+04 -6.73054E+03
 -6.65942E+03 -1.41284E+04  6.61593E+03 -1.88712E+04  1.09757E+04 -1.49738E+04  8.41708E+03  3.12627E+03
  1.30404E+04  1.40194E+04 -6.81198E+03  1.43470E+04 -1.20682E+04  1.50009E+04 -1.42426E+04 -7.42800E+03
 -1.49584E+04 -1.58911E+04 -6.69032E+03 -1.33172E+04  6.54009E+03 -5.10079E+03  1.33380E+04 -6.71780E+03
  7.72697E+03  1.75907E+03 -7.09860E+03  9.00652E+03 -6.92450E+03 -3.07777E+03 -3.50474E+03 -1.05661E+04
  1.57168E+04 -1.26653E+04  1.89192E+04 -1.19094E+03  1.33424E+04  1.11413E+04  8.57311E+03  2.31077E+04
 -2.61527E+03  2.39175E+04 -1.80553E+04  1.33175E+04 -3.06207E+04  5.03501E+03 -1.97071E+04 -1.15078E+04
 -4.55945E+03 -1.96954E+04  3.93230E+03 -8.40624E+03  7.63017E+03 -9.41106E+03  5.41856E+03 -1.01458E+04
  7.68484E+03 -9.70733E+03  8.13177E+02 -6.14769E+03  5.67201E+03 -3.66240E+02  1.06835E+04 -4.88152E+03
  1.32229E+04  1.12254E+04  3.31726E+03  7.07650E+03 -6.69630E+03  1.48983E+04 -1.04613E+04  7.88128E+03
 -1.36685E+04 -2.95447E+03 -1.17011E+04 -5.36772E+03  1.26432E+03 -1.64622E+04  8.42724E+03 -1.47947E+04
  2.02315E+04 -1.98189E+03  1.61004E+04 -1.50807E+03  7.77513E+03  1.16240E+04 -2.22043E+03  1.47471E+04
 -8.42907E+03  5.62861E+03 -1.31939E+04  2.82979E+03 -3.33647E+03 -1.96021E+03 -4.79167E+03 -5.76406E+03
  2.59603E+03  5.75001E+03  9.86510E+02  7.64832E+03 -8.11111E+03  3.12421E+03 -7.76695E+03 -4.02089E+03
 -1.59927E+04 -1.21095E+04 -3.88103E+03 -1.19021E+04  6.06433E+03 -1.27608E+04  9.62611E+03 -7.91176E+03
  1.67728E+04  4.01663E+03  6.23553E+03  1.56048E+04 -8.51871E+02  1.15644E+04 -1.04441E+04  8.74871E+03
 -1.67667E+04  1.86774E+03 -1.18552E+04 -1.12972E+04 -8.79545E+03 -1.69645E+04  3.46582E+03 -6.29014E+03
  6.75034E+03 -2.17297E+03  8.44453E+03  2.61139E+03  7.90125E+02  6.29500E+03  7.59695E+03  4.80240E+03
  4.29944E+03 -1.78050E+03  8.28080E+03  4.71873E+03 -2.40415E+03  8.35914E+03  7.46471E+03  4.97283E+03
  2.26499E+03  1.20896E+04 -9.04336E+03  1.03251E+04 -1.64132E+04 -1.28211E+03 -1.62060E+04 -6.70882E+03
 -7.16111E+03 -1.05954E+04  1.36236E+03 -1.04963E+04  1.03791E+04 -1.19595E+04  8.58493E+03 -4.57840E+03
  7.73790E+03  2.19543E+03  7.07181E+03  5.51782E+03 -6.06214E+03  9.54377E+03 -5.26975E+03 -2.56352E+03
  1.75842E+03 -5.38094E+03  1.05909E+04 -2.91303E+03 -1.21975E+03 -3.59819E+03  2.66083E+03  5.23871E+03
  7.67033E+03 -1.82848E+03  8.18241E+02  2.15726E+03  2.84820E+03 -4.20501E+03  2.72263E+03 -1.95738E+03
 -1.15966E+03 -4.55146E+03  7.69848E+03  5.67545E+03  4.97690E+03  7.83148E+03  2.48193E+03  1.12829E+04
 -9.39134E+03  9.93613E+03 -1.29891E+04  4.00812E+03 -5.66414E+03  1.10193E+03  1.82465E+03 -1.17445E+04
 -1.38126E+03 -7.12350E+03  1.73310E+03 -1.27682E+03  4.59303E+03  3.84256E+03  5.07975E+03  6.27294E+03
 -6.00800E+03 -2.48578E+03 -3.69184E+03 -5.81362E+03 -1.03684E+04 -1.32883E+04  2.01491E+03 -6.14026E+03
  5.75406E+03  1.61645E+03  6.90586E+03 -3.14991E+03  6.45758E+03 -1.93272E+03 -4.56209E+03  6.27962E+03
  2.27299E+02  3.80633E+03 -8.41611E+03 -1.90215E+03  8.56735E+03 -1.12716E+04  5.09075E+03 -8.33877E+03
  8.87219E+03  3.75113E+03  8.60849E+03  2.60876E+03  1.04455E+03  1.70957E+04 -7.97842E+03  7.56561E+03
 -7.17183E+03  1.35595E+03 -1.16177E+04 -4.58401E+03 -5.78828E+03 -2.73372E+03  3.74381E+03 -6.86803E+03
  8.31332E+03 -1.84266E+03  6.87374E+03  4.63036E+03  3.55283E+03 -1.46489E+03  1.52877E+02  9.30590E+03
 -1.39326E+03 -1.69092E+03 -3.50587E+02 -2.77907E+03 -4.40513E+03 -1.81916E+03 -6.02281E+03 -1.38638E+03
 -6.51264E+03 -7.10975E+02 -8.40743E+03  5.40697E+03 -7.95940E+03 -1.08172E+03 -1.59955E+04  3.45490E+03
 -7.25137E+03 -1.41115E+04  5.03272E+02 -1.58780E+04  1.40961E+04 -1.20838E+04  1.66847E+04  2.46651E+02
  1.67888E+04  3.09382E+03  1.52177E+04  8.70071E+03 -2.60536E+03  1.78941E+04 -6.62272E+03  1.40079E+04
 -5.50748E+03  1.78428E+03  3.19526E+02 -4.17115E+03  4.73171E+02 -8.08991E+03  3.54898E+03 -1.81373E+03
  3.91442E+03  2.90829E+03 -1.68639E+03 -3.84783E+03  1.96592E+03  1.40891E+03  9.95378E+02 -4.94913E+03
  7.69982E+03 -5.36596E+03  4.59239E+03  2.95252E+03  7.19057E+02  7.32807E+03  7.70631E+02  1.32170E+04
 -9.04859E+03  9.00721E+03 -1.01516E+04  2.68815E+03 -1.27150E+04  4.85520E+03 -4.86809E+03 -6.89281E+02
 -3.65494E+03 -7.58577E+03 -1.81122E+03 -5.44849E+03  7.80669E+03 -5.77988E+03  6.43761E+03  1.59773E+03
 -1.51805E+03  5.40706E+02  2.43874E+03  4.96585E+03 -7.78375E+03 -2.40678E+03 -5.51189E+03 -1.69330E+03
  6.12728E+01 -4.36912E+02  7.02163E+03  9.14759E+02  7.68967E+03 -5.82330E+02  3.08114E+03  7.11055E+03
 -5.60910E+03  7.93184E+03 -8.63348E+03 -2.90215E+02 -8.78913E+02 -8.87888E+03  2.89956E+03 -7.15435E+03
  7.31086E+03 -4.56113E+02  6.88569E+03 -2.24217E+03  5.06185E+03  3.26799E+03  4.82519E+03  1.01456E+04
 -3.03231E+03  5.53540E+03 -1.10975E+03  7.95977E+03 -5.32682E+03  4.72209E+03 -6.08732E+03 -2.22448E+03
 -3.26726E+03 -1.35899E+03 -6.28753E+03  4.47076E+03 -7.89588E+03 -1.08893E+03 -2.01883E+03 -2.86389E+03
 -1.06551E+03  1.59601E+03 -2.48461E+03 -5.10968E+03  2.91751E+03 -8.16073E+03  7.05265E+03 -1.11313E+03
  8.28119E+03  2.92394E+03  6.04965E+03  8.92640E+03 -5.20045E+03  6.75536E+03 -6.57210E+03  6.19714E+03
