 $NMID ID='MM_0lb_SNR50_8hz_g55_31.RAW', FMTDAT='(8E13.5)'
 TRAMP=1., VOLUME=1. $END
  3.09555E+05  3.53482E+03  3.34499E+05  2.56261E+05  8.19085E+04  3.30832E+05 -1.34591E+05  2.49369E+05
 -1.92453E+05  8.34105E+04 -1.08678E+05 -3.58499E+04 -1.69890E+02 -5.52895E+04  5.79793E+04  4.93775E+03
  3.97513E+04  5.63971E+04 -1.22289E+04  7.19469E+04 -6.60443E+04  5.84643E+04 -9.22358E+04  3.03306E+04
 -8.17054E+04 -1.52979E+04 -5.82657E+04 -4.92995E+04 -1.49483E+04 -7.59019E+04  2.61196E+04 -4.99046E+04
  3.66165E+04  3.71385E+03  1.76817E+04  4.91916E+04 -3.51440E+04  5.33924E+04 -6.86747E+04  2.98690E+02
 -6.29956E+04 -5.93023E+04 -4.60300E+03 -8.07780E+04  3.53830E+04 -6.30603E+04  4.62632E+04 -1.71790E+04
  4.74013E+04  1.29770E+04  3.13380E+04  2.98131E+04  5.97032E+03  3.21771E+04 -5.29149E+03  2.79610E+04
 -1.84256E+04  3.31739E+03 -1.26785E+04 -8.43736E+03  5.99662E+03 -9.17074E+03  2.57762E+04  8.48127E+03
  4.90120E+03  3.83678E+04 -3.18607E+04  3.53967E+04 -6.81818E+04 -4.74672E+03 -5.83136E+04 -4.81057E+04
 -1.98388E+04 -6.84749E+04  3.89626E+04 -4.28755E+04  6.45791E+04 -2.36883E+03  4.63938E+04  2.95949E+04
  1.65813E+03  3.69325E+04 -3.65203E+04  1.86496E+04 -2.78404E+04 -2.99358E+03 -1.25234E+04 -1.69842E+04
 -9.05238E+03 -9.99429E+03  6.12472E+02 -1.73843E+04  3.73757E+03 -2.41661E+04  1.42137E+04 -1.73783E+04
  1.51026E+04  8.66457E+03 -1.57032E+04  1.20602E+04 -2.14648E+04 -6.45747E+03 -8.29416E+03 -3.71186E+04
  2.34449E+04 -5.17526E+04  5.45468E+04 -1.29306E+04  4.73354E+04  2.20622E+04  1.25469E+04  4.87161E+04
 -1.82274E+04  4.04171E+04 -3.51229E+04  8.26023E+03 -1.44899E+04 -3.28706E+04  2.27352E+04 -3.12686E+04
  4.44243E+04 -4.82226E+02  4.34500E+04  2.53811E+04  2.89078E+04  5.45515E+04 -2.31631E+03  5.93240E+04
 -4.05053E+04  3.83647E+04 -5.10766E+04  1.72948E+04 -4.95217E+04 -1.66386E+04 -2.56066E+04 -4.21396E+04
  8.58202E+03 -3.86165E+04  3.68495E+04 -2.20226E+04  3.51084E+04  4.92057E+03  9.09449E+03  2.38844E+04
 -1.67520E+04  1.07288E+04 -1.02414E+04 -1.19835E+04  2.85866E+03 -1.96623E+04  2.18345E+04 -1.16228E+03
  1.74677E+04  3.34041E+04 -6.10719E+03  3.06728E+04 -2.06733E+04  1.08785E+04 -3.20525E+04 -4.33409E+03
 -3.00045E+04 -9.09959E+03 -1.63788E+04 -2.82583E+04  7.56104E+03 -2.23231E+04  1.80474E+04 -2.73671E+04
  2.96016E+04 -1.01490E+04  3.46880E+04  1.17978E+04  2.93659E+04  2.45936E+04  5.23912E+03  3.85322E+04
 -3.14239E+04  3.65902E+04 -3.83932E+04  2.17672E+04 -2.38699E+04 -1.22608E+04 -4.95622E+03 -1.92624E+04
  4.52749E+03 -4.69343E+03 -5.61364E+03  8.11953E+03 -2.27367E+04 -2.40716E+03 -1.42264E+04 -9.55641E+03
 -1.09997E+04 -3.06408E+04  8.02332E+03 -2.71999E+04  2.19034E+04 -1.69018E+04  2.70559E+04 -3.26836E+03
  1.31171E+04  1.28356E+04  2.27057E+03  2.34497E+04 -1.76763E+04  1.20738E+04 -2.95046E+04  2.22001E+03
 -2.20551E+04 -2.37626E+04 -2.59448E+03 -2.70501E+04  1.89786E+04 -2.81824E+04  2.99779E+04 -1.04979E+04
  2.72229E+04  1.06387E+04  1.95281E+04 -1.04012E+03  6.77503E+02  4.98630E+03  8.69796E+03 -2.48680E+03
  1.95591E+04  8.17230E+03  2.41803E+04  1.51110E+04  2.10631E+04  3.43769E+04  1.25222E+03  4.47104E+04
 -3.19827E+04  4.18600E+04 -5.26658E+04  1.72293E+04 -4.19080E+04 -1.18872E+03 -4.31331E+04 -2.48599E+04
 -1.48386E+04 -4.60320E+04  2.05325E+04 -3.81374E+04  3.26347E+04 -2.40281E+04  2.36780E+04  1.56753E+04
  5.38427E+03  1.91089E+04 -9.18373E+03  1.37817E+04 -2.21628E+04  2.86541E+03 -5.30794E+03 -8.99140E+03
  4.77628E+03 -2.39037E+04  2.33165E+04 -1.85671E+04  9.24594E+03 -3.70506E+03  9.48642E+03  4.97923E+03
 -1.34813E+04  9.08069E+03 -1.05666E+04 -2.27595E+02 -8.48745E+03 -1.76907E+04  1.47137E+04 -1.78199E+04
  2.12868E+04 -1.45102E+04  2.01376E+04  6.57527E+03  2.81133E+04  1.76471E+04  1.04097E+04  3.32339E+04
 -9.77271E+03  2.92600E+04 -1.52970E+04  2.54641E+04 -2.37447E+04 -1.13847E+03 -2.05821E+04 -4.41928E+03
 -9.04023E+03 -1.00706E+04 -1.14991E+03 -2.10180E+03  2.97847E+03  3.43599E+03 -9.49109E+03  3.06766E+03
 -1.30468E+04 -5.14277E+03 -1.85329E+04 -1.41187E+04 -6.32351E+01 -1.83107E+04  9.73425E+03 -1.93586E+04
  1.05486E+04 -2.74130E+03  1.26248E+04  6.06446E+02  2.36062E+03  1.00872E+04 -8.77923E+03  2.87337E+03
 -1.07199E+04 -1.67702E+04  3.38726E+03 -1.94016E+04  8.00200E+03 -2.25126E+04  2.05104E+04 -6.47748E+03
  2.09782E+04  7.33773E+03  2.23639E+04  1.37133E+04  2.99159E+03  2.28545E+04 -1.17345E+04  1.94947E+04
 -1.24844E+04  1.53823E+03 -8.05662E+03  4.03290E+03 -7.25627E+02 -3.57177E+03  6.37854E+03  5.14374E+03
  5.42554E+03  8.93887E+03  1.02410E+03  1.40529E+04 -1.07306E+04  9.35985E+03 -1.27584E+04  2.28158E+03
 -1.77908E+04 -7.64456E+03  5.81736E+03 -1.25933E+04  6.89537E+03 -3.24992E+03  9.70465E+03 -1.49473E+03
  5.82138E+03  9.32676E+03 -7.39642E+03  1.24481E+04 -2.16316E+04  6.61511E+03 -1.92592E+04 -6.68245E+03
 -7.10572E+03 -1.38226E+04  2.76603E+03 -2.36962E+04  1.95959E+04 -1.31896E+04  1.61819E+04 -1.57397E+03
  1.68592E+04  1.36034E+04 -2.81309E+03  1.34316E+04 -1.44532E+04  7.68796E+03 -1.41060E+04 -6.82757E+03
 -7.97363E+03 -1.82340E+04 -4.05732E+02 -6.88069E+03  1.55665E+04 -6.13096E+03  8.21592E+03 -4.96288E+03
  6.49996E+03  2.59499E+03  2.56257E+03  1.47440E+03 -1.76002E+03 -1.19673E+03  1.03954E+03 -8.16231E+03
  9.94006E+03 -6.72668E+03  2.27420E+04  2.93806E+03  1.39769E+04  7.18053E+03  1.75264E+04  2.39045E+04
 -9.95898E+03  2.75427E+04 -2.33662E+04  3.27353E+04 -3.32916E+04  4.02789E+03 -2.32391E+04 -1.58948E+04
 -7.74009E+03 -2.47649E+04 -3.56880E+03 -2.16244E+04  4.91266E+03 -4.93940E+03  6.79116E+03 -3.61043E+03
  2.71784E+03 -7.35991E+03  3.05186E+03 -1.10854E+04  1.89472E+03  3.20599E+03  9.89775E+03 -6.23268E+03
  1.39979E+04  3.01853E+03 -3.54288E+02  4.43380E+03 -1.59769E+02  1.70114E+04 -1.70769E+04  1.04675E+04
 -1.43560E+04  3.45973E+03 -9.59851E+03 -1.41324E+04 -5.28090E+03 -2.23506E+04  1.27709E+04 -1.19581E+04
  1.58576E+04 -8.31948E+03  1.95678E+04  5.74035E+03  1.38011E+04  1.42232E+04  4.12504E+03  2.13723E+04
 -9.70648E+03  1.59058E+04 -3.77298E+03  8.00166E+03 -8.14965E+03 -1.34384E+03 -2.60473E+03 -5.32823E+03
 -6.09227E+03 -2.30948E+03 -8.70441E+03  4.88413E+03 -5.62380E+03  6.58586E+03 -7.80150E+03 -8.14669E+03
 -6.38606E+03 -1.08714E+04 -3.51777E+02 -1.03262E+04  1.49500E+04 -1.79848E+04  1.45270E+04 -6.33436E+03
  2.03238E+04  7.75788E+03  1.24721E+04  1.42385E+04 -5.06035E+03  2.19791E+04 -9.14946E+03  1.16620E+04
 -1.41248E+04 -3.98793E+02 -1.46314E+04 -7.76353E+03 -1.71070E+03 -1.33719E+04  7.81234E+03 -1.38949E+04
  5.54903E+03 -3.76896E+03  9.87214E+03  7.69308E+02  1.77140E+03 -1.71151E+03 -4.76034E+00  4.13750E+03
  5.90003E+03 -1.82886E+03  5.50616E+03  1.59555E+03  8.03254E+03  6.00865E+03  5.27333E+03  1.01269E+04
  9.43114E+02  1.75944E+04 -1.81371E+04  1.55590E+04 -1.75950E+04  8.11602E+03 -2.00818E+04 -8.10490E+03
 -7.84284E+03 -2.36466E+04  4.48300E+03 -1.93884E+04  1.03114E+04 -4.65778E+03  1.75269E+04 -7.17248E+03
  1.40200E+04  4.70423E+03  2.77912E+03  9.93519E+03 -5.02908E+03  4.57423E+03 -6.11783E+03  3.93279E+03
 -4.04646E+03 -1.55481E+04  2.53644E+03 -8.44641E+03  9.72022E+03 -3.77685E+03  6.60070E+03  9.02484E+03
  1.09570E+04  6.29642E+03  7.46881E+03 -3.51947E+03 -2.07251E+03  8.29366E+03  3.64818E+03 -6.61290E+03
  4.66569E+03  8.35579E+01  6.19954E+03 -4.68818E+02  7.32045E+03  1.64948E+04 -2.01831E+03  1.37580E+04
 -7.98671E+03  7.25780E+03 -1.09434E+04 -3.01796E+02 -1.34811E+04 -2.20558E+03  5.21835E+02 -1.23043E+04
  1.65995E+03 -8.29153E+03  1.55855E+03  2.50549E+02  1.02388E+04  2.40228E+03  8.67817E+03  9.75433E+03
 -6.99061E+03  2.41987E+03 -1.04322E+04  6.44230E+02 -1.10727E+03 -1.29923E+04  2.38438E+02 -4.02275E+03
  3.04639E+03 -7.58264E+03  1.05071E+04  1.34161E+03 -9.96240E+02  7.94306E+03  2.85434E+03  9.94412E+03
  3.53425E+03  3.48094E+03 -4.12566E+03 -1.03193E+03 -3.71481E+03 -6.10945E+03  7.83083E+03 -6.97665E+02
  1.10486E+04 -1.27072E+03  1.40613E+04  9.33285E+03  5.72971E+03  9.25356E+03 -8.37120E+02  1.92344E+02
 -1.30048E+04  8.07006E+03 -9.06455E+03 -1.88529E+03 -7.23787E+03 -7.00941E+03  1.67828E+03 -6.98485E+03
  9.00214E+03  4.07533E+03  6.07085E+03  8.90330E+02  4.28296E+03  1.02660E+04 -2.09296E+03  2.93298E+03
 -2.78382E+03  8.82181E+03 -5.69003E+03  4.38899E+02 -7.87597E+03  7.63020E+02 -4.46070E+03  6.34079E+03
  4.91538E+03  2.96597E+03 -9.11975E+03  1.08993E+04 -1.78251E+04  3.16434E+03 -8.13169E+03 -2.46545E+03
 -9.31483E+02 -2.09446E+04  3.56588E+03 -1.82791E+04  1.86989E+04 -1.27273E+04  1.96038E+04 -3.11848E+03
  1.89011E+04  1.17681E+03  1.33236E+04  9.57794E+03  1.12725E+02  1.32225E+04 -1.57768E+03  1.03134E+04
 -8.36857E+02  1.98113E+03 -3.09576E+03 -1.17384E+03 -8.67030E+02 -4.98754E+03  6.11614E+03 -3.99545E+01
 -6.19205E+03  2.63807E+03  5.70500E+03  3.89210E+03 -3.33989E+03  2.90410E+03  4.75447E+03 -8.78812E+02
  5.70404E+03  1.24815E+03  9.46696E+03  7.89808E+02  8.33664E+03  5.88405E+03  6.64280E+02  1.84008E+04
 -5.97380E+03  1.92044E+04 -9.66660E+03  1.64907E+03 -1.36053E+04 -9.30838E+02 -1.18532E+04 -9.93395E+03
 -5.05797E+03 -1.11292E+04 -4.66221E+03 -1.97048E+04  8.69454E+03 -6.32660E+03  1.37251E+04  2.80714E+03
 -4.09019E+02 -3.12569E+02 -5.70400E+03  1.71823E+03 -2.38518E+03 -5.22060E+03 -9.00101E+02 -7.04932E+03
  7.11179E+03 -3.78723E+02  1.02556E+04  1.54635E+03 -3.07753E+03  7.81724E+03  2.40610E+02  5.05889E+03
 -5.26817E+03  4.00859E+03 -5.10952E+03  1.80423E+03 -1.26080E+03 -7.29464E+03 -1.61493E+03 -1.59579E+04
  3.19138E+02 -6.63603E+03  1.36830E+04  5.83637E+02  9.39402E+03 -6.63765E+03  8.89075E+03  6.74499E+03
  1.68722E+03  9.26887E+03 -4.71669E+03  1.08582E+04 -3.31530E+03  3.19893E+03 -1.02302E+04  4.84155E+02
  6.07586E+03  6.83177E+02 -5.83244E+03  3.09730E+03 -1.45646E+04  1.60404E+03 -6.15127E+03 -3.51885E+03
 -1.01317E+04 -9.04311E+03 -9.66449E+02 -1.39660E+04 -1.45487E+03 -4.69366E+03  1.37045E+04 -9.72993E+03
  1.10299E+04  1.77388E+03  6.08701E+03  1.08358E+04 -1.33773E+03  1.14915E+04 -7.03888E+03  3.13342E+03
