 $NMID ID='MM_0lb_SNR50_7hz_g45_85.RAW', FMTDAT='(8E13.5)'
 TRAMP=1., VOLUME=1. $END
  3.14612E+05 -4.17846E+03  3.40735E+05  2.51104E+05  7.48051E+04  3.30040E+05 -1.33822E+05  2.48679E+05
 -1.98300E+05  7.80714E+04 -1.20753E+05 -3.58679E+04  5.90105E+03 -4.36028E+04  5.26781E+04  4.09224E+02
  3.98349E+04  4.91643E+04 -1.91306E+04  7.56474E+04 -6.33230E+04  6.29779E+04 -8.71309E+04  3.24816E+04
 -8.12827E+04 -1.37971E+04 -5.91131E+04 -5.73141E+04 -1.59570E+04 -7.02778E+04  3.14167E+04 -4.28242E+04
  3.70370E+04  7.48840E+03  1.27301E+04  4.89786E+04 -3.83108E+04  4.84934E+04 -7.21801E+04  1.52690E+03
 -5.42906E+04 -5.73527E+04 -1.01185E+04 -8.19306E+04  3.74322E+04 -5.32634E+04  5.40404E+04 -1.55654E+04
  4.68354E+04  1.60027E+04  4.08510E+04  3.24893E+04  1.55740E+04  3.79482E+04 -4.96716E+03  2.94645E+04
 -2.04782E+04  8.74536E+03 -1.63741E+04 -1.30381E+03  6.55441E+03 -7.66754E+03  2.87959E+04  1.18683E+04
  5.76225E+03  4.12787E+04 -3.61471E+04  4.34296E+04 -6.15037E+04  1.83931E+02 -6.01058E+04 -4.38076E+04
 -8.82220E+03 -6.17853E+04  3.77340E+04 -5.07516E+04  6.37115E+04 -4.09221E+03  3.52978E+04  3.91732E+04
 -1.05313E+04  4.13937E+04 -3.57371E+04  2.00241E+04 -3.28657E+04 -3.85696E+03 -1.37388E+04 -9.32686E+03
 -1.92943E+04 -1.28350E+04 -6.52312E+03 -2.27236E+04  1.12818E+04 -2.71336E+04  1.77810E+04 -1.25363E+04
  1.21299E+04  9.58182E+03 -1.19120E+04  1.20290E+04 -2.48365E+04  6.65931E+03 -7.49117E+03 -4.00302E+04
  3.02634E+04 -4.68104E+04  5.42462E+04 -1.39693E+04  5.05626E+04  1.90858E+04  1.90205E+04  5.12580E+04
 -1.73359E+04  3.28168E+04 -2.91042E+04  3.42527E+03 -1.13467E+04 -2.96092E+04  2.18195E+04 -4.06161E+04
  4.39308E+04 -9.25809E+03  4.26837E+04  2.57240E+04  2.46910E+04  5.22399E+04 -7.94160E+03  5.28681E+04
 -3.56088E+04  4.33928E+04 -5.18862E+04  1.56915E+04 -4.65079E+04 -1.82674E+04 -2.78549E+04 -4.00045E+04
  4.58162E+03 -4.47139E+04  4.47070E+04 -1.65104E+04  3.30808E+04  9.92405E+03  3.45667E+03  2.36891E+04
 -2.12644E+04  6.77426E+03 -1.19613E+04 -4.77257E+03  4.75159E+03 -1.97224E+04  2.22532E+04  2.48089E+03
  1.53979E+04  1.84669E+04 -3.62762E+03  2.58395E+04 -2.98914E+04  2.22714E+04 -3.42793E+04  4.16923E+03
 -2.09105E+04 -2.25432E+04 -1.05435E+04 -3.22505E+04  5.38164E+03 -2.26764E+04  1.27475E+04 -1.89503E+04
  3.44833E+04 -1.92123E+04  4.15185E+04  1.01976E+04  2.66500E+04  2.82258E+04  4.98510E+02  4.66158E+04
 -1.56834E+04  3.71306E+04 -3.32684E+04  5.33611E+03 -2.01980E+04 -1.10133E+04 -4.30121E+03 -9.39623E+03
  2.46350E+03 -2.83177E+03 -1.23680E+04  6.92282E+03 -2.28563E+04  8.87398E+03 -1.95581E+04 -1.09991E+04
 -1.43315E+04 -3.06223E+04  1.36351E+03 -3.38259E+04  2.00915E+04 -1.57854E+04  2.37417E+04  4.62640E+02
  1.49137E+04  2.04187E+04  6.13181E+03  2.77124E+04 -1.56026E+04  8.89064E+03 -2.90185E+04 -5.15584E+03
 -2.62726E+04 -2.42888E+04 -3.17504E+03 -2.87032E+04  1.91024E+04 -2.24084E+04  2.66213E+04 -1.49258E+04
  2.89185E+04 -5.32105E+02  1.76404E+04 -1.92812E+01  1.36430E+04  1.51273E+03  9.97494E+03  1.64193E+03
  2.34222E+04  5.47552E+03  2.51640E+04  2.36084E+04  1.72862E+04  4.38249E+04  7.99247E+01  5.24265E+04
 -2.02172E+04  3.75607E+04 -4.68051E+04  2.11179E+04 -4.19431E+04 -4.38304E+03 -3.99831E+04 -3.45191E+04
 -8.46269E+03 -4.30022E+04  1.21360E+04 -3.95433E+04  3.07528E+04 -1.53026E+04  3.17226E+04  1.40126E+04
  1.19269E+04  1.26975E+04 -9.80139E+03  1.48554E+04 -2.20367E+04  3.25587E+03 -1.41016E+04 -8.23303E+03
  2.06714E+03 -2.36014E+04  1.82537E+04 -1.59996E+04  1.55165E+04  1.44699E+03  4.38249E+03  1.68370E+04
 -6.27926E+03  2.28036E+03 -1.12652E+04 -1.19572E+04  8.64687E+03 -2.15428E+04  1.52515E+04 -2.55446E+04
  2.54853E+04 -1.26716E+04  2.75159E+04  6.74228E+03  2.13678E+04  2.39025E+04  1.25300E+04  2.81713E+04
 -7.41816E+03  3.34965E+04 -2.54697E+04  2.57583E+04 -3.16017E+04  2.42195E+03 -2.46774E+04 -1.60317E+04
 -4.63416E+03 -1.21158E+04 -3.77672E+03  6.28350E+03 -1.02616E+04  4.04121E+03 -6.48817E+03  7.68792E+03
 -2.08840E+04  1.77834E+03 -1.73287E+04 -1.68562E+04 -8.96657E+03 -2.94342E+04  4.65580E+03 -2.21829E+04
  9.12675E+03 -6.02609E+03  4.27854E+03  5.73084E+03 -3.81208E+02  7.04695E+03 -6.12893E+03 -7.53460E+02
 -9.92274E+03 -8.31738E+03  1.21767E+03 -2.11882E+04  1.04506E+04 -1.30964E+04  2.57289E+04 -1.03442E+04
  2.68567E+04 -2.35854E+02  2.24659E+04  4.81539E+03  9.08217E+03  2.52480E+04 -9.15718E+03  1.51361E+04
 -1.47343E+04  7.23321E+03 -7.57863E+03 -1.89418E+03  8.08641E+03 -3.56477E+03  1.38886E+04 -4.74815E+02
  6.82987E+03  5.01107E+03 -2.92452E+03  1.67866E+04 -1.20982E+04  1.45144E+04 -1.78839E+04 -1.40894E+02
 -9.09115E+03 -1.50041E+04 -1.76710E+03 -1.25155E+04  1.17657E+04 -7.40467E+03  1.34163E+04  1.82951E+03
  2.07362E+02  6.84747E+03 -1.15202E+04  7.55161E+03 -1.76565E+04  2.76211E+03 -2.04066E+04 -1.02024E+03
 -6.70942E+03 -1.50690E+04 -7.38086E+02 -1.98413E+04  1.77118E+04 -1.19838E+04  2.58749E+04 -7.34916E+03
  1.41296E+03  1.98602E+04  4.65167E+02  8.91560E+03 -1.96324E+04  7.87472E+03 -7.99939E+03 -1.27031E+03
 -1.54528E+04 -1.77598E+04 -3.01574E+03 -1.66139E+04 -5.92911E+03 -7.77099E+03  7.00299E+03 -1.15855E+03
  2.03195E+03  8.91750E+03 -3.39541E+03  3.23859E+03 -4.58231E+03 -1.06417E+04  4.06778E+03 -4.85874E+03
  1.86733E+04 -3.97609E+02  2.38092E+04 -4.29703E+03  2.28555E+04  1.86669E+04  1.01768E+04  2.54491E+04
 -6.43559E+03  3.42556E+04 -2.57784E+04  1.98041E+04 -2.92987E+04  6.02387E+01 -2.11558E+04 -7.41369E+03
 -9.53737E+03 -1.93762E+04 -1.45182E+03 -1.70761E+04  9.99834E+03 -1.33921E+04  3.23591E+03  2.36529E+03
 -1.50270E+02  4.18725E+03  1.79367E+03 -5.11005E+03  6.87540E+03 -8.89018E+02  7.17981E+03 -1.59123E+03
  1.43381E+04  4.79240E+03  1.73121E+04  5.94360E+03 -9.99157E+03  1.15455E+04 -7.92839E+03  1.40255E+04
 -1.56911E+04 -3.69806E+02 -1.48445E+04 -1.48036E+04 -1.81293E+03 -2.10212E+04  1.45954E+04 -2.06803E+04
  1.82019E+04 -1.01485E+04  1.87246E+04  4.00114E+03  1.40990E+04  1.46517E+04  3.83757E+03  2.07397E+04
 -4.62091E+03  1.76616E+04 -1.47386E+04  2.37714E+03 -1.25916E+04 -3.67217E+03 -8.85509E+03  2.89988E+03
  3.02645E+03 -1.76042E+03 -1.08961E+03  1.01929E+04 -6.24071E+03  3.39230E+03 -8.14847E+03  1.01635E+03
 -9.33532E+03 -1.28750E+04 -4.09406E+03 -1.36373E+04  1.12291E+04 -1.68842E+04  1.42253E+04 -5.35709E+03
  1.78691E+04  1.64746E+03  5.10787E+03  1.21771E+04 -8.06210E+03  2.26411E+04 -1.58601E+04  1.24730E+04
 -1.60412E+04  4.70506E+02 -1.59110E+04 -5.04828E+03 -5.01632E+03 -1.32432E+04  6.01780E+03 -1.38609E+04
  1.83154E+04 -1.83143E+03  2.70201E+03  2.81419E+03  5.43214E+03  9.22785E+03  1.66929E+03  3.79092E+03
  5.25990E+03  2.45075E+03  8.28391E+03  3.46202E+03  5.50264E+03  1.73743E+03  1.06119E+04  1.54357E+04
 -2.66914E+03  1.43164E+04 -1.45945E+04  1.60842E+04 -2.01343E+04  3.94566E+03 -2.06837E+04 -7.51030E+03
 -9.20928E+03 -1.93674E+04  2.81780E+02 -2.30886E+04  1.00256E+04 -1.73747E+04  8.62898E+03 -3.03096E+03
  2.40704E+03  4.52948E+03  3.92879E+03  1.85235E+04 -3.05210E+03  8.80930E+03 -4.48710E+01 -4.00110E+03
 -1.14414E+04 -1.06495E+04  9.85275E+03 -8.81578E+03  3.29305E+03 -7.79221E+02  9.06825E+03 -1.64117E+03
  2.72788E+03  9.32998E+03  3.07666E+03  3.20815E+03  4.45218E+03  6.07333E+03 -3.52865E+03 -2.72618E+03
  1.23400E+04 -1.90459E+03  9.54239E+03  3.45386E+03  1.30638E+03  1.07281E+04 -9.35452E+03  1.22335E+04
 -4.43024E+03  1.12236E+04 -1.02805E+04  8.69982E+03 -9.83525E+03 -6.55781E+03 -6.66199E+02  2.03216E+03
  4.08187E+03 -6.86118E+03  6.18291E+03 -2.17628E+03 -2.17697E+03 -1.43366E+03 -4.64437E+03  1.25891E+04
 -7.66244E+03  9.05958E+03 -3.27945E+03 -2.07394E+03 -6.58256E+03 -8.52540E+03 -3.87806E+03 -1.21304E+04
  9.38368E+03 -1.20288E+04  4.26078E+03  1.73784E+03 -4.63450E+03  4.53363E+02 -3.68860E+03  7.99237E+03
 -3.83991E+03 -1.37570E+03 -8.56278E+03 -4.96004E+03  6.15598E+02 -6.99061E+03  1.11389E+04 -6.28725E+03
  9.91434E+03  1.54101E+03  1.07904E+04  4.67238E+03  4.93166E+03  8.64473E+03 -3.64112E+03  1.17045E+04
 -1.54360E+04  6.76493E+03 -2.10766E+04 -4.50566E+03 -5.99867E+03 -7.94834E+03  2.39057E+03 -3.40818E+03
  9.25405E+03  9.92269E+02  1.00232E+04  3.46894E+03  2.27045E+03  6.26475E+03  4.97615E+03  1.18750E+03
 -7.30068E+02  9.63023E+02  1.17389E+03 -3.13170E+03  3.93745E+03  2.38254E+02  1.85761E+03  2.60841E+02
 -5.33220E+02  3.89882E+03 -1.15216E+04  3.20030E+03 -1.34276E+04 -3.91339E+03 -1.61294E+04 -3.72125E+03
 -6.27752E+03 -1.72986E+04  2.04359E+03 -2.58617E+04  1.07999E+04 -1.11365E+04  1.80037E+04 -1.37788E+03
  2.23776E+04  1.07275E+04  6.63699E+03  1.56044E+04  3.55913E+03  1.55732E+04 -2.75578E+03  1.88876E+04
 -2.24293E+03  4.05584E+03 -5.35059E+03  8.69265E+02 -5.55689E+03 -8.02775E+03  2.70679E+03 -1.84374E+03
 -4.07537E+03  2.67980E+03 -4.59090E+03  2.30393E+03 -1.61715E+03 -5.49160E+03  4.45815E+03  1.91941E+03
  7.63150E+03 -2.30467E+03  7.19805E+03  6.22246E+03  1.40172E+04  1.34836E+04  2.27029E+03  6.60867E+03
 -1.11283E+04  1.36114E+04 -2.23978E+04  4.46213E+03 -1.96304E+04  7.81943E+02 -1.41095E+04 -9.85696E+03
 -4.76790E+03 -1.29842E+04  8.57096E+03 -1.34778E+04  8.43679E+03 -9.15970E+03  5.35086E+03  4.60810E+03
  3.64361E+03 -1.33343E+03  2.91191E+03  2.66398E+03  2.09190E+03  8.42093E+02 -6.56480E+03 -4.10453E+03
  7.67415E+03 -3.00076E+03  2.26513E+03 -4.03236E+03  1.21264E+03  5.98274E+02  3.49946E+03  9.72189E+03
 -3.39735E+03  7.58341E+03 -1.11703E+04  3.06261E+03 -1.15260E+04 -5.15636E+03 -2.42390E+03 -1.37954E+04
  2.69957E+03 -1.26373E+04  1.27721E+04 -2.43064E+03  8.90815E+03  4.67450E+03  1.33099E+04  9.23461E+03
  4.87341E+03  1.38531E+04 -6.44801E+03  1.43178E+04 -4.70860E+03  3.21351E+03  3.95151E+02 -3.63340E+03
 -3.28942E+03 -2.27837E+03 -4.74952E+03 -3.01141E+03 -5.45319E+03  2.15965E+03 -8.10111E+03 -1.76861E+03
 -1.69871E+04  2.13853E+03 -8.76880E+02 -1.33780E+04  5.12789E+03 -8.55998E+03  8.22749E+03 -3.01607E+03
  1.19646E+04  3.79120E+03  7.12492E+03  6.77849E+03  5.42234E+03  1.18111E+04 -1.29350E+04  4.59292E+03
