 $NMID ID='MM_0lb_SNR50_9hz_g45_50.RAW', FMTDAT='(8E13.5)'
 TRAMP=1., VOLUME=1. $END
  3.03872E+05  3.89638E+03  3.32830E+05  2.47701E+05  7.68727E+04  3.40912E+05 -1.32985E+05  2.51964E+05
 -1.94528E+05  7.95896E+04 -1.11907E+05 -2.98207E+04  2.85254E+03 -4.66843E+04  5.44401E+04 -2.35962E+03
  3.83817E+04  4.90925E+04 -2.16690E+04  7.52221E+04 -5.77168E+04  6.82984E+04 -8.58414E+04  2.78211E+04
 -7.73657E+04 -1.35551E+04 -5.66794E+04 -5.13569E+04 -1.71531E+04 -6.92025E+04  3.09209E+04 -4.48662E+04
  4.25566E+04  4.73391E+03  1.95208E+04  4.82991E+04 -3.12892E+04  4.95433E+04 -6.80224E+04  1.89166E+03
 -5.09267E+04 -6.09081E+04 -6.06849E+03 -7.95167E+04  3.87349E+04 -5.45519E+04  4.97810E+04 -1.60213E+04
  4.54993E+04  1.06399E+04  3.03634E+04  2.55685E+04  1.67425E+04  2.91536E+04 -7.14959E+03  2.80135E+04
 -2.60695E+04  7.92019E+03 -2.20820E+04 -4.70406E+03  6.36986E+03 -1.00001E+04  2.38102E+04  1.46896E+04
  9.86418E+03  4.17330E+04 -3.31528E+04  3.61567E+04 -6.16107E+04  1.66467E+03 -5.68284E+04 -4.82296E+04
 -1.28550E+04 -6.41159E+04  3.96577E+04 -4.76445E+04  5.91519E+04 -3.25668E+03  3.26934E+04  3.39402E+04
 -6.36649E+03  3.54049E+04 -2.65564E+04  2.14337E+04 -3.34381E+04  8.17743E+02 -1.98380E+04 -1.07211E+04
 -7.17286E+03 -1.83868E+04  2.02625E+03 -1.87716E+04  9.96876E+03 -2.19663E+04  1.33704E+04 -9.48309E+03
  1.80844E+04  2.99675E+03 -5.88800E+03  1.31010E+04 -2.16413E+04 -2.22992E+03 -8.27650E+03 -3.51537E+04
  2.76602E+04 -4.59163E+04  4.66111E+04 -2.01753E+04  4.77976E+04  2.05202E+04  1.48579E+04  4.00929E+04
 -2.21593E+04  3.32386E+04 -2.23261E+04  4.29321E+03 -8.76908E+03 -2.82159E+04  2.30324E+04 -4.00201E+04
  3.77203E+04 -9.23976E+03  3.91089E+04  2.41627E+04  1.84853E+04  4.70318E+04 -9.52311E+03  5.32978E+04
 -3.72073E+04  4.15434E+04 -4.73539E+04  5.40430E+03 -4.59081E+04 -1.79003E+04 -3.07261E+04 -4.30795E+04
  9.32642E+03 -3.93139E+04  3.46166E+04 -2.00536E+04  3.12151E+04  1.10499E+04  7.20167E+03  1.30581E+04
 -1.93175E+04  1.34464E+04 -8.49977E+03 -9.56965E+03  9.26852E+03 -9.47816E+03  1.26378E+04  4.40541E+03
  1.65355E+04  2.34028E+04 -7.78090E+03  2.03540E+04 -2.71672E+04  1.46754E+04 -3.40908E+04 -4.49054E+02
 -2.83443E+04 -1.73499E+04 -1.07906E+04 -2.29666E+04  3.59672E+03 -2.48237E+04  2.16936E+04 -2.03524E+04
  3.73070E+04 -7.60768E+03  3.86623E+04  4.09271E+03  2.90222E+04  2.58403E+04  2.63098E+03  4.72765E+04
 -1.97655E+04  3.41314E+04 -3.12133E+04  1.75453E+04 -2.61469E+04 -1.21163E+04  3.03513E+03 -7.18487E+03
  4.62378E+03  5.18505E+03 -8.17352E+03  1.02122E+04 -1.85103E+04  7.93675E+03 -2.21833E+04 -3.80328E+03
 -1.08045E+04 -2.40296E+04  2.60659E+03 -2.99171E+04  1.78351E+04 -1.77077E+04  1.73537E+04 -2.26295E+03
  1.55178E+04  1.72444E+04 -5.20613E+03  2.34492E+04 -1.97604E+04  1.06101E+04 -2.46392E+04 -8.38192E+03
 -1.91483E+04 -1.96737E+04  9.79771E+02 -3.13291E+04  1.48871E+04 -1.63254E+04  1.99614E+04 -8.91970E+03
  2.06777E+04 -7.76486E+02  1.30857E+04  6.15997E+03  4.34679E+03 -9.67600E+02  1.17839E+04 -5.68804E+03
  2.35664E+04  4.71469E+03  2.51527E+04  2.04523E+04  1.55878E+04  4.19120E+04  2.70871E+03  3.39250E+04
 -2.81804E+04  3.73754E+04 -4.77889E+04  1.44787E+04 -4.70062E+04 -5.92142E+03 -4.10918E+04 -2.57180E+04
 -1.43182E+04 -3.70868E+04  1.46822E+04 -3.44920E+04  2.62248E+04 -1.36997E+04  2.15598E+04  5.14575E+03
  3.26156E+03  1.83890E+04 -6.83839E+03  1.08973E+04 -2.26584E+04 -2.42187E+03 -1.48297E+04 -1.88942E+04
  2.71098E+03 -1.44851E+04  6.21240E+03 -1.69120E+04  1.40885E+04  1.60757E+03  9.47227E+03  4.65258E+03
 -9.60759E+03 -6.38085E+03 -1.18168E+04 -8.02567E+03 -5.85751E+03 -1.48524E+04  1.98382E+04 -1.85206E+04
  2.08554E+04 -1.14171E+04  2.51459E+04  3.78900E+02  2.43852E+04  1.79938E+04  9.84028E+03  2.99817E+04
 -7.88280E+03  2.80661E+04 -2.06620E+04  1.95429E+04 -2.19382E+04  2.15422E+03 -1.49601E+04 -9.30794E+03
 -7.29170E+03 -1.03267E+04  1.52106E+03  6.29890E+03 -1.45970E+03  7.81547E+02 -1.41042E+04  6.48774E+03
 -7.68056E+03 -3.07345E+03 -1.29665E+04 -1.45775E+04 -1.12852E+03 -2.11033E+04  9.55607E+03 -1.62058E+04
  1.43740E+04 -6.29389E+03  1.57422E+04  1.18394E+03 -1.20081E+03  5.28847E+03 -5.28252E+03  6.12821E+02
 -1.35350E+03 -4.17074E+03 -3.20358E+03 -1.01041E+04  9.52462E+03 -1.51610E+04  1.43281E+04 -7.95933E+03
  2.53026E+04  4.11875E+03  1.06788E+04  1.78598E+04  3.05238E+03  2.11558E+04 -1.06451E+04  1.33879E+04
 -1.23729E+04  3.72517E+03 -6.89925E+03 -5.85074E+03  5.76245E+03  2.27130E+03  8.33578E+03  7.10602E+03
  2.94354E+03  7.69879E+03  3.23348E+03  1.96272E+04 -1.59587E+04  1.14193E+04 -1.69208E+04  1.16792E+03
 -8.34236E+03 -6.00550E+03  6.04766E+02 -1.80066E+04  5.86245E+03 -5.59418E+03  7.99948E+03  6.34132E+03
  4.27968E+03  3.82561E+03 -1.20851E+04  7.68543E+03 -1.71324E+04  4.93782E+03 -1.27604E+04 -7.56780E+03
 -9.20177E+03 -1.57485E+04  3.43415E+03 -2.17945E+04  1.06444E+04 -1.77697E+04  1.71275E+04  8.00065E+03
  3.97947E+03  1.46068E+04 -1.15015E+03  9.81179E+03 -1.25186E+04  1.06730E+04 -1.66303E+04 -2.45593E+03
 -9.60449E+03 -1.37150E+04 -3.10587E+03 -1.48886E+04  7.89543E+03 -1.00024E+04  1.14380E+04 -6.74228E+03
 -2.00467E+02  8.21243E+02  6.65805E+02  2.60126E+03  3.74770E+03 -6.56455E+01 -3.59156E+03 -5.14920E+03
  1.27841E+04 -2.61644E+03  1.50399E+04  4.68574E+03  2.09486E+04  1.20327E+04  1.02132E+04  2.55966E+04
 -3.53638E+03  2.51520E+04 -1.86379E+04  1.78371E+04 -1.83052E+04  2.97375E+03 -1.99971E+04 -1.16013E+04
 -9.77757E+03 -1.59132E+04  3.69286E+03 -1.79357E+04  1.27858E+04 -2.26206E+03  5.94808E+03 -6.81357E+02
  7.77776E+03 -3.41966E+03  5.61808E+03 -6.28636E+03  6.79974E+03 -1.77144E+03  7.48033E+03 -1.71182E+03
  1.28823E+04  2.68907E+03  2.33579E+03  1.50491E+04 -3.86857E+03  1.39338E+04 -8.66755E+03  1.29889E+04
 -5.55172E+03 -4.58113E+03 -1.28183E+04 -1.33143E+04 -2.19914E+03 -2.14146E+04  7.92216E+03 -2.16060E+04
  1.89929E+04 -2.80519E+03  1.65811E+04  4.07101E+03  1.54618E+04  1.24871E+04  4.40480E+03  1.59613E+04
 -1.05998E+04  1.50973E+04 -6.32270E+03  6.00302E+02 -1.14105E+04 -9.63659E+03 -4.32228E+03 -3.21794E+03
  6.31284E+02 -5.89534E+03 -4.49338E+02  3.97396E+03 -6.42708E+03  3.12247E+02 -1.26957E+04 -2.38248E+03
 -5.15801E+03 -6.40841E+03  2.00432E+03 -9.32470E+03  1.18996E+04 -1.03975E+04  1.46503E+04 -6.77423E+03
  1.57627E+04  8.32732E+03  1.04810E+04  1.66396E+04  5.39598E+02  1.05357E+04 -1.61861E+04  6.78948E+03
 -1.14538E+04 -1.61996E+03 -2.57451E+03 -1.28939E+03  1.31019E+03 -1.51330E+04  4.93845E+03 -6.09756E+03
  9.09019E+03 -1.82291E+03  1.03474E+04  2.34239E+03  4.21451E+02  2.61951E+03  2.81648E+03  5.10271E+03
  1.55787E+03  3.77935E+03  6.60480E+03  6.81063E+03  1.27448E+03 -1.06244E+03 -3.61538E+03  4.62972E+03
 -6.53823E+02  8.51378E+03 -6.58485E+03  1.11892E+04 -1.48948E+04 -1.06317E+03 -1.38778E+04 -4.05497E+03
 -8.50391E+03 -1.50826E+04  4.87859E+03 -2.57696E+04  4.86156E+03 -1.08450E+04  1.34617E+04 -4.34877E+03
  5.60044E+03  2.59355E+03  2.37227E+03  1.10236E+04 -9.99277E+03  8.67710E+03 -7.71111E+03 -1.77002E+03
 -2.67049E+03 -6.94135E+03  6.08041E+03 -2.82473E+03  3.04751E+03  5.91897E+02  2.68414E+03  6.70873E+03
  4.27561E+03  8.93114E+03  4.07147E+03 -2.02908E+03  7.70208E+02  2.48383E+03  2.58884E+03  1.17678E+03
  2.17060E+03 -2.00536E+03  7.34627E+03  5.07377E+03  1.13645E+03  8.16960E+03  8.80762E+02  6.74518E+03
 -5.61427E+03  2.56211E+03 -5.95577E+03  7.15873E+03 -1.56889E+04  1.51993E+03 -2.11207E+03 -1.12904E+03
 -1.58988E+03 -2.39862E+03  1.24088E+03 -6.08137E+03  3.37706E+03  5.99523E+03  5.66815E+02  6.18326E+03
 -7.91207E+03  1.81446E+02 -1.25394E+04 -6.24396E+02 -4.47828E+03 -1.18066E+04  1.29966E+03 -8.09238E+02
  3.39466E+03 -5.36015E+03  5.17630E+03 -3.36713E+03  6.57072E+03  7.36846E+03 -5.14546E+03  1.02047E+03
 -1.63302E+03  2.21849E+03 -5.67146E+03  9.05706E+02  2.04804E+03 -5.24487E+03  3.16953E+03 -3.33748E+03
  4.65019E+03  2.09340E+03  9.49673E+03  7.96194E+03  1.14931E+03  1.12247E+04 -6.19575E+02  1.11591E+04
 -1.19716E+04  3.95277E+03 -3.13582E+03  5.60903E+02 -3.65386E+03 -8.09607E+03 -2.37606E+03 -2.00374E+02
  1.33053E+04 -3.77374E+03  3.15540E+02 -1.85035E+03  6.72054E+03 -6.25875E+02  6.96899E+03  5.07558E+03
 -2.92968E+03  2.75613E+03 -5.03532E+03  2.55892E+03  2.46551E+03 -3.76873E+02  7.49112E+03 -2.79036E+03
 -4.92185E+03  6.30508E+03 -5.55029E+03  6.15119E+03 -9.65860E+03 -3.43691E+03 -7.06658E+03 -6.14396E+03
 -1.01032E+04 -1.08357E+04  1.02156E+04 -3.05250E+03  1.00691E+04 -1.01711E+04  1.65900E+04 -3.51772E+03
  1.27429E+04  6.45900E+03  1.34382E+04  1.18839E+04 -4.55879E+03  1.41720E+04  9.43431E+02  1.15483E+04
 -8.96587E+03  2.58253E+03 -2.28810E+03 -8.06317E+03 -4.71376E+03  5.86564E+03 -8.48250E+03  2.17572E+03
 -2.44737E+03  1.68530E+02  6.79736E+03  1.59182E+02 -9.60884E+02 -2.42138E+03 -8.49323E+01 -5.45592E+03
  5.73875E+02 -1.15333E+04  8.18434E+03  2.28472E+03  9.86471E+03  7.58688E+03 -3.47112E+03  1.00320E+04
 -7.73851E+03  1.62302E+04 -1.08496E+04  9.90741E+03 -9.86815E+03 -2.81911E+03 -5.19625E+03 -7.59961E+03
 -4.12948E+03 -1.25844E+04  6.23934E+03 -1.18574E+04  4.43365E+02  4.13262E+02  5.33992E+03  8.62272E+02
  6.55930E+03  6.85454E+02  5.37951E+03  2.74562E+03 -4.15268E+02 -1.08248E+03  2.44318E+03 -4.60194E+03
  7.88817E+02 -2.90745E+03  2.43219E+03  7.11925E+03 -7.96720E+02 -5.50828E+02 -6.31027E+02  3.28056E+03
 -1.62880E+03  4.90482E+03 -1.09764E+04 -2.30535E+03 -5.82582E+03 -2.97404E+03  5.03939E+03 -1.00750E+04
  6.14310E+03 -3.30867E+03  1.34571E+04 -3.25044E+03  4.33509E+03  4.90276E+03 -1.85989E+03  9.77125E+03
 -1.45735E+03  7.81505E+03 -4.74467E+03  5.56346E+03  3.52446E+02  8.93476E+03  8.02893E+02  3.98562E+02
 -1.12664E+01  4.01993E+02 -8.09249E+03  4.21410E+03 -6.63801E+03  2.94878E+03 -5.01365E+03 -3.35567E+03
 -6.20926E+03 -8.30492E+02 -3.99223E+03 -1.15361E+04  5.68242E+03 -5.28328E+03  8.27016E+03 -7.45879E+03
  1.29702E+04  2.20300E+03  2.37185E+03  8.73899E+03  3.33558E+03  7.51237E+03 -3.06610E+03  7.02612E+03
