 $NMID ID='MM_0lb_SNR50_20hz_g60_23.RAW', FMTDAT='(8E13.5)'
 TRAMP=1., VOLUME=1. $END
  3.07675E+05  5.71140E+03  3.36904E+05  2.52381E+05  8.66067E+04  3.37435E+05 -1.32690E+05  2.47729E+05
 -1.91826E+05  8.29601E+04 -1.10205E+05 -3.34475E+04 -1.17732E+02 -5.28148E+04  5.23179E+04  5.01001E+03
  3.59421E+04  4.89709E+04 -1.93544E+04  7.49415E+04 -6.23948E+04  6.27013E+04 -7.68454E+04  3.36706E+04
 -7.60342E+04 -8.56175E+03 -5.46747E+04 -5.00950E+04 -1.68835E+04 -6.93774E+04  2.86434E+04 -4.33428E+04
  3.86820E+04  5.45339E+03  1.57727E+04  4.77201E+04 -3.49093E+04  4.89201E+04 -6.61140E+04  1.07919E+03
 -5.25992E+04 -5.73076E+04 -6.75059E+03 -7.86404E+04  3.13368E+04 -5.51754E+04  4.73738E+04 -1.30742E+04
  4.26257E+04  1.16026E+04  2.79541E+04  2.39758E+04  1.56931E+04  2.66936E+04 -1.42138E+03  2.39355E+04
 -1.95310E+04  9.18086E+03 -1.90108E+04 -4.24995E+03  3.93646E+03 -6.06489E+03  2.36413E+04  1.10372E+04
  1.18134E+04  3.31010E+04 -3.38121E+04  3.44978E+04 -6.43192E+04  2.45479E+03 -5.69325E+04 -3.55990E+04
 -1.59274E+04 -5.59933E+04  3.66889E+04 -4.37046E+04  5.29005E+04 -5.51057E+03  3.19136E+04  3.17610E+04
 -8.03094E+03  3.10911E+04 -2.72272E+04  1.15937E+04 -3.16791E+04 -6.44957E+03 -1.25011E+04 -1.10952E+04
 -9.20508E+03 -1.46499E+04 -2.50295E+03 -1.46600E+04  5.14423E+03 -2.16838E+04  1.63348E+04 -1.53317E+04
  1.41700E+04  6.88186E+03 -8.08450E+03  1.21462E+04 -2.10104E+04 -2.59609E+03 -6.82518E+03 -2.97577E+04
  2.42119E+04 -4.51322E+04  4.49619E+04 -1.90620E+04  4.71465E+04  2.21796E+04  1.74874E+04  4.11359E+04
 -1.94321E+04  3.23863E+04 -2.53444E+04  7.11167E+03 -8.28229E+03 -2.80860E+04  1.58499E+04 -3.02133E+04
  3.80426E+04 -7.28169E+03  3.13745E+04  2.09495E+04  1.65747E+04  4.30646E+04 -6.47066E+03  5.02071E+04
 -2.93082E+04  3.36771E+04 -3.56713E+04  6.97442E+03 -4.41307E+04 -1.53168E+04 -2.20935E+04 -3.80087E+04
  5.01737E+03 -3.86095E+04  2.81793E+04 -1.16097E+04  2.80868E+04  1.33714E+04  4.25723E+03  1.83581E+04
 -1.37176E+04  7.37581E+03 -9.89074E+03 -8.07851E+03  4.32103E+03 -6.86175E+03  1.99061E+04  6.04987E+03
  1.55129E+04  2.16617E+04 -3.94477E+03  2.14078E+04 -2.20544E+04  1.01706E+04 -2.25882E+04 -7.69219E+03
 -1.64552E+04 -1.52663E+04 -7.65011E+03 -1.85202E+04  6.80951E+03 -8.99615E+03  1.05237E+04 -1.51679E+04
  1.81065E+04 -1.25581E+04  3.04063E+04  3.04692E+03  1.99295E+04  1.46179E+04  2.73555E+03  3.66498E+04
 -1.23426E+04  2.95065E+04 -2.94138E+04  1.07898E+04 -1.98163E+04 -8.76669E+03 -7.56696E+03 -1.31832E+04
  2.01309E+03 -1.91894E+03 -6.85356E+03  2.13926E+03 -1.23266E+04  3.32338E+03 -1.36609E+04 -7.42710E+03
 -9.94190E+03 -1.86718E+04  4.82712E+03 -1.95362E+04  1.07055E+04 -1.45801E+04  1.86020E+04 -3.55511E+02
  7.93230E+03  9.00972E+03 -5.70892E+01  1.57114E+04 -1.37935E+04  8.27834E+03 -1.10165E+04 -1.51058E+03
 -8.56132E+03 -1.74652E+04 -4.94716E+02 -1.50880E+04  1.29634E+04 -1.69843E+04  1.75349E+04 -7.08854E+03
  1.34201E+04  4.64143E+03  9.70566E+03  6.83582E+03  6.63771E+03  1.54522E+03  8.62845E+03 -2.09526E+03
  1.36682E+04  1.77821E+02  1.49888E+04  1.20816E+04  9.47464E+03  2.41619E+04 -5.83152E+03  2.87347E+04
 -1.47453E+04  2.17375E+04 -2.19265E+04  9.43135E+03 -2.32422E+04 -4.98714E+03 -2.03946E+04 -1.59002E+04
 -1.25919E+04 -2.27422E+04  1.02348E+04 -1.82889E+04  1.72939E+04 -1.07869E+04  1.66237E+04  5.80522E+03
  8.47103E+03  1.19115E+04 -7.79456E+03  9.94878E+03 -1.30328E+04  1.06667E+03 -8.93755E+03 -6.00836E+03
 -4.65324E+03 -1.09649E+04  7.27612E+03 -9.79728E+03  7.90860E+03 -1.97067E+03  5.04927E+02  6.82481E+03
 -3.56499E+03 -2.08230E+03 -4.69018E+03 -3.90974E+03  1.23566E+03 -6.91641E+03  5.88299E+03 -7.38259E+03
  1.45342E+04 -5.04995E+03  1.08878E+04  3.03201E+03  1.33099E+04  8.27301E+03  3.04723E+03  1.42484E+04
  3.04050E+03  1.76175E+04 -5.36572E+03  1.25504E+04 -1.00304E+04  9.05701E+03 -6.58063E+03 -6.89783E+02
 -6.43538E+03  7.30098E+01  9.69895E+02 -2.29707E+03  1.38139E+03  3.32946E+03  3.47440E+02  5.89680E+03
 -7.83601E+03 -1.80873E+03 -1.08303E+04 -4.83711E+03 -3.25954E+03 -1.18593E+04  2.06199E+03 -1.37098E+04
  5.97121E+03 -3.02307E+03  2.58033E+03  2.69896E+03  2.90473E+03 -1.33441E+03 -5.48134E+03 -1.08957E+03
  6.85070E+02 -2.12621E+03  3.56356E+02 -6.88941E+03  4.08203E+03 -5.53307E+03  3.87837E+03 -3.42551E+03
  9.56689E+03  2.75869E+01  1.22699E+04  1.26930E+04  1.70881E+03  1.09470E+04 -6.85077E+03  7.30252E+03
 -4.20075E+03  2.02879E+03 -2.68864E+03 -5.41067E+03 -1.72667E+03  1.41168E+03  3.81119E+03 -2.50911E+03
 -1.71766E+03  3.40478E+03  2.43486E+03  8.13122E+03 -5.40062E+03  2.67378E+03 -7.48561E+03 -1.70784E+03
 -7.32206E+03 -5.25661E+03  4.56807E+02 -3.40398E+03  2.61827E+03 -4.18630E+03  1.63506E+03 -8.50774E+02
 -1.43215E+03 -1.29014E+02 -2.91196E+03  8.44021E+03 -4.95475E+03  3.83458E+03 -2.23394E+03  4.70806E+03
 -1.50601E+03 -3.41368E+03 -1.74192E+03 -6.92931E+03  3.17500E+03 -3.02386E+03  7.66532E+03 -2.90434E+02
  4.75822E+03  6.27646E+03 -8.26534E+02  5.14678E+03 -9.44379E+03  3.81726E+03 -3.45290E+03  1.09891E+01
 -4.14776E+03 -4.55327E+03  2.71672E+03 -4.91432E+03  3.34870E+03 -5.21929E+03  3.50081E+03 -3.32790E+03
 -3.72723E+02  4.82873E+02  2.12380E+03 -5.94418E+02  3.75033E+03  2.02408E+02 -2.16465E+03  3.40359E+03
  6.68730E+03  2.06020E+02  9.60340E+03  3.11821E+02  5.73244E+03  2.95188E+03  5.70377E+03  5.68261E+03
 -2.31485E+03  1.03353E+04 -7.22987E+03  3.46300E+03 -8.40786E+03  1.39291E+03 -3.60401E+03 -1.45337E+03
 -7.08785E+03 -4.36747E+03  4.85395E+02 -6.54174E+03 -5.39870E+02 -3.58158E+03  4.22183E+03 -3.07360E+03
  9.15274E+02  8.20901E+02  1.05431E+03 -4.95659E+03 -9.78663E+02 -1.21517E+03  1.87454E+03  6.66132E+03
  1.87506E+03  1.20520E+02  1.00600E+03 -3.08642E+03 -2.73861E+03  3.89038E+03 -4.82609E+03 -1.20549E+03
 -5.88260E+03 -2.99076E+03 -5.19330E+03 -5.80385E+03 -4.07956E+03 -7.38298E+03  4.11354E+03 -5.94448E+03
  4.74093E+03  1.95264E+02  7.52624E+03 -6.90592E+02  8.30084E+03  1.82990E+03 -1.55531E+03  1.17823E+04
  5.16991E+02  4.23915E+03  5.23223E+02  6.27473E+02 -1.18863E+00 -2.33354E+03  1.29134E+02 -1.35455E+03
  1.02839E+03 -4.42132E+02 -4.57184E+02  1.68961E+02 -1.24545E+03  2.30555E+03 -8.95017E+02 -2.82248E+01
  7.04645E+02 -6.92111E+03  2.19059E+03 -6.19072E+02  3.88966E+03 -6.21045E+03 -7.45657E+02 -2.72973E+03
  5.69747E+03  4.83258E+02  2.05200E+02  2.20457E+03  6.93543E+01  5.02828E+03 -9.37611E+01  3.60767E+02
 -5.71567E+03  2.06686E+03  4.54331E+01 -4.58517E+03  1.85378E+03  8.93261E+02  1.05371E+03 -2.04043E+03
  3.64161E+02  2.11834E+03 -1.10466E+03  3.35964E+02 -5.08370E+03  1.63334E+03 -1.76790E+03  3.30997E+02
 -2.69520E+02  2.64444E+03 -4.19620E+03  2.68775E+03 -3.34337E+03 -4.21884E+02  3.75562E+02  1.76100E+03
 -3.27344E+03  2.92815E+03 -1.73144E+03  6.98784E+03  2.08732E+03  3.43799E+02 -2.62012E+03 -3.25076E+03
 -1.71183E+03 -1.59395E+03  9.63727E+02 -3.22155E+03 -5.41115E+02 -1.56854E+03 -2.32196E+03 -2.61796E+03
  5.86739E+03  3.75916E+03  9.95008E+01  8.66641E+02  1.61100E+03 -3.25221E+03 -3.48690E+03 -1.62116E+02
  8.94730E+02 -2.31575E+03 -2.46333E+02 -5.31818E+03  3.89351E+03  9.06505E+02  9.60484E+01  6.86355E+02
  1.02357E+03 -2.43336E+02 -6.72528E+02 -1.16717E+03  2.16759E+03  7.92676E+02 -1.03992E+03  3.91376E+03
 -6.91825E+02  1.10279E+03  5.41095E+03 -2.41477E+03  3.83806E+03 -1.17051E+03  1.37823E+02 -5.55311E+01
  1.95193E+03 -1.08913E+03  1.37790E+03 -5.66657E+02 -5.77212E+03 -1.41773E+03  3.83250E+03 -2.08349E+03
  5.33738E+03 -2.32113E+03  5.63116E+03  1.82375E+03  3.60966E+02  2.52563E+02  1.61271E+03  3.16047E+02
 -1.99789E+02  4.81021E+02  3.90869E+03 -1.79729E+03 -3.11069E+01 -1.27237E+03 -2.05695E+03  5.84603E+03
 -9.73981E+02 -2.73272E+03 -2.79188E+03  6.83321E+02 -4.54435E+02  1.13807E+03 -4.98035E+02 -4.39281E+02
 -4.22192E+03 -1.33520E+03 -2.67423E+03  1.97616E+02  4.67237E+03  2.01392E+02 -6.89182E+02  1.02594E+03
  4.63894E+02  2.15085E+03 -2.97524E+02  2.31729E+01  1.14694E+03  3.05879E+03  5.25269E+02 -2.31360E+03
 -1.89764E+03 -2.84533E+02  7.63428E+02 -6.83015E+02 -2.18441E+03 -2.51259E+03  3.70304E+02  2.18596E+02
 -3.13780E+03  5.13245E+02  5.15307E+03  3.19642E+03  4.54823E+01  2.45713E+03 -1.74987E+03  1.55842E+03
  3.69572E+02 -9.88652E+02 -6.39366E+02 -4.97105E+02 -1.03615E+03  2.27219E+03 -2.48312E+03  1.26425E+03
 -1.91081E+01  4.40783E+03 -2.57652E+03  5.30061E+02 -1.00843E+03 -2.39868E+03 -3.04760E+03 -4.30448E+03
  6.38977E+02 -1.24331E+03 -1.02022E+03 -2.37317E+03  7.49860E+02 -6.17874E+03  5.22642E+02 -2.02386E+03
  3.21542E+03 -4.39155E+03  2.38953E+03  3.49330E+03  4.52845E+02  5.86855E+02  2.85157E+02  6.62641E+03
  1.50744E+03  5.76388E+03 -7.57212E+02 -1.53599E+03  2.40787E+03  1.48616E+03 -3.09930E+03 -7.70957E+02
 -9.51424E+02 -4.68552E+02  1.33773E+03  2.44502E+01 -1.73913E+03 -2.73407E+03 -3.95660E+03  8.04629E+02
  5.46691E+03  1.06119E+03  1.13479E+03  3.57816E+03  3.35298E+03  2.94813E+03 -1.98734E+03  6.91435E+03
  2.55803E+03  7.40741E+02  3.30636E+03  8.17328E+01  2.07161E+03  2.05475E+03 -1.99969E+03  2.91365E+02
 -1.53245E+02 -1.47268E+03  1.41035E+03 -1.32002E+03  2.88821E+03  2.42323E+03  1.50236E+03 -1.02733E+03
  1.00267E+03  2.54674E+03 -1.11247E+03 -5.65790E+03  2.08819E+03 -3.82265E+02 -4.69823E+02  2.81991E+03
 -6.34597E+03 -5.12512E+03 -2.05708E+02  1.71408E+03  1.35386E+03  1.74196E+03  1.07988E+03  2.66073E+03
  7.62410E+01 -1.59561E+03  4.06321E+03  1.53369E+03  1.97172E+03 -2.16713E+03  3.75550E+03  1.23117E+03
  1.56651E+02  3.88237E+02  7.48058E+03 -8.09282E+02  9.95645E+02 -4.53335E+02 -4.11989E+02  2.93078E+03
  2.78915E+03 -2.42523E+03  1.22884E+03  1.97922E+02 -3.51316E+02  1.04546E+03 -1.01910E+03  1.44104E+03
 -4.96860E+03  6.28106E+01 -1.41841E+03  4.56086E+02  1.13220E+03  4.69783E+03 -1.62413E+03  2.24686E+03
  8.48199E+02 -4.70227E+02  1.84209E+03  9.89375E+02  7.91840E+02 -5.38844E+03  1.41571E+03  4.07241E+03
 -2.32272E+03  4.28217E+03  2.16902E+03 -3.98218E+03 -2.62120E+01  2.55305E+03 -1.23652E+03  2.62634E+03
