 $NMID ID='MM_0lb_SNR50_19hz_g40_2.RAW', FMTDAT='(8E13.5)'
 TRAMP=1., VOLUME=1. $END
  3.10903E+05  6.92501E+02  3.38426E+05  2.49725E+05  8.34905E+04  3.35400E+05 -1.35817E+05  2.51432E+05
 -1.89160E+05  8.09656E+04 -1.11161E+05 -3.23361E+04  2.33207E+03 -4.84385E+04  5.32620E+04  8.79319E+02
  3.49999E+04  5.14804E+04 -1.63527E+04  7.11203E+04 -6.32811E+04  6.65068E+04 -8.13993E+04  3.39390E+04
 -7.67379E+04 -1.13528E+04 -6.04448E+04 -4.89228E+04 -1.47596E+04 -6.52394E+04  2.53171E+04 -4.49321E+04
  4.18766E+04  8.03390E+03  1.44971E+04  4.72950E+04 -3.56704E+04  4.55812E+04 -6.42891E+04 -8.50275E+02
 -4.73475E+04 -5.47643E+04 -1.14809E+04 -7.71533E+04  3.08266E+04 -5.48237E+04  4.52212E+04 -1.56731E+04
  4.16229E+04  1.18424E+04  2.68363E+04  2.67183E+04  1.23417E+04  3.06383E+04 -6.98793E+03  2.83876E+04
 -2.11091E+04  1.34083E+04 -1.92307E+04 -4.51215E+03  2.75510E+03 -5.82439E+03  1.78146E+04  1.03638E+04
  4.67198E+03  3.09859E+04 -2.68915E+04  3.17820E+04 -5.96083E+04  4.42384E+03 -5.46158E+04 -4.17413E+04
 -1.26104E+04 -6.02707E+04  3.80208E+04 -4.35005E+04  5.60450E+04  1.25744E+03  2.89047E+04  3.02972E+04
 -7.73648E+03  2.91201E+04 -3.21602E+04  1.16837E+04 -2.30047E+04 -8.13196E+03 -1.50817E+04 -1.13504E+04
 -2.43210E+03 -1.22655E+04  8.51847E+02 -1.95648E+04  3.61326E+03 -2.51147E+04  9.15572E+03 -1.67298E+04
  1.48284E+04  6.61576E+02 -4.90397E+03  1.21198E+04 -2.16645E+04 -3.18597E+03 -9.33301E+03 -3.01386E+04
  2.01960E+04 -4.06484E+04  4.59121E+04 -2.03806E+04  4.24843E+04  1.82020E+04  1.18683E+04  3.83478E+04
 -1.26356E+04  2.57985E+04 -2.23812E+04  3.68394E+03 -4.52129E+03 -2.33265E+04  2.27216E+04 -3.32652E+04
  3.39045E+04 -1.06442E+04  3.17103E+04  2.44205E+04  1.29151E+04  4.43234E+04 -5.31601E+03  4.46719E+04
 -3.17937E+04  3.10816E+04 -3.61389E+04  9.43878E+03 -3.62052E+04 -1.64213E+04 -1.91134E+04 -3.47533E+04
  1.10971E+04 -3.37586E+04  2.74853E+04 -1.39003E+04  2.78483E+04  1.36425E+04  2.90830E+03  1.76109E+04
 -1.62229E+04  8.58301E+03 -9.86337E+03 -1.21790E+04  7.75666E+03 -7.14550E+03  1.68489E+04  7.91859E+03
  1.40578E+04  1.73056E+04 -7.56881E+03  2.33925E+04 -1.82944E+04  8.10534E+03 -2.03586E+04 -5.75965E+03
 -1.27009E+04 -1.73848E+04 -2.63491E+03 -1.49952E+04  6.30164E+03 -1.41315E+04  8.82105E+03 -1.19784E+04
  2.10196E+04 -1.37881E+04  2.43257E+04  2.62246E+03  2.50014E+04  1.50099E+04  3.47183E+03  3.17166E+04
 -1.36735E+04  2.65035E+04 -2.61488E+04  4.94185E+03 -2.03176E+04 -1.30909E+04 -2.47636E+03 -1.55783E+04
  5.89741E+03 -4.47769E+03 -1.50724E+02  4.39103E+03 -1.42007E+04  6.43455E+03 -1.54859E+04 -5.63627E+03
 -5.82441E+03 -1.66747E+04  4.75089E+03 -1.82857E+04  1.50568E+04 -1.50518E+04  1.32085E+04 -3.26433E+03
  9.43830E+03  1.34754E+04 -2.17064E+03  1.48709E+04 -1.17943E+04  3.37446E+03 -1.56376E+04 -3.61312E+03
 -1.26384E+04 -1.52908E+04 -3.60745E+03 -1.43053E+04  7.56690E+03 -1.40468E+04  1.91822E+04 -7.33477E+03
  1.51795E+04  3.07346E+03  1.18924E+04  4.11846E+03  8.99086E+03 -6.89346E+02  5.54106E+03 -3.35470E+03
  1.52813E+04  3.92166E+03  1.50296E+04  1.49115E+04  1.33105E+04  2.39123E+04 -6.66878E+03  2.65452E+04
 -1.24893E+04  2.11012E+04 -2.17858E+04  5.31402E+03 -2.21361E+04 -2.28649E+03 -2.31334E+04 -9.86198E+03
 -8.36541E+03 -1.57915E+04  6.12949E+03 -1.69207E+04  1.43952E+04 -1.08976E+04  1.56493E+04  1.28259E+03
  9.99954E+03  1.30341E+04 -6.79411E+03  1.12634E+04 -1.31816E+04  3.81471E+03 -8.15442E+03 -7.92996E+03
  2.43988E+03 -1.44740E+04  3.37988E+03 -7.33601E+03  2.33939E+03  3.79588E+03  4.56328E+03  2.76355E+03
 -6.24692E+03  2.27246E+03 -9.62713E+03 -1.98945E+03 -1.55778E+03 -8.19293E+03  3.79077E+03 -9.38537E+03
  1.22231E+04 -1.48377E+03  1.10950E+04  2.04826E+03  6.69556E+03  9.65617E+03  5.72483E+03  1.35314E+04
 -3.11297E+02  1.57888E+04 -9.23123E+03  5.74234E+03 -1.10481E+04  3.44670E+03 -8.97489E+03 -4.61323E+03
 -6.24872E+03 -3.01313E+03 -4.68543E+02  4.64926E+03 -3.03901E+03  7.19703E+02 -7.75699E+03  7.08915E+03
 -7.65268E+03  1.84508E+02 -7.95086E+03 -9.68963E+03 -6.14407E+03 -8.72023E+03  3.14511E+03 -6.14659E+03
  7.11819E+03 -4.45387E+03  1.57867E+03  2.84241E+03 -1.46520E+02  1.04891E+04 -2.33251E+03  2.77479E+02
 -1.28670E+03 -6.76205E+03  1.22934E+03 -6.15991E+03  5.56525E+03 -1.20128E+04  1.06223E+04 -1.16735E+03
  7.69721E+03 -7.69789E+02  9.58147E+03  5.07910E+02  1.83807E+03  7.58091E+03 -5.88826E+03  6.73275E+03
 -5.19013E+03  2.87600E+03 -4.27550E+03 -2.00777E+03  2.42028E+02 -8.93340E+02  2.97666E+03 -5.11724E+03
  7.38091E+03  3.69132E+03  4.35733E+03  6.31841E+03 -3.67953E+03  7.24100E+03 -1.12246E+04  1.69542E+02
 -2.27365E+03 -4.49323E+03 -3.99878E+02 -5.82938E+03  4.49756E+02 -1.78774E+03  5.74718E+03  2.02030E+03
 -5.80618E+03  3.87134E+03 -4.48286E+03  7.39661E+03 -6.92343E+03  2.67800E+03 -8.02158E+03  1.35200E+03
 -2.13765E+03 -5.82576E+03 -5.77776E+02 -4.99861E+03  8.27209E+03 -1.66025E+03  3.14210E+03  1.83702E+03
 -5.07061E+02  6.45777E+03 -1.59514E+03  6.29436E+03 -4.65778E+03  4.68942E+03 -5.35991E+03 -2.62522E+03
 -3.39618E+03 -2.89315E+03 -2.03414E+03 -9.58043E+03  8.33249E+02 -5.79419E+03 -1.33469E+03 -4.01523E+03
  6.64125E+03  4.96712E+03  4.08131E+02 -9.37557E+01  6.08159E+03  2.12581E+03  5.10829E+03 -6.69458E+03
  3.61499E+03 -2.31955E+03  5.11345E+03  3.67275E+02  4.78823E+03  1.26996E+03  8.13193E+03  5.01427E+03
 -1.27569E+03  7.38803E+03 -1.03625E+04  7.42112E+03 -8.98552E+03  2.59816E+03 -2.83723E+03 -4.92862E+03
 -1.62252E+03 -1.97693E+03  1.91230E+03 -5.29357E+03  1.17583E+03 -2.40169E+03  2.57963E+03 -2.75185E+03
 -4.79859E+02 -2.04290E+03  4.10444E+03 -7.35859E+03  4.12609E+03  2.01017E+03  4.28204E+03  1.70316E+03
  2.65859E+03 -1.08517E+03 -1.43103E+03  2.53720E+03 -4.61020E+03  2.79022E+02 -1.78224E+03  2.57469E+03
 -3.21834E+03 -2.05471E+03 -3.29984E+02  9.93088E+02  3.65314E+03 -2.69931E+03  5.06815E+02 -1.70660E+03
  5.11276E+03 -3.76876E+03  6.57628E+03 -1.01178E+03  5.74719E+03  2.82625E+03  4.68664E+02  6.74527E+03
 -4.58621E+03  6.19032E+03 -2.72595E+03  2.94879E+03 -3.77946E+03 -1.91776E+03 -8.14045E+02 -5.07341E+02
  2.08222E+03  1.60282E+02  3.53153E+03  7.25138E+02 -6.89180E+03  4.26607E+03  2.81930E+03 -3.54193E+03
 -2.72088E+03 -4.82943E+03  1.28364E+03 -1.40314E+03  3.05183E+03 -6.84683E+03  5.12031E+03  1.47627E+02
  7.07428E+02  3.04387E+03  2.33903E+03 -2.56455E+02  7.16705E+02  2.72327E+03 -2.28603E+03  3.42031E+02
 -4.18923E+03  2.10158E+03 -4.17175E+03 -4.87044E+03  1.91306E+03 -2.60317E+03  5.32961E+02 -5.76633E+03
  1.40434E+03  2.58123E+03  1.53934E+03  2.03214E+03 -1.80536E+02  2.19673E+03 -1.17552E+03  1.26007E+03
 -2.03494E+02  1.44789E+03  3.97042E+01  3.78053E+02  8.70096E+02  4.30393E+03  1.23855E+03 -5.95248E+02
 -6.94134E+03  2.43417E+03 -4.66929E+03  1.49797E+02 -1.38707E+03  6.13628E+03 -3.54652E+03 -1.23506E+03
 -1.98402E+03 -2.42121E+03 -2.57693E+02 -1.79353E+03  4.07244E+03 -2.68694E+03  4.08013E+03 -3.54179E+03
  6.70611E+03 -2.75931E+03 -1.83602E+03 -2.25475E+02 -1.81700E+03  1.86472E+03 -4.58238E+03 -9.23605E+02
  3.22018E+03  1.82136E+02 -1.34416E+03 -1.05208E+03  2.94103E+03  1.43642E+03  2.66128E+03 -1.60941E+03
 -8.27897E+02 -2.64268E+03 -2.59498E+03  6.93803E+02 -1.92281E+03  1.15031E+03  2.31834E+03  1.83140E+03
 -1.44782E+03  1.00106E+03  2.64043E+03 -3.22313E+03  8.50512E+02  2.25418E+03  1.46652E+03 -6.35081E+02
 -1.08930E+03  9.32568E+02  1.73069E+02 -1.45360E+03  1.51109E+03 -1.77481E+02 -1.65894E+03 -1.08662E+03
 -6.74651E+02  7.18432E+02  1.74210E+03  9.00002E+02  1.20176E+03 -1.02017E+03 -2.47913E+03 -1.98000E+03
 -7.62461E+02  2.11402E+03 -2.71718E+03 -2.31026E+03  3.36417E+03 -2.90523E+03 -1.86664E+03 -2.48815E+03
  1.25330E+03  9.95632E+02  1.81599E+03 -1.27601E+03  1.45047E+03 -1.74163E+03 -8.83622E+02  4.13960E+02
  1.07385E+03  1.30385E+03 -8.78259E+02  2.63128E+03 -3.07782E+02  2.36039E+03  1.30218E+02  1.63447E+03
 -1.83937E+03 -2.63200E+03 -1.32426E+03  4.33346E+03 -1.44928E+03  9.89430E+02  1.81390E+03  3.56604E+03
 -1.49693E+03  1.68816E+03 -5.28733E+03  7.10029E+03 -9.34341E+02  6.07775E+02  1.22482E+03 -1.20831E+03
 -6.00873E+02  6.64344E+02 -1.28188E+03 -7.77884E+02 -4.55026E+03  1.86501E+03 -2.24033E+03 -9.44299E+02
  1.69528E+03  8.06300E+02 -5.17689E+03  2.91641E+03  4.97812E+03  5.63663E+02  2.81251E+03  1.47673E+03
  7.55613E+02  8.67297E+02  3.82285E+02 -1.10072E+03  1.01818E+03  2.14995E+03 -7.11512E+02 -2.05341E+03
 -2.23800E+03 -3.79632E+03 -1.45784E+03 -3.58552E+03  7.61018E+02 -1.34671E+03  7.92229E+03 -1.19808E+03
  3.62855E+02  2.63213E+03 -2.81326E+03  2.90856E+03 -1.53072E+03  1.20669E+03  3.28586E+03  1.14131E+03
 -5.12815E+03  8.01176E+02  3.04034E+03  1.91467E+03  1.30689E+03 -4.25336E+03 -7.98415E+02 -2.12562E+02
 -3.76305E+03  9.57748E+02 -1.12271E+03  8.70466E+02  3.62528E+03  2.21521E+03 -2.28780E+03 -3.53006E+03
  4.09386E+01  8.03918E+02  3.04625E+03 -3.09615E+03 -6.05271E+02  7.55805E+03 -7.77078E+01  4.47699E+03
  2.25094E+03 -1.40369E+02 -7.34442E+02  1.01768E+03 -2.89971E+03 -1.20963E+03  1.07297E+03 -3.17447E+03
 -2.95153E+03 -4.87368E+03  1.53516E+03 -1.89402E+03  5.14946E+03 -4.58995E+03 -1.98198E+02 -1.47073E+03
  2.82197E+03 -1.44176E+03  7.05344E+02  1.77312E+02 -1.64277E+03  2.15800E+02  2.07942E+03  9.20184E+02
 -8.18035E+02  4.40464E+03  3.23520E+03 -9.56388E+02  1.29703E+03  1.38525E+03  2.81118E+03  1.87995E+02
 -1.95848E+03 -1.05953E+03 -6.44088E+02 -2.11064E+03  2.29034E+02  1.36734E+03  1.55859E+03 -2.15185E+03
  3.73664E+02 -2.17346E+03 -2.33629E+02  1.08333E+03  3.36502E+03 -3.65136E+03 -1.47835E+03 -1.75155E+03
  3.20211E+03  9.95911E+02 -3.18145E+03 -2.08148E+03 -4.42865E+03 -3.62371E+02  2.97535E+03 -1.21798E+03
  3.61952E+03  2.68302E+03 -1.83738E+03  1.36376E+03  1.64170E+03 -1.49728E+03 -1.86714E+03  2.65977E+03
 -7.10979E+02 -4.38246E+02 -8.82969E+02 -1.16368E+03  2.47163E+03 -1.38622E+03 -1.01431E+02 -2.39521E+03
  1.28138E+03 -1.40146E+03  8.96519E+02 -1.96754E+02  4.89556E+02  1.40980E+03  3.40097E+03 -2.21453E+03
