 $NMID ID='MM_0lb_SNR50_10hz_g40_56.RAW', FMTDAT='(8E13.5)'
 TRAMP=1., VOLUME=1. $END
  3.10989E+05 -2.20380E+03  3.39888E+05  2.53249E+05  8.33766E+04  3.41683E+05 -1.36939E+05  2.51841E+05
 -1.95481E+05  8.60223E+04 -1.10574E+05 -3.63577E+04  4.14935E+03 -5.26053E+04  5.44231E+04  5.91324E+03
  3.71954E+04  4.54586E+04 -1.60255E+04  8.04128E+04 -6.12611E+04  6.86410E+04 -8.73361E+04  3.49081E+04
 -7.99974E+04 -9.37091E+03 -6.06795E+04 -4.86703E+04 -1.58877E+04 -7.17168E+04  2.38229E+04 -4.49789E+04
  3.77619E+04  5.39105E+03  1.36180E+04  4.79275E+04 -3.55479E+04  4.45040E+04 -6.25278E+04  7.43708E+03
 -5.03425E+04 -5.59317E+04 -5.60975E+03 -7.49377E+04  2.88704E+04 -5.41106E+04  4.98114E+04 -1.95739E+04
  4.51612E+04  8.31479E+03  3.11847E+04  2.41980E+04  1.41558E+04  3.33417E+04 -6.46666E+03  2.93985E+04
 -2.42256E+04  1.04154E+04 -1.61662E+04 -4.83262E+03  7.90116E+03 -8.69837E+03  2.37286E+04  1.13096E+04
  8.83093E+03  3.72721E+04 -3.38388E+04  3.56484E+04 -5.92904E+04  5.98226E+03 -5.66906E+04 -3.69096E+04
 -1.10099E+04 -6.16940E+04  3.80227E+04 -4.69598E+04  5.97135E+04 -3.98770E+03  3.70702E+04  3.57733E+04
 -4.17619E+03  3.63325E+04 -2.76863E+04  1.92954E+04 -3.20128E+04 -1.39976E+03 -2.10272E+04 -1.29189E+04
 -5.43105E+03 -1.81331E+04 -3.42640E+03 -2.38752E+04  9.27456E+03 -2.21582E+04  1.07672E+04 -9.84088E+03
  1.14474E+04  1.85656E+02 -9.21010E+03  1.00446E+04 -2.73700E+04 -4.44191E+03 -1.29192E+04 -3.59744E+04
  2.62406E+04 -4.39769E+04  5.38104E+04 -2.42195E+04  4.54843E+04  2.05884E+04  2.05811E+04  4.61848E+04
 -1.55512E+04  3.38849E+04 -2.65956E+04  5.85332E+03 -1.27748E+04 -3.36235E+04  1.84208E+04 -3.71960E+04
  4.56659E+04 -1.02302E+04  3.62381E+04  2.65514E+04  2.01919E+04  4.63511E+04 -6.38440E+03  5.50284E+04
 -3.29122E+04  3.66813E+04 -4.59125E+04  1.37783E+04 -4.77778E+04 -1.76281E+04 -2.69147E+04 -4.06633E+04
  7.85516E+03 -3.96017E+04  3.56895E+04 -1.58712E+04  2.94377E+04  1.00388E+04  6.72825E+03  2.22107E+04
 -1.38751E+04  1.03792E+04 -9.78528E+03 -1.30054E+04 -8.64860E+02 -1.19253E+04  1.46755E+04  8.69990E+03
  1.38766E+04  2.90262E+04 -8.22836E+03  1.86072E+04 -2.15602E+04  1.75746E+04 -3.47307E+04  1.82261E+01
 -2.63307E+04 -1.92427E+04 -1.65603E+04 -2.09128E+04  3.39964E+03 -1.95284E+04  1.64823E+04 -1.83419E+04
  3.39524E+04 -1.76924E+04  3.93828E+04  1.98269E+03  2.58658E+04  2.14365E+04  5.41025E+03  3.70666E+04
 -2.07254E+04  3.21346E+04 -3.00751E+04  8.12943E+03 -2.93605E+04 -1.15888E+04 -6.97245E+03 -8.66564E+03
 -4.22194E+03 -3.30483E+03 -6.54599E+03  9.64611E+03 -1.74404E+04  3.30227E+03 -2.13558E+04 -1.19460E+04
 -1.44476E+04 -2.43783E+04  6.36203E+03 -2.24427E+04  1.61640E+04 -1.59266E+04  1.65859E+04  3.75740E+03
  1.52885E+04  1.05430E+04  5.36082E+02  1.95920E+04 -1.84229E+04  1.36372E+04 -1.89530E+04  2.48363E+02
 -1.60543E+04 -2.07228E+04 -2.27940E+03 -1.98938E+04  1.13057E+04 -2.13523E+04  1.68205E+04 -1.39241E+04
  1.93788E+04  5.31154E+02  1.35648E+04  5.70189E+03  6.77173E+03 -1.84163E+03  5.60054E+03 -9.95488E+01
  2.29814E+04 -1.14378E+02  2.80245E+04  1.73541E+04  1.55509E+04  3.52575E+04 -3.77398E+02  4.24834E+04
 -2.35562E+04  3.19390E+04 -3.89257E+04  1.46101E+04 -4.66706E+04 -4.58942E+03 -2.79722E+04 -2.65354E+04
 -1.56515E+04 -3.01316E+04  1.60223E+04 -2.09640E+04  2.61040E+04 -1.28398E+04  1.71189E+04  5.35538E+03
  5.59133E+03  1.92813E+04 -6.00960E+03  1.16419E+04 -1.78468E+04  1.09322E+02 -1.55996E+04 -6.66734E+03
  2.05979E+03 -1.83207E+04  1.00611E+04 -1.21712E+04  1.12981E+04 -4.04798E+03  1.48407E+03  1.13919E+04
 -7.37100E+03  2.63013E+03 -4.81317E+03 -5.73137E+03 -8.83902E+02 -1.68101E+04  1.21755E+04 -2.02580E+04
  1.71024E+04 -1.01227E+04  2.18683E+04 -2.10175E+03  2.50267E+04  1.48608E+04  1.15723E+04  2.39641E+04
 -7.51142E+03  3.04722E+04 -1.74890E+04  2.06434E+04 -1.94589E+04  2.86166E+03 -1.04392E+04 -2.58453E+03
 -5.31193E+03 -1.12678E+04 -5.70995E+02  2.59590E+03 -2.14326E+03  3.71001E+03 -6.73507E+03  3.36546E+03
 -1.01273E+04 -3.62827E+03 -1.13539E+04 -1.41984E+04 -8.36788E+03 -1.76318E+04  1.32655E+04 -1.62858E+04
  1.63047E+04 -3.59470E+03  1.10464E+04  2.50593E+03  6.55251E+02  4.24879E+03 -7.86318E+03  2.33853E+03
 -5.89259E+03 -4.30331E+03 -2.14695E+03 -1.88518E+04  2.76475E+03 -1.09107E+04  1.49322E+04 -1.15611E+04
  2.30182E+04 -5.57344E+03  1.55912E+04  8.98813E+03  2.08570E+03  1.77538E+04 -7.83061E+03  1.12452E+04
 -1.17987E+04  3.78598E+03 -4.34176E+03 -4.03877E+03  1.56773E+03 -5.42965E+03  7.59249E+03 -2.14797E+03
  8.55398E+03  1.20874E+04  3.58359E+03  1.17421E+04 -1.26887E+04  8.35338E+03 -8.41895E+03 -2.14462E+03
 -9.01546E+03 -8.12107E+03 -2.50168E+03 -1.46899E+04  9.32661E+03 -5.72079E+03  4.70555E+03  3.35453E+03
 -4.30061E+02  1.38211E+04 -4.90416E+03  1.03531E+04 -1.06063E+04  9.73894E+03 -9.60110E+03  2.37791E+03
 -7.30734E+03 -1.24966E+04  8.18087E+03 -2.12160E+04  1.63842E+04 -1.42934E+04  1.72481E+04  3.64866E+01
  4.88514E+03  1.22988E+04 -1.56945E+02  1.24868E+04 -8.28959E+03  9.55205E+03 -9.84947E+03 -4.30366E+03
 -1.11927E+04 -2.89535E+03 -4.66591E+03 -1.10370E+04  6.09431E+03 -7.66517E+03  6.65120E+03 -1.55813E+03
  3.45062E+03  8.22955E+02  4.80353E+03 -3.80101E+03 -2.81108E+03 -4.27871E+03 -7.36340E+02 -7.50288E+03
  4.31195E+03 -4.93144E+03  1.26485E+04  3.50840E+03  1.56262E+04  8.76715E+03  9.30865E+03  1.33423E+04
 -4.04691E+03  1.56019E+04 -2.21776E+04  1.24823E+04 -2.00760E+04  5.38546E+03 -2.14888E+04 -1.01696E+04
 -1.52697E+04 -1.44716E+04  7.17114E+03 -1.58761E+04  5.14806E+03 -4.98097E+03  1.03942E+04  4.15046E+02
  2.72840E+03 -4.21920E+03  2.73763E+03 -1.12194E+03  6.41704E+03 -3.39656E+03  7.32646E+03  9.96032E+02
  1.11385E+04  4.92543E+03  9.33837E+03  4.74606E+03 -7.02290E+03  9.68252E+03 -1.11818E+04  8.05663E+03
 -1.32246E+04 -1.95732E+03 -1.03382E+04 -1.11485E+04 -1.09070E+03 -1.58293E+04  1.06138E+04 -1.15512E+04
  1.53211E+04 -1.23856E+04  1.75997E+04  4.48366E+03  9.07096E+03  1.25432E+04 -1.53845E+03  1.97871E+04
 -4.57202E+03  1.20353E+04 -1.08436E+04  8.79929E+03 -3.89917E+03  3.07287E+03  3.87202E+01 -2.91728E+03
 -3.07733E+03 -8.87850E+02  7.12233E+02  7.86550E+03 -9.46777E+03  6.35037E+02 -1.17046E+04 -4.76063E+02
 -1.04020E+04 -1.36920E+04  2.52805E+03 -1.22906E+04  6.27168E+03 -6.18075E+03  1.78209E+04 -2.50407E+03
  1.71926E+04  6.72698E+03  9.89071E+03  1.09041E+04 -2.13205E+03  1.55175E+04 -5.34460E+03  1.36890E+04
 -1.45765E+04 -7.04034E+02 -1.01358E+04 -6.10566E+03 -8.88678E+03 -1.14985E+04  7.17736E+03 -4.07469E+03
  3.49799E+03 -5.75709E+03  5.92824E+03 -1.29610E+03  4.41513E+02  2.80283E+03 -2.63781E+03 -3.13923E+03
  1.52530E+03 -2.80985E+03  3.61033E+03 -4.19647E+02 -1.26091E+03  4.05606E+03  4.99892E+03  4.60704E+03
 -5.23224E+03  7.98929E+03 -3.72815E+03  4.60222E+03 -1.26622E+04  5.08792E+03 -1.48605E+04 -8.84215E+03
 -6.54134E+03 -1.64650E+04  1.65410E+03 -1.43531E+04  1.13813E+03 -8.48781E+03  1.32452E+04 -4.50248E+02
  4.24687E+03  6.47611E+03  1.40010E+03  8.26329E+03 -2.27479E+03  5.31833E+03 -9.57506E+02 -4.83141E+03
  1.57832E+03 -1.65891E+03  3.90286E+03 -6.93844E+03  5.23168E+03 -9.34059E+02  6.79261E+03 -2.12275E+03
  4.10696E+03  3.28107E+03  4.24784E+03 -1.46195E+03 -4.37950E+03  8.03689E+02  3.66903E+03 -1.89003E+03
  5.81451E+03 -6.47067E+03  5.38070E+03  4.10722E+03  9.36904E+03  1.36467E+04 -1.51019E+02  9.53434E+03
 -1.10568E+04  4.08174E+03 -1.33157E+04  7.68538E+03 -9.53249E+03 -3.02470E+03  1.31986E+03 -5.21253E+03
 -2.11957E+03 -5.33589E+03  6.09894E+03 -2.43545E+03  9.04900E+02  4.48201E+02 -1.13742E+03  2.68737E+03
 -1.92932E+03  3.98190E+03 -8.74211E+03 -7.49366E+03 -7.63522E+02 -1.27664E+04  2.89396E+03  2.14357E+03
  5.58964E+03 -3.95015E+03  1.20616E+03 -4.24455E+03  8.72753E+03  1.06131E+03 -7.08876E+03  4.18547E+03
 -2.92197E+03  1.21224E+03 -6.79706E+03 -1.13678E+03 -2.78493E+03 -2.95666E+03  5.66573E+03 -5.77441E+02
  2.87257E+03  3.78788E+02  1.02972E+04  3.58182E+03 -3.03320E+03  9.59000E+03  8.26441E+02  1.87098E+03
 -2.06834E+03  3.14563E+03 -5.46882E+03 -1.98686E+03 -1.59061E+03 -4.00672E+03 -8.66992E+02 -2.27760E+03
  3.52340E+03  7.50159E+02  4.34618E+03  7.80620E+03  9.06351E+01  8.15675E+03  5.68108E+02  4.33546E+03
  4.26366E+03  7.10877E+03  5.64513E+03  5.80783E+03 -1.88574E+03  2.48204E+03 -7.36806E+03  3.05239E+03
  3.68961E+03 -1.04724E+03 -6.58106E+03  6.35202E+03 -1.19004E+04 -2.57110E+03 -1.24651E+04 -1.58623E+03
 -3.91658E+03 -1.25310E+04  5.47929E+03 -1.06883E+04  7.85845E+03 -9.53178E+03  9.28765E+03  2.73814E+03
  1.15050E+04  5.54371E+03  1.00510E+04  5.23258E+03  2.23504E+03  7.71179E+03 -2.63660E+01  4.16145E+03
 -8.36671E+03  4.88548E+03  5.58665E+03  4.09086E+03 -7.20643E+03 -2.26742E+03 -2.86210E+02 -3.43478E+03
 -1.14738E+02 -9.64780E+02  3.17219E+02 -2.60573E+03  1.55635E+02  3.89306E+03 -6.37014E+02 -5.71005E+03
  5.93158E+02 -2.54186E+03  2.18273E+03  1.14196E+03  3.08244E+03 -7.34427E+02 -4.60915E+03  4.41023E+03
 -2.34095E+03  9.06675E+03 -1.02655E+04  1.91776E+03 -8.22671E+03 -3.01934E+03 -5.00740E+03 -4.01933E+03
  2.78962E+02 -2.41262E+03  2.44067E+03 -9.39643E+03  4.43760E+03 -4.88147E+03  1.20307E+04 -6.04099E+03
  5.42897E+03  6.85797E+03 -6.41440E+03 -2.24164E+03 -5.60623E+03 -1.40729E+03 -2.07661E+03 -6.47287E+02
 -8.64790E+02  3.40323E+02  6.88182E+03 -3.75063E+03 -1.15354E+03  2.27032E+03  1.08830E+03  2.95254E+03
 -7.90454E+03  1.62732E+03 -5.27497E+03  8.44427E+02  1.21000E+02  2.65176E+03 -7.95702E+02 -8.07710E+03
  2.23261E+03  7.20075E+02  3.11988E+03 -2.94798E+03  8.47118E+03  6.89510E+03 -1.77232E+03  5.21019E+03
  6.19704E+03  5.99502E+03 -3.48320E+03  1.69217E+03 -3.63603E+03  3.82332E+03 -3.01378E+03 -4.11017E+03
  4.47365E+03 -2.49980E+03 -2.37395E+03 -4.11094E+03 -3.02708E+03 -8.26143E+02 -4.62588E+03  2.69153E+03
 -2.34069E+03 -5.35833E+03  1.14573E+03 -1.49352E+03  1.12172E+04 -9.89107E+03  1.17671E+04 -6.80790E+03
  2.54392E+03  4.76784E+03  2.85656E+03  1.87921E+03  9.74065E+02  4.74294E+03 -3.96183E+03  3.63473E+03
