 $NMID ID='MM_0lb_SNR50_15hz_g45_93.RAW', FMTDAT='(8E13.5)'
 TRAMP=1., VOLUME=1. $END
  3.10177E+05 -1.91247E+03  3.37916E+05  2.53322E+05  8.11026E+04  3.33725E+05 -1.30713E+05  2.49195E+05
 -1.83433E+05  8.89046E+04 -1.12750E+05 -3.14947E+04  3.42867E+03 -5.18020E+04  5.52611E+04 -4.30286E+02
  3.62156E+04  5.18315E+04 -1.63207E+04  7.17597E+04 -6.20929E+04  6.10265E+04 -8.28941E+04  3.38444E+04
 -7.87289E+04 -9.54333E+03 -5.29247E+04 -4.93785E+04 -1.57193E+04 -7.01289E+04  2.69614E+04 -3.99246E+04
  4.03400E+04  3.12149E+03  1.87068E+04  5.10451E+04 -3.37896E+04  4.97671E+04 -5.92596E+04 -6.36698E+03
 -5.50102E+04 -5.26940E+04 -5.13167E+03 -7.92020E+04  2.98356E+04 -5.74217E+04  4.44326E+04 -1.91246E+04
  4.17322E+04  1.05731E+04  3.36861E+04  1.80250E+04  1.44250E+04  2.76261E+04 -7.12697E+03  2.66475E+04
 -1.92778E+04  1.27546E+04 -1.78094E+04 -5.28089E+03  4.58695E+03 -5.04837E+03  1.85658E+04  1.30973E+04
  9.11949E+03  3.36759E+04 -3.23330E+04  3.60413E+04 -6.12712E+04  3.64922E+03 -5.49015E+04 -4.54079E+04
 -1.24373E+04 -6.05632E+04  3.52737E+04 -4.55933E+04  5.69678E+04 -2.71798E+03  3.25115E+04  3.35731E+04
 -6.68061E+03  3.87793E+04 -2.43172E+04  1.81169E+04 -2.27052E+04 -7.59718E+03 -1.80097E+04 -9.83111E+03
 -4.94115E+03 -1.10491E+04 -1.01727E+03 -1.58935E+04  6.73337E+03 -2.41258E+04  1.41733E+04 -1.27764E+04
  1.29014E+04  4.59040E+03 -8.99928E+03  1.01542E+04 -1.70708E+04 -2.05628E+03 -1.24131E+04 -3.57869E+04
  2.16953E+04 -3.65757E+04  5.18433E+04 -1.94972E+04  4.13212E+04  1.92767E+04  1.22926E+04  4.43979E+04
 -1.43490E+04  3.43461E+04 -2.52352E+04 -1.97963E+03 -7.08650E+03 -2.59929E+04  2.22735E+04 -3.36365E+04
  4.16980E+04 -9.16777E+03  3.21473E+04  2.49784E+04  1.71255E+04  4.79377E+04 -2.25363E+02  4.77264E+04
 -2.98936E+04  3.35722E+04 -4.06504E+04  1.47771E+04 -3.74827E+04 -1.43846E+04 -1.78221E+04 -3.53015E+04
  1.03587E+04 -4.04451E+04  2.71695E+04 -1.61942E+04  2.50657E+04  1.37735E+04  3.37351E+03  1.94627E+04
 -1.51433E+04  1.01193E+04 -1.06728E+04 -1.24611E+04  5.00144E+02 -1.29096E+04  1.85574E+04  7.13733E+03
  1.39054E+04  2.39707E+04 -4.26083E+03  1.91688E+04 -2.05033E+04  3.94236E+03 -2.71853E+04 -1.09877E+04
 -2.02640E+04 -1.70655E+04 -7.33580E+03 -2.02320E+04  4.14371E+03 -2.10471E+04  1.38406E+04 -2.03320E+04
  2.41391E+04 -8.59915E+03  2.95198E+04  5.32054E+03  1.79974E+04  2.06125E+04 -5.04360E+02  3.52111E+04
 -1.58015E+04  2.45999E+04 -2.68635E+04  1.00893E+04 -2.62483E+04 -1.29214E+04 -1.23771E+03 -1.36262E+04
  8.16793E+03  3.62410E+03 -4.27746E+03  7.28235E+03 -1.80739E+04  8.24559E+03 -1.50488E+04 -6.60791E+03
 -6.89471E+03 -1.77915E+04  5.12922E+03 -2.09791E+04  1.15548E+04 -1.51436E+04  1.57652E+04 -5.79889E+03
  9.93219E+03  1.44325E+04  2.82302E+03  1.47272E+04 -1.19260E+04  1.25881E+04 -2.24772E+04 -1.37855E+03
 -1.17061E+04 -1.44736E+04 -2.58468E+03 -2.17551E+04  5.25903E+03 -1.59980E+04  1.27618E+04 -7.49499E+03
  1.97626E+04 -7.44283E+02  7.73952E+03  2.98525E+03  4.44621E+03  1.31248E+03  4.54374E+03 -1.18551E+02
  1.62868E+04 -1.36315E+03  2.09213E+04  1.39107E+04  1.05327E+04  2.84405E+04 -3.55838E+03  3.00289E+04
 -2.03608E+04  2.72954E+04 -2.92547E+04  9.98503E+03 -3.39467E+04 -1.30845E+03 -2.27249E+04 -1.79292E+04
 -1.47099E+04 -2.44709E+04  5.94007E+03 -2.73592E+04  1.97897E+04 -1.28692E+04  1.96685E+04  1.21832E+04
  1.10646E+04  1.28185E+04 -7.56581E+03  1.11089E+04 -1.38894E+04  1.18347E+03 -1.06334E+04 -7.61364E+03
  4.38715E+03 -1.38434E+04  1.29129E+04 -1.13853E+04  1.04790E+04 -2.33789E+03  4.46789E+03  3.63425E+03
 -6.45351E+03  2.51864E+03 -3.25857E+03 -1.20174E+04 -1.21486E+03 -9.30308E+03  1.25315E+04 -9.58668E+03
  1.41784E+04 -6.74933E+03  1.90023E+04  3.67294E+03  1.45790E+04  1.25901E+04  1.29596E+04  1.85044E+04
 -3.26705E+03  2.21597E+04 -1.22219E+04  1.52193E+04 -1.12648E+04  4.54526E+03 -1.22238E+04 -3.50123E+03
 -4.54917E+03 -2.61112E+03 -2.41366E+03 -2.15148E+03 -4.42237E+03 -1.06279E+03 -3.66230E+03  6.19348E+03
 -1.00270E+04 -1.54451E+03 -1.05892E+04 -1.13600E+04 -2.87355E+03 -1.51045E+04  4.76302E+03 -1.17566E+04
  1.03763E+04 -8.90084E+03  5.72458E+03  5.73414E+03  3.49903E+02  3.89864E+03 -1.43121E+03 -4.76237E+03
 -9.00162E+03 -1.01074E+04 -5.70606E+02 -1.47175E+04  7.90605E+03 -3.35727E+03  1.19290E+04 -7.36298E+03
  1.79222E+04  3.91053E+02  1.30953E+04  9.06867E+03  3.76185E+03  1.00231E+04 -6.87694E+03  9.50431E+03
 -9.09208E+03  2.35290E+03 -6.56552E+03 -3.24614E+02  8.22374E+02 -2.59070E+03  1.89459E+03 -5.95587E+03
  5.55733E+03  4.02062E+03 -4.71194E+03  6.41212E+03 -1.24506E+04  9.33925E+03 -1.07472E+04 -6.00834E+02
 -9.27908E+03 -1.17373E+04  2.46466E+03 -1.43462E+04  4.42310E+03 -2.40782E+03  1.11723E+04  1.37457E+03
 -3.16733E+03  4.60306E+03  4.92280E+02  5.43630E+03 -1.27768E+04  9.35574E+03 -3.39287E+03 -1.56721E+02
 -4.00883E+03 -8.33645E+03  1.14064E+03 -1.26280E+04  1.10631E+04 -5.31769E+03  7.86455E+03  3.90646E+03
  5.80452E+03  6.88674E+03  9.77000E+01  1.12383E+04 -5.63480E+03  7.83661E+03 -8.41652E+03  2.26535E+03
 -7.46818E+03 -3.76296E+03 -1.72455E+03 -1.07145E+04  3.64645E+03 -4.13258E+03  4.12835E+03 -4.76490E+03
  1.43579E+03 -3.08293E+03  3.72102E+03  3.82116E+03  3.87449E+03 -5.39112E+03  1.72928E+03 -4.50407E+03
  8.24514E+03  2.25121E+03  1.01199E+04  3.01822E+03  9.10422E+03  7.55438E+03  7.37999E+03  1.18928E+04
 -1.77201E+03  1.08646E+04 -9.18891E+03  9.51673E+03 -1.57027E+04  1.16356E+03 -8.84197E+03 -7.14219E+03
 -6.13890E+02 -8.36589E+03  2.72126E+03 -5.20169E+03  3.18019E+03 -2.59354E+03  8.64170E+02 -2.70379E+03
  3.52802E+03 -2.19681E+03  8.34075E+03 -3.26371E+03  4.52064E+03 -3.68681E+03 -8.11398E+02 -6.59000E+02
  4.53681E+03  2.84404E+03  2.34409E+03  2.39718E+03  9.11615E+02  6.66357E+03 -2.34301E+03  6.27395E+03
 -8.34409E+03 -3.24830E+03 -3.13981E+03 -8.44989E+03 -9.79933E+02 -1.23961E+04  4.69505E+03 -8.34886E+03
  8.66030E+03 -1.03401E+04  1.16938E+04  1.04817E+02  8.26595E+03  4.76632E+03 -4.16445E+01  1.16812E+04
 -2.44464E+03  7.39316E+03 -1.41286E+03  2.81698E+03 -1.65345E+03 -2.90200E+03  1.32909E+03  8.73488E+02
  1.23848E+03  2.64389E+03 -3.56623E+03  8.73188E+03 -3.73600E+03 -1.81086E+03 -3.97212E+03 -1.14430E+03
  2.37723E+03 -4.35783E+03 -9.74749E+02 -8.13615E+03  2.82616E+03 -9.84873E+03  5.28169E+03 -2.31955E+02
  4.00501E+03  3.70660E+03  2.40605E+03  6.69325E+03 -2.62024E+03  5.25940E+03 -4.73598E+03  3.93710E+03
 -8.27923E+03 -1.18012E+03  1.37275E+03 -5.30795E+03 -3.55925E+03 -7.35536E+03 -1.03441E+03 -1.59221E+03
 -1.00831E+02  2.91973E+03  2.77721E+03  2.44092E+03 -8.58319E+02  1.35536E+03 -5.37229E+03  5.19842E+03
  2.30726E+03  5.21912E+02 -1.11883E+03 -9.91513E+01  1.66597E+03  3.21496E+03 -3.41795E+03  1.67118E+03
 -2.36674E+02  6.02641E+03 -4.47937E+03  4.65574E+03 -7.80485E+03 -1.15314E+03 -7.15853E+03  3.00583E+03
 -3.15163E+03 -6.57560E+03  3.61726E+03 -7.50654E+03  1.26728E+03 -1.53228E+03  1.11401E+04 -1.05792E+03
  3.89932E+03 -1.35188E+03  7.96475E+02  8.69834E+03 -5.85993E+03 -6.12699E+02 -3.65731E+03  4.37601E+03
 -1.70008E+03 -2.76221E+03  3.14546E+03  2.79592E+03  2.31462E+03  5.46615E+02 -5.27510E+02 -2.66932E+03
  1.77094E+03 -3.71069E+02 -1.63896E+03  2.13896E+03  1.95305E+03  2.34093E+03  5.04064E+03 -5.58106E+03
  2.51316E+02  6.26180E+02  4.40532E+03  3.43616E+03  2.97306E+03 -8.27207E+02 -2.78804E+02  2.27346E+03
  4.49979E+02  7.68322E+02 -5.56322E+03 -1.05579E+03 -6.90257E+03  1.71393E+03  3.62002E+02 -3.66515E+03
 -1.56271E+03 -3.09976E+03  5.62028E+02 -3.67964E+02 -2.98560E+03  2.41417E+03  9.25452E+02  5.37319E+03
 -1.64385E+03  2.66243E+03 -5.72227E+03 -2.41146E+03 -5.71925E+03 -4.21349E+03  1.28207E+03 -1.10139E+03
 -2.27469E+03 -5.21563E+02  8.19079E+03  5.77915E+02  3.74289E+02  1.09508E+03  2.15970E+03  4.09932E+03
 -3.33477E+03  1.95285E+03 -2.55707E+03 -1.36244E+03 -1.53883E+03 -2.16919E+03  2.54877E+03  1.50965E+03
  1.52745E+03  4.78147E+02  4.37100E+03  2.09609E+03  3.68309E+03  5.72190E+03 -4.80875E+03 -1.86645E+03
 -2.93249E+03 -4.91920E+02 -5.78466E+03 -2.47766E+03 -2.45817E+03 -6.43452E+02  3.24839E+02  5.05763E+03
  3.12940E+03  1.32475E+03 -7.00656E+01  3.44517E+03  7.39621E+02 -2.56505E+02 -8.65834E+03 -6.49997E+02
 -2.32640E+03 -2.05525E+03  4.50024E+02  1.50508E+03  1.97005E+03  7.37350E+03 -1.61759E+03  2.59912E+03
  1.20685E+03 -1.99604E+03  1.14325E+03  3.29036E+03 -1.51693E+03 -2.89962E+03 -2.48861E+02 -4.83936E+03
 -1.36823E+03 -3.70647E+03 -3.81663E+03 -7.57157E+03  3.27082E+02 -3.14372E+03  5.69596E+03 -4.08767E+02
  2.87263E+03 -4.57556E+03  3.40079E+03  5.60757E+03  1.71311E+00  6.54196E+03 -4.74499E+03  2.04023E+03
  8.90996E+02  3.30059E+03  1.67712E+02 -1.19566E+03  3.00803E+03  6.29459E+03 -3.45348E+03  2.48017E+03
 -5.09627E+02  1.44729E+03  1.80289E+03 -1.81873E+03 -6.02357E+03 -5.14990E+03  1.83928E+03 -1.41562E+03
  3.72203E+03  1.14410E+03  2.00516E+03  1.10454E+03 -1.71561E+03  5.32884E+02 -7.45827E+02  3.33894E+03
  8.16177E+02  1.37282E+03 -4.65939E+03  9.08004E+03 -4.63287E+03 -2.81312E+03 -7.75046E+03 -5.79864E+03
 -7.14664E+02 -6.89972E+03 -1.17396E+03 -4.82985E+01  2.48386E+03 -2.12226E+03  1.24671E+03  2.52051E+03
  2.34964E+03  4.58879E+03 -3.11830E+03 -4.96418E+03 -2.55267E+03 -1.19317E+02 -8.11590E+02 -3.28361E+03
  6.71410E+01 -1.02839E+03 -1.87854E+03  1.31540E+02  5.41882E+02  2.58187E+02 -1.24820E+03  4.58236E+02
 -3.82135E+03  2.02957E+03  4.78854E+02 -5.50226E+02 -4.92158E+03 -1.11489E+02  2.45214E+03 -2.71204E+02
 -1.77455E+01 -8.36156E+03  2.36680E+03  1.46007E+03  1.91498E+03  1.53483E+03 -1.94826E+03  1.13334E+03
  2.17181E+03 -1.87389E+02  1.64081E+02  1.16420E+03 -3.91348E+03  8.88732E+01  3.78109E+03 -1.55400E+03
 -2.87756E+03  7.65040E+02  1.72767E+02  1.07152E+03 -5.04199E+03 -3.73852E+02  1.22639E+03  3.13242E+03
 -2.39367E+03  1.82629E+03  3.47747E+02  3.36637E+03  1.90394E+03 -1.89198E+03  2.58070E+03 -6.25485E+03
  6.05754E+02  1.57015E+03  1.46794E+03  3.87479E+02  1.26706E+03 -6.62882E+02 -2.07292E+03  1.29171E+03
