 $NMID ID='MM_0lb_SNR50_10hz_g55_54.RAW', FMTDAT='(8E13.5)'
 TRAMP=1., VOLUME=1. $END
  3.12374E+05 -1.29455E+03  3.37255E+05  2.50484E+05  8.42035E+04  3.41340E+05 -1.32520E+05  2.55567E+05
 -1.93547E+05  8.18682E+04 -1.16314E+05 -3.37536E+04  2.78958E+03 -5.27058E+04  5.24281E+04 -2.39018E+02
  3.30582E+04  5.57457E+04 -1.72267E+04  7.37119E+04 -5.78832E+04  6.52436E+04 -8.96786E+04  3.34529E+04
 -8.11063E+04 -1.59948E+04 -5.42097E+04 -5.14757E+04 -1.64372E+04 -7.31961E+04  2.75739E+04 -4.58258E+04
  3.81289E+04  3.13997E+03  1.64779E+04  4.73483E+04 -3.75721E+04  4.82685E+04 -6.96748E+04 -9.26094E+02
 -5.47146E+04 -6.25875E+04 -9.60767E+03 -7.58790E+04  3.19819E+04 -5.63941E+04  4.94727E+04 -2.07497E+04
  4.25887E+04  1.07331E+04  3.45362E+04  2.06129E+04  1.52350E+04  2.85992E+04 -4.00332E+03  2.36397E+04
 -2.09921E+04  1.07890E+04 -2.15102E+04 -3.12107E+03  9.31349E+03 -6.01608E+03  2.15697E+04  1.26757E+04
  9.19621E+03  3.71537E+04 -3.56129E+04  3.75589E+04 -6.41718E+04  2.62790E+03 -6.24166E+04 -4.33407E+04
 -1.33668E+04 -5.84097E+04  3.71291E+04 -4.98734E+04  5.88077E+04  9.06196E+02  3.93853E+04  3.33532E+04
  2.97715E+02  3.79721E+04 -2.98652E+04  1.99577E+04 -3.33036E+04 -4.84275E+03 -2.20302E+04 -1.05445E+04
 -4.31965E+03 -1.95682E+04 -5.34167E+03 -1.94539E+04  9.87651E+03 -2.35667E+04  1.69502E+04 -1.33646E+04
  1.15520E+04  7.72709E+03 -1.56818E+04  1.73207E+04 -2.51712E+04 -4.26807E+03 -1.27652E+04 -4.60767E+04
  2.62189E+04 -4.89869E+04  4.54175E+04 -2.31661E+04  4.86138E+04  2.30201E+04  1.87039E+04  5.21347E+04
 -1.97912E+04  3.36525E+04 -2.68513E+04 -2.73787E+03 -1.11453E+04 -2.99861E+04  2.65193E+04 -3.64295E+04
  4.33419E+04 -1.32796E+04  4.30592E+04  2.95923E+04  2.13428E+04  4.49473E+04 -6.69494E+03  6.02081E+04
 -3.32499E+04  3.36476E+04 -4.89884E+04  1.22902E+04 -4.69393E+04 -1.39177E+04 -2.43303E+04 -4.02593E+04
  8.93634E+03 -3.99504E+04  3.05301E+04 -1.51256E+04  3.07265E+04  8.67343E+03  8.18999E+03  1.66524E+04
 -9.21689E+03  1.19079E+04 -1.27789E+04 -3.37747E+03  2.84615E+03 -5.74833E+03  1.42211E+04  5.00441E+02
  1.01934E+04  2.79403E+04 -7.86049E+03  2.31884E+04 -2.06187E+04  1.70958E+04 -3.13055E+04  5.93027E+02
 -2.98514E+04 -1.47233E+04 -1.50635E+04 -2.08105E+04  6.65782E+02 -2.29986E+04  1.59832E+04 -1.83814E+04
  3.36989E+04 -1.58924E+04  3.38748E+04  1.18412E+03  2.13564E+04  2.39478E+04  3.32108E+03  3.87281E+04
 -1.52793E+04  2.91522E+04 -3.13429E+04  1.09384E+04 -2.77204E+04 -1.22511E+04 -1.54429E+03 -1.42404E+04
  7.00506E+02 -5.04391E+02 -1.75040E+03  7.93139E+03 -2.60935E+04  5.31934E+03 -2.16913E+04 -9.06504E+03
 -1.81514E+04 -2.30648E+04  6.15749E+03 -2.08931E+04  1.56669E+04 -2.18567E+04  1.99413E+04  1.52849E+03
  1.28362E+04  1.95332E+04 -2.76210E+03  2.00340E+04 -1.47879E+04  1.16069E+04 -2.47236E+04 -5.53650E+03
 -1.52947E+04 -2.55316E+04 -2.09283E+03 -3.35988E+04  1.10845E+04 -2.13236E+04  1.62918E+04 -1.01733E+04
  2.11618E+04 -3.74017E+03  1.60124E+04  4.95283E+03  1.05526E+04  2.61138E+03  8.47710E+03 -1.13540E+03
  1.68784E+04 -1.35707E+02  1.83151E+04  1.43512E+04  1.70709E+04  3.14211E+04 -6.93134E+02  4.49576E+04
 -2.93845E+04  3.40183E+04 -3.53273E+04  1.92480E+04 -4.68259E+04 -7.51200E+03 -4.09649E+04 -2.67485E+04
 -9.56388E+03 -4.03897E+04  1.10610E+04 -3.36760E+04  3.02187E+04 -1.78762E+04  2.40786E+04  1.05896E+04
  1.25588E+04  1.46975E+04 -1.43724E+04  1.43243E+04 -1.87568E+04  4.41511E+03 -1.12733E+04 -1.00910E+04
 -2.11791E+03 -1.94798E+04  9.96827E+03 -1.00720E+04  1.36131E+04  6.90137E+03 -1.94304E+03  5.04353E+03
 -6.42246E+03  9.00951E+03 -1.40628E+04 -8.94683E+02 -3.98478E+03 -1.55234E+04  1.57543E+04 -1.96736E+04
  2.06942E+04 -9.90551E+03  2.32665E+04  2.10607E+03  1.89425E+04  1.64236E+04  9.92668E+03  2.59404E+04
 -6.09939E+03  3.17180E+04 -1.84985E+04  1.71436E+04 -1.69579E+04 -1.59469E+03 -1.39181E+04 -8.70404E+03
 -6.02039E+03 -2.05174E+03  4.76456E+02  2.98402E+03 -2.73402E+03  3.20810E+03 -1.07657E+04 -7.66599E+02
 -1.19974E+04 -6.03649E+03 -1.75073E+04 -1.64113E+04 -1.24346E+04 -2.14317E+04  1.22733E+04 -1.44606E+04
  1.12707E+04 -8.44213E+03  1.46999E+04  5.35197E+03  1.47838E+03  6.04914E+03 -5.85074E+03 -5.38318E+02
 -9.16664E+03 -1.28735E+04 -1.46693E+03 -1.79802E+04  1.00540E+04 -1.85197E+04  2.05221E+04 -4.47699E+03
  2.62193E+04 -1.23418E+02  1.57689E+04  1.86619E+04  2.47939E+03  1.22702E+04 -6.31827E+03  1.42420E+04
 -1.19643E+04  4.34949E+03 -6.99598E+03 -6.79059E+03  6.07049E+03  2.29627E+03  1.41406E+04  4.36830E+03
  6.50454E+03  6.61395E+03  6.15319E+02  9.26311E+03 -1.09736E+04  8.36892E+03 -1.66779E+04 -4.40039E+03
 -5.45558E+03 -7.42815E+03  2.86462E+03 -1.58536E+04  6.83370E+03 -1.03810E+04  8.38098E+03 -1.41889E+03
 -8.83640E+02  1.28512E+04 -8.95151E+03  9.54888E+03 -9.15786E+03  7.22832E+03 -8.61377E+03 -8.38051E+03
 -1.67135E+03 -1.08479E+04 -1.21757E+03 -1.78173E+04  1.51403E+04 -7.76713E+03  1.13727E+04  3.69017E+03
  7.09373E+03  1.45076E+04  8.58241E+03  1.06116E+04 -1.26781E+04  1.28955E+04 -7.97295E+03 -9.14710E+03
 -1.04334E+04 -1.74583E+04 -5.31071E+03 -1.05292E+04  1.15776E+04 -8.86544E+03  7.70692E+03 -8.04192E+03
  3.27105E+03  2.84115E+01 -5.76956E+02  2.71588E+03 -2.64697E+03 -3.37516E+03  1.35669E+03 -9.32510E+03
  1.05669E+04 -3.16753E+03  1.32122E+04  5.38967E+03  1.71820E+04  2.92648E+03  1.53973E+04  2.11167E+04
 -1.15491E+04  2.41819E+04 -1.52658E+04  2.18875E+04 -2.51687E+04  2.07704E+03 -2.19164E+04 -1.03593E+04
 -8.87654E+03 -1.32494E+04  7.86302E+03 -1.43279E+04  2.35275E+03 -8.29691E+03  4.03627E+03 -4.30034E+03
  6.49476E+03 -5.93462E+03 -4.54320E+02  3.03416E+02  1.01159E+04 -2.33958E+03  9.37753E+03 -1.12454E+03
  7.34426E+03  1.88178E+02  4.53204E+03  1.35662E+04  1.33473E+03  9.78137E+03 -1.29057E+04  9.08890E+03
 -1.55656E+04  4.89984E+03 -1.97629E+04 -7.95485E+03 -1.83767E+03 -1.64444E+04  1.21967E+04 -1.36038E+04
  1.91086E+04 -3.60846E+03  2.25641E+04  2.17715E+03  1.04601E+04  1.04770E+04  3.76052E+03  1.27686E+04
 -7.82660E+03  1.55503E+04 -1.00023E+04  2.62547E+03 -1.17706E+04 -1.13018E+03 -1.84463E+02  1.88398E+03
  5.04172E+02 -3.62284E+01 -7.31325E+03  3.44976E+03 -7.02471E+03 -4.79361E+02 -1.20659E+04 -2.12442E+03
 -3.80436E+03 -1.38340E+04 -8.63926E+02 -1.49428E+04  1.51098E+04 -1.55254E+04  1.41718E+04  2.19780E+03
  1.55067E+04  8.72079E+03  7.26901E+03  1.22913E+04 -7.01624E+02  2.00838E+04 -6.80585E+03  1.13779E+04
 -1.35843E+04  2.30803E+03 -8.39068E+03 -8.87427E+03 -1.36630E+03 -1.27743E+04  1.78760E+03 -1.02999E+04
  9.36449E+03 -4.77863E+02  1.21781E+04  2.09151E+03  5.17246E+03  8.40864E+03 -4.82163E+03 -2.38397E+03
 -2.95401E+03 -2.60372E+03  3.18710E+03 -1.90762E+03  2.00552E+03  7.47724E+03  1.08401E+04  6.94951E+03
  2.78440E+03  9.36775E+03 -8.90479E+03  1.06287E+04 -1.72416E+04  3.31414E+03 -1.11630E+04 -3.21604E+03
 -2.23343E+03 -1.47086E+04  2.33806E+03 -1.21886E+04 -1.13031E+01 -1.51878E+04  9.68557E+03 -1.03099E+04
  6.89713E+03  3.59951E+03  5.37488E+03  5.31585E+03 -1.76937E+03  1.11624E+04 -5.41476E+03  1.69979E+03
 -5.95800E+03 -8.76432E+03  5.63220E+02 -4.36263E+03  1.22270E+03  2.87502E+03  5.02274E+03  6.22688E+03
  4.58795E+03  3.57864E+03 -3.02794E+03 -4.62473E+02  1.17787E+03 -8.91268E+02  3.58994E+03 -4.75860E+03
  1.38743E+03  1.38543E+02  4.00522E+03  4.64148E+02  8.68694E+02  7.46451E+03 -3.22409E+03  6.04607E+03
 -8.91856E+03  8.71976E+03 -9.29975E+03  4.97772E+03 -1.36922E+04 -5.67670E+02 -2.02867E+03 -3.34228E+03
  1.79890E+02 -8.93216E+03  6.09971E+03 -6.85491E+03  9.34168E+03 -8.54470E+02 -3.25609E+03  1.26271E+03
 -5.66582E+03  5.05737E+03 -1.18901E+04 -4.18389E+03 -1.15984E+04 -4.63673E+03  1.76275E+03 -8.96857E+03
  5.67914E+03 -3.79492E+03  4.31741E+03 -3.93400E+03  5.07747E+03  3.24797E+02  4.28395E+03  3.22905E+03
 -4.15922E+03  2.24803E+03 -4.84708E+03 -7.10417E+03  6.17003E+02 -4.81186E+02  3.40646E+03 -6.86920E+03
  1.02470E+04 -2.96374E+03  8.32356E+03  1.40132E+03  1.32068E+02  9.56668E+03 -8.34723E+03  5.87044E+03
 -8.30440E+03 -1.43131E+03 -1.00202E+04  7.79393E+02 -1.07810E+04 -2.18425E+03  2.31283E+03 -3.98964E+03
  5.19170E+03 -1.46787E+03  5.56791E+03 -4.68061E+02  3.20514E+03  6.23448E+03 -1.89366E+03  4.90271E+03
 -1.03246E+04  7.03558E+02 -3.74238E+03 -5.07152E+03 -5.64128E+03 -5.12116E+03 -2.62003E+03  8.43875E+03
 -9.22454E+03  6.32954E+03 -9.79072E+03  9.37340E+02 -5.79357E+03 -3.42351E+03 -8.41262E+03 -6.97211E+02
 -5.71916E+03 -1.16855E+04  4.01247E+03 -1.26728E+04  1.60571E+04 -2.49172E+03  1.24921E+04 -2.94586E+03
  1.30992E+04  7.04675E+03  8.00265E+03  7.40611E+03  4.06314E+03  1.26901E+04 -3.98350E+03  9.10955E+03
 -8.30269E+03  7.57977E+02  4.03876E+03  1.72062E+03 -5.44275E+02 -3.60113E+03  3.16999E+03  2.07037E+03
 -1.81257E+03  4.79200E+03 -2.21861E+03 -2.26655E+03  1.28152E+03 -6.48904E+03  5.13327E+03 -5.80623E+03
  6.43876E+03 -9.64728E+02  7.89009E+03  3.48932E+03  9.95965E+03  5.41311E+03  3.40104E+03  1.14437E+04
 -3.11009E+03  8.77965E+03 -4.93920E+03  1.25416E+04 -6.23987E+03  1.19679E+03 -1.30387E+04 -6.84809E+03
 -7.27768E+03 -1.37643E+04  6.35877E+03 -4.26753E+03  5.14854E+03 -1.82006E+03  1.26522E+04  2.04272E+03
  1.23702E+03  4.06304E+03 -5.06486E+03 -6.21520E+03 -2.61698E+03 -3.30496E+02 -6.35334E+03 -2.86293E+03
  3.36077E+03 -6.26248E+02  1.36024E+03  2.46362E+03  4.84625E+03  7.93997E+03  4.07274E+03  5.47430E+03
 -7.55410E+03  7.04326E+03 -4.15243E+03 -4.82195E+03 -4.56384E+03  1.84073E+03 -1.13801E+04  1.02161E+02
  9.82406E+03 -1.16674E+04  9.09776E+03  6.18672E+02  5.55079E+03 -1.78856E+03  7.76849E+03  9.15420E+03
 -4.33220E+03  5.20511E+03 -3.90051E+03  3.33075E+03 -4.27751E+03  4.28888E+02 -2.64292E+03  6.48549E+02
 -1.42171E+02  2.17202E+02 -4.33077E+03  2.72511E+03  1.54679E+03  1.75183E+03 -4.32607E+03  5.05418E+03
 -7.19301E+03 -7.52840E+03  1.81186E+03 -1.06378E+04 -1.50322E+03 -5.38030E+03  1.29022E+04 -5.14729E+03
  3.91968E+03 -6.54651E+03  5.02313E+03  8.40764E+03 -1.24972E+03  6.49009E+03 -9.31457E+02  5.34403E+03
