 $NMID ID='MM_0lb_SNR50_11hz_g60_60.RAW', FMTDAT='(8E13.5)'
 TRAMP=1., VOLUME=1. $END
  3.11857E+05  7.47083E+03  3.37166E+05  2.50881E+05  8.42480E+04  3.38569E+05 -1.38794E+05  2.51196E+05
 -1.88465E+05  8.54150E+04 -1.11713E+05 -3.01505E+04 -5.79675E+03 -5.24891E+04  5.14038E+04  2.26863E+03
  4.34723E+04  5.24821E+04 -1.91554E+04  7.36065E+04 -5.70945E+04  6.42248E+04 -8.62042E+04  3.14658E+04
 -8.51302E+04 -9.16987E+03 -5.81438E+04 -4.85134E+04 -1.96139E+04 -6.93027E+04  2.70731E+04 -4.45096E+04
  4.16161E+04  5.40683E+03  2.72017E+04  4.48238E+04 -3.47450E+04  4.76014E+04 -6.69002E+04  6.75239E+03
 -4.82663E+04 -5.32270E+04 -1.08165E+04 -7.62073E+04  3.37677E+04 -6.29232E+04  4.67578E+04 -2.06773E+04
  4.80737E+04  1.02937E+04  2.87844E+04  2.37646E+04  1.37197E+04  2.93562E+04 -6.89551E+03  2.25636E+04
 -2.35729E+04  1.23398E+04 -2.42081E+04 -8.93510E+03  8.08706E+03 -9.20131E+03  2.30294E+04  1.50268E+04
  9.87158E+03  3.48841E+04 -3.04045E+04  4.16879E+04 -6.82562E+04 -1.04657E+03 -5.74304E+04 -4.75624E+04
 -9.89737E+03 -6.53270E+04  4.36777E+04 -4.88581E+04  5.76686E+04 -1.15024E+03  2.93201E+04  3.37249E+04
 -3.71769E+03  4.02226E+04 -2.75598E+04  2.09728E+04 -3.48143E+04 -4.36150E+03 -2.04370E+04 -1.19533E+04
 -1.37534E+04 -1.80598E+04  4.06451E+02 -2.21480E+04  8.10035E+03 -1.81460E+04  2.21851E+04 -1.13709E+04
  1.13678E+04  5.56537E+03 -1.06767E+04  1.80810E+04 -2.36180E+04 -7.76878E+03 -8.46025E+03 -3.68660E+04
  3.00173E+04 -4.30996E+04  5.90712E+04 -1.61919E+04  4.71241E+04  2.49227E+04  1.93374E+04  4.86217E+04
 -9.60914E+03  3.42079E+04 -2.57900E+04  2.61541E+02 -1.14390E+04 -2.98668E+04  1.70832E+04 -3.99118E+04
  4.16362E+04 -1.20676E+04  3.90855E+04  2.45346E+04  2.62783E+04  4.87767E+04 -1.27465E+04  5.04761E+04
 -3.50579E+04  3.87157E+04 -4.91410E+04  8.14840E+03 -5.00655E+04 -2.05791E+04 -3.09031E+04 -3.94538E+04
  6.76744E+03 -4.06586E+04  3.85079E+04 -1.55592E+04  3.53741E+04  1.10793E+04  7.00100E+03  2.14734E+04
 -1.65113E+04  1.16178E+04 -8.20795E+03 -1.09278E+04  5.08963E+03 -1.72873E+04  1.69299E+04  9.09276E+03
  1.91389E+04  2.26530E+04 -5.64668E+03  2.59830E+04 -2.29763E+04  1.51794E+04 -3.34744E+04 -1.42360E+03
 -2.67452E+04 -1.53150E+04 -4.01851E+03 -3.00637E+04  5.36235E+03 -2.52517E+04  1.99144E+04 -2.33085E+04
  3.17697E+04 -7.40799E+03  3.85048E+04  1.25871E+03  2.70814E+04  2.71197E+04  1.15530E+03  3.83612E+04
 -1.44385E+04  3.38471E+04 -2.42564E+04  1.38640E+04 -2.20790E+04 -1.47242E+04 -1.22873E+03 -1.29026E+04
  6.08072E+03  6.33469E+02 -1.10227E+04  1.24068E+04 -1.90764E+04  6.40270E+03 -2.05484E+04 -1.00928E+04
 -1.34023E+04 -1.79637E+04  1.02263E+03 -2.68870E+04  1.70175E+04 -1.21622E+04  2.04730E+04 -6.72774E+03
  8.15186E+03  1.75200E+04  1.49062E+02  1.95345E+04 -1.47075E+04  1.18733E+04 -1.83265E+04 -4.80976E+03
 -2.32600E+04 -1.99796E+04 -4.42267E+03 -2.36335E+04  1.41993E+04 -2.45444E+04  1.94861E+04 -1.47605E+04
  2.29562E+04  3.34516E+03  1.45644E+04  1.29653E+03  7.90366E+03  3.27907E+03  1.29271E+04 -2.91826E+03
  2.34049E+04  3.29177E+03  2.96019E+04  1.79192E+04  1.69772E+04  3.24352E+04 -2.38958E+03  4.00895E+04
 -1.71931E+04  3.85954E+04 -3.97114E+04  1.52103E+04 -4.20757E+04  1.57834E+03 -3.88864E+04 -2.83671E+04
 -1.37056E+04 -3.82680E+04  1.42237E+04 -3.40125E+04  2.91147E+04 -1.74928E+04  2.82767E+04  3.36375E+03
  1.11027E+04  1.77256E+04 -1.10040E+04  1.50065E+04 -2.05614E+04  3.61499E+03 -1.56796E+04 -1.32254E+04
  3.41950E+03 -1.80802E+04  7.89517E+03 -1.18376E+04  1.36523E+04 -2.42505E+03 -6.01045E+03  6.69970E+03
 -1.01082E+04  4.46417E+03 -1.02478E+04 -1.79706E+04 -7.69419E+02 -1.66226E+04  9.32105E+03 -1.27419E+04
  2.20147E+04 -1.04992E+04  2.09071E+04  2.82210E+03  1.65667E+04  1.81625E+04  1.15889E+04  2.59027E+04
 -9.35776E+03  3.39840E+04 -2.04924E+04  1.76456E+04 -2.03282E+04 -2.33532E+03 -1.56059E+04 -3.03296E+03
 -8.06890E+03 -1.79942E+03 -7.78773E+03  5.79799E+03 -9.22862E+03  5.38075E+03 -5.61980E+03  1.20402E+04
 -6.62132E+03  8.70696E+02 -8.46106E+03 -1.31579E+04 -1.16106E+04 -2.24603E+04  1.02834E+04 -1.48146E+04
  7.22752E+03 -2.64762E+03  7.77558E+03  6.57861E+03  7.72981E+03  1.15125E+04 -1.20521E+03 -2.04369E+03
 -1.04717E+04 -1.35132E+04 -4.12990E+03 -1.40665E+04  9.26102E+03 -1.72706E+04  1.55311E+04 -1.05321E+04
  2.93576E+04 -6.23198E+03  1.51421E+04  1.15157E+04  4.72992E+02  1.92933E+04 -8.58847E+03  1.05993E+04
 -9.60311E+03  2.44631E+03 -4.06075E+03 -6.11678E+03  6.17783E+03 -2.79215E+03  8.26084E+03 -3.01108E+03
  8.59263E+03  7.12418E+03 -5.45776E+03  1.17573E+04 -9.00674E+03  1.11078E+04 -1.45347E+04  6.44254E+03
 -7.80744E+03 -2.52138E+03 -3.56446E+02 -1.12832E+04  1.19472E+04 -1.16928E+04  7.42556E+03 -1.80861E+02
  3.63145E+03  5.56038E+03 -1.86938E+03  5.88765E+03 -7.47335E+03 -4.63684E+03 -1.30982E+04 -1.60222E+03
 -4.55177E+03 -1.68143E+04  5.66786E+03 -1.71841E+04  1.70989E+04 -1.39120E+04  1.23217E+04  4.45922E+03
  7.79576E+03  1.31541E+04 -4.66928E+03  8.67897E+03 -1.51367E+04  1.30438E+04 -1.12161E+04 -2.27900E+03
 -7.39476E+03 -1.20778E+04 -4.78989E+03 -7.89386E+03  3.00181E+02 -1.17905E+04  8.78188E+03 -6.69214E+03
  5.86976E+03  4.84285E+03 -4.46393E+03  5.44850E+03 -3.05831E+03 -1.82810E+03 -2.71477E+03 -1.08112E+04
  5.34250E+03 -5.85593E+03  1.44218E+04  9.85734E+02  1.96221E+04  1.24774E+04  7.93106E+03  1.87075E+04
  3.36169E+03  1.95200E+04 -1.64125E+04  1.55153E+04 -1.92533E+04  9.75014E+03 -2.15110E+04 -1.06786E+04
 -8.99361E+03 -9.38578E+03 -1.28899E+03 -1.04777E+04  4.17929E+03 -1.86165E+03  6.95910E+03 -4.73831E+03
  2.62849E+03 -6.37498E+03  5.86368E+03 -4.80997E+03  7.22562E+03 -1.69641E+03  3.97225E+03 -5.49294E+03
  7.76197E+03  4.00300E+03  7.82070E+03  9.26390E+03 -6.55240E+02  1.00437E+04 -1.00865E+04  9.58579E+03
 -1.41651E+04 -5.59441E+03 -1.01989E+04 -8.93835E+03 -5.75272E+03 -1.54345E+04  9.80565E+03 -1.81763E+04
  1.09107E+04 -8.39799E+03  1.32416E+04  2.99076E+03  9.86931E+03  1.20171E+04  3.56626E+03  1.32249E+04
 -5.82122E+02  1.28891E+04 -7.30086E+03  5.71988E+03 -3.60912E+03  6.72731E+02 -2.95476E+03 -6.09464E+02
 -3.13743E+03  8.54475E+02 -1.41664E+03  1.18833E+03 -1.26668E+04  1.72567E+03 -1.11628E+04 -2.79547E+03
 -2.85528E+03 -1.40902E+04  3.10872E+02 -7.53939E+03  5.94269E+03 -1.32480E+04  1.10918E+04 -5.19097E+03
  1.21732E+04  8.78092E+03  1.09448E+04  5.85178E+03 -8.69519E+02  9.39251E+03 -1.27884E+04  8.14284E+03
 -1.01460E+04 -1.08011E+03 -1.30968E+04 -3.52330E+03  4.59968E+02 -1.40040E+04  6.98296E+03 -9.72092E+02
  9.33169E+03 -3.60111E+03  8.52562E+03  1.15306E+03  4.70793E+02  3.79059E+03  3.95964E+02  2.87287E+03
  2.13511E+02 -1.64295E+03 -6.62335E+01  5.14129E+03  6.58784E+03  8.58534E+03  5.51395E+02  8.76247E+03
 -1.40143E+03  1.00225E+04 -8.35499E+03  7.00937E+03 -1.15201E+04  4.72820E+03 -1.42516E+04 -1.07039E+04
 -3.02839E+03 -7.52297E+03  6.67405E+03 -1.42411E+04  4.68639E+03 -9.98025E+03  6.77235E+03 -8.58790E+03
  5.83881E+03  4.45576E+03  4.33776E+03  6.42703E+03 -5.61791E+03  2.69055E+03 -2.94279E+03  6.12321E+03
 -1.16789E+03 -9.68220E+02  8.30244E+03 -8.43391E+03  2.38176E+03 -1.72553E+03  8.05976E+03  1.09718E+03
  9.06416E+02  7.15983E+03  3.24398E+03  4.06906E+03  5.47499E+03  2.86589E+03  1.44542E+03  4.10489E+02
 -1.26838E+03 -3.09556E+03  7.77314E+03 -1.49096E+03  9.04565E+01  5.03896E+03  3.22252E+03  1.31810E+04
 -8.04769E+03  8.11079E+03 -1.10418E+04  2.61735E+02 -6.20960E+03 -1.95603E+03 -4.39665E+03 -3.85079E+03
  4.81973E+03 -3.49194E+03  3.84243E+03  8.90476E+02 -1.54395E+03 -9.13065E+01 -1.94237E+03  1.01223E+04
 -5.91125E+03  1.62655E+03 -7.70419E+02 -5.09900E+03 -4.62397E+03 -2.14894E+03  8.75068E+02 -7.74846E+03
  4.03312E+03 -1.03193E+04  8.37113E+03 -6.45681E+02  9.39004E+03  4.98873E+03  1.97052E+02  9.17527E+03
  4.62644E+03  4.87145E+03 -1.95075E+02 -3.88760E+03  3.36755E+03 -3.54812E+02  6.24374E+03 -4.70014E+03
  1.10878E+04  3.01390E+02  2.64696E+03  1.46399E+03  4.88068E+03  7.58368E+03 -1.08234E+04  6.77485E+03
 -8.74683E+03 -1.64702E+03 -2.18594E+03 -5.05831E+03  9.30412E+01 -7.30923E+03 -4.35291E+03 -6.90177E+03
  9.11767E+02 -1.42105E+03  1.73255E+03  6.00752E+03 -1.91038E+03  6.96950E+03  2.52601E+03 -8.39523E+03
 -4.42309E+03 -2.14514E+03 -2.59442E+02  6.52230E+03  1.68114E+03  4.75260E+03 -1.63668E+03  2.58801E+03
 -6.19050E+03  5.06695E+03 -8.93803E+03  2.59258E+03 -9.67352E+03  4.15310E+02 -6.40637E+03 -6.83159E+03
 -4.05655E+03 -7.45522E+03  5.97585E+03 -1.46186E+04  9.85735E+03 -1.46055E+04  1.30230E+04 -5.80648E+03
  6.56773E+03 -1.29900E+03  3.90480E+03  6.73824E+03  3.34818E+03  1.00779E+04 -1.79750E+03  1.29407E+02
 -1.00487E+04  4.83938E+02 -4.52085E+03 -1.71727E+03  4.31311E+03 -6.61240E+02  2.36584E+03 -4.34244E+03
 -3.72525E+03 -3.38845E+03 -3.58089E+02 -3.27964E+03 -4.35645E+02 -9.46780E+02  6.19466E+03 -7.15890E+03
  6.92011E+03 -2.20048E+03  3.71780E+03  6.07806E+02  4.56221E+03  4.29512E+03  4.36570E+03  7.65551E+03
 -5.59977E+03  9.90345E+03 -3.37745E+03  8.36573E+03 -5.98109E+03 -2.68117E+03 -1.02512E+04 -6.04484E+03
  1.51384E+03 -7.86317E+03  1.56018E+03 -9.76886E+03  4.48655E+03 -5.69629E+03  1.30339E+03 -6.73682E+03
 -4.44947E+02  2.08752E+03  4.45180E+01  1.39427E+03 -2.33754E+03  5.36699E+03 -1.17390E+03  1.71348E+01
  4.59235E+03  1.42537E+03  4.87761E+03 -1.32638E+03  5.17583E+03  6.98544E+03  1.14799E+03  1.19691E+03
 -2.98955E+03  2.00664E+03 -4.69110E+03  5.71273E+02 -3.11439E+03 -1.50592E+03 -1.17224E+03 -8.92988E+03
  2.34807E+03 -2.93074E+03  1.19309E+04 -3.74008E+03  2.03615E+03  2.91150E+03  1.80056E+03  5.01079E+03
 -4.65238E+03  4.07098E+03 -5.05275E+02  3.66443E+03 -4.15771E+03  1.17802E+03 -6.48263E+03  4.85759E+03
 -4.98709E+03  2.87416E+03 -8.00250E+03  7.51399E+03 -5.76293E+03  3.76014E+03 -5.07267E+03 -4.69375E+03
 -1.37428E+03 -1.20021E+03 -1.78632E+03 -7.22365E+03  1.11198E+03 -8.06893E+03  3.16808E+03 -9.96442E+02
  2.57330E+03 -3.74137E+03  2.50468E+03  3.39679E+03 -5.21573E+03  6.82092E+03 -3.56321E+03  4.16634E+03
