 $NMID ID='MM_0lb_SNR50_16hz_g60_98.RAW', FMTDAT='(8E13.5)'
 TRAMP=1., VOLUME=1. $END
  3.10633E+05  8.48506E+02  3.34355E+05  2.49697E+05  8.41464E+04  3.40240E+05 -1.36793E+05  2.48639E+05
 -1.88262E+05  8.28723E+04 -1.17492E+05 -2.99711E+04 -3.71963E+03 -5.21166E+04  5.70900E+04  1.65625E+02
  3.41761E+04  5.06483E+04 -1.68796E+04  7.52573E+04 -6.12571E+04  6.32050E+04 -8.06453E+04  3.60657E+04
 -8.19543E+04 -1.08233E+04 -5.84365E+04 -5.20835E+04 -1.37487E+04 -7.03289E+04  2.94087E+04 -4.67098E+04
  4.52014E+04  3.89213E+03  1.51622E+04  4.90789E+04 -3.29416E+04  5.07930E+04 -7.03557E+04  4.33814E+03
 -5.39828E+04 -5.97039E+04 -7.74724E+03 -8.03174E+04  3.63573E+04 -5.51458E+04  4.66881E+04 -1.69589E+04
  4.54043E+04  8.86664E+03  2.48995E+04  2.49983E+04  1.60168E+04  3.15124E+04 -5.42560E+03  3.07029E+04
 -2.07104E+04  1.13582E+04 -2.09988E+04 -1.47892E+03  9.53368E+03 -1.35744E+04  2.32975E+04  1.38122E+04
  7.43607E+03  3.23475E+04 -3.47333E+04  3.58536E+04 -6.35411E+04 -7.21007E+02 -5.77914E+04 -4.36171E+04
 -1.28373E+04 -6.22655E+04  4.12850E+04 -4.67872E+04  5.53928E+04  8.49710E+02  3.23867E+04  3.00927E+04
 -5.73842E+03  3.43994E+04 -3.03861E+04  1.39920E+04 -2.97617E+04 -6.30744E+03 -1.51679E+04 -1.16049E+04
 -8.14647E+03 -1.45327E+04 -3.45971E+03 -1.66546E+04  8.00391E+03 -2.76639E+04  1.50630E+04 -1.62449E+04
  1.05374E+04  9.97282E+02 -6.98130E+03  1.14632E+04 -2.59090E+04 -9.49647E+03 -3.50703E+03 -3.41186E+04
  2.07323E+04 -4.06670E+04  4.81104E+04 -2.12400E+04  4.19401E+04  2.18567E+04  1.75130E+04  4.24401E+04
 -1.54854E+04  2.85317E+04 -2.61588E+04  7.28929E+02 -8.58922E+03 -2.78577E+04  1.74316E+04 -2.86964E+04
  3.66528E+04 -6.31293E+03  3.45642E+04  2.43288E+04  1.52235E+04  4.62729E+04 -5.32493E+03  4.42698E+04
 -2.69224E+04  3.47180E+04 -4.07974E+04  8.18138E+03 -4.51337E+04 -1.57371E+04 -2.33637E+04 -3.59202E+04
  7.06740E+03 -3.68480E+04  3.02280E+04 -1.55263E+04  3.18134E+04  9.88086E+03  5.55761E+03  1.62754E+04
 -1.01888E+04  9.72158E+03 -2.95388E+03 -1.06972E+04  6.91637E+03 -1.35348E+04  1.28505E+04  4.18983E+03
  1.18295E+04  2.42331E+04 -5.16506E+03  2.28556E+04 -2.37711E+04  7.50448E+03 -3.23287E+04 -7.40223E+03
 -2.04308E+04 -1.83660E+04 -6.01996E+03 -2.27825E+04  3.95248E+03 -1.85960E+04  1.80468E+04 -1.93446E+04
  2.87869E+04 -1.02338E+04  2.82039E+04  4.96100E+03  2.53789E+04  1.82200E+04  4.61178E+03  3.50881E+04
 -1.83911E+04  2.55789E+04 -2.70733E+04  6.56584E+03 -2.49985E+04 -1.08322E+04 -5.83613E+03 -1.19347E+04
  3.25940E+03  1.69049E+03 -5.68913E+03  8.43619E+03 -1.72114E+04  6.55208E+03 -1.58428E+04 -6.13015E+03
 -8.35120E+03 -1.79991E+04  5.36843E+03 -2.22556E+04  1.49260E+04 -1.84314E+04  1.68080E+04  9.70023E+02
  1.44220E+04  6.87176E+03  2.63633E+03  1.88306E+04 -1.58709E+04  1.91517E+04 -1.52442E+04 -2.12462E+03
 -9.48030E+03 -1.32159E+04 -5.29055E+03 -2.17309E+04  1.56297E+04 -1.41089E+04  1.34416E+04 -1.02846E+04
  1.33886E+04  5.43688E+03  1.49677E+04  5.54716E+03  3.42075E+03  2.46403E+03  6.76469E+03 -5.89547E+03
  1.58971E+04  3.79467E+03  1.88767E+04  1.74181E+04  1.28265E+04  3.08075E+04 -4.46773E+03  3.06578E+04
 -1.69775E+04  2.65412E+04 -2.75328E+04  1.03429E+04 -3.48315E+04 -3.34750E+01 -2.44308E+04 -1.88977E+04
 -1.04651E+04 -2.51449E+04  8.82969E+03 -2.96619E+04  2.31868E+04 -1.33834E+04  2.02026E+04  4.89218E+03
  7.63194E+03  1.33072E+04 -1.03683E+04  1.36952E+04 -2.26761E+04  2.10898E+03 -1.44808E+04 -9.44552E+03
 -1.42183E+03 -1.80756E+04  1.06242E+04 -1.06749E+04  6.14572E+03  2.50802E+03 -3.57982E+02  8.63670E+03
 -9.98225E+02 -3.05116E+03 -5.92949E+03  7.17271E+02  8.72157E+02 -1.38404E+04  5.83770E+03 -1.68254E+04
  1.95558E+04 -7.21889E+03  1.62207E+04  4.58405E+03  1.61901E+04  9.42879E+03  5.80580E+03  1.48788E+04
 -6.52975E+03  2.16090E+04 -1.50024E+04  1.44850E+04 -1.57329E+04  4.74562E+03 -7.63934E+03 -4.25682E+03
 -7.98308E+03 -6.34907E+03 -4.19578E+03  1.15948E+03 -3.81691E+03  6.53545E+03 -8.16251E+03  3.94442E+03
 -7.35223E+03 -8.10640E+02 -1.20724E+04 -1.08529E+04 -3.04478E+03 -1.51378E+04  6.74928E+03 -8.91339E+03
  9.17318E+03 -7.40890E+03  9.10325E+03 -1.59472E+03  2.62044E+03  5.75341E+03 -9.32601E+03 -3.29476E+03
 -6.15627E+03 -5.52235E+03  7.55298E+01 -1.05560E+04  7.31832E+03 -8.06436E+03  1.12236E+04 -5.10131E+03
  1.56279E+04  4.94105E+02  7.86760E+03  6.91969E+03 -7.32013E+02  1.19600E+04 -5.51055E+03  5.10458E+03
 -6.65290E+03  5.12459E+03 -3.71419E+03 -1.60736E+03 -1.92016E+02 -3.18767E+03  5.34931E+03 -1.15215E+03
  6.33621E+03  1.98486E+03 -1.31164E+01  6.36163E+03 -4.56381E+03  1.02992E+04 -1.01530E+04  3.06845E+03
 -7.75357E+03 -8.55987E+03 -1.60116E+03 -7.85442E+03  2.75442E+03 -9.53377E+03  1.02925E+04  2.25467E+03
  1.97695E+03  3.14212E+03 -4.44516E+03  4.55354E+03 -5.02195E+03  1.79388E+03 -1.04989E+04 -6.71893E+03
 -8.42164E+03 -8.35480E+03  1.10057E+03 -9.34112E+03  7.25385E+03 -4.92768E+03  1.21268E+04  2.62093E+03
  5.08862E+03  4.92546E+03  5.57978E+03  1.38355E+04 -5.93549E+03  7.22310E+03 -5.31453E+03  5.11923E+02
 -5.50285E+03 -6.67430E+03  4.86670E+02 -7.51836E+03  3.46587E+03 -3.13184E+03  5.15441E+03 -1.44882E+03
  2.54051E+03  2.21696E+03  1.28972E+03  9.10099E+02 -4.85674E+02  2.27954E+02 -2.76743E+01 -1.91696E+03
  5.48761E+03 -3.40440E+03  6.44710E+03  2.62512E+03  8.86451E+03  3.67250E+03  1.32670E+03  1.18531E+04
 -7.02585E+03  1.24137E+04 -1.21883E+04  1.07282E+04 -1.63931E+04  8.07709E+02 -1.40466E+04 -4.33424E+03
  7.07060E+02 -1.25717E+04 -3.08152E+03 -8.08786E+03  3.77087E+03 -2.40696E+03 -1.44529E+03 -7.63027E+02
  1.42160E+03 -2.09762E+02 -2.34517E+03 -1.14985E+03  1.39797E+03 -2.35274E+02  8.99418E+03  6.31665E+03
  3.13272E+03 -8.09056E+02 -3.15160E+02  9.68586E+02 -5.94179E+03  5.84833E+03 -5.04767E+03  5.84950E+03
 -8.66484E+03  9.02080E+02 -7.37543E+03 -4.04867E+03  1.12647E+03 -8.42792E+03  3.55212E+03 -6.70702E+03
  1.04659E+04 -2.28172E+03  1.21604E+04 -1.25103E+03  8.97424E+03  7.78151E+03 -3.29639E+03  1.06547E+04
 -3.79829E+03  5.15871E+03 -4.42055E+03 -1.68424E+03 -2.48878E+02 -2.23899E+03  2.17042E+03 -4.88750E+02
 -1.82497E+03 -3.62609E+03 -6.11325E+02  2.34485E+03 -3.80790E+03 -6.67753E+02 -4.87269E+03  2.14299E+03
  8.99003E+02 -8.47440E+03 -1.00188E+03 -9.57134E+03  6.65785E+03 -1.00589E+04  4.71625E+02 -4.55333E+03
  7.04741E+03  4.10613E+03 -3.13906E+02  7.24123E+02  3.20853E+03  9.30600E+03 -1.13071E+03  6.88253E+03
 -5.90306E+03  3.31115E+02 -4.63218E+03 -4.00135E+03  6.35980E+03 -1.85834E+03  5.60437E+02 -2.49566E+03
  4.70227E+03  4.29565E+02  2.34863E+03 -2.40825E+03  1.84138E+03  4.24815E+03 -3.60267E+02  2.77811E+03
  3.10489E+03  2.26070E+03 -2.57164E+03  4.12163E+02  3.00456E+03 -1.46646E+03  7.34120E+03 -3.21770E+03
 -5.68589E+03  2.82501E+03 -5.92395E+03  4.08244E+03 -7.57407E+03 -3.85836E+02 -9.09409E+03  2.75118E+03
 -4.47320E+03 -4.04516E+03 -4.26749E+03 -6.35216E+03 -4.61287E+02 -5.00647E+03  7.46548E+03 -2.93796E+03
  3.61433E+03  2.56989E+03  3.73979E+03  4.93172E+03  1.83839E+03 -6.33250E+02 -3.14188E+03  4.88222E+03
 -3.29238E+03  2.53111E+02  2.93331E+03 -5.98002E+03  1.27653E+03 -2.97821E+03  5.91859E+03  3.71612E+03
  5.28869E+03  2.76978E+03  3.84966E+03 -2.64016E+03  6.74601E+02  6.48025E+03  5.44255E+03 -1.21071E+03
  3.09014E+03 -4.06214E+02  2.66095E+03  2.40690E+03  3.15595E+03 -2.04188E+03 -6.23188E+03  4.14602E+03
 -3.40606E+03  4.47952E+03 -4.62750E+03 -3.08800E+03 -5.27814E+03 -8.33547E+01 -1.32559E+02 -1.25583E+03
 -7.10906E+02 -1.82781E+03  9.11164E+02 -4.37272E+03  1.67144E+03  2.37389E+03 -5.54861E+03  1.61274E+03
 -4.47469E+03  1.13707E+03 -4.96348E+03  4.80230E+02 -7.65018E+03 -3.74845E+03 -3.68916E+02 -7.48205E+03
  1.21920E+03 -6.10466E+02  3.80459E+03  2.07513E+03  5.46842E+02 -3.28127E+03 -4.15955E+03  2.72130E+03
 -1.76367E+03  7.71774E+02 -1.72894E+03  3.15448E+03 -1.98057E+03 -3.38129E+03  2.79258E+03  8.57842E+02
  3.55008E+03  6.74055E+02  3.05621E+03  5.42638E+03  2.12385E+03  6.12276E+03 -3.05550E+02  5.67912E+03
 -3.07862E+03 -2.39056E+03  1.66044E+03 -9.48471E+02  3.31084E+02 -6.38976E+02  3.27820E+03  1.35879E+03
  3.46543E+03 -3.46947E+03  2.15921E+03 -9.89109E+02  3.19223E+03  6.20081E+03 -2.03409E+02 -3.82634E+03
 -1.10959E+03  3.36341E+03 -8.00674E+02  2.32375E+02 -3.68968E+03  1.06169E+02  6.13338E+02 -1.15681E+03
 -3.34730E+02 -1.19371E+03  4.15240E+02  2.46474E+02 -3.47098E+03 -2.59066E+03 -2.78960E+03 -3.26762E+03
 -2.59378E+03 -3.77552E+03  3.51627E+03 -3.03553E+03  1.96483E+03 -4.28481E+03  8.45840E+03 -5.06793E+03
  3.86257E+03  1.21857E+03  2.57716E+03  2.58020E+03 -1.16707E+03 -1.81142E+03  4.03100E+03  9.04068E+02
 -3.05518E+03  7.41208E+03 -4.58787E+02 -2.28918E+03 -5.27074E+03 -5.99348E+02 -3.58334E+03  3.47272E+03
 -8.54136E+02  1.21416E+03 -2.43899E+03  5.21116E+02  2.55136E+03  1.05693E+02  2.66584E+03  5.58335E+02
  2.87178E+03 -6.47031E+03  3.29050E+03 -8.70422E+02  2.15235E+03  6.08842E+03 -1.19298E+03  4.30193E+03
 -2.84453E+03  4.20480E+03  1.09714E+03  7.99584E+03 -2.31111E+03  8.68675E+01 -2.24169E+03  5.28843E+03
 -1.19298E+03 -1.34635E+03  1.18766E+03 -1.97666E+03  3.83507E+02 -1.84596E+03  2.63462E+02  9.07212E+02
  9.09652E+02  6.45122E+03 -2.80393E+03 -2.38275E+03 -5.96316E+02  3.62286E+03 -4.47844E+03 -1.20063E+03
  2.55913E+02  2.79933E+03  1.20028E+03 -2.74348E+03  1.29076E+03  2.27916E+02  8.90575E+02  3.74996E+03
 -7.74352E+03  1.08036E+03 -8.14732E+01  6.70477E+02  1.69911E+03 -4.15151E+03  1.10147E+02  3.02488E+03
  3.09239E+02 -3.06908E+03 -1.41980E+03 -3.64875E+03  1.86604E+03  1.57070E+03  2.84883E+03  1.30878E+03
  2.35836E+03  3.66812E+03  2.83637E+03 -7.20959E+02 -5.56997E+02 -8.26567E+02  1.15188E+03  2.52171E+03
 -1.31489E+03 -4.62174E+03  2.24906E+02 -3.85813E+02 -8.01327E+02  4.48466E+03 -2.69338E+03 -5.31856E+02
 -2.99802E+03  7.24125E+02  2.07849E+03 -1.98899E+02  2.41196E+03 -2.44709E+03  6.16931E+02 -1.35226E+03
  6.29877E+03  2.84646E+02  3.27811E+02  6.13279E+03  2.33372E+03  3.12338E+03  8.39668E+02  3.68845E+03
