 $NMID ID='MM_0lb_SNR50_8hz_g55_45.RAW', FMTDAT='(8E13.5)'
 TRAMP=1., VOLUME=1. $END
  3.08614E+05  6.22581E+02  3.38667E+05  2.43176E+05  8.22243E+04  3.43814E+05 -1.40858E+05  2.47562E+05
 -1.95051E+05  7.97909E+04 -1.15257E+05 -4.08555E+04  3.66102E+03 -4.70006E+04  5.41561E+04 -3.27439E+03
  4.11020E+04  5.42952E+04 -1.40708E+04  7.36971E+04 -6.49319E+04  6.81953E+04 -7.99864E+04  3.37558E+04
 -8.18517E+04 -1.39449E+04 -5.82474E+04 -4.36950E+04 -1.54133E+04 -6.65230E+04  2.93943E+04 -4.17239E+04
  4.64673E+04  2.36455E+02  1.93683E+04  4.96500E+04 -3.59856E+04  4.55324E+04 -6.68480E+04  1.76080E+03
 -5.42316E+04 -5.73652E+04 -1.39717E+04 -7.88582E+04  3.30880E+04 -5.57570E+04  4.62225E+04 -1.71851E+04
  4.72431E+04  6.83998E+03  3.54853E+04  3.26401E+04  1.12438E+04  2.84892E+04 -1.69593E+03  2.68541E+04
 -1.71695E+04  1.75614E+04 -1.93598E+04 -7.00588E+03  3.08314E+03 -1.43517E+04  2.59387E+04  1.49629E+04
  6.52098E+03  4.04221E+04 -3.75156E+04  3.91676E+04 -6.79076E+04  4.61245E+03 -5.58188E+04 -3.94194E+04
 -9.94436E+03 -6.47765E+04  4.42723E+04 -4.92956E+04  6.58861E+04 -9.75442E+03  3.68010E+04  4.18584E+04
 -1.94859E+04  4.15445E+04 -3.36620E+04  2.02424E+04 -3.34202E+04 -8.50779E+03 -1.70864E+04 -1.40131E+04
 -7.70695E+03 -1.12102E+04  6.30329E+03 -2.14182E+04  8.39307E+03 -2.74188E+04  1.84603E+04 -1.34478E+04
  9.12601E+03  7.15695E+03 -8.14324E+03  7.09695E+03 -2.39278E+04 -7.77826E+03 -6.99256E+03 -3.64176E+04
  1.92531E+04 -4.56547E+04  5.20196E+04 -2.08947E+04  4.61331E+04  2.20427E+04  1.80142E+04  5.09687E+04
 -1.91924E+04  3.73589E+04 -2.42757E+04  1.03210E+03 -1.37619E+04 -3.66878E+04  1.93011E+04 -3.50785E+04
  4.04229E+04 -7.36141E+03  3.60193E+04  2.71252E+04  1.98948E+04  5.14222E+04 -5.77074E+03  4.98502E+04
 -4.12385E+04  3.67800E+04 -4.48120E+04  6.55692E+03 -4.88738E+04 -2.20168E+04 -2.51711E+04 -4.61003E+04
  1.11183E+04 -3.83134E+04  3.40559E+04 -1.60634E+04  2.90117E+04  1.17624E+04  8.56565E+03  2.33806E+04
 -1.65659E+04  8.47132E+03 -1.55901E+04 -3.23189E+03  7.89759E+03 -1.26820E+04  1.32966E+04  8.82334E+02
  1.15419E+04  2.65877E+04 -1.55457E+02  2.86260E+04 -2.39433E+04  1.97124E+04 -3.44222E+04 -4.31575E+03
 -2.70441E+04 -1.60858E+04 -1.76219E+04 -2.49298E+04  2.35742E+03 -3.39732E+04  2.48907E+04 -2.63931E+04
  2.99025E+04 -1.50628E+04  3.88994E+04 -9.25687E+01  3.09411E+04  1.96047E+04 -4.78707E+03  4.45394E+04
 -2.28368E+04  3.11204E+04 -2.61014E+04  1.35556E+04 -2.32168E+04 -1.43557E+04 -9.96374E+03 -1.08633E+04
  1.18409E+03 -1.08874E+03 -1.39075E+04  6.56856E+03 -1.96440E+04  3.40005E+03 -1.56573E+04 -1.22281E+04
 -1.62782E+04 -2.69432E+04  1.05296E+04 -3.10277E+04  2.01816E+04 -2.38684E+04  2.52837E+04 -7.62874E+03
  2.28075E+04  1.27330E+04  1.15945E+03  2.31280E+04 -1.53624E+04  1.39534E+04 -2.03419E+04 -7.74273E+03
 -1.86415E+04 -2.24264E+04  4.58233E+03 -3.05173E+04  1.26547E+04 -3.17593E+04  2.54373E+04 -2.13521E+04
  1.80565E+04 -2.44646E+03  1.50421E+04  5.38585E+03  7.33501E+03 -5.68936E+03  1.18055E+04 -2.81198E+03
  2.35905E+04  6.29822E+03  3.41103E+04  1.83197E+04  2.73931E+04  4.25539E+04 -3.74271E+03  4.97692E+04
 -2.72596E+04  4.47721E+04 -4.48220E+04  1.83133E+04 -4.75158E+04 -3.26436E+03 -4.11805E+04 -2.95260E+04
 -1.12269E+04 -4.22656E+04  1.59351E+04 -3.67342E+04  2.93416E+04 -2.06542E+04  2.60018E+04  1.13762E+04
  9.49141E+03  1.75246E+04 -1.53087E+04  2.00832E+04 -2.39412E+04  3.79506E+03 -1.02109E+04 -6.16444E+03
  3.22390E+02 -2.07698E+04  8.33007E+03 -2.22333E+04  1.58303E+04 -1.01825E+03  2.02259E+03  8.14277E+03
 -1.35506E+04  1.80143E+03 -1.97906E+04 -4.45524E+03 -4.76837E+03 -2.80410E+04  1.22122E+04 -1.98851E+04
  2.45147E+04 -1.88162E+04  2.76286E+04  2.63299E+03  2.66241E+04  2.43632E+04  1.46919E+04  3.54171E+04
 -9.55657E+03  3.49915E+04 -2.35986E+04  2.01788E+04 -2.14667E+04  4.56545E+03 -2.25945E+04 -7.44903E+03
 -1.08747E+03 -5.93034E+03  1.84322E+03  1.44506E+03  2.20751E+03  1.86203E+03 -8.02351E+03  1.71313E+03
 -1.80862E+04  1.41774E+03 -2.15243E+04 -1.31810E+04  1.43191E+03 -1.40783E+04  3.76235E+03 -1.57252E+04
  1.76648E+04 -2.80177E+03  1.37102E+03  5.56596E+03 -3.25249E+03  4.69846E+03 -1.09323E+04  1.65521E+03
 -5.18132E+03 -1.49770E+04 -4.86741E+02 -1.54979E+04  8.34485E+03 -1.80507E+04  2.71132E+04 -8.18428E+03
  2.43279E+04  6.82256E+03  1.93188E+04  2.16343E+04 -3.06772E+03  1.77004E+04 -1.25975E+04  2.10405E+04
 -1.69303E+04  5.64607E+03  1.43455E+00 -4.70814E+03  6.50832E+03 -2.81393E+03  4.58651E+02 -2.20329E+03
  8.03781E+03  4.64375E+03 -3.17293E+03  2.03140E+04 -4.80766E+03  4.26301E+03 -1.58943E+04  7.98851E+03
 -1.15400E+04 -6.45185E+03 -5.31796E+03 -1.43129E+04  1.41417E+04 -7.08458E+03  1.07083E+04  2.19300E+03
  7.35938E+02  1.70352E+04 -1.13723E+04  1.51648E+04 -1.48493E+04  7.48001E+02 -1.08905E+04 -9.63176E+03
 -1.13363E+04 -1.93779E+04  3.30709E+03 -1.44142E+04  1.75293E+04 -1.42459E+04  1.62946E+04  4.57216E+03
  9.48501E+03  7.41388E+03  3.48197E+03  1.41477E+04 -1.68440E+04  1.36075E+04 -5.45214E+03 -3.71805E+03
 -1.15407E+04 -1.24473E+04 -4.28905E+03 -1.32139E+04  3.62287E+03 -1.32333E+04  1.05523E+04 -2.42489E+03
  2.67473E+03  8.12370E+03 -2.93948E+03  4.11081E+03  1.12273E+03 -1.34373E+04  1.65916E+03 -1.82966E+03
  1.44434E+04 -4.27030E+03  2.11604E+04  5.13492E+03  1.55633E+04  1.16615E+04  1.24237E+04  2.20888E+04
 -1.31650E+03  2.55933E+04 -2.31562E+04  2.58925E+04 -2.88447E+04  4.72798E+03 -2.01922E+04 -1.43400E+04
 -5.95932E+03 -2.35206E+04 -2.87461E+03 -1.92776E+04  2.13662E+03 -8.89787E+03  2.88881E+03 -1.46681E+04
  7.74955E+03 -4.46525E+03  4.27445E+03 -4.32109E+03  5.17893E+03  3.55963E+02  8.00252E+03 -7.14960E+02
  1.11292E+04  1.08991E+03  4.36553E+03  9.25056E+03 -1.05289E+03  1.04257E+04 -1.01285E+04  5.30127E+03
 -2.04562E+04 -7.08579E+02 -1.23068E+04 -9.11669E+03 -5.69922E+02 -1.73347E+04  1.42095E+04 -2.20130E+04
  2.05310E+04 -6.91703E+03  2.59346E+04  9.37318E+02  1.73965E+04  1.45708E+04 -8.67302E+02  1.62118E+04
 -1.24097E+04  1.63646E+04 -1.49011E+04  2.36762E+03 -1.24122E+04 -6.88695E+03  1.20949E+03 -4.62804E+03
 -9.16750E+03 -1.77660E+03  3.11978E+03  5.10133E+03 -9.87145E+02  7.80801E+03 -1.27768E+04 -1.80108E+03
 -7.95333E+03 -8.64284E+03 -1.01523E+02 -1.66929E+04  1.24103E+04 -1.53638E+04  1.08450E+04 -1.06631E+04
  1.25882E+04  1.49064E+04  9.24722E+03  1.48236E+04 -5.20067E+03  2.12025E+04 -1.68717E+04  7.08857E+03
 -1.11797E+04  2.77694E+03 -9.70146E+03 -1.07776E+04  2.84539E+03 -1.62517E+04  9.71286E+03 -1.55227E+04
  1.67661E+04 -1.50274E+03  1.47325E+04  5.02429E+03  7.98714E+03  4.00169E+03 -1.96743E+03  4.97886E+03
  1.39164E+03  6.58232E+02  2.88390E+03  2.28952E+03  1.69013E+03  4.84391E+03 -6.55159E+02  3.79474E+03
 -2.71181E+03  1.69527E+04 -1.30339E+04  1.53284E+04 -1.83663E+04 -4.08536E+02 -2.20363E+04 -1.08706E+04
 -5.40199E+03 -1.99852E+04  1.65256E+03 -1.85715E+04  7.42313E+03 -1.19512E+04  1.26386E+04 -4.29880E+02
  8.08021E+03  9.43996E+03  7.62531E+03  9.46208E+03 -9.73437E+03  9.34577E+03 -1.17405E+03 -2.69413E+03
 -9.21098E+03 -5.44718E+03  3.24788E+03 -7.41576E+03  1.39022E+04 -5.04794E+03  5.31043E+03  1.86005E+02
  7.33351E+03  4.41378E+03  8.17841E+03  1.11422E+03 -3.10313E+03  9.52058E+03  6.15670E+03 -6.04631E+03
  7.44481E+02  7.48220E+02  8.88990E+03  8.27391E+03  3.21234E+03  8.51952E+03  8.39906E+03  1.30568E+04
 -1.39822E+04  1.07168E+04 -6.88045E+03  4.11497E+02 -1.49048E+04 -6.54231E+03 -6.72148E+02 -4.37011E+03
  2.96193E+03 -9.37692E+02 -1.86058E+03 -7.42231E+03  7.24346E+03  2.69564E+03 -8.59408E+03  7.41698E+03
 -4.32632E+02 -3.62297E+02 -2.86718E+00 -5.27853E+03 -9.84929E+03 -1.02022E+04  3.58225E+03 -1.24017E+04
  4.62668E+03 -5.65318E+03  1.37123E+04 -2.93560E+03  7.67539E+03  3.19588E+03  2.54283E+03  3.37951E+03
 -1.23868E+03  8.02297E+03 -8.20154E+03 -4.60200E+03  5.15004E+02 -8.20433E+03  8.19745E+03 -2.62373E+03
  1.58895E+04 -3.14096E+03  1.03603E+04  6.46725E+03  1.06258E+04  1.00036E+04 -6.56654E+03  1.07899E+04
 -1.33426E+04  5.55377E+03 -1.17891E+04 -3.37010E+03 -1.16839E+04 -1.42001E+04 -3.53562E+03 -9.92158E+03
  6.47850E+03 -8.02159E+03  8.19529E+03  2.08203E+03  8.40141E+03  4.63243E+02  6.46893E+03  4.58146E+03
  1.62610E+03  2.23845E+02 -6.74525E+03  6.52465E+03 -7.69352E+03  5.58591E+03 -2.34352E+03  1.89667E+03
 -6.17675E+03  4.19240E+03 -1.05892E+04  8.84374E+03 -6.69801E+03 -1.04471E+03 -1.86497E+04 -1.34290E+04
 -9.68142E+03 -1.58687E+04  5.83142E+02 -1.95848E+04  1.14392E+04 -1.77017E+04  1.25620E+04 -1.01972E+04
  1.51582E+04  8.28364E+03  1.31389E+04  1.44061E+04  6.10283E+03  1.29498E+04 -1.02067E+04  1.16474E+04
 -8.44234E+03 -3.42085E+03 -8.71580E+03  1.02737E+03  1.27862E+02 -2.71748E+03  1.11320E+03  2.29896E+03
 -6.81236E+03 -4.10024E+02 -2.29301E+03 -1.14839E+03 -3.80000E+03 -4.47799E+03  1.23231E+03 -3.66103E+03
  2.68871E+03 -1.81242E+03  7.42953E+03 -1.70042E+01  8.55876E+03  4.26046E+03  7.82989E+03  7.74337E+03
 -1.12402E+04  1.84775E+04 -1.41977E+04  1.18031E+04 -9.91168E+03  8.89337E+02 -9.25255E+03 -1.23069E+04
 -1.18820E+04 -4.15658E+03  1.05705E+04 -8.63219E+03  5.03658E+03 -8.36444E+03  8.96345E+03 -6.59300E+03
  1.59776E+03  5.18638E+02  1.40995E+03  5.45967E+03  6.62951E+02 -1.07765E+04  3.97393E+03 -2.51491E+02
  2.57057E+03 -4.04972E+03  7.54242E+03 -5.44867E+03  6.34835E+03  4.18903E+03 -1.04575E+03  4.04893E+03
 -3.68985E+03  4.02183E+02 -9.14890E+03  6.48986E+03 -1.24681E+04 -1.40820E+04 -5.44095E+03 -4.69658E+03
  9.67224E+03 -1.38511E+04  1.36311E+04 -2.51430E+02  5.94440E+03  1.10435E+04  5.79852E+03  9.39378E+03
 -1.00543E+03  7.79861E+03 -8.44529E+03  9.20539E+03 -4.24577E+03  3.28336E+03 -5.56559E+03  3.60207E+03
 -6.93990E+03  2.52327E+03  2.64349E+02  3.70911E+03 -8.12330E+03  6.17576E+02 -6.29019E+03 -3.67099E+03
 -4.43746E+03 -2.90504E+03 -9.69878E+03 -1.08341E+04  1.54274E+02 -1.40601E+04  9.99381E+03 -7.84125E+03
  6.65161E+03 -4.41682E+03  3.56987E+03  3.55031E+03 -3.79175E+03  4.66356E+02 -9.02550E+03  1.03645E+04
