 $NMID ID='MM_0lb_SNR50_14hz_g60_17.RAW', FMTDAT='(8E13.5)'
 TRAMP=1., VOLUME=1. $END
  3.09557E+05  1.84906E+03  3.35631E+05  2.50801E+05  8.88385E+04  3.37923E+05 -1.32994E+05  2.47921E+05
 -1.88817E+05  8.35519E+04 -1.07249E+05 -3.28432E+04 -2.76433E+03 -5.04656E+04  5.11832E+04  5.70313E+02
  3.58077E+04  5.30965E+04 -1.59688E+04  7.65588E+04 -5.97280E+04  6.14155E+04 -8.52963E+04  2.95677E+04
 -8.19662E+04 -1.25716E+04 -6.12128E+04 -5.31786E+04 -1.83093E+04 -7.18064E+04  2.69260E+04 -4.19200E+04
  4.12809E+04  5.78312E+03  8.66754E+03  4.97496E+04 -3.42614E+04  5.35569E+04 -6.40140E+04  6.54291E+03
 -5.68519E+04 -6.07161E+04 -6.63435E+03 -7.73454E+04  3.45534E+04 -5.48707E+04  4.59409E+04 -2.14878E+04
  4.31777E+04  6.56768E+03  3.49338E+04  2.53219E+04  1.38681E+04  3.04886E+04 -1.81119E+03  2.73486E+04
 -2.33451E+04  1.02542E+04 -1.68840E+04 -2.63650E+03  3.81613E+03 -8.16017E+03  2.02815E+04  1.63868E+04
  1.15506E+04  3.46746E+04 -3.33321E+04  3.96231E+04 -6.53795E+04  8.82278E+03 -5.78661E+04 -4.86457E+04
 -1.28942E+04 -6.11005E+04  4.28258E+04 -4.73159E+04  5.81052E+04 -6.94332E+03  3.49523E+04  3.28472E+04
 -7.75723E+03  3.80285E+04 -2.93171E+04  1.73502E+04 -3.55097E+04 -3.17679E+03 -2.12170E+04 -8.71610E+03
 -6.49370E+03 -1.03221E+04  1.26078E+03 -1.69759E+04  1.24411E+04 -2.39077E+04  2.00701E+04 -1.31363E+04
  1.53205E+04  3.72029E+03 -9.04373E+03  1.41465E+04 -1.76503E+04 -5.23092E+03 -1.13988E+04 -3.21712E+04
  2.84801E+04 -4.16407E+04  5.43581E+04 -1.86625E+04  5.20187E+04  2.34849E+04  1.55785E+04  4.47273E+04
 -1.83244E+04  3.17705E+04 -2.45181E+04  3.23649E+03 -1.06213E+04 -2.70371E+04  2.10577E+04 -3.39849E+04
  4.34286E+04 -8.14137E+03  3.82562E+04  2.29610E+04  2.82190E+04  4.89031E+04 -8.76036E+03  5.44228E+04
 -3.45592E+04  3.39894E+04 -4.42145E+04  6.77557E+03 -4.28141E+04 -1.83034E+04 -2.39120E+04 -3.70569E+04
  8.78446E+03 -4.07016E+04  3.08387E+04 -1.78539E+04  2.66559E+04  1.21071E+04  9.77411E+02  2.00106E+04
 -1.47916E+04  8.16963E+03 -9.98454E+03 -7.77871E+03  3.79761E+03 -4.86564E+03  2.03250E+04  3.64812E+03
  1.34725E+04  2.31402E+04 -4.19666E+03  2.16480E+04 -2.59284E+04  1.22929E+04 -3.39828E+04 -2.51635E+03
 -2.44567E+04 -1.69895E+04 -1.05950E+04 -2.05948E+04  8.26033E+02 -2.13511E+04  1.71280E+04 -2.02585E+04
  2.54645E+04 -1.05711E+04  3.27943E+04  2.43400E+03  2.36749E+04  2.11687E+04  5.25467E+03  3.78652E+04
 -2.05905E+04  3.11476E+04 -3.15833E+04  1.26140E+04 -1.96390E+04 -6.40295E+03 -7.91882E+03 -1.41259E+04
  1.47130E+03 -5.25843E+03 -5.09905E+03  9.36886E+03 -1.77705E+04 -2.99946E+03 -1.70175E+04 -9.03562E+03
 -1.40586E+04 -2.07310E+04 -2.59532E+03 -2.46708E+04  1.63238E+04 -1.97637E+04  1.37955E+04 -1.96756E+03
  8.10943E+03  1.13175E+04 -1.02824E+03  1.76435E+04 -1.30525E+04  1.37051E+04 -2.51803E+04 -6.33520E+03
 -1.46851E+04 -1.59559E+04 -6.83342E+03 -2.62230E+04  1.23530E+04 -2.64888E+04  1.69721E+04 -1.30332E+04
  2.37720E+04 -5.22322E+03  1.23484E+04  2.79319E+03  7.09680E+03 -5.06309E+02  1.11599E+04 -3.32907E+03
  1.61706E+04  2.42677E+03  1.83899E+04  1.68553E+04  1.75651E+04  3.36960E+04 -2.35662E+02  3.86828E+04
 -2.02856E+04  3.06632E+04 -3.01912E+04  1.32791E+04 -3.59149E+04 -3.28859E+03 -2.71783E+04 -1.64576E+04
 -1.34997E+04 -2.82877E+04  1.16219E+04 -2.40757E+04  1.79194E+04 -1.38214E+04  1.74565E+04  4.16873E+03
  7.53738E+03  1.28015E+04 -1.29478E+04  1.69116E+04 -1.59733E+04 -2.74623E+02 -1.52244E+04 -1.58739E+04
  1.28928E+03 -1.53156E+04  8.49587E+03 -1.31863E+04  4.82288E+03 -4.58639E+03 -1.28781E+03  6.25018E+03
 -4.55467E+03  8.23084E+02 -4.49596E+03 -4.48270E+03 -4.04284E+03 -2.02845E+04  1.47603E+04 -1.40945E+04
  2.03184E+04 -3.25136E+03  2.20722E+04  1.75789E+03  1.54597E+04  1.63930E+04  6.72449E+03  2.30029E+04
 -8.16252E+02  1.75403E+04 -1.46280E+04  1.15252E+04 -2.01562E+04  4.90011E+03 -1.42179E+04 -5.57904E+03
 -6.58673E+03  7.11803E+02 -3.02434E+03  3.92281E+03 -1.86096E+03  1.34650E+02 -4.03502E+03  2.08627E+03
 -1.68311E+04 -3.34547E+03 -9.43278E+03 -8.91716E+03 -2.21640E+03 -1.57460E+04 -5.14450E+02 -1.08129E+04
  9.87362E+03 -2.65931E+03  7.94472E+03  9.02226E+03 -5.92919E+02  5.80854E+03 -7.11337E+03 -4.06458E+02
 -9.82917E+03 -9.74630E+03 -9.09499E+02 -1.43396E+04  7.90369E+03 -1.31534E+04  1.42668E+04 -7.26349E+03
  1.75619E+04  4.67288E+03  1.66003E+04  9.68260E+03  3.79675E+03  1.27493E+04 -1.24533E+04  1.38112E+04
 -8.07826E+03  2.48000E+03 -2.93448E+03 -1.18412E+03  2.69285E+03 -4.25777E+02  1.00382E+04  9.59976E+02
  7.16379E+03  2.50007E+03  1.00172E+03  8.81910E+03 -1.11846E+04  8.74345E+03 -1.23801E+04  3.87074E+03
 -1.21760E+04 -9.14563E+03  2.39519E+03 -9.24074E+03  6.82192E+03 -6.42624E+03  9.96394E+03  7.52656E+03
 -2.79041E+03  2.08196E+03 -1.08989E+04  6.65403E+03 -1.22891E+04  8.90018E+02 -8.86022E+03 -1.49592E+03
 -4.59564E+03 -1.40297E+04  3.80749E+03 -8.96847E+03  1.11745E+04 -6.24336E+03  9.67870E+03  1.02039E+03
  5.56745E+03  1.25733E+04 -4.80571E+03  9.58270E+03 -6.72492E+03  4.94371E+03 -7.24921E+03  4.50176E+03
 -9.43555E+03 -8.01400E+03 -6.04902E+03 -4.91344E+03  3.59737E+03 -4.94455E+03  5.99170E+03 -6.93860E+03
  2.54914E+03  2.72799E+03  4.31766E+02  3.75437E+03 -4.57954E+02  2.04615E+03 -8.56604E+00 -7.23560E+03
  9.60456E+03 -5.17323E+02  1.09384E+04  1.51651E+03  1.20897E+04  3.66398E+03  8.67033E+03  1.27894E+04
  2.98794E+03  1.79628E+04 -1.18415E+04  7.87957E+03 -1.89424E+04  6.60018E+03 -1.60297E+04 -9.68938E+03
 -4.69611E+03 -3.98857E+03 -2.25247E+03 -2.78582E+03  3.47975E+03 -5.99071E+03  1.28907E+03 -4.56439E+03
  4.19331E+03 -1.33812E+03  3.19833E+03  3.73110E+03  6.93927E+03 -1.59034E+03  7.11791E+03  3.31797E+03
  1.22400E+03  1.85485E+03  2.00204E+03  2.99883E+03  3.01920E+03  6.45255E+03 -7.03640E+03  3.41818E+03
 -9.64464E+03 -3.47226E+03 -3.03170E+03 -2.92012E+03 -4.92770E+02 -1.14018E+04  7.07459E+03 -7.73649E+03
  4.35127E+03 -5.03262E+03  1.53231E+04  4.52431E+03  4.80336E+03  7.91359E+03  5.32752E+03  1.09693E+04
 -3.43815E+02  1.28678E+04 -7.48810E+03  1.74064E+02 -3.28996E+03  8.13950E+02  1.58997E+03  4.35193E+03
 -9.55913E+01  2.44531E+02 -2.23648E+03  7.30157E+03 -2.07439E+03  7.95599E+02 -9.01016E+03  3.52503E+03
 -4.18994E+03 -9.83633E+03 -1.57992E+03 -7.37914E+03  7.35413E+03 -9.64310E+03  3.82800E+03 -2.40785E+03
  8.67587E+03  1.13367E+03  2.87225E+03  1.03885E+04 -9.23611E+03  1.22195E+04 -8.00794E+03  6.66239E+03
 -5.04034E+03  4.47565E+03 -6.99039E+03  6.97027E+02  2.42899E+03 -2.80823E+03  5.82869E+03 -9.87728E+03
  5.42948E+03  5.25432E+02  3.13469E+03  1.26918E+01  4.49011E+03  5.18877E+03  1.98348E+03 -3.46508E+03
  5.91862E+03 -3.22456E+03  6.82918E+02  3.06067E+03  7.12248E+03  3.34325E+03  1.22964E+03  6.78316E+03
 -2.54794E+03  3.94381E+03 -7.33872E+03  9.01150E+03 -4.45486E+03 -7.25876E+02 -7.48816E+03  2.49535E+02
 -4.86184E+03 -8.69511E+03  5.00749E+02 -1.05294E+04  3.10169E+03 -8.78693E+03  8.04955E+03 -3.79357E+03
  6.55059E+03  4.38633E+03 -2.27538E+03  2.88860E+03  4.70724E+02  2.86402E+03 -4.38140E+03  2.72414E+01
 -5.73247E+02 -4.73488E+03  3.23600E+03  2.01744E+03  2.22445E+03 -6.64505E+03 -2.37988E+03 -3.33133E+03
  3.06978E+03  4.80395E+03 -6.35584E+03 -1.44986E+03 -1.77967E+03 -3.88533E+03 -7.38940E+02  2.57136E+03
 -6.40517E+02  2.45488E+02  5.97004E+03  2.05044E+03 -1.05542E+03  4.84037E+03  4.58721E+02  2.11264E+03
 -3.00059E+03  3.36083E+03 -3.03511E+03  1.60893E+03 -2.57201E+03 -3.86588E+03  1.47421E+03 -1.75309E+03
  7.56872E+02  9.12931E+02 -4.25660E+02 -1.38907E+03  4.69114E+03  7.00850E+02 -3.21075E+03  2.41044E+03
 -6.68951E+03 -1.22112E+03 -6.40098E+03 -4.16759E+03 -2.06290E+03 -8.54018E+03  2.75556E+03 -6.24788E+03
  4.42858E+03 -2.95858E+03  1.94131E+03  1.49398E+02 -2.01892E+03 -2.33089E+03  4.04776E+03  4.56450E+03
 -7.31840E+02  3.37035E+03  4.77017E+03 -3.61940E+03  1.89769E+03 -6.43971E+03  6.06454E+03 -6.04316E+03
  3.39106E+02  2.99142E+03  3.28568E+03 -6.26992E+02 -3.28258E+03  6.98641E+03 -5.60465E+03  5.77913E+03
 -8.13878E+03 -2.56620E+03 -5.52765E+03 -2.46383E+03  2.53561E+03 -5.05294E+03 -8.28492E+02 -1.92454E+03
  5.46359E+03 -4.15222E+03  1.02396E+03 -3.47423E+03  1.94358E+03  1.68908E+03 -5.45934E+02  2.22127E+03
  3.25164E+02  4.86616E+03 -3.32412E+03  2.71560E+03 -2.74164E+02  9.26209E+02 -1.06432E+03  1.84677E+03
 -3.18151E+03  2.80668E+03 -2.52268E+03 -1.28767E+03 -6.26349E+02 -1.83101E+03 -5.60824E+03 -4.92409E+03
  4.25047E+03 -5.71653E+03 -4.57180E+03 -6.46863E+03  5.85945E+03 -5.43219E+03  3.14140E+03 -2.64464E+03
  4.10617E+03  4.34174E+03  1.46193E+03  5.48589E+03  5.56967E+03  3.39295E+03  6.25764E+02  2.61755E+03
 -4.22316E+03 -1.28315E+03 -6.91554E+03  4.61466E+03  8.89309E+02 -3.69889E+01  1.03786E+02 -3.14954E+03
  2.38271E+03 -1.30956E+01 -1.50792E+03 -4.91724E+02 -7.59805E+02 -2.98967E+03  9.58345E+02  9.99996E+02
  8.67747E+02  1.70069E+03  1.93358E+02 -2.01233E+02  3.13453E+03 -2.08713E+03  2.28988E+03  5.66409E+03
 -5.03605E+03  2.49157E+03 -6.41384E+03  2.03480E+03 -7.16524E+03  1.34146E+03 -4.83759E+03 -1.34006E+03
  1.06239E+03 -4.46632E+03 -3.18160E+03 -4.55108E+03  3.36150E+03  1.16303E+03  2.36250E+03  1.84464E+03
 -1.30430E+03 -2.07608E+03 -5.18352E+03  2.72645E+03 -1.90461E+03  3.76030E+03  1.15620E+03  5.20307E+02
 -9.53296E+02 -1.53927E+03 -2.49577E+03  9.02673E+02 -2.84567E+03  2.67652E+03  8.79372E+03  8.43634E+02
 -2.81118E+03  2.17748E+02 -6.64293E+03 -2.05317E+03 -2.41610E+03 -6.26145E+02  1.85837E+03 -5.07845E+03
 -4.17806E+03  2.51103E+03  4.97034E+03  1.60152E+03  2.62866E+03 -4.18053E+03  4.43507E+03  3.31376E+03
 -2.38703E+03  9.72434E+03  1.94111E+02  3.08089E+03  2.73124E+03  8.50199E+01  2.28406E+03 -1.80710E+01
  1.03736E+03  2.59032E+03  4.33077E+03  1.73924E+03  1.47332E+03 -4.71092E+02 -1.60403E+03  6.35915E+03
  1.21859E+03  9.75979E+02 -1.61222E+03 -1.89862E+03  3.88877E+03 -8.58139E+02  2.85867E+02  4.11135E+03
  1.11786E+03  2.45666E+03 -1.61244E+03  3.61352E+03  3.05748E+03  3.27233E+03 -4.35793E+03  5.37564E+03
