 $NMID ID='MM_0lb_SNR50_7hz_g50_44.RAW', FMTDAT='(8E13.5)'
 TRAMP=1., VOLUME=1. $END
  3.07763E+05  1.08574E+03  3.38522E+05  2.45992E+05  8.50590E+04  3.36675E+05 -1.29704E+05  2.53298E+05
 -1.90124E+05  8.35010E+04 -1.21322E+05 -3.46953E+04 -4.34065E+03 -4.64882E+04  5.90059E+04 -1.00332E+04
  3.48527E+04  5.27319E+04 -1.96513E+04  7.74096E+04 -6.46055E+04  6.14089E+04 -8.68232E+04  3.06308E+04
 -8.73583E+04 -1.37818E+04 -5.80252E+04 -5.28461E+04 -1.63545E+04 -7.16768E+04  2.49811E+04 -4.76757E+04
  3.74385E+04  7.13612E+03  1.82186E+04  5.19931E+04 -3.69100E+04  4.94480E+04 -6.34932E+04 -2.19272E+03
 -6.44347E+04 -5.67133E+04  1.87652E+03 -7.67825E+04  3.48507E+04 -5.85203E+04  4.79517E+04 -1.54505E+04
  5.58031E+04  5.47202E+03  2.83465E+04  2.41268E+04  1.34567E+04  3.06898E+04 -2.79651E+03  2.72289E+04
 -2.28687E+04  1.64969E+04 -1.86338E+04 -6.62113E+03  1.08223E+04 -6.05943E+03  1.61588E+04  1.24865E+04
  8.40220E+03  4.18771E+04 -3.72585E+04  3.82996E+04 -6.15886E+04  2.65955E+03 -5.93120E+04 -4.12158E+04
 -1.01396E+04 -6.23693E+04  4.00871E+04 -4.29928E+04  5.72859E+04  3.30288E+03  3.62562E+04  3.72525E+04
 -3.45105E+03  4.05682E+04 -3.46978E+04  1.85248E+04 -3.47757E+04 -6.31575E+03 -2.50356E+04 -2.03589E+04
 -1.56388E+04 -1.96834E+04  7.85861E+02 -2.04996E+04  4.08505E+03 -2.55255E+04  1.59112E+04 -1.19786E+04
  6.09972E+03  4.75043E+03 -1.40628E+04  1.45496E+04 -2.84451E+04 -3.62147E+03 -7.49041E+03 -3.45722E+04
  3.06184E+04 -5.26094E+04  4.95482E+04 -1.84919E+04  5.06027E+04  1.85785E+04  1.39946E+04  4.41131E+04
 -2.14482E+04  3.95519E+04 -2.48323E+04  1.67210E+02 -1.06339E+04 -2.82774E+04  2.11632E+04 -3.57204E+04
  4.61548E+04 -9.53109E+03  3.81223E+04  2.77583E+04  1.93136E+04  5.38737E+04 -1.06550E+04  5.64427E+04
 -3.71878E+04  4.72815E+04 -5.40292E+04  1.23184E+04 -5.19858E+04 -1.96830E+04 -2.70157E+04 -5.00089E+04
  5.30783E+03 -4.16403E+04  3.40205E+04 -2.14405E+04  3.38445E+04  9.51265E+03  8.72354E+03  2.23587E+04
 -1.11874E+04  9.24544E+03 -8.98336E+03 -1.57470E+04  5.75454E+03 -8.75032E+03  1.12515E+04  1.10901E+04
  1.25950E+04  2.30761E+04 -1.29177E+03  2.44795E+04 -2.45531E+04  1.49608E+04 -3.12768E+04 -8.03028E+03
 -2.56774E+04 -2.27681E+04 -1.35518E+04 -2.55253E+04  2.62273E+03 -3.44401E+04  2.37528E+04 -2.76267E+04
  2.76466E+04 -1.47106E+04  4.12501E+04  7.96268E+03  3.23720E+04  3.46442E+04  2.16407E+03  3.44304E+04
 -2.62502E+04  3.60275E+04 -1.87907E+04  1.39833E+04 -2.05209E+04 -9.62548E+03 -8.24288E+03 -6.00151E+03
 -9.13775E+03  1.49227E+03 -4.87014E+03  8.74482E+03 -2.73233E+04 -1.89437E+03 -1.75598E+04 -1.91459E+04
 -1.17145E+04 -2.40398E+04  9.81817E+03 -2.61053E+04  2.19293E+04 -2.06415E+04  1.97908E+04 -4.48504E+03
  2.00923E+04  1.97726E+04 -3.57712E+03  2.24965E+04 -2.21551E+04  2.04269E+04 -1.79112E+04 -6.86198E+03
 -2.05176E+04 -2.81631E+04 -8.02141E+03 -2.46253E+04  1.42751E+04 -2.96307E+04  1.73364E+04 -1.98114E+04
  2.34133E+04 -2.63349E+03  1.64487E+04  1.64457E+04  1.38070E+04  5.63485E+03  1.89330E+04 -3.55691E+03
  3.32495E+04 -2.31154E+02  2.91290E+04  1.55879E+04  1.35132E+04  4.43094E+04 -4.12277E+03  4.77768E+04
 -3.05857E+04  4.65779E+04 -4.41220E+04  2.05463E+04 -4.42191E+04  6.17760E+03 -4.10458E+04 -2.48698E+04
 -1.60618E+04 -4.25090E+04  1.17666E+04 -3.41906E+04  2.78650E+04 -1.84164E+04  1.94830E+04  6.59283E+03
  8.84390E+03  1.60383E+04 -7.86659E+03  1.14241E+04 -1.87300E+04  5.45404E+03 -1.94169E+04 -1.05560E+04
  1.30968E+03 -2.41530E+04  1.14202E+04 -6.79860E+03  1.80496E+04 -2.77691E+03  6.12398E+03  1.16660E+04
 -1.05839E+04  4.22962E+03 -1.33920E+04 -7.08272E+03 -4.67569E+03 -1.82124E+04  1.43178E+04 -1.87484E+04
  2.23762E+04 -9.51799E+03  2.41359E+04  2.50086E+03  2.77152E+04  1.25260E+04  1.78389E+04  3.53217E+04
 -7.60843E+03  4.16346E+04 -2.34712E+04  2.94281E+04 -2.44142E+04  7.00351E+03 -1.91462E+04 -1.10682E+04
  2.49855E+03 -1.41008E+03  6.09912E+03 -4.82025E+03 -5.98284E+03 -3.81162E+03 -8.86568E+03 -6.02055E+02
 -2.21519E+04  1.66648E+03 -1.45776E+04 -1.25493E+04 -7.37645E+03 -3.31682E+04  7.05268E+03 -2.01311E+04
  1.81012E+04 -5.89820E+03  6.23970E+03 -1.03294E+03 -3.61383E+03  8.83571E+03 -1.00127E+04  4.22906E+03
 -9.77402E+03 -1.20651E+04 -2.76790E+03 -2.43533E+04  7.41064E+03 -2.42521E+04  2.22226E+04 -1.14544E+04
  2.79292E+04  1.18134E+04  2.08856E+04  1.93298E+04  2.74682E+03  2.48151E+04 -1.16507E+04  1.78120E+04
 -1.61019E+04  6.74598E+03 -9.69895E+03  2.34393E+03 -1.13598E+03 -5.50573E+03  1.03079E+04 -9.93738E+03
  6.62094E+03  9.73979E+03  4.82017E+03  1.49850E+04 -1.02035E+04  1.35447E+04 -2.17960E+04 -1.50414E+03
 -1.35571E+04 -2.32192E+03 -2.47906E+03 -8.70594E+03  9.29129E+03  1.65582E+03  1.87010E+04 -3.38152E+03
  6.37128E+03  8.94180E+03 -2.88243E+03  1.49515E+04 -1.83218E+04  8.07022E+02 -2.15835E+04 -5.81626E+02
 -9.43505E+03 -1.47102E+04  9.36924E+03 -2.22353E+04  1.92084E+04 -4.86673E+03  2.01026E+04  1.81007E+03
  4.73409E+03  1.64545E+04 -6.48756E+03  2.33086E+04 -1.11050E+04  1.15624E+04 -1.63072E+04  8.53506E+03
 -1.48139E+04 -1.22682E+04 -3.54382E+03 -9.92974E+03  1.15849E+04 -1.15314E+04  4.48656E+03  2.77981E+02
  4.46765E+03 -8.46645E+01  1.16866E+02  3.75182E+03 -7.17191E+03 -5.41282E+02  4.73227E+03 -4.37918E+03
  1.67698E+04 -1.50359E+04  1.46377E+04 -1.29535E+03  1.68965E+04  1.74898E+04  1.50508E+04  2.57599E+04
 -9.98983E+03  3.33708E+04 -1.99283E+04  2.59601E+04 -2.78844E+04  1.84457E+03 -2.42869E+04 -8.43929E+03
 -1.21802E+04 -2.14722E+04 -5.30448E+03 -2.37629E+04  5.36092E+03 -8.66289E+03  1.23927E+04 -8.87604E+03
  4.24971E+03 -2.44597E+03  6.14565E+03 -9.00479E+03  8.89073E+03 -3.71154E+03  4.39512E+03 -3.18255E+03
  1.28925E+04 -1.38417E+03  5.19515E+03  1.21614E+04 -3.71769E+03  1.47711E+04 -1.48219E+04  2.66777E+03
 -1.76915E+04 -4.90952E+03 -5.38504E+03 -8.04668E+03  2.12799E+03 -1.98014E+04  1.40824E+04 -1.40447E+04
  2.27108E+04 -9.05145E+03  3.00676E+04  1.10398E+04  1.67860E+04  1.14937E+04  7.91947E+03  2.30505E+04
 -1.31027E+04  1.42011E+04 -1.22270E+04  4.49303E+03 -9.78018E+03  6.68241E+02  1.82319E+02 -5.82451E+03
  2.38435E+03  3.31049E+02 -4.18134E+03  7.70111E+03 -8.60572E+03  4.81444E+03 -1.60272E+04 -1.04269E+04
 -5.19648E+03 -1.35737E+04  2.11732E+01 -1.39324E+04  7.44570E+03 -1.14795E+04  2.12465E+04 -1.96466E+03
  1.58589E+04  4.46447E+03  7.89266E+03  1.72412E+04  4.80074E+02  2.63442E+04 -1.92761E+04  7.40758E+03
 -1.59421E+04 -2.39425E+03 -7.92184E+03 -1.85960E+04  9.58858E+03 -1.02902E+04  1.67507E+04 -2.10141E+04
  7.71066E+03  1.86446E+03  6.82531E+03  1.29615E+03  4.08112E+03 -4.12411E+02 -5.19712E+03  3.22904E+03
  5.55975E+03  3.85594E+03  4.70752E+03  4.48705E+03  7.93693E+03  6.08466E+03  2.12301E+03  1.50239E+04
 -8.67782E+03  1.51751E+04 -1.48375E+04  1.08369E+04 -2.32530E+04  1.24645E+04 -2.06428E+04 -5.37484E+03
 -1.50701E+04 -2.43856E+04  2.56876E+03 -1.56991E+04  1.59029E+04 -1.55012E+04  2.14257E+04  1.87438E+03
  7.61477E+03 -9.45192E+02  1.59706E+03  6.88423E+03 -9.56125E+03  1.15686E+04 -6.44285E+03  2.67386E+02
  2.81993E+03 -1.25912E+04  8.29413E+03 -5.33320E+03  4.31739E+03 -5.70226E+03  6.27883E+03  3.48924E+03
  6.67841E+03  6.17967E+03 -2.13699E+03  4.96874E+03 -2.91092E+03  4.37112E+03  5.05745E+03  1.18270E+03
 -1.13749E+03  4.77073E+03  8.29209E+03  4.66322E+03  5.01555E+03  8.99261E+03 -2.86872E+03  3.37160E+03
 -4.14166E+03  1.12888E+04 -1.39291E+04  1.45568E+03 -7.39486E+03 -7.21754E+03  2.58070E+03 -1.11687E+04
  7.84887E+03 -1.28748E+03  4.60456E+02  2.04026E+03  3.80198E+02 -7.20599E+02  4.61238E+03  3.12994E+03
 -9.01666E+03  6.37285E+02 -1.36838E+04 -1.00191E+04 -1.21599E+04 -1.23398E+04 -5.15947E+02 -1.56534E+04
  3.52903E+03 -8.71845E+03  7.68964E+03  2.46569E+03  1.23606E+04  5.21476E+03  8.71100E+03  5.39905E+03
 -6.66519E+03  4.32024E+02  2.08827E+03 -3.67996E+03  6.11857E+02 -1.29703E+04  1.18121E+04 -5.51683E+03
  1.74401E+04 -3.88034E+03  8.26709E+03  3.77004E+03  2.40415E+03  1.44919E+04  3.06799E+03  1.05970E+04
 -7.22396E+03  4.88912E+03 -1.35782E+04  1.55319E+02  2.16452E+03 -1.27242E+04 -1.42910E+03 -4.13832E+03
  6.58399E+03  2.52770E+03  2.43288E+03  8.20927E+03  5.14424E+03  8.95011E+03 -3.76604E+03  8.87614E+03
 -4.14591E+03  6.95404E+03  3.89021E+03 -1.43483E+03 -1.05665E+03  5.88739E+03 -1.63285E+03  5.84414E+03
 -7.43347E+03  9.11263E+02 -8.08063E+03  2.66322E+03 -2.11619E+04 -5.17306E+03 -2.00350E+04 -8.88586E+03
 -1.09244E+04 -1.54410E+04  3.93275E+03 -2.15549E+04  1.93557E+04 -1.32855E+04  2.46532E+04 -2.21161E+03
  2.05227E+04 -2.45893E+02  1.49345E+04  1.16740E+04 -1.52860E+03  1.46016E+04 -1.13843E+04  3.08959E+03
 -1.47798E+04  1.46979E+02 -1.07051E+04 -7.12049E+03 -1.03127E+03  1.89305E+03 -5.53319E+03 -2.58192E+03
 -1.37401E+03 -6.58979E+03 -8.73156E+03  9.85480E+03 -7.52532E+03  2.21648E+03  3.98713E+03 -4.28789E+03
  1.78258E+04 -9.68229E+02  4.27402E+03  1.22651E+04  1.12077E+04  1.37109E+04  5.82983E+03  1.19149E+04
 -1.28192E+04  1.79544E+04 -1.73428E+04  1.35618E+04 -1.56216E+04 -5.58056E+03 -1.18415E+04 -1.13860E+04
 -2.02926E+03 -2.06285E+04  8.31026E+02 -6.54128E+03  7.64313E+03 -1.74250E+04  1.60469E+04  1.02106E+03
  6.58345E+03  8.42334E+03  4.82219E+03  7.86431E+03 -5.19476E+03 -2.23213E+02  4.26047E+03 -4.68684E+03
  3.45826E+03 -3.90564E+03  4.58593E+03 -8.16659E+03  2.06038E+03  3.69347E+03  2.81363E+03  5.85121E+03
 -9.46217E+03  1.01553E+04 -1.28868E+04 -2.26646E+03 -1.04374E+04  3.31511E+03 -5.97314E+03 -1.02756E+04
  1.47175E+03 -1.72308E+04  9.22473E+03 -7.92867E+03  9.57984E+03  4.89146E+02  2.01868E+03  8.00929E+03
  4.02916E+03  6.55924E+03 -6.09352E+03  7.57002E+03 -4.04550E+03 -1.29442E+03 -2.06103E+03 -8.12608E+03
 -6.31993E+03 -1.28911E+03 -3.03902E+03  1.42890E+03 -5.93609E+02 -1.41707E+03 -1.24455E+04 -4.34135E+03
 -3.42288E+03 -1.33196E+04 -1.83904E+03 -5.07242E+03  5.52864E+03 -1.23411E+04  5.68107E+03 -8.45645E+03
  1.02979E+04 -4.62817E+03  5.07467E+03  7.32844E+03 -4.12125E+03  8.85239E+03 -2.87592E+03  9.06106E+03
