 $NMID ID='MM_0lb_SNR50_10hz_g60_4.RAW', FMTDAT='(8E13.5)'
 TRAMP=1., VOLUME=1. $END
  3.10439E+05 -5.37211E+03  3.33870E+05  2.45149E+05  8.12675E+04  3.38781E+05 -1.44482E+05  2.51934E+05
 -1.83690E+05  8.39550E+04 -1.12768E+05 -2.89654E+04  8.89989E+01 -5.16538E+04  5.00784E+04  4.53394E+03
  3.67844E+04  5.69860E+04 -1.37858E+04  7.53870E+04 -5.81300E+04  6.26039E+04 -8.81274E+04  4.00209E+04
 -7.75941E+04 -1.08399E+04 -6.58983E+04 -5.56420E+04 -1.48546E+04 -6.88422E+04  2.42431E+04 -4.43344E+04
  3.92578E+04  1.67757E+03  1.95625E+04  5.05499E+04 -3.16958E+04  5.14114E+04 -6.50308E+04 -4.30082E+03
 -5.09460E+04 -6.23456E+04 -5.77166E+03 -7.42381E+04  3.53636E+04 -5.48122E+04  4.17251E+04 -1.27082E+04
  5.05560E+04  1.03844E+04  3.33830E+04  2.91173E+04  2.37188E+04  2.97732E+04 -9.35733E+03  2.56893E+04
 -1.82414E+04  7.80534E+03 -1.90856E+04 -9.79886E+03  7.56632E+03 -9.19423E+03  2.05938E+04  1.77276E+04
  1.27437E+04  3.55980E+04 -3.74972E+04  4.05854E+04 -6.32443E+04  2.45907E+03 -6.10024E+04 -4.26018E+04
 -1.53674E+04 -7.09150E+04  3.74895E+04 -4.54608E+04  6.15621E+04 -2.55698E+03  4.07476E+04  3.48787E+04
 -6.14683E+03  3.69159E+04 -2.98427E+04  1.25260E+04 -3.51490E+04 -6.01398E+03 -1.84078E+04 -1.23003E+04
 -1.18788E+04 -1.51437E+04 -8.38109E+01 -1.79223E+04  8.59841E+03 -1.97183E+04  1.41272E+04 -1.37784E+04
  1.05449E+04  2.33011E+03 -1.40583E+04  1.57483E+04 -2.66982E+04 -3.90787E+03 -1.29987E+04 -4.03051E+04
  2.33474E+04 -4.79484E+04  5.16437E+04 -2.56714E+04  4.84494E+04  2.26328E+04  1.39208E+04  5.11794E+04
 -2.16067E+04  4.23013E+04 -2.58061E+04  9.23820E+03 -1.32537E+04 -2.29405E+04  2.51947E+04 -3.70941E+04
  4.26219E+04 -1.41218E+04  4.25912E+04  2.23524E+04  1.37513E+04  4.94432E+04 -1.08920E+04  5.02932E+04
 -3.75018E+04  3.82415E+04 -4.93477E+04  1.01218E+04 -4.49862E+04 -2.24792E+04 -2.29225E+04 -3.95209E+04
  5.11981E+03 -4.35146E+04  3.70815E+04 -1.47027E+04  3.14640E+04  1.38479E+04  1.20379E+04  2.21360E+04
 -1.30224E+04  4.52489E+03 -1.39168E+04 -7.68978E+03  5.05790E+03 -1.09676E+04  1.29703E+04  8.53534E+03
  1.70110E+04  2.45479E+04  1.65560E+02  2.64771E+04 -1.88533E+04  1.17685E+04 -2.85716E+04 -6.05044E+03
 -2.26298E+04 -1.99938E+04 -1.33464E+04 -2.39763E+04  9.27682E+03 -2.97349E+04  1.88642E+04 -2.34402E+04
  3.51480E+04 -1.48237E+04  4.41649E+04  4.02892E+03  2.69411E+04  2.74264E+04 -2.11043E+03  3.91373E+04
 -2.13218E+04  3.01671E+04 -3.04411E+04  1.22572E+04 -2.01862E+04 -1.15148E+04 -6.02093E+02 -1.14851E+04
  1.95073E+03 -1.62509E+03 -6.47312E+03  1.26337E+04 -1.69173E+04  1.71380E+03 -2.23586E+04 -9.48219E+03
 -1.25503E+04 -2.01936E+04  1.41919E+04 -2.98684E+04  2.13295E+04 -2.33954E+04  2.43006E+04  4.18125E+03
  6.07689E+03  6.43945E+03  3.66558E+03  2.58908E+04 -2.28976E+04  1.15814E+04 -2.31128E+04 -4.75426E+03
 -2.40683E+04 -2.35023E+04 -3.30843E+03 -2.87297E+04  1.47952E+04 -1.91717E+04  2.46202E+04 -1.23006E+04
  2.28274E+04  2.86002E+03  9.13079E+03  1.04465E+04  9.31763E+03  3.12502E+03  1.31463E+04 -1.55108E+03
  2.70772E+04  2.97907E+02  2.48826E+04  1.88819E+04  2.01852E+04  4.36218E+04  2.35215E+02  4.66694E+04
 -2.78795E+04  3.52946E+04 -4.17576E+04  1.51073E+04 -4.74798E+04 -5.29973E+03 -3.06158E+04 -2.87234E+04
 -1.67005E+04 -3.75334E+04  1.45516E+04 -3.50852E+04  2.84103E+04 -1.85143E+04  2.87872E+04  6.16714E+03
  6.43556E+03  2.00069E+04 -8.46804E+03  1.85518E+04 -2.13027E+04  5.49602E+03 -2.11882E+04 -5.34651E+03
 -1.04504E+03 -1.63309E+04  6.32897E+03 -1.14982E+04  1.67235E+04 -7.90770E+03 -1.28938E+03  8.60355E+03
 -6.90949E+03  4.39645E+03 -1.75250E+04 -4.14484E+03  5.25862E+03 -2.48634E+04  6.94238E+03 -2.10275E+04
  2.04351E+04 -1.27083E+04  2.08140E+04  7.60891E+02  1.86987E+04  1.62275E+04  3.27304E+03  2.63701E+04
 -5.08049E+03  3.75464E+04 -1.96427E+04  2.08946E+04 -2.47750E+04  2.12893E+03 -1.96712E+04 -1.82663E+03
 -6.11776E+03 -5.22838E+03 -5.95075E+03 -1.52931E+03  1.81026E+02  3.88751E+03 -1.07966E+04  4.69991E+03
 -1.61082E+04  1.30445E+03 -2.16261E+04 -1.04238E+04 -1.78342E+03 -1.73214E+04  6.15721E+03 -1.56449E+04
  1.33111E+04 -8.41592E+03  1.00117E+04  4.77659E+03 -3.01574E+03  9.01127E+03 -8.68097E+03  1.66756E+03
 -1.12358E+04 -7.88342E+03  1.94126E+03 -1.43342E+04  1.08440E+04 -1.85455E+04  2.38285E+04 -5.84805E+03
  2.13274E+04 -6.34831E+02  1.45955E+04  8.05741E+03  3.29919E+03  1.81669E+04 -8.83549E+03  1.29448E+04
 -9.15251E+03  9.17961E+03 -4.92339E+02 -4.48816E+03 -1.82518E+03 -4.55799E+03  8.27326E+03  2.03438E+03
  1.35844E+04  4.54562E+03  2.88859E+03  1.61846E+04 -5.23083E+03  1.39135E+04 -1.99575E+04  7.44521E+03
 -9.37951E+03 -1.30092E+04 -7.27332E+03 -1.31040E+04  6.98980E+03 -2.79187E+03  8.18016E+03  9.32675E+02
  1.36491E+03  5.48159E+03 -9.44610E+03  1.15504E+04 -1.04551E+04 -1.50979E+03 -5.72780E+03 -2.30952E+03
 -8.93019E+03 -1.46978E+04  1.39305E+03 -1.80439E+04  1.67776E+04 -1.12307E+04  1.76087E+04  7.97621E+03
  1.37002E+04  1.85381E+04 -5.66853E+03  7.96155E+03 -9.78083E+03 -1.47222E+03 -1.65873E+04 -3.88861E+03
 -9.46668E+03 -1.54869E+04 -2.96337E+02 -7.98501E+03  5.73586E+03 -6.68496E+03  7.80649E+03 -4.38903E+02
  2.15096E+03 -1.50415E+03 -2.58261E+03  1.18531E+03 -8.50148E+02 -5.37120E+03  1.78591E+03 -5.17913E+03
  6.42147E+03 -2.15888E+03  2.19196E+04  2.36721E+03  1.39892E+04  1.12997E+04  1.38614E+04  2.39595E+04
 -6.34798E+03  2.68305E+04 -1.80742E+04  1.98256E+04 -2.44358E+04  1.85568E+03 -1.98642E+04 -1.04491E+04
 -7.04673E+03 -1.83130E+04 -1.91359E+03 -2.34135E+04  7.89917E+03 -2.78843E+03  7.25806E+03 -7.66622E+03
  6.23182E+03 -1.70796E+02 -1.65123E+03 -5.17446E+03  6.59163E+03 -6.93397E+03  1.25512E+04  5.14887E+03
  1.12314E+04  1.28909E+03  8.01269E+03  1.35147E+04 -1.72315E+03  8.37473E+03 -1.20336E+04  9.34472E+03
 -2.18586E+04 -5.71660E+02 -1.27841E+04 -4.68337E+03 -3.90235E+03 -1.12671E+04  1.34362E+04 -1.42191E+04
  1.44017E+04 -1.13563E+04  2.00829E+04  1.10384E+04  1.85040E+04  6.24702E+03 -1.34558E+03  2.41304E+04
 -7.43762E+03  8.64875E+03 -1.08825E+04  7.40909E+03 -1.19286E+04 -1.28653E+04 -1.38296E+02  4.42600E+03
  1.09793E+03 -2.48597E+03 -1.14518E+04  5.20608E+03 -8.58987E+03 -8.75876E+02 -1.22889E+04 -3.14655E+03
 -1.03874E+04 -8.49238E+03  4.05555E+03 -2.14255E+04  8.87994E+03 -9.91414E+03  1.52342E+04 -3.89830E+03
  1.55594E+04  9.13114E+03  2.09995E+03  1.48658E+04 -5.32605E+03  8.39575E+03 -1.38081E+04  7.82735E+03
 -1.80016E+04 -3.12184E+01 -5.60205E+03 -5.81383E+03  9.89321E+02 -7.34244E+03  7.54106E+03 -6.92236E+03
  4.57589E+03 -9.02529E+02  2.89473E+03  1.75929E+03  2.92189E+03  7.37702E+03 -3.12744E+03 -1.54233E+03
  4.44285E+03  8.36972E+02  6.91708E+03  2.80857E+03  7.47818E+03  5.28393E+03  2.37689E+03  1.09153E+04
 -6.15197E+03  8.07945E+03 -1.52092E+04  1.29532E+04 -1.67890E+04 -7.37533E+03 -9.54711E+03 -5.76388E+03
 -9.84063E+02 -1.47250E+04  7.06501E+03 -1.50526E+04  9.15438E+03 -8.80237E+03  1.43543E+04 -1.45304E+03
  1.29506E+04  4.86937E+03 -5.48921E+02  1.03039E+04 -4.53577E+03  1.05507E+04 -6.32685E+03  2.58435E+03
  5.90627E+03 -1.54493E+03  6.13935E+03 -5.04724E+03  7.05891E+03 -2.31904E+03  8.50203E+03  8.43781E+03
 -3.73921E+03  3.90321E+03  5.26953E+03  5.06301E+03 -2.79909E+03  6.04617E+03  4.86346E+03  1.35720E+03
  1.18907E+03 -3.62073E+03 -2.23863E+03  5.59601E+03 -5.06799E+03  7.83713E+03 -4.21897E+03  5.63267E+03
 -9.10526E+03  7.37190E+03 -1.20436E+04 -2.58805E+02 -5.04101E+03 -3.19873E+03 -9.50505E+03 -2.71940E+03
  1.57923E+03 -8.83420E+03  4.21886E+03 -5.96734E+03  4.75347E+03  2.47162E+03 -4.02382E+03  3.84531E+03
 -6.06764E+03  1.08807E+04 -2.89961E+03 -5.72711E+02 -6.38263E+03 -1.03999E+04 -1.03773E+03 -2.70096E+03
  2.65658E+03 -6.62762E+03  6.72806E+03 -3.34699E+03  7.95040E+03 -2.69159E+03  4.73647E+03  5.48892E+03
 -2.95075E+03  4.44061E+03 -3.40438E+03 -8.24301E+02  2.97564E+03 -9.28639E+03  6.97313E+03  3.39512E+03
  3.27584E+03  1.52609E+03  8.49528E+03  3.53284E+03  5.43425E+03  1.27988E+04  2.94271E+03  1.16193E+04
 -7.81486E+03 -1.76247E+03 -9.46453E+03  3.38711E+03  7.08182E+02 -2.68839E+03  6.62406E+03 -7.97475E+03
  9.14667E+03 -4.26097E+03  7.90189E+03 -3.69329E+03  4.88280E+03  6.93717E+03 -3.69553E+03  1.13083E+03
  5.82054E+03  8.46431E+03 -5.53956E+03  5.64574E+03 -2.74550E+03  1.14998E+03 -3.15999E+03  3.72542E+03
 -3.26710E+03 -4.99452E+03 -1.28690E+04 -4.93199E+03 -8.06969E+03 -2.13346E+02 -1.26477E+04 -8.18169E+03
 -9.86486E+03 -1.26154E+04  7.89911E+03 -1.56145E+04  1.42179E+04 -1.88917E+04  1.31160E+04 -2.38063E+03
  1.02054E+04  3.74973E+03  6.09948E+03  1.08455E+04  3.22964E+03  7.51401E+03 -3.05918E+03  2.90368E+03
 -3.17333E+03  2.68357E+03  1.94698E+03  1.06284E+03 -6.65671E+03 -3.21814E+03 -6.95032E+03 -3.59824E+03
  6.52948E+03  7.27444E+03  5.69800E+03  3.74846E+03  1.64478E+03 -2.53412E+03 -2.85029E+03  2.12216E+03
  3.23258E+03 -5.06871E+03  7.19933E+03 -1.79497E+03  4.47088E+03  2.23562E+03  5.57947E+02  1.22696E+04
 -1.10657E+04  1.05595E+04 -1.20754E+04  7.53773E+03 -1.14689E+04 -2.71227E+03 -3.94543E+03 -7.38197E+03
 -5.26766E+03 -8.37878E+03  5.29938E+03 -1.04910E+04  2.80171E+03 -9.88677E+02  4.29607E+03 -4.74789E+02
  4.74490E+03  1.02738E+03 -5.76668E+03  2.97589E+03 -5.47999E+03  9.19651E+02 -5.24821E+03 -3.91972E+03
  4.97174E+03 -1.82994E+03  5.99411E+03  1.21384E+03 -1.33477E+03  2.82925E+03 -8.88889E+03  4.18514E+03
  2.83021E+03  5.43188E+03 -4.04842E+03  3.60554E+03 -6.06293E+03 -4.63740E+03  1.14149E+03 -5.22466E+03
 -2.06290E+03 -3.56126E+03  2.88061E+03  2.52784E+03  2.92876E+03  4.35671E+02 -3.73737E+03  7.78663E+03
 -3.38331E+03  6.41671E+03 -5.06545E+03  5.24800E+03 -4.65064E+03  4.33580E+03 -6.47930E+03  4.50322E+02
 -2.46190E+03 -1.91110E+03 -8.26617E+03  3.01519E+03 -4.81256E+03  3.46876E+03 -3.93512E+03  3.43654E+03
 -3.17842E+03 -2.09073E+03 -3.03432E+03 -4.04581E+03  8.40753E+01 -8.26266E+03  5.68979E+03 -1.70228E+03
  4.27394E+03 -1.72018E+03  3.77685E+03  1.80522E+03 -3.28920E+03  1.17847E+04 -3.49326E+03  7.49020E+03
