 $NMID ID='MM_0lb_SNR50_8hz_g40_59.RAW', FMTDAT='(8E13.5)'
 TRAMP=1., VOLUME=1. $END
  3.09617E+05  1.31743E+03  3.38771E+05  2.56865E+05  8.90081E+04  3.40312E+05 -1.32875E+05  2.55848E+05
 -1.91824E+05  8.04463E+04 -1.19557E+05 -4.06266E+04  4.01676E+03 -4.70270E+04  5.24778E+04 -3.84737E+03
  3.59261E+04  4.94048E+04 -1.44519E+04  7.70850E+04 -6.18671E+04  5.72569E+04 -8.70965E+04  3.03412E+04
 -8.29550E+04 -1.66586E+04 -5.67239E+04 -5.14114E+04 -1.84143E+04 -6.73751E+04  2.66177E+04 -4.32965E+04
  4.06074E+04  6.38948E+02  1.27963E+04  5.33813E+04 -3.80709E+04  5.03145E+04 -7.04505E+04 -4.02936E+03
 -5.67514E+04 -5.78782E+04 -4.37070E+03 -7.89993E+04  3.29422E+04 -6.61527E+04  4.90928E+04 -1.39044E+04
  4.35519E+04  1.30063E+04  2.45738E+04  3.38820E+04  1.99924E+04  3.22776E+04 -5.65290E+03  2.41415E+04
 -2.36013E+04  1.29755E+04 -2.32667E+04 -1.07768E+04  9.75934E+03 -7.09741E+03  2.14073E+04  1.41806E+04
  1.10259E+04  3.84737E+04 -3.18402E+04  3.61471E+04 -6.20937E+04  4.66838E+03 -5.67401E+04 -4.15762E+04
 -1.17360E+04 -6.81795E+04  4.09944E+04 -4.86574E+04  6.76657E+04 -5.38571E+03  3.48289E+04  3.15977E+04
 -8.95219E+03  4.34217E+04 -2.73809E+04  1.64553E+04 -3.59043E+04  3.04523E+02 -1.57291E+04 -1.09723E+04
 -1.19539E+04 -1.81550E+04 -1.69475E+03 -1.53813E+04  6.47467E+03 -2.52229E+04  2.29721E+04 -1.94709E+04
  8.19370E+03  4.93163E+03 -1.71687E+04  1.33613E+04 -2.14610E+04 -1.08213E+04 -1.81025E+02 -2.91407E+04
  2.35766E+04 -4.16229E+04  4.67926E+04 -2.73697E+04  4.92287E+04  2.31965E+04  2.18801E+04  4.12642E+04
 -1.87582E+04  3.69141E+04 -3.33233E+04  1.03571E+04 -1.35661E+04 -2.90548E+04  1.81069E+04 -3.38518E+04
  4.45778E+04 -1.07226E+04  3.19250E+04  2.54115E+04  2.47867E+04  4.92871E+04 -4.77147E+03  5.86785E+04
 -3.57647E+04  3.85467E+04 -4.69968E+04  1.52200E+04 -3.90818E+04 -2.22570E+04 -2.10687E+04 -4.73332E+04
  1.29621E+04 -4.96719E+04  3.71061E+04 -2.01297E+04  3.46573E+04  1.13324E+04  4.52902E+03  1.88039E+04
 -1.10711E+04  6.38854E+03 -1.18901E+04 -1.16118E+03  1.01949E+04 -8.88564E+03  1.88109E+04  6.29562E+03
  1.78651E+04  2.66848E+04 -2.01242E+03  2.75826E+04 -2.52838E+04  1.44997E+04 -2.43073E+04  2.35251E+03
 -2.80181E+04 -1.98187E+04 -1.67127E+04 -2.72497E+04  1.21309E+04 -2.20146E+04  1.58012E+04 -1.74734E+04
  2.81159E+04 -1.72747E+04  3.18553E+04  1.34392E+03  2.66980E+04  2.35289E+04  5.89305E+03  3.78891E+04
 -1.99000E+04  3.29139E+04 -3.36229E+04  1.09737E+04 -2.72939E+04 -1.15133E+04 -2.57938E+03 -6.74220E+03
  5.31843E+03 -6.31216E+02 -4.44101E+03  5.72550E+03 -2.20729E+04  4.04167E+03 -2.19577E+04 -1.27469E+04
 -1.88593E+04 -2.85162E+04  6.18288E+03 -3.00412E+04  1.92556E+04 -1.89953E+04  2.11990E+04  3.98624E+03
  1.59259E+04  1.46779E+04 -8.28677E+02  2.00831E+04 -2.52888E+04  7.62838E+03 -2.64578E+04 -8.95395E+03
 -2.11347E+04 -1.97317E+04 -4.31892E+03 -2.99611E+04  1.18358E+04 -1.74247E+04  2.31557E+04 -6.43728E+03
  2.26673E+04 -4.99801E+02  1.80165E+04  5.29295E+03  1.48191E+04  4.17632E+03  1.36692E+04 -2.55933E+03
  2.19713E+04  3.33972E+03  2.66874E+04  1.63681E+04  1.50784E+04  3.69737E+04 -3.04566E+03  4.63236E+04
 -1.93404E+04  4.20067E+04 -4.34345E+04  2.13547E+04 -4.40603E+04 -5.71246E+03 -3.46693E+04 -2.19655E+04
 -2.39113E+04 -3.21569E+04  9.49758E+03 -3.60823E+04  3.46274E+04 -1.60052E+04  2.50748E+04  9.80691E+03
  8.40493E+03  1.02824E+04 -1.04960E+04  1.64549E+04 -2.37473E+04  3.01726E+03 -1.75619E+04 -1.21479E+04
 -5.21193E+03 -1.62870E+04  1.37906E+04 -1.76561E+04  1.62355E+04  1.76420E+02  9.84738E+03  1.39199E+04
 -1.07998E+04  8.34043E+03 -9.37904E+03 -1.29451E+04  2.84611E+02 -1.41806E+04  1.75888E+04 -2.14615E+04
  2.16329E+04 -1.27936E+04  2.52975E+04  6.43401E+03  1.70255E+04  1.77998E+04  1.43508E+04  2.82565E+04
 -1.12424E+04  3.07742E+04 -2.10541E+04  2.01154E+04 -2.60498E+04  2.77635E+03 -1.17217E+04 -2.70321E+03
 -6.34956E+03 -1.07833E+04 -6.68537E+03 -6.56893E+02 -1.85307E+03  1.26219E+03 -6.96714E+03  5.27148E+03
 -1.22979E+04 -8.46200E+03 -1.56530E+04 -1.24272E+04 -3.57235E+03 -2.01893E+04  7.86531E+03 -1.52184E+04
  1.81505E+04 -2.09311E+03  7.97888E+03 -1.26890E+03 -2.01348E+02 -5.92344E+02 -6.95500E+03  7.20372E+01
 -1.01092E+04 -7.39708E+03 -2.86470E+03 -1.88953E+04  1.51682E+04 -1.60032E+04  2.06568E+04 -9.33468E+03
  2.29878E+04  2.52616E+02  2.28961E+04  1.79963E+04  2.27463E+03  1.84685E+04 -8.75744E+03  1.48981E+04
 -1.27947E+04  7.03144E+03 -1.23722E+04 -9.07946E+03 -2.06967E+03 -1.70389E+02  7.29356E+03  7.08663E+02
  2.59548E+03  2.38518E+03  5.43896E+03  1.96337E+04 -7.33194E+03  1.61949E+04 -1.33357E+04  6.16327E+02
 -1.40903E+04 -1.08695E+04  1.09032E+03 -1.15807E+04  1.22073E+04 -5.31594E+03  1.38001E+04  3.61857E+03
  2.42929E+03  9.00970E+03 -1.56419E+04  7.95561E+03 -1.34382E+04  4.64640E+03 -1.64718E+04 -6.15770E+03
 -9.04834E+03 -1.32700E+04  9.13406E+03 -1.09881E+04  2.58581E+04 -1.04240E+04  1.59500E+04 -7.24205E+02
  6.37370E+03  4.61630E+03 -9.73588E+02  2.07871E+04 -1.73511E+04  7.44264E+03 -1.59372E+04 -1.84329E+03
 -1.24386E+04 -8.70428E+03 -6.22582E+03 -1.17215E+04  4.56545E+03 -1.54687E+04  1.75788E+03  8.21233E+02
  1.33858E+04  6.21866E+03 -1.04130E+03  5.95164E+03  3.42693E+03 -3.00460E+03  1.92533E+03 -2.81289E+03
  5.99182E+03 -3.34817E+03  2.09593E+04  1.57417E+03  1.55110E+04  1.48756E+04  7.84638E+03  1.37004E+04
 -4.42798E+03  2.42308E+04 -1.93123E+04  1.60356E+04 -2.87796E+04  9.46044E+03 -2.35933E+04 -8.63617E+03
 -1.12078E+04 -1.24319E+04  3.11505E+03 -1.40616E+04  5.75932E+03 -1.24214E+04  5.98745E+03 -1.65775E+04
  5.02680E+03 -8.13095E+02  4.60835E+03 -1.07563E+04  3.98428E+03 -4.95960E+03  3.42143E+03 -4.49592E+03
  1.58787E+04  7.55157E+03  5.88857E+03  1.19882E+04 -7.75307E+02  1.44873E+04 -1.04758E+04  4.90973E+03
 -1.62000E+04 -1.06080E+03 -1.64734E+04 -1.55957E+04 -1.26833E+03 -2.06753E+04  3.93156E+03 -1.37797E+04
  1.89343E+04 -1.17069E+04  1.71901E+04  1.15318E+02  1.39900E+04  1.88330E+04  4.25691E+03  2.34800E+04
 -5.85543E+03  1.56516E+04 -7.93161E+03  4.65173E+03 -1.09254E+04 -3.16583E+03 -4.35812E+03 -5.37227E+03
  3.70429E+03 -3.52778E+03 -3.70367E+03 -3.33223E+03 -6.64664E+03  2.57392E+03 -1.32314E+04 -6.21828E+03
 -7.80930E+03 -1.38317E+04  3.43883E+03 -2.01695E+04  1.58178E+04 -1.79898E+04  1.57226E+04 -7.22523E+03
  1.39465E+04  1.37795E+04  1.04175E+04  1.32747E+04 -1.84440E+03  1.57045E+04 -6.68590E+03  6.66991E+03
 -1.68345E+04  7.13919E+03 -7.63226E+03 -7.16887E+03  3.80424E+03 -1.64102E+04  1.23412E+04 -1.23814E+04
  7.44113E+03 -5.03578E+03  1.13954E+04  6.88183E+02  3.60108E+02  5.18089E+03  7.65735E+03 -1.74481E+03
  2.16984E+03 -2.90497E+03  3.72447E+03  1.83554E+03  4.94021E+03  3.56954E+03  1.45496E+04  5.41294E+03
 -6.33445E+03  1.44965E+04 -1.29226E+04  1.23085E+04 -1.36599E+04 -7.61191E+02 -1.45280E+04 -1.07093E+04
 -8.00857E+03 -2.12113E+04 -1.99430E+03 -1.62175E+04  9.46054E+03 -1.52606E+04  1.46095E+04  3.15714E+03
  1.56814E+04  8.30868E+03  1.59033E+03  1.04599E+04 -4.42075E+03  1.85498E+03 -8.26326E+03 -2.35028E+03
 -9.83977E+03 -1.35702E+04  4.89808E+03 -1.33811E+04  3.45693E+03  5.46969E+03  1.05832E+04  9.68452E+02
  8.39787E+03  4.49355E+03 -2.34457E+03  3.17649E+03  1.67051E+03  3.69050E+03  6.64834E+03 -1.66369E+03
  1.24728E+03 -5.34393E+03  5.03740E+03  2.16458E+03  1.82699E+03  1.19426E+04 -7.74383E+03  1.04831E+04
 -6.31595E+03 -1.06377E+03 -9.63974E+03  3.71040E+03 -6.84342E+03 -6.13064E+03 -8.92433E+03 -4.92609E+03
 -2.28277E+03 -3.23624E+03  2.98375E+03 -3.66629E+03  7.15404E+03  3.08020E+03 -4.56260E+03  8.86774E+03
 -1.13017E+04  2.64616E+03 -5.03866E+03 -1.63644E+03 -4.49504E+03 -1.23428E+04 -9.61021E+02 -5.28356E+03
  1.11218E+04  1.50238E+03  1.02357E+04  5.95466E+02  1.40277E+03  3.64751E+03 -8.17507E+02  1.58213E+03
  7.66353E+02  5.19057E+02 -2.03833E+03  3.56220E+02  1.65545E+03 -6.92019E+03  1.03993E+04 -3.02073E+03
  1.24437E+04  5.27385E+03  6.17512E+03  4.07827E+03  8.00718E+02  1.27337E+04  1.68250E+02  7.51619E+03
 -1.31324E+04  1.42576E+04 -4.00150E+03 -1.57415E+03 -8.53565E+03 -7.93333E+03  3.51772E+03 -8.19935E+03
  1.21055E+04 -5.88298E+03  8.08980E+03  3.09333E+03  5.17775E+03  5.65423E+03 -7.36947E+02  8.25823E+01
 -8.06810E+03  5.16048E+03 -3.29042E+03 -2.95053E+03 -6.19938E+03 -2.13756E+02  3.01939E+03  6.85943E+01
 -9.17873E+03 -2.59638E+03 -1.31492E+03  8.67859E+03 -6.39380E+03 -1.73307E+03 -9.58148E+03 -7.34136E+03
 -7.91733E+03 -1.26160E+04 -9.83140E+02 -2.40298E+04  1.38956E+04 -1.29667E+04  2.00945E+04 -5.09002E+03
  7.80522E+03  5.32169E+03  1.17907E+04  1.49854E+04  2.30026E+03  1.62937E+04 -2.22943E+03  1.40685E+04
 -6.44654E+03  6.62415E+03 -5.54354E+02 -3.75459E+03 -6.33075E+02  8.34750E+02 -2.92129E+03  5.24290E+03
 -2.57326E+03 -2.61140E+02  1.85597E+03 -5.55639E+03 -1.96482E+03 -2.41153E+03 -2.80954E+03  4.59188E+03
  6.78164E+03  1.95276E+03  1.07636E+04  5.37545E+03  4.17932E+03  1.23250E+04 -7.01205E+02  9.10953E+03
 -6.84866E+03  8.43790E+03 -6.23538E+03  1.20131E+04 -9.80658E+03 -5.88298E+03 -9.81874E+03 -9.25777E+03
 -9.43855E+03 -1.46090E+04  6.07631E+02 -9.23756E+03  4.57887E+03 -7.67997E+03  5.42744E+03 -1.43771E+03
  3.97616E+03  3.85353E+03  2.62739E+03  1.22095E+03 -1.68276E+03  3.81005E+03  3.90743E+03 -9.83156E+02
  1.18278E+04  1.25339E+03  7.76676E+03  6.23567E+03  1.54909E+03  5.19552E+03  5.58148E+03  3.31357E+03
 -5.55238E+03  2.55363E+03 -9.10478E+03  2.07991E+03 -7.61141E+03 -4.60398E+03  1.34660E+03 -4.24632E+03
  9.01089E+03 -5.72063E+03  8.95139E+03  2.44398E+02  1.74063E+04  1.99399E+03 -2.35479E+03  1.24148E+04
  7.15400E+02  5.48913E+03 -6.89225E+03  1.31116E+03 -3.69344E+03  4.70753E+03 -5.66843E+03  9.69137E+02
  1.06459E+03 -1.15497E+03 -3.61678E+03  3.22033E+03 -3.37437E+03 -1.61524E+03 -1.17383E+04 -1.34338E+01
 -2.07474E+03 -1.09509E+04 -5.94927E+02 -2.69769E+03  2.63597E+03 -7.09996E+03  3.69838E+03 -2.52576E+02
  4.23389E+03 -5.01256E+02  8.46898E+03  3.57806E+03 -3.68599E+03  4.39416E+03 -9.58974E+03  4.81423E+03
