 $NMID ID='MM_0lb_SNR50_14hz_g45_86.RAW', FMTDAT='(8E13.5)'
 TRAMP=1., VOLUME=1. $END
  3.09315E+05  4.23659E+03  3.39920E+05  2.48648E+05  8.15571E+04  3.40460E+05 -1.31104E+05  2.51911E+05
 -1.92133E+05  8.70845E+04 -1.14187E+05 -3.07249E+04  2.72593E+03 -5.19886E+04  5.21754E+04  1.47948E+03
  3.23863E+04  5.21048E+04 -1.49208E+04  7.72393E+04 -6.38796E+04  6.89703E+04 -8.64634E+04  3.44186E+04
 -7.64092E+04 -7.29738E+03 -5.99160E+04 -5.18999E+04 -1.24282E+04 -7.10195E+04  2.67971E+04 -4.64491E+04
  4.32125E+04  6.51842E+03  1.40801E+04  4.67388E+04 -3.47351E+04  4.80287E+04 -6.28569E+04 -3.30989E+03
 -5.27113E+04 -5.90069E+04 -6.85728E+03 -7.55573E+04  3.32893E+04 -5.46427E+04  4.89883E+04 -1.78938E+04
  4.21726E+04  1.08604E+04  3.30154E+04  2.54028E+04  1.68756E+04  3.24149E+04 -7.30536E+03  2.78494E+04
 -2.21372E+04  1.28642E+04 -1.73268E+04 -5.88764E+03  5.99217E+03 -4.57910E+03  2.11043E+04  1.04666E+04
  3.98424E+03  3.58645E+04 -3.48810E+04  3.43882E+04 -6.55810E+04 -1.26769E+03 -5.61702E+04 -3.87999E+04
 -1.29420E+04 -6.18886E+04  3.72503E+04 -4.45155E+04  6.28687E+04 -3.24170E+03  3.71575E+04  3.35309E+04
 -3.51084E+03  3.77551E+04 -3.11443E+04  1.31244E+04 -3.46687E+04 -9.15402E+03 -1.43646E+04 -1.54066E+04
 -1.28722E+04 -1.25783E+04  2.94011E+03 -2.39863E+04  4.22056E+03 -2.43684E+04  1.23132E+04 -1.41774E+04
  1.34879E+04  4.14048E+03 -1.04059E+04  1.19457E+04 -1.99984E+04 -4.89741E+03 -6.52783E+03 -3.22509E+04
  2.93735E+04 -4.45354E+04  4.54449E+04 -1.75047E+04  4.20933E+04  1.59952E+04  1.81789E+04  4.70484E+04
 -1.70846E+04  3.36110E+04 -2.56531E+04  2.77162E+03 -1.25833E+04 -2.84851E+04  2.05935E+04 -3.35106E+04
  3.81614E+04 -1.00115E+04  3.76628E+04  1.90358E+04  2.55440E+04  4.48892E+04 -5.93078E+03  4.54821E+04
 -3.00536E+04  3.16760E+04 -4.22029E+04  7.97093E+03 -4.28096E+04 -1.30587E+04 -2.28831E+04 -3.54356E+04
  1.03862E+04 -4.17956E+04  3.15449E+04 -1.22605E+04  2.35168E+04  1.02755E+04  7.09674E+03  2.23028E+04
 -1.61367E+04  9.28258E+03 -9.20325E+03 -5.02483E+03  1.25661E+03 -6.84757E+03  1.46644E+04  9.36325E+03
  1.63508E+04  2.18320E+04 -2.61477E+03  2.60348E+04 -2.23247E+04  7.59521E+03 -2.34713E+04 -5.14241E+03
 -1.97665E+04 -1.69960E+04 -9.97050E+03 -1.62487E+04  2.51471E+03 -1.93333E+04  1.78014E+04 -1.38347E+04
  2.59449E+04 -1.25420E+04  3.05656E+04  5.10758E+03  2.12909E+04  1.90651E+04  5.95554E+03  3.17197E+04
 -1.47946E+04  3.41008E+04 -2.52083E+04  1.00425E+04 -1.72223E+04 -7.29200E+03 -3.16036E+03 -1.04619E+04
  4.76565E+03 -2.60132E+01 -9.19592E+03  6.82231E+03 -1.57830E+04  2.92622E+03 -1.79506E+04 -4.67393E+03
 -1.43528E+04 -1.71901E+04  8.99904E+02 -2.40605E+04  1.45072E+04 -1.55286E+04  1.43592E+04  1.74641E+03
  1.14510E+04  1.08485E+04 -1.61169E+02  1.93594E+04 -1.41641E+04  4.89222E+03 -1.89708E+04 -6.68112E+03
 -1.46311E+04 -1.28108E+04  1.30968E+03 -2.29622E+04  1.17923E+04 -1.77079E+04  2.09966E+04 -8.17604E+03
  1.76278E+04  8.87394E+02  9.85199E+03  4.25898E+03  1.13480E+04  2.13354E+03  8.77395E+03 -1.18724E+03
  9.42683E+03  5.09096E+03  1.59151E+04  1.63634E+04  1.12360E+04  2.85472E+04 -9.57145E+03  3.16993E+04
 -2.04104E+04  2.44725E+04 -2.74855E+04  1.08846E+04 -3.48464E+04 -1.23972E+03 -2.82996E+04 -1.60937E+04
 -1.05797E+04 -2.23387E+04  6.89495E+03 -2.15018E+04  2.22704E+04 -1.64793E+04  2.10057E+04  5.01958E+03
  7.35951E+03  1.05482E+04 -9.79512E+03  1.28416E+04 -1.47013E+04 -2.92408E+03 -8.47610E+03 -9.74887E+03
 -2.71817E+03 -1.15235E+04  9.95956E+03 -9.97356E+03  9.06414E+03 -7.72038E+01  1.42537E+03  6.46572E+02
 -3.79952E+03  2.01306E+03 -7.07639E+03 -8.05995E+03 -2.36819E+02 -1.28694E+04  1.06651E+04 -9.26916E+03
  1.42628E+04 -6.75700E+03  1.46366E+04 -3.79116E+02  1.76883E+04  1.29193E+04  6.99048E+03  2.12662E+04
 -2.98377E+03  2.37140E+04 -1.22549E+04  1.62607E+04 -1.44737E+04  4.11237E+03 -1.14013E+04  5.16127E+03
 -7.49345E+03 -1.38673E+03  1.88565E+03  1.10691E+03  4.34187E+02  8.86203E+02 -4.92466E+03  3.78138E+03
 -9.23810E+03  1.42489E+03 -1.80887E+04 -1.13691E+04 -2.41229E+03 -1.02616E+04  3.71176E+03 -1.37416E+04
  7.23218E+03 -5.87883E+03  6.64807E+03  4.25504E+03  2.27353E+03  5.87537E+03 -4.09221E+03  2.68416E+03
 -6.74148E+03 -5.21226E+03 -2.09899E+03 -8.67000E+03  7.88068E+03 -9.50972E+03  1.27961E+04 -6.62697E+03
  1.42160E+04  1.09039E+04  1.14649E+04  8.34687E+03  2.97542E+03  1.69231E+04 -8.04448E+03  1.34839E+04
 -7.60480E+03  5.41976E+03 -8.15192E+03 -1.93655E+03  1.97194E+03 -7.03434E+03  7.42933E+03 -1.49715E+03
  6.36479E+03  6.52660E+03  4.00875E+03  5.16420E+03 -4.20216E+03  9.28624E+03 -1.17542E+04  1.47698E+03
 -6.03341E+03 -7.44039E+02  5.14026E+03 -9.67531E+03 -8.53479E+02 -6.25857E+03  8.03249E+03  2.74630E+03
  7.04002E+02  4.02750E+03 -4.43825E+03  2.70347E+03 -8.84763E+03 -5.40725E+02 -7.23864E+03 -2.50996E+03
 -4.25083E+03 -1.07119E+04  2.36004E+03 -1.00496E+04  1.18173E+04 -8.08536E+03  1.21256E+04  5.21115E+02
  1.21384E+04  9.75851E+03 -3.96046E+03  1.23017E+04 -6.77344E+03  3.34129E+03 -7.60108E+03  7.70959E+02
 -8.03278E+03 -1.08513E+04 -2.46287E+03 -4.41680E+03 -5.08515E+02 -4.97919E+03  5.96316E+03 -7.66857E+03
  1.86342E+03 -1.43448E+03 -4.87811E+02 -2.91271E+03 -8.40700E+02 -5.53513E+03 -2.58809E+03 -1.23303E+03
  3.95343E+03 -3.41561E+03  1.17894E+04  5.06271E+03  1.17542E+04  3.26282E+03  3.39463E+03  1.45424E+04
  6.16027E+02  1.44215E+04 -6.81556E+03  9.38072E+03 -1.48709E+04  5.97913E+03 -9.98648E+03 -2.62205E+03
 -3.91356E+03 -1.40402E+04  4.03762E+03 -9.99074E+03  1.45776E+03 -2.46244E+03 -5.57303E+01 -8.90297E+03
  1.78236E+03 -3.33215E+03  6.60508E+03 -3.05908E+03  5.27014E+03 -1.53694E+02  4.27247E+03 -3.41863E+03
  7.77217E+03  2.61883E+03  4.61247E+03  4.98543E+03 -4.13671E+03  8.30776E+03 -5.22207E+03  5.84930E+03
 -8.46051E+03 -1.27885E+03 -8.94082E+03 -3.01386E+03  2.42502E+03 -1.11825E+04  4.76081E+03 -1.28047E+04
  9.00754E+03 -4.22903E+03  8.12672E+03  4.00263E+03  3.41738E+03  6.91816E+03  2.77990E+03  1.13767E+04
 -5.69027E+03  1.18908E+04 -2.73622E+03  1.76757E+03 -4.98592E+03  6.72995E+02  5.27750E+01 -3.42658E+03
  4.54145E+03 -5.37863E+03  3.75267E+03  4.92817E+03 -7.20779E+03 -5.57460E+03 -7.41905E+03  1.73169E+03
 -1.00122E+04 -5.62670E+03  5.53113E+03 -7.09446E+03  6.50008E+02 -8.76663E+03  6.18306E+03 -3.01712E+03
  4.85552E+03  4.09029E+03  1.69860E+02 -1.16806E+03 -4.52460E+03  7.80360E+03 -2.39289E+03  9.29726E+03
 -6.37577E+03 -8.76309E+02 -6.71758E+03 -5.74762E+03  1.02230E+03 -7.17013E+03  2.04086E+03 -5.79799E+03
  6.99667E+03  1.08696E+02  5.66977E+03 -1.03999E+03  1.44638E+03  1.43111E+03  2.38325E+03 -2.57326E+01
  8.41154E+03 -4.22729E+02 -2.38712E+03 -2.49012E+03  2.43601E+03  1.61472E+03 -3.52016E+03  1.48884E+03
 -3.60837E+03  9.29733E+03 -8.41326E+03  7.66898E+03 -3.56650E+03 -5.19793E+03 -5.86648E+03 -5.30485E+03
 -3.97317E+03 -1.36875E+04  5.37665E+03 -6.35338E+03  3.64935E+03 -6.83700E+03  4.17027E+03 -6.00406E+02
  7.94857E+02  6.22682E+03  3.54940E+02  5.69011E+03  4.92695E+02  5.46932E+03 -6.87044E+03  5.09689E+03
 -5.55213E+03 -4.03753E+03  5.22024E+03 -2.79599E+03 -4.38681E+03 -6.05448E+01  4.75658E+03  6.09340E+03
  4.22080E+03 -1.14277E+03  1.05483E+02 -2.57965E+03 -2.38232E+03 -4.94326E+03  2.40691E+02  1.57503E+03
 -3.28100E+03  1.32186E+03  8.81654E+03 -5.93432E+03  3.68370E+03  5.37643E+03 -6.07597E+02  2.91473E+03
 -7.65369E+03  5.10285E+03 -4.70058E+03 -1.33051E+02 -4.16366E+03 -2.07964E+03 -1.35394E+03 -2.26415E+03
  7.95524E+02 -2.18135E+03  2.24692E+02  2.77839E+03  8.41734E+02  2.33942E+03 -3.89970E+03  5.58277E+02
 -3.91207E+03  1.48611E+03 -7.00626E+02 -2.17313E+03 -1.56035E+03 -4.10393E+03  7.55849E+02 -2.35528E+03
  8.81999E+03  5.02194E+02  4.75287E+03  7.29513E+02  8.52705E+02 -2.40142E+03  1.14949E+03 -8.58477E+01
 -3.70627E+03 -3.99595E+03 -1.61518E+03 -1.34116E+03  2.25700E+03  7.69945E+01  3.22389E+03 -3.19585E+03
  6.92632E+03 -2.96491E+03  2.60524E+03  9.49655E+02  8.78676E+02  3.88684E+03 -1.13694E+03  2.76581E+03
 -3.02499E+03  5.65842E+02 -2.28068E+03 -2.57138E+03 -2.42477E+03 -5.84842E+03 -9.66325E+02  8.32109E+02
  5.14611E+03 -1.25718E+03  3.78145E+03  3.66648E+03 -6.86890E+02 -8.63915E+02  4.18103E+03  4.76263E+03
 -1.71324E+03  2.64851E+03 -3.05640E+03  3.72382E+02  2.12172E+03 -5.25881E+02  1.41077E+03 -4.96015E+03
 -1.96268E+03 -1.93381E+03 -3.24025E+03  1.25516E+03 -1.71173E+03 -2.22899E+02 -8.56959E+03  1.06105E+03
 -7.55585E+03 -3.15670E+03 -3.58269E+03 -7.20967E+03 -2.64892E+03 -6.00748E+03  2.28123E+03 -2.15656E+03
  6.98845E+03  1.18528E+01  2.66078E+03  3.50243E+03  2.07220E+03  2.41931E+03  3.95442E+03  1.23329E+03
 -5.41194E+03 -1.70609E+02  1.99974E+03 -2.18995E+03 -2.17576E+02  2.75832E+01  4.43667E+03 -1.38162E+03
  4.31202E+03  3.91457E+03  2.31708E+03 -1.87105E+03  2.87016E+02 -2.81930E+03  3.57814E+03 -5.30311E+03
  5.68191E+03  3.17874E+03  4.19451E+03  3.76536E+03  4.63127E+03  5.66407E+03  3.39192E+03  5.96408E+03
 -3.92158E+03  1.17935E+03  2.87069E+03  4.17222E+03 -6.63456E+03 -1.46189E+02 -3.21957E+03  4.69701E+02
  5.18678E+03 -2.96311E+03 -7.21396E+02 -2.81115E+03 -2.75351E+03 -3.94275E+03 -2.72797E+03  1.01530E+03
  6.32792E+03  3.26578E+03  3.22149E+02 -1.47924E+03 -1.42154E+03  1.54716E+03  3.49206E+03  2.87590E+03
  8.43140E+01  5.21084E+03  2.88393E+03 -1.04031E+03  7.41654E+03 -4.47937E+03  5.09725E+03  6.82300E+03
 -8.38609E+02 -2.16492E+03 -7.39223E+03 -1.97889E+03 -5.12633E+03  5.23346E+02  2.83509E+02 -1.52336E+03
  4.00634E+03  2.75519E+03 -4.31470E+02  4.95708E+03  7.40605E+03  5.68094E+03  2.58499E+03  2.21591E+03
 -2.43149E+03 -1.57417E+03  5.47549E+02  9.19162E+02 -2.98926E+03  5.15751E+03 -4.03076E+03  7.71549E+02
  3.63989E+02  1.67790E+03 -6.30622E+02  7.22555E+01 -1.55029E+03 -5.39200E+02 -4.57176E+02 -5.13739E+02
  9.85949E+02  1.54622E+03  7.42380E+02 -3.78177E+03  7.81960E+02 -5.03223E+03  9.85353E+02  6.26648E+01
  1.96634E+03  2.54538E+03  7.97498E+02  4.30806E+02 -2.21978E+03  4.21664E+03 -6.17113E+03 -1.84893E+03
