 $NMID ID='MM_0lb_SNR50_17hz_g60_90.RAW', FMTDAT='(8E13.5)'
 TRAMP=1., VOLUME=1. $END
  3.10295E+05  1.19288E+03  3.33740E+05  2.48659E+05  8.31075E+04  3.38284E+05 -1.26912E+05  2.54367E+05
 -1.90926E+05  8.10304E+04 -1.13012E+05 -2.75471E+04 -1.86950E+03 -5.36718E+04  5.14621E+04 -1.30648E+03
  3.76033E+04  5.51851E+04 -1.94392E+04  7.17886E+04 -5.66864E+04  6.65177E+04 -8.50894E+04  3.51046E+04
 -8.07097E+04 -9.01605E+03 -5.53968E+04 -4.81044E+04 -1.71086E+04 -7.17539E+04  2.83793E+04 -4.83514E+04
  3.63037E+04  2.30640E+03  1.72959E+04  4.26958E+04 -3.70247E+04  4.59591E+04 -6.31041E+04  3.87042E+03
 -5.29296E+04 -5.95939E+04 -6.46048E+03 -7.69598E+04  3.73404E+04 -5.35039E+04  4.77669E+04 -1.47079E+04
  4.65091E+04  1.07867E+04  3.20154E+04  2.35294E+04  1.08322E+04  2.87008E+04 -4.84554E+03  2.47599E+04
 -2.08996E+04  1.06297E+04 -1.53380E+04 -4.56468E+03  7.21113E+02 -6.41613E+03  2.37675E+04  1.59575E+04
  4.86307E+03  3.31566E+04 -3.20825E+04  3.74445E+04 -6.45445E+04  4.81556E+03 -6.16559E+04 -4.60442E+04
 -1.14369E+04 -6.55470E+04  4.24975E+04 -4.57740E+04  5.83662E+04 -2.00603E+03  3.43996E+04  3.14274E+04
 -9.10252E+03  3.51590E+04 -2.49304E+04  2.02180E+04 -2.54189E+04 -1.26588E+03 -1.95086E+04 -1.14197E+04
 -1.19047E+04 -1.43453E+04  5.61682E+01 -1.96156E+04  7.58476E+03 -2.89201E+04  1.68352E+04 -1.12593E+04
  1.06943E+04  1.97800E+03 -1.03268E+04  1.22809E+04 -2.36040E+04 -7.64651E+02 -1.09573E+04 -3.33269E+04
  2.49392E+04 -3.83584E+04  4.71773E+04 -1.48172E+04  4.25275E+04  1.60883E+04  1.22065E+04  3.84808E+04
 -1.87460E+04  3.35033E+04 -2.87523E+04  6.56368E+02 -1.18798E+04 -2.90692E+04  2.30369E+04 -3.35173E+04
  3.67253E+04 -9.18564E+03  3.62807E+04  2.23341E+04  1.68938E+04  4.24986E+04 -1.03743E+04  5.12168E+04
 -3.75693E+04  3.72789E+04 -4.07024E+04  7.53022E+03 -3.92540E+04 -1.67372E+04 -2.43507E+04 -3.75559E+04
  5.93448E+03 -3.58934E+04  3.05850E+04 -1.63041E+04  2.99149E+04  1.10293E+04  8.36317E+03  1.70233E+04
 -1.12059E+04  1.06040E+04 -7.05378E+03 -5.69599E+03  7.64491E+03 -7.16757E+03  1.36308E+04  4.57790E+03
  1.13952E+04  1.96377E+04 -6.94599E+03  2.78497E+04 -2.49116E+04  1.21800E+04 -2.79425E+04 -9.04673E+03
 -1.94030E+04 -1.61886E+04 -9.45599E+03 -1.93999E+04  4.52516E+03 -1.54751E+04  1.35763E+04 -1.19976E+04
  2.78170E+04 -9.44698E+03  2.82929E+04  2.25130E+03  2.04358E+04  2.04289E+04  6.89707E+03  3.52109E+04
 -1.70312E+04  2.97446E+04 -2.74600E+04  1.13735E+04 -1.51680E+04 -9.55420E+03  7.87725E+02 -1.42411E+04
 -1.31995E+03 -1.04305E+03 -3.99482E+03  2.27099E+03 -1.43411E+04  4.86580E+03 -1.24435E+04 -6.96378E+03
 -9.20617E+03 -1.48002E+04  8.07549E+03 -2.22627E+04  1.51930E+04 -1.15517E+04  1.72675E+04 -5.71363E+02
  1.07075E+04  9.21698E+03 -1.60346E+03  1.55799E+04 -1.16444E+04  6.76720E+03 -1.52343E+04 -5.82794E+02
 -1.24125E+04 -1.39871E+04 -1.48941E+02 -2.19958E+04  1.19337E+04 -1.45143E+04  1.68680E+04 -1.31189E+04
  1.93927E+04 -2.03401E+03  1.71743E+04  9.77700E+02  6.11003E+03 -2.46474E+03  1.28207E+04 -4.03787E+03
  1.63431E+04  5.02441E+02  1.58745E+04  1.83175E+04  1.20240E+04  3.02844E+04 -1.02152E+02  2.99943E+04
 -2.38805E+04  2.29256E+04 -2.92682E+04  1.45560E+04 -3.23716E+04 -2.50371E+03 -2.39297E+04 -1.76645E+04
 -1.05574E+04 -2.73314E+04  7.81047E+03 -2.24366E+04  1.78471E+04 -1.46645E+04  2.05420E+04  7.38463E+03
  5.15586E+03  1.28326E+04 -6.88279E+03  1.21748E+04 -1.41105E+04  7.01565E+03 -1.09919E+04 -8.20190E+03
 -2.98598E+03 -1.18404E+04  5.25647E+03 -1.05968E+04  1.26240E+04 -1.36689E+03  5.07620E+03  2.18436E+03
 -5.57519E+03  2.68104E+03 -6.83349E+03 -5.60079E+03  1.51107E+03 -7.72436E+03  7.75277E+03 -1.40348E+04
  1.84243E+04 -5.83598E+03  1.70527E+04  4.20993E+03  1.02559E+04  1.17185E+04  6.21347E+03  1.74823E+04
 -4.72660E+03  1.87488E+04 -1.13707E+04  1.21784E+04 -1.28968E+04  5.09444E+03 -1.37697E+04 -6.97829E+02
 -1.98526E+03 -4.66378E+03 -8.76458E+03  4.58434E+03 -2.53880E+03  4.09742E+03 -1.45030E+03  8.18659E+03
 -8.11315E+03 -3.74726E+03 -8.60067E+03 -9.33847E+03 -2.87557E+03 -1.74414E+04  5.09806E+03 -3.99687E+03
  8.54954E+03 -9.64395E+03  1.00812E+04 -1.84395E+03 -1.81144E+03  3.62624E+03 -3.29072E+03 -2.54380E+03
 -1.45013E+03 -8.61595E+03  1.02955E+03 -1.18318E+04  3.38646E+03 -8.29218E+03  1.29801E+04 -2.83908E+03
  1.58242E+04 -9.53629E+02  6.98948E+03  7.55555E+03  1.84541E+02  1.07786E+04 -1.03410E+03  9.36121E+03
 -1.18934E+04  7.08118E+02 -1.97898E+03  8.00249E+01  1.54042E+03 -3.10914E+03  6.67005E+03 -3.48760E+03
  8.65281E+03  9.45118E+03 -1.86215E+02  6.17886E+03 -5.01440E+03  7.10646E+03 -1.05215E+04 -1.30370E+03
 -5.72495E+03 -6.20224E+03  1.82763E+02 -6.71229E+03  6.27025E+03 -4.59065E+03  3.66924E+03  5.30636E+03
  2.18231E+03  2.89563E+03 -4.61828E+03  7.62297E+03 -1.11318E+04  5.03530E+03 -1.05215E+04 -2.73160E+02
 -4.94285E+03 -1.12873E+04  2.67787E+03 -1.23746E+04  3.89062E+03 -8.44527E+03  9.69634E+03 -1.45769E+03
  7.86796E+03  5.58092E+03 -1.50656E+03  3.86868E+03 -5.92897E+03  3.21279E+03 -6.22666E+03  3.03803E+03
 -7.58567E+03 -6.92444E+03 -3.24198E+03 -1.10691E+04  5.52197E+03 -5.88036E+03  3.70960E+03 -2.40197E+03
  5.86106E+03 -2.89119E+02  2.63808E+03  3.59193E+01 -8.65004E+02 -3.96455E+02  2.62302E+03 -8.40336E+02
  6.65718E+03 -5.21782E+03  6.86786E+03 -3.11800E+03  3.85564E+03  5.17590E+03  1.02389E+04  5.49201E+03
 -3.94812E+03  1.45702E+04 -6.13129E+03  6.81899E+03 -1.39657E+04  5.10492E+02 -8.24952E+03 -1.67937E+03
 -2.24411E+03 -5.03539E+03 -4.97388E+03 -4.42661E+03  5.59689E+03 -2.54567E+03  9.96651E+02 -1.54352E+03
  1.81824E+03 -2.82069E+03  1.55936E+03  1.48266E+03  4.14203E+02 -4.49632E+03  3.78775E+03  2.32909E+03
  4.58185E+03 -2.39633E+03 -4.51399E+02  5.65500E+03 -2.09636E+03  1.49554E+03 -1.59596E+03  3.70796E+03
 -4.40625E+03 -2.16046E+03 -4.53388E+03 -3.67169E+03  1.51929E+03 -8.13534E+03  2.53347E+03 -3.70838E+03
  8.44617E+03 -2.49159E+03  8.89725E+03 -1.40282E+02  7.01647E+03  9.66934E+03  4.97592E+02  6.17070E+03
 -6.91465E+03  8.84441E+03 -4.98099E+03  4.90549E+03 -1.78261E+03 -1.11724E+02  7.34681E+02 -7.60654E+02
  3.21168E+03 -5.20086E+03 -1.83634E+03  8.24348E+02 -4.73845E+03 -3.52697E+02 -3.72375E+03 -3.94712E+03
 -3.14450E+02 -8.52788E+02  6.77378E+03 -8.93603E+03 -1.67827E+03 -3.28473E+03  1.39177E+03  6.53620E+02
  5.37516E+03 -2.13274E+02 -3.93451E+03  3.50725E+03  1.79386E+03  3.39660E+03 -1.17236E+03  5.41105E+03
 -2.88602E+03 -4.48616E+01 -4.84031E+03 -6.77827E+03  5.22153E+03 -9.26640E+03  1.63585E+03 -7.01531E+03
  3.62686E+03 -2.55988E+03  1.75104E+03 -9.91010E+02 -7.81682E+02  1.52373E+03 -1.85567E+03 -4.69080E+03
  2.00546E+03  3.87247E+03  2.01666E+03 -4.79760E+02  7.46799E+02 -2.61745E+03 -4.07831E+02  1.21186E+03
 -2.30924E+03  6.69023E+03 -1.92753E+03  4.87270E+03 -1.59688E+03  2.05981E+03 -3.21280E+03  1.45382E+03
 -7.60220E+02 -6.22074E+03  4.91959E+03 -9.03571E+03  8.47645E+02 -3.79903E+03  5.00048E+03 -1.15569E+03
  6.06687E+03 -6.66020E+02 -4.25762E+01 -9.90408E+02 -2.46588E+03  4.43746E+01 -4.16849E+03  1.06045E+03
  1.81048E+03 -2.94259E+03 -1.02745E+03  7.99314E+02  1.12654E+03  1.23350E+03  1.55680E+03 -2.93460E+02
  1.74346E+03  3.72419E+02  2.20675E+03 -1.17434E+03 -3.52474E+03  6.73626E+02  1.40386E+03  1.61513E+03
  2.67509E+03  8.43339E+02  7.03771E+03  4.11519E+03  1.69386E+03  1.55223E+02 -4.10977E+03  2.51339E+03
 -2.24898E+03  3.51461E+03  9.16668E+02  2.59469E+03 -1.42555E+03  2.84339E+03  1.78386E+03 -2.23789E+03
  2.87423E+03 -3.27432E+03 -3.21021E+03 -2.18221E+03 -2.82558E+03  1.75831E+03 -9.57095E+01  5.37727E+03
 -3.21186E+03  6.44918E+02  1.07064E+03 -2.85978E+03 -3.48700E+03 -1.76787E+03  3.22893E+03 -4.82022E+02
 -2.29922E+03 -6.02895E+02  4.46591E+03  2.18173E+03  5.67832E+02  2.74828E+03 -2.18463E+03 -2.34500E+02
 -5.63296E+03  1.33633E+03  1.68701E+03  3.11945E+03  2.49715E+03  6.43206E+02  4.35925E+03 -2.43482E+03
  2.30499E+03  4.82051E+03  8.22389E+03 -4.06752E+03  3.05005E+03  1.89785E+03 -6.56390E+02  4.04168E+03
 -5.21552E+03  1.19923E+03 -4.67496E+03 -3.15761E+03 -1.83236E+03 -1.64789E+01  3.60511E+03 -3.43924E+02
  6.90644E+03  1.81339E+03  4.24139E+01  2.98971E+03 -6.54581E+02  2.95705E+03 -1.90859E+03  4.89197E+03
  2.68441E+03  3.56172E+03 -2.44279E+02 -1.55737E+03  7.77861E+02  1.84372E+03  2.09834E+03  3.30798E+03
 -1.44335E+03  3.72509E+03 -1.25037E+03 -1.12414E+03 -6.35687E+02 -1.50314E+03 -5.48449E+03  1.11277E+03
 -2.32172E+03 -4.51781E+03 -9.15623E+02 -5.41060E+03  2.32971E+03 -1.12364E+03  7.05353E+03 -4.76105E+02
 -1.18868E+03 -1.62150E+03  2.72021E+03  2.10801E+03 -1.50977E+03  9.09162E+02 -3.31282E+03  3.91315E+03
  2.57319E+02  1.42216E+03  9.99367E+02 -2.63199E+03 -3.35017E+03  1.97310E+03 -2.64679E+03 -2.61201E+03
  1.78591E+03  1.20414E+03  2.43954E+03 -4.97428E+03  1.39688E+03  3.37558E+03 -4.09612E+02 -5.59450E+02
  2.25460E+03 -5.96219E+03  3.63800E+03 -1.18501E+03 -8.82069E+01 -5.42824E+02 -2.50411E+03  1.50075E+03
 -1.39624E+03  1.36560E+03 -4.37003E+03  6.14723E+03 -1.56685E+03 -2.30685E+03 -6.43881E+03 -6.65742E+03
  1.66665E+03 -6.61239E+02 -3.07799E+02  2.15335E+03  2.75413E+03  1.30812E+03  1.30364E+03  6.17311E+02
  3.19663E+03 -1.42613E+03  1.26639E+03 -3.28987E+03  2.10889E+03 -2.67893E+03 -1.40452E+03  7.04878E+01
 -1.38011E+03  3.78372E+03  1.90014E+03 -3.52178E+01  1.59604E+03 -2.81076E+03 -2.77602E+02 -1.24038E+02
 -3.33945E+03  1.01448E+03  1.61079E+03 -2.05816E+03 -2.74459E+03  1.71372E+03  1.29556E+02 -6.64311E+03
  4.19066E+02 -1.75001E+03  6.69216E+03  1.15136E+03 -8.49651E+02  2.92270E+03 -1.21110E+03 -5.41704E+00
  1.65926E+02  9.12003E+02  3.26814E+03 -1.05726E+03  2.91607E+03  6.09593E+02 -9.56846E+01  1.67844E+03
  7.93400E+02  3.09846E+03  3.74500E+02  7.65210E+02 -3.05623E+03 -2.90440E+03 -3.31648E+02 -4.15458E+02
 -1.90781E+03  1.62527E+03  6.61157E+01 -1.42785E+03  2.85717E+03 -5.21591E+03  1.12601E+03 -1.27951E+03
 -2.92522E+03  2.60633E+03  1.23537E+03  1.79229E+03 -1.09083E+03  9.81673E+02 -4.66865E+03 -2.00255E+03
