 $NMID ID='MM_0lb_SNR50_20hz_g60_59.RAW', FMTDAT='(8E13.5)'
 TRAMP=1., VOLUME=1. $END
  3.07932E+05 -1.06917E+03  3.40957E+05  2.51577E+05  8.40601E+04  3.41506E+05 -1.34208E+05  2.53496E+05
 -1.91425E+05  7.86053E+04 -1.08218E+05 -3.13251E+04  2.82727E+03 -5.05859E+04  5.47154E+04  3.94897E+03
  3.26495E+04  4.55704E+04 -1.73695E+04  7.29601E+04 -6.15132E+04  6.10188E+04 -8.23975E+04  3.15479E+04
 -8.28119E+04 -1.48045E+04 -5.53735E+04 -4.87045E+04 -1.53718E+04 -6.63177E+04  2.85953E+04 -4.36992E+04
  3.84356E+04  2.50497E+03  1.70135E+04  4.51818E+04 -3.14826E+04  4.81468E+04 -7.09578E+04  4.11425E+02
 -5.04976E+04 -5.55302E+04 -8.15555E+03 -7.39402E+04  3.43833E+04 -5.28456E+04  4.43635E+04 -1.66388E+04
  4.35759E+04  7.08807E+03  2.86837E+04  2.47321E+04  1.44774E+04  3.14079E+04 -9.69147E+03  2.46103E+04
 -1.89082E+04  1.26902E+04 -2.17928E+04 -3.33990E+03 -6.36108E+02 -1.05499E+04  2.17156E+04  1.08165E+04
  6.54004E+03  3.46952E+04 -2.96860E+04  3.85139E+04 -6.21040E+04 -1.09834E+03 -5.67621E+04 -4.12750E+04
 -1.20186E+04 -6.17728E+04  3.65391E+04 -4.18427E+04  5.64762E+04 -1.46683E+03  3.75876E+04  2.54010E+04
 -8.21826E+03  3.76637E+04 -2.96478E+04  1.42713E+04 -2.67124E+04 -7.28146E+03 -1.22359E+04 -1.16989E+04
 -6.91827E+03 -1.41559E+04  2.61573E+03 -1.65683E+04  5.61765E+03 -2.51803E+04  1.25532E+04 -1.28287E+04
  1.10195E+04  7.58741E+03 -6.56971E+03  1.36778E+04 -2.07947E+04 -4.97514E+03 -8.43169E+03 -2.97944E+04
  2.41762E+04 -3.96647E+04  4.29505E+04 -1.70382E+04  4.18094E+04  1.63701E+04  1.52583E+04  3.91732E+04
 -1.24372E+04  3.14779E+04 -2.19502E+04  5.68847E+03 -1.11828E+04 -2.57359E+04  1.84884E+04 -3.04393E+04
  4.17159E+04 -5.93679E+03  3.59647E+04  2.21923E+04  1.30097E+04  4.13318E+04 -5.32568E+03  4.38602E+04
 -3.03634E+04  2.80925E+04 -4.04039E+04  4.47271E+03 -3.89780E+04 -1.58241E+04 -1.57837E+04 -3.79294E+04
  8.33055E+03 -3.76169E+04  3.19810E+04 -1.81145E+04  2.77277E+04  9.57795E+03  2.21382E+03  2.02783E+04
 -1.49543E+04  7.00971E+03 -5.02588E+03 -1.00953E+04  8.67010E+03 -1.21475E+04  1.70665E+04  1.05817E+04
  1.09642E+04  2.04449E+04 -4.52171E+03  1.94899E+04 -2.19107E+04  6.59611E+03 -2.45609E+04 -6.85109E+03
 -1.85012E+04 -1.87544E+04 -1.00684E+03 -1.87410E+04  4.59240E+03 -1.55472E+04  1.61584E+04 -1.80411E+04
  1.88433E+04 -1.32887E+04  2.96456E+04 -3.79731E+02  2.17333E+04  1.89629E+04  2.73020E+03  3.52444E+04
 -1.42715E+04  2.83625E+04 -2.35851E+04  4.74407E+03 -2.02155E+04 -1.61964E+04 -6.37830E+03 -1.31573E+04
  2.75642E+03 -5.14592E+03 -4.04602E+03  3.60904E+03 -1.18534E+04  4.64783E+03 -1.21842E+04 -5.12509E+03
 -5.99761E+03 -1.65068E+04  6.80833E+03 -1.89908E+04  1.22427E+04 -1.31613E+04  1.02879E+04 -1.56743E+03
  6.92901E+03  1.08768E+04 -2.41945E+03  1.17079E+04 -1.24406E+04  8.80082E+03 -1.74164E+04 -4.28367E+03
 -1.28207E+04 -1.49378E+04 -1.38898E+03 -1.66948E+04  1.11009E+04 -1.93405E+04  1.54566E+04 -9.11845E+03
  1.35266E+04 -2.16243E+03  9.44606E+03  1.07836E+03  5.40528E+03 -3.84814E+02  9.01365E+03  5.32000E+01
  1.51512E+04  2.18605E+03  1.78304E+04  1.07913E+04  1.05289E+04  2.29887E+04 -1.74218E+03  2.60910E+04
 -2.14056E+04  2.40071E+04 -2.82987E+04  9.55569E+03 -2.67247E+04  5.67410E+02 -2.01622E+04 -1.35140E+04
 -1.16621E+04 -1.72614E+04  5.47579E+03 -1.73056E+04  2.03956E+04 -1.15908E+04  1.63275E+04  4.58475E+03
  4.04230E+03  1.24070E+04 -1.02565E+04  1.01793E+04 -1.21504E+04  3.32352E+03 -1.15819E+04 -9.51967E+03
 -3.99755E+02 -1.36891E+04  6.35731E+03 -6.81515E+03  1.15915E+04 -1.34642E+03 -9.31464E+02  5.92760E+03
 -4.85859E+03 -1.09685E+03  3.57068E+03 -5.33933E+03 -1.21091E+01 -1.02228E+04  8.89257E+03 -1.42570E+04
  1.13045E+04 -3.50054E+03  1.35990E+04  5.79535E+03  8.03384E+03  3.71576E+03  6.36937E+03  1.44654E+04
 -2.05238E+02  2.06110E+04 -9.21206E+03  6.94042E+03 -1.05353E+04  1.95976E+03  5.90422E+02  2.50170E+02
 -2.58108E+03 -7.91833E+03 -9.15191E+02  4.40355E+03 -5.42448E+02  4.74081E+03 -1.20577E+03  7.05419E+03
 -9.91936E+03  2.81503E+03 -9.40075E+03 -7.51247E+03 -7.77489E+03 -8.40785E+03  5.85125E+03 -8.88168E+03
  9.61137E+03 -5.05323E+03  3.87483E+03  6.48060E+03  1.16487E+03  5.41682E+03 -2.17801E+03 -2.72017E+03
 -3.79777E+03 -4.19380E+03 -1.81568E+03 -7.71775E+03  7.18477E+03 -6.64743E+03  1.14182E+04 -1.54659E+03
  9.58508E+03  8.07126E+02  1.05667E+04  5.50346E+03  1.57423E+03  1.30578E+04 -4.38198E+03  6.87969E+03
 -7.27286E+03  4.81122E+03 -3.36618E+03  2.10727E+03  4.27999E+02 -1.03632E+03  5.42009E+03  6.84658E+02
  2.83137E+03  1.49245E+03  1.92107E+03  2.69935E+03 -7.66086E+03  7.27238E+03 -6.81443E+03  2.68557E+03
 -5.70625E+03 -1.25814E+03  2.19225E+03 -9.16990E+03  2.27326E+03 -3.10255E+03  2.32358E+03 -1.90370E+02
 -1.38128E+03  1.02201E+03 -5.35815E+03  8.55002E+03  1.45535E+03  5.09237E+03 -3.49027E+03  2.22630E+03
 -1.66586E+03 -1.37242E+03  1.55412E+03 -7.23321E+03  7.44092E+03 -3.31404E+02  7.34573E+03  1.43410E+03
  7.06067E+01  8.08903E+01 -1.24612E+03  3.62083E+03 -6.82596E+03  7.98634E+03 -1.17251E+04  9.25879E+02
 -5.56527E+03 -5.16322E+03 -2.44511E+03 -4.49854E+03  5.62274E+02 -6.00408E+03 -1.10609E+03 -4.31017E+03
  2.07620E+03 -1.56888E+02 -5.07231E+01  1.81235E+03  1.23907E+03 -1.54587E+03 -3.51594E+03 -4.21736E+03
  4.34368E+03 -5.14819E+02  3.47662E+03 -6.18069E+02  5.36298E+03  5.60753E+03  9.08744E+03  3.75064E+03
 -7.13836E+02  9.73432E+03 -7.71714E+03  8.94122E+03 -8.29402E+03  5.52945E+03 -6.73756E+03 -1.77289E+03
 -3.39733E+03 -8.71696E+03  1.22620E+03 -4.60653E+03  1.74836E+03 -2.64958E+03  4.74471E+03 -1.78970E+02
  8.94026E+02 -8.03873E+02 -1.22404E+01 -2.12586E+03  2.95441E+03 -3.65083E+03  6.06933E+03 -4.67057E+03
  5.11069E+03  6.88604E+02  2.41500E+03  2.33051E+03 -1.57276E+03  1.46757E+03 -7.94099E+03  3.68818E+03
 -5.34176E+03 -4.25338E+03 -4.80955E+03 -4.14523E+03 -2.54847E+02 -3.06981E+03  3.50786E+03 -6.06564E+03
  3.18665E+03 -1.91357E+03  4.71276E+03 -4.63790E+02  4.31519E+03  4.95864E+03  6.43795E+02  1.25645E+03
 -1.58289E+03  4.08674E+03 -4.88581E+03  3.37112E+03  6.05275E+00 -2.38118E+03 -1.74481E+03  2.55779E+03
 -2.35477E+02 -1.74547E+03 -2.17679E+03  4.56898E+03 -4.60886E+03 -4.06046E+02 -7.18741E+03  7.70821E+02
 -6.22777E+02 -5.69074E+03 -1.28297E+03 -3.20793E+03  1.44795E+02 -4.50668E+03  1.24324E+03 -4.66091E+02
  7.55760E+03  3.83178E+03  1.47771E+03  1.11922E+03  1.74105E+03  6.15562E+03  2.13733E+03  1.76841E+03
 -5.03972E+03 -2.93717E+03 -6.76728E+02 -2.05289E+03  1.96279E+03  7.63844E+02  3.84924E+03 -7.40196E+03
  2.91854E+03  5.49186E+02  2.94619E+03 -3.12235E+03  3.10372E+03  3.85127E+03  6.86537E+03  4.48144E+03
  2.42907E+03  4.88063E+03  6.89920E+03 -2.02334E+03 -1.84709E+01  2.16317E+03  2.37816E+02  1.06808E+03
  1.26033E+02  1.10669E+03 -2.04922E+03  3.62969E+03 -2.63011E+03  3.27775E+03 -1.59869E+03 -1.08348E+03
  4.41326E+02 -3.12578E+02 -1.55147E+03 -5.72514E+03  1.91635E+02 -3.11298E+03  9.77537E+02  3.02722E+03
 -1.17867E+03  4.73168E+03 -3.68891E+03  4.72922E+03 -2.57315E+03 -5.69256E+02 -2.29757E+03 -1.92967E+02
 -4.34497E+03 -3.29301E+03 -2.23049E+03  1.15565E+03  8.02302E+02 -3.65775E+03  5.47316E+03 -2.50875E+03
  1.76716E+03  2.04547E+03  3.45286E+03  1.91023E+03  2.26115E+02 -1.50783E+03  2.07693E+03 -1.37798E+03
 -7.19964E+02 -1.91200E+03  2.56282E+03  5.82711E+02 -1.04785E+03  5.55341E+03 -2.89887E+03  1.14832E+03
 -4.52133E+02  2.25816E+03 -2.41096E+03  9.03540E+02 -5.77408E+03 -7.46822E+02 -3.96484E+03 -1.62723E+01
  8.72752E+02 -7.80703E+02 -2.45519E+03 -1.26098E+03  2.18145E+03  1.88721E+03 -1.24147E+03  1.07474E+03
 -2.93750E+02  1.50239E+03 -7.57359E+02 -6.00819E+02 -3.35984E+03 -3.61937E+03  1.76251E+03  1.49192E+03
 -8.43072E+02 -1.05432E+03  6.34031E+02  2.88783E+03  3.40106E+03 -2.75153E+03  3.29906E+03  3.86483E+03
 -3.24584E+03 -2.41855E+03  7.87439E+02  2.04101E+03  2.02798E+03 -3.15314E+03 -3.29124E+02 -3.61104E+02
 -2.84262E+02 -1.21957E+03  1.77225E+03 -4.39713E+02 -4.82387E+02  1.97807E+03  1.35254E+03 -1.28700E+03
 -2.43057E+03  3.78864E+03 -1.29377E+03  1.47543E+03 -2.37280E+02 -3.25514E+03  2.85946E+03  6.69328E+02
  8.10344E+02 -4.28019E+03  2.40755E+03  1.91510E+03 -1.25449E+02  1.18435E+03 -2.04542E+03 -1.29186E+03
  1.82802E+03  1.93499E+03 -8.02049E+02 -7.98821E+02  1.38700E+03 -4.17035E+03  1.50499E+03  3.92991E+03
 -1.50738E+03  3.88166E+03 -3.88274E+03 -3.03228E+03  1.64250E+03  1.55180E+03 -6.53707E+03  1.24609E+03
 -1.08209E+03 -2.31585E+03  8.37354E+02 -3.83764E+03  2.35581E+03 -4.14055E+03  2.89601E+03 -3.92992E+03
  1.74916E+03  1.23873E+03  9.41148E+02  1.76285E+03  1.27239E+03  1.14506E+03 -1.22924E+03  1.70850E+03
  1.03623E+03  3.80660E+03  1.22010E+03  1.16816E+03  1.70419E+03 -2.13978E+03 -1.25263E+03  2.03356E+03
 -3.40963E+03  2.02999E+02 -7.60383E+03 -2.93965E+02  1.47947E+03 -2.88547E+03 -3.98326E+03 -4.97623E+03
  2.79618E+03 -2.05969E+03  1.29932E+02  3.18052E+03 -1.39699E+02  4.74137E+03  4.95425E+02  9.11489E+02
 -1.36940E+03  2.18585E+03 -2.61781E+03  2.02981E+03 -8.02916E+02 -7.49747E+02  5.33431E+02 -5.24522E+03
  2.24140E+03  2.42133E+02 -2.96228E+03  3.07383E+03  3.77813E+03 -1.98826E+03 -2.01175E+03  1.82609E+02
  2.93015E+03 -1.04587E+03 -9.36357E+02  9.56446E+01 -5.49437E+02  3.26658E+03  3.16285E+03  4.24757E+02
 -4.41935E+01 -1.19730E+03 -7.20409E+02  3.13586E+02  2.27383E+03 -5.64345E+03 -4.69291E+03 -9.81962E+02
 -6.51918E+03 -2.33277E+03 -2.28494E+03  4.75409E+03 -1.16637E+03 -2.28696E+02 -1.90314E+03 -7.29166E+02
 -3.35280E+02 -4.41359E+03 -1.52020E+03 -6.53314E+02  2.87579E+03 -5.15186E+03  1.49434E+03  1.89746E+03
 -2.42787E+03 -1.53428E+03 -1.56537E+03 -3.03379E+03  3.50834E+03  2.09502E+03 -4.56784E+02  4.08197E+03
  4.14938E+03 -8.12125E+02 -3.41103E+02  1.82724E+03  3.40600E+03  1.74904E+03  1.09006E+03  3.77224E+03
  3.49414E+03 -2.48056E+03  4.66022E+03  2.54746E+03  7.81684E+03 -1.66930E+03  6.31511E+01 -5.86118E+03
  5.25139E+03  8.88949E+02 -1.42319E+03  2.85743E+03 -2.02105E+02  1.38679E+03  1.42106E+03  2.01658E+03
