 $NMID ID='MM_0lb_SNR50_7hz_g40_58.RAW', FMTDAT='(8E13.5)'
 TRAMP=1., VOLUME=1. $END
  3.10458E+05  2.58332E+03  3.34750E+05  2.46135E+05  8.27179E+04  3.29188E+05 -1.35539E+05  2.53584E+05
 -1.91280E+05  8.25757E+04 -1.05973E+05 -3.12341E+04  5.09683E+03 -4.59583E+04  5.40270E+04  3.71610E+03
  3.99827E+04  5.54463E+04 -1.43601E+04  7.92460E+04 -5.72858E+04  6.38670E+04 -8.79277E+04  3.66171E+04
 -7.94912E+04 -6.21199E+03 -5.69623E+04 -5.93026E+04 -1.11388E+04 -6.39536E+04  2.25780E+04 -4.69160E+04
  4.00683E+04  1.35095E+03  1.05535E+04  5.06737E+04 -4.23044E+04  4.75505E+04 -7.24018E+04 -8.33734E+02
 -5.52556E+04 -5.58206E+04  7.55036E+02 -7.82272E+04  3.16968E+04 -6.06296E+04  5.02571E+04 -1.59344E+04
  5.05068E+04  1.40997E+04  3.25589E+04  2.31321E+04  2.19856E+04  3.77480E+04 -4.90173E+03  2.95240E+04
 -1.68176E+04  1.51053E+04 -1.38373E+04 -4.90971E+03  8.26337E+03 -9.59441E+03  2.25095E+04  1.83735E+04
  1.02283E+04  2.81511E+04 -3.46277E+04  3.84681E+04 -7.21903E+04  1.47074E+03 -6.60400E+04 -4.24868E+04
 -1.13110E+04 -6.91489E+04  3.83395E+04 -4.57665E+04  6.96634E+04 -7.93000E+03  3.23790E+04  3.51809E+04
 -8.49127E+03  3.67703E+04 -3.56712E+04  1.64477E+04 -3.25200E+04 -1.03844E+04 -2.38235E+04 -1.12647E+04
 -9.76253E+03 -1.04909E+04 -6.79380E+03 -1.95007E+04  1.07685E+04 -2.58184E+04  1.08853E+04 -3.61564E+03
  1.27223E+04  7.82326E+03 -1.01561E+03  1.92162E+04 -1.99550E+04 -4.14784E+03 -1.37325E+04 -4.02430E+04
  2.26158E+04 -5.41598E+04  4.77028E+04 -2.54737E+04  4.91746E+04  2.17304E+04  1.79574E+04  4.65032E+04
 -1.78301E+04  3.44980E+04 -2.42591E+04  7.44462E+03 -1.20160E+04 -2.34637E+04  2.86209E+04 -3.67227E+04
  4.60053E+04 -1.10101E+04  4.04443E+04  1.72477E+04  1.95418E+04  5.36732E+04 -9.68955E+03  5.09170E+04
 -4.04118E+04  4.18471E+04 -4.42578E+04  6.02610E+03 -4.90965E+04 -2.88789E+04 -2.25046E+04 -3.77555E+04
  1.33620E+04 -3.65685E+04  3.94185E+04 -2.21643E+04  4.06761E+04  1.75210E+04  1.09161E+03  2.07223E+04
 -1.38102E+04  1.04818E+04 -1.96613E+04 -1.11869E+04  7.35603E+03 -1.13176E+04  1.25852E+04  4.00130E+03
  1.99367E+04  2.41402E+04 -2.88679E+03  3.65827E+04 -2.19276E+04  1.35011E+04 -3.52707E+04 -1.09931E+03
 -2.71562E+04 -1.87491E+04 -1.94348E+04 -2.37437E+04  1.85691E+03 -2.65227E+04  2.17552E+04 -1.78241E+04
  4.00803E+04 -1.10591E+04  4.38206E+04  7.31172E+03  3.27943E+04  3.02921E+04  5.13310E+03  4.20896E+04
 -2.49703E+04  3.63933E+04 -2.58166E+04  1.67428E+04 -2.18967E+04 -2.04819E+03 -8.05781E+01 -6.74572E+03
  6.77359E+03  5.93649E+03 -7.97242E+03  1.22343E+04 -1.39239E+04  7.42993E+03 -2.20843E+04 -1.12749E+04
 -1.05317E+04 -2.64579E+04  7.50275E+03 -3.06415E+04  1.82754E+04 -2.01531E+04  3.05742E+04  9.90267E+02
  1.20098E+04  2.47131E+04 -1.30719E+03  2.09796E+04 -1.67411E+04  1.10872E+04 -2.04267E+04 -1.19826E+04
 -2.00374E+04 -2.51044E+04 -6.81372E+03 -1.98090E+04  7.67920E+03 -2.46860E+04  2.81946E+04 -8.75580E+03
  2.76638E+04  1.89400E+03  1.22104E+04  7.23746E+01  8.16515E+03  3.41787E+02  8.09830E+03  3.81529E+03
  2.12086E+04  9.29822E+03  2.18811E+04  1.27973E+04  2.15630E+04  3.49507E+04 -6.04809E+02  4.09516E+04
 -3.06661E+04  3.25452E+04 -4.46720E+04  2.29318E+04 -4.76551E+04 -4.46247E+03 -3.70906E+04 -2.32194E+04
 -7.98216E+03 -3.94967E+04  1.18986E+04 -2.81238E+04  2.37260E+04 -1.26769E+04  2.42618E+04  1.50657E+04
 -2.83280E+03  1.68787E+04 -1.34833E+04  1.45059E+04 -2.06015E+04  1.07862E+04 -1.02058E+04 -1.62172E+04
 -3.68474E+03 -2.07799E+04  1.04002E+04 -1.58209E+04  1.08973E+04 -1.12949E+03 -4.60182E+02  7.78307E+03
 -1.05308E+04  1.72193E+03 -1.43626E+04 -1.06996E+04  5.36926E+03 -2.08794E+04  1.69000E+04 -2.50231E+04
  2.06754E+04 -6.27117E+03  2.43821E+04  3.61929E+03  3.05141E+04  1.35100E+04  1.39118E+04  2.85599E+04
 -1.03908E+04  3.08026E+04 -2.10418E+04  2.37694E+04 -2.14588E+04  3.75377E+03 -1.49317E+04 -3.75787E+03
 -9.44515E+03 -9.70722E+03 -3.81873E+03 -9.98154E+02 -1.11781E+04  4.23024E+03 -7.57824E+03  6.40497E+03
 -1.70884E+04  4.99407E+03 -2.04710E+04 -9.66445E+03 -3.97596E+03 -2.48442E+04  1.81736E+03 -1.89829E+04
  2.01628E+04 -1.11274E+04  6.60671E+03  6.24415E+03 -1.90011E+03  1.79586E+03 -9.21769E+03  2.15897E+03
 -1.19281E+04 -1.11226E+04  6.72538E+02 -1.66362E+04  9.66445E+03 -1.83447E+04  1.77461E+04 -1.26602E+04
  2.75351E+04  7.49423E+03  2.33584E+04  1.34969E+04  4.00403E+03  1.83416E+04 -9.81488E+03  2.24391E+04
 -4.59703E+03  3.56320E+02 -7.69346E+03 -9.43775E+03  8.80020E+03 -2.59615E+03  1.59511E+04 -9.74998E+02
  8.01372E+03  8.57198E+03  2.50038E+03  1.23224E+04 -1.77344E+04  1.43134E+04 -1.86525E+04  5.10921E+03
 -1.65582E+04 -7.73920E+03 -3.49713E+03 -1.90265E+04  7.59830E+03 -1.19126E+04  5.07340E+03  7.61650E+03
 -3.74978E+02  6.53000E+03 -7.90733E+03  6.05403E+03 -1.28758E+04  6.84410E+03 -1.81067E+04 -9.28885E+03
 -6.74473E+03 -1.67696E+04  1.28423E+03 -1.37838E+04  2.23470E+04 -1.28062E+04  2.42145E+04 -8.57439E+02
  1.10432E+04  5.25547E+03 -3.10955E+03  1.60715E+04 -8.35159E+03  1.45563E+04 -1.46170E+04 -2.78954E+03
 -1.06751E+04 -1.13278E+04 -2.26443E+02 -1.49198E+04  7.29618E+03 -1.17512E+04  3.49417E+03 -4.04045E+03
  6.19130E+03  2.72724E+03 -5.32254E+02  2.49950E+03 -2.47977E+03 -6.42508E+03 -1.35703E+02 -1.03963E+04
  9.48104E+03 -4.07138E+03  1.56039E+04 -2.31533E+03  1.88817E+04  1.97550E+04  8.21669E+03  2.55428E+04
 -8.78234E+02  3.07185E+04 -1.87768E+04  2.48931E+04 -2.84696E+04  2.47370E+03 -2.05445E+04 -8.43008E+03
 -1.45834E+04 -2.24976E+04 -2.59281E+03 -1.52399E+04  6.11434E+03 -1.28572E+04  1.27961E+04 -6.94531E+03
  7.64728E+03  1.70826E+02  7.32640E+03 -5.03723E+03  7.19483E+03 -5.57301E+03  7.22419E+03 -4.63836E+03
  8.87491E+03  4.45641E+03  3.24230E+03  1.23458E+04 -7.01644E+03  1.29203E+04 -1.35885E+04  3.46042E+03
 -1.60154E+04  1.04192E+03 -1.44997E+04 -1.49608E+04 -1.79441E+03 -2.31080E+04  4.38131E+03 -2.01760E+04
  1.80026E+04 -9.84313E+03  2.13802E+04  3.61505E+03  1.51439E+04  1.51268E+04 -2.24098E+03  1.27285E+04
 -5.22372E+03  1.68934E+04 -1.90875E+04  1.22634E+04 -1.68107E+04 -2.85952E+03 -8.32137E+03 -6.94337E+03
 -4.99875E+03 -1.71992E+03 -2.04019E+03  6.85473E+03 -1.08135E+04  1.54667E+02 -4.39201E+03 -7.25826E+03
 -1.56300E+04 -1.77002E+04 -2.69422E+03 -1.54086E+04  6.41538E+03 -1.59566E+04  1.33490E+04  1.94272E+02
  2.15551E+04  9.30405E+03  6.34517E+03  1.82235E+04 -5.15275E+03  1.99902E+04 -2.70109E+03  1.37622E+04
 -1.44933E+04 -3.74103E+03 -1.33916E+04 -1.05513E+04  2.82283E+03 -1.95250E+04  1.62551E+03 -6.82172E+03
  1.06265E+04 -8.48966E+03  9.71298E+03 -1.43266E+02  2.89331E+02  5.04356E+02 -1.20348E+03  7.59284E+03
  9.11805E+03  1.22083E+03  5.81924E+03  7.58612E+03  5.62311E+03  1.02653E+04  5.00222E+03  1.85217E+03
 -6.54716E+03  1.25720E+04 -1.04028E+04  1.51230E+04 -2.06552E+04  5.13089E+03 -1.51858E+04 -1.05973E+04
 -4.80594E+03 -1.77989E+04  1.09679E+03 -2.01953E+04  6.79462E+03 -9.96940E+03  2.04293E+04 -8.20049E+03
  1.68128E+03  7.10637E+03  1.90432E+03  7.44190E+03 -2.81918E+03  1.00768E+04 -4.64442E+03 -5.77562E+03
 -3.78401E+03 -1.01725E+04 -3.25556E+03 -8.77202E+03  1.13253E+04 -7.16063E+03  1.11141E+04 -1.45299E+03
  5.62396E+03 -1.17592E+02  8.01300E+03  1.42377E+03 -3.02781E+03 -4.40529E+02 -1.39386E+03  5.32531E+03
 -3.56235E+03 -5.87997E+03  1.28035E+04  1.23112E+04  3.59876E+01  1.08003E+04 -5.61879E+03  1.94093E+04
 -1.19214E+04  8.01516E+03 -1.91032E+04  3.46143E+03 -7.89956E+03 -9.86745E+03 -5.43006E+03 -7.15418E+03
  5.89375E+03 -8.14054E+03  1.93960E+03 -2.72251E+03  2.31560E+03  6.21870E+03  1.47683E+03  3.68732E+03
 -8.38842E+03  3.17819E+03 -6.59368E+03 -3.22769E+03  4.54367E+03 -1.04924E+04  2.42755E+02 -1.21156E+04
  3.93346E+03 -6.78145E+02  2.21914E+03  2.89566E+03  1.12702E+04 -6.21356E+02 -5.83868E+03  4.40812E+03
  1.21862E+03  4.63020E+03 -6.43593E+03 -3.08989E+03  3.11384E+02 -4.47024E+03  1.06634E+04 -1.21665E+04
  1.34173E+04  5.93869E+03  4.90137E+03  1.52703E+04  5.02878E+03  8.56575E+03 -4.06328E+03  1.40914E+04
 -1.08540E+04  5.39786E+03 -4.82978E+03 -2.29356E+03 -9.53189E+03 -1.02451E+04  1.11704E+04 -6.08841E+03
  2.97175E+03 -6.59690E+03  5.49610E+03 -8.74609E+02 -5.59362E+02  6.02374E+03 -9.40567E+03  5.80738E+03
 -1.32944E+04  6.17628E+03  4.65905E+02 -6.38192E+02 -4.38802E+03  2.31423E+03 -7.86740E+03 -2.01267E+03
 -8.14414E+03  4.34219E+03 -9.04918E+03  7.13631E+02 -1.52412E+04  8.81057E+03 -1.32453E+04 -9.05614E+03
 -8.31789E+03 -2.32854E+04  7.27390E+03 -1.41264E+04  5.26999E+03 -1.55391E+04  2.83391E+04 -6.53917E+03
  2.15409E+04  1.67601E+03  1.12557E+04  3.99316E+03  5.47386E+03  1.88859E+04 -6.67492E+03  9.03499E+03
 -1.07340E+04  4.07502E+03 -7.70002E+02 -1.82572E+03  5.20381E+03  8.52941E+03 -5.70727E+03  7.70879E+02
  2.28193E+03 -9.12139E+02 -1.83961E+03 -2.04991E+03 -1.41539E+04 -1.59620E+03  2.27118E+03 -6.65605E+03
  1.18474E+04 -3.52847E+03  6.89502E+03 -1.62077E+03  6.45708E+03  6.48158E+03  4.87520E+02  1.26296E+04
 -4.44941E+03  2.02625E+04 -1.06398E+04  1.00256E+04 -1.90399E+04 -2.79344E+03 -1.17746E+04 -9.19228E+03
  2.76596E+03 -1.56813E+04  2.55644E+03 -9.58133E+03  1.07609E+04 -1.23240E+04  1.30771E+04 -3.53722E+03
  4.69286E+03  5.02316E+03 -2.95696E+03  6.09210E+03 -3.60209E+02 -2.23200E+03  7.20723E+03 -4.81790E+03
  5.08327E+03 -9.22164E+02  8.31353E+02  4.15191E+03  7.17494E+03  9.05808E+03  1.30257E+04  6.61684E+03
 -8.48444E+03  4.69282E+03 -7.03831E+03 -1.86699E+03 -1.05892E+04 -4.90579E+03  3.37129E+03 -1.31037E+04
  1.42060E+04 -6.47908E+03  1.36568E+04 -1.12312E+04  7.90469E+03  4.81202E+03 -3.47729E+03  1.69146E+04
  2.24010E+03  1.58179E+03  5.17516E+03  9.56151E+03 -1.40322E+04  7.45062E+02 -4.57436E+03  6.01932E+02
 -9.29871E+03  3.49914E+03 -4.34181E+03  4.67531E+03 -4.69607E+03  8.31456E+03 -4.24403E+03 -2.91161E+03
 -1.13897E+04 -1.11599E+04  1.16432E+03 -1.54195E+04  5.87435E+03 -5.49049E+03  6.65590E+03 -2.54259E+03
  1.33303E+04  9.98709E+02  1.49864E+03  1.25081E+04 -9.73016E+02  1.17492E+04 -1.15187E+03  7.03334E+03
