 $NMID ID='MM_0lb_SNR50_12hz_g50_91.RAW', FMTDAT='(8E13.5)'
 TRAMP=1., VOLUME=1. $END
  3.13810E+05  4.07946E+03  3.43727E+05  2.48024E+05  7.97019E+04  3.38265E+05 -1.33341E+05  2.53792E+05
 -1.89020E+05  8.55687E+04 -1.09867E+05 -3.52062E+04 -5.84946E+01 -5.29233E+04  5.45031E+04 -2.61078E+03
  3.16993E+04  5.11632E+04 -2.04522E+04  7.57786E+04 -6.08538E+04  6.81966E+04 -8.64940E+04  3.31508E+04
 -8.24237E+04 -1.41043E+04 -5.89896E+04 -4.99277E+04 -1.36872E+04 -6.91927E+04  2.90586E+04 -4.49349E+04
  4.10732E+04  4.14111E+03  1.99368E+04  4.93807E+04 -3.03467E+04  4.43548E+04 -6.76545E+04 -2.03769E+02
 -5.13484E+04 -5.45483E+04 -5.29736E+03 -7.99156E+04  3.33759E+04 -5.64148E+04  4.07380E+04 -2.11032E+04
  4.62491E+04  6.23070E+03  3.44091E+04  2.90006E+04  1.50192E+04  2.96363E+04 -4.98686E+03  1.80597E+04
 -1.95939E+04  1.26569E+04 -2.12760E+04 -7.01484E+03 -1.22603E+02 -9.00330E+03  2.40317E+04  2.09283E+04
  4.10021E+03  3.56776E+04 -3.62332E+04  3.27756E+04 -6.78468E+04  3.81220E+03 -5.62512E+04 -4.23980E+04
 -1.23767E+04 -6.35171E+04  4.05007E+04 -4.39029E+04  6.08134E+04  6.76923E+02  3.94173E+04  3.12726E+04
 -4.73838E+03  3.69416E+04 -3.27087E+04  1.51680E+04 -2.61519E+04 -3.48487E+03 -1.47413E+04 -6.02144E+03
 -9.10025E+03 -8.10064E+03  3.86889E+03 -1.89393E+04  3.12760E+03 -2.29790E+04  1.33571E+04 -1.04102E+04
  1.80600E+04  4.97946E+03 -4.70409E+03  1.58614E+04 -1.86253E+04 -6.93125E+03 -8.76544E+03 -4.10268E+04
  2.30023E+04 -4.33025E+04  4.82487E+04 -1.73083E+04  4.69159E+04  2.54453E+04  1.73784E+04  4.58573E+04
 -1.04268E+04  3.00951E+04 -2.37143E+04  1.39121E+03 -2.91498E+03 -3.04981E+04  2.64374E+04 -3.39939E+04
  4.66615E+04 -6.41768E+03  3.84905E+04  2.55627E+04  1.76115E+04  4.64787E+04 -3.40199E+03  5.56706E+04
 -3.50093E+04  3.49086E+04 -4.81771E+04  1.23379E+04 -4.21040E+04 -1.33028E+04 -2.59151E+04 -3.83357E+04
  1.78631E+03 -3.93491E+04  3.58419E+04 -1.15684E+04  3.43836E+04  1.38532E+04 -5.20733E+02  1.99187E+04
 -1.18622E+04  9.84634E+03 -8.28052E+03 -6.64569E+03  3.80517E+03 -1.13241E+04  2.18076E+04  7.71059E+03
  9.52658E+03  2.38241E+04 -6.64659E+03  2.16628E+04 -2.67989E+04  6.16076E+03 -2.75529E+04 -7.57811E+03
 -2.78327E+04 -1.84165E+04 -7.86500E+03 -2.31872E+04  4.19038E+03 -1.88614E+04  1.57133E+04 -2.10406E+04
  2.62299E+04 -1.57909E+04  3.56139E+04  7.75648E+03  2.23709E+04  2.46100E+04  3.83810E+03  4.26398E+04
 -2.18211E+04  3.60660E+04 -3.34538E+04  9.33178E+03 -2.14047E+04 -1.37783E+04 -3.88193E+03 -1.28189E+04
  4.10590E+03 -5.63990E+03 -8.72962E+03  6.53929E+03 -1.84143E+04  7.58236E+03 -1.50425E+04 -4.26688E+03
 -6.40964E+03 -2.39518E+04  4.24403E+03 -2.54949E+04  1.57305E+04 -1.76242E+04  2.27959E+04 -3.69768E+03
  2.58369E+03  2.15576E+04 -4.39312E+03  2.05391E+04 -1.77584E+04  1.31584E+04 -1.98308E+04  4.47426E+02
 -1.68433E+04 -1.95830E+04 -6.93484E+02 -2.38349E+04  7.12041E+03 -1.90616E+04  2.16319E+04 -6.23431E+03
  1.87689E+04  5.11060E+03  1.30477E+04 -8.27066E+02  1.18287E+04  1.10558E+02  1.31654E+04 -2.41655E+03
  2.21142E+04  5.47217E+03  2.10659E+04  1.14325E+04  1.95407E+04  3.64966E+04 -3.00353E+03  4.35685E+04
 -2.31981E+04  3.16608E+04 -3.66534E+04  1.62682E+04 -4.08514E+04 -3.03731E+03 -3.13001E+04 -2.47694E+04
 -1.38425E+04 -2.85223E+04  1.41222E+04 -2.36905E+04  2.31978E+04 -1.69087E+04  2.31059E+04  5.30825E+01
  1.13180E+04  1.15018E+04 -1.29428E+04  1.21929E+04 -1.27438E+04  2.06586E+03 -1.84974E+04 -1.15559E+04
 -3.14755E+03 -1.73521E+04  1.78491E+04 -1.26979E+04  1.18652E+04 -5.60070E+03 -2.57122E+03  7.98864E+03
 -9.99827E+03 -8.01431E+02 -7.93358E+03 -5.35384E+03  2.99590E+03 -1.36669E+04  5.51484E+03 -1.68511E+04
  1.86226E+04 -2.67678E+03  1.96606E+04  2.01095E+02  1.89376E+04  1.37442E+04  6.82372E+03  2.63546E+04
 -3.21130E+03  2.88284E+04 -1.86865E+04  1.83922E+04 -2.31461E+04 -5.99056E+03 -8.47849E+03 -1.04533E+04
 -4.54775E+03 -9.71395E+03  1.35937E+02  7.09825E+03 -3.14190E+03  5.21723E+03 -9.44966E+03  3.91289E+03
 -1.45741E+04 -8.73699E+02 -1.45299E+04 -8.06376E+03 -6.20874E+03 -2.07849E+04  7.62442E+03 -1.80296E+04
  1.06386E+04 -3.14197E+03  7.89855E+03  7.26931E+03  6.12484E+02  9.31382E+03 -7.91030E+03 -5.01881E+03
 -5.41676E+03 -1.44359E+04  4.77737E+03 -1.88784E+04  4.94346E+03 -1.66937E+04  1.84721E+04 -7.38145E+03
  1.69998E+04 -9.53239E+02  1.08921E+04  1.09402E+04  4.45187E+02  1.51978E+04 -7.13893E+03  9.31304E+03
 -1.32320E+04  6.58921E+03 -8.61656E+03 -2.64662E+03  6.19263E+03 -7.10416E+02  7.65374E+03 -3.20581E+03
  1.00074E+04  7.65979E+03 -3.86098E+03  6.54896E+03 -3.63676E+03  1.08370E+04 -5.75742E+03  3.12409E+03
 -7.57779E+03 -1.00577E+04  4.45262E+03 -8.18797E+03  6.58187E+03 -4.04499E+03  7.28713E+03 -5.30187E+02
 -2.11803E+03  1.04757E+04 -7.85527E+03  1.08299E+04 -1.68740E+04  6.68372E+03 -9.62227E+03  1.94652E+03
 -6.09281E+03 -1.23513E+04 -3.58235E+02 -1.61196E+04  1.08844E+04 -8.46565E+03  1.17669E+04  4.28369E+03
  1.40158E+04  7.46849E+03  4.96868E+02  1.37470E+04 -1.41031E+04  8.14651E+03 -7.39991E+03  3.47272E+03
 -1.62315E+04 -9.71775E+03  2.41756E+03 -1.19082E+04  3.69595E+03 -7.14581E+03  4.32548E+03  1.65261E+03
  6.08360E+03 -2.73132E+03  5.48640E+02  2.26080E+03 -1.53391E+03 -8.31008E+03 -2.40671E+03 -1.10641E+04
  6.32449E+03 -2.91161E+03  1.40259E+04  2.23142E+03  8.51278E+03  7.25704E+03  5.52763E+03  1.09211E+04
 -2.49984E+03  1.89499E+04 -1.35722E+04  1.34974E+04 -1.60817E+04  9.28347E+01 -1.97632E+04 -2.17600E+03
 -3.14275E+03 -1.01445E+04  1.75885E+03 -9.32705E+03 -3.47949E+03 -5.92627E+03  8.31097E+03 -2.64213E+03
  3.58896E+03 -5.05194E+03  8.22127E+03 -3.45070E+03  2.99253E+03 -4.44806E+03  5.84956E+03  8.89999E+02
  2.59410E+02  2.52676E+03  4.04447E+03  2.76243E+03 -1.77213E+03  8.59620E+03 -9.59595E+03  2.33852E+03
 -1.31390E+04 -1.30765E+03 -5.34496E+03 -1.56287E+04 -2.24603E+03 -1.46581E+04  3.85760E+03 -1.45903E+04
  1.14702E+04 -5.05634E+03  1.05793E+04 -4.07610E+02  6.47189E+03  9.99264E+03 -1.83525E+02  1.22007E+04
 -1.73950E+03  1.21355E+04 -9.56030E+03  4.16594E+02 -2.08173E+03  4.64116E+03 -3.85350E+03 -2.74286E+03
 -6.20418E+03  4.13684E+03  1.62140E+03  2.47205E+03 -1.11090E+04 -2.19157E+03 -1.22371E+04 -6.59857E+03
 -6.83657E+03 -1.37220E+04  8.68627E+03 -7.18652E+03  3.34231E+03 -9.74538E+03  7.12302E+03 -2.82757E+03
  1.11840E+04  4.42972E+03  5.77416E+03  1.00181E+04 -5.52086E+03  1.09955E+04 -9.74208E+03  7.33412E+03
 -1.17083E+04  1.00600E+03 -8.20583E+03 -5.91575E+03  2.24183E+03 -1.01379E+04  5.48246E+03 -6.82132E+03
  9.77915E+03 -1.18766E+02  6.81472E+03  9.15415E+02 -5.05242E+02  5.00582E+03  4.80797E+02  4.59122E+03
 -8.13030E+02 -1.36963E+03  6.35795E+03  4.45884E+03  6.75113E+03 -1.47298E+03  3.29896E+03  9.28286E+03
 -6.50407E+03  9.58984E+03 -9.77218E+03  5.00530E+03 -9.86415E+03  1.93030E+03 -1.61312E+04  1.15993E+02
 -6.09409E+03 -5.81158E+03 -8.58590E+02 -8.03653E+03  7.73014E+03 -9.90875E+03  2.92284E+03 -1.40217E+02
  1.74132E+03  4.03748E+03  4.20788E+03  2.80265E+03 -3.02957E+03  1.43320E+03  2.59570E+03 -7.73483E+03
 -1.45189E+03 -7.10075E+03  4.49169E+03 -9.30919E+03  6.37622E+03 -7.65033E+03 -1.04882E+02  2.29164E+03
  9.84489E+02  2.52792E+03  1.23342E+03 -7.53788E+02  2.60659E+03  2.02658E+03 -4.32570E+02  8.19542E+03
 -1.48331E+03  4.70962E+03  6.01091E+03  3.63001E+03  1.16652E+03  7.19573E+03  8.45187E+02  6.70099E+03
 -1.24454E+03  4.86741E+01 -2.77210E+03  1.79100E+03 -7.25163E+03 -7.38688E+03  1.80040E+03 -4.78950E+03
 -6.36091E+03 -3.15954E+03  1.65056E+03 -2.01776E+03 -1.11450E+03 -2.08170E+03  7.33486E+01 -5.83325E+02
  2.48625E+02  4.36216E+03 -7.73836E+03 -1.22250E+03 -2.30819E+03 -1.74909E+03 -2.14415E+03 -4.25628E+03
  2.17183E+03  1.22524E+02  3.60715E+03 -3.29371E+03  5.17034E+03  2.78285E+03 -2.01753E+02  3.92705E+03
 -2.38580E+03 -3.87078E+03  4.14336E+03 -2.04323E+02 -3.16505E+03 -3.42083E+03  3.10080E+03 -3.67616E+03
  7.18303E+03  1.29298E+03  4.37340E+03  7.26649E+03  3.44398E+03  7.54948E+03  3.92858E+02  4.10009E+03
 -1.63290E+03  1.60350E+02 -8.76215E+03  2.62949E+01 -2.08086E+03 -5.00502E+03  5.54771E+03 -7.10684E+03
  5.45423E+03  1.65347E+03  1.88958E+03  3.49540E+03  1.16429E+03  1.57402E+03 -1.92712E+03  5.98608E+03
 -3.82358E+03 -1.42191E+03  7.27174E+02 -5.05232E+03 -8.86995E+01  3.32848E+03 -4.85851E+03  1.79413E+03
 -4.97435E+03  3.80323E+03 -9.16726E+02  2.38894E+02 -6.73445E+03 -2.65142E+03 -6.58052E+03 -1.66477E+03
 -9.48607E+02 -1.14922E+04  5.02150E+03 -1.17476E+04  2.30768E+03 -6.79110E+03  1.24381E+04  1.69464E+03
  1.13531E+04  1.38605E+03  4.65601E+03  8.43461E+02 -3.87963E+03  6.98085E+03  2.56806E+03  5.65219E+02
 -6.68176E+03  2.86742E+03 -3.27419E+03 -4.36626E+03 -3.46287E+03 -8.92310E+02  1.88502E+03  4.20746E+03
 -6.56215E+02  1.48216E+03 -4.09857E+03 -2.21976E+03  3.11826E+02 -2.12471E+03  2.59567E+02 -8.26602E+03
  4.66275E+03 -2.39832E+03  2.84704E+03  1.17833E+03  4.50523E+03  6.66531E+03 -2.02676E+03  3.11673E+03
 -2.51738E+03  8.66772E+03 -8.70499E+03  3.76265E+03 -2.84165E+03  7.91758E+03 -7.43064E+03 -6.82838E+03
  1.43866E+03 -1.25431E+04  3.80959E+03 -6.10707E+03  6.98724E+03 -4.75995E+03  3.26886E+03  3.35666E+03
  8.09143E+03  1.72631E+03  3.35950E+03 -2.32680E+03  4.32580E+02 -2.38511E+03 -2.94779E+03 -1.40202E+03
 -1.28674E+03  1.18022E+03  3.06342E+03 -7.36234E+03  8.23187E+01 -1.61749E+03 -2.01969E+03  1.98254E+03
 -3.93635E+03 -1.60739E+03 -4.30454E+03  1.32075E+02 -3.59203E+03 -7.68730E+03 -4.91758E+03 -5.40033E+03
  1.51918E+03 -4.62152E+03  2.07908E+03 -4.13364E+03  2.56297E+03  4.08801E+03  3.33270E+03  4.41187E+03
  6.28426E+03  3.00470E+02 -4.24162E+02  1.64869E+03 -4.61480E+03  6.97896E+03 -2.11748E+03  2.53268E+03
  1.45795E+03 -4.40700E+03 -1.68388E+03 -3.11089E+03 -1.61907E+03  4.50351E+03 -1.52599E+03 -1.38499E+03
 -4.07653E+03  1.17967E+03 -2.68079E+02 -5.46131E+03 -4.24513E+03 -4.59349E+03  4.32023E+02 -8.51658E+03
 -2.02794E+03  6.02530E+03  2.06112E+02 -8.63812E+02 -4.43809E+03  2.74131E+02 -1.75476E+03  2.28874E+03
