 $NMID ID='MM_0lb_SNR50_14hz_g45_79.RAW', FMTDAT='(8E13.5)'
 TRAMP=1., VOLUME=1. $END
  3.10720E+05 -2.46185E+03  3.35792E+05  2.51259E+05  8.12143E+04  3.36955E+05 -1.35570E+05  2.47725E+05
 -1.86126E+05  8.10089E+04 -1.08430E+05 -3.15021E+04  9.05228E+02 -5.08575E+04  5.54955E+04 -2.62780E+03
  3.46626E+04  5.27167E+04 -2.14932E+04  7.28075E+04 -6.34578E+04  6.46206E+04 -8.30527E+04  2.93607E+04
 -8.22232E+04 -1.02904E+04 -6.28865E+04 -5.01452E+04 -1.44579E+04 -7.34053E+04  3.01335E+04 -4.40653E+04
  4.26989E+04  2.13051E+03  1.61268E+04  5.08995E+04 -3.17097E+04  4.98909E+04 -7.15130E+04 -3.27828E+03
 -6.00706E+04 -6.20303E+04 -5.47249E+03 -7.68169E+04  3.06153E+04 -5.14783E+04  4.70213E+04 -1.63452E+04
  4.35730E+04  1.15798E+04  3.57033E+04  2.46104E+04  1.56835E+04  2.69319E+04 -1.02659E+04  2.87329E+04
 -2.35973E+04  7.68759E+03 -1.69556E+04 -4.03996E+03  4.04520E+03 -9.11369E+03  2.14634E+04  1.33354E+04
  7.19559E+03  3.50356E+04 -3.56585E+04  3.48477E+04 -5.98716E+04  3.55821E+03 -5.22997E+04 -4.35957E+04
 -1.20945E+04 -6.03452E+04  3.95161E+04 -4.79789E+04  5.57407E+04 -6.16590E+03  3.58959E+04  3.12823E+04
 -8.57022E+03  4.10059E+04 -2.65682E+04  1.72809E+04 -2.81817E+04 -7.91247E+03 -1.72616E+04 -7.92405E+03
 -1.26582E+04 -1.13053E+04  4.75521E+02 -1.46514E+04  1.00146E+04 -2.10625E+04  1.71574E+04 -1.17238E+04
  1.33029E+04  6.07437E+03 -8.33546E+03  1.17370E+04 -1.89706E+04 -4.01303E+03 -7.80358E+03 -3.05134E+04
  1.97379E+04 -4.49812E+04  5.09078E+04 -1.51340E+04  4.55328E+04  1.99006E+04  1.54433E+04  4.18557E+04
 -1.90457E+04  3.68172E+04 -2.21705E+04  6.92835E+03 -5.27207E+03 -2.81016E+04  1.84350E+04 -3.58421E+04
  4.44245E+04 -9.06571E+03  4.02854E+04  2.72763E+04  1.92979E+04  4.53508E+04 -7.38195E+03  5.31240E+04
 -3.08473E+04  3.19791E+04 -4.74623E+04  8.19128E+03 -4.50250E+04 -1.66862E+04 -2.05766E+04 -3.34759E+04
  8.21671E+03 -4.02977E+04  2.82049E+04 -1.10529E+04  2.64626E+04  1.39514E+04  2.03583E+03  1.53813E+04
 -8.92401E+03  1.22343E+04 -7.59675E+03 -8.24689E+03  2.63465E+03 -4.83908E+03  1.72256E+04  6.66418E+03
  1.53930E+04  2.27857E+04 -3.15170E+03  2.06740E+04 -2.71183E+04  8.38124E+03 -2.51235E+04 -8.65290E+03
 -1.62559E+04 -1.55868E+04 -9.21675E+03 -1.74784E+04 -3.81385E+02 -1.81760E+04  2.08445E+04 -1.57780E+04
  2.74164E+04 -1.83806E+04  3.05389E+04 -1.94514E+03  2.02136E+04  2.10302E+04  1.93358E+03  3.70317E+04
 -1.57873E+04  3.14386E+04 -2.35583E+04  9.30598E+03 -1.87400E+04 -1.66440E+04 -3.47318E+03 -1.31642E+04
  6.19437E+03  1.00260E+03 -2.07547E+03  1.11273E+04 -1.61872E+04  2.59480E+03 -1.81255E+04 -1.38990E+04
 -7.19251E+03 -2.03750E+04  4.34263E+03 -2.17600E+04  1.45522E+04 -1.71511E+04  1.74185E+04 -5.09661E+02
  9.09233E+03  1.60385E+04  1.22983E+03  1.53949E+04 -1.18900E+04  1.18857E+04 -2.12590E+04 -6.00402E+03
 -1.32372E+04 -1.76295E+04 -2.05825E+03 -2.45049E+04  7.30451E+03 -1.82169E+04  2.08774E+04 -1.32826E+04
  1.70436E+04  1.62933E+03  1.12652E+04  5.56258E+03  2.73691E+03  2.61400E+03  8.29747E+03 -2.02557E+03
  1.36613E+04 -4.43830E+02  1.90559E+04  1.49138E+04  1.60471E+04  2.78997E+04 -5.38300E+03  3.15645E+04
 -1.74115E+04  2.43026E+04 -3.37927E+04  8.88516E+03 -2.82713E+04 -1.84193E+03 -2.92977E+04 -2.13156E+04
 -1.43296E+04 -2.89092E+04  8.80962E+03 -2.44910E+04  2.46873E+04 -1.24344E+04  2.43316E+04  7.82477E+03
  5.88198E+03  1.44521E+04 -9.19106E+03  1.46488E+04 -1.80813E+04 -1.37424E+03 -7.26210E+03 -1.38254E+04
  1.26532E+03 -1.36836E+04  4.63599E+03 -1.00146E+04  1.21085E+04 -4.68464E+03  5.22257E+03  1.13774E+04
 -5.25758E+03  7.87413E+03 -6.61152E+03 -2.51024E+03 -8.34915E+02 -1.12344E+04  1.10159E+04 -2.03248E+04
  1.69183E+04 -8.50431E+03  1.84811E+04  4.58494E+02  1.23466E+04  1.62441E+04  1.03059E+04  2.49641E+04
  1.05914E+03  2.04012E+04 -1.58570E+04  1.35755E+04 -1.69349E+04  7.37022E+03 -1.24052E+04 -3.22112E+02
 -6.87403E+03 -6.71437E+03 -3.60552E+03 -1.82263E+03  1.91133E+03 -1.32302E+03 -1.26910E+03  4.94239E+03
 -8.15728E+03  5.30993E+02 -1.38462E+04 -6.92889E+03 -8.09010E+03 -1.35190E+04  3.21645E+03 -1.05725E+04
  7.89662E+03 -9.64681E+03  5.88117E+03  2.71786E+02  3.42086E+03  5.16299E+03 -9.20390E+03  8.48135E+02
 -5.36261E+03 -9.06508E+03 -3.26365E+03 -1.02972E+04  4.99781E+03 -1.13286E+04  1.58965E+04  1.23234E+03
  1.58041E+04  1.58646E+03  7.49528E+03  9.42044E+03  4.82423E+02  1.31459E+04 -2.13295E+03  1.07736E+04
 -1.10112E+04  2.33423E+03  3.27214E+01 -1.31005E+03 -1.54116E+03 -1.76771E+03  6.07760E+03 -1.21686E+03
  1.37477E+04  5.54516E+03  1.03737E+03  1.12809E+04 -3.71257E+03  6.49870E+03 -8.93208E+03  6.99950E+02
 -1.08874E+04 -5.59555E+03 -2.21994E+03 -7.73118E+03  2.04581E+03 -7.15215E+03  5.81207E+03  2.90144E+02
  2.82791E+03  8.83357E+03 -6.60512E+03  6.99052E+03 -1.11932E+04  4.28285E+03 -9.80890E+03 -4.16598E+03
 -3.25993E+03 -1.44057E+04  2.73893E+03 -1.36791E+04  6.88895E+03 -4.81112E+03  9.00164E+03 -2.16837E+03
  9.21320E+03  4.47588E+03  2.12068E+03  1.16350E+04 -4.59226E+03  4.94052E+03 -5.97163E+03 -2.27901E+02
 -8.85335E+03 -2.13770E+03  5.55851E+02 -6.05252E+03  4.35577E+03 -4.60261E+03  7.04378E+03 -2.62697E+03
  1.94403E+03  1.64639E+03  1.12783E+03  1.78870E+03  3.38229E+03  5.48447E+03 -3.17157E+01 -2.56528E+03
  1.09929E+04 -5.57140E+03  5.24594E+03 -2.22690E+03  6.92204E+03  7.82440E+03  7.55549E+03  6.39387E+03
 -2.43729E+03  1.49358E+04 -4.73479E+03  1.06608E+04 -1.36144E+04 -2.03892E+03 -1.42079E+04 -7.57432E+03
 -5.05761E+03 -9.81128E+03  8.33465E+02 -1.26684E+04  4.12631E+01 -3.69797E+03  3.86495E+03 -4.23938E+03
 -5.07600E+03 -5.21242E+03  8.80151E+03 -2.18639E+03  7.21516E+03 -2.29466E+03  5.56158E+03  8.61354E+02
  7.42551E+03 -8.06146E+02  1.63306E+03  9.24601E+03 -2.32954E+03  5.29873E+03 -5.26307E+03  4.88968E+03
 -7.91544E+03  2.60575E+02 -4.72888E+03 -8.73185E+03 -1.33469E+03 -7.31581E+03  7.10280E+03 -7.06206E+03
  7.19625E+03 -6.48545E+03  9.36594E+03  1.38694E+03  8.05915E+03  7.11667E+03 -2.59804E+03  1.32035E+04
 -2.25588E+03  8.49314E+03 -8.24655E+03 -9.74933E+02 -4.80521E+03  1.03608E+03  1.00570E+03 -1.85983E+03
 -5.16049E+03 -2.12815E+03 -4.40311E+03  3.76784E+03 -4.79034E+03  2.51141E+03 -9.75514E+03  3.80887E+03
 -5.49268E+03 -5.49982E+03  1.96704E+03 -3.54885E+03  5.88231E+03 -1.11635E+04  6.27513E+03 -5.26764E+03
  9.33189E+03  3.04668E+03  4.88720E+03  3.45249E+03 -1.57169E+03  7.42441E+03 -5.49208E+03  3.38262E+03
 -1.10709E+04  4.24087E+03 -2.88237E+03 -6.16178E+03 -8.87184E+02 -5.10702E+03  4.13662E+03 -6.24728E+03
  6.01734E+03  2.61101E+03  3.18774E+03  3.75348E+03  1.70217E+03 -2.13783E+03  2.90486E+03  1.63852E+03
  1.44412E+02 -8.94704E+02  2.00182E+03  2.63539E+03  2.97820E+03  9.19118E+02  1.66774E+03  1.54152E+03
 -4.52529E+00  4.53039E+03 -7.75272E+03  3.79938E+03 -4.58018E+03  2.45967E+03 -6.32287E+03 -8.55490E+02
 -5.83141E+03 -6.05265E+03  2.81714E+03 -7.54982E+03  4.69308E+03 -5.17236E+03  7.64983E+03 -2.33349E+03
  2.52733E+03  3.89300E+03  2.81073E+03  7.90338E+03 -9.63794E+02  2.90514E+03 -2.11008E+03  8.92215E+02
 -6.02621E+02 -3.28925E+03  5.59540E+03 -1.47435E+03  4.07361E+03  7.38466E+01 -1.79633E+03 -8.83255E+02
  2.79103E+03 -9.66951E+02  4.10390E+03 -5.81395E+02 -3.04728E+03  1.92727E+03  3.82906E+03 -7.99866E+02
  3.79884E+03  1.19295E+03  6.17893E+02  1.35433E+03  1.13227E+03  3.97441E+03  1.85850E+02  2.26526E+03
 -4.94605E+03 -2.16388E+03 -4.61863E+03  1.61175E+03 -2.96967E+03  1.89323E+03  8.67031E+02 -2.08626E+02
 -4.60618E+02 -7.32966E+02  7.02415E+02 -6.38033E+01  9.62655E+02  2.70325E+03  3.02957E+03  5.80764E+03
 -3.44251E+02 -1.18496E+03 -1.89191E+03 -2.20342E+03  1.78066E+03 -8.22750E+03  2.74723E+01 -4.06878E+03
 -1.76430E+03 -4.23152E+01  2.32323E+03 -9.73904E+02 -1.61969E+02  2.06192E+03 -1.36934E+03  7.69437E+03
 -5.39711E+03  3.83792E+03 -5.70107E+03  1.31456E+03  6.03526E+03 -2.95074E+03  4.25594E+03 -6.48894E+02
  6.02389E+03 -3.39275E+03  8.13937E+03  4.93582E+03  1.37221E+03  1.09661E+03 -3.44056E+03  6.35726E+02
 -2.38350E+03 -7.56797E+02 -4.19601E+03  3.89087E+03 -1.53567E+03 -4.36406E+03 -1.12469E+03  2.29345E+03
  2.98875E+02  1.13788E+03  5.49324E+02 -1.53128E+03 -4.20642E+03 -2.22172E+03  4.75303E+02  2.70416E+03
 -2.29560E+03  4.77340E+03 -3.42039E+03  4.94869E+03  6.53770E+01 -1.73746E+03 -3.63934E+03  1.09488E+03
 -7.77794E+02  3.74610E+03 -8.96045E+03  4.37645E+03 -9.97321E+02  4.94187E+02 -8.07462E+03 -5.06888E+03
 -2.28935E+03 -5.99265E+03 -1.01229E+02 -9.31895E+03  2.20446E+03 -2.62017E+03  5.68252E+03 -2.13839E+03
  2.28871E+03  2.18979E+03  1.72542E+03  5.56096E+03  3.63505E+03  3.94199E+03  2.83853E+00  2.54690E+03
 -7.49906E+03  2.64211E+03 -2.02820E+02  3.07318E+03 -3.89437E+02 -3.86036E+02  2.73673E+03 -3.02282E+03
 -4.66126E+02 -1.36078E+03 -4.13917E+03  1.41850E+03 -2.07749E+03 -4.62988E+03  3.09899E+03 -3.59557E+03
  2.89979E+03  2.03876E+03 -6.82398E+02  5.26003E+02  4.72053E+03 -1.24960E+02 -1.08074E+03  7.06624E+03
 -7.49910E+03  1.08480E+04 -5.72508E+03  2.53581E+03 -5.52041E+03 -9.83214E+02 -7.43017E+03 -3.32764E+03
 -3.74186E+03 -2.30451E+03 -2.54071E+03 -3.63033E+03  5.36070E+03 -1.13500E+03  1.31256E+03 -8.29263E+02
  1.73106E+03 -5.27350E+02 -2.19666E+03 -1.34411E+03 -3.93682E+01  7.98732E+01 -3.21138E+03 -1.47524E+03
  1.42395E+03 -9.17320E+02 -3.01366E+02  3.37054E+03  2.91912E+03 -5.47117E+02  2.88812E+03 -8.10421E+02
 -2.63071E+03 -1.11086E+02 -9.91121E+02 -1.80642E+03 -2.18762E+03 -5.55739E+03  1.19864E+03 -4.74738E+03
  3.35557E+03 -2.24353E+03  6.33301E+03  1.11759E+03  4.32238E+03  3.64913E+03  4.52809E+03 -2.42637E+03
  8.21501E+02 -2.12820E+03 -1.56450E+03 -4.55607E+03  8.48781E+02  2.17902E+02 -2.16806E+03  3.88377E+02
 -1.25257E+03 -1.78853E+03 -1.62803E+02 -7.51602E+02 -6.04234E+02 -7.57191E+02 -7.90927E+03  5.24290E+03
 -1.92955E+03 -2.55537E+03 -3.79349E+03 -1.36285E+03 -1.59829E+02 -2.06627E+03  4.85323E+03 -1.13842E+03
 -2.45515E+02 -1.35844E+03 -1.96753E+03  2.53359E+03 -1.05284E+03  5.91376E+03 -1.49367E+03  1.58801E+03
