 $NMID ID='MM_0lb_SNR50_17hz_g60_47.RAW', FMTDAT='(8E13.5)'
 TRAMP=1., VOLUME=1. $END
  3.11008E+05  4.92494E+02  3.35451E+05  2.49167E+05  8.60766E+04  3.36654E+05 -1.33374E+05  2.52519E+05
 -1.89992E+05  8.04300E+04 -1.09626E+05 -3.07107E+04  1.53035E+03 -5.24524E+04  5.65773E+04  3.82022E+03
  3.70400E+04  5.18194E+04 -1.76329E+04  7.90884E+04 -6.19331E+04  6.53491E+04 -8.36990E+04  3.55511E+04
 -7.75476E+04 -9.98101E+03 -5.78258E+04 -4.90963E+04 -1.48549E+04 -7.13948E+04  2.77748E+04 -4.44284E+04
  3.72439E+04  7.72214E+02  1.46103E+04  4.96682E+04 -2.72096E+04  4.74732E+04 -6.49297E+04  2.74565E+03
 -5.08640E+04 -5.50168E+04 -4.80607E+03 -7.72289E+04  3.87813E+04 -5.76251E+04  4.68849E+04 -1.30461E+04
  4.19125E+04  1.48825E+04  3.38788E+04  2.22223E+04  1.49668E+04  3.01635E+04 -8.86262E+03  2.63301E+04
 -2.15324E+04  1.07269E+04 -1.76232E+04 -5.05913E+03  4.80634E+03 -1.06675E+04  2.30440E+04  8.13686E+03
  5.79562E+03  3.48340E+04 -3.07668E+04  3.43214E+04 -5.97109E+04  6.60999E+02 -5.67208E+04 -4.40552E+04
 -1.28955E+04 -6.63338E+04  4.17147E+04 -4.42540E+04  6.07169E+04 -4.36874E+03  3.41642E+04  2.97930E+04
 -8.93269E+03  3.57979E+04 -2.84499E+04  1.33551E+04 -2.82988E+04 -7.38393E+03 -1.56909E+04 -9.30224E+03
 -1.48229E+04 -7.63164E+03 -1.34932E+03 -2.30560E+04  9.94001E+03 -2.19762E+04  1.58884E+04 -1.37632E+04
  1.26346E+04  2.60661E+03 -1.30075E+04  1.54896E+04 -2.61113E+04 -1.71221E+03 -1.03640E+04 -3.43673E+04
  1.93333E+04 -4.37421E+04  4.54458E+04 -1.79207E+04  4.68087E+04  1.75916E+04  1.28214E+04  4.28852E+04
 -1.97846E+04  3.16376E+04 -2.62334E+04  8.11385E+02 -1.01452E+04 -2.53982E+04  2.13671E+04 -3.30087E+04
  3.92149E+04 -7.92409E+03  3.27786E+04  2.32391E+04  1.66779E+04  4.48451E+04 -5.86897E+03  5.07600E+04
 -3.42222E+04  3.04414E+04 -4.39289E+04  6.77027E+03 -4.25520E+04 -1.93186E+04 -2.40640E+04 -3.83629E+04
  9.21139E+03 -3.75376E+04  3.09070E+04 -1.26404E+04  2.88647E+04  1.07521E+04  4.17258E+03  1.88371E+04
 -1.54576E+04  8.55667E+03 -1.22028E+04 -8.40560E+03  6.64597E+03 -9.62400E+03  1.79757E+04  5.05801E+03
  1.14916E+04  2.28124E+04 -8.41511E+03  2.56741E+04 -2.09657E+04  1.20944E+04 -2.97080E+04 -4.31579E+03
 -1.52141E+04 -1.40500E+04 -8.13897E+03 -1.81372E+04  9.29518E+03 -1.75462E+04  1.37386E+04 -1.81058E+04
  2.42120E+04 -1.04761E+04  3.20215E+04  2.35077E+03  2.81757E+04  2.17532E+04  1.86043E+03  3.90772E+04
 -1.82831E+04  2.70921E+04 -2.76311E+04  5.88931E+03 -2.39059E+04 -1.11134E+04 -5.55700E+03 -1.25297E+04
  6.01407E+02 -1.93634E+03 -9.50321E+03  5.62453E+03 -1.51304E+04  4.07665E+03 -1.79365E+04 -3.14056E+03
 -9.27200E+03 -1.86490E+04  3.25727E+03 -2.13224E+04  1.92367E+04 -1.31192E+04  1.85018E+04  1.01082E+02
  1.12597E+04  9.95555E+03 -2.77840E+03  1.60650E+04 -8.40780E+03  1.40949E+04 -1.59431E+04 -7.66906E+03
 -1.11299E+04 -1.86813E+04 -4.12300E+02 -1.82760E+04  6.36530E+03 -1.94189E+04  1.59515E+04 -2.72737E+03
  1.59939E+04 -6.95742E+02  1.29236E+04  5.80191E+03  5.32672E+03  1.81829E+03  1.05182E+04 -3.51976E+03
  1.94412E+04  4.23156E+03  1.85193E+04  1.27339E+04  1.13845E+04  2.87661E+04 -5.39978E+03  3.19405E+04
 -1.51520E+04  2.32924E+04 -2.41445E+04  1.08581E+04 -3.25278E+04 -1.59087E+03 -2.63957E+04 -1.74964E+04
 -1.08453E+04 -2.54643E+04  9.04736E+03 -1.96002E+04  1.98866E+04 -1.00879E+04  1.38514E+04  3.21850E+03
  7.41278E+03  1.10783E+04 -7.37078E+03  1.38137E+04 -1.62241E+04 -4.69021E+02 -1.60562E+04 -6.60329E+03
 -2.44299E+03 -8.17382E+03  6.71989E+03 -1.51151E+04  4.04089E+03 -2.47226E+03  7.39442E+03  3.65192E+03
 -4.84146E+03  1.50437E+03 -4.92606E+03 -6.24163E+03 -2.06239E+03 -1.04571E+04  6.61781E+03 -1.26513E+04
  1.16579E+04 -4.84750E+03  1.02219E+04  1.14383E+03  1.16250E+04  8.64906E+03  5.30394E+03  1.84036E+04
 -4.27970E+03  2.17213E+04 -1.15251E+04  1.12364E+04 -1.14542E+04  1.06213E+03 -1.02504E+04 -5.90890E+03
 -3.84146E+03 -8.53132E+03 -5.82073E+03  2.85677E+03 -2.46243E+03 -1.57951E+03 -3.86124E+03  6.55924E+03
 -1.09907E+04  6.10312E+02 -6.28432E+03 -2.51796E+03 -1.87573E+02 -1.70206E+04  3.34639E+03 -7.25451E+03
  9.24338E+03 -3.22455E+03  6.68622E+03 -3.71452E+03 -1.34549E+03  3.17856E+03  7.46371E+02  3.54109E+03
 -5.50413E+03 -7.50857E+03  8.05156E+02 -5.95945E+03  4.00561E+03 -1.04918E+04  7.07705E+03 -7.29127E+03
  1.66076E+04  1.61699E+03  1.04685E+04  7.63969E+03  4.41808E+03  9.15481E+03 -2.58270E+03  6.22420E+03
 -5.13755E+03  4.72572E+03 -2.83951E+03 -4.41898E+03  2.00707E+03  9.52871E+02  4.70246E+03  1.11995E+03
  8.27344E+03 -6.12851E+02 -1.39230E+03  9.04324E+03 -1.15277E+02  6.21899E+03 -7.93916E+03  1.39839E+03
 -4.28646E+03 -1.77737E+03 -1.34820E+03 -7.21861E+03  3.61832E+03 -2.20010E+03  5.89201E+03 -2.97165E+03
  4.98055E+03  6.36264E+03 -6.16252E+03  5.01938E+03 -5.39370E+03  2.72760E+02 -4.43691E+02  4.64198E+02
 -4.47040E+03 -1.08949E+04 -8.53118E+02 -1.04033E+04  1.05916E+04 -4.01495E+03  2.36582E+03  6.97014E+03
  9.22236E+03  8.28736E+03 -9.61488E+02  3.09427E+03 -5.16965E+03  3.14103E+03 -1.05797E+04 -5.47913E+03
 -6.97527E+03 -2.45087E+03 -2.76066E+03 -4.33629E+03  7.44539E+03 -4.38411E+03  1.88919E+03 -8.61750E+02
 -1.37668E+03 -1.28087E+03 -7.60788E+02  4.66720E+03 -9.49546E+02 -7.35707E+03 -1.23994E+02 -4.87696E+03
  4.70896E+03 -1.52121E+03  9.13301E+03 -3.70450E+03  5.52198E+03  4.91480E+03  1.59471E+03  7.44277E+03
 -5.69147E+02  1.39042E+04 -9.90283E+03  7.84329E+03 -1.40965E+04 -1.21990E+03 -9.45117E+03 -4.57225E+03
 -6.14165E+03 -6.36697E+03 -1.05610E+03 -3.72176E+03  3.86499E+03 -8.18167E+02 -1.56163E+03 -2.90096E+03
  3.61684E+03  2.26369E+03  5.43194E+02 -2.58138E+03  7.42982E+03  3.30430E+03  9.10054E+03 -2.87529E+03
  2.70186E+03  2.81165E+03  5.29314E+03  4.24026E+03 -1.30314E+03  5.09643E+03 -4.57887E+03  1.59425E+03
 -1.01558E+04 -6.86314E+01  1.81740E+03 -6.56409E+03 -2.63212E+03 -2.62795E+03  4.06691E+03 -5.21877E+03
  8.05231E+03 -2.85971E+03  7.62650E+03 -2.20071E+03  7.36236E+03  7.35871E+03 -6.61189E+01  6.91690E+03
  2.52803E+02  1.28413E+04 -7.67326E+03  1.47886E+03 -1.36529E+02  1.62579E+03 -5.19157E+02  6.88620E+02
 -6.60883E+02  3.27103E+03 -8.62198E+02  1.11074E+03 -5.78935E+02 -1.20877E+02  8.36705E+02 -8.29652E+02
 -2.42336E+03 -1.04460E+04  2.46009E+02 -6.73150E+03  1.00633E+04 -4.37418E+03  5.91794E+03  1.99205E+03
  5.20880E+03  6.63423E+03  4.89913E+03  5.81770E+03 -4.52360E+03  3.78879E+03 -8.45859E+03  1.42776E+03
 -7.40153E+03  6.24235E+02 -6.72585E+03  1.76551E+03  2.64430E+03 -4.44015E+01  2.18591E+03 -5.75581E+03
  7.40523E+03 -2.30264E+03  1.42882E+03  6.17802E+02  3.03366E+03 -1.30160E+03  2.04884E+03 -1.32577E+03
 -1.75163E+03  1.50351E+03  3.94159E+03  1.35199E+03 -2.14296E+03  1.36621E+03  3.38184E+02  1.26071E+03
 -1.14912E+03  5.25014E+03  3.61913E+02  7.55165E+03 -5.74551E+03  3.09494E+03 -2.98158E+03 -5.41051E+03
 -4.24905E+03 -8.67260E+03  4.81791E+03 -5.30603E+03  9.63675E+02 -7.10989E+03  2.42592E+03  1.25678E+03
  4.46169E+03  2.03182E+03  2.15675E+03  1.37920E+03  5.90681E+02  4.43081E+03 -4.50439E+02 -5.26904E+02
  3.32479E+02 -7.96327E+02  1.65111E+03 -1.22862E+03  5.25059E+03 -1.44512E+03  1.75035E+03 -2.96118E+03
  3.24833E+03  1.31600E+03  1.26884E+03  7.58552E+02 -3.80709E+02  1.25795E+03  4.85354E+03  1.54922E+03
 -1.40077E+03  1.35801E+03  4.21606E+03  3.61256E+03  4.65346E+02 -7.28028E+01 -1.21405E+02 -2.88449E+03
  1.73225E+03 -1.15663E+03 -4.74932E+03  1.32533E+03 -1.43232E+03 -7.73768E+02  5.46398E+03 -2.79130E+03
  6.59015E+02  3.28903E+03  2.55734E+03 -4.14777E+02  2.35521E+03 -2.06166E+03  1.84062E+03  1.96869E+02
 -3.56029E+02  1.93336E+03  6.35525E+02 -3.91515E+03 -1.34974E+03  1.19892E+03 -4.62800E+02  3.36023E+03
  1.43444E+02 -3.29146E+03  4.66748E+02 -3.74020E+02 -5.02850E+02 -5.72787E+02 -4.05661E+03 -3.78784E+03
  4.08520E+03  3.59546E+03  1.82605E+03  1.02744E+03  1.77278E+03 -4.05793E+03 -4.54382E+00 -3.98658E+03
  7.33030E+03  3.06947E+03  5.85899E+03 -4.49220E+02 -2.02295E+03  4.26844E+03  5.73702E+03  8.62241E+02
  1.40976E+03 -5.39675E+03  1.20071E+03  8.17823E+02 -1.82587E+03 -3.77082E+03 -4.75076E+02  9.27612E+02
  6.53817E+02 -9.21729E+02  1.84198E+03 -1.44612E+03  5.21609E+03  6.79186E+03  1.11368E+03 -2.06603E+03
  1.15191E+02  2.51293E+03 -1.63632E+03 -3.58256E+03 -4.55342E+03  2.44417E+03 -1.47234E+03 -8.29579E+02
  6.28725E+02  4.24160E+03 -5.46347E+02  2.20541E+03 -4.69761E+03  1.40332E+03 -1.13285E+03  2.33868E+03
 -5.59262E+03 -1.43025E+03  4.57103E+02 -2.82261E+03 -3.04358E+03 -8.50244E+02  4.27804E+03  5.06634E+02
  1.98500E+03 -3.85539E+03 -7.29020E+02 -1.50048E+02 -9.26782E+02 -1.45662E+03  1.82312E+03  2.41242E+03
 -1.71086E+03  1.48356E+03 -6.75723E+02  2.56672E+02  8.24389E+02  3.87602E+03 -1.22635E+03 -1.01427E+03
 -8.48965E+02 -8.92518E+01  2.67983E+02 -2.63465E+03 -9.09042E+02 -1.34245E+03 -4.37282E+02  2.73647E+03
  6.82187E+02  3.59002E+03  1.24931E+03  1.54640E+02 -1.62090E+03  6.39073E+02 -3.54142E+03  1.93270E+03
  9.60183E+02  9.76115E+02 -5.64951E+03  5.95554E+03 -5.65641E+03 -7.52936E+02 -2.04212E+03  7.71654E+02
  4.42890E+01 -2.99542E+03  2.87543E+03  3.05476E+03 -4.73737E+02 -3.08748E+03 -4.30082E+02  3.16259E+02
 -8.05990E+02  4.52546E+02 -1.32656E+03  1.19415E+03 -2.84439E+03  5.00993E+03  1.78646E+03 -1.52931E+02
 -1.83984E+03  1.02362E+03  3.05822E+03  2.55315E+02 -5.00119E+03  1.70093E+03  1.73797E+03  4.11519E+03
 -4.27441E+03 -2.34214E+03  2.21559E+03  4.08961E+03 -3.13399E+03  1.60697E+03  3.73544E+03 -1.91978E+03
 -6.55507E+02 -1.00406E+03  8.06471E+02  4.79665E+03  2.81864E+03  1.00121E+03  2.45548E+03  3.23954E+03
 -6.98631E+03 -7.60150E+02  2.56772E+02  9.31257E+01 -1.71347E+03  3.01159E+03 -1.20228E+03 -4.50106E+02
 -1.84427E+00 -1.40109E+03 -1.45820E+03 -2.83304E+03 -3.28834E+03 -2.78977E+03  3.00076E+03 -3.54814E+03
 -2.21973E+03  2.93265E+02 -3.18106E+03  1.27586E+01 -2.92408E+02 -1.56079E+03 -1.34106E+03  1.81458E+03
  3.09223E+03 -7.00094E+02 -1.41891E+02  2.24452E+03  3.01702E+02  2.47315E+03 -1.30745E+03  2.03121E+03
