 $NMID ID='MM_0lb_SNR50_12hz_g60_31.RAW', FMTDAT='(8E13.5)'
 TRAMP=1., VOLUME=1. $END
  3.05634E+05 -2.20823E+03  3.36230E+05  2.53085E+05  8.34749E+04  3.37258E+05 -1.34090E+05  2.47380E+05
 -1.92239E+05  8.12271E+04 -1.18718E+05 -3.09785E+04 -8.62984E+02 -5.51693E+04  5.05927E+04 -2.26265E+03
  3.66985E+04  5.82620E+04 -1.46137E+04  7.58728E+04 -6.23552E+04  6.35072E+04 -8.20286E+04  3.57857E+04
 -8.21727E+04 -9.42037E+03 -5.42993E+04 -5.16311E+04 -1.31495E+04 -7.01726E+04  3.28073E+04 -4.69992E+04
  4.72948E+04  4.56214E+03  1.47145E+04  4.50822E+04 -2.63827E+04  4.73748E+04 -7.22665E+04 -1.68110E+02
 -5.85585E+04 -6.05660E+04 -3.37964E+03 -7.80136E+04  3.53402E+04 -5.48648E+04  4.92128E+04 -1.80729E+04
  4.75135E+04  1.59744E+04  3.20632E+04  2.56380E+04  1.49512E+04  3.13929E+04  8.83852E+01  3.30680E+04
 -2.04689E+04  1.50716E+04 -2.16602E+04 -8.42063E+03  6.40372E+03 -7.85414E+03  2.84504E+04  1.44677E+04
  1.03082E+04  3.75804E+04 -3.27156E+04  3.85540E+04 -6.86415E+04  4.67289E+03 -5.87652E+04 -3.76899E+04
 -5.52789E+03 -6.21331E+04  4.37561E+04 -4.94733E+04  5.67960E+04 -4.53127E+03  3.99817E+04  3.90552E+04
 -6.31224E+03  3.69288E+04 -3.51994E+04  1.92020E+04 -3.48580E+04 -5.68170E+03 -1.45678E+04 -1.12259E+04
 -5.04778E+03 -1.77923E+04  1.64972E+03 -1.57554E+04  8.61604E+03 -2.03095E+04  1.31839E+04 -1.56480E+04
  6.81319E+03  3.80579E+03 -1.24393E+04  7.03103E+03 -2.21338E+04 -6.46736E+03 -7.37340E+03 -3.43327E+04
  2.71179E+04 -4.63753E+04  4.61156E+04 -2.16696E+04  4.67076E+04  1.68502E+04  1.57260E+04  4.88301E+04
 -1.37255E+04  3.27280E+04 -2.79994E+04  7.85800E+03 -1.69225E+04 -2.66424E+04  1.80608E+04 -3.83218E+04
  4.21007E+04 -6.46177E+03  3.64928E+04  2.74568E+04  1.54214E+04  5.26637E+04 -8.13921E+03  5.62504E+04
 -3.20830E+04  3.47714E+04 -5.10169E+04  8.14626E+03 -4.28158E+04 -1.97942E+04 -3.07181E+04 -4.24546E+04
  8.60267E+03 -3.87606E+04  3.58742E+04 -1.29271E+04  2.49338E+04  8.40234E+03  4.08539E+03  1.75620E+04
 -1.51560E+04  7.52683E+03 -6.72367E+03 -9.27895E+03  7.50142E+03 -1.05224E+04  1.74717E+04  7.53478E+03
  1.66116E+04  2.07672E+04 -5.34591E+03  2.68521E+04 -1.74814E+04  1.24230E+04 -2.69887E+04 -3.26005E+03
 -2.06660E+04 -1.95601E+04 -1.23174E+04 -2.25117E+04  1.10283E+04 -2.40915E+04  1.83879E+04 -2.31012E+04
  2.59711E+04 -1.57356E+04  3.14804E+04  8.14325E+03  2.35742E+04  1.59985E+04  4.21511E+03  3.54332E+04
 -1.47319E+04  2.98056E+04 -3.09851E+04  9.56234E+03 -2.21148E+04 -1.02646E+04 -1.36630E+04 -1.01404E+04
  3.33974E+03  2.52939E+03 -3.50326E+03  7.97820E+03 -2.38749E+04  7.54905E+03 -2.18643E+04 -7.84321E+03
 -1.58022E+04 -2.62182E+04  9.14476E+03 -2.60495E+04  2.06122E+04 -1.26113E+04  1.40239E+04  1.63082E+02
  1.42078E+04  1.87731E+04 -9.29427E+02  1.98502E+04 -1.49357E+04  1.70667E+04 -2.34363E+04 -3.73750E+03
 -1.61880E+04 -1.09262E+04 -2.95589E+03 -2.59729E+04  8.27203E+03 -2.42820E+04  1.91332E+04 -6.29246E+03
  1.36856E+04  6.85564E+02  1.51645E+04  2.90489E+03  1.19489E+04  3.58590E+03  7.00176E+03 -2.06372E+02
  2.35940E+04  1.19283E+03  2.62589E+04  1.23609E+04  2.26365E+04  4.04900E+04 -8.90999E+02  4.33465E+04
 -2.26195E+04  3.12043E+04 -3.93515E+04  2.06844E+04 -3.99856E+04 -1.30752E+03 -3.08985E+04 -2.71849E+04
 -1.01162E+04 -3.32631E+04  7.79300E+03 -3.01511E+04  2.60152E+04 -1.46444E+04  2.18980E+04  2.69323E+03
  9.37344E+03  1.74628E+04 -1.04481E+04  1.85137E+04 -2.26987E+04  2.83772E+03 -1.58358E+04 -7.77273E+03
 -6.29579E+02 -1.61141E+04  1.16830E+04 -1.17663E+04  1.26619E+04 -5.39735E+03  2.51697E+03  7.67375E+03
 -1.08724E+04  1.49274E+03 -9.13309E+03 -3.78277E+03 -4.21990E+03 -1.82604E+04  1.18728E+04 -1.97644E+04
  2.08088E+04 -8.21079E+03  2.50039E+04  3.10743E+03  2.30905E+04  1.82853E+04  8.29001E+03  2.25445E+04
 -3.42294E+03  2.86943E+04 -2.09801E+04  1.72104E+04 -2.38233E+04  8.17072E+03 -1.67287E+04  1.06097E+02
 -4.12370E+03 -4.98092E+03  5.36806E+03 -1.29811E+03 -7.64858E+03  2.19628E+03 -5.88444E+03  5.38548E+03
 -1.77262E+04 -4.10891E+02 -1.06133E+04 -1.84573E+04 -1.09336E+04 -1.33702E+04 -2.59896E+02 -1.45240E+04
  1.21459E+04 -9.70369E+03  7.13157E+03  7.34185E+03 -1.01959E+03  4.62969E+03 -9.27397E+03 -4.25477E+03
 -7.25698E+03 -1.03540E+04  4.06675E+01 -1.46331E+04  1.15118E+04 -1.91502E+04  1.61584E+04 -8.59031E+03
  2.15937E+04  5.31897E+03  8.96499E+03  1.05013E+04 -1.07273E+03  2.08885E+04 -6.79529E+03  1.07494E+04
 -1.09062E+04  1.54101E+03 -3.28126E+03 -3.74906E+03  2.63600E+03 -3.62856E+03  5.61379E+03 -7.87194E+03
  9.59388E+03  9.86537E+03  7.06615E+03  1.03171E+04 -9.37371E+03  1.15788E+04 -1.16884E+04  6.10851E+03
 -1.58786E+04 -1.02226E+04 -1.83638E+03 -1.22874E+04  8.18425E+03 -2.27977E+03  7.01508E+03  1.93948E+03
 -6.79920E+01  5.98847E+03 -6.39229E+03  6.39917E+03 -1.12147E+04  3.07222E+03 -9.30463E+03 -4.63783E+03
 -5.84450E+03 -1.39125E+04  4.52071E+03 -1.84761E+04  1.62663E+04 -1.28587E+04  1.07288E+04  6.57355E+03
  3.41567E+02  1.12577E+04  2.64243E+03  1.14165E+04 -1.18191E+04  1.98356E+03 -8.50917E+03 -3.70846E+03
 -1.11702E+04 -1.00689E+04 -1.09672E+03 -1.10379E+04  5.56675E+03 -6.60964E+03  5.71243E+03  1.05952E+02
  3.53185E+03  1.15559E+03 -1.34353E+03  6.48466E+03 -6.33568E+03 -6.22105E+03 -1.01900E+03 -7.46740E+03
  1.29868E+04 -5.54259E+03  9.10293E+03  4.98412E+03  1.25626E+04  6.45247E+03  7.70204E+03  1.31979E+04
 -2.52345E+03  1.48910E+04 -1.88420E+04  1.67752E+04 -1.76860E+04  5.32464E+03 -1.84309E+04 -3.74691E+03
 -6.25213E+03 -1.17402E+04 -1.58501E+01 -1.85436E+04  9.19315E+03 -7.61890E+03  5.58405E+01 -6.41714E+03
 -5.17872E+02 -1.57636E+03  5.45876E+03 -6.02860E+03  2.79960E+03 -5.10387E+03  6.07680E+03 -4.75472E+03
  8.89510E+03  4.18026E+03  7.17772E+03  8.13787E+03  1.12828E+03  7.49572E+03 -1.32642E+04  9.08348E+03
 -1.43861E+04 -2.50328E+02 -4.63101E+03 -3.24451E+03 -9.91080E+02 -1.35664E+04  6.60691E+03 -1.52267E+04
  1.48677E+04 -1.04059E+04  1.70653E+04  3.59317E+03  9.12286E+03  5.26670E+03  7.46674E+02  1.41618E+04
 -6.74117E+03  1.22269E+04 -9.47744E+03  8.88466E+02 -5.98209E+03 -4.91534E+03 -4.17132E+03  5.59798E+02
 -1.48513E+03 -1.08102E+03 -1.44835E+03  4.51549E+02 -6.79414E+02 -9.08565E+02 -6.31985E+03 -2.95762E+03
 -3.14810E+03 -9.63513E+03  3.99540E+03 -7.18383E+03  6.50889E+03 -1.22503E+04  7.93799E+03 -3.29575E+03
  7.89810E+03  3.99428E+03 -8.36708E+02  8.28487E+03 -6.74509E+02  1.29306E+04 -7.17011E+03  2.60134E+03
 -1.36981E+04  8.97428E+02 -6.07598E+03 -7.44941E+03 -3.03554E+02 -1.14511E+04  2.14477E+03 -1.26209E+04
  6.03166E+03 -1.16939E+03  1.01914E+04  3.04741E+02  7.58227E+03  4.76440E+03  4.56532E+03  7.27197E+02
  3.10636E+03  5.75991E+03  3.12342E+02  1.07817E+03  1.53091E+03  2.04244E+03  1.52760E+03  7.66776E+03
 -2.15194E+03  8.48179E+03 -9.16142E+03  8.33517E+03 -1.71941E+04  4.38692E+03 -8.78396E+03 -4.61032E+03
  1.28634E+03 -6.10684E+03  5.71670E+03 -1.34434E+04  4.93216E+03 -1.04170E+04  7.38424E+03 -6.25062E+03
  1.12820E+04  4.24798E+02 -4.30634E+02  7.19945E+03 -2.11300E+03  7.02485E+03 -9.49072E+01  3.72147E+03
 -3.77829E+03 -3.52662E+03  5.34399E+03 -2.70844E+03  1.04285E+04 -3.49708E+03  7.02194E+02  1.73780E+03
  2.97980E+03  3.83814E+03  6.14574E+03  2.45708E+03 -1.90578E+02  3.81830E+01 -9.59219E+02  5.74076E+02
  1.04867E+03  2.98458E+01  4.87057E+03  1.26879E+03  6.22488E+03  4.69012E+03 -2.09980E+03  7.11448E+03
 -3.18237E+03  4.49082E+03 -4.18302E+03  1.46333E+01 -5.20198E+03  3.10085E+03 -6.91442E+03 -3.33984E+03
  5.45381E+03 -9.69102E+03  1.85662E+03 -1.73257E+03  3.26383E+03  5.60113E+01  9.63887E+02  5.99390E+03
 -4.92225E+03  7.77394E+03 -6.79622E+03  2.89632E+02 -1.58307E+03 -7.41608E+03 -1.30623E+03 -3.83870E+03
  9.00919E+03 -5.01679E+03  5.30657E+03 -4.73496E+03  1.31226E+03  1.04089E+03 -3.74140E+03  4.46234E+03
  2.26607E+03  2.61325E+03 -2.82894E+03 -1.50485E+03  5.11468E+03 -1.75205E+03  6.51935E+03 -8.87218E+03
  7.24881E+03  5.65847E+02  4.58774E+03  1.46797E+03 -1.43147E+03  1.02688E+04 -7.80984E+03  1.02992E+03
 -2.00886E+03  5.48130E+03  1.03174E+02 -5.35146E+03 -4.98933E+03 -3.02935E+03  1.49219E+03 -4.35950E+03
 -2.00814E+03  1.47127E+03  7.07398E+02 -1.16561E+03  2.90601E+03  1.27822E+03 -8.18501E+02  1.13464E+03
 -3.96990E+03  6.52844E+03 -1.46555E+03  2.06482E+03  2.45612E+03  4.04457E+03 -5.50019E+03 -2.84803E+03
  3.92730E+02  3.32562E+03 -4.95645E+03  4.34000E+03 -8.01439E+03 -8.42808E+02 -6.50251E+03 -1.03195E+04
 -5.66890E+03 -6.80927E+03  6.32613E+03 -8.69393E+03  3.73402E+03 -8.17647E+03  1.28612E+04 -5.43497E+02
  1.26866E+04 -1.57971E+03  7.52097E+03  4.45619E+03 -3.76255E+03  5.09628E+03 -4.20923E+03  5.41661E+03
 -1.41262E+03  2.26828E+03 -4.14085E+03 -3.28248E+03  1.05569E+03 -6.87357E+02  4.50331E+03  2.14630E+03
 -9.09664E+02 -1.03456E+03 -5.21163E+03 -5.97078E+03  2.29223E+02 -4.06577E+03  3.51352E+03  2.00329E+03
  8.64976E+03 -5.47035E+03 -5.33007E+02  2.80194E+03 -1.17203E+03  3.88064E+03  3.52099E+03  9.69424E+03
 -3.48251E+03  4.92133E+03 -4.77168E+03  4.82826E+03 -8.81357E+03  4.96243E+03 -1.06433E+04 -6.57890E+03
 -5.58112E+03 -2.79465E+03  1.64712E+03 -7.22815E+03  5.59291E+03 -4.30664E+03 -2.14804E+03  8.87525E+02
  2.71745E+03  6.12783E+03  6.76698E+03  6.48441E+03 -1.11253E+03 -9.52901E+02  2.33631E+03  2.55565E+03
  3.44539E+03  2.10326E+02  6.96688E+02  4.73074E+03  4.85326E+03  4.64550E+03  4.53384E+03  5.05204E+02
  1.71298E+03  3.86347E+03 -7.86934E+03  1.08250E+03 -3.25588E+03 -1.40394E+03 -1.74483E+01 -6.75594E+03
  3.88243E+03 -1.15160E+04  3.07334E+03 -3.01820E+02  4.98871E+03 -2.80154E+03 -1.39427E+03  7.56739E+03
  1.22893E+03  1.54031E+03 -2.67707E+03  8.44764E+02  9.89100E+02  3.38607E+03 -6.72205E+03 -4.53007E+03
  1.78513E+03 -5.98308E+02 -9.92298E+01  3.32650E+03 -7.70156E+03  5.42363E+02  1.85578E+03 -2.16850E+03
 -2.93955E+03 -3.51770E+03 -8.11528E+01 -1.66721E+03  1.99445E+03 -2.99026E+03 -6.31207E+02 -2.99768E+03
  8.28241E+03 -1.74644E+03 -2.50336E+03  5.71038E+03 -1.12578E+03  5.96405E+03 -9.88230E+02  4.01789E+03
