 $NMID ID='MM_0lb_SNR50_12hz_g60_95.RAW', FMTDAT='(8E13.5)'
 TRAMP=1., VOLUME=1. $END
  3.10924E+05 -2.99545E+03  3.35172E+05  2.53149E+05  8.23224E+04  3.39355E+05 -1.36342E+05  2.50796E+05
 -1.86702E+05  8.17716E+04 -1.09522E+05 -3.45308E+04  5.12105E+03 -4.55871E+04  5.70221E+04  1.70209E+03
  2.88265E+04  5.16144E+04 -1.87984E+04  7.30605E+04 -6.12278E+04  6.36716E+04 -8.19096E+04  3.64598E+04
 -7.95757E+04 -1.42435E+04 -5.06183E+04 -5.20467E+04 -1.70146E+04 -7.27005E+04  2.82966E+04 -4.27188E+04
  4.06856E+04  7.47789E+03  1.44831E+04  4.37202E+04 -3.58965E+04  4.80409E+04 -6.42911E+04  2.89578E+03
 -5.76759E+04 -5.51222E+04 -1.08590E+04 -8.08050E+04  3.38260E+04 -5.80883E+04  4.99760E+04 -1.37740E+04
  4.65670E+04  9.42339E+03  3.13053E+04  2.36621E+04  1.75530E+04  3.56964E+04 -5.72180E+03  2.78889E+04
 -1.73439E+04  1.29918E+04 -1.39049E+04 -4.38238E+03  6.84828E+03 -8.52712E+03  2.13587E+04  9.30941E+03
  1.08481E+04  3.65606E+04 -3.85208E+04  3.49118E+04 -6.85082E+04  1.73287E+02 -5.94574E+04 -4.50560E+04
 -1.25070E+04 -6.64001E+04  4.08533E+04 -4.77887E+04  5.71724E+04 -2.99508E+03  3.72257E+04  3.75531E+04
 -4.14776E+03  4.01078E+04 -2.73502E+04  1.45179E+04 -2.94069E+04 -1.28230E+03 -1.53842E+04 -1.38447E+04
 -9.59822E+03 -1.80809E+04  1.32944E+03 -1.57770E+04  9.27888E+03 -2.87374E+04  1.55131E+04 -1.86313E+04
  1.45307E+04  6.70341E+03 -1.25310E+04  1.50914E+04 -1.92172E+04 -7.97063E+03 -5.72512E+03 -3.90724E+04
  2.42488E+04 -4.62945E+04  5.92780E+04 -1.80873E+04  5.26593E+04  2.19105E+04  1.97413E+04  4.70863E+04
 -1.65628E+04  3.80780E+04 -3.16848E+04  2.03116E+03 -8.72384E+03 -2.66945E+04  2.04446E+04 -3.98890E+04
  4.37805E+04 -8.27820E+03  4.29622E+04  2.55671E+04  1.78777E+04  4.93939E+04 -6.83824E+03  4.87076E+04
 -3.59496E+04  4.04573E+04 -4.44939E+04  1.26924E+04 -4.43826E+04 -2.32098E+04 -2.75874E+04 -3.85569E+04
  9.03389E+03 -4.12237E+04  3.71573E+04 -1.27175E+04  3.35183E+04  6.64500E+03  2.95127E+03  1.88508E+04
 -6.63583E+03  1.03663E+04 -1.03939E+04 -7.86389E+03  4.98219E+03 -1.13908E+04  1.79511E+04  1.08011E+03
  1.69873E+04  2.38000E+04 -6.37224E+03  2.71577E+04 -2.26948E+04  1.16626E+04 -3.43206E+04 -1.24897E+04
 -2.56867E+04 -1.69616E+04 -1.32567E+04 -2.67148E+04  8.61648E+03 -2.49303E+04  1.40284E+04 -1.87494E+04
  3.12627E+04 -1.29588E+04  3.77511E+04  3.74093E+03  2.98235E+04  2.22790E+04  8.70301E+03  3.70914E+04
 -1.95300E+04  3.09417E+04 -3.47402E+04  7.53879E+03 -2.34047E+04 -1.01382E+04 -8.46970E+03 -1.38750E+04
 -4.51995E+03  2.80552E+02 -7.40990E+03  6.51669E+03 -1.51366E+04  4.55336E+03 -2.08988E+04 -5.54292E+03
 -1.07174E+04 -1.99005E+04  3.95314E+03 -3.05390E+04  1.60827E+04 -1.95983E+04  2.32348E+04 -2.40764E+03
  7.37880E+03  9.90432E+03 -2.03424E+03  2.80941E+04 -1.83617E+04  1.39585E+04 -2.06360E+04 -1.40478E+03
 -1.77063E+04 -2.27335E+04 -2.71897E+03 -2.68423E+04  7.16265E+03 -2.02079E+04  2.10301E+04 -1.06679E+04
  1.84149E+04  6.51808E+03  1.40266E+04  4.61976E+03  8.00207E+03 -2.14261E+03  5.99175E+03 -4.02271E+03
  1.93115E+04  2.92945E+03  2.66700E+04  1.64947E+04  1.98573E+04  3.50351E+04 -4.52640E+03  4.43480E+04
 -2.74546E+04  3.39014E+04 -3.70907E+04  1.23090E+04 -4.39337E+04 -6.52465E+03 -3.12295E+04 -2.48152E+04
 -1.00886E+04 -3.01692E+04  1.76199E+04 -2.85928E+04  2.64406E+04 -1.39621E+04  1.52849E+04  4.04657E+03
  3.16548E+03  2.04423E+04 -1.39251E+04  1.85301E+04 -2.00620E+04 -3.14093E+03 -1.69190E+04 -1.32062E+04
  2.02093E+03 -1.72413E+04  1.03799E+04 -1.29499E+04  1.22560E+04 -1.07345E+03  3.17443E+03  1.00396E+04
 -7.12674E+03  2.54420E+03 -5.83515E+03 -1.44878E+03 -3.35864E+03 -1.60240E+04  1.33650E+04 -1.65694E+04
  2.41560E+04 -2.62897E+03  2.06852E+04  1.82010E+03  1.79189E+04  1.61485E+04  3.69058E+03  2.19811E+04
 -3.15985E+03  2.16061E+04 -1.51989E+04  1.64667E+04 -2.39704E+04  7.83972E+02 -1.19071E+04 -7.90018E+03
 -8.76130E+03 -1.22887E+04 -2.61885E+03  3.06454E+03 -2.75234E+03 -2.10915E+03 -5.20857E+03  1.12312E+04
 -9.70595E+03  4.67893E+03 -1.35193E+04 -1.09370E+04 -7.80853E+03 -1.47761E+04  1.00924E+04 -1.26651E+04
  7.66271E+03 -3.33098E+03  7.35336E+03 -7.11032E+02 -1.79584E+03  8.32130E+03 -5.73896E+03  2.33269E+03
 -4.85344E+03 -1.03445E+04  1.75494E+03 -1.08120E+04  1.21313E+04 -1.31660E+04  1.84795E+04 -9.26253E+03
  2.51367E+04  2.27425E+03  1.71269E+04  1.37864E+04  3.66407E+03  1.42087E+04 -5.68505E+03  1.95190E+04
 -9.17828E+03  9.37887E+02 -8.12747E+03  1.20141E+03  8.78217E+03 -1.87045E+03  4.50012E+03  2.50087E+03
  1.07415E+04  8.14559E+03  7.25353E+02  8.62621E+03 -5.35232E+03  9.38820E+03 -9.89463E+03  4.13212E+03
 -6.83434E+03 -4.89561E+03 -3.74982E+03 -1.26373E+04  8.94125E+03 -3.55823E+03  9.41361E+03  3.12388E+03
  6.03167E+02  8.04262E+03 -2.39929E+03  1.77563E+04 -5.76469E+03 -2.53898E+03 -1.26417E+04 -5.93498E+03
 -7.23523E+03 -1.69489E+04  5.20781E+03 -1.56872E+04  1.45029E+04 -6.19267E+03  1.01371E+04  1.84421E+03
  1.08688E+04  1.32277E+04 -3.96347E+03  1.54251E+04 -1.02921E+04  5.98527E+03 -1.04486E+04 -1.14365E+03
 -1.31616E+04 -1.12649E+04 -3.76551E+03 -1.05330E+04  9.08927E+03 -1.08401E+04  3.68595E+03 -5.97222E+03
  2.40527E+03  2.17246E+03  8.43271E+01 -8.92276E+02  2.44311E+03 -6.15455E+03  4.62505E+03 -3.91446E+03
  5.70061E+03 -5.12180E+03  1.73966E+04  3.29413E+03  1.10423E+04  7.45109E+03  5.40515E+03  1.42348E+04
 -3.14365E+03  1.98456E+04 -1.09963E+04  9.96743E+03 -1.91156E+04  2.98560E+03 -1.85405E+04 -9.80640E+03
 -4.60847E+03 -1.25822E+04 -3.94852E+03 -1.21695E+04  5.73202E+03 -7.57415E+03  5.05385E+03 -5.10276E+03
  2.55063E+03  7.76660E+02  2.16424E+03 -2.98005E+03  1.86708E+03  1.34617E+03  5.20139E+03 -3.87888E+03
  1.03136E+04 -2.85237E+03  5.02320E+03  5.04659E+03  6.69073E+02  7.54624E+03 -7.89516E+03  1.06939E+04
 -1.30677E+04 -5.48126E+03 -8.36124E+03 -5.79689E+03 -4.41182E+03 -1.03340E+04  6.71476E+03 -1.20185E+04
  1.39435E+04 -1.07620E+04  1.76553E+04  9.48333E+02  9.64796E+03  7.40402E+03  5.23138E+03  1.29928E+04
 -6.38635E+03  3.75899E+03 -4.82180E+03  7.59888E+02 -6.87576E+03  6.96631E+02 -6.58515E+03  5.21655E+02
 -2.25732E+03  2.18742E+03 -2.89617E+03  3.40111E+02 -5.96802E+03  1.10010E+04 -8.85475E+03 -8.31725E+03
 -2.52626E+03 -4.18354E+03 -2.87127E+02 -1.26146E+04  1.48282E+04 -9.41763E+03  1.09072E+04 -4.66363E+03
  9.46745E+03 -3.89705E+02  8.09453E+02  1.21170E+04 -3.79340E+02  1.07526E+04 -3.57636E+03  4.34163E+03
 -8.28923E+03 -5.96873E+03 -1.00484E+04 -8.80937E+03 -2.28282E+02 -9.49063E+03  8.12698E+03 -8.47885E+03
  1.09556E+04 -1.87570E+03  7.85560E+03  4.58975E+03  3.24420E+03  2.73141E+03  2.71954E+03 -4.44482E+01
  4.81692E+03 -1.58328E+03  7.39001E+03 -5.44656E+03  8.58771E+03  5.84196E+03  1.55691E+03  1.47872E+03
  8.17244E+02  9.28138E+03 -1.02445E+04  1.04877E+04 -9.58208E+03  1.43723E+03 -1.60062E+04 -3.28016E+03
 -2.25797E+03 -1.31340E+04 -1.76975E+03 -1.02662E+04  6.58500E+03 -8.64109E+03  7.47888E+03  5.22443E+02
  6.82976E+03 -2.20156E+03  2.27177E+03  6.64364E+03 -7.49955E+03  2.49687E+03 -6.18908E+03 -1.15086E+03
 -4.91432E+03 -5.75958E+03  5.03069E+02 -7.48255E+03  4.09559E+03 -3.98177E+03  2.31087E+03 -5.96682E+02
  1.91490E+02  2.44102E+03  1.45746E+03 -1.47407E+03 -9.69291E+02  2.13854E+03 -7.28879E+02 -6.26780E+02
  3.20254E+03 -3.51531E+03  2.80850E+03  3.13584E+03 -5.28465E+02  9.57925E+03 -2.58968E+03  6.88057E+03
 -6.84749E+03  2.42737E+03 -8.84515E+03 -4.91772E+03 -6.10787E+03 -1.23468E+03 -5.16418E+03 -5.60350E+03
 -2.95302E+03 -2.79705E+03  3.35250E+03 -3.86454E+02  3.02073E+03  2.34803E+03  1.93885E+03  6.33918E+03
 -6.96008E+03  4.15104E+03 -1.18268E+03 -1.88623E+03 -5.46349E+03 -7.22552E+03  1.50655E+03 -5.05072E+03
  1.97963E+03 -8.69971E+03 -1.57497E+02 -1.91071E+03  2.20414E+03  4.23425E+03  6.23884E+03 -3.95772E+02
  1.67351E+03  6.15786E+02 -5.91555E+02  5.95471E+02  1.30137E+03 -2.72727E+03  3.69912E+03 -4.87731E+03
  3.18727E+03 -2.91687E+03  9.82175E+03  7.75765E+03  2.33406E+03  3.77154E+03 -5.06220E+03  9.05648E+03
 -1.16311E+04  2.09309E+03 -3.72925E+03  7.78300E+02 -1.94861E+03 -5.28898E+03 -2.97989E+03 -3.35065E+03
  1.89870E+03  4.54315E+03  1.14204E+04  4.27672E+03 -4.48483E+03  1.55243E+03  7.56379E+03  5.28438E+03
  2.63077E+03 -1.89500E+03 -7.08093E+03 -4.28886E+03 -2.74501E+03  2.80294E+03 -1.25672E+03  8.46174E+02
 -1.41423E+03  2.97010E+03 -7.15528E+03 -2.74687E+02 -5.05080E+03 -2.60816E+03 -3.75780E+03 -9.26752E+02
 -2.87342E+03 -7.88297E+03  7.84021E+02 -1.06249E+04  9.40714E+03 -1.62947E+03  1.39104E+04 -4.48862E+03
  6.12516E+03  3.24471E+03  7.23587E+03  9.44756E+03  4.28779E+02  3.28148E+03 -1.73053E+02  7.95767E+03
 -4.09288E+03  1.99571E+03  2.47931E+03 -3.20532E+02  7.26038E+02 -6.03071E+02  5.89413E+02  1.06699E+03
  3.13554E+03  4.60774E+03 -8.88088E+03 -3.12474E+03  3.24528E+03 -1.44329E+03  4.24202E+03 -6.76054E+03
  4.04814E+03 -3.17075E+03  7.83508E+03 -5.59762E+03  7.84160E+03  4.82310E+03  3.03421E+03  8.02634E+03
 -4.06937E+03  1.97171E+03 -5.46379E+03 -2.39362E+03 -3.67324E+03  4.12205E+02 -5.73013E+03 -4.40825E+03
 -4.25840E+03 -1.45146E+03  2.06516E+02 -5.05888E+03  3.41822E+03 -1.84613E+03  3.45961E+03 -1.46187E+03
  1.69630E+03  6.85148E+03 -2.42220E+03  4.36386E+03  2.22548E+03  1.83523E+03 -1.77145E+03 -1.43475E+03
  2.83091E+03  4.69925E+03  6.02900E+03  9.36151E+03  7.93621E+02  3.99803E+03  7.15294E+03 -3.14731E+02
 -1.21020E+03  3.14166E+03 -2.58040E+03  1.18804E+03 -2.46658E+03  2.34967E+03 -7.68597E+02 -3.29672E+03
  4.57372E+03 -2.05700E+03  4.38495E+03  7.22466E+02  4.84327E+03  1.88140E+03  1.99063E+03  5.44342E+03
  9.12203E+02  2.41834E+03 -4.82316E+03  1.03327E+03  1.90557E+03  5.80980E+03 -1.69366E+03 -3.30096E+03
 -9.93746E+02 -2.30064E+02 -1.15978E+03 -1.76484E+03  2.97564E+02  6.93577E+03 -2.56421E+02 -1.35217E+03
 -1.21428E+03 -4.81498E+03 -3.36432E+03 -5.71825E+02  6.42534E+03 -4.46816E+03  8.22836E+03 -7.81902E+02
  6.12527E+03  1.85186E+03  3.06673E+03  2.91774E+03  3.65572E+03 -3.91038E+03 -2.21130E+03  7.30169E+03
