 $NMID ID='MM_0lb_SNR50_16hz_g40_54.RAW', FMTDAT='(8E13.5)'
 TRAMP=1., VOLUME=1. $END
  3.11125E+05 -2.73829E+03  3.38368E+05  2.53866E+05  8.28523E+04  3.38703E+05 -1.32742E+05  2.49922E+05
 -1.92692E+05  8.61541E+04 -1.07937E+05 -3.56898E+04 -3.79395E+02 -4.67846E+04  5.40328E+04  1.42481E+03
  3.48183E+04  5.25409E+04 -2.15713E+04  7.77312E+04 -6.05383E+04  6.03759E+04 -8.16317E+04  2.89470E+04
 -8.05619E+04 -1.12196E+04 -6.16886E+04 -5.01505E+04 -1.53056E+04 -6.78850E+04  2.67620E+04 -4.69917E+04
  3.57990E+04  6.89435E+03  1.17073E+04  4.65098E+04 -3.60586E+04  4.89751E+04 -6.52678E+04 -6.39396E+02
 -4.96587E+04 -5.88561E+04 -5.30930E+03 -7.93467E+04  3.17685E+04 -5.45179E+04  4.48508E+04 -1.91568E+04
  4.17002E+04  1.03301E+04  2.96099E+04  2.35590E+04  1.36619E+04  2.63023E+04  1.38320E+03  1.93480E+04
 -1.83940E+04  1.12115E+04 -2.23798E+04 -6.04618E+03  5.94509E+03 -8.30455E+03  2.11453E+04  1.12207E+04
  8.23024E+03  3.25503E+04 -2.82413E+04  3.12191E+04 -6.23250E+04  1.04604E+02 -5.81828E+04 -3.95056E+04
 -1.31004E+04 -6.04540E+04  3.44101E+04 -4.55243E+04  5.53246E+04 -4.33116E+01  3.06745E+04  3.05505E+04
 -6.10236E+03  3.51753E+04 -2.74431E+04  1.30479E+04 -3.36940E+04 -2.42491E+03 -1.48240E+04 -1.33964E+04
 -2.55026E+02 -9.30636E+03 -3.45926E+03 -1.72658E+04  7.69789E+03 -2.46771E+04  1.45202E+04 -1.49645E+04
  1.56345E+04  3.43738E+03 -7.19400E+03  1.31574E+04 -2.17951E+04 -3.98984E+03 -6.41418E+03 -3.32519E+04
  1.89224E+04 -3.94921E+04  4.54003E+04 -2.22254E+04  4.16731E+04  1.98287E+04  1.38034E+04  4.08600E+04
 -1.28628E+04  3.14926E+04 -2.27244E+04 -1.66470E+03 -7.76931E+03 -2.66422E+04  2.13012E+04 -3.14881E+04
  3.71089E+04 -5.74660E+03  3.06668E+04  2.37038E+04  1.33368E+04  4.35751E+04 -5.31311E+03  4.96596E+04
 -2.96827E+04  2.66719E+04 -3.65619E+04  2.16162E+03 -4.26095E+04 -1.71531E+04 -2.31314E+04 -3.30725E+04
  8.11629E+03 -3.56066E+04  3.14447E+04 -1.49222E+04  2.94701E+04  1.16693E+04  4.55974E+03  2.09663E+04
 -1.54589E+04  1.03911E+04 -9.47948E+03 -4.50444E+03  3.49024E+03 -8.14046E+03  1.47718E+04  1.76622E+03
  1.24578E+04  2.30134E+04 -3.39899E+03  2.51269E+04 -2.06103E+04  7.24931E+03 -2.58834E+04 -5.67704E+03
 -1.66545E+04 -1.79284E+04 -1.02912E+04 -1.70520E+04  7.81684E+03 -1.45885E+04  1.66536E+04 -1.95856E+04
  2.12357E+04 -1.00284E+04  2.65893E+04  1.58027E+03  1.65450E+04  1.77106E+04  2.03219E+03  3.55148E+04
 -1.33060E+04  2.60921E+04 -2.90323E+04  1.02125E+04 -1.79546E+04 -7.24878E+03 -3.99079E+03 -1.42293E+04
  2.19691E+03 -6.07659E+03 -1.34762E+03  5.54389E+03 -1.44193E+04  5.70372E+03 -1.32075E+04 -5.72142E+03
 -6.58971E+03 -1.77952E+04  3.85287E+03 -2.02291E+04  1.51900E+04 -1.90382E+04  1.55283E+04 -4.96735E+03
  1.26925E+04  1.09766E+04 -2.96826E+03  1.52536E+04 -1.36536E+04  7.73174E+03 -1.85279E+04 -2.74222E+03
 -9.05245E+03 -1.84864E+04  1.66314E+03 -2.04131E+04  8.53360E+03 -1.52693E+04  1.55566E+04 -1.07341E+04
  1.78272E+04  4.23707E+03  1.48807E+04 -1.42603E+03  7.81221E+03  9.03302E+02  6.37237E+03 -1.87666E+03
  1.67413E+04  2.96937E+03  1.51902E+04  1.38686E+04  5.64910E+03  2.43173E+04 -1.19039E+03  3.31340E+04
 -2.05972E+04  2.29623E+04 -2.58593E+04  1.27911E+04 -2.44799E+04 -3.94887E+03 -2.40845E+04 -1.83856E+04
 -8.63595E+03 -2.63847E+04  6.84138E+03 -2.00674E+04  1.50248E+04 -1.37793E+04  1.64975E+04  2.07466E+03
  5.70206E+03  1.55138E+04 -8.34472E+03  1.08279E+04 -1.24816E+04 -1.17581E+03 -1.33809E+04 -7.90159E+03
 -2.00387E+02 -8.02031E+03  7.38505E+03 -9.63609E+03  7.75567E+03 -1.50225E+02 -1.11063E+03  7.35453E+03
 -6.99048E+02  3.37337E+03 -7.10537E+03 -2.49213E+03  1.44246E+02 -1.00039E+04  9.22396E+03 -9.67936E+03
  1.62582E+04 -5.53722E+03  1.38090E+04  1.11390E+03  1.17728E+04  1.02218E+04  5.19459E+03  2.06343E+04
 -3.98075E+03  2.01522E+04 -1.52167E+04  1.06315E+04 -1.31990E+04 -2.28988E+03 -1.35729E+04 -3.57628E+03
 -6.52734E+03 -4.19233E+03 -1.44477E+03  3.11000E+03 -4.49116E+03 -2.35731E+03 -5.49620E+03  6.12944E+03
 -1.00788E+04 -1.29569E+03 -9.65067E+03 -4.62045E+03 -3.42417E+02 -1.36046E+04  3.10357E+03 -1.30310E+04
  6.83425E+03 -2.38607E+03  7.19349E+03  4.46946E+03 -1.66136E+03  3.00776E+03 -3.53877E+03  4.42265E+03
  2.30012E+03 -3.91520E+03 -6.59888E+02 -8.10563E+03  4.74055E+03 -6.77303E+03  7.66901E+03 -3.45250E+03
  1.48731E+04  5.47736E+02  7.12235E+03  8.74458E+03  5.41287E+02  6.86373E+03 -6.47162E+03  9.73045E+03
 -1.11263E+04 -2.82817E+03 -4.55503E+03 -6.87437E+03  1.70998E+03 -8.38104E+02  6.57148E+03 -1.15222E+03
  4.86667E+03  1.15073E+03  2.52838E+03  1.15843E+04 -6.54926E+02  8.22606E+03 -9.53983E+03  1.14864E+03
 -8.38579E+03 -8.24642E+02  1.23969E+03 -7.87624E+03  3.75123E+03 -8.76418E+02  3.70490E+03  2.52085E+02
  4.94413E+03  8.13854E+03 -5.68754E+03  7.81305E+03 -6.64675E+03  1.12122E+03 -6.34779E+03 -9.65814E+02
 -5.35113E+03 -7.41551E+03 -1.28306E+02 -5.62312E+03  8.09364E+03 -6.09713E+03  5.78868E+03  2.40690E+03
  2.36364E+03  8.94249E+03 -3.24228E+03  6.86657E+03 -5.43646E+03  6.87906E+03 -7.97181E+03  1.99507E+03
 -6.48797E+03 -4.76714E+03 -4.02411E+03 -1.02633E+04 -9.94708E+02 -5.19505E+03  1.42698E+03 -4.78118E+03
  3.18035E+03 -1.14394E+03 -3.24951E+03  1.63103E+02 -1.04092E+03  1.86171E+03  2.24702E+03 -8.89149E+03
  5.36709E+03 -1.76564E+02  1.08722E+04  6.25793E+01  7.28196E+03  4.34832E+03  4.07183E+03  5.72610E+03
 -3.27450E+03  8.26231E+03 -8.62568E+03  9.59386E+03 -1.60711E+04  2.50359E+03 -7.96981E+03 -6.54714E+03
 -5.95822E+03 -9.64821E+03 -1.56711E+03 -4.51794E+03  2.98976E+03 -4.95466E+03  8.41631E+02 -2.30966E+03
  2.38164E+03 -1.47024E+03  4.97968E+03 -2.54178E+03  3.53960E+03 -6.00245E+03  2.44623E+03  3.22354E+03
  3.86555E+03  3.69883E+03  2.11540E+03  3.14711E+03 -1.49605E+03  6.54943E+03 -5.83673E+03  1.23125E+03
  5.00190E+02 -2.03748E+03 -7.90600E+03 -5.98518E+03  2.26364E+03 -3.03006E+03  9.08085E+02 -1.13096E+04
  5.43257E+03 -3.83719E+03  4.03138E+03  2.26655E+03  6.40158E+03  4.37010E+03 -3.73450E+03  7.33379E+03
 -3.07702E+03  1.14328E+04 -6.74605E+03  3.79867E+03 -3.19927E+03  1.19281E+03 -2.42026E+03 -4.35692E+03
 -1.30972E+03 -2.62211E+03  2.10624E+03  4.41129E+03  1.56815E+03  5.46418E+03 -1.22465E+03  6.67930E+02
  5.78210E+02 -4.49163E+03  9.29462E+02 -9.23541E+03  4.88606E+03 -5.95070E+03  2.26377E+03 -9.32920E+02
  6.54855E+03  2.78060E+03  5.32298E+03  4.04794E+03 -2.00780E+03  1.19292E+04 -3.89297E+01  4.45130E+03
 -4.53343E+03  4.68446E+03 -4.64118E+03 -6.64676E+03  3.68084E+02 -3.59426E+03 -4.19309E+01 -6.10632E+03
  1.70008E+03  2.75726E+02  1.14962E+03  1.93580E+03 -1.55300E+02 -9.36886E+02  4.16502E+03 -4.19703E+03
  6.33245E+03 -2.03545E+03  5.49420E+03  1.92637E+03  9.42123E+02  5.20578E+03  1.77236E+03  1.86369E+03
 -1.55863E+03  5.72500E+03 -6.83801E+02  4.55642E+03 -4.75946E+03  6.80670E+03 -9.22932E+03 -2.96292E+03
 -6.33399E+02 -5.26933E+03 -5.38713E+02 -5.11244E+03  3.04083E+03 -6.06598E+03  5.26152E+03  2.46042E+03
  2.60361E+03  1.55559E+03 -7.80386E+02  4.73443E+03 -2.80338E+03  4.33674E+03 -4.82818E+02 -2.04754E+03
 -1.67210E+03 -3.05079E+03  1.44447E+03 -3.12202E+03  3.20955E+03 -4.07926E+03  1.58831E+03 -9.67322E+02
  3.18361E+03 -9.44741E+02 -2.75586E+03 -2.53502E+02 -2.11934E+03  2.78726E+03  2.25632E+03 -9.33626E+02
  3.25303E+03  9.10365E+02  7.52437E+03 -5.98059E+02 -3.21115E+03  1.28147E+03 -1.48142E+03  4.32462E+03
 -6.75499E+02 -3.27594E+03 -3.83445E+03 -2.11798E+02 -4.58420E+03 -8.26116E+02  2.09707E+03 -2.17675E+02
  1.98450E+03 -1.96393E+03 -3.13663E+03 -3.74858E+01  2.93452E+03 -1.10051E+03  1.87067E+03  3.24188E+03
 -2.69141E+03 -2.58215E+02 -5.29561E+03 -2.74624E+03 -2.77592E+03 -1.15935E+03  1.79992E+03 -1.36477E+03
 -5.58597E+02  1.34416E+03  2.70008E+03  2.05231E+03  7.33371E+02  2.88472E+03 -2.34900E+03  7.39333E+03
 -7.43858E+02  9.89386E+02 -4.43175E+03 -6.03946E+02  4.43687E+03  1.31188E+03 -2.09194E+03 -2.55621E+03
  5.97995E+03 -1.95495E+03  5.04100E+03 -1.78993E+03  9.24724E+02  1.06064E+03 -1.01987E+03 -2.01734E+03
  1.46155E+03 -2.40228E+03 -5.08472E+03 -1.34880E+03 -9.11008E+02 -2.11775E+03  2.14480E+01  2.12405E+03
 -1.38518E+03 -1.22582E+01 -1.04862E+03 -3.31989E+02  7.38058E+01  4.17744E+03  6.74607E+02  6.27943E+02
 -1.97873E+02  3.05053E+03 -4.63209E+03 -4.34575E+03  1.88697E+03  2.77396E+03 -6.18828E+03 -5.97495E+02
  2.88621E+03  5.56368E+03 -1.41592E+03 -6.53682E+02 -7.62628E+02  4.30152E+03 -4.84260E+03 -5.51056E+03
 -2.20991E+03 -7.92251E+03 -1.22807E+03 -4.88065E+03  2.85603E+03 -1.55919E+03  5.64333E+03  1.49144E+03
  9.49166E+03  3.48968E+03  2.64592E+02  1.97129E+03  8.96166E+02  4.64540E+03  2.69503E+03  5.27476E+03
  2.11943E+03 -2.85349E+03 -3.17095E+03  1.72604E+03 -2.24959E+03  2.73450E+03 -1.36855E+03  1.41480E+03
 -5.80737E+03  3.81391E+03 -1.17236E+03 -9.45557E+02  2.93165E+02  1.87933E+03 -2.08565E+03 -6.50684E+02
  3.47296E+03  5.32313E+03  2.76447E+03  1.04433E+03  4.53378E+03  7.47100E+03  2.22980E+03  8.16908E+03
 -4.45963E+03  6.15672E+03 -2.70329E+03  2.65374E+03 -2.44714E+03 -2.71101E+03 -1.24426E+03  8.04504E+02
 -2.96761E+03 -1.90359E+03 -1.09727E+03 -2.64067E+03 -7.78204E+02 -7.16507E+03 -8.96924E+02 -1.84658E+03
  1.86208E+03 -1.55271E+03 -2.93265E+03  2.74988E+03  2.72662E+03 -1.91507E+03 -2.29984E+03  4.82914E+02
  2.77107E+03  7.05421E+02  2.93584E+03  4.89799E+02  5.75093E+03 -4.38158E+02  2.41036E+03  1.36387E+03
 -3.55101E+03  6.18173E+02  1.30272E+01  2.61739E+01 -4.57093E+02 -3.33448E+02 -6.48916E+02 -1.95306E+03
  5.45295E+02 -1.48066E+02 -2.49363E+02  3.01528E+03 -2.79333E+02 -1.19168E+03 -4.12616E+02  8.29036E+02
  1.76876E+03  2.97165E+03 -3.79780E+02 -7.12632E+01  2.15649E+03  1.04637E+03 -1.78248E+03 -1.32074E+03
 -3.82860E+02 -1.85388E+03  3.40843E+02  3.50758E+03  6.64850E+03 -3.52335E+03  2.51274E+02  1.12365E+03
  2.07486E+03 -2.63341E+02  2.33753E+03  1.60797E+03 -3.05571E+02 -3.23652E+01  9.01034E+01 -4.34488E+03
  5.26209E+03 -4.09641E+02  1.83535E+03  4.32135E+03 -1.50285E+03  2.36899E+03 -1.76898E+03 -2.41317E+02
