 $NMID ID='MM_0lb_SNR50_11hz_g60_100.RAW', FMTDAT='(8E13.5)'
 TRAMP=1., VOLUME=1. $END
  3.08452E+05  1.11329E+03  3.39033E+05  2.51926E+05  8.98533E+04  3.35236E+05 -1.34309E+05  2.51802E+05
 -1.91284E+05  8.27155E+04 -1.12402E+05 -3.47782E+04  7.78911E+02 -5.36083E+04  5.63184E+04 -6.43827E+03
  3.21944E+04  5.47215E+04 -1.12525E+04  7.52116E+04 -6.07248E+04  6.13735E+04 -8.89427E+04  3.03821E+04
 -8.29486E+04 -6.14993E+03 -5.45182E+04 -5.22127E+04 -1.30845E+04 -6.67561E+04  2.49873E+04 -4.90000E+04
  3.95516E+04  3.49701E+03  1.88757E+04  4.60514E+04 -3.76662E+04  4.97056E+04 -6.88356E+04  7.33566E+02
 -5.45679E+04 -6.06506E+04 -1.04978E+04 -7.67878E+04  3.51477E+04 -5.72648E+04  5.34218E+04 -1.75360E+04
  4.56409E+04  7.41754E+03  3.35501E+04  2.57596E+04  2.32203E+04  2.93271E+04 -6.54013E+03  2.59843E+04
 -2.11270E+04  1.56605E+04 -2.03155E+04  1.19262E+03  1.02319E+04 -6.50840E+03  2.21011E+04  1.50833E+04
  1.32744E+04  3.53755E+04 -3.28992E+04  3.43222E+04 -6.18756E+04  3.24452E+03 -5.99304E+04 -5.23905E+04
 -1.69650E+04 -6.46897E+04  3.99421E+04 -4.81204E+04  5.38084E+04  1.69799E+03  3.54270E+04  3.96697E+04
 -6.89119E+03  3.83109E+04 -3.57229E+04  1.71860E+04 -4.00432E+04 -2.92383E+03 -1.21987E+04 -1.20658E+04
 -1.31882E+04 -2.00267E+04 -2.41512E+03 -2.11326E+04  7.50645E+03 -2.17426E+04  1.41080E+04 -1.18769E+04
  6.50895E+03  7.02500E+03 -1.76092E+04  1.15192E+04 -2.54542E+04 -6.68256E+03 -9.84009E+03 -3.99216E+04
  3.19274E+04 -4.83188E+04  4.89688E+04 -2.09781E+04  4.60641E+04  1.73320E+04  1.18586E+04  4.73524E+04
 -1.94858E+04  4.03529E+04 -2.76306E+04  1.51609E+03 -9.31254E+03 -3.73398E+04  1.52977E+04 -4.14245E+04
  4.27410E+04 -8.24332E+03  3.87452E+04  2.38894E+04  2.57433E+04  5.39682E+04 -2.23461E+03  5.28550E+04
 -3.63507E+04  3.69107E+04 -5.38060E+04  9.01238E+03 -4.66612E+04 -1.66989E+04 -2.83254E+04 -3.87285E+04
  7.82310E+03 -3.97576E+04  3.33980E+04 -1.35797E+04  3.08859E+04  1.30178E+04  7.30448E+03  1.61371E+04
 -1.24624E+04  1.23473E+04 -1.38317E+04 -6.28432E+03  7.10853E+03 -1.06617E+04  1.64523E+04  1.21494E+04
  1.89104E+04  2.04119E+04 -4.62108E+03  2.78452E+04 -2.38156E+04  1.00721E+04 -2.80659E+04 -5.49652E+03
 -2.72695E+04 -1.44164E+04 -1.20117E+04 -2.76583E+04  6.13845E+03 -2.78849E+04  1.79170E+04 -1.83903E+04
  2.84452E+04 -1.62612E+04  3.23403E+04  9.37000E+02  3.02666E+04  2.36381E+04  6.91806E+03  3.91034E+04
 -2.47233E+04  3.71605E+04 -2.96810E+04  1.25642E+04 -2.50843E+04 -5.03722E+03 -6.28552E+03 -1.50405E+04
  2.55347E+03 -3.77922E+03 -7.96650E+03  9.99520E+03 -1.96596E+04  3.89510E+03 -2.14666E+04 -1.01031E+04
 -8.00169E+03 -2.25085E+04  6.83268E+03 -2.83234E+04  2.03285E+04 -2.45509E+04  2.08963E+04 -2.98443E+03
  8.95589E+03  1.65170E+04  1.43608E+03  1.88129E+04 -1.74248E+04  1.23313E+04 -2.05132E+04 -1.26341E+04
 -1.72225E+04 -1.49200E+04 -9.32381E+02 -3.11583E+04  1.10758E+04 -2.31580E+04  1.80820E+04 -5.44246E+03
  2.32504E+04  4.73573E+03  1.36822E+04  6.16933E+03  8.00582E+03  9.00378E+03  6.09593E+03 -5.76305E+03
  2.81524E+04  7.90919E+03  1.71030E+04  1.76419E+04  1.52548E+04  3.86190E+04 -7.95542E+03  4.16429E+04
 -1.90004E+04  3.46550E+04 -3.27671E+04  1.96203E+04 -3.96629E+04 -9.36219E+03 -3.44306E+04 -2.86410E+04
 -1.97380E+04 -4.01578E+04  1.12651E+04 -2.79111E+04  2.96994E+04 -1.76900E+04  2.43902E+04  8.00093E+03
  8.67914E+03  2.02442E+04 -1.34574E+04  1.30486E+04 -1.70026E+04  3.56641E+03 -1.76759E+04 -1.05397E+04
 -3.36768E+03 -1.33151E+04  6.27984E+03 -2.03662E+04  1.27578E+04 -2.88936E+03  2.41141E+03  7.40420E+03
 -9.36748E+03  9.97584E+03 -6.27731E+03 -9.93907E+03 -1.70098E+03 -1.74360E+04  2.11670E+04 -1.79684E+04
  2.45949E+04 -1.08629E+04  2.86528E+04  5.73286E+03  2.17609E+04  1.83604E+04  6.85249E+03  2.51376E+04
 -8.85100E+03  2.49072E+04 -1.72941E+04  1.87309E+04 -1.99236E+04  4.81430E+03 -1.97245E+04 -2.13848E+03
 -6.09708E+03 -2.32018E+03 -1.71541E+03  5.77459E+03 -5.56168E+03  2.03358E+03 -7.20744E+03  4.49291E+03
 -1.72272E+04  2.24979E+03 -1.16932E+04 -1.00427E+04 -1.51043E+03 -1.46940E+04  5.83538E+03 -1.71187E+04
  1.33499E+04 -9.12846E+03  6.89350E+03  1.29095E+03  2.45522E+03  7.64454E+03 -1.22298E+04  4.40062E+02
 -3.31893E+03 -8.36699E+03 -6.85891E+03 -1.48363E+04  9.80610E+03 -1.62399E+04  1.98295E+04 -1.18820E+04
  2.10108E+04  2.61591E+03  1.37664E+04  2.02319E+04  4.48613E+03  1.63959E+04 -1.02618E+04  1.05935E+04
 -7.76197E+03  5.35392E+03 -3.17060E+02 -2.47665E+03  2.23669E+03 -5.70031E+03  2.95205E+03  3.67372E+01
  5.18777E+03  6.82481E+03 -3.02743E+02  1.12824E+04 -8.33088E+03  1.12477E+04 -1.38523E+04  7.23321E+03
 -5.94290E+03 -2.39174E+03 -9.06647E+02 -1.84502E+04  8.85667E+03 -1.59031E+03  4.49679E+03  2.09483E+03
  1.02423E+04  7.94101E+03 -6.45287E+03  1.59898E+04 -9.24083E+03 -5.70112E+02 -1.13326E+04 -6.78249E+03
 -4.44307E+03 -1.37022E+04 -1.52853E+03 -1.33606E+04  1.96824E+04 -1.23810E+04  1.64370E+04  7.53540E+03
  7.98679E+03  1.21134E+04 -1.82730E+03  1.33412E+04 -6.32268E+03  1.05560E+04 -1.13369E+04  2.59515E+03
 -1.20877E+04 -1.22641E+04 -5.11957E+03 -7.83701E+03  2.37245E+03 -7.22419E+03  1.55942E+04  7.92436E+00
  5.61278E+03 -1.35194E+03  8.84188E+02 -2.90702E+03 -2.86295E+03 -6.06699E+03  7.22989E+02 -1.29361E+04
  1.71057E+04 -5.71214E+03  1.46979E+04  3.68912E+03  1.84819E+04  1.54461E+04  1.10812E+04  2.19252E+04
 -2.58309E+03  1.85666E+04 -2.49740E+04  1.65700E+04 -2.49655E+04  6.23207E+03 -1.55845E+04 -1.75024E+03
 -1.22543E+04 -1.32867E+04 -2.79377E+03 -1.43220E+04  1.59966E+03 -7.95549E+03  4.21976E+03 -5.48307E+03
  8.24635E+03 -1.95774E+03  2.70912E+03 -3.96421E+03 -2.23583E+03 -5.48966E+03  9.46906E+03  1.55549E+03
  9.94616E+03  9.88557E+02  9.59623E+02  1.09705E+04 -1.95186E+03  8.96156E+03 -1.14258E+04  1.21150E+04
 -1.19719E+04  1.22758E+03 -9.45300E+03 -1.02537E+04  6.37849E+03 -1.63842E+04  9.08479E+03 -1.81400E+04
  1.23509E+04 -9.02810E+03  1.45606E+04  4.30640E+03  2.00991E+04  1.35404E+04 -4.70043E+02  1.30247E+04
 -9.23598E+03  9.91825E+03 -8.27926E+03  7.62876E+03 -8.25845E+03 -4.83091E+01 -1.58116E+03  3.77816E+03
 -1.52775E+03 -3.95692E+02 -2.59789E+03 -1.19491E+03 -9.96685E+03  8.20907E+03 -1.39517E+04 -4.92361E+03
 -3.93422E+03 -1.10924E+04  2.82165E+03 -8.97095E+03  1.07963E+04 -6.22372E+03  4.86675E+03 -2.96143E+03
  1.61227E+04  3.34600E+03  8.47796E+03  1.22177E+04 -1.86154E+03  8.53492E+03 -9.01764E+03  8.19673E+03
 -1.53769E+04 -2.38842E+03  1.55758E+02 -9.20068E+03  3.71634E+02 -1.44017E+04  8.18389E+03 -1.07171E+04
  1.11734E+04  1.48170E+03  5.62250E+03  6.70619E+03  2.12061E+03  5.38844E+03 -5.95564E+03  3.81432E+03
  3.41087E+03 -1.90705E+03  8.03456E+03  5.55289E+02  5.97451E+03 -1.06534E+03  7.65131E+03  1.21765E+04
 -7.10155E+03  9.82333E+03 -7.16714E+03  1.15769E+04 -1.55852E+04  5.61835E+03 -7.88410E+03 -3.57225E+03
 -8.66431E+03 -1.78208E+04  4.45732E+03 -1.02074E+04  5.52042E+03 -1.14894E+04  1.05531E+04 -2.21645E+03
  9.22081E+03  8.02198E+03  2.00849E+03  8.10207E+03 -5.24384E+03  7.21755E+03 -3.20278E+03 -5.16464E+03
 -1.08174E+04  4.51695E+03  5.72792E+03 -3.46990E+03  5.43270E+03 -1.87592E+03  2.69585E+03  3.09125E+02
  6.57706E+03 -7.32173E+02 -2.10939E+03  8.18615E+03 -4.52361E+03  4.69521E+02  4.28676E+03  1.34246E+03
  6.33189E+02  1.42588E+03  2.05347E+03  3.50374E+03  8.73205E+03  8.42854E+03 -3.77133E+03  4.70990E+03
 -7.72657E+03  3.82470E+03 -7.16076E+03  1.20766E+03 -7.54534E+03 -1.91465E+03 -7.29102E+03 -7.16151E+02
 -2.67458E+03 -3.52968E+03  6.55218E+03  1.34028E+03  8.89944E+02 -2.28595E+03 -1.01550E+04  8.26594E+02
 -4.06045E+03  4.73487E+03 -9.06109E+03 -5.81420E+03 -8.13366E+03 -5.24087E+03  6.40184E+02 -9.81254E+03
  1.86548E+03 -6.87680E+03  1.55557E+03 -3.01997E+03  1.98927E+03  1.93689E+03 -3.82696E+03  5.63899E+03
  2.70970E+03  2.52073E+03 -1.54194E+03 -7.33796E+03  1.67741E+03 -1.34637E+03 -3.42850E+02  9.03100E+02
  7.65481E+03  7.89559E+03  7.98432E+03  3.85323E+03  2.81228E+03  8.61583E+03 -7.20954E+03  1.11538E+04
 -3.61297E+03  6.07480E+03 -1.19913E+04 -5.94990E+03 -2.83768E+03 -3.23976E+03 -2.92971E+03 -5.61396E+03
  9.78733E+03 -1.98125E+03  4.93372E+03  2.09288E+03  2.06462E+03  1.73192E+03 -4.39359E+03 -8.08030E+02
  3.88046E+03  2.66669E+03 -2.50418E+03  3.51150E+03 -4.62096E+03  3.37953E+02 -2.56612E+01  2.97332E+03
 -1.82764E+03  7.12091E+03 -8.42144E+03  6.65231E+03 -1.18069E+04 -1.87764E+03 -9.34011E+03 -9.53502E+02
 -9.94060E+02 -9.04225E+03 -3.22952E+03 -2.26581E+04  6.32317E+03 -8.46597E+03  4.13731E+03 -3.18648E+03
  1.40000E+04  3.32183E+03  2.93700E+03  6.24876E+03  2.44001E+03  1.17166E+04  5.65917E+02  5.14671E+03
 -8.97482E+03 -1.46701E+03 -4.59348E+03 -5.36941E+02  1.86205E+03  1.95723E+03 -2.01300E+03 -2.61442E+03
 -2.50834E+02 -1.32936E+03 -1.32863E+03 -4.33627E+02  4.60370E+02 -4.05396E+03  2.35270E+03 -4.43469E+03
  6.99121E+03 -3.95428E+03 -1.11669E+03  1.39324E+02  1.20144E+04  8.42791E+03  2.86079E+03  4.77010E+03
 -6.20782E+03  1.19397E+04 -5.35093E+03  1.20995E+04 -6.74640E+03 -3.99612E+03 -4.97578E+03 -3.25923E+03
 -3.65120E+03 -7.25874E+03  6.27399E+03 -5.86716E+03 -2.25865E+03 -9.70034E+03  9.22443E+03  7.75391E+02
  4.26381E+02  2.72912E+03  2.68766E+03  8.80529E+02 -4.50476E+03 -2.12271E+03 -1.61034E+03 -4.63266E+03
 -2.36668E+03  5.47747E+02  3.36398E+03  6.36283E+03  2.63839E+02  3.41379E+03 -6.73342E+03  7.54862E+03
 -6.73034E+03  5.74636E+03 -7.39178E+03 -1.33243E+03  1.80891E+03  2.04809E+03 -2.76890E+03 -1.09660E+04
  1.03370E+03 -6.25018E+03  8.46348E+03 -1.96488E+03  2.46899E+03 -3.47314E+03 -1.49956E+03  1.51923E+03
  4.95398E+03  5.75550E+03 -5.61329E+03  9.26462E+03  2.08917E+03  2.42719E+03 -4.03025E+03 -8.81030E+02
  5.70799E+03  1.36711E+03 -1.17285E+03  3.38785E+03 -6.86879E+03 -1.67618E+03 -4.63865E+03 -5.95211E+02
 -5.78482E+03 -3.41924E+03 -1.26261E+03 -3.75323E+03  5.40078E+03 -2.81287E+03  5.06511E+03  8.13922E+02
  7.42489E+03  2.90135E+03  1.40069E+03 -2.06612E+03  3.78505E+03  1.05499E+03  1.55577E+03  5.45770E+03
