 $NMID ID='MM_0lb_SNR50_8hz_g60_28.RAW', FMTDAT='(8E13.5)'
 TRAMP=1., VOLUME=1. $END
  3.04619E+05  3.38382E+03  3.40150E+05  2.44758E+05  8.52125E+04  3.28411E+05 -1.32267E+05  2.50373E+05
 -1.94823E+05  8.71678E+04 -1.16648E+05 -2.87147E+04  5.80166E+03 -4.46942E+04  4.63989E+04 -5.91326E+03
  3.12628E+04  5.94049E+04 -1.38020E+04  7.86355E+04 -6.33113E+04  6.67122E+04 -8.67224E+04  3.12054E+04
 -8.40789E+04 -1.78373E+04 -5.13146E+04 -5.47763E+04 -1.54914E+04 -7.14153E+04  2.73075E+04 -5.14286E+04
  4.52367E+04  8.59081E+03  1.33078E+04  5.17220E+04 -3.39280E+04  5.15338E+04 -6.81405E+04 -1.81399E+03
 -6.21606E+04 -5.58408E+04 -9.56485E+03 -7.83920E+04  3.49399E+04 -5.57677E+04  4.75594E+04 -1.65057E+04
  4.14471E+04  6.93103E+03  3.91590E+04  2.45924E+04  1.53798E+04  3.12921E+04 -3.80731E+03  2.54913E+04
 -2.04861E+04  8.76921E+03 -1.83763E+04 -7.31515E+03  8.78420E+03 -8.52932E+03  3.19334E+04  1.27464E+04
  1.76962E+03  4.74858E+04 -3.71102E+04  3.01737E+04 -7.01766E+04  3.86053E+03 -5.77296E+04 -4.08052E+04
 -6.65382E+03 -6.37430E+04  4.54583E+04 -3.60707E+04  6.17330E+04  9.55490E+02  3.02769E+04  3.70382E+04
 -5.96034E+03  4.06974E+04 -3.27965E+04  1.84765E+04 -3.83837E+04 -3.83385E+03 -1.42520E+04 -4.88058E+03
 -1.57648E+04 -2.27532E+04  3.04203E+03 -2.05644E+04  2.67064E+03 -2.05190E+04  1.33268E+04 -1.38790E+04
  9.32086E+03  5.58228E+03 -4.46628E+03  5.42569E+03 -1.59581E+04 -1.06553E+04 -8.08447E+03 -4.15967E+04
  2.06628E+04 -4.99265E+04  4.83522E+04 -2.14545E+04  5.65585E+04  2.00803E+04  2.00027E+04  5.03622E+04
 -1.94116E+04  3.89350E+04 -2.25990E+04  7.88120E+03 -6.44521E+03 -2.32415E+04  2.09290E+04 -3.01332E+04
  4.77700E+04 -1.11152E+04  3.20093E+04  2.95057E+04  2.39263E+04  5.27252E+04 -1.12713E+04  5.59903E+04
 -3.58264E+04  3.69199E+04 -4.71801E+04  1.15383E+04 -4.31119E+04 -2.15842E+04 -2.66885E+04 -4.38563E+04
  3.63975E+03 -4.04741E+04  3.16680E+04 -1.72667E+04  2.91758E+04  1.33719E+04  3.09906E+03  2.39047E+04
 -1.31294E+04  6.25249E+03 -1.15896E+04 -1.03630E+04  5.57746E+03 -1.10141E+04  2.13508E+04  7.64841E+03
  1.66383E+04  1.96439E+04 -3.73149E+03  3.28039E+04 -1.96878E+04  1.36798E+04 -3.96344E+04 -4.54792E+03
 -2.11394E+04 -2.07757E+04 -1.74482E+04 -2.53402E+04  1.10988E+04 -3.04092E+04  2.25927E+04 -2.37152E+04
  3.11464E+04 -1.55312E+04  3.56611E+04  7.35248E+03  3.26133E+04  2.98025E+04  1.62907E+03  4.20754E+04
 -1.98217E+04  3.94613E+04 -3.16130E+04  1.21636E+04 -2.93180E+04 -1.59111E+04 -7.11746E+02 -1.15286E+04
 -5.41698E+02  2.98449E+03 -5.66884E+03  4.43668E+03 -2.47064E+04  3.70149E+02 -2.26374E+04 -1.48786E+04
 -1.46136E+04 -2.76618E+04  4.18102E+03 -2.75400E+04  1.68550E+04 -1.71035E+04  2.47487E+04 -6.38188E+03
  9.90891E+03  1.78134E+04 -3.30931E+03  2.32761E+04 -1.94750E+04  1.58589E+04 -2.44787E+04 -1.22144E+03
 -1.94551E+04 -2.64167E+04 -4.72272E+02 -2.88441E+04  1.19504E+04 -2.41108E+04  2.38988E+04 -1.26865E+04
  2.51571E+04  5.09541E+02  1.58829E+04  4.28405E+03  9.69028E+03 -1.78279E+03  9.83231E+03  7.07258E+03
  2.12625E+04  3.68701E+03  2.53912E+04  1.91758E+04  2.11225E+04  4.08646E+04  2.01108E+03  4.98762E+04
 -2.47440E+04  4.16338E+04 -4.72781E+04  2.02458E+04 -4.93010E+04 -5.81673E+03 -3.27960E+04 -3.45337E+04
 -1.61332E+04 -4.37200E+04  1.64042E+04 -4.10364E+04  3.47344E+04 -1.14566E+04  2.68402E+04  9.40107E+02
  1.31625E+04  1.65250E+04 -2.08460E+04  2.35010E+04 -1.88339E+04  4.38333E+03 -1.46843E+04 -1.38587E+04
  6.00696E+02 -2.13441E+04  1.20633E+04 -1.79228E+04  1.62269E+04  7.84858E+02  7.25950E+02  8.90719E+03
 -5.11529E+03 -9.65894E+02 -1.21246E+04 -7.38040E+03 -1.75523E+03 -2.53131E+04  1.22667E+04 -1.79457E+04
  2.59639E+04 -1.16362E+04  3.15684E+04 -1.91155E+02  2.58759E+04  1.90966E+04  9.43794E+03  3.82074E+04
 -6.98191E+03  2.70207E+04 -2.74109E+04  2.30063E+04 -2.55283E+04  3.41889E+03 -1.76166E+04 -6.62275E+03
 -1.05712E+04 -8.49329E+03  4.43951E+03  4.84558E+03  5.88123E+02  1.93582E+03 -1.60597E+04 -3.71249E+02
 -1.86020E+04  3.93402E+03 -1.69436E+04 -6.11481E+03 -7.37949E+03 -2.35199E+04  2.93013E+03 -1.25734E+04
  1.45603E+04 -6.04785E+03  1.47290E+04 -1.90829E+03  2.83059E+03  4.03731E+03 -1.09297E+04 -3.91887E+03
 -1.03014E+04 -1.98655E+04 -5.26165E+03 -2.01948E+04  1.34230E+04 -2.05459E+04  1.61490E+04 -6.26699E+03
  3.36099E+04  2.17582E+03  2.32202E+04  1.36740E+04  2.82648E+03  2.60910E+04 -1.10513E+04  1.47499E+04
 -1.72138E+04  1.21179E+04 -8.41763E+03 -2.42924E+03 -4.10389E+03 -4.89513E+03  8.50089E+03  6.75626E+02
  4.46025E+03  1.35518E+04 -2.17859E+03  8.75440E+03 -1.42362E+04  1.39534E+04 -2.27098E+04  7.60295E+03
 -9.40714E+03 -3.45045E+03  5.02051E+03 -1.19090E+04  1.51560E+04 -4.39563E+03  7.14403E+03  4.04919E+03
 -2.41812E+03  1.73273E+04 -1.08119E+04  1.00692E+04 -1.85143E+04  4.46222E+03 -1.07483E+04 -5.09427E+03
 -1.10522E+04 -1.89472E+04  4.62051E+03 -2.37026E+04  2.23058E+04 -1.07610E+04  1.91614E+04  2.06262E+03
  8.20012E+03  2.43652E+04 -1.00441E+04  1.65268E+04 -1.00001E+04  1.43121E+04 -1.58966E+04 -4.58085E+03
 -8.08387E+03 -1.42022E+04  2.87766E+03 -2.05693E+04  5.88505E+03 -1.52701E+04  1.12837E+04 -3.43249E+03
  2.31154E+03  4.69994E+02  5.56383E+03 -2.28363E+03 -1.38930E+03 -4.99046E+03  2.70315E+03 -1.79978E+04
  1.43731E+04 -4.63821E+03  1.79873E+04  8.98354E+03  1.75321E+04  1.63730E+04  1.35927E+04  2.33287E+04
 -8.17932E+03  2.85419E+04 -2.02398E+04  2.06626E+04 -2.57238E+04  6.75208E+03 -1.95324E+04 -6.81229E+03
 -1.42277E+03 -2.25865E+04 -5.75217E+02 -2.43060E+04  7.73182E+03 -6.06746E+03  9.45056E+03 -7.02804E+03
  4.78095E+03 -4.10743E+03  4.08540E+03 -3.73474E+03  3.84332E+03 -2.37445E+03  1.50882E+03 -4.46140E+03
  1.54043E+04  1.84834E+03  8.72490E+03  1.26629E+04 -3.14773E+03  1.04784E+04 -2.33374E+04  2.95256E+03
 -1.85803E+04  1.35182E+03 -1.40292E+04 -9.33849E+03 -4.53591E+03 -1.57928E+04  1.03648E+04 -1.56231E+04
  2.01567E+04 -1.25437E+04  2.14534E+04  2.02902E+03  2.29708E+04  1.59349E+04  3.57578E+03  2.51256E+04
 -7.71834E+03  1.93775E+04 -1.03443E+04  4.13919E+03 -4.46105E+03 -1.35099E+03 -1.02849E+04 -4.73011E+03
 -5.09717E+03  2.57741E+03 -2.90849E+03  1.06147E+04 -3.83805E+03 -1.08713E+02 -7.46584E+03 -4.17524E+02
 -1.45971E+04 -1.58817E+04  1.64473E+03 -2.23119E+04  3.65355E+03 -1.17998E+04  1.65345E+04 -4.82243E+03
  2.22013E+04  7.61161E+03  1.65938E+04  1.64309E+04 -1.24063E+04  2.01014E+04 -7.90207E+03  6.97498E+03
 -1.53619E+04 -7.77645E+03 -8.55378E+03 -6.84413E+03  7.72159E+03 -1.48099E+04  5.34987E+03 -2.00718E+03
  1.81232E+04 -7.36216E+03  8.35878E+03 -2.90107E+02 -2.47020E+03  3.18564E+03  2.78739E+03  5.47540E+03
  6.75993E+02  4.88999E+03  5.17773E+03 -2.33930E+02  7.17610E+03  3.48269E+03  8.58206E+03  1.04792E+04
 -6.96444E+03  1.11284E+04 -9.47760E+03  1.62978E+04 -1.66030E+04 -5.74601E+02 -1.96115E+04 -1.07761E+04
 -7.94818E+03 -1.98728E+04 -4.20390E+02 -1.74573E+04  7.74094E+03 -5.28567E+03  1.10135E+04 -4.67525E+03
  1.44182E+04  1.87594E+04  2.29364E+03  1.22990E+04 -7.01558E+03  5.46417E+03  1.87570E+03 -3.98645E+03
 -4.16094E+03 -7.68666E+03  1.25197E+03 -6.84050E+03  9.26405E+03 -9.85930E+03  1.54339E+04 -3.04216E+03
 -2.95222E+02  7.28559E+03  4.09678E+03  2.31446E+02 -2.01575E+03  5.57542E+03 -7.58982E+02  4.36908E+03
 -5.40500E+03 -2.41624E+03  8.92274E+03 -3.90692E+03  1.14045E+04  1.67260E+04 -6.71054E+03  1.62840E+04
 -6.23317E+03  1.06018E+04 -1.32411E+04  4.91042E+03 -1.01931E+04 -3.64411E+03  2.14939E+03 -3.67175E+03
  3.02327E+03 -1.03902E+04  1.93405E+04 -1.51766E+03  3.96122E+03  2.62699E+03 -3.02790E+03  1.06162E+04
 -9.00684E+03  3.21644E+03 -6.95341E+03 -4.72227E+03 -5.75125E+03 -1.40789E+04 -9.10148E+03 -1.30103E+04
  3.79854E+03  9.50637E+02  8.04694E+03 -2.35379E+03  1.05230E+04  3.26036E+03 -3.72666E+03  9.70946E+03
 -8.07631E+03 -2.31006E+03 -3.03650E+03 -5.64648E+03  5.78748E+03 -9.21709E+03  1.20468E+04 -9.22500E+03
  1.93912E+04  6.41022E+03  1.58206E+04  6.07676E+03  3.84065E+03  1.31936E+04 -2.68156E+03  5.85725E+03
 -9.29210E+03  4.49594E+03 -7.23157E+03  1.37430E+03 -8.73548E+03 -2.01492E+04  5.32180E+03 -6.87944E+03
  1.34522E+04  4.12355E+00  7.37474E+03 -7.78159E+02  3.29896E+02  5.09527E+03  8.11177E+02  3.21569E+03
 -2.70098E+02 -4.42386E+03 -2.31991E+03  3.25207E+03 -5.48869E+03 -6.53768E+03 -2.65408E+03  3.78008E+02
 -4.12733E+03  8.47326E+03 -1.73763E+04  8.77823E+03 -1.75991E+04  3.58164E+03 -1.70884E+04 -1.02178E+04
 -9.59208E+03 -1.92576E+04  1.02794E+03 -2.27867E+04  8.53177E+03 -1.34757E+04  1.41364E+04 -3.79165E+03
  1.58813E+04  3.73137E+03  1.25584E+04  1.45673E+04  1.78291E+03  1.59759E+04 -3.66189E+03  1.04476E+04
 -1.39342E+04  1.20523E+04 -4.77541E+03  2.76547E+03  4.39947E+03  6.66649E+03 -1.64285E+03  2.85429E+03
 -2.51617E+03  2.05978E+03 -2.49935E+03 -1.25094E+04  3.31437E+03 -3.44570E+03 -2.74201E+03 -3.47445E+03
  1.38001E+04 -4.43838E+03  1.22945E+04  6.10988E+02  1.09849E+04  2.52232E+03  3.19294E+03  1.37744E+04
 -4.70117E+03  1.17587E+04 -6.36276E+03  7.41118E+03 -2.60198E+04 -3.07015E+03 -8.69448E+03 -2.75243E+03
 -8.15660E+03 -1.72790E+04 -4.56815E+02 -1.36560E+04  2.39098E+03 -8.30588E+03  1.28139E+04 -5.00968E+03
  1.06859E+04  5.97359E+03 -5.67446E+03  6.88291E+03 -1.38927E+02  2.20319E+03 -6.40720E+02 -8.38878E+02
  6.99874E+03 -8.97897E+02  3.55777E+03  2.77720E+03  4.24253E+03  7.01136E+03  5.18170E+03 -1.76158E+03
 -6.31269E+03  6.75166E+03 -1.50611E+04 -7.80460E+02 -5.17238E+03 -7.42908E+03  5.61562E+02 -1.21484E+04
  3.60543E+03 -9.37628E+03  1.49027E+04 -8.51218E+03  6.30646E+03  3.46434E+03  2.17885E+03  8.84102E+03
 -2.62167E+03  8.91618E+03 -1.20520E+04  4.70401E+03 -4.98147E+03 -4.88159E+03 -8.27349E+02 -6.88562E+03
  2.42893E+03 -4.29034E+03 -2.95941E+03  4.50710E+03 -6.75797E+03  1.15429E+02 -1.33188E+04 -3.20407E+02
 -7.13032E+03 -2.28564E+03  4.52794E+03 -9.60490E+03  7.93524E+03 -1.23423E+04  5.62998E+03 -4.08540E+03
  1.24199E+04  3.30561E+03 -1.06039E+03  5.52245E+03  4.97266E+03  1.10164E+04 -8.28123E+03 -1.25943E+03
